timestamp,emg1,emg2,emg3,emg4,emg5,emg6,emg7,emg8
1523066714490496,1,8,22,17,10,2,21,3
1523066714490496,1,6,2,8,5,0,-1,-6
1523066714491497,-1,2,11,-1,-6,2,3,1
1523066714491497,-6,-21,-74,6,8,1,-4,-7
1523066714491999,5,22,101,-11,-15,-8,-13,-7
1523066714491999,-8,-3,-27,-8,-4,-3,7,21
1523066714495507,4,3,-14,6,7,1,1,-11
1523066714495507,-12,1,-1,1,-4,-6,-3,1
1523066714502029,17,-5,-27,5,3,-1,-15,-2
1523066714502029,-1,-13,3,2,-1,10,23,-5
1523066714511550,2,11,1,4,5,-8,-5,-4
1523066714511550,5,-1,4,-22,-14,-2,8,1
1523066714517066,-11,-7,-14,11,13,4,-2,-2
1523066714517066,-3,-7,45,-5,-12,-11,-34,-5
1523066714532607,2,2,-17,5,1,0,38,5
1523066714532607,12,10,25,9,4,2,-15,-4
1523066714540627,-17,-9,-37,-9,-6,2,3,2
1523066714540627,4,2,-20,-2,1,0,13,-2
1523066714557673,-7,-4,49,0,0,2,-14,0
1523066714557673,3,7,-6,1,-3,-6,-30,-4
1523066714562186,-1,-3,-16,-9,-13,0,22,4
1523066714562186,0,0,-4,5,3,-7,-10,-6
1523066714572713,-2,-5,-13,-12,-4,0,-3,-1
1523066714572713,-3,-1,3,-5,0,1,7,0
1523066714577225,0,-6,10,-7,-1,-6,-10,-5
1523066714577225,-1,9,10,5,1,1,-9,-2
1523066714626355,-20,-8,-18,0,1,9,-10,-5
1523066714626355,10,0,6,-9,2,-4,18,-3
1523066714626857,0,6,-2,-8,-10,-6,-4,3
1523066714626857,-8,-6,12,1,-2,-5,4,-6
1523066714630867,1,-4,-7,-2,-1,-11,-33,-2
1523066714630867,-5,-3,-3,4,-1,-9,-25,-10
1523066714631369,-2,-9,-7,3,8,17,54,4
1523066714631369,8,10,36,0,-4,-9,-33,-3
1523066714636884,-6,-1,11,5,3,4,26,8
1523066714636884,3,3,1,-7,-12,-13,-28,-4
1523066714644404,5,-2,-30,2,5,-2,-34,0
1523066714644404,-1,-7,-29,-1,-1,0,-3,-1
1523066714653428,7,14,72,-1,-7,-7,7,-11
1523066714653428,-8,2,-12,-4,-4,-5,-11,-5
1523066714666964,1,-1,29,-3,-4,-11,-19,8
1523066714666964,5,-2,-22,4,2,8,3,9
1523066714675990,1,-6,-29,-3,6,-3,-1,17
1523066714675990,-5,2,4,2,2,9,-1,-22
1523066714682008,-3,5,20,4,2,2,19,-6
1523066714682008,-6,-11,-8,-4,-5,0,9,1
1523066714697176,7,8,-3,0,-5,-2,11,-2
1523066714697176,2,-1,-27,3,5,3,1,5
1523066714704564,-2,1,17,17,9,10,0,-1
1523066714704564,-9,-13,-45,-34,-9,-9,-6,-5
1523066714713589,-9,-2,6,0,-3,1,-6,3
1523066714713589,12,11,17,31,12,2,-1,4
1523066714727239,-29,-26,-51,-50,-29,-13,-4,-19
1523066714727239,5,3,12,9,5,0,-4,8
1523066714735861,-2,0,22,16,0,-6,-7,1
1523066714735861,5,-19,-51,-30,-8,-4,-6,6
1523066714741915,-1,5,30,29,13,3,2,0
1523066714741915,-35,-10,-60,-3,12,5,-13,-8
1523066714757419,25,4,-7,-41,-38,-17,-10,-16
1523066714757419,-3,6,29,14,15,16,17,5
1523066714764438,5,-9,-32,-6,-3,-5,-9,2
1523066714764438,-6,0,5,13,10,2,7,7
1523066714773460,-1,3,-4,9,3,8,20,-3
1523066714773460,-4,-1,12,33,20,2,6,7
1523066714786997,2,1,-24,-45,-32,-9,9,-7
1523066714786997,11,12,35,14,5,-1,-31,2
1523066714796023,-1,-5,-19,3,10,16,45,-3
1523066714796023,-7,-10,-10,-4,-4,-3,3,-3
1523066714802277,0,5,19,26,19,1,-21,2
1523066714802277,5,6,8,-15,-6,1,8,-5
1523066714816577,3,-5,-8,9,7,0,-6,3
1523066714816577,-10,6,-11,-9,-3,9,16,4
1523066714824599,3,0,-2,-7,-9,-9,-30,-5
1523066714824599,9,2,7,-6,-7,3,29,-3
1523066714833620,7,-2,-30,2,10,1,-12,3
1523066714833620,-18,-11,16,-13,-6,-1,7,3
1523066714847431,8,6,-1,1,-2,2,12,4
1523066714847431,1,4,57,7,-3,1,-21,-10
1523066714855684,-11,-7,-27,-7,-1,-2,3,0
1523066714855684,5,-3,-9,-4,-5,-4,-5,-4
1523066714862196,0,-1,11,-5,-7,-8,-6,1
1523066714862196,-3,13,-27,8,-1,-2,13,-3
1523066714877238,2,4,35,22,15,7,-20,0
1523066714877238,0,-18,-38,-35,-22,-4,-3,-1
1523066714884411,-6,-12,0,8,8,4,15,20
1523066714884411,-3,-10,-28,2,2,0,-3,-8
1523066714899297,-6,10,22,-11,-5,-10,-15,-13
1523066714899297,1,9,10,2,-2,-8,-4,-10
1523066714906949,-2,-6,-5,6,1,-1,4,-3
1523066714906949,4,-5,22,-10,-5,-3,-12,10
1523066714915842,1,-5,-20,-2,2,8,19,1
1523066714915842,-3,7,38,-1,-4,1,11,-1
1523066714921987,2,2,-21,0,5,1,-11,-2
1523066714921987,2,1,22,7,1,-4,3,2
1523066714936896,-4,-3,-14,-11,-10,-3,0,0
1523066714936896,-2,-4,-10,3,-1,-8,-29,-6
1523066714944574,4,9,23,4,2,7,6,0
1523066714944574,2,4,-6,1,-1,-2,5,5
1523066714953440,-9,-7,20,0,1,3,12,-7
1523066714953440,6,10,36,13,4,-3,1,-1
1523066714966977,3,-6,-12,-32,-28,-7,-15,-5
1523066714966977,5,12,3,6,6,15,16,5
1523066714976006,1,2,6,-3,-3,-7,-34,4
1523066714976006,-6,-9,-24,2,6,-4,25,5
1523066714982161,-1,5,6,3,2,4,6,-9
1523066714982161,-1,-2,2,-17,-13,-9,6,-5
1523066714997214,-3,-12,-30,-4,-4,-4,-37,5
1523066714997214,6,4,-15,1,2,3,-9,6
1523066715004732,-7,2,21,8,0,-5,-2,-13
1523066715004732,-8,-22,-41,-10,-3,-12,-21,-8
1523066715013257,-4,7,10,6,5,5,20,-1
1523066715013257,3,-2,-4,0,-7,3,5,4
1523066715027321,0,-2,-3,3,12,3,-4,-1
1523066715027321,-9,-11,-13,-7,-16,-5,8,-1
1523066715035812,-1,-2,22,5,3,-8,-24,-4
1523066715035812,5,15,21,-5,-7,-2,-28,5
1523066715042079,-4,-2,-30,10,14,14,61,-3
1523066715042079,11,11,60,4,-1,-2,-16,0
1523066715056869,0,-4,-28,8,6,3,23,2
1523066715056869,-4,-8,-21,-24,-14,-2,-8,0
1523066715064389,-6,-1,16,5,6,-6,-22,-5
1523066715064389,8,-3,-37,29,18,1,-18,-1
1523066715073413,-1,1,18,-19,-16,-2,-3,2
1523066715073413,-4,0,28,10,3,-1,2,-3
1523066715087199,1,-2,-17,-6,-8,-7,-17,3
1523066715087199,-6,-7,-11,1,3,8,37,-4
1523066715095974,-4,-8,-27,-6,-5,-2,-10,1
1523066715095974,-2,-2,-9,-2,-1,1,4,-5
1523066715102159,-1,4,2,5,-2,-4,-15,0
1523066715102159,4,10,32,1,1,0,1,1
1523066715117078,0,2,13,9,5,1,6,-1
1523066715117078,-3,-11,-22,-13,2,-1,9,-1
1523066715139639,-3,-15,-18,-12,-4,-5,-34,-4
1523066715139639,-3,-12,-16,-7,-6,3,32,9
1523066715148612,-8,7,4,7,6,6,1,0
1523066715148612,3,-2,-4,4,2,-2,-13,-9
1523066715163151,10,9,19,5,3,-4,-12,1
1523066715163151,-20,-11,-19,-13,-5,-2,21,-4
1523066715164655,8,-5,-14,-6,-8,-14,-7,-7
1523066715164655,-24,-11,8,7,5,2,-26,-3
1523066715185710,12,7,2,-2,-3,2,-3,9
1523066715185710,-4,-11,-30,-3,3,6,1,2
1523066715187214,0,-4,26,1,2,5,28,-5
1523066715187214,6,4,-24,4,-3,2,0,2
1523066715199246,0,9,27,0,-3,-2,13,-3
1523066715199246,-4,-12,-13,-1,-4,-8,-5,-3
1523066715208271,-5,10,-17,-7,-4,-11,-56,-12
1523066715208271,10,0,17,1,-3,-11,47,5
1523066715222809,-6,-14,-10,5,12,33,9,17
1523066715222809,3,13,10,-5,-10,-20,-2,-6
1523066715229326,5,-14,-47,-3,-2,7,6,-9
1523066715229326,2,19,67,3,-3,-2,-24,-14
1523066715245870,-18,-29,-57,-15,-16,-27,-31,-1
1523066715245870,16,8,2,-1,-4,-5,-30,13
1523066715247374,0,1,5,2,9,21,49,15
1523066715247374,1,1,-16,0,2,5,1,-16
1523066715268431,1,5,38,1,1,1,13,-16
1523066715268431,-3,3,-5,-9,-4,-1,-19,-4
1523066715269937,-1,0,-12,-5,-17,-17,-4,3
1523066715269937,1,-2,-10,0,0,9,20,7
1523066715281969,-5,7,4,1,2,-2,3,-5
1523066715281969,6,4,6,-4,-1,1,2,-4
1523066715290991,3,3,16,8,5,-5,-4,1
1523066715290991,-4,-6,-26,-20,-12,-1,0,3
1523066715305027,-4,-1,15,3,-1,-1,6,2
1523066715305027,6,10,28,0,1,2,5,0
1523066715312046,-5,-9,-26,6,-5,-3,-7,-11
1523066715312046,-4,-1,12,1,-1,-1,-5,20
1523066715328089,13,16,19,-17,-18,-8,-1,1
1523066715328089,-5,-12,-11,-8,4,15,21,-7
1523066715329594,4,11,11,16,8,2,-4,2
1523066715329594,0,10,21,49,21,-6,0,4
1523066715335609,-9,-23,-53,-55,-25,-3,14,-18
1523066715335609,1,-6,4,10,3,-11,-34,-3
1523066715337113,-1,14,40,-25,-11,-3,11,12
1523066715337113,-4,-11,-19,4,4,0,1,-8
1523066715349647,7,7,-8,21,12,2,18,5
1523066715349647,-9,-10,-22,14,4,0,-7,-7
1523066715358772,-7,-11,-4,-9,-4,-2,0,-8
1523066715358772,1,-7,-35,-12,3,1,-7,-1
1523066715364187,-1,15,45,20,8,6,32,2
1523066715364187,-1,-9,-27,-26,-19,-9,-26,1
1523066715373209,4,7,15,13,5,-3,-21,-2
1523066715373209,-1,-12,-12,-13,-8,1,15,12
1523066715387305,4,-2,-5,-5,2,-1,-8,0
1523066715387305,4,13,31,21,8,3,21,-1
1523066715395770,0,-13,-15,-26,-14,-13,-14,0
1523066715395770,-7,-10,-22,-12,-7,-1,-6,-14
1523066715409838,-2,-5,1,7,5,0,14,5
1523066715409838,-1,5,8,9,3,1,-3,-6
1523066715418329,-4,1,1,8,9,4,5,13
1523066715418329,3,-6,-25,-36,-32,-11,-16,-3
1523066715424786,1,9,46,28,17,4,-16,-2
1523066715424786,-4,-5,-24,-18,-8,5,8,-4
1523066715433641,-4,-10,13,-4,-2,-1,-3,0
1523066715433641,6,28,19,6,1,-2,3,-5
1523066715447187,-9,-21,-27,2,-1,0,-9,1
1523066715447187,-1,7,-3,1,-2,-2,2,-3
1523066715456203,0,-5,-1,-2,-3,0,9,-5
1523066715456203,-2,7,-7,5,3,4,17,-1
1523066715469412,3,5,54,-7,-6,-5,-23,4
1523066715469412,-1,-1,-12,-10,-3,-1,-20,1
1523066715478768,-1,1,-13,12,6,2,10,-4
1523066715478768,-4,-5,19,6,7,-4,-9,-3
1523066715484452,0,-3,-52,-8,-3,-6,-12,-9
1523066715484452,-3,1,23,13,7,4,25,11
1523066715493291,2,3,33,-12,-9,5,-1,2
1523066715493291,1,-5,-22,-9,-6,-5,-2,-4
1523066715507020,-3,-3,-11,6,3,3,16,7
1523066715507020,4,2,17,-4,-2,0,-2,1
1523066715515853,-2,-5,-28,7,10,-3,-2,-8
1523066715515853,-4,-4,15,7,-3,-1,-1,0
1523066715529387,-1,-6,-18,-20,-10,1,-4,2
1523066715529387,-3,-5,-3,-6,-4,1,5,-6
1523066715538412,-1,1,-18,1,0,-1,-2,-2
1523066715538412,-1,-8,0,-12,-4,0,4,8
1523066715544574,6,18,11,8,7,4,12,5
1523066715544574,-8,-7,41,1,-4,-8,-16,-11
1523066715559612,1,-1,-15,-11,-6,-2,-3,-2
1523066715559612,-2,0,0,8,7,5,1,2
1523066715567133,-7,-4,-28,-9,-9,-9,-12,-8
1523066715567133,13,-1,-8,-1,2,3,7,2
1523066715576161,-6,2,-1,0,-4,-3,-10,-5
1523066715576161,-8,-9,13,4,5,4,8,5
1523066715590183,2,2,2,4,0,-2,0,0
1523066715590183,-2,1,-2,-2,0,-2,-18,-3
1523066715597135,-4,-4,-2,-6,-4,-2,2,-3
1523066715597135,2,2,5,1,-1,2,3,-1
1523066715612753,-6,-2,-2,3,2,-2,-4,-5
1523066715612753,-1,1,-8,0,-4,-2,11,5
1523066715619627,1,-4,-2,0,-1,0,0,0
1523066715619627,-4,-1,1,-3,-5,-16,-33,-7
1523066715635807,6,-5,-8,4,5,21,26,10
1523066715635807,-6,-4,-13,-2,-4,-18,-54,-15
1523066715637174,10,12,21,4,8,21,58,19
1523066715637174,-2,-9,1,-1,-3,-5,-3,-4
1523066715650344,-6,-4,-10,-1,-1,-9,-14,-7
1523066715650344,-6,-14,-1,1,0,-5,-2,-3
1523066715657226,-2,-2,4,-1,-7,-14,-15,-6
1523066715657226,-5,0,2,-4,-8,-6,-8,-2
1523066715672870,0,4,1,2,0,1,-18,-7
1523066715672870,-4,2,-10,0,2,18,65,5
1523066715679424,-3,-20,-21,-12,-12,-21,-48,-16
1523066715679424,-5,5,19,2,8,18,35,11
1523066715695977,-1,9,26,4,0,-6,-17,3
1523066715695977,9,16,-14,-1,7,9,34,20
1523066715697334,2,-17,8,1,-4,-2,-4,-9
1523066715697334,1,3,-8,1,3,-5,-6,-14
1523066715709504,-2,-2,-4,-2,-4,-5,0,2
1523066715709504,5,3,-13,3,7,7,3,0
1523066715718391,-10,-14,-22,2,0,9,7,7
1523066715718391,4,16,27,-6,-6,2,-6,-7
1523066715732928,0,-4,1,1,4,-5,-2,3
1523066715732928,1,-2,0,-2,-7,-8,-7,2
1523066715739592,-5,9,36,9,4,4,-5,-2
1523066715739592,10,-20,-33,-20,-23,-9,-10,-3
1523066715755992,2,14,28,-2,-4,-1,6,-2
1523066715755992,-6,-12,-60,-3,-9,-7,-11,-12
1523066715757495,0,18,46,3,5,6,17,2
1523066715757495,1,-6,5,3,2,-1,-14,5
1523066715769526,7,-4,-3,6,3,-5,13,-5
1523066715769526,-16,-4,10,-8,-4,13,21,11
1523066715778550,5,4,-45,12,3,-8,-42,-2
1523066715778550,-1,9,27,9,7,2,23,-3
1523066715792589,-6,-32,-89,-35,-20,-7,-12,-7
1523066715792589,4,10,79,10,0,-9,-10,1
1523066715799606,0,11,-11,4,8,2,14,0
1523066715799606,1,-8,-34,-7,-10,3,-4,2
1523066715815859,-3,-3,16,29,16,-3,3,-8
1523066715815859,0,1,2,-32,-24,-1,-10,-5
1523066715817152,-4,-4,-15,-17,-8,-1,4,-5
1523066715817152,1,-2,-16,13,9,-2,-20,14
1523066715829417,-6,-3,-1,5,0,-4,-1,1
1523066715829417,1,4,15,10,7,-2,-19,-14
1523066715838717,1,-1,-7,-13,-14,-6,8,-3
1523066715838717,-16,-2,-4,-11,-3,0,4,-11
1523066715852963,23,2,26,10,11,14,-30,10
1523066715852963,-6,1,-14,3,0,0,32,17
1523066715859488,-1,-1,14,-3,0,-1,5,-11
1523066715859488,-5,-3,-17,4,1,-8,-3,-7
1523066715876014,-11,-1,27,-3,-6,-4,-15,-6
1523066715876014,3,-13,0,2,5,-1,-6,-3
1523066715877313,1,7,-6,2,0,-2,-3,7
1523066715877313,-1,-3,4,-1,2,4,27,-3
1523066715889569,1,9,-10,-5,-9,-3,3,4
1523066715889569,1,3,-1,-6,-1,2,8,7
1523066715898369,0,-5,-3,5,0,-1,1,-2
1523066715898369,2,3,17,-2,5,4,-14,-8
1523066715912908,-6,-3,-15,-21,-18,-8,13,-9
1523066715912908,-1,-3,-1,-3,-2,-5,-14,1
1523066715919566,-1,2,18,7,3,5,-3,11
1523066715919566,11,6,-17,5,2,-2,-10,-1
1523066715935972,-13,-6,-7,-5,-1,-2,8,-12
1523066715935972,-4,-9,-2,5,0,0,-6,-8
1523066715937507,-4,4,38,-1,4,0,-7,11
1523066715937507,0,-9,-17,-4,-5,-11,-11,0
1523066715949504,-15,3,16,1,1,0,-10,-9
1523066715949504,21,-2,-5,4,0,-5,4,-6
1523066715958530,-4,0,2,-5,-3,-1,6,4
1523066715958530,-4,-7,5,0,-6,-5,-3,-9
1523066715972766,3,13,9,3,6,11,26,8
1523066715972766,-10,-14,-26,-17,-6,-11,-28,-4
1523066715979790,6,-2,-7,9,4,4,-6,-1
1523066715979790,-1,3,27,-6,-5,0,7,0
1523066716010897,1,-8,-35,5,5,1,1,0
1523066716010897,-3,6,28,3,-3,3,1,1
1523066716012442,1,-6,-32,-8,-2,-5,-5,-6
1523066716012442,1,5,6,4,4,3,-9,15
1523066716040745,0,-9,-6,-2,-7,-2,10,-3
1523066716040745,-2,1,-10,-8,-6,-6,-40,-17
1523066716042734,-9,0,4,-8,-5,2,29,3
1523066716042734,-2,-3,-2,3,2,-5,-19,-1
1523066716047536,5,0,6,-2,5,8,49,7
1523066716047536,-2,9,1,8,3,-6,-17,-5
1523066716048538,-1,-4,-8,9,5,3,-4,-8
1523066716048538,-5,-3,-5,-14,-8,-5,-7,-3
1523066716056109,-1,2,2,8,3,-2,10,6
1523066716056109,-2,-12,-40,-24,-14,2,-13,1
1523066716057062,-2,9,34,2,-4,-5,9,-3
1523066716057062,-10,5,-9,8,7,2,5,-1
1523066716069593,19,-6,-5,2,-3,-6,-23,-2
1523066716069593,0,4,-11,2,2,4,17,6
1523066716078763,-2,-5,-19,-5,-2,-3,-15,-3
1523066716078763,4,-1,3,-3,-4,2,5,2
1523066716092886,-7,2,-4,-1,-3,-1,-11,-5
1523066716092886,-3,-3,15,10,3,-1,8,6
1523066716099706,1,-3,-19,-10,-4,-1,-5,-11
1523066716099706,0,3,9,-2,-1,5,23,6
1523066716115716,-3,-2,-3,-9,-5,1,-2,0
1523066716115716,1,2,-6,8,6,-3,-2,0
1523066716117749,-2,1,21,-1,-3,-5,16,2
1523066716117749,1,0,-14,4,0,4,22,-2
1523066716129440,-2,2,4,-1,-1,-5,-34,0
1523066716129440,-5,1,7,-3,-8,-2,19,-7
1523066716138277,0,-11,-31,1,2,11,-32,2
1523066716138277,3,11,11,-1,0,0,-9,-3
1523066716167856,-4,-1,11,-2,-4,-4,-3,0
1523066716167856,-4,-2,-4,1,0,-9,-5,-9
1523066716174488,1,-6,-17,-4,-6,-2,3,0
1523066716174488,-5,-5,11,5,1,4,0,3
1523066716189530,6,1,3,2,1,6,-1,5
1523066716189530,-4,-4,2,-2,-1,1,21,-2
1523066716199941,-2,-11,-12,-7,-8,-17,-37,-8
1523066716199941,9,7,10,-4,-3,2,9,0
1523066716220497,-5,0,-7,0,2,-5,-20,-8
1523066716220497,-2,-1,2,4,2,4,9,-2
1523066716222633,1,-5,-40,-2,1,1,-8,-10
1523066716222633,-12,1,56,2,1,-2,2,13
1523066716243167,0,-1,-14,-6,-13,-13,-6,1
1523066716243167,0,1,1,-1,0,1,-7,-4
1523066716245174,0,-1,-11,1,5,6,14,-3
1523066716245174,3,-4,-24,-2,-5,-2,-9,-10
1523066716264179,-1,3,-2,-4,-3,2,9,0
1523066716264179,-2,-8,-5,3,3,-2,-11,2
1523066716273704,-1,2,-15,2,6,4,14,2
1523066716273704,0,-1,4,-6,-10,-4,-3,-8
1523066716296378,7,2,37,-3,6,-2,-4,4
1523066716296378,-10,-3,-14,8,0,-4,0,2
1523066716298769,2,13,47,1,-1,6,3,0
1523066716298769,-11,-13,-53,-4,-4,-7,-14,1
1523066716316926,9,-6,-4,0,-2,3,6,-9
1523066716316926,-1,-5,-14,-15,-8,-2,-6,5
1523066716326849,0,13,42,-5,-2,-3,16,9
1523066716326849,-2,-2,-43,3,6,-5,-50,-2
1523066716327347,-6,3,45,16,8,14,4,6
1523066716327347,3,-3,-23,2,5,-1,-1,-13
1523066716332862,4,3,36,15,4,-3,-1,3
1523066716332862,-8,-11,-22,-19,-20,-15,-1,-10
1523066716333361,-6,0,-23,-13,-7,0,5,-4
1523066716333361,1,3,25,11,12,12,-2,1
1523066716340882,-6,-7,-41,4,4,-7,-10,0
1523066716340882,9,6,22,-19,-9,0,4,-5
1523066716347400,-5,1,18,6,2,-3,8,13
1523066716347400,4,1,7,-6,-1,3,14,-5
1523066716348402,-2,-3,-15,-1,-7,-6,-16,-9
1523066716348402,0,-2,-5,5,9,4,31,-5
1523066716371107,-2,-6,-18,-8,-1,12,5,-1
1523066716371107,-3,5,5,-6,-8,-15,-29,1
1523066716372466,0,-2,-4,3,3,13,57,10
1523066716372466,3,-2,5,0,0,1,-16,0
1523066716400711,-16,-4,-11,3,2,-6,4,-11
1523066716400711,13,3,28,13,8,1,-1,6
1523066716402546,-5,-1,-13,-17,-13,-2,-12,-1
1523066716402546,0,-6,-17,6,2,-1,9,-5
1523066716423186,-3,0,3,-1,0,-6,-2,-4
1523066716423186,-12,-14,-21,-4,3,6,-3,5
1523066716425117,2,-2,8,-1,-8,-7,-7,0
1523066716425117,4,6,0,-5,7,6,10,10
1523066716445248,-1,-6,-19,-5,1,-7,-20,-11
1523066716445248,-3,-1,7,1,0,0,-11,1
1523066716452178,1,-5,7,3,1,2,11,1
1523066716452178,-5,5,28,0,-1,6,14,-2
1523066716476327,3,2,-43,-6,-5,-6,-9,-3
1523066716476327,-1,-7,-25,0,1,-5,-6,-7
1523066716478750,-6,7,55,-4,-5,-3,-14,6
1523066716478750,4,3,5,15,5,-2,8,1
1523066716498302,-1,-6,-21,9,-1,2,-14,-6
1523066716498302,12,21,44,-22,-13,3,33,5
1523066716499804,-7,-9,-15,-5,-3,-6,-11,-9
1523066716499804,0,-2,-4,13,9,0,3,0
1523066716520361,0,7,16,-8,-11,-3,17,4
1523066716520361,-2,-11,-28,0,3,1,0,-2
1523066716526965,-10,9,9,2,1,0,-7,-2
1523066716526965,16,-2,15,-2,-1,-4,-7,1
1523066716550973,-4,-4,-6,-13,-12,-4,-5,-1
1523066716550973,-1,-3,-18,8,5,8,21,5
1523066716552446,-4,9,35,-3,-9,-7,-4,-10
1523066716552446,-8,-12,-21,-4,-3,-8,-35,-3
1523066716573500,3,-2,-26,3,6,4,2,6
1523066716573500,-1,3,34,-11,-6,-5,0,-1
1523066716575088,2,-11,-43,8,5,3,1,-2
1523066716575088,-4,-4,2,-4,-1,1,-5,-3
1523066716595149,1,2,20,4,0,-3,-7,-3
1523066716595149,-8,-6,-13,-4,-8,-4,4,-6
1523066716603583,4,-3,-17,0,2,4,5,-2
1523066716603583,1,11,-4,-4,4,8,29,8
1523066716625728,-2,-13,-2,7,3,-2,0,-1
1523066716625728,0,7,15,-5,0,1,-1,0
1523066716627145,0,-3,-15,-13,-11,-7,-9,-2
1523066716627145,2,1,1,6,-1,0,-8,-3
1523066716648201,-5,-2,-3,-2,-3,-3,0,1
1523066716648201,3,8,0,5,3,-1,-5,-5
1523066716649703,1,-9,-12,3,3,-4,-9,2
1523066716649703,-6,-5,-2,-8,-5,-4,-9,-3
1523066716670259,8,13,8,2,7,5,7,0
1523066716670259,-2,-2,2,4,0,1,4,0
1523066716677006,2,-2,-9,-6,-3,-5,-27,0
1523066716677006,0,1,-7,4,0,-4,1,-4
1523066716701562,1,-2,17,-2,1,9,-1,2
1523066716701562,-4,-2,-10,3,-2,5,11,2
1523066716703985,-3,-3,-1,-4,-5,-4,3,-1
1523066716703985,-4,3,8,2,-2,-6,-19,-5
1523066716723165,6,-6,-17,-3,-4,-6,0,0
1523066716723165,3,13,37,-6,-12,-12,-10,-5
1523066716725174,-5,-10,-14,4,11,14,22,2
1523066716725174,-2,-7,-1,2,-4,0,-21,-1
1523066716744304,-3,2,-11,-9,-4,-10,11,-1
1523066716744304,-3,-2,3,-4,-10,-12,-27,-7
1523066716753243,11,-2,-15,-3,-2,2,-17,0
1523066716753243,-4,11,50,4,5,9,22,10
1523066716776390,-14,-12,-10,1,-5,-4,-1,-6
1523066716776390,7,-3,-8,1,4,13,5,3
1523066716778820,-9,-12,16,-13,-14,-22,-7,-7
1523066716778820,-1,8,-52,-1,0,-2,-4,-7
1523066716796859,8,6,28,1,0,-2,-17,5
1523066716796859,2,0,23,4,0,4,33,20
1523066716813403,2,-3,-34,-2,5,5,4,7
1523066716813403,-3,-7,-5,0,-2,-3,0,-15
1523066716828497,-5,3,-8,-8,-3,-4,-6,-10
1523066716828497,-7,-22,-22,8,5,8,-4,-8
1523066716829949,0,6,19,3,1,3,10,0
1523066716829949,0,10,34,-7,4,-2,5,9
1523066716850084,-7,-2,-38,-2,-4,0,-9,-2
1523066716850084,10,-7,-3,-1,0,-12,-21,-1
1523066716858524,-1,1,-13,-2,4,3,2,-3
1523066716858524,0,-5,0,-17,-11,-9,-26,-8
1523066716880583,6,7,17,19,10,10,61,12
1523066716880583,-1,-2,-63,2,10,12,7,5
1523066716882087,-8,2,72,-3,-24,-13,-9,-12
1523066716882087,1,-9,-12,-12,-4,6,6,-2
1523066716887686,-3,-8,-36,-18,-12,-12,-16,8
1523066716887686,1,17,38,28,9,-1,-13,-6
1523066716888602,0,-4,-44,-10,-3,4,12,0
1523066716888602,-4,-8,-11,12,11,-1,3,2
1523066716895707,-2,-1,16,14,9,6,6,-15
1523066716895707,-5,-5,-38,-30,-10,2,7,6
1523066716897126,5,10,44,15,2,1,-11,10
1523066716897126,-2,-9,-12,-25,-24,-12,-2,3
1523066716902726,-2,2,6,24,18,10,13,-7
1523066716902726,0,8,11,-16,-5,-4,-14,-11
1523066716903642,-2,-9,-14,1,5,-11,-9,-7
1523066716903642,-1,4,8,12,3,7,-11,10
1523066716910243,-2,-8,4,-12,-4,5,2,3
1523066716910243,-3,13,4,12,4,-7,-19,-9
1523066716910663,-5,-11,-19,0,6,10,11,2
1523066716910663,7,-1,-2,1,3,-3,-6,-9
1523066716918267,-2,-10,-31,-6,-12,-12,-20,1
1523066716918267,-8,-4,33,7,0,3,5,9
1523066716919688,7,8,8,-2,-1,-1,-10,-3
1523066716919688,-6,-6,-7,3,3,2,16,-3
1523066716925290,-2,-3,-2,-8,-5,-2,-15,-7
1523066716925290,0,-7,-29,-4,0,-5,-1,-6
1523066716925702,-2,7,40,-12,-12,-4,4,4
1523066716925702,0,-4,0,12,3,4,10,6
1523066716933310,3,8,15,-6,-1,-2,-14,-4
1523066716933310,-3,-5,0,2,0,-3,-2,-6
1523066716934727,-3,-5,-30,-3,3,2,-1,0
1523066716934727,-5,4,2,0,3,6,14,-2
1523066716940245,10,0,20,-2,-8,-6,-18,-3
1523066716940245,-1,-9,-8,0,2,7,10,9
1523066716940743,-8,-7,-24,-2,-1,4,10,-5
1523066716940743,1,0,6,0,-4,-6,-4,1
1523066716947760,-3,4,-7,-3,0,-7,-16,-6
1523066716947760,-1,0,7,-2,-6,5,26,-4
1523066716948262,6,0,-13,2,-2,-2,-11,1
1523066716948262,-3,1,25,2,2,-1,-8,1
1523066716955296,-2,-1,-3,3,-1,2,7,-4
1523066716955296,-3,3,-3,-16,-8,-6,-7,-1
1523066716961888,-1,-5,-1,-1,2,-3,0,1
1523066716961888,2,1,-1,-2,-3,1,4,-2
1523066716978432,-1,-1,1,-2,-5,-1,5,-2
1523066716978432,0,-6,-3,13,12,2,12,-5
1523066716979848,3,8,6,-6,-6,1,2,6
1523066716979848,-4,-6,3,-11,-8,0,-1,-6
1523066716991969,-2,-1,-15,-6,-4,-6,-14,-3
1523066716991969,0,-9,-18,2,-3,-4,-3,0
1523066717000902,-6,-2,14,2,7,1,-3,-5
1523066717000902,6,-1,-16,-2,-2,-2,6,3
1523066717014941,-24,-2,2,-2,6,-2,-10,-5
1523066717014941,17,7,15,-5,-10,-6,-15,1
1523066717022044,-6,-7,-19,6,6,0,-1,-5
1523066717022044,4,8,-5,2,2,-2,3,6
1523066717038501,0,3,18,5,5,6,8,0
1523066717038501,-10,-8,-11,-4,-11,-12,-10,-8
1523066717040007,4,0,0,-9,-3,2,2,0
1523066717040007,-4,0,-1,16,7,-2,-7,-1
1523066717052097,4,4,6,-9,-6,-1,1,-5
1523066717052097,-3,3,4,6,6,0,1,0
1523066717061061,4,4,-3,2,-7,-3,-6,0
1523066717061061,-9,-7,-10,-4,0,-1,-3,-5
1523066717075195,7,-4,3,1,-3,-1,7,5
1523066717075195,0,-2,-5,-6,0,-1,-22,-1
1523066717082117,-11,-3,16,4,-3,0,-4,-5
1523066717082117,6,9,-3,-5,-4,0,13,1
1523066717098272,-5,0,6,1,1,-3,-3,3
1523066717098272,-3,-1,0,-3,-1,0,-9,-4
1523066717099777,1,2,-6,1,3,-2,0,2
1523066717099777,-12,-17,-11,4,4,-2,-4,-2
1523066717120918,9,25,16,0,1,18,25,10
1523066717120918,-14,-13,2,-4,-6,-12,-14,-8
1523066717122334,12,8,-14,5,1,1,-7,2
1523066717122334,-1,-2,-8,-4,-4,-1,2,-6
1523066717135368,-1,-6,15,-3,-4,-10,-14,-4
1523066717135368,0,3,10,6,7,15,23,5
1523066717141886,-5,-11,-25,-4,-2,-5,14,-4
1523066717141886,5,14,42,-3,-4,-5,1,-1
1523066717158474,-10,-21,-37,-7,-7,-11,-17,-8
1523066717158474,9,9,-4,3,5,11,16,0
1523066717159936,-11,-14,-41,-1,3,-3,-15,-5
1523066717159936,-2,-19,18,-1,-2,1,20,19
1523066717172054,5,23,62,3,-4,-11,-14,-10
1523066717172054,-3,-7,-8,-2,-2,3,24,0
1523066717180994,5,2,-3,0,-1,-1,-3,-3
1523066717180994,0,11,-14,-4,-4,-5,-24,-12
1523066717209642,5,-4,-35,-2,5,4,-4,15
1523066717209642,-1,5,20,2,0,-4,0,-6
1523066717220095,5,7,16,6,8,8,16,7
1523066717220095,-1,0,2,-1,-7,-2,-2,-2
1523066717225196,-6,-10,-4,-3,-2,-2,0,-7
1523066717225196,2,2,-12,-4,-3,-2,-15,-1
1523066717226109,-3,-3,-6,-1,1,1,15,-1
1523066717226109,-1,0,0,-2,-5,-6,-15,-2
1523066717256278,5,1,16,1,0,6,13,8
1523066717256278,0,6,11,2,2,-6,-22,6
1523066717258698,-4,-2,6,-4,-1,-2,-14,-1
1523066717258698,2,-9,-9,-15,-19,1,7,-3
1523066717262734,-7,-15,-60,1,1,-4,-7,-7
1523066717262734,-3,4,43,0,-3,-7,-8,-9
1523066717263209,2,3,11,14,5,-4,-20,-1
1523066717263209,7,-2,-24,-14,-3,12,12,20
1523066717278250,-5,-2,-22,-16,-15,-12,-21,-7
1523066717278250,-1,-7,-9,7,6,4,4,-2
1523066717280255,-1,7,23,18,7,-1,1,-8
1523066717280255,-8,-12,-22,-6,1,0,4,-11
1523066717291881,0,-9,-12,-13,-7,2,4,1
1523066717291881,5,4,19,-7,-3,0,-14,4
1523066717300809,-2,1,10,4,0,-4,-2,-5
1523066717300809,0,1,8,0,4,1,-3,7
1523066717315347,-4,-3,-16,12,-1,-9,21,2
1523066717315347,-3,-9,-28,-10,2,6,-3,-5
1523066717321953,-2,-6,-36,-8,-5,1,12,-4
1523066717321953,7,0,37,7,7,-6,-13,-4
1523066717338472,-5,1,-12,-23,-20,-11,9,-4
1523066717338472,-4,-3,-17,-1,6,8,-5,-2
1523066717339914,2,0,9,-10,-7,-5,4,10
1523066717339914,-7,-2,-14,10,3,-4,3,-9
1523066717352033,18,16,20,15,16,15,-24,13
1523066717352033,-12,-11,12,-7,-8,-11,6,-5
1523066717360970,-4,-3,-5,-7,-7,-2,-6,-6
1523066717360970,0,-6,-56,13,3,-4,-8,-5
1523066717375096,0,8,71,-26,-9,5,14,-2
1523066717375096,0,-9,-27,-3,-6,-6,0,8
1523066717382113,0,-1,-3,-5,1,6,8,-2
1523066717382113,-2,3,-13,5,-2,-6,-13,-3
1523066717413110,-2,-7,3,15,13,7,4,6
1523066717413110,3,2,-12,2,-1,-3,0,1
1523066717414612,-3,-2,5,-10,-7,-4,1,-4
1523066717414612,2,-3,10,4,3,-7,-31,-5
1523066717434664,-2,-2,-8,2,2,9,44,0
1523066717434664,-1,4,7,-4,-7,-3,-6,-2
1523066717444692,-1,-1,-13,2,4,0,-2,2
1523066717444692,-1,6,24,-1,-4,-2,-4,2
1523066717465833,-3,0,6,3,0,-7,-13,-7
1523066717465833,0,-1,-19,5,0,-3,-6,-2
1523066717467254,9,-1,5,-14,-10,2,10,9
1523066717467254,-7,-5,4,-6,-4,-1,3,-9
1523066717488396,-4,1,-1,3,6,-2,-2,4
1523066717488396,0,-6,-30,-2,-3,-3,-13,-6
1523066717489812,0,13,59,0,-1,-4,-16,-1
1523066717489812,-1,4,-5,-3,7,11,14,4
1523066717509450,-2,-12,-18,4,-4,0,11,-4
1523066717509450,4,7,15,4,-2,-7,-12,-2
1523066717519893,-7,1,-7,-2,0,-4,-3,-9
1523066717519893,-3,-17,-22,-29,-15,-3,-11,1
1523066717540970,-4,-6,-10,1,5,-1,6,3
1523066717540970,1,9,19,4,0,-2,10,-1
1523066717542453,-8,-5,-7,4,-4,-2,-8,-3
1523066717542453,0,6,10,7,5,2,9,1
1523066717563508,1,-4,-11,0,1,0,-10,3
1523066717563508,0,-3,-5,-4,-1,1,5,-7
1523066717565013,-2,-6,-12,-14,-9,-1,3,0
1523066717565013,0,13,24,13,3,-5,-6,-4
1523066717584647,-2,-9,-9,-7,-6,-6,-19,-8
1523066717584647,4,18,40,11,2,-2,18,9
1523066717593636,5,-1,-12,6,4,5,3,7
1523066717593636,-5,-10,-17,-21,-10,0,5,-4
1523066717615734,-1,4,3,10,3,-2,8,-8
1523066717615734,-2,-17,-31,-9,-1,2,-4,-1
1523066717617151,0,6,8,10,8,2,12,-2
1523066717617151,0,8,20,-5,-9,-4,0,1
1523066717639209,4,3,12,7,4,0,-9,0
1523066717639209,-4,-8,-18,1,-4,-7,-6,-5
1523066717641216,-12,-2,-4,-4,-2,-1,4,2
1523066717641216,3,-4,-2,8,3,1,-3,0
1523066717659478,-3,0,-3,-2,-1,-2,-6,-4
1523066717659478,1,2,8,3,2,2,0,1
1523066717674521,5,-3,-4,0,1,-2,-7,-4
1523066717674521,-3,1,1,4,2,-2,-6,-2
1523066717691007,-4,-2,-1,-7,-9,-7,-5,-2
1523066717691007,0,-5,-4,-11,-5,-1,11,0
1523066717692485,3,-1,5,1,0,-1,5,-5
1523066717692485,-2,-5,-8,-5,3,2,-37,3
1523066717714046,9,9,3,2,4,4,61,9
1523066717714046,-3,-1,1,-3,-5,3,8,1
1523066717716555,-7,-5,-12,-3,-5,-6,1,-9
1523066717716555,-5,-4,4,7,2,-5,-6,-11
1523066717720104,-2,-2,4,-3,-6,-15,-58,6
1523066717720104,-1,-3,-4,-4,1,7,-2,-2
1523066717721066,3,4,-9,1,3,10,20,5
1523066717721066,0,10,37,0,-1,-4,-13,-4
1523066717742168,0,-6,-14,1,-1,7,16,-4
1523066717742168,-8,-8,-11,-7,-3,-9,2,-4
1523066717751140,2,-8,0,1,0,-1,-30,6
1523066717751140,-4,-3,-37,-8,-8,-11,7,-3
1523066717758209,-2,-1,-8,3,0,10,-12,-4
1523066717758209,5,11,22,1,-6,-11,-17,-1
1523066717759670,-9,-25,-18,3,4,2,7,-6
1523066717759670,3,8,14,3,5,7,7,-2
1523066717765179,-11,-11,-45,-3,-1,1,-31,-5
1523066717765179,12,3,-4,-3,-2,-5,-2,18
1523066717765680,-3,7,17,2,-8,-9,-28,-13
1523066717765680,-10,-5,-24,-2,4,7,-1,6
1523066717772747,12,-1,19,5,6,3,0,-1
1523066717772747,-7,-5,-11,-3,-4,1,-2,-6
1523066717773199,1,-1,3,-8,-2,4,34,5
1523066717773199,-3,2,17,8,-4,0,9,-6
1523066717780839,-5,-9,-14,-8,0,-3,-1,-3
1523066717780839,0,15,28,-2,1,-1,7,3
1523066717782342,2,8,3,6,-1,-4,-13,-1
1523066717782342,0,-11,-24,-11,-2,1,10,-2
1523066717787879,-1,1,16,-8,-10,-7,5,2
1523066717787879,-4,-5,0,0,-1,-1,-3,-6
1523066717788357,4,0,-15,-2,0,5,6,3
1523066717788357,-2,0,29,-1,4,-8,-4,-3
1523066717794668,-2,-1,-16,3,-2,2,27,-2
1523066717794668,-1,0,-1,-3,6,3,-13,3
1523066717803585,3,4,-12,-8,1,6,16,0
1523066717803585,-2,2,13,13,2,5,5,-1
1523066717817749,3,-2,-14,-19,-8,-4,-6,16
1523066717817749,-4,0,28,4,-7,-16,-5,-5
1523066717824666,2,2,-2,4,9,5,3,-7
1523066717824666,2,-9,-23,-18,-14,1,2,1
1523066717840810,-5,3,24,14,6,-3,-8,-13
1523066717840810,-1,-7,-30,-9,-4,6,9,6
1523066717842187,2,5,12,7,5,-10,-28,-11
1523066717842187,2,0,-5,10,6,-1,-2,-1
1523066717854352,0,-1,15,-3,-8,2,22,2
1523066717854352,-4,-5,-11,-4,-3,2,-3,-1
1523066717863242,-7,-4,2,-12,-7,-10,-19,-3
1523066717863242,4,-4,-12,1,-4,-5,-1,-2
1523066717877875,2,2,-2,15,16,16,23,4
1523066717877875,-5,-6,-4,-19,-5,10,18,-2
1523066717884492,0,-7,13,2,-4,-4,-6,0
1523066717884492,-3,1,-4,-2,-3,-7,-25,-3
1523066717901029,1,2,-2,1,-2,-7,12,0
1523066717901029,-3,-7,-5,9,3,2,0,-13
1523066717902400,-3,8,28,-5,-7,-1,-8,9
1523066717902400,3,-3,-17,1,0,2,22,7
1523066717914561,-2,4,11,-5,-4,-5,-20,-5
1523066717914561,-4,-7,3,16,7,2,-1,-3
1523066717923457,5,13,-8,-9,-2,-1,5,0
1523066717923457,-6,-14,-34,-7,-6,0,6,0
1523066717937805,2,8,40,5,-4,-9,-19,-10
1523066717937805,-5,-7,-22,-8,-5,-2,-10,3
1523066717952127,0,2,22,11,-1,-8,4,15
1523066717952127,1,-2,-8,-3,-2,0,-10,0
1523066717975867,0,0,-8,8,10,14,25,2
1523066717975867,1,-1,-15,-5,-1,-4,-23,-10
1523066717981882,0,5,36,4,1,4,17,-3
1523066717981882,-2,1,10,-1,0,-2,10,4
1523066717996796,-1,-2,-7,-5,-6,-7,-14,-4
1523066717996796,3,0,8,12,8,1,-4,2
1523066718005814,5,-5,-33,-15,-9,1,19,2
1523066718005814,-22,10,22,0,0,-7,-9,-8
1523066718028472,13,-18,-43,-5,-3,4,-11,0
1523066718028472,-1,6,27,2,-3,0,1,-2
1523066718029878,0,-6,-19,5,2,-3,-8,5
1523066718029878,1,11,52,2,0,2,12,1
1523066718051044,-8,2,-10,4,0,-9,-15,-7
1523066718051044,-1,1,-1,1,5,0,-2,-7
1523066718052439,-6,-16,-27,-17,-10,-1,-11,-13
1523066718052439,8,7,1,13,13,2,3,15
1523066718072994,-1,-3,-1,-10,-3,2,-7,4
1523066718072994,-7,2,18,-2,-8,-8,-1,-11
1523066718081015,-2,-13,-14,3,8,4,-7,-3
1523066718081015,5,2,-12,-8,-8,1,8,2
1523066718103205,-1,7,4,-3,-3,-5,-14,-4
1523066718103205,0,-6,-17,7,6,0,15,4
1523066718104576,-2,6,1,-5,-8,-8,-22,4
1523066718104576,-3,-9,-23,-3,-2,2,8,-19
1523066718125767,-1,5,44,4,1,-1,-1,4
1523066718125767,2,-4,-23,-11,-6,-3,2,1
1523066718127673,-4,1,4,11,9,-5,2,-8
1523066718127673,-9,-5,14,-6,0,9,7,10
1523066718147189,14,2,0,0,-1,-1,12,-1
1523066718147189,-7,-8,-5,1,-3,0,27,-1
1523066718156716,-1,3,19,3,1,-1,-4,0
1523066718156716,0,-2,-15,-3,-3,0,-23,-2
1523066718178338,-10,-8,-10,-6,-1,-5,-18,-8
1523066718178338,4,3,4,-3,-2,-1,-1,0
1523066718179778,-3,-4,-16,-4,-5,-3,7,2
1523066718179778,3,4,2,-1,0,2,14,-4
1523066718200967,-4,4,-2,-2,-3,1,-13,-1
1523066718200967,5,3,-2,0,3,0,-18,2
1523066718202338,-3,4,11,-4,-5,-7,-10,-4
1523066718202338,3,-6,-11,0,1,5,10,0
1523066718230914,-2,-2,-19,-2,-1,-2,1,-4
1523066718230914,-3,3,32,-3,-2,-1,-10,1
1523066718232417,2,-6,-8,-3,-5,0,-3,-1
1523066718232417,3,2,16,9,7,-2,10,-1
1523066718254188,-1,-9,-24,-5,1,16,44,11
1523066718254188,-2,1,19,-6,-7,-10,-43,4
1523066718255979,4,2,-38,1,1,4,5,-3
1523066718255979,5,13,90,5,-1,-8,-16,-14
1523066718274752,-4,-15,-21,-3,-2,-11,-9,1
1523066718274752,3,6,16,3,7,12,5,4
1523066718283553,-9,-13,-16,-5,-7,0,3,-3
1523066718283553,-7,-5,-28,-1,-4,-4,-6,1
1523066718305665,0,11,39,5,1,2,-12,-6
1523066718305665,-2,-9,-19,-1,0,-3,16,-1
1523066718307117,1,12,34,0,-3,2,1,0
1523066718307117,1,-4,-40,-8,3,0,-16,-3
1523066718328323,2,11,50,5,-4,-7,-15,-3
1523066718328323,-13,-5,-13,1,1,1,19,3
1523066718329682,-2,-2,2,-9,-9,-6,-9,-6
1523066718329682,-4,-15,-48,5,4,2,6,0
1523066718349435,-5,6,42,-16,-11,-4,-3,-7
1523066718349435,0,-4,-12,10,-4,-3,-5,-5
1523066718360291,-3,-15,-59,-17,1,0,-5,-3
1523066718360291,3,8,52,18,6,2,13,3
1523066718364993,6,6,-20,-9,-1,0,-4,20
1523066718364993,8,13,12,-1,-4,-6,-23,-5
1523066718365772,-8,-6,-3,9,3,-3,-8,-14
1523066718365772,1,-8,-26,-4,3,14,14,1
1523066718388555,-2,20,26,29,11,4,-1,-16
1523066718388555,-2,-3,-22,-23,-11,-6,5,3
1523066718389836,1,-3,3,5,4,0,-5,7
1523066718389836,-8,-14,-14,-5,-6,-11,-5,-3
1523066718409533,-6,-11,-8,3,10,1,7,-1
1523066718409533,2,-2,-28,-16,-11,1,14,2
1523066718419916,1,4,43,8,4,1,13,6
1523066718419916,4,8,-2,-3,-7,-4,-4,-3
1523066718441001,-7,-11,-17,6,2,-10,-32,-6
1523066718441001,6,7,0,0,3,2,-12,-2
1523066718442594,-11,1,-1,-4,-1,-3,-19,-6
1523066718442594,2,-5,-23,-9,-9,-4,7,-1
1523066718462028,13,1,41,1,-1,9,-7,4
1523066718462028,-12,-13,-40,-8,-8,-7,1,7
1523066718471053,2,12,47,6,4,4,0,3
1523066718471053,-1,2,15,-1,-3,-4,-7,-5
1523066718494226,-3,-2,-37,-5,-8,-9,3,-7
1523066718494226,1,1,19,7,4,8,14,-4
1523066718495619,0,-7,5,3,0,4,14,0
1523066718495619,1,12,-7,-9,1,-3,-9,1
1523066718515786,0,-11,-7,-11,-10,-2,28,3
1523066718515786,4,5,6,7,6,1,-20,1
1523066718517175,1,2,-20,-4,-5,-4,10,3
1523066718517175,2,0,10,5,4,2,-6,-1
1523066718536845,-9,-2,-33,-12,-12,-8,-3,-6
1523066718536845,-1,0,15,2,3,0,1,-4
1523066718545753,-2,-7,-17,-7,-8,-5,-11,-8
1523066718545753,0,-1,-13,3,4,5,23,6
1523066718568426,-5,-3,-5,-7,-4,-5,-14,1
1523066718568426,1,4,3,10,2,-3,5,2
1523066718569816,5,-1,-15,12,12,8,33,0
1523066718569816,-6,-9,4,-25,-20,-5,-33,4
1523066718590989,-4,10,21,6,2,-2,11,-14
1523066718590989,1,-5,-3,4,4,-4,-13,-9
1523066718592376,2,0,0,-15,-12,-5,-1,8
1523066718592376,0,4,-8,2,1,-5,-6,-2
1523066718612930,-1,-7,-3,2,9,12,34,9
1523066718612930,-3,-6,-15,-3,1,-3,-13,-6
1523066718620951,-9,7,26,1,-3,2,5,-5
1523066718620951,12,-11,2,-3,-4,-4,-8,-2
1523066718643127,3,2,6,0,-5,-3,-15,5
1523066718643127,5,9,-20,6,11,3,13,-4
1523066718645015,-2,-10,10,-2,0,0,-18,-1
1523066718645015,-5,7,30,2,-2,-5,10,0
1523066718665685,-3,-2,-3,0,4,0,-4,-1
1523066718665685,-4,-6,-23,1,-1,0,2,0
1523066718667578,-2,-4,3,-32,-16,-6,-7,-3
1523066718667578,2,7,13,13,2,-4,-3,-6
1523066718687743,-9,-7,-45,-1,0,0,-9,4
1523066718687743,0,2,57,4,0,-5,12,3
1523066718696153,0,1,-15,6,1,4,3,-8
1523066718696153,1,-7,-14,-9,-5,2,22,9
1523066718718210,1,1,0,0,-1,-3,-20,-6
1523066718718210,-4,-7,10,-2,-2,-1,5,-9
1523066718719715,4,-1,-1,-9,-8,3,23,4
1523066718719715,-5,1,-20,0,2,-5,-44,-6
1523066718740269,-1,-8,-2,4,2,-1,3,3
1523066718740269,-5,-5,-14,-6,0,1,4,0
1523066718746819,6,11,-3,-4,-5,-1,-7,1
1523066718746819,-13,-6,-1,2,0,-3,-6,-8
1523066718771042,0,0,30,-10,-2,2,-17,1
1523066718771042,0,5,18,2,-3,-3,-1,2
1523066718772354,0,-10,-66,6,5,-4,-12,-5
1523066718772354,-2,8,27,-1,1,0,-5,-1
1523066718793911,-2,-1,8,0,-3,-1,-3,-2
1523066718793911,-3,-1,1,-8,-11,-4,9,-7
1523066718796419,3,1,0,6,6,5,-17,9
1523066718796419,0,-8,-14,-1,-2,-1,14,2
1523066718814695,1,-3,-6,0,-3,-1,2,-4
1523066718814695,-1,5,0,-2,-5,-3,-6,-6
1523066718823490,1,-1,10,5,1,1,1,5
1523066718823490,2,0,-8,-1,-1,-10,-55,-4
1523066718845549,1,3,-6,0,4,15,50,3
1523066718845549,-3,-4,-6,-6,-7,-2,-11,1
1523066718847554,-2,-4,0,9,3,-5,8,0
1523066718847554,-6,3,9,1,4,6,9,4
1523066718868332,-3,-5,-16,-3,-2,-7,-1,-11
1523066718868332,1,-3,-3,-3,0,1,-22,6
1523066718870260,-6,-2,5,1,0,-11,-21,-11
1523066718870260,3,-9,-34,-3,-2,9,36,10
1523066718889708,-2,11,51,4,1,-1,-12,-3
1523066718889708,0,-1,-24,-2,-6,-3,10,4
1523066718898189,3,-2,-4,-2,-1,-6,-5,-3
1523066718898189,10,5,-13,-3,-4,-3,-11,-1
1523066718921464,-12,-1,2,-5,-9,-1,-2,-13
1523066718921464,1,-21,-26,5,10,8,16,5
1523066718924067,-5,11,46,2,-1,-8,3,14
1523066718924067,-1,-6,-27,-4,-6,-4,22,-6
1523066718942119,4,-1,-13,-3,-2,0,-4,-5
1523066718942119,0,8,6,-2,-2,-2,-2,-6
1523066718951042,2,-3,-10,-3,-5,1,-21,-7
1523066718951042,-8,-11,31,1,4,0,4,1
1523066718974196,7,0,-39,-1,5,-5,-4,4
1523066718974196,-3,4,10,-2,-1,-1,2,1
1523066718975608,-4,6,10,3,-1,4,6,-1
1523066718975608,0,-3,-13,0,-3,-3,-10,-7
1523066718994252,-10,-18,-25,-2,-5,-10,-11,0
1523066718994252,7,8,6,-10,-8,-2,-8,-1
1523066719003709,4,-3,-5,1,-2,1,13,7
1523066719003709,1,5,26,-4,-3,3,1,4
1523066719025967,-4,-11,-45,-2,1,-6,-11,-9
1523066719025967,2,9,60,3,5,4,45,-11
1523066719027376,-6,6,29,7,1,3,-41,-2
1523066719027376,-4,-5,-23,-9,-8,0,26,0
1523066719048447,3,-1,-8,10,12,-1,-2,2
1523066719048447,-6,-7,-6,-12,-9,-4,-6,-3
1523066719049961,-9,-13,-63,-2,5,-3,15,-9
1523066719049961,11,28,83,6,-4,0,-5,3
1523066719070078,0,1,24,18,7,0,-4,5
1523066719070078,-9,-13,-27,-27,-12,-4,-20,2
1523066719078511,3,-12,-45,-1,6,5,40,-5
1523066719078511,-1,3,2,7,-1,-2,-14,1
1523066719100655,1,6,27,3,3,6,4,-1
1523066719100655,-4,-15,-30,-1,0,-7,-16,1
1523066719102573,2,9,31,-8,-5,1,-19,-8
1523066719102573,-4,-7,-29,-10,-6,-14,-2,-15
1523066719123130,3,4,-12,-6,-2,12,24,29
1523066719123130,6,3,24,17,6,1,-18,-3
1523066719125133,-6,4,-10,-2,-1,-4,3,-1
1523066719125133,-8,-8,-17,1,7,1,-4,-7
1523066719144183,-3,12,36,-5,-7,-8,-20,-12
1523066719144183,10,-2,-17,4,2,4,12,11
1523066719153209,-4,-6,3,10,6,2,3,-7
1523066719153209,1,-1,-3,0,6,6,-1,0
1523066719176355,-5,-12,-15,-18,-15,-8,-9,-3
1523066719176355,-8,-2,-3,5,-2,-5,-5,-2
1523066719178781,-5,-4,13,-11,-12,-1,4,4
1523066719178781,-1,-2,-5,23,21,2,-4,1
1523066719198414,3,1,-7,-26,-16,-5,5,2
1523066719198414,0,-2,-35,-2,1,-2,4,1
1523066719199832,6,2,29,4,1,-4,0,-12
1523066719199832,-3,-2,22,-2,-1,18,15,17
1523066719219977,-2,-3,-1,7,0,-10,-27,-11
1523066719219977,-1,4,22,1,-4,0,6,-3
1523066719226998,4,15,-7,-5,-4,-6,-22,2
1523066719226998,-6,-17,-29,-8,-4,-3,-10,-2
1523066719250968,-1,6,4,12,5,-2,-4,-1
1523066719250968,8,-5,-8,-16,-4,7,17,5
1523066719252473,0,5,21,-2,-6,-2,8,15
1523066719252473,1,-1,8,3,2,0,-1,-11
1523066719274121,-1,-6,-19,-5,3,1,11,3
1523066719274121,-10,-5,7,8,4,-4,-9,-7
1523066719275535,3,-2,-1,-1,-1,5,14,-3
1523066719275535,3,4,-12,-2,-1,3,12,2
1523066719294584,-8,-4,-23,-8,-4,-7,-7,-4
1523066719294584,1,3,19,-4,-4,4,10,0
1523066719303158,0,-2,-11,6,12,-1,-26,-5
1523066719303158,-2,-4,-12,-4,-7,-4,26,3
1523066719325718,5,-1,12,7,5,4,20,-1
1523066719325718,-2,17,6,9,3,-2,-1,-3
1523066719327222,-2,-22,-46,-9,-3,2,-2,-1
1523066719327222,1,3,-2,-1,1,-1,-1,-2
1523066719348280,1,2,17,-7,-9,0,4,-2
1523066719348280,-4,-3,-20,3,3,0,-2,1
1523066719349785,-1,7,21,7,-2,-4,7,1
1523066719349785,-7,-4,-40,-11,-6,-9,-2,-4
1523066719369334,0,-10,29,-8,-5,1,-27,-2
1523066719369334,1,0,4,1,-1,2,25,4
1523066719379862,-4,11,-1,0,-1,-2,4,0
1523066719379862,3,0,7,-1,-5,-9,-34,-10
1523066719400995,-1,-1,-20,0,4,6,16,-3
1523066719400995,-1,-1,7,4,4,-1,-6,7
1523066719402424,-4,-2,4,3,6,9,24,0
1523066719402424,-6,-4,-10,-7,-6,-2,6,1
1523066719422094,2,-2,-2,-1,-1,-4,-7,-3
1523066719422094,0,6,4,2,0,3,-9,-8
1523066719431001,1,-5,-9,2,3,-5,-10,2
1523066719431001,3,15,34,10,4,2,9,-2
1523066719454179,-4,-17,-51,-15,-12,-5,14,-2
1523066719454179,-3,2,2,1,2,-7,-33,4
1523066719455563,1,-8,6,-4,-1,15,39,5
1523066719455563,7,8,20,1,-1,-1,-20,-1
1523066719474684,-16,2,0,8,2,-5,1,-5
1523066719474684,-5,-14,-21,-7,-4,3,-3,-6
1523066719483136,2,8,-8,-1,-1,-6,9,1
1523066719483136,2,-3,25,5,0,3,-13,-4
1523066719505792,1,-1,-8,-1,-1,2,10,1
1523066719505792,-1,2,23,-1,-2,-7,-18,-3
1523066719507201,-4,-9,-16,-3,-2,-2,-1,1
1523066719507201,-11,3,0,-8,-8,-2,28,-5
1523066719528259,17,-15,0,9,10,2,-39,4
1523066719528259,-2,4,3,0,0,2,35,-4
1523066719529763,4,0,5,-2,-2,-4,-19,2
1523066719529763,-7,-1,-30,-2,-1,3,-15,-4
1523066719550344,2,9,24,0,0,5,36,1
1523066719550344,-3,4,24,-1,-6,-8,-34,-11
1523066719558338,-2,-5,-29,-4,-3,-7,-9,2
1523066719558338,1,3,54,1,-3,-5,4,-1
1523066719580975,4,9,-36,-3,-2,1,-7,-14
1523066719580975,-14,-21,-32,3,5,3,22,25
1523066719582400,9,33,82,0,-5,-14,-46,-32
1523066719582400,-1,-10,-23,0,0,6,20,12
1523066719603458,-3,4,2,-3,-1,-5,-12,-4
1523066719603458,3,-5,-17,1,7,10,-10,1
1523066719604962,-5,-8,20,5,3,1,-6,4
1523066719604962,2,-5,-20,-4,0,-13,-28,-3
1523066719625015,-2,10,28,3,5,6,22,5
1523066719625015,-2,-4,-23,-6,-2,-1,-5,-7
1523066719632121,-1,-5,-10,-1,1,-1,-2,3
1523066719632121,-9,-3,-9,0,-5,0,-10,-6
1523066719656680,2,-3,3,-5,-3,-7,-9,-3
1523066719656680,3,-2,14,1,3,-3,-2,1
1523066719659154,-5,-6,-18,-7,-3,5,18,7
1523066719659154,3,-6,-22,3,1,-9,-17,-4
1523066719678156,-8,0,-5,7,13,-3,3,3
1523066719678156,-1,-5,26,-30,-35,-9,-11,4
1523066719679660,0,21,24,16,3,-1,-4,-18
1523066719679660,-4,-10,-15,5,13,9,26,-3
1523066719700299,-4,-5,-39,-23,-12,-2,-20,14
1523066719700299,14,17,12,25,13,2,-2,-15
1523066719707828,-6,-18,-13,-38,-23,-6,13,6
1523066719707828,-3,-5,-3,-10,-9,-5,-10,-1
1523066719708237,-7,-9,2,18,12,5,-9,8
1523066719708237,6,10,26,-10,-7,4,10,4
1523066719715333,-16,-9,-29,16,10,-7,-19,-3
1523066719715333,4,3,-18,6,9,4,12,-6
1523066719715758,2,4,47,-11,-19,-5,5,-3
1523066719715758,-4,-9,-21,6,9,-3,-23,-2
1523066719724305,4,-2,-17,6,4,3,-4,-7
1523066719724305,4,5,26,3,0,6,13,8
1523066719724781,-12,6,8,-12,-15,-9,-27,0
1523066719724781,15,2,-12,1,-5,-8,12,-4
1523066719730796,3,-14,-13,-8,1,3,-20,2
1523066719730796,-2,0,-12,-1,4,-5,-7,-1
1523066719731298,2,5,15,7,-1,-2,-6,-14
1523066719731298,-4,1,-24,-10,-4,8,43,1
1523066719732301,3,-14,-12,3,4,0,-31,17
1523066719732301,-6,8,12,-18,-16,2,40,7
1523066719738317,2,-2,16,10,1,-5,2,-12
1523066719738317,-10,-5,-23,-4,-2,-7,-18,-8
1523066719744977,10,4,10,3,1,1,23,1
1523066719744977,1,-4,1,6,4,6,-8,-1
1523066719745975,-1,-10,-27,-22,-14,-5,8,4
1523066719745975,-6,-7,0,7,8,3,3,-5
1523066719752492,-4,-5,-4,-2,1,1,0,-2
1523066719752492,2,8,0,0,-6,-7,-18,0
1523066719753493,2,1,10,-1,-3,6,9,4
1523066719753493,-3,-5,-4,-2,-2,-9,-13,4
1523066719761015,-3,0,-6,3,2,-1,27,-4
1523066719761015,-3,-4,-16,-5,-4,-4,-21,-3
1523066719767531,2,7,42,12,7,-6,-5,-4
1523066719767531,-1,0,-21,0,2,9,19,6
1523066719768032,-7,1,-15,-5,-2,-3,-22,-11
1523066719768032,-4,-6,23,-2,3,-7,-6,-13
1523066719775651,-1,-2,-16,-5,-6,1,18,12
1523066719775651,3,7,14,6,-2,-5,-17,12
1523066719776555,-3,-9,-24,-10,-8,-3,4,-4
1523066719776555,5,2,5,4,1,1,-9,1
1523066719782666,-4,4,19,-4,0,2,-5,-10
1523066719782666,-6,-5,-6,4,5,0,33,-5
1523066719783072,2,5,19,-1,-2,1,-10,6
1523066719783072,-6,-6,-21,-3,-3,5,25,8
1523066719805659,0,-5,-30,-2,5,-2,-6,-13
1523066719805659,2,14,35,1,-5,-3,5,-2
1523066719807137,3,-3,6,-2,-6,-4,-3,7
1523066719807137,0,-3,24,-6,-5,0,18,3
1523066719826788,0,1,-8,10,6,3,-7,-1
1523066719826788,-2,-8,0,-7,-6,-4,-5,-8
1523066719836715,-3,9,21,7,4,-9,-24,-6
1523066719836715,0,-7,-24,-8,-5,2,10,2
1523066719858369,0,-1,2,8,1,-1,5,0
1523066719858369,-2,-4,-6,-14,-5,3,-3,6
1523066719859777,-1,0,4,2,1,4,14,-2
1523066719859777,-3,3,9,1,-2,-11,-12,-3
1523066719879423,3,-1,-7,6,8,9,19,5
1523066719879423,-3,-1,-3,1,-1,-3,-19,-6
1523066719888352,-2,-3,-8,-4,-3,-1,18,4
1523066719888352,4,4,1,2,3,0,-18,-3
1523066719910912,-2,0,10,-6,-5,-7,-13,-9
1523066719910912,1,-3,-1,1,4,0,-1,3
1523066719912419,-3,-2,-11,-7,-4,3,12,-1
1523066719912419,-2,2,10,-1,1,-2,-11,-3
1523066719932564,3,-6,-24,-5,-6,-5,-10,4
1523066719932564,-7,0,-1,-3,-4,-3,-6,-12
1523066719940993,-1,-2,5,5,0,-8,4,-4
1523066719940993,4,6,-7,-2,1,13,26,11
1523066719972171,0,-5,-16,-3,-1,-2,2,-8
1523066719972171,0,-1,36,2,-2,-2,-14,4
1523066719973580,-3,0,-15,4,-1,-2,1,-11
1523066719973580,-14,-4,-1,-6,-5,-12,-22,-5
1523066719974583,11,6,-49,-2,0,-3,-3,-9
1523066719974583,-7,4,69,2,1,3,6,6
1523066719979093,1,-1,-3,-3,-1,4,7,-7
1523066719979093,-1,-9,-4,2,-2,-7,-11,1
1523066719979597,-1,3,3,-4,-3,-2,-3,-5
1523066719979597,-2,-1,-31,3,4,0,-5,-4
1523066719981100,3,4,8,-8,-3,0,-6,12
1523066719981100,-4,-9,1,4,-2,-3,-5,-11
1523066720000151,-9,-10,-9,7,6,5,9,-8
1523066720000151,5,2,-36,-5,-1,-4,-13,-4
1523066720007168,-3,-2,62,-4,-6,-2,5,-2
1523066720007168,2,-3,4,4,5,-1,-2,8
1523066720030826,-3,1,9,-4,-4,-1,-10,8
1523066720030826,-4,-18,-61,-19,-5,-1,-2,-10
1523066720032235,3,11,27,5,-4,-9,-24,-7
1523066720032235,-1,2,-1,11,8,18,26,-3
1523066720053292,-4,-11,3,-21,-14,-10,7,21
1523066720053292,-8,6,4,20,12,2,-5,3
1523066720054796,16,-8,-28,-7,6,-1,4,-13
1523066720054796,-2,0,-37,-9,-8,3,-3,5
1523066720060811,-6,10,81,9,0,1,5,-14
1523066720060811,6,-4,1,-6,-6,6,13,4
1523066720062316,-7,-3,-1,-2,-2,-6,2,4
1523066720062316,2,-7,-23,-12,-4,-10,-14,-5
1523066720067829,-6,-13,-32,2,5,4,4,9
1523066720067829,1,4,1,5,0,-10,-12,-5
1523066720068330,-2,0,-5,6,3,5,-3,5
1523066720068330,4,2,18,-13,-2,3,3,-4
1523066720075953,0,1,-10,5,0,-2,8,6
1523066720075953,2,3,10,-7,-11,-12,-21,-4
1523066720077358,-2,-1,-22,1,6,11,-11,-3
1523066720077358,-1,2,-4,7,-1,-6,-17,4
1523066720098485,3,1,-1,-6,-5,2,11,-2
1523066720098485,-3,-4,0,9,3,-5,-46,-7
1523066720099916,-5,-8,-26,-8,-1,8,-2,6
1523066720099916,2,4,21,-12,-10,-14,-10,-6
1523066720119567,-2,-2,-8,-2,-3,-3,-10,-11
1523066720119567,4,5,37,2,5,6,25,6
1523066720128493,-3,-1,-31,5,-3,-5,-10,12
1523066720128493,1,2,5,15,11,4,8,-4
1523066720150781,-1,-1,15,-16,-12,-1,-1,-4
1523066720150781,0,2,-8,-10,-3,-2,-2,-8
1523066720152194,2,-3,-4,3,6,-1,22,1
1523066720152194,1,-9,-14,7,3,3,17,12
1523066720158304,1,3,15,4,2,-3,-4,-9
1523066720158304,-13,-12,-8,-7,-6,-3,9,-6
1523066720159714,-1,9,32,5,1,4,1,1
1523066720159714,-2,1,-17,0,-2,-6,-20,-7
1523066720180865,-5,-8,-18,-8,-2,-8,12,7
1523066720180865,4,1,-6,1,3,9,-7,2
1523066720182274,-4,2,7,5,2,-2,30,3
1523066720182274,2,2,24,-7,-7,4,-17,1
1523066720201826,-1,0,-3,2,6,-3,8,-4
1523066720201826,-5,1,-26,-3,-2,-4,-5,2
1523066720210992,-2,-8,12,-6,-7,-1,-1,-1
1523066720210992,-2,-2,-37,-3,-3,-6,-20,-4
1523066720233299,5,7,47,3,-5,-2,-8,6
1523066720233299,1,2,-5,1,3,4,19,1
1523066720234709,-2,2,0,-6,-9,-6,-20,-19
1523066720234709,-5,-4,8,-2,-1,-1,13,2
1523066720255002,-6,-4,-17,5,6,3,-20,4
1523066720255002,4,-5,-38,-5,-4,-3,16,-8
1523066720263425,-10,3,21,16,7,6,2,1
1523066720263425,5,2,-3,-17,-11,-4,3,-3
1523066720285988,1,-2,23,-5,-5,0,13,4
1523066720285988,-1,8,-6,1,4,-4,-20,0
1523066720287583,9,-6,-30,-3,-2,-2,8,1
1523066720287583,-4,1,8,10,9,1,3,-4
1523066720308098,-6,-5,-10,0,-7,3,-9,-8
1523066720308098,6,-7,-3,-7,-7,-1,9,3
1523066720310048,-3,4,13,-4,-4,-6,-8,4
1523066720310048,-3,-1,-21,-6,-7,-5,-2,3
1523066720329737,8,3,-3,5,8,5,13,3
1523066720329737,-11,-5,13,16,4,-6,-7,-10
1523066720340287,4,-4,-3,-26,-13,9,6,1
1523066720340287,-1,-3,-15,3,1,-5,-11,-6
1523066720360685,-4,-1,1,7,0,-2,-13,2
1523066720360685,-3,-6,-2,-11,-11,-6,6,1
1523066720362187,-1,11,16,11,10,0,-8,-2
1523066720362187,7,-1,14,3,-5,-1,-2,-2
1523066720382743,-4,1,-18,-1,4,-1,-6,-3
1523066720382743,2,-2,-14,-11,-6,0,5,0
1523066720389467,-1,-5,-15,-7,-7,-8,-10,-3
1523066720389467,-7,-3,30,4,2,1,6,-1
1523066720420889,1,1,-18,11,4,-1,-1,-1
1523066720420889,-1,-4,0,2,1,4,-3,0
1523066720422347,0,8,8,-7,-3,-2,-2,-1
1523066720422347,0,0,-1,-2,-3,-3,13,2
1523066720436088,-5,-6,5,1,4,0,-5,-5
1523066720436088,7,11,23,3,0,5,2,2
1523066720442104,-5,-13,-26,-3,-2,-4,4,-1
1523066720442104,0,5,9,3,4,0,-1,-2
1523066720457168,0,-5,-10,-7,-2,-2,-5,-1
1523066720457168,-2,1,6,0,2,5,6,1
1523066720466191,-3,-2,-6,3,-4,-8,-10,-5
1523066720466191,-4,-4,-1,0,-1,-7,-17,0
1523066720488522,4,2,-24,-8,-3,9,44,-2
1523066720488522,2,8,16,6,1,2,-10,4
1523066720490113,-1,-2,9,3,1,6,54,7
1523066720490113,-12,-2,2,-2,0,8,-13,-18
1523066720510583,17,-1,-42,-9,-7,-13,-22,14
1523066720510583,-3,-2,15,1,4,5,4,10
1523066720512087,7,2,0,4,2,0,-1,-6
1523066720512087,-14,-2,34,2,3,-3,-27,-12
1523066720540717,-9,-5,-19,0,4,6,8,-1
1523066720540717,1,-5,-8,-4,-1,-7,-13,-1
1523066720542166,1,-4,-6,3,-1,-4,-5,5
1523066720542166,2,-6,-17,-5,-3,-2,9,-3
1523066720563225,-2,5,-2,-2,1,6,-13,-6
1523066720563225,-1,4,30,7,1,-6,-3,1
1523066720564726,-2,-5,-14,-2,-3,0,-10,10
1523066720564726,5,-2,-6,-8,-8,-9,1,-6
1523066720585782,-3,10,20,8,2,2,-3,-10
1523066720585782,-2,-7,-23,-4,-6,-1,20,-5
1523066720587288,1,3,2,-1,-1,6,5,9
1523066720587288,1,-7,11,-15,1,7,11,7
1523066720606838,-7,-9,-38,-3,-10,-14,-11,-6
1523066720606838,-3,1,47,12,8,4,-22,0
1523066720615862,-6,-1,-29,-16,-12,-2,7,-9
1523066720615862,3,6,-1,11,4,-10,-19,-4
1523066720638971,-5,0,10,-1,5,16,32,2
1523066720638971,3,-3,-22,28,12,-10,-23,-12
1523066720641431,2,0,-20,-11,-5,-2,-4,-1
1523066720641431,-16,-2,24,-1,1,0,-1,0
1523066720660982,7,5,17,-5,-10,-11,-11,-3
1523066720660982,-10,-5,-8,-6,2,3,7,-1
1523066720662488,0,0,18,5,0,1,-6,0
1523066720662488,3,0,-22,8,1,-3,11,0
1523066720682087,-3,-4,7,5,2,-4,-26,-1
1523066720682087,7,16,4,-4,-4,8,52,8
1523066720691061,-4,-15,-48,-22,-10,-12,-31,-12
1523066720691061,2,13,53,7,-5,1,25,-1
1523066720698130,-8,-9,11,9,4,-9,-27,0
1523066720698130,11,15,-10,-12,-3,1,8,27
1523066720700086,-1,5,18,10,3,-3,-5,-15
1523066720700086,-2,-10,-42,2,-1,0,2,1
1523066720705172,-1,-1,27,-2,-2,-3,2,-10
1523066720705172,-8,-16,-16,-20,-15,-5,-8,-17
1523066720705601,-2,-2,8,21,16,6,19,9
1523066720705601,5,5,-3,-8,-6,-3,-5,3
1523066720712668,0,5,3,-5,-2,1,-3,1
1523066720712668,-7,-22,-23,-14,-4,-6,-15,-6
1523066720713121,-5,-5,4,2,5,4,24,5
1523066720713121,25,9,-2,0,-3,9,-11,4
1523066720735731,-13,1,2,-2,0,3,9,0
1523066720735731,-7,-1,9,0,-5,-9,-21,-8
1523066720737185,-4,-5,4,4,2,-1,-16,-2
1523066720737185,1,0,-2,-6,1,-2,-14,7
1523066720757793,5,0,-22,-3,2,0,-6,2
1523066720757793,-1,0,8,-7,-5,2,22,-4
1523066720765762,-5,-3,4,2,-2,-5,-9,-5
1523066720765762,-4,0,-19,-8,-9,-6,0,8
1523066720788321,4,-3,-10,-4,0,7,-4,-5
1523066720788321,-6,-2,-11,4,2,-5,5,-6
1523066720789825,2,7,24,0,2,4,-24,-7
1523066720789825,-6,-5,-36,-9,-5,-6,14,1
1523066720809878,-2,0,52,3,0,-2,-3,6
1523066720809878,-2,-7,-33,-6,-7,-2,2,-6
1523066720817899,0,-5,1,-2,2,2,-2,2
1523066720817899,-6,-14,-21,7,7,-2,-11,-3
1523066720840736,2,9,8,8,3,2,13,1
1523066720840736,-15,-5,-19,-11,-4,-4,-5,-4
1523066720842664,28,-3,19,-4,-8,-8,-28,4
1523066720842664,-10,7,-7,-9,-3,11,14,-6
1523066720863661,5,3,5,5,1,-10,-12,1
1523066720863661,-5,-1,4,5,6,6,1,-3
1523066720865165,-3,-5,-18,-4,-5,-4,3,2
1523066720865165,1,-9,-5,3,6,-3,-1,-2
1523066720884716,6,11,27,-2,-2,2,2,4
1523066720884716,2,0,-6,7,1,-4,-5,-1
1523066720893240,-10,3,25,-10,-2,1,-3,-6
1523066720893240,3,-2,0,-5,-4,3,15,2
1523066720916545,-10,-13,-37,-7,-5,-5,-4,-7
1523066720916545,1,3,-8,7,2,-8,-19,1
1523066720918972,-1,2,-4,6,7,10,35,1
1523066720918972,-3,3,47,2,-4,-3,-15,-1
1523066720936995,1,-4,-27,-12,-2,-4,-2,4
1523066720936995,7,3,13,8,1,2,-1,5
1523066720946019,-5,4,-17,-3,-3,-1,-4,-6
1523066720946019,-2,-9,-19,4,2,-2,2,-4
1523066720968177,0,6,18,0,-5,-2,-3,-2
1523066720968177,2,-8,-6,3,3,6,0,-4
1523066720969583,-3,-1,-5,-9,-7,-6,-5,6
1523066720969583,4,7,25,4,3,2,9,2
1523066720990882,-5,-10,-11,-20,-14,-3,-2,-7
1523066720990882,1,1,-3,0,-1,-2,0,-5
1523066720992286,-2,-1,-7,9,5,3,4,-13
1523066720992286,-3,-9,-26,16,8,-4,-12,8
1523066721011838,6,15,43,-1,-6,-1,2,5
1523066721011838,2,-1,-8,5,4,2,-3,0
1523066721022367,-7,-7,-10,-24,-17,-8,-1,3
1523066721022367,4,1,-22,4,4,0,4,-3
1523066721043423,-7,-16,-15,7,4,-3,-16,-9
1523066721043423,-2,-1,14,-4,1,11,24,5
1523066721044928,1,-3,3,9,3,-8,-55,-13
1523066721044928,-4,6,-5,-7,-4,0,23,-1
1523066721065087,-4,-15,-29,-6,-7,-4,11,2
1523066721065087,10,14,35,-2,0,-1,-13,4
1523066721072102,-12,-12,-12,2,3,3,9,-2
1523066721072102,-4,0,5,-18,-19,-22,-31,-9
1523066721087150,-2,2,-8,-3,-3,-7,0,-8
1523066721087150,-1,-11,-27,2,9,16,35,-11
1523066721095709,-4,9,54,5,2,-3,3,30
1523066721095709,4,13,56,1,-2,-8,-19,-3
1523066721118876,4,-14,-71,3,5,7,27,3
1523066721118876,2,-3,31,-1,-4,-5,-31,-12
1523066721121278,-6,1,-22,-4,3,1,24,-10
1523066721121278,-3,-15,-19,-4,0,2,-15,4
1523066721140930,-1,8,33,4,3,0,1,-7
1523066721140930,-16,-13,-42,-9,-5,-3,-2,0
1523066721142334,19,4,27,10,0,2,3,7
1523066721142334,3,21,33,4,7,4,4,5
1523066721161988,-1,-1,0,3,5,3,1,4
1523066721161988,-7,-5,-10,-10,-15,-13,-10,-3
1523066721170910,-1,5,-9,1,3,-6,-14,-7
1523066721170910,-3,-14,-40,-5,-9,3,15,0
1523066721193469,0,10,52,0,4,4,-2,-5
1523066721193469,3,5,-3,6,4,-2,-22,0
1523066721194974,1,5,18,-12,-6,-4,0,-3
1523066721194974,6,-6,-27,16,11,2,9,11
1523066721215132,-2,-8,-4,-45,-25,2,8,14
1523066721215132,-1,3,26,7,0,-10,-11,-9
1523066721223548,6,7,-1,0,8,8,13,-2
1523066721223548,-19,-8,-4,3,2,-1,-2,-20
1523066721245713,4,-7,-27,14,6,-7,-16,2
1523066721245713,3,2,4,-14,-7,2,46,10
1523066721247111,8,-3,-3,8,4,1,-25,0
1523066721247111,1,13,23,-14,-9,9,39,4
1523066721267766,-11,2,-2,-1,7,-2,-15,1
1523066721267766,24,2,-21,-11,-14,-11,-7,-9
1523066721274286,-11,-17,-50,2,-4,-7,0,-6
1523066721274286,7,6,52,6,2,9,14,2
1523066721298853,0,8,5,13,-2,-2,8,-2
1523066721298853,-13,-7,-24,-27,-9,2,-11,7
1523066721301256,-3,-3,3,9,4,-5,1,-6
1523066721301256,0,1,-25,-10,4,-4,-24,-2
1523066721320911,4,-7,-5,-3,-14,1,14,2
1523066721320911,-3,7,17,26,13,-10,-18,-2
1523066721322314,-6,2,-3,-8,-3,5,46,-3
1523066721322314,3,-11,-28,-14,-8,5,-8,0
1523066721341968,-11,-3,-11,9,7,-2,-11,-7
1523066721341968,3,5,33,0,1,-2,-6,2
1523066721350889,-6,-3,-13,-4,-7,-10,-19,-1
1523066721350889,4,3,8,1,-1,3,22,0
1523066721373499,1,-3,-10,0,3,-7,-20,-2
1523066721373499,-4,-1,-6,4,0,-8,-17,2
1523066721374952,-2,-19,-78,-9,-8,3,11,4
1523066721374952,-15,23,98,9,4,5,-13,-8
1523066721395109,16,-6,-5,-6,-7,3,10,-2
1523066721395109,-13,3,5,3,1,-2,5,-4
1523066721403529,5,-3,-2,-8,-6,-1,-12,-1
1523066721403529,-6,-16,-51,11,4,-9,-6,-4
1523066721425659,0,9,17,-1,3,5,2,4
1523066721425659,5,11,14,1,1,16,29,12
1523066721427090,-5,-4,-6,4,1,2,-17,-5
1523066721427090,7,-8,-7,-3,-7,-7,-6,-3
1523066721447749,-5,0,9,7,3,-9,-18,-7
1523066721447749,2,-11,-24,-10,-2,0,-13,0
1523066721454663,-2,-1,3,-4,1,-3,-5,-2
1523066721454663,-1,2,10,-2,-3,0,5,4
1523066721469703,-2,-10,-27,4,5,0,-1,-9
1523066721469703,0,11,34,-8,-10,-3,-4,4
1523066721479731,-6,-13,-8,1,4,8,10,1
1523066721479731,0,-4,-20,-1,-6,-8,-7,0
1523066721500889,-1,-1,-14,-4,0,6,6,1
1523066721500889,-4,-8,-4,4,7,-5,-7,-2
1523066721502292,-1,4,-27,-12,-14,-14,-22,-13
1523066721502292,8,-1,43,10,14,14,13,22
1523066721521946,-2,8,33,4,0,-2,-12,-11
1523066721521946,-7,-13,-28,2,-1,-1,-2,-6
1523066721530868,2,9,22,1,-3,-1,2,2
1523066721530868,-2,-4,-38,-6,-3,-2,-8,-8
1523066721552529,-8,-2,-3,-3,-4,-6,-6,-1
1523066721552529,6,2,7,1,-1,-4,3,1
1523066721560947,-4,0,15,2,3,0,-6,1
1523066721560947,-4,-13,-44,-9,-4,-2,-12,-9
1523066721575986,2,4,38,1,-1,0,12,4
1523066721575986,-4,0,5,5,-1,-1,0,-4
1523066721582097,-4,1,-1,-1,5,5,-31,6
1523066721582097,-2,2,16,-2,-5,1,6,-4
1523066721605674,2,-8,-44,-6,-4,-7,10,-2
1523066721605674,1,-4,-7,4,7,12,-5,2
1523066721607642,-5,6,27,2,-3,-6,14,-7
1523066721607642,11,-2,-19,-6,-1,-4,-10,1
1523066721628231,-5,-9,-16,-4,-1,-1,-8,-1
1523066721628231,-2,24,36,-1,-13,-12,-11,-2
1523066721629629,-3,-12,-14,-1,2,5,6,1
1523066721629629,-6,-2,-4,-5,-5,-9,-8,-8
1523066721635752,-2,-2,-8,-1,-1,-2,-8,-4
1523066721635752,5,0,-10,-2,-1,0,6,-1
1523066721637650,-3,-5,-5,1,4,4,13,-3
1523066721637650,3,0,-75,-9,-1,-6,-9,-21
1523066721642691,-14,10,76,9,3,2,5,28
1523066721642691,2,-4,-30,-3,-2,-2,-5,3
1523066721643166,3,7,14,2,-3,-6,-4,-11
1523066721643166,-3,-12,-24,-2,0,6,40,4
1523066721665725,0,0,-18,-1,6,12,9,-19
1523066721665725,2,4,20,-2,-4,-13,-11,3
1523066721667230,6,9,20,-5,-9,0,32,10
1523066721667230,-5,5,39,8,4,6,-5,-5
1523066721688390,3,9,28,-6,-9,-15,-14,-4
1523066721688390,-5,-7,9,0,-4,-11,-20,0
1523066721694302,3,-1,-5,-6,0,13,-18,-2
1523066721694302,-2,-16,-58,-1,2,-6,1,2
1523066721718468,1,17,39,-6,-8,-5,10,31
1523066721718468,-1,-17,-18,0,1,-1,-10,-11
1523066721719870,-17,3,12,-5,-1,-9,-9,-4
1523066721719870,-4,-2,17,3,-11,5,13,-2
1523066721725383,18,10,-46,-1,5,4,2,-9
1523066721725383,15,-3,-37,-6,6,10,21,10
1523066721725887,-12,-2,25,9,-2,-4,8,3
1523066721725887,-6,4,31,-3,-2,-7,-17,2
1523066721732903,6,-9,-17,6,-4,-3,-11,-6
1523066721732903,-18,1,-14,-7,-3,4,13,-3
1523066721733406,8,-4,8,-10,2,2,-2,0
1523066721733406,8,9,27,-2,-3,-12,-11,-2
1523066721741530,-4,-7,-4,13,6,8,3,-4
1523066721741530,-2,-1,6,6,4,-1,13,-3
1523066721743936,0,0,-30,-2,1,-1,-14,-3
1523066721743936,0,-15,-15,-16,-4,-10,-4,2
1523066721747712,-15,-5,21,-7,-10,4,10,-4
1523066721747712,-5,-4,-32,13,10,0,-31,-13
1523066721748100,10,6,1,4,-11,-2,33,2
1523066721748100,-11,-1,-1,2,6,4,-4,-1
1523066721770764,1,-16,-43,-4,0,-5,-5,14
1523066721770764,0,9,20,18,6,-3,-7,-15
1523066721772163,6,9,29,-33,-27,-3,4,5
1523066721772163,-5,-8,-7,7,2,0,-10,8
1523066721792717,-2,-7,-34,-3,5,1,-4,-9
1523066721792717,1,-5,16,0,-3,-2,24,3
1523066721800740,-2,2,2,10,5,-7,-26,-6
1523066721800740,-5,-1,2,4,3,1,4,-6
1523066721823298,4,2,29,-7,-5,-3,0,8
1523066721823298,-10,-6,-48,-8,-3,9,24,-2
1523066721824803,-3,1,27,10,5,-2,-20,-14
1523066721824803,9,7,6,11,4,-1,5,11
1523066721844857,-4,-6,-2,-21,-11,-7,-10,-4
1523066721844857,1,-2,-6,-7,-2,5,9,8
1523066721851980,0,-6,-14,10,7,2,11,2
1523066721851980,5,16,5,1,-2,-3,-40,-9
1523066721876439,-9,-5,-14,-2,0,-1,5,-14
1523066721876439,-1,3,20,-7,-5,-7,-12,-3
1523066721877943,3,-7,-12,-5,-2,0,7,8
1523066721877943,-10,-4,-1,3,5,0,3,-3
1523066721897600,4,5,45,0,-5,-6,-15,-5
1523066721897600,1,5,26,-6,-4,8,10,-1
1523066721904659,2,-1,-46,14,7,1,-10,4
1523066721904659,3,1,-3,-7,-7,-1,4,-2
1523066721928313,-7,-13,-25,2,4,1,-4,2
1523066721928313,-6,2,0,0,1,-3,17,-4
1523066721929817,14,-12,-1,0,-4,-4,-14,2
1523066721929817,-1,1,2,-13,-4,2,26,10
1523066721950976,-2,-17,-36,-1,3,-3,3,-5
1523066721950976,-6,3,-18,-5,-6,0,-20,-5
1523066721952376,-5,-7,-6,-1,9,4,-16,-4
1523066721952376,-1,5,26,1,-4,-5,-9,-6
1523066721972931,5,7,2,5,1,-3,7,-3
1523066721972931,-2,-14,-18,2,4,7,-10,7
1523066721980952,-3,3,8,14,9,0,1,-8
1523066721980952,3,-3,-11,-27,-22,4,5,17
1523066722003115,-4,11,13,-4,-3,2,0,4
1523066722003115,0,-5,5,-1,0,-4,-3,-1
1523066722005095,-9,-1,29,-6,-6,-6,5,-4
1523066722005095,1,0,-5,13,15,6,9,-6
1523066722025572,-1,-2,-27,23,6,2,0,-4
1523066722025572,3,-10,27,-33,-13,-5,-5,-2
1523066722027575,-2,3,-21,-11,-8,-1,7,1
1523066722027575,-4,-3,21,36,23,1,-11,-1
1523066722047149,1,1,18,-7,-9,-4,-3,1
1523066722047149,-1,33,102,19,2,-4,-2,-1
1523066722056150,19,-7,-28,-5,-2,-8,-42,-2
1523066722056150,-13,2,-31,0,22,23,13,3
1523066722078313,1,1,15,-14,-14,-4,2,-6
1523066722078313,2,-4,-35,0,0,-3,-2,4
1523066722079716,-7,5,21,2,-1,1,18,-3
1523066722079716,3,-8,-13,4,-5,-5,4,-3
1523066722101376,1,0,-13,6,11,6,-3,-2
1523066722101376,127,127,113,126,125,127,127,127
1523066722103779,1,6,25,3,-3,-1,2,1
1523066722103779,1,3,22,-10,-10,-9,-9,-2
1523066722122851,2,-1,-1,-7,-1,4,12,14
1523066722122851,127,127,124,127,127,127,118,127
1523066722129451,-3,-3,-15,6,7,11,16,5
1523066722129451,-2,0,1,-9,-6,-2,-7,-4
1523066722153410,-6,-10,-6,0,-2,-9,-25,-9
1523066722153410,124,127,127,127,126,120,92,123
1523066722154915,0,2,-12,-7,-5,-3,10,11
1523066722154915,-11,-15,0,-7,-10,-7,-4,-16
1523066722175469,2,5,-8,2,7,4,15,0
1523066722175469,124,127,127,127,127,127,121,124
1523066722177474,-17,15,38,-3,1,0,6,-15
1523066722177474,3,-3,-8,-5,-5,-4,-17,1
1523066722197635,0,-10,-20,-1,-11,-38,-65,15
1523066722197635,127,127,127,127,121,118,115,127
1523066722206051,-4,-23,-45,-5,3,4,16,13
1523066722206051,13,10,46,3,-5,-5,-13,-1
1523066722228211,-14,-1,-48,-4,0,9,29,6
1523066722228211,116,125,127,120,123,120,126,99
1523066722230113,2,-1,-6,6,4,3,-11,-10
1523066722230113,-9,-11,-6,1,0,1,-3,6
1523066722250773,8,6,0,-5,-7,5,17,3
1523066722250773,124,125,126,127,112,125,127,127
1523066722252174,-4,-2,-18,-5,2,-2,12,3
1523066722252174,-2,-4,4,5,-5,-4,9,-11
1523066722271832,-13,-4,11,-17,-9,6,5,-3
1523066722271832,127,127,115,127,127,127,127,127
1523066722282255,-6,-13,-36,-4,-2,-11,-9,-7
1523066722282255,2,16,41,-16,-5,-3,-15,-4
1523066722303311,-3,7,23,10,1,8,64,-15
1523066722303311,120,121,127,117,127,127,127,127
1523066722304816,-25,-27,-36,-8,6,2,9,7
1523066722304816,15,30,37,-14,-28,-15,-8,-3
1523066722324473,-4,-12,4,-5,1,3,-9,-7
1523066722324473,112,125,106,119,127,125,121,114
1523066722333391,6,-3,-6,-3,0,5,6,6
1523066722333391,-6,-3,-41,-11,6,-3,-4,5
1523066722356553,5,6,29,15,5,9,10,-10
1523066722356553,123,126,116,127,127,119,110,123
1523066722358959,7,22,54,10,0,10,9,-4
1523066722358959,-7,-7,-5,0,-3,-7,-2,-7
1523066722377039,-6,-10,7,-6,10,10,-41,-2
1523066722377039,123,127,127,127,122,114,95,118
1523066722393552,5,6,14,0,-2,-1,7,7
1523066722393552,-3,-11,11,10,9,7,17,10
1523066722408189,4,-4,-27,2,2,-4,-7,-2
1523066722408189,125,127,105,111,117,118,123,119
1523066722410093,0,7,42,-10,-15,-10,-12,3
1523066722410093,5,0,-37,3,0,0,8,-1
1523066722430647,1,-1,-1,-3,1,-5,-11,1
1523066722430647,127,127,127,127,126,127,127,127
1523066722432654,4,-3,15,-24,-18,-13,-13,12
1523066722432654,-1,-4,-11,5,0,2,6,5
1523066722451704,5,1,-3,1,-5,-2,-10,-5
1523066722451704,127,126,109,126,127,127,125,121
1523066722462828,8,-1,-8,10,2,3,14,-10
1523066722462828,-10,-8,-1,-16,-1,9,-2,11
1523066722483460,1,2,4,-1,-3,-5,-4,-5
1523066722483460,125,125,125,127,124,123,118,127
1523066722484793,-8,-12,-10,-14,-13,-7,-13,-6
1523066722484793,0,-2,-24,6,1,1,12,1
1523066722505082,5,0,-1,-10,-6,0,9,7
1523066722505082,127,127,127,98,110,124,127,127
1523066722511868,-7,-5,-19,-8,0,1,-1,-10
1523066722511868,-5,-24,-50,-12,-4,0,3,-10
1523066722536073,-3,6,21,4,4,3,-14,-3
1523066722536073,127,116,105,107,114,123,127,124
1523066722537432,-2,-3,0,-2,0,-14,-23,-16
1523066722537432,4,7,10,34,21,24,20,11
1523066722558991,1,-11,-23,-37,-21,-1,16,-5
1523066722558991,127,127,127,127,126,121,124,127
1523066722561497,-5,-1,-4,10,2,-9,-25,-9
1523066722561497,0,3,14,-6,4,0,6,-7
1523066722580724,-5,-3,-7,7,5,4,21,7
1523066722580724,127,125,118,120,121,127,127,127
1523066722582051,-1,2,-8,-9,-4,7,20,1
1523066722582051,-5,-11,-20,-7,-13,-11,-22,-6
1523066722602110,3,6,11,9,8,0,1,2
1523066722602110,127,127,124,123,127,127,127,121
1523066722611241,1,1,1,10,6,4,-8,3
1523066722611241,-1,-3,-20,-9,-4,-3,-4,-4
1523066722633186,3,9,40,2,-8,-5,-4,-1
1523066722633186,125,127,97,127,123,119,98,120
1523066722635202,5,3,-1,5,-1,3,15,1
1523066722635202,1,3,20,-8,-8,-4,1,0
1523066722656748,-8,-10,-30,-4,-1,-4,6,-7
1523066722656748,127,127,127,127,127,127,127,127
1523066722658755,0,-2,-6,1,-1,3,7,2
1523066722658755,2,-1,-8,-4,2,-5,-10,1
1523066722676804,-2,-5,0,6,5,-7,-27,-2
1523066722676804,127,127,127,125,120,116,88,127
1523066722685829,7,14,80,14,17,32,23,6
1523066722685829,-4,-7,-2,-8,-10,-15,-46,-10
1523066722708386,-2,-9,-17,-2,-3,-1,52,3
1523066722708386,127,127,124,126,121,113,98,127
1523066722709891,0,-3,1,-4,-10,-21,-21,-1
1523066722709891,-4,-2,-5,-7,-7,-7,-8,-24
1523066722731002,-6,6,1,-10,-13,-23,-38,-11
1523066722731002,123,120,115,127,127,127,127,127
1523066722732452,-15,-5,-12,-9,-7,-14,-10,-21
1523066722732452,22,2,34,7,10,13,-29,9
1523066722752620,-12,-10,-60,-4,-4,-14,-37,-9
1523066722752620,127,127,127,127,127,125,106,108
1523066722761028,0,-2,-13,-2,-13,-7,0,8
1523066722761028,-6,-3,-9,-2,1,-3,2,-1
1523066722783180,-1,4,34,7,15,12,5,-1
1523066722783180,127,122,99,104,126,127,127,102
1523066722785108,3,-7,-40,-3,9,7,-2,6
1523066722785108,-7,-2,2,-2,-3,-6,2,-4
1523066722805256,5,3,-11,4,-6,3,-2,4
1523066722805256,127,127,127,127,127,121,127,100
1523066722812162,11,-1,-35,-35,-12,-10,-19,-20
1523066722812162,-16,-10,-13,2,-1,-12,-55,-5
1523066722836728,2,7,29,14,11,23,66,9
1523066722836728,127,127,127,127,127,127,117,126
1523066722838307,-10,13,25,-9,-2,0,-8,-5
1523066722838307,11,-3,-8,-21,-18,3,17,21
1523066722857563,-6,-5,-14,4,6,-6,-21,-8
1523066722857563,127,126,103,127,127,124,120,127
1523066722864465,0,-2,10,34,20,-2,-10,-5
1523066722864465,-3,6,-13,-36,-16,17,46,10
1523066722888228,0,-2,-17,3,-7,-10,8,-4
1523066722888228,115,127,110,127,123,127,127,125
1523066722889692,-5,-6,-1,7,-3,-12,-35,1
1523066722889692,-3,0,-18,9,6,-2,-2,-16
1523066722910862,7,1,19,-1,-1,-1,-39,5
1523066722910862,122,127,122,127,124,113,72,119
1523066722912251,0,-3,-17,-11,-6,-5,4,-1
1523066722912251,1,-1,28,15,6,-6,-7,-2
1523066722932853,-1,-4,-14,-18,-12,1,-2,-11
1523066722932853,127,124,118,127,127,126,126,127
1523066722948347,5,3,14,4,-1,9,3,12
1523066722948347,1,4,-8,-2,-3,-2,12,9
1523066722963386,4,7,4,-2,1,-1,-12,4
1523066722963386,127,122,99,110,109,123,127,127
1523066722964890,0,-8,-46,3,6,-1,-9,-11
1523066722964890,15,17,82,-14,-8,3,18,9
1523066722985945,-21,-2,10,-3,-1,-6,-22,-7
1523066722985945,115,123,81,127,127,126,127,126
1523066722987451,-6,-2,4,-2,-8,-3,7,4
1523066722987451,-1,-2,-23,16,4,-8,-19,-8
1523066723007233,7,4,7,-13,-1,7,12,-5
1523066723007233,127,127,120,124,120,126,127,127
1523066723016025,10,0,-4,20,20,5,-4,13
1523066723016025,-5,-13,-65,-22,-10,-2,10,-6
1523066723039268,-1,7,31,9,6,0,-26,9
1523066723039268,127,127,127,127,125,127,127,120
1523066723041092,-2,-11,-18,-20,-15,-2,17,0
1523066723041092,-7,1,-3,5,1,-11,-17,-7
1523066723060850,5,-11,-40,-4,3,6,-17,4
1523066723060850,120,111,119,100,110,111,118,121
1523066723062706,0,3,40,10,0,-1,5,1
1523066723062706,4,10,2,-11,-5,4,-1,-5
1523066723082201,-7,-23,-26,-26,-28,-17,-8,-5
1523066723082201,126,127,113,121,127,127,127,127
1523066723090724,-2,-5,-17,-18,-11,11,52,7
1523066723090724,2,6,15,8,2,-4,-7,-8
1523066723113285,3,-2,-14,11,11,7,19,4
1523066723113285,127,127,127,127,127,127,127,127
1523066723114790,0,1,1,-6,-2,-3,26,-12
1523066723114790,-9,-4,-6,5,0,-14,-11,-10
1523066723135845,3,2,10,3,6,14,37,13
1523066723135845,127,127,126,127,126,120,127,127
1523066723137350,-4,-6,-23,-2,-3,-7,-37,-9
1523066723137350,5,16,50,6,-1,-3,22,8
1523066723157526,4,2,-7,-3,0,11,35,5
1523066723157526,127,123,120,127,123,127,127,127
1523066723165925,5,4,13,4,5,9,3,7
1523066723165925,-5,-8,-16,0,2,2,-16,-4
1523066723188484,-2,6,13,0,-5,-6,-15,-10
1523066723188484,127,127,126,127,127,125,115,127
1523066723190106,1,6,3,-3,-4,-2,-26,7
1523066723190106,-10,-8,-24,7,9,2,-26,9
1523066723211044,8,3,26,0,1,4,15,-6
1523066723211044,117,107,19,117,123,122,109,125
1523066723212548,1,5,-20,-7,-3,-16,-13,-8
1523066723212548,-5,12,27,3,-4,-7,-28,-10
1523066723232154,7,2,5,1,3,13,26,8
1523066723232154,127,127,127,127,127,127,127,127
1523066723240625,-10,-5,-3,0,-2,-2,21,23
1523066723240625,5,-9,-21,-2,4,10,13,-4
1523066723263801,3,24,62,2,0,-6,0,4
1523066723263801,127,127,127,89,112,122,127,127
1523066723266193,-2,-9,18,-15,-5,2,-6,-22
1523066723266193,-1,-8,-26,-3,4,7,17,17
1523066723284355,-7,-10,-17,3,3,-4,-18,-36
1523066723284355,127,127,127,79,86,127,127,127
1523066723293263,-16,8,4,5,-5,-6,-36,-48
1523066723293263,10,-8,-28,30,20,15,86,15
1523066723316435,-3,-3,-19,-44,-16,-2,-17,-14
1523066723316435,127,127,127,127,127,127,127,123
1523066723318832,0,4,-14,12,10,-7,-21,-5
1523066723318832,7,7,48,-17,-12,4,10,27
1523066723322460,-3,0,-18,13,6,-7,-12,0
1523066723322460,-4,-6,-13,-4,2,3,0,-19
1523066723323343,7,1,-8,-20,-13,3,17,1
1523066723323343,-6,0,-10,9,1,-4,-23,-20
1523066723330362,-4,-5,-11,1,2,-5,-6,15
1523066723330362,5,6,14,-6,-5,-6,-29,-22
1523066723330864,2,-6,-12,18,11,14,56,11
1523066723330864,-4,-1,44,-27,-13,0,42,3
1523066723352922,1,1,-7,14,2,-7,-11,1
1523066723352922,4,8,6,-18,-11,4,1,-12
1523066723360945,-5,-16,-7,11,12,3,-7,8
1523066723360945,-4,-2,-40,-9,-7,-3,-13,-8
1523066723383503,1,-6,13,4,2,-4,-6,3
1523066723383503,-6,8,12,12,2,-1,19,-7
1523066723385108,9,7,38,-1,2,-1,-26,1
1523066723385108,-9,-1,-12,5,3,1,5,-9
1523066723405181,0,-3,-34,-8,-5,-11,-21,-4
1523066723405181,3,-9,-17,-2,3,8,14,3
1523066723412129,-4,2,-6,-11,-5,-9,-32,-4
1523066723412129,-1,0,1,5,1,6,20,2
1523066723436644,10,6,-6,3,2,2,5,-6
1523066723436644,-23,-13,-36,2,-1,-2,-6,-2
1523066723438265,5,5,48,-5,-3,5,52,10
1523066723438265,9,-5,-8,5,-2,-9,-22,2
1523066723457201,-1,-7,-11,3,3,-1,-17,-3
1523066723457201,127,127,127,127,127,127,109,125
1523066723465724,-5,-6,-29,9,9,1,-12,-7
1523066723465724,4,0,-36,-19,-15,-5,-12,-1
1523066723473243,-3,16,53,0,-7,-1,-8,7
1523066723473243,-1,-18,-32,5,9,0,-2,-4
1523066723473744,3,12,40,8,1,-1,-7,-3
1523066723473744,-6,-8,15,5,6,3,-5,-4
1523066723474749,-17,0,-36,0,-4,-7,-1,-3
1523066723474749,19,15,56,-2,-1,-2,-6,-3
1523066723480764,-5,-11,-47,-9,-5,4,-1,5
1523066723480764,-3,-10,-15,2,0,-4,-24,-8
1523066723487785,-5,-3,16,3,4,2,5,5
1523066723487785,2,4,-5,4,-1,2,10,5
1523066723488284,1,-2,-23,0,-2,-3,-21,0
1523066723488284,-2,7,21,0,-3,-7,-8,-11
1523066723495301,-3,-10,-13,-1,3,-3,-26,-9
1523066723495301,0,5,21,-1,-3,4,16,14
1523066723495803,1,0,10,0,-3,1,12,-3
1523066723495803,-4,2,-35,-5,-7,-5,-23,-5
1523066723503323,2,-7,-8,-7,-7,0,4,-1
1523066723503323,0,5,22,9,6,-1,-7,-1
1523066723504828,-3,-2,-14,-2,-5,-2,3,0
1523066723504828,-4,-10,-6,-17,-4,-8,1,-5
1523066723509841,5,4,-2,-2,-1,3,7,5
1523066723509841,-6,-1,18,2,0,0,2,-6
1523066723510844,-2,5,-11,5,5,-3,-4,-5
1523066723510844,6,-1,-2,3,3,2,0,8
1523066723518478,-1,-2,-20,-12,-5,-4,2,0
1523066723518478,-3,-1,5,5,1,-1,-5,-5
1523066723519867,-3,-2,1,-3,-2,6,13,-3
1523066723519867,-5,-3,-33,-11,-7,-4,-13,-6
1523066723524880,-15,-2,23,3,-1,4,13,-2
1523066723524880,11,0,-6,6,6,4,3,7
1523066723525883,-2,-2,4,-8,-9,-14,-9,6
1523066723525883,-4,-2,5,-1,3,5,-10,-18
1523066723532516,8,0,-12,6,1,2,15,10
1523066723532516,-21,-7,-3,-6,-7,-10,-19,-4
1523066723533404,7,1,-2,-3,-3,-5,7,-1
1523066723533404,-1,5,7,5,1,1,6,-3
1523066723540923,-1,3,51,-3,1,2,-2,-9
1523066723540923,-3,-3,-10,1,0,-2,-17,-3
1523066723542428,1,2,-6,-7,-2,7,44,6
1523066723542428,-8,-12,4,10,10,1,-3,2
1523066723547440,-1,-4,-17,-3,-7,-8,-15,-5
1523066723547440,7,5,-1,-1,1,-2,-25,6
1523066723548443,-3,-2,2,-3,0,0,-29,-2
1523066723548443,-2,2,-1,-2,-4,-7,-9,2
1523066723571002,-1,0,14,-2,-2,6,26,5
1523066723571002,-11,0,2,-3,-3,-14,-10,-13
1523066723572005,21,-4,-32,2,2,3,-9,5
1523066723572005,3,10,30,0,1,1,7,-7
1523066723592561,-10,-20,-44,3,1,-3,-21,-4
1523066723592561,-5,-13,-80,-6,-3,2,3,0
1523066723601180,2,26,91,-1,-3,-1,23,11
1523066723601180,7,8,-24,-2,-5,-4,2,-1
1523066723623143,-20,-13,-26,5,2,-8,-7,-19
1523066723623143,-5,-1,-8,-3,2,10,-17,0
1523066723625147,-1,-19,-23,0,-1,4,-7,6
1523066723625147,10,17,-12,-3,-3,-4,2,12
1523066723645817,4,-4,3,-2,-8,1,19,-4
1523066723645817,1,0,6,6,0,2,17,-9
1523066723647207,-8,1,20,5,3,-8,-25,-8
1523066723647207,-5,-11,-1,-22,-12,-1,4,10
1523066723667855,5,-4,-23,4,7,1,5,-11
1523066723667855,3,12,34,-1,-1,2,1,15
1523066723674779,3,-7,-37,-6,-4,-1,-3,-3
1523066723674779,-9,-7,-49,17,20,5,6,-7
1523066723675783,17,7,48,-41,-34,-5,-13,-2
1523066723675783,-8,-15,-15,29,23,9,20,6
1523066723683302,0,-14,-28,-17,-16,0,3,0
1523066723683302,-2,14,23,16,13,11,18,0
1523066723690320,-13,-30,-84,-2,7,-2,10,7
1523066723690320,21,63,113,31,1,-8,-2,-4
1523066723690824,-3,-6,-29,-25,-8,6,15,7
1523066723690824,4,-11,-31,-10,-10,-1,8,-3
1523066723698342,-3,3,-10,12,12,6,-5,-2
1523066723698342,-6,-22,-12,-11,-9,-9,6,0
1523066723699846,-5,6,4,20,17,-3,-22,-4
1523066723699846,-1,3,29,-2,-8,-1,0,-10
1523066723704975,3,3,13,6,4,0,-20,26
1523066723704975,1,-10,-13,-15,-4,-1,9,-10
1523066723705862,-7,4,6,3,-2,-10,-15,-17
1523066723705862,-1,-8,5,0,-2,7,1,6
1523066723712489,5,11,14,0,1,-3,-31,-4
1523066723712489,-11,-8,-26,-4,-5,-2,25,2
1523066723713383,-1,-1,5,-3,-1,22,73,5
1523066723713383,-9,-10,-8,-9,-9,-8,-52,-1
1523066723721007,7,17,10,10,9,-9,4,-5
1523066723721007,8,-15,-38,-11,-1,11,38,13
1523066723722406,-22,-4,15,3,-3,-9,-24,-11
1523066723722406,10,7,6,7,5,-2,8,8
1523066723727534,2,10,2,-1,-4,-1,-6,-3
1523066723727534,-3,-7,-7,-6,-7,-2,-15,-19
1523066723728538,6,-4,-37,0,2,-1,8,10
1523066723728538,-17,2,48,-1,2,-5,-12,7
1523066723735056,6,3,4,13,1,-5,8,-3
1523066723735056,3,1,32,-16,-6,-1,-1,2
1523066723736059,-4,-5,-27,-3,-7,-11,-11,-17
1523066723736059,2,5,-6,5,13,16,-7,0
1523066723743509,-14,-4,-23,-2,-2,-7,12,2
1523066723743509,7,-3,1,4,1,-6,-42,-4
1523066723744968,-1,8,40,5,1,15,23,8
1523066723744968,4,-5,-1,2,0,-10,-8,-3
1523066723750090,-8,-10,-14,-7,-5,3,10,-1
1523066723750090,3,-9,-21,-1,0,-3,-5,0
1523066723751090,-15,-3,13,-4,-7,-8,-39,-11
1523066723751090,4,5,13,3,3,-4,14,-5
1523066723758160,14,3,-48,-12,-7,2,0,6
1523066723758160,-12,15,76,11,-1,-5,3,1
1523066723759665,9,-4,-11,-3,6,-2,-18,1
1523066723759665,-4,0,3,-6,-10,-2,9,-4
1523066723780836,-3,2,-8,-2,-1,-1,6,-1
1523066723780836,2,-16,-22,-12,-3,-3,-11,7
1523066723782223,2,18,25,5,-3,-4,-3,-10
1523066723782223,3,-3,0,6,-3,-4,-8,-5
1523066723801774,-9,-8,-12,-15,-10,-6,-13,3
1523066723801774,23,11,3,6,7,20,34,4
1523066723810804,-2,-5,-11,6,0,-10,-19,2
1523066723810804,-7,-9,-6,-1,0,-1,-3,-13
1523066723833011,2,2,15,-5,-6,-1,-2,-2
1523066723833011,-13,-7,-20,-9,1,-3,3,-5
1523066723835127,4,5,26,7,-5,-8,-12,2
1523066723835127,3,-12,-29,-1,-1,-4,3,-5
1523066723855184,-11,1,21,1,-2,4,3,2
1523066723855184,-7,-12,-38,-4,-3,0,-3,-5
1523066723863592,12,8,3,2,1,-4,-13,-7
1523066723863592,-15,8,32,-4,-8,-3,14,7
1523066723870228,8,1,14,-6,-4,1,-4,5
1523066723870228,-7,-10,-32,-1,-3,-10,-14,-9
1523066723870611,0,-2,-19,-3,3,16,51,10
1523066723870611,3,-5,-2,-2,-2,-5,-9,-8
1523066723878249,-5,0,14,6,2,5,-16,-5
1523066723878249,0,10,0,-3,-1,4,16,2
1523066723879635,-4,-7,-5,-9,-5,-6,-15,-2
1523066723879635,5,7,12,-2,-4,-5,-2,-3
1523066723900805,-2,-5,4,7,2,1,23,1
1523066723900805,-2,-5,-8,-4,-5,-3,-22,-7
1523066723902195,-3,-1,-4,-5,-1,1,0,3
1523066723902195,-4,-6,-9,2,0,-1,7,0
1523066723921861,5,3,-1,2,0,-5,-1,-4
1523066723921861,-2,3,9,0,0,-4,-5,-3
1523066723930770,-4,-7,-8,-4,-7,-13,-45,-10
1523066723930770,5,-7,-4,0,4,20,87,17
1523066723953357,-1,5,18,4,-1,-8,-20,-13
1523066723953357,0,4,-10,-8,-6,-4,-42,1
1523066723954834,-2,-7,-16,-4,3,11,27,18
1523066723954834,-2,14,36,-2,-7,-15,-63,-22
1523066723960947,-5,-3,-12,7,6,1,53,-2
1523066723960947,-4,-10,-7,-8,-11,-10,1,2
1523066723962381,-4,-4,-64,-10,-10,-18,-29,3
1523066723962381,16,12,26,3,6,6,-35,8
1523066723967371,-5,-10,-45,-3,1,6,8,-1
1523066723967371,-1,21,64,2,-5,-11,-17,-19
1523066723968372,5,0,-23,7,9,9,25,7
1523066723968372,-6,-10,-46,-6,0,1,-3,-10
1523066723975945,-1,7,35,0,-3,-8,-35,-19
1523066723975945,-4,-6,-64,-2,8,9,13,10
1523066723977396,-3,-1,-7,4,-5,-4,-5,13
1523066723977396,8,1,-9,2,-5,1,8,2
1523066723996950,0,-1,14,4,1,1,-18,0
1523066723996950,-4,-10,-25,-7,0,7,31,-5
1523066724005972,0,7,30,-9,0,6,5,-15
1523066724005972,-10,-10,-9,16,5,-7,-9,9
1523066724028115,7,-2,-34,-16,1,2,3,6
1523066724028115,3,7,46,20,12,11,26,7
1523066724030036,0,-2,-35,6,6,-1,-31,-7
1523066724030036,-17,-8,66,-24,-25,-10,3,-5
1523066724035135,7,0,6,-11,5,2,-15,9
1523066724035135,-3,9,13,13,-7,-21,-42,-21
1523066724036081,3,6,20,27,30,21,43,14
1523066724036081,-15,-14,-60,-26,-15,3,18,-5
1523066724043203,-3,-7,20,29,9,-4,-3,-2
1523066724043203,-1,-11,17,-40,-24,-2,-7,0
1523066724044707,0,-5,-4,6,-1,-13,-21,-16
1523066724044707,1,5,-17,2,0,2,6,2
1523066724050265,-4,4,14,-7,-10,-1,9,3
1523066724050265,6,5,-7,15,15,0,-6,4
1523066724050725,-8,-8,-15,-15,-14,2,8,-12
1523066724050725,7,4,-1,6,16,6,-14,5
1523066724058379,2,7,27,-5,-8,-7,9,-4
1523066724058379,-8,-4,-11,9,10,4,0,-1
1523066724059884,-2,-6,10,-10,-10,-8,14,-2
1523066724059884,2,-7,-34,3,4,8,8,8
1523066724065043,-9,13,23,4,2,-11,-37,-13
1523066724065043,8,-9,-24,-3,0,13,86,15
1523066724066020,10,28,62,-11,-12,-15,-30,-11
1523066724066020,-1,-13,-38,7,4,-8,0,-7
1523066724072623,-8,-14,7,1,5,7,4,11
1523066724072623,-6,11,44,2,-4,-5,-7,-16
1523066724073541,9,-11,1,-11,-8,-1,1,15
1523066724073541,-10,7,23,10,4,-7,-20,-11
1523066724095687,1,-13,-35,-25,-16,-1,3,-4
1523066724095687,1,8,9,1,3,-2,-9,-1
1523066724103120,3,0,-4,15,10,5,6,14
1523066724103120,-2,-8,9,-9,-5,-4,-5,0
1523066724117746,4,5,-4,2,-2,0,-15,1
1523066724117746,0,-10,-18,-8,-1,4,15,-4
1523066724124313,-12,-2,-16,3,-4,-14,-16,-18
1523066724124313,10,18,44,9,10,14,15,15
1523066724148458,-6,-9,-25,-10,-9,5,-9,-8
1523066724148458,-3,2,-19,-5,-2,8,48,5
1523066724149881,1,-10,14,2,0,-8,-12,0
1523066724149881,-2,-9,-23,-9,-7,-8,-4,1
1523066724170935,8,8,-18,10,8,0,2,-4
1523066724170935,-1,-1,7,1,-5,-6,-33,0
1523066724172441,-21,-23,-30,-8,-5,7,25,1
1523066724172441,8,15,-4,10,6,0,-11,-17
1523066724192580,-3,-14,14,-9,-6,0,12,7
1523066724192580,5,2,-25,2,-9,-9,-16,6
1523066724201017,0,10,1,-4,-2,3,-14,-9
1523066724201017,1,3,26,0,-4,-3,3,1
1523066724223156,1,1,-20,-5,3,-3,-9,7
1523066724223156,-4,-6,6,7,4,8,7,-1
1523066724225080,9,5,0,-1,2,1,23,-4
1523066724225080,-20,-10,-18,-12,-8,-3,-13,-1
1523066724245221,5,5,16,10,2,9,44,-5
1523066724245221,-2,-16,-4,-9,-5,-6,-37,-4
1523066724252152,-1,29,91,3,-2,2,21,6
1523066724252152,-5,-10,-35,-2,-2,0,-5,-5
1523066724275875,15,-3,-3,5,-1,-1,34,5
1523066724275875,-5,-6,-24,-7,1,-8,-24,-4
1523066724277295,-4,-2,-3,-14,-5,-1,-6,1
1523066724277295,-2,-2,2,-2,-4,-1,7,-8
1523066724298930,-7,-5,-9,1,-1,-4,-31,0
1523066724298930,1,10,33,7,7,-6,0,-6
1523066724301358,2,-8,-17,-2,-3,0,-21,5
1523066724301358,9,5,4,-1,-1,5,12,0
1523066724319489,-11,-7,-17,-2,3,-6,-11,-2
1523066724319489,1,9,11,2,-3,0,5,0
1523066724334530,-6,-8,-14,-3,-4,-1,-3,-1
1523066724334530,5,-7,-9,1,3,-1,-2,-2
1523066724350578,0,10,20,0,-3,-3,-8,-6
1523066724350578,-7,-11,-9,-6,-2,-4,-21,1
1523066724352493,2,-5,-17,-2,2,4,29,-2
1523066724352493,12,12,10,3,2,-5,-7,-6
1523066724358007,-13,2,-12,-3,1,6,0,2
1523066724358007,-9,-6,-2,-8,-15,-19,-33,-5
1523066724360013,17,-10,12,0,1,0,-17,6
1523066724360013,4,8,16,2,3,12,44,-3
1523066724365115,-11,-24,-7,4,3,-4,-14,2
1523066724365115,21,11,-8,-6,-5,6,27,-5
1523066724366082,-16,-14,-39,2,-1,-16,-34,0
1523066724366082,8,12,-9,-1,2,21,9,2
1523066724372631,-1,-5,50,1,-7,-8,-15,-7
1523066724372631,-17,-8,7,9,1,0,10,15
1523066724373549,0,-11,-23,-8,-6,0,-7,-2
1523066724373549,-8,13,24,6,5,-4,-1,5
1523066724395693,1,-5,-26,-2,-1,-3,-15,-16
1523066724395693,1,4,-2,0,3,3,-3,2
1523066724397112,-4,-4,1,0,3,5,25,-2
1523066724397112,-5,-8,-7,-1,-3,-12,-12,6
1523066724416809,1,13,18,-2,3,6,8,-15
1523066724416809,2,-2,-13,7,-4,-2,-4,-8
1523066724427250,2,6,5,-1,0,0,9,16
1523066724427250,0,-5,2,-5,-4,-5,-11,-3
1523066724448391,2,4,-7,-3,2,0,11,3
1523066724448391,0,-1,-16,-8,-5,3,-5,-8
1523066724449810,-2,10,9,16,19,7,-1,-9
1523066724449810,-6,-26,-71,-33,-15,-12,-7,20
1523066724469390,6,7,68,20,8,1,-5,-5
1523066724469390,-5,5,2,-18,-8,-5,5,-5
1523066724478887,-2,3,28,11,1,-3,1,-16
1523066724478887,-8,-9,-26,-3,6,10,-5,-5
1523066724501092,1,3,-44,-5,-3,-2,12,14
1523066724501092,2,-9,19,-7,-2,7,5,-2
1523066724502450,-9,6,-11,-5,-15,-22,-39,-1
1523066724502450,10,2,7,9,10,7,22,7
1523066724522504,-9,-18,-46,-8,-9,-2,-4,-5
1523066724522504,4,12,38,21,7,2,10,-4
1523066724529522,1,-11,-39,-21,-13,-4,5,-3
1523066724529522,-6,-5,21,3,2,3,4,-3
1523066724544561,5,4,-15,1,-1,-4,-3,1
1523066724544561,-3,0,0,-3,-4,-14,-53,-8
1523066724553769,4,6,9,-3,10,27,66,11
1523066724553769,1,-2,8,-4,-9,-2,-28,-1
1523066724561085,1,0,-18,-1,-2,5,27,-1
1523066724561085,6,7,-11,4,2,-5,5,15
1523066724562385,-7,-16,3,9,3,-3,-35,-21
1523066724562385,-8,10,34,3,-2,-6,-30,-3
1523066724583479,-1,-6,-10,-13,-6,-4,-5,0
1523066724583479,-4,-13,-31,-5,-5,-5,-9,0
1523066724584945,0,1,-8,-5,-5,0,-7,-11
1523066724584945,8,23,45,13,6,-2,16,7
1523066724613634,-2,-8,8,5,4,-1,-26,1
1523066724613634,-1,1,4,-11,-6,4,16,6
1523066724615035,-2,-13,-30,2,-4,-2,-3,-1
1523066724615035,-14,2,-30,-9,-7,-12,-12,-24
1523066724627179,10,7,43,6,3,2,4,6
1523066724627179,15,13,-8,-2,-1,1,10,0
1523066724636212,1,-4,-3,-1,-3,-1,5,10
1523066724636212,-1,-6,-14,0,0,-1,-9,2
1523066724658153,2,11,18,7,-3,-5,6,-3
1523066724658153,-10,-16,-26,-16,-2,5,12,1
1523066724659655,-4,11,22,1,0,-1,2,-10
1523066724659655,15,-3,-6,1,-5,0,-10,-1
1523066724680710,-15,-12,-14,10,5,-1,18,9
1523066724680710,5,11,1,-5,-1,-2,-40,-9
1523066724686810,-1,0,14,-1,-5,-4,18,5
1523066724686810,-5,-4,8,4,-2,-9,-5,-4
1523066724710954,-1,-1,-27,-8,-3,-1,3,-4
1523066724710954,-9,6,32,-1,1,0,0,3
1523066724712419,-10,-10,-5,6,2,-2,-15,-4
1523066724712419,18,-4,-13,-4,-7,-5,10,5
1523066724732555,2,5,5,11,7,-2,-12,1
1523066724732555,-6,-16,-22,-14,-9,1,14,2
1523066724740997,0,7,-4,-5,-1,2,-7,-4
1523066724740997,-3,-1,0,9,10,2,4,-8
1523066724763055,5,11,34,-13,-15,2,-3,4
1523066724763055,-10,-10,-22,5,6,-4,2,2
1523066724765058,4,5,-7,0,2,1,-1,3
1523066724765058,-9,-8,-9,0,-6,-3,3,-4
1523066724785200,1,5,22,-4,1,4,15,5
1523066724785200,3,0,4,0,3,2,-19,-3
1523066724792134,-1,-1,3,14,8,-1,-17,1
1523066724792134,-11,-7,-19,-22,-16,-10,-15,2
1523066724815779,10,2,-8,0,-3,-7,3,-9
1523066724815779,-2,-11,8,7,8,3,-9,12
1523066724817198,-3,4,-1,-8,-8,-8,-19,-5
1523066724817198,2,4,23,5,3,2,4,-3
1523066724838843,-10,-6,6,-4,0,-7,-23,-8
1523066724838843,4,-2,-11,5,1,2,8,-3
1523066724841262,-3,-4,0,-5,-4,-2,-6,-3
1523066724841262,-3,-4,-3,-4,0,0,1,-3
1523066724859896,-4,1,-6,-3,-4,4,26,6
1523066724859896,-4,-5,-7,5,2,-6,13,-3
1523066724868333,4,5,13,-5,5,8,-19,2
1523066724868333,3,2,4,6,0,3,17,3
1523066724890893,-6,-5,-24,-8,-2,-2,0,-7
1523066724890893,5,7,3,2,0,0,-18,-1
1523066724892447,-1,-6,7,3,5,4,9,0
1523066724892447,-6,0,-3,2,-3,-4,22,-2
1523066724912586,-5,2,-1,-19,-13,-2,-15,-3
1523066724912586,-4,-13,13,7,7,4,-22,-3
1523066724921023,-1,6,-17,5,-2,-3,-9,-4
1523066724921023,11,1,-2,-7,-4,-7,-3,6
1523066724943153,-15,6,81,-5,2,4,-13,-13
1523066724943153,4,-5,-33,7,-1,-6,32,2
1523066724945086,-15,-24,5,-25,-15,-2,38,16
1523066724945086,-10,1,-36,4,11,7,-15,3
1523066724965142,35,-6,-13,-1,-4,-4,-3,-24
1523066724965142,-8,-5,-6,-5,2,2,-7,7
1523066724971743,4,-1,14,7,3,0,14,-13
1523066724971743,0,0,-15,-6,-10,-7,13,4
1523066724995725,-4,2,-31,-5,2,13,9,32
1523066724995725,2,6,25,10,4,2,-3,-6
1523066724997226,12,7,-28,-3,-6,-5,3,-8
1523066724997226,-11,4,38,-5,-4,-3,-7,-11
1523066725018511,-6,-10,-44,7,5,-2,-10,-4
1523066725018511,14,8,16,-5,-8,-3,7,-1
1523066725019786,-30,-13,-29,-13,-4,-3,-3,0
1523066725019786,4,-1,-2,17,13,2,-6,2
1523066725041572,-3,-4,-8,-20,-10,-4,-12,-6
1523066725041572,1,-1,-22,18,15,3,7,-5
1523066725043851,3,1,-31,-20,-11,-4,-13,-3
1523066725043851,5,6,80,13,3,-1,12,0
1523066725061897,-6,-4,-34,-4,6,-3,-7,11
1523066725061897,-6,0,7,-1,-10,5,18,-3
1523066725070922,6,7,24,11,12,2,-2,-4
1523066725070922,3,-2,-26,-5,-3,0,-4,0
1523066725093190,-2,0,-16,1,-1,-6,3,-2
1523066725093190,-13,-4,26,-10,-13,-5,-8,-1
1523066725095191,6,-9,-13,-2,3,8,23,5
1523066725095191,-3,5,2,29,18,2,-3,-6
1523066725116748,0,-2,15,-19,-7,-2,-12,-3
1523066725116748,-7,1,-15,-15,0,2,-4,-1
1523066725119197,1,-5,-18,11,0,-17,-45,-10
1523066725119197,-2,2,-31,-24,-11,3,22,10
1523066725137098,0,4,12,30,4,-9,-29,-2
1523066725137098,2,2,-14,-6,4,10,27,-2
1523066725145621,1,-5,-9,-6,-6,-15,-28,-3
1523066725145621,-2,-1,-1,13,5,6,2,-13
1523066725168386,-4,-3,-27,-36,-17,4,17,5
1523066725168386,4,0,16,1,1,-7,-19,-1
1523066725170185,-1,5,19,2,4,11,30,7
1523066725170185,-4,-3,-23,4,-3,-7,-20,-5
1523066725190741,0,6,3,6,-2,-2,9,5
1523066725190741,1,-6,0,-14,-13,-10,-7,-3
1523066725192244,7,6,2,3,6,5,16,0
1523066725192244,-12,-14,-5,-12,-8,-5,-11,-2
1523066725212675,0,11,45,11,6,0,0,-9
1523066725212675,-10,7,-19,2,3,-3,5,2
1523066725220711,17,9,-15,-19,-13,-3,-9,5
1523066725220711,-10,-14,-3,-3,-9,1,3,1
1523066725243323,1,-2,-8,8,5,1,-9,-7
1523066725243323,-8,-10,-26,4,4,-1,5,3
1523066725244774,1,2,29,3,0,-3,-16,-8
1523066725244774,6,9,10,-6,-9,-8,-5,-8
1523066725265328,-3,2,24,-13,-12,1,13,17
1523066725265328,6,2,-11,7,7,5,9,-21
1523066725271932,-9,6,10,7,-1,-7,-25,10
1523066725271932,5,-15,-6,-14,1,-1,-2,1
1523066725295956,0,-1,-3,18,11,-5,-21,-11
1523066725295956,-1,-1,7,-9,-12,-12,-31,-9
1523066725297415,7,5,19,21,14,14,61,15
1523066725297415,-29,-1,4,-18,-14,-3,-6,0
1523066725319057,16,-10,-30,19,6,-1,-7,1
1523066725319057,-2,-8,-20,-15,-8,3,3,-4
1523066725321478,9,3,11,-1,-3,4,5,0
1523066725321478,-8,2,15,-7,2,2,4,1
1523066725339526,-1,-5,-26,2,4,2,22,-6
1523066725339526,1,-5,11,1,-3,3,1,8
1523066725348551,-6,7,2,-16,-6,-6,-9,-5
1523066725348551,9,-6,-31,8,1,3,23,-6
1523066725370696,-5,1,12,4,2,-2,-25,13
1523066725370696,0,-4,-16,-4,-4,-6,-23,-10
1523066725372114,-6,-8,-5,-3,-3,-2,13,5
1523066725372114,6,5,6,-7,-2,-7,-9,0
1523066725392755,-7,2,16,1,-7,-1,7,-15
1523066725392755,-4,-9,-26,-6,3,2,7,10
1523066725400689,-6,0,33,4,0,-6,-8,-7
1523066725400689,2,-10,-29,-7,1,-6,-36,-6
1523066725423379,-1,-10,-30,0,-1,8,14,17
1523066725423379,7,25,79,8,2,-2,10,0
1523066725424885,-6,-9,-25,4,2,1,-11,0
1523066725424885,-7,-3,9,-3,0,-2,2,-4
1523066725445022,25,-1,-2,-22,-12,-5,-17,-15
1523066725445022,-3,-6,1,0,2,2,24,17
1523066725452040,-3,4,10,8,-3,-10,-18,0
1523066725452040,6,-3,3,5,1,0,-9,2
1523066725476045,-4,8,-8,9,0,1,9,2
1523066725476045,-3,3,1,-12,3,5,32,-8
1523066725477522,2,-17,-23,-4,-5,3,-15,-3
1523066725477522,-6,-7,9,0,3,0,-10,1
1523066725499165,-4,-7,-6,-5,-4,-2,6,-6
1523066725499165,2,3,5,10,4,-7,-22,-1
1523066725501645,-3,9,-4,1,0,1,12,1
1523066725501645,7,-3,-5,-9,0,4,7,1
1523066725519664,-5,2,-1,-1,3,1,4,0
1523066725519664,1,-5,-6,11,-2,-8,-11,-1
1523066725528157,-5,-1,-17,-5,2,-4,-20,-6
1523066725528157,6,6,14,7,-2,2,15,1
1523066725550808,-5,0,6,-16,-5,-7,-56,-5
1523066725550808,-6,-12,-15,12,3,12,19,4
1523066725552223,0,5,21,-3,-3,-14,-21,-12
1523066725552223,0,9,-1,3,7,19,26,8
1523066725573278,6,-9,-26,0,4,1,39,3
1523066725573278,-2,9,35,-13,-13,-11,-36,-4
1523066725574783,-3,-7,2,10,-2,-2,-4,-2
1523066725574783,-4,-2,-41,-5,-3,-8,-34,-7
1523066725595055,-14,1,8,7,5,6,48,-6
1523066725595055,11,-8,0,6,3,9,-12,-3
1523066725603485,4,14,-21,-9,-4,0,35,3
1523066725603485,-9,-9,17,0,-3,-5,-7,13
1523066725625632,0,10,5,3,3,3,-23,-13
1523066725625632,1,-3,-14,-2,-1,-2,30,11
1523066725627547,-16,-28,-7,7,13,12,6,-9
1523066725627547,10,21,30,1,-10,-14,-25,-19
1523066725648188,-3,-29,-33,-6,-5,-9,-8,4
1523066725648188,-15,3,-23,2,2,1,4,-6
1523066725649608,9,5,25,-8,-4,9,25,11
1523066725649608,-4,-6,-6,-2,1,-6,-4,-6
1523066725670247,0,3,30,11,9,11,24,8
1523066725670247,1,-2,-13,-15,-20,-12,-12,-5
1523066725677769,-6,-4,-19,-2,-2,-4,-8,6
1523066725677769,8,8,19,5,5,3,0,0
1523066725700829,2,2,-22,0,-3,-9,-14,-10
1523066725700829,-18,-6,29,-14,-6,-1,-5,-6
1523066725702248,1,9,9,13,4,1,-4,-5
1523066725702248,-2,-9,-23,-1,-1,5,16,2
1523066725721890,-5,-4,-2,-24,-14,-6,-7,6
1523066725721890,4,0,20,22,6,-7,-1,0
1523066725730823,-14,-6,-10,-6,-5,-8,-17,-15
1523066725730823,19,7,-13,-16,-6,0,8,8
1523066725753382,-7,5,2,23,15,1,-3,2
1523066725753382,17,-22,-79,6,13,-5,2,5
1523066725754888,1,20,80,-17,-20,-3,-8,1
1523066725754888,-10,-14,-39,-13,-3,-2,0,3
1523066725775027,-7,0,28,17,6,-14,-15,-12
1523066725775027,5,6,5,-14,-5,15,19,4
1523066725783464,1,-20,-46,-9,6,3,5,-1
1523066725783464,-1,5,23,5,-3,-6,-15,-2
1523066725805686,-4,-4,11,7,-5,-3,-19,-2
1523066725805686,-4,4,7,9,3,-7,-11,-9
1523066725807160,5,0,-13,-7,-1,9,24,3
1523066725807160,0,9,20,4,0,4,15,10
1523066725827802,-3,-6,-15,3,-2,-6,12,-1
1523066725827802,2,8,11,-17,-5,2,-22,-8
1523066725834322,0,0,-4,2,-1,15,8,10
1523066725834322,-5,-14,-17,7,4,-2,-6,-12
1523066725858887,-5,-18,-17,-8,-5,2,-13,-5
1523066725858887,0,29,86,8,3,-4,4,9
1523066725861305,-4,-7,-24,4,2,-12,-21,-2
1523066725861305,3,0,1,-5,0,9,11,-6
1523066725880575,3,3,-14,-17,-16,-3,13,1
1523066725880575,-10,-20,-9,2,7,0,-20,0
1523066725881993,5,5,28,5,2,-1,4,-5
1523066725881993,-2,-1,-1,8,2,2,-5,-2
1523066725902115,15,11,14,-13,-6,0,4,2
1523066725902115,-5,-2,-4,1,1,1,0,-1
1523066725911112,0,-4,-9,16,6,-1,-4,-1
1523066725911112,0,-9,-17,-8,-10,-8,4,-3
1523066725933199,4,16,18,-8,-7,-1,2,7
1523066725933199,126,125,121,81,95,124,113,124
1523066725934674,3,3,-6,5,-3,6,17,-7
1523066725934674,-10,-4,-2,5,-1,2,29,4
1523066725955757,-2,-2,-26,-8,5,0,-11,-2
1523066725955757,125,123,117,127,127,125,127,127
1523066725957233,-7,-3,-6,-10,-6,-4,-6,-6
1523066725957233,4,0,0,-7,-2,-3,-1,-3
1523066725976871,-5,-1,0,6,4,4,18,3
1523066725976871,120,122,115,127,127,120,127,122
1523066725987315,3,6,55,-2,-8,-11,-13,4
1523066725987315,-2,-5,-3,-12,-2,2,-1,-1
1523066726008371,-1,2,11,1,-2,-1,-4,0
1523066726008371,127,127,127,124,125,127,127,127
1523066726009873,-7,-4,-29,-5,1,-5,-1,-2
1523066726009873,1,5,18,5,-10,-3,-6,2
1523066726030018,-11,-5,2,-11,-9,-2,1,-1
1523066726030018,124,127,121,127,127,125,126,122
1523066726037033,2,1,-11,-3,8,-5,-13,-2
1523066726037033,-3,-5,-7,4,0,-1,-7,-2
1523066726069030,-3,7,20,5,5,7,4,-1
1523066726069030,120,122,125,125,126,124,127,122
1523066726071609,-1,-17,-50,-11,-6,-2,2,0
1523066726071609,-3,4,75,3,-1,-6,-15,0
1523066726083068,3,7,-8,2,1,3,4,-1
1523066726083068,-1,0,-15,2,4,1,7,-1
1523066726085099,-1,0,6,0,0,2,0,3
1523066726085099,-3,-5,-37,-5,-3,-2,-1,-3
1523066726097132,0,-10,-12,-4,-4,-1,4,3
1523066726097132,-4,3,16,-4,-7,-6,-20,-3
1523066726106129,-1,-1,-11,3,2,2,24,1
1523066726106129,3,4,0,-3,1,2,-30,-1
1523066726120818,-3,-2,7,0,-2,-8,-4,-9
1523066726120818,2,-2,-13,-3,0,-1,-13,-1
1523066726122222,5,5,28,-3,-3,4,4,12
1523066726122222,0,-5,-35,0,0,-1,0,3
1523066726135287,0,10,40,-6,1,2,-1,-8
1523066726135287,-2,-9,-19,-6,-3,5,24,-7
1523066726135759,-2,0,-12,-1,-4,1,-10,0
1523066726135759,-3,6,22,2,-2,-10,-22,-5
1523066726143337,6,-3,25,7,9,15,58,7
1523066726143337,-7,-16,-8,-1,-1,-1,2,4
1523066726144781,0,12,-29,-5,-5,-19,-38,-3
1523066726144781,-6,-7,-6,2,4,18,62,9
1523066726149883,0,-9,-22,0,-7,-9,-27,-16
1523066726149883,-6,15,34,1,-8,-1,11,-9
1523066726150799,6,-17,-38,4,12,5,7,18
1523066726150799,3,21,17,-6,-2,-8,-4,4
1523066726158465,-7,-10,-16,4,-3,-3,-12,-1
1523066726158465,3,-4,-5,-6,-4,6,16,-4
1523066726158951,0,9,-14,0,0,-2,-25,-19
1523066726158951,1,-9,18,-2,-6,-7,-5,-10
1523066726181013,-3,5,-2,2,3,3,7,25
1523066726181013,3,-8,-48,-5,-7,-12,-12,1
1523066726182559,3,11,51,2,2,1,4,-12
1523066726182559,1,-1,-5,-3,-3,1,6,5
1523066726202088,-3,-4,13,18,4,-3,0,-12
1523066726202088,-11,-14,-39,-41,-25,-6,-2,-1
1523066726211087,-1,4,35,28,17,-5,-2,-7
1523066726211087,-7,-19,-58,-28,-13,10,15,-4
1523066726233164,8,11,3,2,-4,-11,-13,10
1523066726233164,-6,-2,69,6,0,-5,-10,15
1523066726234653,-1,3,-5,-28,-9,5,13,-11
1523066726234653,5,-4,7,19,14,7,0,1
1523066726255205,-5,-1,-30,10,1,-4,-18,-15
1523066726255205,0,-5,-43,5,5,5,6,-4
1523066726263228,0,9,64,-14,-2,-1,5,3
1523066726263228,-7,-8,-7,16,8,-2,1,-3
1523066726270260,11,15,28,-11,-3,8,10,12
1523066726270260,4,1,-22,-16,-11,-1,2,-4
1523066726270748,-11,-13,-12,0,-9,-12,-21,-9
1523066726270748,-1,-1,-23,5,2,-4,3,-2
1523066726278352,2,-7,-2,-13,0,3,-4,9
1523066726278352,1,10,19,8,1,0,0,-5
1523066726279268,-4,-15,-28,3,2,10,16,0
1523066726279268,1,14,28,-3,-11,-16,-26,-7
1523066726300916,-3,-8,-22,5,0,9,45,9
1523066726300916,5,7,27,3,4,10,-22,1
1523066726302333,-1,-8,-20,-8,-12,-8,0,4
1523066726302333,2,13,45,14,6,-1,-8,-10
1523066726321882,-8,-16,-38,-13,-7,-11,-20,-7
1523066726321882,4,10,32,12,9,-4,8,1
1523066726330908,7,-8,2,7,5,8,-2,4
1523066726330908,-18,-7,-5,-5,-4,-6,-11,-4
1523066726353170,-5,0,-14,-11,-13,-5,-6,-13
1523066726353170,-5,2,0,5,8,1,3,0
1523066726354603,-4,-10,10,-4,-7,-3,-4,-2
1523066726354603,6,6,17,-8,-5,-2,2,4
1523066726375242,4,-2,-7,-4,-4,-3,-8,3
1523066726375242,-3,0,-9,6,10,1,-1,-8
1523066726383178,-6,-5,8,1,-10,-7,-5,-2
1523066726383178,2,-6,-33,-3,5,3,12,0
1523066726405740,-2,6,27,0,-3,-9,-24,-2
1523066726405740,1,1,-1,3,0,6,9,-1
1523066726407243,-4,3,-10,3,8,2,19,12
1523066726407243,8,-3,-12,-2,-2,4,-1,-6
1523066726427847,-3,-2,-2,-22,-13,-2,-16,-5
1523066726427847,4,7,-11,1,-2,-11,-16,-1
1523066726434401,-8,-4,10,-6,-4,2,16,5
1523066726434401,-1,3,19,8,-4,-2,-16,1
1523066726449442,-2,-4,-11,0,2,0,9,-7
1523066726449442,-4,-7,4,-5,-2,-2,-1,1
1523066726458882,3,1,-29,-4,-5,-2,-7,7
1523066726458882,-11,-9,-5,7,10,-2,-7,-6
1523066726480964,7,14,10,-9,-7,1,-8,-1
1523066726480964,-4,-11,-9,6,0,1,4,0
1523066726482442,-3,-4,-6,9,3,-6,-9,-8
1523066726482442,-1,1,-14,-15,-7,3,16,4
1523066726502088,-9,-10,8,6,11,2,-4,1
1523066726502088,-1,0,3,-5,-3,-1,7,-2
1523066726511020,-1,-5,-36,11,10,-1,-21,-7
1523066726511020,3,1,50,-10,-8,-5,3,-1
1523066726533249,1,4,0,4,5,-2,1,1
1523066726533249,123,127,127,127,126,127,127,127
1523066726534751,-4,-5,-3,-2,-3,-2,-1,-6
1523066726534751,2,3,-27,10,5,-3,-7,0
1523066726556311,1,-9,-2,7,9,0,-9,-1
1523066726556311,127,119,126,127,127,127,127,127
1523066726558845,-1,0,2,-5,-8,-4,-6,-12
1523066726558845,2,3,-14,-11,-3,-1,8,-3
1523066726576950,-6,-11,-10,9,0,-2,4,-3
1523066726576950,125,124,127,125,121,123,103,123
1523066726585888,2,3,8,34,5,1,26,5
1523066726585888,-2,0,5,-8,-8,-6,-6,-2
1523066726608477,-4,-3,2,-1,1,-2,3,-2
1523066726608477,127,121,107,127,127,127,118,127
1523066726609983,3,5,-6,-19,-8,8,56,1
1523066726609983,-1,0,16,9,8,-12,-71,-2
1523066726630730,3,3,7,6,4,13,39,6
1523066726630730,127,127,127,127,127,127,126,112
1523066726632717,-1,6,12,-9,-3,-10,-23,-6
1523066726632717,-2,-3,-6,-3,-9,-3,11,-3
1523066726638181,-3,-9,-10,-6,-1,-4,3,-2
1523066726638181,2,14,27,7,1,-8,-36,-1
1523066726640032,-3,-11,3,-3,1,-1,-32,-4
1523066726640032,-4,2,-17,-3,3,14,73,3
1523066726645271,13,-5,4,6,3,6,-24,8
1523066726645271,1,-20,-83,-9,-1,-11,-5,-4
1523066726646203,4,30,54,8,-2,9,31,23
1523066726646203,3,-10,-32,-10,4,4,-8,8
1523066726652789,-2,7,26,12,2,-6,-28,-20
1523066726652789,-15,-7,-27,-3,-4,13,83,4
1523066726653650,-3,-11,-20,-9,1,-7,-59,-20
1523066726653650,-2,1,31,1,3,-1,27,7
1523066726660809,2,7,-21,-1,-2,-4,-16,7
1523066726660809,-8,-8,6,-1,-6,-4,-21,-5
1523066726662090,-3,-3,4,-3,1,-4,-4,-3
1523066726662090,-5,1,-20,3,2,3,-14,-3
1523066726667836,0,-7,1,-6,-7,-7,4,-13
1523066726667836,5,3,25,3,3,2,3,13
1523066726668651,4,1,-5,1,-1,2,5,17
1523066726668651,-2,-11,-23,-6,-7,-9,-25,-19
1523066726675296,-6,5,0,0,8,4,10,-6
1523066726675296,-3,-4,2,-12,-9,0,-2,-6
1523066726676161,-2,-6,-1,9,8,0,-1,-1
1523066726676161,7,2,2,-7,-5,3,6,5
1523066726683378,-7,5,17,21,10,-1,11,-2
1523066726683378,1,-4,-31,-17,-6,3,11,4
1523066726684863,0,11,46,-3,-6,-8,-22,0
1523066726684863,-5,-4,7,22,12,0,-46,-5
1523066726690303,-5,-12,-43,-1,-1,2,4,-5
1523066726690303,3,5,34,-27,-20,1,-5,2
1523066726691170,-1,-8,-5,-18,-7,-3,21,-10
1523066726691170,-16,-4,-33,46,24,-7,-2,5
1523066726698539,3,-9,12,-43,-30,1,2,7
1523066726698539,-4,11,39,21,15,-7,-17,-7
1523066726699866,-3,-6,-18,-1,-2,2,-10,-10
1523066726699866,-3,-4,2,6,3,-2,-12,6
1523066726704878,9,13,3,-5,-5,1,35,16
1523066726704878,3,-3,5,2,0,-7,-13,-9
1523066726705883,-4,-4,-10,-11,-8,0,12,-3
1523066726705883,3,-2,0,-5,-5,-4,-8,-14
1523066726712570,-10,-2,-16,-4,-5,-6,4,-3
1523066726712570,9,-4,15,5,8,15,19,17
1523066726713401,-1,11,-3,9,2,-8,-17,-8
1523066726713401,1,-2,12,-13,-10,-1,8,1
1523066726721047,-1,1,-3,1,3,-3,14,1
1523066726721047,-4,-4,2,5,6,1,-24,-11
1523066726722427,-1,-1,-17,-1,5,5,22,9
1523066726722427,3,-6,-15,-10,-7,-1,11,2
1523066726727624,-2,1,21,-14,-11,-5,-11,4
1523066726727624,1,-8,-52,4,1,-4,-16,-2
1523066726728626,-9,5,40,1,9,-1,10,-7
1523066726728626,16,15,11,-2,-6,-2,-20,2
1523066726751000,4,3,-3,17,6,2,19,-3
1523066726751000,-16,-1,2,5,3,-3,-1,-8
1523066726752577,3,-6,-9,-14,-9,-1,-4,-2
1523066726752577,-11,-7,10,0,-2,-4,8,-7
1523066726772057,9,-3,7,11,14,10,10,3
1523066726772057,7,11,-1,-8,-7,-5,-21,2
1523066726782665,-4,-7,-1,5,1,1,1,-2
1523066726782665,0,0,-4,-3,-4,-1,6,-4
1523066726803141,-5,4,-1,4,3,-6,-19,-3
1523066726803141,-3,-12,-9,-2,0,0,4,6
1523066726804645,-4,-3,-21,12,-3,-7,-15,-8
1523066726804645,3,-9,-3,-21,-6,0,8,3
1523066726833220,2,9,1,1,-2,-7,-20,4
1523066726833220,-2,-4,40,4,-2,-5,1,-8
1523066726834725,2,0,-8,-7,-7,1,-13,-4
1523066726834725,-2,-5,-15,-12,-4,-1,12,-1
1523066726855782,-7,-4,-14,9,5,0,-2,-6
1523066726855782,-2,-6,-17,-4,4,3,2,1
1523066726857285,3,1,12,2,0,-2,-2,4
1523066726857285,-2,-5,5,1,3,2,8,-1
1523066726877838,-4,-8,-2,1,0,-1,-7,-2
1523066726877838,4,9,0,10,-8,-3,-4,-3
1523066726885861,-3,-11,-23,-12,-1,-3,-5,2
1523066726885861,-2,-4,-3,-3,-3,13,26,1
1523066726908463,0,7,28,-12,-7,-7,-22,-2
1523066726908463,0,2,18,16,5,-3,4,-1
1523066726909925,-1,-3,-34,-4,-5,1,-5,1
1523066726909925,-5,-1,26,-3,-3,-5,-10,-1
1523066726930088,-2,-8,-12,-6,-6,-5,-11,-7
1523066726930088,2,0,-15,2,5,2,7,0
1523066726937116,2,4,16,-4,-6,3,13,3
1523066726937116,-1,5,-12,2,0,-3,-18,1
1523066726952112,-4,-10,-5,5,3,8,3,1
1523066726952112,-5,4,1,-5,-2,-5,-7,-7
1523066726961059,5,3,-2,2,-1,-5,-3,0
1523066726961059,1,1,-1,-4,1,-3,1,0
1523066726984193,-5,-1,-2,-4,-5,3,10,0
1523066726984193,4,-4,-3,-4,-3,-7,-39,-3
1523066726986657,-8,-7,-6,-4,1,5,24,4
1523066726986657,2,5,10,2,-1,0,-1,0
1523066726990136,1,-3,-7,-6,-7,-7,-4,-6
1523066726990136,-2,-1,0,1,1,1,12,-2
1523066726990640,1,-14,-28,1,4,4,6,7
1523066726990640,1,11,34,1,-3,-1,44,4
1523066726998274,-6,1,21,-2,-1,-4,-31,-13
1523066726998274,-3,-9,-3,-2,2,13,53,11
1523066727000163,4,9,-1,0,-2,-7,-24,-7
1523066727000163,-10,6,-4,-5,-2,4,-22,-11
1523066727005177,7,-6,5,3,3,-3,-10,-10
1523066727005177,18,4,-15,-3,-5,-1,26,24
1523066727005684,-22,-7,0,-10,-8,-12,-11,-5
1523066727005684,8,0,-22,2,1,0,-21,-8
1523066727012763,-1,5,44,0,-3,-3,-5,-4
1523066727012763,-8,-10,-64,-8,-3,-4,-18,-22
1523066727013201,15,26,63,9,0,8,10,15
1523066727013201,-3,-27,-61,-7,-4,-5,16,13
1523066727035870,2,4,-3,1,3,-1,1,-5
1523066727035870,-6,-8,-5,-2,-4,-2,-4,7
1523066727037264,2,-3,-4,-1,2,0,-14,-4
1523066727037264,-3,10,-5,-2,1,0,7,-1
1523066727056815,-9,-13,-8,-3,-6,-2,11,5
1523066727056815,-7,-2,2,-5,-5,-3,-8,-18
1523066727067344,-1,-5,3,7,9,1,3,8
1523066727067344,-5,4,19,-3,-9,-5,-9,-2
1523066727088402,3,-9,-53,-6,0,2,13,13
1523066727088402,3,20,58,5,0,-3,-6,-2
1523066727089905,-5,-9,-24,-7,-6,4,-2,-11
1523066727089905,4,-4,-12,-12,-8,-5,-4,-3
1523066727110958,0,17,33,23,11,-1,1,-3
1523066727110958,-5,-26,-16,-35,-20,-3,19,19
1523066727112487,4,12,48,17,4,-11,-45,-9
1523066727112487,-11,-1,0,32,25,17,46,1
1523066727118536,10,6,5,-46,-38,-7,-8,-3
1523066727118536,-9,3,13,16,7,-2,-11,-13
1523066727120178,5,-4,-23,3,1,2,9,11
1523066727120178,-2,-4,-6,-24,-9,-5,-11,-4
1523066727125042,-11,3,18,8,8,0,12,-5
1523066727125042,9,6,8,19,14,6,-11,5
1523066727125999,-4,-10,-30,-15,-8,-6,7,-8
1523066727125999,-1,-5,-1,-19,-15,-4,-39,-5
1523066727132517,3,2,-18,7,8,14,37,9
1523066727132517,-4,-7,-12,-8,0,-1,9,-1
1523066727133519,-4,5,-5,5,7,5,30,-5
1523066727133519,1,-3,33,17,9,0,-15,-3
1523066727140537,2,-11,-33,-12,-4,3,19,13
1523066727140537,-4,15,30,13,5,-5,-36,-14
1523066727142042,-4,-9,-6,-1,-6,0,8,2
1523066727142042,2,3,-6,-8,-4,-1,13,5
1523066727147556,-6,-1,-3,3,-1,-2,-6,-7
1523066727147556,-1,-2,-9,2,5,-4,-1,0
1523066727148058,6,6,-1,-4,-1,3,5,2
1523066727148058,-4,-4,-1,6,2,-6,-14,-7
1523066727155578,1,2,30,-7,-8,-9,-14,-1
1523066727155578,3,1,-14,6,-5,2,-6,-3
1523066727156580,-6,9,9,-5,-5,0,1,7
1523066727156580,23,-3,5,-2,3,3,14,20
1523066727162596,-1,1,-7,14,10,0,-9,-6
1523066727162596,-2,0,16,-24,-18,-7,-3,-4
1523066727163097,-10,-21,-17,-5,-8,-9,-6,-17
1523066727163097,-5,8,2,-2,2,2,0,-2
1523066727170322,3,6,2,2,1,-3,-8,4
1523066727170322,2,12,18,-3,-3,3,2,3
1523066727170618,-1,-12,-1,15,10,-7,-13,-3
1523066727170618,-4,-7,-15,-12,-12,-3,-12,-2
1523066727178173,1,1,3,-4,1,1,3,5
1523066727178173,-1,2,1,8,1,-3,3,8
1523066727180203,5,5,0,-4,-1,-4,-24,-16
1523066727180203,-10,-4,9,5,4,6,19,-6
1523066727185155,-7,-8,-27,-5,-2,-4,-2,-3
1523066727185155,4,-1,-13,9,0,-4,-1,11
1523066727186175,3,5,22,-5,0,6,15,5
1523066727186175,-4,-5,-31,5,-4,-6,-9,-5
1523066727192873,-5,-1,-7,7,14,6,3,-7
1523066727192873,-4,-4,49,-20,-15,-5,-2,-8
1523066727193678,-1,-7,-21,-2,1,1,-2,6
1523066727193678,-1,4,-6,5,-2,-4,1,-7
1523066727200921,1,-1,-13,13,3,-2,-3,9
1523066727200921,1,-1,-14,7,5,-2,-20,-8
1523066727202202,-2,-7,-5,-23,-14,1,9,-1
1523066727202202,-1,8,34,7,6,-4,-19,-1
1523066727222756,-15,-8,-35,3,-4,-1,-2,-18
1523066727222756,15,-6,-13,-3,0,0,0,13
1523066727229483,-3,2,-1,-2,-9,-2,16,2
1523066727229483,-1,-5,7,-4,-1,-3,-31,-7
1523066727253337,-8,-6,2,0,0,-2,-8,-1
1523066727253337,-2,2,-6,-8,-1,5,6,-6
1523066727254844,-2,0,-15,2,4,-2,-5,-2
1523066727254844,0,-1,-8,-1,-6,-1,-1,1
1523066727275996,4,3,43,-12,-11,-3,-2,1
1523066727275996,-2,1,10,4,1,1,5,-2
1523066727277402,3,-4,-23,9,6,2,0,2
1523066727277402,-1,4,34,-7,-5,-3,3,-2
1523066727297139,2,-5,-8,0,2,-3,-4,-1
1523066727297139,-2,-1,-9,-4,-2,1,9,0
1523066727305980,-3,-3,-5,-11,-7,1,0,1
1523066727305980,-1,-6,-4,-1,-1,-3,7,-2
1523066727328036,0,-3,-13,-4,-1,-3,-4,1
1523066727328036,-4,0,-7,3,-1,-6,-13,-7
1523066727330110,4,7,19,15,14,10,14,3
1523066727330110,0,-2,-16,-9,-8,-3,3,-1
1523066727350311,4,3,10,-4,-4,5,-8,6
1523066727350311,-6,-4,-16,1,2,-9,0,-12
1523066727356885,-3,-3,9,-2,-4,-3,-6,0
1523066727356885,-4,-6,1,-3,-1,-8,-35,-11
1523066727371809,9,5,1,10,16,30,69,28
1523066727371809,-2,-1,-14,-3,-2,-3,-3,-6
1523066727390019,-3,2,19,2,1,-5,-16,-1
1523066727390019,2,-2,-10,-4,-6,-5,10,-2
1523066727403553,-5,1,-26,-2,-7,-19,-38,-13
1523066727403553,0,5,31,1,2,-3,9,0
1523066727405059,3,-1,-7,-7,-4,7,20,2
1523066727405059,-1,3,-10,1,1,-1,23,6
1523066727424646,-3,-9,-10,-1,-4,-9,-32,-11
1523066727424646,2,0,1,4,10,15,16,6
1523066727433134,-7,-14,-41,-5,-7,-17,-46,-10
1523066727433134,10,30,90,7,1,8,22,3
1523066727440774,-5,-2,-11,-2,-3,3,12,4
1523066727440774,-2,-14,-30,-13,-16,-32,-32,8
1523066727442156,-1,9,42,9,11,15,15,-2
1523066727442156,7,-10,-36,0,1,5,-5,9
1523066727447764,-2,7,51,-6,-3,-3,-14,-13
1523066727447764,-4,-8,-11,5,8,11,9,-6
1523066727448174,-11,-10,-7,-3,-6,-16,-10,-5
1523066727448174,-2,-7,-28,-4,-3,5,15,-4
1523066727455191,-4,-10,-19,-2,2,0,-10,2
1523066727455191,1,23,46,13,10,-1,-1,-3
1523066727455694,1,-5,-17,-19,-10,-1,-7,1
1523066727455694,-1,1,21,12,4,7,12,0
1523066727463213,2,-9,-41,6,2,-1,0,-1
1523066727463213,-5,-7,-23,-8,4,5,-5,-6
1523066727464716,1,-3,-24,-34,-26,-7,8,3
1523066727464716,-3,6,23,19,10,7,-3,15
1523066727470258,1,-1,5,14,-2,-3,-12,-9
1523066727470258,0,4,-1,-2,4,1,-6,-10
1523066727470733,-3,-6,2,22,14,-10,-7,-14
1523066727470733,0,-6,-58,-27,-7,4,-49,22
1523066727478363,0,17,36,20,1,-3,55,2
1523066727478363,-1,-8,-3,-41,-30,1,0,8
1523066727479284,-3,-7,-28,-13,-11,-12,-11,-19
1523066727479284,-3,5,30,13,15,7,25,-10
1523066727485272,-3,-16,-29,-10,-12,-6,-13,10
1523066727485272,-1,2,18,26,13,3,1,-4
1523066727485773,1,2,2,-5,-5,4,3,6
1523066727485773,-1,-2,-7,5,-2,-16,0,-5
1523066727492791,2,19,24,-4,6,10,-3,-6
1523066727492791,-11,-26,-48,-7,-8,-3,3,-5
1523066727493293,7,14,39,14,7,-4,-16,8
1523066727493293,0,3,13,-6,-6,-10,-10,-7
1523066727516464,2,-6,-25,-6,0,11,47,8
1523066727516464,-1,2,-3,-3,-2,3,-24,2
1523066727517858,-2,-2,2,14,7,-3,4,-3
1523066727517858,4,-4,-28,-8,-5,2,12,-4
1523066727537411,-11,-4,11,-11,-4,-9,-52,-11
1523066727537411,4,8,16,3,-2,-1,28,3
1523066727544544,1,1,1,11,7,11,27,10
1523066727544544,0,-12,-55,-26,-15,-9,2,6
1523066727568492,5,14,46,10,5,6,4,0
1523066727568492,-3,0,-1,11,3,-1,-1,-4
1523066727570084,0,-3,-4,-5,-2,1,-14,-5
1523066727570084,-4,-6,-19,6,7,-1,8,-7
1523066727590551,-10,-11,-28,-7,-5,-7,-9,-6
1523066727590551,2,0,13,-2,-1,3,1,-4
1523066727592556,6,16,16,7,6,6,11,19
1523066727592556,-9,-20,-9,-6,-3,-5,-15,-11
1523066727613183,-2,-7,-18,-12,-7,-14,-33,-7
1523066727613183,-7,1,-15,4,5,11,45,14
1523066727615116,19,11,33,8,3,2,-3,-13
1523066727615116,-2,-3,-4,-9,0,3,2,3
1523066727635287,-1,-11,-9,-9,-10,-15,-15,2
1523066727635287,-1,0,2,2,8,2,4,-1
1523066727643191,-7,-4,-7,5,3,2,0,3
1523066727643191,2,8,35,-2,-1,5,20,10
1523066727666375,0,-3,2,-5,-3,-4,3,-9
1523066727666375,3,1,-12,6,1,1,-8,0
1523066727667757,-5,-11,-32,-7,-4,1,12,0
1523066727667757,2,14,36,3,-4,-8,-15,-15
1523066727688312,-4,4,43,5,7,4,5,9
1523066727688312,-1,-10,-16,-5,-5,-1,-3,0
1523066727689815,-3,2,2,7,7,-2,-14,-8
1523066727689815,-8,-11,-19,-11,-10,-5,-9,-2
1523066727709477,4,1,-14,-8,-2,2,4,3
1523066727709477,-1,0,-5,-4,-5,-5,-8,-5
1523066727718393,-4,-7,-2,2,-2,-3,-1,3
1523066727718393,-1,0,10,12,5,0,5,0
1523066727741563,1,-4,-18,3,1,2,-6,0
1523066727741563,2,6,13,-4,-3,-1,-11,-2
1523066727743986,-5,-6,-10,-8,-4,0,3,1
1523066727743986,-2,2,-9,-1,-3,0,1,-2
1523066727762111,-2,-4,-12,-2,0,-5,-3,-7
1523066727762111,1,2,15,0,-4,-6,0,-5
1523066727771033,2,1,-9,-10,-7,1,3,8
1523066727771033,-6,-3,-11,4,5,-1,-20,1
1523066727793090,0,2,43,12,3,-5,18,-5
1523066727793090,3,9,-4,-15,-14,2,21,3
1523066727795096,1,0,23,-3,2,-2,-5,-7
1523066727795096,-3,-13,-29,1,-2,-3,-2,-2
1523066727815264,0,2,3,0,-3,-1,-1,-1
1523066727815264,-4,-2,6,1,-2,-2,-12,7
1523066727823169,2,2,2,-2,-2,0,2,-2
1523066727823169,-1,3,-11,-4,0,-7,-5,-4
1523066727845847,0,-2,0,-7,-3,8,-8,0
1523066727845847,1,0,4,7,7,0,-6,1
1523066727847235,-5,0,-6,-4,-5,-1,7,1
1523066727847235,-1,-3,8,4,-2,-5,-1,-3
1523066727867789,-2,-1,-23,-3,-2,-3,0,-3
1523066727867789,-6,-5,13,-3,1,-4,-8,-6
1523066727874418,6,4,5,2,-2,0,-1,-2
1523066727874418,-11,-3,-7,-1,5,5,21,3
1523066727898985,8,21,46,-2,-7,5,3,2
1523066727898985,-7,-22,-34,5,5,11,7,3
1523066727900376,-5,-1,-6,-6,-4,-9,-15,-7
1523066727900376,13,2,13,7,0,1,-7,3
1523066727920932,-23,-11,-45,-6,-3,-2,1,-9
1523066727920932,-1,-11,4,3,3,3,2,-3
1523066727922434,1,5,13,1,3,-1,-32,-6
1523066727922434,-19,5,-3,2,-5,-2,7,6
1523066727927557,53,-8,-20,-5,5,3,20,28
1523066727927557,16,16,-13,-4,-4,-7,-46,-30
1523066727928451,-24,-13,26,-1,0,-4,-10,-7
1523066727928451,-10,-3,-24,-3,-2,-2,3,-8
1523066727935222,-12,-3,25,4,2,2,0,-2
1523066727935222,-3,-3,-7,-2,-4,-6,-2,2
1523066727935612,8,0,-18,-1,1,3,10,0
1523066727935612,10,10,-3,-2,0,3,-1,4
1523066727944136,-10,-7,3,-1,-1,-2,-19,-9
1523066727944136,6,12,14,0,-4,-3,7,7
1523066727944635,-4,1,-8,4,-1,-2,10,6
1523066727944635,3,-4,-2,-1,0,4,-3,-1
1523066727950261,-16,-9,6,-6,1,-5,1,-9
1523066727950261,-2,0,-3,-11,-8,1,3,5
1523066727950652,-3,-2,-11,-1,-2,2,11,16
1523066727950652,4,-1,25,0,2,2,-2,-1
1523066727958282,3,-2,-23,-2,-7,-6,-8,-4
1523066727958282,-7,0,-6,15,15,-7,-11,-3
1523066727959675,-6,3,14,-8,-8,6,13,-9
1523066727959675,12,0,10,1,0,-2,-8,7
1523066727965265,-13,6,-3,19,4,0,-1,-4
1523066727965265,-4,-11,-27,-31,-11,-2,3,3
1523066727965692,4,-7,-38,9,7,0,6,-7
1523066727965692,-4,5,33,-3,-2,-1,-2,0
1523066727972762,-5,-5,14,-1,-4,2,-1,-1
1523066727972762,5,1,-25,14,5,-4,-8,-1
1523066727973212,2,1,16,-8,-8,-3,-5,-2
1523066727973212,-1,-3,-27,-14,-10,-5,-10,-2
1523066727980841,8,0,-9,4,4,-5,1,-2
1523066727980841,-14,7,40,13,9,7,1,5
1523066727982235,-12,-19,-41,-16,-5,-7,-7,-6
1523066727982235,21,2,27,2,-3,-4,-30,3
1523066727987756,-14,3,15,-2,0,10,0,2
1523066727987756,-3,-9,-6,0,1,-4,-11,-8
1523066727988283,3,4,14,4,5,7,16,8
1523066727988283,4,-10,-19,10,5,-7,-14,0
1523066728009923,-5,3,-8,-22,-7,1,8,-5
1523066728009923,-2,-8,-26,-8,-9,-7,-16,-4
1523066728017103,-7,2,29,3,-3,-2,4,2
1523066728017103,-3,3,-2,4,4,2,13,-7
1523066728040660,1,3,3,5,0,-6,-11,6
1523066728040660,-3,5,28,1,-4,0,23,0
1523066728042053,5,-8,-26,-9,-6,-3,-4,3
1523066728042053,-5,6,-14,-13,-1,0,13,-8
1523066728064180,-1,-5,11,3,-3,-3,-5,-5
1523066728064180,5,1,-2,-1,-1,-3,1,3
1523066728066656,3,7,32,9,10,6,-10,-3
1523066728066656,-11,-14,-40,-13,-7,-3,12,3
1523066728085289,-2,12,47,5,1,-1,-3,-13
1523066728085289,6,-10,11,5,0,5,23,12
1523066728091801,8,20,-19,-4,-6,-11,-26,-10
1523066728091801,-2,-7,5,-2,2,3,-12,4
1523066728106791,-4,-1,-3,-9,-6,-5,-2,6
1523066728106791,12,-2,-6,14,1,1,5,-5
1523066728115814,-8,-9,-8,-12,-8,-7,0,-7
1523066728115814,-4,-3,-7,6,4,-2,2,-7
1523066728139067,5,1,-9,-5,0,1,7,-5
1523066728139067,-11,3,18,-7,-2,-3,-4,12
1523066728141557,2,-6,-30,5,2,0,2,0
1523066728141557,2,4,31,11,0,0,-3,-6
1523066728160590,-5,-10,-37,4,5,-4,-3,-2
1523066728160590,-4,5,-18,-14,-11,-6,-5,-9
1523066728162593,2,7,14,-8,-6,-1,4,0
1523066728162593,-4,-4,-21,9,5,1,-1,7
1523066728182145,8,6,22,7,4,9,4,4
1523066728182145,-3,-10,-24,-14,-4,-1,-6,-4
1523066728190718,-1,5,6,-4,2,4,5,2
1523066728190718,1,7,14,3,-6,-4,-1,-9
1523066728213276,2,-1,-29,-8,-11,-4,1,6
1523066728213276,-1,-1,4,2,-3,-8,-35,1
1523066728219405,-6,-9,-35,6,5,4,36,-4
1523066728219405,2,15,80,-4,1,16,36,2
1523066728235345,1,-4,-12,0,-1,-4,-10,2
1523066728235345,-6,-3,-10,-3,0,-1,-2,-7
1523066728243357,3,2,-1,8,4,-3,-21,2
1523066728243357,-1,-5,-25,-12,-5,-3,1,2
1523066728265989,-3,-7,-22,-5,1,4,12,0
1523066728265989,2,2,22,9,4,1,11,-3
1523066728267423,-3,-2,-14,-2,-9,-8,-6,0
1523066728267423,-1,-1,-8,-2,0,-2,-2,-2
1523066728287475,-2,2,-2,-2,-2,-5,-10,-1
1523066728287475,-1,-5,-7,1,6,3,1,0
1523066728294603,2,10,21,6,5,1,-2,1
1523066728294603,-11,-2,-7,-4,-8,-9,-11,-6
1523066728309610,10,4,-29,-7,-3,-2,8,1
1523066728309610,-7,0,35,4,1,1,4,1
1523066728319059,6,-2,10,0,0,1,21,5
1523066728319059,-6,-6,-11,-4,-6,-11,-20,-10
1523066728340731,4,-2,-7,-4,-2,-4,7,0
1523066728340731,-3,0,-10,-2,3,13,10,7
1523066728342122,-12,-3,13,-1,-1,1,-17,-10
1523066728342122,10,1,4,-1,-5,-4,-14,-1
1523066728362172,6,-4,-18,-1,-2,0,-1,-3
1523066728362172,5,2,3,-1,-4,-11,-11,-5
1523066728370697,-10,-5,11,-2,-2,8,7,5
1523066728370697,-1,1,-14,1,1,0,-6,3
1523066728393256,-14,8,33,4,2,5,-4,-6
1523066728393256,11,-1,-16,0,-4,-6,4,3
1523066728394761,0,5,4,-10,-8,-12,-14,-4
1523066728394761,8,2,-13,0,5,3,7,-16
1523066728415314,-24,-16,-26,-6,-8,0,37,21
1523066728415314,4,14,-3,4,5,5,-16,-1
1523066728423337,6,-1,48,6,5,2,4,-5
1523066728423337,-14,7,2,-1,0,6,-1,-8
1523066728429965,24,-21,-27,-8,-6,-13,-21,-17
1523066728429965,-16,-3,-17,-4,-2,-1,4,-4
1523066728430857,0,-13,14,3,5,6,7,9
1523066728430857,-7,27,2,5,-1,-4,-7,-11
1523066728437375,6,-6,-3,3,5,7,2,8
1523066728437375,20,-5,-9,-3,-4,-5,7,15
1523066728438378,-25,-13,-22,-4,-2,-4,-20,-13
1523066728438378,8,-8,21,1,-2,0,9,4
1523066728445960,-8,15,29,-1,5,3,-5,-4
1523066728445960,-5,1,5,3,-10,-1,-3,-12
1523066728447401,-4,-4,-47,-9,-8,-7,-8,3
1523066728447401,7,-11,17,-7,-4,-7,-8,-1
1523066728452523,-1,2,-21,2,9,-1,1,9
1523066728452523,-3,4,57,10,-1,3,1,-6
1523066728453416,11,3,-1,8,10,10,-1,-4
1523066728453416,8,-21,-29,-16,-13,-7,17,18
1523066728460936,0,30,3,22,18,-3,-24,-22
1523066728460936,-3,-15,-11,-16,-8,-4,12,1
1523066728462441,0,-4,-9,3,-2,-8,0,2
1523066728462441,-5,9,28,-18,-9,1,4,2
1523066728467569,-4,-12,-13,-1,-4,-2,-2,5
1523066728467569,-2,9,17,29,19,-10,-17,-6
1523066728468571,-1,-4,-14,-34,-22,0,-1,0
1523066728468571,0,-3,-7,15,6,6,3,1
1523066728475090,1,-6,5,-1,-5,-5,-11,-8
1523066728475090,-8,-1,-12,5,7,1,16,2
1523066728476088,6,0,-6,5,3,-2,-1,-4
1523066728476088,-15,2,24,-9,-1,0,2,-4
1523066728483496,22,3,21,-12,-12,-8,-16,10
1523066728483496,-8,-8,-33,-13,-5,6,18,-3
1523066728485111,17,5,-1,1,-2,-1,21,5
1523066728485111,-25,-8,-28,8,5,10,16,-1
1523066728490035,-3,13,19,3,1,-2,-11,-10
1523066728490035,-1,-7,-37,-9,-4,-9,-7,-1
1523066728498147,5,6,36,-4,-6,-3,11,3
1523066728498147,5,-16,-14,-2,2,-6,-21,-5
1523066728499038,-5,3,9,1,5,6,16,6
1523066728499038,3,5,-2,-1,-3,2,-4,-2
1523066728500065,-12,-4,17,5,0,-3,-5,-5
1523066728500065,14,10,-20,2,3,-4,-8,4
1523066728505669,-16,-7,13,-2,-4,-1,-1,2
1523066728505669,-5,-7,-10,-10,-6,0,-12,-8
1523066728507059,-6,1,-3,10,7,3,4,5
1523066728507059,6,-2,-8,-5,-5,2,-8,4
1523066728512684,0,-5,-6,3,0,3,11,-3
1523066728512684,-4,3,25,6,0,0,-3,-5
1523066728513600,-1,-1,-20,-10,-8,-10,-14,3
1523066728513600,1,3,25,10,4,-8,-40,-15
1523066728520595,-7,-1,-42,-9,-3,2,26,1
1523066728520595,-2,4,31,11,5,-2,7,12
1523066728522100,1,-10,-74,-4,5,4,-36,-2
1523066728522100,4,18,99,-1,-8,-6,-12,-5
1523066728527729,-5,-6,-20,-2,-4,0,-2,-2
1523066728527729,4,-2,-6,-8,-1,1,-2,-6
1523066728528617,-4,-6,-8,10,6,0,7,-7
1523066728528617,0,-3,-33,2,3,2,8,2
1523066728535249,8,-3,25,-19,-12,-7,-6,10
1523066728535249,-15,-8,-21,-2,2,3,16,11
1523066728535635,9,17,35,8,3,-3,-1,-2
1523066728535635,-16,-13,-33,5,6,4,-2,-18
1523066728559197,17,-4,17,-7,-7,-5,-7,-7
1523066728559197,8,5,-13,-5,3,2,3,12
1523066728561204,-7,-10,-9,2,4,3,-8,-6
1523066728561204,-2,1,14,4,3,0,17,3
1523066728580293,0,5,31,-13,-16,3,2,1
1523066728580293,3,-1,-13,-10,-4,-4,-19,-10
1523066728586772,4,4,20,12,7,0,2,2
1523066728586772,0,-11,-24,-10,-7,-2,10,10
1523066728601926,-6,-8,-12,13,5,-4,-21,-15
1523066728601926,-1,3,-2,-12,-1,2,2,12
1523066728610837,-3,-1,20,-2,-9,-5,-8,-4
1523066728610837,0,6,20,-2,-5,-6,4,-3
1523066728633469,1,1,37,10,6,-2,-26,0
1523066728633469,5,0,-10,6,3,2,25,-3
1523066728634900,-3,1,-6,-4,6,1,2,-1
1523066728634900,0,-10,-31,-3,-6,-4,-5,4
1523066728656575,-14,-5,-15,-7,-5,-3,7,-4
1523066728656575,2,2,28,7,3,-3,-31,-9
1523066728657962,5,4,-4,-13,-9,-6,10,-3
1523066728657962,-9,-15,-16,5,6,8,-19,1
1523066728677113,-3,1,-5,3,7,6,6,3
1523066728677113,-4,-7,-5,-5,-9,-5,-1,-3
1523066728686036,-1,2,-1,-6,-1,3,3,2
1523066728686036,4,4,1,-1,-3,-5,-1,0
1523066728708207,-5,0,-1,14,7,-10,-20,-8
1523066728708207,2,-2,-8,-14,-11,7,11,4
1523066728710098,1,6,18,1,5,6,37,4
1523066728710098,-1,-7,-12,1,4,-2,-13,-6
1523066728731656,-2,-11,-8,-1,3,5,11,3
1523066728731656,-4,3,5,3,-1,1,26,2
1523066728733160,-2,-12,-36,-2,-4,-2,6,-9
1523066728733160,20,25,40,0,-2,-7,-13,8
1523066728752210,-32,-13,-17,-3,3,11,15,-1
1523066728752210,28,4,0,-1,-4,-11,-33,0
1523066728761737,-13,-15,-41,4,1,6,28,-2
1523066728761737,2,-4,23,4,5,3,0,1
1523066728783355,5,7,-17,-9,-14,-21,-19,-22
1523066728783355,-14,-20,-58,-1,5,10,22,6
1523066728784799,27,29,102,7,-3,-6,-24,26
1523066728784799,-5,-6,-57,-9,-4,8,26,0
1523066728804350,5,16,53,9,7,5,13,-2
1523066728804350,-9,-9,-14,-6,-9,-10,-18,-17
1523066728813376,-2,-1,-17,-7,-5,-9,-27,-14
1523066728813376,-15,-12,-10,-3,2,-6,-11,0
1523066728835947,10,2,1,0,-1,9,18,5
1523066728835947,-6,7,6,-1,-2,-4,-6,1
1523066728837439,-6,-6,20,-5,-7,-7,-14,6
1523066728837439,5,2,9,3,-4,-5,10,3
1523066728858493,0,-8,-39,-4,1,3,-5,1
1523066728858493,-6,2,23,7,12,3,-5,-14
1523066728859999,-8,-6,-24,-7,-1,0,-7,-3
1523066728859999,-4,-4,-34,-4,-13,0,7,-1
1523066728879616,5,6,34,7,5,-2,0,-7
1523066728879616,-2,-9,-11,-16,-11,-1,-4,14
1523066728890078,6,25,59,7,4,5,2,3
1523066728890078,-3,-5,-15,-8,-6,-7,3,-7
1523066728910752,-13,-19,-40,-17,-13,-10,-12,-11
1523066728910752,-6,-1,28,18,9,-2,-4,-6
1523066728912138,1,7,-28,8,1,3,5,15
1523066728912138,0,2,1,-19,-9,-9,-9,-7
1523066728933198,-1,9,38,5,3,5,-7,4
1523066728933198,-1,0,-5,2,-3,-11,-38,-12
1523066728934698,-6,-17,-18,10,8,1,-4,-11
1523066728934698,-1,5,19,-2,2,3,10,5
1523066728954250,5,-3,-15,-6,-7,-2,2,9
1523066728954250,0,4,-1,1,-1,-6,-7,-7
1523066728964778,-2,-6,-7,0,3,7,12,0
1523066728964778,-3,-6,11,-3,-4,0,-2,1
1523066728985956,9,4,-6,1,2,1,-29,8
1523066728985956,-2,1,8,-10,-7,2,9,-13
1523066728987337,-7,-8,-6,-3,0,-5,-4,-7
1523066728987337,2,4,9,4,4,1,5,-1
1523066729008466,-1,-5,-3,11,1,7,31,1
1523066729008466,16,-4,-28,-20,-10,-3,-5,9
1523066729009925,-27,1,43,-10,-6,-5,-2,-7
1523066729009925,1,-4,-27,9,2,7,22,-9
1523066729029611,-10,0,-1,-2,-4,-15,-21,8
1523066729029611,20,5,13,5,4,8,28,15
1523066729038515,6,-5,-36,-10,-8,-4,-6,-13
1523066729038515,1,-1,6,-2,0,1,3,4
1523066729061664,-6,-1,-6,-1,3,-7,-9,-13
1523066729061664,-11,-3,-2,0,0,-2,1,-7
1523066729064085,4,1,-5,-5,-5,-3,-6,0
1523066729064085,-6,-2,-9,4,1,-5,-3,0
1523066729083135,11,5,-7,-1,5,1,-13,-7
1523066729083135,-6,0,8,8,3,4,2,-7
1523066729084638,-1,-5,2,-11,-14,-7,4,3
1523066729084638,-4,-8,-15,2,5,-3,-4,1
1523066729104193,0,-7,-13,-11,-10,1,17,11
1523066729104193,0,6,11,12,3,0,2,5
1523066729113218,-3,-6,13,0,0,-3,-15,-13
1523066729113218,-5,-11,-18,7,5,4,6,-1
1523066729135774,3,8,6,7,7,-2,-12,-9
1523066729135774,-10,-3,9,-18,-13,-2,-22,1
1523066729137280,15,6,0,9,7,0,1,1
1523066729137280,-10,9,11,-3,-3,6,2,2
1523066729158335,-1,-10,-7,1,3,-1,3,-5
1523066729158335,-6,-8,-32,-11,-3,-4,-1,6
1523066729159838,0,17,20,-7,-8,-10,-26,-4
1523066729159838,2,-16,6,-1,3,7,28,-2
1523066729180115,-1,2,-21,-8,-5,1,3,-1
1523066729180115,-9,-10,-9,9,2,-2,-3,-9
1523066729188415,-2,-2,-20,0,5,0,15,9
1523066729188415,2,-3,-13,-3,-6,-3,-13,1
1523066729210513,-4,-3,8,7,8,4,7,0
1523066729210513,-1,-12,21,1,-1,-4,-2,-10
1523066729212479,9,15,9,5,9,3,5,2
1523066729212479,-6,2,0,-7,-9,-9,-12,-1
1523066729232583,7,3,-1,1,4,13,-3,7
1523066729232583,0,13,15,7,0,-4,-9,-7
1523066729239551,-7,-20,-22,-4,-6,1,1,-2
1523066729239551,9,11,15,-2,-3,-3,-2,0
1523066729263847,-6,-1,1,-7,-7,-7,-5,0
1523066729263847,-4,0,3,11,4,0,-2,-2
1523066729266623,5,0,-8,-4,-1,3,14,-1
1523066729266623,-6,-10,5,-3,-4,0,-6,-1
1523066729285899,2,3,3,-5,-5,-3,7,3
1523066729285899,3,3,6,-1,3,1,-1,0
1523066729287178,-6,-13,-15,-1,0,2,15,0
1523066729287178,9,5,8,-2,2,-5,-12,-3
1523066729306934,-11,-9,1,2,0,-8,0,-5
1523066729306934,7,7,2,-3,2,13,-15,8
1523066729315753,3,-3,-6,-4,-4,-6,-14,0
1523066729315753,-11,-4,-14,4,1,-3,-9,-3
1523066729339004,3,1,10,-4,-5,-2,0,-5
1523066729339004,8,2,-22,-4,-7,-8,3,1
1523066729341322,7,2,-13,3,7,15,-3,1
1523066729341322,-23,-6,13,-7,-4,-5,-21,-13
1523066729359369,7,-1,0,0,-2,-1,5,6
1523066729359369,-7,-7,-9,-6,-6,-7,14,-2
1523066729368394,2,9,-8,5,2,1,29,-3
1523066729368394,-12,-2,-22,-1,2,-4,-68,-9
1523066729391020,8,-20,5,-5,-1,2,25,17
1523066729391020,2,27,38,9,4,5,1,13
1523066729392458,-15,-17,-9,-3,-5,-11,-9,-11
1523066729392458,16,17,-25,1,1,1,-20,-7
1523066729398472,-17,-2,27,0,-1,2,32,1
1523066729398472,12,-7,-24,-1,2,-1,3,-2
1523066729398975,-3,0,19,1,-2,-4,-10,8
1523066729398975,-8,1,-10,3,2,1,17,-7
1523066729420035,11,10,-7,3,3,2,-18,1
1523066729420035,-3,-7,-10,-7,-2,-2,32,11
1523066729427084,-5,1,-1,12,6,4,-20,-2
1523066729427084,9,-5,-4,-13,-8,-2,6,6
1523066729450694,-2,1,-8,-9,-6,-5,-6,-11
1523066729450694,-15,-4,10,0,4,2,-6,-24
1523066729452117,-3,-16,-58,4,6,3,-1,-9
1523066729452117,14,11,12,-23,-11,-6,23,44
1523066729458215,0,8,49,6,-8,0,-6,4
1523066729458215,-2,-14,-27,-3,-2,-4,-5,-7
1523066729459223,0,12,51,39,16,-5,-19,-13
1523066729459223,-10,-1,-35,-13,0,14,40,-9
1523066729465214,-3,-12,-21,-22,-13,-7,-10,-1
1523066729465214,-3,-7,4,15,8,-4,-7,-2
1523066729465653,1,3,-18,-14,-14,-1,2,2
1523066729465653,-2,0,23,18,14,8,30,7
1523066729472758,1,8,10,-5,-4,0,2,0
1523066729472758,0,-7,-7,1,3,-4,-11,-10
1523066729473172,-1,1,14,2,-7,-4,-16,3
1523066729473172,3,-7,-2,-8,-2,-8,4,-5
1523066729480692,3,1,-10,4,15,21,44,2
1523066729480692,5,5,5,-11,-18,-19,-11,-11
1523066729482197,-8,-8,-20,-3,6,21,38,9
1523066729482197,3,0,27,-7,-12,-3,-4,0
1523066729487210,6,5,5,12,6,-11,-17,-5
1523066729487210,-5,-3,1,-8,-3,0,0,9
1523066729488213,5,6,7,-16,-8,-7,-2,3
1523066729488213,-4,-12,-3,12,9,2,-5,-17
1523066729495230,5,-2,-34,-5,-8,-1,3,6
1523066729495230,1,0,5,-2,-3,-1,-10,-6
1523066729495733,-1,5,13,-5,-4,-6,-12,6
1523066729495733,6,-14,-27,-1,-1,8,12,5
1523066729503252,-12,6,37,-12,-9,-13,-23,-10
1523066729503252,0,-3,-9,3,6,10,8,2
1523066729504758,3,5,27,6,2,-2,4,-6
1523066729504758,-4,3,4,1,-3,-9,-21,-6
1523066729509855,-5,-1,-18,24,14,2,-5,-2
1523066729509855,-3,-3,-9,-31,-19,2,10,4
1523066729510773,-3,-13,-35,1,2,-3,2,6
1523066729510773,9,20,95,13,1,-1,-9,-10
1523066729518378,-17,-7,-15,-1,1,-8,-1,-19
1523066729518378,3,-5,-12,-3,4,10,-11,6
1523066729518794,2,-8,13,3,-1,1,19,4
1523066729518794,-2,-8,-42,-2,-8,-10,-9,8
1523066729540909,-2,3,15,1,0,-1,2,-6
1523066729540909,-12,-3,-16,1,-1,-8,-21,-9
1523066729542357,12,3,28,-21,-9,5,16,-4
1523066729542357,-30,-6,2,21,21,8,2,-7
1523066729561994,16,5,-1,-19,-20,-5,-1,8
1523066729561994,-6,-13,-28,6,11,1,8,-11
1523066729570934,-3,-13,-35,-16,-10,-6,-21,6
1523066729570934,4,7,26,-8,-4,3,8,14
1523066729592992,-8,-12,-19,12,7,3,2,-2
1523066729592992,0,15,15,-7,-7,2,6,3
1523066729595062,3,0,-4,0,-1,-4,-18,-13
1523066729595062,1,-3,-7,0,2,0,-2,-4
1523066729615638,-6,-8,-32,-15,-9,-2,-1,2
1523066729615638,3,6,26,12,1,-3,6,0
1523066729617555,-8,-7,-17,-10,2,1,2,-3
1523066729617555,9,7,-12,7,-4,-11,-24,-3
1523066729638194,2,1,26,6,16,19,28,14
1523066729638194,-1,-10,-26,-31,-19,-9,-3,-4
1523066729644627,-3,12,4,8,0,-6,-14,-2
1523066729644627,7,-4,16,0,1,2,-3,-2
1523066729668191,-5,-7,-15,8,3,-2,-2,-6
1523066729668191,0,2,10,11,5,-4,-6,5
1523066729669696,1,-5,-18,-6,-2,6,7,7
1523066729669696,3,-5,-16,-4,-1,3,9,-2
1523066729690751,-13,-1,-1,-2,-2,-6,-16,-4
1523066729690751,3,1,-6,4,2,0,3,-1
1523066729692257,0,0,5,-1,-4,-8,-23,-7
1523066729692257,-2,-3,-3,3,0,1,13,-1
1523066729713311,-1,2,4,-6,-8,-3,-8,-2
1523066729713311,-4,2,-1,3,1,1,-3,-2
1523066729714816,-1,1,8,-3,-4,-7,-6,0
1523066729714816,0,4,1,0,-1,-1,2,1
1523066729734578,2,-5,-18,-6,-4,-4,-11,-3
1523066729734578,-2,-1,17,5,2,-1,1,1
1523066729744895,0,-6,6,2,6,5,12,0
1523066729744895,1,2,-6,-1,1,8,13,0
