timestamp,emg1,emg2,emg3,emg4,emg5,emg6,emg7,emg8
1523066075489967,-3,0,9,-7,-10,-4,0,-3
1523066075489967,-1,4,3,2,-1,0,0,0
1523066075490971,-2,0,18,-8,-3,1,1,0
1523066075490971,-2,-1,-1,0,4,0,1,0
1523066075491966,2,4,2,6,1,1,1,2
1523066075491966,-1,-2,5,-5,-4,-2,-5,1
1523066075493073,1,0,-4,0,-3,-1,-3,-2
1523066075493073,-3,-3,-7,-1,2,-2,-4,-1
1523066075505002,0,1,3,-2,-1,-3,-3,-2
1523066075505002,0,-7,-9,3,1,0,0,0
1523066075512282,-2,-2,-14,-2,2,0,-1,-1
1523066075512282,0,0,4,-4,-9,-4,-2,-1
1523066075519454,2,1,-20,0,2,1,1,-3
1523066075519454,-8,-8,5,-2,-4,-2,-1,-1
1523066075533463,1,-1,-11,0,-2,1,-1,-2
1523066075533463,-4,-8,3,2,0,0,1,-1
1523066075545233,-1,-2,-9,-4,-5,-1,-1,0
1523066075545233,1,2,-2,-2,1,0,1,-1
1523066075557146,-2,-2,3,1,0,-2,0,-2
1523066075557146,-1,0,2,-2,-2,0,-1,-2
1523066075564535,-1,-1,4,-7,-4,-5,-11,-2
1523066075564535,-1,1,-2,-2,0,1,5,1
1523066075578531,-2,1,-4,1,-1,-2,-3,-1
1523066075578531,2,2,-11,-2,-1,-2,-2,0
1523066075618338,0,1,-4,-1,-1,-1,-1,0
1523066075618338,-1,6,10,-1,-1,-1,-2,0
1523066075619311,-3,-7,-5,-4,1,0,0,0
1523066075619311,0,5,16,-1,1,0,1,0
1523066075619311,-2,-6,-19,3,-2,-1,-1,0
1523066075619311,0,-2,-12,-4,-3,-2,-2,0
1523066075624321,1,3,-3,3,0,-2,-1,-1
1523066075624321,-1,-1,3,0,1,-1,-1,-1
1523066075630553,-2,-2,4,-6,-3,-1,1,-1
1523066075630553,0,2,2,-1,0,0,0,-1
1523066075639364,0,0,-4,-3,-1,-1,-2,0
1523066075639364,-1,-3,-6,0,-3,-1,-2,-2
1523066075645589,0,2,3,1,3,0,4,2
1523066075645589,-2,-4,3,-3,-2,-1,0,0
1523066075661695,-1,3,-6,-9,-4,-1,-3,-1
1523066075661695,-1,-2,2,12,1,-1,-1,0
1523066075668488,-1,1,8,-14,3,2,-3,-2
1523066075668488,-1,-2,-6,0,-3,-1,-1,0
1523066075691504,0,-2,4,-4,-1,-2,-1,0
1523066075691504,-1,-2,-9,-3,-3,-3,-4,1
1523066075691504,1,-1,-1,-4,0,-2,-3,-2
1523066075691504,-1,-2,0,4,-1,-2,-2,-1
1523066075705593,0,-2,-6,3,1,1,2,-2
1523066075705593,-1,-2,-12,-10,-3,0,-1,-2
1523066075713608,-2,1,13,11,-1,-2,-2,-1
1523066075713608,-2,0,-13,-8,-4,0,1,-2
1523066075728814,-3,1,7,14,4,-1,-4,-1
1523066075728814,-1,-3,-6,2,-2,1,2,0
1523066075729610,-2,0,2,-5,-2,-2,-1,-1
1523066075729610,-1,-2,2,2,1,1,-3,-2
1523066075750657,0,0,0,-9,-6,0,-2,-2
1523066075750657,-2,-5,-11,-3,-1,-2,-8,-4
1523066075751657,-1,-1,-1,4,0,1,9,0
1523066075751657,-1,1,21,0,3,2,-1,0
1523066075766107,-4,-8,-9,5,-6,-2,-2,-4
1523066075766107,1,2,12,1,1,-1,5,0
1523066075772715,-3,-7,-18,-7,-5,-2,-4,-1
1523066075772715,1,5,25,1,-1,-4,-2,-2
1523066075788679,0,0,3,2,1,1,3,1
1523066075788679,0,3,9,-12,-4,-2,-1,0
1523066075789278,-2,-4,-9,18,2,-1,-2,-2
1523066075789278,0,1,0,0,1,1,6,-1
1523066075811673,-1,0,2,-2,4,-1,-1,-1
1523066075811673,-2,3,10,-4,-3,-2,-2,-1
1523066075811673,0,-3,-3,-7,-5,0,-3,-1
1523066075811673,-2,-3,-12,3,1,-3,-3,-1
1523066075825748,-1,0,4,-1,0,-1,-4,0
1523066075825748,-2,-4,-5,0,-1,0,-1,2
1523066075832394,0,0,0,-13,-2,0,13,0
1523066075832394,-1,-2,-4,15,-2,-1,2,0
1523066075848797,-1,-4,-6,-10,-5,-3,-7,-2
1523066075848797,0,0,-6,5,7,2,2,-2
1523066075849439,-4,-3,4,-4,-2,-4,-7,-2
1523066075849439,-1,-2,-13,1,-1,-2,-1,-1
1523066075871701,-2,-3,-25,-17,-3,-2,1,0
1523066075871701,-3,-1,1,2,2,1,-2,-2
1523066075871701,1,5,6,3,1,0,-2,-1
1523066075871701,0,0,-7,-13,-1,-3,-2,-2
1523066075893967,0,-3,9,10,1,1,-1,1
1523066075893967,0,2,-7,-1,-5,-6,-12,-3
1523066075894560,2,2,2,-1,0,-1,19,3
1523066075894560,-2,-1,-3,-2,0,1,-1,-1
1523066075908944,0,-2,4,-2,-2,-1,0,-4
1523066075908944,-1,-2,-3,-2,-1,-1,3,1
1523066075909600,-1,1,7,2,-1,-2,-14,0
1523066075909600,-1,-5,-12,-25,-1,1,-3,0
1523066075931660,0,8,17,35,2,2,5,0
1523066075931660,-1,-7,0,1,-2,-1,-1,0
1523066075931660,-3,-8,-18,-1,0,-3,-9,-2
1523066075931660,-4,-6,-22,-6,-8,-5,-4,-2
1523066075945695,-1,-1,7,-8,0,-3,-6,-3
1523066075945695,0,-1,2,1,-2,1,5,-1
1523066075953057,0,-4,-8,11,-1,0,-2,-2
1523066075953057,-1,2,25,-6,3,2,-1,-1
1523066075969123,0,-2,-17,-8,-1,0,-6,3
1523066075969123,-2,-1,-6,14,0,0,16,3
1523066075969123,5,-1,-3,-17,-4,-1,-1,-2
1523066075969123,-6,4,11,-17,-3,-1,-2,-1
1523066075991114,0,-2,5,34,1,-3,2,-2
1523066075991114,-1,-3,-1,-9,-2,2,-4,-2
1523066075991822,0,6,4,2,5,2,-11,-1
1523066075991822,2,-3,3,1,-1,-1,-1,0
1523066076005214,-1,-4,-5,-16,-12,-3,5,-2
1523066076005214,-3,3,9,-8,-1,-3,-17,-2
1523066076012874,-3,-1,0,10,1,0,2,0
1523066076012874,1,0,-2,17,-1,-1,-3,-1
1523066076028918,-3,0,1,-13,4,-1,-3,-3
1523066076028918,1,-5,-7,-9,-4,-1,5,1
1523066076028918,-2,-4,-9,-10,-3,-2,-1,-1
1523066076028918,-4,-8,5,15,1,0,1,-3
1523066076051306,0,2,16,5,0,-2,2,1
1523066076051306,-4,-7,4,-19,-7,-5,-3,-1
1523066076051978,-6,0,-11,32,4,2,-2,-2
1523066076051978,4,1,1,12,5,-1,-7,2
1523066076066132,-2,6,20,-11,0,2,6,0
1523066076066132,-11,-21,-18,7,-12,-8,-3,-7
1523066076073035,8,5,7,-23,-6,-4,8,4
1523066076073035,-4,-3,-10,-3,0,-3,9,-5
1523066076088393,0,5,3,14,5,4,0,2
1523066076088393,5,10,5,13,8,0,1,0
1523066076089077,-7,-1,18,-16,-7,0,-3,-7
1523066076089077,3,-9,-14,-8,-3,-3,-10,10
1523066076111466,1,0,-15,-9,-4,-4,13,3
1523066076111466,0,0,-32,-1,4,2,16,3
1523066076112139,-3,4,68,8,4,-1,-9,-4
1523066076112139,1,5,-28,-7,-7,-1,3,-4
1523066076125508,-2,-4,-27,-4,-3,-1,-4,-4
1523066076125508,-1,18,38,7,4,3,-6,0
1523066076133549,-4,-24,-47,-14,-6,-7,-9,-3
1523066076133549,3,0,0,-1,-1,-6,-22,-2
1523066076148553,12,-6,-22,32,2,8,-4,2
1523066076148553,-2,1,20,-44,-3,-1,0,-4
1523066076149238,-8,-2,-2,3,1,3,14,1
1523066076149238,-3,-5,-14,35,-1,0,2,8
1523066076171614,10,7,17,-32,6,-1,-12,-4
1523066076171614,3,3,33,14,4,-1,5,1
1523066076171614,-1,-1,-37,-12,-9,-4,0,-1
1523066076171614,-2,-3,7,-6,2,4,10,0
1523066076185668,-8,2,24,9,-1,-5,-1,-5
1523066076185668,7,-2,-24,4,-2,-2,-17,-1
1523066076193592,0,16,19,-3,0,-2,-1,-1
1523066076193592,-4,-4,-6,-21,-2,0,12,-6
1523066076208722,-9,-7,-4,15,-2,-6,-14,-9
1523066076208722,3,-2,-22,-17,-5,0,13,-2
1523066076209398,4,-1,-5,25,1,2,1,1
1523066076209398,0,0,4,-8,-1,-2,-15,-8
1523066076231768,-6,4,-10,-33,-7,-2,29,6
1523066076231768,6,-15,-7,2,-3,-10,-48,-14
1523066076231768,24,5,-7,75,14,11,27,27
1523066076231768,-5,4,19,-85,-7,-2,-12,2
1523066076246848,37,-9,-5,15,-3,5,-3,-7
1523066076246848,-47,17,5,18,-2,0,3,-6
1523066076253653,31,2,-22,-25,-10,-10,-20,-14
1523066076253653,-33,4,30,35,7,-4,8,25
1523066076268879,-1,-4,1,33,1,3,-20,-6
1523066076268879,3,-8,-30,-17,-12,-3,7,5
1523066076269557,-1,27,34,1,1,0,-5,-8
1523066076269557,10,3,0,-3,-1,-3,-7,-6
1523066076291823,0,-4,4,-27,3,2,4,14
1523066076291823,0,-5,-24,18,5,4,7,0
1523066076291823,-30,-16,3,-5,7,1,4,-7
1523066076291823,10,-14,-3,-5,-15,-5,-12,-1
1523066076313913,0,-10,-22,-1,-3,-4,3,14
1523066076313913,-14,6,20,-11,8,3,-2,-6
1523066076314678,10,2,-5,-14,-8,-4,0,6
1523066076314678,5,-1,-21,29,4,7,-1,-6
1523066076328716,0,-1,-1,-17,3,-2,-1,-9
1523066076328716,13,2,12,-2,-4,-2,4,8
1523066076328716,-15,-9,9,-12,2,2,-7,-1
1523066076328716,2,0,1,26,1,0,3,-14
1523066076350772,-22,3,-14,-21,-8,-7,-6,-4
1523066076350772,53,-30,1,3,4,1,-3,32
1523066076351775,-55,18,-1,6,0,1,5,-24
1523066076351775,3,-2,-2,-5,-1,0,19,-8
1523066076373841,4,5,-3,1,-2,5,22,17
1523066076373841,-4,-4,5,3,2,-4,-1,-13
1523066076373841,67,-17,-26,-23,-12,-8,-9,9
1523066076373841,-23,13,3,34,1,-3,3,-6
1523066076388874,-12,8,20,-8,-2,-6,-14,-12
1523066076388874,4,4,-29,6,-5,5,24,1
1523066076388874,1,-2,20,-13,0,-2,-4,2
1523066076388874,5,5,-16,-39,-2,-3,-9,-5
1523066076410967,-5,-7,13,31,8,1,-2,-5
1523066076410967,-13,-1,2,3,-12,-7,-3,-9
1523066076411936,-8,-5,-7,1,-2,-1,3,-11
1523066076411936,8,-10,5,-34,4,6,-2,4
1523066076434017,-14,4,-14,-19,-6,-4,-7,-8
1523066076434017,-3,5,21,9,10,6,23,0
1523066076434017,-7,-5,-9,-4,-1,-2,0,10
1523066076434017,-4,-3,2,14,0,0,5,-2
1523066076448031,3,-7,-13,-10,-4,-4,-2,-12
1523066076448031,-3,15,14,-1,1,-5,-13,-8
1523066076449035,-12,-21,-23,-6,-3,3,-2,27
1523066076449035,1,-3,0,8,0,-1,-4,-10
1523066076471350,-7,-8,-13,-10,-3,-1,-4,1
1523066076471350,-4,16,40,11,-3,-2,-11,-13
1523066076472098,-11,1,-1,-5,-2,-4,-6,-9
1523066076472098,2,-5,-4,14,4,4,11,12
1523066076493155,10,-3,8,-3,0,-1,-2,-3
1523066076493155,-8,-7,-32,-12,-8,-3,-4,0
1523066076494155,1,-1,-1,3,4,1,3,-2
1523066076494155,-1,8,21,0,-6,-3,-3,-1
1523066076509195,-2,-11,-14,3,-2,-2,1,-4
1523066076509195,-3,-7,-6,-7,5,3,-9,2
1523066076509195,0,3,1,6,4,-1,-12,-5
1523066076509195,5,-3,-15,-2,-13,-6,-2,-4
1523066076531651,-5,3,15,2,0,3,-4,4
1523066076531651,2,-9,-20,-7,4,7,18,8
1523066076531651,-17,0,-2,5,0,-8,-5,-16
1523066076531651,2,3,-13,6,6,9,4,2
1523066076554314,-4,3,26,-2,-4,0,-3,2
1523066076554314,-3,-8,-10,2,-1,-3,-4,4
1523066076554314,0,-1,22,0,-1,-2,-1,-4
1523066076554314,4,-3,-21,-10,-5,-6,1,2
1523066076568733,-8,-3,-7,-2,-3,-4,-6,-5
1523066076568733,9,6,11,8,3,-3,-6,-12
1523066076569358,-4,-12,-24,-12,-3,-2,1,7
1523066076569358,-5,10,27,3,-3,-4,0,11
1523066076590747,2,-16,-23,-11,-5,-2,3,1
1523066076590747,-4,8,7,0,-2,-3,-11,-3
1523066076598784,-2,9,-7,10,5,4,1,-11
1523066076598784,8,1,0,10,2,0,7,-15
1523066076613838,4,22,81,1,4,4,8,7
1523066076613838,-7,-6,-27,-12,-4,-8,-35,-5
1523066076614475,-13,-10,-14,-10,-7,1,-2,0
1523066076614475,2,-14,-30,-22,-4,1,-3,2
1523066076636792,19,10,-40,22,3,-4,20,13
1523066076636792,-8,2,19,3,-2,-3,-26,-12
1523066076636792,16,3,15,-2,10,4,9,9
1523066076636792,-4,5,40,25,1,0,-11,-5
1523066076650932,3,-10,-40,-10,-9,0,6,4
1523066076650932,-1,3,8,1,0,-2,15,3
1523066076658927,1,-2,-27,3,7,5,7,-1
1523066076658927,3,1,15,0,1,10,33,-2
1523066076673957,-5,3,14,-4,3,-2,-10,2
1523066076673957,-4,-9,-21,-14,-7,-2,4,2
1523066076674636,2,10,27,1,-6,-7,2,-9
1523066076674636,-9,8,1,20,7,-7,-21,-6
1523066076696772,-6,-3,-28,-17,0,3,4,-7
1523066076696772,6,-4,14,0,-4,2,0,4
1523066076696772,8,7,11,-7,-6,-2,0,0
1523066076696772,2,-15,-17,-2,-3,-7,-33,-9
1523066076711080,-5,-7,-2,-5,-5,-4,6,-4
1523066076711080,1,12,-3,10,5,1,5,-2
1523066076719088,-4,-3,3,-13,-9,-6,-11,-5
1523066076719088,2,8,21,-6,-3,-2,-3,3
1523066076734120,-5,-4,-32,19,5,-2,-13,-6
1523066076734120,1,-7,1,-20,-4,0,21,1
1523066076734120,-11,17,23,8,-2,-6,-26,-8
1523066076734120,-8,-31,-49,-16,-3,-1,27,4
1523066076755852,1,2,8,-13,-3,0,-9,1
1523066076755852,-6,-3,2,15,-1,3,20,5
1523066076756853,3,-3,5,-2,0,0,-5,-2
1523066076756853,1,0,-8,-14,-1,0,-12,3
1523066076771108,-3,4,12,5,-2,0,8,-5
1523066076771108,-2,0,-12,-13,-1,-4,-38,0
1523066076778913,-17,-22,-9,3,1,-1,4,-33
1523066076778913,21,12,14,35,7,6,21,2
1523066076794191,-43,-10,11,-16,-3,-1,14,-1
1523066076794191,2,6,10,15,-2,-5,-4,1
1523066076794191,5,-3,1,2,5,5,-3,6
1523066076794191,0,0,1,-2,-3,-2,0,0
1523066076816312,3,-4,-7,0,-1,-1,-15,-5
1523066076816312,-5,-6,-2,8,4,2,11,-4
1523066076817014,-7,-11,-11,-6,-7,-4,-9,5
1523066076817014,-8,-9,-10,-15,-7,-7,-3,-2
1523066076831115,17,10,8,9,7,4,0,7
1523066076831115,-6,-6,-10,-10,-5,-7,-28,-6
1523066076838075,-5,-9,-5,2,-3,2,44,14
1523066076838075,1,11,16,-16,6,0,-29,3
1523066076853153,1,5,12,15,-2,-6,-11,-7
1523066076853153,32,-16,-13,-9,3,2,4,10
1523066076854113,19,28,21,2,3,4,1,7
1523066076854113,-14,-2,-10,8,-3,-7,-5,4
1523066076876171,-5,-7,1,-15,-6,-1,-7,-12
1523066076876171,31,5,4,20,5,3,5,30
1523066076877173,-37,-16,-13,-14,-8,-5,-8,-26
1523066076877173,-3,3,13,-2,-6,-5,2,-1
1523066076899627,15,3,4,5,6,-1,-10,1
1523066076899627,-18,-10,-18,-9,-3,0,8,-9
1523066076900235,8,12,-10,5,2,0,-1,7
1523066076900235,16,-17,-12,2,4,10,16,-1
1523066076913674,-10,-4,17,2,-6,-7,-16,-6
1523066076913674,-8,3,-9,-12,0,1,33,0
1523066076914273,-3,-5,-1,3,0,2,5,10
1523066076914273,5,5,-5,-8,-2,-3,-14,-21
1523066076936330,-10,-4,8,-11,-4,-6,2,0
1523066076936330,-11,-5,-3,2,-1,8,24,5
1523066076937510,20,12,13,15,5,1,-7,-7
1523066076937510,-9,5,5,-12,-1,-1,6,1
1523066076959789,8,-8,-24,2,-4,0,20,5
1523066076959789,-12,5,11,-6,-1,-1,-21,-16
1523066076960395,-4,-7,-11,7,-2,-1,0,5
1523066076960395,-5,-2,10,0,1,2,6,5
1523066076973912,-3,3,-6,2,1,0,-16,-1
1523066076973912,1,0,7,-10,-7,-4,6,3
1523066076974434,7,-5,-5,-25,-4,-3,-9,2
1523066076974434,-8,-1,-3,11,2,-5,-19,-10
1523066076996845,9,3,7,17,2,5,12,9
1523066076996845,-2,11,7,0,1,6,39,1
1523066076996845,-2,-24,-10,-6,-2,-1,-6,-1
1523066076996845,-10,-3,-8,-8,-5,-3,-3,-8
1523066077019924,-3,-1,-25,-1,2,-1,-10,-4
1523066077019924,-2,6,39,4,-3,-5,-17,-6
1523066077019924,1,3,-15,2,-6,-6,-1,4
1523066077019924,-1,-3,-5,-13,5,5,4,8
1523066077033590,0,-9,-18,-8,-6,-3,0,-1
1523066077033590,-3,-1,4,7,-4,-2,-15,-7
1523066077034592,3,4,15,7,10,-4,-14,0
1523066077034592,-2,-5,-12,7,-4,-3,0,3
1523066077055647,2,9,25,8,2,6,5,-2
1523066077055647,-7,-4,-24,-28,-6,-10,-7,-13
1523066077057654,-2,-3,-1,-1,-4,2,-3,0
1523066077057654,-2,3,-9,7,14,0,3,3
1523066077080006,0,-7,-2,4,0,3,7,1
1523066077080006,-1,-3,-28,0,-3,-4,-22,-2
1523066077080716,6,8,-4,-9,-9,-1,0,4
1523066077080716,-7,-5,-5,-6,-6,-9,-23,-6
1523066077094069,0,5,9,-14,-4,4,-2,5
1523066077094069,0,-2,7,17,8,4,2,0
1523066077094069,-4,0,-2,6,3,4,4,-1
1523066077094069,2,8,32,-5,-7,-6,-22,0
1523066077116121,1,-6,-30,-5,5,-1,-8,-2
1523066077116121,-9,-13,-8,-29,-22,-12,-17,-8
1523066077116815,13,0,-5,11,1,1,9,20
1523066077116815,-7,-8,-1,9,8,12,23,0
1523066077147225,4,20,37,8,8,2,5,1
1523066077147225,-5,-32,-55,0,-2,-5,-9,-3
1523066077147897,2,7,22,-14,1,0,0,0
1523066077147897,-2,-10,-30,14,-11,-7,2,-4
1523066077154222,-1,-3,5,0,1,3,11,1
1523066077154222,13,5,11,14,5,-5,-5,-3
1523066077154222,-8,-13,-38,-47,-6,0,2,1
1523066077154222,-4,2,8,37,-1,-4,2,-3
1523066077176268,1,9,-3,5,-1,1,19,-4
1523066077176268,-1,8,19,1,-3,-4,-5,-2
1523066077176974,-4,-12,-49,7,5,4,-4,-7
1523066077176974,10,10,33,-22,-5,1,27,7
1523066077199357,-7,-8,-22,0,-5,-6,-8,-4
1523066077199357,-1,4,30,34,15,9,3,5
1523066077200036,-6,-4,3,5,-2,-2,1,-9
1523066077200036,0,-13,-40,-19,-10,-4,-8,0
1523066077214125,-1,-3,0,-7,-3,-7,-24,-6
1523066077214125,-2,2,-2,-4,5,11,38,7
1523066077214125,-3,0,24,9,-6,-12,-29,-13
1523066077214125,3,10,11,-6,3,8,-3,9
1523066077236459,-2,-7,15,5,5,0,15,1
1523066077236459,19,5,-29,-15,-5,-5,-7,-7
1523066077237134,-3,5,21,8,1,2,13,6
1523066077237134,21,-5,1,-8,-6,-1,10,8
1523066077259500,-28,-6,-13,5,0,-4,-4,-16
1523066077259500,0,11,15,-26,-1,-3,-11,1
1523066077260194,-4,-5,5,5,1,-1,1,-2
1523066077260194,-5,-7,-1,-7,-1,-2,4,-3
1523066077274230,10,-2,-8,0,-6,-2,-16,14
1523066077274230,0,3,12,-15,2,1,32,-2
1523066077274230,-5,-7,0,-5,-7,-3,-73,0
1523066077274230,-12,3,-19,1,-5,1,24,0
1523066077296570,8,-3,7,-8,-7,-6,-15,-6
1523066077296570,0,2,-3,0,-8,-7,-38,7
1523066077296570,-2,8,-20,-2,-5,11,42,1
1523066077296570,41,14,41,6,-1,-6,-36,-3
1523066077319350,-60,-23,-9,-12,-7,3,11,-4
1523066077319350,22,-6,-14,17,-2,-6,-19,6
1523066077320353,1,13,17,0,3,-3,3,0
1523066077320353,-59,4,-19,-8,2,-1,-21,-21
1523066077333822,30,8,46,18,4,1,6,-19
1523066077333822,-7,-2,4,1,-7,-7,-18,-26
1523066077334391,3,3,2,17,-3,-7,30,3
1523066077334391,-6,-10,-15,1,13,6,11,9
1523066077355446,45,3,-2,-20,-3,0,-16,-13
1523066077355446,-16,-9,-11,5,4,3,-8,-5
1523066077356448,12,17,12,22,-8,-9,-4,-9
1523066077356448,-10,-1,-4,-3,0,-6,-10,-13
1523066077379796,8,1,-15,-16,1,7,33,14
1523066077379796,2,-5,-12,14,2,-1,-8,1
1523066077379796,-20,-18,-2,-10,1,7,18,-4
1523066077379796,26,-8,-18,-7,-3,-3,5,16
1523066077393548,-32,22,16,6,-2,-5,-14,1
1523066077393548,-8,0,-14,-19,0,2,12,4
1523066077401793,-8,-6,2,-5,4,1,-11,0
1523066077401793,-9,-7,-7,27,0,2,-8,-10
1523066077416789,10,-4,-7,-10,-4,-5,-3,6
1523066077416789,-17,-3,14,-1,-3,2,11,-2
1523066077416789,16,15,-1,-3,0,-3,-5,-3
1523066077416789,8,-3,12,-5,0,1,-6,-1
1523066077438670,6,-10,-23,-2,-4,-7,-13,9
1523066077438670,-33,9,14,-11,1,2,22,-18
1523066077439670,0,-13,4,9,4,1,-1,2
1523066077439670,1,7,19,-11,-2,-2,-12,-2
1523066077453964,-3,-4,-5,5,4,-5,6,7
1523066077453964,1,-10,1,3,1,-1,-4,2
1523066077454713,3,-1,4,-15,-8,-9,-6,-2
1523066077454713,-6,4,0,-11,-7,-3,-6,-6
1523066077476770,1,0,11,26,1,-1,-29,-5
1523066077476770,6,-5,-1,0,4,2,-2,1
1523066077476770,0,-1,-1,1,3,-2,25,0
1523066077476770,1,2,30,-1,-2,0,-10,5
1523066077499974,-4,-2,-18,-15,-2,2,1,0
1523066077499974,-2,-6,-9,8,-6,-4,-10,2
1523066077499974,-3,-6,-9,-13,-6,-2,-15,1
1523066077499974,-4,4,-5,-4,0,-4,5,-5
1523066077512867,2,2,4,4,2,0,0,-1
1523066077512867,0,2,5,8,11,8,6,5
1523066077520889,2,-1,-10,-15,-6,-5,-3,-2
1523066077520889,-1,-9,-26,-3,-7,-2,12,-1
1523066077536192,-3,-1,-2,-1,1,-3,-7,-5
1523066077536192,8,11,16,3,-2,1,5,11
1523066077536933,-2,-1,11,14,7,6,-3,0
1523066077536933,-1,1,-9,-9,-2,-2,-11,-1
1523066077559254,-2,0,2,4,2,2,4,4
1523066077559254,-1,-7,-10,-4,-2,-1,-5,-2
1523066077559993,2,0,-17,-7,-5,-1,-6,-1
1523066077559993,-1,7,50,14,3,1,6,0
1523066077573026,2,0,-68,-41,-17,-7,7,1
1523066077573026,3,0,20,9,7,4,-3,1
1523066077581302,-8,-1,-1,16,2,-2,-16,-6
1523066077581302,1,1,6,10,6,2,5,3
1523066077596292,1,-1,8,2,0,-3,-5,1
1523066077596292,-4,-1,10,-12,-8,-9,-36,-6
1523066077597094,1,-2,-16,-12,-3,9,49,7
1523066077597094,-2,-5,-19,12,5,4,7,-9
1523066077619427,4,3,18,-1,2,0,-2,9
1523066077619427,18,-7,-43,-15,-11,-8,1,14
1523066077620155,-24,2,34,13,6,2,-25,-21
1523066077620155,3,4,-16,-7,-1,0,2,2
1523066077633490,-5,-8,14,3,0,1,4,-2
1523066077633490,10,-3,-5,16,-3,-2,34,-4
1523066077641484,10,-5,-3,-10,0,-6,-40,10
1523066077641484,-9,9,-22,17,-5,6,48,13
1523066077656247,-11,-2,1,-16,-4,0,10,-9
1523066077656247,-3,-2,12,-1,4,3,-6,0
1523066077657249,3,7,9,17,-2,-11,-29,-5
1523066077657249,10,-10,-57,-58,-13,-11,-18,-7
1523066077679527,-16,-19,17,26,1,-1,2,-5
1523066077679527,-7,1,-22,3,1,4,11,-1
1523066077680313,6,8,7,-26,-4,-2,1,-1
1523066077680313,2,-14,-22,-15,-12,-6,-5,4
1523066077693581,-1,-3,4,19,4,0,-8,-5
1523066077693581,-3,1,11,-10,1,1,1,3
1523066077701625,-2,-6,8,25,3,3,9,2
1523066077701625,2,11,30,-33,-5,2,13,-1
1523066077716663,5,4,-3,1,-2,0,-2,12
1523066077716663,-3,2,12,14,3,3,9,-3
1523066077716663,10,-7,-6,-8,-6,-4,3,7
1523066077716663,-14,-2,15,13,1,1,-3,-36
1523066077739469,5,0,-7,-3,-3,-3,-3,-9
1523066077739469,-30,-8,-17,-16,-1,-6,-25,28
1523066077740608,1,9,36,10,2,15,49,-3
1523066077740608,13,-3,-2,8,5,0,-17,0
1523066077753554,37,-3,-34,-6,-5,-3,7,-3
1523066077753554,-5,12,36,2,-3,-5,-23,-12
1523066077760781,-15,-11,-24,-17,-5,-1,1,-5
1523066077760781,11,6,28,27,3,-3,-21,-35
1523066077776727,-21,-2,11,-22,-2,0,9,8
1523066077776727,-3,-2,-4,23,1,4,5,-6
1523066077776727,20,1,-14,-30,-1,-1,-3,7
1523066077776727,-10,-6,-13,-5,-3,-3,-1,15
1523066077799897,4,0,1,-13,0,2,-3,-4
1523066077799897,12,3,-6,-13,-3,-3,-11,-7
1523066077799897,-21,-5,-10,15,-1,-4,-4,1
1523066077799897,-1,-6,-8,3,-4,-3,-1,13
1523066077812866,-4,-6,-5,-19,4,2,-7,-1
1523066077812866,2,3,17,23,1,2,12,5
1523066077820685,4,1,1,-5,-2,-5,-2,-17
1523066077820685,-10,-5,-11,-6,1,4,13,17
1523066077836728,32,10,21,8,0,-1,0,13
1523066077836728,-24,-10,-26,-6,2,6,-15,-14
1523066077836728,-7,5,-3,-5,1,4,-4,-21
1523066077836728,-10,-12,8,20,-2,1,4,6
1523066077859036,7,3,-7,-15,-3,-3,-7,-4
1523066077859036,-43,3,-14,15,0,-1,17,-14
1523066077859794,-2,-9,-15,-33,-9,-13,-10,17
1523066077859794,-7,-3,17,53,-3,0,-14,-28
1523066077882052,-2,7,9,19,-4,0,7,13
1523066077882052,18,11,2,-31,-9,-1,1,4
1523066077882856,-5,-16,-19,10,-8,-14,-16,0
1523066077882856,-9,-2,18,-4,12,4,5,4
1523066077896131,-6,11,-4,-6,-8,-12,-17,-9
1523066077896131,37,-1,6,5,-3,-4,6,1
1523066077896888,-1,-2,-10,-3,-3,-3,-8,6
1523066077896888,18,5,-1,-4,6,4,-3,10
1523066077919211,-61,-1,2,14,1,-2,-15,-42
1523066077919211,17,-7,-2,-21,-4,1,11,10
1523066077919953,2,5,8,4,0,3,-9,-1
1523066077919953,-5,-1,-32,-3,0,-1,-5,4
1523066077942285,10,4,7,-18,3,9,31,12
1523066077942285,-6,-8,11,10,1,-1,-4,-14
1523066077943015,-5,14,15,12,-2,3,15,-3
1523066077943015,2,-3,-24,-18,-5,-1,14,0
1523066077956280,2,-7,-12,-3,-3,-2,-9,5
1523066077956280,9,5,-6,-6,7,3,-1,2
1523066077957048,7,2,15,10,5,4,9,7
1523066077957048,-4,-7,-17,-13,0,-3,-8,1
1523066077979261,0,10,50,6,-3,-3,-1,-4
1523066077979261,-4,-7,-18,-10,-6,-3,-6,-2
1523066077980113,-1,1,11,17,4,2,-1,-5
1523066077980113,-1,3,21,-7,-6,-4,0,5
1523066078002352,-7,-20,-27,5,2,1,0,-1
1523066078002352,0,-3,-12,-2,-2,-3,0,1
1523066078002352,3,15,21,-3,2,-1,-3,4
1523066078002352,-1,-14,-19,-10,-2,-6,2,-1
1523066078016472,5,2,-5,8,-8,1,-24,1
1523066078016472,-4,-4,-2,-2,1,0,-9,-1
1523066078017209,1,1,-3,-2,0,0,4,0
1523066078017209,-5,-8,2,7,7,2,-6,-2
1523066078039266,0,4,-43,-8,-8,-4,1,-3
1523066078039266,0,-1,14,-1,-7,-7,-3,-1
1523066078040270,0,-3,1,3,12,5,-9,-2
1523066078040270,-2,-1,23,2,-17,-6,-5,1
1523066078061327,4,7,-32,2,26,2,8,2
1523066078061327,-3,-23,-18,-4,-6,-2,0,0
1523066078062329,0,-8,-50,-17,-6,-4,0,-3
1523066078062329,12,13,22,-7,-1,4,5,8
1523066078076631,-8,0,17,12,-4,-1,0,-7
1523066078076631,1,8,38,-7,-6,-5,-1,-3
1523066078076631,-4,-10,-3,-8,-4,0,1,2
1523066078076631,1,-1,-15,-1,2,-2,-4,0
1523066078099687,15,-2,8,2,-1,-2,-6,1
1523066078099687,-35,-6,-28,2,10,4,-2,-25
1523066078100431,8,-6,6,-5,-9,-3,-5,2
1523066078100431,-10,2,3,-1,-4,-3,-6,-10
1523066078121486,-10,-7,-4,0,0,-2,3,3
1523066078121486,10,8,14,-3,0,-2,2,6
1523066078122487,-1,-1,-9,-2,-5,-4,-2,-3
1523066078122487,6,-1,-14,-10,0,-3,-6,-6
1523066078136786,-8,-13,-15,7,1,1,-1,-1
1523066078136786,8,10,10,1,2,-2,1,4
1523066078136786,-6,-7,-9,-4,-6,-5,-1,-4
1523066078136786,-10,2,34,8,9,3,3,0
1523066078159838,3,7,9,-11,-5,-2,1,0
1523066078159838,5,-6,-17,2,1,0,6,6
1523066078159838,24,3,19,-3,0,-1,-5,21
1523066078159838,-24,-6,-30,7,-12,-6,-13,-8
1523066078181901,17,-10,-15,7,12,12,24,8
1523066078181901,-4,7,26,6,-4,-5,-7,-6
1523066078182652,-4,-5,-1,-11,0,6,13,2
1523066078182652,0,-3,-13,-16,-5,-1,5,7
1523066078195961,-9,1,17,-3,-2,-3,-14,-16
1523066078195961,6,-7,-41,6,-5,-4,2,0
1523066078196688,-12,1,8,10,2,-2,-8,-11
1523066078196688,9,8,26,-3,2,-1,0,1
1523066078219887,-6,13,25,-15,-11,-4,2,-2
1523066078219887,12,1,-8,13,0,-1,-4,2
1523066078219887,-23,-6,-12,8,1,-1,-4,-7
1523066078219887,-2,-4,16,4,6,5,-1,1
1523066078242085,3,-6,-13,-8,-3,-3,-4,7
1523066078242085,-1,-4,-7,-16,-4,-2,1,2
1523066078242809,3,10,8,11,1,2,5,0
1523066078242809,27,-6,-14,7,3,0,1,18
1523066078255843,-5,-7,3,7,2,0,-12,-3
1523066078255843,-2,4,14,-3,-6,-3,-9,-6
1523066078256849,-4,-2,-28,-6,2,4,22,-4
1523066078256849,10,5,10,0,1,0,-4,1
1523066078279155,-4,4,0,1,-7,-7,-33,-10
1523066078279155,-9,-8,-11,-9,-2,0,14,2
1523066078279909,6,-4,-12,3,0,-3,-6,1
1523066078279909,-4,1,2,-7,-2,-3,-4,-5
1523066078302217,-11,-8,-16,-1,-2,-1,3,-2
1523066078302217,5,10,2,4,-1,2,14,0
1523066078302217,-7,-27,-12,-3,0,4,-2,-1
1523066078302217,-14,9,10,-6,-3,-3,1,-11
1523066078316283,3,-8,-7,-7,-2,-1,10,-1
1523066078316283,0,-5,2,18,5,0,6,7
1523066078317008,-6,17,32,-1,1,2,-26,-6
1523066078317008,-18,-12,-5,1,0,-1,0,3
1523066078339251,12,4,-5,-3,-2,-1,5,-1
1523066078339251,5,-7,3,-12,-2,1,4,-1
1523066078340072,19,13,-1,12,0,2,14,1
1523066078340072,11,4,13,-14,-4,-5,10,4
1523066078362177,34,8,9,12,2,3,25,38
1523066078362177,-44,8,18,-19,-7,-8,-58,-30
1523066078362177,-4,-13,-2,7,1,-1,11,9
1523066078362177,-17,-1,-6,-1,-7,-7,4,-3
1523066078376164,-2,-1,-24,2,1,-2,1,-3
1523066078376164,0,-11,15,22,8,6,2,11
1523066078377166,13,18,-16,-46,-8,-6,-6,-5
1523066078377166,-8,10,11,7,-1,2,2,5
1523066078399491,36,-7,28,-16,-7,-9,-10,-4
1523066078399491,-80,-33,-46,17,3,0,-5,14
1523066078400230,3,6,-3,6,4,-3,2,-17
1523066078400230,11,-7,-6,-4,-4,3,3,13
1523066078421283,-39,-3,8,-10,-7,-5,-10,-11
1523066078421283,48,10,-13,-18,-3,1,3,4
1523066078422285,-1,-2,-32,9,-4,-4,6,14
1523066078422285,-23,-13,-20,-12,-8,-2,-7,-10
1523066078435602,-4,2,-20,14,2,3,-4,-6
1523066078435602,33,1,-19,12,3,0,6,-1
1523066078443643,-18,-1,43,-18,-4,-7,-8,-3
1523066078443643,21,25,24,12,7,3,-1,-9
1523066078466699,-17,-8,-28,2,2,2,8,-3
1523066078466699,8,11,5,1,-5,-2,3,5
1523066078467410,-3,-5,-15,-10,-2,-1,-15,-7
1523066078467410,0,-9,-5,10,1,-4,-9,-3
1523066078481739,7,5,7,1,2,1,2,4
1523066078481739,-1,5,8,-9,-3,-1,5,-4
1523066078482449,0,-11,11,4,0,-1,-8,-3
1523066078482449,5,-4,-11,-1,3,3,13,0
1523066078495751,-14,0,6,-1,-2,-3,-1,-6
1523066078495751,6,0,9,0,-2,-12,-23,-2
1523066078503502,-5,-5,-2,10,-1,11,31,3
1523066078503502,3,-1,-13,-3,-2,-2,-12,-1
1523066078519799,-2,4,18,0,2,-1,3,1
1523066078519799,-1,3,8,-6,-1,2,4,-2
1523066078519799,2,-8,-1,0,-3,-7,-8,0
1523066078519799,0,-4,-3,2,2,0,-4,-4
1523066078541913,-5,0,-20,-23,-10,-2,-4,-3
1523066078541913,2,-1,6,11,1,-3,-4,-2
1523066078543611,-4,1,-3,12,9,1,-4,-1
1523066078543611,3,-2,-7,-1,1,0,8,-3
1523066078555641,-6,-4,7,4,1,1,2,0
1523066078555641,13,10,22,6,2,2,11,6
1523066078564666,-7,-6,-14,-8,-9,-5,-11,-7
1523066078564666,6,1,-5,-3,-3,-2,-11,-2
1523066078577701,-25,-14,-5,-4,-4,-3,-6,-21
1523066078577701,3,2,31,-8,0,1,2,0
1523066078586724,6,-6,-14,9,-2,-2,6,1
1523066078586724,4,-1,-12,-4,-3,-1,-6,0
1523066078602056,13,-1,16,7,-1,-9,-7,10
1523066078602056,-1,0,-16,-7,-2,10,14,-3
1523066078602767,-11,-4,11,-4,-3,-6,-7,-9
1523066078602767,-2,4,1,5,2,-1,1,1
1523066078616073,-3,-18,-34,-9,-7,-5,-11,-4
1523066078616073,4,-4,-3,10,9,3,12,10
1523066078624080,0,1,7,-6,-4,0,1,0
1523066078624080,-1,-2,-4,-1,-8,-6,-3,-5
1523066078637861,-3,0,10,0,-4,7,8,2
1523066078637861,-4,-4,-12,-11,-10,-5,-13,-8
1523066078646886,1,12,20,9,3,-2,-1,-1
1523066078646886,18,0,-15,-8,1,-1,5,23
1523066078662179,-29,2,6,7,1,1,-4,-26
1523066078662179,1,6,3,6,4,3,7,3
1523066078662931,1,-1,-11,-12,-3,-3,-16,2
1523066078662931,4,-2,-16,-9,-6,-3,4,-8
1523066078684985,11,7,12,5,0,-2,4,6
1523066078684985,1,-5,-13,-13,-7,-5,-13,-1
1523066078685991,-7,12,17,14,5,3,7,-1
1523066078685991,0,-1,-5,-6,-1,-2,-6,-5
1523066078698222,-7,-7,-21,-1,-1,3,-9,-3
1523066078698222,-5,6,44,3,4,0,10,-7
1523066078707048,5,-5,-20,-4,-4,-9,-40,-4
1523066078707048,-4,2,23,9,7,8,33,-1
1523066078722082,0,-8,-52,-15,-8,-3,-5,0
1523066078722082,11,8,7,22,5,-4,-19,17
1523066078723089,-12,-13,-16,-17,-1,5,20,3
1523066078723089,-9,-6,16,17,-1,-1,-6,-9
1523066078735370,16,14,2,-30,7,3,4,11
1523066078735370,-22,-24,-12,-7,-5,-7,-16,-15
1523066078744147,-15,-7,-11,4,1,-1,0,-22
1523066078744147,-4,-2,2,-5,3,-1,-8,1
1523066078759182,12,1,20,-4,-5,-2,15,4
1523066078759182,-8,-12,-32,-3,-2,2,7,-2
1523066078765501,7,10,22,2,2,0,9,6
1523066078765501,-6,-6,1,3,3,1,-3,0
1523066078782424,-2,-5,-7,11,4,0,-3,-4
1523066078782424,4,4,2,-7,-1,0,4,-1
1523066078783250,2,-1,-13,-7,-6,-1,5,0
1523066078783250,3,-1,-4,-1,-2,0,0,3
1523066078804302,-7,5,28,16,3,0,-1,-5
1523066078804302,15,3,-14,-17,-7,-6,4,-30
1523066078805306,30,-3,0,0,-2,-10,-8,21
1523066078805306,-22,0,11,7,2,10,-2,-17
1523066078818601,1,16,3,-2,1,1,3,4
1523066078818601,-28,-11,-7,-17,-6,-3,1,3
1523066078825359,-10,-5,6,18,0,3,30,2
1523066078825359,20,8,-14,-22,-5,-8,0,4
1523066078841704,-17,-9,23,28,10,1,3,-8
1523066078841704,1,-2,-20,-13,-1,6,-7,3
1523066078843407,-4,-3,-22,-15,-6,-7,-25,-3
1523066078843407,-7,-4,20,2,2,6,34,-5
1523066078864731,8,5,-7,-1,-3,-2,1,4
1523066078864731,-16,-7,-11,-6,-6,-11,-23,-22
1523066078865470,-1,0,4,5,5,5,2,-3
1523066078865470,8,-4,-13,-6,-1,-2,-3,11
1523066078877498,-41,-10,0,7,1,0,-23,-28
1523066078877498,11,0,5,4,-4,0,27,28
1523066078886522,-1,9,7,-6,-2,-1,-17,-14
1523066078886522,-5,-5,-2,3,-1,-6,-2,-4
1523066078901655,19,-5,-13,16,0,-1,-14,8
1523066078901655,-27,0,0,-17,-4,-2,-1,6
1523066078903569,38,-6,0,21,3,1,1,9
1523066078903569,-4,5,4,-2,3,1,-19,-2
1523066078924922,1,-4,-34,-11,-6,-6,4,16
1523066078924922,-10,-8,2,7,7,4,7,6
1523066078925626,-9,-11,4,-15,-1,1,-35,-22
1523066078925626,-32,0,-12,17,-3,-3,6,-27
1523066078946948,13,1,32,-8,-2,4,32,17
1523066078946948,-1,-5,-33,25,8,1,1,2
1523066078948686,2,3,2,-40,-13,-3,13,-1
1523066078948686,-44,-18,-13,4,-7,-3,-2,30
1523066078961928,-11,10,43,19,8,5,-10,-14
1523066078961928,12,8,1,1,1,-3,-6,-7
1523066078963726,2,-2,-24,-20,-1,0,17,8
1523066078963726,6,-6,-1,18,0,-3,-16,-8
1523066078984943,20,5,-19,-13,-5,-3,6,6
1523066078984943,-9,-11,31,4,3,2,-4,-6
1523066078985790,1,13,-5,12,0,-2,1,8
1523066078985790,12,3,7,-15,-9,-7,0,0
1523066078998067,-11,-8,-16,-5,3,-1,-9,-5
1523066078998067,26,11,11,-9,-5,-3,2,2
1523066079013132,-22,-11,6,8,6,13,19,7
1523066079013132,19,2,-5,-7,2,1,-3,-6
1523066079022156,6,1,14,5,-7,-7,-6,-4
1523066079022156,-1,-1,-8,-8,0,-10,-20,-5
1523066079022885,1,5,3,10,-5,6,43,15
1523066079022885,0,3,-23,-13,-4,-4,-15,-3
1523066079043941,1,-9,2,1,6,-3,-2,3
1523066079043941,1,3,2,0,-3,8,2,-2
1523066079045949,-11,-3,-8,0,-3,-6,-9,-8
1523066079045949,12,5,9,6,4,2,-11,3
1523066079058280,-5,-3,9,-21,-13,-4,0,-1
1523066079058280,0,1,-20,2,-5,-5,0,0
1523066079067005,-2,0,26,17,10,6,5,-3
1523066079067005,-4,0,15,3,1,-4,-4,-7
1523066079082324,3,-5,-8,-4,11,-10,4,4
1523066079082324,8,7,-2,4,-19,13,6,3
1523066079083049,1,-12,-37,-5,4,-6,-11,11
1523066079083049,-18,10,28,0,0,1,1,-19
1523066079104100,-6,-7,1,4,5,-2,0,0
1523066079104100,3,-6,5,-11,3,-2,-3,1
1523066079106106,4,10,11,4,-12,-15,-13,-3
1523066079106106,9,-3,-9,1,3,3,-30,5
1523066079118402,-1,4,-5,-10,-4,2,1,-3
1523066079118402,-9,-1,7,4,-4,-21,-22,-12
1523066079127162,-3,0,2,3,6,23,53,5
1523066079127162,7,8,-5,-2,-15,-12,-7,3
1523066079142201,0,-7,-25,-22,-9,3,4,0
1523066079142201,-1,5,14,7,2,-13,-45,-15
1523066079143211,-6,-14,-22,-7,6,-5,-43,-2
1523066079143211,7,-8,13,7,2,1,32,2
1523066079164525,-6,4,18,9,4,12,21,6
1523066079164525,-3,-3,4,-6,-11,-13,-13,0
1523066079166265,-2,8,5,9,2,3,-28,-9
1523066079166265,1,-6,-19,-18,-3,5,36,6
1523066079177550,-2,-7,7,17,2,-4,-77,-15
1523066079177550,6,12,14,-3,11,7,35,11
1523066079186321,-8,-10,-4,-19,-17,-12,-5,-9
1523066079186321,2,-2,-11,-7,2,2,2,5
1523066079202396,-6,-10,-6,6,-9,-14,-27,-15
1523066079202396,3,-7,-16,28,16,15,42,9
1523066079203364,1,0,14,-7,-3,-3,-11,-1
1523066079203364,-7,-15,-11,-10,3,-3,-14,-5
1523066079224724,9,5,-11,-22,-4,2,9,9
1523066079224724,-16,-11,-65,11,-3,1,-9,-7
1523066079225422,1,11,32,6,-8,-6,5,-2
1523066079225422,-5,-7,-33,-2,-5,-6,-16,-5
1523066079237453,4,-1,-9,-10,-3,5,20,4
1523066079237453,3,9,14,-11,4,1,-2,-8
1523066079246765,-1,-12,-19,21,5,2,8,-5
1523066079246765,-5,-3,8,12,1,-4,-23,-2
1523066079261723,2,0,-19,-15,-10,-7,-2,1
1523066079261723,21,6,7,-13,-6,-3,-24,14
1523066079263526,-21,3,6,1,-3,-5,5,-18
1523066079263526,7,2,-17,-11,-1,4,-10,14
1523066079284840,-15,-4,30,15,4,3,19,-1
1523066079284840,4,-7,0,-2,-2,-3,-20,-2
1523066079285584,9,4,13,-2,2,1,1,3
1523066079285584,-4,-3,-34,-8,-7,-3,16,-12
1523066079298883,-3,-5,-12,-10,-4,-2,-5,-5
1523066079298883,-10,7,12,1,-3,-3,6,-4
1523066079306639,-8,-18,-5,9,0,-6,-20,2
1523066079306639,1,5,15,6,11,11,0,-2
1523066079321893,8,-1,0,-3,-2,2,6,4
1523066079321893,-9,-6,-1,-16,-8,-1,3,-1
1523066079323689,18,5,-12,0,0,1,4,-2
1523066079323689,1,-8,11,2,-3,-6,-1,1
1523066079343739,19,5,2,6,1,-3,-15,15
1523066079343739,-14,-3,-1,2,4,2,12,-10
1523066079345746,-2,3,2,-8,-1,0,15,6
1523066079345746,-3,-3,5,-3,-6,-8,-24,-12
1523066079358041,0,-3,-7,12,1,3,11,-4
1523066079358041,15,8,3,-24,-2,-2,9,2
1523066079366808,-14,-6,-6,-8,-2,-3,-29,-9
1523066079366808,0,9,23,20,-1,-4,1,-3
1523066079382105,-3,-10,-19,-8,-1,-1,-1,-5
1523066079382105,23,8,23,8,0,2,9,14
1523066079382843,-8,-18,-34,-4,-2,-1,0,-1
1523066079382843,-4,18,43,-9,0,0,12,-12
1523066079403898,-4,4,12,13,-3,-3,-10,-7
1523066079403898,-6,-9,-16,-8,-2,6,23,2
1523066079405906,13,1,-7,1,-2,-2,-3,10
1523066079405906,6,-10,-30,-28,-4,-2,10,12
1523066079418227,-43,-1,6,42,2,0,0,-31
1523066079418227,28,-6,-9,-7,2,6,16,-3
1523066079426960,-19,15,11,-11,-9,-11,-26,-20
1523066079426960,0,7,11,-28,2,10,55,8
1523066079441304,18,7,-8,1,-4,-1,1,4
1523066079441304,-73,-41,-24,-9,1,-2,-4,4
1523066079448315,16,5,30,12,1,1,-6,4
1523066079448315,-2,-4,-15,-2,-6,2,4,17
1523066079464351,3,2,-32,-1,4,-1,-1,-31
1523066079464351,7,6,26,12,2,0,-8,-3
1523066079466066,3,8,17,-4,1,-2,5,9
1523066079466066,-11,-23,-10,12,3,3,-8,5
1523066079478367,-2,8,-2,-16,-5,-2,2,8
1523066079478367,2,9,-9,6,-3,-7,-14,-3
1523066079487121,1,-10,-5,-16,-2,-1,1,-6
1523066079487121,6,1,-2,21,5,-2,-17,-7
1523066079502360,-2,-5,18,10,-4,-2,1,8
1523066079502360,3,8,-3,-6,-2,-2,0,-6
1523066079503162,16,3,2,-1,0,-1,10,18
1523066079503162,-29,-3,-10,-2,-3,3,4,-24
1523066079524537,1,-9,-7,-14,2,-1,10,11
1523066079524537,-1,9,18,33,-1,0,-17,-4
1523066079525224,0,-6,8,-36,-2,1,-25,7
1523066079525224,6,-3,-4,-5,-5,-8,-17,1
1523066079538256,1,5,10,10,0,-4,-14,-5
1523066079538256,1,-3,8,-1,1,4,63,4
1523066079547280,0,-1,-9,21,5,7,-8,-7
1523066079547280,3,5,4,-6,-9,-4,-11,0
1523066079561587,-2,-3,6,5,13,5,9,5
1523066079561587,1,-6,10,-22,-2,-2,-21,-4
1523066079568501,-3,2,-25,10,-11,-7,15,-5
1523066079568501,4,1,18,-2,12,-1,3,3
1523066079584644,5,0,6,12,9,9,7,7
1523066079584644,-1,1,-8,-2,1,-9,-13,-4
1523066079585382,-2,-5,-11,1,-3,4,7,0
1523066079585382,4,12,35,-2,-2,-13,-15,-2
1523066079598415,-2,-8,-41,-24,-8,5,5,4
1523066079598415,0,-1,9,13,11,3,-10,-1
1523066079606680,-6,2,-13,-9,-1,-4,6,-6
1523066079606680,1,-7,-5,4,-8,3,-3,-1
1523066079621477,0,0,39,5,-2,-10,-2,3
1523066079621477,-6,-6,-31,-13,-9,2,13,2
1523066079628536,-2,6,12,13,3,0,7,-2
1523066079628536,0,-7,-19,-3,-3,-4,-5,-2
1523066079644824,2,7,4,-15,-4,4,31,4
1523066079644824,-1,-4,9,17,1,3,-5,0
1523066079645547,-3,-2,0,-10,-1,-4,-2,-12
1523066079645547,23,5,4,7,7,2,12,9
1523066079657880,-2,-5,-5,-15,-11,-6,-23,3
1523066079657880,2,-2,-9,3,-1,-1,-20,-2
1523066079666780,-6,-3,1,-7,-4,0,13,1
1523066079666780,0,-5,-6,10,-3,-2,-2,0
1523066079681760,3,9,9,5,7,2,-1,-4
1523066079681760,-2,3,0,-12,-6,-2,-8,-4
1523066079687655,-1,-5,3,-8,5,-1,-8,2
1523066079687655,0,-2,3,27,0,3,-5,-3
1523066079703697,10,-7,-34,-15,-8,-10,-17,-1
1523066079703697,-6,11,26,1,-2,0,-22,-4
1523066079705704,4,6,0,-2,-5,-6,-19,-6
1523066079705704,-13,-4,9,-2,5,6,35,0
1523066079726758,-11,1,-3,-2,2,3,9,1
1523066079726758,7,5,-17,-24,-8,-7,-14,0
1523066079727760,-4,-7,9,25,2,2,6,1
1523066079727760,3,-7,-39,-32,-4,-3,-4,-9
1523066079741105,4,22,50,70,4,0,-4,-1
1523066079741105,-3,-3,26,-27,-7,-5,2,-1
1523066079748078,-19,-8,-48,-2,2,1,14,-15
1523066079748078,-3,4,32,-10,-8,-5,-24,-1
1523066079764143,-1,-5,4,-5,0,0,-3,0
1523066079764143,6,-1,-12,-20,-2,-2,12,-8
1523066079765862,8,-7,-18,29,2,2,-5,13
1523066079765862,1,5,2,2,0,-5,-30,-4
1523066079786918,-4,-8,-19,-31,-5,3,24,1
1523066079786918,-1,-2,9,22,-1,-1,-2,3
1523066079788064,2,5,8,-18,0,-3,-8,3
1523066079788064,-6,-2,0,44,1,-2,-6,-4
1523066079801223,0,-1,-2,-21,-1,1,-2,1
1523066079801223,2,-4,-24,-2,-2,-2,-14,-1
1523066079808241,-5,-6,9,-13,-1,3,12,2
1523066079808241,-4,-5,-6,-20,-1,3,2,1
1523066079824314,-3,-4,0,4,-5,-6,-4,-6
1523066079824314,-8,0,3,15,4,0,7,-7
1523066079826023,11,-9,3,-1,-6,-4,-4,18
1523066079826023,9,20,7,8,3,-1,3,0
1523066079847379,-8,-3,11,-4,-1,-1,-12,-2
1523066079847379,14,-10,-23,-12,0,2,4,7
1523066079848084,1,7,19,10,2,2,2,-3
1523066079848084,-3,-8,-19,1,-11,-8,-1,-1
1523066079860316,2,-3,6,-17,-4,-2,1,11
1523066079860316,7,7,-6,16,2,-1,3,-1
1523066079869138,-6,-4,-3,-4,-1,1,13,-5
1523066079869138,6,1,10,-1,2,0,-25,-3
1523066079884478,-3,-8,-17,-1,-4,-10,-37,-13
1523066079884478,-9,-8,-3,-4,-1,2,1,-3
1523066079886183,-8,8,16,-1,-3,-5,-6,4
1523066079886183,-5,-4,-20,-19,-2,0,14,0
1523066079907236,4,-16,7,17,0,-5,-21,-7
1523066079907236,-20,4,-24,-13,-1,0,-5,13
1523066079908244,18,6,12,7,1,0,3,8
1523066079908244,-5,-14,-13,-6,-4,-3,-9,-5
1523066079920272,-9,9,16,-5,-4,-5,-7,-7
1523066079920272,-1,-9,-9,-1,4,7,31,4
1523066079929297,-2,-1,-2,20,3,8,17,4
1523066079929297,-5,-8,-8,-26,1,1,4,-1
1523066079944337,9,9,-7,-12,-5,-1,14,-1
1523066079944337,0,-19,17,14,2,-2,-8,-1
1523066079945339,-6,5,-13,-30,3,4,22,-7
1523066079945339,2,-4,10,39,2,0,-7,0
1523066079966692,-13,-5,-1,-13,1,5,7,10
1523066079966692,12,9,7,9,-1,-2,33,-2
1523066079968402,3,-1,-19,-5,-5,0,-12,-3
1523066079968402,-2,8,14,-19,-2,-3,1,-1
1523066079980703,6,4,-15,18,3,5,6,1
1523066079980703,-5,-3,-8,8,7,2,-8,-2
1523066079989463,-8,-16,-14,-16,-17,-9,-16,-10
1523066079989463,-8,-2,-12,-7,-2,-2,6,2
1523066080004689,30,1,-11,-7,2,-1,-1,8
1523066080004689,-31,-4,13,-5,-9,-4,-4,-19
1523066080005499,-3,-2,-12,34,15,2,-4,-8
1523066080005499,1,2,5,-18,-4,-3,-4,3
1523066080026556,6,4,0,12,0,1,8,4
1523066080026556,5,2,-1,-5,0,0,-8,-2
1523066080028560,0,-4,8,-3,-11,-6,-4,-1
1523066080028560,8,3,-10,-5,1,0,4,0
1523066080040839,-8,5,30,-2,1,-2,-1,-6
1523066080040839,2,2,-15,4,-6,-6,-1,2
1523066080056838,-6,1,-23,-8,-1,0,-11,-4
1523066080056838,4,-5,9,-19,-6,-3,7,0
1523066080064917,-14,2,28,15,6,0,1,-7
1523066080064917,1,1,-7,-10,-3,-3,-26,-3
1523066080065658,9,4,-1,-1,-1,0,33,5
1523066080065658,-5,0,-15,-1,-4,4,-18,-1
1523066080086716,-7,-8,-12,6,2,-2,17,0
1523066080086716,-1,4,11,-8,-10,-9,-29,-2
1523066080088722,1,6,2,8,7,11,-11,1
1523066080088722,2,9,10,4,2,-2,13,2
1523066080100915,-10,-11,-26,-23,-8,0,0,-5
1523066080100915,5,5,13,3,0,-6,-4,-1
1523066080109775,-2,-2,0,0,7,2,-8,-4
1523066080109775,-6,-13,-2,5,0,-2,-3,-2
1523066080132096,1,-5,-10,1,-13,4,-7,-1
1523066080132096,3,12,35,6,0,-2,-8,0
1523066080132838,-1,-2,6,-9,-4,-7,-11,-5
1523066080132838,-5,-2,-14,11,12,9,19,0
1523066080147183,-1,-6,-12,-16,-5,-5,-15,-3
1523066080147183,-20,-11,-27,-3,-6,-1,18,2
1523066080147882,14,-2,0,-13,-8,-5,-7,-11
1523066080147882,0,4,11,13,3,-3,-9,-4
1523066080161052,-7,-6,-12,8,9,-5,-20,-2
1523066080161052,2,-8,-14,13,4,18,24,5
1523066080168936,0,2,-3,-7,-3,-10,-14,-3
1523066080168936,-1,-3,-10,-14,-11,-5,8,-2
1523066080184275,0,0,-5,3,8,7,8,1
1523066080184275,0,13,11,-6,2,-4,4,1
1523066080185978,-9,-11,9,7,-3,-2,0,3
1523066080185978,0,-1,-19,-3,-7,-4,-21,-6
1523066080207300,-1,7,41,-7,0,1,9,1
1523066080207300,2,-9,-14,-5,0,0,-12,0
1523066080208043,-1,4,-4,5,4,0,3,0
1523066080208043,-5,1,4,6,7,7,4,4
1523066080220068,5,1,12,9,-2,-7,-7,0
1523066080220068,-3,-9,-2,-19,-5,-5,-13,-4
1523066080229094,-1,-7,0,6,-1,1,24,6
1523066080229094,-9,-11,-34,-15,-12,-9,-22,-9
1523066080244420,5,6,-7,0,1,-1,5,-2
1523066080244420,2,4,8,17,4,6,0,-1
1523066080246141,-6,1,9,-3,-5,-9,-18,0
1523066080246141,-16,1,2,-3,1,1,17,-23
1523066080267397,-1,-1,5,1,-2,-4,-37,0
1523066080267397,-3,-4,-28,-27,-11,-4,17,-5
1523066080268203,-2,2,-1,-10,-5,-4,-8,-3
1523066080268203,7,-6,30,40,17,12,0,14
1523066080280516,-4,-5,-27,-21,-5,-4,7,-4
1523066080280516,-1,10,50,15,8,7,2,-1
1523066080289254,1,-14,-29,-16,-6,-4,-1,-2
1523066080289254,11,8,27,-2,-3,-6,-10,1
1523066080304501,-11,0,-4,1,6,5,24,-4
1523066080304501,-1,-5,-19,-2,-4,-7,-13,-1
1523066080305298,-3,-4,4,-2,-1,1,34,4
1523066080305298,9,13,12,2,2,0,-17,3
1523066080326669,7,-9,-9,-2,-5,2,36,4
1523066080326669,3,14,8,4,2,-1,7,0
1523066080328360,-5,-1,3,8,5,3,-16,-4
1523066080328360,-3,-6,-21,-23,-13,-4,7,-1
1523066080340646,0,-13,-32,-18,-12,-7,-16,14
1523066080340646,-8,0,4,9,2,-1,-4,-24
1523066080349416,5,4,13,7,8,11,53,14
1523066080349416,-2,8,17,8,1,0,29,7
1523066080364719,-9,-7,-11,-7,-3,1,-26,-5
1523066080364719,2,-1,7,0,-1,-2,21,7
1523066080365463,-5,-7,-5,-5,-1,-4,-25,-9
1523066080365463,-6,6,14,2,-4,-5,-10,-9
1523066080386514,0,-1,-11,9,4,-3,0,-5
1523066080386514,0,-16,-21,-5,1,-1,-11,0
1523066080388522,-1,11,25,-6,-4,-2,-21,-5
1523066080388522,2,-4,5,-6,-7,-4,-2,5
1523066080409728,-5,-2,-16,-8,-5,-3,0,-4
1523066080409728,-17,-1,-31,4,2,1,-18,-11
1523066080410578,23,-1,8,-13,-2,0,16,26
1523066080410578,2,3,22,15,0,-1,6,-4
1523066080424880,-1,9,6,15,0,-2,-5,-6
1523066080424880,2,-1,2,-9,-4,-6,-23,2
1523066080425619,-1,-8,-10,-4,-1,1,6,1
1523066080425619,-5,-5,-13,-9,-1,1,21,2
1523066080446977,3,2,10,-1,1,2,7,-9
1523066080446977,14,-4,-6,-6,0,5,38,18
1523066080448678,-10,10,4,17,0,-4,-24,-6
1523066080448678,20,-2,-9,4,2,0,-26,1
1523066080468734,-14,-11,-8,-12,-1,-2,34,-17
1523066080468734,10,4,15,5,-2,-5,0,1
1523066080470738,-7,4,11,-20,2,-1,-2,-8
1523066080470738,-2,-13,-23,-4,-11,-3,1,-3
1523066080484042,9,19,20,28,4,1,-3,4
1523066080484042,19,-3,7,17,-5,-6,-16,14
1523066080491057,16,2,-28,-14,0,4,9,-16
1523066080491057,-15,21,16,20,9,-1,-15,-1
1523066080507143,2,-15,6,-30,-19,-5,-11,5
1523066080507143,-24,-22,-9,12,3,-1,3,1
1523066080507837,11,1,0,16,-1,0,-5,4
1523066080507837,-17,-4,18,-11,-1,0,3,-6
1523066080529157,4,-19,11,13,17,5,-4,3
1523066080529157,5,23,9,0,-3,1,-6,-14
1523066080530899,-19,-21,-28,-13,-6,-3,-8,2
1523066080530899,-5,-12,-6,-2,-3,2,4,-2
1523066080544106,-31,2,18,8,2,4,2,1
1523066080544106,9,-14,-30,-22,-5,-2,-10,0
1523066080551066,-40,22,-9,10,-1,-1,-2,-15
1523066080551066,14,-7,11,-2,-4,-4,-2,7
1523066080567254,13,8,-16,-11,7,0,5,2
1523066080567254,-2,-17,9,14,2,-5,-19,7
1523066080567997,9,3,1,1,-4,-1,-19,3
1523066080567997,-1,-7,-24,-17,-6,-5,-21,-16
1523066080581035,-1,13,-3,-30,-5,-3,7,-1
1523066080581035,-12,2,-4,46,7,5,10,-4
1523066080589296,3,-1,15,-3,-6,0,6,0
1523066080589296,-3,-4,-4,-16,-2,-3,-11,1
1523066080603089,2,-3,-10,16,2,1,0,-1
1523066080603089,4,4,-2,-33,-7,-4,-17,-8
1523066080612114,3,-5,9,8,7,3,10,-1
1523066080612114,2,-4,-7,1,1,0,1,7
1523066080627264,3,7,-14,3,-3,-3,-3,3
1523066080627264,1,-2,-17,-9,-4,1,-11,-1
1523066080628161,-14,3,5,1,-4,-4,-14,-7
1523066080628161,-2,-5,15,0,2,-2,3,-4
1523066080640439,2,0,9,8,7,-1,3,3
1523066080640439,-8,-1,-13,-7,1,10,7,-1
1523066080649212,4,-5,14,2,-4,-4,5,2
1523066080649212,0,-10,-64,-16,-12,-2,-7,1
1523066080664507,0,-6,8,4,0,1,-6,-1
1523066080664507,0,9,34,6,1,-6,14,-2
1523066080670269,2,-8,-16,-14,-7,0,-3,4
1523066080670269,-2,7,4,6,2,1,17,1
1523066080687504,0,-2,12,9,-5,-3,-16,-1
1523066080687504,-4,-3,-18,-17,-1,2,13,-1
1523066080688315,0,-7,-6,2,7,-1,-6,-2
1523066080688315,24,6,26,-1,-1,2,-13,16
1523066080709610,-6,15,7,-4,-3,5,15,-5
1523066080709610,2,-13,-2,3,-5,-5,7,1
1523066080710376,4,19,32,2,2,-6,-22,-5
1523066080710376,-3,-10,-30,8,1,-3,8,1
1523066080723636,5,2,12,1,1,2,-10,4
1523066080723636,-6,-2,4,-6,-7,-6,-10,-7
1523066080730720,5,6,-11,-5,-2,-4,-1,6
1523066080730720,-11,-9,7,31,11,11,10,-6
1523066080746757,-1,-3,-34,-28,-18,-15,-24,-8
1523066080746757,-6,-1,2,0,9,5,-6,0
1523066080748477,-29,-19,4,11,3,-4,4,4
1523066080748477,15,19,16,7,0,4,20,4
1523066080769535,-21,-7,0,-3,-3,-2,-21,-12
1523066080769535,5,7,-5,-9,-6,-4,20,2
1523066080770588,2,-13,-40,6,9,10,9,0
1523066080770588,-7,-1,5,-7,-3,-5,-17,-7
1523066080783873,2,7,48,9,-5,-6,-8,-2
1523066080783873,6,6,-8,-12,-2,-1,4,8
1523066080790832,3,1,16,1,0,2,-7,-5
1523066080790832,-7,-1,-8,1,-3,0,18,-1
1523066080806933,4,-8,-13,0,7,1,-1,-1
1523066080806933,18,0,9,0,-2,2,8,18
1523066080808638,-14,-2,-15,-8,-8,-4,-8,-17
1523066080808638,-3,-4,2,-4,2,2,-1,0
1523066080829973,4,-2,1,3,0,3,15,7
1523066080829973,0,-5,3,8,0,-5,-19,-4
1523066080830698,-1,9,31,4,-2,-2,0,0
1523066080830698,1,-1,-27,-14,-9,-8,-18,-9
1523066080842727,-6,-16,-8,4,4,5,4,-2
1523066080842727,-7,3,15,-4,1,-1,0,-9
1523066080851753,12,-11,-25,-3,-5,1,0,1
1523066080851753,-10,1,10,-11,-1,-4,2,-13
1523066080867055,-2,0,-16,14,-2,0,-5,0
1523066080867055,-3,-2,8,1,2,2,36,-1
1523066080867799,-4,-6,1,-9,-3,-2,-19,2
1523066080867799,7,2,-11,3,-2,-1,0,6
1523066080889089,0,-8,-14,-10,-5,2,-4,-1
1523066080889089,-7,-14,-3,2,-2,-2,9,-4
1523066080890857,5,20,3,0,1,-4,-18,-5
1523066080890857,-15,-5,-8,-6,-1,5,39,-8
1523066080902886,5,5,-2,0,-5,-7,-12,0
1523066080902886,-5,-2,-4,-22,-4,-1,-19,-4
1523066080911913,-2,-13,-8,5,-5,-2,11,-2
1523066080911913,2,-2,6,22,15,4,-13,6
1523066080926950,-4,-4,-5,-23,-11,-5,12,-2
1523066080926950,7,7,1,5,2,0,8,-4
1523066080927952,-3,-5,-5,-14,-2,1,-1,3
1523066080927952,-3,-3,18,12,1,-1,1,-1
1523066080949269,-2,-2,-13,5,4,2,-4,-4
1523066080949269,16,-1,-20,-3,1,4,13,4
1523066080951014,-10,-4,4,1,3,4,-16,14
1523066080951014,36,4,-6,-1,-4,-6,-14,20
1523066080963299,-17,7,9,1,3,5,18,-14
1523066080963299,-4,-1,6,6,-5,-4,-15,2
1523066080972072,2,-9,-1,3,0,-3,3,9
1523066080972072,13,25,7,-10,-5,-2,1,0
1523066080987110,-4,-12,-15,-1,3,2,29,9
1523066080987110,-12,2,20,0,-2,-5,-52,1
1523066080988117,15,-1,18,7,1,3,28,-3
1523066080988117,-27,3,-27,-16,-7,-4,-8,-12
1523066081009371,5,0,6,16,2,-2,-33,1
1523066081009371,-6,-10,-19,3,5,3,-2,-9
1523066081011175,5,8,37,-33,-2,-3,-5,-8
1523066081011175,-8,-12,-21,28,4,-2,-8,-4
1523066081023473,3,-8,7,11,-5,-1,4,0
1523066081023473,2,-11,-23,-21,-4,-4,-4,-9
1523066081032231,37,14,12,23,7,2,-6,9
1523066081032231,-59,-5,-7,20,6,2,-5,-39
1523066081047271,4,-5,-11,-46,-16,-11,-5,10
1523066081047271,-9,-3,31,31,10,6,-4,0
1523066081048277,4,5,-27,-45,-11,-8,11,1
1523066081048277,15,9,62,0,8,1,-2,5
1523066081069331,0,-1,-8,21,13,3,8,-3
1523066081069331,-11,-4,-27,25,-10,-4,0,-6
1523066081070534,-9,-3,-2,-2,-4,-5,-2,-6
1523066081070534,2,-5,-3,-18,-1,-1,0,10
1523066081083627,-4,3,-3,-24,-6,-1,-13,-2
1523066081083627,9,16,17,-15,1,-2,10,4
1523066081091618,-8,-8,-35,20,-4,0,-2,-4
1523066081091618,9,-7,-26,-11,-4,-2,10,3
1523066081106697,6,-21,-16,9,8,4,-5,3
1523066081106697,-40,2,-6,-16,-4,1,1,-12
1523066081108439,-6,-4,8,15,-5,-3,-20,-4
1523066081108439,-11,-6,9,-6,-6,-2,23,8
1523066081129692,28,7,-6,-17,0,3,13,16
1523066081129692,-1,0,16,17,4,-2,16,-5
1523066081130492,-5,-1,4,1,0,1,-16,6
1523066081130492,7,-3,-21,-26,1,4,-9,3
1523066081143536,6,7,14,28,0,-3,-3,3
1523066081143536,2,3,7,-13,-8,-7,-15,-7
1523066081151547,-1,-2,-2,8,6,0,15,3
1523066081151547,9,-5,4,1,0,0,2,4
1523066081166848,-10,7,5,-6,-3,-3,13,-6
1523066081166848,8,-1,-2,-1,-1,-3,-31,0
1523066081168597,-7,0,-20,-7,-2,0,9,-7
1523066081168597,0,0,9,-6,-18,-6,-6,0
1523066081189953,-6,5,18,11,5,7,5,-4
1523066081189953,2,-2,0,4,3,-3,5,0
1523066081190654,4,-2,12,-9,5,-1,13,-1
1523066081190654,-1,-5,-9,-6,-5,-4,-20,-3
1523066081202682,-5,1,8,13,-7,-5,-1,-4
1523066081202682,8,11,5,-21,-5,-3,7,3
1523066081211710,-5,-3,16,16,-3,-8,-20,-7
1523066081211710,-1,1,-1,-6,-5,-3,-12,-1
1523066081226949,-7,-6,-15,1,11,7,0,-4
1523066081226949,5,-13,-35,1,5,5,12,6
1523066081227754,0,6,39,5,-4,7,4,2
1523066081227754,-2,2,-1,-3,4,1,1,-2
1523066081249890,3,6,19,6,4,-10,3,6
1523066081249890,-4,-14,-37,-20,-6,13,15,-3
1523066081250815,-3,1,5,7,0,-7,-6,-6
1523066081250815,2,2,6,15,4,3,9,-3
1523066081263122,0,6,12,-3,3,3,11,6
1523066081263122,2,0,-3,-8,-7,-10,7,1
1523066081271872,-3,0,-12,-8,-4,0,-1,-2
1523066081271872,5,-4,-13,-2,3,-3,-1,0
1523066081287132,-1,-6,12,10,3,-1,-4,-6
1523066081287132,-4,0,-7,-5,1,-1,-5,-2
1523066081287912,3,2,2,3,6,6,12,0
1523066081287912,-2,-8,-39,-25,-16,-13,-13,-1
1523066081309163,-3,-6,0,-4,-5,-4,-16,-10
1523066081309163,6,1,-3,2,2,5,-15,15
1523066081310975,0,-1,17,14,7,1,-11,-2
1523066081310975,-4,5,8,-12,-2,-8,-12,-7
1523066081323248,6,0,-16,1,-8,2,5,8
1523066081323248,-10,-5,9,6,-1,-5,-6,-9
1523066081332031,-3,-5,-21,-6,-3,-2,25,-2
1523066081332031,0,4,12,-8,4,4,4,2
1523066081347349,-16,-11,-63,-19,-16,-12,-24,-15
1523066081347349,4,-4,15,11,1,0,1,-1
1523066081348075,-4,6,2,0,3,3,8,-2
1523066081348075,0,-6,-3,5,-1,-1,2,-1
1523066081369125,-3,5,0,-2,8,4,-5,1
1523066081369125,-4,-3,9,-8,1,0,-10,-2
1523066081371136,2,-6,-13,-14,-11,-7,-14,-4
1523066081371136,-3,0,16,23,2,2,18,7
1523066081383430,8,3,6,-9,0,-2,-8,-3
1523066081383430,2,8,18,8,0,-3,9,-2
1523066081392189,-2,-10,-23,-17,-2,4,-1,1
1523066081392189,1,-7,-12,-3,-2,-1,-13,-2
1523066081406556,-1,1,5,2,-5,-1,0,-1
1523066081406556,-18,-3,4,-6,-3,-3,-16,-21
1523066081413501,-13,-16,-15,1,-2,0,12,-1
1523066081413501,-2,8,5,10,3,2,19,0
1523066081429569,0,3,23,-2,1,0,-3,3
1523066081429569,5,-2,-8,0,-2,2,15,8
1523066081430293,-5,2,-7,-5,-2,-3,-6,-2
1523066081430293,-2,1,18,13,1,3,2,-3
1523066081443602,5,-6,-5,-14,-4,-5,17,16
1523066081443602,11,11,-12,3,-1,-4,-33,-7
1523066081451348,-11,-3,-4,3,-3,-4,-10,-4
1523066081451348,22,-8,-12,-25,-1,2,5,5
1523066081466680,-8,-2,-2,7,3,0,5,-7
1523066081466680,9,2,-4,-7,-6,-5,-11,2
1523066081473610,-20,-11,-10,8,-5,-7,-35,-5
1523066081473610,27,3,0,7,2,4,1,30
1523066081489702,-32,-8,4,-31,0,-5,-13,-15
1523066081489702,28,16,12,26,1,1,10,6
1523066081490456,-67,-9,-19,-4,-2,0,7,-11
1523066081490456,5,-1,1,10,8,-3,11,-5
1523066081502488,5,-9,2,-20,1,3,-5,4
1523066081502488,15,-8,16,9,-7,2,24,1
1523066081517528,-3,10,-1,-15,-5,-1,4,4
1523066081517528,-16,-8,20,18,11,3,1,-8
1523066081525767,-5,12,-6,25,-1,1,20,4
1523066081525767,-4,-10,1,-23,-4,-6,-5,-4
1523066081533577,31,15,32,-11,1,1,7,4
1523066081533577,-24,-17,-60,18,-6,-3,-12,-11
1523066081549861,23,-12,-20,-5,-4,-2,0,-4
1523066081549861,-7,29,44,-6,4,2,-3,4
1523066081550611,24,2,21,27,-2,-1,4,2
1523066081550611,-3,1,11,-24,-4,-6,-16,-4
1523066081562924,0,9,0,-8,2,0,11,2
1523066081562924,-11,-14,-14,27,4,7,9,5
1523066081571670,6,2,2,-7,-6,-11,-7,-8
1523066081571670,-5,1,-3,-9,0,3,-20,-1
1523066081585704,-2,-6,2,5,-8,-1,3,-6
1523066081585704,-7,-1,-4,-15,-2,-6,-1,0
1523066081592723,17,-1,-5,3,7,-4,-7,-2
1523066081592723,1,-2,-1,-2,-13,-1,14,6
1523066081608768,3,4,2,7,0,0,11,1
1523066081608768,-9,-14,-23,-10,-3,-1,8,-2
1523066081610774,11,2,-12,2,6,5,-10,3
1523066081610774,-8,0,21,-10,-6,-5,-4,-8
1523066081632055,-5,7,-4,24,0,-9,-16,-4
1523066081632055,-1,-2,8,-2,5,7,14,-2
1523066081632832,-3,2,-14,-1,2,-2,-16,-4
1523066081632832,-2,-9,-6,-13,-7,-6,33,0
1523066081646133,8,8,16,2,1,12,3,2
1523066081646133,-5,-4,-10,10,9,-5,-14,1
1523066081652931,5,-6,-30,-9,4,0,-3,2
1523066081652931,-4,8,51,-2,-5,-6,-13,-3
1523066081668926,-1,-6,-32,0,-3,-5,-8,-2
1523066081668926,-6,-12,-21,-10,-7,0,8,1
1523066081670933,0,-9,24,1,-4,5,14,0
1523066081670933,0,10,-9,3,8,-6,-24,-9
1523066081691987,-1,2,23,7,-5,4,10,3
1523066081691987,-3,2,17,-3,-14,4,-8,0
1523066081692988,2,-8,-17,2,4,-1,-1,0
1523066081692988,-1,4,-1,3,1,2,-7,-2
1523066081706272,0,0,13,0,-1,-5,-23,-2
1523066081706272,-2,-9,-25,-16,-3,-1,-5,1
1523066081713318,4,15,32,-7,-5,2,2,3
1523066081713318,-5,-8,-11,2,-3,0,5,-3
1523066081729357,-6,-3,-9,7,-1,-6,-9,-7
1523066081729357,2,3,2,13,2,0,14,4
1523066081731092,7,1,13,-2,-5,-5,-7,-4
1523066081731092,2,0,-9,-11,-1,4,20,5
1523066081751146,-3,-7,-11,-14,0,0,-11,-4
1523066081751146,-5,-4,-7,-10,-8,-9,-12,-6
1523066081753150,-1,-9,-35,2,5,0,7,1
1523066081753150,3,10,47,16,5,1,-10,2
1523066081765436,-3,-8,-4,-15,-3,0,-1,-3
1523066081765436,1,0,-2,7,-5,-4,1,-1
1523066081774208,-7,-7,-5,-21,-1,2,-9,-4
1523066081774208,-3,-6,-11,20,-3,-5,-16,-7
1523066081797407,0,5,12,-6,1,-2,5,4
1523066081797407,-1,-1,-4,2,4,4,-2,-3
1523066081798271,1,-6,-6,-4,-3,5,42,8
1523066081798271,4,18,11,2,0,-2,2,-3
1523066081812384,11,1,2,-3,0,-2,-17,-1
1523066081812384,-7,-11,-7,-15,-4,-5,7,-3
1523066081813311,2,2,25,7,0,1,-8,0
1523066081813311,10,2,-24,6,2,-1,-7,6
1523066081825543,-11,-9,-23,-17,-4,-2,8,-4
1523066081825543,9,26,46,23,7,1,3,1
1523066081834368,-6,-6,-2,-12,-5,-3,0,-5
1523066081834368,-5,-11,-24,-17,-2,0,-7,-2
1523066081849681,4,10,3,12,0,-3,-10,-1
1523066081849681,-6,-28,-22,-10,3,2,12,1
1523066081851412,3,17,19,15,-1,2,-4,5
1523066081851412,-7,-8,-11,-8,-2,-2,-10,-6
1523066081871720,13,-11,-15,-13,-5,-2,-7,-2
1523066081871720,-33,8,-1,-14,-2,-3,-26,-31
1523066081873475,2,5,13,23,0,1,36,-1
1523066081873475,11,-5,-26,-8,-2,-1,-33,21
1523066081885502,6,-2,12,-2,-3,-6,-20,-5
1523066081885502,21,6,-27,-1,1,0,-27,8
1523066081894528,-35,-20,-26,4,-4,-6,-13,-11
1523066081894528,-7,3,26,-1,-3,-6,-7,-11
1523066081909815,-13,9,1,2,3,1,3,-10
1523066081909815,10,-2,-7,5,3,2,16,14
1523066081910571,2,7,-17,-21,-4,3,-7,-16
1523066081910571,-7,-17,7,5,6,0,-7,-5
1523066081931863,0,7,18,0,-5,6,36,10
1523066081931863,-26,-4,8,6,-2,2,-2,-1
1523066081933635,6,-4,-28,-4,-2,-6,-13,8
1523066081933635,-14,0,7,13,7,2,14,-28
1523066081945811,-4,-9,-8,-29,-12,-4,-12,2
1523066081945811,9,10,11,17,-6,-8,-3,2
1523066081954685,23,8,13,10,5,4,-13,6
1523066081954685,0,0,-7,2,5,5,13,4
1523066081968724,-8,-12,-12,4,-5,-3,4,4
1523066081968724,12,9,7,19,4,-2,3,-2
1523066081970728,19,-20,-8,-4,-10,-10,-7,17
1523066081970728,-20,16,-36,-30,-8,2,17,-1
1523066081992034,0,2,22,24,10,2,1,-2
1523066081992034,-2,-13,-13,-30,-11,-6,-11,-4
1523066081992788,7,18,39,7,8,-1,-2,-11
1523066081992788,-4,-12,-15,26,-5,-3,5,6
1523066082006039,-1,1,-2,-3,0,1,-8,4
1523066082006039,-1,-4,-7,1,0,0,0,-4
1523066082014095,-8,-7,-4,-20,-3,-3,4,-1
1523066082014095,10,6,29,3,-3,-1,1,13
1523066082029160,-4,7,2,15,4,-9,-43,-20
1523066082029160,-4,-3,12,-3,5,4,19,10
1523066082030890,1,-15,-20,-2,-2,4,10,-5
1523066082030890,5,19,10,-17,-6,-5,-13,2
1523066082051942,-6,-6,0,4,1,1,3,7
1523066082051942,14,-5,-22,-4,3,-14,-26,7
1523066082053118,-10,-1,-6,-11,-5,11,13,0
1523066082053118,3,-10,-7,-1,-2,0,20,-2
1523066082066067,1,3,7,11,2,1,7,-3
1523066082066067,5,7,11,-21,-4,-4,0,-1
1523066082074002,-13,-9,4,19,-1,-4,-5,-2
1523066082074002,-2,-9,-4,-19,-6,-4,-9,-9
1523066082088305,-2,-2,6,13,7,7,13,5
1523066082088305,-2,-2,5,-17,-9,-2,-7,-4
1523066082097066,1,4,-13,1,-1,-12,-14,-1
1523066082097066,-1,1,3,0,1,15,9,-4
1523066082112369,2,1,10,2,21,1,-3,3
1523066082112369,-5,-7,-25,-6,1,4,-11,-8
1523066082113107,-8,-1,-4,-12,-19,-10,7,-3
1523066082113107,0,-6,-7,5,4,-8,-23,-4
1523066082125335,0,-6,-10,-9,3,3,35,7
1523066082125335,4,6,7,14,5,10,10,-2
1523066082134163,-2,4,-2,1,7,-3,-11,-3
1523066082134163,1,-4,4,-3,-7,-6,-2,1
1523066082149477,0,-15,-31,0,-5,3,2,-1
1523066082149477,-1,4,28,-7,2,-2,-5,-2
1523066082151211,0,4,-17,0,-9,0,5,0
1523066082151211,-1,-1,5,-1,-4,-1,6,2
1523066082171573,-5,-5,-23,-6,-6,-4,-9,-5
1523066082171573,-3,-9,-5,6,1,7,10,0
1523066082173268,-5,2,10,5,4,0,-21,-2
1523066082173268,1,2,-4,-5,4,-7,-15,-2
1523066082185299,-8,-7,8,22,2,9,20,1
1523066082185299,-8,-12,-17,-11,-6,-4,4,-2
1523066082194327,-5,-3,-12,-17,-10,-11,-30,-7
1523066082194327,-1,-12,-20,-6,6,5,14,4
1523066082209634,6,14,29,-1,-10,-9,-22,0
1523066082209634,0,7,-8,25,10,6,4,0
1523066082210366,-2,-5,14,0,0,-6,-28,-7
1523066082210366,-3,-6,-22,-32,-12,-1,7,0
1523066082231725,0,4,3,13,2,0,7,-3
1523066082231725,-3,5,9,5,-10,-7,0,-8
1523066082233426,15,3,0,1,4,3,22,9
1523066082233426,2,3,7,8,-7,-5,1,3
1523066082245731,-10,0,-17,-8,-4,-1,-4,-8
1523066082245731,10,1,36,-3,-1,-5,-13,-2
1523066082254489,2,4,6,-4,3,9,30,1
1523066082254489,-3,-10,-19,-5,-9,-1,20,0
1523066082268522,5,3,-19,-21,-5,-5,4,-2
1523066082268522,-8,-8,-2,5,-2,1,-7,-2
1523066082275697,-2,-2,-1,-13,2,2,6,1
1523066082275697,0,2,23,11,4,1,-9,-2
1523066082291786,7,3,-37,-15,-4,-3,-2,-1
1523066082291786,-5,-13,-4,1,-5,3,9,4
1523066082293589,0,3,-4,2,4,2,-7,0
1523066082293589,-5,-4,3,7,2,-1,2,-3
1523066082305872,21,13,11,-11,-6,3,9,29
1523066082305872,0,3,-5,-3,0,-7,6,-11
1523066082314645,4,-5,8,21,1,12,1,-5
1523066082314645,-17,-20,-10,-8,2,-3,3,25
1523066082328680,-15,2,5,8,-1,1,0,-6
1523066082328680,17,9,-3,-31,3,3,2,5
1523066082335700,20,13,-23,27,-16,-11,5,0
1523066082335700,-26,-13,18,-9,14,-1,-33,-12
1523066082351741,-4,-3,26,12,-6,-10,-19,-11
1523066082351741,8,2,-18,-30,-11,-6,-6,10
1523066082352746,4,14,19,47,19,2,7,-2
1523066082352746,26,-21,-17,-92,-26,-4,-4,-4
1523066082366048,-14,1,0,59,-7,-2,-20,-4
1523066082366048,-3,15,23,60,3,-2,5,-9
1523066082374066,-9,-32,4,-6,2,0,-8,8
1523066082374066,7,12,-20,3,-12,-8,-13,-9
1523066082389095,2,-3,-10,-57,12,3,11,-2
1523066082389095,16,-5,22,-2,-7,-1,-9,4
1523066082396091,-11,1,-5,-4,-2,2,1,-4
1523066082396091,12,2,6,18,8,5,15,1
1523066082412153,-9,10,22,-13,-7,-2,-5,-5
1523066082412153,-11,-13,1,20,5,3,25,1
1523066082412905,-16,-11,-32,-27,-9,-2,-2,-2
1523066082412905,7,16,17,48,16,6,15,3
1523066082424937,-2,-18,-2,-10,-2,-6,-2,-6
1523066082424937,-2,-7,-16,3,10,4,12,8
1523066082433964,25,10,25,-10,2,10,6,1
1523066082433964,-8,4,-5,-1,-10,-3,32,0
1523066082449265,4,-3,-8,4,4,3,26,5
1523066082449265,-12,-7,-11,-18,-6,-8,-15,-6
1523066082456019,-31,-8,12,-8,0,-2,-23,0
1523066082456019,24,33,-5,27,7,3,-19,-9
1523066082472360,-5,5,1,-7,2,-2,-1,2
1523066082472360,5,2,-20,9,-11,-2,-10,-3
1523066082473066,-11,4,5,-45,-6,-9,-1,-1
1523066082473066,-5,-1,37,30,13,6,3,-2
1523066082485097,2,-5,-2,25,-2,-2,-9,-4
1523066082485097,-10,3,-9,-20,-4,-3,-21,-9
1523066082494124,2,-8,-17,15,8,7,43,7
1523066082494124,-10,-6,-4,-7,-2,-7,-6,-4
1523066082509214,10,4,0,-24,-21,-3,-4,-1
1523066082509214,-7,-7,3,1,6,1,-1,0
1523066082515429,-2,-4,-5,7,-1,-3,-8,-5
1523066082515429,-3,-13,-21,-7,-2,-2,-10,-6
1523066082531493,-8,1,14,9,4,-2,0,1
1523066082531493,-2,-3,-18,-4,0,-9,-3,-2
1523066082539242,0,2,2,-12,-4,6,1,-4
1523066082539242,-6,2,7,-1,-1,-4,-4,0
1523066082545559,1,-6,-12,-2,-17,-8,-15,-4
1523066082545559,-3,0,5,-6,6,16,10,4
1523066082554283,4,2,8,9,5,-6,-6,-2
1523066082554283,-4,-1,-6,4,0,10,3,0
1523066082567317,0,-7,-11,-18,-2,-8,-2,-2
1523066082567317,0,1,-5,-5,-3,-6,-9,-2
1523066082576620,-2,-2,17,11,-5,0,2,2
1523066082576620,-2,2,-1,-2,8,1,-2,-2
1523066082591380,-1,-10,-37,4,4,3,-2,-1
1523066082591380,-5,-2,17,-14,-6,0,1,-2
1523066082593388,-1,1,-47,6,-6,-12,-45,-10
1523066082593388,-9,-21,-10,-15,-18,-4,2,0
1523066082614749,7,14,20,2,5,0,-17,0
1523066082614749,-5,-9,-19,-15,-3,-4,3,0
1523066082615448,-1,3,7,14,0,-6,-10,-3
1523066082615448,11,8,19,12,11,10,16,11
1523066082628573,-1,6,31,2,6,5,8,-1
1523066082628573,1,-4,-14,-8,-7,-6,-11,-5
1523066082636765,2,0,16,-1,1,-9,-7,-2
1523066082636765,-6,11,-13,-3,-8,0,-8,-6
1523066082651537,9,-7,1,-5,0,4,27,11
1523066082651537,-10,2,10,8,6,4,5,2
1523066082653545,-1,-1,-4,-8,0,2,1,-3
1523066082653545,-2,-7,1,3,-4,-5,-5,-3
1523066082674856,0,4,34,0,-6,-6,-8,-4
1523066082674856,5,5,-5,9,8,1,-4,1
1523066082675608,-2,-9,-23,-23,-8,1,8,2
1523066082675608,-2,1,24,-10,-4,-4,-21,-5
1523066082687903,-9,-9,-43,-35,-3,1,8,-2
1523066082687903,5,4,21,53,4,0,-32,-1
1523066082696766,1,0,22,-15,-1,-1,-3,-3
1523066082696766,-1,11,4,-18,-9,-5,-1,-2
1523066082711952,-7,-10,4,10,9,2,0,-2
1523066082711952,1,-2,9,4,-3,-2,4,1
1523066082712704,-1,-2,-20,-11,-4,-2,2,-1
1523066082712704,-1,2,2,12,4,-1,-3,-1
1523066082733761,-2,-3,1,4,-2,-4,-12,-5
1523066082733761,-2,-7,-5,0,1,0,32,-2
1523066082735767,1,7,2,2,-2,1,4,3
1523066082735767,1,-10,-20,-11,-5,-11,-15,-4
1523066082748831,1,5,10,14,-1,0,-1,1
1523066082748831,-3,7,-3,-7,1,1,-11,-5
1523066082756823,-2,3,-13,-13,-2,-1,45,8
1523066082756823,-13,-13,-9,0,0,-2,0,-14
1523066082772076,-27,-2,-10,21,1,2,31,-3
1523066082772076,1,16,25,-8,-4,-3,7,-1
1523066082772863,5,0,-3,2,1,2,-40,3
1523066082772863,-1,-6,-11,7,1,-2,-41,2
1523066082793919,0,-10,-16,-10,0,4,12,-2
1523066082793919,-13,4,5,-16,-5,-4,-22,-1
1523066082795925,38,-6,10,8,2,4,46,18
1523066082795925,1,-3,-1,7,-2,-2,6,5
1523066082808225,1,-3,-20,-14,-5,-4,-8,-6
1523066082808225,8,-5,-5,-1,4,4,8,6
1523066082816983,-27,3,-9,12,-4,-7,-15,-6
1523066082816983,-6,-8,-17,-3,5,6,11,-1
1523066082832272,8,16,29,-13,-5,-8,11,-6
1523066082832272,-17,-8,6,9,1,7,31,0
1523066082833023,4,-2,-11,-8,-2,-6,-23,-1
1523066082833023,-6,1,-10,28,3,-11,-53,-1
1523066082854332,0,1,-3,1,5,14,55,5
1523066082854332,-30,-29,-33,-28,-10,-4,1,-4
1523066082856084,-3,5,13,-8,-5,-3,-9,-2
1523066082856084,14,-4,2,-12,-1,7,16,19
1523066082868116,-2,-4,16,44,3,-4,-36,-19
1523066082868116,12,8,-3,3,-8,-17,-18,-6
1523066082877142,1,-8,19,-21,5,7,12,-4
1523066082877142,-4,3,2,13,-10,-7,11,-3
1523066082892287,0,2,8,4,9,2,-5,8
1523066082892287,6,-4,-15,-18,-13,-5,-13,-5
1523066082893186,-27,-3,2,4,6,0,-7,-10
1523066082893186,3,3,14,7,-2,2,11,0
1523066082914503,2,0,-2,-26,-12,-6,-16,1
1523066082914503,9,3,-14,27,12,10,-10,0
1523066082916246,-2,-12,-6,-5,2,1,10,4
1523066082916246,3,12,7,-4,4,6,16,-1
1523066082928536,2,-6,-19,-6,-2,-2,-26,-5
1523066082928536,1,7,14,-23,-5,2,32,9
1523066082936573,1,2,-6,20,-4,-6,-15,-9
1523066082936573,-1,-11,-9,-18,0,-2,12,-3
1523066082951339,-4,7,0,8,-3,-7,-3,-4
1523066082951339,6,5,20,-7,0,3,-12,-3
1523066082953346,-7,-11,-25,-4,-4,4,-1,-3
1523066082953346,3,11,2,-9,-5,-7,-4,-5
1523066082974603,2,-8,-12,1,3,3,-1,7
1523066082974603,3,6,10,-1,1,-4,-11,-3
1523066082975401,1,-4,-27,5,-2,-10,-3,-1
1523066082975401,-1,1,16,-10,-8,10,17,5
1523066082988510,2,-6,0,11,-1,-5,-13,1
1523066082988510,1,-2,-11,-5,3,0,8,-1
1523066082996714,-2,14,30,12,-1,-2,-10,-4
1523066082996714,-4,-12,-35,-11,-6,0,22,-1
1523066083011772,0,-5,9,-4,-3,-1,-6,1
1523066083011772,3,-2,-15,0,-1,0,5,-2
1523066083013504,1,3,1,-5,1,-4,-6,-4
1523066083013504,-6,3,16,2,5,1,4,-2
1523066083034560,-1,-1,-6,-1,-4,1,4,1
1523066083034560,-3,-10,-17,-13,-6,-6,-9,1
1523066083035562,2,1,-5,10,5,3,5,1
1523066083035562,4,11,33,6,5,-1,-15,-1
1523066083047854,0,-6,-9,-16,-4,-3,25,2
1523066083047854,-1,-3,13,7,-2,3,-1,0
1523066083056618,0,-1,21,15,8,10,12,4
1523066083056618,1,-2,-12,-9,-3,-5,-7,-5
1523066083071965,-2,-3,-9,-11,-1,-3,-14,-2
1523066083071965,-2,-9,9,14,5,-3,0,-4
1523066083073665,0,1,-13,-21,-12,1,10,2
1523066083073665,-2,-7,3,3,1,-4,-9,-5
1523066083094904,-1,1,-9,-16,-1,1,-10,1
1523066083094904,7,14,13,23,5,5,20,6
1523066083095726,-3,-12,-2,9,5,-3,-23,-4
1523066083095726,-6,-4,-21,-26,-15,-10,-1,-3
1523066083107954,-3,-7,-5,1,0,0,2,-1
1523066083107954,-2,4,-6,4,1,-3,-7,-7
1523066083116781,5,5,26,3,-2,4,41,9
1523066083116781,-5,-7,-3,-7,2,0,-2,-4
1523066083132073,-8,-3,-23,13,3,7,-15,0
1523066083132073,-5,-6,16,0,-5,-8,-11,-8
1523066083132821,3,7,0,-25,0,7,23,5
1523066083132821,-1,-16,-9,41,5,3,-7,3
1523066083154915,-1,6,16,-17,-6,-4,-4,-2
1523066083154915,1,2,14,-4,-3,-2,-8,-1
1523066083155888,-7,-10,-22,-7,1,-1,-13,-4
1523066083155888,3,9,19,10,-1,0,-2,1
1523066083167915,-3,-11,-18,-12,-6,-4,-21,-6
1523066083167915,-1,-1,-21,-10,0,0,-4,3
1523066083176940,1,5,5,9,-4,-4,-11,-5
1523066083176940,1,3,6,23,7,6,27,3
1523066083192227,-7,-3,-16,-10,-2,-1,-16,-8
1523066083192227,8,-3,-6,13,0,6,18,4
1523066083192983,-1,12,-5,-20,-8,-7,-13,-3
1523066083192983,-2,0,-21,-8,-1,3,20,-2
1523066083214305,4,2,12,-2,0,-4,-17,0
1523066083214305,-1,-8,-13,3,-1,6,18,-2
1523066083216044,0,-15,-1,-2,-2,-4,-5,-4
1523066083216044,-26,2,4,4,5,2,-32,-9
1523066083228360,23,9,11,-3,-6,-9,1,2
1523066083228360,-19,-3,-10,-18,-1,0,19,-1
1523066083237099,56,-14,-4,24,-1,-1,-5,-9
1523066083237099,-15,-3,-19,-37,-5,-5,-6,-10
1523066083252137,3,-12,1,27,4,6,28,15
1523066083252137,12,18,10,-37,2,-2,-23,-8
1523066083253157,-39,-6,-5,21,-7,-3,-22,-9
1523066083253157,29,-2,-5,14,8,2,8,12
1523066083274391,-41,-18,-13,-16,3,-2,-6,-5
1523066083274391,-2,-5,4,-4,-7,-4,-4,-3
1523066083276201,-10,2,0,17,7,6,-2,1
1523066083276201,14,21,2,-13,-3,-2,-6,-2
1523066083288532,-15,-15,3,10,-5,-1,1,-6
1523066083288532,-3,-8,7,-5,0,7,-7,14
1523066083297261,-17,5,7,-18,2,-1,13,-4
1523066083297261,4,3,10,22,-7,-6,-3,-1
1523066083311593,6,8,1,-6,6,2,0,-4
1523066083311593,6,-3,-27,19,-2,-4,5,4
1523066083317312,5,-6,5,-17,-5,0,4,2
1523066083317312,0,7,-1,1,-2,-8,-2,2
1523066083334357,-1,0,-11,10,-6,3,-3,-7
1523066083334357,7,3,-9,-4,-1,-1,-5,-4
1523066083335357,-12,-9,-1,1,3,6,17,10
1523066083335357,11,-3,-6,-9,2,-1,-1,-7
1523066083348612,15,8,25,-8,-3,-4,7,10
1523066083348612,-3,3,0,6,-3,-4,-2,0
1523066083356414,-9,1,-11,-11,-4,-4,1,-3
1523066083356414,-6,-22,2,2,-2,1,10,6
1523066083371487,3,10,2,5,3,1,3,1
1523066083371487,-6,-5,-10,-7,5,4,19,-2
1523066083379479,0,-3,1,-3,-3,-7,-15,-6
1523066083379479,0,-9,-14,15,-14,-6,-13,0
1523066083394782,-6,3,6,1,13,0,5,0
1523066083394782,-2,2,2,1,-1,5,-4,-3
1523066083395520,5,0,4,-6,-2,-2,-18,2
1523066083395520,-8,-10,-14,-15,4,1,2,-3
1523066083407756,4,-2,-13,5,-5,-6,-2,-5
1523066083407756,-3,-2,-9,-5,-5,-9,-7,-2
1523066083416575,4,-1,-4,1,7,5,-2,0
1523066083416575,-1,4,15,1,-7,-13,-8,-2
1523066083430888,3,10,0,-2,3,15,6,-1
1523066083430888,-3,-9,1,-6,2,-8,-9,-1
1523066083439640,-2,21,61,10,-11,-6,-6,-3
1523066083439640,-5,-18,-41,-17,8,6,2,-3
1523066083461943,4,4,6,1,-3,-15,-7,-1
1523066083461943,-1,3,13,11,7,11,1,1
1523066083463700,-1,-5,-34,-5,-8,-5,-1,-3
1523066083463700,0,10,28,1,2,4,7,2
1523066083467711,3,-5,1,0,7,-1,-12,-4
1523066083467711,-5,-3,-25,-6,-3,-8,-7,-3
1523066083476760,0,-4,-1,-3,-11,-9,-5,-5
1523066083476760,1,2,-21,-7,2,1,-7,-3
1523066083490973,-4,-8,-17,-8,-5,1,5,-3
1523066083490973,-2,-8,0,-3,-6,-7,-9,-4
1523066083498089,2,0,4,16,10,6,4,4
1523066083498089,0,5,8,-25,-13,-16,-18,-4
1523066083514885,2,5,17,27,6,15,28,2
1523066083514885,1,-2,4,-3,-6,-6,-23,-6
1523066083515844,-2,-5,-8,-13,-5,-3,11,2
1523066083515844,-1,-3,-6,1,2,3,8,0
1523066083537161,1,4,37,-11,-3,-8,-6,-4
1523066083537161,-1,0,-5,3,3,8,23,5
1523066083537899,-2,-4,-20,1,3,1,-3,0
1523066083537899,-1,7,17,-6,0,-3,-25,-3
1523066083551936,0,1,1,8,-8,-4,4,0
1523066083551936,-2,-2,9,1,-6,2,-16,-1
1523066083558203,-3,8,31,-2,7,-3,-4,-2
1523066083558203,-3,-7,-36,-11,-8,1,6,-2
1523066083574261,1,8,13,-13,-2,-2,-6,0
1523066083574261,-3,-14,-28,-2,-4,-6,-8,-7
1523066083576003,8,5,17,16,6,3,5,1
1523066083576003,-13,-5,-1,15,1,1,-4,-3
1523066083597357,-1,-1,-2,1,4,4,4,1
1523066083597357,5,12,19,-8,-5,-6,-2,1
1523066083598059,4,-1,-32,-18,1,5,11,1
1523066083598059,-3,-13,3,6,4,3,0,-4
1523066083611374,-2,0,-7,-3,-4,-1,4,2
1523066083611374,0,-16,-14,-2,1,1,12,4
1523066083618111,-2,8,-13,-17,-13,-10,-15,-4
1523066083618111,-2,6,26,9,5,8,-1,-2
1523066083634156,10,0,-9,-4,-2,1,-5,1
1523066083634156,-3,4,29,3,0,-6,-18,-2
1523066083636161,-3,-5,-8,-3,-2,-4,6,-1
1523066083636161,3,-1,12,20,3,2,6,1
1523066083656458,-5,-8,-17,-18,-10,-8,4,-8
1523066083656458,3,7,19,11,3,-1,-5,3
1523066083658219,0,4,2,-18,-5,-1,-35,-5
1523066083658219,-2,0,14,6,0,-1,10,1
1523066083670486,-4,-6,-11,-8,-3,-3,-4,-3
1523066083670486,-6,-4,-14,-1,0,2,18,-2
1523066083679273,-1,-5,2,9,0,-1,0,-3
1523066083679273,-1,0,-7,-15,-8,-4,2,2
1523066083694616,-9,-5,-4,7,13,4,1,5
1523066083694616,13,4,-7,-20,-15,-5,-4,-6
1523066083695320,3,0,-3,14,-16,-4,4,0
1523066083695320,9,0,5,28,86,24,14,8
1523066083716374,3,13,3,-8,-7,-6,-12,-1
1523066083716374,1,-1,-2,10,-4,-7,0,-2
1523066083718378,-12,-5,-7,1,-2,1,-4,-6
1523066083718378,-3,0,11,-21,-36,-14,-13,-5
1523066083730688,-3,-14,-30,-10,-2,1,16,3
1523066083730688,-19,7,6,22,10,7,9,-2
1523066083739436,-13,-22,-36,-25,-25,-21,-23,8
1523066083739436,-4,-2,12,14,-1,2,-13,-5
1523066083754778,-2,-3,15,-29,-4,-4,-3,1
1523066083754778,6,17,8,8,-17,-8,-5,-10
1523066083755482,-5,-1,23,35,24,19,26,3
1523066083755482,16,13,-21,-11,-10,-5,7,9
1523066083776793,-12,-13,0,12,-9,-16,-22,-11
1523066083776793,3,-6,-27,-19,1,4,1,6
1523066083778539,9,14,69,2,3,-8,-2,-8
1523066083778539,4,8,9,10,12,5,3,0
1523066083790773,-10,-6,-2,0,1,3,4,1
1523066083790773,8,-3,-1,-33,-26,-7,-5,2
1523066083799596,11,4,-7,18,5,-6,1,2
1523066083799596,-2,-1,-12,-30,-5,0,-2,-6
1523066083814755,2,17,11,45,3,2,2,1
1523066083814755,-10,-8,-6,-1,12,5,-2,-1
1523066083815638,-2,-4,-12,-15,-9,2,4,1
1523066083815638,-4,-3,1,-16,-23,-12,-16,-4
1523066083836957,17,3,-22,-3,9,12,37,0
1523066083836957,-17,-20,-9,8,-5,2,5,8
1523066083837699,-3,0,-4,-6,4,-4,0,-3
1523066083837699,5,-1,-5,-6,-10,-1,23,5
1523066083850731,-7,-7,3,4,-5,-4,-21,-2
1523066083850731,1,1,2,5,5,2,-4,-1
1523066083859757,7,4,-1,-7,13,10,57,12
1523066083859757,-18,-13,-19,9,-9,-6,-10,-6
1523066083874875,0,-7,-1,-10,-14,-6,-22,-4
1523066083874875,3,2,24,-28,9,-1,-15,-2
1523066083875800,-4,-3,-11,29,3,5,-27,-6
1523066083875800,2,6,-8,-2,-7,-3,1,-4
1523066083897155,0,9,11,-13,0,-2,-5,1
1523066083897155,-4,-2,-18,16,2,-15,-14,-4
1523066083897860,0,0,-11,-23,-7,13,-13,-7
1523066083897860,-6,-12,-8,-4,-12,-12,5,0
1523066083919220,3,11,4,14,11,14,2,2
1523066083919220,5,11,34,-1,10,3,-7,1
1523066083920921,-6,-13,-26,-4,5,-11,1,-3
1523066083920921,-4,-15,-2,8,5,12,12,-1
1523066083933953,-4,-4,-8,-19,-11,-14,-18,-4
1523066083933953,1,2,-3,5,0,8,-7,-1
1523066083939969,-1,-2,-2,0,1,-5,-4,-2
1523066083939969,0,5,3,0,0,1,-11,-3
1523066083957269,-2,-1,14,0,-3,3,28,4
1523066083957269,-2,-6,-13,-11,-6,-3,2,0
1523066083958018,-2,2,9,14,-1,-3,-4,-4
1523066083958018,-5,-2,4,-9,-2,-7,-9,-6
1523066083970283,4,1,-3,-5,-5,-1,-1,-3
1523066083970283,-7,-22,-47,13,2,-4,12,-3
1523066083979319,6,10,14,-4,1,10,9,6
1523066083979319,-4,-1,-4,-5,-9,-6,-11,-2
1523066083994398,-4,-2,15,13,5,-1,-6,-2
1523066083994398,0,4,-4,-4,-1,-1,2,-2
1523066083996118,-5,-11,-8,-1,0,-6,-8,-3
1523066083996118,8,8,24,5,0,3,2,5
1523066084017175,1,-3,-13,2,-5,-5,-5,-3
1523066084017175,-9,3,3,-1,0,6,-9,0
1523066084019181,2,4,-11,-11,-5,-6,11,2
1523066084019181,0,-5,19,-2,-5,-1,-2,1
1523066084030495,-2,-9,-21,-4,0,-1,-1,-1
1523066084030495,6,5,9,2,-1,-5,2,-5
1523066084039234,-4,4,44,15,3,6,22,9
1523066084039234,-12,0,-12,-4,3,0,1,-2
1523066084054534,-1,-2,6,8,4,2,-15,-3
1523066084054534,9,3,-9,-29,-11,-11,-5,-1
1523066084056279,-21,-15,-42,-31,-4,-3,-4,-15
1523066084056279,5,5,27,43,2,-3,5,0
1523066084076634,0,1,-1,-5,0,5,2,-1
1523066084076634,1,2,2,3,-1,3,16,4
1523066084078337,5,-1,-9,-15,-9,-3,-9,0
1523066084078337,2,-3,-17,-13,-1,-1,5,-1
1523066084090573,-2,-1,15,12,1,-3,-8,-2
1523066084090573,-2,-1,30,30,10,4,8,3
1523066084099394,-2,-16,-57,-23,-10,-8,-23,-4
1523066084099394,5,-2,13,-4,2,0,2,-2
1523066084114736,0,6,-9,-2,-2,3,31,7
1523066084114736,1,-1,6,-15,-5,-5,-8,-4
1523066084115435,1,7,29,25,8,12,11,5
1523066084115435,2,-2,-15,-15,-2,1,4,2
1523066084137494,-1,0,-4,-5,-3,-10,-25,-6
1523066084137494,-2,0,5,9,3,0,3,-1
1523066084138502,1,-2,6,10,-4,-4,3,-2
1523066084138502,-5,-6,-9,-26,-3,-2,-37,-6
1523066084150528,-8,-8,-12,22,0,0,6,4
1523066084150528,-16,-3,-1,0,0,1,-3,-7
1523066084159555,4,-4,-9,-10,-2,-2,-40,3
1523066084159555,1,0,-4,-5,-3,3,15,9
1523066084174865,14,-18,-39,-9,0,0,15,13
1523066084174865,-17,2,26,22,10,8,6,-19
1523066084175595,-15,0,-9,-28,1,-2,18,5
1523066084175595,-4,-1,-7,-8,-13,-5,2,12
1523066084196954,-3,-4,-32,-39,-7,-9,-31,-13
1523066084196954,34,-6,8,79,5,6,-33,14
1523066084198658,-8,-6,9,-8,-2,-1,30,-3
1523066084198658,1,11,7,7,5,8,26,-9
1523066084210963,-20,-7,-3,-15,-8,-9,-4,0
1523066084210963,2,4,-12,-14,6,4,29,2
1523066084219712,17,9,7,8,-1,1,-12,7
1523066084219712,-10,-14,-23,-2,0,-1,-7,0
1523066084233750,-15,-2,42,5,1,5,29,19
1523066084233750,10,4,-5,-28,-9,-5,8,-1
1523066084240826,10,11,-9,9,4,10,1,8
1523066084240826,8,5,-10,-52,-5,-6,-1,16
1523066084257012,8,3,2,49,9,0,-17,-39
1523066084257012,63,5,-9,-54,-7,0,-2,12
1523066084257818,-6,7,13,-5,-1,-4,-6,-8
1523066084257818,3,-2,-35,54,7,2,-3,-10
1523066084271104,-9,3,50,-24,1,-1,-9,3
1523066084271104,13,-9,-32,-5,-11,-10,9,7
1523066084279146,7,17,4,2,-1,-2,-2,-16
1523066084279146,-11,-4,-2,-10,3,1,5,-10
1523066084294152,18,0,-12,12,-6,-11,-14,1
1523066084294152,-39,-5,7,6,9,16,8,-9
1523066084299927,-10,-10,-13,3,-3,-5,-5,2
1523066084299927,-1,-3,16,8,-1,2,2,0
1523066084316971,2,3,-4,-14,-4,-2,-2,-2
1523066084316971,-24,-4,-7,-3,-5,-12,-24,-7
1523066084317974,-1,-6,6,0,-2,-7,-8,-6
1523066084317974,9,1,4,-13,-8,-10,-23,-9
1523066084339031,2,5,11,31,8,16,64,11
1523066084339031,-16,-4,-9,-11,-8,-6,-21,-9
1523066084341036,10,-5,1,10,5,7,41,12
1523066084341036,-6,0,14,4,0,-5,-16,-9
1523066084354121,-6,-3,-24,-35,-8,-8,-20,-3
1523066084354121,-8,-5,-20,3,3,5,6,1
1523066084360365,0,-2,21,27,-14,-1,-2,-5
1523066084360365,-2,14,13,-9,-11,-7,-16,-3
1523066084377392,0,-13,-19,-3,12,9,-3,-2
1523066084377392,0,2,-1,0,-2,-3,-1,2
1523066084378138,0,2,9,-10,-1,-5,-22,-6
1523066084378138,3,13,20,12,4,7,17,3
1523066084399192,-1,-10,-31,-12,-6,-3,-14,-3
1523066084399192,-5,-4,7,5,-3,-9,1,-3
1523066084401194,-3,-1,-16,-7,1,5,3,5
1523066084401194,-8,-10,7,8,2,-2,6,2
1523066084413483,-6,5,19,5,4,3,6,-1
1523066084413483,-3,-1,1,-19,-5,-6,-8,-3
1523066084422252,-1,-3,-4,7,-4,1,15,6
1523066084422252,2,3,7,11,10,-8,6,1
1523066084437433,-1,11,13,-15,-6,9,-3,-2
1523066084437433,-11,-22,-9,7,3,1,17,1
1523066084438295,13,2,2,-6,1,-9,-38,-10
1523066084438295,-5,-5,-7,-7,-13,-7,6,-4
1523066084459616,4,7,4,14,3,-1,-4,3
1523066084459616,-1,8,9,-6,-3,-3,1,1
1523066084460355,-3,-2,6,0,-2,-5,-8,-5
1523066084460355,-2,-11,-8,-15,-6,-2,-12,-3
1523066084473583,2,5,4,20,9,5,-2,0
1523066084473583,-3,-3,-10,-6,-4,1,0,-1
1523066084480684,-5,-2,-11,-22,-5,-9,-16,-5
1523066084480684,-6,-2,12,19,-2,0,-7,-4
1523066084496713,2,3,4,-6,1,2,10,5
1523066084496713,-3,0,6,9,1,-4,-9,-1
1523066084498454,-3,-9,-14,3,3,2,24,-1
1523066084498454,2,0,-13,-6,7,6,-1,-2
1523066084519753,3,5,13,0,-7,-7,0,1
1523066084519753,-1,0,-10,7,4,3,-16,0
1523066084520513,-12,-4,8,-5,-2,-5,-13,-1
1523066084520513,1,-3,-20,-5,-5,-1,4,-3
1523066084533547,-1,-4,4,5,-1,-2,12,-3
1523066084533547,0,4,-10,3,2,5,-4,2
1523066084540853,-5,-6,3,5,-2,-1,-13,-4
1523066084540853,2,2,-5,4,5,4,16,4
1523066084556812,-3,-2,-27,-21,-9,-5,-16,-3
1523066084556812,-5,7,36,-29,-7,-6,-1,-3
1523066084558615,2,-6,5,60,7,1,-8,1
1523066084558615,-1,8,-20,-37,-8,-2,-1,-1
1523066084579894,11,-9,9,7,0,-7,-29,-5
1523066084579894,0,0,-2,-7,-3,-2,2,-3
1523066084580679,-2,-8,-2,-8,-1,-5,9,-4
1523066084580679,-5,-4,5,11,3,1,1,1
1523066084592979,0,-5,-12,-7,-2,-1,-9,3
1523066084592979,6,-2,-26,3,-1,-4,1,-2
1523066084601732,-5,-4,21,-11,-1,0,-15,-2
1523066084601732,4,-2,-4,6,0,-1,-3,-2
1523066084616770,-12,0,5,-2,0,1,16,2
1523066084616770,21,0,-17,8,3,2,-3,2
1523066084617772,26,4,-6,-5,-2,2,11,22
1523066084617772,-32,-1,-4,-6,-3,-2,-4,-23
1523066084638829,-10,0,26,0,1,1,-2,1
1523066084638829,-7,-6,1,16,-1,0,7,2
1523066084640834,-1,1,-24,-34,-6,-2,-3,-1
1523066084640834,7,-3,31,50,5,1,-3,7
1523066084653130,-2,8,7,-12,-2,-1,0,-6
1523066084653130,-6,2,5,-1,-5,-4,-4,-2
1523066084661891,-9,1,-9,-9,4,1,2,-7
1523066084661891,5,-6,-10,-10,-2,1,-4,3
1523066084677237,-5,6,-3,4,0,0,-14,-3
1523066084677237,-6,-15,-4,-3,1,-7,-20,-9
1523066084677932,-11,9,12,4,-1,6,21,-3
1523066084677932,9,-12,-4,-14,1,1,-6,20
1523066084699024,7,23,-14,6,-3,-2,5,-7
1523066084699024,12,-3,15,-3,1,0,2,-2
1523066084700992,-8,17,17,-1,-7,-2,0,-6
1523066084700992,-14,-6,1,-2,-3,-3,0,-6
1523066084721311,-25,-32,-7,7,0,-2,-1,4
1523066084721311,10,3,-7,-5,2,0,-12,1
1523066084722051,0,-2,2,10,-8,-9,-9,-2
1523066084722051,5,0,4,-35,-1,6,8,2
1523066084736329,0,-25,3,24,-1,-1,-1,-2
1523066084736329,7,18,6,0,2,1,-1,-1
1523066084737091,6,-3,-10,-1,4,-8,-15,-6
1523066084737091,-12,-8,-11,0,-2,-11,-54,-12
1523066084759189,15,5,31,4,-4,-4,-3,10
1523066084759189,-8,4,-4,9,8,14,30,3
1523066084759189,1,-8,-20,-11,0,6,0,0
1523066084759189,3,4,-9,6,-4,-3,12,-1
1523066084781338,7,1,-14,-16,-2,-5,-22,-6
1523066084781338,6,10,6,2,-6,-5,-16,1
1523066084781338,-25,-6,5,-11,-4,-4,3,1
1523066084781338,7,7,17,10,8,3,-38,-2
1523066084795509,-1,-4,-27,-1,-1,2,13,0
1523066084795509,-7,-2,4,-9,-8,-3,7,-1
1523066084803510,1,-5,-7,7,10,8,6,-1
1523066084803510,4,-2,-5,-6,0,-3,1,0
1523066084818572,-2,2,-3,-13,-10,-7,-13,-7
1523066084818572,-8,-4,-9,6,0,0,16,-1
1523066084819308,9,4,4,21,3,3,25,6
1523066084819308,-3,0,-6,-4,-5,1,16,0
1523066084841473,-1,3,2,0,3,-3,2,-4
1523066084841473,-2,-9,-25,-6,-4,0,-9,-3
1523066084841473,0,-7,1,-10,-2,1,-12,-3
1523066084841473,1,-1,0,3,-8,-5,27,2
1523066084855653,-3,3,-9,-3,5,2,12,0
1523066084855653,-4,-3,15,7,-3,-7,-20,-6
1523066084863682,1,3,7,-4,-3,-1,4,3
1523066084863682,-5,-9,-39,-4,0,-1,3,-3
1523066084878751,7,4,26,10,4,3,1,-1
1523066084878751,-9,-11,-28,-8,-8,-7,3,-1
1523066084879469,1,3,10,2,0,2,-12,-5
1523066084879469,1,2,-17,-14,-7,-5,8,0
1523066084901727,2,7,23,-1,6,5,-3,2
1523066084901727,-4,-4,0,-7,0,-4,-2,-3
1523066084901727,-5,-8,-6,2,-3,-4,6,-1
1523066084901727,-1,-3,20,14,6,3,-11,-1
1523066084915599,3,11,-10,-27,-4,3,-4,-4
1523066084915599,-4,-1,5,22,-6,-6,1,-2
1523066084923864,3,-5,-7,-5,4,3,-14,-1
1523066084923864,0,3,0,7,-1,-5,1,-2
1523066084938875,1,-3,7,-5,-10,-1,3,0
1523066084938875,-5,-2,-7,-38,-3,-2,0,0
1523066084939629,-12,0,7,41,3,-2,-14,-8
1523066084939629,-5,4,4,8,6,6,15,2
1523066084961729,-1,-6,-27,-12,-7,-4,-6,-1
1523066084961729,0,-10,17,6,8,13,13,5
1523066084961729,2,6,-9,-21,-10,-10,-18,-3
1523066084961729,4,3,14,17,12,8,17,4
1523066084976002,-4,-3,-13,-23,-13,-5,-1,-1
1523066084976002,-6,-7,2,6,4,-1,-2,-4
1523066084976728,3,-3,-11,-13,-3,-6,-7,-1
1523066084976728,3,1,4,-15,-5,0,13,0
1523066084998823,-4,-7,11,20,7,2,-6,-2
1523066084998823,3,-1,-26,-4,1,5,-7,4
1523066084998823,3,5,39,9,-4,-1,-3,-2
1523066084998823,0,-3,4,3,-2,-5,-18,-7
1523066085021117,-1,9,-28,-15,-6,-4,5,-3
1523066085021117,1,5,12,-8,1,0,6,-2
1523066085021851,4,-7,-23,6,-1,-1,-6,-2
1523066085021851,5,7,-1,-8,-3,-2,0,-1
1523066085036117,4,-5,4,7,-3,-10,-12,-1
1523066085036117,-4,4,17,18,0,-2,-1,-4
1523066085036890,5,0,-4,-18,-3,0,5,1
1523066085036890,-1,-1,-2,5,2,1,3,1
1523066085058959,-4,-4,0,4,-2,-5,-1,0
1523066085058959,-8,-1,-2,-9,-2,4,29,6
1523066085058959,-4,-7,-16,2,1,1,-3,-6
1523066085058959,14,-2,16,1,-3,-8,-31,-2
1523066085081084,-28,-4,-10,-5,2,4,46,3
1523066085081084,9,15,-4,-5,-5,-4,0,-2
1523066085082006,-3,-3,-2,5,4,5,12,0
1523066085082006,-2,-1,-13,-5,-2,-1,2,-3
1523066085096319,14,0,13,7,4,6,-3,1
1523066085096319,-7,-21,-31,1,-3,-5,-14,-4
1523066085097049,-1,6,6,-4,-3,3,22,3
1523066085097049,-5,5,0,-13,-4,0,-2,0
1523066085127388,3,-11,-10,8,3,1,-2,0
1523066085127388,0,11,-1,-1,-1,-2,-4,1
1523066085127388,-1,6,12,-20,-1,-2,-6,-1
1523066085127388,-9,-6,2,21,-6,-8,-1,-8
1523066085141425,-2,-4,10,6,5,4,2,4
1523066085141425,6,13,44,2,0,-6,-5,-3
1523066085142167,5,-11,-44,-26,0,1,-8,3
1523066085142167,-6,4,9,19,3,8,14,5
1523066085156406,-7,-2,-9,-3,-5,-6,-4,-1
1523066085156406,-4,-18,-15,-3,-10,-13,-27,-11
1523066085157211,-4,-8,17,6,1,-2,-4,-1
1523066085157211,35,-5,-21,2,-6,-6,-4,-11
1523066085178515,-21,3,12,-14,6,1,-5,0
1523066085178515,43,-11,-34,-38,-8,3,25,11
1523066085179269,-90,0,29,86,11,2,-5,-9
1523066085179269,-7,-12,6,-16,-10,-5,-8,-8
1523066085201680,3,1,21,-6,-17,-7,5,-3
1523066085201680,-2,4,-1,7,26,9,-1,-1
1523066085201680,17,-7,-24,-22,-9,-7,-3,-2
1523066085201680,-13,-3,1,-11,0,4,15,8
1523066085216362,-15,-8,-14,-7,-10,-6,-13,-2
1523066085216362,-21,10,24,-7,-4,-1,-4,-7
1523066085217367,22,2,-7,27,18,4,5,3
1523066085217367,-11,18,48,-2,2,-3,-10,1
1523066085238688,13,9,-10,-12,-2,-1,-9,-7
1523066085238688,-4,-15,-23,4,-2,4,-4,-1
1523066085239428,7,-1,9,-2,-1,-3,5,2
1523066085239428,-4,-4,-9,-19,-7,-1,-11,-3
1523066085261614,0,-8,-3,16,10,2,11,2
1523066085261614,-10,4,9,12,-2,-3,-7,0
1523066085261614,29,10,-12,-28,-7,0,6,3
1523066085261614,-31,-21,-22,-12,-7,-9,-25,-11
1523066085275601,12,6,-7,3,7,10,60,12
1523066085275601,-1,13,15,35,5,-1,-14,-2
1523066085276524,4,-8,-23,-38,-11,-10,-25,-9
1523066085276524,10,2,-9,2,1,2,22,4
1523066085298584,2,6,-7,3,-1,-4,-20,-9
1523066085298584,-7,0,1,-22,-3,3,-6,-1
1523066085299584,2,-6,-19,19,-5,-6,-9,-8
1523066085299584,4,-1,32,9,3,8,20,12
1523066085321017,-1,-4,-17,-3,4,1,-35,-7
1523066085321017,-8,-8,-9,-1,-5,-5,1,-2
1523066085321645,-2,3,6,-12,-3,2,24,7
1523066085321645,-2,5,-4,1,2,6,4,-1
1523066085336687,1,-10,-1,-13,-2,-10,-30,-9
1523066085336687,8,11,10,-2,-8,6,51,12
1523066085336687,-15,-20,-22,14,-2,-4,-5,-2
1523066085336687,1,-2,-22,-5,4,-5,-17,-3
1523066085359082,10,-2,6,4,1,5,10,3
1523066085359082,-4,-3,-9,-14,1,0,-7,-6
1523066085359082,-1,2,14,7,4,2,2,1
1523066085359082,2,5,-6,-7,-2,0,11,2
1523066085380914,-7,-3,-8,9,-2,-1,-3,-3
1523066085380914,-3,0,8,3,0,-7,-16,-3
1523066085381803,4,4,5,-21,-4,1,-7,4
1523066085381803,0,-4,2,32,6,4,36,5
1523066085396154,-5,-4,-4,-15,-11,-10,-8,-5
1523066085396154,2,-3,0,3,-5,-2,-11,-1
1523066085404107,-8,-1,-6,-13,0,-5,23,1
1523066085404107,1,9,27,5,6,10,-14,-3
1523066085419123,7,3,1,-1,0,-1,-8,0
1523066085419123,-5,1,14,9,1,0,17,0
1523066085419123,3,-7,-29,-19,-6,-3,-20,-4
1523066085419123,-2,-2,9,-5,1,-5,-16,0
1523066085441242,-4,-2,-12,7,2,3,-1,2
1523066085441242,2,4,19,1,0,1,10,-3
1523066085441971,6,18,19,15,4,5,1,4
1523066085441971,-23,-4,10,-34,-10,-7,-6,-12
1523066085456191,-5,-18,-5,32,12,5,22,6
1523066085456191,3,0,-44,1,4,4,41,6
1523066085457010,-2,2,48,-6,-7,-3,-12,-5
1523066085457010,7,2,-12,3,1,2,12,0
1523066085479203,3,20,12,-6,-2,-6,-15,-3
1523066085479203,-7,-8,-12,-7,-7,-4,-6,-1
1523066085479203,-5,-7,-4,-13,-2,2,9,-1
1523066085479203,5,-8,-11,2,-3,-1,-12,2
1523066085501502,-4,-3,10,2,1,-2,-6,-2
1523066085501502,1,-2,3,10,7,6,3,0
1523066085502129,-2,-3,-3,1,-1,-2,-49,-4
1523066085502129,1,-3,-5,-29,-8,-4,6,0
1523066085516164,-5,-5,-1,30,-2,-2,4,-3
1523066085516164,-3,-4,11,0,-3,-4,-15,-5
1523066085517163,4,2,1,-23,-2,-1,6,-1
1523066085517163,-2,-16,-30,30,5,-1,-14,-6
1523066085538227,4,9,32,0,5,2,14,3
1523066085538227,-5,-14,-10,-17,-11,-4,-3,-6
1523066085539225,-3,-8,-31,-15,-10,-6,10,-6
1523066085539225,2,16,10,6,7,4,11,7
1523066085561538,2,-7,-7,-18,-8,-6,-31,-8
1523066085561538,1,1,20,9,4,-1,-28,1
1523066085561538,2,5,15,15,5,3,1,2
1523066085561538,-1,-1,-16,-10,-7,-2,2,2
1523066085576576,-1,2,-10,-4,-4,-3,-5,-1
1523066085576576,-14,-10,-7,1,2,6,29,-2
1523066085576576,23,1,-9,9,2,3,5,9
1523066085576576,-8,0,6,13,-1,0,26,6
1523066085598419,1,-1,-9,-10,-1,-2,4,-2
1523066085598419,3,8,23,-5,-4,-7,-25,-7
1523066085599385,1,-2,-1,3,0,-1,20,1
1523066085599385,-39,-25,-21,-8,-2,-3,-9,-18
1523066085621697,24,14,8,-16,-2,2,1,3
1523066085621697,-2,-3,-4,6,-2,-4,-4,-3
1523066085621697,24,-1,3,-5,-7,-7,-14,-6
1523066085621697,-21,7,12,-5,-1,-2,-9,9
1523066085636752,-13,-6,-8,52,4,4,23,2
1523066085636752,-28,4,-4,-54,-6,2,-2,-10
1523066085636752,7,2,4,20,8,1,26,-2
1523066085636752,63,4,-11,17,-1,-2,0,5
1523066085658543,-90,-14,-3,-6,-1,-1,-28,-7
1523066085658543,19,-3,-1,6,1,-2,-21,7
1523066085659547,-19,-5,-1,-22,-5,-1,-14,-5
1523066085659547,2,2,27,5,8,1,1,-7
1523066085681648,20,-5,-19,-4,-3,-4,2,2
1523066085681648,10,4,-26,11,-6,-6,2,-2
1523066085682603,-24,-4,24,-5,5,3,-11,5
1523066085682603,0,2,6,-4,-14,-6,-13,-14
1523066085696680,29,-7,-2,-14,4,-1,-2,0
1523066085696680,-4,12,5,8,7,0,-3,0
1523066085696680,21,9,6,2,-4,0,5,5
1523066085696680,-10,-2,-8,-5,2,-3,-8,5
1523066085718929,2,-4,-24,-16,-13,-2,7,1
1523066085718929,-9,-14,26,12,0,-4,-9,-4
1523066085719707,-10,-3,-6,12,11,9,6,1
1523066085719707,4,5,2,-6,-3,-5,-14,-2
1523066085741051,-1,4,-4,-15,-5,-3,-26,-5
1523066085741051,13,-6,-12,6,0,6,29,10
1523066085741765,-16,8,18,-1,-8,-7,0,-2
1523066085741765,2,-11,-14,-13,1,-4,-12,-10
1523066085763862,12,6,11,5,1,4,6,15
1523066085763862,-2,-6,-3,4,0,-4,-43,0
1523066085764826,-6,-8,-23,3,2,1,-5,-7
1523066085764826,-2,4,1,-4,-5,-3,-1,1
1523066085779127,-1,1,7,-13,0,0,6,-4
1523066085779127,1,-4,-4,1,-8,-9,-8,-3
1523066085779127,-4,2,-10,10,6,-1,5,-2
1523066085779127,0,-8,-2,-9,-2,12,12,6
1523066085801082,5,5,5,1,-1,-2,10,-4
1523066085801082,1,2,-8,-7,2,2,15,-1
1523066085801924,1,2,9,4,2,-1,-11,2
1523066085801924,-10,-16,-40,-10,-3,-6,5,0
1523066085815962,3,3,12,6,1,3,-7,0
1523066085815962,1,6,-2,2,0,-11,3,-1
1523066085816965,-7,-4,11,0,3,6,3,-4
1523066085816965,6,4,-9,-3,-14,-5,-4,-3
1523066085838271,-10,-8,4,0,10,10,29,2
1523066085838271,-2,-5,-7,-10,-5,-3,-19,-8
1523066085839022,-7,-10,-10,9,1,2,23,2
1523066085839022,9,16,15,-6,-1,-8,-38,-6
1523066085861339,-11,-4,0,-5,-6,-5,17,-2
1523066085861339,2,5,48,9,1,2,4,-1
1523066085862088,-4,-13,-25,-25,-9,-4,-8,-3
1523066085862088,0,0,-7,25,6,5,13,0
1523066085876392,6,4,11,2,-3,-3,-10,-3
1523066085876392,-7,-16,-43,-12,-1,-1,2,-2
1523066085877128,-1,3,13,9,2,0,-1,-3
1523066085877128,1,-9,-21,-11,-7,-4,-3,3
1523066085898179,-2,-10,-29,-10,-4,-6,-18,-7
1523066085898179,2,12,11,0,0,4,6,5
1523066085899184,5,6,1,-3,-6,-5,7,0
1523066085899184,-2,0,12,16,17,0,-25,-5
1523066085921242,0,1,1,-4,-1,-5,-1,0
1523066085921242,-4,-12,-27,-9,-10,-3,-5,-5
1523066085921242,3,19,23,-2,-5,-2,2,-1
1523066085921242,-4,2,12,-1,2,-2,-1,1
1523066085935278,-12,-4,-13,-6,-6,-2,-39,-5
1523066085935278,1,-1,15,6,2,-2,-9,4
1523066085943547,1,-5,18,-10,-5,-3,-5,-2
1523066085943547,5,18,14,24,7,6,-11,3
1523066085958624,1,2,4,-16,-5,-10,-33,-10
1523066085958624,-1,1,-1,19,4,9,41,13
1523066085959347,-6,-2,-1,-9,1,0,-7,-1
1523066085959347,-4,-14,-28,-14,-6,-4,12,-3
1523066085981401,9,23,77,3,-5,-7,-25,-8
1523066085981401,15,-2,2,0,6,4,16,5
1523066085981401,-4,7,1,1,-1,-1,15,-5
1523066085981401,-5,-17,-45,-8,-1,0,24,2
1523066085995675,3,11,48,-6,-4,-2,4,-1
1523066085995675,-4,-3,-22,-5,0,-4,-20,-5
1523066086003688,2,0,-16,19,4,1,-3,4
1523066086003688,-1,-2,24,-6,-4,0,-20,-3
1523066086018731,1,0,-39,2,1,2,19,3
1523066086018731,-6,-1,13,-20,-3,1,-1,-3
1523066086019505,0,-5,-20,0,-5,-4,3,-2
1523066086019505,13,8,14,-1,-1,7,44,15
1523066086040559,-2,1,-26,8,7,7,29,5
1523066086040559,1,5,16,-4,-7,-8,0,-9
1523066086041562,-12,-7,-14,-2,1,1,31,10
1523066086041562,2,-9,3,-2,-1,-2,11,-4
1523066086055844,7,9,0,5,0,10,61,14
1523066086055844,-15,-3,4,2,1,2,-16,-26
1523066086063624,-24,-6,-24,0,-3,-1,-7,-8
1523066086063624,2,4,11,-7,-1,-4,-16,-1
1523066086078928,-11,-15,-22,1,-1,-2,-6,-7
1523066086078928,-5,-5,-16,2,0,-1,1,-2
1523066086079662,18,-1,5,-14,-2,4,12,10
1523066086079662,-3,6,0,8,-3,-3,-1,-4
1523066086101022,6,-10,-7,5,1,-3,-50,-5
1523066086101022,5,0,6,1,-3,-3,-5,1
1523066086101720,0,14,18,-4,-6,-11,-16,-5
1523066086101720,-7,-2,-19,-4,1,4,28,5
1523066086114802,7,-10,-2,-4,-4,-8,-20,8
1523066086114802,16,2,3,11,1,-2,-2,-7
1523066086124057,-5,-2,-33,-20,-8,-1,-29,-5
1523066086124057,-2,13,20,9,2,4,-6,-6
1523066086138821,-2,-18,-29,9,3,-2,-48,-14
1523066086138821,-5,-4,-7,7,3,2,-12,-2
1523066086138821,1,-9,-9,-6,-3,-1,-10,9
1523066086138821,-8,3,28,-16,-4,-3,-6,-5
1523066086161168,-3,1,-37,27,-7,-5,24,2
1523066086161168,-2,6,-3,-15,12,11,-3,4
1523066086161885,2,-5,-16,-6,2,0,11,-4
1523066086161885,-11,-3,24,-10,1,-3,5,0
1523066086176083,2,19,20,17,-1,6,31,-3
1523066086176083,10,-41,-33,2,-9,-6,-5,18
1523066086184152,-23,11,11,-4,5,0,8,-23
1523066086184152,-10,-5,-2,0,-5,-10,-40,-5
1523066086197990,-23,-4,29,-23,7,12,5,1
1523066086197990,12,3,-41,4,-2,-3,5,8
1523066086198983,-2,-5,19,14,8,7,-8,-2
1523066086198983,3,-10,-7,-2,-5,-5,2,2
1523066086221040,5,0,3,-9,-4,-7,-3,-6
1523066086221040,-16,8,11,-9,-11,-4,-5,6
1523066086222044,9,-4,14,5,-4,-5,6,2
1523066086222044,2,-3,-17,5,6,8,-8,-1
1523066086244373,7,-9,-10,1,-6,1,-5,7
1523066086244373,-7,6,8,-10,2,1,-10,-6
1523066086245105,10,1,2,5,-2,-6,-9,-1
1523066086245105,4,3,-21,13,0,-4,-6,1
1523066086259139,-2,-7,17,-22,3,4,11,-1
1523066086259139,-9,2,12,7,0,-1,-19,-6
1523066086259139,-3,-4,15,-2,-2,-5,2,-5
1523066086259139,4,1,-9,2,0,8,20,6
1523066086281246,1,-14,-22,-6,-1,-8,-3,3
1523066086281246,1,29,32,11,-4,5,6,-2
1523066086281246,8,-16,9,-30,2,-1,-7,2
1523066086281246,-2,-3,9,16,-5,-8,-13,-7
1523066086304521,2,2,3,8,6,5,32,7
1523066086304521,0,3,-3,4,3,0,-8,0
1523066086305264,5,6,24,1,2,5,12,10
1523066086305264,-1,-7,-23,-21,-9,1,21,3
1523066086318547,-8,-3,-12,6,-1,-5,-15,-6
1523066086318547,-4,3,-1,-23,-10,-12,-14,-6
1523066086319307,1,5,8,38,16,9,-29,5
1523066086319307,-5,-9,-12,-17,-2,-5,-11,-3
1523066086341645,-1,15,31,10,-7,-6,-2,-3
1523066086341645,-3,-10,-14,-1,5,6,13,3
1523066086341645,1,-10,-25,-16,-10,-5,2,-6
1523066086341645,-2,6,9,17,0,-1,3,0
1523066086364468,1,4,2,-9,4,2,-5,0
1523066086364468,0,1,-16,2,-2,-1,8,0
1523066086364468,-7,-8,-12,7,-3,-8,-3,-2
1523066086364468,1,-4,-7,-40,-7,5,-3,-3
1523066086378758,-3,-6,19,20,-1,-3,15,-1
1523066086378758,3,2,3,9,2,-2,-11,0
1523066086379465,-1,-2,-3,7,-3,-3,-8,-1
1523066086379465,-2,2,-20,-6,0,0,0,-2
1523066086401518,0,10,34,-2,4,4,13,3
1523066086401518,-11,-10,-20,-7,-3,-5,-14,-5
1523066086401518,3,4,27,-6,-2,3,16,10
1523066086401518,2,2,15,12,4,-3,2,1
1523066086424588,-3,-8,-28,-15,-7,-5,-3,-5
1523066086424588,-2,3,24,14,9,0,0,1
1523066086425584,0,5,-11,-1,-9,-2,-6,-5
1523066086425584,-4,-6,0,1,2,-1,-9,-1
1523066086438858,3,-9,-24,-10,2,4,6,3
1523066086438858,1,7,27,4,-1,-2,10,1
1523066086439622,-5,-14,-61,-19,-11,-7,-10,-8
1523066086439622,3,0,9,7,3,2,5,0
1523066086460935,-1,-1,-4,-8,-3,-4,-11,-3
1523066086460935,0,-5,-19,-1,-4,0,7,1
1523066086461678,3,18,12,-18,-3,-2,-6,0
1523066086461678,-3,-16,18,18,-4,-9,-13,-4
1523066086484862,4,-1,-21,-6,1,9,34,10
1523066086484862,-2,0,-5,-7,-2,0,0,2
1523066086484862,1,4,30,7,0,-1,-1,-1
1523066086484862,-1,-2,-15,-8,-4,-5,0,-3
1523066086498777,0,2,-10,-15,-1,-2,-14,-5
1523066086498777,0,-2,13,16,0,-2,4,2
1523066086499780,-1,-2,-9,-1,1,1,0,-1
1523066086499780,0,3,4,-4,0,3,-2,-1
1523066086521098,-1,-3,8,12,3,0,-7,-3
1523066086521098,0,0,-8,-12,-3,0,2,-1
1523066086521843,-3,-4,-6,4,-6,-5,-9,-3
1523066086521843,3,6,14,9,4,1,2,3
1523066086544905,-4,-4,-23,-20,-5,-6,-8,-2
1523066086544905,-3,-4,4,5,-2,0,7,-2
1523066086544905,-1,0,0,0,1,0,-4,-1
1523066086544905,-2,-4,-7,8,-1,-1,-5,-1
1523066086559202,10,10,-3,-9,-2,-4,-14,-7
1523066086559202,0,-2,18,7,2,4,45,9
1523066086559202,-4,-8,-31,-1,-2,-4,6,-4
1523066086559202,-7,2,13,0,2,6,11,6
1523066086581046,10,-5,9,0,-5,-4,-14,-5
1523066086581046,-5,0,17,-12,1,0,-28,-3
1523066086581998,-9,-21,-46,4,-2,-1,9,-4
1523066086581998,3,1,-9,7,-1,-4,6,-3
1523066086604362,4,-7,2,3,-1,0,-38,-4
1523066086604362,-19,7,-4,-5,-3,0,27,-9
1523066086605064,4,5,12,-1,2,1,-15,-3
1523066086605064,-8,-7,10,-4,-1,1,-18,-2
1523066086619097,3,12,-10,2,-4,0,21,5
1523066086619097,-15,0,22,15,1,-1,-14,3
1523066086619097,-1,-18,-15,-17,0,2,-4,5
1523066086619097,14,32,-26,-10,-3,0,19,-1
1523066086641403,-6,-13,-4,14,-1,-2,14,-3
1523066086641403,1,3,-6,-11,-1,-3,-24,-2
1523066086642158,-12,-22,-14,18,-4,-5,-4,-1
1523066086642158,6,11,27,4,3,2,8,6
1523066086664265,1,10,13,8,3,-2,-13,3
1523066086664265,-19,1,-6,-20,-5,-5,-2,-7
1523066086665221,0,-15,-20,-11,-6,-2,-18,-4
1523066086665221,0,-5,-16,-2,-2,-4,-7,-8
1523066086678462,-13,2,11,8,3,-2,-3,-3
1523066086678462,14,-12,7,8,4,5,-9,5
1523066086686495,-14,22,52,-27,0,4,16,1
1523066086686495,-16,-10,-17,0,-3,-2,-13,-3
1523066086701531,10,1,7,1,-3,-10,-45,-8
1523066086701531,9,0,-24,-2,-2,-4,7,0
1523066086701531,16,19,17,2,1,-2,-5,-3
1523066086701531,-36,-25,-5,-16,-5,-1,-7,7
1523066086724670,-3,1,1,16,3,1,4,0
1523066086724670,11,-9,-9,1,-4,-3,-12,-3
1523066086725381,0,7,-9,10,0,3,13,-1
1523066086725381,8,-2,3,-7,1,-6,-2,-2
1523066086737414,-4,-4,-15,-13,-4,1,11,0
1523066086737414,-8,-6,-12,-9,0,-2,4,-1
1523066086746440,10,10,19,28,4,-5,11,6
1523066086746440,3,-3,6,-5,-4,6,1,-1
1523066086761705,-12,-15,-14,-10,-4,-1,13,-1
1523066086761705,14,8,-14,-12,-4,-3,6,1
1523066086761705,-6,-3,-6,4,1,-8,-31,-4
1523066086761705,5,-1,0,1,3,-1,-2,-5
1523066086783846,-7,0,-5,-2,-1,-2,16,1
1523066086783846,1,-4,8,3,-3,3,11,4
1523066086791781,2,9,13,2,-1,1,4,-1
1523066086791781,-3,-11,-21,-1,-5,-7,-2,-1
1523066086797574,3,-1,-2,-3,0,2,4,4
1523066086797574,-2,-3,7,-2,-2,-2,-11,-3
1523066086806688,-1,10,27,6,3,4,-10,0
1523066086806688,6,-5,-11,-9,-2,0,19,0
1523066086821635,-5,-9,3,3,3,2,-2,-2
1523066086821635,5,7,-1,4,5,-2,-3,-4
1523066086821635,-7,-3,-4,2,4,5,4,-2
1523066086821635,0,-15,-31,-13,-6,-8,-18,-1
1523066086844983,0,16,36,4,-4,-2,6,1
1523066086844983,0,-1,-7,-7,-4,-1,-3,-1
1523066086844983,6,-4,-6,5,5,5,12,4
1523066086844983,1,-10,-17,5,3,2,6,1
1523066086858929,-5,4,2,1,-9,-4,5,-3
1523066086858929,1,-2,-13,-2,4,0,-14,3
1523066086858929,-9,-7,4,-8,-6,-1,0,-5
1523066086858929,4,8,11,4,8,4,-30,-4
1523066086880795,-1,0,1,-4,1,4,15,5
1523066086880795,-2,2,14,3,-3,-6,-13,-3
1523066086881795,3,9,7,8,5,3,23,6
1523066086881795,-2,1,-7,-2,-5,-6,-18,-7
1523066086904147,-1,4,26,-3,2,6,0,1
1523066086904147,2,-6,-23,-7,-5,-1,-2,-3
1523066086904860,0,-3,6,-7,-6,-6,-12,-4
1523066086904860,3,14,38,-1,-4,-6,-12,-6
1523066086918194,-4,-13,-57,-22,-1,-4,-3,1
1523066086918194,-4,-9,14,26,-3,-5,-2,0
1523066086926173,2,7,2,-16,-10,-4,-6,-3
1523066086926173,-4,-6,-17,8,5,-2,5,-1
1523066086941221,-2,-11,28,8,3,1,-2,-3
1523066086941221,-8,-6,-34,-29,-8,-6,-1,-1
1523066086941961,-7,-13,-3,14,-8,-12,-53,-10
1523066086941961,-3,18,6,5,6,7,12,2
1523066086964017,8,2,21,-4,1,-3,-7,4
1523066086964017,-17,-8,-17,-14,-11,-3,4,-9
1523066086965017,23,-1,22,7,5,5,8,28
1523066086965017,-41,-3,-6,-6,-5,-2,18,-24
1523066086978311,7,2,18,15,5,3,-1,0
1523066086978311,7,6,13,-14,-4,0,7,0
1523066086994100,1,-3,-31,-16,-8,-6,-32,-4
1523066086994100,19,2,6,1,-3,-3,-4,3
1523066087001368,-5,-1,-34,6,0,0,8,1
1523066087001368,1,5,52,4,3,3,31,0
1523066087002123,-9,-16,-38,-4,0,-1,-2,-8
1523066087002123,3,-4,31,5,-3,4,2,12
1523066087024476,-18,-6,-27,-10,-9,-7,-9,-11
1523066087024476,13,0,2,13,7,4,17,3
1523066087025182,-9,0,-5,-17,-4,-4,-4,-4
1523066087025182,7,1,0,0,-3,-3,7,4
1523066087038211,6,12,-4,-18,-3,-4,-8,1
1523066087038211,-15,-33,-10,14,1,2,-5,2
1523066087046239,4,22,29,21,6,2,11,-6
1523066087046239,-7,-10,-14,-7,-1,-2,-30,0
1523066087069522,-15,-12,-9,-6,-3,0,8,-3
1523066087069522,8,17,-3,0,1,-4,-17,-7
1523066087070302,-22,6,-11,0,1,1,25,-14
1523066087070302,-14,8,22,-2,0,1,20,6
1523066087084638,18,-10,-40,-2,-3,-7,-32,-1
1523066087084638,-31,2,34,1,2,0,13,3
1523066087085339,14,-14,1,0,-5,1,15,3
1523066087085339,10,5,-14,-2,-6,-9,7,-2
1523066087097371,15,12,-4,5,5,10,-19,-4
1523066087097371,0,-13,-21,-2,0,-6,-14,-3
1523066087106681,-49,-14,-3,-5,-17,-7,-2,-1
1523066087106681,11,9,11,-9,1,-4,-1,1
1523066087121531,11,-22,-55,4,2,-5,-12,0
1523066087121531,7,12,26,0,4,8,-10,1
1523066087121531,6,25,-4,-3,2,-3,3,-5
1523066087121531,33,-1,-7,11,15,12,-12,4
1523066087144804,-7,-2,13,-14,-2,10,51,17
1523066087144804,18,-3,-17,-21,-23,-15,-10,-19
1523066087144804,17,5,-24,30,6,-4,-10,6
1523066087144804,-15,-1,44,-1,4,3,29,3
1523066087157822,-1,-6,4,-8,2,0,-1,-5
1523066087157822,1,-2,-26,-9,-8,-2,-7,7
1523066087166832,-13,-14,-11,-24,2,4,3,-3
1523066087166832,10,4,-2,-13,-3,-2,-7,-4
1523066087180594,7,-3,15,37,3,-8,-4,2
1523066087180594,-21,5,0,-5,2,9,13,-3
1523066087181595,28,-5,4,-8,-9,-4,-4,-1
1523066087181595,-10,-1,-8,5,3,-3,0,1
1523066087204655,-5,-2,12,-11,-1,1,2,-4
1523066087204655,12,-5,-16,17,1,-3,-2,5
1523066087204655,-1,1,2,0,8,5,19,5
1523066087204655,5,-12,-12,3,-1,2,-3,0
1523066087217934,-19,10,9,-6,-10,-7,-9,-4
1523066087217934,9,1,-6,-7,7,3,4,1
1523066087226720,-3,-9,4,14,0,-2,6,0
1523066087226720,-35,-4,-7,-12,-11,-12,-29,-7
1523066087241012,-2,-5,2,2,1,4,27,5
1523066087241012,-1,11,-14,10,7,2,-8,0
1523066087241763,2,7,16,-13,-5,-4,-2,-5
1523066087241763,5,-4,-17,14,-3,-1,22,3
1523066087263817,-10,0,7,-2,-2,-14,-21,-6
1523066087263817,-9,-2,-15,-2,1,7,-1,-1
1523066087264814,7,3,17,-2,2,-1,14,3
1523066087264814,6,-3,0,2,-4,-3,-16,-5
1523066087287177,-4,4,12,1,1,5,23,2
1523066087287177,9,-5,-4,-1,-4,-10,-2,-2
1523066087287877,-1,-4,-4,-1,10,4,-7,-2
1523066087287877,5,10,-1,-1,-5,-1,6,-2
1523066087301147,-2,-2,-3,-5,-1,5,17,0
1523066087301147,-2,-4,-5,-2,-5,-8,-10,-3
1523066087301916,-1,0,-2,-5,-2,-5,-14,-3
1523066087301916,-5,-6,-19,-2,-4,-2,5,-1
1523066087324264,7,6,17,3,6,2,0,-2
1523066087324264,2,6,15,5,2,-9,-4,3
1523066087324979,-8,-21,-9,-4,-15,7,9,1
1523066087324979,8,-2,12,-4,6,5,4,1
1523066087347039,-4,4,9,7,-4,-6,-21,-8
1523066087347039,0,-24,-44,-9,-2,-1,14,2
1523066087347039,-3,0,3,0,7,0,-2,0
1523066087347039,5,-7,8,-5,-5,1,-1,0
1523066087361330,0,0,-6,10,4,6,-6,1
1523066087361330,8,25,21,5,4,-1,-6,-2
1523066087362078,-6,-4,19,-12,-10,-9,-6,-3
1523066087362078,-1,-4,-17,-16,-17,-7,-6,-5
1523066087384376,0,1,-57,-7,-1,-6,-15,-4
1523066087384376,-1,-4,-8,4,-1,2,5,0
1523066087385141,14,19,15,6,7,6,4,3
1523066087385141,-7,-20,-27,-3,3,-1,-8,-2
1523066087407341,-15,9,28,5,-6,-2,-8,-8
1523066087407341,-12,-5,-7,-9,-8,-1,1,-1
1523066087408201,-12,-1,-29,-2,-5,-5,-8,-4
1523066087408201,1,9,31,13,12,3,3,0
1523066087421231,5,-14,-28,-36,-15,-11,-5,-7
1523066087421231,-6,-3,0,13,2,1,-10,-2
1523066087421231,4,3,14,7,2,4,8,4
1523066087421231,17,14,1,5,2,-1,-1,1
1523066087444546,-5,-6,-17,-10,-3,1,-2,-1
1523066087444546,6,6,17,-3,-1,0,9,4
1523066087445300,7,6,12,-14,1,5,-9,3
1523066087445300,-10,-12,-4,23,-5,-6,3,-6
1523066087467390,6,8,25,7,5,5,-7,6
1523066087467390,-5,-3,3,-9,-1,-4,-7,-2
1523066087467390,-4,-7,-23,-10,-6,-6,2,-10
1523066087467390,-8,-1,19,-3,2,2,-15,6
1523066087481391,7,7,18,-8,-1,-7,-16,-3
1523066087481391,9,3,11,14,2,1,2,-4
1523066087481391,1,0,1,-5,-6,-3,2,2
1523066087481391,-3,-9,-15,-5,0,-5,-13,-4
1523066087504594,4,2,-17,-2,6,4,6,0
1523066087504594,-3,-6,-9,-15,-5,-2,-9,1
1523066087504594,-6,-2,16,19,0,-1,17,-2
1523066087504594,-17,4,7,5,4,-1,-6,-3
1523066087526516,-4,-12,-22,-1,-4,-3,11,2
1523066087526516,-1,-1,0,-2,-1,2,3,0
1523066087527512,-1,-4,15,0,2,-1,3,-1
1523066087527512,-3,-4,-40,-11,-8,-6,-12,-6
1523066087541661,-1,2,18,2,-1,2,31,4
1523066087541661,-1,2,8,5,2,1,-11,0
1523066087541661,-8,-14,-41,3,2,-1,-12,-1
1523066087541661,8,9,31,1,3,8,14,6
1523066087563613,-1,-5,0,-4,-1,0,8,1
1523066087563613,-3,-8,-3,-5,0,-2,0,-1
1523066087564612,2,8,-35,-3,-2,-6,-35,-7
1523066087564612,3,-9,7,0,-3,4,28,7
1523066087586673,-5,2,-3,8,2,0,-13,-3
1523066087586673,-1,-8,-5,0,2,5,12,4
1523066087587677,2,3,1,-2,-2,-3,-13,0
1523066087587677,-3,8,1,-10,-14,-12,-6,-1
1523066087601717,3,-5,11,-3,1,-1,11,-1
1523066087601717,5,9,24,3,6,4,-4,2
1523066087601717,2,-6,-27,-7,2,4,18,5
1523066087601717,2,1,6,8,-3,0,-3,-10
1523066087624111,-6,-1,2,9,1,1,37,16
1523066087624111,14,-2,-2,-3,29,32,16,8
1523066087625778,16,10,17,6,-5,-12,-39,-7
1523066087625778,-22,-9,-22,-12,-1,0,25,-2
1523066087646836,-50,-19,-18,33,4,5,-23,-10
1523066087646836,4,9,16,-14,3,6,38,-3
1523066087647838,34,-18,-15,-2,-6,-4,1,5
1523066087647838,22,-5,-11,-26,-8,-12,-33,-13
1523066087661043,75,32,11,30,2,-3,-2,36
1523066087661043,-24,3,-29,-29,-28,-27,-35,-24
1523066087669135,10,-3,1,10,-1,2,-2,7
1523066087669135,-23,-5,-10,12,11,4,11,-7
1523066087684938,5,-14,-2,-32,-1,2,-23,-5
1523066087684938,37,9,10,17,-8,-13,-18,3
1523066087685941,-53,-4,-9,-20,-5,-10,7,-12
1523066087685941,39,-6,14,9,5,10,33,22
1523066087707187,-27,18,-2,-13,-11,-9,-15,-17
1523066087707187,-1,-2,-8,6,4,2,6,0
1523066087707996,-11,-5,0,-4,-6,-3,9,-7
1523066087707996,10,-3,2,1,2,0,4,0
1523066087720264,-47,-1,9,31,2,1,7,-12
1523066087720264,-8,-9,-33,-34,-9,-6,-2,-4
1523066087729051,-2,4,11,2,3,1,1,2
1523066087729051,1,-5,-10,-2,-2,-2,-13,2
1523066087744350,10,-6,11,-8,-3,-2,0,-3
1523066087744350,-6,3,-3,-7,-7,1,-7,3
1523066087746095,-8,-8,12,28,10,3,11,2
1523066087746095,-8,11,-2,-4,4,-7,-12,-4
1523066087767170,4,0,8,-14,-1,6,-16,-10
1523066087767170,-19,-16,-8,-7,-7,-8,-8,-6
1523066087768162,6,0,-2,-3,2,2,2,0
1523066087768162,-3,3,7,8,3,5,-1,0
1523066087780187,6,-2,-1,4,0,-2,-2,-1
1523066087780187,5,-6,2,1,2,1,11,6
1523066087789213,-1,0,-3,-6,3,5,-1,-4
1523066087789213,2,-1,6,9,1,-11,-20,-2
1523066087804259,7,8,-10,-7,-17,6,5,2
1523066087804259,-11,-13,-17,-6,7,1,1,-3
1523066087805256,-5,-5,-2,-10,-7,-7,-8,-3
1523066087805256,-6,13,21,-5,-1,1,-8,-2
1523066087826610,5,-12,-14,-3,-1,-6,-3,-4
1523066087826610,3,10,27,17,4,0,-4,3
1523066087828317,1,-1,-3,20,2,5,7,2
1523066087828317,-2,-10,-4,-9,-2,5,0,0
1523066087840616,3,6,-6,-7,-2,-3,-3,-4
1523066087840616,-3,8,1,11,-8,-7,-11,-2
1523066087849370,-4,-5,10,-28,-4,-4,-3,-1
1523066087849370,-19,-6,-3,13,2,5,13,-1
1523066087864414,4,3,13,-7,2,-1,-1,-2
1523066087864414,-7,-12,-28,-2,-6,-6,-2,-5
1523066087865414,6,16,8,2,0,-1,-8,3
1523066087865414,4,5,-5,9,10,8,7,5
1523066087886471,-6,-12,23,-13,-12,-7,-4,-4
1523066087886471,1,5,-3,8,4,2,-4,0
1523066087888476,2,7,15,-7,-1,1,13,4
1523066087888476,10,2,-26,-24,-14,-9,-4,1
1523066087900766,-8,-4,-20,9,4,-5,-7,-1
1523066087900766,-5,-12,7,0,0,0,-12,-1
1523066087909536,0,2,-2,1,2,2,3,3
1523066087909536,3,16,-7,1,-3,-5,-14,-5
1523066087924825,-5,-29,-14,-7,-3,3,1,0
1523066087924825,0,4,11,18,7,8,17,8
1523066087925575,-1,1,-9,-14,-11,-16,2,-7
1523066087925575,-16,-9,-6,-6,-2,13,3,3
1523066087946631,11,13,4,-13,2,-3,-6,-3
1523066087946631,-4,-12,-12,27,-4,-8,-9,-7
1523066087948634,2,3,11,-1,3,5,10,2
1523066087948634,-1,-10,16,-18,-10,-7,-5,1
1523066087960937,-3,3,-40,10,0,-4,-9,-7
1523066087960937,7,0,9,-10,4,6,6,3
1523066087969694,-3,-4,-2,-22,-2,0,-10,-3
1523066087969694,6,14,15,24,-4,-3,-2,-4
1523066087984786,-5,-9,0,2,-1,-3,-29,-2
1523066087984786,1,3,3,-4,-1,-5,11,-1
1523066087985738,1,-10,-12,-1,2,6,2,3
1523066087985738,-1,2,9,-4,3,1,-18,0
1523066088007074,24,1,-8,-8,0,3,35,11
1523066088007074,-10,11,-4,12,-4,-4,-25,-7
1523066088007797,-3,3,26,5,-3,2,-7,-1
1523066088007797,-2,-3,-1,-4,0,-2,22,-4
1523066088021087,-1,2,8,7,-2,-3,-18,-3
1523066088021087,2,-8,-3,-18,-3,-4,-12,-1
1523066088028851,-15,-7,-21,6,2,-3,-29,-12
1523066088028851,21,-8,-28,2,-3,-3,6,29
1523066088044127,-30,0,4,-8,-4,-2,-2,-22
1523066088044127,6,7,17,-3,1,-1,10,-2
1523066088050960,7,-7,-21,6,3,5,0,17
1523066088050960,45,3,1,-20,-5,-6,7,-3
1523066088067195,-11,9,1,16,4,3,-19,-2
1523066088067195,7,-7,-5,-2,0,2,14,8
1523066088067957,7,-6,-8,8,-1,1,18,12
1523066088067957,4,20,3,-8,-4,-3,3,-10
1523066088079985,4,-10,-5,-7,3,3,12,9
1523066088079985,2,10,7,-3,-7,-3,-16,-16
1523066088089262,-8,-10,-1,-1,5,1,16,3
1523066088089262,-21,-15,-9,-2,-4,-1,-2,-6
1523066088104085,50,13,6,0,-6,-6,5,4
1523066088104085,-21,-14,6,2,3,-1,-5,5
1523066088110336,-1,9,0,-15,-32,-29,-26,-18
1523066088110336,-12,-5,-2,4,10,10,-4,-5
1523066088127364,-13,2,16,-1,-6,-12,4,-2
1523066088127364,47,-1,10,-10,5,16,15,6
1523066088128114,-86,9,-1,17,14,10,4,-8
1523066088128114,38,-20,-19,-1,-11,-10,-25,-9
1523066088140417,-37,6,27,-13,-7,-8,4,-1
1523066088140417,-7,-6,-7,2,-7,-14,-3,-4
1523066088149247,12,0,1,5,0,-3,-23,-10
1523066088149247,-7,-3,-13,-21,0,0,38,3
1523066088163210,2,-15,4,29,11,12,-14,6
1523066088163210,-36,-10,11,-7,-7,-9,-40,-7
1523066088170377,50,10,-20,1,9,18,55,9
1523066088170377,-28,0,2,3,1,4,17,-2
1523066088186268,19,-9,-11,-17,-1,-1,12,6
1523066088186268,8,3,2,-2,1,-7,6,-4
1523066088188275,-50,-11,0,0,-12,-3,-38,-10
1523066088188275,6,9,29,35,10,7,12,11
1523066088200537,22,-19,-40,-26,2,5,12,-3
1523066088200537,-19,3,-2,1,-5,-2,4,0
1523066088209333,13,-5,-6,-25,-1,-10,-34,-4
1523066088209333,-17,-5,22,9,3,-5,-11,-4
1523066088223620,-3,6,-5,11,-4,-1,-9,-6
1523066088223620,0,11,14,-1,4,7,11,-1
1523066088230386,17,-11,6,4,-5,-6,-30,-2
1523066088230386,-21,5,0,-9,-24,-11,-7,-8
1523066088246427,1,-2,7,2,10,9,7,3
1523066088246427,9,3,-37,-17,-3,-1,1,6
1523066088248437,0,4,6,8,8,8,20,-2
1523066088248437,-2,-1,3,10,-5,-11,-25,-6
1523066088269490,-9,-1,-19,-15,-5,-5,-2,-2
1523066088269490,0,-6,-9,5,-6,0,13,2
1523066088270493,6,-6,31,4,3,3,12,-1
1523066088270493,-8,-2,-21,-5,5,1,-8,-5
1523066088283786,0,-2,20,0,-3,-2,1,2
1523066088283786,-6,-4,1,-10,2,0,-5,-3
1523066088290814,15,11,14,17,-3,-3,13,3
1523066088290814,-3,-3,8,-12,1,1,-7,1
1523066088306877,-9,4,11,5,1,-1,-2,-3
1523066088306877,3,-12,-28,9,2,1,-2,-1
1523066088308594,6,8,11,-9,-12,-8,-4,-2
1523066088308594,4,5,-17,-6,-3,7,-1,-2
1523066088328654,-8,-11,0,-12,1,-2,0,-1
1523066088328654,5,3,-13,35,7,4,6,-1
1523066088330650,3,-1,5,-26,-4,-3,6,-1
1523066088330650,-8,-2,3,10,5,-4,-9,-5
1523066088343944,-1,-3,17,5,0,-3,-5,-3
1523066088343944,3,5,14,-20,-9,-5,-4,0
1523066088351000,-2,-2,-14,3,0,-3,2,-1
1523066088351000,-6,-8,10,7,0,-1,-10,-4
1523066088366991,-4,-3,-2,-4,-1,0,3,1
1523066088366991,-5,1,28,-4,-2,-3,1,0
1523066088367758,2,1,-36,12,0,2,-3,0
1523066088367758,-9,-12,-13,-14,-2,1,13,0
1523066088389870,-1,-3,-12,2,-3,-3,-3,-2
1523066088389870,-1,3,-1,-7,-4,-3,1,-1
1523066088390815,-3,-15,-3,6,7,4,8,0
1523066088390815,3,3,-8,-5,0,-1,-34,-3
1523066088402845,-3,14,11,-20,-3,-2,-3,-3
1523066088402845,-9,1,7,24,-9,-8,-3,-4
1523066088411868,4,-4,11,2,2,4,12,5
1523066088411868,8,-5,-19,-18,-2,-3,4,-2
1523066088427201,-2,9,-1,43,-4,-5,-9,-2
1523066088427201,-1,1,-6,-25,4,5,0,1
1523066088427911,2,4,43,3,5,1,0,-4
1523066088427911,-5,5,-17,-4,-4,-3,-2,-3
1523066088457312,2,-7,-17,-5,0,0,-13,2
1523066088457312,7,-7,-1,-1,-3,1,14,0
1523066088457992,-7,12,-19,2,-4,1,2,-1
1523066088457992,-3,-2,7,9,-3,-6,-11,-2
1523066088463006,6,-5,-5,-33,-1,5,39,6
1523066088463006,-33,-3,4,26,2,-4,-8,-5
1523066088472029,0,-4,-16,-31,0,0,16,5
1523066088472029,-7,-11,4,4,-2,-3,-22,-1
1523066088487319,10,5,2,8,-1,-2,-9,-3
1523066088487319,5,-1,-4,-6,-2,-1,0,-2
1523066088488073,-3,-2,-3,-8,0,2,1,-1
1523066088488073,-8,0,5,11,3,0,5,-1
1523066088509388,-3,-4,-3,1,-1,-1,-1,0
1523066088509388,10,-5,0,-12,-1,2,-2,2
1523066088511133,3,-2,-4,7,-3,-4,-13,-4
1523066088511133,7,6,6,4,1,2,15,3
1523066088523457,-7,-5,-6,-4,-2,-3,-9,-8
1523066088523457,3,1,2,-5,-1,-4,-17,-2
1523066088532189,12,10,-1,-4,-1,1,18,10
1523066088532189,-17,-11,-12,16,-1,-2,7,-7
1523066088546226,-7,-8,5,-8,2,14,31,5
1523066088546226,6,14,24,0,-2,-4,-22,-3
1523066088548236,9,-13,-12,-1,0,-1,7,3
1523066088548236,-57,-6,10,-8,1,3,17,-12
1523066088569288,-2,-19,-10,9,-3,-2,-5,8
1523066088569288,15,-1,-11,-5,-4,-3,-17,4
1523066088570292,-45,-15,-6,-3,2,-11,-18,-20
1523066088570292,-10,2,19,-13,-3,3,23,7
1523066088583383,5,6,-39,27,1,-4,-11,-5
1523066088583383,-2,-17,-14,-35,3,9,26,5
1523066088591594,13,2,-6,0,-12,-11,-31,-8
1523066088591594,-14,-1,32,-1,4,-6,-10,9
1523066088607402,5,15,-31,-22,-12,-5,-26,-14
1523066088607402,23,-4,22,10,-1,-13,10,5
1523066088608391,-11,2,26,5,18,22,8,1
1523066088608391,52,17,-3,6,2,5,6,3
1523066088629450,-8,-7,-5,-5,3,0,0,1
1523066088629450,-9,10,8,4,-2,-4,-1,-6
1523066088630452,14,-1,-24,0,2,2,8,6
1523066088630452,11,11,5,1,-3,-2,-11,0
1523066088643518,1,-3,14,0,1,-3,4,1
1523066088643518,-3,-6,-13,7,-2,-2,-7,-4
1523066088651724,-13,4,2,2,-5,-6,-3,-5
1523066088651724,8,6,-29,-43,-2,2,17,2
1523066088666806,48,-11,1,-5,-2,3,4,20
1523066088666806,48,15,8,37,3,-1,-25,-12
1523066088668550,26,-4,-16,5,0,5,25,6
1523066088668550,3,-7,-11,-5,-4,-6,-18,-11
1523066088689895,6,9,24,-8,-5,-7,6,8
1523066088689895,-22,-7,-4,-3,4,9,21,3
1523066088690611,-12,-4,2,-4,-2,-5,-7,-5
1523066088690611,21,12,-7,11,-3,1,-7,7
1523066088711673,-19,0,14,15,3,2,-1,-8
1523066088711673,-14,0,-14,-3,-5,-3,-6,-2
1523066088713673,-8,-7,-2,-9,-7,-4,31,-3
1523066088713673,-1,-10,-5,-3,6,8,-3,6
1523066088734857,-10,3,10,-1,2,-10,-9,-6
1523066088734857,-22,-5,-10,-11,6,15,8,-4
1523066088735730,10,-2,19,-1,-10,-5,-9,7
1523066088735730,-1,-7,-19,2,0,-4,-6,-3
1523066088749767,-8,5,2,3,1,2,3,-5
1523066088749767,3,-1,-13,-5,0,0,-4,1
1523066088750773,1,0,8,-4,1,-2,-16,-1
1523066088750773,0,-6,2,8,-3,-2,15,-2
1523066088762802,-14,-14,-15,-11,-2,-18,-36,-11
1523066088762802,3,4,7,-11,-3,9,19,6
1523066088771831,0,8,14,17,-12,2,-9,-1
1523066088771831,-6,-4,-38,-13,0,-5,-6,-4
1523066088787007,1,1,34,17,11,3,-6,-5
1523066088787007,-5,4,-5,-10,1,-13,-12,-4
1523066088787874,0,-4,-7,2,0,4,12,2
1523066088787874,4,-5,11,5,-5,-3,-13,-2
1523066088809193,-4,9,-4,-13,-8,4,14,1
1523066088809193,-13,-5,-13,16,4,0,15,1
1523066088810931,-1,7,-13,4,2,-4,-12,-4
1523066088810931,-2,-3,26,-14,-3,0,-4,-2
1523066088823231,-1,-4,-34,-5,-7,-1,-1,-1
1523066088823231,-4,0,17,-8,-4,-2,3,2
1523066088831990,1,-1,-9,-1,0,-4,-5,-1
1523066088831990,-1,-3,-8,11,2,3,3,-3
1523066088847026,-3,3,11,-1,-6,-1,-3,-1
1523066088847026,2,-4,-7,1,-1,0,-2,2
1523066088848028,1,1,-10,-7,-3,-4,-6,0
1523066088848028,3,5,24,14,3,-5,-7,-1
1523066088869330,-1,2,0,-7,-1,2,5,-3
1523066088869330,-3,-13,-18,-11,-5,-2,18,-1
1523066088871089,-1,5,12,7,8,2,-9,-2
1523066088871089,3,-10,4,-10,-6,-2,-3,-4
1523066088883329,0,-2,-34,16,7,1,1,0
1523066088883329,-3,-1,29,-12,-13,-2,9,-2
1523066088892149,-18,-17,-5,2,0,-6,-18,-4
1523066088892149,-2,13,-28,-9,1,8,28,9
1523066088907396,0,3,48,6,0,0,-4,-2
1523066088907396,-5,-1,-4,-5,-4,-6,-22,-5
1523066088908190,-2,-8,5,2,3,2,-7,1
1523066088908190,1,-2,1,5,0,0,-8,1
1523066088929247,-1,4,6,-16,0,0,0,1
1523066088929247,-1,5,2,19,-1,-5,-25,-1
1523066088930248,13,16,15,-1,0,3,7,-1
1523066088930248,1,-1,-3,-3,-5,-9,-13,-5
1523066088943533,-7,-4,-11,-7,-9,-1,-4,-2
1523066088943533,11,4,18,-8,3,-4,-15,3
1523066088951562,-11,-9,-41,1,1,-2,-14,-8
1523066088951562,-4,1,20,-4,0,2,2,-2
1523066088966575,22,-4,6,-4,1,-2,-3,3
1523066088966575,-21,-4,-12,5,4,2,21,-3
1523066088973524,4,-2,-17,-8,-7,-5,-17,-3
1523066088973524,-3,-2,0,-34,-1,-2,12,1
1523066088989666,3,3,30,29,1,-1,-5,-1
1523066088989666,1,1,-21,17,0,-1,3,-3
1523066088990412,2,-14,-16,-7,1,7,11,10
1523066088990412,-5,5,-15,-6,-3,-6,-9,-10
1523066089002678,-21,-16,-7,-15,-3,-3,-16,-2
1523066089002678,-13,-1,-10,0,-2,0,23,31
1523066089011469,0,10,39,0,-6,-8,-14,-18
1523066089011469,34,-9,6,9,1,0,-8,2
1523066089026748,-6,3,-4,-2,-1,0,2,0
1523066089026748,-26,-18,-40,0,3,2,-1,-7
1523066089033562,3,0,7,-8,-2,1,29,8
1523066089033562,1,7,9,9,-1,0,-15,2
1523066089049793,18,10,4,1,-4,1,6,-2
1523066089049793,7,-7,-4,-8,-1,-2,-34,-17
1523066089050568,46,7,4,-14,-4,-5,45,7
1523066089050568,-2,7,-9,22,2,4,8,-3
1523066089062601,-10,-1,-17,6,-3,-2,-2,-1
1523066089062601,24,13,10,-19,-1,-1,-4,1
1523066089071737,-14,-13,-6,24,6,3,-14,-3
1523066089071737,-10,9,8,-2,-11,-8,4,-5
1523066089085895,9,-1,18,-5,-2,-2,2,-1
1523066089085895,4,-5,-15,18,2,-3,-4,0
1523066089092948,-16,-1,-1,-4,-10,-9,-33,-2
1523066089092948,46,-9,-22,-33,4,6,4,14
1523066089109770,0,11,12,25,4,1,-9,-15
1523066089109770,-18,-6,-14,-6,-3,-2,3,-10
1523066089110730,-2,11,41,9,2,0,-1,2
1523066089110730,-13,-15,31,12,3,-1,-14,12
1523066089123026,26,10,-25,-11,1,5,13,-1
1523066089123026,-37,-6,13,-6,-1,1,-19,-7
1523066089131788,-5,-7,-14,8,0,3,11,8
1523066089131788,-6,-4,-12,-15,-9,-8,-25,-12
1523066089145822,-43,-11,-7,-7,5,9,51,6
1523066089145822,9,-2,9,5,-1,-1,-16,-10
1523066089153033,-13,-7,-13,6,13,2,6,4
1523066089153033,-32,-3,-11,-51,-13,2,6,-11
1523066089168884,10,-11,-18,81,1,6,9,7
1523066089168884,15,-6,-12,-32,-8,-9,7,-1
1523066089170888,0,18,-7,-7,0,8,0,-9
1523066089170888,4,-1,5,17,9,1,16,-1
1523066089192186,-3,-5,-3,-12,1,-2,-7,-2
1523066089192186,-1,7,25,7,-7,-7,13,-2
1523066089192950,4,-4,-17,-10,-1,0,-2,-5
1523066089192950,-11,-3,-8,19,-1,-20,-7,-6
1523066089214149,-2,4,9,-20,-15,16,2,5
1523066089214149,17,2,0,2,20,8,0,5
1523066089216008,-8,-8,3,-7,3,-1,-8,-2
1523066089216008,-6,-3,-9,19,-1,2,-17,-1
1523066089229043,5,15,3,-24,-2,-18,-6,-2
1523066089229043,6,-6,11,4,-2,6,8,1
1523066089231053,-2,0,-25,-8,-13,3,12,-1
1523066089231053,-8,3,23,14,6,-1,6,1
1523066089251341,5,4,-14,-21,0,-9,-24,-2
1523066089251341,0,-4,-1,-4,-9,1,7,3
1523066089253108,-2,0,6,11,7,0,10,0
1523066089253108,0,1,14,-3,-11,0,8,1
1523066089266378,-2,4,1,-9,-1,-15,-13,-2
1523066089266378,6,3,-8,6,3,18,-3,3
1523066089273287,-4,-7,5,-5,-6,-8,-14,-3
1523066089273287,-3,-1,-4,6,5,2,2,0
1523066089290204,-4,-9,-7,-7,-3,0,-3,-3
1523066089290204,-1,5,-4,-9,-6,-15,-3,-4
1523066089291213,-1,-1,-12,-2,4,9,3,1
1523066089291213,1,-4,27,4,-1,3,0,3
1523066089311268,-12,-16,-28,-7,0,-2,-2,-1
1523066089311268,3,-4,-21,9,0,0,1,0
1523066089313269,3,7,32,-9,-3,-7,-8,-2
1523066089313269,-5,-7,-36,-8,-9,-8,-19,-6
1523066089325552,1,-2,10,11,12,6,-5,2
1523066089325552,10,6,17,-6,0,-2,-2,1
1523066089334326,-5,-2,-2,2,-9,-6,-8,-4
1523066089334326,-4,-5,-23,-1,2,2,6,-1
1523066089349599,-1,-2,-4,-10,-1,-1,-4,-3
1523066089349599,-3,-3,9,4,-1,-6,0,-1
1523066089350365,-1,-7,4,4,0,1,-2,-1
1523066089350365,4,15,-1,-2,-3,-4,5,-3
1523066089371669,-2,-4,0,-13,-6,1,26,1
1523066089371669,-1,-3,4,11,-2,-7,-26,-6
1523066089373428,-4,-4,3,5,1,-2,13,-3
1523066089373428,-2,-7,-17,-3,4,2,6,4
1523066089385459,4,12,13,9,-3,2,2,1
1523066089385459,-1,7,-11,-4,-2,0,2,-2
1523066089394485,-2,-4,-18,-22,-7,-10,-18,-3
1523066089394485,6,7,0,40,4,4,4,-1
1523066089409752,-4,-2,2,-15,1,-3,-2,-1
1523066089409752,-13,-6,-3,-2,-2,3,7,0
1523066089410525,7,1,-15,1,2,0,0,1
1523066089410525,-4,-1,9,-7,-3,-2,1,1
1523066089431824,-4,-7,-21,-1,-2,-2,-7,-1
1523066089431824,7,13,5,-15,0,1,1,-1
1523066089433594,-10,-26,-11,21,-1,-1,-6,-3
1523066089433594,-1,6,26,-5,0,1,-7,0
1523066089445619,-1,-9,1,5,0,-4,-6,-3
1523066089445619,3,13,18,0,-1,3,13,0
1523066089454645,-1,8,9,-26,-1,-3,-3,1
1523066089454645,0,-11,-7,22,4,-1,1,0
1523066089468682,0,5,15,4,-5,2,-2,0
1523066089468682,0,-6,-5,-10,0,2,-17,1
1523066089470688,8,6,-3,1,-1,-2,0,-3
1523066089470688,-3,-6,-15,11,-5,1,8,1
1523066089492009,-7,6,-1,-20,-5,-6,-4,-2
1523066089492009,2,-11,-2,9,-2,-7,-23,-7
1523066089492747,13,2,9,-3,-1,4,3,11
1523066089492747,-4,6,7,-4,3,1,5,-5
1523066089506046,7,-1,1,0,-1,-3,1,0
1523066089506046,1,-7,-5,0,-3,0,-1,-2
1523066089512799,12,8,4,2,-2,-7,-49,-8
1523066089512799,-6,-29,-19,-15,-4,-1,-17,0
1523066089528841,-8,-6,-8,8,-2,-6,4,21
1523066089528841,-18,6,4,2,5,2,11,-46
1523066089530850,34,7,21,-4,-3,0,7,7
1523066089530850,-74,7,-12,-5,-3,-7,-18,-14
1523066089551903,19,-4,-5,-2,2,0,18,-5
1523066089551903,27,10,-18,-8,-4,1,-4,15
1523066089552902,-23,-11,7,14,-3,-9,8,-5
1523066089552902,21,13,12,-38,-13,-4,2,-4
1523066089565938,2,1,-2,15,6,0,1,4
1523066089565938,14,-2,4,-15,-10,-2,6,8
1523066089574104,-4,-4,-19,6,-8,-6,-25,-10
1523066089574104,19,-1,16,19,13,10,64,13
1523066089589270,-7,-4,4,6,7,6,9,-3
1523066089589270,-2,-18,-8,-11,-5,-3,-4,3
1523066089591008,25,3,25,9,4,6,-4,1
1523066089591008,-25,15,15,9,-6,-1,-12,-14
1523066089612063,0,-32,-27,-34,-3,-7,-15,-14
1523066089612063,36,5,0,9,7,-2,9,2
1523066089613063,-58,-8,-27,-27,-2,6,42,0
1523066089613063,16,7,-11,8,2,3,-26,-1
1523066089625354,25,9,21,-12,-2,3,-2,9
1523066089625354,-21,-12,-7,1,0,-3,-15,5
1523066089634120,-7,0,-8,-14,0,3,34,-1
1523066089634120,29,1,0,-1,0,-5,-1,1
1523066089649384,-17,8,-5,9,-1,-1,-23,1
1523066089649384,-16,-8,5,5,1,-2,-1,2
1523066089651165,5,8,0,-4,0,0,-29,5
1523066089651165,-11,-9,1,17,9,0,1,0
1523066089671480,5,-1,2,6,-9,3,11,-5
1523066089671480,-13,4,0,-13,3,0,10,2
1523066089673228,-7,-3,0,3,-4,1,2,-3
1523066089673228,13,-6,-11,0,0,-2,-7,-1
1523066089685514,-12,-4,1,0,-3,-15,-24,-11
1523066089685514,3,9,20,17,-3,-8,2,3
1523066089694283,-3,5,-21,-23,2,19,29,3
1523066089694283,-6,-13,-3,-7,3,-1,-10,0
1523066089708611,-4,5,10,5,1,0,-9,-3
1523066089708611,-16,-8,5,4,4,-5,1,-3
1523066089715551,6,11,22,0,-11,-21,-8,-3
1523066089715551,3,4,-8,2,6,9,11,3
1523066089731626,-4,-12,-19,-1,0,-3,3,-1
1523066089731626,-1,-1,-12,3,-4,6,5,2
1523066089733388,-6,0,31,2,2,4,-5,-3
1523066089733388,2,-3,-14,-18,-10,-8,-8,-1
1523066089745418,-4,5,10,14,5,0,-5,-3
1523066089745418,9,4,-2,3,4,9,9,4
1523066089754442,-9,-27,-51,-9,-20,-11,-11,-2
1523066089754442,0,3,23,-2,5,0,0,3
1523066089769481,-6,-14,-36,-9,-4,1,2,-7
1523066089769481,-4,-3,8,4,2,-4,-1,0
1523066089770484,0,1,1,15,10,7,-1,0
1523066089770484,3,0,3,-11,-13,-8,-6,0
1523066089791835,2,3,12,-3,6,7,-2,-1
1523066089791835,-4,-2,-12,-7,-9,-3,9,1
1523066089793547,-1,-1,-22,14,6,-3,-9,-3
1523066089793547,2,8,55,-16,-13,-4,3,-1
1523066089805836,0,0,-9,4,-1,-3,0,-4
1523066089805836,-6,4,1,7,0,-1,-6,-3
1523066089814601,-2,-1,3,-1,3,-4,1,-1
1523066089814601,-1,-8,-25,1,4,-1,18,3
1523066089828638,2,12,30,3,0,2,-7,0
1523066089828638,-3,1,18,-13,-8,-3,-3,-2
1523066089830645,2,1,1,3,6,1,-3,5
1523066089830645,-8,-12,-26,1,5,6,3,-4
1523066089851700,-4,-4,5,-23,-16,-9,0,-1
1523066089851700,0,1,-9,4,0,0,-21,2
1523066089852703,2,1,-9,0,6,0,-12,-1
1523066089852703,1,-1,-24,9,-4,-3,7,-2
1523066089865966,-2,4,9,0,0,3,-5,0
1523066089865966,-6,-13,-28,-5,-2,-3,-4,-2
1523066089874765,4,17,37,-15,-2,1,7,1
1523066089874765,-3,4,49,16,-5,-4,-14,-3
1523066089889866,-2,-7,-40,-5,1,3,8,0
1523066089889866,-4,-1,7,4,0,-3,-1,-3
1523066089890807,-5,-9,-21,-16,-10,-9,-26,-9
1523066089890807,8,5,3,16,11,7,-8,7
1523066089911860,-18,1,8,0,-4,0,1,-4
1523066089911860,6,9,15,2,-2,-12,-33,-5
1523066089912860,-4,-15,-24,6,1,1,-8,-1
1523066089912860,-3,-2,-1,-7,0,5,19,9
1523066089926034,2,-1,-3,4,0,-1,-6,-4
1523066089926034,1,4,-21,-10,0,5,13,1
1523066089934133,-1,2,26,3,-6,-9,-15,-5
1523066089934133,-3,-2,-20,-6,0,-1,0,-5
1523066089949184,4,-1,10,10,5,5,7,3
1523066089949184,0,1,16,2,-5,-6,-8,-3
1523066089956011,4,9,-3,-6,-1,0,9,-1
1523066089956011,-2,-21,-25,-6,3,13,42,10
1523066089972267,4,16,37,-1,-4,-3,-3,6
1523066089972267,-12,-39,-43,4,0,-5,-13,-8
1523066089973022,-2,-15,-29,-2,0,1,10,-4
1523066089973022,-1,8,-5,-11,-8,-12,6,-8
1523066089985055,2,-2,1,9,7,9,23,12
1523066089985055,-1,-2,1,-9,1,11,38,6
1523066089995082,-7,-2,11,5,5,6,15,1
1523066089995082,-1,-11,-16,9,-5,-4,-9,-5
1523066090009196,-2,-6,-1,-3,-4,-7,-8,-6
1523066090009196,14,8,34,4,1,0,0,-1
1523066090015396,2,3,-28,-9,-5,-6,-1,-7
1523066090015396,1,-9,-26,-10,-5,-7,-10,-3
1523066090032213,-3,-7,3,20,6,8,29,8
1523066090032213,8,12,12,-10,-3,-1,-11,1
1523066090033187,-6,-8,40,19,-3,-13,-25,-13
1523066090033187,-1,5,4,-11,1,0,-7,-1
1523066090045214,-7,-10,-24,-8,1,-3,-14,-2
1523066090045214,32,17,9,7,0,7,29,3
1523066090054240,-84,-24,0,-14,-6,-14,-48,-6
1523066090054240,50,11,18,9,-3,-6,-30,-5
1523066090068276,0,-11,-5,-11,-1,0,21,1
1523066090068276,-15,-1,-7,4,0,-2,-19,-10
1523066090075562,28,8,6,3,-6,-3,5,8
1523066090075562,0,17,1,-5,1,-8,-41,-6
1523066090092340,-19,3,-8,-2,3,1,-27,-17
1523066090092340,17,-7,-30,5,-9,-2,11,11
1523066090093345,3,-15,12,-9,-4,2,-6,-5
1523066090093345,-12,-14,-30,7,0,4,23,5
1523066090121418,22,13,-1,1,0,-3,-7,-5
1523066090121418,-31,1,-3,-10,-3,-10,-40,-7
1523066090123425,75,2,12,14,9,10,52,28
1523066090123425,3,18,-23,4,4,3,-12,0
1523066090128436,-10,-14,6,-8,-5,-5,-2,4
1523066090128436,-21,-10,-15,-3,-2,-5,4,-6
1523066090135691,-9,14,-12,2,-2,3,6,2
1523066090135691,36,-3,23,-6,-2,-4,4,1
1523066090153618,-22,7,-33,0,-6,0,16,10
1523066090153618,69,0,2,-10,-1,1,9,25
1523066090154505,-83,-27,-26,6,7,5,7,-11
1523066090154505,-8,6,11,-6,-2,-1,4,-5
1523066090174799,-1,-1,7,1,-2,-6,-20,-11
1523066090174799,-3,-5,1,-2,-1,-1,-12,-2
1523066090175561,-3,13,12,-4,1,3,18,-2
1523066090175561,-24,-14,-7,-17,-8,-3,-22,-1
1523066090188966,16,1,5,1,-6,-7,-4,3
1523066090188966,-26,8,5,-2,5,4,2,-11
1523066090195614,21,4,6,17,-3,3,0,-1
1523066090195614,-13,-2,-10,-20,-6,-7,-4,-4
1523066090211657,10,4,10,7,-2,-6,-8,-5
1523066090211657,-8,-3,5,-6,1,8,11,-5
1523066090213662,8,3,-14,-11,-6,-3,-2,-1
1523066090213662,-5,-2,11,9,7,1,7,1
1523066090234023,-2,-4,-2,-2,-13,-7,-10,-8
1523066090234023,-10,-7,1,6,8,2,-3,-2
1523066090235721,14,6,-5,-6,-6,4,-4,3
1523066090235721,-6,7,-4,6,2,3,23,6
1523066090249069,0,-13,4,2,6,-4,-11,-3
1523066090249069,-7,-2,-9,0,-1,9,10,-3
1523066090256045,14,5,5,-6,-13,-6,-6,-1
1523066090256045,-4,-3,10,3,4,0,-9,-4
1523066090272118,1,2,3,-9,7,2,3,-3
1523066090272118,-6,-8,-16,-1,-11,-4,5,-1
1523066090272823,3,0,4,2,10,2,5,-1
1523066090272823,-7,-10,-13,-1,-4,-1,-8,2
1523066090293877,9,18,29,12,5,5,3,2
1523066090293877,-5,-2,6,-2,-3,-6,2,-2
1523066090295881,-4,-9,-3,-9,-5,-1,2,-3
1523066090295881,0,6,24,5,-5,-9,-8,-4
1523066090308183,1,-8,-1,-10,1,10,10,3
1523066090308183,0,8,-8,13,7,2,3,-1
1523066090316940,4,15,36,9,5,-1,2,2
1523066090316940,-11,-18,-41,-17,-11,-3,-2,-4
1523066090332274,0,-6,28,11,2,-5,-8,-6
1523066090332274,-2,3,4,-20,-11,-9,-5,-4
1523066090332979,2,-7,-31,-7,-3,1,40,6
1523066090332979,-1,-6,17,19,14,12,7,5
1523066090354298,1,13,-27,-14,-10,-15,-1,-6
1523066090354298,-6,-6,16,11,3,5,-4,-2
1523066090356041,6,2,-9,4,0,0,-11,-1
1523066090356041,11,3,19,-9,-8,-5,-13,-1
1523066090368073,-14,-4,3,2,0,5,5,-1
1523066090368073,4,9,9,0,4,3,24,6
1523066090377096,-3,-12,-40,-5,-3,-4,-17,-6
1523066090377096,-2,0,-24,-3,-7,-7,-7,-4
1523066090392231,2,1,17,-29,0,5,-7,1
1523066090392231,1,6,4,33,-5,-8,-11,-3
