timestamp,emg1,emg2,emg3,emg4,emg5,emg6,emg7,emg8
1523179342402111,-6,-12,-16,8,61,0,-7,-10
1523179342402111,6,6,12,-4,41,1,-4,6
1523179342402613,3,-3,-18,0,-66,24,2,7
1523179342402613,5,-7,-2,-15,32,6,-3,13
1523179342424170,-6,4,9,3,16,6,2,-17
1523179342424170,-3,-1,-4,-15,-64,-30,1,-9
1523179342425173,5,3,-1,3,20,-16,-8,9
1523179342425173,-2,1,-8,-24,-110,-8,-12,-5
1523179342447231,-5,-5,-4,4,-74,8,10,-5
1523179342447231,-7,-7,2,3,13,-9,-2,-6
1523179342447738,0,-7,-6,-25,-6,-22,-4,7
1523179342447738,5,3,-7,-1,28,-11,1,-2
1523179342461768,-9,-1,-8,-9,40,1,-9,-7
1523179342461768,1,8,20,5,-8,-7,-1,-5
1523179342462775,2,-5,-2,26,19,10,8,9
1523179342462775,-7,-1,-5,-8,-5,20,-1,-4
1523179342484330,6,0,-7,-2,27,-9,-2,2
1523179342484330,-4,-1,5,-8,-96,-15,-2,-2
1523179342485332,3,2,-3,-10,45,4,6,-10
1523179342485332,5,2,11,19,51,2,2,8
1523179342506941,-2,-1,-11,-16,-91,-45,-19,-6
1523179342506941,-12,0,13,28,64,22,10,-2
1523179342507922,-3,-7,-9,-25,-51,-13,-15,-4
1523179342507922,-1,3,3,0,33,12,19,1
1523179342520928,6,-1,6,4,-79,-19,-8,4
1523179342520928,1,-2,-16,7,59,9,1,2
1523179342528947,-4,-1,9,-28,-87,-6,0,-4
1523179342528947,-3,-5,4,-12,17,-27,-12,5
1523179342544525,-3,3,-3,27,48,54,2,5
1523179342544525,2,-3,-7,-15,-11,0,8,-9
1523179342544992,-5,0,13,18,-97,-45,-5,-7
1523179342544992,-1,-2,-10,-27,5,19,-5,-2
1523179342567049,5,2,-2,-7,34,-9,9,8
1523179342567049,0,-10,-6,-3,-23,6,-3,-3
1523179342567552,0,-4,-13,-8,35,3,-6,2
1523179342567552,-4,3,0,12,10,-11,0,-10
1523179342580587,-3,-6,-2,-6,78,4,4,-1
1523179342580587,-1,0,-1,15,37,22,2,-2
1523179342589610,1,-5,-8,-32,-11,-15,0,4
1523179342589610,-2,4,6,11,8,12,0,3
1523179342604148,1,2,-2,-9,-39,-3,2,-11
1523179342604148,-5,-3,0,-24,-53,-17,-4,0
1523179342606152,-6,-3,9,4,40,4,-8,-5
1523179342606152,-4,-11,-33,-9,-19,-14,-11,-6
1523179342627236,4,1,13,8,1,10,11,11
1523179342627236,5,7,7,-5,-10,-23,-14,0
1523179342628712,-4,-3,-7,-14,-20,3,2,-9
1523179342628712,5,6,19,4,-2,5,5,5
1523179342640744,-7,-5,-8,-14,-20,-17,-10,-1
1523179342640744,6,9,14,22,39,5,0,-2
1523179342649769,-11,-13,-16,-20,-2,-6,-7,-6
1523179342649769,1,-1,2,-1,-13,-6,0,-2
1523179342664307,5,1,3,4,19,-13,0,3
1523179342664307,-4,-3,0,-10,-61,13,3,0
1523179342665812,3,5,5,15,13,-14,-2,2
1523179342665812,-4,-3,-16,15,-10,3,6,-1
1523179342686871,-2,-5,-1,-27,23,1,-7,-6
1523179342686871,3,4,7,15,-53,-23,-3,6
1523179342688373,-4,-3,-7,7,79,7,3,-2
1523179342688373,1,-2,0,-11,-63,-3,-5,5
1523179342700405,-8,1,8,26,-26,17,18,-2
1523179342700405,0,-4,-15,-30,-11,-2,-6,-3
1523179342709428,9,5,6,13,58,31,5,0
1523179342709428,-11,0,9,10,31,-2,1,-15
1523179342724469,2,0,-9,-13,22,-15,-12,0
1523179342724469,-1,-2,-1,-12,8,-15,-2,12
1523179342725973,-2,1,-4,36,42,26,10,-13
1523179342725973,5,1,-5,-7,26,-2,-4,0
1523179342747030,-3,-5,3,0,-95,-1,-5,-1
1523179342747030,-2,-4,-19,-4,48,-12,-2,3
1523179342748532,-2,-1,3,-10,3,6,-10,-5
1523179342748532,1,5,-2,14,-4,18,7,3
1523179342760564,-4,-3,0,-14,0,-13,-1,-4
1523179342760564,2,1,8,3,-32,-2,-5,-3
1523179342769587,-4,-2,-9,-17,-46,-10,-3,4
1523179342769587,-3,-3,3,7,28,1,-3,-14
1523179342784628,-5,-2,-5,14,37,24,6,5
1523179342784628,1,-2,-2,-7,12,-4,1,-5
1523179342786132,16,0,-6,-21,-42,-3,-9,36
1523179342786132,-25,-7,0,-4,16,-34,-11,-42
1523179342806921,10,3,2,10,25,50,18,11
1523179342806921,-5,-2,-1,11,-2,-2,0,-5
1523179342808927,5,5,1,4,29,8,3,1
1523179342808927,4,-4,0,-8,-85,-21,-7,13
1523179342820723,-1,-1,4,4,33,-23,-5,-4
1523179342820723,-6,-1,7,21,65,12,2,-14
1523179342829747,11,1,-21,-10,-39,17,4,2
1523179342829747,-6,2,10,-30,20,4,3,-3
1523179342844786,-13,-5,-11,3,-50,-7,-7,-15
1523179342844786,5,1,2,-16,-76,1,6,9
1523179342845794,-4,1,10,10,4,-30,-4,-9
1523179342845794,8,5,1,-3,35,21,4,11
1523179342866846,1,-3,-16,-4,3,-17,-14,3
1523179342866846,-5,-5,8,-9,-39,3,-4,-6
1523179342868350,-6,1,-13,-8,83,16,11,-6
1523179342868350,2,-9,-18,6,9,-1,-4,6
1523179342880385,4,0,11,6,6,-4,6,7
1523179342880385,0,3,-7,-7,-20,-11,-6,-5
1523179342889406,-6,0,13,7,-34,28,4,-5
1523179342889406,4,-2,4,15,35,7,0,3
1523179342904446,2,-3,-12,-15,4,3,1,-7
1523179342904446,0,-3,-5,-7,-36,1,1,6
1523179342905950,-10,-1,6,3,-59,-19,-6,-10
1523179342905950,5,3,0,17,12,11,6,8
1523179342927241,-2,-2,0,-31,-16,2,-2,-1
1523179342927241,-9,-3,0,4,24,4,0,-14
1523179342928511,0,3,-7,5,-30,-32,-5,1
1523179342928511,-1,-4,-1,-16,-6,7,1,5
1523179342940543,1,2,0,20,-10,4,-4,-1
1523179342940543,2,-1,-1,2,44,3,4,-3
1523179342949566,-4,-1,2,1,-7,-3,-7,1
1523179342949566,2,-1,-12,-6,7,13,-5,-6
1523179342964606,-2,4,-2,2,-28,-10,-6,2
1523179342964606,-2,2,5,4,15,4,4,-3
1523179342966111,-6,-4,-2,-14,20,17,-2,6
1523179342966111,12,-1,-3,-7,-37,-11,-3,13
1523179342987165,-15,-1,3,-4,-64,-26,-7,-20
1523179342987165,-3,0,11,33,52,27,4,3
1523179342988671,6,1,2,4,12,-7,0,-2
1523179342988671,-4,-1,0,-21,-96,-23,-11,4
1523179343000703,2,-5,-20,-25,91,16,3,1
1523179343000703,6,2,-3,6,-64,-7,-4,16
1523179343009884,-2,-5,0,-1,-3,8,0,-21
1523179343009884,-8,1,7,0,62,6,3,-10
1523179343024304,2,-3,4,-1,-64,1,3,1
1523179343024304,1,-1,-23,-15,-30,-10,-3,0
1523179343026367,0,-2,8,4,78,-9,-2,9
1523179343026367,10,2,-4,2,2,-4,-4,25
1523179343046840,-19,-1,12,-9,-32,2,-7,-38
1523179343046840,9,5,5,17,71,-5,16,5
1523179343048330,2,-6,-10,-12,-19,0,5,17
1523179343048330,-21,-5,1,17,-46,-44,-12,-33
1523179343060955,16,6,3,1,34,31,9,20
1523179343060955,-3,-3,-15,-18,-60,-8,-10,-3
1523179343069386,0,2,10,15,4,3,2,-1
1523179343069386,5,4,5,-14,26,4,6,-4
1523179343084424,-2,-1,-12,15,-42,-16,-3,7
1523179343084424,-6,-11,-8,-21,-15,4,-6,-13
1523179343085928,9,4,0,-7,-62,-14,-5,13
1523179343085928,-13,-6,4,20,51,42,10,-14
1523179343106984,1,2,11,19,35,-1,-4,1
1523179343106984,5,-5,-3,-7,85,-20,-6,6
1523179343108488,-10,4,-2,-5,-116,-10,2,-5
1523179343108488,8,1,3,2,38,11,2,7
1523179343122203,-7,-4,-1,-15,3,-18,-8,-3
1523179343122203,-6,5,0,12,22,-11,-6,-13
1523179343129546,1,-7,-4,-7,-20,-8,-1,1
1523179343129546,4,7,16,5,62,2,4,0
1523179343144583,0,-4,-15,-1,6,-9,-6,2
1523179343144583,2,-2,3,-12,-18,28,8,6
1523179343146098,-4,0,-6,15,-50,-30,-11,-17
1523179343146098,4,-1,3,3,5,15,11,12
1523179343167144,-3,-3,3,1,-9,-7,-6,-5
1523179343167144,-2,-7,-1,-8,27,1,-8,4
1523179343168649,-10,-1,-2,10,10,-12,-11,-17
1523179343168649,1,-2,-5,3,43,18,7,-4
1523179343180681,3,2,3,1,-29,-5,2,6
1523179343180681,18,-2,-8,-11,-52,-16,-6,24
1523179343189706,-22,-2,6,2,108,39,9,-27
1523179343189706,1,-4,-14,-19,-73,1,-9,1
1523179343204648,6,-2,-2,1,24,6,5,4
1523179343204648,-4,3,5,-3,-26,-13,-3,-7
1523179343206156,8,-3,3,8,42,29,8,9
1523179343206156,-7,-2,-9,-3,-24,-16,-10,-5
1523179343226714,-1,-4,-4,-19,13,-16,3,-1
1523179343226714,-9,-5,0,0,-7,24,4,-12
1523179343228716,5,5,5,31,15,-9,-1,4
1523179343228716,-5,-9,2,9,-23,-13,4,0
1523179343240749,3,1,5,-11,-24,-5,-6,2
1523179343240749,-3,-1,-19,7,12,2,6,-3
1523179343249271,-1,0,-3,-18,-3,-1,-1,-2
1523179343249271,2,1,-1,-10,-19,-13,-5,3
1523179343264310,10,6,7,8,-49,37,4,14
1523179343264310,-24,-5,6,-4,-81,2,-1,-27
1523179343265819,4,0,-1,5,68,21,1,-1
1523179343265819,2,3,0,1,-46,-19,-3,4
1523179343286955,2,-4,-4,-10,32,0,-5,1
1523179343286955,5,3,6,8,5,-1,-1,3
1523179343288459,-2,-10,-18,-17,3,5,0,0
1523179343288459,2,2,5,9,-77,-6,-1,9
1523179343300498,-1,-7,-2,7,105,-27,4,-20
1523179343300498,-6,3,-5,5,-34,45,6,-2
1523179343309515,12,6,23,-21,-48,5,-6,13
1523179343309515,-5,-2,-1,37,57,-20,0,-8
1523179343324553,-3,-2,-20,-23,-66,3,2,0
1523179343324553,1,0,-2,-1,10,-26,-3,-2
1523179343326060,5,-1,-1,-15,-36,-11,-8,18
1523179343326060,-2,3,7,6,1,-7,-6,-20
1523179343347116,-6,1,8,4,-28,10,3,-3
1523179343347116,5,1,1,1,31,4,-3,5
1523179343348618,-6,-2,-5,-2,-13,-5,-7,-3
1523179343348618,3,0,-3,-19,0,3,2,3
1523179343369172,-7,-4,2,11,12,-24,-8,-5
1523179343369172,6,-2,-10,-4,18,-5,2,-1
1523179343371179,-16,-10,-3,9,-25,-14,-3,-10
1523179343371179,-3,-1,-2,-30,-9,23,3,-1
1523179343384215,3,-5,-12,-9,-19,-2,-7,3
1523179343384215,1,2,2,26,50,-24,-3,11
1523179343385718,7,3,6,10,75,23,7,-19
1523179343385718,-16,-4,-5,0,13,-4,-5,-8
1523179343406812,2,4,8,-8,21,5,2,10
1523179343406812,-2,-5,-2,-17,9,2,-11,-1
1523179343408778,7,0,-4,-3,-37,-3,13,2
1523179343408778,1,4,7,15,64,20,12,1
1523179343429334,2,3,1,6,7,-8,-8,3
1523179343429334,-6,-7,-5,-12,9,-16,-3,-9
1523179343430838,1,-3,-3,9,-13,-1,3,2
1523179343430838,4,3,-1,-14,0,0,-7,-2
1523179343444373,-2,-6,-15,-15,-31,-17,1,-2
1523179343444373,-1,-1,15,25,26,26,5,-1
1523179343445880,-7,-1,0,-27,-44,-17,-8,-1
1523179343445880,5,-4,-26,2,-2,9,4,20
1523179343466932,-3,1,3,0,-3,0,0,-23
1523179343466932,-5,0,1,1,18,13,1,-3
1523179343468438,-3,-1,9,-1,-54,-12,-4,-5
1523179343468438,1,4,1,2,7,14,-4,3
1523179343489492,3,0,3,16,43,15,10,7
1523179343489492,4,-1,-1,-14,-19,-4,-3,8
1523179343490997,-5,0,-7,3,-21,-7,0,-5
1523179343490997,2,-1,2,-4,-18,-28,-10,-3
1523179343504532,-1,-2,-4,4,23,17,1,9
1523179343504532,-1,2,6,-21,-27,-23,2,-7
1523179343506037,4,-4,-12,7,56,16,0,-1
1523179343506037,-7,-4,-3,1,-16,-5,-5,-12
1523179343527093,4,6,8,3,2,-1,2,9
1523179343527093,-7,-2,-5,-2,-11,-22,-5,-14
1523179343528597,-1,-5,-3,-12,-1,-8,-5,8
1523179343528597,0,-3,-1,-24,-43,-19,-5,1
1523179343549150,-2,6,9,7,-5,-3,1,-3
1523179343549150,7,1,-4,3,-28,-27,-10,6
1523179343551156,-4,3,-4,-2,-5,1,0,-1
1523179343551156,-4,2,15,5,38,-3,3,-10
1523179343563695,-4,-8,-10,5,84,35,-4,-2
1523179343563695,-4,-2,0,-12,-15,-14,1,-1
1523179343570708,-3,-5,-9,-3,-26,-14,-12,-2
1523179343570708,1,0,-4,-32,-64,-18,6,-5
1523179343586751,5,5,6,41,23,-7,2,4
1523179343586751,-4,-1,6,4,59,31,1,-2
1523179343588757,-1,1,-4,-8,-42,-26,-3,-3
1523179343588757,3,-5,-2,19,24,27,3,8
1523179343609319,-4,-3,-9,-15,-29,-31,-6,-12
1523179343609319,4,0,3,3,-92,12,1,13
1523179343610816,-14,-4,11,-18,18,-9,0,-18
1523179343610816,2,-2,-8,-10,-6,-10,1,2
1523179343623852,-1,-1,-11,0,-42,-9,-3,0
1523179343623852,-1,-5,1,17,25,11,-1,-1
1523179343630381,9,8,0,-11,-13,-10,-3,8
1523179343630381,-11,-11,-3,23,-40,-7,-5,-5
1523179343646971,-1,3,7,-17,103,32,3,-1
1523179343646971,3,-3,-1,-1,-14,-14,-2,4
1523179343648416,0,3,-4,16,46,33,4,-5
1523179343648416,-1,2,2,0,1,-1,-6,-4
1523179343669471,0,-3,4,-6,-40,-16,-5,2
1523179343669471,0,2,-8,-4,36,5,-2,6
1523179343670976,7,-2,-1,-4,-73,-10,-2,-4
1523179343670976,-12,2,6,13,41,7,4,-13
1523179343683508,-1,-3,5,-23,-8,16,-1,0
1523179343683508,4,-7,-14,28,-1,-7,5,1
1523179343691027,2,-2,-1,-8,20,3,-1,8
1523179343691027,0,-3,-16,-1,-40,-18,-7,5
1523179343707071,1,1,16,2,48,-2,2,10
1523179343707071,-10,3,-7,-16,-20,-9,-3,-26
1523179343708575,-1,-6,5,16,-44,-16,-8,3
1523179343708575,2,-7,-16,5,10,-2,1,5
1523179343729632,-7,-6,-6,-19,-95,-27,-7,-12
1523179343729632,4,4,6,14,20,18,6,4
1523179343731135,-1,-1,0,-2,12,7,0,10
1523179343731135,-3,1,3,-10,31,2,-1,-16
1523179343743904,-3,-4,-6,-13,-74,-7,-8,1
1523179343743904,-2,2,-3,11,-2,-1,-2,-7
1523179343750688,-1,-1,2,5,8,-6,2,0
1523179343750688,1,-2,2,11,26,15,1,11
1523179343766730,2,2,0,13,20,29,7,4
1523179343766730,-3,-2,-4,-12,-11,-8,4,6
1523179343768737,-5,-2,4,-4,14,5,2,-18
1523179343768737,7,3,-18,-10,64,-14,-5,3
1523179343789329,-5,-7,15,1,-86,-11,-5,-5
1523179343789329,-2,2,4,-17,25,9,10,4
1523179343791364,3,2,-3,4,16,-6,-3,6
1523179343791364,-4,1,0,-12,-21,14,6,-2
1523179343803828,4,-4,-11,-9,14,8,-2,1
1523179343803828,-11,-4,-6,-7,-72,-9,-11,-11
1523179343810582,6,5,4,-18,-1,-12,-3,3
1523179343810582,-5,-3,9,49,-8,15,2,-7
1523179343827125,-2,-6,-13,-3,40,20,8,16
1523179343827125,-1,-3,-8,-26,31,-12,-9,-10
1523179343828398,-1,3,9,16,-24,5,10,9
1523179343828398,2,-2,-2,6,-24,-4,-5,4
1523179343849450,-8,-2,5,11,11,-11,1,-21
1523179343849450,4,4,-6,-1,31,-9,-9,0
1523179343850954,-4,-4,-13,-7,9,-13,-7,-3
1523179343850954,5,-1,2,-27,-43,-16,1,11
1523179343862987,-7,2,0,11,32,5,2,-5
1523179343862987,-2,-2,6,0,0,-8,2,-2
1523179343872011,-5,-3,-9,-25,-16,-14,-7,-6
1523179343872011,4,-3,8,43,14,20,6,7
1523179343887052,-4,-1,-5,-8,-25,-13,-2,-7
1523179343887052,4,-7,-3,-2,-12,-11,-3,4
1523179343888554,-3,5,3,5,-13,14,2,-8
1523179343888554,-6,1,2,-18,-49,-17,-3,-5
1523179343909608,-1,-6,-1,20,100,21,-1,-2
1523179343909608,6,0,-4,-2,-37,11,-1,12
1523179343911116,-1,2,-1,9,24,3,4,6
1523179343911116,1,0,4,-8,18,1,-4,-8
1523179343923145,5,4,-5,0,-58,-22,-10,4
1523179343923145,-1,0,-2,-19,-59,10,8,1
1523179343932172,0,-6,-4,34,96,1,2,0
1523179343932172,-3,0,6,-32,-13,11,-7,1
1523179343947214,-3,3,-7,12,-21,-5,-6,-3
1523179343947214,5,-8,2,9,53,0,4,2
1523179343948714,-13,-13,-25,-21,-64,-11,1,-9
1523179343948714,-9,6,7,-7,38,1,-4,-17
1523179343969268,7,-1,-5,-21,-61,-8,-8,4
1523179343969268,9,4,10,11,40,-2,3,6
1523179343970773,-6,-2,4,5,-3,1,6,6
1523179343970773,2,-7,-15,-5,10,-23,-11,-1
1523179343982805,1,1,2,-14,-20,-11,4,-6
1523179343982805,-6,3,-7,-11,-32,9,-5,-4
1523179343991828,11,5,21,28,6,8,6,10
1523179343991828,-3,-4,-17,5,-12,-1,-4,-5
1523179344006870,1,7,32,-1,-34,-38,-8,-7
1523179344006870,-5,-11,-28,0,38,9,5,3
1523179344008376,2,2,1,-19,-13,3,-8,1
1523179344008376,-7,2,6,-7,17,-3,-5,-6
1523179344029428,5,-2,-4,40,-88,-18,12,6
1523179344029428,0,-3,3,2,92,-6,-14,15
1523179344030931,-8,-4,3,-6,-10,40,13,-19
1523179344030931,-4,-6,-20,-2,-3,-7,1,0
1523179344043464,-2,-2,1,-22,6,-10,-7,-3
1523179344043464,3,7,17,4,-64,-4,-6,-2
1523179344051989,7,-4,-20,19,38,1,2,11
1523179344051989,4,2,5,-24,-79,-25,3,-3
1523179344067067,-6,-5,-2,25,70,69,7,-4
1523179344067067,-2,3,-4,-3,-103,3,-9,-8
1523179344068533,-2,2,7,-4,82,-29,-5,-3
1523179344068533,0,-3,-5,6,-10,20,10,-2
1523179344089737,1,0,9,4,-13,-18,-3,12
1523179344089737,-5,4,6,7,48,6,-1,-20
1523179344091093,-2,-5,-8,-24,-51,-10,-20,-2
1523179344091093,1,-3,5,8,59,-11,4,8
1523179344103124,-3,-7,-10,-3,-61,10,13,-3
1523179344103124,0,0,-12,-17,84,30,3,6
1523179344112153,0,3,-5,-10,-24,6,-9,-11
1523179344112153,16,20,17,18,14,-9,-4,5
1523179344126922,-16,-13,-1,9,125,16,-1,-6
1523179344126922,6,-4,2,-10,-13,-23,7,20
1523179344128697,-18,-4,-1,-2,-21,-16,-2,-31
1523179344128697,0,6,10,3,-7,12,1,7
1523179344149251,5,2,-8,-8,40,12,-3,-4
1523179344149251,-4,-6,-8,6,-82,-29,1,-1
1523179344150750,1,-3,-7,-13,25,5,0,7
1523179344150750,-1,-3,26,4,1,8,8,1
1523179344163287,1,5,-12,-4,79,-9,-7,-2
1523179344163287,-13,-12,-17,-21,13,-4,-9,-12
1523179344171806,10,9,5,12,65,25,9,7
1523179344171806,-5,-7,-15,-33,-126,-30,-14,-3
1523179344186846,-3,-6,-1,12,72,34,8,-5
1523179344186846,1,11,26,12,-38,-4,6,-8
1523179344188351,7,0,-15,-6,-49,-40,-10,4
1523179344188351,-10,-17,-1,-6,39,32,7,5
1523179344209406,5,9,-1,-9,-27,-26,-9,-6
1523179344209406,-8,-4,0,10,-16,4,-6,-2
1523179344210913,-5,-5,4,9,-59,-36,-1,-3
1523179344210913,4,-2,-7,5,86,4,-3,-3
1523179344222946,6,1,-5,-11,-35,12,13,11
1523179344222946,-7,-4,-9,-13,-46,-19,-27,-8
1523179344231967,3,0,0,3,44,0,14,11
1523179344231967,-3,-3,-2,18,95,53,6,-10
1523179344247007,-3,-1,-7,-13,-95,-14,-3,-1
1523179344247007,5,1,11,0,28,-6,6,12
1523179344248511,-4,1,-1,0,-3,4,-13,-19
1523179344248511,3,2,-1,12,-42,17,2,4
1523179344269566,3,0,1,-8,-58,-24,-3,-4
1523179344269566,-1,0,1,39,67,43,2,-8
1523179344271071,-1,-6,6,-6,-44,2,4,9
1523179344271071,-3,-1,-6,-24,-53,-19,0,0
1523179344283102,-4,1,-11,-11,-61,6,-10,-4
1523179344283102,4,3,-1,-31,36,-22,-3,-2
1523179344292126,-2,-3,12,50,9,31,9,2
1523179344292126,2,-2,-9,-6,-1,-25,-7,0
1523179344306900,-6,-3,2,-18,-24,7,6,-2
1523179344306900,2,1,1,11,13,-4,1,-4
1523179344308671,2,0,4,2,52,5,-16,11
1523179344308671,-5,-4,-2,7,7,9,15,-5
1523179344329737,16,0,1,3,63,-16,5,12
1523179344329737,-14,-1,-3,-11,-71,2,-4,-27
1523179344330730,-3,2,3,-11,-72,12,1,0
1523179344330730,3,2,3,11,49,-13,-11,6
1523179344351783,-5,-5,-12,-23,-23,-3,-6,0
1523179344351783,6,0,4,24,-23,-11,2,2
1523179344353289,7,6,4,2,43,-9,2,9
1523179344353289,-4,1,-4,-8,-48,-10,-5,-12
1523179344366825,-2,-1,-1,-10,59,-8,-5,3
1523179344366825,-6,-6,0,-7,-62,-6,-1,-8
1523179344368328,-1,-2,-8,0,-25,-4,-4,-2
1523179344368328,-3,-10,-5,-12,-3,-4,-7,4
1523179344389384,1,4,0,11,-4,-22,-5,5
1523179344389384,10,2,27,1,19,24,7,-4
1523179344390888,-12,0,-20,-15,-8,12,-6,-9
1523179344390888,-2,-2,-3,-18,0,-1,5,-1
1523179344411945,-5,0,3,27,-89,-27,-5,-3
1523179344411945,3,-2,8,11,117,22,7,9
1523179344413458,1,-10,-12,-21,-93,-23,-3,0
1523179344413458,0,6,6,10,64,50,5,-3
1523179344426218,-10,-9,-5,-16,-51,-22,-14,-7
1523179344426218,-1,-2,-8,2,9,-6,9,4
1523179344433001,4,4,7,2,2,-6,-2,3
1523179344433001,3,3,-2,4,-24,0,2,-3
1523179344449546,-7,-6,-2,-15,24,2,-3,-3
1523179344449546,-6,-1,-4,24,40,-14,-1,-10
1523179344451050,-4,-3,3,-16,-71,40,11,1
1523179344451050,3,-1,-11,3,25,-22,-4,5
1523179344472105,-1,-2,3,0,-20,10,3,-3
1523179344472105,-2,-4,-15,-22,-70,-18,-9,3
1523179344473609,2,-2,0,-2,31,-21,2,0
1523179344473609,0,6,11,16,-36,-9,-4,-2
1523179344486142,0,1,7,4,40,22,10,-1
1523179344486142,-2,-2,-7,-5,-30,-10,-5,-1
1523179344493401,3,-3,-6,1,41,6,-4,-5
1523179344493401,-1,-3,-7,-1,-13,-9,6,4
1523179344509438,3,4,9,10,28,-12,-11,0
1523179344509438,-1,-3,-7,-8,-47,25,11,1
1523179344511214,-2,1,21,-20,-6,-17,-5,-5
1523179344511214,-2,-5,-23,26,23,10,-4,0
1523179344531763,-1,0,3,9,-22,18,6,-1
1523179344531763,2,4,13,0,17,-14,-8,2
1523179344533769,0,-5,-26,-12,13,-9,-2,-5
1523179344533769,-11,-11,-2,-6,-6,-24,-6,-5
1523179344546306,4,3,6,-3,10,9,7,1
1523179344546306,0,-1,0,-10,-55,-7,-4,4
1523179344553055,2,5,7,11,111,27,5,-2
1523179344553055,4,-2,-1,1,-34,-24,-8,-3
1523179344569364,-10,-9,-12,2,6,1,-5,-5
1523179344569364,3,2,4,12,32,11,9,8
1523179344570867,-3,-1,0,-14,-87,-24,-4,-5
1523179344570867,-1,6,4,5,73,37,3,-12
1523179344592160,-9,-5,0,-4,-41,5,-6,-6
1523179344592160,-5,-5,-3,-7,-40,-12,0,2
1523179344593428,3,0,2,6,6,3,0,3
1523179344593428,1,-2,-6,-6,-20,-10,0,4
1523179344606595,7,4,0,-1,16,-7,-2,1
1523179344606595,-6,-3,-5,-11,11,2,-2,6
1523179344613267,2,-2,-2,21,33,23,0,-7
1523179344613267,7,0,8,-6,-48,-12,-8,7
1523179344629810,-21,-1,-8,-10,8,-9,-1,-24
1523179344629810,8,6,14,12,-2,-3,0,2
1523179344630814,-3,-17,-17,-15,21,-2,-3,25
1523179344630814,-9,1,4,-16,-53,0,-3,-20
1523179344651868,-4,-5,-9,-19,-65,17,-6,-24
1523179344651868,11,15,0,27,33,34,18,7
1523179344653372,-5,-7,-2,8,36,16,0,10
1523179344653372,3,-2,-2,-12,-9,-13,-6,19
1523179344666456,-20,-2,-1,-24,-28,-29,-10,-33
1523179344666456,3,3,17,28,4,-4,-4,-6
1523179344672976,5,7,-12,0,-3,-7,3,-6
1523179344672976,2,-8,1,-7,20,32,6,19
1523179344689768,14,6,-4,-8,-8,-15,-4,15
1523179344689768,-11,-11,-11,-18,-20,10,-3,-6
1523179344691021,4,5,12,7,-10,-10,-7,-4
1523179344691021,-8,-3,-2,-9,-87,-18,-5,-9
1523179344712081,5,-1,-9,5,30,-8,3,11
1523179344712081,-7,-9,-8,-13,51,20,0,-11
1523179344713585,-1,0,-8,-2,-25,-9,-6,-1
1523179344713585,-1,1,13,0,-16,-12,3,-7
1523179344726660,4,-1,0,11,35,9,4,8
1523179344726660,5,-6,-7,-12,-55,-2,3,5
1523179344733133,-14,-4,3,2,-26,-11,1,-10
1523179344733133,-2,0,4,4,93,41,2,3
1523179344749177,5,1,0,35,26,-4,-3,9
1523179344749177,-7,1,-2,-17,-11,-11,-10,-11
1523179344751221,2,7,21,10,35,-20,0,-4
1523179344751221,0,1,-15,1,73,28,2,-1
1523179344771736,6,-2,7,-4,26,7,2,15
1523179344771736,-4,-6,-29,-29,-69,-38,-10,-7
1523179344773741,1,2,18,16,-61,-4,4,0
1523179344773741,1,3,-4,4,-16,-29,-7,1
1523179344786277,-2,0,5,4,23,13,7,-6
1523179344786277,-6,-5,1,6,25,-9,-15,3
1523179344792792,-3,-3,-8,-13,34,-1,-7,-6
1523179344792792,11,1,-2,-4,-80,-11,2,11
1523179344809335,-8,-8,-8,-14,-92,-44,-10,10
1523179344809335,-9,2,6,8,-33,8,3,-20
1523179344810846,0,-2,-2,21,86,16,-2,0
1523179344810846,-3,-3,0,9,-5,-9,-4,-6
1523179344831898,3,-1,-2,-6,1,-10,-4,6
1523179344831898,4,1,-4,-15,-58,-34,-4,4
1523179344833402,-2,-3,-1,-17,-16,12,-3,-6
1523179344833402,-10,5,8,8,15,-15,2,-13
1523179344845438,2,-11,-24,1,14,17,7,4
1523179344845438,-1,1,13,-8,32,-19,-1,2
1523179344854456,7,5,-2,-7,-42,7,5,8
1523179344854456,-3,0,11,-2,-2,-10,-2,-14
1523179344869504,11,7,0,-5,-43,53,-2,3
1523179344869504,-5,-11,-2,36,91,34,18,12
1523179344871001,-7,-1,-1,-18,-86,-19,-4,-7
1523179344871001,-1,-4,-7,-15,-5,2,-1,3
1523179344892267,2,6,3,17,-4,-10,-2,-3
1523179344892267,2,2,-5,-16,13,-4,-8,-1
1523179344893561,6,-2,-9,-4,32,11,7,4
1523179344893561,-15,-1,-2,1,-36,-8,-4,-18
1523179344905634,0,-2,-1,-8,51,3,3,-7
1523179344905634,4,-1,0,-1,-85,-16,-9,6
1523179344914615,1,0,-24,-3,83,19,9,0
1523179344914615,1,-4,6,-12,-36,-18,-13,15
1523179344929155,-9,1,20,16,34,11,15,-16
1523179344929155,3,6,4,7,4,-2,-3,-2
1523179344931160,1,-6,-6,-11,-45,-11,-9,0
1523179344931160,0,-4,-8,-1,-30,-17,0,2
1523179344951715,0,4,-1,-9,21,-6,3,5
1523179344951715,0,-3,1,15,30,11,-12,-2
1523179344953719,-3,2,1,5,-41,-11,8,1
1523179344953719,3,-3,-4,-14,-45,10,0,-4
1523179344965751,-1,1,11,9,19,-4,0,10
1523179344965751,-2,1,-1,20,24,6,4,-18
1523179344974775,-8,-8,-1,-21,-30,-16,-15,0
1523179344974775,14,5,-5,30,53,13,5,17
1523179344989314,-11,-9,0,-9,-49,-17,-5,-19
1523179344989314,-1,2,-7,-4,48,30,6,1
1523179344991373,1,6,14,13,-18,7,3,0
1523179344991373,0,-5,-2,-12,-28,-5,2,11
1523179345011922,20,0,-8,-1,16,-7,-5,27
1523179345011922,-39,-5,-1,0,27,3,-2,-49
1523179345013378,0,0,7,8,28,-8,-7,-2
1523179345013378,3,2,-11,-14,38,14,-8,-2
1523179345025409,1,-3,-1,3,-23,-11,20,10
1523179345025409,10,-3,-5,-21,-38,-19,-6,14
1523179345034435,-10,-1,3,10,43,14,2,-3
1523179345034435,-4,-5,-5,3,54,-37,-10,-13
1523179345049475,-2,0,4,3,-25,29,-6,-1
1523179345049475,8,1,0,-14,-18,-9,9,8
1523179345050977,-4,-6,4,-11,-54,-7,-2,-11
1523179345050977,14,4,2,18,6,1,1,27
1523179345072034,-17,-8,-15,-17,0,-26,-11,-37
1523179345072034,-6,4,3,-1,39,42,5,-5
1523179345073538,-2,-1,-7,2,-42,-5,-7,2
1523179345073538,-4,-1,11,-6,-30,5,12,-4
1523179345085570,8,3,1,5,35,1,-3,11
1523179345085570,2,-5,-17,-4,-33,-20,-8,7
1523179345094598,-2,1,5,-3,64,7,2,-10
1523179345094598,-3,-5,-7,-6,-14,-18,-3,-6
1523179345109633,-1,5,9,8,38,26,-3,4
1523179345109633,5,-2,-2,-14,-66,-15,0,11
1523179345111138,-9,-4,-6,1,-18,-5,-1,-9
1523179345111138,0,0,-3,-8,-33,27,-2,-8
1523179345131735,-5,-7,-6,-4,-5,-18,-2,3
1523179345131735,1,1,4,0,28,-13,-2,0
1523179345133699,4,1,-5,-4,-5,-1,1,6
1523179345133699,-5,2,6,-5,-35,-4,2,-13
1523179345145734,-1,-3,-2,18,-16,0,-7,-2
1523179345145734,6,1,1,-11,59,7,1,7
1523179345154754,1,3,-1,-7,0,15,1,3
1523179345154754,3,-3,2,7,38,16,1,3
1523179345169293,-7,0,-2,6,27,1,0,-1
1523179345169293,1,-1,0,-4,-73,-18,2,-11
1523179345170796,-1,-1,2,2,63,-14,-6,-1
1523179345170796,-7,-4,-15,-23,-51,8,-6,-1
1523179345192092,2,-4,5,44,-42,9,-5,-4
1523179345192092,3,-3,-4,28,113,13,8,6
1523179345193360,-2,-2,1,-14,-23,-10,-3,1
1523179345193360,-5,1,5,2,34,-5,-3,-7
1523179345205624,-1,1,-13,-27,-16,-16,-6,-4
1523179345205624,1,-1,5,-9,-41,-8,-6,9
1523179345214412,0,0,-7,4,-48,9,10,-14
1523179345214412,-1,0,2,15,37,11,4,2
1523179345229454,-4,1,-4,-28,-16,2,2,-6
1523179345229454,10,-1,8,15,9,4,-5,5
1523179345230956,-12,-7,-11,-24,-58,7,-1,-1
1523179345230956,5,5,3,36,73,-15,1,-2
1523179345252012,6,1,3,-8,-3,11,6,28
1523179345252012,-17,0,-6,-5,28,8,1,-36
1523179345253517,3,-2,2,17,17,-9,-9,6
1523179345253517,-3,0,-4,-13,-30,2,-6,-11
1523179345274744,3,4,14,1,62,-3,0,3
1523179345274744,-2,-4,-21,-6,-111,-5,1,9
1523179345276311,7,5,7,12,23,19,8,5
1523179345276311,-4,2,-1,-9,-80,-48,-10,-4
1523179345289152,4,-1,1,2,18,-8,4,1
1523179345289152,-6,2,6,8,23,26,4,-1
1523179345291116,0,-2,13,14,-5,-18,-6,-5
1523179345291116,3,-1,-2,-5,-12,7,3,7
1523179345312180,-2,0,-9,-15,-46,-15,-7,-11
1523179345312180,2,1,1,-8,11,2,0,6
1523179345313678,2,2,-3,18,-13,7,2,5
1523179345313678,-1,-7,-1,0,17,5,1,5
1523179345334275,-3,-3,-7,-11,-71,-30,-7,-10
1523179345334275,-10,-2,3,-14,76,18,-6,-7
1523179345335734,0,2,3,11,54,4,-1,0
1523179345335734,-10,0,2,-14,-10,-11,1,-8
1523179345349271,5,4,-7,1,-25,37,4,1
1523179345349271,2,-8,6,6,-20,-4,-1,9
1523179345351277,4,4,-5,-19,2,-1,-4,5
1523179345351277,-5,-2,0,10,-21,1,3,-3
1523179345371832,-4,-5,7,0,35,17,0,-5
1523179345371832,4,4,1,18,2,-21,-8,3
1523179345373336,0,-6,-11,-10,-20,13,18,7
1523179345373336,-1,-1,-3,-5,3,7,1,-13
1523179345394394,-5,0,-3,-9,-27,-17,-4,-7
1523179345394394,5,-2,1,7,-13,-9,-1,11
1523179345395895,-7,-2,-6,-18,-104,-21,-10,-17
1523179345395895,7,-1,-3,8,60,-5,5,10
1523179345408929,-1,-1,7,2,51,23,-1,-2
1523179345408929,4,2,-2,-9,-36,-4,-4,9
1523179345415449,-5,-5,-4,0,24,-12,5,-6
1523179345415449,4,2,5,-3,-33,-7,-3,-2
1523179345431991,-11,0,-3,1,26,-3,-3,-9
1523179345431991,6,6,4,2,-12,1,11,3
1523179345433498,0,-5,-10,7,96,39,0,3
1523179345433498,-3,-2,10,-10,-53,-2,1,-7
1523179345454551,-1,1,3,12,92,18,2,-4
1523179345454551,-2,-7,-25,-18,11,-14,-4,-5
1523179345456056,0,4,12,10,-46,-19,-4,4
1523179345456056,0,0,-1,10,8,17,10,2
1523179345468588,9,6,8,4,13,-8,-3,24
1523179345468588,-21,-13,-4,-7,0,3,-3,-23
1523179345475606,6,-4,-6,-8,16,-12,-6,-5
1523179345475606,-8,-1,-4,-10,-4,11,-5,-6
1523179345492284,1,-2,-2,1,-36,-4,-2,3
1523179345492284,5,5,0,3,30,1,1,2
1523179345493659,-2,-8,-7,-4,-12,-1,-1,2
1523179345493659,-3,-3,-3,-9,-16,-11,-7,5
1523179345514209,2,3,0,2,71,14,0,-8
1523179345514209,-1,2,-3,-3,-59,-18,1,-11
1523179345516216,9,10,12,8,9,0,-4,1
1523179345516216,-3,-12,-11,-14,-6,-6,1,6
1523179345528250,-7,-13,-8,-3,-43,-15,-4,11
1523179345528250,-3,2,4,5,43,3,6,-24
1523179345536770,3,8,2,-1,-64,3,-2,5
1523179345536770,8,7,6,16,33,11,-1,3
1523179345552310,-2,-12,-14,-19,-16,-66,-8,-3
1523179345552310,5,1,5,-13,-28,-6,-7,11
1523179345553882,-18,-4,-5,8,25,24,1,-8
1523179345553882,9,4,4,-3,53,19,2,10
1523179345574369,-9,1,1,0,-32,-20,-4,-21
1523179345574369,5,5,4,-5,-23,-10,-10,9
1523179345575875,-2,-3,-11,-2,121,13,0,-6
1523179345575875,-3,-6,-12,-4,-39,-32,-6,1
1523179345588908,4,4,3,16,-6,24,5,3
1523179345588908,-2,-5,-8,-3,-1,0,3,6
1523179345595429,2,4,15,0,-13,-5,-1,0
1523179345595429,-9,-4,-3,-2,13,5,-4,-8
1523179345611969,1,-3,-13,-17,-12,-6,-5,-6
1523179345611969,-5,-3,6,7,7,14,-2,0
1523179345613474,5,1,-5,1,-26,-29,1,1
1523179345613474,-3,1,4,-7,6,18,4,-5
1523179345634568,2,3,7,6,-19,1,4,-1
1523179345634568,-3,1,-2,-5,-2,-18,-12,-4
1523179345636034,-4,-10,-12,-2,26,8,14,7
1523179345636034,-2,-8,-7,11,4,-3,-3,-6
1523179345648568,2,7,5,-6,-11,7,2,-1
1523179345648568,-5,-14,-6,-7,-8,-5,-8,4
1523179345655585,1,3,10,-13,-21,-28,-9,-2
1523179345655585,1,5,3,-2,85,-3,2,-7
1523179345671628,-3,-7,-20,-7,-24,-2,7,3
1523179345671628,4,2,4,2,-6,8,-1,1
1523179345673673,0,-1,-4,-5,-10,4,1,-2
1523179345673673,-1,-1,-8,-21,-26,-5,-3,1
1523179345694691,1,3,8,5,15,-7,1,1
1523179345694691,3,4,5,19,-48,5,6,1
1523179345696194,-2,-6,-6,-3,-9,-14,-5,-1
1523179345696194,1,1,-1,0,3,13,-3,1
1523179345708960,-7,-2,-3,-18,7,-10,-8,-6
1523179345708960,-2,-1,0,0,17,3,2,0
1523179345715745,0,-2,-5,-3,-11,9,-3,-4
1523179345715745,-2,-2,3,5,-35,6,5,0
1523179345731787,-6,-4,-1,8,-22,11,8,-4
1523179345731787,3,0,0,2,34,-16,-3,5
1523179345733291,13,-1,-4,-9,18,-1,-4,20
1523179345733291,-23,-5,-7,-17,-100,-8,-5,-46
1523179345754583,4,1,2,16,43,14,-2,5
1523179345754583,-1,1,-1,-3,-43,0,7,-1
1523179345756355,1,0,2,0,-7,-39,-10,5
1523179345756355,5,-3,-8,-4,-13,10,0,11
1523179345767883,0,-4,-1,2,31,36,8,2
1523179345767883,-1,1,0,9,20,2,-1,-2
1523179345776909,0,2,10,1,-20,16,3,-1
1523179345776909,1,0,1,-8,-59,-33,-6,-2
1523179345791949,-3,0,-1,18,41,20,-11,-8
1523179345791949,4,4,-3,-15,-64,5,21,3
1523179345793469,-8,-2,10,-1,-57,-2,3,-3
1523179345793469,3,0,-6,24,82,18,-4,4
1523179345814509,4,-1,10,-21,-128,-76,-17,5
1523179345814509,2,2,-6,12,93,16,2,-9
1523179345816012,-4,-3,-7,-7,3,-11,-2,-1
1523179345816012,-9,-4,-4,-11,1,-8,0,-3
1523179345828045,4,0,2,-9,-45,-6,-4,2
1523179345828045,-4,-4,-3,-12,27,-13,-11,0
1523179345837069,3,11,1,0,-8,18,10,-2
1523179345837069,-4,-9,-2,12,75,-12,-12,2
1523179345851841,-6,-4,-11,-22,-78,-7,6,-1
1523179345851841,0,0,6,5,-5,19,6,4
1523179345853612,-4,-2,-1,-7,12,3,-4,-6
1523179345853612,4,5,0,10,1,-2,-1,7
1523179345874402,-2,-3,1,10,50,-16,-7,-6
1523179345874402,-7,-6,-10,-23,-83,-12,-4,-3
1523179345876175,-2,2,3,24,56,21,5,-9
1523179345876175,4,2,10,-3,-9,7,0,2
1523179345888443,4,2,-15,-5,8,0,-11,1
1523179345888443,-8,-10,0,11,42,-8,-3,2
1523179345897227,-2,-4,-4,-5,50,0,-2,-11
1523179345897227,0,4,7,-1,11,-7,8,3
1523179345911822,2,4,3,-8,-20,14,-2,1
1523179345911822,0,-4,-6,-2,-17,-14,1,-3
1523179345913271,-4,-7,-9,-17,-41,-24,-8,-3
1523179345913271,1,3,6,5,40,13,3,4
1523179345934326,0,-4,-3,3,5,0,3,-4
1523179345934326,-3,0,0,-1,-28,9,-5,-1
1523179345935830,0,-3,-4,0,-30,-3,1,3
1523179345935830,5,7,11,21,60,28,9,5
1523179345947863,-3,-4,-1,3,28,18,6,0
1523179345947863,1,-1,-9,1,14,-16,-2,-4
1523179345957386,-5,-3,-2,-1,-36,7,-11,-7
1523179345957386,1,-3,-4,-6,-8,10,9,1
1523179345971925,5,3,8,-6,-4,-9,1,1
1523179345971925,-4,-6,5,-5,105,14,-3,-1
1523179345973432,3,2,-1,6,-1,14,5,4
1523179345973432,-1,-2,11,10,-69,-2,-6,-3
1523179345994486,-1,0,-7,4,25,-8,4,-1
1523179345994486,0,-1,-12,-36,22,-6,-9,-3
1523179345995992,-1,-2,0,5,-55,1,0,-1
1523179345995992,-1,0,-3,-1,6,-3,0,1
1523179346008261,-4,-1,7,-2,5,-9,-5,-2
1523179346008261,-1,2,-2,12,-22,1,-3,-3
1523179346017047,-1,-4,-10,1,18,-9,-3,5
1523179346017047,-5,-4,-5,1,15,9,-4,-12
1523179346032085,-1,-2,-3,-13,-98,-25,-5,0
1523179346032085,1,3,5,-4,33,3,-3,0
1523179346033591,0,-1,5,-3,-44,-5,4,1
1523179346033591,1,-5,-13,1,-29,-16,-6,1
1523179346054379,-5,-2,-1,-6,6,-4,-6,-1
1523179346054379,7,-2,-1,-8,-70,16,2,15
1523179346056150,-4,-2,-2,7,76,-2,-2,-6
1523179346056150,-7,0,-3,-14,8,-9,-4,-20
1523179346068181,-6,-9,-5,7,8,11,6,-2
1523179346068181,-1,4,5,12,-13,-14,1,4
1523179346077207,1,-3,-5,-10,-21,-20,-9,-2
1523179346077207,3,2,3,-11,-77,-11,1,10
1523179346091977,1,0,1,-1,-22,11,2,-4
1523179346091977,-10,1,2,10,16,1,0,-15
1523179346093250,2,1,-5,-6,2,7,2,2
1523179346093250,-3,-4,-10,-13,4,-15,-3,-3
1523179346114306,2,-1,1,9,21,11,1,5
1523179346114306,3,2,0,6,-33,3,2,3
1523179346115810,-3,2,5,0,25,-3,3,-5
1523179346115810,-1,-4,-5,-4,-50,-17,-7,4
1523179346128344,-2,0,10,10,33,9,1,0
1523179346128344,0,-1,-4,1,19,0,-6,-6
1523179346136864,3,-4,-7,-9,-86,7,1,7
1523179346136864,1,-3,-9,-29,67,33,3,13
1523179346151904,-6,1,13,37,23,-5,1,-23
1523179346151904,-1,-1,5,4,-15,-3,0,-1
1523179346153928,-1,-4,-15,-8,-23,-29,-9,0
1523179346153928,3,1,5,20,35,29,6,1
1523179346174464,-1,3,-5,-8,-55,-11,1,4
1523179346174464,-4,1,7,-3,-10,-4,-2,0
1523179346175971,-2,-3,-1,6,52,10,-1,-6
1523179346175971,2,2,4,5,-43,-14,-4,4
1523179346197024,-3,0,-12,-30,-19,8,0,-2
1523179346197024,1,2,0,5,70,3,1,-3
1523179346198530,2,-3,-3,3,-22,1,2,8
1523179346198530,-8,-4,-4,-15,-47,-36,-15,-15
1523179346212068,5,-1,2,9,103,66,27,9
1523179346212068,-1,-2,-2,7,-10,-9,3,2
1523179346213568,2,8,29,7,-22,1,-1,0
1523179346213568,-2,-7,-40,-14,7,-11,-4,-1
1523179346234624,2,3,10,19,55,-3,-6,-1
1523179346234624,6,4,-5,-31,26,7,2,4
1523179346236128,-8,-4,13,18,22,-1,3,-4
1523179346236128,2,2,9,-1,22,8,1,-2
1523179346256917,-1,1,-10,11,-36,-13,-10,-1
1523179346256917,-6,-6,1,-24,-63,-20,-6,-2
1523179346258868,4,4,-3,-2,16,5,3,-1
1523179346258868,-2,-5,3,4,-4,-12,0,1
1523179346272265,1,-1,-7,-18,48,28,5,5
1523179346272265,0,-2,-1,11,-15,-16,-5,-4
1523179346273727,-4,-3,-7,-11,-74,11,-11,-9
1523179346273727,4,7,28,9,35,4,12,5
1523179346294286,-3,-7,-23,-1,-10,-5,-7,-1
1523179346294286,-4,-8,-3,9,33,-3,-4,-5
1523179346296291,-4,-4,-15,-43,-67,-27,-2,-2
1523179346296291,6,8,8,22,42,36,8,4
1523179346316842,0,2,13,6,-26,-17,-3,1
1523179346316842,-4,-8,-5,4,-35,-1,-6,-4
1523179346318347,-2,-4,-14,-3,124,-3,-10,-6
1523179346318347,-4,0,4,8,-39,37,5,1
1523179346331383,3,2,4,-12,-19,-10,3,1
1523179346331383,5,-2,-6,2,-12,5,4,9
1523179346337939,-6,-1,8,41,37,2,1,-9
1523179346337939,-2,-1,6,-6,-24,-24,-9,-3
1523179346354678,-5,-10,-30,-9,-5,-1,-3,-1
1523179346354678,0,-1,3,-7,-26,-4,-6,-2
1523179346355948,4,2,12,12,-9,4,2,3
1523179346355948,-9,-5,-17,-9,39,1,-4,-3
1523179346384522,-1,-2,10,5,48,-2,-1,-1
1523179346384522,-1,0,-4,-19,-23,-11,0,-3
1523179346386028,2,0,-2,-3,85,22,7,4
1523179346386028,0,-4,-5,-12,-9,-23,-9,-6
1523179346391039,-3,-5,0,-11,-108,-3,-6,-1
1523179346391039,1,5,3,15,-2,18,7,0
1523179346398058,2,6,-10,-8,17,-27,-10,0
1523179346398058,-14,-13,-4,-14,-56,-5,-10,-8
1523179346414602,1,2,-16,14,65,7,15,5
1523179346414602,-1,1,14,-4,-59,1,1,-2
1523179346416107,9,7,-2,8,66,36,9,10
1523179346416107,-4,-5,-4,-8,-2,-16,-2,-11
1523179346436661,-1,0,15,-2,-64,-12,-6,0
1523179346436661,-4,-4,-14,4,106,-9,-10,-5
1523179346438666,1,-3,10,17,-68,6,4,1
1523179346438666,5,6,0,4,-2,2,1,4
1523179346451199,-3,-3,3,-13,35,2,-4,-5
1523179346451199,2,0,-2,8,-48,-18,-1,0
1523179346458217,-4,-4,-4,-19,-29,-4,-7,-3
1523179346458217,-2,-2,-1,15,7,18,6,2
1523179346474496,-4,0,-1,-4,-25,-19,-4,-4
1523179346474496,-1,-1,-2,2,-27,-5,5,1
1523179346476270,-3,-1,2,-2,-32,-16,-5,-3
1523179346476270,2,2,2,-10,-43,-13,-5,1
1523179346496821,0,1,-7,16,80,-14,-3,-1
1523179346496821,0,-3,-4,4,70,34,3,0
1523179346498326,1,3,6,-13,-67,-4,-4,1
1523179346498326,2,-2,-6,1,32,-6,12,3
1523179346511415,-5,-4,0,-7,-24,-2,-9,-3
1523179346511415,-1,0,-4,-7,-8,38,6,2
1523179346517878,0,1,3,16,25,-4,4,-1
1523179346517878,2,2,0,-5,34,-11,-9,-2
1523179346534421,-4,-2,0,4,41,13,2,0
1523179346534421,-3,-2,1,0,4,-1,-3,-4
1523179346535925,-3,-4,-6,-1,-12,2,0,-2
1523179346535925,3,0,-4,-8,-32,-3,-2,0
1523179346556981,-1,-1,0,-35,-81,-18,-2,2
1523179346556981,-1,3,1,7,38,18,4,-8
1523179346558485,-5,-6,1,1,-1,19,3,-3
1523179346558485,8,7,6,21,41,-23,-4,1
1523179346571254,-15,-12,-10,-17,0,7,-19,-3
1523179346571254,-1,-1,3,0,-54,20,12,5
1523179346578041,3,-3,-4,2,56,-4,-4,2
1523179346578041,-13,-3,-7,-8,-12,4,3,-13
1523179346594628,7,4,7,3,-54,-22,-4,-2
1523179346594628,-3,-5,-11,-12,14,-34,-18,-4
1523179346596087,-4,-4,-2,6,18,8,2,-1
1523179346596087,3,1,-1,-2,-24,16,6,7
1523179346616640,3,0,1,6,3,-5,5,-1
1523179346616640,-2,-1,1,2,-58,-32,-9,-2
1523179346618648,-2,1,-2,-1,20,-7,2,-1
1523179346618648,-2,-1,-3,-9,-73,-10,-3,1
1523179346631177,-2,0,-3,5,20,22,3,-8
1523179346631177,2,2,6,9,11,10,1,4
1523179346638196,-3,-2,-7,-19,-14,-18,-11,-3
1523179346638196,2,-2,1,20,61,1,-4,-1
1523179346654789,-3,-1,-5,-18,-70,10,-2,3
1523179346654789,-1,2,1,-6,-51,13,9,1
1523179346656412,0,0,6,20,33,0,1,-2
1523179346656412,12,-3,-6,-2,-19,-6,-2,29
1523179346676804,-8,2,3,3,7,3,1,-42
1523179346676804,-9,-2,-9,-20,-75,-41,-25,-8
1523179346678303,-15,-2,-3,-2,10,1,2,-13
1523179346678303,15,0,1,-4,-39,-11,0,13
1523179346690918,7,3,3,8,38,1,-1,13
1523179346690918,-9,-6,-3,-2,-3,-10,2,4
1523179346699362,-12,-3,-5,-2,56,4,-3,-22
1523179346699362,-2,-2,-1,-5,-9,-26,-13,-3
1523179346714399,11,-1,-4,-13,-95,0,11,14
1523179346714399,6,0,-1,20,18,-10,-1,2
1523179346715904,-2,1,-3,-30,-66,-9,0,4
1523179346715904,-8,-5,-9,-24,-2,-16,-5,-10
1523179346736999,5,5,9,28,63,16,2,3
1523179346736999,-4,-4,2,3,-16,38,11,1
1523179346738464,6,-4,-1,12,38,-4,-3,4
1523179346738464,-7,-2,-3,-7,14,-6,-2,-10
1523179346750495,-4,-3,-1,-1,30,-6,-4,-1
1523179346750495,1,0,-5,-7,8,2,-9,-5
1523179346759520,6,1,9,26,6,6,8,7
1523179346759520,-5,2,1,-15,-94,-22,-4,-6
1523179346774559,-5,3,-3,6,67,24,4,2
1523179346774559,2,1,24,-5,-6,-9,-10,-1
1523179346776064,0,-7,-43,0,-57,2,1,-1
1523179346776064,-4,-3,13,-7,7,5,7,-10
1523179346797122,-4,3,-1,-2,-16,-31,-9,2
1523179346797122,0,1,-3,-3,9,19,8,-2
1523179346798623,2,1,6,-5,-20,-9,-8,-3
1523179346798623,-5,-2,1,21,44,19,12,0
1523179346810660,2,-3,-7,-15,-31,-2,-1,1
1523179346810660,2,1,-2,-1,44,9,-9,-4
1523179346819679,2,4,12,-5,-54,-19,5,2
1523179346819679,1,2,-14,11,23,20,-1,-2
1523179346834218,0,-3,10,12,65,24,4,4
1523179346834218,-1,-4,-14,-14,-20,-30,-2,-3
1523179346836232,-7,-5,0,-10,-67,-24,-16,-6
1523179346836232,4,4,9,19,17,8,3,8
1523179346857013,2,2,0,0,4,-13,2,-6
1523179346857013,-1,-2,-3,2,33,3,3,4
1523179346858280,1,-2,-4,-15,10,-16,-5,2
1523179346858280,-1,0,-1,15,20,5,-5,-2
1523179346870314,-2,-5,3,6,37,4,0,-1
1523179346870314,1,2,8,-7,-9,1,2,-2
1523179346879338,6,-1,-20,-13,-12,-19,-6,7
1523179346879338,-9,1,1,3,44,4,0,-7
1523179346894439,-14,-1,-5,-9,-31,-8,-10,-13
1523179346894439,5,0,4,6,-1,-6,12,-4
1523179346895882,-2,1,9,-6,3,25,20,-1
1523179346895882,6,-1,-8,-22,-9,9,-2,8
1523179346916939,0,-2,3,6,-40,-19,-4,1
1523179346916939,-3,-2,-6,5,33,20,-4,-2
1523179346918444,-1,-3,-5,-13,-36,-38,-15,2
1523179346918444,1,-1,-2,0,-7,29,10,-6
1523179346930473,0,0,7,-1,-19,-12,-3,2
1523179346930473,-3,-3,-12,-13,-75,-41,-20,-5
1523179346939499,7,2,6,8,-26,24,13,7
1523179346939499,-3,0,4,1,-7,-5,-4,-5
1523179346954787,-2,-3,-2,0,7,13,3,-1
1523179346954787,0,2,-4,1,-2,-15,1,4
1523179346956043,2,-2,-8,-6,41,23,-5,-5
1523179346956043,-7,-7,-3,-3,-49,-12,0,2
1523179346977109,-2,1,0,5,-48,0,4,-4
1523179346977109,0,1,-5,-5,49,6,4,0
1523179346978607,0,3,12,-5,37,11,-21,-5
1523179346978607,0,-1,-6,3,-65,21,11,0
1523179346990633,1,-4,-3,15,77,7,24,7
1523179346990633,3,1,0,-1,-50,-3,-5,-1
1523179346999697,-5,1,9,21,23,18,6,-2
1523179346999697,1,0,-3,-6,38,-24,-12,-2
1523179347014196,-2,-3,-1,-4,-62,4,-9,-2
1523179347014196,-1,-1,-8,-7,-30,1,5,-2
1523179347016200,0,0,3,-1,-7,-18,-3,3
1523179347016200,1,3,12,4,49,34,-1,0
1523179347036799,1,-1,-11,-13,32,-9,0,-3
1523179347036799,-4,-3,-2,-4,-87,-34,-5,-3
1523179347038806,0,0,-7,1,34,9,4,-2
1523179347038806,-6,-7,-10,-8,-36,-25,-10,-7
1523179347050513,5,5,5,1,-1,10,-7,4
1523179347050513,-3,-2,11,6,42,-4,3,1
1523179347059316,-2,2,6,9,-38,3,-6,-3
1523179347059316,-2,-3,-11,-3,45,7,10,-1
1523179347074597,4,3,4,-7,-28,-21,-2,0
1523179347074597,-3,-9,-12,2,29,16,10,0
1523179347075861,6,1,4,-3,-29,-12,-2,2
1523179347075861,-6,1,8,10,20,14,-6,-8
1523179347096918,-2,1,1,7,-50,-5,-8,-2
1523179347096918,3,2,1,5,13,4,-4,-4
1523179347098422,-7,-5,6,-10,-7,14,8,2
1523179347098422,3,-3,-11,-5,28,-22,-7,-1
1523179347110466,-1,-1,2,4,28,16,0,0
1523179347110466,-1,0,-4,0,-47,7,-1,4
1523179347119476,-4,-3,-5,-7,-14,-11,-3,-5
1523179347119476,2,-1,-1,5,-23,-10,-5,1
1523179347134516,-1,0,7,7,-3,-9,-1,0
1523179347134516,1,-3,-7,-7,87,1,-7,0
1523179347136021,3,2,-1,-3,-41,73,20,4
1523179347136021,-1,1,-1,3,17,-6,-4,-1
1523179347157075,0,-3,-9,-12,-6,-6,1,-2
1523179347157075,0,-1,5,2,19,5,2,0
1523179347158583,-2,-2,-4,7,-2,-18,-7,-5
1523179347158583,0,1,1,-20,-44,-9,7,1
1523179347179138,2,3,-1,-4,2,4,-8,3
1523179347179138,-4,-2,-7,15,18,0,-7,-5
1523179347181140,-3,-5,0,0,12,-20,11,-2
1523179347181140,1,1,-3,-3,-23,-2,-5,1
1523179347194256,2,1,-2,-11,20,-11,1,-2
1523179347194256,-5,-2,2,-5,-3,2,-3,-2
1523179347196180,-2,-3,-4,4,-14,-16,-14,-3
1523179347196180,-1,-1,0,-3,-76,-56,-7,-2
1523179347217236,0,0,0,1,65,5,7,2
1523179347217236,0,-1,-4,-3,-8,-2,8,3
1523179347218741,-1,-3,-3,0,31,-5,-5,-2
1523179347218741,-3,-2,1,-1,-33,-13,-2,-1
1523179347239529,-3,-2,-7,-16,51,0,-10,-2
1523179347239529,-2,-2,-3,1,-67,-5,2,-1
1523179347240798,3,2,7,-1,97,-8,-6,-2
1523179347240798,-9,-3,-6,0,47,-6,3,-1
1523179347254334,0,0,12,1,-128,59,7,1
1523179347254334,1,0,-7,9,72,11,3,0
1523179347256378,-1,-8,-18,-20,-5,-7,-5,0
1523179347256378,3,-2,2,7,9,17,-7,-2
1523179347276897,-3,-4,-4,-2,4,-18,-5,-6
1523179347276897,-1,3,5,-14,-4,-12,-8,-3
1523179347278400,3,4,4,31,-35,7,1,2
1523179347278400,0,-3,1,-1,27,5,5,7
1523179347299454,-2,-3,-7,-2,-8,-23,-16,-11
1523179347299454,-2,-2,-3,-5,-8,16,20,2
1523179347300958,-2,-1,0,-5,39,1,-2,1
1523179347300958,-1,-1,-7,1,-42,4,0,-4
1523179347313491,-3,-3,-5,1,-43,-17,-1,0
1523179347313491,0,3,9,-1,-16,-22,-7,1
1523179347320548,-2,3,2,-4,68,28,8,-1
1523179347320548,0,-1,2,-2,-29,35,5,0
1523179347336593,0,-3,-6,3,31,-17,-1,-1
1523179347336593,-1,-4,3,17,18,3,-4,-3
1523179347338558,-3,-2,-1,-9,-66,-28,-4,-2
1523179347338558,3,2,5,4,97,35,-3,-5
1523179347359619,-5,-8,-8,3,13,-4,8,3
1523179347359619,-1,1,1,-5,-11,6,-3,-1
1523179347361119,0,0,5,0,-5,-1,2,0
1523179347361119,-1,-1,-11,-9,-5,-8,-2,-1
1523179347373651,-3,-3,-4,-8,28,-6,-1,-2
1523179347373651,1,2,-5,9,70,13,5,0
1523179347380669,-2,-1,-3,-4,-99,-12,-9,-3
1523179347380669,1,1,-3,-19,39,-15,3,-2
1523179347396714,-3,-5,-9,5,-40,2,5,2
1523179347396714,2,-5,-1,-25,-43,-23,-6,-2
1523179347398717,-2,0,6,23,48,11,1,-2
1523179347398717,1,1,6,0,-73,-13,-10,1
1523179347419274,0,3,5,3,-2,3,-1,0
1523179347419274,3,2,5,0,44,13,0,-2
1523179347420776,0,-2,-16,-8,-31,-26,3,1
1523179347420776,-4,-5,2,10,6,27,-1,-4
1523179347433811,3,-2,-5,-11,-40,-2,5,7
1523179347433811,-5,-2,1,0,1,-16,-11,-11
1523179347440869,-3,1,-3,4,97,17,9,3
1523179347440869,1,0,3,11,58,25,5,3
1523179347457108,-1,1,1,2,-22,2,-1,-1
1523179347457108,-1,-3,-1,1,15,2,-3,1
1523179347458381,1,0,5,-12,-98,-51,-10,-4
1523179347458381,-2,0,-2,17,-55,37,8,0
1523179347479435,-2,-3,-6,-23,27,2,-9,-5
1523179347479435,-1,-4,3,0,-12,1,0,3
1523179347480936,0,0,-2,4,-66,-3,-13,-4
1523179347480936,-2,0,-1,0,32,-15,6,1
1523179347494002,2,1,-1,-1,34,17,6,0
1523179347494002,-2,4,12,14,-6,4,-1,0
1523179347500529,-3,-5,-11,-16,-55,-10,-3,0
1523179347500529,0,-5,1,1,29,-12,-2,-1
1523179347517035,-1,1,3,-2,-1,-13,-8,-3
1523179347517035,3,3,-3,2,7,18,9,2
1523179347518537,-5,-4,2,-1,58,25,4,-1
1523179347518537,-1,3,0,-9,-53,-30,-6,2
1523179347539737,-1,-2,-2,5,19,-10,-10,-9
1523179347539737,-1,1,-6,-12,-55,-9,9,2
1523179347541096,-3,-2,5,1,55,31,-10,2
1523179347541096,1,1,3,-6,-48,4,18,-1
1523179347553844,0,-4,-10,8,-7,-6,0,2
1523179347553844,-2,1,-1,-5,-23,-9,-2,-2
1523179347560649,0,-2,3,-1,42,14,4,-4
1523179347560649,-2,-2,1,-2,12,-20,-12,-2
1523179347577205,-3,0,1,-2,-11,5,1,0
1523179347577205,1,-1,-1,3,22,11,-6,-3
1523179347578698,-3,-3,-4,-6,-63,-17,9,2
1523179347578698,0,1,6,-1,6,-14,-8,-4
1523179347599753,-4,-4,-7,6,18,-6,0,-2
1523179347599753,1,0,-2,1,-24,14,-8,-1
1523179347601331,2,1,-3,-8,29,15,1,1
1523179347601331,1,-1,-1,6,-15,-8,-2,-7
1523179347613790,-1,0,2,-1,1,1,3,2
1523179347613790,1,-3,-5,-8,-14,-17,-7,-5
1523179347620512,2,1,3,1,40,8,-3,-2
1523179347620512,1,-1,-13,7,-17,-9,3,2
1523179347637087,-4,-2,11,-11,-54,-26,2,-2
1523179347637087,-2,-2,-9,17,1,-4,-8,1
1523179347638356,2,-1,1,-12,82,12,1,0
1523179347638356,2,2,2,2,-22,21,-10,-1
1523179347659427,-8,-3,-1,1,-28,6,5,-3
1523179347659427,0,-1,-3,-17,11,-3,-2,1
1523179347660925,0,1,4,28,-47,-11,4,-2
1523179347660925,-2,-1,-2,-4,36,3,-8,-2
1523179347672946,0,-2,1,1,-3,0,-6,-1
1523179347672946,-3,-2,1,-6,-16,1,6,-1
1523179347681971,-2,-2,0,-1,-4,-5,-10,-3
1523179347681971,-1,0,-16,-15,18,-2,1,1
1523179347697011,2,-3,-3,-2,-1,3,12,-4
1523179347697011,-3,0,-1,1,-14,3,-5,1
1523179347698516,-1,-3,0,6,-4,-11,2,1
1523179347698516,0,-1,6,8,0,13,-5,-2
1523179347719763,0,1,0,-5,50,8,-4,2
1523179347719763,-2,-3,-4,1,-9,-5,4,-2
1523179347721076,0,4,0,-11,-23,-14,-6,-2
1523179347721076,-4,-4,-4,-5,56,-1,1,1
1523179347733108,3,1,-2,3,-29,4,1,0
1523179347733108,1,-2,2,8,29,-4,1,-2
1523179347742135,-2,-5,-11,-16,-38,1,-4,1
1523179347742135,-3,-2,0,12,22,-12,5,-5
1523179347757261,-1,0,-1,-1,11,-8,-4,1
1523179347757261,0,0,2,6,-12,-8,-2,2
1523179347758676,9,7,0,1,35,18,5,2
1523179347758676,-9,-8,0,-18,-51,-3,8,1
1523179347779269,4,3,-2,13,23,-2,-9,3
1523179347779269,2,5,8,2,2,15,3,-1
1523179347780733,-7,-8,-12,-11,-20,-20,-7,-7
1523179347780733,2,3,5,4,-59,-12,7,2
1523179347793271,-3,1,0,-11,-11,6,-6,0
1523179347793271,-2,2,2,-1,23,-15,-6,-2
1523179347802331,0,-5,-12,-7,-1,2,-2,-1
1523179347802331,-1,-5,-3,-5,-15,0,-5,-2
1523179347816830,-3,-1,-8,6,-3,-3,4,-2
1523179347816830,0,-1,5,-15,-21,3,4,1
1523179347818835,2,5,5,16,59,-5,-1,-3
1523179347818835,-7,-6,-8,-17,-52,-15,-10,-4
1523179347839389,2,2,0,-5,62,25,6,0
1523179347839389,-2,-4,-3,1,-8,13,6,0
1523179347840894,-2,2,3,-3,4,1,5,-2
1523179347840894,2,3,4,-4,12,-1,-3,3
1523179347853162,-3,-3,-2,-5,-2,-14,-8,-3
1523179347853162,-1,-4,-6,-2,9,3,3,-1
1523179347861949,0,-3,-3,-5,-26,1,-4,0
1523179347861949,-3,0,-1,0,-45,-15,-2,-3
1523179347876995,-5,-3,-3,-3,31,-3,0,-3
1523179347876995,-5,0,3,1,-17,-6,-10,-2
1523179347878493,1,-2,-3,17,-35,19,7,2
1523179347878493,-3,2,-1,-3,33,-7,-1,-2
1523179347899766,0,-6,-2,-1,-24,-5,-12,-3
1523179347899766,1,2,-2,-8,6,-10,10,1
1523179347901386,-3,3,5,2,-38,-13,-2,-1
1523179347901386,1,-3,-1,11,57,20,1,0
1523179347912803,-1,0,-3,-9,1,2,-1,-1
1523179347912803,-1,0,1,0,-33,-7,-8,-2
1523179347921828,0,-2,-2,-9,-6,-14,0,0
1523179347921828,-2,-3,-1,7,22,2,1,-1
1523179347936869,-1,-4,-4,-1,34,-4,-4,-2
1523179347936869,2,-1,-6,2,-41,-15,-2,0
1523179347938873,-3,-3,0,-2,7,-10,-1,-3
1523179347938873,1,2,2,-2,41,11,0,0
1523179347959451,-1,3,3,0,60,5,2,0
1523179347959451,-2,-1,-3,1,17,2,-1,-3
1523179347960932,-1,-2,-2,-6,-1,9,1,1
1523179347960932,3,-2,-1,3,66,7,-1,0
1523179347972965,1,3,6,7,-78,-13,-1,-1
1523179347972965,1,-3,-8,-13,12,-5,-5,-2
1523179347981988,-1,0,7,17,43,30,5,1
1523179347981988,-1,-4,-5,-9,19,-15,0,-3
1523179347997029,-2,0,-1,-5,-24,3,-5,0
1523179347997029,-1,0,-1,5,19,-7,6,1
1523179347998532,2,-1,0,-5,-18,-15,-4,-1
1523179347998532,-5,-2,-2,-11,-76,-17,-10,-6
1523179348019587,3,3,5,-6,-9,12,2,2
1523179348019587,-5,-4,0,12,64,25,0,-2
1523179348021095,-4,-3,-5,-8,-17,-10,0,-3
1523179348021095,0,1,-2,-1,-7,-3,1,1
1523179348033124,-1,-2,-3,-3,-32,-21,-6,-2
1523179348033124,-1,-4,-2,-1,-2,-4,-5,0
1523179348042148,0,1,-1,-1,23,5,-2,-1
1523179348042148,-3,-1,1,2,-80,-15,-1,0
1523179348057018,-2,-6,-3,3,46,19,2,0
1523179348057018,-1,-2,1,-8,-37,2,3,-1
1523179348057786,-2,-5,-5,-9,-40,-17,-7,-3
1523179348057786,5,9,6,13,56,20,1,0
1523179348078841,-1,1,1,3,-5,2,18,4
1523179348078841,1,1,-2,-12,-56,-3,-15,-3
1523179348080847,-3,-4,-2,11,81,12,3,0
1523179348080847,0,-7,-6,-13,-7,-3,-1,-2
1523179348102141,1,-2,1,4,-30,-5,-6,-1
1523179348102141,-5,-3,-1,-3,23,-3,-6,-4
1523179348103952,-1,3,0,-7,-28,-9,9,1
1523179348103952,0,1,-1,3,6,0,-18,2
1523179348116945,0,-1,1,3,4,-8,2,-2
1523179348116945,1,-1,-2,6,28,6,1,-2
1523179348118947,1,1,1,-4,-43,-7,1,1
1523179348118947,-4,-1,-5,-10,34,-34,-3,-4
1523179348139762,0,1,2,8,-20,6,3,1
1523179348139762,1,0,-1,0,32,1,-2,1
1523179348141233,-1,0,-1,4,5,9,2,0
1523179348141233,-2,-4,-3,-13,-11,-18,-5,-1
1523179348161884,-4,-1,0,2,45,23,2,-1
1523179348161884,1,2,-2,-1,-9,-2,0,-2
1523179348162901,-3,-9,-5,-15,-33,-24,-11,-2
1523179348162901,-1,-1,6,22,14,26,7,1
1523179348176925,0,0,-3,-11,-15,-9,-9,-6
1523179348176925,-3,0,-1,1,26,-2,6,10
1523179348177926,2,5,6,1,-99,-2,-1,-5
1523179348177926,0,-1,-6,-17,15,-9,-10,-4
1523179348199022,1,3,6,23,2,31,21,6
1523179348199022,-1,-2,-7,-17,4,-19,-2,-3
1523179348200987,-3,-3,-1,24,13,-16,1,-3
1523179348200987,-1,1,4,-11,64,33,13,1
1523179348222043,4,-3,-5,-12,-47,-22,-7,2
1523179348222043,-7,0,-1,-3,-19,-2,-33,-26
1523179348223046,0,-2,-4,-4,5,0,-2,21
1523179348223046,0,1,-1,8,-32,6,7,-2
1523179348236120,-1,-3,-6,-10,33,-12,-7,-1
1523179348236120,2,0,0,-4,-45,-5,12,1
1523179348243110,-1,-3,0,-3,29,0,-11,-16
1523179348243110,-2,-3,0,9,-15,5,-2,2
1523179348258909,-1,-1,0,-3,-6,-7,7,3
1523179348258909,0,-3,-4,-3,3,-51,-35,-1
1523179348260913,4,7,3,-7,26,77,47,2
1523179348260913,0,-6,-2,14,58,-30,-5,-1
1523179348281968,-1,2,6,10,-19,27,7,-2
1523179348281968,2,3,-1,-8,5,5,-4,10
1523179348282970,-3,-4,-5,-8,-22,-15,27,3
1523179348282970,-1,3,-2,-2,-26,-4,-6,-6
1523179348296006,-6,-5,-3,2,-2,2,3,-3
1523179348296006,5,-6,0,9,14,20,14,12
1523179348303259,-10,-1,1,-7,-18,-12,-4,-9
1523179348303259,0,2,3,15,10,7,8,-10
1523179348321209,0,2,-6,-17,-23,-12,-8,-1
1523179348321209,1,-3,-1,4,50,7,5,6
1523179348322076,-1,-4,-2,2,37,-24,-5,-2
1523179348322076,0,-1,0,-14,-90,12,8,2
1523179348342139,2,-5,-7,-5,-24,-18,5,2
1523179348342139,6,2,8,5,-75,1,14,-4
1523179348343638,-5,-1,3,14,105,8,14,-3
1523179348343638,-5,-2,-6,-8,-65,-31,1,-8
1523179348355662,2,3,-2,-7,56,-17,-19,5
1523179348355662,2,0,-3,2,-19,20,26,2
1523179348364452,1,-4,-8,-12,20,-18,-32,-6
1523179348364452,0,0,-5,-17,-32,34,39,19
1523179348379490,0,1,6,-24,24,9,-14,0
1523179348379490,5,10,18,69,126,34,23,8
1523179348380493,-5,-2,-6,-25,-68,-3,-11,-8
1523179348380493,-2,-5,-6,-7,-8,-4,-18,-7
1523179348401789,-2,-9,-13,-23,-24,-22,-17,-1
1523179348401789,-3,-12,-15,-29,-44,-5,-18,-32
1523179348403555,8,11,18,33,76,60,-59,24
1523179348403555,-15,0,4,9,11,-12,-6,-4
1523179348415587,-3,-2,-1,9,-42,-3,6,-11
1523179348415587,-2,-3,-6,-19,-21,-20,-18,5
1523179348424615,2,-5,-6,-3,-2,-4,6,-16
1523179348424615,2,-1,-2,-5,10,9,-4,-12
1523179348439389,0,1,3,21,27,12,-3,28
1523179348439389,-6,-2,-4,-11,7,6,11,-8
1523179348441164,1,-3,-8,-23,-42,-31,2,-4
1523179348441164,7,5,6,9,-1,6,-4,13
1523179348461547,-5,-4,-2,4,-18,-5,-6,-14
1523179348461547,1,-3,-8,-15,36,-19,13,1
1523179348463571,5,2,7,4,-80,-5,13,36
1523179348463571,0,3,0,-1,20,-2,-11,-15
1523179348475591,-11,-1,-2,7,-2,2,-11,-26
1523179348475591,-2,-2,0,-10,-26,-10,-4,-4
1523179348484608,1,-3,-2,3,18,2,-19,6
1523179348484608,9,-2,0,7,28,11,4,1
1523179348498644,-3,1,-2,-16,-19,-17,17,-9
1523179348498644,-6,-2,-1,15,-10,4,1,9
1523179348500651,12,1,-6,-14,70,3,5,3
1523179348500651,-19,-5,-5,-8,45,-14,-21,-17
1523179348521941,-2,2,3,10,-59,-30,23,8
1523179348521941,2,5,5,21,-10,4,-26,5
1523179348522710,-2,-3,0,7,7,3,-1,-22
1523179348522710,1,-4,-7,-13,2,-1,-8,2
1523179348535743,-1,-3,-1,-4,29,-6,-17,7
1523179348535743,-4,-2,-4,-11,-36,-8,0,-11
1523179348544774,-9,3,3,-1,-21,-16,-5,-21
1523179348544774,-1,-9,-8,3,-22,-6,-10,14
1523179348559648,4,-2,3,12,-82,-17,7,-3
1523179348559648,0,-3,-4,-23,13,6,2,4
1523179348560649,-3,-3,-5,-5,40,-4,-19,-10
1523179348560649,-3,1,4,3,-85,-33,10,2
1523179348581705,5,3,1,18,34,14,-5,2
1523179348581705,1,-3,-4,-20,44,3,-14,2
1523179348583709,-13,-2,0,2,-20,-12,11,-6
1523179348583709,-1,-4,-5,-10,-6,-14,-41,-1
1523179348604803,8,1,-2,-10,22,19,-12,3
1523179348604803,-5,1,1,6,-30,0,36,-16
1523179348604803,4,-1,2,-2,10,15,33,23
1523179348604803,2,1,1,6,0,7,-10,8
1523179348619805,0,-4,-4,-14,-11,-14,-9,-13
1523179348619805,0,2,9,14,27,27,5,-1
1523179348620807,-2,1,-3,-5,-32,-14,-4,5
1523179348620807,0,0,1,-3,67,51,27,-7
1523179348641371,-2,0,1,7,16,18,22,6
1523179348641371,-1,-4,-7,-1,-13,-10,0,-15
1523179348641871,3,-2,0,11,-10,0,10,1
1523179348641871,60,6,1,-5,7,-2,-41,46
1523179348663761,-60,-2,0,2,-44,-7,3,-67
1523179348663761,-27,-7,-3,-5,37,-11,-22,-6
1523179348664760,4,2,2,-5,-8,-11,33,-5
1523179348664760,-14,-4,1,5,-52,10,24,-7
1523179348678798,34,1,-1,-3,7,-3,-17,21
1523179348678798,1,-2,-4,0,-22,-15,0,6
1523179348678798,-13,-1,0,2,-10,0,-21,-8
1523179348678798,-5,-2,-3,-7,2,-42,7,-13
1523179348701095,1,2,4,1,17,40,-2,5
1523179348701095,4,-2,-3,-3,-19,17,49,-5
1523179348701859,3,-2,-3,-4,4,-1,-6,-10
1523179348701859,-10,-2,1,3,-7,-20,-36,-37
1523179348723918,-8,-3,-6,7,55,-8,0,-9
1523179348723918,5,4,4,-30,-55,-15,-8,8
1523179348724921,8,-2,-7,-5,-5,-5,0,-1
1523179348724921,-4,2,5,29,58,32,18,-6
1523179348738930,-2,-6,-3,-12,11,-15,-13,9
1523179348738930,10,3,1,6,17,3,-10,5
1523179348739817,-4,-4,-3,-10,-25,-5,-3,5
1523179348739817,-9,-3,-3,-16,-28,-26,2,5
1523179348760510,9,-3,-5,2,23,31,-18,7
1523179348760510,7,5,7,13,99,13,31,9
1523179348761511,-14,-2,3,0,-95,-8,-3,-2
1523179348761511,-17,-4,-6,-13,17,13,-4,-8
1523179348784574,12,4,6,9,38,-9,5,7
1523179348784574,-3,-4,-8,-10,-51,13,-24,-1
1523179348784574,4,0,0,10,29,0,-11,-1
1523179348784574,12,3,-1,-1,43,7,9,20
1523179348798611,-2,-2,-6,-6,56,-18,9,18
1523179348798611,-15,-2,0,6,-82,14,40,-25
1523179348799615,2,-1,0,5,51,15,-3,0
1523179348799615,-3,-4,-2,-7,-19,2,13,10
1523179348820904,3,0,0,-9,-43,-7,-5,1
1523179348820904,2,-1,-2,5,33,-12,-22,-1
1523179348821670,-1,-1,0,0,-20,-8,-2,-2
1523179348821670,-7,-1,-3,-3,23,-6,-13,-13
1523179348844239,-1,-2,0,-6,-76,-12,-7,1
1523179348844239,-3,-1,1,12,28,2,27,2
1523179348845245,-5,-4,-9,-18,-30,-37,-13,-11
1523179348845245,-1,1,2,5,8,-3,-25,6
1523179348858543,-1,2,4,1,39,27,-10,-9
1523179348858543,0,-1,0,-5,-24,-16,-24,-7
1523179348859545,-13,-2,-1,2,18,-1,6,-4
1523179348859545,0,1,-1,0,37,-11,6,-1
1523179348880594,0,0,-3,-11,-63,9,61,-7
1523179348880594,25,-2,-4,-2,8,-5,-24,64
1523179348881597,-31,1,2,3,-1,2,0,-34
1523179348881597,1,0,1,3,0,14,13,-2
1523179348904760,3,1,2,5,-58,-10,5,4
1523179348904760,4,0,1,0,19,-9,-16,-4
1523179348904760,5,-2,-3,-2,-12,-9,-3,4
1523179348904760,-6,-3,-2,-5,-21,-1,3,7
1523179348918934,5,-1,-5,-7,20,-15,-23,7
1523179348918934,-13,2,2,10,-69,6,40,-7
1523179348918934,3,-2,-3,1,51,3,7,-7
1523179348918934,-3,2,4,5,-31,7,-4,-6
1523179348941259,4,0,6,11,-6,4,-11,6
1523179348941259,-7,-5,-5,-7,-9,-4,-13,-10
1523179348942265,8,-1,-5,-4,82,37,17,6
1523179348942265,6,2,6,5,-51,17,16,1
1523179348964140,-5,-2,-2,0,63,-17,-5,-11
1523179348964140,-6,-1,5,13,0,-14,-12,-8
1523179348965142,3,-2,-3,-5,-28,-8,-18,4
1523179348965142,0,-1,-8,-11,-3,-16,-3,4
1523179348978177,-3,-5,-15,-29,-33,9,7,3
1523179348978177,2,10,28,50,40,28,3,-2
1523179348979179,6,1,1,4,22,5,-3,5
1523179348979179,-4,-3,-5,-8,-39,-4,-2,-8
1523179349001474,-6,-4,-8,-15,-17,-18,-12,-12
1523179349001474,0,-4,-9,-20,-34,-29,-11,-15
1523179349001474,-2,1,5,3,-22,43,4,18
1523179349001474,-2,1,8,17,-28,7,5,-11
1523179349024301,2,0,-2,-4,-14,-11,-3,-6
1523179349024301,0,-5,-9,-16,4,-16,-7,47
1523179349025307,12,0,0,1,4,-4,1,28
1523179349025307,-11,-3,-7,-13,-8,-2,1,7
1523179349038573,-1,0,3,11,24,7,-6,-17
1523179349038573,-6,-3,-6,-12,-42,9,-13,-22
1523179349039814,15,1,0,2,2,-9,0,4
1523179349039814,-9,-3,-2,-2,30,0,8,-8
1523179349060930,6,-3,1,3,-3,-2,0,8
1523179349060930,-5,-1,-1,3,-2,-18,-3,-8
1523179349061896,-4,0,-3,-4,50,33,-30,-9
1523179349061896,8,2,5,10,-24,4,35,1
1523179349082953,-5,-3,0,1,45,12,5,8
1523179349082953,1,-4,-11,-19,-36,0,-2,-3
1523179349083953,0,0,8,10,-8,-9,11,-16
1523179349083953,5,1,0,-2,5,-10,-17,-4
1523179349097990,-4,2,0,1,-8,8,8,3
1523179349097990,2,-4,-3,-3,42,2,0,1
1523179349098994,-5,-4,-7,-7,-39,-19,-3,7
1523179349098994,-1,-6,-10,-15,65,19,-4,3
1523179349121289,-3,2,8,21,37,73,3,-15
1523179349121289,-4,3,3,2,40,14,0,-4
1523179349122054,0,0,4,6,-17,9,0,1
1523179349122054,0,1,-3,-8,-27,-7,1,-1
1523179349143849,1,-6,-9,-11,0,-19,-8,0
1523179349143849,-1,-3,-4,-10,-49,-16,-11,-3
1523179349144349,-4,-3,-5,-14,-15,-7,-4,-9
1523179349144349,-1,-4,-8,-21,31,5,0,-1
1523179349159973,-1,14,38,50,-54,17,8,5
1523179349159973,-1,3,-8,-5,-28,3,-6,-4
1523179349160977,-8,-20,-32,-11,-8,-23,-1,-2
1523179349160977,0,-6,8,-8,-18,-21,-9,-8
1523179349181029,0,3,-5,-10,-4,-31,-7,3
1523179349181029,-3,-2,1,-3,38,37,5,-3
1523179349182032,2,6,-5,-20,-56,-38,2,-6
1523179349182032,1,3,-5,-4,5,8,0,1
1523179349204089,-4,-2,8,24,43,-12,-14,-1
1523179349204089,1,-1,2,-3,0,-7,6,1
1523179349204089,-6,-1,-3,-5,32,-21,-7,-5
1523179349204089,0,-1,1,7,-65,-5,2,0
1523179349219129,6,-1,-9,-26,-109,-14,3,14
1523179349219129,-7,-3,3,0,2,-35,-21,-20
1523179349219129,0,5,10,18,5,32,6,-2
1523179349219129,-4,-2,0,4,23,-1,-1,-3
1523179349241432,1,-2,-10,-19,-18,-15,-1,7
1523179349241432,3,-3,-7,-3,-23,-8,-15,-6
1523179349241931,3,-1,-1,-11,70,8,-17,-8
1523179349241931,-10,8,17,27,-61,24,36,-1
1523179349263073,-4,1,2,29,46,4,-16,3
1523179349263073,1,-1,-1,-4,4,-6,-4,0
1523179349264076,6,4,9,7,-6,-1,-3,3
1523179349264076,-2,-8,-14,-17,-1,-20,-17,1
1523179349278112,5,-3,-7,-15,8,-4,12,1
1523179349278112,-4,0,3,8,-3,-12,1,0
1523179349279116,-12,3,6,29,-30,22,1,-1
1523179349279116,3,-2,-6,-5,19,-4,-13,-3
1523179349301409,-6,-2,-1,1,11,10,9,-7
1523179349301409,11,0,-5,-16,-13,-8,-4,10
1523179349302175,-13,-8,-9,-12,-65,-54,-16,-4
1523179349302175,-4,6,4,12,-37,35,27,-22
1523179349323233,0,-3,2,1,28,-3,1,-1
1523179349323233,1,1,0,8,36,13,-12,1
1523179349324235,0,-3,-1,-6,-2,-2,11,8
1523179349324235,0,-1,3,6,14,-8,-26,-4
1523179349338783,-1,1,-6,-9,42,40,7,0
1523179349338783,-5,-1,-1,1,21,4,13,-4
1523179349339284,10,2,2,11,-34,-12,0,16
1523179349339284,-6,-3,-5,-3,41,-19,-9,-24
1523179349361100,2,-2,-5,-12,-37,1,1,1
1523179349361100,-6,-7,-2,0,3,16,6,1
1523179349362102,1,0,3,-4,27,6,-4,4
1523179349362102,1,-4,-7,-17,-10,-19,2,1
1523179349383157,29,-1,-3,7,27,-4,-11,39
1523179349383157,-47,-7,-2,-3,-9,-3,4,-66
1523179349384161,9,0,-6,-21,-20,-29,-9,-5
1523179349384161,-5,3,13,43,57,22,18,18
1523179349398198,-3,-3,-3,-16,-4,7,-10,-6
1523179349398198,13,1,-1,8,12,4,6,17
1523179349399201,1,0,1,-8,-29,4,3,-3
1523179349399201,1,-4,-8,-15,-1,-21,-18,0
1523179349421499,-5,-1,0,-3,-13,-24,-5,-8
1523179349421499,1,5,5,2,-66,-4,21,-9
1523179349421499,-3,-3,-1,7,26,-2,-17,-14
1523179349421499,16,-8,-8,-5,-8,-15,-4,27
1523179349443558,-23,-1,3,-2,-39,-14,5,-25
1523179349443558,14,3,-2,-9,71,28,-4,20
1523179349444559,3,-3,7,12,-37,13,14,1
1523179349444559,3,2,-1,-7,-12,0,-10,4
1523179349458358,-4,-5,-10,-19,-12,-19,-11,-14
1523179349458358,3,0,0,-3,-13,-11,-3,15
1523179349459356,-7,2,-1,1,30,7,5,-19
1523179349459356,2,6,10,23,24,16,7,5
1523179349481412,-8,-4,-8,-24,-24,-7,2,-7
1523179349481412,5,-1,-2,-1,26,2,-11,9
1523179349481412,-4,-4,-6,-4,-17,-1,6,1
1523179349481412,-2,1,-1,-7,-19,23,7,-10
1523179349503706,2,1,4,11,32,-7,-2,4
1523179349503706,-3,-2,-11,-39,-11,10,-8,-6
1523179349504474,4,1,7,26,88,10,2,6
1523179349504474,-1,4,1,-3,-22,-14,-1,-4
1523179349518511,-10,-10,-8,-5,-13,4,4,-5
1523179349518511,5,-1,0,4,5,-14,-4,7
1523179349519513,-2,3,0,-7,52,50,6,2
1523179349519513,-2,-1,-3,-6,-14,-5,-4,4
1523179349541316,3,2,-1,3,-20,-10,-3,-9
1523179349541316,-7,-2,2,3,-29,-11,1,4
1523179349541817,-4,-2,-3,-10,-31,-14,-3,-19
1523179349541817,-1,-5,-2,1,-9,-12,-3,-1
1523179349563452,2,2,-3,-4,0,-7,-5,2
1523179349563452,-7,0,2,13,16,0,4,-11
1523179349564453,7,7,5,1,-53,-22,-16,0
1523179349564453,-6,-5,-3,-1,40,22,6,1
1523179349578491,-3,-1,-1,3,-5,-7,-1,-2
1523179349578491,2,-2,3,16,17,12,4,6
1523179349579495,-4,-3,-5,-7,7,-7,0,0
1523179349579495,1,0,-6,-15,-19,-28,-10,-4
1523179349601589,4,3,11,12,-19,-5,-18,5
1523179349601589,-4,1,1,-3,-34,45,21,-10
1523179349601589,0,0,5,13,8,11,-1,8
1523179349601589,0,-2,-4,-20,7,-18,-6,-4
1523179349623619,-3,-3,0,24,32,-6,1,-2
1523179349623619,2,-4,-4,1,-34,-15,-18,0
1523179349624617,1,-1,0,-17,-48,-6,3,1
1523179349624617,0,-3,-1,6,25,13,4,5
1523179349637648,-3,0,2,-3,-13,-1,0,-18
1523179349637648,5,0,-3,-2,17,-14,-5,8
1523179349646172,-6,-2,-5,-8,5,12,7,-10
1523179349646172,6,-2,-1,1,-71,-23,1,11
1523179349661301,-4,0,2,-4,57,13,4,-8
1523179349661301,2,-3,-2,7,-24,-45,-9,8
1523179349661301,-3,-3,-4,-29,-40,1,-2,-3
1523179349661301,4,3,3,17,3,-12,0,4
1523179349683356,-5,-3,-6,-10,-33,6,2,-2
1523179349683356,1,-1,-4,-7,17,4,-3,-3
1523179349684362,7,0,1,6,19,-8,-28,14
1523179349684362,-11,-2,-1,-3,14,7,-1,-23
1523179349697396,2,1,1,2,-82,8,4,7
1523179349697396,0,0,0,3,28,10,7,-2
1523179349706460,-5,-4,-6,-15,-1,-25,-9,-1
1523179349706460,0,3,6,23,-2,65,8,1
1523179349721532,-2,-3,-1,-14,17,-12,-2,-3
1523179349721532,4,1,2,14,30,-7,-6,2
1523179349721532,-2,1,1,12,-15,14,15,1
1523179349721532,-7,-4,-7,-16,-1,-14,-8,-9
1523179349743761,2,2,3,10,-18,-9,3,5
1523179349743761,-5,-6,-9,-22,-25,0,4,-3
1523179349744261,-1,-1,0,13,37,-6,4,-1
1523179349744261,-1,0,-3,-9,2,-11,-3,-3
1523179349757386,1,1,-3,-11,-39,-19,-7,2
1523179349757386,-4,-2,7,17,30,14,2,-2
1523179349766407,-2,-3,-7,-8,-3,3,9,0
1523179349766407,2,0,6,8,67,9,-2,2
1523179349780443,5,-3,-4,-8,-66,-25,-1,8
1523179349780443,-6,2,4,9,36,-11,-13,-7
1523179349781446,-3,-2,0,-3,-45,9,17,-5
1523179349781446,-1,1,-1,-5,15,5,0,-4
1523179349804683,3,-1,-2,2,51,-3,1,1
1523179349804683,0,-2,-3,-5,43,45,6,5
1523179349804683,6,2,3,4,20,-1,-4,3
1523179349804683,-4,-4,2,20,-18,-14,0,-2
1523179349817544,-4,-1,-1,-4,16,16,3,-2
1523179349817544,2,-3,-6,-17,-48,-21,-6,-4
1523179349825607,-1,0,0,-6,0,-6,0,-3
1523179349825607,-1,1,-5,1,35,-5,-3,-2
1523179349841351,-1,2,1,9,-20,3,-7,1
1523179349841351,-2,-1,4,7,-40,-12,3,1
1523179349841850,2,-3,-5,-5,17,-26,-3,5
1523179349841850,-4,-3,-1,-9,-40,-9,-10,-2
1523179349863677,-10,-1,0,-2,-24,11,-2,-12
1523179349863677,-2,-4,-6,3,44,-2,5,3
1523179349864679,2,2,3,1,12,-1,-3,7
1523179349864679,0,-3,-3,-16,-27,-14,-3,-9
1523179349877755,3,1,3,21,66,14,22,4
1523179349877755,3,3,1,-23,-76,1,-7,-1
1523179349885733,0,-3,1,9,6,23,0,10
1523179349885733,-2,5,-2,-16,-46,-30,2,-20
1523179349901008,12,-2,-3,-16,29,16,-7,16
1523179349901008,-13,-3,4,29,31,-25,-2,-21
1523179349901775,-5,-1,-6,-22,-5,9,-5,-12
1523179349901775,13,-3,-7,-5,-75,-9,-7,24
1523179349923839,-12,5,21,45,104,6,22,-8
1523179349923839,4,0,-4,-11,9,7,-3,10
1523179349924841,5,1,1,21,-1,1,-3,0
1523179349924841,-1,-4,-2,-2,30,-2,-2,6
1523179349937874,3,-7,-12,-22,-33,-15,-8,5
1523179349937874,-5,-2,-8,-22,4,-2,-5,-14
1523179349946579,-5,2,0,-14,-44,21,12,-6
1523179349946579,17,2,12,57,-48,31,-34,1
1523179349961276,-22,4,5,-13,127,52,35,3
1523179349961276,1,-1,2,19,-74,-36,0,-9
1523179349961276,3,-4,-13,-55,-6,-20,-11,5
1523179349961276,-7,0,2,30,-18,11,9,-4
1523179349983336,8,-8,-13,-6,-67,-34,-24,2
1523179349983336,8,4,5,32,12,9,-6,14
1523179349991365,-8,4,6,21,31,-27,1,-12
1523179349991365,4,-4,-12,-47,-4,11,0,24
1523179350006397,-19,-9,0,40,56,-20,26,-10
1523179350006397,1,4,8,-1,-5,0,1,6
1523179350007405,1,-2,-3,-7,-45,-11,-11,-9
1523179350007405,0,-2,-3,-13,25,-14,5,-2
1523179350021532,3,2,3,42,-16,0,-12,-12
1523179350021532,-10,-5,-9,-31,-33,2,-7,-9
1523179350021532,4,6,5,23,19,2,10,16
1523179350021532,-6,-8,-10,-41,-6,-4,3,-9
1523179350043504,-2,5,1,-22,-61,-33,-19,-12
1523179350043504,-4,-14,-11,11,-6,0,6,-6
1523179350044507,1,2,6,17,-8,6,-7,-4
1523179350044507,-7,4,4,-25,0,-15,9,10
1523179350066342,11,-2,-5,-8,15,12,-2,-11
1523179350066342,-6,9,5,6,22,-4,-8,6
1523179350067344,-3,-14,-13,-10,5,6,22,2
1523179350067344,-6,-1,1,6,8,-7,1,-13
1523179350081383,10,0,1,-8,8,15,-11,12
1523179350081383,6,0,-7,-46,-28,-5,-3,3
1523179350081383,-8,-1,0,40,-42,17,-8,5
1523179350081383,12,4,14,35,127,21,1,-7
1523179350103679,-16,0,0,25,-35,44,30,5
1523179350103679,3,-6,-6,-26,-47,-12,4,-10
1523179350104442,5,-1,3,21,29,13,9,9
1523179350104442,-4,-2,-9,-17,-39,7,-6,-11
1523179350127503,-1,-1,0,-19,-50,-3,-17,-5
1523179350127503,1,-2,4,8,69,35,26,10
1523179350127503,3,-1,-3,-11,40,-15,-19,-1
1523179350127503,-15,-3,-8,-9,-111,-8,16,-11
1523179350141053,-1,-1,-1,3,64,4,3,3
1523179350141053,2,4,5,18,25,-12,-18,3
1523179350142055,5,-4,-5,-25,-15,-14,-2,-7
1523179350142055,-11,2,-1,2,39,-14,-17,-1
1523179350163491,5,-3,-12,-39,-115,-54,-29,3
1523179350163491,-11,1,12,38,95,84,27,-11
1523179350164450,-5,1,-3,-17,-20,-9,-2,-3
1523179350164450,3,4,8,9,-34,-13,-1,6
1523179350186746,10,-1,-2,20,14,6,-7,-9
1523179350186746,5,3,4,-4,-36,-26,-15,32
1523179350187510,-5,1,2,-11,2,4,1,-8
1523179350187510,4,-4,-4,15,34,10,10,8
1523179350201554,-5,-2,-5,-19,10,-6,-32,6
1523179350201554,3,1,0,14,-72,3,46,-1
1523179350201554,3,-7,-7,0,66,37,2,-14
1523179350201554,-2,0,13,49,-63,8,14,13
1523179350223608,-11,2,6,-13,35,1,46,-12
1523179350223608,-6,-5,-13,-24,-16,-35,-28,16
1523179350224614,9,4,2,8,-41,-25,-14,9
1523179350224614,4,-6,-16,-17,11,-24,1,-9
1523179350246915,-17,0,3,-10,-67,20,7,-32
1523179350246915,12,3,6,27,71,-26,-15,13
1523179350247721,-15,-5,-6,-19,-33,-8,-1,-22
1523179350247721,11,3,7,12,75,-7,-22,10
1523179350261305,-11,-7,-10,-23,14,5,3,-25
1523179350261305,-7,-3,-4,-20,-52,-15,-7,2
1523179350261305,-2,-2,-1,-3,-30,-7,1,1
1523179350261305,-13,6,7,22,92,19,9,-24
1523179350283365,14,-1,-1,-6,20,-1,-9,23
1523179350283365,-2,4,0,14,39,35,-2,-27
1523179350284366,-3,-9,-11,-26,-89,-40,27,15
1523179350284366,-19,0,-2,-9,41,-9,23,-11
1523179350306427,8,4,9,30,12,-6,-5,-16
1523179350306427,8,0,-1,-15,13,-4,-16,-5
1523179350307431,-9,5,6,13,15,5,-9,11
1523179350307431,3,-7,-17,-58,-102,-35,-24,-4
1523179350321532,1,-4,3,24,52,18,-2,17
1523179350321532,22,1,3,7,-43,-1,30,34
1523179350321532,-30,-2,1,5,17,-8,-23,-75
1523179350321532,6,4,5,3,-1,96,38,6
1523179350343534,0,-7,-11,-34,-37,-17,-17,8
1523179350343534,0,-2,-4,21,28,-1,-23,-5
1523179350344535,12,2,-3,3,32,12,-6,8
1523179350344535,-10,-11,-9,-19,-48,-3,71,27
1523179350366394,-2,1,-3,-4,25,-13,-15,-3
1523179350366394,2,5,16,38,-35,85,19,-2
1523179350367396,2,0,-3,6,30,-9,1,6
1523179350367396,1,-3,-2,7,10,-3,-29,-10
1523179350380430,5,0,-3,-13,-39,-11,6,12
1523179350380430,-12,-9,-16,-36,-67,-23,-11,5
1523179350381434,13,6,9,1,16,5,2,-19
1523179350381434,-18,0,5,9,-7,-21,-29,-18
1523179350403731,6,1,3,7,69,41,23,17
1523179350403731,-1,0,3,11,40,-40,-7,-8
1523179350404495,3,1,-5,-30,-94,-11,-18,10
1523179350404495,-1,-4,-4,-13,72,-1,-10,-3
1523179350426554,-7,-7,-1,40,-5,-5,2,-3
1523179350426554,-2,-1,-6,-29,-33,-24,-4,-14
1523179350427555,7,1,1,1,-16,1,5,27
1523179350427555,0,3,0,-7,2,-16,-15,-11
1523179350441114,12,2,0,-5,-61,-8,0,12
1523179350441114,1,-4,-8,0,65,5,-19,-28
1523179350442115,-17,-3,6,24,2,-12,44,46
1523179350442115,5,-1,-4,-10,61,31,6,-9
1523179350463547,6,3,2,-18,-54,-27,-36,15
1523179350463547,-10,-9,-11,-5,40,-21,-16,-16
1523179350464514,-1,-1,2,6,-83,2,-6,-11
1523179350464514,8,-4,-8,-14,17,-11,-1,25
1523179350486807,-11,0,-2,-13,-43,-13,23,-30
1523179350486807,4,-2,0,6,-12,1,-22,3
1523179350487576,-19,-4,1,16,91,37,13,-41
1523179350487576,6,4,7,14,-106,5,-5,11
1523179350501616,-4,-1,-4,-8,4,21,-11,-8
1523179350501616,5,2,-4,-37,-74,-22,-12,8
1523179350501616,-4,-1,3,42,53,4,-3,3
1523179350501616,-6,-1,-4,-9,-9,-15,-16,-12
1523179350523679,14,-5,-13,-27,-49,32,9,15
1523179350523679,-28,2,7,-8,17,14,-20,-19
1523179350524674,20,0,2,21,70,-7,-15,2
1523179350524674,-19,-2,4,-1,-3,-18,-6,-10
1523179350546745,-2,1,1,5,73,-4,4,-23
1523179350546745,5,3,-2,-28,-82,-11,4,7
1523179350547748,0,-5,-8,-18,-74,-22,-12,3
1523179350547748,-1,2,2,38,69,12,-10,-6
1523179350559806,0,-2,-2,-5,-13,-3,4,-11
1523179350559806,-7,-3,-7,-33,-87,-37,19,-15
1523179350569059,3,8,7,-2,10,13,-7,-3
1523179350569059,9,-5,-4,15,-17,-24,-3,10
1523179350583865,-3,7,7,10,0,-14,3,0
1523179350583865,-6,-5,-1,10,-35,14,10,-3
1523179350583865,6,-5,-16,-45,-77,-21,4,18
1523179350583865,-7,2,5,12,38,39,-10,-27
1523179350606932,2,0,5,10,20,-25,2,8
1523179350606932,-2,0,1,6,7,21,14,15
1523179350607928,-9,-1,-1,-1,63,11,-13,-20
1523179350607928,7,0,-3,-27,-16,-7,4,11
1523179350620961,-11,-8,-4,-3,-37,-13,-8,-3
1523179350620961,12,4,0,7,-23,23,6,12
1523179350627981,-1,-4,7,-2,71,21,3,-8
1523179350627981,-15,-5,-10,-18,22,-33,-4,-3
1523179350643532,-2,-2,1,24,-80,0,1,2
1523179350643532,-2,-5,-8,-11,41,41,8,-8
1523179350644534,6,-1,-4,-11,38,2,-20,6
1523179350644534,5,4,10,12,-3,24,19,11
1523179350666390,-4,-1,-1,-8,10,-3,-6,0
1523179350666390,-1,-3,-6,-15,48,-21,-5,-1
1523179350667393,-1,1,0,7,-76,-5,-4,2
1523179350667393,0,-5,-4,3,37,-10,-24,-4
1523179350680429,-3,-2,-6,-17,-49,-25,-16,7
1523179350680429,3,1,6,33,36,-2,8,3
1523179350688574,4,-1,-2,-11,64,16,3,10
1523179350688574,-7,-2,-3,-17,-37,-6,-12,-17
1523179350703723,2,0,-6,-15,24,6,26,12
1523179350703723,-5,0,3,9,-30,2,9,-12
1523179350704491,-6,1,3,25,-17,-10,-13,12
1523179350704491,6,-1,-1,1,-36,1,11,3
1523179350726551,2,2,-2,-8,-59,-5,-27,2
1523179350726551,-4,-5,-3,-7,110,1,8,-7
1523179350727553,-5,-6,-14,-29,60,-40,1,-7
1523179350727553,9,9,16,15,-69,-6,10,12
1523179350740607,-7,-10,-5,5,-10,20,-13,-5
1523179350740607,-1,-2,-5,0,-4,-21,-1,-1
1523179350748621,-4,1,2,-23,-19,-10,-15,-5
1523179350748621,0,-2,-6,4,26,12,9,3
1523179350763711,-1,3,1,3,-4,-15,8,-7
1523179350763711,11,-1,2,11,47,14,-23,27
1523179350764674,-21,-5,-1,8,-63,5,12,-31
1523179350764674,2,-1,-3,-17,-52,-10,-8,-6
1523179350786967,6,2,5,29,100,14,1,9
1523179350786967,-8,2,1,-4,-96,3,2,-15
1523179350787735,9,2,5,11,3,29,25,25
1523179350787735,1,-2,-2,5,72,5,-1,9
1523179350799766,-5,-3,-5,-13,-6,-7,0,-10
1523179350799766,0,-1,-2,-15,60,-7,-18,-5
1523179350808792,1,1,11,23,-33,-15,-3,-1
1523179350808792,-8,-5,-10,-31,-75,-34,-11,-13
1523179350823833,5,5,-1,-4,120,15,2,2
1523179350823833,1,4,10,21,-79,-5,12,2
1523179350823833,4,0,-2,2,25,16,2,-8
1523179350823833,0,-1,-4,-9,19,-4,0,6
1523179350846950,-6,-3,1,-3,-11,-23,-19,-22
1523179350846950,2,-1,-7,-19,-7,5,21,7
1523179350847451,-1,-1,3,45,56,14,3,-4
1523179350847451,14,-1,-4,-24,-111,-5,-1,17
1523179350859780,3,2,3,8,69,-1,2,25
1523179350859780,-15,-3,2,-7,20,-6,-1,-16
1523179350869040,9,1,-1,1,-50,-6,-3,20
1523179350869040,-2,0,0,4,32,10,3,-7
1523179350883870,1,-1,0,12,-71,24,23,12
1523179350883870,-6,-6,-10,-32,-31,2,-2,-21
1523179350883870,1,3,-3,-16,-52,-13,-3,1
1523179350883870,-1,1,4,19,27,-7,-22,-7
1523179350906917,13,-2,-2,-8,11,-6,10,11
1523179350906917,-16,-2,3,17,-80,-19,-21,-14
1523179350906917,-3,-5,-12,-36,-26,-6,0,6
1523179350906917,-3,1,5,19,17,4,0,-17
1523179350928966,-17,-2,1,-12,-81,-7,-6,-5
1523179350928966,11,0,-3,-9,88,5,20,17
1523179350929968,-3,-1,3,35,89,13,-6,-8
1523179350929968,-4,-1,-5,-24,4,-10,3,8
1523179350943513,-11,-8,-5,-19,-82,13,-16,-31
1523179350943513,2,0,-4,-7,-69,-38,-8,-3
1523179350944517,0,-2,-4,-12,62,18,-7,0
1523179350944517,4,2,1,4,-27,-4,-3,17
1523179350966615,3,-1,1,28,127,0,-1,-13
1523179350966615,-18,-4,-9,-11,34,7,12,-10
1523179350967617,16,0,0,6,27,-12,-37,14
1523179350967617,-26,-5,-8,-35,-21,11,4,-44
1523179350988712,1,2,13,56,19,40,8,4
1523179350988712,16,4,2,2,0,1,0,14
1523179350989675,-7,-7,-10,-20,-24,-19,-6,3
1523179350989675,-4,-3,1,-1,-85,-21,-3,-8
1523179351003947,3,2,-4,-11,87,7,9,7
1523179351003947,1,-5,3,14,-10,-4,2,1
1523179351003947,2,-2,2,27,-50,11,-1,4
1523179351003947,-12,2,4,-6,62,-25,-20,-25
1523179351026774,0,1,0,-4,-115,34,11,3
1523179351026774,9,2,0,7,66,-5,-3,6
1523179351027817,-12,-2,-12,-72,-68,-14,5,-26
1523179351027817,10,-4,5,58,-1,6,19,23
1523179351049351,0,4,2,-5,18,-37,-23,-5
1523179351049351,-6,-5,-2,0,36,6,-11,-5
1523179351050353,-1,-4,-10,-39,-124,-51,-3,-9
1523179351050353,4,7,11,47,127,84,39,14
1523179351063545,-3,-4,-5,-29,-33,-12,1,-3
1523179351063545,-3,-12,-11,3,-57,32,0,-2
1523179351064548,-2,0,3,3,65,-6,0,-5
1523179351064548,16,-2,0,27,-13,-9,2,30
1523179351086607,-8,-2,0,-1,15,-15,-2,-2
1523179351086607,0,-1,-6,-19,-13,-10,-2,-8
1523179351087609,-5,1,2,-10,-61,9,-3,-15
1523179351087609,-4,-7,-12,-20,25,-6,-4,2
1523179351108665,8,0,-1,-9,-52,22,4,12
1523179351108665,-1,1,3,3,-15,-19,-13,3
1523179351109668,6,4,1,20,92,22,15,24
1523179351109668,-12,-4,-3,-11,45,0,2,-27
1523179351123712,-3,-3,-6,-18,-19,-23,-4,-3
1523179351123712,4,5,4,13,17,9,4,-1
1523179351124710,-4,-5,-6,-28,-39,3,5,-1
1523179351124710,4,-1,0,19,4,-7,-14,4
1523179351146779,-9,-4,-1,-12,41,17,8,-13
1523179351146779,3,-3,-6,-31,13,-9,1,6
1523179351147782,-4,1,6,42,-28,2,-2,-9
1523179351147782,7,-4,-15,-60,-44,-22,-11,2
1523179351169261,-3,-2,2,6,-49,-52,-26,-8
1523179351169261,3,4,0,-4,-15,-10,-3,5
1523179351170028,-3,-3,0,5,-25,21,3,5
1523179351170028,-4,-1,-2,-2,6,4,11,-24
1523179351183063,4,0,-2,-11,4,-21,-16,3
1523179351183063,-5,2,4,11,13,17,11,15
1523179351184066,-7,-3,-2,5,32,-9,12,-11
1523179351184066,3,4,3,2,49,21,2,3
1523179351207127,6,-2,-1,18,108,17,4,5
1523179351207127,-5,-2,2,3,-65,-3,3,-28
1523179351207127,1,4,-1,-8,-13,-19,2,-11
1523179351207127,-4,-10,3,11,-57,18,-2,9
1523179351229186,2,1,-2,-9,-20,-9,-12,-1
1523179351229186,8,2,4,8,29,13,-3,-7
1523179351230189,-5,4,-2,-5,-27,-21,-2,-12
1523179351230189,1,-1,1,-10,-1,-12,-7,1
1523179351243781,6,-1,1,22,-103,14,9,16
1523179351243781,-12,2,1,11,70,6,1,-9
1523179351244284,4,6,9,6,39,34,17,10
1523179351244284,10,2,-1,-3,-4,11,-14,9
1523179351267203,-28,-1,1,37,22,16,11,-14
1523179351267203,22,2,-7,-28,-56,-23,-9,22
1523179351267203,-27,-9,-4,0,12,0,13,-28
1523179351267203,4,0,-2,6,43,-10,-10,6
1523179351289034,10,2,-4,-31,2,-4,2,5
1523179351289034,8,-2,4,45,-48,-24,-15,33
1523179351290044,-16,0,8,20,-3,-5,10,-24
1523179351290044,-9,-4,-9,-33,-95,-29,-1,-21
1523179351304078,1,0,1,-8,101,47,11,9
1523179351304078,-2,1,8,18,8,-11,-6,3
1523179351304078,20,-5,-4,-33,-65,11,0,22
1523179351304078,-8,2,5,52,9,-8,-24,0
1523179351327129,-1,-2,-11,-13,-100,-23,15,-8
1523179351327129,2,-5,-6,-35,9,20,-5,-1
1523179351327129,-2,-1,-3,3,59,10,-7,0
1523179351327129,4,-1,-6,-30,-96,-40,0,-4
1523179351349204,-7,4,12,49,126,18,2,-8
1523179351349204,1,-6,-7,-24,-67,-5,19,-9
1523179351350207,-15,-1,6,15,47,27,4,-7
1523179351350207,12,1,1,-15,1,-3,-2,18
1523179351363253,-12,-11,-13,-38,27,-17,-6,-20
1523179351363253,-4,0,1,15,-4,-10,-11,-9
1523179351364254,8,3,-1,1,-4,-23,-17,4
1523179351364254,-3,-5,-8,-8,-24,6,4,-3
1523179351386314,-2,-1,-3,-31,-40,-21,5,-5
1523179351386314,-1,4,8,37,117,61,-6,4
1523179351387315,6,-3,-3,4,-23,-23,0,7
1523179351387315,-4,0,3,6,62,33,7,6
1523179351409376,-1,-5,-9,-16,-81,-16,-51,-9
1523179351409376,-9,0,-6,-17,-71,-16,21,18
1523179351409376,6,1,-5,-12,-19,-14,-7,8
1523179351409376,6,-7,5,57,-1,5,-3,12
1523179351422439,-4,0,-5,-18,-8,-20,-9,-11
1523179351422439,-5,-3,0,12,-15,29,2,-6
1523179351431434,0,-2,1,11,-3,8,-4,-13
1523179351431434,2,4,-1,-38,21,-4,10,-3
1523179351447207,2,-4,-1,30,29,-9,14,7
1523179351447207,-6,-4,-11,-41,-58,-58,-56,-10
1523179351447542,5,4,16,80,53,32,20,22
1523179351447542,-7,-3,-6,-17,-38,4,17,0
1523179351468834,0,-1,-4,-24,-83,-16,-15,-4
1523179351468834,0,3,-1,-10,-41,5,8,-7
1523179351475674,5,0,-3,-23,16,7,17,8
1523179351475674,-5,3,-3,0,-1,2,-13,-11
1523179351482692,-4,-6,-1,-1,-30,9,9,10
1523179351482692,-2,-4,-4,-3,51,-16,5,-1
1523179351491677,-5,-8,-8,-22,3,-11,-19,-9
1523179351491677,-2,4,6,17,24,30,20,6
1523179351506727,-2,4,1,-10,-51,-9,5,-3
1523179351506727,13,1,3,25,78,4,4,0
1523179351508723,-2,-1,-8,-42,-2,20,-13,-8
1523179351508723,-16,-5,-2,4,-32,-11,-9,-28
1523179351528814,11,10,9,12,-34,15,-2,0
1523179351528814,-4,-1,3,16,18,-4,7,-2
1523179351530779,5,-4,-4,-14,-12,-21,-9,11
1523179351530779,1,-5,-9,-20,-28,-10,2,-5
1523179351542817,7,-1,0,15,39,15,-1,34
1523179351542817,-27,-2,2,-7,66,29,12,-52
1523179351551841,7,-2,-5,-8,-54,-43,-27,1
1523179351551841,6,3,5,-9,17,-8,-9,15
1523179351567904,-29,-6,-10,-1,-73,-1,-3,-41
1523179351567904,11,5,10,39,82,11,11,15
1523179351568908,0,2,-1,-23,-73,-13,19,10
1523179351568908,0,-7,-5,13,103,26,-7,-9
1523179351588962,32,2,1,-12,69,-16,-8,52
1523179351588962,-16,-8,-7,-13,-31,-20,-20,-30
1523179351590967,-4,-2,-4,17,-6,3,17,21
1523179351590967,-13,2,1,-3,-24,-17,-16,-20
1523179351603234,0,-3,0,3,17,12,1,-3
1523179351603234,9,4,2,-19,31,12,5,21
1523179351612025,2,0,1,4,18,0,-5,4
1523179351612025,6,-2,0,18,-117,5,9,17
1523179351627063,3,0,3,17,63,-10,20,21
1523179351627063,-29,-1,5,-6,-59,6,1,-56
1523179351628065,16,3,-2,-5,35,10,-6,3
1523179351628065,3,-3,-3,-33,-47,-6,-7,-2
1523179351649170,-27,-4,-2,-3,34,2,-4,-28
1523179351649170,16,-1,-5,1,-54,-23,1,28
1523179351651174,-1,1,2,18,91,27,-2,1
1523179351651174,1,-3,-3,2,39,-16,13,-4
1523179351662711,13,6,6,27,-24,-7,-13,23
1523179351662711,-7,-6,-7,-19,2,18,6,-13
1523179351671738,-18,-5,4,21,-5,2,-11,-27
1523179351671738,3,-1,-2,1,80,-2,11,12
1523179351686774,-1,-3,-4,-25,-11,9,-6,-5
1523179351686774,3,4,-4,-9,-45,-18,-11,8
1523179351687780,4,-3,-3,-9,-100,1,6,-1
1523179351687780,-21,3,5,21,33,31,6,-10
1523179351708834,1,-6,-5,-7,42,-3,6,-15
1523179351708834,7,-5,-8,-3,-54,-16,-6,38
1523179351710840,6,-2,-11,-51,-80,8,1,3
1523179351710840,-7,4,13,54,13,-7,1,-12
1523179351722871,6,2,2,0,-108,-10,-2,6
1523179351722871,-10,4,1,8,13,28,-7,-28
1523179351731895,-7,-4,-2,-8,4,1,-6,-5
1523179351731895,3,-3,-5,-30,-1,-17,-2,3
1523179351746944,-3,-3,2,36,40,0,-1,-10
1523179351746944,3,0,-3,-3,23,-12,12,3
1523179351748449,-3,2,1,13,-39,6,6,4
1523179351748449,9,4,3,2,-77,-38,-3,5
1523179351769250,-19,-8,-5,-16,50,22,-3,-28
1523179351769250,16,0,0,11,17,-2,10,16
1523179351777036,-9,-3,-8,-28,-29,-31,-6,-22
1523179351777036,-2,-1,4,15,-66,1,21,3
1523179351783288,11,3,1,11,-2,17,-4,15
1523179351783288,-4,-3,-3,-15,-20,-23,-16,-13
1523179351799097,-5,2,2,6,96,18,3,-1
1523179351799097,-1,-5,-5,-17,-26,4,-4,-8
1523179351806118,-1,-2,-2,-8,-5,-7,-6,-6
1523179351806118,3,-2,-7,-21,35,8,-3,1
1523179351808120,-14,0,7,48,-11,14,1,-7
1523179351808120,0,-1,-3,-26,-7,-5,-17,22
1523179351829174,3,2,1,-1,27,-1,11,2
1523179351829174,-1,-2,1,-4,-5,-7,20,16
1523179351831180,-2,-2,-5,-18,-30,-17,-6,-17
1523179351831180,19,1,-1,18,59,-3,-10,16
1523179351851980,-12,-5,-1,-7,13,2,7,-23
1523179351851980,2,2,-4,-12,-77,-20,0,10
1523179351853248,-3,-1,8,44,100,12,14,7
1523179351853248,3,-2,-4,-18,27,17,0,0
1523179351866290,-4,-2,-2,-10,-42,-34,-18,-7
1523179351866290,2,6,-4,-17,-84,8,-3,5
1523179351868294,-13,-14,-3,12,-40,-18,1,-18
1523179351868294,-2,3,1,1,38,-6,-7,-2
1523179351889356,8,-1,-4,-4,8,10,36,1
1523179351889356,-11,4,7,10,-24,4,-6,2
1523179351890367,1,-2,-6,-24,-11,-1,-3,1
1523179351890367,6,1,-1,10,18,1,-13,15
1523179351911408,-18,-4,-3,-19,-14,-5,4,1
1523179351911408,10,-2,0,9,45,-2,1,0
1523179351913412,0,0,0,-4,35,-3,-8,5
1523179351913412,-3,-3,-9,-28,-40,-17,-9,-9
1523179351926448,5,2,1,-11,-45,0,-11,5
1523179351926448,11,0,10,51,-33,42,24,13
1523179351932464,0,-4,-2,7,-22,-3,13,3
1523179351932464,10,-5,-6,-18,50,23,-1,5
1523179351949756,-25,-1,1,-5,20,15,-7,-24
1523179351949756,9,-2,-4,-10,45,-30,-13,15
1523179351951020,-1,-2,-3,-2,-56,-10,-9,-5
1523179351951020,-12,0,1,-3,51,1,6,-37
1523179351971568,7,-3,-6,16,-13,-13,5,6
1523179351971568,-1,1,3,-18,21,8,-9,-2
1523179351973569,3,-2,-3,4,29,1,-9,12
1523179351973569,-11,-4,-8,-32,-124,-55,-12,-14
1523179351986836,6,-2,0,17,56,22,-6,4
1523179351986836,-12,-4,2,19,-54,25,30,10
1523179351988616,12,-1,0,0,33,14,10,0
1523179351988616,-13,2,3,-28,-23,10,-14,-1
1523179352008664,5,2,1,26,-13,-29,18,19
1523179352008664,-12,-6,-11,-13,24,-13,-1,-32
1523179352010668,4,8,4,14,15,1,-6,4
1523179352010668,4,1,3,27,61,27,16,8
1523179352031723,-6,-2,-4,-16,-14,15,-14,-10
1523179352031723,31,-2,-3,-6,30,-14,-8,38
1523179352033854,-26,5,-1,-15,-17,-20,-14,-37
1523179352033854,-5,-5,-3,1,-30,4,0,1
1523179352046270,9,5,8,16,11,8,7,7
1523179352046270,-1,-5,0,2,7,-23,-22,-7
1523179352053409,7,3,0,-5,-50,-17,7,12
1523179352053409,-3,1,-5,-7,51,28,12,-7
1523179352069750,5,-6,-2,-4,28,-4,-3,1
1523179352069750,-16,4,7,19,52,48,-1,-14
1523179352070753,6,1,4,4,-19,0,-7,10
1523179352070753,0,-6,-9,-14,-27,-5,17,0
1523179352091811,8,2,0,-2,27,-2,-5,10
1523179352091811,-14,-4,-2,45,-32,-22,-18,-18
1523179352092815,-1,-6,-5,-23,30,4,0,-2
1523179352092815,8,4,3,3,-10,-2,-7,16
1523179352105858,-7,-5,-10,-16,-107,-29,-7,-8
1523179352105858,-11,-5,-4,-31,32,11,7,-5
1523179352112908,-3,3,1,13,-63,16,-2,3
1523179352112908,0,-1,-6,-9,-28,-19,-9,-8
1523179352128910,-9,-5,-5,-25,16,17,-4,-2
1523179352128910,-5,-5,0,3,-28,-9,-8,-8
1523179352130915,5,-2,-2,-12,5,0,4,3
1523179352130915,-1,2,5,1,-68,-20,-8,-2
1523179352151975,-3,-2,-3,1,-24,4,7,15
1523179352151975,-5,-1,-3,-5,24,-20,5,-36
1523179352153479,10,-1,-2,-12,46,13,-2,28
1523179352153479,-23,-8,-1,13,-28,-14,-6,-51
1523179352166022,6,1,4,7,14,4,28,16
1523179352166022,5,-5,-11,-22,-33,-18,-12,6
1523179352173035,-13,-3,-3,8,18,-14,-2,-19
1523179352173035,2,-3,-11,-46,6,16,35,11
1523179352189082,15,7,21,87,65,20,2,11
1523179352189082,-14,0,-3,-29,-9,-15,-8,-20
1523179352191085,2,0,0,4,75,-10,-1,-15
1523179352191085,8,-2,-3,-17,-60,-1,19,15
1523179352211171,-13,-1,-10,-31,-15,-29,-30,-23
1523179352211171,6,1,3,12,12,-23,-21,15
1523179352213142,11,9,12,30,85,29,9,28
1523179352213142,1,-4,0,14,1,16,-1,12
1523179352226176,-11,-2,-6,-21,-41,-1,-8,-15
1523179352226176,2,6,2,-11,6,6,-2,1
1523179352233379,-7,-4,-1,8,-38,-7,-8,-11
1523179352233379,1,0,1,11,14,-10,-11,0
1523179352249247,6,-3,-2,-4,23,-5,-4,13
1523179352249247,-9,3,5,12,-35,19,19,-12
1523179352250749,15,-4,-6,-21,31,18,11,3
1523179352250749,-9,1,2,28,71,13,-8,8
1523179352271313,-9,0,-1,-13,20,1,2,-10
1523179352271313,0,-1,-2,-16,-89,-11,3,-6
1523179352273321,6,-5,-1,21,65,48,8,11
1523179352273321,-1,2,7,38,-4,1,15,2
1523179352286352,2,3,-7,-35,-79,-9,-17,-8
1523179352286352,-2,-4,1,-3,49,-4,23,18
1523179352292365,-6,2,2,31,-47,-13,-3,-5
1523179352292365,2,-1,-4,-17,20,4,-7,2
1523179352309412,-9,1,-2,-15,-44,-14,-18,-17
1523179352309412,7,-6,-6,2,56,18,-3,-2
1523179352310412,-3,-2,0,-24,-5,-17,-6,-5
1523179352310412,-3,1,3,9,-15,0,-18,-2
1523179352332470,4,-6,-1,11,-25,13,6,-1
1523179352332470,-2,-4,-4,-11,85,11,-5,3
1523179352333473,2,-3,-2,-15,-32,20,2,2
1523179352333473,-15,-2,-1,4,25,-18,-15,-15
1523179352346025,3,-1,-2,-17,-64,-18,0,-13
1523179352346025,3,-2,0,13,23,16,-3,15
1523179352353044,-7,-3,-6,-31,22,-8,3,-7
1523179352353044,12,4,4,29,-26,-16,-4,6
1523179352369358,13,0,0,-34,-5,4,25,24
1523179352369358,-29,4,6,20,20,21,-8,-45
1523179352371138,4,-8,-11,-27,-47,-22,1,15
1523179352371138,5,3,-2,-14,8,-12,-13,-7
1523179352391181,-1,-2,2,20,44,10,26,-11
1523179352391181,-11,1,0,11,-44,1,-10,3
1523179352393187,0,2,-1,-13,-86,-53,-24,0
1523179352393187,-4,-7,-6,-13,17,28,4,-9
1523179352405225,6,3,6,36,32,17,4,11
1523179352405225,2,-12,-6,-49,-36,-7,-3,8
1523179352414244,-11,3,8,67,-10,-8,-12,-20
1523179352414244,4,-1,-3,-17,-22,-10,1,12
1523179352429521,-10,-6,-7,-8,37,-5,-14,-15
1523179352429521,3,3,-5,-15,-72,-36,17,8
1523179352431345,0,-4,-3,-13,-56,26,6,-2
1523179352431345,5,3,11,22,65,24,4,0
1523179352451849,5,3,-2,-17,1,6,-11,-1
1523179352451849,-3,-3,-3,13,8,-4,18,-2
1523179352453353,-3,-3,-10,-27,0,-4,-2,-3
1523179352453353,7,1,1,-10,-9,-9,-7,8
1523179352464890,-18,-6,-3,3,-18,-15,-11,-23
1523179352464890,11,0,-4,-9,-68,14,-15,13
1523179352473911,2,3,0,10,51,15,11,8
1523179352473911,-5,-5,-5,8,-46,-18,-11,-12
1523179352488962,-13,-6,1,-7,60,11,-3,-8
1523179352488962,6,-1,0,2,7,-12,10,2
1523179352490956,2,3,-1,-25,-38,7,-1,13
1523179352490956,9,-2,1,22,21,14,-2,13
1523179352511011,-25,1,1,-1,-16,-20,-13,-38
1523179352511011,2,-3,-5,-16,-11,-14,-16,-9
1523179352513016,-1,4,5,-2,58,0,2,0
1523179352513016,-5,-7,-9,-18,8,-10,3,13
1523179352525048,10,3,4,10,0,-5,-2,0
1523179352525048,6,6,6,19,72,17,-4,8
1523179352534070,-9,-4,-7,-15,-92,-27,10,-12
1523179352534070,2,3,4,-24,-34,23,-3,-10
1523179352549352,8,1,4,41,17,-9,10,22
1523179352549352,-8,0,-1,1,16,-8,-4,-14
1523179352550857,8,-2,1,-1,37,-10,-7,8
1523179352550857,-9,-4,-3,-4,8,5,13,-12
1523179352571922,1,-1,-5,-13,-82,-2,-5,7
1523179352571922,8,-3,-2,3,25,-5,18,11
1523179352572921,-15,2,3,22,16,-2,-11,-21
1523179352572921,-8,0,1,3,24,13,7,-8
1523179352585189,6,-2,-4,-6,-44,-3,-22,8
1523179352585189,6,-2,-1,-1,0,-3,1,2
1523179352593982,5,-1,0,29,31,9,0,10
1523179352593982,-10,8,-2,-8,45,-22,-8,2
1523179352609058,-1,-13,-5,-17,-53,-19,-1,-21
1523179352609058,-13,2,5,26,-14,28,-11,-14
1523179352611023,12,2,4,17,-22,10,-1,2
1523179352611023,-11,0,1,3,67,19,-2,-32
1523179352632078,10,0,-5,6,45,-1,10,27
1523179352632078,0,1,-1,-16,-55,-14,-5,4
1523179352633081,-8,-5,-2,-2,21,5,7,-7
1523179352633081,4,-7,-9,-16,-100,-3,-6,2
1523179352645620,8,2,-1,-2,116,6,-11,18
1523179352645620,-22,0,7,37,68,9,-2,-34
1523179352654647,3,1,-1,-12,-101,-10,4,7
1523179352654647,7,-1,-1,-2,-94,-8,-2,11
1523179352669425,3,4,1,-34,7,-6,-3,9
1523179352669425,-4,-9,-9,8,-32,-13,-17,15
1523179352671197,2,-4,0,-6,78,15,4,-7
1523179352671197,-4,-1,2,10,0,-13,0,-19
1523179352691249,1,0,-2,-8,-77,0,6,4
1523179352691249,6,3,1,15,48,7,-4,4
1523179352693254,-9,0,2,-4,-20,-11,-1,-19
1523179352693254,22,-3,-5,-18,-5,2,-10,41
1523179352705292,-30,0,3,32,-18,-5,9,-31
1523179352705292,6,0,-4,-19,75,-15,3,1
1523179352714311,5,-3,-6,-25,-75,-9,-8,9
1523179352714311,-10,3,11,33,-33,33,11,-15
1523179352729391,11,-4,-4,-20,20,5,2,11
1523179352729391,-1,1,0,14,-35,16,3,19
1523179352730354,-6,2,5,10,53,5,-18,-18
1523179352730354,-2,-2,-2,-11,73,-17,7,8
1523179352751913,3,2,0,2,14,20,10,-3
1523179352751913,-4,-8,-7,-6,-128,-41,-5,-8
1523179352753417,12,1,-4,2,114,-4,-6,35
1523179352753417,-9,-5,0,-4,-40,-26,-8,-32
1523179352765454,-14,-2,2,24,48,10,-8,-3
1523179352765454,12,1,-5,-30,-59,17,12,10
1523179352774478,-5,-2,0,7,1,-5,9,-6
1523179352774478,-3,-2,-4,-12,-1,-26,-7,-6
1523179352789524,9,1,-2,-14,0,35,12,31
1523179352789524,-5,-1,3,4,-26,-4,-20,-28
1523179352790520,-4,-3,-7,-8,-35,6,4,0
1523179352790520,-7,-5,-5,-8,21,9,9,4
1523179352811577,10,1,-4,-4,0,-24,-7,9
1523179352811577,1,3,4,0,24,31,11,-4
1523179352813581,-18,-3,-5,-13,-31,-17,-5,-19
1523179352813581,15,3,2,-2,32,12,-14,-7
1523179352833636,-1,-3,-1,10,6,-12,0,2
1523179352833636,-6,3,1,-2,-21,-10,-2,6
1523179352835641,-4,-4,0,6,10,-3,-4,-2
1523179352835641,1,-4,-9,-16,-29,-14,4,-3
1523179352849219,-1,1,3,11,-65,-19,-14,-13
1523179352849219,14,10,6,8,87,58,20,13
1523179352851322,-2,-7,-2,-11,-73,-27,-20,5
1523179352851322,-6,-2,-3,6,7,-12,-2,13
1523179352871712,-1,-3,-2,-6,-22,-13,27,-15
1523179352871712,0,-3,-2,-3,26,-4,-16,10
1523179352872714,7,-1,-4,-4,-1,0,-1,6
1523179352872714,-6,0,1,2,16,9,14,-7
1523179352893770,7,0,1,-3,47,10,-9,-3
1523179352893770,-14,-3,-3,-3,-50,-14,-1,-9
1523179352895772,-5,-3,-3,-22,34,12,-9,-14
1523179352895772,-8,-6,-8,-1,-31,-10,6,-7
1523179352908809,3,1,2,-2,8,-1,-6,32
1523179352908809,-7,-7,-5,-7,-10,-21,-5,-29
1523179352910814,-2,0,-8,-14,16,-47,-4,-3
1523179352910814,6,8,12,26,8,48,18,19
1523179352932103,-3,-1,-2,2,5,-12,-18,6
1523179352932103,-10,-4,-3,-12,9,0,22,-5
1523179352933891,3,3,0,3,30,-24,7,-5
1523179352933891,2,1,0,-1,-43,-6,-31,-3
1523179352954941,14,-2,-3,7,85,9,-2,3
1523179352954941,-21,-3,-2,-28,-89,-23,-5,-31
1523179352956444,11,-3,-1,38,33,20,-9,4
1523179352956444,10,2,7,31,38,-8,9,40
1523179352967518,-38,-4,-4,-3,-26,-5,-12,-67
1523179352967518,12,-8,-6,-9,51,7,-17,23
1523179352976543,1,5,1,-24,14,30,19,-9
1523179352976543,0,-2,5,19,33,50,-8,5
1523179352991584,3,2,2,3,-36,-14,16,13
1523179352991584,5,1,0,2,46,-1,16,8
1523179352993588,5,0,0,-9,-56,-5,-6,7
1523179352993588,-15,0,-1,-6,49,-29,-6,-31
1523179353013649,1,-3,-3,-6,-13,2,31,-4
1523179353013649,4,0,-5,-29,-2,8,-4,11
1523179353015647,13,0,7,48,10,4,8,22
1523179353015647,-26,-9,-7,-31,-22,2,-4,-50
1523179353028681,-1,-2,-3,-6,-4,4,-9,2
1523179353028681,8,-2,-7,-14,5,-35,-7,15
1523179353034698,-10,6,2,23,-32,-23,-4,-4
1523179353034698,-11,-10,-1,-6,53,29,13,5
1523179353052252,-3,-3,-6,-20,-69,12,-5,-6
1523179353052252,-6,-6,-5,6,-14,-8,-9,-9
1523179353053258,-5,0,0,-17,74,12,-6,-1
1523179353053258,18,2,-2,7,-24,-20,3,6
1523179353073815,-15,-1,0,2,-1,2,-8,-19
1523179353073815,23,7,9,28,20,3,21,31
1523179353075823,-29,-13,-9,-10,-28,11,3,-31
1523179353075823,6,3,1,-5,-19,-25,4,-4
1523179353088863,-1,-1,-4,-24,-30,8,-7,32
1523179353088863,11,3,7,36,-33,-17,-6,7
1523179353094875,-8,-2,-5,-19,-2,-24,-4,-6
1523179353094875,22,-3,-2,4,46,-5,-1,38
1523179353111919,-39,-3,-1,-19,-90,26,-5,-64
1523179353111919,-3,-4,1,7,62,19,-4,-5
1523179353112922,15,0,2,0,0,5,8,27
1523179353112922,-19,-3,-4,-14,-58,-9,-13,-22
1523179353134211,20,6,4,25,25,-10,-11,12
1523179353134211,-5,-6,-5,-17,-44,-12,0,3
1523179353135980,-7,-1,6,9,-34,26,-11,-25
1523179353135980,2,3,-3,-7,-30,-17,1,18
1523179353148524,6,-2,-3,-11,58,6,10,10
1523179353148524,-7,0,5,25,-39,-10,-7,-12
1523179353162599,5,-2,-3,-6,39,7,-4,7
1523179353162599,4,5,0,-6,1,-6,-4,-1
1523179353171634,7,-5,-1,13,-50,-23,-7,3
1523179353171634,-15,-6,-7,-6,0,1,-10,-13
1523179353173629,9,3,5,2,-12,7,5,26
1523179353173629,-5,-2,-11,-20,-62,0,7,-26
1523179353193680,-4,-9,-2,7,6,-15,2,0
1523179353193680,3,2,0,0,11,3,-11,7
1523179353195686,4,4,3,4,-33,-10,4,6
1523179353195686,-18,-3,-3,4,-3,-7,-7,-26
1523179353208722,13,7,5,-14,33,18,1,17
1523179353208722,19,-4,-2,24,-1,-17,-16,-1
1523179353214738,-19,-5,-5,-11,-21,-11,-2,-22
1523179353214738,13,6,1,7,-11,6,-3,17
1523179353232830,-4,0,-5,-9,-1,-18,8,-7
1523179353232830,-6,-5,-5,-38,57,6,-14,-2
1523179353233787,-1,3,7,44,-26,-5,-23,0
1523179353233787,-3,-4,-2,2,58,17,-8,1
1523179353254388,10,2,5,11,-15,14,13,5
1523179353254388,-5,4,3,-14,-32,2,-4,1
1523179353255896,-3,-1,-5,-9,22,-11,7,-10
1523179353255896,-5,-6,-2,1,-16,-20,-20,9
1523179353269052,-3,1,2,9,6,-8,-7,4
1523179353269052,-4,-1,-4,3,101,23,14,-2
1523179353274903,-8,-4,-4,-22,-128,-17,-2,-12
1523179353274903,12,5,6,7,23,2,6,14
1523179353290945,4,-3,-2,23,14,-12,-11,11
1523179353290945,-14,3,5,3,-28,-5,8,-18
1523179353298966,16,0,-4,-20,16,3,4,19
1523179353298966,-15,-4,-2,-16,16,-21,-5,-11
1523179353314006,-9,0,-2,-7,-15,20,3,-10
1523179353314006,-4,0,3,42,35,11,2,0
1523179353316013,1,2,4,7,36,8,10,5
1523179353316013,0,-1,0,-7,-31,-1,7,-9
1523179353328046,-2,0,-2,7,33,-13,-7,5
1523179353328046,-4,-9,-8,-17,-32,-1,-8,-7
1523179353337072,-5,1,0,-10,-22,54,31,-15
1523179353337072,3,2,4,4,-15,-10,-1,0
1523179353351849,5,-1,-3,-19,9,-7,-3,14
1523179353351849,7,3,-1,10,-34,-21,4,0
1523179353353622,7,-3,-3,5,100,31,-2,-9
1523179353353622,-27,-1,-1,-18,-47,-7,-1,-20
1523179353373736,3,-10,-6,3,14,9,0,8
1523179353373736,2,0,1,-29,-75,-11,4,0
1523179353375738,-2,-3,-5,-8,-32,-47,-18,-4
1523179353375738,7,-1,-1,13,62,47,17,18
1523179353387778,-5,1,1,8,-23,-2,6,-23
1523179353387778,3,-1,-3,-14,-26,1,-1,3
1523179353396794,-15,-3,1,-1,50,-16,-14,-13
1523179353396794,9,5,3,11,-33,-4,-13,-1
1523179353411834,-1,-8,-6,-7,-25,1,12,19
1523179353411834,3,3,3,0,67,15,-9,-14
1523179353412836,-1,1,2,-4,-91,-23,3,14
1523179353412836,-5,-3,-4,31,55,5,-14,-6
1523179353434127,2,4,3,1,18,-12,-23,-5
1523179353434127,3,-1,-5,-10,-63,-12,24,9
1523179353435899,17,0,-6,-18,35,4,-3,15
1523179353435899,-4,0,-3,-1,-14,-25,6,0
1523179353448015,-5,2,10,20,-44,27,3,-11
1523179353448015,-4,-8,-4,-8,-42,-3,11,-1
1523179353457000,-7,-4,-6,-7,-46,-7,-13,-8
1523179353457000,10,-2,-3,-18,-90,-25,14,10
1523179353472073,-3,3,3,11,125,4,-9,-17
1523179353472073,-6,5,6,10,23,30,-1,-3
1523179353473048,0,0,-1,-18,19,26,6,1
1523179353473048,1,-3,5,39,9,14,-8,5
1523179353494340,7,2,-2,-23,-11,-3,20,14
1523179353494340,-2,0,3,33,29,-5,-3,-3
1523179353496109,-6,-6,-8,-9,12,-11,-8,-2
1523179353496109,2,-1,0,2,27,4,4,2
1523179353517202,1,0,-6,-18,-42,-17,-10,-14
1523179353517202,-5,2,4,5,7,-1,-26,3
1523179353518167,10,1,-5,-4,-15,1,36,1
1523179353518167,-28,-10,-1,-10,59,-13,-10,-19
1523179353532245,-1,-4,-3,6,-70,18,-1,-4
1523179353532245,5,-1,-6,-16,6,-13,0,10
1523179353533207,-3,3,6,21,2,30,4,-18
1523179353533207,-9,-1,-7,-13,21,5,1,-12
1523179353554350,2,0,-1,10,86,-7,-2,11
1523179353554350,-7,-2,1,-12,-15,8,6,-13
1523179353555817,0,-1,0,3,-20,-14,-11,5
1523179353555817,8,-2,-2,-10,-2,2,7,9
1523179353568351,-8,-1,2,23,-4,3,-8,-6
1523179353568351,3,-1,-6,-22,22,1,2,5
1523179353577198,8,-3,7,23,22,11,1,8
1523179353577198,1,2,-2,-8,1,-9,-3,4
1523179353591273,-4,-3,-2,-8,-72,37,27,-9
1523179353591273,-7,1,-3,-4,-30,-18,-4,-20
1523179353593239,-10,-6,-1,7,20,-8,-4,4
1523179353593239,16,3,3,-1,-44,29,10,8
1523179353614299,-15,-13,-10,-19,-14,-10,-14,-14
1523179353614299,4,1,0,3,32,7,-2,-6
1523179353615296,-3,-2,1,7,-12,-5,5,6
1523179353615296,-1,-5,-7,-10,-29,-10,-4,-3
1523179353628371,4,6,2,-23,-16,-28,0,0
1523179353628371,-4,-8,-3,7,-18,-9,-3,-3
1523179353636353,-3,-2,-1,6,-8,-25,-16,-4
1523179353636353,5,0,-4,-3,-20,10,10,9
1523179353652128,-1,1,-3,-2,40,-25,10,-5
1523179353652128,2,-7,-4,-15,-12,-5,-9,15
1523179353653405,-6,-4,-4,-18,-99,-26,-5,-16
1523179353653405,0,0,1,7,97,18,13,-1
1523179353674466,0,0,2,-10,11,2,-3,-14
1523179353674466,2,-1,-2,13,6,-9,-7,12
1523179353675471,-4,-1,-2,8,25,-5,-13,-7
1523179353675471,4,2,3,-1,-31,-12,-1,2
1523179353687500,11,1,-4,-4,-31,0,1,14
1523179353687500,-15,-5,-7,-23,20,11,-16,-17
1523179353696525,4,-1,0,5,-8,4,-6,7
1523179353696525,-1,2,0,5,-50,-26,0,1
1523179353711564,1,1,1,-4,30,32,-4,15
1523179353711564,-6,1,2,29,37,-17,5,-13
1523179353713610,-1,0,-1,-8,-34,24,8,0
1523179353713610,-6,-2,1,0,-36,2,-12,-2
1523179353734702,-1,-4,-5,-9,36,-35,-24,3
1523179353734702,10,-1,-2,-4,74,2,11,5
1523179353735629,-12,3,0,16,82,24,22,-18
1523179353735629,-11,-7,-4,-7,8,-13,-29,-24
1523179353756691,-12,-2,3,13,-13,11,-2,-14
1523179353756691,2,4,1,-23,-20,-18,14,3
1523179353758195,11,1,-1,26,6,-9,9,13
1523179353758195,1,0,-6,-3,12,25,-4,2
1523179353771736,-8,-6,-3,-5,4,-7,-8,-6
1523179353771736,7,-1,-3,-11,-25,-4,-4,21
1523179353772739,-13,-5,-6,-25,-27,-34,-14,-21
1523179353772739,5,3,3,20,-31,9,-9,6
1523179353793792,7,-6,-2,10,-14,11,15,27
1523179353793792,2,5,6,20,-6,21,-3,-1
1523179353795798,2,0,-2,-14,22,21,4,5
1523179353795798,-7,-1,-2,-2,11,-13,16,-10
1523179353816852,11,3,4,1,-4,-7,-3,7
1523179353816852,-9,-7,-5,-3,-7,-10,-6,-4
1523179353817856,10,2,0,-5,-16,-9,-20,5
1523179353817856,-11,-4,-3,-13,6,-3,10,5
1523179353831894,-7,2,-4,-15,38,16,10,-23
1523179353831894,5,-5,14,37,-35,17,4,1
1523179353832896,-8,0,-4,-12,42,0,-2,1
1523179353832896,10,2,-1,-13,5,-23,-7,14
1523179353854460,3,3,4,9,-6,-1,25,9
1523179353854460,-3,0,-1,-12,-47,22,-4,-11
1523179353855963,3,-1,-2,-9,-4,-8,1,10
1523179353855963,0,0,0,-5,31,-4,-4,-8
1523179353876534,-8,-5,-7,-10,-81,-13,-13,-7
1523179353876534,20,5,3,11,66,26,-1,20
1523179353878538,-22,-4,0,-2,-5,-2,6,-33
1523179353878538,7,3,-5,-19,35,7,-6,-9
1523179353891572,-6,2,16,81,23,2,-6,-8
1523179353891572,7,2,-7,-25,-18,-15,6,12
1523179353893580,2,-4,-2,5,4,2,4,5
1523179353893580,-1,0,-3,-8,-7,11,-3,-8
1523179353913630,5,1,-1,-11,-48,-17,-12,2
1523179353913630,-10,-2,1,8,-15,-10,-4,-12
1523179353915636,3,0,-7,-16,25,-5,-9,2
1523179353915636,-6,-6,2,-4,-35,-6,-4,3
1523179353936694,4,-3,-5,-16,-21,-21,5,1
1523179353936694,-16,2,-1,27,87,7,20,-9
1523179353937695,3,0,-3,-27,-55,-26,-24,4
1523179353937695,7,0,-1,3,10,1,12,1
1523179353951234,-9,-3,-2,25,38,1,8,-12
1523179353951234,6,2,-8,-13,-14,-18,-8,4
1523179353957753,-20,0,7,10,-3,-8,6,-14
1523179353957753,6,-3,-3,1,9,-2,-6,8
1523179353974305,2,-1,-8,-26,-26,6,-31,1
1523179353974305,-7,8,6,7,27,9,3,-10
1523179353975307,1,-5,-2,2,21,15,5,15
1523179353975307,1,1,9,27,-76,-7,-5,2
1523179353996362,8,-5,-9,-21,27,-24,-21,10
1523179353996362,-26,-7,-5,-18,-59,0,-5,-30
1523179353998368,9,3,3,10,5,12,12,30
1523179353998368,-12,-3,1,-3,15,-9,-20,-25
1523179354011403,2,-3,-3,1,32,9,-3,3
1523179354011403,0,-4,-7,1,2,-7,-4,7
1523179354019423,13,-2,-5,-8,-30,-8,29,16
1523179354019423,-22,-2,-3,-8,30,60,4,-24
1523179354034466,3,1,3,9,23,9,8,3
1523179354034466,7,0,0,-6,-80,-32,-9,3
1523179354035465,-6,-4,-3,3,11,14,-19,-18
1523179354035465,15,4,4,11,-22,5,15,22
1523179354056526,-2,3,1,-17,-13,8,1,-5
1523179354056526,4,-8,-6,-15,1,6,2,19
1523179354058532,4,5,8,28,42,19,13,-16
1523179354058532,-3,-2,-6,-15,-11,-28,-9,6
1523179354071261,11,1,0,7,22,19,7,8
1523179354071261,-7,3,4,7,-39,6,-5,-22
1523179354078528,-12,-7,-4,-6,-43,-19,-11,-8
1523179354078528,5,-5,-13,-27,55,-15,26,-2
1523179354094323,-9,6,14,36,18,11,4,-7
1523179354094323,9,-3,-5,-7,10,-8,0,11
1523179354095327,0,-3,-1,9,-21,-12,-12,0
1523179354095327,-8,-1,-1,-1,-79,-29,-24,-38
1523179354116380,2,-6,-9,-17,75,13,-6,3
1523179354116380,-2,-1,3,12,20,9,8,-1
1523179354118387,-10,5,6,-15,31,7,-16,17
1523179354118387,7,-2,-2,-3,-3,-9,5,16
1523179354131811,-4,-4,-7,-13,-90,-39,-15,-2
1523179354131811,-2,-2,-3,-21,1,0,-6,-4
1523179354137445,5,-1,0,37,12,15,14,-2
1523179354137445,21,1,2,18,35,1,-6,17
1523179354154495,-32,-4,1,-8,-51,-5,11,-14
1523179354154495,-8,-2,0,-17,0,-32,-8,-20
1523179354155994,5,-2,-7,-11,-28,-7,-2,-4
1523179354155994,3,-1,-2,-7,16,0,-4,13
1523179354177389,0,-6,-7,0,-55,6,-12,-19
1523179354177389,3,0,0,-2,6,14,67,-3
1523179354178154,3,5,11,21,22,17,12,-1
1523179354178154,-9,-1,0,11,16,3,-1,-6
1523179354191187,5,-1,-4,-15,1,-8,3,14
1523179354191187,-4,-2,-11,-37,-55,-19,-22,-2
1523179354198206,5,5,7,42,50,10,-10,-3
1523179354198206,-1,-5,-3,11,41,7,10,8
1523179354214610,2,2,3,-6,10,-17,1,-6
1523179354214610,4,-3,-3,-1,9,0,-33,6
1523179354216492,7,1,-3,-22,-24,5,29,10
1523179354216492,-8,-2,-1,2,-11,22,-3,-24
1523179354236309,5,-3,-9,-17,-9,-24,2,19
1523179354236309,-5,4,10,39,59,31,-34,-9
1523179354238314,-3,-8,-13,-41,-41,-43,-25,-8
1523179354238314,-3,-1,1,14,-10,18,9,6
1523179354250348,-3,-3,-2,-8,7,-2,3,1
1523179354250348,8,0,-5,-8,8,-4,1,8
1523179354259374,1,-5,-7,-13,-12,-19,-7,-3
1523179354259374,-13,-4,-2,-7,-71,3,-4,-15
1523179354274453,-3,2,-3,-17,63,9,-4,-20
1523179354274453,-1,-5,1,7,-10,-4,9,11
1523179354275422,-6,1,7,16,12,10,1,-2
1523179354275422,-2,-4,-3,-2,81,1,5,6
1523179354296906,6,-1,0,20,35,13,-6,-3
1523179354296906,11,3,-1,-23,-53,-19,10,17
1523179354298483,-12,-6,-4,-1,61,-5,-31,-23
1523179354298483,15,10,8,5,27,34,15,22
1523179354310515,-9,0,2,4,9,-25,3,-12
1523179354310515,-1,-1,1,11,70,23,-2,2
1523179354319540,4,-2,-5,-9,-16,15,3,6
1523179354319540,-3,-5,-9,-29,-111,-51,-29,-4
1523179354334972,1,-1,-1,15,-27,15,1,5
1523179354334972,-15,0,8,33,23,-3,-2,-14
1523179354335582,2,-5,-5,-18,-31,-7,-2,0
1523179354335582,-7,2,3,10,25,-7,3,-13
1523179354356641,1,-4,-3,-20,-31,6,7,6
1523179354356641,6,3,-3,-5,-4,-13,1,-4
1523179354358646,-3,-1,-3,-10,-9,0,6,-7
1523179354358646,-1,-3,-4,-9,-88,-23,0,5
1523179354370476,15,5,3,7,-2,-4,-3,7
1523179354370476,-26,-9,-5,15,59,12,0,-17
1523179354379457,1,4,2,-14,-45,-19,-1,-8
1523179354379457,4,2,2,-8,-14,-10,13,4
1523179354394498,-3,-9,-5,5,112,7,-21,-11
1523179354394498,4,-3,-3,3,-22,24,3,4
1523179354395500,-15,-3,-5,-15,3,2,-4,-7
1523179354395500,10,4,5,27,101,-1,11,24
1523179354416556,-9,1,0,-27,-41,22,1,-20
1523179354416556,0,-1,-1,3,-47,-50,-9,-5
1523179354418952,4,2,0,5,47,0,-4,-4
1523179354418952,-2,-1,-1,6,-44,-8,-8,-2
1523179354431006,-1,0,1,8,88,28,11,13
1523179354431006,3,-2,-5,-31,-23,-14,0,2
1523179354439619,3,2,-1,1,-19,-3,-6,5
1523179354439619,-9,-4,-1,-3,-6,-5,-13,-11
1523179354454248,-1,1,2,8,-44,-29,2,-1
1523179354454248,6,0,-6,-18,-19,2,-1,11
1523179354455705,-5,-1,-3,4,-7,-22,-4,-5
1523179354455705,-5,-8,-7,-17,-12,18,11,-4
1523179354476969,1,-1,6,18,1,3,2,10
1523179354476969,-7,0,-1,-5,12,10,-10,-9
1523179354478490,10,2,-2,-11,21,17,1,15
1523179354478490,7,-9,-10,-2,-1,-22,-7,-6
1523179354490520,-28,-2,-1,-12,-15,19,-2,-16
1523179354490520,-5,-1,3,31,-7,-19,-1,2
1523179354499544,1,1,5,23,9,31,8,-15
1523179354499544,1,1,-2,-21,3,-26,-9,15
1523179354514829,3,0,-1,9,-16,4,0,-8
1523179354514829,6,-1,-7,-38,-19,-12,-7,-3
1523179354515589,-4,1,3,18,33,9,5,16
1523179354515589,15,-2,0,20,96,22,-7,10
1523179354536643,0,-3,-5,-12,-57,0,13,-8
1523179354536643,-3,-1,3,6,-12,15,4,-9
1523179354538647,4,-2,-3,-1,-5,-6,-2,2
1523179354538647,-7,1,1,3,10,7,-5,-9
1523179354551139,18,0,-4,-2,12,-32,-10,28
1523179354551139,-4,-3,-6,-2,-59,-16,3,-14
1523179354559259,2,4,3,-14,61,39,6,-5
1523179354559259,-5,-7,-1,2,-6,11,-6,-3
1523179354574513,-4,-1,-2,-8,-9,2,3,-2
1523179354574513,2,2,1,-3,1,-8,2,9
1523179354575491,-10,-9,-8,-13,-70,-15,-8,-20
1523179354575491,-2,3,-3,-6,7,3,5,4
1523179354597046,-7,6,1,-2,28,-13,-7,-25
1523179354597046,-6,-11,2,11,-26,16,4,2
1523179354598552,7,1,-1,-14,-11,-20,1,11
1523179354598552,-3,2,2,14,32,-4,-7,-2
1523179354610583,-3,-5,-4,-4,-37,-24,-8,2
1523179354610583,19,3,-2,-8,-19,-11,-5,-1
1523179354619616,-17,-4,-6,-3,-75,6,0,1
1523179354619616,-16,5,13,23,37,8,1,-23
1523179354634990,4,-2,-5,-13,2,-8,6,11
1523179354634990,6,2,2,-2,15,4,1,1
1523179354635654,5,-5,1,33,-49,-19,-8,12
1523179354635654,2,2,0,-10,-8,-3,-5,-3
1523179354656784,-1,-3,-7,6,-21,9,3,-3
1523179354656784,-3,0,1,4,-27,23,2,5
1523179354658253,-6,-4,-4,-12,43,-44,-8,-11
1523179354658253,-9,1,-2,-6,-53,1,-3,3
1523179354670503,1,-2,3,9,34,5,3,0
1523179354670503,-1,-1,-3,5,40,-19,1,1
1523179354679527,4,3,4,8,-11,26,12,-12
1523179354679527,4,-1,-5,-11,24,15,8,1
1523179354693563,8,-1,-1,-7,-34,0,-2,16
1523179354693563,-6,-1,-6,-9,40,3,5,4
1523179354695569,5,0,1,6,2,-6,-3,4
1523179354695569,-11,-2,3,-14,-29,-4,-3,-12
1523179354717003,1,-2,-3,-10,-2,-6,1,-4
1523179354717003,2,-1,5,35,12,1,-8,4
1523179354718630,1,4,6,-2,2,19,15,1
1523179354718630,2,-11,-13,-18,-29,-5,-2,3
1523179354738684,-10,-2,1,13,5,-17,-7,-10
1523179354738684,-4,-5,-5,-17,37,3,-3,-4
1523179354740689,-2,1,6,14,19,7,1,2
1523179354740689,5,3,3,3,-6,-7,3,1
1523179354754239,-2,-4,-2,-5,34,1,-4,1
1523179354754239,0,1,0,-17,-36,18,1,-1
1523179354755736,3,-2,-2,19,20,-12,-2,-2
1523179354755736,0,-4,-2,5,-24,-3,4,1
1523179354777161,-8,-8,-8,-13,-12,-13,-4,-2
1523179354777161,-1,2,4,22,80,42,-2,-3
1523179354778804,-2,-1,-12,-52,-59,-16,-9,1
1523179354778804,2,4,12,30,-4,13,-5,2
1523179354798858,2,4,9,-13,-27,23,10,1
1523179354798858,-2,-4,-3,14,-22,-22,3,1
1523179354800864,0,0,-4,-6,16,0,-8,-1
1523179354800864,-1,-1,-9,-20,-2,-14,0,-3
1523179354814927,1,2,3,16,10,14,-25,7
1523179354814927,-6,-2,1,-9,-19,-9,6,-13
1523179354815905,-1,-1,0,-12,-5,8,-3,1
1523179354815905,-4,-2,-4,4,-39,-23,-9,-1
1523179354836998,-1,-2,-1,4,96,-16,2,-6
1523179354836998,8,6,6,-10,-114,-43,-13,16
1523179354837964,-14,-10,-5,29,87,34,4,-18
1523179354837964,5,-1,-3,-16,-64,-1,2,-2
1523179354859563,5,2,-1,8,-19,8,4,30
1523179354859563,-17,-6,-10,-27,-48,-38,10,-32
1523179354861067,8,4,7,9,36,-7,-1,19
1523179354861067,6,0,4,12,55,12,-7,7
1523179354873606,-4,-1,-4,-8,-25,9,17,-4
1523179354873606,3,-1,-3,0,11,8,-10,11
1523179354881028,-8,-4,-3,-8,-29,-4,-8,-20
1523179354881028,1,0,-3,-5,8,2,2,3
1523179354897199,0,0,4,3,-23,-8,-7,-9
1523179354897199,-3,-7,-9,-8,-7,13,-4,-3
1523179354898673,-3,-3,-4,0,70,-2,-1,-1
1523179354898673,-2,3,5,19,-11,1,-2,-3
1523179354918726,-5,-4,-3,-11,-29,0,0,-7
1523179354918726,0,2,3,8,39,4,2,4
1523179354920731,2,2,1,-2,18,-9,1,0
1523179354920731,-3,-2,-4,-27,-72,14,4,-5
1523179354934161,-3,0,0,4,-27,-8,5,-1
1523179354934161,4,2,0,-2,37,21,7,-4
1523179354939785,0,-3,1,1,-24,-5,-19,7
1523179354939785,-3,-4,-5,-17,3,-6,-10,-11
1523179354956684,-2,0,1,6,6,-9,-32,-12
1523179354956684,-1,-3,-4,3,-34,-17,13,-3
1523179354958692,1,-5,-9,-26,-16,-6,6,3
1523179354958692,-2,1,1,-9,4,8,-23,15
1523179354979374,-1,1,5,48,48,12,12,-16
1523179354979374,0,4,3,-5,-11,-30,-6,-1
1523179354980694,-7,-7,-4,-4,27,51,7,-2
1523179354980694,-1,-1,-3,-14,-3,-23,-17,0
1523179354993342,-2,-1,-6,-11,-12,-19,8,6
1523179354993342,2,3,4,9,-1,6,-8,5
1523179355000776,2,2,1,0,-7,-16,10,-3
1523179355000776,-5,-7,-10,-3,16,1,19,-9
1523179355017420,0,-2,2,-7,-66,12,-8,-2
1523179355017420,2,-1,3,20,85,18,7,7
1523179355018408,-1,0,-5,-39,-31,-5,2,-1
1523179355018408,-1,0,7,49,2,4,10,-7
1523179355039464,2,-2,-6,-25,-22,-17,-1,6
1523179355039464,-5,-4,-2,-15,-55,-39,-26,-6
1523179355040466,2,2,-1,-3,-24,-5,-28,0
1523179355040466,-5,-1,-1,-13,0,14,7,-11
1523179355053512,3,2,4,14,65,14,20,5
1523179355053512,4,-2,-1,-5,-26,1,7,5
1523179355060527,-1,-1,-3,-3,-10,3,3,-2
1523179355060527,1,-3,-5,-8,9,-5,-4,2
1523179355076889,-6,-5,-5,0,30,-6,-10,-5
1523179355076889,-4,-1,3,-7,-25,12,-11,-5
1523179355078417,0,-1,-3,15,0,4,1,8
1523179355078417,-3,-1,-2,-3,-14,-9,-3,-9
1523179355099471,4,7,7,3,24,13,10,-1
1523179355099471,-4,-6,-4,5,-4,-1,-6,2
1523179355101562,0,4,6,12,-10,4,7,0
1523179355101562,-1,-5,-6,-19,-22,-23,0,9
1523179355113507,-4,-2,-2,9,25,7,-33,-20
1523179355113507,-2,0,0,-10,-19,6,16,-6
1523179355120528,2,-5,-6,3,-48,-28,3,-1
1523179355120528,-2,-3,-3,-10,18,-6,-5,-1
1523179355136573,4,-3,-4,-8,-56,-2,7,10
1523179355136573,-3,0,0,-7,22,14,4,1
1523179355138617,-3,0,-1,10,4,-12,-13,-2
1523179355138617,5,5,6,10,9,15,19,-2
1523179355159136,0,-2,1,-14,-19,-17,4,7
1523179355159136,-1,-3,-2,28,38,28,-13,-17
1523179355161142,-3,-1,-4,-6,9,23,21,-29
1523179355161142,0,2,6,23,27,-8,2,7
1523179355182098,1,-1,-2,-4,13,-5,7,3
1523179355182098,-2,-4,-6,0,6,2,-5,-1
1523179355183958,4,-1,4,28,-8,-17,2,5
1523179355183958,-2,2,4,-4,18,17,19,-1
1523179355196746,-4,-2,-1,-8,-50,-3,-4,-6
1523179355196746,6,5,-1,-16,89,12,-1,16
1523179355197748,-11,-8,-2,-7,-92,-18,2,-10
1523179355197748,-4,-2,-5,0,35,-9,-31,-5
1523179355218804,1,3,2,3,-12,20,-2,7
1523179355218804,0,1,2,6,90,10,12,0
1523179355220807,4,-1,1,-7,-16,-8,-6,14
1523179355220807,-8,-1,1,3,-3,7,3,-21
1523179355233247,3,-2,-2,-7,8,-3,3,-2
1523179355233247,-3,-1,-1,18,-14,7,-1,-1
1523179355241863,-4,2,1,4,14,-2,-16,2
1523179355241863,2,-2,-4,-1,-12,9,11,6
1523179355256925,1,-2,-4,-6,4,-9,-9,5
1523179355256925,-7,-4,-4,-2,-41,-26,-6,-8
1523179355258393,9,7,13,45,52,17,15,10
1523179355258393,-5,-4,-8,-19,9,-7,-7,-2
1523179355279342,-2,-2,-1,8,20,6,-2,0
1523179355279342,3,0,-2,-14,-18,0,6,-3
1523179355280955,0,-2,-6,-24,-49,-13,-5,2
1523179355280955,-5,-5,-4,0,68,-4,-17,-11
1523179355292988,-1,0,2,10,-3,-9,-29,-5
1523179355292988,11,1,0,-1,15,-8,24,36
1523179355302011,-15,-2,2,-6,7,-10,-15,-32
1523179355302011,4,5,0,5,-4,1,-1,4
1523179355317397,-8,-5,-6,-13,12,3,-1,-7
1523179355317397,2,-3,-2,0,-36,-6,-12,9
1523179355318052,-7,-5,-5,-6,-12,-7,8,-14
1523179355318052,7,2,-1,-20,1,-1,1,5
1523179355339152,5,4,11,53,6,1,15,2
1523179355339152,-9,-1,-4,-15,-14,-5,1,-6
1523179355341150,1,0,-1,-6,23,11,-5,7
1523179355341150,3,0,1,3,-22,-7,8,-1
1523179355353122,3,-4,-7,-18,-18,-2,7,11
1523179355353122,-7,-2,1,7,26,16,-12,-8
1523179355361602,-10,-3,-6,-21,13,6,-1,-17
1523179355361602,1,-4,-6,10,7,-25,-5,0
1523179355377176,-4,1,7,4,-40,36,7,6
1523179355377176,-2,-1,1,-9,-12,7,-1,-2
1523179355379030,1,0,-3,-12,18,1,7,6
1523179355379030,9,-3,-1,28,26,-8,3,23
1523179355399873,-17,-10,-13,-24,-24,-10,-5,-28
1523179355399873,1,1,2,0,-35,-3,-4,-4
1523179355400790,3,-2,-5,-12,7,-11,-13,6
1523179355400790,1,4,9,20,-26,35,11,15
1523179355413198,5,2,-1,-20,-46,17,35,-12
1523179355413198,-7,-1,-2,-2,-25,-1,-8,-11
1523179355421846,6,1,2,17,36,-2,2,13
1523179355421846,-6,-4,-5,-20,-57,-14,-5,-10
1523179355436887,3,1,2,11,24,-20,-11,5
1523179355436887,0,1,0,-10,1,0,-1,-4
1523179355437889,4,0,-2,0,-35,-13,3,2
1523179355437889,-3,0,0,-11,-15,-5,-4,-3
1523179355459958,-1,1,2,3,32,17,-10,-3
1523179355459958,-1,-4,-6,-9,-26,-3,3,-12
1523179355461462,5,-3,4,6,-14,-6,-10,8
1523179355461462,-3,2,8,17,46,4,1,-1
1523179355472607,5,1,-5,-10,20,-8,0,9
1523179355472607,3,0,0,-5,-36,9,21,4
1523179355481845,-4,-7,-10,-2,-3,-6,-11,-10
1523179355481845,1,-3,0,-10,-40,-5,-13,-3
1523179355497674,-1,0,-1,1,18,18,32,9
1523179355497674,-1,4,6,3,11,9,-11,-4
1523179355498676,-5,-2,-1,4,-21,-2,8,1
1523179355498676,-2,-2,2,10,13,7,-4,-1
1523179355518728,1,-4,-6,0,24,-19,-11,0
1523179355518728,-5,0,-3,-3,-13,-14,-16,-2
1523179355520735,-3,5,5,-7,55,29,9,-13
1523179355520735,1,1,-1,31,16,-6,0,0
1523179355533179,-9,-6,-7,-14,-32,-20,-6,-10
1523179355533179,9,-2,-3,-5,-25,-49,-16,5
1523179355541791,5,1,2,6,-41,43,11,15
1523179355541791,-4,2,4,2,27,9,7,0
1523179355556745,0,-2,-4,-26,-46,-13,-16,-8
1523179355556745,5,0,4,26,32,-5,-1,5
1523179355558249,-5,-5,-11,-27,10,-6,1,-3
1523179355558249,1,-3,-2,-16,-15,-4,-9,-4
1523179355579694,-3,-2,-5,-4,-18,-9,-8,0
1523179355579694,-2,1,3,17,1,7,7,-3
1523179355581492,1,0,4,9,24,-10,-6,2
1523179355581492,-1,1,-2,-7,3,25,14,4
1523179355592348,4,2,1,5,12,-9,-3,5
1523179355592348,-23,-4,-4,-12,-38,4,-29,-27
1523179355601367,13,2,-2,-8,-24,-20,25,15
1523179355601367,-10,-4,3,27,-21,7,-7,-10
1523179355616774,4,7,8,4,27,1,-2,14
1523179355616774,2,-3,-8,-21,-21,2,22,7
1523179355618414,-2,1,4,6,9,-27,-13,-3
1523179355618414,-4,-3,-9,-24,-55,-17,-14,-1
1523179355639470,1,2,5,15,21,2,16,-5
1523179355639470,1,-1,1,3,9,7,3,3
1523179355640472,-2,1,3,4,69,7,-13,8
1523179355640472,-2,-3,-5,-20,22,-20,5,-8
1523179355661900,-3,-4,-4,9,-48,-6,-16,-4
1523179355661900,2,-6,-8,-18,26,-13,-1,-2
1523179355663207,0,-2,1,6,28,41,10,2
1523179355663207,2,-3,-3,-19,-19,-4,-8,7
1523179355677378,-6,-3,1,43,18,6,3,-28
1523179355677378,-4,-3,-6,-5,99,9,-5,-10
1523179355678025,-1,1,-2,-12,-49,-25,3,0
1523179355678025,2,0,-4,-13,-38,13,3,10
1523179355699081,-9,-5,-7,-28,-4,21,-2,-8
1523179355699081,6,1,6,21,16,3,7,10
1523179355701085,-3,2,2,8,5,-2,-29,-10
1523179355701085,6,4,-2,-19,14,-12,-4,1
1523179355721138,7,2,4,18,41,5,9,9
1523179355721138,3,-3,-4,5,-26,-13,-14,7
1523179355723143,-13,-3,-5,-31,-31,4,0,-8
1523179355723143,-11,-3,0,17,6,-31,6,-19
1523179355737181,4,0,3,20,14,15,-3,5
1523179355737181,2,1,1,-5,-36,12,4,12
1523179355738223,-4,-3,-4,-1,33,5,-9,-11
1523179355738223,1,-3,-3,-8,-68,-12,-6,-4
1523179355759232,-6,-2,-3,-3,7,-23,-14,0
1523179355759232,0,-1,3,-5,15,4,26,1
1523179355760737,1,-1,-1,15,-6,-7,1,-6
1523179355760737,-9,-4,-4,-3,-21,19,2,-10
1523179355782572,2,0,-3,-11,-6,-8,17,-1
1523179355782572,-1,-2,0,8,-18,-11,-15,-6
1523179355783251,5,-1,-3,-8,-17,-13,0,2
1523179355783251,7,1,5,31,-2,1,2,23
1523179355796661,2,-2,-4,-21,-6,-13,3,-6
1523179355796661,-20,0,0,-2,3,-45,-14,-11
1523179355802304,5,-1,-3,-13,-8,7,19,2
1523179355802304,3,1,2,23,23,-4,-11,-11
1523179355819348,2,-1,-2,-18,-35,0,-9,18
1523179355819348,2,-1,1,19,50,20,21,-8
1523179355820349,1,1,-2,8,3,-12,-12,4
1523179355820349,-6,-6,-5,-39,31,-2,-12,-3
1523179355841405,-5,-2,-1,-5,-11,-18,4,-1
1523179355841405,10,3,4,15,-17,21,-10,11
1523179355843411,-13,-2,0,-8,10,5,-9,-1
1523179355843411,6,2,-4,3,-14,11,29,10
1523179355855944,-21,-5,4,11,43,-4,-8,-32
1523179355855944,7,0,-5,-9,41,23,1,6
1523179355863605,-2,-5,-5,-35,-39,-13,0,5
1523179355863605,-4,1,7,39,80,-11,-18,-4
1523179355879508,5,4,0,-12,-52,-11,-1,7
1523179355879508,-2,-5,-5,-10,26,10,7,-2
1523179355881126,2,-1,2,4,-75,-23,-7,-5
1523179355881126,2,-4,-3,-21,16,1,7,-1
1523179355901179,-15,3,1,2,15,4,-7,-5
1523179355901179,4,0,1,6,-47,-4,3,-4
1523179355903185,1,0,2,22,31,0,6,-1
1523179355903185,1,3,4,23,5,-2,3,-1
1523179355916219,4,-6,-6,-9,-13,10,1,9
1523179355916219,1,1,-4,-16,-15,9,-2,1
1523179355922237,-7,-4,-1,2,-9,-1,8,-21
1523179355922237,0,3,3,-9,-23,36,10,-7
1523179355939284,3,-2,5,29,37,-5,-24,0
1523179355939284,-2,0,-3,-6,4,-9,15,9
1523179355940283,3,-1,-5,-1,5,8,-2,5
1523179355940283,1,-6,-6,-27,-7,-16,-3,5
1523179355962328,-9,-4,-5,3,49,13,-4,-15
1523179355962328,-6,-3,-4,-11,-89,-5,-8,-7
1523179355963337,3,1,2,8,0,-8,3,-1
1523179355963337,-3,0,-7,-19,-26,-2,-2,2
1523179355976753,1,-7,-5,-3,60,7,1,15
1523179355976753,4,-1,1,19,-30,-16,-19,7
1523179355983516,-8,-4,-4,-10,29,2,1,-15
1523179355983516,-10,-3,-3,-14,-38,-25,-11,-11
1523179355999432,12,2,0,14,50,31,3,22
1523179355999432,-7,1,3,7,-12,21,0,-12
1523179356000435,7,1,4,10,-5,-1,-5,13
1523179356000435,-3,-3,-2,-17,-70,-2,-2,-4
1523179356021495,7,2,-2,-8,-8,-1,-2,1
1523179356021495,-6,-6,-4,-4,-11,-18,-16,-3
1523179356023498,1,4,8,8,47,13,-3,2
1523179356023498,0,-2,-1,6,-1,-17,2,-2
1523179356035533,-2,-1,-5,-14,26,20,22,-10
1523179356035533,4,1,4,12,21,24,9,5
1523179356042548,-2,-4,-5,-2,-26,-20,-3,7
1523179356042548,-3,-2,1,5,13,-9,-1,-17
1523179356059135,8,1,-3,-31,-45,-30,-3,7
1523179356059135,-14,-2,-5,-4,-7,-4,-2,-16
1523179356061143,-1,2,6,54,97,42,13,0
1523179356061143,8,3,1,-12,-13,3,4,12
1523179356082374,3,1,-1,-7,-52,-12,-5,12
1523179356082374,-4,-2,-5,-15,33,-22,12,-11
1523179356083284,-8,0,-3,-6,-56,-12,-16,4
1523179356083284,-3,-2,2,15,58,21,0,-5
1523179356096660,3,2,5,-3,-37,-12,1,4
1523179356096660,4,-2,-1,-8,12,-13,-8,5
1523179356102337,2,-3,-4,-16,-35,10,12,3
1523179356102337,-1,1,2,10,58,0,-4,2
1523179356119385,-6,-4,-6,-18,-98,1,-12,-1
1523179356119385,-4,0,2,8,87,-5,3,-24
1523179356120380,2,2,1,-16,-6,-20,2,-4
1523179356120380,-2,-5,-4,8,19,17,-4,9
1523179356141436,-4,-1,-1,27,11,-24,3,-9
1523179356141436,5,3,3,16,-44,18,-2,15
1523179356143441,3,-6,-6,-21,-19,11,9,-1
1523179356143441,-9,1,0,4,24,-2,-3,-15
1523179356155367,-1,-3,-7,-16,-23,-14,11,-1
1523179356155367,4,2,2,-7,-5,-8,-7,13
1523179356164386,-10,-5,-5,7,25,-6,-9,-24
1523179356164386,5,-1,-3,-15,-21,-4,-9,10
1523179356179817,-8,-2,-3,2,-47,8,1,-5
1523179356179817,4,2,5,17,22,2,10,1
1523179356181520,3,-2,-3,-5,-46,-17,-10,11
1523179356181520,-5,-3,-4,-13,0,-5,7,-10
1523179356201487,1,2,7,5,5,9,-14,-11
1523179356201487,1,2,-3,-23,-90,2,5,5
1523179356203495,1,-1,3,39,2,-29,-12,5
1523179356203495,-2,-3,-7,-17,2,15,-3,-14
1523179356215951,-1,2,3,20,1,-11,25,-1
1523179356215951,0,-4,-8,-18,-5,-5,-6,-5
1523179356224543,-14,-2,1,6,33,15,4,-1
1523179356224543,10,3,3,-2,-5,15,-3,20
1523179356238590,-18,-3,-1,4,25,13,-3,-30
1523179356238590,-2,-5,-6,-1,-14,-11,16,3
1523179356240585,17,5,3,-2,7,31,4,20
1523179356240585,-9,-5,-6,8,39,2,14,-4
1523179356262463,2,-1,0,-7,9,-6,-21,13
1523179356262463,1,-1,-2,-7,15,-21,-17,-8
1523179356263659,1,-1,2,8,-42,10,8,6
1523179356263659,1,2,2,6,-8,1,4,0
1523179356276040,1,-3,-7,-33,-31,-13,-6,2
1523179356276040,0,0,-2,8,17,-3,13,6
1523179356284718,-1,0,-3,-21,-14,-22,-9,-9
1523179356284718,-7,-2,1,7,4,12,-6,-8
1523179356298753,0,1,-3,-9,13,-3,4,4
1523179356298753,2,-2,2,10,1,27,0,2
1523179356300797,-3,1,-3,-7,-3,1,4,-2
1523179356300797,-11,-2,0,6,-17,-11,3,-9
1523179356321855,3,-3,-4,-7,-7,-16,-11,2
1523179356321855,-6,-4,-4,-10,11,-9,-14,-13
1523179356322817,1,-2,-3,3,7,2,2,3
1523179356322817,6,2,3,6,-6,4,-1,3
1523179356334855,1,2,4,12,-28,14,5,2
1523179356334855,-3,-1,-3,-1,60,20,-9,-14
1523179356343877,-5,1,4,-13,-46,-24,8,-10
1523179356343877,5,2,-1,-18,-32,-2,-14,13
1523179356359423,0,-7,-1,13,23,1,12,8
1523179356359423,-5,0,1,-3,10,-12,0,10
1523179356360927,2,0,3,11,11,17,-5,-5
1523179356360927,-2,-3,-5,-12,-22,-11,-5,-11
1523179356382350,5,0,-2,-5,17,-1,-7,15
1523179356382350,2,2,-2,-13,-68,-9,-18,-3
1523179356382990,-4,-5,-6,-6,13,-9,5,-9
1523179356382990,10,-3,-7,0,-3,-21,7,26
1523179356395020,-17,-3,1,0,-35,21,2,-22
1523179356395020,1,-4,-5,9,52,-14,-2,1
1523179356404048,-2,2,4,18,2,8,-24,-2
1523179356404048,5,-1,0,3,4,2,16,12
1523179356419087,1,-2,-4,-7,3,-9,-9,-4
1523179356419087,-2,-3,-4,2,-7,-7,-5,0
1523179356421089,-3,2,0,-15,62,18,6,3
1523179356421089,-10,-1,3,21,-21,2,4,-12
1523179356441141,5,1,2,32,18,-9,0,7
1523179356441141,-7,-3,-1,-17,-16,3,-1,-13
1523179356443148,3,-4,-9,-13,12,-3,-1,-1
1523179356443148,-1,-3,-3,-12,-31,-12,-4,-7
1523179356455188,1,7,4,6,6,15,-1,-9
1523179356455188,-3,-3,4,23,-7,-23,1,-1
1523179356464415,-1,-1,-3,-3,11,20,-8,5
1523179356464415,2,-2,0,-2,11,11,1,1
1523179356479605,-3,-1,-4,-13,-14,-26,-1,-11
1523179356479605,4,1,3,-3,36,36,-13,18
1523179356480217,-18,-2,-1,22,-17,-11,14,-39
1523179356480217,0,-3,0,4,35,12,-5,5
1523179356501318,3,-2,-1,-19,31,14,-25,6
1523179356501318,-3,1,4,16,-31,1,9,5
1523179356503277,1,-3,1,-13,-16,7,22,2
1523179356503277,0,1,-1,-8,-31,-12,-9,-4
1523179356515680,-1,-3,-1,9,-7,10,4,-3
1523179356515680,3,-2,-4,-18,-11,-12,-6,-1
1523179356524334,2,-5,-7,-4,-7,-8,-13,8
1523179356524334,-4,0,3,0,50,-17,8,-10
1523179356539374,6,2,1,-5,-62,-9,16,22
1523179356539374,-8,-4,-4,-3,-1,-8,5,-28
1523179356540377,9,4,0,-4,-12,-18,-14,8
1523179356540377,-6,-5,-5,-10,-29,8,1,-3
1523179356569334,1,-2,0,-14,-15,1,-4,4
1523179356569334,2,0,10,31,2,3,4,2
1523179356570334,7,2,-4,-18,-1,-9,-5,6
1523179356570334,-2,-1,-1,23,-1,-18,-15,-2
1523179356584373,-2,-2,-4,-8,40,14,10,-7
1523179356584373,-3,1,2,-2,-8,3,4,5
1523179356585374,-7,-4,-1,-6,0,-11,-5,-5
1523179356585374,0,-1,-2,-8,1,3,-15,-1
1523179356599410,-10,0,-1,13,56,8,24,-11
1523179356599410,8,-1,0,-1,7,8,-24,33
1523179356600413,-3,-7,-7,-10,-38,-35,-4,-12
1523179356600413,-11,-4,-2,-6,68,9,-7,-7
1523179356621470,8,1,0,2,-71,6,7,13
1523179356621470,-7,0,-2,-9,4,-1,8,-12
1523179356623475,-2,-3,-2,-13,6,-4,-10,2
1523179356623475,11,3,2,30,3,3,5,19
1523179356644932,-15,-5,-2,-7,32,0,-11,-25
1523179356644932,1,-5,-5,-17,-17,-6,0,2
1523179356645535,-2,3,5,30,52,7,9,7
1523179356645535,3,1,-2,-17,-39,20,7,-3
1523179356659078,-1,-1,-3,0,48,2,-5,3
1523179356659078,-2,-3,-3,-9,-13,-16,2,-5
1523179356661481,5,-1,0,-3,-6,-8,-9,16
1523179356661481,-11,1,1,-2,11,5,-2,-29
1523179356682439,2,1,-2,11,54,5,-29,-11
1523179356682439,-2,-5,-6,-12,-31,-12,-2,-3
1523179356683153,5,-3,-5,-19,-6,11,18,7
1523179356683153,4,2,5,30,6,-23,-9,16
1523179356704206,0,-2,0,-10,20,-21,-10,-20
1523179356704206,0,3,0,16,-14,7,-2,-8
1523179356705210,3,0,1,3,21,28,-3,-4
1523179356705210,-11,-1,-3,-8,-4,1,5,1
1523179356718246,-1,-4,-6,-14,-39,-27,-2,-4
1523179356718246,1,1,1,-6,76,5,2,4
1523179356725754,-2,4,5,22,-64,-7,1,-11
1523179356725754,3,-5,-4,-13,55,5,0,3
1523179356741304,-1,-5,0,27,-5,0,7,6
1523179356741304,5,0,-1,-7,-9,-5,-8,-2
1523179356743311,-14,0,-1,2,26,13,-9,2
1523179356743311,4,2,-1,-12,-15,-8,0,-5
1523179356764243,7,2,3,-2,-59,-9,6,9
1523179356764243,0,-3,-3,-14,8,14,1,12
1523179356765313,-1,-2,0,9,2,-21,-6,-8
1523179356765313,5,1,2,4,-86,-14,3,6
1523179356778752,-6,-5,-7,-16,2,17,1,-9
1523179356778752,-3,-2,-1,-7,-14,-10,4,-4
1523179356785370,0,-1,-3,-19,-58,-18,-5,1
1523179356785370,4,1,3,5,56,1,7,2
1523179356801449,-10,-2,1,2,-16,-13,-20,-8
1523179356801449,-3,-2,-7,-2,-23,-3,6,0
1523179356803418,-8,-6,-5,-16,35,6,-9,-14
1523179356803418,5,-1,5,13,1,13,12,13
1523179356824470,4,-1,-2,-10,28,1,-2,13
1523179356824470,-18,-6,-3,-8,32,-15,10,-35
1523179356825645,2,0,1,7,-10,12,-10,9
1523179356825645,-2,1,-2,-16,-44,5,6,7
1523179356846535,3,0,0,0,4,-8,-6,5
1523179356846535,4,5,3,2,11,-23,9,2
1523179356848537,-4,-2,-2,16,-23,18,-17,2
1523179356848537,-5,-3,-4,-4,-13,1,-9,-26
1523179356862483,6,1,-3,-21,2,4,14,7
1523179356862483,0,3,2,11,-4,5,-11,-12
1523179356863584,-7,-5,1,1,-8,0,11,-5
1523179356863584,13,0,-2,12,29,30,1,21
1523179356884120,-20,-1,0,9,21,-7,-11,-29
1523179356884120,2,-1,-3,-2,20,26,4,3
1523179356886108,6,1,0,-8,-38,6,-5,3
1523179356886108,-5,-1,-6,-9,10,-23,4,-8
1523179356899184,5,0,1,6,8,-22,-2,13
1523179356899184,0,-3,0,4,-2,16,-3,3
1523179356905157,-1,1,3,-8,-33,-3,0,-6
1523179356905157,-5,-2,-2,-14,10,8,-8,-9
1523179356921423,2,0,-4,5,-23,-4,7,5
1523179356921423,-1,0,3,8,3,1,-4,6
1523179356923206,5,0,-2,-10,-24,3,-10,7
1523179356923206,1,1,4,-2,-30,-9,7,-7
1523179356944658,1,-1,-1,0,2,26,3,8
1523179356944658,-4,-8,-3,5,11,-8,-18,-27
1523179356946446,-15,1,-3,-5,4,-8,16,-23
1523179356946446,-6,-4,-1,1,3,-7,-2,1
1523179356958806,3,0,2,-5,-34,5,1,15
1523179356958806,6,4,2,9,51,7,-9,9
1523179356966225,5,-1,0,4,37,7,16,-5
1523179356966225,-15,-4,-5,-5,-35,-20,-24,-15
1523179356982359,2,1,1,21,6,-2,11,-2
1523179356982359,1,-1,-2,-12,-92,12,3,9
1523179356982954,2,2,-2,-11,33,-8,4,2
1523179356982954,-2,-3,-4,-3,44,-14,-9,0
1523179357004010,0,0,5,8,-80,-5,-14,-12
1523179357004010,0,1,-3,-13,-37,-4,7,2
1523179357006015,-2,-5,-3,12,82,10,-4,6
1523179357006015,6,2,0,-14,-59,-14,6,9
1523179357018058,-12,-5,-3,-6,-4,10,-13,-32
1523179357018058,0,0,-2,-1,7,0,7,-2
1523179357025558,3,-1,5,-1,-19,-2,-1,6
1523179357025558,-6,-4,-6,-2,19,-9,-6,-7
1523179357041106,4,1,1,-9,-3,-15,-1,7
1523179357041106,1,2,1,6,8,-10,2,5
1523179357043113,1,-2,-5,-6,-45,-7,-17,10
1523179357043113,0,-2,-1,23,9,26,12,-11
1523179357064174,-1,0,-1,-2,15,-2,-1,6
1523179357064174,-7,-6,-7,-21,-14,13,-1,-4
1523179357065758,7,3,0,-1,8,-7,7,7
1523179357065758,5,-2,4,13,56,13,-11,-1
1523179357078170,-9,-6,-11,-27,-1,3,-6,-5
1523179357078170,-1,0,2,20,-23,-21,0,28
1523179357086815,-5,-5,-6,-13,-46,-13,8,-19
1523179357086815,-4,-1,-5,-11,89,23,7,5
1523179357101893,4,4,3,12,-50,-20,-1,1
1523179357101893,7,-3,-3,7,102,20,-2,9
1523179357102854,-4,2,3,12,9,-19,-1,-3
