timestamp,emg1,emg2,emg3,emg4,emg5,emg6,emg7,emg8
1523178169569356,25,-3,-72,0,-2,0,6,4
1523178169569356,10,5,-3,-6,4,0,-4,-16
1523178169569356,8,-2,-21,9,-1,0,-1,1
1523178169569356,-4,-2,-8,7,0,-2,1,1
1523178169570182,-54,5,49,-8,-1,-2,-2,0
1523178169570182,-31,-6,-21,3,0,1,3,-1
1523178169572348,4,30,41,11,-2,-2,-4,9
1523178169572348,19,-23,-18,-46,-5,-3,-5,-43
1523178169572348,-9,-25,-2,7,-1,0,-1,-3
1523178169572348,-8,15,25,-11,-9,-7,-3,-9
1523178169586651,-12,-1,6,8,1,-1,0,-8
1523178169586651,4,8,32,21,5,2,1,17
1523178169594403,7,2,26,-3,2,0,-1,-30
1523178169594403,2,-11,51,13,0,2,2,0
1523178169602307,25,-11,-17,33,0,-1,-3,2
1523178169602307,-28,-5,-74,-21,-6,-5,-3,-2
1523178169616640,29,-4,28,15,4,1,0,4
1523178169616640,-43,-3,-36,-30,-3,-2,-1,1
1523178169632375,-2,-1,9,-9,-7,-2,0,-17
1523178169632375,53,17,21,50,4,5,4,17
1523178169632375,16,14,1,-44,-9,-7,-16,6
1523178169632375,4,-24,-87,13,-2,0,18,32
1523178169679481,-18,2,-4,15,4,1,21,0
1523178169679481,-2,12,10,2,0,0,-2,11
1523178169680477,5,-17,1,6,2,3,2,24
1523178169680477,-70,-26,9,6,-4,-4,-11,-52
1523178169680477,29,7,19,-46,-2,0,-6,0
1523178169680477,2,3,-8,24,1,0,-1,0
1523178169683751,-30,2,-22,-28,-3,-2,0,-7
1523178169683751,29,-22,-16,28,0,0,0,21
1523178169692511,-63,10,40,2,0,-3,-5,2
1523178169692511,12,-9,-7,2,-1,0,2,-5
1523178169699563,10,-6,-15,4,1,-2,-3,8
1523178169699563,-13,4,12,-16,1,0,2,0
1523178169705802,64,9,-27,16,-2,-1,-4,-20
1523178169705802,60,-8,35,-30,-5,-3,-2,42
1523178169721827,-89,12,-28,21,0,0,-1,-27
1523178169721827,21,-9,47,-8,-2,-2,1,19
1523178169728610,0,2,-5,5,2,2,3,-21
1523178169728610,-28,0,-30,-9,-4,-1,-4,8
1523178169743884,66,-19,20,-9,0,-2,-4,-3
1523178169743884,-19,29,-22,-48,0,-1,2,4
1523178169752670,21,-3,61,66,2,-1,-6,-8
1523178169752670,34,-4,-9,2,-3,-3,-4,-17
1523178169766709,19,19,49,0,0,0,0,-16
1523178169766709,82,-13,-39,20,2,2,-1,7
1523178169768712,-53,-12,72,-21,-1,-2,-2,9
1523178169768712,-17,11,-43,-22,-3,0,-2,-13
1523178169790123,47,1,1,10,-4,-2,-1,28
1523178169790123,4,-4,3,14,-2,1,0,-15
1523178169791779,27,12,-31,-2,1,0,-3,14
1523178169791779,-50,-13,27,-13,-5,-5,-2,-13
1523178169811826,-29,-5,17,-14,-7,-2,-2,-5
1523178169811826,-13,18,-34,-1,-4,0,1,20
1523178169813833,-25,-7,-28,-1,2,1,-2,5
1523178169813833,4,-4,16,27,6,3,2,-3
1523178169827287,85,10,-14,-6,0,-3,-1,6
1523178169827287,3,2,-2,-20,-4,-1,0,3
1523178169828871,16,12,-9,-4,-7,-6,-4,-3
1523178169828871,-30,2,21,-9,3,1,2,-3
1523178169850352,-13,-3,-11,13,2,0,-3,0
1523178169850352,40,11,8,5,1,-2,1,10
1523178169850930,-57,2,4,-34,-7,-4,-3,-2
1523178169850930,9,-3,6,27,4,0,-2,-13
1523178169872275,27,24,8,-48,-6,-2,3,2
1523178169872275,-15,-14,10,8,-1,-5,-7,-19
1523178169873993,-72,-16,-28,-5,-3,-2,-2,-17
1523178169873993,22,11,15,25,-1,-1,0,-1
1523178169887316,-26,-27,-9,-27,-4,0,-2,0
1523178169887316,-18,4,24,-8,-4,-1,-1,-8
1523178169889032,23,-11,-10,13,2,2,1,-3
1523178169889032,52,5,-24,6,-4,-2,1,23
1523178169910397,-39,13,-18,11,3,0,-2,-20
1523178169910397,-20,-36,39,34,3,-1,-2,3
1523178169911090,10,1,-57,10,2,3,1,5
1523178169911090,38,24,30,-9,-6,-4,-5,-20
1523178169932420,-23,-22,-13,8,-1,1,0,3
1523178169932420,11,22,1,-32,-5,-6,-3,-21
1523178169938438,17,-16,-8,20,6,2,3,31
1523178169938438,-10,-9,-15,-12,3,2,-1,-12
1523178169947260,-48,-20,11,39,0,0,-2,-8
1523178169947260,50,34,23,9,3,1,0,22
1523178169953512,28,2,2,-10,-5,-4,-4,-1
1523178169953512,-48,0,-11,-14,-4,-1,3,2
1523178169970583,-5,-5,8,-10,2,-1,1,3
1523178169970583,-96,-8,23,6,-1,2,3,6
1523178169971251,51,-11,-34,-16,-4,-2,-2,-5
1523178169971251,-31,0,45,20,4,3,0,-1
1523178169992610,-8,24,13,-11,1,0,1,2
1523178169992610,72,21,63,4,-1,0,3,2
1523178169993308,5,-11,-84,-8,-6,-4,-3,4
1523178169993308,-59,-30,23,-3,5,5,5,50
1523178170006646,33,6,-67,-4,-2,0,0,-25
1523178170006646,-39,15,-29,15,-4,-2,2,15
1523178170013539,35,3,94,35,-4,-6,-4,-19
1523178170013539,-67,-42,-61,-55,-1,-2,-4,52
1523178170030456,69,6,4,21,1,1,1,-5
1523178170030456,-46,-6,-71,-20,-1,0,-4,14
1523178170031413,24,5,39,-28,4,4,2,11
1523178170031413,6,13,-21,3,-8,-2,-3,-50
1523178170052467,-13,4,46,22,1,-3,-4,-4
1523178170052467,-19,-26,-42,-1,0,1,-3,-19
1523178170053468,-21,0,-14,9,-2,-2,-1,-4
1523178170053468,48,-14,31,-28,3,3,0,-12
1523178170066600,-74,27,29,26,-3,-3,-3,-6
1523178170066600,79,-4,-93,16,0,-1,-1,-6
1523178170073633,-33,-6,91,-23,-3,-2,-4,-5
1523178170073633,54,13,-90,18,2,-2,1,17
1523178170089657,8,-14,-6,-10,1,-1,-1,3
1523178170089657,-23,14,57,-56,-9,-4,-5,-17
1523178170091570,-13,-12,-87,-31,-3,-2,-9,14
1523178170091570,-18,14,-74,-3,-5,-8,-10,-15
1523178170112625,51,-26,75,72,5,3,2,1
1523178170112625,-64,7,-8,-13,0,4,36,12
1523178170113660,-21,9,-24,-49,-2,2,0,-7
1523178170113660,24,4,93,61,0,0,-2,-7
1523178170127023,27,-11,-50,-72,1,-3,-21,12
1523178170127023,-42,-15,57,67,-3,-4,-11,-36
1523178170133926,56,-4,33,5,0,-3,0,-15
1523178170133926,-53,2,24,48,3,1,4,-15
1523178170149993,28,2,-36,-73,-14,-5,3,9
1523178170149993,86,-10,38,-4,6,0,-9,-16
1523178170150728,-79,-12,-71,-7,-6,-2,3,-5
1523178170150728,63,-8,29,14,-1,-3,-5,-5
1523178170172802,-21,10,23,-16,0,0,5,-1
1523178170172802,6,2,-26,3,1,-1,-9,10
1523178170173792,20,-19,16,16,-2,1,-2,16
1523178170173792,0,21,97,-34,0,1,12,-10
1523178170186954,4,-13,-68,75,-1,-4,-5,8
1523178170186954,-22,-1,-27,-120,-8,0,-1,23
1523178170193872,9,6,11,38,2,2,0,0
1523178170193872,-5,8,11,-32,-3,-2,-3,2
1523178170210283,38,6,-40,-12,-4,-3,0,-7
1523178170210283,6,-2,15,43,7,1,-2,22
1523178170210889,8,29,-1,20,2,0,-3,-44
1523178170210889,10,2,17,-51,1,1,1,10
1523178170232130,-16,6,-20,16,-3,-3,-3,-45
1523178170232130,12,5,-10,64,-1,-1,-5,-5
1523178170233953,-58,-30,-46,-92,-7,-6,-6,14
1523178170233953,72,6,10,52,2,1,0,12
1523178170245979,-29,-18,-19,-34,-1,-1,-17,-12
1523178170245979,-2,-35,-10,-6,-4,1,18,-6
1523178170254056,-9,-25,45,36,6,2,2,16
1523178170254056,19,-1,-28,19,-1,-2,-3,-21
1523178170269222,6,-33,-30,-32,4,2,0,9
1523178170269222,39,32,70,19,-1,-1,-9,-26
1523178170270045,-3,9,0,9,-3,-2,-3,-7
1523178170270045,65,14,21,-10,-7,-3,-4,0
1523178170291391,-52,-12,-37,28,1,1,9,7
1523178170291391,-29,-37,-74,-39,1,-1,-4,-47
1523178170292103,127,29,53,20,1,0,8,10
1523178170292103,-66,-6,-14,-17,-5,-2,-4,-8
1523178170306392,-4,29,32,4,-2,-1,5,10
1523178170306392,38,21,1,60,6,2,-2,13
1523178170313157,2,-1,-67,-57,-10,-8,-5,10
1523178170313157,-23,-23,-21,28,-1,2,0,-3
1523178170329207,24,7,21,-63,-6,-2,3,31
1523178170329207,-69,-3,39,-11,-3,-2,-5,26
1523178170330203,-9,-25,59,35,9,7,10,-6
1523178170330203,-3,-12,-40,25,3,1,0,-6
1523178170351265,-25,2,-18,-23,-2,-1,1,18
1523178170351265,95,0,-17,-37,-6,-4,-5,19
1523178170352266,-10,39,77,-4,-3,1,6,34
1523178170352266,20,-9,7,-12,-6,-8,-5,-11
1523178170366561,3,10,29,16,10,6,5,-22
1523178170366561,19,-5,-111,10,-6,-5,-3,11
1523178170373323,-40,-50,-74,27,3,1,3,-1
1523178170373323,35,11,33,-31,-4,0,-4,10
1523178170389362,-18,-5,5,-11,-2,-2,-5,2
1523178170389362,-29,10,-63,0,2,3,12,26
1523178170389362,-70,6,96,-7,2,-3,-7,-68
1523178170389362,6,-10,-103,-43,-5,-3,-12,-6
1523178170411421,44,-7,54,45,-5,-3,15,-7
1523178170411421,-66,-17,41,14,2,2,-4,5
1523178170412424,-5,-24,-98,-11,-7,-3,-6,-4
1523178170412424,-17,-16,90,-13,5,1,2,3
1523178170433478,16,7,-27,9,-2,-1,-8,1
1523178170433478,18,-24,-8,29,4,0,1,-10
1523178170434480,50,20,86,3,2,0,-1,-1
1523178170434480,-43,-16,-98,-2,4,2,6,6
1523178170448519,64,23,26,24,-1,1,4,19
1523178170448519,-43,4,44,8,4,-3,-3,-27
1523178170449520,28,8,-23,-16,-3,0,0,21
1523178170449520,6,-4,-79,-15,-8,-4,-3,3
1523178170471578,-27,0,24,-8,2,-2,-1,-1
1523178170471578,29,6,-29,-30,-3,0,-2,0
1523178170472581,-13,17,9,65,7,3,-3,-2
1523178170472581,45,19,22,-28,-5,-3,2,-1
1523178170493638,-14,-15,75,-18,-11,-4,-5,6
1523178170493638,-24,2,0,5,-1,-2,-4,-29
1523178170494642,73,-8,-5,-5,3,1,0,21
1523178170494642,-22,28,-32,23,3,3,4,3
1523178170508677,6,-31,-68,-2,2,0,-2,-41
1523178170508677,8,8,80,-3,-3,-2,-2,-7
1523178170509680,3,2,-32,-57,-6,-3,-2,-17
1523178170509680,14,10,-4,53,6,1,0,6
1523178170531750,-22,7,39,7,-1,-3,1,13
1523178170531750,29,18,-19,-21,-6,-1,-2,0
1523178170531750,0,-5,-43,34,8,2,0,-4
1523178170531750,10,20,127,7,-5,-2,0,-13
1523178170553806,36,24,16,-64,-9,-3,-3,8
1523178170553806,-73,-47,-22,33,-5,-6,-5,-41
1523178170554805,19,13,53,64,4,-1,1,4
1523178170554805,-23,-15,17,-100,-3,-2,-4,-45
1523178170568846,-4,14,-28,53,5,1,2,-9
1523178170568846,93,-6,-18,0,-2,-3,-5,30
1523178170569846,0,-3,-6,-10,1,1,0,0
1523178170569846,-33,-17,-23,-15,-2,0,0,-23
1523178170591949,-19,-29,-7,14,4,3,4,20
1523178170591949,123,20,9,-56,3,0,2,15
1523178170591949,-19,10,-29,15,-6,-6,-11,-55
1523178170591949,45,-3,7,53,2,-1,0,49
1523178170614030,18,9,-80,-62,-6,-3,-5,-22
1523178170614030,-11,-18,42,9,2,2,0,-15
1523178170614970,-13,-7,-19,1,-4,-2,-2,14
1523178170614970,-6,-35,-16,9,1,0,0,33
1523178170629001,-44,3,3,2,-4,-7,-13,33
1523178170629001,-4,26,16,63,2,2,1,-1
1523178170630001,-6,4,-18,-92,-4,0,1,10
1523178170630001,70,-2,26,24,-6,-3,-3,-12
1523178170651082,9,-13,-18,-6,3,0,0,11
1523178170651082,49,16,36,13,0,-2,-1,-3
1523178170652059,-29,-18,-7,-8,-4,-2,-1,21
1523178170652059,-11,13,15,53,7,3,4,-13
1523178170674366,32,10,-31,-52,-1,-1,-4,-19
1523178170674366,-28,-12,19,8,-7,-3,-2,0
1523178170675124,40,13,23,23,2,1,2,-15
1523178170675124,-22,22,-127,-67,-4,-3,-1,5
1523178170696181,-60,-31,-10,34,5,5,4,-12
1523178170696181,28,2,-15,-48,-5,-5,-7,5
1523178170697185,37,-3,6,43,4,0,3,6
1523178170697185,-59,6,32,3,3,2,2,2
1523178170711225,104,11,2,0,-3,0,-2,-3
1523178170711225,21,2,45,1,-5,-1,0,21
1523178170712241,-71,-12,-24,-14,1,1,2,7
1523178170712241,59,-10,-36,-4,-7,-6,-10,-35
1523178170734329,5,0,3,17,4,0,3,-2
1523178170734329,-34,-20,-26,3,6,3,0,2
1523178170735280,59,3,-32,-28,-13,-5,-5,-5
1523178170735280,-23,14,82,46,5,3,4,26
1523178170756569,-14,-60,33,-16,3,1,-2,-56
1523178170756569,-2,26,15,-10,-4,-3,3,-9
1523178170757346,16,3,-36,1,3,2,-3,9
1523178170757346,-54,23,56,-23,-8,-5,-5,-31
1523178170771561,-7,6,42,70,5,3,4,-6
1523178170771561,61,-8,-3,25,2,-1,0,71
1523178170772380,28,12,3,-109,-10,-1,3,-38
1523178170772380,-48,-31,-37,102,6,1,4,-23
1523178170802680,49,35,51,-13,2,-2,-5,8
1523178170802680,-7,23,-3,-30,-10,-3,-1,-7
1523178170802680,-8,-30,7,60,3,-1,-3,-1
1523178170802680,9,-5,-59,-50,0,0,0,-11
1523178170816793,2,11,73,23,3,2,3,13
1523178170816793,-60,-4,24,35,6,2,-1,-8
1523178170817501,6,19,-39,-11,-5,-4,-3,10
1523178170817501,46,-30,-48,-22,-5,-2,0,21
1523178170831780,-42,-3,16,-3,-2,-1,-3,3
1523178170831780,2,11,-44,-47,-3,-1,-2,-12
1523178170832545,-13,-6,38,37,6,2,0,-1
1523178170832545,10,8,-22,12,0,-2,-2,7
1523178170854649,19,-4,-128,-17,-5,-1,0,-3
1523178170854649,-76,-34,64,-54,-4,-5,-10,-29
1523178170854649,47,29,-6,53,-2,-3,10,9
1523178170854649,-14,25,-19,-74,-5,-1,-3,3
1523178170876657,36,2,80,52,0,-1,-3,28
1523178170876657,-30,-21,-67,-11,5,7,12,6
1523178170877677,-59,1,15,32,4,-1,-10,-57
1523178170877677,4,2,86,-33,-6,-4,-4,8
1523178170890938,-13,0,-38,-17,-5,-1,3,-3
1523178170890938,0,-3,-6,29,3,-1,-2,5
1523178170898960,-23,-33,10,-41,-4,-2,-3,26
1523178170898960,-6,8,7,35,5,2,3,2
1523178170914017,-93,-26,-6,33,-4,-7,-8,-21
1523178170914017,29,5,15,-31,-2,-3,-3,-18
1523178170914766,2,-8,-30,-24,-3,1,4,57
1523178170914766,-27,31,21,32,4,3,3,22
1523178170936816,-33,-25,-70,-59,-6,-3,-5,6
1523178170936816,-9,0,4,84,0,-1,-1,-6
1523178170936816,65,32,69,-31,-4,-4,-6,23
1523178170936816,-43,-39,-48,-40,-10,-2,-4,21
1523178170950852,14,20,-48,27,4,-1,-8,-17
1523178170950852,12,1,31,-55,0,2,17,6
1523178170958875,-37,-12,-39,41,1,-3,-8,-13
1523178170958875,16,-22,-78,-36,-6,-4,-3,-8
1523178170973915,33,33,78,6,2,3,6,18
1523178170973915,-14,-32,-33,17,-5,-3,-13,-36
1523178170974917,-11,5,44,-14,-2,0,0,-5
1523178170974917,107,-8,11,18,1,0,0,-33
1523178170995972,13,1,-11,16,-2,-1,-19,2
1523178170995972,33,21,17,-74,-8,-4,-3,-53
1523178170996975,-8,5,-106,-18,-4,-2,10,-1
1523178170996975,15,-8,72,12,1,-2,-4,2
1523178171011013,-21,14,-20,6,3,-1,-2,0
1523178171011013,-16,-32,-90,3,0,-1,-10,12
1523178171019276,32,6,68,11,7,4,5,31
1523178171019276,-47,-5,-9,-15,-10,-7,-15,-76
1523178171034302,-4,-9,85,47,1,1,9,17
1523178171034302,-20,8,-55,-42,6,5,6,18
1523178171035104,-41,-6,2,-11,-7,-2,2,-21
1523178171035104,39,6,-17,54,6,2,1,35
1523178171057166,1,-6,92,-32,1,1,5,-14
1523178171057166,62,2,-69,-27,-9,-6,-4,9
1523178171057166,-51,-13,18,47,3,0,-4,-7
1523178171057166,-6,6,30,-31,-1,-1,1,4
1523178171071235,5,-11,-23,46,2,0,4,-45
1523178171071235,-5,19,6,-55,-3,2,0,-15
1523178171079265,1,-6,96,32,-3,-4,-8,-27
1523178171079265,6,7,-31,-25,-2,-4,-5,3
1523178171094243,-13,-43,-65,-52,-11,-4,10,-2
1523178171094243,-33,24,64,59,7,3,2,-24
1523178171095237,-27,-20,-25,3,2,0,-8,-7
1523178171095237,-2,-1,-34,18,-1,-1,5,11
1523178171116532,0,9,29,-28,-4,-1,-5,19
1523178171116532,21,21,5,21,-3,-3,-6,-63
1523178171124551,39,7,6,-27,0,0,3,43
1523178171124551,-16,1,33,11,1,-1,-6,-28
1523178171139682,64,9,-47,56,6,3,2,12
1523178171139682,-82,-28,8,-21,-2,-3,-3,52
1523178171140370,73,16,-47,-23,-15,-5,-4,11
1523178171140370,37,-8,73,-1,2,5,5,22
1523178171154652,-23,-18,-106,-19,0,2,2,13
1523178171154652,10,15,77,70,6,1,5,3
1523178171154652,-26,-24,-85,-13,3,-2,-2,-9
1523178171154652,-4,11,-21,-9,-3,-3,0,14
1523178171176505,60,12,5,-3,-6,-3,3,38
1523178171176505,-16,-22,26,-7,0,-1,-7,-9
1523178171177464,19,12,47,30,4,2,3,58
1523178171177464,-18,-28,5,-88,-5,-2,-5,-15
1523178171191496,-4,9,19,45,0,-2,-2,-4
1523178171191496,18,5,-21,-28,-2,-5,-6,62
1523178171199675,60,15,33,15,2,3,3,4
1523178171199675,-11,-19,-53,36,2,1,2,5
1523178171213800,-5,-9,32,-13,-2,-4,-11,-55
1523178171213800,17,8,14,12,1,2,7,56
1523178171214560,45,-15,39,-19,-5,-5,-2,-44
1523178171214560,16,8,-67,37,4,0,0,15
1523178171236903,-13,-20,-42,-94,-5,-1,1,-14
1523178171236903,-37,-11,-33,64,0,0,1,12
1523178171237621,48,9,-19,-1,1,-2,-3,15
1523178171237621,4,-2,16,30,-2,3,5,13
1523178171259677,42,17,38,-21,4,1,0,32
1523178171259677,-10,6,-23,-11,-5,-3,-3,-28
1523178171260679,-18,3,-44,24,1,-2,0,18
1523178171260679,-21,-3,-16,0,-1,-2,-5,-45
1523178171273954,-76,22,-11,-16,-4,-2,-1,-9
1523178171273954,-12,-27,-54,-2,-3,-1,-3,33
1523178171274722,-50,-4,-64,-39,-3,0,-2,-59
1523178171274722,25,5,7,27,5,1,4,10
1523178171296777,-49,32,92,83,7,-2,-8,-1
1523178171296777,22,-35,-67,-110,-13,-5,3,-45
1523178171296777,18,-5,9,47,4,-2,-2,-14
1523178171296777,-5,1,37,1,0,0,21,9
1523178171326854,-31,-2,6,-19,-5,-4,-5,-19
1523178171326854,32,19,22,67,8,5,2,8
1523178171327856,-22,16,23,-39,-3,-1,-2,-32
1523178171327856,-33,-2,-3,-40,-8,-4,-5,31
1523178171334101,23,-2,16,18,-2,-3,-7,-16
1523178171334101,28,28,71,26,2,4,22,54
1523178171334891,41,0,10,-29,-5,-4,-11,15
1523178171334891,-81,6,24,29,-2,-5,-8,-10
1523178171356303,46,-39,-105,-44,-2,0,4,16
1523178171356303,15,11,44,14,-1,-4,-8,0
1523178171356936,-50,6,25,13,4,2,4,-31
1523178171356936,4,11,74,-56,-3,1,4,11
1523178171379998,17,-53,-44,-23,-10,-4,-1,1
1523178171379998,7,29,118,50,6,1,-3,-8
1523178171379998,-24,-11,-47,7,-3,-1,1,0
1523178171379998,33,5,73,-19,2,-1,-8,2
1523178171394038,-54,13,-12,18,-1,-1,0,-6
1523178171394038,57,-14,-4,-4,5,-2,-6,2
1523178171395035,-67,4,-62,35,3,1,7,11
1523178171395035,22,1,-42,-49,-6,-5,-6,-2
1523178171416342,12,-15,110,-27,-1,2,6,23
1523178171416342,16,-22,-63,11,-6,-4,-7,-21
1523178171417100,25,15,46,3,0,-1,-1,15
1523178171417100,-17,-28,-57,27,2,-1,-3,-3
1523178171440318,21,8,27,9,-1,1,3,12
1523178171440318,-26,-8,-15,-35,-1,0,-16,-21
1523178171440318,61,7,14,4,-3,2,29,75
1523178171440318,-53,-18,-22,-4,1,0,1,2
1523178171454474,41,28,32,-10,-4,1,-10,-6
1523178171454474,-30,5,-25,-2,-3,-1,10,-9
1523178171455197,-58,-74,-61,-37,-1,-2,-11,-19
1523178171455197,78,13,27,40,0,-1,-4,27
1523178171476251,-82,2,-3,5,3,-1,-10,0
1523178171476251,-10,-3,-71,-4,1,2,9,6
1523178171477255,-17,6,-7,16,-2,-3,-2,0
1523178171477255,100,16,28,-32,-2,0,0,-16
1523178171500315,-53,1,-83,16,-1,-5,-13,-28
1523178171500315,-25,-7,62,-27,-2,-4,-50,-37
1523178171500315,-13,0,9,-61,-6,1,56,-35
1523178171500315,5,-15,5,21,-3,-4,-13,-20
1523178171514627,33,17,32,31,2,0,10,-2
1523178171514627,6,-15,-46,-12,0,-1,-2,-26
1523178171514627,29,6,12,34,7,4,-18,-10
1523178171514627,-52,9,28,32,3,1,1,-23
1523178171536705,101,7,-20,-112,-12,-7,8,32
1523178171536705,41,23,36,35,2,4,15,2
1523178171537425,0,-35,-33,12,-5,-8,-25,-41
1523178171537425,-29,7,-47,-15,2,2,7,7
1523178171559526,4,-17,37,43,4,-1,-7,16
1523178171559526,36,35,-33,-10,-3,-5,-12,-34
1523178171560477,8,15,42,-29,-1,0,8,27
1523178171560477,-25,-5,-16,17,2,-1,-6,-38
1523178171573568,51,4,10,1,1,1,18,33
1523178171573568,-61,-3,-6,-1,-3,-1,-2,-34
1523178171574511,14,2,38,18,-1,1,-11,10
1523178171574511,-13,-5,-8,6,-3,-1,1,0
1523178171596583,-54,12,-34,-33,2,2,-5,-17
1523178171596583,-38,-39,55,23,-3,-4,-10,-29
1523178171597581,8,10,2,26,0,4,34,25
1523178171597581,-4,-12,-68,-89,-2,1,3,2
1523178171619923,-13,-4,-16,45,-9,-4,-6,-32
1523178171619923,7,-9,-8,27,5,2,24,65
1523178171620638,-74,21,62,25,4,-3,-28,-63
1523178171620638,53,-30,-27,3,-8,-7,-23,38
1523178171633875,6,-26,38,17,2,3,17,-17
1523178171633875,-10,-24,-72,-46,-2,-2,-7,14
1523178171641942,9,4,26,-13,-2,-1,-9,23
1523178171641942,-5,30,71,16,-2,1,6,3
1523178171657110,-9,6,-21,-1,0,-2,-17,-16
1523178171657110,-22,-27,-21,8,-4,-2,8,3
1523178171657733,36,13,14,-26,-4,-2,-18,12
1523178171657733,63,3,-58,-41,0,-2,10,-40
1523178171679834,-3,17,-51,20,-3,-3,-10,8
1523178171679834,-47,4,25,8,7,4,20,-26
1523178171680793,16,-13,-12,-8,-5,-6,-7,-13
1523178171680793,12,19,-16,18,-3,0,-5,29
1523178171693835,-10,-32,5,2,-1,-2,6,-6
1523178171693835,19,-2,-97,-20,-7,-2,-6,-6
1523178171694836,-8,4,5,-29,-2,0,-3,36
1523178171694836,-51,-31,-11,41,-4,-4,4,-46
1523178171717097,32,31,63,16,3,-1,-3,17
1523178171717097,-13,16,39,-32,-4,-1,0,22
1523178171717097,24,-9,-18,41,2,1,0,1
1523178171717097,-24,-2,27,-6,3,1,-2,19
1523178171740238,-58,4,-90,-28,-6,-4,2,-10
1523178171740238,62,24,37,52,6,0,1,13
1523178171740965,-18,12,79,-25,6,4,1,-30
1523178171740965,7,-11,-50,-4,-3,-2,-8,15
1523178171754363,25,-1,55,-44,-5,0,4,-4
1523178171754363,-35,14,44,16,2,0,0,16
1523178171754993,-1,-29,-52,-2,-2,-2,-5,-24
1523178171754993,-23,11,88,40,3,-1,0,-3
1523178171776100,-3,-28,-31,-56,-2,2,3,18
1523178171776100,4,10,6,40,1,-1,-2,-2
1523178171777052,61,3,-95,-10,-3,-3,-3,10
1523178171777052,3,-12,6,-23,-3,-2,0,8
1523178171800290,35,29,-22,-26,-9,-4,-2,-10
1523178171800290,47,-24,72,7,-3,-4,1,-3
1523178171800290,-3,0,-19,21,5,-3,-20,-12
1523178171800290,42,14,16,56,3,-2,-2,-18
1523178171814425,-13,7,45,10,1,5,21,-1
1523178171814425,49,-9,-38,-26,-5,-2,-6,-59
1523178171815163,-29,1,-21,-40,-14,-8,-10,-4
1523178171815163,-35,-34,-51,37,1,-3,4,-12
1523178171837230,42,4,42,24,8,1,-6,-28
1523178171837230,13,2,23,-27,1,-2,-2,0
1523178171837230,-6,-10,-10,-27,-5,-1,6,24
1523178171837230,-54,9,5,40,0,-1,1,2
1523178171859328,23,4,22,-66,-3,-4,-6,2
1523178171859328,-15,1,-56,21,2,-1,3,11
1523178171860278,12,19,6,4,5,1,3,3
1523178171860278,0,8,-30,-27,0,0,0,4
1523178171873685,-10,-21,54,17,-7,-5,-8,28
1523178171873685,-10,7,1,-19,-3,-2,-6,6
1523178171881525,25,7,13,34,2,1,2,11
1523178171881525,49,-9,-11,-19,-3,0,-4,-56
1523178171896561,-4,-6,11,36,3,1,-1,12
1523178171896561,-38,-7,-45,35,-1,-2,-13,30
1523178171897383,12,-12,88,-40,3,2,9,6
1523178171897383,-4,8,43,-47,-9,-2,0,17
1523178171919723,-19,-4,-23,36,0,-3,-4,-18
1523178171919723,9,10,61,4,-1,1,1,28
1523178171920439,4,6,-128,37,3,-1,-4,-19
1523178171920439,-5,-14,87,-57,1,-1,0,8
1523178171933684,-5,4,-1,42,-2,-1,-1,-16
1523178171933684,-13,-7,-2,-62,-3,-1,0,5
1523178171941742,-5,5,22,32,-4,-2,0,-4
1523178171941742,14,1,-6,-7,3,3,7,43
1523178171956910,-45,-9,-16,26,3,-2,-9,11
1523178171956910,60,-4,-13,24,5,2,16,-18
1523178171957537,5,5,3,-82,-13,-4,-1,3
1523178171957537,-36,-6,-3,-21,-12,-7,-8,-16
1523178171979785,36,5,-26,5,9,3,2,25
1523178171979785,6,13,40,13,-1,0,-2,-16
1523178171980593,-47,-21,80,25,1,0,-1,-3
1523178171980593,40,17,-62,44,7,2,5,12
1523178171993630,-50,-4,2,-70,-7,-5,-16,-19
1523178171993630,10,1,14,3,-5,-3,13,4
1523178172001841,-26,0,-15,10,-4,-1,-2,3
1523178172001841,25,-4,3,-12,0,0,3,39
1523178172016871,31,-24,-41,22,-4,-1,-3,1
1523178172016871,-16,7,-21,-46,-3,-2,-8,14
1523178172017696,-11,-8,-35,13,-2,-1,-1,-8
1523178172017696,-13,-34,-59,-12,-3,-2,0,2
1523178172040025,-22,36,88,25,4,1,3,-1
1523178172040025,28,-25,-25,-40,-6,-4,-5,-38
1523178172040752,52,17,11,25,4,2,1,8
1523178172040752,7,-16,71,-11,-1,0,2,-15
1523178172053788,45,10,-27,3,-2,-1,1,0
1523178172053788,-38,5,39,36,0,0,-4,7
1523178172061813,62,6,12,-78,-10,-6,-5,-28
1523178172061813,8,2,14,33,2,-1,-5,-40
1523178172076853,3,0,-2,24,3,1,5,-6
1523178172076853,-8,0,11,8,1,1,1,15
1523178172076853,-23,-17,-43,-49,-2,0,-4,0
1523178172076853,-27,18,-22,11,-6,-4,-3,14
1523178172100194,38,-9,-12,-24,-3,-3,1,-47
1523178172100194,-25,12,5,15,1,-3,-8,-19
1523178172100914,-26,-9,4,3,3,-1,1,9
1523178172100914,14,12,9,-24,-2,-3,-4,11
1523178172113999,23,8,32,21,5,4,4,16
1523178172113999,-43,-22,-52,-76,-7,-6,-8,-33
1523178172122144,38,-6,13,72,-2,0,6,-23
1523178172122144,-24,23,-52,80,6,1,-10,-13
1523178172137008,11,9,-25,-98,-6,-2,15,-4
1523178172137008,11,-1,7,9,-7,-3,-1,16
1523178172137008,-39,-6,17,31,5,1,-2,11
1523178172137008,3,8,14,-13,1,2,-2,-14
1523178172160073,-85,2,-22,55,5,2,-1,39
1523178172160073,37,-5,14,6,4,3,4,26
1523178172160073,-24,10,-47,-60,-6,-4,1,-7
1523178172160073,56,2,14,-7,-5,-2,2,-4
1523178172190360,-63,-7,0,39,0,-1,-4,17
1523178172190360,90,14,31,-57,1,1,6,24
1523178172190360,-20,-21,-38,40,-4,-4,-11,-20
1523178172190360,-11,-5,16,-23,3,1,3,5
1523178172197199,18,2,-26,6,-1,0,-5,1
1523178172197199,-7,-3,32,19,4,2,0,7
1523178172197199,37,-1,60,7,6,2,0,-30
1523178172197199,-49,2,23,-53,-5,-4,-3,1
1523178172220342,18,23,-61,12,-3,-3,-2,-37
1523178172220342,-3,-45,-3,29,-1,-1,-2,26
1523178172220342,-51,-3,-33,-25,-1,-2,-6,-13
1523178172220342,-61,-8,48,-2,-6,-1,5,-9
1523178172242342,13,-22,-29,-23,-2,-5,-8,-18
1523178172242342,39,13,5,-1,0,-2,-5,-11
1523178172243291,49,-1,-40,29,1,-1,-2,-20
1523178172243291,69,8,12,35,5,-1,-9,20
1523178172256610,11,-13,44,-32,1,3,17,0
1523178172256610,-48,-10,-79,-3,-9,-5,-2,-14
1523178172257327,33,6,5,-10,0,-3,2,12
1523178172257327,-10,19,13,26,0,0,-4,-11
1523178172279392,32,-4,21,-17,-1,-3,-8,3
1523178172279392,-26,1,-3,27,-2,0,1,-3
1523178172280387,29,-7,24,14,2,3,4,38
1523178172280387,-33,16,10,4,1,2,3,-15
1523178172303451,-27,-22,-95,1,-8,-8,-11,-25
1523178172303451,-22,16,18,-81,-7,-1,1,-12
1523178172303451,27,9,17,26,0,-2,-1,25
1523178172303451,-2,-7,-9,2,4,2,1,11
1523178172316768,98,-10,0,28,0,1,1,15
1523178172316768,-9,23,30,-1,1,-1,-2,-41
1523178172317493,-12,5,19,-13,-5,-3,-10,-3
1523178172317493,-13,-16,-20,16,0,0,7,13
1523178172339838,47,-11,5,-50,-3,-4,-7,-33
1523178172339838,-29,-4,-32,20,-3,-4,0,-3
1523178172340555,-31,4,30,-1,0,0,-3,9
1523178172340555,45,3,53,56,3,-1,-1,11
1523178172362606,-23,-10,-76,-85,-8,0,4,8
1523178172362606,32,-29,20,-20,-9,-4,-5,18
1523178172362606,-42,-4,1,-35,-6,-4,-1,-24
1523178172362606,20,12,-13,0,-1,-2,-1,-4
1523178172376687,-18,-2,45,67,11,4,-8,-21
1523178172376687,-12,0,0,4,4,1,5,11
1523178172377648,8,24,53,23,2,3,6,-3
1523178172377648,-10,-41,-95,-60,-11,-6,-7,-18
1523178172399954,15,-10,61,18,2,3,0,29
1523178172399954,17,10,-19,-1,1,-3,-6,-13
1523178172400718,11,-6,17,-5,-6,0,4,19
1523178172400718,22,5,15,-3,-2,-5,-7,-8
1523178172422792,-100,-23,47,7,-3,-1,4,31
1523178172422792,20,-2,-46,9,-2,-1,-1,2
1523178172422792,-15,-10,-1,44,4,-3,-4,7
1523178172422792,103,-1,-4,-60,1,-1,1,8
1523178172436855,43,20,13,49,-3,0,3,14
1523178172436855,13,25,100,16,-1,-1,-4,14
1523178172436855,-22,-13,-94,-29,-2,-1,-4,-26
1523178172436855,-11,5,13,9,-1,-1,-1,-1
1523178172466887,-58,7,0,-13,-2,-2,-1,6
1523178172466887,-27,-1,13,29,5,2,1,-6
1523178172467893,18,-1,-3,16,1,0,-2,11
1523178172467893,-53,12,31,-40,-2,1,1,21
1523178172482138,-24,-20,-25,-19,-10,-5,1,23
1523178172482138,-2,6,31,17,3,1,-1,-17
1523178172482936,-3,-10,8,-2,0,-1,4,-3
1523178172482936,-6,-5,-42,20,1,-2,0,-4
1523178172497130,-68,-3,11,-5,0,-1,-4,-3
1523178172497130,12,3,-57,28,-4,-1,-3,-6
1523178172497130,25,12,51,-40,6,3,1,-36
1523178172497130,3,-21,-21,-14,-6,-2,-2,-14
1523178172520236,30,2,-18,-36,-8,-6,-4,-16
1523178172520236,-5,-7,2,12,-1,-2,-2,-1
1523178172520236,-24,3,-43,24,1,-1,1,9
1523178172520236,-19,2,37,25,3,0,1,-10
1523178172542086,21,32,77,-47,0,0,-6,-7
1523178172542086,64,-11,-38,-8,-9,-6,1,-30
1523178172543093,-3,-1,34,-8,-2,-1,-10,8
1523178172543093,-19,8,-105,-20,-5,-2,2,6
1523178172556305,16,10,34,36,0,0,0,-13
1523178172556305,-8,-12,-53,26,8,3,-2,14
1523178172557134,5,-1,-10,-72,-9,-4,-5,2
1523178172557134,-17,14,-3,29,1,-2,-1,-12
1523178172580237,-3,5,-3,15,3,0,-4,-37
1523178172580237,1,8,-44,-31,-4,-1,-5,-5
1523178172580237,1,-24,-1,-6,-2,-2,0,-10
1523178172580237,-5,-16,46,4,-1,-1,-4,9
1523178172602531,35,-5,-35,-7,-4,-4,0,24
1523178172602531,26,14,33,28,0,-1,-2,-22
1523178172603249,26,-25,19,-28,-4,-2,3,21
1523178172603249,38,0,-3,18,0,1,1,-6
1523178172616285,0,-2,1,18,4,2,0,21
1523178172616285,-23,-14,-66,-24,-2,-2,-4,2
1523178172617284,-2,14,36,18,-2,0,6,12
1523178172617284,-19,-8,49,10,2,2,-2,-6
1523178172639588,24,7,-11,-27,-2,-1,0,-28
1523178172639588,-50,-12,-21,-10,-5,-4,-4,19
1523178172640353,24,4,22,-13,-2,-2,0,-10
1523178172640353,71,25,-13,4,-2,-1,-1,37
1523178172662618,36,-3,-35,-10,-2,-2,-3,-21
1523178172662618,53,-10,8,10,4,1,2,9
1523178172663407,46,26,91,22,-5,-3,0,57
1523178172663407,4,13,-14,-33,-4,-2,-2,-47
1523178172676447,12,-17,-78,-3,-2,-1,-4,0
1523178172676447,-42,-14,7,-12,1,0,1,13
1523178172677444,49,-5,-24,26,5,4,6,6
1523178172677444,-11,-1,-12,-11,0,1,3,-17
1523178172699729,-24,7,30,4,-5,-4,-6,13
1523178172699729,-10,4,41,-29,-2,1,2,1
1523178172700512,-13,-7,-88,30,0,-1,-3,-13
1523178172700512,-43,-8,41,-19,-3,-2,-3,-10
1523178172722816,-17,10,35,28,3,0,2,-4
1523178172722816,13,1,8,34,2,1,1,-7
1523178172722816,61,2,38,-74,-5,0,-4,-1
1523178172722816,37,-4,-31,33,-5,0,-2,12
1523178172736823,13,6,0,-1,2,-1,0,3
1523178172736823,4,8,39,11,2,0,-1,7
1523178172737607,-89,-1,-115,-9,-2,-2,0,-25
1523178172737607,50,3,44,-23,0,-2,-6,-7
1523178172759668,-25,-7,17,-28,-3,-2,1,17
1523178172759668,-57,-28,42,-21,-7,-2,1,-1
1523178172760665,-10,33,4,35,4,-1,-3,-1
1523178172760665,-36,-36,-94,-23,-5,-5,-3,-35
1523178172781952,27,14,51,42,3,0,0,38
1523178172781952,23,0,-22,-42,0,0,-3,-18
1523178172782741,33,-1,22,32,-2,1,1,2
1523178172782741,-73,-1,-4,4,1,-1,-1,6
1523178172795808,14,-1,5,38,3,0,-1,-11
1523178172795808,-35,-3,-64,-45,-2,0,-3,-32
1523178172803996,-10,-7,9,-2,-1,-1,-2,3
1523178172803996,32,-5,50,22,-5,-3,1,27
1523178172819877,-1,-13,-38,6,-1,-1,0,-20
1523178172819877,-12,17,31,28,4,-1,0,14
1523178172820826,-2,-9,-7,10,2,0,1,-21
1523178172820826,-2,-7,-46,-53,-5,-4,-8,-45
1523178172841935,11,-6,14,29,-1,1,0,-2
1523178172841935,-56,-6,-17,-1,0,-1,-1,5
1523178172842889,-2,2,18,4,-2,-2,-5,-13
1523178172842889,19,-12,-4,27,2,0,3,24
1523178172856272,-27,5,-1,-37,-4,-3,-1,-3
1523178172856272,24,3,-33,46,3,1,0,-2
1523178172864147,-41,-17,-44,-108,-10,-5,1,7
1523178172864147,-47,38,40,80,-4,-5,-4,7
1523178172880224,42,-1,-97,-28,1,1,2,-13
1523178172880224,-1,6,41,20,-3,-4,-2,-10
1523178172880224,-38,19,29,80,10,3,0,7
1523178172880224,5,-29,16,-69,-1,2,1,8
1523178172902333,-22,4,-8,-21,-6,-5,-6,-25
1523178172902333,-38,-3,34,6,-1,-2,1,11
1523178172903052,5,15,37,0,-1,-2,-1,-19
1523178172903052,-12,-8,-53,6,3,0,-3,3
1523178172916318,14,-8,42,35,5,4,2,-2
1523178172916318,22,-4,-12,-48,1,3,1,4
1523178172924356,-75,-18,24,9,-12,-9,-6,26
1523178172924356,62,8,7,2,4,1,0,-20
1523178172940256,-27,2,25,21,-5,0,0,-15
1523178172940256,-11,-10,-1,21,0,0,-1,16
1523178172940256,32,19,-22,7,3,1,-1,12
1523178172940256,17,-10,-20,-18,3,4,1,13
1523178172962414,2,4,-3,-4,-5,-3,-5,8
1523178172962414,-20,-4,30,0,1,1,0,-8
1523178172963206,45,3,47,37,4,0,-2,-2
1523178172963206,12,4,-81,-81,-6,-1,0,20
1523178172976246,-29,4,28,22,-3,-2,0,-7
1523178172976246,40,5,-6,3,-3,-3,1,13
1523178172984259,12,-14,-21,-5,2,2,-1,6
1523178172984259,-24,10,32,45,0,0,2,6
1523178172999537,28,-4,42,-29,-3,-1,2,21
1523178172999537,9,-25,-44,-14,-3,-2,0,-19
1523178173000304,-17,9,66,10,1,0,0,-13
1523178173000304,35,-10,-66,-4,-4,-2,-1,-4
1523178173022620,40,-9,-38,-14,0,0,2,18
1523178173022620,65,24,47,28,0,2,0,6
1523178173023365,-71,-34,-16,-19,-3,-1,-2,0
1523178173023365,-38,0,35,3,-2,-3,-2,-3
1523178173036398,-28,7,-5,-5,0,2,-1,-31
1523178173036398,79,13,-18,-1,-1,-2,-2,-8
1523178173044419,-40,-6,-38,0,-2,1,3,-11
1523178173044419,48,7,58,14,2,0,-1,17
1523178173059467,-72,-12,-46,-3,-1,-1,-5,-37
1523178173059467,47,15,24,-4,-2,-2,10,40
1523178173060466,-81,-23,-58,-19,-2,-4,-6,-26
1523178173060466,19,-3,17,9,-2,0,-1,6
1523178173082667,63,-7,-7,7,2,0,-1,-7
1523178173082667,-20,-1,-20,-13,-1,-2,-4,-5
1523178173082667,42,3,-5,0,-1,-2,1,1
1523178173082667,-19,2,-43,2,-3,-3,-3,3
1523178173104842,-6,17,36,-16,-2,-3,-2,11
1523178173104842,-34,-18,49,19,1,0,0,14
1523178173105587,41,20,-21,21,2,0,0,-18
1523178173105587,-16,-32,-20,-64,-2,2,3,-3
1523178173119935,-40,4,6,11,-4,-5,-3,9
1523178173119935,5,2,-15,-12,-3,-3,-3,-3
1523178173120630,4,6,-1,8,0,-1,-1,15
1523178173120630,-7,8,62,27,3,1,2,1
1523178173141680,101,-18,-80,-21,-1,0,-1,-3
1523178173141680,-27,17,-9,-13,-5,-3,-3,-13
1523178173142685,-41,-44,-6,37,0,-1,1,1
1523178173142685,25,15,12,-60,-5,-5,-2,-14
1523178173165033,29,4,24,24,-4,-3,-3,20
1523178173165033,10,0,-14,5,0,1,-1,-8
1523178173165751,4,-3,-5,-3,1,1,2,3
1523178173165751,15,15,20,30,4,-1,0,-7
1523178173177773,-38,-6,-44,-14,-2,-1,0,5
1523178173177773,7,-8,-20,-3,0,0,-1,-5
1523178173187079,32,16,10,-24,-5,-2,-3,6
1523178173187079,-16,-9,-5,21,-1,0,-1,-4
1523178173202027,10,39,52,-10,1,1,0,5
1523178173202027,-63,-53,16,-4,-3,-2,-2,-14
1523178173203850,-26,-17,-65,-19,-2,-2,-4,-20
1523178173203850,61,16,27,33,3,2,0,13
1523178173224951,-36,-3,-35,-1,2,2,4,31
1523178173224951,-11,10,-34,-24,-2,0,-3,-27
1523178173225901,18,-9,98,9,-1,-1,-2,14
1523178173225901,-36,-5,-3,8,1,-1,0,0
1523178173238990,8,-7,19,-18,2,0,0,0
1523178173238990,25,13,8,12,-3,-1,-2,9
1523178173246957,17,1,-38,-22,-1,0,0,4
1523178173246957,-22,9,-5,24,1,-2,-1,2
1523178173262205,56,11,22,8,2,1,-2,-7
1523178173262205,40,-21,-22,-21,-6,-3,-5,16
1523178173264004,69,27,36,-1,-3,-3,0,-8
1523178173264004,-31,-9,13,5,2,2,2,-4
1523178173285058,42,5,12,-1,-2,-1,-1,-11
1523178173285058,18,14,3,3,0,0,0,25
1523178173286067,12,6,-22,26,1,0,1,-10
1523178173286067,-24,-6,-19,-59,-7,-2,1,26
1523178173299340,-82,-12,-29,-9,3,0,2,-9
1523178173299340,34,9,83,31,0,-4,-3,-8
1523178173307118,-3,1,-11,-24,-3,-2,0,19
1523178173307118,28,-1,11,17,-2,-3,-7,-23
1523178173322414,-37,-14,-14,7,-2,-1,6,-6
1523178173322414,-12,14,1,-7,0,-2,-2,-8
1523178173324162,-13,-1,24,-6,1,0,-1,0
1523178173324162,-64,-19,-71,6,-4,-3,-4,-6
1523178173344226,76,7,48,-11,-2,0,-5,-5
1523178173344226,13,-7,-14,10,1,1,1,-2
1523178173346222,5,3,14,-14,-4,-2,1,-1
1523178173346222,-16,6,0,8,2,2,3,2
1523178173358266,-7,13,73,10,-3,-3,-6,-27
1523178173358266,-49,-11,-52,5,0,-1,-1,4
1523178173367284,26,3,-46,-41,-3,-1,-3,-5
1523178173367284,-11,1,45,9,1,-1,0,7
1523178173382526,-43,-31,-8,6,2,2,4,13
1523178173382526,42,-2,-19,-5,-3,-3,-4,-32
1523178173383320,-5,-2,-1,40,4,0,0,-10
1523178173383320,-24,6,-2,-25,-2,-1,-1,14
1523178173405379,6,-2,-13,-29,-10,-5,-7,9
1523178173405379,-7,7,-22,8,4,2,2,0
1523178173406388,-10,-19,-10,-12,-4,-3,-1,15
1523178173406388,49,2,3,17,-2,-2,-4,-4
1523178173419609,-13,0,26,13,1,0,2,-1
1523178173419609,-4,-4,-15,-19,-3,-3,-5,9
1523178173425433,0,25,59,4,-3,-3,0,28
1523178173425433,37,9,54,17,1,-1,1,-25
1523178173442482,-31,2,-26,-13,-5,0,-2,5
1523178173442482,-45,-24,-25,-14,-2,0,3,27
1523178173443479,4,8,4,-8,-1,-2,-5,-28
1523178173443479,77,3,-15,-2,-3,-4,-1,32
1523178173464827,-14,-15,-15,20,4,-2,-3,-9
1523178173464827,-10,15,3,-8,-1,0,1,-5
1523178173466546,-18,0,-10,2,0,1,-3,-8
1523178173466546,-26,-14,-15,-1,-2,1,0,-7
1523178173478619,19,-10,14,4,0,2,1,0
1523178173478619,14,20,36,5,-1,2,3,33
1523178173487599,-13,-37,-101,-32,-6,-4,-7,-1
1523178173487599,52,-4,66,4,-2,-3,-2,-9
1523178173502687,-29,-4,-52,10,3,0,1,4
1523178173502687,18,-3,10,-11,0,1,1,3
1523178173503649,3,7,7,20,1,-1,1,1
1523178173503649,2,-2,-50,-20,-4,-1,0,0
1523178173524748,51,-16,-5,15,-2,-1,-2,18
1523178173524748,-30,1,-6,-22,-3,-3,-3,-14
1523178173526701,9,13,35,15,-3,0,-3,2
1523178173526701,-35,-14,5,-2,1,0,-1,-10
1523178173546999,-29,-9,9,1,2,0,0,-9
1523178173546999,20,-1,-62,5,-1,-2,-5,-2
1523178173548759,-9,-13,-14,-10,-1,-1,8,-14
1523178173548759,-14,-13,-15,12,-3,-3,-7,-41
1523178173562797,-19,28,35,-10,-2,-1,-3,11
1523178173562797,-22,-22,5,3,-1,0,-2,-10
1523178173563802,-6,-3,-16,-3,1,-1,-3,-7
1523178173563802,-11,16,6,11,1,0,4,30
1523178173585133,14,-15,-26,-5,-5,-5,-6,-28
1523178173585133,66,2,16,-3,2,0,1,-18
1523178173585860,-69,3,17,-2,-3,-2,-2,-3
1523178173585860,19,12,30,4,2,3,1,-1
1523178173598103,-29,-18,-32,-7,-4,-2,-3,-15
1523178173598103,3,8,18,2,-1,0,0,-10
1523178173613202,88,7,-8,-3,-1,-1,0,11
1523178173613202,13,-13,-30,1,-1,0,3,2
1523178173622249,-52,24,2,-13,-3,-5,-6,-3
1523178173622249,69,13,7,5,-1,-1,-1,-1
1523178173623960,8,8,13,0,0,2,2,12
1523178173623960,-14,17,-9,-3,0,-3,-4,-17
1523178173647023,-8,-39,-21,-1,1,2,4,-4
1523178173647023,-18,-3,-21,-2,-2,-3,-3,-8
1523178173648029,22,3,32,4,2,3,0,-15
1523178173648029,-96,-6,-47,-7,-2,-1,0,24
1523178173667074,59,13,-13,2,0,-2,-5,20
1523178173667074,-56,4,20,-5,-5,-4,-3,-2
1523178173669285,-25,-20,-11,-1,-2,-2,1,-9
1523178173669285,60,0,6,1,0,0,-1,7
1523178173682207,-28,19,39,-4,-1,-2,0,-5
1523178173682207,-11,-10,-12,3,1,1,0,8
1523178173684117,16,2,-7,1,0,-1,-2,7
1523178173684117,-40,-4,17,1,-2,-1,1,21
1523178173705457,71,26,-1,6,3,1,2,4
1523178173705457,-47,-34,23,-5,-5,-3,1,10
1523178173706178,-26,6,47,1,0,-1,-2,-11
1523178173706178,53,-5,-49,-5,-2,-1,-3,-6
1523178173718531,-11,0,9,3,0,2,2,-6
1523178173718531,7,9,-9,0,2,2,4,4
1523178173727232,-53,-14,-15,-6,-7,-4,-5,3
1523178173727232,9,3,-14,0,1,-2,-4,11
1523178173742271,12,4,46,-3,-2,-1,-1,3
1523178173742271,-19,-3,-56,0,-1,0,1,-7
1523178173743554,0,4,42,2,2,-1,-2,-8
1523178173743554,-6,8,25,-3,-2,-3,-3,-9
1523178173764331,36,-10,-56,-7,-3,-3,1,-5
1523178173764331,56,5,4,-1,-1,-2,-6,-10
1523178173766338,18,5,2,0,-3,0,1,-3
1523178173766338,-50,-4,29,2,2,-1,-1,11
1523178173778748,5,-17,14,3,2,3,0,0
1523178173778748,-20,-1,6,-4,-4,-4,-1,10
1523178173787396,24,-2,-4,-3,-2,-2,-2,-1
1523178173787396,-7,2,10,-2,-1,1,3,-10
1523178173802787,3,-21,26,1,-1,-2,-2,24
1523178173802787,20,8,4,3,-1,0,-1,-9
1523178173804460,56,-11,10,-5,-2,-2,0,9
1523178173804460,-13,8,19,-2,-2,1,-2,0
1523178173824493,2,1,-25,-3,1,1,2,-9
1523178173824493,-21,-21,2,-1,-1,-2,-4,-7
1523178173826497,102,2,-55,-3,0,-1,3,29
1523178173826497,50,5,31,0,-3,-4,-4,-47
1523178173838858,-14,-12,-36,-1,-1,0,0,-2
1523178173838858,98,20,33,5,0,1,7,70
1523178173847556,31,4,-17,-6,-2,-1,-7,-56
1523178173847556,0,-30,-73,-6,-2,-1,0,-5
1523178173862875,-12,25,26,3,0,-3,-2,-6
1523178173862875,0,-1,-13,0,1,0,0,0
1523178173863599,-38,0,18,3,0,0,0,11
1523178173863599,-29,2,-5,-4,-2,-1,0,-16
1523178173884974,68,22,16,5,-2,0,0,15
1523178173884974,-44,-40,-39,-5,-2,-1,-5,-25
1523178173885654,-51,2,12,-4,-5,-3,-1,11
1523178173885654,37,-6,3,4,1,0,1,-5
1523178173897997,2,-5,-15,-5,-2,-1,0,2
1523178173897997,-12,16,54,4,0,1,0,-10
1523178173907039,-31,-6,-64,2,2,4,2,4
1523178173907039,28,-8,-10,-8,-2,-1,0,35
1523178173922789,3,6,31,4,-5,-4,-1,-14
1523178173922789,24,23,-30,-2,-2,-2,-4,-9
1523178173923755,10,-3,8,3,0,-1,-1,1
1523178173923755,-83,-15,-70,3,4,3,2,6
1523178173945135,67,20,-15,-8,-9,-8,-7,-30
1523178173945135,-27,-6,23,0,-1,-2,-3,-2
1523178173945813,40,0,9,3,2,0,1,4
1523178173945813,6,3,5,-2,-4,-2,-2,0
1523178173957847,-48,-20,-19,-3,0,1,-1,1
1523178173957847,9,20,-12,1,-5,-3,0,7
1523178173967211,-4,-21,-41,-7,-5,-6,-6,-5
1523178173967211,26,8,92,2,0,1,-1,-10
1523178173982194,-30,1,23,-3,-1,-1,-2,-2
1523178173982194,-40,-3,42,2,0,1,3,17
1523178173983917,-6,-1,-97,-4,-1,0,-1,-17
1523178173983917,-2,10,85,5,-3,-2,-3,-17
1523178174005296,-106,-21,-37,-16,-2,-3,-1,6
1523178174005296,4,3,20,6,4,3,3,-4
1523178174006976,75,-18,-26,-7,-1,0,2,17
1523178174006976,16,-8,29,1,-2,-2,-5,-13
1523178174019045,12,-1,-19,4,2,1,-2,-2
1523178174019045,-7,3,-1,-5,-2,-2,-2,-23
1523178174027070,-9,-4,-18,-6,-2,-1,-3,-3
1523178174027070,22,-9,47,1,-4,-3,-1,20
1523178174042069,31,1,48,10,0,-1,-3,12
1523178174042069,-45,-12,-70,-27,-4,-3,-4,-6
1523178174044075,-11,16,43,8,1,0,-1,0
1523178174044075,-26,17,-60,0,2,-1,0,0
1523178174065290,29,-6,-2,0,-2,-2,-2,7
1523178174065290,15,-6,27,5,-2,-1,0,-7
1523178174066134,-27,4,8,-2,-1,0,-2,20
1523178174066134,-15,17,31,0,-2,-1,-2,-18
1523178174087507,-18,-4,-30,2,2,2,1,-3
1523178174087507,25,-7,-36,0,-3,0,-2,-23
1523178174089194,2,26,29,5,1,-1,4,13
1523178174089194,-27,-22,0,-18,-1,-1,-3,-24
1523178174102552,-24,2,-11,2,0,-2,0,22
1523178174102552,101,3,36,6,2,-2,-4,-10
1523178174104376,34,0,-48,-7,-5,-6,-8,27
1523178174104376,-3,-8,-2,13,2,0,3,9
1523178174124289,0,15,40,2,-3,-1,0,-6
1523178174124289,-61,3,-1,-26,-4,-1,-3,-1
1523178174126292,-60,-6,66,12,-2,-3,-2,-32
1523178174126292,44,-7,-89,-11,-4,-2,-1,13
1523178174147672,-58,-3,48,24,0,-1,0,-30
1523178174147672,28,2,-45,-5,4,1,-1,-24
1523178174149414,-48,3,114,1,-1,0,1,2
1523178174149414,19,0,-45,2,2,0,-1,-18
1523178174162682,7,-12,14,9,2,0,1,-7
1523178174162682,-38,2,-96,-11,-7,-5,-2,24
1523178174163393,-5,7,-10,-26,0,2,2,-2
1523178174163393,-5,-28,13,4,-3,-2,-1,-26
1523178174184747,2,5,-12,18,1,1,-1,13
1523178174184747,31,-20,45,-9,0,0,2,0
1523178174186455,23,6,-10,12,-6,-5,-8,20
1523178174186455,-15,4,-48,-3,0,1,3,27
1523178174206755,66,-15,-67,-19,-8,-7,-6,3
1523178174206755,-45,-19,20,7,-3,-2,-1,1
1523178174208511,-14,-1,28,-23,-2,-2,-2,-12
1523178174208511,39,3,13,40,0,-1,-1,-2
1523178174221811,-39,-17,-7,-34,-2,0,1,31
1523178174221811,31,20,59,21,0,-1,-2,-1
1523178174228844,-3,-42,-32,1,-1,0,-1,-19
1523178174228844,-73,25,-15,1,-2,-3,-1,-3
1523178174245854,18,0,70,4,2,3,3,0
1523178174245854,9,-27,-45,29,4,1,4,39
1523178174247619,-8,18,-22,-43,0,0,-2,-41
1523178174247619,6,-26,-7,-6,-5,-1,1,18
1523178174267739,91,-2,-53,-46,-5,-6,-9,-55
1523178174267739,18,29,90,53,5,0,1,15
1523178174268678,24,-13,-1,27,0,-2,-4,-33
1523178174268678,63,-12,-36,-9,2,-1,0,15
1523178174281707,-43,17,9,7,-1,2,3,2
1523178174281707,-26,0,-20,-29,-6,-5,-3,-13
1523178174288991,18,21,2,-5,-1,0,3,12
1523178174288991,-32,1,35,6,0,-1,-2,-9
1523178174305045,-6,-4,-32,22,3,1,-2,-12
1523178174305045,-10,11,3,-38,0,0,-1,-30
1523178174305773,36,-37,-64,2,-6,-3,5,13
1523178174305773,2,6,33,-18,-1,-1,-6,17
1523178174327883,-25,2,-25,21,0,0,1,-17
1523178174327883,25,14,-53,17,1,2,2,28
1523178174328832,25,-11,-17,-39,-3,-2,-1,-16
1523178174328832,-94,12,35,2,-3,-5,-4,-21
1523178174340865,29,3,-20,3,2,-1,-1,-2
1523178174340865,-15,8,57,-17,-3,-1,-2,-19
1523178174347881,-1,22,-5,30,1,-2,-5,-24
1523178174347881,14,-12,-7,-11,-4,-3,-3,9
1523178174364929,-13,-1,32,-1,-3,1,-1,15
1523178174364929,-34,-11,-25,-9,-1,0,-1,-16
1523178174365931,25,-3,15,29,3,2,2,10
1523178174365931,32,-2,49,-9,2,2,2,5
1523178174387287,32,1,7,-21,-6,-4,-1,-2
1523178174387287,13,-6,12,28,-2,2,0,7
1523178174388993,-80,-20,-6,-21,3,1,0,34
1523178174388993,104,16,-2,24,-2,-3,-2,-5
1523178174401277,-60,1,2,-10,4,1,2,-1
1523178174401277,69,4,-20,-2,-8,-8,-9,5
1523178174410049,-29,-7,-56,6,3,4,4,7
1523178174410049,-38,-7,-22,-20,-1,2,1,-2
1523178174424086,-42,17,1,23,0,-2,-5,-28
1523178174424086,9,-19,11,-22,-3,-2,0,-7
1523178174426089,-60,1,6,9,-1,1,-2,-2
1523178174426089,12,15,9,-20,-3,-3,-4,-7
1523178174447375,24,4,-24,16,0,1,1,10
1523178174447375,-22,9,40,-2,3,3,3,-6
1523178174449151,50,4,13,-10,-8,-6,-9,-4
1523178174449151,-4,25,-78,-13,0,-2,-3,-3
1523178174461424,-28,-41,19,19,1,0,1,12
1523178174461424,-26,-15,-61,1,0,1,2,-17
1523178174468204,22,9,42,6,0,1,4,9
1523178174468204,22,5,-5,-12,-1,0,2,-6
1523178174484245,108,-23,-54,-4,-5,-4,-8,13
1523178174484245,-56,-15,32,-11,0,-2,-3,-10
1523178174486253,23,9,14,30,2,0,0,-1
1523178174486253,-16,-1,10,36,3,2,1,-8
1523178174507307,34,-11,-27,-73,-6,2,2,-6
1523178174507307,6,16,-17,-38,-7,-5,-4,-15
1523178174508309,-44,-29,-33,22,3,-2,-1,-4
1523178174508309,-5,12,24,27,0,-2,-2,2
1523178174521613,-99,1,12,27,3,1,7,34
1523178174521613,65,10,-1,-12,1,-1,-5,-7
1523178174528686,3,17,-19,-16,-1,1,0,-1
1523178174528686,62,-20,-2,-2,-2,-2,-1,-6
1523178174544654,8,-1,66,-3,0,0,-2,-2
1523178174544654,-1,13,-78,13,-3,-2,-2,1
1523178174546411,22,5,-64,2,4,2,2,-5
1523178174546411,-7,-15,68,-16,-1,1,3,6
1523178174567655,-1,7,12,-4,-2,-2,-3,-18
1523178174567655,-6,20,21,11,1,2,4,17
1523178174568472,-9,-3,56,-12,-5,-3,-6,-44
1523178174568472,-61,-25,-81,20,-1,-3,-5,-15
1523178174580757,4,7,66,-39,-5,-5,-4,4
1523178174580757,1,-9,-16,27,-3,-5,-2,5
1523178174589523,-3,20,46,0,2,1,3,-20
1523178174589523,-70,-11,11,-20,-1,-1,-5,8
1523178174604958,-29,12,-6,42,4,1,0,-10
1523178174604958,-23,-22,11,-22,1,3,2,3
1523178174606569,22,19,38,-29,-9,-6,-2,19
1523178174606569,33,7,-10,-5,2,-1,0,6
1523178174627812,-5,-25,-56,16,-3,-1,0,-3
1523178174627812,32,3,31,20,3,1,2,15
1523178174628629,-22,-7,14,-18,3,0,3,5
1523178174628629,23,-18,-60,0,-5,-4,-4,-18
1523178174640662,3,1,-9,-3,-4,-3,-5,15
1523178174640662,-13,-13,8,-10,0,1,0,0
1523178174649683,89,-26,1,-5,-7,-3,-2,14
1523178174649683,-61,8,31,-23,-2,-1,0,-6
1523178174664722,32,19,19,41,3,0,0,17
1523178174664722,-37,-23,-64,-52,-5,-4,0,-13
1523178174665726,5,14,-28,39,-1,-2,-5,-26
1523178174665726,25,4,9,-4,2,3,5,10
1523178174687790,-29,15,-6,-23,-6,-6,-5,-11
1523178174687790,4,18,50,34,1,-1,0,20
1523178174688789,-78,-6,-22,-15,0,0,-1,6
1523178174688789,22,3,-23,18,0,0,1,1
1523178174701216,25,-1,34,-22,0,2,2,-10
1523178174701216,24,2,16,13,-3,-2,-8,-67
1523178174709845,27,7,3,-13,-1,0,-6,15
1523178174709845,-8,-19,-7,12,-3,-2,2,-9
1523178174724885,32,13,-5,14,6,2,1,12
1523178174724885,-12,-2,31,-68,-9,-5,-7,-19
1523178174726138,-29,3,14,32,-3,-1,2,-9
1523178174726138,25,4,0,1,0,-3,-7,27
1523178174746943,-41,-6,-35,-14,0,-1,-2,19
1523178174746943,68,-7,-17,21,3,-1,3,16
1523178174748949,-60,-11,11,4,1,-1,-2,2
1523178174748949,-53,14,-38,-22,0,0,2,-2
1523178174761319,33,-7,-4,-2,-2,-2,4,-11
1523178174761319,-38,4,25,22,2,0,-3,15
1523178174770004,21,-10,20,-8,0,-1,0,7
1523178174770004,27,10,-16,2,-1,0,3,11
1523178174785246,2,36,14,-13,-2,0,-3,-15
1523178174785246,35,7,-42,-27,-9,-4,0,19
1523178174786051,8,16,59,-4,3,-1,-3,6
1523178174786051,-1,-6,15,3,-2,-1,-2,-15
1523178174807105,-1,-12,-25,20,2,1,-3,-13
1523178174807105,-16,3,25,6,2,1,1,6
1523178174809107,22,2,-46,-2,-4,-2,-2,-37
1523178174809107,67,-27,-57,2,0,0,-1,21
1523178174821413,-49,-23,1,-4,-4,-4,-2,-21
1523178174821413,-10,6,64,-34,0,-2,-1,2
1523178174830164,-10,-18,-26,37,2,1,3,4
1523178174830164,-46,16,48,-4,-2,0,1,-24
1523178174845306,97,8,-25,-9,-5,-5,-2,14
1523178174845306,-62,-23,-43,13,1,2,1,-2
1523178174846207,-8,9,6,-1,2,0,-1,1
1523178174846207,-1,17,39,1,0,0,-2,-8
1523178174867548,-41,-2,-47,-18,0,-1,0,3
1523178174867548,19,4,-24,22,-1,-1,-1,1
1523178174869276,-33,-1,30,-7,1,-1,-1,2
1523178174869276,42,-15,14,-21,-5,-5,-1,8
1523178174881411,16,-17,-30,1,-2,0,0,-3
1523178174881411,52,13,32,27,2,0,2,71
1523178174889621,6,14,34,-15,-3,-2,0,4
1523178174889621,42,-19,-55,-2,-1,-1,-2,-5
1523178174904629,-35,8,31,15,3,0,-1,-5
1523178174904629,36,14,61,-11,-4,-2,2,4
1523178174906368,29,-47,-59,-8,-4,-2,-3,22
1523178174906368,-9,7,67,2,0,-1,-1,-6
1523178174926542,8,0,-20,4,-1,-1,-1,9
1523178174926542,-28,-12,-16,14,-5,-1,-4,-16
1523178174934620,-20,-10,1,3,2,-1,0,0
1523178174934620,-12,12,19,-21,-4,0,-3,-12
1523178174940457,-52,-12,-4,-6,-3,0,-2,-45
1523178174940457,-45,-14,-34,12,4,1,-1,-5
1523178174949562,64,40,20,-2,-3,-5,-6,-13
1523178174949562,-41,-12,-6,36,3,1,2,28
1523178174964522,75,12,4,-42,-5,-5,0,32
1523178174964522,-21,-9,-7,-21,-4,-2,-2,-33
1523178174966527,2,-18,-61,3,-3,-1,0,1
1523178174966527,5,10,-18,4,2,-2,-2,17
1523178174987715,1,0,11,16,2,4,6,37
1523178174987715,-28,-19,24,18,5,-1,-1,0
1523178174988586,85,4,3,-62,-11,-4,-3,1
1523178174988586,-31,13,-4,10,-1,-1,-1,-11
1523178175009983,-64,-48,0,-9,2,0,-1,-19
1523178175009983,51,35,-5,20,0,-1,-1,8
1523178175011646,-37,-21,-39,0,5,3,3,-5
1523178175011646,-33,25,90,-37,-6,-4,-4,-7
1523178175024679,-15,14,-20,-5,-6,-3,-9,-16
1523178175024679,5,-47,-12,-4,3,1,1,2
1523178175026685,-34,10,19,33,3,2,1,0
1523178175026685,6,-6,-33,-4,1,0,4,-32
1523178175047011,21,1,-15,4,-2,-3,-7,-12
1523178175047011,3,3,30,12,0,1,-2,-2
1523178175048743,-92,-3,1,-32,-6,-1,-2,10
1523178175048743,-22,22,39,14,-1,-1,-2,-39
1523178175070103,26,-44,-54,-18,-1,-1,2,-6
1523178175070103,-55,-9,-9,-27,-3,0,1,-1
1523178175070805,-1,5,17,11,-1,-4,-1,8
1523178175070805,9,18,-55,7,-1,-2,-2,23
1523178175085166,-18,13,1,9,6,2,2,-5
1523178175085166,-10,14,37,1,-2,-2,-3,-15
1523178175085844,15,-7,-100,-6,-2,-1,-1,-27
1523178175085844,13,-29,-74,1,1,3,3,-1
1523178175106902,77,39,111,13,0,-3,-8,-8
1523178175106902,52,-12,-81,-25,0,0,1,10
1523178175108907,11,39,66,42,3,1,-2,-9
1523178175108907,-16,-37,-71,-44,-9,-3,0,32
1523178175130019,14,5,15,-5,-4,-3,-1,-2
1523178175130019,3,13,3,40,3,-1,0,9
1523178175130963,-35,-5,13,-45,-1,-2,-2,7
1523178175130963,-9,-2,-24,-3,-4,-2,-3,6
1523178175145336,-3,7,4,21,0,-1,-2,-18
1523178175145336,22,5,6,-1,-4,-4,-2,-4
1523178175146005,1,7,-1,2,1,2,-1,10
1523178175146005,11,-10,25,-5,2,1,-2,-13
1523178175167360,50,12,-27,3,-4,-3,-6,-18
1523178175167360,-76,-29,-9,7,-3,-2,-7,-43
1523178175169065,25,-11,-11,5,-1,-1,3,-16
1523178175169065,43,5,24,1,4,1,2,22
1523178175189440,5,-10,-30,0,-3,-1,1,22
1523178175189440,61,15,-41,-21,-5,-1,1,-29
1523178175191125,-36,11,14,19,-4,-3,-5,16
1523178175191125,-10,2,-28,19,4,1,-2,-10
1523178175204475,-34,-18,22,37,5,2,4,7
1523178175204475,-4,-13,-45,-61,-4,0,-1,5
1523178175211394,7,0,28,-5,-4,-3,-3,-36
1523178175211394,-30,-2,-8,23,0,-2,-2,-5
1523178175227479,-11,26,7,11,3,2,1,15
1523178175227479,-7,3,-5,-15,-4,-2,-6,-23
1523178175228223,-1,-28,23,3,-2,1,2,26
1523178175228223,51,-38,-16,-17,-2,-3,-2,-8
1523178175249591,-63,20,80,-1,-1,0,0,59
1523178175249591,11,12,-1,39,4,2,3,26
1523178175251283,101,4,-33,-57,-7,-2,-2,-10
1523178175251283,-14,8,22,13,-4,-2,-3,-35
1523178175264603,2,-17,-71,-17,-1,2,4,28
1523178175264603,-16,8,64,8,0,-3,-4,-9
1523178175271375,20,-1,19,26,5,0,3,17
1523178175271375,-13,15,13,-10,2,0,-2,4
1523178175287699,59,-10,-20,7,0,-2,-1,1
1523178175287699,-9,-9,-41,-10,-5,-4,-3,-36
1523178175289431,-40,-6,-18,-33,0,0,-1,-15
1523178175289431,1,8,9,-1,-8,-3,-3,16
1523178175309789,-26,-14,64,-14,1,-1,0,-43
1523178175309789,113,12,-95,27,0,-3,1,62
1523178175311446,-30,-5,13,9,3,0,0,25
1523178175311446,28,-9,13,18,-1,-2,-1,-32
1523178175323477,-21,-9,-38,-40,-10,-4,-1,1
1523178175323477,9,22,22,2,2,3,1,-6
1523178175330792,-40,-13,-51,-10,1,0,0,6
1523178175330792,26,36,82,31,-2,-3,0,16
1523178175347832,-1,2,-85,-13,-4,-3,-3,-19
1523178175347832,-66,-14,-30,-15,-1,-1,-4,-3
1523178175348544,43,-14,48,32,0,-1,-2,24
1523178175348544,-4,-6,-17,-28,0,0,-1,2
1523178175369891,4,-6,45,-2,-1,-2,-1,-3
1523178175369891,-20,-2,-6,26,1,0,4,-4
1523178175371604,39,1,19,-10,1,0,-1,-21
1523178175371604,0,-20,-84,12,-2,-1,-1,26
1523178175384702,-26,8,36,-34,-2,-2,-4,-36
1523178175384702,-37,6,82,49,4,-1,1,9
1523178175390661,-23,-9,-67,-41,-1,-2,2,36
1523178175390661,62,8,62,-13,-13,-6,-4,-1
1523178175406698,-16,11,12,38,6,3,4,20
1523178175406698,-11,-34,-35,-31,-3,0,-16,-4
1523178175408702,20,32,43,44,1,3,7,-29
1523178175408702,-25,6,-26,-5,4,-1,0,-5
1523178175429759,89,1,5,-9,-3,-2,2,15
1523178175429759,21,3,-13,-13,-1,0,-1,5
1523178175431833,-53,-18,8,10,-7,-3,-7,-11
1523178175431833,-3,15,5,-9,2,2,-1,9
1523178175444455,7,-49,-49,5,-1,0,-3,-41
1523178175444455,7,33,41,-1,1,-1,4,4
1523178175451388,-68,-11,-63,-1,1,1,0,3
1523178175451388,8,-5,16,-3,-4,-3,-1,-13
1523178175467386,-74,15,5,-25,-7,-2,-1,38
1523178175467386,114,4,-63,14,-2,-4,-1,-11
1523178175468492,-1,-3,21,1,4,2,7,10
1523178175468492,-36,-3,8,7,4,2,-2,5
1523178175490482,-39,26,-19,-10,-1,-2,0,5
1523178175490482,-48,-15,54,2,-4,-4,3,33
1523178175491449,12,-16,-91,11,-2,-2,-3,-10
1523178175491449,0,-5,-5,-1,2,-1,-2,-8
1523178175503790,78,14,34,-26,-2,0,2,0
1523178175503790,-103,-6,-45,-26,-1,0,5,-14
1523178175519721,57,-14,65,41,0,-3,-4,4
1523178175519721,-33,-7,-45,-49,-1,1,2,-6
1523178175527818,99,26,46,45,3,-1,-1,35
1523178175527818,1,-4,-13,1,1,0,-1,-11
1523178175528549,12,3,6,-57,-5,0,-2,-17
1523178175528549,-7,-21,-57,27,-2,-2,1,0
1523178175549898,-33,-5,50,6,1,0,1,4
1523178175549898,18,26,3,16,-5,-5,-7,-53
1523178175551610,17,-4,5,29,5,0,-3,-19
1523178175551610,28,1,68,-68,-8,-1,1,13
1523178175563642,28,-23,12,39,3,2,0,-10
1523178175563642,-35,-14,-3,-11,-2,0,-1,-4
1523178175572666,17,13,-7,-6,-3,-3,-3,-26
1523178175572666,14,-8,-62,32,3,0,-3,-9
1523178175587831,-30,8,64,7,-3,-3,-3,-9
1523178175587831,4,-8,-10,-14,3,0,0,14
1523178175588710,-3,6,12,-15,-5,-2,0,3
1523178175588710,-106,-31,10,13,-1,0,-3,11
1523178175610124,44,4,-55,-44,-5,-4,-9,-6
1523178175610124,19,2,31,23,0,1,4,14
1523178175610767,-27,-4,-2,-6,-2,-2,1,-4
1523178175610767,36,19,35,18,2,-1,0,-1
1523178175622843,-39,-13,-70,18,0,-2,-3,-36
1523178175622843,92,-3,58,-40,-1,0,0,7
1523178175632142,-51,-18,-95,1,-5,-2,-3,-3
1523178175632142,14,10,-18,-19,-1,-1,2,6
1523178175646863,-37,-31,-10,-3,0,-1,1,20
1523178175646863,73,16,19,56,2,-2,-2,-11
1523178175648868,13,17,-3,-24,0,1,1,12
1523178175648868,50,-4,57,-15,-3,1,0,-9
1523178175670226,-77,-2,-48,8,-1,1,0,-25
1523178175670226,-13,-22,-22,-1,-1,-2,-4,-11
1523178175670928,8,18,78,19,1,-3,-5,14
1523178175670928,11,-16,28,-12,-1,-1,0,-4
1523178175683229,41,-16,-56,-7,0,2,3,1
1523178175683229,-35,-12,19,-8,-5,-1,3,-4
1523178175692086,15,31,43,30,0,-5,-7,34
1523178175692086,-12,-17,-26,-8,-1,-2,-2,-15
1523178175707023,16,-10,-83,-11,1,1,2,3
1523178175707023,26,21,58,-7,-6,-5,-6,16
1523178175709028,38,20,-9,-9,-2,-2,-1,-74
1523178175709028,-44,-32,-34,31,0,-1,-4,-12
1523178175730359,-20,13,0,-1,-1,-2,-4,0
1523178175730359,-37,-11,-18,-18,-2,-2,1,8
1523178175731089,-36,-2,13,-5,1,1,1,18
1523178175731089,69,33,6,8,-1,-3,-5,-14
1523178175743377,32,16,56,1,1,1,0,-32
1523178175743377,-98,-19,-74,-23,-2,-1,-3,14
1523178175752143,41,-4,27,8,-4,-1,-3,4
1523178175752143,31,-3,1,-2,-1,-1,0,6
1523178175767484,-35,-6,-28,-5,-3,-2,-1,11
1523178175767484,71,8,30,-2,-2,-2,-2,2
1523178175768187,-2,4,-6,30,3,1,0,6
1523178175768187,-54,-17,-46,-16,3,1,0,-4
1523178175797502,-32,10,95,1,-7,-6,-2,-55
1523178175797502,31,-10,-19,-3,0,0,-1,56
1523178175798266,-20,1,-12,-20,0,0,-1,-7
1523178175798266,12,10,24,44,1,-2,0,-1
1523178175803566,17,7,-11,-13,2,2,2,11
1523178175803566,-13,-27,-13,-10,0,1,4,-2
1523178175812304,-69,-3,45,6,-2,-1,1,17
1523178175812304,-6,-1,-3,-8,-1,0,0,6
1523178175827620,-72,3,-16,-18,-2,-2,-4,17
1523178175827620,31,-20,-12,30,-3,-1,0,-12
1523178175828347,19,5,30,-41,-2,-1,0,10
1523178175828347,-27,2,-22,1,-3,-3,-3,-21
1523178175849692,35,5,40,4,-2,-2,2,53
1523178175849692,-12,18,35,3,4,1,0,50
1523178175851405,-6,-25,-69,-3,-1,0,-3,-9
1523178175851405,12,13,31,0,0,-1,-3,5
1523178175863543,19,-21,-45,10,-1,-1,0,5
1523178175863543,-10,31,-16,-12,1,-1,0,-15
1523178175872465,52,-5,38,21,-2,-1,1,-8
1523178175872465,21,10,-42,-11,-3,-1,-3,22
1523178175887801,96,-8,17,-22,1,0,-2,-5
1523178175887801,-49,-7,-73,-4,-3,0,-1,-39
1523178175888504,-12,6,28,12,0,-1,-1,-7
1523178175888504,-10,7,13,-11,0,-1,0,-14
1523178175909868,-47,-6,-14,15,0,0,-2,-4
1523178175909868,30,-8,36,16,0,-2,-4,8
1523178175911566,-4,-7,-70,0,-2,-2,-2,-4
1523178175911566,-5,3,29,-12,0,-1,-3,21
1523178175923599,-42,-8,33,5,-2,-2,0,-13
1523178175923599,-5,6,10,-14,-1,-1,3,7
1523178175932622,-14,-4,-51,4,-2,-4,-6,-3
1523178175932622,-5,15,57,6,-4,-3,-1,24
1523178175946660,41,-23,-79,-26,-3,-2,-3,-17
1523178175946660,-40,-4,39,-8,-4,0,-2,-20
1523178175948664,61,-19,-61,6,-4,-3,-2,-9
1523178175948664,-42,3,-1,-6,-3,0,1,-12
1523178175970047,-14,25,25,19,0,-3,-2,3
1523178175970047,7,-27,-26,-6,2,0,1,-16
1523178175970725,-30,-7,5,-10,1,1,2,-1
1523178175970725,25,-1,-61,-3,-3,-1,-1,-14
1523178175991779,-5,23,56,-8,-6,-3,-6,-19
1523178175991779,-16,-36,-69,1,-1,-3,-2,-3
1523178175993784,57,4,9,10,5,4,7,37
1523178175993784,-62,-36,-10,-7,1,-2,-2,-32
1523178176005861,72,11,-1,4,0,1,2,16
1523178176005861,17,29,1,11,1,0,-1,-25
1523178176014841,35,-7,18,-10,-2,-1,-4,-4
1523178176014841,-4,10,19,-16,-4,-2,-2,5
1523178176029881,-26,-7,-29,13,-1,0,0,5
1523178176029881,-64,1,5,-7,-1,1,-1,-29
1523178176030899,35,3,43,18,1,-2,-3,0
1523178176030899,-13,-2,14,1,3,1,1,2
1523178176052232,-15,-16,-4,-27,-4,-2,-4,-34
1523178176052232,28,11,-9,16,-1,0,-1,7
1523178176053945,0,9,80,-10,-2,-1,4,6
1523178176053945,-2,0,-14,23,-2,-2,-3,4
1523178176067302,70,8,-6,-69,-3,-2,-3,-19
1523178176067302,-11,-5,33,11,-5,0,2,1
1523178176068984,-29,10,-42,-14,1,2,0,-9
1523178176068984,-4,-11,10,21,-2,-3,-6,-20
1523178176089037,-8,0,39,55,4,0,2,15
1523178176089037,-2,-3,15,-52,-3,-1,-2,6
1523178176091042,-18,24,27,15,-3,-2,2,-3
1523178176091042,127,14,-15,-35,-2,-1,-1,16
1523178176112434,-39,-10,-76,9,-1,-2,-1,-7
1523178176112434,83,16,33,4,5,0,2,19
1523178176113102,-10,-7,-6,28,0,2,1,6
1523178176113102,-11,-7,19,-17,2,3,3,-2
1523178176127173,-26,-4,-13,33,-1,-4,-3,8
1523178176127173,23,8,5,-80,-1,1,-1,-5
1523178176133284,-13,-10,-33,30,-6,-4,-3,-19
1523178176133284,-5,6,15,20,1,-2,-1,15
1523178176150257,-15,5,47,-4,3,5,1,-11
1523178176150257,-40,-25,-4,44,3,1,0,13
1523178176151206,-18,5,-72,-37,-1,0,-1,-26
1523178176151206,15,0,3,-4,-1,-1,-1,2
1523178176172299,-31,-7,14,14,1,0,0,0
1523178176172299,114,5,48,-4,-1,-2,-3,-22
1523178176173263,-12,-12,-86,-16,0,-2,0,4
1523178176173263,-14,5,34,19,-5,-3,1,-1
1523178176186625,36,8,-9,-23,0,0,-1,3
1523178176186625,-75,-27,6,13,0,-1,2,8
1523178176193641,39,-3,18,-28,-1,0,-3,-18
1523178176193641,-30,9,-7,24,2,-1,-1,-39
1523178176210359,59,-18,31,-2,-3,-3,-4,5
1523178176210359,-28,9,-4,0,-4,-3,-2,-20
1523178176211365,-18,4,-14,11,5,2,1,19
1523178176211365,72,-18,66,-13,-2,0,3,15
1523178176232722,-90,-5,-84,-16,1,1,1,-3
1523178176232722,5,23,56,31,-8,-5,-7,-6
1523178176234450,48,-5,18,2,0,-1,-2,1
1523178176234450,53,-1,-37,-15,0,2,3,20
1523178176246457,-40,0,6,-4,-1,-4,-4,-23
1523178176246457,-31,-2,-16,-2,1,2,-1,14
1523178176253808,14,0,18,9,-1,2,8,49
1523178176253808,-7,-13,-79,-1,0,-1,-7,-16
1523178176269862,-1,13,63,-13,-3,0,1,14
1523178176269862,-21,6,-75,27,2,1,2,11
1523178176271524,26,25,73,-42,-1,-4,-6,-4
1523178176271524,-82,-12,-57,10,0,0,1,-1
1523178176292862,67,-11,17,30,-1,-1,0,-1
1523178176292862,39,9,-23,-30,2,1,1,4
1523178176293581,-20,-13,-2,1,-3,-2,-8,-10
1523178176293581,17,35,-1,11,-3,-4,-1,21
1523178176306616,-8,-39,-1,-37,-2,-4,-3,4
1523178176306616,-1,18,-29,-9,-2,-1,0,10
1523178176313911,-20,-22,-43,5,0,-2,-4,-32
1523178176313911,32,0,-2,41,-1,-3,-7,-39
1523178176329678,-17,2,7,-22,2,3,3,3
1523178176329678,23,-15,13,8,-1,0,-1,-3
1523178176331797,17,5,-2,-18,-6,-3,0,-14
1523178176331797,29,3,-18,-12,4,2,2,4
1523178176352775,5,10,48,26,-3,-4,-3,0
1523178176352775,11,18,-11,-10,-2,-2,-3,-6
1523178176353742,7,-30,0,5,-3,-4,-3,22
1523178176353742,31,4,18,14,-2,-3,0,4
1523178176367093,-16,16,5,-70,-5,-1,-2,-3
1523178176367093,-32,11,29,35,0,0,0,-5
1523178176372791,71,7,31,2,-3,-3,-2,35
1523178176372791,-47,-3,-37,3,-5,-3,-4,-14
1523178176389839,-9,-3,-55,6,3,2,1,20
1523178176389839,34,-21,66,-2,-4,-3,-2,-30
1523178176390838,-23,23,21,13,0,-2,-2,-9
1523178176390838,2,-28,-5,-27,0,-1,1,5
1523178176412179,31,26,15,6,3,1,3,-19
1523178176412179,-6,-4,-31,0,4,4,1,7
1523178176413901,-45,-10,12,-18,-4,-2,-2,-6
1523178176413901,31,3,30,8,-2,-2,-1,21
1523178176427148,-31,-29,-20,-6,-4,-2,-1,14
1523178176427148,36,19,18,6,0,-2,0,-3
1523178176433250,-43,-4,-10,-4,-1,0,-2,-23
1523178176433250,-21,-4,-65,-13,-1,2,1,-1
1523178176450344,1,-7,11,53,3,-1,1,9
1523178176450344,-30,-7,-16,-84,-7,-5,-2,5
1523178176451001,77,29,-45,50,0,0,2,15
1523178176451001,-89,-24,67,-14,-5,0,-1,-27
1523178176472105,46,5,-34,0,-4,-1,-1,-7
1523178176472105,64,-15,10,21,3,-2,-1,-7
1523178176474060,-40,-26,16,0,2,0,2,10
1523178176474060,35,7,27,1,2,0,1,-4
1523178176486432,23,-4,-35,-12,-3,-1,-2,-14
1523178176486432,-17,-6,21,4,-4,-3,-4,14
1523178176495117,-28,-27,-53,-5,0,2,2,-18
1523178176495117,23,2,0,-7,-2,-1,-2,0
1523178176510320,-35,-4,-9,-19,0,1,4,53
1523178176510320,61,18,45,14,1,-1,-3,-50
1523178176511160,-16,-9,-36,-25,-4,-3,0,17
1523178176511160,-31,11,101,6,1,-1,-3,-25
1523178176532216,45,-26,-116,-3,-2,-3,-3,13
1523178176532216,-13,3,-20,28,-3,-2,1,-5
1523178176534367,-15,27,46,-22,1,1,-2,-4
1523178176534367,3,-2,16,11,2,1,2,9
1523178176546598,-43,9,-4,15,-1,-1,0,-13
1523178176546598,-5,-33,-4,11,-3,-3,-2,15
1523178176554584,-7,3,29,-18,-5,-5,-5,-14
1523178176554584,-26,-16,-96,-8,1,0,0,13
1523178176569651,2,10,98,13,0,-1,-3,-15
1523178176569651,13,-13,-48,0,-1,1,3,12
1523178176571320,-59,3,4,-2,0,-1,-6,-61
1523178176571320,44,6,-10,-2,-2,-2,-5,20
1523178176592682,67,6,5,25,-2,-2,-2,20
1523178176592682,-93,1,46,-25,1,3,3,-4
1523178176593378,45,-20,-79,0,-2,-1,-1,14
1523178176593378,-20,3,14,9,0,1,0,-5
1523178176605438,7,20,20,4,0,-2,-3,-42
1523178176605438,-28,1,-41,-18,-5,-3,-4,6
1523178176614726,-9,-18,-24,-12,0,2,6,17
1523178176614726,70,4,14,14,0,-1,-1,24
1523178176629475,-42,-4,14,-20,5,2,1,17
1523178176629475,19,-16,-48,10,-6,-2,0,5
1523178176631481,13,3,25,25,3,3,3,10
1523178176631481,42,9,-12,-10,-4,0,-1,-43
1523178176652230,25,-6,32,-12,-4,-5,-5,-24
1523178176652230,11,33,23,19,1,0,2,-5
1523178176653930,-59,13,27,-21,-1,0,3,8
1523178176653930,-41,-19,-3,-1,-1,1,3,9
1523178176666251,20,17,-18,15,3,1,-1,-17
1523178176666251,62,-7,-41,-12,-3,-3,-6,-19
1523178176674443,16,7,31,6,1,-3,-2,-3
1523178176674443,-17,12,51,25,1,-1,-1,1
1523178176689469,-7,6,-7,-6,-3,-1,-2,-2
1523178176689469,-6,-11,-4,-53,-11,0,1,-5
1523178176691475,4,-5,3,20,1,1,-5,9
1523178176691475,21,6,-48,-22,-2,-3,1,24
1523178176711778,-8,-17,73,28,1,1,0,-14
1523178176711778,-82,-17,-52,23,5,3,6,50
1523178176713533,25,15,9,-33,-3,-3,-4,-13
1523178176713533,-6,-2,-26,13,-4,-2,-1,-3
1523178176726587,-4,11,28,-19,-1,-1,-1,2
1523178176726587,67,-4,14,0,4,1,2,29
1523178176734588,57,0,51,24,-2,-4,-2,-6
1523178176734588,-15,-7,-26,-17,0,0,-1,5
1523178176749917,-28,-4,-7,-10,-4,-1,-1,6
1523178176749917,22,14,58,14,0,-2,-2,-22
1523178176750632,41,-1,8,4,3,2,3,7
1523178176750632,-1,-4,14,-11,-4,-5,-3,-37
1523178176772730,34,-15,-35,7,0,-2,3,51
1523178176772730,-29,18,-16,-5,-4,-4,-4,-10
1523178176773693,30,-28,-60,2,-4,0,0,-56
1523178176773693,-94,-12,-23,-6,1,-1,0,11
1523178176785954,2,26,5,-14,-5,-2,-2,9
1523178176785954,-38,-9,-28,8,1,-2,-5,-25
1523178176794749,-1,31,82,4,-1,-3,-2,18
1523178176794749,3,-23,-51,-10,-3,-2,-3,27
1523178176810073,-15,-14,-43,-14,0,0,1,-22
1523178176810073,-72,-12,10,15,-6,-7,-9,3
1523178176810790,14,12,61,-29,-3,-1,-1,0
1523178176810790,-68,8,18,16,3,1,3,13
1523178176832110,15,-23,32,-23,3,-1,0,18
1523178176832110,64,2,10,22,0,-1,0,11
1523178176833850,-114,-18,-59,-5,-1,-1,-2,-13
1523178176833850,114,12,11,20,2,0,-2,1
1523178176845887,-18,7,5,-36,-1,1,2,-13
1523178176845887,-9,-8,32,-2,1,0,2,-20
1523178176854908,36,-16,-51,-23,-6,-3,-3,40
1523178176854908,24,10,-27,4,0,0,-1,-16
1523178176870267,-5,2,6,36,1,0,-2,-15
1523178176870267,13,16,-10,-12,1,1,0,-6
1523178176870951,4,-17,16,13,-2,-2,0,11
1523178176870951,1,-16,39,-12,1,0,0,-13
1523178176900026,-13,-14,-103,8,-4,0,2,-36
1523178176900026,58,5,54,-10,0,-1,0,22
1523178176901031,-95,-7,23,9,2,1,-2,-3
1523178176901031,27,2,-6,-1,0,-1,-1,1
1523178176915341,-29,-14,-20,35,0,0,-2,-17
1523178176915341,-71,-6,-9,-91,-7,0,3,-1
1523178176916070,61,19,72,29,-1,-2,-8,-40
1523178176916070,-10,-26,19,-20,-5,0,-2,1
1523178176930304,-1,10,56,28,-2,-2,-3,6
1523178176930304,-3,-3,-78,21,7,2,5,2
1523178176931114,38,-30,-126,-20,-3,-4,-2,1
1523178176931114,-17,25,69,-22,-3,-1,-1,-7
1523178176952445,30,8,21,28,1,0,-3,1
1523178176952445,12,-5,-14,8,0,-1,-3,7
1523178176954172,46,40,61,-9,1,0,2,-3
1523178176954172,10,-25,-86,10,-4,-3,-1,17
1523178176975308,41,28,5,-26,-6,-4,-3,43
1523178176975308,-4,19,31,7,-5,-4,-2,-12
1523178176976231,-6,-18,1,41,2,0,2,3
1523178176976231,-38,22,-5,-16,2,2,3,11
1523178176989302,3,-15,22,9,2,-2,-3,-11
1523178176989302,-4,2,-58,21,-1,0,-4,3
1523178176991272,6,1,42,-7,-2,0,0,2
1523178176991272,-51,12,25,26,4,2,3,16
1523178177012326,-24,-5,58,-52,-6,-2,-4,-38
1523178177012326,16,10,-11,25,-1,-3,-3,-2
1523178177013509,-27,-11,-73,-26,5,4,3,10
1523178177013509,32,0,38,-2,-3,-2,0,-9
1523178177034654,-67,-15,-59,14,0,0,-4,8
1523178177034654,6,7,14,12,1,0,0,3
1523178177036390,-8,-27,-21,-14,-2,-2,-1,4
1523178177036390,94,5,16,-35,-1,-2,0,11
1523178177049679,-31,-16,-18,52,-6,-7,-8,15
1523178177049679,31,-1,19,-53,-4,-2,-1,20
1523178177055441,-7,8,-32,22,-1,-1,-1,-28
1523178177055441,-35,5,52,-19,-3,-1,-3,-15
1523178177072533,61,-12,-52,4,4,2,4,6
1523178177072533,-86,10,30,11,1,-3,-3,-10
1523178177073490,10,-18,-69,3,-5,-2,-2,12
1523178177073490,1,-3,22,-28,-3,-1,-4,1
1523178177094545,15,12,-7,-12,-1,-1,-1,-14
1523178177094545,12,-13,-15,14,0,2,0,-8
1523178177096549,48,-2,34,3,-2,-2,1,5
1523178177096549,-53,0,-20,26,3,0,1,20
1523178177108880,15,6,-17,-9,-2,-1,0,-28
1523178177108880,-33,-11,-2,-13,-4,-2,-7,-35
1523178177115647,-15,3,16,3,-1,-1,1,16
1523178177115647,17,-4,-30,3,1,-1,-4,-14
1523178177132694,11,6,24,7,3,3,4,15
1523178177132694,-48,-7,34,-3,-2,-2,-2,-4
1523178177133648,-1,8,-41,-8,-3,-1,0,13
1523178177133648,34,-11,15,5,-5,-6,-3,11
1523178177154754,17,17,29,-16,-2,-2,-3,-22
1523178177154754,37,-6,33,8,1,0,0,3
1523178177156711,-18,-17,-20,-8,-4,-4,-2,8
1523178177156711,-2,1,-50,0,-1,-1,0,-6
1523178177169003,-20,-6,67,-6,-1,-1,0,-24
1523178177169003,64,-15,-26,0,3,3,3,-13
1523178177176021,-24,15,-1,5,0,-1,-2,-17
1523178177176021,56,-7,-2,18,0,2,2,-1
1523178177192118,-94,5,-19,-25,-4,-5,-9,-12
1523178177192118,16,-5,-10,-6,-2,0,0,6
1523178177193809,-20,5,-7,15,4,4,2,-13
1523178177193809,-14,-5,-1,-24,-8,-4,-6,0
1523178177215140,53,2,-3,5,0,2,4,11
1523178177215140,-12,2,4,33,4,2,2,22
1523178177215866,26,39,27,-8,-6,-4,-3,11
1523178177215866,1,-5,-11,-2,-3,-2,-1,27
1523178177228902,-23,-14,18,-12,-1,0,3,18
1523178177228902,-30,0,7,3,-4,-4,-2,1
1523178177236242,8,4,12,3,2,2,1,11
1523178177236242,-102,-11,16,-17,-7,-3,-3,14
1523178177252232,92,1,-64,-11,-1,-2,1,-22
1523178177252232,32,13,52,8,2,-3,-3,6
1523178177253968,-40,-8,0,11,2,0,-3,-34
1523178177253968,22,16,17,-3,3,1,1,-16
1523178177275106,42,-5,-15,4,-1,0,0,36
1523178177275106,-26,0,-33,-6,-3,-2,-6,-40
1523178177276029,-13,-14,-33,-18,-4,-3,-3,-10
1523178177276029,26,-8,-15,0,0,-1,-5,-30
1523178177288058,-28,4,6,23,0,-1,-3,-14
1523178177288058,16,-4,-22,-14,-1,-1,2,6
1523178177297130,-13,-7,28,-22,-5,0,5,23
1523178177297130,12,10,-13,0,-1,0,-3,-56
1523178177312390,-13,3,-4,13,1,1,0,8
1523178177312390,20,0,-99,-6,2,2,0,4
1523178177314129,-3,-7,82,9,-1,-2,-5,-19
1523178177314129,-28,7,22,-6,-2,0,1,7
1523178177335245,26,8,15,4,-1,-1,-6,5
1523178177335245,6,1,-2,-9,-2,-1,0,0
1523178177336189,-22,-23,-25,3,0,1,2,18
1523178177336189,19,10,-3,13,0,0,-2,-12
1523178177349435,0,9,69,-16,0,-2,2,25
1523178177349435,-2,-3,13,-27,-2,1,1,27
1523178177355237,125,11,-34,40,-4,-3,1,35
1523178177355237,-32,-1,17,-4,0,-1,-3,-18
1523178177372302,8,-1,-23,-1,-2,2,-1,-27
1523178177372302,68,13,30,-2,-3,-5,-4,19
1523178177373285,-21,-2,29,-24,1,3,2,13
1523178177373285,13,1,-7,7,-1,-1,1,6
1523178177394615,27,-14,-7,18,3,-1,-1,-12
1523178177394615,-7,14,-12,13,-4,-1,0,-16
1523178177396347,-3,4,-20,-55,-2,-1,-3,-11
1523178177396347,19,0,0,26,-3,-2,-1,6
1523178177408672,-37,-10,-16,7,0,1,4,2
1523178177408672,15,-7,30,-24,-3,-3,-7,63
1523178177417403,-14,9,-22,16,3,-1,-4,-22
1523178177417403,-58,-32,-36,-10,-1,-3,-2,13
1523178177432731,21,18,18,-6,-4,-2,-3,-4
1523178177432731,1,-14,24,14,0,-1,5,-25
1523178177433445,9,-3,-18,0,0,0,-3,1
1523178177433445,-6,6,-51,-15,0,0,-4,-22
1523178177462646,-10,-19,-86,-6,2,1,1,28
1523178177462646,30,27,71,14,-3,-1,-2,-22
1523178177463529,3,3,-8,-1,-2,-1,-2,6
1523178177463529,12,-4,-17,-4,1,0,3,-3
1523178177468827,-20,-14,-2,1,0,-1,-1,11
1523178177468827,-37,-24,-57,14,2,1,1,-40
1523178177477563,34,27,17,-20,-5,-4,-4,0
1523178177477563,61,6,7,5,-2,-1,-1,25
1523178177492779,19,3,11,-16,-2,0,-2,-10
1523178177492779,19,5,1,-25,-1,0,-2,10
1523178177493605,-35,-29,27,29,4,3,2,-23
1523178177493605,42,11,0,-8,1,1,2,15
1523178177514929,13,3,-26,0,-4,-4,-5,-16
1523178177514929,-43,-27,12,9,0,-1,-1,-37
1523178177515666,6,6,-11,3,-2,-2,0,3
1523178177515666,-7,5,-1,-17,-1,-1,2,23
1523178177527946,11,10,53,-11,-2,-1,2,-4
1523178177527946,-38,-6,-21,-3,0,0,-2,2
1523178177537008,56,-4,-5,6,0,-2,-4,-13
1523178177537008,12,-7,10,20,2,-2,0,11
1523178177552031,-10,9,28,-22,0,-1,-1,-17
1523178177552031,-28,-14,-53,21,-2,-2,-2,1
1523178177553764,-7,12,44,-1,-4,-1,-1,6
1523178177553764,-13,-14,-26,-28,-4,-3,-2,-16
1523178177575157,2,3,-19,-4,-2,-2,-2,-4
1523178177575157,-32,9,52,29,0,-2,-1,-10
1523178177575828,-38,-4,-40,-9,-4,-3,-4,-18
1523178177575828,-7,-22,4,11,1,1,-1,-18
1523178177587905,-17,0,23,8,-1,2,2,7
1523178177587905,95,1,-96,-19,-1,1,0,22
1523178177597168,-7,15,28,0,-3,-6,-6,-16
1523178177597168,7,17,8,-35,-4,1,1,-8
1523178177611920,-7,-6,-4,12,-1,-2,-3,11
1523178177611920,-38,-20,-5,-6,-1,-1,1,-8
1523178177613925,68,6,11,4,-1,-3,-3,-10
1523178177613925,-65,3,21,14,-5,-2,-2,-18
1523178177635259,25,-7,-36,-4,0,-2,1,8
1523178177635259,43,8,11,0,0,0,0,35
1523178177635983,-89,-3,-3,-4,5,3,0,-14
1523178177635983,18,5,11,-4,-3,-1,-1,-2
1523178177649035,16,1,-5,-30,-2,0,-1,33
1523178177649035,64,-5,4,6,-4,-1,0,-10
1523178177657038,-7,-2,-2,10,-2,-3,1,8
1523178177657038,43,-14,-11,3,-4,-3,-7,-44
1523178177672083,-12,0,14,10,2,3,3,5
1523178177672083,1,-9,-16,13,1,1,0,-4
1523178177674124,32,1,14,-14,1,1,1,-3
1523178177674124,6,20,29,7,2,-1,-1,1
1523178177695187,-37,-15,-17,-3,-7,-5,-4,-12
1523178177695187,-8,23,11,-13,-2,-4,-4,-7
1523178177696146,-21,-9,-7,9,0,1,1,11
1523178177696146,17,-11,-14,7,1,0,3,22
1523178177708487,-20,-14,2,-1,3,1,-1,1
1523178177708487,-4,-7,17,-18,-6,-4,-4,-10
1523178177717202,-3,-5,-22,-4,-6,-4,-2,7
1523178177717202,17,6,-7,14,4,1,-1,2
1523178177732300,13,13,33,12,3,3,1,-14
1523178177732300,-28,-14,1,-14,-1,-2,-5,3
1523178177739258,26,-9,14,4,-1,0,0,-2
1523178177739258,-53,-10,-15,-10,-3,-2,-2,4
1523178177754349,46,-2,23,23,4,1,2,-30
1523178177754349,-64,-4,0,2,0,0,-3,-17
1523178177756302,6,-29,-60,-41,-2,-1,-1,1
1523178177756302,37,21,-6,18,0,0,-1,2
1523178177768630,36,11,44,15,-6,-6,-4,9
1523178177768630,47,0,-64,5,5,2,1,9
1523178177777360,-20,12,12,20,4,1,-2,1
1523178177777360,-3,6,-31,-36,-3,-3,-1,17
1523178177792676,-82,-39,17,-1,-1,-1,-4,0
1523178177792676,41,-4,-16,-24,-8,-3,-2,-17
1523178177793405,0,11,-26,26,2,1,-1,-1
1523178177793405,23,-8,16,11,2,2,4,18
1523178177814744,-34,9,-25,-5,0,-3,-7,-21
1523178177814744,13,11,57,15,2,2,2,-7
1523178177816463,-41,-1,-19,-31,0,0,-1,-7
1523178177816463,26,-5,26,2,-4,0,1,7
1523178177828498,58,-2,-40,-1,-1,-2,-2,-29
1523178177828498,-71,-14,33,10,-2,-1,-1,-12
1523178177837520,57,9,-18,-2,-1,-2,-1,17
1523178177837520,-27,-19,22,35,0,-1,-3,-19
1523178177852841,32,1,-27,-50,-4,-3,3,30
1523178177852841,18,1,-21,13,-3,0,-1,-15
1523178177853564,3,1,34,-2,-3,-2,-2,-32
1523178177853564,-25,-1,26,13,2,1,-2,-10
1523178177874942,11,-14,-67,4,-6,-2,-1,18
1523178177874942,4,1,58,-51,-4,-3,0,34
1523178177875622,-49,-27,-51,-4,-5,-4,-6,-22
1523178177875622,-19,-8,-46,15,1,0,-1,-10
1523178177897810,79,23,59,2,-1,1,1,15
1523178177897810,30,10,-29,-22,-1,-2,-1,33
1523178177898681,11,-20,38,37,0,1,2,15
1523178177898681,17,0,-4,-18,-1,-3,-2,5
1523178177911785,-32,8,-8,6,0,0,4,9
1523178177911785,14,-8,-53,-4,0,0,1,-2
1523178177913723,3,19,59,19,0,0,0,-18
1523178177913723,-28,6,-16,-31,-3,-5,-6,-35
1523178177935068,-15,-20,-1,-6,1,4,4,24
1523178177935068,0,-30,-25,10,-1,-2,-2,-10
1523178177935780,-13,-16,-61,-10,-5,-2,-3,8
1523178177935780,4,14,32,8,0,0,1,15
1523178177957885,79,-25,-56,-27,1,-2,-4,-28
1523178177957885,5,14,33,30,-1,-2,-6,5
1523178177958841,46,1,-4,-37,-6,-3,0,14
1523178177958841,-25,3,-4,3,-1,-1,0,-1
1523178177971879,-22,18,0,-11,-1,-1,-3,-6
1523178177971879,4,1,2,32,1,2,3,-10
1523178177973883,-19,-13,26,11,4,-2,-2,9
1523178177973883,37,-1,11,-9,2,-1,-3,32
1523178177994939,-32,21,6,-28,-7,-4,-4,-8
1523178177994939,-36,1,57,-1,-3,-2,0,-3
1523178177995940,-13,2,-81,0,1,0,0,-2
1523178177995940,18,-9,12,1,-3,-3,-3,-44
1523178178017260,6,3,13,25,6,2,0,-1
1523178178017260,-67,-14,-32,-16,-2,-2,3,16
1523178178019005,23,10,49,6,0,1,2,-4
1523178178019005,11,-16,-15,-11,-1,0,1,9
1523178178031295,-35,0,18,16,-6,-3,-1,-7
1523178178031295,29,10,-1,-10,2,0,-2,-18
1523178178038054,-7,8,2,10,0,0,2,11
1523178178038054,14,-4,-11,-11,-4,-2,-2,5
1523178178054142,-104,-8,9,0,1,-2,2,14
1523178178054142,23,31,0,16,2,-1,-1,3
1523178178056099,-20,-17,28,-37,1,2,-2,-1
1523178178056099,-46,22,-47,21,-5,-2,-2,-32
1523178178077407,42,-60,-80,-9,-4,-2,-4,-16
1523178178077407,-48,8,-23,-3,-3,-2,1,-3
1523178178079161,66,8,19,15,4,2,1,2
1523178178079161,-1,-11,-5,-12,3,1,2,3
1523178178091473,-12,12,-6,8,3,0,1,7
1523178178091473,-32,-11,5,-2,0,-2,-1,-29
1523178178098484,24,4,38,9,-4,-3,0,2
1523178178098484,-32,0,-6,-19,0,0,-2,21
1523178178114533,6,13,18,21,2,0,1,6
1523178178114533,37,-6,5,4,1,3,0,-49
1523178178116259,17,3,-37,2,-2,-3,-6,16
1523178178116259,-42,7,44,-3,-2,-4,-1,3
1523178178137366,-47,-12,-36,-11,-4,-1,-2,-10
1523178178137366,25,9,71,1,1,0,-3,4
1523178178138318,-36,-5,-59,-8,-2,-2,-1,-8
1523178178138318,57,3,32,11,-1,-2,-3,-28
1523178178151625,29,14,10,13,0,1,1,39
1523178178151625,-16,-12,29,-28,-4,-1,0,15
1523178178158653,-18,2,10,-4,-4,-2,1,-12
1523178178158653,26,-12,-29,33,2,1,-2,21
1523178178174734,3,-2,1,-52,-2,0,3,5
1523178178174734,66,6,-53,32,0,-1,0,26
1523178178176421,-88,11,91,16,-2,-1,-3,-32
1523178178176421,48,-2,1,-22,-4,-1,0,-17
1523178178197581,-3,-25,17,17,0,1,1,-2
1523178178197581,-5,-16,-54,-15,-5,-4,-3,-3
1523178178198481,33,4,18,-6,-1,0,2,12
1523178178198481,-24,10,9,7,-1,-1,0,12
1523178178211762,-84,-4,-12,13,2,0,-1,-1
1523178178211762,19,7,0,-13,0,-1,-1,-9
1523178178218821,-4,-12,50,-21,-7,-3,-2,-2
1523178178218821,-9,5,-16,-12,-3,-1,-1,-3
1523178178234881,45,29,-9,0,-4,-6,-5,4
1523178178234881,-11,-7,3,22,1,0,-1,2
1523178178235578,-67,0,-31,-25,2,0,-3,-10
1523178178235578,-6,-23,-65,4,-3,0,0,-18
1523178178257861,79,-4,33,6,-4,-4,0,-14
1523178178257861,7,-3,10,-9,2,1,-4,-1
1523178178258642,24,29,-4,9,1,-1,1,12
1523178178258642,-7,-2,-11,-4,2,3,5,3
1523178178271672,-3,2,-4,-6,-7,-2,-2,-6
1523178178271672,-55,-8,4,-11,3,1,-2,-36
1523178178278795,-13,-17,-48,-3,-2,-2,2,7
1523178178278795,-28,0,18,15,-1,-2,-1,33
1523178178294735,1,10,12,-13,1,-3,-4,-36
1523178178294735,29,10,73,22,-3,-2,-1,22
1523178178295737,51,-20,-44,-21,-5,-2,-2,9
1523178178295737,-23,3,38,4,3,2,4,-5
1523178178317076,21,-6,23,3,1,0,-2,52
1523178178317076,-5,17,-13,6,0,-2,-1,18
1523178178318798,-13,-20,-8,0,-1,-2,-1,-7
1523178178318798,25,-6,7,-11,-3,-3,-2,8
1523178178332109,25,12,36,6,1,2,3,3
1523178178332109,-2,-10,-76,-5,-1,-1,0,-7
1523178178337850,10,-3,16,-2,-2,-2,-1,-15
1523178178337850,33,2,-27,-5,-4,-1,-3,5
1523178178354896,-86,-12,-6,19,4,1,-2,-27
1523178178354896,14,5,26,-23,-3,-4,-1,7
1523178178355896,-51,-10,-19,-6,-2,-1,-3,-28
1523178178355896,62,12,37,0,0,-3,-5,-2
1523178178377263,26,1,-83,2,-3,0,0,-8
1523178178377263,58,-16,37,9,-2,-1,2,-2
1523178178378958,-5,2,-5,-4,2,1,0,24
1523178178378958,4,-6,42,-11,-2,-2,-2,4
1523178178391284,5,15,18,6,0,-2,-4,-23
1523178178391284,-33,-3,-9,1,2,2,1,-5
1523178178400014,68,-1,-48,-4,0,-1,-3,11
1523178178400014,-7,4,-18,22,-5,-2,-5,-1
1523178178415222,-66,8,37,-37,-4,-2,3,6
1523178178415222,-13,0,-29,-11,-4,0,0,7
1523178178416059,25,-2,9,21,6,2,3,-10
1523178178416059,-58,-5,-45,-4,-2,-4,-6,20
1523178178437161,-14,-30,39,5,-1,-2,1,36
1523178178437161,24,1,28,-6,-4,-3,1,29
1523178178439117,-31,2,-20,7,1,0,0,2
1523178178439117,-7,14,7,2,3,1,-2,-34
1523178178451377,-15,-19,-4,-5,-2,-2,-1,5
1523178178451377,-30,-5,-40,-17,-3,-1,-4,12
1523178178460175,19,-4,66,5,0,0,1,12
1523178178460175,11,-8,-4,29,3,0,2,-12
1523178178475261,-46,6,26,-23,-1,0,-3,-23
1523178178475261,-15,-3,11,12,-1,-3,-2,-9
1523178178476218,35,20,10,-1,-2,-2,0,42
1523178178476218,-11,-10,-13,-9,0,-1,-1,-10
1523178178497568,-11,7,43,1,-1,-1,0,16
1523178178497568,35,-10,-64,-4,-3,-2,-3,-11
1523178178499277,14,19,38,-5,-2,-1,-1,-9
1523178178499277,11,-7,-17,-5,1,-1,1,6
1523178178510570,13,15,-5,8,1,-2,-3,-19
1523178178510570,16,-1,-26,-19,-2,-1,3,11
1523178178519612,10,1,-7,42,1,-1,-3,-17
1523178178519612,37,-2,15,-43,3,2,3,2
1523178178542668,14,4,-41,25,-6,-4,0,22
1523178178542668,-57,-35,12,-11,1,1,-1,-15
1523178178543396,-10,-11,-6,-11,-1,-1,0,10
1523178178543396,61,12,22,10,-2,0,0,-18
1523178178557765,40,-15,-4,10,3,1,1,0
1523178178557765,-15,20,48,1,-1,0,0,1
1523178178558436,-26,-5,-13,-3,-1,-2,-5,15
1523178178558436,-8,3,62,-4,-2,0,0,-11
1523178178570466,12,4,-10,-1,0,-1,2,-22
1523178178570466,3,3,-27,-7,-2,-2,-3,-17
1523178178579664,20,3,42,-9,-3,-2,0,-23
1523178178579664,-25,-1,-11,3,-1,-1,0,27
1523178178594841,97,-16,-39,10,3,3,0,8
1523178178594841,-11,16,45,-19,-4,-4,1,17
1523178178596539,1,10,-34,10,0,-1,-3,-44
1523178178596539,2,-24,44,-4,-2,-3,-1,35
1523178178617843,26,29,26,-2,3,0,-3,-15
1523178178617843,20,-2,-13,-3,0,0,1,4
1523178178618596,-2,-13,-16,2,-2,-2,-2,0
1523178178618596,-36,-10,-9,22,-3,-2,-1,-3
1523178178630916,14,8,20,-43,-1,0,-2,-1
1523178178630916,-24,-18,3,8,-1,0,-4,-34
1523178178639650,-18,19,9,-5,0,-1,3,4
1523178178639650,13,-9,-74,6,2,0,-3,-22
1523178178654692,-106,-12,19,13,-1,-2,-1,-19
1523178178654692,105,14,-58,2,-1,-2,-2,25
1523178178655694,35,-3,-42,-11,-1,-1,-2,40
1523178178655694,-28,-3,-37,-21,-7,-3,-3,-23
1523178178677006,5,-20,3,7,-1,1,-1,-5
1523178178677006,-21,-5,-1,-5,-3,-2,-1,0
1523178178678753,7,8,4,2,1,1,0,-14
1523178178678753,31,12,10,11,-1,-4,1,19
1523178178691086,20,18,-43,-9,-2,-3,-1,-10
1523178178691086,-29,-12,31,22,1,2,-3,-23
1523178178699811,8,-7,12,-35,-1,0,-1,7
1523178178699811,67,1,-22,5,-3,-1,-1,-3
1523178178715161,47,13,-27,-3,-5,-2,-1,-1
1523178178715161,24,12,44,14,5,2,0,-3
1523178178715854,-35,-32,-12,14,1,1,1,-40
1523178178715854,1,2,30,-46,-2,-2,-2,15
1523178178736961,22,17,-36,18,-3,-2,1,25
1523178178736961,0,15,37,-5,-2,-3,-4,23
1523178178738916,-42,-4,-33,0,-4,-3,-2,-4
1523178178738916,-4,3,-12,25,3,1,0,-10
1523178178751229,1,6,17,-39,-5,-1,0,5
1523178178751229,-71,-16,7,9,0,-2,-5,-27
1523178178759972,27,0,10,-15,-4,0,0,32
1523178178759972,-97,-11,-12,20,1,-2,-5,-45
1523178178775287,-49,10,35,0,3,2,0,-1
1523178178775287,27,-13,-96,-5,0,-2,0,-4
1523178178776014,2,6,16,28,0,-1,-1,8
1523178178776014,-24,9,-61,-17,0,0,1,-7
1523178178797336,18,-17,18,-7,-3,-3,-3,-2
1523178178797336,-18,-10,26,-7,-1,1,3,9
1523178178799073,25,15,51,4,-2,-3,-2,-53
1523178178799073,-72,-6,32,-8,0,-1,0,50
1523178178820135,71,-16,-61,29,2,2,-3,-48
1523178178820135,68,2,16,-42,-4,-1,1,8
1523178178821136,-13,-16,12,-7,-2,-2,1,10
1523178178821136,11,8,25,6,-3,1,0,7
1523178178834449,-29,1,-9,12,2,-1,1,-7
1523178178834449,25,-7,-18,1,-1,-2,-3,16
1523178178841358,-13,17,-23,1,-3,-2,-2,-11
1523178178841358,17,-18,3,-15,-3,-2,-5,-27
1523178178857620,-13,-20,-57,6,2,-1,-1,24
1523178178857620,-22,9,-14,-3,3,2,2,-13
1523178178858234,13,15,-5,18,-2,-1,-1,22
1523178178858234,36,3,-31,-15,0,-1,0,3
1523178178880290,29,5,27,6,-6,-4,-4,20
1523178178880290,-68,-24,29,-19,-5,-3,-3,-8
1523178178881293,56,15,-16,-15,-2,-1,-1,21
1523178178881293,42,-14,54,14,-1,-2,-3,35
1523178178894327,-27,-3,19,8,2,0,0,-11
1523178178894327,-2,16,-22,5,0,2,4,-6
1523178178901396,24,-2,12,2,0,0,-2,-1
1523178178901396,-12,12,23,-2,0,0,-2,7
1523178178917670,-63,-11,-2,-17,-3,-3,-1,41
1523178178917670,69,14,6,22,1,2,0,-4
1523178178918396,-32,-31,-18,9,-2,-2,-3,-21
1523178178918396,0,36,-48,-43,-1,-2,-1,-28
1523178178939614,-44,-1,100,28,-6,-4,-2,-7
1523178178939614,-54,-8,-14,6,-1,-3,-5,-5
1523178178941455,17,-7,-32,-4,2,0,-2,-29
1523178178941455,25,6,25,13,-1,-2,2,-3
1523178178953535,-5,7,2,-8,-3,-1,-4,-29
1523178178953535,0,-11,-24,-18,-1,0,1,-3
1523178178960819,-44,-12,6,-5,-2,-2,0,19
1523178178960819,-63,-9,61,16,1,0,0,-6
1523178178984840,13,4,-7,2,2,2,2,-32
1523178178984840,91,0,4,32,-1,-3,-3,14
1523178178986573,-4,-9,-15,-49,-3,1,5,3
1523178178986573,90,12,-45,11,-2,2,0,-22
1523178178999876,-11,-24,-7,0,0,0,1,12
1523178178999876,-8,15,-24,1,3,1,-1,10
1523178179001613,11,8,21,4,-1,-2,-3,-14
1523178179001613,-14,-11,-6,-8,-4,-3,-2,7
1523178179013646,36,-1,-31,-11,-2,1,0,6
1523178179013646,-20,32,68,9,0,-1,-2,-11
1523178179020665,-24,6,16,2,1,-1,-1,10
1523178179020665,23,1,35,-1,-1,-2,-2,-7
1523178179037708,10,-34,-60,-7,-2,-2,0,16
1523178179037708,28,10,26,-1,0,-2,0,-8
1523178179038715,43,32,72,5,0,0,2,71
1523178179038715,-1,-19,-38,0,-2,-1,1,-24
1523178179067096,-95,2,-15,-18,-5,-3,-2,21
1523178179067096,29,7,-1,-4,-1,0,-2,-1
1523178179068791,7,-18,-47,11,0,-1,-1,3
1523178179068791,-24,-6,7,-37,-4,1,2,-24
1523178179074060,-11,13,31,22,3,3,-1,3
1523178179074060,2,-16,-12,-30,-6,-4,-3,0
1523178179081117,-6,0,-54,19,3,0,-1,15
1523178179081117,-12,-7,7,2,-3,-5,-5,-7
1523178179097139,-1,17,5,-12,-3,-1,-2,-21
1523178179097139,-21,-9,-40,0,-2,0,0,-3
1523178179098871,31,3,19,1,3,0,1,0
1523178179098871,-96,-12,-13,6,-2,-2,-1,10
1523178179126947,59,1,16,-5,0,-1,-3,-7
1523178179126947,-15,1,-8,6,0,0,3,41
1523178179128952,-63,-16,-33,-15,-1,-1,-3,-22
1523178179128952,16,-3,-15,14,-1,0,0,15
1523178179134244,17,8,4,-8,1,-2,0,10
1523178179134244,-90,-35,-52,-3,-2,0,1,-27
1523178179141278,32,10,24,-5,-1,-2,-2,-10
1523178179141278,-1,9,-13,-2,-1,0,0,9
1523178179157313,4,-21,-43,12,-3,-3,-2,-16
1523178179157313,4,4,21,23,0,-1,0,-4
1523178179159032,3,-18,14,-33,-2,-1,-1,-26
1523178179159032,39,-1,2,12,0,-2,-3,-8
1523178179180291,86,-6,-45,-9,-2,-1,0,-4
1523178179180291,53,4,41,6,0,0,2,26
1523178179181092,-21,3,-10,-3,-4,-2,-3,-20
1523178179181092,49,4,70,15,0,-3,-2,-17
1523178179193394,-9,14,4,-7,-2,-2,-2,-32
1523178179193394,47,-26,-21,-3,-1,-2,1,11
1523178179202148,-1,4,0,7,-1,0,-5,-48
1523178179202148,-20,8,-18,3,2,0,-1,10
1523178179217457,-9,3,20,-11,-1,-2,-5,-31
1523178179217457,-33,11,37,2,-5,1,-1,-11
1523178179219190,16,-18,-86,-1,-2,-2,-3,13
1523178179219190,-40,7,-15,-15,-3,-3,-2,-5
1523178179239244,25,-7,25,19,2,-1,0,2
1523178179239244,7,35,49,-17,0,-1,-2,-3
1523178179239244,-40,-13,-2,10,-1,2,3,0
1523178179239244,3,-2,-28,4,4,2,0,8
1523178179253282,-10,16,55,-8,-1,1,1,10
1523178179253282,0,-9,-23,2,1,-1,-3,5
1523178179261508,-42,9,10,9,2,0,1,12
1523178179261508,0,5,10,-11,-1,0,3,15
1523178179276647,9,-7,-12,11,-3,-2,-2,-12
1523178179276647,-21,7,-12,-30,-1,-3,-3,-18
1523178179277349,-20,-4,-5,4,-2,-2,-3,-27
1523178179277349,89,4,45,-6,2,3,1,14
1523178179299633,-7,1,-33,21,1,1,0,10
1523178179299633,-50,-8,-17,-14,-1,0,-1,-40
1523178179299633,100,5,45,-1,-4,-2,0,42
1523178179299633,-4,-19,-75,6,-3,-3,-1,-16
1523178179313730,-15,22,-14,-12,-2,-2,-1,-1
1523178179313730,28,-30,-63,7,0,-2,-2,24
1523178179321463,17,7,50,0,3,1,1,-6
1523178179321463,3,2,-11,8,2,2,-1,-1
1523178179336502,-14,-13,30,-28,-1,-3,-4,-38
1523178179336502,61,23,68,13,-1,-2,1,5
1523178179337506,11,4,-28,-3,-2,-2,2,-8
1523178179337506,-41,-7,-17,0,-1,-2,-3,3
1523178179358845,5,0,8,-5,3,1,1,17
1523178179358845,7,-6,-24,9,1,0,-2,-11
1523178179359569,-20,16,30,6,1,1,-2,2
1523178179359569,35,-6,23,-12,-3,-1,5,15
1523178179373603,-8,2,-3,-4,-2,-2,-1,13
1523178179373603,-12,8,9,4,-1,-3,-1,-2
1523178179381624,-16,-19,-25,26,0,-1,-2,7
1523178179381624,-6,3,-39,-29,0,2,4,13
1523178179396888,54,3,16,6,-6,-2,-2,-3
1523178179396888,-89,2,70,-7,0,0,1,7
1523178179396888,45,-7,-78,-7,-1,0,-1,-4
1523178179396888,13,3,65,12,-1,-3,-4,-13
1523178179419021,-21,-14,-19,1,1,0,0,18
1523178179419021,-24,-6,-28,-5,-1,-1,-2,-10
1523178179419725,-6,-6,14,2,-1,1,2,13
1523178179419725,-39,13,23,6,0,-4,-5,-12
1523178179433949,-63,-41,-35,-13,-3,-3,-2,-4
1523178179433949,-22,2,8,7,-3,-2,-7,-21
1523178179442049,2,7,-1,-7,-2,-1,2,11
1523178179442049,61,4,-1,2,-3,-1,-1,10
1523178179457134,22,-2,18,6,0,0,0,-18
1523178179457134,76,-3,-16,26,4,1,1,-5
1523178179457134,-40,-3,-17,-42,-6,-4,-2,-7
1523178179457134,-5,-2,29,3,-3,0,-1,-27
1523178179479087,13,11,7,-11,-2,-2,-3,22
1523178179479087,-80,-11,16,8,1,1,-1,-42
1523178179479884,39,-6,23,18,0,-1,-4,-2
1523178179479884,-20,10,-127,-20,-3,-1,0,3
1523178179502226,-10,12,17,-3,-2,0,0,12
1523178179502226,-32,-18,19,4,0,1,1,14
1523178179502946,-66,-1,-72,-7,-1,-1,-2,8
1523178179502946,80,8,38,5,0,0,0,0
1523178179517101,-8,-5,36,8,2,2,3,1
1523178179517101,63,2,-40,-11,-4,-3,-5,27
1523178179517101,-19,1,14,4,0,-3,-4,-58
1523178179517101,-3,-24,-32,-2,1,-1,0,6
1523178179539285,-11,3,-23,-10,-1,0,2,8
1523178179539285,28,-14,17,-1,-3,0,0,0
1523178179540045,19,9,58,1,0,-2,1,8
1523178179540045,-25,-38,-8,19,0,-2,-4,15
1523178179562311,18,-3,-27,-25,-4,0,-1,-1
1523178179562311,-35,14,-3,-2,0,-2,-2,0
1523178179563107,6,-21,-14,-1,-1,0,-2,12
1523178179563107,-36,34,83,4,-2,-2,1,5
1523178179576406,-19,-7,-67,16,3,0,-1,5
1523178179576406,-52,-12,-35,-18,-8,-4,-2,-2
1523178179577143,14,5,15,-7,-4,-3,0,19
1523178179577143,7,-2,57,6,-2,-1,-3,-27
1523178179599463,1,0,0,-8,-3,-2,-4,-8
1523178179599463,1,23,-4,8,1,-1,2,21
1523178179599463,33,6,15,1,-3,-3,-2,0
1523178179599463,-81,-23,-64,-9,1,1,-1,-7
1523178179622262,-13,11,6,13,2,0,-2,20
1523178179622262,96,4,-9,7,-1,-1,1,-7
1523178179623263,23,4,-2,-64,-5,-3,-2,5
1523178179623263,27,-10,-44,26,-2,-2,-3,3
1523178179636300,-17,-4,13,0,0,0,0,-7
1523178179636300,17,4,3,4,3,1,4,23
1523178179637302,-40,11,41,4,-1,-2,-6,-34
1523178179637302,-30,-31,7,-17,-1,-4,-1,-3
1523178179659628,71,20,-46,9,3,1,5,-5
1523178179659628,-56,-25,44,-3,-6,-5,-7,-3
1523178179659628,16,-13,-36,3,-1,-1,-2,1
1523178179659628,14,7,62,1,0,-1,1,5
1523178179682700,-32,-11,-64,-1,0,-2,-3,-14
1523178179682700,16,15,-4,-5,3,2,2,2
1523178179683425,-29,-3,1,-11,-5,-2,0,14
1523178179683425,16,6,-24,5,-1,0,-2,-3
1523178179696543,-35,-2,24,3,-2,1,4,5
1523178179696543,73,19,23,-9,1,0,1,35
1523178179697462,35,-14,5,37,-5,-5,-9,-44
1523178179697462,-9,20,-18,-52,0,-1,-1,0
1523178179718795,-7,-12,25,-18,-6,-5,-3,-7
1523178179718795,-11,14,11,6,1,0,-1,-13
1523178179719522,-25,7,5,24,2,2,0,-12
1523178179719522,11,3,-29,2,2,-1,0,8
1523178179742782,19,4,17,-3,-1,-2,-4,-11
1523178179742782,-6,-14,-29,-4,-2,-1,-3,-18
1523178179742782,-4,-3,-66,-3,4,3,9,36
1523178179742782,44,32,86,9,-1,0,0,-28
1523178179756943,-91,-33,22,-7,-1,-1,-3,12
1523178179756943,60,9,-26,-13,-7,-5,-5,-52
1523178179757621,-10,3,12,-4,1,-1,2,11
1523178179757621,2,-16,-42,4,-1,0,0,10
1523178179778976,30,21,37,11,-2,-1,0,-7
1523178179778976,-6,-7,15,0,1,0,-2,8
1523178179779685,-12,-5,9,-10,1,0,0,5
1523178179779685,16,20,-30,3,-1,0,0,-2
1523178179802007,20,5,32,11,3,1,1,-31
1523178179802007,-20,-43,-128,-10,0,1,-1,-32
1523178179802746,11,33,42,1,-5,-4,-3,6
1523178179802746,-14,-15,14,7,1,0,1,-3
1523178179817037,1,14,-61,-1,-1,0,-1,3
1523178179817037,-11,-4,-7,10,-1,1,3,10
1523178179817037,-7,-14,9,-28,1,0,0,-11
1523178179817037,-25,-3,10,17,-4,-4,-6,-4
1523178179838839,33,-2,22,-2,-3,-2,0,11
1523178179838839,-9,22,2,-1,0,-2,-2,-4
1523178179839842,6,-10,23,9,2,1,1,-1
1523178179839842,-42,26,26,-3,0,0,2,17
1523178179862110,108,-51,-85,-10,-2,-1,2,58
1523178179862110,3,26,12,6,-1,-2,-5,-7
1523178179862905,-24,-16,-4,9,3,1,2,-9
1523178179862905,2,-4,-27,-10,-2,-2,-2,6
1523178179877173,-3,5,4,-3,0,2,2,3
1523178179877173,-12,-6,27,-5,0,-2,0,13
1523178179877173,12,-8,-34,-2,-2,-3,-3,3
1523178179877173,10,-6,-19,6,1,1,0,0
1523178179899484,-5,8,58,6,0,0,-2,-7
1523178179899484,104,-5,-42,-14,-6,-6,-6,9
1523178179899484,-22,2,62,7,0,1,0,-20
1523178179899484,-18,-10,9,-3,-3,-2,-2,4
1523178179922594,0,15,26,-1,-2,-3,-4,-10
1523178179922594,-9,-3,-17,-1,-2,0,0,-1
1523178179922594,8,-11,-54,0,-1,1,-1,7
1523178179922594,47,3,8,-6,-5,-3,0,1
1523178179936333,-21,-7,-17,-2,-2,-1,0,-18
1523178179936333,9,-11,-22,5,1,3,8,93
1523178179937334,-5,7,-2,3,-1,-2,-4,-21
1523178179937334,20,31,58,-1,0,-1,0,14
1523178179959394,-63,-36,-64,-7,-3,-3,-5,-31
1523178179959394,-67,2,26,-1,-1,-2,-1,-19
1523178179959394,127,18,-5,-4,-3,-2,0,50
1523178179959394,2,-10,-7,-2,2,1,-2,0
1523178179982733,-5,22,32,-1,-2,-3,0,15
1523178179982733,-17,2,63,-1,1,-1,0,-34
1523178179982733,-118,-17,-103,-2,-1,0,1,0
1523178179982733,-56,-22,-44,3,0,-1,-1,-44
1523178179996748,22,-1,-10,-5,-1,-1,-2,1
1523178179996748,-44,7,5,-7,-4,-3,-2,-25
1523178179997493,-20,-8,82,12,1,0,-1,31
1523178179997493,44,-2,-37,-17,-4,-3,1,16
1523178180018771,-108,-37,-3,5,1,0,-2,-34
1523178180018771,21,17,6,3,2,1,0,-11
1523178180019554,57,-18,-27,-5,-4,-2,1,-6
1523178180019554,-60,-6,-33,-2,1,-1,-2,2
1523178180042637,-6,5,9,-1,-3,-4,-3,18
1523178180042637,-14,-4,12,-7,-1,0,-3,-11
1523178180042637,19,10,22,21,-4,-2,-2,23
1523178180042637,-7,-27,-75,-12,1,-1,-3,-18
1523178180056893,24,18,8,-9,-3,0,1,1
1523178180056893,54,-10,-8,6,-1,-3,-2,-5
1523178180056893,-1,5,8,-1,2,0,1,3
1523178180056893,65,5,60,-7,-4,-1,4,39
1523178180078974,10,11,-26,11,0,-1,-4,10
1523178180078974,-39,-2,-4,-10,-2,1,0,8
1523178180079718,70,-1,-22,-4,0,-2,0,35
1523178180079718,55,15,42,10,1,-1,-1,-2
1523178180101907,-11,-2,42,-5,-2,-4,-4,6
1523178180101907,9,-17,-20,-4,-2,-2,-2,2
1523178180101907,-91,-12,8,-3,1,1,1,-32
1523178180101907,-4,16,37,5,0,-2,-2,-13
1523178180117006,18,5,-56,-5,-4,-2,-1,1
1523178180117006,-44,19,35,7,0,1,-3,-35
1523178180117006,86,-27,-1,-4,-2,-1,0,0
1523178180117006,-88,-26,-22,-6,-3,-2,-2,-17
1523178180139170,82,14,8,7,4,1,3,-5
1523178180139170,66,5,15,-1,-2,-3,2,43
1523178180139874,-41,-2,-42,-12,-3,-1,-2,-23
1523178180139874,23,6,23,-4,0,1,-1,1
1523178180161228,-64,-9,24,13,-3,-1,-3,21
1523178180161228,-29,-15,-56,4,5,4,2,4
1523178180161931,-23,29,84,1,-1,0,-2,-11
1523178180161931,40,-15,-91,-7,-4,-3,-1,-2
1523178180176970,-20,4,-4,-6,-1,-4,-4,-21
1523178180176970,-66,1,11,-8,-5,-2,0,3
1523178180176970,-64,2,18,0,0,0,-3,-19
1523178180176970,17,5,-19,-2,1,-2,-4,-31
1523178180199287,-14,1,-26,-4,0,-2,-1,10
1523178180199287,113,-5,0,-1,-2,-1,1,9
1523178180200031,-24,10,-49,-7,-2,-2,-3,-15
1523178180200031,-18,-5,16,2,-1,-2,-5,-23
1523178180222090,31,-5,-27,-1,1,1,5,8
1523178180222090,5,-1,-23,0,0,0,-2,1
1523178180222090,25,7,-33,-3,-1,0,-2,-3
1523178180222090,-38,-4,42,4,-1,-2,2,3
1523178180236128,100,-5,38,4,1,4,1,8
1523178180236128,4,27,34,6,0,-2,-4,-10
1523178180237130,17,-27,-50,-9,0,-1,-1,-18
1523178180237130,5,14,11,2,0,-4,-1,16
1523178180259434,32,17,18,-4,-1,0,-2,-53
1523178180259434,-41,-33,3,4,3,0,0,-6
1523178180259434,12,-8,-29,-5,-3,-1,2,10
1523178180259434,100,10,27,5,1,1,-2,8
1523178180281504,-54,-10,-12,1,-1,-2,-1,-8
1523178180281504,-1,-2,-8,-3,-2,-3,-4,-12
1523178180282254,24,14,19,2,-3,-4,-2,14
1523178180282254,-37,-7,-1,-2,-1,0,-1,1
1523178180296367,67,-30,-2,0,-1,0,0,3
1523178180296367,25,-11,-24,-3,0,0,-1,-6
1523178180304308,48,28,38,-8,-2,-2,0,12
1523178180304308,-43,-2,20,5,2,-1,-1,-27
1523178180319350,1,16,-22,-2,-2,-3,-2,-1
1523178180319350,-66,-26,-7,-4,-4,-2,2,28
1523178180319350,22,4,-5,-1,-1,-1,0,21
1523178180319350,25,-12,-38,1,0,1,4,21
1523178180341650,-40,1,16,1,0,-2,-2,-19
1523178180341650,36,-13,15,-11,-5,-3,-3,-3
1523178180342413,14,14,12,-1,-3,-3,-7,-15
1523178180342413,-70,-11,-38,1,-2,0,2,21
1523178180355904,71,-2,2,-9,0,-1,0,32
1523178180355904,-51,7,22,11,-1,-2,-5,-19
1523178180364671,-28,-6,30,3,0,-2,-1,-7
1523178180364671,12,-4,-1,-7,-3,-3,-2,-15
1523178180378936,-30,12,31,-3,-1,0,0,15
1523178180378936,-9,1,-43,2,-1,-1,-3,-17
1523178180379662,-19,-11,-9,-12,-2,-2,-3,-8
1523178180379662,15,9,-6,3,-2,-2,-7,-7
1523178180402069,10,16,58,1,-2,-2,0,-12
1523178180402069,-42,-12,-11,-7,-2,-2,-1,8
1523178180402069,-21,-8,25,11,6,3,2,-11
1523178180402069,9,-43,-45,4,1,2,3,19
1523178180416057,-64,-5,9,-18,-5,-2,-1,11
1523178180416057,36,11,-16,0,-2,-1,-3,-7
1523178180424025,9,-1,-15,3,-1,0,2,-2
1523178180424025,-1,3,15,16,0,-1,-3,-3
1523178180439130,29,-4,-26,-18,1,1,-1,-4
1523178180439130,-22,-15,56,3,0,-1,0,-4
1523178180439823,-21,2,-50,-2,-3,-1,-4,-10
1523178180439823,18,-5,28,-4,-4,-2,1,12
1523178180461952,44,7,-38,7,-2,-4,-6,33
1523178180461952,25,9,-2,-5,0,-1,-1,25
1523178180461952,18,-6,36,-2,-3,0,-2,-47
1523178180461952,59,-17,-43,-5,0,-1,-4,-10
1523178180475920,-64,12,55,5,-4,-4,-3,-3
1523178180475920,61,25,54,2,1,0,1,-5
1523178180484200,-49,-37,-38,0,-2,-1,-2,10
1523178180484200,51,24,-11,-7,-1,-2,-1,-14
1523178180499293,-29,-47,-39,-5,-3,-1,-3,-15
1523178180499293,18,6,-7,6,0,0,-1,9
1523178180499985,-44,10,28,8,0,1,2,4
1523178180499985,62,17,10,-25,-6,-5,-8,-51
1523178180522129,-38,11,-18,5,2,1,4,-2
1523178180522129,-5,7,27,2,2,-1,-3,-8
1523178180522129,19,-3,-4,3,-1,-1,-1,-3
1523178180522129,-48,-3,-10,-9,1,1,2,14
1523178180536081,92,10,13,17,-1,0,1,19
1523178180536081,-27,-27,-6,-21,-4,-2,3,-22
1523178180544311,30,18,44,0,0,-1,-4,16
1523178180544311,-18,-12,20,5,1,0,1,4
1523178180559366,-19,29,16,5,3,0,1,-7
1523178180559366,-11,-51,-42,-4,0,1,3,0
1523178180559366,93,-4,2,-3,-2,-2,-2,12
1523178180559366,-81,2,8,-2,-2,-2,0,14
1523178180581394,75,12,-1,5,4,2,2,-14
1523178180581394,-1,11,-4,3,-3,-2,-3,12
1523178180582203,-64,-20,46,-11,-3,-2,-5,-25
1523178180582203,53,8,-10,3,-3,-2,-3,13
1523178180595891,-21,-15,-21,-4,-2,-1,-3,-19
1523178180595891,52,19,12,3,0,0,3,45
1523178180611917,-5,2,-74,-5,-1,-3,2,24
1523178180611917,69,7,50,4,-1,-2,-2,35
1523178180618693,-27,-16,-15,1,-1,1,-1,-8
1523178180618693,7,5,-37,-1,-2,-2,-1,-12
1523178180619696,-23,1,8,4,0,1,2,9
1523178180619696,-33,8,-18,-1,-2,-1,-1,-15
1523178180641996,-15,-3,-54,-5,-3,-1,1,13
1523178180641996,-30,0,-22,4,2,-1,-4,-4
1523178180641996,88,3,32,-4,-3,-3,1,-8
1523178180641996,-92,-3,-22,1,-2,0,-4,-10
1523178180656035,-44,-2,32,0,-2,-4,-4,-7
1523178180656035,-21,5,-23,-2,-2,-2,-1,-24
1523178180664458,3,-17,20,3,0,-1,-1,-12
1523178180664458,14,9,14,-2,1,2,4,32
1523178180679526,-8,5,38,10,0,0,-3,-2
1523178180679526,-5,-13,-22,-23,-3,-1,-2,7
1523178180679526,-30,5,4,8,1,1,0,-10
1523178180679526,27,-6,-10,-3,-2,-2,5,20
1523178180701558,-6,-9,24,-3,-1,-1,-2,6
1523178180701558,29,7,-76,18,2,-2,2,-6
1523178180702291,29,27,44,-12,-5,-4,-8,-48
1523178180702291,49,-23,11,-1,-3,0,-1,8
1523178180732659,-55,7,-14,4,-1,-1,0,11
1523178180732659,-9,-3,-4,0,1,0,2,-17
1523178180732659,1,30,3,-3,0,-1,3,40
1523178180732659,-48,-31,-45,0,-1,-2,-4,-27
1523178180739622,23,-4,15,-6,-2,0,1,-14
1523178180739622,-4,7,93,3,-3,-2,-3,-7
1523178180739622,-71,-24,-94,0,0,3,3,12
1523178180739622,3,17,34,2,0,0,-4,-38
1523178180761651,58,-19,-58,-3,0,-1,-2,-11
1523178180761651,-7,10,101,-2,-3,-2,-2,2
1523178180762451,11,-5,31,4,2,2,0,6
1523178180762451,56,4,-14,-2,0,-1,5,41
1523178180791767,-82,-17,-48,-8,-4,-4,-2,1
1523178180791767,9,-3,24,0,-2,-2,-5,36
1523178180792530,-30,-6,-4,-1,0,-1,0,-4
1523178180792530,21,24,30,-1,1,1,1,-3
1523178180799548,21,-25,-28,-5,-2,-3,-4,25
1523178180799548,5,3,-22,-3,-1,0,0,-11
1523178180799548,-15,-2,-11,1,0,-1,-3,3
1523178180799548,-39,9,-23,-6,-2,-2,-3,2
1523178180821897,68,-4,-4,5,1,1,0,-7
1523178180821897,-98,-4,-54,-6,-3,-2,-4,-31
1523178180821897,46,8,17,3,1,-1,-1,-1
1523178180821897,-40,-17,-8,0,1,-2,1,-26
1523178180844887,57,31,41,4,0,-2,-6,-42
1523178180844887,-79,-9,-54,3,-1,2,3,-3
1523178180845673,-1,8,34,-23,-5,-3,-2,-16
1523178180845673,-58,-19,10,12,2,1,0,1
1523178180858962,-9,19,-19,-11,-6,-6,-5,19
1523178180858962,33,-12,3,4,2,0,0,1
1523178180859708,-15,0,22,5,-2,-1,1,2
1523178180859708,-45,2,-5,-2,-1,1,-1,-23
1523178180882052,50,16,39,5,1,3,3,57
1523178180882052,9,-5,-34,-6,0,-2,-2,-10
1523178180882052,2,-3,-25,-1,-4,-4,-1,10
1523178180882052,7,-2,-7,-3,0,-1,-3,-26
1523178180904828,11,15,10,2,0,1,3,7
1523178180904828,55,20,76,-6,-4,-2,-5,-53
1523178180905830,11,-39,-103,-3,0,0,-1,7
1523178180905830,-21,2,-6,3,-4,-1,3,23
1523178180918865,-22,-7,-14,-9,-1,-1,-4,-25
1523178180918865,46,0,-19,2,-1,0,0,30
1523178180919867,-3,-1,-16,-1,-2,-1,-2,-11
1523178180919867,30,18,59,3,-1,-1,0,-8
1523178180941955,-63,-5,21,0,1,1,2,0
1523178180941955,81,5,-8,4,0,-1,-1,-5
1523178180941955,-8,-1,18,-11,-4,-2,-2,18
1523178180941955,-3,7,-17,-3,1,-1,-1,6
1523178180964987,5,-17,-28,-6,-3,-2,-4,10
1523178180964987,40,8,21,5,5,2,2,13
1523178180964987,-8,1,31,14,2,1,1,9
1523178180964987,22,4,-8,-17,-3,-1,-2,-9
1523178180979274,-1,-3,-9,3,-2,0,0,-8
1523178180979274,-13,-9,-15,0,0,0,-1,-18
1523178180980029,12,0,-8,0,0,-4,-1,5
1523178180980029,-65,-10,15,1,1,-2,-2,8
1523178181010320,35,-1,97,1,-4,-2,-2,-65
1523178181010320,-42,-1,-24,-11,0,2,0,21
1523178181010320,41,12,3,8,0,-4,0,1
1523178181010320,44,-16,0,1,-3,-1,-3,3
1523178181025297,-34,3,-42,-2,1,0,3,8
1523178181025297,-29,8,-29,-5,-3,-2,-1,-3
1523178181025297,25,-2,87,-1,2,3,1,-26
1523178181025297,-10,7,-22,-2,-4,-4,-8,-22
1523178181039427,-11,-14,-19,0,1,4,6,-14
1523178181039427,22,6,47,0,-3,-5,-3,-28
1523178181039427,-38,4,-56,2,1,1,-1,-17
1523178181039427,14,-1,24,2,-1,0,1,24
1523178181061444,-7,2,0,-1,-1,-1,-1,2
1523178181061444,-3,-22,15,1,0,-1,1,3
1523178181069268,24,2,-51,0,0,1,2,22
1523178181069268,4,12,64,0,-2,-3,-2,-53
1523178181084561,-62,-7,-13,3,-3,-4,-3,18
1523178181084561,34,-10,-54,-13,-3,-2,-2,9
1523178181085308,-7,1,26,5,1,1,-1,-3
1523178181085308,19,11,-10,-1,-2,-1,2,20
1523178181099604,-64,0,-6,15,2,2,3,9
1523178181099604,5,-10,36,-14,-1,-1,1,-4
1523178181099604,-47,1,-23,-22,-8,-4,-3,14
1523178181099604,-15,2,-32,6,0,-1,-4,-32
1523178181121682,16,-9,12,-4,0,-1,-3,4
1523178181121682,-25,6,22,9,-1,-2,0,3
1523178181122408,-18,-12,-3,-2,0,-1,-3,-12
1523178181122408,56,12,2,-2,1,1,3,11
1523178181144654,-38,-32,-30,-10,-6,-5,-3,31
1523178181144654,59,7,-2,6,1,0,0,33
1523178181145471,9,5,7,1,0,0,-4,-38
1523178181145471,-6,2,3,-4,-3,1,0,14
1523178181158773,40,-10,20,4,2,1,-2,-12
1523178181158773,-51,-9,-34,-3,-1,0,0,16
1523178181159508,-7,-17,0,1,-2,-1,0,8
1523178181159508,-16,-26,-47,-7,-2,0,-5,13
1523178181181842,21,27,57,0,2,-2,-1,-21
1523178181181842,-11,-15,24,0,-1,0,5,-13
1523178181182566,8,2,1,1,-2,-1,0,40
1523178181182566,62,6,-16,-1,1,0,-1,-7
1523178181204857,-27,-3,3,-5,-2,0,-2,15
1523178181204857,-42,18,22,6,-4,-2,-3,-15
1523178181205629,38,12,-37,-10,0,1,-1,0
1523178181205629,-15,-29,-64,5,0,-1,4,28
1523178181218666,24,7,10,-4,-3,-3,-3,-22
1523178181218666,2,5,-11,2,2,0,0,24
1523178181219664,-33,-5,-42,-5,-3,-3,-10,-88
1523178181219664,-38,2,4,1,0,-2,-2,26
1523178181241956,72,3,12,-1,-1,-1,0,2
1523178181241956,43,2,-69,3,-1,-3,-4,-26
1523178181241956,-32,-6,58,-1,-2,-1,1,17
1523178181241956,3,-3,-2,-5,-3,-4,-1,-17
1523178181265074,19,3,-29,0,1,1,1,-17
1523178181265074,1,10,27,-4,-4,-2,-3,-5
1523178181265789,-44,-21,-14,4,0,1,3,5
1523178181265789,43,17,19,3,0,-1,-1,8
1523178181278891,-24,-7,21,-5,0,0,2,12
1523178181278891,6,-12,9,-1,-2,0,-3,5
1523178181286845,50,8,-7,-1,-1,-2,-3,16
1523178181286845,-26,5,38,-1,-2,-1,0,-12
1523178181301148,13,7,-11,0,-1,-2,-1,4
1523178181301148,17,-13,-9,-3,-3,-2,-2,-35
1523178181301884,-55,-5,-14,3,-3,0,-1,21
1523178181301884,50,2,6,-6,2,-3,-6,-38
1523178181325221,-53,8,-61,2,-2,-2,-3,1
1523178181325221,50,-10,90,-1,-3,-2,3,62
1523178181325221,19,14,-29,-3,-3,-2,-2,-35
1523178181325221,-35,-8,-10,0,1,4,4,2
1523178181338283,72,-9,-26,0,-1,-1,-6,13
1523178181338283,-11,5,1,-3,-2,-1,-4,-10
1523178181347003,12,9,19,12,3,-1,1,2
1523178181347003,-32,-23,-28,2,-1,2,0,9
1523178181362098,-32,17,-44,-8,-3,-3,-1,-14
1523178181362098,-17,-16,-2,5,1,0,2,-3
1523178181362098,-5,-15,23,-2,1,0,-3,11
1523178181362098,12,-1,-9,3,-3,-4,-5,-9
1523178181384353,18,0,7,-8,1,3,4,23
1523178181384353,5,11,20,3,-2,-2,-3,-18
1523178181385106,5,-9,-12,-1,-2,-2,0,-11
1523178181385106,0,-3,16,-3,-1,0,-2,11
1523178181407382,-51,-8,18,-2,-1,-2,-1,13
1523178181407382,-17,14,-6,-3,0,-1,-2,-22
1523178181408169,14,0,11,1,-1,-1,2,39
1523178181408169,-11,15,-22,-6,-6,-3,-2,-11
1523178181421398,27,6,2,0,1,-1,-1,11
1523178181421398,82,9,-21,-6,-3,-2,-3,3
1523178181422209,-2,1,-20,-1,-1,-2,-1,15
1523178181422209,9,-3,-2,-2,-2,-3,-2,31
1523178181444512,9,-3,39,3,-1,-2,-2,-8
1523178181444512,1,9,-26,-4,1,0,1,-6
1523178181445264,-19,3,14,-5,-2,0,-2,-6
1523178181445264,12,6,35,4,1,0,2,-1
1523178181458608,10,11,22,-8,-5,-6,-5,-34
1523178181458608,-23,-15,1,5,-1,-1,-2,7
1523178181466571,4,-3,-27,-1,2,-1,0,-13
1523178181466571,9,18,46,3,-1,-1,1,-2
1523178181481618,-23,-25,-40,1,-1,0,1,-10
1523178181481618,-7,-11,7,-3,-4,-3,-2,13
1523178181482363,-35,2,18,-2,-4,-2,-6,-49
1523178181482363,-10,-1,9,-1,2,1,-1,-1
1523178181504734,87,-9,-42,-2,-2,0,-1,-19
1523178181504734,-92,-29,-8,0,1,0,-3,-43
1523178181505430,29,38,18,1,2,1,4,-4
1523178181505430,-10,-35,-12,-7,-2,-2,-1,-14
1523178181518457,15,9,20,2,-3,-3,-7,1
1523178181518457,-18,3,-21,1,1,1,1,9
1523178181526743,124,14,-4,0,0,0,1,7
1523178181526743,0,-19,-20,-4,-2,0,1,-7
1523178181541774,-12,2,-15,2,0,-1,5,29
1523178181541774,17,28,45,0,-1,0,0,11
1523178181542526,-3,-42,-46,-5,-3,-2,-2,15
1523178181542526,-19,10,-54,0,-1,-2,-2,6
1523178181564838,-23,-6,23,4,1,2,1,10
1523178181564838,-49,-27,22,-3,-1,0,1,2
1523178181565584,-28,4,34,2,0,1,1,-2
1523178181565584,12,-4,13,6,-3,-1,-2,-22
1523178181578882,-10,6,4,7,2,0,-2,7
1523178181578882,-12,20,-54,-4,-3,-3,-2,-1
1523178181586646,89,3,-3,-1,-3,-1,0,-3
1523178181586646,-42,-9,40,-1,0,-1,1,-5
1523178181601681,46,-6,53,13,3,0,0,-7
1523178181601681,33,-9,-47,-33,-1,2,8,17
1523178181601681,-18,3,44,16,-2,-2,-5,18
1523178181601681,-29,6,10,-1,2,0,3,29
1523178181625014,-16,1,2,-5,-2,-3,-4,-69
1523178181625014,-14,1,22,5,-2,-3,-1,13
1523178181625745,-60,2,13,-7,0,0,-1,-5
1523178181625745,-34,-14,-34,-5,-2,-3,0,33
1523178181647803,3,18,14,-1,-2,-2,0,7
1523178181647803,-14,-16,-15,12,5,0,1,16
1523178181647803,-75,6,65,-6,-3,-2,-4,-48
1523178181647803,14,3,-65,-2,-2,-3,-5,7
1523178181662110,15,-14,1,-6,2,2,2,8
1523178181662110,29,7,30,5,-2,-2,-4,-21
1523178181662110,6,5,-10,-1,0,-1,1,31
1523178181662110,5,0,8,-2,0,2,6,17
1523178181684903,6,13,-78,-8,-5,-4,0,13
1523178181684903,-18,-13,2,-2,-3,-3,-2,-11
1523178181684903,-9,-17,-37,-1,-2,0,-4,-4
1523178181684903,-45,4,10,-3,-2,-2,-7,-32
1523178181707257,45,2,-21,-2,-1,0,-3,-4
1523178181707257,-37,-3,22,5,2,-1,0,10
1523178181707964,127,-7,-28,-6,0,-2,-2,-19
1523178181707964,1,-2,18,1,-2,-1,-1,-11
1523178181722000,-41,-23,-17,-4,-3,-2,0,22
1523178181722000,50,27,-42,3,-1,-3,-4,-15
1523178181722000,7,-9,19,-10,-2,-1,1,11
1523178181722000,54,2,-1,8,0,-1,0,-9
1523178181745265,-57,-16,22,3,-2,-1,0,0
1523178181745265,17,7,-63,-7,1,-1,-1,6
1523178181745265,1,8,1,5,1,0,2,17
1523178181745265,-14,-1,8,-10,-4,-2,-4,-21
1523178181767395,-7,9,30,-2,-3,-3,-2,-1
1523178181767395,-14,-2,13,3,-1,0,-2,7
1523178181768124,-10,-5,-38,4,2,0,2,-8
1523178181768124,3,-17,1,-2,1,0,0,2
1523178181781424,44,9,27,-5,0,0,0,3
1523178181781424,-19,-23,4,2,-4,-3,-3,-23
1523178181782164,-3,2,-23,-16,-4,1,-1,-38
1523178181782164,18,6,5,2,-2,0,-4,0
1523178181804504,-10,-21,-46,-2,0,0,-1,-5
1523178181804504,43,5,5,4,1,0,1,17
1523178181805221,-18,-3,39,3,-3,-3,-2,0
1523178181805221,11,10,33,-2,0,-3,1,-3
1523178181827533,-30,-8,6,-5,-2,1,-1,-6
1523178181827533,18,-8,-9,-3,-2,0,-1,-6
1523178181828285,-25,0,13,6,0,0,0,10
1523178181828285,86,13,-95,-7,-3,-1,-4,-1
1523178181841540,-52,-16,-7,-3,-3,-3,-2,13
1523178181841540,-10,1,25,-1,0,-2,-1,-2
1523178181842323,-11,0,-10,-1,-1,-2,0,12
1523178181842323,-18,2,21,1,-2,-2,2,9
1523178181872655,31,13,-17,2,4,2,0,5
1523178181872655,-25,-5,13,-1,0,1,0,12
1523178181872655,3,-17,35,-1,-2,-4,-5,-39
1523178181872655,-24,-30,5,2,1,0,1,3
1523178181887724,8,22,-29,4,-1,0,-1,1
1523178181887724,-17,2,6,-4,-1,-1,-1,-6
1523178181887724,75,10,-7,4,1,0,2,25
1523178181887724,-25,-8,20,-2,-1,-1,-1,-5
1523178181901477,62,12,23,-1,-2,-3,-1,-21
1523178181901477,1,-3,-46,-3,-2,-3,-3,-5
1523178181902478,-15,3,2,-1,-3,-3,-4,-14
1523178181902478,-21,0,-30,0,2,4,1,-11
1523178181924804,41,5,29,-3,0,0,-1,18
1523178181924804,11,19,43,6,1,2,1,1
1523178181925545,4,-32,-63,-6,-4,-1,-2,-3
1523178181925545,2,18,17,2,-1,-2,-4,14
1523178181947252,-21,-4,14,1,2,1,1,1
1523178181947252,78,4,-13,-4,-6,-3,-3,1
1523178181947991,-55,-7,77,10,1,-1,-4,12
1523178181947991,77,4,-84,-9,0,-1,0,0
1523178181962025,-24,-24,-54,-6,-4,-3,-2,-32
1523178181962025,-8,-14,-38,-1,3,1,-2,-28
1523178181962025,-44,27,71,9,-2,1,3,12
1523178181962025,13,-19,-34,-9,1,0,-1,3
1523178181985083,2,8,15,2,-4,-2,0,13
1523178181985083,-25,3,31,-2,0,-3,-2,-3
1523178181985083,-22,-14,-36,-1,2,0,1,12
1523178181985083,21,8,69,9,-1,-1,0,9
1523178182007364,10,-12,-73,-11,-4,-3,-4,-24
1523178182007364,-26,2,50,2,-2,-1,1,14
1523178182008148,46,17,9,-2,-1,0,-3,1
1523178182008148,21,-14,-51,-4,-1,-2,-2,3
1523178182021480,59,-2,24,0,1,0,-1,2
1523178182021480,12,20,2,1,-1,1,-1,-9
1523178182022184,7,9,-19,-7,-4,-3,-3,9
1523178182022184,-16,-9,65,2,-2,-3,-4,-20
1523178182044543,-30,8,9,1,1,0,-2,-2
1523178182044543,-5,-14,-26,0,-3,-2,-1,14
1523178182045247,17,-16,-31,-2,2,2,5,37
1523178182045247,-19,13,34,3,-1,1,0,-1
1523178182067321,-42,7,20,1,-2,-3,-3,-29
1523178182067321,38,4,43,-4,-1,0,-2,-9
1523178182067321,-32,-13,-79,-4,0,-2,-6,-48
1523178182067321,0,4,59,2,-1,-1,-2,-8
1523178182081632,24,-10,15,0,1,2,3,2
1523178182081632,-77,-4,-55,1,1,0,1,6
1523178182082343,17,5,61,-3,-4,-3,-1,-3
1523178182082343,24,7,-16,0,0,1,2,-20
1523178182104719,-8,12,52,-1,-3,-4,-4,11
1523178182104719,-9,-47,27,-1,-1,1,0,26
1523178182106411,54,-1,-63,-8,-2,-3,2,17
1523178182106411,-28,15,27,3,1,-1,-3,12
1523178182127717,-42,7,53,-1,0,0,1,25
1523178182127717,5,9,-3,-3,-1,-1,1,-14
1523178182127717,-22,-7,-9,2,1,3,2,-1
1523178182127717,-15,6,-34,-2,-2,0,-3,-19
1523178182140742,33,2,-35,0,0,0,0,-1
1523178182140742,59,2,-38,0,2,1,-1,-2
1523178182149626,-2,-15,10,-2,-4,-4,-6,-44
1523178182149626,-63,6,-62,-5,-3,-2,-2,-10
1523178182164855,-24,-7,-13,3,0,0,0,10
1523178182164855,-26,1,-49,-3,-3,-3,-1,-21
1523178182166566,-4,10,45,4,-2,0,3,-8
1523178182166566,24,-1,0,-1,-3,0,-1,23
1523178182187758,-13,-31,-28,-5,-1,0,0,-13
1523178182187758,-12,14,59,1,1,0,0,1
1523178182188628,23,13,-16,-2,-2,-1,-2,-26
1523178182188628,-75,-38,16,-3,0,-1,0,23
1523178182200659,8,7,-9,-3,-5,-4,-3,-31
1523178182200659,3,-2,1,-9,-2,-2,0,3
1523178182209687,-20,5,-19,11,2,1,3,4
1523178182209687,12,18,38,-2,-1,-3,-2,-5
1523178182224980,7,-6,-7,0,-1,1,0,5
1523178182224980,6,25,43,-1,-2,-4,-2,-3
1523178182225725,0,-17,37,-2,4,2,2,16
1523178182225725,81,0,-70,-4,-2,0,0,28
1523178182247041,85,0,27,0,-1,1,5,41
1523178182247041,-40,20,-50,-2,-4,-5,-8,-44
1523178182248787,7,-14,87,-3,-2,-3,-1,18
1523178182248787,0,5,31,4,0,0,1,2
1523178182261026,-5,-25,-10,-4,-2,0,2,10
1523178182261026,8,-7,-23,2,-1,0,-1,-10
1523178182269845,-26,3,-21,0,0,0,1,0
1523178182269845,-24,-23,2,1,1,0,-2,-19
1523178182284891,5,11,2,2,0,1,0,-11
1523178182284891,-12,1,14,-3,-3,-2,-1,20
1523178182285883,-6,8,-16,1,0,-2,-4,-5
1523178182285883,-7,0,18,-3,-3,-2,0,8
1523178182307187,-4,11,3,4,1,0,-1,-2
1523178182307187,28,-5,-28,-1,-2,0,0,11
1523178182308944,-11,-5,-29,-2,0,1,1,10
1523178182308944,83,-5,-26,0,-3,0,1,11
1523178182321286,-14,32,48,1,2,0,-2,-5
1523178182321286,46,-35,29,2,-2,-2,1,8
1523178182330002,27,13,-20,-7,-4,-2,0,50
1523178182330002,16,27,-9,-2,-1,-2,-3,-47
1523178182345269,-58,-27,-37,5,-1,0,0,-1
1523178182345269,19,23,100,-2,-4,-2,-2,14
1523178182346051,3,8,37,0,0,-1,0,1
1523178182346051,53,-7,4,0,0,-5,-3,11
1523178182367099,17,17,13,-1,0,-1,-3,11
1523178182367099,6,25,-18,4,1,2,-1,4
1523178182369109,-52,-35,-35,-1,-2,-2,-4,-13
1523178182369109,-94,-14,12,-3,-4,-2,-1,0
1523178182381136,7,-3,-33,0,1,0,-1,-16
1523178182381136,-28,-19,-8,-1,-1,-3,-3,-22
1523178182390162,10,15,-22,-3,-4,-2,-5,-8
1523178182390162,-16,-13,-1,-5,-2,-1,-2,-4
1523178182405203,-25,-11,-15,-2,1,2,3,32
1523178182405203,25,-10,-46,0,-1,-1,-2,0
1523178182406205,5,19,36,2,-1,-1,-1,-13
1523178182406205,-60,-2,44,-3,-2,-2,-1,-10
1523178182427525,7,-4,12,1,-3,-2,0,6
1523178182427525,-19,-9,-11,-1,-1,0,-1,-23
1523178182428262,-12,17,5,0,0,0,-1,-24
1523178182428262,21,-24,-21,1,0,-1,0,27
1523178182450320,-71,-3,-28,-5,-4,-4,0,30
1523178182450320,55,34,83,3,1,0,2,4
1523178182451324,-5,-21,-48,-2,-2,-1,0,-2
1523178182451324,9,1,16,1,-1,1,1,4
1523178182464657,4,-8,-29,0,-1,0,-1,-26
1523178182464657,9,-14,4,1,-2,-3,1,37
1523178182466365,-10,-10,-14,-8,-4,-3,-2,-13
1523178182466365,-13,16,-47,1,1,1,1,1
1523178182487821,1,-13,49,-2,-2,-2,-2,-29
1523178182487821,-24,-1,23,1,-2,0,1,7
1523178182488837,17,0,-45,2,0,0,0,4
1523178182488837,-21,2,-14,-2,1,0,-1,10
1523178182500868,43,21,-18,-3,-1,0,-2,-49
1523178182500868,62,-10,-33,-1,0,0,1,-35
1523178182509892,-23,-3,37,2,1,2,0,13
1523178182509892,62,6,-20,0,-2,2,4,-10
1523178182524926,-4,17,22,-2,-3,-3,-5,-20
1523178182524926,35,-9,-2,-1,2,1,2,5
1523178182525928,47,-29,-14,-8,-4,-1,-1,-1
1523178182525928,-66,5,36,2,0,-1,-1,-11
1523178182546284,9,13,-68,-6,-2,-2,-1,-13
1523178182546284,-69,-14,-15,-3,-4,-4,-4,15
1523178182555007,25,15,-51,0,-1,0,-2,6
1523178182555007,-6,-3,41,2,0,1,-1,0
1523178182570267,1,11,-27,-5,-2,-1,-4,30
1523178182570267,64,1,-70,-4,-1,-1,0,17
1523178182571051,10,-3,26,0,1,-1,-2,17
1523178182571051,-12,14,-25,0,-4,-4,-5,1
1523178182584082,10,-19,-5,-4,-3,0,2,6
1523178182584082,6,-3,1,0,1,0,0,21
1523178182586089,-45,10,45,3,-2,-1,-1,12
1523178182586089,40,-11,-21,-2,0,-1,0,-11
1523178182607351,6,9,51,1,-1,0,-1,5
1523178182607351,-59,-14,-20,-5,-3,1,0,-7
1523178182608154,-4,-5,15,3,1,1,2,-18
1523178182608154,-16,3,19,3,4,1,1,-15
1523178182630298,-2,1,-47,-9,-6,-6,-4,-23
1523178182630298,-1,9,5,0,0,-1,2,4
1523178182631211,-26,-3,-26,1,0,-1,2,4
1523178182631211,14,1,34,-4,-4,0,1,2
1523178182644246,24,-5,-51,-1,-1,-3,-7,1
1523178182644246,-9,4,-6,-2,0,-1,-2,-17
1523178182646251,10,10,-9,0,-1,-2,-2,-13
1523178182646251,-21,-9,-17,0,-3,-1,-1,2
1523178182667310,-12,-3,45,2,1,0,3,6
1523178182667310,-50,-1,-52,-1,-2,-3,-5,-11
1523178182668309,11,0,45,-3,-3,-1,-1,2
1523178182668309,19,-4,-76,-1,1,-2,1,18
1523178182689659,26,-5,6,-1,-2,-1,0,5
1523178182689659,-16,-2,34,0,-1,0,-1,-6
1523178182691372,2,1,-4,-2,-1,-2,0,0
1523178182691372,-23,0,-10,2,1,1,0,-36
1523178182704087,51,-13,-40,-8,-4,-2,2,70
1523178182704087,-42,1,21,1,-2,-1,-3,-36
1523178182711080,84,-7,-3,1,0,-1,-1,0
1523178182711080,7,1,14,-5,-4,-2,-4,1
1523178182727128,-17,15,37,4,3,1,3,3
1523178182727128,15,-12,10,1,-1,-1,2,2
1523178182728863,-35,15,-52,2,-1,-1,-2,0
1523178182728863,27,3,62,1,-2,-3,-4,-25
1523178182750112,9,-13,2,4,1,0,-2,1
1523178182750112,3,28,18,2,1,0,0,20
1523178182750924,-6,-46,-48,-5,-5,-2,-1,-17
1523178182750924,5,11,37,3,0,0,1,6
1523178182764233,-34,-12,-49,2,-2,-1,-2,-22
1523178182764233,106,7,15,-6,-2,1,3,-1
1523178182771238,67,33,32,3,0,-1,-3,14
1523178182771238,71,-9,-6,-4,-2,-1,-1,-2
1523178182787313,27,-13,27,2,3,2,2,-4
1523178182787313,-23,-10,-6,2,1,1,-3,-21
1523178182789023,0,11,10,-5,-2,-3,-1,8
1523178182789023,-20,-27,-91,-7,-4,-2,-3,19
1523178182810121,23,-2,34,1,0,-2,0,30
1523178182810121,-14,-6,-9,0,-2,-2,-2,3
1523178182811084,-44,-7,1,0,0,0,-2,4
1523178182811084,-12,3,-24,-2,0,-1,-1,17
1523178182832420,-68,-8,-17,-2,-1,-1,-1,-3
1523178182832420,-37,4,19,-5,-3,-3,-3,3
1523178182834142,-44,2,-9,-1,-3,-2,0,-8
1523178182834142,89,-5,-11,3,-1,-1,-1,29
1523178182847462,4,26,59,-5,-4,-3,-3,-46
1523178182847462,-13,-8,4,0,-1,-2,-1,-5
1523178182848180,-30,8,-6,1,0,1,1,-15
1523178182848180,-23,-16,-5,-6,-1,1,-1,-14
1523178182870258,-18,-2,17,-1,-2,-1,-2,-1
1523178182870258,10,0,-24,0,-3,-4,-8,-29
1523178182871247,1,-6,48,-3,1,-1,1,10
1523178182871247,-20,-6,-78,-6,-2,-3,-2,-9
1523178182884275,1,2,15,0,0,0,-1,-22
1523178182884275,-6,-12,-16,4,1,1,5,7
1523178182890293,3,-9,-5,1,1,1,0,-3
1523178182890293,16,13,48,7,1,-1,1,-21
1523178182907338,44,-22,1,-6,-2,0,-4,21
1523178182907338,45,8,-18,-5,-2,-1,-1,17
1523178182909341,16,-3,1,3,-2,-1,0,34
1523178182909341,55,5,12,-2,0,-1,-3,1
1523178182929666,2,12,-14,0,1,-2,2,-4
1523178182929666,-22,-3,12,-3,1,-1,3,10
1523178182931401,39,-25,-15,0,-2,-1,-4,-31
1523178182931401,-36,26,39,3,0,-2,-1,-7
1523178182944576,-29,-16,1,-2,-3,-3,-1,2
1523178182944576,32,-1,-9,1,-1,-3,-3,17
1523178182950813,-32,8,16,-1,0,-1,-2,0
1523178182950813,-23,16,37,2,2,0,1,9
1523178182966862,-13,-72,-58,0,-3,0,-3,-35
1523178182966862,-117,-6,15,1,-1,-1,-4,78
1523178182968868,62,16,-8,-3,-2,-1,-2,-44
1523178182968868,-26,3,19,-5,-1,-2,-1,-22
1523178182990203,-8,15,-20,-1,1,-1,1,21
1523178182990203,22,-10,37,1,-3,1,0,-15
1523178182990921,0,-7,-14,-4,-1,-1,1,29
1523178182990921,-12,8,0,-1,-2,-2,-4,-36
1523178183012241,46,22,-65,-3,0,-1,3,-11
1523178183012241,4,3,51,-2,-1,-1,-2,-9
1523178183013987,-24,15,-21,5,0,-1,0,-3
1523178183013987,-32,-27,3,-8,-5,-3,0,9
1523178183027272,34,-7,-18,3,1,1,0,18
1523178183027272,-56,0,-10,-5,-1,1,-5,-63
1523178183029023,11,-8,-6,-4,-2,-3,0,9
1523178183029023,6,-21,8,1,-1,0,-3,29
1523178183049316,-62,13,7,-3,-2,-1,-4,-1
1523178183049316,-24,14,-3,0,2,1,5,9
1523178183051084,-38,-3,7,-3,-3,-5,-7,-35
1523178183051084,18,-1,-13,2,3,3,4,16
1523178183063381,-48,6,49,-1,-3,0,-2,-9
1523178183063381,36,-10,-45,-3,-1,-2,1,-2
1523178183072137,-39,6,21,-2,0,3,2,25
1523178183072137,83,25,-11,7,2,1,3,29
1523178183087420,108,9,37,2,-2,-2,-3,-3
1523178183087420,71,-13,24,-2,-2,0,-2,11
1523178183088182,-6,-29,-36,-6,-2,-3,-4,-11
1523178183088182,-27,4,-9,-1,0,-2,-3,19
1523178183109433,-90,4,15,-2,-1,-1,1,-4
1523178183109433,-14,-11,-22,-1,1,0,-2,-17
1523178183111244,22,-14,-9,1,3,2,1,-2
1523178183111244,-8,14,44,-2,-3,-3,-1,-18
1523178183123508,-5,17,40,1,-1,-2,-2,-2
1523178183123508,-4,-25,-77,-5,-2,-4,-4,-22
1523178183132302,-15,15,97,4,1,2,1,18
1523178183132302,-29,-24,-68,-3,-2,-1,-2,-15
1523178183147618,-60,3,35,7,5,4,5,-31
1523178183147618,31,21,2,-5,-5,-3,-3,1
1523178183148349,-33,-3,-41,-1,0,-1,0,-7
1523178183148349,-26,-12,-2,-3,-4,-3,-1,-3
1523178183170401,23,-11,23,0,-4,-3,-2,-30
1523178183170401,-10,-8,-9,2,0,1,0,-17
1523178183171400,5,1,-23,-1,-1,-2,-4,8
1523178183171400,-32,1,25,-6,-4,1,1,-13
1523178183183440,40,-7,-77,-5,-2,-2,-1,35
1523178183183440,-24,1,-15,-2,-1,-1,-2,-40
1523178183192461,67,16,14,4,1,1,-1,18
1523178183192461,11,-13,21,-1,-3,-3,-2,-4
1523178183207743,12,20,64,3,3,0,-3,-4
1523178183207743,58,-15,-34,-3,-1,-3,-2,33
1523178183208500,-95,-5,27,-3,-1,-1,1,-15
1523178183208500,21,-3,-9,0,1,-1,-1,-4
1523178183230689,20,-9,-27,0,-2,0,-2,3
1523178183230689,2,16,21,2,0,-3,-1,3
1523178183231562,28,-13,-34,-8,-4,-4,-3,-17
1523178183231562,1,12,28,2,-1,-1,-2,6
1523178183243875,-15,-19,-13,-1,-2,-2,-5,9
1523178183243875,-29,-8,0,-4,0,0,1,3
1523178183258722,46,12,23,1,0,0,4,66
1523178183258722,-15,-8,-22,-11,-3,-2,-4,-38
1523178183266661,55,20,-36,-10,-2,0,1,10
1523178183266661,6,3,69,18,-3,-4,-4,20
1523178183268659,-21,-23,-50,-3,-2,-2,1,6
1523178183268659,9,13,51,5,4,1,2,3
1523178183289979,-25,-12,-73,-15,-4,-3,-1,1
1523178183289979,47,1,-43,-2,-2,1,2,10
1523178183290722,-101,8,100,2,-2,0,-2,-39
1523178183290722,28,-5,-33,0,-1,-3,-4,-4
1523178183303948,14,-8,8,1,-1,-1,-1,-20
1523178183303948,-40,17,-44,-2,2,1,0,3
1523178183312049,45,-8,6,0,0,-2,1,-11
1523178183312049,24,15,-16,-1,0,1,0,6
1523178183327075,-32,-3,5,1,-1,0,-1,0
1523178183327075,-15,15,14,0,-2,-2,-1,4
1523178183328822,36,-22,-21,-3,-3,-3,-1,-7
1523178183328822,3,-1,27,1,-1,-1,-1,-14
1523178183349881,16,31,-43,-9,-4,-3,-2,28
1523178183349881,-18,-24,-20,-2,1,0,-3,-17
1523178183350877,23,14,28,-3,-4,-2,0,-7
1523178183350877,-65,-24,-55,-2,-3,-4,-3,21
1523178183363173,16,-4,69,6,-1,-1,-4,-42
1523178183363173,-29,-3,20,-11,-4,0,2,17
1523178183372112,-2,40,-1,3,1,-1,-5,4
1523178183372112,3,-55,-21,-4,-4,-1,-2,5
1523178183387306,-9,8,21,8,1,1,-2,-22
1523178183387306,1,-3,-31,-6,2,2,-1,11
1523178183388983,30,9,44,-2,-3,-3,-1,-14
1523178183388983,-31,25,-6,3,1,2,-1,-2
1523178183410189,-8,-13,17,1,0,-1,0,14
1523178183410189,4,-24,-42,0,0,0,3,-20
1523178183411039,90,2,-27,-3,-3,-2,-2,10
1523178183411039,18,7,16,0,2,0,-3,-8
1523178183423291,-1,-9,-45,-2,-2,-2,1,7
1523178183423291,0,-9,60,9,2,3,2,-3
1523178183432098,-31,-19,-97,-7,-2,0,0,-2
1523178183432098,84,5,65,-3,-4,-3,0,46
1523178183447398,-20,3,-35,1,1,-1,0,2
1523178183447398,-11,9,32,0,-4,-5,-4,-12
1523178183448140,-23,0,-23,-6,0,0,-1,-10
1523178183448140,-9,-22,18,-3,-1,0,2,-5
1523178183470230,-39,13,11,4,1,1,-2,5
1523178183470230,47,-6,-31,-3,-2,-2,-1,2
1523178183471202,-31,4,6,-6,-2,0,-1,-10
1523178183471202,-31,1,-32,3,0,0,0,-9
1523178183483235,74,-4,50,1,-2,0,0,17
1523178183483235,-54,14,15,-1,-3,-4,-3,-10
1523178183492254,0,-19,-77,1,-2,-3,-3,1
1523178183492254,-26,5,21,0,-2,1,0,-6
1523178183507550,24,4,16,-5,-2,-2,-4,26
1523178183507550,-6,-1,34,-1,-1,-1,-3,-2
1523178183508299,-15,2,-44,-3,0,-1,-1,11
1523178183508299,-12,12,3,1,0,0,-2,-16
1523178183529609,1,-29,-11,-5,-2,-3,-3,-24
1523178183529609,23,-2,-18,-3,-2,0,-1,9
1523178183536424,-16,0,33,3,-3,0,0,5
1523178183536424,17,16,-31,-3,2,-1,0,-16
1523178183552412,-64,11,66,2,-2,-1,1,1
1523178183552412,-6,-20,-58,-5,0,0,-2,-7
1523178183553417,127,1,21,2,-2,-1,-3,-23
1523178183553417,-6,-3,8,0,0,-1,-1,10
1523178183567452,-7,-4,-79,-4,1,0,3,22
1523178183567452,97,27,89,4,-1,-4,-3,17
1523178183568456,-63,-22,-4,1,0,1,0,11
1523178183568456,-9,22,-37,-4,-3,-2,-1,-9
1523178183589759,-17,-5,30,1,0,0,1,-6
1523178183589759,-18,-22,-39,-7,-1,-1,0,-16
1523178183591518,7,0,32,7,3,0,-1,-23
1523178183591518,6,2,28,-2,-2,-2,0,4
1523178183612752,2,-4,-5,0,0,-1,-4,-20
1523178183612752,28,8,13,1,0,1,3,22
1523178183613583,-31,17,87,1,-1,-2,-3,-29
1523178183613583,102,-8,-56,-7,-2,-3,-1,1
1523178183627735,47,8,51,5,2,1,0,-7
1523178183627735,48,-32,-41,-1,0,0,-3,25
1523178183628617,-26,8,67,-2,-4,-5,0,5
1523178183628617,11,8,-10,4,0,-2,0,14
1523178183649679,24,-31,-6,-7,-5,-1,-2,-10
1523178183649679,-18,19,34,3,0,1,1,-1
1523178183650673,-37,-10,-73,-4,1,1,1,11
1523178183650673,-29,-7,3,-3,-4,-5,-6,-1
1523178183672735,-2,4,-1,0,0,1,5,28
1523178183672735,-9,30,43,1,-1,0,-2,-22
1523178183673738,11,-30,-40,-4,-1,-2,-3,-11
1523178183673738,4,-4,31,-5,-2,-1,-1,-7
1523178183687064,-76,-3,-45,3,2,0,7,21
1523178183687064,-48,11,2,-5,-4,-6,-10,-32
1523178183693929,-3,21,29,-1,-1,0,-1,18
1523178183693929,-3,-14,-58,1,1,2,0,-10
1523178183710100,28,10,-1,-1,-1,-3,-1,-6
1523178183710100,-41,-42,-12,-1,-1,-2,-2,16
1523178183710835,-14,18,44,3,2,0,-1,-8
1523178183710835,-35,-35,-19,-5,-2,-1,-2,-11
1523178183732238,14,13,-43,-4,-2,-3,-4,-1
1523178183732238,0,13,-1,-1,-2,-2,-2,-45
1523178183733897,49,15,-70,-4,-2,-3,-5,1
1523178183733897,-17,-4,98,3,-2,0,1,8
1523178183747124,-28,-19,-47,-7,-3,-1,-5,-12
1523178183747124,9,-9,-19,-1,1,0,3,-3
1523178183753224,67,7,49,1,1,2,5,21
1523178183753224,13,23,-48,-3,-2,-4,-3,-11
1523178183770311,-6,-4,-4,-4,-2,0,-2,15
1523178183770311,46,15,1,2,0,0,1,1
1523178183770995,-62,-18,16,0,3,1,2,16
1523178183770995,44,-13,-10,-1,2,2,1,4
1523178183792324,2,-10,14,-1,-2,-1,-3,-35
1523178183792324,4,17,19,1,0,-1,-2,44
1523178183793057,20,-9,10,-3,-3,-4,-4,-36
1523178183793057,-29,0,-58,-1,0,-2,-4,0
1523178183815302,71,-3,54,7,1,1,1,-15
1523178183815302,16,4,12,-6,-1,1,4,-5
1523178183816116,-81,-25,-23,-3,-3,-2,-6,-12
1523178183816116,-24,17,-14,0,-1,2,-2,-10
1523178183830360,-3,9,18,-1,-1,-2,0,-8
1523178183830360,-26,-1,-26,-2,-3,-2,-2,-5
1523178183831159,19,-27,-32,-3,-1,0,1,29
1523178183831159,-19,-2,39,-1,-1,1,1,-20
1523178183852209,-9,3,5,2,0,-1,-3,-6
1523178183852209,-18,10,-14,-6,-3,-3,-1,7
1523178183853263,7,-16,-89,1,-1,1,-1,29
1523178183853263,-39,20,32,-2,-2,-1,-3,-3
1523178183866252,-16,-23,-7,0,-2,-1,-7,11
1523178183866252,34,9,16,2,-2,-2,-2,-18
1523178183873526,-10,3,-27,-5,0,-2,2,-10
1523178183873526,-32,0,18,-1,3,-2,-2,5
1523178183889556,-3,34,-3,0,-2,-1,0,19
1523178183889556,-19,-59,-52,-6,-1,-2,-3,9
1523178183891318,19,15,41,4,1,-1,-1,-20
1523178183891318,25,-6,-35,0,-2,-1,1,13
1523178183912644,-2,4,36,-1,-1,0,3,-3
1523178183912644,-24,28,71,2,-2,-2,-4,-58
1523178183913377,-14,7,19,-1,-2,-1,-3,3
1523178183913377,60,8,-42,-4,-1,0,2,20
1523178183926679,-5,10,30,2,0,-1,1,-12
1523178183926679,59,0,-8,-2,-1,2,1,15
1523178183933474,6,0,1,-1,-1,-1,-1,-6
1523178183933474,-57,24,45,3,-2,0,-1,4
1523178183949470,2,-22,-43,-3,-1,-1,-1,-9
1523178183949470,-16,-24,-49,-3,-1,1,-1,36
1523178183951474,-11,-1,-6,-2,-4,-2,-3,-6
1523178183951474,23,-5,18,1,0,2,2,0
1523178183972769,9,5,-3,-5,-2,-2,0,13
1523178183972769,19,-4,0,1,1,-2,0,20
1523178183973533,-75,-17,4,1,-1,-1,-1,-2
1523178183973533,-5,-12,6,-2,2,1,0,-9
1523178183986887,-4,1,37,0,-1,-1,3,18
1523178183986887,7,7,-43,-5,1,1,4,-13
1523178183993849,119,9,-5,-2,-3,-3,-3,19
1523178183993849,-29,-21,14,0,-3,-3,-2,-6
1523178184009887,18,9,-6,-5,0,1,1,-1
1523178184009887,-34,-29,62,6,4,4,3,-7
1523178184010635,2,-11,-14,-3,-1,1,3,39
1523178184010635,-32,3,24,2,-1,-3,-6,-12
1523178184031959,11,-9,-91,-2,-2,-3,-2,0
1523178184031959,2,9,69,-1,-2,-1,-2,20
1523178184033692,-13,30,36,0,0,1,-1,-15
1523178184033692,-15,-20,-20,-4,-2,-1,1,29
1523178184046023,-23,16,12,-4,-3,-3,-7,-26
1523178184046023,-1,-19,18,0,-4,-5,-4,-15
1523178184054749,-22,-16,-36,-1,2,0,-2,-19
1523178184054749,26,0,-27,-1,1,2,0,-11
1523178184070082,12,17,37,2,-1,-2,-3,18
1523178184070082,2,6,-25,-5,-1,-3,-3,-10
1523178184070797,-10,-1,-8,-2,-1,-2,-1,-20
1523178184070797,29,-13,9,0,-2,-2,-2,5
1523178184092121,-21,-5,47,0,0,1,0,20
1523178184092121,-7,-11,-72,-1,0,-1,-3,-2
1523178184093854,59,16,14,0,-2,-1,-1,1
1523178184093854,-26,9,20,-1,-2,-2,-1,-11
1523178184106111,18,-16,-6,2,-1,-1,2,-2
1523178184106111,0,29,-2,-2,-1,-2,0,18
