timestamp,emg1,emg2,emg3,emg4,emg5,emg6,emg7,emg8
1523210736105058,6,7,-24,-43,1,6,10,2
1523210736105058,-5,-8,23,73,-7,-3,0,-4
1523210736106056,-3,-4,12,-49,-20,-23,-12,-4
1523210736106056,-6,-24,-7,18,-20,-21,-3,-3
1523210736128128,-4,5,34,60,13,3,9,0
1523210736128128,7,16,-32,-18,83,56,13,7
1523210736129117,-6,-2,20,-40,-69,18,3,-2
1523210736129117,1,11,-38,25,47,-9,-6,-2
1523210736141149,0,1,36,-25,-36,-20,-7,-4
1523210736141149,-8,-11,-3,8,-38,-38,-6,-7
1523210736142151,-3,-3,-35,-22,20,6,-4,0
1523210736142151,0,4,8,-11,7,30,7,1
1523210736165214,-5,-21,15,11,-15,-6,-1,0
1523210736165214,6,36,-30,-17,19,5,4,0
1523210736165214,2,2,31,21,9,-2,-4,-3
1523210736165214,-3,-10,4,13,-28,-12,-7,-4
1523210736187272,1,4,-24,-30,13,-2,-1,1
1523210736187272,-2,-8,20,-10,-49,-26,-10,-2
1523210736188274,3,6,21,0,-1,-10,-4,0
1523210736188274,-2,-6,-5,10,37,26,10,3
1523210736201311,3,10,-20,9,49,41,14,5
1523210736201311,-4,-19,-34,-33,-24,-6,-4,-3
1523210736202311,-4,-10,5,29,-1,-18,-6,-2
1523210736202311,1,0,-7,-19,-31,-18,-1,2
1523210736225374,-2,-4,-15,-34,-12,-6,-6,-6
1523210736225374,-1,-19,13,26,10,6,2,3
1523210736225374,6,16,13,1,18,7,3,3
1523210736225374,-1,1,10,0,-4,3,3,-1
1523210736247430,-4,-1,2,-19,-11,-12,-7,-3
1523210736247430,-3,3,-22,-9,2,-3,-3,-4
1523210736248434,2,0,-27,13,-5,-4,-2,-3
1523210736248434,3,-1,0,-21,-6,-1,-2,2
1523210736260487,6,10,-2,3,0,-6,-12,-1
1523210736260487,7,9,15,-2,-2,2,17,3
1523210736269490,-24,-18,-7,7,11,4,3,0
1523210736269490,-17,-6,-9,-11,-5,-3,-3,-8
1523210736284530,-3,-7,-13,10,-3,-4,-3,-5
1523210736284530,5,10,11,4,-3,-2,-7,-5
1523210736286535,0,-6,-22,3,8,3,0,5
1523210736286535,13,2,7,-7,2,1,2,3
1523210736307594,1,-4,-9,-6,-13,-8,-4,1
1523210736307594,2,11,16,10,6,4,-7,-1
1523210736308597,-9,-8,-13,-27,-6,1,18,0
1523210736308597,6,-10,11,15,20,5,-3,0
1523210736320626,-17,7,-10,-21,-5,-1,-4,-4
1523210736320626,2,-5,-7,10,-29,-19,-8,-4
1523210736329651,5,14,-22,-28,27,13,-5,0
1523210736329651,1,3,-4,5,-11,-2,4,0
1523210736344690,8,22,3,9,8,0,3,3
1523210736344690,-4,8,-23,6,-7,-9,-2,1
1523210736346695,5,5,40,13,6,15,-4,0
1523210736346695,-1,9,-29,-29,-1,4,6,0
1523210736367751,5,-6,-15,-12,-2,-9,-9,4
1523210736367751,-7,-8,19,5,-5,-8,13,1
1523210736368754,6,-6,-7,2,-17,-11,-8,-9
1523210736368754,2,-5,2,5,15,-4,-21,-1
1523210736380786,6,-5,17,5,-7,26,31,3
1523210736380786,-4,-10,-8,-33,0,-2,-4,7
1523210736389847,6,-2,25,2,20,3,-2,0
1523210736389847,-9,6,-36,-14,-17,5,-5,-2
1523210736404090,1,-12,-5,10,2,-7,-9,-6
1523210736404090,-3,0,0,-15,-16,-9,-9,-5
1523210736412871,-3,1,-6,35,3,-3,0,-3
1523210736412871,3,-11,32,-12,5,9,7,2
1523210736426909,-6,-10,15,-22,4,3,6,0
1523210736426909,2,-3,18,15,10,13,-2,6
1523210736433937,11,10,17,-13,-14,-20,-9,6
1523210736433937,-10,-13,-48,45,-18,-13,12,-10
1523210736441111,-2,0,14,-29,1,-4,-1,0
1523210736441111,0,-2,9,27,15,13,0,0
1523210736449970,-3,-3,-5,-53,-8,-1,-5,-2
1523210736449970,-2,6,32,-3,-8,-4,-1,1
1523210736464015,-5,-8,9,23,-3,-7,-6,-6
1523210736464015,-3,10,-21,-12,3,-5,-5,-4
1523210736471268,2,1,-18,21,1,-3,2,2
1523210736471268,-5,-6,2,-27,-37,-17,-7,-3
1523210736487067,-7,-2,-5,-38,27,-3,-3,-6
1523210736487067,-2,-19,-25,38,16,22,6,2
1523210736489073,13,-2,18,19,-2,6,-11,-4
1523210736489073,-19,-2,-17,-28,12,-2,27,3
1523210736501105,38,9,-19,-13,-28,-11,-3,7
1523210736501105,-29,-6,53,0,-10,-9,-8,-5
1523210736510131,-2,-8,-13,1,3,-6,-5,-1
1523210736510131,-1,-1,21,0,12,9,5,-10
1523210736524377,4,4,-6,28,-20,-3,-5,1
1523210736524377,4,-1,-7,-27,10,6,9,-3
1523210736531186,-9,-1,-14,11,1,-4,0,-2
1523210736531186,6,-2,31,-1,10,2,-11,7
1523210736547230,-14,-7,-9,39,-3,-1,-7,0
1523210736547230,2,7,16,-10,-3,-3,14,-4
1523210736549234,-12,-20,-27,-46,-21,-14,-9,-8
1523210736549234,3,0,0,49,0,-4,-7,-1
1523210736561264,-5,-2,14,-4,13,7,7,2
1523210736561264,2,3,-12,-3,1,4,-10,-1
1523210736570290,-4,0,-30,3,-3,-4,1,-6
1523210736570290,2,7,16,6,6,8,-1,4
1523210736584328,-6,-8,39,1,-5,-1,1,-2
1523210736584328,-1,-7,-53,-24,-10,-9,-9,-2
1523210736591344,-8,-19,22,38,-8,-8,7,-1
1523210736591344,2,0,-48,-69,-11,-5,-9,-2
1523210736607640,-13,-3,0,32,9,12,-6,-5
1523210736607640,7,5,18,18,6,-2,-4,0
1523210736609399,1,2,0,-3,-1,-10,0,1
1523210736609399,-2,-3,-5,-19,-23,-13,-10,-5
1523210736621624,2,15,1,14,24,9,12,4
1523210736621624,8,23,-18,-9,37,26,9,2
1523210736629446,-6,-8,-8,5,-7,2,4,7
1523210736629446,2,-8,37,0,-2,-1,-4,-5
1523210736644525,-6,-2,-29,-27,-32,-17,-3,-7
1523210736644525,0,-3,21,25,-7,-14,-6,-4
1523210736651510,-6,-1,13,-25,-11,4,-2,-5
1523210736651510,0,-2,-11,19,34,13,3,3
1523210736667549,-2,-11,-8,-10,-7,-6,1,-1
1523210736667549,-1,3,0,-1,-10,-21,-7,0
1523210736668549,0,-7,-1,21,-5,16,2,0
1523210736668549,1,3,24,6,-3,0,1,1
1523210736680583,-6,-2,5,7,27,7,-5,-2
1523210736680583,-4,-7,-24,-13,-10,-1,6,-4
1523210736689826,-1,10,3,-13,-5,-11,-9,3
1523210736689826,4,4,2,20,-21,-12,1,-2
1523210736704799,-6,-36,-19,-48,-2,-3,-7,0
1523210736704799,-1,-5,24,9,14,15,8,1
1523210736710661,2,2,12,-32,5,5,-1,1
1523210736710661,-6,-3,-49,6,-4,-10,-2,1
1523210736727708,9,-3,-2,0,-15,-17,-9,-4
1523210736727708,-3,-7,-1,6,-18,-9,-8,-3
1523210736728709,3,10,1,2,29,26,14,5
1523210736728709,6,1,39,-13,10,11,-1,2
1523210736749767,-8,-21,-77,7,-7,-10,-5,-4
1523210736749767,-2,-8,7,-40,-15,-9,-4,-3
1523210736751772,9,7,-7,50,0,-5,-1,0
1523210736751772,-3,-2,4,-4,-1,-2,-9,-1
1523210736764808,-5,15,19,22,-6,-5,5,0
1523210736764808,7,-6,19,1,15,15,8,2
1523210736766812,-7,-7,-59,10,-1,-3,-4,-1
1523210736766812,28,16,-10,-53,-5,-1,19,1
1523210736787948,-55,2,-4,-10,-4,3,-5,-8
1523210736787948,-2,6,2,-2,-7,-6,-3,-4
1523210736788869,-22,0,20,-21,-4,-9,-9,-9
1523210736788869,28,16,5,46,8,6,7,7
1523210736809926,19,4,-9,-31,1,7,5,-4
1523210736809926,-27,-13,24,-30,-8,-7,-5,1
1523210736811940,-21,-50,0,35,5,1,-32,-9
1523210736811940,43,0,-42,-66,-9,-4,32,-3
1523210736824970,6,23,68,29,2,4,-10,11
1523210736824970,-49,12,18,14,-1,-2,16,-7
1523210736826973,6,-1,-33,-16,-2,-3,-2,2
1523210736826973,-16,-12,-28,13,1,-6,-21,0
1523210736847024,31,-3,-2,12,3,3,-4,-3
1523210736847024,-28,-64,-23,-14,-6,1,5,-1
1523210736849031,1,38,76,5,6,4,7,1
1523210736849031,-30,-19,-48,9,-2,2,-25,-2
1523210736870086,32,15,2,-6,0,2,41,20
1523210736870086,-4,21,9,21,-2,-7,-32,-39
1523210736871095,66,17,-33,-19,-1,0,24,3
1523210736871095,-43,-38,60,20,-6,-7,-11,-12
1523210736883120,27,-38,8,6,6,4,-6,7
1523210736883120,11,-13,-1,-6,0,3,-1,26
1523210736892145,-54,3,-12,8,-2,-2,4,-12
1523210736892145,7,26,17,27,-1,1,-1,3
1523210736907391,-9,4,-10,10,-4,-3,-18,-10
1523210736907391,62,0,16,12,7,7,32,19
1523210736909191,62,20,-17,0,-2,2,-6,4
1523210736909191,-88,-19,9,3,0,0,-2,-3
1523210736930246,-48,15,24,-15,0,0,-10,-20
1523210736930246,105,21,-48,18,1,1,-9,14
1523210736931247,12,-23,59,-35,-8,-2,-8,9
1523210736931247,6,19,-46,16,9,5,45,-3
1523210736943318,-37,-38,34,27,2,0,-11,-5
1523210736943318,-34,38,-78,-46,-5,-5,-12,-20
1523210736952344,-35,-48,46,1,0,4,23,0
1523210736952344,58,14,63,10,2,0,-45,3
1523210736967346,-93,-4,-128,-23,-5,-1,24,-13
1523210736967346,32,5,66,33,-10,-7,-4,-1
1523210736969352,-14,-7,66,-19,-9,-11,-14,-10
1523210736969352,2,-31,-20,-6,6,5,2,7
1523210736990462,62,10,-8,7,4,-1,0,7
1523210736990462,34,36,88,20,3,2,-1,10
1523210736991408,57,19,-128,-46,-3,-1,4,1
1523210736991408,25,22,-27,-4,-13,-11,-12,7
1523210737003677,19,5,58,17,2,-1,-9,-1
1523210737003677,-27,-8,-25,-13,0,-2,-6,-7
1523210737012463,-3,16,5,6,-4,-10,-4,4
1523210737012463,2,-24,5,2,8,9,22,1
1523210737027504,10,10,-19,-32,-6,-3,-14,-1
1523210737027504,7,-9,-15,24,-9,-4,2,0
1523210737028507,-44,-3,-32,-21,0,4,3,1
1523210737028507,-40,-15,51,7,0,-5,-17,1
1523210737049564,95,18,-8,-15,-13,-10,22,15
1523210737049564,-113,-38,-50,0,6,5,-8,-18
1523210737051568,69,19,26,13,3,5,11,-7
1523210737051568,0,15,20,-8,-2,-4,-2,-3
1523210737063601,1,57,-14,2,-1,-2,-8,2
1523210737063601,22,-62,70,-12,1,-1,-8,3
1523210737072624,-67,3,-69,-4,4,4,8,9
1523210737072624,37,16,-14,22,3,2,-7,-9
1523210737088666,-29,3,44,10,-2,1,-6,-7
1523210737088666,2,10,-65,-13,-6,-5,0,-1
1523210737090674,-25,-22,51,21,2,3,1,0
1523210737090674,-12,-16,29,-25,-2,2,4,-10
1523210737109724,-10,-2,-5,-12,-8,-7,-3,18
1523210737109724,48,12,39,4,0,3,7,-6
1523210737111728,-59,-38,41,-16,-7,-7,-21,-13
1523210737111728,27,2,-36,5,-5,-4,0,7
1523210737123759,-11,-34,6,3,5,4,15,-22
1523210737123759,-52,-11,-23,-35,-7,-5,-15,-6
1523210737132783,23,25,3,33,1,-5,13,8
1523210737132783,53,27,33,-34,-1,-1,-8,-1
1523210737146821,-47,-48,5,11,-2,0,0,6
1523210737146821,-78,-4,-33,2,8,8,-37,-23
1523210737148826,7,12,2,0,-13,-13,22,-7
1523210737148826,-31,12,-21,-12,-1,-1,-11,-15
1523210737169882,81,12,20,-2,-1,-3,14,0
1523210737169882,-38,7,-107,6,-1,-3,-2,3
1523210737171887,3,-6,27,16,8,5,-9,6
1523210737171887,3,14,51,-20,-5,0,2,-3
1523210737184926,55,15,-5,-7,-5,-1,-22,4
1523210737184926,-37,-36,-13,-14,-4,-4,24,-6
1523210737190939,13,19,2,1,1,-2,-9,-5
1523210737190939,-1,-1,-32,9,2,3,2,2
1523210737206981,-6,23,11,24,6,3,-1,-2
1523210737206981,-35,-5,89,-16,-2,3,5,-1
1523210737208992,127,4,-65,-12,-4,-5,-2,23
1523210737208992,-90,-15,29,48,4,-2,-2,-38
1523210737230042,-38,-6,-86,-96,-17,-10,-37,-20
1523210737230042,14,0,69,12,9,3,40,30
1523210737231046,-17,9,7,25,-3,-1,-17,5
1523210737231046,-42,-33,-4,-25,-5,-2,14,19
1523210737243076,-23,-14,5,29,2,0,-16,-17
1523210737243076,48,14,31,9,1,-3,-15,1
1523210737252100,-35,6,-16,-20,1,4,9,-27
1523210737252100,36,-2,-20,-1,-3,-3,-10,3
1523210737267141,-42,-17,29,5,4,2,11,5
1523210737267141,13,19,-17,-5,-5,-5,-9,10
1523210737269146,-19,-11,-3,18,6,4,-1,-13
1523210737269146,50,15,-10,-9,-1,-3,-15,2
1523210737290205,-49,-15,45,9,6,5,25,-4
1523210737290205,25,-2,40,-3,-12,-8,-18,4
1523210737291206,20,3,-3,-9,0,1,13,21
1523210737291206,-11,8,5,7,3,-1,-2,-4
1523210737303238,9,7,17,11,-2,-1,-15,3
1523210737303238,0,-21,21,19,5,3,19,2
1523210737312261,3,-8,40,-26,-1,2,-8,2
1523210737312261,92,-4,39,-12,-5,1,10,3
1523210737327303,-63,-34,-43,35,-2,-8,-1,-1
1523210737327303,2,12,-12,-11,0,-2,-1,0
1523210737329305,-19,2,18,18,1,-2,-7,-10
1523210737329305,-22,-11,-53,7,3,2,16,1
1523210737350363,8,14,12,10,4,4,-16,-9
1523210737350363,55,-3,8,-54,-1,0,21,7
1523210737351366,-62,2,-38,2,-5,-6,-18,-19
1523210737351366,-21,-8,25,39,-5,-6,-6,8
1523210737363397,44,0,-1,-75,-8,-3,11,9
1523210737363397,26,-2,-79,29,1,0,-12,0
1523210737372421,9,10,3,-13,2,4,2,-3
1523210737372421,4,26,-54,-28,-3,-6,3,15
1523210737387487,-13,-39,12,35,5,1,-1,-13
1523210737387487,23,-7,-3,5,4,5,8,17
1523210737389468,1,-8,-61,-35,-6,-8,-18,-12
1523210737389468,-19,-25,59,19,-5,-1,3,1
1523210737409521,55,25,-9,-2,1,0,-16,11
1523210737409521,-7,20,13,1,-4,-2,18,-15
1523210737411524,-7,-34,-62,12,8,3,11,14
1523210737411524,-60,1,10,-10,-5,-4,-12,-14
1523210737423558,13,-19,55,-18,2,1,8,10
1523210737423558,-16,7,19,19,-6,-4,-19,-14
1523210737432580,36,15,32,11,0,-1,-17,-5
1523210737432580,-7,-16,-10,-8,1,3,22,7
1523210737447623,-17,21,-5,4,-4,-3,-24,-36
1523210737447623,1,8,-40,3,-1,-4,30,34
1523210737448623,-1,-3,37,9,-4,-4,-1,-1
1523210737448623,12,28,9,8,7,4,-12,-1
1523210737469687,-12,-7,-32,-24,-6,-7,11,-27
1523210737469687,-26,-22,-79,-23,-7,-1,-14,-6
1523210737471686,34,-13,-7,-26,-6,-4,4,2
1523210737471686,66,-2,16,6,2,-1,0,16
1523210737483716,-2,12,-16,21,6,5,10,12
1523210737483716,8,16,48,12,0,-1,-10,-8
1523210737492741,47,7,25,-30,-3,-2,-1,1
1523210737492741,-37,19,-63,7,7,-1,-14,-1
1523210737507784,2,11,56,29,-11,-9,22,19
1523210737507784,74,-39,-15,-21,5,3,-7,-2
1523210737508784,-52,8,19,-10,-1,-1,-12,-9
1523210737508784,18,-18,2,15,2,1,9,16
1523210737529840,-30,-7,-48,-3,3,0,-10,1
1523210737529840,32,33,52,24,2,4,9,4
1523210737531844,-33,-25,67,3,-5,0,11,6
1523210737531844,-14,-50,-64,-26,-3,-1,-14,-26
1523210737543883,66,18,-22,8,3,-1,15,21
1523210737543883,9,-19,26,-4,0,-2,-11,-5
1523210737552900,-27,21,-32,22,4,-1,-10,-4
1523210737552900,-47,2,39,22,-1,1,22,2
1523210737566938,-37,-12,-9,-17,-7,1,0,-5
1523210737566938,19,19,-27,1,-2,-7,-15,-10
1523210737568943,-10,-13,-48,-2,8,4,6,3
1523210737568943,29,13,87,21,5,3,-3,-9
1523210737590007,-40,-11,41,-5,-5,-6,-10,-8
1523210737590007,-21,16,-11,-7,0,5,8,12
1523210737592009,-80,-12,-75,-31,-17,-9,-9,-14
1523210737592009,-7,19,9,10,-2,-3,-22,-20
1523210737604125,58,8,-32,-10,0,3,32,17
1523210737604125,-69,-17,50,15,6,-2,-17,-11
1523210737612057,-23,9,62,2,-2,-6,10,-21
1523210737612057,22,-2,-106,-54,-8,-2,-6,8
1523210737628099,23,-13,41,42,7,3,-7,-4
1523210737628099,5,-7,-69,-20,-6,-4,10,-1
1523210737630106,-14,-6,49,41,12,11,1,9
1523210737630106,90,-12,11,-8,0,-1,-17,-6
1523210737650159,-103,-4,34,-25,-5,-4,-2,-13
1523210737650159,12,-6,28,30,-5,-9,-8,5
1523210737651161,12,-6,30,-14,-5,-5,-2,0
1523210737651161,-8,2,55,-7,4,4,8,-1
1523210737672218,35,14,45,-8,-4,0,-9,12
1523210737672218,-55,-5,-12,-12,-3,2,-1,10
1523210737674222,10,8,-76,2,0,2,-4,-18
1523210737674222,-3,1,-5,1,-5,-4,28,15
1523210737687258,-16,-7,9,3,3,3,-6,-25
1523210737687258,36,-26,47,-24,-8,-4,-12,1
1523210737689263,-34,-10,87,0,3,5,15,17
1523210737689263,15,2,20,14,-6,-5,-11,0
1523210737710322,-25,0,-32,10,5,1,-5,-7
1523210737710322,0,18,22,8,4,2,9,1
1523210737711323,29,-28,-81,-22,-7,-4,-13,-1
1523210737711323,-7,1,64,19,0,-2,4,8
1523210737732615,-10,4,-67,-63,-13,-7,-3,2
1523210737732615,11,4,10,29,4,-2,-15,-10
1523210737734383,38,8,26,33,3,1,4,-10
1523210737734383,-34,3,-23,-25,-8,-9,2,6
1523210737747418,88,-8,-16,23,5,4,5,24
1523210737747418,-11,-7,-71,-25,-5,-4,3,-22
1523210737749423,4,9,34,42,-2,-3,-22,-8
1523210737749423,-79,-33,-102,-35,-1,4,3,-16
1523210737769515,32,-10,-22,9,-4,-2,12,8
1523210737769515,23,33,-25,-7,-1,0,0,10
1523210737771480,21,-27,67,10,-5,-7,5,7
1523210737771480,9,-4,-81,3,5,3,-13,-19
1523210737792588,-27,23,28,-4,1,-2,-3,6
1523210737792588,-48,-1,-6,-27,-5,1,4,-13
1523210737793581,20,-3,-85,-20,-2,-2,-3,6
1523210737793581,-15,2,-1,30,-1,-3,2,11
1523210737806654,-25,-15,-6,17,8,6,5,-9
1523210737806654,26,23,-2,-19,-2,-3,-10,9
1523210737813594,-45,-36,95,-7,3,4,4,-11
1523210737813594,-13,-27,-33,-56,-8,-1,11,24
1523210737829637,-105,4,-22,11,-4,-4,-14,-68
1523210737829637,-4,-6,30,18,2,-1,-4,-3
1523210737831681,74,-9,-40,-5,-2,-4,-3,10
1523210737831681,3,25,-2,4,-2,-3,6,-8
1523210737852935,56,-17,-7,-7,0,0,3,27
1523210737852935,-87,-22,-9,0,-3,1,-5,-17
1523210737853699,88,28,-81,-21,-2,-1,1,8
1523210737853699,-19,-8,30,-1,0,0,-4,-10
1523210737866735,39,3,20,-10,-6,-5,-8,9
1523210737866735,14,-9,33,24,6,4,7,-1
1523210737873756,-20,-7,-88,-20,-3,-1,0,5
1523210737873756,20,-5,27,5,-1,-1,-13,-8
1523210737889794,-1,-10,-53,-12,-5,-3,5,1
1523210737889794,31,-2,11,14,4,5,14,21
1523210737891805,25,31,56,-9,-6,-7,-4,-23
1523210737891805,-31,-4,-12,-9,-2,-2,-16,-20
1523210737911872,25,9,-4,9,1,-3,0,2
1523210737911872,11,7,-1,3,-2,-4,-4,2
1523210737913859,-16,12,-20,-9,0,0,4,6
1523210737913859,13,21,20,28,0,-3,4,9
1523210737926896,15,-19,68,8,-1,-2,-8,4
1523210737926896,-28,-8,-12,-4,-4,-4,-6,-10
1523210737933912,-17,15,34,2,6,2,14,16
1523210737933912,80,27,-73,-29,-1,0,-16,-2
1523210737949995,-88,-1,40,24,-3,-4,11,12
1523210737949995,49,-2,22,-24,-7,-6,-18,6
1523210737952005,14,9,-63,31,8,6,7,-1
1523210737952005,-35,-12,60,31,3,0,17,39
1523210737973031,-52,-10,-35,-11,5,1,-3,-21
1523210737973031,76,24,-6,16,3,2,-3,-2
1523210737974021,-19,5,47,-21,-12,-5,-2,12
1523210737974021,-2,-12,-4,-17,-5,-7,-8,-7
1523210737987272,60,-2,-30,-11,3,4,6,19
1523210737987272,42,-5,27,14,-1,-3,-3,-11
1523210737993074,-54,-30,15,16,0,-2,1,2
1523210737993074,47,-21,18,-8,3,7,-1,-18
1523210738010118,43,14,41,46,3,3,7,4
1523210738010118,-7,6,-36,-113,-15,-5,-1,-5
1523210738011117,7,16,58,60,2,-2,-12,-6
1523210738011117,77,1,85,-12,-6,-6,-14,17
1523210738032174,-42,8,17,10,2,2,3,-29
1523210738032174,-3,-15,-15,17,4,-4,-15,4
1523210738034180,-11,-7,66,-8,-2,1,20,9
1523210738034180,24,0,-35,21,6,9,11,-6
1523210738046211,-36,-32,41,-30,-8,-4,5,12
1523210738046211,-43,1,-5,-18,-6,-2,-14,-18
1523210738053468,21,3,-11,-9,-3,-3,2,9
1523210738053468,-7,9,-12,24,3,2,4,-3
1523210738070275,124,22,1,-29,-1,0,-13,15
1523210738070275,-21,-10,-24,40,5,5,8,-7
1523210738071277,-3,-2,7,-32,3,4,-2,-4
1523210738071277,-30,-9,21,-3,-4,-3,-5,-9
1523210738092337,-6,0,-12,0,0,-2,-8,0
1523210738092337,24,12,-13,5,1,-5,-2,5
1523210738094340,24,0,-38,7,-1,5,17,18
1523210738094340,-69,4,15,14,1,-2,-1,-19
1523210738106411,-11,-7,-47,-45,-9,-7,-11,-2
1523210738106411,23,-14,41,34,4,2,7,5
1523210738113428,0,-15,36,4,4,6,-5,-8
1523210738113428,-58,-11,-45,-25,-13,-13,2,-2
1523210738129432,31,11,-34,23,2,2,4,11
1523210738129432,-29,-10,33,-41,-6,-3,2,-8
1523210738131437,-74,-7,-24,-22,-6,-6,-16,-11
1523210738131437,-55,-4,60,26,5,4,-4,-40
1523210738152730,33,13,-61,-4,-6,-5,10,10
1523210738152730,-25,11,0,4,-3,-3,-1,3
1523210738153496,57,3,2,16,3,5,3,0
1523210738153496,3,11,39,24,0,-2,0,33
1523210738165527,-48,-8,-44,-42,-4,-3,-13,-18
1523210738165527,22,-10,-59,2,-2,-3,-3,-1
1523210738174556,47,-3,-30,5,-1,-2,8,-6
1523210738174556,-89,-7,-41,-13,2,3,1,-4
1523210738189670,51,0,13,20,1,0,-4,9
1523210738189670,-91,-28,40,-10,-5,-2,17,10
1523210738191608,44,4,-63,12,7,2,-20,-21
1523210738191608,38,-6,-47,-18,-6,-4,-1,-10
1523210738212653,-24,-6,-39,-3,-2,-5,-7,9
1523210738212653,23,12,22,-15,1,2,0,9
1523210738213655,-97,0,22,-5,-10,-10,-11,-20
1523210738213655,46,-10,-20,5,0,1,-6,-8
1523210738225698,43,6,17,9,1,1,0,-7
1523210738225698,-42,12,33,26,4,2,1,-2
1523210738234711,89,18,-56,9,-2,-3,-4,14
1523210738234711,12,-8,77,-43,1,0,-1,-9
1523210738249751,13,2,-43,-10,2,5,4,0
1523210738249751,-24,-20,19,61,2,2,8,-14
1523210738251757,-37,10,-20,-34,-3,0,-23,3
1523210738251757,-8,8,-18,-5,-8,-6,16,-9
1523210738272932,-5,-6,86,9,-2,-7,-1,9
1523210738272932,-33,22,-76,-12,0,1,-3,-11
1523210738273821,5,-27,55,23,-1,0,2,7
1523210738273821,93,28,27,-12,4,1,9,-4
1523210738285847,-121,-33,-42,-13,-9,-4,-10,-19
1523210738285847,33,-9,11,13,3,2,6,9
1523210738294876,-9,1,47,8,-2,0,-11,-20
1523210738294876,-59,-21,-43,16,7,6,22,14
1523210738309911,6,16,-7,8,-3,-2,-6,-4
1523210738309911,67,12,83,-7,-7,-7,5,-1
1523210738310914,-16,-5,-42,-6,1,1,-5,6
1523210738310914,-47,-27,-24,-25,-4,-5,-12,1
1523210738331971,-1,18,48,2,2,2,7,3
1523210738331971,-36,-18,-12,-21,-8,-4,-13,-4
1523210738333975,46,3,5,6,2,-2,10,9
1523210738333975,30,20,-21,3,1,-1,-4,20
1523210738346009,17,2,122,16,6,3,-7,1
1523210738346009,-15,5,-66,-23,-2,3,-21,-4
1523210738355030,-32,-28,82,-16,-2,0,29,-2
1523210738355030,57,20,9,22,1,6,-8,1
1523210738370072,0,6,12,10,1,4,-1,10
1523210738370072,-44,-21,-14,-17,0,4,-3,-39
1523210738371074,12,7,-84,-40,-2,-3,-12,-1
1523210738371074,17,0,-11,8,-1,-2,-12,9
1523210738392131,-36,-1,11,3,3,0,11,-27
1523210738392131,34,9,3,8,1,0,8,6
1523210738394136,-18,6,3,-19,-8,-5,-3,3
1523210738394136,-10,8,16,0,-4,-8,-14,-3
1523210738406199,32,-7,10,-2,0,-1,8,4
1523210738406199,-57,-23,-67,7,1,0,9,-21
1523210738415192,11,15,35,14,-3,-8,-12,-8
1523210738415192,-3,-25,-34,-7,-2,-5,-12,-1
1523210738430231,-24,-15,3,7,-1,-2,3,-4
1523210738430231,-14,2,21,4,-3,-5,-13,4
1523210738431235,45,19,-7,13,5,2,16,22
1523210738431235,-52,0,-34,-10,-3,0,-1,-31
1523210738452528,35,6,-8,-1,-7,-6,-18,6
1523210738452528,-14,5,18,0,0,-1,13,3
1523210738454295,5,5,-84,3,4,3,-5,-2
1523210738454295,0,15,-25,0,-6,-8,-14,14
1523210738466327,-16,-8,-67,-10,-1,0,31,-3
1523210738466327,45,-16,-53,-6,-4,-3,-7,16
1523210738475352,-115,2,61,14,-1,0,9,-12
1523210738475352,21,18,-14,-13,-1,1,-4,-9
1523210738490391,80,20,-46,7,0,0,-18,-5
1523210738490391,-30,-15,80,-12,-6,-8,0,-3
1523210738491398,-32,-29,13,31,6,5,1,-1
1523210738491398,-18,-13,-39,-15,-1,3,7,3
1523210738512450,17,25,63,-2,-2,0,-8,2
1523210738512450,24,1,-46,-10,-3,1,7,-1
1523210738513452,-80,-2,68,29,4,2,-2,7
1523210738513452,75,-8,22,-34,-5,-6,1,2
1523210738526491,-12,-16,5,20,5,1,1,-9
1523210738526491,-9,17,-23,-32,-6,-5,-7,-1
1523210738534508,66,12,-12,-9,0,4,-2,5
1523210738534508,46,-16,40,14,3,4,7,21
1523210738549549,-87,-23,-32,17,2,-2,-5,-1
1523210738549549,9,16,26,23,7,3,12,17
1523210738551555,45,23,-31,-17,-10,-6,-3,-9
1523210738551555,-53,-6,28,0,-4,-7,-3,-5
1523210738572609,53,0,-96,-24,-4,1,-7,-7
1523210738572609,-22,-7,39,19,6,5,-12,2
1523210738574646,-20,-5,-75,2,1,-2,15,-7
1523210738574646,22,8,36,6,-6,-4,-1,3
1523210738585644,-34,-31,32,-12,-5,0,-6,-3
1523210738585644,20,4,-35,-5,0,-1,13,10
1523210738594667,13,-7,22,-3,0,0,-12,-11
1523210738594667,-72,-4,-6,11,3,-2,2,2
1523210738609761,0,25,46,4,2,4,-3,-9
1523210738609761,55,10,10,-12,-4,-2,-7,8
1523210738611713,-53,-33,85,-20,-10,-9,-12,-14
1523210738611713,45,17,34,3,6,3,-7,-2
1523210738632770,1,5,35,10,7,4,13,-4
1523210738632770,0,26,23,21,-6,-4,1,13
1523210738634775,11,0,-4,-24,-2,-1,-2,-20
1523210738634775,-5,1,-64,3,4,1,-14,-14
1523210738655066,52,9,41,15,2,1,28,0
1523210738655066,-12,-33,41,-42,-6,-7,-19,2
1523210738656833,-28,-16,-85,3,-4,0,21,-33
1523210738656833,12,-22,-4,6,-4,-3,-4,30
1523210738669869,30,2,28,-15,5,1,37,-9
1523210738669869,34,-2,13,-13,-12,-8,-16,4
1523210738672070,-68,-32,-30,12,-2,-3,-23,-3
1523210738672070,-53,9,30,-9,-1,-3,4,-30
1523210738691929,55,14,-11,6,-6,-5,-19,24
1523210738691929,-18,-25,-100,18,7,2,13,-14
1523210738693932,20,17,3,-55,-2,-2,-3,14
1523210738693932,-24,3,79,39,3,5,8,1
1523210738714990,-47,0,-67,-3,-2,-4,-23,-4
1523210738714990,14,-10,86,28,14,10,8,2
1523210738715992,5,-4,-55,-25,-11,-7,-14,-6
1523210738715992,-12,-12,45,0,-1,-1,8,-8
1523210738730028,-56,2,-17,-6,-7,-8,-17,0
1523210738730028,81,12,-44,-8,-6,-3,5,2
1523210738731070,34,-4,41,21,0,-1,16,22
1523210738731070,50,0,-11,-2,-1,-2,-4,9
1523210738752324,-39,-21,13,-9,-1,0,-2,-5
1523210738752324,-31,12,2,7,2,1,-2,-9
1523210738754092,52,10,3,-21,-2,1,-4,10
1523210738754092,9,22,-80,-11,-6,-3,3,0
1523210738775150,-24,-10,40,3,2,1,-15,9
1523210738775150,21,5,33,18,6,6,7,18
1523210738776153,-46,2,-33,-5,1,2,27,-33
1523210738776153,-29,-3,44,7,-2,-4,-17,-1
1523210738789218,42,-34,-91,-18,-8,-5,0,-11
1523210738789218,-4,19,3,-2,0,-4,-18,-14
1523210738796203,25,-1,39,-1,1,-1,-1,27
1523210738796203,7,-11,48,-3,1,5,6,3
1523210738812285,-34,10,-89,1,-6,-3,-4,3
1523210738812285,-4,-19,-26,-13,-6,-5,3,-7
1523210738814254,29,11,45,18,4,1,-7,-1
1523210738814254,2,-8,-15,-7,-2,-3,5,-10
1523210738835417,76,-2,-32,-8,2,3,-26,-9
1523210738835417,-79,-11,35,8,-1,-6,19,-4
1523210738836310,44,18,-1,5,1,3,-7,31
1523210738836310,1,-20,-2,18,3,5,33,-4
1523210738849384,31,15,-34,-16,-6,-4,-8,-6
1523210738849384,-7,9,-13,-3,-8,-7,-8,-13
1523210738856365,-34,-9,56,28,2,-2,-19,-5
1523210738856365,26,10,-65,-24,-2,0,1,8
1523210738872449,-49,-15,61,20,8,7,10,9
1523210738872449,5,-2,39,-30,-9,-1,7,5
1523210738874415,-46,-11,-43,25,-2,-5,-10,-14
1523210738874415,43,3,15,4,0,-1,-9,7
1523210738894465,-36,3,24,12,5,3,11,4
1523210738894465,18,-4,-6,-3,-2,0,-7,-3
1523210738896470,38,-2,-30,10,3,3,0,10
1523210738896470,-69,0,9,-1,-5,-5,4,-14
1523210738909503,100,4,-18,-19,-3,-1,-13,25
1523210738909503,-77,-14,-18,14,4,5,3,-22
1523210738915521,64,4,-26,-21,-9,-8,4,10
1523210738915521,-2,6,5,10,-2,-2,-8,-3
1523210738932568,3,3,43,-3,-2,-4,3,9
1523210738932568,0,6,-35,9,6,4,-18,-10
1523210738933569,-8,12,32,-2,2,4,26,-17
1523210738933569,23,-13,-125,-19,-4,-3,-12,15
1523210738954861,-62,-7,59,-5,-4,-1,-3,-8
1523210738954861,-4,-25,-63,-8,-2,1,16,11
1523210738956630,25,5,39,22,-1,-2,-10,-10
1523210738956630,36,5,-27,14,2,3,1,9
1523210738968661,-101,-44,69,-13,-5,-7,-2,-8
1523210738968661,71,40,39,16,4,0,-3,16
1523210738975681,-55,-5,5,-21,-3,-3,-9,3
1523210738975681,3,-16,-50,-9,-5,-2,-13,-12
1523210738992726,19,0,-37,2,-5,-3,8,-2
1523210738992726,40,7,47,9,4,0,9,14
1523210738993728,0,-13,-23,-20,-8,-6,-1,9
1523210738993728,-3,5,26,5,2,2,-5,-15
1523210739014786,-34,8,-6,-5,-2,-2,-5,-5
1523210739014786,25,1,-25,4,0,-2,-5,-7
1523210739016795,-30,-29,-54,-3,1,6,8,3
1523210739016795,-16,-12,16,-9,-5,-6,-2,-14
1523210739028822,30,21,22,12,2,3,10,8
1523210739028822,18,8,-13,-40,-4,-4,-10,1
1523210739035840,-67,-4,17,14,-1,-4,-3,-25
1523210739035840,9,18,32,-3,6,5,-9,19
1523210739052943,81,4,-13,-7,-7,-7,8,-2
1523210739052943,-68,-15,-45,11,-4,-3,1,-14
1523210739053887,29,1,7,0,6,4,-1,8
1523210739053887,-63,-12,36,-25,-9,-6,-9,-7
1523210739074944,-33,19,44,12,6,3,17,-1
1523210739074944,29,-50,-55,13,-5,-4,-4,10
1523210739075949,13,18,10,-5,-1,-4,-4,-7
1523210739075949,24,-18,30,9,4,2,7,-1
1523210739088980,27,23,-25,-5,1,1,-14,-1
1523210739088980,-62,-3,19,-10,-4,-3,0,-4
1523210739096001,9,-4,10,22,3,3,-8,12
1523210739096001,30,-11,46,-9,-5,-5,-7,-10
1523210739112045,-16,-24,-29,-18,-6,-2,17,23
1523210739112045,-47,-3,31,-1,3,-3,-22,-15
1523210739114049,2,24,12,0,-1,0,14,4
1523210739114049,23,13,13,6,3,3,2,-4
1523210739135341,-32,-14,33,5,-3,-8,-14,-14
1523210739135341,40,23,-34,3,0,2,20,7
1523210739137108,27,6,100,-4,1,2,-73,-13
1523210739137108,30,7,-31,-12,-5,-6,72,31
1523210739148139,17,-8,6,10,-1,-1,-17,3
1523210739148139,25,16,-63,-10,2,2,-2,7
1523210739157164,-26,8,-17,-6,-1,-6,11,-16
1523210739157164,-13,11,-27,-17,-2,4,-27,2
1523210739172233,-9,-18,-35,24,3,3,0,-11
1523210739172233,31,20,40,-6,-6,-2,-8,-11
1523210739174214,-48,-16,-68,0,-1,-1,14,15
1523210739174214,-72,-11,0,-8,2,-2,-5,-7
1523210739195264,49,10,45,-4,1,3,11,6
1523210739195264,-32,-27,13,8,-6,-5,-13,-27
1523210739196268,-62,-14,-92,-4,1,4,18,25
1523210739196268,42,10,-2,10,0,-4,3,-20
1523210739208300,-42,17,-34,-15,-5,-2,-9,-9
1523210739208300,5,9,63,8,0,0,-4,11
1523210739217323,59,1,43,5,1,0,20,4
1523210739217323,-66,4,-12,9,3,3,-14,-6
1523210739232363,42,0,-32,3,-4,-4,-23,-5
1523210739232363,-34,-24,-65,-10,0,2,28,-2
1523210739234369,0,14,5,-2,-6,-8,1,-5
1523210739234369,-5,-7,3,3,3,3,4,5
1523210739255467,63,-11,-3,4,5,2,-19,-9
1523210739255467,-79,10,72,2,4,1,26,12
1523210739256446,40,3,-34,-14,-8,-8,-11,-6
1523210739256446,-15,0,45,11,0,1,-13,6
1523210739268458,-6,-12,-77,-47,-14,-8,14,-23
1523210739268458,23,-4,3,20,4,0,-14,-8
1523210739277482,33,12,14,5,4,5,5,5
1523210739277482,-50,-4,9,2,-4,0,5,-8
1523210739292523,17,20,33,-7,-1,1,-8,3
1523210739292523,-1,1,6,-4,-3,-5,-20,2
1523210739293525,-23,-3,19,-4,-3,-1,24,-13
1523210739293525,92,-30,-7,19,1,-2,-2,-2
1523210739314625,-32,13,12,-20,5,1,0,7
1523210739314625,10,1,9,-9,-7,-2,-7,-15
1523210739316586,32,4,-44,-4,-1,1,-3,17
1523210739316586,16,10,1,6,3,0,-6,-8
1523210739328617,-126,-5,-18,5,0,-1,2,-20
1523210739328617,85,-1,-28,-11,-8,-3,4,10
1523210739337642,34,-3,10,-5,4,5,-11,3
1523210739337642,-43,-13,-3,-6,-4,-7,3,3
1523210739352921,35,14,-16,8,0,-2,-4,-3
1523210739352921,32,-15,-11,0,6,9,9,6
1523210739353683,-7,3,76,-5,-4,-5,-8,-4
1523210739353683,-1,20,-1,5,2,5,1,2
1523210739374741,2,-8,-52,-3,1,-4,4,12
1523210739374741,9,-8,-46,-14,-8,-5,-6,-11
1523210739376746,43,9,46,10,-4,-3,-1,-3
1523210739376746,25,-1,-11,1,5,4,-5,8
1523210739388777,-66,-9,35,2,1,0,3,-1
1523210739388777,29,17,-13,-10,1,1,8,5
1523210739404845,-77,-26,-27,-2,-3,-4,-2,-11
1523210739404845,14,10,6,-8,-2,-1,-9,-3
1523210739411840,49,-5,-3,30,0,1,-4,13
1523210739411840,-30,11,30,-1,0,-4,-5,-5
1523210739413845,27,-7,-7,10,0,3,-8,9
1523210739413845,64,-4,-32,-24,-4,-4,-1,9
1523210739435139,-33,14,69,-11,-6,-2,-2,-12
1523210739435139,-17,6,-15,10,-2,-6,29,10
1523210739436974,-45,-27,-18,0,9,5,-19,-15
1523210739436974,45,4,54,28,2,-1,24,14
1523210739447936,-63,-28,-58,-20,-9,-5,-13,-14
1523210739447936,30,28,-6,-10,1,1,-20,5
1523210739456968,-79,-14,-36,-18,-6,-8,3,-42
1523210739456968,-2,13,-16,-3,-4,1,-6,8
1523210739471998,47,15,25,24,5,-1,-3,6
1523210739471998,-59,0,33,-2,-4,-1,18,-2
1523210739474009,38,10,-3,-12,0,-3,-8,6
1523210739474009,-80,-24,-17,-2,1,5,12,10
1523210739495062,-25,-16,8,2,-6,-4,0,-26
1523210739495062,18,-23,-55,16,5,3,13,15
1523210739496064,68,19,-1,-21,-3,-1,-4,7
1523210739496064,-68,19,39,31,-2,-8,-13,-20
1523210739508098,20,-6,33,-27,1,5,6,15
1523210739508098,6,-17,71,7,4,0,-7,-4
1523210739517118,-64,3,-27,17,-3,-4,-3,-11
1523210739517118,1,0,-38,-20,-2,-1,4,-4
1523210739532397,-8,7,-5,25,0,1,4,-19
1523210739532397,5,6,15,-3,3,2,-20,-6
1523210739534163,1,-17,-14,-3,-1,1,10,-4
1523210739534163,-20,10,25,-10,-3,-5,-15,-3
1523210739555259,-9,-4,-19,6,2,1,21,-11
1523210739555259,-24,3,10,-14,-9,-8,7,1
1523210739556230,38,-22,-19,15,6,3,-1,21
1523210739556230,-22,-31,-70,-17,-8,-7,-5,0
1523210739577278,42,9,5,13,7,7,-39,8
1523210739577278,28,20,-12,2,-5,-4,36,-23
1523210739579284,-28,-3,60,-11,-4,0,6,25
1523210739579284,21,-4,-66,-12,-3,-5,-15,-9
1523210739592363,-64,-13,28,-6,-2,-3,0,3
1523210739592363,27,-12,60,6,1,2,-25,-8
1523210739594324,-16,0,-7,17,3,-2,2,6
1523210739594324,48,10,22,-10,-2,1,13,10
1523210739614378,45,-5,1,-16,1,-4,-13,4
1523210739614378,-89,-15,-30,31,-1,-1,-8,-9
1523210739616383,77,3,-22,-48,-9,-8,5,-16
1523210739616383,-10,-31,31,11,1,2,-1,-14
1523210739637677,51,29,-29,-9,-3,-5,5,6
1523210739637677,-11,0,-4,19,5,3,-19,6
1523210739638440,-14,12,-2,-2,-4,0,-2,-4
1523210739638440,27,15,18,-8,-4,-1,-5,-11
1523210739652716,-21,-5,17,-17,-11,-11,8,-12
1523210739652716,14,4,-47,-15,5,6,5,-8
1523210739654540,-10,7,40,15,4,6,-12,3
1523210739654540,51,-7,-39,-7,-4,-6,-6,1
1523210739674538,60,-10,27,-2,0,1,21,26
1523210739674538,-60,1,3,9,-5,-7,-20,-6
1523210739676542,-13,-3,-40,-11,-4,-6,-5,-25
1523210739676542,-30,-1,9,10,3,3,-7,7
1523210739697599,1,-12,-49,-9,3,6,10,0
1523210739697599,48,-3,28,-7,-4,-1,-7,2
1523210739698601,3,20,-55,10,-4,-3,2,12
1523210739698601,-26,-8,21,-4,-1,-1,3,-5
1523210739711637,28,0,20,17,-2,-3,-12,-2
1523210739711637,70,4,-10,-13,-2,-4,-3,12
1523210739718654,-65,-4,10,3,0,1,11,-17
1523210739718654,1,4,21,-2,1,0,3,7
1523210739734934,-40,-13,15,4,1,-2,-3,-4
1523210739734934,17,-9,20,-45,-10,-3,-28,-10
1523210739736703,-13,-3,12,29,1,-5,10,9
1523210739736703,-74,-10,35,10,3,2,-1,-9
1523210739757760,-4,-3,-47,-14,-5,-2,17,13
1523210739757760,-7,3,-76,-6,2,4,5,26
1523210739758761,15,2,20,0,-2,-2,-16,-43
1523210739758761,-2,-9,-63,-27,-5,-2,6,-9
1523210739771796,-18,3,44,21,3,4,-1,10
1523210739771796,25,11,-1,26,3,0,-1,-2
1523210739778816,2,-2,-22,-11,1,1,-1,17
1523210739778816,33,-5,14,12,-1,0,5,7
1523210739794858,-63,-13,-39,-14,0,2,10,-15
1523210739794858,24,-8,2,1,-2,-6,-6,-6
1523210739796863,16,3,63,5,-1,1,-1,-1
1523210739796863,2,11,-9,4,5,3,-8,-1
1523210739816918,82,-3,1,18,-8,-6,13,16
1523210739816918,-69,-25,43,-25,1,0,2,-15
1523210739818922,-4,0,14,-8,-4,-3,4,17
1523210739818922,24,0,-100,-2,-3,-1,-6,2
1523210739832194,40,-6,21,6,6,4,-7,19
1523210739832194,-121,-23,-4,7,3,0,10,-25
1523210739838210,77,18,18,0,2,2,-4,11
1523210739838210,-82,-5,9,-6,-1,-1,-4,-12
1523210739855017,11,-5,18,7,-3,-2,-2,7
1523210739855017,30,16,-62,-39,-3,-3,-8,5
1523210739856020,-1,11,-23,5,-5,-6,4,13
1523210739856020,-39,-7,60,32,3,4,4,2
1523210739877076,70,16,19,-21,-5,3,-29,-20
1523210739877076,47,4,1,2,-2,-8,-4,8
1523210739879082,-94,-53,-35,9,2,0,19,2
1523210739879082,78,29,73,-7,2,-1,29,19
1523210739892116,-40,-13,20,-18,-7,-6,-20,-3
1523210739892116,6,5,13,13,-3,-3,-12,-41
1523210739898131,41,-32,9,-18,7,9,-7,2
1523210739898131,-64,-40,-56,2,-1,1,4,-4
1523210739915178,17,13,19,-4,1,-4,-8,8
1523210739915178,22,17,17,13,-2,-2,-9,13
1523210739916179,-45,3,34,-9,-2,-4,25,-11
1523210739916179,-9,-10,-48,-7,-6,-5,-22,-15
1523210739937472,-10,2,-86,2,5,7,9,-2
1523210739937472,-36,2,21,0,-3,1,41,-2
1523210739939241,-33,3,-22,8,1,-4,-33,-17
1523210739939241,51,12,28,10,-2,-5,23,27
1523210739951275,-20,3,17,7,0,-5,5,2
1523210739951275,49,0,-5,-10,3,4,-21,24
1523210739958295,-46,6,-51,-6,-3,1,5,-13
1523210739958295,92,5,17,-2,-3,-3,-5,20
1523210739974341,-105,-37,-33,7,-3,-5,1,-29
1523210739974341,9,-3,25,-5,0,1,24,13
1523210739976340,42,-2,40,5,2,4,-6,8
1523210739976340,0,7,39,-24,-8,-6,-31,-21
1523210739997395,13,2,-38,9,-4,-5,25,-6
1523210739997395,-5,-16,1,14,4,6,-4,-4
1523210739999402,26,16,-35,-15,-1,-7,-11,9
1523210739999402,-19,10,18,17,5,7,-2,-1
1523210740011471,2,12,-15,-8,-11,-14,-14,-39
1523210740011471,5,-25,-53,-21,-1,4,13,14
1523210740018452,-38,6,-22,15,-2,-4,-10,-34
1523210740018452,-10,11,-49,-24,-6,-4,7,-21
1523210740035495,-22,-3,39,-4,1,1,-11,-1
1523210740035495,3,10,-35,12,3,2,-2,9
1523210740036498,24,-13,35,0,-2,-1,-7,6
1523210740036498,-58,-13,-3,11,0,-2,-20,-21
1523210740057560,-39,-5,58,-9,-1,2,9,3
1523210740057560,15,6,25,10,-6,-7,-5,-9
1523210740058558,21,-3,-83,-26,1,6,2,9
1523210740058558,-40,2,63,-7,-1,-3,-2,-5
1523210740070826,37,20,55,24,4,3,-3,4
1523210740070826,11,-11,-65,-33,-5,-3,-3,25
1523210740079614,64,16,20,11,2,-1,1,-22
1523210740079614,54,-7,-3,-7,-5,-7,11,10
1523210740094656,-90,-47,-18,2,11,9,-11,-9
1523210740094656,28,11,50,27,4,1,-11,-7
1523210740096659,13,0,29,-50,-11,-2,12,23
1523210740096659,18,29,-46,5,-2,0,1,-3
1523210740117751,58,18,24,2,2,-1,14,41
1523210740117751,-57,14,14,19,-4,-8,-10,-26
1523210740118719,-13,-12,36,-4,-6,-4,-2,8
1523210740118719,-26,3,39,9,4,3,-16,-6
1523210740130986,43,12,-18,7,1,1,23,15
1523210740130986,-21,0,33,-35,-5,-4,-4,-2
1523210740139776,6,28,-1,33,2,0,-12,-5
1523210740139776,13,-14,-11,16,-1,0,11,1
1523210740154812,-44,22,53,0,0,-4,-8,-5
1523210740154812,9,3,-18,-10,2,6,-3,-10
1523210740156824,-73,3,37,-7,-4,-3,5,-8
1523210740156824,58,2,-17,-1,2,0,3,-4
1523210740176871,-15,0,18,1,-1,2,-16,-6
1523210740176871,-35,-23,-50,-2,-8,-10,17,-16
1523210740178877,-38,-18,-9,4,0,1,4,12
1523210740178877,-12,-1,16,-6,-2,1,0,10
1523210740190914,33,14,54,-11,-3,-6,-9,-13
1523210740190914,8,-55,42,62,4,4,-1,-3
1523210740199934,72,-6,-92,-78,-5,-1,6,19
1523210740199934,9,-7,7,19,4,2,2,3
1523210740214979,21,21,-24,-3,-8,-10,-27,0
1523210740214979,-39,-25,36,13,3,1,12,23
1523210740221225,96,-2,-9,44,9,9,16,31
1523210740221225,-49,10,22,-25,-7,-8,-16,-48
1523210740237271,25,3,-61,-14,-1,2,8,8
1523210740237271,-83,20,109,13,-2,1,-3,-12
1523210740239039,40,-12,-29,-9,-7,-10,12,7
1523210740239039,-28,12,-21,12,2,-2,-5,4
1523210740251308,20,0,-11,12,0,2,-4,-4
1523210740251308,18,5,-5,-48,-9,-8,-3,13
1523210740260094,-51,-5,19,11,-1,1,-17,-35
1523210740260094,30,5,9,-4,-1,-5,0,8
1523210740275134,-35,-14,-26,-5,-3,-1,4,-6
1523210740275134,52,-1,18,-8,2,-1,-16,9
1523210740276137,41,9,-28,12,3,3,0,-3
1523210740276137,19,-20,40,-3,1,2,-7,7
1523210740297194,-38,-17,-5,-3,0,1,8,10
1523210740297194,-19,17,-102,-14,-2,-1,-4,-7
1523210740299200,17,-7,26,3,1,0,-15,-10
1523210740299200,-17,0,-3,8,-1,1,24,11
1523210740311230,26,-23,3,-21,-3,1,-2,14
1523210740311230,-30,9,-1,8,4,4,2,-30
1523210740320254,-5,16,58,24,0,-4,-7,19
1523210740320254,19,-29,-23,-21,-4,-1,-7,19
1523210740335414,-7,7,-11,-28,-6,-5,0,-5
1523210740335414,24,17,-23,-3,1,-4,9,-5
1523210740336296,-18,-7,-31,22,3,4,1,-8
1523210740336296,-57,-9,-42,-3,-2,-3,-1,-3
1523210740357356,-36,-17,-3,3,-2,-4,10,-35
1523210740357356,0,-24,25,17,3,2,-18,3
1523210740359357,-77,-18,3,-28,-10,-8,-6,-31
1523210740359357,67,12,-21,1,2,2,-13,16
1523210740371388,-5,-31,-21,-13,-4,-3,16,3
1523210740371388,3,8,-8,-4,2,4,9,5
1523210740380412,-14,-5,36,9,-1,-1,-7,-8
1523210740380412,-17,2,35,7,0,-3,-13,0
1523210740394490,-59,-3,-49,-16,3,7,16,-18
1523210740394490,40,19,71,5,-5,-4,-10,1
1523210740396456,-22,-8,16,3,-4,-5,4,4
1523210740396456,20,18,-3,-6,-2,-2,-5,-21
1523210740417552,64,5,50,12,-1,-2,-4,33
1523210740417552,68,13,-47,5,-2,0,1,12
1523210740419556,-55,11,15,-5,-3,-3,-4,-24
1523210740419556,-4,15,5,3,0,2,5,-3
1523210740430548,-23,0,5,8,-1,-1,5,-1
1523210740430548,48,-16,-28,-8,-1,-3,-4,-3
1523210740439575,60,17,22,-11,-5,-5,-9,11
1523210740439575,-6,3,63,6,4,0,5,5
1523210740454610,-19,12,-57,12,-1,1,-33,-5
1523210740454610,19,14,-8,-37,-3,-1,2,-3
1523210740456616,-38,7,33,12,2,1,22,37
1523210740456616,-21,-8,-35,-9,-5,0,10,-7
1523210740477674,55,2,16,-12,-1,-5,-21,-28
1523210740477674,-24,-7,-45,13,-2,-4,-6,-3
1523210740478705,22,-15,13,0,4,3,8,12
1523210740478705,-27,17,24,-6,-1,-4,-3,-11
1523210740499731,-6,-23,-63,-4,-1,4,-29,-9
1523210740499731,-11,6,-18,3,1,3,7,-15
1523210740501737,46,9,-17,9,-2,-3,36,16
1523210740501737,-40,-3,-27,-14,-6,-6,-3,19
1523210740514771,103,30,29,10,4,4,5,10
1523210740514771,4,24,-14,21,-1,-7,-18,-6
1523210740516818,5,-16,-17,-16,1,2,-18,-11
1523210740516818,21,9,24,17,2,3,12,7
1523210740537067,-77,-28,21,-9,-5,-8,3,-21
1523210740537067,85,21,68,12,5,7,6,37
1523210740538847,-21,2,-80,-7,-3,-1,-2,-6
1523210740538847,-7,-29,33,3,0,-7,-4,-20
1523210740559890,-5,16,-14,20,9,1,9,12
1523210740559890,-117,-29,4,-17,-5,-1,-1,-17
1523210740561896,39,17,9,-13,-4,-2,-14,10
1523210740561896,4,-22,-40,6,0,3,4,4
1523210740574931,-3,14,-14,-6,-7,-3,-5,-15
1523210740574931,-2,-7,38,-4,4,1,9,26
1523210740575932,-65,-15,-51,0,-1,-3,10,-32
1523210740575932,6,-4,-66,5,-2,1,-10,-5
1523210740596988,5,-12,112,0,-2,-6,-3,4
1523210740596988,-53,-4,-43,0,2,1,6,-1
1523210740598994,-1,-20,13,-2,-1,2,-18,-3
1523210740598994,64,6,-4,2,0,0,5,12
1523210740620289,5,5,-5,-3,-3,-1,18,23
1523210740620289,24,-23,-9,-3,-2,-3,-21,-11
1523210740621052,-5,12,21,6,1,0,0,0
1523210740621052,5,-28,-71,-14,-4,-4,1,-6
1523210740635327,16,27,82,15,1,4,9,6
1523210740635327,-34,6,27,-9,1,-3,-16,-25
1523210740637104,14,-2,52,4,-1,-1,6,5
1523210740637104,-12,-16,-53,4,2,4,4,1
1523210740657148,-3,-3,-3,-5,-5,-1,-5,14
1523210740657148,55,-8,6,-3,3,0,-2,-12
1523210740659154,24,16,38,19,1,-3,-2,-10
1523210740659154,-41,6,25,-15,-5,-3,-18,-1
1523210740680414,-62,-8,29,9,0,0,23,0
1523210740680414,2,-6,-83,-19,-7,-3,-2,2
1523210740681211,2,-1,-26,9,2,-1,-6,2
1523210740681211,26,3,1,-9,-6,-4,-4,-4
1523210740694249,27,9,-61,-8,0,0,-5,7
1523210740694249,-11,-2,36,4,-1,-1,1,-8
1523210740701269,-14,-10,-61,-2,-8,-3,-2,-1
1523210740701269,-43,10,22,-6,-4,-2,6,-19
1523210740717308,91,-9,-1,-3,1,-2,-7,-13
1523210740717308,-46,-9,-19,-1,-2,-2,-3,17
1523210740719314,3,-30,-1,7,1,0,-2,13
1523210740719314,22,14,30,-4,0,-1,2,-7
1523210740740369,25,-10,-69,1,7,4,-5,7
1523210740740369,-2,25,25,-8,-10,-5,0,-12
1523210740741375,23,17,40,-19,-1,0,-5,-6
1523210740741375,-38,-13,-28,7,-4,-2,-8,-4
1523210740754405,-40,-1,10,-14,-3,-1,10,3
1523210740754405,30,0,1,15,0,0,19,4
1523210740761427,-42,12,-3,5,0,0,-9,-18
1523210740761427,37,2,41,-5,2,-3,1,5
1523210740777469,74,8,7,3,-2,-2,-10,26
1523210740777469,-25,-7,13,5,-5,1,4,4
1523210740778470,-33,1,28,0,2,-3,-13,-17
1523210740778470,-16,2,-31,-28,-4,-4,-1,11
1523210740799526,8,-2,1,29,-1,-2,0,-1
1523210740799526,-9,-4,36,6,4,3,1,7
1523210740801532,26,-4,-41,-19,-6,-4,-3,-1
1523210740801532,-17,-14,10,6,4,4,9,1
1523210740814567,-30,9,-26,-12,1,3,-6,-16
1523210740814567,1,6,41,7,-5,-6,-13,-5
1523210740820835,-12,5,34,13,8,8,22,6
1523210740820835,110,0,-34,-7,-6,-3,-18,-1
1523210740837627,-11,4,-7,10,-5,-9,30,14
1523210740837627,-47,-9,-3,2,2,0,-18,-32
1523210740838630,6,-3,-42,-29,-3,-4,3,8
1523210740838630,19,5,24,3,1,-1,-12,11
1523210740859686,-67,-21,-44,-12,0,0,-23,-30
1523210740859686,74,26,16,-1,-3,0,23,14
1523210740861693,-27,-9,-27,10,-2,-4,-2,24
1523210740861693,-36,-8,36,6,-1,-1,2,-10
1523210740873724,-4,11,-7,-19,-2,0,-3,-12
1523210740873724,5,-8,-84,9,-1,-1,-36,6
1523210740880981,-61,10,10,-12,3,5,3,-31
1523210740880981,1,7,-4,18,2,-1,7,8
1523210740897075,19,-1,9,-4,0,-1,21,8
1523210740897075,57,-11,25,4,2,3,12,41
1523210740899079,-52,4,-6,7,-4,-2,-16,-21
1523210740899079,-23,2,70,-4,-4,-2,-11,-15
1523210740920377,-34,-8,21,-4,-1,-4,3,-35
1523210740920377,-5,1,-20,-13,-2,-5,-3,5
1523210740921140,82,3,33,17,4,4,2,19
1523210740921140,-71,4,-58,4,5,2,18,-10
1523210740934408,-9,-10,76,-2,-1,0,-16,2
1523210740934408,-10,-3,-3,8,0,1,11,2
1523210740941193,6,-11,13,-25,-7,-5,-14,-7
1523210740941193,49,-10,35,9,-2,1,1,-1
1523210740957237,30,20,26,4,-3,-2,11,6
1523210740957237,-29,0,-56,3,5,-1,-4,-15
1523210740959239,97,-1,16,5,1,1,8,16
1523210740959239,-49,-3,-53,-21,-7,-2,-9,1
1523210740980399,-1,-1,-28,2,-4,-4,-12,-20
1523210740980399,0,4,61,-4,4,3,10,-8
1523210740981298,32,17,-57,7,-2,1,2,-2
1523210740981298,5,-18,33,5,5,5,13,5
1523210740993370,23,-1,-40,-5,-6,-4,-11,-5
1523210740993370,-5,3,-33,-17,-9,-5,2,-11
1523210741002355,29,-19,23,7,0,-2,-11,9
1523210741002355,20,8,1,4,3,-1,-12,-4
1523210741017395,-76,-4,9,-9,-7,-4,7,-8
1523210741017395,-24,-12,33,-11,-3,-4,-7,3
1523210741019399,19,-3,-18,3,0,1,-12,-1
1523210741019399,-19,14,14,6,1,-2,-4,-58
1523210741039498,-5,-9,10,4,1,0,8,26
1523210741039498,-19,40,-18,-5,-5,-4,-4,-11
1523210741041457,-43,-13,-51,-6,-3,0,-4,-4
1523210741041457,-20,0,27,-5,-2,-1,1,0
1523210741053729,-17,12,67,12,6,5,1,18
1523210741053729,84,-1,-88,17,-6,-5,-1,-13
1523210741062515,-28,-2,118,-33,-5,-3,-6,-11
1523210741062515,8,-29,-60,4,-5,-7,4,20
1523210741077555,19,-9,-20,0,-1,-1,-1,5
1523210741077555,-29,-11,8,0,5,7,18,4
1523210741078731,10,5,47,24,1,0,-9,23
1523210741078731,33,0,-5,-9,-2,-1,6,9
1523210741099613,-17,-14,-24,-4,-1,-1,-20,1
1523210741099613,-5,-5,50,-12,-2,-6,2,-32
1523210741101617,-41,-1,12,0,1,-1,-7,8
1523210741101617,-8,20,17,2,-3,0,10,24
1523210741113682,-16,4,-62,13,7,3,-14,-14
1523210741113682,29,1,75,-1,0,1,4,17
1523210741122675,32,15,-25,-27,-6,-6,6,-9
1523210741122675,-37,-18,-43,-7,-5,-6,-15,5
1523210741137713,5,4,8,4,6,10,13,-3
1523210741137713,-39,-5,-12,9,4,0,-3,-9
1523210741138725,-16,-9,-66,-12,-9,-8,12,-26
1523210741138725,32,3,-40,-5,0,1,0,3
1523210741159773,-46,4,-6,-1,1,-2,5,-22
1523210741159773,62,-1,3,-1,1,-1,-6,21
1523210741161778,-1,-2,-30,19,4,2,4,9
1523210741161778,-55,-9,7,-10,-1,0,7,6
1523210741173811,78,-1,-49,0,-6,-5,-11,5
1523210741173811,-36,5,-2,2,0,2,-3,6
1523210741182834,-57,-15,-27,13,4,2,-4,-20
1523210741182834,30,23,38,4,-2,0,4,26
1523210741196911,46,12,85,-12,-5,-4,6,10
1523210741196911,-46,-23,-91,-6,-2,-2,3,-3
1523210741198876,5,10,7,7,2,3,-8,-24
1523210741198876,-11,-18,9,-12,-5,-5,6,-2
1523210741220170,7,15,-10,2,1,-3,-3,4
1523210741220170,-16,-11,64,12,0,2,-20,-20
1523210741220939,-21,-8,-9,-26,-4,-2,27,21
1523210741220939,17,-5,11,-2,0,-2,-9,-11
1523210741234052,26,-26,-36,-3,2,5,6,4
1523210741234052,-65,-6,45,-14,-10,-8,-7,-13
1523210741241991,64,-1,42,20,1,-1,-14,16
1523210741241991,25,34,-16,3,0,-3,0,-6
1523210741257031,-12,17,-28,-6,-1,3,-1,9
1523210741257031,72,21,24,0,0,3,7,6
1523210741259036,34,-2,21,-8,-9,-10,-17,-12
1523210741259036,43,8,-13,0,-1,2,28,11
1523210741280329,-128,-10,-25,4,4,0,-11,-9
1523210741280329,24,3,32,5,-4,-6,-22,-10
1523210741282097,-9,2,34,-10,-5,-3,17,3
1523210741282097,-68,-25,-34,-3,-2,0,-2,-9
1523210741293167,4,-15,8,-1,-1,-5,-11,4
1523210741293167,6,-29,-14,-2,1,5,10,4
1523210741302255,-46,4,1,26,3,-1,-16,-27
1523210741302255,9,-14,-24,-19,-2,1,6,7
1523210741317192,-7,4,9,0,-2,-1,3,1
1523210741317192,-63,6,-1,9,1,-1,9,-4
1523210741319196,19,-2,-61,-4,-2,-2,2,12
1523210741319196,7,8,-49,4,3,4,-6,12
1523210741340252,-7,-9,95,5,-2,-1,10,-3
1523210741340252,49,9,-54,-9,3,1,4,3
1523210741341254,-9,4,17,15,1,0,5,5
1523210741341254,32,0,4,-26,-6,-4,-10,-11
1523210741353521,-4,8,8,-6,0,-1,-2,-6
1523210741353521,9,-12,32,-9,-5,-1,-3,4
1523210741362311,23,9,-6,0,0,-3,11,-14
1523210741362311,-13,-1,56,12,-1,-5,-13,-13
1523210741377358,10,-5,-6,-4,-2,0,-7,-2
1523210741377358,12,3,-53,-4,-2,3,9,-2
1523210741379357,42,-4,50,2,1,3,-6,23
1523210741379357,-32,7,-40,3,-2,-4,15,-15
1523210741399411,-7,-6,-41,-13,2,2,-9,-10
1523210741399411,-12,2,-7,10,3,1,0,3
1523210741401414,26,5,57,-23,-6,1,3,15
1523210741401414,-51,0,39,18,2,0,-10,-10
1523210741422473,50,8,-67,3,-4,-2,3,-1
1523210741422473,3,-9,-23,-28,-2,-1,-3,-6
1523210741423472,-24,-4,-34,12,-2,-4,-3,34
1523210741423472,19,11,32,5,7,4,-1,-10
1523210741437509,25,-11,-67,-16,-8,-8,-5,1
1523210741437509,5,7,9,-3,-2,-3,-5,5
1523210741438514,-9,-12,-2,6,2,-1,-9,-14
1523210741438514,13,-1,20,1,-1,1,-6,12
1523210741459571,18,10,-11,1,3,5,3,-7
1523210741459571,-23,-10,17,1,-1,-6,1,6
1523210741461574,-35,6,-38,-8,3,5,2,-11
1523210741461574,-52,-8,92,16,4,3,-2,-9
1523210741482867,6,-9,46,-14,-7,-3,7,5
1523210741482867,20,4,44,9,0,-4,-24,-12
1523210741483633,0,-25,-7,3,2,1,14,4
1523210741483633,24,22,-23,-7,0,5,0,22
1523210741497672,-11,-15,4,-1,-7,-6,-14,-8
1523210741497672,-18,6,-5,0,1,3,12,3
1523210741498675,1,-3,46,24,5,0,-27,-14
1523210741498675,4,-9,-64,-6,-3,-4,20,5
1523210741519963,-20,-8,53,-14,-2,0,-1,0
1523210741519963,8,-4,-17,8,-6,-5,6,7
1523210741521740,12,-4,22,3,1,2,-12,-15
1523210741521740,35,-29,-2,-2,-6,-4,4,29
1523210741542793,-93,2,24,6,-5,-5,-3,-17
1523210741542793,57,10,4,2,3,1,-14,-6
1523210741543792,10,2,31,-25,-3,-1,17,13
1523210741543792,-29,-29,21,5,-9,-8,-30,-45
1523210741556833,16,10,-10,-2,3,6,37,16
1523210741556833,56,17,-19,4,2,-2,-12,15
1523210741558832,-102,-40,-6,-6,-2,0,32,-13
1523210741558832,36,10,-15,-5,-6,-6,-18,-2
1523210741580123,59,18,32,12,5,4,-11,8
1523210741580123,-71,-26,-57,-4,0,3,35,5
1523210741580891,62,21,-12,18,0,-2,-1,32
1523210741580891,15,-6,-22,-1,-1,-3,-10,-28
1523210741602949,16,-12,-39,0,-4,-4,-13,-6
1523210741602949,-24,-16,19,-3,2,3,-5,-2
1523210741603958,49,10,5,-6,-3,-3,2,17
1523210741603958,-41,-2,-15,-8,-1,2,3,-6
1523210741616986,-23,2,-47,0,-3,-4,-11,-14
1523210741616986,9,-5,17,-3,-6,-6,-14,7
1523210741623007,-19,-15,-18,0,3,3,1,-33
1523210741623007,19,20,41,-7,3,5,-1,14
1523210741640048,45,8,-19,8,-7,-6,-23,5
1523210741640048,-49,-13,67,6,-1,-2,20,3
1523210741641053,-62,14,-40,-22,-6,-4,-16,-33
1523210741641053,-43,6,15,10,1,0,3,-3
1523210741662113,13,-3,16,-25,-3,-1,-1,3
1523210741662113,-46,-5,40,-9,-7,-2,3,-10
1523210741664113,16,5,-74,-3,0,-1,-2,16
1523210741664113,25,0,-25,4,-5,-5,8,-13
1523210741677147,-56,-4,25,16,4,-4,-1,-20
1523210741677147,18,20,4,-18,-6,-4,-9,-11
1523210741683402,-61,-37,-2,-7,2,0,0,6
1523210741683402,-52,-38,-8,4,-2,2,7,3
1523210741700210,18,4,40,2,-1,1,-5,-8
1523210741700210,9,4,-50,2,4,4,-11,-8
1523210741701210,-9,10,-10,-10,-16,-12,7,-10
1523210741701210,43,8,65,2,5,1,-3,0
1523210741722276,-2,4,-75,0,-3,-4,7,30
1523210741722276,-34,-8,31,-3,0,-1,-3,-42
1523210741724273,60,1,46,10,3,3,-13,4
1523210741724273,55,3,4,0,1,-2,-2,20
1523210741736539,24,-2,-18,1,0,2,8,-9
1523210741736539,12,2,38,1,-1,-4,-22,12
1523210741743323,24,4,-40,8,4,3,33,21
1523210741743323,17,5,26,-8,-5,-4,-9,-4
1523210741759365,24,1,42,10,4,6,-4,-4
1523210741759365,-2,-17,-40,-6,-2,2,7,8
1523210741761370,31,9,24,-17,-8,-5,-20,-3
1523210741761370,-86,-27,10,19,-1,-3,5,-11
1523210741782661,-19,2,11,-7,0,-2,2,-4
1523210741782661,42,-6,0,-1,-2,-1,-5,-3
1523210741784432,-13,11,22,18,5,3,9,4
1523210741784432,68,-1,-67,-31,-5,-3,-10,-5
1523210741796465,-20,-9,10,-1,-6,-2,-3,-2
1523210741796465,13,8,-10,15,3,-2,11,24
1523210741803483,-20,-23,2,-27,-4,-3,-20,-23
1523210741803483,-16,9,44,7,1,2,4,4
1523210741819763,33,-23,-64,-11,-3,-3,-17,10
1523210741819763,12,17,-29,0,1,4,24,18
1523210741821536,-8,19,35,7,1,-2,-6,-8
1523210741821536,37,-2,11,6,0,0,0,13
1523210741842587,11,-9,-38,-11,-2,-2,-9,0
1523210741842587,-61,-4,-1,1,-1,2,0,-14
1523210741843590,-12,4,-28,6,0,-5,4,14
1523210741843590,8,-2,1,-16,-3,-2,-3,-25
1523210741856625,-56,-17,45,18,4,7,6,-20
1523210741856625,19,-9,2,1,0,-3,-5,15
1523210741863681,-21,1,9,-2,-2,0,-2,-22
1523210741863681,9,9,-49,-3,3,2,-3,10
1523210741879922,3,12,55,-5,-1,-1,6,11
1523210741879922,-33,-1,-13,1,-4,-8,-1,-3
1523210741881690,-4,17,-10,3,5,6,-3,-8
1523210741881690,-13,9,15,-2,0,-1,-14,10
1523210741902981,50,0,-49,-3,-1,-1,5,14
1523210741902981,-38,-15,40,8,-3,-5,-3,-22
1523210741904754,5,1,26,5,2,3,-2,4
1523210741904754,-28,12,-23,4,0,-1,-5,-11
1523210741916784,-28,-11,-71,-14,-4,-2,-5,-10
1523210741916784,46,7,32,-1,-3,-1,0,6
1523210741923805,44,-1,15,2,-2,-2,-8,-7
1523210741923805,27,9,-30,4,3,2,9,1
1523210741939852,-58,5,85,12,0,-3,3,10
1523210741939852,52,2,-41,-5,6,7,7,18
1523210741941849,-20,-15,-14,-6,-8,-5,-5,-11
1523210741941849,-22,2,11,-12,-4,-3,0,-1
1523210741961907,40,-5,10,16,6,1,-2,-5
1523210741961907,5,9,36,1,-9,-6,-4,-3
1523210741963909,-33,-5,3,-27,-3,-3,-3,-2
1523210741963909,60,2,0,15,4,5,4,21
1523210741975943,-77,-26,-81,-38,-10,-11,-3,-37
1523210741975943,-8,-11,62,22,-1,-1,-5,-8
1523210741984964,-6,-17,-105,-18,-6,-3,-5,8
1523210741984964,-59,-15,74,2,1,-1,7,-14
1523210742000005,58,34,56,0,-2,1,4,27
1523210742000005,-2,-26,-36,-6,1,0,-8,-7
1523210742002072,4,19,46,17,2,1,0,2
1523210742002072,-34,5,33,11,4,2,9,-1
1523210742022110,-13,-28,-26,1,-2,-2,6,17
1523210742022110,3,10,-23,-5,4,3,-1,-9
1523210742024070,20,-27,10,4,-3,-1,-10,0
1523210742024070,8,-4,-47,-15,-3,-6,-7,-10
1523210742036336,45,14,44,7,3,3,6,9
1523210742036336,-3,11,2,-3,-3,-5,-4,-20
1523210742045131,-35,-9,-63,-1,-1,-1,1,7
1523210742045131,-23,12,38,9,7,5,2,-20
1523210742060165,15,-10,-24,3,-3,-4,3,2
1523210742060165,-53,-3,-27,-6,-2,1,2,2
1523210742061167,84,24,8,-14,-5,-7,-10,4
1523210742061167,1,-10,37,10,1,3,10,7
1523210742082460,-30,2,-6,2,2,-1,2,-9
1523210742082460,33,6,-21,-15,0,1,-4,4
1523210742084228,-74,2,-12,6,-7,-7,1,-7
1523210742084228,-33,-14,-17,-10,0,6,9,7
1523210742096259,38,8,30,2,-5,-11,-24,-14
1523210742096259,28,11,-26,6,0,-5,15,16
1523210742105290,-56,-1,20,0,1,1,-3,7
1523210742105290,70,19,-59,-3,-9,-6,-7,2
1523210742120325,-6,-5,-13,-11,-5,2,6,8
1523210742120325,-42,-7,3,-1,-2,-2,-2,-11
1523210742121332,11,-4,27,-1,-1,-3,-3,-2
1523210742121332,-43,-17,-42,7,0,-1,-12,-14
1523210742142384,1,2,25,1,3,5,21,-9
1523210742142384,70,1,14,-38,-10,-7,-20,8
1523210742144387,-3,-12,12,-5,-1,0,2,7
1523210742144387,-15,-16,1,6,-3,-2,2,2
1523210742155417,-24,16,25,8,1,2,-11,-6
1523210742155417,19,-9,15,3,3,1,2,2
1523210742165444,4,12,-15,-2,1,3,10,-4
1523210742165444,8,-5,-7,-12,-5,-6,-12,3
1523210742180484,-11,16,51,9,-1,-1,-1,10
1523210742180484,-10,-24,-67,-2,-3,2,-2,-14
1523210742181487,-35,-21,-10,14,8,6,3,0
1523210742181487,-18,17,-6,-21,-4,-3,3,-1
1523210742202784,14,-9,26,-3,-1,-3,-11,0
1523210742202784,-7,-1,-48,-1,-4,-3,11,-1
1523210742203550,5,-1,-8,5,0,0,7,-2
1523210742203550,10,7,60,8,3,0,-12,-14
1523210742215579,-75,-7,9,0,-4,-3,-1,1
1523210742215579,-16,13,-10,-1,1,2,-1,2
1523210742224601,-20,20,72,5,2,-3,-18,-23
1523210742224601,31,-8,-79,-20,-10,-6,11,18
1523210742239641,27,0,17,3,1,1,5,-2
1523210742239641,-17,10,-7,10,1,-2,-13,2
1523210742241647,36,12,-21,5,2,1,12,-9
1523210742241647,14,-9,33,16,2,0,-13,-2
1523210742262702,-6,9,-16,-18,1,1,7,3
1523210742262702,3,2,-13,3,-3,-1,-2,-7
1523210742263705,66,-8,25,-3,-1,-2,5,19
1523210742263705,7,-4,54,2,-1,2,-1,8
1523210742275737,0,3,-63,7,-3,-4,4,1
1523210742275737,31,6,42,10,3,0,-3,-1
1523210742284801,15,-2,3,6,3,2,-4,-1
1523210742284801,11,17,-43,0,-1,-1,-10,-3
1523210742299841,7,-31,-7,2,2,5,21,8
1523210742299841,-23,-10,-21,-12,-8,-7,-7,1
1523210742301807,14,10,23,4,0,0,3,0
1523210742301807,-8,8,-24,8,7,5,-4,5
1523210742321863,-4,6,-40,-11,-7,-3,-1,-14
1523210742321863,-43,-11,-60,-10,-3,-2,-14,-21
1523210742323866,-4,-16,-18,1,-2,-1,15,4
1523210742323866,-4,-5,-40,0,0,-3,-11,18
1523210742343920,-57,-26,-48,-24,-11,-7,-22,-48
1523210742343920,6,1,60,6,5,4,31,13
1523210742344921,-25,-17,-41,-9,-2,-2,-11,2
1523210742344921,-35,-5,-4,-3,-5,-3,4,-9
1523210742358960,43,19,-45,-3,2,3,-3,16
1523210742358960,-24,-18,82,-4,-5,-6,-9,-10
1523210742359964,10,-16,13,5,3,5,2,-6
1523210742359964,38,5,8,5,-1,-4,-4,23
1523210742382195,-10,12,-5,-14,2,1,12,-9
1523210742382195,-3,-1,56,8,6,7,9,13
1523210742382195,1,14,-22,2,-5,-5,-11,-2
1523210742382195,0,-3,70,-1,-1,0,-9,9
1523210742404078,-3,-7,-37,-3,-7,-9,4,-19
1523210742404078,38,27,-17,8,2,5,19,13
1523210742405083,-92,-30,76,-5,-2,-3,-12,-11
1523210742405083,17,1,-60,-18,-4,1,5,-27
1523210742419356,5,9,31,8,-1,-2,3,19
1523210742419356,57,0,17,4,2,0,-7,2
1523210742420123,-2,17,-36,0,-2,0,2,-21
1523210742420123,-38,-25,6,3,3,2,6,7
1523210742441177,-23,1,23,7,0,0,-14,2
1523210742441177,-72,-23,-7,-7,1,0,-10,-23
1523210742442181,103,28,-12,-5,-4,-5,10,23
1523210742442181,-12,-2,56,-9,-9,-7,-6,-10
1523210742464239,1,-6,-7,10,5,2,-3,13
1523210742464239,-11,12,-22,-1,-3,-1,8,17
1523210742465240,48,-11,-10,-7,0,-7,-13,-29
1523210742465240,-15,0,-14,-8,-3,0,21,-5
1523210742479515,7,-11,23,21,6,3,-19,-8
1523210742479515,-5,-3,35,-29,-7,-6,-7,-6
1523210742480280,-62,6,-55,3,-2,2,-15,4
1523210742480280,79,-27,-27,-6,-1,-2,17,5
1523210742501572,14,-4,58,10,4,4,10,6
1523210742501572,-30,-15,-25,-2,-3,-5,-18,-14
1523210742502339,30,-40,2,-18,-6,0,8,0
1523210742502339,5,6,-22,4,-4,-8,-10,0
1523210742524397,25,4,-44,3,2,0,-3,0
1523210742524397,18,9,-5,2,0,-2,-18,4
1523210742524397,3,1,-6,-5,-2,0,11,8
1523210742524397,-5,2,-22,0,0,-1,0,7
1523210742539440,6,-13,52,-2,-1,0,-2,-16
1523210742539440,24,7,-31,2,0,0,-6,-4
1523210742539440,-15,14,-55,-2,4,4,-2,4
1523210742539440,17,7,21,-3,-2,-2,-9,-6
1523210742561496,-55,10,27,4,-4,-5,1,-7
1523210742561496,-31,4,10,-2,-1,3,3,0
1523210742562499,17,-1,3,7,2,0,-1,-4
1523210742562499,-18,-3,7,15,5,5,4,-1
1523210742584719,-74,11,-71,-14,-5,-5,-17,-20
1523210742584719,-8,-28,-15,-16,-5,-4,1,-15
1523210742584719,-48,-9,14,10,-2,-3,1,-4
1523210742584719,20,16,36,4,1,3,19,3
1523210742599600,63,-14,-19,4,1,0,-5,20
1523210742599600,-10,4,6,2,-1,1,1,-1
1523210742599600,4,-5,33,5,1,-5,4,10
1523210742599600,-13,9,-38,-11,-5,-3,-13,-17
1523210742621659,62,7,84,16,3,2,8,27
1523210742621659,-8,-13,-88,-12,-4,-4,-2,-19
1523210742622660,5,14,23,-3,-8,-5,-7,-12
1523210742622660,-31,0,23,6,6,2,-3,-12
1523210742643754,32,11,-33,-16,-5,-3,3,14
1523210742643754,-20,22,112,21,2,-1,-20,3
1523210742644719,-2,3,-50,-17,-2,3,20,14
1523210742644719,-11,-19,-48,-8,-6,-6,-6,-8
1523210742658754,-31,17,32,7,4,3,3,-17
1523210742658754,16,10,26,5,-1,-2,-22,11
1523210742659758,7,5,-66,-5,-4,0,12,5
1523210742659758,0,10,-20,-4,0,1,-5,-10
1523210742682054,23,-18,5,-11,-6,-4,4,0
1523210742682054,48,12,-68,9,5,3,2,68
1523210742683023,-47,14,65,1,0,-4,-7,-31
1523210742683023,-5,-23,-79,-4,-1,1,9,1
1523210742703879,3,-1,16,-10,0,0,-9,-4
1523210742703879,67,1,-47,-7,-3,-2,11,7
1523210742704883,-20,-13,103,8,1,-2,-26,-9
1523210742704883,2,-10,-48,-10,-3,-6,-17,32
1523210742719150,-52,0,-25,-1,-1,-4,14,-28
1523210742719150,-1,11,-30,-2,1,0,7,-21
1523210742719921,23,2,61,18,3,3,-1,10
1523210742719921,37,7,65,-18,1,2,3,-17
1523210742741979,38,-19,8,-6,-3,2,1,32
1523210742741979,-87,-6,-6,1,-2,-8,-23,-58
1523210742741979,30,1,-37,-1,1,1,-4,0
1523210742741979,4,11,51,6,-1,1,5,-6
1523210742764034,16,3,-5,-8,-4,-2,5,5
1523210742764034,7,-2,22,1,1,1,12,1
1523210742765038,32,-1,-12,-7,0,0,-12,3
1523210742765038,-16,-8,-4,4,0,2,-1,-13
1523210742779310,79,9,19,-6,2,2,11,12
1523210742779310,5,34,5,17,2,1,0,-8
1523210742780077,58,-19,-1,-10,-2,1,12,6
1523210742780077,-22,8,6,-9,-8,-6,-19,4
1523210742802191,-19,-3,-2,9,1,-3,-12,-23
1523210742802191,39,12,86,2,1,0,6,12
1523210742802191,-33,-7,-44,2,-1,-2,0,8
1523210742802191,-50,5,41,2,0,2,21,-16
1523210742824197,40,7,2,-8,-1,-1,-8,9
1523210742824197,-69,-56,-49,0,-2,-2,5,-2
1523210742825199,-22,-3,-27,5,3,0,-8,5
1523210742825199,21,6,38,-27,-9,-5,-5,11
1523210742839236,-106,-40,-13,9,-1,1,-19,-7
1523210742839236,105,-6,7,-6,-2,-2,17,15
1523210742840239,-48,15,16,1,2,0,6,-1
1523210742840239,71,3,-3,16,6,3,6,41
1523210742861294,-59,0,-66,-12,-6,-4,-19,-50
1523210742861294,-61,-16,27,-12,-2,0,7,-1
1523210742862295,2,0,37,8,0,-1,-5,-6
1523210742862295,20,5,-6,4,1,-2,-9,10
1523210742884589,-20,4,-17,0,1,-1,3,-32
1523210742884589,28,-12,50,-2,-5,-1,-8,11
1523210742885539,19,17,20,-4,-1,-2,8,-17
1523210742885539,-77,-4,-18,1,1,2,-1,-13
1523210742899438,56,-4,-11,4,2,2,11,20
1523210742899438,-12,1,-26,4,-2,0,-1,-9
1523210742899438,-15,8,48,-8,-4,0,1,-4
1523210742899438,48,4,29,9,-1,-2,-18,7
1523210742921458,42,-26,5,-1,-2,1,36,30
1523210742921458,-38,-6,-102,-5,-2,-3,-7,-35
1523210742922457,1,7,58,-10,-4,-3,-1,19
1523210742922457,-30,5,32,13,4,3,-6,-23
1523210742944516,5,11,43,3,2,3,-4,18
1523210742944516,-37,13,27,1,0,2,-1,5
1523210742944516,-7,-7,-28,-8,-1,1,-2,5
1523210742944516,-77,-3,-15,-7,-8,-7,-5,-47
1523210742959557,-2,17,45,1,1,-2,-4,14
1523210742959557,-46,-8,50,-3,2,2,1,-6
1523210742959557,9,-1,-17,3,1,-2,-18,-10
1523210742959557,38,-3,-24,-4,-5,-1,26,7
1523210742981847,-25,3,2,5,0,-5,-23,2
1523210742981847,13,2,11,-2,-5,-5,11,0
1523210742982617,3,-10,-74,-8,1,3,1,3
1523210742982617,27,-31,-52,2,1,1,-6,6
1523210743003679,-2,6,46,17,2,-2,1,-2
1523210743003679,79,6,-37,-26,-6,-4,-8,-7
1523210743004675,-20,-12,-26,16,-3,-6,-8,3
1523210743004675,15,6,19,-3,4,7,2,-8
1523210743018948,20,8,-36,-14,-9,-5,8,6
1523210743018948,26,-5,-35,-4,-1,0,3,21
1523210743026734,-3,-6,8,8,1,1,0,-3
1523210743026734,-22,3,-41,-7,-4,-5,-14,9
1523210743041813,-8,3,36,-2,0,1,-14,-26
1523210743041813,-26,-25,-66,0,-3,-6,3,-1
1523210743042778,-18,15,0,-12,-6,-4,-7,-4
1523210743042778,-35,-2,-3,-6,0,-2,16,-4
1523210743063831,12,-1,-27,12,3,4,0,-4
1523210743063831,-3,-3,21,8,1,2,-6,-1
1523210743064834,-18,-4,-6,7,-1,-2,-1,4
1523210743064834,32,2,25,-17,2,1,-2,12
1523210743079041,-17,8,-51,-10,-5,-2,10,-11
1523210743079041,2,2,87,0,0,0,-1,-6
1523210743086896,-29,2,-73,-7,-4,-7,-6,5
1523210743086896,-35,-9,0,6,-1,-2,-6,12
1523210743102167,-13,12,-20,1,-3,-1,4,-3
1523210743102167,35,17,-22,1,0,0,-11,10
1523210743102167,24,-11,16,-7,-1,-2,17,14
1523210743102167,2,10,12,10,2,2,-10,-12
1523210743123992,-7,-11,3,-12,-7,-7,-15,-3
1523210743123992,6,13,24,21,3,5,11,-3
1523210743124996,54,22,23,-10,1,2,-7,-8
1523210743124996,37,-11,-55,-2,-2,-3,-11,-6
1523210743138036,-59,-16,72,1,2,1,7,9
1523210743138036,20,2,-5,3,3,0,1,-1
1523210743147053,68,-9,-40,1,-1,1,13,7
1523210743147053,-94,-11,84,5,-3,-2,-1,-25
1523210743161090,6,-3,-42,-5,0,-1,-16,-4
1523210743161090,-17,-5,-35,-8,1,2,3,-3
1523210743162093,-6,6,62,1,2,4,14,10
1523210743162093,28,-10,20,-4,-4,-4,-4,-13
1523210743184392,25,14,17,-2,0,0,4,3
1523210743184392,-17,-17,22,4,1,3,5,6
1523210743185154,-40,7,1,-6,-4,-1,-1,-36
1523210743185154,28,-3,37,-3,-6,-5,5,28
1523210743198189,-19,-4,-20,4,1,2,-4,-7
1523210743198189,-35,-6,-8,-2,-1,-3,-19,-6
1523210743206211,25,-9,8,0,-5,-4,-1,29
1523210743206211,4,15,21,4,0,-3,-4,-8
1523210743221251,-4,-12,-16,0,3,3,17,-2
1523210743221251,-65,2,23,0,1,1,-3,6
1523210743222253,-33,-14,5,10,-6,-4,-10,-23
1523210743222253,1,-9,14,-20,0,0,-8,11
1523210743244311,-47,-8,-66,-11,-6,-9,-2,-17
1523210743244311,51,10,-4,6,-1,2,7,22
1523210743245314,-42,2,24,1,-2,-3,-6,-24
1523210743245314,-8,11,26,8,1,0,10,-8
1523210743258350,-2,-7,8,0,1,-1,-24,5
1523210743258350,-40,-16,-6,-6,-3,-3,20,11
1523210743266370,6,0,-17,-3,3,0,-22,-12
1523210743266370,-32,-9,-19,1,-1,-2,17,6
1523210743281647,61,9,30,-2,2,0,-4,9
1523210743281647,2,1,-77,-14,-5,-6,-20,-22
1523210743282412,18,-11,-57,22,3,5,7,20
1523210743282412,14,-8,-31,-23,-6,-1,0,6
1523210743304473,-3,19,9,7,0,-3,1,-14
1523210743304473,44,-7,-36,-2,-1,-1,7,2
1523210743304473,19,19,14,-10,-3,-4,-15,-2
1523210743304473,37,7,-50,10,2,3,17,-2
1523210743327770,25,-3,3,7,1,-3,-3,5
1523210743327770,9,13,32,-2,-2,-2,-9,1
1523210743328534,0,-8,-3,-2,0,2,15,2
1523210743328534,-18,2,42,7,-1,-2,-16,-3
1523210743341608,-1,-3,-80,-10,1,0,2,-3
1523210743341608,0,9,51,1,-2,-1,-1,-11
1523210743342573,14,-12,-12,-12,-2,-2,-1,5
1523210743342573,-61,-17,14,0,-2,-2,-4,-10
1523210743363627,5,-6,16,-1,-1,-1,2,-1
1523210743363627,-7,3,24,11,5,1,2,15
1523210743364631,-34,4,-5,-10,-2,-4,-1,-12
1523210743364631,45,10,-43,-3,2,8,15,20
1523210743387693,29,-2,90,-4,-5,-7,-28,-33
1523210743387693,10,-2,-13,5,0,-3,8,15
1523210743387693,-40,-8,-9,-10,2,3,-3,-23
1523210743387693,36,-27,53,15,2,3,2,17
1523210743401964,-28,8,-27,-4,-1,3,10,3
1523210743401964,25,-8,22,5,-4,-6,-15,-5
1523210743402735,62,14,-35,-4,-1,1,-12,6
1523210743402735,-89,-3,29,-5,-7,-12,0,-25
1523210743423790,39,-8,-5,13,3,3,16,23
1523210743423790,-77,-10,13,-2,-1,-5,-7,-36
1523210743424791,40,-1,-86,-14,2,-3,0,20
1523210743424791,1,19,56,0,-3,-3,-11,-34
1523210743446850,12,-13,-20,-9,-7,-4,-3,9
1523210743446850,-52,15,-11,4,6,6,11,3
1523210743447852,30,1,59,6,-2,-2,-4,15
1523210743447852,19,5,-43,1,1,0,2,-1
1523210743461929,-22,-4,26,1,1,-1,3,5
1523210743461929,29,-21,59,-8,-4,0,-8,-10
1523210743461929,-2,-16,-42,4,-1,1,2,-14
1523210743461929,8,-6,-82,-11,0,-1,-9,-4
1523210743484182,-66,8,24,6,-3,-4,-2,2
1523210743484182,61,7,-20,-2,2,3,2,-3
1523210743484950,-12,14,111,3,-1,-3,7,-1
1523210743484950,8,-25,-18,-1,0,0,-23,5
1523210743507009,16,6,10,-32,-6,-5,8,-2
1523210743507009,6,23,21,-5,-1,-2,5,3
1523210743508011,-58,-7,40,11,1,4,3,-16
1523210743508011,-9,33,-32,10,3,-2,2,11
1523210743522049,48,-7,42,2,3,4,0,-2
1523210743522049,-31,7,-45,-13,-4,-4,-7,6
1523210743522049,41,0,-31,-1,-2,-1,3,1
1523210743522049,-47,-7,84,3,-2,3,13,5
1523210743544146,4,-17,-46,-4,-8,-6,-15,3
1523210743544146,20,0,18,-4,-3,-2,4,18
1523210743545111,-25,-4,25,7,0,-1,-2,-8
1523210743545111,21,-3,-51,-3,-3,-6,-12,2
1523210743567403,14,4,-29,-4,1,5,-2,9
1523210743567403,-14,-24,-13,4,3,2,10,16
1523210743568171,1,11,34,11,-2,-2,4,-8
1523210743568171,-35,-14,-38,-37,-7,-4,2,13
1523210743582215,-29,-3,18,6,1,0,1,1
1523210743582215,26,12,-6,4,-2,-5,-17,-24
1523210743582215,6,-11,-63,-16,-7,-2,-3,2
1523210743582215,13,-20,-46,17,5,4,4,-5
1523210743604271,-4,8,-29,6,-1,-4,-3,13
1523210743604271,-51,-18,32,-16,-2,0,5,-20
1523210743605271,32,-41,23,5,4,2,-3,13
1523210743605271,-55,19,82,6,0,1,14,-11
1523210743627369,21,2,14,-4,-5,-5,-11,8
1523210743627369,-11,-2,-67,1,-3,-1,-3,-11
1523210743628332,-2,11,2,-4,2,1,-3,3
1523210743628332,28,22,49,12,0,-1,-12,-5
1523210743641368,3,-22,-18,10,1,1,22,2
1523210743641368,11,-12,60,3,2,1,0,0
1523210743642368,25,8,-14,-10,-3,-3,-6,8
1523210743642368,23,-5,44,10,1,-2,-1,1
1523210743664426,-30,14,29,-19,2,2,4,-4
1523210743664426,15,2,-43,-2,-4,-2,-5,0
1523210743664426,-29,9,55,1,0,0,3,3
1523210743664426,-7,-13,-96,-6,-5,-1,4,-4
1523210743687491,-28,20,58,3,-2,-4,-9,-30
1523210743687491,39,-4,-19,2,3,1,-11,16
1523210743688500,-13,5,-20,1,-2,-5,-8,-13
1523210743688500,10,-1,-8,-5,-1,2,25,-3
1523210743701761,1,16,19,13,2,1,-13,3
1523210743701761,-8,-12,-25,-22,-9,-7,5,-19
1523210743702535,-6,-17,-12,11,5,3,-6,-6
1523210743702535,1,7,-10,-5,-2,-3,0,7
1523210743724592,40,-3,-6,-2,-4,-5,-8,-9
1523210743724592,-22,-11,26,3,-2,-3,-4,2
1523210743724592,20,-11,13,-3,-3,-2,5,5
1523210743724592,18,24,-61,4,5,2,-6,-10
1523210743747871,6,-5,17,14,1,1,-2,-1
1523210743747871,5,16,10,-11,-2,-1,1,-1
1523210743747871,-36,4,-60,-3,-3,-5,3,2
1523210743747871,78,-40,38,6,4,6,-10,-11
1523210743761686,8,2,-65,-13,-5,-5,7,19
1523210743761686,16,3,-55,2,0,-4,-4,-1
1523210743762690,10,10,43,-3,-3,-2,-1,2
1523210743762690,33,-1,-41,1,1,-2,-5,15
1523210743783979,-35,-10,-21,0,1,2,-2,-7
1523210743783979,4,-2,19,0,-2,-1,-4,0
1523210743791769,-41,-5,-35,1,3,3,18,-16
1523210743791769,-16,6,10,-1,0,1,-8,12
1523210743806807,83,7,8,-8,-6,-4,1,3
1523210743806807,-9,6,-68,-1,-2,-1,1,-9
1523210743807809,-26,-3,24,2,1,-1,2,8
1523210743807809,-21,8,17,13,1,-3,-13,-13
1523210743821846,39,12,-57,-33,-4,0,5,1
1523210743821846,-65,-47,39,4,1,1,7,-10
1523210743822848,7,17,-38,7,1,2,-4,-15
1523210743822848,26,5,19,-6,-6,-4,5,13
1523210743843904,-43,-6,8,15,4,4,-9,-18
1523210743843904,-7,15,60,4,-2,-2,16,3
1523210743844907,16,-1,-12,-13,-5,-4,-10,7
1523210743844907,-26,8,-35,6,1,-2,0,-27
1523210743867200,47,-10,13,-6,-3,0,-5,15
1523210743867200,64,18,21,11,4,1,2,2
1523210743867967,-22,15,50,0,-1,-1,7,0
1523210743867967,44,-11,-92,-12,0,3,-8,3
1523210743882192,-41,6,116,12,1,0,11,13
1523210743882192,-72,-23,-77,-5,-4,-4,-34,-32
1523210743882192,72,12,29,-8,-3,-6,18,27
1523210743882192,0,14,37,-10,-6,-6,1,2
1523210743904068,-42,-27,-9,9,3,1,-1,-12
1523210743904068,31,19,7,10,2,2,-2,29
1523210743905067,-75,4,-12,1,0,2,-13,-31
1523210743905067,22,-8,30,-3,-3,-2,-1,33
1523210743927361,-5,-21,-70,-7,-1,-2,-4,-16
1523210743927361,7,9,9,-3,1,0,20,11
1523210743928127,8,-10,66,8,1,0,-9,2
1523210743928127,-20,6,45,-7,-4,-1,13,-6
1523210743941165,3,19,37,-2,1,1,2,-2
1523210743941165,-19,-10,-52,-11,-8,-8,-20,-13
1523210743949186,27,1,-6,6,5,1,8,28
1523210743949186,-11,-10,38,-4,-4,-2,-1,-17
1523210743964225,-9,2,22,-1,1,2,-8,-6
1523210743964225,60,5,35,5,1,0,8,7
1523210743965235,-53,-25,-77,-2,3,2,3,0
1523210743965235,26,22,53,-4,0,0,12,-7
1523210743987287,26,2,-87,-5,-8,-8,-23,-3
1523210743987287,-35,0,115,7,0,2,-5,4
1523210743988289,22,-23,-44,-9,-5,-2,-3,-5
1523210743988289,17,8,-41,3,3,-1,-13,4
1523210744009350,-22,-15,17,7,3,1,6,12
1523210744009350,-10,5,-38,0,2,3,11,-13
1523210744010348,32,9,20,-11,-5,-2,-8,1
1523210744010348,-30,-14,-47,-1,-1,0,12,-11
1523210744024386,-32,-21,-7,-11,-6,-4,0,0
1523210744024386,24,-4,13,6,3,3,-3,1
1523210744024386,-20,-2,-60,-3,-1,-1,-8,-11
1523210744024386,-24,-4,-5,-3,-3,-3,-2,0
1523210744047446,-3,3,-6,-1,2,2,6,-5
1523210744047446,-6,0,28,3,-2,-1,-16,0
1523210744048493,5,8,-24,-1,-5,-4,10,2
1523210744048493,-34,0,-8,3,-2,-3,-8,-21
1523210744060481,-24,-28,-9,-3,1,2,13,7
1523210744060481,52,10,18,-3,-4,-5,-21,-4
1523210744069507,92,11,17,7,4,5,5,0
1523210744069507,-48,-9,25,-3,-5,-8,-10,16
1523210744084543,-27,3,-17,6,1,0,20,-16
1523210744084543,17,-15,45,-4,-3,-5,-2,9
1523210744084543,6,16,4,1,-3,-7,-13,0
1523210744084543,-2,-20,12,6,6,7,11,10
1523210744107605,-7,6,-42,0,-1,-1,-11,-6
1523210744107605,-29,-2,-15,-4,-3,3,8,3
1523210744108609,-48,2,-24,-8,-6,-6,-15,17
1523210744108609,-61,-1,41,1,-1,-1,-16,-46
1523210744120644,-53,-5,17,5,-3,-4,9,-13
1523210744120644,-9,6,-21,0,4,2,8,-1
1523210744129741,5,6,-37,-6,-3,-1,-2,-1
1523210744129741,52,-31,-54,-1,0,2,-8,24
1523210744143701,-19,6,2,4,3,1,8,-4
1523210744143701,18,11,-28,-6,-3,-2,15,9
1523210744144704,-26,-21,22,3,-4,-2,1,-22
1523210744144704,20,6,41,-11,-2,-5,-17,2
1523210744167890,9,-3,-43,3,3,4,18,19
1523210744167890,-20,-5,-57,-2,-1,-4,-18,-6
1523210744167890,4,2,1,-10,-4,-4,-4,2
1523210744167890,-53,25,1,10,1,2,15,-14
1523210744181034,94,13,55,2,-3,-3,-26,16
1523210744181034,-104,-19,-5,2,0,0,9,-31
1523210744188864,-8,-2,-13,17,4,0,-3,5
1523210744188864,7,-4,27,-25,-3,1,-1,0
1523210744203904,-14,12,11,-1,-4,-3,-6,10
1523210744203904,-31,-17,42,0,-1,-3,12,-7
1523210744204864,-7,-15,26,0,0,0,-3,-1
1523210744204864,28,3,-21,10,1,-1,-3,6
1523210744227924,-52,-4,9,-4,1,3,-22,-16
1523210744227924,-2,-1,28,0,-2,-2,5,20
1523210744227924,-66,-6,16,-12,-5,-1,5,-11
1523210744227924,61,-6,48,-5,-6,-7,1,33
1523210744240960,25,-18,8,3,-2,-1,-5,-21
1523210744240960,-52,10,-18,12,4,2,-8,-1
1523210744249019,-2,4,70,-3,-3,-4,-5,-3
1523210744249019,37,26,-42,-6,-3,1,2,9
1523210744264022,-20,-10,1,-3,-4,-3,-1,-2
1523210744264022,103,13,13,-4,-2,-1,15,22
1523210744265024,-59,-1,-56,0,2,0,-3,-4
1523210744265024,3,-1,42,6,-3,-4,-11,-9
1523210744287083,8,3,-18,2,2,2,11,8
1523210744287083,98,-1,-36,-16,-7,-6,-18,8
1523210744288085,25,-12,9,-2,-1,1,13,-16
1523210744288085,-15,-9,-35,9,2,2,-3,-10
1523210744310173,-28,7,-6,-1,-2,-4,-2,6
1523210744310173,58,17,17,-6,2,6,-3,10
1523210744310173,-62,-17,-26,6,-3,0,-4,-12
1523210744310173,-10,-17,-53,-22,-3,-3,7,-5
1523210744324187,16,-1,35,2,-2,0,3,-7
1523210744324187,-73,-9,-5,0,-3,-4,-27,-19
1523210744325183,79,26,39,11,7,4,5,-3
1523210744325183,8,5,-11,0,-4,-1,26,5
1523210744347242,-32,9,6,2,2,0,-1,2
1523210744347242,16,-9,-57,-14,-8,-9,-14,8
1523210744348245,53,-4,42,5,2,3,0,-3
1523210744348245,-39,-3,23,9,1,2,-11,-9
1523210744369303,107,21,-13,2,-2,-1,5,17
1523210744369303,-123,-12,11,5,0,3,7,-28
1523210744370306,30,2,67,-4,0,-3,-7,9
1523210744370306,-28,-1,-22,1,-1,-5,0,-12
1523210744384539,35,-1,57,-7,-1,-3,-11,7
1523210744384539,-14,6,-10,7,5,3,7,-24
1523210744385350,-7,3,-23,-9,-10,-6,-3,-4
1523210744385350,15,-6,-18,5,3,3,-1,7
1523210744407402,3,19,-40,-5,-5,-8,-27,-27
1523210744407402,109,-6,7,0,-3,1,20,3
1523210744408444,-66,3,-28,-18,-10,-10,-12,14
1523210744408444,-38,-1,-11,7,1,1,12,-7
1523210744430462,9,4,-37,-5,0,2,13,-5
1523210744430462,1,4,51,4,1,2,-8,9
1523210744430462,-27,11,-98,0,4,4,4,-16
1523210744430462,25,-22,2,-1,-4,-6,-5,-3
1523210744444500,5,1,42,0,-3,-3,1,7
1523210744444500,-9,5,-44,-7,0,-2,10,2
1523210744444500,6,0,46,17,4,7,0,5
1523210744444500,27,15,20,-8,-3,-3,-13,25
1523210744467796,-49,-16,30,-2,-1,-1,4,-19
1523210744467796,60,16,-52,-7,-5,-5,-11,6
1523210744468571,-3,-22,57,0,0,-3,-1,-3
1523210744468571,-72,-12,-18,8,4,7,19,-6
1523210744489620,-2,-6,12,-1,1,-1,-2,14
1523210744489620,0,-6,61,2,-5,-3,-12,-1
1523210744490623,-28,-14,-47,-3,0,1,6,-11
1523210744490623,14,-8,-36,-9,-7,-4,-12,-10
1523210744503704,-6,-9,-10,4,2,3,9,0
1523210744503704,-29,-13,-30,-1,-1,-3,-28,-6
1523210744504660,-36,-18,-2,2,2,3,32,0
1523210744504660,98,8,10,-10,-7,-5,-15,29
1523210744527889,-2,7,-10,-5,-2,-2,5,-11
1523210744527889,28,5,-20,4,0,0,18,20
1523210744527889,105,9,-11,-4,-3,-3,-20,5
1523210744527889,-37,-12,24,-7,-6,-6,6,-6
1523210744549818,-37,0,17,2,0,1,0,-3
1523210744549818,59,3,47,-3,-4,-2,-16,10
1523210744550783,-53,-12,-31,-4,-1,-2,22,-7
1523210744550783,-21,9,35,7,4,-1,-6,-16
1523210744563819,-3,-28,-69,-4,1,2,-6,-6
1523210744563819,-60,-6,15,3,1,2,10,-3
1523210744564819,26,-2,-33,-3,-5,-4,-18,10
1523210744564819,24,8,14,2,0,-1,-5,2
1523210744586883,22,13,-8,-1,-3,-2,2,-3
1523210744586883,-11,-2,-18,-11,-4,0,6,-5
1523210744587881,15,22,70,2,2,2,-6,8
1523210744587881,-66,-22,-76,3,4,1,0,5
1523210744609979,17,0,41,-10,-2,-5,-8,0
1523210744609979,-4,3,-9,2,-1,-4,10,17
1523210744610945,55,11,58,-4,0,0,-7,-8
1523210744610945,-51,2,6,0,0,0,5,1
1523210744623977,-59,-15,-38,1,-1,1,-5,-29
1523210744623977,61,1,37,-6,-2,-2,-4,-5
1523210744624979,3,8,37,1,-2,1,11,-4
1523210744624979,38,2,-54,-6,-2,-2,-2,14
1523210744647038,11,-19,11,2,-2,-3,-5,5
1523210744647038,-57,1,16,12,5,4,2,-11
1523210744648040,4,1,-26,-2,-3,-4,-12,-10
1523210744648040,19,1,81,-5,-5,-1,-8,-3
1523210744670102,-9,6,-20,-3,-3,-2,10,3
1523210744670102,34,18,14,-3,-2,-1,1,0
1523210744670102,-21,-8,-69,1,6,4,-13,17
1523210744670102,-10,-6,-19,-6,-3,-5,10,-28
1523210744684287,13,22,85,-2,-2,-1,-13,9
1523210744684287,-21,-2,13,1,0,0,14,1
1523210744685141,24,-3,8,-5,0,-2,-12,3
1523210744685141,4,16,-4,1,5,4,2,-7
1523210744707199,12,1,-18,2,-2,2,14,3
1523210744707199,21,-7,-1,-3,-5,-7,-10,-7
1523210744708203,-50,-18,-22,-1,-3,-3,-5,-1
1523210744708203,14,8,-28,4,3,1,9,-4
1523210744730386,-9,-3,-32,4,4,0,-6,0
1523210744730386,4,3,23,-10,-7,-4,-1,0
1523210744730386,70,3,-37,-5,-7,-6,-2,8
1523210744730386,12,-13,-69,2,3,2,-8,25
1523210744744296,-84,-53,-58,-16,-8,-5,-1,-28
1523210744744296,1,0,-22,4,2,-1,0,-18
1523210744745299,0,1,27,4,0,2,-4,-1
1523210744745299,27,-5,-9,-6,-6,-5,-11,-12
1523210744767557,37,12,35,-5,-1,-1,10,10
1523210744767557,-72,-10,0,-2,0,-2,-15,-3
1523210744768366,-7,-15,9,-1,-1,-2,7,-5
1523210744768366,-4,15,54,5,6,4,-30,-19
1523210744789418,24,-9,-9,-1,-4,-2,20,18
1523210744789418,43,-4,-45,-2,-2,0,11,2
1523210744790419,-52,8,-63,0,2,2,-2,-17
1523210744790419,35,-15,29,8,0,2,4,0
1523210744804460,-18,2,37,-8,-3,-2,-22,11
1523210744804460,26,-8,-56,-6,-1,-2,13,24
1523210744804460,-39,-5,-9,3,0,-1,1,-10
1523210744804460,28,-3,30,-3,-4,0,15,18
1523210744827755,14,25,-4,3,1,-1,-13,-28
1523210744827755,-13,-3,-40,5,1,4,11,8
1523210744828521,-43,9,119,-7,-6,-8,-10,-8
1523210744828521,-35,-13,-34,-3,-1,-3,-4,-10
1523210744849616,9,8,-1,7,2,-1,-4,13
1523210744849616,-15,1,72,-2,-1,-2,9,-5
1523210744850579,1,-6,-36,2,2,3,3,0
1523210744850579,-2,3,102,-7,-4,0,3,3
1523210744863614,56,-1,3,0,-3,-2,-3,-6
1523210744863614,-44,-11,-19,2,-2,-3,-13,-4
1523210744864616,0,3,73,3,-1,1,-2,-10
1523210744864616,75,16,-75,-5,-4,-5,9,8
1523210744887694,-60,-29,37,2,2,-1,-6,-30
1523210744887694,4,-1,-13,-6,-2,-3,-8,7
1523210744887694,-23,-8,14,1,-1,-2,-1,7
1523210744887694,-12,-3,-20,1,-1,0,-18,-1
1523210744909736,-10,13,14,5,1,4,14,-25
1523210744909736,12,-9,-16,1,1,0,2,1
1523210744910739,-18,3,-27,-4,-2,-3,-8,-2
1523210744910739,45,8,34,0,-1,-3,-4,0
1523210744923774,-51,1,-88,-9,-2,-1,13,23
1523210744923774,31,3,-11,4,2,1,-7,-6
1523210744932030,-29,-8,-44,-5,-1,-4,7,-12
1523210744932030,-51,-6,-27,0,-1,-2,-6,-7
1523210744947910,15,11,-25,6,0,1,-5,4
1523210744947910,23,13,-9,-12,-6,-5,-12,8
1523210744947910,90,13,6,1,1,-1,23,44
1523210744947910,-33,4,9,11,4,2,10,-2
1523210744969942,-32,-26,-41,-12,-6,-2,-11,-5
1523210744969942,22,-4,59,9,5,3,-2,-16
1523210744970900,28,21,2,-4,-4,-2,0,4
1523210744970900,-33,-10,14,-1,1,-4,-21,-4
1523210744984042,39,16,-4,-1,2,3,23,19
1523210744984042,-38,-2,57,4,1,1,-7,4
1523210744991994,35,-11,-21,-5,-1,1,3,-16
1523210744991994,-19,-1,1,1,1,-1,-4,-11
1523210745006995,92,13,13,0,0,2,-8,10
1523210745006995,-55,-10,-50,-12,-8,-8,-12,-5
1523210745007997,39,1,-23,12,5,4,5,6
1523210745007997,15,15,-39,-17,-11,-6,10,5
1523210745030293,-6,-26,32,2,2,-1,-6,6
1523210745030293,69,12,47,1,1,2,-5,1
1523210745030293,-4,1,-88,-12,-7,-7,-6,-12
1523210745030293,8,2,64,0,-1,1,19,3
1523210745043092,-29,14,31,1,-1,-4,-25,-7
1523210745043092,-58,-16,-41,-1,0,1,10,-6
1523210745052121,-4,-10,47,1,0,2,4,-1
1523210745052121,-53,-6,-53,-7,-4,-2,-9,-38
1523210745067304,-11,-21,53,8,2,1,2,7
1523210745067304,-12,3,-8,-2,-2,0,2,13
1523210745068163,41,-1,-41,8,-1,-2,-14,-3
1523210745068163,15,7,42,-10,0,1,8,-7
1523210745090216,-50,-19,-30,-10,-5,-1,9,15
1523210745090216,-27,-16,-25,9,3,-2,-11,-47
1523210745090216,-48,-4,15,-9,-6,-7,2,-4
1523210745090216,57,15,-18,7,1,-1,-4,27
1523210745103303,-9,-9,-34,-7,-2,-3,-10,-7
1523210745103303,11,11,-7,4,2,1,1,-8
1523210745111277,-71,-24,26,-8,-1,4,9,-1
1523210745111277,-2,5,22,3,0,-1,-13,-13
1523210745127549,21,20,-52,-7,-2,-2,7,-10
1523210745127549,-3,-6,7,-3,-4,-3,-3,6
1523210745128318,6,4,69,16,7,5,11,-3
1523210745128318,32,-30,-3,-7,-4,-1,5,16
1523210745150376,34,-6,-30,3,-2,0,-8,6
1523210745150376,-10,-8,-7,2,-1,-2,-3,-7
1523210745150376,-46,-19,-25,-10,-2,0,-3,10
1523210745150376,78,18,4,5,1,2,-17,-12
1523210745163453,-23,-11,21,5,-2,-4,12,-3
1523210745163453,-9,-3,-11,-2,3,3,4,-6
1523210745171432,47,22,-22,-6,-4,-2,-2,23
1523210745171432,-40,-9,-13,-2,-4,-6,1,-8
1523210745187476,-19,15,45,9,3,0,-6,-2
1523210745187476,-28,-12,-26,-18,-4,0,12,5
1523210745188476,71,0,41,4,-1,-2,-11,-18
1523210745188476,4,9,-2,-6,-1,0,14,3
1523210745209534,44,-7,-13,-5,-3,-2,-5,2
1523210745209534,18,18,40,5,0,-2,2,4
1523210745210535,-40,-29,-67,8,-1,-2,-17,-10
1523210745210535,47,13,5,-9,0,1,-10,19
1523210745232829,-37,5,5,3,2,2,16,-11
1523210745232829,49,4,-28,-4,-5,-5,-10,16
1523210745232829,-35,-15,68,0,0,-2,-1,-24
1523210745232829,-10,-4,-74,5,4,1,4,10
1523210745247868,-42,6,39,-5,-2,-1,-8,6
1523210745247868,-11,4,21,4,0,4,-2,20
1523210745247868,40,8,39,1,-5,-6,0,-13
1523210745247868,-54,-9,34,-2,-3,-3,3,-10
1523210745269695,53,8,-18,-1,1,2,-2,5
1523210745269695,-73,-12,11,1,0,-1,0,-7
1523210745271698,-19,15,-8,-14,-6,-5,-5,12
1523210745271698,1,-5,50,2,-2,0,13,20
1523210745291792,-30,-20,-11,1,-1,-4,8,-41
1523210745291792,19,20,44,-1,-3,-3,-7,1
1523210745293757,4,3,-47,-1,0,-1,-2,-1
1523210745293757,-2,-4,-7,9,5,5,-2,4
1523210745305790,-29,-1,-16,-11,-7,-1,-12,13
1523210745305790,70,10,-13,-1,0,-4,-2,-7
1523210745314812,-43,-14,42,-12,-2,-3,5,4
1523210745314812,2,-11,29,7,3,3,-9,-11
1523210745330087,25,9,7,7,5,3,1,9
1523210745330087,-11,-31,-22,-2,2,5,4,-8
1523210745331857,16,15,54,6,-2,-3,-3,-3
1523210745331857,-3,12,-72,-17,1,-2,-4,6
1523210745351915,-19,3,96,2,-2,1,0,0
1523210745351915,0,-5,-3,0,-3,-2,10,30
1523210745353917,-13,-31,-18,-5,2,1,4,-26
1523210745353917,-48,-5,4,3,-1,-2,-1,-14
1523210745366190,10,13,11,0,0,-1,-11,1
1523210745366190,-36,7,13,-7,-1,1,12,-6
1523210745374972,-10,-1,-28,10,2,3,-14,29
1523210745374972,1,7,-3,-3,-5,-5,2,-29
1523210745390012,0,13,-21,-6,-4,-5,0,-3
1523210745390012,-24,-23,-14,1,1,2,-5,-20
1523210745391018,28,20,20,8,3,3,4,5
1523210745391018,26,-15,-6,-13,-7,-4,-11,0
1523210745412071,22,-36,43,-4,0,-3,-5,-1
1523210745412071,-42,-17,-4,-2,-4,-7,-4,-31
1523210745414077,36,9,-8,-2,1,0,4,17
1523210745414077,-7,-13,36,16,6,9,2,28
1523210745426108,-10,12,-44,-6,-6,-7,-1,-19
1523210745426108,-41,2,32,1,-1,-4,-14,-2
1523210745435135,12,-6,-18,-8,-3,-3,-6,3
1523210745435135,-24,0,29,3,1,0,11,0
1523210745450173,68,1,-43,-2,1,5,15,13
1523210745450173,17,-10,-11,-5,-2,0,-13,15
1523210745451183,46,27,-3,0,-1,-1,-4,-9
1523210745451183,-32,-1,72,9,1,-1,8,-5
1523210745472231,21,24,17,-4,-2,0,-17,-3
1523210745472231,-27,-46,52,-3,-5,-4,18,-2
1523210745474236,-69,-26,-21,5,-3,0,-2,-4
1523210745474236,-17,-8,-37,-8,-1,-2,-10,-3
1523210745486272,-33,-3,15,4,2,1,3,9
1523210745486272,8,52,-11,5,2,0,2,-16
1523210745493288,-16,13,-106,-17,-4,3,3,8
1523210745493288,22,4,15,11,4,2,6,7
1523210745510333,-60,-11,-25,-8,-7,-6,-7,-23
1523210745510333,-4,27,-28,1,-4,-5,-6,0
1523210745512339,45,3,77,8,3,1,-8,3
1523210745512339,0,-37,-89,-7,2,3,4,7
1523210745532626,-58,-2,-61,4,6,6,-4,-3
1523210745532626,97,19,48,-4,-4,1,26,11
1523210745534398,4,0,-5,11,-2,-5,-12,0
1523210745534398,-19,5,5,-30,-3,-2,-8,-12
1523210745546664,48,-11,45,11,2,0,11,20
1523210745546664,-30,-17,-19,-5,-1,-2,-11,-10
1523210745553492,-10,-6,5,5,4,2,4,-1
1523210745553492,27,23,-35,6,-1,1,-3,-2
1523210745569496,24,-10,14,-7,-5,-7,-8,2
1523210745569496,39,16,11,12,3,4,-1,7
1523210745571494,19,0,-54,-21,-6,-1,7,12
1523210745571494,-51,-21,-6,9,-6,-6,-8,-16
1523210745592550,24,4,3,2,1,1,-4,7
1523210745592550,53,-14,-74,-4,0,2,-3,19
1523210745593553,-6,-6,29,6,4,2,18,-14
1523210745593553,-5,-5,10,-4,-6,-7,-9,-6
1523210745606588,8,7,-8,11,-1,1,-3,-5
1523210745606588,-38,7,20,-21,-1,-2,20,25
1523210745613607,25,-2,-60,-6,-2,-1,-5,-18
1523210745613607,3,10,23,1,-3,-5,-13,-16
1523210745629884,7,13,-52,-11,-7,-6,-2,0
1523210745629884,26,12,-5,7,0,-1,10,4
1523210745631655,-39,-11,-33,0,2,1,-6,9
1523210745631655,-31,1,32,-5,-4,-3,6,-4
1523210745652723,-13,-18,10,-1,1,3,-3,-2
1523210745652723,18,-4,-34,5,-2,-2,-14,-4
1523210745653714,-4,12,47,4,2,0,-10,4
1523210745653714,15,4,-2,-3,-3,-1,17,-3
1523210745666748,-38,-12,19,-4,-2,-3,-1,-29
1523210745666748,-29,-19,-8,2,3,2,-11,-12
1523210745673769,-50,-10,17,-10,-5,-8,-9,2
1523210745673769,1,15,2,26,-2,0,7,4
1523210745689808,37,5,-4,-19,-3,-4,0,5
1523210745689808,-32,-28,9,-6,-6,-4,0,-22
1523210745691815,13,5,-58,7,4,9,7,3
1523210745691815,-1,-8,52,-6,-4,-5,-21,-2
1523210745711868,56,-1,-41,-1,-1,0,12,9
1523210745711868,39,11,-20,4,4,0,-14,2
1523210745713873,-76,-15,44,-3,-2,-1,13,-27
1523210745713873,15,-5,-8,-10,-3,-1,1,14
1523210745726144,19,25,-65,4,-1,0,-5,5
1523210745726144,-2,3,-12,-7,-4,-4,-11,-31
1523210745734932,30,8,46,1,-1,-3,3,5
1523210745734932,-15,-5,36,-2,2,2,14,0
1523210745749970,37,2,30,11,2,0,1,7
1523210745749970,-27,4,-24,-3,-1,0,-12,-2
1523210745750985,7,-10,-14,-4,-4,-3,15,5
1523210745750985,-37,6,-31,1,3,0,-11,0
1523210745772029,36,6,20,3,-1,1,-4,12
1523210745772029,-16,-10,-30,-9,-3,-4,4,7
1523210745774033,29,-6,71,6,0,2,-7,-7
1523210745774033,49,6,-19,0,3,3,6,0
1523210745786076,-63,-13,2,-12,-7,-6,-14,-14
1523210745786076,-19,18,29,3,2,3,10,-6
1523210745795089,1,-9,39,-5,-3,-6,-9,-7
1523210745795089,52,14,-30,4,-1,-2,-2,8
1523210745810128,-24,-5,22,1,-1,1,2,0
1523210745810128,21,8,-19,-1,-2,1,5,15
1523210745811131,-10,18,-15,-9,-5,-5,4,-24
1523210745811131,-13,-26,-9,-8,-3,-3,-3,10
1523210745832423,-15,-13,16,6,2,-4,-11,-7
1523210745832423,-2,3,-8,1,1,0,7,13
1523210745834196,30,6,-23,3,-1,0,12,6
1523210745834196,-32,-4,18,-2,-2,0,-10,-18
1523210745846461,-8,27,40,-1,-4,-3,8,-3
1523210745846461,-9,-10,35,9,8,6,-9,-11
1523210745855249,45,2,32,-6,-8,-6,-5,12
1523210745855249,18,-6,-17,-6,-3,-3,8,17
1523210745869290,2,10,-20,2,-1,-2,-3,-13
1523210745869290,67,7,8,1,-1,0,-1,6
1523210745871290,-62,3,-20,-2,9,6,0,-13
1523210745871290,-8,-1,15,1,2,1,2,-7
1523210745892348,-17,12,1,0,0,-3,9,1
1523210745892348,-18,-4,-31,0,-7,-6,-10,-6
1523210745894352,9,-21,8,1,-2,0,-7,6
1523210745894352,-1,3,-53,-6,-6,-2,-8,-8
1523210745906385,-51,-33,-7,10,8,5,0,8
1523210745906385,-7,14,24,0,-1,-1,12,5
1523210745914645,19,-13,-44,-8,-2,-4,-12,0
1523210745914645,36,-5,-56,-5,-4,-2,-5,-8
1523210745930448,-14,-13,-42,-10,-5,1,1,-5
1523210745930448,-8,-7,17,3,-1,-3,-1,16
1523210745931451,-18,12,58,3,-1,-4,-10,-37
1523210745931451,84,10,15,0,0,-1,16,22
1523210745952510,-83,-11,11,-4,0,-2,-11,-23
1523210745952510,-9,-11,-9,-8,-5,0,30,10
1523210745953510,49,11,-60,10,0,-5,-8,20
1523210745953510,-31,-17,93,1,-4,-4,-20,-12
1523210745966544,3,12,32,5,-1,0,11,5
1523210745966544,1,-12,5,-9,-3,0,7,-4
1523210745974566,-33,-7,-6,-2,2,5,-3,9
1523210745974566,-19,11,-32,1,1,-1,-13,-10
1523210745989608,62,-4,27,13,0,-3,-3,20
1523210745989608,15,-19,-58,-30,-4,-2,-13,-9
1523210745991612,-26,-5,71,-4,-1,2,21,19
1523210745991612,-5,4,-46,8,0,-4,-13,-18
1523210746012668,6,5,-5,-3,0,2,3,9
1523210746012668,-7,-3,29,9,2,-1,-2,-17
1523210746013669,45,-2,-14,-7,-2,-3,0,9
1523210746013669,-49,12,32,1,-2,1,5,-8
1523210746025936,-2,-21,-35,-10,-6,-5,2,11
1523210746025936,-17,-1,69,9,-3,-3,-7,1
1523210746034728,54,-11,-52,0,0,2,-1,7
1523210746034728,-42,7,20,5,2,-3,-1,7
1523210746049767,41,-10,-17,-6,-4,-5,2,-3
1523210746049767,-10,3,0,-2,2,0,0,-10
1523210746051777,0,-7,81,-1,-4,-3,-21,0
1523210746051777,-33,7,-36,0,0,0,1,-14
1523210746071824,-18,-5,-56,-11,-1,1,25,-13
1523210746071824,11,-6,-95,4,2,-3,-15,2
1523210746073829,-58,8,38,-3,-5,-4,-7,2
1523210746073829,9,-32,-32,-3,1,0,-3,-15
1523210746085906,-16,10,-3,-3,1,1,-12,3
1523210746085906,94,33,-6,9,0,0,6,-7
1523210746094885,-34,-1,-3,-6,-2,1,2,3
1523210746094885,-25,5,-8,1,1,-1,-2,0
1523210746109926,47,17,-12,0,-1,-1,0,2
1523210746109926,-13,-16,16,3,0,1,-21,-9
1523210746110928,-2,16,-30,4,3,0,10,-2
1523210746110928,-19,12,43,-3,1,2,8,7
1523210746132986,5,11,8,-10,-7,-4,4,0
1523210746132986,86,17,-24,-3,1,1,-8,12
1523210746133993,-62,0,-12,5,0,-3,-6,-18
1523210746133993,20,-6,-50,-4,-3,-6,-19,-2
1523210746146257,-10,-2,25,6,3,1,9,9
1523210746146257,-43,6,73,-3,-3,-2,2,4
1523210746155045,-45,-13,-90,-7,-1,1,-4,-18
1523210746155045,39,23,0,-3,-1,3,3,-3
1523210746170086,2,-1,20,-3,-2,-4,-15,3
1523210746170086,-59,-5,-33,2,-2,-4,-5,-28
1523210746171087,18,-4,-5,8,3,1,9,1
1523210746171087,-46,-9,47,0,2,5,9,11
1523210746192143,36,-26,68,-5,-4,-2,-5,-7
1523210746192143,59,2,-23,2,2,1,-7,10
1523210746194150,-62,-6,-15,2,0,-4,-23,-22
1523210746194150,12,-24,3,3,2,6,38,8
1523210746215360,-46,8,8,0,0,1,2,-13
1523210746215360,21,-4,73,3,-2,-5,-10,6
1523210746216208,50,20,-78,-13,-4,-2,6,8
1523210746216208,5,-6,-13,1,2,2,-12,3
1523210746230363,-8,14,-11,-3,0,1,-2,-3
1523210746230363,-87,-1,57,4,-1,-2,3,-30
1523210746231248,47,12,-80,-3,-3,-1,5,6
1523210746231248,-97,-17,42,2,-2,-8,-24,2
1523210746252307,10,2,-13,-2,-1,0,12,-3
1523210746252307,22,-6,-23,-13,-6,-2,0,12
1523210746254309,-36,-9,24,-2,-3,-3,1,-16
1523210746254309,82,-6,2,0,0,1,-3,13
1523210746274401,-50,-24,3,3,0,-1,-9,-6
1523210746274401,-9,-5,-1,-5,-4,-4,-1,9
1523210746276369,6,3,36,7,3,2,-11,-3
1523210746276369,17,5,18,-2,-5,-5,23,7
1523210746289442,31,0,-63,-5,-2,-4,-17,-2
1523210746289442,5,6,37,7,4,6,15,-16
1523210746291407,76,8,48,2,0,1,-1,11
1523210746291407,3,-21,43,-9,-6,-5,-29,-5
1523210746312470,-23,4,33,1,-4,-4,12,-18
1523210746312470,-33,-5,-27,4,6,2,2,-5
1523210746313466,35,7,26,-4,-4,-5,3,14
1523210746313466,19,-19,-36,-8,-3,-1,-1,7
1523210746334528,-18,-5,37,8,3,2,-4,-7
1523210746334528,34,-17,-29,2,1,1,-3,15
1523210746336528,14,-1,-69,-12,-5,-7,-2,11
1523210746336528,3,16,30,9,-2,-3,7,-6
1523210746349561,6,-29,-5,-7,-1,-3,-12,5
1523210746349561,25,11,-25,4,2,1,6,-1
1523210746355578,18,-9,52,5,1,5,6,7
1523210746355578,-54,12,-55,-4,-1,5,9,-10
1523210746372623,61,23,16,3,-1,-1,-16,16
1523210746372623,7,-12,-41,0,1,2,16,1
1523210746373626,-23,-6,-42,-3,-4,-4,7,2
1523210746373626,6,15,10,0,-1,-4,-7,-10
1523210746394720,21,21,53,6,5,4,-15,10
1523210746394720,-4,-20,-16,-10,-4,-1,4,-14
1523210746396687,19,9,22,-3,-3,-1,-12,-6
1523210746396687,-93,-7,-23,-1,0,0,14,-19
1523210746408720,31,16,10,1,1,-2,-4,17
1523210746408720,-65,-34,29,7,1,0,-8,5
1523210746415976,36,-34,42,-5,-4,-4,2,-9
1523210746415976,12,28,66,-6,-4,-4,-1,-6
1523210746432848,-23,-28,-99,-12,-6,1,6,-11
1523210746432848,-10,20,55,-3,-5,-3,-7,-1
1523210746433791,-75,-14,24,6,3,3,4,10
1523210746433791,16,12,9,8,7,2,-3,-12
1523210746454841,-58,-17,-16,-6,-8,-8,1,-22
1523210746454841,-25,14,4,2,3,3,11,8
1523210746456848,-28,-3,8,0,-1,-2,-6,-7
1523210746456848,52,4,-53,-5,-2,-4,-11,1
1523210746468887,-33,-1,51,-3,-2,4,10,-9
1523210746468887,53,17,-35,-3,-4,-6,-12,30
1523210746475939,9,5,86,4,-1,-3,4,-11
1523210746475939,-19,-20,-90,-4,-1,-1,-2,7
1523210746491980,27,0,-21,6,3,2,1,-1
1523210746491980,-36,-4,5,-2,-1,-3,-6,-10
1523210746493948,-2,-34,-48,-6,-5,0,-1,0
1523210746493948,49,11,13,-6,-3,-3,-3,1
1523210746515001,-71,18,9,2,1,0,-6,-7
1523210746515001,26,-2,-87,-10,-4,-2,4,-4
1523210746516004,-30,-7,43,5,3,1,-8,3
1523210746516004,-17,-1,20,0,-3,-2,1,-13
1523210746529273,45,6,47,-1,0,1,-5,-3
1523210746529273,-57,-2,40,0,-3,1,20,28
1523210746536061,-2,10,-69,-2,0,-3,0,-7
1523210746536061,19,-6,0,5,3,4,-10,4
1523210746552103,17,-6,-18,3,3,0,4,19
1523210746552103,44,29,14,-1,1,2,-3,-20
1523210746554106,-17,9,-49,-4,-2,2,-1,17
1523210746554106,55,-12,101,-5,-5,-7,-6,-22
1523210746575180,26,13,31,11,6,1,-9,-7
1523210746575180,7,1,-51,-13,-9,-7,0,8
1523210746576165,-25,-8,-25,-4,-1,1,8,-15
1523210746576165,-8,6,43,1,-3,0,-3,14
1523210746589198,-26,1,-51,-4,0,4,14,-12
1523210746589198,29,-13,36,3,0,-3,-16,-2
1523210746596455,37,-9,12,-3,-1,-3,10,6
1523210746596455,-42,-1,-34,2,0,2,7,33
1523210746619323,50,-7,62,-7,-5,-5,-3,-39
1523210746619323,-74,-15,-96,-2,-1,-3,-10,-26
1523210746621284,59,11,18,2,1,1,-20,-7
1523210746621284,31,-20,41,4,0,2,3,5
1523210746635328,-17,-3,-71,-8,-4,-3,21,25
1523210746635328,17,8,88,1,0,0,-10,-4
1523210746636334,11,18,37,1,1,-1,-4,-2
1523210746636334,-73,-22,-23,-6,-2,-3,-5,-29
1523210746649360,9,-8,26,-3,-3,-4,-5,30
1523210746649360,-24,-8,15,5,2,1,1,-6
1523210746656379,-15,3,-64,0,0,2,3,5
1523210746656379,17,13,23,0,1,3,10,18
1523210746672419,5,2,-4,5,1,-1,-27,-15
1523210746672419,-50,0,10,-7,-5,-4,27,4
1523210746673423,28,0,5,1,1,-1,-4,0
1523210746673423,-2,5,-29,-1,0,-2,-7,-3
1523210746694479,-47,-12,-57,-4,0,0,-1,3
1523210746694479,70,18,-32,-3,-1,1,-7,3
1523210746696484,-6,14,26,3,-1,0,7,-6
1523210746696484,-5,-3,-3,4,1,3,11,-1
1523210746708516,6,-1,-6,-4,-3,-4,-6,5
1523210746708516,65,13,13,3,1,2,-4,9
1523210746717545,-40,-23,18,-1,-1,-3,-4,-10
1523210746717545,18,8,-60,-4,-3,-4,9,11
1523210746732602,-9,-17,-21,-4,-3,-3,-2,-7
1523210746732602,14,6,-11,1,3,6,-6,-4
1523210746733587,26,9,28,-1,-4,-7,8,-2
1523210746733587,51,-27,-32,6,3,3,12,24
1523210746754639,-59,5,47,-9,-7,-7,-7,-20
1523210746754639,-25,-5,63,5,-1,-7,-22,-13
1523210746756645,-28,-1,-18,-3,-2,0,-6,-2
1523210746756645,-14,1,-94,-2,4,1,11,3
1523210746768684,-30,-12,71,-5,-6,-4,17,19
1523210746768684,28,-5,-16,-6,-3,-4,-15,10
1523210746777700,-31,-10,-16,-5,-3,-4,-2,-14
1523210746777700,8,21,33,5,2,0,-11,-17
1523210746791739,12,-4,-40,5,1,-1,-7,1
1523210746791739,-3,3,-21,-3,-1,-1,6,1
1523210746793742,-57,-59,-13,0,2,2,0,-13
1523210746793742,-9,-2,8,-1,-3,-3,-3,4
1523210746815034,19,15,27,-1,-1,-2,1,-6
1523210746815034,-3,-10,-32,-5,0,2,-22,-7
1523210746816804,45,30,5,-4,0,6,46,14
1523210746816804,-17,-7,25,-11,-10,-11,-23,-48
1523210746829031,-1,-20,27,1,0,-3,-19,-5
1523210746829031,-66,-11,49,5,1,-1,6,-13
1523210746837861,58,10,-17,3,2,4,5,20
1523210746837861,-37,1,10,-7,-4,-1,-8,8
1523210746851899,44,30,13,-1,-1,-1,5,-23
1523210746851899,25,-5,14,-3,-3,-4,4,-2
1523210746853901,-63,4,12,2,0,-2,-11,-8
1523210746853901,0,-6,-1,0,4,4,-1,-2
1523210746874959,22,10,-32,3,2,4,19,20
1523210746874959,36,13,9,-4,-3,-2,-4,5
1523210746876196,-89,7,23,-2,-1,-4,-8,-11
1523210746876196,70,-6,13,-3,-3,-2,-9,12
1523210746887993,23,5,6,6,0,4,10,12
1523210746887993,-36,-1,-37,-11,-7,-7,-1,-17
1523210746897237,32,-6,-53,0,-2,-1,-8,2
1523210746897237,-14,-3,-30,-4,-4,-5,-8,-8
1523210746912057,59,-4,-17,4,3,3,0,-1
1523210746912057,-37,-9,60,-8,-4,-2,4,0
1523210746914060,32,3,40,1,1,0,-14,-5
1523210746914060,-43,-3,-49,-1,-1,-5,20,0
1523210746935123,32,-12,-5,0,0,2,9,10
1523210746935123,-4,-4,2,3,1,-1,-27,0
1523210746936120,-2,-13,36,-4,-3,-2,23,8
1523210746936120,-33,2,12,-5,-3,-5,-15,-34
1523210746948387,-8,-7,-22,4,0,-1,2,20
1523210746948387,-13,-12,-46,-5,1,-1,10,0
1523210746957176,75,23,-1,12,4,4,-8,2
1523210746957176,21,1,-33,-13,-6,-2,6,6
1523210746972217,-25,1,-55,-5,1,-2,1,-9
1523210746972217,-5,13,45,6,0,-1,-8,3
1523210746974261,4,-5,0,8,7,8,8,5
1523210746974261,-10,-8,42,-5,-5,-1,1,10
1523210746994275,31,9,9,-7,-3,-5,-18,-11
1523210746994275,-69,-8,-36,8,2,1,18,14
1523210746996280,38,-18,47,-10,-8,-7,-11,12
1523210746996280,11,19,7,4,2,3,6,-12
1523210747008313,-3,-19,12,0,-1,0,-17,2
1523210747008313,37,6,1,2,-2,-2,19,6
1523210747017339,-14,-1,-29,-1,-2,-4,-7,-1
1523210747017339,64,14,3,7,2,3,-21,16
1523210747032376,50,-19,-33,-8,-4,-2,3,-16
1523210747032376,-3,-13,-24,2,0,2,12,2
1523210747034385,-5,3,13,-7,-8,-6,-13,-9
1523210747034385,59,-23,8,1,0,1,-5,9
1523210747054435,-105,11,21,3,0,0,11,13
1523210747054435,72,-15,-42,-6,-2,-2,-15,-12
1523210747056440,-77,5,-9,-4,-4,-6,1,-26
1523210747056440,36,10,3,1,-1,0,5,23
1523210747068495,-87,5,58,4,0,1,-2,-16
1523210747068495,23,-14,-46,-5,0,-2,11,10
1523210747077496,-12,-4,-3,-6,-5,-4,-12,2
1523210747077496,-24,10,1,4,2,1,1,-10
1523210747092536,-21,-6,0,0,0,0,-5,-6
1523210747092536,10,20,38,0,-5,-1,1,4
1523210747093540,4,-1,-98,-8,1,-1,3,-2
1523210747093540,-62,-10,50,-3,-3,-2,-5,0
1523210747114830,26,3,25,-1,-1,-3,-5,-3
1523210747114830,-38,-21,38,4,4,4,0,-6
1523210747120610,44,3,0,-2,-3,-2,-2,1
1523210747120610,-13,1,-26,0,-1,1,8,-3
1523210747137657,-30,-10,-43,-1,-2,-4,-12,-4
1523210747137657,-44,4,-8,0,1,-1,-4,-14
1523210747138659,-18,0,-2,0,-1,-1,1,0
1523210747138659,53,-4,37,0,0,4,-3,15
1523210747152696,-41,-22,-12,6,4,-1,10,-14
1523210747152696,15,21,26,-8,-6,-5,-8,-4
1523210747153698,53,-26,0,6,4,2,-4,4
1523210747153698,-115,-13,3,-5,-4,-6,-5,-21
1523210747182776,66,12,31,3,3,1,2,6
1523210747182776,-5,-28,-10,3,3,2,-2,-12
1523210747184787,-22,23,5,-8,-7,-6,1,-8
1523210747184787,-47,-20,-27,1,0,4,0,-9
1523210747197855,-3,2,7,-4,-2,-1,-13,0
1523210747197855,71,16,-20,-2,0,0,17,7
1523210747198818,-13,6,-50,-2,3,3,-8,-6
1523210747198818,24,7,9,6,1,-2,4,6
1523210747212856,-1,-16,-4,-7,-5,-2,-3,-5
1523210747212856,-34,0,-4,-1,-2,-3,-14,-1
1523210747213859,-43,-7,22,-2,-2,-2,-4,-2
1523210747213859,28,21,22,2,1,-1,5,10
1523210747234920,14,11,-11,3,2,1,5,-5
1523210747234920,13,6,5,2,-1,1,-9,2
1523210747235920,-57,-30,51,1,-2,1,5,1
1523210747235920,50,15,-26,0,-1,-1,8,-20
1523210747256975,-10,12,25,-5,-5,-5,-4,7
1523210747256975,-26,7,-22,1,-1,-3,-1,-21
1523210747258979,10,3,13,7,3,0,-2,-1
1523210747258979,27,-12,-58,-8,-2,0,2,-3
1523210747272012,16,2,-38,1,1,2,2,-9
1523210747272012,-9,-17,14,-6,-7,-8,-6,0
1523210747279032,-28,9,-26,1,0,-1,3,6
1523210747279032,20,1,-22,-2,1,-1,-7,-2
1523210747295074,-9,-2,91,-1,-3,-2,-3,3
1523210747295074,1,-5,-10,-6,-3,3,13,1
1523210747296134,12,-3,6,4,2,0,-9,1
1523210747296134,-14,6,18,-12,-9,-7,-5,1
1523210747317135,29,8,6,2,1,0,-13,10
1523210747317135,4,-5,32,8,2,2,17,17
1523210747319144,8,7,8,-13,-8,-2,9,6
1523210747319144,-19,7,55,10,2,1,7,-6
1523210747332173,82,-9,-44,1,3,3,2,18
1523210747332173,-24,-1,3,-5,-7,-5,-10,-40
1523210747338190,52,14,7,10,9,4,-11,11
1523210747338190,-16,2,-27,-10,-3,0,-3,-2
1523210747354232,33,11,20,2,-2,-1,19,19
1523210747354232,-94,-50,-29,-4,-1,-3,-16,-7
1523210747356237,37,15,100,4,-4,-3,-1,-2
1523210747356237,46,-17,-1,-1,1,-1,-3,-10
1523210747377534,-21,0,-43,-3,-1,2,0,11
1523210747377534,-84,1,-38,-4,-2,1,-3,-21
1523210747379298,62,11,57,2,2,0,2,-24
1523210747379298,-119,-16,-19,-1,-3,-3,-1,-31
1523210747391332,39,13,15,-7,-7,-7,-6,-2
1523210747391332,-14,4,1,5,4,3,8,17
1523210747400364,21,2,-66,-10,-2,-2,-5,-2
1523210747400364,34,30,35,-4,-5,-6,-20,8
1523210747415394,35,-31,4,0,4,5,20,1
1523210747415394,51,23,-10,-1,0,1,1,0
1523210747416398,8,-6,7,-3,-5,-4,1,13
1523210747416398,8,-5,-31,-1,0,-1,-2,18
1523210747437453,2,16,-27,-8,-6,-6,-8,-9
1523210747437453,-5,0,31,5,2,-1,2,5
1523210747438456,21,-15,-45,-1,1,3,5,-1
1523210747438456,-80,-35,38,0,-1,-2,5,17
1523210747451507,34,-5,-28,-1,-1,2,-3,-6
1523210747451507,-23,-4,25,-2,-2,-3,2,11
1523210747458510,-51,-8,-31,5,-1,4,5,-9
1523210747458510,59,7,2,-1,1,-1,-2,11
1523210747474591,-65,-10,-25,-1,-2,-4,-18,-18
1523210747474591,-17,19,19,-6,-2,-2,7,11
1523210747476557,39,-17,7,-8,-5,0,16,20
1523210747476557,-21,-6,-4,12,3,-1,3,-2
1523210747497847,-25,3,-31,-1,-2,-2,-18,-6
1523210747497847,108,32,46,13,8,10,21,26
1523210747498615,-17,-10,-25,-17,-6,-10,-11,-19
1523210747498615,78,20,20,-3,-5,1,0,-1
1523210747511907,-16,6,17,3,-1,0,-1,-16
1523210747511907,5,1,18,-2,-2,0,-5,5
1523210747518712,-23,1,56,2,2,3,-2,-1
1523210747518712,0,-11,-43,-6,-2,-3,1,1
1523210747534776,-29,7,-10,0,-1,-1,2,-1
1523210747534776,71,1,-19,-1,0,1,-45,-11
1523210747536716,-82,27,-10,0,-2,-6,55,12
1523210747536716,-23,-32,30,-2,1,0,-8,-14
1523210747556771,-2,12,25,-6,-6,-5,4,5
1523210747556771,-11,-18,-7,-6,-4,-4,-21,-16
1523210747558776,-20,-8,-8,5,2,8,9,8
1523210747558776,13,17,27,7,3,-1,1,-4
1523210747571812,-38,-11,-52,-7,-2,-3,10,5
1523210747571812,2,-3,-9,-3,-4,-4,-11,-9
1523210747579029,30,9,-24,1,-2,-3,-9,13
1523210747579029,-74,1,51,1,1,3,13,-12
1523210747594911,60,0,13,1,0,-3,-6,3
1523210747594911,38,-5,-13,-1,-2,-5,2,7
1523210747596876,-42,-1,-6,-2,-2,-3,-22,-10
1523210747596876,-5,2,30,5,2,3,3,27
1523210747616936,-26,-3,-34,5,-1,-4,-5,-22
1523210747616936,-14,-9,-86,-15,-4,-1,-16,-14
1523210747618935,80,5,-14,0,0,-2,29,20
1523210747618935,-8,3,-13,2,0,2,-18,-35
1523210747631202,-12,-21,82,4,2,2,12,16
1523210747631202,-40,15,-65,-6,-6,-5,-16,-11
1523210747639991,-32,-33,-10,4,2,1,-2,-13
1523210747639991,27,12,-33,-11,-8,-6,-11,13
1523210747655071,-47,8,61,2,1,5,-13,-9
1523210747655071,53,-2,-16,-1,-3,-5,21,11
1523210747656034,10,-4,24,0,1,-1,-14,-3
1523210747656034,88,2,-17,7,5,7,10,-5
1523210747677090,21,6,11,-8,-9,-8,-20,10
1523210747677090,-2,-6,-17,0,-1,0,31,-36
1523210747679095,8,-11,14,-1,-4,-4,-31,-5
1523210747679095,9,8,-26,-8,-5,-3,24,16
1523210747691127,15,-2,14,3,4,4,-4,-12
1523210747691127,36,-3,39,3,1,-1,2,17
1523210747700156,-20,4,3,0,-3,-2,-20,-2
1523210747700156,-47,-2,-26,-2,-2,-3,-6,-12
1523210747715191,7,16,57,-5,-1,1,11,6
1523210747715191,-54,-8,-30,-1,-2,-4,-1,4
1523210747716196,52,11,31,8,6,7,1,-8
1523210747716196,20,-5,29,-7,-9,-7,-14,-2
1523210747737251,-27,-5,-55,-4,-1,-2,23,5
1523210747737251,26,13,18,2,0,0,-8,5
1523210747739295,-32,6,20,5,2,-1,1,-19
1523210747739295,10,8,-41,-2,-1,-2,-6,3
1523210747751316,23,-31,-71,2,1,1,7,4
1523210747751316,-23,0,57,0,1,-1,-6,2
1523210747760311,47,9,-62,-12,-4,-1,3,17
1523210747760311,-31,5,28,3,-2,-4,-7,-38
1523210747774387,-28,1,-13,0,-1,-2,4,-8
1523210747774387,-23,-1,-9,3,-1,1,-6,21
1523210747776354,-61,8,-7,-3,-1,1,10,5
1523210747776354,25,-12,24,0,-2,-4,-12,-10
1523210747797644,-21,-8,-31,4,6,5,5,-7
1523210747797644,-4,7,25,-10,-4,-4,-6,-7
1523210747798414,19,7,15,2,2,0,-6,-3
1523210747798414,-15,-7,-57,3,1,2,2,21
1523210747811507,-29,8,4,-8,-7,-6,-6,-12
1523210747811507,9,0,48,-4,-2,0,7,-9
1523210747819468,-38,-9,12,-3,-2,-5,-15,-22
1523210747819468,2,-1,14,5,3,2,8,15
1523210747834521,38,10,15,0,-1,-4,-16,-6
1523210747834521,-12,13,23,2,-3,-1,8,2
1523210747836512,32,-2,-35,-5,-5,-6,2,-3
1523210747836512,11,1,-1,1,1,5,10,-3
1523210747857571,-30,-1,31,-3,-2,0,-6,-1
1523210747857571,11,-2,4,7,4,2,-21,2
1523210747858572,-3,-2,-79,-9,-3,-2,19,-16
1523210747858572,18,9,10,-5,-2,-1,-7,-1
1523210747870603,26,10,-15,-3,-1,0,15,0
1523210747870603,15,-11,-10,0,0,1,1,21
1523210747879707,-99,-10,-8,-3,-5,-7,-18,-48
1523210747879707,92,-11,-29,3,4,-1,10,12
1523210747894667,-27,-7,28,-7,-3,-2,-12,-1
1523210747894667,-5,4,17,1,0,1,13,-16
1523210747896672,74,-5,31,4,3,-1,-8,24
1523210747896672,-108,-35,-2,-2,-2,-2,-7,-28
1523210747917731,-3,3,-39,2,2,1,-5,-5
1523210747917731,-11,-1,62,3,-1,-2,10,23
1523210747918731,-9,-11,-3,-1,-2,-3,-4,-13
1523210747918731,20,-25,17,0,0,0,-1,32
1523210747930998,14,16,5,5,0,2,7,5
1523210747930998,-25,-4,-30,-2,1,0,-12,-7
1523210747939788,-15,2,60,-2,-3,-1,6,-22
1523210747939788,-60,14,-50,-1,0,-5,-16,-4
1523210747954866,48,12,25,-4,-4,-1,4,-12
1523210747954866,72,0,-64,-7,-5,-3,3,-8
1523210747956833,9,3,-23,-2,-1,0,8,33
1523210747956833,-15,1,-51,2,2,6,7,-4
1523210747977888,-16,-13,82,6,-4,-8,-4,6
1523210747977888,28,0,-93,-8,-2,-3,-5,-7
1523210747978891,18,5,14,2,-2,-1,-2,12
1523210747978891,2,29,10,-4,-2,0,4,4
1523210747990924,-6,7,-44,-3,-3,-4,-4,9
1523210747990924,-10,-23,21,-3,-2,0,5,0
1523210747999954,-58,-2,-24,-1,0,0,-10,2
1523210747999954,2,27,16,-2,-1,-2,-1,-18
1523210748014986,-1,-12,11,-5,-5,-6,-3,-15
1523210748014986,-35,1,1,-2,0,2,2,-16
1523210748015991,75,11,-1,3,1,-1,5,15
1523210748015991,59,3,21,-1,-3,2,9,14
1523210748037047,-30,-7,-41,-7,-1,-3,-18,3
1523210748037047,-30,-7,1,5,2,3,-6,-9
1523210748039052,15,4,76,3,-2,0,-6,-4
1523210748039052,-76,-23,-54,-7,-2,-2,4,8
1523210748060108,81,4,31,-4,-2,-4,-5,-2
1523210748060108,-12,-5,24,0,0,-3,1,2
1523210748061207,17,5,-29,-3,0,1,-3,12
1523210748061207,8,-16,26,-1,-2,-2,-8,-23
1523210748075149,-68,-7,-48,-2,-1,2,-2,6
1523210748075149,4,-25,49,8,2,-1,0,1
1523210748076150,-24,3,9,-2,0,1,10,9
1523210748076150,58,-1,-18,-3,-2,1,3,4
1523210748097441,-5,5,-30,-3,1,-2,3,-14
1523210748097441,-16,2,27,0,1,0,1,-30
1523210748099211,22,-8,-20,-3,-1,0,-5,8
1523210748099211,-67,-4,19,2,0,-2,-21,4
1523210748119265,58,-5,-13,0,1,0,25,14
1523210748119265,8,-1,-46,0,0,0,2,5
1523210748121269,-14,-1,41,2,-1,0,0,-12
1523210748121269,37,8,4,2,0,-2,-10,14
1523210748134304,-104,-21,-53,-6,-1,-2,-13,-52
1523210748134304,36,11,15,-5,-5,-4,3,-8
1523210748136309,8,-5,-20,4,1,-1,-1,8
1523210748136309,3,-2,18,-9,-9,-8,-4,1
1523210748157366,9,7,58,5,2,2,5,20
1523210748157366,67,2,-92,-4,-1,-2,-6,12
1523210748158368,-65,-1,-9,-3,-2,0,-2,-16
1523210748158368,-53,-12,9,3,2,1,14,4
1523210748180426,94,10,39,-4,-4,0,-1,22
1523210748180426,33,-24,54,0,-4,-2,-5,4
1523210748181429,-48,-13,-79,-6,-1,-2,-5,-12
1523210748181429,81,28,27,9,1,-2,0,-16
1523210748194464,14,-6,-52,-13,-6,-4,6,31
1523210748194464,-81,15,-45,1,0,-1,-5,7
1523210748196469,28,-7,54,-4,-3,-2,-13,2
1523210748196469,-11,4,53,1,3,5,8,-9
1523210748217538,-40,-5,-31,-1,0,-4,-22,-14
1523210748217538,-35,0,22,6,4,1,19,25
1523210748218528,-10,7,29,3,3,3,-8,-6
1523210748218528,-27,-3,-40,-10,-6,-5,0,-1
1523210748239584,10,-6,-33,3,5,3,-3,2
1523210748239584,-10,-10,28,3,0,0,-9,-2
1523210748241592,27,11,-9,3,1,-1,4,10
1523210748241592,4,-2,31,1,0,-2,0,7
1523210748253621,-24,-28,-90,-7,-4,-2,-2,-4
1523210748253621,9,15,24,0,0,0,7,-9
1523210748260641,-13,3,-6,-4,-3,-2,-1,6
1523210748260641,7,20,-28,-2,-3,-2,-3,2
1523210748284707,-14,19,42,6,2,3,2,-33
1523210748284707,-15,-10,-31,-1,-1,-1,-4,10
1523210748286709,-36,-10,5,1,-3,0,3,-26
1523210748286709,-8,-4,6,-4,-1,1,-2,-4
1523210748299750,72,3,42,7,0,1,-29,-2
1523210748299750,-2,22,10,-5,-2,-3,26,-4
1523210748301751,50,6,-48,-5,-3,-3,-6,14
1523210748301751,-4,-20,2,-3,0,-3,-6,-12
1523210748314016,-114,-8,43,4,1,0,6,-21
1523210748314016,32,9,88,3,-3,-2,-7,5
1523210748320800,13,-31,-14,-11,-8,-6,-3,2
1523210748320800,21,-4,-11,7,2,3,-2,6
1523210748336842,23,-2,60,6,3,0,-8,13
1523210748336842,17,-4,-66,-6,-3,-3,6,-3
1523210748338848,-19,8,38,5,3,2,4,-2
1523210748338848,31,3,36,2,-2,-4,-6,5
1523210748359907,36,-3,-32,-3,-1,-1,-3,3
1523210748359907,-13,8,40,-2,-3,0,0,-2
1523210748362028,81,6,-19,1,1,1,-5,6
1523210748362028,-92,-3,-15,-9,-7,-4,4,-35
1523210748373980,-3,-2,2,-1,0,-2,18,22
1523210748373980,26,-2,14,2,0,1,-12,-5
1523210748381194,-6,-6,19,-6,-2,-3,11,7
1523210748381194,5,-30,40,9,5,4,-2,-1
1523210748397239,55,16,-47,-3,-1,4,8,8
1523210748397239,-25,-14,-1,-6,-2,-3,-2,-1
1523210748399015,10,20,1,4,2,-3,-3,4
1523210748399015,16,-25,-11,-2,-3,-5,-3,12
1523210748420063,-70,2,35,2,1,4,10,-10
1523210748420063,73,3,-20,-3,-2,-5,0,16
1523210748421065,-20,-5,-47,-7,-5,-4,-13,4
1523210748421065,-4,-2,-19,-2,-1,0,7,0
1523210748434104,-56,1,-10,-4,-2,1,8,18
1523210748434104,-77,-7,25,2,-4,-8,-22,-35
1523210748441121,50,-3,-9,0,-2,-3,1,2
1523210748441121,51,18,-52,-7,-5,-2,1,6
1523210748457163,-6,-17,13,5,3,3,-2,4
1523210748457163,22,-7,-27,1,3,5,7,0
1523210748459168,-21,4,20,5,-1,-2,-11,-8
1523210748459168,-8,-5,33,1,4,8,17,-2
1523210748480223,-17,-2,-57,-9,-6,-6,-18,-16
1523210748480223,47,-12,-40,-1,0,5,-1,0
1523210748481225,2,13,-22,-3,-2,-1,5,-3
1523210748481225,40,-10,-18,-8,-1,-2,-19,35
1523210748494262,-9,23,16,1,-1,-4,20,-21
1523210748494262,5,-18,-18,-2,1,1,-3,9
1523210748501312,-61,-4,53,1,-4,-3,-3,-8
1523210748501312,-17,10,-5,0,-1,1,0,-5
1523210748517323,53,6,24,0,2,1,-7,9
1523210748517323,-111,-13,-64,-9,-3,-2,-1,-14
1523210748519328,71,3,9,-2,-2,-2,-10,10
1523210748519328,6,20,42,9,2,-2,16,1
1523210748539420,55,-29,22,-2,-1,-3,-6,-2
1523210748539420,-11,4,-1,-8,-4,-4,-10,-3
1523210748541385,-18,-6,31,3,1,2,7,-12
1523210748541385,-95,-19,-74,-5,-4,-4,-7,1
1523210748553420,21,-10,-2,5,-1,2,8,13
1523210748553420,18,5,41,0,-1,0,3,7
1523210748562442,12,-1,-29,-8,-4,-2,-12,-7
1523210748562442,-25,9,63,7,2,1,4,10
1523210748577717,58,16,31,2,-2,-8,-24,-11
1523210748577717,-11,-5,-79,3,6,4,17,-9
1523210748578705,10,14,79,1,-3,0,4,11
1523210748578705,-7,7,-36,-2,-1,-1,1,-4
1523210748599588,45,2,13,-4,-4,-3,-4,17
1523210748599588,-12,7,20,0,-3,-4,-8,-8
1523210748601547,13,-23,11,9,6,3,20,3
1523210748601547,54,-3,-35,-3,-2,-1,-34,-19
1523210748613813,18,11,-11,-1,-1,0,20,27
1523210748613813,-9,-23,52,0,-2,-3,-15,-27
1523210748622604,-30,-18,-28,-2,-1,0,15,-8
1523210748622604,14,9,41,3,2,-1,-15,-15
1523210748637643,-91,-22,-47,-4,1,3,12,9
1523210748637643,36,27,35,-3,-2,-5,3,4
1523210748638655,-3,8,-12,-2,0,-1,-6,1
1523210748638655,-9,-8,-4,3,2,0,2,-9
1523210748659704,54,2,35,5,0,2,1,-5
1523210748659704,-17,-14,-89,-14,-6,-2,4,-9
1523210748661705,-40,-4,33,-7,-5,-6,-15,-8
1523210748661705,56,26,-29,2,0,3,0,8
1523210748673777,12,-5,-33,-8,-5,-6,3,-15
1523210748673777,34,16,13,6,3,3,-1,-4
1523210748682765,-4,-4,-8,1,1,2,6,16
1523210748682765,-27,-16,-5,-7,-6,-6,-14,-15
1523210748697033,16,5,19,2,0,3,19,4
1523210748697033,0,-3,14,-5,-3,-4,-11,9
1523210748698806,38,19,23,2,0,0,1,0
1523210748698806,-7,-4,6,0,0,-3,-8,2
1523210748719862,-52,-2,-29,3,1,1,19,7
1523210748719862,60,-20,53,1,-5,-3,-7,0
1523210748721865,87,-1,-34,-2,0,0,1,26
1523210748721865,-93,-31,-44,-6,-2,-6,-17,-33
1523210748732900,44,20,8,-1,-3,-2,-9,-25
1523210748732900,-18,8,42,8,2,0,-14,2
1523210748741920,-6,11,-7,-1,1,0,-1,-3
1523210748741920,49,-4,80,-2,-4,-2,14,-4
1523210748757194,-27,1,13,-1,-2,-4,-15,4
1523210748757194,-7,12,-24,1,3,2,18,11
1523210748758963,-21,-8,15,10,2,2,-30,-28
1523210748758963,12,13,-78,-6,0,3,39,19
1523210748780255,-12,-11,18,-16,-10,-7,-9,-20
1523210748780255,28,9,21,2,-2,-3,-8,28
1523210748781024,-66,-8,2,-3,-2,-5,-8,-28
1523210748781024,84,17,0,10,3,5,19,4
1523210748793056,-59,-1,5,-5,2,1,-12,21
1523210748793056,26,-20,-45,5,3,2,0,1
1523210748802079,-26,6,45,-1,-3,-2,11,0
1523210748802079,32,-2,-46,-15,-9,-6,-3,4
1523210748817120,-14,2,22,7,1,0,-12,-1
1523210748817120,64,15,18,3,1,3,5,-3
1523210748819123,-52,0,-20,0,0,1,1,11
1523210748819123,13,14,24,-6,-7,-9,-14,2
1523210748840179,-20,-22,-26,1,1,1,3,-24
1523210748840179,-32,-4,21,-1,1,2,1,-3
1523210748841183,93,9,-36,-1,-1,0,7,22
1523210748841183,-53,-21,-14,1,1,1,-6,-4
1523210748853217,-6,-3,20,1,-2,-4,-9,-8
1523210748853217,-14,13,-49,-2,-3,-1,11,-2
1523210748862238,49,0,54,-1,1,1,2,3
1523210748862238,-82,-20,-36,-7,-3,-2,6,-28
1523210748877281,90,16,19,-2,-2,-3,-2,2
1523210748877281,-69,-16,-19,0,-2,-4,-8,-5
1523210748879283,-20,-6,-14,2,2,1,-7,-9
1523210748879283,100,20,16,-1,-1,-1,10,21
1523210748899343,-38,-8,-28,3,6,4,-9,-15
1523210748899343,-28,9,11,-2,-1,1,4,-3
1523210748901344,11,-8,-32,-8,-6,-4,-16,-12
1523210748901344,-33,7,32,4,-2,-1,12,37
1523210748913609,-51,-8,-15,-1,-2,-2,8,-29
1523210748913609,40,-4,14,-1,-5,-5,-11,0
1523210748922399,-29,-9,-28,1,1,1,13,3
1523210748922399,1,12,63,5,3,7,-2,-6
1523210748937437,4,31,-65,-3,-3,0,7,6
1523210748937437,2,-8,52,-3,-1,-3,0,-17
1523210748938440,13,0,26,2,-1,-1,0,2
1523210748938440,-13,-11,-54,-3,2,0,-19,-8
1523210748959498,-56,-3,10,-3,-5,-2,22,-1
1523210748959498,-44,-19,6,-1,3,3,2,-3
1523210748961502,-12,1,5,5,0,-2,-6,-21
1523210748961502,24,1,28,-8,-6,-6,-6,6
1523210748973769,-18,-34,32,6,2,-4,-18,-2
1523210748973769,65,8,-20,-10,-3,-2,7,14
1523210748982559,-30,-1,44,2,1,-5,-7,-8
1523210748982559,-15,-9,4,-3,-4,-5,-4,-7
1523210748997598,16,-6,13,-2,2,4,-3,9
1523210748997598,14,9,-26,2,-2,-1,4,9
1523210748998601,46,5,-23,-2,0,0,4,7
1523210748998601,-21,6,-37,0,-1,-3,-5,-6
1523210749019657,45,5,4,2,-2,-3,5,12
1523210749019657,-56,-8,9,1,1,2,-5,-15
1523210749021663,72,-1,-1,1,1,2,4,4
1523210749021663,43,-10,-55,-4,-1,0,3,19
1523210749041716,-3,-8,30,-6,-6,-5,-8,-7
1523210749041716,-39,-7,-25,4,0,-1,-9,-13
1523210749043721,-15,18,-63,-14,-7,-4,5,-3
1523210749043721,10,-3,40,3,2,6,-5,-1
1523210749056756,-1,19,28,2,-2,-4,15,6
1523210749056756,42,18,-82,-16,-6,-9,-17,8
1523210749064781,-67,-14,-31,2,2,0,8,4
1523210749064781,-21,-2,36,2,0,-3,-23,-18
1523210749080052,18,-5,-33,0,2,9,22,38
1523210749080052,-6,-2,34,-3,-2,-2,17,-30
1523210749081828,5,7,-18,-4,-3,-6,-3,6
1523210749081828,-13,-9,0,0,1,1,-1,-6
1523210749101876,-16,-20,3,1,-1,-3,-11,31
1523210749101876,-73,-2,25,7,2,1,-3,-9
1523210749103880,4,-4,42,0,0,-1,5,-1
1523210749103880,48,30,-15,-1,-2,-2,-17,-25
1523210749116957,-19,0,34,2,-1,0,21,6
1523210749116957,39,-29,-41,-4,0,3,0,12
1523210749118921,-18,-5,-52,-8,-3,-2,3,-5
1523210749118921,-16,4,20,-1,-3,-6,-17,-18
1523210749139978,20,3,3,3,3,2,-15,-13
1523210749139978,1,15,32,-2,-5,-3,6,18
1523210749140979,21,-21,15,4,2,5,-5,-1
1523210749140979,-60,-10,-49,-9,-4,-5,4,-4
1523210749162270,21,2,-12,-1,0,0,-4,-11
1523210749162270,-23,7,-19,2,1,-3,-3,-5
1523210749164041,73,-5,-9,0,2,7,2,-5
1523210749164041,2,6,50,4,1,1,20,11
1523210749177175,-33,-10,-46,-16,-9,-11,-22,-6
1523210749177175,8,14,42,6,1,2,-4,-15
1523210749183095,-65,-18,-6,3,1,0,-6,12
1523210749183095,31,0,14,6,0,1,12,2
1523210749200140,15,2,-66,-10,-4,-1,-12,-8
1523210749200140,-38,-17,33,2,-2,-1,-11,-2
1523210749201138,2,-20,15,3,2,-1,30,2
1523210749201138,41,9,6,-3,-2,-3,-10,9
1523210749222430,-27,-4,16,1,0,1,-9,-8
1523210749222430,25,7,-8,4,0,0,9,9
1523210749224202,-57,-7,2,-8,-6,-6,-16,-19
1523210749224202,-27,-5,18,4,4,5,-2,0
1523210749236232,73,14,-33,4,3,5,18,35
1523210749236232,59,-10,11,-3,-1,-4,-12,8
1523210749243251,-38,9,4,2,-1,-1,-5,-3
1523210749243251,9,-9,32,0,1,0,10,-1
1523210749259295,-33,7,-34,1,2,-2,-5,0
1523210749259295,-1,-12,38,-7,-2,-1,0,5
1523210749261298,-16,6,-46,-5,-5,-6,-14,-27
1523210749261298,-6,-8,15,4,-3,0,13,17
1523210749282397,-19,-7,58,5,1,0,-6,-27
1523210749282397,-5,8,-16,0,0,-1,8,0
1523210749283358,33,2,14,-9,-3,-2,2,9
1523210749283358,3,-2,-12,1,2,5,-9,12
1523210749296391,107,-4,35,0,-4,-6,8,-35
1523210749296391,-61,15,-10,-2,-3,-2,-13,2
1523210749303411,12,4,26,-1,-2,-1,9,7
1523210749303411,5,-15,-58,-2,1,-1,-7,6
1523210749319452,11,-10,-9,2,-1,0,-1,5
1523210749319452,18,-5,7,2,3,5,17,16
1523210749321460,-12,2,-70,-10,-9,-13,-21,-14
1523210749321460,-20,-30,-23,4,8,5,8,3
1523210749342514,-63,-8,-28,-2,-2,-1,-6,-9
1523210749342514,13,8,25,0,-1,-1,-5,4
1523210749343517,-6,3,24,6,2,2,1,0
1523210749343517,4,9,28,-10,-8,-6,6,-2
1523210749356552,-40,1,-59,-5,-3,-3,1,7
1523210749356552,66,-3,-3,2,2,-1,2,-11
1523210749363570,-52,1,1,-2,-1,1,15,9
1523210749363570,52,18,10,3,-2,-6,-4,-11
1523210749379848,19,-5,-26,-2,1,0,-9,8
1523210749379848,12,-7,17,-1,0,-1,7,-22
1523210749381618,65,-12,-53,-2,-1,1,-9,5
1523210749381618,15,-17,35,4,2,1,16,19
1523210749402676,-36,1,50,-6,-6,-2,6,14
1523210749402676,-7,15,-33,-6,-3,-4,0,3
1523210749403678,12,18,20,1,0,0,-20,11
1523210749403678,-106,-35,61,1,1,4,21,-13
1523210749416753,92,18,-10,-5,-1,-1,13,21
1523210749416753,-105,-10,-28,-12,-9,-7,-16,-26
1523210749423731,-22,-1,27,4,0,-3,-8,-3
1523210749423731,-25,5,-13,0,-4,-5,-14,-18
1523210749439774,41,17,27,8,2,3,-5,7
1523210749439774,15,0,14,4,3,5,-1,16
1523210749441782,-55,-7,73,-4,-3,-2,-1,-55
1523210749441782,-35,3,-11,-6,-5,-7,2,-1
1523210749462855,17,-19,52,9,3,0,-1,-11
1523210749462855,-12,-2,-45,-4,-2,-2,-7,-13
1523210749463840,36,-4,28,0,-1,-6,3,24
1523210749463840,17,-4,-4,2,2,8,7,12
1523210749476872,-68,2,-8,-2,-1,-3,-20,-43
1523210749476872,6,23,-59,-2,0,0,10,17
1523210749483890,12,-7,2,-3,0,0,-3,-7
1523210749483890,18,1,14,2,-2,-2,-5,-3
1523210749499932,-36,-11,-80,-9,-2,-5,-11,2
1523210749499932,46,-9,106,8,0,-2,9,-7
1523210749500937,60,18,-115,-12,-5,-2,5,7
1523210749500937,39,10,-5,-4,-1,-1,-4,-9
1523210749521992,20,-3,39,7,3,2,-1,-2
1523210749521992,14,-4,9,-3,-3,-2,-5,6
1523210749523997,-22,-15,11,5,2,2,-6,7
1523210749523997,34,5,-15,-1,1,2,4,-14
1523210749536029,45,2,-40,-5,-6,-6,-5,13
1523210749536029,2,-7,-10,3,2,1,6,3
1523210749545054,-13,5,34,8,4,3,5,4
1523210749545054,6,-11,-91,-11,-2,2,4,17
1523210749560094,-19,-11,31,-6,-6,-6,-10,-2
1523210749560094,-35,-10,-9,-2,0,-1,-19,7
1523210749561148,-68,-5,-16,3,1,0,12,-8
1523210749561148,13,13,7,-1,-4,-6,-12,5
1523210749582156,-17,2,21,-3,-1,-1,8,-14
1523210749582156,57,3,3,-3,-1,-1,-1,10
1523210749584157,-62,-20,-12,0,-1,0,-6,-2
1523210749584157,-28,-5,34,0,-1,0,-1,1
1523210749596424,18,27,-4,3,4,2,2,1
1523210749596424,-17,-6,11,1,-3,-4,-5,-13
1523210749605213,55,6,8,-5,-3,-3,1,9
1523210749605213,19,8,49,6,0,-3,-1,2
1523210749619252,-12,-10,-22,-7,-3,-1,3,-14
1523210749619252,91,3,-8,0,0,-2,-2,21
1523210749621255,-91,-30,-4,0,0,1,3,-10
1523210749621255,40,5,42,2,-3,-5,-11,-6
1523210749642311,-2,4,15,2,1,3,5,-16
1523210749642311,-27,-3,24,3,0,3,-1,0
1523210749644378,29,2,-100,-14,-6,-5,3,26
1523210749644378,5,-10,55,-2,-3,-1,-11,-31
1523210749656499,-15,-7,-4,-3,2,0,-2,4
1523210749656499,-31,-10,-18,3,0,0,2,-12
1523210749665375,115,11,-13,-1,0,-1,-1,-4
1523210749665375,-74,-6,-47,-6,1,1,-4,-5
1523210749679645,-23,-14,50,6,0,-1,-1,8
1523210749679645,4,-2,-47,-18,-9,-6,3,-4
1523210749681416,122,9,37,6,4,4,3,42
1523210749681416,-74,-5,-27,-7,-6,-8,5,-7
1523210749702472,12,-9,-2,3,0,0,21,13
1523210749702472,-37,10,-5,-2,-1,0,-6,-6
1523210749703473,3,-5,-45,-7,-5,-4,-6,4
1523210749703473,-5,-6,6,2,2,1,4,5
1523210749715554,24,0,-51,-5,-3,-4,-21,-3
1523210749715554,-19,8,38,0,-2,-3,1,-5
1523210749724533,-4,-67,60,6,3,6,12,11
1523210749724533,13,20,-40,5,3,3,-4,-13
1523210749739609,6,10,25,-2,-4,-4,-6,-4
1523210749739609,-10,11,-3,-3,0,-2,7,3
1523210749741576,7,26,24,1,0,0,-8,-21
1523210749741576,38,3,-23,-4,-1,-2,3,-8
1523210749762851,-59,-24,-48,-9,-3,-3,-15,-19
1523210749762851,13,-7,-8,-3,-1,-2,14,15
1523210749763635,10,16,44,2,-2,0,-8,-7
1523210749763635,28,1,-10,-1,0,1,-5,-15
1523210749775907,31,24,-14,5,3,2,3,16
1523210749775907,-49,-12,-27,1,1,-3,4,-8
1523210749784689,11,15,14,-1,-4,-3,-18,-14
1523210749784689,-66,-1,-10,-2,-1,0,7,7
1523210749799733,19,-1,48,1,-2,-1,21,10
1523210749799733,14,0,-21,2,2,1,-7,-3
1523210749801734,-58,-40,-3,5,2,2,-3,-17
1523210749801734,30,4,76,-2,-3,3,7,16
1523210749821788,54,7,-67,-8,-1,-1,-13,-2
1523210749821788,18,9,32,3,-1,-2,-4,-17
1523210749823794,-77,3,16,2,-2,-3,1,-6
1523210749823794,-8,0,-10,2,2,2,-1,9
1523210749835825,6,-21,18,-2,-1,-2,-13,11
1523210749835825,-43,3,5,-4,-3,-2,0,-2
1523210749844849,6,-3,-13,2,3,3,0,-4
1523210749844849,22,8,35,4,-2,-1,-8,18
1523210749860125,-18,3,-21,-1,2,3,10,-14
1523210749860125,-4,-7,-21,-1,-1,-2,-14,-21
1523210749861973,2,10,26,-3,-2,-4,11,3
1523210749861973,-67,-17,-128,-6,-3,-7,-19,-16
1523210749882186,-33,-12,76,0,-1,0,15,5
1523210749882186,16,-12,9,-3,-2,-2,-8,9
1523210749883954,43,10,7,0,1,2,6,11
1523210749883954,44,-30,3,2,1,1,4,-4
1523210749896220,-6,10,47,2,-1,-4,-16,0
1523210749896220,-10,0,-6,0,1,3,-2,3
1523210749905009,51,9,13,-5,-3,-1,5,-3
1523210749905009,27,6,3,-4,-1,-5,-5,27
1523210749920050,-23,-4,-23,1,0,1,10,-1
1523210749920050,45,-4,49,3,0,0,0,9
1523210749921053,-58,15,-22,-2,-1,-1,2,-1
1523210749921053,-47,-5,4,-2,-2,-2,-3,-9
1523210749942109,-35,-8,-8,3,0,2,-10,-33
1523210749942109,-45,-6,-10,-1,-1,-1,-3,6
1523210749948129,-13,-14,-14,-6,-4,-4,-8,-7
1523210749948129,-46,-4,28,-7,-4,-5,13,-11
1523210749965175,12,0,-28,-3,1,0,3,19
1523210749965175,4,11,-54,-3,0,-2,-11,-26
1523210749966174,-36,-4,-29,3,-3,-3,-5,-6
1523210749966174,43,24,1,-6,-2,-1,-2,4
1523210749979444,16,-12,27,6,0,0,-7,-1
1523210749979444,1,1,0,-1,0,4,14,-1
1523210749981211,-2,-8,21,5,-1,-2,-2,9
1523210749981211,39,0,-36,-7,-2,1,3,13
1523210750002268,-83,-14,37,4,2,3,-1,-13
1523210750002268,117,13,11,0,-2,-1,-1,3
1523210750004275,13,4,11,-7,-4,-4,-5,-17
1523210750004275,-35,1,37,7,3,3,7,15
1523210750025329,-51,7,-34,1,-1,-1,2,0
1523210750025329,40,-20,32,-4,-4,-3,-3,10
1523210750026331,7,0,-3,0,1,0,-2,-6
1523210750026331,17,1,4,-2,-5,-4,-6,-10
1523210750039369,29,14,-16,2,3,4,4,5
1523210750039369,-79,-7,-17,-3,-3,-2,-9,-15
1523210750041372,33,21,-26,0,0,0,12,1
1523210750041372,14,-5,15,-6,-6,-5,-1,-1
1523210750062662,72,16,27,2,1,2,2,27
1523210750062662,-67,-9,-5,4,3,0,-3,-15
1523210750063431,2,9,-3,-5,-1,-1,-7,0
1523210750063431,32,6,-25,2,1,2,8,12
1523210750084485,-30,-5,72,0,-2,-2,-2,-25
1523210750084485,0,18,-9,-6,-6,-7,-4,-1
1523210750086492,-25,5,-16,1,0,0,-16,5
1523210750086492,19,1,17,2,2,0,16,-1
1523210750099529,23,-3,-20,-9,-6,-6,-1,2
1523210750099529,5,-28,81,9,5,5,2,10
1523210750105583,46,-2,-36,-8,-5,-1,-2,0
1523210750105583,27,-12,14,-1,-2,-4,-4,3
1523210750122823,-33,-4,2,-8,-6,-7,-19,-13
1523210750122823,-3,20,-3,3,2,3,29,14
1523210750123590,-12,-21,-16,-4,-4,-4,11,13
1523210750123590,13,-3,-17,7,4,1,-21,-21
1523210750144881,-13,-5,-65,-6,-1,3,12,20
1523210750144881,14,4,2,0,0,1,3,-1
1523210750146652,-49,3,24,0,1,1,-19,-18
1523210750146652,23,20,-11,-2,1,-2,3,18
1523210750159723,-50,5,-49,0,-2,-2,-7,-22
1523210750159723,0,-23,-29,-14,-6,-2,-4,8
1523210750165701,66,19,27,6,2,1,1,2
1523210750165701,-127,-37,-69,-8,-5,-1,-2,-21
1523210750181796,127,17,-40,0,0,1,10,13
1523210750181796,-8,-4,64,1,-2,-4,-4,3
1523210750183750,-30,-7,-16,-2,-1,-2,-11,-12
1523210750183750,13,17,25,2,2,4,6,-14
1523210750204846,31,16,12,-2,-3,-7,4,-5
1523210750204846,-92,-46,-60,-2,-1,-3,-13,-25
1523210750206813,-13,10,23,-1,-3,-4,-1,-11
1523210750206813,20,10,41,6,1,2,22,11
1523210750218844,-52,-13,5,-5,-3,0,-18,-8
1523210750218844,66,27,-6,-4,0,-4,26,19
1523210750227944,3,-7,-9,-1,-1,-2,-16,8
1523210750227944,-21,7,42,-3,-1,-1,-23,-5
1523210750241905,87,-8,-39,2,3,2,-4,-2
1523210750241905,24,2,-59,1,0,-1,-1,11
1523210750243909,-52,-24,9,-1,0,2,18,-19
1523210750243909,27,16,23,-9,-7,-6,-6,2
1523210750265204,-2,0,28,-1,-5,-6,-15,0
1523210750265204,18,24,6,5,2,4,-14,-15
1523210750265970,32,12,24,5,0,1,5,34
1523210750265970,38,-14,-30,-2,-1,0,2,16
1523210750279238,-65,-4,-8,-4,-2,-2,5,-7
1523210750279238,37,-5,-3,-5,-3,-5,-8,-1
1523210750286021,-21,-3,38,2,1,-1,11,1
1523210750286021,3,6,-15,2,-1,-4,-8,0
1523210750302109,-2,-4,23,-2,0,0,7,7
1523210750302109,-79,-14,25,-3,-2,-2,-4,-7
1523210750304109,38,12,-1,2,1,3,1,0
1523210750304109,9,-1,-25,-8,-4,-4,-29,-5
1523210750325127,-15,-4,-1,1,-1,-4,4,-7
1523210750325127,-10,5,-5,6,1,2,20,-6
1523210750326128,-7,-19,-23,-10,-3,-3,-6,-8
1523210750326128,2,5,1,-2,-2,-2,-6,-9
1523210750339201,-17,-6,-1,2,-1,1,-3,-4
1523210750339201,32,22,-2,0,-5,-1,-5,3
1523210750346290,76,8,17,3,2,1,8,21
1523210750346290,-65,-30,-16,-2,-2,2,21,4
1523210750362459,44,6,8,-5,-5,-6,-16,-25
1523210750362459,19,-7,-69,-5,0,0,-10,2
1523210750364230,21,7,2,2,-2,-3,-3,6
1523210750364230,2,-22,10,3,-1,1,1,-7
1523210750384281,33,-1,-30,-2,2,0,12,8
1523210750384281,19,11,22,-1,-2,-3,-15,10
1523210750386288,-27,-2,4,-7,-4,-2,7,-14
1523210750386288,-7,7,-23,0,-2,-5,-6,0
1523210750399322,15,15,11,3,3,3,-20,13
1523210750399322,51,3,18,0,-1,0,35,21
1523210750406497,-57,-7,-32,-1,-1,-3,5,4
1523210750406497,12,11,8,-3,-3,-2,-7,-9
1523210750422386,-23,-6,34,5,1,4,-1,0
1523210750422386,16,12,3,2,2,-1,-23,-11
1523210750423389,-15,-7,-59,-11,-4,-3,8,6
1523210750423389,-17,14,3,4,5,3,-6,-22
1523210750444678,91,6,-22,0,-1,-4,13,-1
1523210750444678,-17,-19,-14,-8,-3,-2,-14,-6
1523210750446449,27,-4,47,-2,-3,-3,6,-2
1523210750446449,-15,4,-18,-1,-1,-1,-8,1
1523210750458716,-2,-2,-11,-2,-4,-6,-1,5
1523210750458716,-61,-13,7,3,0,1,7,-3
1523210750467503,55,11,-10,4,4,6,-8,-24
1523210750467503,-22,-6,-2,3,1,1,-1,14
1523210750482587,-39,-12,77,-5,-6,-4,7,4
1523210750482587,-20,-20,-9,-4,-1,2,0,-7
1523210750483549,-2,2,-9,7,1,1,-27,-7
1523210750483549,25,14,44,-1,-1,2,60,-2
1523210750504603,-25,-1,-20,-3,-2,-4,-13,-6
1523210750504603,4,0,1,1,2,-2,-10,-12
1523210750506608,-32,-4,2,-5,-3,0,-16,13
1523210750506608,18,-2,17,2,1,0,1,6
1523210750518640,-12,-4,-72,-7,-3,-1,5,-6
1523210750518640,7,-14,71,-3,-3,-1,3,-24
1523210750527664,81,-9,-43,-1,-2,-4,-20,15
1523210750527664,4,-4,-30,-5,-3,-2,-3,-3
1523210750541701,-51,-15,-25,-1,0,2,15,11
1523210750541701,12,19,-6,0,-5,-4,-16,11
1523210750543706,-24,6,-7,-2,-2,-1,9,-14
1523210750543706,-37,-30,-16,-2,-1,-2,-8,-2
1523210750564779,-31,2,3,4,2,3,-4,-2
1523210750564779,8,-15,37,5,4,3,10,-2
1523210750566767,-40,20,38,4,0,2,-11,12
1523210750566767,23,-11,-30,-2,-2,-4,6,3
1523210750579025,-33,-4,42,-4,-4,-3,-3,-25
1523210750579025,-32,1,-9,4,2,-1,6,8
1523210750587827,-14,9,-30,-8,-3,-5,-8,-13
1523210750587827,-3,8,64,5,3,1,-19,7
1523210750601861,5,-28,-56,-2,1,5,13,-12
1523210750601861,23,2,41,0,0,-1,1,1
1523210750603866,-46,-5,27,-2,-2,-2,7,-10
1523210750603866,20,6,-29,-1,-2,-3,-9,-5
1523210750624961,85,21,29,1,-1,-5,-21,20
1523210750624961,-25,0,-18,-7,-5,-5,4,-2
1523210750625924,-15,-3,21,4,4,2,8,-32
1523210750625924,29,17,-24,-3,-3,0,6,17
1523210750637958,12,4,10,-3,-3,-5,-13,11
1523210750637958,-27,-2,-27,4,2,2,-3,-14
1523210750646981,3,-2,-12,-3,-3,-3,8,3
1523210750646981,-9,-12,4,5,1,3,-1,-11
1523210750662255,5,6,11,2,1,4,-13,17
1523210750662255,45,9,10,-7,-4,-5,18,-17
1523210750664026,-46,-21,-89,-8,-5,-5,5,-7
1523210750664026,52,6,16,0,1,2,-7,1
