timestamp,emg1,emg2,emg3,emg4,emg5,emg6,emg7,emg8
49984096056,-1,-8,-15,-38,-2,-2,-19,8
49984096056,4,-2,1,11,-1,-2,-3,6
49984096683,-19,24,83,10,2,0,2,-4
49984096683,-1,2,57,9,-1,-2,-6,4
49984097658,15,9,4,8,5,-1,9,-8
49984097658,1,-20,-42,25,-10,-4,-6,-9
49984098348,-26,2,34,-7,6,2,2,8
49984098348,61,3,22,-34,-12,0,3,1
49984109099,-78,-15,-7,-13,-2,-4,-9,-10
49984109099,33,14,-4,9,6,3,0,-5
49984117612,13,5,-14,0,-3,-1,-1,0
49984117612,93,4,-81,1,1,3,1,1
49984125445,-66,-24,14,25,-7,-4,-12,-11
49984125445,7,-32,77,-23,1,-1,10,6
49984139791,8,-1,-19,-6,-5,-1,-6,-5
49984139791,-3,6,-29,-10,-2,-2,-5,-7
49984147784,-7,4,25,23,4,3,6,7
49984147784,-5,37,28,-27,-2,-1,-3,-3
49984154144,7,-18,-67,-12,-5,0,7,1
49984154144,-72,-17,31,61,19,1,1,6
49984169233,17,-20,-72,-88,-8,-5,0,-4
49984169233,14,1,8,-33,-16,-3,0,-6
49984177615,-41,1,-15,30,-2,-3,-6,-3
49984177615,-5,11,-38,-4,-1,-1,1,-6
49984217194,18,10,-21,6,5,1,-1,-3
49984217194,10,16,1,-11,1,0,-4,-2
49984218014,30,-5,-48,-18,-8,-5,-1,0
49984218014,-16,-4,2,6,-7,0,1,-3
49984218844,10,8,-9,-11,4,-1,4,5
49984218844,-2,8,45,36,3,0,1,-4
49984221933,-21,-15,-63,-30,-4,-1,-2,-1
49984221933,63,5,-17,7,-1,1,-10,-2
49984228728,10,7,-35,12,3,-2,-5,4
49984228728,-4,-10,53,-7,-7,-4,-2,-3
49984236339,-8,-4,-23,-52,-5,-2,2,-2
49984236339,-58,-29,1,6,7,2,4,6
49984245257,-3,0,53,-8,-6,2,0,-3
49984245257,-58,-12,-47,31,9,0,-4,0
49984259598,-8,4,48,51,5,1,6,1
49984259598,44,28,29,-1,1,2,-2,-6
49984266410,-23,-25,-61,-31,-3,-5,13,2
49984266410,10,8,22,-23,-8,-4,0,-2
49984273891,61,-12,41,17,4,4,3,7
49984273891,40,1,-22,-24,1,-3,-4,1
49984288810,-41,-2,23,21,0,-2,-9,-6
49984288810,-12,-27,-26,-8,-10,0,2,1
49984296379,9,13,-22,17,7,1,-7,-6
49984296379,-10,12,103,-68,-17,-6,3,4
49984305246,-56,-11,-46,-12,-1,0,-4,-13
49984305246,10,13,1,44,1,-1,-6,-10
49984319283,-12,-4,-26,7,-3,-2,0,-2
49984319283,-23,5,8,27,10,1,0,-5
49984327747,39,18,19,-14,-3,0,0,1
49984327747,19,-7,-69,-13,1,-1,-2,-3
49984333938,20,25,80,23,10,3,-1,-6
49984333938,-23,-6,-51,-16,-3,-4,1,7
49984348857,-43,-13,-73,-19,-28,-10,-7,-12
49984348857,8,-15,-29,-46,4,0,1,2
49984356190,9,5,19,1,-4,-2,-2,-3
49984356190,7,-36,76,88,20,5,5,8
49984365265,-1,8,60,-54,3,5,3,2
49984365265,-4,3,17,-22,-12,-1,-1,2
49984379542,-12,-24,26,-18,-8,-4,-11,-3
49984379542,39,6,74,-18,10,6,15,2
49984386235,-29,-2,19,92,4,-5,-6,-4
49984386235,19,24,67,-15,0,3,3,6
49984393727,-7,6,-14,-14,-3,-1,-3,1
49984393727,18,9,-76,14,1,-3,-7,-6
49984408890,39,6,43,11,6,3,5,5
49984408890,0,-18,-103,-27,-6,-6,-10,2
49984416387,-28,12,-5,39,5,0,4,-12
49984416387,-38,-25,-5,-27,-3,-1,-3,-10
49984425253,26,14,9,18,7,1,9,17
49984425253,-60,-4,29,-45,-14,-4,-12,-4
49984439501,-3,-8,-44,-29,-4,-2,-1,-7
49984439501,1,10,-39,13,-5,-3,0,9
49984446341,27,-13,50,25,7,0,-3,-12
49984446341,32,-10,-17,63,6,4,3,1
49984453721,-64,0,12,11,3,1,0,5
49984453721,-7,18,-2,-41,-10,-1,-3,-6
49984468873,-36,-32,-64,10,-4,-2,-6,0
49984468873,19,16,31,-14,3,1,5,1
49984476397,-4,-25,-43,-25,0,0,8,-23
49984476397,50,4,-69,-4,-6,-4,-29,14
49984485204,-59,9,58,-13,10,7,16,3
49984485204,-51,-28,-72,25,-13,-8,5,-12
49984499618,-4,2,30,21,10,-2,2,-2
49984499618,3,7,41,12,-5,-3,-2,-14
49984506265,69,-3,17,-29,-4,-3,-1,9
49984506265,2,0,-11,-67,-3,1,-8,4
49984513924,9,-7,-59,9,-1,-2,-2,-4
49984513924,-40,-13,21,31,-1,1,5,-1
49984528794,-6,0,1,12,-3,1,-1,1
49984528794,9,14,41,45,12,2,4,-1
49984536293,20,-5,36,-56,-15,-4,-6,8
49984536293,-11,-5,-40,-13,-2,-4,-7,-2
49984545208,17,2,-35,0,1,1,-3,-6
49984545208,4,11,42,57,6,-1,2,4
49984559586,14,-10,-23,-20,-9,2,-4,5
49984559586,58,-17,-74,-2,0,-2,1,-3
49984566258,-9,7,25,2,-1,-6,1,1
49984566258,-23,0,71,19,11,3,2,-1
49984582076,3,14,15,-11,7,2,-4,3
49984582076,45,13,47,-35,-17,-4,6,5
49984588877,-49,3,33,22,9,0,-10,-8
49984588877,27,-16,-112,2,-9,-8,-6,-9
49984605236,-26,8,21,15,9,4,9,11
49984605236,-53,22,-31,16,-3,-4,-15,-16
49984606726,-52,-9,42,-30,-10,0,-5,2
49984606726,27,6,-17,-47,0,-2,5,6
49984619592,12,11,-8,-5,2,-2,-1,2
49984619592,-34,4,-51,6,8,2,-9,-2
49984626374,34,-13,-38,19,-12,-3,-1,-4
49984626374,-7,-2,30,-17,3,3,1,0
49984641977,27,15,-8,15,-4,-4,-8,-1
49984641977,-5,5,42,12,2,-2,10,-7
49984657054,3,-27,-97,27,5,4,0,7
49984657054,15,-14,11,-35,-2,4,-2,-1
49984657738,-5,15,81,11,-14,-7,4,5
49984657738,-15,-33,50,48,9,4,14,2
49984665213,-1,6,-29,-1,-7,-2,-2,-1
49984665213,15,-18,43,-27,-5,-3,-4,-20
49984679617,-6,1,-7,-24,-6,1,-3,5
49984679617,-24,3,48,-8,-8,-5,-4,-2
49984686258,44,11,-6,-7,7,1,-3,-3
49984686258,40,-4,3,31,11,-1,4,6
49984701665,-70,-2,20,-26,-17,-2,-6,-14
49984701665,-27,-2,-46,2,0,-1,2,-3
49984710262,61,5,38,-20,-2,-2,-8,-3
49984710262,-27,10,10,32,9,3,-4,14
49984716372,72,6,72,40,14,2,4,14
49984716372,-32,-19,-69,-44,-9,-2,6,-4
49984725248,68,21,42,-33,-2,-2,-16,-1
49984725248,-26,-19,-1,18,-8,-7,16,3
49984739450,41,-11,-22,10,3,0,-4,5
49984739450,13,-5,0,-2,-3,2,-3,1
49984746289,69,8,6,3,0,-4,3,-4
49984746289,20,26,-13,38,8,5,-9,-6
49984762072,6,-28,-52,-72,-19,-6,-2,-9
49984762072,9,6,-6,40,12,1,-3,2
49984768787,-41,-32,-76,-21,-15,-5,16,-6
49984768787,-9,2,1,3,-7,-3,-4,3
49984776461,-27,-1,-36,51,13,6,4,1
49984776461,9,19,32,-31,3,-2,-6,-1
49984785257,-14,-5,-63,-57,-9,-2,2,-1
49984785257,-7,-3,-6,15,-9,-1,5,15
49984799646,-63,9,-13,-22,1,0,-5,-17
49984799646,11,-28,58,35,7,3,-10,-8
49984806207,-24,-8,3,29,10,1,10,6
49984806207,7,18,40,-36,-13,-4,-4,-3
49984821901,-11,-13,-4,42,6,4,-1,-9
49984821901,-10,1,-11,-30,-3,-6,-15,1
49984828704,-54,-19,0,-68,-8,-1,2,-12
49984828704,30,8,5,38,3,0,2,2
49984836212,-18,-27,20,51,8,0,-1,-4
49984836212,46,18,-43,-10,-5,-3,5,5
49984845204,-40,-9,1,19,1,-2,-10,-9
49984845204,6,-18,-62,-34,0,-2,-4,-7
49984859504,-23,5,-6,-18,-2,0,3,0
49984859504,17,8,24,28,2,3,8,8
49984866301,18,30,3,14,4,0,-1,0
49984866301,-29,-13,-30,-36,-6,0,-2,-7
49984882057,16,-5,56,1,14,-2,-11,-1
49984882057,-29,-17,20,-5,-17,-5,12,-8
49984888747,16,17,9,14,-8,-1,-10,13
49984888747,40,2,5,-6,2,2,4,1
49984896379,-67,1,-15,11,7,1,-4,-5
49984896379,74,22,40,-8,-6,-1,-3,-2
49984911404,-74,-30,-54,-17,-1,-3,-5,-5
49984911404,-58,-1,-19,51,13,0,-13,-4
49984919562,47,9,0,-56,-24,-8,-1,13
49984919562,-15,-4,-25,-35,0,1,7,-4
49984926271,16,2,-1,-43,-13,-4,0,8
49984926271,-42,-18,15,19,9,2,-1,1
49984941966,9,18,64,23,6,1,11,1
49984941966,-27,-18,-50,1,-3,-3,-8,5
49984948850,60,34,22,29,8,2,-1,-3
49984948850,-47,-26,-31,-40,-13,0,1,-10
49984956268,104,12,-16,12,4,2,5,5
49984956268,-3,-2,49,-38,-6,-1,2,3
49984971388,-23,6,51,3,-13,-7,-15,3
49984971388,34,12,19,7,2,0,0,-3
49984979562,23,-2,-23,25,9,5,-1,3
49984979562,-64,8,-18,-22,-4,-3,0,-11
49984986233,-43,-15,4,22,10,5,4,-2
49984986233,33,13,-35,-40,-11,-4,-1,0
49985001994,13,-4,27,13,5,0,-2,1
49985001994,-42,-25,-24,-6,1,1,1,2
49985008848,67,12,45,45,-2,-2,6,5
49985008848,15,2,39,-14,-1,-2,-1,-6
49985016222,14,17,20,-3,-2,-3,-4,-5
49985016222,-13,-18,-59,16,8,3,8,5
49985031394,24,-2,9,-4,5,-2,6,4
49985031394,0,5,15,21,6,1,-2,-2
49985039437,-31,-17,-55,-16,-12,-3,-2,-7
49985039437,32,16,29,10,-3,-4,-6,-1
49985046291,-2,1,-1,15,5,5,-9,-4
49985046291,57,-14,-13,-25,-4,-4,9,2
49985061897,-93,-10,2,42,1,-7,-5,2
49985061897,1,-2,-42,-30,-2,1,3,12
49985068867,28,2,27,21,6,-1,2,-1
49985068867,97,32,27,8,5,7,-4,3
49985076235,-1,-18,14,-13,-6,-3,1,0
49985076235,25,-16,34,-2,-6,-3,-4,-9
49985091384,-22,-9,-22,-38,3,2,8,-1
49985091384,11,28,58,43,-10,-6,-7,-2
49985099545,7,-15,7,74,12,-3,11,9
49985099545,10,37,10,-55,-18,-4,-6,-9
49985106273,-29,-6,15,-11,3,5,-1,-9
49985106273,10,21,5,11,7,1,-1,4
49985121917,-13,-3,-59,-17,-6,-6,-12,-6
49985121917,-11,4,-43,9,3,-6,-10,-20
49985128724,-1,-5,17,-3,-16,-3,7,27
49985128724,13,-5,-4,-5,3,1,-1,-1
49985136301,-58,-5,0,-11,-3,-1,-5,-3
49985136301,44,6,60,20,14,6,-1,2
49985151290,2,-29,-99,-43,-11,-5,-8,-14
49985151290,20,-5,35,16,0,-3,1,-2
49985159508,15,-4,-20,-74,-7,3,-3,2
49985159508,-20,8,83,48,3,2,11,6
49985166210,-27,-10,-36,-4,-1,-3,-2,-5
49985166210,-40,-12,-11,6,-1,-3,-3,1
49985181893,39,20,0,4,0,-2,-5,-18
49985181893,9,-20,43,-3,-14,0,5,2
49985188774,14,-1,69,-36,6,-3,-2,-4
49985188774,-49,-12,-65,-17,-9,-2,-2,-5
49985204449,19,7,-27,-16,-5,1,-2,4
49985204449,-2,-6,11,59,11,0,-8,-4
49985211319,8,13,36,32,-1,-1,11,-5
49985211319,-10,0,55,13,3,0,6,7
49985227641,-4,-15,-57,-62,-19,-6,4,-2
49985227641,-14,-7,-35,-2,7,2,0,-1
49985229182,27,-9,0,-2,1,-3,-12,-7
49985229182,-52,-9,-39,-29,-5,-2,7,4
49985241965,69,14,44,41,10,4,-1,4
49985241965,45,10,-48,-24,0,-2,-2,-3
49985248857,-58,-10,65,46,4,3,2,2
49985248857,-2,-13,-32,-18,0,-1,-10,2
49985264432,-65,10,-18,-14,7,5,8,-1
49985264432,17,18,56,7,-3,-1,-13,-1
49985271307,8,14,27,48,5,0,-9,-5
49985271307,-7,2,4,-44,-12,-3,3,-2
49985287668,-19,-8,71,-8,5,-1,2,8
49985287668,-25,-17,-59,22,14,-3,-1,-2
49985289247,15,18,-26,49,4,3,2,-5
49985289247,7,-7,-13,-88,-16,-6,-8,-10
49985301927,26,-29,14,33,1,3,10,4
49985301927,-19,-15,-92,-73,-12,-5,0,-1
49985308782,23,6,15,30,5,0,-3,-1
49985308782,43,16,29,29,-1,-3,-7,2
49985324523,-84,-3,27,-2,-2,0,11,-13
49985324523,12,-4,-66,-19,-4,-2,-3,6
49985331229,30,0,-6,-17,-5,-2,-3,-1
49985331229,-34,-6,0,4,4,0,-11,-5
49985347533,18,13,-7,-6,0,-1,6,-2
49985347533,-23,6,59,56,6,2,14,18
49985349194,-12,2,-14,-78,-12,-3,3,0
49985349194,43,4,25,42,9,3,-4,-3
49985361955,-2,7,-28,-33,-23,-9,12,29
49985361955,-9,3,37,-10,0,0,-19,-18
49985368811,-28,-34,-11,8,13,1,16,2
49985368811,30,10,19,33,-14,-1,4,1
49985384589,29,3,0,11,2,1,-5,-12
49985384589,-45,-8,-10,7,-2,0,-3,2
49985391372,27,3,-13,-17,-3,-1,-1,6
49985391372,-55,-3,27,12,19,2,-6,-12
49985407751,5,-5,36,-16,-7,-4,7,-3
49985407751,16,-1,-33,-16,-8,-2,-1,4
49985409196,-21,13,24,12,2,-1,-6,-1
49985409196,-59,-11,18,15,1,2,6,6
49985422072,68,-1,-23,-51,-5,-4,-12,2
49985422072,-42,-19,-57,3,2,-1,4,-4
49985428799,21,17,42,6,-2,0,-6,-7
49985428799,7,9,12,38,12,4,2,-1
49985444626,-13,-19,-90,-54,-17,-5,11,1
49985444626,10,5,24,-5,-2,-1,-8,5
49985451301,-16,-8,-31,11,-1,0,-4,-1
49985451301,6,11,14,-14,2,-2,-12,0
49985467652,47,21,42,65,12,2,-1,-5
49985467652,-22,-9,22,-80,-14,-7,3,-3
49985469189,-40,-5,58,-16,-2,-4,-1,1
49985469189,15,2,-33,21,0,-4,0,2
49985482017,-16,-23,-1,-32,-3,1,-8,0
49985482017,11,5,15,22,-1,-4,2,-2
49985488822,20,-12,-64,-8,0,-1,-2,1
49985488822,-17,1,63,-2,0,0,9,-1
49985504536,-65,-11,-23,-9,-6,-3,-14,-8
49985504536,25,-7,76,58,14,3,10,7
49985511403,9,-2,-26,-88,-15,-5,-2,-7
49985511403,-12,-14,33,43,-14,0,6,6
49985527763,-61,13,11,3,5,0,-8,-8
49985527763,30,15,14,13,5,0,-3,-3
49985529193,-13,1,-15,24,3,2,0,1
49985529193,1,-1,-40,-35,-2,-3,14,-3
49985541324,26,-1,-34,21,-4,-3,-12,0
49985541324,-10,-9,-40,-22,-2,0,0,-11
49985550217,12,11,17,57,7,1,15,7
49985550217,-34,-24,-93,-52,-11,-6,-9,-4
49985564470,29,7,-16,53,3,0,-5,0
49985564470,-1,10,26,5,0,3,2,1
49985571380,-4,-20,-50,-60,-11,-3,-1,-9
49985571380,-14,2,-6,2,3,2,-4,2
49985587713,-6,0,41,56,12,-1,1,-1
49985587713,2,-3,39,-36,-5,2,-6,1
49985589175,-9,-3,7,30,-3,-1,6,2
49985589175,2,11,66,4,5,3,1,-2
49985601246,-33,9,37,14,3,1,-4,-1
49985601246,14,7,-8,58,9,2,-2,-2
49985610161,-34,0,22,-79,-20,-5,-11,1
49985610161,-15,-3,-16,-1,5,-2,-1,-16
49985624510,-21,6,12,19,1,1,5,12
49985624510,-17,-10,-45,-18,-3,-5,-3,-3
49985631441,-14,-1,37,47,7,1,-10,-13
49985631441,-2,-5,20,-4,-3,1,4,16
49985647792,58,28,12,16,12,4,4,2
49985647792,13,-2,-6,-69,-22,-9,-2,-2
49985649128,16,14,57,46,8,-1,7,6
49985649128,4,-12,-70,-40,-13,-6,-9,-9
49985661358,60,12,22,48,7,1,-4,-4
49985661358,-1,-11,-45,-9,-2,-1,2,-6
49985670210,35,2,14,38,-1,0,-4,0
49985670210,9,-11,-5,-49,-4,0,0,0
49985684564,46,3,8,-8,-1,0,3,0
49985684564,-55,-17,-40,40,11,0,3,2
49985691294,-12,-20,-16,-93,-14,-5,-13,-7
49985691294,30,-7,-18,29,5,-1,2,13
49985715291,-88,-15,-11,-13,-12,-6,-6,-5
49985715291,28,-1,19,22,12,6,0,-4
49985716637,-18,0,-10,30,3,1,-5,-8
49985716637,-20,19,-54,-34,-5,-5,8,12
49985729508,-2,-33,58,-51,-3,1,-3,-4
49985729508,2,1,-15,2,-3,-4,-4,2
49985730174,-2,-5,-25,26,10,1,-3,-4
49985730174,11,-3,44,40,-2,0,0,-3
49985745172,18,1,-14,-36,-10,-2,1,-1
49985745172,-29,0,-1,-30,-7,-3,-3,1
49985751239,38,10,32,21,3,0,2,3
49985751239,-12,-6,-33,23,10,-1,-7,-7
49985766949,9,2,-7,-77,-11,-3,-5,1
49985766949,9,15,40,27,-4,1,4,5
49985767690,3,-25,-36,9,0,-4,-6,-2
49985767690,23,7,67,-1,3,3,-5,-3
49985789482,-11,3,-21,18,2,-2,13,2
49985789482,4,-23,11,4,0,-1,4,-14
49985790177,29,8,-11,1,-2,1,5,14
49985790177,37,1,-13,23,6,-1,-3,-14
49985805169,69,8,-13,12,-2,0,-5,4
49985805169,-64,14,77,0,2,-1,-1,-1
49985811393,32,-25,-75,3,-2,1,2,3
49985811393,-31,-16,-58,-84,-14,-5,-5,-9
49985826388,-5,7,-7,-11,4,-1,-5,-1
49985826388,1,7,-7,21,-1,-1,2,3
49985833874,-6,7,13,17,-1,-4,-3,-6
49985833874,-2,8,6,14,7,4,-3,5
49985849504,-2,-23,6,-19,-5,-3,-12,-11
49985849504,-27,-8,-42,20,5,2,4,7
49985850140,6,10,71,64,13,4,-1,-7
49985850140,94,3,-22,-11,-9,-2,-6,7
49985865184,-46,-5,52,-5,-12,-9,-1,-8
49985865184,-2,17,27,7,5,3,-4,-13
49985871234,-24,3,3,-33,-8,-3,-2,9
49985871234,-6,-5,9,46,9,3,0,-3
49985886379,-2,-16,-10,33,8,2,2,-1
49985886379,46,12,-28,-28,-10,-4,-1,2
49985893871,-5,17,32,-13,0,-1,2,-2
49985893871,-42,-13,-54,1,-2,2,2,-3
49985909560,12,2,-44,-22,-9,-7,-10,-10
49985909560,47,-1,44,35,1,-1,0,11
49985910122,32,5,-124,-55,-8,-2,0,-2
49985910122,3,-10,86,6,-7,-5,7,2
49985925169,-22,-14,27,33,8,4,3,6
49985925169,72,12,-11,-26,5,1,-3,-8
49985931252,4,21,12,56,-2,-2,-1,3
49985931252,-7,6,-54,-38,-12,-2,-3,-4
49985946389,7,-22,-56,5,5,3,5,-10
49985946389,12,25,77,28,7,-2,2,16
49985953895,-24,-14,50,-18,-9,-1,-5,-6
49985953895,-71,-2,-5,-8,1,-1,10,-3
49985969443,32,21,19,5,1,-2,0,0
49985969443,0,-17,-4,25,-2,0,0,0
49985970213,-65,-16,4,42,9,3,1,-3
49985970213,-30,2,60,-29,-8,-2,-5,-6
49985985192,-16,1,-17,20,3,-2,-4,-11
49985985192,14,11,8,23,4,-1,-2,2
49985991270,-23,-1,-22,23,0,-2,2,-7
49985991270,12,4,16,-12,-4,-5,-10,2
49986006401,-11,21,-7,-12,4,1,1,-16
49986006401,-36,-17,13,-23,-15,-4,5,5
49986013892,64,-9,-55,-2,6,3,-2,7
49986013892,-13,6,29,37,-4,-3,9,-3
49986029545,9,33,33,-48,-6,-1,-5,8
49986029545,-14,-13,-57,-3,1,-1,-4,-6
49986030181,3,7,28,-33,-3,-1,-7,-6
49986030181,43,8,-4,21,9,1,17,24
49986045187,-27,-18,0,36,-2,-1,-1,8
49986045187,-47,-5,-6,-40,-13,-5,-6,-11
49986051396,-4,2,12,-35,-7,-4,-1,2
49986051396,16,4,-35,22,5,2,-4,-27
49986066224,-4,-7,30,16,2,-1,0,7
49986066224,2,-11,-49,8,-1,0,1,4
49986073910,-2,12,-9,-36,-9,-3,-3,-3
49986073910,-40,-48,-71,21,3,-1,3,-1
49986089499,-46,9,55,-21,-5,-2,-12,2
49986089499,9,-3,24,12,3,-1,-3,-7
49986090136,37,9,-15,-15,-10,-1,0,5
49986090136,-12,12,15,-12,4,1,-6,-1
49986105153,23,3,-9,17,-1,-1,0,3
49986105153,-32,-23,-28,-1,5,4,-7,-4
49986111304,-47,-9,-2,4,6,1,13,11
49986111304,58,12,86,52,-4,-4,-4,-2
49986126375,-13,-20,16,-90,-14,-2,-5,-8
49986126375,26,17,77,34,2,-2,-3,15
49986133660,6,1,11,-5,9,2,-1,-6
49986133660,-77,-44,62,-26,-9,-5,-9,-2
49986149489,9,12,-42,1,-3,-5,1,1
49986149489,-7,-7,-9,4,-2,0,1,-9
49986150174,-8,12,50,9,2,3,8,-3
49986150174,31,11,-100,-47,-3,-2,-15,3
49986165619,-11,-8,-39,28,3,0,5,3
49986165619,-35,-1,-28,-20,-11,-4,-3,-5
49986171297,2,-2,-3,-13,1,-1,-9,0
49986171297,20,8,31,28,5,4,5,-2
49986186449,-29,-9,31,-34,-1,1,1,2
49986186449,-5,-5,-24,33,6,-1,7,5
49986193909,0,-6,-19,-7,-5,-5,3,-1
49986193909,-4,1,-2,-15,-2,-1,-1,3
49986209596,-69,-16,53,62,8,1,1,4
49986209596,-7,-4,-42,-98,-13,-3,-7,-10
49986210130,70,17,33,14,-6,-7,-7,-1
49986210130,-12,-15,40,-29,-4,-2,0,-1
49986225165,33,8,-8,26,1,0,7,-6
49986225165,8,0,3,37,4,-1,1,3
49986231290,-77,-18,-25,-9,2,0,2,-12
49986231290,76,29,13,36,6,1,-8,3
49986246367,46,-4,28,0,1,0,-10,-2
49986246367,26,-7,-36,23,6,3,22,5
49986253787,12,-4,30,-78,-13,-5,-3,-2
49986253787,-19,5,-3,-60,-11,-5,-3,-2
49986269501,-1,-5,-29,-21,-3,0,-2,-1
49986269501,17,11,46,22,4,1,-3,0
49986270174,4,-3,-61,21,1,-1,-4,2
49986270174,-8,8,-33,-1,3,1,4,-4
49986285160,58,0,-64,-11,-9,-5,-10,-4
49986285160,11,17,18,44,5,0,-8,-6
49986291360,-12,-8,20,-59,-7,-3,0,1
49986291360,-40,-27,10,-25,-1,2,9,1
49986306311,-6,3,-36,-17,1,0,6,-4
49986306311,-34,0,10,2,-5,-5,-10,-5
49986313797,-2,1,5,35,4,1,0,2
49986313797,-6,4,-24,22,6,1,1,-8
49986329471,44,4,3,54,-3,-2,-4,4
49986329471,23,-5,42,-70,-8,0,13,12
49986330199,10,-15,-57,-24,-5,-2,-5,2
49986330199,-27,9,-13,15,0,-1,-1,-7
49986345202,1,-1,-18,53,14,2,0,1
49986345202,28,4,20,-38,-7,0,-3,-2
49986351294,-29,2,47,30,4,0,1,1
49986351294,7,8,33,6,0,-1,-1,4
49986366323,-76,-7,-44,-64,-7,-3,8,-23
49986366323,-42,-24,-39,-7,-11,-6,-12,-4
49986373731,-18,-5,34,25,7,3,1,-5
49986373731,7,1,-58,1,6,0,-3,1
49986389345,12,-11,-11,-6,-6,1,-8,1
49986389345,72,20,-7,-33,-6,-3,10,-1
49986390201,-22,-5,-50,23,-1,-2,-4,-6
49986390201,-18,0,18,50,6,1,-2,-4
49986405148,20,-27,17,4,0,-2,-5,4
49986405148,1,2,-36,-75,0,1,-4,-5
49986411285,14,-1,34,14,-4,-2,3,2
49986411285,-3,4,14,6,1,-1,-1,2
49986426384,-7,2,-71,-20,-1,2,1,4
49986426384,-52,-2,24,55,4,-1,-3,-2
49986433835,26,-8,-12,5,-5,-2,-3,1
49986433835,-4,-11,-18,-64,-11,0,-3,5
49986449522,53,-7,28,9,3,-1,0,-6
49986449522,-1,-32,6,40,7,2,-4,-2
49986450145,45,12,-14,14,0,0,-4,8
49986450145,16,6,12,-60,-7,-2,9,0
49986465150,6,5,19,-12,-10,-5,-10,5
49986465150,12,3,23,27,11,2,1,-1
49986471332,12,23,45,16,3,2,-6,-8
49986471332,38,-16,-77,0,2,0,-2,-2
49986486269,-65,-1,47,-2,-3,-3,8,2
49986486269,14,11,7,-15,-2,0,2,-6
49986493750,-68,-13,1,51,6,2,-6,2
49986493750,43,1,25,20,-9,-1,-4,3
49986509445,-29,-5,-18,-91,-11,0,6,-1
49986509445,21,13,-26,49,2,-1,-9,1
49986510120,-22,-7,-37,-20,-8,-4,0,4
49986510120,-15,-5,41,92,8,1,-1,-1
49986525198,-13,-16,11,10,0,-1,3,-1
49986525198,9,16,41,-47,-5,-1,1,3
49986531215,31,-8,-49,-52,-6,-3,-8,-10
49986531215,-74,-14,-60,27,-1,-2,-2,-2
49986546323,36,1,13,-40,0,2,-9,8
49986546323,-56,-9,-9,-32,1,0,2,-9
49986553795,60,-3,1,-6,-5,-6,-2,-3
49986553795,-14,12,71,3,-8,-4,-8,-2
49986569468,9,2,-66,39,3,1,6,1
49986569468,-34,-8,12,18,4,0,-1,5
49986570183,-72,-8,1,-22,0,1,3,-7
49986570183,66,7,47,14,3,2,4,2
49986583889,-12,2,-13,9,-1,-5,0,-1
49986583889,27,-4,-9,-1,-3,-1,-3,-3
49986591407,38,-8,-25,25,0,-1,1,1
49986591407,-12,9,0,-37,-3,0,-6,-7
49986606286,-22,8,38,40,5,3,5,-5
49986606286,1,-8,-37,-71,-16,-4,1,0
49986613847,-39,3,6,-19,2,0,3,-3
49986613847,23,-7,-36,1,-9,-5,-17,2
49986629499,18,10,42,-3,5,-1,10,-11
49986629499,-75,-3,10,45,0,-3,-6,7
49986630111,10,12,-1,-27,-8,-3,-2,-8
49986630111,10,-9,-19,0,7,1,0,0
49986643850,-12,3,24,9,0,2,-1,4
49986643850,-63,-13,-28,11,2,-1,-4,-12
49986651329,14,-7,-12,-3,-1,1,6,13
49986651329,0,3,41,57,12,1,-7,-7
49986666375,-1,7,-61,-14,-14,-5,2,5
49986666375,31,6,18,30,4,2,0,-9
49986673838,30,5,62,22,2,-1,-2,1
49986673838,-23,1,-37,-23,-4,-2,6,1
49986689539,2,23,-48,41,7,-2,-5,-4
49986689539,27,2,17,-55,-7,0,-10,5
49986690118,-23,-3,-32,-2,1,-4,-4,-10
49986690118,23,-1,-17,20,0,-2,6,1
49986703871,-21,-28,-78,-55,-6,-4,-7,-2
49986703871,29,1,25,-2,-2,1,7,7
49986711371,29,1,35,17,3,0,2,4
49986711371,-57,-4,3,-30,-5,-4,-4,-4
49986726360,10,-5,1,58,10,1,-1,3
49986726360,-23,-22,-42,-108,-12,-4,-2,-9
49986733860,10,4,10,31,4,2,3,3
49986733860,-71,-20,68,10,1,0,-5,-7
49986749482,26,32,31,32,1,0,0,-1
49986749482,32,-17,6,49,15,5,5,3
49986750153,-22,9,12,-82,-22,-3,-3,-1
49986750153,-39,-10,-20,-33,-7,-4,-10,-3
49986763788,7,0,62,21,7,3,1,-4
49986763788,-73,12,-8,46,6,0,-2,-4
49986771274,-10,-10,-18,12,-2,-4,-10,11
49986771274,8,-7,4,2,3,3,8,-1
49986786430,-15,-17,6,1,-2,-3,-5,-4
49986786430,102,16,53,41,2,-1,3,0
49986793822,-59,-19,-37,-52,-11,-3,1,-18
49986793822,25,11,-12,-28,-4,-3,6,5
49986808847,13,4,15,9,0,-2,-4,-2
49986808847,10,15,-13,4,-2,-3,-2,0
49986825177,-10,-23,20,27,13,7,4,2
49986825177,33,8,-5,17,-7,-4,1,1
49986826641,-28,-7,-29,-26,-8,-3,-7,5
49986826641,12,17,-12,-22,-8,-5,-6,-5
49986831368,18,11,-8,-30,6,1,4,-1
49986831368,33,6,-19,-1,-3,-2,-1,-5
49986846362,-43,-14,15,43,8,2,7,15
49986846362,15,-12,-6,-79,-27,-5,-5,-6
49986853830,23,15,47,31,4,-1,0,0
49986853830,-7,-7,6,6,6,2,-4,6
49986868888,24,12,41,-1,-1,0,-4,-8
49986868888,-12,3,17,42,10,1,5,1
49986877021,-12,-3,-25,18,-10,-3,-7,-5
49986877021,9,9,-14,-58,-6,-2,5,-1
49986883808,13,3,-3,-9,-5,-1,-2,-2
49986883808,-4,-11,-44,6,3,0,-4,2
49986891310,31,-3,12,25,3,1,1,2
49986891310,-2,8,13,34,4,0,3,-2
49986906358,-33,-3,-15,-32,-1,1,-1,-2
49986906358,0,-5,29,14,-4,-4,-4,-7
49986913854,-21,2,-41,-21,-7,-3,1,0
49986913854,19,-14,-35,-50,-8,-4,-6,-3
49986928815,78,15,23,-38,-8,-2,1,4
49986928815,43,8,13,45,5,0,3,0
49986936954,10,-1,19,23,3,1,-13,-11
49986936954,-14,-9,-24,-4,1,2,-5,3
49986951982,-25,-9,46,3,1,1,12,0
49986951982,-13,15,4,13,1,0,-7,-11
49986952679,7,8,43,47,9,0,2,-2
49986952679,20,-7,-23,-85,-16,-5,11,-2
49986966165,14,7,58,46,7,1,-10,-2
49986966165,-45,-26,-20,-13,0,0,4,8
49986973698,-29,-15,-30,-17,-3,-4,-2,-12
49986973698,-8,16,62,58,6,1,3,4
49986988846,-13,-1,19,-27,1,2,5,4
49986988846,-12,-23,-5,-2,-13,-8,-3,-4
49986996977,-4,3,37,-7,7,3,2,8
49986996977,26,5,-24,-29,-5,-1,4,-1
49987012007,-2,7,-33,0,-2,-5,-5,-6
49987012007,63,10,-17,29,4,4,1,5
49987012621,-62,1,-33,-14,-11,-4,-1,-3
49987012621,6,-2,-2,-22,-3,-1,0,-1
49987026307,8,11,27,-6,2,-2,0,-3
49987026307,-22,4,-5,43,0,0,-2,0
49987033734,34,-6,-34,-40,-6,-1,6,-5
49987033734,-22,2,4,40,9,4,1,4
49987048798,1,1,5,-16,-6,-3,0,1
49987048798,47,3,52,-5,0,0,-6,3
49987056978,0,8,36,19,3,2,-2,9
49987056978,-63,1,-25,-23,-8,-1,0,-2
49987072024,9,-7,5,0,-2,-3,3,4
49987072024,-8,6,-11,-10,2,0,0,-3
49987072684,94,16,0,11,4,1,-2,9
49987072684,2,-14,17,6,2,-2,6,1
49987086349,44,-5,3,15,1,1,-12,8
49987086349,-47,-7,-8,-16,0,1,-4,-5
49987093813,-14,-9,-10,9,5,-1,12,9
49987093813,-1,-8,-17,5,-11,-6,-7,-13
49987108742,25,6,-64,-32,-6,-2,3,-11
49987108742,2,3,23,-2,2,-1,-2,8
49987117093,-14,14,4,9,3,-1,-6,-7
49987117093,34,-7,2,41,4,1,-4,-2
49987131799,-58,-23,-16,-19,-12,-5,-1,7
49987131799,51,0,-90,-21,1,-2,-1,-4
49987132733,-18,-10,22,15,1,-1,0,-12
49987132733,3,-2,-38,4,5,-1,2,7
49987146264,-8,-13,48,-22,-4,-1,-3,-4
49987146264,3,1,17,1,0,0,-1,0
49987153790,-11,-18,-21,-41,-9,-2,2,0
49987153790,15,9,-16,48,5,0,-3,-1
49987168837,22,22,11,30,7,1,0,4
49987168837,-48,-39,-47,-59,-22,-10,0,0
49987177021,-25,6,60,41,0,-2,-2,-1
49987177021,-6,14,-2,8,2,0,-5,-1
49987192004,24,-30,4,70,13,5,8,1
49987192004,-15,26,38,-4,6,2,-10,-15
49987192672,58,-1,-24,-9,-6,-3,-4,4
49987192672,-8,-2,11,-14,-3,-2,3,-3
49987206189,-19,7,-13,19,1,-1,-4,1
49987206189,-16,-14,-38,-75,-5,1,-4,2
49987213816,-2,4,13,26,3,-4,-4,0
49987213816,25,-2,7,-45,-8,0,-1,-2
49987228686,-42,-5,9,-32,-7,-3,-6,-8
49987228686,-22,-15,5,27,1,-2,5,-8
49987236982,-8,-2,20,-2,1,-4,-5,-2
49987236982,-50,-31,71,70,18,7,8,11
49987252100,21,-3,59,-69,-14,-4,0,-2
49987252100,-17,14,10,25,-2,0,8,2
49987252628,65,-10,-37,-9,0,4,-16,1
49987252628,9,8,67,7,-4,-2,13,9
49987266227,-67,-9,-115,-9,-3,-4,-2,-16
49987266227,3,-12,-33,-7,0,-3,-4,5
49987273618,-21,2,-23,-8,-1,-1,4,5
49987273618,-41,-1,-1,25,6,4,-5,-5
49987288743,14,9,22,-45,-10,-5,-2,-2
49987288743,16,22,47,-36,0,-1,-5,3
49987297011,-46,-17,-58,10,3,2,3,-4
49987297011,77,-3,15,-68,-15,-5,-9,-4
49987311942,-33,-2,-15,47,8,1,4,1
49987311942,19,-3,58,42,7,3,0,0
49987312672,22,5,-31,-9,-7,-1,3,0
49987312672,-15,13,-15,8,-1,-3,-10,1
49987326291,71,6,19,5,-1,-1,1,13
49987326291,-5,4,4,28,2,-1,4,4
49987333653,48,14,45,-27,-8,-3,1,5
49987333653,-10,0,-19,25,8,1,-3,-2
49987348709,-5,-6,11,-48,-15,-6,-8,-9
49987348709,-2,-1,-29,15,8,1,-3,-9
49987357021,64,7,-4,8,0,-2,3,3
49987357021,-9,15,55,45,6,-1,-11,-16
49987371902,-41,-24,24,23,2,1,12,0
49987371902,6,-9,-17,21,2,1,-6,2
49987372673,-65,-16,9,-28,-7,-4,4,-7
49987372673,41,24,9,-31,-6,-3,-3,-3
49987386247,10,5,-46,18,9,3,-3,-6
49987386247,-8,3,21,9,-5,-3,3,3
49987393684,-58,-23,44,-8,1,1,-2,-6
49987393684,15,-11,-24,-12,-8,-3,-4,11
49987408627,100,22,34,16,-3,-2,2,-6
49987408627,-12,-13,-52,-50,-6,-2,3,1
49987416864,-18,12,10,32,6,0,-4,0
49987416864,-1,-8,8,-32,-2,2,5,-5
49987431878,16,-17,18,34,2,-1,0,1
49987431878,-50,-6,2,-8,6,3,10,7
49987432658,7,0,14,32,4,2,3,-6
49987432658,-3,-13,-48,2,-7,-4,-19,-3
49987446214,-53,-2,-58,-19,-6,-4,1,0
49987446214,16,1,61,-18,5,4,3,0
49987453656,-21,-6,24,19,-1,-2,2,9
49987453656,1,16,-24,-50,-3,-1,9,-9
49987468778,14,-20,10,23,3,0,-15,-10
49987468778,92,13,1,44,5,1,-4,-2
49987476938,-58,3,-13,-12,-5,-3,-3,-5
49987476938,-6,-3,13,13,0,-1,4,2
49987491908,22,9,-13,-23,3,2,0,6
49987491908,1,16,30,0,-3,0,-2,-1
49987492695,32,-6,16,36,9,3,-2,-15
49987492695,-37,-15,-48,27,-5,-5,3,10
49987506209,-34,6,-15,-60,-7,-3,-12,-7
49987506209,-31,-1,-5,30,0,-2,9,9
49987513837,-6,-1,9,9,-3,-1,2,2
49987513837,7,7,-6,19,6,-1,-3,-4
49987528782,-39,-2,-8,7,-2,0,2,-4
49987528782,15,-15,-37,0,-5,-4,-18,0
49987536860,10,0,-55,-38,-6,-4,-8,-2
49987536860,8,-20,7,11,3,2,14,-13
49987552000,47,21,9,16,8,1,5,24
49987552000,37,2,26,9,-11,-4,-6,-10
49987552683,-8,12,14,-84,-16,0,5,12
49987552683,-11,-25,-2,-13,-4,-3,-7,-3
49987566332,14,-3,-50,-29,-7,-2,0,-9
49987566332,-44,16,68,26,8,0,-1,2
49987573803,9,-8,-38,5,4,-1,-1,-4
49987573803,14,1,-39,-15,2,2,3,1
49987588781,4,1,49,74,15,3,11,7
49987588781,4,-12,12,-69,-36,-11,-6,-3
49987597044,24,7,-1,-2,0,-2,-2,-4
49987597044,-16,5,42,27,-1,-4,3,-10
49987612011,10,-6,-39,30,6,1,-13,-2
49987612011,18,11,11,9,6,3,-1,-3
49987612675,-10,7,8,-35,-7,-4,2,1
49987612675,11,-4,-50,-4,-1,0,-6,3
49987626352,-46,-5,5,4,-5,-2,12,9
49987626352,68,12,46,46,10,4,10,5
49987633846,-13,-9,-45,-7,3,3,-6,-8
49987633846,-4,0,-11,-42,-7,-3,13,12
49987657571,32,3,8,17,-3,1,3,-9
49987657571,-30,-11,-14,-8,0,-4,-15,-7
49987658409,52,6,8,40,6,0,5,5
49987658409,-48,-16,-72,-24,-9,-5,-9,0
49987671852,5,14,-26,-34,-9,-2,-3,5
49987671852,30,-8,-58,-26,-2,-2,3,-4
49987672721,55,5,56,-5,4,1,3,7
49987672721,-83,-11,-26,7,3,-1,-11,-22
49987686286,-25,-6,-3,14,-4,-4,-4,-8
49987686286,-25,-4,-17,-30,2,1,3,1
49987693743,42,11,-23,29,0,-3,-2,-4
49987693743,-38,-19,53,-12,-7,-2,1,4
49987708791,29,0,3,15,2,-2,-10,-3
49987708791,-32,-1,-9,11,2,-1,11,-3
49987717013,-24,-20,-42,-73,-11,-3,-2,-4
49987717013,43,23,77,62,11,5,1,-17
49987731320,0,9,-91,-42,-9,-6,-9,2
49987731320,37,29,80,-8,-3,0,-1,-10
49987739470,-53,-20,-52,-15,2,0,3,17
49987739470,99,16,61,56,-6,-1,-2,0
49987746182,-96,-6,10,14,4,-1,-12,-14
49987746182,-15,-8,-100,-16,-1,2,8,13
49987753846,13,4,24,19,0,-1,17,-13
49987753846,-19,-3,28,10,6,0,-17,8
49987768726,17,-8,24,-20,7,7,5,1
49987768726,-26,-23,50,-29,-24,-7,-6,0
49987777003,-30,-7,-43,26,4,0,-8,-11
49987777003,1,6,-27,-1,0,-3,3,15
49987791338,30,-16,57,17,-2,0,9,-3
49987791338,-16,-5,-57,21,8,2,-1,-3
49987799459,-81,2,22,-66,-9,-3,-5,-4
49987799459,69,34,22,-6,-1,-2,-3,1
49987806320,44,14,22,-9,0,1,4,0
49987806320,-51,-15,4,22,1,-1,-1,0
49987813825,0,5,15,15,0,-2,-4,2
49987813825,-44,-23,59,-5,3,2,2,-5
49987828696,-33,-16,29,38,6,2,2,3
49987828696,55,-7,-35,-51,-3,-2,-2,0
49987836898,15,9,57,38,-1,-1,-13,-3
49987836898,-3,9,-62,-8,-2,-1,20,-5
49987851203,-56,-4,-71,-77,-11,-3,-8,-2
49987851203,24,-13,24,91,9,-1,-5,-2
49987859511,-9,-25,14,-63,-4,1,-3,-3
49987859511,43,14,-1,14,2,1,-5,14
49987866174,19,3,5,0,-1,-2,6,-6
49987866174,-74,-13,2,-6,3,-1,5,1
49987873850,19,22,13,56,-1,0,-3,1
49987873850,-34,2,3,-11,-1,-3,-11,-8
49987888765,35,10,-2,-14,-1,-1,2,3
49987888765,-31,11,35,-94,-15,-4,-6,3
49987896836,6,2,38,77,11,2,5,0
49987896836,24,0,-2,-113,-17,-2,-7,-3
49987911177,-49,5,-5,49,-1,-5,-13,21
49987911177,37,0,-1,54,11,5,7,9
49987919482,-44,3,-35,-38,-8,-7,-2,-1
49987919482,23,12,-21,46,3,-1,0,-3
49987934926,27,6,0,-51,-3,0,-2,-7
49987934926,19,11,41,62,8,2,-11,-16
49987935510,-7,-23,-70,-15,-2,1,18,18
49987935510,-22,-10,33,-64,-20,-6,-3,-1
49987948812,34,12,50,-21,-2,1,2,-4
49987948812,31,19,-61,-5,4,1,0,-10
49987956986,-60,-17,122,52,14,-1,-4,-4
49987956986,-44,2,10,19,0,-3,-2,-5
49987971235,24,-3,17,8,-1,0,1,-9
49987971235,-39,15,-7,-22,-6,-2,6,11
49987979412,44,14,-18,26,3,2,1,2
49987979412,38,6,-33,-41,-4,-1,10,-1
49987994490,-50,-6,-19,25,6,-2,-15,-7
49987994490,-30,-12,-15,-4,-14,-3,5,10
49987995011,-50,-2,-92,-48,-5,-3,-15,-9
49987995011,22,-22,-34,11,14,5,7,1
49988008620,5,12,79,6,-3,-3,2,-1
49988008620,26,-12,-9,11,4,-3,-3,-16
49988016777,27,1,-6,17,-3,2,10,16
49988016777,19,3,-5,-8,1,-1,-8,3
49988031170,48,13,-21,3,-1,1,-1,-7
49988031170,22,-9,26,0,3,4,-1,8
49988039451,-22,9,22,-52,-17,-6,-8,-12
49988039451,-30,-11,26,45,10,1,4,13
49988062559,-12,-21,25,10,1,-1,3,-3
49988062559,28,4,36,34,6,1,-5,-3
49988063308,23,-6,-24,-47,-18,-5,0,-10
49988063308,9,3,47,41,5,1,-7,4
49988068694,-110,1,9,13,2,1,0,-2
49988068694,-29,-58,-83,-41,-9,-8,-4,2
49988076787,-3,14,71,29,13,2,2,4
49988076787,-54,-32,-128,-35,-7,-1,-5,-7
49988099264,6,3,76,42,1,-1,-5,-6
49988099264,-25,6,11,-34,1,1,0,-1
49988106779,-23,-2,36,-35,-5,-1,0,39
49988106779,-34,17,41,13,-7,-1,-5,-8
49988114444,19,-35,-128,-16,4,0,-1,2
49988114444,1,26,15,-22,-13,-3,3,-5
49988115078,84,4,-13,16,7,1,-10,-16
49988115078,-10,-11,-31,-35,-5,-2,4,6
49988128773,6,0,29,17,0,2,5,12
49988128773,-45,21,7,13,4,1,-1,-8
49988137462,26,10,-11,26,8,1,-2,-9
49988137462,17,2,113,-5,1,3,3,4
49988151239,56,-28,-102,-48,-17,-7,0,-6
49988151239,24,24,86,-6,-4,-4,-7,3
49988159298,1,-22,19,-9,-12,-6,-6,-10
49988159298,-21,3,-7,-14,4,0,-2,-4
49988174452,-25,-4,3,-76,-16,-4,11,1
49988174452,-12,10,-8,72,18,3,-1,3
49988175047,29,-11,-58,-19,-11,-2,-3,-6
49988175047,17,-8,-4,48,4,0,7,-5
49988188773,4,4,44,17,0,3,-2,6
49988188773,-13,-13,-80,-25,2,1,-4,-8
49988196848,9,-4,45,20,-1,-3,10,-10
49988196848,-55,-16,-78,-30,-4,-1,-25,-11
49988211099,-20,3,4,-39,0,-2,7,23
49988211099,43,4,22,44,1,-5,5,3
49988219443,10,17,-22,6,15,3,-6,-12
49988219443,-11,25,30,20,-22,-6,-3,-5
49988234342,29,-9,-24,-2,6,-2,-6,-11
49988234342,-61,-32,-88,7,-3,0,-1,-2
49988235317,32,0,26,3,-5,0,2,9
49988235317,13,-2,-80,-16,-12,-4,-1,8
49988248621,7,9,38,21,6,0,5,-7
49988248621,-32,-7,-40,-29,-3,-6,-4,-8
49988256768,7,12,15,14,8,3,1,0
49988256768,-6,-7,29,15,10,1,5,1
49988271162,-39,-6,25,20,-12,-2,-14,-6
49988271162,24,-6,-72,-75,11,0,1,1
49988279265,28,31,37,-39,-40,-6,1,-2
49988279265,38,18,55,21,13,-1,-6,13
49988294249,-45,-21,-65,41,6,-1,-2,0
49988294249,67,19,25,-5,-3,2,7,0
49988294999,-42,-44,-12,-51,2,3,-1,14
49988294999,49,12,32,62,10,6,4,-7
49988308634,66,-4,-21,-46,-11,-8,0,-6
49988308634,5,9,27,56,-8,-1,-4,1
49988316781,-45,4,23,14,1,-4,6,4
49988316781,-8,-28,-22,-64,-5,-1,-2,21
49988331232,27,-1,-39,19,13,5,5,-18
49988331232,24,0,75,-34,6,1,-3,-3
49988339306,19,-9,-83,40,-20,-6,-10,-9
49988339306,-44,-2,-16,-15,6,-1,7,-10
49988354326,34,17,-8,5,-1,-3,-10,20
49988354326,-9,9,75,28,7,4,5,10
49988355238,-61,21,73,36,19,2,-1,-8
49988355238,36,-8,-106,-51,-25,-5,0,-6
49988368536,-38,-15,71,25,-13,-7,-3,6
49988368536,9,26,53,17,8,1,-2,-7
49988376905,-60,-25,-55,-6,2,-2,2,-1
49988376905,18,13,38,14,13,3,-1,-2
49988391098,-19,2,31,50,4,3,3,-4
49988391098,59,-16,35,9,-10,-6,-1,6
49988399405,31,12,34,26,17,4,0,-5
49988399405,16,2,-8,-27,-4,-4,0,-6
49988414447,34,9,22,-80,-5,4,0,-2
49988414447,1,11,-13,23,2,2,13,4
49988415076,25,-14,-14,-3,-8,-4,-4,1
49988415076,19,5,22,18,14,0,0,-5
49988428762,-35,3,14,-90,-39,-8,-2,3
49988428762,9,-19,-52,30,14,-1,-6,-7
49988436991,-83,-8,-33,-29,-21,-6,-5,1
49988436991,-24,-11,31,27,8,1,2,1
49988451090,68,37,67,34,11,5,1,-3
49988451090,-59,-18,-79,-47,-13,-2,-5,-3
49988459396,6,20,35,29,7,3,2,-2
49988459396,99,1,31,12,0,-1,0,11
49988474244,-45,-19,-106,25,7,1,0,-5
49988474244,-81,-25,-13,-50,-24,-4,-6,-13
49988475016,44,18,-2,33,17,2,0,2
49988475016,-34,1,41,-1,-4,2,-1,0
49988488684,-54,-23,-65,-62,5,-7,-2,-2
49988488684,0,-11,66,10,-27,-3,-5,0
49988496724,35,-6,-9,-13,7,0,-2,-2
49988496724,-113,-14,32,60,10,3,6,5
49988511097,-16,0,-41,4,-2,0,-3,-13
49988511097,-29,11,63,1,1,1,-2,-2
49988520038,14,-25,-17,11,-4,0,0,1
49988520038,110,22,-18,12,2,-1,-3,-3
49988533663,-86,3,10,28,5,-4,-8,-12
49988533663,-19,-19,-84,4,4,6,5,2
49988542579,15,-16,-9,-96,-21,-11,-9,0
49988542579,30,0,-23,10,1,-4,2,1
49988548596,19,3,11,9,-1,1,-4,4
49988548596,55,24,16,9,13,2,0,2
49988557648,-40,-15,-41,81,5,1,2,-4
49988557648,-34,14,42,-53,-13,-1,-3,2
49988571131,82,7,80,18,2,1,3,4
49988571131,-25,-21,-51,-79,-15,-5,-3,-4
49988580027,76,21,41,14,9,5,5,6
49988580027,63,-35,29,7,-14,-8,-5,-4
49988593635,25,11,29,8,5,-1,-1,-6
49988593635,15,-8,15,53,8,2,2,0
49988602593,16,26,19,13,8,1,-1,1
49988602593,4,3,-128,-84,-28,-7,-2,-9
49988608781,-24,-8,28,-26,0,0,2,-1
49988608781,-5,-15,-19,-24,-7,-7,-5,3
49988617606,-23,7,16,24,6,1,-1,-3
49988617606,-21,-11,-4,41,12,4,0,-3
49988631059,76,8,-58,55,14,2,3,1
49988631059,-27,14,-7,-2,-21,-7,-3,-2
49988640067,-67,-38,68,-27,1,1,5,7
49988640067,-52,10,37,0,-3,0,-4,-19
49988662542,-3,-6,18,29,-1,-2,-1,2
49988662542,13,2,-78,9,-2,-1,-2,-1
49988664060,-15,-11,-49,-89,-7,-3,-1,-6
49988664060,12,0,20,14,6,0,-3,3
49988668666,-32,-2,-13,6,0,2,2,3
49988668666,100,16,52,38,20,9,5,11
49988677621,-12,-4,-27,5,-11,-8,-7,-9
49988677621,19,7,-26,-51,-7,-3,0,0
49988691227,50,11,8,-11,0,0,0,-1
49988691227,34,24,22,-54,8,-4,0,-1
49988700071,6,-14,19,46,-2,0,0,4
49988700071,24,-5,-50,22,8,1,-1,-2
49988713661,-126,0,48,20,-12,-1,0,0
49988713661,-17,-24,-72,-19,-1,-2,-5,-5
49988722582,17,-2,22,24,9,1,-2,-2
49988722582,-43,-11,2,0,-5,2,2,2
49988728510,11,4,13,-16,6,1,1,4
49988728510,-23,-3,36,49,2,1,0,-2
49988737582,-4,-9,-69,-43,-18,-4,-2,-4
49988737582,-75,0,3,0,-2,-2,-1,-2
49988751107,-8,-9,-33,-19,2,0,1,2
49988751107,-32,-7,41,32,0,-1,-1,-3
49988766097,8,28,31,32,18,3,1,0
49988766097,88,-19,-66,-28,-14,-3,0,4
49988773535,-84,-39,-14,-22,-16,-8,-5,-5
49988773535,3,2,67,75,13,4,1,0
49988782622,19,14,-52,-89,-11,0,-1,0
49988782622,-33,-15,22,2,3,0,0,2
49988788717,-32,9,51,23,4,0,-3,1
49988788717,26,-3,-53,-3,-12,-4,-2,0
49988797809,28,1,17,15,5,-1,1,2
49988797809,-101,-3,-68,2,12,5,2,0
49988811190,65,29,67,25,2,0,-1,-1
49988811190,18,7,16,-45,3,1,0,-2
49988820063,4,14,39,36,1,0,-2,2
49988820063,4,-6,21,19,-6,-2,0,2
49988833666,29,-4,23,-12,12,6,2,0
49988833666,4,-14,-89,-24,3,-4,-7,-4
49988842736,-12,4,37,19,-12,1,1,-2
49988842736,31,6,-15,15,1,-5,-5,-2
49988857417,47,5,-8,13,-4,0,2,2
49988857417,-22,10,29,-24,5,-1,-1,-6
49988859142,-52,-26,-64,8,1,-4,-5,-3
49988859142,-28,8,47,9,-3,-3,-4,-5
49988871522,28,-4,-29,-66,-10,-4,1,-1
49988871522,-3,-9,25,26,-4,0,0,2
49988880070,30,-6,-25,-32,-14,-5,-3,-3
49988880070,0,25,-7,36,5,-1,-1,-5
49988893637,-22,-25,38,13,11,5,2,5
49988893637,-8,-10,17,-42,-8,0,0,-1
49988902645,-16,-1,-58,29,5,1,1,0
49988902645,10,7,52,-8,8,0,0,-2
49988917673,5,4,-4,-2,-14,-4,0,-2
49988917673,-37,20,17,56,7,1,0,2
49988919051,-6,-12,37,-29,0,4,2,0
49988919051,19,14,13,-24,-2,-3,-2,1
49988931113,12,0,-14,33,2,-3,-2,-1
49988931113,-29,-13,11,-15,-9,1,-1,1
49988940069,-16,18,75,-21,-1,-2,-3,-9
49988940069,42,-6,-17,28,7,-1,-2,-1
49988953737,-6,-5,-52,-27,-11,-2,-2,-1
49988953737,76,-7,28,9,4,0,2,3
49988962647,-53,3,29,-10,-3,-1,-1,3
49988962647,-1,-6,-36,-21,0,0,1,-1
49988977474,38,10,27,46,7,0,0,-2
49988977474,-18,-10,-61,-20,-6,-3,1,-2
49988979015,30,4,-6,-26,-1,1,1,1
49988979015,-1,-6,75,17,-11,-6,-2,2
49988991285,3,-11,-36,-24,-1,-3,-1,1
49988991285,-64,-4,1,1,8,1,-2,-4
49989000041,-63,-29,19,65,18,1,1,0
49989000041,-27,0,18,-62,-19,-2,2,1
49989013559,-30,-5,-34,4,7,0,-2,-3
49989013559,55,1,-20,16,0,0,-3,-4
49989022639,90,5,-7,-14,-8,-3,-1,2
49989022639,-54,-12,-15,-1,1,1,0,-5
49989036484,-16,-9,-53,11,-5,-2,-1,0
49989036484,37,24,51,32,9,6,3,4
49989045143,20,-7,-61,-32,-8,-2,-4,-4
49989045143,55,-8,8,-1,0,-3,-4,-1
49989051217,-23,-17,-65,4,-10,-3,0,-3
49989051217,20,4,21,-15,3,-2,-1,1
49989059996,42,14,-5,56,5,1,1,1
49989059996,-48,-6,42,-27,-7,-1,-2,-1
49989073831,1,1,-2,-22,4,0,-1,-1
49989073831,-16,5,10,-10,-10,-4,-3,-3
49989082636,1,-9,0,22,3,0,-1,-1
49989082636,40,10,22,-13,8,6,1,1
49989097472,-35,-3,-39,10,1,-1,-1,-2
49989097472,-22,-14,20,-38,-19,-6,-2,-3
49989099070,15,16,48,30,6,0,-2,-1
49989099070,24,-20,-33,-33,2,-1,0,0
49989111266,28,11,28,48,-5,2,1,2
49989111266,-70,4,-89,-5,-6,-6,-5,-3
49989120069,3,-4,-46,-37,9,-2,0,-3
49989120069,28,1,73,26,-21,-6,-1,0
49989133841,9,12,-6,1,7,2,-1,-2
49989133841,68,6,-18,11,4,2,2,3
49989142549,-42,-13,-40,-6,-12,-4,-4,3
49989142549,-72,3,-51,-9,-1,-5,-7,-11
49989157544,-3,-19,30,15,2,-2,1,5
49989157544,20,-5,10,-8,-1,0,0,-1
49989159038,-1,9,100,-6,4,2,2,0
49989159038,14,-2,-3,31,1,-4,-3,0
49989171104,4,8,0,-5,1,1,-2,-3
49989171104,-25,1,25,10,10,4,3,-2
49989179995,5,6,-3,-60,-16,-5,-2,-4
49989179995,62,-2,-66,33,-1,-3,-2,0
49989193737,-20,-15,68,17,0,-5,-1,-3
49989193737,83,18,74,-10,-8,2,1,3
49989202617,22,2,-79,-1,-1,-3,-3,-9
49989202617,-16,3,11,-23,-3,-2,-2,-3
49989217622,22,2,-28,-34,6,1,-4,5
49989217622,-23,-6,94,27,-2,1,5,-18
49989219050,9,-1,-36,6,-6,-2,1,3
49989219050,5,7,-16,21,11,5,4,3
49989231241,-4,6,37,-6,6,-4,-2,-2
49989231241,-8,2,-49,-56,-19,-2,-3,2
49989240064,27,-11,9,36,8,-4,-3,-1
49989240064,-71,-11,-8,23,-4,-7,-2,-5
49989253673,-63,-19,-37,-14,-18,-3,-2,-2
49989253673,48,-3,22,-18,12,3,1,0
49989262624,-62,-16,9,-11,-5,2,1,0
49989262624,9,20,97,27,19,8,3,7
49989277403,-65,-34,51,-9,-12,-4,0,-4
49989277403,-27,-15,-86,-68,-4,-6,-5,-4
49989278988,4,7,-3,54,2,3,2,1
49989278988,0,-2,50,-80,-19,-6,-2,-3
49989291129,35,15,-35,23,15,0,0,-2
49989291129,-9,0,7,18,-26,-4,-2,2
49989300019,1,34,70,16,16,3,-1,0
49989300019,28,5,-14,10,-5,2,2,3
49989322513,14,-14,-79,-51,-21,-4,-4,-6
49989322513,-25,-4,39,19,10,0,-1,1
49989324053,-10,-5,-28,-4,12,2,2,2
49989324053,-50,-11,9,18,-22,-3,-1,-4
49989337421,95,13,65,-22,1,1,0,2
49989337421,-21,-13,-37,41,-2,-6,-3,-1
49989338988,-53,-32,-69,-40,-9,1,0,1
49989338988,64,13,18,41,24,3,-1,-3
49989351221,30,28,-9,-3,-6,-2,-1,0
49989351221,-25,14,-44,-22,0,-2,-3,-1
49989360055,-13,-7,4,3,-17,-4,-2,-2
49989360055,-40,8,16,-20,-10,-2,-1,-4
49989374336,4,14,11,50,0,-1,1,0
49989374336,-69,3,-28,1,0,1,-1,-7
49989381250,44,0,42,-11,2,-1,-3,-2
49989381250,24,-2,-18,29,8,3,-1,-1
49989397407,8,5,26,-51,-5,0,-3,-1
49989397407,7,-4,27,-32,-9,-5,2,-1
49989398990,23,9,-2,34,15,2,0,2
49989398990,-29,-14,-18,-7,-15,-5,-2,0
49989411003,12,1,-29,26,12,5,0,-4
49989411003,1,-16,-13,3,9,3,1,2
49989420045,-12,1,18,-48,-20,-7,-2,-2
49989420045,4,3,-16,30,19,1,1,0
49989434243,-42,-2,-12,-35,-11,-3,0,-3
49989434243,22,3,31,-57,3,-1,-1,1
49989441002,3,-4,-36,0,-4,-4,-1,-4
49989441002,27,-4,18,20,-3,2,1,3
49989457424,-22,-14,-31,-6,3,-3,1,1
49989457424,63,21,11,70,12,1,-2,3
49989459044,15,18,72,53,3,2,1,2
49989459044,-14,-56,-104,-84,-7,-4,-2,-1
49989471196,58,12,52,-27,-13,-1,0,1
49989471196,15,5,33,50,10,-1,-2,1
49989480050,-9,-2,-68,-46,-2,-3,-2,-1
49989480050,-32,9,30,31,0,0,1,-1
49989494829,-20,6,19,43,15,4,2,5
49989494829,-88,-46,-117,-104,-18,-4,-1,-6
49989500987,35,1,-2,17,-5,-4,-3,0
49989500987,6,11,-44,8,8,1,0,3
49989517527,-7,-11,3,9,-3,-3,-1,-2
49989517527,9,7,18,26,1,-1,0,0
49989518999,-10,-16,-21,3,-1,0,-2,-5
49989518999,57,30,-18,-36,1,1,0,-2
49989539875,-10,-11,-15,21,-10,-6,-4,-3
49989539875,13,-9,-57,-21,-9,-3,-2,1
49989541498,-19,-9,43,0,-8,0,0,1
49989541498,14,3,28,28,4,2,-2,0
49989554434,50,14,53,18,22,5,3,3
49989554434,-28,-11,24,18,-16,-6,-2,-5
49989561169,28,25,69,-19,1,-2,-2,1
49989561169,35,-9,-16,-8,0,4,4,-2
49989577377,-72,-9,-35,-22,-7,-4,-3,-12
49989577377,4,-3,29,1,0,-5,-3,3
49989579001,-11,5,-22,11,-1,-2,-2,-4
49989579001,27,10,45,12,8,0,0,0
49989591194,-114,-46,-38,61,5,0,-3,-7
49989591194,77,16,74,7,2,2,0,3
49989600013,-66,-21,-24,-22,1,0,0,1
49989600013,-5,36,88,22,8,3,0,1
49989614444,28,-17,-46,-20,-1,0,0,1
49989614444,-50,-4,23,17,-14,-2,-3,-1
49989621090,11,2,-37,12,8,-1,-2,-4
49989621090,30,-9,50,42,-8,-2,-1,2
49989636933,-11,21,-2,-56,-9,-2,-1,-2
49989636933,22,6,-21,-1,12,1,-3,-3
49989643695,51,23,65,3,-7,0,1,5
49989643695,-1,-3,-36,-35,-12,-6,-3,1
49989651201,-68,-17,-39,-5,9,-1,-1,-4
49989651201,18,3,2,-3,-3,1,2,2
49989660037,97,6,29,36,10,2,-1,2
49989660037,-42,-23,15,-30,4,2,2,-2
49989674431,34,20,79,3,-1,1,1,3
49989674431,-11,-6,-99,23,3,-6,-5,-4
49989681110,-40,-8,12,-22,-1,3,2,3
49989681110,13,9,-3,20,-7,-5,-6,-7
49989696931,66,3,-72,5,-1,-4,-2,1
49989696931,-40,1,122,-12,6,4,5,3
49989703516,-46,-27,-82,-32,-13,-9,-8,-11
49989703516,-15,-4,47,6,2,4,2,1
49989711261,21,6,-11,-2,8,3,3,0
49989711261,90,19,18,39,-12,-4,-2,4
49989720009,2,-1,32,13,0,0,-1,-3
49989720009,-5,-7,20,0,9,1,2,0
49989734367,-14,8,-1,-24,-24,-4,-4,-6
49989734367,-2,-2,21,6,10,-1,-2,-1
49989741200,-15,-2,-15,-5,-19,1,4,-1
49989741200,-16,-14,6,-27,2,0,-2,-1
49989756915,13,21,100,16,7,4,1,1
49989756915,37,-5,-27,-5,10,-3,-3,-2
49989763583,10,-6,-12,-49,-31,-6,-3,-2
49989763583,-15,-15,-9,14,1,-2,-2,-1
49989779665,-23,6,-3,-37,-20,-3,-2,2
49989779665,-43,-7,-3,6,8,3,1,-4
49989786002,-18,-7,-32,73,17,1,0,-1
49989786002,2,-20,-55,-39,-6,-4,-1,0
49989794306,28,-4,29,-10,-3,-2,0,0
49989794306,-6,-7,3,39,6,3,2,0
49989801208,-2,4,-51,-114,-6,-2,0,0
49989801208,4,16,34,32,-3,-1,-1,-3
49989816728,-32,-16,23,44,13,-2,-2,-4
49989816728,-6,17,-74,-5,-14,1,-1,-3
49989823691,15,-8,16,-16,-5,0,-2,3
49989823691,-15,27,-34,14,2,-1,-2,0
49989839886,4,-17,-20,-26,-4,2,0,0
49989839886,-57,-13,76,10,-6,-1,0,1
49989841459,-66,-10,-39,14,4,0,-3,-7
49989841459,29,9,-33,-10,-2,-5,-4,1
49989854376,11,10,37,20,-1,1,0,1
49989854376,32,3,-79,-49,6,-4,-4,-4
49989861115,4,-2,-25,26,4,-1,0,1
49989861115,-45,-2,46,7,-4,-1,0,-3
49989876874,12,-3,-36,-30,-4,0,-2,0
49989876874,-26,-18,13,-80,-25,-11,-7,-7
49989883638,6,-5,21,37,10,2,1,2
49989883638,-56,-5,3,34,7,0,2,2
49989900072,49,-8,-10,36,12,3,2,0
49989900072,-70,-15,-54,2,-8,1,0,2
49989901506,2,6,51,8,2,-6,-1,0
49989901506,-7,0,-26,-11,-4,0,-3,-1
49989914279,-72,-6,-18,-42,-27,-7,-3,-1
49989914279,66,10,25,11,15,4,1,-2
49989921198,-13,-3,11,1,5,-1,-1,-5
49989921198,15,0,39,3,3,1,0,-1
49989936808,-10,-13,-103,34,1,-2,0,0
49989936808,75,16,1,-2,-2,0,-2,2
49989943721,-9,30,99,37,-2,-3,-1,1
49989943721,72,-33,-37,-30,-11,-3,-1,-5
49989959896,-42,-4,7,-15,-2,-3,-2,-1
49989959896,11,6,16,6,5,0,-1,1
49989961511,52,7,-3,4,6,4,0,0
49989961511,85,28,29,-5,-8,-7,-4,1
49989982462,27,-3,-29,-32,-13,-4,-4,-3
49989982462,-16,-4,-16,49,12,1,1,0
49989983992,-4,-6,2,-99,-18,-4,-3,0
49989983992,-13,1,4,-4,-8,1,-1,0
49989996829,-50,-5,36,33,7,2,1,0
49989996829,41,-1,-47,14,-2,-3,-3,-4
49990003530,-5,-5,21,-20,5,-1,-1,2
49990003530,-53,-30,-66,-13,-4,-2,0,-1
49990020006,93,16,96,-16,-2,-2,-1,4
49990020006,-20,-2,26,34,10,3,3,0
49990021512,19,4,-10,5,-2,0,-5,3
49990021512,18,-6,35,28,5,2,3,0
49990034373,21,-1,-1,1,4,2,0,-1
49990034373,-13,6,43,-48,-21,-7,-2,-1
49990048682,28,-9,-13,-38,0,0,2,0
49990048682,-16,9,53,15,1,-1,-2,0
49990056910,6,7,-5,9,10,2,-2,-2
49990056910,-4,-17,-22,1,7,-2,-1,-1
49990063634,-66,10,-24,24,-10,0,2,-4
49990063634,37,-6,-57,-20,-1,-4,-3,-3
49990079991,-75,-29,6,-13,6,2,0,-5
49990079991,32,17,29,-10,-11,-3,0,-2
49990081456,37,-4,-38,40,6,0,-2,-1
49990081456,-27,-14,9,-10,-5,-2,-2,-2
49990094223,33,19,17,25,18,1,-1,2
49990094223,-45,-24,-9,-32,-18,0,0,0
49990101038,-23,-13,-58,17,4,-1,-2,-3
49990101038,7,3,-8,-47,-11,-1,0,-2
49990116768,0,0,15,5,9,1,0,0
49990116768,55,33,53,71,12,7,3,3
49990123564,9,-9,-40,32,20,-5,-3,-2
49990123564,-10,-8,-11,-72,-26,-3,-3,-2
49990139893,-9,8,28,25,1,1,1,0
49990139893,11,4,-27,8,3,0,-1,5
49990141463,-1,-9,29,-5,0,0,-1,-4
49990141463,-76,0,12,34,7,2,0,1
49990154396,23,13,-30,-34,-13,-5,-2,1
49990154396,-23,-35,-64,-22,4,-2,-1,-4
49990161235,-52,0,-13,-14,-12,0,-2,-4
49990161235,-4,11,-48,-24,7,1,0,-1
49990176844,13,7,33,26,10,2,2,1
49990176844,69,-6,-14,-7,-17,-3,-2,5
49990183503,-67,15,31,23,12,4,2,-6
49990183503,43,1,9,39,-2,0,-2,2
49990199938,-88,-32,-82,-101,-2,-8,-5,-4
49990199938,-4,12,42,4,-7,0,1,2
49990201491,37,-1,47,25,-7,-2,2,3
49990201491,15,5,-10,19,6,3,1,1
49990214388,31,9,13,18,0,-2,-2,-2
49990214388,-50,-10,-27,-20,-8,-6,-3,-3
49990221019,14,6,49,22,4,2,1,2
49990221019,-50,-4,-71,-33,-12,-7,-4,-5
49990236986,28,-14,59,5,-8,2,2,5
49990236986,-16,20,61,-6,-6,-3,-1,-9
49990243531,69,5,-35,35,22,3,0,1
49990243531,-45,-39,-50,18,-6,-5,-2,-3
49990260043,13,4,39,15,-3,2,1,2
49990260043,-21,-6,20,-12,0,1,1,0
49990261532,-43,2,18,-2,7,-1,0,4
49990261532,62,-3,-5,-6,13,4,2,2
49990273507,-85,-2,-9,27,-8,0,0,-8
49990273507,-15,-2,-8,37,7,-2,-5,-4
49990282521,27,8,30,-59,-15,-3,-2,-2
49990282521,-5,-8,0,-28,-8,-6,0,0
49990296863,28,14,12,17,4,-2,-2,-3
49990296863,23,13,19,25,12,5,4,3
49990303645,12,-8,-52,-31,-11,-3,-1,1
49990303645,48,7,10,-18,-13,-4,-5,-4
49990320013,44,-4,-2,-6,3,1,1,2
49990320013,-10,-10,-22,-1,-3,-3,-2,1
49990321592,20,0,11,32,-10,-2,0,-3
49990321592,-14,14,24,-32,8,5,5,5
49990333653,17,-1,-63,-10,-9,-4,-4,-2
49990333653,-66,-2,0,-13,14,4,1,-9
49990342489,37,2,25,30,-11,-7,-6,-5
49990342489,-23,25,36,-23,-6,-5,-1,-2
49990356797,14,1,-49,3,-6,-5,-5,-4
49990356797,4,-8,-16,-18,17,4,2,3
49990363719,-69,-7,20,-17,-4,0,0,-1
49990363719,-6,3,-7,51,9,2,-1,-4
49990380087,68,13,36,8,-1,-1,-1,0
49990380087,-44,-8,-20,6,-3,-1,-2,2
49990381560,5,-10,32,10,-3,-4,-1,-2
49990381560,7,-9,-94,-67,-30,-5,-2,-4
49990393493,-56,-3,14,-9,-3,-1,-2,-3
49990393493,23,10,-24,29,2,0,-2,-1
49990402516,22,-33,33,19,-4,-3,-4,-7
49990402516,73,7,73,53,19,1,1,4
49990416718,-35,-16,0,-23,-3,0,-1,-2
49990416718,-42,-7,-82,-6,-12,-10,-4,-6
49990431129,55,-2,-1,17,4,3,2,4
49990431129,35,11,37,-4,14,2,0,-2
49990439870,9,19,59,-4,-7,1,2,3
49990439870,-5,5,8,23,11,1,1,2
49990441473,51,1,1,-50,-17,0,2,5
49990441473,-33,-14,-57,40,13,4,1,-1
49990453638,-10,5,31,-18,-4,-2,-2,0
49990453638,-7,-15,9,43,2,-2,-1,-3
49990462503,-22,11,-2,-87,-16,-4,0,1
49990462503,62,-2,-17,12,5,2,0,-2
49990476821,27,-2,24,42,3,0,1,4
49990476821,47,-1,3,-29,-5,-2,-2,-2
49990483701,-19,-14,-62,9,5,0,-1,-5
49990483701,-3,5,71,16,-6,-2,0,-3
49990499992,29,-6,-57,-6,1,-4,-2,-1
49990499992,-26,1,19,10,-6,-1,1,3
49990501520,-55,-5,-44,-50,-1,-1,1,1
49990501520,-20,-15,-60,-8,1,1,-4,-2
49990513707,-26,-8,38,24,-1,-2,1,-2
49990513707,23,3,38,30,2,2,-2,0
49990522520,-4,5,-11,-28,4,1,-1,-1
49990522520,-66,-7,-33,-65,-8,-6,-2,-4
49990536758,34,-22,-18,-52,-21,-5,-3,0
49990536758,17,6,7,19,4,-3,-1,-1
49990543671,27,13,27,25,12,5,0,2
49990543671,12,25,31,86,15,5,2,4
49990559211,-49,-7,-126,-82,-1,2,1,0
49990559211,0,-31,64,-16,-12,-4,0,-4
49990566142,-10,7,27,51,1,0,0,1
49990566142,19,14,14,-25,-7,-2,-1,1
49990573648,-16,2,-5,-30,12,-3,0,-2
49990573648,-1,-3,-19,-4,-18,-2,-2,-3
49990582529,-73,-11,-20,18,13,1,-1,-5
49990582529,-25,-8,38,37,-2,1,1,-7
49990596691,54,19,82,37,6,2,-3,3
49990596691,-87,-7,11,-39,6,0,2,3
49990603645,56,17,-43,35,-4,-1,-3,0
49990603645,21,-30,-41,-33,1,-1,0,4
49990619349,-1,23,60,-26,-19,-9,-6,-6
49990619349,23,4,-70,-34,-8,-1,1,-3
49990626064,26,6,-8,30,0,2,0,4
49990626064,-91,-3,28,31,5,-2,-2,-7
49990633647,0,-1,-38,8,9,3,1,0
49990633647,16,-12,-20,-28,-9,-1,-3,-1
49990642601,4,-1,44,-63,-9,-3,0,0
49990642601,52,-14,-79,-15,-2,1,-2,1
49990656809,1,4,7,66,19,0,-2,-3
49990656809,-3,8,28,16,-18,-4,-1,-1
49990663643,-38,-3,3,-24,0,-3,-2,-6
49990663643,6,14,49,-7,3,1,2,0
49990679411,-2,3,-11,14,-4,1,0,-1
49990679411,78,12,13,-6,15,3,-1,0
49990686179,-9,-6,17,-11,-1,0,0,1
49990686179,-23,-4,-1,34,-5,-1,-3,0
49990693549,-63,-10,-59,43,-1,1,0,-4
49990693549,-4,0,36,-96,0,0,2,0
49990708490,5,-13,-12,-4,-36,-9,-5,-1
49990708490,-38,-3,7,17,8,0,0,1
49990716777,38,-9,-23,47,1,-1,0,-2
49990716777,-70,-25,-8,16,4,4,2,2
49990723569,43,5,-33,22,16,5,2,-1
49990723569,84,29,-28,-43,-8,-4,-5,-2
49990739233,-25,-10,49,9,-7,-3,-2,-7
49990739233,5,7,8,-33,-6,-3,-4,-1
49990746123,-19,-3,11,8,13,2,3,3
49990746123,-30,1,68,-44,-23,-9,-4,-4
49990762554,13,-13,-42,32,11,1,-1,-1
49990762554,-1,9,39,18,-1,0,-2,-2
49990764033,15,10,66,18,3,-2,1,-1
49990764033,-49,-15,-3,18,2,1,0,-1
49990776903,-28,9,-10,-34,-8,-1,-3,-5
49990776903,19,8,-38,39,5,0,-1,2
49990783543,12,0,5,18,-1,1,-1,1
49990783543,12,6,5,-48,2,-3,-1,-1
49990799437,-6,-18,-13,-58,-29,-5,0,0
49990799437,1,1,-50,1,4,0,-2,0
49990806213,22,8,24,23,5,2,-1,-3
49990806213,18,4,13,22,9,4,2,2
49990822569,-17,4,16,3,6,0,-1,3
49990822569,36,29,51,17,-8,-6,-4,-5
49990823981,-64,-44,-61,16,5,0,0,-2
49990823981,5,2,55,-35,-5,-1,-1,4
49990836779,67,6,-1,-15,0,-4,-2,2
49990836779,-45,-44,19,27,3,0,1,-1
49990843666,2,2,-10,-37,-5,-5,-3,-1
49990843666,-8,3,-29,18,-1,-1,-1,-3
49990859381,-2,-6,25,8,2,-1,0,0
49990859381,9,14,-46,-24,-6,-3,-5,-6
49990866129,-8,-2,33,50,13,1,-1,-1
49990866129,16,-13,-39,6,0,0,1,-1
49990882525,-7,14,9,-11,-12,-3,-1,-4
49990882525,12,11,23,49,19,7,3,1
49990883946,-3,-5,-38,-8,-8,-4,-1,0
49990883946,18,-16,97,-22,5,-3,2,3
49990896651,-6,5,-16,54,-9,-2,0,2
49990896651,43,-24,-7,-26,-4,-1,1,2
49990903696,26,14,22,-15,-5,-3,-4,-6
49990903696,-18,11,-59,-35,-8,-3,-4,-3
49990919288,-28,-19,-61,-68,0,-1,-1,-3
49990919288,-11,12,39,22,1,-2,-3,3
49990926203,-10,-1,-12,-9,-1,-2,-2,-1
49990926203,-6,-14,-16,63,-4,1,0,1
49990942525,-78,4,29,12,5,1,-3,0
49990942525,79,15,-2,-5,-9,-1,-1,1
49990944024,3,-1,-46,-61,-10,-4,-2,1
49990944024,-7,0,-15,-11,-8,-4,0,-3
49990956894,32,7,9,26,9,4,2,2
49990956894,-7,-8,37,-5,0,-2,-2,-3
49990963525,-2,6,50,53,7,0,1,-2
49990963525,27,0,-58,-9,-9,0,-1,1
49990979401,-16,-14,4,-30,3,1,1,3
49990979401,-22,6,14,12,5,-1,2,0
49990986113,-8,-6,-42,37,-1,-3,-2,-3
49990986113,-7,37,37,26,4,-1,-2,0
49991002562,53,-31,40,18,7,3,2,1
49991002562,-67,6,-34,-31,-5,-1,0,-1
49991003946,4,12,43,24,5,1,-1,-1
49991003946,-6,-4,-28,-2,2,-2,-1,0
49991016931,49,16,-47,-18,-6,-1,-1,2
49991016931,10,-6,-8,-9,-1,-5,-4,-4
49991023457,7,-5,-18,-7,-7,2,1,0
49991023457,27,-9,-49,-12,0,0,-1,1
49991039768,78,34,85,31,15,3,4,4
49991039768,-90,-7,27,11,-17,-6,-5,-4
49991045990,29,-3,-20,-90,-4,-2,-3,1
49991045990,33,-9,18,38,-2,-2,-3,-3
49991062336,-15,4,46,15,7,2,2,2
49991062336,-10,-9,-37,5,3,2,0,-1
49991063949,1,-17,-1,0,-1,-1,-1,2
49991063949,-32,-1,47,7,0,1,0,-1
49991076664,-9,9,-23,4,3,1,-3,-3
49991076664,-8,-51,-31,1,10,4,4,0
49991090937,-21,-11,-5,5,-15,-7,-6,-11
49991090937,-25,-5,-15,17,-3,-2,-3,0
49991099183,-39,1,-4,-13,-13,-7,-4,-8
49991099183,19,2,-43,15,3,1,-1,-1
49991105937,3,8,31,19,12,3,3,2
49991105937,-4,-7,29,70,2,1,2,3
49991122315,2,-14,-76,-25,-5,-5,-4,-2
49991122315,13,0,38,-8,2,5,2,3
49991123916,25,28,-1,4,0,-3,-5,-5
49991123916,-3,-23,16,-41,9,-2,-4,-6
49991136635,-16,-22,-20,-24,-32,-11,-3,0
49991136635,5,12,-35,-61,-13,-3,0,-2
49991143432,-5,8,57,35,6,2,3,2
49991143432,-31,-12,-75,11,9,3,-1,0
49991159102,38,18,25,19,9,2,-1,-4
49991159102,27,3,16,19,-1,-1,-1,0
49991165986,-33,-10,-37,-11,-4,0,1,2
49991165986,20,30,116,18,12,10,9,8
49991182338,-12,-9,-85,-12,-7,-8,-13,-10
49991182338,-4,5,11,19,-6,-5,-4,-4
49991183951,-11,-11,23,-89,-14,-2,-1,-2
49991183951,-3,8,4,28,1,-7,-2,-1
49991196688,4,3,21,29,7,4,3,2
49991196688,4,-2,-20,-50,-5,-1,-1,0
49991203461,4,3,-27,-17,-3,-1,1,1
49991203461,61,3,23,-37,-15,-2,-2,-1
49991219141,-74,-46,-16,23,16,4,3,4
49991219141,-6,-12,-19,-12,-13,-7,-5,-5
49991225930,1,-1,3,73,7,3,1,1
49991225930,17,2,0,-41,-1,-1,0,-3
49991242309,87,10,-9,-84,-25,-7,-3,-2
49991242309,11,19,20,54,14,0,-1,5
49991243909,-11,-6,-1,6,-2,-3,-2,0
49991243909,-42,-9,-29,31,6,1,1,-3
49991255953,23,29,38,32,14,3,1,0
49991255953,15,0,-56,-34,1,5,2,0
49991264959,33,4,36,41,5,-1,-3,-3
49991264959,-19,2,-57,-29,-6,-2,-2,-2
49991279137,28,7,1,-24,-10,-5,0,0
49991279137,-9,15,102,24,-4,-6,0,2
49991285913,62,14,-8,49,1,3,1,1
49991285913,-44,-19,-49,-89,-11,-4,-5,-6
49991302285,-55,-2,20,47,9,5,2,2
49991302285,5,4,-22,22,17,6,1,0
49991303894,-14,-23,-74,-39,-3,-4,-1,-2
49991303894,15,26,111,102,2,-1,-1,0
49991324100,-21,-36,-78,-94,-11,-1,0,-1
49991324100,37,1,30,31,0,-5,-2,2
49991324911,-46,-12,-73,-33,-11,0,0,-5
49991324911,20,3,0,4,-2,1,-2,-4
49991340002,-25,6,11,31,4,-1,-1,-3
49991340002,10,-2,3,15,-1,1,2,-2
49991346140,-25,0,0,-25,0,0,-2,2
49991346140,10,17,10,15,4,1,1,1
49991361758,-42,-40,-15,-6,0,1,0,5
49991361758,-38,-12,48,54,-9,-6,-3,-6
49991362511,0,-3,-24,-21,12,-3,-1,-1
49991362511,-22,-13,-38,-78,-30,-6,-3,-2
49991384346,0,9,48,62,16,5,1,1
49991384346,5,8,-29,-11,2,3,0,-3
49991384964,-20,-5,-10,16,5,1,0,1
49991384964,-4,-8,-38,19,6,0,0,-3
49991399971,26,12,107,-17,-4,0,5,3
49991399971,25,-21,-50,-17,0,2,1,1
49991406167,-73,-10,65,35,0,4,1,-5
49991406167,56,15,55,-20,3,-1,-3,-2
49991421832,55,11,-59,-46,-40,-13,-8,-11
49991421832,-6,8,38,1,6,-4,-3,-1
49991422440,5,8,-6,25,13,0,2,4
49991422440,-21,-20,10,32,11,2,0,2
49991444336,-35,7,15,39,8,1,0,-2
49991444336,12,8,-8,-29,-2,2,1,-2
49991444918,25,2,-2,-28,-10,-3,-1,-1
49991444918,-32,-25,-26,13,1,1,0,-2
49991459973,35,19,26,10,10,4,1,-1
49991459973,-127,-69,-51,-5,-10,-5,-3,5
49991466162,75,-3,87,-39,-7,-2,-3,-6
49991466162,10,23,9,-69,-16,-10,-5,-1
49991481727,-12,1,-53,-22,-8,-9,-3,-2
49991481727,12,16,9,24,7,4,3,3
49991482475,-25,-9,21,25,4,1,1,2
49991482475,-15,-2,-13,21,2,-3,-2,-2
49991504256,12,-7,-28,-7,2,2,1,1
49991504256,11,25,50,-4,3,0,0,-4
49991505026,49,13,-56,3,-6,-2,-2,-2
49991505026,48,-33,-34,15,3,0,1,-2
49991519963,-17,21,-10,-18,3,-3,-5,-2
49991519963,45,-2,-78,-17,-9,-5,-3,-11
49991525928,-45,-16,10,-102,-39,-11,-7,-2
49991525928,-13,0,-19,32,5,2,2,1
49991542407,0,-3,40,39,10,1,0,1
49991542407,-2,5,13,20,4,-1,-2,0
49991548383,15,14,-29,10,6,3,1,-1
49991548383,-9,0,3,-11,-4,1,1,0
49991564058,-4,-10,5,6,-2,0,-1,1
49991564058,6,15,11,-17,-4,-1,-1,-1
49991564855,8,3,48,23,6,2,2,3
49991564855,54,6,-34,-11,4,7,7,9
49991579905,-52,18,72,10,-5,-9,-14,-16
49991579905,14,-8,55,14,-14,-4,-2,-2
49991585879,-11,-33,-15,-26,4,-2,1,2
49991585879,-9,0,-14,-9,-5,-4,-1,-2
49991600888,21,-4,-36,-26,5,5,5,4
49991600888,2,1,-36,-8,-3,-2,-1,-1
49991608389,-10,15,21,52,3,-2,-2,-2
49991608389,-12,-1,35,13,3,1,-2,-1
49991624036,-53,14,-45,9,3,2,1,1
49991624036,-58,-27,44,-6,2,3,0,-3
49991624854,94,10,-48,0,6,-2,-3,-1
49991624854,19,5,-50,-25,-14,-3,-3,-4
49991639916,-2,-4,-1,-2,-9,-8,-2,0
49991639916,18,14,12,15,3,2,0,1
49991645880,-22,3,3,-22,-2,-1,2,0
49991645880,-37,-15,62,39,2,-4,-3,-1
49991660947,48,-1,10,9,0,3,2,1
49991660947,1,4,-30,-14,-2,-1,0,-1
49991668452,14,-8,0,16,3,2,2,6
49991668452,-11,27,2,22,8,1,-2,-4
49991684137,19,1,72,-33,-7,-1,1,2
49991684137,26,3,15,0,-9,-3,-1,0
49991684895,-32,2,11,-55,-11,-6,-2,-3
49991684895,-5,-2,15,12,2,-4,-1,1
49991699940,4,2,-36,29,1,1,0,-1
49991699940,0,-3,-39,-8,-1,-2,0,0
49991705955,-1,6,46,28,6,3,-1,-3
49991705955,-19,-1,21,-2,-2,-2,0,-1
49991720967,9,3,-17,0,5,2,0,-2
49991720967,21,5,11,54,11,2,-1,3
49991728496,-18,-13,-24,-26,2,0,-1,-3
49991728496,-33,4,57,-31,-18,-6,-5,-5
49991744564,-7,-27,-94,29,-1,-2,-4,-2
49991744564,21,-4,-4,-24,-5,0,1,0
49991745315,-102,-17,31,49,13,-3,-2,-2
49991745315,-6,-3,-16,-19,-22,-2,0,1
49991759949,64,15,18,0,4,3,-1,-2
49991759949,-65,-20,-59,-17,-4,0,-3,-4
49991765952,49,18,6,-28,2,0,0,0
49991765952,-20,-22,-63,-5,-5,-2,-4,-4
49991781037,-39,-23,46,76,10,3,1,3
49991781037,69,19,-73,-79,-14,-3,-3,-4
49991788574,31,-4,2,21,-5,-1,-1,0
49991788574,-9,1,-9,-63,12,-1,0,1
49991804188,19,9,36,15,-8,-3,1,-2
49991804188,6,-6,-27,31,6,-2,-2,0
49991804936,-9,-7,-14,-10,-10,-2,0,2
49991804936,63,27,26,33,3,-3,-4,-4
49991820392,32,-13,-23,0,4,1,1,0
49991820392,-68,3,-12,-24,-1,-1,-3,-2
49991826088,-22,7,-26,-27,-8,1,1,-1
49991826088,0,-31,10,13,3,-1,-2,-4
49991841046,-20,-1,-3,-51,-8,-2,-1,2
49991841046,57,-6,61,22,0,1,1,4
49991848565,-50,-21,-15,33,5,0,-3,-4
49991848565,81,22,6,1,2,0,-2,1
49991864145,-43,-16,-64,-1,-3,-2,0,-4
49991864145,8,-18,74,22,5,0,2,2
49991864960,26,0,-34,-54,-14,-5,-3,1
49991864960,-21,-1,8,49,13,3,1,1
49991879945,-8,22,56,-16,4,-1,-1,-3
49991879945,-19,-5,-21,6,-7,-2,-2,-2
49991886112,-21,5,14,13,-1,0,1,-1
49991886112,-65,-14,-40,-48,-15,-4,-1,-4
49991901068,7,5,47,23,5,-1,-3,-4
49991901068,-35,-13,-17,-16,0,0,-1,-4
49991908491,8,12,-1,9,4,-3,-2,0
49991908491,47,11,42,21,1,-1,-1,2
49991924249,33,-1,-75,-39,-7,-2,-2,6
49991924249,-17,-39,31,-5,-3,-5,-3,-5
49991924897,69,18,-12,43,-3,-3,-3,-4
49991924897,-39,-3,-2,-12,3,0,1,-1
49991939944,56,18,38,-6,0,-1,-1,1
49991939944,-34,10,49,1,-5,-2,-1,0
49991946122,42,-28,-38,12,6,2,1,-2
49991946122,-28,-7,-13,32,7,0,0,0
49991961132,19,0,16,-39,-13,1,0,-2
49991961132,-5,8,7,-24,4,0,-3,0
49991968641,-30,5,18,-3,-5,-2,-2,-2
49991968641,-33,5,14,27,3,-1,1,-1
49991984368,-48,-18,-12,39,3,-3,-1,0
49991984368,9,-2,-99,-69,-7,-2,-2,-1
49991984888,38,13,1,-15,2,2,1,1
49991984888,-21,5,21,12,-3,-2,-2,-7
49991998664,-113,-34,-1,0,3,2,3,-3
49991998664,90,10,11,10,-2,-2,-5,-8
49992006069,-20,-15,66,63,4,0,0,-2
49992006069,22,-4,7,-52,-4,-3,-1,6
49992020993,-30,-13,-69,-60,-15,-3,-2,-2
49992020993,-15,25,31,39,2,-2,0,0
49992028634,-51,-27,-30,-37,-7,-3,-2,0
49992028634,1,5,10,15,3,0,-1,-2
49992044234,20,-25,39,13,4,1,-1,0
49992044234,-13,7,4,12,5,2,1,4
49992044925,19,15,-60,-9,2,1,0,0
49992044925,3,-7,-31,-4,0,2,1,4
49992058607,51,30,80,37,1,-2,0,0
49992058607,-23,-19,-100,-16,-14,-3,0,-1
49992066168,89,-10,58,13,1,-4,-4,-4
49992066168,36,3,4,-26,1,-3,-3,-3
49992081148,-7,-5,-25,-38,-8,-5,-4,-3
49992081148,-3,14,45,9,2,0,2,1
49992088603,-33,7,5,27,1,1,1,2
49992088603,-14,-12,-33,0,-2,-1,-1,-2
49992104317,22,7,-12,45,9,1,1,1
49992104317,-46,-21,-13,-3,4,2,2,1
49992104933,1,4,1,-37,-10,-4,-3,-1
49992104933,54,9,-17,54,11,4,2,-1
49992118607,-12,-24,-104,-50,-24,-7,-2,-2
49992118607,-73,8,63,-32,-6,-4,-2,-7
49992126204,4,2,-2,48,5,0,-3,-2
49992126204,10,7,-2,-22,-7,-2,0,2
49992149188,14,-7,7,26,-2,-3,-1,-3
49992149188,40,16,15,35,7,0,0,3
49992149884,-5,9,-8,-105,-7,-1,-1,0
49992149884,-23,-5,20,82,6,0,1,1
49992164309,0,10,-4,-21,4,2,2,2
49992164309,33,11,43,35,6,1,-1,0
49992164916,54,2,-3,-55,-22,-5,-1,0
49992164916,-13,-11,13,-34,-5,-2,-1,-2
49992178591,-4,11,8,8,5,1,-3,1
49992178591,10,0,45,56,7,-2,-1,0
49992186082,-29,2,-24,-30,-1,1,-1,-2
49992186082,22,-19,23,-28,-7,-1,0,2
49992201067,-78,-2,10,31,-6,-1,0,-5
49992201067,37,-7,-69,-58,3,0,0,-6
49992208454,28,20,38,31,-1,-5,-3,1
49992208454,-66,-27,25,7,-3,-2,0,-2
49992224274,-59,4,22,-5,9,2,-3,-5
49992224274,13,-2,-25,20,0,-1,2,2
49992224913,-56,1,0,28,-4,-4,-1,-2
49992224913,-3,6,15,-55,-4,-2,-2,-2
49992238607,17,4,22,15,6,-1,-2,2
49992238607,-8,3,26,-30,-10,-1,-3,-1
49992246109,-12,-13,-73,-42,0,-1,-1,-1
49992246109,10,11,21,23,0,3,2,2
49992261107,46,-13,4,31,2,-2,-2,6
49992261107,35,-4,87,-4,0,-1,0,-1
49992268590,10,-13,-22,43,5,1,3,1
49992268590,51,10,-18,7,-3,-4,-3,0
49992284279,12,4,10,-31,-1,-1,-1,-1
49992284279,-10,6,-14,-16,-3,-3,-2,-1
49992284931,-10,-2,7,56,9,2,1,4
49992284931,36,2,-19,-46,-12,-3,-1,-4
49992298532,23,-14,6,2,2,0,-2,-6
49992298532,-68,-21,-33,-13,-4,-1,-2,1
49992306122,-30,8,15,-4,1,0,-1,-1
49992306122,32,1,-57,-10,-5,-6,-3,-2
49992321097,7,1,9,-27,-3,-1,1,-3
49992321097,7,11,-10,35,9,3,0,3
49992328538,-23,-7,35,7,-8,-5,-4,-4
49992328538,-86,-8,11,-67,-14,-6,-4,-7
49992344209,9,-4,-11,19,-3,-4,-3,-1
49992344209,-5,-2,-13,7,2,0,-2,-1
49992344965,-2,-24,48,36,12,4,5,4
49992344965,3,10,-22,43,6,1,0,1
49992358642,-69,-9,0,-44,-4,0,0,-2
49992358642,11,21,-40,20,-3,-5,-4,-4
49992366141,29,-4,-99,-27,2,0,-2,-2
49992366141,-14,-11,36,-40,-11,-3,-3,-1
49992381143,27,-1,-33,-1,3,0,1,4
49992381143,-36,19,53,15,-3,2,1,5
49992388693,72,12,8,5,3,3,-2,-9
49992388693,-50,7,28,25,-1,-2,0,1
49992404239,31,9,4,7,2,-1,-1,-3
49992404239,-6,-19,-29,-23,-7,-2,0,-2
49992404920,60,31,53,1,-6,-3,-4,-1
49992404920,-40,-19,1,-8,6,5,2,1
49992418482,3,8,13,25,0,-1,-1,-3
49992418482,33,-14,-47,-11,-1,1,-2,-2
49992426171,-4,4,81,26,2,0,0,1
49992426171,-31,-11,-49,-57,-10,-3,-3,-4
49992441122,8,19,9,-1,3,1,0,2
49992441122,35,11,38,15,3,-1,-2,-1
49992448564,-55,2,-77,-22,-4,0,0,3
49992448564,36,-11,16,55,19,3,3,-1
49992463644,54,2,-1,-3,-8,-4,-5,-8
49992463644,-20,-3,43,-2,-6,-2,-1,6
49992471843,-62,5,-9,47,5,-1,-2,-4
49992471843,49,3,-103,-34,-5,0,0,1
49992478624,-11,-7,23,-8,-5,1,-1,-1
49992478624,51,14,37,77,13,1,0,0
49992485986,-93,-19,-9,-85,-12,-6,-4,-1
49992485986,-14,0,31,15,-3,-1,-1,3
49992501002,-4,-5,-96,10,1,-2,-2,-2
49992501002,17,-12,5,-14,-10,-5,-5,-6
49992508671,-40,-24,-37,33,6,0,1,1
49992508671,-3,5,36,27,6,1,-1,-5
49992523618,-20,24,57,-59,-8,-3,-2,-1
49992523618,-10,-37,-69,-13,-5,0,-3,-2
49992531701,61,7,-1,-10,-3,1,1,0
49992531701,-23,0,-9,26,2,-1,-2,1
49992546844,-43,-1,69,23,2,1,3,0
49992546844,-24,-1,-52,-74,-5,-2,1,-4
49992547384,14,-1,22,0,-5,-3,-2,2
49992547384,41,2,7,44,1,-2,-3,-5
49992561054,-19,0,6,-52,-11,0,-3,1
49992561054,-2,7,-46,-20,-1,3,0,-3
49992568590,-22,-21,22,1,0,3,3,0
49992568590,2,4,-16,64,10,0,-1,2
49992583427,33,2,-22,-61,-15,-4,-2,2
49992583427,2,3,23,-3,-2,-1,1,0
49992591813,42,16,-77,-35,-6,-4,-6,-6
49992591813,-30,1,21,6,4,2,1,-2
49992598617,-2,-20,33,30,3,-1,0,-3
49992598617,36,44,21,-35,-16,-4,-3,-1
49992606078,-19,-7,-24,29,7,1,1,0
49992606078,-52,2,-56,-48,-4,-3,-1,-9
49992621064,49,15,-5,70,10,2,-1,1
49992621064,-99,-19,30,0,-6,-1,-3,1
49992628518,85,3,-30,-54,-6,-5,0,-7
49992628518,25,-1,19,22,-4,1,0,0
49992643639,33,7,8,36,10,1,1,3
49992643639,13,-18,-72,-17,2,0,-3,-4
49992651796,-17,13,80,46,1,1,0,1
49992651796,34,-12,3,-66,-9,-3,0,3
49992666882,-17,-22,-33,14,5,-1,-1,-2
49992666882,28,22,41,43,5,-2,1,1
49992667400,-20,8,30,23,11,4,0,1
49992667400,31,0,-32,-51,-12,-4,-2,3
49992681041,-50,2,-12,14,0,-3,0,-2
49992681041,57,-5,-2,10,-2,0,1,4
49992688518,-10,8,-8,-59,-7,-4,-4,-3
49992688518,66,1,57,69,4,3,1,2
49992703594,-13,-10,-30,-78,2,2,-1,-1
49992703594,-89,-26,-47,-4,-17,-4,-3,-1
49992711841,-14,-4,72,31,-2,-5,-3,-2
49992711841,-17,-22,51,41,13,8,5,2
49992726704,11,7,-6,-58,-11,-4,-2,1
49992726704,34,-3,16,-27,0,-2,0,-1
49992727456,-9,-10,84,20,3,1,-2,3
49992727456,-49,4,-76,-53,-10,-6,-2,-7
49992740890,0,1,70,104,15,3,1,1
49992740890,19,19,-8,26,6,0,-1,1
49992748569,-20,-42,-128,-67,-16,-1,0,-1
49992748569,-8,12,77,-2,6,-1,-2,1
49992763598,18,33,-38,28,-7,-2,-3,-4
49992763598,7,5,72,43,16,1,0,-4
49992771874,18,14,-15,-41,1,-3,-1,0
49992771874,-11,-18,-30,55,-10,-3,-3,-2
49992786625,2,5,-34,-42,-3,2,0,-1
49992786625,20,9,13,8,3,2,1,4
49992787404,-66,3,32,28,7,1,-1,-7
49992787404,38,20,-6,-64,-5,-3,-4,-3
49992801024,5,-40,15,21,4,3,3,0
49992801024,-19,-18,-62,-30,-13,-2,-1,-2
49992808593,25,14,18,61,9,4,3,4
49992808593,39,32,-37,-63,-9,-6,-4,1
49992823519,6,-28,57,6,-7,-4,-1,-3
49992823519,-6,-9,0,-9,9,3,1,0
49992831833,9,12,-9,-4,-8,-1,2,2
49992831833,21,4,9,72,12,4,-1,-3
49992846792,-25,-10,-73,-62,1,-2,1,1
49992846792,7,5,60,-1,-5,-2,-1,-2
49992847360,-14,-9,30,-1,-2,-1,-2,0
49992847360,5,11,-22,5,2,0,2,-8
49992861116,2,-8,26,24,-5,-3,-2,3
49992861116,-64,21,30,-8,-8,-3,-1,-7
49992868597,-43,-15,53,24,1,-1,-1,-2
49992868597,-12,-17,40,6,3,1,0,2
49992883615,-19,8,8,25,4,1,-1,-1
49992883615,-53,-8,-38,-15,5,1,-1,-1
49992891769,54,16,42,47,-4,-3,-2,1
49992891769,-26,-4,-31,-33,-6,0,-1,2
49992906816,36,12,37,-57,-12,-6,-1,-3
49992906816,6,-11,6,-10,1,-1,0,4
49992907378,-23,-31,-49,-8,4,1,0,-1
49992907378,-19,-10,52,57,10,5,3,2
49992921096,26,10,-91,-5,-13,-4,-6,-4
49992921096,16,10,11,-37,-1,2,1,-1
49992928470,0,-29,-45,-11,-6,-2,0,0
49992928470,-76,-12,25,-8,-2,-2,-3,-1
49992943629,3,6,-10,44,5,4,1,0
49992943629,99,14,95,2,-2,-3,-2,3
49992951840,-38,1,-47,-17,0,-4,-1,-2
49992951840,13,-6,-48,-4,-3,-1,0,2
49992966833,-93,-4,35,29,2,-2,-1,-7
49992966833,32,-1,-8,-76,-20,-5,-2,-4
49992967368,31,16,-49,-2,2,0,-1,-1
49992967368,16,8,44,-8,1,-2,-4,0
49992980977,10,-15,-27,9,3,1,-2,-4
49992980977,-42,-6,22,50,9,2,2,1
49992988586,25,-4,-69,-22,-16,-6,-5,-5
49992988586,-24,4,59,-32,-8,-4,-2,-6
49993003393,-49,-6,-13,1,1,0,1,2
49993003393,-14,-15,-31,23,9,2,1,-4
49993011766,12,20,37,16,5,2,0,2
49993011766,-4,-3,-50,-37,-6,-2,-1,-2
49993026830,3,3,18,-25,1,-3,-3,-2
49993026830,1,-6,-74,-32,-10,-4,-4,-1
49993027448,30,14,98,29,0,-1,0,0
49993027448,6,-6,53,96,14,4,2,6
49993041001,-18,-2,-71,-29,-8,-4,-5,-6
49993041001,19,2,-24,22,10,-1,-4,-1
49993048574,2,12,64,-8,-10,0,1,-1
49993048574,-46,-10,-83,-30,4,-1,0,-3
49993063586,-2,6,93,30,-7,-1,3,5
49993063586,-11,-21,-97,-9,-4,0,-1,-1
49993071697,-32,0,30,7,0,-3,-2,-2
49993071697,12,7,5,-14,6,4,2,2
49993086639,-10,-18,-29,9,-2,0,-1,-3
49993086639,-56,-4,70,32,0,-4,-2,0
49993087505,10,-5,5,-51,-3,-1,-1,-6
49993087505,-18,-9,-65,12,-15,-8,-5,-3
49993101050,24,18,-16,-38,5,1,1,3
49993101050,24,-8,43,3,0,-1,-1,-3
49993108535,-3,-16,-3,43,13,5,2,1
49993108535,30,4,40,-1,-12,-2,-1,-1
49993123621,14,-1,-22,-11,-2,-2,0,2
49993123621,-1,7,7,19,2,-3,-2,-1
49993131808,2,3,-19,19,4,-1,-2,2
49993131808,49,7,32,-7,8,1,2,4
49993146674,49,-5,4,-64,-20,-4,-3,-2
49993146674,33,3,38,6,-1,2,4,1
49993147400,-47,-12,-33,16,4,-3,0,0
49993147400,27,18,90,38,5,0,0,3
49993161068,6,3,-43,-56,-13,-2,-1,1
49993161068,14,10,35,31,2,1,-2,0
49993168558,4,-1,-60,-2,3,1,0,-2
49993168558,18,-9,-68,-30,-8,-5,-5,-8
49993183614,-14,3,24,30,1,-1,0,1
49993183614,42,15,-11,7,4,3,1,3
49993191639,-27,5,13,5,-1,-1,-1,5
49993191639,-61,3,-41,-21,0,-2,-3,-4
49993206696,53,2,25,30,11,-1,0,0
49993206696,2,-12,-9,-30,-9,1,1,-3
49993207394,98,19,44,28,-6,-1,-2,0
49993207394,-7,-9,-37,-15,-7,-2,-1,0
49993220972,-49,3,88,1,7,1,-1,-4
49993220972,-65,-12,-101,-21,2,-5,-4,-1
49993228584,32,9,89,-21,-23,-4,0,0
49993228584,-17,-42,-101,-26,0,0,0,-1
49993243466,-2,17,69,42,1,3,3,-1
49993243466,30,7,40,25,17,1,1,1
49993252419,-7,4,-51,-29,-2,-1,1,-1
49993252419,26,1,-25,-6,-7,-2,-2,-2
49993266695,-1,-10,-25,29,2,0,-3,-3
49993266695,11,-5,36,0,3,1,0,-1
49993267361,-2,-23,-44,-54,-10,-1,-2,-3
49993267361,-20,3,-24,44,12,-1,-1,-2
49993280942,85,13,23,-24,0,2,1,3
49993280942,-32,14,9,-2,-7,-4,-4,-4
49993288387,-48,-16,-73,-34,-1,-3,-3,-5
49993288387,53,10,58,17,4,1,1,6
49993303455,-31,-15,-8,28,-3,-3,-4,-6
49993303455,10,4,-22,-36,-5,-2,-1,-1
49993311752,9,2,17,27,5,2,0,3
49993311752,-26,20,14,-1,-4,0,0,-2
49993326726,48,-2,-34,3,7,1,-1,1
49993326726,-12,-15,35,-7,-1,-2,1,1
49993327364,-5,-6,-17,-23,-7,-3,-5,-2
49993327364,-25,-6,53,14,-1,-1,1,-5
49993340959,-51,-27,27,30,0,-1,0,1
49993340959,-14,-7,-37,-2,7,-3,-2,-2
49993348495,17,2,-17,-15,-15,-2,-1,-1
49993348495,-13,7,49,16,-1,-2,-3,-2
49993363531,-43,-8,-28,-35,-4,-4,-3,-1
49993363531,-44,-1,88,23,-1,4,2,0
49993371691,-21,-14,-13,-12,5,0,-1,-4
49993371691,-57,-15,48,-1,0,0,-1,1
49993385991,41,-7,-42,-30,-4,-3,-4,-9
49993385991,13,12,-33,33,-3,-3,-1,0
49993394284,-70,-6,54,8,3,0,1,-4
49993394284,-12,-1,-21,-14,-1,0,-2,-3
49993401009,-21,-1,30,29,11,3,2,4
49993401009,43,22,-17,-9,-5,-1,-2,1
49993408463,1,-3,34,6,-2,-3,-2,-2
49993408463,52,6,-12,32,6,-1,-1,-1
49993423588,-78,-9,14,-52,-24,-4,0,0
49993423588,57,4,-68,-9,17,2,0,-1
49993431834,-27,7,56,-5,-26,-5,-2,-2
49993431834,-3,-15,-49,9,-4,-3,0,1
49993446091,33,-5,14,13,3,-1,1,0
49993446091,-34,-10,-11,1,-7,-1,0,-4
49993454326,33,4,1,10,17,2,1,-3
49993454326,10,6,1,9,2,2,1,2
49993461082,-11,9,65,12,-11,-3,-4,-3
49993461082,-34,-28,-101,-94,-18,-4,-1,0
49993468612,26,-3,39,57,20,4,2,3
49993468612,81,18,-32,-31,-16,-1,-1,0
49993483488,-60,0,-52,-41,11,1,1,0
49993483488,51,20,78,34,-5,0,0,-1
49993491835,33,9,-91,-17,-7,-2,0,2
49993491835,12,-2,69,-28,-2,0,-2,-1
49993506128,25,13,-50,29,6,1,1,2
49993506128,-20,-13,-7,-6,4,-2,-1,-1
49993514165,32,10,-13,-10,7,2,3,3
49993514165,-32,-5,4,-15,-18,-2,-1,-4
49993521121,24,-8,-92,2,0,-3,-3,-3
49993521121,19,14,84,22,-5,-1,0,-2
49993528586,-6,2,-3,-13,4,2,2,3
49993528586,-8,-12,-28,-28,-4,-3,-2,-2
49993543541,-2,11,82,40,3,-1,0,-3
49993543541,-97,-16,-28,-35,-11,-2,-2,-4
49993551634,4,5,-16,27,2,-2,-3,-2
49993551634,-21,11,22,-19,0,3,1,4
49993566088,-45,-4,-23,-11,8,-4,-3,-8
49993566088,41,12,42,47,-9,-3,-2,2
49993574209,-38,-7,-27,-33,-6,-4,-5,-1
49993574209,-34,2,25,3,2,-1,2,-1
49993589087,46,-1,-14,-7,-14,-4,-1,0
49993589087,-16,-2,-6,-9,12,4,0,2
49993590006,27,-6,-24,18,1,0,-2,-1
49993590006,44,6,56,11,8,-3,-2,1
49993603620,8,-7,-47,-18,-15,-2,-2,-3
49993603620,94,18,3,17,2,-1,-2,0
49993611771,-83,-37,7,8,-2,2,4,0
49993611771,28,4,23,18,7,0,-2,-4
49993626083,59,15,21,24,5,0,-1,1
49993626083,-30,-17,-39,-27,-13,-1,0,0
49993634289,-21,5,-7,-17,8,3,1,-3
49993634289,6,-9,3,-8,-1,-1,0,-4
49993649243,-4,-6,3,40,1,0,-2,3
49993649243,-33,-21,-103,5,2,1,0,-6
49993649903,31,14,25,-59,-9,-3,-3,-4
49993649903,30,-5,8,25,-10,-4,-4,0
49993663590,-12,5,11,-48,-1,1,1,2
49993663590,1,-6,68,32,3,-3,-2,-4
49993671594,-1,-10,-86,3,-1,-1,-1,-2
49993671594,5,1,33,32,10,-2,-3,-6
49993685935,9,-3,3,-10,1,2,0,1
49993685935,-9,3,4,18,-3,-5,-2,2
49993694293,14,7,32,4,4,1,0,1
49993694293,-16,9,-47,-9,-1,-1,0,-1
49993709273,-3,-2,14,55,8,3,0,-1
49993709273,32,2,-13,-96,-8,1,-2,0
49993709867,11,11,51,33,-1,0,-3,-2
49993709867,-42,-32,-33,-15,-3,-2,0,-1
49993723577,-10,10,48,11,-7,0,0,0
49993723577,-67,-1,-1,45,8,1,-2,-4
49993731568,-9,-6,45,-5,0,0,-2,0
49993731568,16,-5,-7,-7,1,0,2,4
49993746107,-101,-27,20,32,-1,0,-1,-4
49993746107,11,1,-3,5,4,1,2,3
49993754157,-9,-9,41,1,-2,-1,-2,-3
49993754157,28,2,-22,-5,-6,-4,-4,3
49993769044,35,15,-7,11,10,2,2,0
49993769044,8,-1,-22,-25,-7,2,0,-4
49993769888,38,1,-23,-22,-3,-3,0,5
49993769888,31,-9,27,6,-14,1,1,-4
49993783451,16,1,-2,-15,0,-2,-2,-2
49993783451,-13,-9,5,-27,-8,-5,-3,-2
49993791666,3,-11,71,25,6,1,5,2
49993791666,30,25,-55,-13,9,3,-2,5
49993806032,33,-15,-12,4,-4,-3,0,0
49993806032,-10,-3,54,9,-4,0,-2,-1
49993814143,-25,-11,-102,-5,2,-2,1,-2
49993814143,27,37,60,-5,-1,1,0,0
49993829046,-16,0,-37,-5,4,0,-2,-1
49993829046,3,-10,-75,-55,-14,-4,-2,0
49993830046,14,9,12,34,-10,-6,-4,-2
49993830046,-57,-12,-26,-16,12,3,2,-1
49993843606,71,5,-9,-14,-9,-1,-3,-1
49993843606,35,8,14,15,0,-1,-3,-3
49993851741,-64,-14,7,27,5,1,-1,-2
49993851741,-18,-11,-8,-12,-14,-5,-2,-4
49993866073,-16,9,122,0,7,-1,2,1
49993866073,-9,-31,-108,26,0,0,0,-1
49993874171,-8,19,106,-26,-7,0,-2,-2
49993874171,-27,4,-26,-19,1,-1,-3,-4
49993889218,0,0,12,-10,-1,2,1,1
49993889218,6,3,-43,-8,4,-5,-2,-3
49993889842,2,-1,-57,27,-2,3,1,3
49993889842,-113,-14,33,17,-6,-4,-4,-9
49993903556,21,17,-6,-36,-4,-3,-4,0
49993903556,6,-5,-1,-33,-3,-2,-3,0
49993911749,4,1,-16,-15,-3,-2,1,1
49993911749,-63,-7,-38,3,4,1,0,5
49993926090,-54,-15,39,62,-2,2,1,-5
49993926090,-27,-13,-35,-3,6,-1,2,-1
49993934269,36,16,11,-49,-11,-7,-5,-3
49993934269,15,-2,11,31,2,1,2,0
49993949227,6,1,-43,-9,0,-2,0,-2
49993949227,-16,9,46,13,-3,1,0,1
49993949900,-11,0,-29,7,2,-1,-1,-6
49993949900,32,-4,47,20,10,3,0,0
49993963571,33,-5,2,-26,-13,-4,-5,0
49993963571,61,8,-13,23,3,2,0,1
49993971805,5,-17,24,-25,0,-3,1,2
49993971805,17,3,-51,10,0,-3,-1,2
49993986088,-16,-16,-61,-54,2,2,1,-3
49993986088,-3,13,70,-39,-9,-5,-3,-4
49993994263,17,-1,-15,-10,5,-2,-2,0
49993994263,7,0,68,4,-7,-4,-1,-2
49994009099,-31,-1,-73,-2,1,-1,-1,0
49994009099,10,5,108,27,-2,1,3,2
49994009894,-14,-2,-28,5,9,2,0,-2
49994009894,-42,-16,-46,-26,-3,-2,-2,-8
49994023575,20,-10,32,21,-5,-2,-2,2
49994023575,-10,-7,-35,-34,2,-1,-1,-5
49994031756,6,1,48,40,-4,-5,-2,-3
49994031756,27,-6,25,-23,0,1,-2,0
49994046083,-21,-17,-85,3,-3,-2,0,0
49994046083,46,-14,39,63,11,6,4,5
49994054224,-11,10,11,-35,-2,-2,-3,-8
49994054224,-36,-18,6,-66,-24,-4,0,-1
49994069214,18,-4,-45,7,1,-2,-2,-2
49994069214,7,7,46,46,5,-2,-1,5
49994069876,26,2,-50,5,2,3,0,2
49994069876,36,5,-35,3,5,0,1,3
49994083477,-75,20,44,8,-3,-3,-1,-5
49994083477,-82,-14,-53,-2,0,-1,-1,-4
49994091583,38,10,20,66,4,2,-1,4
49994091583,-11,15,-29,-67,-10,-3,-2,0
49994105991,33,9,106,10,12,-5,-2,4
49994105991,8,1,-31,31,-9,1,-1,0
49994114844,-19,-3,17,-32,1,1,0,-1
49994114844,39,-5,-17,39,-3,-1,-1,1
49994128472,-61,3,38,1,6,2,1,-1
49994128472,7,1,-48,-8,-1,-4,-2,-3
49994137387,7,-4,4,8,-2,0,-1,1
49994137387,-3,-16,44,28,6,1,0,-3
49994143575,-7,1,-128,-26,-6,0,2,2
49994143575,20,22,63,-65,-7,-5,-4,0
49994152336,-57,-8,-1,14,-5,-2,0,-1
49994152336,36,4,-26,26,8,-1,-1,-1
49994166097,11,0,22,-82,-10,-1,-1,-3
49994166097,-22,-4,-35,4,-1,0,0,-5
49994174899,26,1,-16,9,-3,-3,-2,1
49994174899,7,21,16,12,7,3,0,1
49994188588,23,6,14,5,-3,-1,-7,-11
49994188588,-16,-14,-48,-56,-16,-4,-4,-2
49994197376,2,-11,43,-36,-6,-4,-1,-2
49994197376,3,4,-30,22,1,-2,-1,-2
49994203587,4,3,21,46,3,-1,1,2
49994203587,31,3,17,6,10,3,2,1
49994212346,-15,2,-16,1,-6,-1,-2,0
49994212346,-8,3,-5,38,6,3,1,-5
49994226032,55,-12,-28,-39,-12,-3,-2,-1
49994226032,11,-15,-3,-43,1,-5,-3,-1
49994234870,-23,-15,-22,-37,-22,-6,-1,-3
49994234870,-8,-2,16,-50,-4,-2,-2,0
49994248544,-8,-18,-16,40,9,3,3,1
49994248544,42,33,65,49,1,2,2,1
49994257371,-34,-9,-26,-23,3,-1,0,0
49994257371,-26,-2,20,3,-11,-6,-3,-3
49994263595,33,-2,-40,-29,-1,-1,-2,-1
49994263595,-30,-3,65,8,10,4,3,1
49994272383,32,1,-59,90,7,1,0,2
49994272383,13,-4,-14,-93,-21,-7,-4,-3
49994286038,-2,15,37,83,7,-1,-1,0
49994286038,-32,-3,42,11,3,1,0,-1
49994294865,66,14,42,53,10,4,0,-2
49994294865,-17,-18,-50,1,-1,-1,0,-2
49994308601,24,0,7,-9,-6,0,0,4
49994308601,-29,31,-30,14,-2,-1,-3,-10
49994317365,-14,-1,40,-39,4,-3,-2,0
49994317365,16,-6,-62,3,-10,0,1,0
49994323541,-4,15,127,-11,0,-1,-1,-2
49994323541,8,-20,-102,29,2,2,1,3
49994332389,-71,5,39,20,10,2,1,-1
49994332389,22,18,112,8,5,-1,1,1
49994346019,13,-3,-60,-58,-14,-3,-1,-1
49994346019,9,-14,21,42,0,-1,-3,1
49994354865,-3,-14,-18,-21,-1,0,1,-2
49994354865,22,-3,4,24,8,1,0,2
49994368508,-36,-1,1,7,1,-2,0,-1
49994368508,-10,-4,-13,-13,-9,-6,-4,-3
49994377352,37,11,-10,-3,-5,-3,-2,0
49994377352,-8,2,40,60,8,3,1,3
49994383477,36,4,-5,-83,-6,2,1,7
49994383477,-62,-11,-29,4,6,-1,-1,0
49994392395,54,16,18,11,0,1,-1,-1
49994392395,-72,-16,-34,46,-3,-1,-2,-5
49994405997,-21,8,-23,22,6,-1,-2,0
49994405997,14,-27,102,20,3,1,0,3
49994414848,-15,-5,-59,-46,-8,-3,-1,-2
49994414848,19,11,29,-4,-2,-3,-2,0
49994428598,10,20,1,36,3,0,2,-7
49994428598,-6,3,-4,-42,1,2,3,0
49994437350,-4,6,83,33,-1,-3,-2,-2
49994437350,22,1,-57,-96,-8,-3,-1,-4
49994443389,-68,-39,27,60,5,1,-1,-4
49994443389,14,9,36,-2,-6,-2,-1,-3
49994452350,83,8,-25,-26,-1,2,0,-1
49994452350,-11,-19,-94,-8,7,1,0,6
49994466110,-16,-12,63,38,-6,-6,-6,-11
49994466110,8,7,-1,-1,-1,0,0,-1
49994474851,-4,-9,-52,-17,-4,-2,-2,-1
49994474851,9,0,21,10,-2,-2,-3,0
49994489033,8,6,-32,-15,2,3,0,2
49994489033,-14,1,39,20,-2,0,1,0
49994497331,-11,-7,-2,-5,2,-2,-3,0
49994497331,0,-7,28,3,-1,1,0,0
49994512377,-5,9,29,-68,-13,-4,0,1
49994512377,38,1,-42,-4,4,-4,-4,-5
49994513805,-53,-1,39,36,-4,2,2,2
49994513805,41,-1,-50,8,6,1,0,-3
49994525997,-57,-41,48,72,12,3,-1,-1
49994525997,3,1,-7,-59,-12,-2,-2,2
49994534872,19,4,-7,-22,3,-3,-3,1
49994534872,-31,8,92,27,-3,-3,-2,-6
49994548419,22,3,-52,-15,-2,0,-2,-2
49994548419,-9,-1,-28,35,2,-2,-3,-2
49994557383,28,-19,-2,-28,-4,1,0,-7
49994557383,20,27,32,9,5,2,1,0
49994572305,25,4,28,16,-2,-3,0,0
49994572305,-62,-38,-70,-86,-19,-7,-3,-6
49994573830,28,7,47,26,-5,-6,-3,-4
49994573830,6,1,-18,3,3,0,0,-1
49994586022,3,9,-3,10,4,0,0,0
49994586022,7,-4,10,26,4,3,3,0
49994594845,-6,8,21,11,2,3,0,0
49994594845,-53,-16,1,23,3,0,1,0
49994608607,26,6,-5,-54,-9,-4,-4,1
49994608607,59,1,-16,-30,-2,-5,1,-2
49994617359,-13,5,12,4,0,-1,1,0
49994617359,27,9,26,45,5,0,-1,7
49994632401,-13,-1,-4,14,0,1,1,-2
49994632401,20,27,8,9,2,0,-1,1
49994633806,-78,-27,-5,14,6,2,2,-2
49994633806,-22,-12,-45,-33,-14,-3,-1,1
49994645917,26,1,-32,-47,-8,-1,-1,-1
49994645917,8,-9,-41,20,-1,-2,-2,1
49994654865,-86,-13,-18,-5,-7,-5,-2,0
49994654865,13,4,8,-22,-1,-1,-3,-4
49994669261,12,3,-58,-47,-3,-2,0,0
49994669261,-7,0,50,32,10,3,0,1
49994675923,40,12,-61,-1,0,2,-1,-1
49994675923,3,1,-3,31,3,-2,-2,-2
49994692415,50,11,8,10,-4,-3,0,5
49994692415,-32,-5,5,-1,-1,1,1,-1
49994693871,32,13,28,3,2,-2,-3,-1
49994693871,-21,-18,-71,-49,-15,-5,-2,-5
49994706030,25,3,44,40,4,1,-1,-2
49994706030,-11,-5,-22,7,-2,-2,-2,-1
49994714848,11,4,-5,-21,-1,1,-1,1
49994714848,-8,7,48,72,10,1,2,0
49994729074,5,-1,-18,-22,5,2,1,0
49994729074,-6,7,29,28,-15,-4,-4,-4
49994736022,-22,-26,-15,-65,-4,-1,-2,-3
49994736022,0,3,30,29,2,-1,-1,-3
49994752328,19,4,-20,52,3,-1,-1,0
49994752328,-43,-14,-26,-4,6,0,1,1
49994753804,32,17,26,-4,-5,-1,2,1
49994753804,-6,3,-45,-23,-1,3,0,4
49994766047,2,-13,50,8,3,0,-1,-4
49994766047,61,10,59,4,1,-1,1,1
49994774826,13,-1,-32,-4,-4,-2,-1,1
49994774826,15,1,-1,-1,5,-2,-1,2
49994789334,-22,-1,33,-6,-12,-2,-2,1
49994789334,9,0,13,-68,-7,-3,-1,-3
49994795932,2,-1,-7,33,5,-1,-3,-1
49994795932,-10,-7,6,25,1,2,3,0
49994812428,-15,10,67,20,5,1,-2,-2
49994812428,-44,-28,-61,30,3,2,0,5
49994813829,18,16,-11,-11,-4,-2,0,3
49994813829,22,3,8,10,0,-4,-5,-8
49994826113,-59,-22,-60,-53,-10,-4,-1,-4
49994826113,10,7,-24,-70,-16,-4,-2,-2
49994834859,25,2,14,25,3,0,0,-1
49994834859,54,6,10,-30,-5,-3,-4,1
49994849098,-9,7,6,39,10,2,1,0
49994849098,15,-14,-19,8,3,0,-1,-2
49994856035,-26,-7,20,-3,-5,-2,1,0
49994856035,-2,-5,-56,-21,-8,-7,-5,-8
49994872405,-20,-23,-46,-81,-13,-4,-2,0
49994872405,-2,11,15,16,2,2,-2,-4
49994873802,14,-8,-7,23,5,-2,-1,0
49994873802,-17,-3,9,-13,-12,0,0,1
49994885851,-17,0,10,15,3,-1,4,1
49994885851,-47,28,49,24,5,3,0,2
49994894816,-11,-7,-27,-4,-4,-2,0,-2
49994894816,-26,-7,20,-23,1,-1,-1,0
49994909221,-11,-11,-23,60,5,1,-1,-3
49994909221,3,9,20,-65,-13,-4,-2,-2
49994915997,-20,-23,-14,18,-2,-3,-2,-3
49994915997,-5,-18,-54,-43,0,-1,-1,-3
49994932274,48,-1,22,32,-2,-1,1,5
49994932274,-35,-1,-38,49,11,1,-1,-7
49994933821,-13,-12,25,-2,-1,-1,-1,0
49994933821,-7,-5,12,-3,-3,-1,1,-4
49994946019,46,20,62,4,1,1,-1,-2
49994946019,17,-11,-69,-10,-4,-4,-2,1
49994954836,-62,-6,-29,-9,2,1,-4,-4
49994954836,32,22,47,37,-3,0,0,1
49994977615,-78,-22,-2,-104,-14,-4,-2,-2
49994977615,15,12,49,52,5,-3,0,2
49994978801,-2,1,37,-2,-5,-1,0,-4
49994978801,10,-6,-55,-10,1,-2,-3,-2
49994992339,-25,9,40,34,9,-2,-1,-2
49994992339,21,-4,16,-6,-1,2,2,2
49994993774,-9,1,-52,13,3,0,-1,-1
49994993774,27,0,34,37,5,3,2,-1
49995005852,51,6,0,-41,-7,-2,-5,-4
49995005852,17,-13,-53,-38,-12,-5,-2,-2
49995014887,2,9,55,29,12,5,3,4
49995014887,62,5,56,-24,-8,-3,0,-2
49995029093,-41,-13,-49,61,14,3,2,1
49995029093,22,13,16,32,0,1,-1,-2
49995035890,38,8,-17,-82,-12,-4,-3,-1
49995035890,-11,-11,19,18,1,1,-2,1
49995052292,12,6,1,26,1,-1,-3,-2
49995052292,-10,1,-3,32,12,1,-1,-1
49995053824,10,1,-2,-54,-15,-6,0,-1
49995053824,-71,2,29,8,-4,-1,-3,1
49995066003,-61,-5,-34,11,-1,-1,1,-1
49995066003,-3,-4,83,2,-1,0,-1,-1
49995074851,-35,-1,2,-2,5,-2,-2,-3
49995074851,-64,-8,32,2,3,1,0,-1
49995089120,-58,14,-8,7,-4,0,-3,-6
49995089120,59,6,5,-17,5,1,0,-1
49995096027,49,20,44,89,1,-2,-1,1
49995096027,-15,-2,-44,-90,-21,-5,-2,-3
49995112272,26,-6,14,11,3,-1,1,2
49995112272,-23,-12,10,28,5,4,3,-1
49995113777,9,-2,-62,-31,0,0,-2,-2
49995113777,-5,4,-32,18,1,-3,-1,-5
49995125979,-38,1,-10,-35,-8,-4,-1,2
49995125979,-23,13,24,-36,-4,1,3,5
49995134788,14,5,-2,49,6,-3,-3,-4
49995134788,2,10,33,-16,8,5,1,2
49995149641,41,-10,-66,-38,-11,-2,-3,0
49995149641,-64,-22,60,29,6,2,1,1
49995156015,-7,7,66,-30,-12,-3,-2,0
49995156015,29,-4,-76,10,8,-1,-1,-1
49995172429,66,4,99,7,4,1,1,5
49995172429,-49,3,4,11,2,0,-1,-2
49995173826,14,-14,-39,-19,-8,-4,-2,-3
49995173826,-21,5,26,-37,0,0,1,0
49995185966,74,-22,-35,14,-2,-1,1,1
49995185966,7,-2,-14,17,-1,-2,0,-4
49995195493,-17,-6,55,1,2,5,2,3
49995195493,-40,-28,7,26,-1,-3,-3,-2
49995209286,-17,-4,-77,3,4,-1,-3,-4
49995209286,57,7,-26,-38,-5,-4,-6,-1
49995215930,-20,1,2,23,2,2,1,1
49995215930,82,15,63,-9,-3,-1,1,3
49995232349,-30,-10,-5,4,-4,-4,0,-3
49995232349,14,9,1,8,-3,-4,-4,-1
49995233775,-4,-1,-38,-3,3,-1,-2,2
49995233775,-42,1,16,-1,3,3,1,-1
49995246045,-21,1,18,4,-3,-3,-1,1
49995246045,8,-7,20,42,-2,-3,-4,-5
49995254798,-4,-15,-61,-71,-7,-3,0,-4
49995254798,3,-14,-36,-60,-17,-5,-3,-3
49995269098,42,15,-14,8,-3,-4,-3,-1
49995269098,-45,23,-45,2,1,2,0,-5
49995276098,32,-22,29,59,2,0,-2,-2
49995276098,55,5,-55,-21,5,1,1,2
49995291573,-11,4,6,14,7,-2,-2,-5
49995291573,48,1,10,-54,-20,-6,-1,2
49995298315,-21,11,26,51,8,3,0,-3
49995298315,97,26,-9,-46,-12,-5,-3,0
49995305883,-21,8,1,4,4,2,0,0
49995305883,21,-1,-6,-28,5,0,1,2
49995314822,-18,6,-12,-2,-8,-4,-1,-1
49995314822,-6,-26,-65,27,4,1,1,0
49995329183,7,4,40,3,1,3,2,-1
49995329183,-10,-18,9,2,-1,-6,-3,-1
49995335894,-63,-5,3,-42,-7,3,2,2
49995335894,2,15,37,67,6,-2,-5,-2
49995351644,-26,-16,-105,-30,-4,0,0,-4
49995351644,0,-18,2,-83,-16,-6,-4,1
49995358460,-22,2,26,22,6,1,1,3
49995358460,66,12,17,11,5,3,-1,7
49995365982,-7,-3,49,32,4,-1,-1,-7
49995365982,-69,-26,-32,22,3,-1,-1,-2
49995374852,40,-13,28,-24,-15,-6,-2,-2
49995374852,-23,23,21,26,2,0,-1,0
49995389180,14,0,78,17,7,5,2,4
49995389180,17,11,0,-22,-5,-1,0,1
49995396021,27,16,-50,41,13,3,-2,-1
49995396021,-66,-16,0,-55,-13,-3,-2,-3
49995411746,6,2,-29,-20,-3,-2,-2,-4
49995411746,6,-8,-5,41,5,0,-1,-4
49995418477,66,20,13,3,5,2,1,-1
49995418477,-90,-23,-4,15,4,-1,0,1
49995425971,-53,-6,-20,-13,-8,-4,-1,1
49995425971,63,-4,-9,15,0,0,0,0
49995434817,-29,6,17,-21,-3,-3,-3,0
49995434817,6,-10,88,68,14,3,3,0
49995449154,65,-16,-24,-80,-19,-2,3,8
49995449154,-52,0,58,61,13,2,-1,-3
49995456009,18,-13,10,9,-8,0,0,1
49995456009,10,-13,-13,-57,-8,-5,-1,-1
49995471904,-17,3,5,16,1,0,-3,-2
49995471904,90,18,0,22,-4,-5,-5,-1
49995479797,-9,6,29,26,5,-2,1,-6
49995479797,-95,-13,-43,-28,-4,-1,0,-4
49995494812,8,22,31,18,1,-2,-3,0
49995494812,2,-4,-34,-22,-3,1,0,-1
49995496281,20,-6,-68,-32,5,2,-1,0
49995496281,-45,1,13,6,-8,-2,-2,-3
49995509225,-9,-5,-2,6,2,0,0,-1
49995509225,-8,13,-14,26,-3,-4,-4,-3
49995515919,0,1,49,-7,0,-2,0,1
49995515919,23,0,-11,23,-1,0,-1,-3
49995531776,-7,-7,-16,7,1,0,-1,2
49995531776,-9,-10,-12,-26,-1,-1,0,0
49995538479,32,-2,-47,2,-5,-4,-1,0
49995538479,76,-6,24,19,4,1,1,1
49995554816,-9,-14,27,14,2,0,-1,-2
49995554816,0,-4,6,-8,5,4,3,2
49995556303,-22,-14,-22,-23,-4,-3,-2,0
49995556303,3,3,-33,-7,-5,-2,-3,-3
49995569129,65,3,31,26,7,0,0,-2
49995569129,-16,-17,-71,-49,-10,-3,-2,1
49995576006,-20,10,19,-4,4,2,-1,1
49995576006,20,2,-7,69,5,-2,0,-1
49995591650,-15,10,38,-94,-12,-3,-4,-2
49995591650,-73,-4,-63,32,1,0,0,-4
49995598499,-46,-17,23,3,2,0,-1,-2
49995598499,-7,0,-9,20,3,0,-3,-3
49995614872,-43,-9,-63,44,-1,0,2,-3
49995614872,-58,-6,7,-17,-3,-2,-3,-9
49995616279,5,-1,25,-38,-12,-4,-2,0
49995616279,-3,1,-10,-1,4,1,1,1
49995629239,-8,1,27,5,1,-2,-2,-4
49995629239,53,25,27,10,-5,-4,-3,2
49995635990,17,-2,-72,6,4,0,-2,-4
49995635990,-68,-4,30,0,-1,0,-2,-3
49995651766,51,31,24,-38,-15,-4,-5,-4
49995651766,44,5,35,32,7,0,0,1
49995658351,7,0,-53,-43,2,0,0,0
49995658351,29,1,-10,-24,-5,-1,1,3
49995674890,-37,14,0,30,5,-1,-2,0
49995674890,-84,-14,-43,-11,0,0,0,-1
49995676293,-80,-16,9,0,-11,-5,-2,-6
49995676293,31,2,4,-23,2,0,0,0
49995689209,-19,-12,-12,-1,-2,2,2,7
49995689209,73,18,58,22,9,1,2,6
49995696030,-36,-3,-44,15,-7,-4,-4,-5
49995696030,-21,14,25,-25,-10,-4,-2,-4
49995711690,-55,-23,-21,31,6,-1,-3,-4
49995711690,18,-14,13,-27,-2,1,-1,2
49995718454,59,16,-3,4,1,1,2,4
49995718454,1,7,57,-11,-4,-2,-3,-1
49995734854,15,6,11,44,10,0,1,-2
49995734854,-8,-4,11,-62,-11,-1,-2,1
49995736278,-33,6,-10,39,7,1,-2,-3
49995736278,25,-28,6,-17,-2,-2,0,-2
49995749149,-47,-10,17,8,-3,-1,-2,1
49995749149,-35,-15,-43,-15,0,0,1,-4
49995755834,23,16,-10,-20,-8,-3,-3,-3
49995755834,-13,10,-6,39,1,-4,-3,-2
49995771690,47,-15,-45,-54,-5,-4,-3,-6
49995771690,5,-12,-4,33,0,-2,-1,-1
49995778432,12,6,30,12,2,1,-1,0
49995778432,-34,-8,-34,8,5,-2,-4,-4
49995794886,49,8,49,-24,-16,-2,0,-2
49995794886,7,-5,-61,33,3,-4,-2,-3
49995796343,0,0,52,-35,3,2,2,4
49995796343,-49,-2,-18,27,1,0,-2,-2
49995809224,24,11,-6,-72,-5,-3,-2,-2
49995809224,57,19,67,16,-1,0,1,-1
49995816021,-33,-9,-71,47,5,1,-1,-2
49995816021,0,-3,33,-1,1,2,0,-1
49995831676,-15,4,-16,4,-5,-2,-1,0
49995831676,-6,-15,-36,21,0,-2,-2,0
49995838444,46,9,23,1,1,-3,-4,2
49995838444,17,3,-67,-53,-16,-4,0,-10
49995854793,-12,-3,22,22,7,-1,-1,1
49995854793,17,6,55,22,1,-1,0,1
49995856323,17,4,-53,4,-3,-4,-4,-3
49995856323,9,-27,63,-11,3,3,5,6
49995868891,32,7,-18,20,6,1,0,1
49995868891,16,11,57,17,5,4,2,-3
49995877297,-86,-23,6,8,-1,-3,0,-2
49995877297,19,17,-11,3,-7,-2,-2,1
49995891638,10,7,-53,-14,-3,-3,-2,-4
49995891638,-14,3,50,5,2,1,2,0
49995898491,13,-6,15,13,0,-2,-1,0
49995898491,-13,3,-26,-27,0,-1,0,3
49995914938,-7,-3,24,11,1,0,0,0
49995914938,-23,7,0,14,-3,0,-2,2
49995916250,-2,-13,-39,-21,-4,-1,0,-8
49995916250,-3,-5,1,22,0,-6,-3,-2
49995929244,12,-5,-47,-9,3,0,-1,2
49995929244,-17,-6,-1,-26,-5,-4,-3,0
49995935960,7,-9,17,-2,-3,2,1,1
49995935960,9,11,53,17,3,2,-1,2
49995951720,-18,-13,-91,-15,0,0,0,-3
49995951720,15,6,15,4,1,0,0,1
49995958445,23,15,68,12,3,0,0,7
49995958445,-27,-39,-32,-16,-2,-5,-1,-4
49995974848,-4,-5,14,-36,-14,-1,1,1
49995974848,6,5,-39,-32,-7,-3,-1,-3
49995976356,51,4,79,32,4,0,2,3
49995976356,3,12,-16,20,6,0,-3,-1
49995988466,24,4,4,42,6,0,0,-1
49995988466,-12,1,7,-9,0,0,-1,-3
49995997316,48,6,-4,-38,-8,-4,-2,1
49995997316,-88,-15,-1,35,4,1,2,-4
49996011563,36,13,12,-3,-2,0,-2,-4
49996011563,13,-2,-27,-27,-6,-4,0,0
49996018341,15,3,14,8,2,2,1,0
49996018341,32,3,-51,-18,-3,0,0,4
49996034852,-2,6,44,8,1,-2,0,-1
49996034852,20,4,-75,-20,-3,-1,-3,-4
49996036256,-40,-8,50,23,3,1,3,-1
49996036256,26,0,-63,4,-2,-1,-3,-1
49996048468,10,5,-1,-11,-1,-2,-1,-4
49996048468,73,15,63,-51,-13,-3,0,1
49996057322,96,-8,-21,-17,-6,-3,-3,-3
49996057322,-44,34,80,33,7,4,1,-3
49996071622,-22,-10,27,42,5,1,-2,-2
49996071622,-3,-14,-71,14,5,2,1,2
49996078431,-89,19,-76,-22,-4,-2,-2,-9
49996078431,15,-10,111,-14,-6,-1,-1,2
49996094781,65,3,-52,27,1,0,-2,-4
49996094781,-36,-18,-6,-13,0,1,0,-3
49996096287,46,0,35,-16,0,1,-1,2
49996096287,30,11,-28,28,-1,-2,-2,0
49996108431,-91,-5,5,-65,-7,-4,-1,0
49996108431,-46,-22,35,38,3,-3,-1,-1
49996117311,39,-5,-37,-1,2,1,1,-1
49996117311,-4,9,5,37,1,-3,-1,3
49996131677,24,13,13,-25,0,4,1,2
49996131677,-76,-21,-3,-17,3,-2,-2,-4
49996138437,7,-16,5,15,-6,-2,-3,0
49996138437,26,6,-25,-36,-4,-1,0,-3
49996155285,-15,-26,-6,39,4,-1,-1,0
49996155285,54,0,45,-8,-1,3,2,0
49996156732,-54,-1,-48,-9,2,-3,0,-1
49996156732,16,-5,48,-4,-3,1,0,-1
49996168323,2,-23,-26,-23,-8,-4,-2,-2
49996168323,-5,7,-12,14,3,2,2,1
49996177264,39,6,81,50,5,1,0,2
49996177264,-64,-15,-67,-80,-10,-1,-1,-7
49996191652,-1,17,37,39,1,-1,-2,-1
49996191652,-8,-5,-4,-8,-1,-2,-2,-2
49996198489,35,11,-22,-5,-3,-1,0,-2
49996198489,-35,-33,-5,3,0,0,-2,0
49996214004,-8,-1,-20,-16,-1,-2,-1,-1
49996214004,15,15,-42,-3,-7,-4,-3,-1
49996220978,-12,-4,-21,-2,-2,-2,-3,-7
49996220978,7,17,0,8,1,-1,-1,0
49996228610,-9,-2,-6,0,2,1,3,4
49996228610,-25,-9,66,31,1,0,-3,-3
49996237320,52,-13,-2,-91,-4,2,4,6
49996237320,50,1,-14,-1,-2,-3,-3,2
49996251660,10,6,39,-1,-8,-1,1,-1
49996251660,1,12,-47,-15,1,1,-1,-1
49996258472,-29,22,30,39,-5,-2,-1,4
49996258472,5,-5,-20,-64,-6,-1,-1,2
49996274266,-4,-2,43,18,-3,-5,-4,-1
49996274266,10,0,4,14,2,1,1,2
49996281007,-59,-13,-27,-3,4,1,0,-1
49996281007,33,9,34,36,-4,-4,-3,-2
49996288459,-52,3,-9,10,6,1,1,-1
49996288459,7,1,5,-14,-3,0,0,-1
49996297288,55,-10,-9,3,-1,-2,1,3
49996297288,13,24,-10,4,1,0,-2,-6
49996311674,22,-5,1,-10,2,3,-2,1
49996311674,-4,0,-3,-2,-3,-4,-2,-2
49996318461,-20,-6,-18,2,5,0,-1,2
49996318461,25,-7,43,12,0,0,3,4
49996334123,7,1,18,-7,-3,0,-1,0
49996334123,-1,1,-41,7,2,1,1,4
49996340809,-30,-22,-53,-32,-4,-2,-3,-10
49996340809,48,9,-32,-5,-4,-6,-5,-3
49996348442,-32,-13,10,19,4,0,-1,-3
49996348442,35,-5,-10,-21,-4,0,-1,0
49996357303,-42,19,59,5,0,-1,0,-3
49996357303,-9,-18,-83,10,4,-1,1,-2
49996371643,28,-5,0,-25,-9,-1,-1,2
49996371643,-30,2,48,28,2,-1,-1,-2
49996378477,-39,-7,40,29,5,5,1,2
49996378477,21,-19,-44,7,-2,-1,0,0
49996394142,6,-15,-3,-57,-4,-3,-2,-4
49996394142,-17,-1,-11,14,-6,-4,-1,1
49996400908,-4,1,0,14,5,-1,-1,-3
49996400908,-23,12,79,-4,-2,0,-1,-1
49996417160,7,-14,-96,20,0,0,-3,-3
49996417160,3,5,13,-16,-1,1,-1,-2
49996418710,-8,0,-3,11,-2,-3,-2,1
49996418710,-11,7,12,0,4,1,2,-1
49996431503,28,-9,-3,1,-2,-2,-4,2
49996431503,-1,11,8,-7,-5,-4,-3,-4
49996438534,-8,-1,-18,-27,-9,-2,-1,-2
49996438534,3,-3,-2,10,2,0,1,-3
49996454047,-35,-5,19,-36,-5,-1,1,-3
49996454047,-13,-23,-26,-23,3,0,1,-1
49996460979,43,3,-14,40,3,-1,-1,0
49996460979,-9,7,33,-51,-10,-1,-3,-2
49996478418,64,9,-1,33,4,0,0,-1
49996478418,24,20,23,24,2,1,2,2
49996483493,-19,-12,60,-21,-6,-3,-1,-3
49996483493,-27,-20,-104,-2,-4,-3,-2,-3
49996491717,8,10,17,8,-1,-4,-3,-2
49996491717,-48,-23,-41,-25,-4,0,-5,-2
49996498341,7,7,20,0,-6,-3,-4,-4
49996498341,-32,8,60,20,11,5,3,0
49996514167,10,8,-56,-7,-4,-3,-2,0
49996514167,41,-9,-31,-57,-9,-4,-1,3
49996520972,18,7,35,11,0,1,0,-4
49996520972,18,14,-33,43,7,-1,-1,0
49996537911,-86,-9,-11,-3,9,1,0,-2
49996537911,26,12,30,0,-7,-3,-2,-2
49996539252,-6,-9,-70,-26,-4,-4,-2,-3
49996539252,23,1,56,9,-2,0,2,3
49996551674,-70,-9,9,27,8,4,2,2
49996551674,18,21,64,17,3,-2,-4,-4
49996558356,-19,-11,-77,-13,-5,0,0,0
49996558356,14,-18,5,-7,3,1,0,-3
49996574126,14,28,97,6,-4,-1,0,-1
49996574126,-41,-22,-20,-9,-4,-3,0,0
49996580787,21,11,-15,6,-1,-2,-1,-4
49996580787,55,10,51,19,2,0,-1,3
49996597187,2,-7,-34,14,-1,0,1,-2
49996597187,-52,-17,17,20,0,1,-2,-3
49996598725,-31,-16,12,-32,1,0,-1,1
49996598725,52,6,12,2,-2,0,-2,5
49996611585,-14,-19,-8,20,1,3,2,-2
49996611585,25,14,-9,21,-1,-4,-2,-1
49996618497,3,-4,-4,-14,3,1,-1,-1
49996618497,-24,-8,-5,-8,-1,0,-1,-2
49996634089,20,5,20,-13,-5,0,2,-2
49996634089,75,8,0,9,3,0,1,1
49996640963,-9,13,62,62,6,-1,1,1
49996640963,-5,-3,-27,-49,-5,-2,-3,-2
49996657347,7,3,-40,-69,-13,-8,-5,-3
49996657347,79,13,33,63,5,0,1,-2
49996658755,-85,-24,-17,-39,-5,-3,-1,2
49996658755,48,39,31,54,6,-1,-1,-1
49996671694,2,-11,11,1,1,2,1,1
49996671694,-27,-9,-2,-8,-3,-2,-4,-4
49996678317,-4,3,13,13,-4,-2,-2,-1
49996678317,-45,-11,78,-12,-1,0,1,0
49996694164,8,-4,-52,27,-3,-4,-2,-1
49996694164,-28,5,25,-79,-6,0,1,-1
49996700844,-16,2,-6,23,5,3,-2,-1
49996700844,-3,-10,0,-23,-1,1,0,-1
49996717109,42,17,65,-3,-2,-4,-4,0
49996717109,-30,-23,-56,27,8,2,2,1
49996718717,52,23,-21,1,-1,-3,-1,-3
49996718717,-7,-10,-48,-13,0,2,0,1
49996731602,20,-6,13,13,-5,-2,-1,-1
49996731602,-15,10,-27,-17,-2,-1,0,-2
49996738364,67,6,15,-15,-4,-3,-1,3
49996738364,-47,-20,7,21,0,-1,0,-1
49996754083,14,12,9,2,1,0,-2,0
49996754083,-20,-6,17,11,2,0,1,0
49996760963,-1,-1,4,-26,-3,-4,-3,-5
49996760963,-16,-24,-35,-47,-10,-1,-2,-1
49996777326,-33,-4,3,-22,-3,-1,-2,-2
49996777326,7,-4,19,34,2,-2,-1,-3
49996778750,-67,-22,-25,13,1,2,-1,-4
49996778750,5,20,-4,12,2,-2,0,-4
49996791507,7,8,1,14,4,3,0,0
49996791507,-19,-28,33,-77,-14,-2,-2,0
49996798451,9,-1,14,11,-3,0,-2,-2
49996798451,-15,13,-27,14,-1,-3,-4,-4
49996814169,7,20,56,3,2,2,1,1
49996814169,2,14,-7,22,4,0,-1,0
49996820805,12,-10,-8,4,-5,-1,0,1
49996820805,-35,11,17,15,0,2,0,-6
49996837151,-39,-11,17,-21,-5,-1,-1,-2
49996837151,13,0,-20,9,1,-3,-3,-1
49996838724,8,8,22,-35,-2,-2,1,-1
49996838724,19,-20,-9,31,0,-4,0,2
49996851522,5,1,16,23,2,0,0,0
49996851522,-57,-4,-9,6,-2,2,0,-4
49996865969,29,-9,-65,1,1,0,0,4
49996865969,-7,-6,46,2,-2,-2,0,0
49996874143,-36,-12,-52,-2,3,0,1,4
49996874143,24,4,15,-31,-7,-5,-1,-1
49996880881,13,14,39,27,1,-1,0,0
49996880881,-20,-32,-88,-25,4,1,3,1
49996897235,40,-11,-77,-12,-9,-1,0,4
49996897235,-25,23,32,39,7,1,-3,-5
49996898754,-23,-25,8,-21,-4,-1,1,-1
49996898754,2,10,22,-15,-6,-5,-3,-1
49996919103,-16,-10,15,19,3,-1,-1,-3
49996919103,28,-16,7,41,5,-1,-2,-1
49996919780,15,13,7,-45,-7,-1,-2,-3
49996919780,-23,2,4,29,1,-1,-3,-3
49996934788,-3,1,52,-14,4,0,2,-1
49996934788,28,-14,-101,-14,-10,-5,-2,-2
49996940944,-10,3,27,-2,0,-1,-1,0
49996940944,34,16,-2,3,-2,-2,-1,1
49996956427,-3,-8,38,-19,1,1,2,-2
49996956427,21,4,10,26,2,0,0,1
49996957395,-14,-4,-16,-12,-2,0,-1,1
49996957395,14,4,-11,-13,-3,-2,-2,1
49996986527,23,6,-9,-13,0,-2,-3,-4
49996986527,-82,-8,16,5,6,3,2,-2
49996987216,-43,-12,40,26,-5,-6,-2,-3
49996987216,-10,-13,-46,-11,-1,1,-2,-2
49996994747,-54,-13,86,22,3,-1,-1,-1
49996994747,31,5,-12,9,3,0,-1,3
49997000790,7,5,-13,-36,-1,-1,-1,-2
49997000790,-9,1,-6,5,-1,-1,0,-2
49997016633,16,6,-16,2,-1,1,3,0
49997016633,43,-20,-29,-16,-3,-2,-2,-2
49997017219,-12,-6,-4,39,4,0,1,0
49997017219,16,20,67,-10,-4,-1,0,2
49997032241,11,-12,-118,-36,-7,-2,-3,-4
49997032241,-11,8,48,0,2,-1,1,3
49997038485,6,-9,-48,-27,-11,-5,-4,-5
49997038485,-12,4,18,11,3,-1,0,-2
49997054744,37,-2,23,31,4,0,-1,3
49997054744,-18,0,57,6,-3,0,1,1
49997060865,17,13,-23,20,0,-3,-3,-1
49997060865,-56,-17,-20,-51,-13,-1,-2,-2
49997076594,-2,16,24,9,-1,-3,-4,-4
49997076594,-1,5,-34,3,0,-1,0,2
49997077199,-23,11,40,3,4,3,-2,-2
49997077199,10,-20,-42,-19,-6,-4,-1,-1
49997092739,32,13,-24,22,-1,-1,-3,-1
49997092739,-25,-9,-12,-20,-5,-1,0,1
49997098307,18,20,8,13,2,-1,-1,-1
49997098307,14,-14,-32,27,4,-1,-1,-1
49997114708,26,4,-34,-17,-4,1,-1,-1
49997114708,10,7,4,-18,-5,-4,-1,-2
49997120947,-4,-7,25,16,4,3,1,1
49997120947,-32,28,15,-41,-4,-4,-2,-4
49997136395,62,12,-35,2,-1,-3,-2,0
49997136395,15,15,26,6,3,1,0,-3
49997137381,-6,-18,43,71,6,0,2,2
49997137381,-58,0,-22,-85,-10,-2,-4,-10
49997152225,17,-6,33,24,1,-1,1,2
49997152225,44,1,-39,-43,-9,-2,-2,-5
49997158483,-14,-16,-57,15,-1,-3,-1,-5
49997158483,76,17,60,49,4,-2,-2,7
49997174790,-44,-2,1,-1,-1,1,-2,-1
49997174790,-37,-4,50,6,2,0,-1,0
49997180818,5,-10,-32,-28,-3,1,-1,-1
49997180818,2,-14,18,34,4,2,0,1
49997195914,31,12,-10,-11,1,-1,0,-3
49997195914,-14,7,35,4,3,0,0,-2
49997203404,19,11,0,2,-3,-3,-2,1
49997203404,19,-4,27,88,10,2,-1,0
49997212229,-16,4,6,-97,-20,-6,-3,-5
49997212229,14,-15,-67,5,4,2,-1,0
49997218384,-13,11,40,-29,-2,-3,-3,-1
49997218384,21,15,16,32,8,0,0,0
49997234853,-20,-42,-75,45,2,-2,-3,0
49997234853,-69,-6,-39,-13,-3,-2,-4,-10
49997240907,14,3,3,-14,-3,0,0,0
49997240907,0,0,-44,-11,0,1,1,-2
49997255890,0,-13,37,3,6,1,0,3
49997255890,24,1,19,-25,-12,-5,-3,0
49997263401,13,-32,-51,36,7,2,0,-4
49997263401,3,7,5,-14,-7,-4,-2,-1
49997272248,-23,3,14,-18,-3,-3,-1,-3
49997272248,-3,-4,-24,55,4,-2,-2,1
49997278330,42,10,-20,-101,-10,1,1,1
49997278330,-31,8,32,12,3,0,0,1
49997294762,-17,-7,-20,27,-1,-4,-4,-2
49997294762,-11,-7,9,24,4,0,-1,2
49997300805,25,11,12,17,5,-1,0,0
49997300805,15,1,-32,-42,-8,-2,-2,0
49997315871,-20,4,34,10,2,-1,-3,-2
49997315871,-6,-20,7,-6,0,2,1,0
49997323349,-51,5,38,1,-2,-2,-1,-1
49997323349,-35,-24,-36,-11,2,0,-2,-5
49997339054,18,25,97,29,4,0,-1,-1
49997339054,25,-5,-68,-111,-21,-8,-4,0
49997339769,-13,-1,29,40,10,1,3,-1
49997339769,-21,0,33,17,-6,-5,-5,0
49997354844,-7,-6,-46,-17,4,3,1,1
49997354844,23,7,33,48,5,2,2,0
49997360863,30,-3,-2,-11,1,0,0,3
49997360863,18,11,-11,3,-4,-3,-3,-2
49997375950,2,-17,8,-31,-3,1,1,-1
49997375950,60,11,27,36,1,-2,-3,2
49997383357,-22,-7,-37,-36,-5,-1,0,0
49997383357,-24,-14,15,-15,-5,-3,0,0
49997398988,-27,-3,-1,6,2,-1,0,0
49997398988,-5,15,-11,1,0,-2,0,-2
49997399848,4,-9,14,19,4,2,1,0
49997399848,-78,-20,8,8,2,0,-1,0
49997421658,-26,-1,-33,3,-9,-6,-4,-7
49997421658,-47,6,-23,13,6,0,-1,-3
49997422229,14,-15,-10,-9,2,2,1,0
49997422229,27,1,-15,5,-2,-1,0,-2
49997435940,-22,-8,33,-2,2,0,1,2
49997435940,-8,14,-63,1,-6,-7,-3,-3
49997443417,-13,7,29,-15,-7,-1,-3,-2
49997443417,36,-2,20,-15,0,1,0,3
49997459077,5,-4,-16,35,3,-2,-1,-2
49997459077,18,1,-4,-21,0,3,2,4
49997459773,-11,26,11,-81,-13,-8,-4,-3
49997459773,-14,-26,-7,23,5,1,0,0
49997473427,12,13,47,-10,0,-2,0,0
49997473427,-51,-27,4,17,3,3,-1,0
49997480925,-58,-9,-30,18,0,2,0,0
49997480925,66,13,-10,4,-2,-4,-3,-8
49997495885,-24,-20,0,19,3,1,0,0
49997495885,-26,-9,27,-29,-3,-1,-3,-4
49997503427,0,-3,-13,-11,1,-3,-2,-5
49997503427,22,-5,-3,-7,1,0,1,1
49997519071,11,-4,-26,0,1,2,0,2
49997519071,3,-7,43,17,1,0,0,-3
49997519750,14,-15,-76,16,-2,-1,-2,3
49997519750,-17,3,1,-30,-6,-2,-2,-5
49997541616,3,6,12,-8,2,-1,-1,1
49997541616,15,5,-25,-13,-4,-1,1,4
49997542170,-9,9,56,9,-2,-3,-2,-3
49997542170,25,14,41,22,1,-1,1,0
49997555953,-45,-13,-46,-13,-3,-1,0,1
49997555953,-46,-22,-36,-2,-2,0,-1,-2
49997563445,20,-20,-20,12,-1,-2,-3,-2
49997563445,4,5,1,4,5,4,1,2
49997579093,40,-12,39,50,-1,-1,-4,-4
49997579093,5,14,-3,-76,-5,-1,-1,-6
49997579712,7,-10,-58,11,-4,-4,-2,-2
49997579712,0,-5,12,-24,-10,-5,-2,0
49997593489,-10,13,-46,-18,-6,-2,0,0
49997593489,0,-8,10,34,7,-1,0,-1
49997600972,16,9,63,44,7,6,3,0
49997600972,71,4,-46,3,0,0,0,3
49997615921,12,5,5,-6,-5,-3,-2,2
49997615921,53,17,37,23,-3,-2,-4,4
49997623283,-24,0,14,-67,-12,-6,-5,-3
49997623283,1,4,27,12,4,-1,0,2
49997647363,6,0,-40,-4,0,-1,1,-1
49997647363,6,-2,11,22,6,-1,2,0
49997647866,62,9,-11,10,-4,-3,-3,1
49997647866,9,1,13,-19,0,1,-1,-2
49997653406,-10,-8,-10,-5,-3,-2,-2,-2
49997653406,42,5,33,19,0,0,-1,4
49997660897,-27,14,56,-19,3,4,3,2
49997660897,-10,-1,-18,22,0,-2,-3,-1
49997675803,45,14,-2,-25,-4,-1,-1,-4
49997675803,16,2,-1,-6,-3,0,1,5
49997683298,26,7,60,29,0,-2,0,3
49997683298,-36,1,-48,7,6,0,-4,-4
49997700358,2,20,14,28,2,1,-1,-1
49997700358,-21,-23,22,-18,-2,0,0,-1
49997701187,-12,-8,-12,-8,-6,-2,0,-2
49997701187,-61,-5,47,-13,3,0,1,-6
49997713427,48,11,-40,-10,-3,-3,-3,1
49997713427,-5,-11,75,25,2,1,-1,-4
49997720883,-30,-11,-114,15,3,-1,-2,-3
49997720883,22,0,39,-46,-12,-4,1,1
49997735933,-25,-8,19,-7,0,1,0,-8
49997735933,38,8,8,1,-3,-2,0,0
49997743411,5,17,41,13,4,2,2,2
49997743411,27,-10,-97,26,-4,-1,-4,-3
49997759084,3,-6,-11,-65,-12,-6,-4,-1
49997759084,-5,9,-37,-1,3,-1,-2,-2
49997759672,-45,-18,-47,-9,0,0,0,-1
49997759672,-13,17,73,45,10,4,4,1
49997773385,-59,2,-6,-68,-10,-4,-2,-1
49997773385,7,12,69,24,-1,-1,1,-1
49997780920,1,-1,-6,17,3,1,1,-1
49997780920,-17,-9,-6,-12,-2,0,-1,1
49997795943,-46,-14,3,25,4,4,2,-2
49997795943,-51,-4,-49,-16,-4,-3,-1,-3
49997803476,-25,10,21,-2,-1,-3,-4,-9
49997803476,-34,-23,-42,2,0,1,1,-1
49997819076,8,0,39,-16,1,0,2,4
49997819076,-38,-10,-30,-4,-5,-1,0,-5
49997819651,41,-4,-32,-61,-11,-5,-4,-2
49997819651,20,12,-7,51,3,-3,0,0
49997833383,-6,-5,-20,-67,-4,-2,0,-3
49997833383,-30,-2,28,-1,-3,-3,-1,2
49997840953,30,5,0,19,1,-1,0,0
49997840953,5,-3,20,7,-1,-1,-1,0
49997864081,3,3,32,57,10,2,-1,-1
49997864081,38,-5,-12,-17,-1,1,-2,-1
49997864640,-3,-3,-12,8,-1,-1,-1,-2
49997864640,-7,21,6,-28,-4,-3,-3,-2
49997879060,-56,-60,-10,36,2,0,0,5
49997879060,-18,3,-59,-20,-1,0,-3,-9
49997879656,-4,12,98,12,-3,-1,0,1
49997879656,9,-8,-2,-16,2,2,0,0
49997893416,99,27,-51,18,0,-1,0,3
49997893416,-16,8,-23,-41,-12,-9,-5,0
49997900863,-10,-33,-60,21,4,-1,-1,-3
49997900863,-26,-14,-21,-21,-1,1,1,1
49997924089,48,26,52,32,2,-1,-4,-6
49997924089,18,-3,73,27,5,2,1,5
49997924688,36,-15,-59,-54,-6,-1,-1,-5
49997924688,25,20,15,-8,-6,-4,-2,-1
49997938345,29,-7,-89,20,-1,-1,-2,-1
49997938345,-33,-19,8,-2,-1,-3,-2,-3
49997946514,-5,17,68,18,0,0,0,2
49997946514,52,-8,-49,8,3,1,1,1
49997953434,-12,18,19,17,6,2,-3,-4
49997953434,40,3,18,-48,-8,-2,0,3
49997960916,-24,-14,14,12,-1,-2,-1,-4
49997960916,21,-5,-8,15,3,0,-1,0
49997977221,-9,7,56,45,-4,-4,-1,2
49997977221,38,11,-59,11,5,0,1,0
49997983369,-11,2,40,13,1,-1,0,4
49997983369,-38,-12,-11,-26,-7,-2,0,-1
49997998949,29,20,68,-4,0,-1,0,0
49997998949,-104,-30,-70,9,1,1,0,-1
49997999893,20,-10,-5,-1,-4,-3,-2,-1
49997999893,20,14,-11,-2,-1,-2,-1,-7
49998013347,-53,-14,-1,-12,-4,-5,-1,0
49998013347,-36,2,-47,-12,1,2,3,-1
49998020857,26,23,-35,27,4,-3,-2,2
49998020857,-99,-33,46,1,0,0,0,-5
49998035884,15,0,-11,-77,-15,-5,-3,-5
49998035884,23,-13,24,37,9,4,1,1
49998043330,-8,-5,-14,-52,-9,-1,-2,-6
49998043330,59,30,11,35,-1,-2,-1,4
49998059066,-14,8,42,25,1,2,0,0
49998059066,32,1,-46,-1,2,0,-2,-3
49998059704,-46,-12,27,4,2,-2,-3,-1
49998059704,-88,-20,-47,-37,-7,-2,-3,-1
49998073346,-27,10,48,4,6,1,3,1
49998073346,38,6,25,7,-3,-2,-4,-3
49998080908,35,2,26,16,2,4,2,0
49998080908,33,6,-4,-6,1,-2,-4,-2
49998095788,-51,-5,20,29,4,2,1,1
49998095788,56,38,62,6,-5,-2,-3,1
49998103416,3,-7,-47,-33,-5,-1,1,2
49998103416,51,-5,42,-9,-2,-3,-1,-5
49998118260,50,-18,-16,15,7,0,-1,4
49998118260,68,34,73,43,6,2,1,-1
49998126604,-23,-21,-45,28,2,0,0,-1
49998126604,3,-4,-44,-54,-11,-4,-1,-1
49998133400,42,13,-69,-3,2,-1,-1,-4
49998133400,-5,-23,-29,-47,-12,-6,-3,-2
49998140934,-86,8,58,22,5,0,1,1
49998140934,-23,-11,-70,-5,1,0,-1,0
49998155817,19,0,-4,-16,-2,0,-1,-1
49998155817,-28,-1,7,-2,0,-2,0,-2
49998163300,19,-2,16,3,-4,-4,-3,-2
49998163300,2,-8,25,18,2,0,-1,-2
49998178263,-75,1,26,-10,-7,-2,-1,-6
49998178263,20,-13,-109,-46,-3,-3,-1,0
49998186454,-17,-4,62,10,3,-2,-2,-2
49998186454,38,0,38,-6,-3,-1,0,1
49998193412,-48,-27,-50,9,5,1,-1,1
49998193412,-72,-13,17,14,-5,1,0,-4
49998200864,-7,12,-29,23,5,1,-1,-2
49998200864,51,20,12,-11,-1,0,1,3
49998215918,13,-5,11,-27,-10,-5,-3,-5
49998215918,-3,7,58,18,7,1,1,1
49998223420,-1,5,-63,14,-2,-2,-2,-2
49998223420,-40,1,39,27,3,1,0,-2
49998238411,2,-4,-5,-18,0,1,1,5
49998238411,22,-6,-31,7,-3,-3,-4,-5
49998247146,94,15,59,21,5,2,1,7
49998247146,-48,5,29,-16,1,-4,-3,-10
49998253380,-11,-9,2,-27,-4,-1,0,0
49998253380,2,-13,-52,10,-4,-1,0,0
49998260729,2,-3,8,-4,0,1,0,0
49998260729,20,8,9,11,-2,-3,-1,1
49998275883,65,-5,-58,8,-1,0,-1,-2
49998275883,-11,23,29,-6,-1,-2,-2,-3
49998283310,-10,-6,-31,1,-2,-2,-1,-4
49998283310,2,-21,8,-20,-2,0,0,3
49998298293,-14,6,-9,-3,1,-1,-1,-1
49998298293,-5,-8,37,24,2,0,-1,1
49998306519,80,7,-11,17,-1,-3,-2,-6
49998306519,-92,-16,-29,-58,-3,1,0,2
49998321449,14,18,22,16,-2,-1,-2,-2
49998321449,13,-8,-32,-13,0,0,-1,-2
49998322245,10,12,-3,18,3,1,2,4
49998322245,-25,-15,-3,-9,3,-1,0,-4
49998335915,30,22,20,10,1,-2,-2,-3
49998335915,1,-8,-2,-36,-15,-4,-1,1
49998343310,-16,-2,28,-13,-2,-2,-2,0
49998343310,52,7,-4,27,-2,0,-2,1
49998358418,-12,-9,-17,-26,-2,-2,-1,1
49998358418,3,7,32,28,7,1,2,0
49998366667,-63,-2,-26,-49,-10,-4,-5,-3
49998366667,-23,2,19,30,-5,-4,-1,2
49998381461,-26,-7,3,-31,-1,0,0,-1
49998381461,11,10,-11,7,2,-3,-2,-3
49998382201,-105,-23,12,-8,-2,3,-1,0
49998382201,82,44,98,39,6,3,3,1
49998395922,-44,-6,-16,-9,-9,-5,-3,2
49998395922,-54,-1,3,-28,-1,-1,-2,-7
49998403285,22,4,-10,-19,-4,-3,-3,-1
49998403285,29,4,-14,31,2,-1,1,0
49998418379,-27,-6,33,28,3,1,3,0
49998418379,6,6,-10,-1,-1,0,2,-1
49998426611,28,-1,14,12,5,0,2,1
49998426611,-25,-10,-34,-13,-6,-1,-4,-2
49998441613,-12,-9,-44,-36,-5,-3,-3,0
49998441613,-6,1,80,42,7,0,1,0
49998442180,4,-12,-77,-24,-3,-4,-1,-3
49998442180,26,0,-29,14,4,2,1,5
49998455918,-30,4,27,12,-2,0,0,-4
49998455918,15,-3,30,-4,-2,-1,-1,3
49998463418,7,-2,-1,4,-2,0,-1,-1
49998463418,-66,-14,-10,-18,1,0,1,-3
49998479715,76,10,-14,3,-1,-2,-2,2
49998479715,-12,-11,-35,-17,-3,2,2,4
49998486586,-58,0,-8,-12,-1,-2,0,-12
49998486586,40,6,-2,2,0,-2,-2,-2
49998501377,11,-29,-27,-11,-6,-3,0,-2
49998501377,-19,9,16,12,2,-1,-1,5
49998502159,7,5,6,-8,0,2,1,-1
49998502159,-9,-4,32,23,-1,-1,-1,0
49998515908,-27,3,-28,0,2,-1,0,-2
49998515908,28,-8,33,-4,3,1,-1,-3
49998531613,12,4,-21,-12,-9,-2,-2,1
49998531613,35,-1,21,10,-4,-3,-2,-4
49998538214,8,2,35,33,2,0,-2,-1
49998538214,-13,-2,-24,-39,-7,-4,-3,-2
49998546543,26,-6,13,18,7,1,0,6
49998546543,-88,-11,-15,-6,-1,0,0,-5
49998561531,13,-13,14,0,-3,0,2,1
49998561531,-4,-18,-67,-21,-7,-4,-7,-4
49998562144,55,19,35,14,4,3,2,2
49998562144,61,-22,9,-25,-2,-2,-1,3
49998575869,-53,2,7,11,1,1,0,-1
49998575869,7,4,-5,66,9,4,2,0
49998583348,26,-26,-50,-75,-10,-2,-1,1
49998583348,-39,2,-20,43,-1,0,-1,0
49998598390,23,-15,-35,-41,3,1,2,-2
49998598390,9,14,71,34,-1,-2,1,1
49998606407,-17,1,61,24,4,-1,-1,-3
49998606407,0,-4,-29,-16,5,0,1,0
49998621499,-14,-11,-18,-17,-9,-3,-2,-2
49998621499,3,5,7,-5,-1,0,2,-2
49998622198,6,10,-1,6,1,-1,0,-2
49998622198,58,12,45,-23,-5,-2,0,5
49998635958,38,-4,1,30,8,2,1,2
49998635958,-46,-19,-1,5,0,0,0,1
49998643423,-88,-22,-55,-82,-12,-4,-3,-5
49998643423,-21,8,-8,29,5,0,0,-1
49998658422,42,1,-8,22,-2,-1,-3,4
49998658422,9,16,26,-30,-3,-2,-1,-3
49998666427,21,-16,-45,34,5,-1,0,2
49998666427,-12,17,44,-15,0,1,1,0
49998681609,-72,-29,-92,-20,-3,-5,-4,-5
49998681609,19,8,16,0,1,-1,-3,-2
49998682161,-4,12,46,28,-3,-4,-2,-2
49998682161,-16,-12,-6,-30,-6,-4,-2,-3
49998695809,43,28,43,-9,1,3,1,2
49998695809,112,1,-50,-7,-2,0,0,-1
49998703419,15,12,32,7,-3,-3,-5,-4
49998703419,8,-14,60,30,5,2,-1,1
49998718354,-35,4,23,-53,-3,0,0,-4
49998718354,-26,-5,-35,-33,2,0,2,2
49998726446,10,26,72,49,0,0,-2,-2
49998726446,12,-25,-123,-45,-4,-2,-2,-3
49998741511,-48,8,98,50,2,0,0,-2
49998741511,-22,-23,-103,-12,-6,-2,-3,1
49998742173,13,24,26,-9,1,-1,0,0
49998742173,45,2,17,-33,-12,-4,-2,0
49998757166,17,15,42,8,1,-2,0,-3
49998757166,14,7,11,6,2,-1,0,-1
49998763272,-6,-17,-59,11,3,-1,-1,2
49998763272,31,26,-21,-17,-3,-2,-1,-1
49998778333,-1,4,-16,9,1,-1,-2,-2
49998778333,32,11,-29,-1,-4,-4,-4,0
49998786479,29,-5,37,-5,-1,1,0,-1
49998786479,-9,-10,-24,6,-1,-2,-2,1
49998809727,7,2,-41,1,4,4,-1,-4
49998809727,-29,3,127,37,-3,-2,-1,-1
49998810294,14,7,54,-15,-2,1,0,0
49998810294,-15,-8,-105,22,0,-1,-1,-1
49998815899,29,-5,26,25,11,2,1,0
49998815899,-21,-8,32,-66,-19,-3,-2,-4
49998823410,27,0,92,40,7,2,1,2
49998823410,-50,-19,30,37,0,0,-2,-4
49998838415,19,19,-39,-2,-1,-3,-2,0
49998838415,27,9,2,0,2,0,1,0
49998846538,-26,-21,-47,-14,-7,-1,0,5
49998846538,4,-6,-17,-4,1,-2,-2,-4
49998861569,-5,4,-6,17,2,1,0,2
49998861569,-27,-19,19,7,2,0,-1,1
49998862184,-55,-13,-18,-18,-2,-2,2,-3
49998862184,2,6,-33,9,-1,0,1,-2
49998875919,-8,-6,74,-18,-5,-2,-1,0
49998875919,20,-8,-42,0,4,0,-1,-3
49998883387,46,7,23,5,1,1,0,1
49998883387,4,20,22,1,1,-1,-1,-3
49998898352,19,11,15,1,-2,0,0,-3
49998898352,-1,1,27,23,-2,-2,-2,0
49998906442,0,-3,-60,-18,-7,-3,-3,-5
49998906442,91,35,44,-27,-1,-2,0,-1
49998921581,-69,-15,19,36,0,-1,0,2
49998921581,-36,-1,-12,21,4,-3,-2,-10
49998922184,-1,-11,27,24,7,5,2,1
49998922184,-10,-10,-63,-3,-3,-2,-3,0
49998935869,3,4,13,-16,-2,0,0,-1
49998935869,-15,-12,-41,0,-2,1,-2,1
49998943367,53,20,67,-3,-2,-4,-4,-4
49998943367,-33,1,-16,10,3,0,0,-1
49998958376,21,-11,-67,3,1,0,-1,0
49998958376,-16,0,7,-33,-5,-2,0,-1
49998966436,-42,-6,35,-22,-5,-2,-1,-2
49998966436,24,-16,32,-17,-1,1,-2,-4
49998981312,47,18,-10,44,1,-4,-2,-3
49998981312,6,2,2,5,8,3,3,2
49998982159,-26,4,-35,-2,-3,-2,1,-1
49998982159,2,-11,38,15,3,3,2,1
49998995865,-18,-8,74,1,-5,-3,-2,-2
49998995865,11,-16,23,-23,-3,-4,-1,2
49999003155,-58,-13,-114,0,-3,-2,-3,-6
49999003155,-2,17,109,6,-3,-3,-1,-2
49999018272,48,-14,-63,-14,0,0,-1,1
49999018272,-1,8,-14,-54,-10,-1,1,3
49999033892,-4,-9,-18,-4,-1,0,0,-1
49999033892,-9,-2,-4,20,6,0,-1,3
49999041337,-91,0,41,-17,-9,-3,-4,-5
49999041337,-61,3,-91,4,5,1,1,0
49999042093,48,-18,-5,-13,-3,-2,-2,0
49999042093,-44,-4,4,5,-4,-1,-4,-3
49999055707,6,-3,-1,4,1,0,2,1
49999055707,-3,5,71,29,2,-1,0,1
49999063171,-5,7,21,-6,-4,-2,0,-3
49999063171,12,-13,-36,-5,-1,-1,0,3
49999078900,-3,-7,-16,-21,-1,1,0,1
49999078900,27,2,73,6,0,0,-1,-2
49999086431,3,0,-9,13,1,-1,0,5
49999086431,-40,-8,11,-6,-5,-2,-2,-5
49999100814,32,12,32,22,4,0,-1,3
49999100814,38,-1,-42,-13,-2,-2,-1,-3
49999108919,40,14,27,-55,-7,0,0,1
49999108919,-27,2,10,-14,1,-1,1,0
49999115787,-9,6,-3,0,-3,-2,-1,-2
49999115787,18,13,-10,40,10,3,0,-2
49999123295,40,-5,-35,26,-3,-4,0,5
49999123295,45,-3,-26,-29,-5,-3,-3,-7
49999138322,26,4,-3,-12,0,0,1,-2
49999138322,-56,-1,32,27,-4,-6,-2,-2
49999146515,-2,-15,-74,-39,2,2,0,-4
49999146515,-25,3,3,4,-2,-1,0,0
49999160883,37,3,22,-14,-8,-5,-3,3
49999160883,-19,-17,-1,-15,-6,-2,1,-1
49999168961,10,29,39,-26,-2,0,-3,-4
49999168961,-14,-7,-47,15,0,-1,-2,0
49999175843,-75,-3,-5,2,2,-1,-2,-9
49999175843,-16,-17,-3,23,0,0,0,-1
49999183348,-16,12,39,55,7,4,3,1
49999183348,29,-16,-16,-45,-10,-4,-5,-2
49999198206,37,-4,-40,-16,-3,-2,0,0
49999198206,10,-2,-24,18,-1,-2,-3,-5
49999206554,68,27,-12,19,5,0,-1,-2
49999206554,-36,-5,75,30,4,-1,1,4
49999220804,30,-7,-99,-45,-8,-3,-2,-2
49999220804,-91,-26,13,-2,-1,0,0,-1
49999229017,33,-8,-77,-1,-4,-6,-6,-3
49999229017,2,2,44,10,2,2,0,1
49999243904,37,3,19,1,-2,1,-2,-5
49999243904,35,17,-7,-9,-3,-2,-3,1
49999244779,-61,-6,39,31,2,0,-1,-2
49999244779,6,6,-13,-28,2,3,1,0
49999258367,-26,-13,-43,-62,-18,-7,-3,0
49999258367,19,-14,-25,7,5,1,1,0
49999266584,24,-2,24,24,1,0,0,0
49999266584,44,23,38,37,5,-1,0,-1
49999280937,-29,-10,68,33,4,1,1,3
49999280937,24,21,-1,-15,-2,-1,-1,-3
49999288933,-113,-39,-35,-55,-9,-5,-3,-3
49999288933,48,-11,-36,13,1,1,2,-1
49999304007,-25,-3,18,29,7,1,-1,1
49999304007,-60,-29,-59,2,-1,1,0,1
49999304679,7,-2,43,11,0,-2,-1,-4
49999304679,7,-2,-39,-14,-3,0,-2,-4
49999318310,-9,10,33,25,0,-3,-2,0
49999318310,19,11,-1,-45,0,0,-2,-1
49999326467,-23,-5,23,-62,-11,-4,-1,2
49999326467,-38,-4,-65,-8,-6,-1,-2,-1
49999340854,7,-4,-2,27,8,2,2,0
49999340854,26,12,22,17,3,0,-1,-2
49999348855,61,9,24,13,0,-2,-3,2
49999348855,23,-9,-39,-12,-4,-4,-1,2
49999363899,-19,-1,-11,-10,-1,0,-3,-5
49999363899,21,8,-2,22,1,2,-2,-1
49999364755,-18,-7,-1,13,0,2,2,3
49999364755,-12,3,36,-20,-9,-5,-3,-4
49999378331,9,2,14,6,2,0,0,-1
49999378331,9,5,-5,-32,-6,-2,-1,2
49999386452,-31,-15,25,27,1,-2,-1,-5
49999386452,-15,13,54,0,8,2,-1,1
49999400684,-2,-3,-3,-39,-12,-2,0,-1
49999400684,-17,-1,-65,13,1,-2,-2,-1
49999409035,21,-7,-16,11,5,1,2,-1
49999409035,31,-8,9,25,3,0,0,-2
49999423988,45,5,6,-5,-2,-2,1,5
49999423988,-17,-8,20,9,0,0,-1,2
49999424751,-84,9,11,-12,-6,-2,-3,-11
49999424751,-3,21,48,-2,-1,-1,0,0
49999438325,4,1,25,19,6,6,1,3
49999438325,56,-16,-46,-10,-9,-4,-1,-2
49999446491,-4,-3,-6,13,7,3,2,3
49999446491,-32,-9,-21,-54,-11,-3,-1,-3
49999460707,-10,2,12,16,1,-3,-4,-1
49999460707,-2,9,34,-31,-3,-2,1,0
49999468969,9,-9,-30,21,1,-1,-1,0
49999468969,-29,9,30,13,4,0,-1,1
49999484481,74,-21,89,15,-4,1,-1,3
49999484481,22,16,18,13,-1,-4,0,-1
49999485128,25,-5,-20,-36,-6,-5,-2,2
49999485128,-99,-13,14,51,8,2,2,-1
49999498371,55,0,-23,7,6,2,-1,-5
49999498371,9,-7,-59,-54,-13,-2,-3,-2
49999506617,5,-2,16,2,-1,-4,-1,-1
49999506617,14,-2,-48,8,1,0,1,4
49999520857,42,10,-24,-18,-3,-4,-1,3
49999520857,-57,-3,36,27,1,0,-2,-6
49999529065,19,7,-24,-8,-3,-2,-5,-3
49999529065,62,5,8,-4,-1,0,0,1
49999543989,-49,-9,-30,24,-3,-4,-1,0
49999543989,30,8,67,-2,3,-1,-2,0
49999544688,20,7,-97,-29,-6,-2,0,2
49999544688,-3,5,58,23,-1,-3,-2,-1
49999558183,-17,8,-13,-26,-2,1,1,0
49999558183,-67,-41,-34,3,-8,-2,-3,1
49999566453,-8,9,17,9,5,0,-2,-2
49999566453,45,-10,7,-12,-1,0,1,0
49999580697,-75,-7,-26,-3,-1,0,-3,-5
49999580697,46,21,21,0,2,1,-1,1
49999588903,-30,-5,-18,24,-2,-3,-3,-2
49999588903,-9,-7,-37,-57,-8,-1,-2,-3
49999603995,-25,0,19,10,2,-1,-2,-3
49999603995,21,11,46,-1,2,0,0,-1
49999604684,3,2,-9,1,2,0,2,0
49999604684,-4,1,1,0,2,2,1,1
49999618300,-79,-16,-22,19,-3,-4,-2,-7
49999618300,37,-7,2,-40,-4,0,0,-1
49999626421,15,1,70,-7,-2,-1,0,-1
49999626421,-51,-24,-80,-20,-2,-3,-2,1
49999640880,47,22,62,23,0,-2,1,3
49999640880,-62,-8,-44,23,0,-2,-1,-4
49999649011,0,-3,27,11,4,4,1,-1
49999649011,17,6,-15,5,1,1,0,-1
49999664016,-25,19,71,4,0,0,0,-1
49999664016,7,7,22,-2,-6,-3,-2,-2
49999664614,-38,0,-20,2,-1,1,0,-3
49999664614,-20,2,51,21,-6,-2,-2,0
49999678388,-7,-27,-119,-51,-1,0,1,-2
49999678388,28,7,0,0,-2,0,-1,-1
49999686434,14,0,17,12,2,0,0,1
49999686434,39,4,-5,-6,-1,-3,-2,-3
49999700933,-62,-6,-9,15,-4,-3,-2,-7
49999700933,35,15,2,0,8,2,1,0
49999709646,-17,-16,-11,-6,-7,-3,-3,-1
49999709646,-14,-13,65,46,3,2,3,1
49999723372,79,4,-61,-15,0,2,-1,3
49999723372,-23,-3,22,-61,-15,-5,-3,-1
49999732112,-25,-1,21,18,6,1,2,0
49999732112,11,2,-10,-11,-1,-2,-2,0
49999738349,5,-4,-16,9,4,-1,-1,1
49999738349,48,20,23,28,4,0,-1,-3
49999747146,-24,-15,-5,25,-1,-1,0,-1
49999747146,48,-4,-72,-51,-6,-4,-6,-5
49999760904,45,11,60,-5,-7,-1,-3,0
49999760904,-31,-6,-34,20,1,-3,-2,-3
49999769614,15,-11,-28,-51,-1,2,-1,1
49999769614,-22,-15,-43,17,-1,-3,-4,-7
49999783312,-77,-7,1,7,2,1,0,0
49999783312,80,-23,21,0,6,3,3,8
49999792200,-59,-1,-27,44,0,-1,-2,-5
49999792200,-31,-9,-41,-39,-8,-1,-2,0
49999798267,61,30,3,-67,-9,-7,-5,-4
49999798267,-55,0,-13,40,4,1,-1,0
49999807118,16,2,27,-8,2,-1,0,2
49999807118,41,17,9,33,7,2,1,-3
49999820904,13,0,-25,-3,-5,-3,-3,0
49999820904,40,3,-12,-14,0,-1,-1,-2
49999829606,21,24,31,16,-1,-2,-3,-3
49999829606,-26,5,14,20,1,1,1,-2
49999843340,-3,-8,-57,-39,-2,0,0,-1
49999843340,16,-2,29,-27,0,1,0,-2
49999852172,9,6,34,42,-1,-2,0,1
49999852172,20,11,-21,-40,-5,-3,-1,0
49999858364,-21,-21,-35,-5,2,-1,0,0
49999858364,75,-5,-11,32,6,-1,0,-1
49999867126,-46,-2,-8,-7,0,2,-1,-1
49999867126,19,4,90,27,3,0,-1,0
49999880845,5,6,10,-13,-3,-2,2,2
49999880845,-39,9,64,10,-7,-4,-4,-1
49999889671,-10,-8,-13,-15,1,0,-1,5
49999889671,20,10,44,20,2,-2,-3,-3
49999903339,-24,-5,-20,1,1,1,1,-2
49999903339,-40,5,32,19,0,-2,-2,2
49999920301,6,-3,-18,-33,-5,-1,-1,-2
49999920301,-62,14,-20,-18,-7,-3,-3,-3
49999921322,18,-24,8,36,5,-1,0,1
49999921322,-30,2,-5,-9,-1,0,0,-2
49999927152,44,-6,-11,-13,-2,2,1,-2
49999927152,-7,-5,-25,-21,-4,-1,0,0
49999940744,29,10,63,14,2,-2,0,-1
49999940744,-51,-26,36,23,0,1,2,-1
49999949663,20,21,45,-5,1,1,1,-2
49999949663,16,2,-57,0,-2,-2,-3,-2
49999963330,-36,-11,52,29,4,2,-1,1
49999963330,1,1,-82,-91,-12,-5,-4,-5
49999972110,-1,2,-5,44,8,1,0,2
49999972110,-8,13,52,-23,-11,-6,-5,-4
49999978143,-9,-16,-81,15,2,-2,-2,-4
49999978143,37,20,2,14,3,2,0,2
49999987147,-20,-5,-38,-17,-5,-4,-3,-1
49999987147,-9,0,29,19,1,1,-1,-1
50000001177,10,2,30,13,-2,0,-2,2
50000001177,-13,-28,-52,18,3,2,1,1
50000009613,5,3,56,-70,-13,-6,-6,-7
50000009613,15,-10,-31,15,6,3,2,2
50000023335,-26,10,32,-5,1,2,1,0
50000023335,17,-8,-9,37,4,-1,-1,1
50000032123,-57,-5,-10,-2,-1,0,-2,-8
50000032123,-14,-9,-2,-6,-2,-1,-1,3
50000038177,16,13,38,-45,-7,-3,-1,-3
50000038177,-24,-1,-31,1,2,0,-1,-2
50000047128,45,6,38,2,-3,-4,-1,4
50000047128,-55,-28,-10,10,0,-1,0,2
50000060840,-17,-2,-27,-13,-5,-1,-1,-3
50000060840,-3,15,25,3,1,-1,0,0
50000069621,47,-12,-58,11,-1,-2,-4,-1
50000069621,-20,-12,-7,-49,-5,-3,-4,-2
50000083330,-13,3,47,4,-5,-3,0,-1
50000083330,-4,-10,-61,-15,-7,-5,-2,-4
50000092110,-19,8,29,4,1,1,0,1
50000092110,11,7,-39,23,4,3,3,-1
50000098345,63,2,27,10,1,-2,-3,0
50000098345,-71,16,24,18,1,-1,-2,-6
50000107121,29,15,0,-22,-1,1,2,1
50000107121,-33,-8,40,-16,-8,-1,0,2
50000120833,-1,-4,-54,-2,-3,-3,-1,-2
50000120833,-35,-5,9,31,3,0,0,1
50000129611,23,-7,-13,30,4,0,0,1
50000129611,18,4,19,-27,-1,-1,2,-1
50000143828,-19,-17,-66,-9,0,0,-1,-2
50000143828,-46,-15,30,8,-2,-1,-2,-3
50000152180,-9,-9,6,-3,1,1,0,-2
50000152180,31,8,-72,1,-1,-3,-3,0
50000158394,-26,-4,38,24,0,0,-2,0
50000158394,54,6,-13,-46,-4,-3,-3,-2
50000167115,-16,-16,-51,29,1,-1,-1,0
50000167115,-14,-2,-10,-88,-18,-4,-2,-5
50000180838,19,-13,9,33,5,1,0,-4
50000180838,74,-6,-7,12,-2,-1,-1,4
50000197145,3,9,5,22,1,-1,-2,-2
50000197145,-25,-24,-30,30,9,3,3,1
50000203990,-26,14,40,-9,-4,0,-3,0
50000203990,37,23,47,-17,-1,1,0,4
50000210874,-9,-8,18,-2,-2,-2,0,-2
50000210874,28,14,26,28,4,1,-1,-3
50000227010,-16,-4,-14,-19,-2,-1,0,0
50000227010,-33,-9,-4,14,0,-2,-2,-4
50000228648,3,-2,55,-22,0,2,2,1
50000228648,-4,8,31,60,6,-3,-4,-3
50000240903,-15,-34,46,-43,-10,-1,-1,0
50000240903,-24,-14,-71,-16,0,-1,-2,-3
50000249623,73,9,-28,6,1,-1,-2,-2
50000249623,-4,-11,10,12,1,-2,2,2
50000263967,109,27,6,51,7,1,1,7
50000263967,0,-30,10,-46,-10,-6,-3,-2
50000270863,-7,-5,-15,-23,-7,-2,0,0
50000270863,-8,-4,-64,26,4,2,-1,-2
50000287038,-12,7,-19,31,4,-1,-1,-1
50000287038,-32,-6,13,-5,2,1,1,-7
50000288669,-19,0,-41,17,0,-3,-2,-3
50000288669,76,19,95,12,-2,-3,-2,3
50000300905,-51,9,-32,-57,-8,-1,-2,-5
50000300905,13,9,33,19,1,1,0,1
50000315847,-30,-18,-16,-9,-1,0,0,0
50000315847,-70,5,-19,-16,1,0,-1,-6
50000323958,-10,1,2,-20,-2,-2,0,0
50000323958,-13,-11,-2,-10,-4,-3,-2,-3
50000330713,57,22,-4,13,2,2,-1,5
50000330713,15,-10,20,2,0,0,1,1
50000347048,20,9,-29,0,0,0,0,-1
50000347048,-8,3,4,9,2,0,0,1
50000348691,17,-3,10,-17,-4,-1,-1,2
50000348691,-77,-26,-14,-7,-3,-2,-2,-6
50000360808,6,5,23,15,1,-1,-1,-1
50000360808,-17,8,-3,36,-2,-1,-2,-1
50000369647,8,2,-46,-44,-8,-4,-2,-4
50000369647,27,9,-8,-33,-2,-2,-1,-3
50000384040,7,-19,-25,22,3,1,1,-3
50000384040,-4,8,0,6,3,1,0,0
50000390751,-116,-10,33,18,6,0,2,3
50000390751,39,-1,12,28,3,-1,-3,-3
50000407047,26,-17,-101,-58,-10,-3,0,2
50000407047,-16,11,40,11,-3,-4,-5,-4
50000408616,17,-20,48,7,1,1,-1,0
50000408616,7,-3,6,23,3,1,0,3
50000420890,4,-2,-42,-29,1,-1,-1,-1
50000420890,51,9,67,-4,-2,1,1,-1
50000429624,-35,-10,-101,-25,-2,0,0,0
50000429624,54,15,54,47,6,0,-1,-1
50000443906,-17,-3,15,-45,-5,-2,-2,-2
50000443906,10,-1,-46,-6,-1,-4,-1,-2
50000450822,51,21,13,-3,-1,0,-2,-1
50000450822,6,4,-1,-4,-1,1,0,3
50000467158,-4,4,5,51,7,0,-2,-3
50000467158,60,-4,11,-33,-3,0,1,4
50000468683,-2,-6,-12,3,-7,-4,-3,-6
50000468683,-24,1,17,-4,-1,-1,0,1
50000480894,-11,-3,-11,9,-4,-3,0,0
50000480894,24,-10,-32,-4,3,4,1,4
50000489648,-70,-13,34,14,-2,-3,-1,-4
50000489648,64,-8,-45,-17,-2,1,-2,3
50000504004,-70,3,16,-11,-4,-3,-3,-2
50000504004,-8,-11,-46,-14,-4,-3,-5,-3
50000510855,48,2,28,29,6,1,0,2
50000510855,-28,2,-1,-2,-3,-2,-1,-2
50000527148,17,5,33,-30,-1,0,0,1
50000527148,-30,-8,-23,26,0,-2,-1,0
50000528631,-82,-1,12,-8,0,0,-1,-2
50000528631,-5,9,21,11,-4,-4,-2,-2
50000540807,27,-4,19,17,3,2,1,-1
50000540807,-70,-2,1,-24,-8,-5,-3,-3
50000549613,29,-3,-78,-4,3,1,-1,-2
50000549613,-22,5,38,14,1,-1,-1,4
50000564082,-65,-10,6,9,-4,-4,-2,-7
50000564082,-6,10,-4,3,0,0,0,-2
50000570840,19,1,59,-31,-5,-2,-3,0
50000570840,24,8,28,-7,-4,-1,-2,-6
50000587196,-6,3,-68,5,-2,-2,-3,-3
50000587196,10,-3,53,23,3,1,-1,1
50000588647,-7,7,18,19,0,1,-1,0
50000588647,15,-32,-11,-15,-4,0,-1,-4
50000600761,25,16,-13,-48,-3,-1,0,-4
50000600761,8,-1,-10,-12,-6,-2,0,-2
50000609640,53,15,-6,4,2,0,1,2
50000609640,-31,-12,-43,6,1,-2,-3,-1
50000624015,36,28,57,40,5,-1,-1,1
50000624015,-25,-19,-101,-15,7,5,3,-2
50000630867,23,-10,40,10,-6,-4,-4,-2
50000630867,-81,-6,-20,-10,2,0,0,1
50000647194,72,0,34,-9,-4,-2,1,4
50000647194,24,-1,23,24,3,0,2,2
50000648715,-8,14,-4,-15,-3,-3,-3,-2
50000648715,-7,18,53,17,3,1,2,-2
50000660842,-13,-24,-58,0,0,1,0,4
50000660842,11,0,13,9,-3,-2,0,-3
50000669613,27,6,-26,3,1,1,1,1
50000669613,26,-20,25,5,-3,-1,-2,1
50000684142,-6,9,18,10,0,-1,-2,-1
50000684142,-13,10,-30,-2,-4,-3,0,0
50000690848,-6,-5,38,10,2,1,-1,-2
50000690848,6,20,-9,-19,-5,-1,0,0
50000707151,3,-15,-15,15,3,-2,-2,-3
50000707151,-3,2,2,17,5,2,-3,-3
50000708689,-8,-10,-19,2,-9,-4,-3,-2
50000708689,81,11,-39,-43,-11,-3,2,-1
50000720856,-105,-27,57,69,8,1,1,-6
50000720856,79,20,15,-38,-6,-2,-2,2
50000729612,37,5,1,31,10,1,1,0
50000729612,6,-17,24,9,-1,-2,0,2
50000752160,19,4,-12,-34,-4,1,-1,1
50000752160,-23,6,17,22,4,-1,-2,0
50000753619,-43,-7,9,-12,0,0,0,-3
50000753619,8,4,-14,-22,-5,-1,0,-3
50000767097,-11,12,73,13,2,1,1,4
50000767097,-3,-21,-57,-12,-2,-2,-1,-3
50000768626,4,-9,70,-15,-4,-1,-2,-2
50000768626,28,-21,24,32,8,3,3,3
50000780829,-29,-1,-31,-39,-11,-5,-3,-2
50000780829,29,13,32,10,2,2,1,2
50000789619,7,-3,-79,-13,-1,1,1,0
50000789619,-35,4,-73,10,0,-4,-3,-12
50000803954,34,6,10,39,7,0,-3,2
50000803954,13,-8,15,-69,-8,-2,-1,-2
50000810831,-12,6,-8,13,-1,-2,-1,-1
50000810831,-22,7,30,-21,-2,0,-1,0
50000826999,39,-2,-27,-6,1,0,-1,2
50000826999,-35,-8,18,24,-2,-1,-1,-2
50000828540,5,12,-38,-6,3,0,0,1
50000828540,-36,-6,1,-11,-4,-1,-2,-1
50000840707,26,-5,-34,-7,-8,-5,-3,-8
50000840707,6,14,53,47,5,1,-1,1
50000849617,30,-18,-16,-79,-12,-3,-1,-1
50000849617,-19,11,67,33,1,-1,-3,1
50000863981,-27,3,-15,-5,0,1,0,-4
50000863981,79,14,-65,4,-1,1,0,3
50000870829,56,-26,38,19,-1,-4,1,3
50000870829,-5,15,26,4,0,1,-3,-1
50000886988,5,4,11,-20,-2,-2,1,-1
50000886988,-9,4,16,60,-2,-2,-1,0
50000888624,-32,-3,-18,-83,-9,-3,-2,-4
50000888624,51,-7,-11,3,2,2,1,1
50000900715,-34,-13,4,19,3,2,1,1
50000900715,-34,-24,-70,-28,-4,-1,1,1
50000909611,-30,8,37,39,-2,-3,-1,-1
50000909611,-5,2,6,14,-2,-4,-4,-5
50000923844,23,11,-24,-49,-3,0,-2,-1
50000923844,-13,-1,24,5,-2,-3,0,-2
50000930831,-10,-2,-8,27,7,4,1,-2
50000930831,10,-9,-63,-35,-6,-5,-5,-2
50000946423,10,8,32,9,1,-1,-1,-1
50000946423,21,1,11,-19,-4,-3,-3,4
50000953330,-5,-25,4,21,5,1,-1,-1
50000953330,-10,-1,15,26,1,1,2,-1
50000960841,-4,-23,-37,-27,-8,-2,-3,-4
50000960841,-3,1,40,11,5,2,1,1
50000977121,-23,-1,-52,-16,-7,-6,-4,-3
50000977121,-5,2,-15,7,6,-1,1,2
50000983965,3,-3,49,4,-2,-1,1,1
50000983965,-26,4,-32,-8,-1,-3,-3,-7
50000990750,42,5,-9,40,0,0,1,2
50000990750,-3,-3,-26,-11,-6,-5,-3,-1
50001006258,-25,-3,15,26,7,2,2,2
50001006258,-28,-2,-8,-21,0,-1,0,-2
50001013090,-21,17,52,7,-1,-1,-3,-2
50001013090,59,-11,-80,-13,-2,-2,-1,3
50001028570,-21,15,29,3,-4,-2,-4,-7
50001028570,-11,-20,-6,-69,-11,-3,0,0
50001037133,-27,3,72,13,1,-1,-1,-2
50001037133,-23,-12,-51,-20,2,0,1,1
50001043977,79,18,37,33,2,-2,0,4
50001043977,-29,9,-65,15,0,-1,-3,-5
50001050657,-21,-5,-11,-69,-12,-4,-2,-3
50001050657,30,0,52,12,1,1,1,1
50001066537,8,-2,12,8,1,0,1,1
50001066537,50,0,-34,16,5,2,0,0
50001073245,21,22,-4,10,-4,-5,-4,-1
50001073245,-25,3,-28,-31,-1,-3,-3,1
50001080634,9,-14,-22,32,-4,-5,-2,-4
50001080634,17,-8,25,-47,-4,-2,0,0
50001089747,-15,1,22,27,8,4,1,3
50001089747,-87,6,54,-6,-4,-2,-3,-10
50001103797,14,-4,-28,9,-1,-4,-3,-1
50001103797,-66,-11,-37,-23,-3,0,-2,-2
50001110787,12,-2,-13,20,-1,-2,-1,-1
50001110787,11,11,18,-1,-1,-1,0,-1
50001126281,16,-1,5,9,2,-1,-1,0
50001126281,3,4,43,8,-1,-1,-3,-3
50001133055,45,-2,-6,-7,-1,-1,-2,-2
50001133055,-4,-16,33,4,0,2,2,3
50001149641,-7,-9,-11,-16,-3,1,2,2
50001149641,-30,-8,17,12,1,0,2,5
50001151069,-17,-7,2,-8,-2,-4,-3,-7
50001151069,-10,2,-14,10,1,0,0,0
50001163827,-1,2,32,-1,2,2,1,-2
50001163827,20,1,90,16,0,-1,0,6
50001170541,-40,-9,-78,40,4,0,1,-2
50001170541,4,0,-57,-71,-7,-1,-2,-4
50001186473,-24,-6,-16,-32,-2,-2,-1,0
50001186473,40,12,54,40,6,0,-2,-3
50001193137,-30,-5,16,-28,-3,0,1,-2
50001193137,5,-4,17,29,2,0,-1,-1
50001209459,51,9,-11,3,4,2,2,3
50001209459,-27,-20,37,12,-5,-3,-2,-3
