timestamp,emg1,emg2,emg3,emg4,emg5,emg6,emg7,emg8
1523208204732698,1,4,50,34,0,-5,8,-1
1523208204732698,-5,-7,-56,-62,-5,-9,-8,-6
1523208204733693,-5,-8,11,-3,-2,9,1,-2
1523208204733693,4,4,45,39,-10,-15,-1,2
1523208204755750,4,1,-18,7,14,4,-2,0
1523208204755750,-8,-5,2,-17,-1,-10,-5,-2
1523208204756754,3,4,-16,-25,-14,2,3,0
1523208204756754,10,19,36,50,20,15,1,3
1523208204769787,8,-3,-61,-3,0,-4,-4,2
1523208204769787,-12,-7,4,-34,-29,-12,-1,-3
1523208204770790,-21,-18,3,20,18,7,2,-3
1523208204770790,-5,-12,57,22,3,3,-7,-9
1523208204792849,1,-7,-25,-37,-11,-11,-12,-5
1523208204792849,36,-13,13,17,-7,-7,8,7
1523208204793852,0,38,33,16,15,11,0,1
1523208204793852,21,10,-3,-25,-8,-5,3,6
1523208204815911,-19,-33,-19,5,-18,-3,-3,-10
1523208204815911,1,-4,10,-6,18,7,-2,-9
1523208204816913,4,8,35,14,16,13,4,6
1523208204816913,0,0,-52,-3,-15,-10,-6,-2
1523208204830952,5,5,3,2,4,0,6,1
1523208204830952,-35,0,9,6,-6,3,-2,-20
1523208204830952,39,-14,-126,-41,-5,-3,-1,28
1523208204830952,11,1,44,23,0,-12,-5,-7
1523208204853008,2,8,-4,3,-7,-1,-1,13
1523208204853008,2,8,6,-4,-1,-2,-2,2
1523208204854012,-18,-12,30,22,7,18,7,-14
1523208204854012,4,-11,-65,-1,3,-8,-2,2
1523208204876072,5,-4,-24,-19,-1,-6,-1,4
1523208204876072,-5,9,13,24,-16,-2,-2,-1
1523208204877075,0,3,-35,-23,25,6,0,2
1523208204877075,-5,-10,32,35,3,8,0,8
1523208204891110,12,14,-36,-50,-11,-11,-3,-8
1523208204891110,-68,-6,-55,-2,-4,0,-2,-10
1523208204892112,10,-5,20,-8,-6,-8,-5,10
1523208204892112,-8,3,20,-8,-30,0,-5,-6
1523208204912173,-6,1,-16,20,24,-17,0,-7
1523208204912173,28,26,68,8,27,19,7,11
1523208204913178,-3,-21,-41,2,1,14,2,-5
1523208204913178,-20,-1,13,24,0,1,-2,-8
1523208204936232,0,3,47,-13,-27,-6,-1,3
1523208204936232,16,0,-23,10,-17,-22,-7,5
1523208204936232,-8,9,63,-5,12,-4,-1,-11
1523208204936232,-3,-13,-71,-20,1,13,5,2
1523208204950268,-9,1,-2,10,1,0,-1,-7
1523208204950268,9,-3,-5,-11,-3,-9,-3,1
1523208204951271,2,3,-13,2,-11,-7,-2,-6
1523208204951271,-7,-9,-3,9,11,2,1,-2
1523208204972327,-2,9,62,27,14,12,3,2
1523208204972327,0,-13,-65,-73,-16,-6,-4,-4
1523208204973328,-12,-9,10,50,-13,-16,-6,-11
1523208204973328,4,7,-12,-45,-6,-4,0,8
1523208204996396,27,3,18,24,23,12,0,0
1523208204996396,-7,9,44,9,-2,2,0,5
1523208204996396,1,8,-35,-2,-12,-6,-5,-6
1523208204996396,-10,-19,20,-8,-1,-4,-2,-4
1523208205010428,0,8,48,15,-7,-4,0,0
1523208205010428,7,-10,-68,-2,8,4,-1,-1
1523208205010428,-2,1,-22,-8,-13,-5,-1,-2
1523208205010428,-5,5,22,7,16,3,0,-1
1523208205032486,-10,-6,-40,-24,-3,4,-7,-1
1523208205032486,-17,-8,14,13,-5,0,9,-3
1523208205033489,-8,-8,20,3,3,1,-1,1
1523208205033489,19,8,5,0,-10,-5,-3,-1
1523208205055548,9,3,23,4,-3,-3,-3,-3
1523208205055548,-75,-11,-70,-33,2,-1,-2,-4
1523208205056550,64,2,66,12,-6,-4,-3,1
1523208205056550,1,14,10,-9,5,0,0,-9
1523208205070590,-43,-33,-13,3,-2,-2,-1,-3
1523208205070590,12,25,-4,4,5,6,2,2
1523208205070590,12,14,8,-20,-11,-6,-3,8
1523208205070590,37,6,-45,21,10,2,3,5
1523208205092650,28,7,-9,-2,1,-1,1,-4
1523208205092650,-19,9,93,-6,-10,-6,0,33
1523208205093649,-23,24,-63,30,7,0,-3,-62
1523208205093649,-108,-37,70,-17,-7,-3,-2,-8
1523208205114704,69,18,-53,4,-3,-1,1,-2
1523208205114704,52,10,17,7,5,2,0,14
1523208205115708,-34,-15,16,-14,1,0,0,18
1523208205115708,-10,8,-7,14,2,0,-1,-5
1523208205129744,-30,-18,-29,-8,-8,-4,1,-7
1523208205129744,36,-18,5,-2,1,-2,-7,-8
1523208205130746,29,-2,-47,-1,1,2,2,7
1523208205130746,-47,-75,-23,-3,-5,-4,-3,-17
1523208205152806,-54,-4,-2,-7,0,1,0,16
1523208205152806,9,-1,43,2,-2,-5,-6,-16
1523208205153811,-2,3,65,-2,0,1,1,1
1523208205153811,46,10,-44,0,2,-1,0,13
1523208205175101,-25,8,-11,-19,-3,-2,-2,1
1523208205175101,-62,-17,80,12,1,1,1,-18
1523208205175865,94,-18,-51,-8,-3,-2,-3,7
1523208205175865,28,33,26,-5,-2,-3,0,0
1523208205189904,-3,15,44,10,2,3,-3,2
1523208205189904,42,-26,10,-6,-2,0,-1,10
1523208205190906,-90,-17,29,-5,1,4,2,-15
1523208205190906,36,14,-8,0,-2,1,-1,5
1523208205212966,-57,5,-12,2,-3,-1,0,-10
1523208205212966,79,19,-6,10,2,2,4,51
1523208205212966,-23,3,44,-4,-5,-2,2,-4
1523208205212966,-21,0,-41,4,-2,-1,-2,-10
1523208205235024,38,25,8,3,-4,-3,2,23
1523208205235024,24,10,-37,-24,-1,-2,-5,-23
1523208205243045,-79,-24,-58,19,6,2,1,3
1523208205243045,23,5,2,-31,-5,-4,-2,1
1523208205250067,-8,-10,6,7,-1,-1,0,-14
1523208205250067,-47,-15,12,14,-2,-1,-2,-17
1523208205251066,58,19,84,5,-1,-3,-1,27
1523208205251066,2,-34,-74,-20,-9,-7,-7,-17
1523208205273217,25,-10,-5,-1,-1,-3,-1,0
1523208205273217,-9,17,13,4,2,2,-3,-16
1523208205273217,-34,7,1,-9,-2,3,2,-4
1523208205273217,-11,26,56,11,1,0,0,13
1523208205295187,90,4,1,-19,-8,-4,-1,2
1523208205295187,-100,-8,-20,13,2,1,0,-25
1523208205296188,9,6,39,-7,-2,-4,-5,19
1523208205296188,53,33,40,6,5,4,4,10
1523208205310268,-12,-41,-108,15,-2,-4,-2,15
1523208205310268,95,17,34,-47,-12,-10,-6,-35
1523208205311233,-41,-7,-34,2,0,0,0,-12
1523208205311233,-42,31,35,15,4,3,2,5
1523208205332283,0,-10,48,-5,3,-1,-3,-15
1523208205332283,57,1,-42,3,-1,1,1,21
1523208205333286,22,-17,-3,-12,-4,-6,-4,-3
1523208205333286,15,5,0,10,5,3,0,-6
1523208205355344,-22,5,43,4,0,2,0,0
1523208205355344,65,12,-116,-17,-12,-12,-7,-4
1523208205355344,-33,-3,-8,13,10,8,7,7
1523208205355344,9,-16,63,7,-2,-2,-4,-20
1523208205370621,-3,21,-5,-3,4,1,1,14
1523208205370621,-19,-12,-16,7,-4,-7,-3,-2
1523208205370621,1,1,6,-9,0,-1,0,12
1523208205370621,-59,-17,-43,-3,0,0,1,18
1523208205392678,-49,-9,84,-10,-4,-1,-1,-17
1523208205392678,-10,-24,-62,-4,-6,-6,-5,11
1523208205393444,35,-10,-61,-4,0,1,-2,-16
1523208205393444,32,2,37,0,-4,-5,-2,45
1523208205415504,-41,-19,-108,-4,0,0,3,-12
1523208205415504,-22,0,-3,12,9,9,5,3
1523208205415504,-28,11,-53,-17,-9,-6,-7,-19
1523208205415504,41,-1,-5,-4,-3,-4,-6,-5
1523208205430544,30,12,48,11,8,4,5,2
1523208205430544,-39,-50,102,-7,-4,-2,-3,-3
1523208205430544,5,-12,-56,-20,-8,-4,-1,5
1523208205430544,1,10,49,14,1,-2,0,17
1523208205452642,-6,6,82,-1,-2,-2,-3,-1
1523208205452642,8,24,37,14,3,3,1,-12
1523208205453606,-21,2,28,-7,-4,-2,-1,-5
1523208205453606,5,-7,22,-6,-1,-1,-1,-7
1523208205475901,17,4,-32,4,0,1,0,-5
1523208205475901,-10,24,16,7,2,0,0,10
1523208205476665,25,-19,-30,-14,-3,0,-1,4
1523208205476665,-54,0,-24,12,-1,-2,0,-13
1523208205489701,-7,-24,23,-21,-6,-5,-4,0
1523208205489701,-33,12,-33,5,4,5,6,-9
1523208205490704,81,5,-25,-1,0,-3,-4,0
1523208205490704,12,17,38,35,6,4,1,-6
1523208205513764,-37,4,-90,-23,-4,-3,-4,-7
1523208205513764,-33,11,-3,0,-3,-2,-3,-4
1523208205514767,1,-12,44,21,7,2,3,-3
1523208205514767,45,-8,-33,-30,-1,2,3,-7
1523208205535824,-90,-9,11,18,-4,-5,-4,4
1523208205535824,-40,-2,-25,-24,-2,-3,-4,-47
1523208205536826,4,13,44,20,2,0,1,16
1523208205536826,-6,-11,10,-15,-5,-5,-6,-2
1523208205549861,-36,3,-6,10,2,3,2,-9
1523208205549861,89,-6,-5,0,0,2,-1,-2
1523208205550863,-4,0,47,-2,-4,-3,0,21
1523208205550863,-18,-15,-22,4,2,2,-5,-3
1523208205573161,82,4,6,2,8,7,28,1
1523208205573161,-111,-34,71,-4,-8,-8,-10,23
1523208205573161,52,21,23,10,2,0,-3,-13
1523208205573161,-14,-14,-39,-18,-3,1,2,-1
1523208205595989,63,-5,21,-1,-2,-1,-8,6
1523208205595989,13,-2,-29,31,7,4,1,10
1523208205596987,-17,-27,28,-14,-6,-6,0,-3
1523208205596987,-11,24,-53,-5,-2,-3,-4,5
1523208205610038,-26,-1,93,-3,4,5,-3,9
1523208205610038,35,8,35,18,2,-1,1,14
1523208205611026,-9,-8,-7,-16,-4,-4,-7,-30
1523208205611026,-88,-27,-29,-13,-3,-3,-2,-46
1523208205633112,47,8,50,-2,-3,-4,-8,-4
1523208205633112,16,-5,14,34,5,2,5,12
1523208205633112,-20,9,-115,-23,-5,0,1,11
1523208205633112,39,-10,12,-19,-1,-1,1,10
1523208205656143,-94,1,-18,-3,-7,-7,-3,-26
1523208205656143,13,-16,6,-2,1,0,-2,8
1523208205657148,-84,6,113,2,-5,-3,-3,-10
1523208205657148,-31,-8,-63,-2,5,3,4,13
1523208205670415,40,0,-68,22,-1,-1,-7,10
1523208205670415,29,19,-35,-24,0,1,2,5
1523208205671183,49,15,16,8,2,4,2,4
1523208205671183,-5,22,116,11,-3,-1,0,4
1523208205693261,19,-51,-117,-50,-12,-9,-8,8
1523208205693261,47,2,54,4,-2,-1,-1,-29
1523208205693261,-4,23,45,6,-1,-3,-3,-15
1523208205693261,66,-8,42,2,-3,-3,0,19
1523208205715300,35,17,-2,12,-7,-8,-5,-19
1523208205715300,53,1,-35,-14,-1,-1,1,23
1523208205716304,-34,-6,6,19,7,3,1,2
1523208205716304,35,7,-69,-13,1,1,0,-26
1523208205730342,10,-42,-13,7,1,1,-1,31
1523208205730342,-40,11,31,-13,-2,1,-4,1
1523208205731372,41,-27,-44,-4,-3,-1,25,-15
1523208205731372,22,13,4,-1,-4,-3,-10,29
1523208205752399,-80,11,-4,13,5,1,0,-44
1523208205752399,72,-3,27,-12,-4,-3,-1,-12
1523208205753401,-75,-14,-28,10,5,4,-6,11
1523208205753401,41,10,-7,-4,-2,-1,-2,-6
1523208205775461,-5,25,43,10,5,4,10,-5
1523208205775461,2,4,-34,10,-2,-4,-6,28
1523208205776462,18,15,-22,-40,-2,0,-3,-4
1523208205776462,-3,-17,-101,-6,-6,-6,-3,-14
1523208205790500,-3,18,23,12,-2,-6,-9,9
1523208205790500,-47,-14,-72,-6,2,4,5,-10
1523208205790500,95,6,9,15,3,2,-3,24
1523208205790500,16,-10,50,33,3,1,5,-5
1523208205812563,127,25,-49,-37,1,2,0,10
1523208205812563,-12,3,-42,4,-7,-4,-3,4
1523208205813561,1,-5,-47,-17,-2,-2,-4,-5
1523208205813561,5,4,71,30,1,-1,-3,-10
1523208205835620,30,-12,-77,-8,-3,-2,-4,-17
1523208205835620,-14,8,28,-3,3,0,1,-2
1523208205836623,15,-5,7,17,8,7,0,-6
1523208205836623,15,1,-9,-3,-1,-1,1,-3
1523208205849657,-3,15,78,-3,-1,-2,0,-7
1523208205849657,-33,-31,13,-3,-5,-5,-4,-14
1523208205857679,36,17,-10,17,-4,-7,-5,1
1523208205857679,-111,-12,-17,-35,-3,1,4,20
1523208205872717,66,1,86,4,-2,-2,-2,2
1523208205872717,79,29,12,6,3,0,-6,-47
1523208205873720,-10,23,54,4,-3,-6,-6,-1
1523208205873720,-38,-21,-8,-5,-2,-3,1,15
1523208205895780,-66,2,-39,-3,-3,-2,-4,2
1523208205895780,-59,-10,25,4,3,3,3,-5
1523208205896782,63,1,48,10,5,2,2,25
1523208205896782,77,41,95,-9,-8,-3,-1,-13
1523208205909821,-66,-24,-102,-5,-6,-3,-3,2
1523208205909821,52,18,-10,-6,0,-2,2,18
1523208205917839,-52,-26,43,6,3,3,0,14
1523208205917839,27,2,-43,0,4,2,-4,-16
1523208205932879,9,10,83,10,-2,-3,5,11
1523208205932879,-22,-19,-62,-34,-7,-1,-6,9
1523208205932879,10,16,-11,-10,-5,-5,-3,-4
1523208205932879,3,16,62,17,3,2,4,-3
1523208205954937,37,21,21,5,0,0,-7,3
1523208205954937,-43,-31,-12,6,2,0,3,-5
1523208205962959,-46,-10,-32,-12,-3,-3,-2,-8
1523208205962959,75,10,-18,9,6,4,0,-4
1523208205969980,1,-4,2,12,-2,-4,-1,-23
1523208205969980,29,3,27,-42,-5,-1,2,9
1523208205978000,-12,-30,-21,-12,-5,-4,-1,-14
1523208205978000,-87,-38,-13,10,-3,-2,-2,-2
1523208205993040,29,-18,66,8,4,4,1,6
1523208205993040,-21,13,86,19,2,2,0,-10
1523208205993040,-36,6,-27,-10,1,3,-2,27
1523208205993040,-21,-1,-29,-8,-7,-6,-5,-40
1523208206016100,10,-25,9,-12,-4,-3,-3,9
1523208206016100,-72,-7,27,18,4,-1,3,15
1523208206016100,-73,7,11,-8,-3,-3,-1,-11
1523208206016100,-78,-42,17,4,-2,-3,0,18
1523208206029134,42,21,-56,-7,4,2,2,1
1523208206029134,2,26,43,15,-9,-7,-6,-4
1523208206037156,-3,-19,31,-8,1,2,3,-5
1523208206037156,4,-3,13,2,2,3,0,-3
1523208206052194,-62,-8,-9,4,1,-2,-4,-4
1523208206052194,51,-14,72,9,7,3,3,25
1523208206053198,40,22,-32,-8,-12,-9,-4,8
1523208206053198,34,4,-95,-29,-4,-2,-3,-29
1523208206075259,-26,-9,49,6,2,3,3,4
1523208206075259,-70,-1,-39,-1,-3,-2,-1,12
1523208206076259,-49,-8,83,22,-2,-1,-4,-31
1523208206076259,59,-20,-36,-37,-6,-5,-4,9
1523208206089294,-34,6,-23,22,-2,-3,-1,2
1523208206089294,-9,-8,9,-25,-5,-3,-3,-14
1523208206097317,103,21,-42,21,3,0,-1,-7
1523208206097317,-83,9,1,4,5,6,6,29
1523208206112355,-57,-19,13,-14,-9,-5,-5,-25
1523208206112355,-8,12,-25,5,1,2,1,-7
1523208206113360,101,22,56,-2,-4,1,0,7
1523208206113360,116,14,-8,15,0,-6,-3,4
1523208206135418,-80,8,59,-3,-3,0,1,42
1523208206135418,110,26,-128,-22,-8,-7,-9,-66
1523208206136422,-13,13,45,2,5,2,2,1
1523208206136422,-35,-34,-58,12,0,-1,-1,-15
1523208206158479,-38,4,-39,-15,0,-1,-1,7
1523208206158479,5,2,25,13,2,1,1,-12
1523208206159480,23,-15,-32,-8,-4,-3,-2,0
1523208206159480,-1,8,70,7,-1,-4,-2,-4
1523208206172516,-10,6,-24,-3,1,2,3,-14
1523208206172516,25,7,-86,-8,-5,0,3,20
1523208206173520,28,-42,-13,28,8,6,4,17
1523208206173520,-49,20,17,-32,-10,-4,-4,3
1523208206195577,7,9,-3,-33,6,2,-2,2
1523208206195577,-5,-3,-16,34,-2,-2,23,7
1523208206196580,39,15,2,-8,0,-1,-5,23
1523208206196580,38,16,-5,12,-3,-4,-3,7
1523208206218884,54,-13,-86,-3,-1,2,4,-8
1523208206218884,17,-4,60,14,2,-1,-10,3
1523208206218884,-89,-24,-70,-24,-3,-1,-1,-11
1523208206218884,-116,-2,53,7,0,1,2,-31
1523208206232675,127,4,31,-13,-4,-2,-6,0
1523208206232675,-40,-42,12,-1,-1,-1,-3,14
1523208206233680,-34,5,-9,6,0,-1,-2,-18
1523208206233680,-42,22,87,20,14,12,8,20
1523208206255737,-27,-24,-95,-21,-18,-13,-7,19
1523208206255737,-1,19,10,14,1,-3,-3,1
1523208206256739,-36,2,102,-18,7,3,3,5
1523208206256739,98,0,-76,-17,-10,-6,-6,-7
1523208206278803,41,3,15,31,8,3,1,3
1523208206278803,44,-7,14,8,0,1,-1,19
1523208206278803,-68,-25,-15,-7,-5,-4,-4,-15
1523208206278803,88,-9,-78,-1,0,2,0,13
1523208206292835,-51,0,0,-1,-1,-2,0,-17
1523208206292835,23,22,-4,-12,2,0,-4,-4
1523208206293840,-21,-2,15,9,-1,0,0,-16
1523208206293840,29,-31,-44,-7,-3,-2,-5,30
1523208206315897,-27,-9,-38,-19,-2,-1,30,-29
1523208206315897,-39,-14,2,-7,-4,-3,-7,-4
1523208206316898,-1,-3,-72,1,-2,-2,-1,-3
1523208206316898,76,21,30,-9,-1,-2,0,-3
1523208206337995,-30,9,47,15,6,4,-11,4
1523208206337995,-49,-13,7,4,7,4,-1,13
1523208206338957,15,-10,-66,9,-5,-2,5,6
1523208206338957,-2,-6,-26,-21,-4,-3,-5,-6
1523208206352994,51,23,65,24,6,3,-2,-3
1523208206352994,7,-13,-21,-20,-3,-3,0,-15
1523208206352994,23,11,21,4,-1,-3,-5,8
1523208206352994,-49,17,5,31,2,0,1,-4
1523208206376077,-17,-6,9,-18,-4,-3,-5,-8
1523208206376077,-41,-8,-35,24,3,0,1,11
1523208206376077,95,2,15,1,2,2,0,-8
1523208206376077,-19,-8,-23,-15,-7,-5,-3,-10
1523208206398114,-20,7,-21,-14,-8,-7,-5,3
1523208206398114,50,-17,27,-5,-5,-5,-5,17
1523208206399117,-60,4,-23,2,4,3,2,-38
1523208206399117,43,0,52,9,3,0,2,-8
1523208206412154,-29,-5,-53,16,-1,-1,-7,-7
1523208206412154,91,24,21,-25,-5,-6,-4,1
1523208206413155,-34,-35,-36,-23,-8,-4,-2,9
1523208206413155,21,-8,113,15,4,0,1,-2
1523208206436216,45,10,-3,7,5,5,-11,10
1523208206436216,-22,17,35,8,1,1,4,-14
1523208206436216,39,1,-13,-7,-7,-7,-5,11
1523208206436216,-33,6,1,-1,-4,-2,6,1
1523208206458274,13,-11,-3,-11,0,1,-4,1
1523208206458274,-13,4,2,3,-2,-1,-6,0
1523208206459276,87,-6,-29,-4,-4,-4,-3,7
1523208206459276,-81,1,-37,-4,-1,0,-7,0
1523208206472546,-2,-4,-4,6,0,1,6,1
1523208206472546,-1,8,-62,-1,3,3,0,-7
1523208206473314,-108,-11,54,3,-3,-2,1,-7
1523208206473314,12,11,20,-4,-2,-2,-3,3
1523208206495373,9,20,71,16,-4,-9,-5,-4
1523208206495373,-6,-3,-72,-47,-4,1,4,-5
1523208206496375,-7,-3,5,37,7,2,0,2
1523208206496375,-64,-23,-64,-1,2,1,0,-5
1523208206518670,54,4,36,2,1,2,2,5
1523208206518670,-38,-8,68,0,0,-1,-3,2
1523208206519437,18,9,3,-20,-7,-8,-8,-27
1523208206519437,64,25,13,-14,-4,-3,-2,-11
1523208206532471,41,0,33,-1,-5,0,0,4
1523208206532471,-28,-15,-24,1,-1,0,0,2
1523208206533476,8,22,58,9,7,4,4,5
1523208206533476,-68,-10,-100,-31,-3,-3,-1,-10
1523208206555533,16,-12,34,1,-2,-2,-2,-6
1523208206555533,5,3,76,9,4,1,0,-4
1523208206556535,-78,-12,25,17,3,5,3,10
1523208206556535,79,38,47,9,-4,-6,-11,-7
1523208206578662,-26,-10,-91,-6,0,-1,0,6
1523208206578662,-59,-8,-50,-6,0,0,1,-16
1523208206578662,92,30,89,0,-7,-7,-4,10
1523208206578662,-10,-11,-45,3,2,1,3,10
1523208206592632,-62,-6,-21,7,1,3,3,-10
1523208206592632,26,-5,60,-4,-4,-2,-3,-5
1523208206593639,-13,0,-43,-5,0,0,-1,10
1523208206593639,65,11,29,15,1,0,1,6
1523208206615692,-80,-20,28,-8,-3,-4,-3,-18
1523208206615692,47,-2,-73,-15,0,1,2,-1
1523208206616697,-75,-33,-22,-17,-4,-3,-25,3
1523208206616697,-39,-9,38,15,2,0,9,-17
1523208206638753,-12,-2,-30,-6,2,2,-3,-1
1523208206638753,9,3,86,21,1,-2,5,7
1523208206638753,23,-9,-101,-38,-8,-3,-6,-7
1523208206638753,-29,-6,-4,13,1,3,1,11
1523208206652799,36,9,43,0,-1,-2,-2,-1
1523208206652799,4,2,28,-2,0,-1,-5,1
1523208206653793,-14,19,-11,9,1,-1,9,-8
1523208206653793,52,-13,-39,-4,2,1,-2,-4
1523208206675086,6,3,-10,-14,-8,-3,4,1
1523208206675086,-24,-6,-57,5,-5,-5,-8,-4
1523208206675852,-33,30,74,7,3,1,6,-3
1523208206675852,-56,-36,-65,-15,-8,-4,-4,1
1523208206697911,-32,-2,61,11,5,2,-3,-5
1523208206697911,39,-10,-85,-17,-3,-3,-1,11
1523208206698914,16,6,14,-15,-2,0,1,-7
1523208206698914,-19,-15,80,1,-2,-1,-4,-8
1523208206712953,86,21,-40,-4,0,-1,3,3
1523208206712953,-124,-37,-23,2,-4,-4,-8,-31
1523208206712953,38,-6,8,11,4,3,6,3
1523208206712953,18,2,35,-9,-2,-1,0,4
1523208206736013,10,-21,-74,-7,0,-3,0,-9
1523208206736013,26,16,-19,-6,-3,-1,1,7
1523208206736013,15,-8,27,2,1,2,1,-6
1523208206736013,59,34,59,6,1,-1,-3,2
1523208206758307,3,-5,56,-12,-6,-5,11,17
1523208206758307,19,-6,49,1,2,1,-5,4
1523208206759073,-40,-6,-20,15,-2,-3,-3,-5
1523208206759073,-9,21,14,5,-3,-4,3,7
1523208206772108,14,6,-76,-7,-1,-1,-9,5
1523208206772108,36,18,61,15,-3,-2,1,8
1523208206780129,30,0,-113,-29,-7,0,7,-5
1523208206780129,15,-45,86,18,7,7,-6,1
1523208206796172,-54,21,-32,3,-4,-3,-5,-1
1523208206796172,8,6,-36,0,0,1,1,-1
1523208206796172,9,13,-24,-5,-5,-1,1,7
1523208206796172,-36,8,65,-1,-2,0,-2,-4
1523208206818471,29,-29,-9,-1,-1,-2,1,14
1523208206818471,70,-38,17,5,-1,0,4,4
1523208206819233,-53,-5,-24,4,-3,-4,-3,-4
1523208206819233,-13,7,-44,-27,-2,-4,0,2
1523208206832269,105,25,-19,3,-1,-2,-3,-2
1523208206832269,-90,-14,50,-1,1,2,0,-6
1523208206840526,56,-1,59,24,5,2,-1,5
1523208206840526,-28,-25,-65,-25,-10,-10,-4,-3
1523208206855329,-65,9,21,7,10,7,3,0
1523208206855329,-45,9,-26,-26,-7,-5,-4,-7
1523208206856332,-10,-9,-47,6,0,-2,-1,-3
1523208206856332,8,-20,31,8,8,7,8,24
1523208206878391,-17,-4,80,-11,-10,-7,-6,-19
1523208206878391,81,26,-54,2,3,3,2,14
1523208206879395,-39,8,59,2,-3,-6,-1,-4
1523208206879395,0,12,27,13,3,1,-4,3
1523208206891424,-11,-52,-81,-17,1,4,2,-1
1523208206891424,-1,13,17,-1,-4,-2,-3,-6
1523208206900449,117,31,-40,3,-1,-1,1,4
1523208206900449,-89,1,-21,4,1,1,0,-3
1523208206915490,-12,-2,-18,3,-4,-3,0,-4
1523208206915490,-17,20,39,19,0,0,1,-4
1523208206916494,93,-13,-54,-34,-2,-5,-3,9
1523208206916494,-3,9,34,0,-1,-1,0,-7
1523208206938550,80,1,127,2,-4,-1,-2,3
1523208206938550,-88,-51,-87,7,1,-1,-2,-8
1523208206939681,-7,-6,101,10,3,2,-3,7
1523208206939681,1,11,-68,-3,-4,-2,0,-14
1523208206951586,-4,6,-50,-17,1,2,-1,-3
1523208206951586,34,7,28,-6,-2,-3,0,2
1523208206960613,51,-6,-1,-6,0,0,-2,-12
1523208206960613,-33,-1,-18,17,-1,-3,-3,-20
1523208206975648,-1,-3,28,-7,-2,-4,-1,1
1523208206975648,-3,11,-84,-9,1,1,1,-5
1523208206976667,-47,4,-11,0,-1,1,0,-9
1523208206976667,49,7,-45,-1,-3,-3,-4,10
1523208206998712,-46,8,27,27,1,-2,-3,-11
1523208206998712,-5,-8,-26,-26,-4,-1,0,9
1523208206998712,-37,5,44,-5,-4,-4,-5,5
1523208206998712,16,-21,-86,-13,-2,0,0,2
1523208207011749,23,14,34,22,4,5,4,-1
1523208207011749,14,15,55,11,2,-1,1,25
1523208207021832,-37,1,-16,17,2,0,0,-22
1523208207021832,-10,1,-20,-26,-10,-7,-3,-10
1523208207035812,-31,-13,-10,12,2,1,1,-7
1523208207035812,14,13,49,0,-4,-5,-4,-3
1523208207036812,6,12,-11,5,3,3,3,3
1523208207036812,14,8,62,21,2,2,1,6
1523208207058868,-75,23,-96,-17,1,2,-1,12
1523208207058868,32,-26,8,-14,-8,-4,-3,-8
1523208207058868,-64,-7,55,19,0,-1,-1,5
1523208207058868,-11,-1,-30,-10,2,3,1,-8
1523208207072141,69,-3,10,16,2,1,-1,13
1523208207072141,50,9,-65,10,3,-1,-2,7
1523208207079927,-41,-28,-14,-10,0,1,0,-6
1523208207079927,25,-6,32,1,1,0,-1,-2
1523208207096014,-9,-4,16,0,-4,-6,-3,-1
1523208207096014,-43,-10,38,3,2,3,2,-10
1523208207096970,-7,-2,-19,0,-8,-7,-4,-4
1523208207096970,-15,-5,-2,-28,-1,-3,-1,2
1523208207118263,64,10,35,-2,0,1,-1,-7
1523208207118263,41,-18,-1,1,-5,-4,-2,-4
1523208207119029,-41,-12,-104,-25,-6,-3,-2,2
1523208207119029,16,-1,82,22,-1,-2,1,-1
1523208207141088,-3,-4,-71,-7,-4,-4,-5,-4
1523208207141088,-16,-24,-22,-38,-2,0,2,-3
1523208207142092,28,14,8,7,1,-1,1,5
1523208207142092,7,2,-39,-6,-8,-7,-8,-6
1523208207156129,-8,-12,-16,-3,-2,-4,-3,-17
1523208207156129,-75,4,8,18,3,1,2,1
1523208207157131,-52,-31,-95,-11,-5,-2,-4,4
1523208207157131,-17,7,17,9,1,0,2,-4
1523208207178187,30,-15,51,-14,-1,-1,-1,6
1523208207178187,86,-3,84,51,4,3,3,-3
1523208207179192,-3,27,-14,-63,-1,-1,-31,6
1523208207179192,118,2,-33,11,2,2,27,15
1523208207201247,-53,-4,-63,-18,-9,-7,-8,3
1523208207201247,-19,10,72,8,1,1,-3,-53
1523208207202251,-17,-6,89,15,-1,0,-1,-5
1523208207202251,41,19,63,1,-2,0,-9,9
1523208207215286,-59,-9,9,1,-2,2,1,2
1523208207215286,-12,25,-13,-12,-2,-2,-5,-6
1523208207216288,66,21,39,13,2,-1,6,3
1523208207216288,-69,-8,-36,-7,-4,-2,-10,-43
1523208207238347,14,11,40,11,0,0,7,5
1523208207238347,7,13,23,10,1,0,-5,17
1523208207240353,17,7,33,-10,-4,-4,6,-4
1523208207240353,24,5,6,7,-1,-6,-4,15
1523208207260411,0,-25,-15,-3,4,2,0,-13
1523208207260411,11,4,-42,-13,-9,-8,-24,28
1523208207261420,19,-18,21,9,2,2,15,-6
1523208207261420,-50,-5,-36,-6,1,3,-2,1
1523208207274678,73,29,92,4,-1,-2,0,-3
1523208207274678,-32,-35,-80,-30,-5,-2,-4,-6
1523208207283467,-68,-56,-28,12,2,1,3,-13
1523208207283467,28,15,21,4,2,0,-5,10
1523208207298508,-14,-16,16,1,2,4,-2,-5
1523208207298508,-55,7,13,6,1,-2,8,-2
1523208207299509,74,12,-62,-4,-4,-2,-3,10
1523208207299509,-22,3,-40,-1,-1,-2,3,-5
1523208207320801,-38,1,22,11,4,1,-2,4
1523208207320801,-23,-18,6,-21,-7,-4,3,-12
1523208207322570,50,-3,-2,12,6,3,8,16
1523208207322570,-4,-9,-57,-6,-6,-4,-7,5
1523208207334602,-7,1,-57,-9,-7,-7,-2,-20
1523208207334602,42,13,0,8,3,1,0,13
1523208207343634,-4,-27,32,9,4,4,-20,3
1523208207343634,57,14,115,-4,-2,0,32,-16
1523208207358669,-100,-20,-75,-11,-4,-4,-7,-5
1523208207358669,39,22,-17,2,0,-1,3,-4
1523208207359672,-5,8,26,5,-1,-2,-1,0
1523208207359672,-30,-23,-22,2,-1,-1,-9,12
1523208207380728,98,31,22,-7,-1,1,5,16
1523208207380728,-7,-5,9,5,0,-4,2,-4
1523208207382733,2,4,39,6,1,0,5,22
1523208207382733,-12,2,21,2,-4,-5,-11,-17
1523208207394764,1,3,18,2,-1,0,1,10
1523208207394764,-27,-30,-75,-1,-4,-1,-4,3
1523208207403787,54,24,76,-3,-3,-1,2,-4
1523208207403787,11,-4,-1,0,6,3,-1,6
1523208207418904,-6,13,28,8,-7,-8,-8,-3
1523208207418904,28,-5,-19,-14,-3,0,3,-4
1523208207419829,-39,10,-22,10,-3,-4,-1,-17
1523208207419829,52,6,12,-22,-4,-1,-2,3
1523208207440885,16,10,-59,2,0,1,-2,-4
1523208207440885,20,2,31,32,4,1,2,8
1523208207441888,10,-8,-36,-25,-4,-3,2,-13
1523208207441888,10,15,25,32,4,1,-4,10
1523208207454924,-24,-25,-60,-81,-12,-3,-1,-2
1523208207454924,58,21,50,38,3,0,0,12
1523208207462944,-30,-14,-27,5,2,-3,-3,-15
1523208207462944,-70,-4,34,4,-1,-2,-3,3
1523208207478986,-36,-12,0,23,8,4,-1,-22
1523208207478986,16,4,-1,-38,-8,0,2,27
1523208207484037,-10,16,5,1,-6,-7,-4,1
1523208207484037,-4,-1,-49,-7,4,4,0,4
1523208207501045,80,-39,56,17,4,3,5,5
1523208207501045,-128,-6,32,-13,-5,-4,-5,-10
1523208207502049,107,18,-35,10,3,4,7,12
1523208207502049,-13,2,10,-16,-7,-4,-6,-5
1523208207514120,-62,11,40,10,5,3,-2,24
1523208207514120,0,-2,73,7,2,-2,-5,-24
1523208207523284,-28,-16,10,-6,-2,0,0,-7
1523208207523284,-22,-21,-84,-41,-8,-2,-1,-5
1523208207538380,6,-13,-86,-3,-4,-2,0,9
1523208207538380,47,14,54,8,-1,0,-1,-5
1523208207540149,-51,14,-15,2,0,-4,-6,-30
1523208207540149,23,-12,29,10,5,3,1,1
1523208207561209,7,4,22,6,1,1,2,6
1523208207561209,-70,-1,-40,22,1,-2,0,-10
1523208207562207,-6,-19,-20,-28,-6,-2,-1,3
1523208207562207,15,5,35,18,3,1,0,4
1523208207574478,98,35,-14,1,1,-3,1,-8
1523208207574478,50,-9,-31,-4,-2,-5,-4,-6
1523208207583265,-40,8,40,-15,0,3,23,8
1523208207583265,-52,-8,20,19,-1,-2,-6,3
1523208207598303,12,17,36,8,-6,-6,-6,-2
1523208207598303,24,-9,-29,11,6,4,7,-1
1523208207600348,-24,-1,-33,-7,1,0,-11,-4
1523208207600348,-97,-9,-54,-14,-3,-5,-3,-5
1523208207628389,-28,-18,80,1,-4,1,4,-3
1523208207628389,34,4,-10,-6,1,1,-7,-4
1523208207629387,16,23,-12,0,-3,-2,-3,-2
1523208207629387,4,-45,-22,-3,0,4,1,0
1523208207634401,50,9,32,17,5,4,-2,-1
1523208207634401,-128,-8,24,-23,-7,-5,-4,-23
1523208207643428,19,-8,2,-7,-3,-3,-5,9
1523208207643428,37,22,-10,16,3,1,2,-7
1523208207658462,-19,4,21,4,-2,-2,-2,-3
1523208207658462,39,1,-73,-24,-3,1,2,0
1523208207659468,-42,-14,8,11,1,2,1,3
1523208207659468,61,-7,-43,-13,-5,-7,-8,7
1523208207680521,-37,2,-33,6,5,2,-1,-40
1523208207680521,62,22,36,1,4,4,2,6
1523208207682528,53,6,-48,8,1,0,-5,2
1523208207682528,-103,-7,-42,-17,-7,-7,-2,-5
1523208207694558,12,-6,-12,1,0,1,3,16
1523208207694558,51,5,-2,-7,-3,-4,-1,2
1523208207703590,38,-10,40,10,-3,-3,-3,0
1523208207703590,-7,-31,42,6,-1,1,-1,-21
1523208207718859,-49,-18,33,-41,-7,-5,-3,0
1523208207718859,-19,9,-32,8,-1,-3,-4,-2
1523208207719626,14,-4,19,-13,-4,-1,-1,15
1523208207719626,23,13,53,16,-1,-1,1,2
1523208207740682,30,0,6,2,0,0,-4,-3
1523208207740682,-40,-4,7,3,3,3,1,4
1523208207742692,-2,-8,41,5,-1,-2,-2,-11
1523208207742692,-3,8,8,-5,2,2,0,-1
1523208207754719,4,6,-21,0,-3,-2,-1,2
1523208207754719,-83,-8,9,-6,0,0,0,1
1523208207763743,-37,-3,-43,-1,-5,-4,-2,-9
1523208207763743,54,23,86,1,1,-1,-22,14
1523208207777783,-25,-15,3,2,-1,1,14,0
1523208207777783,40,3,78,-1,-5,-3,-4,9
1523208207779786,-79,-18,40,7,5,3,6,2
1523208207779786,69,15,-16,-8,-3,-2,-9,-20
1523208207800842,-70,-19,-91,-14,-10,-7,-5,11
1523208207800842,81,7,35,-5,-3,1,2,7
1523208207802847,-92,11,15,7,5,0,-8,-11
1523208207802847,-10,-18,-57,-3,1,2,8,-40
1523208207814918,58,29,-14,-10,-11,-11,-11,2
1523208207814918,-82,-13,-36,-6,1,0,4,-16
1523208207824028,65,-1,-38,5,4,2,-2,3
1523208207824028,1,11,-27,5,2,-1,10,26
1523208207838942,29,-8,-15,5,4,3,5,34
1523208207838942,-37,-20,-22,7,-3,-3,-9,-16
1523208207839945,46,16,62,-24,-11,-3,-1,-4
1523208207839945,-62,11,31,-5,-2,-1,6,7
1523208207861005,14,-2,43,-4,2,-2,-3,6
1523208207861005,78,6,-46,26,6,3,2,37
1523208207862005,-98,-49,35,-33,-5,-2,-4,0
1523208207862005,69,-3,18,-8,-9,-6,-4,4
1523208207874271,-20,14,43,6,1,0,-4,-21
1523208207874271,-36,-21,-1,-2,2,1,0,2
1523208207883097,-2,-11,25,15,0,-3,-5,-9
1523208207883097,6,18,39,13,4,5,2,5
1523208207898100,24,-2,-38,1,2,2,-2,-4
1523208207898100,-57,-20,9,-3,0,2,2,-2
1523208207900107,24,21,-79,-2,0,2,1,10
1523208207900107,26,0,47,-4,-5,-6,-6,-7
1523208207921382,15,0,29,10,5,5,7,14
1523208207921382,-25,-22,-42,-14,-7,-7,-7,-17
1523208207922164,36,1,21,2,2,-2,2,-6
1523208207922164,-44,-13,-10,12,5,4,3,5
1523208207934197,56,8,-57,-33,-7,-1,-3,-6
1523208207934197,-72,-23,-67,-9,-7,-6,-1,-1
1523208207943224,13,9,4,24,5,3,1,4
1523208207943224,-5,7,-36,-18,-2,-1,1,8
1523208207958259,-5,12,16,13,1,-4,-4,-7
1523208207958259,26,-1,-24,-7,0,0,3,-4
1523208207960269,12,13,-36,11,0,2,1,-4
1523208207960269,37,-5,-83,2,-2,-1,0,-1
1523208207980319,-52,3,43,3,1,0,1,-11
1523208207980319,111,30,35,-6,-5,-5,-6,25
1523208207982325,-6,7,-15,3,-2,-3,1,1
1523208207982325,76,30,-49,-2,1,-1,-2,23
1523208207994358,-5,-33,61,-6,-5,-3,-5,-59
1523208207994358,70,16,-55,1,0,-2,-3,-3
1523208208003379,17,-6,-17,-3,-2,-1,-1,9
1523208208003379,-86,-10,45,9,2,5,3,-24
1523208208018659,55,7,-84,-8,-2,-4,-24,16
1523208208018659,15,12,86,-5,1,2,31,-16
1523208208020503,19,9,-48,-6,-6,-3,-6,-5
1523208208020503,-63,-9,12,-11,-2,-1,-2,-15
1523208208040480,-114,-22,11,11,-1,-2,-3,-11
1523208208040480,-6,0,41,0,-5,-3,-12,-11
1523208208042484,49,12,-80,-8,5,4,5,6
1523208208042484,-3,-22,83,5,-5,-3,6,8
1523208208063541,-12,2,-12,7,-2,-1,0,-16
1523208208063541,15,7,-12,-1,0,-2,-8,9
1523208208064542,-24,-17,26,3,0,0,2,-7
1523208208064542,-15,-4,-1,-15,-8,-5,-6,8
1523208208078580,11,-39,-84,-10,-4,-2,2,4
1523208208078580,-15,3,-43,3,-1,1,-3,-9
1523208208079583,52,15,28,13,3,0,-1,0
1523208208079583,-37,-20,-95,-10,1,2,1,-5
1523208208100640,91,27,61,6,-1,-3,2,17
1523208208100640,-37,-16,12,-5,1,-2,-1,0
1523208208102686,20,8,-7,-10,-6,-5,-5,5
1523208208102686,33,9,-8,12,1,-1,0,10
1523208208123903,-1,15,10,8,4,1,2,4
1523208208123903,-1,-3,-28,-9,-1,-1,-4,-7
1523208208124701,-25,-8,41,-1,-3,-1,4,47
1523208208124701,85,4,14,19,-3,-3,-6,-12
1523208208138902,-10,-3,-17,-30,-3,0,0,-2
1523208208138902,13,-2,36,7,1,4,0,1
1523208208139743,-4,-29,36,1,-3,-3,1,8
1523208208139743,26,1,-65,-7,2,1,3,8
1523208208160801,-19,-15,3,21,4,0,3,3
1523208208160801,15,12,12,-2,-3,0,0,2
1523208208162803,17,4,-8,-12,-7,-7,-7,-27
1523208208162803,25,2,21,-3,1,3,0,4
1523208208183860,72,17,-48,2,0,0,0,8
1523208208183860,-113,-17,-41,-6,-2,-6,-4,-41
1523208208184865,21,-13,8,7,1,4,1,-8
1523208208184865,-76,-7,54,-1,-1,-1,0,-3
1523208208197896,-128,-30,-53,-8,-1,0,3,3
1523208208197896,113,20,9,5,-3,-7,-3,31
1523208208203913,-1,11,29,3,4,-1,-3,-50
1523208208203913,-17,-11,-29,-3,0,-1,-2,-7
1523208208221192,-65,-13,27,8,2,1,3,3
1523208208221192,53,28,83,-7,-6,-3,-5,-1
1523208208222172,-88,-8,-57,0,-1,-4,-3,-8
1523208208222172,43,0,-45,-7,-3,0,2,16
1523208208243020,-61,-17,26,-5,-7,-7,-8,-7
1523208208243020,31,3,13,2,7,6,5,23
1523208208245022,-38,-12,-27,8,-3,-4,-4,11
1523208208245022,-3,7,63,0,-3,-2,-3,-6
1523208208258056,45,26,-55,-2,-2,2,2,11
1523208208258056,-62,9,-46,-13,-5,-4,-6,-2
1523208208265098,-22,-30,-29,-10,-4,-1,2,15
1523208208265098,3,9,11,15,6,2,-3,1
1523208208281120,-38,12,103,4,-2,3,3,-6
1523208208281120,-19,14,-29,-11,-9,-7,-6,8
1523208208282121,22,10,9,-11,3,5,0,-1
1523208208282121,64,7,-54,-5,-5,-6,-6,-50
1523208208303177,78,24,40,11,3,-2,-1,6
1523208208303177,20,-38,-45,0,2,2,3,-5
1523208208305184,7,5,20,1,-1,0,1,1
1523208208305184,-25,-2,5,-2,-1,0,0,23
1523208208318249,-13,-22,0,-9,-2,-5,-6,-21
1523208208318249,-41,-10,1,10,-3,-1,-2,-29
1523208208324430,43,7,30,-4,-2,0,-2,-9
1523208208324430,-30,18,2,-3,4,1,4,15
1523208208340511,36,17,-6,10,0,1,2,-4
1523208208340511,-33,-2,-21,-7,0,-1,-2,1
1523208208342280,28,6,6,3,-2,-2,-4,25
1523208208342280,39,-10,-61,-9,-4,0,5,-3
1523208208363336,9,-7,66,-5,-3,-4,0,14
1523208208363336,30,14,32,14,8,5,1,13
1523208208365342,30,-8,-24,-9,1,-1,-5,-69
1523208208365342,-10,8,87,5,-4,-3,-2,-1
1523208208377379,-40,-18,-36,-24,-7,-6,-5,-2
1523208208377379,-5,-15,-21,1,3,3,2,-1
1523208208384393,-8,-9,-75,-14,-7,-5,-1,42
1523208208384393,-53,-13,57,4,-7,-7,-9,-41
1523208208400435,26,0,30,2,-1,0,2,-8
1523208208400435,-31,-4,18,1,0,0,-2,-16
1523208208402441,-84,-5,-12,0,-3,-3,0,9
1523208208402441,39,0,-39,-5,4,2,-1,-1
1523208208423732,66,-7,-69,7,1,2,1,11
1523208208423732,79,2,25,-1,-3,0,3,-7
1523208208424499,19,4,25,0,-1,0,-1,11
1523208208424499,20,-30,-50,-1,-2,0,-1,16
1523208208437556,-5,25,30,-6,-2,-2,0,-3
1523208208437556,-34,-19,-4,4,1,1,1,21
1523208208444555,37,-3,51,6,-2,-4,-4,-52
1523208208444555,-8,6,-5,-15,-6,-6,-6,-1
1523208208460595,54,4,26,10,1,1,1,10
1523208208460595,24,-26,-42,-4,2,2,1,13
1523208208462600,-9,8,-20,7,4,3,1,8
1523208208462600,-9,20,18,-7,-5,-2,-1,9
1523208208483693,88,7,-93,-2,-2,-3,-7,-8
1523208208483693,23,11,119,25,2,-3,-2,11
1523208208484658,-71,-14,-71,-11,5,2,3,1
1523208208484658,-7,-2,28,11,2,2,3,10
1523208208497694,-17,-11,-43,-4,-1,0,3,-3
1523208208497694,-26,3,74,-5,-5,-6,-4,-5
1523208208504713,24,5,22,10,2,1,0,2
1523208208504713,18,1,51,2,1,1,-1,0
1523208208520990,-36,-4,-7,1,1,0,1,1
1523208208520990,-46,-37,-33,-19,-7,-3,-5,-14
1523208208522760,70,15,100,0,-2,2,3,5
1523208208522760,23,-9,-24,4,2,0,-3,-31
1523208208542884,-67,9,23,-12,-6,-5,-2,1
1523208208542884,-10,16,-12,-2,0,1,0,18
1523208208544819,8,-3,13,-2,-2,-1,-2,9
1523208208544819,17,-29,-13,2,2,0,2,4
1523208208557087,8,10,21,7,-1,0,0,15
1523208208557087,-46,7,-5,1,4,1,-1,-9
1523208208565876,-36,-23,-55,-11,-9,-3,1,-22
1523208208565876,44,-4,65,0,-1,-2,-4,6
1523208208580914,63,-1,-84,-2,-2,-2,0,11
1523208208580914,-8,-8,36,-5,-5,-2,0,-1
1523208208581919,72,27,46,9,5,1,-3,0
1523208208581919,-50,3,-73,0,4,2,1,-2
1523208208602974,31,-22,29,-6,-3,3,2,17
1523208208602974,20,20,-16,9,8,4,1,-10
1523208208604979,-13,5,-38,-1,1,-1,-2,6
1523208208604979,-38,0,-13,-8,-7,-3,-1,-1
1523208208617010,35,13,17,-1,2,1,-1,2
1523208208617010,-2,-1,9,-1,-10,-4,-3,-7
1523208208626040,-52,12,34,2,-1,-1,1,9
1523208208626040,-6,20,17,-15,-6,-5,-3,9
1523208208641076,-46,-22,-31,13,6,1,2,-14
1523208208641076,60,-1,-59,-15,-6,-3,-1,3
1523208208642077,-23,-19,-16,6,0,1,-1,3
1523208208642077,57,8,-2,-7,-2,-2,-2,38
1523208208663133,-111,-39,65,15,4,1,-2,-44
1523208208663133,-42,5,62,-16,-5,-4,-2,-2
1523208208665178,11,-8,-30,2,0,0,-1,5
1523208208665178,-51,-10,-30,2,-2,-1,0,-2
1523208208677177,15,23,17,13,7,3,0,19
1523208208677177,78,-14,48,-4,1,-1,-3,2
1523208208686195,-12,8,68,3,-2,-4,1,3
1523208208686195,-10,3,34,5,-1,1,1,-11
1523208208700232,42,36,-69,-23,-6,-4,-2,-3
1523208208700232,-66,-3,-23,17,3,2,-1,-7
1523208208702236,61,-7,-31,-8,-4,-6,-5,15
1523208208702236,-35,-24,17,2,2,2,0,-7
1523208208723532,8,-18,-24,-11,-7,-7,-5,-9
1523208208723532,16,0,-26,-1,-1,2,2,-2
1523208208725299,-33,5,-6,-5,-3,-3,-2,-4
1523208208725299,23,3,-34,3,2,2,2,-4
1523208208737330,-72,-6,21,-13,-9,-4,-4,-6
1523208208737330,15,6,-15,2,0,0,1,-5
1523208208746354,50,-13,-71,0,3,6,4,7
1523208208746354,-31,2,25,-5,-4,-3,-4,-22
1523208208760391,4,6,-11,2,0,2,0,-1
1523208208760391,-22,15,-6,-1,3,1,-2,9
1523208208762396,-53,22,30,2,-4,-2,-4,-45
1523208208762396,43,-12,-56,-27,-4,-3,-2,3
1523208208783492,-2,-22,-7,-2,-3,-3,-3,-2
1523208208783492,-2,4,71,8,1,0,3,-3
1523208208784457,-39,6,-41,1,-2,-2,-3,10
1523208208784457,0,14,28,4,-2,-3,-2,2
1523208208796488,17,-5,88,0,-1,2,0,-12
1523208208796488,53,-2,-70,-10,0,-2,0,3
1523208208805551,30,-11,61,-1,-5,-2,-1,-1
1523208208805551,67,11,-17,3,-1,-3,-4,-1
1523208208820786,-11,11,26,5,3,0,2,10
1523208208820786,20,2,0,-1,-2,-2,-6,-7
1523208208822555,17,-7,60,4,4,6,4,28
1523208208822555,-45,-27,-49,-5,-6,-6,-7,-6
1523208208843653,18,10,-11,3,-1,-3,-1,5
1523208208843653,-48,-4,-25,-5,-4,-5,-2,-4
1523208208844616,21,1,65,-2,-3,-3,-1,1
1523208208844616,2,2,0,10,3,6,6,-2
1523208208856647,7,18,20,-4,1,-3,-5,-9
1523208208856647,-47,-21,-12,6,5,3,1,1
1523208208865671,21,-12,-6,0,1,-1,1,0
1523208208865671,-61,3,35,2,-2,-1,0,2
1523208208880711,-12,17,20,3,-4,0,-1,-15
1523208208880711,42,13,-41,-3,3,1,1,1
1523208208882754,53,-1,-1,3,3,2,-1,-10
1523208208882754,1,0,-1,-12,-10,-6,-1,9
1523208208902770,-50,8,-16,-3,1,-2,-2,5
1523208208902770,-1,-57,14,1,-9,-8,-3,12
1523208208904775,-79,-13,7,-4,0,-1,-3,-21
1523208208904775,-59,-4,46,5,13,5,1,9
1523208208916808,7,-17,-85,-17,-11,-5,-3,1
1523208208916808,28,15,-7,3,1,-1,-4,-23
1523208208925835,19,2,45,10,-4,-4,0,9
1523208208925835,-64,-20,-23,5,-1,1,2,0
1523208208940872,18,23,73,6,5,1,0,2
1523208208940872,-18,-33,-57,-52,-14,-10,-7,-3
1523208208942878,-11,-22,-40,-1,-1,-3,-3,-1
1523208208942878,25,10,81,13,2,3,1,-3
1523208208962930,107,-18,-32,5,1,3,3,2
1523208208962930,-4,13,-26,15,3,2,1,-3
1523208208964934,18,21,-24,-16,-5,-4,-4,-5
1523208208964934,47,-12,-69,2,-5,-5,-4,-6
1523208208985991,13,-28,47,-13,3,4,1,-5
1523208208985991,11,15,77,21,9,6,3,7
1523208208988036,10,36,-14,-4,-1,-3,-3,9
1523208208988036,-12,-1,-12,3,4,0,-2,-4
1523208209000033,-9,4,-4,2,-4,-3,-1,24
1523208209000033,28,30,51,7,-1,2,3,0
1523208209014135,-29,-24,-47,-9,-7,-9,-10,2
1523208209014135,105,16,15,-7,-3,-3,-3,-2
1523208209023329,-101,-8,18,3,2,1,2,4
1523208209023329,63,-4,-104,-3,-1,-3,-6,-7
1523208209025094,-34,-7,-14,-4,-1,3,2,-17
1523208209025094,12,-30,-4,-11,-5,-1,-1,35
1523208209046150,-93,-27,-16,7,3,1,-2,-14
1523208209046150,34,7,-36,2,0,2,0,-3
1523208209047153,-52,4,3,0,-1,-1,-3,7
1523208209047153,-1,17,18,12,2,1,1,-13
1523208209061191,72,-1,-62,-23,-3,-4,-1,4
1523208209061191,-128,-1,81,4,-3,-2,2,0
1523208209062193,-11,-34,-95,-18,-3,-3,-3,2
1523208209062193,-14,9,14,8,2,0,-3,-10
1523208209083249,37,17,-2,11,-1,-1,-4,-5
1523208209083249,8,10,17,1,0,-4,0,-8
1523208209085256,36,8,21,-4,0,-1,-1,5
1523208209085256,34,-9,-29,-12,-2,-1,-1,-11
1523208209105308,-19,-10,11,13,3,2,2,-8
1523208209105308,13,9,33,-13,-11,-8,-7,5
1523208209107312,-44,-6,69,21,7,10,9,-11
1523208209107312,87,23,-71,-14,-1,-4,-5,4
1523208209121402,-2,6,-15,-9,-4,-2,-2,1
1523208209121402,46,17,16,6,0,1,2,3
1523208209122352,-42,-9,3,16,-2,-5,-1,-10
1523208209122352,-53,-4,-46,-22,1,1,3,-4
1523208209143450,-6,-1,61,13,1,-2,-4,-6
1523208209143450,19,-9,-85,5,0,3,3,12
1523208209144412,31,-19,-4,-16,-8,-5,-4,-2
1523208209144412,4,13,54,16,4,0,1,11
1523208209165467,-29,-18,44,-6,-4,-3,2,-2
1523208209165467,-7,8,-20,-8,-3,-1,-2,-3
1523208209167474,96,10,-12,4,1,-1,-1,-3
1523208209167474,-116,-16,17,-3,-2,2,-1,-15
1523208209180509,-5,-6,-85,-10,-4,0,-1,12
1523208209180509,1,19,9,9,5,2,-2,-1
1523208209186523,-14,14,-9,-9,-2,0,-1,-5
1523208209186523,23,-28,83,13,1,0,1,-4
1523208209203569,-6,2,18,-12,0,2,1,5
1523208209203569,-29,-1,21,-15,-8,-6,-2,-2
1523208209204574,31,13,-21,3,2,2,0,3
1523208209204574,-28,2,37,-1,-7,-4,-2,-1
1523208209225653,39,5,-9,24,4,1,0,-14
1523208209225653,-17,-23,18,8,1,1,1,4
1523208209227632,-9,30,73,-15,3,1,0,1
1523208209227632,21,-11,-36,22,3,3,1,-4
1523208209239902,-51,-13,-19,-5,-11,-9,-3,5
1523208209239902,112,26,41,-9,-2,-1,-5,-29
1523208209246683,-53,-4,-25,11,0,0,1,2
1523208209246683,40,14,-34,1,3,1,0,5
1523208209263787,-22,-21,0,-3,-3,-2,0,11
1523208209263787,-21,-18,42,-1,2,0,-3,-30
1523208209264730,-15,-11,-19,-3,0,0,0,0
1523208209264730,83,6,24,0,-7,-6,-1,-3
1523208209285787,22,7,5,-12,0,0,0,2
1523208209285787,-20,-13,-34,4,1,1,-1,5
1523208209287968,11,3,-19,-6,-6,-4,-2,0
1523208209287968,-13,11,-44,5,2,-1,1,5
1523208209299826,15,-23,94,12,3,1,2,-1
1523208209299826,84,26,0,-13,-2,0,2,14
1523208209306952,1,-13,23,3,-2,-2,0,9
1523208209306952,13,1,-6,-2,-2,-2,-1,5
1523208209323124,21,16,35,3,5,0,-2,-6
1523208209323124,-23,-24,-18,-29,-10,-5,-3,4
1523208209324891,-9,-5,-2,16,4,2,2,15
1523208209324891,-120,-5,-6,1,-2,-4,-2,-10
1523208209345947,1,-9,-1,-22,-6,-5,-3,-9
1523208209345947,-87,-28,-34,16,5,-1,1,-6
1523208209346951,16,24,-9,-12,-3,-2,-2,2
1523208209346951,-12,-21,-5,-6,-5,1,-3,-6
1523208209359985,-4,23,-21,-1,1,1,-1,3
1523208209359985,46,5,-5,12,-1,-3,-2,7
1523208209367003,102,9,38,-1,-4,-2,-1,2
1523208209367003,-2,-17,-9,-14,0,2,1,-2
1523208209383048,18,2,-27,5,0,0,-1,0
1523208209383048,-3,4,-7,2,3,0,3,1
1523208209385051,-83,-8,99,3,-1,-3,-3,-11
1523208209385051,48,16,16,-4,-1,-3,-5,-4
1523208209406345,63,11,-51,-9,-4,-4,-5,5
1523208209406345,-52,2,19,32,2,-1,-2,-22
1523208209407112,29,1,-26,-35,0,1,0,-5
1523208209407112,-117,-17,-6,1,-8,-8,-7,-38
1523208209420144,24,-6,-5,16,6,6,-1,-7
1523208209420144,-19,5,107,4,2,2,2,10
1523208209427164,33,-17,-65,-2,-5,-3,-3,-7
1523208209427164,11,4,0,-13,-3,-3,-2,5
1523208209443206,38,-6,12,8,0,-3,0,2
1523208209443206,-116,-26,0,3,3,5,2,-2
1523208209445211,108,1,26,-9,-3,-6,-2,14
1523208209445211,37,8,-2,-6,-2,0,2,6
1523208209465265,-24,8,-13,2,-2,-1,-2,-5
1523208209465265,22,-14,-27,-3,3,1,4,4
1523208209467271,-8,-2,-30,3,-2,-1,-2,7
1523208209467271,29,12,-27,1,-2,-2,-2,5
1523208209479301,-67,10,31,-5,2,0,1,-10
1523208209479301,51,-36,-68,-11,-6,-3,-1,33
1523208209488325,-19,3,-54,13,2,-1,-2,-14
1523208209488325,-9,0,11,-7,0,-1,1,6
1523208209503365,62,17,73,-6,-3,-2,-2,-3
1523208209503365,-30,5,-48,-22,-4,-3,-5,6
1523208209505373,-17,-1,58,9,-1,1,0,1
1523208209505373,4,10,53,10,1,3,-2,2
1523208209525433,16,2,-88,-21,-2,1,-1,0
1523208209525433,26,26,35,2,-5,-4,-4,-8
1523208209527429,-15,-17,-16,7,4,1,2,-8
1523208209527429,-11,-13,17,1,1,-3,-3,-16
1523208209539697,-35,6,14,6,-2,-1,1,10
1523208209539697,24,4,-18,-4,-3,-1,0,-10
1523208209548486,-39,10,-15,-7,-1,0,-1,13
1523208209548486,-52,-7,6,3,0,0,-2,-49
1523208209563761,-71,-7,2,6,-1,-1,-1,10
1523208209563761,-30,1,-34,-11,-3,-3,-5,-36
1523208209564528,-3,-6,16,-7,-5,-3,-2,8
1523208209564528,2,-4,-22,0,4,3,2,-4
1523208209585584,2,-7,-37,-3,-4,-5,-1,-7
1523208209585584,-1,19,-25,-3,-1,0,-1,3
1523208209587588,-51,-6,20,3,0,-2,1,-5
1523208209587588,-14,9,-23,3,2,3,3,7
1523208209599622,0,-1,1,0,-2,0,-4,-5
1523208209599622,16,9,-49,14,2,-1,-1,14
1523208209608673,36,3,-73,-38,-10,-6,-5,-14
1523208209608673,-79,-4,-17,2,-4,-1,2,19
1523208209623685,-20,3,72,7,-1,0,-2,-12
1523208209623685,17,-18,11,2,0,1,3,1
1523208209624692,-1,1,65,10,4,3,2,17
1523208209624692,-20,1,-68,-17,-6,-5,-3,-8
1523208209645743,56,10,33,-2,-5,-4,-4,-1
1523208209645743,7,-4,-11,-3,1,2,2,2
1523208209647749,3,-25,7,19,4,3,1,15
1523208209647749,50,2,4,-22,-6,-4,-4,-24
1523208209659784,44,-7,-66,9,3,0,1,-7
1523208209659784,-83,-19,63,-2,1,1,-1,-7
1523208209669011,24,13,28,-1,-3,-2,-2,-1
1523208209669011,10,5,-7,0,2,0,0,23
1523208209682842,-2,1,-16,-7,-3,0,1,-8
1523208209682842,-30,-3,-47,-1,-4,-4,-6,-15
1523208209684848,-24,14,-5,9,-1,-1,-2,-17
1523208209684848,51,-8,19,-16,1,1,0,13
1523208209706142,11,-2,0,6,1,0,1,-9
1523208209706142,47,1,-23,-5,-3,-2,-3,21
1523208209707914,53,9,4,6,-4,-5,-5,-25
1523208209707914,1,-16,8,12,2,0,-1,10
1523208209718938,-41,-5,-35,14,6,4,3,3
1523208209718938,36,15,-3,-7,-1,3,3,1
1523208209727962,24,-11,-27,-11,-3,0,-2,-7
1523208209727962,57,16,79,14,1,-2,1,6
1523208209743002,43,0,-36,-10,-3,-1,0,6
1523208209743002,-61,-8,92,16,-2,-2,-2,1
1523208209745007,-4,-13,-82,-1,6,5,6,7
1523208209745007,17,11,13,-3,-2,-2,-5,2
1523208209766063,-20,-16,-6,-4,-5,0,-3,-6
1523208209766063,68,1,10,-12,2,-1,0,3
1523208209767067,10,3,7,-15,-2,-1,1,11
1523208209767067,-37,-9,3,14,1,-2,-3,-2
1523208209779098,-7,14,-26,-20,-12,-8,-4,-1
1523208209779098,2,-5,-28,5,4,5,0,17
1523208209788281,-28,11,37,7,0,-3,-7,-61
1523208209788281,26,-10,3,-4,-1,0,1,5
1523208209803162,-28,-4,23,-1,-4,-6,-3,-1
1523208209803162,7,4,30,19,5,0,1,-3
1523208209805168,-99,2,-76,-73,-11,-4,-1,7
1523208209805168,66,-1,55,1,-4,-3,-2,-8
1523208209825224,18,8,12,12,1,-1,1,-1
1523208209825224,26,25,79,23,5,0,1,0
1523208209827225,9,-18,-74,-32,-10,-5,-4,-2
1523208209827225,16,-12,-20,4,0,-1,-2,11
1523208209839493,-46,7,70,16,3,1,1,-1
1523208209839493,44,-9,13,-36,-11,-9,-5,-8
1523208209848282,-31,-3,27,41,7,-1,0,21
1523208209848282,-3,7,-52,-11,-4,-3,0,7
1523208209863557,-18,-17,-91,-6,0,-1,-4,-4
1523208209863557,4,-17,-2,8,3,-1,-2,-18
1523208209864325,7,1,-36,1,-3,1,1,-5
1523208209864325,-31,-5,43,-9,-2,-2,-1,7
1523208209886422,0,22,34,15,7,3,-1,3
1523208209886422,-10,-5,-110,-47,-12,-6,-4,-7
1523208209887386,-21,-9,20,16,5,3,1,11
1523208209887386,17,15,76,15,3,4,4,-3
1523208209899454,46,22,-18,-22,-8,-6,-4,3
1523208209899454,-49,-8,5,11,2,0,-1,28
1523208209908445,-25,-20,50,17,1,-2,-4,-41
1523208209908445,51,-13,-30,10,-7,-5,-2,2
1523208209923481,70,-15,22,-41,-3,0,2,10
1523208209923481,-31,-8,-43,-7,-3,-3,-6,-17
1523208209924490,101,15,20,21,7,3,2,15
1523208209924490,-23,-9,4,18,5,2,2,15
1523208209945539,-6,3,-46,-15,-6,-2,-3,-9
1523208209945539,40,12,29,7,-1,-3,1,7
1523208209947546,16,8,17,2,-2,-2,0,20
1523208209947546,-72,8,-69,-13,-3,-3,-5,-56
1523208209968851,54,-10,84,17,6,4,2,11
1523208209968851,34,3,-27,-12,-5,-2,1,4
1523208209969604,-65,4,29,7,-1,-4,-2,-2
1523208209969604,-15,5,-3,-11,-4,-5,0,3
1523208209983659,-86,17,-2,10,-2,-3,-2,-8
1523208209983659,-78,-16,64,10,5,5,1,-30
1523208209984646,83,6,-60,8,-3,-1,-2,43
1523208209984646,53,22,-3,-10,1,0,1,-7
1523208210005938,17,13,-76,-32,-10,-6,-5,0
1523208210005938,13,-5,15,-10,-2,0,-2,-23
1523208210007706,-8,-1,42,8,2,2,3,-3
1523208210007706,-28,-3,-9,16,3,2,1,39
1523208210027760,37,-33,17,18,5,5,2,-9
1523208210027760,37,-2,-16,-7,-5,-4,-2,8
1523208210029764,1,11,51,-9,-4,-4,-3,-10
1523208210029764,-38,-5,-25,-5,-4,-1,-1,-26
1523208210042801,55,-17,4,9,3,-3,-1,2
1523208210042801,78,2,-12,-6,-4,0,1,11
1523208210044805,-6,5,-36,0,-1,-2,-4,-28
1523208210044805,63,5,23,11,3,3,2,8
1523208210065859,4,-10,-57,-28,-10,-7,-7,-12
1523208210065859,0,-5,41,20,2,0,1,-5
1523208210067865,6,1,-14,12,2,1,-1,12
1523208210067865,-5,5,-10,-34,-6,-5,-3,-5
1523208210088945,-36,-9,8,21,4,2,2,-1
1523208210088945,38,-10,7,13,3,2,1,33
1523208210089927,-87,-10,-5,-22,-4,-2,-2,-20
1523208210089927,-21,-22,6,-4,-6,-5,-2,4
1523208210102959,-18,8,72,13,4,3,3,6
1523208210102959,-24,-1,-96,-11,0,-2,-1,-35
1523208210108976,36,-1,54,-2,-2,1,5,2
1523208210108976,23,-5,-37,4,3,1,-6,-6
1523208210126024,10,6,46,-11,-7,-6,-2,6
1523208210126024,-65,-6,-34,7,1,1,0,-2
1523208210128025,0,3,6,-1,0,-2,-2,-2
1523208210128025,13,-5,-75,-9,-7,-4,-3,-1
1523208210148078,70,10,2,5,1,1,5,21
1523208210148078,-106,-14,-15,-13,-3,-3,-3,-44
1523208210150120,39,1,7,2,1,-1,-1,1
1523208210150120,33,-2,41,2,-1,0,1,16
1523208210163173,-83,-13,-46,2,1,1,-3,-8
1523208210163173,-49,15,81,-6,-3,-1,1,-16
1523208210169370,32,-10,62,6,-2,-4,-4,18
1523208210169370,11,2,-65,-5,3,2,2,-12
1523208210186182,-117,-3,104,1,-2,-2,-5,-11
1523208210186182,109,5,7,6,1,1,1,29
1523208210187183,-112,-2,-46,-3,-4,-1,-2,-11
1523208210187183,6,14,8,2,-2,-1,-2,10
1523208210208244,13,1,-37,0,-4,-2,-2,-40
1523208210208244,43,19,34,-6,1,0,-2,-9
1523208210210243,44,-7,46,-2,-3,-4,0,0
1523208210210243,-7,4,-14,-4,-2,-2,-2,4
1523208210222276,-40,-14,-13,-1,3,3,0,14
1523208210222276,22,-4,21,9,0,-1,-3,-9
1523208210229294,95,26,-25,-4,-2,-1,2,1
1523208210229294,-65,-20,80,-7,-1,0,0,-2
1523208210245337,12,4,43,-4,0,-3,-2,-8
1523208210245337,-9,-2,-40,-6,-4,-4,-2,13
1523208210247342,31,6,12,15,6,4,4,18
1523208210247342,13,10,82,7,1,-3,-1,-9
1523208210268633,-31,-13,-22,-13,-5,1,1,-1
1523208210268633,-20,15,-41,7,0,-4,-6,4
1523208210270527,0,-12,-7,-20,-6,-2,0,19
1523208210270527,8,1,-20,26,5,2,1,-4
1523208210282435,5,-4,-10,-42,-4,0,2,12
1523208210282435,10,-5,-11,5,-4,-2,0,14
1523208210290464,-30,-20,-40,-5,-4,-5,-5,-24
1523208210290464,8,2,23,-3,-2,-2,-2,13
1523208210305735,20,7,-11,11,0,-1,0,3
1523208210305735,-91,-7,1,5,0,3,3,23
1523208210307502,-23,-2,-55,-17,-1,1,0,-10
1523208210307502,0,-9,-31,-13,0,0,-1,-11
1523208210328558,28,-6,-65,-8,-2,-4,-2,-4
1523208210328558,28,1,61,12,0,-1,1,4
1523208210329561,-38,-5,-44,2,-1,-1,-1,-10
1523208210329561,23,13,31,12,3,3,1,-1
1523208210342598,-2,-4,-65,-20,-4,-3,-2,-9
1523208210342598,4,11,5,1,0,-1,-4,7
1523208210349615,-56,-16,-24,3,1,0,-2,5
1523208210349615,13,16,7,-12,-7,-4,0,20
1523208210365893,6,-10,4,20,2,0,-3,-50
1523208210365893,45,3,0,4,0,0,1,-13
1523208210367663,-42,0,-70,0,6,2,2,14
1523208210367663,67,8,-2,-21,-6,-4,-3,-20
1523208210388852,-40,-13,29,8,3,1,-1,8
1523208210388852,-61,-3,33,-3,-4,-3,-3,5
1523208210389721,28,-2,18,8,5,5,2,4
1523208210389721,-14,-30,-4,25,2,-1,0,-1
1523208210402755,26,11,21,-9,0,1,0,13
1523208210402755,-12,1,11,-4,-3,0,1,-11
1523208210409774,7,3,38,0,-1,-1,-2,-9
1523208210409774,-69,-13,-24,-8,-6,-5,-5,14
1523208210425816,23,7,25,16,3,2,0,1
1523208210425816,41,-19,35,-5,0,1,2,15
1523208210426819,-6,3,86,-10,-9,-8,-8,-42
1523208210426819,-16,-9,-15,0,0,3,-1,-12
1523208210447877,14,9,38,26,3,-1,0,10
1523208210447877,39,16,5,-12,-4,-2,0,16
1523208210449883,-19,-4,-12,-10,-5,-3,-1,-36
1523208210449883,-14,0,24,-6,1,-2,-1,-1
1523208210461914,16,12,1,20,-1,-3,-3,5
1523208210461914,23,0,32,-1,1,0,-1,1
1523208210470935,-18,-26,-51,-15,-4,-2,0,18
1523208210470935,-37,-15,2,1,-6,-5,-2,9
1523208210485977,20,3,-12,1,0,1,-1,-2
1523208210485977,-9,-17,-113,-13,-3,-3,-3,-10
1523208210487215,11,17,66,14,-1,1,4,35
1523208210487215,-32,3,-19,-3,2,0,-5,-19
1523208210509039,2,-3,15,2,-4,-4,-2,1
1523208210509039,-91,-12,-107,-9,-5,-5,-4,-2
1523208210515052,20,-20,-12,4,4,3,1,-21
1523208210515052,-55,-5,-7,12,4,2,2,6
1523208210522311,-12,9,35,-6,-2,-3,0,-22
1523208210522311,-16,11,-40,-1,1,1,-3,-26
1523208210538199,58,-1,40,-23,-7,-4,-2,28
1523208210538199,41,-7,11,-4,-4,-3,-1,30
1523208210546136,-36,-45,-97,3,3,2,0,-10
1523208210546136,63,-6,46,14,3,1,0,6
1523208210547139,17,15,42,0,-1,-3,5,12
1523208210547139,53,11,39,-1,2,1,1,3
1523208210568431,1,10,-44,-8,-5,-3,0,7
1523208210568431,99,-10,19,18,3,0,-7,5
1523208210570200,-99,-7,-32,-18,-5,-3,-5,-15
1523208210570200,28,7,9,-6,0,1,1,-6
1523208210582232,36,9,19,14,2,0,-2,11
1523208210582232,9,9,91,-1,-2,0,0,-25
1523208210591259,-6,5,43,25,2,0,-1,12
1523208210591259,66,7,-70,-6,-2,-2,-2,1
1523208210605293,-19,-12,-5,-18,0,2,1,19
1523208210605293,-56,24,71,-5,-5,-4,-2,-18
1523208210607299,3,-3,-95,2,0,0,4,22
1523208210607299,-29,-22,1,4,1,2,-5,-30
1523208210628355,41,13,33,12,-5,-4,-3,0
1523208210628355,33,9,-27,-24,-4,-3,1,12
1523208210630361,39,-5,11,1,4,2,-2,5
1523208210630361,-46,-25,2,-14,-7,-4,-1,-10
1523208210641395,29,-15,52,19,3,0,0,7
1523208210641395,-71,-5,-34,-44,-6,-3,0,-13
1523208210650649,24,3,14,20,-3,-4,-6,-12
1523208210650649,-11,11,-4,1,1,1,-1,-3
1523208210665453,-75,-11,8,-15,-7,-7,-3,5
1523208210665453,63,10,23,12,1,-2,1,14
1523208210667459,-8,2,-5,8,4,4,1,-12
1523208210667459,74,35,58,-6,0,0,5,54
1523208210688750,-16,-3,-34,0,1,2,0,4
1523208210688750,0,-6,-58,7,0,-1,-1,7
1523208210689518,31,10,15,23,-1,-3,-1,-28
1523208210689518,82,2,0,-25,-5,-2,-5,0
1523208210702571,-60,-2,13,4,1,-1,-1,-6
1523208210702571,3,-11,-6,5,1,0,1,9
1523208210710573,-10,16,1,6,2,-1,-3,-10
1523208210710573,-54,0,-59,0,-3,-2,-1,-11
1523208210725615,66,-18,-31,-12,-1,0,3,30
1523208210725615,15,20,48,7,-1,-3,-6,-7
1523208210727619,-15,2,15,-7,-3,-3,0,16
1523208210727619,-28,-9,-10,10,3,1,0,-13
1523208210748675,59,15,53,-10,-2,0,-1,-12
1523208210748675,-74,-17,-73,6,-1,0,0,9
1523208210749677,12,-9,5,-4,1,0,-2,-1
1523208210749677,-48,8,-11,-6,-5,-3,-2,-16
1523208210761944,41,16,12,-7,0,-1,0,10
1523208210761944,-9,-5,58,3,1,3,2,-18
1523208210770769,-57,10,30,-8,-6,-6,-7,1
1523208210770769,-16,-5,1,4,2,0,2,-12
1523208210787011,-32,5,-16,1,0,0,-1,-6
1523208210787011,-5,-5,25,2,1,2,0,4
1523208210787778,24,-12,71,-8,-1,-1,-1,8
1523208210787778,-5,-8,0,17,5,2,0,-33
1523208210807837,-6,-13,6,-2,-1,1,1,14
1523208210807837,48,2,-24,-9,-1,-3,-1,8
1523208210809837,-86,-21,-5,6,0,0,-2,-65
1523208210809837,-23,5,25,-4,-5,-4,-2,54
1523208210830893,81,5,-31,-7,-5,-4,-2,-17
1523208210830893,-38,-17,12,-8,-6,-4,-4,-17
1523208210831937,5,2,-29,5,3,1,2,28
1523208210831937,-41,-3,4,5,0,0,-1,-3
1523208210845935,-10,10,-72,-10,-5,-3,-2,-11
1523208210845935,34,2,-45,-4,-3,-3,0,37
1523208210847174,41,3,0,0,0,1,2,4
1523208210847174,24,5,-9,4,3,1,1,-3
1523208210867993,2,-6,42,8,2,-2,-2,-7
1523208210867993,-22,-10,-29,11,0,3,1,-8
1523208210869996,91,7,10,-30,-5,-1,1,37
1523208210869996,32,14,0,3,-3,-4,-4,-28
1523208210891057,57,-3,-10,2,1,0,-2,1
1523208210891057,-34,-33,34,1,0,0,3,9
1523208210892055,-23,1,-15,-10,-5,-6,-7,-16
1523208210892055,-23,2,13,-9,-4,-5,-3,30
1523208210906094,24,-7,13,-5,0,-1,1,0
1523208210906094,-13,10,-14,7,4,0,0,-12
1523208210907099,16,2,44,-1,-3,-2,0,-8
1523208210907099,-51,-22,-88,-8,0,1,2,-1
1523208210928152,-48,3,110,21,3,0,-2,-10
1523208210928152,14,-20,-102,-38,-8,-2,-3,2
1523208210930157,-93,-12,7,-1,2,4,1,-11
1523208210930157,91,1,23,-13,-4,-6,-4,-7
1523208210951211,-7,10,40,12,5,5,1,3
1523208210951211,-57,-1,3,9,-1,-2,-3,-21
1523208210957229,41,16,-63,0,0,0,0,20
1523208210957229,-45,-15,-14,-2,-4,-3,0,20
1523208210965252,-28,7,-18,-4,-5,-5,0,-6
1523208210965252,54,17,37,-4,1,1,-1,37
1523208210967255,-6,-8,-38,4,-2,-3,-3,-64
1523208210967255,4,-7,27,-1,2,3,0,28
1523208210988547,-18,7,-47,-13,-8,-6,-6,-28
1523208210988547,-12,0,0,14,5,2,1,-8
1523208210990317,50,7,42,0,-2,-2,-1,17
1523208210990317,-5,29,-46,-28,-8,-3,1,8
1523208211010371,-49,-8,-32,9,-1,2,2,2
1523208211010371,72,-18,101,22,3,-2,-1,-24
1523208211012376,-25,-4,-17,-20,0,0,-2,0
1523208211012376,10,2,14,4,-2,-2,-2,-20
1523208211025418,-40,2,29,2,2,1,0,18
1523208211025418,69,15,-96,-22,-9,-6,-4,36
1523208211031427,-15,3,35,18,7,1,0,-11
1523208211031427,-7,-5,38,6,1,-2,-2,-6
1523208211048471,65,-4,-4,-3,-7,-3,-3,-7
1523208211048471,-66,-19,24,-10,3,4,4,31
1523208211049473,50,-2,-16,-20,-6,-4,-3,8
1523208211049473,38,12,52,1,1,0,-4,-29
1523208211070768,8,-10,-12,10,3,-2,0,3
1523208211070768,-74,8,38,18,1,2,2,9
1523208211072537,-10,-7,-42,-6,0,-1,-3,-5
1523208211072537,75,-5,66,14,3,4,5,14
1523208211085570,-75,6,-45,-20,-8,-7,-9,-61
1523208211085570,6,6,15,4,-1,-3,-4,-13
1523208211093591,-32,-36,-35,7,-4,-4,-1,8
1523208211093591,1,1,-11,-10,1,1,0,15
1523208211108632,21,7,-19,1,7,5,4,16
1523208211108632,-1,11,11,-2,-2,-2,-4,-26
1523208211109633,-38,23,35,18,-2,-1,0,-7
1523208211109633,38,-19,-51,15,2,1,-1,-14
1523208211130689,94,-2,20,-24,-5,-2,0,19
1523208211130689,-9,14,12,-14,-6,-5,-5,-19
1523208211132695,-29,-6,57,18,5,2,2,13
1523208211132695,-5,-5,-38,31,4,2,2,-4
1523208211144728,1,8,-16,-24,2,5,5,27
1523208211144728,13,-9,18,14,1,0,3,24
1523208211151981,66,-5,-19,-7,-7,-7,-10,-65
1523208211151981,-55,-5,-4,-4,-1,0,-1,-7
1523208211167790,-41,-8,15,20,2,-1,-1,4
1523208211167790,-12,2,28,-15,-2,1,0,-20
1523208211169792,18,5,-14,-2,5,6,7,21
1523208211169792,-5,-19,-52,-38,-9,-7,-7,-8
1523208211190860,88,0,57,27,4,-3,-4,-6
1523208211190860,-2,-6,-70,-21,-6,-3,1,2
1523208211191852,12,-19,-52,17,-1,-1,-3,7
1523208211191852,-10,10,-32,-30,-4,-2,1,-6
1523208211205124,-51,-25,-4,14,-1,0,1,-1
1523208211205124,24,-4,6,7,3,0,-2,-27
1523208211211906,27,17,-8,7,-1,0,2,9
1523208211211906,-16,1,-65,-6,-1,1,1,3
1523208211227949,-39,1,-59,-9,-3,-5,-6,-36
1523208211227949,-30,-2,-12,11,-1,1,0,-10
1523208211235969,3,-7,51,-6,-1,-1,-1,13
1523208211235969,-10,0,25,-15,-7,-5,-4,-12
1523208211251244,7,0,94,23,6,4,5,5
1523208211251244,-14,-2,-59,-24,-4,-5,-4,10
1523208211253051,-27,-9,59,2,-4,-4,-1,7
1523208211253051,23,15,73,17,0,-3,-1,3
1523208211265046,-5,-22,-112,-21,-2,3,0,15
1523208211265046,5,3,66,36,2,0,-2,-15
1523208211272064,-38,4,5,-31,-1,-2,-3,-18
1523208211272064,2,-12,50,9,-6,-5,-4,-3
1523208211288344,17,5,7,-24,0,1,6,33
1523208211288344,11,-6,-39,-10,-2,-2,-8,-67
1523208211290115,-32,7,-6,-3,-5,-3,-3,35
1523208211290115,-36,0,-9,32,4,2,-2,-34
1523208211311169,18,15,-18,-23,-4,-5,-5,4
1523208211311169,60,8,44,7,1,-1,2,31
1523208211312241,-11,17,18,9,5,1,3,-1
1523208211312241,-16,-20,-97,-11,-3,0,-1,2
1523208211325207,-66,-23,77,6,-5,-3,-1,-10
1523208211325207,1,-4,-54,-1,2,2,1,13
1523208211332224,14,-12,-21,-10,-4,-2,-4,-15
1523208211332224,1,7,58,20,5,4,4,19
1523208211348503,-3,-14,-18,-12,-7,-4,-3,-9
1523208211348503,-29,-1,-8,11,5,-1,3,10
1523208211350436,-29,-3,-25,9,0,-1,0,24
1523208211350436,-47,18,-22,-36,-7,-1,-1,-19
1523208211371370,-16,-23,-14,8,2,1,-5,-66
1523208211371370,-7,9,45,20,1,0,1,30
1523208211372335,29,3,-33,-20,-7,-4,-1,4
1523208211372335,51,22,104,25,8,4,4,4
1523208211384364,-33,1,-98,-10,-5,-4,-3,16
1523208211384364,28,-1,44,-6,-2,-2,-3,-11
1523208211393388,40,8,17,8,5,2,1,-4
1523208211393388,-11,-6,18,3,1,1,-3,-3
1523208211408430,-26,-10,36,2,-2,1,1,6
1523208211408430,38,-3,4,-16,-5,-2,-4,-13
1523208211409430,16,4,14,-8,-3,-1,-2,3
1523208211409430,49,-5,-25,-20,-5,-2,-2,-4
1523208211430523,28,16,-12,7,1,-2,0,16
1523208211430523,-70,-4,-11,-3,0,0,1,-14
1523208211432492,-21,-12,-13,-10,-2,-1,-1,-8
1523208211432492,14,3,-1,4,-1,-3,-3,8
1523208211444526,10,14,33,4,-2,-3,-4,-30
1523208211444526,20,10,-3,-1,0,2,2,4
1523208211453546,-85,-26,-28,-3,-3,-4,-3,-6
1523208211453546,-5,6,-31,11,0,-3,-1,3
1523208211468828,9,12,5,-1,0,1,1,21
1523208211468828,-52,-43,-19,-16,-9,-7,-3,-4
1523208211469589,-44,-16,-20,4,3,2,-2,-16
1523208211469589,18,-11,27,8,-1,-1,-1,12
1523208211490650,-8,17,40,-6,1,-1,-1,-3
1523208211490650,33,27,13,-17,-5,-5,-1,3
1523208211492652,24,2,-9,4,-2,-1,1,7
1523208211492652,-61,-11,-11,5,2,4,2,0
1523208211513706,106,24,-19,-6,-8,-6,-6,6
1523208211513706,7,7,-28,-2,0,-2,-4,-38
1523208211514711,-28,3,1,1,1,0,-1,2
1523208211514711,-23,7,30,-9,1,2,2,0
1523208211527745,14,-7,-17,0,-3,0,1,17
1523208211527745,-94,-17,10,3,3,1,-3,-31
1523208211529749,127,41,-64,11,6,2,-1,0
1523208211529749,34,-16,25,-9,-4,-3,-2,21
1523208211551042,-45,-2,8,-14,-1,-1,-2,-39
1523208211551042,57,10,98,5,-3,-4,-2,29
1523208211552984,20,4,41,17,-1,-2,1,-5
1523208211552984,-32,-2,2,-16,-1,0,-2,-6
1523208211563843,-6,-12,-16,6,-6,-5,-2,6
1523208211563843,15,3,-17,-1,-1,2,3,14
1523208211573872,-23,12,-35,-9,-5,-3,-2,-6
1523208211573872,44,-4,6,4,-2,-3,-3,-5
1523208211588139,-66,-16,15,-1,4,1,0,13
1523208211588139,8,-3,24,0,-2,0,-1,-3
1523208211589913,-59,-30,-31,15,1,1,1,12
1523208211589913,-56,-13,-17,-16,-6,-4,-1,-19
1523208211610966,24,18,32,31,0,-3,-2,-7
1523208211610966,13,-11,-100,-54,-8,-3,0,20
1523208211612145,-10,-25,75,5,1,1,1,-3
1523208211612145,17,17,73,34,6,3,1,29
1523208211624047,1,-6,-3,-17,-2,0,-1,-5
1523208211624047,-31,3,11,40,4,3,3,-4
1523208211633024,45,-4,10,-31,-12,-5,-5,-15
1523208211633024,-115,-24,-91,-30,2,-1,-4,-36
1523208211648300,-6,0,74,26,4,2,4,20
1523208211648300,34,0,-47,-46,-7,-5,-4,10
1523208211650070,14,1,-5,-5,2,0,2,3
1523208211650070,-28,-7,-13,6,-2,-1,1,-13
1523208211671375,36,18,-3,-14,-4,-1,1,59
1523208211671375,-33,0,12,16,0,-2,-2,-11
1523208211672131,-12,8,14,-41,-4,2,0,5
1523208211672131,77,-1,42,11,-2,-4,-4,-5
1523208211684162,81,0,-14,-3,0,3,2,13
1523208211684162,-39,9,18,18,2,2,2,3
1523208211693184,-31,-17,-44,3,1,0,-4,-28
1523208211693184,75,18,66,19,3,0,1,11
1523208211708267,-18,0,-82,-21,-9,-6,-4,-25
1523208211708267,44,-14,11,10,2,-1,-1,-7
1523208211710229,34,23,31,23,3,-2,-3,2
1523208211710229,18,5,-38,-32,-10,-6,0,13
1523208211730323,-89,-20,0,35,5,2,0,-31
1523208211730323,-58,6,-47,-38,-4,-6,-6,-17
1523208211732290,-28,-6,22,28,3,1,0,11
1523208211732290,47,5,38,2,-1,2,-1,4
1523208211744320,-37,4,42,6,-5,-5,-1,-4
1523208211744320,44,1,16,-10,-1,-2,-1,9
1523208211753342,55,-11,12,-8,-3,-3,0,3
1523208211753342,-51,1,29,26,6,1,0,-3
1523208211769391,-39,2,3,-7,6,4,3,6
1523208211769391,-118,-26,-20,5,-2,-2,-3,-33
1523208211770389,45,28,62,30,-1,-3,0,22
1523208211770389,0,-38,-99,-51,-3,1,-1,0
1523208211790444,-81,1,-2,7,1,0,0,-14
1523208211790444,70,18,79,20,3,3,3,37
1523208211792449,-18,0,-31,-13,-6,-2,-1,-1
1523208211792449,-23,-1,-17,14,1,-1,0,-9
1523208211804717,45,5,12,-19,-7,-5,-3,6
1523208211804717,-55,-13,37,14,8,5,1,15
1523208211819756,83,4,-79,-9,-3,-4,-4,-34
1523208211819756,20,7,6,-3,-4,-4,-1,0
1523208211828545,7,-7,29,16,0,1,-1,-7
1523208211828545,58,6,-39,-37,-8,-6,-2,1
1523208211829547,-27,-8,35,-6,4,2,2,3
1523208211829547,-10,3,-30,-3,-1,-1,-3,-4
1523208211850602,33,2,-8,-6,-4,-2,-2,-7
1523208211850602,108,0,-70,12,2,3,1,9
1523208211852610,-91,-28,34,15,-1,-3,-4,-6
1523208211852610,21,16,-8,-41,-9,-5,-1,-1
1523208211873668,-3,-13,9,1,2,1,-1,-3
1523208211873668,12,-7,-5,1,-2,-2,-1,5
1523208211874666,60,38,6,4,1,1,2,3
1523208211874666,7,-19,-46,13,-1,1,1,2
1523208211888704,-17,9,-72,-8,-2,-2,-3,2
1523208211888704,-53,-11,71,14,-4,-2,-1,-15
1523208211889708,81,0,-33,-37,-7,-5,-4,22
1523208211889708,-12,38,89,23,2,0,1,-3
1523208211910764,18,-3,-78,0,3,3,1,-5
1523208211910764,30,0,-4,12,-1,0,-1,17
1523208211912767,8,-7,58,4,-1,1,0,4
1523208211912767,-61,2,-51,-3,-2,-1,-1,-6
1523208211932820,48,1,47,-7,0,0,0,23
1523208211932820,15,7,-7,8,-1,-3,-3,-33
1523208211934827,-2,-10,-86,-5,-1,-2,-2,-2
1523208211934827,-44,-35,85,-2,0,-1,-3,0
1523208211947862,-39,4,33,12,1,-1,0,-3
1523208211947862,25,-5,-35,-11,-2,2,-1,2
1523208211949867,-58,8,-20,-29,-3,-1,1,-8
1523208211949867,20,3,12,18,1,-1,-3,-5
1523208211971157,-21,-36,-41,-11,-5,-4,-1,-5
1523208211971157,-26,-25,7,11,1,3,3,-3
1523208211971967,-31,-3,-6,-11,-5,-4,-6,-43
1523208211971967,-3,-1,-36,8,-2,-1,-1,37
1523208211992980,-33,-4,15,-17,-6,-6,-7,-20
1523208211992980,62,27,-51,15,3,2,3,15
1523208211994986,-3,-21,30,-18,-4,-2,-3,-20
1523208211994986,-22,-17,11,7,1,0,2,-3
1523208212008021,-8,-12,-13,2,-1,-1,-2,-3
1523208212008021,-58,19,111,14,-1,-2,-1,-2
1523208212014037,-28,-28,-113,-30,-3,1,4,45
1523208212014037,51,8,97,3,-2,-4,-5,-10
1523208212031083,-22,5,18,-3,-3,-2,0,-2
1523208212031083,-30,5,14,-1,1,-1,-1,1
1523208212032084,36,7,54,28,7,6,3,12
1523208212032084,20,11,-51,11,1,1,-1,-15
1523208212053378,24,-15,-3,-38,-16,-7,-2,29
1523208212053378,-69,-3,-40,-8,-3,-2,-2,-5
1523208212055155,8,9,21,13,2,1,0,-3
1523208212055155,97,22,66,6,4,3,4,-4
1523208212068181,24,7,-55,9,1,1,0,29
1523208212068181,30,-1,-27,-37,-7,-5,-7,-56
1523208212074197,-22,0,55,25,2,0,2,5
1523208212074197,-75,-5,-17,-25,-5,-2,-2,-4
1523208212090245,59,10,27,14,5,3,2,6
1523208212090245,38,-6,-6,0,-1,-1,1,16
1523208212092245,-24,7,-64,4,-1,-3,-3,-4
1523208212092245,-36,-5,10,2,2,3,1,-7
1523208212113301,50,10,-11,-3,0,0,-2,-27
1523208212113301,17,4,-1,-1,-2,-1,-3,10
1523208212114343,-59,-11,0,0,-4,-3,-1,-19
1523208212114343,84,3,-53,-5,-2,-3,-2,16
1523208212127338,-27,1,47,-3,-1,0,-6,-77
1523208212127338,64,-18,-15,12,0,1,0,12
1523208212134356,-22,4,-63,1,0,-2,1,10
1523208212134356,-49,-9,-10,5,-2,-1,-2,-16
1523208212150635,30,17,45,-21,-2,2,3,3
1523208212150635,10,3,-22,-4,-10,-9,-6,13
1523208212152403,72,11,90,29,5,2,0,-1
1523208212152403,-56,-13,-119,-30,-4,-4,-2,23
1523208212173461,34,-5,-4,6,-1,-1,-2,-27
1523208212173461,-48,-17,-12,7,3,4,4,14
1523208212174464,32,-6,37,-16,-4,-1,-1,4
1523208212174464,-8,10,54,15,1,-2,-2,-1
1523208212187735,-93,-12,60,11,5,2,3,25
1523208212187735,82,7,-68,-16,-3,-2,-2,1
1523208212194516,32,-2,19,1,-3,-3,-1,-3
1523208212194516,0,-18,19,-5,0,3,1,-12
1523208212210796,75,8,-29,-5,-1,-1,-1,21
1523208212210796,-66,-15,8,-5,-4,-2,-3,-25
1523208212212564,87,14,-42,-14,-4,-5,-3,21
1523208212212564,-76,1,-3,15,4,3,2,-49
1523208212233622,10,-2,-41,-6,-4,-2,-2,34
1523208212233622,-28,-18,13,-9,-5,-7,-2,1
1523208212234624,-10,0,0,3,3,3,1,0
1523208212234624,5,-8,-5,-7,1,2,-1,-2
1523208212247892,4,3,-41,12,-1,1,1,9
1523208212247892,-83,1,50,5,3,2,0,-29
1523208212254675,27,2,14,5,-5,-4,-3,8
1523208212254675,-8,-2,-6,-21,-3,-2,1,14
1523208212270952,-5,-10,40,-3,2,0,-1,7
1523208212270952,103,23,-5,1,1,-1,-2,-14
1523208212272732,-77,-8,33,4,2,1,1,-6
1523208212272732,100,21,-3,15,-8,-4,-3,15
1523208212292778,-83,-17,-47,-23,-4,-4,-5,-37
1523208212292778,-13,25,-16,-15,-3,-3,0,12
1523208212294788,-46,9,-18,8,3,0,-1,-5
1523208212294788,34,-9,14,6,0,-1,0,-4
1523208212307818,-14,1,-8,5,1,0,-1,4
1523208212307818,15,6,15,11,1,2,1,14
1523208212314836,15,4,12,-22,-7,-4,-5,13
1523208212314836,-111,-24,-9,-7,-1,-1,-2,-5
1523208212330880,84,11,33,4,-1,-2,1,22
1523208212330880,-27,0,-10,11,3,1,0,-26
1523208212331882,-12,0,30,13,2,3,2,-2
1523208212331882,73,0,-48,-56,-11,-5,-3,1
1523208212353176,-11,-4,30,14,2,0,-1,0
1523208212353176,77,-6,12,0,1,2,1,21
1523208212354946,-19,8,-37,14,4,3,2,-22
1523208212354946,58,-8,-44,4,-3,-4,-2,38
1523208212366975,-17,18,-11,-1,-5,-4,-2,-26
1523208212366975,21,22,22,-22,-9,-6,-1,12
1523208212375998,-21,-25,-13,2,-2,-1,-1,-12
1523208212375998,75,20,31,-4,-1,1,-2,-2
1523208212391039,-41,-21,-75,5,1,0,1,4
1523208212391039,-96,4,42,28,2,1,-1,-5
1523208212392041,18,-5,-91,-47,-12,-5,-2,10
1523208212392041,-27,15,-9,-9,-2,-4,-3,5
1523208212413098,-31,-11,-10,6,1,-1,-3,-34
1523208212413098,-30,-12,81,0,2,7,4,-4
1523208212415103,66,6,0,17,2,0,-1,9
1523208212415103,55,3,37,7,-3,-1,0,18
1523208212427135,8,10,-5,-3,-2,-3,-4,-16
1523208212427135,-14,-6,18,-4,0,-2,2,13
1523208212436158,36,0,31,-1,1,2,1,0
1523208212436158,-58,14,35,12,3,1,2,2
1523208212451319,5,15,116,3,-2,0,0,16
1523208212451319,5,-15,-124,-29,-7,-4,-3,-5
1523208212452201,6,-10,28,-1,-2,-1,-1,-2
1523208212452201,-48,7,57,18,3,0,-2,-19
1523208212473263,-11,-8,-67,-6,-3,-2,0,2
1523208212473263,-11,-5,10,9,0,-4,-5,-18
1523208212475263,-28,8,-12,-2,0,-1,-1,1
1523208212475263,18,-4,-73,0,-3,0,-2,-1
1523208212487487,26,-10,10,-8,-4,-5,-5,-14
1523208212487487,79,-3,18,-4,-2,-2,-2,9
1523208212496504,-76,-10,-20,9,-3,0,-3,-11
1523208212496504,4,-10,45,14,2,1,1,-10
1523208212510357,62,15,-25,6,6,3,0,-13
1523208212510357,15,-21,-33,3,-6,-6,-4,2
1523208212512361,-14,-3,13,-3,1,-2,-3,-52
1523208212512361,-19,-3,-9,-7,-2,-1,-2,2
1523208212533417,-36,-15,-15,0,2,3,1,-8
1523208212533417,-26,-34,58,2,2,1,0,9
1523208212534422,26,2,-27,-5,-3,-3,-4,18
1523208212534422,-68,-8,-51,-20,-5,-6,-3,-15
1523208212547495,3,6,21,7,1,2,2,11
1523208212547495,-98,9,-2,2,-1,-1,0,-4
1523208212555477,8,12,26,-3,-1,2,0,0
1523208212555477,48,-5,12,17,-2,-3,-1,-4
1523208212570751,-6,-3,-14,-22,-1,0,-2,11
1523208212570751,-9,-3,34,6,2,3,3,1
1523208212572525,-43,20,34,-7,-5,-8,-4,27
1523208212572525,0,1,7,2,0,-1,0,-12
1523208212593579,-27,-5,2,9,0,1,0,-7
1523208212593579,68,12,-24,-6,-3,-3,-3,14
1523208212594579,27,-21,-17,1,2,1,4,-7
1523208212594579,-62,2,13,7,1,2,2,22
1523208212606612,-20,23,76,-7,-8,-9,-6,-39
1523208212606612,-5,-21,-5,1,4,3,2,-2
1523208212621653,12,3,9,-3,-3,-2,-1,2
1523208212621653,49,12,-15,-6,-1,0,0,6
1523208212630675,-54,-19,-17,-4,-3,-1,0,24
1523208212630675,9,26,-5,5,3,1,0,3
1523208212632680,70,-5,32,7,1,2,5,6
1523208212632680,83,-6,2,-3,-3,-3,-3,0
1523208212653867,26,13,-72,-13,-1,-2,0,10
1523208212653867,-60,-5,-31,4,-2,0,-2,-22
1523208212654744,69,4,-31,-8,0,-1,-1,10
1523208212654744,-8,-6,4,15,0,0,3,-8
1523208212666771,19,4,47,32,3,-1,-3,-7
1523208212666771,-63,4,-7,-42,-7,-4,-1,-9
1523208212675794,-64,-5,-7,-15,-3,-2,0,0
1523208212675794,-21,-28,-10,-8,0,4,3,31
1523208212690876,48,-3,22,6,-3,-4,-4,-14
1523208212690876,19,14,22,13,2,1,-1,10
1523208212691838,-13,-52,-56,-8,-3,-1,-3,-9
1523208212691838,-12,23,89,5,2,0,-2,2
1523208212712934,-28,-6,5,-6,3,7,6,17
1523208212712934,63,2,-20,12,-6,-5,-2,14
1523208212714899,-15,25,28,-29,-6,-4,-5,-12
1523208212714899,-23,-21,-4,17,2,-1,-1,-24
1523208212736191,103,9,-10,10,-1,-2,-1,12
1523208212736191,-18,-3,-51,-5,0,-1,-1,5
1523208212736958,8,26,37,42,3,1,1,0
1523208212736958,33,-38,-128,-32,-1,-3,-3,4
1523208212750996,-2,4,32,-23,-6,-6,-6,7
1523208212750996,14,8,-10,-1,-4,-1,-1,5
1523208212751997,-42,-27,-1,-4,0,1,1,-6
1523208212751997,-21,15,-1,3,0,-1,-2,-3
1523208212773061,-27,-1,-32,4,-1,-2,-1,-36
1523208212773061,18,5,47,8,-3,-2,-1,-3
1523208212775059,-14,3,-90,-12,-2,1,-1,-2
1523208212775059,56,12,9,2,-5,-4,-5,-21
1523208212796325,-27,-8,34,-1,2,1,3,24
1523208212796325,-11,-10,1,-3,-1,0,2,-2
1523208212797119,107,16,25,11,2,-2,-1,-9
1523208212797119,-65,-3,-54,-7,-1,2,1,5
1523208212811154,7,-31,-29,-19,-8,-3,-1,-2
1523208212811154,-18,5,-4,8,0,-2,-2,5
1523208212812159,-35,0,12,5,2,0,0,-4
1523208212812159,-39,-6,2,-1,3,2,-3,-71
1523208212833215,-46,-8,-29,-3,0,0,2,15
1523208212833215,64,7,15,-22,-1,-1,-2,-11
1523208212835219,-38,-12,-42,14,0,-2,-3,2
1523208212835219,0,17,-9,-22,-8,-5,-4,-42
1523208212856282,-8,12,28,0,-2,-2,1,0
1523208212856282,24,-10,-24,4,0,-2,-1,-8
1523208212857278,8,-10,84,6,0,-1,-1,14
1523208212857278,-80,-15,-39,-2,-1,0,0,6
1523208212870548,52,-5,-19,-3,-3,-1,2,22
1523208212870548,-9,4,-22,-4,-4,-4,-5,-14
1523208212872321,0,11,74,11,2,3,1,-4
1523208212872321,36,17,38,-3,-1,0,0,15
1523208212892370,-21,-29,-95,-28,-7,-5,-5,-3
1523208212892370,-24,-50,50,19,6,7,4,-3
1523208212900628,-32,5,71,3,-1,-2,-9,-57
1523208212900628,15,-1,-21,-6,-6,-5,-3,5
1523208212915432,-53,0,-3,10,2,-1,-3,4
1523208212915432,18,4,-13,2,0,2,1,-1
1523208212917440,-12,-13,-10,-21,-3,-3,0,14
1523208212917440,68,-7,-75,13,2,3,2,11
1523208212930472,73,6,66,-23,-1,-2,-3,3
1523208212930472,21,-3,-26,-3,-5,-5,-1,10
1523208212936706,-27,-7,-8,-3,-4,0,-2,-34
1523208212936706,21,19,20,7,1,-1,-2,20
1523208212953751,56,16,9,17,0,-2,0,10
1523208212953751,-44,-5,-24,-11,-2,-2,-4,-12
1523208212954541,43,7,-53,-5,0,-2,6,16
1523208212954541,-52,-16,-8,26,1,0,7,-3
1523208212975592,26,13,58,-43,-8,-2,-4,-5
1523208212975592,19,-17,19,23,6,5,0,13
1523208212977598,-42,-6,-14,-7,-2,1,6,1
1523208212977598,42,5,14,-1,0,-2,-9,1
1523208212989631,-113,-17,12,12,1,0,1,1
1523208212989631,-37,11,0,-6,-3,-4,-30,-12
1523208212996883,72,2,-4,0,1,0,26,25
1523208212996883,-13,4,24,-5,-1,-3,-2,2
1523208213012727,9,-11,-15,18,2,1,0,6
1523208213012727,-1,19,35,-16,-5,-3,-10,6
1523208213014695,-19,-25,-45,13,4,3,1,-6
1523208213014695,-8,14,76,-2,-2,-3,-2,-5
1523208213035986,1,-13,-38,0,-2,-1,-4,-8
1523208213035986,10,13,-36,13,2,-2,3,1
1523208213037759,-95,0,-23,-8,0,-1,-7,-16
1523208213037759,18,-2,13,-38,-6,-6,-2,21
1523208213050024,-21,12,-40,30,-2,-4,-5,-2
1523208213050024,-58,-23,-9,-4,2,3,11,-3
1523208213056807,-29,13,21,-2,-6,-4,-9,-6
1523208213056807,72,8,0,-8,1,2,1,14
1523208213072851,-51,1,7,13,-1,0,-1,-55
1523208213072851,-58,2,20,-8,-1,1,11,8
1523208213074856,46,8,-26,3,-2,-1,-8,13
1523208213074856,-17,-9,-8,9,0,2,-1,-1
1523208213096147,19,0,-7,-13,1,2,0,0
1523208213096147,115,37,45,9,3,2,4,10
1523208213097140,-63,-53,-60,-14,-10,-8,-9,1
1523208213097140,-48,-8,40,17,5,7,7,-6
1523208213109990,-74,30,-12,0,-3,-7,-5,4
1523208213109990,-1,-11,48,-17,-3,-3,2,-11
1523208213116967,81,18,13,7,1,1,-2,19
1523208213116967,-52,-9,-12,9,-1,-2,1,-5
1523208213133011,-15,-8,18,8,2,3,1,-3
1523208213133011,-8,-7,-9,-28,-8,-6,-1,4
1523208213135015,14,12,-13,-5,1,0,-6,15
1523208213135015,-55,-9,-37,-11,-2,-3,6,-51
1523208213156071,35,-5,22,-5,0,1,2,6
1523208213156071,30,6,1,11,0,2,-2,2
1523208213157075,1,-4,-33,-5,1,0,1,-1
1523208213157075,-47,6,95,-3,-1,2,-9,-1
1523208213170346,12,-30,-7,1,3,0,3,5
1523208213170346,38,-19,-11,0,-2,-3,1,-11
1523208213177128,8,5,-5,-6,-1,-2,-7,2
1523208213177128,-10,4,-31,9,3,0,0,5
1523208213193177,-37,-14,28,-6,-2,-2,-2,0
1523208213193177,27,10,73,8,-1,3,3,36
1523208213195176,74,19,-39,-4,-5,-4,-5,-13
1523208213195176,9,12,-42,-12,-6,-7,-6,-18
1523208213216233,29,6,50,6,3,2,3,-5
1523208213216233,-53,-10,-111,3,1,0,-2,-1
1523208213217234,-60,-6,41,-2,-4,-1,1,4
1523208213217234,-3,-13,13,8,1,2,4,25
1523208213229268,54,6,-100,-23,-7,-2,-8,-3
1523208213229268,-2,15,84,0,-3,-3,-3,-10
1523208213238291,4,6,26,9,1,2,3,-6
1523208213238291,-26,-7,9,-19,-6,-6,-7,27
1523208213253565,-23,0,89,35,1,-1,-2,0
1523208213253565,-10,-9,-108,-37,-8,-5,-5,-11
1523208213254336,-8,-43,-27,9,1,1,1,2
1523208213254336,71,13,1,4,-2,-1,-3,0
1523208213275389,-37,-19,37,11,1,2,2,9
1523208213275389,-12,15,19,-5,-5,-5,-2,-13
1523208213277394,1,10,22,-2,-3,-1,-17,-2
1523208213277394,17,-3,-5,-3,-2,-2,24,2
1523208213298685,46,24,-32,-6,2,2,-1,58
1523208213298685,33,-12,31,11,3,0,0,-16
1523208213299452,-23,0,-4,-19,-5,-5,-6,-39
1523208213299452,60,2,19,8,-1,-1,-7,1
1523208213312487,23,5,-32,-9,-4,-2,3,28
1523208213312487,9,19,38,14,6,4,3,1
1523208213313490,-63,-5,-1,-3,-5,-3,0,7
1523208213313490,0,-11,29,6,0,0,-6,-8
1523208213335615,21,3,87,-4,-3,0,3,-27
1523208213335615,-18,-1,-28,-9,-3,-4,-7,9
1523208213335615,16,-1,24,16,6,4,5,-3
1523208213335615,4,-21,-20,-3,-3,-4,-6,5
1523208213358608,-35,20,23,2,6,5,1,-10
1523208213358608,-22,-65,-44,-3,-5,-2,-2,-2
1523208213358608,102,23,-28,-4,0,1,5,-18
1523208213358608,-54,-4,9,-6,-4,-4,-3,-6
1523208213372649,77,6,-51,-4,0,-1,-2,18
1523208213372649,2,1,17,6,1,-1,0,-8
1523208213373651,-23,-6,39,-4,-1,1,2,7
1523208213373651,42,-12,-35,-5,-5,-2,-5,-7
1523208213395707,-37,-14,-65,4,-2,0,-1,-14
1523208213395707,-13,13,2,-9,-2,0,1,1
1523208213395707,-20,0,17,0,3,3,3,5
1523208213395707,-17,9,88,28,0,-1,-6,8
1523208213418864,-11,11,95,-26,3,1,-2,-10
1523208213418864,-15,-6,-114,2,-7,-6,-3,0
1523208213418864,-16,-23,60,7,-2,-4,-2,5
1523208213418864,-5,-1,-57,-3,3,3,1,-10
1523208213432845,-21,-9,-54,4,-2,-3,0,-3
1523208213432845,35,17,22,2,-1,0,0,-4
1523208213432845,-58,2,28,-6,-1,1,2,21
1523208213432845,-2,-6,-46,-10,-4,-3,-3,-2
1523208213454870,-7,-11,6,5,1,-3,-4,-16
1523208213454870,3,46,-33,6,4,4,3,50
1523208213455873,-15,0,-9,-3,-8,-9,4,-68
1523208213455873,-40,8,67,0,3,2,-1,3
1523208213477967,45,8,-46,-9,-6,-8,-9,-4
1523208213477967,40,-2,47,14,6,5,6,-5
1523208213478930,-34,3,11,-9,-6,-5,-8,33
1523208213478930,9,2,-18,1,5,3,1,-11
1523208213492969,-4,-20,-11,-3,-3,-4,2,-21
1523208213492969,16,14,-13,-3,-1,-1,-6,-7
1523208213492969,19,-37,64,-1,0,-1,0,11
1523208213492969,34,-28,-70,10,1,1,3,-1
1523208213515026,-41,6,-50,-13,-5,-5,-5,11
1523208213515026,48,-1,33,-5,2,2,1,6
1523208213516028,0,19,-14,1,0,2,0,0
1523208213516028,-40,3,-2,-3,1,2,2,7
1523208213538089,11,-9,18,2,-4,-3,-1,23
1523208213538089,-24,-4,-2,2,-2,-5,-5,-22
1523208213539090,-42,-6,-14,-10,1,-1,0,-9
1523208213539090,34,-12,-7,-4,-5,-3,-3,26
1523208213553167,35,6,-5,6,2,1,1,23
1523208213553167,-38,-15,77,-2,0,0,-1,-5
1523208213553167,34,20,-39,3,0,-2,-1,5
1523208213553167,-7,-11,-18,6,2,-1,1,7
1523208213575185,-87,-1,65,-23,-7,-1,-3,-17
1523208213575185,-36,-4,-45,1,-1,-2,-3,-14
1523208213576188,-38,-7,17,5,3,4,3,53
1523208213576188,-12,-11,11,-8,-5,-2,-4,-29
1523208213597311,61,16,26,-1,1,2,-1,-8
1523208213597311,-26,-22,-61,3,-1,0,0,0
1523208213598245,72,31,6,-1,-2,1,0,13
1523208213598245,-23,7,-47,-10,-3,-4,-5,-14
1523208213612284,22,5,77,11,0,0,0,-13
1523208213612284,14,-7,-28,-15,-4,-2,0,-9
1523208213613287,15,-14,-37,3,-2,-7,-4,13
1523208213613287,15,12,-13,-9,-4,-1,1,10
1523208213635580,0,-6,-30,7,4,0,-3,-59
1523208213635580,9,5,50,12,2,2,0,2
1523208213635580,-62,-12,-84,-8,-2,-1,-1,-3
1523208213635580,-17,14,69,1,1,3,-1,-50
1523208213657406,100,-25,-36,3,-2,-1,4,37
1523208213657406,-42,0,-44,8,-2,-3,-4,-35
1523208213658406,43,16,72,-2,-5,-5,-5,-11
1523208213658406,12,10,-19,-9,3,2,1,14
1523208213672445,-27,-2,-11,-3,-3,0,0,-17
1523208213672445,-31,-2,36,10,5,3,3,21
1523208213673448,44,-1,13,-3,-1,0,-2,15
1523208213673448,68,6,-84,1,-1,-3,-6,-15
1523208213695668,-50,-2,12,-4,-5,-5,-3,2
1523208213695668,34,11,-8,-5,0,1,1,16
1523208213695668,-12,-1,-80,-4,-5,-3,-3,-10
1523208213695668,91,10,55,-3,2,1,2,21
1523208213717790,-17,-11,-15,14,4,3,3,3
1523208213717790,89,-21,-9,-9,-5,-5,-5,0
1523208213718566,40,-1,-62,-5,2,2,1,-8
1523208213718566,-35,-26,47,-4,-3,-2,1,42
1523208213733609,-27,10,-17,-4,0,-1,-4,-32
1523208213733609,-5,11,99,4,-1,-2,-1,7
1523208213734609,3,9,35,-2,0,1,0,-15
1523208213734609,50,0,-5,5,1,0,1,23
1523208213754663,-69,-18,-75,-12,-3,-2,-3,0
1523208213754663,-8,-1,17,-4,-3,-1,-2,-2
1523208213755672,-48,5,21,0,3,0,-1,7
1523208213755672,-38,-13,-27,-4,-4,-5,-2,-14
1523208213777723,39,4,-2,4,0,3,5,30
1523208213777723,-77,-6,3,-10,-6,-6,-6,-14
1523208213778727,-57,15,22,-3,2,0,1,-12
1523208213778727,-24,-4,-6,19,-1,-2,-2,2
1523208213792764,-26,-6,-97,-32,-5,-2,-1,3
1523208213792764,64,17,36,3,-2,0,1,7
1523208213793766,27,1,-6,5,1,1,2,16
1523208213793766,-80,2,-28,-4,-2,-3,-6,-94
1523208213814821,78,41,86,7,1,-1,-1,4
1523208213814821,32,23,-92,-7,-5,-5,-2,7
1523208213815825,11,-27,28,10,3,2,1,-10
1523208213815825,-10,1,-26,-30,-5,-2,1,29
1523208213837886,121,11,-61,5,0,-1,-2,-18
1523208213837886,-73,1,32,-11,-3,0,-3,-26
1523208213837886,57,-1,-56,7,1,-1,1,17
1523208213837886,-10,6,12,6,1,1,0,14
1523208213853159,-24,-3,14,4,1,2,2,8
1523208213853159,82,-2,-19,-9,-1,-2,0,12
1523208213853159,-98,-26,2,1,-4,-3,-2,-14
1523208213853159,38,11,42,-13,-3,-1,-2,14
1523208213874980,-46,-19,-57,11,4,1,-1,0
1523208213874980,-49,-33,-5,-1,0,0,0,-4
1523208213875988,12,1,-7,-1,0,-1,-1,-6
1523208213875988,9,8,48,11,-1,0,-1,-1
1523208213898114,-39,2,51,10,0,1,0,-10
1523208213898114,-20,-9,29,-5,-2,-1,-2,6
1523208213898114,20,-17,-24,-11,-4,-3,-4,-8
1523208213898114,47,-3,-1,6,2,2,2,33
1523208213912079,-23,9,0,6,1,-1,-3,-11
1523208213912079,-5,-12,3,4,3,5,2,-5
1523208213913082,57,8,-6,-3,1,4,3,7
1523208213913082,94,17,22,10,-5,-7,-32,-43
1523208213935377,3,-7,-12,-25,-5,-3,24,20
1523208213935377,-18,3,-22,-3,-5,-3,-3,5
1523208213936144,24,15,40,5,4,3,0,14
1523208213936144,-66,-26,-5,-9,-4,-3,-2,-22
1523208213957201,10,7,20,2,1,1,-6,9
1523208213957201,-7,6,-14,0,-1,-6,-15,0
1523208213958202,-37,-5,2,6,3,3,14,-20
1523208213958202,-22,-3,-9,-5,-3,-3,-22,26
1523208213972242,-19,0,33,-2,-2,-2,16,-10
1523208213972242,20,-30,2,1,2,4,3,6
1523208213973245,-28,6,-65,-1,-4,-5,-9,-2
1523208213973245,-33,-13,-46,-5,1,-1,6,-9
1523208213995537,-85,-3,5,1,-1,-1,-9,0
1523208213995537,2,-6,-24,1,0,-1,0,-1
1523208213996303,24,11,49,-5,-2,0,-2,9
1523208213996303,-68,-4,-6,-12,-3,-2,11,-13
1523208214017397,-9,-14,-13,13,-1,-3,-9,3
1523208214017397,1,-1,7,-5,2,1,7,0
1523208214018361,-49,-7,-4,-12,-2,-3,-12,-6
1523208214018361,25,6,-1,3,2,1,22,9
1523208214032402,-21,-10,-7,3,-4,-3,-14,-6
1523208214032402,-13,9,14,8,1,0,-1,-8
1523208214033403,26,15,42,1,-4,-3,-1,-7
1523208214033403,-2,-4,-93,-1,3,4,1,33
1523208214055467,87,-6,40,2,-4,-4,-18,-27
1523208214055467,-37,-4,-25,-26,-2,-1,15,-8
1523208214055467,-13,4,82,2,0,-1,-4,0
1523208214055467,-23,6,17,6,-2,-2,5,-1
1523208214077520,30,7,15,0,3,3,-5,5
1523208214077520,-7,-6,7,-2,-3,-6,-7,1
1523208214078523,29,17,-12,6,1,-1,2,-2
1523208214078523,-3,-21,26,-6,-2,1,-5,-10
1523208214092561,-3,-7,54,1,2,2,5,-3
1523208214092561,26,24,-31,15,-6,-4,-7,-4
1523208214093562,-25,-7,-35,-9,0,-2,3,-2
1523208214093562,27,3,30,16,1,-1,-3,-6
1523208214114620,38,26,-43,-5,0,2,1,9
1523208214114620,-46,-10,13,4,5,6,8,16
1523208214115621,17,-13,9,8,-2,-3,-7,-7
1523208214115621,-48,-9,-8,-4,0,-1,0,0
1523208214137682,-26,11,-1,-3,-3,-4,0,-7
1523208214137682,60,5,35,-8,-5,-4,-5,-1
1523208214138685,-52,-5,-40,-8,-3,-3,-2,13
1523208214138685,-21,15,69,9,4,3,2,-7
1523208214152963,42,-6,-67,-8,-3,-2,2,14
1523208214152963,-29,6,25,9,6,2,-1,-2
1523208214153730,0,-3,2,-4,-3,-3,-3,-2
1523208214153730,-33,-12,50,1,-4,-1,0,7
1523208214174777,-118,-55,-68,-4,-3,-1,-2,-26
1523208214174777,58,1,-14,-1,1,0,-1,13
1523208214175780,88,11,8,-15,-7,-4,-3,-14
1523208214175780,27,0,61,16,1,-1,-3,-1
1523208214198075,-31,-6,-14,-17,-4,-3,0,-2
1523208214198075,8,16,-30,-7,-5,-6,-5,-1
1523208214198075,-27,-6,-11,-6,-2,-1,0,0
1523208214198075,24,30,-3,-7,1,1,0,-15
1523208214212879,61,-55,-26,5,-8,-7,-7,14
1523208214212879,-47,-19,-8,-23,-2,-1,1,-16
1523208214212879,9,1,-2,8,0,0,1,3
1523208214212879,41,5,-36,-5,-3,0,4,23
1523208214235173,-13,7,102,7,2,0,-3,-25
1523208214235173,-54,-26,-8,5,0,3,1,5
1523208214235940,25,-2,-50,12,-2,-6,-5,0
1523208214235940,36,11,38,-16,-1,-2,-2,1
1523208214256999,1,-2,-40,-1,-4,-2,0,4
1523208214256999,-30,3,8,-2,-1,-4,-2,0
1523208214258000,-103,-10,33,1,5,4,4,-10
1523208214258000,4,13,-39,8,-4,-2,-1,-26
1523208214272038,49,22,47,-12,-3,-4,-1,24
1523208214272038,73,5,29,15,3,3,4,-3
1523208214273042,35,-6,-61,4,1,0,0,0
1523208214273042,-40,4,8,-6,-3,-5,-2,25
1523208214295334,-16,12,-3,-3,6,3,0,-14
1523208214295334,46,-1,3,15,1,0,-2,3
1523208214296101,-63,14,66,-5,-1,-2,-3,-47
1523208214296101,8,-10,-15,-2,0,0,0,2
1523208214318162,7,1,75,-1,1,3,0,-4
1523208214318162,68,24,51,4,-2,-1,-2,-8
1523208214318162,19,-16,-56,10,1,1,2,18
1523208214318162,52,-12,-103,-25,0,0,2,23
1523208214332197,-34,13,105,5,-2,-4,-5,-23
1523208214332197,-4,14,-18,-2,0,-3,-4,-26
1523208214340219,48,-4,15,-7,-6,-2,-4,7
1523208214340219,-64,-18,11,8,3,1,-2,-22
1523208214355263,3,-7,-48,-7,0,0,3,35
1523208214355263,-20,-2,6,0,1,1,0,12
1523208214356261,6,6,11,-5,-4,-3,0,-2
1523208214356261,42,16,9,7,3,2,1,-6
1523208214377317,37,16,35,-2,1,0,-1,6
1523208214377317,49,-6,-52,-12,-11,-9,-6,10
1523208214378318,-4,7,22,2,0,-2,-2,-6
1523208214378318,11,-1,-11,1,-1,1,3,-3
1523208214391353,64,16,-35,3,-2,-5,0,41
1523208214391353,-47,-21,22,-4,-3,-3,-5,-38
1523208214400613,66,21,-54,-6,-1,1,-8,18
1523208214400613,-45,-13,17,-6,-2,-1,20,-6
1523208214423439,-25,-9,-35,8,-2,-2,-5,-10
1523208214423439,28,-7,26,3,4,3,0,19
1523208214423439,-66,-8,87,0,-3,-2,-1,-1
1523208214423439,-32,-12,28,5,-4,-3,-13,-22
1523208214437481,-28,-16,-125,-39,-4,-2,-1,-13
1523208214437481,-37,17,-20,7,2,1,5,9
1523208214438484,-86,-38,14,-2,0,0,-2,-41
1523208214438484,85,25,34,8,-2,-5,-5,14
1523208214452555,-28,-18,-71,5,2,3,4,3
1523208214452555,-60,16,-52,-3,-2,-3,-5,-4
1523208214459537,81,10,-2,-5,2,2,5,18
1523208214459537,-18,5,1,-4,-5,-7,-10,-2
1523208214474574,-73,-12,15,-6,1,0,-2,-16
1523208214474574,11,20,37,4,1,3,1,-1
1523208214475577,-35,-19,-43,-8,-7,-8,-1,-18
1523208214475577,21,-8,-10,-1,-1,0,1,14
1523208214497875,-69,-3,18,13,1,2,-2,-13
1523208214497875,39,-12,13,-1,-1,1,2,46
1523208214498638,-6,-5,38,-5,0,0,-4,-32
1523208214498638,-62,10,3,-2,0,-2,-4,-17
1523208214511709,1,2,82,0,0,-2,0,10
1523208214511709,16,-6,16,3,0,-1,-1,-11
1523208214519694,56,24,14,13,3,3,3,25
1523208214519694,-44,-28,-71,-14,-1,0,-3,-15
1523208214534970,127,22,25,8,-3,-3,-1,35
1523208214534970,-58,-7,-11,-12,-3,-3,-2,-48
1523208214535736,-34,1,13,1,1,-2,-3,-33
1523208214535736,-9,25,28,30,0,-1,0,12
1523208214557795,-89,-34,-55,-18,-5,0,2,-17
1523208214557795,41,5,20,-9,0,0,-3,14
1523208214564814,27,-5,-13,-3,-1,1,2,22
1523208214564814,-54,-1,31,-4,0,-1,-2,-9
1523208214571845,42,-3,-26,21,6,6,7,33
1523208214571845,-98,-26,-3,-6,-4,-4,-5,-30
1523208214579854,29,-16,-82,10,6,4,1,3
1523208214579854,-41,-10,30,-5,-3,0,-1,10
1523208214594894,105,31,8,-5,-7,-5,-7,13
1523208214594894,-45,-4,-6,-1,1,1,2,6
1523208214595897,62,-7,14,3,1,-2,1,2
1523208214595897,32,8,-43,0,1,1,0,12
1523208214618117,34,-7,-16,-10,-5,-3,-4,-50
1523208214618117,-31,1,55,-2,-5,-5,-2,2
1523208214618117,-29,-15,-9,-8,-4,-1,-2,7
1523208214618117,-15,-12,-49,-14,1,1,1,0
1523208214641018,-2,5,42,31,4,0,-2,-8
1523208214641018,74,-2,-48,-16,-1,2,-1,8
1523208214641018,-79,-14,72,15,-3,-2,-3,0
1523208214641018,26,-11,36,-17,4,5,0,-1
1523208214655057,-113,-10,-63,10,-10,-7,-3,-14
1523208214655057,-47,3,39,5,-1,-4,-2,-13
1523208214656058,37,12,-22,-11,-2,-5,0,19
1523208214656058,27,9,71,3,0,1,-3,-13
1523208214677114,-10,5,28,-19,4,-1,-2,-11
1523208214677114,38,7,-36,22,-4,1,0,12
1523208214678117,-10,10,24,14,2,3,1,-3
1523208214678117,-24,-14,5,-15,-6,-6,2,45
1523208214701286,22,-6,21,5,2,0,0,-9
1523208214701286,-9,-17,-37,-28,-5,-3,-3,-3
1523208214701286,21,9,-46,1,-2,-3,-2,0
1523208214701286,87,-12,-30,11,2,2,0,1
1523208214715215,-12,16,86,-2,0,0,2,23
1523208214715215,-7,6,-58,9,2,3,1,-2
1523208214716254,-16,-7,-62,-13,-6,-3,-2,3
1523208214716254,15,0,-37,-4,-6,-4,-4,-9
1523208214737274,4,-15,-26,-18,-7,-3,-2,6
1523208214737274,6,-2,45,3,3,2,-2,-17
1523208214738277,-8,8,-54,-17,-3,0,2,9
1523208214738277,12,5,-11,17,0,-3,-1,-14
1523208214760336,39,25,-29,5,4,3,4,1
1523208214760336,-26,-26,-6,-10,-1,-3,-1,29
1523208214761339,14,7,58,10,-3,-4,-1,5
1523208214761339,24,-17,-60,-28,-8,-5,-3,-18
1523208214775373,14,31,-38,-1,-1,-4,-4,-9
1523208214775373,48,-37,-1,-18,-3,-1,-1,-31
1523208214775373,-14,5,9,12,1,0,-2,-9
1523208214775373,19,0,4,14,0,-3,-3,5
1523208214797668,-30,6,17,0,0,1,3,15
1523208214797668,-42,7,55,4,4,4,2,-1
1523208214798435,20,5,-4,-11,-1,-2,-1,8
1523208214798435,12,-4,64,3,-2,1,-1,-1
1523208214820504,102,1,0,-7,-1,-1,-7,-8
1523208214820504,35,2,-20,11,-1,-4,0,16
1523208214821498,-63,-9,2,-5,1,2,1,-5
1523208214821498,-67,15,28,-2,-2,-1,-2,8
1523208214835647,-10,0,78,13,6,6,2,-8
1523208214835647,40,2,-61,-7,-9,-9,-5,-3
1523208214835647,57,-16,-18,-6,-3,-3,-4,-12
1523208214835647,-25,-44,-16,5,4,0,0,-16
1523208214857594,-32,0,4,3,-1,-1,0,1
1523208214857594,39,-1,-16,-9,-1,0,-1,-6
1523208214858597,-67,-8,-52,-12,-5,-1,-3,-24
1523208214858597,13,20,26,17,-1,-2,-4,-1
1523208214880656,17,-17,21,7,-1,-3,-2,-7
1523208214880656,6,7,-19,16,2,0,3,23
1523208214881656,-24,1,-39,-11,-1,-2,-2,-1
1523208214881656,11,12,46,-14,-1,1,2,18
1523208214894926,-19,-20,-16,-2,-1,-2,-3,-42
1523208214894926,40,25,57,1,-1,0,-1,1
1523208214895692,17,10,72,4,1,-1,1,9
1523208214895692,-45,27,-19,-1,-2,-2,-2,-8
1523208214917994,-14,-16,-32,-10,-1,-1,1,16
1523208214917994,-81,-12,-11,10,1,-1,-4,7
1523208214918756,61,22,29,-7,-5,-6,-4,-8
1523208214918756,11,-5,2,3,0,0,-1,1
1523208214940814,2,18,-42,-7,-2,-4,-3,-2
1523208214940814,28,4,16,-4,0,-1,0,-4
1523208214941816,-31,-9,16,5,2,1,0,20
1523208214941816,-45,2,-21,-3,-2,0,-1,-28
1523208214954856,2,3,17,-6,-5,-4,-3,16
1523208214954856,-30,-11,-83,-3,1,1,1,-8
1523208214955857,33,3,56,7,3,4,3,18
1523208214955857,21,16,-21,-9,-5,-7,-7,-15
1523208214977913,-53,-29,-56,-1,0,3,0,-3
1523208214977913,16,0,-32,-2,0,0,-1,5
1523208214977913,14,1,-50,-3,-3,-1,0,2
1523208214977913,1,11,-4,2,5,1,1,3
1523208215001208,-27,-15,20,17,-1,-1,-1,-7
1523208215001208,21,27,36,-23,-5,-5,-5,26
1523208215001208,13,-1,-38,-2,-2,-3,1,-1
1523208215001208,15,-16,-94,0,-2,-4,-1,0
1523208215015011,-31,25,77,8,1,1,2,11
1523208215015011,85,-4,-28,-1,1,1,0,-5
1523208215016014,54,-6,43,0,-3,-2,-3,-25
1523208215016014,7,-8,-24,-2,-1,-1,0,29
1523208215037075,2,-5,55,-5,-1,-1,0,10
1523208215037075,12,-4,-18,4,-3,-2,2,1
1523208215038074,27,5,8,3,2,4,0,-23
1523208215038074,-21,-2,18,-9,-1,0,1,7
1523208215061135,17,2,-33,-5,-2,-2,-3,0
1523208215061135,13,4,70,12,4,2,0,-18
1523208215061135,-52,-35,-27,2,-1,0,2,28
1523208215061135,21,8,57,5,-2,-1,-2,-55
1523208215075172,-37,-13,-63,-15,2,2,0,0
1523208215075172,-26,8,41,-1,-4,-2,-3,-2
1523208215076173,-85,-12,-90,-19,-4,-3,-3,8
1523208215076173,21,1,26,0,-2,0,0,3
1523208215097464,27,6,23,4,-3,-3,-1,3
1523208215097464,22,22,6,2,0,-2,-3,-51
1523208215098230,-101,-19,-15,-10,-1,-2,-2,2
1523208215098230,69,18,-25,3,-7,-8,-6,-30
1523208215120296,5,-5,-2,4,-1,-2,-1,-11
1523208215120296,-41,-11,2,-6,-2,0,-1,11
1523208215121297,41,11,37,7,2,3,2,1
1523208215121297,-39,-10,1,-4,0,2,1,12
1523208215135481,42,-7,-16,1,1,3,1,-11
1523208215135481,-56,-19,24,8,-1,-3,-2,-15
1523208215135481,83,18,32,7,5,3,2,14
1523208215135481,-55,-19,-64,-19,-9,-6,-4,-7
1523208215157390,12,0,2,-7,-2,-1,0,1
1523208215157390,-7,0,4,8,0,-1,0,14
1523208215158392,18,-16,15,6,-2,-2,-3,-13
1523208215158392,-18,7,48,14,7,6,4,14
1523208215180451,3,-9,-24,-8,-5,-4,-1,0
1523208215180451,-65,-15,-96,-11,-4,-3,-2,8
1523208215181453,103,23,65,5,1,0,2,61
1523208215181453,-68,-33,-17,-3,-2,-3,-6,-58
1523208215195636,29,-5,58,-13,-8,-8,-6,7
1523208215195636,-22,2,24,-2,-1,-3,2,-1
1523208215195636,-19,-4,-76,-14,-9,-6,-4,-9
1523208215195636,46,11,51,7,7,5,4,24
1523208215217548,-7,2,-6,3,3,2,-1,-10
1523208215217548,-5,6,15,-1,-1,-1,-1,-3
1523208215218551,-40,8,44,3,2,4,3,14
1523208215218551,81,1,-51,-9,-8,-7,-6,-25
1523208215240610,-103,-14,-41,-6,2,1,3,-1
1523208215240610,55,0,-26,2,-3,1,0,32
1523208215241613,41,24,40,7,7,3,2,-19
1523208215241613,67,-1,-10,0,-2,-2,-1,31
1523208215254649,13,-6,36,1,-2,-1,-2,7
1523208215254649,11,-23,14,0,0,2,2,-7
1523208215262671,-41,-2,6,-5,-5,-5,-3,-4
1523208215262671,-26,6,-58,5,8,7,2,-16
1523208215277710,57,5,15,13,-4,-8,-6,-4
1523208215277710,-13,4,3,-25,-1,-1,-2,11
1523208215278711,-41,-9,-4,21,-3,-6,-4,-13
1523208215278711,3,-12,64,6,1,2,3,18
1523208215301008,-21,4,-51,-5,-1,-1,0,-1
1523208215301008,56,16,19,11,3,0,-1,-11
1523208215301774,16,-4,3,-8,1,1,0,25
1523208215301774,0,-6,-15,-4,-3,-4,1,21
1523208215314812,79,9,73,-1,-3,0,-4,-21
1523208215314812,7,0,7,-7,-5,-4,0,15
1523208215322829,47,26,-20,-6,2,2,-2,-14
1523208215322829,16,6,23,-5,-6,0,-1,22
1523208215337909,-42,-11,22,-3,-2,-2,-5,-38
1523208215337909,6,-6,13,0,2,0,-1,1
1523208215337909,-6,-6,16,-3,-1,1,-1,-29
1523208215337909,62,12,26,4,2,-2,-2,7
1523208215360930,-25,5,-21,0,-2,-3,-1,15
1523208215360930,-5,-3,-29,3,-2,3,-1,-5
1523208215361933,-64,-11,-22,-4,-2,-1,-1,-44
1523208215361933,108,-53,-61,-20,-8,-9,-6,12
1523208215373966,70,2,-17,3,4,4,5,34
1523208215373966,-15,-1,-5,10,3,-1,-3,-19
1523208215383185,-1,-1,16,-9,-3,-1,-1,7
1523208215383185,-63,3,-76,-5,-2,-1,1,0
1523208215398112,-10,13,20,3,5,5,4,-2
1523208215398112,-14,-17,9,3,-3,-6,-4,28
1523208215398112,40,0,46,-1,0,1,-1,1
1523208215398112,4,10,-22,-5,1,0,1,-5
1523208215421095,-77,-14,-51,-10,-10,-7,-2,6
1523208215421095,-8,-4,10,9,4,4,1,-15
1523208215421095,6,-9,16,-4,-4,-4,-1,-24
1523208215421095,-91,-7,-8,0,-1,-3,-1,17
1523208215434363,113,10,11,-7,-1,-4,-5,-4
1523208215434363,3,-27,-23,-4,-4,-4,-4,-14
1523208215442147,61,-7,-22,4,1,0,1,21
1523208215442147,-35,21,34,6,0,1,-3,-53
1523208215457188,-81,-5,-29,-10,-6,-4,-2,22
1523208215457188,1,-8,29,3,1,-1,-1,3
1523208215458189,41,6,-9,-4,-2,-2,-1,-8
1523208215458189,-46,5,32,2,0,3,3,6
1523208215480249,22,4,1,3,0,0,0,2
1523208215480249,11,12,21,3,1,2,2,-16
1523208215481249,17,-7,-26,-4,-1,-1,0,17
1523208215481249,-7,-21,-1,-6,-4,-3,-1,-19
1523208215494519,19,7,32,4,2,0,1,5
1523208215494519,20,21,-10,-3,-5,-6,-3,1
1523208215502307,-56,-19,-28,5,3,3,-2,-5
1523208215502307,91,26,27,-5,-5,-4,3,53
1523208215517345,-45,-6,-33,-2,-1,0,-6,-89
1523208215517345,92,18,-11,-2,0,-1,1,4
1523208215518347,-51,9,3,2,2,2,2,6
1523208215518347,-8,-18,-51,1,0,1,-1,-9
1523208215540409,72,21,71,2,-2,0,2,33
1523208215540409,-45,-15,-14,0,-3,-3,0,-2
1523208215541409,-34,8,0,-5,-6,-7,-5,-15
1523208215541409,-25,-1,-5,-14,5,4,2,6
1523208215554453,-62,-13,-34,6,2,2,0,-10
1523208215554453,-105,-24,3,1,-2,0,0,-14
1523208215562502,35,8,-22,1,-3,-1,-1,50
1523208215562502,-41,-12,18,11,1,-1,-3,-27
1523208215577505,-9,-4,8,-7,1,2,0,3
1523208215577505,29,8,14,-4,-3,-2,-1,-6
1523208215578508,-103,-17,-11,2,-2,-1,0,28
1523208215578508,-17,10,-22,-5,-6,-4,-6,-66
1523208215600801,-10,-24,45,5,4,-1,2,12
1523208215600801,8,0,4,-3,0,1,1,10
1523208215601568,127,5,-61,-3,2,3,2,-4
1523208215601568,56,0,42,4,-1,-3,-1,23
1523208215623629,20,-11,-51,0,-3,-1,-3,-12
1523208215623629,-76,-15,26,-2,-1,0,-4,-10
1523208215623629,31,12,28,1,0,-4,-4,-14
1523208215623629,53,12,1,5,0,1,0,15
1523208215637671,-14,-6,-53,0,5,4,5,18
1523208215637671,8,-12,-2,-2,-2,-1,-1,-17
1523208215638668,-37,-9,15,-5,-6,-5,-5,-20
1523208215638668,-32,1,26,10,6,6,4,5
1523208215660768,43,13,-63,-9,-3,-2,0,33
1523208215660768,-4,28,66,0,-3,-4,-4,-24
1523208215661731,-45,-37,-38,-5,-4,-5,-2,4
1523208215661731,9,7,59,2,-1,-2,-1,2
1523208215683831,-45,-9,0,5,1,1,1,12
1523208215683831,-16,19,1,-15,0,-1,1,7
1523208215683831,39,-6,-6,9,0,-1,-2,-16
1523208215683831,-30,-9,-34,10,0,-1,-1,-11
1523208215698061,33,2,-5,-10,-6,-5,-4,9
1523208215698061,32,-11,-57,6,0,1,-2,6
1523208215698061,-33,-12,54,-11,1,4,3,-6
1523208215698061,-72,-26,-26,-8,-4,-2,-1,8
1523208215720889,-21,17,79,6,-5,-4,-6,-25
1523208215720889,-4,-22,-21,-1,1,1,0,-3
1523208215721890,66,18,-22,-19,-1,1,1,-2
1523208215721890,39,9,75,21,4,5,5,43
1523208215742986,-20,11,-49,-12,-10,-11,-10,-70
1523208215742986,-47,2,-4,1,0,0,1,7
1523208215743946,44,1,-6,-13,-3,-2,-2,0
1523208215743946,-32,-2,5,-4,1,-2,-1,-16
1523208215756983,23,3,42,0,3,3,3,24
1523208215756983,-21,-14,-27,8,0,0,-1,2
1523208215757985,-89,4,27,-1,-8,-8,-7,-60
1523208215757985,16,-1,70,-9,-3,-3,-2,-3
1523208215781046,60,-1,16,6,4,4,3,1
1523208215781046,4,-13,20,-2,-2,-2,-1,1
1523208215781046,-20,-6,-2,3,2,3,1,3
1523208215781046,40,13,-75,-2,-3,-2,-1,0
1523208215803111,-54,-25,19,-13,-6,-5,-1,16
1523208215803111,7,20,27,0,-4,-3,-5,-18
1523208215804113,4,9,-28,12,1,-1,1,31
1523208215804113,-20,-36,-36,-7,-3,-4,-2,-13
1523208215818184,28,-5,-6,4,6,8,4,15
1523208215818184,-24,20,2,-2,1,-1,-1,8
1523208215818184,-5,-16,-41,-1,-4,-5,-4,9
1523208215818184,39,1,-33,-1,0,-2,-3,-12
1523208215840207,-20,-6,-85,-12,0,2,4,25
1523208215840207,27,8,58,-3,-2,-1,-1,-29
1523208215841206,13,8,24,2,-1,-1,-2,-6
1523208215841206,-8,-1,-28,2,-1,-2,-2,14
1523208215863265,52,3,34,6,4,4,1,-12
1523208215863265,127,21,9,-3,-5,-5,-5,7
1523208215864268,7,-8,-51,-2,-3,-2,-2,4
1523208215864268,-13,1,4,-6,-3,0,-2,-7
1523208215877302,-16,6,22,7,1,-1,0,-2
1523208215877302,-7,-5,-18,-6,-3,-1,-1,-12
1523208215878305,-25,0,37,3,2,1,-3,-39
1523208215878305,25,2,-30,6,6,2,1,39
1523208215901374,18,-4,-54,-7,-4,-6,-8,-45
1523208215901374,0,-9,13,7,1,3,4,13
1523208215901374,-25,5,-31,-6,-2,-4,-1,13
1523208215901374,-20,-12,5,-7,-2,0,-1,-6
1523208215923425,56,14,12,4,-1,0,0,19
1523208215923425,-22,-9,-54,1,-1,-2,-1,6
1523208215924428,44,20,123,-2,-3,-1,-3,-9
1523208215924428,47,4,-1,3,-1,-3,-2,32
1523208215937504,-32,-11,-11,-10,-5,-5,-5,-46
1523208215937504,5,1,-29,-4,1,0,-1,-4
1523208215938466,0,-5,55,7,1,2,2,13
1523208215938466,-48,-12,0,-2,-1,-1,-3,8
1523208215960562,-15,12,-8,-4,1,-1,0,9
1523208215960562,-5,-7,48,-1,-6,-3,1,33
1523208215961528,-43,-2,-31,1,-1,-1,-1,-3
1523208215961528,28,4,17,-4,-1,1,1,-13
1523208215983833,-26,-13,-36,3,0,0,0,5
1523208215983833,-4,5,-17,-4,1,-1,-1,-7
1523208215983833,33,23,70,7,0,0,0,19
1523208215983833,-44,4,23,-7,-7,-4,-2,-16
1523208215997856,-40,-3,-20,-3,0,2,2,0
1523208215997856,108,-14,33,-2,0,-2,-4,-17
1523208215998624,-53,-16,-5,3,2,1,1,-16
1523208215998624,74,28,22,-5,-4,-4,-1,6
1523208216020687,-45,2,-49,5,3,0,1,-5
1523208216020687,-58,-3,16,-2,-2,-1,1,20
1523208216021686,2,-7,-32,1,1,-1,1,4
1523208216021686,-51,-12,10,-2,1,2,-2,-36
1523208216043784,10,9,47,2,-4,-2,-4,4
1523208216043784,7,-21,20,4,1,0,0,7
1523208216043784,87,-6,-78,-7,-2,0,0,2
1523208216043784,-70,2,20,4,1,1,3,6
1523208216056779,30,19,67,2,-1,-2,0,29
1523208216056779,20,0,-32,-6,1,2,2,8
1523208216064801,-34,3,-4,-7,-3,-3,-1,-1
1523208216064801,75,0,-8,-4,-2,-6,-6,14
1523208216080843,-51,-2,26,7,0,-1,-1,-13
1523208216080843,-12,2,-7,3,1,3,-2,-29
1523208216081847,117,10,1,-5,-4,-4,-5,-10
1523208216081847,-56,-6,-28,-1,0,-2,1,5
1523208216102907,19,-1,20,-5,-6,-4,-1,7
1523208216102907,-34,-8,-22,0,2,3,2,1
1523208216103910,35,9,40,6,4,4,2,25
1523208216103910,-83,-23,62,1,-1,-2,-6,-62
1523208216118007,-20,-11,-67,1,4,4,-2,-23
1523208216118007,11,13,-110,-15,-10,-4,0,56
1523208216118007,-73,-8,45,1,-1,-3,-2,-32
1523208216118007,127,19,5,-1,0,0,2,36
1523208216141002,-25,-2,17,0,-4,-4,1,6
1523208216141002,14,15,-9,-3,0,0,0,16
1523208216141002,-36,-20,1,-1,-2,-2,-3,-13
1523208216141002,-50,-17,-39,-5,-1,0,-3,-16
1523208216163063,-4,-2,11,3,1,-1,-1,13
1523208216163063,6,6,10,-3,-4,-4,-4,-17
1523208216164063,-33,0,4,-6,0,1,1,23
1523208216164063,-4,16,2,9,3,-1,1,-17
1523208216177100,21,-11,-4,-6,-3,-2,-3,-18
1523208216177100,-21,-7,-67,1,0,-1,-1,-17
1523208216186125,3,0,-64,-1,-1,1,2,8
1523208216186125,-37,9,23,2,-4,1,1,6
1523208216201272,59,9,24,1,-1,-3,-3,1
1523208216201272,-40,-14,32,-7,-1,-2,-1,-4
1523208216202170,-2,-12,-53,-7,1,2,0,-15
1523208216202170,-4,4,-17,3,-1,-3,-3,2
1523208216230240,22,-2,-2,-8,-7,-3,1,38
1523208216230240,-44,2,33,11,3,1,-3,-40
1523208216232245,-2,-21,32,-11,-7,-6,-4,1
1523208216232245,5,-23,-11,-2,-2,-1,-3,-6
1523208216237261,-37,-30,3,8,3,3,-1,-43
1523208216237261,54,12,12,2,1,1,1,9
1523208216246282,-9,26,54,0,-3,-1,-2,6
1523208216246282,-24,-12,-1,-9,-1,1,-1,-38
1523208216260320,91,3,12,-11,-5,-5,-2,9
1523208216260320,-114,-9,-14,6,1,2,-1,-4
1523208216262326,37,2,19,9,0,0,-1,-13
1523208216262326,25,12,-24,-8,-3,-2,1,43
1523208216283617,-41,6,-1,-2,-2,-1,0,-16
1523208216283617,-19,-33,45,2,-1,-3,-4,-3
1523208216285392,39,-4,-59,0,3,3,0,22
1523208216285392,27,4,35,1,0,1,-1,-3
1523208216297458,-45,5,-6,-2,-3,-2,2,7
1523208216297458,55,-6,-56,-13,0,-1,-3,1
1523208216305439,-48,-8,-1,26,1,-1,0,9
1523208216305439,88,10,-38,-34,-6,-3,-3,-39
1523208216320481,-79,9,-15,1,-2,-2,-1,-7
1523208216320481,54,20,47,-2,-3,-3,0,6
1523208216322484,16,1,-93,3,2,3,3,5
1523208216322484,8,10,57,9,1,1,2,-4
1523208216343782,-30,7,-50,3,1,-2,-3,32
1523208216343782,16,1,57,-1,-1,-2,-2,-8
1523208216344572,-66,-3,-11,-12,-1,-1,-2,-10
1523208216344572,-7,-4,-20,13,-1,-3,-3,-13
1523208216356575,55,-4,-5,5,5,4,3,13
1523208216356575,51,15,5,-1,-5,-5,-2,-6
1523208216365600,-18,-4,25,-4,-2,0,5,11
1523208216365600,-16,-8,-9,-6,-2,-3,0,38
1523208216380640,12,-3,17,1,0,0,-2,-26
1523208216380640,38,2,-16,2,-1,1,2,6
1523208216382645,17,2,-11,-10,-3,-2,-4,-10
1523208216382645,-16,2,-6,6,0,1,1,15
1523208216403702,17,-7,11,0,-2,-2,-2,-2
1523208216403702,-91,-12,-8,2,0,-2,1,-1
1523208216404704,26,-5,5,-2,2,2,-2,-9
1523208216404704,-8,19,-45,-3,-5,-2,-4,-2
1523208216416735,19,-11,36,-2,-1,1,-4,-19
1523208216416735,-14,-9,-2,7,1,1,0,6
1523208216425760,-3,15,17,-5,-3,-4,-5,-46
1523208216425760,14,-1,-21,5,4,-1,-4,-29
1523208216439798,30,1,34,-4,-3,-1,2,21
1523208216439798,47,24,-4,2,-3,-4,-2,0
1523208216447050,-116,-8,44,0,-3,-3,-1,10
1523208216447050,99,1,-38,3,2,2,3,30
1523208216462859,-36,0,5,-19,-2,2,-3,-14
1523208216462859,5,-4,-20,13,1,1,-1,-5
1523208216464862,33,-3,13,0,-2,-2,-2,20
1523208216464862,-72,-12,43,2,2,1,2,-3
1523208216476897,40,-1,-38,-8,-7,-5,0,33
1523208216476897,43,2,-4,-9,-3,-2,-4,-7
1523208216485926,-10,-3,5,-3,3,1,1,-38
1523208216485926,-76,-13,-8,4,-1,-1,-4,10
1523208216501027,57,32,24,11,1,-3,0,-1
1523208216501027,-84,-44,79,-18,-8,-6,-3,26
1523208216501963,-36,-18,41,3,-3,-2,-2,-16
1523208216501963,-13,-18,-40,-5,-3,-1,1,-6
1523208216523018,-19,4,22,11,4,4,0,-9
1523208216523018,5,6,-77,-12,-4,-1,-1,-9
1523208216525024,11,-5,-12,-5,-2,-2,-1,45
1523208216525024,-60,2,39,-2,-2,-4,-8,-89
1523208216546315,3,-14,-26,-1,-1,-3,-1,2
1523208216546315,-64,-12,-20,7,6,5,2,-10
1523208216547081,24,17,6,-4,-2,-2,0,1
1523208216547081,35,5,-3,2,-2,1,2,17
1523208216561118,5,-11,-47,1,1,-3,-3,-13
1523208216561118,31,14,31,0,3,0,2,-9
1523208216562132,-47,-26,-104,-5,-5,-6,-9,-44
1523208216562132,72,15,0,-2,-1,0,1,19
1523208216583413,-90,1,28,-1,0,2,2,-14
1523208216583413,4,34,12,-2,2,1,1,10
1523208216585183,84,1,-13,-4,-1,1,1,17
1523208216585183,-34,-5,24,-6,-6,-6,-2,45
1523208216605237,-45,-9,12,-7,-4,-3,-4,-28
1523208216605237,8,29,-58,-6,-6,-2,1,-20
1523208216607242,13,3,31,1,-5,-8,-5,4
1523208216607242,-28,-12,38,0,1,1,-1,-6
1523208216620278,62,5,23,3,2,5,4,23
1523208216620278,94,-4,32,-2,-1,-3,-4,22
1523208216622281,-63,-9,12,3,-2,0,0,-5
1523208216622281,-35,-21,26,-4,0,-2,-2,-39
1523208216643573,57,14,-31,-7,-7,-5,-3,7
1523208216643573,24,-11,-70,8,2,0,-1,-9
1523208216645466,-42,-21,28,3,3,5,4,-8
1523208216645466,48,-2,32,20,1,-2,-3,-1
1523208216665396,58,-24,-36,-31,-2,3,2,9
1523208216665396,-66,-19,-13,-6,-10,-7,-6,-27
1523208216667401,77,16,42,2,-1,-2,-1,25
1523208216667401,-75,6,-11,7,1,1,5,21
1523208216680438,-34,-14,25,14,-3,-5,-5,-19
1523208216680438,98,18,-22,-8,1,0,2,15
1523208216682441,-18,-2,13,1,5,5,5,14
1523208216682441,19,-4,-69,-5,-2,-1,0,-9
1523208216703499,15,-13,14,19,0,-2,1,9
1523208216703499,-47,6,61,-26,-3,2,-1,3
1523208216704500,27,14,11,7,-4,-5,-4,8
1523208216704500,83,6,-1,-4,-1,0,0,3
1523208216725557,-65,14,1,4,4,2,1,20
1523208216725557,-9,6,10,7,-1,-2,-1,-15
1523208216727561,20,5,-20,-4,-1,-1,-1,-1
1523208216727561,-7,2,20,-6,1,2,3,33
1523208216739636,-44,15,3,3,-6,-3,0,2
1523208216739636,29,-13,36,7,6,2,-1,12
1523208216746850,34,-6,-82,-3,-6,-5,-5,-1
1523208216746850,117,35,-13,-5,-1,-2,1,16
1523208216763777,-47,-25,61,3,2,0,0,-19
1523208216763777,49,-1,-51,-4,-1,0,-2,-7
1523208216764660,52,2,34,12,3,0,3,9
1523208216764660,-41,-11,74,-24,-5,-1,-2,-11
1523208216785718,-8,-4,-81,-3,-3,-3,0,-15
1523208216785718,38,14,47,14,0,0,1,30
1523208216787722,-17,-22,20,2,-4,-3,-3,-35
1523208216787722,-64,-35,2,6,4,4,1,8
1523208216799988,27,9,5,-10,1,1,0,19
1523208216799988,-39,-7,-48,5,0,-1,-1,4
1523208216806771,25,22,13,6,1,1,0,4
1523208216806771,-56,-11,-46,-11,-5,-4,-2,-7
1523208216822814,-18,-6,18,-1,-1,1,-1,7
1523208216822814,-11,-12,17,12,-3,-2,-2,-5
1523208216824819,55,10,-31,5,4,0,-1,4
1523208216824819,-128,-34,-23,-29,-1,-2,-1,-21
1523208216846110,47,12,5,10,-5,-6,-4,4
1523208216846110,-44,-11,-19,4,-1,0,1,-9
1523208216847958,11,11,0,-2,1,0,3,25
1523208216847958,37,25,54,17,0,-1,-2,-35
1523208216859914,14,2,-7,-11,-5,-5,-4,-18
1523208216859914,-30,2,-13,0,1,1,2,23
1523208216866930,-16,-6,-38,-9,-3,1,-4,-41
1523208216866930,7,12,3,-14,-5,-3,-3,7
1523208216883211,42,-7,-8,-3,0,0,-1,-20
1523208216883211,26,7,16,11,3,0,0,-1
1523208216884985,-62,-9,39,-10,-5,-5,-5,-23
1523208216884985,16,5,4,12,0,-1,0,21
1523208216906036,26,-3,-3,-11,-2,0,-2,-4
1523208216906036,22,-1,-11,-8,2,-1,0,4
1523208216907038,2,4,-9,-6,-5,-2,-1,5
1523208216907038,19,-6,-8,10,-1,0,-2,3
1523208216920078,-38,11,57,-1,5,2,1,4
1523208216920078,-34,-29,-73,-13,-6,-4,-2,12
1523208216927133,14,5,0,5,6,1,-2,8
1523208216927133,40,3,29,4,-1,-3,-2,-9
1523208216943370,-15,7,33,12,0,-1,1,38
1523208216943370,-83,-34,-10,-8,-2,-1,0,-52
1523208216945142,5,17,-13,-1,-2,0,0,13
1523208216945142,3,0,-22,7,-1,-2,-4,10
1523208216965431,65,2,-27,-4,4,1,2,9
1523208216965431,-17,0,60,6,-5,-6,-5,8
1523208216967198,-63,-15,15,-6,-2,0,-2,-4
1523208216967198,-17,4,-29,4,0,-1,-2,5
1523208216980232,6,-5,61,-5,-3,-2,-2,-8
1523208216980232,-9,3,-2,19,1,0,0,1
1523208216987255,16,-9,-32,-31,-1,-2,-2,0
1523208216987255,42,3,19,-8,-5,-2,-3,-3
1523208217003296,-115,-13,-33,25,1,-1,0,-12
1523208217003296,127,15,0,-24,-3,-4,-4,-21
1523208217004297,-77,-19,8,16,1,0,2,-8
1523208217004297,35,-6,-17,-9,0,-3,-1,-7
1523208217025354,-2,6,-7,11,4,3,-1,-1
1523208217025354,7,-9,-6,-3,-4,-2,-1,3
1523208217027358,-31,-16,4,1,-3,-4,-4,-30
1523208217027358,20,7,-28,5,5,3,3,14
1523208217039389,12,7,-58,-4,-2,-3,-4,-12
1523208217039389,-18,6,97,-9,-3,-1,-1,16
1523208217048413,26,9,-61,-12,-5,-4,-3,4
1523208217048413,-87,-7,-35,12,2,2,1,0
1523208217063690,53,-2,16,-6,-2,-3,-4,1
1523208217063690,11,16,-9,3,3,3,4,1
1523208217064455,49,-5,-36,-9,-5,-6,-3,30
1523208217064455,-16,7,2,0,2,1,-1,-5
1523208217085519,-18,0,-5,-6,-4,-1,0,8
1523208217085519,-22,6,-95,-11,3,6,7,44
1523208217087519,50,-6,102,6,-2,-4,-4,8
1523208217087519,43,-5,-51,3,1,1,1,15
1523208217099785,-18,-14,0,-18,-7,-3,-1,-19
1523208217099785,-30,29,27,14,0,-3,-1,18
1523208217108576,-62,-15,-2,0,3,2,2,15
1523208217108576,15,26,23,-1,-6,-5,-4,0
1523208217122610,-14,-5,-52,-1,-1,-2,0,7
1523208217122610,-24,-2,-27,17,3,1,2,9
1523208217124615,-60,13,-25,-37,-9,-7,-12,-62
1523208217124615,16,-14,29,0,-1,1,3,10
1523208217145908,25,6,-3,0,-2,-3,-3,3
1523208217145908,-2,-11,-50,4,-1,-1,-1,-6
1523208217147677,-8,-3,33,21,7,5,3,7
1523208217147677,13,-4,29,-4,-2,2,2,-7
1523208217159708,-40,5,25,-10,-6,-6,-2,7
1523208217159708,1,-30,8,0,0,-2,-3,-21
1523208217168739,-1,3,73,-6,0,3,3,2
1523208217168739,7,13,10,9,3,-1,-4,-13
1523208217183817,52,-29,-14,1,4,3,3,5
1523208217183817,-47,-3,8,-7,-8,-9,-9,-10
1523208217184780,-17,19,19,17,7,5,6,-1
1523208217184780,-85,-3,-18,-14,-4,-5,-3,-2
1523208217205832,-9,-3,-13,14,4,3,-1,-11
1523208217205832,39,3,-63,-14,-2,0,-2,8
1523208217206836,14,-1,26,0,-2,-2,-1,5
1523208217206836,5,-14,12,7,1,-2,-4,-16
1523208217219869,70,2,-14,7,6,7,7,28
1523208217219869,64,-8,22,-10,-7,-6,-4,0
1523208217227891,10,17,-31,13,2,3,2,23
1523208217227891,44,-4,33,6,1,-2,-2,2
1523208217243165,-28,2,-80,-45,-10,-2,-1,-14
1523208217243165,36,-18,107,16,-1,-4,-3,33
1523208217244935,-2,-13,-75,-3,-1,-3,1,22
1523208217244935,29,4,-1,-1,1,4,3,8
1523208217266228,-3,2,20,20,-1,-3,-5,-19
1523208217266228,-28,-27,25,-2,3,4,2,-7
1523208217266994,44,-9,-43,-5,-4,0,-1,7
1523208217266994,50,-13,40,10,-2,-6,-7,-44
1523208217279029,-27,-2,-17,-15,1,0,-1,11
1523208217279029,-18,16,-13,-13,-3,0,-2,-25
1523208217288050,-36,6,64,18,4,0,-1,-48
1523208217288050,-5,-4,-75,-13,-4,-2,0,9
1523208217303096,-57,6,22,4,-2,-6,-4,-20
1523208217303096,48,4,13,10,7,4,1,7
1523208217305095,-39,-6,51,-7,-3,-2,0,15
1523208217305095,-14,-31,-71,-21,-6,-3,-3,-30
1523208217325152,3,13,38,7,-1,-2,0,12
1523208217325152,-61,-13,-39,-3,-4,-5,-5,-44
1523208217327155,14,3,-16,-9,-2,1,-1,4
1523208217327155,-44,3,39,-1,2,3,2,11
1523208217339228,-39,-28,-15,0,-5,-4,-3,17
1523208217339228,5,15,49,-9,1,2,0,-20
1523208217348216,51,1,-60,-7,-5,-4,0,11
1523208217348216,-94,-7,-89,2,-1,-2,0,-3
1523208217363487,33,-11,-4,-3,1,1,-3,1
1523208217363487,15,19,65,28,-5,-6,-3,13
1523208217365256,1,-9,-86,-46,-8,-4,-3,-6
1523208217365256,-27,1,54,18,3,0,3,12
1523208217385312,31,-4,40,11,2,-1,2,12
1523208217385312,-47,-5,-86,-5,-4,-4,-3,-7
1523208217387315,32,2,27,18,8,1,-1,-17
1523208217387315,26,14,4,-4,-5,0,0,2
1523208217399586,48,15,63,1,1,1,-1,-17
1523208217399586,-75,-2,24,4,1,0,0,-5
1523208217408371,0,12,63,6,1,3,3,-2
1523208217408371,99,2,15,-10,-2,0,-1,15
1523208217423410,-5,1,22,3,-5,-6,-7,-33
1523208217423410,16,1,-61,-13,0,2,8,34
1523208217424413,9,-16,-48,5,-1,0,-1,-2
1523208217424413,-47,16,7,-3,-2,-2,-2,2
1523208217445704,-18,-11,-37,-2,-1,-1,-2,-43
1523208217445704,6,10,58,9,3,3,2,-9
1523208217447474,-22,0,62,-20,-9,-5,-5,9
1523208217447474,11,-1,9,0,-1,-1,-2,-6
1523208217459507,-56,-16,-77,-8,-3,-2,0,4
1523208217459507,14,9,7,7,0,-1,0,18
1523208217468535,38,2,34,5,-4,-4,-4,-36
1523208217468535,35,-16,-1,-6,1,0,-3,10
1523208217483588,6,7,-9,-7,0,0,-2,17
1523208217483588,77,1,-25,-3,3,4,3,-1
1523208217484575,-49,-13,-65,1,-3,-4,-4,25
1523208217484575,-16,7,-45,-5,-1,-4,2,13
1523208217505630,2,-8,58,2,0,0,0,13
1523208217505630,57,9,-20,-5,2,1,-2,-16
1523208217507635,-5,-7,-70,2,1,1,3,22
1523208217507635,49,8,-20,5,0,1,2,12
1523208217527687,-60,9,11,6,-2,-3,-3,-46
1523208217527687,-90,-12,33,2,1,1,-2,-18
1523208217529692,12,-3,14,8,0,0,0,4
1523208217529692,-22,-9,5,-14,-1,1,0,1
1523208217543806,40,7,-73,-14,-2,-2,0,19
1523208217543806,67,-3,23,8,-2,-2,-3,4
1523208217544733,-54,9,22,7,3,1,-1,-7
1523208217544733,-6,-14,-36,1,-4,-5,-5,-20
1523208217565788,-13,-20,-13,4,2,6,4,14
1523208217565788,-15,23,20,-20,-6,-4,-4,8
1523208217567796,-13,-4,11,9,7,2,-1,-21
1523208217567796,83,47,-9,-11,-8,-7,-3,6
1523208217587849,-55,-17,35,1,-3,-1,-1,13
1523208217587849,-13,6,-7,2,0,-1,-2,-13
1523208217589852,87,-5,-7,0,-2,1,2,-4
1523208217589852,-60,-12,31,5,3,1,3,33
1523208217602906,11,27,43,-6,-4,-2,-7,-34
1523208217602906,1,-4,-31,-9,-3,-3,-1,0
1523208217604892,25,2,52,8,2,2,4,28
1523208217604892,-83,-19,10,1,-1,-1,-4,-41
1523208217625948,31,-7,-20,-1,-2,-1,3,7
1523208217625948,-54,-14,10,-5,-6,-5,-5,-10
1523208217626953,12,11,-1,0,-2,-4,-3,16
1523208217626953,82,-26,30,12,3,4,4,-9
1523208217648242,67,44,-32,-7,1,0,-2,3
1523208217648242,-22,-8,-54,-15,-5,-5,-1,-11
1523208217650013,-41,-14,-81,-5,-6,-4,-3,-14
1523208217650013,25,9,52,3,0,0,-2,1
1523208217662046,-13,-12,-2,-3,-2,-1,-2,8
1523208217662046,11,-9,-34,-2,1,2,0,8
1523208217669064,-35,6,13,2,-1,-1,1,0
1523208217669064,-36,14,4,4,4,3,0,-34
1523208217686111,3,-2,-78,-2,-3,-3,-2,-27
1523208217686111,19,8,15,-3,-2,-3,-2,1
1523208217687112,13,-14,-16,3,1,0,0,-2
1523208217687112,-96,-8,30,0,-1,-3,-5,-8
1523208217708167,-15,-21,-69,-18,0,-1,1,15
1523208217708167,-1,-12,22,5,2,2,1,-19
1523208217710174,-23,0,-3,-14,-7,-2,-3,-6
1523208217710174,35,12,-50,8,0,0,2,16
1523208217722203,-4,-18,-31,-4,-2,-2,1,9
1523208217722203,-10,12,24,5,0,-3,-1,6
1523208217731229,113,6,-30,1,2,1,2,32
1523208217731229,-65,-38,9,-5,-6,-5,-6,26
1523208217746303,25,-3,15,-10,-3,-2,1,1
1523208217746303,-26,-10,-43,0,0,0,0,-10
1523208217747270,12,4,-4,4,2,1,1,0
1523208217747270,20,14,0,-7,-3,-2,-3,-20
1523208217768334,7,4,35,8,-1,-3,-2,-2
1523208217768334,-8,-3,-13,1,1,1,2,42
1523208217769331,-89,6,3,-1,1,0,-3,-64
1523208217769331,-18,15,16,-2,-2,-4,-2,13
1523208217782599,20,8,27,7,-2,0,2,11
1523208217782599,-34,-12,-83,-9,-3,-3,-1,-8
1523208217789619,-34,-4,7,-3,-3,0,1,-3
1523208217789619,68,7,33,-4,-1,-1,1,-2
1523208217805425,-23,-20,48,7,0,-1,-2,-2
1523208217805425,19,-11,71,2,1,0,1,-4
1523208217807431,-86,0,-5,-2,-1,-2,-4,-8
1523208217807431,16,-32,-56,0,-1,0,1,3
1523208217828488,77,30,47,9,8,4,6,63
1523208217828488,-57,-44,-24,-7,-4,0,-2,13
1523208217829489,95,23,33,-20,-7,-8,-2,14
1523208217829489,26,-2,3,-3,-1,-1,0,-7
1523208217842760,-47,11,49,18,5,1,0,2
1523208217842760,-20,-10,-46,10,2,2,0,-6
1523208217849781,15,9,-35,11,3,3,0,10
1523208217849781,-36,0,21,-17,-7,-5,-5,17
1523208217865585,-9,0,78,-1,-3,0,-1,-20
1523208217865585,21,14,71,3,-1,-2,-3,-4
1523208217867592,-1,-11,-47,-2,-3,-3,-3,-15
1523208217867592,60,23,-7,-3,6,3,0,-8
1523208217888647,-11,-12,4,6,-1,0,-4,-11
1523208217888647,90,8,26,-13,-7,-1,1,-16
1523208217889648,61,15,51,1,0,-1,-1,10
1523208217889648,-15,14,-39,7,1,-1,-1,8
1523208217902727,3,-2,-29,-7,-4,-5,-6,-42
1523208217902727,31,6,-12,-1,2,-2,0,8
1523208217909702,71,17,46,1,3,3,6,34
1523208217909702,-60,-23,-106,1,-2,1,1,4
1523208217925745,35,10,-5,-11,-4,-1,-1,13
1523208217925745,-44,1,59,0,-3,-5,-6,-19
1523208217927751,-31,-33,-22,4,-3,-3,0,7
1523208217927751,-9,-1,41,18,0,-2,-2,-6
1523208217948828,-21,-7,-13,-29,-5,-1,1,-6
1523208217948828,-4,15,-20,1,0,1,0,-4
1523208217949808,-94,-19,65,-2,0,-3,-4,1
1523208217949808,-18,2,-4,-5,-2,-1,-1,-8
1523208217962843,8,6,101,5,-2,-1,0,2
1523208217962843,-31,9,15,-3,-1,1,-2,-29
1523208217968904,-1,-3,9,-15,-8,-10,-6,4
1523208217968904,9,-13,9,8,-3,-4,-1,-7
1523208217985926,1,5,-34,6,3,0,2,16
1523208217985926,16,20,24,2,-1,-3,0,12
1523208217986908,-15,-19,-38,2,3,5,2,-21
1523208217986908,-13,3,10,-4,1,0,0,-4
1523208218007964,41,15,60,-1,-6,-5,-3,20
1523208218007964,13,0,-55,4,0,-2,-1,11
1523208218009969,-10,-9,-11,2,-4,-5,-4,-15
1523208218009969,14,-4,8,-38,-5,-2,1,20
1523208218022003,35,1,15,0,-1,-1,0,0
1523208218022003,-59,-29,-15,7,-1,-2,-3,3
1523208218031025,29,17,1,-2,-3,-2,1,-5
1523208218031025,3,-16,-10,10,3,2,1,-3
1523208218046063,-2,-4,-88,4,1,1,0,13
1523208218046063,-21,-4,-5,-28,-5,-3,-1,-5
1523208218047119,5,-3,17,8,5,3,3,-4
1523208218047119,-27,-10,9,-4,-2,0,-1,-9
1523208218068168,38,1,-105,1,-4,-4,-4,-19
1523208218068168,0,-23,16,6,3,2,3,10
1523208218070130,-50,12,-40,-8,-1,2,-1,-5
1523208218070130,67,23,39,0,0,2,0,16
1523208218082396,-37,-19,-59,-2,-4,-2,-2,-16
1523208218082396,-17,12,-3,9,2,2,-1,-5
1523208218091186,-70,-24,0,-9,-8,-5,-7,-33
1523208218091186,58,11,-4,5,2,3,1,-7
1523208218105221,-81,-26,-36,3,6,1,1,-1
1523208218105221,53,-14,30,-3,-5,-6,-3,-9
1523208218107227,10,-15,-77,-3,3,3,2,7
1523208218107227,-29,4,30,-2,-4,-5,-4,-8
1523208218128282,83,-26,3,11,2,2,-2,-7
1523208218128282,-83,-8,-71,-15,-1,2,2,-4
1523208218129286,60,17,80,10,0,-5,-5,12
1523208218129286,-46,1,14,-1,-4,-4,-4,-56
1523208218142418,-20,19,10,5,2,2,0,-6
1523208218142418,70,-3,48,-1,-1,-2,-2,9
1523208218151351,31,0,-9,-7,-1,-2,-1,10
1523208218151351,59,11,-55,-2,-2,-2,-4,-4
1523208218165382,-62,0,18,-2,0,2,6,49
1523208218165382,-22,17,89,7,-5,-8,-5,6
1523208218167388,5,4,-15,-3,2,2,3,5
1523208218167388,99,-3,61,-8,0,-2,-2,13
1523208218188443,-42,-42,-21,13,1,6,4,-4
1523208218188443,58,8,-25,-17,-5,-4,-5,9
1523208218189445,36,19,66,19,4,2,1,5
1523208218189445,-72,-9,53,0,-3,-1,3,11
1523208218201481,36,14,-25,-10,-3,-5,-1,20
1523208218201481,27,6,-51,-10,-6,-3,-2,-17
1523208218210503,-6,-17,-13,1,0,1,-1,-2
1523208218210503,-55,-6,-64,3,2,0,1,-5
1523208218225541,22,12,42,-5,-3,-3,-3,-12
1523208218225541,-51,-7,-77,3,2,3,2,8
1523208218227547,41,6,23,3,-1,-1,0,-20
1523208218227547,-16,3,-6,5,-6,-3,-5,-20
1523208218248806,-24,-19,24,-20,-3,-3,0,0
1523208218248806,-22,-5,25,5,3,3,1,-24
1523208218249605,32,-18,-25,1,-1,0,-4,-4
1523208218249605,-68,21,47,-5,-4,-3,-1,16
1523208218261639,-22,-14,40,2,-4,-3,-4,-40
1523208218261639,34,4,-3,7,1,1,-1,-1
1523208218270662,-78,-16,-65,-8,-1,1,2,10
1523208218270662,65,-3,10,8,4,2,0,-8
1523208218285707,82,18,8,-15,-6,-6,-5,10
1523208218285707,-86,-7,21,4,0,-2,1,19
1523208218287707,-40,1,24,7,-1,-3,-3,-6
1523208218287707,13,-22,-10,-8,1,2,2,12
1523208218307760,-64,0,-24,9,3,1,-1,-19
1523208218307760,35,7,31,-3,-1,0,3,19
1523208218309766,-40,-4,-1,-2,-3,-1,-3,36
1523208218309766,-31,-8,-25,5,-3,-2,0,6
1523208218321798,2,-3,82,-7,-1,-2,2,29
1523208218321798,-12,-23,8,6,1,1,-2,-24
1523208218330821,-2,18,34,6,1,-1,-3,7
1523208218330821,39,-4,-9,-37,-5,-1,-2,7
1523208218346096,-47,-6,-117,4,-2,-1,-2,-20
1523208218346096,-33,-2,-1,12,1,0,1,11
1523208218347932,39,18,72,-2,1,2,2,-22
1523208218347932,70,-30,-77,-3,-5,-4,-2,31
1523208218367963,-84,35,-15,0,0,-2,-4,-46
1523208218367963,30,7,26,13,0,1,-2,-7
1523208218369925,17,0,-38,-18,3,0,0,-8
1523208218369925,-97,12,44,19,3,1,-1,-22
1523208218382193,59,-5,-42,-7,-1,-1,-1,57
1523208218382193,43,-2,-7,-10,-3,-2,-1,0
1523208218390981,-21,1,32,8,0,2,0,-1
1523208218390981,16,19,-10,-28,-5,-4,-3,-9
1523208218406021,38,-11,7,2,-2,-1,3,22
1523208218406021,8,11,-6,3,5,6,2,-14
1523208218407024,3,-29,-34,-6,-5,-4,-5,-10
1523208218407024,-33,6,85,-5,-3,-1,-1,-3
1523208218428095,41,14,42,24,1,-2,-2,-3
1523208218428095,-48,-4,-39,-31,-3,0,0,-3
1523208218430086,50,10,-37,0,-2,-3,2,14
1523208218430086,8,-3,36,52,9,3,2,-2
1523208218451154,1,3,-27,-48,-8,-3,-2,-20
1523208218451154,28,-2,-26,6,-2,-2,-1,5
1523208218452145,12,13,58,4,3,2,1,-10
1523208218452145,-44,-9,-8,21,1,-1,-4,-39
1523208218466183,28,14,-52,-27,-6,-2,-4,-4
1523208218466183,32,-3,-17,13,2,-1,1,25
1523208218467192,-46,0,39,6,-6,-2,-2,6
1523208218467192,-11,-19,-62,-21,-2,-1,-3,-39
1523208218488239,-38,-6,88,31,8,5,-1,-12
1523208218488239,48,5,-16,-22,-7,-5,-2,9
1523208218490244,-24,-7,-29,12,-1,0,-3,8
1523208218490244,46,11,2,1,2,2,2,21
1523208218510300,-89,-3,-2,4,-1,-1,-1,-9
1523208218510300,8,-25,-10,-7,-1,-2,-1,7
1523208218512304,-4,-15,-25,-6,-3,0,-2,0
1523208218512304,44,-5,-25,11,3,3,1,11
1523208218525339,40,6,1,-13,-3,-4,-2,-8
1523208218525339,60,17,38,-15,-5,-4,-2,-1
1523208218527344,-15,-14,50,7,-1,-2,-1,-16
1523208218527344,-14,-3,-67,-1,0,1,0,8
1523208218548634,13,-2,78,17,5,2,1,0
1523208218548634,32,-13,-41,2,-1,0,-1,44
1523208218549403,-57,-7,-1,-13,-1,-3,-3,-24
1523208218549403,33,14,36,-5,-4,-1,-3,2
1523208218570458,56,-15,-15,8,1,0,2,2
1523208218570458,59,5,-2,1,0,0,-1,-4
1523208218572463,4,-5,2,-20,-7,-3,-1,24
1523208218572463,-47,4,5,2,0,0,2,-1
1523208218585499,7,10,6,0,-3,-1,-2,-12
1523208218585499,-10,-40,-39,7,0,-2,-2,5
1523208218591513,103,21,-20,1,-2,1,-1,-43
1523208218591513,16,9,-23,-27,-6,-5,1,23
1523208218608560,-3,-1,38,-13,-2,0,0,5
1523208218608560,-41,19,86,13,0,-1,-3,-26
1523208218609562,56,8,-59,0,0,-1,1,11
1523208218609562,1,-16,-24,-11,-7,-5,-3,7
1523208218630618,-81,-10,-17,11,6,3,2,-17
1523208218630618,-71,8,-52,-15,-5,-3,-2,4
1523208218632623,-30,-2,24,9,2,1,4,31
1523208218632623,55,22,-6,-3,-1,-1,0,-4
1523208218645676,47,4,2,10,-1,-2,4,31
1523208218645676,-35,-1,39,3,1,1,1,-16
1523208218651681,69,17,9,2,-2,-5,-4,12
1523208218651681,-65,-24,-11,-13,-2,-1,-2,-10
1523208218667724,34,13,1,10,-2,-3,-4,-6
1523208218667724,-16,1,-61,1,1,0,-3,0
1523208218669721,-11,-7,2,-10,-2,-1,-1,-8
1523208218669721,10,6,0,9,1,1,0,5
1523208218690778,18,-26,-47,-17,-7,-4,-5,-10
1523208218690778,-28,-2,33,1,3,3,2,-17
1523208218692945,-27,-8,-36,5,7,4,2,-5
1523208218692945,45,6,-15,-2,-1,-2,-2,9
1523208218704816,-33,-13,-16,-8,-4,-2,0,-5
1523208218704816,7,11,36,5,-4,-6,-6,-28
1523208218711833,-1,5,7,-13,-1,-2,-1,5
1523208218711833,-4,-12,0,0,-1,2,1,-7
1523208218727879,5,-2,-15,-5,-3,-1,-1,12
1523208218727879,42,18,80,30,5,1,2,-2
1523208218729882,-1,-11,-110,-39,-8,-6,-4,1
1523208218729882,-54,-14,82,9,-2,-4,-7,5
1523208218750942,27,6,86,10,2,3,0,-7
1523208218750942,-12,-1,-93,-11,-5,-1,1,6
1523208218751940,-14,-1,38,14,0,-1,-3,-20
1523208218751940,0,4,-2,5,4,4,2,-1
1523208218765210,-63,-3,-20,-6,-1,-4,-1,-4
1523208218765210,53,18,24,3,0,1,3,8
1523208218771992,21,1,-7,2,-5,-2,2,30
1523208218771992,25,-7,-7,-21,-7,-5,-4,-44
1523208218788035,-38,6,79,9,0,3,2,17
1523208218788035,-71,-21,14,-2,1,-1,-1,-24
1523208218790042,-26,-1,6,-9,-1,-1,-3,0
1523208218790042,24,4,21,17,5,3,1,9
1523208218811107,-48,-3,-81,-10,-3,-1,-4,7
1523208218811107,26,1,68,-15,-8,-6,-3,13
1523208218812099,-13,8,5,5,-1,-2,-3,-8
1523208218812099,-23,-5,-21,16,0,-3,-1,0
1523208218825135,-14,0,-10,-4,3,3,1,-20
1523208218825135,93,-1,-52,6,2,2,0,12
1523208218839222,96,1,-16,-17,-5,-4,-2,-5
1523208218839222,-45,-3,-14,-2,-2,0,2,13
1523208218848432,47,0,5,14,3,-2,0,-13
1523208218848432,-117,-3,3,-7,-2,-1,2,-12
1523208218850206,33,-2,-13,-1,-3,-1,1,38
1523208218850206,15,6,52,-2,1,0,1,5
1523208218870294,26,1,-47,-8,-4,-2,-3,14
1523208218870294,-15,-27,43,9,-2,-2,-1,-8
1523208218872259,-20,0,-12,-2,-2,-2,-2,-12
1523208218872259,-79,-8,-12,-7,0,-1,-3,-1
1523208218885297,24,0,37,4,-2,-1,-3,-11
1523208218885297,7,-13,-8,-9,-4,-5,-6,-7
1523208218891546,-59,0,2,26,7,8,5,0
1523208218891546,28,-19,-49,-12,-4,-5,-7,-44
1523208218908356,74,6,9,-1,-1,1,1,6
1523208218908356,-59,0,-21,-4,-4,-2,-4,4
1523208218909369,18,4,31,10,3,2,1,-17
1523208218909369,-13,3,31,3,2,5,3,5
1523208218930651,34,0,-51,5,0,0,1,26
1523208218930651,34,4,-42,-12,-2,-1,-2,-18
1523208218932420,-21,2,24,-1,-1,-2,-1,-8
1523208218932420,13,13,16,12,3,2,3,20
1523208218944690,-22,-14,-13,-7,1,0,0,-3
1523208218944690,-19,8,-53,-3,-1,0,1,6
1523208218953475,-37,7,17,4,3,2,2,6
1523208218953475,-38,-19,-43,-8,-9,-8,-5,14
1523208218968520,-8,8,43,18,0,0,1,-2
1523208218968520,-61,-11,-80,-26,-4,-2,-5,-33
1523208218969518,-31,-24,-20,-9,-1,-1,-3,-10
1523208218969518,31,15,29,10,-2,-2,0,5
1523208218990810,-39,-2,4,1,1,1,0,-5
1523208218990810,32,-6,-18,-6,-2,-2,1,21
1523208218992580,-30,-26,41,6,-1,0,-1,-9
1523208218992580,15,-20,-53,-8,-3,-4,-4,15
1523208219004612,-75,-5,24,-2,-2,-4,-7,-79
1523208219004612,47,13,70,7,2,2,3,14
1523208219013635,-23,16,-11,-5,-3,-2,-2,0
1523208219013635,107,12,-56,4,1,0,1,12
1523208219027673,-84,-13,-37,-17,-4,-5,-6,-32
1523208219027673,-22,1,6,20,4,2,0,1
1523208219029678,-64,-2,-4,-21,-10,-7,-9,-14
1523208219029678,32,-31,50,0,-2,1,3,13
1523208219050738,20,10,-22,5,-3,-2,0,13
1523208219050738,-21,9,48,7,2,1,1,-5
1523208219051738,66,2,-41,-6,-2,-3,-1,3
1523208219051738,-71,-5,-32,1,2,3,3,8
1523208219064954,44,6,72,-1,0,-1,-1,15
1523208219064954,-36,-4,3,-8,-4,-4,-4,-7
1523208219073795,21,14,58,-1,0,-1,3,34
1523208219073795,-43,-20,-33,-9,-5,-4,-6,-45
1523208219088845,5,4,-5,-3,0,-1,2,10
1523208219088845,47,20,12,1,0,0,-4,-20
1523208219089837,70,8,16,14,7,7,3,13
1523208219089837,-15,9,20,-3,-6,-8,-7,-3
1523208219110894,44,-2,-4,-26,-4,-2,-1,16
1523208219110894,47,0,14,5,-3,-3,-2,1
1523208219112936,18,12,5,8,1,3,1,-15
1523208219112936,-77,0,-17,-7,-2,-3,-6,-28
1523208219123929,118,17,-28,7,1,-1,-5,7
1523208219123929,-17,-21,4,-4,-2,0,1,8
1523208219132956,5,-4,-22,-13,-7,-5,-2,-6
1523208219132956,7,4,-16,-5,0,3,2,5
1523208219148231,-63,0,-33,1,-2,-2,1,3
1523208219148231,-2,7,38,9,-2,-2,-3,0
1523208219149998,-28,-4,-3,-20,-6,-5,-6,-57
1523208219149998,-37,6,5,2,-1,0,0,-2
1523208219171090,-11,-2,76,9,4,4,2,-2
1523208219171090,75,-1,-69,-17,-1,0,1,0
1523208219172056,-59,-15,-22,-8,-4,-5,-4,11
1523208219172056,93,10,3,-2,-2,-1,-2,13
1523208219184113,-34,0,58,8,-2,1,2,16
1523208219184113,-34,-11,12,-13,-1,1,2,0
1523208219193154,86,-2,-63,7,0,1,0,16
1523208219193154,60,17,15,-4,1,-2,-1,14
1523208219208154,12,-7,34,5,-3,-4,-2,-1
1523208219208154,-44,12,-59,8,2,2,-1,5
1523208219210157,-26,-8,-22,-15,-1,-1,1,-4
1523208219210157,38,13,41,8,-4,-1,1,16
1523208219231301,-42,-24,-62,-1,-3,-4,-2,-4
1523208219231301,-43,21,1,1,-2,-1,-1,3
1523208219232217,-70,-8,31,16,6,3,0,-13
1523208219232217,-42,-2,19,-14,-2,-3,-2,-6
1523208219244486,-48,8,-55,-15,-2,-3,-3,-15
1523208219244486,23,-4,14,9,0,-1,1,-3
1523208219253271,-10,6,39,9,4,1,0,10
1523208219253271,0,-21,22,3,3,4,2,-32
1523208219268313,-2,-6,27,1,-3,0,-3,6
1523208219268313,13,-6,48,5,1,3,-1,2
1523208219269317,47,0,-35,-1,-4,-5,-4,12
1523208219269317,52,-7,-28,5,1,0,2,22
1523208219290371,2,-5,-15,1,1,-1,-4,-40
1523208219290371,9,-2,-31,2,-4,-3,-2,12
1523208219292380,17,2,40,-8,1,-1,-2,0
1523208219292380,-66,-1,23,-8,-7,-3,-4,-22
1523208219304444,87,31,-28,3,4,2,2,13
1523208219304444,-10,-20,-4,10,2,-1,1,18
1523208219313432,-14,-14,-11,0,-1,1,-4,-52
1523208219313432,25,11,-16,0,0,-3,1,23
1523208219328474,55,6,29,-14,-4,-2,-2,-9
1523208219328474,-54,-4,-2,3,1,0,-1,-14
1523208219329474,6,-8,-9,22,0,1,3,13
1523208219329474,8,3,16,6,5,4,4,26
1523208219350537,-37,-2,-41,-21,-5,-3,-1,-13
