timestamp,emg1,emg2,emg3,emg4,emg5,emg6,emg7,emg8
1523209894431167,-2,0,27,-8,0,-1,-2,7
1523209894431167,7,0,21,25,4,1,-1,-2
1523209894446208,-1,2,-31,-30,-5,-4,-1,0
1523209894446208,0,2,15,26,-1,-4,-6,0
1523209894446208,3,5,-21,3,1,1,6,-1
1523209894446208,-3,-3,10,-6,-1,0,-2,-1
1523209894468267,-2,2,50,25,13,6,4,-2
1523209894468267,-3,-7,-6,-35,-5,-1,-5,-2
1523209894469275,0,8,-92,-9,-4,-3,-2,-2
1523209894469275,-4,-16,14,20,-3,-3,1,-4
1523209894491327,8,3,-1,10,2,1,-1,-1
1523209894491327,-4,-7,-7,5,2,1,2,5
1523209894492330,1,2,50,5,0,-3,-5,-1
1523209894492330,0,1,-19,-11,-7,-2,1,-1
1523209894505369,-3,-6,-63,-44,-5,-2,-3,-3
1523209894505369,-3,-28,-17,4,6,5,2,-2
1523209894506368,1,5,-18,10,4,2,1,0
1523209894506368,1,23,24,14,-1,-3,-4,0
1523209894528427,-6,-9,-66,-44,-16,-7,-4,0
1523209894528427,2,8,27,20,-1,-3,0,-2
1523209894529430,1,1,-3,-13,-4,-2,-1,-1
1523209894529430,-10,-6,24,25,4,-1,0,-6
1523209894551487,7,0,58,26,2,2,0,10
1523209894551487,-5,-1,-98,-50,-8,-6,-3,-7
1523209894552492,1,1,14,7,-2,-1,1,1
1523209894552492,-3,-5,-39,-19,-8,-3,-1,-6
1523209894565524,-3,3,57,14,15,5,2,2
1523209894565524,-2,3,-1,-13,-6,-6,-3,-1
1523209894566527,-3,-8,14,0,-8,-9,-5,-4
1523209894566527,-1,-6,-46,-15,2,4,2,0
1523209894588592,0,5,-9,22,0,4,2,-1
1523209894588592,2,7,32,17,-1,2,3,2
1523209894589591,-2,-7,-4,-12,22,6,0,-1
1523209894589591,1,3,43,8,2,6,1,1
1523209894611649,-3,-8,-60,-22,-12,-4,-2,-6
1523209894611649,-5,-1,9,-47,-14,-15,-4,1
1523209894612654,-4,-2,32,34,-6,0,-2,-3
1523209894612654,0,0,18,-9,3,-5,-3,1
1523209894626689,-6,-6,20,31,4,0,-1,-4
1523209894626689,-1,-14,19,-7,-3,-3,-1,1
1523209894626689,-2,-7,-48,-27,-14,-8,-3,1
1523209894626689,6,24,24,27,3,3,1,3
1523209894648746,4,1,25,-6,13,7,7,1
1523209894648746,-1,4,0,12,13,6,-8,-3
1523209894648746,1,-7,27,-16,-13,-11,5,-2
1523209894648746,-2,-12,-2,-2,-15,-9,-4,-1
1523209894671808,-2,-2,-8,6,2,-4,-3,-3
1523209894671808,0,8,4,16,13,9,5,1
1523209894671808,2,7,51,3,9,6,-1,0
1523209894671808,-2,-12,-73,-28,5,6,0,-5
1523209894685846,14,22,36,24,7,3,-15,7
1523209894685846,-5,-3,-32,-21,-17,0,7,4
1523209894686852,-21,-21,-55,10,-1,-14,4,-9
1523209894686852,-1,-8,83,4,2,0,2,-1
1523209894707903,-1,-7,-24,-7,-4,-1,-17,-3
1523209894707903,17,21,14,25,3,5,12,0
1523209894708905,1,6,-21,-22,-20,-8,-5,2
1523209894708905,-9,-10,-28,-16,-7,-10,-7,-2
1523209894733205,-9,-6,-10,9,4,2,3,-3
1523209894733205,-13,-1,19,-2,-7,-6,-1,-2
1523209894733972,17,1,-5,-16,-1,5,15,-1
1523209894733972,-5,3,-31,-4,10,5,-5,1
1523209894746240,-24,-11,-4,4,-6,-6,-2,-4
1523209894746240,2,-3,7,0,-5,-5,-2,-2
1523209894747007,2,8,1,1,5,10,9,1
1523209894747007,13,-4,-82,-26,4,5,-19,11
1523209894768077,3,-6,5,-2,-1,9,4,-19
1523209894768077,-18,-22,0,3,-5,3,26,5
1523209894769069,-45,-2,7,-10,2,-30,-21,-13
1523209894769069,5,-7,8,-5,-11,-5,45,1
1523209894791125,2,6,-3,-2,-7,-4,-9,-5
1523209894791125,13,5,16,11,10,7,-30,1
1523209894792126,20,5,-80,-21,-2,34,-17,16
1523209894792126,-17,-3,7,3,-6,-36,66,-12
1523209894806165,-8,-4,-19,0,-3,-9,13,2
1523209894806165,-11,-18,11,0,1,-4,-4,-12
1523209894806165,10,10,17,14,4,9,-32,7
1523209894806165,8,8,29,3,-1,6,-41,2
1523209894828223,-4,-2,-62,-13,-4,-1,16,-2
1523209894828223,5,10,1,-4,-2,-3,-22,2
1523209894829226,-5,-5,22,12,3,1,6,-6
1523209894829226,1,-11,9,-11,0,6,-8,-3
1523209894851322,3,1,-1,5,-5,-8,-2,3
1523209894851322,1,3,11,-13,0,0,-4,-2
1523209894852295,3,-2,6,10,3,-2,10,0
1523209894852295,-8,-4,25,14,2,-1,-4,-9
1523209894865557,13,7,28,13,-2,4,-43,20
1523209894865557,-5,0,-8,-7,2,-9,59,-9
1523209894866323,8,3,41,10,1,-4,13,-3
1523209894866323,-6,-10,-65,-15,-13,-1,-31,-2
1523209894888383,-6,-5,-15,-2,-1,-2,11,-4
1523209894888383,10,9,-6,3,18,10,-9,6
1523209894889385,-9,-2,16,14,-1,-3,0,-8
1523209894889385,-9,-7,24,-9,-3,0,-1,2
1523209894911444,1,-9,-34,-8,-7,-7,-13,-8
1523209894911444,4,5,8,-12,-7,-3,-18,-2
1523209894912447,1,-4,-15,-11,-5,-5,40,2
1523209894912447,-1,8,-4,22,5,4,-15,0
1523209894925483,-1,-4,21,-4,-3,0,13,1
1523209894925483,3,2,-1,31,1,0,-7,-2
1523209894926483,-2,-9,-29,-28,-2,-1,-17,-6
1523209894926483,-1,-3,5,-4,-2,1,1,-1
1523209894948778,1,4,-3,-9,3,1,14,-2
1523209894948778,27,4,-4,-3,4,3,-5,3
1523209894949544,-42,-22,-29,-6,-5,-2,-12,-1
1523209894949544,9,-9,-1,7,-3,-3,-1,2
1523209894971606,-4,6,43,2,-3,-2,6,-3
1523209894971606,-3,-1,-41,-39,-8,-2,1,-4
1523209894972607,13,5,46,23,4,2,0,2
1523209894972607,-4,4,-58,-18,-6,-3,-8,-4
1523209894985645,-2,-4,4,9,-5,-6,-6,1
1523209894985645,-11,-2,6,3,1,-2,0,1
1523209894986649,17,7,9,-14,-6,2,-5,-1
1523209894986649,-5,-2,22,11,8,10,15,-3
1523209895008701,14,7,0,12,19,10,-1,-3
1523209895008701,-10,-3,32,-8,-12,-6,-6,0
1523209895015723,-3,0,-7,-2,-1,-5,-1,-4
1523209895015723,1,3,-27,8,-11,-9,-17,-4
1523209895031999,2,-5,-16,-15,-7,-2,0,1
1523209895031999,-5,6,38,11,14,6,5,-2
1523209895032805,6,-3,-9,-6,-1,-1,-12,1
1523209895032805,2,15,65,5,5,2,4,2
1523209895046036,-14,-18,-85,-29,-18,-13,2,-3
1523209895046036,-10,-15,-17,7,-10,-5,-8,-4
1523209895046803,8,3,0,-6,2,1,-3,0
1523209895046803,6,11,6,8,9,3,3,1
1523209895067860,10,-1,42,3,-5,-2,1,0
1523209895067860,-35,-8,-14,-3,1,-2,-14,-5
1523209895068863,2,-2,-16,1,3,3,22,0
1523209895068863,-1,-1,22,1,0,0,1,4
1523209895091926,-4,13,26,7,-1,0,4,1
1523209895091926,26,5,-32,-11,-4,-5,-9,-1
1523209895091926,-9,5,19,-1,-2,-2,-36,-3
1523209895091926,0,-1,6,3,2,0,10,6
1523209895114218,30,8,28,2,-1,2,37,-2
1523209895114218,-56,-18,-47,-19,-12,-7,0,0
1523209895114984,1,20,19,8,2,-4,-21,-6
1523209895114984,14,35,-1,1,0,-2,-19,-5
1523209895128019,-29,-26,9,1,1,-3,-3,1
1523209895128019,43,-14,46,23,9,7,2,-1
1523209895129022,17,4,21,-12,0,2,14,3
1523209895129022,-20,-16,-55,-30,-15,-9,-12,-10
1523209895151092,-8,2,52,19,6,-1,-7,-3
1523209895151092,8,18,-71,-1,0,2,3,1
1523209895152085,-10,-17,36,11,0,0,8,-2
1523209895152085,7,-13,-33,-5,-3,-2,-1,4
1523209895165354,-1,-12,5,2,3,1,-2,3
1523209895165354,-10,-8,0,-5,-4,-2,-6,-3
1523209895173140,-18,-12,21,4,2,0,-11,-6
1523209895173140,11,42,-55,-2,1,-1,12,-9
1523209895188182,20,5,7,-9,-1,0,-10,-3
1523209895188182,-37,5,18,4,-1,-1,-5,-2
1523209895189182,-40,-37,-96,-10,-5,-4,-1,4
1523209895189182,22,12,-12,9,2,-1,-48,-18
1523209895211248,-2,-14,-4,-3,-7,-6,25,16
1523209895211248,-14,-7,22,2,0,0,-5,6
1523209895212243,94,20,-83,3,5,6,16,11
1523209895212243,-100,-60,10,-20,-11,-6,-9,20
1523209895225278,-39,1,-102,3,0,-1,-15,-16
1523209895225278,70,2,33,-20,-1,0,5,-6
1523209895233535,-11,-13,-3,3,-6,-5,-7,-5
1523209895233535,24,-3,40,18,6,5,20,1
1523209895248574,-36,2,-8,5,4,6,2,20
1523209895248574,1,-2,34,0,-2,-3,1,-16
1523209895249341,-8,16,-67,2,-6,-5,-5,5
1523209895249341,32,7,21,-6,-1,0,12,-5
1523209895271401,-9,11,57,-1,-2,-1,-9,-2
1523209895271401,9,6,15,5,4,1,-3,-8
1523209895272402,49,20,27,1,-1,-3,-1,7
1523209895272402,-92,8,-1,5,-7,-7,7,-9
1523209895285437,16,-32,47,6,1,-1,-15,-4
1523209895285437,4,-10,-104,-45,-8,0,3,15
1523209895293459,-7,-16,85,22,9,3,-1,-14
1523209895293459,9,-9,44,8,5,2,5,10
1523209895308501,10,13,-41,-1,2,0,-13,7
1523209895308501,17,-34,90,22,1,3,33,17
1523209895309501,-27,-9,-24,-15,-4,-5,-10,-12
1523209895309501,-24,20,-27,-12,-4,-2,1,-13
1523209895331796,69,2,20,5,-1,0,-14,9
1523209895331796,18,30,-23,15,0,-7,-4,-26
1523209895332564,-27,-3,-27,-27,-5,-5,12,-5
1523209895332564,3,20,6,17,5,5,8,7
1523209895345786,-64,14,-6,-9,-2,-3,-9,-21
1523209895345786,-17,34,17,-4,-6,-6,-6,7
1523209895353621,63,12,70,10,0,0,-3,-1
1523209895353621,-25,-85,-94,0,-5,-5,-9,0
1523209895368664,61,9,62,-4,-6,-2,9,8
1523209895368664,-28,-9,11,2,6,5,-4,1
1523209895369671,-9,0,-29,-3,-3,-3,-4,-5
1523209895369671,91,0,20,11,0,2,10,31
1523209895391720,-79,-1,21,-29,-4,1,2,-32
1523209895391720,1,-17,-12,11,2,0,-1,3
1523209895392723,-56,19,-37,-2,-1,5,-3,-12
1523209895392723,2,-37,-16,-8,-5,-6,-3,2
1523209895404755,48,15,-51,-6,-8,-9,-4,3
1523209895404755,-58,4,-53,-7,-2,-3,-10,-5
1523209895413988,-38,17,-23,-3,1,2,-10,11
1523209895413988,59,14,119,8,1,-2,-16,-34
1523209895436847,-17,5,4,4,4,3,27,-2
1523209895436847,-68,-18,-21,-5,-5,-1,10,1
1523209895437846,67,-30,-14,2,-1,-2,-9,7
1523209895437846,31,5,10,-19,-5,-2,-16,-6
1523209895451882,13,14,4,5,0,-1,9,-3
1523209895451882,21,-13,6,-5,-1,-2,-8,3
1523209895451882,3,9,7,8,-2,0,16,27
1523209895451882,-61,2,11,-2,8,6,4,-1
1523209895473943,-8,-3,-40,-9,-1,-2,-10,-2
1523209895473943,-34,-10,-108,10,-4,-6,0,-1
1523209895474941,-31,-4,8,-9,-4,-2,5,-3
1523209895474941,-56,11,12,-3,-1,-3,-2,-10
1523209895487976,87,14,-11,-13,-2,-1,-5,6
1523209895487976,-40,13,34,5,0,-2,0,0
1523209895488978,-17,-30,20,5,-2,-1,2,-21
1523209895488978,31,11,-32,3,5,7,11,21
1523209895511038,28,-31,-4,9,-3,-1,-13,29
1523209895511038,49,14,-30,-20,-6,-3,5,-10
1523209895512040,-11,-3,53,16,3,4,12,7
1523209895512040,6,-6,-14,-8,0,0,0,28
1523209895534098,61,7,-31,-1,0,-1,-7,-9
1523209895534098,-25,-3,34,-3,-3,-1,-5,-1
1523209895535102,95,24,2,4,4,2,1,16
1523209895535102,1,11,-21,-14,-8,-9,-9,12
1523209895548135,22,6,32,12,1,1,3,-10
1523209895548135,29,3,92,9,6,7,6,3
1523209895549139,-42,2,24,-19,-4,-4,1,-15
1523209895549139,-19,-17,25,7,1,0,0,-23
1523209895571199,-62,-10,-32,8,1,2,1,3
1523209895571199,46,-9,30,-15,-3,-2,-7,10
1523209895572200,49,-19,-38,1,-1,2,2,-12
1523209895572200,-73,12,37,-14,-4,-1,2,-14
1523209895594271,-90,-4,-7,-15,-6,-4,-6,-13
1523209895594271,83,5,-2,2,-1,0,-1,12
1523209895594271,-50,-16,24,17,5,2,2,11
1523209895594271,24,12,-72,-31,-8,-2,1,-13
1523209895608296,2,-11,17,12,4,2,1,4
1523209895608296,23,18,12,11,4,3,-6,-8
1523209895609300,35,40,67,8,3,2,1,2
1523209895609300,20,-43,-61,12,-2,-5,-17,-9
1523209895631359,-28,-5,50,-4,-3,-3,30,32
1523209895631359,38,19,-24,-5,-5,-7,-7,-34
1523209895632358,-96,-5,4,2,8,8,2,-3
1523209895632358,72,7,5,48,10,4,3,-20
1523209895654418,-21,-5,-7,-5,-7,-7,-21,1
1523209895654418,37,9,-51,-30,-6,-2,2,0
1523209895654418,-47,-4,0,-3,-6,-4,2,-16
1523209895654418,6,12,19,-7,2,1,-3,4
1523209895668463,84,8,-58,7,3,-1,-2,-2
1523209895668463,-9,-20,19,12,-1,-2,2,11
1523209895669461,-3,-18,-47,-9,-2,-2,-7,2
1523209895669461,-59,4,30,8,-5,-2,4,20
1523209895691517,-22,25,43,-8,3,1,-5,-12
1523209895691517,56,-57,-37,-8,-6,-3,-4,6
1523209895692520,22,5,-42,-14,-3,-6,0,6
1523209895692520,-42,1,85,15,4,1,6,7
1523209895713582,-8,-20,-50,-12,-3,-4,-4,-15
1523209895713582,-34,11,44,-14,-5,-2,-6,1
1523209895714578,-8,-5,-57,15,-1,-3,-4,0
1523209895714578,13,9,95,2,0,-3,-12,-8
1523209895728617,7,10,6,-5,1,1,5,-10
1523209895728617,26,-8,-75,-10,4,5,2,35
1523209895728617,-53,-7,35,30,-4,-9,-7,-9
1523209895728617,30,17,12,-68,-12,-6,-4,2
1523209895751687,-96,-38,8,2,-1,1,-2,14
1523209895751687,78,26,53,26,4,0,2,24
1523209895752683,7,-4,56,-7,2,3,3,-25
1523209895752683,-63,-2,-41,-12,-3,-2,4,9
1523209895773737,49,-1,30,17,1,0,-6,-32
1523209895773737,-50,-1,28,-8,-2,-5,0,0
1523209895774739,48,15,38,6,-3,-3,-2,0
1523209895774739,-49,-4,10,7,0,0,5,-3
1523209895788774,55,4,-8,-20,-2,0,0,7
1523209895788774,-88,15,23,15,3,3,-3,-13
1523209895788774,31,4,-70,-9,-7,-3,-3,-6
1523209895788774,8,-16,-5,-5,-3,-2,0,-17
1523209895811837,-20,-4,-9,5,-4,-3,-8,2
1523209895811837,-76,-10,26,3,2,1,1,-18
1523209895811837,35,5,2,-14,-1,-1,-3,2
1523209895811837,-9,-3,-63,15,-2,-3,4,5
1523209895833894,43,5,52,-7,1,0,-2,-7
1523209895833894,39,-27,-18,-13,-2,-2,-10,-1
1523209895834904,-6,27,-7,-16,-4,-4,8,-32
1523209895834904,44,8,-4,8,2,2,3,1
1523209895848962,69,-2,-28,12,5,4,0,17
1523209895848962,-13,16,98,15,9,6,10,-15
1523209895848962,21,-14,-75,-24,-6,-4,-7,8
1523209895848962,-13,-16,-41,-2,-4,-3,-2,-12
1523209895870993,-42,15,-2,9,-2,-4,3,18
1523209895870993,44,10,32,-2,-1,-2,-1,32
1523209895871995,-87,-12,46,12,-1,-1,-3,-5
1523209895871995,61,13,-58,-12,0,-1,2,3
1523209895894290,-68,-30,77,4,-5,-1,-5,-12
1523209895894290,-8,9,6,10,-2,-1,-1,2
1523209895895058,56,1,23,10,2,0,0,18
1523209895895058,63,13,37,-19,0,0,0,8
1523209895908092,-38,-23,-9,-14,0,0,-2,-19
1523209895908092,18,-4,-93,2,0,-2,-3,-16
1523209895909094,59,12,45,9,-2,1,4,24
1523209895909094,-56,-19,42,29,8,7,4,2
1523209895932194,-24,24,-22,-6,4,5,2,-43
1523209895932194,49,-3,-60,-11,-11,-8,-6,14
1523209895933159,-15,-15,-74,-2,-2,-5,-6,-29
1523209895933159,-20,0,14,5,0,1,0,3
1523209895953211,-9,1,-57,-18,-2,-2,-1,8
1523209895953211,-98,-7,56,13,4,2,3,-6
1523209895961233,6,6,-2,-14,-1,-2,-5,2
1523209895961233,-60,-11,22,0,2,2,-1,-8
1523209895967249,88,0,-52,-11,-14,-9,-5,-4
1523209895967249,6,7,6,-1,0,0,2,6
1523209895976273,-26,-22,-30,-20,-14,-11,-10,20
1523209895976273,-25,0,69,38,6,2,1,-14
1523209895991313,9,19,25,-3,1,1,1,7
1523209895991313,25,-12,-99,-14,-1,1,-3,13
1523209895993319,2,-10,-16,0,0,1,1,9
1523209895993319,62,3,-91,-22,-7,-4,-6,-7
1523209896014376,-23,10,75,21,0,-4,-2,12
1523209896014376,30,19,25,10,2,1,0,-10
1523209896015377,6,11,39,-2,5,5,4,0
1523209896015377,4,24,-73,12,4,5,3,6
1523209896027411,-22,-13,-41,-3,-11,-7,-9,-5
1523209896027411,-33,-6,18,-21,-2,-2,-2,-18
1523209896036458,-37,-10,46,-12,-3,-2,-1,11
1523209896036458,10,3,-23,-19,-7,-5,-1,7
1523209896051474,7,-23,53,38,8,7,5,5
1523209896051474,-67,-8,1,31,3,-1,-4,-24
1523209896053481,-75,-4,29,-27,4,5,3,14
1523209896053481,76,17,56,11,-2,-3,0,23
1523209896073531,-110,-42,-25,-2,3,3,3,-42
1523209896073531,31,-7,-45,-28,-10,-6,-7,5
1523209896075536,66,25,18,18,8,5,3,2
1523209896075536,-10,-13,77,-13,-7,-3,-3,-8
1523209896087570,-27,13,7,-2,-2,-3,-3,9
1523209896087570,27,14,5,11,0,0,3,3
1523209896096593,-21,-30,10,7,-3,0,-1,-12
1523209896096593,28,-5,-75,-22,-3,0,0,-20
1523209896111635,33,11,0,-1,-1,-3,-2,11
1523209896111635,-4,-7,5,-16,-1,-1,1,-14
1523209896112637,72,12,3,8,-2,0,0,32
1523209896112637,-7,4,-37,-3,-3,-4,-3,7
1523209896133691,16,-6,67,5,2,2,-2,8
1523209896133691,-3,-6,-46,15,0,1,1,-4
1523209896135700,61,-10,-37,-28,-4,1,0,18
1523209896135700,-10,-8,60,10,-1,-2,-2,-14
1523209896147729,-3,16,-13,-4,2,-1,1,5
1523209896147729,-23,-8,15,10,-2,-2,-3,-11
1523209896156753,8,4,27,2,-3,-1,-2,-1
1523209896156753,13,-4,-26,-2,-2,1,-1,2
1523209896171794,-2,0,-70,-18,-2,-3,-1,-1
1523209896171794,21,9,108,26,4,5,2,-8
1523209896172795,-27,-12,18,-3,-5,-5,-4,-19
1523209896172795,17,6,12,-28,-2,-1,-1,7
1523209896194087,2,-5,-22,1,-5,-5,-3,0
1523209896194087,38,-1,-30,-15,-4,-1,0,-5
1523209896195856,-17,-5,9,6,0,-3,0,-6
1523209896195856,-28,-12,43,12,3,2,-2,-1
1523209896207888,56,23,-6,-7,2,1,1,1
1523209896207888,-17,-7,35,-12,-2,-3,-1,12
1523209896216912,-24,-5,20,6,0,-1,-2,-13
1523209896216912,43,17,16,1,-1,1,1,11
1523209896231952,28,-24,-96,-1,-5,-4,-6,-3
1523209896231952,-15,-1,48,-4,2,1,2,29
1523209896232955,-33,1,-27,6,-2,-2,-1,-6
1523209896232955,57,0,-2,-18,-4,-5,-1,-8
1523209896254012,-28,2,4,11,3,2,1,10
1523209896254012,-91,-12,-28,-10,-3,-2,0,15
1523209896256017,13,9,6,1,2,2,-4,-56
1523209896256017,43,-16,-58,16,0,-1,-1,4
1523209896268048,-20,7,47,-15,-8,-4,0,10
1523209896268048,8,10,28,-15,2,2,2,-12
1523209896277073,-47,-1,43,13,2,0,-1,6
1523209896277073,-97,-20,-50,-12,-1,-1,-1,-14
1523209896291110,100,13,3,6,1,1,4,6
1523209896291110,-84,-12,15,7,-5,-2,-3,-22
1523209896293116,1,4,-58,-8,-4,-2,-3,7
1523209896293116,-17,-42,-27,2,-1,-3,-4,-1
1523209896314412,-19,9,-15,-8,-2,-1,-1,1
1523209896314412,104,1,-48,-5,-5,-2,-1,1
1523209896315173,54,-11,17,-8,2,-2,-1,4
1523209896315173,-54,1,17,3,-3,-1,1,-4
1523209896327241,-8,0,-85,-2,1,2,-5,-19
1523209896327241,36,-3,30,16,0,-4,-4,-1
1523209896336231,44,-6,27,-16,-5,-2,-1,-1
1523209896336231,-85,-1,64,6,2,0,0,16
1523209896351270,10,0,32,13,-2,-1,-2,-35
1523209896351270,-81,-1,-37,-11,1,1,-1,-45
1523209896353277,-34,14,-16,2,-1,-1,1,14
1523209896353277,31,-20,-68,5,-3,0,-2,9
1523209896374331,-60,1,57,-23,-6,-4,-1,14
1523209896374331,-90,-11,-60,10,4,2,1,8
1523209896375334,23,-4,16,-13,0,-3,-2,-16
1523209896375334,50,14,-27,-1,5,2,0,-18
1523209896387367,7,-9,-1,-5,-5,-5,-3,12
1523209896387367,35,3,70,4,0,-4,-2,3
1523209896396439,13,4,-43,2,2,3,3,8
1523209896396439,15,4,-25,4,0,-1,0,4
1523209896411429,-31,-8,0,12,2,1,1,-6
1523209896411429,31,5,-7,-20,-8,-3,-3,3
1523209896413437,-53,-21,7,13,0,1,1,1
1523209896413437,33,11,56,11,2,0,0,-9
1523209896433487,7,5,1,-26,-2,-1,-2,7
1523209896433487,64,-12,-79,4,0,1,2,-4
1523209896435497,-13,3,-1,-4,-10,-7,-3,6
1523209896435497,66,18,13,-7,0,1,1,30
1523209896456551,-79,-20,20,15,3,1,-2,-47
1523209896456551,9,8,41,-4,-4,-2,-1,8
1523209896458554,-30,-3,-4,10,2,0,-2,-8
1523209896458554,9,10,20,-5,1,1,1,-1
1523209896471589,29,-3,-32,-6,-4,-1,-1,25
1523209896471589,83,14,-2,13,4,1,-1,13
1523209896473603,-102,-10,16,-14,-3,-4,-2,-6
1523209896473603,-53,0,-20,2,-6,-4,-2,-9
1523209896494655,16,0,-6,3,2,1,2,-4
1523209896494655,-27,-3,-21,5,1,-1,-3,-10
1523209896495653,27,-1,45,-10,0,0,0,-3
1523209896495653,-6,2,-18,-12,-3,-3,-2,0
1523209896516711,-69,-6,54,-2,-3,-2,0,8
1523209896516711,66,15,48,-2,-2,-3,-1,9
1523209896518719,48,-3,49,7,-4,-4,-3,-12
1523209896518719,-70,-18,66,-31,-3,-2,-2,-12
1523209896531750,15,7,-39,15,3,2,1,15
1523209896531750,14,6,-14,-1,-7,-7,-5,-1
1523209896532751,99,1,-72,1,3,1,0,12
1523209896532751,92,-1,65,8,-5,-2,-2,4
1523209896553808,2,-1,29,-10,-2,-2,0,0
1523209896553808,-5,10,6,5,1,0,-1,-7
1523209896555813,-23,7,-34,11,2,1,0,-8
1523209896555813,-17,-6,34,8,1,-3,-1,10
1523209896576870,27,0,-18,-15,-1,-1,0,4
1523209896576870,76,20,-61,0,0,3,2,16
1523209896577871,-104,-23,-25,-4,-3,-2,-1,1
1523209896577871,39,-2,-46,-1,0,-3,-4,-7
1523209896590907,49,7,-18,12,4,3,3,20
1523209896590907,-79,-24,18,-32,-12,-7,-5,-24
1523209896598160,-9,2,46,4,-2,-2,0,5
1523209896598160,-35,1,-26,17,5,3,1,-14
1523209896613966,32,2,17,-3,-3,-1,-2,2
1523209896613966,-94,-36,-62,-4,0,-1,-3,0
1523209896615973,72,19,41,1,1,2,2,5
1523209896615973,36,-3,-60,-19,-8,-6,-3,1
1523209896636025,-53,-28,-23,-21,-13,-13,-6,-7
1523209896636025,-27,-12,22,-2,-16,-16,-7,-7
1523209896638032,-5,14,-57,3,-43,-10,-5,-14
1523209896638032,72,6,-16,23,50,9,8,16
1523209896650062,-26,18,110,22,56,40,14,39
1523209896650062,-118,-43,-63,-5,24,18,2,-25
1523209896659087,42,-18,-49,-17,-19,-10,-6,9
1523209896659087,-12,-1,70,-9,-44,-13,-6,16
1523209896674130,-59,6,-47,5,-4,-13,-7,-18
1523209896674130,42,27,70,-7,6,5,4,16
1523209896675130,-65,0,8,1,16,3,1,14
1523209896675130,47,7,13,11,-9,-6,-3,10
1523209896697188,-32,-22,4,-4,-13,-9,-3,-7
1523209896697188,101,5,24,36,-1,-1,0,-1
1523209896698190,-106,-11,-74,-63,-2,0,-1,-8
1523209896698190,42,27,2,-3,-1,-2,-4,-64
1523209896710223,21,12,113,-1,-4,-4,-2,17
1523209896710223,1,-24,26,43,2,0,3,-32
1523209896719248,-75,19,-4,-7,2,-2,-1,1
1523209896719248,-111,-35,47,-3,8,8,3,-2
1523209896734289,109,29,-55,-2,-10,-5,-2,6
1523209896734289,-78,-18,-36,-12,-4,-4,-4,3
1523209896735293,68,-1,101,24,13,4,1,-6
1523209896735293,-33,22,-31,-11,-6,0,1,1
1523209896756346,-14,-16,54,-5,-11,-8,-6,-24
1523209896756346,71,28,58,-10,-3,-3,-1,23
1523209896758391,-56,-33,-79,13,11,3,0,-4
1523209896758391,2,6,-16,21,3,1,0,-18
1523209896770384,11,8,63,9,0,1,2,1
1523209896770384,20,-15,-106,-48,-13,-6,-3,-5
1523209896777402,25,13,29,15,8,2,-1,4
1523209896777402,19,-13,-14,-9,-7,-5,-4,-20
1523209896794583,-28,7,-9,20,6,3,1,-22
1523209896794583,55,-5,28,-5,1,2,2,12
1523209896795449,-28,-1,18,3,-1,-2,0,-6
1523209896795449,-49,-5,11,-2,-3,1,-1,24
1523209896816507,0,-3,-29,-5,-4,-1,-1,-2
1523209896816507,-9,17,19,-6,-3,-3,-2,-2
1523209896818515,71,7,-27,8,1,0,-1,2
1523209896818515,-37,-11,48,-7,-6,-8,-4,1
1523209896830544,-38,-6,-33,-4,-25,-12,-3,-19
1523209896830544,44,12,12,13,2,-3,2,29
1523209896837563,14,-5,-2,1,67,35,8,2
1523209896837563,30,0,-5,14,11,9,0,4
1523209896853608,-6,-17,-38,-40,-16,-8,-9,-7
1523209896853608,-101,4,29,10,-22,-5,1,8
1523209896855609,81,6,-9,0,-16,-8,-3,5
1523209896855609,29,-5,-77,-6,3,4,2,1
1523209896876666,-13,-9,49,9,-1,-4,-4,13
1523209896876666,9,-5,-28,-27,-9,-9,-8,-80
1523209896877712,-2,-3,21,12,-7,-6,-2,-3
1523209896877712,-12,13,24,-10,-1,-1,-1,14
1523209896889700,20,2,-92,6,3,3,1,-7
1523209896889700,-41,3,46,21,11,7,1,15
1523209896898959,21,1,-26,-32,-12,-7,-3,6
1523209896898959,12,3,52,10,-6,-6,-3,-10
1523209896914000,-31,-3,-73,-1,0,-3,-2,-9
1523209896914000,-106,-23,-6,7,10,5,-1,11
1523209896915770,-26,16,21,-1,-8,-3,0,-12
1523209896915770,59,26,38,-10,-9,-7,0,30
1523209896936826,-34,-6,-5,-3,6,2,-4,-53
1523209896936826,51,21,6,0,6,1,0,8
1523209896937829,-17,-18,-51,1,-13,-6,-2,3
1523209896937829,-54,-28,24,-5,-3,-1,0,-1
1523209896949859,78,25,45,11,4,1,2,13
1523209896949859,32,-4,14,7,1,-2,-1,-35
1523209896958884,90,21,33,8,0,3,3,8
1523209896958884,-92,-8,-51,-18,-4,-2,-3,-10
1523209896973926,-66,-34,-23,3,5,4,3,-7
1523209896973926,35,1,3,-7,-7,-5,-3,18
1523209896975931,10,2,50,22,-1,-3,-2,-4
1523209896975931,-42,-1,16,6,4,2,1,-9
1523209896997135,10,-14,-37,-9,-3,-2,-2,19
1523209896997135,16,1,-44,-4,1,0,0,-1
1523209896997988,-21,13,49,-2,-4,-4,-3,-4
1523209896997988,21,-10,-70,13,3,3,-2,-9
1523209897010021,54,19,-27,-12,0,1,2,20
1523209897010021,42,12,31,8,3,4,2,23
1523209897019044,-80,3,-36,-7,-1,0,0,-19
1523209897019044,-21,-15,-57,-1,-2,-3,-1,-12
1523209897034085,14,16,17,-3,-5,-4,-2,15
1523209897034085,50,18,21,2,1,-2,-3,-7
1523209897036091,11,-14,42,-2,-3,-1,0,12
1523209897036091,43,11,1,5,-2,-3,-2,5
1523209897056181,-61,-21,40,-9,-1,0,-3,2
1523209897056181,-18,-9,-20,0,3,1,0,9
1523209897058147,37,-4,-20,-21,-11,-5,-2,2
1523209897058147,50,11,14,4,0,0,-2,4
1523209897070181,25,-5,-85,-4,-3,-1,-1,-15
1523209897070181,-90,-4,-15,0,1,0,2,11
1523209897079204,21,13,22,16,6,0,-3,-11
1523209897079204,-11,-3,25,5,0,1,0,1
1523209897094480,26,19,28,-4,-3,0,0,5
1523209897094480,4,1,12,-2,-1,-2,-3,0
1523209897096271,82,-8,-23,4,2,1,-1,3
1523209897096271,-32,-10,13,-9,-3,-3,0,-1
1523209897116306,-28,9,75,13,2,0,3,28
1523209897116306,7,-26,-57,-10,-2,-1,-1,-8
1523209897118310,-17,-3,6,5,-2,0,-2,0
1523209897118310,4,21,60,-11,-7,-5,-6,1
1523209897130340,-2,-5,-4,-1,4,3,2,-6
1523209897130340,47,-6,-30,-12,-2,-2,-2,-2
1523209897139364,-38,-19,53,5,0,-3,-2,-10
1523209897139364,11,-8,-14,-7,0,2,3,2
1523209897154402,41,25,81,23,1,-2,-3,-10
1523209897154402,17,-53,50,-2,-2,1,1,-3
1523209897155407,-80,0,5,-6,-4,-2,-1,-7
1523209897155407,-38,6,42,8,1,1,0,-2
1523209897176475,104,4,-110,-12,1,1,-2,-3
1523209897176475,-33,-10,34,-11,-4,-2,-2,0
1523209897178468,50,-8,0,1,-4,-4,-1,35
1523209897178468,56,2,58,5,5,5,3,1
1523209897190512,-101,-7,-50,0,-3,-4,-4,-35
1523209897190512,-4,13,-22,3,0,3,-1,12
1523209897199524,45,-5,-31,-10,-2,-1,0,14
1523209897199524,-3,-5,-27,5,-4,-6,-3,1
1523209897214607,-17,-28,-74,-14,0,0,0,-11
1523209897214607,-8,20,11,-2,-6,-2,1,9
1523209897215567,2,-4,57,3,0,2,-1,-7
1523209897215567,56,-3,-90,-5,-3,-3,-6,5
1523209897236625,0,-5,46,-15,-3,-2,1,9
1523209897236625,-25,2,-22,6,3,0,0,-14
1523209897238646,29,13,-20,3,-2,-1,0,-3
1523209897238646,-100,-11,-17,3,3,2,1,-10
1523209897250664,68,17,-2,12,4,5,2,17
1523209897250664,-62,-27,-4,3,-7,-6,-5,-10
1523209897259683,53,-7,-26,-11,0,3,-1,-14
1523209897259683,29,-6,20,-2,0,1,0,14
1523209897273723,6,6,73,16,6,2,1,-18
1523209897273723,68,11,-68,-11,-2,-1,0,6
1523209897275726,-21,-12,11,1,-4,-3,2,16
1523209897275726,31,15,-49,-7,-4,-6,-6,-51
1523209897297018,4,2,54,16,2,1,-2,15
1523209897297018,-20,14,-4,-5,-1,0,-2,-3
1523209897298786,-99,-5,-15,-5,-5,-3,-1,-6
1523209897298786,-6,-28,-67,-7,2,2,4,6
1523209897318846,-57,-11,-30,-1,-4,-3,-1,8
1523209897318846,52,11,75,9,2,0,0,0
1523209897320846,-82,-14,-108,-5,-3,-3,-6,-42
1523209897320846,-24,16,58,-1,0,-1,-1,6
1523209897334886,21,-29,2,-1,-1,1,3,11
1523209897334886,61,12,1,-5,-2,1,-2,1
1523209897335886,15,3,33,7,0,0,0,14
1523209897335886,-86,-13,-19,10,3,1,1,-7
1523209897356943,37,12,-18,-8,-1,-1,-1,1
1523209897356943,63,-9,-12,7,0,-2,-6,-25
1523209897357945,0,-4,2,-22,-6,-5,-2,-4
1523209897357945,-28,-13,-73,-13,0,0,0,-6
1523209897379000,61,4,48,7,1,-1,-1,23
1523209897379000,-88,17,30,4,2,-1,-1,-49
1523209897381007,-15,-3,59,3,-2,-1,1,13
1523209897381007,34,-4,-18,-2,0,-1,-3,-17
1523209897394276,-19,15,19,-11,-6,-4,-2,-12
1523209897394276,13,0,-27,3,2,0,1,24
1523209897396044,49,9,-28,-5,-1,-2,-1,9
1523209897396044,11,18,45,11,0,2,0,10
1523209897416102,-25,-2,7,-23,-3,0,-3,-1
1523209897416102,0,0,-12,19,-5,-4,0,5
1523209897418108,-78,-38,-62,-24,0,1,0,-11
1523209897418108,28,10,90,9,2,2,0,13
1523209897439396,16,13,-63,7,-3,-4,-4,-9
1523209897439396,22,-15,12,0,1,1,-1,18
1523209897440164,20,6,1,18,9,6,3,-7
1523209897440164,21,16,54,-1,-3,-2,-3,-11
1523209897454201,-46,-23,48,-11,-6,-6,-5,0
1523209897454201,-28,16,-21,-12,-3,1,0,14
1523209897455243,95,-6,45,17,7,2,3,2
1523209897455243,29,-6,-91,-9,-5,-2,-1,20
1523209897476260,-85,-18,-7,7,-2,0,1,-68
1523209897476260,17,-11,51,-6,-1,0,-1,9
1523209897478264,3,22,-7,7,-1,-1,-2,9
1523209897478264,-94,-16,7,5,1,-2,-2,-12
1523209897499318,50,-1,52,-31,-9,-4,-1,4
1523209897499318,-15,-1,5,-10,-5,-4,-5,-5
1523209897500323,-32,17,5,-2,-1,-1,-2,-7
1523209897500323,19,-8,14,15,-1,-1,0,8
1523209897513357,-5,3,-13,10,0,-3,0,5
1523209897513357,-97,3,17,-10,-1,-3,0,7
1523209897520375,58,-13,3,-11,-6,-4,-6,2
1523209897520375,-43,-9,-13,1,1,2,1,-13
1523209897536421,-28,-5,-5,3,-2,-2,-3,-4
1523209897536421,15,16,-3,0,2,3,2,-3
1523209897538424,-55,-10,80,-17,-8,-6,-4,-11
1523209897538424,44,4,102,16,7,4,3,13
1523209897559481,7,-2,-58,-7,-1,0,0,6
1523209897559481,6,17,80,1,-2,-2,-1,-10
1523209897560483,31,5,-88,-7,-2,0,-1,4
1523209897560483,-51,-16,3,-10,-8,-8,-6,-6
1523209897573523,95,12,24,12,2,1,2,52
1523209897573523,-9,-12,-72,-9,-7,-7,-5,-13
1523209897580536,-19,4,9,3,2,2,1,2
1523209897580536,61,15,10,-4,0,-1,0,3
1523209897596813,-21,-19,-64,-7,-4,-2,-1,0
1523209897596813,15,3,-2,-12,0,2,3,19
1523209897598734,-66,-16,21,-4,-5,-7,-2,-21
1523209897598734,-18,7,46,4,-4,-3,-2,-7
1523209897618639,14,-4,66,21,10,4,3,-6
1523209897618639,-28,-11,-7,-9,-1,-1,1,-5
1523209897620642,-49,4,-1,20,1,0,-2,-6
1523209897620642,107,13,-54,-26,-5,-1,2,16
1523209897633677,-13,5,-7,-6,-4,-2,-1,0
1523209897633677,-9,8,19,29,5,0,0,-23
1523209897640755,43,-2,14,11,2,2,2,17
1523209897640755,24,-2,-11,-2,5,3,0,-1
1523209897656738,2,5,45,-45,-17,-9,-5,-4
1523209897656738,19,-19,-80,-1,-3,-3,-1,36
1523209897657742,12,15,-1,11,0,-1,0,1
1523209897657742,-6,13,53,32,3,2,1,-7
1523209897678798,-78,-17,-48,-9,7,5,2,-20
1523209897678798,-4,-1,39,-7,-5,-3,-3,16
1523209897680805,123,8,47,8,1,1,0,-5
1523209897680805,-3,-9,-56,-13,-7,-6,-4,37
1523209897693907,-5,7,8,27,1,2,0,8
1523209897693907,-4,-1,-53,-13,-5,-4,-2,-14
1523209897699852,-1,4,58,1,6,5,1,-12
1523209897699852,-72,15,-30,-9,-5,-2,-2,-21
1523209897716900,15,-7,24,4,-4,-4,-6,10
1523209897716900,9,14,35,-1,0,0,1,-5
1523209897717901,-31,-14,-30,-11,-6,-4,-1,1
1523209897717901,13,8,-6,0,4,0,1,0
1523209897739191,-12,3,-24,6,0,0,1,8
1523209897739191,2,-6,28,11,6,5,3,-27
1523209897740963,-12,3,-14,-11,-10,-9,-8,-2
1523209897740963,1,-29,-49,-19,-4,-3,0,-3
1523209897752995,-28,-8,-41,2,-1,-1,-1,5
1523209897752995,13,-8,-24,-3,0,0,1,36
1523209897760015,0,-9,24,-7,-3,-1,0,0
1523209897760015,-35,9,-46,25,5,1,-3,-10
1523209897776094,-48,-4,76,0,3,4,3,-25
1523209897776094,8,-10,-75,-1,-4,-6,-5,7
1523209897778061,24,14,37,0,1,1,1,6
1523209897778061,1,-31,-57,-22,-6,-2,-2,-4
1523209897799115,31,0,9,13,5,3,2,12
1523209897799115,6,-7,-25,-4,-4,-4,-4,-15
1523209897800121,0,0,-5,5,2,2,0,-3
1523209897800121,11,1,32,-1,-2,-4,-1,1
1523209897812151,15,2,-2,-16,-6,-5,-5,-5
1523209897812151,-81,-2,65,11,2,1,0,-6
1523209897821176,58,13,-8,-3,-1,-3,-3,-9
1523209897821176,-93,-39,1,-3,4,3,1,-6
1523209897836217,45,10,-27,-3,-4,-5,-1,12
1523209897836217,12,3,-4,-5,-2,0,-1,-4
1523209897838221,-49,-9,-35,27,9,4,1,-3
1523209897838221,109,0,50,-15,-6,1,3,16
1523209897859277,-3,10,-79,-17,-3,-5,-5,-43
1523209897859277,25,-9,46,6,3,3,0,-8
1523209897860279,-59,-3,-24,-8,-3,-3,-1,20
1523209897860279,-12,11,53,26,3,1,-1,-13
1523209897873313,61,15,72,21,5,4,4,11
1523209897873313,36,-19,-103,-21,-2,-3,-3,-6
1523209897881458,0,17,9,-3,-6,-4,-1,-7
1523209897881458,5,6,25,-4,4,1,-1,11
1523209897896613,20,20,-20,-10,-5,-5,-7,-41
1523209897896613,-93,-13,2,-18,-6,-2,-2,-9
1523209897898380,24,0,-44,8,3,0,0,9
1523209897898380,-3,-2,-34,-11,-7,-2,-1,-11
1523209897918476,-21,2,-8,7,0,-4,-1,6
1523209897918476,30,-9,-22,12,3,1,0,-8
1523209897920440,35,-7,50,-10,-4,-2,-4,9
1523209897920440,-2,32,64,2,3,2,2,12
1523209897932475,20,-49,-99,-5,-3,-3,-2,1
1523209897932475,5,-3,37,1,2,4,5,38
1523209897941496,-16,2,-51,-20,-6,-4,-3,-6
1523209897941496,11,2,60,15,-2,-5,-3,-6
1523209897956542,-110,-18,-4,-35,-2,1,1,3
1523209897956542,-23,-5,-78,5,1,-1,-1,15
1523209897958541,112,26,11,13,1,-2,-3,-56
1523209897958541,-86,-11,-73,1,-7,-4,-3,-1
1523209897978595,10,7,34,9,3,0,0,7
1523209897978595,8,0,-1,-7,1,0,-2,-3
1523209897980599,-52,-23,-38,6,1,1,1,5
1523209897980599,-25,-9,-20,-19,-9,-6,-4,-15
1523209897992867,77,-1,-33,4,0,-4,-5,-1
1523209897992867,-10,10,20,5,-2,-4,-1,-6
1523209898001656,-11,-9,47,-11,5,4,3,8
1523209898001656,-45,-7,-22,-14,-5,-6,-4,-7
1523209898016703,7,4,76,32,4,5,2,5
1523209898016703,46,5,5,-27,-7,-4,-3,-33
1523209898017697,-78,-38,-74,-6,-5,-2,-4,-9
1523209898017697,120,26,-23,-24,-8,-6,0,52
1523209898038823,-24,1,65,26,0,-3,-4,-17
1523209898038823,18,24,34,14,6,3,2,-1
1523209898040760,52,-11,-60,-15,-3,-1,-1,10
1523209898040760,-47,-1,-10,4,2,-1,-2,-4
1523209898052791,-67,0,-1,-1,-3,-1,-2,7
1523209898052791,25,11,112,6,-1,-2,0,2
1523209898061815,-16,-11,-35,-17,-3,-1,2,11
1523209898061815,-62,-5,40,9,0,1,-1,-27
1523209898076855,18,-5,-36,0,1,1,-1,-2
1523209898076855,-51,2,26,-1,-1,1,-1,-13
1523209898077857,25,22,-2,-1,-1,-1,0,-4
1523209898077857,127,-18,-63,-41,-10,-7,-5,7
1523209898098954,-44,3,65,8,-1,0,2,14
1523209898098954,-37,-9,-98,12,0,-2,-3,-2
1523209898100922,27,10,58,-11,-1,1,1,2
1523209898100922,13,-11,-71,15,4,2,3,13
1523209898112951,87,26,-31,-13,-4,0,-1,26
1523209898112951,41,-16,-43,3,-2,-3,0,6
1523209898121975,-29,-3,14,-2,0,0,-2,-11
1523209898121975,-4,8,33,2,-1,0,-3,-12
1523209898136013,-11,0,-24,-4,1,0,3,4
1523209898136013,5,4,42,23,-4,-4,-3,-6
1523209898138016,33,11,-37,-32,-5,-2,-2,-7
1523209898138016,-15,-7,11,10,10,7,5,5
1523209898159074,-26,1,-33,-8,-7,-6,-5,-11
1523209898159074,43,-5,46,7,3,2,0,-16
1523209898161078,17,-5,-64,8,1,-1,-2,27
1523209898161078,-50,-8,-19,19,1,-3,-1,-15
1523209898173110,63,17,67,-8,-2,0,-1,8
1523209898173110,-71,-6,-19,0,2,1,1,-3
1523209898182139,-25,-17,26,2,0,-1,0,2
1523209898182139,7,-2,-27,2,-2,0,-1,-3
1523209898197182,1,-32,-67,-19,-1,-2,-1,-9
1523209898197182,-54,4,9,-12,-4,0,0,30
1523209898198177,14,-14,33,12,-2,-2,-3,-12
1523209898198177,-33,12,77,24,2,-2,-1,0
1523209898219239,-82,-16,-26,-33,-3,-2,0,-56
1523209898219239,65,18,42,-5,-2,-1,-4,-4
1523209898220237,-1,-10,2,10,2,-1,-1,10
1523209898220237,-6,7,-5,0,-1,1,-1,-13
1523209898232271,-26,-26,64,13,2,2,2,10
1523209898232271,-33,4,-26,-9,-4,-4,-4,-21
1523209898241291,-57,1,-11,1,3,3,1,12
1523209898241291,22,17,-14,-19,-2,-2,-1,-4
1523209898256370,0,5,-32,14,3,0,0,3
1523209898256370,79,9,-29,-1,-3,-3,-1,14
1523209898258337,-1,-3,7,5,-3,-3,-1,-4
1523209898258337,25,7,43,-8,0,1,0,6
1523209898279394,-49,9,-43,0,2,1,-1,-6
1523209898279394,1,-28,-21,-17,-7,-2,-1,4
1523209898280395,6,7,18,11,-4,-3,-1,-11
1523209898280395,-5,-6,46,-5,0,-1,-1,-15
1523209898301452,29,5,-6,0,1,2,1,28
1523209898301452,-20,9,45,15,3,1,0,5
1523209898303457,61,26,7,-9,-2,-1,-2,21
1523209898303457,-90,-7,-69,10,-1,-2,-4,-47
1523209898316498,65,-27,2,-25,-8,-8,-5,12
1523209898316498,-109,-32,-94,-17,-2,1,0,-27
1523209898318499,25,3,-24,2,-4,-4,-3,13
1523209898318499,10,-6,26,5,0,-1,-1,18
1523209898339590,13,42,9,0,-5,-2,-3,-5
1523209898339590,43,12,-12,5,-3,-3,2,3
1523209898340556,-71,-5,1,-1,-1,-3,-3,-21
1523209898340556,18,-1,9,-10,-1,2,-1,8
1523209898368631,-12,-1,38,21,3,-1,0,-8
1523209898368631,59,7,42,-16,3,0,-1,0
1523209898370635,-3,17,-80,19,5,5,3,0
1523209898370635,53,-8,64,-22,-8,-7,-2,8
1523209898376886,97,8,-6,-11,-4,2,4,33
1523209898376886,-86,-12,38,18,1,0,0,-1
1523209898378729,23,28,50,12,4,0,1,1
1523209898378729,27,-16,-52,-11,-4,-3,-5,16
1523209898398709,20,-12,5,6,-2,-2,-1,4
1523209898398709,38,17,22,6,2,0,2,17
1523209898400715,-31,-2,52,-2,-6,-2,0,-8
1523209898400715,-36,-20,-37,-24,-4,-1,0,-10
1523209898421771,72,12,-3,-1,1,0,-2,-5
1523209898421771,-98,-12,20,17,-1,-2,-3,-7
1523209898422773,70,-17,47,-3,-5,-5,-4,3
1523209898422773,-69,10,39,8,-1,0,0,-7
1523209898435808,24,-1,-10,13,7,3,2,11
1523209898435808,-14,-9,-34,-15,-4,-2,-2,0
1523209898443063,-38,-1,-61,-18,-3,0,-1,-20
1523209898443063,24,-4,33,15,2,-1,-1,8
1523209898458869,-65,-18,-55,1,-2,-1,4,44
1523209898458869,-28,-25,-15,9,2,-1,-5,-24
1523209898460878,-92,-2,-21,3,-1,-1,-1,8
1523209898460878,-14,-6,-74,-15,-2,1,-1,-5
1523209898481933,-111,2,31,7,1,-1,-2,-23
1523209898481933,48,-22,-45,-3,0,0,0,19
1523209898482943,24,-7,-58,-22,-7,-4,0,-19
1523209898482943,-44,11,42,21,3,0,-1,10
1523209898495969,10,16,7,3,-3,-1,-3,-21
1523209898495969,17,20,0,-12,-4,-1,0,0
1523209898502987,14,-16,43,7,4,1,1,-3
1523209898502987,81,4,17,10,4,4,3,6
1523209898519030,26,-20,6,-26,-13,-9,-9,-7
1523209898519030,-41,-21,-42,-1,-4,-6,-2,-5
1523209898521035,1,6,40,8,2,1,-1,6
1523209898521035,-7,2,-8,-20,-5,-3,0,43
1523209898541088,-98,-9,6,0,-3,-3,-7,-34
1523209898541088,5,-6,-5,9,4,3,0,-2
1523209898543094,1,16,1,1,-5,-2,-2,-4
1523209898543094,-25,-5,24,-3,-1,1,2,-7
1523209898556130,79,-2,13,16,6,2,2,6
1523209898556130,-13,-20,-9,0,3,7,2,-41
1523209898563254,-59,-1,-56,-16,-5,-3,-2,-14
1523209898563254,78,4,-8,18,1,-2,-1,-8
1523209898579190,-112,-8,-23,-10,2,1,-1,-6
1523209898579190,69,21,40,-5,-3,-4,-3,0
1523209898580193,4,6,85,-4,-1,0,1,-5
1523209898580193,-32,-34,-2,-8,-2,-1,-1,-27
1523209898601250,44,27,54,23,3,0,-5,-63
1523209898601250,-41,-7,-27,-9,-6,-5,1,27
1523209898603253,-65,-28,52,-9,3,2,1,-32
1523209898603253,-42,15,-114,-12,-5,-4,-5,-14
1523209898616372,12,-24,37,12,1,0,2,7
1523209898616372,125,33,40,-19,-4,-1,-1,15
1523209898622303,-19,-14,-20,11,0,-4,-2,1
1523209898622303,37,16,64,18,7,1,1,6
1523209898639554,-12,-11,-18,-7,0,1,3,-14
1523209898639554,47,47,32,4,1,1,-1,7
1523209898640352,100,-15,-49,-1,-5,-4,-1,36
1523209898640352,74,7,-6,4,1,1,1,19
1523209898661408,-57,-19,32,-31,-10,-6,-4,15
1523209898661408,-14,-4,-28,23,2,-2,-2,3
1523209898663413,-8,7,42,-14,0,-1,-2,-47
1523209898663413,4,-10,-17,-24,-6,-4,-1,-7
1523209898675444,13,-1,-34,11,2,-1,0,9
1523209898675444,44,7,26,0,0,0,-1,13
1523209898682471,-82,-1,27,22,3,0,1,4
1523209898682471,7,-10,38,-3,-1,0,-1,2
1523209898698506,-56,0,10,1,1,3,3,-8
1523209898698506,-43,-10,67,-7,-3,-2,0,0
1523209898700511,112,-15,-83,-7,-4,0,0,20
1523209898700511,-122,5,-20,-12,-4,-3,-4,-19
1523209898721803,63,13,-23,-4,-2,-1,-2,18
1523209898721803,-5,3,26,1,1,1,-2,-15
1523209898723687,21,24,1,1,2,0,0,36
1523209898723687,36,-11,-17,-3,-1,0,0,-17
1523209898735605,35,2,35,22,-1,0,-1,7
1523209898735605,-44,3,-69,-29,-3,-3,-1,-2
1523209898742624,30,-38,90,13,1,-1,-2,-6
1523209898742624,65,7,4,-4,-3,-2,-4,7
1523209898758666,-22,-11,-101,-21,-2,-2,-1,-12
1523209898758666,31,10,-3,5,-2,-2,-2,-6
1523209898760671,-45,3,9,-1,-3,-1,-2,7
1523209898760671,10,-5,-2,12,4,0,-1,-5
1523209898781726,11,4,39,-1,0,0,1,-7
1523209898781726,106,3,-7,-6,-3,-3,-1,18
1523209898782737,-94,-19,-9,0,2,1,0,-1
1523209898782737,4,23,84,32,2,3,2,3
1523209898794762,-65,-26,-93,-50,-3,0,-4,-7
1523209898794762,-26,-18,53,11,-5,-4,-4,-16
1523209898803786,50,19,-110,-17,-2,-1,-1,-3
1523209898803786,22,-8,-19,7,-1,-3,-2,-2
1523209898818826,83,23,44,14,1,-1,-3,-22
1523209898818826,15,-10,17,1,1,1,1,3
1523209898820840,-39,-7,-8,-1,-4,-3,-3,-3
1523209898820840,8,1,-5,-5,-2,0,-2,-2
1523209898840885,49,14,8,0,-2,-2,0,9
1523209898840885,-19,-9,-51,0,1,2,1,24
1523209898842890,31,21,-7,-3,-8,-7,-6,-15
1523209898842890,-78,-14,17,11,6,4,3,3
1523209898854922,-31,-28,-8,-23,-6,-6,-6,-10
1523209898854922,11,18,50,-21,-8,-7,-4,-11
1523209898863985,6,5,5,13,4,4,2,16
1523209898863985,24,9,-5,-2,-3,-4,-1,8
1523209898879026,-10,-12,5,18,1,-1,2,-2
1523209898879026,3,5,8,5,3,2,-2,-12
1523209898880991,-34,-7,-21,-10,-5,-4,-3,-5
1523209898880991,14,8,11,-6,-1,0,-3,-10
1523209898901046,-12,17,18,11,2,2,1,10
1523209898901046,32,-24,-78,-1,1,1,2,27
1523209898903049,-86,18,118,-2,-2,0,-2,-59
1523209898903049,64,5,32,1,-7,-6,-4,29
1523209898924342,3,18,44,-9,1,0,2,11
1523209898924342,-22,-6,18,-12,0,1,2,9
1523209898926188,-2,-5,-9,-4,-3,-2,-3,-22
1523209898926188,-21,-12,-38,-2,0,-3,-2,-2
1523209898939145,6,3,-26,11,-2,-1,-1,7
1523209898939145,-30,12,31,10,1,0,-1,-17
1523209898940150,6,-3,-30,-2,2,2,4,21
1523209898940150,-15,-4,-18,-5,-1,-2,-1,-13
1523209898961204,18,1,-16,4,-2,-1,-1,12
1523209898961204,-41,-6,-17,4,0,0,-2,-14
1523209898963209,44,-6,-5,-4,-2,0,1,16
1523209898963209,34,-7,-22,-5,-2,-1,0,-7
1523209898975244,-79,13,75,4,-3,0,6,44
1523209898975244,35,-64,-120,-20,-11,-7,-9,-14
1523209898984267,-6,-24,11,4,0,0,-1,7
1523209898984267,2,-10,-21,-8,0,1,0,-17
1523209898999312,2,11,-11,2,-1,-3,0,4
1523209898999312,-64,20,16,2,1,0,0,-5
1523209899000311,35,9,-17,3,2,-1,0,15
1523209899000311,-39,-9,-14,-4,-1,1,1,-6
1523209899023552,46,0,-5,-1,0,1,-1,-8
1523209899023552,-6,11,4,4,0,0,-2,-9
1523209899024371,28,1,4,1,3,0,-2,-4
1523209899024371,-18,11,17,5,-1,-3,0,4
1523209899035403,18,-12,22,-7,0,3,5,-24
1523209899035403,16,9,-13,-18,-7,-6,-9,23
1523209899044428,38,23,59,16,7,5,5,7
1523209899044428,-102,-63,-82,17,-4,-3,1,27
1523209899066487,76,32,17,-31,-13,-9,-7,-2
1523209899066487,49,12,48,10,2,3,6,-6
1523209899068490,27,3,-11,-11,-3,-4,-5,3
1523209899068490,2,4,10,-4,1,0,2,6
1523209899081523,-31,1,30,33,7,1,-2,-41
1523209899081523,-4,6,33,20,1,0,3,-7
1523209899083530,0,9,-10,-10,0,0,0,0
1523209899083530,21,13,61,1,1,2,0,-11
1523209899094559,3,-20,-62,-15,-4,-5,-5,36
1523209899094559,-72,11,17,-2,1,-1,2,20
1523209899103584,4,-16,-26,10,0,-4,-1,-14
1523209899103584,56,8,32,-14,-3,-2,-1,-3
1523209899118630,-65,-21,3,2,2,0,1,-13
1523209899118630,33,6,43,8,3,1,2,-4
1523209899120628,-11,0,-69,-18,-7,-2,1,23
1523209899120628,60,18,-31,-12,-3,-2,-5,-18
1523209899141684,-16,-5,33,14,-1,-3,-3,-8
1523209899141684,44,21,-31,-15,-7,-8,-2,-9
1523209899142882,-15,-12,22,-5,3,4,2,-1
1523209899142882,3,-14,20,12,0,3,0,-19
1523209899154726,67,7,-50,-23,-1,-1,-2,4
1523209899154726,-43,3,22,12,3,1,-1,-7
1523209899163956,79,-16,-65,-15,-8,-5,-3,-18
1523209899163956,43,15,-10,16,-1,-4,-3,-28
1523209899179017,-29,2,1,11,0,-2,-5,22
1523209899179017,34,-23,-19,-23,-8,-3,0,10
1523209899180788,-46,10,-38,1,4,0,-4,-2
1523209899180788,18,-7,38,7,0,-3,-2,5
1523209899201844,-31,-21,-23,-13,-1,1,2,10
1523209899201844,-88,-10,-65,-1,0,1,-2,-33
1523209899202846,24,7,127,3,-5,-4,-1,25
1523209899202846,-1,-14,-63,-8,1,1,-3,-4
1523209899224138,-52,-23,40,10,-1,1,-1,23
1523209899224138,-9,15,20,-6,-2,-3,-4,-49
1523209899225908,20,-5,46,4,2,1,0,13
1523209899225908,14,8,-35,6,2,0,1,37
1523209899239946,-23,-12,-37,-1,-2,2,-1,-39
1523209899239946,-58,-23,-13,-5,1,2,-1,6
1523209899245193,60,2,11,12,-5,-5,-1,22
1523209899245193,-64,4,57,-17,-1,0,0,-32
1523209899262128,79,9,-1,4,-2,-1,2,22
1523209899262128,-16,-4,39,14,2,-2,-1,7
1523209899263005,-8,-2,-69,-15,-5,-2,-3,-6
1523209899263005,-15,8,16,6,-1,0,0,27
1523209899284065,-4,-4,-16,-6,-2,-2,-2,-14
1523209899284065,25,-17,11,6,1,0,2,29
1523209899285065,-50,10,88,7,-3,-4,-2,-76
1523209899285065,8,-15,-24,-9,0,1,1,7
1523209899299104,22,15,-17,-27,-7,-5,-2,-9
1523209899299104,10,5,-25,-5,0,-1,-2,-1
1523209899300108,-19,2,-22,1,1,1,1,15
1523209899300108,-13,-5,-95,-11,-6,-5,-4,6
1523209899321161,14,28,45,22,3,2,2,-13
1523209899321161,65,-1,-11,-7,1,0,1,18
1523209899323166,13,3,45,15,-4,-3,-2,7
1523209899323166,40,24,-2,1,0,0,-1,4
1523209899344464,-16,-10,3,0,-3,-4,-2,0
1523209899344464,-40,-5,-18,0,2,3,2,-7
1523209899346266,22,1,33,-26,-3,-4,-4,18
1523209899346266,-92,6,6,0,-2,0,-2,-13
1523209899359262,30,-11,13,7,0,-5,-4,36
1523209899359262,22,12,11,3,-3,-1,0,-2
1523209899360264,43,-7,-21,1,1,1,2,17
1523209899360264,-46,-19,47,1,-2,0,-3,-6
1523209899381320,64,5,-16,-6,-4,-2,-1,-5
1523209899381320,45,-4,16,4,2,4,1,-9
1523209899383329,14,3,-113,-10,-3,-3,0,26
1523209899383329,81,9,32,-7,-3,-5,-1,9
1523209899404382,-38,2,35,21,7,5,4,-13
1523209899404382,4,-15,-55,-12,-3,-1,-4,2
1523209899405384,-61,3,10,13,3,3,2,-25
1523209899405384,4,2,-7,-10,-3,1,2,12
1523209899418420,-73,-6,25,1,-2,-3,-1,-16
1523209899418420,59,14,-31,-14,-7,-6,-4,21
1523209899425673,-41,-4,15,10,2,0,-1,7
1523209899425673,-19,19,65,-4,-5,-4,-3,0
1523209899441481,21,-17,-30,15,10,4,0,-4
1523209899441481,-8,19,36,7,0,2,1,8
1523209899443487,37,-18,-62,-11,-4,-1,0,-15
1523209899443487,-34,9,80,9,3,-1,0,-12
1523209899463774,27,-24,-37,-8,-5,-3,0,-5
1523209899463774,-4,-8,65,8,3,2,-1,-5
1523209899465550,29,4,-33,-6,-5,-5,-4,5
1523209899465550,21,1,-8,7,2,3,3,14
1523209899478815,-35,-5,-64,-27,-3,-4,-3,25
1523209899478815,-119,-8,-19,1,-3,-5,-8,-93
1523209899484597,-72,-23,9,0,1,5,-3,-56
1523209899484597,89,-9,-80,0,-2,-2,-5,10
1523209899501640,-18,19,35,6,1,4,6,-13
1523209899501640,-48,-23,-60,-15,-10,-7,-6,21
1523209899502643,24,16,89,10,2,1,1,27
1523209899502643,-1,-19,-49,0,-2,-3,-4,-23
1523209899523700,23,-3,-43,-20,-3,-2,-5,-10
1523209899523700,-11,7,32,7,2,2,4,-7
1523209899525705,0,1,-2,1,-1,-1,-1,7
1523209899525705,-59,-1,22,11,4,5,5,47
1523209899538778,106,9,-11,2,-6,-5,-3,-45
1523209899538778,-69,-4,-19,-11,0,1,2,4
1523209899545795,39,12,62,-1,-4,-6,-7,-24
1523209899545795,7,12,-36,-12,-3,-3,-2,3
1523209899562037,-3,-5,-5,14,3,1,0,12
1523209899562037,-30,-8,31,-5,-1,2,5,-5
1523209899562802,56,-14,-37,0,1,1,0,12
1523209899562802,-17,6,33,-5,-3,-3,-2,-23
1523209899583860,-34,-2,-30,-2,-1,-3,-1,36
1523209899583860,34,3,53,2,-2,-4,-2,-8
1523209899585864,-62,20,-57,-31,-2,0,1,-2
1523209899585864,37,-20,-2,4,-2,-1,-1,-11
1523209899597897,-11,7,61,7,0,-1,-1,11
1523209899597897,59,-1,-1,13,0,-1,-1,16
1523209899604954,-106,-1,-28,6,-2,0,0,10
1523209899604954,27,2,41,-8,-2,-1,-1,28
1523209899622052,-5,-7,-60,-10,-6,-1,-3,-8
1523209899622052,39,9,3,2,-1,-1,-1,2
1523209899622962,-27,-19,29,10,2,-2,0,-9
1523209899622962,-1,-1,-18,-6,-2,0,-1,-19
1523209899644020,25,-9,23,0,1,1,1,10
1523209899644020,-1,-2,20,11,1,1,-1,20
1523209899646023,59,7,35,-17,-2,-1,1,3
1523209899646023,-31,-2,28,32,3,3,1,-7
1523209899658059,19,14,-52,-54,-11,-5,-4,-12
1523209899658059,107,3,-6,10,1,1,2,6
1523209899665074,-38,-12,5,13,3,0,1,14
1523209899665074,-68,15,-48,-9,-1,-3,-4,-19
1523209899681121,70,13,59,17,2,0,-1,-3
1523209899681121,-34,-4,-52,-6,-3,-3,-1,5
1523209899683126,-62,-11,-24,-1,1,2,-3,-39
1523209899683126,13,-4,37,-2,1,0,0,11
1523209899704179,-28,-1,-17,7,0,1,0,4
1523209899704179,-23,-1,-5,3,0,0,-1,-6
1523209899705182,48,11,-19,-10,-4,0,-1,3
1523209899705182,-30,-18,-49,-14,-5,-4,-4,-13
1523209899717216,-43,7,60,9,2,1,-2,-23
1523209899717216,-11,-27,-31,5,3,1,-1,6
1523209899726456,-34,-16,6,6,1,-2,-2,-12
1523209899726456,58,-10,24,-9,-1,-1,-1,-5
1523209899741278,-34,6,14,-7,-9,-3,-1,5
1523209899741278,-13,-4,-62,-3,0,0,0,-8
1523209899743284,41,-6,10,-1,-4,-4,-2,7
1523209899743284,-12,-10,42,10,4,3,-1,-12
1523209899764339,-25,-13,-53,-14,-1,1,-2,-15
1523209899764339,27,16,43,15,1,1,-5,-13
1523209899765345,-27,-20,-42,-22,-7,-4,-3,-18
1523209899765345,-6,9,1,13,5,4,3,5
1523209899777373,-9,16,-5,6,3,2,0,-2
1523209899777373,21,17,52,-11,-7,-8,-4,1
1523209899786396,-68,-25,0,5,-3,-3,-1,-4
1523209899786396,-2,-1,-42,-2,2,0,1,-6
1523209899801436,-6,5,68,7,1,-1,1,5
1523209899801436,-3,-3,20,-10,-2,0,0,20
1523209899803442,-7,24,66,7,-1,-2,-2,-12
1523209899803442,12,-5,-43,9,-3,-4,2,0
1523209899824555,-4,-9,-42,-32,-4,-2,-1,11
1523209899824555,-13,-8,64,2,-3,-1,-1,15
1523209899825500,34,-3,1,8,3,2,2,9
1523209899825500,16,6,30,-4,-2,-4,-3,-11
1523209899837533,63,-8,38,13,1,-2,-2,12
1523209899837533,75,8,-21,-2,0,1,-1,-5
1523209899846556,23,15,-20,3,2,4,2,8
1523209899846556,-128,-3,56,-8,-3,-3,-1,-1
1523209899861598,-2,-25,-36,9,1,-1,-1,-7
1523209899861598,59,2,-73,-24,-6,-6,-4,-12
1523209899863720,6,10,14,5,1,1,-1,24
1523209899863720,-40,-6,-28,-10,-2,1,0,0
1523209899883657,22,9,13,11,1,-1,-2,-35
1523209899883657,-32,-8,10,-7,-4,-6,-4,-1
1523209899885661,-13,-6,-14,11,1,1,2,9
1523209899885661,95,4,-28,-27,-3,-3,-4,2
1523209899897693,-86,-9,-6,2,-3,-1,-2,7
1523209899897693,-43,-17,-22,8,2,1,1,-8
1523209899906717,46,18,24,7,-1,-2,-3,-2
1523209899906717,3,-6,-4,5,0,-1,0,3
1523209899921759,34,15,19,6,0,0,1,-22
1523209899921759,37,5,63,-4,0,1,-2,15
1523209899922887,-6,-6,-32,-10,-4,-3,1,-8
1523209899922887,69,-1,-19,2,1,2,-1,-9
1523209899943818,2,-25,66,-2,-2,-1,-1,9
1523209899943818,-20,6,-7,9,3,2,4,12
1523209899945821,32,-5,-43,-5,-1,-2,-1,35
1523209899945821,8,9,41,-2,-5,-5,-31,-8
1523209899957853,21,9,-80,-1,1,1,26,-7
1523209899957853,5,0,56,11,0,0,-3,8
1523209899966877,-2,-16,-34,-14,2,1,1,-1
1523209899966877,100,15,21,-1,-1,-2,-2,8
1523209899981918,-29,-1,-56,3,-4,-2,-5,15
1523209899981918,-43,5,-9,0,-2,-2,-1,-13
1523209899982923,54,36,-6,14,6,3,3,-15
1523209899982923,-19,-35,-64,-20,-10,-7,2,22
1523209900003977,79,41,-10,-6,-1,0,-7,-11
1523209900003977,31,29,-28,5,-2,-2,1,-2
1523209900005982,-41,-3,63,-2,0,-2,-3,39
1523209900005982,34,17,44,5,0,0,6,-20
1523209900018014,-97,-14,10,3,0,-2,-5,-43
1523209900018014,9,-10,21,-9,-3,-2,-5,-14
1523209900027037,47,8,-41,-6,-3,-2,-2,16
1523209900027037,-69,7,26,17,7,4,7,12
1523209900041073,12,4,-54,-37,-7,-2,-4,11
1523209900041073,-8,-12,-54,10,3,1,-1,-11
1523209900043080,-3,-34,10,-1,1,3,2,-42
1523209900043080,92,-12,33,-10,-8,-8,-3,19
1523209900064135,37,19,14,15,3,-1,-3,13
1523209900064135,-31,-5,6,0,2,1,4,8
1523209900065139,53,-2,13,-13,-8,-3,-2,-2
1523209900065139,-60,5,-40,2,1,2,-1,-62
1523209900078227,0,-6,59,11,1,-1,-3,17
1523209900078227,-2,-7,4,-9,-2,-2,-1,4
1523209900086195,-49,9,29,12,2,1,-3,-27
1523209900086195,63,-31,16,3,4,5,13,30
1523209900101235,-68,-29,31,-6,-7,-6,-17,-24
1523209900101235,-9,-20,-43,-3,-2,-3,-3,-17
1523209900103239,15,-7,47,-2,-4,-3,2,19
1523209900103239,-32,13,-33,-2,-2,-3,-9,-6
1523209900124297,15,-11,-10,-9,0,1,4,17
1523209900124297,50,0,11,-2,-1,0,-1,-15
1523209900125298,-22,13,34,-10,-5,-5,-3,-6
1523209900125298,35,-21,-67,7,0,2,6,16
1523209900137565,1,-1,70,12,3,1,0,-7
1523209900137565,10,6,-73,-16,-2,-1,2,10
1523209900146403,-40,2,57,7,2,0,-5,-65
1523209900146403,-64,12,-38,-5,0,-3,-1,-21
1523209900161630,4,9,61,10,2,1,4,23
1523209900161630,-15,11,-18,-1,-3,0,-2,3
1523209900163399,-26,-41,-45,-4,-4,-5,-19,13
1523209900163399,-20,13,-3,-3,-2,-2,31,0
1523209900183454,-4,-15,-17,5,2,0,-2,10
1523209900183454,-39,0,48,-1,-2,0,0,1
1523209900185457,-53,-1,51,15,1,1,-2,-2
1523209900185457,26,4,-21,-28,-5,-3,-8,-15
1523209900206514,33,-1,5,4,-1,-3,1,20
1523209900206514,21,-25,48,8,1,0,6,7
1523209900208521,4,-14,-21,-1,-1,0,5,7
1523209900208521,-27,-7,-2,7,2,1,-6,8
1523209900221555,-29,-5,-66,-4,-1,0,4,-10
1523209900221555,-43,4,15,-12,-9,-7,-9,27
1523209900223678,98,16,-36,0,0,-2,-11,-49
1523209900223678,-46,-28,1,2,1,1,28,-4
1523209900244622,49,22,-41,-7,-5,-4,-10,-1
1523209900244622,9,-7,20,9,3,3,1,-13
1523209900245617,66,9,-44,-4,-3,1,3,26
1523209900245617,-44,35,50,7,2,0,-9,10
1523209900266674,-5,-8,-71,-15,-9,-7,-8,-13
1523209900266674,48,-8,0,-6,-3,-4,5,-10
1523209900267676,-3,6,-3,2,3,2,5,6
1523209900267676,80,17,8,1,-2,0,-11,-11
1523209900281719,3,5,18,0,-1,-1,3,24
1523209900281719,-23,12,20,1,-1,-1,-7,17
1523209900282719,-12,25,-6,-5,-4,-3,-1,6
1523209900282719,-15,-14,-9,9,5,6,30,25
1523209900303778,5,-14,50,-14,-2,2,-6,16
1523209900303778,-92,-13,-29,2,-1,-2,-6,-41
1523209900305779,36,10,4,-4,-3,-2,1,-30
1523209900305779,-9,1,-51,-2,-3,-5,-15,10
1523209900327069,-32,1,47,6,0,0,2,-5
1523209900327069,94,-10,-5,-1,2,0,5,-9
1523209900327836,-123,-8,4,2,3,2,2,9
1523209900327836,50,3,78,-13,-9,-7,-18,1
1523209900340873,-22,-13,-74,2,0,2,4,-14
1523209900340873,1,-1,-34,-2,-3,-1,-5,7
1523209900348902,-7,-7,-4,6,-2,-1,2,2
1523209900348902,-21,-10,-11,-5,1,1,-6,-12
1523209900363932,72,33,65,14,5,3,3,0
1523209900363932,-63,-26,-101,-13,-6,-3,-1,20
1523209900365940,22,-19,16,-20,-7,-4,-2,2
1523209900365940,-88,11,53,9,0,3,-3,16
1523209900386994,49,-5,18,-12,-4,-5,-5,-31
1523209900386994,13,17,21,8,3,-2,-33,0
1523209900387995,-39,-13,-10,2,4,1,18,18
1523209900387995,-37,-7,-13,-14,-10,-6,-14,-43
1523209900401030,9,-4,-2,12,2,0,7,15
1523209900401030,-8,3,28,-5,0,0,0,-2
1523209900408050,51,6,-23,11,0,1,-2,11
1523209900408050,-10,-11,-1,-10,2,3,-4,-11
1523209900432123,12,-1,25,4,-2,-2,-4,7
1523209900432123,28,-11,-41,-1,2,0,10,-15
1523209900433116,14,12,-9,0,-4,1,-2,20
1523209900433116,0,-10,-41,4,0,-2,1,-2
1523209900446385,-21,4,12,-9,-4,-4,-15,-10
1523209900446385,49,32,28,4,1,2,40,8
1523209900448161,-3,-24,-23,-3,-1,0,-4,-4
1523209900448161,32,8,-30,-5,-3,-3,-8,3
1523209900461426,-31,-2,-19,4,2,2,2,-2
1523209900461426,0,-3,53,2,-1,-1,-6,0
1523209900467207,-35,10,-36,-7,-3,-3,-4,-9
1523209900467207,106,1,92,1,-1,-2,5,2
1523209900484251,-4,-5,-115,-2,-3,0,-3,10
1523209900484251,-32,-13,-3,-3,-4,-2,-4,2
1523209900485254,37,6,21,-2,-1,-3,0,20
1523209900485254,49,-16,-45,-2,-2,0,-5,41
1523209900506310,-99,-15,24,7,1,-1,5,-4
1523209900506310,80,21,58,0,-1,-2,-31,-3
1523209900508316,-43,0,-41,-21,-5,-4,6,-4
1523209900508316,-36,-17,13,15,7,2,1,0
1523209900520350,21,8,83,-4,-4,-2,3,-3
1523209900520350,-52,-6,-8,6,6,8,2,1
1523209900527602,70,8,29,6,-1,-2,-8,5
1523209900527602,-89,6,7,-3,-2,-1,0,-16
1523209900543410,-7,13,-1,-6,-3,-2,-2,18
1523209900543410,-28,0,-19,-4,-4,-3,1,-24
1523209900550428,7,13,76,-2,-2,-1,0,-1
1523209900550428,-14,-11,-80,-4,-4,-2,2,-9
1523209900566471,-49,5,28,3,3,0,-2,-9
1523209900566471,88,5,-18,2,4,0,-22,31
1523209900568475,-91,-27,8,7,2,2,25,-59
1523209900568475,6,15,-13,-12,-9,-3,-7,0
1523209900580508,11,-1,-2,2,0,-2,1,-10
1523209900580508,2,-12,-1,-6,-2,-1,-1,5
1523209900589560,-33,4,5,17,2,1,-9,-4
1523209900589560,13,-16,-72,-29,-8,-7,-4,4
1523209900603568,24,-12,-47,7,2,1,3,-13
1523209900603568,-14,22,18,-8,-5,-2,10,1
1523209900605574,105,-2,-33,3,-3,-2,-8,11
1523209900605574,-37,-7,-3,5,4,3,3,-15
1523209900626865,59,-1,36,-8,-2,-2,-4,8
1523209900626865,-84,13,-19,-1,-4,-6,2,-28
1523209900628678,-21,-12,-36,-5,1,0,-4,-1
1523209900628678,23,11,77,0,-1,1,-2,1
1523209900640668,20,8,-33,-1,0,-2,-4,-2
1523209900640668,30,-12,-24,-9,-6,-4,2,1
1523209900647687,0,5,32,-2,-1,-1,-17,38
1523209900647687,-44,-35,-72,-3,-2,-2,0,-52
1523209900663730,-15,21,7,7,5,2,1,13
1523209900663730,-17,-9,26,-6,-6,-4,8,5
1523209900665740,4,-11,-59,-6,-1,-1,-8,10
1523209900665740,13,14,44,13,5,0,-1,14
1523209900686795,-19,-16,-23,-5,-5,-3,-2,-12
1523209900686795,52,0,-40,3,2,-1,-4,6
1523209900687792,3,23,69,0,-2,1,4,-18
1523209900687792,20,6,-30,-7,-5,-3,-3,16
1523209900708850,-4,-26,-88,-13,-2,0,4,-11
1523209900708850,-16,15,60,10,5,5,-12,-39
1523209900710854,25,-4,-12,2,0,-3,33,2
1523209900710854,39,13,81,5,-2,0,-1,4
1523209900723890,-34,12,18,-2,-7,-3,-6,1
1523209900723890,47,-16,-25,-9,1,1,1,-5
1523209900725894,17,-2,25,0,1,1,-8,11
1523209900725894,-54,2,-55,4,2,1,-4,-61
1523209900746951,112,23,23,-8,-5,-6,0,12
1523209900746951,-111,-15,17,6,-2,-1,6,10
1523209900747954,-39,10,-45,-3,-2,-1,-4,-13
1523209900747954,62,-7,-10,-1,-1,-2,4,28
1523209900759985,1,1,-16,-2,0,2,17,-6
1523209900759985,66,8,-19,-1,-1,1,-2,9
1523209900769008,-13,-2,10,2,1,0,-8,-5
1523209900769008,-29,-2,48,1,-2,-1,1,23
1523209900784047,-19,-22,-20,4,3,0,-8,-36
1523209900784047,23,6,17,-13,-6,-4,3,5
1523209900786055,-41,-15,-7,-6,-6,-4,2,5
1523209900786055,28,6,21,4,1,1,-9,18
1523209900806107,17,-4,19,7,-2,0,-4,6
1523209900806107,24,3,49,4,0,1,6,6
1523209900808112,-75,-37,20,-12,-5,-5,-10,-19
1523209900808112,8,15,-55,-2,-2,-2,1,-1
1523209900820144,25,-21,-2,0,2,1,-3,12
1523209900820144,-17,-5,-36,-1,1,1,4,-4
1523209900829168,41,11,-14,0,-1,1,-1,9
1523209900829168,-37,6,32,5,1,-1,-30,-4
1523209900844444,-68,3,1,-6,-1,0,20,-21
1523209900844444,-4,7,-7,-3,-3,-3,-4,19
1523209900846253,54,-7,-5,5,3,1,-2,-1
1523209900846253,-34,9,27,9,4,2,1,4
1523209900866267,-51,0,7,-4,-2,-1,-9,-24
1523209900866267,43,-4,22,-5,-5,-4,-1,-9
1523209900868272,-47,-1,13,4,1,1,0,-9
1523209900868272,1,10,16,-2,1,-1,8,-7
1523209900880309,-38,-3,97,4,3,3,-1,8
1523209900880309,-78,-9,-23,2,-1,-2,4,8
1523209900889328,-21,-4,-2,-23,-4,-2,-3,18
1523209900889328,45,-9,-1,7,2,-2,-25,-19
1523209900904368,-32,-27,3,-8,-4,0,23,-4
1523209900904368,-11,6,-21,4,1,1,-8,-7
1523209900905370,3,11,15,2,-2,-2,-5,16
1523209900905370,-65,-13,-21,-1,-1,1,4,7
1523209900926662,26,6,-34,-8,-5,-6,-12,8
1523209900926662,-46,-9,2,6,3,3,0,-31
1523209900928432,19,-2,18,-13,-9,-4,3,33
1523209900928432,70,-4,-7,-3,-4,-1,11,5
1523209900940464,56,15,-20,-6,-4,-1,-27,8
1523209900940464,64,-8,-11,-8,-2,-2,36,-4
1523209900949488,3,11,-6,13,7,2,-6,-7
1523209900949488,-26,-23,78,-5,-3,-2,7,17
1523209900964577,6,25,30,2,0,-3,-8,12
1523209900964577,7,-7,3,1,2,3,-9,11
1523209900965537,29,-4,-3,3,2,2,0,-21
1523209900965537,-53,5,0,-9,-7,-3,7,-12
1523209900986822,-4,-1,-6,8,1,0,1,5
1523209900986822,-13,-6,-5,5,-2,-2,-7,-10
1523209900988630,12,7,84,-4,2,2,3,-8
1523209900988630,22,-23,-99,-16,-8,-5,-5,2
1523209900999620,-43,-2,28,-4,-2,-2,-17,-4
1523209900999620,82,-2,14,3,-3,-1,27,8
1523209901008646,-78,-16,-33,-3,-7,-3,-8,-40
1523209901008646,-43,12,-7,-3,-1,-4,-2,-11
1523209901023920,10,13,20,-3,-3,-1,-3,-5
1523209901023920,-105,-17,13,2,1,-1,-10,-11
1523209901025694,-1,-20,-47,0,0,-1,1,-4
1523209901025694,33,33,4,3,4,2,10,-3
1523209901046747,-21,-23,-23,1,-1,-1,2,-40
1523209901046747,53,0,48,-3,1,1,-9,14
1523209901047753,-52,0,-20,-4,-5,-6,0,-8
1523209901047753,56,17,-4,2,-2,-1,-4,3
1523209901059781,-7,-12,-97,0,2,2,4,17
1523209901059781,-22,12,68,-9,-5,-3,6,-4
1523209901068804,19,3,32,-2,-2,-2,-10,-1
1523209901068804,58,-12,-18,2,0,0,3,8
1523209901083844,35,-8,42,-2,-3,-2,7,1
1523209901083844,-71,3,-29,-3,-3,-4,-12,-10
1523209901085851,-14,1,-7,9,2,2,3,5
1523209901085851,-44,2,37,-6,0,0,2,0
1523209901106905,43,3,-8,-5,-1,-3,-6,17
1523209901106905,20,-4,-31,1,-2,1,-7,1
1523209901107908,-7,11,20,1,-1,-1,1,-8
1523209901107908,6,-39,35,10,2,0,-1,-39
1523209901129201,-7,-11,11,-2,-2,0,3,4
1523209901129201,8,0,-62,-3,3,-1,-4,3
1523209901130974,-13,-9,62,5,-1,-1,4,-3
1523209901130974,7,8,-25,7,5,3,1,-1
1523209901144005,-73,-13,75,-3,-4,-4,-8,-4
1523209901144005,37,-10,-54,-8,-5,-3,26,-10
1523209901146052,64,9,-42,-5,-3,0,-9,12
1523209901146052,-39,-4,-4,-5,-2,0,-3,-8
1523209901166065,8,6,-14,4,0,0,3,17
1523209901166065,-15,9,8,0,-2,-2,-13,9
1523209901168068,-40,-7,-22,-1,1,2,2,-15
1523209901168068,43,4,11,-9,-7,-8,2,23
1523209901189127,-53,4,-42,1,0,1,0,-5
1523209901189127,-5,-9,-22,4,1,0,-8,2
1523209901190127,75,26,-4,-2,-4,-3,0,4
1523209901190127,-113,-29,-37,-5,-1,3,1,25
1523209901204166,55,11,-9,-6,-4,-6,-4,-15
1523209901204166,11,-13,17,0,1,0,-6,1
1523209901205170,12,5,-2,8,4,2,-1,-5
1523209901205170,31,-3,-21,2,-4,-2,-2,12
1523209901226461,-28,-7,-19,-6,1,2,28,-1
1523209901226461,21,1,3,-7,-1,2,-8,-5
1523209901228227,61,4,-9,4,1,-2,-2,10
1523209901228227,-3,2,27,-8,-6,-5,0,4
1523209901249291,10,10,1,7,1,-1,-11,-5
1523209901249291,12,5,19,1,-2,0,-6,0
1523209901250287,-114,-16,-26,-5,0,-1,5,-4
1523209901250287,49,3,-39,2,2,-1,-8,-12
1523209901263321,-1,-36,75,-9,-7,-4,-7,7
1523209901263321,-82,-6,-70,1,1,0,3,42
1523209901270341,2,-6,-30,0,-1,-1,-5,-19
1523209901270341,-6,3,25,-8,-4,-3,-2,-25
1523209901286424,0,-1,-3,4,1,2,0,0
1523209901286424,-4,-11,38,3,3,1,3,6
1523209901288387,39,-6,7,-4,-5,-3,-3,18
1523209901288387,-7,12,4,3,1,1,-29,3
1523209901308443,44,13,-9,-1,1,3,20,-3
1523209901308443,-65,-9,37,5,0,-3,-10,-26
1523209901310448,32,14,20,-14,-9,-6,0,12
1523209901310448,61,-6,-24,4,4,3,-1,0
1523209901323717,24,1,-14,4,2,-2,-8,16
1523209901323717,-14,-9,46,-6,-4,-1,-2,-16
1523209901330500,62,10,18,-2,0,-2,-1,19
1523209901330500,1,10,11,0,-1,-3,6,-32
1523209901346543,54,3,-35,5,2,3,-1,14
1523209901346543,61,17,17,6,4,3,4,-32
1523209901348552,-34,-10,32,-6,-3,-2,-8,-18
1523209901348552,9,0,2,-2,-1,-1,3,9
1523209901368603,3,4,-10,3,0,-1,-3,-3
1523209901368603,34,14,19,-1,-1,-2,-5,-7
1523209901370606,20,-65,-101,-18,-5,-4,-17,-1
1523209901370606,-7,-5,35,3,-2,0,8,-3
1523209901383642,-47,-10,-54,-1,1,0,-6,-16
1523209901383642,35,13,4,-8,-8,-4,2,15
1523209901389658,-36,1,-6,9,6,4,1,-7
1523209901389658,69,12,26,1,-1,0,4,12
1523209901406704,0,3,16,-5,-1,-1,-4,-31
1523209901406704,-91,-20,-53,-1,-3,-4,-9,11
1523209901407705,4,21,66,11,8,4,9,7
1523209901407705,39,21,18,-3,-3,0,0,-6
1523209901428993,1,10,15,-6,-1,-1,-29,18
1523209901428993,18,-1,-16,15,6,4,16,-16
1523209901430771,-10,10,79,-2,-4,-2,0,3
1523209901430771,-116,2,16,15,3,0,6,-1
1523209901442800,-7,-16,-25,-9,-1,-3,-8,-1
1523209901442800,-12,24,15,0,-1,-2,-5,4
1523209901449818,35,10,-33,0,-1,1,1,2
1523209901449818,-9,-7,-33,-3,-1,3,1,54
1523209901466862,57,6,-85,-5,-7,-3,9,30
1523209901466862,-25,0,72,-2,-3,-3,-8,8
1523209901467864,20,-8,-21,0,0,1,8,-13
1523209901467864,-46,-4,19,-5,-1,-1,-3,-8
1523209901488927,-83,-22,48,-2,-4,-2,4,-6
1523209901488927,127,12,12,-9,-2,-3,-3,7
1523209901490929,-16,-29,-49,0,0,-1,-2,8
1523209901490929,30,-9,1,4,1,0,1,-6
1523209901502959,-63,5,79,3,0,-1,3,2
1523209901502959,-43,-13,-88,-2,-3,-4,-9,-48
1523209901509977,-33,-8,11,-12,-5,-4,-2,-4
1523209901509977,23,-3,10,5,1,-1,19,-26
1523209901527060,-31,16,14,5,2,0,2,10
1523209901527060,58,17,32,-5,-6,-3,-5,15
1523209901528024,-48,5,29,2,2,1,3,-9
1523209901528024,-65,-24,-14,7,-1,-2,-7,-6
1523209901549081,86,-9,55,-3,3,4,4,7
1523209901549081,34,9,-56,-12,-7,-3,5,10
1523209901550083,-51,11,15,6,3,1,-5,8
1523209901550083,0,0,26,-10,-2,-3,-7,11
1523209901563118,-33,-5,-19,1,-3,-3,1,-22
1523209901563118,-48,-21,-20,0,0,1,-4,1
1523209901570177,41,11,26,8,-1,-2,2,-8
1523209901570177,-10,-1,-26,-15,-3,-2,-5,2
1523209901586180,-45,-6,-65,2,-2,-2,3,-7
1523209901586180,23,27,-8,-1,1,1,0,-4
1523209901588187,7,-15,-43,-1,-4,0,2,23
1523209901588187,-12,-10,9,13,4,2,-28,-1
1523209901609482,74,25,37,-10,-4,-2,8,-23
1523209901609482,-22,5,91,-6,-4,-2,-1,17
1523209901610244,-9,3,-57,-3,-4,-4,-1,-10
1523209901610244,-3,1,12,-3,0,-1,-4,8
1523209901622275,24,0,38,8,5,3,1,-3
1523209901622275,-19,-19,14,0,1,0,-2,-24
1523209901631302,88,15,12,-1,-5,-2,-3,4
1523209901631302,7,4,-16,0,0,-2,7,-8
1523209901646340,-25,-6,44,-6,-3,-3,-5,9
1523209901646340,-11,2,-52,-3,-1,0,9,-5
1523209901648347,40,-8,-23,0,-1,-2,-5,15
1523209901648347,-3,0,-16,-2,-1,0,4,-1
1523209901668399,35,8,1,5,0,-1,-1,-4
1523209901668399,32,-11,-26,0,3,0,-3,45
1523209901670402,-72,-7,16,-4,-3,0,-4,-76
1523209901670402,-8,23,20,-1,-2,-1,5,9
1523209901682438,27,-24,-61,1,-2,-2,-2,1
1523209901682438,-80,-18,-19,-18,-1,-1,0,-6
1523209901691460,7,-7,5,1,-1,-2,0,9
1523209901691460,57,13,35,2,0,2,7,-16
1523209901706499,13,9,-46,5,0,0,-7,-11
1523209901706499,-15,-4,29,2,-3,-3,-25,30
1523209901708545,-38,-3,24,2,2,2,11,-36
1523209901708545,-88,2,-36,-10,-6,-7,-12,-10
1523209901728794,-34,19,-35,3,1,2,6,16
1523209901728794,27,3,-19,11,4,0,-5,-1
1523209901730566,66,21,42,-2,-3,-3,-3,41
1523209901730566,-88,-18,49,-1,-2,-3,-2,-37
1523209901742602,-19,-11,-33,4,3,-1,-4,4
1523209901742602,19,6,17,-6,-4,-1,8,-11
1523209901751619,-28,-4,-55,-8,-6,-4,-5,0
1523209901751619,40,-9,-18,6,5,3,7,9
1523209901766659,-40,-6,49,2,0,1,-2,13
1523209901766659,45,-9,-7,-5,-5,-4,3,-15
1523209901767662,24,13,-46,-2,0,0,1,28
1523209901767662,11,-19,49,-11,-8,-7,-8,-30
1523209901788719,17,1,-12,1,1,-1,1,-12
1523209901788719,5,8,12,5,2,3,5,5
1523209901790723,-19,-10,-7,4,3,0,-9,-3
1523209901790723,11,1,-37,3,-1,0,36,17
1523209901802756,-40,1,-15,-5,-1,-1,-4,36
1523209901802756,-45,3,6,0,-4,-4,1,-8
1523209901811777,-6,8,79,-8,-2,-2,-3,0
1523209901811777,14,-12,-11,10,5,2,-7,2
1523209901827046,13,16,47,-11,-5,-3,0,-6
1523209901827046,-55,-24,40,-4,-2,0,7,-3
1523209901827820,19,11,-40,6,-1,-6,-8,-12
1523209901827820,86,-11,-4,-5,-1,1,-4,17
1523209901848880,-43,-11,-39,-2,-3,-2,1,-4
1523209901848880,11,-8,45,3,-2,1,-5,7
1523209901850882,-11,-26,26,-8,-5,-3,1,-17
1523209901850882,84,19,13,0,0,-2,-5,1
1523209901862921,-67,-24,-34,-3,-1,0,0,-17
1523209901862921,50,0,-49,1,3,-1,-1,-51
1523209901871939,-21,28,46,-1,-1,1,1,5
1523209901871939,-29,-20,26,-1,-1,2,0,-12
1523209901886979,26,1,20,-3,-3,-4,-6,-6
1523209901886979,-22,3,0,10,4,0,-25,14
1523209901887981,35,-4,9,-6,-4,-1,21,8
1523209901887981,7,25,-9,-8,-4,-5,-9,6
1523209901909038,4,-29,-46,6,1,3,1,-6
1523209901909038,11,13,11,-7,-4,-5,-5,11
1523209901911131,2,-12,-7,5,5,3,0,8
1523209901911131,20,5,38,-3,-3,-3,-3,8
1523209901923197,-20,12,-35,-1,-2,-4,-2,-12
1523209901923197,30,6,-5,2,-1,-1,6,11
1523209901931105,-44,-34,-42,-7,-5,1,-4,8
1523209901931105,-8,-6,-16,-7,-2,-1,-1,-49
1523209901946137,52,10,-4,1,-1,-1,-4,3
1523209901946137,-4,-3,19,12,5,3,6,1
1523209901948143,28,26,-81,-5,-1,0,0,35
1523209901948143,6,-9,8,-7,-6,-6,-7,-16
1523209901969197,73,10,51,6,5,1,2,9
1523209901969197,-32,-6,6,-8,-3,-1,4,-8
1523209901971240,-47,-4,8,12,3,1,-2,-7
1523209901971240,-94,16,-28,0,0,-3,-11,31
1523209901982518,45,5,20,-7,-3,1,0,-5
1523209901982518,-2,6,62,2,-3,-3,0,2
1523209901991542,14,11,15,0,1,-2,1,-22
1523209901991542,16,4,16,2,1,3,-3,46
1523209902006582,-23,10,-7,-10,-8,-7,-6,-63
1523209902006582,-30,-11,-58,-6,-2,-4,1,4
1523209902008587,-27,6,4,3,2,0,-9,-13
1523209902008587,-26,1,14,4,0,0,5,-1
1523209902028688,46,-6,17,1,1,2,2,34
1523209902028688,58,3,-38,-22,-5,-4,2,14
1523209902030649,-32,-15,-36,2,2,1,-3,-19
1523209902030649,-5,-13,70,7,0,0,5,21
1523209902050700,-80,0,0,5,-5,-4,-3,-22
1523209902050700,76,-2,-70,-6,1,-1,-1,4
1523209902051702,5,13,28,-3,-6,-4,-4,9
1523209902051702,0,0,30,-3,-1,-2,-1,11
1523209902065739,-8,-24,26,5,4,3,0,5
1523209902065739,-46,-3,60,1,-2,-2,1,-1
1523209902066741,-6,-4,92,-2,3,1,1,-1
1523209902066741,2,2,-56,-2,-2,0,-1,-13
1523209902089084,9,1,-32,-6,-2,-4,-3,7
1523209902089084,15,17,-48,-2,-3,-5,-32,-5
1523209902096108,-26,-19,40,0,0,2,32,4
1523209902096108,-11,-11,-4,-5,-3,-1,-4,-21
1523209902111346,10,15,9,8,5,3,2,16
1523209902111346,-81,-16,45,-2,-3,0,1,-25
1523209902111346,113,16,-41,2,0,-2,-9,28
1523209902111346,-56,-1,48,4,2,0,1,-13
1523209902126345,12,-3,-91,-21,-9,-6,0,-7
1523209902126345,1,-5,20,9,0,1,8,1
1523209902126345,54,-22,-1,4,-2,-1,-5,-12
1523209902126345,30,7,-59,-21,-1,-1,4,2
1523209902148241,47,18,53,5,4,2,-3,3
1523209902148241,-105,-4,14,3,0,1,4,-14
1523209902149243,-40,-12,-49,5,-2,-1,-8,-25
1523209902149243,72,5,-40,3,0,0,-5,17
1523209902171394,-33,-3,25,-9,-3,-1,1,3
1523209902171394,97,12,-70,2,3,1,-26,4
1523209902171394,-11,-5,51,1,2,1,13,-2
1523209902171394,-53,-14,-12,2,-5,-2,-5,5
1523209902185340,22,-22,24,2,-1,-2,4,-2
1523209902185340,-41,5,-7,4,0,2,2,8
1523209902186341,6,6,-5,-3,1,-2,-10,-2
1523209902186341,30,-12,-55,-17,-3,-4,-3,-5
1523209902208402,-125,-14,32,0,-2,-2,-4,7
1523209902208402,71,0,-23,-5,-4,-1,8,-4
1523209902209404,9,23,18,-8,-4,-1,-4,0
1523209902209404,-1,15,-31,1,-2,-3,4,-11
1523209902230463,-15,-16,-61,4,2,3,-2,-5
1523209902230463,59,-8,17,-5,-4,-3,7,1
1523209902231462,-22,7,23,-8,-1,1,-2,-8
1523209902231462,20,-5,8,25,3,1,-1,25
1523209902245500,51,20,-6,-12,-8,-7,-4,11
1523209902245500,-118,-16,70,4,0,-2,-4,-3
1523209902246505,27,23,-46,6,5,3,-1,4
1523209902246505,73,-10,-11,-27,-7,-2,-2,7
1523209902268562,-53,4,3,13,3,2,5,-19
1523209902268562,30,-4,-25,2,1,-2,-1,4
1523209902268562,-22,0,-26,-6,-5,-5,-7,10
1523209902268562,2,-3,-18,0,2,1,1,-17
1523209902290620,68,8,21,0,2,3,0,13
1523209902290620,116,17,-14,0,-4,-2,6,5
1523209902291622,-19,-18,-19,3,0,0,-4,7
1523209902291622,-72,14,41,7,3,2,1,-48
1523209902305658,68,-2,-12,-10,-5,-4,-2,-1
1523209902305658,66,14,32,6,2,3,18,45
1523209902306661,30,-4,1,-7,-4,-2,-7,-44
1523209902306661,-76,-10,-84,-3,-2,-1,-3,8
1523209902328721,-32,-5,24,3,2,0,3,8
1523209902328721,-25,-14,-70,-9,-3,0,-5,-10
1523209902328721,17,-18,-41,-4,-3,-4,-5,2
1523209902328721,-9,-1,22,-1,0,-3,2,9
1523209902350779,-20,9,1,-2,-2,-2,-9,-25
1523209902350779,-89,-6,57,3,2,0,5,1
1523209902351781,0,20,56,7,0,1,0,8
1523209902351781,62,17,-38,-19,-3,0,-1,-1
1523209902365820,15,-1,73,6,1,-2,2,12
1523209902365820,-63,-7,-20,-9,-6,-5,-6,-57
1523209902366821,21,2,32,8,3,0,5,10
1523209902366821,30,-6,-16,3,-2,-1,-1,8
1523209902395903,17,-10,91,5,2,2,0,7
1523209902395903,-13,3,-59,1,1,0,0,16
1523209902402917,33,-32,-77,-19,-10,-6,-6,35
1523209902402917,-23,-5,39,6,-1,-2,-2,-6
1523209902411173,8,9,-29,-5,1,1,-2,-11
1523209902411173,46,-24,-33,4,-1,-4,-7,-2
1523209902411942,-17,11,52,-3,-1,0,1,9
1523209902411942,12,5,-25,1,0,-1,-28,12
1523209902426213,-3,-29,-113,-6,-4,-1,12,-12
1523209902426213,-76,3,49,-3,-1,1,0,5
1523209902426980,45,21,45,-2,-2,-3,-1,11
1523209902426980,-14,3,2,-2,-2,-3,-4,-25
1523209902448080,-6,4,13,3,1,-4,-8,-5
1523209902448080,23,-2,4,2,1,1,0,-2
1523209902449039,-18,1,14,3,2,3,3,43
1523209902449039,-65,-2,-16,4,-2,-3,6,-11
1523209902471333,17,-4,12,-3,0,-2,-1,4
1523209902471333,-34,-9,-49,0,0,1,7,-9
1523209902471333,-14,-20,13,-6,-3,-1,-3,-16
1523209902471333,2,9,26,2,-2,2,6,24
1523209902486154,-44,2,5,-3,-2,-1,-1,-9
1523209902486154,98,2,-33,-7,-1,-3,-7,8
1523209902486154,-120,-14,-12,-4,-3,-1,-6,-55
1523209902486154,9,-7,32,6,1,0,35,-5
1523209902508196,6,16,11,2,3,3,-6,1
1523209902508196,49,0,5,1,-2,2,1,-2
1523209902509200,-43,0,-76,0,-3,-3,-3,-11
1523209902509200,-19,-20,-55,-8,-3,-1,-6,-14
1523209902530274,-21,0,19,0,-1,0,0,10
1523209902530274,-15,13,0,2,-1,-2,6,3
1523209902538276,22,-9,63,-13,-5,-7,-3,28
1523209902538276,-14,5,4,6,1,-1,-6,-13
1523209902545297,-22,-20,-40,-1,0,-2,-3,-19
1523209902545297,68,38,41,6,5,1,-9,-9
1523209902553317,31,2,-48,-4,-4,-3,1,2
1523209902553317,-15,-22,97,7,1,1,-4,12
1523209902568363,25,-8,-37,-13,-7,-3,-1,4
1523209902568363,-119,4,10,1,-1,0,2,-17
1523209902569360,27,-7,-13,-3,-3,-6,-2,8
1523209902569360,32,12,44,1,0,0,-5,-39
1523209902590415,-6,3,-7,12,2,1,28,2
1523209902590415,18,21,29,-7,-3,-1,-5,-5
1523209902591418,8,18,-60,1,2,2,0,10
1523209902591418,10,-23,-49,-5,-5,-3,-3,25
1523209902605455,46,-5,0,-2,0,-2,-10,8
1523209902605455,2,-7,2,1,0,-1,1,0
1523209902606457,28,13,54,1,2,1,8,-7
1523209902606457,-73,-1,71,0,2,-1,-7,-11
1523209902628517,49,-4,-20,1,2,0,-5,12
1523209902628517,-29,-9,37,-7,-4,-1,3,8
1523209902629524,45,-7,-37,4,-1,-1,-10,-36
1523209902629524,57,4,5,6,3,1,2,18
1523209902650575,54,6,105,-4,-3,-3,-2,47
1523209902650575,-72,-10,34,-7,-4,-1,0,-31
1523209902651579,-8,-33,-43,5,3,1,1,0
1523209902651579,21,5,-12,-2,-1,1,0,-1
1523209902664612,-62,-8,-24,-3,-4,-4,-3,8
1523209902664612,25,6,-45,-2,0,-2,-4,7
1523209902673871,51,-13,62,-3,-2,0,1,15
1523209902673871,-56,-6,-59,-6,-5,-5,-7,-61
1523209902688676,-34,8,9,9,4,5,-5,-11
1523209902688676,20,-40,13,-4,-3,-1,-2,2
1523209902688676,19,24,64,-5,-6,-5,-7,21
1523209902688676,3,-4,31,1,1,0,32,17
1523209902710969,-59,-29,-60,-3,-4,-3,-9,-12
1523209902710969,-19,6,67,0,0,0,-1,-8
1523209902711739,21,-5,-95,2,1,1,1,-10
1523209902711739,34,-20,-18,-8,-5,-4,-12,17
1523209902725007,-3,18,17,6,2,0,-1,-11
1523209902725007,11,3,39,4,4,1,7,20
1523209902732793,-128,-22,-17,-4,0,-1,-7,-19
1523209902732793,71,5,5,-1,-2,0,-5,10
1523209902747835,33,-18,-48,-8,-3,-2,-3,25
1523209902747835,-10,-8,-63,-2,-3,-3,-9,-41
1523209902748837,-11,8,89,3,3,0,1,-14
1523209902748837,-13,1,-30,4,1,1,-2,2
1523209902771129,-44,1,29,-1,0,-1,0,-11
1523209902771129,33,10,-32,1,3,0,2,38
1523209902771897,-50,-25,19,-10,-6,-5,-3,-33
1523209902771897,71,4,-41,0,2,1,-32,5
1523209902784932,-70,10,71,-4,0,-2,18,-24
1523209902784932,86,11,-6,-4,-8,-5,-3,20
1523209902793955,-69,0,-21,3,1,6,6,-13
1523209902793955,-3,1,9,4,0,-2,-7,15
1523209902808228,24,8,-12,-3,-2,-1,-5,-8
1523209902808228,-75,-13,2,-1,-5,-5,-6,1
1523209902808995,49,14,41,0,-1,0,3,9
1523209902808995,0,1,6,-5,-2,1,8,16
1523209902831055,-45,-13,38,8,1,0,-8,-60
1523209902831055,15,-25,-85,-1,2,3,11,12
1523209902831055,-1,5,56,-4,-3,-3,-6,27
1523209902831055,-62,14,-25,5,0,-1,5,-9
1523209902845090,49,7,-41,0,-2,-3,-3,13
1523209902845090,-89,-16,-38,2,4,3,-4,-15
1523209902853113,-27,5,-28,6,5,4,0,-1
1523209902853113,57,25,34,-9,-5,-3,0,3
1523209902868154,35,-10,-29,-3,-3,-2,1,24
1523209902868154,22,12,25,-2,-2,-3,-3,3
1523209902869164,41,9,-38,2,0,-3,-2,6
1523209902869164,-51,-7,-3,-1,1,-1,-4,-5
1523209902891215,15,2,-14,3,3,4,32,-2
1523209902891215,-5,9,32,-3,-2,-2,-9,-20
1523209902891215,30,17,-23,-2,-3,-1,-2,-9
1523209902891215,-4,-7,51,-6,-4,-2,-2,8
1523209902905251,90,4,1,-3,-3,-2,-10,55
1523209902905251,-4,-10,15,-5,-3,-4,0,6
1523209902913286,48,8,22,11,6,5,9,4
1523209902913286,-35,-18,-8,4,-1,0,-2,-30
1523209902928313,29,19,-5,-7,0,0,-8,9
1523209902928313,45,1,29,-3,-5,-3,3,10
1523209902929321,-65,-14,-68,0,-2,-4,-8,-12
1523209902929321,87,19,3,5,4,4,6,14
1523209902950372,-22,-10,4,-7,-8,-6,-11,-23
1523209902950372,34,0,-21,1,2,1,1,0
1523209902951375,14,-21,69,-3,-3,-4,-3,-8
1523209902951375,-64,-5,-40,2,-1,0,1,1
1523209902974567,-25,18,29,1,-2,-2,-3,-15
1523209902974567,-6,-19,-29,5,7,2,-1,5
1523209902974567,2,7,-45,-6,-4,-5,-4,-43
1523209902974567,-30,-6,49,-3,-3,-2,3,-1
1523209902988472,20,-10,-73,-14,-8,-7,-14,-8
1523209902988472,58,4,41,-2,-3,-2,0,22
1523209902988472,38,15,11,5,3,2,5,8
1523209902988472,24,-11,-2,-1,-3,-4,-1,0
1523209903010767,-5,-7,-34,0,0,0,-3,-12
1523209903010767,-6,9,-9,-14,-9,-6,-3,-14
1523209903011535,46,14,48,6,3,2,3,10
1523209903011535,-5,-5,-24,2,1,-1,0,-2
1523209903033593,12,2,42,11,5,3,-2,6
1523209903033593,25,-2,28,-5,-3,-2,-4,3
1523209903034596,-26,-8,-51,-13,-5,-3,-5,7
1523209903034596,21,3,-68,-4,-1,0,0,6
1523209903048635,-38,11,51,3,0,1,0,-2
1523209903048635,69,14,11,-2,-4,0,0,17
1523209903048635,3,-21,-14,-2,0,0,-1,-22
1523209903048635,-80,-4,9,-1,-1,-2,-1,-4
1523209903070926,29,-5,-65,1,2,-1,1,-3
1523209903070926,94,0,43,2,3,3,2,8
1523209903071693,-74,-12,-76,-7,-7,-5,-5,-21
1523209903071693,30,-15,-30,-7,-4,-3,-1,3
1523209903093987,-21,0,52,1,0,2,-1,-3
1523209903093987,-114,-18,-89,3,3,-1,-2,-27
1523209903094754,18,6,8,-7,-4,-6,-2,28
1523209903094754,7,14,39,-5,-2,-1,-2,-10
1523209903108848,-48,-25,-10,-5,-3,-4,-5,-7
1523209903108848,51,8,18,9,8,3,1,2
1523209903108848,-104,-8,6,-2,-1,3,2,-15
1523209903108848,105,55,-32,-4,-4,-2,-3,25
1523209903130853,-56,-28,24,-7,-5,-3,-1,-30
1523209903130853,24,6,-58,8,3,1,2,-12
1523209903131854,55,28,-3,-3,-1,-1,1,8
1523209903131854,-19,2,98,-1,-1,-1,0,-13
1523209903153914,45,5,-93,-4,-5,-4,-1,13
1523209903153914,-40,9,13,1,-2,-1,1,-2
1523209903154938,18,-20,44,-1,3,1,-3,-1
1523209903154938,-48,-5,94,5,1,-2,-1,3
1523209903167951,-7,7,6,-3,-1,-1,0,-1
1523209903167951,-80,-14,-6,2,-1,-1,-2,-10
1523209903168952,65,7,32,15,6,6,4,24
1523209903168952,13,-18,-51,-17,-9,-5,-4,-9
1523209903191012,93,12,20,7,4,3,3,43
1523209903191012,-80,9,26,-7,-5,-4,-2,-12
1523209903192013,13,-13,11,0,-1,1,2,6
1523209903192013,-41,-16,-59,3,2,2,-2,-21
1523209903214071,19,16,32,-8,-8,-7,-4,-4
1523209903214071,20,5,50,7,1,-1,-1,6
1523209903215076,-45,-32,-27,-1,-2,-1,2,16
1523209903215076,8,-1,-49,-1,0,0,-3,-28
1523209903228112,46,3,27,7,3,2,0,-6
1523209903228112,-112,-6,-41,-5,-3,-3,-1,-11
1523209903229116,-3,5,21,-6,-3,-3,-1,-3
1523209903229116,80,-17,-31,4,0,-1,3,13
1523209903251170,-78,-31,30,-3,-3,-5,-5,-11
1523209903251170,30,13,61,-5,-2,-1,-3,-10
1523209903251170,67,-17,-102,-6,-4,-2,-3,1
1523209903251170,-44,8,3,2,1,2,2,9
1523209903274466,90,9,50,-2,0,-2,1,6
1523209903274466,26,-25,-34,5,4,1,1,10
1523209903274466,-15,21,48,-8,-3,-4,-5,-1
1523209903274466,-3,-1,53,4,1,4,3,3
1523209903288272,-21,-13,-95,-4,-2,-1,-2,-34
1523209903288272,-9,-33,-37,-4,-3,0,1,7
1523209903289273,-22,11,-2,4,0,-2,-4,-38
1523209903289273,33,-16,32,-3,0,-2,-1,0
1523209903310563,-108,-4,72,-1,-1,0,-4,-37
1523209903310563,-6,6,-62,-10,-7,-7,-6,1
1523209903311330,12,4,60,0,0,-1,-1,-4
1523209903311330,-15,-11,-90,1,0,-2,1,19
1523209903333390,-16,12,66,3,0,0,1,5
1523209903333390,-13,-1,42,2,1,0,-2,-11
1523209903334391,15,6,-32,0,-2,-2,0,-4
1523209903334391,4,30,94,0,-1,1,0,9
1523209903348431,36,1,-65,-5,-6,-4,-3,17
1523209903348431,-17,5,30,6,7,3,3,-9
1523209903349431,30,9,-4,4,1,-1,-26,18
1523209903349431,-24,0,38,3,0,2,16,-9
1523209903370722,59,34,32,-6,-2,0,-3,24
1523209903370722,7,-22,-56,-5,-4,-1,4,39
1523209903371490,58,9,-11,1,0,-2,-3,7
1523209903371490,-1,4,-7,-2,-2,-4,-29,-8
1523209903393783,-9,-10,-26,2,1,2,26,14
1523209903393783,9,20,44,-7,-5,-3,-7,-6
1523209903394551,-23,1,17,-1,-2,-2,6,0
1523209903394551,35,-3,-50,-3,0,1,-3,30
1523209903408824,-38,-18,-32,0,-1,0,-3,-29
1523209903408824,22,15,2,2,0,-4,-29,9
1523209903409628,-1,-14,24,1,-1,3,22,-16
1523209903409628,3,3,50,-4,-2,-3,2,-3
1523209903430649,9,-4,-39,0,1,0,-5,-3
1523209903430649,-14,-8,-5,-1,0,0,-2,-10
1523209903431651,-44,2,-44,1,-1,-4,-33,-16
1523209903431651,-14,-9,-3,4,2,2,20,-16
1523209903453711,6,-12,-31,-6,-1,-2,-9,5
1523209903453711,68,12,12,1,-1,-3,13,22
1523209903454711,-27,0,-49,0,0,1,-1,-37
1523209903454711,33,-13,-53,-5,-2,-2,-6,4
1523209903468748,-112,-8,13,1,0,-1,-3,5
1523209903468748,13,2,-11,3,1,1,7,-5
1523209903468748,-15,9,55,-14,-6,-4,5,11
1523209903468748,1,-2,1,0,0,-2,-3,-6
1523209903490809,15,-4,8,0,-1,-1,3,-4
1523209903490809,-50,-7,-26,4,-1,1,-1,4
1523209903491812,64,15,-6,0,-1,-1,5,11
1523209903491812,-66,-7,80,-6,-6,-5,-3,-42
1523209903513868,4,8,-70,-3,-2,-1,-6,9
1523209903513868,-17,-8,13,8,6,5,6,-6
1523209903514873,45,-15,3,0,-2,1,3,0
1523209903514873,-50,-3,-53,-5,-2,-2,-2,-12
1523209903527908,37,16,-11,0,-2,-5,-6,15
1523209903527908,26,8,-33,-11,-5,-2,-1,-18
1523209903528914,-84,-3,11,6,5,2,6,9
1523209903528914,26,-16,-36,-3,0,1,-3,11
1523209903550968,34,-2,34,0,-1,-2,-4,-16
1523209903550968,-10,-17,76,-7,-4,-5,1,-1
1523209903551971,-18,1,-15,0,2,0,-2,0
1523209903551971,-20,3,-2,7,2,1,1,14
1523209903574268,-4,18,-9,-3,0,3,3,-9
1523209903574268,36,5,37,-6,-6,-7,-7,-43
1523209903575031,-3,-8,-15,4,2,3,3,13
1523209903575031,31,12,20,-5,-2,-2,-5,6
1523209903588065,-14,4,30,3,2,3,2,-3
1523209903588065,-42,-7,77,-3,-3,-4,-6,-4
1523209903589068,-41,-4,-1,-1,-3,-2,2,7
1523209903589068,28,11,-17,-5,-3,-1,-1,-3
1523209903611130,97,-1,20,9,6,3,1,21
1523209903611130,-55,-13,-61,-6,-4,-3,-3,-40
1523209903611130,68,-24,12,-1,-2,-3,-2,1
1523209903611130,-32,0,-39,0,-1,-1,0,18
1523209903634189,51,5,83,7,2,0,-1,-11
1523209903634189,-15,13,-21,3,1,2,1,1
1523209903635198,4,0,17,-14,-8,-7,-1,17
1523209903635198,36,13,20,2,-1,2,0,-5
1523209903647223,-55,-14,-9,2,2,0,0,8
1523209903647223,11,8,-28,-7,-5,-2,0,28
1523209903655244,-86,5,9,4,0,-1,-1,-14
1523209903655244,47,3,57,4,0,0,0,2
1523209903671392,-41,-13,-25,1,0,2,0,0
1523209903671392,19,-4,-2,-10,-6,-2,1,8
1523209903671392,-84,-4,-41,-3,-1,-1,-2,0
1523209903671392,74,-13,-40,-6,-2,-6,-5,4
1523209903694352,-72,5,-23,-6,-7,-5,-7,-16
1523209903694352,-16,-11,33,3,0,-1,-2,2
1523209903695355,72,12,26,3,1,1,1,-15
1523209903695355,-44,-11,-80,-4,-3,-3,0,-6
1523209903707385,40,4,16,3,-2,-3,-1,8
1523209903707385,2,19,-33,-6,0,-1,0,8
1523209903715405,-40,-9,-66,-4,-5,-6,-3,-13
1523209903715405,-51,1,45,5,3,0,1,12
1523209903730445,58,13,-13,-3,-1,-2,-3,3
1523209903730445,38,-16,1,1,0,0,-1,-16
1523209903731449,60,10,41,6,4,4,2,15
1523209903731449,-50,0,18,-4,-3,-2,-2,-19
1523209903753505,-29,-15,-16,0,-4,-5,-1,-2
1523209903753505,-29,2,-10,2,5,4,1,26
1523209903754508,82,12,17,-3,-4,-3,-5,2
1523209903754508,54,-11,-37,1,2,4,-1,4
1523209903767542,-32,-1,22,5,3,1,2,-8
1523209903767542,10,-2,15,-6,-5,-2,0,7
1523209903775798,-20,-7,-53,4,4,3,3,1
1523209903775798,59,11,32,2,0,1,0,-9
1523209903790606,-83,-7,-26,-10,-6,-4,-3,4
1523209903790606,67,-17,4,0,-2,-1,0,-10
1523209903791608,-3,3,-6,-5,-3,-2,0,8
1523209903791608,52,3,31,5,1,1,4,15
1523209903813665,62,0,-19,-9,-1,-4,-2,-3
1523209903813665,5,13,-1,4,-1,-2,-1,-5
1523209903814670,-48,10,27,2,0,1,1,-5
1523209903814670,-5,-6,-17,-12,-4,-2,-2,-11
1523209903827701,24,-1,35,-2,-2,-1,1,10
1523209903827701,-28,7,-12,3,1,1,0,-5
1523209903835722,69,11,19,10,4,0,1,12
1523209903835722,-78,-25,24,-10,-8,-6,-5,-8
1523209903850764,-24,-10,-48,-5,-2,2,1,1
1523209903850764,1,6,6,-5,-5,-4,-2,-5
1523209903851768,-69,-18,10,9,4,1,2,1
1523209903851768,-18,-7,68,6,0,0,-1,3
1523209903874060,29,8,-61,-9,-2,0,1,-4
1523209903874060,15,-35,21,0,-1,-2,-5,0
1523209903874828,12,36,2,-4,-2,-2,0,0
1523209903874828,-79,-7,-3,0,-1,-2,-1,10
1523209903887862,12,6,-48,-1,2,2,-1,-4
1523209903887862,3,37,37,7,2,2,3,4
1523209903895888,43,-32,-20,-9,-6,-4,-3,8
1523209903895888,60,47,1,-13,-11,-8,-10,13
1523209903910923,14,-4,7,4,1,-1,10,-4
1523209903910923,-12,5,-1,2,1,0,0,2
1523209903911932,-29,-5,77,4,1,0,-2,-4
1523209903911932,53,8,-76,-8,-2,-2,0,15
1523209903933984,-7,0,31,-1,-2,-2,0,4
1523209903933984,61,-10,-21,5,5,3,-30,-4
1523209903934988,29,26,1,-14,-8,-2,32,4
1523209903934988,48,-22,-48,11,3,0,-29,-4
1523209903948022,-31,35,69,1,-1,2,22,-8
1523209903948022,19,-13,-56,-9,-4,-4,-4,1
1523209903956045,5,-14,-9,2,0,0,-7,-5
1523209903956045,-29,-13,-26,1,-1,-1,1,-15
1523209903971318,7,-36,1,4,2,2,-5,-3
1523209903971318,-63,5,40,-4,-1,-2,8,-2
1523209903971318,13,-26,-91,-5,-3,-1,-7,18
1523209903971318,-113,-8,79,2,1,-1,9,-35
1523209903994147,10,-8,-10,1,0,-4,-11,6
1523209903994147,-17,-4,-68,0,0,0,5,-6
1523209903995162,-19,2,9,-8,-5,-5,-8,2
1523209903995162,16,5,6,6,4,3,5,5
1523209904016203,-46,-9,1,-1,-2,-2,-3,-15
1523209904016203,-69,-10,4,7,0,1,-2,-58
1523209904017206,81,21,50,-3,-2,-2,4,0
1523209904017206,-32,-3,9,4,4,4,4,0
1523209904030242,-1,-2,-29,-5,-1,0,-7,2
1523209904030242,-20,-4,-33,-3,-2,0,6,9
1523209904031245,-24,-7,70,7,2,1,-7,-14
1523209904031245,6,-29,-56,-1,-2,0,5,4
1523209904054345,6,-13,22,4,0,0,-5,0
1523209904054345,105,31,-15,-9,-5,-4,0,18
1523209904054345,-53,-4,1,-2,-4,-3,-5,-17
1523209904054345,33,3,-41,-3,0,0,2,12
1523209904076598,2,-3,-26,-1,-3,-4,-6,3
1523209904076598,56,10,30,1,-1,1,-6,32
1523209904077366,-33,-3,-54,1,0,2,20,-2
1523209904077366,79,13,-45,-1,-1,-2,-3,-4
1523209904090636,-83,-14,36,-9,-5,-4,-6,-7
1523209904090636,-23,1,31,1,-2,1,4,10
1523209904091402,-19,-19,-27,8,7,4,-8,-4
1523209904091402,-25,5,-10,-19,-11,-7,-4,-9
1523209904113492,22,-8,-39,-3,1,-1,5,7
1523209904113492,16,6,83,2,0,-2,-3,-2
1523209904114465,-81,-17,-26,5,3,3,-2,16
1523209904114465,-53,-19,44,7,0,2,6,-10
1523209904136524,12,-8,-60,-17,-10,-7,-10,2
1523209904136524,-8,5,-10,0,-1,-2,2,-6
1523209904137526,8,8,-2,1,-1,-3,-4,3
1523209904137526,-41,-9,-53,3,6,3,4,-8
1523209904150561,82,13,50,4,0,0,-1,30
1523209904150561,39,25,-35,4,-1,0,2,-19
1523209904151563,8,-12,33,-5,-2,-1,-2,-11
1523209904151563,-85,3,33,5,0,-1,-1,14
1523209904174624,-11,-10,-8,1,1,0,0,-12
1523209904174624,-17,-1,55,-7,-6,-6,0,0
1523209904174624,42,3,-54,-2,-2,-1,-7,-5
1523209904174624,47,21,55,3,0,0,3,5
1523209904196684,40,6,-27,-7,-3,0,-5,-3
1523209904196684,-10,3,7,3,-1,-2,0,3
1523209904196684,-41,-1,-15,3,3,2,0,-10
1523209904196684,108,19,57,-3,-3,-4,-5,18
1523209904210723,-7,0,15,4,0,-1,0,-9
1523209904210723,-58,-8,46,-2,0,0,2,-1
1523209904211728,25,1,23,-6,-2,0,2,48
1523209904211728,-55,-19,-22,-2,-2,-4,-3,-62
1523209904233815,-5,15,44,9,6,5,4,4
1523209904233815,67,-16,-89,-5,1,-1,-4,7
1523209904234785,-28,15,72,-1,-3,-3,4,8
1523209904234785,-69,-7,7,-7,-6,-4,-6,9
1523209904256844,-106,14,-19,-6,-6,-4,-6,-26
1523209904256844,-64,-31,5,9,6,4,5,4
1523209904256844,67,-10,-14,2,1,-1,-8,-18
1523209904256844,-50,2,-13,3,0,1,2,8
1523209904271115,51,-3,-74,-7,-4,-2,-1,-3
1523209904271115,-13,-2,19,2,-2,-2,1,-1
1523209904271882,4,-9,28,2,2,0,-3,-3
1523209904271882,20,1,27,-14,-6,-2,1,-8
1523209904293942,76,-10,40,-1,-2,-3,0,12
1523209904293942,-8,-5,-47,6,6,3,-2,-7
1523209904294949,2,-3,-27,-4,-3,-2,-4,-12
1523209904294949,23,12,-14,4,1,0,2,5
1523209904316001,-88,5,42,-3,-2,0,-3,-14
1523209904316001,71,-22,-3,-8,-5,-5,-1,35
1523209904317004,-78,9,2,2,-2,-6,-4,-45
1523209904317004,-53,-24,-10,-6,-4,-3,-8,-27
1523209904330325,-32,5,5,5,-1,-1,-1,3
1523209904330325,-12,-14,-17,4,0,-1,-3,-2
1523209904331325,11,-5,-7,-5,0,4,7,9
1523209904331325,127,12,18,1,-2,0,0,30
1523209904353422,3,11,39,3,-1,-1,2,-13
1523209904353422,-33,-22,-44,-10,-3,-1,-7,-9
1523209904354386,32,2,0,-1,-2,-3,-18,5
1523209904354386,-57,0,-22,6,5,6,18,-7
1523209904376445,-20,-16,-43,3,3,-1,-11,2
1523209904376445,34,10,44,6,4,5,8,2
1523209904377451,-14,4,-91,-14,-5,-3,-7,-13
1523209904377451,-35,3,0,8,4,1,-2,-2
1523209904390483,14,-5,4,-11,-8,-3,2,25
1523209904390483,-69,13,-25,3,1,-1,-3,-8
1523209904391485,-16,-10,34,-2,-2,-1,6,-5
1523209904391485,44,-16,-59,-8,-5,-4,-5,4
1523209904413545,12,3,10,6,4,1,7,16
1523209904413545,-39,-25,15,-7,-4,-5,-28,-21
1523209904414551,37,24,-14,-5,-7,-6,27,1
1523209904414551,17,-35,-15,2,2,2,-2,16
1523209904436605,54,19,12,-7,-3,-2,-8,-35
1523209904436605,3,13,18,-3,-3,-2,0,-1
1523209904437607,8,5,-20,6,3,2,-5,2
1523209904437607,-74,8,110,5,0,0,-2,-16
1523209904450643,16,-9,42,-4,-2,-1,8,17
1523209904450643,-30,11,5,-9,-4,-5,-1,-4
1523209904451645,86,-9,-2,5,5,8,2,4
1523209904451645,14,13,68,4,-1,-4,1,-15
1523209904473939,40,14,31,-4,-5,-3,-8,1
1523209904473939,-6,-5,-25,-3,-4,-1,10,3
1523209904474706,2,-3,4,6,3,2,-3,5
1523209904474706,-1,-20,-12,-8,-3,0,-4,-4
1523209904496766,32,11,-24,2,1,-1,-1,-6
1523209904496766,75,14,-25,-2,-2,-3,3,-5
1523209904496766,-98,-14,-39,-6,-2,-2,-3,-9
1523209904496766,-9,15,50,-1,-2,1,-1,42
1523209904510806,-69,-3,75,-4,-2,-5,1,-7
1523209904510806,94,12,-52,3,4,4,6,20
1523209904511811,5,-14,9,5,1,2,-5,4
1523209904511811,4,28,-29,0,0,-2,2,13
1523209904533863,-10,-39,-46,-12,-4,-2,-9,-11
1523209904533863,22,-2,14,4,-3,1,2,0
1523209904534866,-51,-23,38,-4,-4,-4,-1,-19
1523209904534866,18,7,-17,1,1,-1,-5,5
1523209904557023,54,14,-65,21,11,8,6,-1
1523209904557023,-46,-16,62,-16,-10,-7,-2,-14
1523209904557023,56,14,-29,-8,-3,-2,-1,5
1523209904557023,54,-39,11,-8,-4,-3,-4,-12
1523209904570197,8,6,2,12,5,2,1,-5
1523209904570197,-35,-5,-82,9,6,2,3,0
1523209904578274,7,32,80,-12,-7,-1,-5,2
1523209904578274,-85,-18,-68,-5,-4,-5,-3,-11
1523209904594311,3,-3,-42,1,1,1,4,3
1523209904594311,-67,10,24,0,1,-2,-5,-21
1523209904594311,9,-23,0,3,0,-1,-1,-2
1523209904594311,36,5,-26,3,5,2,1,-9
1523209904616370,-19,-3,-1,-12,-11,-8,-5,20
1523209904616370,-58,20,35,7,1,2,5,6
1523209904617371,-11,-18,-22,-6,-1,-3,-22,1
1523209904617371,21,17,-32,1,2,3,20,-4
1523209904630408,-91,-18,55,7,3,4,0,8
1523209904630408,63,4,-1,-9,-7,-5,-3,5
1523209904638428,6,6,-1,5,3,1,1,24
1523209904638428,46,15,16,3,-2,-3,-10,-7
1523209904653507,18,2,-12,-11,-3,-2,2,-12
1523209904653507,10,11,-6,1,0,-1,-3,-18
1523209904654470,21,9,17,-3,-3,-2,-13,-3
1523209904654470,9,3,-2,-3,-1,-1,10,8
1523209904676559,-5,-11,-12,7,2,1,3,-11
1523209904676559,12,-6,-28,-6,-4,-2,-10,-11
1523209904677532,40,22,65,0,2,1,7,8
1523209904677532,53,-3,-23,-6,-3,-3,-7,13
1523209904690668,-85,-8,15,4,-1,-1,-5,-67
1523209904690668,21,-6,34,5,2,2,1,14
1523209904698587,63,-1,0,-8,-4,-2,6,0
1523209904698587,-97,-27,-16,1,-2,-3,-7,-12
1523209904713627,33,5,17,-4,0,-1,1,17
1523209904713627,5,9,49,1,1,0,2,-5
1523209904714629,-59,-31,25,1,0,0,4,-38
1523209904714629,-19,-15,-17,-9,-5,-6,-34,6
1523209904736689,72,13,3,1,0,1,27,2
1523209904736689,-47,-14,29,-5,-5,-4,-2,-13
1523209904737690,12,-1,-17,1,0,-1,2,9
1523209904737690,-61,2,-37,0,2,2,-24,-3
1523209904749724,-1,6,49,-4,-2,-1,11,5
1523209904749724,66,-16,-105,0,2,3,-2,10
1523209904758914,-24,7,-10,-6,-6,-7,2,-46
1523209904758914,52,-12,26,4,-1,1,0,1
1523209904774022,9,1,4,-2,1,-1,-7,5
1523209904774022,-20,1,-27,-6,-1,-1,4,14
1523209904774790,-6,-8,-22,-5,-5,-5,-11,16
1523209904774790,19,8,15,3,1,2,13,-12
1523209904796848,-21,-24,44,4,1,0,-6,13
1523209904796848,-28,-28,-7,-3,-1,1,1,-7
1523209904796848,-4,-8,-10,1,-1,-4,-2,2
1523209904796848,97,27,38,2,1,-1,7,5
1523209904809883,-83,-20,11,0,0,-1,-1,6
1523209904809883,33,13,25,-1,-1,-3,-8,-34
1523209904818911,-6,11,-25,3,1,0,5,20
1523209904818911,-66,-5,34,-7,-2,1,9,-13
1523209904833981,-3,4,-55,2,0,-1,-12,8
1523209904833981,23,9,30,3,3,1,3,3
1523209904834950,-15,-23,-24,2,-1,1,3,11
1523209904834950,33,-4,71,2,1,1,2,4
1523209904857113,-59,6,7,-9,-6,-2,-4,-16
1523209904857113,-24,-8,1,2,-1,-1,1,21
1523209904857113,1,20,32,9,4,3,2,0
1523209904857113,22,1,-6,-7,-8,-5,2,-1
1523209904870278,20,4,-25,0,-1,-1,-9,4
1523209904870278,7,-5,64,-4,-3,-2,-1,-18
1523209904878070,-50,2,-37,1,-1,0,1,7
1523209904878070,54,5,-15,7,3,1,-1,27
1523209904894111,64,-2,-10,-6,-6,-3,-1,7
1523209904894111,-46,8,-26,0,-1,0,1,4
1523209904895115,44,3,9,-6,-1,-2,-2,-12
1523209904895115,-8,-4,19,2,0,0,1,9
1523209904916166,24,2,-7,4,1,1,-2,2
1523209904916166,-10,-1,-5,2,0,-1,1,6
1523209904917169,-7,-10,46,2,1,1,1,-11
1523209904917169,-44,6,-101,-4,-3,-2,-1,-10
1523209904939462,68,15,-23,-5,-4,-4,-6,-1
1523209904939462,56,5,4,1,0,-2,-2,12
1523209904939462,-34,-5,-33,0,1,1,0,0
1523209904939462,34,7,27,1,3,1,3,5
1523209904954267,-57,7,-25,0,0,-1,-1,11
1523209904954267,-55,-8,-37,-2,-5,-5,-5,21
1523209904954267,5,-8,14,4,2,-1,0,-17
1523209904954267,-45,5,46,-12,-6,-4,-21,-7
1523209904976331,53,6,6,-5,-2,-1,10,12
1523209904976331,51,6,0,0,0,0,-5,9
1523209904978335,-88,1,42,7,0,1,11,-7
1523209904978335,11,-6,-105,-4,-1,-2,-14,-12
1523209904998384,93,-3,8,1,2,2,-2,-11
1523209904998384,-82,-19,31,1,-2,0,4,-10
1523209905000390,103,-6,-18,-3,-3,-1,-11,15
1523209905000390,-39,2,2,-2,-3,-2,8,-35
1523209905012420,-77,-8,-6,3,0,-2,-5,-8
1523209905012420,15,-20,-22,-4,0,0,5,-1
1523209905021445,8,-5,-14,-5,-3,-2,-4,10
1523209905021445,-5,-5,18,-2,-1,1,8,14
1523209905036486,23,-4,11,-2,-4,-3,2,-23
1523209905036486,6,12,-9,3,1,-1,-4,3
1523209905038490,-7,1,-5,-5,-5,-4,-2,4
1523209905038490,-4,17,9,9,3,1,8,-4
1523209905058779,37,-9,3,-1,-1,0,-8,-5
1523209905058779,-30,-6,43,-4,-1,0,2,11
1523209905060554,-9,11,2,-1,0,1,1,-4
1523209905060554,-31,-10,-96,-9,-4,-4,3,12
1523209905072816,-8,8,14,3,1,2,1,9
1523209905072816,-4,6,8,4,4,3,0,-6
1523209905081604,27,10,3,-7,-3,-3,2,33
1523209905081604,8,-3,-17,-1,-2,-3,-12,-11
1523209905096647,-46,-23,0,7,2,2,23,-1
1523209905096647,19,3,-69,-14,-10,-5,-6,-13
1523209905097647,-25,-9,65,-4,0,-1,-14,30
1523209905097647,80,9,65,1,0,1,9,-17
1523209905118939,-108,-24,-99,-15,-8,-7,-3,-8
1523209905118939,53,23,38,10,4,2,-1,8
1523209905120709,27,3,-11,9,2,0,0,-27
1523209905120709,-38,-8,-4,-9,-5,-2,3,5
1523209905132741,41,-1,35,2,1,-1,-12,20
1523209905132741,61,6,5,0,0,-1,-1,-11
1523209905141766,-72,-4,-31,-6,-5,-3,0,-18
1523209905141766,-7,-1,46,11,4,2,-5,4
1523209905157013,-12,-25,-3,-1,1,1,-1,-14
1523209905157013,-33,1,-41,-7,-5,-5,-1,-3
1523209905157807,46,16,2,3,2,2,2,27
1523209905157807,14,1,-20,1,0,-4,0,9
1523209905178870,23,19,12,0,-1,1,1,12
1523209905178870,-6,-8,-77,1,2,-1,0,-5
1523209905180868,51,7,54,-4,-5,-5,-1,-14
1523209905180868,-62,-10,22,-2,-2,-2,-1,9
1523209905192901,52,32,-37,4,0,-1,-5,4
1523209905192901,29,-17,19,-1,-6,-4,-3,-44
1523209905199918,-83,-9,-31,-1,-1,-3,-16,-13
1523209905199918,-5,-25,27,-4,-1,-1,-5,-7
1523209905215964,55,14,12,0,-3,-5,24,-10
1523209905215964,-60,5,78,2,2,4,-3,14
1523209905217967,-1,1,-104,-11,-7,-6,0,-38
1523209905217967,12,7,39,8,3,2,-6,-2
1523209905239258,-11,-7,31,-4,-1,0,-10,12
1523209905239258,46,-2,-2,-3,-2,-3,2,-10
1523209905240027,77,-22,40,3,2,3,4,4
1523209905240027,-58,4,-37,0,1,-1,0,-6
1523209905253061,3,-1,-53,-4,-5,-2,-6,7
1523209905253061,7,7,-23,5,2,1,1,12
1523209905260078,4,13,2,-6,-2,1,-1,-6
1523209905260078,38,-9,-54,-1,-1,-1,3,-14
1523209905276122,-128,-2,9,3,-2,-1,-5,11
1523209905276122,71,-4,31,4,3,1,0,2
1523209905278132,-34,-14,-61,-11,-4,-3,0,-1
1523209905278132,-38,4,20,1,-1,-1,-3,17
1523209905299184,31,-11,41,1,3,3,22,-20
1523209905299184,13,12,-30,0,-1,-2,16,16
1523209905300186,40,2,35,6,2,2,0,-3
1523209905300186,23,-6,-13,-4,-3,-1,1,4
1523209905313220,4,-1,80,-4,-2,-2,-14,-6
1523209905313220,-11,-4,-24,-1,-1,0,-6,-6
1523209905320475,21,14,6,8,4,1,9,12
1523209905320475,34,14,68,-7,-5,-4,-7,5
1523209905336283,38,30,-44,-3,-3,-3,-5,-51
1523209905336283,-102,-18,36,-2,-3,-3,-3,3
1523209905338287,19,14,-17,-3,-4,-3,-4,3
1523209905338287,-35,2,28,10,5,3,0,-2
1523209905359366,36,-20,-3,-7,-3,-2,-5,-3
1523209905359366,-29,-9,0,1,1,2,0,26
1523209905360349,25,12,-10,-4,-3,-3,-9,-44
1523209905360349,13,-5,-26,-3,-1,0,3,-7
1523209905372612,-47,-8,9,-1,-2,-2,-2,12
1523209905372612,52,-23,-48,-7,-3,-2,-1,-1
1523209905381402,-72,-11,8,-3,-1,2,-2,11
1523209905381402,90,-13,-40,-4,-2,-3,3,6
1523209905396448,-81,1,-17,-1,-3,-1,-10,-32
1523209905396448,46,18,5,5,-1,-1,-5,1
1523209905398447,-50,-10,34,-3,-2,-3,-26,1
1523209905398447,56,13,5,-1,-1,-2,24,-29
1523209905419541,92,12,7,3,2,0,-8,23
1523209905419541,-79,-18,19,-9,-3,-1,1,8
1523209905420506,-14,10,17,-1,-3,-2,1,2
1523209905420506,-29,1,2,1,-1,0,-9,2
1523209905432538,-36,2,0,6,2,0,-3,12
1523209905432538,41,21,58,-4,-3,-2,1,-11
1523209905441561,-43,-18,-44,-4,-2,-1,1,8
1523209905441561,-21,-31,-18,-1,-1,0,-3,-3
1523209905456836,25,-9,12,1,0,2,7,15
1523209905456836,26,9,-19,-6,-3,-4,-8,-12
1523209905457847,4,5,-15,6,3,3,9,8
1523209905457847,-33,-37,-65,2,-1,-4,-4,-19
1523209905478676,-105,-3,24,-9,-6,-2,-5,-3
1523209905478676,-35,0,34,0,0,0,-1,-9
1523209905480665,27,-6,-62,1,0,0,5,14
1523209905480665,48,33,68,-3,-1,-1,1,47
1523209905492697,-32,5,-30,0,0,-1,-6,-28
1523209905492697,7,-2,15,0,-3,0,-2,-2
1523209905501724,-10,6,25,5,3,1,-12,2
1523209905501724,-18,4,-55,0,2,0,25,1
1523209905516763,37,13,26,-3,1,2,1,18
1523209905516763,51,-3,-23,2,-3,-6,-8,8
1523209905517764,-21,3,20,-3,0,0,3,-12
1523209905517764,9,6,-7,-6,-6,-2,-9,1
1523209905539055,94,2,-33,5,3,-1,0,8
1523209905539055,-28,12,74,12,7,7,9,-9
1523209905540827,72,-11,-74,-7,-8,-6,-1,-1
1523209905540827,-31,-17,57,1,1,-1,-8,-18
1523209905552859,37,-10,-14,-5,-4,-4,3,4
1523209905552859,-87,2,2,4,4,1,-36,1
1523209905561885,-87,-22,-11,4,1,1,36,-15
1523209905561885,41,52,27,-7,-5,-1,-7,-24
1523209905576927,-17,-9,-49,6,3,1,-3,2
1523209905576927,16,-23,-99,-16,-7,-6,-4,3
1523209905577929,26,7,90,2,0,0,-2,-10
1523209905577929,-50,-22,-46,-5,-4,-2,-3,-3
1523209905598980,43,-17,19,-4,-5,-3,-1,13
1523209905598980,-11,2,-60,3,2,2,6,-19
1523209905600985,13,8,21,-4,-4,-3,-4,8
1523209905600985,56,6,-22,3,4,4,-1,10
1523209905613018,-7,-6,-1,-3,-2,-1,-4,1
1523209905613018,76,-8,-68,1,1,3,10,2
1523209905621273,91,0,6,-3,-2,-3,-6,15
1523209905621273,-45,-2,6,5,1,-1,-7,1
1523209905636080,-61,0,-9,-2,-2,0,-2,-5
1523209905636080,-5,-19,22,-1,-1,-1,4,-3
1523209905638084,10,6,42,3,4,1,0,13
1523209905638084,-17,-13,-81,-11,-8,-9,-27,-76
1523209905659139,-19,6,-10,-5,-1,-1,19,10
1523209905659139,-24,-16,14,-4,-3,-1,-1,7
1523209905660145,14,-1,-33,4,3,3,-2,-16
1523209905660145,-97,-15,33,-2,-3,-3,-5,30
1523209905673216,44,2,29,3,3,0,-3,0
1523209905673216,-55,0,-67,-2,0,-2,-1,-10
1523209905681198,-39,10,21,-3,1,-1,-4,-31
1523209905681198,26,-12,-20,2,2,4,11,18
1523209905696244,-50,-4,13,2,-3,-4,-8,18
1523209905696244,-12,11,-6,-3,-5,-3,2,9
1523209905698243,16,-11,-46,-15,-8,-4,-5,10
1523209905698243,-30,9,42,0,-1,-2,3,27
1523209905719540,-6,-6,33,4,2,1,-1,-52
1523209905719540,15,4,13,-2,0,-3,-4,4
1523209905720302,8,2,17,3,-1,-1,-1,13
1523209905720302,44,-1,12,0,-2,-2,4,3
1523209905732334,67,0,19,2,1,2,-2,10
1523209905732334,-67,7,-51,-6,-2,0,-1,-3
1523209905741359,34,0,26,-3,-3,-1,0,-3
1523209905741359,-21,-10,12,0,2,1,3,-6
1523209905756634,31,5,4,3,2,0,0,18
1523209905756634,59,10,48,-1,-2,-2,2,-4
1523209905758405,-34,-3,-27,2,3,0,1,-2
1523209905758405,-21,8,38,-3,-4,-2,-5,-30
1523209905778459,12,4,17,-5,-3,-3,-32,-3
1523209905778459,-2,4,-3,1,0,1,32,21
1523209905780461,2,-4,24,-4,-4,-3,-5,-35
1523209905780461,18,21,-41,6,3,1,1,17
1523209905792495,-48,-4,-42,-2,-1,2,-1,-7
1523209905792495,42,-16,15,-3,-3,-2,-9,5
1523209905801518,-1,20,36,8,3,4,3,13
1523209905801518,10,-8,-17,-1,0,-2,-15,3
1523209905816557,-12,-2,-1,-8,-4,-4,28,9
1523209905816557,22,3,43,-7,-5,-6,-13,-4
1523209905818687,-20,-14,-27,10,5,3,4,13
1523209905818687,2,-17,2,-5,-4,-1,-2,11
1523209905838617,-26,1,-41,-2,1,3,1,30
1523209905838617,20,-4,-46,3,1,2,-5,-42
1523209905840623,-24,-13,-41,-7,-3,-3,-1,15
1523209905840623,46,17,30,5,2,0,5,20
1523209905861705,26,1,-17,-7,-4,-4,-5,-53
1523209905861705,7,12,56,11,2,1,2,13
1523209905862681,29,1,4,-5,-1,0,-1,2
1523209905862681,-10,-7,46,-4,-4,-2,1,-25
1523209905876719,-3,-2,-49,1,-1,-2,1,5
1523209905876719,-33,11,47,1,0,-2,-7,-2
1523209905877724,-34,-7,23,7,3,0,1,-14
1523209905877724,75,17,22,0,-1,0,2,4
1523209905898777,29,-14,14,-7,-3,-3,-19,5
1523209905898777,-109,-5,28,-2,-3,-1,28,-61
1523209905900782,-64,-8,-54,-1,-3,-4,-5,16
1523209905900782,-34,9,-36,1,1,2,4,-24
1523209905922036,-17,1,21,2,-1,1,-5,-2
1523209905922036,22,9,-4,-2,1,-1,-9,9
1523209905922841,23,-12,-27,-7,-3,-3,-1,-3
1523209905922841,-16,-8,-45,-5,-4,-3,2,2
1523209905935875,-9,7,-1,-2,-3,-1,0,-14
1523209905935875,-5,-11,-29,-3,-2,0,-4,-3
1523209905937879,-23,15,18,7,2,-3,-19,14
1523209905937879,9,3,2,-8,-3,-2,12,0
1523209905958936,15,4,35,5,1,2,4,5
1523209905958936,61,-14,-28,-4,-3,-2,0,25
1523209905960946,1,-5,20,-1,-1,1,-7,-11
1523209905960946,31,-1,4,-2,-2,0,-1,42
1523209905980995,-6,-1,-17,-6,-5,-5,0,-15
1523209905980995,-15,0,13,3,2,1,-3,6
1523209905982999,24,-2,-67,-4,-4,-4,3,-7
1523209905982999,36,6,23,0,1,1,-3,15
1523209905996037,-80,-32,3,-3,-1,1,8,-5
1523209905996037,59,6,-6,2,0,-3,-13,-28
1523209906002050,11,-4,-70,-5,-2,-2,5,5
1523209906002050,-39,7,4,3,2,-2,-2,-28
1523209906019331,20,-43,-7,10,4,4,1,18
1523209906019331,-96,-21,10,-11,-9,-4,-5,6
1523209906021140,-11,-12,-28,-1,-1,0,1,2
1523209906021140,11,-5,9,1,-1,-2,-4,-15
1523209906041155,-19,22,6,7,1,-1,1,3
1523209906041155,-3,-12,22,-5,-2,-4,-2,12
1523209906043162,2,3,32,1,-1,1,3,-3
1523209906043162,-43,-9,10,3,0,-1,-5,7
1523209906055191,10,12,0,-4,-3,-1,-3,5
1523209906055191,-27,-1,-31,-5,-4,-2,-7,6
1523209906062215,-40,0,17,-5,-5,-2,-12,-4
1523209906062215,43,-2,-2,6,3,3,12,31
1523209906079256,-7,21,-4,-3,-2,-2,-1,-22
1523209906079256,22,5,-14,2,0,-2,-4,-2
1523209906080259,-40,-7,17,-2,-2,-1,-7,-18
1523209906080259,-4,-16,-53,-3,-3,-4,-3,15
1523209906101315,25,6,75,-3,-2,-1,-1,2
1523209906101315,-29,-2,-58,-6,-1,-1,-4,-8
1523209906103319,58,-6,34,5,3,1,5,-6
1523209906103319,-91,-18,26,1,2,-2,-4,-62
1523209906115351,-35,6,13,-3,-3,-4,0,-3
1523209906115351,-18,21,48,3,1,3,2,5
1523209906122606,-53,-11,-16,-6,-9,-7,4,-3
1523209906122606,-33,-9,17,3,3,4,-2,-7
1523209906139539,26,23,-27,2,0,0,-3,8
1523209906139539,2,4,77,3,1,1,2,-37
1523209906140417,-18,-18,-98,-1,0,-1,-3,-8
1523209906140417,-33,21,58,-9,-8,-4,-5,4
1523209906161480,19,-14,-3,-2,0,0,2,1
1523209906161480,16,-4,5,1,0,0,2,17
1523209906162477,36,16,28,2,1,2,4,8
1523209906162477,62,-4,-40,6,2,0,-24,-9
1523209906175512,-74,-11,-38,-5,-5,-3,26,-11
1523209906175512,77,17,22,-1,-3,0,-3,13
1523209906182531,-8,-17,-43,4,-1,-1,-1,5
1523209906182531,-41,-28,-11,-5,-4,-2,-3,8
1523209906198573,87,15,-12,1,1,2,-6,8
1523209906198573,-12,-6,-3,4,1,0,2,52
1523209906200586,70,25,110,6,4,2,2,-5
1523209906200586,-73,-1,7,-3,-3,-2,6,5
1523209906221869,32,-8,-46,-8,-3,-4,-8,-4
1523209906221869,-51,-8,-10,0,0,-1,4,1
1523209906223658,31,-10,6,-3,-2,1,-1,3
1523209906223658,68,14,-18,4,2,-2,4,16
1523209906235672,-65,-1,39,1,0,1,-4,-12
1523209906235672,38,-18,-18,-2,-3,-5,-13,1
1523209906242694,-32,9,53,-1,0,2,7,-4
1523209906242694,55,1,-34,-2,0,1,1,-7
1523209906258733,-25,8,-19,-1,-1,-2,3,17
1523209906258733,3,-2,-47,-5,-2,0,-5,-16
1523209906260743,22,1,32,1,-1,-1,-1,32
1523209906260743,-2,17,16,-4,-4,-3,2,-30
1523209906281833,19,-21,0,0,-2,-3,-14,9
1523209906281833,63,12,1,0,0,1,6,0
1523209906282797,13,7,-20,-6,-3,-3,-1,-49
1523209906282797,16,-11,13,0,-2,-1,1,28
1523209906295831,-6,-4,5,1,1,2,1,-8
1523209906295831,-5,7,22,6,1,-1,2,3
1523209906302851,-19,13,-69,-9,-4,-2,0,-23
1523209906302851,-44,-8,-2,-3,-2,-1,-5,-9
1523209906319128,3,-12,1,4,3,0,-3,-10
1523209906319128,-16,0,15,1,0,2,3,15
1523209906320897,-4,10,8,-3,-2,-4,-4,-6
1523209906320897,2,-5,11,-6,-3,-6,-4,-5
1523209906340953,30,8,-6,5,1,-3,0,19
1523209906340953,-102,-27,-24,7,5,5,2,-9
1523209906342959,23,-15,-52,-6,-4,-1,-2,5
1523209906342959,59,5,7,-6,-2,-1,-2,-2
1523209906354990,31,7,-49,-11,-7,-6,-3,-2
1523209906354990,21,-1,26,2,0,-1,-1,-12
1523209906364012,-40,9,18,3,-1,-1,-14,2
1523209906364012,93,3,-73,4,3,5,30,29
1523209906379054,-52,-33,-83,-5,-2,0,-8,-1
1523209906379054,16,11,10,-5,-4,-1,0,1
1523209906380056,-58,0,-22,1,0,-3,-1,15
1523209906380056,5,19,-33,-5,1,1,-2,44
1523209906401112,31,6,27,0,-3,-2,-2,-78
1523209906401112,-93,1,-6,2,0,0,3,2
1523209906403117,91,-4,54,-4,-1,-1,0,9
1523209906403117,-49,-10,-77,-3,-3,-3,-9,-26
1523209906415378,65,6,53,2,0,2,6,24
1523209906415378,-74,-30,-68,-2,-2,-4,-5,-7
1523209906424172,25,0,106,4,0,-1,6,14
1523209906424172,-28,15,-1,-11,-7,-4,-9,-46
1523209906439448,17,8,14,-1,-1,-2,-2,14
1523209906439448,20,-4,-5,-7,-3,-3,0,4
1523209906440216,-23,4,42,0,2,-2,0,-13
1523209906440216,-29,-1,1,4,2,2,1,41
1523209906461270,-30,-9,-24,-4,-4,-5,-6,-40
1523209906461270,62,21,78,-3,-3,-3,-3,1
1523209906463276,64,-20,-95,-1,-2,1,3,18
1523209906463276,-64,-5,74,8,2,1,-3,28
1523209906475308,8,4,-3,-10,-5,-2,0,9
1523209906475308,68,3,12,1,1,1,1,6
1523209906484333,-94,-14,-12,-1,-1,-1,1,16
1523209906484333,41,21,40,-8,-5,-4,-6,-51
1523209906499372,46,2,44,6,0,0,-1,6
1523209906499372,-29,3,17,1,1,1,4,10
1523209906500375,-102,-14,-21,-1,-1,-1,-1,-2
1523209906500375,7,21,-20,2,-2,-2,0,-5
1523209906521665,-112,-8,-8,0,3,0,-1,13
1523209906521665,-27,-15,-8,-5,-1,0,-3,-17
1523209906523648,127,17,-23,2,2,3,3,21
1523209906523648,-38,-37,21,-9,-8,-7,-4,14
1523209906535468,5,-8,-17,2,-1,-1,1,2
1523209906535468,3,24,54,4,-1,-1,-2,-2
1523209906543498,-41,-5,-46,-9,-6,-4,-3,21
1523209906543498,15,-3,5,1,1,2,-6,-76
1523209906558568,12,-11,38,-7,3,3,4,14
1523209906558568,77,7,-10,4,-1,-1,0,-5
1523209906560540,-32,-7,34,-1,-3,-4,-5,-18
1523209906560540,10,11,4,1,2,1,-1,3
1523209906581631,-28,12,26,-1,-4,-3,-2,22
1523209906581631,-22,-6,-6,-3,-3,-2,0,-10
1523209906582593,-9,-10,-15,1,0,0,1,-16
1523209906582593,-35,-25,-41,1,0,-1,-2,-5
1523209906594625,-19,4,12,-3,0,1,-1,10
1523209906594625,1,-1,-58,-4,-4,-3,-2,-4
1523209906603649,-43,7,11,0,-2,-1,1,32
1523209906603649,15,3,17,3,4,1,-1,-8
1523209906618924,2,10,-9,2,-2,-1,0,-6
1523209906618924,24,-19,-25,-6,-4,-2,-4,0
1523209906620695,27,-2,37,2,2,1,2,-14
1523209906620695,11,-8,-26,-1,-4,-2,2,17
1523209906641750,-67,4,-30,-3,0,-1,-3,-18
1523209906641750,82,14,64,-1,-1,-1,-3,-19
1523209906642753,26,-6,-21,1,1,1,-3,13
1523209906642753,13,10,33,-2,-3,-1,9,-25
1523209906654786,-27,-1,12,14,4,4,-2,-10
1523209906654786,47,2,-71,-8,-3,0,0,20
1523209906663809,19,4,1,0,-6,-8,-7,-69
1523209906663809,-63,-11,16,0,1,-1,-8,7
1523209906678850,62,13,7,5,0,1,0,7
1523209906678850,-47,-7,11,-4,-1,2,3,-16
1523209906680854,57,14,31,-3,-1,0,-5,13
1523209906680854,-22,0,-32,3,1,-1,2,14
1523209906701910,54,-20,46,0,-1,-2,0,9
1523209906701910,11,-28,-106,2,3,1,0,33
1523209906702913,-17,-3,-52,-8,-4,-4,-2,-35
1523209906702913,45,3,56,-3,-6,-1,-2,5
1523209906715180,28,-13,-4,-1,2,2,4,20
1523209906715180,53,9,9,2,0,-2,-2,-5
1523209906723968,37,10,-1,9,4,1,3,3
1523209906723968,-44,-5,-2,-2,-1,0,3,9
1523209906739244,-1,11,-28,-4,-2,-2,-2,23
1523209906739244,-36,9,12,1,0,-1,-1,-12
1523209906741015,-12,-20,23,-4,-2,-2,-1,-9
1523209906741015,-15,-9,-3,1,0,-1,-1,10
1523209906761067,23,-27,-19,-3,-2,-4,-1,26
1523209906761067,-34,5,0,-4,-2,-3,-3,-6
1523209906763073,-3,25,-9,3,4,3,3,3
1523209906763073,47,5,54,-1,1,2,1,74
1523209906775106,3,3,8,-10,-10,-6,-5,-47
1523209906775106,50,8,97,5,1,3,2,6
1523209906784130,-70,-14,24,-5,-6,-5,-8,-65
1523209906784130,-36,-7,-17,-1,0,-3,-1,11
1523209906799171,-58,4,-1,6,2,1,1,-14
1523209906799171,84,15,24,-5,-4,-7,-37,20
1523209906800174,-9,-27,35,-3,-2,2,26,9
1523209906800174,51,2,-13,1,-2,-3,-6,-13
1523209906821463,40,10,35,0,0,-1,4,-5
1523209906821463,-128,-15,-47,-6,-4,-4,-23,-48
1523209906823232,2,13,-27,-6,-2,-4,13,78
1523209906823232,31,-27,-42,3,2,1,-4,-99
1523209906844294,-19,2,1,6,4,0,10,-1
1523209906844294,41,-9,-48,-5,-3,-1,3,19
1523209906845291,-94,-10,-9,-5,-5,-4,-13,-26
1523209906845291,21,16,89,1,-1,0,6,-8
1523209906859330,-6,6,-48,5,0,1,-13,2
1523209906859330,-68,-29,-27,1,3,3,16,-9
1523209906860336,68,-1,-7,-1,0,1,-2,6
1523209906860336,2,12,13,-1,-1,-1,-8,17
1523209906881387,-25,-32,-10,-7,-1,-1,-3,3
1523209906881387,-74,0,32,2,0,0,10,-19
1523209906883393,-62,0,-8,-3,-2,-4,-4,31
1523209906883393,1,1,-32,2,-1,-2,-6,-22
1523209906904448,77,13,-2,-4,-3,-1,0,9
1523209906904448,-41,0,-15,3,3,1,12,11
1523209906905452,48,28,10,0,2,5,-5,7
1523209906905452,19,-20,14,-3,-4,-3,-5,-17
1523209906918722,-33,-5,-46,-1,2,0,3,-7
1523209906918722,38,14,50,0,-1,-3,-2,-7
1523209906925514,-11,-12,-44,4,3,0,-7,-14
1523209906925514,28,21,-4,-3,0,-1,1,25
1523209906941548,-20,1,-19,-3,2,3,3,24
1523209906941548,-17,1,-41,-4,-4,-3,-3,-71
1523209906942550,3,-9,26,3,1,-3,-3,0
1523209906942550,-1,6,-54,2,-1,2,5,30
1523209906963605,-5,-31,52,-15,-11,-11,-29,-38
1523209906963605,18,4,-40,0,2,3,12,9
1523209906965613,-16,-10,39,5,3,2,-1,25
1523209906965613,32,-6,-35,-3,-2,-2,5,-9
1523209906978646,-85,3,3,-1,-2,0,-5,-7
1523209906978646,47,-17,-33,-2,-4,-4,-2,5
1523209906984661,32,3,9,-3,-2,-3,-10,-10
1523209906984661,38,3,17,3,3,5,-6,51
1523209907001706,6,9,13,4,2,2,9,9
1523209907001706,32,14,7,-9,-9,-7,-5,35
1523209907002710,-23,0,-30,-2,-3,-4,-1,-38
1523209907002710,-40,4,25,2,4,2,3,-13
1523209907024000,-2,-7,-25,-6,-5,-4,0,2
1523209907024000,-32,14,20,2,1,1,4,-13
1523209907025771,27,-3,38,3,1,1,0,9
1523209907025771,-90,-14,-62,-4,-2,-5,-2,-17
1523209907038845,32,9,47,-1,0,-1,0,-20
1523209907038845,-101,-29,-10,5,3,1,-7,-48
1523209907044822,56,4,-14,-8,-4,0,1,-4
1523209907044822,8,-12,16,10,-1,0,0,-19
1523209907060864,0,16,6,-7,-4,-5,1,24
1523209907060864,-49,5,47,5,1,0,-1,-30
1523209907062869,-16,-32,-78,2,2,0,1,-4
1523209907062869,13,-5,37,-7,-2,0,0,2
1523209907083926,-8,9,-45,-4,-2,-3,-4,2
1523209907083926,-35,-8,21,-1,-1,1,5,35
1523209907085931,101,15,-13,-11,-6,-5,-5,-10
1523209907085931,-7,-3,13,1,0,2,4,39
1523209907097964,-37,-19,-11,7,5,4,0,-19
1523209907097964,65,4,-26,-19,-11,-7,-7,42
1523209907104981,-35,-1,19,4,0,0,1,-30
1523209907104981,-49,6,-26,-6,-2,-3,-2,-1
1523209907122052,20,0,-4,4,2,1,-2,-47
1523209907122052,23,0,-20,7,4,2,2,17
1523209907123030,-24,-5,93,1,-1,2,0,19
1523209907123030,12,17,-26,-2,0,-2,-2,5
1523209907144089,-63,-4,-40,-8,-6,-3,1,1
1523209907144089,4,-18,-48,-2,0,-2,-2,-7
1523209907145088,34,14,2,6,3,1,4,40
1523209907145088,44,8,23,-1,-2,-3,-6,-29
1523209907158127,6,0,-4,-4,0,4,9,36
1523209907158127,27,-6,30,-2,-3,-3,-3,17
1523209907165379,-64,-2,-42,0,-2,-1,-5,-7
1523209907165379,47,6,-1,7,4,2,4,30
1523209907181184,63,-3,14,6,-3,-4,-2,4
1523209907181184,1,11,20,-6,-1,0,-1,-11
1523209907183190,27,11,11,0,-1,0,-3,-22
1523209907183190,-67,-17,-23,-4,-4,-2,-4,-7
1523209907204245,21,12,61,1,0,-1,-4,-14
1523209907204245,28,9,-29,0,1,1,0,2
1523209907206251,53,-3,-18,-4,-2,-1,1,19
1523209907206251,39,4,22,-1,0,-3,-4,-55
1523209907218284,-3,-21,-57,-1,1,0,1,1
1523209907218284,-27,-10,2,-1,-3,-1,-1,-15
1523209907225301,61,6,-42,-4,3,3,5,36
1523209907225301,-57,-31,13,-7,-5,-3,-4,-38
1523209907241349,-11,16,25,0,-2,-5,-4,0
1523209907241349,35,10,-44,3,0,-1,-2,14
1523209907243349,-11,-16,19,5,2,-1,-1,-12
1523209907243349,64,5,-34,-12,-4,-1,0,35
1523209907264405,-49,2,78,0,-3,-2,-3,-5
1523209907264405,-26,-2,28,6,3,1,-24,7
1523209907265407,-32,9,-11,-5,-3,0,16,-6
1523209907265407,3,-3,-14,2,2,3,0,23
1523209907278444,27,2,-7,-9,-7,-5,-2,-36
1523209907278444,-24,3,40,6,2,0,-3,-3
1523209907285461,-83,-22,-73,-9,-6,-5,-12,-21
1523209907285461,-2,24,6,5,1,1,2,38
1523209907301504,99,23,35,1,1,2,2,13
1523209907301504,16,-34,-73,-11,-5,-5,7,29
1523209907303509,11,3,33,4,1,0,-3,-15
1523209907303509,-29,-4,12,0,-2,-1,5,0
1523209907323796,-39,1,-107,-3,-1,2,-2,18
1523209907323796,-27,4,30,4,0,-1,4,-6
1523209907325567,-14,-3,15,-3,-2,-2,-2,1
1523209907325567,-12,-2,9,1,-2,-4,-8,-14
1523209907337599,-44,-34,-23,7,3,4,6,3
1523209907337599,22,24,38,-1,-4,-4,3,-11
1523209907346622,-27,-18,-20,-3,0,-1,-1,29
1523209907346622,6,10,32,-8,-8,-6,-3,-6
1523209907361664,-19,-10,-56,-1,1,-1,-1,-7
1523209907361664,44,1,-10,-2,0,0,1,-16
1523209907362665,-34,11,26,3,-1,-2,-1,65
1523209907362665,-67,-12,-24,-8,-5,-3,1,22
1523209907383721,14,1,10,-2,-2,-5,-4,-14
1523209907383721,-18,-2,-1,5,2,3,3,10
1523209907385727,39,14,22,0,1,2,0,-14
1523209907385727,-27,-17,-36,-4,-2,-2,0,17
1523209907397761,-7,-7,58,1,0,1,-1,7
1523209907397761,-48,3,43,3,3,-1,0,-14
1523209907406784,-3,4,-12,-10,-4,-3,-3,-23
1523209907406784,70,23,70,5,-1,1,2,-8
1523209907422010,-67,-18,-64,-4,-2,-3,-4,13
1523209907422010,-18,1,0,3,2,1,-2,-71
1523209907422826,-12,-24,39,6,0,0,-9,-11
1523209907422826,42,0,4,2,4,2,16,-9
1523209907443928,27,-9,85,-1,1,6,3,28
1523209907443928,45,5,-11,-10,-8,-5,-3,25
1523209907445887,-3,-2,-33,-6,-5,-6,-4,-12
1523209907445887,65,10,17,4,2,2,-8,-29
1523209907457919,-29,-8,-46,-1,-2,-2,-1,-3
1523209907457919,-30,-15,-37,-4,-1,1,7,27
1523209907466943,17,12,74,3,1,-2,-8,-66
1523209907466943,5,14,-40,-9,-8,-8,-6,-4
1523209907480982,-95,-2,-7,1,0,0,4,0
1523209907480982,-64,-14,26,-3,-2,-1,-6,3
1523209907482986,-14,4,-54,2,2,1,3,6
1523209907482986,12,-6,-20,4,2,1,-1,37
1523209907504044,8,18,29,6,1,-4,-6,-68
1523209907504044,58,6,-31,-10,-5,-3,-3,-6
1523209907506118,-41,7,58,3,1,0,3,15
1523209907506118,16,-34,-73,-7,-4,0,-2,-33
1523209907518157,127,45,49,3,3,1,2,49
1523209907518157,12,-36,-39,4,2,3,3,16
1523209907526103,-11,17,8,-5,-4,-2,2,-10
1523209907526103,37,-19,-8,-3,1,1,-4,-6
1523209907541146,-16,-6,-40,0,1,-2,3,37
1523209907541146,-30,13,31,1,3,2,2,-22
1523209907543146,-19,1,-64,-7,-5,-3,1,12
1523209907543146,-3,-15,14,8,2,3,0,-7
1523209907564436,-12,8,10,-8,-5,-3,-2,-1
1523209907564436,-32,0,2,2,2,0,2,23
1523209907565204,62,-1,29,-4,-3,-4,-4,11
1523209907565204,-77,-7,1,-3,0,-2,-1,-8
1523209907577235,25,-8,11,7,2,1,-1,-32
1523209907577235,43,6,-59,1,-3,-2,1,35
1523209907586262,41,7,-51,-13,-8,-4,-3,-11
1523209907586262,-46,1,22,-1,-1,-3,-3,-7
1523209907601300,34,-7,29,0,0,0,-1,9
1523209907601300,-78,-3,40,2,0,-1,-1,-4
1523209907603305,102,-22,-58,5,2,1,1,32
1523209907603305,-11,5,11,0,-4,-3,-1,-11
1523209907624362,-14,8,-50,-7,-2,-4,-1,-17
1523209907624362,55,12,46,-2,-1,0,-1,29
1523209907625366,-42,12,16,6,4,1,-2,-9
1523209907625366,-13,-7,-24,-2,1,0,0,6
1523209907637397,22,-16,53,0,-3,-1,-1,-13
1523209907637397,88,27,-37,-3,0,-1,-22,-1
1523209907646419,-19,5,10,1,3,3,28,2
1523209907646419,58,11,4,1,-1,-2,-3,1
1523209907661460,14,11,5,-8,-3,-2,0,27
1523209907661460,9,-7,54,-1,-2,-1,0,-36
1523209907663465,-31,-2,3,4,1,-2,-8,-2
1523209907663465,15,-1,-29,-1,3,1,2,23
1523209907683522,-17,0,-5,5,0,-3,0,-44
1523209907683522,16,4,7,-3,-4,-2,0,-5
1523209907685524,-40,-14,50,-2,-3,-2,-5,-12
1523209907685524,3,20,15,2,0,1,4,16
1523209907697557,41,-16,-47,-4,-3,-3,-7,-7
1523209907697557,-24,-7,-33,2,-1,-2,4,-6
1523209907706579,-26,6,-27,-1,-1,1,-4,-12
1523209907706579,-69,-3,8,-4,-2,-2,-5,-42
1523209907721855,34,3,20,-5,-5,-5,-4,14
1523209907721855,-32,0,34,8,2,0,3,-16
1523209907723663,13,-25,61,4,5,3,0,-12
1523209907723663,-34,-14,40,-2,-4,0,-1,24
1523209907743684,54,-6,-46,-4,1,0,0,23
1523209907743684,108,-3,17,0,-1,-1,3,-10
1523209907745683,-96,-5,15,-2,-3,0,-5,-4
1523209907745683,38,7,-16,-1,-2,0,0,-15
1523209907773979,-31,37,76,9,3,4,3,11
1523209907773979,-38,-10,-89,-15,-7,-4,-3,-69
1523209907775768,90,9,-10,-8,-4,-3,-4,5
1523209907775768,-77,-7,36,3,2,-3,-5,-41
1523209907781787,22,3,-18,1,-2,-3,0,20
1523209907781787,-10,3,-9,-1,-2,-1,1,-23
1523209907782783,-2,7,-13,0,-1,-1,-3,-15
1523209907782783,-2,5,-4,-6,-5,-6,-3,-3
1523209907803838,28,-7,-36,1,2,2,-2,6
1523209907803838,-41,-5,13,0,0,-1,3,13
1523209907805844,15,-15,-29,0,2,-2,-4,22
1523209907805844,64,5,-4,-1,1,1,1,7
1523209907825905,-80,-13,-57,-6,-5,-3,0,3
1523209907825905,3,-23,33,5,3,2,-1,-7
1523209907827903,18,11,9,-3,-2,-1,-2,-12
1523209907827903,87,3,-22,3,0,0,1,31
1523209907841948,-71,-4,-32,-1,0,-1,-7,-77
1523209907841948,25,23,60,-12,-4,-3,-1,26
1523209907842941,-117,-23,-28,0,2,2,4,16
1523209907842941,67,13,25,3,-2,-5,-4,1
1523209907864233,-77,-22,22,-6,-3,-3,-1,2
1523209907864233,-31,-12,-30,-1,0,-1,0,13
1523209907866004,-15,5,12,0,-1,1,-2,-16
1523209907866004,41,13,-13,1,3,0,0,25
1523209907887083,21,19,50,4,0,-1,0,-3
1523209907887083,11,-18,46,-6,-3,-4,-3,19
1523209907888060,-11,-12,-94,1,-1,-1,-2,-1
1523209907888060,-39,-17,-54,-11,-4,-2,-2,-17
1523209907901098,-3,-24,40,4,0,1,1,16
1523209907901098,-30,0,-11,-1,-2,-4,-4,-4
1523209907907111,75,31,48,4,-1,0,-1,4
1523209907907111,-7,-22,17,3,0,1,-1,-39
1523209907924159,19,-6,-26,-10,-3,-4,-2,-14
1523209907924159,81,20,-32,3,3,3,2,8
1523209907925165,-74,-7,23,5,1,-1,-2,-16
1523209907925165,-11,4,3,-5,-3,0,0,3
1523209907946217,9,-6,2,-7,-4,-1,-2,1
1523209907946217,-3,0,0,8,4,1,-1,-6
1523209907948223,84,15,45,-3,-1,-3,-2,9
1523209907948223,15,3,-9,4,1,2,2,15
1523209907960253,-19,0,-8,-1,-4,-3,0,10
1523209907960253,-47,-19,-68,1,2,2,0,-3
1523209907967273,-22,-10,-46,-8,-5,-5,-3,29
1523209907967273,-39,-3,-1,-4,-4,-3,-3,8
1523209907984318,15,-8,-51,-2,-2,-2,-3,-3
1523209907984318,-18,6,-5,3,0,0,-2,-7
1523209907986323,67,13,46,-5,-2,-3,2,23
1523209907986323,-81,8,-27,-7,-3,-5,-5,-50
1523209908006612,39,-7,21,4,2,3,1,18
1523209908006612,22,-2,-23,-3,-3,-1,-3,-1
1523209908008384,-20,-6,-36,1,0,2,-1,-8
1523209908008384,-57,-11,27,-2,1,0,-1,7
1523209908020649,23,11,68,3,2,0,-4,0
1523209908020649,15,-6,-46,-5,-4,-3,-1,16
1523209908027433,-14,-13,35,1,1,-1,-2,-13
1523209908027433,62,-3,-11,4,-1,-3,-1,6
1523209908043479,-65,5,-12,-1,1,-1,1,-4
1523209908043479,-19,-14,17,-3,-4,-1,0,9
1523209908045482,-24,-16,-42,0,-1,-1,-4,-8
1523209908045482,-12,-13,26,-2,0,1,1,3
1523209908066575,-66,-6,-11,1,-1,1,0,-2
1523209908066575,51,8,-7,-3,-1,-2,-7,-39
1523209908068655,-68,-3,-10,-10,-6,-2,0,2
1523209908068655,-5,-3,-4,6,2,0,2,-5
1523209908081576,51,7,-62,-4,-2,-2,1,19
1523209908081576,1,18,12,2,0,1,0,5
1523209908088830,-89,-32,-3,5,2,4,3,0
1523209908088830,41,-1,17,-4,-2,-2,-2,-5
1523209908103635,-36,3,20,0,-1,-2,-2,-13
1523209908103635,9,17,81,2,-2,-4,-1,5
1523209908105638,-17,27,-29,1,2,0,-2,-13
1523209908105638,-15,3,8,0,-1,0,-3,1
1523209908126698,18,-1,13,3,3,-1,0,-15
1523209908126698,20,-6,-61,3,5,3,3,17
1523209908127699,22,6,43,-2,-4,-2,0,32
1523209908127699,-87,-10,11,-10,-6,-5,-4,-9
1523209908140735,-13,2,40,2,1,0,1,3
1523209908140735,49,-3,-18,0,0,-3,-3,-5
1523209908147751,14,-1,36,5,2,1,0,4
1523209908147751,-2,3,-52,-1,0,0,1,10
1523209908163831,108,-17,-31,-2,-4,0,0,28
1523209908163831,-57,0,57,-4,-2,-1,1,-5
1523209908165841,7,4,-86,-3,-2,-1,-3,-25
1523209908165841,119,-4,71,5,0,0,0,9
1523209908186895,-30,11,6,-6,-5,-1,-2,1
1523209908186895,-26,6,-2,0,-1,1,2,7
1523209908187858,28,-5,5,-9,-5,-4,-3,-16
1523209908187858,-36,12,15,4,0,-1,0,-7
1523209908199890,50,2,-44,1,0,-3,-3,-14
1523209908199890,2,-7,-34,0,1,1,3,40
1523209908208924,29,-2,-30,1,-2,-1,-6,-50
1523209908208924,-27,-4,-7,-4,-2,1,-1,4
1523209908223960,4,-9,-39,1,-3,-2,-1,5
1523209908223960,-39,10,50,-7,-3,0,0,-4
1523209908225963,46,-5,0,1,0,-1,1,-2
1523209908225963,-5,1,59,5,2,1,-2,9
1523209908246014,34,1,-11,-10,-5,-6,-4,-6
1523209908246014,-16,-2,22,-8,-6,-3,-3,-11
1523209908248018,-2,6,2,0,0,-2,0,10
1523209908248018,-17,0,-10,6,3,1,1,3
1523209908260051,4,4,46,4,5,5,6,62
1523209908260051,-51,1,-37,-5,-4,-6,-11,-82
1523209908269073,50,6,76,-5,-3,-3,-1,11
1523209908269073,-14,2,-38,0,0,-1,-2,14
1523209908284117,-7,7,26,-2,-1,-1,-2,-6
1523209908284117,11,-2,-62,4,2,2,3,36
1523209908285117,69,-14,-33,1,1,0,1,3
1523209908285117,12,-8,-60,-9,-7,-2,0,8
1523209908306408,-23,0,80,4,0,-1,-5,-22
1523209908306408,5,-1,-18,-1,-3,-3,-1,9
1523209908308179,-1,14,88,-1,-2,-4,-2,-4
1523209908308179,11,-14,-25,1,1,0,2,-2
1523209908320449,10,-4,4,2,2,1,-1,-18
1523209908320449,-33,-11,26,-4,-4,-3,-1,-6
1523209908329234,74,58,-10,8,2,1,1,29
1523209908329234,-25,-12,-13,-8,-5,-3,-3,16
1523209908344274,-58,-1,-15,-11,-7,-6,-5,-25
1523209908344274,1,-10,50,9,2,3,4,13
1523209908345276,31,-8,-62,-8,-5,-4,-3,9
1523209908345276,72,21,15,-2,-2,0,-1,18
1523209908366333,-84,-24,-38,6,3,3,3,-16
1523209908366333,-10,-12,39,1,0,0,-1,0
1523209908368339,-55,-24,-36,-2,1,2,1,-1
1523209908368339,8,7,-11,5,4,2,-2,-21
1523209908380371,34,-11,7,-9,-2,-2,-2,-7
1523209908380371,84,15,7,-1,-3,-3,-1,5
1523209908389395,49,-9,17,1,0,-1,-1,-2
1523209908389395,50,-1,-22,-11,-7,-7,-1,21
1523209908403431,-7,10,1,5,2,1,2,8
1523209908403431,-24,0,-32,-1,1,0,-5,-36
1523209908405436,-55,-31,1,-4,0,0,2,17
1523209908405436,-28,4,-17,-2,-2,-2,0,-34
1523209908426493,30,21,3,-5,-4,-4,-4,2
1523209908426493,46,-10,-69,-5,-2,-2,-2,13
1523209908427505,-107,-5,-24,7,2,1,0,-6
1523209908427505,-28,1,5,-10,-3,-2,-3,-18
1523209908440533,7,3,42,-3,-4,-3,-3,0
1523209908440533,34,-7,-55,0,-2,-3,-2,-4
1523209908448551,-49,-45,36,7,1,0,0,-17
1523209908448551,-27,-5,12,0,0,1,1,4
1523209908463827,7,12,-2,1,-1,-2,-1,-15
1523209908463827,-19,8,42,0,2,2,2,7
1523209908465597,124,28,-11,-9,-6,-2,-4,-11
1523209908465597,-20,-16,4,5,1,-2,-4,13
1523209908486887,14,-4,-29,-4,-2,-1,0,9
1523209908486887,18,-3,11,-1,0,0,-2,-36
1523209908488670,-68,2,-10,-2,2,0,-3,-5
1523209908488670,-48,-4,-1,2,-3,-2,-2,3
1523209908499688,13,-2,3,6,2,0,-3,-37
1523209908499688,-50,-2,84,-11,-5,-2,0,15
1523209908508716,23,8,-76,0,-3,-2,-2,10
1523209908508716,34,14,39,4,2,4,2,21
1523209908523752,-108,-36,-19,-1,1,-1,1,0
1523209908523752,42,-7,22,-1,-1,0,2,13
1523209908525758,-42,2,75,-3,-1,1,-3,-6
1523209908525758,-35,-3,38,8,4,2,1,-21
1523209908546921,74,18,-2,-13,-9,-4,0,47
1523209908546921,-2,9,-21,3,1,0,2,-8
1523209908547819,53,-11,-28,-2,2,0,2,13
1523209908547819,36,4,-43,0,-1,-2,-2,-14
1523209908559846,26,9,17,1,-2,-4,-5,14
1523209908559846,-20,-33,-16,0,-2,-2,-2,15
1523209908568871,-38,5,61,-2,-2,-5,-2,-22
1523209908568871,-82,-11,21,-1,0,-1,-1,14
1523209908583911,-15,-9,-13,-3,-1,-2,0,-4
1523209908583911,70,11,-59,3,-1,-3,-2,7
1523209908585917,7,-8,36,1,-1,0,-1,-6
1523209908585917,19,-4,-1,-12,-4,-3,-2,-8
1523209908606205,9,7,23,2,3,4,4,-8
1523209908606205,-40,17,16,3,1,1,0,-10
1523209908607975,-14,-4,-18,2,0,0,3,25
1523209908607975,90,10,45,-3,-4,-4,-3,-10
1523209908620008,-79,0,-17,0,0,-1,-7,-32
1523209908620008,-14,-22,-19,-3,-2,-2,-1,1
1523209908629030,-32,4,-15,-4,0,2,4,15
1523209908629030,3,-10,-55,1,2,1,-2,-7
1523209908644070,-39,-8,-32,6,4,1,0,-25
1523209908644070,-16,2,25,-15,-10,-7,-6,14
1523209908645114,32,28,15,-1,-4,-3,-6,-18
1523209908645114,22,-16,-47,1,-1,1,1,-10
1523209908666130,101,2,9,-1,-1,-2,-1,17
1523209908666130,-76,10,26,2,0,-3,-1,-8
1523209908668136,22,25,4,3,0,-1,1,-5
1523209908668136,65,30,30,-4,-2,-1,0,6
1523209908689190,59,-20,-49,-4,-3,-2,1,31
1523209908689190,58,11,45,0,0,0,0,41
1523209908690195,43,-11,10,3,1,-1,-3,-11
1523209908690195,-4,4,2,0,3,0,1,1
1523209908703228,-9,9,-21,-1,-3,-1,-1,2
1523209908703228,-13,-12,-45,-2,1,0,0,-15
1523209908710248,-40,-3,-38,-2,-1,-2,-3,-32
1523209908710248,-53,-18,13,-1,-1,1,-1,-3
1523209908726290,61,-2,-59,-8,-4,-1,-3,-4
1523209908726290,-23,2,11,10,3,5,1,-15
1523209908728294,-4,-6,-12,-11,-8,-5,-5,-6
1523209908728294,-8,-8,-21,-3,-5,-3,-2,-1
1523209908749350,-23,3,34,5,2,0,0,-54
1523209908749350,-60,6,76,8,4,2,-2,-7
1523209908750353,9,-14,-49,0,1,0,-1,0
1523209908750353,-13,-4,-27,-7,-4,-2,-1,-8
1523209908763389,-62,1,10,-1,1,0,1,34
1523209908763389,66,5,13,-4,-3,-3,0,2
1523209908765393,-30,-8,13,2,3,1,1,4
1523209908765393,-25,5,12,3,1,1,0,-18
1523209908786685,38,6,37,8,5,3,3,16
1523209908786685,-35,-11,8,-7,-7,-5,-3,38
1523209908788633,2,11,-37,-6,-5,-2,-1,-24
1523209908788633,-41,-1,16,-1,1,1,-2,4
1523209908808512,-98,1,19,-5,-4,-3,-3,-8
1523209908808512,20,8,-11,0,-1,-1,2,26
1523209908810514,31,-8,52,-9,-6,-4,-5,-6
1523209908810514,20,-17,-47,-5,-3,-4,-2,0
1523209908823550,22,4,43,0,2,-1,-1,32
1523209908823550,-63,-4,-9,-3,-2,-1,-2,-26
1523209908825554,-2,-5,-33,5,2,1,4,22
1523209908825554,74,-13,18,5,0,0,1,1
1523209908846609,-8,-13,-26,-3,-1,2,2,6
1523209908846609,54,-5,-16,-11,-8,-10,-5,39
1523209908847612,-32,2,35,-6,-3,-3,-3,-62
1523209908847612,-34,7,-21,-7,-4,-2,0,5
1523209908868903,6,-6,-26,3,-2,-3,-2,-4
1523209908868903,9,4,10,6,3,3,2,-18
1523209908870673,80,-15,0,3,3,2,1,33
1523209908870673,-124,-3,28,-4,-5,-6,-7,-41
1523209908882705,-22,-5,-50,-7,-5,-1,-1,-22
1523209908882705,-33,3,-2,-1,0,1,-4,-69
1523209908889764,35,11,60,2,-1,-4,-1,19
1523209908889764,48,10,-21,-1,-2,-1,0,13
1523209908906770,27,2,24,-1,-1,-2,-3,-6
1523209908906770,-33,0,3,5,2,2,1,-7
1523209908907770,-13,-15,-33,5,5,4,4,22
1523209908907770,5,14,52,-7,-7,-8,-8,-35
1523209908928828,-52,0,-17,-5,-5,-3,-3,-17
1523209908928828,29,-11,-27,-2,0,-1,0,17
1523209908930842,-18,-10,-57,-1,0,3,3,-3
1523209908930842,7,16,15,4,1,3,2,12
1523209908942866,109,6,27,4,2,1,-1,27
1523209908942866,-6,9,-16,-2,-1,-1,-3,-14
1523209908949900,10,11,55,-7,-7,-5,-6,-16
1523209908949900,-44,-48,-83,-3,-1,-1,0,7
1523209908965926,24,-1,3,-1,-3,-2,-2,2
1523209908965926,-30,-11,0,5,5,5,8,17
1523209908967932,24,3,-14,-4,-6,-9,-15,-49
1523209908967932,6,8,3,-11,-5,-2,-4,6
1523209908989222,-7,0,1,2,0,2,2,-13
1523209908989222,6,-12,-11,-2,-1,-1,-2,9
1523209908989995,-20,5,-47,1,2,2,3,16
1523209908989995,13,3,8,7,3,1,2,3
1523209909003026,-5,-9,-15,0,1,-1,2,-10
1523209909003026,-21,13,-14,-5,-5,-2,-3,3
1523209909010044,-123,-13,-14,-6,-3,-2,-5,-20
1523209909010044,54,-2,13,4,1,2,-1,4
1523209909026086,-17,13,45,-1,-1,-4,-1,7
1523209909026086,66,34,15,2,-3,0,1,-8
1523209909028091,-4,-1,-18,2,3,4,6,32
1523209909028091,76,-39,-34,5,1,0,-2,17
1523209909049382,-46,4,-8,0,-1,-1,-2,-5
1523209909049382,11,-31,-61,-14,-9,-9,-5,-5
1523209909051192,-11,-1,67,2,-1,1,1,2
1523209909051192,-12,12,17,1,3,1,1,1
1523209909063184,-30,-7,44,4,1,4,2,-2
1523209909063184,76,-7,29,-3,-4,-4,-7,-21
1523209909070438,-70,-8,-41,-9,-2,-3,-1,4
1523209909070438,4,-6,-9,4,3,0,-1,-8
1523209909086248,-75,-8,-12,-9,-8,-6,-5,-26
1523209909086248,-96,-6,57,6,5,3,0,13
1523209909088251,-5,-6,21,2,-1,-1,-1,-5
