timestamp,emg1,emg2,emg3,emg4,emg5,emg6,emg7,emg8
1523183497921678,30,-25,18,-3,-1,-2,-5,-31
1523183497921678,-47,13,-7,-1,-3,1,0,1
1523183497930703,59,-1,16,8,-1,-1,0,-3
1523183497930703,19,-15,-67,-9,-1,-3,0,4
1523183497945745,-26,-12,-18,-4,-2,1,0,-25
1523183497945745,61,63,-7,1,-2,-1,1,-9
1523183497946745,-52,17,48,3,-2,-2,0,22
1523183497946745,14,-10,-23,1,0,-2,-4,-6
1523183497967803,-19,4,5,0,-1,-1,1,12
1523183497967803,-75,-4,-2,-1,0,0,-3,-54
1523183497969806,2,6,0,-4,0,1,-2,4
1523183497969806,-36,13,10,0,-2,0,2,4
1523183497981838,73,-50,-8,-6,-6,-8,-10,-15
1523183497981838,-17,-24,5,-2,1,-1,-3,-1
1523183497990863,-43,-5,-32,-1,3,-1,0,4
1523183497990863,-28,-29,45,-7,-6,-4,-5,-22
1523183498005906,-29,8,-6,0,2,2,3,2
1523183498005906,20,1,4,2,-1,-1,-2,5
1523183498006912,10,61,3,9,2,-1,-2,47
1523183498006912,7,-25,-58,-21,-3,-3,-4,-21
1523183498027962,-10,4,8,-3,-4,-3,-1,13
1523183498027962,65,14,32,8,6,2,0,-1
1523183498029966,-17,-8,-62,-16,-8,-1,-3,3
1523183498029966,-37,2,16,6,4,3,4,4
1523183498042001,-7,-12,10,3,-2,-3,-3,21
1523183498042001,-95,-24,-4,-7,0,0,-2,-24
1523183498051022,11,-35,13,5,4,0,-1,-10
1523183498051022,-1,8,-2,2,-3,0,-2,6
1523183498065060,-27,6,-1,-5,-1,0,1,-20
1523183498065060,35,-8,-2,6,0,-1,-1,18
1523183498072080,7,-83,5,-3,-3,-4,-3,-16
1523183498072080,-42,4,12,3,0,0,-2,-8
1523183498088124,-30,24,36,1,1,0,-1,16
1523183498088124,61,-29,-2,-3,-1,-1,-2,11
1523183498090126,52,-16,-29,-11,-4,-4,0,1
1523183498090126,-13,6,98,10,-1,-3,-2,-7
1523183498110178,-43,-4,-64,-13,-1,2,1,-17
1523183498110178,0,8,-3,9,0,-3,2,34
1523183498112185,45,33,60,3,0,0,-2,7
1523183498112185,18,-9,-5,-1,-2,-2,-2,13
1523183498125221,18,11,-12,-3,-1,-1,-2,-6
1523183498125221,-34,-1,-15,-3,-2,-1,1,3
1523183498127225,-49,11,-6,2,2,0,-3,-90
1523183498127225,-44,-34,11,6,2,2,3,-11
1523183498148281,50,35,1,-4,-1,0,1,4
1523183498148281,16,31,-14,-5,0,1,1,1
1523183498149284,-44,-4,0,1,0,-2,0,14
1523183498149284,-28,-10,-28,-8,-3,0,0,-3
1523183498170339,2,-10,12,-5,-5,-1,-2,-22
1523183498170339,35,68,13,6,3,1,3,-2
1523183498172348,-32,-6,-7,-6,0,-2,0,8
1523183498172348,19,-21,-25,-2,-4,0,0,-9
1523183498185437,-29,0,-19,6,2,3,2,18
1523183498185437,55,-49,-2,-3,-4,-4,-5,-9
1523183498187385,-24,-3,-5,-9,-6,-2,-3,4
1523183498187385,27,-7,-44,0,1,-3,-1,-7
1523183498208441,35,-22,19,9,2,0,3,24
1523183498208441,-23,-68,17,4,2,1,-1,-6
1523183498209444,30,45,25,5,0,-2,-2,17
1523183498209444,-35,-18,13,-3,-1,1,-2,-4
1523183498230554,47,-72,-19,-6,-4,-2,-2,-6
1523183498230554,-14,44,3,-3,-2,-3,1,52
1523183498232504,26,9,-5,-2,-3,-1,1,7
1523183498232504,0,3,16,2,3,0,2,35
1523183498244535,-30,23,20,11,5,3,3,7
1523183498244535,-83,-40,-48,-28,-10,-6,-4,2
1523183498251557,-7,-12,4,5,0,2,1,-19
1523183498251557,58,15,0,4,1,0,2,24
1523183498268696,-21,-28,-11,-6,-6,-8,-4,-23
1523183498268696,12,0,3,9,4,4,2,-7
1523183498269605,-48,107,-10,-10,-3,-1,-2,12
1523183498269605,37,-4,34,0,0,-2,-7,-22
1523183498290659,-26,-17,-28,2,0,1,-1,2
1523183498290659,68,-24,1,-13,-10,-8,-9,-81
1523183498292666,-5,-7,-12,-2,1,0,0,8
1523183498292666,-28,7,-32,-3,-1,1,0,4
1523183498304705,76,12,19,2,-2,-2,-4,-12
1523183498304705,-53,38,-9,3,1,1,3,81
1523183498311715,13,-33,-2,8,3,-1,-4,-32
1523183498311715,9,-33,14,-1,-4,-3,0,-19
1523183498328760,-53,4,-41,-4,2,1,-1,-5
1523183498328760,13,10,-40,-15,-5,-2,0,-4
1523183498329764,71,0,28,6,-4,-4,0,44
1523183498329764,-39,3,11,8,6,4,1,-11
1523183498350862,35,-25,2,2,-2,-1,-3,8
1523183498350862,-71,-1,-11,-4,-6,-3,-4,-25
1523183498351821,-58,-25,0,-6,-2,-1,-2,-63
1523183498351821,35,-1,0,3,0,-2,-3,-9
1523183498364856,-54,25,50,6,2,0,1,6
1523183498364856,-32,3,-13,-9,-3,-3,-1,-4
1523183498371882,61,60,9,3,-3,-1,2,17
1523183498371882,-19,25,-10,1,-1,0,0,12
1523183498387919,-8,25,-43,-12,-3,-4,-3,-2
1523183498387919,30,-3,26,15,7,4,2,19
1523183498389923,-21,-34,-39,0,0,0,1,24
1523183498389923,49,-18,-27,-8,-2,-1,-2,14
1523183498410980,6,-1,26,8,0,0,-1,3
1523183498410980,7,-16,-24,-4,0,-2,-1,-21
1523183498411981,11,-18,46,6,1,0,2,22
1523183498411981,46,68,-8,1,1,2,5,21
1523183498425017,7,-31,6,0,-1,-1,-1,14
1523183498425017,-68,-53,0,-6,-6,-3,-3,-63
1523183498432039,12,40,16,2,8,4,0,-9
1523183498432039,-47,32,-35,-11,-4,-5,-1,5
1523183498448078,25,-9,38,8,-2,-2,-1,-5
1523183498448078,-19,-36,16,4,1,2,2,5
1523183498450082,-8,4,-51,-29,-8,-5,-7,-4
1523183498450082,0,4,18,4,0,-2,-1,-21
1523183498471142,-6,21,29,8,3,1,0,-3
1523183498471142,18,2,-42,-9,-4,-1,-2,11
1523183498472145,-2,-13,38,10,1,1,2,-2
1523183498472145,-68,8,12,-1,-5,-4,-5,18
1523183498485411,17,2,-28,-13,-4,-5,-4,-19
1523183498485411,32,31,13,13,7,7,9,95
1523183498491194,-4,-32,-33,-7,-3,-3,-8,-10
1523183498491194,42,4,102,-3,-5,0,1,12
1523183498515256,-5,29,-81,-19,-4,-4,-1,27
1523183498515256,-12,-8,78,4,0,-1,-4,-2
1523183498517261,-4,-29,-45,-5,-5,-8,-1,3
1523183498517261,31,-7,-19,16,-1,3,-1,-18
1523183498530531,62,80,40,-4,2,8,4,-9
1523183498530531,-36,3,11,13,4,-4,-7,-50
1523183498532301,-27,36,-10,-21,-8,-4,-1,-1
1523183498532301,-25,-29,-47,-12,2,-2,-3,-25
1523183498545339,-3,43,33,9,-1,2,2,-9
1523183498545339,48,-11,3,3,-5,-1,1,23
1523183498552353,-9,-16,27,3,0,-2,-4,4
1523183498552353,-43,-35,-42,-7,-2,-1,0,28
1523183498568632,-38,-5,11,-6,-5,0,-4,-43
1523183498568632,-73,24,24,7,2,0,-2,-36
1523183498569401,16,-5,-2,7,5,4,3,16
1523183498569401,15,-88,42,-17,-3,-2,1,16
1523183498590455,-51,-27,-45,9,-4,-8,-6,49
1523183498590455,50,76,-4,8,-2,-4,-2,-5
1523183498592462,-10,-23,-36,-18,-4,-1,3,-7
1523183498592462,11,19,9,7,2,-1,-3,-23
1523183498604546,10,-23,-5,-4,2,2,1,-12
1523183498604546,8,-42,20,3,2,1,-1,-9
1523183498613517,45,-27,-49,1,0,1,0,51
1523183498613517,-28,28,-3,-1,-5,-1,-5,-25
1523183498628721,-47,-3,39,-2,-4,-3,-2,-1
1523183498628721,54,-25,-25,-2,-1,-3,0,25
1523183498629560,-34,-14,-12,9,5,3,3,-42
1523183498629560,8,50,16,-11,-5,-5,-6,-17
1523183498650851,42,-62,92,15,-2,-4,-2,17
1523183498650851,-3,14,-8,-15,1,1,1,32
1523183498652620,25,-52,29,5,-9,-4,-4,-14
1523183498652620,-47,-11,-18,-4,-4,-5,0,9
1523183498664653,-38,23,4,-1,5,4,1,-17
1523183498664653,-4,-26,-32,-14,-4,-3,-4,-14
1523183498673676,3,-2,30,5,6,2,1,0
1523183498673676,10,7,-24,19,3,3,2,-2
1523183498687719,11,69,10,-20,-3,-4,-1,-31
1523183498687719,-57,-22,-72,-21,-4,-1,0,-37
1523183498689720,-40,-2,31,4,-4,0,1,51
1523183498689720,13,-9,1,1,1,0,-4,-25
1523183498710776,11,10,17,18,6,6,7,9
1523183498710776,7,-17,-9,-28,-12,-6,-3,2
1523183498711821,51,23,-9,10,3,-2,1,-19
1523183498711821,5,0,30,-9,1,-3,-4,40
1523183498723811,-33,-21,12,5,-3,-1,-2,-49
1523183498723811,58,37,27,12,6,3,1,-5
1523183498733048,-88,-49,-70,-3,-1,-3,-1,-4
1523183498733048,54,-39,-4,-14,-5,-4,0,-9
1523183498747874,-20,-5,-21,4,4,1,4,38
1523183498747874,17,-26,-27,11,-5,-3,-1,25
1523183498749880,-2,-49,52,-38,-5,-3,-4,-15
1523183498749880,1,-21,-53,19,3,2,3,23
1523183498770948,29,-39,-9,-21,-8,-6,-7,-13
1523183498770948,10,-31,-63,-1,-2,-6,-5,-9
1523183498771940,-2,41,35,14,5,3,2,-6
1523183498771940,41,-2,14,-9,-3,-3,0,32
1523183498784204,43,-36,-30,-3,-2,1,-3,-72
1523183498784204,-8,57,28,6,-4,-7,-7,25
1523183498792994,-5,-18,-14,-3,-4,-2,-1,-22
1523183498792994,-28,-10,-34,-5,0,0,-1,-8
1523183498808034,35,23,-12,9,1,-1,2,22
1523183498808034,12,-21,17,0,-2,1,3,9
1523183498810082,48,56,-2,-2,-1,-1,-5,-17
1523183498810082,-68,22,52,9,0,0,4,-1
1523183498831217,23,-7,-32,-16,-3,-4,-6,-23
1523183498831217,-37,39,-10,-5,2,4,3,17
1523183498832097,7,22,12,10,-1,-2,1,17
1523183498832097,4,-23,2,8,1,0,0,-8
1523183498844129,-67,-16,-39,-8,-3,-4,1,20
1523183498844129,2,-1,30,4,3,3,2,2
1523183498853157,32,15,-6,0,-4,-3,-4,-6
1523183498853157,-10,42,-6,-4,1,1,-1,-14
1523183498868432,-30,-20,11,1,0,-1,2,32
1523183498868432,-25,2,6,6,0,-1,-1,-13
1523183498869199,-54,-31,-31,1,1,-1,0,13
1523183498869199,30,17,-6,-3,1,0,2,23
1523183498890252,-7,0,12,7,1,1,-4,-17
1523183498890252,-59,-30,15,-2,1,1,-2,-42
1523183498892259,8,47,16,9,4,5,3,-66
1523183498892259,49,-46,4,-10,-2,-4,-7,-39
1523183498904296,27,78,-19,-4,-5,-3,-2,11
1523183498904296,17,20,48,7,0,0,0,-5
1523183498913313,-24,-82,-14,-6,-1,-1,0,12
1523183498913313,-16,22,-28,9,0,-1,-1,-10
1523183498928356,2,-12,-9,-5,-1,1,3,16
1523183498928356,-30,31,8,-1,1,-3,-2,22
1523183498934370,23,2,-4,-7,-5,-2,3,60
1523183498934370,-22,10,-14,2,-1,-1,0,39
1523183498950415,-27,-29,7,9,-1,-2,-8,60
1523183498950415,49,-1,6,4,0,-1,-2,-7
1523183498952421,0,-19,2,-3,-1,0,1,6
1523183498952421,-76,5,-13,-3,-3,-3,3,6
1523183498964450,29,1,13,-3,0,0,3,6
1523183498964450,-24,4,8,7,1,2,1,-12
1523183498973474,-5,56,23,-4,-5,-5,-6,-3
1523183498973474,65,8,-11,-6,2,4,1,-9
1523183498988514,4,-46,-41,-10,-9,-7,-6,4
1523183498988514,33,-17,4,1,-1,2,4,-27
1523183498989517,38,-10,22,6,0,-4,-4,47
1523183498989517,-11,-24,-59,-23,-11,-7,-3,3
1523183499010573,-11,12,19,-5,4,0,4,-2
1523183499010573,53,2,-9,-3,-2,-2,-3,-49
1523183499012578,14,42,6,6,2,2,4,21
1523183499012578,10,-37,26,5,1,0,-3,-1
1523183499032631,-46,31,-4,-3,-1,-1,0,4
1523183499032631,-33,-32,7,-3,-3,-3,-4,15
1523183499034636,40,8,-25,-5,2,0,1,-19
1523183499034636,-22,10,38,-5,-3,-5,-4,-9
1523183499047671,1,43,5,8,1,1,2,-21
1523183499047671,21,-10,28,4,3,1,3,-13
1523183499049676,-43,-15,-1,-14,-2,-1,-7,-9
1523183499049676,-79,31,9,12,-3,-1,0,-3
1523183499070737,31,-20,16,2,-6,-4,-1,13
1523183499070737,-32,-4,-16,-14,0,-2,-4,-58
1523183499072737,-39,-14,1,5,2,0,1,13
1523183499072737,12,3,20,11,4,2,2,28
1523183499092790,36,-5,23,2,3,2,-4,-9
1523183499092790,15,-13,-48,-7,-6,-3,-4,27
1523183499094796,-17,-50,-31,-10,-8,-6,-4,-20
1523183499094796,13,-55,114,8,2,0,0,-11
1523183499107831,-87,14,-101,-13,-3,-2,-2,34
1523183499107831,18,84,68,18,4,3,1,12
1523183499109836,6,-1,-56,-9,-3,-3,-3,4
1523183499109836,87,14,-40,-10,-3,-4,-6,-27
1523183499130897,8,43,63,17,4,0,2,6
1523183499130897,-28,-27,-30,-19,-8,-3,-7,-54
1523183499136913,-44,12,-2,12,1,2,-1,3
1523183499136913,-46,53,6,5,1,-2,-1,-10
1523183499152952,15,-16,4,-10,0,2,2,-49
1523183499152952,-76,-28,-3,-4,-6,-7,-8,51
1523183499154957,36,-2,3,-4,-3,-2,-4,-11
1523183499154957,-52,-9,-5,-6,1,-1,-1,-15
1523183499167995,33,-36,12,17,0,0,-4,-10
1523183499167995,-53,-33,-27,-26,-5,-3,2,13
1523183499169998,-12,-4,27,7,-4,-3,-4,21
1523183499169998,45,-3,-5,-1,1,0,2,-1
1523183499191052,4,8,17,-1,-6,-4,-3,9
1523183499191052,48,-36,-34,-17,-4,-3,3,14
1523183499192055,26,58,52,23,8,5,6,-3
1523183499192055,-1,-28,-39,-24,-4,1,-2,-15
1523183499213178,-50,-51,-33,15,0,1,-1,-48
1523183499213178,-3,4,11,-16,-5,-3,-1,-1
1523183499215118,-14,-12,-60,-13,0,0,-2,-18
1523183499215118,55,-4,14,19,2,-2,5,51
1523183499227197,-31,-10,-43,-13,4,2,3,47
1523183499227197,-2,-21,4,15,0,0,-4,-19
1523183499234168,7,-23,13,-11,-5,-4,-3,16
1523183499234168,58,23,-16,1,-1,1,1,9
1523183499250250,-107,-20,-17,-15,-2,-1,0,-9
1523183499250250,7,23,6,20,7,7,6,14
1523183499252215,95,11,-4,-4,-4,-6,-7,43
1523183499252215,-2,31,10,1,0,-1,0,-12
1523183499273313,0,-10,7,-8,-4,-3,-3,-15
1523183499273313,21,2,-10,9,-1,-3,0,-8
1523183499274313,-25,-46,22,-1,1,2,1,-32
1523183499274313,-7,-39,-26,-6,-1,0,1,40
1523183499287316,38,21,-6,0,-2,0,-2,6
1523183499287316,-47,35,-17,-6,-2,-3,-2,20
1523183499294381,-53,68,35,5,1,0,0,-15
1523183499294381,41,0,-27,8,-2,1,-2,-14
1523183499310372,69,-14,19,-14,-5,-7,-4,-6
1523183499310372,7,-13,-31,2,-4,-1,-1,20
1523183499312375,0,-14,26,-9,1,3,0,-17
1523183499312375,-21,1,-22,-6,-4,-5,-7,-26
1523183499333668,-35,6,51,7,0,3,2,18
1523183499333668,3,3,-52,-12,-2,1,-2,-56
1523183499334432,-19,-23,24,-1,-4,-7,-2,26
1523183499334432,10,-53,-18,-1,-1,-3,-1,17
1523183499346465,-55,-20,9,8,2,0,2,-3
1523183499346465,22,17,30,-2,5,0,1,13
1523183499355499,-27,-52,-10,-7,-6,-2,-1,13
1523183499355499,-8,-13,31,0,1,3,1,-13
1523183499370536,9,-9,-41,-3,0,0,-2,36
1523183499370536,20,14,50,18,1,1,-3,-52
1523183499372535,12,2,-77,-14,0,0,-1,-11
1523183499372535,-53,28,84,22,2,1,1,1
1523183499392629,33,-17,-50,-31,-8,-7,-5,-12
1523183499392629,-23,5,23,8,4,2,5,-11
1523183499394593,60,12,-12,3,1,-1,-2,-17
1523183499394593,-7,40,9,-5,-2,-3,-3,-20
1523183499407628,33,74,19,3,-1,0,1,-14
1523183499407628,0,-15,8,6,3,1,1,24
1523183499414648,-26,-35,-11,4,0,2,3,-14
1523183499414648,-4,45,-4,-8,-4,-4,-2,9
1523183499430924,12,-35,-4,-2,-4,-2,-1,4
1523183499430924,-7,17,14,-6,-1,-4,-5,20
1523183499431692,-27,-31,5,9,-4,-1,1,33
1523183499431692,-17,-43,19,-24,-5,-1,-1,14
1523183499452760,91,-13,-19,14,-3,-3,-8,-58
1523183499452760,-64,54,21,1,1,-1,0,23
1523183499454755,-4,-4,1,7,3,-1,-1,-23
1523183499454755,6,26,22,6,6,6,6,-12
1523183499466785,-60,2,-26,-13,-7,-3,-1,15
1523183499466785,45,15,-21,-4,-5,-2,-2,20
1523183499475810,9,39,34,8,2,0,-1,-1
1523183499475810,-62,-28,-11,-3,-1,0,0,-27
1523183499490850,19,20,33,3,2,-4,-10,-81
1523183499490850,31,7,7,1,-1,-1,-2,24
1523183499491851,-16,-44,-37,-13,-5,-4,-3,-7
1523183499491851,11,10,-5,0,1,-2,-1,18
1523183499512909,-22,-12,-12,-2,-3,-1,5,17
1523183499512909,46,-64,-15,-3,-5,-5,-6,2
1523183499514914,-22,74,55,8,3,3,-1,-45
1523183499514914,-63,-76,-46,-8,-4,-2,-2,17
1523183499526945,28,-1,14,1,4,3,2,-3
1523183499526945,12,-40,-20,9,1,1,2,28
1523183499535972,-12,9,8,0,-2,-2,0,-4
1523183499535972,-5,0,-40,-8,-2,-2,-2,-7
1523183499551168,35,13,15,-3,0,-3,0,39
1523183499551168,-33,8,15,-1,1,-1,-1,-14
1523183499552012,44,48,-17,2,0,2,6,104
1523183499552012,5,8,8,0,-3,-3,-8,17
1523183499573106,3,-38,0,-5,-3,-2,1,45
1523183499573106,-67,34,8,-2,1,2,4,12
1523183499575074,79,3,-32,-3,0,-2,0,18
1523183499575074,49,18,-5,0,-4,-3,-3,-25
1523183499587107,-12,86,16,8,3,5,3,0
1523183499587107,25,-21,9,-2,-4,-2,-2,-9
1523183499596130,-21,7,8,-2,3,2,0,2
1523183499596130,-39,-49,-34,-8,-7,-5,-2,20
1523183499610216,-15,5,5,3,2,-1,-3,8
1523183499610216,-12,-65,-27,-7,-3,2,1,-1
1523183499612171,17,46,34,-1,-3,-3,-3,-37
1523183499612171,18,49,6,2,5,4,3,28
1523183499633463,-81,-34,66,9,-4,-4,1,-31
1523183499633463,45,-14,-90,-17,-3,-5,-4,-3
1523183499634230,20,-13,-10,-5,-2,2,1,-20
1523183499634230,-47,107,-23,0,-3,-1,-7,-18
1523183499646262,29,37,28,4,6,3,4,17
1523183499646262,36,-5,25,7,0,-2,-4,1
1523183499655284,-6,17,-10,-12,-5,-1,9,69
1523183499655284,-2,-44,-11,4,-5,-6,-6,-10
1523183499670326,31,-8,13,-3,0,0,-5,14
1523183499670326,26,-78,-22,-3,-2,-1,-1,16
1523183499672331,-20,-15,16,4,-4,-3,-2,27
1523183499672331,-18,32,32,0,0,2,5,-35
1523183499693425,59,31,-17,3,1,1,0,-6
1523183499693425,-1,-57,75,11,2,1,1,-12
1523183499694395,-30,-44,-58,-18,-6,-4,-8,-43
1523183499694395,34,-61,-31,6,0,1,1,-9
1523183499706422,-18,-12,-14,3,3,3,-1,-5
1523183499706422,-10,-48,-4,-18,-6,-4,-2,-19
1523183499715576,-45,-3,27,12,5,2,-1,14
1523183499715576,86,-7,-4,-5,-2,-2,-2,11
1523183499730722,-14,-6,-10,-10,-9,-3,1,52
1523183499730722,36,58,-3,2,-5,-3,-3,51
1523183499732491,-49,-18,10,6,2,0,-2,-30
1523183499732491,32,-67,-39,-5,1,-1,-3,-11
1523183499753548,-12,-107,15,-1,-2,0,0,18
1523183499753548,-4,42,-9,-4,-2,-1,-2,-24
1523183499754549,-1,6,-5,-1,-3,-2,-5,-18
1523183499754549,-7,30,44,7,5,3,3,11
1523183499766823,-8,-53,-35,-9,-3,-2,0,-4
1523183499766823,-89,78,26,1,2,1,-1,0
1523183499775607,22,-59,-74,-13,-10,-5,-5,-53
1523183499775607,11,-15,25,-5,-4,-6,-8,-31
1523183499790645,-39,24,10,13,4,2,1,-1
1523183499790645,17,-20,13,2,1,2,0,-24
1523183499792656,-73,52,14,2,4,2,0,-27
1523183499792656,-27,40,53,9,0,-2,-1,19
1523183499812705,-33,-13,-108,-28,-6,-2,2,-29
1523183499812705,-22,69,41,7,1,0,-1,-6
1523183499814710,5,-64,-11,-3,-3,-3,-3,-1
1523183499814710,-15,63,-34,-5,-3,-1,0,-13
1523183499826977,23,6,35,9,5,3,-1,-63
1523183499826977,34,15,-19,-5,-1,-4,-3,-20
1523183499835772,-55,5,23,0,-3,-2,-2,29
1523183499835772,-6,-57,5,-4,-3,-1,-2,-13
1523183499851040,17,-17,-19,-3,-1,-2,-1,26
1523183499851040,-17,-50,-20,-6,-4,-4,0,-7
1523183499851808,34,31,23,2,1,1,1,-27
1523183499851808,10,-39,-12,-1,-1,0,1,7
1523183499872864,29,28,18,-2,-4,-6,-8,4
1523183499872864,35,-7,1,0,-1,1,-1,5
1523183499874869,9,-28,1,4,4,2,2,11
1523183499874869,-15,3,2,-1,-1,-2,-1,-19
1523183499886949,39,10,6,-1,-4,-2,-1,23
1523183499886949,-7,-35,-4,2,-1,-1,-2,-4
1523183499895926,26,20,11,-5,-3,-2,-2,-9
1523183499895926,-28,-11,5,0,4,3,4,16
1523183499910993,21,14,10,-2,-3,-3,-7,-29
1523183499910993,28,3,2,2,-3,-5,-3,19
1523183499911967,-1,-32,-27,-3,-1,-2,-2,1
1523183499911967,1,-9,-3,-1,0,-1,3,25
1523183499933261,-13,-23,4,0,0,2,3,15
1523183499933261,2,-29,0,0,-2,-1,0,5
1523183499935033,-51,72,11,4,1,1,-3,-2
1523183499935033,55,21,8,0,-3,-1,-4,9
1523183499947061,-19,-19,-8,0,1,-2,-2,-19
1523183499947061,-19,87,-5,-1,3,2,2,14
1523183499956085,9,-35,10,4,1,1,0,-20
1523183499956085,18,-4,4,-4,-1,0,0,5
1523183499970130,-48,-33,-14,2,-1,-2,-2,-13
1523183499970130,-21,-12,6,-1,-1,2,-1,-9
1523183499972129,-1,6,24,4,0,3,3,13
1523183499972129,13,-18,-23,-11,-7,-7,-6,30
1523183499993183,9,-5,-2,4,-1,-3,0,72
1523183499993183,-3,59,7,5,4,3,4,12
1523183499995189,-72,48,6,-4,-4,-3,-3,4
1523183499995189,-27,-5,7,6,0,1,1,-6
1523183500016245,29,59,6,-4,-3,0,-3,-12
1523183500016245,8,-27,-25,-8,-2,-1,-1,-12
1523183500017250,59,8,14,6,2,1,4,21
1523183500017250,2,38,3,5,1,-1,-2,4
1523183500030518,3,18,10,-1,-3,-4,-2,24
1523183500030518,-21,1,-19,-11,-5,-4,-3,-3
1523183500032288,44,-43,-21,-8,-3,-2,-2,-6
1523183500032288,-45,-30,-3,0,1,1,-3,7
1523183500053349,-14,-21,10,4,0,0,0,33
1523183500053349,3,76,7,0,0,-1,-3,-20
1523183500054349,-58,-67,7,0,1,-3,1,12
1523183500054349,-66,-40,-25,-3,-4,-3,-4,5
1523183500075404,24,70,-63,-12,2,4,1,-5
1523183500075404,-72,-92,32,9,-1,-1,0,6
1523183500077412,28,-13,-1,-10,-3,-3,-4,-6
1523183500077412,-15,29,26,14,3,3,1,-34
1523183500090443,-22,-23,5,-1,-9,-4,-2,-12
1523183500090443,-7,0,-17,-3,2,-1,-2,1
1523183500092486,43,-4,-25,-1,0,2,0,-4
1523183500092486,12,-13,38,-1,2,1,4,26
1523183500113504,33,-50,-78,-9,-5,-6,-4,5
1523183500113504,48,-24,-14,-11,-4,-2,-6,-50
1523183500114506,-29,36,6,2,3,2,1,14
1523183500114506,-28,45,-10,0,-3,-2,-3,-25
1523183500135565,36,-10,56,14,6,5,5,-3
1523183500135565,91,-48,-55,-22,-5,-4,-3,33
1523183500137570,1,30,37,12,-4,0,-3,-8
1523183500137570,7,-14,-42,-6,-7,-5,-1,-11
1523183500149601,-23,42,31,3,1,1,3,4
1523183500149601,-12,-58,-14,2,3,1,1,-9
1523183500157621,-7,62,-32,-16,-3,-1,-2,-17
1523183500157621,78,-17,11,2,1,-4,-2,30
1523183500172661,-37,-17,-59,-9,-4,0,-2,-1
1523183500172661,13,8,12,5,0,0,2,16
1523183500172661,-19,-35,-7,0,-4,-2,-3,7
1523183500172661,24,5,37,6,-1,1,1,-6
1523183500194721,-115,-35,-11,-6,-1,1,-4,-36
1523183500194721,4,5,18,-4,-1,-4,-6,32
1523183500195723,43,-15,-76,1,-1,-2,1,19
1523183500195723,1,24,31,-1,2,-3,-1,-14
1523183500208757,-11,-34,34,0,4,2,2,10
1523183500208757,49,12,-8,7,-4,-1,-1,-17
1523183500217791,-35,6,45,0,-2,-5,-7,-83
1523183500217791,44,60,-20,-2,0,4,2,13
1523183500233015,-78,-31,-6,-11,-7,-3,-2,-15
1523183500233015,-16,19,41,6,1,0,0,-35
1523183500233015,31,-25,7,10,2,0,2,13
1523183500233015,-13,2,-19,0,-4,-4,-4,-50
1523183500254883,22,27,26,0,4,1,-4,-34
1523183500254883,13,-38,-21,-11,-5,-2,0,66
1523183500255882,20,29,23,8,6,4,2,5
1523183500255882,-75,-83,30,-12,-11,-9,-9,89
1523183500268924,47,-25,-36,-3,-4,-5,-3,1
1523183500268924,-41,23,23,6,2,0,3,6
1523183500276938,-60,-58,-2,-8,-5,-2,-2,-48
1523183500276938,38,35,4,4,6,2,5,-35
1523183500291980,-11,1,16,-2,1,-1,2,16
1523183500291980,-1,20,-24,-8,-2,-3,-3,35
1523183500292982,-4,-37,-11,4,-4,-2,0,12
1523183500292982,-28,-19,-12,4,5,5,4,-36
1523183500315039,5,-27,2,-11,-9,-5,-11,-84
1523183500315039,30,-30,8,9,5,1,2,-20
1523183500316043,48,50,17,2,7,4,3,38
1523183500316043,16,-25,12,-7,-5,-3,-7,-62
1523183500329116,19,-20,-29,-2,-1,-3,-1,1
1523183500329116,-14,54,45,9,-1,1,-2,-48
1523183500337097,43,-14,0,-7,-5,-3,-3,14
1523183500337097,-20,45,-10,5,2,2,2,37
1523183500352161,29,19,-22,-3,0,2,3,-5
1523183500352161,-126,-37,-16,-1,-5,-4,-2,-10
1523183500353141,-15,39,4,-6,0,-2,2,45
1523183500353141,-37,14,18,2,-2,0,-4,-52
1523183500375199,72,65,66,5,0,0,2,44
1523183500375199,-43,2,-63,-2,1,3,0,-22
1523183500375199,7,-41,-4,-4,-6,-7,-10,-52
1523183500375199,26,-42,-37,-7,-1,-3,-1,22
1523183500389238,23,20,34,10,5,2,3,17
1523183500389238,-14,-14,23,-3,-1,0,-3,11
1523183500397260,-57,-40,-36,-11,-4,-2,1,0
1523183500397260,47,22,-31,-1,1,1,2,1
1523183500412298,-47,-30,-5,0,-3,-2,-4,-9
1523183500412298,24,1,37,1,3,2,3,37
1523183500413300,50,-5,-12,0,-12,-11,-12,74
1523183500413300,7,-22,19,1,-2,-2,-1,31
1523183500434357,-28,21,-39,-9,2,4,6,24
1523183500434357,-3,-10,-6,-2,-1,-3,0,11
1523183500435359,20,27,1,-3,2,1,3,27
1523183500435359,-25,-13,0,-2,-3,2,4,6
1523183500458421,14,33,43,18,2,-1,0,-20
1523183500458421,-16,-6,-9,-6,-5,-6,-7,-18
1523183500458421,-51,4,-19,0,4,3,2,-23
1523183500458421,-45,-48,19,-6,5,7,12,-59
1523183500472458,55,-32,25,3,2,-6,-7,30
1523183500472458,28,10,-37,3,-1,3,6,21
1523183500473460,-23,-21,46,2,-4,-4,-7,-51
1523183500473460,-1,28,-103,-10,4,6,4,19
1523183500494516,-13,-26,12,-15,-9,-6,-3,-11
1523183500494516,5,46,15,3,3,-1,-1,-4
1523183500495520,-8,-14,20,0,2,3,2,26
1523183500495520,53,20,3,1,-4,-6,-7,-32
1523183500509562,37,26,0,1,0,-2,-4,15
1523183500509562,-21,-17,6,5,0,3,3,-4
1523183500517579,-4,46,7,-7,-1,-1,-3,6
1523183500517579,22,4,27,11,2,-2,-5,0
1523183500532617,-51,-76,-50,-6,-4,-1,0,-1
1523183500532617,-28,-7,-9,1,4,1,2,-5
1523183500533620,35,31,2,-3,-2,-1,2,19
1523183500533620,-63,-61,6,-11,-6,-3,-3,-13
1523183500554679,58,88,57,17,1,3,-2,-13
1523183500554679,-64,-59,-44,-13,-8,-3,-2,8
1523183500555680,48,-13,-4,-2,-1,-1,-1,-36
1523183500555680,11,25,18,7,1,-2,-3,-3
1523183500569721,4,-1,10,-3,2,3,4,1
1523183500569721,48,-36,-16,-10,-4,-6,-6,11
1523183500577777,-43,-12,11,-3,-9,-6,-3,-34
1523183500577777,-15,-94,15,7,2,-1,-2,11
1523183500592825,-9,-35,-48,-16,-5,-4,-2,5
1523183500592825,38,-26,26,8,1,-2,-2,-14
1523183500592825,-5,-113,4,6,7,2,3,20
1523183500592825,42,26,-30,-13,-3,0,0,33
1523183500614837,-72,-17,21,15,-4,-3,-1,19
1523183500614837,17,94,-41,-4,3,4,1,-24
1523183500615839,5,-13,11,-4,-2,-3,-1,21
1523183500615839,61,11,-20,-2,-1,0,-6,-62
1523183500637899,1,15,28,8,5,1,0,1
1523183500637899,-23,-9,-4,-4,-8,-1,3,-41
1523183500638900,-44,21,15,5,-1,-4,-3,33
1523183500638900,-23,29,-26,-5,-1,3,4,55
1523183500660959,-11,-6,2,-3,-1,0,-4,-27
1523183500660959,15,-57,13,1,0,-2,-2,15
1523183500660959,-87,11,-24,-9,-2,1,-1,-22
1523183500660959,-6,42,24,-3,-4,-6,-2,-2
1523183500675002,-11,-58,1,3,2,-1,-1,12
1523183500675002,31,-36,-6,-7,-1,-2,0,7
1523183500675999,-13,30,-5,7,4,4,3,-29
1523183500675999,48,34,22,-1,1,-1,-1,15
1523183500689033,-59,20,-6,2,2,1,1,-13
1523183500689033,-16,1,21,-1,-3,-2,-3,-42
1523183500697055,44,-14,2,2,-2,-1,1,18
1523183500697055,-36,-30,9,4,1,-3,0,10
1523183500712095,32,46,-31,-12,-2,-2,0,2
1523183500712095,29,11,30,9,4,3,4,63
1523183500713097,12,-4,-8,-4,-1,0,-1,-9
1523183500713097,42,-112,12,-6,-8,-7,-6,15
1523183500735035,21,9,-50,-2,0,1,1,2
1523183500735035,4,17,20,6,-2,-2,-2,4
1523183500736032,45,-68,-40,-13,-2,1,0,-29
1523183500736032,-27,27,1,3,1,1,3,69
1523183500749567,3,-13,-7,-3,-2,-1,3,9
1523183500749567,5,-3,25,5,1,-1,0,45
1523183500757589,-23,-16,-7,2,4,-2,-3,-14
1523183500757589,61,2,15,3,-3,-1,1,45
1523183500772628,-28,-27,0,-7,-5,-2,1,9
1523183500772628,-30,39,-3,-3,0,1,-1,-23
1523183500773631,102,-21,14,3,-3,-5,-7,31
1523183500773631,-52,38,-18,-5,0,-1,0,-25
1523183500795188,-23,-56,15,0,0,1,-3,-25
1523183500795188,23,5,13,0,-1,0,1,0
1523183500796192,33,-2,11,1,-4,-3,-9,-71
1523183500796192,-62,-45,-29,-2,-2,-2,-3,-20
1523183500809226,25,-28,6,0,2,-2,-6,-31
1523183500809226,31,-9,11,-1,-1,0,3,49
1523183500817749,-57,95,-7,-9,-8,-9,-2,54
1523183500817749,-18,-26,-2,0,-2,-1,-1,-3
1523183500832789,-21,15,22,1,2,2,0,-13
1523183500832789,12,20,-42,-7,-1,-1,-3,-8
1523183500833291,-20,16,3,3,2,0,5,65
1523183500833291,1,19,0,-2,-2,-2,-7,-43
1523183500855350,-12,-16,-9,-7,-5,-2,-1,28
1523183500855350,-23,-11,4,5,0,-2,-4,2
1523183500855850,8,18,-21,-10,1,2,1,-39
1523183500855850,4,17,27,11,-2,1,2,-18
1523183500869390,97,19,17,2,-1,-1,3,30
1523183500869390,-75,-63,-22,-5,-4,-4,-3,18
1523183500877443,55,43,32,2,2,0,-5,72
1523183500877443,-13,-53,-65,-19,-3,-4,-8,-61
1523183500892446,-29,62,12,9,2,0,1,-16
1523183500892446,23,37,-30,-3,-1,0,2,57
1523183500893449,-77,-26,19,2,3,-2,-10,-79
1523183500893449,17,31,2,-11,-3,-3,-1,54
1523183500915061,-71,-56,1,-1,-1,2,-1,-50
1523183500915061,59,-28,-4,8,0,-4,-6,-25
1523183500916009,-4,-6,-14,6,2,7,11,-36
1523183500916009,-13,10,-1,-2,-3,-5,-4,65
1523183500938068,-25,11,1,-2,3,-1,-5,-28
1523183500938068,16,16,25,1,0,-1,-2,-20
1523183500939070,0,34,-27,0,-3,0,2,2
1523183500939070,-4,-6,23,8,-2,2,4,-26
1523183500952608,24,6,22,4,2,-1,1,61
1523183500952608,43,-42,-5,-8,-4,-5,-1,8
1523183500953111,-40,-2,7,-9,-7,-8,-11,-10
1523183500953111,-76,26,20,0,0,4,5,-15
1523183500975204,35,-13,-44,-5,-2,-2,0,5
1523183500975204,8,32,36,8,2,-1,-3,-32
1523183500976170,11,-43,-17,-3,-2,0,-1,-51
1523183500976170,18,2,-27,-6,-1,-1,1,18
1523183500998514,-14,23,3,1,-3,-2,-2,-17
1523183500998514,-43,-9,45,1,1,3,0,-17
1523183500999018,40,-29,-104,-24,-7,-3,1,19
1523183500999018,-65,108,30,11,4,2,6,44
1523183501012553,95,-2,18,8,2,0,-4,19
1523183501012553,-1,-45,-20,-19,-10,-9,-10,-63
1523183501013555,-20,12,38,19,4,-1,-2,44
1523183501013555,32,-36,-10,-1,2,2,6,37
1523183501035112,0,9,36,3,-2,-3,-3,27
1523183501035112,0,50,-44,-8,-2,-2,-2,12
1523183501036117,-30,6,54,10,3,4,4,-14
1523183501036117,32,-88,-19,-5,-6,-5,-4,-3
1523183501058173,6,-11,-8,-1,1,0,1,37
1523183501058173,9,-19,7,2,-2,2,2,-36
1523183501059178,-54,5,-12,2,2,0,4,75
1523183501059178,126,37,13,5,1,-1,-3,-12
1523183501072712,-29,4,-13,-4,-2,-3,2,-35
1523183501072712,-8,29,14,3,1,-1,-3,26
1523183501073214,8,7,-15,-6,-1,-1,-4,-64
1523183501073214,-31,-21,1,-1,-1,0,-3,-36
1523183501095272,-13,-8,-27,-4,-2,-2,0,0
1523183501095272,-16,15,12,4,-2,-1,1,22
1523183501095775,42,-10,31,5,5,3,5,3
1523183501095775,-73,14,-2,-5,2,3,4,51
1523183501118333,75,-1,-8,2,-3,-5,-8,-23
1523183501118333,-40,-24,-12,-6,-6,-3,-3,-15
1523183501119338,65,-51,31,6,5,3,1,22
1523183501119338,23,13,-27,-7,1,-1,0,-16
1523183501132610,-89,32,16,-9,-6,-1,-1,-23
1523183501132610,-10,39,-4,6,2,0,-2,3
1523183501133373,14,-6,-1,-4,-3,-2,0,5
1523183501133373,-54,24,30,6,-1,-2,-12,-1
1523183501154931,-18,-44,-79,-23,-9,-6,-3,3
1523183501154931,6,-26,7,2,1,-2,1,-4
1523183501155933,5,68,15,4,-1,-2,-1,-8
1523183501155933,5,-14,11,4,-1,0,0,-17
1523183501178707,-44,-23,7,0,-1,0,0,5
1523183501178707,-1,-26,-16,-5,-1,-1,-3,-44
1523183501178994,33,10,-4,4,3,3,5,9
1523183501178994,-18,-19,16,-2,-3,-3,-1,13
1523183501192566,18,0,17,5,0,3,4,-7
1523183501192566,-78,13,-5,-2,0,2,4,36
1523183501193535,60,-60,-4,-3,-4,-5,-11,2
1523183501193535,34,-35,-13,-3,2,1,-1,-16
1523183501215091,-76,36,-17,-7,-3,0,-3,17
1523183501215091,27,35,25,10,5,2,0,-17
1523183501215592,-40,-20,-30,-14,-5,-1,-1,10
1523183501215592,13,79,5,6,-1,-2,0,7
1523183501238153,19,10,5,5,3,3,2,31
1523183501238153,32,-51,2,-2,-1,0,-2,-7
1523183501239156,-34,13,-7,-3,-3,-2,-1,4
1523183501239156,18,-33,-7,-5,0,-2,0,-1
1523183501252693,-21,-22,8,0,-3,0,-1,25
1523183501252693,63,-27,-10,-3,-1,-1,-2,-17
1523183501253196,-5,6,11,-4,-3,-3,-3,-25
1523183501253196,0,-34,-14,6,2,2,5,-1
1523183501275250,56,-1,-10,-1,-2,0,1,46
1523183501275250,-44,5,-11,-8,-6,-4,-11,-17
1523183501276296,16,13,22,11,1,2,1,17
1523183501276296,-33,-52,-27,-10,-6,-4,-4,2
1523183501298343,13,2,22,2,0,-3,-2,-25
1523183501298343,-37,-28,-1,-7,0,-1,0,-58
1523183501298845,-46,-3,0,-2,1,-2,-3,18
1523183501298845,27,41,10,-1,-1,-1,-5,-32
1523183501312381,18,-5,2,-2,-1,-2,4,28
1523183501312381,64,-15,4,5,0,0,1,46
1523183501313384,-27,-11,-25,-1,0,-1,-3,-51
1523183501313384,5,26,12,0,-3,0,1,-5
1523183501335449,3,-52,-14,-1,3,1,-3,-30
1523183501335449,39,10,10,3,6,6,4,19
1523183501335944,36,18,16,1,-1,0,3,16
1523183501335944,32,16,-31,-8,-2,-3,-4,23
1523183501358506,-41,-5,-4,-6,-5,-3,-4,-78
1523183501358506,-50,4,21,9,-2,0,-2,8
1523183501359005,1,-9,-21,-6,-1,-1,0,4
1523183501359005,-48,19,28,0,2,-1,-1,11
1523183501372543,-54,-1,-3,-8,-2,-3,-2,42
1523183501372543,-33,3,-11,-2,-6,-5,-7,-32
1523183501373543,86,58,6,4,0,1,6,35
1523183501373543,6,76,1,-5,-4,0,3,17
1523183501395102,69,2,-3,4,3,1,0,2
1523183501395102,22,20,7,-6,-2,-1,1,7
1523183501396103,16,-26,-3,-1,-3,-1,-3,8
1523183501396103,-29,-43,19,1,2,-1,-1,2
1523183501418161,-25,12,-6,4,0,-2,0,-7
1523183501418161,-2,-2,-17,-5,-2,-2,6,10
1523183501419165,18,-12,0,-3,-1,-2,-2,-12
1523183501419165,-3,57,-27,1,-1,-1,-2,6
1523183501432700,-16,3,16,7,2,2,1,13
1523183501432700,19,-50,-31,-6,-3,-3,-3,61
1523183501433704,-82,-33,17,1,-1,-1,-1,11
1523183501433704,18,-26,6,-5,-2,-5,-5,20
1523183501455260,42,7,-1,3,0,1,0,-16
1523183501455260,-35,9,-21,-3,-2,-1,4,0
1523183501455762,3,-33,-9,-4,0,1,0,-17
1523183501455762,48,-12,1,2,0,-3,-5,-77
1523183501478557,-80,-6,8,3,-2,-1,1,21
1523183501478557,80,43,27,0,1,-1,-4,79
1523183501479324,-116,-1,-50,-7,-4,-4,-1,5
1523183501479324,46,-26,8,3,-5,-1,1,31
1523183501492358,45,-15,-5,3,3,0,5,34
1523183501492358,21,2,13,-3,-2,-2,1,-9
1523183501500886,16,6,-10,-2,-1,-1,-1,-6
1523183501500886,-29,-26,1,-4,-3,-1,-2,-5
1523183501515138,15,-2,22,1,2,1,0,14
1523183501515138,-9,-9,-32,-9,-4,-3,-4,5
1523183501515961,20,21,12,8,3,3,2,-15
1523183501515961,33,-16,-2,6,-1,-1,4,39
1523183501538481,67,1,-11,-9,-5,-6,-8,22
1523183501538481,-95,-3,23,3,0,-1,-3,-55
1523183501538985,37,19,4,-4,-3,-2,-1,-11
1523183501538985,-16,-12,-15,0,3,0,0,-15
1523183501552024,6,27,-5,-9,-5,-3,-2,-14
1523183501552024,3,12,-6,6,-2,0,-1,42
1523183501560039,26,-11,12,-7,-5,-5,-6,2
1523183501560039,-40,10,17,1,3,2,-1,-14
1523183501575117,17,-39,-38,-4,-6,-2,0,0
1523183501575117,21,58,-12,-1,-3,-4,-4,-65
1523183501576120,-27,-10,-9,-2,-1,-1,1,10
1523183501576120,-41,-18,13,-1,-1,0,1,-26
1523183501598141,38,-6,16,-1,2,4,-1,-24
1523183501598141,-17,-14,-2,-5,-3,-2,-1,-3
1523183501599145,-14,1,-2,3,0,-1,-3,2
1523183501599145,-12,18,-9,-4,-1,2,2,-2
1523183501612180,-7,14,2,-3,-3,-6,-2,-7
1523183501612180,-22,7,-5,3,2,2,1,-5
1523183501620200,37,-11,17,-1,-2,-2,-3,-12
1523183501620200,0,-25,-6,1,3,3,3,5
1523183501635250,57,7,-14,-1,-2,-2,-1,43
1523183501635250,1,-32,16,1,-3,-5,-4,0
1523183501635743,-20,6,9,0,0,1,0,-2
1523183501635743,19,-69,-14,0,0,0,-5,8
1523183501658301,19,8,15,0,1,2,-1,-56
1523183501658301,60,-8,8,1,1,2,3,-4
1523183501659302,-51,14,-6,0,0,-4,-3,76
1523183501659302,-16,-13,4,-3,-4,-4,-4,16
1523183501671836,-34,-50,-4,-4,-1,-3,-2,-29
1523183501671836,-19,22,8,2,5,5,7,-14
1523183501680534,0,-27,-9,-9,-9,-7,-9,4
1523183501680534,-3,24,-6,0,-2,-3,-4,-24
1523183501695176,-81,-84,-7,0,0,0,0,-1
1523183501695176,14,-3,4,-4,-3,0,-3,2
1523183501695679,-6,3,-1,4,1,3,7,25
1523183501695679,43,9,-12,-8,-2,-4,-6,30
1523183501718248,-23,-9,-2,3,-3,-2,-6,-17
1523183501718248,-66,5,-1,-1,-1,1,-2,-16
1523183501719241,56,39,2,-4,0,-1,-1,-29
1523183501719241,-11,-4,3,-1,0,-1,2,-17
1523183501732315,-25,59,19,2,0,1,-1,-15
1523183501732315,7,-49,-13,-1,1,1,1,-9
1523183501740296,-26,-47,-13,-5,-1,0,-1,52
1523183501740296,-24,3,3,-2,-4,-4,-1,1
1523183501756338,-5,35,9,5,2,2,3,-7
1523183501756338,-9,77,5,1,-2,-4,-3,-6
1523183501757342,-14,-19,-1,-4,-5,0,1,-19
1523183501757342,31,4,-14,-1,-2,0,-1,10
1523183501778561,30,12,12,3,0,1,-3,-29
1523183501778561,-25,-45,-29,-9,-2,-2,-1,-25
1523183501779401,10,-19,-11,5,5,1,-1,14
1523183501779401,-1,13,-1,-3,-5,-3,0,32
1523183501791971,1,35,-2,-10,-3,-4,-3,-7
1523183501791971,-4,-10,11,9,-2,-2,0,8
1523183501799955,-1,-48,-7,-1,-3,-2,-2,-34
1523183501799955,-45,1,1,3,-1,1,0,-38
1523183501815515,21,5,5,0,1,1,3,42
1523183501815515,19,-16,-12,-10,-5,-5,-6,-21
1523183501815998,-25,13,-4,4,1,0,1,8
1523183501815998,27,-2,-2,2,2,2,0,-5
1523183501838056,-12,-19,-4,-2,-4,-3,-2,58
1523183501838056,18,26,9,7,5,6,4,15
1523183501839061,9,16,-9,-9,-6,-3,1,53
1523183501839061,-30,-3,-2,-1,2,-1,0,-27
1523183501852095,95,7,1,4,2,1,1,-14
1523183501852095,-20,-38,-18,-7,-3,-3,-4,13
1523183501860119,-20,15,11,-1,3,1,0,-12
1523183501860119,15,-20,-5,-1,-1,-1,1,6
1523183501875154,-28,40,36,5,2,0,-5,23
1523183501875154,28,-13,-15,-5,-5,-3,2,37
1523183501875656,-8,1,-94,-17,-4,-2,-2,-42
1523183501875656,-12,1,38,6,2,2,1,3
1523183501898254,-25,31,65,4,-4,-5,-3,13
1523183501898254,-17,-34,-4,-12,-2,0,2,-5
1523183501899260,-50,12,80,21,0,-2,0,6
1523183501899260,-11,-2,19,-5,-3,-2,-2,-12
1523183501920775,-9,-8,-5,-2,-1,2,3,-28
1523183501920775,28,32,102,21,8,-2,-5,87
1523183501921779,36,-62,-71,-17,-7,-5,-6,-31
1523183501921779,0,-20,2,6,0,1,0,2
1523183501935314,13,9,-3,-6,-3,-2,-2,-1
1523183501935314,2,-10,-12,0,-4,-1,-4,-56
1523183501935821,1,-35,-13,-7,-1,1,0,-14
1523183501935821,-4,-13,-33,-11,-6,-3,-3,6
1523183501958375,-61,-12,-30,-10,-5,-4,-3,-63
1523183501958375,10,11,4,3,2,4,6,72
1523183501958877,17,-19,-11,2,-3,-2,-4,7
1523183501958877,-69,-12,-7,1,1,-1,-2,-15
1523183501980936,13,7,-35,-5,1,2,2,-13
1523183501980936,32,15,46,6,-2,-3,-3,20
1523183501981939,5,42,-40,-3,3,3,3,-40
1523183501981939,9,16,23,2,0,0,-1,-13
1523183501994974,-25,-13,-22,2,3,1,1,7
1523183501994974,-26,28,-17,-10,-3,-1,-1,-35
1523183501995978,34,-19,75,10,1,-1,2,43
1523183501995978,-12,-11,-77,-14,-7,-5,-8,-78
1523183502018537,-18,-15,11,7,3,-1,0,12
1523183502018537,6,-73,21,6,0,-1,-1,-14
1523183502019040,72,-14,-18,-15,-2,-1,-1,20
1523183502019040,0,9,2,4,-1,0,-1,9
1523183502040634,9,-12,-6,-3,-5,-4,0,20
1523183502040634,12,15,-29,-4,3,1,2,-27
1523183502041600,-17,19,14,1,-2,0,0,3
1523183502041600,32,1,19,5,1,-1,-1,9
1523183502055132,9,12,16,-2,-4,-1,-3,-5
1523183502055132,-50,-37,-27,-5,-3,-3,-1,2
1523183502055634,-19,22,-15,1,2,1,3,5
1523183502055634,13,36,-7,1,0,0,0,2
1523183502078429,3,-10,35,3,1,-1,-9,-93
1523183502078429,9,9,-94,-23,-8,-4,-3,59
1523183502079197,-9,26,58,18,2,-1,-4,-5
1523183502079197,-9,-25,-3,-9,-3,-1,-1,-5
1523183502100753,11,5,-13,-1,-1,-2,0,65
1523183502100753,13,17,15,4,0,0,-5,-60
1523183502101759,-11,44,3,1,1,1,-1,-31
1523183502101759,45,36,10,5,2,3,3,24
1523183502115030,-77,-8,-17,-8,-5,-4,1,35
1523183502115030,-6,11,-1,3,-2,-1,0,-11
1523183502115794,-16,-44,19,6,-4,-6,-3,-6
1523183502115794,43,17,-7,-7,1,3,3,49
1523183502138353,-43,-32,4,-3,-3,-2,2,38
1523183502138353,42,20,-9,-1,1,-2,-2,-10
1523183502139357,-30,27,51,10,5,1,0,-11
1523183502139357,-17,-2,-11,-5,0,-1,4,16
1523183502162418,10,-19,-24,1,1,1,-4,-54
1523183502162418,32,-17,30,-1,-1,-3,-1,7
1523183502162921,15,-5,10,5,2,1,-2,7
1523183502162921,-20,3,14,7,5,5,2,-35
1523183502174953,97,63,-12,0,-3,-6,-3,31
1523183502174953,-8,24,5,4,2,2,1,-23
1523183502175993,16,27,-4,-2,2,2,2,-25
1523183502175993,24,-18,20,0,-4,-4,-3,19
1523183502198296,-34,-59,9,1,0,0,-6,-100
1523183502198296,0,-2,-39,-12,-5,-4,-6,20
1523183502199300,-14,-41,4,-6,-3,-1,-3,1
1523183502199300,-18,-32,0,-1,-1,-3,-2,26
1523183502220857,27,9,38,8,4,4,5,10
1523183502220857,8,-32,-5,0,-1,-2,-1,-32
1523183502221357,17,-5,-32,-5,-5,-5,-5,15
1523183502221357,-24,-10,9,0,-5,-3,1,-1
1523183502234894,-29,64,7,-4,0,1,0,16
1523183502234894,-47,-9,-6,-2,1,3,0,-14
1523183502235896,-18,-31,-17,-6,-2,-1,5,36
1523183502235896,46,12,15,-2,-5,-6,-9,-31
1523183502258457,-34,-7,-46,-3,2,1,3,-3
1523183502258457,-28,-55,-16,0,-3,-2,-2,18
1523183502258959,1,50,7,6,5,2,2,-43
1523183502258959,-9,9,2,-5,-1,1,2,43
1523183502281131,-12,-33,-25,-5,-2,0,-5,-21
1523183502281131,22,-11,30,5,2,2,3,41
1523183502281519,-20,5,25,-5,-6,-5,0,37
1523183502281519,-28,-5,-37,2,4,2,-3,-10
1523183502295054,25,41,-25,-4,-3,0,0,50
1523183502295054,5,46,17,6,0,1,1,9
1523183502296298,16,1,-3,1,-3,-2,-2,-18
1523183502296298,-24,12,2,-6,-3,0,3,27
1523183502318163,-2,-18,19,7,1,-2,-1,10
1523183502318163,45,9,5,-3,1,2,3,21
1523183502319120,-46,3,-16,-9,-7,-6,-5,15
1523183502319120,-6,-28,-28,-2,-3,-2,-1,-26
1523183502340675,8,-12,16,1,-1,-3,-4,-5
1523183502340675,44,0,-14,-1,-3,-3,-4,6
1523183502341679,-28,-1,-38,-13,2,4,4,-13
1523183502341679,33,39,29,-1,-7,-8,-7,-56
1523183502355215,5,-79,-11,-1,-1,-1,0,-11
1523183502355215,-22,-21,-20,-5,-5,-4,-2,4
1523183502355715,-16,-25,15,5,2,-1,-5,-62
1523183502355715,35,-4,-8,-1,3,0,-1,18
1523183502378512,32,36,5,-2,1,2,1,2
1523183502378512,-26,0,-21,-3,-1,0,2,-12
1523183502379502,29,53,-17,-7,-4,-4,-5,-22
1523183502379502,-1,-16,0,2,-1,-3,3,21
1523183502400845,46,44,25,5,0,0,0,-4
1523183502400845,24,21,6,2,0,0,5,23
1523183502401341,-35,9,-8,-5,-1,-3,-4,35
1523183502401341,-7,5,-5,6,3,4,4,30
1523183502415109,9,9,-3,-5,-4,-2,0,-8
1523183502415109,-57,-33,-11,-4,1,0,-1,-28
1523183502415874,-12,-13,19,6,2,0,2,-3
1523183502415874,11,5,19,5,1,0,0,7
1523183502438435,20,-55,0,-1,-3,-2,-1,13
1523183502438435,-22,9,21,0,-7,-3,0,58
1523183502438936,-27,-10,12,2,2,-2,2,-2
1523183502438936,-19,-26,-19,-6,-2,-4,-5,-3
1523183502460994,-38,27,8,-7,-4,-2,0,7
1523183502460994,-3,-5,12,-1,2,-2,-5,2
1523183502461497,76,-22,3,2,-3,-1,2,64
1523183502461497,10,9,24,4,-2,-1,0,21
1523183502474569,68,-10,-48,-9,1,-1,0,3
1523183502474569,-58,20,6,-4,-4,-5,-4,-51
1523183502482551,1,-9,4,3,-1,1,1,3
1523183502482551,13,-7,15,-3,-4,-1,-4,-4
1523183502498092,3,-9,-10,1,-1,-1,-4,-7
1523183502498092,48,23,7,-3,-1,3,1,-3
1523183502499096,12,-17,5,-3,-3,0,2,-2
1523183502499096,-21,39,18,5,2,0,1,-28
1523183502520654,-26,-6,-32,2,1,2,2,-2
1523183502520654,51,-7,9,-8,-5,-2,3,43
1523183502521659,-8,28,11,1,0,0,-10,-66
1523183502521659,35,-57,-15,-6,-5,-3,-1,35
1523183502534697,42,-11,25,4,2,0,-9,19
1523183502534697,33,26,-7,7,4,1,14,-65
1523183502542713,-9,15,-25,-3,-1,0,-2,15
1523183502542713,-4,-10,-1,-4,-3,-4,-4,2
1523183502558306,-11,13,3,-3,0,-1,1,-13
1523183502558306,-51,-83,6,-3,-5,-5,-14,-36
1523183502559308,6,-46,28,6,3,3,4,38
1523183502559308,-8,22,-38,-2,-2,-1,0,-33
1523183502581104,-52,-24,4,-4,-5,-4,-1,4
1523183502581104,-28,18,23,2,3,2,0,-2
1523183502581367,53,3,-23,-5,-4,-6,-2,55
1523183502581367,-7,-7,11,0,0,2,-5,-46
1523183502594404,-81,-24,0,-4,-4,-1,1,-11
1523183502594404,103,4,-24,-2,-2,-3,-2,62
1523183502602466,26,23,8,1,-1,-1,-2,-31
1523183502602466,-40,10,-7,-4,1,1,3,15
1523183502618469,20,44,-20,0,-3,-1,3,38
1523183502618469,-12,19,-1,1,2,1,-6,-58
1523183502618968,-21,3,4,1,1,0,-1,-1
1523183502618968,-45,6,-1,-3,-1,-3,-1,-10
1523183502641027,2,-13,9,2,0,-1,2,-11
1523183502641027,-13,47,-8,-1,-3,-3,-7,12
1523183502641527,33,-22,6,-4,-1,-2,1,-12
1523183502641527,-8,-40,-4,-1,-1,2,-2,37
1523183502654561,13,60,22,1,-2,-1,-3,0
1523183502654561,-91,-18,-37,-4,-1,-1,2,-5
1523183502662584,3,2,1,1,-1,-1,-2,-11
1523183502662584,4,-43,-8,0,0,2,2,-8
1523183502678361,23,4,3,-1,0,-4,-2,16
1523183502678361,-3,3,11,-1,-1,-3,-4,-18
1523183502678626,0,14,-12,-2,0,0,3,31
1523183502678626,-8,5,30,1,-1,0,-2,-32
1523183502700691,39,3,-5,-3,-2,0,2,15
1523183502700691,-10,-11,-6,0,-3,-4,-8,-27
1523183502701689,21,-34,-3,1,1,0,2,-15
1523183502701689,79,65,27,4,-3,-6,-5,9
1523183502714460,-10,-45,-19,-2,-2,0,-1,-23
1523183502714460,2,50,21,4,2,3,7,53
1523183502722743,0,-6,5,4,-1,1,-4,-84
1523183502722743,-16,-5,-19,-5,-1,-2,-1,13
1523183502737784,-40,-13,-53,-12,-3,0,-1,1
1523183502737784,-20,-54,-2,-1,2,2,4,10
1523183502738285,-17,71,13,4,1,1,0,-6
1523183502738285,-24,-6,-18,-2,-3,-3,-5,-40
1523183502760847,32,5,20,-1,-1,-2,-3,-20
1523183502760847,-45,-3,8,-1,-3,-1,-3,-25
1523183502761346,-9,-10,-37,-11,-5,-4,-3,11
1523183502761346,0,-16,-4,2,-1,-1,1,-2
1523183502774380,6,26,37,10,7,3,8,82
1523183502774380,26,11,-60,-18,-6,-4,-2,31
1523183502782402,-36,1,47,8,1,0,1,23
1523183502782402,-36,-16,-10,-3,-3,-1,1,-3
1523183502797482,-8,-14,2,-3,-2,-2,-4,6
1523183502797482,-62,-18,26,6,3,2,2,-26
1523183502798484,-73,-40,-19,-11,-5,-4,-1,-12
1523183502798484,29,-16,11,-2,-2,-2,-4,40
1523183502821005,23,-31,-1,3,1,2,4,-30
1523183502821005,36,-5,1,-5,-5,-7,-8,10
1523183502821506,21,71,19,2,0,1,0,2
1523183502821506,-11,-1,-46,1,1,1,1,-8
1523183502843062,-15,-19,10,-2,-4,-1,0,26
1523183502843062,29,4,7,3,2,1,0,2
1523183502844066,-3,-10,-9,-1,-1,0,0,8
1523183502844066,-13,-4,3,-2,2,2,1,-4
1523183502857603,18,-8,-33,-10,-10,-8,-7,26
1523183502857603,-19,-5,6,3,2,1,-1,-8
1523183502858606,8,-30,-2,-2,-2,-2,-2,-1
1523183502858606,-53,-16,1,1,1,2,4,27
1523183502881187,-11,-15,17,0,0,-2,-6,-35
1523183502881187,14,-16,5,1,-2,0,0,5
1523183502881666,-51,-25,4,1,-2,-4,-4,0
1523183502881666,44,8,-1,-3,1,1,6,11
1523183502903225,-31,9,-7,1,-2,-3,-5,-34
1523183502903225,61,-5,26,-1,-3,0,2,8
1523183502904228,-39,-24,-12,1,0,-3,0,14
1523183502904228,66,20,6,2,0,0,-2,-41
1523183502917767,-4,63,24,4,0,0,1,-14
1523183502917767,-34,43,15,-2,0,0,-1,-29
1523183502918265,-32,-29,-36,-4,-2,1,8,9
1523183502918265,-1,23,22,5,0,-2,-3,-18
1523183502940823,-22,-45,-12,-2,-2,-1,-2,0
1523183502940823,74,79,23,9,3,4,6,48
1523183502941325,110,19,3,-3,-3,-4,-4,50
1523183502941325,-16,-47,-15,-5,-4,-4,-4,-60
1523183502963384,-24,72,13,3,1,1,2,0
1523183502963384,-55,-40,-23,-6,0,0,6,26
1523183502963884,6,-1,18,9,0,-2,-9,-85
1523183502963884,-4,10,-5,-10,-3,0,0,18
1523183502977990,-3,-24,-12,2,2,0,-3,7
1523183502977990,-2,-24,-9,-2,-3,-4,4,-22
1523183502978422,-2,-6,-12,-4,1,2,1,0
1523183502978422,-1,32,-3,0,1,1,2,37
1523183503000988,-9,-46,-22,-7,-6,-4,2,0
1523183503000988,37,-11,1,1,-2,-2,-11,-12
1523183503001489,-72,1,-8,-4,0,1,-2,-5
1523183503001489,77,-23,1,-1,0,0,5,26
1523183503023544,-60,-6,-2,-3,-3,-1,-4,20
1523183503023544,37,-1,5,-3,-4,-3,-4,-2
1523183503024045,27,27,3,1,-1,1,1,4
1523183503024045,-21,-54,4,0,-2,-4,-3,43
1523183503037580,-84,-34,-26,-12,-5,-1,0,-16
1523183503037580,-57,-48,-21,-2,-5,-6,-4,56
1523183503038585,37,-9,-9,-3,0,0,-1,-22
1523183503038585,-93,-31,-5,-5,-4,-2,-5,-46
1523183503060644,45,23,46,7,5,-1,-1,2
1523183503060644,3,-11,-36,3,2,3,2,-8
1523183503062146,-59,-9,11,-3,0,3,0,-6
1523183503062146,54,31,6,3,0,-2,-2,0
1523183503083204,64,14,17,-6,-3,-3,0,59
1523183503083204,-46,-44,23,7,1,4,-1,-35
1523183503085209,-23,19,-9,-7,-6,-5,0,23
1523183503085209,-75,16,2,6,2,5,1,-54
1523183503096776,65,25,-4,-1,-1,-1,-5,-62
1523183503096776,-54,9,24,-4,-2,-2,-3,-22
1523183503105762,24,-9,6,2,-1,-1,0,33
1523183503105762,-2,15,-3,-2,0,-2,-1,11
1523183503120800,3,-28,0,4,1,3,0,-7
1523183503120800,-8,-38,-10,-2,-2,-1,-3,-16
1523183503122306,27,-26,-20,-1,3,2,1,-1
1523183503122306,27,40,10,-7,-5,-5,-2,13
1523183503143360,43,2,-8,3,0,-2,1,59
1523183503143360,33,31,-13,-2,0,0,-1,-11
1523183503144866,36,15,10,2,-1,-1,-2,4
1523183503144866,28,-1,3,2,0,2,2,49
1523183503156935,-62,-23,8,-3,-1,-1,-2,5
1523183503156935,15,4,-46,-5,-6,-5,-4,-1
1523183503165923,5,-3,5,-6,2,1,-2,-6
1523183503165923,31,17,-18,-5,-3,-2,-3,19
1523183503180961,-18,-10,13,2,-2,3,-3,-56
1523183503180961,-36,-6,2,2,0,2,3,-7
1523183503182467,-7,26,8,-7,-7,-5,-4,9
1523183503182467,-14,-7,5,6,0,-2,-2,-43
1523183503203020,-100,-5,-7,-8,-3,-3,5,-22
1523183503203020,50,22,-26,-4,1,0,-5,-48
1523183503205025,-11,-39,7,3,-1,0,1,-6
1523183503205025,-57,71,-21,-7,-5,-3,-4,6
1523183503217065,13,14,-7,2,2,0,2,-24
1523183503217065,24,-48,10,0,1,-2,-1,53
1523183503233607,-23,11,10,-1,-3,-4,-2,-7
1523183503233607,-3,-42,-31,-3,0,-1,2,-25
1523183503240621,17,3,3,-3,0,0,1,-24
1523183503240621,-35,-2,10,-3,-3,2,-4,-57
1523183503242124,70,-37,-27,-6,-3,-3,-3,18
1523183503242124,48,-40,25,6,-1,-2,-3,8
1523183503263179,-34,-17,-15,7,-2,-1,3,27
1523183503263179,78,11,11,-4,-2,0,3,53
1523183503265186,-28,9,-8,0,1,1,2,-10
1523183503265186,37,4,28,5,-1,-2,-2,-9
1523183503276951,28,9,0,1,1,-1,-3,-3
1523183503276951,14,-8,-23,-6,-2,-3,2,11
1523183503285741,9,41,11,3,1,3,-2,22
1523183503285741,0,61,-4,-2,0,1,2,-12
1523183503300779,42,18,9,4,1,1,-3,21
1523183503300779,-83,18,12,3,0,3,2,-15
1523183503302285,68,-47,-19,-6,-5,-6,-6,-46
1523183503302285,-52,-93,-5,-3,0,-2,-4,-15
1523183503323341,4,18,-5,-2,-1,1,1,-7
1523183503323341,44,32,3,-1,1,-1,-4,66
1523183503324885,-1,-6,8,3,0,1,-2,-37
1523183503324885,-26,-17,14,4,-3,1,0,30
1523183503336875,14,19,12,0,-1,1,-2,-22
1523183503336875,-11,-3,-26,-8,-5,-4,-4,45
1523183503345900,-67,-2,15,-2,-1,-1,4,30
1523183503345900,20,34,5,2,3,2,4,14
1523183503360939,-28,-14,8,-4,-2,-6,-4,-40
1523183503360939,-27,-2,-16,0,-1,0,1,-27
1523183503362444,20,-48,-3,2,-1,-2,0,21
1523183503362444,-53,46,0,-4,-1,0,1,-25
1523183503383501,38,14,-22,-4,-1,-1,-2,28
1523183503383501,-6,-16,14,3,1,-2,-1,-27
1523183503385004,10,-10,-2,0,0,-2,-1,32
1523183503385004,29,15,-4,-1,0,-1,-6,1
1523183503397076,-7,-74,9,2,-3,0,-3,2
1523183503397076,12,37,2,-2,-2,-1,0,10
1523183503406060,12,31,4,6,2,0,1,10
1523183503406060,-29,-20,-10,-1,-5,-3,-1,9
1523183503420598,38,17,-9,-4,-1,1,1,36
1523183503420598,-43,30,28,7,6,0,-3,-12
1523183503422603,-59,-8,3,-4,-3,0,-2,-7
1523183503422603,11,-17,-11,0,-2,1,-1,4
1523183503443159,33,28,-5,-4,-2,0,3,25
1523183503443159,-21,-3,17,3,-1,-2,-1,-18
1523183503445226,1,34,-18,0,0,1,0,-28
1523183503445226,12,-79,-3,-5,1,-1,0,17
1523183503456696,-23,13,-11,-1,2,1,-3,-51
1523183503456696,75,-11,10,0,-6,-6,-2,-2
1523183503466219,-28,13,10,-2,1,0,-2,-86
1523183503466219,14,-23,2,-6,-7,-7,-12,-12
1523183503480758,40,-12,10,2,1,-1,0,2
1523183503480758,-78,-15,-3,-3,-2,0,-4,-55
1523183503482267,-34,-42,-3,-2,-1,-2,-1,3
1523183503482267,57,-12,-35,-13,-3,-1,0,7
1523183503510838,5,-1,-1,1,-3,-4,-4,-26
1523183503510838,50,-4,13,5,0,-3,-4,-13
1523183503512343,7,-13,2,0,1,0,3,22
1523183503512343,-42,23,29,0,2,2,1,21
1523183503516905,-16,0,-15,-2,-2,-3,-7,-23
1523183503516905,8,14,-11,-3,-1,-1,0,24
1523183503525879,27,7,-13,-4,-2,-2,-1,18
1523183503525879,-33,13,-9,-1,-1,0,3,66
1523183503540918,19,87,17,5,6,4,5,-14
1523183503540918,2,-38,-2,-2,-4,-3,-6,32
1523183503542423,41,29,-9,-2,-2,-3,-1,24
1523183503542423,21,36,21,5,2,0,0,-19
1523183503563656,-46,-42,-16,-7,-6,-3,1,59
1523183503563656,29,66,13,2,3,0,0,7
1523183503564983,-76,10,-15,0,-1,1,-2,-17
1523183503564983,34,16,24,4,0,1,0,-16
1523183503577252,-18,-7,9,3,-3,-2,-1,-2
1523183503577252,45,-44,-8,-6,-2,-3,0,30
1523183503586038,19,-24,-20,-1,-3,-3,1,-5
1523183503586038,-38,10,19,4,-1,-1,1,-25
1523183503600577,-6,-55,-35,-9,-3,-3,-6,1
1523183503600577,6,-23,31,9,-2,2,1,2
1523183503602582,64,34,9,2,1,4,10,73
1523183503602582,43,3,-11,-2,-6,-7,-9,45
1523183503623174,10,-12,-5,0,0,0,0,24
1523183503623174,-45,1,10,-3,0,2,3,-12
1523183503625142,-26,-13,-32,-3,-1,-1,-2,7
1523183503625142,-13,14,-4,3,2,2,1,-24
1523183503636672,14,0,-14,-6,-2,-4,1,11
1523183503636672,11,2,2,1,0,-1,0,-15
1523183503646197,-24,45,22,7,3,2,-2,-31
1523183503646197,13,-91,-16,-10,-5,-2,1,67
1523183503660736,2,63,-18,2,0,0,-5,2
1523183503660736,-12,-42,-6,-5,0,1,1,-4
1523183503662240,5,5,-12,-4,-3,-1,-3,-6
1523183503662240,37,-33,-13,5,1,-1,2,-23
1523183503683301,24,-6,16,3,0,2,8,63
1523183503683301,-97,-9,-16,-6,-4,-4,-7,-78
1523183503684800,22,16,3,-7,-6,-4,-8,5
1523183503684800,-12,24,9,-4,1,1,0,-18
1523183503696871,-11,-32,-18,-2,0,-3,-1,-26
1523183503696871,-8,-47,-33,3,1,0,-1,33
1523183503705856,-2,-23,31,-3,-3,-3,-2,-17
1523183503705856,-97,11,-7,1,-2,-2,-2,-41
1523183503720896,-34,-7,-16,-9,-5,-3,-2,20
1523183503720896,39,24,10,1,4,1,-1,-23
1523183503722401,2,6,5,-2,-4,-7,-4,56
1523183503722401,60,-7,-21,-7,-6,-5,-5,5
1523183503743457,2,-25,-4,-3,-4,-1,-1,-5
1523183503743457,20,-2,-5,-2,1,0,3,42
1523183503744960,6,47,-2,1,1,2,2,16
1523183503744960,7,45,3,2,2,1,0,-7
1523183503766019,10,21,16,-4,-4,-4,-4,-20
1523183503766019,-45,-27,1,-2,-3,-1,0,-6
1523183503767522,32,-4,21,4,0,-5,-3,-17
1523183503767522,15,1,-41,1,0,-1,-1,1
1523183503781098,-43,11,32,3,4,3,0,-38
1523183503781098,26,88,-16,1,1,1,-1,39
1523183503782560,42,57,-14,-1,3,4,4,38
1523183503782560,1,7,10,2,0,3,4,-35
1523183503803114,-45,-23,-11,2,-1,-1,-5,-26
1523183503803114,-6,2,-3,0,-3,-2,-2,-12
1523183503805121,-16,-56,-13,-2,-2,-2,0,36
1523183503805121,-26,39,7,3,1,-1,-2,-46
1523183503826177,25,12,4,-2,-2,0,0,18
1523183503826177,26,-14,-3,-2,-1,-3,-16,21
1523183503827811,25,-18,10,0,0,1,16,-50
1523183503827811,-37,-6,28,0,0,2,-2,13
1523183503840714,10,-17,-19,4,-1,1,0,2
1523183503840714,70,-30,2,-4,-4,-3,-6,-48
1523183503842219,-20,-14,4,-5,-7,-1,-11,-64
1523183503842219,-24,-13,2,0,0,-2,0,11
1523183503863275,-14,32,10,1,3,1,-1,-11
1523183503863275,30,9,12,-6,-7,-6,-8,3
1523183503864781,-6,-43,-1,2,2,1,-2,11
1523183503864781,-26,-17,-3,-4,-2,1,3,55
1523183503885835,39,-52,-11,-2,-3,-1,-4,1
1523183503885835,-45,-8,-4,4,3,1,6,5
1523183503887339,-24,-2,0,0,-1,0,-2,-48
1523183503887339,-5,7,2,-8,-2,-5,-5,-3
1523183503900377,93,-21,-17,4,3,2,7,22
1523183503900377,-38,27,-20,-8,-3,-2,2,33
1523183503906890,-19,-27,15,4,1,-1,-8,-82
1523183503906890,81,-41,-46,-7,0,0,2,-25
1523183503923436,-80,13,22,3,-2,-3,1,7
1523183503923436,60,19,7,5,-1,-2,2,-10
1523183503924939,-39,-7,-13,-3,0,1,0,52
1523183503924939,25,-5,8,2,-1,1,-2,2
1523183503946161,-60,-34,-1,-7,-1,-3,-3,-23
1523183503946161,79,-36,-24,-3,-1,-2,2,-1
1523183503947539,-23,6,-16,-6,-3,-1,2,24
1523183503947539,-32,25,13,-1,1,0,0,-17
1523183503960033,-49,0,9,4,-2,-1,0,-5
1523183503960033,-54,-35,0,0,-1,0,3,91
1523183503967052,12,-22,4,1,1,-3,-2,10
1523183503967052,-1,12,2,2,0,1,2,0
1523183503983098,39,-20,-3,1,4,2,1,39
1523183503983098,-45,18,7,0,-1,-3,-2,-31
1523183503985098,-2,13,11,2,-2,-2,-3,10
1523183503985098,-87,-8,-9,0,-5,-2,-2,-9
1523183504005654,53,7,1,-3,-4,-6,1,46
1523183504005654,-57,0,-1,3,2,1,-2,-49
1523183504007160,-29,3,24,-4,-3,-2,-2,-2
1523183504007160,17,-21,-47,-1,-2,0,0,3
1523183504020193,-22,53,9,2,1,1,0,-30
1523183504020193,26,62,8,-1,-2,1,5,30
1523183504027309,-28,-3,10,3,1,-3,-6,-49
1523183504027309,15,-75,-3,-9,-5,-3,-6,16
1523183504043252,-29,26,8,-1,-2,-1,-3,-32
1523183504043252,3,-1,0,-2,3,3,4,25
1523183504044757,24,0,-13,-3,-2,-3,-5,44
1523183504044757,-17,9,8,5,3,-2,-1,6
1523183504065812,15,-48,-5,-1,-1,-1,-2,-19
1523183504065812,-16,22,22,1,-3,0,0,-12
1523183504067319,21,-10,-3,0,1,4,6,20
1523183504067319,-34,23,-27,-6,-5,-6,-3,6
1523183504080461,1,28,17,5,-1,0,-3,34
1523183504080461,46,1,-9,0,0,-2,-1,-25
1523183504086870,-30,32,6,0,0,1,3,20
1523183504086870,41,-24,19,-3,-4,-5,-11,-36
1523183504103412,38,-15,-6,1,-2,-1,-2,-56
1523183504103412,50,8,7,-2,-1,1,3,1
1523183504104923,11,-49,-19,-2,-2,-3,-4,6
1523183504104923,-34,59,22,5,1,2,5,8
1523183504125973,-10,-18,-18,-3,1,2,2,-37
1523183504125973,-7,-4,23,1,-1,-3,-4,6
1523183504127477,31,-77,-25,-5,-2,0,4,15
1523183504127477,22,12,8,-1,-2,-2,-3,1
1523183504140009,-8,6,-9,-1,0,-1,0,9
1523183504140009,-43,0,11,-1,-2,-1,0,-17
1523183504147029,-17,27,-17,-2,-3,-2,-3,2
1523183504147029,74,-30,-8,0,0,4,3,34
1523183504163071,-3,-22,-2,-3,-2,-3,-3,21
1523183504163071,41,0,2,5,4,4,0,-39
1523183504165084,50,-41,-26,-8,-4,-7,-8,-7
1523183504165084,28,28,5,-3,-2,1,-1,-20
1523183504185631,-12,-13,-3,-3,-2,-2,0,27
1523183504185631,-28,-17,-13,0,0,1,4,-22
1523183504187638,-52,-16,13,0,0,1,0,-39
1523183504187638,47,-16,3,-2,-2,-3,0,31
1523183504200169,-15,-1,-2,-5,-1,-2,-3,7
1523183504200169,29,-13,3,-1,-3,-4,-5,9
1523183504206689,-7,32,-39,1,-5,-3,-2,28
1523183504206689,-18,-37,-8,-2,2,-2,-1,3
1523183504223272,15,40,14,-3,-1,-1,-1,-6
1523183504223272,48,-16,19,2,1,2,3,23
1523183504224737,-11,17,-4,-2,1,-1,-1,1
1523183504224737,-13,-6,9,3,-1,-1,-1,-6
1523183504246029,0,11,10,3,2,2,3,-5
1523183504246029,-10,-42,-15,-5,-5,-3,-3,-21
1523183504247297,18,24,12,10,-2,0,-6,-79
1523183504247297,-75,32,8,0,1,0,2,5
1523183504259340,24,63,-13,-6,0,1,3,-1
1523183504259340,-12,15,-38,-5,2,-3,-4,0
1523183504268352,5,-7,14,0,-2,0,2,56
1523183504268352,5,13,15,-1,-1,-2,-6,-82
1523183504283395,-37,-27,3,3,2,2,2,-22
1523183504283395,53,-13,4,1,0,-1,-5,25
1523183504284900,30,39,11,-7,-2,1,5,22
1523183504284900,2,66,-9,2,1,1,2,-10
1523183504305950,68,-18,7,-1,0,1,-2,-30
1523183504305950,-85,-17,-12,1,1,-2,-2,-12
1523183504307456,-35,-19,20,3,5,3,-1,-87
1523183504307456,30,-34,-11,-8,-5,-4,-4,38
1523183504319486,-12,18,-16,0,-4,-1,0,5
1523183504319486,-52,-1,6,-6,-2,-2,2,85
1523183504328512,60,-15,-8,-2,0,-4,-9,-66
1523183504328512,-56,37,4,2,1,-2,3,9
1523183504343050,-13,4,24,2,-1,-1,1,25
1523183504343050,-49,-68,1,-1,-3,-1,1,-7
1523183504345056,11,-16,-2,-11,-4,-5,-4,18
1523183504345056,46,-22,-9,6,4,5,1,-4
1523183504365612,58,-27,9,2,-5,-7,-10,7
1523183504365612,23,11,-15,-11,-6,-5,-1,3
1523183504367617,-29,57,-1,-3,1,1,3,8
1523183504367617,-51,-15,10,7,1,2,-1,-12
1523183504379383,2,-16,-1,-4,-5,-5,-4,-12
1523183504379383,4,15,16,1,-2,-1,-6,24
1523183504388170,26,-27,-16,-1,1,-1,1,29
1523183504388170,50,13,-16,-10,-3,-3,-5,-40
1523183504403211,-9,-31,9,6,1,0,1,35
1523183504403211,-85,6,4,-2,0,2,2,-46
1523183504404714,-10,0,17,-1,0,-2,-3,-12
1523183504404714,28,-42,8,0,0,1,0,-13
1523183504426005,-16,28,-14,-7,-5,-1,-6,9
1523183504426005,67,24,-2,3,1,1,-2,-39
1523183504427783,-42,-7,6,8,-1,1,5,69
1523183504427783,12,17,12,-2,-4,-4,-4,54
1523183504439304,-22,-21,-14,-6,1,1,-1,-7
1523183504439304,9,-26,-19,-6,-2,-1,1,10
1523183504448335,-56,35,6,6,2,3,3,9
1523183504448335,-8,-1,1,2,-3,-2,0,29
1523183504463369,-56,-5,6,-4,-1,-1,0,15
1523183504463369,-28,19,5,5,4,2,3,-35
1523183504464875,38,-73,-21,-8,-5,-5,-7,16
1523183504464875,-19,-32,-8,-1,1,-2,-2,-16
1523183504485929,-7,-12,-5,0,-1,1,-1,-8
1523183504485929,2,-8,11,-4,-4,-2,-2,-44
1523183504487434,28,0,-35,-4,-1,-5,-2,5
1523183504487434,65,19,17,0,0,3,3,22
1523183504499468,4,16,-19,4,1,0,0,18
1523183504499468,14,1,-1,-6,-5,-3,-10,-64
1523183504508490,-7,119,23,2,-1,4,3,5
1523183504508490,17,-23,3,2,0,-1,2,13
1523183504523067,4,10,1,4,3,0,3,8
1523183504523067,-12,-37,-17,-5,-3,-3,0,68
1523183504525074,-29,-32,7,-3,-3,-3,-3,-35
1523183504525074,-28,-4,-18,-1,0,-1,4,-16
1523183504545917,18,0,6,2,-1,0,0,-4
1523183504545917,-5,39,-4,1,1,-2,0,41
1523183504547378,83,-16,-11,-4,2,2,4,0
1523183504547378,-59,2,1,1,-2,-1,-2,19
1523183504559411,13,-51,-8,-10,-9,-7,-11,-29
1523183504559411,-39,7,12,1,0,3,3,-10
1523183504568435,27,16,-1,1,-3,-1,0,-15
1523183504568435,27,2,-1,-2,-2,-3,-2,-17
1523183504583514,-8,-19,-8,-6,1,0,0,-22
1523183504583514,6,-32,-5,2,-2,-4,3,82
1523183504584980,-24,-1,24,3,2,0,-2,-44
1523183504584980,-16,-16,-8,-6,-3,-2,-2,3
1523183504606035,12,20,-3,1,-1,0,4,24
1523183504606035,-9,-8,0,3,0,-2,-4,15
1523183504607539,-21,-4,-4,-2,0,-1,-1,25
1523183504607539,32,-4,8,-4,-4,-2,-4,3
1523183504619570,-32,3,0,-4,-1,-1,3,-4
1523183504619570,40,57,1,3,1,1,2,-11
1523183504628596,39,9,1,-1,-5,-4,0,1
1523183504628596,-11,7,2,-3,0,0,-4,-20
1523183504643134,-37,-48,-26,-1,1,-3,-3,26
1523183504643134,-43,8,10,2,0,0,1,-25
1523183504645139,42,-9,3,3,0,0,3,40
1523183504645139,8,-59,2,-4,-4,-7,-9,-57
1523183504665699,26,44,9,2,-1,2,1,6
1523183504665699,-37,-68,-18,-7,-2,-4,-4,-19
1523183504667197,34,-67,-7,6,2,-1,0,1
1523183504667197,-14,1,1,-5,-2,2,1,4
1523183504679467,-62,10,11,2,0,2,3,2
1523183504679467,25,3,-11,-5,-4,-2,-7,-83
1523183504688253,-32,-20,-2,0,-2,-1,-3,-2
1523183504688253,-6,4,5,4,2,0,-1,38
1523183504703334,-12,31,-21,-3,-1,-1,-2,11
1523183504703334,60,-4,-5,-8,-5,-5,-3,2
1523183504704797,-21,17,0,1,-1,-1,-1,43
1523183504704797,6,1,-11,-1,0,-1,0,-4
1523183504725853,56,-3,2,0,-1,-1,-1,-20
1523183504725853,9,3,13,4,2,2,2,23
1523183504727358,53,19,-9,-3,-2,-3,-4,7
1523183504727358,60,16,-1,-6,-4,-4,1,21
1523183504748434,-5,-71,-5,-5,-1,-2,-2,-1
1523183504748434,-8,42,7,7,4,2,4,58
1523183504749943,-118,-26,4,-4,0,-2,-4,-64
1523183504749943,-44,-6,-3,3,0,1,0,2
1523183504763477,28,21,3,-3,-3,-3,-3,-30
1523183504763477,-15,-7,-2,-2,-4,-3,-6,-40
1523183504764985,-18,5,2,-6,-1,0,1,13
1523183504764985,-9,54,19,4,4,2,3,5
1523183504785608,-72,-39,-38,-7,-4,-5,-3,-24
1523183504785608,-5,22,8,3,0,1,2,0
1523183504787613,-10,-19,-10,-3,-4,-2,-1,8
1523183504787613,-8,-12,-5,-2,-1,1,5,7
1523183504808169,25,32,37,5,0,-1,-2,40
1523183504808169,-5,12,-9,-2,0,0,-1,20
1523183504809673,45,13,-3,-4,0,1,0,-9
1523183504809673,1,4,1,6,-1,-1,-2,-38
1523183504823208,-19,10,5,1,-2,-2,-2,1
1523183504823208,-4,-40,-14,-4,-1,-2,0,-1
1523183504825324,9,-1,19,7,2,2,0,-12
1523183504825324,-42,37,-16,-5,-3,0,-1,3
1523183504845785,20,-15,6,-2,0,2,-3,-29
1523183504845785,26,-37,-19,-2,1,-2,-2,12
1523183504847562,11,-14,3,0,-3,1,1,17
1523183504847562,-28,-32,-8,-4,-1,0,-1,-13
1523183504868112,89,60,28,-3,-7,-6,2,80
1523183504868112,-82,-18,-7,-4,-1,-1,-1,-8
1523183504870119,25,-28,-20,0,-1,-2,-3,-12
1523183504870119,77,-5,-8,1,-2,-1,-2,-2
1523183504882649,-18,-31,16,1,1,2,5,22
1523183504882649,-46,-1,16,-3,-2,-2,0,2
1523183504896922,16,-53,10,-3,-1,-2,-4,-42
1523183504896922,55,-31,-32,-4,-2,-1,0,35
1523183504905710,-7,-5,-20,-1,0,1,-3,-22
1523183504905710,13,7,10,0,-3,-4,-3,-15
1523183504907215,33,34,3,1,2,1,1,12
1523183504907215,-11,-59,-4,-10,-6,-5,-8,-71
1523183504928269,-1,-2,9,1,-1,-3,-5,1
1523183504928269,24,14,-5,-4,-2,0,1,7
1523183504929773,-22,23,18,0,-2,-3,-1,3
1523183504929773,33,-10,12,-1,0,-3,0,27
1523183504942807,-77,36,-23,-2,-1,-1,-2,-10
1523183504942807,-9,23,15,-2,-3,-2,1,-6
1523183504949344,1,-22,-10,0,1,0,0,62
1523183504949344,11,2,-1,3,1,1,-3,-33
1523183504965879,84,14,18,4,0,-1,-2,-7
1523183504965879,24,-9,-5,0,1,0,3,24
1523183504967374,-70,-1,0,-6,0,1,-1,-32
1523183504967374,6,20,-43,0,0,-1,1,49
1523183504988437,7,0,2,-3,-1,-1,0,41
1523183504988437,5,-3,19,-2,-3,-1,-5,-70
1523183504989934,-20,-22,-7,-1,-1,-3,1,16
1523183504989934,-40,21,26,1,1,2,0,10
1523183505002504,-13,-42,-23,-3,-5,-4,-1,-20
1523183505002504,25,-6,-12,-1,1,3,5,17
1523183505009485,-38,23,4,-4,-3,-4,-2,-13
1523183505009485,-45,-15,-8,1,-2,-1,2,53
1523183505026107,-45,-12,-3,0,-2,1,2,29
1523183505026107,5,14,-7,5,0,1,-3,9
1523183505027758,-44,-34,-19,-7,-3,-2,-3,-36
1523183505027758,-14,-13,22,6,3,2,0,-38
1523183505048091,-14,5,-9,-1,2,0,-2,-56
1523183505048091,17,-32,-7,-5,-3,-6,-9,-60
1523183505050095,-7,21,9,3,-1,-1,1,35
1523183505050095,-25,24,15,3,-1,-3,-1,-2
1523183505062627,-9,-35,-25,-2,3,2,3,-41
1523183505062627,-3,0,3,1,0,-1,1,45
1523183505069724,22,20,-7,-6,-7,-5,-9,-21
1523183505069724,7,78,7,4,0,0,1,23
1523183505085689,-75,6,0,-5,0,2,4,41
1523183505085689,13,-20,-4,-1,-2,-1,-4,-4
1523183505087192,36,19,-9,-2,0,-2,-1,26
1523183505087192,4,1,5,1,0,2,1,-5
1523183505108249,18,-6,7,-1,-3,-2,-4,-4
1523183505108249,-2,40,1,1,2,4,8,72
1523183505109752,54,12,-10,6,-3,-3,-5,-33
1523183505109752,-68,-87,18,-6,-3,-2,-3,-11
1523183505122787,27,-1,-44,-2,1,-1,-2,2
1523183505122787,8,-5,-4,-1,1,0,0,-2
1523183505129542,-17,-40,1,-4,-2,0,1,-4
1523183505129542,-35,-13,8,0,-1,-3,0,30
1523183505146086,-26,12,-2,-6,-5,-5,-3,-7
1523183505146086,-16,44,8,-1,0,-3,2,3
1523183505147353,-4,4,-21,-5,-2,-3,-5,35
1523183505147353,-7,25,-3,-4,-3,-2,-1,-22
1523183505168408,25,-81,20,6,1,3,-1,3
1523183505168408,-8,-1,-7,1,1,0,0,-9
1523183505169912,-26,4,15,-2,-1,0,1,3
1523183505169912,32,-5,-20,3,2,2,2,18
1523183505182487,-20,41,15,-7,-2,-3,-2,-1
1523183505182487,5,-21,-17,2,-1,0,0,16
1523183505189464,-39,25,15,0,3,0,0,-15
1523183505189464,6,20,-6,-2,-3,0,-2,-19
1523183505206008,17,-4,11,3,-1,-2,0,34
1523183505206008,25,5,10,-4,-5,-6,-9,-38
1523183505207553,-5,33,-8,-2,-2,1,1,12
1523183505207553,5,-29,-13,-3,2,-3,-2,12
1523183505228632,30,-48,-4,0,0,0,-2,-13
1523183505228632,52,83,7,0,0,-1,3,38
1523183505230282,-15,-45,5,0,-2,-1,-2,-6
1523183505230282,-6,-17,-19,-12,-6,-3,-3,-17
1523183505242114,11,9,6,1,0,-2,-1,-4
1523183505242114,-95,43,0,-2,-2,-2,-2,-26
1523183505251128,69,-18,8,4,0,-1,-1,6
1523183505251128,3,31,-6,-2,1,0,0,-16
1523183505266169,33,27,17,3,2,1,3,-2
1523183505266169,-13,-46,5,3,-5,-6,-10,27
1523183505267171,-57,36,-3,-8,-1,0,0,-8
1523183505267171,5,-33,-8,-4,-3,-2,-2,2
1523183505288226,1,23,-4,5,2,2,0,25
1523183505288226,61,-46,-8,-5,-1,-1,1,11
1523183505289731,36,20,17,2,0,2,-2,24
1523183505289731,22,-30,2,2,-1,-3,-8,-2
1523183505301763,-15,40,3,-9,-3,-1,-1,16
1523183505301763,-29,-32,7,0,0,3,1,-40
1523183505310787,-5,-9,-24,1,-1,-2,0,68
1523183505310787,-2,40,18,0,3,0,2,9
1523183505326064,2,-77,6,-4,-7,-5,-5,-38
1523183505326064,4,-27,-5,-2,1,1,0,6
1523183505327332,-13,-2,10,4,0,3,6,-12
1523183505327332,28,-8,17,3,0,-2,-4,-20
1523183505348387,19,17,-46,-3,-4,-3,-1,7
1523183505348387,6,9,-7,-11,-2,2,3,-11
1523183505349891,-2,0,28,8,5,4,6,45
1523183505349891,-12,-9,-66,-8,-5,-4,-5,-8
1523183505361922,-36,16,17,5,0,2,1,-16
1523183505361922,61,-19,1,3,2,3,1,-31
1523183505378467,44,94,-8,-5,-2,-5,-1,10
1523183505378467,-27,35,23,6,4,2,3,23
1523183505385986,32,0,9,-1,0,1,-3,-43
1523183505385986,4,-18,-23,-4,-2,-2,-2,8
1523183505387492,15,-25,17,3,-3,-1,-2,-32
1523183505387492,-48,10,17,1,-2,-1,-3,-31
1523183505408046,-77,-6,-18,-6,-4,0,1,-12
1523183505408046,-13,25,-8,1,0,-3,-3,8
1523183505410050,5,3,-27,-7,1,-2,-2,-35
1523183505410050,70,16,13,0,0,1,6,96
1523183505422081,14,-9,33,7,-1,-2,-1,-15
1523183505422081,-39,4,6,-1,-5,-3,-4,13
1523183505431107,-38,-28,-10,-3,-4,-2,-4,-15
1523183505431107,-9,25,-6,1,0,1,4,1
1523183505453165,-30,-39,-1,-2,3,0,2,-4
1523183505453165,-11,17,24,-3,1,1,-3,-22
1523183505454668,0,-29,-38,4,-1,-1,0,-16
1523183505454668,-51,-12,19,-1,-1,-1,-3,-30
1523183505468204,-28,51,-19,0,2,2,-4,-22
1523183505468204,-23,4,13,-1,-3,-2,2,3
1523183505470208,63,22,-13,-4,0,-1,-1,2
1523183505470208,-2,-16,-5,-3,-5,-2,-4,-4
1523183505482243,13,10,-2,0,-1,-2,-1,9
1523183505482243,-60,-3,-4,2,2,1,6,4
1523183505490765,-77,4,2,-3,-1,-1,0,2
1523183505490765,32,-4,-5,-2,-2,0,2,20
1523183505505804,41,-23,-7,-6,-2,-4,-7,-74
1523183505505804,-30,-43,29,10,3,-2,-1,-10
1523183505507309,11,29,-6,-9,0,0,1,20
1523183505507309,0,4,7,5,-1,-1,-2,7
1523183505528364,-27,-84,11,-1,-3,-2,0,-6
1523183505528364,5,-12,-38,-16,-3,-1,1,7
1523183505529869,59,-20,57,13,0,-6,-4,15
1523183505529869,54,10,21,-8,-2,-2,-1,-9
1523183505541902,-10,37,-2,7,0,0,1,47
1523183505541902,52,-18,38,12,2,-2,-3,-30
1523183505550924,24,51,5,-3,-1,0,2,48
1523183505550924,-32,-33,-6,-7,-5,-4,-4,-84
1523183505565967,2,12,-20,-3,-3,-5,-3,59
1523183505565967,-14,-17,-14,-2,0,1,0,25
1523183505567472,-48,-2,-14,-2,-1,0,0,-18
1523183505567472,-59,33,25,8,3,3,3,13
1523183505588023,-10,12,-95,-33,-11,-8,-5,-30
1523183505588023,-25,8,9,8,2,-4,-16,6
1523183505590030,46,-19,-1,-4,-6,-2,12,-14
1523183505590030,-21,18,13,11,3,4,1,6
1523183505602061,-24,-27,19,5,-2,-2,-2,28
1523183505602061,13,25,-95,-30,-8,-2,-4,7
1523183505611084,-33,-32,48,6,2,2,-4,0
1523183505611084,37,-2,-6,-7,-5,-6,-2,33
1523183505626123,4,9,-4,11,6,3,3,67
1523183505626123,22,-3,13,1,-3,1,2,-79
1523183505627737,-71,-9,-2,-4,0,-2,-8,6
1523183505627737,65,21,-12,-4,1,0,2,1
1523183505648186,-30,-12,-26,-5,-2,-1,-1,-14
1523183505648186,-8,-4,24,9,-1,0,2,-8
1523183505649689,-1,-17,0,-4,2,1,1,-28
1523183505649689,-61,51,17,9,1,1,-2,0
1523183505670743,102,-39,26,-3,3,-3,-4,-11
1523183505670743,0,41,-42,-10,0,1,4,16
1523183505672247,-25,-48,15,4,-4,-3,-4,-30
1523183505672247,3,-38,-9,-7,-2,-2,-2,-7
1523183505684278,-3,-16,30,5,-3,2,5,-5
1523183505684278,-67,17,17,1,-2,0,0,53
1523183505693303,-3,-23,-47,-11,-3,-4,-5,-46
1523183505693303,-42,-28,-2,-4,-4,-2,0,26
1523183505708342,3,30,75,-2,1,1,2,0
1523183505708342,6,-16,22,13,2,0,-1,10
1523183505709848,-93,49,13,0,1,1,3,-9
1523183505709848,35,-14,6,0,-2,-4,-9,-17
1523183505731404,-4,7,-22,0,-1,-1,-3,-35
1523183505731404,9,-47,-45,-10,-2,-4,1,16
1523183505732911,14,52,27,5,0,0,-4,6
1523183505732911,-71,-33,-24,-8,-1,0,0,-24
1523183505746132,8,12,27,3,1,2,3,46
1523183505746132,64,49,9,-6,-10,-11,-20,-83
1523183505747452,18,-44,-61,-2,0,-2,1,35
1523183505747452,18,-32,-17,-6,-2,1,2,21
1523183505768502,10,78,9,3,0,1,1,-30
1523183505768502,-17,15,24,7,2,2,5,24
1523183505770008,56,-19,11,1,0,1,-4,-21
1523183505770008,16,6,-13,-9,-7,-5,-7,-22
1523183505790563,-19,-29,-10,-1,2,-1,0,-13
1523183505790563,20,55,-25,5,3,3,3,3
1523183505792566,-71,19,5,-11,-4,-3,-2,-3
1523183505792566,-13,23,13,7,3,1,0,11
1523183505805142,46,16,-23,-2,-2,-1,-3,-4
1523183505805142,22,-25,36,9,1,-1,2,26
1523183505812118,-79,-19,2,-1,0,-1,0,12
1523183505812118,23,21,-10,-8,-3,-1,2,67
1523183505828405,-2,-10,13,6,-2,-1,-2,41
1523183505828405,27,56,4,2,0,0,0,18
1523183505830167,53,-9,-18,3,2,5,6,51
1523183505830167,29,-4,10,3,1,1,1,-17
1523183505850760,-14,-1,-3,-4,-1,-3,-3,26
1523183505850760,33,-58,34,-1,-6,-2,1,-2
1523183505852225,0,-3,-31,-3,-1,-1,-1,0
1523183505852225,-34,79,-47,-8,-3,1,-1,-19
1523183505865267,-1,58,-4,9,1,3,2,-21
1523183505865267,-51,-62,-5,-2,-2,0,3,-3
1523183505872015,88,7,41,4,-3,-4,-7,2
1523183505872015,13,-26,54,6,1,0,1,-4
1523183505888322,-28,41,-74,-31,-5,-3,-2,-25
1523183505888322,0,-33,22,6,1,0,-1,10
1523183505889825,61,-5,-45,-14,-4,-5,-7,44
1523183505889825,-12,-18,40,15,1,0,1,50
1523183505910881,44,-30,42,9,2,-2,-3,9
1523183505910881,-41,34,-27,-4,4,3,6,5
1523183505912386,9,6,-13,-4,-2,-1,-1,-33
1523183505912386,-10,-36,-6,-2,-2,-1,-1,-22
1523183505925480,10,-14,15,-5,-7,-5,-2,50
1523183505925480,0,10,8,4,1,-2,-2,3
1523183505931766,-26,-26,50,1,-5,-2,-2,-21
1523183505931766,11,-62,-48,0,1,-1,-2,6
1523183505948268,38,14,24,-3,-6,-5,-6,-1
1523183505948268,-10,-41,-19,-4,-2,-1,1,-2
1523183505949769,-24,-7,6,-1,-1,0,3,-6
1523183505949769,29,-12,29,1,0,-3,1,13
1523183505970826,-125,-38,-69,-11,0,0,-1,-86
1523183505970826,105,10,-5,2,1,-1,-1,65
1523183505972328,-54,21,37,-3,-3,-2,-5,-47
1523183505972328,-44,0,-35,-5,-3,1,1,18
1523183505984863,-26,-66,-4,6,-1,-1,0,28
1523183505984863,-12,26,16,-9,-4,-1,0,-2
1523183505991919,9,-16,9,6,1,3,3,-52
1523183505991919,81,5,17,-6,-1,0,-1,1
1523183506008651,1,14,33,12,3,0,0,13
1523183506008651,-33,48,1,-2,-1,-4,-3,-21
1523183506009928,-60,60,-9,-5,1,2,-13,33
1523183506009928,24,-6,-36,-11,-3,-5,10,-83
1523183506030484,-36,-27,-32,-3,-3,0,-2,17
1523183506030484,12,-5,8,4,1,2,-2,-4
1523183506032501,19,-21,5,3,0,-2,2,60
1523183506032501,-21,-31,2,-13,-5,-4,-9,38
1523183506045257,28,-4,-19,-1,4,2,5,15
1523183506045257,-20,-42,1,-3,-2,-3,-3,-22
1523183506052042,4,-18,-1,8,0,0,-1,-10
1523183506052042,25,-22,13,-1,0,-1,-4,-6
1523183506068083,70,-4,-24,-7,-6,-5,0,2
1523183506068083,-29,-19,14,-2,-2,-1,-3,-5
1523183506070088,57,-11,2,2,2,-3,3,19
1523183506070088,-49,12,-3,4,1,0,1,14
1523183506090643,-38,21,38,7,1,2,1,56
1523183506090643,-15,-55,6,1,1,0,0,23
1523183506092147,27,28,-56,-22,-8,-5,-1,8
1523183506092147,-50,-7,0,0,-2,-1,-2,-12
1523183506105417,10,37,44,10,3,-1,-1,-17
1523183506105417,-2,34,-52,-19,-7,-4,-7,-62
1523183506112324,5,3,10,13,5,4,5,5
1523183506112324,-11,26,14,4,2,0,-1,19
1523183506128479,-5,-70,-18,-12,-4,-2,0,-48
1523183506128479,35,9,-3,3,-2,-3,-6,10
1523183506130260,9,-38,0,-4,0,-1,1,-26
1523183506130260,60,26,-34,0,-2,-2,-3,-13
1523183506150804,-78,-41,-27,-2,-2,-1,-3,-30
1523183506150804,18,9,-12,-3,0,2,3,-30
1523183506152307,17,-3,-19,-2,-3,-4,-6,0
1523183506152307,0,-13,22,7,0,-3,-2,43
1523183506164356,33,13,26,8,2,1,1,9
1523183506164356,-30,-69,-50,-20,-9,-7,-3,3
1523183506173370,-38,0,37,11,5,3,2,-3
1523183506173370,-62,-61,-38,-12,-2,0,2,23
1523183506188447,62,62,9,-2,-2,-4,-7,-18
1523183506188447,-6,10,-54,0,0,2,5,28
1523183506189915,50,4,0,0,-3,0,3,23
1523183506189915,67,46,-19,5,3,2,1,-6
1523183506211471,-60,-10,31,-4,-4,-3,-3,-9
1523183506211471,16,41,-10,1,2,0,-3,22
1523183506212977,-37,-14,-4,5,-2,-1,2,-11
1523183506212977,-32,-7,14,3,0,1,-1,0
1523183506224509,19,-11,4,1,-2,-3,-7,-42
1523183506224509,-24,5,24,1,1,0,2,-10
1523183506233531,-41,-14,1,-1,-1,-2,-5,-11
1523183506233531,55,21,9,4,2,1,4,24
1523183506248074,44,22,-30,-23,-6,-4,-3,40
1523183506248074,-45,21,54,5,-2,-2,1,35
1523183506250076,13,-36,9,-12,-6,-3,-20,-30
1523183506250076,-59,-29,11,5,-1,-1,5,-44
1523183506270636,28,-12,5,12,3,3,11,9
1523183506270636,3,7,4,-4,-3,-4,-2,-1
1523183506272634,4,1,11,1,-3,-3,-2,34
1523183506272634,10,29,-8,2,2,1,-7,-7
1523183506284166,-7,-18,-3,5,0,1,-2,-71
1523183506284166,19,-20,59,6,0,-1,-1,15
1523183506293690,-11,5,-109,-25,-4,-1,4,-4
1523183506293690,23,2,50,5,-2,0,-2,2
1523183506308229,-52,-7,17,-2,-1,-1,2,33
1523183506308229,24,19,15,4,-1,-1,-2,65
1523183506309733,-10,17,10,4,1,-2,1,-25
1523183506309733,-29,-2,-24,-11,-3,-1,-2,-7
1523183506330791,-16,1,-38,-7,-4,-5,-5,38
1523183506330791,23,-39,-14,-8,-3,1,1,-28
1523183506332293,-27,50,-1,2,0,-1,3,13
1523183506332293,-60,-62,7,-4,-5,-5,-4,-4
1523183506344561,-2,24,14,0,5,5,2,22
1523183506344561,64,-46,13,-5,-2,-4,-6,-45
1523183506353349,-2,-19,-76,-6,-3,-3,3,-5
1523183506353349,5,-3,48,4,-2,0,-1,-13
1523183506368391,12,-41,-63,-10,-3,-1,-1,-9
1523183506368391,3,-25,-47,-1,0,-1,1,9
1523183506369893,12,-6,41,7,3,2,3,7
1523183506369893,-6,2,4,2,1,-3,-2,11
1523183506390949,33,-5,-24,-5,-4,-2,-3,49
1523183506390949,-62,29,-19,-2,3,4,4,-24
1523183506392453,32,-2,21,-2,-7,-5,-9,16
1523183506392453,22,28,-26,-3,-2,-3,-2,-25
1523183506404485,17,28,45,10,6,4,3,-9
1523183506404485,-13,-70,5,-3,-4,-3,0,1
1523183506413514,-15,68,15,7,4,5,4,7
1523183506413514,40,82,8,-5,-3,-3,-4,35
1523183506428620,-32,52,-43,-5,-3,-2,-1,-24
1523183506428620,-9,-31,1,2,-2,-2,-2,-12
1523183506430058,-78,-69,34,-1,3,3,4,-27
1523183506430058,-7,12,-38,-4,-2,-2,-2,4
1523183506450608,5,-42,-9,1,2,0,0,-5
1523183506450608,14,29,8,-2,-7,-4,2,54
1523183506452612,56,6,-3,-2,-3,-5,-2,17
1523183506452612,-7,-39,27,7,0,-2,-1,-13
1523183506464646,-46,-53,-29,-13,-5,-4,-5,-14
1523183506464646,22,61,33,6,4,2,-2,-49
1523183506473669,19,-55,13,4,-3,1,-2,6
1523183506473669,17,-9,-80,-10,-5,-2,-3,-32
1523183506488207,38,28,76,11,1,0,-5,-60
1523183506488207,-29,14,5,-3,2,-1,1,-23
1523183506489712,4,-33,-2,-1,1,0,3,9
1523183506489712,-14,38,19,-1,-1,-2,-3,3
1523183506510766,17,36,27,6,0,1,3,19
1523183506510766,45,-30,-5,-4,-3,-2,-4,-9
1523183506512274,-16,-2,-15,0,2,-1,-3,-32
1523183506512274,-37,-61,-23,-10,-7,-5,-2,2
1523183506524303,38,18,7,6,2,2,1,4
1523183506524303,12,29,35,-2,-4,-3,-2,42
1523183506533326,-68,22,-9,-5,-4,-1,0,6
1523183506533326,28,-17,40,8,4,1,-3,-53
1523183506548868,-17,-11,-50,-6,1,-1,0,3
1523183506548868,-19,14,5,6,-2,-1,-3,-77
1523183506550373,-55,-52,-15,-7,-1,-1,2,34
1523183506550373,23,-40,-31,-10,0,-1,0,11
1523183506570926,-4,-15,14,-3,-6,-6,-3,6
1523183506570926,-28,-34,0,6,4,3,4,-7
1523183506572432,66,10,-22,-8,-7,-5,-7,-20
1523183506572432,-41,5,16,6,3,3,0,-5
1523183506593646,-8,-38,7,6,1,-2,0,-3
1523183506593646,-6,7,-6,-4,-2,1,-1,6
1523183506595222,4,3,5,-4,0,-1,-3,-17
1523183506595222,23,-45,-12,-3,-4,0,2,13
1523183506608064,-13,-70,7,0,-4,-1,0,-6
1523183506608064,-16,26,9,5,4,3,7,81
1523183506610031,-41,19,-3,2,3,0,-2,-48
1523183506610031,49,7,24,0,-2,-2,0,34
1523183506631096,-9,-36,28,-1,-3,-4,-2,16
1523183506631096,-15,1,-43,-6,1,-3,1,10
1523183506632591,0,4,22,3,0,2,0,-16
1523183506632591,-3,-11,-2,-8,-4,-1,-1,-15
1523183506653145,33,28,21,-5,-2,-2,-5,6
1523183506653145,-31,10,-38,2,0,0,-3,-42
1523183506654650,62,-1,-9,-9,-7,-7,-1,46
1523183506654650,-25,29,-4,3,1,2,3,-15
1523183506668185,-12,48,37,11,3,4,3,-15
1523183506668185,56,-24,-29,-12,-5,-6,-11,20
1523183506669690,-23,-22,-29,-12,-5,-4,0,25
1523183506669690,-2,56,-14,7,3,2,3,22
1523183506690746,2,-13,-10,-1,-4,-4,-1,-14
1523183506690746,-37,-45,28,4,1,-2,-2,-54
1523183506692250,-3,20,10,0,-1,0,3,-19
1523183506692250,39,-10,-7,-4,-2,-4,-3,6
1523183506713308,-22,10,-16,1,1,2,3,23
1523183506713308,-1,-29,-9,-8,-6,-2,-2,11
1523183506714812,0,17,36,5,-1,-2,-2,-11
1523183506714812,-28,-8,-17,3,3,1,-1,-20
1523183506728345,26,43,-22,-5,-5,-5,-4,24
1523183506728345,7,-25,-15,-1,-1,-2,-2,13
1523183506729853,-9,3,12,4,-1,1,-1,-33
1523183506729853,60,-50,30,1,0,1,-4,36
1523183506750906,-14,-10,-72,-5,-4,-2,5,79
1523183506750906,-72,9,22,-1,-2,-4,-2,-6
1523183506752446,16,-2,6,2,1,0,2,37
1523183506752446,-29,2,12,-2,-2,-3,0,-17
1523183506773465,11,-12,-1,-2,-1,3,-2,-16
1523183506773465,-4,10,38,3,-1,1,0,-3
1523183506775206,4,26,-16,2,-1,1,2,-18
1523183506775206,-16,-50,-34,-22,-11,-8,-6,18
1523183506787788,70,22,31,3,2,-1,-4,-16
1523183506787788,22,32,-9,3,2,1,4,-5
1523183506794807,48,32,27,6,0,-1,0,-7
1523183506794807,-20,10,-14,0,-1,0,0,-20
1523183506810850,8,-9,12,-2,0,0,-1,-45
1523183506810850,-5,-20,-49,-8,-4,0,-6,-50
1523183506812353,-9,-12,4,2,-3,-3,-2,20
1523183506812353,48,4,11,0,-2,-2,-2,3
1523183506840929,-15,-12,3,-5,-1,-4,-4,-12
1523183506840929,-12,21,11,3,2,0,3,28
1523183506842433,47,-11,-5,0,1,0,-3,-9
1523183506842433,-34,16,-2,0,1,-1,-1,-18
1523183506847490,-49,5,10,-1,-2,-1,-1,10
1523183506847490,-19,-12,2,-7,-5,-5,-7,16
1523183506854700,-40,-19,-10,-3,1,1,0,-8
1523183506854700,12,-7,5,-2,-3,-3,0,-13
1523183506871008,-57,-11,13,1,2,1,0,16
1523183506871008,-30,20,3,-3,-4,-2,-1,9
1523183506872513,28,-15,14,2,1,0,-5,-44
1523183506872513,-38,8,-8,-1,-1,0,0,18
1523183506893304,-41,-12,4,1,1,1,5,13
1523183506893304,36,-7,-23,-1,0,-2,-5,-60
1523183506895071,-27,36,28,3,-2,-1,-3,-2
1523183506895071,9,2,-15,-2,-2,-3,-5,22
1523183506907842,22,1,6,-1,-4,0,-1,-2
1523183506907842,48,-28,5,-4,3,1,0,-14
1523183506914625,-31,-19,9,8,3,-2,1,29
1523183506914625,47,43,17,-1,-2,-2,0,-6
1523183506930675,2,-1,13,0,-3,-3,-6,8
1523183506930675,23,-20,0,-1,-1,-2,-1,64
1523183506932173,1,2,-40,-3,0,0,3,11
1523183506932173,-44,25,8,2,2,1,0,48
1523183506953228,41,-32,15,2,-3,-4,-4,-29
1523183506953228,-21,34,-15,0,-1,2,3,12
1523183506955281,7,10,1,-3,0,-1,3,51
1523183506955281,-15,-37,5,3,1,2,1,34
1523183506968266,4,18,-30,-8,0,0,-4,-14
1523183506968266,-29,-46,28,6,3,2,0,-9
1523183506974284,37,-43,-15,-6,-6,-2,-3,-4
1523183506974284,-14,-26,25,6,2,2,6,-50
1523183506990827,2,-6,-7,-2,1,1,1,-13
1523183506990827,-62,5,8,3,2,2,3,-22
1523183506992332,54,23,-18,-7,-7,-7,-10,-26
1523183506992332,-20,94,11,5,2,2,5,41
1523183507013386,-31,-5,-17,-10,-2,-3,-1,24
1523183507013386,34,2,-29,0,-1,0,4,9
1523183507014895,-73,-1,5,1,0,2,2,0
1523183507014895,-23,-28,-8,-6,-6,-6,-6,-86
1523183507027661,56,42,44,3,3,2,1,-19
1523183507027661,9,16,5,0,0,-2,-1,7
1523183507034443,-10,-8,22,-2,-2,-1,-1,-8
1523183507034443,21,5,-31,-5,-1,0,1,4
1523183507050986,-21,-11,-3,-2,-2,-1,3,-3
1523183507050986,-3,30,-13,-1,-2,-2,-6,22
1523183507052496,15,-39,24,-2,-7,-4,-1,3
1523183507052496,-73,-67,12,1,1,0,1,-46
1523183507073083,-6,-37,-18,-4,-2,-4,-4,54
1523183507073083,62,-48,-28,-5,-1,-1,-3,21
1523183507075086,-44,-28,-9,-3,-2,-4,-3,3
1523183507075086,-22,10,-1,2,0,-1,-1,-2
1523183507087082,-13,6,6,0,-5,-2,-2,-2
1523183507087082,-2,13,20,5,1,1,1,-14
1523183507096108,-4,-12,-17,-5,-2,-1,-1,9
1523183507096108,28,5,15,3,3,4,1,-5
1523183507118401,27,26,-15,3,1,0,1,-24
1523183507118401,-48,-26,-23,-9,-4,-2,0,37
1523183507119669,-26,-54,-3,-2,0,0,2,-14
1523183507119669,16,35,7,3,0,0,-2,-7
1523183507133206,-76,-23,3,5,5,8,14,66
1523183507133206,34,34,-16,-8,-6,-6,-6,3
1523183507134710,-6,20,-4,2,0,0,0,22
1523183507134710,5,-48,-19,-10,-5,-4,-1,6
1523183507146744,-28,20,1,4,2,1,2,-23
1523183507146744,-7,-27,19,0,0,-1,5,18
1523183507155766,11,0,-10,-5,-1,-1,-3,13
1523183507155766,9,10,4,3,3,4,1,15
1523183507170805,28,-26,-44,-6,-3,-2,-4,-35
1523183507170805,-38,-29,38,-3,-5,-4,-3,9
1523183507172311,42,-16,5,5,1,0,-1,-25
1523183507172311,-56,9,1,-3,-3,-3,-5,-16
1523183507193601,51,-16,9,3,2,0,-2,15
1523183507193601,1,-7,-45,-1,-4,-4,-1,-31
1523183507195085,-52,18,36,6,5,3,8,56
1523183507195085,17,9,-13,-3,-2,-1,-1,-32
1523183507207139,0,-34,8,-3,-2,-2,-5,-22
1523183507207139,44,18,-26,-6,-2,-1,2,47
1523183507215929,-11,68,-5,2,-2,0,-2,-30
1523183507215929,-14,-20,-20,-5,0,-2,3,56
1523183507230970,9,-45,31,5,0,-3,-8,-79
1523183507230970,12,6,-34,-6,3,3,-1,-20
1523183507232470,-1,19,6,1,0,0,-2,-10
1523183507232470,8,10,-9,-3,-3,0,-1,-8
1523183507253525,26,87,-2,-3,-3,1,-1,-1
1523183507253525,4,69,47,6,0,1,1,-15
1523183507255029,-4,-74,-22,-7,-5,-4,-4,-21
1523183507255029,-24,-8,4,2,1,1,1,-3
1523183507266845,61,-12,-12,-6,-4,-3,-2,53
1523183507266845,17,2,39,8,1,-2,-5,-67
1523183507275870,9,-52,-60,-7,-1,1,-3,-1
1523183507275870,17,17,39,0,-7,-9,-9,33
1523183507290909,-29,-1,2,-1,-2,-2,-2,19
1523183507290909,1,-45,-27,-2,2,0,2,4
1523183507292413,7,-17,18,-2,-1,-3,-4,-76
1523183507292413,31,1,-15,-2,0,-2,-3,0
1523183507312975,-37,-81,-20,-4,-2,-2,-2,-7
1523183507312975,-12,4,20,2,1,2,-3,-34
1523183507314974,-62,-4,9,-1,0,-1,-1,16
1523183507314974,-60,-40,-45,-10,-4,-1,-2,-5
1523183507327240,-44,27,14,5,-1,-1,1,-14
1523183507327240,-5,11,17,2,0,0,0,8
1523183507336029,-14,47,-6,0,1,2,0,13
1523183507336029,30,12,27,4,-1,0,-1,20
1523183507350570,-58,15,29,-8,-3,-3,-4,-73
1523183507350570,-71,-51,-86,-16,-6,-1,3,25
1523183507352572,42,73,14,2,-3,-3,-1,5
1523183507352572,18,-9,18,5,2,0,0,-12
1523183507373129,-6,-24,4,-1,0,-2,3,52
1523183507373129,71,70,32,3,-2,-1,-6,-52
1523183507374631,58,12,-4,-3,-2,0,0,3
1523183507374631,71,39,-9,-1,0,0,-2,16
1523183507387164,-2,-25,-11,0,-2,-3,-2,4
1523183507387164,-25,13,18,2,0,1,2,-25
1523183507396191,-41,-50,-28,-1,2,1,-1,12
1523183507396191,-6,-15,2,-4,-2,-3,-3,-23
1523183507410936,37,26,-43,-8,-6,-2,-3,-64
1523183507410936,28,0,36,6,-2,1,0,17
1523183507412232,7,25,20,2,2,1,3,13
1523183507412232,7,-32,2,4,0,-1,-2,45
1523183507433287,26,-35,-53,-16,-3,-3,-8,-51
1523183507433287,27,-86,2,-3,-1,-6,-5,38
1523183507434790,2,-37,26,13,4,0,0,-6
1523183507434790,-21,-52,-9,-1,0,-1,2,-2
1523183507446825,6,45,11,3,2,3,3,15
1523183507446825,-44,50,-14,0,-1,-2,-2,-24
1523183507455847,47,21,3,-9,-3,-1,-1,4
1523183507455847,-55,-2,17,-3,-4,-1,-1,-15
1523183507470671,-20,23,-35,-6,-3,-2,3,31
1523183507470671,-18,-1,20,3,1,0,0,9
1523183507472175,-3,11,-8,-3,-4,-4,0,36
1523183507472175,-2,14,15,10,4,1,0,-2
1523183507493469,-3,-32,-8,-9,-1,-1,-1,1
1523183507493469,-9,-6,17,4,2,1,2,-7
1523183507494735,-15,37,11,-3,-2,0,3,14
1523183507494735,33,-18,-13,-4,-3,-2,-4,-3
1523183507507008,-74,-42,26,5,1,1,2,19
1523183507507008,21,-24,-7,-3,-3,-2,-5,-53
1523183507515792,11,-45,-23,-2,0,1,-1,11
1523183507515792,-51,51,-9,-6,-3,-1,2,9
1523183507530831,30,24,13,7,2,-2,-3,17
1523183507530831,-5,-3,-2,-1,0,0,0,20
1523183507532335,-40,57,3,-5,-4,-1,2,-31
1523183507532335,13,-20,-15,-3,0,-2,-1,-12
1523183507553391,28,-36,6,7,4,3,3,57
1523183507553391,31,27,-1,-2,-3,-1,-2,33
1523183507554895,-18,-85,-4,-2,-2,-2,-3,28
1523183507554895,-20,-19,-7,0,2,1,0,-13
1523183507576689,20,70,35,5,1,2,5,-2
1523183507576689,22,31,-4,-5,-2,-4,-5,14
1523183507577956,8,-18,-9,2,-4,0,0,-26
1523183507577956,17,38,9,1,1,0,0,7
1523183507590489,48,-1,3,4,1,0,0,6
1523183507590489,-76,-57,-2,-9,-5,-3,-6,-51
1523183507592497,55,95,14,-2,-2,-1,-5,-65
1523183507592497,-22,-49,-36,0,-1,-2,1,8
1523183507613555,-69,1,8,2,-6,-5,-7,1
1523183507613555,79,4,2,0,0,0,0,16
1523183507615056,-3,-29,4,-4,0,-1,-2,18
1523183507615056,-25,-68,-16,-10,-7,-6,-4,-16
1523183507635648,44,62,5,4,3,4,3,-1
1523183507635648,-22,-19,-6,4,1,-3,-3,30
1523183507637615,38,-23,10,-1,-3,-4,-2,25
1523183507637615,25,25,-19,-7,-4,-3,1,-7
1523183507650649,-81,-34,16,-1,-2,-1,-1,-43
1523183507650649,-22,11,-6,6,2,2,3,12
1523183507652153,-8,23,3,4,3,1,1,76
1523183507652153,3,97,3,-1,-1,-2,-8,-36
1523183507673208,24,-14,-29,-2,-4,-3,0,24
1523183507673208,-81,-7,15,-5,0,0,1,7
1523183507674712,-19,-47,-15,-4,-3,-1,0,-13
1523183507674712,31,-29,11,5,1,1,4,31
1523183507695774,20,-16,-5,-6,-2,-2,-4,20
1523183507695774,-23,10,13,-1,-1,2,6,-17
1523183507697280,-53,-43,-17,0,-3,-3,-5,-20
1523183507697280,14,1,8,0,0,0,0,-6
1523183507710434,6,-50,-1,1,0,0,0,-7
1523183507710434,90,-35,2,-4,-5,0,1,9
1523183507716823,-29,9,-4,1,2,1,-1,-5
1523183507716823,20,22,11,2,-1,0,-1,10
1523183507733369,-23,46,-6,-4,-3,-2,-2,-16
1523183507733369,16,-15,-11,-3,-4,-3,6,62
1523183507734873,57,27,-14,2,2,-1,-2,-24
1523183507734873,8,-73,0,-9,-6,-2,-5,20
1523183507756071,57,-8,13,3,-2,-4,-4,-14
1523183507756071,-81,18,25,7,4,2,1,25
1523183507757432,29,34,-32,-7,-2,-4,-3,-10
1523183507757432,17,-11,6,0,-1,1,-1,5
1523183507769967,45,-3,-6,-6,-2,-3,-1,-6
1523183507769967,-10,13,-3,-1,-2,1,-2,-39
1523183507776999,-8,-40,8,-1,-4,-4,-4,24
1523183507776999,-26,83,1,10,3,2,4,20
1523183507792648,-15,14,-6,-12,-2,-1,-5,-27
1523183507792648,-10,-19,-15,-6,-3,-3,-5,-55
1523183507801053,-26,22,7,5,4,5,3,1
1523183507801053,-36,3,-5,-3,-3,-1,1,10
1523183507815587,15,3,2,4,0,0,-1,25
1523183507815587,15,-29,-6,-5,-2,-4,-3,-10
1523183507817091,-46,8,10,-7,-3,1,4,-13
1523183507817091,18,-49,9,-1,-3,-3,-4,-16
1523183507830134,37,52,-1,0,0,-1,-1,-5
1523183507830134,-23,-4,-8,-3,-4,-3,-2,-9
1523183507836683,6,-51,-14,-4,-1,-4,-1,-2
1523183507836683,4,18,16,3,4,3,5,-19
1523183507853426,-60,-12,-6,-6,-7,-5,-5,-12
1523183507853426,30,-13,-24,2,-2,-2,-2,27
1523183507855239,77,-20,-7,0,1,1,-1,14
1523183507855239,29,20,4,-5,0,-1,-3,-74
1523183507875747,-56,-32,-8,1,0,-1,-1,-2
1523183507875747,8,19,12,3,2,1,1,-6
1523183507877252,-33,-66,-32,-4,-2,0,-1,6
1523183507877252,7,16,9,-2,-4,-3,-3,18
1523183507890285,24,20,6,3,0,0,1,19
1523183507890285,-10,-15,2,0,5,4,2,-50
1523183507896806,32,-6,13,-7,-7,-8,-7,-49
1523183507896806,6,-15,-25,-1,-2,0,-2,13
1523183507913355,-20,6,6,-4,-2,-2,2,8
1523183507913355,-11,-2,-26,-1,-4,-4,-6,-2
1523183507914851,-28,-11,41,-2,0,1,2,-15
1523183507914851,-5,-34,-18,-6,-2,-3,-4,19
1523183507936408,-43,-19,8,-2,-2,-3,-3,-27
1523183507936408,67,33,23,-1,-3,-3,-1,26
1523183507937913,-4,29,-50,-11,-2,1,3,34
1523183507937913,41,64,21,7,0,-2,-5,-2
1523183507950447,-5,-15,-8,-1,2,3,2,12
1523183507950447,23,-58,-16,-1,0,-1,1,43
1523183507956963,-22,93,29,10,4,1,-3,-6
1523183507956963,1,-33,-7,0,0,1,5,6
1523183507973005,-1,-9,-2,-4,-3,-2,-2,-1
1523183507973005,-49,-7,11,3,0,2,1,-3
1523183507975053,9,-8,-2,0,-4,-4,-3,11
1523183507975053,-42,38,-35,-8,-3,-4,-6,-6
1523183507995571,34,-51,12,9,5,4,3,14
1523183507995571,4,40,2,0,2,2,2,17
1523183507997574,29,-27,-43,-4,-4,-2,-2,-12
1523183507997574,-25,-10,23,3,-1,3,2,-12
1523183508010308,9,-13,-7,1,-5,0,-1,45
1523183508010308,17,-7,6,-2,0,-3,-4,-24
1523183508017124,-21,-7,-37,-5,-2,-2,-21,-5
1523183508017124,-45,-40,-7,-4,1,1,19,-22
1523183508033167,-12,1,10,1,-3,-4,-3,18
1523183508033167,4,10,-4,1,1,1,1,4
1523183508034669,25,27,30,7,-1,-1,2,32
1523183508034669,-81,-16,-11,-7,-3,-5,-9,-26
1523183508055725,15,-40,-7,-4,0,1,-5,-34
1523183508055725,1,-32,-26,-5,-3,-6,-3,19
1523183508057778,-57,-32,18,-2,2,2,7,2
1523183508057778,63,40,0,-2,-1,-2,-4,9
1523183508069262,-10,13,3,1,2,-3,5,-9
1523183508069262,-65,-13,20,-3,-2,-2,-5,30
1523183508078289,19,7,-44,-3,0,0,3,-57
1523183508078289,1,-13,19,6,1,0,-4,18
1523183508093325,38,-11,-6,-5,-3,-2,-2,28
1523183508093325,14,-14,-24,-6,-4,-2,-4,-44
1523183508094832,21,-2,36,7,3,2,-1,-13
1523183508094832,-14,-2,16,-1,2,0,2,14
1523183508115885,3,-18,-34,0,-2,-2,0,-5
1523183508115885,37,-3,16,2,-1,-1,0,7
1523183508117389,9,9,11,1,-2,1,5,27
1523183508117389,34,-8,-9,-1,-1,-1,-5,11
1523183508129423,-72,1,7,1,-2,-3,-3,-25
1523183508129423,-9,54,6,-1,-3,0,-2,-76
1523183508138445,17,52,21,3,2,1,0,-18
1523183508138445,-1,-9,-13,-5,-3,-1,-2,9
1523183508153485,-44,-32,-2,-1,-2,1,2,5
1523183508153485,-34,47,12,5,0,0,-2,6
1523183508155533,-14,31,39,-1,0,-2,0,5
1523183508155533,8,-48,-70,-5,-6,-3,-4,-28
1523183508175781,-47,69,18,0,-3,-1,1,-4
1523183508175781,29,-27,10,5,2,3,0,0
1523183508177743,54,32,-5,-4,-3,-2,1,25
1523183508177743,-42,-29,7,-1,1,2,3,6
1523183508189584,18,25,-3,0,1,1,-11,-31
1523183508189584,82,-2,-9,-2,-4,-4,9,23
1523183508198104,-86,-32,-2,0,1,-1,-1,-17
1523183508198104,-42,6,13,-4,-3,-3,0,-1
1523183508213146,8,60,5,2,3,1,-3,4
1523183508213146,15,-30,-12,0,-1,-1,-2,-4
1523183508214650,-1,-13,-3,-1,-5,-5,-1,6
1523183508214650,6,2,3,-1,2,1,1,4
1523183508235745,107,5,5,1,-4,-4,-6,-50
1523183508235745,-94,-18,5,-3,-2,-2,-2,-4
1523183508237211,0,-43,-27,-6,-5,-1,4,24
1523183508237211,45,-22,6,-1,-2,-3,-4,27
1523183508249239,23,-28,-21,-8,-1,-2,1,6
1523183508249239,30,-16,7,6,4,2,3,50
1523183508258263,2,51,10,5,0,1,-1,-16
1523183508258263,40,16,9,1,-3,-4,-10,35
1523183508273306,-23,-38,-7,-4,-2,-3,1,16
1523183508273306,55,-53,-20,-5,0,-2,-4,20
1523183508274808,-72,-2,35,1,1,0,0,-14
1523183508274808,77,-43,-3,3,3,2,1,-30
1523183508295873,-18,20,-14,0,-1,-1,3,38
1523183508295873,-37,13,11,-7,-6,-4,-6,29
1523183508297372,10,-2,3,-1,-2,-3,-1,12
1523183508297372,-6,60,22,-1,-4,-1,0,-69
1523183508309399,-4,-29,-4,0,-1,-1,-1,-2
1523183508309399,-54,22,14,1,2,1,-17,-23
1523183508318424,56,-21,-6,2,0,0,19,-14
1523183508318424,-37,-40,-9,-3,-1,-1,-3,41
1523183508332961,12,45,3,-1,-2,0,1,-42
1523183508332961,-36,25,13,5,2,2,2,6
1523183508335006,-43,-42,-8,-1,-4,-4,-9,-4
1523183508335006,-33,38,3,1,-3,-1,1,-26
1523183508355761,45,19,24,2,0,-2,-1,1
1523183508355761,-4,-21,-2,-8,-4,-1,1,-48
1523183508357528,11,-40,-33,-3,0,-3,-12,19
1523183508357528,-49,28,-1,-3,-4,-4,-4,-30
1523183508369559,-75,-10,2,0,2,0,12,-1
1523183508369559,25,51,-9,-1,-2,0,-2,-8
1523183508378585,-1,-52,-19,-9,0,1,9,28
1523183508378585,-4,-34,5,-1,1,0,-15,5
1523183508393626,-14,19,0,0,-2,0,-10,-42
1523183508393626,40,-8,-16,0,1,-1,-12,-14
1523183508395130,8,-41,-7,0,-2,-4,23,-4
1523183508395130,25,13,2,-1,2,6,23,13
1523183508415684,7,-53,-8,-8,-1,-1,-10,19
1523183508415684,68,57,12,2,-2,-3,7,4
1523183508417199,-23,62,15,-1,-3,-4,-27,-26
1523183508417199,74,11,6,2,1,-3,-2,-10
1523183508429722,3,64,-2,8,5,4,29,50
1523183508429722,-21,-15,-13,-10,-6,-2,-18,9
1523183508438243,25,1,5,-3,-4,-3,-10,-61
1523183508438243,-22,47,-6,3,0,0,1,2
1523183508453517,53,-41,0,-2,-2,-3,-5,65
1523183508453517,-36,-7,-27,1,1,-3,-21,4
1523183508455286,-34,67,4,-2,-2,4,21,36
1523183508455286,55,-89,0,0,0,-1,1,-22
1523183508476080,-50,-27,-10,-3,-3,-4,-15,-17
1523183508476080,76,-9,7,0,0,0,14,-12
1523183508477346,-7,-12,9,3,0,-1,-5,56
1523183508477346,-4,-92,2,1,0,0,-7,20
1523183508505920,-24,7,1,-6,-1,1,7,-10
1523183508505920,-34,8,-9,0,-2,-2,5,3
1523183508507426,61,0,2,1,1,2,-6,-2
1523183508507426,25,10,-2,-2,0,-2,4,4
1523183508513442,10,-47,-4,-1,-4,-4,-11,-18
1523183508513442,0,-14,-2,-4,0,-1,12,-3
1523183508514948,-3,17,14,8,2,-2,-5,2
1523183508514948,-109,4,-15,-3,-3,-1,13,117
1523183508535540,-17,0,5,-3,-1,2,-2,-24
1523183508535540,8,-7,-7,0,-1,-3,-2,5
1523183508537506,0,-26,4,-1,1,-1,13,-8
1523183508537506,-58,23,-15,-3,-3,-2,-4,-32
1523183508558631,2,-63,3,-5,-2,-2,-6,12
1523183508558631,26,-31,-35,-6,-6,-3,3,-3
1523183508560278,0,21,14,4,3,6,-6,-62
1523183508560278,25,31,-6,-5,-4,-6,-6,18
1523183508573101,40,1,-8,-1,-1,0,3,-6
1523183508573101,-47,-6,5,6,4,3,0,-16
1523183508575106,5,74,-8,-5,-3,0,4,48
1523183508575106,46,23,3,1,0,-1,-7,-23
1523183508595662,8,-25,-21,2,4,2,1,-15
1523183508595662,-37,11,29,2,-1,-2,4,26
1523183508597167,-27,3,-12,-3,0,0,-6,-5
1523183508597167,42,-11,18,1,-1,0,2,1
1523183508618222,24,57,6,3,-2,-2,-2,7
1523183508618222,-21,-54,-16,-6,-1,-1,0,-64
1523183508619724,14,26,1,9,4,1,2,18
1523183508619724,27,18,15,-2,-4,-5,-22,16
1523183508632758,8,13,6,-3,-5,-2,22,15
1523183508632758,-68,-24,6,1,3,2,-1,-67
1523183508639276,16,-2,10,-6,-2,-2,-8,-9
1523183508639276,30,-28,-6,1,-1,0,1,-20
1523183508655821,49,-14,-9,-4,-2,-4,-5,15
1523183508655821,-12,24,3,0,-2,-2,13,40
1523183508657325,-18,-57,-6,2,4,3,-2,-4
1523183508657325,-85,-7,-2,-3,-2,-2,0,-28
1523183508678382,-3,43,-3,-3,-1,0,-4,-10
1523183508678382,42,7,-9,-2,-1,-2,2,20
1523183508679889,11,-45,-2,-2,-3,-4,-5,-11
1523183508679889,33,21,14,3,-1,-1,-13,13
1523183508692919,-38,3,-20,1,3,4,4,-2
1523183508692919,32,-15,18,-2,0,2,-9,-7
1523183508699437,31,-18,-13,-5,-6,-5,-5,3
1523183508699437,-31,88,12,-1,2,2,-1,22
1523183508715979,-13,-14,13,3,-1,-2,-8,49
1523183508715979,12,-32,-4,-4,-1,-2,0,8
1523183508717485,-1,-9,-1,-4,-1,1,-5,-28
1523183508717485,-53,-23,-9,-10,-3,-3,6,-49
1523183508738039,39,-4,13,4,0,-1,-3,7
1523183508738039,-79,40,16,1,-3,-1,5,13
1523183508740044,7,2,3,-6,-2,-1,-3,12
1523183508740044,-24,-6,-18,2,0,0,6,20
1523183508752615,-14,53,-9,-2,1,-1,0,-30
1523183508752615,-3,-25,0,-1,-2,-2,-7,5
1523183508759699,-35,4,4,5,1,-1,2,-26
1523183508759699,8,7,3,2,1,2,6,9
1523183508783158,-89,-12,5,-3,-6,-4,-7,-1
1523183508783158,48,39,-5,0,-2,0,3,11
1523183508784662,32,-45,2,1,2,1,-1,11
1523183508784662,26,-46,-49,-4,-2,-2,-1,-20
1523183508798201,3,12,22,5,2,2,0,11
1523183508798201,40,-26,5,-8,-3,-3,0,-1
1523183508799702,-13,21,-16,-2,-4,0,2,18
1523183508799702,-12,-3,22,4,2,1,-3,19
1523183508812739,10,-58,-8,-4,-2,-2,-2,-77
1523183508812739,44,11,2,6,1,-1,-16,14
1523183508819254,-42,-10,-5,-8,-7,-4,15,-23
1523183508819254,-38,10,12,4,2,2,2,4
1523183508835799,28,19,-5,-6,-3,-4,-1,29
1523183508835799,-34,-39,-10,-4,-3,-2,0,-4
1523183508837305,-31,0,-10,-3,0,-1,-6,-8
1523183508837305,-13,-10,-1,-3,-5,-3,-2,-7
1523183508858594,-4,-18,12,2,0,-1,4,-11
1523183508858594,-12,-34,-28,-3,-3,-2,1,-1
1523183508859863,73,-5,3,3,-3,-3,-5,40
1523183508859863,-12,56,11,3,3,4,9,-15
1523183508872396,-27,-7,6,0,-2,0,-4,14
1523183508872396,-24,20,3,2,-3,-5,-2,7
1523183508879415,4,-49,-4,-3,-2,-1,-7,0
1523183508879415,18,-6,-2,-5,-2,-1,-1,6
1523183508895971,3,13,-3,0,1,-1,-4,-75
1523183508895971,11,59,-23,-3,-1,2,2,15
1523183508897464,-40,-7,5,-2,-2,-2,-3,-2
1523183508897464,12,14,12,4,0,0,-3,13
1523183508918018,6,9,-6,-1,1,1,0,46
1523183508918018,-61,-1,-6,-7,-4,-4,0,-16
1523183508920022,7,36,-19,-3,-1,-3,-7,9
1523183508920022,79,-70,0,1,-2,-2,-1,-3
1523183508932557,-8,10,-7,0,-3,-3,-13,12
1523183508932557,62,-6,24,4,1,2,9,3
1523183508939576,-20,12,10,2,2,3,1,12
1523183508939576,2,-8,-17,-4,-3,-5,1,17
1523183508955854,0,-13,12,-9,-5,-3,-8,20
1523183508955854,-29,-16,-46,2,3,1,-1,-4
1523183508957751,-21,8,7,-3,-3,-3,-3,-54
1523183508957751,-11,15,-5,3,-2,1,-4,-13
1523183508978179,37,0,-7,0,-1,-2,0,-19
1523183508978179,5,12,13,1,2,0,2,54
1523183508980185,5,60,-10,-5,-5,-2,-3,-43
1523183508980185,-42,-14,-15,-6,-2,-3,-6,-3
1523183508991951,1,-35,-6,-2,-1,1,2,2
1523183508991951,-23,77,36,2,0,1,2,-5
1523183509000737,-4,-18,-37,-1,-2,-1,-2,-37
1523183509000737,-30,-11,22,1,-2,0,0,-9
1523183509015776,-16,-65,-12,-4,0,-2,1,-11
1523183509015776,-27,-23,-4,2,2,5,1,-50
1523183509017282,6,18,14,-2,-2,-4,2,43
1523183509017282,23,16,3,2,-1,-1,-1,-15
1523183509038338,21,-23,-16,-4,-4,-1,-1,-2
1523183509038338,21,6,3,4,2,0,-3,-4
1523183509039841,-67,-32,10,-2,-2,-1,-3,11
1523183509039841,58,-11,1,-3,0,2,0,-5
1523183509051914,-63,17,-16,0,-1,-1,6,62
1523183509051914,53,9,7,-2,-4,-5,-12,-68
1523183509060898,69,8,11,-2,-1,-1,-1,16
1523183509060898,-39,-36,-4,0,-2,-3,-2,-5
1523183509075939,3,16,9,2,0,1,-2,-8
1523183509075939,-29,-20,-12,-5,-2,0,3,16
1523183509077443,-33,-24,-3,4,2,1,0,11
1523183509077443,-48,-25,8,1,-1,-1,0,-18
1523183509097996,71,67,-4,-1,-1,0,1,-18
1523183509097996,-49,-16,14,0,-1,0,-3,-59
1523183509100002,114,-23,7,1,0,-2,-3,28
1523183509100002,-63,-6,-33,-5,0,3,6,6
1523183509119837,-65,18,7,4,0,-2,-1,-18
1523183509119837,29,2,-10,-10,-6,-4,-1,17
1523183509120840,-8,-20,6,2,1,3,3,-7
1523183509120840,-50,-17,-10,-5,-5,-3,-3,-13
1523183509134877,61,23,10,3,2,2,1,-12
1523183509134877,50,12,1,4,-2,0,2,54
1523183509135880,0,-20,-1,-3,-5,-4,-4,-23
1523183509135880,78,0,5,1,2,1,1,-14
1523183509157977,-26,-9,3,4,0,-3,-3,25
1523183509157977,5,-9,-16,-8,-3,-4,-4,29
1523183509158440,-7,9,-4,0,0,1,1,-9
1523183509158440,60,30,12,2,4,4,5,21
1523183509180002,-29,-25,-3,-1,-4,-3,-1,7
1523183509180002,-20,-22,9,-1,-1,-2,-3,-14
1523183509181000,10,-2,-7,-1,1,1,-1,21
1523183509181000,56,15,4,2,1,0,-1,8
1523183509195047,-7,-27,-25,-9,-6,-3,-4,-54
1523183509195047,83,-16,3,-3,0,-2,5,58
1523183509196042,-47,4,-16,-2,-5,-3,-3,5
1523183509196042,-19,7,9,5,2,0,-2,10
1523183509217596,-14,4,23,-5,-1,0,0,-24
1523183509217596,22,6,-1,5,3,1,1,19
1523183509218601,-81,34,22,3,3,2,-3,-59
1523183509218601,21,-43,5,5,-2,-4,-7,-16
1523183509240398,7,30,-6,3,4,2,3,35
1523183509240398,-30,-18,18,1,-3,-2,-2,-14
1523183509240658,44,-12,8,-2,-3,-1,2,36
1523183509240658,-85,16,14,-1,-2,-2,-2,-17
1523183509263220,29,-22,6,3,1,2,-1,-32
1523183509263220,30,23,11,4,0,-3,-1,54
1523183509264221,-40,-15,-32,-3,-1,-1,1,-22
1523183509264221,-23,6,19,-8,-6,-3,0,10
1523183509277759,-17,20,-38,-5,-3,-3,3,74
1523183509277759,-20,-47,2,-3,1,1,-6,-46
1523183509278259,-30,-49,-16,0,-1,-1,-1,12
1523183509278259,-23,26,14,-4,2,-3,-2,4
1523183509300320,-18,-41,-10,-1,-2,0,-1,-46
1523183509300320,-58,51,1,-3,-1,-1,-1,-5
1523183509300818,45,24,-1,10,4,0,1,16
1523183509300818,40,-61,-49,-17,-9,-3,-9,-88
1523183509314854,1,10,12,6,-1,-1,-1,34
1523183509314854,31,3,22,3,1,1,-7,-10
1523183509315859,12,3,-35,-3,-2,0,9,-11
1523183509315859,16,55,11,7,3,1,4,41
1523183509337417,-62,-42,11,-7,-4,-1,-1,-18
1523183509337417,-39,-19,-24,-4,-4,-5,-9,-19
1523183509338418,9,3,22,0,2,0,-4,30
1523183509338418,-6,17,-17,-1,-3,-1,2,14
1523183509360211,30,9,20,-2,-4,-6,-11,-9
1523183509360211,-40,-28,-14,1,-1,-1,7,5
1523183509360981,15,98,-2,-1,0,0,-5,-40
1523183509360981,-5,-30,-17,-2,-2,0,-1,19
1523183509375015,30,6,17,3,2,0,1,-13
1523183509375015,20,31,-9,-2,-2,2,3,11
1523183509376018,-4,-32,46,7,1,0,0,-7
1523183509376018,-23,-58,-88,-13,-3,-4,-2,13
1523183509397576,-43,10,-44,-11,-6,-7,-10,-44
1523183509397576,40,-34,8,3,0,-2,1,16
1523183509398076,-60,-11,23,-2,2,1,0,-10
1523183509398076,45,-30,24,5,-3,-4,-5,47
1523183509420137,38,-5,12,-1,-1,3,4,3
1523183509420137,-30,54,-19,2,0,-1,0,-28
1523183509421137,-19,5,40,1,0,0,0,2
1523183509421137,3,54,14,-3,-4,-3,-3,-8
1523183509435175,-5,13,-7,-15,-4,-4,-1,3
1523183509435175,-3,-31,5,1,-3,-2,-2,-14
1523183509435676,98,2,13,0,1,3,4,36
1523183509435676,-16,8,3,5,3,1,2,-1
1523183509457918,41,-2,20,12,4,2,-2,16
1523183509457918,22,-5,-13,-7,0,0,-4,-29
1523183509458237,-3,-48,-7,-10,-8,-8,-7,-6
1523183509458237,-11,-38,11,-3,2,1,2,12
1523183509480299,72,-24,18,9,3,0,0,5
1523183509480299,-27,-2,3,-4,-5,-4,-5,-45
1523183509480799,-38,-6,-34,-5,-2,-3,-4,-4
1523183509480799,76,-9,8,-1,2,1,-3,-7
1523183509494838,-32,7,-22,3,-3,-2,1,2
1523183509494838,-52,-10,2,-1,-2,-2,1,19
1523183509495836,22,17,1,14,1,0,1,1
1523183509495836,-14,19,-22,-11,0,0,0,-9
1523183509517678,1,42,24,1,0,1,3,4
1523183509517678,13,-83,-18,-4,-1,-3,-1,24
1523183509518179,-61,-13,-25,-4,-1,-2,2,2
1523183509518179,8,16,17,5,0,1,-2,-10
1523183509540425,20,68,-6,4,7,6,4,8
1523183509540425,-47,-17,31,-5,-9,-7,-7,11
1523183509540813,6,-6,-4,-5,-3,-2,-5,-53
1523183509540813,-53,-7,1,4,1,-1,-3,-57
1523183509555086,-74,-20,-9,-11,-4,-3,-5,-6
1523183509555086,7,28,14,12,5,6,0,-7
1523183509555853,16,-13,-30,-5,-1,-2,-2,20
1523183509555853,-20,3,31,-3,-6,-5,1,70
1523183509577435,8,-83,2,6,2,-1,-2,-16
1523183509577435,-13,12,20,-3,1,2,3,9
1523183509578416,-8,-19,-11,-6,-6,-3,-4,12
1523183509578416,-11,2,0,5,3,1,-1,0
1523183509599969,4,-21,-2,-1,-1,-3,3,33
1523183509599969,34,31,-6,1,-2,-2,2,8
1523183509600973,-35,2,-21,-12,-1,-1,-2,9
1523183509600973,-27,3,22,-3,0,3,3,1
1523183509616514,-6,18,13,3,-1,-2,-6,-26
1523183509616514,-8,-44,-1,1,0,-1,1,49
1523183509617518,10,20,-18,2,-1,-1,1,20
1523183509617518,13,8,-6,4,0,0,-1,6
1523183509637570,58,-53,6,-19,-10,-6,-8,-10
1523183509637570,-16,94,-7,0,3,2,2,1
1523183509638071,23,-1,22,11,3,0,0,16
1523183509638071,36,7,7,2,-2,0,0,4
1523183509660130,44,28,-22,1,3,1,-2,-31
1523183509660130,-4,16,-16,-7,-1,-3,1,20
1523183509660633,-9,-7,26,-4,-3,-2,0,19
1523183509660633,33,-28,-40,2,0,-3,-3,-44
1523183509675203,-40,60,15,-1,0,2,4,34
1523183509675203,17,8,-42,-4,-4,-3,-6,-17
1523183509676244,22,-26,21,2,1,2,3,-8
1523183509676244,83,4,2,3,-1,-3,-3,-22
1523183509697730,-49,-9,25,6,4,-1,0,8
1523183509697730,21,-13,11,-1,0,-3,0,-59
1523183509698231,45,37,10,-2,-6,-8,-7,4
1523183509698231,-56,-16,7,1,3,3,4,2
1523183509720085,96,9,-31,-10,-11,-11,-8,0
1523183509720085,-28,-85,-21,-7,-3,1,2,-16
1523183509721088,58,54,-4,-1,-2,0,-1,11
1523183509721088,-36,-32,23,-2,-2,0,1,-15
1523183509735123,-2,9,-2,0,2,0,-1,-2
1523183509735123,75,6,-35,-9,1,-2,-5,22
1523183509735629,0,-11,32,9,0,-2,-1,-12
1523183509735629,-106,-36,-59,-16,-4,-7,-5,1
1523183509757918,-9,6,18,4,2,3,3,-22
1523183509757918,-4,-79,-18,0,0,-1,1,10
1523183509758185,-38,56,7,0,2,2,-10,-99
1523183509758185,-36,4,19,1,-3,0,-3,-23
1523183509780262,-26,-2,-18,0,2,0,5,57
1523183509780262,37,6,6,-7,-4,-3,-10,-82
1523183509780765,-70,27,-35,-2,2,1,1,50
1523183509780765,19,37,34,6,-3,0,-2,16
1523183509795309,-56,-78,-74,-1,-4,1,-2,-9
1523183509795309,-28,25,34,-1,-1,1,3,43
1523183509795806,-64,-9,-75,-9,0,0,2,-24
1523183509795806,36,18,-11,-5,-3,-4,-5,2
1523183509817371,33,3,16,5,2,3,3,6
1523183509817371,-32,-11,-8,-1,-5,-3,0,8
1523183509818375,-19,-60,13,3,3,5,10,8
1523183509818375,5,66,-12,-7,-3,-8,-8,59
1523183509840470,-3,-8,-27,-13,-5,-1,-2,-16
1523183509840470,2,41,40,16,3,1,0,-15
1523183509840936,4,-37,-29,-7,-4,-3,-2,5
1523183509840936,49,2,30,3,2,6,5,-4
1523183509854971,-36,19,9,4,1,-1,-2,-1
1523183509854971,-6,-17,17,-9,-6,-6,-6,18
1523183509855974,8,10,13,-4,-1,-2,-4,-26
1523183509855974,-52,-12,-17,3,5,4,1,-26
1523183509877532,37,-25,42,4,0,0,-3,8
1523183509877532,-30,-35,-8,0,0,1,3,1
1523183509878541,33,-58,2,-6,-8,-4,-5,5
1523183509878541,-19,8,-4,-1,0,0,4,28
1523183509900093,59,21,19,-1,-1,0,-3,-4
1523183509900093,-1,9,4,8,1,-1,1,12
1523183509901094,-17,3,15,0,-1,0,-2,-3
1523183509901094,49,-16,-7,-5,-2,-3,-1,-13
1523183509915137,-25,6,-14,4,0,-2,2,16
1523183509915137,32,-7,14,-3,-1,0,-3,-39
1523183509915633,-44,51,21,3,3,1,0,74
1523183509915633,-14,-51,-15,-1,-4,-2,-1,17
1523183509937692,-19,-37,-5,-4,-2,-3,-4,-24
1523183509937692,-3,-30,-7,-1,1,-1,-1,6
1523183509938193,58,-4,5,-5,0,-2,1,14
1523183509938193,-19,-37,-73,-4,-6,-5,-5,-2
1523183509960256,-24,-2,27,4,0,-2,0,-2
1523183509960256,46,4,-41,-11,0,1,2,20
1523183509960754,38,-7,10,-1,-2,-4,-5,7
1523183509960754,-18,-6,-3,-7,-3,0,2,-30
1523183509975291,-61,7,11,8,4,2,3,-15
1523183509975291,95,12,12,2,-7,-7,-5,40
1523183509975793,-12,44,-8,-5,-2,-2,2,-12
1523183509975793,8,-9,7,-3,-1,-3,-3,-12
1523183509997353,1,-13,-13,3,5,2,4,35
1523183509997353,-62,-1,14,3,4,3,2,0
1523183509998352,-1,-18,-19,0,1,1,-1,20
1523183509998352,39,-46,10,2,-4,-6,-4,55
1523183510019911,12,2,-25,-6,0,1,6,23
1523183510019911,-42,60,-1,-3,0,1,2,7
1523183510020913,-38,-69,-20,-3,-7,-4,-7,-90
1523183510020913,8,27,8,1,2,-1,0,15
1523183510034449,44,8,21,1,-1,0,-2,11
1523183510034449,4,0,-26,-1,-1,0,-2,-5
1523183510042706,15,57,10,3,2,1,2,-10
1523183510042706,-15,57,20,-1,-3,1,3,-25
1523183510057744,15,-25,-7,-12,-8,-4,-6,-22
1523183510057744,14,6,14,5,3,2,-1,-10
1523183510058512,6,-13,9,-1,-5,-2,-2,-45
1523183510058512,-2,23,-13,7,6,4,1,51
1523183510080073,-16,19,8,-2,-4,-4,-1,31
1523183510080073,-26,-12,-14,-4,0,1,0,-8
1523183510081074,34,5,7,3,3,1,1,19
1523183510081074,-46,10,-10,-7,-5,-4,-3,-24
1523183510094608,-4,-19,-22,-4,-2,0,-2,-21
1523183510094608,-47,-12,8,3,-1,0,4,-15
1523183510102865,-52,23,10,6,2,-2,3,37
1523183510102865,14,-45,10,-1,1,0,0,39
1523183510117670,23,-29,-19,-10,-6,-6,-3,17
1523183510117670,-6,-10,-5,0,-1,-4,-1,-1
1523183510118171,-21,-24,2,-3,-3,-1,-2,-1
1523183510118171,-25,14,32,0,-1,1,1,-25
1523183510140230,-16,19,-26,-5,-2,-1,-5,-30
1523183510140230,-43,-21,15,-1,1,0,-3,5
1523183510140731,15,-46,-39,-9,-5,-3,-1,-4
1523183510140731,-5,26,3,6,2,3,0,-20
1523183510154504,42,12,34,7,2,2,0,3
1523183510154504,-45,29,-39,-7,-5,-4,-9,-53
1523183510169810,19,30,40,9,3,1,0,7
1523183510169810,21,-14,2,-5,-3,-2,2,12
1523183510177328,-45,-20,-16,-3,1,1,-1,-6
1523183510177328,87,-17,5,-2,-2,-2,-6,-38
1523183510178342,-31,39,13,1,2,-1,-1,2
1523183510178342,-44,-16,-28,-4,-3,1,1,-12
1523183510199902,44,-1,10,2,-2,-4,1,26
1523183510199902,7,16,6,0,1,2,2,33
1523183510200891,-6,-2,-19,-4,-1,0,-1,4
1523183510200891,64,33,38,7,0,2,-2,-98
1523183510214426,-59,32,-39,-3,3,1,-2,-1
1523183510214426,15,-5,-2,-4,-2,0,0,0
1523183510222448,42,-42,-2,-5,-7,-5,-6,18
1523183510222448,86,11,-29,2,-2,-5,-2,7
1523183510237529,-76,-28,18,-4,-5,-2,-4,-42
1523183510237529,-25,-8,7,3,0,-3,2,10
1523183510238492,43,93,17,3,3,6,2,-1
1523183510238492,-15,-42,-9,-13,-5,-3,-2,10
1523183510260275,25,-3,9,3,-1,0,1,10
1523183510260275,9,7,-1,2,1,0,0,-7
1523183510260772,10,-34,-1,-9,-8,-6,-3,51
1523183510260772,-20,-10,7,2,3,0,0,8
1523183510274308,44,-35,19,5,-1,-1,-1,0
1523183510274308,-8,-20,5,-6,-4,-2,-2,12
1523183510282330,-17,-33,-1,3,2,1,-1,-19
1523183510282330,-65,-11,-5,-2,-1,-1,-4,-12
1523183510297370,-5,5,-6,-2,-2,-3,-3,11
1523183510297370,-2,-36,8,5,4,4,5,37
1523183510298373,35,-93,-20,-5,-5,-5,-8,-9
1523183510298373,9,5,-9,0,0,0,0,22
1523183510320209,-24,11,8,-11,-3,0,1,-10
1523183510320209,-12,-28,-54,3,1,0,-2,9
1523183510320711,-70,-5,-20,-1,-4,-2,-1,-34
1523183510320711,17,16,26,-1,-1,-2,-3,19
1523183510334247,-11,3,-17,-4,-5,-5,-6,-88
1523183510334247,0,31,8,-3,0,0,1,-2
1523183510342768,95,-17,0,2,0,-2,0,59
1523183510342768,-12,100,13,4,1,3,0,-24
1523183510357808,-10,-16,13,3,0,2,2,7
1523183510357808,-30,-22,1,-5,-5,-4,-1,-2
1523183510358311,-81,6,11,-2,-1,0,3,-4
1523183510358311,21,-38,1,0,-1,-1,0,20
1523183510379926,15,25,-5,-1,0,0,-3,43
1523183510379926,9,10,0,-10,-6,-3,-2,-2
1523183510380925,-9,-3,6,-2,0,3,2,-34
1523183510380925,38,-20,-14,-1,-2,-3,-2,-25
1523183510403575,-21,-17,-3,4,1,0,2,26
1523183510403575,-68,-40,8,1,-5,-5,-6,-54
1523183510403987,25,44,-8,-1,3,2,-9,20
1523183510403987,4,-55,-17,-7,0,-2,13,-9
1523183510417525,34,-12,18,-8,-2,-1,-1,-9
1523183510417525,15,20,-1,5,2,2,1,47
1523183510418526,2,-7,-17,4,3,2,2,-23
1523183510418526,0,-21,25,-1,-3,-2,-8,-2
1523183510440083,-6,71,-1,5,3,2,1,21
1523183510440083,21,-39,9,-6,-3,-2,-3,-13
1523183510440584,-12,-13,2,-5,-4,-4,-4,-16
1523183510440584,69,16,-35,4,1,1,0,77
1523183510463147,-38,59,12,3,-1,-3,-3,-11
1523183510463147,37,3,5,2,1,2,1,14
1523183510464148,8,4,4,2,1,2,2,-5
1523183510464148,-62,-54,-6,-7,-1,0,-6,72
1523183510477688,54,-18,-1,1,-2,0,11,25
1523183510477688,34,33,11,0,-1,-1,-6,0
1523183510478187,-65,7,1,-2,-2,-2,4,2
1523183510478187,-33,-18,-12,-2,-1,-3,-6,-25
1523183510500244,-23,14,-3,6,1,3,-4,-30
1523183510500244,22,13,-7,-6,-2,-2,-1,-6
1523183510500745,12,-6,15,4,0,1,3,26
1523183510500745,-22,63,19,5,2,-1,-2,-23
1523183510523342,-93,-5,-23,-4,0,-2,0,-5
1523183510523342,-2,32,1,3,2,1,6,68
1523183510523805,12,-12,-1,-4,-1,-1,-4,-34
1523183510523805,-39,7,-30,-6,-6,-3,1,-19
1523183510537342,13,-24,3,1,1,0,0,38
1523183510537342,-18,-4,15,7,1,2,1,22
1523183510538345,-20,-4,-41,-6,-1,-3,-1,-5
1523183510538345,62,15,14,1,-2,-4,-3,19
1523183510559903,16,-81,-25,-5,1,0,-4,3
1523183510559903,8,31,20,5,-2,0,-1,-11
1523183510560909,-12,-20,16,8,1,1,1,2
1523183510560909,-6,6,-3,-8,-5,-4,-3,-34
1523183510582964,-33,-24,-22,-7,-5,-2,-3,8
1523183510582964,41,30,-3,-1,1,0,-2,-14
1523183510583966,8,-62,-6,-2,-3,-2,0,3
1523183510583966,-79,-23,35,-1,-2,0,-7,30
1523183510597522,84,75,14,5,0,0,12,46
1523183510597522,-30,-5,-13,-4,1,0,-2,-36
1523183510598505,-41,-5,1,-2,-2,-1,-4,13
1523183510598505,16,16,4,6,1,0,6,17
1523183510620063,-6,-48,-11,-2,0,1,-3,-13
1523183510620063,-11,17,-9,-8,-6,-8,-3,15
1523183510621065,-1,-26,13,7,7,5,7,-1
1523183510621065,14,-6,-14,-7,-3,-3,-8,8
1523183510643124,-11,-3,-50,-8,-2,-3,-5,-32
1523183510643124,42,-6,22,9,-4,0,-1,-4
1523183510644132,54,36,22,2,1,0,-1,-32
1523183510644132,-49,-70,-21,-5,-3,-2,0,-38
1523183510657661,6,-50,18,-4,-3,-3,-4,6
1523183510657661,-11,-24,-12,-5,1,2,2,30
1523183510658662,-16,40,-7,0,-3,-1,-2,-37
1523183510658662,72,-16,5,5,-2,-2,-3,-30
1523183510680221,-29,14,19,-4,-1,0,1,3
1523183510680221,2,-20,-1,0,0,-1,-4,-15
1523183510680722,-4,13,-6,-4,1,0,0,41
1523183510680722,4,8,-32,-5,2,-1,5,-7
1523183510703521,21,20,25,2,-1,-2,-4,12
1523183510703521,9,5,-23,4,2,0,2,-14
1523183510704306,-38,11,-14,-15,-6,-6,-8,5
1523183510704306,-26,-1,15,5,2,2,-1,-33
1523183510725841,-63,24,21,0,1,0,-1,31
1523183510725841,53,-28,-7,-9,-7,-6,0,25
1523183510726347,10,-2,-13,3,-1,-2,-4,14
1523183510726347,-9,17,4,2,1,1,1,2
1523183510739881,-29,11,22,4,5,2,3,3
1523183510739881,34,22,0,1,0,-1,0,23
1523183510740883,-7,-45,-22,-6,-4,-4,0,-11
1523183510740883,10,75,14,-4,-3,-1,-1,10
1523183510763442,-6,-24,1,8,1,2,0,-21
1523183510763442,13,65,15,-2,-2,-2,-4,-43
1523183510763944,7,-33,-21,-1,-1,0,2,8
1523183510763944,27,-66,5,-1,0,-2,-2,4
1523183510777482,33,0,-1,1,0,0,-1,-7
1523183510777482,-57,-61,-38,-11,-2,-5,-5,0
1523183510778483,-63,19,29,4,-4,-1,-3,-18
1523183510778483,-3,-19,-10,-4,1,2,3,5
1523183510800041,24,-20,-9,2,-4,-5,-4,-44
1523183510800041,-10,5,19,-5,0,0,-2,14
1523183510801086,-8,-3,-6,-5,-2,-3,2,61
1523183510801086,-9,-9,-3,1,-1,-1,-2,-11
1523183510823100,-27,22,5,-2,-3,-1,0,2
1523183510823100,6,36,-19,0,2,3,2,-8
1523183510824142,29,15,27,0,1,1,0,9
1523183510824142,-4,4,-15,-2,-3,-2,2,18
1523183510837640,7,13,8,-2,0,-3,-3,2
1523183510837640,20,7,16,-3,-4,-3,-2,-8
1523183510838142,24,30,11,-2,-3,-1,-3,-15
1523183510838142,-10,-7,5,15,9,6,3,-23
1523183510859972,-42,24,-24,-16,-10,-8,-9,-75
1523183510859972,-21,-40,-16,3,1,0,-1,3
1523183510860973,65,16,4,-1,0,-2,5,64
1523183510860973,-63,-29,6,-8,-5,-3,-4,19
1523183510883067,75,12,-13,5,4,3,4,55
1523183510883067,-26,89,22,8,-1,1,-1,0
1523183510884030,-18,-72,-44,-4,-1,-2,-3,-15
1523183510884030,14,51,14,0,0,-1,2,7
1523183510897064,47,-20,15,3,-1,-1,-2,15
1523183510897064,-28,-39,-37,-5,-4,-2,0,-14
1523183510905086,-44,30,42,-1,-2,-4,-6,-15
1523183510905086,20,-5,-17,-4,-2,-3,-1,1
1523183510920128,18,2,6,1,-2,1,1,-19
1523183510920128,-49,-38,12,1,2,0,1,-14
1523183510921128,70,-14,-11,-6,-7,-4,-2,70
1523183510921128,14,-14,-13,0,-1,-2,-4,2
1523183510943188,-26,7,12,-1,1,0,3,29
1523183510943188,-16,-42,9,0,-1,-1,-2,-13
1523183510944197,-8,15,-8,5,4,4,3,-5
1523183510944197,-10,16,27,-3,-2,-2,-1,3
1523183510956961,10,3,-7,-2,0,-2,-3,-14
1523183510956961,1,-29,-18,-12,-8,-8,-3,14
1523183510965245,-12,2,8,4,3,3,-1,-75
1523183510965245,11,-22,2,3,0,-2,-1,4
1523183510979840,-30,-5,-9,-5,-3,-2,-3,-21
1523183510979840,53,-9,10,1,1,1,0,5
1523183510980840,-22,18,-42,-5,-4,-4,-3,-15
1523183510980840,-32,-1,22,0,-3,0,-6,-63
1523183511003638,6,-15,-15,-3,-1,0,2,55
1523183511003638,-7,4,17,5,0,1,-3,9
1523183511004403,10,-8,19,0,-1,3,2,6
1523183511004403,-8,36,-30,-4,0,1,-3,-31
1523183511016935,71,-5,-1,3,-2,-4,-7,-2
1523183511016935,-14,15,2,-1,-1,-2,-1,-22
1523183511025190,-67,-44,8,3,1,0,4,-19
1523183511025190,-47,3,-5,-7,-1,-1,3,49
1523183511039600,-21,17,16,2,-1,1,0,-30
1523183511039600,-96,-34,-3,3,1,-1,1,28
1523183511040601,59,-3,1,-5,-3,-2,-3,1
1523183511040601,-61,-18,-16,0,-2,1,1,44
1523183511063167,-19,-2,-13,-4,-6,-3,-4,-66
1523183511063167,-54,-5,9,1,0,-2,-7,-53
1523183511064254,57,10,9,-1,-3,-4,-5,21
1523183511064254,33,21,7,-1,-1,2,3,20
1523183511076293,-29,-6,-3,-5,-1,-1,3,58
1523183511076293,-9,55,-13,7,0,0,1,15
1523183511084346,-17,-4,-15,-2,1,1,-2,-11
1523183511084346,57,-14,6,1,-2,1,2,-23
1523183511099349,53,12,-6,2,3,2,3,23
1523183511099349,13,43,21,-4,-3,-2,-5,-82
1523183511100350,53,-25,0,5,3,0,0,21
1523183511100350,-5,-15,11,2,0,-1,7,78
1523183511123410,19,-24,-18,-6,-1,-1,-1,-24
1523183511123410,42,71,26,3,-2,-5,-2,27
1523183511123410,-21,100,13,3,1,4,4,-5
1523183511123410,18,-20,-7,-5,-3,-2,-4,12
1523183511136448,-48,-34,12,1,-1,-3,-1,15
1523183511136448,-24,-21,-16,2,0,2,1,-68
1523183511144474,17,2,10,0,-3,-4,-2,21
1523183511144474,19,40,11,0,-2,-2,-3,-21
1523183511160014,-39,-49,-27,-8,-4,1,1,25
1523183511160014,-8,-31,-14,-3,-1,-1,-3,-26
1523183511161019,-27,-1,7,-4,-3,-2,0,21
1523183511161019,2,-10,-14,1,2,2,-2,-25
1523183511182581,98,55,3,3,-3,-4,-7,-69
1523183511182581,-42,-52,-23,-6,-3,-1,-4,26
1523183511183584,-41,-21,2,2,2,-1,1,-24
1523183511183584,25,36,26,6,1,-2,-5,-38
1523183511196618,52,-4,-50,0,-1,2,5,23
1523183511196618,65,-11,4,-4,-4,-1,-3,-19
1523183511204640,0,-21,-3,-1,0,0,-5,-37
1523183511204640,-10,-9,-8,-3,-2,-1,-2,12
1523183511219679,-52,32,52,8,3,0,1,-24
1523183511219679,24,-5,-4,-4,3,3,2,20
1523183511220683,-7,-27,-1,-1,-2,-3,-1,5
1523183511220683,15,16,12,-1,-2,-4,-4,2
1523183511242745,-29,74,7,1,-3,-2,-1,15
1523183511242745,-10,14,9,-4,-1,0,4,52
1523183511243747,67,-10,-6,4,3,2,3,8
1523183511243747,-106,2,9,-10,-8,-7,-6,25
1523183511257018,-63,-17,-4,-2,0,-2,-5,-34
1523183511257018,12,-17,10,6,2,1,3,36
1523183511264418,16,5,-4,-1,-3,-2,-3,24
1523183511264418,18,69,1,5,2,2,3,-4
1523183511280461,-2,-62,11,-3,1,1,0,16
1523183511280461,5,32,-46,-4,-5,-2,1,8
1523183511281464,-30,-29,8,-3,-5,-4,-5,-13
1523183511281464,35,3,-13,1,2,2,1,-10
1523183511303622,-32,12,14,0,-2,-1,-3,-12
1523183511303622,11,4,5,2,0,-1,-1,55
1523183511303622,-13,2,0,-6,-4,-2,-2,-22
1523183511303622,35,-37,-10,1,1,1,4,6
1523183511325580,-77,-46,-19,-9,-5,-6,-6,-18
1523183511325580,-57,-6,6,-7,-4,-3,-5,-65
1523183511326584,20,12,-4,-2,-2,-2,1,28
1523183511326584,-5,-5,9,-2,-2,-2,-5,-69
1523183511339619,2,37,-16,-4,-2,-1,2,31
1523183511339619,8,-13,4,4,2,2,0,16
1523183511340622,-35,25,13,-2,-1,0,-2,-21
1523183511340622,-3,-33,-21,4,2,0,4,-13
1523183511363187,80,41,30,0,1,0,0,1
1523183511363187,26,-16,-16,-3,-3,0,-2,2
1523183511363187,39,9,-7,0,1,0,-1,4
1523183511363187,-55,-31,8,1,0,1,-4,-4
1523183511385307,-36,-4,-4,1,-1,0,1,29
1523183511385307,44,-34,-20,-4,-1,1,1,37
1523183511386309,-34,-24,-15,-1,-2,-1,-6,-41
1523183511386309,82,17,-9,-7,-5,-6,-4,1
1523183511399344,-43,-87,-24,-8,-4,-5,-4,22
1523183511399344,-24,83,25,2,3,1,0,5
1523183511400345,-17,-1,-3,4,0,1,-1,7
1523183511400345,42,23,-31,-3,0,2,-1,-13
1523183511423405,11,-24,4,-1,-3,-3,-2,15
1523183511423405,18,-7,-10,-1,-1,-1,-1,-11
1523183511423405,21,-44,-12,-5,-3,-2,-2,3
1523183511423405,-79,-23,7,1,0,2,1,-23
1523183511445467,26,9,25,9,5,3,6,37
1523183511445467,17,43,-10,-9,-4,-5,-8,-57
1523183511446468,-14,-8,24,0,1,-1,-1,-34
1523183511446468,-89,-35,-45,-4,-4,-4,-6,-26
1523183511460010,-10,30,31,9,4,3,3,-7
1523183511460010,80,-27,-21,-4,-3,-1,0,2
1523183511461013,11,0,-6,-5,-1,0,0,0
1523183511461013,-2,-7,10,0,1,-2,0,18
1523183511482614,21,18,-3,-4,-3,-2,-4,-21
1523183511482614,-41,-40,11,7,3,5,6,-38
1523183511483577,34,11,-11,-2,-5,-4,-2,32
1523183511483577,8,14,7,1,0,1,6,46
1523183511505871,29,6,7,4,0,-2,-6,-75
1523183511505871,-37,-22,2,-1,0,2,0,11
1523183511506638,-14,22,-2,-4,-5,-4,-4,-26
1523183511506638,36,-8,13,2,-1,-2,-3,-48
1523183511519674,-47,-48,-10,-6,-3,-2,-4,18
1523183511519674,-67,-17,0,-5,-3,-4,0,30
1523183511520676,-30,8,-4,4,0,0,0,4
1523183511520676,48,-44,-5,-1,-1,-1,-1,19
1523183511542737,37,38,3,-1,-1,1,1,-16
1523183511542737,82,-26,-6,-4,-5,-7,-5,23
1523183511543745,-42,-3,2,-1,2,2,4,15
1523183511543745,-68,34,5,2,0,0,1,-11
1523183511565397,10,-8,-21,0,-1,0,1,3
1523183511565397,-17,-21,13,5,3,1,1,16
1523183511566400,-37,-3,14,0,-3,-2,-2,-41
1523183511566400,75,12,-11,-5,-5,-5,-3,93
1523183511579436,-95,-25,-3,-6,-5,-3,-5,-24
1523183511579436,16,41,19,2,-1,0,2,7
1523183511580439,21,-7,-35,1,0,-5,-2,28
1523183511580439,0,33,13,1,3,4,1,0
1523183511603621,2,10,-14,-3,-2,-2,-1,-5
1523183511603621,33,-9,17,0,-2,-2,-3,16
1523183511603621,0,0,-3,-5,-2,0,0,-12
1523183511603621,30,14,2,-5,-7,-7,-6,19
1523183511625558,74,1,-4,1,1,0,-2,-6
1523183511625558,-3,-10,18,0,1,0,-1,-13
1523183511626562,54,32,-44,-3,1,1,0,-8
1523183511626562,-30,2,17,-1,-1,-1,-4,-89
1523183511639829,70,-4,-15,3,6,4,3,49
1523183511639829,-37,45,8,2,-4,-4,-2,7
1523183511640597,4,23,7,-2,1,0,-3,11
1523183511640597,12,29,-8,-3,-2,0,4,-13
1523183511663162,-2,13,17,2,0,-1,1,3
1523183511663162,13,-55,-12,0,-1,1,0,-18
1523183511663663,-24,-16,0,-1,0,0,1,5
1523183511663663,21,6,10,2,3,1,1,2
1523183511685728,-87,25,3,3,-4,1,5,45
1523183511685728,-16,-9,-14,-9,-4,-5,-4,-36
1523183511685728,-25,-9,16,6,0,2,-1,-11
1523183511685728,23,-7,-4,-2,-2,-1,2,78
1523183511699765,-79,-13,-8,-10,-5,-4,-7,-86
1523183511699765,0,-26,10,3,0,-3,-4,1
1523183511700767,6,-8,-2,-5,-2,0,-1,22
1523183511700767,-32,-27,2,3,2,3,3,-51
1523183511722865,29,-19,8,-5,-4,-3,-2,15
1523183511722865,-19,16,-17,-9,-1,-1,0,-4
1523183511723830,4,-34,8,2,0,-3,-3,-17
1523183511723830,18,-4,4,1,-1,3,5,15
1523183511745889,4,-47,-15,-10,-6,-6,-5,3
1523183511745889,-5,-1,9,3,0,-2,-1,-2
1523183511745889,-51,-61,-6,3,-1,-2,3,51
1523183511745889,13,4,21,0,-1,-2,-3,29
1523183511759936,57,11,-28,-2,3,2,1,-28
1523183511759936,-16,16,-11,1,3,1,-1,-45
1523183511760936,-5,-3,0,-4,-4,-3,-3,15
1523183511760936,-42,-1,11,4,0,-3,-4,-7
1523183511782571,3,-74,-18,-9,-3,-1,-2,6
1523183511782571,56,-10,-3,4,1,0,1,35
1523183511783574,8,31,14,2,1,1,-3,-36
1523183511783574,45,15,2,2,-1,-1,0,-20
1523183511805872,24,5,20,6,1,0,5,53
1523183511805872,15,18,3,-4,-2,-2,-8,-63
1523183511806635,-28,-20,1,-3,-1,-2,-2,-12
1523183511806635,18,-20,-7,-1,0,-1,1,6
1523183511819670,-18,-29,3,-2,-2,-1,1,-7
1523183511819670,-46,3,3,-2,-1,0,3,24
1523183511820672,54,19,-2,3,1,0,-4,-34
1523183511820672,-37,-78,-33,-10,-5,-3,1,44
1523183511842732,70,48,2,1,0,-1,-6,-7
1523183511842732,13,-35,-22,-1,-3,-2,-1,12
1523183511843738,-94,-1,-4,-10,-6,-3,-3,-7
1523183511843738,-5,-18,-6,-5,-5,-3,-2,19
1523183511865487,16,9,2,1,-2,-3,-4,24
1523183511865487,57,25,6,0,4,1,3,37
1523183511866451,-10,93,9,5,6,4,8,44
1523183511866451,-18,-72,-13,-13,-7,-4,-9,-74
1523183511879486,-27,23,2,1,2,-1,0,14
1523183511879486,-14,56,16,4,0,3,1,-3
1523183511880488,6,-20,-4,0,-2,-3,1,46
1523183511880488,0,21,-7,0,1,2,-2,-8
1523183511903623,16,28,12,5,1,1,2,20
1523183511903623,33,-33,-8,-3,0,-1,0,22
1523183511903623,6,6,-8,0,-6,-3,-3,-23
1523183511903623,16,-2,3,5,2,1,0,4
1523183511925610,-95,-19,-6,-2,-2,0,0,11
1523183511925610,62,10,0,-1,-3,-4,1,71
1523183511926617,1,-8,2,-7,-1,-2,-3,21
1523183511926617,-2,49,-44,-5,-2,-1,-5,22
1523183511938643,-33,29,21,6,1,0,1,-19
1523183511938643,-58,-27,-4,-1,-1,1,-3,-23
1523183511947668,18,-4,0,-2,-3,-2,1,18
1523183511947668,-48,-3,12,-1,-2,-2,-1,-72
1523183511963215,-58,0,3,-3,0,-1,2,-26
1523183511963215,-25,-59,-6,0,-2,-2,-2,-24
1523183511963215,-19,76,-2,-4,-2,0,-2,-10
1523183511963215,0,-9,14,3,4,1,0,30
1523183511985675,76,63,-21,-3,-3,-4,-4,-22
1523183511985675,-106,-11,30,7,-1,1,2,-46
1523183511986677,80,-36,-17,-3,-2,-2,-3,6
1523183511986677,-16,-27,-13,-6,-4,-3,0,15
1523183511998710,7,24,16,-4,-1,0,1,-2
1523183511998710,35,-47,-30,-4,0,-1,-4,-35
1523183512007922,-45,-62,21,6,3,2,0,-12
1523183512007922,-4,42,2,-7,-3,-3,3,72
1523183512022773,28,-34,-1,4,-1,-1,-3,-15
1523183512022773,31,22,-7,0,-2,-3,0,34
1523183512024778,17,-21,-12,-2,-1,-1,-2,-14
1523183512024778,-19,-1,24,8,2,3,-2,-37
1523183512045834,53,4,-1,-4,-2,-2,1,34
1523183512045834,-3,32,-6,1,1,1,-2,32
1523183512046837,0,-19,12,5,2,1,1,3
1523183512046837,5,-6,-20,-8,-7,-5,-5,8
1523183512059384,10,14,-2,0,1,-1,0,-10
1523183512059384,29,30,-12,0,1,2,2,-1
1523183512067948,-5,-20,6,-2,-4,-6,-6,-79
1523183512067948,-31,19,20,3,0,-2,-1,-3
1523183512083026,-78,-77,-38,-9,-5,0,-2,28
1523183512083026,25,-34,23,4,-2,0,2,13
1523183512084992,-20,35,-6,-4,-3,0,-2,0
1523183512084992,50,-18,0,1,2,-2,-3,-24
1523183512106078,17,-3,-1,-2,-3,-2,-3,-12
1523183512106078,-57,-38,11,-3,-1,-4,-1,-7
1523183512107050,15,-14,-19,0,-1,2,-1,8
1523183512107050,6,43,-8,-6,-3,-2,-4,-5
1523183512119083,39,-1,8,4,-1,0,0,30
1523183512119083,5,-14,-2,-2,-3,-2,0,10
1523183512128107,8,5,-6,-2,-1,-3,-1,-12
1523183512128107,10,-8,3,6,-1,1,2,-6
1523183512143149,-74,-4,20,1,1,0,0,-8
1523183512143149,34,61,-8,-4,-1,-1,-5,-1
1523183512144152,39,0,-11,-1,0,1,3,44
1523183512144152,-4,2,5,3,3,3,3,6
1523183512165655,7,-6,0,-2,-2,-4,-3,8
1523183512165655,0,15,2,-3,-2,0,0,5
1523183512166624,-37,14,3,-1,-1,-3,-2,-2
1523183512166624,-5,-2,2,6,5,4,0,-35
1523183512187912,23,6,0,0,-3,-1,1,13
1523183512187912,-28,-11,-6,-7,-3,-4,-4,-70
1523183512189681,33,16,15,2,1,1,0,-3
1523183512189681,-70,22,11,5,-3,0,1,-30
1523183512202951,48,-53,-8,-1,0,-1,-6,20
1523183512202951,0,30,5,-3,-4,-4,-2,50
1523183512204718,7,-11,10,3,0,1,2,6
1523183512204718,14,8,-7,-4,-2,-3,0,15
1523183512225776,-48,-21,-5,2,1,4,4,-26
1523183512225776,37,71,14,-1,-3,-1,1,19
1523183512226781,-64,1,-8,-6,-5,-4,-3,-2
1523183512226781,45,2,-2,-1,-2,-1,-1,31
1523183512239044,24,-36,-11,3,3,1,-2,-41
1523183512239044,-42,-4,-3,1,-1,0,2,-8
1523183512248381,58,-34,2,1,-1,-2,0,23
1523183512248381,-2,16,-18,-3,-2,0,0,45
1523183512263384,-9,1,20,-6,-3,-2,1,-30
1523183512263384,0,-16,-43,-1,0,0,-5,-19
1523183512264548,40,-21,1,-1,0,-1,-3,-52
1523183512264548,5,-1,3,-1,-1,-3,-1,28
1523183512285605,4,46,15,0,-2,-1,-1,17
1523183512285605,-39,-36,-18,-3,1,0,1,-13
1523183512286608,-81,-8,-32,-7,-1,-2,0,14
1523183512286608,54,-15,3,0,-1,-1,-5,-18
1523183512307845,-34,4,-17,-4,-4,-2,-2,-38
1523183512307845,-7,3,17,3,0,-2,1,20
1523183512309671,-96,13,10,4,2,3,2,-56
1523183512309671,35,-33,11,-7,-4,-4,-5,-6
1523183512322742,-64,-1,-15,-3,-2,-2,-5,-40
1523183512322742,65,-34,3,-5,-4,-3,-9,59
1523183512324713,23,64,-2,2,0,0,-1,47
1523183512324713,-35,39,12,0,-2,-3,1,-20
1523183512345764,28,77,-8,2,1,-1,3,46
1523183512345764,-21,-8,17,0,4,3,2,-28
1523183512346766,-41,3,9,-2,-3,-3,-3,15
1523183512346766,-25,-51,-4,-2,-5,-3,-4,-6
1523183512368400,-15,-15,-35,1,0,1,-1,-23
1523183512368400,51,-34,-4,2,-2,-2,0,30
1523183512369389,48,38,7,-8,-3,-2,-2,17
1523183512369389,-36,8,1,-1,2,-2,0,-4
1523183512390678,33,-26,8,0,-1,1,0,-3
1523183512390678,-37,34,-2,0,-3,-2,0,18
1523183512392448,-16,-25,-5,2,0,1,9,45
1523183512392448,1,-2,-1,-6,-5,-7,-17,-72
1523183512405722,6,-1,4,1,1,-2,0,31
1523183512405722,-21,-5,-15,1,0,1,2,-19
1523183512407487,104,17,18,-4,-4,-2,0,-1
1523183512407487,-5,10,1,3,2,2,5,8
1523183512427543,-11,-3,9,2,-2,0,1,10
1523183512427543,-52,81,-8,-1,-2,-1,-5,-39
1523183512429547,-1,-2,-2,-2,0,-1,-4,-20
1523183512429547,26,-4,5,2,2,1,2,18
1523183512442585,-28,-11,10,3,1,0,1,38
1523183512442585,-25,-37,7,-5,-3,-1,0,12
1523183512449106,6,2,-16,4,2,3,1,1
1523183512449106,-74,-30,-22,-4,0,1,-5,-24
1523183512464938,49,-10,25,2,1,-1,-1,62
1523183512464938,11,5,-8,1,1,-2,1,3
1523183512466944,65,-33,-38,-9,-3,-6,-6,-6
1523183512466944,11,12,4,-1,-4,0,3,17
1523183512487999,-12,-4,7,2,0,-3,-2,-36
1523183512487999,8,-19,4,-6,-3,-5,-3,-13
1523183512490245,-64,-17,0,1,1,4,2,0
1523183512490245,34,-18,-6,3,1,-1,1,20
1523183512502271,52,1,-2,-2,-2,-1,-4,-6
1523183512502271,46,-18,-4,-1,-2,-3,0,10
1523183512509056,29,1,11,1,-3,-3,-2,-9
1523183512509056,-20,-43,-22,-3,-1,-1,-3,-28
1523183512526108,-55,-27,-17,-3,-1,1,2,53
1523183512526108,-39,23,-3,-3,-5,-3,-7,-2
1523183512527107,-70,-13,18,3,0,1,-3,-37
1523183512527107,59,-8,-8,-6,-3,-1,-1,0
1523183512548161,14,50,2,6,4,2,5,-7
1523183512548161,-34,9,-8,-10,-5,-2,4,-4
1523183512549671,17,-3,2,3,0,-4,-3,8
1523183512549671,23,15,12,4,1,-1,1,49
1523183512562707,-26,7,-3,-8,-4,-2,-4,-49
