timestamp,emg1,emg2,emg3,emg4,emg5,emg6,emg7,emg8
1523208600798748,-5,1,-38,17,8,1,-2,-1
1523208600798748,-1,0,-16,-32,-7,-3,-1,-3
1523208600800752,-4,-7,8,15,-2,-6,-1,-2
1523208600800752,3,11,12,34,6,1,1,2
1523208600810779,-1,1,-2,-47,4,4,0,0
1523208600810779,0,0,26,7,-1,0,2,-1
1523208600819808,-7,-8,-35,22,-5,-6,-3,-3
1523208600819808,-2,-2,-2,-4,-1,-6,-5,-3
1523208600833842,5,0,-12,-17,-1,3,0,0
1523208600833842,-5,-2,17,-5,-9,-5,1,2
1523208600840861,13,4,28,9,8,2,-3,-3
1523208600840861,11,9,-68,-9,-3,5,1,1
1523208600856902,-11,-8,15,14,8,1,2,1
1523208600856902,-74,-65,-31,-17,-10,-3,-6,-17
1523208600858907,-4,6,-7,-3,-7,-11,-9,-7
1523208600858907,5,-8,36,20,5,-1,-2,-1
1523208600879962,28,11,-68,-14,2,3,4,5
1523208600879962,11,-1,-31,-2,-5,-3,-1,2
1523208600880966,-7,-5,16,-12,-9,-6,-2,-1
1523208600880966,-2,3,-4,7,-7,-4,-5,-2
1523208600894009,1,14,49,18,15,7,13,5
1523208600894009,8,8,-6,-13,1,5,1,2
1523208600901018,-10,-6,-13,4,-2,-7,-3,-6
1523208600901018,10,8,-19,-1,-8,1,1,-1
1523208600917067,-10,-12,-8,-6,9,3,-3,-3
1523208600917067,21,10,9,2,9,3,-4,1
1523208600919072,-20,-13,-26,-4,-12,-3,-16,-5
1523208600919072,1,-8,-5,-15,-1,-6,28,6
1523208600931102,-12,-8,-2,-8,-20,-11,-7,-4
1523208600931102,17,11,-11,4,2,-1,0,0
1523208600940123,3,4,26,7,7,8,-3,-2
1523208600940123,-12,-11,5,6,-1,4,-10,-5
1523208600954159,-1,2,-3,-4,3,-4,-4,-2
1523208600954159,4,7,14,6,-3,-6,0,1
1523208600961198,-1,-6,-37,-19,-11,-6,0,0
1523208600961198,-8,-7,-1,-8,-1,-3,-5,-4
1523208600977222,10,7,-37,-21,0,3,6,2
1523208600977222,-7,-6,-3,5,4,5,-4,-3
1523208600979227,-2,-5,-20,-10,2,2,2,1
1523208600979227,4,1,14,-7,1,-1,-1,-4
1523208600991314,-1,12,18,24,0,-1,-7,-2
1523208600991314,1,4,-2,-12,-7,-5,1,1
1523208601000282,3,-2,0,-14,-3,1,4,1
1523208601000282,-2,2,23,18,8,1,-4,-2
1523208601014554,-2,-5,-36,-8,-4,-3,-4,-3
1523208601014554,4,1,5,14,3,1,3,2
1523208601021339,1,-2,9,12,0,-2,-2,1
1523208601021339,-1,7,-9,12,1,2,-7,-3
1523208601037381,10,-3,32,14,-2,-1,13,1
1523208601037381,-26,7,6,-29,-9,-5,-1,-2
1523208601038385,-1,-9,-9,66,-2,-7,-3,-4
1523208601038385,-3,-2,2,-35,2,3,-5,2
1523208601059478,-16,-4,-12,5,3,4,-4,-3
1523208601059478,15,9,28,4,6,6,1,-5
1523208601061445,22,6,4,-25,-2,2,5,15
1523208601061445,-15,-6,6,37,-2,-3,-3,-1
1523208601074480,7,2,7,-26,-11,-6,-4,-2
1523208601074480,1,-3,-15,-18,-3,-1,-5,0
1523208601080537,-5,6,30,2,4,3,2,-2
1523208601080537,-2,-10,-36,-6,-6,-4,-1,-5
1523208601097776,-3,-2,-24,-12,-6,-6,-8,-1
1523208601097776,3,-4,5,20,-9,-6,-3,-3
1523208601099585,-6,-1,-6,-5,12,10,6,-2
1523208601099585,5,12,24,-11,6,5,3,3
1523208601119604,-8,-13,22,18,-1,-2,-3,-3
1523208601119604,1,2,-17,-7,-7,-3,-1,0
1523208601121605,3,2,15,-4,-5,-8,-1,-3
1523208601121605,-5,-3,-27,-11,-6,-2,-2,0
1523208601133872,-3,-2,5,-8,3,1,1,1
1523208601133872,9,-4,-4,7,-3,-3,-4,-3
1523208601142662,-5,-6,-5,10,6,5,6,-1
1523208601142662,1,-7,18,14,-4,-2,-1,-2
1523208601157701,-9,-3,3,-12,-8,-7,-9,-3
1523208601157701,-7,1,5,21,4,0,9,-1
1523208601158704,2,2,15,-15,1,2,0,0
1523208601158704,-4,-3,-9,22,6,0,-3,-1
1523208601179762,-3,10,-3,10,3,5,-7,-14
1523208601179762,20,-1,4,-20,-3,-2,9,25
1523208601185783,-14,-14,-44,-16,-11,-6,4,-8
1523208601185783,54,8,9,2,-3,1,-2,1
1523208601194808,-32,11,-11,-1,0,-7,3,3
1523208601194808,7,-42,-7,2,4,4,0,-12
1523208601200815,-58,9,-24,0,-4,-8,-17,12
1523208601200815,-5,1,-26,-15,-2,-1,15,-33
1523208601216859,-4,-9,-3,-5,-1,6,4,-1
1523208601216859,16,29,-19,8,-2,-10,-22,-6
1523208601218869,26,3,62,0,-2,-1,5,-1
1523208601218869,-23,-41,13,-8,0,2,-1,10
1523208601239920,19,-4,19,3,1,4,0,3
1523208601239920,14,18,-92,-6,-1,1,0,-4
1523208601240925,-46,-8,-2,-26,-13,-7,-9,-3
1523208601240925,0,-7,-17,-9,4,1,-2,24
1523208601252956,-101,0,11,17,2,-1,0,-28
1523208601252956,11,-24,49,1,2,6,4,32
1523208601267998,51,-3,-36,-18,-4,-2,0,-9
1523208601267998,-18,16,-1,-22,-7,-6,-6,-8
1523208601277018,50,-16,6,11,2,-1,0,5
1523208601277018,-88,29,39,-7,0,3,7,-13
1523208601279023,37,14,-41,-5,2,1,-5,25
1523208601279023,65,12,38,-2,-6,-3,5,-6
1523208601300314,-20,3,18,-6,1,0,-7,-6
1523208601300314,1,18,-12,-5,-4,-7,-9,-12
1523208601301084,-17,-8,22,16,4,6,19,-2
1523208601301084,21,11,-18,-2,-1,-2,-9,11
1523208601314117,17,3,-21,3,-4,-8,-7,16
1523208601314117,-25,-7,14,-9,-4,-1,-1,-6
1523208601322138,50,-13,2,10,1,-1,-1,-8
1523208601322138,-58,-7,-12,12,2,0,-3,-2
1523208601337178,38,13,-19,6,4,2,3,-7
1523208601337178,-7,-24,40,16,4,3,-1,5
1523208601339186,-90,4,49,-19,3,0,-2,-10
1523208601339186,-13,-6,-40,-21,-10,-7,-4,3
1523208601360239,23,-19,-68,-30,-7,-7,-2,7
1523208601360239,-34,22,57,7,4,-1,0,-3
1523208601361243,4,6,-17,21,3,1,-3,-8
1523208601361243,-38,2,26,2,2,3,-1,-6
1523208601373273,34,23,42,6,4,6,6,22
1523208601373273,38,-11,-43,-9,2,4,1,-16
1523208601382300,28,-63,-30,15,-8,-9,-21,-20
1523208601382300,-17,11,13,-14,-6,-5,-3,-44
1523208601399371,-10,3,12,2,1,2,2,0
1523208601399371,44,10,21,5,3,2,-18,-13
1523208601400344,-62,-6,-3,0,-2,-1,44,59
1523208601400344,40,9,-25,1,-2,-4,-8,-17
1523208601419405,-12,-27,-60,-16,-2,0,-6,-6
1523208601419405,-9,-33,26,8,-10,-10,-6,-5
1523208601421401,-1,33,121,5,8,7,-4,-3
1523208601421401,5,-49,-7,-16,-9,-6,-6,10
1523208601433668,43,18,46,11,2,2,11,12
1523208601433668,6,17,-87,2,4,3,5,3
1523208601442459,38,-15,21,-4,-2,-3,-9,-19
1523208601442459,-31,4,28,0,1,2,5,10
1523208601457499,50,-10,32,9,-3,-2,-10,-2
1523208601457499,-6,-4,7,-2,-3,0,7,5
1523208601458501,54,6,-82,-30,-6,-8,-16,-14
1523208601458501,-27,28,-5,26,11,7,6,7
1523208601479559,-2,-27,107,7,5,3,5,31
1523208601479559,-92,-26,-110,-61,-18,-11,-4,-39
1523208601481562,63,66,42,11,0,0,3,11
1523208601481562,-10,-27,-88,-3,3,5,-2,10
1523208601493828,23,15,69,4,-4,-1,4,4
1523208601493828,24,-13,-35,5,-2,-3,6,16
1523208601502623,-62,-22,-45,32,0,-3,-7,-3
1523208601502623,9,28,24,-28,-7,-5,-3,-23
1523208601517662,-27,12,-34,6,6,6,-2,7
1523208601517662,39,-16,19,-4,-2,-2,-1,2
1523208601518666,-115,-37,30,-10,-7,-7,-8,-58
1523208601518666,54,1,26,35,15,9,3,22
1523208601547887,-61,-8,-36,-31,-15,-12,-7,-22
1523208601547887,9,-13,17,22,0,-1,-2,-8
1523208601548739,22,-13,-35,-27,-6,-2,-2,21
1523208601548739,-2,11,26,20,6,4,6,43
1523208601553754,-1,-29,-35,-8,-1,1,-6,-63
1523208601553754,-44,27,-3,-7,3,2,-2,6
1523208601562777,58,9,-81,8,1,-1,-2,1
1523208601562777,27,-26,-6,-10,-9,-7,-2,-7
1523208601576816,9,26,26,1,-3,-3,3,45
1523208601576816,-9,-14,-48,-4,-11,-13,-13,-32
1523208601578820,22,2,-2,1,7,3,2,5
1523208601578820,-59,-2,14,13,-2,0,9,-14
1523208601599927,-4,2,-33,-10,3,4,1,28
1523208601599927,30,10,99,-3,-2,-3,-6,-9
1523208601601886,9,4,0,-24,-5,-1,6,-8
1523208601601886,25,16,-3,7,2,-1,-3,-2
1523208601612911,-99,7,-23,11,2,1,0,-17
1523208601612911,-1,0,33,-2,7,7,2,15
1523208601621935,65,5,11,12,1,1,-4,-1
1523208601621935,-56,2,64,-14,-7,-7,-8,15
1523208601636976,49,-18,-45,-21,-6,-5,0,-7
1523208601636976,-30,-11,28,22,3,3,-17,-10
1523208601638981,-5,22,-18,-16,-5,0,16,11
1523208601638981,78,21,-4,11,3,4,-12,0
1523208601660036,-75,-21,13,-3,-2,-5,1,-1
1523208601660036,29,-11,-1,13,-2,0,16,72
1523208601661039,-113,-16,-11,-22,-7,-7,-21,-96
1523208601661039,33,0,34,7,-3,-5,44,11
1523208601673071,32,-9,-85,-22,-9,-5,-19,-10
1523208601673071,-6,8,69,5,1,-1,12,-6
1523208601682313,48,-2,34,15,7,9,0,32
1523208601682313,-36,-41,-13,-33,-8,-6,-15,-7
1523208601697369,-55,11,38,54,7,1,0,-34
1523208601697369,88,12,80,-21,-5,0,3,18
1523208601699140,-44,-5,-73,-27,-4,-3,-9,23
1523208601699140,-24,-4,-84,-14,-5,-5,-12,-14
1523208601720199,32,29,-4,9,1,-1,6,9
1523208601720199,-11,2,10,3,-1,-2,-7,5
1523208601721199,116,47,80,25,6,7,5,6
1523208601721199,-84,-63,-25,0,-7,-5,-6,-14
1523208601733465,59,19,-47,-19,-4,-1,5,50
1523208601733465,-47,13,-98,2,-5,-3,-6,-30
1523208601742255,26,13,71,-5,3,3,-1,-6
1523208601742255,-64,5,50,13,8,5,1,0
1523208601757334,109,7,36,18,-9,-7,-10,22
1523208601757334,-8,1,29,-7,-1,-2,-4,3
1523208601759300,-9,-52,-48,3,-5,-2,10,-32
1523208601759300,2,10,35,2,3,3,-8,-18
1523208601779353,-29,-37,78,4,2,1,1,-6
1523208601779353,82,25,-10,8,4,1,4,-9
1523208601781366,-54,-19,38,-21,-9,-7,-7,-1
1523208601781366,92,-3,2,13,1,1,2,19
1523208601793626,-96,-16,-9,-9,-1,-2,0,-41
1523208601793626,13,8,12,-3,2,2,-8,21
1523208601802417,-12,-6,54,5,-4,-6,8,-2
1523208601802417,40,6,-117,-13,-4,1,10,33
1523208601817454,-10,11,79,5,8,-1,-1,-25
1523208601817454,-30,-11,-56,4,4,5,5,5
1523208601818461,72,15,-52,-4,-8,-10,-5,11
1523208601818461,9,12,10,17,1,-2,-35,-1
1523208601839513,-35,-32,-19,-23,-2,1,6,-41
1523208601839513,90,21,-19,37,-3,-2,-9,27
1523208601841518,20,27,-8,-30,4,5,33,8
1523208601841518,10,-31,-68,-13,-9,-6,-15,-24
1523208601853550,22,18,69,19,0,1,-5,4
1523208601853550,-28,10,11,-29,-2,0,-2,-4
1523208601862573,-74,-27,-40,26,2,1,-18,4
1523208601862573,-26,4,44,5,6,4,4,-12
1523208601877613,-8,-25,-15,-23,-6,-5,-2,4
1523208601877613,79,-7,-30,3,0,-3,7,20
1523208601878617,-84,19,66,35,1,-1,3,-39
1523208601878617,-5,14,103,-39,-8,-5,-6,-3
1523208601900675,96,26,-72,15,17,11,13,5
1523208601900675,33,-24,-46,-31,-15,-12,-10,17
1523208601901681,32,1,-12,14,5,3,6,23
1523208601901681,5,17,18,4,-2,-1,0,-4
1523208601913710,-12,47,56,5,-2,0,-6,-4
1523208601913710,-32,-24,41,12,7,7,7,-18
1523208601922735,17,1,-92,-11,1,-1,-9,25
1523208601922735,-46,-18,-6,-9,-3,-5,3,-9
1523208601936771,31,10,-40,1,-7,-4,1,42
1523208601936771,-52,-3,-16,-5,2,1,3,-50
1523208601938776,-26,12,9,11,-1,-3,-13,-18
1523208601938776,37,9,-26,2,3,3,7,4
1523208601959831,40,-9,-9,-19,-3,-4,-8,4
1523208601959831,-25,2,12,16,-6,-6,0,-2
1523208601961837,14,-6,-26,-28,-2,2,-1,6
1523208601961837,-14,-2,7,13,4,4,6,8
1523208601981893,-25,-1,-37,-2,-3,-4,-6,-9
1523208601981893,32,-19,-32,-17,-3,-2,-9,-19
1523208601983897,-9,-27,1,-1,1,3,27,25
1523208601983897,-2,-3,-35,12,2,1,-1,-5
1523208601996933,-17,15,36,-8,4,5,4,4
1523208601996933,21,6,-98,5,-4,-2,3,-3
1523208601998935,9,-7,26,-29,-15,-12,-20,19
1523208601998935,-3,-13,41,2,1,-1,1,-32
1523208602019991,-15,14,-80,23,4,2,4,1
1523208602019991,-85,17,60,-13,5,1,3,-5
1523208602020995,39,27,9,3,-1,0,-19,8
1523208602020995,25,3,26,-24,-10,-7,12,15
1523208602042051,-82,-48,19,-9,-4,-2,10,-11
1523208602042051,-10,5,23,16,1,0,-2,11
1523208602044057,53,6,-55,-26,1,0,-8,1
1523208602044057,16,-1,51,47,4,2,3,-8
1523208602057090,-2,-19,-25,-24,-3,-2,-11,-1
1523208602057090,-28,0,76,-4,0,1,7,2
1523208602059098,67,16,127,50,5,3,9,22
1523208602059098,-31,-17,-97,-53,-11,-8,-15,-1
1523208602080191,16,-11,1,16,0,0,3,-24
1523208602080191,27,-17,-25,12,-1,-1,-1,1
1523208602081156,-23,-16,49,10,3,-1,-6,-4
1523208602081156,-89,-12,8,5,-2,0,6,-13
1523208602102210,17,4,-6,6,-6,-2,-10,8
1523208602102210,33,4,-70,-25,-2,-2,6,-3
1523208602104216,-116,-11,37,11,-2,-2,0,-15
1523208602104216,-38,-23,-122,-16,-5,-2,-4,-12
1523208602116249,8,-23,41,4,1,0,-6,7
1523208602116249,-34,11,61,-2,1,5,17,3
1523208602123266,-16,-17,3,13,1,1,7,0
1523208602123266,65,30,65,20,5,0,-8,5
1523208602140361,12,-3,-29,-43,-7,-5,3,-13
1523208602140361,-30,-2,-11,0,-6,-4,4,0
1523208602141314,-48,-34,-37,-10,0,-1,-6,-11
1523208602141314,-37,-17,-41,-3,-6,-6,-6,-13
1523208602162371,34,1,45,33,2,-2,-3,-8
1523208602162371,31,-1,51,-20,-5,-2,-9,8
1523208602168392,-64,-8,-27,-3,-3,-3,2,-6
1523208602168392,-30,11,35,14,8,8,3,12
1523208602176409,-16,-8,-34,-9,-7,-8,-5,8
1523208602176409,5,6,-50,0,1,0,-3,-6
1523208602183428,54,21,69,4,0,3,-4,1
1523208602183428,26,8,69,10,2,3,4,5
1523208602199704,15,6,42,13,-1,1,2,0
1523208602199704,-87,-26,-1,-20,2,1,-3,0
1523208602201479,118,16,25,2,-1,-3,-1,15
1523208602201479,-7,20,-60,-4,-2,-2,-1,5
1523208602222530,-52,33,16,4,-2,0,1,9
1523208602222530,-19,-5,-4,15,3,-1,-3,3
1523208602223534,-30,-17,13,-7,5,6,-1,-13
1523208602223534,42,-21,-74,-3,2,0,0,-2
1523208602236567,-12,-3,-25,-14,-8,-5,0,4
1523208602236567,46,26,-11,16,3,-2,-6,-2
1523208602243822,39,2,-15,-25,-6,-1,-3,3
1523208602243822,64,39,102,12,1,0,2,13
1523208602259629,110,0,-45,4,0,0,-4,-34
1523208602259629,97,8,32,-30,-1,2,3,25
1523208602261635,-84,-1,15,20,1,-4,-9,-12
1523208602261635,5,-1,36,5,-3,-4,-2,11
1523208602282689,16,2,-43,-17,-4,-7,7,8
1523208602282689,-26,-19,-34,10,1,-1,-21,4
1523208602283697,35,34,-75,9,-1,6,2,-20
1523208602283697,-68,-27,29,-45,-7,-4,4,15
1523208602296963,-36,22,16,17,8,6,7,10
1523208602296963,-6,6,-10,6,-2,0,-6,-14
1523208602303747,-8,-24,-24,-7,-2,-2,-3,5
1523208602303747,58,21,6,9,1,1,1,-2
1523208602319790,-34,-11,-24,-16,-2,-1,-7,-18
1523208602319790,-48,-13,42,2,-3,-3,4,-17
1523208602321794,10,20,30,-5,-4,-4,-4,0
1523208602321794,69,20,14,16,3,1,5,24
1523208602342909,31,-39,15,-20,-5,-5,-6,-2
1523208602342909,-32,14,-64,24,2,1,9,8
1523208602343852,-38,-13,-1,-4,0,-1,3,-8
1523208602343852,9,27,34,18,6,2,-3,-5
1523208602356888,-5,-23,56,-7,-4,0,-5,12
1523208602356888,30,-1,-12,-3,-3,-3,-2,-8
1523208602362904,-14,-13,16,2,-2,-2,-3,-4
1523208602362904,29,8,-11,-4,1,1,-2,-3
1523208602379948,-96,17,-17,0,1,0,0,-51
1523208602379948,30,-1,69,16,-4,-6,-1,19
1523208602380952,-71,11,-11,-17,1,1,-24,-22
1523208602380952,-23,-79,24,-9,-2,-6,41,18
1523208602402008,25,18,-4,4,-1,0,0,16
1523208602402008,80,8,31,9,4,4,-1,0
1523208602404012,4,18,-49,-8,-7,-4,8,11
1523208602404012,-123,9,-37,-12,-1,-1,-22,-18
1523208602417048,40,-9,-31,-4,-4,-5,-6,6
1523208602417048,-6,-12,1,-4,-7,-3,6,-1
1523208602423065,-15,-13,56,-12,2,1,-6,9
1523208602423065,-2,9,-44,-1,1,-1,-7,-28
1523208602440113,56,19,30,18,5,2,4,20
1523208602440113,-128,-24,-14,-21,-10,-7,-13,-16
1523208602441112,6,3,-84,2,0,0,2,-2
1523208602441112,42,8,-3,-4,-7,-5,-4,-31
1523208602462212,-15,-26,-31,1,0,-1,0,9
1523208602462212,121,-9,-94,-7,5,6,5,8
1523208602464172,-33,-18,92,0,-5,-6,0,10
1523208602464172,64,13,-37,-1,-1,-1,-2,31
1523208602476205,-44,42,97,13,4,1,-11,-43
1523208602476205,29,-44,-33,-20,-1,-2,-15,-46
1523208602485228,59,21,-93,29,4,3,29,18
1523208602485228,-34,-34,37,-4,-1,3,6,-11
1523208602500274,16,-5,-18,-6,-3,0,0,19
1523208602500274,-9,22,74,4,0,-1,-23,22
1523208602501276,-13,1,-19,-12,0,-1,4,-21
1523208602501276,83,-15,22,-9,-7,-4,-14,12
1523208602522327,-36,-12,-107,2,-1,-2,5,3
1523208602522327,-9,18,40,12,3,2,5,0
1523208602523329,4,-11,-14,-21,-9,-7,-9,2
1523208602523329,1,26,-52,-9,-1,2,1,4
1523208602536364,9,-10,13,15,4,2,-14,20
1523208602536364,-2,22,25,-28,-8,-7,15,1
1523208602544622,-43,-58,-32,23,2,3,4,14
1523208602544622,-105,-27,-98,-12,-9,-9,-9,-10
1523208602559425,-33,-1,42,-6,2,1,3,4
1523208602559425,-20,-12,-49,20,1,-1,1,-11
1523208602561432,107,27,48,0,1,3,4,12
1523208602561432,-9,-2,-5,-2,-2,-2,-4,-1
1523208602582487,57,7,55,7,-4,-4,1,26
1523208602582487,-42,-1,41,-10,0,-1,5,20
1523208602583493,11,-35,-84,-19,-2,-2,-8,-21
1523208602583493,-31,-26,102,2,-6,-6,-19,-6
1523208602596564,11,21,8,11,7,5,16,8
1523208602596564,-32,-1,12,14,3,1,-3,-10
1523208602604546,33,11,-21,3,-6,-7,10,-1
1523208602604546,75,19,26,-9,7,6,1,3
1523208602619586,16,-7,14,-5,-2,0,2,8
1523208602619586,8,-10,1,-6,1,1,-4,-3
1523208602621590,14,20,6,-11,-5,-3,-11,-13
1523208602621590,-60,-2,-96,11,-2,-1,3,-19
1523208602642882,-11,-7,17,-19,-8,-8,-5,0
1523208602642882,34,7,-30,0,3,0,5,-5
1523208602643649,49,16,42,8,3,-1,-2,35
1523208602643649,-35,6,-41,-5,-3,0,6,-4
1523208602655682,-6,16,4,-11,-7,-6,-5,43
1523208602655682,-36,9,3,9,1,1,1,-13
1523208602664745,-73,-15,-27,-3,1,-1,-3,0
1523208602664745,37,-9,41,19,3,1,-1,7
1523208602679744,-64,-22,-90,-19,-3,0,-3,-45
1523208602679744,89,26,19,1,-4,-3,5,60
1523208602681750,-65,-1,101,6,0,0,-3,-45
1523208602681750,18,9,13,8,3,1,-9,-20
1523208602701809,28,-27,10,-3,-2,2,13,-12
1523208602701809,-5,12,78,-8,-3,-1,3,10
1523208602703809,7,0,-24,0,2,2,0,-46
1523208602703809,-14,14,97,-14,-3,-2,4,8
1523208602715900,40,13,54,8,2,3,-3,-8
1523208602715900,-24,-26,-36,-9,-5,-6,-7,-20
1523208602724864,13,7,3,21,4,2,9,2
1523208602724864,-34,-7,-48,-32,-9,-7,-13,3
1523208602740143,-3,9,31,22,4,1,0,11
1523208602740143,-11,1,49,-7,-3,-1,0,-14
1523208602740909,-60,-11,-35,-6,-6,-4,-16,3
1523208602740909,-22,-27,42,19,8,9,11,-4
1523208602761965,5,-15,-107,-5,0,0,-3,-3
1523208602761965,-51,-15,-65,-8,-10,-5,-10,-8
1523208602763968,83,-25,-9,0,0,-1,5,2
1523208602763968,-20,-6,-14,10,2,1,-1,-12
1523208602776000,28,3,3,-21,-6,-5,1,14
1523208602776000,-35,9,-70,4,-1,-5,-7,-16
1523208602785030,1,9,61,14,4,3,2,6
1523208602785030,14,4,14,-14,-5,-7,-1,7
1523208602800069,45,3,24,39,4,3,-8,-7
1523208602800069,75,7,15,12,5,3,4,11
1523208602801072,-82,-15,-80,-66,-15,-7,-4,-1
1523208602801072,37,3,-18,29,5,2,0,4
1523208602822124,37,2,26,4,1,0,-2,-2
1523208602822124,-15,7,-96,-12,-5,-5,-2,-46
1523208602824129,58,5,60,4,-1,-1,-7,5
1523208602824129,5,-10,-24,-5,-4,-7,19,-3
1523208602836163,10,32,-7,-2,2,2,3,-19
1523208602836163,84,-19,-13,-13,-2,1,2,4
1523208602845185,-43,3,79,8,0,-3,-2,17
1523208602845185,31,11,-49,-21,-12,-10,-16,-6
1523208602860225,22,22,0,1,0,0,-2,29
1523208602860225,-67,-6,89,9,2,2,7,-3
1523208602861227,76,8,-45,14,3,0,-4,5
1523208602861227,-6,20,45,-5,-1,0,-2,3
1523208602882519,-29,-11,0,-9,-4,-3,-1,-11
1523208602882519,-20,-4,-7,3,1,1,-3,2
1523208602884294,5,13,-10,-7,-3,-3,-6,-1
1523208602884294,29,-1,22,13,4,2,1,-1
1523208602904342,-68,-16,16,-8,-4,-5,-4,-22
1523208602904342,-67,-14,-32,-3,2,1,-35,-1
1523208602906348,-14,13,-21,12,5,6,64,-1
1523208602906348,11,1,-1,-24,-8,-3,-5,0
1523208602919428,-22,-11,-29,-5,-2,-2,-1,-8
1523208602919428,-1,14,7,8,3,0,-3,-1
1523208602921387,24,-6,15,4,1,1,-13,6
1523208602921387,8,-11,34,7,0,0,-1,32
1523208602942678,-44,-10,16,-5,-3,1,2,-9
1523208602942678,18,13,15,2,1,3,11,7
1523208602944507,16,-28,78,4,-1,-4,-16,4
1523208602944507,-22,-14,-14,-4,-1,-2,2,-14
1523208602964737,39,18,-17,3,5,0,-11,1
1523208602964737,3,17,101,0,1,2,15,16
1523208602966510,-48,-4,-100,8,-2,-3,-8,2
1523208602966510,12,14,30,3,3,6,-5,-8
1523208602979546,12,-12,-35,-14,-8,-4,2,0
1523208602979546,0,-12,-43,-5,0,-2,5,-9
1523208602981549,-41,1,-2,-9,-5,-5,-6,51
1523208602981549,49,15,21,8,4,2,-1,-10
1523208603002605,11,-7,-37,-8,-4,-2,-1,-5
1523208603002605,51,0,-43,10,2,3,5,-6
1523208603003606,55,3,-24,-22,-7,-5,-12,-5
1523208603003606,-90,-13,35,6,0,-1,-1,-3
1523208603024663,-16,-29,40,3,2,2,3,12
1523208603024663,34,1,35,-2,-3,-2,-1,-5
1523208603026668,100,-12,-36,-1,-2,-2,-4,-9
1523208603026668,15,30,3,0,-2,-4,-3,-9
1523208603039741,-17,1,-22,7,6,5,9,-11
1523208603039741,-29,6,37,-2,-5,-4,0,9
1523208603045952,-6,9,2,-1,0,1,0,-6
1523208603045952,43,26,-31,-12,-8,-5,2,1
1523208603062763,0,-22,49,-1,-1,-2,-10,-13
1523208603062763,63,11,-27,2,0,-1,-23,6
1523208603064989,18,-11,67,-8,-6,-3,36,-2
1523208603064989,6,-7,-67,7,5,3,-2,26
1523208603085825,-5,6,-28,-5,-3,-3,-2,-1
1523208603085825,16,3,16,2,-5,-3,-2,15
1523208603087829,-57,6,35,12,2,0,-12,-20
1523208603087829,-17,-18,-13,-9,-6,-5,-3,52
1523208603099109,-9,1,-36,15,6,3,4,-6
1523208603099109,-33,-15,-22,-15,-2,-1,4,-4
1523208603105879,-31,-4,-25,11,-8,-6,-12,-60
1523208603105879,-6,-19,-65,10,16,13,9,-19
1523208603121920,-39,19,107,-26,-14,-12,-12,8
1523208603121920,-46,-6,91,9,-3,-4,2,2
1523208603123924,64,-19,-54,-6,4,2,-2,4
1523208603123924,-19,7,49,19,5,2,0,-24
1523208603145219,27,15,-16,-2,-2,0,-3,-23
1523208603145219,15,-1,-11,6,4,3,8,7
1523208603147026,-16,10,-1,6,0,1,-2,17
1523208603147026,56,-7,-42,-36,-13,-10,-8,-14
1523208603159017,-18,-12,-6,6,5,4,0,15
1523208603159017,-5,11,-14,-4,-6,-5,4,-1
1523208603166044,-34,-17,-20,1,2,0,-9,-1
1523208603166044,3,2,-4,9,-1,1,0,-5
1523208603182121,-35,-4,29,-6,-2,-2,-2,-7
1523208603182121,-5,-11,-124,-8,2,3,-2,-7
1523208603184090,104,-2,59,-2,0,-4,-9,4
1523208603184090,-13,-5,-11,-3,-5,-3,-2,0
1523208603205147,103,8,59,-1,-2,-2,3,17
1523208603205147,31,9,-59,10,2,1,-1,-35
1523208603206145,-49,-11,38,-1,3,3,0,7
1523208603206145,-4,-6,-43,-1,-2,-3,-2,7
1523208603219180,37,4,-15,10,3,5,2,1
1523208603219180,35,13,42,-11,-10,-9,-5,14
1523208603226196,-26,13,22,-9,3,2,0,2
1523208603226196,-57,-9,1,-14,-4,-2,-5,-32
1523208603242239,60,1,-1,9,4,3,-2,-36
1523208603242239,15,-11,64,-5,-3,-4,-4,12
1523208603244244,-113,10,8,-1,-4,-2,-6,-12
1523208603244244,21,17,21,5,-1,0,8,20
1523208603265384,5,22,-3,-4,-4,-5,-6,-8
1523208603265384,-44,-15,-34,-2,2,3,7,-9
1523208603266308,29,-4,44,5,0,-1,0,6
1523208603266308,-10,-2,-16,0,-1,0,0,-7
1523208603279339,-55,-17,-67,6,4,3,19,12
1523208603279339,-27,-39,87,4,0,2,-2,6
1523208603285361,32,22,-35,-10,-4,-4,-5,12
1523208603285361,-13,-24,-34,-5,-3,-1,3,-13
1523208603302399,-35,-16,12,0,-2,-3,-11,-8
1523208603302399,36,4,1,3,-2,-2,1,1
1523208603303410,-1,13,-19,-8,-2,1,7,4
1523208603303410,-116,-12,-23,0,-4,-4,-12,29
1523208603324458,-4,-11,0,-1,-3,-2,-2,-2
1523208603324458,19,2,-55,-7,-1,1,2,33
1523208603326464,-37,-3,25,10,2,0,-4,5
1523208603326464,83,11,2,8,5,5,1,-31
1523208603339735,-58,-31,-47,-24,-9,-9,-5,-7
1523208603339735,-31,-5,-8,-11,-6,-4,2,-12
1523208603346557,47,1,33,6,2,4,1,2
1523208603346557,-15,11,3,7,2,-2,-7,-3
1523208603362794,90,-7,49,6,1,3,8,29
1523208603362794,-113,8,15,2,1,1,-3,-23
1523208603364574,35,8,-123,-8,-2,-1,-2,-14
1523208603364574,-48,-8,32,4,-2,-4,-4,-38
1523208603386623,36,19,11,-1,-3,-2,-6,-2
1523208603386623,-69,-38,26,-15,-7,-4,-1,-1
1523208603387625,-12,13,31,7,2,-1,8,8
1523208603387625,70,-16,-10,-4,-2,0,-1,10
1523208603398865,-19,11,-12,4,2,-1,-2,17
1523208603398865,-34,6,52,11,4,1,-1,-75
1523208603407681,26,-17,19,-15,-7,-4,1,10
1523208603407681,-60,13,99,4,0,1,-3,-28
1523208603422719,80,5,-57,2,-3,0,-1,3
1523208603422719,90,-25,-16,4,0,0,-7,23
1523208603423722,-45,-8,-49,-12,-2,0,-4,-3
1523208603423722,7,-5,52,0,1,1,6,12
1523208603445013,43,11,-55,-9,-5,-1,-3,-2
1523208603445013,-58,-16,-108,5,2,1,1,1
1523208603446956,-68,9,94,-6,-9,-9,-8,-43
1523208603446956,21,2,-20,9,5,4,11,29
1523208603458815,-53,-15,8,-9,-3,-2,-5,-3
1523208603458815,91,24,19,4,4,6,4,11
1523208603467839,-14,3,-85,0,-4,-3,-2,9
1523208603467839,42,-12,-27,-3,1,0,-9,6
1523208603481877,-72,-2,19,4,2,5,8,1
1523208603481877,49,6,27,1,-3,-4,-1,25
1523208603483888,-7,4,37,4,0,2,0,-3
1523208603483888,0,11,56,-5,-2,-4,-5,2
1523208603504938,87,-4,61,8,3,2,2,9
1523208603504938,-46,14,-63,5,-1,-2,2,-5
1523208603505941,17,-11,1,-13,-2,-2,-2,27
1523208603505941,84,23,30,-1,-5,-5,-1,8
1523208603517973,-47,-27,-68,-2,-1,-1,2,-11
1523208603517973,10,5,-40,0,-1,-3,-5,-6
1523208603527231,110,-4,-11,15,4,4,2,8
1523208603527231,39,20,-26,-5,3,4,3,-5
1523208603542037,-15,0,35,-5,-6,-4,0,32
1523208603542037,2,-1,-54,-5,0,-4,-3,-4
1523208603544042,-10,1,31,6,2,1,0,-1
1523208603544042,-13,-22,-52,-4,-2,-4,-3,-19
1523208603565332,46,31,36,1,0,0,-1,41
1523208603565332,-15,9,46,-3,-1,-1,-1,13
1523208603566105,-59,-7,-13,-6,1,1,-3,-54
1523208603566105,4,11,16,6,-1,0,1,8
1523208603578171,-50,-21,-9,4,0,-4,-28,-11
1523208603578171,47,10,77,-8,-1,1,11,-3
1523208603587156,-86,12,-30,-5,-3,-3,-4,-10
1523208603587156,47,9,39,2,1,0,5,13
1523208603602197,-40,-19,-76,-5,-7,-7,-11,-25
1523208603602197,7,6,78,1,3,4,-1,-6
1523208603604203,18,-13,-87,0,-3,-3,-2,16
1523208603604203,-29,2,-18,-12,-3,-2,-6,-2
1523208603625407,32,-12,34,5,2,3,9,-8
1523208603625407,64,16,15,-4,-6,-7,-6,-48
1523208603626260,20,-19,12,-4,-3,-2,1,19
1523208603626260,-89,-18,-59,-5,-4,-3,-3,-3
1523208603638292,33,-4,-19,5,3,3,9,31
1523208603638292,-65,-20,43,-11,-7,-6,-5,-24
1523208603647356,104,7,8,-6,-4,-4,-6,20
1523208603647356,61,-6,-70,7,2,2,0,-8
1523208603662356,-80,-18,109,-2,1,0,5,0
1523208603662356,22,-13,-94,4,0,2,4,26
1523208603664531,19,18,19,-7,-6,-2,1,-9
1523208603664531,-6,-2,50,1,0,1,1,30
1523208603684423,-29,17,-38,1,2,-1,-3,-64
1523208603684423,56,5,-19,11,3,2,0,12
1523208603686428,-67,2,29,-6,-2,0,4,-17
1523208603686428,19,-15,-44,-8,-6,-2,-2,16
1523208603698616,20,1,46,-3,1,-1,-1,-23
1523208603698616,13,13,42,0,0,-2,-3,32
1523208603707475,47,-1,-110,-5,-1,-2,-3,7
1523208603707475,-18,-3,90,3,1,0,0,-6
1523208603722517,37,23,-6,-4,-4,-2,2,2
1523208603722517,-37,-34,-46,4,0,0,0,-13
1523208603723522,-18,0,65,-1,3,3,1,19
1523208603723522,-120,-9,0,-5,-4,-4,-2,-13
1523208603744810,40,-16,-40,-3,-4,-3,-1,-4
1523208603744810,-72,-4,42,-2,4,3,2,6
1523208603746579,-50,-20,-46,-6,-8,-6,-30,-14
1523208603746579,65,-5,17,0,0,-2,32,-67
1523208603758612,28,15,1,2,0,-1,-1,7
1523208603758612,34,29,58,-14,-6,-2,-7,32
1523208603767639,-45,-28,-11,8,1,0,1,-5
1523208603767639,20,19,51,-4,0,-3,-10,10
1523208603781674,-4,18,-8,5,-1,-2,-2,-7
1523208603781674,38,-16,-50,-5,-5,-4,1,-8
1523208603783685,13,-44,9,7,6,3,8,2
1523208603783685,-26,-20,-12,-8,-5,-2,-7,2
1523208603804734,26,13,32,1,1,-2,1,-8
1523208603804734,-88,-9,-45,-9,-4,-4,-7,6
1523208603806741,119,46,61,1,-1,-4,1,-53
1523208603806741,34,2,-31,-5,-5,-5,-8,17
1523208603818772,-112,-19,-33,4,3,5,2,-5
1523208603818772,47,-34,-28,-10,-8,-9,-5,-17
1523208603827797,-17,-2,16,17,10,7,5,11
1523208603827797,-1,2,9,-3,-1,-1,0,3
1523208603841834,-5,12,0,-2,-1,1,-1,-5
1523208603841834,-26,10,-37,8,1,0,0,-2
1523208603843838,-43,15,-9,-6,-4,-1,4,-3
1523208603843838,-18,-17,58,1,2,-3,-7,24
1523208603865145,-113,-7,-28,-9,-7,-5,-1,7
1523208603865145,-18,4,14,1,3,4,2,-15
1523208603865902,87,1,35,2,0,-2,1,35
1523208603865902,-3,21,-56,-9,-5,-1,-10,-49
1523208603887191,-4,-17,74,-5,-4,-4,0,7
1523208603887191,-16,25,106,7,1,2,3,-2
1523208603888957,9,4,-79,4,3,2,4,2
1523208603888957,75,-7,-31,4,-2,-1,-4,2
1523208603902038,-11,-9,-22,-3,2,0,-3,1
1523208603902038,2,11,-12,-4,-4,0,-2,1
1523208603903998,-47,9,20,2,0,1,3,16
1523208603903998,-22,-25,-46,-1,-4,-3,-1,23
1523208603925289,45,-39,-90,-3,1,3,0,0
1523208603925289,-9,11,-1,4,-1,-3,-2,-9
1523208603927070,36,11,-6,-4,-1,0,0,16
1523208603927070,-81,15,78,9,2,1,-26,-38
1523208603947348,-39,11,-35,-9,-4,-3,11,-3
1523208603947348,-7,-19,-19,-4,0,1,-3,4
1523208603949122,39,-5,8,0,-2,-2,2,1
1523208603949122,-21,11,16,10,3,4,0,8
1523208603962153,2,-2,-23,5,2,2,-5,-11
1523208603962153,4,3,52,0,-3,-2,-9,-21
1523208603964157,-14,-18,-65,-8,-4,-4,2,-27
1523208603964157,24,7,-23,-2,2,3,9,1
1523208603984218,-2,-4,127,2,0,1,1,2
1523208603984218,-24,-10,-118,-19,-5,-3,3,8
1523208603986217,-17,0,43,11,4,4,-2,3
1523208603986217,8,8,70,-9,-5,-5,2,17
1523208604007272,8,3,-10,-12,-9,-8,-3,18
1523208604007272,20,-18,6,10,4,2,1,-9
1523208604009279,1,-6,-9,-5,0,-2,-2,-3
1523208604009279,25,4,-56,7,4,1,10,6
1523208604021309,-13,19,72,-1,-2,0,-4,2
1523208604021309,86,27,-32,-3,-6,-9,-5,-33
1523208604030510,-17,-4,-20,-10,-7,-7,-5,-5
1523208604030510,70,3,-21,7,2,2,5,-9
1523208604044373,-24,-5,-6,1,-3,0,0,5
1523208604044373,-74,-7,1,-1,-2,0,1,11
1523208604046377,-13,5,20,1,-1,-3,-38,-3
1523208604046377,-12,3,-65,-9,-2,1,47,-29
1523208604067480,8,-24,24,4,0,2,-4,9
1523208604067480,42,10,31,-13,-6,-4,-1,14
1523208604068441,-5,12,47,12,4,1,-2,-10
1523208604068441,-128,-14,32,-13,-3,2,-12,6
1523208604081470,96,67,-31,3,-1,-4,3,-1
1523208604081470,-86,-30,-17,0,0,0,6,8
1523208604088723,-22,-16,24,3,1,0,6,0
1523208604088723,85,9,-20,3,-3,-2,-8,4
1523208604104530,50,-4,-28,-7,-4,-5,1,35
1523208604104530,13,5,28,10,4,3,-6,29
1523208604106536,19,-16,72,-16,-8,-7,2,7
1523208604106536,56,-8,-67,-1,-1,-4,-7,17
1523208604127592,-54,-12,-12,-3,0,1,-8,-28
1523208604127592,105,20,-2,-6,-2,-2,0,28
1523208604128599,57,16,-26,2,-1,-2,3,-6
1523208604128599,16,-10,35,4,5,7,6,33
1523208604141630,5,-2,-23,-14,-8,-9,-11,-47
1523208604141630,-33,-5,-22,11,6,4,6,-21
1523208604148651,95,22,-29,-1,0,4,9,9
1523208604148651,-55,20,5,-10,-5,-6,-17,-42
1523208604164901,22,8,29,19,11,8,8,0
1523208604164901,-19,-18,14,-2,-1,0,1,11
1523208604170707,38,-4,38,-2,-4,-4,-1,-3
1523208604170707,-67,18,65,6,2,-3,-4,1
1523208604186750,-72,-10,-58,2,1,1,-1,10
1523208604186750,29,-4,26,-9,-4,-4,-4,-13
1523208604188758,-44,-17,-16,2,3,2,3,5
1523208604188758,-69,-10,32,2,0,1,-5,4
1523208604201790,-11,6,12,-7,-4,-2,-1,-53
1523208604201790,26,-14,4,1,-1,3,0,2
1523208604208808,-92,-3,15,-3,-3,-4,-9,-1
1523208604208808,69,8,-36,6,-2,-1,5,-32
1523208604225089,56,9,-9,-1,0,-1,-4,14
1523208604225089,24,3,22,-2,-2,-2,-2,1
1523208604226916,-90,-20,-33,-9,-5,-3,-3,-9
1523208604226916,-23,-1,-50,9,6,2,0,-18
1523208604247912,18,-30,-33,5,2,1,3,21
1523208604247912,15,6,57,-3,-3,-2,-2,-25
1523208604248918,16,-17,-42,6,-2,2,6,19
1523208604248918,22,-14,8,7,0,-1,-3,18
1523208604261950,-35,-14,-40,-13,-3,-1,2,1
1523208604261950,31,8,-37,-15,-10,-9,-9,-8
1523208604267965,-40,5,2,7,0,1,6,18
1523208604267965,6,-36,-46,0,1,2,-3,-30
1523208604285014,59,17,70,3,0,0,-1,2
1523208604285014,-13,-1,-4,6,1,2,3,9
1523208604286013,33,32,22,-10,-6,-4,-3,-3
1523208604286013,-58,-28,-18,-17,-7,-4,-3,20
1523208604308111,-46,10,23,4,2,3,0,-4
1523208604308111,-7,-13,-23,2,1,-1,0,-11
1523208604309074,37,19,49,11,2,4,5,-12
1523208604309074,53,17,-17,-13,-9,-8,-10,35
1523208604321107,-37,-2,41,-4,-3,-4,4,-8
1523208604321107,-43,-5,-99,-3,-2,-2,-2,-9
1523208604328125,-5,-3,-25,-1,-1,1,0,-22
1523208604328125,13,-19,-23,7,3,4,3,34
1523208604345358,-22,36,55,-4,-5,-3,-4,24
1523208604345358,-43,8,-16,7,3,3,1,2
1523208604346173,-97,-1,57,-4,-1,-1,0,-9
1523208604346173,32,10,-17,-8,-5,-4,-3,-19
1523208604367230,22,9,35,1,-2,-2,-2,19
1523208604367230,2,-4,-21,1,4,1,0,5
1523208604369235,41,-11,-49,-4,-5,-4,-3,-8
1523208604369235,-73,2,-40,-7,0,-1,4,19
1523208604381384,30,6,-38,11,4,7,1,-25
1523208604381384,-25,18,61,-9,-7,-2,-3,3
1523208604390292,-60,-11,-89,5,2,1,0,14
1523208604390292,30,2,35,6,1,0,0,-9
1523208604404328,55,-2,-63,-12,-6,-3,-4,-18
1523208604404328,-24,-21,-39,1,2,-1,-1,12
1523208604406333,35,12,3,-9,-5,-5,-7,6
1523208604406333,-5,-5,86,8,4,6,6,-5
1523208604427434,-24,-10,-47,-8,-3,-4,-2,4
1523208604427434,24,-6,-37,5,-1,1,-1,3
1523208604428392,33,23,31,1,1,-2,-3,-2
1523208604428392,-78,-13,83,2,-3,-1,-2,-8
1523208604449449,-1,17,-8,7,1,-3,-9,29
1523208604449449,46,-6,-41,-5,0,1,6,-20
1523208604451453,-33,-12,-9,-6,-3,-3,0,-8
1523208604451453,122,19,-15,6,3,0,2,24
1523208604464651,-58,-15,0,-7,-7,-6,-3,-18
1523208604464651,60,10,-19,5,-1,-2,-1,15
1523208604466496,-11,-8,8,-2,-2,0,1,-5
1523208604466496,71,20,73,-5,-5,-2,-2,-13
1523208604487548,-74,-26,-64,3,-2,-3,1,5
1523208604487548,5,20,124,4,0,-1,-5,-9
1523208604488551,9,-36,32,-12,-4,-3,-1,-29
1523208604488551,-1,18,40,-5,-3,-1,-1,0
1523208604500587,64,-7,-10,6,3,0,2,8
1523208604500587,-32,-2,-31,-6,-5,-3,-1,-14
1523208604509608,1,12,-40,10,2,2,-4,-35
1523208604509608,-29,3,-9,7,4,2,1,-10
1523208604524648,17,-4,5,-17,-5,-2,0,14
1523208604524648,49,17,16,3,0,-2,-1,-27
1523208604526654,-52,1,89,2,0,0,-2,28
1523208604526654,-2,-17,-128,-3,-2,-1,-1,-2
1523208604547922,78,1,-73,-5,-3,-3,-4,-1
1523208604547922,-98,9,29,6,2,1,3,16
1523208604548714,-52,-2,36,-5,-3,-4,-11,10
1523208604548714,-32,-17,-31,-6,-5,-5,7,-14
1523208604560744,-109,-35,74,4,3,2,0,29
1523208604560744,-34,-18,-20,-14,-4,-1,-2,-4
1523208604569766,41,22,10,7,3,2,1,-4
1523208604569766,-10,1,-6,-3,1,-1,-3,9
1523208604584856,-8,-22,13,0,-1,1,-4,-52
1523208604584856,20,-2,19,7,0,-1,2,-6
1523208604586812,42,-7,-113,-11,-3,2,2,1
1523208604586812,-56,1,-2,-15,-5,-5,-7,13
1523208604606865,106,5,-15,6,0,-2,-2,0
1523208604606865,-24,5,15,-8,-6,-3,-3,0
1523208604608872,19,-3,-21,1,0,-1,3,-6
1523208604608872,-10,-1,34,3,0,1,-2,2
1523208604620903,-41,6,1,6,5,6,1,-29
1523208604620903,-8,-4,6,6,3,-1,-1,14
1523208604629927,20,-13,-35,-12,-4,-3,2,51
1523208604629927,-26,-13,-55,-10,-4,-2,-3,-12
1523208604644968,-61,0,80,3,0,1,3,-1
1523208604644968,36,-6,-75,9,9,5,-1,-7
1523208604647012,3,29,97,11,1,1,3,-3
1523208604647012,-16,-18,-26,-4,2,4,1,34
1523208604667035,-4,10,41,-5,-5,-2,0,2
1523208604667035,20,6,-10,0,0,-1,3,39
1523208604669031,-27,-10,26,4,2,-1,-5,-39
1523208604669031,5,15,24,8,1,0,-12,-1
1523208604681062,12,5,-17,-2,-2,-2,6,1
1523208604681062,-31,17,-20,-10,-7,-3,5,57
1523208604690086,46,2,3,-5,-7,-8,-2,-6
1523208604690086,19,4,54,8,1,-2,-4,-10
1523208604705128,0,0,-14,2,2,3,-4,2
1523208604705128,121,-45,86,-9,-7,-4,-4,-12
1523208604706129,-25,4,22,6,6,-1,1,-9
1523208604706129,70,-5,32,-5,-6,-3,-1,6
1523208604728334,-38,10,9,8,3,0,1,11
1523208604728334,-4,26,23,-13,-6,-4,-18,-13
1523208604729191,8,-9,-21,-5,-2,-1,20,7
1523208604729191,18,4,11,0,-3,-4,-3,-20
1523208604741222,12,-8,41,12,4,5,4,29
1523208604741222,-24,-1,56,-2,-2,-3,-4,-8
1523208604750251,-69,-13,-105,-12,-5,1,-11,-17
1523208604750251,-25,-1,29,-1,-2,-1,1,-13
1523208604764401,42,6,-118,-13,-7,-6,0,5
1523208604764401,73,-5,69,3,0,-2,-3,0
1523208604766294,-22,-4,-15,2,-2,0,-2,16
1523208604766294,1,-4,13,5,3,2,4,-62
1523208604787346,-51,-25,27,-4,-2,-1,-9,13
1523208604787346,-16,12,21,4,1,2,12,-36
1523208604788384,13,5,-31,-3,-1,1,-4,1
1523208604788384,12,9,7,-2,-4,-2,0,2
1523208604809404,18,2,17,-8,-6,-8,-5,-3
1523208604809404,8,-1,-59,2,4,4,-4,-5
1523208604811411,20,25,38,14,6,5,2,5
1523208604811411,-102,-14,-58,-8,-6,-2,2,-10
1523208604824663,-31,17,-27,-11,-6,-9,-7,38
1523208604824663,-62,-4,-27,7,2,3,4,7
1523208604826450,16,-1,25,-2,-3,-4,-6,-14
1523208604826450,34,14,-34,8,9,5,3,19
1523208604847669,-35,-20,-5,-8,-2,0,0,-17
1523208604847669,2,-7,13,0,-3,-3,-2,-10
1523208604848511,41,8,-8,-9,-4,-4,0,-5
1523208604848511,1,-15,32,4,0,-4,-4,6
1523208604869564,29,-3,26,-2,-1,1,0,-49
1523208604869564,-74,-26,-85,-4,-1,-4,-5,-61
1523208604871569,44,-6,62,2,0,-1,-6,3
1523208604871569,27,5,29,0,-1,1,1,16
1523208604884608,94,13,35,-3,0,2,-1,-3
1523208604884608,78,1,-35,5,1,1,2,7
1523208604886609,-1,-7,15,2,1,2,2,-6
1523208604886609,-17,-11,-1,-10,-4,-2,-3,2
1523208604907664,5,-10,43,0,-2,-3,1,-7
1523208604907664,37,-1,-38,-1,-1,-2,2,51
1523208604908667,-31,-9,-58,-2,-1,1,4,-19
1523208604908667,50,40,11,4,-1,-4,-4,16
1523208604929724,-24,6,57,4,2,4,4,4
1523208604929724,24,-17,34,-12,-7,-6,-5,4
1523208604931728,-21,4,28,-3,-1,-2,-3,24
1523208604931728,33,-2,41,-3,-1,-2,-2,-4
1523208604944776,-87,-11,14,10,3,2,2,-10
1523208604944776,-27,1,-49,-16,-8,-6,-6,-38
1523208604950780,62,3,1,7,1,-1,0,-2
1523208604950780,-64,-21,-45,1,0,1,-2,-10
1523208604966821,9,14,-7,-5,-1,-1,-2,9
1523208604966821,-31,-13,45,1,-3,-3,0,2
1523208604968828,-40,-27,9,4,2,1,0,0
1523208604968828,78,16,-6,-12,-5,-3,-2,13
1523208604989883,-46,-4,34,9,3,0,1,6
1523208604989883,37,22,30,-1,0,-2,-6,9
1523208604990886,35,6,-33,-5,-4,-3,-7,-3
1523208604990886,37,0,2,7,4,0,13,28
1523208605003921,-70,-12,-93,-2,-2,-3,-5,-67
1523208605003921,15,4,-4,9,5,2,0,2
1523208605010939,-84,-39,-63,-12,-4,-1,0,3
1523208605010939,6,1,16,3,-3,-1,-4,5
1523208605027216,70,7,-16,-3,-2,-3,-2,15
1523208605027216,-42,-16,31,8,1,1,3,11
1523208605028988,40,-5,-28,-2,0,-1,-1,2
1523208605028988,-67,-6,-30,3,-4,1,-5,-7
1523208605050087,-14,-8,-30,-7,-3,-6,3,19
1523208605050087,-21,23,110,7,5,6,-3,1
1523208605051048,67,13,17,-1,0,0,1,27
1523208605051048,-21,-24,0,-1,-5,-7,-9,-74
1523208605064157,78,12,19,11,3,1,-3,4
1523208605064157,-121,-7,-96,-7,0,2,3,-6
1523208605071100,5,-1,104,8,-2,-2,1,8
1523208605071100,-9,9,82,-2,1,2,0,11
1523208605087183,94,-6,-55,-7,-3,3,1,-3
1523208605087183,-3,10,45,-1,-4,-4,-8,-89
1523208605089148,-65,-17,-16,-2,0,0,0,-14
1523208605089148,48,-9,-38,2,6,3,1,15
1523208605110203,-86,-14,19,-1,-1,-1,-4,-12
1523208605110203,33,3,14,-1,-3,-1,2,48
1523208605111206,57,30,-43,1,3,1,-1,-4
1523208605111206,0,33,-18,8,0,-1,-1,-5
1523208605124476,1,-14,29,-9,3,1,3,9
1523208605124476,39,13,-18,-4,-2,0,1,20
1523208605131258,-75,0,26,4,1,2,0,-16
1523208605131258,18,-26,-65,7,3,2,-1,9
1523208605154359,55,16,-56,-11,-4,-5,-8,-32
1523208605154359,-10,-4,18,4,-2,-5,-1,23
1523208605156327,28,-1,12,2,-1,-3,-12,-6
1523208605156327,-31,10,24,-11,-6,-2,11,-8
1523208605169366,-10,-15,-14,8,1,1,-1,16
1523208605169366,17,-24,-50,-7,-5,-2,-1,43
1523208605171365,38,12,13,-1,-5,-5,-3,-2
1523208605171365,3,2,31,-5,-5,-3,-2,13
1523208605184443,102,0,30,1,-1,-2,-5,4
1523208605184443,28,-10,9,-8,-1,-2,7,-16
1523208605190418,19,8,-24,2,-1,-3,-3,1
1523208605190418,6,-10,-13,-3,0,-3,-2,7
1523208605207462,23,50,48,6,-1,0,3,26
1523208605207462,61,-14,-47,-1,-1,2,-1,-29
1523208605208464,2,0,29,-4,-1,0,2,9
1523208605208464,37,1,-5,-7,-6,-7,-5,-22
1523208605229520,-54,-7,-10,-4,-5,-2,-2,21
1523208605229520,-10,-14,-7,9,5,3,-1,-41
1523208605231529,-14,-13,-27,-18,-9,-4,2,-8
1523208605231529,-44,-4,-11,0,0,0,-1,10
1523208605244728,-22,-11,-30,7,3,4,1,3
1523208605244728,26,18,91,-11,-5,-4,-9,8
1523208605250578,-63,-13,6,9,4,4,16,10
1523208605250578,-22,-5,-12,-5,-5,-6,-11,-28
1523208605267625,8,-8,44,-11,-8,-5,-6,2
1523208605267625,-48,15,-13,3,3,3,6,-21
1523208605268624,95,15,-72,-13,-5,-7,-8,16
1523208605268624,-46,-18,45,9,5,4,4,2
1523208605289680,25,8,-39,-1,-2,-2,1,-19
1523208605289680,-58,1,7,1,-1,1,-3,-4
1523208605291687,43,-3,86,-2,-3,-1,-2,7
1523208605291687,-68,-18,-52,1,5,4,2,-6
1523208605303718,31,17,51,-11,-8,-6,-2,14
1523208605303718,4,-22,-59,4,3,0,0,-18
1523208605312741,-118,-14,-1,-5,-1,-1,-11,-29
1523208605312741,50,0,45,-11,-8,-4,7,27
1523208605327877,-46,-2,39,5,2,0,-1,-2
1523208605327877,-82,-1,-66,-1,0,0,-1,12
1523208605328784,1,2,34,7,3,0,-2,-3
1523208605328784,-35,3,15,-9,-4,-3,-5,-6
1523208605349845,-36,-15,-24,-2,0,0,0,-9
1523208605349845,22,-18,10,-5,-2,0,4,21
1523208605350843,-5,9,-16,6,3,3,0,13
1523208605350843,-13,17,3,3,0,2,-4,-52
1523208605363921,29,-17,-2,0,-4,-5,-9,-10
1523208605363921,6,20,44,3,0,2,7,9
1523208605372994,-30,-2,-32,-14,-6,-2,-3,-53
1523208605372994,8,12,39,5,1,0,0,46
1523208605386939,-34,-20,-44,-5,-2,-3,-4,-27
1523208605386939,7,13,71,9,1,-1,-1,3
1523208605388945,3,1,-8,-6,-5,-2,5,48
1523208605388945,97,18,-27,1,0,-3,-2,-7
1523208605409999,2,-19,8,11,6,4,4,-10
1523208605409999,-8,5,-2,2,-1,-4,-2,14
1523208605411043,49,5,8,-3,-3,-3,1,-5
1523208605411043,-15,-10,-7,-12,-6,-3,-4,2
1523208605423034,-73,18,14,0,-1,-1,-3,34
1523208605423034,76,-5,-35,-3,-4,-6,7,-17
1523208605432069,24,10,4,1,-2,-1,-4,5
1523208605432069,54,1,-56,5,3,1,1,2
1523208605447174,22,4,-27,-5,-1,-2,2,13
1523208605447174,-41,-16,49,0,-2,-1,-7,-29
1523208605449123,-12,-49,37,4,1,-3,-6,-54
1523208605449123,1,0,-8,1,3,2,-3,14
1523208605470161,74,36,-21,-8,-3,-2,9,-3
1523208605470161,-38,13,-42,-3,-2,1,-4,-5
1523208605471162,64,17,3,0,0,-4,2,3
1523208605471162,-103,-19,-4,0,-1,0,-3,-19
1523208605483238,5,2,70,-1,-1,-1,0,0
1523208605483238,1,5,-33,-5,0,-1,-3,-41
1523208605492218,-61,1,-23,0,-2,-1,-2,8
1523208605492218,-38,-1,-2,9,0,1,2,3
1523208605507259,-31,-22,-12,6,2,2,-3,-40
1523208605507259,-4,4,-2,-11,-7,-5,-1,39
1523208605509263,-31,6,-3,-9,-3,0,0,6
1523208605509263,30,-19,-44,-4,0,0,3,-11
1523208605530362,45,-23,72,2,0,-2,-1,11
1523208605530362,64,-17,41,5,3,1,-3,13
1523208605531325,-74,-12,-60,4,1,-1,-3,-5
1523208605531325,102,14,99,1,1,1,0,-19
1523208605543356,-64,-10,-11,-16,-9,-6,-3,17
1523208605543356,2,15,12,8,3,3,5,-36
1523208605552395,53,1,-14,-3,-4,-1,2,14
1523208605552395,-39,11,1,2,1,-2,2,12
1523208605567420,-35,19,-4,10,3,0,-3,5
1523208605567420,7,-2,-47,-10,-8,-4,-7,2
1523208605568420,-28,20,9,-5,-2,1,3,9
1523208605568420,-11,-18,-21,-9,1,2,-4,-4
1523208605590481,35,0,-68,-6,-3,-3,-1,-8
1523208605590481,-23,-4,-1,3,2,1,4,21
1523208605592486,92,2,61,1,0,1,5,-6
1523208605592486,-16,-6,27,11,-3,-6,-7,22
1523208605603515,26,-6,-43,-7,0,2,2,26
1523208605603515,32,-11,-27,-19,-6,-3,-4,-44
1523208605612538,-50,-11,30,23,6,6,0,-1
1523208605612538,-10,-18,-50,-30,-7,-3,-1,-8
1523208605626575,8,5,5,6,-6,-6,-9,2
1523208605626575,-48,0,-17,4,2,0,9,6
1523208605633594,-24,-11,9,-1,-1,-3,-4,6
1523208605633594,28,23,58,19,4,3,-1,7
1523208605649641,-5,9,-105,-9,-1,2,0,3
1523208605649641,21,-11,-31,-4,-3,-4,-3,26
1523208605651641,-20,1,-1,4,4,2,-9,-10
1523208605651641,10,18,42,-4,-2,0,10,10
1523208605663702,-10,-15,78,6,1,1,-1,-12
1523208605663702,21,4,13,-6,-2,-3,-5,7
1523208605672697,-10,20,31,-4,-1,-1,3,-7
1523208605672697,69,7,-13,0,-1,-2,-36,17
1523208605686765,11,9,-13,1,-1,1,32,-25
1523208605686765,34,-12,11,-5,-4,-2,-7,-2
1523208605688740,1,-15,-59,-2,-1,-3,-2,2
1523208605688740,-32,12,2,-15,-4,0,0,-4
1523208605709798,-6,-2,18,3,0,-3,-9,-8
1523208605709798,-90,-6,8,3,1,0,-3,-9
1523208605712041,20,-5,5,3,-3,-2,1,2
1523208605712041,-4,-17,-38,-7,-2,-2,6,39
1523208605724003,48,0,-7,0,-1,1,-5,-12
1523208605724003,-44,-25,17,-6,-8,-3,2,12
1523208605732861,11,13,23,0,6,4,-5,-21
1523208605732861,48,-36,-109,1,-2,-5,9,2
1523208605746940,-32,17,66,2,3,1,-3,-1
1523208605746940,92,14,30,1,-4,0,-4,18
1523208605748908,-65,-23,-5,-4,-4,-4,-1,8
1523208605748908,-93,-7,-58,-17,-7,-6,-3,-20
1523208605769957,40,7,-14,3,2,2,-2,0
1523208605769957,-43,-7,-17,-5,1,0,1,18
1523208605770959,-55,-1,-19,0,-1,2,-6,-9
1523208605770959,-33,7,1,5,-1,-3,4,-3
1523208605792016,-9,-13,-11,-6,-1,1,-3,-6
1523208605792016,-3,9,11,4,4,1,1,5
1523208605794020,27,2,-43,-6,-2,-2,1,20
1523208605794020,-12,4,14,-3,-2,-1,-3,-23
1523208605807055,14,-20,29,1,-3,-1,4,38
1523208605807055,41,13,-20,1,1,2,0,18
1523208605809060,-4,15,9,3,0,-2,2,-8
1523208605809060,44,-10,-4,3,1,2,0,-7
1523208605830116,-1,7,2,-15,-9,-7,-6,1
1523208605830116,24,-9,27,4,1,0,1,7
1523208605831123,-24,0,24,-1,-3,-1,-1,-17
1523208605831123,-74,0,-2,12,7,6,3,6
1523208605852175,-21,-5,25,7,5,4,4,0
1523208605852175,57,3,-44,-12,-7,-7,-15,-40
1523208605854182,-3,-13,-63,3,1,-2,0,-1
1523208605854182,-13,-10,-44,-4,-4,-4,-2,-1
1523208605867216,-46,-38,-81,-5,-2,-1,-3,23
1523208605867216,-46,-6,47,7,0,-2,-2,-19
1523208605869223,77,10,36,-4,-5,-4,5,11
1523208605869223,118,-8,7,5,4,3,3,0
1523208605889273,-108,3,-41,0,0,-1,-1,0
1523208605889273,57,18,-5,-6,-2,-3,-1,10
1523208605889273,87,-13,14,10,1,-1,-3,3
1523208605889273,-3,20,39,-5,-1,0,-2,-26
1523208605911332,-91,6,66,5,0,-1,1,0
1523208605911332,-19,-8,-35,5,1,1,-4,0
1523208605912334,14,1,-23,-9,-6,-4,8,1
1523208605912334,52,-13,49,-2,-2,-3,-3,5
1523208605926476,49,9,47,1,1,1,-3,-13
1523208605926476,1,7,32,4,2,-1,0,3
1523208605934395,-17,4,-25,2,-1,-1,-8,-4
1523208605934395,0,4,-41,-4,-2,-1,-1,-12
1523208605949441,127,12,-7,-7,-7,-7,-5,-14
1523208605949441,-48,-5,0,7,3,2,0,-3
1523208605949441,-24,-15,35,10,6,7,5,16
1523208605949441,-33,10,78,-5,-5,-6,-9,-13
1523208605971491,4,15,14,3,0,-3,2,-30
1523208605971491,-121,-21,6,-7,-2,0,3,34
1523208605972494,51,-5,-31,-12,-5,-6,-11,-55
1523208605972494,2,26,45,4,1,0,3,6
1523208605985533,46,-4,-10,-2,-1,-3,-3,-9
1523208605985533,-19,-25,25,1,0,-1,0,-11
1523208605994702,-23,12,8,0,3,3,3,35
1523208605994702,78,-27,-24,-7,-5,-4,-5,-54
1523208606008590,-101,-7,-34,4,3,2,-2,-2
1523208606008590,2,16,24,8,1,0,2,11
1523208606009592,-8,-9,-30,-16,-9,-5,0,8
1523208606009592,18,20,19,4,1,1,0,19
1523208606031895,-32,-17,25,1,1,4,1,16
1523208606031895,70,14,-20,-8,-2,0,1,-13
1523208606032658,-14,11,-28,-1,0,-3,-5,33
1523208606032658,-122,-14,14,2,-1,-1,-4,-49
1523208606045925,52,5,-13,-1,0,-2,-3,-11
1523208606045925,27,-12,-4,6,5,7,-1,17
1523208606053752,29,5,-8,7,2,1,4,-6
1523208606053752,59,-3,74,-2,1,3,5,40
1523208606068750,90,25,-12,-10,-8,-7,-4,26
1523208606068750,15,1,12,-5,-2,-6,0,-4
1523208606069754,1,-3,7,2,0,-1,-8,-2
1523208606069754,-9,10,-64,4,1,3,15,7
1523208606091812,-74,-1,19,5,3,4,0,-18
1523208606091812,98,49,47,8,-2,-1,-4,10
1523208606092924,-41,-37,-16,-23,-7,-7,-5,-11
1523208606092924,-36,6,38,5,1,-3,-4,6
1523208606105900,2,11,-7,0,0,-1,0,-7
1523208606105900,-5,-3,-17,-3,-5,-3,2,-11
1523208606113872,-24,13,91,8,0,-5,-31,-7
1523208606113872,39,-6,-70,-9,-6,-4,23,16
1523208606129145,-16,-34,-33,-12,-5,-4,-3,16
1523208606129145,-32,5,48,5,4,2,0,-30
1523208606129912,7,8,-40,1,-2,-1,4,21
1523208606129912,37,-1,20,8,5,1,-8,10
1523208606151971,-26,15,18,2,-2,-3,-7,-13
1523208606151971,8,-9,-65,-18,-12,-8,0,11
1523208606151971,-52,-1,-42,9,5,9,7,-24
1523208606151971,16,4,63,1,-3,-3,0,28
1523208606166019,-66,-58,-56,-9,-3,-3,-3,17
1523208606166019,-14,30,20,4,2,1,-5,-10
1523208606174265,-63,-8,16,-2,0,-1,3,-50
1523208606174265,24,-11,-41,-2,-1,-2,-13,-14
1523208606189070,92,0,96,-3,-1,4,7,33
1523208606189070,-32,-17,-101,-10,-2,-2,-3,-41
1523208606190073,-28,-20,31,1,-1,0,2,4
1523208606190073,28,14,-7,-4,-1,-2,-3,18
1523208606212171,-21,14,24,7,1,0,-1,-27
1523208606212171,19,4,-41,3,2,4,3,9
1523208606212171,-46,-8,83,-8,-4,-1,1,-7
1523208606212171,-65,-26,-48,-4,-2,-2,-7,-17
1523208606226403,39,13,-43,4,1,0,5,21
1523208606226403,-40,-9,-3,1,-3,-4,-5,-53
1523208606234190,52,-2,-10,3,1,1,5,27
1523208606234190,0,1,10,1,1,0,4,17
1523208606249274,-40,15,33,-5,-3,0,-3,-24
1523208606249274,-55,0,-31,-7,-2,-2,-4,21
1523208606250276,80,-24,13,1,2,0,0,-8
1523208606250276,-41,-5,-14,-7,-5,-3,-6,-18
1523208606271289,34,-3,31,-3,3,1,-2,-10
1523208606271289,-27,-28,-8,-3,3,-1,-2,-1
1523208606272291,96,47,0,-3,-2,-4,-1,8
1523208606272291,-45,-41,-55,-5,-3,-3,-2,42
1523208606286329,-28,0,11,2,1,-2,-2,-31
1523208606286329,0,-23,7,-6,-2,-2,-1,68
1523208606294585,32,19,-3,10,2,1,-2,6
1523208606294585,-14,10,-1,-6,-3,-3,7,-16
1523208606309389,14,-8,-71,6,2,1,1,6
1523208606309389,62,20,36,-4,1,3,0,-3
1523208606309389,-53,0,-28,0,-1,0,0,12
1523208606309389,-14,18,91,4,2,-1,-9,8
1523208606331453,-72,-11,-99,-8,-4,-2,1,12
1523208606331453,88,-39,-3,6,1,-3,1,-22
1523208606332454,-95,4,-43,-8,-2,0,1,-21
1523208606332454,55,19,-3,-1,-1,-3,-7,-3
1523208606346491,33,18,24,-5,-4,-5,-4,-11
1523208606346491,23,29,44,5,-2,3,2,15
1523208606354510,9,-6,84,-7,-6,-3,1,14
1523208606354510,45,-9,-89,-7,-2,-3,-8,-60
1523208606368588,0,0,12,-1,-1,-1,-2,29
1523208606368588,14,30,86,0,-1,-4,-4,-30
1523208606369549,108,-32,-67,-2,-5,-5,-1,9
1523208606369549,3,3,25,2,2,2,-8,1
1523208606391609,28,-5,-1,-2,-1,-2,9,-12
1523208606391609,-3,-1,-19,6,2,3,1,3
1523208606392611,-37,-10,26,1,2,-1,-4,17
1523208606392611,-28,-21,27,-6,-6,-4,-1,2
1523208606405645,51,0,-27,-1,2,1,-3,-15
1523208606405645,-108,-13,-56,-1,-1,-2,-3,6
1523208606414676,-33,-7,33,-9,-1,0,8,-11
1523208606414676,3,19,-44,4,2,0,4,9
1523208606428707,103,19,91,2,0,0,-4,7
1523208606428707,-80,-33,-10,-2,-4,-4,-1,-1
1523208606429709,36,29,14,-1,-1,-1,-4,-15
1523208606429709,-7,-14,-31,-1,-1,-1,2,6
1523208606451766,47,-12,-16,8,3,3,1,-32
1523208606451766,17,-8,3,-8,-3,-2,-9,6
1523208606452770,23,20,-9,-1,-1,-2,10,8
1523208606452770,-2,4,33,0,-2,2,-3,-13
1523208606465806,-32,0,-31,0,-3,-3,-5,-21
1523208606465806,20,-3,20,4,3,1,-1,10
1523208606474062,-2,-1,1,-4,-3,-2,-5,5
1523208606474062,24,-20,-64,5,4,2,3,7
1523208606488868,19,-7,-18,-2,0,0,0,4
1523208606488868,-59,-8,27,-1,0,1,-1,2
1523208606489870,54,-5,-13,-4,-4,-2,0,18
1523208606489870,-56,13,24,1,-1,-2,-3,9
1523208606512174,-25,18,5,0,2,1,-21,1
1523208606512174,-4,-5,-78,-7,-4,-1,27,-1
1523208606512174,105,-12,81,2,-3,0,-6,25
1523208606512174,-3,4,-29,-10,-6,-5,-1,-29
1523208606526200,1,-2,20,4,2,0,2,-4
1523208606526200,11,14,-24,0,3,1,-8,12
1523208606533986,-103,-11,-13,0,-2,-2,-2,-9
1523208606533986,13,13,25,-3,-4,0,2,7
1523208606557048,-65,-31,3,-6,-2,-2,-1,-4
1523208606557048,50,-5,-45,-4,-1,-3,-4,-11
1523208606558050,-21,-13,-38,-7,-1,0,-4,-19
1523208606558050,95,-4,38,-3,-1,-1,0,13
1523208606572145,-13,-15,-19,5,0,0,5,-1
1523208606572145,61,26,55,-1,-3,0,0,27
1523208606572145,-52,-38,-62,-8,0,0,-3,-26
1523208606572145,-62,-18,28,4,2,1,3,-4
1523208606595353,36,-2,50,1,0,0,2,5
1523208606595353,-9,8,-57,-3,-5,-3,4,16
1523208606595353,-23,-17,37,7,5,0,-4,-30
1523208606595353,-34,2,-1,7,5,6,7,5
1523208606609186,46,-13,-25,-9,-8,-5,-5,-5
1523208606609186,5,2,50,3,1,0,-2,0
1523208606610188,35,23,-60,1,-2,-2,1,27
1523208606610188,-46,8,20,4,1,0,0,19
1523208606631251,-27,-11,21,-10,-8,-4,0,29
1523208606631251,26,10,-47,-2,-3,-4,-6,-18
1523208606632247,-11,3,6,4,3,1,-1,0
1523208606632247,83,11,-5,-3,-5,-1,0,10
1523208606646283,-53,7,-15,-10,-2,-4,-4,-14
1523208606646283,-9,-19,34,-2,-3,0,-3,11
1523208606654307,-46,9,23,5,2,0,1,-9
1523208606654307,8,2,25,2,-1,-2,-3,-3
1523208606669347,-43,7,6,4,3,3,5,-4
1523208606669347,-14,-13,0,1,-1,-2,-3,-16
1523208606670350,40,27,33,6,0,0,-1,-6
1523208606670350,-21,-44,3,-4,3,4,2,-5
1523208606691406,5,-17,-31,1,1,-2,-1,5
1523208606691406,2,13,51,-14,-10,-9,-8,-3
1523208606692409,-6,9,4,6,2,2,0,9
1523208606692409,-11,6,-8,-4,-3,-4,-6,-8
1523208606714704,-3,-29,-36,2,-3,-2,0,-3
1523208606714704,37,6,-1,3,9,6,4,20
1523208606715471,-71,2,-2,-8,-5,-4,-5,-45
1523208606715471,-37,-5,-44,-1,1,1,-1,2
1523208606728542,45,19,70,0,-1,-3,-1,-10
1523208606728542,4,-2,14,3,0,3,2,2
1523208606729505,-32,-9,-44,-11,-4,-2,-3,7
1523208606729505,-64,-12,40,2,2,0,-1,-7
1523208606751565,21,28,28,0,-1,-1,-2,12
1523208606751565,-52,-12,-28,2,1,-1,4,-12
1523208606752567,61,-8,-13,-2,1,2,1,32
1523208606752567,15,9,37,4,2,3,-8,-16
1523208606774861,-16,-29,-75,-9,-6,-5,3,0
1523208606774861,-11,-10,21,6,0,-4,-7,-17
1523208606775628,19,-28,-26,-13,-5,1,4,31
1523208606775628,57,23,53,5,-1,-2,2,12
1523208606788662,-23,9,-17,0,1,1,-2,40
1523208606788662,50,35,-13,4,1,0,0,-13
1523208606789665,22,16,-42,-4,-4,-4,-1,21
1523208606789665,45,-6,-50,-13,-7,-6,-4,-1
1523208606811959,-127,-8,-47,6,2,1,0,-11
1523208606811959,-5,-13,-10,-5,-8,-5,-4,1
1523208606812726,98,26,52,7,3,2,-2,1
1523208606812726,-103,-9,-19,1,2,3,1,-15
1523208606834824,87,28,-36,3,-3,-2,-3,-7
1523208606834824,-18,-7,84,-9,-2,-2,0,-7
1523208606835790,-24,-5,28,2,0,-5,-4,-17
1523208606835790,-32,-2,-59,-5,-4,-3,1,-17
1523208606848824,84,10,50,8,5,0,-2,-17
1523208606848824,-77,-4,-21,-10,-7,-5,-5,-12
1523208606849828,22,3,47,7,1,-2,8,-7
1523208606849828,15,-3,-12,-6,0,1,-3,-9
1523208606872119,-10,2,-31,1,1,0,2,-4
1523208606872119,57,-6,31,-3,0,-1,-4,16
1523208606872119,48,1,13,0,-3,-7,-6,-21
1523208606872119,12,3,36,0,-5,-6,-3,-18
1523208606895181,-45,-28,-27,-9,-2,1,1,-18
1523208606895181,14,38,-25,-4,-2,-1,-5,-8
1523208606895948,65,-14,-37,9,5,3,2,3
1523208606895948,4,8,77,-8,-6,-5,-3,9
1523208606908983,57,10,41,-2,-1,2,0,-2
1523208606908983,-20,-9,-24,5,1,0,1,-7
1523208606909985,40,6,8,-8,-3,1,0,12
1523208606909985,-65,-21,24,1,2,2,4,3
1523208606932046,-31,13,15,-1,0,-3,-3,3
1523208606932046,26,-18,3,3,8,5,3,26
1523208606932046,-56,-7,-4,-1,-2,-2,-10,-22
1523208606932046,8,-2,-56,-8,-5,-2,6,-6
1523208606955106,34,-18,-29,-3,-2,-1,-1,6
1523208606955106,27,2,14,1,-3,-1,2,4
1523208606955106,21,20,31,0,2,3,-3,-2
1523208606955106,-15,-7,-39,6,3,3,1,-10
1523208606969147,-47,-10,41,-8,-7,-4,-1,16
1523208606969147,-3,10,13,-2,-2,-4,-7,-53
1523208606970145,-37,-34,-51,2,3,2,5,4
1523208606970145,-32,12,-4,4,0,0,-3,1
1523208606991202,-59,-22,-29,-11,-2,-2,4,51
1523208606991202,-77,-10,24,3,1,-2,-5,-48
1523208606992204,14,-9,-70,-11,-5,-5,-1,1
1523208606992204,37,21,9,8,3,2,1,7
1523208607014269,-35,-8,6,-9,-4,-2,-2,-3
1523208607014269,12,-16,-23,6,3,3,-1,23
1523208607015272,-10,21,17,0,-5,-2,0,-8
1523208607015272,28,-1,-101,-3,-2,-2,-3,-4
1523208607029302,27,23,54,8,1,-1,-13,2
1523208607029302,19,9,4,-9,-6,-3,13,15
1523208607030336,-90,-17,-22,0,-1,-2,-1,-5
1523208607030336,94,9,-12,1,1,1,-5,21
1523208607051360,89,-4,-19,-5,-4,-3,-1,-39
1523208607051360,17,-19,-68,-1,0,2,-1,14
1523208607052365,6,-2,11,0,-3,-2,-3,-7
1523208607052365,34,-3,59,1,0,0,2,11
1523208607074658,-27,6,9,4,1,-1,0,-7
1523208607074658,-22,-37,16,-1,-1,1,-1,26
1523208607075425,3,7,21,-4,-2,-1,2,-7
1523208607075425,-48,0,30,-5,-6,-7,-6,3
1523208607089467,-49,2,-4,-1,1,1,-1,-67
1523208607089467,-6,18,45,3,1,-2,-3,-5
1523208607089467,10,-12,5,5,3,3,0,42
1523208607089467,21,-1,16,-5,-5,-3,-2,3
1523208607111756,-58,-2,23,5,2,3,6,0
1523208607111756,22,17,-1,-1,-2,0,-2,-19
1523208607112523,-20,-23,-38,-6,-1,-1,-1,0
1523208607112523,-79,-18,2,0,1,1,0,-3
1523208607134582,82,0,-21,-4,-3,-2,-15,6
1523208607134582,58,10,37,5,1,0,9,-6
1523208607135587,-26,3,23,4,3,1,1,-7
1523208607135587,20,6,-14,-11,-7,-4,0,13
1523208607148626,2,0,-2,-1,0,1,1,8
1523208607148626,-10,-4,1,4,4,4,0,-1
1523208607149623,-13,4,6,-2,-3,-1,-2,-12
1523208607149623,17,2,-106,1,-1,-2,-3,-9
1523208607171916,91,11,-81,0,-1,-1,3,10
1523208607171916,-19,-11,-71,-4,-3,-3,-4,17
1523208607172683,-19,-10,23,-5,-3,-2,3,1
1523208607172683,-41,-1,4,4,0,-2,-3,-28
1523208607201759,-67,7,65,-4,-3,-4,0,5
1523208607201759,-75,-10,-44,5,1,0,-1,8
1523208607202764,-24,12,10,-8,-5,-4,-6,-9
1523208607202764,28,-4,-4,3,3,4,4,1
1523208607208781,-30,4,-3,-2,-4,-6,-1,17
1523208607208781,25,-2,-2,-6,-5,-5,-9,-59
1523208607209783,-4,5,-26,0,2,4,1,8
1523208607209783,5,8,55,3,2,1,1,-1
1523208607231883,32,2,-11,4,4,3,2,-8
1523208607231883,-84,-10,-3,-6,-4,-3,-3,32
1523208607232843,-17,-14,-16,2,-2,-2,6,-7
1523208607232843,-27,-7,34,-10,-4,-4,-5,1
1523208607254902,-27,6,60,5,1,2,2,-19
1523208607254902,-22,-6,7,-3,-2,-3,-3,17
1523208607255905,-9,3,7,-6,-6,-6,-5,-5
1523208607255905,-18,-17,41,4,1,0,-4,4
1523208607268984,-19,12,-7,-4,-4,0,0,14
1523208607268984,-15,0,-53,-2,1,4,2,-27
1523208607269942,-46,-12,11,2,-1,-4,-9,-50
1523208607269942,10,1,18,4,1,0,2,-3
1523208607292002,14,-11,-118,-8,-3,-4,-3,-2
1523208607292002,2,11,0,2,-1,-1,1,-4
1523208607292002,-3,8,5,0,-2,0,-2,21
1523208607292002,30,24,-16,4,5,2,-2,-15
1523208607315062,-57,-44,-39,-11,-4,-3,-2,-28
1523208607315062,-29,-11,34,7,-1,-2,-2,10
1523208607315062,46,-7,7,-9,-6,-4,1,9
1523208607315062,-9,12,12,7,2,1,2,13
1523208607328332,74,27,19,9,3,0,0,23
1523208607328332,2,-11,25,-6,-2,0,-7,37
1523208607336120,36,15,40,-4,-5,-5,11,3
1523208607336120,-36,-12,-58,-4,-3,-1,-2,-3
1523208607351158,-25,5,11,0,-1,-1,-3,-14
1523208607351158,37,-13,40,2,-3,-3,-2,-6
1523208607352161,-27,-21,-6,10,8,7,-2,2
1523208607352161,-36,-22,-47,-12,-10,-6,-8,32
1523208607375373,-35,-29,28,3,3,4,8,1
1523208607375373,-30,5,-11,-6,1,1,1,4
1523208607375373,-32,18,33,10,4,0,-4,-41
1523208607375373,61,-12,-12,-10,-6,-4,-1,-8
1523208607388255,-49,6,55,0,-4,-5,-6,0
1523208607388255,67,5,-75,-2,0,0,0,-6
1523208607396276,28,-3,-73,-2,-3,-1,0,13
1523208607396276,34,5,58,0,0,1,1,13
1523208607411552,-60,-9,29,1,-2,0,-2,-6
1523208607411552,-1,5,4,0,0,2,0,-8
1523208607412319,-42,-1,-43,-2,-1,-2,-1,-8
1523208607412319,10,13,39,-7,-6,-5,-4,0
1523208607434378,29,-8,-59,-3,0,0,-2,-44
1523208607434378,-23,-7,33,5,3,3,4,-21
1523208607435381,25,-17,-17,4,3,4,-6,-8
1523208607435381,-57,-6,-6,-6,-5,0,4,-5
1523208607448418,78,3,36,-1,-1,-1,-1,16
1523208607448418,15,4,10,-3,-2,-1,-12,-11
1523208607456438,84,-13,13,-3,-1,0,12,18
1523208607456438,74,9,54,3,1,-1,-5,-35
1523208607471713,6,-1,14,-1,-3,-3,-1,20
1523208607471713,4,-5,-86,-9,-7,-6,-3,10
1523208607472482,81,22,37,-2,-2,-2,-2,15
1523208607472482,15,0,3,5,1,2,2,38
1523208607494774,-39,-28,-38,-7,-5,-9,-8,0
1523208607494774,33,5,37,9,5,4,10,-8
1523208607495541,-18,9,-26,-4,-4,-4,-7,21
1523208607495541,-9,-15,-21,-2,-2,-1,5,-8
1523208607508588,-14,26,3,-2,-3,-4,-5,-2
1523208607508588,39,0,-17,0,-3,-6,0,12
1523208607516606,-60,-7,-25,-6,-3,-2,-4,-21
1523208607516606,29,7,12,-2,-1,-3,-3,16
1523208607531644,-53,-1,9,-1,-3,-4,-1,-14
1523208607531644,23,-6,33,-4,-3,-3,-2,0
1523208607532642,-20,11,-3,-4,0,-1,-10,13
1523208607532642,19,12,-46,10,1,-1,8,4
1523208607554699,54,11,4,-3,-2,2,2,-9
1523208607554699,-39,-16,-49,-3,-1,0,4,7
1523208607555702,-14,-13,29,2,-5,-3,-4,23
1523208607555702,-67,-27,-86,-2,3,1,-1,-21
1523208607568738,25,6,-10,-2,1,-1,-2,4
1523208607568738,12,10,2,-2,-3,-1,-2,-6
1523208607576993,79,16,67,5,1,2,2,-12
1523208607576993,13,-17,19,-1,-3,-1,4,19
1523208607591799,9,1,-43,-4,0,2,2,-12
1523208607591799,-1,2,54,-8,-7,-5,-5,16
1523208607592802,20,-13,-59,3,2,1,3,0
1523208607592802,-24,22,87,-3,-1,-1,-5,-18
1523208607614859,14,2,3,3,2,0,-7,8
1523208607614859,5,7,19,-3,-1,-2,16,2
1523208607615862,1,-11,-16,3,2,2,-3,-6
1523208607615862,-40,-15,2,2,2,1,-5,-46
1523208607636917,8,4,8,0,-1,-1,0,20
1523208607636917,-2,18,-89,-3,1,3,-1,-7
1523208607637919,-122,-13,-41,-7,-4,-5,0,5
1523208607637919,20,-17,10,0,0,2,-1,-10
1523208607651956,33,-1,7,-1,0,-2,2,8
1523208607651956,32,4,44,6,1,2,-3,2
1523208607651956,45,7,20,-3,-1,-3,-1,9
1523208607651956,35,5,14,0,-1,0,-4,-8
1523208607675253,-18,-4,1,3,2,0,2,20
1523208607675253,-32,-35,-76,2,1,0,-3,-19
1523208607675253,-79,7,46,-8,-2,0,3,11
1523208607675253,-28,4,-22,1,0,-5,-8,-19
1523208607697087,-7,-6,-31,6,2,1,3,-13
1523208607697087,14,21,98,-12,-6,-4,-9,-4
1523208607698087,-8,-13,-6,0,-1,-1,6,0
1523208607698087,-31,-17,-2,-1,-2,0,0,5
1523208607711349,122,2,9,3,3,2,7,14
1523208607711349,-54,-5,-23,4,2,0,-7,-2
1523208607712115,-36,-20,-32,-1,-2,1,-3,-29
1523208607712115,68,37,14,-6,-6,-3,1,38
1523208607735178,23,22,-11,-6,-6,-4,-7,-34
1523208607735178,8,1,40,1,0,0,2,4
1523208607735178,-10,9,6,4,1,-1,-3,-3
1523208607735178,-11,8,-4,1,2,2,1,23
1523208607757236,-43,7,54,1,1,2,0,-22
1523208607757236,-45,-1,-29,-10,-5,-8,-5,-11
1523208607757236,-29,12,11,-4,-3,-3,-5,-26
1523208607757236,33,1,-14,3,0,-2,-1,-9
1523208607771509,-37,-5,68,7,2,5,4,22
1523208607771509,32,-7,-23,1,0,0,-3,8
1523208607772278,40,-12,-11,-4,-2,0,3,-6
1523208607772278,-38,8,14,-3,-1,-1,-2,0
1523208607794571,-32,5,-9,-2,-1,-2,2,11
1523208607794571,83,1,7,3,0,-1,-3,6
1523208607795338,53,18,-46,3,3,1,-9,2
1523208607795338,54,11,-18,-3,-3,-1,7,8
1523208607817396,-52,-22,23,4,0,-4,-8,-28
1523208607817396,-58,14,26,-13,-5,-3,0,-46
1523208607818399,70,26,64,-8,-7,-5,-5,30
1523208607818399,-52,-11,4,2,3,1,-2,-17
1523208607831438,-7,-11,-28,1,0,-2,-6,4
1523208607831438,-48,6,25,7,3,1,3,10
1523208607832437,32,-23,-46,1,-2,0,1,8
1523208607832437,-3,-11,-13,-2,-1,0,-3,-11
1523208607854495,-42,-9,-54,-1,0,3,5,7
1523208607854495,50,-10,17,5,0,1,2,9
1523208607855501,-11,9,20,1,-1,-2,1,-5
1523208607855501,-68,-6,5,7,-1,-1,-2,19
1523208607877792,-8,-10,-47,-15,-7,-4,-10,-37
1523208607877792,-2,0,18,-6,-3,1,5,-15
1523208607877792,-15,-2,-5,-2,-4,-3,-2,-5
1523208607877792,15,3,-84,0,0,-3,0,-3
1523208607891594,30,8,42,1,-1,-1,-1,24
1523208607891594,-23,-12,-6,2,1,1,-1,5
1523208607892597,2,-4,23,-2,-1,-2,2,6
1523208607892597,-73,-10,-35,-6,-3,-4,-8,-19
1523208607914656,-51,6,-36,1,2,2,-4,63
1523208607914656,-1,-31,-53,-5,-2,-3,2,-71
1523208607915658,9,0,21,4,0,0,-1,-13
1523208607915658,-16,-15,-48,-5,-1,-1,2,6
1523208607937719,127,14,51,-3,-1,-3,0,8
1523208607937719,0,-14,-8,0,-2,-1,-3,31
1523208607937719,1,3,3,-3,0,-1,-4,-5
1523208607937719,38,15,88,-4,-4,-1,-1,4
1523208607951754,20,-2,44,4,-1,-1,0,-12
1523208607951754,7,0,7,2,-1,-1,-1,30
1523208607952757,12,7,12,-5,-2,-2,-2,-12
1523208607952757,47,-23,-12,2,-1,1,6,6
1523208607975050,-32,-17,-12,0,-2,-3,-3,12
1523208607975050,2,3,-17,-8,-4,-5,-3,-7
1523208607975817,-12,13,-31,-5,-3,-1,0,3
1523208607975817,-13,-6,61,0,-1,-2,-5,-6
1523208607996877,54,14,31,5,1,0,1,-30
1523208607996877,25,5,-33,-2,-2,-4,-2,13
1523208607997875,22,-21,-24,2,2,2,-1,2
1523208607997875,46,0,-19,-2,-4,-1,-1,52
1523208608011915,-84,-34,31,-10,-3,1,-2,-46
1523208608011915,71,26,89,1,-2,-2,-11,-34
1523208608011915,-107,-11,-37,-1,0,-3,4,-14
1523208608011915,13,4,33,-1,-1,-4,-1,8
1523208608034975,-20,-5,-35,3,0,2,4,7
1523208608034975,75,14,-4,-1,-2,1,-1,28
1523208608035981,42,29,-11,1,1,-1,4,17
1523208608035981,0,-19,-32,-2,1,0,-4,-23
1523208608057033,-75,9,-23,-5,-2,-1,1,-9
1523208608057033,-28,-2,-7,5,3,1,3,5
1523208608058035,18,2,-7,-13,-8,-7,-8,-1
1523208608058035,-87,5,82,0,-1,-1,-4,-37
1523208608072171,36,9,-52,0,1,1,1,9
1523208608072171,-12,-1,-20,0,0,1,-1,21
1523208608072171,-26,-13,66,5,0,0,2,7
1523208608072171,1,-2,-29,-8,-3,1,-2,-16
1523208608095134,-48,-19,10,2,0,-2,0,16
1523208608095134,29,16,23,6,3,3,2,-64
1523208608095134,-9,-3,23,-2,-3,-3,-4,15
1523208608095134,47,8,-23,-4,-4,-5,-2,-1
1523208608117194,37,7,-8,-10,-6,-4,-2,-9
1523208608117194,-22,7,-31,11,5,5,4,21
1523208608118197,54,-11,56,4,3,5,-3,-27
1523208608118197,-63,6,-19,-3,1,-2,2,-21
1523208608131232,-43,6,22,-3,-5,-3,-4,42
1523208608131232,-53,-15,-8,-4,-2,-4,-2,-5
1523208608139251,10,3,2,4,1,1,1,-2
1523208608139251,-13,16,36,3,-1,1,-2,10
1523208608154292,-18,-18,-32,-1,0,0,-4,-11
1523208608154292,35,-12,24,0,-1,-1,5,13
1523208608155295,47,14,30,1,2,2,1,2
1523208608155295,20,-3,-14,-2,-4,-3,-1,3
1523208608177590,18,7,26,2,0,1,1,5
1523208608177590,50,6,-4,-2,-3,-2,-3,-8
1523208608177590,-27,-17,-78,-6,-4,-5,-3,21
1523208608177590,-34,8,66,4,5,4,-2,-48
1523208608191390,45,-10,4,4,3,0,1,-7
1523208608191390,1,17,-67,-6,-6,-4,-3,19
1523208608192393,-82,-8,14,4,3,0,-9,-4
1523208608192393,37,13,-1,-2,-2,-2,8,-6
1523208608214452,48,12,-34,3,2,3,2,3
1523208608214452,-91,11,49,1,2,2,2,-19
1523208608215455,44,4,17,-6,-6,-6,-10,-36
1523208608215455,21,-16,-71,-3,-2,0,-1,31
1523208608237512,28,-11,13,4,-1,-1,-2,-20
1523208608237512,5,-3,33,-1,-2,-1,-4,4
1523208608237512,-40,3,-17,2,0,1,5,5
1523208608237512,10,-9,-58,-3,-1,-2,-2,-1
1523208608250548,1,6,22,-8,-5,-4,0,-7
1523208608250548,-9,-25,77,5,3,0,-1,11
1523208608259647,-63,-14,-58,-6,-5,-6,-9,-41
1523208608259647,37,-19,-13,2,1,-3,1,-5
1523208608274847,47,19,5,0,-1,-1,-1,15
1523208608274847,44,20,-8,2,-1,1,2,15
1523208608275614,42,11,-9,-1,-1,1,2,-2
1523208608275614,-94,-25,-61,-5,-3,-2,-3,18
1523208608297673,2,12,-2,-1,-5,-6,-2,-7
1523208608297673,-22,-16,-12,-3,-3,-4,-6,-9
1523208608297673,27,21,32,2,-2,2,8,18
1523208608297673,8,15,-64,-1,1,2,-2,-4
1523208608310943,-128,-23,31,5,4,0,-2,-4
1523208608310943,-10,1,-16,-17,-11,-9,-1,14
1523208608318729,-89,-17,-67,4,3,1,-1,-42
1523208608318729,53,11,98,8,3,2,2,53
1523208608334810,-40,-1,28,-6,-4,-5,-4,-49
1523208608334810,-84,-14,-27,2,2,-2,-2,2
1523208608335774,45,-1,-1,-7,-1,1,1,-13
1523208608335774,25,14,89,1,-4,-1,-6,-30
1523208608356830,8,-15,-55,0,-1,0,-5,12
1523208608356830,-17,-11,-63,-10,0,1,13,10
1523208608357832,0,10,50,4,1,1,-7,12
1523208608357832,25,-12,-16,5,3,2,6,-2
1523208608371945,58,-1,-26,-7,-5,-2,-1,6
1523208608371945,-12,15,56,5,2,1,-1,-11
1523208608378889,-22,-28,-49,-2,-1,-2,1,7
1523208608378889,64,15,26,-5,-5,-4,-3,8
1523208608394931,-96,-21,-56,4,-1,-2,-1,10
1523208608394931,37,5,81,4,2,2,-2,12
1523208608395934,-22,1,6,-3,-1,-2,2,-14
1523208608395934,32,-7,-27,1,2,1,0,21
1523208608416991,-20,-13,20,-11,-6,-5,-2,14
1523208608416991,-25,-14,-49,0,0,-1,4,-15
1523208608417993,-23,-4,19,-1,0,0,-2,41
1523208608417993,5,-21,-55,-3,-4,-3,-3,-17
1523208608431029,29,30,26,4,2,0,1,2
1523208608431029,-17,-28,-31,-5,-3,-2,-5,-5
1523208608439075,62,7,10,2,1,0,1,18
1523208608439075,-7,19,34,-3,1,2,0,-38
1523208608455091,-52,6,35,-1,-2,-2,-1,0
1523208608455091,-54,-11,34,6,-1,1,-3,-1
1523208608455091,8,-3,-26,-8,-5,-4,2,-5
1523208608455091,-36,2,49,5,2,1,-2,-9
1523208608477388,13,6,8,1,1,2,3,4
1523208608477388,45,7,-16,-2,-2,-1,-3,-8
1523208608478155,-9,12,3,-2,-2,1,6,30
1523208608478155,-28,-9,5,4,0,0,-2,-4
1523208608491189,29,14,11,-10,-3,-1,1,8
1523208608491189,-3,-4,-21,2,0,3,2,0
1523208608499207,4,15,-8,4,3,-3,2,8
1523208608499207,-31,-22,-83,-11,-7,-4,-7,5
1523208608514248,16,-14,59,-1,2,2,4,11
1523208608514248,-62,-1,-46,3,-1,-2,-4,-35
1523208608515250,2,-1,99,-3,-1,-3,-9,-20
1523208608515250,-15,-10,-20,-3,-2,-3,1,18
1523208608544564,10,-24,-35,0,1,1,1,3
1523208608544564,-12,16,38,1,-1,0,-4,38
1523208608545337,-37,-12,-61,-1,0,2,-2,-11
1523208608545337,-12,-26,-43,-7,-5,-6,-6,-23
1523208608550343,-1,16,16,-2,-3,-1,-3,-15
1523208608550343,42,-3,61,-2,-1,-2,0,14
1523208608559604,64,-10,-33,9,4,2,2,7
1523208608559604,-96,-1,75,-11,-6,-3,-1,-7
1523208608575646,85,-5,-44,0,1,-1,-4,-5
1523208608575646,-31,6,35,5,4,4,2,-27
1523208608576414,97,8,-1,-11,-9,-7,-8,51
1523208608576414,-100,5,-13,7,6,6,14,-34
1523208608597470,58,-5,41,4,2,3,0,31
1523208608597470,54,-2,62,-5,-3,-4,-1,4
1523208608598472,-4,17,36,2,2,2,-1,-1
1523208608598472,44,26,8,4,3,2,0,32
1523208608619763,14,9,8,-7,-4,-5,-2,-5
1523208608619763,18,0,-48,3,2,3,-1,2
1523208608620530,17,-7,-19,-5,-4,-2,1,-15
1523208608620530,5,3,-15,-2,-4,-5,-5,-1
1523208608633567,-27,34,49,-3,-1,0,2,-16
1523208608633567,16,-16,-125,-7,-3,-6,-11,-7
1523208608634567,-32,10,36,-3,0,-1,3,-11
1523208608634567,-4,2,-2,3,1,1,2,4
1523208608657630,-15,4,77,2,0,-1,-3,16
1523208608657630,34,0,-80,-10,-9,-6,-5,-57
1523208608658659,-50,-22,61,-1,0,0,1,27
1523208608658659,46,14,19,-7,-7,-11,-11,-35
1523208608679693,-51,-43,-11,3,1,0,-5,4
1523208608679693,-53,4,26,4,2,2,7,-31
1523208608680690,39,10,-19,4,1,0,0,-8
1523208608680690,0,-6,-14,-7,-1,-1,1,7
1523208608693960,-11,-4,-121,-3,-1,1,-7,-3
1523208608693960,1,-12,53,0,-3,-2,4,13
1523208608694727,33,-7,5,-2,-1,-1,2,-11
1523208608694727,-7,19,1,4,-1,-3,-6,1
1523208608716788,-19,-30,-103,-11,-5,-1,1,-37
1523208608716788,-8,19,23,1,2,0,-4,27
1523208608717789,-88,-13,1,5,2,1,-2,-29
1523208608717789,50,-24,-4,2,3,4,18,32
1523208608739848,65,13,-9,-3,-5,-8,-5,-63
1523208608739848,-17,-5,-3,-5,-5,-1,-1,15
1523208608740852,-22,26,29,-3,-2,-2,-6,5
1523208608740852,26,-24,-2,2,1,1,-7,-7
1523208608753927,-13,-5,-6,2,3,4,7,-1
1523208608753927,-65,6,-26,-6,-5,-6,-9,14
1523208608754888,-9,14,46,-3,-2,-2,-3,-28
1523208608754888,52,-5,-7,0,-4,-2,-1,22
1523208608777181,59,13,9,6,1,-4,-1,13
1523208608777181,-20,-12,28,-10,-5,-2,-2,3
1523208608778954,28,1,6,8,1,2,4,14
1523208608778954,-44,14,-36,-2,0,0,3,-6
1523208608800006,4,-1,-39,-6,-3,-3,-9,15
1523208608800006,59,15,-1,5,3,0,13,-6
1523208608801010,-32,-28,-19,4,1,0,-1,8
1523208608801010,-85,20,46,-8,-5,-4,-9,13
1523208608813044,-27,-60,-36,6,2,6,3,-4
1523208608813044,10,-9,-38,-3,-1,1,0,17
1523208608822194,-62,-6,-29,-2,-2,-4,-6,-29
1523208608822194,30,10,58,3,-1,-1,-1,0
1523208608837107,-24,2,-3,-1,0,1,3,8
1523208608837107,-35,-7,-3,0,-1,1,2,-14
1523208608839110,30,-22,-70,-1,-2,1,-2,13
1523208608839110,71,7,49,0,-1,-1,-4,-7
1523208608860403,-43,7,65,-11,-8,-7,2,-11
1523208608860403,36,-8,-39,1,0,0,-2,26
1523208608862174,-43,3,-10,-2,-2,0,1,-31
1523208608862174,34,16,-1,6,1,3,2,4
1523208608873437,-40,-18,-47,-4,-1,-1,-2,4
1523208608873437,-28,-3,45,3,-3,-5,-2,-13
1523208608882226,8,0,-32,-3,-1,-2,-2,8
1523208608882226,26,-52,0,5,3,4,-4,-1
1523208608897267,13,24,8,-6,-3,-1,1,1
1523208608897267,29,13,-35,-8,-3,-2,-5,-8
1523208608899271,-64,-21,29,-3,-1,0,2,4
1523208608899271,36,-6,-22,-2,-4,-4,-2,26
1523208608920366,0,28,30,6,2,1,1,3
1523208608920366,1,-6,2,2,2,0,-1,-6
1523208608921331,30,4,34,-5,-2,-3,-1,11
1523208608921331,46,13,-23,6,4,1,5,38
1523208608933362,-94,-8,-14,-10,-9,-7,-5,-3
1523208608933362,48,10,27,4,2,0,0,21
1523208608942385,13,-12,-44,-4,-5,-3,-2,2
1523208608942385,-29,3,12,0,2,1,-1,-10
1523208608957466,41,-13,-26,1,-1,0,1,-1
1523208608957466,-38,10,-5,0,0,0,1,-11
1523208608959472,23,-6,14,-2,0,3,2,37
1523208608959472,-72,-32,1,-10,-8,-7,-13,-32
1523208608979487,21,21,-12,5,2,2,11,-2
1523208608979487,0,6,35,0,1,0,-5,-1
1523208608981491,16,15,-43,-5,-4,-2,0,3
1523208608981491,56,11,-5,0,1,3,9,11
1523208608993756,-22,-10,87,9,6,2,-6,-2
1523208608993756,80,9,11,-11,-10,-7,-7,-7
1523208609002545,-17,0,1,3,-1,-1,3,-15
1523208609002545,-7,10,-10,-1,-1,-2,-4,-5
1523208609017587,-10,2,-28,3,3,0,0,7
1523208609017587,24,-5,-17,6,4,3,3,-4
1523208609018588,81,10,79,-10,-8,-6,-8,15
1523208609018588,-45,0,-90,-6,-5,-5,-4,-6
1523208609039644,22,-22,29,2,1,2,1,6
1523208609039644,84,19,98,-2,-2,0,1,2
1523208609041652,-58,0,-46,3,2,0,-1,-13
1523208609041652,-65,-14,-12,1,0,1,-2,0
1523208609053688,47,-1,33,-14,-8,-6,-1,-3
1523208609053688,-19,-15,-53,-1,-3,-1,2,-3
1523208609062715,-13,-22,-20,6,4,5,3,-8
1523208609062715,-35,16,-5,-15,-6,-4,1,-10
1523208609076978,-6,7,-20,6,4,1,-4,-5
1523208609076978,-6,-4,-8,0,2,-1,-3,4
1523208609078750,45,6,-13,2,0,-1,3,-5
1523208609078750,-53,12,18,7,4,1,-3,-20
1523208609099804,-1,7,-31,-6,-6,-5,-8,-23
1523208609099804,-42,5,28,-5,-5,-5,-5,-32
1523208609101810,-13,-9,-56,6,2,1,-1,-9
1523208609101810,-12,-11,27,-8,-4,-3,-2,-8
1523208609112844,46,11,6,-1,-1,-2,-3,3
1523208609112844,-44,-20,-20,3,1,0,2,11
1523208609122097,30,23,50,-10,-2,-3,-4,7
1523208609122097,33,0,-27,-2,-2,-4,-6,-4
1523208609136937,14,19,20,12,6,6,6,3
1523208609136937,-82,-21,-65,-5,-2,-2,-3,2
1523208609138908,120,35,55,-9,-7,-2,2,2
1523208609138908,-10,-48,-99,-10,-7,-8,-5,49
1523208609160121,5,-5,-46,7,3,-1,-27,-51
1523208609160121,-23,3,76,-12,-6,-3,22,-3
1523208609165981,7,-5,9,12,5,-1,-9,0
1523208609165981,-11,-3,27,1,1,4,11,-18
1523208609174038,-32,-4,-23,-4,-4,1,3,15
1523208609174038,1,0,-55,3,1,1,-10,3
1523208609182022,31,-16,-89,-10,-6,-2,-1,46
1523208609182022,70,12,80,9,3,1,1,-36
1523208609197062,-40,10,26,-2,0,-2,2,16
1523208609197062,62,-13,-22,-3,1,0,-4,-7
1523208609199068,-67,-22,57,1,3,2,10,34
1523208609199068,-50,0,-74,-6,-1,0,-13,-5
1523208609220343,22,16,-11,1,-1,1,19,22
1523208609220343,42,9,92,-2,-3,-3,-8,26
1523208609221126,-89,-3,-5,3,-3,-3,-6,-66
1523208609221126,13,2,87,5,3,2,0,5
1523208609233159,-10,16,41,-4,0,-2,0,-13
1523208609233159,-14,12,25,0,1,1,0,13
1523208609242183,-22,-7,-11,0,3,2,1,-29
1523208609242183,-52,1,-15,-3,-5,-7,-3,26
1523208609257222,77,-15,-48,-2,-2,-1,-1,14
1523208609257222,23,-5,-31,1,-3,-5,-7,-40
1523208609259227,-40,4,39,-2,-3,-3,-6,-38
1523208609259227,23,16,-3,2,2,2,3,4
1523208609280289,-83,-25,36,4,2,1,3,14
1523208609280289,67,5,-93,-11,-2,-2,-3,41
1523208609281287,-10,-2,26,6,2,4,-4,-6
1523208609281287,18,10,-58,2,1,1,3,-16
1523208609293553,-21,-35,-2,-5,-2,-2,-1,-9
1523208609293553,-23,14,-20,10,3,3,-8,2
1523208609302344,-96,-1,-19,-12,-6,-5,10,-5
1523208609302344,105,4,38,4,0,1,-3,15
1523208609317382,30,4,0,-3,-1,-1,-2,-4
1523208609317382,46,0,16,5,-1,0,2,7
1523208609319387,85,1,3,0,-2,-2,-4,10
1523208609319387,30,9,14,3,1,2,2,-4
1523208609339442,3,-3,17,-8,-6,-4,-1,2
1523208609339442,1,22,32,3,0,-2,0,21
1523208609341446,-43,-15,-44,-7,-2,-5,-6,-20
1523208609341446,4,6,23,-9,-5,-2,2,-6
1523208609353479,62,5,58,5,2,1,0,27
1523208609353479,-124,-9,-42,1,0,-2,-1,-1
1523208609362507,81,2,28,5,1,-1,-2,26
1523208609362507,-19,13,11,-1,1,0,0,-2
1523208609377543,88,30,0,-5,-5,-3,1,19
1523208609377543,-75,-13,-57,-3,-2,-1,-2,-35
1523208609378544,56,22,-4,4,2,-2,1,35
1523208609378544,-13,-12,32,0,-1,-3,-12,-3
1523208609399602,24,-7,-28,-5,-5,-3,4,-16
1523208609399602,-55,2,22,0,-1,0,4,-11
1523208609401607,63,-7,36,4,1,-1,-2,-15
1523208609401607,-73,-22,52,1,3,2,3,-1
1523208609422844,-66,-19,-8,-11,-4,-3,-10,-57
1523208609422844,34,7,4,2,-2,-1,-1,25
1523208609423665,-24,-2,2,0,-2,1,1,3
1523208609423665,77,-14,-13,1,1,5,4,29
1523208609436705,-101,-9,-16,-4,1,0,-5,-30
1523208609436705,-3,-16,27,-2,-1,0,3,10
1523208609438705,-60,12,3,4,0,-2,-3,-42
1523208609438705,42,26,-21,-10,-6,-6,0,13
1523208609459996,-32,-22,8,7,1,-1,0,16
1523208609459996,22,0,-1,-2,0,1,2,6
1523208609460766,-2,2,2,-1,-1,0,1,16
1523208609460766,-13,-21,-108,-5,-4,-6,-5,-25
1523208609473994,-25,15,11,2,-1,-3,7,0
1523208609473994,-5,-7,-7,1,2,3,-2,7
1523208609481818,-34,-15,21,2,0,-3,-5,-6
1523208609481818,-68,11,47,-12,-8,-3,0,-2
1523208609496860,102,-5,-22,-5,-1,0,-3,-3
1523208609496860,-63,-14,15,10,4,2,1,15
1523208609498864,-45,-18,-34,2,2,1,2,6
1523208609498864,64,-2,-13,-1,-1,1,-4,-37
1523208609520156,19,11,-19,-4,-2,-2,-5,20
1523208609520156,45,7,39,4,2,-1,-3,-21
1523208609526176,-14,3,97,-14,-7,-3,0,-12
1523208609526176,-84,-1,-44,11,6,7,6,28
1523208609542017,14,24,16,0,-2,-1,-2,-17
1523208609542017,29,-21,-5,-2,1,1,1,-16
1523208609543985,-15,23,9,5,-1,-1,-3,30
1523208609543985,-11,11,26,-6,-4,-1,0,-21
1523208609557064,-91,0,1,-2,-3,-2,-3,-10
1523208609557064,-83,-4,-23,-5,-4,-6,-7,-19
1523208609559026,118,-12,-64,-2,0,-2,-1,24
1523208609559026,-28,-4,15,4,1,-1,5,-4
1523208609580081,51,11,-8,4,2,1,-6,-4
1523208609580081,24,2,-26,-17,-10,-7,-3,-26
1523208609581082,42,7,18,-2,-3,-1,1,12
1523208609581082,28,-10,-28,6,3,1,-4,-17
1523208609602139,-27,-1,-1,-4,-5,-4,-1,6
1523208609602139,68,-17,23,10,6,6,7,39
1523208609604183,-10,14,-20,-9,-4,-3,-5,2
1523208609604183,8,16,45,7,1,0,-2,-43
1523208609617179,-8,13,36,7,5,4,0,4
1523208609617179,51,-24,-39,-10,-8,-6,-2,12
1523208609619185,-33,-5,-28,-10,-4,-1,-2,-44
1523208609619185,-30,-7,-64,-4,-3,-3,1,-1
1523208609640321,-99,-1,30,-7,-5,-5,1,4
1523208609640321,18,3,2,5,3,0,-3,-9
1523208609641242,6,-11,-47,8,5,3,3,6
1523208609641242,43,13,22,-2,-4,-2,-1,61
1523208609662312,-34,-17,-50,4,0,2,-4,-8
1523208609662312,-32,-12,46,-12,-8,-5,-1,9
1523208609663306,45,-21,-44,1,-1,1,-1,-7
1523208609663306,-43,-3,29,3,1,1,0,-9
1523208609676572,17,7,1,3,0,0,-1,18
1523208609676572,0,4,-35,-8,-3,-3,-2,-6
1523208609683356,-6,9,35,-7,-6,-4,0,4
1523208609683356,22,-14,12,0,0,-2,-4,-7
1523208609699399,91,16,-34,-4,-3,-5,-4,7
1523208609699399,-44,11,-22,6,2,0,-1,-7
1523208609701403,28,-25,-16,-8,-4,-1,0,29
1523208609701403,-25,-13,11,-1,-1,-1,-4,-17
1523208609722694,-5,-27,-34,0,0,0,2,5
1523208609722694,25,22,30,1,0,0,0,12
1523208609724483,-64,-8,-3,9,3,1,1,2
1523208609724483,39,-4,29,-7,-2,0,1,40
1523208609736536,23,-8,-33,-11,-8,-7,0,32
1523208609736536,-2,-2,-36,0,-1,-2,-1,-36
1523208609743634,40,24,14,10,6,3,0,-10
1523208609743634,-46,-12,-60,-3,0,0,0,-9
1523208609759792,-35,-27,-45,-2,2,3,1,-9
1523208609759792,27,0,85,-2,-2,0,-2,7
1523208609761562,53,12,34,2,-1,-3,-1,32
1523208609761562,-13,-7,-12,-2,-2,-1,-4,-19
1523208609782619,16,14,26,1,2,3,2,-1
1523208609782619,-7,-5,-77,-1,-1,-4,-8,-16
1523208609783622,-34,-4,44,-5,-1,1,13,31
1523208609783622,4,-2,2,-1,-1,-4,-7,-38
1523208609796658,-24,-7,25,-2,-3,-1,-2,-10
1523208609796658,0,4,44,2,1,1,2,16
1523208609803674,-21,-2,-39,1,-1,0,-6,-53
1523208609803674,-84,-16,-20,-8,-5,-4,-6,-10
1523208609819951,36,1,-33,5,3,-1,6,15
1523208609819951,38,9,61,-2,-3,-1,1,6
1523208609821722,-4,-8,-28,-2,-1,0,-3,-17
1523208609821722,3,-4,96,4,1,1,2,0
1523208609842844,94,2,17,0,-1,-1,-5,-21
1523208609842844,-38,-9,-83,-5,-4,-4,-1,-3
1523208609843783,-9,-13,-5,-9,-6,-4,-4,-10
1523208609843783,15,10,-11,6,4,3,1,5
1523208609856815,3,-12,2,-3,-2,-3,-2,15
1523208609856815,63,20,-43,3,2,2,3,19
1523208609862836,-56,10,36,2,-1,-3,-6,-42
1523208609862836,64,10,-73,-4,-2,-2,6,17
1523208609879877,-60,-17,34,-7,-5,-4,-7,-14
1523208609879877,8,13,18,0,0,0,-2,-1
1523208609880881,-12,-12,-17,-2,-3,-4,0,-16
1523208609880881,21,9,110,7,4,2,-3,2
1523208609901937,-32,27,46,-2,-2,-2,-1,-12
1523208609901937,41,-1,-10,-4,-1,0,1,-28
1523208609903942,108,-2,4,0,-1,-3,-7,26
1523208609903942,52,1,21,5,0,2,4,4
1523208609916976,-41,6,48,-2,-2,-2,-1,0
1523208609916976,-35,-27,-13,2,0,-2,-3,-10
1523208609924011,-54,-11,11,-9,-5,-4,-3,18
1523208609924011,85,2,7,4,3,3,5,60
1523208609940271,-38,-13,-10,0,-3,-3,-7,-34
1523208609940271,-13,-9,-6,-9,-3,-2,-3,10
1523208609941039,-21,5,-26,3,3,2,1,-2
1523208609941039,11,26,-6,1,0,0,-1,12
1523208609962101,-5,-12,44,-2,-4,0,4,51
1523208609962101,-15,-9,-56,2,2,-1,-4,-30
1523208609964102,30,9,11,3,5,2,0,-8
1523208609964102,-65,-22,-86,-10,-6,-4,-6,-17
1523208609976367,-1,24,-46,8,4,3,1,-24
1523208609976367,-121,-27,36,-13,-7,-5,-5,-3
1523208609983191,-6,-9,-29,3,-2,1,3,3
1523208609983191,42,9,19,5,3,3,1,-13
1523208610000198,22,6,-32,-14,-5,-6,-3,-9
1523208610000198,-58,-8,-11,5,3,3,2,40
1523208610001200,-24,-1,26,-7,-2,-1,1,-15
1523208610001200,-110,-9,-17,-3,-2,-5,-4,-11
1523208610022490,-14,-26,26,-1,1,2,3,5
1523208610022490,61,25,9,1,-3,-4,2,39
1523208610024438,19,-23,-17,-1,1,3,0,-17
1523208610024438,30,27,20,-2,-2,-1,-3,-1
1523208610036291,-28,-12,35,8,4,2,2,0
1523208610036291,36,19,95,-4,-2,-4,-13,-9
1523208610045321,-62,-17,-45,-1,0,0,9,19
1523208610045321,61,5,14,-15,-9,-7,-5,-1
1523208610059589,-9,-4,-47,11,3,1,2,0
1523208610059589,42,8,24,-2,-4,-2,-2,-15
1523208610061359,-46,-12,48,-2,1,1,-1,28
1523208610061359,-8,-5,-20,3,-1,-1,-1,13
1523208610082456,27,6,-23,-1,-2,-5,-3,33
1523208610082456,-5,-1,-4,1,-1,-1,2,-27
1523208610083418,11,-14,-1,4,2,2,-2,5
1523208610083418,-125,-14,16,-6,-4,-3,2,-22
1523208610095453,89,5,-26,2,-2,-3,-9,-37
1523208610095453,58,-17,-50,-5,-3,-1,2,3
1523208610104476,-9,39,65,2,-2,-2,-3,-5
1523208610104476,-36,-13,4,-4,-3,-3,-3,-8
1523208610119749,2,17,-34,3,2,3,4,26
1523208610119749,20,-4,62,1,2,0,0,-17
1523208610121520,58,33,-41,-9,-3,-2,-3,-4
1523208610121520,-61,-11,8,2,1,1,2,12
1523208610142809,-20,0,26,-3,-1,2,3,1
1523208610142809,-30,-2,-24,6,2,1,2,14
1523208610143578,-29,20,2,-7,-3,-1,-6,-1
1523208610143578,36,-15,40,6,0,-2,-2,12
1523208610155610,-35,1,24,-5,-3,-1,0,-11
1523208610155610,-50,-11,-33,2,0,0,2,-14
1523208610164633,38,9,-22,-5,-3,-6,-8,37
1523208610164633,94,13,-1,-6,-1,1,2,-46
1523208610186696,-77,-5,7,6,2,-1,-3,-3
1523208610186696,41,-8,-40,0,1,0,2,-33
1523208610188699,-46,5,-13,-1,0,-2,-3,-10
1523208610188699,-38,15,19,3,1,-2,0,36
1523208610201733,-57,-10,1,-7,-1,0,-4,-52
1523208610201733,64,16,28,4,2,0,-2,41
1523208610203738,33,-7,-25,-6,-3,0,2,-11
1523208610203738,25,-20,-7,-1,1,-1,-5,8
1523208610215771,36,17,-23,-7,-1,-1,-1,0
1523208610215771,-80,-33,83,4,2,3,2,6
1523208610224792,67,5,31,5,0,-2,-4,-10
1523208610224792,17,6,9,-11,-5,-2,-2,-14
1523208610240068,79,-4,-20,0,-1,-2,0,45
1523208610240068,-20,7,-21,-2,0,0,0,-25
1523208610245857,60,-18,-35,2,0,0,3,30
1523208610245857,11,14,13,12,6,5,2,-14
1523208610261895,-86,-15,83,-22,-12,-7,-3,4
1523208610261895,-17,8,15,-3,-3,-1,-2,1
1523208610263899,-23,-20,-75,0,-1,-2,-2,6
1523208610263899,-7,9,-50,5,2,-2,-2,10
1523208610275929,-54,-6,23,10,3,0,-2,-11
1523208610275929,-31,-1,-95,-7,-3,1,-1,-18
1523208610284953,22,5,93,-3,-5,-5,-3,12
1523208610284953,42,-2,27,1,-2,0,-1,-4
1523208610299993,89,12,-66,3,1,-2,-2,-17
1523208610299993,-30,-11,8,-10,-5,-4,-7,16
1523208610300996,-38,-8,-36,-6,-2,0,7,-15
1523208610300996,-38,-4,-89,-6,-4,-3,-1,-9
1523208610322287,77,7,22,1,-1,-1,-2,-12
1523208610322287,-65,33,7,3,-1,-1,-2,-16
1523208610324057,9,-6,-59,1,-1,-3,-4,-55
1523208610324057,52,-12,-9,-13,-6,-4,-3,11
1523208610336089,-19,5,8,-5,0,0,1,10
1523208610336089,-3,4,-8,1,2,0,-1,7
1523208610345117,-8,-4,2,0,-2,-1,-3,-3
1523208610345117,9,8,4,0,0,0,0,-7
1523208610360154,-78,-25,-23,1,-2,0,-2,-3
1523208610360154,27,-8,6,0,-1,-3,-2,-7
1523208610361157,-10,4,23,-2,-2,-2,1,-9
1523208610361157,58,17,-10,8,4,0,0,2
1523208610382250,-7,-6,-17,-15,-7,-6,-4,1
1523208610382250,127,-1,-11,-4,-1,-1,-9,34
1523208610384218,-106,-2,57,8,3,3,12,16
1523208610384218,40,11,-24,3,-2,-1,-3,6
1523208610396249,3,3,-32,6,3,2,-4,-38
1523208610396249,52,-2,47,-2,-2,2,3,-7
1523208610405275,-38,15,8,0,2,-1,-4,9
1523208610405275,-16,-45,-10,-10,-4,-3,-4,-5
1523208610420352,32,17,12,14,4,2,3,32
1523208610420352,21,8,-53,-3,-1,-1,3,5
1523208610421316,-6,7,-63,-6,-3,-3,-8,-12
1523208610421316,-46,-17,33,1,0,-2,3,2
1523208610442607,22,-11,-13,2,3,-1,-1,0
1523208610442607,-128,21,68,-1,-1,-1,3,-18
1523208610443375,55,3,-33,-6,-2,0,-3,-6
1523208610443375,-34,1,-38,-2,1,2,0,-3
1523208610464430,41,6,4,2,-1,-2,-4,-32
1523208610464430,15,3,45,-4,-6,-5,0,6
1523208610466436,-4,8,27,-5,-2,-2,0,19
1523208610466436,-17,-1,-15,-4,-1,0,-7,2
1523208610479471,-98,-29,27,5,2,0,11,-35
1523208610479471,23,7,3,4,4,4,-1,17
1523208610481475,18,-18,-33,-4,-3,-5,-7,-36
1523208610481475,31,14,11,-7,-6,-2,-1,-13
1523208610502531,102,11,-4,-7,-4,-3,0,30
1523208610502531,-37,-40,22,3,2,0,4,-3
1523208610503534,21,2,16,5,4,1,2,46
1523208610503534,27,-6,5,-1,-2,-2,-4,-6
1523208610524825,72,4,-80,-3,0,0,-4,0
1523208610524825,-55,-13,14,0,-3,-2,0,7
1523208610526597,-2,-12,59,3,-2,-1,0,-9
1523208610526597,-21,5,18,3,1,-1,2,-24
1523208610539864,-13,-21,12,-9,-6,-4,-2,14
1523208610539864,31,10,-42,-3,-1,-2,-3,-19
1523208610541676,-22,1,-3,0,-3,-2,-3,-20
1523208610541676,-28,3,17,2,-2,-1,2,8
1523208610561692,-6,4,-13,-7,-2,0,-1,0
1523208610561692,-70,1,-33,-1,-2,-3,-2,-18
1523208610563694,15,-19,-36,-5,0,1,0,-3
1523208610563694,-4,-5,4,5,2,2,2,-5
1523208610584750,56,9,38,5,4,4,-2,46
1523208610584750,-53,13,-35,-12,-8,-5,-4,-11
1523208610586755,-11,0,30,3,-1,-1,1,-7
1523208610586755,-31,4,55,0,-1,1,-2,-3
1523208610599790,-54,-45,37,9,3,3,13,1
1523208610599790,74,-10,30,3,2,3,-2,19
1523208610600793,-13,2,-5,-2,-4,-5,-4,-12
1523208610600793,11,6,11,-4,-2,-2,1,31
1523208610622883,-50,21,-1,-6,-5,-4,-7,-16
1523208610622883,-32,-9,23,5,4,0,-3,-8
1523208610623854,12,13,-41,3,0,-1,0,-9
1523208610623854,17,7,14,-7,0,1,-2,-6
1523208610644912,21,-9,-21,-3,-2,-3,-2,16
1523208610644912,93,5,-8,2,-1,-2,-3,-8
1523208610645912,40,-21,-29,6,3,3,-1,7
1523208610645912,3,1,17,0,-2,-3,1,-3
1523208610659182,-14,-5,-32,-4,-1,-1,-5,-17
1523208610659182,53,-6,-37,5,5,4,7,21
1523208610665967,66,35,72,-1,-1,-3,-4,-22
1523208610665967,-33,-28,-37,-11,-7,-7,-5,-11
1523208610682008,1,-14,17,0,-2,-3,0,0
1523208610682008,29,-1,-65,3,2,0,0,-7
1523208610684015,-80,-4,14,7,5,3,-8,14
1523208610684015,-108,6,47,3,1,3,12,-27
1523208610705071,55,42,6,-11,-7,-6,-8,35
1523208610705071,16,-6,-7,1,0,-3,-2,-33
1523208610706073,-20,-25,-14,-4,-3,-2,-1,4
1523208610706073,46,2,-14,5,3,2,0,13
1523208610719342,-68,9,18,3,1,0,-1,-13
1523208610719342,-25,11,4,-4,-1,2,3,33
1523208610726175,-41,-14,-62,-10,-6,-8,-3,2
1523208610726175,18,6,-36,0,-3,-3,-6,-10
1523208610742169,32,-2,14,3,1,2,1,-12
1523208610742169,-9,21,6,-2,-4,-4,-2,-6
1523208610744173,-22,-5,18,-1,3,3,5,6
1523208610744173,14,-5,-38,-1,-2,-3,-5,12
1523208610764228,20,4,2,7,3,5,-1,-2
1523208610764228,10,24,3,-12,-9,-7,-2,-4
1523208610766232,24,0,41,-4,-4,-2,-1,18
1523208610766232,-49,-19,-33,2,1,1,-1,-15
1523208610779310,58,9,-44,-1,-2,-1,0,-14
1523208610779310,0,-2,-8,4,1,-1,-2,-7
1523208610785321,-59,19,1,1,1,3,2,-10
1523208610785321,85,-12,-14,1,-1,-2,-1,-3
1523208610802329,-65,-2,33,0,-2,-1,-10,2
1523208610802329,-7,-13,-7,-4,-3,-2,14,8
1523208610803332,4,5,7,-5,-4,-5,-8,-44
1523208610803332,28,10,-14,3,2,1,-2,-6
1523208610825387,10,17,7,1,-1,0,5,4
1523208610825387,-8,-33,-22,-3,-1,-3,-8,-4
1523208610826396,39,4,59,5,2,3,2,42
1523208610826396,-106,-3,-8,-10,-5,-3,-1,-37
1523208610839664,48,2,7,3,1,1,-1,-22
1523208610839664,42,24,37,3,1,-1,-3,5
1523208610845447,48,-2,-51,1,2,4,5,10
1523208610845447,-25,-17,-73,-3,1,0,-2,9
1523208610862508,-11,12,26,-6,-7,-5,1,12
1523208610862508,-58,1,41,1,1,1,-1,-7
1523208610863490,-46,-5,-5,-3,-4,-3,-1,3
1523208610863490,10,-5,4,3,2,1,1,17
1523208610884547,-41,-29,-39,2,1,-2,-1,-50
1523208610884547,107,9,16,2,0,0,-1,15
1523208610886553,22,-20,12,-7,-4,-2,-8,15
1523208610886553,-7,10,26,0,-3,-3,5,-30
1523208610898584,23,-28,-65,-11,-4,-1,0,59
1523208610898584,-24,11,-2,-5,-2,-4,-7,-51
1523208610905602,24,4,-41,0,2,2,-2,-9
1523208610905602,25,10,54,3,-1,-3,-3,22
1523208610922840,35,6,8,3,3,2,0,4
1523208610922840,-34,-13,-45,-4,-2,0,-1,-18
1523208610923651,67,8,-20,1,1,-2,-2,-6
1523208610923651,1,-1,60,-2,-5,-1,1,7
1523208610944709,-42,-20,9,-4,0,0,-3,-8
1523208610944709,15,-4,34,0,-1,1,2,15
1523208610946712,-82,-15,-24,8,5,3,3,-16
1523208610946712,-14,14,-37,-7,-7,-4,-5,-4
1523208610958965,37,-4,-4,-2,-2,-4,-3,18
1523208610958965,-39,-13,-35,1,-2,0,-5,9
1523208610967768,11,16,-1,9,2,1,2,-6
1523208610967768,-64,-1,68,-5,0,1,-3,-22
1523208610981805,-15,15,-50,-6,-7,-7,0,28
1523208610981805,-108,-48,-6,3,1,-2,-1,-21
1523208610983810,33,12,29,3,-1,0,2,8
1523208610983810,-55,-20,21,-7,-3,0,-3,7
1523208611004907,22,13,78,-1,-4,-5,-2,-5
1523208611004907,16,7,43,1,1,0,0,14
1523208611006917,36,-3,20,-4,-4,-1,0,-8
1523208611006917,42,-4,-27,0,-1,-1,1,24
1523208611018991,-108,-11,75,-1,-4,-2,-4,-49
1523208611018991,31,7,-33,-4,-4,-6,-4,-15
1523208611026927,1,-19,83,0,-1,2,5,-1
1523208611026927,22,13,-76,4,3,0,-5,9
1523208611041965,21,-1,50,7,4,5,5,-9
1523208611041965,-60,-28,-44,-3,-1,0,2,40
1523208611043971,-21,17,-5,-11,-8,-7,-6,13
1523208611043971,28,1,-25,2,2,1,2,-5
1523208611065026,33,2,-4,2,1,2,-1,38
1523208611065026,15,19,65,-2,-2,-3,2,-45
1523208611066029,23,3,35,-5,-4,-2,-1,6
1523208611066029,32,-1,-1,-6,-5,-2,-1,-22
1523208611078073,-11,-2,-20,1,4,1,1,-6
1523208611078073,0,12,-5,2,0,0,-2,11
1523208611087084,18,1,12,-1,0,-1,0,14
1523208611087084,15,-31,48,0,1,0,1,-9
1523208611102123,-70,-4,-65,-6,-1,1,-1,-19
1523208611102123,39,14,23,-1,-2,0,-6,27
1523208611110151,-6,-6,-34,1,-1,-3,10,-8
1523208611110151,-58,13,0,6,7,6,-2,43
1523208611125316,12,-25,17,-7,-4,-4,-1,-21
1523208611125316,-31,-8,-74,-6,-2,-1,-6,-12
1523208611126191,-2,-2,-35,-9,-5,-5,-6,-10
1523208611126191,35,-7,33,6,4,2,1,17
1523208611138221,6,22,-4,4,2,1,4,-12
1523208611138221,-26,-8,-35,4,0,1,2,28
1523208611147244,-36,-7,4,0,3,0,-2,-3
1523208611147244,25,21,-6,-3,-3,-3,-2,24
1523208611162286,-35,5,-40,-8,-6,-7,-7,-9
1523208611162286,23,-8,21,6,3,3,4,3
1523208611164289,5,9,-2,-11,-5,-1,-3,-8
1523208611164289,-47,8,61,9,1,0,-2,-13
1523208611184345,58,6,-41,-8,-5,-6,-1,27
1523208611184345,-32,-2,-13,3,4,2,0,4
1523208611186349,22,-7,4,5,0,-2,-4,-64
1523208611186349,-42,1,32,-3,-3,0,0,-9
1523208611198379,33,3,-14,-12,-9,-4,-4,5
1523208611198379,0,-12,6,4,2,2,1,-13
1523208611207404,-1,-2,-6,7,3,1,1,21
1523208611207404,16,-22,-48,-2,-2,-4,-4,-47
1523208611222680,5,-32,22,13,6,3,1,8
1523208611222680,76,11,-86,-11,-7,-3,1,29
1523208611224479,-40,9,89,4,1,3,0,14
1523208611224479,107,9,-71,-1,-2,-3,-3,6
1523208611244503,-103,7,-3,6,1,1,1,-12
1523208611244503,127,3,-6,-8,-5,-3,2,-8
1523208611246507,-47,-9,-5,4,-2,-3,-3,10
1523208611246507,35,-18,-23,4,2,1,0,5
1523208611258775,-29,0,0,-6,-3,-1,0,-6
1523208611258775,14,3,53,7,7,2,-2,5
1523208611267566,-60,-18,-73,-7,-6,-2,-5,38
1523208611267566,-27,-12,8,-4,-5,-4,7,-7
1523208611282635,15,9,-29,2,0,1,-3,-7
1523208611282635,10,2,49,2,-1,1,5,73
1523208611283607,39,7,26,-7,-7,-5,-4,-10
1523208611283607,45,18,-22,-1,-1,0,-3,8
1523208611304663,-95,-38,57,0,-1,0,-1,-9
1523208611304663,24,26,14,1,0,0,3,5
1523208611306669,15,1,6,2,4,2,3,-16
1523208611306669,-31,3,-14,-7,-5,-2,-4,15
1523208611318938,40,25,4,-2,-1,-3,0,-5
1523208611318938,-46,-20,-1,-6,-5,-4,-6,-33
1523208611327727,24,0,-43,-1,1,-2,-3,2
1523208611327727,-51,-10,44,5,5,2,1,-28
1523208611341762,49,-2,-21,-2,-1,-1,-4,15
1523208611341762,-19,-2,-1,-10,-6,-4,-14,-22
1523208611343774,12,-24,6,4,3,3,15,-5
1523208611343774,33,-1,40,-3,-3,-2,-4,20
1523208611364823,57,11,64,3,1,-1,1,3
1523208611364823,6,16,-15,-3,-3,-4,-2,-1
1523208611365826,-9,-15,-34,2,2,1,-3,-14
1523208611365826,-8,-15,-74,0,1,3,1,9
1523208611377868,-1,-5,75,1,0,2,3,15
1523208611377868,-44,-11,2,1,-2,-1,-4,-18
1523208611386880,-35,21,-14,4,0,1,0,8
1523208611386880,-7,9,17,-9,-4,-4,-3,4
1523208611401920,-8,4,-12,-2,-2,-1,-2,0
1523208611401920,19,-11,-10,-7,-5,-2,0,-11
1523208611403927,-61,17,2,-11,-5,-5,-2,-10
1523208611403927,-57,-2,8,0,3,0,1,14
1523208611425218,79,27,7,0,-2,-1,0,-13
1523208611425218,-46,-2,-3,2,2,0,1,-8
1523208611425986,46,0,12,-2,-3,-4,-7,-10
1523208611425986,8,-12,-60,-14,-7,-4,-4,-10
1523208611447040,-5,7,-11,-1,2,3,3,42
1523208611447040,-16,-40,-9,6,-1,-2,-3,-39
1523208611449047,-66,18,20,-3,-1,-1,-3,-2
1523208611449047,4,-6,-12,4,-3,-3,-1,8
1523208611461082,89,-1,-15,-3,0,1,-2,6
1523208611461082,89,40,1,-8,-7,-5,2,24
1523208611468332,13,-13,-26,-1,0,1,1,-4
1523208611468332,97,11,12,-2,-5,-5,-1,1
1523208611485143,-32,-7,-4,7,1,0,-3,-18
1523208611485143,-26,8,45,4,1,1,0,5
1523208611486146,107,12,-7,-5,-5,-4,-3,-17
1523208611486146,-24,-9,38,0,-1,0,-3,1
1523208611507266,-26,-8,-8,0,-2,-3,-1,0
1523208611507266,-38,-43,-39,1,2,2,1,-2
1523208611509208,38,-3,31,6,3,5,1,-8
1523208611509208,14,-19,-27,-16,-10,-11,-9,9
1523208611522475,26,4,35,0,-1,0,-1,-17
1523208611522475,-8,6,-3,3,0,0,1,-3
1523208611524246,2,-8,-21,0,0,-2,-3,2
1523208611524246,2,20,16,2,2,4,4,-13
1523208611544304,60,-14,-3,-4,-2,-3,-1,9
1523208611544304,-29,8,-22,-4,-3,-2,-3,-2
1523208611546304,-30,-10,-15,-5,-5,-4,-2,36
1523208611546304,-6,6,-51,2,2,1,0,-12
1523208611567362,64,5,3,-1,-1,-3,-11,34
1523208611567362,-32,-6,23,6,4,4,16,-21
1523208611568365,47,0,-33,-11,-2,2,2,10
1523208611568365,-81,-2,-18,-9,-7,-4,2,15
1523208611581399,7,-4,25,8,1,2,-2,-8
1523208611581399,29,-40,-8,6,4,0,0,24
1523208611588652,-81,-2,15,2,-1,-5,-3,-20
1523208611588652,25,-29,55,2,2,3,0,-3
1523208611604459,2,7,-61,-4,-1,3,2,-12
1523208611604459,-83,17,56,-5,-4,-2,-2,-16
1523208611606467,73,6,-11,10,5,2,1,-7
1523208611606467,-15,2,-63,0,1,4,0,1
1523208611627528,-117,-10,-19,-3,-3,-3,2,13
1523208611627528,12,10,7,-1,0,2,0,-12
1523208611628523,-21,9,44,-2,-2,0,-1,12
1523208611628523,61,0,-49,0,-3,-5,-3,-7
1523208611641563,-66,-5,34,6,2,1,7,3
1523208611641563,26,-7,-53,-11,-7,-4,-8,-28
1523208611648577,10,4,51,0,-1,1,-2,-57
1523208611648577,-10,11,65,5,0,0,-4,-2
1523208611664619,53,-13,-70,0,0,-1,-1,-5
1523208611664619,2,9,-23,-4,-2,-1,-8,9
1523208611666625,-2,-13,-74,-10,-6,-7,6,-6
1523208611666625,-46,25,-38,3,1,-1,-2,4
1523208611686679,-4,15,-9,-9,-6,-5,-4,-23
1523208611686679,-47,-14,-79,5,3,-1,2,5
1523208611688682,73,15,75,-9,-7,-5,-7,8
1523208611688682,89,27,26,7,4,1,5,-2
1523208611701718,-44,-12,-32,-5,-6,-6,1,-10
1523208611701718,70,17,38,0,0,0,-3,-8
1523208611708736,-53,-4,-11,5,2,1,15,51
1523208611708736,-73,-42,-54,-4,2,2,-4,-45
1523208611725016,-5,6,46,-5,-2,0,-4,-9
1523208611725016,14,-1,15,-5,-6,-3,5,10
1523208611725786,-3,-17,3,9,4,2,-10,16
1523208611725786,17,6,86,-6,-3,-1,2,59
1523208611746837,-3,-10,-5,4,1,-1,-7,-12
1523208611746837,-64,0,-21,-2,-3,-6,-5,-4
1523208611748843,32,-8,-50,-2,0,-3,-2,-6
1523208611748843,33,-2,-35,-3,-1,1,3,18
1523208611761918,-32,27,-5,-2,0,-1,0,-17
1523208611761918,73,7,31,0,-1,-4,-6,11
1523208611768940,-105,1,51,1,1,2,-2,-4
1523208611768940,54,-3,10,-1,-2,0,2,-14
1523208611784940,25,9,30,-3,-2,-5,-2,-3
1523208611784940,4,-7,35,1,-1,1,-1,-8
1523208611785942,20,-11,-30,-2,-1,-1,0,14
1523208611785942,46,8,0,-3,-2,2,-4,-24
1523208611807232,12,-11,-18,7,3,0,2,-1
1523208611807232,-2,17,10,-6,-4,0,1,17
1523208611809009,-21,-20,26,1,-1,1,-4,-13
1523208611809009,-26,4,5,-5,-4,-7,-4,27
1523208611821034,-117,-24,-60,-6,-1,2,1,12
1523208611821034,82,10,4,6,4,2,-6,-50
1523208611828054,-57,-8,14,2,3,2,4,-6
1523208611828054,-71,-15,-6,-10,-7,-7,-6,-12
1523208611845101,101,9,26,4,3,3,4,8
1523208611845101,-33,1,43,5,4,3,-3,4
1523208611846101,-38,-9,-14,-5,-3,0,-4,-3
1523208611846101,17,4,7,9,7,4,3,-7
1523208611867159,-19,-11,-8,-1,-2,-1,1,-12
1523208611867159,42,-6,-24,-13,-7,-3,-1,8
1523208611869163,33,7,-4,-3,-3,-4,-15,7
1523208611869163,-55,7,17,-2,-2,-3,15,-9
1523208611881195,51,-17,23,5,0,-1,-3,-11
1523208611881195,-17,-19,-107,-5,1,2,1,12
1523208611888213,98,47,34,-2,-5,-1,2,31
1523208611888213,-84,-8,29,0,-2,-6,-14,-26
1523208611904256,-28,2,-93,-7,-5,-6,-1,20
1523208611904256,-29,0,89,2,-2,-2,3,4
1523208611906261,12,-28,-18,-1,-2,-1,2,4
1523208611906261,-3,8,45,4,1,0,-1,-12
1523208611927321,54,10,-1,1,2,2,2,64
1523208611927321,-57,4,11,-1,-2,-2,-2,-10
1523208611928320,-4,4,-46,-5,-1,-1,1,-16
1523208611928320,23,15,96,-7,-6,-3,-2,2
1523208611940354,-76,-13,-15,1,-1,-2,-3,-14
1523208611940354,48,-6,-19,8,3,4,2,9
1523208611949376,-29,-5,-6,-10,-7,-8,-4,-6
1523208611949376,-20,-7,-19,1,-2,-3,-2,-9
1523208611965419,-1,-17,28,-4,0,1,-1,-13
1523208611965419,-123,-11,-23,-5,-4,-5,-4,-15
1523208611966421,-7,10,48,10,7,5,1,-22
1523208611966421,26,-26,-89,-4,-4,-3,-3,7
1523208611987477,26,14,-10,-6,-2,-5,2,-3
1523208611987477,-13,-9,-39,3,4,-1,-1,-26
1523208611989482,-29,3,-31,-16,-10,-9,-3,4
1523208611989482,46,-31,-15,-3,1,2,0,-2
1523208612000512,-24,14,-10,6,2,0,1,17
1523208612000512,61,7,38,8,4,2,0,11
1523208612009546,-78,-14,-16,-10,-5,-4,-4,-10
1523208612009546,27,-4,-18,2,0,0,-4,-8
1523208612024811,-16,13,12,-3,-3,-2,2,-18
1523208612024811,-19,18,3,10,2,3,3,20
1523208612026586,-17,15,32,2,-2,-1,-1,-10
1523208612026586,-65,-24,-21,0,-1,1,2,14
1523208612047637,4,9,29,-1,-1,0,-1,4
1523208612047637,-20,21,31,-11,-7,-5,-4,-32
1523208612049643,53,-2,-29,12,6,5,2,-4
1523208612049643,10,3,14,7,3,1,1,-6
1523208612060672,-27,14,49,-13,-6,-3,-4,-4
1523208612060672,19,2,-42,2,3,1,-1,8
1523208612069713,30,-30,-52,-5,-1,3,2,-8
1523208612069713,62,2,48,3,4,2,-1,25
1523208612084735,-67,-18,-1,4,1,-2,-4,-23
1523208612084735,45,-21,22,-1,-1,-1,1,13
1523208612086741,-6,27,35,-1,0,-2,2,3
1523208612086741,52,-7,73,3,-1,0,0,26
1523208612107843,25,8,-25,-4,0,-1,-1,-16
1523208612107843,-17,-33,19,-10,-4,-5,-2,14
1523208612108800,1,11,-31,15,6,2,3,15
1523208612108800,-56,-30,-37,-12,-6,-5,-3,-56
1523208612121068,22,0,75,2,1,1,-1,-11
1523208612121068,83,-9,-54,1,0,-2,1,37
1523208612129854,-31,-23,-32,-2,-2,1,4,35
1523208612129854,-8,16,45,-9,-6,-6,-3,7
1523208612144941,-18,3,44,0,-2,-3,0,-6
1523208612144941,-63,-10,-38,-5,-3,-2,2,8
1523208612145898,69,-4,5,4,3,3,1,25
1523208612145898,-19,33,22,-1,-4,-3,-6,-25
1523208612166956,-54,-4,-43,1,0,0,-1,2
1523208612166956,-23,-17,63,3,-1,0,-1,-8
1523208612168960,10,-1,-12,-3,-2,-2,-4,6
1523208612168960,15,13,15,3,0,1,-1,7
1523208612181031,100,12,-43,-4,-3,-1,-1,-11
1523208612181031,-86,4,6,4,2,1,0,-17
1523208612190015,-25,-6,-23,-8,-4,-4,-7,-24
1523208612190015,23,22,19,10,5,4,2,12
1523208612205055,-43,-9,-50,-9,-2,0,-1,17
1523208612205055,18,16,-25,-9,-6,-8,-3,12
1523208612206058,-12,2,49,5,3,0,1,-7
1523208612206058,-9,12,-74,7,4,2,2,-3
1523208612227117,49,-7,27,-2,-4,-4,-5,22
1523208612227117,-41,21,-16,-2,0,3,-1,-17
1523208612229120,-23,-39,-62,-5,-2,-6,-5,-10
1523208612229120,82,26,43,-1,-2,-1,-2,20
1523208612241152,13,-8,-20,0,-2,-3,0,-5
1523208612241152,49,-1,1,0,-1,-1,-1,-16
1523208612250175,40,-6,-8,-8,-5,-5,-3,-2
1523208612250175,-83,-33,-9,2,1,1,-1,-19
1523208612265339,20,13,39,-9,-1,-2,-3,-11
1523208612265339,57,13,-21,-3,-3,1,-1,11
1523208612266217,-37,6,0,2,1,1,1,13
1523208612266217,-17,-3,-11,-3,-2,-1,0,-15
1523208612287312,-11,-22,14,1,-1,-5,-8,2
1523208612287312,-95,-6,1,0,0,1,-1,4
1523208612289436,-4,-4,59,-4,-5,-3,3,-80
1523208612289436,-21,9,-30,-4,1,2,2,-4
1523208612301311,31,10,32,9,4,4,0,-19
1523208612301311,24,1,-19,-6,-2,-1,-1,9
1523208612310338,-74,-28,-41,-3,-4,-3,-2,31
1523208612310338,39,9,-3,1,1,-2,-6,-22
1523208612324610,12,-7,6,-2,-1,1,1,-9
1523208612324610,-51,-16,19,-1,0,0,0,-2
1523208612326384,-12,7,-16,4,0,2,0,5
1523208612326384,63,-1,-47,-12,-6,-6,-3,6
1523208612347433,-25,-3,-48,-1,0,-1,3,15
1523208612347433,23,7,13,-3,-3,-2,-1,-22
1523208612348437,8,-3,50,1,1,1,-3,-1
1523208612348437,-25,-7,-10,5,1,1,3,34
1523208612369727,-8,5,43,2,2,0,1,-11
1523208612369727,12,-6,15,-3,-3,-4,-2,4
1523208612371497,-41,18,-26,-3,-3,-2,2,0
1523208612371497,-5,1,44,-1,-3,-2,-1,35
1523208612384532,-82,-23,-36,1,0,1,1,24
1523208612384532,-2,-8,-14,-7,-4,-3,-5,-9
1523208612386537,22,-2,36,3,-1,-1,0,5
1523208612386537,-103,-15,-44,7,4,2,2,-29
1523208612407807,33,9,14,-10,-4,-4,-13,13
1523208612407807,15,-3,-13,8,5,1,12,20
1523208612408600,41,11,50,-3,-3,-2,-3,-1
1523208612408600,22,11,35,6,1,-2,-4,-22
1523208612429653,-7,1,-29,-7,-6,0,0,-9
1523208612429653,25,13,18,3,-1,-1,-4,-12
1523208612431658,-5,-18,-62,-1,2,2,-2,-18
1523208612431658,38,-2,26,1,1,0,2,56
1523208612444738,-65,2,13,1,1,0,1,-29
1523208612444738,6,-7,-8,2,0,0,-2,2
1523208612446703,49,23,-5,-7,-4,-6,-3,3
1523208612446703,-4,-11,-54,-4,-1,-1,0,-4
1523208612467792,-17,-2,-24,1,-2,-1,1,6
1523208612467792,12,17,55,-1,-2,0,-3,-7
1523208612468755,-25,-36,-33,2,1,0,-2,32
1523208612468755,1,-4,-67,-8,-3,-3,-2,-16
1523208612496831,107,-2,60,1,-2,-3,0,-4
1523208612496831,2,16,44,1,-1,-2,-8,-7
1523208612498835,21,9,24,5,1,3,9,26
1523208612498835,-30,-2,-79,-9,-5,-4,-2,-21
1523208612503849,-24,-17,7,9,4,3,3,-2
1523208612503849,19,15,17,-14,-7,-4,-5,12
1523208612510872,89,-6,-27,0,0,0,-3,2
1523208612510872,-62,1,79,6,0,0,-2,-55
1523208612526917,33,11,8,-2,0,0,-3,-7
1523208612526917,-68,-30,-68,-4,-3,0,-2,-7
1523208612528917,-11,4,-10,-6,-2,-3,-2,-11
1523208612528917,19,28,25,9,4,2,2,10
1523208612549974,4,-14,-33,-14,-8,-3,0,0
1523208612549974,-26,-6,10,-4,-4,-7,-5,-4
1523208612550977,-51,34,48,-6,-3,-4,-3,2
1523208612550977,-71,-3,83,3,0,0,-1,8
1523208612564009,95,6,-92,-8,-4,-3,-5,-49
1523208612564009,-59,-5,-16,2,0,-1,3,3
1523208612571262,34,36,2,3,0,0,-3,-10
1523208612571262,58,-16,7,-5,-4,-5,-3,-11
1523208612587073,-17,22,28,6,0,-2,0,64
1523208612587073,65,22,9,9,3,1,-1,-58
1523208612589074,47,-28,-57,-10,-8,-7,-5,-1
1523208612589074,-74,-1,-5,-9,-6,-5,-2,10
1523208612610139,39,2,47,5,3,3,1,14
1523208612610139,15,-40,10,1,1,2,3,15
1523208612611134,-58,-22,47,7,0,1,-1,-11
1523208612611134,47,15,-18,-3,-3,-2,1,31
1523208612624404,-16,-14,-32,-8,-5,-5,-1,-10
1523208612624404,-117,-23,50,-4,-1,-1,-4,-10
1523208612631188,54,25,-33,5,2,2,-1,-12
1523208612631188,-11,-9,28,-12,-5,-5,-4,-4
1523208612647229,-104,-17,-14,1,-4,-3,0,-10
1523208612647229,54,10,-38,0,2,3,5,12
1523208612649235,7,31,36,-2,-2,-2,-1,-2
1523208612649235,6,-28,-47,-3,2,2,-2,-4
1523208612670329,-3,8,20,9,3,1,2,5
1523208612670329,60,-7,-60,1,3,6,7,84
1523208612671294,-42,-15,26,0,-1,-1,-3,-10
1523208612671294,53,20,-9,3,0,2,3,-6
1523208612684328,-35,8,-16,-7,-3,-2,0,17
1523208612684328,120,15,26,6,-1,-4,-4,6
1523208612690345,5,-5,-7,-7,-3,-1,1,-3
1523208612690345,-1,2,7,0,-2,0,1,-2
1523208612707624,-68,-32,-67,0,1,0,-1,3
1523208612707624,-50,24,25,2,-2,-3,0,-4
1523208612708396,10,-8,-61,-10,-1,-2,-3,-14
1523208612708396,29,-13,14,-6,-4,-3,0,13
1523208612729449,-45,11,72,6,2,1,-1,-16
1523208612729449,-16,-5,-31,-17,-9,-8,-5,-12
1523208612731454,-15,7,-13,9,4,3,2,20
1523208612731454,-75,4,-2,-13,-8,-6,-5,-7
1523208612744491,31,-4,-12,-4,-2,-3,-1,-8
1523208612744491,-72,18,10,2,0,4,3,-31
1523208612750505,-9,-17,21,5,4,4,-2,-10
1523208612750505,78,2,-76,0,2,2,-2,17
1523208612767551,10,46,92,2,0,0,1,-3
1523208612767551,22,-34,-84,-1,2,-2,-11,29
1523208612768592,-44,16,85,-6,-5,-6,5,-36
1523208612768592,-35,-4,18,6,4,3,-3,0
1523208612789843,31,-3,-16,-2,-2,-1,-1,-15
1523208612789843,45,-3,19,-5,-4,-2,1,22
1523208612791618,-36,8,10,1,1,-1,-1,-7
1523208612791618,58,-10,-1,0,1,1,1,0
1523208612803646,-105,-18,-11,-9,-7,-5,0,29
1523208612803646,81,4,58,3,0,0,0,-3
1523208612810664,43,-13,-19,3,1,1,0,21
1523208612810664,27,30,-16,8,3,2,3,-21
1523208612826716,26,-8,-3,-2,-1,-1,-3,0
1523208612826716,-51,-33,-10,4,6,3,3,-12
1523208612828712,35,-31,-10,-2,0,-1,-4,-13
1523208612828712,68,13,1,3,0,1,-1,42
1523208612849768,27,-6,39,1,-1,0,-1,-26
1523208612849768,-20,-2,2,-6,-5,-6,-4,-13
1523208612850810,13,0,-8,-2,-2,-4,-2,17
1523208612850810,-15,-29,-30,-1,-1,-3,-2,-13
1523208612862802,9,11,-43,-1,0,-1,-3,-15
1523208612862802,-40,-9,33,-9,-5,-1,-4,19
1523208612872062,24,2,-62,2,0,2,6,-5
1523208612872062,-31,-8,53,-6,-6,-6,-5,-7
1523208612886867,17,1,-77,2,3,3,2,-5
1523208612886867,-16,13,-39,-5,-5,-2,1,49
1523208612888872,-83,18,27,6,1,0,-6,-39
1523208612888872,40,-4,-61,-8,-4,-3,-3,-19
1523208612909932,44,0,-12,8,2,-1,3,38
1523208612909932,50,6,-47,4,-1,-4,-3,-45
1523208612910930,-39,-18,-20,-3,-1,0,-4,-1
1523208612910930,-53,-2,20,-8,-6,-5,-1,-9
1523208612924006,-3,5,14,-1,-1,-1,-2,-4
1523208612924006,22,-12,-9,7,3,3,3,-12
1523208612931986,21,-14,24,-10,-9,-6,-7,2
1523208612931986,-61,0,59,7,4,2,-4,2
1523208612947025,-51,-24,-28,7,1,1,0,-28
1523208612947025,45,17,37,-17,-8,-7,-4,3
1523208612949032,31,-1,22,1,-2,-1,3,-1
1523208612949032,1,8,35,3,-1,-1,-1,-14
1523208612970309,118,-13,-9,-1,-1,-3,-2,7
1523208612970309,-36,17,47,10,5,5,0,10
1523208612971091,-22,2,-30,-2,0,0,-2,-8
1523208612971091,28,19,30,1,3,4,3,20
1523208612983123,7,-10,13,2,1,2,-1,-7
1523208612983123,-30,-12,-11,1,2,2,1,-10
1523208612992146,46,2,-11,-4,-3,-2,-2,11
1523208612992146,40,10,8,5,4,3,2,-6
1523208613007187,12,-4,-17,-11,-3,0,-1,-2
1523208613007187,12,-7,76,-1,-4,-5,-1,-19
1523208613009198,-18,6,-1,5,3,5,1,0
1523208613009198,40,20,10,1,2,0,-9,-6
1523208613029245,-10,6,-56,-4,-1,-1,10,0
1523208613029245,84,-2,27,-7,-6,-7,-6,-21
1523208613031250,30,-4,2,10,4,2,2,19
1523208613031250,-117,-15,-16,1,-1,-1,-1,-40
1523208613052306,56,6,36,-6,-4,-5,-7,-3
1523208613052306,-27,10,-18,-5,-3,-2,1,-6
1523208613053310,-61,0,-33,1,0,-1,1,7
1523208613053310,-10,-17,-15,-11,-6,-4,-1,21
1523208613067345,56,2,66,1,-3,-1,-3,2
1523208613067345,-71,-14,-52,5,3,1,-1,-12
1523208613068585,-23,31,111,-3,-1,-1,-2,1
1523208613068585,24,5,-55,1,-1,-1,5,25
1523208613089640,-103,-20,11,3,0,-4,-6,-20
1523208613089640,66,5,-11,-5,-1,1,-1,-2
1523208613091415,7,18,40,-5,-4,-3,-2,7
1523208613091415,3,-18,-47,0,-1,-3,-1,9
1523208613103443,34,8,21,4,3,3,2,-1
1523208613103443,50,6,1,1,0,1,-3,-20
1523208613112465,20,-4,-23,-4,0,-2,-5,-1
1523208613112465,12,-2,101,-4,-5,-2,5,-8
1523208613127506,-97,12,-28,-10,-7,-6,-4,0
1523208613127506,-51,-20,-26,3,2,0,1,-16
1523208613128510,65,-15,11,1,1,-1,0,7
1523208613128510,2,-27,-13,-4,-3,-3,-2,1
1523208613149565,42,1,-3,-10,-4,0,-1,-5
1523208613149565,-128,-23,-31,3,2,-3,-4,2
1523208613151570,76,8,6,-5,-7,-3,-1,23
1523208613151570,-13,1,-13,4,0,-2,0,-5
1523208613163838,-4,2,82,4,2,3,2,4
1523208613163838,-1,1,-79,-3,-4,-3,2,8
1523208613172625,56,7,22,-1,1,0,2,30
1523208613172625,-12,9,-12,-2,-4,-2,-2,-9
1523208613187784,-6,18,-17,8,4,4,-1,20
1523208613187784,1,-11,12,5,1,1,0,-3
1523208613188668,-36,-3,4,-5,-1,-2,-7,6
1523208613188668,100,25,-10,-2,0,2,9,22
1523208613209736,40,18,-5,-2,-4,-5,-5,-6
1523208613209736,-23,-9,-49,7,7,7,6,42
1523208613211730,-27,3,-30,-3,-3,-2,-4,-54
1523208613211730,-26,-11,-50,-4,-1,0,-3,-5
1523208613231784,-40,-11,42,2,1,0,-1,-2
1523208613231784,46,-6,-65,-9,-6,-4,-3,-4
1523208613233789,-35,-2,32,4,0,1,1,6
1523208613233789,-80,-5,15,7,2,1,-1,-3
1523208613246823,46,-6,34,0,0,1,1,-18
1523208613246823,71,10,17,-9,-6,-3,0,14
1523208613248828,-60,-17,-10,1,3,0,0,-24
1523208613248828,-15,-11,-30,1,0,0,-2,-6
1523208613270120,-80,-34,0,3,0,-1,-3,11
1523208613270120,-5,15,50,-7,-5,-3,-2,-10
1523208613271957,46,3,-19,-5,-6,-5,-2,3
1523208613271957,-38,20,-30,3,2,1,2,-7
1523208613291945,-19,-11,39,-4,-2,-1,-2,4
1523208613291945,0,18,82,3,2,1,-2,-17
1523208613293948,47,-3,-53,-4,-4,-3,3,21
1523208613293948,18,-12,-10,-3,-3,-4,-6,-16
1523208613306983,-94,4,-39,-3,-1,-1,1,7
1523208613306983,59,15,24,7,-1,-4,-3,6
1523208613308992,-13,2,44,-3,0,-1,-1,-25
1523208613308992,110,0,-40,-2,0,2,0,30
1523208613330045,-66,-29,4,-1,-4,-5,-7,-59
1523208613330045,16,13,41,2,2,1,1,-9
1523208613331047,-27,-8,9,11,4,4,2,17
1523208613331047,-20,0,32,-16,-8,-6,-4,-18
1523208613352103,-1,4,-5,4,2,3,3,18
1523208613352103,11,11,30,0,0,0,0,-2
1523208613354110,-15,-21,-16,-5,-3,-1,-2,-12
1523208613354110,20,7,2,1,2,1,0,6
1523208613367142,19,1,-40,4,1,2,2,-3
1523208613367142,-14,-15,32,-9,-6,-6,-8,-39
1523208613369147,-2,20,-6,1,0,-1,1,30
1523208613369147,73,-25,-13,0,-1,-1,-2,-4
1523208613390308,67,-5,-86,-13,-8,-10,-7,27
1523208613390308,-14,-16,-18,5,4,2,0,4
1523208613391212,-68,-12,-11,8,8,5,2,-10
1523208613391212,-51,-3,33,-11,-8,-5,-14,-2
1523208613412263,71,10,29,-1,-1,0,9,0
1523208613412263,-37,4,8,1,-2,0,0,15
1523208613414408,11,-16,49,-1,-5,-8,-2,-35
1523208613414408,-58,-7,24,5,7,6,2,11
1523208613427302,-8,-3,-27,0,3,2,-8,-1
1523208613427302,-55,-26,-11,-4,-3,-3,4,-4
1523208613428304,30,1,-34,-5,-4,-3,-4,39
1523208613428304,-57,-4,39,7,-1,-2,3,-11
1523208613449361,18,3,-13,-11,-4,-2,-3,-9
1523208613449361,8,20,-24,0,1,1,0,-10
1523208613451369,17,-1,-34,-2,-1,0,-1,13
1523208613451369,-3,-2,18,-7,-5,-1,2,-1
1523208613472658,-37,12,-40,3,0,1,0,-5
1523208613472658,61,10,-11,2,1,0,-3,-26
1523208613473425,21,39,-27,-12,-7,-2,0,-8
1523208613473425,-55,1,30,-1,-1,-1,-1,1
1523208613486499,4,13,-3,2,3,2,1,-2
1523208613486499,61,-15,-21,-1,-1,0,-3,17
1523208613493481,-56,-7,-4,1,1,-2,-5,-9
1523208613493481,10,-4,64,-2,-2,-1,1,-12
1523208613509528,-30,-7,-57,-8,-6,-3,-4,24
1523208613509528,-41,-4,6,-1,-3,-2,-1,-32
1523208613511527,30,12,9,7,4,4,3,28
1523208613511527,-37,16,-14,-2,1,0,3,0
1523208613532584,10,4,65,0,-4,-7,-3,-4
1523208613532584,-44,-20,-69,-8,-3,-2,1,5
1523208613533586,79,16,58,-1,-1,-2,-2,-15
1523208613533586,-60,-6,-46,2,3,1,-6,-7
1523208613546624,-33,-23,79,1,-1,-1,11,33
1523208613546624,-61,22,16,0,1,-1,-2,-7
1523208613553639,65,-10,-54,13,4,4,2,-1
1523208613553639,-18,-11,-28,-7,-5,0,0,-3
1523208613569916,9,-16,36,5,2,1,-1,3
1523208613569916,-64,-15,-58,-9,-4,-2,-1,6
1523208613571685,-28,20,-25,-4,-1,-1,0,-9
1523208613571685,120,16,83,12,4,3,-3,28
1523208613591744,-60,-12,-117,-15,-8,-6,-2,-49
1523208613591744,48,20,44,-2,-4,-5,-2,5
1523208613593746,-100,-30,-13,-4,-2,0,-1,-34
1523208613593746,113,11,-20,0,-1,-4,-2,3
1523208613606779,21,15,34,5,2,2,0,16
1523208613606779,-56,-20,21,-4,-4,1,-4,7
1523208613613905,-42,-11,-30,-4,0,-1,0,-5
1523208613613905,35,7,46,-5,-2,-2,-2,7
1523208613629881,2,5,11,2,-1,0,2,-17
1523208613629881,9,15,24,7,2,-2,0,7
1523208613630845,61,5,23,-3,-2,0,1,5
1523208613630845,45,-30,-34,2,0,0,1,1
1523208613651900,31,3,-13,-1,0,1,-4,-15
1523208613651900,28,8,36,2,3,2,3,46
1523208613653904,15,-24,16,-9,-4,-3,-5,8
1523208613653904,-103,-13,-75,-3,-2,-5,-1,-44
1523208613666939,77,16,35,4,1,-1,-4,-1
1523208613666939,16,-16,27,0,0,0,1,3
1523208613672957,-22,-6,-5,-1,1,1,-3,-13
1523208613672957,-22,8,60,2,-1,0,0,12
1523208613690236,53,7,9,-10,-7,-3,0,18
1523208613690236,-125,-15,-57,1,-1,-1,-4,-34
1523208613691006,99,7,57,4,-2,-3,0,55
1523208613691006,-68,-3,-9,-8,-6,-3,-4,-12
1523208613712058,35,2,-10,3,2,-1,-3,0
1523208613712058,63,-3,-41,-1,2,2,1,1
1523208613714065,-49,1,-19,-2,-3,-1,1,-14
1523208613714065,-8,-16,-27,0,-1,0,1,18
1523208613726101,-67,8,0,4,2,2,3,-12
1523208613726101,80,14,12,0,1,0,-4,-46
1523208613733116,-27,13,-18,-4,-1,1,6,12
1523208613733116,-81,-10,-12,-7,-4,-5,-4,21
1523208613750309,-27,-4,-53,-4,-4,-3,-5,-33
1523208613750309,59,0,-47,-1,0,-2,0,13
1523208613751163,-58,-17,-41,-5,-3,1,-6,-12
1523208613751163,69,27,41,1,1,-1,0,-3
1523208613772455,-9,-11,39,-6,-3,-3,1,14
1523208613772455,-84,-17,34,5,1,-1,-3,-4
1523208613774252,98,-5,44,0,-2,-7,-4,24
1523208613774252,42,14,-62,-5,-2,-1,1,-4
1523208613786257,10,-1,44,3,2,2,-2,9
1523208613786257,23,-8,17,-3,-2,-1,2,19
1523208613795280,-53,-9,11,1,1,2,2,-11
1523208613795280,64,-1,53,-1,-2,-3,1,19
1523208613809319,-16,9,55,-1,-1,-4,-5,-40
1523208613809319,14,8,28,7,5,3,0,15
1523208613811324,-111,13,-33,-8,-4,-2,-2,-47
1523208613811324,44,-4,-39,2,0,1,-4,9
1523208613832382,3,-17,-17,5,3,1,-1,25
1523208613832382,44,11,8,-6,-3,0,-5,1
1523208613833381,0,-11,-46,-13,-10,-8,-1,-52
1523208613833381,33,3,31,1,0,-2,1,-15
1523208613845413,-49,-3,-36,1,1,-1,-1,-4
1523208613845413,-6,26,55,1,-1,0,-1,10
1523208613854472,26,-23,-34,3,1,0,-3,19
1523208613854472,73,0,7,-4,-3,-1,-1,-31
1523208613869713,-72,18,-44,4,1,0,1,25
1523208613869713,80,-4,-29,-2,1,0,3,2
1523208613871483,-22,-10,-10,6,3,3,2,0
1523208613871483,-9,-5,18,8,4,4,4,-11
1523208613892543,26,-10,2,-2,-2,-2,-3,8
1523208613892543,-13,4,-15,-3,-3,0,1,7
1523208613893544,-84,7,-9,-13,-6,-4,-4,-34
1523208613893544,18,-2,-19,-1,0,1,-2,23
1523208613905572,81,16,31,1,-1,0,-1,-12
1523208613905572,-90,0,-8,3,0,0,0,17
1523208613914637,127,7,23,13,7,2,-4,-39
1523208613914637,-128,8,-33,-16,-9,-5,-1,15
1523208613929644,-9,-20,8,-11,-3,-1,-3,-19
1523208613929644,-26,-6,-49,-2,0,-2,1,-11
1523208613931645,38,25,102,5,0,2,-1,28
1523208613931645,12,-17,-67,0,-2,-3,-2,-3
1523208613951695,-14,-6,-53,2,1,2,0,-16
1523208613951695,7,5,43,-4,-4,-2,-1,-7
1523208613953701,-61,-14,12,-1,1,3,2,20
1523208613953701,-79,-15,8,2,2,-1,1,-36
1523208613965735,62,-14,4,-6,1,-1,-3,-13
1523208613965735,-30,-5,14,4,2,-1,1,0
1523208613974759,52,21,-48,6,4,2,2,-2
1523208613974759,32,30,-14,-6,-9,-10,-6,10
1523208613990033,58,14,10,8,3,3,2,17
1523208613990033,-64,-24,-62,-4,-2,-1,-3,-24
1523208613990801,12,4,40,-5,-2,0,2,16
1523208613990801,-5,0,-26,2,1,1,-2,-61
1523208614011856,1,-2,1,-6,-6,-4,0,18
1523208614011856,67,11,41,3,-2,-2,0,7
1523208614013861,25,6,-35,-5,-3,-5,-4,16
1523208614013861,18,-17,5,1,0,-1,-2,-22
1523208614025897,-95,-22,-30,-3,-2,-3,-2,14
1523208614025897,56,-13,-24,-5,-5,-2,-1,10
1523208614034918,19,-1,-3,-1,-3,0,-1,14
1523208614034918,-17,9,-7,2,1,1,-3,0
1523208614050196,14,1,39,7,2,0,3,-5
1523208614050196,-42,14,10,-8,-5,-7,-3,2
1523208614051975,-35,-34,-30,-1,0,-1,2,42
1523208614051975,61,15,62,6,2,3,3,14
1523208614072251,73,5,5,-14,-8,-5,-5,33
1523208614072251,-93,-10,0,-2,-2,0,1,0
1523208614074026,-21,-6,19,4,2,1,1,4
1523208614074026,24,10,-23,-4,-4,-2,-2,-5
1523208614086053,5,-10,0,-4,-2,-2,0,-36
1523208614086053,4,0,-25,2,-1,-3,-5,5
1523208614095077,-4,7,26,-2,-2,0,1,-1
1523208614095077,-105,-16,-27,1,3,3,2,-7
1523208614110117,4,29,-6,-3,-4,-4,-2,13
1523208614110117,-17,-12,53,-5,-4,-3,-3,-1
1523208614111120,40,-9,-8,-11,-7,-4,-3,-21
1523208614111120,-30,4,-8,4,3,2,2,14
1523208614132175,-3,-22,15,2,0,1,0,20
1523208614132175,52,-14,34,4,1,3,5,37
1523208614134182,-69,13,-17,-2,-3,-5,-3,-19
1523208614134182,10,-9,25,2,2,1,2,12
1523208614146213,3,-9,-14,-7,-1,1,-1,-3
1523208614146213,41,16,-46,-3,-4,-5,-4,14
1523208614155237,19,-14,55,-1,-1,-2,-2,-4
1523208614155237,30,6,13,-2,-2,-3,1,1
1523208614170316,-57,12,12,10,4,2,-1,-45
1523208614170316,2,1,-9,-4,-5,-6,-3,4
1523208614171281,42,-2,3,-7,-1,0,-1,-14
1523208614171281,-36,0,32,-12,-5,-4,0,34
1523208614192337,-6,9,11,6,2,1,-2,0
1523208614192337,57,-12,5,3,2,3,1,-27
1523208614193340,-86,4,11,1,-1,-2,-1,38
1523208614193340,-26,-35,3,1,-1,-1,-1,20
1523208614205371,2,-16,-30,-3,-2,2,1,-1
1523208614205371,2,-25,-64,1,1,-1,-2,-12
1523208614214634,-20,5,-37,-9,-1,-2,-12,2
1523208614214634,26,4,19,1,0,0,10,-4
1523208614229434,-42,11,72,2,-2,-3,-5,-36
1523208614229434,36,10,-12,5,1,-2,-1,-12
1523208614231440,52,7,68,-13,-8,-5,-4,-5
1523208614231440,15,-12,-39,4,3,5,1,1
1523208614252498,28,12,-1,0,-1,-2,-7,-39
1523208614252498,13,9,16,5,2,2,-5,3
1523208614253499,97,-1,17,7,2,0,8,-31
1523208614253499,19,-19,-55,-7,-4,-4,-4,0
1523208614274562,6,12,18,1,-1,-4,-1,-1
1523208614274562,-43,-35,-61,-8,-2,-2,-3,-16
1523208614276559,-1,-3,-49,3,3,-1,0,-6
1523208614276559,16,21,-11,1,0,-3,-3,-18
1523208614288827,66,-13,24,-1,-1,3,4,41
1523208614288827,-65,15,-3,-9,-7,-7,-3,-56
1523208614297616,-2,-9,9,11,5,5,2,-2
1523208614297616,-50,7,45,-2,0,0,-4,2
1523208614312730,43,21,-63,-4,-5,-4,-3,20
1523208614312730,-16,9,70,0,2,3,3,19
1523208614313658,-96,-15,-49,-7,-6,-6,-1,24
1523208614313658,90,14,10,5,0,0,-13,-25
1523208614334716,-50,5,7,-1,-1,0,13,12
1523208614334716,-96,-4,40,-4,-4,-1,-2,-11
1523208614336720,-21,4,-36,-1,0,-1,0,18
1523208614336720,-27,-7,-3,-3,-3,-6,-8,-58
1523208614349988,64,-25,-6,2,2,2,0,22
1523208614349988,-34,9,-44,-10,-5,-3,0,31
1523208614351836,-75,4,26,0,-1,-1,-3,-71
1523208614351836,-59,-14,17,-3,-5,-1,0,25
1523208614372854,-14,-7,26,-9,-4,-3,-2,4
1523208614372854,27,7,-26,7,5,3,4,-10
1523208614373822,58,4,-29,-1,-2,-4,-4,39
1523208614373822,-88,1,4,2,1,0,3,-6
1523208614401893,-5,-2,-39,-6,1,-1,-6,-10
1523208614401893,59,1,14,1,0,0,-2,12
1523208614403897,-13,7,19,6,0,0,3,-4
1523208614403897,-14,-2,-33,-1,1,1,3,50
1523208614408914,69,11,8,-4,-5,-3,-7,-23
1523208614408914,-8,-8,60,-7,-2,-2,-2,-11
1523208614416165,14,-8,-68,-6,-5,-2,0,-2
1523208614416165,21,6,18,7,4,2,2,5
1523208614439994,-45,7,43,-10,-4,0,0,18
1523208614439994,31,-2,-18,5,1,-1,-1,4
1523208614440999,3,6,-4,0,-1,-3,-3,-15
1523208614440999,16,-1,73,-2,-1,-1,-15,0
1523208614455034,14,-29,-29,8,6,6,18,8
1523208614455034,-68,9,24,-2,-3,-4,-5,1
1523208614456036,24,13,-6,-4,-3,-3,0,25
1523208614456036,52,-5,-55,-4,-4,-4,-3,-67
1523208614469306,14,-18,-8,5,2,1,-2,27
1523208614469306,6,2,25,3,1,0,-2,2
1523208614476090,-7,-16,7,-5,-2,-1,-1,-8
1523208614476090,-22,22,44,-8,-5,-2,3,41
1523208614492173,-102,-9,-49,3,2,-1,-5,-64
1523208614492173,-59,4,11,5,1,-1,1,25
1523208614494183,83,-15,-31,-7,-6,-5,-9,-63
1523208614494183,25,14,48,2,3,3,4,1
1523208614515305,-55,-22,-77,-9,-4,-4,-5,11
1523208614515305,-10,11,44,7,4,3,2,-22
1523208614516196,-39,3,24,-2,-3,-2,-2,-6
1523208614516196,-7,-3,-15,6,3,3,2,10
1523208614529231,5,15,0,-5,-4,-6,-8,-59
1523208614529231,120,-3,47,7,1,0,2,32
1523208614536250,-39,9,-23,-11,-3,-2,2,17
1523208614536250,28,7,-31,-2,0,-2,1,29
1523208614552527,-7,0,11,-1,-2,1,0,20
1523208614552527,4,-5,-58,1,0,0,-1,-22
1523208614554401,40,8,82,6,2,1,-4,-7
1523208614554401,0,-10,-105,-9,-6,-5,1,11
1523208614574356,17,-16,-15,-1,2,-1,-1,27
1523208614574356,-25,-13,-17,-6,-3,-4,-3,-54
1523208614576356,-16,-3,-6,4,4,2,3,7
1523208614576356,-8,-24,-50,-12,-6,-6,-2,-13
1523208614589641,81,25,50,1,0,-2,0,9
1523208614589641,12,0,-22,-2,0,2,-1,-3
1523208614595447,-84,-3,-18,-9,-4,-1,1,15
1523208614595447,47,-12,-3,3,2,2,3,-14
1523208614612687,-113,-22,0,2,0,-4,-4,-21
1523208614612687,18,-3,-31,2,2,2,8,16
1523208614614457,-49,15,52,8,5,4,-6,-6
1523208614614457,28,-13,-80,-13,-7,-6,-4,-1
1523208614634511,-86,-3,2,-4,0,-2,-1,-29
1523208614634511,45,8,-8,-1,1,-1,-1,18
1523208614636517,-96,-18,-10,4,1,-3,-2,-10
1523208614636517,23,17,32,-2,0,2,0,-3
1523208614649606,-9,4,-36,-2,-1,-2,-3,28
1523208614649606,-20,-10,-60,-3,-1,-2,-3,5
1523208614655802,69,1,14,-1,-2,-1,0,-2
1523208614655802,6,9,30,0,-3,-3,-5,-6
1523208614672801,16,-12,23,5,2,3,7,15
1523208614672801,16,10,37,-6,-4,-4,-5,-5
1523208614673616,17,-1,41,-2,-3,-4,0,7
1523208614673616,-32,11,-20,2,0,-1,1,-1
1523208614694671,33,-5,16,6,0,0,0,11
1523208614694671,9,-3,33,-10,-5,-3,0,2
1523208614696675,25,11,-7,2,2,2,1,36
1523208614696675,11,1,72,-4,-5,-4,1,-15
1523208614708707,-16,-27,-97,-4,-3,-4,-6,-22
1523208614708707,-27,9,78,4,1,1,1,13
1523208614717890,6,8,14,1,-3,-3,-1,-4
1523208614717890,31,-27,-57,-5,-1,2,-1,-17
1523208614731769,16,20,8,2,1,-1,-2,8
1523208614731769,16,-16,-25,-2,-4,-4,2,-16
1523208614733774,68,24,7,4,4,2,-3,-18
1523208614733774,-62,-1,67,-4,-2,-4,1,12
1523208614754834,51,7,-8,-4,-5,-2,-3,0
1523208614754834,-79,-20,-10,-5,-6,-6,-8,-8
1523208614755832,9,-19,-57,1,1,1,3,7
1523208614755832,21,-7,20,5,3,2,2,-9
1523208614768956,63,2,-82,-8,-5,-4,-3,25
1523208614768956,-50,5,96,4,3,1,-1,-52
1523208614776888,68,0,19,-6,-7,-7,-7,-5
1523208614776888,-81,6,7,0,-1,-1,2,7
1523208614791928,-49,-4,49,-1,-2,1,1,-14
1523208614791928,53,-20,-68,0,0,1,-1,22
1523208614793943,39,0,-27,8,9,6,4,-15
1523208614793943,-77,10,64,-6,-5,-5,-9,-41
1523208614814025,29,19,16,-3,-2,-2,-2,-35
1523208614814025,-19,-2,-17,-3,-3,-1,-1,0
1523208614814990,-36,-8,8,0,-1,0,0,1
1523208614814990,74,-5,38,8,3,-1,-2,22
1523208614837108,11,9,-16,-2,-1,-1,0,13
1523208614837108,-42,-9,-46,-7,-1,0,-2,-9
1523208614837108,-22,-12,-55,-9,-3,-3,-10,-4
1523208614837108,64,2,-11,7,3,3,12,-3
1523208614851086,-1,5,51,2,0,1,-2,27
1523208614851086,10,11,-29,-10,-4,-2,-5,12
1523208614852090,-2,-16,33,6,4,5,2,7
1523208614852090,-58,8,-47,0,0,0,1,0
1523208614874150,-33,-11,-12,-3,0,-1,-4,12
1523208614874150,55,7,6,3,1,-2,-5,-56
1523208614875152,-75,16,21,-1,-3,-2,2,11
1523208614875152,-37,-6,2,-3,-4,-2,-4,5
1523208614896437,-50,-14,-5,1,1,0,1,-15
1523208614896437,65,32,103,1,0,0,0,25
1523208614897209,6,-13,-101,0,1,0,5,-18
1523208614897209,47,7,-3,0,-5,-3,-5,22
1523208614911247,29,-9,87,10,2,3,2,11
1523208614911247,-7,-9,-78,-3,-2,0,0,7
1523208614912249,43,16,48,3,-1,-3,0,21
1523208614912249,-38,-14,-22,0,3,3,0,-9
1523208614934308,-12,12,51,-6,-4,-3,1,38
1523208614934308,-50,-19,-10,1,-1,-2,-3,-8
1523208614934308,29,-4,2,-1,-2,0,-2,-24
1523208614934308,24,13,-27,-5,-3,-3,-2,-1
1523208614956372,22,-8,-5,2,-1,1,2,-13
1523208614956372,5,11,-16,-1,-3,-3,-3,14
1523208614957372,-8,-36,-28,-3,-3,-2,-3,5
1523208614957372,-12,-11,-35,6,3,-1,-3,-15
1523208614971641,23,20,-19,-4,-1,0,1,6
1523208614971641,-1,-13,-77,-19,-12,-9,-5,9
1523208614972409,-58,5,44,1,-2,-3,-3,-13
1523208614972409,-34,0,1,0,-1,0,0,17
1523208614993509,-72,0,-1,-1,2,3,2,-15
1523208614993509,48,2,-2,5,4,2,-3,-22
1523208614994468,-48,-3,-36,-1,1,2,2,6
1523208614994468,67,17,64,-4,-4,-3,-2,4
1523208615016526,16,-30,-52,0,1,-1,-12,7
1523208615016526,-30,7,43,-8,-6,-3,13,-7
1523208615017528,64,6,-62,-2,-2,-2,0,-34
1523208615017528,-8,-14,35,7,2,1,1,2
1523208615031584,9,-3,4,0,1,0,-2,-26
1523208615031584,-38,10,15,2,-1,2,0,31
1523208615032569,71,28,75,-2,-1,1,-2,11
1523208615032569,-29,-24,62,5,2,1,2,-11
1523208615053624,15,7,16,-3,-2,-1,0,-6
1523208615053624,-25,-15,24,0,0,-1,-2,-5
1523208615054627,-6,16,24,-2,-1,-2,-1,1
1523208615054627,11,-6,-59,2,2,-2,-3,-2
1523208615076686,-20,12,68,-3,-5,-2,0,-16
1523208615076686,108,7,-84,-4,1,1,1,19
1523208615077689,-22,-62,43,0,-3,-4,-4,7
1523208615077689,60,-14,-79,-4,1,3,0,15
1523208615091727,13,-3,-43,-1,-1,-1,0,-19
1523208615091727,-39,-34,2,7,2,2,2,48
1523208615092728,35,21,42,-4,-3,-1,1,2
1523208615092728,-48,-3,-90,-3,-1,-1,-5,-2
1523208615113784,26,-5,-31,3,2,-1,2,10
1523208615113784,14,12,60,4,0,-1,-1,6
1523208615114788,-66,-1,16,-14,-5,-6,-4,-5
1523208615114788,12,7,19,-1,1,-1,-1,8
1523208615137078,-15,2,-41,-5,0,-1,0,8
1523208615137078,-28,17,-2,4,1,-1,-6,-9
1523208615137078,33,14,-25,2,1,5,5,12
1523208615137078,58,20,7,-11,-7,-5,-5,-24
1523208615151891,-50,-31,25,0,-2,-3,2,6
1523208615151891,40,18,-13,4,3,0,-5,-11
1523208615151891,-92,-14,-81,1,1,2,0,4
1523208615151891,-5,-14,-4,-4,-2,-1,-2,2
1523208615173950,56,16,-78,-7,-8,-6,-3,14
1523208615173950,-63,-28,-45,4,1,0,3,-2
1523208615174946,-2,20,69,-6,-5,-5,-8,-18
1523208615174946,-31,-5,34,0,-1,0,-1,-5
1523208615196003,-79,-9,4,4,-1,-1,0,14
1523208615196003,-30,22,-22,-6,-2,-2,2,-10
1523208615197006,16,-5,-24,2,2,0,0,-10
1523208615197006,-33,-9,21,-3,-4,-5,-4,1
1523208615211042,114,34,55,7,6,6,3,-11
1523208615211042,9,-18,-3,-23,-16,-13,-5,43
1523208615212046,12,2,1,2,2,2,-2,8
1523208615212046,-20,6,-58,1,1,0,-1,-13
1523208615234103,8,7,21,2,1,-1,2,13
1523208615234103,27,-2,-4,5,3,1,1,-41
1523208615235147,19,11,-25,9,2,-1,-1,2
1523208615235147,25,11,72,-12,-8,-8,-6,-2
1523208615256161,-46,-36,-34,-5,-3,-1,-4,-22
1523208615256161,20,4,-13,4,2,1,-2,-10
1523208615257176,-16,-2,10,-5,-4,-4,-1,5
1523208615257176,16,5,13,10,3,3,4,22
1523208615273211,55,-7,-29,-3,0,2,-11,-13
1523208615273211,54,18,46,-4,-2,-1,9,-2
1523208615274216,45,-23,-24,2,0,1,-3,5
1523208615274216,-30,-5,10,4,2,3,1,2
1523208615294265,-52,4,10,-7,-5,-4,-2,-6
1523208615294265,7,-1,-9,7,1,0,-11,-18
1523208615294265,35,12,51,1,1,0,6,-2
1523208615294265,27,2,-58,-14,-4,-2,-2,17
1523208615316323,-17,14,31,0,-1,-4,-1,3
1523208615316323,-16,-23,-21,6,4,2,-1,-11
1523208615317325,59,9,75,-2,-2,-3,-1,31
1523208615317325,92,14,15,0,-2,-2,-6,-64
1523208615331401,38,-7,9,-12,-7,-6,-2,8
1523208615331401,-52,-25,48,3,-1,0,-1,-5
1523208615332366,-28,1,-15,5,3,4,2,-13
1523208615332366,-41,-6,-17,-2,-2,-2,-1,-19
1523208615353422,14,10,15,6,2,0,-3,8
1523208615353422,27,4,-16,5,1,1,0,-2
1523208615355427,-12,-11,-56,2,2,1,2,-1
1523208615355427,-40,-17,-88,-8,-2,-2,0,17
1523208615376481,8,-13,-24,-5,-3,0,3,6
1523208615376481,-34,10,43,7,6,3,2,6
1523208615377486,46,-2,-17,-7,-8,-6,-2,1
1523208615377486,-6,-7,39,2,1,2,-1,-5
1523208615391522,32,-21,-75,-6,-1,-1,1,31
1523208615391522,37,10,-12,6,4,2,2,-10
1523208615392526,-23,-8,-17,-8,-6,-6,-5,-16
1523208615392526,-55,-10,21,4,0,-1,-2,-13
1523208615413581,-49,2,33,0,-1,1,2,-6
