timestamp,emg1,emg2,emg3,emg4,emg5,emg6,emg7,emg8
1523181887903336,-9,7,14,-26,-2,-2,-10,15
1523181887903336,-13,-16,10,-2,1,1,11,-32
1523181887903838,-48,-6,1,-38,2,1,-2,27
1523181887903838,1,30,-24,1,-6,-6,-13,-4
1523181887917875,21,-6,49,8,3,0,3,12
1523181887917875,-19,-11,-48,-15,5,1,5,-7
1523181887918881,20,-18,-41,-19,-9,7,-9,-6
1523181887918881,-28,-15,97,-13,-2,1,32,-1
1523181887940190,-91,-4,-22,12,-6,-6,-18,3
1523181887940190,48,2,-58,14,-9,-6,-32,0
1523181887940947,-4,7,91,30,11,-5,-6,-7
1523181887940947,-4,11,24,-50,-7,-4,-6,-6
1523181887963497,5,-10,-71,15,-15,-3,20,3
1523181887963497,-13,11,55,-20,6,1,6,17
1523181887964003,-14,34,34,1,-7,0,-6,-12
1523181887964003,2,4,13,39,11,3,5,8
1523181887978087,3,-29,42,-11,-3,-9,-7,-3
1523181887978087,-4,-17,-61,-48,-12,3,12,9
1523181887978087,15,-16,38,24,8,-1,3,-11
1523181887978087,-42,10,-92,-19,-5,-2,7,-21
1523181888000624,44,21,47,-15,4,-3,-21,-14
1523181888000624,-17,5,-1,27,-1,-6,-5,4
1523181888000624,25,10,-53,-17,9,12,46,-9
1523181888000624,-9,-4,-1,-1,-9,-7,-8,-11
1523181888023715,52,5,-11,-3,1,-1,14,10
1523181888023715,18,13,30,9,-5,-3,-19,0
1523181888024187,10,7,31,32,9,4,23,-1
1523181888024187,7,-7,-40,71,5,6,-7,-1
1523181888037925,-54,-43,-95,-89,-16,5,33,-27
1523181888037925,-20,-24,72,62,8,-3,0,3
1523181888038227,20,7,-83,-34,-15,-15,-33,-5
1523181888038227,28,7,43,1,5,7,11,9
1523181888060180,16,6,17,32,6,1,-18,-8
1523181888060180,26,-6,72,8,-8,1,44,9
1523181888060786,19,8,8,-22,-1,-6,-57,17
1523181888060786,-5,-15,11,1,-6,-2,9,8
1523181888083344,46,40,60,3,7,6,4,12
1523181888083344,-35,-43,-59,-35,-13,-10,-6,-18
1523181888083848,12,-25,-14,0,-7,1,10,5
1523181888083848,8,6,59,13,11,2,16,17
1523181888097764,0,8,6,21,-3,-4,-26,-4
1523181888097764,0,9,-11,19,-3,2,8,6
1523181888098262,-35,-23,46,-17,0,-3,-4,-6
1523181888098262,-14,4,-10,0,-4,3,5,-6
1523181888120769,20,-19,-49,-16,-2,-10,-12,5
1523181888120769,4,30,-27,-47,9,7,-7,4
1523181888121271,5,16,50,84,7,-3,-9,-3
1523181888121271,-1,-33,-101,-75,-12,-8,-14,-8
1523181888143329,-4,3,-14,13,-3,2,22,-7
1523181888143329,17,8,41,-10,-1,-16,-41,-6
1523181888143831,-29,-3,-30,-16,-5,20,23,-10
1523181888143831,15,3,39,67,12,-4,-2,-6
1523181888158124,-14,2,-11,-17,0,2,-3,0
1523181888158124,32,-8,-39,7,3,-2,6,-12
1523181888158370,-10,-46,-21,5,-12,-7,0,5
1523181888158370,29,-4,73,-14,-2,3,2,-2
1523181888179928,13,28,4,13,15,-6,-6,-1
1523181888179928,-17,5,-31,5,-13,11,12,-8
1523181888180931,-20,14,-53,-11,9,-6,-21,6
1523181888180931,-2,13,-7,11,-3,3,0,-4
1523181888203182,-74,-8,56,0,5,2,-4,-6
1523181888203182,-10,6,57,39,12,2,-7,-3
1523181888203988,-28,-36,26,15,-4,-7,15,-2
1523181888203988,-26,-14,-9,-14,-1,9,4,2
1523181888217914,5,-6,18,-28,-6,-2,4,-3
1523181888217914,-13,-20,-88,-21,-4,5,0,5
1523181888218531,3,5,-23,-12,-10,-8,-16,-5
1523181888218531,13,21,-3,19,5,-3,-15,19
1523181888240578,25,12,73,28,14,11,25,9
1523181888240578,-17,-8,-11,-33,-17,-8,-7,-12
1523181888241042,4,-12,11,-6,-6,4,8,9
1523181888241042,10,34,6,-27,-16,-13,-21,1
1523181888263101,-3,-8,18,20,-5,-2,4,-16
1523181888263101,-17,-25,-7,26,6,-12,-13,8
1523181888264107,11,34,59,-34,5,13,37,-13
1523181888264107,4,8,-1,7,-5,-4,-13,-27
1523181888277588,4,27,-41,25,0,-4,-21,9
1523181888277588,3,8,46,-17,1,-1,4,-2
1523181888278093,9,9,5,-8,1,-6,-12,-14
1523181888278093,6,0,11,42,-16,-5,-9,1
1523181888300652,-11,3,-37,-52,-8,-1,15,-11
1523181888300652,20,-7,-86,10,-3,-8,-42,12
1523181888300652,-3,3,40,14,10,3,-10,10
1523181888300652,-35,-3,-36,36,10,2,11,-3
1523181888322710,-60,-24,-33,-25,-19,-1,-13,4
1523181888322710,34,-6,-18,-39,-18,-12,-7,8
1523181888323342,14,-1,-72,-10,0,-11,-8,-6
1523181888323342,24,-4,46,-37,-4,-3,-2,11
1523181888338081,28,-12,-90,66,17,-3,-6,15
1523181888338081,-26,-4,0,-1,2,16,27,-10
1523181888338382,-35,-9,4,1,-7,-4,11,-9
1523181888338382,20,5,-46,-28,-13,-13,-44,-10
1523181888360269,8,6,-13,12,10,7,21,-1
1523181888360269,-26,-17,-37,-7,10,1,10,-2
1523181888360942,8,-1,34,20,7,3,1,15
1523181888360942,-46,-5,-32,-50,-24,4,17,-2
1523181888383038,13,18,39,6,-3,-13,-23,-8
1523181888383038,12,43,64,9,25,17,-3,-11
1523181888383501,-6,-41,-122,62,5,4,18,-4
1523181888383501,0,-26,-11,-81,-9,0,-1,-12
1523181888397919,-5,-37,46,19,-4,2,-1,16
1523181888397919,24,56,40,16,-1,-6,0,10
1523181888398541,17,16,-60,11,9,2,3,12
1523181888398541,-1,-36,19,16,16,7,-6,-2
1523181888420488,4,10,-35,-24,-7,1,6,-6
1523181888420488,-10,-5,-9,-14,3,8,11,8
1523181888421102,40,14,67,-6,-3,-3,-18,14
1523181888421102,-2,24,-65,32,7,-2,8,-21
1523181888442658,9,-7,19,-30,-6,1,-5,-11
1523181888442658,-75,-64,12,25,-4,0,-9,8
1523181888443162,10,36,34,-38,-11,-7,0,-1
1523181888443162,-3,12,60,30,13,1,14,11
1523181888457565,5,4,-13,4,-12,-2,2,2
1523181888457565,-12,-46,-41,-65,-8,-4,15,-5
1523181888458572,-15,-10,-4,-3,-16,-12,-21,1
1523181888458572,7,-7,38,5,8,-6,-7,2
1523181888480129,-19,10,31,-16,-2,-1,-1,0
1523181888480129,16,11,-99,-15,-9,-3,5,-6
1523181888480630,8,-9,54,28,11,-1,-7,1
1523181888480630,-12,10,20,-14,-5,-4,6,-8
1523181888502800,40,0,-12,20,1,4,1,11
1523181888502800,6,40,112,31,5,0,-10,-5
1523181888503189,-28,-49,-80,-76,-20,-16,-38,-16
1523181888503189,3,15,36,49,24,11,13,7
1523181888517729,-7,-21,-58,-31,-8,0,-14,-6
1523181888517729,-5,-16,74,34,17,-4,13,-2
1523181888518230,-27,18,-16,-2,-25,4,-4,-9
1523181888518230,38,-7,-25,-21,-7,-10,-12,-3
1523181888540074,-2,12,10,-4,1,-2,-9,-3
1523181888540074,-4,-21,-60,-10,-1,-2,26,-11
1523181888540813,18,-1,13,6,9,-1,-23,-4
1523181888540813,26,-45,3,29,-16,-11,-4,5
1523181888562428,-4,12,11,15,24,6,-12,7
1523181888562428,1,-4,32,-4,-23,-2,7,-5
1523181888563432,-8,0,-49,29,12,-2,7,-5
1523181888563432,-6,15,10,-19,-7,6,8,15
1523181888577762,-2,-14,14,-18,0,-10,-11,20
1523181888577762,41,13,49,16,5,1,14,1
1523181888578472,51,2,19,-15,-3,10,16,-3
1523181888578472,-11,34,3,8,-2,-5,-14,21
1523181888600275,-4,-7,-51,-73,-20,-11,5,-12
1523181888600275,-14,6,-64,78,13,7,-5,-1
1523181888601033,-1,-4,12,1,0,-1,11,15
1523181888601033,-61,-13,-7,-8,-4,-1,9,-43
1523181888622884,4,-26,-42,-29,3,-2,-11,-13
1523181888622884,-3,2,-54,-18,-2,-10,-8,2
1523181888623592,-17,-4,14,12,-12,-3,-17,4
1523181888623592,43,19,78,-61,-8,1,1,16
1523181888637626,28,8,-42,72,18,15,21,-8
1523181888637626,-8,-8,11,-30,-13,-9,-5,-1
1523181888638128,-19,-1,-25,60,8,-1,-3,-21
1523181888638128,5,5,16,11,-1,-5,-1,14
1523181888660188,-4,40,-24,20,-4,-8,-13,-6
1523181888660188,26,-29,26,-17,-2,1,-4,11
1523181888660690,-14,6,-56,-36,-10,-13,-10,4
1523181888660690,-13,-17,-25,-7,2,9,12,-4
1523181888682986,17,-3,15,-4,-1,-4,6,1
1523181888682986,31,26,12,-12,-18,-6,-13,14
1523181888683249,-31,-4,58,15,18,11,17,-15
1523181888683249,2,-12,-50,-3,9,9,9,10
1523181888697823,1,-14,93,44,3,-2,-3,17
1523181888697823,-52,-25,-88,-41,-26,-8,-3,-3
1523181888698291,5,-13,116,17,-2,-8,-9,7
1523181888698291,7,7,-39,13,0,-9,-12,-3
1523181888720490,-23,20,45,4,8,11,26,-8
1523181888720490,-75,-25,97,22,-1,-4,-11,-24
1523181888720852,-6,-5,-3,-20,4,3,6,-9
1523181888720852,-19,-37,22,-7,-9,-5,4,3
1523181888742787,-21,-11,-52,-32,-4,-20,-41,-3
1523181888742787,0,8,21,18,12,19,22,4
1523181888743503,51,18,-38,-34,-9,-3,2,7
1523181888743503,-11,0,34,63,12,5,-3,0
1523181888757338,-10,-15,-23,-31,-17,-13,-9,-13
1523181888757338,45,25,19,-20,0,-6,-15,1
1523181888765062,-25,-21,-8,41,18,15,26,-3
1523181888765062,34,10,-10,5,8,6,-1,-21
1523181888780291,-14,-9,49,10,-4,2,-4,4
1523181888780291,33,30,24,-10,3,-1,-14,11
1523181888780603,18,17,42,-16,1,3,15,10
1523181888780603,-95,-1,-72,11,0,4,-5,0
1523181888802856,-11,10,65,-28,-12,-1,8,0
1523181888802856,23,7,-39,-7,4,0,-2,2
1523181888803160,7,17,16,11,0,-13,-26,-4
1523181888803160,-15,1,-44,-63,2,6,20,-15
1523181888816937,4,-16,-60,11,-23,-8,-4,-3
1523181888816937,-26,5,13,11,0,0,2,6
1523181888825513,-1,-13,8,-1,-12,-15,-23,17
1523181888825513,22,-23,63,10,7,7,28,8
1523181888840546,-12,0,-27,-15,-1,-1,2,1
1523181888840546,3,-25,11,22,3,-8,-12,-14
1523181888840762,5,5,-27,-73,-21,2,-1,1
1523181888840762,-9,-14,-8,-13,-12,-10,-20,-7
1523181888862318,10,7,19,20,5,5,3,-3
1523181888862318,-11,-7,28,89,21,7,3,2
1523181888863320,-23,-13,-2,-80,-23,-9,-3,-12
1523181888863320,-25,-5,-13,17,-12,-7,-14,1
1523181888877154,-7,16,29,12,3,2,5,-9
1523181888877154,19,13,96,30,10,3,3,-3
1523181888885165,52,23,8,10,3,0,-4,5
1523181888885165,50,-10,-19,-21,-1,-3,4,-5
1523181888900171,3,-5,46,38,13,2,-11,6
1523181888900171,2,4,-38,-39,-12,0,7,2
1523181888900924,-6,-3,-12,15,8,-1,-6,14
1523181888900924,22,60,-14,6,6,10,23,3
1523181888922476,26,-15,-50,17,-6,-6,-2,8
1523181888922476,-13,-16,-55,-25,-8,-2,3,-5
1523181888923480,-23,-1,17,32,4,5,13,-12
1523181888923480,11,13,-6,45,6,-2,-14,-2
1523181888937051,-8,-1,-2,-24,-2,6,9,2
1523181888937051,-5,-11,-92,-5,-1,-1,0,-9
1523181888945038,43,8,9,11,8,-2,-15,0
1523181888945038,29,-10,9,22,-4,-7,-1,2
1523181888960075,23,-23,-34,5,1,0,-9,-11
1523181888960075,-2,25,71,-7,2,4,0,-1
1523181888960577,-32,-11,15,11,2,1,-2,-11
1523181888960577,-19,-7,-11,-7,-8,-8,-17,2
1523181888982635,1,-3,62,16,2,1,8,9
1523181888982635,26,6,-19,-4,-8,-11,-14,-4
1523181888983138,-56,-5,6,8,16,13,17,-1
1523181888983138,3,9,52,-23,-5,1,-2,6
1523181888997179,-9,-19,-88,-36,-6,-6,2,-8
1523181888997179,-11,-6,-7,-17,-10,-4,6,-7
1523181889005197,-10,3,-22,14,-10,-2,7,1
1523181889005197,6,-15,76,-13,2,-4,-11,4
1523181889020242,3,6,33,12,2,4,4,12
1523181889020242,-17,14,-8,35,29,15,15,-9
1523181889020739,11,-31,-44,-49,-35,-8,1,6
1523181889020739,23,14,-1,41,7,-2,-3,3
1523181889042799,-18,34,0,0,-2,-3,0,8
1523181889042799,19,30,11,-45,5,6,5,24
1523181889043299,-100,-28,23,46,20,8,21,-26
1523181889043299,-23,1,-45,-7,-3,-4,-2,-14
1523181889065857,-2,-6,20,12,-8,-9,-23,18
1523181889065857,-17,-2,22,-24,-10,-8,-15,8
1523181889066366,-2,4,-81,-32,2,0,-13,-19
1523181889066366,-9,-22,-86,27,0,-5,-9,-1
1523181889080581,-6,0,-18,-36,11,11,23,-9
1523181889080581,4,-5,-3,-48,-17,-6,-7,-3
1523181889080940,25,15,14,16,10,-7,-11,10
1523181889080940,5,-12,35,5,3,1,-14,-9
1523181889102493,2,32,94,62,-8,0,3,-2
1523181889102493,-13,-44,-109,-40,-28,-21,-20,-20
1523181889103499,40,17,34,78,24,11,25,6
1523181889103499,44,38,-12,-28,-7,0,12,8
1523181889126309,-23,20,67,3,1,-3,-14,-12
1523181889126309,-1,-21,-36,22,1,7,14,-3
1523181889126560,-1,-32,18,-54,-3,-2,-3,20
1523181889126560,-19,-8,-36,42,-6,-7,-4,1
1523181889140395,36,10,-34,-19,-4,-1,2,-1
1523181889140395,-39,-17,70,44,5,1,13,-5
1523181889140595,22,58,-57,-7,-3,-2,-9,2
1523181889140595,-12,-2,11,-41,-10,-6,-5,2
1523181889162655,-10,-38,41,-7,-2,0,5,4
1523181889162655,-10,15,14,84,11,2,24,-12
1523181889163156,4,3,4,-3,-10,-6,-10,-1
1523181889163156,-19,-12,9,-28,-2,1,-6,1
1523181889185902,10,4,-39,9,5,-2,2,-3
1523181889185902,41,-6,75,2,-1,-2,-12,9
1523181889186720,8,18,-21,-3,-1,2,7,-6
1523181889186720,-27,8,38,7,3,-1,-2,-11
1523181889200533,-14,-36,-76,-34,-10,-5,-10,-15
1523181889200533,3,-15,-1,-17,-18,-4,-11,0
1523181889200756,7,-18,-18,4,11,4,-11,3
1523181889200756,-6,-2,67,11,0,5,13,3
1523181889222967,-5,-6,9,24,4,-5,-12,-13
1523181889222967,-38,7,-24,-4,4,0,-3,-20
1523181889223318,2,3,-30,-30,-4,-1,3,-3
1523181889223318,-10,-9,-29,2,9,4,-1,5
1523181889246383,-24,-10,15,-11,-6,-5,-7,-12
1523181889246383,57,22,13,-39,-1,2,-3,7
1523181889246879,-26,-40,-50,26,-16,-15,-10,-9
1523181889246879,-5,3,0,18,3,-1,-1,-4
1523181889260720,-3,6,11,-13,-3,0,3,-4
1523181889260720,-1,10,25,17,5,4,-2,4
1523181889260914,13,-16,-4,-36,-3,-1,3,-2
1523181889260914,-36,-19,-23,-1,-19,-14,-23,-21
1523181889283065,43,5,-11,30,6,2,4,8
1523181889283065,5,2,43,-1,-2,-6,-18,0
1523181889283475,-20,-17,0,-29,-6,13,32,-21
1523181889283475,-26,-16,-49,79,3,-8,4,-3
1523181889306279,-15,22,-2,-10,0,-2,-1,-6
1523181889306279,-15,-6,-35,3,2,-2,4,-4
1523181889306552,-24,13,82,-21,-3,-1,-9,-13
1523181889306552,38,-16,-14,-67,-6,-3,-2,10
1523181889320315,-1,14,-14,5,-3,0,7,2
1523181889320315,9,-22,19,14,2,-2,0,8
1523181889320589,-1,-1,-28,37,-3,-5,-10,-1
1523181889320589,12,14,-31,-83,-7,0,7,1
1523181889342691,-6,-30,13,33,-1,-3,-1,5
1523181889342691,-5,8,-25,-10,-5,1,-10,-5
1523181889343148,-8,17,77,47,11,4,17,0
1523181889343148,-5,-4,-22,-25,-10,-1,2,6
1523181889365725,23,13,-88,-10,-5,-3,-8,10
1523181889365725,-9,0,-47,-4,5,0,5,5
1523181889366710,2,-13,23,21,-3,-6,-4,7
1523181889366710,-13,13,42,-1,10,3,7,6
1523181889379744,-28,-11,29,-37,-11,6,-6,-6
1523181889379744,-13,-19,-34,46,-3,-4,0,-6
1523181889380748,16,-11,-64,0,1,-6,-14,12
1523181889380748,4,0,3,-47,3,-3,-1,-6
1523181889402305,6,-1,38,29,7,8,6,-9
1523181889402305,-4,7,-8,-54,-6,-4,-6,9
1523181889403308,-17,-6,-21,-6,-6,-3,1,-16
1523181889403308,16,-5,-22,1,-4,0,-9,4
1523181889425868,5,-3,23,4,7,0,12,2
1523181889425868,20,8,-13,0,-1,2,-2,1
1523181889426369,56,-2,-2,-11,-8,-9,-4,4
1523181889426369,5,-15,-12,30,12,8,-8,-9
1523181889439905,1,-19,37,-7,17,3,11,1
1523181889439905,-5,6,-13,-18,-8,0,-4,-13
1523181889440907,-32,11,52,5,2,3,-2,9
1523181889440907,42,24,15,25,-1,0,9,-8
1523181889462466,-2,11,33,12,5,1,0,3
1523181889462466,0,-28,-69,-40,-10,-7,-2,-5
1523181889463468,-17,9,6,-6,3,3,-3,-4
1523181889463468,-13,-2,33,16,-7,-3,-2,4
1523181889485534,62,30,48,-1,6,1,8,-6
1523181889485534,-27,3,-3,3,-1,-3,1,5
1523181889486529,-3,-17,-23,-12,-9,-8,-6,-15
1523181889486529,-7,8,-10,-12,-13,-2,-1,4
1523181889500066,26,11,19,15,9,6,2,1
1523181889500066,25,3,-7,14,-1,0,5,4
1523181889501067,8,1,19,-2,1,-2,-5,1
1523181889501067,0,9,-14,22,8,4,5,-7
1523181889522677,-37,-18,0,-8,-2,3,2,-8
1523181889522677,-1,-4,36,4,4,1,5,-4
1523181889523127,-65,0,23,-1,-1,2,7,0
1523181889523127,10,1,-69,-25,-15,-17,-33,-10
1523181889545688,-24,-14,-15,-17,-11,-5,0,7
1523181889545688,-2,6,66,5,8,0,-1,4
1523181889546690,14,2,-2,40,0,0,0,-5
1523181889546690,-10,4,74,-74,-4,3,1,2
1523181889560466,-5,-11,-52,27,-9,-6,2,-4
1523181889560466,1,7,38,14,4,0,-2,2
1523181889560725,7,2,-19,-8,-2,-2,-4,8
1523181889560725,1,3,36,20,3,3,12,3
1523181889582337,-23,3,-26,0,-3,-5,-6,-5
1523181889582337,6,-9,10,-32,-12,-9,-8,-8
1523181889583338,18,12,0,-8,8,3,9,7
1523181889583338,2,-9,-4,27,1,2,5,-9
1523181889605654,-6,0,33,-14,0,-1,-4,-11
1523181889605654,-17,-23,-76,51,-10,-10,-6,-3
1523181889606656,1,21,-26,-48,-2,-1,-6,0
1523181889606656,2,1,40,39,7,-2,-5,9
1523181889620192,-4,7,16,-11,0,-1,6,7
1523181889620192,11,-7,-60,-1,9,6,8,-6
1523181889620694,58,13,29,25,-5,-3,-6,6
1523181889620694,17,1,-84,-46,0,1,-6,8
1523181889642753,7,-9,43,3,2,2,-1,3
1523181889642753,-8,8,1,-13,3,2,-1,6
1523181889643906,3,-17,69,24,-11,-5,15,-8
1523181889643906,-4,-27,-28,23,0,-3,-18,9
1523181889665933,12,2,-40,-15,-6,-3,2,12
1523181889665933,4,3,47,65,13,8,11,-4
1523181889666768,-11,-6,-9,-110,-19,-1,-8,-3
1523181889666768,-19,14,30,82,-3,-6,9,-8
1523181889679301,26,-3,15,8,-3,-6,-15,-13
1523181889679301,-4,-5,-32,1,1,-3,-15,1
1523181889687553,7,3,36,14,7,0,0,8
1523181889687553,-13,-4,18,3,-14,-3,-3,-13
1523181889702363,-3,4,-9,-70,-11,0,-6,2
1523181889702363,14,-12,-3,-17,-1,-3,0,-8
1523181889703365,-25,21,-16,16,8,1,-11,-5
1523181889703365,23,-17,-27,-19,4,-1,6,2
1523181889725929,-2,1,-58,-12,-10,-7,-12,5
1523181889725929,12,6,41,-4,16,13,13,11
1523181889726430,2,-15,-20,26,1,-5,-3,-3
1523181889726430,-2,8,78,35,8,-1,-9,-2
1523181889739461,-9,-22,-34,-7,-1,-2,0,11
1523181889739461,0,6,32,15,-2,2,-2,-1
1523181889747721,-12,-15,-97,-47,-7,3,-4,-7
1523181889747721,-8,5,25,-6,4,-1,3,-2
1523181889762565,19,3,-18,5,-2,-3,-6,-2
1523181889762565,-18,-2,27,-8,-5,-5,-10,-12
1523181889763527,0,-19,33,17,17,8,18,5
1523181889763527,-19,0,-15,22,-12,6,9,-11
1523181889785585,66,3,-1,25,-3,-12,-14,12
1523181889785585,1,10,-73,-51,-18,-9,0,10
1523181889786588,0,14,89,71,21,12,-4,-3
1523181889786588,0,-21,-104,-2,-2,2,4,-9
1523181889799160,-11,-3,7,9,6,4,13,9
1523181889799160,-33,-1,21,34,-6,-9,-8,6
1523181889807643,11,4,7,0,6,4,9,-13
1523181889807643,-12,-4,8,-22,-4,-2,-2,0
1523181889822683,-27,-8,-23,-14,-1,0,-5,-12
1523181889822683,20,-5,32,-15,-5,-1,4,11
1523181889823185,-12,3,-17,5,-2,-9,-21,0
1523181889823185,6,12,71,-10,7,6,6,10
1523181889845743,-7,-22,-66,-13,-21,-4,6,-9
1523181889845743,0,-9,-4,12,12,0,4,-4
1523181889846754,-29,19,-23,-2,-15,0,16,12
1523181889846754,35,32,27,-2,3,-2,-20,6
1523181889860131,-26,13,48,14,8,-2,-7,-23
1523181889860131,0,8,59,-28,-16,-3,2,-3
1523181889867639,-20,-35,-72,27,0,2,-4,-10
1523181889867639,1,-13,-33,20,-40,-13,5,4
1523181889883052,-12,30,-7,-18,3,3,-1,-5
1523181889883052,-5,-16,30,16,12,8,-1,-8
1523181889883345,23,16,37,-23,26,-7,-10,-3
1523181889883345,-10,-15,-2,-31,-16,1,6,-4
1523181889905923,-44,-13,-45,16,-1,-2,7,-10
1523181889905923,7,18,-16,-14,-3,-5,-6,-12
1523181889906425,2,-10,-36,-8,-14,-9,-10,11
1523181889906425,-41,-46,-46,-9,20,8,25,-9
1523181889919458,-49,0,111,54,4,1,-1,5
1523181889919458,-13,-10,-81,-66,-5,1,-10,-11
1523181889927480,27,-8,0,-15,-23,-10,-5,7
1523181889927480,1,27,35,21,8,-4,-9,-22
1523181889942520,18,-1,-11,8,4,-1,-3,4
1523181889942520,8,-19,-22,-9,-7,-3,4,-6
1523181889943523,3,0,20,33,-6,0,-5,-2
1523181889943523,34,2,-17,-45,3,-7,-13,2
1523181889966298,10,2,-16,-19,0,2,-1,3
1523181889966298,-1,-17,71,50,24,11,3,13
1523181889966589,-12,14,-20,-27,-26,-3,1,-3
1523181889966589,-12,-40,43,87,21,0,-2,-29
1523181889988179,1,-1,-90,-89,-20,-6,-14,1
1523181889988179,2,26,-43,6,-4,-4,1,10
1523181889989148,2,-6,26,6,2,5,6,-2
1523181889989148,-6,22,20,-9,-4,3,-1,17
1523181890002977,12,-17,69,33,6,-3,-1,-3
1523181890002977,-11,2,-13,-24,-8,-6,1,-8
1523181890003218,-2,-10,-14,17,2,-2,-3,-3
1523181890003218,-3,-3,-6,-21,0,-2,-4,-10
1523181890026072,15,11,1,28,2,-1,-4,14
1523181890026072,-6,-25,-51,-60,-7,8,27,1
1523181890026778,-6,-3,14,0,-5,1,-1,-6
1523181890026778,11,19,-2,-16,5,-1,0,15
1523181890048337,-12,-21,-31,34,-4,-3,8,-6
1523181890048337,28,18,-9,-9,-7,-6,-3,5
1523181890048841,-26,0,-43,-8,6,-3,-8,-4
1523181890048841,-1,1,27,-10,16,7,17,-5
1523181890062375,3,2,32,14,-9,0,-1,-1
1523181890062375,34,5,29,5,-13,-5,-14,0
1523181890063375,-26,-17,-10,73,14,-4,-9,-4
1523181890063375,23,22,-62,-56,-9,-6,-9,17
1523181890085935,-15,-2,0,30,15,5,3,-2
1523181890085935,-11,-4,-9,38,3,-3,-7,-9
1523181890086437,5,-19,17,-24,-7,5,8,-3
1523181890086437,-17,5,6,14,0,-2,-4,9
1523181890108291,13,12,26,15,2,-1,-2,6
1523181890108291,-26,3,87,12,-6,-4,-12,-13
1523181890109001,0,-23,-33,18,7,-1,1,16
1523181890109001,0,14,4,-15,0,0,-2,0
1523181890122832,-13,4,-57,-72,0,1,8,-10
1523181890122832,27,20,15,54,-5,-11,-14,17
1523181890123539,16,0,19,-74,10,7,12,0
1523181890123539,39,6,1,35,-3,3,6,-4
1523181890145596,23,-5,-19,-1,-14,-8,-5,11
1523181890145596,-38,-7,-22,6,11,2,11,-9
1523181890146601,58,27,10,2,-4,2,-12,11
1523181890146601,-13,16,-6,23,11,6,5,1
1523181890168153,27,-22,-58,-41,-17,-6,-8,4
1523181890168153,-45,1,-2,-7,7,5,28,2
1523181890169157,63,27,17,9,-2,-5,-22,-6
1523181890169157,-53,-40,18,-13,-8,-7,2,18
1523181890182759,-6,34,125,65,23,8,-6,-2
1523181890182759,-21,-47,-45,-46,-20,-6,-6,-32
1523181890183195,29,19,-18,5,-10,-6,-6,28
1523181890183195,0,1,-9,18,2,-3,-11,0
1523181890206042,-7,-6,-50,-5,10,-7,-14,-16
1523181890206042,23,16,118,18,-6,13,14,29
1523181890206758,-46,-20,56,57,8,-2,16,-22
1523181890206758,15,-15,-25,-13,-4,-7,-15,-6
1523181890228313,-15,27,87,-10,-10,-7,-9,1
1523181890228313,17,28,10,34,29,10,17,-8
1523181890228815,-40,-6,-32,-43,-28,-7,1,-11
1523181890228815,15,3,11,4,23,-2,2,1
1523181890242920,-7,-16,4,10,-16,5,2,-2
1523181890242920,29,24,-37,1,-5,-12,-18,13
1523181890243356,-1,-33,0,-4,5,5,11,0
1523181890243356,-22,-21,-71,-41,-14,-2,7,-7
1523181890266204,5,-5,-23,-26,-4,-4,-18,-3
1523181890266204,21,21,36,6,4,-1,-14,0
1523181890266416,-12,-41,-84,0,12,-7,-7,-5
1523181890266416,11,-24,40,-10,-28,0,-3,1
1523181890288264,-2,1,3,49,19,8,2,-1
1523181890288264,-21,-21,-95,-63,-28,-6,7,-4
1523181890288976,-25,18,31,-8,3,-7,-19,-6
1523181890288976,5,12,21,-6,3,2,5,9
1523181890302763,-6,-39,13,16,3,4,7,5
1523181890302763,4,2,43,11,1,-2,0,-18
1523181890303516,-36,-9,-31,-5,3,1,2,13
1523181890303516,-17,-2,-22,3,-5,-1,-11,-8
1523181890326299,0,12,-12,-35,-5,-4,7,-7
1523181890326299,-38,-12,-12,24,-6,0,-6,13
1523181890326574,76,17,10,-6,-4,-4,0,13
1523181890326574,37,26,54,-12,-6,-2,-6,-8
1523181890348131,-12,4,-28,-2,3,-2,17,0
1523181890348131,-62,-20,-19,-4,9,3,-1,-16
1523181890349137,-29,-7,15,25,-7,-4,-2,-5
1523181890349137,9,14,-27,-21,-8,-8,-22,15
1523181890362922,5,20,84,-5,11,14,30,8
1523181890362922,28,-2,-66,-11,4,0,-9,3
1523181890363172,-12,6,-26,17,-6,-1,-8,-19
1523181890363172,-1,-11,-4,-9,0,-6,-3,0
1523181890385927,-24,38,-5,-13,-4,0,-2,-12
1523181890385927,9,8,-17,26,2,1,-6,1
1523181890386735,4,22,12,-3,-5,-1,2,-3
1523181890386735,-14,-6,-61,-72,-11,-1,2,0
1523181890407589,-4,-24,-24,23,8,-10,-11,-18
1523181890407589,-55,-24,13,41,-4,5,3,40
1523181890415399,37,-4,23,11,5,-1,-17,-10
1523181890415399,-3,21,39,19,5,9,28,-11
1523181890421918,4,-9,-1,-7,-5,2,-11,-2
1523181890421918,-1,-7,-17,-48,-4,-8,-5,1
1523181890430642,-80,-13,-24,-64,1,4,11,-21
1523181890430642,2,14,48,32,4,5,4,8
1523181890445392,5,-26,-12,-8,-13,-8,-4,7
1523181890445392,16,15,11,10,6,-1,-1,-11
1523181890446395,-18,-6,70,12,-7,-6,-17,16
1523181890446395,8,-11,-113,-33,8,6,14,1
1523181890468231,-11,-33,34,-7,0,-2,-9,-8
1523181890468231,20,4,18,1,-9,-6,9,20
1523181890468953,-11,-13,53,-31,8,7,-2,-6
1523181890468953,-47,-20,-43,37,-6,-4,-10,-20
1523181890482489,49,13,2,17,-4,-10,-3,22
1523181890482489,1,12,29,-55,9,17,44,1
1523181890483493,-23,-31,-86,-79,-23,-9,0,-1
1523181890483493,-3,-30,30,46,2,-9,6,6
1523181890505791,-6,-13,-67,5,-9,0,-3,8
1523181890505791,13,1,15,53,9,-14,-17,-19
1523181890506557,12,37,87,29,9,21,27,-7
1523181890506557,7,9,35,-36,-9,1,3,2
1523181890528110,-6,-11,-48,40,1,-7,-18,4
1523181890528110,15,9,-30,-19,-6,-2,12,-9
1523181890530115,19,-23,86,27,14,-1,4,-3
1523181890530115,22,17,55,30,-8,-13,-28,8
1523181890541939,46,-28,-33,-16,6,8,27,20
1523181890541939,-30,-5,37,2,2,2,-19,-3
1523181890550673,5,7,-61,18,-5,-4,30,-11
1523181890550673,-5,12,27,-18,1,0,-12,-7
1523181890565711,-19,7,43,-10,-3,-1,-6,-11
1523181890565711,0,22,51,21,15,10,10,8
1523181890567215,-8,-10,-3,15,-11,-7,-6,8
1523181890567215,-19,-3,-13,11,6,2,2,-9
1523181890588273,-7,-1,62,-33,-8,-6,-5,-25
1523181890588273,-4,-19,-27,31,1,-1,-4,-5
1523181890589777,11,60,-2,-16,-2,-3,-16,0
1523181890589777,20,-7,-47,22,-7,-9,1,25
1523181890602047,34,10,48,34,8,16,19,-8
1523181890602047,24,18,-5,-24,-11,-10,-25,-13
1523181890610830,-1,3,-46,-34,-3,-5,-12,-6
1523181890610830,25,-28,61,17,17,8,9,-9
1523181890626171,-12,-2,-33,7,-23,-1,6,6
1523181890626171,4,11,60,10,3,-2,-19,-5
1523181890627374,14,-15,-89,-19,-3,-3,0,6
1523181890627374,-8,-9,-52,26,10,8,9,-23
1523181890648713,-14,16,-19,0,12,6,13,2
1523181890648713,-23,-30,39,-12,-3,-3,-28,-4
1523181890649938,-8,3,-29,-15,-14,-16,-15,47
1523181890649938,-38,7,110,25,18,15,11,3
1523181890662211,27,24,-31,-21,0,-4,9,1
1523181890662211,-4,1,-40,-26,-15,-9,-25,-13
1523181890670996,-10,-1,35,66,13,8,11,1
1523181890670996,-5,-4,-24,-49,-12,-4,3,4
1523181890693052,-16,10,-43,25,0,-4,-14,-6
1523181890693052,7,8,3,-32,-3,-1,17,18
1523181890695054,-16,38,94,72,19,8,-18,-22
1523181890695054,-1,-6,-107,-63,-24,-9,4,-6
1523181890708624,-14,-28,18,-23,1,-2,-5,-2
1523181890708624,13,-13,9,70,-8,-11,-5,11
1523181890709597,29,-28,-9,-3,8,11,22,-1
1523181890709597,15,25,38,34,-8,-6,-2,-7
1523181890722127,8,17,-2,-38,-8,-13,-33,-2
1523181890722127,-13,-6,-31,10,8,5,11,-1
1523181890730652,8,-23,-1,-13,-1,-2,2,3
1523181890730652,-5,6,-26,47,5,2,-3,5
1523181890745886,-36,-30,-29,-69,-22,-5,0,2
1523181890745886,19,-17,-93,-29,-8,-8,-21,-11
1523181890747192,90,4,37,45,7,3,18,11
1523181890747192,55,25,-9,-11,9,3,-11,-5
1523181890768249,-14,16,34,50,14,3,-5,-6
1523181890768249,1,-22,-79,-91,-17,-1,0,18
1523181890769754,9,15,51,-4,10,13,45,2
1523181890769754,-21,-8,41,23,3,-5,-17,8
1523181890782072,18,2,-21,-11,-1,0,-21,1
1523181890782072,22,22,97,39,9,5,8,5
1523181890790810,0,5,32,14,2,0,-6,-3
1523181890790810,-20,-10,-93,-76,-17,-5,7,-25
1523181890805849,-11,-19,65,49,19,6,10,4
1523181890805849,-10,18,15,0,-6,-2,-1,-2
1523181890807355,-29,-25,-2,2,4,1,-10,1
1523181890807355,-65,-40,51,-52,-18,-1,21,-16
1523181890828612,19,13,-18,-8,-2,-3,3,-2
1523181890828612,0,-16,-6,18,3,-5,-4,-9
1523181890829912,-9,16,31,-24,-8,-7,-4,8
1523181890829912,26,-8,34,-9,8,8,10,-25
1523181890842241,-57,-83,-6,5,-4,0,-14,8
1523181890842241,4,1,3,37,-4,-3,6,-15
1523181890850973,-7,9,-24,14,-7,-6,10,7
1523181890850973,20,8,0,-9,8,-4,-17,-1
1523181890865793,-15,16,-17,5,6,-1,-1,-20
1523181890865793,44,-2,22,-19,-14,12,31,6
1523181890867514,-4,-6,-73,-51,-7,-11,-45,-14
1523181890867514,-3,15,0,-6,-14,-20,-29,14
1523181890888067,16,30,-7,-31,-7,0,10,3
1523181890888067,-16,-5,27,42,26,17,10,17
1523181890889570,13,-19,-44,-37,-12,-7,-3,-13
1523181890889570,4,14,29,13,5,1,-5,14
1523181890902236,2,8,-108,-3,-8,-6,11,3
1523181890902236,-8,-8,24,-42,8,0,-9,-17
1523181890911128,7,17,3,20,-6,0,-3,-1
1523181890911128,2,-9,-48,4,3,3,-3,7
1523181890926171,-24,2,60,-20,-3,2,17,-49
1523181890926171,-17,13,-20,23,-3,-6,-18,13
1523181890927171,-31,-11,-41,-46,-8,-3,-4,-12
1523181890927171,32,20,4,5,6,1,12,7
1523181890948230,0,4,-18,-16,-2,2,6,8
1523181890948230,-18,-35,-70,4,-5,-7,3,4
1523181890949730,72,15,68,-4,3,1,-18,-11
1523181890949730,-26,-26,-58,1,-8,-7,-4,16
1523181890970788,1,30,65,81,2,3,-4,-1
1523181890970788,-6,-12,-36,-20,10,2,3,-10
1523181890972293,-7,-57,-5,-37,-31,-15,-9,7
1523181890972293,6,13,2,10,5,3,-4,-12
1523181890986119,7,7,63,12,1,3,6,18
1523181890986119,2,11,21,-7,-7,-2,-4,-5
1523181890987333,-26,-1,-81,-15,-1,3,20,-18
1523181890987333,-6,-4,23,28,3,-4,-21,-6
1523181891008386,13,-6,-34,-39,-10,-16,-32,-3
1523181891008386,-3,20,60,20,8,5,8,-1
1523181891009891,-22,-10,-22,-31,-9,-3,-9,-6
1523181891009891,-8,-4,-23,-9,-1,5,25,-2
1523181891031221,19,19,5,-14,-10,-11,-22,14
1523181891031221,9,17,53,22,15,5,8,-6
1523181891032455,-23,-40,-79,-24,-17,-7,-15,-4
1523181891032455,-1,-16,10,-69,-7,-4,-7,5
1523181891045872,0,3,-19,3,5,-5,-4,-2
1523181891045872,-6,7,-25,3,-2,7,15,-3
1523181891047754,-5,34,93,25,16,4,5,-5
1523181891047754,-14,-23,73,62,-4,-3,-2,10
1523181891068760,-9,-22,-31,-6,5,3,3,-16
1523181891068760,18,-10,-39,-94,-19,-12,-12,-13
1523181891069683,29,16,4,69,13,7,20,29
1523181891069683,43,39,55,-26,-11,-9,-45,-23
1523181891091100,8,-8,21,12,10,4,12,0
1523181891091100,4,-19,-17,-16,-7,-4,-9,3
1523181891091740,-16,19,9,22,1,2,7,-9
1523181891091740,10,3,38,16,0,-2,0,19
1523181891105061,24,-33,-101,7,-1,0,-1,5
1523181891105061,-16,-11,-7,-12,1,-4,-4,-9
1523181891111839,-10,-2,-23,2,-3,-7,-14,-6
1523181891111839,-10,-23,-13,10,-5,6,15,-6
1523181891128304,-3,10,-6,-9,1,2,4,-4
1523181891128304,-15,-5,-17,14,-8,-5,-6,-7
1523181891129604,17,22,15,2,1,-6,-9,11
1523181891129604,-25,-26,-12,29,13,6,10,0
1523181891150416,-12,-1,12,-23,-4,6,13,-5
1523181891150416,-5,10,26,22,-11,-5,12,-1
1523181891152375,-18,1,-16,-27,-2,-5,-37,-6
1523181891152375,-6,-2,1,8,4,0,0,-13
1523181891164408,30,14,-44,-69,-5,1,3,-2
1523181891164408,-3,14,-43,16,5,-2,-9,-16
1523181891171733,11,-17,8,-4,0,3,11,8
1523181891171733,-28,20,-21,23,7,5,33,3
1523181891188780,-31,-16,-22,-43,-13,-9,-56,4
1523181891188780,-13,33,99,19,0,4,31,4
1523181891189476,-25,-60,-77,-23,11,-1,-10,-28
1523181891189476,10,30,-61,6,-25,-9,-11,-4
1523181891210530,-1,-32,59,21,12,2,29,9
1523181891210530,-5,-9,-21,26,10,3,-11,-2
1523181891212534,-16,16,12,1,-14,-2,3,-5
1523181891212534,2,12,25,15,13,4,-5,17
1523181891225678,-22,-17,-15,1,1,3,12,4
1523181891225678,21,-32,-4,-5,-10,-13,-26,-2
1523181891232269,-5,-4,-26,-6,5,1,13,-4
1523181891232269,2,-19,-78,-10,-7,-4,-5,-6
1523181891248192,6,23,45,23,-3,-2,10,11
1523181891248192,13,-13,-47,7,1,-2,-25,-12
1523181891249922,-1,21,33,-19,-7,0,11,11
1523181891249922,16,-5,-4,-48,-6,-1,-4,-6
1523181891271148,-8,12,-2,21,10,1,1,-19
1523181891271148,4,-10,-16,-15,-8,-1,6,5
1523181891271984,-12,-14,43,37,7,5,5,5
1523181891271984,17,15,-2,4,-5,-7,-4,-1
1523181891285368,-2,26,25,2,0,5,14,-3
1523181891285368,3,-29,-90,-46,-18,-9,-11,-10
1523181891292347,12,-10,96,8,12,3,6,5
1523181891292347,45,7,34,15,15,7,4,9
1523181891308379,-4,13,-17,-18,-28,-3,-12,7
1523181891308379,18,1,64,56,5,1,6,6
1523181891310081,1,14,-42,14,5,-9,7,6
1523181891310081,-51,-32,37,-13,3,15,14,-2
1523181891331088,23,-4,6,37,5,-8,-17,1
1523181891331088,-16,18,-13,-11,1,4,3,2
1523181891332241,-2,-9,-14,18,-6,-1,5,2
1523181891332241,-15,8,3,40,11,3,3,-9
1523181891345545,-28,-30,-20,-13,-14,-6,-5,-10
1523181891345545,-12,30,50,4,2,-10,-29,-4
1523181891352446,2,10,-20,15,19,9,12,-3
1523181891352446,-13,-15,-28,-33,-12,-1,-6,-9
1523181891375605,4,-9,0,5,-6,0,4,-1
1523181891375605,16,20,43,5,3,-5,-7,3
1523181891377360,-3,-4,-24,-19,-3,0,-13,-13
1523181891377360,-1,-42,-10,-4,-1,-5,-2,2
1523181891390659,4,-3,27,54,27,-4,-4,5
1523181891390659,-11,-1,-46,-101,-32,-1,12,5
1523181891392401,-50,7,23,33,-11,-5,-4,-4
1523181891392401,4,15,-2,-2,-1,1,-5,-4
1523181891405647,10,3,69,-21,-3,-9,-9,-5
1523181891405647,-8,-11,38,41,33,11,12,3
1523181891411612,4,3,-14,-10,-4,15,8,-3
1523181891411612,60,30,36,-12,-5,-9,5,12
1523181891428512,-8,-9,-24,-14,-7,-5,-9,-2
1523181891428512,5,7,41,10,9,3,4,16
1523181891429776,-8,-16,80,9,0,-5,1,-7
1523181891429776,-13,22,22,-2,-5,2,16,0
1523181891450772,9,4,-25,14,4,4,-20,-7
1523181891450772,-33,-11,8,21,-3,-3,-3,-4
1523181891452562,23,0,-62,-13,-8,-7,-12,2
1523181891452562,-16,14,-62,-32,3,-4,-8,-11
1523181891464918,-5,-2,-4,17,-6,3,13,-1
1523181891464918,-11,-20,-42,-16,-7,0,-1,-3
1523181891473618,-17,13,69,-10,-14,-11,-8,-9
1523181891473618,-14,-1,0,14,-3,-8,-11,-7
1523181891487658,2,9,-32,-49,-6,0,2,2
1523181891487658,4,15,18,28,16,4,2,2
1523181891489660,44,-15,-15,-9,-9,4,-12,4
1523181891489660,-11,-23,17,-8,6,0,-2,-10
1523181891510715,-1,21,-54,-49,-4,0,10,-1
1523181891510715,2,-36,-60,24,-5,-9,-7,-2
1523181891511719,46,13,5,-3,8,10,21,1
1523181891511719,-8,14,39,22,-4,-6,-25,6
1523181891524853,5,-7,-79,24,2,2,4,3
1523181891524853,-6,-13,3,-25,2,-5,0,-10
1523181891533515,-3,40,-16,-30,-7,-2,2,-5
1523181891533515,39,-21,75,8,-13,-2,-5,23
1523181891548777,-12,-37,-37,25,5,-4,2,0
1523181891548777,-2,-6,-85,-66,-10,-7,7,-12
1523181891549559,-3,-8,-3,55,17,5,1,3
1523181891549559,-12,26,-43,-6,-10,-9,-11,-8
1523181891570889,-4,12,66,11,4,4,-1,9
1523181891570889,4,-25,24,24,-4,4,12,9
1523181891571618,-32,-8,-54,-78,5,-9,-14,-10
1523181891571618,-13,5,0,12,-13,0,0,-16
1523181891584927,14,32,9,43,-3,-3,-3,5
1523181891584927,4,18,63,23,25,14,22,0
1523181891592670,-3,-11,-96,-60,-7,11,11,10
1523181891592670,-1,-29,38,56,-2,-7,-17,-4
1523181891608006,3,11,-13,10,2,-1,-1,5
1523181891608006,8,20,11,-10,-2,-1,5,2
1523181891609716,-16,-12,-15,-36,-17,-5,-6,-7
1523181891609716,9,1,-23,5,14,4,15,-5
1523181891630778,14,-8,25,-26,-8,-3,-3,1
1523181891630778,2,13,-12,54,2,-2,-12,4
1523181891632488,-6,14,13,-16,-9,-3,-1,-8
1523181891632488,3,-25,-58,-17,-6,4,3,-10
1523181891644518,-9,5,14,-2,-6,-6,-5,0
1523181891644518,14,17,73,25,3,2,-10,6
1523181891653543,4,3,15,38,-5,-7,-1,-1
1523181891653543,-20,-18,-3,17,4,3,21,4
1523181891667856,21,-33,-16,-5,4,-1,-12,-7
1523181891667856,-16,-9,47,1,-7,-9,-12,-13
1523181891669588,-20,15,70,89,7,1,-6,-2
1523181891669588,-17,-32,-113,-73,6,1,10,5
1523181891690947,-27,-16,95,-2,-3,12,21,-3
1523181891690947,72,27,-2,-26,-14,-10,-18,23
1523181891691647,-11,-14,57,73,7,-7,-9,2
1523181891691647,-24,-25,-35,-88,-11,-5,-13,-10
1523181891704724,6,23,8,20,13,5,-3,-3
1523181891704724,-6,-22,-65,15,-16,2,24,7
1523181891712935,-2,21,-18,12,1,-6,-31,-1
1523181891712935,14,5,-26,-20,-5,0,0,10
1523181891728787,-10,-12,-44,-10,3,-10,1,-5
1523181891728787,16,36,28,-16,-5,9,9,-3
1523181891730569,-34,-50,-19,-15,-3,-2,0,11
1523181891730569,-11,14,61,51,3,-1,-5,-8
1523181891751289,-11,-4,14,-52,5,-2,-7,4
1523181891751289,-18,11,-42,10,7,15,28,1
1523181891752084,22,21,37,12,-6,-4,11,2
1523181891752084,6,-10,-19,-5,-3,-5,-13,0
1523181891764371,-20,-31,-18,0,-6,4,6,-12
1523181891764371,-25,-10,3,-5,21,7,-9,-16
1523181891773141,43,44,76,-28,-2,-3,3,16
1523181891773141,-10,-2,37,31,-3,-3,-1,9
1523181891788451,-20,13,-42,11,-3,5,28,-8
1523181891788451,-48,-19,-44,-13,-28,-14,-30,-5
1523181891789183,-1,24,-10,1,6,3,6,-4
1523181891789183,11,17,46,35,2,-4,-4,5
1523181891810237,-8,-14,17,12,6,-3,3,-8
1523181891810237,5,-11,-72,-35,2,7,17,0
1523181891812242,1,-15,-17,-13,-15,-6,-11,-2
1523181891812242,-5,-12,5,24,-2,-6,-5,-1
1523181891824541,-6,15,15,-62,-10,2,7,5
1523181891824541,3,2,-7,-6,-3,-7,-9,-11
1523181891833203,17,32,28,23,2,-5,5,12
1523181891833203,-50,-54,-66,27,12,15,27,0
1523181891848520,4,-1,34,-55,-10,-7,-36,-19
1523181891848520,-4,-5,29,15,-4,-8,-9,-1
1523181891849245,-5,-3,3,1,4,-5,-6,-4
1523181891849245,2,26,5,-4,2,7,15,-7
1523181891870611,-2,5,11,53,8,5,6,12
1523181891870611,-7,6,-30,-72,-14,-7,16,3
1523181891872309,2,-17,-20,0,0,2,-23,-22
1523181891872309,10,24,38,-15,4,-4,-4,1
1523181891893364,30,11,-77,7,-5,1,3,-10
1523181891893364,-30,-30,24,12,-9,-1,-13,-2
1523181891894367,-47,-25,-39,-11,2,-6,-4,-8
1523181891894367,15,21,-5,-61,-12,-4,-10,7
1523181891908593,7,-21,40,48,9,5,23,-6
1523181891908593,-16,-7,19,22,10,8,11,19
1523181891909405,75,-10,-12,7,0,2,-5,-13
1523181891909405,2,18,-7,-39,-1,-2,-10,-6
1523181891930796,-13,1,-3,5,-9,-8,-9,11
1523181891930796,5,13,14,14,10,4,12,-3
1523181891932044,-45,-17,-36,-14,-5,1,-6,9
1523181891932044,6,13,-29,-4,0,-4,-2,-2
1523181891953533,18,-16,61,17,5,2,2,-1
1523181891953533,-2,-24,-13,10,-6,-8,-12,-5
1523181891954284,-4,5,4,-3,9,1,9,0
1523181891954284,0,-4,29,8,2,7,2,-4
1523181891967542,-16,3,-29,18,-17,-9,-12,6
1523181891967542,11,18,-4,18,0,-6,-13,-15
1523181891974638,-13,-22,-25,0,0,-2,3,3
1523181891974638,-23,0,9,15,9,3,10,-5
1523181891990647,10,-25,-19,-29,-6,0,-4,0
1523181891990647,-63,4,-1,55,-2,-12,-12,-2
1523181891992385,5,14,-52,-45,-4,7,0,-6
1523181891992385,1,3,32,41,6,2,1,0
1523181892013439,41,40,-10,-56,2,0,-1,-3
1523181892013439,28,-49,48,-14,-21,-19,-17,19
1523181892014442,-22,-3,7,-5,0,0,4,2
1523181892014442,9,-15,14,16,4,0,-2,-2
1523181892028046,-15,23,55,27,1,1,7,3
1523181892028046,14,-11,-4,-45,3,7,-5,-5
1523181892030049,18,-6,3,65,7,0,2,1
1523181892030049,13,2,-10,-17,0,-3,-12,-2
1523181892050886,-3,-8,-33,18,-5,-5,2,-3
1523181892050886,2,9,10,-15,12,7,3,-7
1523181892051619,5,18,75,72,-3,2,-3,6
1523181892051619,-16,-35,-89,-27,-23,-15,5,7
1523181892072947,-10,10,33,17,7,7,0,11
1523181892072947,19,9,4,-4,0,-3,-8,-9
1523181892074680,-7,0,75,-5,8,-2,18,2
1523181892074680,0,11,-14,38,6,3,-2,-1
1523181892088014,-14,-8,-13,-38,-10,-7,-12,4
1523181892088014,18,19,-26,-4,-4,-1,0,6
1523181892094914,15,-30,26,-43,5,2,3,1
1523181892094914,-16,-25,-43,59,-14,-3,1,4
1523181892111029,-11,-31,2,31,8,1,-10,-3
1523181892111029,-23,30,-37,24,2,2,0,-9
1523181892111776,6,-5,-51,7,8,0,2,3
1523181892111776,-41,-2,4,-12,-4,5,2,-6
1523181892133486,-22,7,5,-14,1,-1,-1,0
1523181892133486,-1,-14,11,16,2,-1,-4,-2
1523181892134450,-8,-2,8,15,7,0,12,-10
1523181892134450,8,9,22,-14,-14,4,-1,-5
1523181892147487,8,18,-26,-15,-3,-4,-2,5
1523181892147487,-1,-16,-8,-61,-22,-3,-4,-16
1523181892154754,-15,12,-10,31,7,3,14,4
1523181892154754,28,15,28,0,1,-5,-18,-7
1523181892170807,17,-1,-31,-22,-4,-7,-3,-10
1523181892170807,5,9,7,8,5,-1,9,2
1523181892172552,4,-24,-11,5,2,10,7,2
1523181892172552,38,-5,-20,-58,-4,-3,-7,-1
1523181892192607,0,0,29,63,-13,-9,-9,8
1523181892192607,-3,-13,21,28,25,1,9,-1
1523181892194609,1,14,-15,-15,-19,-3,-8,-4
1523181892194609,15,11,96,4,-16,-4,-5,-1
1523181892207938,-8,6,-45,-36,7,0,-8,-3
1523181892207938,2,-19,1,17,2,-6,2,0
1523181892214952,-3,20,21,-48,-10,10,8,-2
1523181892214952,47,16,45,21,1,-2,10,0
1523181892230879,-11,14,33,0,-4,-3,-15,2
1523181892230879,-6,-3,4,14,-1,1,5,-8
1523181892232383,-7,-10,-7,-64,-2,-7,-14,-5
1523181892232383,27,6,-106,-59,7,5,34,8
1523181892253774,33,-10,23,51,-7,-10,-31,-16
1523181892253774,13,21,14,12,2,3,-5,7
1523181892254551,5,-21,-44,34,1,-7,-4,0
1523181892254551,-24,-3,14,12,-1,4,9,-11
1523181892267897,-19,-31,-16,6,-9,6,19,4
1523181892267897,-2,7,-19,-4,3,-2,-13,9
1523181892274917,-6,23,24,-2,-19,-11,-5,2
1523181892274917,-39,-8,5,18,12,2,-9,5
1523181892290931,16,10,-1,1,2,5,13,10
1523181892290931,9,15,38,0,14,1,-8,4
1523181892291649,-19,-32,-50,-21,-25,-10,3,-10
1523181892291649,8,17,61,6,-40,-1,-10,1
1523181892312948,6,-11,-12,-20,2,-3,-4,-22
1523181892312948,2,10,-3,-36,-16,0,0,-4
1523181892314710,-1,12,-1,44,23,-5,-8,-2
1523181892314710,-25,-38,4,8,13,6,8,-12
1523181892328001,-8,3,-4,-19,-5,1,8,7
1523181892328001,-11,-5,-13,-8,-9,-9,-9,-16
1523181892334654,13,5,39,11,17,11,12,1
1523181892334654,-71,-9,-3,-6,-8,3,54,18
1523181892349400,72,38,88,16,2,-14,-66,-23
1523181892349400,-68,-2,28,18,21,2,2,-4
1523181892358424,-6,-18,-65,-28,20,4,2,2
1523181892358424,25,40,-35,-15,-52,7,13,14
1523181892373758,-37,-9,20,-6,3,-14,-24,24
1523181892373758,14,0,-83,-19,0,7,24,14
1523181892374466,3,4,28,29,-9,-7,-9,-17
1523181892374466,-33,-14,-16,8,29,-4,-22,-4
1523181892386807,-7,-5,-31,-24,-9,0,20,5
1523181892386807,26,-11,82,58,-15,-2,-6,2
1523181892395578,-38,-12,-68,-90,8,14,7,7
1523181892395578,101,-10,-11,24,12,-16,-26,5
1523181892410808,-18,14,-40,0,-2,2,15,-6
1523181892410808,-6,16,41,9,-22,-1,0,-5
1523181892412566,-59,9,73,10,1,1,0,8
1523181892412566,-11,-30,-21,-10,9,-9,-26,-12
1523181892432126,-5,2,45,-61,2,8,17,-11
1523181892432126,16,-5,-10,60,13,-6,5,-3
1523181892434514,13,7,14,-3,-27,-5,-4,6
1523181892434514,-3,24,43,-1,7,-11,-55,-1
1523181892446808,-17,-7,-5,45,45,25,39,-1
1523181892446808,-35,-19,-68,-91,-22,4,1,-9
1523181892455578,1,-25,15,-3,-11,-7,-9,-4
1523181892455578,-7,18,-20,28,17,1,-4,4
1523181892470880,-4,-10,-44,19,1,-2,13,-10
1523181892470880,9,12,15,-9,-3,4,-13,-9
1523181892471612,14,-10,8,18,-7,-3,-2,4
1523181892471612,0,7,-15,-1,19,-3,10,-14
1523181892492667,0,-43,-28,-13,-27,-5,-6,5
1523181892492667,-13,-7,-3,-28,-5,-4,-3,-13
1523181892494670,15,2,-106,3,-7,-4,-5,-7
1523181892494670,-4,-19,52,16,20,4,-2,-9
1523181892506957,2,1,-3,-19,-9,-1,-1,7
1523181892506957,10,1,28,26,7,3,9,32
1523181892515726,15,-3,43,-1,-6,-6,-23,-4
1523181892515726,-46,-8,-46,-1,-2,0,9,-8
1523181892530778,-11,-4,-4,-22,-1,-5,1,-11
1523181892530778,22,6,-2,28,-5,3,-6,9
1523181892532281,5,1,5,34,-7,-7,-3,-10
1523181892532281,43,14,11,17,5,9,12,17
1523181892553778,-15,15,76,22,-3,-7,-21,-12
1523181892553778,7,5,-23,-49,-2,2,4,5
1523181892554620,-10,12,-25,26,-7,0,3,6
1523181892554620,-18,1,27,-8,-13,-9,1,6
1523181892566816,15,-5,-11,26,21,9,-7,-22
1523181892566816,38,-18,-57,-10,0,-3,7,16
1523181892576024,42,23,48,49,13,6,4,-1
1523181892576024,-18,-11,-16,-59,-16,-8,-4,-2
1523181892591242,4,6,-21,4,-10,-1,13,11
1523181892591242,-3,24,7,3,2,-2,6,2
1523181892592070,8,-10,-38,-1,4,1,-4,-12
1523181892592070,-6,-6,-71,-39,-1,9,16,11
1523181892613431,-66,-5,5,8,3,-3,-12,-8
1523181892613431,16,8,-9,6,5,-1,0,-5
1523181892614128,-15,-3,20,-16,-4,-5,1,0
1523181892614128,-1,17,113,45,32,0,-2,-17
1523181892626949,-9,-10,-72,-60,-30,4,9,-1
1523181892626949,-13,-24,4,19,-15,-10,0,-6
1523181892635601,-7,0,-40,37,21,0,3,6
1523181892635601,-19,17,-58,-60,-24,0,-2,5
1523181892650923,-3,-28,11,24,12,-3,3,-10
1523181892650923,6,16,0,3,-5,-6,-16,-8
1523181892651643,4,-4,6,-13,7,4,1,-12
1523181892651643,21,30,-8,-31,-4,-3,-1,-4
1523181892673991,14,14,7,-13,-13,-4,2,11
1523181892673991,-17,-9,-24,-28,5,2,-1,-2
1523181892674703,-24,0,71,-1,0,-4,-9,-2
1523181892674703,-32,-29,-72,10,-11,-2,-7,-10
1523181892687000,20,10,48,8,1,0,4,42
1523181892687000,-8,14,9,-13,1,0,-14,-18
1523181892695761,10,-1,-17,-35,-5,-3,9,9
1523181892695761,-19,5,125,47,20,4,0,-12
1523181892711093,79,-6,-119,-10,-26,-6,16,41
1523181892711093,-22,-2,74,63,17,5,-20,-18
1523181892711802,10,-14,-10,-92,-19,-11,-9,-2
1523181892711802,13,-9,5,84,6,5,-14,-5
1523181892733702,-33,0,11,2,11,1,17,-2
1523181892733702,8,-8,-22,9,9,3,1,4
1523181892734703,7,14,23,22,12,-2,3,-7
1523181892734703,8,-4,-20,-23,2,7,5,4
1523181892747035,-9,3,18,-23,-29,-5,-11,-16
1523181892747035,13,-14,-40,-7,-8,-5,2,19
1523181892755758,-12,-18,41,31,3,-2,-1,-3
1523181892755758,5,-1,-32,-11,8,-11,-3,13
1523181892771064,24,5,32,2,12,17,-2,-17
1523181892771064,24,-10,1,-28,-5,-2,4,5
1523181892771802,-6,6,20,32,-7,-10,-7,15
1523181892771802,0,-19,15,-7,4,4,25,-4
1523181892792859,-49,16,-47,10,14,7,2,-15
1523181892792859,68,-28,12,-2,-16,-10,-18,1
1523181892794864,-6,9,-48,6,-5,4,18,-12
1523181892794864,7,-1,19,-35,-12,-9,-22,-12
1523181892807160,-18,9,-6,5,20,6,0,-1
1523181892807160,-41,-13,-13,-6,-21,-7,13,-5
1523181892815917,4,2,-35,7,-7,-3,-9,1
1523181892815917,20,-4,-29,32,4,5,-3,4
1523181892838081,-13,-32,49,-21,5,-5,1,-4
1523181892838081,-57,3,42,-44,-10,2,6,-11
1523181892839793,11,13,32,22,-3,2,-15,4
1523181892839793,-13,29,-7,23,28,-5,2,-6
1523181892853082,26,-30,34,4,-3,18,2,9
1523181892853082,-19,13,-65,-52,-7,-5,9,-5
1523181892854832,45,-4,-64,-3,-7,-6,-15,9
1523181892854832,65,12,77,32,-6,-2,-1,3
1523181892875885,-34,11,-42,11,14,-11,-10,1
1523181892875885,3,-6,-76,3,0,5,7,-12
1523181892876888,-29,-3,24,-39,-12,0,11,14
1523181892876888,13,17,23,33,-4,-7,-26,4
1523181892891123,16,-5,8,-19,-4,-9,11,-10
1523181892891123,-2,12,5,4,9,4,-9,8
1523181892891930,12,-5,15,-2,4,1,8,-15
1523181892891930,-20,-18,-35,-26,-21,-4,2,5
1523181892914200,3,9,52,23,15,-7,-20,-4
1523181892914200,36,-18,15,12,4,1,-11,0
1523181892914992,-10,6,-60,-44,-4,11,15,-4
1523181892914992,-3,-5,19,22,15,-5,-16,5
1523181892935945,-1,10,-53,-26,-57,-5,8,-1
1523181892935945,3,-9,77,45,22,3,7,-4
1523181892936674,-3,-13,-25,-36,-6,-6,-4,0
1523181892936674,-5,-4,-77,-49,-10,1,19,-1
1523181892950870,-39,6,46,45,17,-9,-33,-10
1523181892950870,-12,-11,14,-2,-14,4,9,2
1523181892957008,-5,-9,16,-16,7,4,5,8
1523181892957008,-32,-20,-5,72,7,0,1,-20
1523181892973024,21,-4,-43,-8,-9,-4,-1,2
1523181892973024,12,32,18,0,-8,-10,-8,3
1523181892974775,-1,-17,61,30,27,15,4,-8
1523181892974775,-7,3,48,-34,-3,-2,-2,17
1523181892996118,4,-10,37,-1,-16,-9,-2,-18
1523181892996118,-11,8,-86,-23,-3,-3,-35,1
1523181892996834,-2,4,59,64,15,-9,-6,-6
1523181892996834,-5,-6,-25,-85,-24,13,18,-21
1523181893010027,-67,-58,2,36,-7,-9,-8,16
1523181893010027,67,1,10,-66,1,-3,8,7
1523181893017161,2,23,-42,-2,-2,0,-9,-8
1523181893017161,-11,-35,-11,-29,-36,-8,-10,-11
1523181893032921,-9,5,-2,-34,12,8,32,26
1523181893032921,-14,-8,53,31,0,-4,-23,-20
1523181893034987,-18,7,14,2,3,0,3,-2
1523181893034987,1,13,-5,23,10,-4,-2,5
1523181893056273,24,6,-44,-16,-8,3,6,-9
1523181893056273,-24,4,28,61,12,7,17,0
1523181893057048,8,-15,-53,-52,-7,-1,2,8
1523181893057048,-6,6,30,54,10,3,-17,0
1523181893070347,28,9,-14,-32,-4,-9,-17,-16
1523181893070347,-22,-4,60,52,13,0,8,2
1523181893077157,3,2,2,-8,-12,1,2,-3
1523181893077157,11,-12,-56,-30,-10,-10,-1,3
1523181893093142,12,3,24,19,20,9,-17,9
1523181893093142,-28,-11,-36,22,-1,8,-3,-30
1523181893094146,28,-31,-88,-11,-29,-18,-13,3
1523181893094146,-6,-5,-16,1,11,0,0,-3
1523181893116433,13,8,29,18,6,-4,-15,1
1523181893116433,4,10,-36,-32,11,4,16,3
1523181893117716,-11,15,10,0,-10,0,-2,-1
1523181893117716,4,-6,8,3,-7,-5,0,5
1523181893130249,-16,7,15,14,23,14,13,2
1523181893130249,55,11,-47,15,-5,-7,-14,25
1523181893137297,-10,-19,-32,-24,-2,0,1,0
1523181893137297,-14,-21,37,4,-2,-10,-4,-3
1523181893153165,-5,4,2,15,-16,5,25,1
1523181893153165,-16,11,-14,-13,-1,-4,2,0
1523181893154168,3,-11,43,13,-7,-1,-6,5
1523181893154168,41,13,55,-2,17,10,30,-11
1523181893175226,-25,-42,-14,-8,-2,-8,-17,-12
1523181893175226,-12,10,17,17,7,-3,-3,6
1523181893177232,0,9,-18,-26,-34,-13,-7,-8
1523181893177232,-19,-15,-5,-42,-2,11,-3,3
1523181893190605,5,-1,-24,6,-6,-7,3,-1
1523181893190605,-11,-3,0,-20,-7,0,2,0
1523181893197415,10,17,15,-4,19,5,37,-8
1523181893197415,-36,21,19,15,-3,-10,-60,7
1523181893213643,9,13,-45,-2,-4,0,5,-8
1523181893213643,-3,2,-57,-6,3,-1,-4,2
1523181893214329,3,7,42,49,13,2,6,-2
1523181893214329,-28,-2,-86,-58,-17,2,11,-4
1523181893236333,55,-21,-17,-7,-4,-12,10,17
1523181893236333,29,16,-4,-8,-12,-12,-40,-24
1523181893237027,-67,10,52,46,32,16,17,10
1523181893237027,18,-15,55,25,-2,4,2,2
1523181893249334,-15,10,38,-23,2,-4,-5,-4
1523181893249334,0,-12,2,27,7,-4,9,8
1523181893258082,23,6,8,-27,-36,0,-11,3
1523181893258082,-3,-1,-15,-6,8,-2,-3,-3
1523181893273441,-11,-9,-30,8,-2,-5,-10,-9
1523181893273441,-18,-12,37,12,4,1,14,2
1523181893274125,4,12,-47,14,7,-3,-17,-15
1523181893274125,2,9,29,23,0,9,28,14
1523181893296182,-24,0,1,-73,2,0,-14,9
1523181893296182,-6,-7,-14,1,-16,-11,-19,-9
1523181893297186,-3,5,21,0,16,2,1,3
1523181893297186,-13,13,-39,-6,-11,-5,18,15
1523181893310492,-8,-7,44,41,8,3,-6,-17
1523181893310492,-7,0,-83,-107,-16,-8,-12,3
1523181893316493,1,-4,46,4,12,3,5,-8
1523181893316493,19,-14,20,41,4,1,-2,-5
1523181893333588,-9,27,-76,13,6,7,28,4
1523181893333588,-34,-22,56,-6,-9,0,-8,-4
1523181893334590,11,-1,-40,30,15,-7,-27,-14
1523181893334590,9,33,9,-50,5,5,2,-4
1523181893355985,-4,-40,-122,5,-29,-9,-2,-2
1523181893355985,-19,3,3,-49,-4,5,10,-14
1523181893356651,37,-4,3,29,-12,-10,-9,-2
1523181893356651,6,-6,23,37,13,-3,-4,-3
1523181893369913,20,49,33,10,10,-1,-8,-3
1523181893369913,1,-20,11,-27,-8,13,29,39
1523181893378033,-14,-32,-32,-55,-11,-5,-11,-10
1523181893378033,34,-3,-5,9,-9,-9,-15,-10
1523181893392744,-10,10,57,10,11,2,-16,-1
1523181893392744,-15,8,1,47,13,9,25,-2
1523181893394750,1,-10,-20,2,10,6,8,11
1523181893394750,28,12,-21,-21,-22,-8,-2,1
1523181893416130,-9,-21,44,10,0,1,2,-4
1523181893416130,5,5,-34,45,23,2,-6,0
1523181893416810,-8,17,100,-77,-5,6,5,10
1523181893416810,-14,0,-33,-6,-13,0,-6,-8
1523181893429803,-10,9,-8,32,-5,-1,9,2
1523181893429803,9,5,-3,-52,12,-10,-9,-8
1523181893438133,0,-7,-61,15,-16,-7,-7,6
1523181893438133,-34,-25,19,-11,-10,7,13,-6
1523181893453171,8,6,-33,-15,-2,-4,20,-4
1523181893453171,4,0,21,21,-9,-7,-40,9
1523181893454852,-4,10,15,-11,17,-4,3,-1
1523181893454852,-4,-2,-83,45,8,7,-13,0
1523181893475907,33,23,-9,-23,-13,-5,-6,12
1523181893475907,87,-1,-47,38,14,7,37,1
1523181893476908,-7,-5,-17,61,32,8,3,0
1523181893476908,12,5,-33,-55,-46,10,9,-2
1523181893489286,22,-4,12,-28,-1,-9,-20,-3
1523181893489286,6,1,-1,-34,-13,-3,-11,1
1523181893497966,-3,14,-11,63,18,-9,-2,-2
1523181893497966,-6,-4,53,13,11,7,19,-3
1523181893513355,-8,-19,10,11,6,3,3,-16
1523181893513355,-31,-16,21,-6,-11,-4,-9,17
1523181893515010,-1,-14,-62,-60,-19,-4,-1,-3
1523181893515010,-6,6,18,24,12,-11,-16,5
1523181893535598,-51,27,86,-3,-2,4,-9,-16
1523181893535598,-57,-23,31,60,20,3,1,-5
1523181893537307,-13,-15,-50,-6,-8,5,6,6
1523181893537307,-16,-17,-18,-35,-15,-10,8,-10
1523181893549658,6,16,32,8,6,0,-1,-1
1523181893549658,-4,9,-3,-27,5,-9,0,-15
1523181893558361,14,-43,18,-7,-13,19,10,2
1523181893558361,-16,-11,0,27,10,-11,-7,10
1523181893573728,-26,-19,-18,-9,20,3,4,1
1523181893573728,-3,0,-10,7,-26,-4,-8,-14
1523181893574404,-5,10,26,28,-3,-6,-6,-4
1523181893574404,8,5,-20,20,20,1,4,-9
1523181893595749,-3,-17,11,-6,-8,0,-4,4
1523181893595749,7,-4,-42,2,3,3,9,10
1523181893597468,2,20,51,-27,-7,-5,-5,7
1523181893597468,24,10,-3,7,-7,-5,-9,7
1523181893609497,15,-3,-9,-3,8,-5,-7,8
1523181893609497,-22,10,-17,-21,2,5,16,-11
1523181893618345,-16,-4,27,3,-28,-6,-2,-12
1523181893618345,-33,-15,5,-5,8,-1,9,-3
1523181893633662,32,14,19,37,8,3,-2,6
1523181893633662,-4,-7,-5,-12,-15,-7,-9,-9
1523181893634773,-13,16,-59,-23,13,-1,11,3
1523181893634773,-5,0,43,42,-6,3,-4,3
1523181893656161,-35,-22,-38,-24,-9,-1,-1,-8
1523181893656161,32,24,1,4,1,3,5,-2
1523181893656831,-7,9,29,23,10,-2,-14,-8
1523181893656831,9,-4,20,-19,6,3,3,-5
1523181893668864,8,8,-4,-19,-4,-1,4,-17
1523181893668864,-14,-15,-24,22,-8,-4,-13,40
1523181893678129,67,24,-1,-37,-16,-5,-3,-4
1523181893678129,15,16,67,7,23,-7,-12,-7
1523181893693248,10,-7,-48,4,-11,8,-3,-1
1523181893693248,-61,0,26,13,9,-1,15,-13
1523181893694932,80,13,14,-8,-25,-7,-14,13
1523181893694932,-11,-19,-37,-15,-5,-5,-15,14
1523181893716251,11,7,44,-17,-17,-9,15,4
1523181893716251,46,-18,61,84,27,-1,-6,-8
1523181893716992,0,-22,-41,-34,-10,8,36,32
1523181893716992,3,11,-87,-42,-14,-4,-37,-9
1523181893729819,34,1,12,30,4,-6,-15,-8
1523181893729819,3,27,5,-2,-9,3,13,-8
1523181893745467,-9,1,20,33,14,0,-5,-5
1523181893745467,-22,-10,-1,-8,14,8,31,9
1523181893752468,14,2,-25,-7,-17,-10,-23,14
1523181893752468,38,-1,22,-23,8,-1,2,-1
1523181893759200,0,-10,-37,0,-2,1,-7,-9
1523181893759200,14,28,82,-45,-13,0,15,-4
1523181893776291,-27,-22,-21,59,3,-2,-7,-2
1523181893776291,-37,-18,-20,-7,-5,-3,0,-16
1523181893777250,-50,10,33,-10,10,-13,-9,-6
1523181893777250,30,-14,-23,16,2,17,-6,-2
1523181893798543,-26,16,-1,20,12,6,28,-6
1523181893798543,-8,-4,-29,-32,-9,0,-2,2
1523181893799309,-23,-20,15,25,2,-1,-10,12
1523181893799309,4,-24,-44,-2,-5,-4,4,4
1523181893813591,-55,21,25,-5,7,5,14,-15
1523181893813591,15,-18,2,-29,-14,-7,-28,6
1523181893814346,-16,16,-28,26,10,-2,-6,-10
1523181893814346,10,13,63,-1,5,-2,1,-10
1523181893835844,-12,-24,-17,-2,-12,4,24,37
1523181893835844,81,21,28,-1,-15,-8,-36,-19
1523181893837501,-37,-10,-34,-37,-11,-5,-6,-12
1523181893837501,-2,0,18,47,15,0,5,12
1523181893857552,6,1,13,21,2,-3,0,-11
1523181893857552,-49,-1,-36,0,-3,3,7,7
1523181893859555,-10,-2,3,-4,-2,8,13,-9
1523181893859555,0,1,12,-1,-9,-10,3,1
1523181893873642,8,-7,-82,-10,2,2,-7,6
1523181893873642,7,7,37,-58,3,6,15,-4
1523181893874596,-6,-16,45,52,4,2,-2,10
1523181893874596,-13,19,-42,-20,-20,-10,-12,-9
1523181893895955,20,10,60,-15,28,3,3,0
1523181893895955,-18,0,23,32,-14,5,9,-4
1523181893896655,5,-64,-11,-20,-1,-2,26,42
1523181893896655,-9,7,7,-1,0,-8,-26,-33
1523181893918805,12,0,28,1,1,-2,-15,0
1523181893918805,-7,6,-64,31,19,-1,7,-7
1523181893919816,8,9,-13,-54,-9,9,19,-13
1523181893919816,-19,-26,-30,-6,-20,-13,-20,16
1523181893932944,36,-8,-16,4,3,2,2,-2
1523181893932944,-32,2,36,24,16,8,18,-6
1523181893939773,11,17,-29,2,-11,-9,-39,15
1523181893939773,-10,4,39,-11,7,7,38,13
1523181893955795,9,14,-1,-12,2,-1,-8,-6
1523181893955795,2,-3,-45,-20,-17,-3,-6,1
1523181893957525,-2,17,8,6,6,-3,-4,-8
1523181893957525,-21,-9,-1,8,19,6,-1,-6
1523181893978750,15,13,12,-17,-21,-6,18,12
1523181893978750,8,-4,5,-3,-2,-9,-30,-6
1523181893979584,10,7,4,21,-5,1,16,-28
1523181893979584,28,2,-45,-51,-19,-3,-14,17
1523181893992617,-71,-29,49,13,-2,-7,-12,-29
1523181893992617,8,6,10,-4,4,0,29,7
1523181893999960,0,6,-1,21,5,-7,-55,-34
1523181893999960,7,-17,-36,-11,13,8,7,-18
1523181894014675,74,2,-25,-28,-29,3,37,14
1523181894014675,50,17,63,9,-10,-23,-74,20
1523181894023527,9,-8,-14,-3,-9,20,28,12
1523181894023527,38,18,19,16,-13,-8,21,17
1523181894038277,31,-1,-30,-34,9,10,14,-39
1523181894038277,-30,-20,25,38,27,-3,-46,-17
1523181894039967,-19,8,-10,-17,-16,-4,40,4
1523181894039967,48,-3,-66,-17,-13,-8,-60,-17
1523181894052287,-18,24,33,14,40,-2,21,4
1523181894052287,-3,-19,12,-15,-33,14,25,8
1523181894059013,8,-35,56,14,11,-6,-16,-14
1523181894059013,-11,-5,20,9,4,3,18,7
1523181894075058,-11,7,18,19,-4,-11,-18,17
1523181894075058,-16,-54,-128,-17,-2,-2,1,-15
1523181894077060,4,17,34,12,6,7,13,8
1523181894077060,33,1,48,-18,-10,-8,4,-1
1523181894098331,58,3,-25,13,-1,-8,-40,16
1523181894098331,16,21,21,-3,16,10,37,16
1523181894099120,6,4,-35,-28,-23,-6,2,0
1523181894099120,-69,-1,19,20,4,1,1,-11
1523181894112451,-21,2,-24,-3,-4,-5,-14,7
1523181894112451,3,17,2,-27,-1,16,7,6
1523181894119772,-60,-34,51,9,3,-8,-7,-9
1523181894119772,12,8,-21,11,11,0,-1,8
1523181894136339,23,-1,-2,-2,-15,-1,19,9
1523181894136339,-14,-1,50,30,31,5,-21,-22
1523181894137121,-10,-1,6,-36,-20,3,-1,1
1523181894137121,-8,-6,-33,57,-7,-9,-11,-8
1523181894158176,-34,-16,58,11,6,6,-2,-7
1523181894158176,-1,7,-19,11,22,-2,23,12
1523181894159178,2,-9,-89,-28,-27,-11,-20,0
1523181894159178,-27,-7,-8,-38,2,0,11,-23
1523181894172507,-2,4,31,-9,-2,3,-13,13
1523181894172507,0,16,49,41,-2,-5,1,0
1523181894179518,93,27,10,-1,11,4,11,0
1523181894179518,6,-27,17,25,23,4,15,12
1523181894195573,-48,-10,-43,-23,-19,0,-19,-32
1523181894195573,30,11,-3,-11,-10,-3,10,3
1523181894197282,14,10,-2,-7,8,-2,-5,1
1523181894197282,-49,-6,-50,16,-11,-1,7,14
1523181894218626,41,-30,24,-2,8,0,-10,8
1523181894218626,0,33,43,-1,-17,-4,1,-4
1523181894219848,-14,-10,-37,-38,5,-6,-1,6
1523181894219848,14,-6,-43,26,18,4,15,-19
1523181894232383,-30,-4,-57,-44,-28,4,-2,12
1523181894232383,11,-22,24,-1,-10,-14,-15,5
1523181894239508,-18,11,61,23,22,0,3,-3
1523181894239508,1,11,18,-24,11,2,-12,7
1523181894255577,10,-7,-32,-14,-26,-2,9,-6
1523181894255577,-12,-13,-10,-7,12,2,33,11
1523181894257261,29,19,10,5,-5,-9,-41,16
1523181894257261,-4,-11,12,20,16,-3,-16,-14
1523181894278614,10,4,-18,1,-6,-5,-6,-5
1523181894278614,-14,6,46,-10,-11,4,21,-5
1523181894279320,-59,-20,-19,7,7,-7,9,-17
1523181894279320,-81,-12,17,-3,-16,3,1,10
1523181894291351,-2,-8,-26,11,1,-15,-20,-3
1523181894291351,-10,-3,-104,-37,5,11,12,0
1523181894300624,-4,19,-39,6,-5,-3,21,-8
1523181894300624,21,15,58,5,-12,-5,-25,-2
1523181894315710,-31,-2,71,0,2,-2,-4,-8
1523181894315710,-24,-5,-28,-24,-17,-2,-14,-20
1523181894317423,47,-4,-34,24,10,5,19,11
1523181894317423,17,-9,-39,-74,-16,-5,0,-7
1523181894338577,-48,8,19,71,22,1,-2,-7
1523181894338577,88,-6,7,-47,-11,-7,-11,6
1523181894339168,32,-10,-39,-3,-9,0,-1,18
1523181894339168,8,5,13,-4,-5,-9,-27,-11
1523181894352389,22,7,-88,1,33,16,8,-6
1523181894352389,-20,-9,59,17,-37,-12,-8,9
1523181894360496,-3,18,60,2,4,2,-1,-12
1523181894360496,9,-28,-93,-7,48,-9,0,-10
1523181894376319,3,5,-22,-26,-51,9,11,0
1523181894376319,-30,12,-81,9,10,8,12,-11
1523181894377265,47,-5,108,11,-9,-7,-23,6
1523181894377265,21,29,28,3,-8,0,8,15
1523181894398653,3,21,70,18,21,-3,-8,-7
1523181894398653,-52,-30,-83,-30,0,-8,4,-1
1523181894399324,-56,-12,-28,-34,-9,16,25,-7
1523181894399324,52,1,29,-6,-19,-15,-26,19
1523181894411625,-55,1,23,-2,1,-5,-8,-3
1523181894411625,23,10,43,-6,-5,-1,-10,6
1523181894420886,-11,-6,0,33,27,-1,-6,1
1523181894420886,1,-7,-38,-11,-10,7,23,-1
1523181894436340,-1,-1,36,-19,8,2,22,14
1523181894436340,-3,5,27,32,-15,-11,-28,-9
1523181894437296,-35,-14,18,18,9,4,-9,-9
1523181894437296,-13,4,5,-30,10,15,24,-9
1523181894458353,32,4,4,2,-36,-16,-10,-5
1523181894458353,9,-10,-31,12,20,0,23,-13
1523181894459352,-7,19,49,12,1,-6,-27,47
1523181894459352,-26,-6,-85,-6,-17,-1,-5,-2
1523181894471670,12,-6,-10,30,60,-5,-4,-18
1523181894471670,16,13,17,10,-30,24,35,12
1523181894480413,-17,-1,-51,-13,-32,-6,-5,-34
1523181894480413,57,29,37,-3,3,-8,-24,33
1523181894495771,-58,-16,-22,13,-2,-1,0,3
1523181894495771,-10,-4,-66,14,32,1,6,-2
1523181894497454,29,6,22,-9,-6,7,16,-3
1523181894497454,12,12,48,33,-5,5,7,-16
1523181894517787,5,-17,-33,-9,-9,-3,-2,-2
1523181894517787,-19,-8,-36,-11,3,-12,-20,-9
1523181894520019,-35,-2,-39,-10,20,-5,-2,-9
1523181894520019,-30,-1,49,16,-6,13,8,-25
1523181894532054,32,6,-18,-41,-15,1,3,15
1523181894532054,-16,-6,-7,14,-5,-15,-22,-9
1523181894540170,2,-17,-40,-68,-15,-11,-9,-9
1523181894540170,-23,9,10,44,9,-5,6,-2
1523181894555521,6,0,-8,-3,-7,17,14,0
1523181894555521,2,11,67,-20,-1,4,1,8
1523181894557212,-39,-28,-16,36,10,1,10,7
1523181894557212,54,5,27,-11,-8,-9,-15,-5
1523181894578269,-20,9,-14,-16,1,-3,-3,-3
1523181894578269,5,-11,-11,0,8,-6,1,-9
1523181894580274,-2,25,-7,12,14,4,9,6
1523181894580274,-3,-18,34,-35,-20,17,31,0
1523181894591303,52,-13,-6,-14,-19,-20,-25,51
1523181894591303,-24,18,46,24,6,2,-14,-9
1523181894600621,-5,-15,-6,-18,18,-13,0,-25
1523181894600621,-1,-6,-37,-18,-28,7,-11,1
1523181894615595,4,10,16,38,18,3,11,-18
1523181894615595,-21,-26,28,0,-10,-2,-2,14
1523181894617371,10,16,-48,0,3,-4,-27,6
1523181894617371,-20,0,-25,5,7,-4,6,-1
1523181894638473,-17,-24,-24,19,3,4,6,-8
1523181894638473,26,13,-40,-55,7,-3,11,4
1523181894639173,-14,6,49,18,-20,8,-15,1
1523181894639173,-11,-6,-13,19,10,-5,22,0
1523181894652399,26,-17,15,-8,-10,-10,-49,-14
1523181894652399,18,5,-1,-15,-1,-4,13,13
1523181894660527,47,15,-25,12,-8,4,7,-3
1523181894660527,-8,-19,52,-5,-6,0,0,15
1523181894675579,33,9,-29,-43,-10,-11,-10,-13
1523181894675579,44,-21,43,-9,-1,0,-13,-22
1523181894677273,37,-6,-6,24,-8,-6,6,-2
1523181894677273,10,0,-44,56,22,-13,-33,-2
1523181894698564,-29,-12,-42,-68,-28,8,13,-9
1523181894698564,-11,15,-2,-15,-10,1,-6,3
1523181894699333,-9,-7,-2,6,1,5,24,-4
1523181894699333,22,6,1,-15,-1,-13,-27,0
1523181894720708,-3,-10,38,68,14,2,1,6
1523181894720708,-13,12,-73,-26,5,-11,-2,-6
1523181894722214,0,3,41,-17,1,25,3,5
1523181894722214,-20,1,33,74,3,0,11,2
1523181894735013,-21,-14,-83,-67,-2,-3,-1,-8
1523181894735013,9,4,51,28,-12,-6,-11,3
1523181894737121,-4,17,52,23,20,5,5,0
1523181894737121,-9,1,37,18,-9,-3,0,-4
1523181894758178,-14,-2,-7,6,-3,1,5,-16
1523181894758178,35,-6,-35,16,8,4,-7,26
1523181894759180,-1,18,30,10,-1,-5,-13,-1
1523181894759180,14,-25,-60,-90,-9,2,15,-5
1523181894780236,-7,-2,25,11,-7,-13,-6,-7
1523181894780236,18,17,72,36,5,4,14,12
1523181894782238,-21,-20,-117,-89,-14,-9,-19,-15
1523181894782238,16,20,44,89,25,1,4,4
1523181894795550,-3,6,3,-47,-7,6,4,7
1523181894795550,-36,-2,65,-39,-13,8,19,-5
1523181894797279,73,-12,-21,-9,-4,-13,-11,5
1523181894797279,-25,2,-33,-33,12,0,3,-7
1523181894818676,8,30,50,37,4,-3,-5,2
1523181894818676,-15,-28,21,-48,-18,1,-16,-9
1523181894819848,11,-16,43,51,3,-3,7,4
1523181894819848,-5,6,-12,34,-3,-4,-3,-3
1523181894840012,8,15,22,-3,8,1,0,5
1523181894840012,0,3,-17,48,22,-3,-4,-5
1523181894842015,-34,16,17,-64,-56,6,9,-2
1523181894842015,-13,-48,6,-2,3,-4,-9,-4
1523181894856184,-10,6,18,28,-6,-4,-6,11
1523181894856184,20,-6,-23,-3,10,-3,2,1
1523181894857058,-13,-4,-32,87,48,0,-11,-10
1523181894857058,-12,8,-9,-92,-34,6,2,-9
1523181894878454,1,10,-15,-1,7,2,16,2
1523181894878454,18,-22,16,30,6,9,-5,7
1523181894879115,25,46,29,29,1,-9,-3,5
1523181894879115,4,-17,-31,-18,-11,-2,-9,5
1523181894900485,5,-2,-33,9,13,0,-6,-3
1523181894900485,-21,8,-24,-33,-14,-1,1,-6
1523181894902175,-25,-23,0,-8,4,-2,9,-1
1523181894902175,-5,38,84,1,8,6,3,-1
1523181894915543,-15,-32,-67,-9,-22,-1,9,-21
1523181894915543,39,6,-27,49,-1,-10,-16,-1
1523181894922315,31,-16,-2,12,-4,-8,-18,7
1523181894922315,18,12,-41,-54,-1,-8,-15,-4
1523181894938488,7,6,71,31,8,3,4,-4
1523181894938488,-3,11,-71,-7,1,14,14,-12
1523181894939182,30,-17,-11,47,6,-7,-13,18
1523181894939182,-9,14,-39,1,-12,-8,-15,-16
1523181894960483,-23,-40,-50,-22,1,1,7,20
1523181894960483,-6,2,-6,27,-8,-5,-8,-10
1523181894962242,-8,13,28,-25,-5,-2,3,0
1523181894962242,-8,0,-33,-11,-4,5,14,5
1523181894975539,22,6,21,7,33,3,-7,12
1523181894975539,-21,-18,18,-20,-25,-1,3,10
1523181894981608,-39,-22,-72,-83,-21,0,-3,-23
1523181894981608,-1,-2,48,44,12,3,17,5
1523181894998583,25,12,21,-10,0,-5,-2,21
1523181894998583,-17,7,3,-12,7,-5,-22,-29
1523181894999341,-55,9,61,27,1,2,21,-7
1523181894999341,-3,-17,17,-21,-3,-1,-16,7
1523181895020679,5,10,11,32,-2,4,15,-3
1523181895020679,-17,-6,-26,7,9,-3,-9,8
1523181895022186,16,31,-20,-12,-5,0,1,2
1523181895022186,-10,-47,-51,22,7,1,2,-17
1523181895035466,-5,-11,35,-10,-12,0,9,14
1523181895035466,-11,-2,-23,-6,-5,-5,-11,-19
1523181895041630,8,15,14,2,6,5,5,-14
1523181895041630,5,10,4,-3,6,2,6,23
1523181895057674,18,12,45,25,-2,-1,-6,-9
1523181895057674,-11,-11,47,-31,2,0,19,-6
1523181895059678,-12,-12,-49,11,2,-13,-27,0
1523181895059678,13,21,1,13,-4,17,15,1
1523181895080966,64,-16,-18,-41,-41,-17,-14,-4
1523181895080966,26,-7,-63,63,10,-7,-4,11
1523181895081739,-21,-7,-4,-33,9,0,15,-7
1523181895081739,4,17,-19,52,13,0,-2,2
1523181895095084,-37,-25,26,3,9,12,0,-9
1523181895095084,-34,17,-28,-14,-13,-3,11,6
1523181895102095,-41,-43,58,5,-8,-8,-22,-4
1523181895102095,47,11,-24,-11,4,0,1,0
1523181895118147,-49,-1,-11,-35,2,-2,-4,-20
1523181895118147,2,3,-16,-41,-7,-3,-1,0
1523181895119838,13,4,11,7,-4,7,16,5
1523181895119838,46,13,10,0,-17,-10,-17,1
1523181895140510,-38,7,-6,-10,2,-5,-3,-1
1523181895140510,1,-22,-2,-19,11,12,5,1
1523181895142514,19,-10,2,-2,-2,-6,-14,8
1523181895142514,-28,-15,-15,-11,-9,-1,11,-4
1523181895154847,23,36,39,-3,3,-1,-8,6
1523181895154847,-19,-37,-9,-34,-4,-2,4,-1
1523181895161832,-35,35,49,48,-1,2,-11,-1
1523181895161832,2,-25,-35,14,2,0,-2,3
1523181895178657,-9,-6,13,14,11,1,10,-14
1523181895178657,56,31,27,-47,-11,1,4,14
1523181895179615,-13,-14,-14,43,0,-2,0,-2
1523181895179615,-24,-11,31,-68,-4,-7,-6,6
1523181895200991,-4,11,-19,15,14,5,5,-1
1523181895200991,-7,0,14,7,-10,-3,-4,-4
1523181895201674,18,-12,17,7,0,-3,1,4
1523181895201674,-10,-1,95,-14,4,-8,1,-4
1523181895213704,13,-8,-52,-19,8,4,-2,0
1523181895213704,-22,-6,-16,8,-23,0,-4,-7
1523181895223503,29,10,-9,-18,5,4,18,15
1523181895223503,-16,11,-45,-15,-2,-3,-10,-2
1523181895238294,-4,-15,-3,0,-3,-4,2,17
1523181895238294,-8,-21,24,54,21,-1,-3,-1
1523181895240043,-22,-10,0,-10,-8,2,1,-5
1523181895240043,-2,13,-23,-25,-7,4,19,13
1523181895260369,13,2,38,8,-1,-3,-5,-3
1523181895260369,-25,8,-34,18,-2,-5,-22,-3
1523181895262103,0,1,-29,-55,-7,-1,0,-3
1523181895262103,-15,-13,36,62,11,2,0,-2
1523181895274136,-6,3,-20,-24,-12,-3,3,-4
1523181895274136,7,-9,9,-2,2,-4,-7,-5
1523181895283161,-14,1,-10,-3,-4,-4,-13,-15
1523181895283161,-5,-4,18,34,3,-4,-15,-13
1523181895298497,1,5,-10,18,0,5,11,0
1523181895298497,-1,0,16,-15,2,-2,1,-7
1523181895299202,25,0,-34,12,9,8,4,-4
1523181895299202,-4,-12,32,-15,-10,-4,-4,-1
1523181895321085,-2,0,-30,-2,-5,-5,-12,-1
1523181895321085,1,16,45,14,10,4,9,2
1523181895322557,-13,-17,7,-5,1,2,-1,-4
1523181895322557,29,15,31,27,-4,-2,1,-8
1523181895335323,13,3,11,-7,-1,0,-4,-2
1523181895335323,-12,1,5,-6,-2,-1,-2,1
1523181895342951,-17,-4,66,33,6,2,18,3
1523181895342951,48,-8,-3,-94,-17,-8,-20,-1
1523181895357877,-11,12,31,61,9,-3,-10,-5
1523181895357877,10,25,36,47,-3,-6,-9,9
1523181895359882,18,-5,1,-18,0,6,22,13
1523181895359882,-21,0,-15,9,-6,-1,-1,1
1523181895380936,1,4,-10,-61,-3,6,5,2
1523181895380936,-3,-2,11,53,3,-5,-7,-1
1523181895381940,-5,1,-13,-18,2,-6,-9,-4
1523181895381940,-23,-2,18,22,6,6,12,-4
1523181895394236,-5,-12,-50,-18,-11,0,1,-7
1523181895394236,-3,7,10,-24,-3,-1,1,-12
1523181895411018,1,-3,-15,2,-3,-4,-9,11
1523181895411018,1,0,-38,-11,8,2,-4,-8
1523181895418306,27,-4,46,34,7,-6,-17,18
1523181895418306,2,-15,-31,-1,-16,1,9,-1
1523181895420041,11,22,69,20,-3,-9,-15,-8
1523181895420041,-17,14,26,20,-9,9,6,4
1523181895440735,-14,-24,6,3,-1,1,8,1
1523181895440735,-5,3,5,18,9,0,-5,5
1523181895441735,20,-13,-42,-43,-6,-4,-6,2
1523181895441735,-13,9,-37,-21,-10,-2,9,-6
1523181895454769,-11,5,7,37,13,3,-6,-6
1523181895454769,-24,-8,31,-41,-10,1,10,2
1523181895462793,-8,-9,-96,13,2,-4,-8,-8
1523181895462793,-13,-17,-13,-2,-6,1,23,-1
1523181895478097,3,32,28,2,-4,-4,-22,-24
1523181895478097,47,-46,-112,-61,1,-1,-1,3
1523181895479839,-6,3,97,9,-6,-2,-4,-2
1523181895479839,-2,-16,-69,28,6,-1,2,2
1523181895501158,0,-5,59,-12,-8,-4,17,-3
1523181895501158,-14,4,51,41,9,4,4,-6
1523181895501898,11,1,-59,-40,-12,-5,-6,8
1523181895501898,17,17,4,28,9,1,-3,-6
1523181895514146,0,-11,-31,-32,-7,-2,-4,4
1523181895514146,-11,17,-3,-2,-7,-5,-7,-7
1523181895523239,-9,-14,-48,-12,-18,0,3,-2
1523181895523239,-5,11,24,-9,-5,-2,7,8
1523181895538045,-11,-40,-46,53,11,-8,-22,-16
1523181895538045,16,14,45,-2,2,-4,-3,6
1523181895539675,1,-5,-23,-30,-5,-1,-8,-7
1523181895539675,-18,-17,25,-74,-17,-6,-10,-6
1523181895561008,-7,3,4,39,6,3,7,-5
1523181895561008,42,5,-38,-36,-3,-2,5,-6
1523181895561734,-2,2,-8,56,20,2,-5,-1
1523181895561734,11,18,3,-62,-15,0,-5,-9
1523181895573765,-6,-33,-35,8,9,5,21,-6
1523181895573765,-24,10,26,28,6,-1,-5,-8
1523181895582937,-1,11,-53,-10,0,1,8,1
1523181895582937,-1,-11,31,30,14,-5,-14,7
1523181895598121,-7,11,-12,-9,-8,2,14,12
1523181895598121,-9,-22,-74,4,-1,4,4,3
1523181895599834,-30,-6,-16,-28,-9,-1,-12,-23
1523181895599834,11,1,27,13,-10,-9,-7,0
1523181895621151,0,7,-20,-12,-10,-2,-4,9
1523181895621151,-11,14,32,27,4,3,0,7
1523181895622161,4,-25,40,13,3,4,5,2
1523181895622161,-21,-27,-28,-38,-9,-7,-5,-2
1523181895634460,-7,41,-30,-15,-6,-7,-13,15
1523181895634460,30,-4,3,-14,2,5,9,1
1523181895643071,-3,7,82,28,-4,-5,-10,-3
1523181895643071,-11,-5,-66,4,2,1,1,7
1523181895658345,5,-5,4,13,6,3,-10,0
1523181895658345,-3,7,23,22,5,5,24,-2
1523181895659114,24,14,74,-15,-4,-1,4,11
1523181895659114,5,1,-23,20,7,-2,-3,12
1523181895688615,9,7,-9,-18,-6,-5,-6,-6
1523181895688615,-15,-2,-27,-13,-11,0,2,10
1523181895689193,6,-7,-13,8,1,-2,-11,-8
1523181895689193,-8,11,41,11,9,3,7,-1
1523181895703654,-3,-15,-17,-14,-14,-11,-10,-1
1523181895703654,-9,-7,-8,11,7,-1,-1,-2
1523181895705379,-7,-2,-101,-73,-10,4,8,-3
1523181895705379,-10,12,80,23,6,2,4,-2
1523181895718662,-12,-23,-26,1,-11,-4,-11,-13
1523181895718662,-3,-2,39,26,6,2,1,0
1523181895720321,-34,-8,-18,2,-4,-4,3,-7
1523181895720321,3,-9,-4,26,0,-4,-8,-5
1523181895740616,21,-2,1,-20,-2,-1,1,3
1523181895740616,-1,5,5,-12,-3,0,-4,-8
1523181895742883,-10,-14,-28,9,4,2,3,-2
1523181895742883,6,18,-14,-8,-2,-4,-20,2
1523181895763872,-3,-15,-21,-1,-4,-2,5,5
1523181895763872,-11,-5,-28,-20,-4,-2,-6,-17
1523181895764682,5,11,-14,3,1,-3,-8,12
1523181895764682,1,-8,-21,4,0,-1,1,-8
1523181895778100,-41,-19,49,-3,2,4,4,-2
1523181895778100,-13,2,-35,-11,-12,-14,-28,0
1523181895785048,6,3,3,45,12,15,30,-8
1523181895785048,6,6,-4,-10,4,3,6,-2
1523181895801106,13,-1,21,18,-3,-4,-13,0
1523181895801106,-7,-29,-55,-41,-12,-4,3,7
1523181895801780,4,23,61,44,7,2,-3,-14
1523181895801780,-11,-6,-24,-14,-9,-5,-9,24
1523181895822835,16,18,-17,-21,0,2,14,1
1523181895822835,-5,1,-45,0,9,-1,-6,-8
1523181895824841,14,11,44,20,-13,-1,1,3
1523181895824841,-5,-5,4,16,9,5,10,-12
1523181895838085,10,18,33,-54,-14,-6,-17,11
1523181895838085,-22,-19,-53,-3,4,-6,14,0
1523181895844178,-38,-6,-57,-10,0,-3,-10,-16
1523181895844178,18,19,58,25,4,-1,2,-3
1523181895861172,-5,10,41,13,-9,-6,8,-7
1523181895861172,-4,8,29,-8,22,18,11,2
1523181895861941,43,-23,-34,-72,-17,-14,-15,-6
1523181895861941,-3,9,81,12,2,-2,-14,12
1523181895883305,9,10,-35,-18,1,4,8,3
1523181895883305,2,2,-40,14,-10,-5,4,3
1523181895884999,-25,-18,13,0,-5,-6,-5,24
1523181895884999,-13,-24,9,-12,-2,1,16,-6
1523181895898084,15,1,20,21,9,3,-12,13
1523181895898084,7,20,123,55,2,0,-4,0
1523181895904352,-9,-14,-62,-33,2,4,6,6
1523181895904352,12,11,-44,-68,-13,1,6,-33
1523181895921117,-72,-17,12,39,5,-1,-9,-3
1523181895921117,-8,-3,22,29,1,-1,0,-3
1523181895922102,5,9,10,-10,-4,-4,3,6
1523181895922102,-9,-19,-101,-31,-1,0,3,-23
1523181895943500,1,-25,-17,6,2,1,4,-10
1523181895943500,13,7,55,2,-8,-5,-23,3
1523181895944158,-12,-1,-41,-41,8,5,12,-3
1523181895944158,6,5,-12,30,1,0,-4,1
1523181895965530,13,9,-45,-32,-7,4,6,-4
1523181895965530,-15,-11,31,-1,-1,-5,3,-8
1523181895967223,27,-3,7,32,6,-4,-13,11
1523181895967223,-8,-11,15,0,-9,-2,8,3
1523181895980491,10,-1,-11,21,8,-2,-23,-13
1523181895980491,19,27,22,-13,-8,5,8,2
1523181895982261,-65,-42,-14,22,2,7,17,-5
1523181895982261,-1,1,0,10,-2,-10,-20,3
1523181896003316,33,27,46,13,6,-2,0,30
1523181896003316,-6,-14,-6,-62,-7,3,7,-2
1523181896004317,19,-1,-31,5,7,2,4,5
1523181896004317,-7,15,6,38,-10,-12,-20,-8
1523181896017352,-14,-36,8,-6,6,4,22,-1
1523181896017352,2,20,-20,-37,-3,5,-9,2
1523181896024781,-8,-8,12,-13,-8,-3,0,-1
1523181896024781,15,-1,20,-3,5,-2,-2,10
1523181896040414,28,15,-66,-13,-12,-5,-10,-12
1523181896040414,-12,-18,-42,16,1,-9,-3,-7
1523181896042419,13,33,42,5,-4,-4,-1,11
1523181896042419,-14,-11,-14,-14,-2,-1,-7,2
1523181896063706,21,7,60,18,7,4,14,15
1523181896063706,-62,-15,15,-18,-8,0,-7,-10
1523181896064479,19,19,28,28,-4,-3,-15,-4
1523181896064479,3,28,7,-9,-4,-1,-4,10
1523181896076930,4,-75,45,69,12,7,9,15
1523181896076930,9,0,-18,16,4,-4,-1,-7
1523181896085739,-1,12,5,-58,-9,-1,-3,3
1523181896085739,6,-19,-28,-11,5,-1,-6,2
1523181896100986,-7,45,-7,-13,-9,-4,-6,-21
1523181896100986,14,-19,-7,26,-6,-5,-6,9
1523181896102578,-2,-1,65,24,8,6,-7,-9
1523181896102578,15,7,-38,21,7,1,9,6
1523181896122632,-4,13,-10,-46,-1,0,-1,-18
1523181896122632,12,5,9,23,2,-12,-25,5
1523181896124639,8,11,22,5,-7,-1,5,10
1523181896124639,-22,-5,38,-2,14,15,28,-3
1523181896137988,-78,14,19,-23,-15,-9,-4,-20
1523181896137988,-20,-25,-57,-11,-5,-10,-21,-16
1523181896143723,18,-3,60,10,3,1,1,-5
1523181896143723,-10,-8,-5,27,0,-4,-2,-4
1523181896159730,-3,-1,52,14,1,4,9,9
1523181896159730,19,-28,-93,-96,-11,-1,-12,-5
1523181896166750,-13,18,1,16,1,-7,1,-9
1523181896166750,-4,-13,3,14,0,0,-5,-6
1523181896183107,7,-9,-2,23,7,6,7,-5
1523181896183107,12,3,20,7,-1,0,4,4
1523181896184800,-14,-6,32,8,-2,-3,0,-5
1523181896184800,2,-12,-38,-25,-6,0,-6,-2
1523181896196829,5,15,-41,-2,2,-3,-9,-2
1523181896196829,-12,13,46,5,5,5,8,4
1523181896205854,43,-19,-26,-57,-5,1,-4,-1
1523181896205854,-64,3,-74,-10,-3,-6,-4,-8
1523181896221168,-10,4,41,6,-2,-2,-6,-7
1523181896221168,4,16,7,18,3,3,10,6
1523181896221897,8,12,-24,-3,-1,0,2,-5
1523181896221897,15,-13,54,12,-7,-1,1,3
1523181896244242,6,5,-45,-47,-12,-10,-19,-3
1523181896244242,14,-3,17,19,6,3,-1,9
1523181896244958,-6,4,-40,30,1,0,7,4
1523181896244958,15,15,63,1,2,2,5,-7
1523181896256988,-11,-47,-37,6,1,1,-5,3
1523181896256988,14,15,22,29,-3,-5,-8,-4
1523181896266014,-8,-5,43,42,4,-2,0,3
1523181896266014,2,-14,-76,-73,-9,-2,-4,-5
1523181896281299,17,16,68,29,9,2,12,6
1523181896281299,-3,-27,-10,-13,-10,2,8,0
1523181896282058,-35,4,-12,-8,-11,-6,-13,-11
1523181896282058,-8,-9,-17,21,11,4,13,12
1523181896303427,7,17,-8,5,2,-4,-4,-3
1523181896303427,-4,15,25,48,17,3,13,4
1523181896304116,-11,2,29,-91,-16,-1,-1,-20
1523181896304116,8,-22,-24,25,-4,-1,-11,-13
1523181896317416,-1,20,-47,5,-4,0,6,1
1523181896317416,-11,21,46,-7,-2,-3,-5,-7
1523181896325169,41,13,-74,13,9,4,5,16
1523181896325169,7,5,85,11,1,-5,-19,2
1523181896341284,-3,-27,-102,-43,-3,2,10,-4
1523181896341284,0,0,-20,-8,-12,-2,-4,-2
1523181896342216,10,12,-39,19,4,-3,-4,4
1523181896342216,-1,2,33,-12,2,-3,-12,-5
1523181896363628,4,-19,-37,4,-7,2,0,3
1523181896363628,8,9,77,1,-5,-5,-5,5
1523181896365278,-12,-10,1,11,4,3,-1,0
1523181896365278,-2,7,-17,14,-5,-7,-6,2
1523181896385649,8,18,65,17,8,2,5,-2
1523181896385649,-4,-15,-11,10,-19,5,-1,2
1523181896387338,-3,1,64,37,6,-6,2,-12
1523181896387338,-23,-11,23,-47,-3,2,1,-10
1523181896400684,-31,-8,14,-4,-3,-6,-11,-5
1523181896400684,7,4,25,-20,6,0,4,-2
1523181896402378,-24,-11,-46,32,6,3,0,-10
1523181896402378,35,26,51,16,1,-3,3,21
1523181896422430,9,-18,-17,-43,-17,-2,4,-2
1523181896422430,5,38,20,-3,-1,-1,-4,-3
1523181896424438,-7,-2,100,14,0,-3,0,-12
1523181896424438,-2,1,26,6,8,6,9,-1
1523181896436806,7,2,52,90,21,8,-2,4
1523181896436806,-9,-15,-33,-11,-8,-6,-1,-11
1523181896445491,5,7,-10,-25,-10,-4,-10,5
1523181896445491,19,-3,-40,-4,-5,-3,1,-4
1523181896460868,24,29,11,20,9,-3,6,-5
1523181896460868,-18,-33,-16,-40,2,10,13,7
1523181896462535,-10,-4,-30,-5,-9,-3,2,2
1523181896462535,-1,22,45,22,12,5,-5,1
1523181896483736,0,-18,-99,-42,-11,-5,4,-14
1523181896483736,30,17,-8,19,10,-6,-4,31
1523181896484596,-11,-28,-81,-5,-1,-1,-6,-16
1523181896484596,-11,-11,20,-70,-9,1,8,0
1523181896496932,6,19,72,44,9,-7,-14,8
1523181896496932,-7,-3,-54,-7,-5,4,2,-28
1523181896505651,13,8,54,11,0,-2,-9,4
1523181896505651,-2,-28,-78,2,-2,-3,-3,-1
1523181896520984,1,1,-27,-13,-21,-3,-4,1
1523181896520984,-2,-8,-7,-2,19,-1,5,-2
1523181896521693,8,26,75,-1,-8,-2,-4,12
1523181896521693,-10,-27,-68,-3,-5,-7,-7,-10
1523181896543051,-23,-30,-18,-6,0,-2,7,6
1523181896543051,6,-9,-2,-14,-7,4,5,7
1523181896544754,4,-5,8,-40,9,1,6,-3
1523181896544754,9,23,66,37,-8,-2,5,-1
1523181896564897,13,3,-56,-25,2,3,-5,1
1523181896564897,-11,-7,-6,-3,-8,0,-3,-14
1523181896565811,-19,-25,-37,-65,-6,0,13,13
1523181896565811,48,-16,30,26,-1,-9,-15,4
1523181896579847,1,19,8,-19,-7,-2,-4,4
1523181896579847,1,-10,4,22,9,-3,-2,2
1523181896588021,21,25,75,32,11,4,2,1
1523181896588021,-47,-11,-95,-88,-19,-5,-19,-7
1523181896602913,9,1,66,72,7,-1,11,4
1523181896602913,1,-5,26,17,2,1,-17,-5
1523181896602913,16,34,94,38,-2,-5,-3,33
1523181896602913,-27,-31,-105,-21,17,10,18,-3
1523181896625271,4,-9,12,-4,-5,-3,-5,-1
1523181896625271,-11,7,9,-28,0,-11,-3,-3
1523181896625970,5,-1,-53,-34,1,12,20,0
1523181896625970,26,36,41,37,0,-3,-7,10
1523181896640008,-27,4,47,-16,-4,-4,-18,-6
1523181896640008,3,-12,12,16,-12,-5,0,0
1523181896640008,-14,-7,-76,-16,14,1,-2,-7
1523181896640008,-45,-38,41,50,-1,-3,1,3
1523181896662152,-7,18,47,-11,0,0,-6,-10
1523181896662152,1,-5,-52,-61,1,-6,5,-14
1523181896663070,-3,-5,55,80,-11,6,-5,-16
1523181896663070,-3,-10,-1,11,-4,-3,-1,2
1523181896685453,-27,-9,33,30,5,1,-5,-1
1523181896685453,-15,-12,-19,13,-5,-8,-1,12
1523181896685453,-4,-10,-34,-23,7,-3,-3,-8
1523181896685453,10,18,13,4,-4,5,7,0
1523181896708470,-24,8,-7,5,0,2,-2,-2
1523181896708470,30,6,100,37,6,2,-6,-2
1523181896709192,-22,-25,-101,-72,-15,-4,-7,-9
1523181896709192,-4,-7,35,64,5,2,5,1
1523181896722260,5,-10,-28,-50,2,5,16,0
1523181896722260,13,21,-33,-2,-5,-1,-1,20
1523181896723228,17,1,11,25,3,-5,-19,-11
1523181896723228,15,26,32,16,14,5,10,2
1523181896744588,-2,-40,-55,-88,-21,1,12,-22
1523181896744588,-17,13,-59,-7,-1,2,2,1
1523181896745288,8,-1,31,32,-2,-6,-6,1
1523181896745288,8,19,29,-27,0,-1,1,1
1523181896760572,-1,-4,-30,18,1,-7,-3,-2
1523181896760572,-14,3,-22,18,3,6,-1,-8
1523181896760572,-5,1,-26,-1,-3,-5,2,18
1523181896760572,1,7,-34,-33,-16,-9,-3,-7
1523181896782701,15,2,19,6,26,6,3,12
1523181896782701,-9,-8,50,-11,-14,0,-6,0
1523181896783390,20,-8,-22,-8,4,0,2,-2
1523181896783390,-7,20,49,13,5,4,0,4
1523181896804589,6,-34,-101,-42,-13,-14,-16,0
1523181896804589,-30,13,-10,-21,11,8,16,-18
1523181896805450,8,7,-67,-9,-2,1,5,-3
1523181896805450,-12,-11,-53,-28,-12,-5,-7,-5
1523181896820569,0,-2,-40,35,0,1,-1,-1
1523181896820569,65,15,-8,10,10,6,13,4
1523181896820569,9,-14,64,0,-18,-7,-8,-9
1523181896820569,12,10,9,-5,5,4,6,-9
1523181896842835,6,8,-12,19,3,-7,-16,3
1523181896842835,-4,13,28,24,-14,-3,-4,-5
1523181896842835,-15,-10,57,6,8,-1,-2,6
1523181896842835,-4,-20,-56,-22,-7,-4,-26,-13
1523181896864906,8,18,24,-15,-9,0,-4,10
1523181896864906,-14,-9,-6,-6,0,-6,0,-3
1523181896865608,-20,-25,29,-10,-2,-2,-3,-6
1523181896865608,-15,12,-7,10,5,1,7,24
1523181896879954,6,-1,-56,52,1,0,7,-20
1523181896879954,-3,-9,10,-64,-9,-2,-1,12
1523181896880650,-5,21,-23,52,-3,-8,-8,4
1523181896880650,-2,-18,-61,-30,-6,2,8,4
1523181896902973,-4,4,23,55,5,2,6,5
1523181896902973,4,-10,-39,-5,5,-1,1,6
1523181896902973,16,3,51,16,-4,-3,-1,-2
1523181896902973,11,5,23,10,5,-1,-6,-3
1523181896925083,-5,1,14,-30,-11,-3,-1,-6
1523181896925083,1,-15,56,59,-1,-6,-4,-7
1523181896925770,-14,-1,-11,6,5,-3,-2,-5
1523181896925770,1,-20,-38,-22,12,4,-3,-3
1523181896939806,0,19,6,-23,-29,-1,0,-4
1523181896939806,-38,-31,-88,-45,-21,-5,9,11
1523181896940808,10,12,32,37,-3,-3,-17,1
1523181896940808,-20,-10,17,18,0,-1,17,-10
1523181896962865,-34,-5,3,-45,7,0,-3,-5
1523181896962865,-5,5,18,-1,-4,-12,-22,-18
1523181896962865,-5,-5,5,-17,0,7,19,7
1523181896962865,-21,-15,-94,-29,-7,-4,-2,-14
1523181896985257,22,-3,30,17,9,2,7,10
1523181896985257,1,12,23,16,-6,-6,-28,-11
1523181896985929,-9,-6,-69,-13,16,3,12,-1
1523181896985929,15,27,127,0,19,1,-8,-1
1523181897000272,-6,-21,-36,-41,-32,-2,-1,-6
1523181897000272,17,-10,-97,29,6,-2,7,15
1523181897000967,29,-1,-8,-16,-5,-6,-16,7
1523181897000967,8,12,50,48,6,-3,-3,5
1523181897022023,-3,-40,-9,-19,2,-1,9,-1
1523181897022023,15,3,38,-1,21,15,13,-7
1523181897023024,14,-4,-21,-24,-25,-15,-20,12
1523181897023024,6,24,54,21,-3,-3,-9,6
1523181897045173,-1,23,0,12,5,-2,3,5
1523181897045173,13,3,42,1,-6,0,7,-3
1523181897045173,-18,4,-10,47,11,4,3,-20
1523181897045173,-9,-23,-24,-90,-18,-5,-2,-6
1523181897060456,10,6,-37,1,1,-3,12,0
1523181897060456,-17,6,-1,46,9,-1,-27,-10
1523181897060456,16,9,-54,-55,-10,-1,-8,19
1523181897060456,-5,-14,56,60,2,7,24,-4
1523181897082522,-4,-11,-5,-76,-3,-9,-7,1
1523181897082522,-5,-2,-8,24,-1,-1,6,-1
1523181897083186,-21,3,27,-4,-2,-4,-11,2
1523181897083186,25,-2,-2,19,-8,9,14,8
1523181897105245,2,-1,-26,-31,-5,0,-3,6
1523181897105245,4,16,57,-13,2,-3,10,2
1523181897105245,-59,-8,-70,2,-2,1,-2,-15
1523181897105245,9,-3,26,20,8,-5,-19,-8
1523181897119556,-14,14,16,49,12,4,-6,-19
1523181897119556,15,10,22,-37,-19,-9,7,0
1523181897120285,-11,-11,-22,16,9,13,20,-17
1523181897120285,45,19,-32,-6,-9,-12,-20,-8
1523181897142346,19,3,-15,30,10,2,-22,8
1523181897142346,-9,35,67,16,15,6,2,-9
1523181897143346,6,-33,-50,-39,-3,2,19,-7
1523181897143346,-14,8,-16,4,-7,-3,-7,6
1523181897165586,55,20,-8,-27,-3,-2,3,-7
1523181897165586,7,28,-49,9,0,-1,-8,-7
1523181897165586,-5,-10,32,2,7,0,-3,3
1523181897165586,-19,-33,-104,28,-7,-4,3,-1
1523181897179680,-2,16,49,-51,11,11,-1,0
1523181897179680,-12,-18,-33,-6,-8,-4,3,3
1523181897187610,-6,16,49,13,-3,-5,-9,-5
1523181897187610,8,-8,-40,-15,1,1,-1,-3
1523181897202802,-14,-22,44,26,2,0,2,-3
1523181897202802,-24,-26,0,7,2,3,11,-7
1523181897203506,54,21,-23,-12,-5,-2,-14,19
1523181897203506,7,7,-27,46,10,-4,-20,1
1523181897224884,-26,-15,-34,40,-10,-7,4,2
1523181897224884,-5,-15,8,-6,2,1,-6,2
1523181897225565,-9,19,-40,16,4,4,12,-7
1523181897225565,-3,16,93,13,6,3,-1,-7
1523181897238598,4,-6,-3,18,-4,-1,-1,6
1523181897238598,-3,-10,-84,-54,-7,-6,-11,-5
1523181897247913,-4,-14,14,11,1,-2,5,8
1523181897247913,-4,9,-17,-2,1,3,5,-2
1523181897262914,-64,-14,31,-9,-12,-7,-10,-6
1523181897262914,-2,15,44,24,1,-2,2,10
1523181897262914,-13,-22,-23,-2,-7,-5,-5,-14
1523181897262914,-16,-4,-20,15,-5,-2,4,4
1523181897285022,5,20,48,-15,0,0,6,-2
1523181897285022,20,-3,-5,15,5,0,-9,4
1523181897285728,72,12,79,-25,-5,-3,-6,3
1523181897285728,-3,-23,-4,20,2,-4,3,11
1523181897299871,11,8,8,-6,9,4,0,10
1523181897299871,11,7,23,-22,-11,-6,-26,8
1523181897308066,1,-8,-33,7,10,9,32,2
1523181897308066,-33,-11,-55,-39,-9,-2,-16,-11
1523181897321825,41,5,-2,12,-1,-1,-7,10
1523181897321825,-38,-7,2,-2,1,-2,-8,-4
1523181897322821,-2,0,124,36,4,4,4,-6
1523181897322821,-12,-10,-63,-48,-13,-5,4,-6
1523181897345132,-16,0,19,20,3,-2,2,4
1523181897345132,5,0,-3,36,2,0,-7,-6
1523181897352956,-7,18,24,-52,-3,0,-10,-1
1523181897352956,13,3,7,33,-13,1,33,12
1523181897359222,2,-5,18,2,-4,-8,-30,-28
1523181897359222,13,5,40,15,5,-1,6,9
1523181897367276,-15,6,-76,-15,3,3,8,-1
1523181897367276,-4,-37,46,16,3,0,2,1
1523181897382297,1,10,-26,-7,1,0,12,4
1523181897382297,2,-1,-14,6,-7,1,0,2
1523181897382984,-12,-6,-57,22,-4,-4,9,-7
1523181897382984,-25,11,20,-21,6,5,-1,-2
1523181897405043,33,-2,12,9,-2,-4,1,-6
1523181897405043,-13,-10,7,-17,2,-2,0,-4
1523181897405043,-18,-7,-80,-26,-6,-5,-12,-2
1523181897405043,11,-1,47,27,1,0,6,-8
1523181897419415,-4,3,-2,-47,-8,-5,-1,26
1523181897419415,8,-21,-19,8,0,-1,-24,-4
1523181897427401,0,13,48,-32,-5,0,8,-2
1523181897427401,0,29,-8,17,6,-3,0,-9
1523181897442432,-4,-15,-19,-21,-9,-2,9,-2
1523181897442432,5,3,-12,2,-1,2,18,-9
1523181897443146,-21,-6,31,8,-2,-4,-27,-3
1523181897443146,14,10,-6,-46,-5,-2,-8,-6
1523181897465522,-6,-1,-4,15,-4,0,6,-4
1523181897465522,-3,-5,-5,23,1,0,6,-2
1523181897465522,2,-1,-21,-19,0,-2,3,-9
1523181897465522,10,8,92,11,-6,-2,-3,-1
1523181897479478,-9,-4,12,20,8,4,-3,-13
1523181897479478,1,-33,-38,-27,-8,0,1,21
1523181897487391,-8,-5,19,2,-1,-3,-9,-1
1523181897487391,-11,-10,-27,-7,-5,-6,-32,3
1523181897502600,-1,5,12,49,10,6,24,11
1523181897502600,8,0,-17,-53,-10,-3,-8,-11
1523181897503305,15,0,48,63,9,4,35,2
1523181897503305,31,24,18,-37,-4,-3,-26,11
1523181897525527,-23,-11,23,26,-6,-8,-22,-14
1523181897525527,-8,-1,8,-6,6,3,11,6
1523181897525527,12,4,-29,25,-2,-4,-3,3
1523181897525527,-6,-14,-16,-22,-6,0,13,-2
1523181897548738,2,11,17,9,9,3,-7,-2
1523181897548738,6,20,39,-14,3,-2,5,-3
1523181897548738,-12,-8,-10,-28,8,7,-7,5
1523181897548738,0,3,-5,23,-16,-4,0,-7
1523181897562699,-6,-7,25,41,6,0,-2,5
1523181897562699,-14,-26,-94,-57,-14,-4,5,-10
1523181897563461,-26,18,-6,-12,6,-2,3,10
1523181897563461,-5,7,39,4,13,6,-8,-7
1523181897584822,14,16,26,-13,-10,0,27,3
1523181897584822,-9,-28,-17,20,-2,-4,-7,-9
1523181897585522,-27,5,16,24,-6,-6,-10,5
1523181897585522,9,-11,-15,-43,-7,-4,9,11
1523181897607894,-29,-16,-59,-28,-4,-3,-9,1
1523181897607894,4,-9,9,21,0,-1,1,-1
1523181897608584,31,-7,22,0,5,6,-1,-9
1523181897608584,-8,-26,-98,-18,-14,-11,-6,-11
1523181897622619,-2,2,-10,-34,4,-3,-14,-4
1523181897622619,1,20,27,42,0,-1,13,0
1523181897629950,4,4,11,4,-11,-7,-23,-2
1523181897629950,-6,35,95,-7,13,7,11,-2
1523181897644679,5,-17,-5,51,-2,3,13,-5
1523181897644679,3,-1,-8,-5,-5,-3,11,10
1523181897645681,-7,-8,-22,-21,-10,-9,-24,-12
1523181897645681,8,15,1,19,19,3,7,-4
1523181897668063,2,10,20,13,3,8,-8,-2
1523181897668063,3,3,28,-41,-24,-5,2,12
1523181897668746,10,-5,-33,27,4,2,6,-1
1523181897668746,-3,-15,-25,4,1,0,4,19
1523181897682943,65,8,-35,-13,0,-8,-23,5
1523181897682943,-14,4,-52,10,10,4,2,0
1523181897682943,2,-2,46,1,-9,-1,2,1
1523181897682943,-2,10,-11,-22,-1,-3,-8,-4
1523181897704838,-23,-12,63,-45,-6,-4,-4,4
1523181897704838,39,7,-48,21,4,-1,-2,9
1523181897705843,-9,1,-26,9,7,7,4,-7
1523181897705843,-7,7,-21,33,2,3,15,3
1523181897727987,-38,-5,20,-65,-12,-4,6,-23
1523181897727987,21,13,-1,-7,2,1,-19,-9
1523181897728902,-3,-17,-1,27,2,-4,2,7
1523181897728902,-10,15,15,3,-1,-3,3,-13
1523181897742941,-2,-1,-14,8,5,1,1,1
1523181897742941,-29,0,23,10,1,-1,1,-13
1523181897742941,-13,-8,-2,-25,-3,-3,5,-8
1523181897742941,-6,-4,-4,43,3,5,-4,10
1523181897765294,22,-4,-28,-73,-21,-13,-27,-3
1523181897765294,-7,2,51,28,10,4,12,41
1523181897766001,6,10,13,20,-2,0,-3,-10
1523181897766001,30,32,58,-20,-1,1,19,5
1523181897788061,25,-1,-42,24,0,-7,-27,-1
1523181897788061,-13,6,43,7,-3,-1,-14,-17
1523181897789062,-5,-11,4,0,0,2,25,18
1523181897789062,17,-7,-25,32,7,-3,-21,0
1523181897802428,-8,13,-18,16,0,5,20,3
1523181897802428,6,-8,65,-14,-3,0,7,-3
1523181897803099,17,-11,-14,0,-1,-1,0,26
1523181897803099,-8,-1,10,7,-5,-3,-6,-19
1523181897825439,-12,14,-27,-21,-1,-7,-3,-13
1523181897825439,18,-19,-29,-19,11,7,-1,7
1523181897825439,-6,-4,27,-16,-12,-6,-5,-12
1523181897825439,-20,-22,-23,-29,0,-2,-1,3
1523181897848523,-10,-26,-2,23,14,3,3,5
1523181897848523,5,43,12,27,-6,0,14,-1
1523181897848523,-15,-40,18,-24,2,-7,-32,-29
1523181897848523,-7,-6,20,16,-10,2,7,7
1523181897862487,-6,15,7,-27,-4,0,7,0
1523181897862487,-18,-10,-5,5,4,-2,-16,-21
1523181897863261,6,0,-4,10,-1,-2,3,8
1523181897863261,20,7,-35,-7,-5,-3,-11,-6
1523181897885407,-15,-5,45,27,6,4,14,11
1523181897885407,-14,-17,-45,24,-2,-5,-20,-18
1523181897885407,-7,4,-46,-75,-13,-5,-1,4
1523181897885407,1,-8,87,10,3,0,1,-6
1523181897908659,8,4,-39,4,-8,-1,16,-13
1523181897908659,4,5,53,-41,-11,-2,-22,-2
1523181897909384,4,20,60,21,5,2,3,4
1523181897909384,-3,0,-6,15,4,0,8,5
1523181897922418,-19,-17,8,12,11,6,-5,-5
1523181897922418,-12,-38,-63,39,7,1,6,-6
1523181897923423,-4,13,16,-9,-12,-5,-7,5
1523181897923423,4,13,-44,-27,-8,-6,0,15
1523181897944563,-17,15,40,15,-1,3,-14,-8
1523181897944563,3,18,-20,-42,-9,-2,1,-11
1523181897945475,-8,6,-26,33,18,5,3,8
1523181897945475,20,-11,42,21,-9,-1,0,-6
1523181897968619,13,-9,-17,-28,-1,-6,-5,-6
1523181897968619,-9,-10,-46,-13,-7,-2,10,-13
1523181897968619,4,-13,-19,-43,-7,-7,-8,-5
1523181897968619,-7,8,-12,21,4,0,-3,-3
1523181897982870,-1,-12,-6,2,-7,-4,-1,11
1523181897982870,5,10,69,19,5,3,12,28
1523181897982870,-4,7,-17,10,5,0,0,0
1523181897982870,-6,-17,-10,-44,12,8,13,-6
1523181898004635,11,-7,2,12,-17,-4,-20,-6
1523181898004635,-1,13,0,-10,2,-1,-1,3
1523181898005636,2,4,-15,15,0,0,1,-1
1523181898005636,-48,-16,-63,-15,-7,-5,3,-12
1523181898036048,14,21,16,-12,3,2,-9,8
1523181898036048,-1,6,1,82,7,-5,-11,15
1523181898036048,-6,-7,-64,-29,-4,11,24,-15
1523181898036048,1,1,34,36,6,-6,-11,1
1523181898042966,-13,-22,45,17,-5,4,0,-10
1523181898042966,48,12,-23,-40,-1,0,-2,-7
1523181898042966,-12,-6,-20,5,-4,-1,12,-16
1523181898042966,15,-5,-34,-33,-11,-6,2,-1
1523181898065126,10,0,-6,43,13,5,17,16
1523181898065126,-6,6,-2,-6,0,-3,-19,0
1523181898065799,5,-15,53,46,19,4,13,6
1523181898065799,0,-1,-36,-32,-14,0,11,20
1523181898087858,3,42,19,6,9,-1,-11,-25
1523181898087858,7,-32,36,-2,-13,-10,-6,11
1523181898088862,-38,-33,-66,3,6,4,-4,-8
1523181898088862,-23,-12,-15,28,2,0,-5,-12
1523181898102942,13,36,29,-4,-3,-1,3,8
1523181898102942,-13,-17,-29,11,15,2,23,-8
1523181898102942,22,14,36,2,-17,-5,-29,-2
1523181898102942,-1,-38,53,-7,-9,-5,3,5
1523181898125259,-12,-9,-96,13,13,8,1,-2
1523181898125259,-10,-3,74,-31,-3,0,13,-6
1523181898125957,4,12,37,2,-2,-4,1,8
1523181898125957,0,-21,-102,-15,-1,2,1,-3
1523181898148015,-11,-9,58,41,0,-1,2,-2
1523181898148015,-14,-5,-24,-4,-1,-2,-25,-23
1523181898149020,10,9,27,-4,-5,-1,9,5
1523181898149020,2,13,-54,5,3,2,-8,13
1523181898161049,57,-11,-36,-72,-15,-9,4,0
1523181898161049,-17,5,20,47,0,1,3,-1
1523181898170118,-3,19,-39,-38,-5,-4,-5,-15
1523181898170118,-19,-11,3,2,4,-1,-1,-10
1523181898185451,-8,-30,-31,-7,-3,-2,-11,7
1523181898185451,5,16,11,27,-5,-5,3,7
1523181898185451,21,6,44,-36,-5,-4,-16,6
1523181898185451,1,6,-37,-6,-2,0,1,-17
1523181898208498,25,-9,-25,8,4,2,9,19
1523181898208498,20,2,-9,-3,-3,-6,-26,1
1523181898209178,9,21,55,7,9,12,17,14
1523181898209178,-4,-4,-30,-22,-10,-4,-14,-11
1523181898221210,-34,0,8,5,-1,-6,0,-10
1523181898221210,17,11,-29,-25,3,2,1,2
1523181898230387,-4,-10,8,4,-8,-10,-14,8
1523181898230387,53,42,52,4,1,4,-4,-6
1523181898244572,-7,4,35,-15,-8,-7,-7,1
1523181898244572,-19,-13,32,9,6,4,13,9
1523181898245275,-12,-32,-37,-23,-7,-6,-6,1
1523181898245275,23,4,26,18,-1,1,11,8
1523181898268334,-20,0,25,26,14,9,18,-16
1523181898268334,-13,-11,-34,-28,-10,5,4,-5
1523181898268334,-5,8,43,38,-10,-9,-13,-9
1523181898268334,-9,-23,44,-32,-2,-2,-9,13
1523181898281687,-13,-36,-18,25,3,1,7,4
1523181898281687,-4,1,46,-27,6,0,3,1
1523181898290480,-2,-16,-1,17,1,1,26,-3
1523181898290480,-7,-2,-38,13,13,12,-38,-2
1523181898304434,72,3,-35,-3,-12,-17,-22,11
1523181898304434,-8,-8,-9,-49,-7,2,12,-5
1523181898305433,-3,6,-10,57,5,-7,-8,-8
1523181898305433,-1,1,6,-13,6,3,11,-2
1523181898328512,-22,14,60,7,3,8,14,-17
1523181898328512,8,-23,-113,13,-9,-5,-8,-11
1523181898328512,3,20,30,-32,1,2,-4,15
1523181898328512,-28,-46,-42,-7,-6,-4,9,-10
1523181898341824,-12,15,8,-6,-3,-2,-16,-1
1523181898341824,8,18,22,26,-11,-7,-3,7
1523181898349845,-2,-13,-49,2,10,8,6,-7
1523181898349845,2,20,41,5,-6,-2,-4,-9
1523181898364895,-9,-2,-75,4,0,0,0,34
1523181898364895,-2,4,20,8,-1,0,-2,-7
1523181898365594,-14,-25,-106,-73,-8,-1,-1,-18
1523181898365594,1,10,32,21,-4,0,12,-1
1523181898387653,-63,-3,-17,2,-5,-3,-2,-8
1523181898387653,14,26,35,19,5,0,-19,2
1523181898388655,16,-11,-4,-16,-2,0,3,0
1523181898388655,23,27,88,69,0,-3,-3,-9
1523181898402014,-25,-38,-36,-42,1,-1,9,-25
1523181898402014,-9,-20,24,13,-3,0,-13,34
1523181898410014,13,11,61,0,-2,0,-2,-2
1523181898410014,10,29,2,27,9,-1,-1,5
1523181898425052,-6,-17,-5,-18,-10,2,2,3
1523181898425052,5,5,-20,-62,-8,-4,-3,11
1523181898425755,-8,-13,-9,36,15,6,-10,-7
1523181898425755,-1,9,62,-30,-4,-4,2,7
1523181898448136,12,17,-8,5,3,-1,-5,4
1523181898448136,-11,0,-9,8,-7,0,12,-11
1523181898448818,32,15,9,4,-16,-6,-2,6
1523181898448818,-22,-12,-24,32,4,-2,-8,1
1523181898462087,0,-9,4,-38,-7,1,18,-4
1523181898462087,-21,12,4,33,15,2,3,-10
1523181898469870,7,-33,-58,-4,-20,-7,-16,2
1523181898469870,-43,10,80,-35,-6,0,-2,-11
1523181898485221,25,-12,10,20,3,-2,2,13
1523181898485221,2,34,-37,-3,-1,-4,12,-12
1523181898485916,-11,-15,23,6,4,0,-6,-21
1523181898485916,8,-4,-41,-49,-5,-4,-3,8
1523181898508274,-15,-9,26,8,-6,-5,-8,-9
1523181898508274,-4,1,-14,-42,-6,0,4,-5
1523181898508977,-10,18,32,20,0,-3,2,-8
1523181898508977,-2,-19,-60,-21,-3,2,4,3
1523181898531143,9,23,22,21,0,-2,-1,-11
1523181898531143,-32,-48,39,9,1,-4,-7,12
1523181898531143,-7,9,12,48,-1,-2,-9,17
1523181898531143,4,0,2,-17,1,-2,3,3
1523181898545329,10,3,39,-10,6,0,-4,8
1523181898545329,7,-10,5,8,0,7,4,-8
1523181898545329,-28,2,-1,8,1,-3,4,8
1523181898545329,26,31,-12,-30,-5,-6,-7,-12
1523181898568435,-21,-71,-74,-2,-1,-7,-4,-4
1523181898568435,0,-3,5,5,5,3,4,-4
1523181898569134,12,11,34,-12,-6,-7,0,13
1523181898569134,1,-13,0,22,11,12,0,13
1523181898590495,22,36,28,1,4,7,8,2
1523181898590495,-58,-22,-10,-18,-7,-4,-9,-22
1523181898591194,23,26,61,-5,-3,-5,-6,7
1523181898591194,-10,-26,-118,-32,-1,-5,-1,-25
1523181898604230,7,34,109,46,8,11,5,2
1523181898604230,-7,13,16,-13,-12,0,6,4
1523181898605232,32,-5,-38,-10,4,5,14,-5
1523181898605232,10,11,24,10,-7,-11,-21,-1
1523181898628600,12,-9,-23,31,5,3,0,-4
1523181898628600,44,-9,9,-9,1,-3,-2,-9
1523181898628600,-14,-9,-12,0,-1,-3,-1,5
1523181898628600,9,8,71,4,2,0,-2,9
1523181898650688,-5,-17,-110,-15,-9,-4,3,-2
1523181898650688,19,6,42,8,-3,-2,-2,1
1523181898651354,-1,3,8,-12,-13,-1,-9,-5
1523181898651354,-42,4,-38,1,6,8,20,-17
1523181898665520,-23,31,72,17,4,2,-5,0
1523181898665520,-38,-30,-7,-2,-8,-9,-14,-7
1523181898665520,-13,-11,6,10,9,8,11,-5
1523181898665520,-13,4,20,32,1,-1,2,3
1523181898687451,1,7,-48,-33,-19,-15,-21,-2
1523181898687451,16,16,-4,19,9,4,7,1
1523181898688451,-5,-20,5,26,9,-2,-1,2
1523181898688451,10,-10,-17,-46,-20,-12,-14,6
1523181898710771,4,9,23,32,16,14,12,0
1523181898710771,14,-22,23,-3,5,2,7,-5
1523181898711514,-28,-9,-4,-26,4,4,3,-13
1523181898711514,4,-26,-75,0,-7,-13,-13,-4
1523181898724854,-2,-3,-27,-36,-6,-7,-3,-14
1523181898724854,-2,18,-7,51,-2,4,14,-7
1523181898725551,-16,-1,35,27,11,7,5,-1
1523181898725551,31,-12,16,3,-4,2,8,1
1523181898748749,-2,10,51,-19,-5,-7,-10,-2
1523181898748749,-3,8,-93,30,1,-2,-12,4
1523181898748749,5,10,-9,-45,-1,3,-3,0
1523181898748749,-51,-44,25,13,9,3,3,3
1523181898770671,-5,-5,-48,12,3,-3,-15,8
1523181898770671,4,12,41,-11,2,1,18,9
1523181898770671,16,-5,-64,-22,-17,-5,-14,0
1523181898770671,-29,-4,-10,-7,0,1,4,-12
1523181898792818,47,-3,-15,-11,-6,-5,-6,-6
1523181898792818,-7,3,11,-14,8,3,0,-4
1523181898793730,-22,3,37,53,-2,-8,2,-34
1523181898793730,31,16,0,15,-6,-1,9,17
1523181898808771,-6,-3,29,-7,-5,-6,-16,0
1523181898808771,9,11,-92,-14,6,6,-1,3
1523181898808771,2,-18,56,-7,5,2,-10,2
1523181898808771,30,6,76,57,-2,-5,6,6
1523181898830831,-9,-5,12,-31,-8,-2,-4,8
1523181898830831,8,9,37,-7,-7,-9,-16,-1
1523181898830831,-6,6,-27,4,13,4,2,9
1523181898830831,-4,-10,24,-20,-13,-2,-9,3
1523181898845127,-18,-18,-45,-10,2,4,15,1
1523181898845127,31,35,30,-2,-10,-8,-2,5
1523181898845873,-16,-3,20,-14,2,-1,-5,-7
1523181898845873,-2,3,-15,-53,-8,-8,-9,1
1523181898868213,-2,-6,-33,0,-5,-4,3,7
1523181898868213,-53,-14,-3,-32,0,-3,-7,-9
1523181898868941,10,5,-12,25,-17,-10,0,44
1523181898868941,7,10,-30,-45,11,8,-4,-6
1523181898891164,-1,23,72,56,10,6,12,-4
1523181898891164,2,-58,-76,-37,-7,-4,-2,2
1523181898891164,-8,13,-31,-32,-16,-6,-8,-7
1523181898891164,-9,6,40,40,13,3,4,-3
1523181898905027,-13,-4,-28,-9,3,1,3,3
1523181898905027,-20,-13,-30,32,-4,-2,3,-11
1523181898905027,43,32,-44,3,-6,-2,-9,3
1523181898905027,-19,16,-22,-56,-11,-1,1,-4
1523181898928404,-9,-13,-65,37,2,-1,3,-9
1523181898928404,9,21,34,33,9,0,-5,-11
1523181898929091,-21,-11,18,10,-9,-1,-1,-1
1523181898929091,-2,0,21,12,-4,3,22,-5
1523181898951149,35,12,-9,-24,-4,-4,-33,10
1523181898951149,0,-5,48,5,-7,-10,-22,9
1523181898951149,1,-7,-92,-11,16,8,25,-5
1523181898951149,5,13,4,11,3,4,6,0
1523181898965484,-11,-5,47,-14,-10,-2,0,-7
1523181898965484,1,-6,-5,-18,-3,-4,-15,-1
1523181898965484,-25,-7,82,5,7,2,-5,-9
1523181898965484,-1,-8,63,7,-1,-9,-13,-2
1523181898988517,-11,-1,32,21,-6,4,12,4
1523181898988517,90,9,-28,4,-8,-6,0,5
1523181898988517,-8,7,-46,-67,2,-2,5,-13
1523181898988517,-16,13,-69,7,0,-2,2,-10
1523181899010673,2,-7,72,40,-1,-4,-4,6
1523181899010673,2,-35,77,-7,15,17,30,4
1523181899011310,-7,-6,-33,-7,-15,-13,-14,1
1523181899011310,31,13,27,20,11,8,6,14
1523181899025542,-3,0,-30,-3,-1,-4,3,-9
1523181899025542,-21,-6,43,16,1,2,-9,-4
1523181899025542,7,-1,-7,7,0,-5,4,-4
1523181899025542,-12,-22,-8,-27,-8,3,-14,-11
1523181899048700,4,14,-16,6,-16,-8,24,52
1523181899048700,19,9,0,-1,-6,-14,-39,-11
1523181899048700,0,-6,-7,-2,11,11,19,3
1523181899048700,11,-9,-60,9,0,-5,-9,4
1523181899070483,-4,20,6,-39,6,8,14,-24
1523181899070483,-30,-30,-81,28,-16,-4,7,13
1523181899071470,23,-34,15,-66,-9,-8,-17,1
1523181899071470,-2,-4,12,-1,-8,-2,13,8
1523181899084836,-2,23,-73,2,13,2,-9,-13
1523181899084836,-7,-3,73,0,6,5,9,1
1523181899092825,-19,20,-6,4,-10,-2,-4,-3
1523181899092825,-24,-27,13,48,1,-5,-10,1
1523181899108733,4,-2,22,-34,-4,-8,-13,-6
1523181899108733,-4,1,-4,-2,10,9,15,-7
1523181899108733,22,4,-57,-31,-16,2,1,4
1523181899108733,0,13,5,38,7,2,11,-12
1523181899130626,-4,-33,21,-2,-23,-18,-21,11
1523181899130626,-12,19,-24,-11,8,4,0,-2
1523181899131629,10,10,53,37,5,-1,1,5
1523181899131629,-10,6,31,13,5,5,4,-4
1523181899143664,-14,-19,-36,-10,12,9,17,-10
1523181899143664,29,-11,-2,-54,-13,-4,-6,-5
1523181899152686,-35,-9,-21,49,-2,-9,-13,4
1523181899152686,-15,-4,4,0,3,-3,-5,2
1523181899168147,0,19,13,2,16,4,4,-5
1523181899168147,4,3,-1,6,-10,3,5,9
1523181899168729,-25,-15,-9,10,4,5,6,2
1523181899168729,18,2,-42,-27,-11,-11,-16,3
1523181899191203,1,5,15,7,-4,4,3,-9
1523181899191203,-20,1,-25,4,5,-4,2,1
1523181899191203,17,-41,-2,5,14,2,-12,1
1523181899191203,-16,-5,0,-2,-4,8,18,2
1523181899203822,-25,0,31,2,-8,-6,-11,-16
1523181899203822,4,-4,42,13,-9,-11,-9,7
1523181899213049,13,11,12,-17,-2,-2,1,-3
1523181899213049,28,6,-14,-5,3,-2,-7,4
1523181899228204,-16,-30,-17,15,-4,4,2,-3
1523181899228204,62,-1,-7,-3,0,-4,3,13
1523181899228889,15,22,10,13,-1,-4,-8,-6
1523181899228889,-9,5,-6,2,5,5,2,13
1523181899251157,31,19,1,-20,-13,-8,-11,-3
1523181899251157,-19,-4,-95,11,-1,1,11,-3
1523181899251157,17,19,6,-63,-8,-4,0,10
1523181899251157,46,-23,1,34,13,4,14,-23
1523181899264427,-30,-10,-46,32,12,11,11,1
1523181899264427,13,-1,18,-76,-13,-8,-9,-6
1523181899272402,14,21,28,20,1,-1,-2,0
1523181899272402,-27,-3,-9,-5,-4,-6,-1,-7
1523181899296102,-4,-9,9,11,8,2,-3,-2
1523181899296102,-56,-20,10,22,0,-7,-2,-11
1523181899296102,-41,-18,-46,21,-6,2,6,-13
1523181899296102,-42,2,6,-28,2,-4,-4,2
1523181899311106,48,5,44,13,-17,-6,-9,5
1523181899311106,-11,36,-99,-49,-4,4,8,-7
1523181899311106,16,-5,65,38,21,7,7,16
1523181899311106,3,-10,-12,-3,-4,-7,-25,-8
1523181899324528,-4,-3,16,-7,-6,-8,14,-14
1523181899324528,-8,20,36,6,5,11,15,-8
1523181899332534,-5,4,-19,37,-3,-6,-22,-10
1523181899332534,3,-22,9,-24,-8,-2,1,-2
1523181899348589,3,8,-4,11,10,-2,0,9
1523181899348589,1,-15,52,-5,-6,-2,-4,-6
1523181899349208,1,-4,-14,-2,-1,1,15,-11
1523181899349208,5,2,-56,-45,-8,-2,-15,-3
1523181899370265,1,-2,-18,-9,-6,-2,-7,10
1523181899370265,-15,4,0,32,10,-1,2,-13
1523181899371268,38,0,6,-2,-10,-9,-11,2
1523181899371268,-3,14,-65,-3,-1,0,2,7
1523181899384658,2,-12,-1,-21,-1,1,1,-2
1523181899384658,-38,16,21,18,19,1,-5,-1
1523181899392657,-51,-11,-18,-6,-14,4,11,8
1523181899392657,19,-8,36,-72,-16,-9,-9,24
1523181899408694,-5,2,-35,-3,7,-1,-1,-9
1523181899408694,6,-22,-9,-5,0,-3,-18,5
1523181899408694,-14,10,44,84,16,4,6,-7
1523181899408694,-16,-7,-48,-38,-2,1,5,2
1523181899430573,-13,-8,73,-20,-6,5,0,-5
1523181899430573,24,37,0,-12,-5,-2,-6,4
1523181899432429,-1,-18,52,6,3,-8,-2,-7
1523181899432429,7,8,2,37,10,11,9,5
1523181899452484,15,22,4,-49,-18,-9,-8,-13
1523181899452484,-3,13,-33,9,3,0,7,2
1523181899454491,20,-8,-5,-24,-11,-10,-11,-8
1523181899454491,13,-1,11,63,28,7,-8,-2
1523181899466872,-16,5,-6,-30,-13,5,3,6
1523181899466872,-1,-2,80,32,4,1,7,7
1523181899475543,-10,-9,-17,-27,-5,4,-4,-5
1523181899475543,-35,2,-33,-10,-6,-7,1,-16
1523181899490936,-20,21,62,48,9,-1,-22,3
1523181899490936,-26,-43,17,16,-7,-2,1,-7
1523181899492593,47,2,-8,-28,-2,-1,-4,8
1523181899492593,3,18,45,43,2,4,21,0
1523181899513751,1,-13,-38,-47,1,1,-15,-7
1523181899513751,18,3,4,-6,-7,-3,0,2
1523181899514650,-17,-2,28,9,-5,-6,-11,-14
1523181899514650,4,0,46,2,-13,-1,6,-16
1523181899526827,73,16,71,10,6,-2,-6,-7
1523181899526827,9,-12,-110,9,7,5,9,1
1523181899535705,-25,-5,21,11,1,2,9,0
1523181899535705,-33,-4,57,14,-6,-6,-5,-2
1523181899551079,-18,-5,-54,-14,-4,-6,-7,13
1523181899551079,-14,-22,-65,11,4,6,21,-2
1523181899551747,20,10,-6,-37,-3,1,6,-2
1523181899551747,24,8,-50,-25,-7,-12,-29,-7
1523181899573104,-37,-27,-7,25,3,-1,7,4
1523181899573104,8,16,18,-6,-1,1,-4,-9
1523181899574810,-18,-12,-21,-18,-5,-7,-11,2
1523181899574810,-2,-4,-8,4,2,0,-10,-18
1523181899587943,-27,16,-35,30,0,-1,20,3
1523181899587943,34,14,26,-4,-4,3,-13,-1
1523181899594125,-3,6,7,2,-2,-4,-15,-7
1523181899594125,-46,-17,-17,-82,4,4,30,-11
1523181899611094,30,3,6,47,9,-3,-16,-7
1523181899611094,-27,4,18,-14,-7,-4,-5,-3
1523181899611908,20,16,57,37,21,9,4,9
1523181899611908,-41,-36,12,2,-18,3,3,10
1523181899633313,-7,-4,19,24,-1,-7,-4,-8
1523181899633313,15,-1,33,-6,1,-12,-4,2
1523181899634967,11,23,38,28,15,18,4,3
1523181899634967,44,-2,-52,-39,-1,-3,1,8
1523181899648001,-24,-7,-37,-16,4,5,6,-5
1523181899648001,2,-30,43,24,-2,-3,-8,8
1523181899654019,5,21,2,14,-6,-7,0,2
1523181899654019,12,-6,1,-12,6,0,-17,-8
1523181899670062,49,-10,5,-21,-15,3,7,13
1523181899670062,-9,24,35,6,2,-6,-6,-13
1523181899672065,29,-26,-2,-17,-16,-7,-11,25
1523181899672065,46,23,-35,31,5,6,43,46
1523181899693387,-6,-4,31,-8,-7,-8,-34,-35
1523181899693387,20,9,83,-12,11,10,3,2
1523181899694124,-22,4,15,34,-7,1,9,7
1523181899694124,7,-15,-21,3,-14,-7,-12,-9
1523181899707473,-5,-10,-68,-51,1,-2,16,2
1523181899707473,-22,-4,-8,0,-10,-1,0,0
1523181899714502,7,13,-55,21,3,1,2,-9
1523181899714502,3,-1,-3,-27,-6,1,12,7
1523181899731225,-8,-26,12,17,3,-2,-10,-8
1523181899731225,-14,-4,-56,-41,-4,-4,-8,-10
1523181899732228,-22,-1,-24,-41,-5,-3,6,-8
1523181899732228,7,6,8,31,3,-3,-6,-4
1523181899753281,-12,2,5,74,11,5,6,-5
1523181899753281,-2,-22,25,-28,-15,8,13,-17
1523181899754285,-50,12,-21,15,9,-1,-1,-14
1523181899754285,-8,-2,18,23,3,-2,-9,6
1523181899767672,2,14,1,-26,-10,-6,8,10
1523181899767672,9,-4,-9,41,13,-1,3,16
1523181899775340,-8,-31,55,-20,-11,3,0,-10
1523181899775340,-34,5,-36,1,1,-1,-10,-21
1523181899790732,15,-21,67,-19,-5,-4,-13,4
1523181899790732,1,8,-12,2,1,1,2,2
1523181899792386,10,-11,-29,-11,-2,-5,-2,16
1523181899792386,11,32,27,38,5,-3,-11,-2
1523181899813752,-5,-13,-59,-64,1,5,7,-3
1523181899813752,-2,17,-22,-8,-6,-1,23,17
1523181899814445,11,-24,14,68,0,-10,-37,-5
1523181899814445,-16,10,10,20,2,3,10,-6
1523181899827829,-10,-7,-97,-51,-11,-2,7,9
1523181899827829,-3,-6,33,-9,14,-4,-15,-6
1523181899834816,1,-2,-47,-25,-12,-1,10,1
1523181899834816,-23,-23,35,-27,-9,2,-7,-1
1523181899851708,-18,-2,34,57,7,2,-6,2
1523181899851708,33,-7,-28,-21,-5,0,3,20
1523181899852546,4,5,-10,6,13,0,0,-10
1523181899852546,26,-4,35,9,-1,-8,-5,-10
1523181899873623,-5,3,23,21,6,9,11,-12
1523181899873623,-10,4,-31,-40,-11,-8,-18,-7
1523181899874605,-17,6,60,31,3,0,10,-7
1523181899874605,54,16,24,-43,-13,-6,-7,2
1523181899887749,6,12,-9,3,8,-3,-12,-4
1523181899887749,-21,-14,-94,10,4,12,9,-5
1523181899894676,21,-14,20,25,6,4,24,10
1523181899894676,-27,-3,-32,-11,-4,-6,-27,-4
1523181899910966,0,13,40,-29,-6,-2,-7,10
1523181899910966,8,-1,-13,7,-5,-5,-9,-3
1523181899911703,1,13,-27,-21,-1,-1,7,-3
1523181899911703,-2,-14,1,37,1,8,9,-5
1523181899933068,-22,4,-12,-52,-13,-4,16,-10
1523181899933068,51,6,21,12,-6,-5,-23,11
1523181899934767,1,8,-34,-40,-1,-1,-10,-6
1523181899934767,-6,2,31,3,-4,-6,-2,8
1523181899947119,-9,-6,-36,39,10,3,2,-9
1523181899947119,-27,-20,43,40,-4,1,12,-8
1523181899955825,-7,-11,11,-17,-2,-3,-4,13
1523181899955825,11,7,1,-11,-5,-3,-10,-2
1523181899971047,14,11,2,-8,-4,-3,-8,8
1523181899971047,-29,11,-14,-18,-3,-1,11,-4
1523181899971865,8,3,40,0,1,3,6,-4
1523181899971865,-6,-7,-52,3,9,10,12,4
1523181899993197,-8,-10,34,-16,-7,-4,-3,13
1523181899993197,-26,-7,1,30,3,-9,-9,-6
1523181899994923,-38,7,-19,-16,-6,0,-12,-11
1523181899994923,31,-5,52,-23,-7,-6,-3,-1
1523181900006954,-1,-10,12,64,3,-3,0,-7
1523181900006954,-12,-3,10,-22,-9,-6,-23,-16
1523181900015980,-6,-11,8,-27,-5,-6,4,-4
1523181900015980,6,11,6,33,6,-1,-2,0
1523181900030318,3,3,-1,9,5,10,22,0
1523181900030318,6,0,28,-10,-9,-10,-25,-2
1523181900038039,-1,-10,-42,-10,-5,-3,-15,0
1523181900038039,-16,2,9,8,11,4,16,4
1523181900053079,-2,-8,12,-2,-6,-2,5,-1
1523181900053079,-26,9,-22,9,8,4,3,2
1523181900054082,-2,-1,-54,-39,-19,-18,-31,7
1523181900054082,-1,-11,4,14,3,10,20,6
1523181900067260,-32,7,-8,-6,2,-1,3,9
1523181900067260,41,14,22,0,0,1,0,0
1523181900075138,7,6,14,1,-4,-1,1,-10
1523181900075138,-15,-12,41,20,-5,-9,-12,5
1523181900090892,-9,1,-25,-22,-2,3,9,-4
1523181900090892,-5,5,3,-5,1,2,9,4
1523181900091569,45,33,-5,-43,-11,-1,2,-4
1523181900091569,-5,-17,-94,-14,0,-8,-12,-16
1523181900113753,27,26,48,59,-4,-3,-4,6
1523181900113753,-13,3,40,36,7,0,2,2
1523181900114631,14,3,-14,-7,2,4,15,1
1523181900114631,-7,12,-26,-10,2,4,-11,-7
1523181900127866,-24,-16,43,-47,-12,-7,-14,-14
1523181900127866,1,-6,-93,-1,-3,-5,-2,-14
1523181900135687,-17,-3,-6,-9,-2,-2,1,-4
1523181900135687,3,-2,-19,38,8,5,-3,-6
1523181900150724,8,-8,-60,13,-3,-3,-10,8
1523181900150724,22,2,5,9,2,2,10,12
1523181900151728,-29,-20,-6,-14,3,2,5,-9
1523181900151728,-5,3,26,3,-7,-8,-17,-1
1523181900172165,-11,-7,-9,3,7,3,0,1
1523181900172165,37,5,13,-53,-9,3,7,9
1523181900180810,-5,-11,-35,7,-4,-3,0,6
1523181900180810,10,29,67,9,2,-5,-11,4
1523181900186822,0,-9,68,41,26,9,1,0
1523181900186822,-18,7,-18,-6,-17,2,6,-7
1523181900195848,-2,-2,25,-17,3,-1,-4,-5
1523181900195848,5,-10,-6,-20,-11,-2,8,12
1523181900211096,-5,6,27,-10,-1,-11,-15,7
1523181900211096,-9,5,54,1,10,13,27,-9
1523181900211892,-8,-4,-28,31,9,7,10,2
1523181900211892,3,-1,4,-37,-13,-3,-1,-3
1523181900233305,29,-1,-39,4,1,-3,1,-1
1523181900233305,-59,-15,24,-6,6,2,22,22
1523181900234951,-10,9,-34,0,-6,-8,-46,-13
1523181900234951,69,0,-12,-15,-3,-1,9,-3
1523181900247316,-8,-25,-50,-7,-12,-7,-6,-11
1523181900247316,0,-7,-8,22,2,-5,-5,-5
1523181900256006,3,-1,-8,5,0,4,20,1
1523181900256006,-37,-12,-5,18,-3,-6,-21,-6
1523181900271080,35,21,-1,-17,9,16,14,-7
1523181900271080,-10,-43,-64,21,-4,-10,-21,17
1523181900272047,7,-5,-51,15,7,3,11,0
1523181900272047,-6,-6,12,-60,-14,-10,-19,0
1523181900293222,-6,9,-22,-5,5,8,15,4
1523181900293222,6,8,37,21,6,0,-7,-6
1523181900295260,11,-4,82,31,-6,-1,7,13
1523181900295260,-30,-17,-67,-41,3,9,17,-10
1523181900307377,17,-3,53,65,-16,-17,-7,15
1523181900307377,6,9,5,-22,0,-1,-17,-16
1523181900315491,4,3,12,-36,-5,-2,0,6
1523181900315491,11,12,14,37,8,1,7,2
1523181900330518,-24,-10,61,-10,-1,0,2,5
1523181900330518,-10,-5,-30,-13,-8,-1,10,0
1523181900332208,1,-1,8,-9,1,-5,-13,-7
1523181900332208,-25,-21,-6,10,2,3,4,-7
1523181900353512,-2,18,-3,-22,1,-3,-13,-6
1523181900353512,6,5,10,7,-9,4,1,-2
1523181900354267,-40,-3,5,-17,-2,2,2,-9
1523181900354267,-8,9,43,25,3,3,3,10
1523181900366612,6,-2,22,-3,1,-5,-9,8
1523181900366612,-25,-16,-95,-22,-1,-4,-6,-9
1523181900375356,10,8,-21,39,-7,-6,3,-2
1523181900375356,9,9,5,-10,-1,6,6,5
1523181900390363,19,30,-38,-40,-15,-4,-6,-5
1523181900390363,34,-9,-3,53,9,-3,-11,2
1523181900392368,2,6,38,-56,7,6,4,-13
1523181900392368,0,-3,-32,40,2,-6,7,-5
1523181900413757,-13,-2,-7,14,4,4,-10,-7
1523181900413757,24,-2,20,-23,-7,-5,-8,-20
1523181900414429,-4,2,-74,-16,1,2,-6,-4
1523181900414429,15,5,28,23,1,-3,-7,2
1523181900435484,-15,-5,-38,-23,0,6,14,7
1523181900435484,37,23,52,7,6,-1,7,11
1523181900437489,-4,-27,-8,12,-6,-7,-7,12
1523181900437489,14,3,17,-33,-2,6,16,7
1523181900450524,-23,-22,-63,1,-8,-5,-1,-8
1523181900450524,-1,14,13,23,3,-2,-14,9
1523181900451528,14,-5,-26,-78,-7,2,23,-3
1523181900451528,23,6,22,35,-4,-5,-14,38
1523181900472896,-1,-17,-36,-16,-2,-3,1,-15
1523181900472896,-6,9,7,-33,-1,3,13,-6
1523181900474586,-13,-26,2,31,13,-2,-2,-2
1523181900474586,-17,-14,-21,-19,-21,-4,1,-12
1523181900495948,-9,8,10,-8,4,1,1,-2
1523181900495948,24,-4,6,-22,-14,-9,-10,-1
1523181900496649,-10,29,28,19,8,5,-8,-12
1523181900496649,-11,-13,52,-4,3,-2,-1,-5
1523181900511009,4,3,-11,30,5,1,4,-8
1523181900511009,-18,-8,-37,-24,1,-6,-4,-10
1523181900511685,-2,-2,-23,-11,-12,-5,0,4
1523181900511685,-14,10,-26,10,2,-4,-1,-26
1523181900533034,8,7,9,-13,-2,-2,-6,2
1523181900533034,-5,-7,25,22,10,9,16,12
1523181900534746,4,-6,8,4,-1,4,-5,-5
1523181900534746,-24,9,30,34,7,0,-8,-18
1523181900556102,-13,-4,24,-18,-3,-1,12,15
1523181900556102,-18,-29,-85,-28,-6,-4,-25,-7
1523181900556805,3,2,26,18,8,6,19,3
1523181900556805,-35,5,-4,-6,-7,-3,-6,-21
1523181900569840,24,-6,24,16,0,-3,-7,3
1523181900569840,5,8,14,5,-3,6,13,-3
1523181900577099,-1,2,25,18,-2,-5,-5,7
1523181900577099,18,-8,-91,-52,0,-1,1,10
1523181900593188,7,5,25,33,0,-6,-22,0
1523181900593188,-9,16,59,-21,-6,-2,13,6
1523181900594907,19,2,-44,-3,-6,1,-7,0
1523181900594907,-3,-13,7,33,14,6,1,-3
1523181900616107,-13,-2,-48,-22,-12,-7,-6,-10
1523181900616107,-12,6,27,6,1,0,0,-7
1523181900616970,17,-6,28,41,-1,-3,-6,-2
1523181900616970,29,20,21,-35,-4,-2,-1,11
1523181900630249,-14,-9,-28,-31,-7,-1,9,-3
1523181900630249,0,4,9,68,12,1,-12,-4
1523181900637056,17,-5,-35,-80,-16,-3,5,3
1523181900637056,-39,16,80,48,-2,-9,-17,-2
1523181900653060,15,-31,7,-41,-1,3,11,-8
1523181900653060,2,3,-41,2,-5,-7,-10,-10
1523181900654064,21,7,36,23,4,-4,-3,5
1523181900654064,2,0,-39,-16,16,0,0,-4
1523181900674388,0,12,53,2,-8,8,17,-10
1523181900674388,-13,-4,-5,-14,-8,-3,-4,-7
1523181900683143,-19,-6,16,20,0,0,-1,8
1523181900683143,16,-7,-5,19,2,1,5,-2
1523181900690429,0,-6,-4,29,11,-5,-10,3
1523181900690429,-4,1,-9,-33,1,2,3,5
1523181900697267,-6,0,58,22,0,-4,-9,2
1523181900697267,2,-11,-33,-9,1,1,1,-1
1523181900713538,-4,-5,-16,16,-4,-3,-8,2
1523181900713538,3,18,31,11,4,5,10,7
1523181900714224,-7,-8,38,21,1,-4,-4,0
1523181900714224,2,-8,-15,-25,-11,-7,-6,7
1523181900735281,0,-5,14,1,-4,-5,-6,-10
1523181900735281,-26,-17,-22,-31,-5,0,6,8
1523181900737285,9,-5,-89,-40,-3,0,0,0
1523181900737285,-10,-7,13,21,1,2,9,-19
1523181900750569,14,12,-10,6,-6,0,-2,2
1523181900750569,-11,0,41,17,6,-2,-6,1
1523181900756652,-61,-9,-56,-27,-7,-1,2,-4
1523181900756652,-3,-6,1,-59,-15,-8,-10,-3
1523181900773671,2,5,-20,-7,2,-3,-4,-1
1523181900773671,14,2,5,20,4,4,4,3
1523181900774385,18,-8,27,-1,-3,-5,-4,4
1523181900774385,-15,-12,35,1,0,1,4,9
1523181900795772,-2,-9,-42,-17,2,-2,-13,1
1523181900795772,-13,2,15,27,9,4,-2,14
1523181900797444,45,0,22,-32,-11,-1,8,-2
1523181900797444,-23,10,-5,28,-9,-4,-4,-6
1523181900810555,2,26,-7,8,8,-3,-3,2
1523181900810555,-19,-12,-95,-53,-16,-2,-4,-12
1523181900816831,-15,7,66,39,8,0,1,-1
1523181900816831,0,16,-39,-12,-3,4,7,-23
1523181900833710,14,0,61,-3,1,-2,-4,7
1523181900833710,5,-27,-115,-24,-15,-12,-30,-2
1523181900834544,-16,-3,0,-14,14,16,21,-5
1523181900834544,29,15,80,17,7,3,2,22
1523181900855892,-5,-16,-21,14,-3,1,3,-1
1523181900855892,12,-8,-15,11,-2,-5,-3,6
1523181900856602,-22,21,-8,17,7,3,6,0
1523181900856602,61,11,-29,-18,-8,-5,-6,4
1523181900869637,-3,1,3,16,7,5,5,2
1523181900869637,-8,0,91,-44,-6,-4,10,-3
1523181900876968,-3,-11,-19,70,6,1,-6,-4
1523181900876968,-5,0,-104,-80,-22,-10,-3,-5
1523181900892934,-5,-11,32,21,-1,1,9,6
1523181900892934,23,-6,37,-1,-3,-4,-8,-15
1523181900894704,8,10,3,16,4,0,-3,0
1523181900894704,-35,-49,1,26,7,3,-5,-2
1523181900916093,22,16,-32,-27,-18,-6,6,1
1523181900916093,-13,-8,-29,-9,-10,-7,-12,7
1523181900916762,3,-18,27,5,5,7,23,-1
1523181900916762,4,12,44,10,6,1,-2,10
1523181900929122,-17,-10,-25,-7,4,7,14,-4
1523181900929122,7,-1,22,1,-2,-2,-19,4
1523181900938162,7,13,18,55,10,-8,-12,-2
1523181900938162,11,5,-64,3,1,6,6,0
1523181900952859,-13,8,38,5,-2,3,3,7
1523181900952859,2,4,-5,27,4,2,11,-5
1523181900954865,4,10,-2,-23,-1,-5,-14,-4
1523181900954865,-11,2,-12,25,0,3,5,0
1523181900975992,-9,4,22,0,4,-4,-11,-5
1523181900975992,-40,-20,-58,-15,-5,3,19,-7
1523181900976923,-2,6,33,-21,-15,-8,-18,4
1523181900976923,-4,-5,11,23,19,2,0,5
1523181900989256,-1,-7,20,-42,-12,1,2,3
1523181900989256,29,-19,3,-3,-4,-5,-9,-1
1523181900998018,-3,5,33,-27,-11,-7,-6,1
1523181900998018,61,22,13,79,12,5,-2,3
1523181901013324,1,-11,-19,-64,-13,-6,-11,-6
1523181901013324,-42,31,-37,16,7,1,10,2
1523181901014021,44,-17,41,-6,-8,0,-3,-6
1523181901014021,-5,-12,-20,-21,-8,-7,5,-1
1523181901035078,3,-9,-1,1,0,1,-14,-7
1523181901035078,31,7,-1,41,6,-1,15,11
1523181901037081,-9,9,-38,-30,7,5,-4,-3
1523181901037081,-45,9,-3,-12,-5,0,-2,-9
1523181901049411,4,-31,-28,26,-3,-4,-9,-9
1523181901049411,-12,12,62,-27,-3,0,6,-6
1523181901058142,15,23,5,66,5,-3,-5,14
1523181901058142,-24,-47,-33,-18,-4,0,7,1
1523181901073490,14,19,25,10,10,-4,-2,1
1523181901073490,9,5,-11,19,-5,0,-13,-11
1523181901074181,-8,-9,32,36,10,1,9,-1
1523181901074181,-68,-5,-45,-89,-19,-3,-4,-8
1523181901095555,7,14,-73,19,-5,-9,-12,-6
1523181901095555,2,10,20,4,1,1,2,-8
1523181901097242,-2,-14,-38,-46,-10,-2,2,-5
1523181901097242,-18,0,-10,5,2,-3,-12,4
1523181901109367,-17,-11,-15,-54,5,7,36,-6
1523181901109367,-9,9,58,15,3,-1,-8,-1
1523181901118298,-24,-9,-33,-20,-8,-2,-4,-2
1523181901118298,20,-2,30,-10,4,2,10,-1
1523181901133589,-1,0,-38,32,2,-3,-4,0
1523181901133589,37,10,57,17,1,4,1,10
1523181901134341,1,5,20,-20,-7,-4,16,1
1523181901134341,19,-6,85,50,18,7,-10,1
1523181901155694,-5,-9,3,-27,3,3,3,0
1523181901155694,32,-8,-33,18,1,1,7,-13
1523181901157403,-25,-19,-16,-3,-14,-10,-14,-5
1523181901157403,35,21,33,8,-6,-8,-14,-6
1523181901169434,3,7,1,27,9,4,-4,-2
1523181901169434,35,14,67,-1,-2,-2,-9,7
1523181901178458,-2,10,-31,-13,-4,-10,-7,-30
1523181901178458,0,1,29,-22,-2,2,3,-1
1523181901193757,-5,-20,-30,7,-3,-1,-5,-7
1523181901193757,-38,10,-3,20,2,-5,-4,4
1523181901194500,6,-5,-46,-45,0,6,4,-8
1523181901194500,-8,-4,43,20,0,-4,-1,0
1523181901215862,-5,3,22,-19,-1,-4,-7,0
1523181901215862,-11,-8,-14,-19,-26,-9,-7,1
1523181901216562,8,-11,8,40,12,3,-2,-5
1523181901216562,13,14,-10,-6,-5,-1,2,3
1523181901229818,-6,-4,28,7,-1,1,4,1
1523181901229818,30,-2,10,-5,9,-2,-8,-3
1523181901237931,22,-10,20,39,-1,1,0,18
1523181901237931,6,-21,-71,-84,-17,-1,35,6
1523181901253693,-24,13,28,42,0,-8,-19,-7
1523181901253693,-17,0,-90,-22,-4,-2,-1,-15
1523181901254661,-30,-9,13,28,2,4,8,12
1523181901254661,24,12,-72,-2,-2,-4,-11,-7
1523181901275961,17,7,15,27,0,-4,-9,15
1523181901275961,-36,-30,10,-27,6,9,14,4
1523181901276719,-19,6,-19,-22,-8,-4,-1,-2
1523181901276719,-25,-1,-23,-7,-2,-7,-12,-12
1523181901289870,10,30,-18,21,-7,-3,6,0
1523181901289870,-6,-7,-14,-23,2,3,-6,-6
1523181901298087,19,16,-35,-50,-4,-2,-6,8
1523181901298087,2,2,81,37,2,0,-4,0
1523181901313114,29,5,-36,-17,8,3,3,-10
1523181901313114,48,2,36,4,-10,-8,-4,12
1523181901314820,13,12,-24,-14,2,2,-1,-17
1523181901314820,0,-50,88,20,-2,-2,-7,4
1523181901335877,-5,3,11,16,2,2,25,-11
1523181901335877,-1,7,-23,-33,0,-2,-20,1
1523181901336878,-24,-28,3,18,-2,-1,-5,2
1523181901336878,-19,13,-53,3,0,0,0,14
1523181901357935,5,-12,104,3,9,2,0,0
1523181901357935,-28,-3,22,2,-9,2,8,-3
1523181901360202,9,9,-8,23,-13,-5,-16,0
1523181901360202,-22,-12,6,51,23,8,8,4
1523181901373264,-25,3,-44,5,-12,-7,-3,10
1523181901373264,2,-29,-12,-12,7,1,2,-3
1523181901374980,-9,17,-8,2,3,2,-13,-36
1523181901374980,-16,-12,-16,6,-4,0,14,-2
1523181901396268,52,4,-28,-35,-9,-3,-11,17
1523181901396268,-9,0,23,65,10,6,6,-1
1523181901397041,8,-11,-95,-72,-15,-14,-1,4
1523181901397041,1,10,4,-10,-4,-3,-11,-9
1523181901417405,-48,-19,39,-12,-1,3,-2,4
1523181901417405,-26,-6,-109,-21,-2,-2,2,-10
1523181901425114,-29,-2,30,49,7,0,-7,5
1523181901425114,-12,14,-3,-76,-5,2,0,-13
1523181901433429,26,-6,-7,-8,-6,0,11,3
1523181901433429,-16,-23,23,31,10,-1,-14,-27
1523181901439484,-16,-19,-37,-27,-9,-5,-8,-6
1523181901439484,6,11,-32,8,-3,-1,8,9
1523181901455491,8,5,58,-6,-3,2,7,-8
1523181901455491,-45,-14,48,-16,14,9,11,6
1523181901457199,41,-16,-10,9,-3,-4,9,14
1523181901457199,-14,16,15,2,-4,-5,-14,-14
1523181901478504,4,20,-72,-13,-3,-5,-20,9
1523181901478504,22,18,40,23,12,11,23,12
1523181901479258,-18,21,17,-16,5,6,8,7
1523181901479258,9,-23,-84,-16,-5,-7,-4,-4
1523181901492589,-11,-1,17,-1,-11,-5,-11,5
1523181901492589,31,11,21,5,6,3,4,0
1523181901499624,-3,10,-29,-21,2,5,12,1
1523181901499624,-8,8,48,-6,-2,-2,0,6
1523181901515683,30,-1,7,37,6,-3,-1,-16
1523181901515683,13,4,-57,-57,-1,-4,-13,2
1523181901517358,-6,7,61,39,-6,2,6,3
1523181901517358,-5,19,-14,-6,-7,-4,-10,-2
1523181901538719,-40,-28,-13,6,8,3,3,1
1523181901538719,-4,12,-3,-66,-21,-4,13,-15
1523181901539419,1,-8,13,84,18,0,3,10
1523181901539419,18,4,-21,30,-5,-2,1,6
1523181901552453,-13,-7,-77,-72,-4,2,-3,-8
1523181901552453,11,-8,-6,-13,-8,-7,-13,5
1523181901559724,-8,8,-59,-5,7,7,6,-5
1523181901559724,1,-12,25,-17,-7,-4,-4,-4
1523181901575512,7,6,19,26,3,-4,-25,-9
1523181901575512,32,-12,-26,33,-6,-1,15,13
1523181901577519,17,31,85,-18,-1,-2,-12,-4
1523181901577519,4,-10,-27,6,1,1,0,-4
1523181901598690,-8,11,2,21,-4,-7,-10,2
1523181901598690,-2,16,29,-15,-9,-1,2,-1
1523181901599578,-27,-83,-36,1,-1,-1,7,6
1523181901599578,66,11,-8,0,9,3,-5,-1
1523181901612946,-17,-19,24,4,-5,-2,-5,-19
1523181901612946,18,21,-9,27,1,-4,-7,-1
1523181901618628,-21,11,-23,-4,-6,-7,9,8
1523181901618628,5,8,61,38,7,5,-6,-7
1523181901635673,28,-24,-65,-42,0,2,13,8
1523181901635673,-17,-4,12,15,4,2,-1,-3
1523181901636710,22,24,4,-18,-5,-3,12,14
1523181901636710,35,0,-74,17,-6,-8,-29,1
1523181901657732,-24,1,66,20,-1,1,10,1
1523181901657732,-14,-15,-48,-11,0,-2,-7,0
1523181901659737,7,9,32,-11,-1,2,3,-9
1523181901659737,-24,-8,1,16,-4,-5,3,-3
1523181901672047,5,-1,31,33,16,8,12,14
1523181901672047,-5,14,-17,-36,-15,-7,-17,-15
1523181901679105,4,-16,26,-24,-6,-4,-6,4
1523181901679105,28,8,33,-4,9,4,15,8
1523181901696131,-21,29,-16,5,-4,-5,-12,-24
1523181901696131,-7,-9,-29,28,6,2,12,9
1523181901696837,14,13,-33,-17,1,0,-1,0
1523181901696837,-39,-10,83,-28,-17,-4,-1,-17
1523181901717896,18,25,-8,36,-4,-6,-4,-1
1523181901717896,-9,0,36,-48,1,-1,6,9
1523181901719899,0,-12,-28,18,17,6,3,-21
1523181901719899,1,-1,-41,-15,-9,-2,-8,6
1523181901732966,3,-2,-27,-33,-9,-2,4,-1
1523181901732966,-46,-14,25,38,0,0,-13,-4
1523181901739276,23,1,29,9,-9,-8,-12,5
1523181901739276,2,-4,-48,-1,14,3,22,3
1523181901756240,-20,3,103,29,5,-7,-10,3
1523181901756240,7,-11,4,26,3,15,20,-4
1523181901756996,-36,-31,10,-41,-16,-8,-17,16
1523181901756996,-15,2,2,12,3,6,9,-14
1523181901778369,19,3,-68,-17,-6,-3,4,5
1523181901778369,6,26,36,34,7,-10,-15,-3
1523181901779055,14,-12,-15,-4,6,7,20,-6
1523181901779055,-13,-18,14,-19,-18,-4,-7,-5
1523181901792324,-10,-19,-8,26,13,6,3,2
1523181901792324,28,-21,-9,-18,-3,-7,-4,-8
1523181901799427,-1,36,67,-30,-11,-5,-13,-7
1523181901799427,37,-18,-28,-26,-1,-2,8,6
1523181901815498,-6,12,24,-20,12,6,6,-4
1523181901815498,13,-2,-16,-2,-9,0,-4,16
1523181901817176,0,8,-29,-16,-9,-9,2,-2
1523181901817176,-18,-20,-29,36,18,7,-28,-7
1523181901838519,35,-13,-25,-27,-20,-9,-3,-12
1523181901838519,-6,11,2,22,0,-4,-4,1
1523181901839235,-24,-15,25,7,10,5,6,-14
1523181901839235,39,14,70,24,5,-1,19,17
1523181901851268,-30,-16,-114,-63,-5,2,-6,-17
1523181901851268,32,16,31,7,-5,-9,-16,6
1523181901860613,13,7,4,20,3,2,-3,-5
1523181901860613,-23,-19,-24,-9,-8,-5,-8,-4
1523181901875637,-24,-5,49,18,2,7,17,4
1523181901875637,-15,-4,-78,-17,7,-3,4,-1
1523181901877337,-15,30,57,-1,-1,3,-14,-8
1523181901877337,-6,-28,98,26,3,-2,2,17
1523181901898686,-6,-5,-27,5,12,8,24,-3
1523181901898686,-25,13,65,8,-6,2,-11,1
1523181901899396,-67,-49,-44,-19,10,6,8,8
1523181901899396,-27,37,-24,12,-3,-3,1,-1
1523181901911666,16,-5,-3,-63,-14,-10,-14,13
1523181901911666,1,-12,7,21,6,4,12,1
1523181901920485,-38,7,-29,7,7,8,6,0
1523181901920485,-5,-1,85,11,-7,-7,-6,-13
1523181901935490,-11,-7,-46,3,-14,-8,-25,2
1523181901935490,-18,0,25,1,-1,-4,16,-10
1523181901936492,4,-3,-30,13,1,-1,-9,11
1523181901936492,2,18,-6,-18,-4,-1,6,-2
1523181901958603,12,6,5,40,9,6,4,4
1523181901958603,0,-15,25,-26,-5,-3,-6,8
1523181901959555,8,-48,17,7,-19,-5,0,-1
1523181901959555,-12,25,-32,13,13,0,-2,1
1523181901971869,-2,-6,1,4,-4,0,2,2
1523181901971869,7,24,33,-31,0,0,-3,-2
1523181901980609,17,9,-14,-10,-2,-8,-3,-8
1523181901980609,1,2,-24,-4,-2,0,-9,-6
1523181901995959,-21,-23,-23,28,-2,-1,-9,-2
1523181901995959,3,3,-8,-2,-1,1,0,-7
1523181901996652,25,20,35,58,4,-6,-17,-27
1523181901996652,23,-23,-94,10,2,6,10,8
1523181902017711,38,32,1,-19,-1,-3,-3,-2
1523181902017711,27,-15,-11,7,-4,-4,0,2
1523181902019713,35,20,3,-8,-2,-3,-17,9
1523181902019713,13,-31,-48,-6,-4,2,12,-1
1523181902031746,-22,8,-7,35,-1,-8,-10,-8
1523181902031746,-15,-8,-36,-11,0,0,8,-6
1523181902040769,11,-12,7,3,-3,-5,-6,-1
1523181902040769,-20,16,57,-6,6,4,10,9
1523181902056104,4,1,0,-49,-12,-2,-5,-6
1523181902056104,-11,-15,-42,76,6,-5,-6,0
1523181902056812,0,27,38,21,15,10,17,-8
1523181902056812,-15,-17,-51,1,-2,2,5,1
1523181902078153,0,0,37,-85,-11,-3,5,-8
1523181902078153,-39,2,4,-15,-7,-2,0,5
1523181902079874,-13,3,-8,1,-4,-1,-2,12
1523181902079874,11,22,16,13,-6,-11,-14,-8
1523181902092145,-5,-11,-14,29,4,-2,-8,-1
1523181902092145,-9,-4,-1,-17,-4,1,0,-12
1523181902100930,5,1,-4,-10,-12,-3,-6,16
1523181902100930,5,-7,11,-14,-3,3,10,2
1523181902116260,18,-11,-26,29,-6,-3,4,7
1523181902116260,13,1,6,25,13,-1,-17,-12
1523181902116974,3,-24,-16,-6,-1,-1,-1,-5
1523181902116974,-11,-14,41,20,-6,-3,-16,-6
1523181902138028,-25,-12,-6,-7,-12,1,6,10
1523181902138028,63,-7,-69,-45,-13,-2,9,13
1523181902139032,-49,-25,-52,27,-1,-12,-16,-15
1523181902139032,-15,13,41,2,7,3,4,-9
1523181902151063,4,6,0,6,14,4,7,9
1523181902151063,-1,-1,15,-5,-7,-1,1,2
1523181902160085,2,13,2,-10,-11,1,1,7
1523181902160085,30,0,-63,-2,-1,-4,-12,6
1523181902176164,-2,18,5,12,14,2,10,6
1523181902176164,-19,1,15,7,-2,5,2,-3
1523181902177132,-13,10,-17,-21,5,2,10,-10
1523181902177132,-4,-6,21,-9,0,-5,-13,10
1523181902198555,-3,17,104,10,1,3,7,-11
1523181902198555,-14,-18,-83,-19,0,-7,-10,-7
1523181902199194,10,-1,3,13,-1,1,17,2
1523181902199194,-60,2,-4,-15,0,3,10,-19
1523181902212452,4,4,49,-12,-5,-9,-13,4
1523181902212452,-7,-5,6,18,7,6,12,3
1523181902220621,8,9,49,-28,7,1,2,0
1523181902220621,-6,-16,-78,-16,-11,3,-1,6
1523181902235286,-40,-10,-9,5,0,4,20,-2
1523181902235286,12,4,9,-8,2,-2,-25,-24
1523181902237292,12,9,-2,24,-1,-3,-5,4
1523181902237292,6,15,46,-5,13,3,-1,-7
1523181902258729,-4,-38,-5,18,-5,-3,-4,3
1523181902258729,-35,1,72,-11,-3,6,18,8
1523181902259350,35,-2,-74,-15,5,1,3,-14
1523181902259350,-1,31,-5,23,-6,-6,-12,-6
