timestamp,emg1,emg2,emg3,emg4,emg5,emg6,emg7,emg8
1523147442302418,17,1,-18,-13,-47,-18,-16,4
1523147442302418,-24,20,6,66,0,1,8,16
1523147442304423,4,23,15,64,8,4,7,2
1523147442304423,2,-54,2,88,44,11,2,15
1523147442315955,-8,-3,-40,-41,-45,-13,-5,-27
1523147442315955,16,13,13,55,11,6,-1,2
1523147442324978,-23,34,13,26,5,-2,1,7
1523147442324978,13,1,9,-1,11,4,-1,16
1523147442340017,11,2,-2,32,-1,-4,-6,-3
1523147442340017,12,-9,5,-9,-1,1,0,14
1523147442341523,40,41,5,-6,13,8,2,14
1523147442341523,-37,-19,-2,-57,-21,-7,1,-30
1523147442363089,11,25,-10,34,9,-4,-6,10
1523147442363089,-3,26,4,-64,0,-5,-1,31
1523147442364594,4,-19,-3,26,8,3,4,-27
1523147442364594,-16,-3,-9,-43,-23,-6,-3,11
1523147442376114,15,18,13,8,9,1,-5,-5
1523147442376114,-25,11,8,24,10,2,0,-25
1523147442385138,-18,-51,-24,-28,-13,-9,-8,4
1523147442385138,-1,19,-12,-21,-13,-6,-4,11
1523147442400182,15,7,32,3,9,3,9,15
1523147442400182,30,-28,12,5,3,3,-1,35
1523147442401682,22,6,0,0,6,1,1,-2
1523147442401682,-45,-23,-29,-14,-16,-5,-2,-39
1523147442422737,-21,-14,-33,-11,1,-4,-11,-18
1523147442422737,-48,45,28,6,-5,2,7,53
1523147442424242,1,19,-3,9,-1,0,-1,-11
1523147442424242,7,-40,-17,-11,-2,-4,-4,-5
1523147442445300,-48,-4,9,-5,9,8,8,-2
1523147442445300,19,17,6,10,2,-1,1,31
1523147442446807,18,16,-6,-3,-7,-1,1,16
1523147442446807,-11,33,-3,-12,-9,-6,-5,-9
1523147442460340,-3,3,0,2,8,2,4,-13
1523147442460340,83,16,8,6,0,-2,-2,-5
1523147442461845,-25,-25,-4,3,0,-1,15,1
1523147442461845,63,-42,-12,-10,1,1,-21,-20
1523147442482402,41,17,12,2,-3,-3,-6,8
1523147442482402,-17,-23,-15,-25,0,1,6,-14
1523147442484405,-20,0,-2,12,-9,-3,-5,-16
1523147442484405,54,28,26,59,23,7,10,10
1523147442496454,-6,-2,-5,-67,-19,-6,-3,-5
1523147442496454,-14,2,2,91,15,0,-4,-11
1523147442505462,-25,-13,-36,-21,-16,-12,-12,-19
1523147442505462,32,47,31,79,23,14,15,25
1523147442520557,-50,-19,4,88,13,2,4,9
1523147442520557,-12,6,17,-28,1,2,1,-7
1523147442526090,54,-12,-14,12,-11,-14,-16,-9
1523147442526090,-13,22,31,101,39,11,9,0
1523147442542633,0,9,-36,-77,-42,-9,-6,25
1523147442542633,8,1,-7,-8,-8,0,9,6
1523147442544063,-30,-19,56,124,35,10,-2,18
1523147442544063,-5,9,-40,-128,-62,-23,-10,-10
1523147442565122,-42,-16,13,69,24,6,1,-20
1523147442565122,25,15,-10,-6,0,-2,-13,1
1523147442566623,-47,-5,-2,-45,-4,2,7,1
1523147442566623,46,25,6,-24,-29,-5,4,7
1523147442579157,30,-8,4,1,2,-1,-3,3
1523147442579157,-11,8,-18,-19,-4,-1,4,-8
1523147442580164,-63,-1,18,-1,18,8,4,-14
1523147442580164,-71,-11,-5,-71,-28,-8,-5,2
1523147442601789,38,-3,11,42,10,0,-1,-5
1523147442601789,8,-12,16,77,10,3,0,1
1523147442602721,17,2,-14,12,-2,-1,-4,-10
1523147442602721,-21,-12,-9,-26,-7,-5,-2,1
1523147442624276,39,14,-3,-20,-2,0,4,11
1523147442624276,-9,19,14,104,11,-2,-8,-15
1523147442625278,-22,-61,-26,-18,-10,-4,-3,-5
1523147442625278,-15,19,-15,-23,-10,-8,-6,-8
1523147442639323,39,12,17,20,10,6,8,-6
1523147442639323,-14,2,17,-8,5,0,0,-16
1523147442640318,41,3,-22,42,-6,-6,-6,9
1523147442640318,-5,-5,-14,-40,-10,-1,-1,4
1523147442661876,-14,-2,7,75,6,-1,-1,-7
1523147442661876,-8,-13,-19,-7,-9,-4,-3,2
1523147442662879,18,12,23,42,35,11,4,6
1523147442662879,-6,-13,-38,-10,-37,-10,-6,-7
1523147442684514,-9,5,10,30,3,-3,-6,7
1523147442684514,-9,-15,-18,-31,-9,-2,-5,0
1523147442685441,12,13,32,26,7,-1,1,5
1523147442685441,5,11,12,55,43,15,5,9
1523147442699476,4,10,18,9,0,0,6,6
1523147442699476,-55,1,-45,-93,-37,-11,-18,-21
1523147442700479,-15,17,18,45,-6,-3,-4,18
1523147442700479,-3,-6,21,36,0,-3,0,-23
1523147442722039,-31,-12,-13,57,8,-1,-11,11
1523147442722039,7,-27,18,-13,10,2,2,18
1523147442722541,-14,14,-10,-33,-11,0,2,-17
1523147442722541,19,14,12,6,9,5,8,8
1523147442744597,-44,4,-22,-39,-1,-3,-4,-19
1523147442744597,5,4,29,82,20,3,2,12
1523147442745100,-10,-14,-58,-128,-56,-13,-7,-10
1523147442745100,-30,-16,6,67,13,1,8,8
1523147442759636,23,-8,9,-20,1,-1,1,-2
1523147442759636,28,7,11,56,22,7,3,2
1523147442760137,0,-7,-52,-78,-36,-8,-2,-7
1523147442760137,2,-5,5,64,11,0,-2,-8
1523147442782235,-10,-1,-5,-14,-16,-4,-3,-9
1523147442782235,-34,-22,-11,3,7,2,1,-7
1523147442782699,22,-17,25,25,18,3,-3,-14
1523147442782699,-7,-10,-2,-47,-9,-2,-7,15
1523147442804260,-20,2,-24,-16,9,0,2,3
1523147442804260,24,-4,-13,-23,-11,-3,-4,-1
1523147442805259,-11,0,6,3,7,2,0,-22
1523147442805259,-18,41,-2,-23,-3,-2,-6,-2
1523147442819307,25,20,2,-33,0,0,2,-7
1523147442819307,7,-3,-14,-11,-8,-1,1,0
1523147442820298,-6,-14,-11,2,-2,-2,-2,6
1523147442820298,-20,-11,12,12,8,2,4,6
1523147442841900,-1,13,23,9,8,9,4,1
1523147442841900,-13,-15,-19,-16,-7,-4,1,-8
1523147442842858,-3,21,13,35,8,-3,-4,9
1523147442842858,-16,-15,2,-9,2,-1,2,6
1523147442864418,78,22,4,-15,-4,2,-4,-20
1523147442864418,6,-6,-11,10,-4,-3,-5,6
1523147442865418,29,0,11,7,9,8,13,9
1523147442865418,45,8,-4,-12,-1,-3,-3,2
1523147442879459,-10,-15,2,-9,-10,-4,3,-14
1523147442879459,52,31,-3,-3,-9,-7,-12,9
1523147442879956,6,4,1,1,1,-1,3,0
1523147442879956,32,-18,-23,-4,-1,1,6,4
1523147442902052,-9,-13,-13,12,-7,2,-2,10
1523147442902052,24,-2,15,-10,-3,-2,-4,-27
1523147442902516,-14,-51,-27,-6,-10,-5,-4,-2
1523147442902516,23,17,0,4,-6,-3,-5,-1
1523147442924616,-8,12,19,-12,2,2,0,24
1523147442924616,-4,-7,-14,-8,-9,-9,-11,-26
1523147442925076,65,5,-10,13,5,4,0,0
1523147442925076,-25,4,13,10,5,0,-5,10
1523147442939665,-6,1,-9,2,6,-1,6,5
1523147442939665,-44,-11,1,-7,-19,3,5,-6
1523147442940116,58,49,14,14,3,-2,-3,4
1523147442940116,19,7,11,-1,0,3,5,1
1523147442962176,-4,-8,4,-7,-5,-7,-1,29
1523147442962176,-91,-67,-8,19,17,10,7,-19
1523147442962677,-51,17,1,-2,-7,-7,-6,4
1523147442962677,14,10,5,19,17,-4,1,-5
1523147442984280,9,-2,0,0,-19,2,-4,-6
1523147442984280,13,19,3,-19,-6,-3,4,19
1523147442985236,20,-5,-1,42,3,1,-3,2
1523147442985236,-31,-24,0,-3,-8,-5,-5,-5
1523147442998773,-13,3,18,45,20,0,-4,-5
1523147442998773,37,13,-38,-26,-5,-3,-4,17
1523147443006839,-13,1,19,0,11,-4,-1,-6
1523147443006839,6,11,-21,30,-11,13,3,-2
1523147443021883,4,-10,4,36,20,0,-3,8
1523147443021883,-17,-4,4,-59,-27,-5,0,-9
1523147443022837,10,-4,14,103,37,-11,-3,-8
1523147443022837,6,-6,-13,-62,-24,12,0,-2
1523147443044394,-21,-9,5,11,-7,-2,-2,-17
1523147443044394,-3,-3,-11,4,1,-5,-5,23
1523147443045396,-23,7,22,95,9,5,1,3
1523147443045396,-1,0,25,31,16,2,3,4
1523147443058984,6,-8,-15,87,5,-4,1,-37
1523147443058984,-4,5,11,53,-13,-8,-5,23
1523147443066985,-8,1,-6,-46,-8,5,-11,-7
1523147443066985,-10,-6,14,108,20,3,0,0
1523147443081997,-30,-10,-20,-33,-1,-7,-2,-4
1523147443081997,6,15,12,-23,2,2,5,-13
1523147443082494,-48,-3,0,18,-3,9,6,24
1523147443082494,63,46,4,-30,2,-7,-6,-10
1523147443104602,2,-27,-16,-89,-23,-5,-3,0
1523147443104602,12,-1,9,51,24,-1,-4,2
1523147443105054,-34,7,6,69,11,9,8,0
1523147443105054,-41,-29,-46,-12,-41,-16,-6,-10
1523147443118596,4,14,4,67,-7,-5,-4,11
1523147443118596,17,6,17,85,19,7,1,-4
1523147443127113,-17,-5,26,-98,5,11,10,-3
1523147443127113,-28,-11,-9,36,1,-6,-2,-23
1523147443142155,-6,-24,-5,-16,-4,3,0,24
1523147443142155,-3,4,1,22,4,-2,2,-2
1523147443142655,-3,-7,-9,-56,-10,-6,-6,-11
1523147443142655,-10,-12,0,-56,-3,-2,-3,3
1523147443164214,0,7,-10,-33,-6,-1,-2,-8
1523147443164214,3,-12,5,36,20,9,7,5
1523147443165215,-5,-3,-15,3,-25,-8,-3,-2
1523147443165215,10,-1,4,-21,4,-2,-6,28
1523147443178755,24,11,19,13,11,4,3,-4
1523147443178755,10,-6,-43,-68,-32,-10,-4,2
1523147443194293,53,2,-16,-9,-7,-4,1,5
1523147443194293,-55,-19,-1,3,1,-7,-4,-15
1523147443201813,26,25,26,32,22,9,5,-1
1523147443201813,8,9,-16,-81,-15,3,0,1
1523147443202816,5,0,-20,-63,-22,-9,-7,-15
1523147443202816,21,0,20,37,8,1,-2,12
1523147443224601,-9,2,-9,13,0,-4,-2,4
1523147443224601,-33,-7,0,35,1,-2,-1,-12
1523147443225380,-16,10,-5,9,-4,0,1,1
1523147443225380,6,11,10,23,13,4,0,-7
1523147443239148,-9,1,13,-10,-6,-3,-4,1
1523147443239148,7,7,6,8,7,-2,-3,0
1523147443246938,-15,-8,16,3,-3,9,6,7
1523147443246938,0,-4,-35,-24,-4,-4,-5,-5
1523147443261974,-16,-10,-18,-20,-9,-7,-6,-6
1523147443261974,-14,-19,6,10,0,-1,1,1
1523147443262475,35,15,6,-7,11,3,4,25
1523147443262475,20,-4,4,-17,-3,-1,-5,-25
1523147443284535,2,-22,6,-4,-7,-4,-4,10
1523147443284535,6,16,11,52,14,-1,0,2
1523147443285035,14,-11,-24,-80,-29,-9,-5,-10
1523147443285035,31,16,14,48,10,9,11,-9
1523147443298570,-34,-35,-17,2,-4,-6,-15,-5
1523147443298570,5,6,24,21,6,2,-3,-16
1523147443307092,-3,1,-5,-44,-15,-7,-4,-2
1523147443307092,-30,-6,-4,-3,-2,-2,0,-5
1523147443321629,-9,22,-6,-2,7,-2,4,-13
1523147443321629,-17,7,-12,-103,-31,-6,-3,0
1523147443322633,-22,-22,7,59,14,1,-8,-22
1523147443322633,22,9,11,-9,1,3,6,23
1523147443344191,34,-1,11,4,16,10,9,12
1523147443344191,7,-25,-15,-18,-15,-5,-5,-15
1523147443345193,0,28,5,10,5,1,2,8
1523147443345193,32,-16,-3,-12,0,1,6,12
1523147443358728,27,20,33,11,17,2,-5,61
1523147443358728,-28,-17,-12,2,-2,0,-1,-20
1523147443366750,-13,-14,-14,3,-3,-8,-13,-74
1523147443366750,45,28,13,3,0,-1,-4,48
1523147443381789,0,6,6,-19,-6,3,11,12
1523147443381789,-49,27,10,7,3,1,-2,-28
1523147443382796,-34,-10,-34,1,-4,-7,4,0
1523147443382796,40,-6,20,8,8,5,-2,3
1523147443404349,16,-4,-34,-21,-17,-8,-2,31
1523147443404349,-17,-43,-10,23,5,0,-2,-3
1523147443405351,30,7,26,19,5,5,7,-9
1523147443405351,-86,-40,-13,-13,-6,-5,-3,-9
1523147443418386,0,-4,2,-4,-10,-3,-3,-28
1523147443418386,-42,-18,-8,-11,-8,-10,-18,10
1523147443426912,10,33,-4,7,4,-3,-4,36
1523147443426912,-7,-1,-14,-6,-3,-2,-1,-9
1523147443441958,-4,8,-8,0,-3,1,3,-51
1523147443441958,11,19,1,4,1,-1,6,-17
1523147443442955,33,-3,3,2,-1,1,-2,43
1523147443442955,-69,1,-6,-8,-13,-9,-9,-21
1523147443472561,-30,-13,3,-5,-3,-1,6,-37
1523147443472561,37,28,-10,-35,-2,0,0,-1
1523147443473536,28,14,25,17,2,-2,0,17
1523147443473536,5,2,-19,47,11,4,4,-15
1523147443487607,-16,-19,0,32,-11,-7,-6,-6
1523147443487607,26,-7,14,-43,-2,-1,6,46
1523147443488576,-48,1,14,-14,14,7,1,-35
1523147443488576,-12,-51,-18,34,-19,-8,-8,5
1523147443501692,16,21,-8,-18,-4,-2,-2,-1
1523147443501692,57,10,9,48,1,2,4,10
1523147443502614,-50,-26,-7,88,29,3,-4,12
1523147443502614,32,16,-16,-98,-37,-13,0,5
1523147443524252,-16,-20,2,24,4,3,-9,6
1523147443524252,17,16,19,44,13,3,10,43
1523147443525173,1,-8,-4,108,-8,-4,0,-23
1523147443525173,-18,10,-2,-6,-9,-2,2,-7
1523147443547733,21,-15,-13,24,-9,-10,-20,-8
1523147443547733,-1,5,4,56,9,3,-1,-12
1523147443548235,6,-4,9,-52,0,4,3,3
1523147443548235,-9,2,-19,-76,-15,-7,-6,3
1523147443561770,2,5,-9,-23,-9,3,8,-1
1523147443561770,-8,4,18,14,19,3,0,-7
1523147443562773,11,-4,-48,67,0,0,-3,2
1523147443562773,20,-3,-5,-24,-17,-2,0,-5
1523147443584331,-82,-45,10,53,21,4,3,-12
1523147443584331,29,11,1,28,0,-1,2,9
1523147443585335,3,1,9,10,4,1,0,-2
1523147443585335,44,27,4,-32,10,-2,-3,-1
1523147443607463,-11,-4,-13,29,15,2,0,7
1523147443607463,-5,2,-6,-95,-40,-3,-1,-4
1523147443608396,-52,-16,-5,-21,-27,-10,-3,-9
1523147443608396,30,3,7,104,27,2,-3,-13
1523147443622023,22,20,1,-18,-7,0,-1,-25
1523147443622023,-13,-12,-1,30,4,-1,-3,1
1523147443622934,17,36,-2,-24,4,0,1,2
1523147443622934,-1,-5,36,30,5,-1,-2,6
1523147443644495,-10,5,-28,-47,-24,-2,0,-2
1523147443644495,-11,-10,0,34,3,0,0,-5
1523147443644992,8,-3,14,44,19,6,1,9
1523147443644992,-20,-16,-12,-21,-24,-10,-4,-9
1523147443667622,20,14,-2,-25,-5,-5,-7,15
1523147443667622,-19,2,1,-8,0,-2,-3,-9
1523147443668555,-10,-1,0,-44,-8,-3,-3,-11
1523147443668555,-10,5,12,20,20,9,5,4
1523147443682126,22,9,9,92,15,1,1,3
1523147443682126,-19,-9,-31,-50,-35,-8,0,-18
1523147443682603,7,-18,3,22,10,-1,-8,22
1523147443682603,-4,-1,2,41,7,2,3,14
1523147443704221,9,5,-9,-2,-6,-5,-2,0
1523147443704221,33,4,20,50,25,2,0,-6
1523147443705153,5,-16,-16,11,-21,-5,0,-8
1523147443705153,-17,-9,-5,46,-3,-1,0,-4
1523147443727711,5,44,8,31,1,2,1,9
1523147443727711,-4,-18,4,11,7,3,2,5
1523147443728214,1,-15,-7,-33,-5,-3,-2,-41
1523147443728214,23,-6,14,8,9,4,1,9
1523147443741819,9,10,15,-33,-5,0,3,-10
1523147443741819,-36,-2,-26,-12,-8,-9,-6,-9
1523147443749304,-4,-19,-3,-12,-5,-2,-10,5
1523147443749304,-20,7,7,29,8,-1,-3,-4
1523147443764315,10,-8,-11,-58,-11,-1,1,0
1523147443764315,-5,-5,19,12,5,3,3,-8
1523147443765313,-2,-7,-1,-78,-9,-2,2,12
1523147443765313,-17,-7,-8,3,2,-2,-4,-7
1523147443787425,2,-6,11,21,1,2,0,9
1523147443787425,-4,4,-7,44,9,-2,-1,-8
1523147443788374,4,4,-22,-62,-12,-2,5,6
1523147443788374,23,10,6,20,12,5,2,5
1523147443801912,-15,-15,-5,-9,-3,-2,3,11
1523147443801912,3,-16,2,4,-4,-4,-7,-9
1523147443802913,3,2,9,9,0,3,15,-26
1523147443802913,12,42,-13,-28,0,-3,-19,43
1523147443824543,29,3,4,19,4,-1,-5,-10
1523147443824543,51,-45,16,26,5,6,10,6
1523147443825474,-6,0,-1,34,3,-3,-8,-14
1523147443825474,-18,-2,0,-56,-10,-2,8,16
1523147443847538,17,-7,9,12,4,1,2,3
1523147443847538,14,43,-10,7,3,-1,-3,13
1523147443848534,1,-25,5,-16,0,0,1,-10
1523147443848534,-35,-12,-8,9,-1,0,9,-16
1523147443862069,-26,-3,0,-16,-2,-3,-8,4
1523147443862069,-32,-21,-26,-29,-5,-4,-8,-8
1523147443862571,21,28,15,-26,-16,-8,-11,-12
1523147443862571,-38,-18,4,5,-5,-3,-6,-10
1523147443884127,45,40,22,-1,2,3,3,-27
1523147443884127,-10,10,-16,-9,-1,-2,-8,-35
1523147443885130,14,12,-28,-5,-18,-7,-15,50
1523147443885130,-87,-36,-17,12,3,-1,-1,-33
1523147443907729,-3,25,-8,-3,-5,-8,-12,62
1523147443907729,41,68,11,5,-6,3,6,-6
1523147443908192,-12,-15,8,18,12,4,6,-1
1523147443908192,4,-12,-35,-5,1,-1,-5,-35
1523147443921786,-18,-30,-38,-4,-4,-5,2,-7
1523147443921786,-21,13,10,-17,-4,-3,1,16
1523147443922731,-4,-22,10,33,8,2,2,-1
1523147443922731,30,8,15,-34,-11,-1,5,20
1523147443944290,-30,-28,-1,46,14,-1,-1,-23
1523147443944290,1,-39,-18,-51,-8,-5,-5,0
1523147443945291,-12,10,-9,33,7,3,7,-13
1523147443945291,21,-6,8,1,-8,-3,-5,-20
1523147443967431,4,-41,3,26,8,6,6,-6
1523147443967431,7,-77,0,44,12,-2,-9,4
1523147443968353,0,5,-12,-15,-14,-6,-3,-19
1523147443968353,8,23,12,53,10,2,1,2
1523147443981959,-19,6,5,-50,-8,-1,1,7
1523147443981959,-52,0,-23,-17,-26,-6,-2,-7
1523147443982892,-16,1,-12,-33,3,-1,-3,2
1523147443982892,24,-10,4,64,18,2,-1,-5
1523147444004519,-14,-8,1,-26,-13,-6,-3,-10
1523147444004519,10,0,13,8,17,3,-1,12
1523147444005451,15,24,7,38,-15,-2,0,5
1523147444005451,3,9,-4,68,-11,-2,-2,6
1523147444027514,4,-5,-3,99,2,1,6,7
1523147444027514,1,43,17,84,24,7,-5,0
1523147444028512,-8,-5,-20,-51,-20,-8,-3,1
1523147444028512,1,27,-9,1,-2,-6,2,-29
1523147444042061,14,15,-7,-32,-9,0,1,20
1523147444042061,2,-10,8,2,-1,1,-7,-27
1523147444042550,5,30,10,103,39,4,1,12
1523147444042550,6,-2,15,-7,-13,-2,5,3
1523147444064609,-8,-36,-22,-33,-4,-3,-1,-18
1523147444064609,3,-18,-20,-41,-17,-2,2,18
1523147444065109,15,-32,7,-56,-8,0,2,18
1523147444065109,2,24,22,-30,7,2,-4,3
1523147444087724,-9,-2,-40,11,-41,-23,-14,-15
1523147444087724,-7,-9,14,48,21,10,9,23
1523147444088171,-2,-43,1,-39,-11,6,3,-1
1523147444088171,-31,-4,24,28,19,2,-2,0
1523147444101276,1,-2,29,66,28,5,1,2
1523147444101276,9,36,-14,-15,-7,-4,-2,-12
1523147444109273,5,-19,-27,65,15,4,1,1
1523147444109273,11,20,-16,-76,-35,-6,-4,1
1523147444124341,8,1,30,52,-1,1,-2,-5
1523147444124341,-1,41,-5,48,-6,-6,0,-3
1523147444125271,15,12,43,-43,18,11,5,6
1523147444125271,18,-15,-27,76,15,-11,-6,21
1523147444147830,21,3,-13,-42,-6,1,2,-34
1523147444147830,-11,-11,-1,-7,-3,-3,-1,7
1523147444148332,-1,20,12,-13,-2,-1,-6,-16
1523147444148332,10,-24,-24,-12,-11,2,-1,-4
1523147444161367,18,23,9,-40,0,0,3,5
1523147444161367,27,-11,5,-26,1,1,8,18
1523147444169391,-43,0,-12,55,-6,-5,-3,-9
1523147444169391,8,-13,8,14,-4,-2,-1,21
1523147444184428,-22,0,2,23,4,3,-1,12
1523147444184428,1,3,5,-11,-3,-1,-1,-5
1523147444184929,-21,-1,-7,9,-1,-8,-6,-1
1523147444184929,-19,-6,-22,43,-7,-2,-4,-14
1523147444207560,-19,25,4,-6,7,3,1,9
1523147444207560,-64,5,-12,5,-9,-4,-1,-8
1523147444208493,19,11,5,21,-2,-5,-4,-15
1523147444208493,10,31,45,100,39,11,9,41
1523147444221095,-12,-30,-74,-120,-58,-15,-10,-24
1523147444221095,-2,38,-4,79,-4,-3,-2,45
1523147444229548,69,15,-2,41,5,0,2,26
1523147444229548,22,-5,8,5,4,-1,-8,-22
1523147444244588,-8,7,10,-76,2,2,-1,3
1523147444244588,6,-4,13,-57,11,3,2,-7
1523147444245089,-18,-5,-14,67,1,-3,1,-3
1523147444245089,-23,10,6,-51,0,3,2,7
1523147444267218,50,-18,-6,55,11,-1,3,3
1523147444267218,16,-15,13,-20,0,0,-3,-14
1523147444268156,-10,-8,16,-54,-8,-2,0,3
1523147444268156,-26,-14,-23,24,4,-1,2,-15
1523147444290255,83,37,13,35,10,-1,1,16
1523147444290255,13,-7,-23,4,-15,-7,-5,-7
1523147444290709,7,-1,17,-35,0,1,-1,-1
1523147444290709,-15,-24,-9,-54,-20,-6,-4,-6
1523147444304250,-6,14,-1,4,15,5,5,-8
1523147444304250,14,-22,10,127,12,4,-5,18
1523147444305251,4,9,4,17,5,-3,-3,-3
1523147444305251,6,11,-10,-59,-23,-5,-2,-25
1523147444327808,6,-22,6,100,21,0,1,51
1523147444327808,70,1,-2,10,-4,0,-1,25
1523147444328310,-49,12,8,25,9,4,3,-11
1523147444328310,31,-31,-4,-20,-3,0,-1,-2
1523147444341349,-28,23,19,-35,-6,-2,-3,-18
1523147444341349,23,23,-27,-47,-14,-10,-3,-8
1523147444349414,54,5,20,7,-1,0,2,16
1523147444349414,13,0,3,-10,2,1,1,11
1523147444364412,-24,-15,-21,-19,-17,-5,-16,-20
1523147444364412,16,-23,7,-2,3,3,4,-9
1523147444365416,-20,9,-12,-56,-11,-2,-1,-16
1523147444365416,10,-28,24,56,9,2,7,-2
1523147444387520,27,-46,-14,-6,16,8,6,-6
1523147444387520,-9,3,-11,-27,10,7,5,66
1523147444388502,76,9,7,-4,-15,-5,3,-36
1523147444388502,-99,-40,-13,45,17,17,33,-68
1523147444401540,91,90,2,-13,-5,-6,-35,34
1523147444401540,1,-60,19,6,5,-3,-4,-13
1523147444409527,-46,-26,-3,48,11,-4,10,-31
1523147444409527,14,9,-51,-54,-16,-8,-18,27
1523147444424607,-128,-41,15,19,2,2,13,-14
1523147444424607,20,49,20,-4,3,3,5,4
1523147444425067,-42,10,3,4,-5,-4,-8,7
1523147444425067,-28,-13,8,-15,3,-5,-13,-15
1523147444447703,-55,-48,-13,-16,-2,-1,21,-7
1523147444447703,12,19,-8,-21,-13,-13,-24,-5
1523147444448129,17,-1,46,82,11,9,7,28
1523147444448129,37,22,-4,-77,-19,-2,-1,10
1523147444470259,-6,-19,24,76,14,-3,17,4
1523147444470259,-32,18,10,6,-1,12,8,-94
1523147444470692,-21,-11,-37,-13,0,-6,-22,70
1523147444470692,4,-11,11,39,5,-2,2,21
1523147444484300,19,19,17,-21,-1,0,-4,-12
1523147444484300,2,8,-10,-29,-10,-8,1,-28
1523147444485228,-26,5,-4,4,4,2,-2,-6
1523147444485228,38,0,-2,-33,-9,-4,-2,28
1523147444507345,-13,5,-16,-3,-9,-3,-3,-15
1523147444507345,-47,-26,-3,35,1,-4,-7,-8
1523147444508289,28,1,-11,-55,-7,-4,5,7
1523147444508289,30,29,11,-28,-4,6,3,6
1523147444529852,-35,-16,-9,5,-1,-3,-3,-17
1523147444529852,-29,-9,-9,29,0,-3,-4,4
1523147444530850,6,-2,9,82,3,-2,-1,-7
1523147444530850,25,13,10,10,8,0,0,-3
1523147444544390,-56,-5,-23,-25,-24,-4,-6,-3
1523147444544390,-22,-23,-16,15,0,-2,-1,5
1523147444545389,-4,-16,-24,23,-1,-3,-2,-24
1523147444545389,-10,13,18,125,20,-1,-2,-7
1523147444567522,9,-10,-10,43,-7,0,4,-1
1523147444567522,19,0,-13,32,-10,-9,-11,6
1523147444568455,-10,-29,-21,-48,-32,-7,-1,-3
1523147444568455,-11,19,13,127,47,8,0,-3
1523147444590066,13,41,0,-42,3,2,0,-21
1523147444590066,-27,-52,1,-5,-13,-3,8,48
1523147444591009,-7,16,5,-63,9,2,-5,17
1523147444591009,-16,-1,-12,-12,-15,-4,-7,-17
1523147444604596,12,-9,3,72,-6,-7,-8,6
1523147444604596,1,12,5,-36,0,7,10,-15
1523147444605046,-6,-14,6,66,18,2,-1,-8
1523147444605046,-3,-15,6,-114,-10,2,2,13
1523147444627607,1,29,18,18,3,-2,2,-9
1523147444627607,34,7,-2,-49,2,2,-1,5
1523147444628610,-11,11,33,42,6,11,8,-3
1523147444628610,-7,1,-24,26,-25,-16,-8,-12
1523147444650235,28,-10,6,74,10,4,-3,0
1523147444650235,6,-19,5,2,5,-5,-5,-11
1523147444650672,-37,-8,-35,-74,-23,-6,-4,-16
1523147444650672,-5,0,-16,10,-26,-15,-10,-3
1523147444664203,9,-21,-1,-69,-4,1,-1,-11
1523147444664203,-24,3,-7,-7,12,0,1,22
1523147444665207,-19,-37,1,24,4,-1,1,-40
1523147444665207,-8,-16,0,-36,-2,0,-3,19
1523147444687818,33,7,0,-36,0,-1,-7,-4
1523147444687818,10,6,4,-2,-2,1,1,-4
1523147444688267,-5,-3,-10,-12,-8,0,-1,1
1523147444688267,-10,17,-5,33,-11,-6,2,-9
1523147444710336,-14,-11,21,46,10,1,3,12
1523147444710336,27,14,0,-14,-4,-3,-7,-13
1523147444710834,22,-1,-12,-2,0,0,-1,15
1523147444710834,-46,-8,-2,-5,7,3,-1,-11
1523147444724414,5,-16,-3,-15,4,5,2,9
1523147444724414,8,3,3,0,-6,-3,-2,-3
1523147444725369,-49,-16,-6,-6,-2,-2,-2,-11
1523147444725369,34,4,0,1,-1,-1,-1,-1
1523147444747471,-1,10,-9,-42,-4,-3,-2,4
1523147444747471,-6,3,2,5,0,0,2,-6
1523147444748428,28,6,-3,35,3,-1,2,7
1523147444748428,11,4,9,-29,-5,3,-1,18
1523147444769988,-29,-38,4,127,27,4,8,-5
1523147444769988,6,-3,-10,35,-6,4,1,-7
1523147444770990,39,8,4,30,0,0,0,3
1523147444770990,1,15,-9,-2,2,0,-2,-3
1523147444784575,-2,2,51,-20,-5,-3,1,-2
1523147444784575,-58,2,-26,45,-5,-8,-5,-9
1523147444785026,-5,-7,-3,-69,-5,0,2,-2
1523147444785026,11,12,1,0,4,2,-6,-7
1523147444807631,48,-3,-2,36,-4,1,4,9
1523147444807631,-23,-10,-15,-82,-13,-9,-6,-10
1523147444808588,-14,20,-7,32,-3,-7,-4,-5
1523147444808588,-50,6,-10,0,-2,-1,-6,12
1523147444830151,-6,-21,-9,3,-3,1,0,7
1523147444830151,2,-3,15,4,0,3,0,-1
1523147444831149,-4,0,-22,6,4,1,-3,-5
1523147444831149,23,-13,19,1,5,-1,7,-2
1523147444844352,-15,50,-19,-17,-2,-1,-7,-43
1523147444844352,-2,-34,14,0,-1,1,-3,93
1523147444845348,113,52,-21,-34,-9,-5,-1,-4
1523147444845348,-40,-12,-2,13,1,-1,1,1
1523147444867453,-12,-14,-6,-35,-13,-7,-6,-7
1523147444867453,-15,9,12,14,14,4,6,-26
1523147444868410,13,-7,-16,16,-8,-2,-2,13
1523147444868410,3,-9,-10,-21,-11,-8,-6,-7
1523147444890017,-28,22,-4,-6,-3,0,7,22
1523147444890017,-7,7,28,24,14,6,-8,-49
1523147444890970,-20,-34,11,0,-1,1,-1,1
1523147444890970,60,14,-5,-20,-8,-2,8,30
1523147444904554,-6,-26,-4,-14,-2,0,3,-17
1523147444904554,20,3,-17,1,-2,0,-6,32
1523147444905011,-17,3,15,-9,-3,-3,-10,29
1523147444905011,-86,-6,32,-2,5,1,-14,-58
1523147444927567,36,13,-2,-3,2,1,5,79
1523147444927567,-21,5,-15,-5,-12,-9,-1,-28
1523147444928571,24,-20,-2,5,0,-2,2,-24
1523147444928571,22,56,-13,2,1,-2,-7,5
1523147444950127,18,-51,6,10,9,6,6,11
1523147444950127,-41,-31,-5,6,3,2,12,-7
1523147444950629,-63,10,4,-12,-4,-3,-14,-24
1523147444950629,8,-9,1,13,1,-1,14,-16
1523147444964717,31,10,-3,-17,-9,-6,-19,-28
1523147444964717,-44,-17,-7,-11,-4,0,5,8
1523147444965166,-78,-53,-7,29,9,-2,-8,36
1523147444965166,40,-12,12,-8,2,1,2,9
1523147444987779,-22,25,-18,17,1,-3,-7,-22
1523147444987779,12,10,-6,-11,-16,-4,2,-20
1523147444988232,43,5,17,-5,2,0,1,-22
1523147444988232,-18,-16,1,62,-3,-2,-1,18
1523147445010293,-27,-4,-5,-45,-2,-3,7,14
1523147445010293,20,16,12,79,8,2,-8,-25
1523147445010794,13,-11,-4,-2,5,2,2,2
1523147445010794,10,-3,-7,65,10,1,3,-6
1523147445023879,-4,8,-15,-64,-43,-17,-10,3
1523147445023879,23,11,8,21,11,12,3,31
1523147445031848,6,50,6,-8,4,-5,0,4
1523147445031848,8,-9,9,24,16,0,2,0
1523147445047527,-51,3,-16,50,-1,-4,-9,-11
1523147445047527,35,19,-1,-44,-18,-9,1,-6
1523147445048487,4,19,5,-10,1,5,11,-12
1523147445048487,13,-23,6,-60,-1,-4,-14,10
1523147445070089,94,16,31,52,16,0,-1,8
1523147445070089,-49,11,-6,-12,-10,1,0,-39
1523147445071047,-10,-3,1,110,-3,1,6,16
1523147445071047,35,14,-7,-1,-4,3,0,1
1523147445083623,1,10,45,86,50,11,3,-3
1523147445083623,3,-17,-45,-80,-51,-15,-12,-3
1523147445092103,4,7,3,47,2,-10,-5,1
1523147445092103,-25,-14,0,17,-7,1,-1,-6
1523147445107690,-6,13,16,67,12,6,7,5
1523147445107690,8,-1,-18,-26,-6,-9,-4,-8
1523147445108145,-23,-4,-11,-50,-9,-4,0,2
1523147445108145,4,-21,-9,-31,-12,-1,4,-10
1523147445137770,26,-1,-5,0,12,2,2,-4
1523147445137770,14,-3,16,33,14,1,-7,13
1523147445138226,25,5,2,-39,-13,2,2,-10
1523147445138226,-17,22,28,12,24,9,2,3
1523147445143740,-59,-22,-14,66,-13,-12,-5,14
1523147445143740,26,-27,34,-51,11,4,3,6
1523147445151804,-21,-3,3,10,2,3,-1,5
1523147445151804,23,10,17,48,4,-1,2,3
1523147445167303,-44,-23,-30,-17,-11,1,-4,-19
1523147445167303,16,44,-13,-38,-2,-2,3,-7
1523147445168307,-12,-11,6,10,9,5,2,-4
1523147445168307,1,-6,0,-11,-7,-2,-1,-6
1523147445189914,3,-7,-21,-77,-19,-8,-4,-7
1523147445189914,19,-2,31,114,32,8,7,5
1523147445190865,42,-10,-19,-21,-30,-10,-2,-2
1523147445190865,-12,45,-14,27,-8,-7,-12,-5
1523147445203945,5,-16,31,14,-2,0,0,0
1523147445203945,0,-5,-12,-8,10,1,0,2
1523147445211922,1,0,14,23,7,2,2,-1
1523147445211922,21,-20,-7,-19,-3,-1,4,-6
1523147445227463,16,35,-1,-36,-7,1,-3,1
1523147445227463,-12,-11,10,100,15,0,1,9
1523147445228466,-7,8,-15,-54,-12,-5,-3,-8
1523147445228466,-12,-25,-1,-9,-5,4,-1,11
1523147445250023,-21,-8,15,51,10,6,4,-54
1523147445250023,7,5,-30,0,-13,-1,-6,11
1523147445251026,-49,-8,-3,-73,4,-4,-6,-8
1523147445251026,-16,-6,-8,25,0,-4,-1,-7
1523147445263562,-7,-2,-2,-32,-5,-1,-1,2
1523147445263562,-8,-3,-8,-8,3,1,3,8
1523147445272127,12,-2,12,22,5,5,1,0
1523147445272127,-10,-11,-27,-24,-16,-6,-4,-8
1523147445287675,28,-17,-30,-23,2,-3,1,6
1523147445287675,0,3,16,-55,-14,-8,-7,1
1523147445288128,21,16,-10,54,14,6,1,13
1523147445288128,-20,-13,-2,-19,-5,3,4,-7
1523147445310183,-3,-15,-27,79,-3,-15,-11,0
1523147445310183,-8,-27,2,49,10,5,12,-12
1523147445310690,-54,2,3,16,4,1,-6,2
1523147445310690,6,11,3,-15,0,-1,-1,18
1523147445323720,-3,12,8,-37,-9,0,0,1
1523147445323720,-13,1,-13,-40,-5,-3,1,-30
1523147445332247,-6,-6,-4,9,-1,1,2,20
1523147445332247,56,8,-2,-23,1,1,-6,-8
1523147445347831,-14,18,3,-35,-6,-1,-3,2
1523147445347831,30,-16,12,59,8,1,1,5
1523147445348284,27,-23,-29,7,-7,-1,2,-2
1523147445348284,-32,44,-24,-30,-6,-8,0,-11
1523147445370388,5,-21,2,-30,-11,-6,-11,15
1523147445370388,32,4,2,13,-1,0,-9,6
1523147445370844,8,-11,2,12,2,1,3,12
1523147445370844,-32,-14,-4,9,8,6,9,23
1523147445392904,29,0,15,-12,3,2,-2,-27
1523147445392904,-37,21,21,-23,-5,-2,4,-16
1523147445393406,66,20,-14,-13,-8,-7,-2,39
1523147445393406,-36,37,-14,-31,-16,-12,-19,13
1523147445406989,-112,-20,-8,-17,-5,-3,-2,-24
1523147445406989,24,49,24,7,0,1,0,18
1523147445414503,22,11,14,-15,1,3,2,-27
1523147445414503,91,-46,22,34,19,5,10,90
1523147445430007,57,113,-4,-9,-3,-1,-5,-46
1523147445430007,-35,-27,-22,-13,-8,-4,1,58
1523147445431006,29,-7,19,34,9,5,5,3
1523147445431006,-51,-32,33,12,8,5,2,-88
1523147445453061,8,19,-5,-7,1,1,15,-3
1523147445453061,39,-32,-11,8,-1,-3,-28,22
1523147445454065,-20,52,25,30,12,4,14,-23
1523147445454065,57,-46,-24,-12,-7,-4,-14,32
1523147445466144,-5,24,16,0,1,4,18,41
1523147445466144,-28,16,-14,-15,-11,-13,7,-33
1523147445475124,17,-3,-1,7,-7,-4,-24,-24
1523147445475124,-24,79,16,10,1,-2,1,-60
1523147445490212,-66,-45,-14,-29,-10,-7,-7,32
1523147445490212,110,4,34,11,17,11,3,-4
1523147445491666,-31,-66,-27,9,-15,-11,-21,-8
1523147445491666,-17,-11,-19,-59,-13,-7,4,-50
1523147445512720,39,-13,11,15,7,6,0,15
1523147445512720,-91,-4,2,12,4,1,2,-33
1523147445514227,-40,-23,-7,-33,6,2,7,-5
1523147445514227,44,-6,-2,19,-3,3,-2,4
1523147445526258,-4,-17,-3,-80,-15,-8,-2,1
1523147445526258,-32,-35,-17,30,-1,-13,2,-14
1523147445535283,-33,30,10,-2,-2,20,4,-23
1523147445535283,-1,-11,-24,39,-19,-10,-1,20
1523147445550323,22,-15,-19,-19,-4,-3,-8,-1
1523147445550323,-28,14,-5,33,2,-4,-8,-4
1523147445551826,31,45,5,-28,-9,-10,1,6
1523147445551826,-35,-14,-7,-1,1,5,4,4
1523147445572431,-16,1,31,35,9,2,-9,-3
1523147445572431,-5,4,-28,-6,-15,-4,-1,-5
1523147445574387,-23,-21,7,97,35,5,6,6
1523147445574387,20,-11,-27,-92,-37,-9,-2,16
1523147445586466,-33,35,10,67,-1,-6,-5,-6
1523147445586466,25,4,-25,44,16,9,7,15
1523147445595442,-23,-11,20,61,6,1,1,21
1523147445595442,-16,-7,21,91,29,2,-9,3
1523147445609986,-1,6,-2,-45,-26,-2,3,0
1523147445609986,20,0,-7,13,-13,-2,-3,8
1523147445611485,3,-1,-14,-40,-4,-5,8,35
1523147445611485,-61,-57,-14,28,-13,-10,-17,-34
1523147445632586,65,23,-9,73,17,0,-9,6
1523147445632586,-17,-17,-2,1,21,9,-1,18
1523147445634046,8,-5,-30,-128,-57,-19,-8,-10
1523147445634046,5,23,21,27,23,4,8,7
1523147445646123,12,-30,-20,-38,-11,1,-2,16
1523147445646123,4,-3,17,-21,-1,0,1,-27
1523147445655100,28,3,6,-51,-5,-4,-5,0
1523147445655100,1,5,20,20,17,5,6,1
1523147445670189,-1,-9,-7,15,-6,3,5,-8
1523147445670189,5,8,25,35,8,3,3,6
1523147445671646,15,-1,-2,-15,-13,6,-2,-23
1523147445671646,-35,-17,-25,98,-10,-15,-7,7
1523147445692701,26,-6,6,79,15,7,7,0
1523147445692701,-26,2,-4,-1,-13,-8,-16,9
1523147445694209,-18,-20,30,49,42,17,0,1
1523147445694209,5,12,-19,-66,-21,-2,3,-17
1523147445706784,-9,-4,8,-31,9,4,6,29
1523147445706784,5,-26,0,-20,5,-1,-2,-11
1523147445713803,-1,30,3,71,15,-1,-3,-22
1523147445713803,31,6,-9,-128,-28,1,-1,3
1523147445730304,-26,-17,-38,-2,-4,-6,-6,-13
1523147445730304,5,12,11,7,-8,2,1,-4
1523147445731806,-2,-9,-4,26,0,-6,0,2
1523147445731806,7,5,-4,44,18,6,2,-19
1523147445752405,15,0,15,-6,-4,-5,-6,6
1523147445752405,-7,2,-3,-55,-15,-6,1,-5
1523147445754365,-1,-6,-10,-9,-3,-2,-4,-1
1523147445754365,2,10,17,-2,12,3,1,-1
1523147445766944,-60,-7,-2,-14,-4,0,1,-11
1523147445766944,-12,29,-1,-10,1,1,5,-10
1523147445773916,-14,-8,-11,14,-4,-4,-5,-2
1523147445773916,0,7,-2,-12,2,0,-1,7
1523147445790461,31,-2,11,-1,5,3,3,17
1523147445790461,-58,-5,15,11,-1,-1,11,-5
1523147445791966,-31,-20,4,-18,-21,-11,-15,-21
1523147445791966,3,5,-6,-6,4,2,-2,4
1523147445812554,7,3,3,46,8,0,-3,-18
1523147445812554,2,-30,-7,-25,-3,4,13,20
1523147445814024,-6,67,3,16,-5,-6,-9,-5
1523147445814024,5,-3,15,44,18,4,1,3
1523147445827059,3,-23,18,78,1,3,8,10
1523147445827059,-24,29,-7,-75,-26,-9,-11,26
1523147445833619,11,-14,-6,38,-3,-3,0,39
1523147445833619,3,-1,12,31,4,2,1,-1
1523147445850165,4,11,4,9,9,1,-2,-12
1523147445850165,-9,-5,-22,23,4,1,3,-42
1523147445851629,1,22,-4,-15,-23,-9,-18,-8
1523147445851629,-69,-11,-12,5,-1,-3,2,-11
1523147445872733,6,-31,32,-26,2,4,4,7
1523147445872733,15,-10,3,12,1,-3,-6,-3
1523147445874184,61,8,-23,-27,6,-2,-1,-11
1523147445874184,7,5,5,-12,-10,-7,-9,17
1523147445886215,-4,18,8,-10,-3,-3,1,-15
1523147445886215,35,39,18,2,3,1,-3,66
1523147445895241,9,-29,20,8,16,2,6,-5
1523147445895241,25,5,-8,-3,0,3,4,3
1523147445910280,16,-88,-4,-4,3,1,1,32
1523147445910280,-57,-28,-29,15,2,-2,-24,-53
1523147445911784,55,-45,18,-5,1,-2,5,-1
1523147445911784,-51,14,-16,-10,-14,-5,-10,32
1523147445940359,-21,56,-7,-22,-3,0,-4,-6
1523147445940359,35,-49,-13,8,-1,0,-15,-25
1523147445941865,-41,-14,-29,-16,6,9,14,31
1523147445941865,-57,-4,13,-1,-6,-9,-8,-77
1523147445946423,34,32,-43,-18,-12,-9,-18,2
1523147445946423,16,21,8,-3,-4,0,3,33
1523147445955400,-14,5,-18,13,-2,-1,3,1
1523147445955400,76,-42,-4,-12,-6,-5,5,-22
1523147445970487,-16,1,19,-10,5,2,-2,-10
1523147445970487,-4,1,-14,2,1,0,9,-6
1523147445972444,32,-45,-9,-7,-7,-3,-2,-7
1523147445972444,-1,-15,-14,8,5,2,3,3
1523147445992498,-15,-19,-39,-12,-7,-5,-4,-20
1523147445992498,27,17,29,7,1,0,10,-12
1523147445994004,-10,20,35,6,12,6,-4,-25
1523147445994004,-39,-28,-45,-23,-7,-1,4,37
1523147446006583,-7,35,-15,-23,-12,-14,-22,-25
1523147446006583,25,-11,4,12,-8,-1,2,14
1523147446015064,-36,-4,-20,3,-2,-6,0,-9
1523147446015064,3,15,23,3,0,1,1,-7
1523147446030100,-3,41,-10,-28,5,6,11,-7
1523147446030100,1,-6,-8,49,4,-1,-2,2
1523147446031602,-5,6,15,-26,-13,-2,1,9
1523147446031602,46,19,3,4,6,0,-8,9
1523147446052708,2,-16,-21,-74,-15,0,9,12
1523147446052708,-3,0,1,40,2,-2,-2,-12
1523147446054163,-7,3,8,103,6,4,1,3
1523147446054163,25,-1,-3,-33,-9,-3,-6,-8
1523147446066238,-9,-9,20,113,33,2,-3,19
1523147446066238,-4,-12,9,-119,-25,-4,3,1
1523147446075219,-34,0,-22,24,-14,-8,-5,-21
1523147446075219,59,12,17,71,14,8,5,65
1523147446090279,1,-16,0,105,12,1,8,-11
1523147446090279,70,16,21,82,16,0,0,-22
1523147446091763,10,24,7,-60,-5,0,-17,24
1523147446091763,-23,-8,-23,-25,-14,-11,2,-12
1523147446112870,5,-17,20,6,3,8,-3,-7
1523147446112870,-21,14,-17,-45,-1,4,5,-11
1523147446114323,22,29,3,-53,-3,-5,5,23
1523147446114323,-60,-4,-10,-25,2,-5,-4,-6
1523147446126357,3,0,4,-72,-18,-6,0,-2
1523147446126357,-25,-13,-9,55,9,-5,-6,-3
1523147446135378,1,-3,15,11,0,6,2,-7
1523147446135378,10,7,43,101,20,8,7,0
1523147446150419,-27,-17,-34,-8,-14,-9,-7,-9
1523147446150419,1,28,0,2,-3,4,-2,1
1523147446151923,1,-4,-7,31,12,-2,4,-6
1523147446151923,28,15,44,31,0,4,1,-2
1523147446172562,-47,-39,-23,64,-6,3,0,-7
1523147446172562,1,-9,4,96,1,-2,-4,4
1523147446174064,-2,-9,20,72,6,0,1,25
1523147446174064,-13,-35,-12,-18,-5,-1,-2,-17
1523147446186246,-23,1,-23,-41,5,4,3,3
1523147446186246,-13,-15,0,-44,-4,-5,-4,-2
1523147446195118,-5,-14,-42,-15,6,2,6,-25
1523147446195118,2,8,-36,-18,-7,-1,3,-5
1523147446210298,59,-7,37,5,-1,-5,-10,14
1523147446210298,-30,-40,-3,35,1,-1,-3,-37
1523147446211698,46,21,-17,73,10,-2,-1,11
1523147446211698,4,-2,3,-22,-12,-5,-7,-13
1523147446232824,20,30,29,43,5,-3,-3,20
1523147446232824,-21,11,-6,13,-5,1,12,-30
1523147446234256,-46,-18,17,-9,9,0,-14,-16
1523147446234256,-2,9,9,-1,2,1,3,6
1523147446246429,11,19,6,-54,-20,-8,-1,4
1523147446246429,6,-33,-25,23,-7,-7,2,5
1523147446255314,-30,-37,-9,-43,-7,-2,-10,11
1523147446255314,21,22,3,-26,-14,-4,-3,10
1523147446269851,-20,0,-14,12,3,2,2,-9
1523147446269851,44,10,-14,-58,-9,-2,-1,7
1523147446271862,-5,0,2,-3,-5,1,14,-24
1523147446271862,16,3,10,8,4,-1,-9,-4
1523147446292413,93,59,-74,59,19,5,0,2
1523147446292413,-19,-9,11,-108,-20,-3,3,1
1523147446294418,12,2,1,49,1,-1,9,21
1523147446294418,-4,-9,-13,27,6,6,5,-4
1523147446315026,0,-5,51,38,-7,0,9,-9
1523147446315026,-16,19,-29,-53,7,-4,-14,11
1523147446316477,-6,5,-8,-13,0,-2,-3,-29
1523147446316477,38,6,-2,25,4,3,2,-6
1523147446329563,-30,-20,20,-36,-13,-5,-3,70
1523147446329563,16,28,46,26,-1,-3,-10,-6
1523147446336082,3,-5,-4,71,17,4,1,0
1523147446336082,-85,12,-27,-86,-25,-5,6,-37
1523147446352630,-5,-15,9,15,3,1,-7,63
1523147446352630,-69,-12,10,25,8,5,2,-1
1523147446354084,-7,-19,-13,-33,-5,3,2,7
1523147446354084,-21,-6,-1,31,8,-10,-6,-7
1523147446375139,-13,18,-9,-23,-14,-2,9,-47
1523147446375139,19,-11,-4,5,8,1,0,30
1523147446376637,4,13,18,-51,-13,0,2,-12
1523147446376637,-3,-11,6,43,11,-1,-3,9
1523147446390195,-13,-18,-26,-88,-12,-1,-1,-26
1523147446390195,27,-14,-12,111,13,8,4,10
1523147446391676,-38,-25,0,-34,-14,-4,1,23
1523147446391676,32,30,12,13,1,-3,-5,9
1523147446412780,1,4,19,4,5,-2,0,-18
1523147446412780,14,26,-1,-15,-1,1,0,-16
1523147446414238,13,-16,-8,-32,-2,3,6,26
1523147446414238,-50,-65,-18,36,7,-9,-11,-7
1523147446435299,25,-15,21,12,3,0,2,10
1523147446435299,26,-2,-2,-21,-8,0,1,-19
1523147446436797,11,16,18,6,3,0,1,-14
1523147446436797,-57,-28,-26,-11,-12,-1,-3,3
1523147446449885,-5,13,-19,6,-3,2,5,-46
1523147446449885,5,-57,-2,22,12,5,5,37
1523147446451838,-17,26,16,-22,-8,-10,-28,-43
1523147446451838,47,34,13,-20,-12,4,13,12
1523147446472549,6,17,29,-18,11,3,-3,-21
1523147446472549,-58,-43,-37,64,10,-10,-7,-10
1523147446474488,22,2,-25,-16,-12,-2,0,7
1523147446474488,12,37,-2,-10,4,3,9,-5
1523147446495544,-31,-7,5,-21,-11,-5,-10,3
1523147446495544,-5,4,5,-26,10,1,-8,0
1523147446497047,45,15,8,21,-7,-2,-5,17
1523147446497047,60,-55,17,-19,2,4,16,41
1523147446509580,6,4,-31,-5,-10,-7,-7,15
1523147446509580,-32,-1,-2,-37,-17,-9,-7,-9
1523147446523617,-21,-41,-6,-6,3,1,1,-15
1523147446523617,19,18,-1,-25,4,2,8,20
1523147446532712,12,-8,33,-9,2,6,-6,-15
1523147446532712,11,-3,-7,-6,0,3,6,18
1523147446534151,-31,43,-12,33,-11,-8,-8,-5
1523147446534151,-10,0,13,86,16,4,-3,-13
1523147446555207,-13,-19,-16,110,-5,-13,-4,-7
1523147446555207,13,37,21,-84,-15,-2,-1,-9
1523147446556740,7,16,21,24,17,12,14,0
1523147446556740,9,16,-10,-6,-13,-5,-11,-1
1523147446568790,-21,-13,-25,86,-15,-8,-6,-1
1523147446568790,23,25,37,52,10,8,4,2
1523147446577762,6,-13,-18,123,22,2,6,-3
1523147446577762,-18,-25,0,38,-1,-1,-7,13
1523147446592301,14,-11,-7,33,14,-3,-7,9
1523147446592301,7,9,-7,-9,-31,-14,-3,-2
1523147446594306,-8,-6,6,16,14,4,13,4
1523147446594306,-24,45,8,1,20,15,-4,-10
1523147446614904,23,-22,-16,-95,-8,0,4,-6
1523147446614904,-1,14,10,63,18,2,-3,6
1523147446616871,-33,-2,-15,-88,-42,-16,-7,-2
1523147446616871,-1,5,0,47,-3,-6,0,-12
1523147446629453,9,-2,16,52,23,8,3,-9
1523147446629453,-5,4,-18,-22,-11,-2,-3,22
1523147446636463,-23,-4,10,14,9,1,-1,-15
1523147446636463,14,18,-35,-64,-20,-2,3,18
1523147446652519,-9,6,17,26,4,6,5,1
1523147446652519,48,-31,-5,59,10,-2,-3,-17
1523147446654465,25,30,7,-11,-6,-1,2,19
1523147446654465,1,-7,6,42,6,-3,-11,-9
1523147446675025,-18,-7,-16,-86,-13,-7,-2,-37
1523147446675025,-44,-2,-23,-104,-23,-4,-5,64
1523147446676526,10,-8,9,-3,-2,-6,-8,-7
1523147446676526,3,-6,11,26,22,-1,0,-12
1523147446689604,-19,-4,-5,7,-14,1,2,-3
1523147446689604,-7,5,23,-40,-9,-3,0,-30
1523147446696076,12,-16,-20,18,12,2,-2,15
1523147446696076,6,5,23,-30,-7,-5,-6,3
1523147446712675,-7,-5,-37,-9,1,-4,-1,0
1523147446712675,2,5,12,14,18,5,2,-8
1523147446714124,29,18,-40,-70,-47,-8,-5,-5
1523147446714124,16,-70,-33,5,0,-4,-4,-15
1523147446735181,12,6,15,-7,3,0,0,15
1523147446735181,-12,3,-11,26,1,0,-2,-16
1523147446736685,20,16,39,-53,2,4,8,-7
1523147446736685,-59,-15,48,16,-7,0,-4,5
1523147446749271,-24,37,21,32,8,2,1,-9
1523147446749271,26,6,22,29,17,5,5,11
1523147446756282,-1,-9,17,63,15,2,2,-14
1523147446756282,-44,-22,-72,3,-28,-7,18,83
1523147446773281,-12,-11,4,49,14,3,-12,-12
1523147446773281,-8,17,4,23,1,-2,-4,-26
1523147446774788,-20,-9,18,12,1,-4,-9,-1
1523147446774788,7,14,-16,-20,2,2,1,-30
1523147446794841,17,1,7,0,3,-1,7,27
1523147446794841,1,0,10,-6,-4,-1,-6,-1
1523147446801414,-6,-14,-49,-16,-7,-6,-2,-12
1523147446801414,9,10,13,50,19,5,-6,-19
1523147446808882,19,-8,-18,-82,-29,-8,0,1
1523147446808882,2,-16,-38,-47,-23,-8,-4,-17
1523147446817906,-38,-16,-4,16,4,-2,-10,11
1523147446817906,-19,22,33,18,5,2,8,-7
1523147446832494,11,3,20,38,14,2,-14,-20
1523147446832494,-44,1,0,-13,-3,0,2,7
1523147446834446,1,-9,-17,-54,-20,-7,-2,-34
1523147446834446,10,14,-1,-21,1,-2,-12,21
1523147446855054,-17,-3,-3,-3,-3,-1,-7,13
1523147446855054,-9,-43,-36,18,2,-2,2,-6
1523147446856505,17,35,-5,2,14,9,5,13
1523147446856505,9,-6,18,-8,-2,-6,-6,-28
1523147446868591,3,5,-22,-47,11,-1,8,-1
1523147446868591,-6,-12,-7,-62,-27,-7,0,-17
1523147446877559,41,16,18,50,3,1,-8,55
1523147446877559,-2,4,22,6,-1,0,6,-9
1523147446892603,-1,0,33,41,8,-1,-7,-10
1523147446892603,12,43,5,23,14,4,8,42
1523147446894104,-4,-32,12,-3,7,5,13,-16
1523147446894104,50,3,-25,-83,-15,-5,-7,-16
1523147446915158,25,1,-6,5,-17,-8,-7,35
1523147446915158,-19,27,-1,21,3,5,4,-4
1523147446916664,-56,5,5,-5,-7,-11,-20,-52
1523147446916664,63,15,8,22,6,7,0,4
1523147446928699,2,-43,-35,-10,-4,-7,0,12
1523147446928699,87,-40,-6,31,6,-1,2,-29
1523147446937719,100,21,6,7,2,1,5,29
1523147446937719,-78,-1,-32,-11,-17,-13,-8,-51
1523147446952812,11,-36,-4,-16,-13,-5,-17,-2
1523147446952812,-21,20,11,20,7,-1,5,-20
1523147446954264,-53,2,-8,2,3,4,-9,19
1523147446954264,24,-43,-23,0,-13,-8,-3,-24
1523147446974823,-42,45,5,11,0,4,4,-15
1523147446974823,52,9,24,21,12,7,14,42
1523147446976824,47,28,17,0,2,6,14,-2
1523147446976824,-76,-2,-7,-7,-5,-10,-15,-31
1523147446988892,-6,23,-3,-13,-1,8,7,53
1523147446988892,-21,-88,0,33,9,-6,-14,-47
1523147446997880,49,50,15,16,5,4,8,9
1523147446997880,38,29,-13,-10,-8,3,11,-12
1523147447012423,7,42,18,-29,-11,-1,6,24
1523147447012423,-3,27,26,-49,4,4,-11,3
1523147447014425,-79,-62,-27,13,-26,-11,-1,-26
1523147447014425,56,-18,6,87,41,6,4,61
1523147447034979,-30,21,40,-56,-15,-2,3,-40
1523147447034979,-2,-15,-84,-42,-20,-1,-3,17
1523147447036482,-37,-59,1,91,18,0,-2,-3
1523147447036482,-8,14,33,8,-1,4,2,-1
1523147447048547,5,-11,5,-36,21,-2,1,-15
1523147447048547,-1,31,-1,1,-31,-7,-3,19
1523147447057631,-17,-5,-12,-67,-4,-2,-2,-18
1523147447057631,3,-2,-13,-52,-13,-3,-6,8
1523147447080243,15,-10,39,127,32,3,9,0
1523147447080243,-39,-6,-19,-36,-21,-10,-12,-17
1523147447081695,3,-11,-53,-111,-37,-6,2,-37
1523147447081695,-21,-4,19,48,11,1,-18,55
1523147447095236,-4,28,-21,1,-17,-1,5,45
1523147447095236,17,24,13,28,14,3,-1,-26
1523147447096734,-7,-8,8,88,27,-1,-6,-7
1523147447096734,7,12,7,1,1,6,5,-5
1523147447108770,-4,-15,-46,-63,-40,-7,7,-13
1523147447108770,-8,-44,10,108,35,1,3,12
1523147447118299,-4,8,-22,-82,-65,-10,-5,14
1523147447118299,-5,7,-3,-76,4,-4,-8,16
1523147447132380,-7,-6,46,100,21,2,-4,-28
1523147447132380,7,-13,-5,29,-20,-15,-5,-2
1523147447134335,-36,-5,-5,-16,22,8,7,13
1523147447134335,2,-21,-50,-47,-23,-4,1,-22
1523147447154891,30,-17,-16,-2,-1,-1,-8,12
1523147447154891,-49,1,12,-20,8,4,1,10
1523147447156894,-3,-16,23,-3,21,-1,-1,-8
1523147447156894,6,0,2,-21,-48,-4,0,-12
1523147447168964,-8,-10,-25,91,16,-3,-5,-11
1523147447168964,-1,28,4,6,-8,-1,-22,62
1523147447177952,17,-16,-4,27,10,-3,-2,4
1523147447177952,-49,-51,15,23,17,5,4,-18
1523147447192489,32,2,-9,-53,-9,-3,-10,-11
1523147447192489,7,28,39,11,3,7,13,-8
1523147447193993,-2,8,-17,-11,-4,-6,-7,3
1523147447193993,25,9,-24,-9,7,-1,-2,9
1523147447215054,-40,-44,-17,-20,-12,-3,8,-31
1523147447215054,-21,2,30,16,24,12,5,-9
1523147447216558,-23,2,-24,-37,-47,-11,-7,3
1523147447216558,0,0,21,47,13,5,12,-15
1523147447228586,78,22,-16,-11,-2,-3,-9,8
1523147447228586,-72,-13,-31,-12,-5,-4,-4,-51
1523147447237610,-20,-4,43,25,10,1,-8,-1
1523147447237610,-18,11,-3,0,-1,-3,-2,-6
1523147447252647,5,18,8,-1,5,7,14,15
1523147447252647,32,12,5,-8,-1,-3,3,9
1523147447254154,18,13,43,37,14,1,3,-4
1523147447254154,10,1,-26,-52,-16,-5,-4,-22
1523147447275210,-23,-3,7,50,12,-2,-15,43
1523147447275210,-17,-5,-14,-16,-20,-6,0,-28
1523147447276713,-1,-6,5,45,11,4,2,1
1523147447276713,12,30,30,76,19,10,8,14
1523147447297812,-36,-26,-12,15,-13,-3,5,-43
1523147447297812,-17,-6,-24,23,-6,-6,-10,9
1523147447299274,26,-1,2,25,4,2,-8,-5
1523147447299274,9,-8,31,108,20,1,6,12
1523147447312848,-18,-6,-15,9,5,-1,5,-21
1523147447312848,23,-7,5,-11,2,3,15,7
1523147447314315,17,15,2,18,11,4,1,3
1523147447314315,-5,-4,38,32,8,2,4,14
1523147447334922,-12,-9,-1,-41,-7,-3,-3,-10
1523147447334922,23,0,-9,-14,-2,-2,1,-10
1523147447336874,-8,-5,3,-21,1,1,-1,26
1523147447336874,-14,-22,-23,-29,-11,-5,-8,-12
1523147447357929,-4,1,-1,-16,7,2,2,5
1523147447357929,-21,-20,19,6,-3,-2,-2,3
1523147447359935,67,10,10,33,8,2,7,2
1523147447359935,-34,-15,-42,-31,-19,-12,-7,-15
1523147447372502,-10,0,1,16,1,-2,-5,-26
1523147447372502,44,10,7,5,3,3,-5,35
1523147447374482,8,12,9,6,-4,-4,0,46
1523147447374482,-26,-19,0,-11,-4,-3,-4,-20
1523147447395029,-47,-14,7,-10,7,4,10,-8
1523147447395029,79,12,-19,-29,-13,-10,-9,57
1523147447396532,9,0,-31,-39,-11,-3,7,32
1523147447396532,-23,-10,7,-7,6,0,-8,16
1523147447417646,24,6,-10,-10,-11,-5,-2,-13
1523147447417646,-28,16,3,11,14,12,23,-19
1523147447419092,53,67,10,17,2,-4,-33,-6
1523147447419092,-20,-32,-30,-11,-5,-6,3,-1
1523147447432130,-3,-27,-16,-6,-6,-7,-7,-29
1523147447432130,-73,19,9,3,12,4,-9,-21
1523147447438646,46,11,-1,-14,-4,0,12,-37
1523147447438646,-58,6,16,1,4,1,-23,-16
1523147447455191,-40,-7,-18,-4,-1,-1,-3,-45
1523147447455191,2,-29,-6,1,-3,-3,8,48
1523147447456692,-50,2,-6,-12,0,-1,-4,-5
1523147447456692,80,35,29,0,-1,0,5,-6
1523147447477782,-55,-13,-15,2,5,2,0,-8
1523147447477782,40,13,3,-9,-11,-8,-11,0
1523147447479253,-57,-5,-1,-24,-8,-4,-3,44
1523147447479253,38,30,-1,-8,-8,-2,-14,-22
1523147447491785,29,10,33,25,3,-2,-3,7
1523147447491785,19,7,-12,-44,-7,2,-4,-23
1523147447498857,-9,-13,-7,24,11,3,15,19
1523147447498857,34,-11,5,-11,-6,1,7,1
1523147447514957,55,14,1,60,10,3,-5,41
1523147447514957,17,-5,11,23,-5,-5,-6,-17
1523147447516457,-45,-11,34,101,30,8,9,-30
1523147447516457,4,-10,-56,-92,-23,-2,5,-3
1523147447537570,17,3,-6,40,-12,0,4,49
1523147447537570,-21,-21,-7,55,15,-4,-4,-23
1523147447539016,15,-13,4,-24,-15,-3,-3,-19
1523147447539016,9,15,5,66,11,3,1,12
1523147447552053,-5,-1,-3,-19,-8,-1,3,-4
1523147447552053,-9,1,-6,-68,-28,-6,-7,-10
1523147447558567,-11,-25,-11,49,9,1,-2,-8
1523147447558567,-16,10,10,-8,-6,-1,2,5
1523147447575118,-14,2,3,42,11,-2,-1,-3
1523147447575118,21,-3,5,11,-3,2,-5,-3
1523147447576617,-5,15,-6,-1,-2,-3,-8,-21
1523147447576617,21,-27,20,6,-3,5,10,15
1523147447597715,-1,11,16,87,40,13,16,-42
1523147447597715,-5,-2,-31,-18,-38,-15,-9,-5
1523147447599176,3,17,-9,24,0,2,15,32
1523147447599176,-79,-7,14,38,5,-8,-13,-23
1523147447611763,1,8,-1,-25,4,11,-1,-10
1523147447611763,6,3,3,94,18,1,6,0
1523147447618781,-39,-16,-16,-77,-16,0,5,2
1523147447618781,64,35,5,51,15,0,-5,25
1523147447635362,11,4,0,-23,-9,-5,-2,21
1523147447635362,-25,-14,1,-70,-11,-6,-2,-17
1523147447636866,7,0,-1,-7,-8,0,-2,-11
1523147447636866,5,-5,7,22,7,2,4,2
1523147447657421,-12,6,-2,-27,-7,-5,-9,11
1523147447657421,33,-5,4,-7,10,2,2,9
1523147447659426,-5,-43,-12,-18,-6,-6,-7,-19
1523147447659426,13,2,4,0,6,5,13,37
1523147447672012,10,10,13,-34,-1,1,2,11
1523147447672012,33,3,9,22,5,1,5,3
1523147447678532,-13,3,-6,-16,-5,-4,-7,-12
1523147447678532,-49,6,-21,-2,0,-2,6,-9
1523147447695023,40,-12,-3,8,-4,-1,-5,-20
1523147447695023,47,1,8,-58,-3,-4,-11,86
1523147447696525,11,2,7,11,10,2,9,-55
1523147447696525,56,32,1,1,-9,-2,4,-7
1523147447717616,-9,5,-10,-31,-10,-6,1,-10
1523147447717616,-29,-45,-12,75,19,8,5,-36
1523147447719086,9,-29,-24,-26,-6,-4,2,11
1523147447719086,18,19,4,7,-1,0,-7,21
1523147447732161,5,-20,-3,3,2,-1,3,-9
1523147447732161,-61,-58,35,10,2,-2,-4,-48
1523147447738694,-8,-19,-36,-61,-27,-9,-13,-10
1523147447738694,-14,-58,-21,-18,-1,-1,7,-12
1523147447755181,21,19,11,12,5,0,-5,29
1523147447755181,-5,45,-2,22,4,-3,0,5
1523147447756686,-24,7,38,-5,-13,3,1,-20
1523147447756686,-5,-7,-7,-27,-4,-8,-20,-4
1523147447777787,-16,-8,-3,4,-14,-3,13,11
1523147447777787,3,45,-2,-8,8,4,-15,-14
1523147447779245,11,-27,-23,16,5,0,-1,-14
1523147447779245,-48,-4,-1,4,-4,0,3,-53
1523147447791276,-35,27,-8,-21,-2,-1,-4,38
1523147447791276,-3,26,11,-64,-10,1,9,-16
1523147447800302,8,9,-8,46,4,-7,5,29
1523147447800302,4,3,-22,-25,-5,-2,-9,-20
1523147447814883,-6,-31,-9,-37,-2,-3,-15,-37
1523147447814883,-10,-13,-15,-6,-6,-4,3,30
1523147447816850,0,-7,-6,4,-9,-3,-8,-9
1523147447816850,6,2,2,17,2,4,16,24
1523147447837453,53,9,24,-5,-1,-1,-5,-5
1523147447837453,0,-15,-41,48,6,7,5,-9
1523147447839405,-4,-10,7,-7,6,1,-11,25
1523147447839405,10,12,1,23,8,-1,-5,2
1523147447851541,32,-2,9,72,6,3,2,18
1523147447851541,-23,-59,-16,-89,-32,-9,-5,-16
1523147447860462,-13,16,-1,83,11,-4,0,7
1523147447860462,41,-8,-1,29,-2,-1,2,6
1523147447875005,-28,0,5,1,4,1,-3,-2
1523147447875005,-1,14,16,6,4,1,2,-21
1523147447876509,9,-49,-8,-26,-2,-2,1,7
1523147447876509,-18,29,0,-36,-5,0,-16,-46
1523147447897604,7,5,10,-5,1,-2,2,73
1523147447897604,0,59,11,27,10,4,9,26
1523147447899063,-55,-20,-3,-27,-10,-4,0,-52
1523147447899063,17,3,24,22,9,3,-8,6
1523147447911146,39,-42,-32,-17,-12,-4,-5,26
1523147447911146,4,18,6,29,-5,0,4,-20
1523147447920119,-38,3,-1,-7,-1,1,-2,14
1523147447920119,38,-13,5,-11,-6,-6,1,3
1523147447935161,-14,4,-21,-12,0,1,20,-71
1523147447935161,-96,-38,18,19,10,-8,-30,-48
1523147447936665,69,13,1,-5,-2,2,19,7
1523147447936665,-22,1,6,-7,-11,-6,-18,19
1523147447957720,58,32,18,-11,0,0,4,-2
1523147447957720,30,67,-21,-25,-6,-5,-13,-8
1523147447959224,-11,-44,16,30,8,-2,-10,-25
1523147447959224,-74,11,10,22,5,-2,-9,12
1523147447971311,-102,14,2,-52,-17,2,-2,41
1523147447971311,-12,-50,-3,11,19,14,18,4
1523147447980280,19,61,3,7,0,-8,-21,34
1523147447980280,19,3,-16,-18,-3,-1,13,17
1523147447994820,-79,-55,3,60,-4,-7,-12,-62
1523147447994820,0,-8,14,13,0,2,1,37
1523147447996824,19,29,-7,-19,-4,0,9,27
1523147447996824,-3,-4,-1,28,5,9,7,-37
1523147448017429,-21,0,-14,8,8,-2,1,-27
1523147448017429,19,-1,29,28,3,-2,-5,-15
1523147448019385,27,7,23,32,6,-2,1,-18
1523147448019385,-8,2,-64,82,-4,-9,-6,5
1523147448031461,23,-5,5,41,-4,6,0,14
1523147448031461,18,5,-34,59,-1,-4,10,-3
1523147448040440,-6,3,9,86,13,5,1,6
1523147448040440,-6,-14,13,21,-9,-5,-5,-14
1523147448054977,15,10,4,13,12,4,3,6
1523147448054977,8,-9,-12,-70,-16,-1,0,20
1523147448056985,-9,10,10,6,11,7,-2,7
1523147448056985,1,-9,-12,-6,-18,-12,2,17
1523147448077584,12,-1,-7,-47,-3,-4,-3,2
1523147448077584,2,9,5,22,4,-2,3,2
1523147448079043,0,-8,-5,-30,13,2,-2,-10
1523147448079043,6,9,24,-28,-5,2,8,28
1523147448091576,3,7,-7,-72,-28,0,-3,-15
1523147448091576,2,-1,-1,127,20,-1,-6,-15
1523147448100098,-5,2,17,52,12,0,-5,55
1523147448100098,29,-14,-26,97,0,-4,3,-14
1523147448115143,-10,5,-11,53,-8,-8,-8,21
1523147448115143,-17,-10,-1,-31,-11,4,16,-14
1523147448116643,1,24,-6,36,-1,-3,-29,31
1523147448116643,43,16,9,-68,-3,-3,-6,-18
1523147448137703,-6,-3,12,33,2,2,1,5
1523147448137703,-6,-11,-11,-29,16,-7,-4,-7
1523147448139704,17,-9,-13,-64,-11,3,6,-39
1523147448139704,-12,-9,6,-2,8,1,2,8
1523147448151267,-8,-4,3,-12,-6,-2,-9,-15
1523147448151267,10,15,5,-26,-10,0,12,14
1523147448160258,-15,-20,6,18,-2,-6,1,-18
1523147448160258,-7,12,-4,-38,0,4,2,19
1523147448174883,2,-26,-35,-4,-17,-3,2,-15
1523147448174883,-4,-6,-19,60,15,-5,-6,-23
1523147448176802,10,-6,0,-48,-20,-2,5,-34
1523147448176802,13,-2,6,8,16,-1,-12,60
1523147448197429,-4,11,2,-26,-20,-3,-3,7
1523147448197429,6,-32,4,-4,4,-5,-5,-2
1523147448199362,7,28,-8,3,3,1,4,-4
1523147448199362,24,5,8,-8,2,4,-4,-18
1523147448219992,35,3,5,-4,0,-8,-2,-19
1523147448219992,-14,-16,13,-26,-17,3,-7,33
1523147448221420,-33,24,11,46,-1,1,7,-8
1523147448221420,-16,-10,-2,-16,7,-1,4,-20
1523147448234958,36,10,9,18,14,-2,-4,22
1523147448234958,0,8,-2,-1,-3,7,7,0
1523147448236994,-49,-7,7,5,4,-3,-3,2
1523147448236994,-15,-6,-8,-25,-23,1,9,-42
1523147448257516,-8,-37,-24,37,10,-8,-32,33
1523147448257516,12,3,-9,0,-1,-3,1,7
1523147448259022,8,-21,4,-15,-2,3,6,6
1523147448259022,-10,3,25,2,-8,4,-2,-14
1523147448280153,-32,-13,-14,-23,8,3,30,-36
1523147448280153,-6,19,-1,6,-6,-6,-26,16
1523147448281580,42,-3,-5,-14,-17,-10,-15,-3
1523147448281580,-34,-14,10,29,17,5,5,4
1523147448295116,-4,21,-17,4,-13,0,8,-12
1523147448295116,44,14,6,-64,-28,-4,2,-50
1523147448296620,-1,-1,-36,56,15,8,8,0
1523147448296620,-18,21,20,4,2,-1,0,4
1523147448317711,-2,9,14,6,13,2,-2,-15
1523147448317711,-7,-8,-6,-2,-2,1,5,25
1523147448319182,-14,-62,0,0,-15,-4,-10,-6
1523147448319182,2,16,14,-1,27,2,-1,1
1523147448340236,1,-7,-20,-63,-28,-7,-3,-12
1523147448340236,-32,-8,-7,13,1,-1,-1,11
1523147448341741,48,23,33,-4,-2,4,12,31
1523147448341741,-39,-9,-22,17,10,-1,-7,-22
1523147448354336,4,-12,8,40,6,0,-10,-2
1523147448354336,-15,26,1,97,-5,-1,3,9
1523147448361357,-38,20,-15,-13,1,-1,11,-22
1523147448361357,44,-3,-4,-18,-19,-3,-13,33
1523147448377389,-20,37,28,118,59,7,3,9
1523147448377389,-14,-18,-52,-108,-86,-21,-10,0
1523147448379340,36,9,-9,23,3,3,7,20
1523147448379340,55,32,-18,23,-1,1,18,48
1523147448399896,12,-23,2,-19,-3,-2,-12,-16
1523147448399896,29,27,9,23,28,3,-3,3
1523147448401902,23,3,2,-53,-12,-4,3,21
1523147448401902,-84,2,-25,-17,-9,-3,-6,-45
1523147448414486,-7,44,-6,-30,-3,0,1,18
1523147448414486,-46,-14,7,-7,14,7,9,-72
1523147448421006,20,4,3,-19,-5,-1,-5,-34
1523147448421006,-18,44,-24,-27,-11,-9,-15,-8
1523147448438057,13,26,37,22,2,3,10,5
1523147448438057,-5,-73,10,16,10,2,4,-15
1523147448439502,-25,24,-12,-16,-2,-2,-26,-23
1523147448439502,-27,-27,17,8,-3,-7,-8,-63
1523147448467637,-43,20,19,-3,-2,0,13,58
1523147448467637,-47,-68,-53,-7,-4,-8,-40,-65
1523147448469080,10,5,-12,-14,-5,-4,5,-10
1523147448469080,5,-59,-7,-7,-12,-7,-23,7
1523147448474597,68,15,6,-2,-5,0,8,-13
1523147448474597,-47,-17,12,16,18,2,20,34
1523147448481113,-31,-25,-5,-14,-13,-6,-20,-52
1523147448481113,59,-13,4,8,1,1,22,-8
1523147448497720,53,14,-6,-1,3,3,17,8
1523147448497720,-38,1,4,-1,5,1,-6,25
1523147448499160,-58,-5,-5,10,7,0,1,-57
1523147448499160,25,-10,17,4,0,-5,-19,102
1523147448520215,32,1,-21,-19,-10,0,14,20
1523147448520215,55,5,9,29,3,-3,-1,0
1523147448521720,-46,-43,-7,-1,0,-1,-2,-3
1523147448521720,-16,20,7,-63,6,9,30,-32
1523147448534304,-20,-24,-15,59,-1,-3,-39,-6
1523147448534304,29,45,13,27,1,4,3,13
1523147448541272,24,-11,-10,-42,-10,-5,4,32
1523147448541272,-1,9,22,116,26,7,7,10
1523147448557820,-26,-8,20,-56,7,8,5,-21
1523147448557820,5,10,-46,45,-43,-22,-20,-23
1523147448559320,30,50,22,88,15,11,8,29
1523147448559320,24,-24,-13,6,-13,-1,4,10
1523147448579926,-33,-49,10,51,14,-5,-11,-13
1523147448579926,44,28,37,53,30,10,1,25
1523147448581377,-6,7,-6,-89,-7,-10,0,7
1523147448581377,40,-27,-42,-47,-70,-11,2,-36
1523147448594467,-26,-3,-5,35,-4,2,9,-24
1523147448594467,66,26,38,6,9,4,4,33
1523147448601469,2,7,2,-17,-9,2,1,-3
1523147448601469,-4,-1,-11,30,32,2,-2,-14
1523147448617530,3,-22,5,24,-5,-6,-7,-12
1523147448617530,-4,3,-55,-128,-32,-11,3,5
1523147448618978,22,-5,-18,-5,-23,-2,-4,3
1523147448618978,-49,12,21,-14,6,10,19,-13
1523147448640037,3,2,10,32,18,6,-9,17
1523147448640037,-9,2,6,-2,-10,-1,4,5
1523147448641539,14,-13,-7,31,-1,-5,1,6
1523147448641539,-9,12,-6,-4,1,-1,-2,13
1523147448662595,-4,26,-5,-31,-28,-6,-3,-7
1523147448662595,14,1,37,39,58,13,9,-11
1523147448664101,-6,-13,-33,-33,-9,-5,-1,17
1523147448664101,-50,1,19,57,2,-4,-18,-44
1523147448677690,22,13,10,6,0,-3,-2,27
1523147448677690,-6,0,-15,24,1,-1,-1,-15
1523147448679141,-20,-6,-32,51,5,3,4,-3
1523147448679141,1,8,42,127,70,17,15,3
1523147448700239,-42,-32,-63,-112,-83,-16,-8,-35
1523147448700239,19,6,18,75,3,-4,-6,73
1523147448701700,17,-49,20,61,15,2,1,11
1523147448701700,-1,-6,8,-2,-15,-4,-3,7
1523147448713786,-10,-14,-2,31,35,2,-1,-20
1523147448713786,33,2,-6,-29,-11,-2,-7,13
1523147448722755,-15,46,22,-11,-1,1,0,2
1523147448722755,13,2,-2,-25,-9,-4,-6,7
1523147448736840,-9,-15,3,-1,4,-2,-6,-6
1523147448736840,-38,-6,-20,-17,-15,-2,4,-15
1523147448745314,36,5,7,31,12,2,-2,16
1523147448745314,4,-1,-14,-48,-16,-2,-2,20
1523147448759908,18,10,3,27,0,-1,1,6
1523147448759908,-12,12,35,79,4,-3,-5,-15
1523147448761356,-22,-11,-17,-41,-2,0,4,-14
1523147448761356,-33,-2,-22,64,-7,-5,-1,32
1523147448773511,42,5,4,35,13,2,0,-6
1523147448773511,27,-3,2,28,15,4,4,4
1523147448782534,0,5,19,13,2,-5,-9,-1
1523147448782534,3,5,-17,-72,-24,-9,-6,-28
1523147448797626,-15,8,-18,-15,2,-3,-3,84
1523147448797626,14,-45,6,3,1,6,4,-29
1523147448799079,3,-11,20,41,-2,1,-1,-12
1523147448799079,8,-3,-34,-85,8,-2,10,-22
1523147448820187,-3,-43,10,34,5,-1,-22,33
1523147448820187,53,34,-3,-31,-2,3,8,4
1523147448821639,-47,-20,-11,25,-12,-1,-2,12
1523147448821639,28,-14,18,42,2,1,-3,-10
1523147448833722,-55,-10,-7,28,0,0,8,-9
1523147448833722,-26,17,-6,-1,2,0,0,-1
1523147448842696,-8,12,32,58,27,7,1,-9
1523147448842696,-1,6,-2,60,-15,-3,2,10
1523147448857736,28,0,10,60,24,-5,3,-19
1523147448857736,15,20,-10,-13,-7,-4,-5,4
1523147448859244,-11,-17,0,5,7,-1,4,-2
1523147448859244,-17,-13,-23,-51,-11,-6,-17,7
1523147448880297,-28,1,-1,-27,-15,2,12,-33
1523147448880297,-28,-3,-2,-26,16,6,-8,-51
1523147448881831,-60,31,-7,-36,-19,-10,-6,73
1523147448881831,19,13,19,6,3,2,-8,20
1523147448893967,-27,-26,-11,-36,-5,-2,-1,-31
1523147448893967,-49,-8,19,7,-6,3,3,-14
1523147448902495,44,7,-16,-6,0,-2,10,-1
1523147448902495,-46,12,6,28,-6,-3,-22,-25
1523147448917535,9,69,0,-26,-2,0,1,7
1523147448917535,-27,-21,15,9,5,1,9,9
1523147448919038,14,-44,-9,5,1,1,-8,59
1523147448919038,-35,-45,1,11,7,2,14,-47
1523147448940094,12,-9,3,-19,-22,-10,2,-12
1523147448940094,40,5,-32,0,7,1,21,27
1523147448941598,34,67,-4,-9,-11,-4,-42,-49
1523147448941598,56,37,4,-1,2,6,8,-6
1523147448953687,-44,-38,-7,1,2,1,-10,81
1523147448953687,5,-21,-26,-12,-22,-9,-1,-9
1523147448962654,-17,-30,-12,-6,1,-4,5,-19
1523147448962654,17,19,24,-12,-23,-4,6,-27
1523147448977722,81,33,6,-7,0,1,-13,24
1523147448977722,6,-7,-6,1,0,0,-7,11
1523147448979198,15,4,-10,-7,5,3,5,-10
1523147448979198,-81,-39,-10,10,8,-1,12,2
1523147449000254,-35,-49,0,3,-6,-2,-11,-54
1523147449000254,9,-11,17,-7,-8,-7,-10,34
1523147449001760,-7,5,-16,48,1,7,4,-40
1523147449001760,-4,5,-24,-41,-4,-3,7,20
1523147449013939,36,15,12,30,5,-3,2,-35
1523147449013939,-8,26,-7,46,17,2,-7,-2
1523147449022469,5,-20,26,33,-9,-4,6,-14
1523147449022469,30,8,-27,-74,-25,-10,-5,23
1523147449037566,-14,-18,-11,-11,1,5,3,-6
1523147449037566,11,32,41,36,4,-4,-9,-2
1523147449039010,7,0,4,24,15,0,-1,1
1523147449039010,4,-7,32,127,40,15,6,12
1523147449060118,-7,4,-47,-93,-55,-22,-12,-32
1523147449060118,-47,-13,7,69,-3,-1,4,-8
1523147449061570,20,14,36,80,24,6,20,-11
1523147449061570,20,24,-13,-71,-33,-9,-26,16
1523147449073603,0,-40,-8,111,16,4,11,-6
1523147449073603,-4,4,-3,40,2,3,-11,2
1523147449082625,-6,-17,-7,29,0,-4,-5,-24
1523147449082625,16,19,-4,-52,-7,-7,-10,80
1523147449097731,24,16,16,33,9,1,12,13
1523147449097731,-5,-9,-17,-128,-37,-1,0,-13
1523147449099170,40,0,20,90,41,5,-7,8
1523147449099170,-24,-9,-8,54,-2,-1,1,-16
1523147449120228,-28,9,10,9,4,5,9,22
1523147449120228,29,9,2,-3,2,3,-2,8
1523147449121730,2,6,-3,-1,-7,-3,3,-2
1523147449121730,-3,-46,-12,0,-4,1,1,-11
1523147449133885,-3,12,-3,20,7,3,-2,-7
1523147449133885,3,-6,9,30,11,-1,0,-12
1523147449142413,-15,-1,-4,-41,-6,-5,-7,1
1523147449142413,3,-13,4,79,-11,-3,1,-19
1523147449156954,52,-17,-6,-47,-6,-2,-9,25
1523147449156954,-12,-8,-3,18,9,1,4,-1
1523147449163470,-21,-4,-1,-59,-13,0,-5,10
1523147449163470,20,10,-32,-26,3,-8,-9,-4
1523147449180251,-15,6,-29,-5,2,7,6,-6
1523147449180251,-1,28,-4,-22,9,-1,3,10
1523147449181516,-12,-1,-14,-39,-19,-6,2,5
1523147449181516,17,-5,8,-8,7,2,-1,-27
1523147449202572,-20,7,7,13,4,-2,0,-11
1523147449202572,0,18,-23,-29,-14,-2,2,-3
1523147449204078,-33,-57,-15,-15,-12,-1,-2,-3
1523147449204078,2,8,21,13,6,-2,-2,-8
1523147449217612,-8,9,37,27,12,10,8,10
1523147449217612,-19,15,-17,-41,-9,-6,-4,-4
1523147449219115,4,-3,8,-8,-3,4,6,2
1523147449219115,11,-2,10,82,15,4,20,-13
1523147449240173,-26,-8,-11,-69,-18,-10,-34,65
1523147449240173,-44,-13,28,91,21,5,1,-15
1523147449241677,-3,13,2,38,-9,0,0,-14
1523147449241677,-16,-23,-12,-12,-3,-1,6,-36
1523147449261949,-35,31,25,52,7,0,-4,-37
1523147449261949,14,-12,7,36,-7,-4,-1,-4
1523147449270252,7,3,-4,-25,1,-4,-10,11
1523147449270252,-37,-7,2,10,7,1,-2,6
1523147449277907,40,-26,-12,-31,-20,-3,7,-23
1523147449277907,52,40,10,-6,1,0,-2,30
1523147449279277,-15,-10,4,-27,-6,-5,6,-25
1523147449279277,41,25,-7,5,7,0,-4,30
1523147449300540,2,-11,-10,-36,4,1,-3,-25
1523147449300540,-14,-41,-14,34,-3,0,7,9
1523147449302472,-4,6,-5,-34,-7,2,3,-25
1523147449302472,-4,9,-4,73,-4,-2,-9,11
1523147449322392,1,12,-3,24,6,-4,-3,2
1523147449322392,-3,-26,16,-15,-4,0,5,-4
1523147449324398,-22,22,-17,-16,6,-4,-5,-4
1523147449324398,-17,-15,4,-79,-19,-4,-7,-15
1523147449336929,-12,4,-7,89,6,-3,11,-37
1523147449336929,-6,-16,-26,-56,-17,-4,-12,-9
1523147449343682,4,-4,-6,4,-8,-3,-2,16
1523147449343682,69,22,21,56,11,-3,-8,3
1523147449359991,2,26,31,-58,1,-1,0,19
1523147449359991,-32,-20,-33,-71,-23,-10,-5,-11
1523147449362029,19,5,21,59,6,0,-7,22
1523147449362029,0,5,-7,-34,-3,2,-3,8
1523147449382747,-1,43,20,15,7,-3,3,-31
1523147449382747,-50,-60,4,-12,-3,-6,-15,-4
1523147449384557,11,21,-8,-50,-10,0,3,13
1523147449384557,-19,-15,32,31,15,5,7,-1
1523147449397190,-50,-30,-15,-46,-13,-6,3,-64
1523147449397190,-1,15,1,5,3,1,-5,22
1523147449403848,-16,10,-1,3,-1,-2,-2,-9
1523147449403848,-65,12,-14,-3,3,4,12,14
1523147449420050,12,-19,-21,4,-5,-2,-15,-32
1523147449420050,25,-5,27,21,11,2,12,-13
1523147449421398,19,59,-12,-25,-28,-9,-11,60
1523147449421398,82,35,-2,-30,-2,-2,16,8
1523147449442584,-26,-25,-30,-14,-11,-5,-22,13
1523147449442584,-13,24,-8,11,-5,-6,-6,-27
1523147449443958,30,37,32,1,9,2,-7,-6
1523147449443958,-102,-87,-40,-30,-15,-11,-12,-59
1523147449457083,105,98,54,28,23,19,22,114
1523147449457083,53,-26,-12,34,-3,-9,-3,-29
1523147449463724,-20,-13,-5,-1,-12,-5,-9,-27
1523147449463724,-26,-12,-21,-22,-7,-4,-3,9
1523147449480271,-42,-41,4,13,10,1,7,-9
1523147449480271,-4,-1,-6,-13,-2,0,-3,15
1523147449481649,16,-9,10,16,10,7,17,-5
1523147449481649,6,9,7,-10,4,3,-3,2
1523147449502767,3,-14,-12,69,4,-2,-4,-3
1523147449502767,-10,18,3,27,4,3,6,-5
1523147449504210,22,-28,-42,3,-28,-16,-8,-18
1523147449504210,17,13,18,76,16,3,-10,7
1523147449516872,11,-12,-8,12,-1,-1,1,7
1523147449516872,-89,-18,18,50,11,4,2,10
1523147449523930,-2,-14,13,65,25,5,3,-8
1523147449523930,-3,12,5,55,11,2,-4,7
1523147449538975,28,-1,-12,-61,3,-4,0,-4
1523147449538975,18,27,-6,31,-6,12,1,-1
1523147449547494,-25,-26,-11,44,-4,-12,-3,1
1523147449547494,42,1,4,-50,-6,-3,-2,3
1523147449562659,-30,-12,-7,76,-16,-1,8,-1
1523147449562659,14,20,35,65,45,8,7,4
1523147449564040,4,-14,-41,27,-40,1,6,3
1523147449564040,-4,23,9,-59,5,-8,-6,-10
1523147449577118,20,-16,-1,-34,13,-3,-2,9
1523147449577118,22,15,19,4,-9,0,-1,4
1523147449583720,4,7,32,-16,-30,0,4,-11
1523147449583720,-34,-7,-35,40,-3,-7,2,13
1523147449600260,11,15,39,105,5,6,4,8
1523147449600260,-18,-18,-2,50,32,6,3,-16
1523147449601641,7,-39,-51,-117,-68,-22,0,13
1523147449601641,35,-13,-28,22,-29,-7,-32,-26
1523147449622697,1,-2,-16,39,3,3,7,-7
1523147449622697,-4,-8,-1,64,19,0,-7,2
1523147449624201,-39,-29,16,99,45,16,15,1
1523147449624201,-6,14,6,15,1,-2,3,5
1523147449636733,3,-9,-15,-54,-16,-6,-15,8
1523147449636733,33,7,-2,-32,-9,-7,-6,-2
1523147449643925,-5,10,-12,-64,37,6,-6,-3
1523147449643925,2,-8,0,-81,-35,-8,-2,-5
1523147449660099,-33,-36,-4,40,27,6,-1,-4
1523147449660099,-11,-32,-26,-39,-30,-6,3,0
1523147449661475,-6,10,6,26,-4,-8,-8,-4
1523147449661475,-6,24,33,40,27,12,1,-25
1523147449682654,-3,-48,-1,31,0,-3,-7,-13
1523147449682654,-1,-2,-20,-77,-28,-7,-5,-27
1523147449684035,7,9,0,1,22,3,3,6
1523147449684035,-1,1,0,5,4,1,0,10
1523147449696190,-52,4,11,34,-15,-7,0,-3
1523147449696190,23,4,-8,-38,-10,-6,-13,3
1523147449705292,-35,-23,3,64,18,13,17,-3
1523147449705292,14,12,-20,28,-5,-7,-3,6
1523147449720330,24,25,8,48,7,-2,-8,-2
1523147449720330,-12,10,30,95,21,2,6,14
1523147449721837,-6,-3,-13,-41,-24,-16,-12,-9
1523147449721837,-3,-29,12,19,13,16,12,22
1523147449742392,84,4,-17,-57,-17,-6,0,-10
1523147449742392,22,19,42,98,36,5,4,6
1523147449744468,-29,-22,-46,-24,-47,-13,2,-29
1523147449744468,46,34,13,35,9,6,-14,-39
1523147449756428,-38,-20,-9,-42,-16,-8,-8,14
1523147449756428,-13,5,1,-43,-3,1,6,5
1523147449764952,37,21,23,13,26,6,-1,-26
1523147449764952,-6,-18,-9,-26,-25,-2,0,19
1523147449780127,-33,19,-3,-3,3,-2,0,-16
1523147449780127,24,-10,-16,-22,-14,-4,2,4
1523147449781495,18,-11,-28,-62,-2,2,-4,19
1523147449781495,23,-6,2,34,-5,-3,5,11
1523147449802677,-4,3,-3,-19,6,5,1,2
1523147449802677,-32,-9,-29,10,-15,-7,-11,-22
1523147449804055,11,13,23,-63,16,1,-3,16
1523147449804055,-67,-30,-10,-76,-10,-4,8,5
1523147449816223,-20,35,-4,4,-2,0,1,-11
1523147449816223,4,21,-14,-5,-6,-1,-4,22
1523147449825111,-2,12,26,48,11,0,-2,9
1523147449825111,6,-32,2,-2,4,-3,-10,1
1523147449840151,2,-19,20,-21,1,5,12,-12
1523147449840151,18,2,-24,-12,-17,-1,1,-11
1523147449841657,-34,32,8,39,7,-3,-7,-25
1523147449841657,-27,3,-4,2,1,-1,-2,18
1523147449862793,22,-11,-3,-7,-5,-4,-9,-4
1523147449862793,-4,-9,-1,14,5,9,8,5
1523147449864291,59,-33,-15,10,-1,0,-11,-5
1523147449864291,5,-23,-4,38,5,-3,3,-8
1523147449876449,-20,1,-10,-3,-4,-6,-8,-15
1523147449876449,18,54,3,-25,-8,-4,-4,-9
1523147449885347,6,-17,23,20,5,5,31,-21
1523147449885347,14,40,22,18,7,1,-13,-12
1523147449900015,72,-15,6,3,3,4,22,-38
1523147449900015,-41,-40,-5,-30,-17,-7,-33,0
1523147449901924,28,1,-10,18,13,4,10,16
1523147449901924,-13,-9,5,11,-5,-4,-1,-2
1523147449922446,8,18,-1,-12,-2,1,19,-32
1523147449922446,42,41,7,-6,0,-1,-12,-34
1523147449923949,-117,1,8,10,2,8,0,-29
1523147449923949,78,-45,-44,-22,-10,-13,-24,27
1523147449936483,-2,19,8,-7,4,2,6,24
1523147449936483,-25,-16,-13,-27,-7,-2,-6,-21
1523147449945005,-27,-57,10,-1,-9,-10,-34,-2
1523147449945005,-16,21,15,15,8,6,22,3
1523147449960170,7,43,9,15,1,0,2,19
1523147449960170,-57,-66,-12,-5,5,-2,12,-16
1523147449961552,91,6,-3,-1,-4,-1,2,55
1523147449961552,-93,16,20,3,0,-1,2,-19
1523147449982768,-48,-91,-20,9,2,2,-14,18
1523147449982768,22,-2,7,3,2,3,8,17
1523147449984271,11,7,-7,-1,4,1,-1,2
1523147449984271,-38,-8,-5,24,0,-3,3,-20
1523147449996425,-19,19,15,1,6,-1,-17,-12
1523147449996425,-10,-10,-30,-63,-22,-9,14,10
1523147450005326,-12,8,1,25,-6,-3,-6,17
1523147450005326,74,16,12,8,5,-1,-2,12
1523147450020001,-18,38,19,7,-6,-1,-2,3
1523147450020001,2,-23,-15,9,7,3,3,-4
1523147450021870,1,-30,-6,3,-3,-2,2,11
1523147450021870,4,-8,13,47,25,16,12,-3
1523147450042548,-3,-14,-53,-84,-33,-21,-30,-8
1523147450042548,27,24,23,20,5,3,15,24
1523147450043928,9,17,21,62,-3,-2,0,11
1523147450043928,-18,0,-9,15,0,3,1,-8
1523147450056468,-4,-6,-5,13,-20,-8,-4,6
1523147450056468,19,4,10,104,24,0,-1,19
1523147450065486,-13,18,-14,-73,-18,-8,-5,-14
1523147450065486,-30,-6,6,51,-5,0,0,-8
1523147450080256,-26,35,13,86,27,7,8,-22
1523147450080256,-14,-87,-39,-66,-36,-9,-14,100
1523147450082028,31,23,21,34,29,5,-2,-61
1523147450082028,6,-26,-4,-52,-9,-8,-6,18
1523147450102823,13,-31,-14,-26,-4,1,18,6
1523147450102823,50,56,12,107,22,6,-1,-17
1523147450104088,-87,-6,-24,-23,-6,-5,-13,26
1523147450104088,7,-7,-15,-9,-11,-3,0,10
1523147450124381,6,11,19,72,2,5,6,-2
1523147450124381,-21,-8,23,124,34,0,1,-19
1523147450132663,17,1,-19,43,-21,-5,0,8
1523147450132663,36,17,-9,-15,-3,-2,2,-10
1523147450140184,5,5,12,23,22,6,-3,22
1523147450140184,-7,17,19,-68,-13,-5,-3,-28
1523147450141688,5,1,2,-13,3,3,4,7
1523147450141688,-45,3,-5,-46,-3,-4,-1,-4
1523147450162909,13,37,7,-15,-4,1,-6,-23
1523147450162909,-2,-42,-2,-16,3,-2,-4,18
1523147450164488,-8,11,-16,-111,-32,-9,-2,-15
1523147450164488,20,10,8,81,2,0,-1,-11
1523147450185384,-59,15,-1,20,-2,-3,-4,52
1523147450185384,32,21,-5,-31,-14,-2,5,-30
1523147450186853,-11,0,40,127,48,10,-3,-26
1523147450186853,-54,-15,-24,-43,-15,-4,1,22
1523147450200082,14,-28,-4,11,-11,-4,-4,-5
1523147450200082,0,25,-5,-69,-18,0,4,4
1523147450201956,10,-7,8,56,7,0,-3,16
1523147450201956,19,5,-8,-32,-1,-1,-2,-19
1523147450222642,23,-10,-5,-7,4,-1,5,11
1523147450222642,-3,-2,12,71,23,6,0,-9
1523147450224408,6,-12,-48,-120,-57,-14,-5,-20
1523147450224408,14,1,1,52,-2,0,6,15
1523147450244963,1,-7,1,94,21,6,-10,-2
1523147450244963,-11,11,-29,-51,-36,-10,-3,-18
1523147450247013,53,24,-1,44,3,-2,-9,16
1523147450247013,14,-54,-4,31,4,-4,-2,14
1523147450259709,6,1,10,-33,-9,-1,2,-12
1523147450259709,-8,14,-12,-63,-1,-3,-6,-10
1523147450266581,2,-5,5,0,12,5,6,3
1523147450266581,-2,13,-1,-4,-9,-2,-2,13
1523147450282563,20,-10,1,-3,3,-1,2,-10
1523147450282563,-27,6,0,29,-7,-4,-5,-6
1523147450284589,9,7,32,20,23,4,4,6
1523147450284589,47,-25,-16,-9,-1,-1,0,0
1523147450305123,-56,-8,5,-4,-10,0,3,-20
1523147450305123,16,2,6,6,5,0,-3,18
1523147450306629,5,19,9,52,17,-1,-1,0
1523147450306629,6,21,19,-56,-31,0,-7,-21
1523147450319738,19,-3,-6,65,10,0,12,11
1523147450319738,-46,-50,-35,11,-8,-3,0,-13
1523147450326181,8,-12,8,-1,4,2,0,14
1523147450326181,10,7,19,-21,8,1,-2,-4
1523147450342885,10,8,-5,-31,-13,-6,-8,-8
1523147450342885,13,17,20,15,3,2,5,8
1523147450344227,-51,-67,-22,-7,7,8,5,-59
1523147450344227,-3,13,-5,11,1,1,8,25
1523147450365284,18,-2,2,-31,-4,-4,2,-10
1523147450365284,11,24,28,10,-2,-1,3,-4
1523147450366787,71,7,-16,-19,-11,-4,-13,12
1523147450366787,-41,-20,0,11,7,-2,0,-15
1523147450379320,-23,-39,-66,-42,-15,-12,-23,-60
1523147450379320,-99,-6,2,-5,-2,0,6,-44
1523147450386577,28,40,23,-16,-8,-5,-8,24
1523147450386577,24,18,12,12,5,1,-2,14
1523147450401982,19,-15,-20,-16,-1,-3,-6,1
1523147450401982,15,-9,-8,-1,-2,0,6,-18
1523147450410403,59,70,27,4,7,12,12,50
1523147450410403,-66,-24,-17,3,2,-5,6,-21
1523147450424941,12,-21,-10,-18,-12,-11,-20,3
1523147450424941,-26,-31,-11,-3,-11,-14,-17,-31
1523147450426446,-23,-6,-3,-4,-8,3,23,13
1523147450426446,26,12,-14,11,-1,-4,-9,16
1523147450438478,16,30,11,-12,0,4,13,-23
1523147450438478,18,-6,-64,11,1,0,-2,15
1523147450448012,-15,-2,-5,-7,-2,-4,-6,-10
1523147450448012,-20,-13,3,13,8,2,0,-15
1523147450462781,-41,-3,2,1,-5,4,1,6
1523147450462781,71,-5,68,33,15,9,7,34
1523147450464046,-78,-65,-6,5,-2,-6,-4,-29
1523147450464046,-18,27,-7,5,3,4,6,8
1523147450485102,-13,5,14,-1,7,3,-1,15
1523147450485102,45,-18,8,34,9,2,-1,20
1523147450486605,-16,-20,-29,36,-26,-14,-9,-5
1523147450486605,-8,3,5,-34,12,0,-4,-25
1523147450499714,43,-13,29,41,7,7,13,44
1523147450499714,-7,20,-15,-82,-21,-5,-1,-10
1523147450506308,-24,14,15,59,17,2,-4,-10
1523147450506308,67,0,-2,0,4,-1,0,9
1523147450522701,-20,33,12,99,16,5,4,7
1523147450522701,-8,3,-39,-94,-41,-11,-4,9
1523147450524207,-10,-4,15,71,8,3,0,-8
1523147450524207,11,11,1,33,-35,5,2,0
1523147450545261,-10,-13,-29,96,31,2,-1,9
1523147450545261,-16,-2,17,0,3,-3,-3,-1
1523147450546766,3,10,-3,-21,9,1,2,1
1523147450546766,-8,5,-25,-37,-18,-9,-5,-17
1523147450559037,-27,2,15,-55,-12,2,11,-14
1523147450559037,94,11,-5,11,-3,-7,-16,27
1523147450568051,-33,-14,-11,9,9,0,0,-17
1523147450568051,-7,10,19,18,4,0,-5,1
1523147450582564,-31,-2,-7,-81,-18,-6,4,-14
1523147450582564,-36,5,9,28,3,0,0,-2
1523147450584579,27,21,10,-25,1,5,3,22
1523147450584579,1,-4,14,63,11,-2,-5,-11
1523147450605071,22,-7,-10,-41,-20,-11,-11,13
1523147450605071,-20,1,23,127,35,10,5,-5
1523147450606575,-12,-5,-18,24,-19,-7,-5,3
1523147450606575,-11,4,6,45,7,2,1,-4
1523147450618607,22,12,31,100,21,7,3,9
1523147450618607,-10,6,-3,-35,-38,-4,0,-11
1523147450627631,-60,-15,-19,6,2,-9,-6,6
1523147450627631,-20,2,12,25,14,2,2,4
1523147450642873,55,7,13,15,2,-5,-7,6
1523147450642873,-2,0,-19,70,-4,-5,-4,-4
1523147450644176,-7,8,-25,1,0,-1,-1,-7
1523147450644176,-9,-47,-4,-11,-18,1,-3,7
1523147450664966,-47,-2,36,-2,18,0,3,28
1523147450664966,5,8,0,-42,10,-2,-4,-22
1523147450666735,23,-26,15,-45,-13,-6,1,-2
1523147450666735,-4,11,4,20,21,0,-6,1
1523147450678968,13,7,-32,-34,-26,-9,-4,7
1523147450678968,0,-13,-13,-21,-7,-2,-1,1
1523147450687791,9,-7,2,-44,1,0,-1,-2
1523147450687791,32,24,28,0,2,1,10,-7
1523147450702495,49,-22,-20,0,-8,-1,-6,-20
1523147450702495,-24,4,9,-30,3,1,1,-8
1523147450704001,8,7,-1,31,12,2,-3,-4
1523147450704001,-7,5,-5,9,-3,-1,1,1
1523147450725056,-17,-7,-20,-85,-20,2,-3,-13
1523147450725056,4,1,8,11,17,3,0,15
1523147450726561,13,30,12,30,-2,2,4,-7
1523147450726561,50,-55,-7,-14,-4,-7,-5,5
1523147450738592,78,1,11,19,-4,-4,-6,-16
1523147450738592,-2,9,-31,-17,6,4,7,13
1523147450747766,-8,-15,8,19,4,2,-1,6
1523147450747766,-29,-17,-11,-64,-13,-1,5,-25
1523147450762501,-44,50,-31,28,-18,-7,0,-4
1523147450762501,-55,4,27,54,2,-1,-5,-5
1523147450764457,15,-6,-4,42,5,2,1,0
1523147450764457,-2,10,13,-3,9,4,-3,3
1523147450785366,-32,-9,-17,76,0,2,8,-15
1523147450785366,-4,-5,-8,8,-8,-3,3,6
1523147450786871,-13,-2,11,-13,1,2,-1,1
1523147450786871,-18,6,-2,18,4,0,0,-4
1523147450799017,6,-21,4,-26,3,0,-2,8
1523147450799017,40,47,3,-3,-2,-3,-2,2
1523147450807957,67,-14,3,-12,2,6,2,-19
1523147450807957,-25,7,-9,5,-1,-3,2,58
1523147450822662,5,-24,-1,-19,-3,-2,-11,-9
1523147450822662,15,8,-7,-9,-2,-3,-2,33
1523147450823968,-21,2,28,-6,-2,3,10,30
1523147450823968,-67,12,3,1,-5,-7,-11,-46
1523147450845024,-8,-23,1,-13,1,-1,-4,-7
1523147450845024,-16,-27,-9,8,-1,-1,-1,-23
1523147450846529,31,20,-21,-20,-10,-7,-6,8
1523147450846529,62,16,-2,10,0,3,12,17
1523147450858756,-31,-54,-3,0,6,1,-2,11
1523147450858756,7,-32,4,12,4,1,0,-17
1523147450867584,2,17,-8,-14,-9,-2,14,-18
1523147450867584,37,20,21,17,1,0,-9,-11
1523147450882825,-31,38,28,-9,2,0,6,1
1523147450882825,58,12,-2,-3,-4,-3,3,37
1523147450884129,46,-11,0,-8,3,-1,-14,-29
1523147450884129,-5,28,0,-3,-11,-8,-11,8
1523147450905185,23,-15,-10,-4,3,-2,8,4
1523147450905185,-60,-29,1,1,-4,-6,-15,-40
1523147450906690,11,18,0,-11,-4,1,9,-8
1523147450906690,78,-58,-15,0,-4,0,-1,8
1523147450918918,8,17,-3,-4,-12,-10,-15,-22
1523147450918918,37,-19,1,2,7,4,9,-1
1523147450933957,-58,1,6,-14,-6,-2,-5,-37
1523147450933957,-19,-16,-31,-4,-3,-5,-5,24
1523147450942785,1,-15,-18,-8,1,1,10,2
1523147450942785,12,-6,13,10,5,4,-4,-8
1523147450944287,30,17,11,2,-4,-2,-2,33
1523147450944287,-51,5,17,0,3,2,5,-18
1523147450965846,-15,-27,-15,3,-2,-1,-5,-4
1523147450965846,-19,-10,12,-15,-1,-1,0,-9
1523147450967546,-41,-21,2,7,-1,-1,1,18
1523147450967546,4,23,-11,10,0,-2,1,-10
1523147450978880,21,21,20,8,9,5,-4,8
1523147450978880,-15,8,-4,23,-1,-2,-1,-6
1523147450987404,-4,-32,-33,-85,-16,-6,-9,-8
1523147450987404,2,-16,-2,67,1,3,3,-21
1523147451002646,10,34,12,19,-1,-2,0,20
1523147451002646,-18,-9,7,11,7,0,1,-18
1523147451003951,-24,-17,1,87,19,5,0,13
1523147451003951,-54,14,5,-73,-28,-5,-4,-18
1523147451025003,36,-22,18,87,17,6,1,9
1523147451025003,7,31,-34,89,16,2,-1,14
1523147451026507,-10,-16,-31,-87,-51,-14,-8,-6
1523147451026507,12,-7,5,52,26,5,3,-4
1523147451047759,-7,3,2,24,-12,-2,3,-6
1523147451047759,-9,19,1,-5,-2,-4,-6,-16
1523147451049568,9,19,19,20,19,4,3,6
1523147451049568,28,14,-3,-13,0,-5,-3,18
1523147451062545,-18,3,-16,-70,-17,-6,-3,-13
1523147451062545,0,12,6,-7,-2,5,6,12
1523147451064551,-29,-16,-4,-14,15,0,2,-17
1523147451064551,34,36,9,5,5,3,-9,27
1523147451084902,29,49,12,59,7,3,3,4
1523147451084902,6,-18,-13,-34,-23,-15,-7,4
1523147451086406,-13,13,-36,26,-18,-5,11,6
1523147451086406,-37,-7,-6,33,6,3,-7,-10
1523147451107531,-5,1,-7,-64,-6,-5,-9,-1
1523147451107531,-17,-17,-9,28,14,11,8,-22
1523147451108966,-8,-33,31,28,6,3,7,69
1523147451108966,14,27,-16,-44,-24,-11,-5,-31
1523147451122658,-6,8,7,71,39,9,2,2
1523147451122658,-20,-26,-22,-116,-55,-9,-5,-23
1523147451124006,45,14,-11,42,8,-6,-9,-11
1523147451124006,-3,-29,3,0,2,4,3,8
1523147451145063,-10,-13,7,-5,-12,-3,-5,2
1523147451145063,10,-4,4,-71,-12,-3,3,14
1523147451146568,-20,8,25,69,25,4,1,-26
1523147451146568,4,-9,-9,-83,-12,-3,3,26
1523147451167798,-3,7,7,-54,-4,6,7,-5
1523147451167798,7,-1,-1,109,27,-2,-3,11
1523147451169127,-19,-7,1,-48,-12,-1,-8,-27
1523147451169127,5,-27,-16,21,4,-5,-3,-17
1523147451182819,-4,-4,12,6,-2,-5,1,-1
1523147451182819,-7,-2,15,59,5,7,4,-11
1523147451184166,27,27,6,30,1,-1,-9,42
1523147451184166,2,-8,-26,15,1,-3,6,-6
1523147451205222,-6,-3,12,26,6,0,-6,-22
1523147451205222,-23,29,20,12,7,3,8,-38
1523147451206726,31,28,-21,-28,-5,-3,-11,4
1523147451206726,-10,-1,7,32,-1,-3,0,-14
1523147451227847,17,-2,-19,-25,-8,-3,-1,29
1523147451227847,1,-6,18,9,16,4,8,7
1523147451229287,28,-6,-11,-62,-22,-4,-4,-8
1523147451229287,22,4,13,3,7,3,4,1
1523147451241976,10,-1,-10,7,1,0,1,-14
1523147451241976,19,-5,0,-6,-3,-7,-7,21
1523147451248964,40,-15,13,67,24,12,17,49
1523147451248964,-14,34,-10,13,-16,-7,-3,-23
1523147451265428,18,15,7,-24,3,-1,-2,27
1523147451265428,-3,-10,-27,36,-25,-10,-12,6
1523147451267039,-10,-23,13,28,7,-4,-1,-19
1523147451267039,-13,-22,-2,-24,0,3,7,-1
1523147451287442,-6,-17,-9,33,11,5,11,-3
1523147451287442,23,12,26,5,8,8,4,19
1523147451289486,-58,-4,-4,49,-3,2,-2,-25
1523147451289486,-16,-11,-9,3,-14,-8,-6,5
1523147451301993,5,-9,-3,16,-1,-1,-3,-4
1523147451301993,7,-2,5,-38,-9,1,2,15
1523147451309012,-21,-6,-16,0,-2,-4,4,-34
1523147451309012,1,-4,1,-20,7,3,-11,11
1523147451325057,-17,-6,-6,23,-12,-8,-4,7
1523147451325057,33,5,14,-4,4,-3,0,0
1523147451326859,-2,2,3,-14,1,1,-2,-14
1523147451326859,-15,-4,6,17,7,0,5,0
1523147451347886,-16,0,-3,13,6,0,0,-3
1523147451347886,37,8,3,64,-6,-5,-5,22
1523147451349585,-40,32,-23,-92,-19,-8,-5,-72
1523147451349585,39,-50,-1,-20,4,2,-10,14
1523147451362154,-62,-11,1,16,8,0,5,9
1523147451362154,-34,-3,-5,-25,0,-1,-7,12
1523147451368935,-19,-17,-4,20,-1,1,-1,-11
1523147451368935,-20,21,3,33,2,-1,3,-6
1523147451385035,8,2,-4,-43,-8,-1,1,0
1523147451385035,-10,-14,-10,-42,-4,-4,-5,-13
1523147451386482,-3,-8,-24,0,-4,-4,0,16
1523147451386482,24,46,1,10,-2,-3,-2,16
1523147451407734,42,-3,1,-15,-9,-3,0,7
1523147451407734,-82,-29,-15,-4,0,3,2,-3
1523147451409044,58,46,16,17,6,3,12,-13
1523147451409044,55,5,10,6,4,1,-12,13
1523147451422144,-13,23,-5,0,-8,-3,-6,-7
1523147451422144,49,9,25,2,-4,-8,-7,12
1523147451428793,49,20,15,-4,-2,3,2,-17
1523147451428793,-46,-6,-19,8,-2,-6,-3,2
1523147451445213,-39,-21,-18,-17,-1,-2,1,-30
1523147451445213,-11,-4,-10,2,2,9,10,8
1523147451446644,-8,4,-1,-9,-1,-5,-9,36
1523147451446644,-6,5,5,0,-3,-3,6,-9
1523147451467867,-35,5,12,3,0,-2,-6,-9
1523147451467867,55,40,13,4,12,9,13,-14
1523147451469204,-44,-43,8,20,6,3,17,29
1523147451469204,39,9,12,5,-5,0,-11,-14
1523147451482060,-31,14,-19,-25,-13,-8,-13,44
1523147451482060,14,29,-1,-17,4,2,-1,-36
1523147451489715,-10,2,7,5,2,1,6,9
1523147451489715,26,-19,-4,5,-1,-2,2,-12
1523147451504124,-40,-27,7,23,6,8,6,-18
1523147451504124,71,50,-7,-13,-2,-6,-8,25
1523147451505124,-37,-10,-1,1,-3,-5,-16,6
1523147451505124,-46,6,-10,-15,-5,-2,1,-16
1523147451526731,28,-21,0,42,5,-1,-2,10
1523147451526731,-68,-18,12,-13,-9,-8,-7,14
1523147451527684,-29,-7,-16,6,3,-5,-8,-16
1523147451527684,26,1,-3,-16,0,8,12,8
1523147451541416,28,6,-4,-21,0,2,1,-3
1523147451541416,-26,-15,26,120,29,6,1,-13
1523147451549439,23,-14,-4,-75,-21,-6,-8,-4
1523147451549439,-13,-8,-12,86,-8,-6,-1,1
1523147451564480,25,4,3,-88,3,-5,-3,-8
1523147451564480,-30,-19,-18,28,-2,-4,-4,-8
1523147451565285,17,20,55,42,23,10,3,13
1523147451565285,-16,-4,-10,-76,-2,-1,-2,5
1523147451586842,-1,-2,-8,-58,-24,-9,-3,-8
1523147451586842,5,-6,9,60,11,5,-9,-15
1523147451587344,24,-12,-39,-12,-13,-15,-8,24
1523147451587344,12,7,16,-62,-7,2,9,-1
1523147451601480,10,-13,6,81,9,1,1,-26
1523147451601480,14,-5,-2,-84,6,4,0,-5
1523147451609406,-14,-14,-43,-49,-42,-17,-11,-8
1523147451609406,-35,-3,6,43,11,3,2,7
1523147451624633,24,-32,-10,29,-4,-4,-3,-5
1523147451624633,41,-8,-8,20,6,0,4,0
1523147451624942,-19,-10,-7,56,-5,-3,-5,-9
1523147451624942,-14,4,7,41,9,1,0,-12
1523147451647153,15,4,5,57,9,6,13,14
1523147451647153,-9,2,6,56,-7,8,3,3
1523147451647452,-6,-15,-34,-1,-7,-16,-13,-2
1523147451647452,-25,-17,-1,55,8,0,2,-7
1523147451670011,19,36,23,37,8,3,-6,16
1523147451670011,-13,-5,-40,0,-10,-7,-2,3
1523147451670514,14,10,11,-65,-12,7,5,-11
1523147451670514,-21,-9,2,4,6,2,0,15
1523147451684629,-30,13,-5,-4,-7,-7,-6,-7
1523147451684629,-16,-8,-12,-49,-16,-8,1,-4
1523147451685053,-21,-7,20,-13,20,5,1,-2
1523147451685053,12,-4,-9,-6,-15,0,0,-11
1523147451707143,4,-1,-8,-36,3,3,10,36
1523147451707143,-5,-15,-16,-16,-19,-9,-10,-6
1523147451707617,9,12,11,-9,25,8,5,3
1523147451707617,11,6,26,18,-3,-3,-4,4
1523147451730369,0,-12,-47,-4,-5,-1,2,-14
1523147451730369,-42,-41,-6,7,-9,-8,-5,-5
1523147451730674,-24,-39,3,54,3,7,3,9
1523147451730674,-12,3,-3,-22,-2,-2,-3,-14
1523147451744709,58,2,6,0,-5,-7,-14,3
1523147451744709,-19,-5,-23,-90,-9,-3,2,1
1523147451745213,43,26,9,20,-1,-1,4,-3
1523147451745213,-16,-13,-5,11,-3,1,-2,10
1523147451767012,-73,-23,14,31,2,-1,-5,9
1523147451767012,29,9,8,8,-1,0,0,5
1523147451767813,6,-4,-1,-18,-1,1,-2,-7
1523147451767813,3,2,-21,46,3,-6,0,-23
1523147451789302,22,29,30,14,-13,-10,-9,-15
1523147451789302,2,9,20,-13,4,-1,2,-9
1523147451797169,-9,0,-2,-19,-14,-5,-3,1
1523147451797169,-51,13,-9,-5,4,-3,-6,-17
1523147451804145,12,-10,-6,-22,-9,-4,-2,-21
1523147451804145,-27,-4,0,20,1,-2,-3,-4
1523147451805152,21,0,0,36,10,2,-2,3
1523147451805152,17,8,1,-36,-11,-4,-4,1
1523147451827206,2,2,-4,18,10,6,22,-4
1523147451827206,-30,18,-2,-10,-6,1,-10,35
1523147451827708,30,3,12,33,-1,0,-1,-9
1523147451827708,-12,-8,-4,17,-3,-6,-7,-5
1523147451850208,-6,1,-11,-52,-8,-2,-3,-9
1523147451850208,3,-1,0,19,0,-2,5,-10
1523147451850512,-1,15,-3,13,8,0,-2,38
1523147451850512,26,-6,1,5,-7,1,2,9
1523147451864553,-6,1,0,8,4,0,-2,-4
1523147451864553,0,1,5,47,6,1,2,-3
1523147451865051,7,1,9,-27,7,5,-4,-36
1523147451865051,16,-29,-8,-3,6,3,4,18
1523147451887112,-22,-44,-11,1,-5,0,-9,-20
1523147451887112,12,9,-2,-11,14,11,28,19
1523147451887611,-11,15,3,1,-9,-3,-9,-4
1523147451887611,34,-64,-6,-9,4,-4,1,-13
1523147451910285,20,67,24,-4,6,5,-12,-26
1523147451910285,14,-21,-22,-11,-8,-4,4,-34
1523147451910791,51,25,19,32,6,0,-10,53
1523147451910791,45,20,-3,-9,-6,-2,4,30
1523147451924428,52,-20,-9,0,-3,0,9,65
1523147451924428,3,-32,-17,-8,-3,-10,-21,-25
1523147451925325,23,24,-23,-6,0,-3,10,11
1523147451925325,30,7,23,-9,2,4,-3,-53
1523147451946989,25,-6,11,1,-2,0,5,110
1523147451946989,-19,17,7,3,-1,-1,-2,-10
1523147451947902,8,-36,-7,-6,-4,-1,0,6
1523147451947902,-9,-12,-5,4,8,2,6,11
1523147451969944,13,20,-17,-3,-7,-2,1,-37
1523147451969944,-1,1,6,-13,-4,-1,-19,-9
1523147451970947,-52,-6,-3,9,-3,1,7,-62
1523147451970947,-17,75,-1,-15,-5,-5,-10,48
1523147451984578,-43,-73,-19,-1,-4,-3,-8,-31
1523147451984578,2,-12,-14,-7,-9,-6,-2,-18
1523147451984984,27,-3,4,6,5,4,14,-7
1523147451984984,-52,34,11,-1,4,-1,-20,-13
1523147452007053,-12,11,1,1,1,3,6,-16
1523147452007053,15,13,6,-3,3,0,1,25
1523147452007544,-25,-9,7,-24,-2,3,5,-9
1523147452007544,-4,-27,-10,56,-3,-3,3,-6
1523147452030209,-25,15,14,59,6,0,-4,4
1523147452030209,9,-4,7,-32,1,3,3,-9
1523147452031107,-11,4,-15,-10,-9,-5,-5,8
1523147452031107,-63,-2,18,18,20,6,7,-4
1523147452044245,13,12,1,-92,-3,2,-2,-21
1523147452044245,2,4,5,103,14,-4,-4,19
1523147452045145,-13,-4,-6,-38,-24,-4,-1,-7
1523147452045145,30,14,8,-53,-2,-1,-4,14
1523147452067202,-24,-34,-4,95,0,-2,5,-43
1523147452067202,49,11,-9,-64,-7,0,-3,5
1523147452067704,-28,-3,3,-2,-2,-2,-7,0
1523147452067704,33,-6,12,81,16,5,5,-3
1523147452090265,1,-10,-16,7,-23,-6,4,13
1523147452090265,17,29,6,90,-8,0,-11,-33
1523147452090766,-8,-15,1,88,12,2,5,3
1523147452090766,40,-1,-23,-18,-9,-3,-1,8
1523147452104303,0,13,11,-92,2,1,-2,4
1523147452104303,-20,-19,6,25,-3,-1,1,2
1523147452105306,-6,-2,19,92,37,2,-1,2
1523147452105306,-21,-26,-25,-82,-19,-5,10,-8
1523147452126964,19,1,-12,-9,6,-1,-17,-2
1523147452126964,-58,-8,1,-42,5,2,3,3
1523147452127362,-4,22,29,88,0,-2,-9,-16
1523147452127362,-20,-13,-26,2,-16,-10,-4,-13
1523147452150071,-20,16,2,84,19,2,4,45
1523147452150071,24,3,3,23,-7,2,-2,-10
1523147452150572,32,27,-1,96,23,0,-2,7
1523147452150572,-17,-39,-24,46,-21,-9,-9,-30
1523147452164615,14,-19,-16,-48,-34,-14,-10,-8
1523147452164615,28,26,3,21,19,2,0,6
1523147452165113,-4,-16,9,-46,-7,1,0,2
1523147452165113,20,31,-4,-39,-3,1,-4,5
1523147452186669,-21,-3,12,70,18,5,10,-35
1523147452186669,27,-18,7,45,-8,-6,0,33
1523147452187672,-12,-7,-28,-32,-13,-5,-11,-5
1523147452187672,31,6,1,15,7,9,11,-5
1523147452209784,2,17,8,87,22,7,3,-1
1523147452209784,-21,-4,-6,-59,-11,-4,1,4
1523147452210787,-3,-14,-16,-72,-25,-6,-2,3
1523147452210787,3,-7,21,46,21,5,-1,9
1523147452224561,-3,1,9,59,13,3,1,11
1523147452224561,-39,19,8,52,-18,-3,-2,-19
1523147452225555,61,-17,-8,16,2,5,3,45
1523147452225555,40,-3,14,9,2,0,-1,3
1523147452246882,17,7,3,1,-7,-6,-8,-10
1523147452246882,-13,-13,-2,-45,-3,-1,0,-8
1523147452247383,-8,-5,-17,-68,-13,-3,0,-17
1523147452247383,-23,5,36,52,3,3,6,7
1523147452269188,-8,6,-26,64,24,3,0,3
1523147452269188,6,-10,-4,-70,-13,-8,-2,6
1523147452270190,-30,3,-1,-4,-6,-6,-4,1
1523147452270190,-1,-1,2,-51,-11,-4,-7,7
1523147452284514,25,8,5,26,9,2,0,-13
1523147452284514,0,-11,-11,35,6,2,2,0
1523147452285279,-30,-6,-23,-10,-7,-6,-7,12
1523147452285279,-20,-34,-11,51,10,0,-7,-21
1523147452307074,7,0,-7,-83,-26,-7,-1,55
1523147452307074,-7,1,-10,27,4,-2,3,-27
1523147452308011,2,0,11,-5,-5,1,-3,13
1523147452308011,-92,-1,7,66,16,3,0,-4
1523147452329394,3,21,-25,-121,-25,-6,-7,-15
1523147452329394,8,-5,2,-8,-1,2,2,-2
1523147452330397,-20,7,6,21,6,3,7,-1
1523147452330397,-4,14,-2,-28,-2,4,4,14
1523147452344171,3,4,12,-24,-6,-2,4,-10
1523147452344171,-25,-7,-5,16,5,-1,-1,9
1523147452351955,3,-2,-1,3,1,-2,-4,-25
1523147452351955,7,22,-16,-60,-9,-4,2,-1
1523147452367013,6,-8,11,-20,-9,-2,-5,-2
1523147452367013,-25,-7,-4,4,8,4,8,-27
1523147452367773,51,8,8,5,6,3,-2,22
1523147452367773,-3,3,1,-14,-16,-8,-15,11
1523147452389569,-35,5,2,12,0,-4,2,-40
1523147452389569,68,-11,6,-12,8,7,-1,40
1523147452390332,102,35,-7,-7,-8,-2,5,2
1523147452390332,14,36,10,-11,8,-2,2,2
1523147452404393,29,-1,5,14,-2,6,5,-8
1523147452404393,-11,14,13,1,-6,-6,-1,42
1523147452405151,-117,9,3,-13,-3,-1,-11,-71
1523147452405151,1,-9,-21,3,1,-2,-13,-58
1523147452426944,-11,-39,11,-1,4,-2,2,56
1523147452426944,-4,-52,-28,-16,-8,-7,-1,2
1523147452427717,-4,12,-7,-2,-5,-2,6,-25
1523147452427717,-34,9,13,-4,-3,-1,-3,-1
1523147452449704,-16,11,13,14,5,4,3,-28
1523147452449704,14,-12,-1,-9,-1,1,1,25
1523147452450012,-78,-70,2,22,3,-1,1,6
1523147452450012,-63,-12,-18,-34,-16,-8,-11,-29
1523147452464629,-27,19,-16,-1,-1,2,11,-9
1523147452464629,-16,2,9,0,2,-2,-14,-17
1523147452465051,-7,-12,-3,8,-1,-1,3,15
1523147452465051,46,-11,-7,-1,-2,1,9,3
1523147452487169,2,-1,-8,16,3,0,-13,-28
1523147452487169,-15,27,-7,-47,-5,-5,0,-24
1523147452487613,-9,-34,23,23,12,8,2,7
1523147452487613,43,-8,14,24,5,4,7,21
1523147452509365,-75,15,-3,-38,-7,-4,-9,3
1523147452509365,-2,4,8,99,13,0,1,-21
1523147452510171,21,-7,-33,-119,-26,-9,-4,10
1523147452510171,44,23,-1,-36,2,2,0,11
1523147452524405,6,-7,2,-9,-9,-3,2,11
1523147452524405,36,12,-6,80,-2,-3,-5,2
1523147452525212,23,16,-9,-1,18,4,0,4
1523147452525212,-7,-13,-15,43,-14,-8,4,15
1523147452546967,-8,-15,-22,-41,-39,-10,-6,-8
1523147452546967,6,14,12,81,3,3,3,-2
1523147452547948,14,-1,11,72,11,0,-1,-23
1523147452547948,9,12,13,21,12,5,3,7
1523147452569331,38,-26,0,8,0,-3,4,64
1523147452569331,-15,15,5,-37,3,3,6,4
1523147452569831,36,15,8,15,-4,-2,-4,-8
1523147452569831,-8,-15,-4,14,4,-1,-7,-16
1523147452583994,27,-1,-2,-14,-4,-2,1,-5
1523147452583994,-7,2,13,23,11,3,7,2
1523147452592086,-1,10,11,-8,10,5,-4,1
1523147452592086,13,-14,-19,-54,-39,-11,-1,18
1523147452607127,15,10,14,59,19,-1,-9,-24
1523147452607127,7,-3,2,1,-1,3,-1,-4
1523147452607429,-24,-4,1,70,1,0,2,-8
1523147452607429,-12,-33,-4,127,8,1,-1,-9
1523147452630055,26,7,-11,-2,4,1,-2,-4
1523147452630055,-27,-3,3,-9,-7,-2,-7,1
1523147452630491,-3,-9,-5,30,12,0,5,6
1523147452630491,41,3,-8,-18,-4,-3,5,46
1523147452643527,-16,2,6,28,4,-1,3,-49
1523147452643527,-25,-17,5,-12,15,10,-6,46
1523147452652049,-11,31,-11,-50,-31,-14,-8,-4
1523147452652049,0,-7,6,-44,4,0,-4,2
1523147452667141,11,-1,10,14,7,2,-1,-19
1523147452667141,57,13,-15,-66,-12,-1,3,-2
1523147452667591,-20,-8,-4,13,-5,-3,2,-2
1523147452667591,5,31,12,25,10,1,-3,-6
1523147452689345,-72,-39,15,-21,-7,-3,-2,9
1523147452689345,-1,6,10,-69,-18,-4,2,-15
1523147452690346,-2,-14,-15,-39,0,-1,0,9
1523147452690346,-38,-19,4,21,7,2,-2,-13
1523147452703687,17,1,-12,14,2,1,-1,9
1523147452703687,5,-3,7,4,-5,-5,-4,-11
1523147452711904,-13,-4,0,-18,-9,-2,-1,-7
1523147452711904,-27,-11,-5,-33,4,1,0,16
1523147452726748,-10,7,0,-16,-1,2,1,-7
1523147452726748,-6,-31,-20,27,2,-2,-3,17
1523147452727751,25,8,3,23,-6,-3,2,7
1523147452727751,-6,4,-1,-32,-12,-4,-3,-15
1523147452749327,28,13,-39,32,5,-1,7,22
1523147452749327,-63,10,5,2,-3,-4,-6,-13
1523147452750330,1,-1,2,1,3,-3,-6,0
1523147452750330,20,-9,-2,16,2,1,1,0
1523147452763997,0,16,21,-33,2,1,-4,1
1523147452763997,0,-9,-69,-48,-21,-7,3,-13
1523147452772129,-4,7,-2,44,11,4,5,19
1523147452772129,-9,7,11,-4,1,5,7,-8
1523147452787167,-1,-11,-2,24,3,2,-3,-1
1523147452787167,18,0,10,7,1,0,-1,-1
1523147452787428,-8,-11,-18,-48,-18,-11,-8,-9
1523147452787428,10,0,0,-25,2,2,6,-25
1523147452809660,-11,0,3,3,0,-1,1,14
1523147452809660,19,-3,5,-4,5,2,-8,-11
1523147452810491,-3,12,7,12,-1,-4,-1,4
1523147452810491,-11,-4,-25,-10,-3,-4,-5,-9
1523147452824057,16,-9,8,16,-4,-5,-4,-5
1523147452824057,-8,4,-1,-13,-6,-4,-3,-11
1523147452832213,-2,-14,-5,-3,4,3,2,2
1523147452832213,7,-19,-11,13,2,1,0,5
1523147452847183,-21,25,-9,-37,-1,1,-4,-15
1523147452847183,31,-1,-9,-1,-2,-1,-7,5
1523147452847588,-18,-11,-5,33,4,0,3,0
1523147452847588,15,-8,10,-38,-7,-9,-16,-25
1523147452869428,64,-2,-14,3,-14,-12,-6,31
1523147452869428,7,33,4,25,10,1,6,-42
1523147452869930,12,18,6,1,-5,0,-10,-11
1523147452869930,-7,18,11,20,4,2,5,5
1523147452883966,18,-5,-21,-15,-4,-1,24,-10
1523147452883966,1,3,6,-23,-10,-12,-25,-4
1523147452891988,41,16,19,-10,3,2,3,-8
1523147452891988,-1,4,14,2,-2,0,2,41
1523147452906999,93,-23,12,1,0,2,-6,25
1523147452906999,-47,-7,13,4,1,0,5,-24
1523147452907970,36,23,9,-8,-1,-1,0,59
1523147452907970,-60,-61,12,16,1,-4,1,20
1523147452929604,-82,-5,-29,-2,-5,-3,-16,-57
1523147452929604,42,13,23,12,7,3,1,1
1523147452930106,36,18,9,-9,-1,-5,-12,42
1523147452930106,18,45,-2,-2,-2,1,11,-33
1523147452952666,-33,-23,-17,5,-1,-4,0,4
1523147452952666,-32,-43,-17,-11,-5,-4,-9,-22
1523147452953167,-10,-2,4,2,0,0,1,-10
1523147452953167,32,26,9,-1,3,6,2,13
1523147452966905,-3,17,28,13,8,3,-1,-25
1523147452966905,-23,-2,-25,-12,-3,-3,4,24
1523147452967707,-11,-7,12,74,11,1,2,-18
1523147452967707,3,-11,-54,-70,-24,0,1,17
1523147452989580,-60,-8,15,105,8,1,-5,-7
1523147452989580,23,1,10,39,15,4,10,12
1523147452990008,-9,-25,-20,-12,-11,-5,-2,-26
1523147452990008,5,-3,10,74,14,0,-7,3
1523147453012764,4,6,5,-64,-16,-3,2,-6
1523147453012764,0,4,-3,67,-3,-3,0,26
1523147453013070,-7,-1,0,-92,5,7,5,-14
1523147453013070,-13,9,14,15,-13,-2,-7,-15
1523147453027051,16,-4,0,23,6,-3,1,11
1523147453027051,1,6,15,-21,14,-1,2,-2
1523147453027850,4,-7,5,23,-7,1,1,4
1523147453027850,28,5,10,55,-6,1,4,-10
1523147453049603,-27,-14,-40,-39,-26,-9,-9,8
1523147453049603,36,-5,1,52,-3,4,19,-42
1523147453050409,-37,5,0,52,13,3,-7,-7
1523147453050409,-24,1,9,-24,-7,-5,-2,2
1523147453072669,67,3,-1,-5,6,5,2,10
1523147453072669,-13,-13,-18,-57,-12,-7,-6,-2
1523147453073472,-2,0,-2,-21,-7,3,5,-11
1523147453073472,-5,-1,12,99,30,3,1,-18
1523147453087128,-7,5,-3,-107,-17,-5,-2,-2
1523147453087128,0,17,10,49,0,3,0,18
1523147453087509,6,-25,-6,-46,-16,-1,1,-2
1523147453087509,-7,-5,-16,40,2,-3,-9,0
1523147453109262,0,8,15,66,14,4,4,3
1523147453109262,8,8,6,-31,11,4,1,16
1523147453110068,-29,-17,-18,-49,-22,-6,-1,-12
1523147453110068,19,-15,-19,-76,0,-1,1,-9
1523147453132786,28,12,53,108,16,6,-3,-3
1523147453132786,-28,-10,-39,-40,-24,-9,-5,0
1523147453133132,-7,5,5,76,14,-4,-2,-30
1523147453133132,22,21,-5,-49,-8,-6,-1,45
1523147453146665,-12,5,-22,36,9,-2,-11,-14
1523147453146665,-10,-41,10,-38,-1,4,-3,43
1523147453147669,23,0,-22,44,1,-3,-4,-7
1523147453147669,-31,-2,-7,-45,-12,-5,-4,-31
1523147453169226,-47,-8,0,-13,1,-1,5,29
1523147453169226,42,26,15,24,3,0,-1,-10
1523147453170228,0,-7,-5,-7,-2,-1,5,6
1523147453170228,5,-6,21,13,8,3,0,-3
1523147453192817,2,1,-10,-27,-3,0,2,3
1523147453192817,-36,0,0,32,-8,-2,-2,-10
1523147453193290,-3,-3,8,-7,13,6,5,6
1523147453193290,11,11,-4,-13,-4,-6,-3,-8
1523147453206826,10,-7,34,13,0,0,1,-4
1523147453206826,33,12,10,59,13,2,1,8
1523147453207829,-4,5,-7,-87,-16,0,0,3
1523147453207829,-7,-5,5,12,2,2,-4,-22
1523147453229586,-24,-15,-27,-6,-6,-6,1,43
1523147453229586,-26,-4,4,0,2,1,0,-29
1523147453230086,36,10,15,29,10,0,1,3
1523147453230086,6,55,11,50,-4,-6,-10,39
1523147453252647,21,-31,-32,-94,-36,-14,-6,-22
1523147453252647,-36,-9,8,13,11,5,15,-8
1523147453253649,22,47,-8,4,-4,-2,-13,13
1523147453253649,-55,-15,2,19,2,0,1,-26
1523147453266845,-3,18,23,29,12,4,-2,-5
1523147453266845,-4,-5,-25,-90,-23,-6,-6,4
1523147453267686,-24,-20,-10,1,-4,-3,9,-16
1523147453267686,9,1,1,19,3,1,-9,41
1523147453289682,1,10,9,37,6,2,-3,-14
1523147453289682,4,-5,0,-17,4,1,1,1
1523147453290187,-18,-9,-11,-11,-10,-8,-5,-7
1523147453290187,-2,-31,-32,-32,-5,0,1,-31
1523147453312776,-7,-9,-6,14,1,-2,3,13
1523147453312776,43,23,-8,17,4,2,-2,18
1523147453313247,3,1,18,31,10,3,7,12
1523147453313247,8,-19,7,1,-10,-6,-14,-18
1523147453326939,20,-7,-20,-25,-4,0,6,-40
1523147453326939,64,3,-10,-7,-7,-6,3,21
1523147453327786,-1,4,3,10,4,-2,5,-1
1523147453327786,19,-9,13,2,-3,-3,-1,-6
1523147453349606,7,-6,2,23,5,-1,0,-17
1523147453349606,-61,-35,4,-27,-3,2,-9,2
1523147453350053,-10,-28,-9,26,3,1,2,0
1523147453350053,-9,-3,-25,7,1,-1,8,-9
1523147453372615,-7,21,20,-18,3,1,-7,1
1523147453372615,46,6,-9,-1,-9,-3,1,-28
1523147453373381,-24,24,-7,-10,-4,0,-8,28
1523147453373381,3,-12,13,4,3,1,13,38
1523147453386916,-21,14,16,10,6,3,-12,-17
1523147453386916,-36,-34,-21,-6,-1,-3,7,46
1523147453387976,69,19,7,6,0,-1,-11,14
1523147453387976,55,-8,-10,-13,-2,4,15,24
1523147453409380,-20,-37,3,-5,-12,-9,-1,27
1523147453409380,-3,2,7,4,0,-2,-6,3
1523147453410147,81,6,11,13,1,-4,7,18
1523147453410147,2,-5,-4,-7,-1,1,-6,27
1523147453432745,-33,40,-4,-6,-1,-1,8,-35
1523147453432745,-10,1,10,7,-2,-1,-10,-27
1523147453433207,-40,-35,-11,-9,-1,-2,1,0
1523147453433207,32,38,10,-8,5,3,-4,-8
1523147453447244,40,-16,-8,-11,-7,-2,4,1
1523147453447244,-30,-14,7,23,-2,-5,-15,-10
1523147453447747,-32,-7,12,-12,2,2,5,-26
1523147453447747,-15,14,8,13,4,5,12,-24
1523147453469334,22,5,-5,-8,5,5,-12,43
1523147453469334,-42,5,-14,-3,-7,-3,-2,-66
1523147453470338,33,-11,-5,11,-8,-8,-16,62
1523147453470338,-21,-1,-1,-36,-9,-6,-12,-29
1523147453492632,11,6,5,29,11,1,3,7
1523147453492632,11,15,4,-35,-4,6,3,12
1523147453493398,-27,2,1,1,4,-2,3,-36
1523147453493398,-2,-5,-14,-68,-9,-2,-2,7
1523147453507172,4,2,2,30,4,4,4,-1
1523147453507172,8,1,18,59,10,-4,-1,-5
1523147453507434,-37,-23,17,-71,-8,-1,0,-3
1523147453507434,-10,-5,-15,50,10,2,1,-7
1523147453529655,-41,5,-12,-24,-6,-5,-7,-13
1523147453529655,7,1,-22,-26,-29,-8,-5,9
1523147453529995,-2,24,10,47,14,8,-5,-17
1523147453529995,-12,-13,6,68,-4,-3,-4,-9
1523147453552555,13,8,3,-13,1,0,1,-2
1523147453552555,8,14,23,8,22,9,9,18
1523147453553618,-31,-17,-24,12,-5,-10,-3,-37
1523147453553618,-47,-47,-5,-23,-12,-11,-31,23
1523147453566325,17,-4,8,-4,-2,2,2,-3
1523147453566325,1,-1,-8,-22,-2,-5,-1,7
1523147453574708,-26,-10,-1,-65,-15,-3,-2,-14
1523147453574708,1,20,10,16,13,-3,0,-16
1523147453589684,-1,-17,-7,0,-25,-6,6,2
1523147453589684,-48,-6,3,113,12,0,-3,1
1523147453590183,-33,2,-4,38,13,6,5,-4
1523147453590183,19,46,6,46,-7,-4,0,39
1523147453612909,32,5,1,47,5,1,-3,0
1523147453612909,19,12,19,-128,-21,0,-2,-4
1523147453613243,35,-10,-36,106,7,-5,3,-17
1523147453613243,-4,-10,-30,35,11,2,3,-14
1523147453626278,-5,3,8,58,3,-1,-2,2
1523147453626278,-41,-18,-17,-87,-15,-1,4,-20
1523147453634299,38,38,9,10,-15,-6,-2,65
1523147453634299,-2,-44,-3,-12,0,0,-8,-24
1523147453649340,5,0,10,-2,5,-1,1,-8
1523147453649340,16,2,0,81,11,2,3,10
1523147453649841,-16,-9,-12,24,-19,-4,1,-29
1523147453649841,-12,-19,-6,31,15,0,-4,5
1523147453672640,3,0,-10,-44,-14,-1,-5,8
1523147453672640,16,2,17,67,23,4,4,4
1523147453673404,11,-17,-14,-90,-13,-1,-6,-11
1523147453673404,-3,18,9,-2,-12,-4,3,-16
1523147453686119,8,0,-4,18,21,6,12,1
1523147453686119,6,4,-5,-12,-9,-4,-8,-3
1523147453694677,16,12,23,74,9,2,0,4
1523147453694677,-15,-8,-23,-22,-9,-2,4,-19
1523147453709369,-30,-6,-1,-1,3,2,8,-2
1523147453709369,43,29,8,37,5,0,-5,24
1523147453710132,-15,9,31,28,0,2,-3,-4
1523147453710132,7,-26,-20,-95,-20,-7,3,-9
1523147453731689,-46,-13,-6,-1,-3,-3,0,-33
1523147453731689,25,27,-1,4,1,-1,-6,4
1523147453739763,50,-21,35,35,17,6,-1,-19
1523147453739763,4,17,-21,-48,-30,-7,-2,38
1523147453746467,-2,23,-14,13,3,-5,-3,-11
1523147453746467,-3,-3,-12,14,-13,-7,-7,10
1523147453754750,0,-13,-5,-6,4,-1,-2,-5
1523147453754750,69,-16,7,45,7,10,10,-10
1523147453769290,-13,-7,-5,-65,-26,-6,-6,-5
1523147453769290,-15,-3,9,46,17,0,-2,2
1523147453770293,-4,-9,-10,8,1,5,13,8
1523147453770293,-7,-5,5,29,14,1,-3,16
1523147453792858,2,-22,3,-24,-14,-2,-8,-15
1523147453792858,-18,-9,-11,19,-4,-7,4,-5
1523147453793353,-36,-25,-6,9,3,0,0,31
1523147453793353,4,12,32,10,13,7,5,-15
1523147453806514,-6,7,-5,-32,-5,-4,-6,-5
1523147453806514,-8,-12,21,-18,-1,-2,6,-5
1523147453814409,-10,14,-33,-109,-12,2,-6,-5
1523147453814409,-39,-6,-21,-52,-10,-14,-4,-8
1523147453829667,35,-55,-13,43,3,-3,-7,11
1523147453829667,-18,-12,5,5,0,1,-3,3
1523147453829951,-11,21,6,14,3,-2,-10,-7
1523147453829951,-20,2,20,10,13,5,5,-11
1523147453852511,86,18,-14,10,-4,-3,-1,9
1523147453852511,-21,14,-6,-6,1,1,-10,3
1523147453853012,9,0,-3,10,2,1,12,-18
1523147453853012,-6,-7,2,19,1,1,-4,7
1523147453875071,-13,6,8,71,10,3,3,5
1523147453875071,11,-19,-29,-36,-13,-4,5,-19
1523147453875572,-62,35,1,9,4,-2,-16,28
1523147453875572,-17,-9,1,2,-5,-2,0,5
1523147453889681,-17,0,18,32,6,-1,0,18
1523147453889681,6,0,12,-30,-13,-1,-1,-20
1523147453890110,-21,-23,-43,-80,-12,-11,-5,-11
1523147453890110,30,84,-1,23,-1,-4,-5,-17
1523147453912885,37,30,17,-10,3,2,11,26
1523147453912885,-7,-43,-2,13,0,0,-17,-15
1523147453913183,-15,1,15,37,-3,-1,3,14
1523147453913183,5,18,4,-32,-1,1,0,-29
1523147453934775,-50,4,-6,-23,-11,-3,10,-12
1523147453934775,13,-5,-18,9,5,4,11,28
1523147453935745,-24,-26,20,21,3,0,6,2
1523147453935745,6,-24,-26,-15,-6,-5,-13,2
1523147453949693,-21,-63,13,-8,-6,-2,-12,5
1523147453949693,36,44,8,-4,6,4,6,40
1523147453950052,80,30,-23,-10,-6,-7,-13,-55
1523147453950052,-92,-83,-17,5,-9,-10,5,1
1523147453972611,-14,57,3,-11,10,3,-8,-7
1523147453972611,-39,6,-22,2,5,3,14,-11
1523147453973615,0,-9,33,4,-8,-3,8,6
1523147453973615,74,6,-28,-2,-11,-12,-28,-49
1523147453995170,-29,23,-13,-2,-1,-3,-14,-1
1523147453995170,-22,9,-7,-15,-2,-3,0,-21
1523147453995672,-12,5,24,8,5,9,7,-8
1523147453995672,56,27,43,22,8,9,29,50
1523147454017759,-27,-23,-4,-2,5,0,-5,-48
1523147454017759,43,27,-21,-6,-4,-3,-6,-15
1523147454018233,-80,-40,-20,-8,-2,1,-7,97
1523147454018233,58,9,20,79,16,4,2,-2
1523147454032888,32,-19,-41,-54,-19,-6,2,4
1523147454032888,-20,-6,11,31,4,-1,5,1
1523147454033272,21,-4,-15,50,2,-2,1,-35
1523147454033272,-58,-10,-20,-49,-3,0,-3,11
1523147454054830,6,12,13,-24,6,-1,0,11
1523147454054830,-7,-26,-3,-38,-23,-14,-10,-22
1523147454055833,9,-3,-16,-43,19,-6,-8,-9
1523147454055833,-4,11,31,40,-27,14,16,7
1523147454069129,-15,-15,-15,-34,1,-3,-24,13
1523147454069129,10,-12,-5,-42,-26,-14,-20,3
1523147454070132,26,12,9,34,19,4,4,4
1523147454070132,-35,-7,-32,-41,-36,-8,-9,-16
1523147454092915,-3,-13,14,39,5,-2,-4,8
1523147454092915,7,-2,2,51,-7,3,-1,10
1523147454093194,6,14,-3,6,3,-8,-6,-18
1523147454093194,10,-54,-12,13,11,-4,-3,-2
1523147454114923,5,-26,6,36,5,6,6,-5
1523147454114923,7,-1,27,-25,19,2,4,9
1523147454115754,-2,21,-57,13,-29,-1,4,-17
1523147454115754,-62,-29,7,21,1,-10,-13,-27
1523147454129528,74,7,-6,14,-4,0,3,43
1523147454129528,11,24,27,34,23,6,3,-1
1523147454130493,-10,-23,-17,22,2,4,0,-1
1523147454130493,-17,20,-6,4,-10,-4,0,-19
1523147454152350,-55,9,3,60,2,-2,1,-19
1523147454152350,9,-9,-1,26,13,3,2,11
1523147454153354,-1,-4,18,31,6,1,-2,-12
1523147454153354,21,25,8,-39,1,1,-3,8
1523147454175091,-13,-17,2,20,0,1,3,-10
1523147454175091,1,-16,7,38,-8,3,11,-12
1523147454175913,14,-17,38,52,17,3,-3,6
1523147454175913,-23,2,-17,-34,-17,-4,-8,-8
1523147454189689,2,11,-21,118,10,3,3,7
1523147454189689,-76,44,-6,57,6,3,8,-5
1523147454190542,62,20,15,-17,-11,-7,-12,-13
1523147454190542,-42,1,-2,-34,17,5,1,17
1523147454212749,-7,-5,10,-7,1,-1,12,-1
1523147454212749,16,7,-4,-51,-8,-1,-10,-18
1523147454213690,23,19,3,-23,-2,2,1,46
1523147454213690,7,16,-2,68,20,0,3,-16
1523147454235071,8,11,2,-22,15,4,0,1
1523147454235071,15,-25,-23,-39,-66,-11,-2,1
1523147454235572,16,-12,-11,97,4,-2,3,0
1523147454235572,12,8,20,127,27,6,9,0
1523147454249666,-49,-14,-2,-111,-42,-11,-3,-11
1523147454249666,-30,-45,4,52,24,4,0,1
1523147454250110,-16,6,-5,-84,-12,-4,4,-36
1523147454250110,13,3,-8,-41,-6,-3,0,8
1523147454272671,-24,5,49,33,24,8,-4,-19
1523147454272671,15,-6,-14,-22,2,-2,2,20
1523147454273686,-38,-9,-11,-34,-13,-3,0,-16
1523147454273686,35,-24,20,14,14,3,12,14
1523147454295814,31,-8,-15,-37,-14,-2,-6,8
1523147454295814,17,-14,6,39,13,-1,-6,-17
1523147454297460,-56,-28,-6,-74,-24,-9,-9,17
1523147454297460,44,27,8,-45,-10,-2,-1,-8
1523147454309508,16,-22,-11,47,6,0,5,11
1523147454309508,5,27,-8,13,4,-3,-3,-3
1523147454310271,9,6,14,15,13,2,-4,-6
1523147454310271,-4,6,10,13,-8,-8,-8,8
1523147454332889,-3,2,-57,-100,-45,-5,4,-6
1523147454332889,-11,-14,-4,43,-7,-10,-5,-10
1523147454333333,30,34,-4,22,2,0,3,41
1523147454333333,-35,-24,4,26,5,0,4,22
1523147454354889,-16,8,-7,28,9,-1,-10,-19
1523147454354889,8,16,7,-54,-4,0,5,5
1523147454355892,-36,-23,3,4,-5,0,1,-25
1523147454355892,77,0,-14,-30,-4,-1,3,22
1523147454369429,-2,45,39,17,16,5,6,-23
1523147454369429,11,16,-16,-26,-5,-2,-3,3
1523147454370470,60,13,-4,13,-1,0,7,-2
1523147454370470,45,-5,4,15,10,3,-7,0
1523147454392727,-22,-9,-3,15,10,9,5,-6
1523147454392727,75,-5,-3,5,-2,0,-3,-58
1523147454394589,-8,-41,-32,-14,-6,-8,-2,53
1523147454394589,-26,35,-9,-16,-10,-2,-2,-3
1523147454415089,29,-4,-17,-3,-2,-8,2,41
1523147454415089,-52,-35,-18,-16,-12,-7,-23,-15
1523147454416592,35,-26,-8,1,5,5,15,9
1523147454416592,-87,-10,-9,-6,6,8,-4,-4
1523147454428819,-15,-6,15,18,3,-5,-15,-5
1523147454428819,2,12,-6,2,3,0,7,15
1523147454437649,-28,-41,-1,-6,-9,-4,-13,-37
1523147454437649,-23,-4,-3,15,4,2,16,31
1523147454452425,0,23,10,9,0,0,-1,-10
1523147454452425,16,-27,12,-1,8,1,-2,12
1523147454454247,-8,13,16,8,0,2,2,-29
1523147454454247,3,7,16,13,7,5,8,-12
1523147454474918,8,22,-9,-5,-6,-8,-8,-2
1523147454474918,34,-3,-1,-7,2,0,3,30
1523147454476807,-20,21,-20,-26,-8,-6,0,-26
1523147454476807,-60,-29,-15,25,-1,-4,-17,-67
1523147454488838,10,-1,11,65,7,1,3,13
1523147454488838,-66,1,-24,-71,-24,-6,-6,-9
1523147454497979,80,30,29,25,11,4,8,38
1523147454497979,5,9,-4,-11,-9,-2,-6,0
1523147454512401,-36,-51,13,70,17,0,-7,-8
1523147454512401,11,18,-19,-62,-4,-1,1,1
1523147454514417,-29,-9,-5,-8,-32,-13,-4,-11
1523147454514417,10,4,20,53,0,-1,-5,11
1523147454534961,23,2,11,68,30,11,5,10
1523147454534961,-32,-9,-13,-45,-39,-10,5,2
1523147454536465,14,34,-15,47,2,-1,-9,-29
1523147454536465,17,-1,19,44,18,3,0,-1
1523147454548732,13,2,-13,59,-27,-11,1,3
1523147454548732,4,2,35,-3,31,5,4,-4
1523147454557520,-51,-6,-2,19,8,7,7,-28
1523147454557520,-6,41,22,-48,-4,0,-20,9
1523147454572824,-40,-3,-6,59,-3,1,0,-16
1523147454572824,-21,11,-24,-24,-4,-8,4,-16
1523147454574571,1,44,28,15,7,5,6,11
1523147454574571,-2,-3,-6,-31,4,-1,2,-1
1523147454594883,3,-14,-12,-110,-37,-8,-3,4
1523147454594883,21,27,-7,39,-4,-5,-6,-5
1523147454596948,-32,-3,-13,35,5,-5,-6,7
1523147454596948,26,-9,-4,16,-10,-3,2,-3
1523147454608523,13,-1,-5,-18,-1,-4,-1,3
1523147454608523,49,3,0,-6,6,5,5,7
1523147454617623,1,-8,28,26,10,4,-5,5
1523147454617623,-52,-38,-34,74,-25,-9,-2,-2
1523147454632891,-40,7,13,-8,12,6,1,-12
1523147454632891,17,-9,15,127,8,2,-1,14
1523147454634166,6,-13,-25,-13,6,1,-7,4
1523147454634166,-36,-8,6,-4,4,-2,-1,-14
1523147454655297,1,0,-3,4,-8,1,4,16
1523147454655297,17,-17,13,63,33,5,-2,-15
1523147454656728,-26,8,-23,-107,-38,-9,-3,-33
1523147454656728,24,-23,10,-1,1,-1,2,16
1523147454668759,2,0,-9,-29,4,1,-4,3
1523147454668759,50,39,25,48,16,8,-1,4
1523147454677783,2,21,28,6,-14,-3,-5,-23
1523147454677783,30,20,-22,-77,-4,-3,-9,12
1523147454692917,-37,-2,-1,-29,-3,-9,-5,-11
1523147454692917,-27,-15,11,11,6,5,1,10
1523147454694549,-5,-8,42,127,39,6,-2,10
1523147454694549,-10,-7,-57,-95,-63,-13,0,-13
1523147454714881,28,-15,7,51,1,-3,-2,17
1523147454714881,-26,-6,-16,30,-2,1,-1,1
1523147454716384,-7,-1,4,21,14,1,2,8
1523147454716384,1,-9,-6,-49,-1,-3,0,-5
1523147454729040,17,-3,-9,-64,-3,-1,1,6
1523147454729040,-36,-24,-3,-41,-15,-1,4,-1
1523147454737492,68,12,-15,-12,-8,-2,-10,41
1523147454737492,-25,-2,15,25,18,2,0,-9
1523147454752532,31,14,-16,-34,6,1,4,-6
1523147454752532,-19,-8,-9,19,-8,-3,0,-8
1523147454754036,29,-33,-30,-89,-23,-9,1,3
1523147454754036,8,7,12,66,18,3,5,-6
1523147454774789,-8,-36,2,27,-1,0,-10,-16
1523147454774789,-23,-6,5,21,6,-3,-7,6
1523147454776795,-29,-6,-11,2,-6,-1,4,-6
1523147454776795,24,-4,-21,65,7,-3,1,1
1523147454788852,15,-8,6,-10,7,4,16,-1
1523147454788852,7,7,9,8,1,-2,-17,-12
1523147454797636,39,-33,-2,32,-2,0,-2,22
1523147454797636,41,-7,39,77,18,12,11,5
1523147454811673,1,18,-28,22,-10,-11,-9,-4
1523147454811673,-13,-9,-6,22,2,1,1,-14
1523147454820195,-42,1,6,9,2,-4,1,29
1523147454820195,0,16,25,-10,11,3,-3,10
1523147454834736,6,4,-21,-45,-11,-3,-3,-18
1523147454834736,11,-10,-1,-65,-13,-4,1,8
1523147454836740,-24,1,-4,28,17,5,-3,-20
1523147454836740,1,9,3,-59,-12,-4,5,7
1523147454857908,-2,19,15,1,-5,2,3,2
1523147454857908,26,-46,-17,-9,-7,-8,-19,-20
1523147454859537,-48,-16,-10,-19,-2,0,-3,-27
1523147454859537,-74,-3,-19,-2,-5,-6,-5,9
1523147454872568,14,-8,3,6,0,3,3,-7
1523147454872568,-27,5,6,4,4,3,2,0
1523147454874340,26,20,10,0,-1,-2,4,-9
1523147454874340,58,3,-15,-14,-4,-5,-15,38
1523147454894895,17,-9,16,1,-2,-3,-8,-31
1523147454894895,3,24,-4,-5,1,3,10,24
1523147454897005,-43,-29,5,-16,-7,-6,-13,-52
1523147454897005,-29,25,-12,2,-5,-4,-2,27
1523147454917455,-30,5,11,4,11,8,17,-40
1523147454917455,70,-66,-6,-2,-11,-11,-2,100
1523147454918958,64,71,9,-2,-8,-7,-25,6
1523147454918958,-89,-18,5,7,1,-2,3,-7
1523147454932651,-42,3,-44,-33,-7,-7,-8,-37
1523147454932651,25,-52,-4,-11,-16,-14,-20,-40
1523147454933999,86,3,12,5,14,16,29,92
1523147454933999,-51,-32,-9,16,4,-1,0,-65
1523147454955054,-60,-26,-20,-9,-3,-6,6,12
1523147454955054,-73,27,-5,-3,-6,-6,-52,-4
1523147454956558,-3,-33,2,2,-4,-2,-4,-10
1523147454956558,82,0,51,78,23,14,22,-5
1523147454977775,6,22,-8,-68,-15,-2,2,26
1523147454977775,-35,-7,7,35,13,9,30,-36
1523147454979120,0,6,-3,-1,-4,-4,-7,9
1523147454979120,16,-18,-18,4,-7,6,-3,30
1523147454992181,-10,-11,26,47,20,0,-1,-5
1523147454992181,-8,25,-12,-23,-2,1,10,8
1523147454998937,-22,-16,-17,-18,-8,-5,-3,-19
1523147454998937,26,10,-29,-5,-7,-4,1,-11
1523147455015011,7,13,14,61,-8,0,-11,23
1523147455015011,4,-57,1,17,9,3,11,-5
1523147455016418,-34,-2,19,92,-1,1,-2,-11
1523147455016418,-3,-17,-33,-81,0,-23,-17,-20
1523147455037501,22,9,33,52,9,15,4,23
1523147455037501,-19,43,-12,28,-1,0,7,-1
1523147455039505,-15,-12,-2,-83,-18,5,10,-14
1523147455039505,-35,9,20,-37,-1,11,10,-12
1523147455051037,28,57,21,48,28,-8,-17,3
1523147455051037,-39,13,-9,-8,-23,-4,6,7
1523147455060060,-4,-5,-12,32,28,-3,-3,-1
1523147455060060,4,-18,-7,-63,-64,-11,12,-16
1523147455075135,34,-16,-11,-34,7,2,-13,26
1523147455075135,66,22,13,50,13,0,-12,-50
1523147455076641,-5,12,-22,33,11,1,5,36
1523147455076641,2,5,1,-100,21,-10,-19,-18
1523147455098217,-1,-9,17,75,-31,11,11,4
1523147455098217,-5,1,-28,-68,-1,-8,3,6
1523147455099714,-29,-5,-40,-76,-32,-11,-8,-20
1523147455099714,23,-20,11,70,20,-1,-8,4
1523147455111888,14,-10,-35,-19,-2,-2,6,4
1523147455111888,-10,17,-21,-49,3,4,0,7
1523147455118908,-16,-8,-11,-68,-32,-7,-3,-17
1523147455118908,-17,20,-3,79,18,3,-4,6
1523147455134798,-10,-22,-19,-75,-21,-12,-4,-10
1523147455134798,18,11,28,34,13,11,10,7
1523147455136836,-30,-2,6,47,9,-2,0,-15
1523147455136836,3,12,-31,25,-14,-5,-6,34
1523147455157511,-18,-39,7,-22,-7,-4,-7,-12
1523147455157511,8,13,30,97,20,4,6,5
1523147455159415,7,-5,18,-96,-15,2,4,-7
1523147455159415,18,-5,-12,54,-7,-12,-32,-11
1523147455172554,28,22,2,29,9,-1,5,8
1523147455172554,-26,2,10,72,28,4,1,10
1523147455178958,-39,-18,-26,-38,-62,-13,-11,-23
1523147455178958,-18,4,-13,72,-3,7,10,-14
1523147455195121,-6,6,-1,35,9,0,0,-4
1523147455195121,-20,5,27,-39,-25,-4,-6,-3
1523147455196962,-19,0,12,127,50,7,7,4
1523147455196962,10,7,17,-51,-6,1,5,7
1523147455217516,-23,2,-5,-39,-11,-5,-1,8
1523147455217516,54,31,8,-1,9,8,12,13
1523147455219020,1,-21,16,17,10,1,-2,-2
1523147455219020,-1,1,0,-31,-10,-3,4,-5
1523147455232113,-55,-14,5,15,15,2,-6,-37
1523147455232113,5,0,-8,-29,-10,0,-2,57
1523147455238730,15,8,5,17,-2,0,-1,-28
1523147455238730,0,-2,23,83,21,0,-1,12
1523147455254947,1,4,-3,-128,-36,-1,7,-10
1523147455254947,-30,-1,-16,2,-5,-17,-14,7
1523147455256797,-12,9,7,51,15,5,14,17
1523147455256797,5,0,19,-5,8,8,3,-1
1523147455277522,8,3,1,22,4,-3,-5,2
1523147455277522,-10,-15,-21,-6,-10,-2,-1,-11
1523147455279429,15,1,-21,-54,-5,-1,-1,1
1523147455279429,-25,-5,-4,-19,-1,-6,-5,-15
1523147455292046,49,21,-2,11,1,-1,-4,10
1523147455292046,8,17,3,13,-2,-1,-1,-17
1523147455298933,1,1,9,9,5,0,-4,3
1523147455298933,13,-3,11,-8,-2,4,6,4
1523147455314952,-6,-15,-13,-26,-7,-6,-7,2
1523147455314952,2,7,-19,-12,-14,-10,-8,-6
1523147455316456,13,2,7,17,12,3,-1,0
1523147455316456,-30,2,10,-19,-10,0,4,18
1523147455337669,46,11,8,23,8,0,8,17
1523147455337669,-12,5,13,-10,-2,2,5,-43
1523147455339016,2,-15,10,32,13,5,-2,10
1523147455339016,-49,38,0,-58,-12,-2,-13,-35
1523147455351048,-97,-8,6,27,11,6,10,20
1523147455351048,35,-10,12,7,7,4,8,18
1523147455360071,51,9,3,13,-5,-7,-10,6
1523147455360071,16,29,2,18,7,3,8,8
1523147455375111,-31,-28,1,19,4,4,13,-53
1523147455375111,37,74,17,-18,-1,1,6,32
1523147455376615,108,23,-10,2,3,-2,-3,-16
1523147455376615,-10,-18,-4,9,1,-5,-6,-29
1523147455405191,-73,-33,-15,-7,-3,-2,-6,-38
1523147455405191,-86,-30,-6,16,-2,-4,-9,-11
1523147455406697,50,34,8,6,7,7,9,16
1523147455406697,22,-24,-21,-28,6,2,10,39
1523147455411365,38,11,2,6,-20,-17,-18,13
1523147455411365,-70,-64,39,29,11,8,6,-39
1523147455420411,-35,-5,8,-43,-2,1,2,23
1523147455420411,62,20,-7,-3,-8,-8,-17,-27
1523147455434950,11,21,17,21,8,4,0,17
1523147455434950,-51,-103,-27,6,-6,-5,-7,33
1523147455436453,-35,8,10,62,5,-2,3,-3
1523147455436453,-6,31,-4,10,-15,1,0,16
1523147455457665,12,-16,19,67,9,-1,-5,15
1523147455457665,5,-8,-13,-40,-1,1,-3,-47
1523147455459013,-36,14,14,54,0,-5,-5,73
1523147455459013,12,2,-3,16,1,0,1,1
1523147455471546,-15,-3,-11,-7,-5,-3,-9,-17
1523147455471546,-13,-12,-18,-25,-3,-4,-5,-17
1523147455480069,-19,-12,-11,3,-11,-9,-5,-24
1523147455480069,-5,-8,20,43,25,11,10,6
1523147455495110,49,11,-2,-49,-5,1,2,25
1523147455495110,20,25,11,-47,-14,-3,6,-2
1523147455496615,-28,-28,-26,-36,-11,-6,-5,-11
1523147455496615,8,-35,-25,-24,-8,0,-1,-10
1523147455517696,7,4,14,44,16,6,9,7
1523147455517696,15,10,-22,-44,-35,-9,-7,7
1523147455519201,-11,-4,11,39,0,0,-3,-25
1523147455519201,-15,-37,-14,57,2,-4,-3,7
1523147455531393,-9,21,6,79,7,4,2,8
1523147455531393,49,19,-10,-74,-8,1,-1,0
1523147455540256,-41,-38,3,43,-11,-8,-17,17
1523147455540256,21,10,11,16,10,0,4,-18
1523147455554843,-5,-4,1,-80,-17,-2,-1,1
1523147455554843,0,5,4,49,20,3,1,4
1523147455556908,7,-1,0,-25,12,3,4,-9
1523147455556908,-8,-15,-8,-6,2,1,-2,6
1523147455577355,-2,14,-14,-31,-23,-8,-8,-3
1523147455577355,-36,8,-4,127,7,-2,-4,-8
1523147455579509,-13,-13,28,14,11,5,2,-12
1523147455579509,-12,3,-11,-33,-12,1,2,1
1523147455591517,27,9,-24,30,11,2,2,2
1523147455591517,64,-10,-23,-29,0,-4,0,12
1523147455600417,-4,-11,-37,-26,2,5,8,6
1523147455600417,8,83,12,37,3,-2,-5,-3
1523147455615113,-7,-20,12,16,22,0,-1,-3
1523147455615113,17,-5,-13,-89,-15,0,2,-15
1523147455616555,0,4,-4,18,-1,-2,-3,18
1523147455616555,7,-18,17,8,0,-2,2,3
1523147455637765,25,18,-33,-2,-6,-4,-4,-6
1523147455637765,-10,36,11,-35,-7,-2,-2,-8
1523147455639113,5,-2,-1,-3,5,2,1,-21
1523147455639113,-8,-20,24,-12,-2,1,-6,0
1523147455660025,-9,3,-25,-8,-23,-3,-4,4
1523147455660025,15,-31,-27,45,-5,0,-1,9
1523147455661946,-1,3,-28,-55,13,-8,-8,-39
1523147455661946,6,4,4,15,4,0,-1,25
1523147455682430,18,-11,8,-12,5,3,3,-5
1523147455682430,-12,27,-21,16,-12,3,19,-12
1523147455684436,6,-44,-13,-6,-2,-3,-21,-2
1523147455684436,-34,-14,-16,-1,-4,-5,5,-22
1523147455698522,8,2,7,-40,-9,-3,-4,5
1523147455698522,-3,-8,11,35,0,1,1,-37
1523147455699976,-38,8,9,45,24,11,15,27
1523147455699976,46,-8,9,-22,0,-5,3,-3
1523147455711005,23,-1,3,1,-5,1,-11,-5
1523147455711005,-33,-2,49,22,9,-3,-8,-6
1523147455720255,18,-4,-32,-21,-12,3,18,6
1523147455720255,-18,5,11,-31,-6,3,-4,-16
1523147455734798,9,3,-7,17,7,-4,3,3
1523147455734798,3,-15,22,31,14,3,3,12
1523147455736800,11,12,4,-33,-16,-3,-2,-10
1523147455736800,-15,-4,-8,4,1,1,1,6
1523147455757853,3,-2,1,2,-5,-6,-6,-6
1523147455757853,17,8,8,24,7,0,-2,35
1523147455759508,-46,19,-6,-35,-14,-3,-7,-17
1523147455759508,-26,-4,-23,-39,-9,-6,-6,16
1523147455780066,-42,7,16,72,23,-5,-3,-5
1523147455780066,14,8,-8,-18,-6,-2,-7,-6
1523147455781932,84,59,34,31,4,5,16,25
1523147455781932,5,-40,-13,-18,-10,1,-5,-18
1523147455794954,-15,-10,-3,-21,-2,-3,12,-4
1523147455794954,-27,0,1,12,9,0,-10,-10
1523147455796458,3,21,29,-2,-8,2,1,-17
1523147455796458,15,3,-8,-6,6,-2,-1,-2
1523147455817514,28,-29,-30,-25,-8,-3,8,7
1523147455817514,-5,-1,-12,52,8,4,-1,12
1523147455819017,-7,-17,10,26,-5,-5,-5,0
1523147455819017,-12,-15,-27,-60,-13,-5,-3,-11
1523147455840231,-5,-72,3,47,11,3,-6,2
1523147455840231,-8,-11,10,-2,-6,-7,-4,-37
1523147455841578,-84,-10,-4,-24,0,-1,-8,38
1523147455841578,-15,5,64,72,8,2,4,-9
1523147455855114,-30,12,-5,-46,-13,-1,6,-48
1523147455855114,49,28,-5,-9,-2,-2,12,30
1523147455856617,-35,-10,-6,24,5,-4,-33,-4
1523147455856617,-1,2,8,15,2,1,5,3
1523147455877805,75,115,16,-22,-4,3,-10,-3
1523147455877805,-66,-91,10,16,15,3,-5,-37
1523147455879331,54,-4,17,-8,6,6,12,12
1523147455879331,41,26,-12,-6,-14,-2,7,73
1523147455899733,-70,-83,-48,0,-9,-8,-18,-33
1523147455899733,41,-49,-30,-12,-3,-6,-8,73
1523147455901740,88,58,57,15,4,7,29,14
1523147455901740,-1,27,5,24,11,4,-8,-33
1523147455914423,-69,-16,-4,1,-5,-9,-13,-4
1523147455914423,-8,-29,3,15,6,6,9,-2
1523147455921445,16,-41,-39,-53,-10,-8,3,-31
1523147455921445,46,38,14,22,4,6,2,27
1523147455937486,21,36,37,-34,-6,5,15,23
1523147455937486,-46,31,-11,-14,3,-3,-4,-24
1523147455939494,7,-23,-6,102,14,-1,-6,-10
1523147455939494,-18,-5,-24,-93,-27,-7,0,-10
1523147455960043,-33,-12,-12,0,2,-3,-8,2
1523147455960043,30,46,21,-37,-11,4,-3,0
1523147455961933,-20,-12,-18,8,4,-1,7,3
1523147455961933,-18,-26,-8,45,28,-5,-5,-18
1523147455974586,22,-7,-2,-3,-42,-4,0,7
1523147455974586,20,46,12,54,-5,-6,3,6
1523147455981511,-54,3,-39,-52,-9,-2,-16,58
1523147455981511,-17,-40,-13,-26,-15,-5,-5,-25
1523147455997492,74,30,24,101,27,5,1,19
1523147455997492,37,17,9,17,1,4,6,-5
1523147455998998,-50,-15,-11,-60,-14,-3,-6,-56
1523147455998998,-3,-14,15,22,12,4,-6,39
1523147456020391,-7,3,5,17,14,-1,-2,15
1523147456020391,-29,3,-42,-109,-57,-11,-1,-10
1523147456021339,17,3,17,20,10,0,1,-20
1523147456021339,71,8,-38,-17,-8,-10,-9,-17
1523147456034373,-16,31,19,2,-1,-1,4,-27
1523147456034373,-16,-24,5,-13,17,2,-2,9
1523147456041132,7,-2,6,-46,-26,-3,1,-5
1523147456041132,-16,-5,-23,-65,-33,-10,0,-20
1523147456057437,-16,-7,-10,49,14,4,-2,-2
1523147456057437,57,17,15,20,20,5,7,18
1523147456059488,-10,22,2,-19,-11,-5,-8,-6
1523147456059488,-16,7,15,89,6,-3,-2,-14
1523147456080231,14,-27,-18,-5,5,3,6,-8
1523147456080231,-26,13,4,-11,-11,-6,-7,0
1523147456081499,6,-42,-11,44,15,0,3,-8
1523147456081499,-24,5,18,47,10,7,5,4
1523147456094731,-35,1,12,0,5,2,2,22
1523147456094731,2,-4,1,-45,-12,-4,-5,-3
1523147456101350,5,-10,-11,-14,-25,-6,-3,-3
1523147456101350,57,-4,-3,62,16,2,3,9
1523147456117615,-8,12,5,-11,2,1,-4,4
1523147456117615,4,21,-10,29,8,-1,-1,-1
1523147456118898,9,7,4,103,7,1,0,-17
1523147456118898,-17,-17,9,-102,-26,-7,-4,1
1523147456140239,0,-11,-36,-6,9,-1,6,-1
1523147456140239,-4,5,5,61,11,0,10,47
1523147456141797,-5,9,-1,-5,7,-3,-6,16
1523147456141797,-16,-5,8,29,0,3,3,-4
1523147456154778,10,-6,9,-42,-15,-2,-3,3
1523147456154778,20,-14,-4,-21,5,-3,0,-41
1523147456161296,58,18,-9,-10,-9,-2,-4,4
1523147456161296,-1,48,13,-20,-3,-2,-3,-6
1523147456177573,-54,-22,23,35,3,-6,0,-3
1523147456177573,-9,-1,4,24,7,5,-2,-10
1523147456179344,2,7,3,37,-2,-2,1,-3
1523147456179344,-52,-11,6,44,4,0,-3,-11
1523147456199898,30,3,-1,14,-5,-1,-2,-2
1523147456199898,-10,14,-25,71,-9,-2,-8,-2
1523147456201904,2,-53,-8,21,6,-2,-2,13
1523147456201904,-12,42,5,10,18,7,10,18
1523147456214438,-37,-8,13,-15,-14,-7,-12,-26
1523147456214438,-5,-9,-7,72,8,3,0,0
1523147456221194,-11,-10,-22,-128,-18,-8,-3,-18
1523147456221194,9,-21,-2,56,-1,3,6,46
1523147456237738,15,10,-4,7,2,5,-1,26
1523147456237738,-44,15,11,-26,-19,-7,-12,-17
1523147456239534,-52,2,-27,-53,-5,-4,-6,-16
1523147456239534,-6,16,-3,64,30,2,7,-51
1523147456260299,78,4,-11,-51,-19,-8,-11,85
1523147456260299,-83,-13,4,-17,-1,-5,-7,-18
1523147456261563,17,19,11,21,1,2,3,-2
1523147456261563,1,-9,-29,-112,-40,-5,-6,-18
1523147456273595,-20,-21,-26,55,19,0,8,-13
1523147456273595,4,14,15,9,6,3,10,-2
1523147456282660,55,48,12,41,4,-3,-6,6
1523147456282660,-3,8,7,-12,5,4,2,1
1523147456297846,-2,11,-12,-49,-1,1,0,-16
1523147456297846,28,-2,-12,-30,-8,-6,2,46
1523147456299204,-29,-7,8,18,10,1,-6,-13
1523147456299204,65,1,-7,2,1,2,-3,21
1523147456320391,15,6,14,-29,4,5,5,-29
1523147456320391,-14,-54,-15,3,3,-5,1,-7
1523147456321764,7,-23,8,23,-1,-1,-5,-21
1523147456321764,59,-60,-22,85,-17,-7,-3,11
1523147456333798,-34,15,10,29,1,-2,-8,-28
1523147456333798,35,7,4,6,0,-3,8,8
1523147456342819,-4,6,7,4,2,1,-2,39
1523147456342819,-25,13,45,23,11,2,6,19
1523147456357358,-36,-7,0,-5,4,8,7,-40
1523147456357358,-62,-25,-21,-20,-8,-4,4,-26
1523147456359481,77,41,5,2,11,8,6,21
1523147456359481,-4,31,-4,-20,3,-1,-3,70
1523147456380419,-31,-51,-15,-26,-21,-10,-7,-30
1523147456380419,56,21,-5,-33,0,1,-1,-5
1523147456381423,7,-45,14,30,0,4,10,25
1523147456381423,-7,-22,1,-32,-8,-5,-25,-8
1523147456393454,-3,41,19,3,1,3,19,-35
1523147456393454,-13,-28,-6,0,-1,3,6,1
1523147456402802,-19,30,5,0,3,3,4,-3
1523147456402802,8,3,-17,-11,3,3,11,-8
1523147456417878,-85,-9,4,0,-10,-14,-24,-35
1523147456417878,74,-11,6,2,4,3,1,-7
1523147456419317,-18,23,-7,-11,1,0,5,28
1523147456419317,-63,-46,-23,-12,8,4,16,-24
1523147456440343,-20,6,-10,9,-7,-7,-12,5
1523147456440343,-43,15,-54,-50,-13,-8,-18,-28
1523147456441895,-23,-8,2,-2,-2,-2,2,-16
1523147456441895,20,-6,13,10,5,10,5,10
1523147456453686,60,20,14,8,-6,5,13,31
1523147456453686,-18,-6,9,12,20,-2,-10,5
1523147456462710,-61,-28,-4,-7,-13,-4,-7,-33
1523147456462710,-12,1,-50,-16,4,-6,-16,-35
1523147456485361,37,-2,1,-29,-12,-1,5,32
1523147456485361,-29,13,25,72,14,7,-3,7
1523147456486775,-12,11,-9,-65,-37,-10,0,-11
1523147456486775,10,11,26,87,23,-10,-13,-19
1523147456499810,12,-22,-24,80,11,7,-7,20
1523147456499810,-1,3,2,-14,-3,-1,-1,14
1523147456501313,6,10,2,17,4,6,10,-10
1523147456501313,-15,-3,26,77,15,3,5,-13
1523147456514038,67,20,-7,-41,-26,-16,-12,-3
1523147456514038,39,-1,-18,78,28,10,0,6
1523147456522370,-25,-1,-8,-12,-4,-2,-6,31
1523147456522370,-5,19,9,8,-19,-2,-3,-22
1523147456537613,7,-36,1,11,-3,1,-1,1
1523147456537613,21,5,9,-26,-23,-10,-4,4
1523147456538914,4,-8,15,19,34,6,1,-22
1523147456538914,11,32,-8,39,-5,-5,-5,-3
1523147456560052,20,-2,2,-38,2,1,3,22
1523147456560052,-24,-22,8,36,5,5,3,-11
1523147456562012,22,24,-7,31,-4,-7,-6,-8
1523147456562012,-6,-4,16,-18,-17,-5,2,-2
1523147456573740,-17,-39,-2,37,10,0,0,2
1523147456573740,9,14,17,-9,-2,-7,-6,1
1523147456582530,-65,16,53,127,40,16,10,-2
1523147456582530,48,-42,-44,-128,-52,-19,-18,-8
1523147456597776,-16,14,-12,78,8,0,2,3
1523147456597776,-33,0,8,18,-1,0,-4,-4
1523147456599074,52,-11,-12,-8,-4,-8,-4,7
1523147456599074,-2,5,39,13,14,6,2,-15
1523147456620326,-49,-13,-30,-69,-37,-10,-6,-5
1523147456620326,17,-4,-4,38,-4,-1,0,-40
1523147456621634,68,-3,-30,17,-6,0,2,61
1523147456621634,-22,1,4,7,4,1,4,-6
1523147456633667,14,9,20,3,18,5,3,6
1523147456633667,-3,8,3,-35,-10,-4,-7,1
1523147456642691,-19,-16,-16,-59,-18,-6,1,3
1523147456642691,-10,-6,-11,-4,14,6,2,-10
1523147456657825,-4,0,22,28,8,1,-2,5
1523147456657825,10,6,-8,-27,0,1,5,10
1523147456659433,4,-15,-10,-16,-15,-8,-9,-21
1523147456659433,-6,-32,-2,3,4,-2,-2,12
1523147456680288,-12,-1,1,36,9,5,10,5
1523147456680288,7,25,12,-34,-9,-1,1,9
1523147456681796,20,22,6,-3,-1,-2,-2,-19
1523147456681796,-62,-26,-3,25,5,6,9,8
