timestamp,emg1,emg2,emg3,emg4,emg5,emg6,emg7,emg8
1523145278132539,2,0,0,-10,21,-6,6,-31
1523145278132539,0,-1,-4,0,-3,23,4,-15
1523145278134044,-5,-3,-5,-2,-3,-6,-17,-25
1523145278134044,-9,-5,-6,-7,-1,-3,-39,-60
1523145278147077,-1,1,5,-4,-5,-10,0,25
1523145278147077,-1,2,-2,-9,29,-7,-3,-13
1523145278153597,2,1,4,37,7,13,23,55
1523145278153597,0,0,3,-13,-11,-1,-11,-8
1523145278170139,-4,-5,-7,-4,-2,0,1,2
1523145278170139,-4,-3,-6,-12,-4,-10,-6,-6
1523145278171647,-5,-2,-4,-2,-10,-4,6,22
1523145278171647,0,-5,8,-4,12,-1,-13,-64
1523145278192699,2,0,-4,9,3,7,5,30
1523145278192699,8,5,9,13,2,2,24,45
1523145278194204,-4,-3,-9,-21,3,-2,5,16
1523145278194204,-1,5,-6,9,-3,-2,-24,-52
1523145278206256,-7,-11,-8,-20,-1,-4,-13,-22
1523145278206256,1,-2,-7,12,-23,1,2,2
1523145278215259,1,-2,-4,-1,0,-1,10,6
1523145278215259,-2,7,0,-4,-2,-2,-12,0
1523145278229798,-1,-4,-7,3,0,0,-2,-3
1523145278229798,4,9,50,23,17,6,11,14
1523145278231804,-4,-8,-43,-40,-20,-7,-8,-2
1523145278231804,1,8,46,70,28,6,1,3
1523145278252358,6,4,8,-2,-6,2,3,9
1523145278252358,-11,-9,-45,-61,-27,-9,-7,-25
1523145278254366,6,-4,18,43,10,1,4,11
1523145278254366,-8,-9,-35,-73,18,-1,-2,7
1523145278266395,-3,-7,-10,-9,-17,-6,-6,-15
1523145278266395,4,19,82,84,15,5,0,0
1523145278274918,5,-4,-13,-6,31,6,10,20
1523145278274918,2,-3,-34,-87,-23,-5,-5,2
1523145278289959,-1,6,4,21,7,-2,-3,-9
1523145278289959,-7,-12,-28,-53,-23,-4,-5,-6
1523145278291462,-5,5,18,-5,4,-2,1,1
1523145278291462,-4,-14,-35,5,-17,-4,-5,-10
1523145278312518,11,14,24,2,13,2,5,5
1523145278312518,-4,-6,-30,-19,3,0,0,2
1523145278314022,2,2,18,13,12,1,1,3
1523145278314022,-2,-2,-21,-34,-18,-5,-5,-7
1523145278335081,0,4,15,13,3,4,2,4
1523145278335081,-5,-6,-16,0,1,-5,-6,-6
1523145278336581,-4,-4,-28,-49,-38,-9,-4,-8
1523145278336581,5,-1,42,75,10,6,3,8
1523145278350120,-2,2,-8,-25,-10,-3,-4,0
1523145278350120,4,2,-5,-12,0,1,1,4
1523145278351623,-4,2,-4,4,6,-5,0,0
1523145278351623,6,3,8,7,7,3,2,7
1523145278372679,-5,-2,-5,5,-16,0,-3,-7
1523145278372679,3,-5,-28,-20,21,-2,0,-2
1523145278374183,-3,-3,-7,-24,-15,-3,-2,-1
1523145278374183,3,7,35,55,5,-2,-4,-1
1523145278386216,-9,-3,-3,-7,6,1,0,-2
1523145278386216,-2,-5,-11,-2,4,1,2,1
1523145278395238,-3,-4,1,-9,-24,-6,-7,-2
1523145278395238,-4,-7,-19,-14,-9,-7,-2,-4
1523145278410278,0,0,2,-8,35,11,-1,-1
1523145278410278,-1,0,34,33,-8,-4,-2,2
1523145278411782,4,5,0,11,12,5,6,5
1523145278411782,-2,5,-3,-6,-26,-6,-3,-5
1523145278432837,-7,-14,-24,-43,-25,-11,-7,-8
1523145278432837,4,6,12,55,21,6,6,13
1523145278434343,0,-3,3,-6,-18,0,1,1
1523145278434343,-3,3,-22,-20,13,1,-3,-1
1523145278445873,-1,-4,18,13,-1,-1,1,-3
1523145278445873,0,2,0,9,7,-2,-3,-7
1523145278455402,0,3,5,-1,-22,-2,0,2
1523145278455402,-6,-6,-27,-25,0,-4,-2,-4
1523145278469936,7,2,25,49,3,4,2,3
1523145278469936,-5,-7,-12,-27,-12,-2,2,-2
1523145278471946,1,-1,1,21,1,-2,-1,-1
1523145278471946,-10,-3,0,-18,24,0,-1,1
1523145278492498,1,0,-2,2,-7,-1,-2,-3
1523145278492498,-1,-7,-16,-13,-2,-4,-3,0
1523145278494003,0,2,11,0,11,2,-2,-3
1523145278494003,-3,0,20,50,4,-1,0,-1
1523145278506036,-4,-2,-37,-40,-30,-9,-4,-2
1523145278506036,3,0,28,50,18,4,1,1
1523145278515058,-5,-1,-8,-5,-3,-1,0,-6
1523145278515058,-2,-5,-20,-38,-11,-3,-4,1
1523145278530097,8,10,48,61,21,6,7,10
1523145278530097,-3,-5,-16,-33,-16,-7,-4,-5
1523145278531601,-2,-2,-2,5,1,1,1,0
1523145278531601,-3,-1,7,11,6,-3,-5,-11
1523145278552656,-8,-10,-42,-46,-14,0,-4,-3
1523145278552656,11,12,43,32,-4,4,6,12
1523145278554168,0,-1,17,15,9,2,2,2
1523145278554168,-2,-4,4,-8,-14,-1,-3,-4
1523145278566193,-4,-3,-14,-22,16,-4,-4,-6
1523145278566193,-2,1,-3,-5,-10,-4,-5,-6
1523145278575218,3,0,-9,-18,-7,0,0,5
1523145278575218,1,1,4,29,28,4,2,1
1523145278589756,-3,0,-3,-3,-15,-12,-4,-2
1523145278589756,-3,-4,-10,-23,-6,-8,-4,-3
1523145278591767,1,9,2,8,6,9,4,9
1523145278591767,1,-14,-11,-4,-13,-2,-8,-6
1523145278612315,-5,0,8,15,7,3,-8,-3
1523145278612315,-8,-4,-18,-29,-17,-5,-21,-75
1523145278614322,11,3,7,-2,9,-1,25,81
1523145278614322,7,1,5,-2,-7,3,36,71
1523145278626352,0,-1,-5,6,6,-4,-1,-6
1523145278626352,-10,-6,-11,-11,-3,8,-7,5
1523145278635386,-4,-1,7,7,1,-3,-18,-57
1523145278635386,4,4,1,-3,-6,2,-8,-7
1523145278649916,3,-4,4,-1,-9,-9,11,36
1523145278649916,-3,0,-9,-3,17,0,-4,-7
1523145278651420,-5,-3,-3,0,-2,-5,-12,-29
1523145278651420,-3,4,-1,6,10,-6,-4,-12
1523145278672481,-3,-7,2,-10,-21,-4,-7,-24
1523145278672481,2,0,-5,1,6,6,4,17
1523145278673980,-7,-4,-4,5,4,0,3,-1
1523145278673980,-1,-2,3,-8,-5,-1,-2,-8
1523145278695036,-6,1,-2,-11,-2,-2,-1,0
1523145278695036,10,0,-4,17,0,-2,1,6
1523145278696541,-5,-4,2,-5,10,-1,3,5
1523145278696541,-3,2,7,-3,-17,0,-10,-19
1523145278710076,1,1,-3,-1,4,4,0,-3
1523145278710076,1,-5,-18,-18,-8,-3,5,14
1523145278711580,-1,1,1,-11,-1,-3,-6,-14
1523145278711580,-1,-2,1,13,-7,-4,-5,-7
1523145278732639,0,-7,-37,-30,3,4,5,1
1523145278732639,-2,1,30,22,-7,-3,3,2
1523145278734139,-6,1,-9,-9,20,3,-1,2
1523145278734139,-1,-11,-29,-4,-7,0,-2,-7
1523145278755196,-1,3,32,53,4,0,-1,-2
1523145278755196,1,-1,-29,-100,-18,0,4,2
1523145278756701,-3,-8,-18,43,-10,-6,-5,-7
1523145278756701,4,25,92,80,26,10,4,3
1523145278770237,-7,-11,-42,-76,-17,-5,-4,-9
1523145278770237,3,3,36,97,23,1,3,8
1523145278771744,4,2,-1,-23,-5,2,-1,-1
1523145278771744,-5,-11,-40,-44,-14,-9,-7,-10
1523145278792294,-9,-5,4,21,11,4,-1,-2
1523145278792294,-4,9,19,5,10,2,1,3
1523145278794299,-3,-9,-23,-19,-13,-5,-1,1
1523145278794299,-2,-3,-1,4,-3,-4,-3,-6
1523145278814855,0,2,-9,-6,0,-5,-4,-2
1523145278814855,-1,0,3,-7,-6,6,5,2
1523145278816859,-5,-4,-1,4,3,-2,-3,-5
1523145278816859,-1,-4,0,-24,-5,-2,-2,-1
1523145278829392,0,-6,-6,-20,-9,-4,-2,-3
1523145278829392,-6,0,12,26,8,-2,-6,-12
1523145278835914,1,0,6,-2,-5,-1,-2,-1
1523145278835914,12,7,-11,-13,2,4,10,22
1523145278852457,6,6,3,-18,19,4,0,2
1523145278852457,-7,-5,-16,-4,-7,-4,-4,-4
1523145278854461,3,-2,8,28,-18,-6,-3,-8
1523145278854461,-12,-9,-7,-6,10,4,-4,-10
1523145278875014,3,3,0,11,1,1,0,1
1523145278875014,-1,-4,-14,-31,-11,-7,0,0
1523145278876519,0,3,31,19,9,1,-1,0
1523145278876519,0,-2,0,0,6,-4,-2,-2
1523145278889554,2,4,8,18,-21,2,1,-1
1523145278889554,-4,-7,-28,-52,-13,-5,-2,-3
1523145278896074,3,-6,-24,-25,6,0,1,5
1523145278896074,0,7,34,27,-2,0,0,-4
1523145278912615,-4,-6,5,4,8,0,-3,-6
1523145278912615,-3,-7,-1,-2,-8,-4,-2,3
1523145278914118,6,7,6,-4,9,4,3,5
1523145278914118,-3,-2,-12,-11,-6,-2,-2,-4
1523145278935187,-2,-2,-16,-8,-12,-3,-2,-4
1523145278935187,2,4,19,29,4,3,-1,-2
1523145278936682,-4,-2,-5,-17,-5,-2,-1,-1
1523145278936682,-4,-4,-17,-34,-13,-3,-3,-3
1523145278949213,1,4,4,8,16,1,2,1
1523145278949213,2,2,19,33,-4,8,3,4
1523145278956233,-1,0,2,-15,-7,-2,-3,-3
1523145278956233,1,-2,-15,-24,-10,-3,-1,-2
1523145278972776,-4,1,-11,29,-3,-2,-1,-1
1523145278972776,1,-2,14,32,14,-1,2,3
1523145278974278,0,-2,-2,8,0,0,0,-3
1523145278974278,-4,-2,1,-4,-3,-1,0,-3
1523145278994835,4,0,4,3,1,-2,0,1
1523145278994835,-4,-2,-28,-24,-6,-2,-4,-2
1523145278996840,-1,3,40,67,9,1,1,-1
1523145278996840,-2,-4,-13,-8,-3,-4,-2,-1
1523145279009372,-2,-2,6,-5,1,-1,0,-2
1523145279009372,-1,-2,-16,-14,-3,-3,-2,-1
1523145279015889,-2,-3,-22,-33,-11,-4,0,2
1523145279015889,0,3,32,39,12,2,0,0
1523145279032436,1,-2,10,8,0,1,-1,-2
1523145279032436,-6,-7,-15,-25,-7,-4,-3,-2
1523145279033940,-1,-4,-17,-24,-9,-5,-3,-3
1523145279033940,0,3,4,26,8,3,-1,-2
1523145279054998,4,3,30,17,9,4,3,4
1523145279054998,-5,-5,-10,-9,-4,-4,-3,-5
1523145279056499,-3,-1,-5,-8,1,-2,-1,1
1523145279056499,4,0,-17,-25,-4,0,2,2
1523145279069532,-3,0,1,13,-3,-1,0,0
1523145279069532,0,-3,-8,-7,1,-3,-1,-4
1523145279076051,-2,0,3,2,1,-2,-1,-2
1523145279076051,-3,-4,-9,-11,-5,0,-1,-3
1523145279092595,-1,-2,-5,-3,1,0,0,2
1523145279092595,1,1,21,15,3,1,2,1
1523145279094100,-4,5,20,26,2,-2,-4,-10
1523145279094100,0,-7,-11,-4,0,-3,-3,2
1523145279115154,2,1,-4,-8,-12,1,2,5
1523145279115154,-1,6,-18,-22,-2,1,-2,-1
1523145279116659,0,-8,1,-5,-2,1,0,0
1523145279116659,-2,-1,7,-11,-24,-8,-6,-7
1523145279128690,-1,-1,-7,19,44,8,1,-3
1523145279128690,-2,-5,-13,-20,-18,-6,-4,-3
1523145279137716,-1,3,10,47,33,4,-1,-4
1523145279137716,-1,1,-7,-28,-4,0,1,0
1523145279152253,-2,-3,-1,-16,-22,-15,-10,-4
1523145279152253,2,1,4,-6,15,-4,1,-13
1523145279154258,-2,-2,-11,0,2,13,-6,20
1523145279154258,-5,-3,-6,0,-10,-2,-13,-78
1523145279174813,0,0,3,1,-7,6,30,99
1523145279174813,3,-2,-3,-6,11,-8,6,3
1523145279176818,-1,0,-3,4,-34,5,-6,-17
1523145279176818,-3,0,1,16,20,-2,-5,4
1523145279188850,1,6,-9,-8,-8,-3,-22,-67
1523145279188850,-5,-10,11,5,-11,0,14,67
1523145279197873,1,-3,-14,-23,-3,3,8,2
1523145279197873,-2,-3,1,12,-8,-7,-9,-2
1523145279212412,-3,4,2,-4,-8,-9,-12,-36
1523145279212412,2,1,-2,3,-1,-2,-6,-15
1523145279218428,-4,1,-2,-9,7,-5,-1,-7
1523145279218428,-2,-4,-3,5,1,2,6,18
1523145279234973,-7,-3,-1,-15,-5,-1,0,-4
1523145279234973,1,1,-3,11,20,7,-1,-8
1523145279236477,0,-1,3,-11,-4,-4,2,9
1523145279236477,1,3,-7,-2,-10,-3,1,5
1523145279248509,-3,-4,-2,-1,-1,0,2,3
1523145279248509,0,-1,-5,-3,-19,0,-5,-11
1523145279257532,-7,-14,-23,-25,-1,-6,-1,-9
1523145279257532,-6,-3,10,-17,3,0,1,7
1523145279272572,4,3,21,29,8,6,3,1
1523145279272572,5,-1,-16,4,-6,3,1,2
1523145279274077,0,9,9,5,0,-4,1,-3
1523145279274077,1,-4,-15,-34,-13,4,4,5
1523145279295134,-4,0,21,42,5,-1,-6,-7
1523145279295134,-16,-9,4,-14,-8,-7,-8,-14
1523145279296638,8,3,-4,-18,15,0,1,3
1523145279296638,-3,-7,-46,-23,3,2,2,9
1523145279308695,7,6,53,36,-10,1,2,0
1523145279308695,-1,-1,-26,-44,-11,-3,-3,-4
1523145279325213,-5,0,6,37,3,-5,-8,-19
1523145279325213,-19,-10,16,23,12,-4,-5,-5
1523145279332734,15,-3,-41,-71,8,7,13,34
1523145279332734,8,9,-4,-26,-4,2,1,1
1523145279334241,-2,-3,21,-11,-8,-5,-4,-2
1523145279334241,-9,0,-26,0,1,-5,-4,-5
1523145279354793,-8,5,33,32,0,-2,-5,-18
1523145279354793,1,-10,-10,-29,3,1,-2,-3
1523145279356796,-3,-8,-44,-36,-13,-6,-2,-6
1523145279356796,16,22,97,68,34,11,10,17
1523145279368827,-3,-9,-34,-37,-6,-5,-2,-2
1523145279368827,-3,2,10,39,2,-3,-3,-2
1523145279377853,9,3,-3,-23,-13,-1,5,12
1523145279377853,3,1,1,20,-2,0,-4,-1
1523145279392390,-5,-8,-11,-19,-7,-3,-5,-5
1523145279392390,-1,0,-19,-7,-7,-1,-1,-8
1523145279393896,-8,1,44,32,19,1,-2,-7
1523145279393896,9,-1,-20,-26,-11,-3,2,8
1523145279414952,0,6,5,2,5,3,2,-1
1523145279414952,-3,-2,-24,-31,-12,-4,-8,-7
1523145279416457,-1,-5,-9,13,-2,-2,1,6
1523145279416457,5,9,18,-3,-2,1,4,4
1523145279428988,-4,-12,-25,-21,1,-2,-5,-9
1523145279428988,0,1,18,9,2,-1,1,-2
1523145279438015,-3,1,-6,-35,-23,-3,-2,-1
1523145279438015,-2,-5,-18,5,16,1,-2,-3
1523145279452553,-3,-2,-16,5,1,-4,-3,-2
1523145279452553,-1,3,12,7,5,2,1,4
1523145279454057,4,3,0,-3,-1,-1,1,2
1523145279454057,-8,-6,-16,-11,-25,-3,-2,-2
1523145279475112,-4,-4,-7,5,9,-1,-1,-3
1523145279475112,-3,-1,12,21,11,2,-4,-6
1523145279476616,-1,3,4,2,12,2,1,2
1523145279476616,1,-3,-5,-22,-14,-3,-2,-1
1523145279488648,-2,-2,-12,8,2,-1,-1,0
1523145279488648,-2,4,38,33,3,1,3,0
1523145279497671,-3,-5,0,3,0,-3,0,-2
1523145279497671,0,-2,-1,14,0,1,0,0
1523145279512711,-2,-4,-18,-29,-23,-6,-3,-3
1523145279512711,-1,0,-17,-2,-2,-3,-2,-1
1523145279514216,-1,-1,9,6,-8,-3,-3,0
1523145279514216,0,-2,3,-5,9,0,0,-2
1523145279534773,-2,-2,-4,-6,-3,-3,-5,-4
1523145279534773,1,3,23,8,-11,1,-1,-1
1523145279536776,-3,-4,-12,-2,8,-1,-2,2
1523145279536776,1,0,-1,2,-14,-4,-1,0
1523145279548807,-1,-2,-1,-18,-8,-4,-3,-2
1523145279548807,1,0,0,7,17,1,2,0
1523145279557831,1,1,-9,3,7,0,1,1
1523145279557831,-1,0,7,1,-12,-1,-4,-4
1523145279572372,-3,0,1,-7,7,0,-2,-1
1523145279572372,-4,-4,-12,4,-10,1,1,-2
1523145279574376,-5,-4,-1,-4,-12,0,-1,-5
1523145279574376,3,-2,-8,-10,8,-3,2,2
1523145279594932,6,6,12,9,-3,-2,0,0
1523145279594932,-5,-6,-7,1,-9,-4,-4,-7
1523145279596437,-1,-1,1,-3,2,-2,-1,-1
1523145279596437,4,0,2,11,-3,2,4,6
1523145279617490,1,-2,6,-5,-19,-2,0,1
1523145279617490,-2,-3,-6,-5,1,-3,-4,-8
1523145279618995,-3,2,0,17,3,4,0,-7
1523145279618995,0,-1,-2,-2,7,-6,0,8
1523145279632532,1,-1,2,6,9,4,3,4
1523145279632532,-4,-2,-5,-7,-11,-9,-14,-24
1523145279634039,1,3,2,7,-2,-6,2,-18
1523145279634039,2,4,3,-3,-3,15,17,18
1523145279655091,1,-2,-2,1,3,2,11,31
1523145279655091,-4,-5,-6,-4,-10,2,-2,11
1523145279656595,-1,4,2,2,-13,-6,-18,-55
1523145279656595,-1,-5,-9,1,17,0,12,47
1523145279677651,-2,-3,-6,5,0,-2,-5,-18
1523145279677651,2,3,13,2,5,2,1,1
1523145279679156,-3,-10,-15,-4,-1,-8,-7,1
1523145279679156,-7,-3,-1,-5,-11,-6,-13,-25
1523145279692692,3,4,0,-1,5,0,1,7
1523145279692692,3,2,-4,0,4,-3,4,13
1523145279694203,2,2,-4,0,-7,3,0,7
1523145279694203,-7,-5,1,1,0,-3,-6,-14
1523145279715250,-4,-3,-3,-21,4,-2,-2,-9
1523145279715250,8,3,1,28,32,4,2,-9
1523145279716754,-11,-7,-8,-27,-10,2,6,24
1523145279716754,-1,8,21,23,0,0,-7,-15
1523145279737310,-6,-13,-13,7,1,-2,-3,-5
1523145279737310,2,-1,17,-25,-5,1,3,7
1523145279739316,5,1,-11,-7,13,4,5,13
1523145279739316,-1,10,46,73,8,-5,-5,-8
1523145279751850,4,6,12,-20,-7,0,-2,-7
1523145279751850,-6,-20,-67,-41,-20,-7,-2,1
1523145279758866,-7,2,28,30,-1,2,1,8
1523145279758866,4,3,-8,-50,29,3,-1,-9
1523145279774911,-7,-9,-28,-16,-22,-4,-5,-8
1523145279774911,-6,5,35,36,-2,0,2,-3
1523145279776413,0,-11,-53,-58,-19,-5,0,8
1523145279776413,6,-1,-9,30,-9,3,3,1
1523145279797472,-3,2,-5,-5,6,-2,-3,-2
1523145279797472,0,1,71,51,16,6,3,1
1523145279798974,-2,-1,12,-5,0,-2,-3,-5
1523145279798974,-3,-6,-14,-13,-4,-4,-3,-4
1523145279812008,4,9,9,-9,-8,1,5,6
1523145279812008,1,2,-27,-11,-2,-1,-4,-2
1523145279820031,6,6,4,5,3,-2,2,2
1523145279820031,-6,0,32,2,3,1,-2,-10
1523145279835070,-7,-16,-24,-6,3,-5,-7,-5
1523145279835070,11,10,-3,7,3,4,5,13
1523145279836578,3,1,14,24,18,4,0,0
1523145279836578,-5,-7,-38,-37,-28,-7,-2,-2
1523145279857631,-5,-9,-2,13,0,-2,-6,-10
1523145279857631,-4,-3,10,-14,20,-3,-1,-2
1523145279859135,8,8,13,5,-22,1,5,9
1523145279859135,-2,1,-1,3,0,-1,-4,-7
1523145279871666,3,3,5,13,1,0,2,4
1523145279871666,-4,-1,-22,-15,-25,0,-1,-3
1523145279878688,-3,-3,-1,-4,9,0,-2,-2
1523145279878688,-4,-4,-9,-7,-11,-5,-3,0
1523145279895229,1,4,18,32,20,4,2,1
1523145279895229,-2,-4,-28,-39,-11,-4,-2,0
1523145279896737,3,1,-1,1,0,1,3,6
1523145279896737,2,-2,-10,-22,-14,-6,-2,-2
1523145279917788,-4,4,26,17,4,2,0,-3
1523145279917788,-5,-7,-24,-10,-7,-6,-3,-6
1523145279919293,-1,1,24,42,16,-1,-3,-2
1523145279919293,2,0,9,-17,-14,1,0,0
1523145279931829,2,-11,-27,-9,-8,-4,0,-3
1523145279931829,-2,4,11,-7,3,-3,2,1
1523145279938844,-1,-2,-11,-16,-6,-3,-4,0
1523145279938844,-1,-13,-27,6,6,0,-1,-1
1523145279954888,-3,7,-2,-15,-7,-3,-5,-4
1523145279954888,2,3,16,9,16,4,-1,2
1523145279956392,-4,-9,-20,-6,-20,-3,-1,-2
1523145279956392,4,1,11,18,8,2,2,7
1523145279977448,-2,-5,-20,-36,-14,-5,-1,-3
1523145279977448,-1,1,13,50,21,1,1,-4
1523145279978953,0,6,18,-3,2,-1,-1,-2
1523145279978953,-4,-11,-21,-21,3,-2,-2,-3
1523145279991988,-1,1,13,2,-1,-2,0,0
1523145279991988,-1,-5,-24,-16,-17,-2,-2,0
1523145279998505,0,-2,-15,-10,3,-5,-1,0
1523145279998505,1,4,25,25,12,0,1,0
1523145280015048,-2,-4,-8,-13,-15,-2,-3,-3
1523145280015048,-1,8,5,-10,13,-2,-2,-2
1523145280016554,-2,-19,-19,16,11,1,0,-1
1523145280016554,-1,2,9,-6,-12,-5,-2,-3
1523145280037608,-2,3,7,3,4,0,-1,0
1523145280037608,-3,1,-5,-14,-28,-1,-2,0
1523145280039112,3,0,-2,9,19,1,2,0
1523145280039112,-2,1,-24,-29,-1,-4,-3,-7
1523145280051650,-1,1,25,24,12,2,0,1
1523145280051650,4,-5,-17,-34,-15,-1,-2,5
1523145280058664,2,8,55,61,14,7,1,-2
1523145280058664,-6,-7,-17,-34,-4,0,-5,-10
1523145280075209,1,4,1,-2,-2,-2,-1,3
1523145280075209,5,-1,-3,4,2,2,4,10
1523145280076713,-4,1,-13,-33,-23,-4,-2,-3
1523145280076713,-3,-7,9,15,6,1,-2,-3
1523145280097267,-1,5,10,16,-1,-1,-1,-6
1523145280097267,-1,-3,1,3,3,-2,-2,-4
1523145280099274,4,6,6,-18,-8,0,2,6
1523145280099274,-9,-8,1,8,1,-5,-4,-13
1523145280111303,-8,-5,-18,-13,-21,-6,-6,-7
1523145280111303,8,-3,0,10,-2,2,5,20
1523145280120331,6,7,0,-1,-9,3,3,9
1523145280120331,0,4,-2,-4,-6,-1,-1,2
1523145280134870,-4,-7,-13,-1,3,-6,-7,-15
1523145280134870,-8,-2,17,4,-21,2,-3,-16
1523145280136876,-7,-8,-11,-24,6,-5,-10,-9
1523145280136876,0,1,-5,-10,-18,-3,0,13
1523145280157427,-2,-1,-2,-2,4,-4,-5,-27
1523145280157427,6,3,6,9,11,-7,5,0
1523145280158931,2,0,1,-14,-33,9,11,82
1523145280158931,1,-13,-17,11,11,14,22,30
1523145280170971,4,6,-10,-1,0,8,6,-11
1523145280170971,-8,-1,-3,-3,4,-5,-10,-29
1523145280179987,-4,-12,18,6,15,-13,-21,-36
1523145280179987,-3,3,-6,-6,-6,0,-20,-50
1523145280195029,0,2,7,3,-5,0,0,9
1523145280195029,-4,-3,-5,0,8,0,2,-2
1523145280196534,2,-1,-21,-7,1,-3,-1,-23
1523145280196534,-2,0,10,-10,-29,-11,-3,9
1523145280217590,4,-2,3,26,50,6,6,13
1523145280217590,-4,-2,-1,6,8,2,-4,8
1523145280219093,-1,1,-8,-15,-25,-4,-2,-12
1523145280219093,-3,-6,-7,7,11,-2,7,11
1523145280231124,2,3,13,-2,-12,2,-2,8
1523145280231124,0,-4,1,-9,-11,-5,-6,-9
1523145280240148,-13,-7,-1,26,27,7,8,4
1523145280240148,8,9,-21,-37,-2,-1,-1,-1
1523145280255187,2,1,31,65,10,2,0,1
1523145280255187,-1,-2,-6,-25,-8,-3,-2,4
1523145280256692,0,-2,-4,28,6,1,2,-8
1523145280256692,3,7,21,-18,8,2,0,4
1523145280277746,-1,-2,-43,-46,-10,-3,2,12
1523145280277746,-4,1,53,62,12,4,1,3
1523145280279296,-5,2,-16,-66,-4,-3,-6,-9
1523145280279296,-1,-15,-21,23,0,-3,-5,-8
1523145280291336,1,6,38,68,9,4,4,7
1523145280291336,-7,-12,-35,-8,-6,-6,-7,-8
1523145280300360,3,4,-19,-51,-7,0,4,2
1523145280300360,0,5,11,43,-1,-1,1,4
1523145280314900,-5,-8,-34,-80,-23,-7,-5,-8
1523145280314900,2,18,81,68,29,6,0,-8
1523145280316906,-1,-6,9,29,-21,-4,0,2
1523145280316906,16,4,-24,-51,12,6,11,27
1523145280337468,-5,-14,-52,2,-28,-5,-5,6
1523145280337468,4,17,60,31,36,5,3,-15
1523145280338964,-15,-9,-38,-30,-15,-11,-15,-26
1523145280338964,-3,1,36,4,9,-1,-3,-2
1523145280350994,8,3,1,4,10,2,5,10
1523145280350994,-2,-13,-45,-38,-37,-3,1,9
1523145280360019,0,3,11,21,8,-1,0,-1
1523145280360019,-10,-2,-14,-2,2,-4,-7,-16
1523145280375059,-4,-3,22,-9,-14,-8,-3,-2
1523145280375059,-2,-3,-27,17,6,4,-2,1
1523145280376563,2,4,13,-17,6,5,9,-3
1523145280376563,5,-2,-1,5,2,1,-3,3
1523145280397618,2,3,12,-23,-5,-3,0,1
1523145280397618,-4,-14,-42,-41,-19,-9,-3,-2
1523145280399123,-1,-2,-2,11,14,8,1,0
1523145280399123,-3,5,12,18,-4,-3,-3,-6
1523145280411154,-3,0,-8,-26,7,2,-2,-8
1523145280411154,-7,-6,-9,-6,-11,-6,-4,-8
1523145280420186,1,2,12,44,3,-8,-4,-1
1523145280420186,12,3,5,3,6,5,10,22
1523145280435219,-2,-5,-8,-12,0,0,-3,-5
1523145280435219,-2,-4,-21,-12,-11,-3,0,3
1523145280436726,-3,-3,-7,10,3,-7,-5,-6
1523145280436726,-7,-2,2,-26,-13,4,-1,-10
1523145280457279,-1,-3,-2,9,-11,-2,-1,-1
1523145280457279,2,-7,-21,-33,0,0,0,3
1523145280459282,2,4,19,39,3,0,1,3
1523145280459282,-3,-1,13,26,12,-1,-2,-5
1523145280471314,-3,-3,-2,1,6,2,1,0
1523145280471314,-1,0,-5,-24,-3,-1,-1,-1
1523145280480339,3,-3,-11,-14,-17,-2,-1,3
1523145280480339,0,7,23,52,44,7,2,-3
1523145280494877,-2,-1,10,6,-7,0,-2,-4
1523145280494877,-2,-4,-14,2,-8,-3,-1,2
1523145280496381,0,-2,-14,-48,-5,1,1,3
1523145280496381,-6,-2,-14,-13,-17,-6,-6,-7
1523145280517436,0,-2,13,13,5,-1,-2,0
1523145280517436,-2,-4,-25,-5,10,-1,1,2
1523145280518950,2,1,26,19,-19,2,3,2
1523145280518950,-4,0,-11,-15,-5,-5,-4,-8
1523145280539997,0,-3,2,9,8,2,1,2
1523145280539997,2,2,8,-4,-10,-1,-2,1
1523145280541501,-4,-7,-25,-18,0,-5,-4,-3
1523145280541501,-5,0,10,15,-7,-4,0,-4
1523145280554537,-1,3,13,0,15,2,1,-1
1523145280554537,3,2,10,12,-10,-2,0,2
1523145280561058,1,1,-5,-12,18,3,1,4
1523145280561058,1,-1,-11,-11,-7,-4,-2,1
1523145280577596,-4,-3,-16,-21,-18,-4,-1,-3
1523145280577596,-2,1,19,-4,-2,2,0,0
1523145280579101,-3,-2,-10,-5,-1,-4,-4,-6
1523145280579101,-2,-4,-1,-13,-12,-5,-4,-3
1523145280600157,2,3,5,10,6,-1,-2,0
1523145280600157,6,4,-1,-15,3,3,0,4
1523145280601663,4,-1,-3,6,10,0,1,3
1523145280601663,-4,-2,-2,-11,-15,1,-1,-3
1523145280615197,-4,-3,-3,-6,-11,-2,-1,-3
1523145280615197,-10,-8,-3,9,4,-2,-7,-14
1523145280616706,1,5,13,9,9,0,2,2
1523145280616706,7,0,0,5,-5,3,7,13
1523145280637256,1,2,2,-10,0,-3,-1,1
1523145280637256,-2,-2,-3,-4,6,0,-4,-5
1523145280639262,-7,-6,0,14,-22,-8,-13,-25
1523145280639262,-5,-1,-6,-20,-26,-4,-21,-80
1523145280659817,2,-2,3,-15,-18,0,4,36
1523145280659817,9,3,-15,3,35,5,20,2
1523145280661821,1,-4,20,18,14,13,51,110
1523145280661821,-3,-4,-8,-13,-9,-8,-18,-59
1523145280674355,-14,4,0,22,-33,-8,-35,-7
1523145280674355,-2,3,8,-6,50,-10,-54,-121
1523145280681372,14,1,-11,-11,17,23,79,76
1523145280681372,3,-4,-2,4,28,11,28,8
1523145280697421,2,3,-3,-3,-7,5,-14,-68
1523145280697421,-10,-10,-1,3,-30,-8,-20,-30
1523145280698920,-7,6,6,-7,12,-17,-39,-47
1523145280698920,-3,-5,-14,7,7,-3,1,30
1523145280719981,0,-7,3,-3,13,-2,12,17
1523145280719981,2,1,-6,1,-18,-1,2,26
1523145280721481,0,10,13,-8,-9,-5,-14,-23
1523145280721481,-2,-11,-19,5,-7,0,7,34
1523145280734520,-1,-8,-7,2,11,-2,-5,-15
1523145280734520,5,4,-2,-2,-12,4,19,42
1523145280741034,-1,-3,-12,-3,-4,-5,-14,-22
1523145280741034,0,6,9,-13,1,-1,-4,3
1523145280757580,-1,-5,6,0,18,-1,7,1
1523145280757580,5,8,19,16,-2,5,13,27
1523145280759081,-6,-7,-32,-37,12,4,-15,-29
1523145280759081,-7,-4,12,60,-6,-6,-7,-4
1523145280780135,9,-1,5,4,39,15,17,20
1523145280780135,0,-9,-52,-66,-48,-1,7,25
1523145280781640,0,16,93,93,24,7,-10,-31
1523145280781640,-3,-5,-21,-11,23,-6,-2,2
1523145280794173,1,-7,-27,-19,-66,-10,0,3
1523145280794173,5,20,46,12,18,5,5,4
1523145280801192,-5,-24,-32,7,-26,-9,-11,-14
1523145280801192,-4,-6,-21,-46,-1,-5,-1,4
1523145280817737,-4,7,19,65,17,1,2,-4
1523145280817737,-5,-9,-25,-53,-18,-3,-2,2
1523145280819244,1,1,-23,-42,-32,-10,-8,-6
1523145280819244,3,9,44,28,21,9,6,10
1523145280839795,1,-7,-29,-31,1,-6,-4,5
1523145280839795,-10,-7,-29,-17,-16,-5,1,-14
1523145280841800,0,17,58,34,19,-4,-13,-11
1523145280841800,0,-11,-20,-20,-6,6,8,4
1523145280854333,-1,-1,-10,-36,-7,-3,-5,-7
1523145280854333,16,12,15,3,33,-2,12,29
1523145280861351,-5,1,-14,2,-13,3,-3,-4
1523145280861351,-3,-7,7,-10,-10,-2,-7,-9
1523145280877399,-8,1,2,5,13,4,0,-7
1523145280877399,-8,-5,-1,-8,4,-5,-3,-6
1523145280879399,3,7,12,16,2,-1,-2,-1
1523145280879399,-5,-15,-13,-7,-21,-5,-6,-1
1523145280899955,3,7,19,4,26,-1,4,-1
1523145280899955,-5,-13,-25,-4,-25,-6,-5,-1
1523145280901459,1,0,-1,17,8,1,0,-2
1523145280901459,-1,7,-2,-8,-18,-1,0,1
1523145280914494,-4,-7,4,2,-5,-5,-3,-6
1523145280914494,-1,-2,2,22,-1,0,-2,-1
1523145280921011,0,-5,-22,-55,1,1,1,0
1523145280921011,3,11,22,37,14,-2,-1,3
1523145280945076,1,0,-12,-18,6,1,3,-2
1523145280945076,-7,-2,16,9,-13,-1,-4,-6
1523145280946580,-5,-11,-24,-8,16,-2,-2,-7
1523145280946580,4,1,-4,-20,-16,4,2,9
1523145280960116,4,4,-14,-6,-10,-3,1,1
1523145280960116,-6,0,19,-25,7,1,-1,-2
1523145280961620,0,0,16,37,-7,4,-2,-3
1523145280961620,2,3,-15,-15,-1,-2,-2,2
1523145280974654,-2,-6,-4,2,-5,-2,-2,2
1523145280974654,1,1,-4,-17,0,0,2,2
1523145280982677,-3,-7,-19,11,-6,-3,-3,-7
1523145280982677,0,10,31,18,-4,-1,-2,-3
1523145280997715,2,9,18,4,6,5,6,4
1523145280997715,-2,-15,-22,9,-4,-3,-5,-6
1523145280999219,-3,-5,-18,-31,-5,-1,-3,0
1523145280999219,-12,-6,-3,7,-4,-8,-10,-16
1523145281020279,2,-2,-7,-17,-2,-3,2,7
1523145281020279,14,9,15,27,-12,4,9,17
1523145281021780,0,-6,-16,-11,-9,-3,-2,-1
1523145281021780,-2,-2,-18,-36,5,-3,-1,-3
1523145281033812,-7,1,36,69,-3,1,-6,-11
1523145281033812,-3,2,2,-10,14,2,0,-3
1523145281042835,3,-7,-11,-18,-2,-1,0,0
1523145281042835,-2,-1,0,-14,-20,-7,-3,0
1523145281057375,-3,-6,-10,-25,42,0,-1,-2
1523145281057375,1,0,13,43,-16,1,0,0
1523145281059379,2,5,1,-16,9,1,-1,2
1523145281059379,-1,5,-9,3,11,-1,-2,-2
1523145281079937,-3,-18,-35,-5,-19,-1,1,2
1523145281079937,0,9,30,26,14,0,-1,0
1523145281081438,-4,-9,-17,-13,-14,-1,-5,-7
1523145281081438,6,2,1,-6,3,1,2,7
1523145281093470,1,7,12,-5,-11,2,0,-2
1523145281093470,-3,-5,-15,2,11,-3,-3,-3
1523145281102496,-3,1,0,5,-2,-3,2,3
1523145281102496,-2,0,12,-16,-74,-11,-19,-32
1523145281117539,0,0,-5,10,-9,-4,-13,-55
1523145281117539,-6,-6,-9,-9,24,-3,9,83
1523145281119041,-1,-1,3,-3,-20,-2,-35,-107
1523145281119041,6,0,-2,21,44,17,45,90
1523145281140094,6,1,3,-31,-54,-20,60,57
1523145281140094,-2,-1,-6,10,13,-3,-68,-107
1523145281141599,3,-4,0,-7,20,12,48,108
1523145281141599,1,3,2,16,38,10,5,26
1523145281153631,0,-1,-6,-9,-34,-7,-13,34
1523145281153631,-9,-3,3,5,30,-1,-8,-19
1523145281162654,-5,1,1,-6,-16,-11,-53,-111
1523145281162654,-1,-3,1,3,2,0,10,20
1523145281177694,-1,1,1,1,34,5,-2,-9
1523145281177694,-5,-4,-5,-6,-29,-3,13,2
1523145281179202,-3,1,2,-5,7,-4,-14,-38
1523145281179202,-1,-2,-3,0,-5,-3,4,-4
1523145281199753,3,8,5,-2,13,4,-4,4
1523145281199753,-1,-13,-14,0,-19,-2,-2,-6
1523145281201761,-2,7,21,-6,-9,1,19,43
1523145281201761,1,-6,-7,5,13,1,-2,-18
1523145281213790,0,-1,13,-19,-22,-3,-14,-7
1523145281213790,-1,3,-2,31,48,4,6,-9
1523145281222817,1,-3,-8,-14,-4,0,16,38
1523145281222817,-2,2,-2,-3,19,-11,-10,-16
1523145281237353,-1,4,-7,-6,-10,9,-16,-39
1523145281237353,1,-1,-3,-20,-13,2,16,22
1523145281239359,0,-10,-2,0,3,-4,2,16
1523145281239359,-4,-3,-10,-16,6,-3,-17,-30
1523145281259913,-2,3,21,45,14,-5,-7,-5
1523145281259913,5,4,6,6,-2,4,9,12
1523145281261417,3,-3,-7,0,-2,-5,7,24
1523145281261417,-4,15,24,-5,-12,2,-12,-31
1523145281273448,-1,-6,-23,-43,38,5,7,13
1523145281273448,4,5,34,60,8,9,6,6
1523145281282472,-2,4,-6,-14,-10,-9,-10,-11
1523145281282472,-2,-23,-56,-41,-17,-3,1,0
1523145281297012,-8,21,76,20,16,1,-8,-20
1523145281297012,-5,-14,-39,-56,-21,-10,-5,-8
1523145281304035,10,6,-17,-17,11,6,10,21
1523145281304035,3,1,4,39,5,1,-4,-4
1523145281320072,-1,1,4,0,-7,0,2,1
1523145281320072,-12,-11,-31,-61,-50,-13,-12,-23
1523145281321578,2,-6,-5,-22,2,-2,0,3
1523145281321578,4,7,16,-7,0,3,2,8
1523145281342633,-16,-31,-72,-23,-24,-18,-16,-22
1523145281342633,6,24,80,95,31,11,11,18
1523145281344138,7,-7,-35,-58,-12,-9,3,4
1523145281344138,-4,1,21,34,5,9,-3,-7
1523145281356669,0,7,38,43,8,1,-5,-6
1523145281356669,5,-2,-33,-38,-23,-1,5,6
1523145281363691,-3,1,-27,-9,-16,-2,-2,1
1523145281363691,5,14,79,34,22,5,0,-4
1523145281387754,-2,-12,-22,1,-11,1,5,6
1523145281387754,-14,-10,-11,15,-20,-5,-13,-26
1523145281389257,-5,-1,-1,-17,-13,-2,-1,3
1523145281389257,8,2,-13,-9,13,-5,1,14
1523145281393769,2,2,-8,2,1,13,9,8
1523145281393769,-1,-4,9,-12,9,-1,0,-4
1523145281402794,-12,-8,2,28,5,-7,-5,-7
1523145281402794,-3,-7,-17,-11,-9,-7,-5,-10
1523145281417330,7,1,-9,10,8,-2,-3,7
1523145281417330,1,9,27,16,14,2,2,3
1523145281419338,-8,-4,13,19,2,1,-5,-11
1523145281419338,-3,-6,-17,-14,1,1,3,5
1523145281439891,2,-7,-29,-33,-9,-3,-2,3
1523145281439891,-4,0,8,9,-5,-5,-2,-2
1523145281441396,-1,1,0,10,-2,5,0,0
1523145281441396,10,14,28,27,7,5,1,2
1523145281462451,-11,-25,-46,4,-2,-4,-5,-8
1523145281462451,1,-1,10,9,9,5,3,2
1523145281463955,1,0,11,2,8,-1,3,10
1523145281463955,-8,-7,-29,-41,-20,-6,-6,-9
1523145281477494,-1,2,-16,4,-7,-3,-2,0
1523145281477494,1,0,11,-26,19,0,4,3
1523145281478998,1,4,29,39,3,4,-1,-2
1523145281478998,-7,-7,-20,-23,-15,-5,-1,-5
1523145281500052,2,4,5,-22,-25,-4,2,5
1523145281500052,-3,-13,-42,-35,-19,-6,-6,-1
1523145281501561,0,8,8,13,8,3,1,1
1523145281501561,-7,-5,14,39,-5,-5,-5,-7
1523145281522611,1,5,20,-11,9,3,-2,-3
1523145281522611,10,4,-18,-6,-4,6,8,9
1523145281524118,-2,-2,0,-3,1,3,2,2
1523145281524118,-5,-7,-11,-3,3,-4,-6,-9
1523145281538153,0,0,-3,-2,10,2,1,4
1523145281538153,3,4,1,-17,-6,-2,-3,-3
1523145281539657,1,-5,-6,34,19,0,0,0
1523145281539657,-2,-1,-10,-55,-12,-2,0,-1
1523145281560211,-2,1,11,15,7,0,-3,-2
1523145281560211,-2,-3,-7,8,-5,-1,1,0
1523145281561716,-2,-1,-3,-13,1,-3,-5,-3
1523145281561716,-4,-5,-12,-1,-3,3,0,-3
1523145281582770,2,-1,0,-9,1,0,-2,0
1523145281582770,0,2,18,19,-4,-3,0,1
1523145281584275,-3,-2,-1,1,19,3,-1,-4
1523145281584275,3,2,0,26,7,-3,-3,1
1523145281597313,0,2,10,-7,-13,1,0,-1
1523145281597313,-3,-4,-14,-8,9,1,-1,-2
1523145281598815,-3,0,4,11,4,0,-1,-5
1523145281598815,-2,-6,-6,2,-21,-9,-4,-2
1523145281619870,1,4,6,-9,68,3,1,2
1523145281619870,-6,-2,-5,-9,-46,-4,-8,-8
1523145281621375,0,1,1,-6,-25,2,-5,-10
1523145281621375,-2,-2,0,3,11,1,-9,-39
1523145281642430,1,-1,3,8,10,1,-5,-15
1523145281642430,3,-3,3,-1,17,-1,39,69
1523145281643935,-3,-11,-7,-13,-39,-9,-35,-91
1523145281643935,2,2,2,-1,22,15,61,97
1523145281664994,-1,-1,-10,-5,-25,-12,-27,-106
1523145281664994,-1,4,7,4,24,0,-36,-108
1523145281666495,7,4,2,2,-16,14,61,118
1523145281666495,5,-2,-13,-12,-10,1,-19,-128
1523145281680032,-8,-4,4,5,-1,1,-8,-47
1523145281680032,-8,-3,-8,1,-1,-8,-19,-52
1523145281681536,-6,-3,-1,-3,11,-16,-45,-68
1523145281681536,-2,-1,-2,1,-2,-8,-3,26
1523145281702594,6,6,19,3,-9,3,25,77
1523145281702594,-5,-9,-5,-4,-2,-1,-19,-8
1523145281704095,3,-1,7,-8,-11,-7,8,23
1523145281704095,-3,-3,-7,1,0,-1,7,33
1523145281716636,-6,-3,-2,5,-5,-7,-2,-2
1523145281716636,-7,-8,-1,-19,-10,0,-1,22
1523145281723648,15,7,4,-3,1,5,12,12
1523145281723648,-8,-4,-7,17,28,-2,-6,-4
1523145281740190,-1,0,1,-20,-22,-2,-12,-9
1523145281740190,0,5,-9,-18,-2,-1,11,13
1523145281741697,5,7,36,40,12,6,12,15
1523145281741697,0,1,6,16,-27,-3,-22,-23
1523145281762258,-3,-8,-35,-22,-9,-5,6,10
1523145281762258,-3,3,32,73,16,5,16,18
1523145281764256,-14,-5,-27,-55,-4,-5,-11,-24
1523145281764256,-7,-14,-18,-16,-20,-12,-13,-13
1523145281776286,10,21,73,22,28,15,17,29
1523145281776286,-2,-11,-55,-99,-24,-4,1,-6
1523145281785310,2,2,17,88,10,-1,-6,-8
1523145281785310,1,9,33,32,31,6,2,4
1523145281799849,-12,-18,-52,-9,-24,-10,-3,1
1523145281799849,14,1,39,64,22,6,5,10
1523145281801859,-3,1,-15,-60,-28,-6,-6,-11
1523145281801859,-4,-12,-90,-79,10,-11,-5,-2
1523145281822419,7,28,107,95,43,24,5,0
1523145281822419,-3,-10,-37,-51,-14,-6,-6,-8
1523145281823914,-9,-14,-39,-15,-4,-3,4,5
1523145281823914,4,6,26,-14,-14,-2,-2,2
1523145281835945,-12,-7,-28,-52,-6,-11,-12,-24
1523145281835945,-25,-16,-14,55,0,-8,-12,-24
1523145281844969,25,13,18,-9,23,7,18,42
1523145281844969,29,14,16,10,-20,12,13,33
1523145281860010,0,0,-15,-10,-9,-6,-1,6
1523145281860010,1,5,12,-1,-18,1,3,-1
1523145281861514,-20,-13,-6,-10,33,-1,-19,-42
1523145281861514,-11,1,20,17,-18,-4,-7,-13
1523145281882579,0,-12,-23,11,-10,-2,4,9
1523145281882579,3,5,-8,-27,-11,-4,-1,2
1523145281884581,-5,-3,-10,2,2,-7,-4,-8
1523145281884581,0,-3,10,-10,-3,0,-2,-4
1523145281897109,-3,-4,-50,-59,-32,-10,-4,2
1523145281897109,5,5,46,63,52,9,2,4
1523145281903632,1,2,1,5,-2,0,0,3
1523145281903632,-2,-3,1,0,10,-2,-3,-8
1523145281920169,-7,-10,-13,3,-8,-6,-7,-6
1523145281920169,13,11,-15,-31,-8,1,7,15
1523145281921677,0,-3,-2,-1,-8,-4,-1,-4
1523145281921677,-5,-3,14,9,9,1,-2,-5
1523145281942730,-8,-7,-21,-22,5,-4,0,1
1523145281942730,1,-4,-6,12,-1,0,-1,2
1523145281944241,-4,-1,15,9,13,-1,0,-1
1523145281944241,-2,4,20,-8,-26,-6,-5,-9
1523145281956266,4,3,2,7,5,2,1,1
1523145281956266,0,-4,-2,-10,-5,-1,-1,-1
1523145281965290,0,-1,-19,-25,-22,-3,2,7
1523145281965290,2,3,-5,15,17,-1,5,10
1523145281979836,1,-1,22,10,-3,-1,-2,0
1523145281979836,-5,-1,-18,-26,-5,0,-2,-6
1523145281981835,-2,3,0,8,-2,-4,-6,-6
1523145281981835,2,-12,-17,-2,5,0,2,4
1523145282002389,4,-2,-8,-38,-5,0,1,3
1523145282002389,0,2,26,36,4,-1,-2,-4
1523145282003892,-5,0,2,-1,-3,-2,-4,-8
1523145282003892,-2,-1,-17,-12,16,3,-2,-1
1523145282015934,-1,-2,6,1,-3,-5,-2,0
1523145282015934,1,0,-6,-7,1,1,0,2
1523145282024950,2,3,8,18,-1,2,0,0
1523145282024950,-2,-1,5,-12,-17,-2,-2,-2
1523145282039990,0,-3,-11,7,-3,4,-2,-1
1523145282039990,2,-2,-8,-29,-12,-3,-3,0
1523145282041494,-3,-1,-3,18,5,1,0,-2
1523145282041494,-3,-1,0,-4,-15,-3,-2,-8
1523145282062552,0,-3,3,15,35,-1,0,-1
1523145282062552,-4,1,2,3,-7,0,1,3
1523145282064053,-1,-3,-11,-27,-17,0,-3,0
1523145282064053,-1,-1,-5,3,-3,-6,-5,-3
1523145282076086,2,8,0,9,-5,3,0,1
1523145282076086,-1,-4,-15,-16,-3,-2,-1,1
1523145282085109,0,3,21,3,9,1,0,-3
1523145282085109,-5,-2,-3,-2,-12,-3,-3,-2
1523145282100147,1,-4,1,12,7,-1,2,3
1523145282100147,-2,2,-13,-12,-42,3,-5,-5
1523145282101656,-4,-8,3,-14,-40,-6,-7,-15
1523145282101656,-2,0,2,-2,23,3,-12,-45
1523145282122708,-3,-1,-3,0,-5,-1,3,53
1523145282122708,-6,0,0,2,-9,-21,-27,-74
1523145282124214,4,0,1,1,34,16,-1,-46
1523145282124214,5,5,1,1,1,24,85,106
1523145282145269,12,1,-1,0,-1,-6,-2,-64
1523145282145269,1,4,11,8,19,6,3,-13
1523145282146773,-14,-10,-16,-3,-1,-5,-23,-45
1523145282146773,-10,-3,4,1,-1,-17,-66,-128
1523145282159809,6,1,-12,1,4,10,49,118
1523145282159809,5,2,21,3,1,-12,0,8
1523145282161813,-2,-1,-13,-8,0,-7,-13,-12
1523145282161813,-5,-2,-1,3,0,-5,-8,-1
1523145282182367,-2,0,2,2,-6,-4,-15,-36
1523145282182367,-5,-7,-14,-7,3,5,3,7
1523145282183872,1,-5,18,1,4,-2,16,40
1523145282183872,-1,4,0,1,3,-1,0,16
1523145282196404,4,2,8,-2,-10,-4,-11,-20
1523145282196404,0,-10,-17,-10,8,7,7,21
1523145282204927,-3,1,-2,0,1,-3,6,9
1523145282204927,0,-7,-2,6,5,-3,0,11
1523145282219969,-10,-5,-8,-3,-2,-3,-14,-29
1523145282219969,8,4,12,11,-3,3,8,14
1523145282221474,11,3,-11,-13,16,0,9,25
1523145282221474,6,10,35,23,-7,1,-3,6
1523145282242528,-5,-7,-10,-32,-1,-2,-8,-17
1523145282242528,-3,-2,5,-11,0,-3,1,1
1523145282244034,-3,2,6,3,-8,-2,1,-1
1523145282244034,3,-2,-46,-34,-14,-6,-3,8
1523145282265096,-6,-6,28,61,12,5,0,-12
1523145282265096,-7,-3,-27,-31,-31,-11,-6,0
1523145282266593,-12,-13,-33,-18,1,-5,-4,-13
1523145282266593,9,4,-2,-48,-27,10,7,19
1523145282279626,5,-2,-19,4,-5,-3,-1,-2
1523145282279626,3,10,31,4,14,11,5,2
1523145282286153,2,-6,-35,-27,-12,-1,-3,1
1523145282286153,-18,-17,-49,-39,-17,-19,-11,-18
1523145282302687,-3,6,48,69,27,5,1,-1
1523145282302687,4,4,9,-7,18,0,3,5
1523145282304192,1,11,9,0,-10,-1,0,0
1523145282304192,-8,-15,-6,8,0,-6,-2,1
1523145282316232,1,0,-1,-26,29,8,1,-4
1523145282316232,-2,-8,-15,-7,6,-2,-1,2
1523145282325248,2,5,25,25,9,1,3,5
1523145282325248,3,-2,-4,9,1,-3,-5,-1
1523145282339286,-3,-3,-21,-29,-24,-6,-3,-3
1523145282339286,-6,3,23,60,15,0,-2,-4
1523145282353823,1,-2,-2,-21,-5,-2,3,1
1523145282353823,0,-2,-10,-4,3,2,2,6
1523145282362355,-4,5,25,30,-2,0,-5,-12
1523145282362355,9,6,-7,-11,4,-1,5,11
1523145282364353,8,1,6,2,-12,7,7,14
1523145282364353,-6,-2,-4,4,14,-1,-5,-11
1523145282376383,-5,-2,1,-6,-13,-2,-2,-5
1523145282376383,-1,-3,-17,-36,-2,-6,-5,-11
1523145282385911,2,3,7,36,6,3,-1,7
1523145282385911,1,1,12,-1,-2,2,3,8
1523145282399948,2,-2,-8,-11,-4,-1,-1,0
1523145282399948,-5,-2,-9,-1,-13,-1,-1,-1
1523145282401452,-5,-4,2,-13,-1,-6,-1,-7
1523145282401452,6,2,-6,-8,1,0,0,1
1523145282422004,-3,-3,-9,8,-20,-4,-1,-1
1523145282422004,-2,7,46,29,-16,1,2,-1
1523145282422507,-2,1,-2,3,3,0,-2,-1
1523145282422507,3,-6,1,16,0,4,3,7
1523145282444065,-1,-1,-10,-36,0,-3,-1,0
1523145282444065,-6,-9,-21,-1,-17,-6,-5,-6
1523145282445067,-2,1,9,10,22,0,1,-3
1523145282445067,0,7,20,18,0,5,1,1
1523145282459105,-2,-1,-19,-19,-11,-4,-2,0
1523145282459105,1,-3,-7,-5,-2,2,-1,-1
1523145282460107,-2,0,6,-18,-4,-8,-5,-6
1523145282460107,-2,-2,-1,4,2,6,1,-1
1523145282481672,-1,-2,13,15,0,0,-3,-2
1523145282481672,1,-1,-17,-18,11,-1,0,4
1523145282482668,1,-2,-11,-5,4,0,0,7
1523145282482668,-3,3,21,4,-3,-4,-2,-3
1523145282504225,-1,-2,-8,-22,-7,-2,-1,-4
1523145282504225,-4,-3,-12,2,2,-2,-1,-5
1523145282505229,11,0,-1,-15,-15,-1,1,4
1523145282505229,-9,-3,-10,14,15,-3,-2,-1
1523145282519264,0,2,0,-16,-22,-1,-1,-1
1523145282519264,-1,-2,-10,-15,4,-8,-4,-1
1523145282520268,0,1,10,20,4,7,0,0
1523145282520268,-3,-4,1,-4,0,-3,-2,-2
1523145282541825,-1,-2,-4,-8,-5,-7,-5,-3
1523145282541825,4,3,4,-1,17,5,4,6
1523145282542826,-1,-1,-5,-3,-11,-5,-3,-2
1523145282542826,-1,-4,6,12,2,1,1,-2
1523145282564392,-6,-4,-6,-2,2,-1,-1,-2
1523145282564392,2,-1,-7,6,-11,-3,-2,-1
1523145282564891,-5,-1,3,11,3,0,-1,-3
1523145282564891,1,3,-1,-4,19,-2,-1,-1
1523145282579426,1,-2,2,-1,-22,1,-1,0
1523145282579426,-1,-3,3,-2,2,1,-1,1
1523145282579926,-4,-3,-2,23,22,-2,0,0
1523145282579926,0,0,5,4,-13,-5,-4,-3
1523145282601983,-3,-2,-4,-5,10,2,-6,-8
1523145282601983,-3,-2,0,-2,-2,8,-6,-32
1523145282602486,-5,-2,-2,3,-3,-19,-8,-17
1523145282602486,3,-1,-1,-6,-9,5,0,7
1523145282624543,6,3,5,4,16,27,42,93
1523145282624543,-4,-3,-6,13,7,-11,-20,-33
1523145282625046,0,-3,-2,-11,-18,-9,-32,-85
1523145282625046,1,3,5,3,5,7,66,90
1523145282639083,5,-1,-2,-10,0,-15,-13,-52
1523145282639083,-5,-1,2,-2,-42,-4,-2,-4
1523145282640085,-6,-4,-7,-4,0,0,-21,-47
1523145282640085,-2,1,-1,-1,-5,-12,-37,-69
1523145282661644,-2,-1,10,6,-4,-3,0,-1
1523145282661644,0,-1,-7,0,22,-1,9,19
1523145282662647,-4,-4,8,-2,-6,5,1,11
1523145282662647,2,0,1,2,-4,3,2,9
1523145282684204,-5,0,-4,0,8,0,4,12
1523145282684204,-1,5,-2,-2,6,-6,-7,-5
1523145282685206,2,-6,-11,-3,9,5,15,41
1523145282685206,-3,6,3,4,-20,4,5,7
1523145282699243,2,2,-2,4,17,-3,-13,-26
1523145282699243,-1,-2,1,-11,-8,-2,-1,-3
1523145282700251,-1,-2,-2,5,-18,2,11,24
1523145282700251,0,-1,-4,-19,-1,-3,-7,-11
1523145282721803,1,8,-3,17,-5,-5,-8,-17
1523145282721803,-4,-17,-19,-6,5,0,8,13
1523145282722305,1,8,22,14,12,4,8,15
1523145282722305,-4,-9,-16,-14,-5,-9,-18,-25
1523145282744363,11,9,26,43,3,-2,-2,5
1523145282744363,0,8,19,14,13,10,12,18
1523145282744865,-5,-9,-17,3,-11,-4,-2,0
1523145282744865,-5,-2,4,-23,-7,0,-5,-14
1523145282759404,-5,-7,-38,-25,13,-7,-6,-2
1523145282759404,-3,-6,-1,-38,-19,2,-1,-5
1523145282759905,-4,8,53,78,8,-4,-5,-9
1523145282759905,1,-7,-21,5,-3,0,1,6
1523145282781963,19,8,30,8,5,6,13,27
1523145282781963,7,5,-15,-44,-7,-2,-3,-2
1523145282782465,-1,-11,-50,-49,-12,-3,-1,4
1523145282782465,-14,-9,9,11,20,-5,-8,-17
1523145282804523,-7,-5,4,-15,2,-3,-9,-16
1523145282804523,9,6,9,27,-8,3,5,11
1523145282805025,6,7,6,-6,3,5,5,12
1523145282805025,-4,-11,-46,-38,-25,-11,-7,-8
1523145282818560,-1,5,48,55,0,4,-4,8
1523145282818560,-5,-1,29,42,37,1,-3,-18
1523145282826584,-2,-4,-9,-18,-17,6,6,8
1523145282826584,6,4,7,19,4,1,0,1
1523145282841621,-10,-8,-40,-50,-21,-7,-5,-10
1523145282841621,-3,-1,3,-1,-16,-1,2,2
1523145282842626,-3,6,6,3,20,0,-3,-3
1523145282842626,12,1,4,6,11,7,5,13
1523145282864184,-5,-4,-15,-34,-29,-5,-1,-8
1523145282864184,0,1,-3,19,33,1,0,4
1523145282865183,0,-1,-4,-11,-1,-2,1,-3
1523145282865183,-2,8,21,0,4,3,1,-2
1523145282879224,-5,-10,-14,-2,-9,-4,-4,-7
1523145282879224,-1,4,-6,-2,3,-2,-2,-4
1523145282880229,-6,-15,-19,-10,-11,-4,-1,4
1523145282880229,8,11,6,-5,6,0,2,8
1523145282901782,-2,1,22,40,-11,-1,1,-2
1523145282901782,-2,0,-11,-11,2,1,-1,0
1523145282902784,0,2,-4,-18,-11,-2,-1,2
1523145282902784,-5,-5,3,-2,-4,-3,-6,-8
1523145282924342,-4,-7,-31,-7,9,-4,-2,-5
1523145282924342,6,-1,8,0,-5,-2,1,6
1523145282924844,1,5,17,10,3,-2,0,3
1523145282924844,-3,-4,1,30,-15,-2,-4,-4
1523145282939382,-4,3,1,-39,21,4,-2,-6
1523145282939382,-7,-7,-19,-11,-18,-7,-3,-1
1523145282939883,-2,-7,-6,24,8,3,2,2
1523145282939883,-3,0,-4,-9,-19,-4,-3,-7
1523145282961942,-2,-8,-19,-22,-8,-2,-1,-1
1523145282961942,2,7,31,20,-5,1,-1,4
1523145282962444,0,-1,4,-15,11,-2,0,2
1523145282962444,-5,-2,8,-7,-5,0,-4,-8
1523145282984501,-2,-5,-7,-1,-2,0,0,-3
1523145282984501,0,-6,-9,-3,1,-3,-2,3
1523145282985005,2,4,-16,-24,-10,-2,1,2
1523145282985005,2,2,16,14,11,0,-2,-3
1523145282998596,-5,-3,7,1,11,1,2,1
1523145282998596,-3,-4,-16,-26,-40,-6,-3,-4
1523145283006561,1,3,7,17,24,4,-1,0
1523145283006561,0,1,-9,-4,1,-2,0,1
1523145283022103,2,-1,-19,-39,-26,-8,-4,-3
1523145283022103,-2,-4,-21,33,30,3,0,-2
1523145283022604,-5,12,62,10,6,6,3,-2
1523145283022604,0,-3,-10,-9,-2,-2,0,0
1523145283044664,6,1,7,14,5,1,1,5
1523145283044664,-3,-9,-24,-26,-5,-2,-3,-3
1523145283045167,0,-5,-18,-4,-9,-3,-4,-2
1523145283045167,-3,1,9,7,-10,4,0,-2
1523145283058699,-2,2,3,5,4,-1,-3,-3
1523145283058699,1,-1,10,0,-9,-2,-1,0
1523145283066721,-1,-3,-9,6,-10,-5,-3,-1
1523145283066721,-1,-1,3,-14,6,-1,1,-1
1523145283081761,2,-1,-4,12,-4,-3,0,-1
1523145283081761,2,-1,10,0,19,-2,0,-1
1523145283082762,-2,-4,-8,-10,-13,0,-8,-7
1523145283082762,1,-2,-11,-2,6,0,-14,-50
1523145283104322,-3,3,8,3,4,5,19,44
1523145283104322,0,-1,2,7,-6,-4,-16,-10
1523145283105323,3,0,-8,-7,3,18,15,2
1523145283105323,2,-3,-1,2,3,-8,23,58
1523145283118860,0,-2,5,5,7,-4,-13,-32
1523145283118860,-2,2,6,1,-5,11,11,55
1523145283126881,-1,-1,-15,-10,-4,-15,-4,13
1523145283126881,-4,0,3,5,0,1,-13,-34
1523145283141928,-5,-1,9,10,-3,-2,-2,-28
1523145283141928,-2,-4,-8,-7,-7,-8,-11,-37
1523145283142424,-3,-1,2,-5,-2,2,-6,-7
1523145283142424,-1,-4,-4,7,4,-1,2,11
1523145283164483,-1,5,-5,-9,-5,-5,-8,-12
1523145283164483,0,-12,6,5,-4,1,-1,-28
1523145283164982,1,1,-2,2,5,4,19,69
1523145283164982,0,0,-1,-3,-1,-1,-2,-4
1523145283178519,-2,2,-7,-2,-5,1,-2,11
1523145283178519,-2,3,0,-12,-5,0,-3,-20
1523145283187040,-2,-23,-21,2,-19,-8,2,7
1523145283187040,1,6,6,0,9,0,-4,-8
1523145283201580,-1,-8,-2,16,10,4,-4,1
1523145283201580,-2,3,-8,-14,-12,0,8,4
1523145283202583,-8,-1,5,-10,-2,-10,-8,-18
1523145283202583,2,-2,-2,-2,-10,1,-3,5
1523145283224141,-1,1,-13,-10,15,8,4,-3
1523145283224141,-7,-3,24,37,-15,-5,-4,-6
1523145283225144,-2,-5,-22,-22,26,3,-5,-13
1523145283225144,11,6,20,35,9,3,7,23
1523145283238681,-3,-5,-42,-47,-19,-9,-3,-1
1523145283238681,5,9,55,48,15,5,3,5
1523145283246708,-2,4,9,1,-3,-1,-5,-20
1523145283246708,-7,-15,-53,-28,-24,-11,-10,-9
1523145283261748,0,12,33,22,24,7,5,6
1523145283261748,-5,-27,-44,-53,-13,-6,-3,2
1523145283262744,0,4,-17,-12,-9,-5,-4,-12
1523145283262744,8,12,45,12,20,7,4,9
1523145283284301,-4,-15,-30,-39,-27,-5,-3,-6
1523145283284301,-1,10,15,31,14,-2,0,4
1523145283285302,-5,-4,-4,26,6,5,-1,-3
1523145283285302,-7,-8,-12,-50,-8,-5,-4,-9
1523145283298838,-1,1,28,38,8,4,-1,1
1523145283298838,14,10,-29,-49,-6,6,13,25
1523145283306863,3,6,47,62,6,-3,-6,-8
1523145283306863,-7,-3,-16,-18,-4,1,1,-8
1523145283321400,-3,-6,4,14,2,-5,-3,-3
1523145283321400,1,5,12,-38,2,-1,3,8
1523145283329428,-3,-6,-26,-15,-8,-4,-7,-11
1523145283329428,-2,-2,-19,-11,-9,-4,-1,5
1523145283344460,12,11,51,48,2,8,6,6
1523145283344460,-7,-8,-30,1,-7,-2,-3,-5
1523145283344967,-3,-4,-3,-21,-2,-1,-1,-3
1523145283344967,-9,-1,3,-35,-11,0,-3,-3
1523145283367521,5,1,-7,-6,-5,-8,0,3
1523145283367521,-4,2,5,19,23,-3,-7,-3
1523145283368524,2,0,4,-1,-7,-3,-2,-9
1523145283368524,-1,3,-9,3,-4,-3,2,8
1523145283381566,-2,-20,4,-2,-1,-1,-3,-3
1523145283381566,-2,2,2,-2,0,-1,-4,-1
1523145283382561,9,2,-22,-52,-17,-4,1,5
1523145283382561,1,8,47,106,37,4,0,-2
1523145283404118,-4,7,7,-31,-39,1,0,3
1523145283404118,-7,-3,2,17,7,-2,-5,-10
1523145283405122,-7,-5,-11,-7,-12,-1,-3,-6
1523145283405122,5,-2,-9,-9,-5,-2,1,5
1523145283427682,-6,-2,-19,1,27,0,-2,-4
1523145283427682,-2,-5,-9,-29,-19,-4,-3,-2
1523145283428182,-1,-2,-6,-28,-8,-2,-1,1
1523145283428182,2,6,32,44,11,3,2,3
1523145283441717,-6,-3,-26,-10,5,-1,0,0
1523145283441717,-1,-8,4,5,-2,-1,-3,-4
1523145283442722,2,2,-3,-13,21,-3,1,1
1523145283442722,-5,-6,-14,-25,-20,-3,-5,-7
1523145283464281,2,6,19,35,7,3,0,3
1523145283464281,-2,3,-6,4,2,1,0,-2
1523145283464779,-3,-4,3,4,-15,-5,0,-1
1523145283464779,5,0,-6,-7,33,3,4,7
1523145283487339,1,-4,-20,-25,-9,-6,-4,-3
1523145283487339,-3,-1,0,1,-5,-1,1,1
1523145283488343,-1,3,10,10,-4,1,-1,-5
1523145283488343,-6,-4,-14,-29,1,-1,-3,-4
1523145283501882,5,-4,-7,-13,-4,-4,-2,1
1523145283501882,-5,-1,-5,13,4,-3,-3,-3
1523145283502380,-1,5,23,6,-3,1,1,1
1523145283502380,-3,-8,-7,15,-4,-1,-1,-4
1523145283524440,-5,0,-1,-12,-4,-3,-3,-3
1523145283524440,8,-4,-31,-23,-12,-4,4,8
1523145283524941,4,11,44,30,15,8,5,4
1523145283524941,-3,0,7,21,6,0,-1,0
1523145283547500,-5,-6,-5,-6,-24,-2,-3,-4
1523145283547500,-1,2,-8,-2,10,4,-4,-4
1523145283548502,-1,-8,-16,-27,-10,-2,1,4
1523145283548502,0,0,5,19,21,0,-2,-3
1523145283561537,0,0,1,-1,-3,-4,0,-2
1523145283561537,-1,1,5,4,-5,-2,-2,0
1523145283562540,-2,-1,-12,-9,3,-2,-5,-3
1523145283562540,0,-2,-11,-7,-32,-4,-1,-5
1523145283584098,3,3,6,0,12,-2,2,3
1523145283584098,2,0,7,8,17,7,4,4
1523145283585101,-4,-3,-13,0,6,-3,-12,-13
1523145283585101,-7,-5,-7,-13,-11,-6,-21,-59
1523145283607658,-1,4,4,16,2,-2,-11,-12
1523145283607658,3,-7,0,-6,5,5,26,25
1523145283608162,-1,0,1,15,8,5,30,64
1523145283608162,4,-2,-8,-5,-3,1,-7,28
1523145283621706,-2,8,3,-15,-10,-9,3,38
1523145283621706,-5,-7,-1,7,-1,-13,-21,-91
1523145283622699,3,-4,-4,15,30,30,9,53
1523145283622699,2,-1,-1,-5,-32,-7,25,32
1523145283644260,-3,-2,-6,-11,5,0,-22,-43
1523145283644260,-8,2,-4,-4,-28,-14,-15,-3
1523145283645260,-3,-1,3,3,-10,-13,-24,-64
1523145283645260,6,-1,-6,-15,-4,4,-5,-13
1523145283667319,-9,-4,-5,20,17,7,10,21
1523145283667319,0,-4,10,2,-6,-1,-1,5
1523145283668322,2,3,-4,-5,-11,-3,-2,-14
1523145283668322,2,0,-1,-4,9,-2,1,12
1523145283681859,-1,-6,-4,-5,-9,-3,4,-5
1523145283681859,-2,5,2,-10,-3,4,-1,5
1523145283682360,-2,-8,-10,13,3,-4,-2,-4
1523145283682360,4,11,23,0,-1,1,6,16
1523145283704418,0,3,-8,9,0,2,0,-13
1523145283704418,-4,-11,-15,-11,9,-2,-4,-3
1523145283704920,-4,-9,-5,5,-25,-5,-3,3
1523145283704920,14,21,60,2,30,13,14,9
1523145283727478,2,-6,-22,-25,-3,1,-4,-7
1523145283727478,0,4,2,1,-8,-3,-2,7
1523145283728483,-9,-2,8,21,7,-4,-5,-19
1523145283728483,-7,-9,-24,-10,-3,-3,-7,-14
1523145283742018,1,1,19,-11,-2,2,3,2
1523145283742018,-9,-2,-25,-56,-29,-10,-4,3
1523145283742523,16,9,6,-13,55,6,8,9
1523145283742523,-7,-22,-63,-14,-23,-12,-10,-11
1523145283764577,3,20,64,57,12,12,7,-9
1523145283764577,2,-13,-20,-7,-13,-5,-4,6
1523145283765080,4,5,-12,-20,-21,1,8,11
1523145283765080,-4,5,16,35,20,3,1,-1
1523145283787670,-10,-17,-62,-68,-4,-7,-6,-11
1523145283787670,-4,6,38,62,7,1,-2,-7
1523145283788172,7,5,8,20,-11,-3,-1,-2
1523145283788172,-7,-11,-1,-15,-6,-4,-5,-3
1523145283801709,0,2,13,65,6,-5,-4,-2
1523145283801709,1,9,34,12,7,8,5,11
1523145283802712,-17,-20,-44,-31,-18,-13,-19,-25
1523145283802712,-7,-5,-12,-26,-10,-3,-2,-4
1523145283824272,9,2,25,38,16,4,10,23
1523145283824272,10,4,-8,-5,-4,2,7,9
1523145283825270,-4,0,-12,-27,-11,-5,0,-7
1523145283825270,-9,1,21,17,-2,-1,-6,-13
1523145283847333,-3,-7,-4,-16,-9,-5,-1,-1
1523145283847333,5,-3,-15,-14,10,5,5,11
1523145283848332,-4,1,10,13,-12,-1,-3,-8
1523145283848332,-3,0,8,-37,14,-2,-3,-4
1523145283861868,3,6,19,62,16,2,2,7
1523145283861868,-5,3,7,4,-1,4,1,-3
1523145283862370,2,-12,-15,-18,-16,1,0,-1
1523145283862370,2,-5,-32,-22,-15,-4,0,4
1523145283884434,2,7,0,-18,-4,-1,-2,-1
1523145283884434,-6,-14,-13,3,-1,-6,-6,-6
1523145283884932,-9,0,16,17,20,1,0,-2
1523145283884932,0,-7,-22,-21,-14,-1,-2,0
1523145283907491,3,5,43,14,6,5,2,4
1523145283907491,-2,5,-2,1,1,1,-2,0
1523145283908492,3,2,7,-4,21,-1,-2,0
1523145283908492,-5,-2,-6,-4,-21,-2,-2,-3
1523145283922029,-9,-10,-29,-33,-10,-6,-3,-10
1523145283922029,1,-2,-1,-21,-12,-5,0,2
1523145283922531,2,7,29,48,4,0,-1,-1
1523145283922531,1,1,7,20,18,2,1,0
1523145283944588,2,-2,-20,-19,-8,-1,0,1
1523145283944588,-2,1,4,13,7,-2,1,3
1523145283945090,-2,-1,-22,-28,-29,0,-2,-5
1523145283945090,-3,-6,7,13,6,1,0,0
1523145283967649,1,-7,-12,-24,-15,-4,-3,-1
1523145283967649,-4,0,-7,-19,10,-2,0,-1
1523145283968655,-4,3,2,-9,6,0,-1,-4
1523145283968655,2,0,-6,-4,1,0,0,5
1523145283981188,-2,-6,-13,-11,3,-2,0,0
1523145283981188,3,-1,-13,-8,-11,0,0,-2
1523145283989213,-2,2,19,19,9,-1,-4,-2
1523145283989213,-2,0,2,-2,-18,-3,0,-4
1523145284004247,1,-5,-23,-25,-2,-4,-3,-2
1523145284004247,-3,-4,14,39,1,0,-2,1
1523145284005250,4,-2,-7,-19,-10,-3,0,2
1523145284005250,8,6,2,-4,-1,1,4,7
1523145284027310,-3,-3,-5,10,-11,-3,-4,-4
1523145284027310,0,-2,-15,-11,4,-2,-2,-1
1523145284028312,-2,-5,2,18,-2,0,0,-2
1523145284028312,-6,-1,6,5,-6,-4,-5,-14
1523145284041346,-4,-6,-13,-24,-14,-5,-2,-2
1523145284041346,12,6,11,14,30,9,7,20
1523145284049370,-3,-3,-9,-12,-21,-6,-4,-3
1523145284049370,3,0,4,15,16,4,-2,-6
1523145284064407,-6,-2,7,4,1,2,7,13
1523145284064407,-3,1,-13,-18,-7,-4,-4,-6
1523145284064909,0,-3,2,7,2,0,1,3
1523145284064909,-3,-2,-1,3,0,-3,-6,-6
1523145284087972,2,4,6,-2,10,0,-4,-13
1523145284087972,2,0,12,3,-32,1,-1,4
1523145284088472,0,3,-5,-11,5,-3,6,12
1523145284088472,-3,-3,-3,0,2,-1,-1,-1
1523145284101007,-3,-3,1,4,1,0,-3,-5
1523145284101007,-4,-1,3,-12,-18,-8,-6,-15
1523145284109527,1,0,3,14,21,3,-1,-2
1523145284109527,8,0,-10,-27,8,-3,0,1
1523145284124567,-9,-4,11,2,-51,-3,-5,-4
1523145284124567,-3,-2,-1,8,5,-1,1,4
1523145284125069,4,-2,-4,-7,1,0,-1,-7
1523145284125069,9,6,4,16,-10,0,3,22
1523145284147633,2,2,-6,-16,26,-1,0,-11
1523145284147633,-6,-5,-2,4,14,6,9,17
1523145284148134,-11,-5,-6,-4,-23,-14,-22,-34
1523145284148134,-6,1,10,8,20,-7,-19,-62
1523145284161167,7,1,1,2,-8,12,15,74
1523145284161167,-1,-4,-1,-1,8,6,29,45
1523145284169186,2,6,1,-3,6,7,-10,-61
1523145284169186,-3,-16,-3,10,0,5,30,109
1523145284184226,3,-1,5,-4,2,-6,-8,-4
1523145284184226,1,-3,-13,4,-2,-9,-13,-27
1523145284185229,1,7,15,-5,0,2,2,14
1523145284185229,-9,4,-3,-2,-6,-10,-23,-63
1523145284207288,-4,-2,-3,9,-1,-5,-8,-30
1523145284207288,4,-2,-1,-10,5,2,2,10
1523145284208291,-1,1,-2,9,11,1,0,-2
1523145284208291,1,2,-1,-11,-2,1,0,-10
1523145284229850,2,-1,-6,-10,-7,0,7,11
1523145284229850,1,11,18,7,-11,-3,-8,-19
1523145284230850,-4,-14,-7,-6,15,0,0,6
1523145284230850,0,2,-10,0,-5,1,5,9
1523145284244387,-14,-3,-15,-16,-4,-7,1,2
1523145284244387,-6,-8,3,28,5,0,-12,-22
1523145284244888,0,6,7,-21,-18,-1,5,16
1523145284244888,-7,-11,-23,-8,-7,1,4,11
1523145284267450,6,10,45,23,13,1,-5,-20
1523145284267450,-9,-15,-49,-21,-27,-13,-12,-17
1523145284268453,1,8,8,-31,23,7,9,21
1523145284268453,4,3,4,-15,0,1,0,-1
1523145284280985,2,-16,-73,-56,-28,-11,-8,-9
1523145284280985,0,16,91,66,41,15,4,-5
1523145284289505,-5,-20,-45,-12,-3,-7,0,8
1523145284289505,-2,-10,-54,-52,-41,-10,-4,-5
1523145284304546,12,18,44,44,32,9,3,4
1523145284304546,3,1,-17,-40,-12,-2,-1,8
1523145284305049,-1,-5,-6,14,-3,-1,-2,-5
1523145284305049,-3,3,15,11,11,1,-3,-10
1523145284327617,-10,-12,-16,-4,-1,-1,-2,-8
1523145284327617,0,1,-19,1,1,-3,-5,-6
1523145284328611,0,-2,5,-30,-10,-2,4,4
1523145284328611,-15,3,36,56,5,-2,-12,-28
1523145284350167,-8,-11,-5,25,-6,-6,-4,6
1523145284350167,36,34,51,4,25,18,25,49
1523145284350670,3,-4,-19,-14,-17,-4,0,2
1523145284350670,-4,-6,-2,-4,10,2,-1,-3
1523145284364208,-12,-4,-2,3,-19,-8,-8,-27
1523145284364208,-13,-9,-14,-7,10,-4,-11,-21
1523145284365209,0,-7,-43,-24,-12,-9,2,9
1523145284365209,3,16,59,52,25,5,4,1
1523145284387267,1,-4,-4,-10,2,3,-3,-6
1523145284387267,-1,-9,-29,-55,-34,-5,0,4
1523145284388270,0,1,-6,-16,-7,-5,-5,0
1523145284388270,2,-1,0,19,5,0,1,3
1523145284409828,7,6,2,-1,13,6,4,4
1523145284409828,-5,-6,20,22,1,-2,-2,-5
1523145284410829,-3,4,11,-2,-1,-2,-2,-5
1523145284410829,-3,-3,-14,-8,-19,-5,-8,-5
1523145284424365,3,5,18,32,14,3,5,7
1523145284424365,0,-8,-7,-15,2,1,-1,-6
1523145284424866,-8,-1,-2,4,-26,-4,-1,4
1523145284424866,4,1,18,10,1,-1,3,6
1523145284447429,2,1,-6,-6,23,1,0,-5
1523145284447429,-3,-1,-13,-8,-12,-6,-3,-8
1523145284448430,5,3,17,14,4,7,1,1
1523145284448430,-1,-7,-28,-28,-8,-2,1,6
1523145284469987,-3,-2,-4,12,-3,-4,-4,-5
1523145284469987,-4,-6,-6,8,3,-5,-6,-7
1523145284470991,2,7,16,35,9,2,0,2
1523145284470991,1,-3,-20,-23,-5,-1,1,3
1523145284484526,2,0,-14,-24,-1,-1,0,0
1523145284484526,-6,-8,-5,-18,-18,-6,-6,-6
1523145284485030,0,0,6,1,0,-1,-4,-8
1523145284485030,3,14,31,28,35,10,8,12
1523145284507587,0,-14,-15,-11,-8,-2,-1,8
1523145284507587,-3,-1,-15,-2,1,-2,-3,-6
1523145284508089,-4,-3,-4,-23,-15,-4,-5,-7
1523145284508089,-3,-1,-2,-3,-10,-3,-1,-2
1523145284530647,2,1,-3,-15,-1,0,1,-1
1523145284530647,-9,-2,5,12,3,1,3,-1
1523145284531150,-1,-1,12,30,10,0,-3,0
1523145284531150,1,-2,-6,-29,-5,-4,0,1
1523145284544184,-1,1,0,6,-9,2,-1,-1
1523145284544184,-1,-1,-3,-3,6,-1,-3,-4
1523145284545187,1,3,9,4,-2,0,3,4
1523145284545187,-3,-9,-14,8,8,-2,-2,2
1523145284567746,-1,0,2,-42,-33,-3,-10,-28
1523145284567746,-5,0,0,10,12,2,-14,-33
1523145284568248,0,-2,-2,5,-1,1,-3,-15
1523145284568248,10,1,2,0,-6,4,6,61
1523145284589805,4,0,0,6,7,3,56,91
1523145284589805,-1,-4,-9,-22,-5,-2,-20,-65
1523145284590808,-10,-8,6,31,8,-8,-26,-60
1523145284590808,-6,1,-2,-5,-16,3,-19,-61
1523145284604345,15,9,17,-3,1,3,40,47
1523145284604345,2,2,-8,1,-13,-3,8,25
1523145284604846,1,-1,-6,-2,18,-6,-21,-74
1523145284604846,-9,-10,-9,0,-7,-10,4,8
1523145284627408,-7,8,8,4,8,16,-28,-50
1523145284627408,-4,-6,-8,1,1,-4,6,14
1523145284628423,0,-2,2,1,-12,-1,-8,-16
1523145284628423,1,7,-6,-5,4,-6,2,-6
1523145284649970,-1,-14,-6,13,9,-1,-3,5
1523145284649970,1,3,1,-12,-17,-3,-1,1
1523145284650967,4,0,1,7,10,3,11,34
1523145284650967,-1,-3,-8,-13,-15,3,7,10
1523145284664521,-3,0,0,1,16,-4,-12,-18
1523145284664521,-1,4,3,2,11,0,-6,-3
1523145284665010,6,0,-8,-1,7,1,16,42
1523145284665010,-1,3,12,-4,-13,0,1,-9
1523145284687565,-8,-8,-26,-13,-17,-15,-26,-37
1523145284687565,8,3,36,14,16,7,11,21
1523145284688067,-6,-2,-10,16,2,4,9,26
1523145284688067,4,2,-12,-29,-4,-3,-3,-9
1523145284710126,-4,-11,-16,28,-7,1,-7,-17
1523145284710126,-1,4,42,61,10,1,0,1
1523145284710627,-14,-14,-16,-30,-19,-5,4,10
1523145284710627,8,-3,-44,-87,-10,0,-3,-5
1523145284724163,8,33,91,54,45,11,1,1
1523145284724163,-7,-17,-52,-65,-15,-4,1,5
1523145284725167,-8,-8,-35,-69,-13,-3,-3,-8
1523145284725167,-6,-1,43,63,1,-4,-4,-7
1523145284746725,1,-7,-44,-50,-11,-5,2,7
1523145284746725,4,2,36,72,21,9,4,2
1523145284747724,8,2,-18,-29,22,-2,1,7
1523145284747724,-9,-10,-35,-43,-17,-1,1,-2
1523145284769785,-2,9,50,76,6,-2,-4,-13
1523145284769785,-9,-17,-57,-62,-30,-11,-5,0
1523145284770787,15,14,41,65,36,13,14,25
1523145284770787,-8,3,52,28,12,2,-1,-14
1523145284784324,-19,-26,-77,-52,-27,-17,-16,-13
1523145284784324,22,27,75,34,17,-1,13,25
1523145284785326,-7,-15,-82,-93,-40,-10,-5,-1
1523145284785326,10,4,54,107,26,22,9,5
1523145284806884,-15,6,39,-23,-9,1,-11,-28
1523145284806884,-17,-19,-57,-35,-16,-16,-11,-9
1523145284807384,30,25,61,46,10,-10,21,54
1523145284807384,-3,-12,-33,-24,-6,-1,-6,-6
1523145284829947,0,-6,-22,-19,-21,-6,0,2
1523145284829947,-1,4,-20,-5,3,5,-3,-10
1523145284830948,-20,-11,27,28,-3,-16,-12,-26
1523145284830948,4,-8,-21,-30,1,-11,-3,5
1523145284843480,6,2,-11,-7,5,3,4,11
1523145284843480,-3,2,2,-2,-11,-2,-1,-6
1523145284852002,-4,2,-2,-10,-6,5,-5,-8
1523145284852002,1,3,2,-8,-2,-1,-1,1
1523145284867546,1,-6,-21,-27,-10,-5,1,2
1523145284867546,2,1,-6,-3,1,2,-1,2
1523145284868546,-3,1,15,29,32,13,1,1
1523145284868546,-1,-1,-9,14,-3,3,-3,-3
1523145284890105,-3,3,11,-20,2,-9,-6,-6
1523145284890105,0,-6,-35,-47,-10,-6,-2,1
1523145284890609,11,8,47,20,-5,9,4,7
1523145284890609,-4,-1,-8,-20,-11,-5,-1,0
1523145284903642,-2,-6,-40,-37,-7,-4,-2,0
1523145284903642,-2,-3,2,-9,-4,-6,-4,-2
1523145284911664,-5,-2,28,27,17,12,0,-6
1523145284911664,0,2,-9,-9,-11,-5,-4,-1
1523145284927703,-9,-6,-9,19,6,-8,-5,-6
1523145284927703,-13,-4,17,43,-5,14,-3,-16
1523145284928206,2,3,-8,0,-12,-4,1,10
1523145284928206,16,5,-3,-11,7,3,12,28
1523145284949768,2,3,2,2,8,1,-1,2
1523145284949768,-4,-7,-10,4,-7,-7,-3,-6
1523145284950767,-14,-7,-6,4,-11,-7,-10,-20
1523145284950767,-6,-2,-22,-10,-6,6,-2,-9
1523145284963799,4,0,-5,-25,16,0,1,4
1523145284963799,3,9,46,43,1,0,1,2
1523145284971822,-3,-7,-16,-41,6,-4,-1,-2
1523145284971822,-2,-9,-27,-18,-4,-19,-6,-4
1523145284987363,-1,-5,-7,-15,-4,18,1,0
1523145284987363,1,2,-19,-42,-13,1,1,0
1523145284988367,4,2,51,93,-2,7,3,1
1523145284988367,-5,-1,5,5,13,-8,-4,-8
1523145285009924,-4,-5,-3,-12,-7,-6,-4,-9
1523145285009924,8,1,-16,-21,15,2,4,15
1523145285010926,7,1,-19,-18,-6,0,2,7
1523145285010926,-5,0,3,0,-11,-13,-5,-8
1523145285023467,1,3,11,36,8,6,3,2
1523145285023467,-4,-5,-17,-29,-13,-5,-5,-7
1523145285031984,-5,-3,17,51,2,0,0,-5
1523145285031984,-1,7,49,15,11,8,0,0
1523145285047042,4,-1,-8,-4,-5,-2,1,2
1523145285047042,-6,0,8,8,15,2,1,1
1523145285047524,-6,-9,-43,-48,-15,-5,-6,-5
1523145285047524,2,0,-3,5,16,-2,-4,-4
1523145285070084,1,-1,17,14,-22,-9,2,3
1523145285070084,5,6,10,-15,6,10,3,2
1523145285070584,-4,-7,-17,-2,3,-4,1,-4
1523145285070584,0,0,10,0,25,22,0,1
1523145285083621,-1,-1,16,8,-4,8,-3,0
1523145285083621,2,-1,-7,5,-5,-10,1,6
1523145285091641,-1,0,-8,-28,-1,-21,-9,-12
1523145285091641,-7,-9,-15,5,-19,6,-1,-6
1523145285107684,-2,3,1,3,13,3,-18,-43
1523145285107684,2,2,5,4,5,-5,-8,-62
1523145285108186,3,0,1,-10,-19,9,36,96
1523145285108186,-4,-3,-3,-3,-6,-28,-8,-54
1523145285130243,5,8,10,7,5,56,11,3
1523145285130243,-1,-9,-19,-2,1,10,37,55
1523145285130744,-12,-1,-7,-13,-5,-27,-70,-128
1523145285130744,0,0,-2,5,-3,-7,-3,-26
1523145285143780,10,4,15,7,25,-10,57,75
1523145285143780,1,-5,1,0,-40,-11,-13,-18
1523145285151804,-3,0,-12,-16,-6,7,-5,-27
1523145285151804,-9,-4,4,-3,-5,-12,-35,-65
1523145285167351,-5,7,6,0,-6,3,-14,0
1523145285167351,0,-4,-2,9,16,-3,6,17
1523145285168345,4,3,-4,-8,-6,0,11,28
1523145285168345,-11,0,0,-2,-13,5,-6,-5
1523145285189902,0,-10,-9,-2,6,-21,-1,2
1523145285189902,-3,-1,-1,-3,-17,0,2,22
1523145285190904,-1,0,-1,-1,-24,7,-3,-16
1523145285190904,7,3,-11,-4,27,6,15,35
1523145285203437,1,-4,-2,-4,-7,-10,2,6
1523145285203437,-11,-1,-1,-18,-2,-3,-19,-27
1523145285211960,1,-3,14,14,16,8,5,-3
1523145285211960,5,2,-17,-2,-11,2,16,33
1523145285227505,-9,-8,-6,-15,-11,-17,-11,-15
1523145285227505,-5,0,29,32,16,7,-15,-35
1523145285228504,2,-1,19,44,13,3,13,17
1523145285228504,19,12,53,41,5,12,20,40
1523145285250063,-8,-13,-76,-65,-20,-13,-19,-34
1523145285250063,-2,17,103,93,42,4,-1,-16
1523145285250565,-15,-12,-15,-38,-4,-2,-5,3
1523145285250565,14,0,-42,-53,-6,4,11,28
1523145285272622,8,2,16,11,-10,1,-5,-11
1523145285272622,-13,-15,-69,-63,-23,-14,-4,-12
1523145285273124,-3,7,41,-6,12,4,-2,-6
1523145285273124,15,3,5,38,7,8,10,19
1523145285286660,7,1,-20,-18,-3,-8,-2,-2
1523145285286660,1,-3,13,17,-17,-1,3,9
1523145285287663,-8,-7,-20,-45,-11,-5,-4,-20
1523145285287663,-28,-26,-90,-22,-20,-17,-17,-24
1523145285309720,4,24,115,65,25,3,9,6
1523145285309720,15,0,-14,-16,4,25,4,16
1523145285310723,3,3,-16,-5,1,-2,0,5
1523145285310723,-6,-6,1,-14,-6,-7,2,-1
1523145285333785,-2,-2,-14,22,14,12,-1,-15
1523145285333785,-3,2,-1,25,6,-4,2,7
1523145285338798,0,-9,-10,-24,-21,-6,-2,4
1523145285338798,-8,-8,2,10,31,-1,-5,-5
1523145285346318,3,2,1,-7,-15,-8,-2,4
1523145285346318,10,4,-13,-21,13,-3,0,3
1523145285355342,6,-2,-43,-32,-7,7,5,6
1523145285355342,-6,3,43,69,-14,-9,-6,-13
1523145285369881,-15,-1,19,9,37,5,-8,-16
1523145285369881,-3,-15,-21,9,-10,-3,-1,3
1523145285371385,1,10,-24,-28,12,-2,4,1
1523145285371385,-2,-1,26,-17,-11,-2,-7,-9
1523145285392440,5,1,-15,-14,-10,-4,3,10
1523145285392440,4,3,-8,-8,-12,-5,0,0
1523145285393946,-6,-12,-22,-9,-8,-9,-5,-6
1523145285393946,3,12,21,-4,2,7,2,-9
1523145285405976,-2,-7,-37,-22,-10,3,3,5
1523145285405976,0,-6,16,-18,-12,-8,-5,3
1523145285415505,3,1,3,4,-15,0,2,7
1523145285415505,2,0,-15,-7,27,7,1,4
1523145285430045,-10,-12,-12,-5,-21,-20,-12,-15
1523145285430045,-2,3,10,18,9,2,-3,-10
1523145285431548,4,0,9,-11,-4,-6,-1,4
1523145285431548,0,10,47,57,10,5,7,7
1523145285452604,-4,-6,-4,-17,-26,-4,-6,-7
1523145285452604,-6,-2,-22,-13,11,-1,-1,-1
1523145285454106,0,0,10,17,7,5,2,3
1523145285454106,-8,-5,-24,-40,-17,-5,-3,-4
1523145285466140,-2,-3,-12,7,-5,1,1,2
1523145285466140,8,15,6,9,2,3,2,1
1523145285475163,-3,-11,9,24,15,3,-1,-1
1523145285475163,-5,-2,-5,-19,-19,-3,-3,-7
1523145285489700,3,0,-7,-24,-10,0,3,10
1523145285489700,-5,-4,-17,-8,1,-10,-3,-3
1523145285491706,3,4,-10,0,-4,-2,0,0
1523145285491706,-4,-2,11,24,33,23,0,0
1523145285512263,0,2,14,-8,-6,-2,0,-4
1523145285512263,-4,-5,4,-13,3,0,-7,-6
1523145285514264,-2,1,-3,20,2,-5,-9,-5
1523145285514264,0,-5,-17,-25,-17,-11,-7,-54
1523145285526799,4,1,2,4,9,8,26,96
1523145285526799,0,1,2,7,30,-3,-2,-15
1523145285533817,-2,-3,-6,-13,-50,2,-4,-22
1523145285533817,-3,1,-5,-20,9,-8,-2,34
1523145285550366,-3,0,3,17,1,-5,-22,-56
1523145285550366,-1,-5,-13,-17,20,5,4,-10
1523145285551867,-2,0,14,20,6,-4,14,39
1523145285551867,-2,1,2,-16,-22,-3,-26,-85
1523145285572422,1,1,5,15,-3,-1,28,75
1523145285572422,-1,-4,-3,-12,-16,-10,1,-15
1523145285573924,3,-1,-3,12,18,8,-1,-7
1523145285573924,-1,0,5,-1,33,5,4,-13
1523145285586958,-4,-3,-6,-18,-57,-2,-29,-62
1523145285586958,-3,-2,-10,-9,-14,1,-7,-31
1523145285593476,1,2,14,13,22,4,8,53
1523145285593476,6,-6,-19,-14,-5,-9,9,7
1523145285610023,-1,2,1,5,13,0,19,45
1523145285610023,-3,-3,0,2,-17,-4,-12,-25
1523145285611526,-2,1,-2,0,2,-4,-17,-54
1523145285611526,-5,-6,-8,-7,-16,-1,-11,-8
1523145285633585,-1,-2,-1,9,22,-4,-11,-26
1523145285633585,-3,1,-6,-9,-16,0,3,22
1523145285638598,-3,-3,1,2,39,2,-1,-18
1523145285638598,6,5,13,-2,-5,-5,11,54
1523145285646621,-7,-15,-16,1,3,-4,-7,-24
1523145285646621,1,1,-7,-7,-7,16,5,22
1523145285653636,7,8,15,-11,-12,3,2,4
1523145285653636,-3,1,-6,-7,-13,-6,-2,7
1523145285670180,-7,-4,-2,13,3,-8,-8,-28
1523145285670180,0,-2,-48,-46,-15,-8,-4,-4
1523145285671685,-7,-13,25,36,8,2,5,5
1523145285671685,8,6,-9,24,-9,0,7,21
1523145285692740,3,4,19,-24,10,1,-7,-25
1523145285692740,-9,0,26,35,6,1,1,7
1523145285694245,8,2,-32,-31,-8,0,1,6
1523145285694245,-3,-1,18,20,2,-7,0,8
1523145285706275,6,0,1,-27,6,10,-1,-9
1523145285706275,-14,-22,-75,-83,-19,-16,-9,-11
1523145285715303,-10,9,61,76,0,3,-4,-15
1523145285715303,25,0,-11,-43,11,9,14,48
1523145285729840,7,3,-26,-19,6,-1,1,-10
1523145285729840,-3,0,41,75,7,0,3,7
1523145285731846,-11,-13,-51,-96,-49,-11,-10,-18
1523145285731846,-18,-1,16,38,5,3,-6,-14
1523145285752401,1,-2,-21,-66,-11,-7,-5,5
1523145285752401,5,1,35,94,35,-3,3,7
1523145285753904,-9,-13,-23,-48,-3,2,-3,-11
1523145285753904,-7,2,5,-22,-12,-7,-7,-11
1523145285766439,6,6,-8,-25,2,0,4,8
1523145285766439,0,3,15,32,-4,18,0,-1
1523145285774961,-1,1,-14,13,5,-11,-3,-1
1523145285774961,11,3,1,-2,-3,12,9,25
1523145285790000,-8,-6,-8,38,0,-23,-7,-13
1523145285790000,-1,-4,9,-15,-9,0,-1,2
1523145285791504,3,8,11,-3,25,12,4,2
1523145285791504,-1,-5,-18,-15,-15,-17,-3,-10
1523145285812559,-5,1,19,39,6,8,-3,-5
1523145285812559,7,-3,-37,-38,9,4,0,5
1523145285814063,1,6,86,7,-16,2,3,0
1523145285814063,-5,6,15,52,52,1,-2,-6
1523145285826096,-2,-5,1,0,5,-2,3,6
1523145285826096,1,-2,-2,-21,-9,-13,-6,-6
1523145285835119,-3,-10,-47,-41,1,6,-6,-6
1523145285835119,-1,-3,-4,1,-16,0,2,3
1523145285850160,5,6,14,20,-4,4,2,5
1523145285850160,-1,2,-16,-49,17,2,0,1
1523145285851665,-1,-1,18,80,-2,1,1,3
1523145285851665,-8,-6,-15,-18,-10,-9,-4,-10
1523145285872218,-8,0,18,43,26,21,-1,-7
1523145285872218,2,2,1,-42,-19,-1,2,5
1523145285874223,1,3,-15,-1,-5,-8,0,5
1523145285874223,-4,-11,-31,-23,-5,0,-4,-8
1523145285886256,-7,2,23,3,3,-1,1,-4
1523145285886256,-2,-3,-15,-32,-13,-9,-4,-2
1523145285895278,7,8,24,53,12,-1,4,3
1523145285895278,-4,-1,-14,-8,-5,2,-3,1
1523145285909819,-2,-3,6,14,-7,-1,-3,-8
1523145285909819,5,0,4,16,4,6,7,16
1523145285911822,-2,-8,-45,-54,-28,-9,-5,0
1523145285911822,1,1,38,33,-3,-5,-4,-7
1523145285932392,-3,-2,-11,-4,-7,-4,-5,-8
1523145285932392,1,13,0,7,-3,-1,-4,-3
1523145285933881,0,-15,-27,-8,25,2,5,6
1523145285933881,-3,-5,-13,-36,-10,-6,-4,-5
1523145285946414,2,3,11,-4,-21,1,-1,2
1523145285946414,-1,-3,-4,16,9,1,-2,-5
1523145285954938,-3,-1,-32,-32,-8,-16,-5,-5
1523145285954938,-2,3,26,-1,7,30,1,-1
1523145285969980,-3,-4,-21,-34,-8,-7,-5,-4
1523145285969980,-7,-1,6,2,4,-3,2,-4
1523145285971484,2,-2,-23,-15,-8,-4,0,2
1523145285971484,-5,-5,0,1,-3,-10,-1,-3
1523145285992538,3,4,16,-6,8,0,1,2
1523145285992538,0,-3,-5,-20,-24,-5,-1,5
1523145285994044,-1,1,6,-6,-10,-5,-1,-2
1523145285994044,-4,-4,-25,-6,24,-7,-2,-6
1523145286006073,3,-2,-3,2,-8,-4,-1,6
1523145286006073,-2,-2,11,14,0,10,2,-2
1523145286022619,-5,1,-6,-22,0,21,0,-6
1523145286022619,3,7,31,30,0,1,0,3
1523145286030140,-2,-1,-22,-5,-3,-7,-1,0
1523145286030140,-2,-12,8,9,6,-13,-4,-3
1523145286031644,1,3,-5,-1,0,-18,-3,-4
1523145286031644,-3,-5,-14,-23,-5,12,0,8
1523145286052698,-2,0,5,22,5,-2,-15,-36
1523145286052698,-1,2,-4,-8,-3,1,-2,-25
1523145286054203,6,2,26,17,4,1,9,56
1523145286054203,3,-2,-1,-2,-6,-6,8,-5
1523145286066235,-8,-7,-14,-25,-1,15,-12,-38
1523145286066235,5,11,19,44,38,-2,-35,-103
1523145286081275,3,-12,17,7,-25,27,82,89
1523145286081275,-2,-3,-22,-24,10,-22,-31,-94
1523145286089801,2,-5,-11,-8,-6,-10,11,94
1523145286089801,10,9,9,11,2,18,57,88
1523145286091802,0,3,-3,0,-1,-20,-37,-71
1523145286091802,-5,-1,9,-2,-9,0,-6,-37
1523145286112360,-12,-3,-5,-3,-9,-4,-25,-71
1523145286112360,-7,0,9,4,-1,-17,-29,-57
1523145286113861,2,8,6,10,18,19,4,18
1523145286113861,-1,-10,-19,-14,-15,-1,5,25
1523145286126395,0,3,3,8,7,-5,-11,-19
1523145286126395,4,1,9,-4,-5,1,15,50
1523145286134917,-2,0,-12,0,3,-5,-6,-17
1523145286134917,-3,8,-6,-8,-12,-2,-8,2
1523145286149956,0,-17,-1,13,5,4,13,15
1523145286149956,-3,-1,0,-8,-6,2,11,30
1523145286151461,-11,-1,-3,-11,-15,-11,-23,-34
1523145286151461,2,0,-2,-1,4,0,1,6
1523145286172516,0,0,-15,-9,-11,-3,19,24
1523145286172516,-4,-7,-5,3,-19,-4,-9,-7
1523145286174022,0,-5,-16,0,13,-6,-19,-30
1523145286174022,-1,4,18,-19,-12,4,10,26
1523145286186053,11,7,31,40,21,4,4,-2
1523145286186053,3,1,14,10,-5,-2,-5,-2
1523145286195078,-3,-7,-38,-43,2,-3,-3,-7
1523145286195078,3,2,-12,-34,-13,2,11,20
1523145286209616,-6,0,-12,-4,-12,-10,-7,-16
1523145286209616,-4,-8,-21,-45,12,-1,-7,-8
1523145286216134,9,10,2,-9,-1,2,6,17
1523145286216134,-2,0,43,67,5,2,1,0
1523145286232677,-10,-1,-21,-32,-17,-5,-6,-13
1523145286232677,-5,-16,-35,-12,-22,-27,-5,13
1523145286234182,8,7,21,6,-2,27,2,-21
1523145286234182,5,4,23,21,31,5,-1,5
1523145286254735,-4,5,15,-16,6,8,3,6
1523145286254735,-13,-8,-12,-3,-10,-7,-7,-13
1523145286256741,-9,-12,-23,-25,-12,-20,-9,-4
1523145286256741,12,11,40,37,14,0,3,12
1523145286269274,1,2,-13,-35,-2,3,4,3
1523145286269274,-5,-6,-3,-5,10,-12,-4,-10
1523145286276293,-15,-11,-24,-1,-60,-37,-18,-22
1523145286276293,5,6,-7,-62,19,67,14,16
1523145286292837,8,2,5,39,17,2,6,10
1523145286292837,-2,-1,1,8,15,14,-1,-4
1523145286298852,-7,-5,-12,-18,-39,-14,-10,-13
1523145286298852,-12,-5,17,52,16,-33,-10,-15
1523145286314898,4,1,2,-22,-8,8,1,6
1523145286314898,15,16,12,-8,2,11,10,13
1523145286316400,-4,-6,19,8,27,-2,0,-1
1523145286316400,-6,-15,-50,-6,-28,-8,-2,-1
1523145286329935,0,7,17,16,6,-5,-4,-9
1523145286329935,-4,-1,4,27,-7,-2,-4,-7
1523145286331440,-3,8,33,21,21,6,-1,-3
1523145286331440,22,6,-24,-25,-9,-4,8,21
1523145286352497,0,-7,-11,5,-1,-2,1,5
1523145286352497,0,2,-1,-14,-1,3,1,1
1523145286354000,-1,-1,-12,-3,7,3,-2,-5
1523145286354000,-14,-7,-4,-39,-1,-3,-5,-14
1523145286375056,-4,4,37,21,-1,-3,-2,-4
1523145286375056,-3,-4,-5,-22,-19,1,-1,1
1523145286376561,11,6,4,3,8,10,7,13
1523145286376561,-3,-9,-41,-16,-47,-20,-7,0
1523145286389093,-1,-10,-67,-91,-24,-5,0,1
1523145286389093,1,15,105,82,41,9,1,-5
1523145286396122,-4,1,-3,20,11,4,-1,-7
1523145286396122,-4,-9,-14,-12,6,-5,-2,0
1523145286412657,6,-1,-3,0,-4,-2,1,1
1523145286412657,-10,-5,-40,-40,-16,-4,-5,-5
1523145286414168,0,-6,-16,-45,0,-2,1,5
1523145286414168,2,15,86,117,29,3,0,-1
1523145286434713,-9,-12,-16,-3,-3,0,-5,-7
1523145286434713,-1,-4,-30,-26,-6,-3,-2,-2
1523145286436720,2,4,21,10,6,1,-1,-2
1523145286436720,3,-3,-19,-39,-9,-2,2,5
1523145286449253,2,1,8,11,5,0,3,6
1523145286449253,2,1,-2,15,1,3,-1,0
1523145286456271,-6,2,6,8,-4,-3,-3,-9
1523145286456271,-1,-5,-16,-36,-3,-4,-7,-5
1523145286472316,2,5,10,22,-5,-2,2,8
1523145286472316,1,2,16,3,-6,3,1,3
1523145286473819,-6,0,9,13,10,2,-1,-5
1523145286473819,-7,-6,-9,-3,-40,-11,-4,-7
1523145286494874,3,0,-5,-8,2,0,3,2
1523145286494874,-2,-2,0,12,-1,-2,-3,-2
1523145286496379,-1,-1,7,15,3,1,0,1
1523145286496379,-5,-1,-11,-14,-24,-9,-2,-1
1523145286509413,-5,-3,-2,16,-9,0,-3,-6
1523145286509413,-2,-2,-12,-13,2,1,0,3
1523145286515931,6,5,6,19,9,-3,2,0
1523145286515931,-6,-7,-14,-15,4,8,-4,-3
1523145286532474,-10,-9,-6,7,12,-9,-21,-37
1523145286532474,-8,2,-2,-11,-12,-11,-27,-87
1523145286533979,8,-4,0,8,7,9,13,21
1523145286533979,5,4,1,-2,33,7,77,102
1523145286555035,0,0,1,-1,-5,7,12,13
1523145286555035,0,-3,-6,-6,-4,-8,-23,-87
1523145286556538,-8,-3,-4,0,-8,-24,-47,-87
1523145286556538,-5,-6,1,9,32,2,-38,-57
1523145286569072,16,7,-9,-3,11,23,87,110
1523145286569072,11,1,3,-10,-4,-4,25,24
1523145286576096,-8,2,4,0,2,1,-20,-55
1523145286576096,-8,-4,-4,-3,1,-9,-47,-79
1523145286592641,-6,-3,10,5,-5,-9,-40,-80
1523145286592641,0,-3,-13,-8,-1,2,8,38
1523145286594140,4,0,-1,0,8,6,13,31
1523145286594140,-2,3,-10,-7,-14,-4,-2,-11
1523145286615194,6,-4,5,6,9,-1,0,12
1523145286615194,-1,-6,-7,-6,-23,-2,8,35
1523145286616699,-1,-3,4,4,-2,4,10,21
1523145286616699,-1,-1,-11,-18,-3,-1,2,0
1523145286629231,-1,0,-9,8,-23,-5,-8,-3
1523145286629231,-1,-6,-5,-4,33,4,-3,10
1523145286636251,-3,1,2,20,-8,-1,3,-1
1523145286636251,7,9,14,-4,-9,7,14,10
1523145286652294,-7,0,-1,16,-10,-8,-13,-18
1523145286652294,-1,4,17,-10,9,3,-1,-2
1523145286654299,2,0,-5,-15,1,2,7,13
1523145286654299,-2,6,48,47,7,2,3,5
1523145286674855,-1,-12,-45,-53,-6,-10,-13,-17
1523145286674855,-24,-5,-22,-11,-4,0,-1,-12
1523145286676362,5,11,31,-1,11,4,7,17
1523145286676362,7,-9,-43,-59,-14,-4,0,6
1523145286688389,-9,-5,14,48,2,-4,-6,-14
1523145286688389,34,25,39,-3,20,18,19,45
1523145286697916,-10,-18,-64,-63,-25,-10,-10,-19
1523145286697916,-15,-3,48,103,-5,-5,-6,-17
1523145286712456,-5,0,-3,-59,-2,-3,-6,-10
1523145286712456,-11,-12,-39,-15,-23,-12,-9,-6
1523145286713963,8,14,17,51,15,2,6,10
1523145286713963,3,-15,3,8,-3,2,2,3
1523145286735013,-4,3,16,9,2,-3,-3,-6
1523145286735013,1,3,9,24,-3,-4,-2,2
1523145286736518,-6,-15,-29,-33,-10,-3,2,5
1523145286736518,-7,7,0,1,0,-3,-6,-15
1523145286748550,2,6,33,13,40,4,-5,-5
1523145286748550,23,3,-30,13,0,9,18,38
1523145286757577,-2,-8,6,-15,-11,-1,2,8
1523145286757577,-2,-6,-32,-15,-17,-5,-5,-10
1523145286772614,-2,-3,-5,-14,0,3,4,0
1523145286772614,-19,-5,9,8,-23,-8,-13,-26
1523145286774119,5,4,21,-14,9,6,4,14
1523145286774119,11,5,2,-19,19,2,2,7
1523145286795173,0,0,1,3,-7,-3,-3,-2
1523145286795173,-6,-13,-29,-16,-4,-8,-5,-8
1523145286796679,-12,0,11,15,-13,-4,-6,-12
1523145286796679,-2,2,4,25,25,1,0,-3
1523145286808711,1,-7,-35,-49,-12,2,1,3
1523145286808711,-4,1,44,32,30,6,0,-1
1523145286817734,-2,1,10,6,-26,-3,-4,-6
1523145286817734,1,-1,-16,-21,-16,-6,-5,2
1523145286832272,2,0,-36,-5,14,-2,-2,0
1523145286832272,0,3,40,11,6,3,0,-1
1523145286834277,3,-4,-15,-15,16,-1,1,6
1523145286834277,3,2,11,28,1,3,5,4
1523145286854835,-7,-1,5,-10,-22,-2,-7,-15
1523145286854835,-6,-9,-41,-21,-15,-2,-4,-6
1523145286856839,9,8,27,14,21,10,6,8
1523145286856839,-3,-7,-22,-32,-14,-7,-6,7
1523145286868368,-3,2,20,-3,1,0,1,-13
1523145286868368,0,-2,-19,-24,-18,-6,-2,-6
1523145286877393,-2,-5,-14,-15,9,0,-1,-5
1523145286877393,-7,5,17,17,2,-1,-3,-4
1523145286892433,0,-7,6,19,-9,0,-1,7
1523145286892433,10,5,3,-8,19,5,6,13
1523145286893938,-4,-2,-9,4,-28,-6,-4,-6
1523145286893938,-2,-2,-18,-40,3,-1,3,-3
1523145286914999,0,-3,19,27,1,-5,-4,-2
1523145286914999,0,-3,3,34,-9,-7,-7,-6
1523145286916499,-6,-3,-7,-5,-1,2,4,5
1523145286916499,0,-3,-8,-6,4,-1,0,-5
1523145286928530,1,0,-2,3,-4,1,1,6
1523145286928530,-1,1,0,5,1,-2,-2,0
1523145286937554,0,-1,-15,-5,4,-1,-1,-3
1523145286937554,-4,-1,29,19,-7,-3,-2,-2
1523145286952592,0,1,-1,8,9,-2,1,3
1523145286952592,0,1,-2,-34,-11,-1,-2,-3
1523145286954097,-1,-3,2,25,1,1,-1,-3
1523145286954097,-2,-6,-28,-34,-12,-1,0,1
1523145286975154,3,0,4,8,-3,-2,-1,6
1523145286975154,-5,0,7,5,3,1,0,-7
1523145286976657,-4,-7,-26,-16,8,-1,-4,0
1523145286976657,2,4,21,25,9,5,0,1
1523145286988688,4,4,8,-3,-5,1,1,1
1523145286988688,-9,-5,-11,-10,28,-2,-1,-2
1523145286997717,1,0,3,-11,-5,-4,-5,-2
1523145286997717,-3,-3,-14,-15,-19,-8,-2,-4
1523145287012254,-1,3,1,-8,5,1,0,0
1523145287012254,0,-3,2,15,-14,2,0,-1
1523145287013757,-1,5,12,8,5,0,0,-3
1523145287013757,-3,-2,-10,-7,1,-2,-7,-10
1523145287034811,-1,-2,-1,-17,-19,-10,-11,-29
1523145287034811,4,0,-1,18,2,1,-4,-36
1523145287036816,8,4,15,11,23,14,25,64
1523145287036816,2,-4,-14,-15,2,1,27,45
1523145287048851,-12,-4,-2,-2,-9,-10,-24,-24
1523145287048851,-11,-3,0,-7,-4,-14,-55,-109
1523145287057371,4,1,4,7,-6,4,3,46
1523145287057371,10,-2,-5,-9,3,22,95,90
1523145287072410,2,0,-4,4,9,3,2,-40
1523145287072410,-6,0,1,-1,-15,-6,-8,-47
1523145287073916,-5,-3,3,4,-2,-10,-33,-65
1523145287073916,-5,-2,-6,-9,-7,-7,-33,-26
1523145287094970,1,1,5,7,5,0,9,24
1523145287094970,-1,-3,-2,0,-8,-2,7,42
1523145287096477,-3,-4,-4,-2,-1,-8,-1,-8
1523145287096477,-2,0,-2,-5,5,-6,-14,-11
1523145287117534,0,1,0,-12,-3,0,4,4
1523145287117534,-1,-2,-3,18,7,8,4,21
1523145287119037,-3,1,7,-1,-10,-6,7,-6
1523145287119037,-1,-1,-13,-14,11,1,-18,-28
1523145287132573,6,3,6,8,10,-3,5,18
1523145287132573,3,2,5,-19,-4,-3,14,39
1523145287134077,0,-2,-3,-3,-8,2,6,-5
1523145287134077,-8,-4,-4,-1,-12,-15,-25,-40
1523145287155131,-21,-10,-30,-12,-12,-3,-9,-11
1523145287155131,13,19,55,32,18,10,20,37
1523145287156635,10,-5,-3,-11,-5,0,2,-5
1523145287156635,-3,-1,-39,-47,-19,-6,-17,-21
1523145287177692,8,9,84,96,26,14,9,13
1523145287177692,-12,-7,-33,-47,-11,-5,-1,-6
1523145287179198,-9,-9,-29,-22,-5,-4,-7,-20
1523145287179198,3,-3,-16,16,-8,-3,-8,-3
1523145287191729,-7,-5,5,-45,-13,-3,0,-1
1523145287191729,9,-2,-42,-24,-3,-4,-1,12
1523145287198748,14,27,95,91,31,12,9,11
1523145287198748,-2,-14,-31,-13,-5,-3,-5,-8
1523145287215293,-6,-11,-36,-31,-13,-5,-4,-6
1523145287215293,0,8,25,27,11,0,-1,1
1523145287216797,-4,-7,-34,-68,-22,-2,-1,-6
1523145287216797,-9,0,7,9,0,-3,-8,-20
1523145287237350,-3,4,26,61,2,-12,-6,-6
1523145287237350,22,-13,-14,-30,-9,9,25,52
1523145287238859,-1,4,-15,16,10,17,-1,-4
1523145287238859,-1,8,32,19,3,-2,-4,-8
1523145287250887,0,-3,-28,-46,-8,9,-3,-7
1523145287250887,-13,-10,-12,15,3,-16,-2,-8
1523145287260415,-3,-1,-6,-1,-11,3,-3,-6
1523145287260415,0,0,22,16,-15,9,-2,-6
1523145287274951,5,-2,-18,-26,20,-6,4,11
1523145287274951,-6,1,12,7,-1,-3,1,4
1523145287276456,-2,-7,-20,-10,-2,-11,-3,-7
1523145287276456,-3,-2,12,10,-3,17,-2,1
1523145287297514,6,0,0,4,-5,-27,1,5
1523145287297514,-2,5,13,17,12,25,-2,-7
1523145287299015,-3,-3,-19,-26,-13,4,0,-5
1523145287299015,1,-4,9,-1,14,-10,-3,0
1523145287312049,4,5,-5,18,6,8,1,4
1523145287312049,-4,-14,-21,-22,-16,-19,-5,-8
1523145287318568,-6,-4,1,0,2,-14,-4,-5
1523145287318568,4,0,-17,-1,-5,4,0,3
1523145287335110,1,7,46,42,16,3,3,-1
1523145287335110,-5,-2,-26,-40,-19,5,0,-4
1523145287336615,0,5,24,12,14,-1,-6,-5
1523145287336615,1,1,8,6,6,0,0,-7
1523145287357670,-2,-5,-26,-27,-6,1,1,13
1523145287357670,1,2,-4,-1,-15,-3,-2,0
1523145287359175,-2,-2,10,12,-2,0,0,-1
1523145287359175,-2,0,-5,-9,5,-7,-3,-3
1523145287371708,0,1,-4,-14,-16,6,1,-1
1523145287371708,-3,-5,10,-8,32,0,-9,-30
1523145287378726,1,-3,-18,-16,-38,-4,4,21
1523145287378726,-2,-2,10,23,-2,-3,9,18
1523145287394769,3,1,-15,-47,-4,7,3,1
1523145287394769,-4,3,16,8,1,-1,-1,4
1523145287396775,-4,-6,-2,0,9,-10,-12,-32
1523145287396775,5,0,-13,-6,0,0,1,8
1523145287417329,9,1,-7,14,-8,4,0,5
1523145287417329,-4,1,-3,-13,1,-7,-4,-12
1523145287418833,-13,-9,7,23,7,-3,-5,-16
1523145287418833,1,0,7,-8,-7,1,2,10
1523145287431868,10,2,-5,0,-8,1,3,10
1523145287431868,-2,0,3,14,18,2,2,1
1523145287438385,-3,-3,-10,2,3,0,-3,-2
1523145287438385,-8,-4,-18,-20,-20,-9,-7,-9
1523145287454929,-7,-3,10,-15,-4,-3,-2,-10
1523145287454929,1,0,-5,39,-6,0,0,3
1523145287456433,0,-3,6,6,2,-1,2,7
1523145287456433,-1,0,-1,-3,9,2,-1,-10
1523145287477489,-6,-6,-23,-27,-8,-3,-3,-2
1523145287477489,5,6,6,24,7,8,5,10
1523145287478993,3,1,0,-12,6,-6,1,2
1523145287478993,-2,1,14,11,-1,3,-3,-8
1523145287492028,-10,-7,-8,11,2,-1,-4,-7
1523145287492028,4,0,-2,-10,-8,0,3,22
1523145287498546,6,1,-7,-10,-2,-5,0,0
1523145287498546,1,1,2,5,27,5,-1,-2
1523145287515094,-6,-3,0,16,6,-2,-3,-6
1523145287515094,-5,2,2,-4,-8,-5,-7,-10
1523145287516595,1,1,-11,-10,-6,-2,-5,1
1523145287516595,-7,-12,2,4,0,-6,-10,-46
1523145287537648,-1,3,9,6,19,-4,-16,-6
1523145287537648,3,-2,-3,-5,-11,21,9,-28
1523145287539154,9,3,-2,-6,0,8,49,3
1523145287539154,-12,-5,-13,-17,-16,-17,-49,-93
1523145287551189,3,2,4,13,11,-1,-24,-79
1523145287551189,12,7,17,4,8,11,84,67
1523145287560210,3,1,-12,-8,-5,1,-3,-65
1523145287560210,-5,-6,-11,-5,-20,-2,-8,-47
1523145287582771,-8,-1,10,4,-13,-12,-48,-95
1523145287582771,-10,-4,-14,-8,-1,-9,-44,-48
1523145287584274,-2,3,23,11,9,2,11,53
1523145287584274,4,2,-10,-6,5,-1,7,38
1523145287597810,-7,-9,-18,-5,-15,-1,2,20
1523145287597810,-2,-10,1,2,17,-3,-5,4
1523145287599313,-8,2,-5,0,9,0,0,32
1523145287599313,2,4,12,1,0,0,-3,9
1523145287611846,4,2,-2,-3,-2,6,24,41
1523145287611846,-3,-5,-19,-7,-9,-9,-4,5
1523145287618364,-4,-4,7,4,15,-4,-23,-34
1523145287618364,-4,-6,-5,-32,-42,-5,5,16
1523145287634908,3,1,2,31,42,7,18,17
1523145287634908,6,0,-4,-18,-5,1,-4,6
1523145287636914,-3,-5,-13,8,4,-1,-18,-23
1523145287636914,15,11,14,2,9,6,16,23
1523145287657476,-7,-6,-6,-24,-6,-1,11,14
1523145287657476,-16,-2,5,-9,-10,-15,-32,-52
1523145287658972,-5,-7,-15,-16,-4,0,0,2
1523145287658972,14,7,-7,18,15,6,18,33
1523145287671008,-4,11,51,43,6,7,-3,-18
1523145287671008,-15,-13,2,-20,4,-8,-12,-11
1523145287680027,13,2,-10,-39,-38,-4,0,3
1523145287680027,9,7,43,65,57,9,10,16
1523145287694568,2,11,42,-34,4,7,4,6
1523145287694568,-2,-7,-30,4,-18,-8,-10,-13
1523145287701084,-13,-5,12,-10,-3,-3,-3,-8
1523145287701084,-7,-7,-36,-32,-5,-9,-9,-8
1523145287717632,-1,-21,-70,-31,-25,-1,5,9
1523145287717632,5,22,108,63,29,9,2,0
1523145287719134,-10,-5,-23,-35,-24,-15,-15,-20
1523145287719134,22,9,8,17,25,1,17,35
1523145287731165,6,3,-14,0,4,24,9,10
1523145287731165,-5,-11,-16,-41,-30,-11,-7,-6
1523145287746204,-3,-5,-25,24,11,-1,-5,-7
1523145287746204,-12,5,46,29,-13,17,-2,-13
1523145287755231,6,-2,-19,-1,-1,-16,2,11
1523145287755231,5,2,-10,-10,3,25,2,-1
1523145287756734,2,2,20,24,-1,-5,-3,-3
1523145287756734,-11,-11,-29,-52,8,-5,-5,-6
1523145287777789,-4,-2,-16,-2,-18,-12,-5,-7
1523145287777789,-1,0,-7,65,33,-2,5,2
1523145287779293,6,1,17,-45,-16,4,1,13
1523145287779293,-1,3,-2,-8,1,2,-2,-4
1523145287791324,-2,1,17,14,9,1,1,-2
1523145287791324,-5,-8,-41,-21,-15,-15,-7,-12
1523145287800348,1,3,27,7,-4,9,7,12
1523145287800348,4,0,-9,-12,-14,-10,-1,1
1523145287814887,-12,-8,-12,-16,-5,-9,-7,-10
1523145287814887,-3,6,13,-25,-16,-6,0,1
1523145287816894,10,4,-11,15,16,17,6,1
1523145287816894,-10,-10,-8,-20,-14,2,-4,-10
1523145287837447,6,6,6,12,3,-5,2,5
1523145287837447,0,-3,-1,-12,-10,-8,-2,-1
1523145287838950,-4,4,-3,14,1,-12,-5,-4
1523145287838950,-4,1,-1,39,-4,7,5,-2
1523145287850983,3,-7,-16,-18,-11,5,3,3
1523145287850983,2,1,1,4,28,0,-4,1
1523145287860008,-3,-2,-32,-40,-14,-8,-6,-7
1523145287860008,-6,-6,30,75,6,-11,-4,-7
1523145287875047,-1,4,5,-23,-7,2,2,0
1523145287875047,6,-1,-8,-16,-11,8,5,10
1523145287876551,0,-2,-6,6,10,-2,0,2
1523145287876551,-6,-6,-30,-30,-5,-5,-4,-7
1523145287897607,9,8,26,17,0,-2,2,12
1523145287897607,1,-4,0,6,2,-1,1,-6
1523145287899138,-10,-9,-33,-20,-6,-3,-4,-8
1523145287899138,4,13,58,13,4,-6,-2,0
1523145287911143,-5,-2,17,29,8,5,-5,-6
1523145287911143,2,0,-10,-21,-19,-7,-1,1
1523145287920167,3,-4,-2,12,7,-5,2,3
1523145287920167,-1,-6,-40,-30,4,12,-1,0
1523145287934706,-2,0,25,-8,-8,-4,0,-2
1523145287934706,-2,5,4,24,-10,3,0,1
1523145287936711,5,-2,12,29,12,-1,-2,-4
1523145287936711,-8,-7,-27,-40,7,-13,-3,2
1523145287957267,2,2,-6,-11,-2,-1,0,2
1523145287957267,-8,-9,-14,13,-7,-2,-6,-8
1523145287959272,5,5,38,18,-10,0,1,-1
1523145287959272,4,3,-3,-13,-3,0,-2,3
1523145287971303,0,0,-15,-2,5,2,-1,1
1523145287971303,-6,-12,-16,-28,-1,-7,-3,0
1523145287980332,-3,9,28,25,10,2,-1,-8
1523145287980332,0,-3,-2,-11,-18,-3,0,0
1523145287994868,0,-4,-11,-7,-1,-2,1,1
1523145287994868,3,3,2,-11,3,-5,0,0
1523145287996370,-3,-1,-2,-4,1,0,-2,-2
1523145287996370,0,-1,-11,-14,-22,-1,-2,0
1523145288017426,1,-1,0,-3,-5,-4,-2,-1
1523145288017426,2,2,3,24,11,1,0,0
1523145288018930,-3,-4,-10,-18,-11,-3,0,2
1523145288018930,-4,1,11,8,14,-2,-3,-7
1523145288030964,-5,-6,-10,-20,-11,-8,-12,-16
1523145288030964,4,3,1,8,-8,-1,-4,-30
1523145288039987,-1,0,1,15,14,-20,-1,-11
1523145288039987,10,0,0,-16,1,35,26,68
1523145288055027,-2,-4,-7,5,4,9,11,7
1523145288055027,-5,-1,0,-17,-11,-9,-38,-104
1523145288056531,-2,-2,9,4,-14,-1,23,106
1523145288056531,0,3,-4,-7,-16,-19,-9,-56
1523145288077587,12,-5,-13,4,6,3,31,43
1523145288077587,4,4,-5,1,49,17,12,40
1523145288079092,-8,-7,-8,-13,-22,-9,-33,-79
1523145288079092,-9,-3,3,4,4,-7,-23,-25
1523145288100148,-7,-2,0,5,-3,-8,-18,-38
1523145288100148,-3,-4,-6,-4,-2,-4,8,3
1523145288101651,4,1,8,5,12,12,4,2
1523145288101651,1,-3,-17,-12,-6,-11,-2,-3
1523145288115188,-5,-6,11,5,0,9,-1,-4
1523145288115188,-7,-7,2,-4,-13,-7,2,29
1523145288116691,-1,-5,-9,1,5,10,5,1
1523145288116691,4,4,4,-10,-25,-2,5,5
1523145288137747,1,1,-1,11,11,-5,-4,-1
1523145288137747,0,1,-5,-4,-28,-5,4,22
1523145288139250,-3,-3,-12,12,11,5,1,-14
1523145288139250,-7,2,18,-19,-6,-4,-5,-15
1523145288160309,-1,-2,-13,11,7,-1,3,14
1523145288160309,13,4,4,-1,-16,2,-1,7
1523145288161310,-1,5,-3,-5,31,3,-4,-13
1523145288161310,-5,-3,1,23,-7,-2,0,6
1523145288174345,-13,-13,-25,-7,-7,-7,-8,-14
1523145288174345,-3,-3,-27,-39,-14,1,4,9
1523145288180860,4,-17,9,10,-10,0,0,-5
1523145288180860,-5,15,70,53,51,14,-1,-14
1523145288197408,2,0,-17,-22,-18,-5,-4,2
1523145288197408,10,2,-20,-36,-4,-4,10,23
1523145288198909,-3,-1,-5,20,-5,-13,-7,-2
1523145288198909,0,-4,-28,-22,5,17,6,-1
1523145288219964,-8,-4,4,-32,6,2,-5,-14
1523145288219964,-8,-3,0,-29,1,-4,-1,-2
1523145288221469,-1,-1,-2,25,-17,0,-2,-2
1523145288221469,3,-4,-12,-1,27,-8,3,15
1523145288235004,-3,-3,-5,47,-6,-8,-10,-21
1523145288235004,-7,10,58,18,11,3,1,-2
1523145288236509,11,5,-10,-45,-12,2,5,24
1523145288236509,3,-4,-23,-3,-18,-8,-1,-4
1523145288257567,2,3,-8,-16,24,2,0,5
1523145288257567,-5,-6,-6,10,-7,8,1,-4
1523145288259068,-10,-1,15,0,-1,-3,-6,-17
1523145288259068,3,4,-15,-10,8,6,3,16
1523145288280127,1,-5,5,12,-14,-4,-2,5
1523145288280127,-7,0,-5,4,2,-7,-4,-9
1523145288281629,-1,4,5,8,9,2,-2,-4
1523145288281629,-1,-6,-14,-17,-16,-15,-1,-1
1523145288294168,-1,-3,-20,-34,-10,6,0,-3
1523145288294168,-1,5,58,106,33,3,1,4
1523145288301181,4,2,-5,-28,-7,14,2,1
1523145288301181,-9,-3,-2,-14,-26,-15,-5,-8
1523145288317223,-6,-6,-3,7,-6,10,-1,-4
1523145288317223,4,-4,-18,-24,-18,-2,-3,8
1523145288319228,10,8,-4,-15,0,4,6,9
1523145288319228,-3,-3,14,40,12,-6,-5,-8
1523145288339785,-3,3,4,-3,-17,-5,-1,12
1523145288339785,-3,0,4,-2,-2,-3,-3,-20
1523145288341788,-6,-5,-23,-18,-5,-11,-2,-8
1523145288341788,8,4,28,17,17,15,5,9
1523145288354325,2,2,1,-17,-6,-5,0,-2
1523145288354325,-2,-4,-11,-3,-3,2,0,9
1523145288361342,-5,1,10,5,12,-1,-2,-4
1523145288361342,-4,-2,-26,-41,-4,-6,-8,-4
1523145288377386,3,-7,-17,27,29,1,2,5
1523145288377386,4,15,56,14,-6,3,0,1
1523145288379394,-7,-3,-10,-7,0,-3,-4,-9
1523145288379394,-4,-7,-16,-16,-16,-2,1,6
1523145288399945,9,11,-6,-12,2,-3,1,2
1523145288399945,-4,-17,-46,-34,-2,-9,-4,-3
1523145288401449,0,4,29,16,-15,8,0,-4
1523145288401449,1,-2,-2,-20,-4,1,-2,-5
1523145288414487,-2,2,8,0,-9,-7,-3,-1
1523145288414487,-4,-5,-18,-8,4,-6,-2,-4
1523145288421000,-5,-2,11,8,15,-3,-8,-15
1523145288421000,1,-6,-13,10,-14,-9,4,-7
1523145288437545,3,4,16,-5,2,21,12,28
1523145288437545,2,1,-10,-2,-7,-2,-1,1
1523145288439048,-5,-12,-12,-7,-11,-7,-1,20
1523145288439048,-2,6,8,3,20,-3,-15,-44
1523145288460104,-3,-5,4,16,-5,-18,-6,-14
1523145288460104,4,0,-17,-15,8,10,20,32
1523145288461610,-4,0,13,14,-15,6,1,-5
1523145288461610,-1,0,0,-16,-7,1,-6,2
1523145288474144,1,1,10,-5,3,-3,-10,-47
1523145288474144,1,-1,-4,-1,3,-3,-4,-8
1523145288481160,2,-1,-16,-5,-26,-7,3,13
1523145288481160,3,-3,11,14,10,1,2,10
1523145288497203,-7,-2,0,-3,-13,-6,-5,-2
1523145288497203,-4,-1,0,-5,-12,-1,-9,-13
1523145288499208,1,1,0,-3,11,-4,2,1
1523145288499208,0,-5,-35,-26,-12,-3,1,7
1523145288519762,1,5,50,81,14,8,4,8
1523145288519762,-7,1,-12,-26,7,-8,-4,-10
1523145288521768,-6,-8,-10,-3,10,12,-4,-18
1523145288521768,8,6,0,0,4,-4,-5,3
1523145288534301,3,-3,-9,-27,14,-19,-7,-29
1523145288534301,-5,-9,0,17,-16,-3,16,67
1523145288541319,9,5,4,3,-9,25,13,31
1523145288541319,-11,-4,-7,-9,1,28,5,5
1523145288557366,-6,-3,-3,-10,-2,-2,-31,-94
1523145288557366,1,0,-2,8,2,-11,3,63
1523145288558869,-5,-8,0,-13,-4,-23,-15,-13
1523145288558869,1,2,1,10,-8,-14,-8,-82
1523145288579926,12,9,-7,-11,-10,-8,60,127
1523145288579926,3,-7,6,-1,-1,19,7,-15
1523145288581428,-3,0,-9,4,12,6,-12,-43
1523145288581428,-6,-1,6,11,-25,0,-18,-34
1523145288593461,-11,0,3,-10,-11,-9,-29,-53
1523145288593461,0,2,-5,-8,6,-4,-12,-43
1523145288602484,5,2,-1,-6,3,-8,9,25
1523145288602484,1,-6,9,13,12,-13,0,15
1523145288617523,-4,0,-9,-25,-10,8,0,19
1523145288617523,5,-2,-3,19,12,0,4,10
1523145288619030,2,3,21,8,2,0,-1,-7
1523145288619030,-1,-9,-32,-7,-18,-5,3,23
1523145288640083,2,6,10,-2,26,8,4,24
1523145288640083,-2,-4,-3,9,1,4,-7,-28
1523145288641587,-5,-7,-9,-22,-17,-8,-3,-15
1523145288641587,0,-2,-11,8,26,7,9,19
1523145288653622,-3,1,21,19,-36,1,1,12
1523145288653622,-11,-1,-14,-53,-17,-8,-12,-33
1523145288670164,-8,-5,-17,70,25,-2,-3,-3
1523145288670164,4,9,36,2,8,8,11,31
1523145288677682,-6,-29,-65,-29,-14,-6,-7,-8
1523145288677682,6,24,81,31,-3,0,-5,-13
1523145288679188,5,6,7,-8,7,5,9,12
1523145288679188,-18,-18,-42,-18,-22,-11,-10,-11
1523145288699741,-1,11,45,15,18,3,-2,-16
1523145288699741,20,-1,-40,-17,1,8,14,32
1523145288701746,8,0,-14,-27,-14,2,0,10
1523145288701746,-7,-1,8,7,9,-7,-2,3
1523145288713779,-15,-10,-37,-24,1,0,-7,-21
1523145288713779,-11,-10,8,-10,-13,-6,-7,-9
1523145288722804,14,6,-6,8,-3,2,6,4
1523145288722804,-2,4,27,24,4,4,0,15
1523145288737341,-7,-2,-7,-35,-8,-4,-4,-21
1523145288737341,-2,-7,-19,7,8,-5,-8,2
1523145288739348,-2,-3,-9,-46,-25,-21,-3,-8
1523145288739348,-1,1,7,43,7,11,6,8
1523145288759904,-1,4,30,48,27,23,6,7
1523145288759904,-6,5,16,-10,-9,-5,-7,-17
1523145288761405,-6,-12,0,18,15,-6,-4,-3
1523145288761405,2,3,-13,-37,15,8,5,7
1523145288773440,6,-6,-10,7,-7,-8,-2,10
1523145288773440,-2,-4,-2,13,-11,4,-1,-9
1523145288782462,-5,2,-7,-18,7,-9,-2,0
1523145288782462,2,0,14,17,17,-2,1,-4
1523145288797502,5,5,7,-2,-4,2,-3,7
1523145288797502,1,-6,-24,-21,-11,-9,-2,-10
1523145288799006,-11,-3,-6,15,-7,-10,-4,-8
1523145288799006,1,5,17,-18,17,24,3,-1
1523145288820063,19,5,25,31,16,10,7,22
1523145288820063,-3,-5,-9,1,-5,-13,-4,-8
1523145288821567,-1,2,-2,-4,-5,14,-6,-5
1523145288821567,-3,-2,-25,-34,-38,-13,-8,-15
1523145288833599,-15,-17,-18,-14,-18,-15,-4,2
1523145288833599,12,12,37,46,48,18,9,9
1523145288842622,2,1,-1,-7,-6,-6,0,2
1523145288842622,-1,-4,-18,-24,-17,-7,-2,0
1523145288857661,-5,-5,-19,-38,-13,-4,-6,-3
1523145288857661,-5,2,12,46,7,-3,-1,-23
1523145288859166,-2,4,24,-8,4,5,0,-3
1523145288859166,4,-4,12,27,9,-1,4,8
1523145288880222,-2,6,2,-14,12,-1,0,4
1523145288880222,2,-1,-13,-21,-7,2,3,9
1523145288881727,-5,-1,-6,0,-1,-1,-2,-5
1523145288881727,-2,0,1,1,0,-2,0,-4
1523145288893758,-2,-5,-7,6,-1,1,1,0
1523145288893758,-6,-4,-5,-14,-1,1,-5,-5
1523145288902782,1,4,2,4,-6,2,-1,-2
1523145288902782,-2,-5,3,4,-5,-10,-1,2
1523145288917320,3,5,4,2,3,1,4,3
1523145288917320,-5,-4,-14,-12,-8,-1,-5,0
1523145288918824,-3,-1,-2,2,-9,-8,-14,-36
1523145288918824,3,4,8,-14,-36,-2,2,3
1523145288939881,7,3,1,5,10,4,16,19
1523145288939881,-2,-8,-13,-12,-20,0,9,30
1523145288941385,-3,-3,10,-3,6,3,-9,-21
1523145288941385,-3,-1,-2,-9,-4,-10,-20,-23
1523145288953416,1,0,-4,5,-16,-6,-18,-60
1523145288953416,-4,-7,-12,-7,11,8,52,99
1523145288962944,6,3,-3,2,2,1,2,-45
1523145288962944,-5,-6,-8,4,8,0,-3,15
1523145288977480,-7,2,7,-3,0,-11,-35,-68
1523145288977480,-10,-1,-2,-3,2,-13,-47,-127
1523145288978988,11,1,2,6,-2,9,44,114
1523145288978988,3,-4,-1,1,1,1,23,-5
1523145289000040,0,-2,3,-2,5,0,1,-6
1523145289000040,-3,1,-15,-2,10,-1,-11,-17
1523145289001556,-12,-11,7,0,7,-3,-22,-41
1523145289001556,0,3,6,-1,-41,-3,-8,-4
1523145289014083,-2,-4,-3,-11,-6,3,25,71
1523145289014083,-4,-4,-10,3,-7,-7,-12,-17
1523145289022603,-2,5,-3,3,5,-4,-9,-16
1523145289022603,-26,-14,-6,-8,7,-10,-45,-85
1523145289037640,11,2,-5,17,48,12,37,39
1523145289037640,11,1,-1,-19,-17,13,64,-8
1523145289039145,1,0,-2,-4,-7,-3,-2,-54
1523145289039145,1,3,4,2,4,-3,-6,-35
1523145289059700,-13,2,-3,-4,-11,-8,-48,-76
1523145289059700,-8,-7,6,1,-4,-9,-24,-19
1523145289066217,0,-6,-2,6,7,12,14,57
1523145289066217,17,8,9,0,7,5,6,29
1523145289081757,0,0,0,13,-4,0,7,23
1523145289081757,1,2,-7,-4,0,-3,0,26
1523145289090280,-13,-5,14,-12,-9,-4,-11,-27
1523145289090280,1,-2,-14,12,28,0,-1,4
1523145289097303,9,2,0,1,-13,3,19,24
1523145289097303,-4,-1,-2,-15,-10,-4,-17,-14
1523145289099305,-7,-3,-17,-8,23,-2,-17,-27
1523145289099305,-5,-6,23,34,-3,-4,9,11
1523145289119859,23,7,-6,-20,-5,6,24,44
1523145289119859,-3,-6,-17,11,-11,-5,-18,-25
1523145289121364,1,-1,-10,-22,-7,-2,3,8
1523145289121364,0,1,15,70,1,-2,8,10
1523145289142420,-14,2,20,-12,-1,-5,-14,-36
1523145289142420,2,-7,0,1,7,4,-6,-5
1523145289143924,0,3,-9,-14,-47,-8,2,12
1523145289143924,-2,-1,-15,-38,-10,-8,6,2
1523145289156957,-4,-12,-44,-33,-18,11,-11,-20
1523145289156957,1,5,43,37,11,-1,-3,-1
1523145289163477,-5,-4,-14,-31,7,-3,1,-6
1523145289163477,-4,-4,-3,6,-6,-2,-2,2
1523145289180022,13,5,2,-13,-25,-7,0,9
1523145289180022,-5,-3,-18,7,42,11,5,2
1523145289181524,2,-4,-1,15,-12,-3,-4,-6
1523145289181524,-1,3,8,-10,2,-7,-5,-7
1523145289202581,-3,-2,-11,-6,13,-2,-4,-29
1523145289202581,-10,-4,-2,-1,-15,-1,3,10
1523145289204085,0,2,11,23,-5,-1,1,8
1523145289204085,3,0,-12,-29,22,7,0,-3
1523145289216619,-9,3,25,31,-4,-12,-15,-28
1523145289216619,4,-2,-32,-33,-11,1,14,43
1523145289223640,5,5,36,32,1,4,3,3
1523145289223640,4,-1,-7,22,2,2,3,5
1523145289240178,6,-1,-3,-21,-13,-3,-5,-16
1523145289240178,-6,9,18,-2,14,-3,-6,-7
1523145289241693,1,-4,-14,16,17,-2,1,8
1523145289241693,1,-2,-13,-14,-20,2,3,2
1523145289262741,-6,-6,6,23,25,-2,-4,1
1523145289262741,0,-1,4,-10,-12,0,-7,-12
1523145289264244,2,-2,-13,-11,4,-2,3,-2
1523145289264244,-3,1,-1,-10,9,2,0,0
1523145289276777,-10,-8,-21,-17,-37,-3,1,8
1523145289276777,3,3,25,18,7,0,-3,-7
1523145289283794,-11,-5,-4,-17,7,-2,-8,-17
1523145289283794,-3,-4,-6,-9,-7,-16,-9,-9
1523145289299841,13,4,-4,-5,5,4,14,33
1523145289299841,8,-1,-16,-25,-13,0,-3,-5
1523145289301844,0,2,3,26,33,15,2,1
1523145289301844,-2,0,10,-13,-4,10,3,13
1523145289322399,-17,-10,-14,-6,2,-9,-12,-35
1523145289322399,0,1,1,11,-19,-12,-7,-8
1523145289323904,3,1,-8,-22,12,1,2,3
1523145289323904,-4,-8,-10,-3,-12,-11,-2,0
1523145289336938,1,7,27,42,26,6,2,8
1523145289336938,0,-3,-10,-20,-2,-1,-2,-9
1523145289343475,-1,-1,-5,-19,-14,-13,-3,0
1523145289343475,-2,1,-1,-7,-7,7,3,3
1523145289360007,0,-1,-1,-19,-20,2,2,1
1523145289360007,-9,-9,1,33,3,8,-7,-12
1523145289361506,5,11,32,0,29,14,8,11
1523145289361506,0,-1,-23,-3,-2,-9,-10,-8
1523145289382558,0,0,6,14,-1,-20,-4,4
1523145289382558,-2,-2,-8,-20,21,9,1,-3
1523145289384064,0,-9,36,45,-24,-2,-4,-2
1523145289384064,2,7,-21,-36,22,20,13,18
1523145289396617,-5,-3,-21,-20,0,-7,-5,-1
1523145289396617,-2,-3,-1,9,11,-9,-6,-24
1523145289403635,3,-3,-10,-5,-28,-13,-3,2
1523145289403635,0,-3,20,15,2,10,1,-4
1523145289419689,-11,-11,-4,12,-2,-2,-2,4
1523145289419689,4,5,-1,-30,-2,-2,0,0
1523145289421682,-7,-1,0,17,16,-6,-9,-12
1523145289421682,-5,-2,4,-19,-36,-19,-9,-24
1523145289442238,21,5,2,10,18,20,32,82
1523145289442238,5,-1,-1,8,-9,16,5,5
1523145289444242,0,4,0,-7,-15,5,1,-3
1523145289444242,-33,-10,-7,-17,8,-18,-26,-65
1523145289456779,-8,-4,6,0,-7,-6,-6,-8
1523145289456779,45,25,21,20,33,6,25,68
1523145289463797,-6,-3,-25,-19,-21,5,1,13
1523145289463797,1,-3,-4,13,-17,5,-1,-6
1523145289479839,-22,-4,9,-1,-14,-13,-20,-53
1523145289479839,-15,-6,0,14,2,-2,-6,-15
1523145289481844,-11,-9,-20,7,8,-9,-9,-22
1523145289481844,13,3,11,8,11,-2,5,33
1523145289502398,14,8,-2,2,35,15,9,12
1523145289502398,-7,-3,0,-18,-23,-8,-7,-2
1523145289503902,-2,-1,-14,1,5,-1,4,-1
1523145289503902,-9,-7,25,5,1,0,-4,-15
1523145289515936,3,-4,5,10,3,0,-1,2
1523145289515936,4,4,-2,4,-1,0,5,9
1523145289524958,1,2,9,-6,0,-3,-2,-11
1523145289524958,5,-6,-10,12,-5,8,7,18
1523145289539998,1,7,-5,-18,-5,0,-3,-12
1523145289539998,-12,-9,-4,4,-11,-9,-6,-21
1523145289541503,-7,-22,-1,0,3,0,0,6
1523145289541503,12,9,-11,-2,0,-2,7,19
1523145289562562,-2,-4,5,4,-29,-7,-5,-8
1523145289562562,-11,-1,-3,-7,14,0,-8,-15
1523145289564070,8,3,-6,-7,-1,0,4,13
1523145289564070,10,5,8,2,2,-1,6,11
1523145289585118,-10,-4,-6,-5,-11,-7,-4,-16
1523145289585118,-5,-5,-1,0,0,8,-1,-2
1523145289586622,8,3,-2,-9,0,-3,1,7
1523145289586622,-1,-3,-4,7,8,-11,-1,1
1523145289600158,-1,1,-2,-6,2,12,-1,-3
1523145289600158,-1,-2,-2,0,-1,5,-1,-5
1523145289601663,-4,-2,-2,-4,7,7,-1,-3
1523145289601663,-1,0,-5,-6,-12,-5,1,0
1523145289622223,7,1,-4,1,0,-12,-7,-10
1523145289622223,-7,-6,-1,-9,-14,-15,-1,13
1523145289624224,-2,-1,-4,10,-13,-8,-7,-3
1523145289624224,0,2,3,9,-7,-7,-1,-22
1523145289636254,-8,-2,-1,-9,-40,9,1,5
1523145289636254,-8,-5,-3,-3,-8,-9,-28,-69
1523145289645278,6,6,4,-1,13,5,20,46
1523145289645278,16,-1,-4,-4,-3,5,58,108
1523145289659818,-4,-7,-8,-3,-4,-1,-7,-23
1523145289659818,-1,3,3,7,9,-4,-9,-19
1523145289661824,-10,1,0,-3,3,-6,-28,-59
1523145289661824,-7,-4,-2,2,-3,3,-22,-40
1523145289682379,-3,-4,-1,6,17,2,9,21
1523145289682379,2,4,0,-21,-30,-3,7,32
1523145289683881,2,-2,-6,10,27,-3,-5,-6
1523145289683881,-1,1,-1,-8,-10,5,-3,-5
1523145289695913,-6,-1,0,-2,5,0,-1,-9
1523145289695913,0,-1,-2,7,3,-9,-8,-3
1523145289705439,8,5,4,-1,-11,9,13,22
1523145289705439,-1,-3,1,-5,7,0,-7,-6
1523145289719977,-7,-4,3,1,-6,-5,-5,-9
1523145289719977,-4,-7,-6,7,3,-4,7,5
1523145289721483,0,1,-5,-18,-15,8,2,2
1523145289721483,-8,3,5,-2,8,-1,-11,-17
1523145289743039,-1,-1,-11,3,14,-4,-3,-2
1523145289743039,-1,-5,2,-37,-11,1,5,3
1523145289744542,-1,-3,-6,7,-8,-5,2,8
1523145289744542,7,5,-9,-1,1,-2,-7,-7
1523145289756074,1,4,31,29,43,-2,-4,-1
1523145289756074,4,5,12,49,-30,11,12,7
1523145289765108,-9,-23,-81,-75,-37,-12,-6,-16
1523145289765108,-1,8,68,79,37,8,-5,-1
1523145289780136,7,13,39,-19,20,4,3,16
1523145289780136,-21,-11,-18,-9,-12,-10,-13,-41
1523145289781641,-7,-4,-3,-2,9,-3,-2,0
1523145289781641,20,8,15,14,-6,8,18,27
1523145289802697,6,5,-17,-8,-15,-2,-1,1
1523145289802697,-5,-4,9,13,11,-3,-8,-14
1523145289804203,-14,-10,-29,-13,-27,-8,-8,-9
1523145289804203,-6,-3,3,-24,12,5,3,0
1523145289816232,16,6,-1,0,2,5,3,10
1523145289816232,2,-7,-26,-26,0,-1,1,8
1523145289825257,-5,13,48,17,6,-3,-5,-21
1523145289825257,-5,-7,-21,-2,-4,-5,-6,-18
1523145289839796,7,-3,0,4,-4,3,8,16
1523145289839796,-12,-2,-22,-24,2,-6,-7,-23
1523145289841801,-23,-12,24,29,3,-4,-6,1
1523145289841801,39,25,24,21,6,12,18,52
1523145289862358,-6,-5,-29,-31,-25,-5,-1,-6
1523145289862358,3,-5,-5,2,11,-4,0,14
1523145289864361,0,0,-17,-9,21,0,-4,-15
1523145289864361,-18,-6,0,-30,-5,-6,-11,-31
1523145289875896,-7,-5,4,13,-8,-3,-2,-4
1523145289875896,10,3,20,-22,10,4,5,16
1523145289884916,4,1,1,25,-1,-1,0,-1
1523145289884916,-10,-12,-37,-24,-19,-6,-5,-7
1523145289899956,-2,-1,-17,-10,-14,-7,-3,-3
1523145289899956,0,4,2,-25,54,8,4,7
1523145289901461,11,7,41,56,-21,8,4,6
1523145289901461,-5,-12,-19,-37,-4,-4,-1,-4
1523145289922516,-8,-10,-24,-30,-8,-6,-12,-15
1523145289922516,3,10,37,64,16,4,5,9
1523145289924020,16,4,-4,-17,9,1,6,13
1523145289924020,-8,-5,-6,-7,-9,-1,-7,-10
1523145289936052,-5,-6,1,4,-1,-3,-3,-9
1523145289936052,0,-5,-18,-7,-22,-3,0,3
1523145289945090,5,5,17,-1,14,0,1,6
1523145289945090,-10,-2,-6,1,-5,-5,-7,-10
1523145289960130,-1,-8,-23,-11,-8,-1,-1,-4
1523145289960130,3,1,-6,-12,-22,-3,0,9
1523145289961634,3,8,20,4,14,2,4,3
1523145289961634,-3,-4,-13,6,23,-1,-5,-10
1523145289982693,1,-3,-2,15,-18,3,1,4
1523145289982693,2,2,-19,-16,-18,-4,-3,-1
1523145289984195,4,-3,1,-10,-3,-1,6,10
1523145289984195,-2,-2,-7,1,-6,-2,-3,-5
1523145290004751,-3,0,0,4,19,1,2,-4
1523145290004751,-2,5,15,4,-12,-9,-6,-3
1523145290006754,-3,-3,-12,-11,-2,-2,-4,-2
1523145290006754,0,1,-10,-4,-31,-6,-1,5
1523145290019788,-7,4,5,2,-1,-11,-8,-18
1523145290019788,-1,-6,0,18,7,1,-11,-15
1523145290021794,-1,2,-7,-8,-4,6,0,-27
1523145290021794,1,-9,-5,-6,-21,15,29,89
1523145290042349,0,-1,-1,2,5,2,-7,-14
1523145290042349,0,3,9,2,-38,-11,1,10
1523145290043852,-3,-8,-20,-18,8,-9,-16,-31
1523145290043852,0,0,-1,2,16,10,-4,-75
1523145290064909,5,1,21,3,4,6,31,119
1523145290064909,2,10,-28,0,29,-2,-3,5
1523145290066413,-3,-16,20,3,-26,0,-12,-40
1523145290066413,-3,4,6,-4,-4,-7,-3,16
1523145290079951,-8,1,1,-2,-7,16,-17,-62
1523145290079951,-10,-8,-1,4,15,-2,-15,-27
1523145290081452,9,4,-6,-4,1,-10,-13,-75
1523145290081452,2,-3,-11,-2,9,-1,54,75
1523145290102508,7,3,6,1,0,12,-2,-28
1523145290102508,-1,1,8,1,-5,1,2,6
1523145290104016,-6,0,-11,-3,2,-2,-11,-8
1523145290104016,-8,-11,2,-1,-8,-15,-27,-41
1523145290125069,5,0,-5,2,3,-7,13,61
1523145290125069,0,-3,-2,0,6,5,7,-3
1523145290126573,-10,0,-6,-5,-24,-10,0,26
1523145290126573,3,5,12,-7,9,-1,-12,-14
1523145290139105,-3,-3,-2,16,10,5,1,-8
1523145290139105,1,-7,-6,-7,-14,1,-3,-14
1523145290146128,4,5,2,2,-2,1,13,45
1523145290146128,-5,-1,-15,-6,8,-11,-14,-20
1523145290162670,-4,0,2,-13,-2,-14,-6,-24
1523145290162670,8,2,9,-1,1,17,3,9
1523145290164174,-1,-1,-3,-12,3,2,13,24
1523145290164174,-3,-2,-2,5,-1,-1,-8,-15
1523145290184726,-6,-8,-14,-14,1,-8,-12,-21
1523145290184726,7,3,39,28,11,-1,8,12
1523145290186733,-9,-3,-15,-27,-6,5,6,17
1523145290186733,-5,-5,-13,-8,-4,-19,-18,-30
1523145290199265,12,1,3,9,-26,-2,11,25
1523145290199265,11,11,-8,-32,12,31,15,12
1523145290206284,2,3,21,24,5,4,1,6
1523145290206284,-7,-4,-6,-13,-5,-9,-7,-11
1523145290222327,-14,-5,2,7,3,-17,-10,-23
1523145290222327,-4,-8,-11,-13,-18,-6,0,1
1523145290223833,6,-2,0,29,18,1,-1,6
1523145290223833,-7,-2,-1,-13,-10,-2,-6,-9
1523145290244894,-1,0,2,10,5,-1,-4,-4
1523145290244894,6,5,4,12,5,-3,2,4
1523145290246392,2,2,-8,-5,7,1,2,8
1523145290246392,6,-1,-5,-6,-15,0,-8,-5
1523145290259429,-4,0,4,13,2,2,-2,-11
1523145290259429,-6,-5,-5,3,-26,-9,-3,-4
1523145290265944,1,0,7,0,21,-5,0,3
1523145290265944,1,1,1,-8,-8,4,0,0
1523145290282487,1,1,4,-17,1,3,0,-10
1523145290282487,-4,-2,-6,5,0,-6,-2,4
1523145290283992,-2,-1,-7,1,5,-2,1,7
1523145290283992,-2,-3,5,17,5,-15,-8,-5
1523145290305047,-4,-4,-10,-13,3,-8,-2,-6
1523145290305047,-2,-1,0,7,1,42,8,1
1523145290306551,1,-2,-1,-5,-16,11,4,5
1523145290306551,-1,3,3,10,12,3,0,2
1523145290319084,1,-1,0,-3,2,-14,-4,-5
1523145290319084,-3,-4,-6,-3,-6,-27,-6,-5
1523145290326103,1,2,3,0,-6,-1,-2,3
1523145290326103,-1,-1,0,-6,-3,-1,-2,-2
1523145290342646,-2,-1,-15,-1,1,2,-5,-4
1523145290342646,-7,-11,11,-6,-4,-31,-4,-3
1523145290344154,-3,-9,-10,5,-9,1,3,2
1523145290344154,2,-1,6,7,11,23,8,1
1523145290364706,1,6,7,4,-2,-7,0,-1
1523145290364706,-1,4,-8,-3,13,32,-3,-17
1523145290366711,0,2,-4,-10,-11,-37,-1,3
1523145290366711,1,-4,13,11,-7,4,0,9
1523145290379244,-6,-6,-13,-6,3,9,-1,-1
1523145290379244,-4,-2,-2,-1,5,-25,-5,-6
1523145290386269,4,0,-2,-12,-11,6,-7,-8
1523145290386269,-5,-1,-9,0,1,4,-4,-7
1523145290402305,1,0,7,-4,-6,-15,-2,-4
1523145290402305,-2,-3,-12,-18,-19,4,4,5
1523145290404314,-4,0,-5,8,-2,18,6,1
1523145290404314,4,11,33,42,43,11,3,7
1523145290424866,-7,-5,4,-29,-16,-5,-9,-7
1523145290424866,-5,-9,-17,14,-3,-12,-5,0
1523145290426370,-2,2,-42,-42,-5,-9,-3,2
1523145290426370,-2,-8,18,12,-11,-2,0,-2
1523145290439405,17,22,50,-1,26,16,11,4
1523145290439405,-13,-4,10,-6,2,-1,-3,-5
1523145290445926,-9,-10,-10,-19,9,-1,-7,-13
1523145290445926,6,-4,-45,-41,-44,-17,-1,10
1523145290462474,6,1,-8,10,-7,5,6,14
1523145290462474,-1,-2,4,7,4,-2,-2,-1
1523145290464474,0,5,17,-3,13,2,4,6
1523145290464474,-9,-1,-5,8,25,18,-7,-20
1523145290485026,-6,-7,-3,7,4,-5,-4,-4
1523145290485026,1,0,-6,-8,-50,-19,-2,-4
1523145290486530,1,0,17,15,20,18,9,22
1523145290486530,2,1,-2,-6,-13,-4,0,4
1523145290498562,-1,-1,-12,5,11,9,0,-1
1523145290498562,-2,-4,1,-18,-17,-15,-6,-5
1523145290507587,-3,2,16,29,1,-17,-8,-12
1523145290507587,-6,-6,-10,-19,-52,-35,-12,-19
1523145290522625,2,-1,-7,-5,14,9,-2,-22
1523145290522625,7,2,2,1,-9,23,11,30
1523145290524131,4,3,4,4,-12,5,-3,2
1523145290524131,3,2,-5,-12,8,10,40,56
1523145290544687,-11,-12,-8,-3,-26,-28,-16,-33
1523145290544687,0,1,-2,2,6,-11,-9,-20
1523145290546691,3,-1,0,3,4,3,-16,-31
1523145290546691,-5,-1,-4,1,12,-2,-9,-25
1523145290558725,-4,-2,-2,0,-3,0,5,15
1523145290558725,1,5,9,9,31,5,-3,-10
1523145290567746,3,3,3,-4,-8,-7,4,10
1523145290567746,2,-9,-6,2,9,9,2,-1
1523145290582284,-4,1,-2,2,-16,3,6,12
1523145290582284,-3,-6,-3,3,47,8,-3,2
1523145290584291,-6,-3,-4,-10,-41,-14,-9,-23
1523145290584291,9,11,10,3,4,-1,9,31
1523145290604848,0,-5,-7,-4,1,10,2,15
1523145290604848,-3,0,-4,-11,-9,-15,-2,-10
1523145290606854,-6,-7,-4,9,1,-11,-7,-4
1523145290606854,0,-3,-6,-7,-4,21,-3,-17
1523145290618381,-1,-3,1,-3,-4,12,-1,2
1523145290618381,-1,0,0,10,23,-3,3,5
1523145290627412,0,-1,-5,-12,-1,1,3,9
1523145290627412,-5,-5,-38,-47,-30,-26,-15,-11
1523145290642444,0,13,76,81,17,4,4,-1
1523145290642444,-9,-8,-14,-11,0,6,-5,-14
1523145290643953,-6,-12,-5,-8,0,-5,-2,0
1523145290643953,21,12,3,8,20,4,13,28
1523145290665008,-1,-11,-38,-26,-11,-11,-6,-4
1523145290665008,1,9,17,-35,33,6,4,1
1523145290666511,-11,-8,-39,7,-15,-2,-5,-7
1523145290666511,-12,18,85,30,42,3,-7,-17
1523145290678548,0,-7,-34,-65,-9,-4,2,1
1523145290678548,1,-9,-42,-1,-8,-6,-2,3
1523145290687566,6,9,50,2,10,8,6,6
1523145290687566,-2,-7,-26,-5,-9,32,0,-5
1523145290702604,-3,-4,-6,-16,12,-3,-1,-1
1523145290702604,-1,8,27,8,-5,-8,-5,-1
1523145290704109,3,6,22,31,14,2,10,6
1523145290704109,-5,-4,-1,21,-5,-21,-6,-9
1523145290725164,1,-4,-19,-34,-16,2,-4,-3
1523145290725164,-8,-7,-15,-14,-17,-11,-1,3
1523145290726669,0,3,-20,-14,-4,10,3,13
1523145290726669,-2,5,37,39,16,3,0,-17
1523145290738700,-14,-14,-59,-46,-10,-5,-1,-5
1523145290738700,0,-6,-16,-3,-27,-2,-7,0
1523145290747726,12,25,93,85,30,2,7,11
1523145290747726,-10,-15,-56,-60,-24,-3,-12,-14
1523145290762264,1,1,12,17,-13,-5,-10,-2
1523145290762264,12,-1,-48,-53,19,2,16,19
1523145290764273,-4,6,43,-14,8,12,2,-6
1523145290764273,16,2,-19,8,-2,-11,3,0
1523145290784825,-2,3,18,23,23,2,8,8
1523145290784825,1,3,-2,-8,-63,-6,-10,-8
1523145290786829,-1,-11,-44,-26,-19,-11,-3,5
1523145290786829,-9,-7,19,4,17,-2,-6,-10
1523145290798861,-8,1,-7,-13,-6,-5,-5,-13
1523145290798861,-4,-5,0,6,-7,3,0,-2
1523145290807884,-4,-13,-48,-31,-12,-13,-5,-5
1523145290807884,-1,7,37,41,-2,3,1,1
1523145290822426,4,3,11,14,19,22,0,4
1523145290822426,-15,-9,15,13,10,6,-6,-17
1523145290823929,1,-7,-16,-15,-13,-10,-4,10
1523145290823929,19,3,-27,-37,-13,4,5,17
1523145290844985,3,1,2,24,4,-14,2,6
1523145290844985,-1,7,30,25,19,4,2,-8
1523145290846488,-17,-12,-29,-36,-13,2,-13,-25
1523145290846488,-6,-7,-12,-14,-31,-19,-5,0
1523145290858523,4,6,23,5,24,-6,4,7
1523145290858523,-4,1,14,43,1,-3,-2,-3
1523145290867546,0,-6,-6,-12,-22,-13,-3,-3
1523145290867546,-8,3,3,-4,-12,2,-2,-1
1523145290882583,3,0,1,5,51,13,3,-2
1523145290882583,-1,-4,-7,-13,2,-3,0,5
1523145290884090,5,4,3,12,5,2,2,7
1523145290884090,-6,-1,1,-6,12,3,-8,-4
1523145290905143,-7,-5,-8,-4,-34,-20,-20,-68
1523145290905143,6,4,7,-8,-1,16,22,69
1523145290906649,7,2,2,34,43,37,10,19
1523145290906649,-10,-6,-16,-18,-9,-11,-16,-70
1523145290927707,2,-1,6,-2,-11,9,37,108
1523145290927707,-6,-6,9,13,-1,-18,-36,-58
1523145290929208,4,5,1,-15,-12,-13,-36,-90
1523145290929208,3,-6,-10,-1,13,14,83,106
1523145290942241,1,-2,-9,4,-19,-14,-20,-66
1523145290942241,3,3,3,-10,2,6,-2,-28
1523145290944249,-1,-5,-9,-8,-21,0,-14,-26
1523145290944249,-13,-3,3,7,23,-3,-30,-39
1523145290964803,0,0,0,-5,-40,-1,0,8
1523145290964803,3,-2,-2,0,8,-2,8,18
1523145290966307,-2,1,-2,-13,-4,-4,5,16
1523145290966307,1,1,-3,3,3,-2,-6,5
1523145290987363,-3,-5,-3,4,13,0,6,17
1523145290987363,-1,1,-1,-10,-10,-8,-8,-9
1523145290988868,-3,-3,-1,-5,-48,2,12,13
1523145290988868,3,-1,-6,0,1,-7,2,11
1523145291001901,-7,-6,10,2,13,2,-18,-20
1523145291001901,0,-2,-7,4,1,-16,0,-8
1523145291008421,8,5,6,-2,35,19,17,31
1523145291008421,-8,-8,-23,4,-15,8,-6,-8
1523145291024963,4,0,14,8,-7,4,-3,-19
1523145291024963,-8,-3,-1,-5,12,0,-2,-1
1523145291026468,13,4,-19,-20,17,-13,14,27
1523145291026468,3,4,18,42,-10,-10,-14,-12
1523145291047522,3,9,10,-5,34,12,5,-8
1523145291047522,3,-2,3,22,-19,-1,7,12
1523145291049027,-12,-12,-50,-38,-9,-7,-9,-11
1523145291049027,11,25,74,44,23,4,-3,-5
1523145291062065,-15,-23,-56,-55,-11,-5,-3,5
1523145291062065,-6,-3,34,52,-10,0,4,-2
1523145291068582,2,14,11,-38,13,5,4,4
1523145291068582,-3,-16,-44,-51,-20,-5,-6,-5
1523145291085122,-3,4,3,-10,-53,-11,-1,-1
1523145291085122,1,-5,-29,22,1,3,-5,-3
1523145291086628,-5,-2,2,15,13,-2,-4,-2
1523145291086628,-13,-8,38,14,12,-6,-6,-12
1523145291107683,1,-4,-35,-36,-10,-4,1,5
1523145291107683,18,2,-18,-15,-2,7,10,28
1523145291109187,-3,9,41,17,8,5,-4,-9
1523145291109187,3,2,10,20,25,7,-3,-17
1523145291121219,-26,-16,-24,-12,-15,-16,-23,-41
1523145291121219,11,5,-5,-12,4,7,11,27
1523145291130244,13,2,-4,1,10,-8,10,23
1523145291130244,1,-2,-7,-14,-58,-7,-6,13
1523145291145284,-2,-1,8,18,7,-3,-6,-6
1523145291145284,-15,-2,-3,-2,3,-12,-9,-33
1523145291146786,-7,-10,-4,-15,-19,-3,-5,-3
1523145291146786,-1,-4,-52,-57,-3,0,-3,-4
1523145291167342,0,-1,60,81,18,6,4,7
1523145291167342,0,5,-13,-17,9,2,-2,-2
1523145291168846,-5,-6,6,32,-2,-6,0,-2
1523145291168846,2,0,-19,-13,-1,-5,-2,4
1523145291181881,8,4,-8,-2,10,-9,0,7
1523145291181881,-2,-3,-10,-45,-43,-12,-4,-7
1523145291188398,-17,-15,-7,47,0,11,-2,-11
1523145291188398,-11,2,13,-24,21,16,-2,-17
1523145291204941,21,7,-15,-32,-30,4,11,29
1523145291204941,11,9,27,51,77,9,7,11
1523145291206449,-8,-7,-27,-36,-42,-15,-7,-11
1523145291206449,-8,-8,-1,12,1,-15,-4,-1
1523145291227506,-5,2,-3,-7,14,1,-3,-9
1523145291227506,0,3,5,-31,-23,5,1,-5
1523145291229006,-1,1,6,-14,8,-1,0,2
1523145291229006,4,-4,-11,0,19,-3,-2,17
1523145291242040,-5,-2,-1,4,3,8,-2,-20
1523145291242040,-4,-4,-2,-2,10,-1,-4,-4
1523145291248562,3,-1,-6,-6,-13,3,1,2
1523145291248562,-2,-2,-2,-3,-9,-14,-2,0
1523145291266605,5,1,-7,7,6,-3,2,8
1523145291266605,-8,-5,12,-6,-4,30,1,-7
1523145291268112,-1,0,9,4,-6,-9,-4,-3
1523145291268112,4,1,0,17,43,-3,0,1
1523145291287661,1,0,1,-24,-28,-2,-6,0
1523145291287661,-4,0,10,43,44,16,-1,-10
1523145291289166,-7,-1,1,-5,-32,1,-6,-30
1523145291289166,4,-2,-2,3,-13,-5,-4,-35
1523145291301699,4,3,4,12,13,6,38,67
1523145291301699,-4,-3,-11,-28,-22,-23,-44,-100
1523145291308717,-4,-2,4,17,23,13,23,85
1523145291308717,12,3,0,-1,1,11,16,-2
1523145291324761,11,3,2,3,5,-5,54,65
1523145291324761,0,5,-2,-11,-32,12,-4,-14
1523145291326766,-7,-5,6,16,9,-31,-46,-128
1523145291326766,-10,-4,-9,0,22,6,-15,-17
1523145291347320,-3,-5,9,6,10,9,-20,-31
1523145291347320,-1,-2,-9,-6,-3,-17,5,16
1523145291348825,-1,4,9,-1,6,-6,-7,-13
1523145291348825,2,-4,-9,-11,-19,-9,8,28
1523145291361864,4,6,4,9,6,-7,-14,-15
1523145291361864,-6,-13,-4,-7,-12,-6,9,20
1523145291368878,5,2,-4,-3,-11,4,8,21
1523145291368878,-2,1,6,-1,-7,1,3,10
1523145291384923,-5,-5,-8,5,12,6,-11,-24
1523145291384923,8,6,22,18,9,1,4,9
1523145291386425,5,4,2,21,23,10,10,24
1523145291386425,-18,-11,-33,-43,-41,-6,-12,-26
1523145291407482,-10,1,29,41,15,-5,-18,-29
1523145291407482,38,24,15,-6,17,11,32,67
1523145291408987,-2,-10,-23,-14,-3,-1,1,5
1523145291408987,-11,-8,-14,-1,-1,-3,-7,-16
1523145291421018,-12,3,11,-11,-16,1,-12,-22
1523145291421018,-10,-6,10,-18,-2,-6,0,2
1523145291430041,2,-10,-59,-50,2,-4,3,8
1523145291430041,5,15,68,86,26,11,0,-1
1523145291444581,-5,-13,-3,-37,-6,0,-4,-8
1523145291444581,-6,-11,-32,-38,-27,-16,-4,-2
1523145291445080,-8,4,34,65,15,17,-1,-3
1523145291445080,-11,-1,-13,-56,-12,-12,-12,-21
1523145291466639,37,19,3,24,15,5,19,53
1523145291466639,-1,14,17,1,3,20,-1,-4
1523145291467642,-7,-15,-31,-37,-23,-16,-8,-12
1523145291467642,-8,-9,-50,-11,-4,-2,4,12
1523145291489198,0,16,59,2,9,6,-4,-11
1523145291489198,-13,-19,-73,-84,-39,-26,-11,-17
1523145291490201,7,17,40,43,28,-3,3,7
1523145291490201,3,-13,-4,3,-8,13,2,5
1523145291504241,-1,-2,-48,-23,-28,-4,-9,-14
1523145291504241,-6,-6,25,23,30,-2,2,5
1523145291505240,-4,-6,-13,-24,21,6,-1,-4
1523145291505240,6,6,49,88,-38,-12,-2,6
1523145291526798,-2,-6,-32,-15,-45,-17,-7,-12
1523145291526798,-6,-7,-18,7,-11,5,1,-2
1523145291527819,11,1,3,-1,23,14,6,14
1523145291527819,1,2,11,-12,1,-14,1,2
1523145291549861,-11,-6,-19,-16,-2,3,-8,-12
1523145291549861,-3,2,-1,9,-9,-5,-3,-6
1523145291550862,-6,2,41,54,6,-4,0,-4
1523145291550862,2,2,7,-31,13,5,4,6
1523145291564400,-6,-6,-9,-7,-8,-8,-10,-14
1523145291564400,15,7,5,-3,14,-1,12,20
1523145291564901,-8,-8,-30,-24,-18,-2,-4,-6
1523145291564901,3,11,32,18,28,11,1,-1
1523145291586960,-5,-4,-3,17,3,-4,-1,-11
1523145291586960,-7,-5,4,19,-3,-3,-7,-10
1523145291587460,8,4,-5,-15,6,3,6,10
1523145291587460,-1,-5,-23,-12,-25,-1,-3,3
1523145291610023,-4,-7,-28,-38,25,-3,-3,-5
1523145291610023,-10,4,57,67,-29,3,-2,-9
1523145291611027,-6,-1,-2,-37,-6,-3,-3,-7
1523145291611027,14,4,-2,-32,-5,-4,8,23
1523145291624056,9,3,0,25,35,4,0,9
1523145291624056,-7,-5,-22,-26,-31,19,-3,-9
1523145291625060,-3,2,32,56,-3,-12,-2,-9
1523145291625060,-9,-6,-18,-29,1,14,-2,-10
1523145291646618,-2,6,21,20,-1,1,1,0
1523145291646618,-2,-18,-30,1,21,-17,-3,-1
1523145291647621,0,0,0,-25,-21,-7,-3,-2
1523145291647621,1,0,-15,-2,1,-6,0,0
1523145291669678,0,1,8,6,-4,-1,4,6
1523145291669678,-3,2,1,-2,12,-3,-5,-4
1523145291670682,-3,-1,-10,-10,-29,-4,-5,0
1523145291670682,2,-2,0,-5,14,-22,-4,-8
1523145291684217,-3,0,10,-7,-9,10,6,3
1523145291684217,1,1,-1,4,10,22,9,9
1523145291685219,-1,-3,-5,-9,1,10,-13,-31
1523145291685219,-3,1,2,-4,-7,-4,-9,-9
1523145291706780,-9,-8,4,-4,-16,-23,-9,-1
1523145291706780,6,2,-4,-1,20,-16,-4,40
1523145291707781,13,1,-8,-9,-12,7,47,25
1523145291707781,-2,-3,5,3,-7,21,1,-19
1523145291729840,-4,-1,-4,5,7,-1,-5,-38
1523145291729840,-10,-2,-1,-4,-9,-11,-44,-86
1523145291730842,0,1,3,0,7,-13,-9,-51
1523145291730842,0,-3,-4,0,-6,5,18,118
1523145291744381,2,-2,-4,2,17,7,-8,-18
1523145291744381,-1,2,2,-5,-2,2,6,8
1523145291744879,-2,-1,0,-3,-2,-11,-14,-23
1523145291744879,-3,-4,-11,-9,-36,-9,-5,-38
1523145291766937,1,-1,4,5,12,8,4,24
1523145291766937,3,2,4,0,-1,-3,7,0
1523145291767439,-3,-3,-4,-6,-4,6,-2,18
1523145291767439,1,2,-1,7,25,-2,-1,-10
1523145291789998,-4,-4,-7,-7,-16,5,1,6
1523145291789998,-1,-3,-4,-5,-10,-4,1,-6
1523145291791002,-5,-4,-3,-4,4,-6,-15,-30
1523145291791002,3,-2,-8,-10,-4,6,13,76
1523145291804537,7,6,11,9,40,6,10,1
1523145291804537,-8,-4,-11,-34,-17,6,1,-10
1523145291805040,-17,-8,-22,-4,5,-7,-9,-1
1523145291805040,2,3,25,7,26,-1,-11,-34
1523145291826597,15,-2,-34,-28,-33,0,7,17
1523145291826597,0,7,39,21,10,-5,6,15
1523145291827601,0,-2,1,-2,7,11,-1,6
1523145291827601,-11,-2,15,12,-12,-15,-12,-42
1523145291849158,-11,-7,-29,-34,-38,-15,-6,-1
1523145291849158,8,5,-20,-3,11,7,5,4
1523145291850160,5,5,30,62,-26,6,5,15
1523145291850160,0,1,-19,-19,-11,-19,-5,-17
1523145291864198,-7,-9,-13,-12,-4,18,-1,0
1523145291864198,1,5,6,51,10,-1,1,-3
1523145291865198,-3,-11,-41,-43,-27,-16,-3,8
1523145291865198,-3,4,32,78,37,9,-2,-15
1523145291886755,1,-5,-1,-64,-10,10,-2,-3
1523145291886755,11,-3,-21,-34,-20,-11,7,21
1523145291887758,-1,1,-9,2,29,11,6,14
1523145291887758,-1,-6,-22,-41,-3,0,-1,-15
1523145291909317,-13,-6,-1,17,-5,-19,-14,-25
1523145291909317,-7,1,16,-9,-4,3,1,-2
1523145291910319,10,0,-13,-19,3,-11,4,20
1523145291910319,-4,-7,-21,-7,-26,-4,-2,-14
1523145291924356,2,12,27,11,5,25,4,1
1523145291924356,-9,-9,-2,25,12,-3,-4,-12
1523145291924858,1,6,21,-11,1,-8,-9,4
1523145291924858,11,6,-11,-13,-9,6,11,17
1523145291946915,4,2,10,15,-3,-9,-1,-1
1523145291946915,-5,-7,-7,25,32,-1,-3,-10
1523145291947418,-3,-1,3,-25,-29,5,-5,-5
1523145291947418,-4,-4,3,7,6,5,-3,-9
1523145291969476,1,-3,-2,10,-8,-18,-1,4
1523145291969476,-1,0,5,-5,-3,12,-2,-3
1523145291969984,3,5,12,12,25,7,4,1
1523145291969984,-1,-6,-14,-12,6,5,-1,-3
1523145291984015,-5,-3,1,11,-16,-7,-4,-3
1523145291984015,4,-3,-8,-27,23,-8,0,2
1523145291985018,5,0,10,32,-9,12,5,4
1523145291985018,-1,4,6,-6,3,0,-4,-8
1523145292006574,6,3,18,18,15,-1,4,11
1523145292006574,-1,-2,-4,-11,-10,-2,0,3
1523145292007579,-3,-3,-14,-19,-8,-2,-1,-1
1523145292007579,-4,0,6,16,17,-3,-3,-10
1523145292029136,-5,0,6,9,0,0,-5,-7
1523145292029136,3,3,12,20,-9,0,4,6
1523145292030137,3,3,-4,-20,6,-2,-1,3
1523145292030137,-5,-4,-5,-19,-25,-6,-6,-6
1523145292044177,4,1,2,8,-18,-4,-1,1
1523145292044177,1,-2,-18,-23,-10,0,-1,2
1523145292045179,-6,3,38,28,28,-1,1,-5
1523145292045179,0,-4,-12,-30,-29,-7,1,1
1523145292066736,4,1,-2,2,12,4,0,6
1523145292066736,0,-1,-1,-7,-1,3,0,-4
1523145292067737,-2,-2,-5,-8,-12,-1,-3,-3
1523145292067737,-1,5,6,18,11,-1,1,0
1523145292089297,-6,-4,-3,11,15,7,-1,-9
1523145292089297,-9,-7,-3,-4,-16,-16,-7,-7
1523145292089796,12,9,4,-5,28,10,8,15
1523145292089796,1,1,6,7,-9,0,0,-1
1523145292104334,-7,0,-7,-7,-7,-17,-8,-11
1523145292104334,-3,-4,-9,-11,-3,11,-8,-40
1523145292104836,-3,-11,-24,-42,-13,-5,14,51
1523145292104836,3,6,24,74,12,4,3,-1
1523145292126896,1,-2,5,-5,17,5,4,2
1523145292126896,-8,-2,-1,-9,-7,-8,-7,-14
1523145292127400,-4,-5,-15,-3,-11,-11,-13,-20
1523145292127400,7,4,-1,-21,0,-1,3,17
1523145292149455,-2,-1,-1,7,16,-4,0,2
1523145292149455,2,3,7,7,-35,-25,-9,-22
1523145292149957,-6,-6,-10,1,-2,44,10,12
1523145292149957,-1,-2,-1,-16,19,8,2,2
1523145292164495,0,0,4,6,-20,-13,-4,-6
1523145292164495,3,0,-5,-21,-17,-5,-2,12
1523145292164998,-10,-1,7,23,45,-23,-25,-41
1523145292164998,-3,-3,-8,-13,-27,-19,-25,-104
1523145292188059,10,2,5,-5,-4,13,26,58
1523145292188059,-1,0,-2,-9,13,33,43,91
1523145292189061,-4,-1,7,37,-34,-10,-28,-71
1523145292189061,10,1,-1,-11,21,1,67,76
1523145292211120,2,10,-17,-14,-17,-14,-3,7
1523145292211120,2,-13,12,2,3,15,-11,-17
1523145292211622,1,3,1,-11,-44,-21,6,14
1523145292211622,-18,-4,-3,-6,-12,-15,-47,-49
1523145292224154,-9,-3,-2,1,2,5,-52,-120
1523145292224154,12,9,7,11,5,-2,36,64
1523145292225156,8,-3,-14,-10,19,9,34,8
1523145292225156,1,-3,6,5,12,-4,-7,-30
1523145292246713,-5,-2,-2,-11,-43,-11,6,-4
1523145292246713,-10,-2,-5,4,7,-4,-54,-92
1523145292247715,-2,3,3,-1,-6,-17,0,-1
1523145292247715,2,2,-22,-18,-24,5,14,54
1523145292269274,-4,-16,10,12,39,13,-13,-24
1523145292269274,0,4,-11,2,6,-5,7,17
1523145292270276,0,-3,-4,-9,-29,-3,2,24
1523145292270276,7,9,5,-7,1,12,-3,-4
1523145292284314,-15,-11,-12,2,11,5,5,10
1523145292284314,1,1,1,3,1,-13,-1,-11
1523145292284817,0,-1,-12,-10,12,3,0,8
1523145292284817,-4,-3,10,2,15,10,-14,-27
1523145292306876,4,6,3,0,-41,-6,11,8
1523145292306876,9,7,-7,-28,0,-1,5,12
1523145292307375,-8,-8,-6,-22,-13,0,-18,-31
1523145292307375,1,6,30,20,24,4,5,10
1523145292329433,6,-3,-42,-61,7,5,3,10
1523145292329433,-9,2,37,66,-12,7,-4,-18
1523145292329936,3,6,21,-23,19,2,-6,-6
1523145292329936,-2,-13,-29,-13,4,-22,-1,1
1523145292343972,1,-3,-9,8,12,-14,6,8
1523145292343972,-4,-14,-35,-47,8,55,-4,-17
1523145292344976,11,25,84,113,23,-2,5,4
1523145292344976,5,0,10,5,3,3,-3,7
1523145292366537,-9,-7,-8,-1,-7,-32,-12,-15
1523145292366537,-4,2,-6,-22,-14,-32,-7,-2
1523145292367537,-3,-6,-7,0,15,32,7,-19
1523145292367537,-3,-4,19,1,-13,13,2,18
1523145292389094,15,11,13,19,-22,5,-1,2
1523145292389094,0,-5,-36,-14,3,-36,-18,-14
1523145292390096,-16,-7,-35,-38,-14,-19,-33,-110
1523145292390096,7,2,-4,-4,5,33,36,91
1523145292404132,2,-3,63,38,-17,4,24,19
1523145292404132,-4,4,11,8,20,5,-1,-4
1523145292405136,8,7,-32,-50,26,12,-2,-6
1523145292405136,-14,-7,-24,-41,-16,-44,-40,-73
1523145292428198,-7,0,10,15,2,10,-24,-82
1523145292428198,11,2,34,28,-11,31,40,75
1523145292429198,4,-8,1,4,7,6,13,-12
1523145292429198,4,3,-30,-7,10,7,4,-30
1523145292449253,-5,-3,-14,-10,12,-7,-1,8
1523145292449253,-1,-4,2,-2,-20,-39,-39,-69
1523145292449754,-8,-6,-3,11,28,-5,-1,15
1523145292449754,4,1,6,-1,-11,12,10,60
1523145292463791,-7,-8,-12,1,7,3,2,13
1523145292463791,-1,-3,-7,-9,-2,4,-3,-9
1523145292471818,-6,-8,0,0,-1,-7,8,35
1523145292471818,-18,-10,-12,16,-21,-15,-24,-56
1523145292486854,22,14,6,-11,57,20,17,35
1523145292486854,6,4,-1,26,-6,2,17,20
1523145292487355,-2,-3,-11,-35,-24,-10,-3,9
1523145292487355,-10,-5,11,7,-4,-5,-13,-42
1523145292509413,-16,-2,1,3,16,5,-1,-9
1523145292509413,3,-7,-26,-15,-36,-8,6,7
1523145292510420,12,3,5,17,-23,-5,-3,8
1523145292510420,-5,-1,-33,-16,4,3,1,-15
1523145292523453,-20,-15,-2,23,-1,-10,-7,-7
1523145292523453,35,28,64,24,48,20,20,30
1523145292531972,2,-4,-35,-14,-18,-4,0,22
1523145292531972,-2,-6,7,-45,-3,0,4,5
1523145292547012,-6,-6,-12,10,-9,-2,-5,-18
1523145292547012,-27,-9,-3,4,17,-11,-18,-44
1523145292547514,2,5,19,11,-37,-4,2,12
1523145292547514,14,2,-11,-16,3,-1,8,16
1523145292569072,-3,-8,-8,-3,-33,-5,-10,-13
1523145292569072,-9,-5,-17,-18,5,1,-5,-13
1523145292570075,-1,2,21,14,20,2,4,9
1523145292570075,-5,-5,-5,7,0,-2,-3,-10
1523145292583609,6,7,3,-18,-41,-10,-2,3
1523145292583609,-15,-1,15,3,1,-11,-7,-15
1523145292591633,6,-3,-24,7,3,4,6,18
1523145292591633,7,6,3,2,-6,-2,-1,6
1523145292606671,12,5,-6,-6,7,6,10,9
1523145292606671,-5,-4,-12,-6,15,2,-5,-9
1523145292607676,-21,-7,13,-13,-52,-10,-16,-29
1523145292607676,-8,-10,2,14,5,-2,-3,-7
1523145292629231,14,12,10,7,27,0,8,17
1523145292629231,-6,-9,-23,-20,-33,-21,-7,-10
1523145292630234,-5,-5,-8,4,33,22,-1,-5
1523145292630234,3,7,24,4,-4,19,9,6
1523145292643771,-6,0,0,-4,-9,-1,-8,-10
1523145292643771,-2,-2,-5,-9,-2,-6,2,6
1523145292651791,3,-3,-2,17,4,-13,0,7
1523145292651791,-3,-2,-6,20,3,-6,-1,-2
1523145292666831,-3,-2,-3,-4,16,-3,-3,-7
1523145292666831,-18,-9,-3,-24,-64,-22,-12,-29
1523145292667333,-6,-3,-3,-14,23,0,3,5
1523145292667333,30,15,10,41,17,23,13,36
1523145292689398,0,1,0,-28,-16,-3,4,10
1523145292689398,3,4,-1,-3,-1,1,0,3
1523145292689893,-14,-6,-4,-1,-11,-8,-8,-26
1523145292689893,-17,-8,-6,-9,-28,-20,-12,-28
1523145292703431,13,3,-2,13,32,12,8,29
1523145292703431,1,1,-4,-6,-1,2,-1,-3
1523145292711951,-5,-5,-6,-4,-2,-8,-5,-7
1523145292711951,13,9,8,11,19,0,5,11
1523145292726993,-4,-1,4,-9,-9,-7,-4,-11
1523145292726993,0,0,-15,17,21,7,3,6
1523145292727497,0,-2,13,0,-4,3,-1,2
1523145292727497,-11,-8,1,-2,-12,-5,-6,-12
1523145292749052,-3,-3,-6,0,6,2,-2,-8
1523145292749052,5,-1,-4,-2,-33,-7,0,4
1523145292750054,5,6,3,6,7,-9,-1,5
1523145292750054,-6,-9,-20,-18,-25,-15,-3,-5
1523145292763589,-7,-8,11,7,22,43,4,-5
1523145292763589,3,2,6,9,22,-6,1,2
1523145292771610,-3,1,0,-9,6,11,0,6
1523145292771610,-4,-2,-2,-2,5,-18,-16,-45
1523145292786653,-2,1,-7,-9,-37,-19,2,12
1523145292786653,3,-3,-1,-3,14,18,9,17
1523145292787654,9,4,-1,3,-2,-4,17,13
1523145292787654,-6,-1,-3,-6,4,-2,0,13
1523145292809215,0,1,0,1,2,-4,-21,-38
1523145292809215,-2,-4,-1,2,19,4,9,5
1523145292810215,-1,-4,2,-6,-15,-6,-1,-2
1523145292810215,-5,2,4,7,6,6,-3,1
1523145292832272,-2,-2,-6,-5,-5,-9,-7,-20
1523145292832272,-1,-3,-2,-8,-9,-5,-7,-3
1523145292833275,-1,-5,-10,8,16,7,-2,-3
