timestamp,emg1,emg2,emg3,emg4,emg5,emg6,emg7,emg8
1523147490752442,-1,-1,4,-1,-3,-1,-1,-1
1523147490752442,0,-2,-2,-9,-2,1,-1,-1
1523147490753949,1,1,7,13,0,1,-1,-2
1523147490753949,-6,-1,-10,5,1,-2,-2,1
1523147490767481,14,-2,9,18,5,0,0,-5
1523147490767481,1,-5,-16,-84,-16,-4,-5,1
1523147490768986,-1,1,0,3,0,1,-1,-2
1523147490768986,-6,-1,5,11,0,-1,-2,-5
1523147490790043,-2,-2,-7,-9,-2,-1,-1,-2
1523147490790043,2,2,6,21,5,1,0,0
1523147490791546,4,1,9,13,-2,2,1,-3
1523147490791546,5,-6,-9,-6,-1,-5,-1,-1
1523147490814105,-6,1,-1,-26,-2,-1,-3,3
1523147490814105,4,1,0,28,1,-2,-1,-2
1523147490817119,-5,-4,-5,-45,-7,-1,-1,-4
1523147490817119,0,2,9,24,-2,-1,1,-1
1523147490828147,-3,-1,0,14,1,-3,-3,-1
1523147490828147,-4,-3,-5,-3,0,2,0,-2
1523147490833661,0,-3,-5,3,3,-2,-1,-1
1523147490833661,1,0,1,16,-4,0,0,1
1523147490849700,-2,-2,-5,-64,-8,-1,-1,-4
1523147490849700,5,5,2,20,1,-2,-1,5
1523147490851712,-1,-1,8,10,3,1,2,-3
1523147490851712,-6,-5,-6,2,6,-2,-4,-2
1523147490872768,13,0,-4,10,-5,-4,-3,-7
1523147490872768,0,-2,1,15,1,-1,2,5
1523147490874274,-1,1,-1,-13,-3,-2,-3,3
1523147490874274,-2,-4,-1,-17,-5,-1,0,0
1523147490886800,-6,-3,-2,-14,-6,1,0,-2
1523147490886800,1,-1,0,-4,2,-1,-2,-3
1523147490893821,1,-1,-7,25,-4,-2,1,-1
1523147490893821,1,0,2,44,5,0,-3,-1
1523147490909861,-5,-1,2,-32,-3,-3,-3,-1
1523147490909861,-2,-2,-3,-6,-3,0,1,-3
1523147490911366,-1,2,5,1,5,1,-1,-1
1523147490911366,0,2,3,8,5,2,1,-3
1523147490932422,-4,-7,-6,2,-5,-2,1,2
1523147490932422,-2,0,4,34,3,-1,-1,1
1523147490933926,-2,-2,-4,-3,-1,-3,-1,-1
1523147490933926,-8,-5,-3,40,3,1,1,2
1523147490946960,39,1,-6,19,-3,-4,-4,-8
1523147490946960,7,8,3,-22,-5,1,0,9
1523147490953485,-2,0,2,15,0,1,-3,0
1523147490953485,-1,-5,-18,-124,-13,-10,-7,-20
1523147490970022,-13,-1,-4,28,4,1,2,9
1523147490970022,-4,-4,-1,43,6,1,-2,-8
1523147490971528,6,0,0,-21,-7,1,2,-2
1523147490971528,-7,3,4,-12,-12,-1,-1,-12
1523147490992593,-5,-2,-2,30,22,0,0,17
1523147490992593,9,-4,-3,-30,-6,-3,-1,-5
1523147490994086,-7,-3,2,17,2,0,-2,1
1523147490994086,10,0,-5,-36,-8,2,1,12
1523147491007123,-12,0,-1,11,-3,-3,0,-5
1523147491007123,4,7,3,13,2,2,2,-6
1523147491013639,-6,-24,-8,-6,-3,-4,-1,-6
1523147491013639,-1,-1,5,20,-2,-2,-3,8
1523147491029681,2,2,-2,-15,-3,0,-1,-2
1523147491029681,-6,-3,-3,12,4,-3,-3,0
1523147491031685,2,4,-2,23,-3,-2,0,-4
1523147491031685,-11,5,19,8,13,4,3,2
1523147491052243,-12,-11,-19,-58,-24,-2,-3,-4
1523147491052243,-19,-1,-5,21,-5,-2,-2,-5
1523147491054245,0,7,4,39,4,-3,-3,-1
1523147491054245,5,3,3,5,1,1,-1,2
1523147491066782,-4,3,7,39,9,2,0,-2
1523147491066782,-3,-3,-3,12,-3,1,7,2
1523147491073798,6,1,-4,-26,-4,-1,3,4
1523147491073798,0,-5,-1,14,2,-5,-5,5
1523147491089840,-11,-1,-1,2,-1,3,-1,-10
1523147491089840,-3,-8,-5,-12,-4,-2,0,3
1523147491091344,8,7,2,1,2,0,2,5
1523147491091344,13,0,-7,11,-1,5,0,3
1523147491112456,-37,2,8,44,6,0,-1,-5
1523147491112456,-6,-1,-6,-55,-8,-6,-4,-4
1523147491113906,-3,-1,-2,12,0,-1,-2,-1
1523147491113906,-2,0,0,1,1,-3,-3,-5
1523147491126939,7,1,-2,-43,-17,-1,-1,0
1523147491126939,2,-3,2,18,16,0,-3,-1
1523147491133531,4,-4,-8,9,-7,-3,-3,-5
1523147491133531,-5,-1,-5,-42,-9,-1,2,1
1523147491150010,3,-2,4,54,9,0,1,1
1523147491150010,-5,4,4,1,-1,0,-2,-2
1523147491151507,2,-5,-2,-10,-3,2,-2,-2
1523147491151507,-8,-9,-8,-2,-7,-1,2,-6
1523147491172560,7,5,-1,2,-2,-1,1,10
1523147491172560,-63,-18,-5,16,-1,-3,-1,-14
1523147491174066,-5,12,6,-14,3,-1,-3,12
1523147491174066,3,4,6,55,7,0,1,6
1523147491187102,-7,-10,-7,-74,-2,-4,-2,-7
1523147491187102,6,4,-6,13,-3,1,2,0
1523147491193626,-6,1,-3,12,3,1,1,-7
1523147491193626,-10,-7,-4,-29,-5,-3,1,-4
1523147491210160,7,1,-7,12,1,-3,0,0
1523147491210160,17,2,15,38,9,2,-3,-4
1523147491211666,1,-6,-14,3,-14,-6,-4,1
1523147491211666,17,3,-1,-18,-3,0,3,10
1523147491232721,-12,-6,0,-1,2,-2,-4,-9
1523147491232721,27,3,-1,-10,-6,0,-4,-11
1523147491233725,-11,-2,-2,-12,6,2,0,-3
1523147491233725,-7,-10,-2,27,2,1,0,0
1523147491246256,0,2,-5,-6,0,1,4,10
1523147491246256,6,-13,-1,9,0,0,2,7
1523147491255281,0,5,8,8,0,-2,-4,-3
1523147491255281,-16,-6,-8,-18,-3,-3,1,-3
1523147491269820,-39,24,-2,-10,4,3,-4,-17
1523147491269820,-14,-1,-15,-14,-6,1,8,-4
1523147491271827,25,22,15,1,3,-3,-4,14
1523147491271827,-25,-38,0,24,7,3,5,-22
1523147491292461,14,-12,12,14,2,4,-1,-26
1523147491292461,-26,55,-1,-13,-2,-6,-9,48
1523147491293885,10,-30,-33,-2,-3,-3,-5,2
1523147491293885,-4,44,10,2,-2,2,-5,-52
1523147491305917,51,35,18,-9,-8,-4,3,36
1523147491305917,-47,-54,-20,-16,-6,-7,-7,-29
1523147491314941,-28,-16,20,-11,-4,-1,-7,-39
1523147491314941,102,49,5,3,5,6,12,78
1523147491329983,-42,-40,-37,-5,-6,-1,-4,-56
1523147491329983,-28,-12,-10,-12,-8,-5,-5,-20
1523147491331486,13,15,5,-1,2,2,23,12
1523147491331486,-26,-30,-11,-9,-7,-8,-31,5
1523147491352548,67,24,20,5,-1,-3,0,24
1523147491352548,36,8,8,-2,1,5,2,25
1523147491354045,-29,2,-5,-1,-1,-1,1,-38
1523147491354045,5,5,3,5,4,1,-1,-6
1523147491366122,-6,-7,-3,6,-2,-3,4,26
1523147491366122,3,-3,-1,18,5,0,-7,-18
1523147491375100,0,-6,2,-63,-2,2,2,7
1523147491375100,-22,2,-8,79,-10,-15,-8,1
1523147491390141,-20,-6,-3,-43,-4,-1,-6,-11
1523147491390141,16,-5,7,24,-7,1,6,-22
1523147491391645,1,4,26,78,27,10,2,20
1523147491391645,-10,-10,-7,22,-6,0,3,1
1523147491412701,-13,-17,-39,42,-21,-11,-8,-9
1523147491412701,40,8,18,57,12,4,-2,-10
1523147491414211,16,8,1,70,26,6,0,43
1523147491414211,-14,-12,-11,-72,-26,-11,-6,-20
1523147491426243,-38,27,14,11,12,1,-1,9
1523147491426243,-5,0,11,6,5,1,5,0
1523147491435262,-13,-5,-22,-51,-22,-9,-11,-14
1523147491435262,37,-4,8,54,10,0,2,-1
1523147491449803,8,3,1,-26,-6,-3,-2,0
1523147491449803,-1,-5,-13,-51,-18,-3,-1,1
1523147491451806,3,-19,5,50,4,-4,-2,-1
1523147491451806,-15,10,-11,12,3,3,2,-13
1523147491472366,21,-14,-10,-52,-1,0,11,51
1523147491472366,6,14,-8,7,8,-1,-7,-5
1523147491473864,3,29,34,20,-1,-3,-7,-7
1523147491473864,-1,2,4,21,-2,-2,0,1
1523147491496424,1,-7,-10,84,-13,-6,-4,-17
1523147491496424,10,-10,0,39,3,1,4,16
1523147491497927,-38,-14,-15,-4,-11,0,0,-5
1523147491497927,24,1,12,64,21,5,4,0
1523147491511463,45,36,7,-53,0,-2,-5,-6
1523147491511463,11,-10,-7,5,-2,-1,6,15
1523147491512969,11,0,-11,-52,-10,-5,-2,-9
1523147491512969,25,-4,9,-22,10,2,-1,-2
1523147491532565,-8,-4,10,-5,2,6,-2,-2
1523147491532565,25,7,-5,-30,-25,-7,1,9
1523147491534031,-9,-7,-1,92,9,0,-4,-2
1523147491534031,-35,-12,-26,-61,-18,-10,-7,2
1523147491546058,-1,-11,7,-12,2,3,3,-15
1523147491546058,0,6,10,26,10,0,0,4
1523147491555082,14,-1,-15,-25,-3,-1,-2,-8
1523147491555082,7,21,16,-14,-8,0,6,8
1523147491570118,-1,-28,15,91,14,1,-7,-43
1523147491570118,-4,-7,-8,-71,-5,-1,-5,19
1523147491571623,3,11,-33,-49,-10,-7,-6,-10
1523147491571623,0,4,3,-14,0,6,5,6
1523147491592679,-33,0,4,29,11,4,3,-5
1523147491592679,-10,-8,6,8,0,-2,-8,-11
1523147491594184,10,-10,-22,27,-18,-4,1,4
1523147491594184,-17,-7,-5,61,12,-4,-2,-2
1523147491606215,-17,-5,6,-45,-4,0,5,17
1523147491606215,0,17,9,36,7,4,0,-24
1523147491615239,-12,-41,-10,-18,-2,-1,0,9
1523147491615239,-10,-9,-2,12,-5,-3,-5,-4
1523147491629784,12,18,-12,-22,-8,-3,-1,1
1523147491629784,-53,-14,22,16,10,4,2,1
1523147491631283,23,3,-2,-7,-11,-1,0,-4
1523147491631283,32,3,-3,17,4,-4,-5,-2
1523147491652342,13,-12,-1,12,0,-4,-1,-11
1523147491652342,4,6,-3,-3,-3,-5,-8,14
1523147491653844,-4,4,14,20,7,5,4,0
1523147491653844,-19,-8,-3,-42,-14,-3,-3,-21
1523147491674906,8,15,0,24,6,1,7,20
1523147491674906,15,-14,7,57,3,-4,-9,9
1523147491676403,-8,3,9,-13,-4,-4,-3,9
1523147491676403,-5,0,-10,16,4,1,-2,-3
1523147491689944,-35,-10,8,23,0,2,2,-6
1523147491689944,27,8,-13,-15,-9,-2,1,-8
1523147491691444,-11,2,-2,31,11,-1,0,4
1523147491691444,-12,-1,3,-81,-18,-1,-1,5
1523147491712501,-9,-10,4,52,11,-1,-4,5
1523147491712501,6,-3,-13,-23,-4,0,3,3
1523147491714009,22,5,1,7,-3,-2,-3,-9
1523147491714009,63,10,8,-2,2,4,4,15
1523147491735057,-11,-33,-7,-27,-12,-3,-7,-12
1523147491735057,7,31,-3,-6,11,1,4,6
1523147491736562,-18,-27,10,-17,-5,-1,0,11
1523147491736562,-48,-1,-1,15,7,4,0,-18
1523147491757616,17,-8,-2,-24,-8,0,-1,3
1523147491757616,-12,-9,-4,35,4,2,2,5
1523147491759122,18,16,-7,8,0,2,6,24
1523147491759122,-86,-43,2,1,4,3,4,-3
1523147491772155,49,11,-9,9,0,-5,-3,8
1523147491772155,-25,32,0,-30,-3,-1,4,-16
1523147491774161,38,25,9,-4,-4,4,18,-10
1523147491774161,-30,-23,-3,-11,2,-5,-19,20
1523147491793713,14,44,-6,-15,-9,-6,-3,-16
1523147491793713,31,-1,10,-11,-3,-1,5,-12
1523147491802738,1,-22,-15,-7,0,-2,-8,29
1523147491802738,-30,2,-27,-9,-12,-8,-2,-53
1523147491809254,-51,16,6,12,3,-3,-17,11
1523147491809254,24,14,-29,-18,-6,-6,-9,1
1523147491816273,44,-3,37,5,-6,-6,-4,-24
1523147491816273,31,-21,19,34,13,9,4,7
1523147491832314,-31,16,1,-1,0,-1,5,-6
1523147491832314,23,11,10,-4,-5,2,-8,46
1523147491833821,26,12,-2,-8,2,1,4,33
1523147491833821,11,8,-14,-7,-5,-3,-7,1
1523147491854876,20,-17,-1,6,3,0,2,-28
1523147491854876,-23,3,1,2,3,1,-3,-20
1523147491856380,-27,-15,-3,1,-3,-2,-3,-19
1523147491856380,42,7,-6,-23,-5,-4,0,44
1523147491869413,-32,-10,5,23,5,2,8,14
1523147491869413,-8,-22,-4,-15,-6,-2,-5,-17
1523147491875931,-25,1,-1,35,0,1,-4,-13
1523147491875931,-5,6,12,33,5,-1,6,-14
1523147491892475,17,-25,-8,30,3,1,-1,7
1523147491892475,7,-8,6,-7,6,-2,3,-7
1523147491893980,-30,2,-14,-75,-13,-5,-4,-19
1523147491893980,5,10,0,-4,-4,4,1,2
1523147491915092,10,4,8,4,1,0,0,-1
1523147491915092,10,-15,-1,7,1,-1,3,-7
1523147491916594,-27,17,2,48,-13,1,-4,-16
1523147491916594,32,6,1,40,-7,-6,-2,44
1523147491929577,4,-4,9,56,13,3,-5,12
1523147491929577,-13,-4,-8,64,11,5,5,-21
1523147491936140,-6,-12,-11,-17,-14,-8,0,-4
1523147491936140,4,10,2,35,5,1,0,-23
1523147491952295,-3,27,-23,-14,-15,-3,-1,2
1523147491952295,48,-24,34,54,18,1,-4,21
1523147491954268,-11,14,-12,32,15,1,1,-5
1523147491954268,-6,15,1,-50,-6,2,3,3
1523147491974825,-5,-67,-34,-27,-19,-10,-4,13
1523147491974825,13,1,0,42,-4,3,4,-27
1523147491976327,-5,-9,-5,10,4,-2,-5,2
1523147491976327,-18,-11,11,14,11,1,1,-9
1523147491989360,19,18,14,-23,2,1,-1,0
1523147491989360,6,-18,-17,-7,-6,-6,-2,3
1523147491996379,-20,-10,-8,-91,-20,-2,-3,-16
1523147491996379,-58,0,7,66,12,0,-1,10
1523147492012467,-6,-1,11,-70,-6,-2,-2,-5
1523147492012467,-41,-10,-20,-48,-13,-3,-1,-2
1523147492013926,20,20,19,89,29,10,5,5
1523147492013926,-1,-2,-4,18,-16,-5,-2,-10
1523147492035528,-5,-5,-7,10,3,-5,-1,-3
1523147492035528,3,2,0,28,-10,-5,-3,-1
1523147492036986,-3,-8,19,50,12,3,4,18
1523147492036986,14,-2,-31,-22,-8,-2,-8,-9
1523147492049525,-5,-4,20,119,20,7,3,-19
1523147492049525,-34,6,4,35,-7,-8,-3,14
1523147492056043,32,8,0,23,4,2,-5,31
1523147492056043,20,-30,0,-6,-2,-1,0,-6
1523147492072587,-4,-18,-2,-36,-2,1,0,-4
1523147492072587,-29,-7,-2,19,6,2,-1,-6
1523147492074086,-30,-2,-17,-90,-24,-8,-4,-12
1523147492074086,5,8,-1,-26,3,0,4,2
1523147492095149,17,4,-3,34,2,-2,-7,-12
1523147492095149,-7,-1,-3,-54,-17,-2,0,7
1523147492096645,-7,-14,-4,1,3,-1,-2,-10
1523147492096645,33,26,23,0,-2,4,5,0
1523147492109185,-15,-25,-52,11,-7,-2,-2,-2
1523147492109185,-7,1,-8,-46,-8,-5,-4,-22
1523147492116205,-25,-4,5,71,22,3,-5,8
1523147492116205,-28,1,-4,-70,-7,-4,-1,-9
1523147492132290,3,12,8,-16,-11,2,-2,12
1523147492132290,-4,-13,18,40,6,2,0,-2
1523147492134245,-10,-12,-35,34,-2,-5,-2,-30
1523147492134245,60,-9,-3,17,1,-2,-2,17
1523147492155301,-26,1,11,-14,-7,-5,-4,-6
1523147492155301,-31,-25,-3,-28,2,3,1,7
1523147492156304,-13,3,11,0,-4,1,3,-10
1523147492156304,-39,-31,-22,12,-8,-9,-7,-11
1523147492168836,8,10,6,17,5,3,2,0
1523147492168836,22,9,-9,2,-2,0,-2,1
1523147492177359,4,3,12,22,3,-1,-2,-2
1523147492177359,-2,7,-5,-42,-12,-1,1,-7
1523147492192401,22,8,1,2,1,-4,-1,13
1523147492192401,-37,-2,-1,-3,3,0,0,-18
1523147492193905,-41,1,4,-7,-3,-3,-1,24
1523147492193905,-1,2,-1,-43,-4,2,-3,5
1523147492215101,13,-28,-2,46,14,2,2,-9
1523147492215101,11,17,4,21,-3,0,-1,9
1523147492216463,18,14,16,6,4,1,0,-4
1523147492216463,-8,-12,-9,-18,-13,-4,-1,-1
1523147492228635,34,29,8,8,-5,-3,-4,-16
1523147492228635,12,8,-2,-5,0,1,2,3
1523147492237519,34,-4,-3,-8,-5,-4,2,5
1523147492237519,3,-8,7,25,8,4,1,4
1523147492252557,-30,-3,-11,-59,-11,5,2,-14
1523147492252557,1,42,5,3,1,-11,-8,20
1523147492254062,-17,-46,4,-14,3,-1,-5,-11
1523147492254062,21,5,28,37,9,6,12,20
1523147492274812,-21,30,27,-19,-7,-4,0,-18
1523147492274812,14,6,-9,-30,-19,-1,1,-8
1523147492281283,-31,-50,-5,-6,-2,-4,-13,-32
1523147492281283,53,4,0,39,19,5,12,42
1523147492288804,-6,-25,-1,-7,-3,-4,4,73
1523147492288804,58,0,-7,-7,9,1,-7,-34
1523147492297829,21,51,27,-7,4,5,11,-24
1523147492297829,-69,10,-6,17,1,-3,-7,-2
1523147492312367,-10,-12,-10,-1,-6,0,2,-30
1523147492312367,19,-11,-6,12,4,2,5,17
1523147492313872,41,60,3,-16,-9,-5,-6,17
1523147492313872,-39,-10,15,10,-3,-2,-1,-35
1523147492334927,-23,29,-8,-1,8,1,5,4
1523147492334927,14,4,17,4,0,1,7,13
1523147492336431,37,14,-28,3,2,0,-13,1
1523147492336431,-17,-39,-22,-3,0,-5,-4,-52
1523147492348465,-60,27,-4,7,-3,4,-10,-11
1523147492348465,-5,11,-4,-17,-2,-1,2,-10
1523147492357487,11,26,12,8,-1,-3,1,18
1523147492357487,26,44,10,-6,1,4,8,1
1523147492372767,3,-41,-13,-43,-5,-1,-9,-16
1523147492372767,-1,-7,1,95,12,1,-1,-6
1523147492374032,-3,8,-6,-47,-14,-1,4,5
1523147492374032,-69,-13,-8,14,6,-6,-9,-2
1523147492395292,36,5,-2,-16,-6,-2,5,7
1523147492395292,-20,-20,-1,1,-2,0,-4,19
1523147492396830,-18,-43,-16,-53,-15,-5,-5,-5
1523147492396830,9,-1,-6,-26,-5,-5,-6,0
1523147492408848,37,-7,6,85,14,4,4,11
1523147492408848,-15,11,6,-19,-8,1,-3,-21
1523147492417647,-41,-27,-15,44,9,-2,-1,12
1523147492417647,25,14,11,59,5,4,-2,-20
1523147492432813,-3,-4,-1,68,-3,-6,-3,1
1523147492432813,-13,-24,2,2,-8,-6,-1,39
1523147492434363,1,-1,1,23,0,2,3,-7
1523147492434363,30,4,-1,43,10,3,0,4
1523147492454870,6,-2,5,-57,0,-2,-3,5
1523147492454870,6,-8,16,37,0,0,-2,-19
1523147492456751,11,-7,-31,-31,-11,-2,4,0
1523147492456751,-10,25,-7,-7,-2,1,1,9
1523147492468782,63,-31,-9,20,-10,-8,-9,-8
1523147492468782,-21,-16,-5,-3,0,-3,-5,-9
1523147492477808,6,-45,14,19,8,4,-8,5
1523147492477808,26,16,-8,-3,-9,-3,-2,-6
1523147492492392,-11,4,-2,-16,-19,-5,2,4
1523147492492392,-29,1,-36,50,11,-3,-2,-2
1523147492494352,36,18,1,19,0,1,0,3
1523147492494352,-17,-12,-7,-30,-4,-2,-2,4
1523147492514953,3,5,15,20,5,-2,-2,-3
1523147492514953,-9,-16,-7,-66,-19,-2,-2,4
1523147492516412,-20,3,2,70,14,-1,4,-6
1523147492516412,3,-6,-2,-10,-7,-1,-3,-5
1523147492528488,-37,11,-4,-40,-3,1,0,10
1523147492528488,13,5,8,48,5,3,-1,-8
1523147492537467,4,3,-5,-45,3,-1,3,-1
1523147492537467,6,-3,-7,1,-14,-4,-3,1
1523147492560031,-1,-28,9,-10,-6,-2,-4,5
1523147492560031,-7,1,-6,49,23,1,1,2
1523147492561532,-19,-12,7,-1,10,1,2,-1
1523147492561532,-3,-7,-3,-88,-27,-10,-8,-2
1523147492575072,2,8,2,-14,9,3,2,-7
1523147492575072,-4,18,10,-38,-14,-2,0,1
1523147492576571,14,9,7,-23,-10,-1,2,19
1523147492576571,-9,-19,-42,28,8,-4,-2,1
1523147492589108,-1,-6,5,45,3,5,1,-6
1523147492589108,-12,2,-8,-51,-2,-1,0,15
1523147492597633,-18,38,0,-17,-6,0,-2,-1
1523147492597633,34,-26,22,80,6,-2,0,4
1523147492612668,-36,49,-16,-20,3,-3,-5,-7
1523147492612668,-10,-10,5,65,4,5,6,-4
1523147492614170,-11,10,-6,-41,-6,-4,-4,-27
1523147492614170,-8,20,5,18,3,-1,-9,22
1523147492635227,-1,-36,-3,9,2,2,4,1
1523147492635227,6,7,11,-26,-20,-1,-6,-17
1523147492636731,-7,-10,-18,24,-16,-5,-1,-10
1523147492636731,-3,-3,-14,-35,26,-3,1,-7
1523147492657290,7,1,-3,-3,-8,-3,-3,3
1523147492657290,1,-4,0,-24,0,-2,-3,1
1523147492658791,10,-15,5,13,-8,-3,1,6
1523147492658791,-9,8,22,-37,-15,-1,-1,-5
1523147492672327,19,-6,-33,78,19,2,2,1
1523147492672327,-4,-5,-7,-76,-15,-4,-2,-8
1523147492673831,-3,-71,-8,10,-1,-3,-2,26
1523147492673831,-48,4,4,7,-2,-2,-5,-19
1523147492694932,26,39,11,-4,-3,-2,-1,-4
1523147492694932,5,-1,1,9,2,3,2,-2
1523147492696390,7,-10,-5,34,10,3,4,-28
1523147492696390,-13,38,3,17,0,2,-3,-2
1523147492717493,1,-12,9,5,-4,-2,-5,4
1523147492717493,-12,-13,2,-4,-1,0,-2,1
1523147492718950,-9,18,2,-12,3,-5,-1,-13
1523147492718950,19,-7,0,4,-3,1,4,5
1523147492732536,-10,6,-1,-21,3,1,1,-2
1523147492732536,21,5,-19,12,4,-1,1,2
1523147492733990,-45,7,6,-5,-5,0,-1,7
1523147492733990,15,-1,7,16,-1,3,1,1
1523147492755051,-1,0,1,-22,-6,-7,-6,2
1523147492755051,-3,13,1,-11,0,-1,-1,-1
1523147492756551,-7,43,0,-3,0,0,-2,38
1523147492756551,9,-18,-2,-5,-4,-2,4,3
1523147492777612,-7,12,7,-8,-2,-4,-9,2
1523147492777612,11,17,12,1,2,-3,3,19
1523147492779112,-8,70,10,7,-5,-4,4,-19
1523147492779112,-10,-33,-9,5,4,-1,-15,-12
1523147492791147,25,-19,-17,-2,-5,-2,-4,0
1523147492791147,-24,-41,1,7,-1,-3,0,17
1523147492800169,96,9,8,-7,2,2,-1,-1
1523147492800169,-40,51,-1,-8,-5,-1,4,21
1523147492815208,-50,-29,8,-9,-5,-3,20,-28
1523147492815208,-36,-5,-12,-17,2,0,-17,-50
1523147492816717,59,-8,-15,0,0,-4,-13,-22
1523147492816717,-42,-20,10,-8,-7,-2,6,-49
1523147492837264,19,13,0,-1,3,2,-4,17
1523147492837264,4,3,7,1,4,5,-2,0
1523147492838770,-10,-19,13,9,1,0,-3,-33
1523147492838770,12,6,-2,13,5,4,4,-23
1523147492851807,27,-19,-18,-4,2,1,2,22
1523147492851807,14,-19,-6,-9,-6,-4,1,-11
1523147492866344,-9,-34,11,11,3,1,-6,49
1523147492866344,30,2,9,8,-1,-1,0,2
1523147492874864,8,-11,12,-8,0,1,10,7
1523147492874864,5,35,-20,-11,-3,-6,-17,14
1523147492876369,-35,-26,-6,1,-6,-3,4,-23
1523147492876369,15,6,-1,-7,-3,-3,2,3
1523147492897470,-2,-1,14,-6,1,-1,-11,18
1523147492897470,-23,-3,-1,11,-2,-2,11,-17
1523147492898936,-41,-1,-9,-27,-5,-2,-3,-5
1523147492898936,14,-14,7,27,5,-1,-1,11
1523147492911963,-16,18,-12,-22,-2,0,-7,-20
1523147492911963,24,-1,15,27,5,2,1,9
1523147492918627,-13,-11,-44,-52,-22,-6,2,-2
1523147492918627,-3,1,2,-25,-2,4,0,20
1523147492935172,-10,-7,-1,89,13,3,4,-14
1523147492935172,-29,-3,-15,-88,-24,-8,-6,27
1523147492936675,-6,-14,-3,-32,-2,-4,-2,-1
1523147492936675,-5,-11,2,46,10,2,3,16
1523147492957730,-19,24,9,67,7,3,-4,-6
1523147492957730,22,3,14,-41,18,2,2,-3
1523147492959234,-3,5,-4,52,-4,-1,-2,2
1523147492959234,10,-5,-15,-50,-10,-2,-4,2
1523147492971767,-2,-4,14,-44,1,5,5,0
1523147492971767,9,6,10,96,9,-1,3,4
1523147492978786,22,-11,0,4,3,-1,-2,14
1523147492978786,23,7,-8,-7,5,-1,1,-11
1523147492994832,6,-10,1,1,-2,1,-1,3
1523147492994832,-1,-1,4,64,-2,1,3,-33
1523147492996335,5,-4,-6,40,19,-1,-7,46
1523147492996335,38,19,-13,-53,-38,-9,-6,3
1523147493017439,-3,-18,-9,4,5,-3,-1,-11
1523147493017439,13,-1,14,-11,-31,-1,1,6
1523147493018893,-13,1,1,59,25,-5,-2,-20
1523147493018893,-3,16,-9,45,14,2,-2,4
1523147493031926,1,12,9,-56,-10,-1,-2,0
1523147493031926,-3,10,-8,-30,1,-1,-1,-1
1523147493038445,-1,-5,18,-10,0,5,5,-3
1523147493038445,-20,-9,3,-17,-5,0,-2,-3
1523147493054996,7,-8,-2,-14,-7,-4,-1,-8
1523147493054996,-3,-7,-2,42,16,5,3,6
1523147493056493,-13,6,0,42,3,4,3,-14
1523147493056493,-29,-8,-2,-83,-17,-2,0,-18
1523147493077553,-5,0,-14,58,6,0,-3,21
1523147493077553,53,-5,-25,8,2,-3,-5,4
1523147493079053,-62,19,22,-6,5,3,2,-13
1523147493079053,-20,-17,1,26,9,-3,0,-2
1523147493092088,-56,-16,-5,-43,-12,-4,1,-25
1523147493092088,-10,-2,-2,-22,3,0,-3,-4
1523147493098652,28,23,15,-15,1,5,4,2
1523147493098652,-32,-17,-19,-12,-30,-8,-2,0
1523147493115156,4,8,-3,87,-5,-4,-6,5
1523147493115156,1,-13,-36,-63,-17,-6,-2,0
1523147493116654,4,-5,10,52,5,2,1,-6
1523147493116654,16,4,18,-58,-14,-2,-3,-3
1523147493136708,13,6,-19,6,4,0,-1,-12
1523147493136708,-5,-7,6,17,-1,-1,-1,8
1523147493145229,1,-15,-14,-7,-5,-1,-3,2
1523147493145229,20,2,-1,-2,7,3,0,7
1523147493151246,-12,5,11,-1,13,-1,-1,7
1523147493151246,-15,-18,-3,-18,3,2,0,-8
1523147493160269,-13,2,-4,-1,-2,-1,-4,-2
1523147493160269,8,-8,17,39,18,3,0,-9
1523147493174865,10,-6,-8,-85,-24,-5,-3,-11
1523147493174865,-5,27,-3,-1,-3,-3,1,-4
1523147493176312,25,-25,5,-14,-4,-1,-1,5
1523147493176312,4,11,8,-4,6,3,-1,8
1523147493197426,-7,-28,-23,59,3,3,1,-4
1523147493197426,0,10,11,81,25,6,8,0
1523147493198874,40,27,-31,-29,-16,-7,-3,1
1523147493198874,0,-5,11,84,14,2,-1,-1
1523147493210966,13,9,-7,-49,1,-3,-2,4
1523147493210966,-26,-13,18,30,-7,-2,-3,-2
1523147493219927,5,-18,-11,-10,-2,1,3,-5
1523147493219927,-22,0,-7,61,11,0,-3,23
1523147493234967,-45,5,13,16,3,1,-1,-4
1523147493234967,-9,-12,-25,-110,-20,-4,-5,-7
1523147493236471,16,-10,4,70,8,-1,-2,-7
1523147493236471,-8,16,1,1,-4,-1,1,-2
1523147493257587,-11,-10,14,-5,-3,0,-3,-3
1523147493257587,-28,-17,-9,-21,-6,-3,-3,7
1523147493259032,-2,34,17,-25,-4,0,1,-6
1523147493259032,4,-32,18,52,12,2,2,2
1523147493271074,24,35,-16,-16,-2,-2,7,-21
1523147493271074,13,-4,-1,58,8,-2,-1,32
1523147493280088,-9,-6,-6,-33,-9,-1,-1,-38
1523147493280088,64,15,-19,12,0,-3,-7,86
1523147493295128,13,-3,14,-20,-6,-4,-7,-18
1523147493295128,12,-7,11,3,-1,1,5,-2
1523147493296634,-11,-16,14,5,-8,-8,-6,-10
1523147493296634,-11,-10,-8,-27,-4,-3,8,-32
1523147493317250,29,24,9,6,-3,1,-3,35
1523147493317250,-29,-29,0,3,-1,-7,-7,-52
1523147493319193,-23,36,35,-7,2,2,1,17
1523147493319193,-12,-6,3,10,3,4,-1,-11
1523147493331297,7,-48,-49,-9,-9,-3,5,-20
1523147493331297,1,17,-14,3,-8,-10,-32,35
1523147493340321,-11,11,-3,-4,5,4,8,-24
1523147493340321,-5,-13,11,-1,5,3,6,29
1523147493354908,4,21,17,9,1,-2,-8,41
1523147493354908,11,16,-2,-4,-1,1,8,12
1523147493356363,-10,-29,-11,-4,-4,2,-2,-16
1523147493356363,19,-32,-15,-12,-7,-7,-8,-23
1523147493377557,10,-20,-11,0,0,0,5,-13
1523147493377557,-40,19,26,12,3,1,6,2
1523147493379059,-73,-28,2,-6,-3,-5,-10,15
1523147493379059,-8,7,-7,4,0,1,4,-29
1523147493391153,-15,30,19,-9,-3,0,7,-38
1523147493391153,65,-20,-8,-2,-2,-2,-15,1
1523147493400117,34,-7,-2,19,2,-2,5,5
1523147493400117,-37,19,-42,-42,-12,-7,-12,-5
1523147493414712,-3,-25,21,19,22,4,-3,-1
1523147493414712,7,24,-26,-37,-33,-3,9,-9
1523147493421174,3,-6,-29,30,-6,-4,-4,14
1523147493421174,24,4,16,59,5,1,-3,-3
1523147493437214,0,11,0,-35,4,1,0,13
1523147493437214,-7,-5,-3,33,-11,3,7,-6
1523147493439220,10,-14,-14,85,-1,-12,-12,3
1523147493439220,-20,17,11,74,6,-1,0,-13
1523147493451254,-4,-4,2,-10,-2,3,-1,-1
1523147493451254,-11,-5,32,108,42,10,9,-17
1523147493460275,50,8,-28,-110,-57,-12,-12,4
1523147493460275,-8,2,20,82,5,0,-1,-10
1523147493474872,-18,9,-14,68,1,-1,-3,-9
1523147493474872,16,-3,-3,-63,3,-6,-9,-7
1523147493476818,-3,17,7,-31,-4,8,1,-2
1523147493476818,-2,-22,-7,79,20,-3,-1,11
1523147493497437,4,-3,20,-67,-13,2,5,-2
1523147493497437,-21,-18,-5,42,-8,-3,-8,6
1523147493498878,49,26,-3,-1,6,-1,0,16
1523147493498878,-53,-21,2,-39,-3,-1,-3,-9
1523147493510909,-4,18,5,-46,-23,-6,-5,6
1523147493510909,7,3,15,95,36,7,6,11
1523147493519934,-33,-13,-24,-56,-24,-7,-1,0
1523147493519934,24,1,2,-16,0,-2,-2,-9
1523147493534975,38,11,-9,88,16,4,4,10
1523147493534975,6,1,-18,-58,-13,-8,-3,-6
1523147493536478,-3,-1,15,2,-1,0,1,-1
1523147493536478,4,5,-12,-18,-4,0,0,-9
1523147493557595,7,-5,3,64,8,1,-1,2
1523147493557595,-14,-2,2,-50,-17,-4,3,3
1523147493559039,-13,-22,-13,15,15,-1,-4,34
1523147493559039,21,-10,11,-36,-2,3,-2,-14
1523147493580092,-19,-18,-26,56,-6,-10,-8,-1
1523147493580092,4,0,3,39,6,6,5,-4
1523147493581598,-5,29,6,21,8,-1,1,-7
1523147493581598,-18,10,-14,-69,-20,-2,0,12
1523147493595266,-7,-8,10,23,7,2,-1,-1
1523147493595266,-8,-11,-16,68,-2,-3,-4,-10
1523147493596637,-16,-8,-4,7,6,1,6,8
1523147493596637,1,24,4,-53,-5,-1,-2,1
1523147493617350,-10,-12,2,-13,-2,-1,-3,-5
1523147493617350,-3,7,-4,-50,-3,0,3,16
1523147493618854,27,-15,13,-25,2,4,8,-2
1523147493618854,0,3,-9,74,-4,-3,-6,-12
1523147493640073,-3,5,-5,32,6,-4,3,11
1523147493640073,-7,13,11,-6,6,-1,-4,-17
1523147493641415,21,-10,-3,-14,-20,-3,-5,-10
1523147493641415,-22,-3,-9,18,5,1,5,8
1523147493655080,-3,1,-1,-1,-6,-3,-2,-9
1523147493655080,5,0,5,38,2,0,-1,-15
1523147493656454,-8,-2,19,27,14,3,5,-4
1523147493656454,6,28,-2,28,-7,-2,-1,-15
1523147493677596,26,11,13,-16,2,2,-1,20
1523147493677596,1,-7,-2,4,6,-1,-1,-8
1523147493679014,-22,-4,2,80,8,3,3,-3
1523147493679014,11,-6,-22,36,-2,0,0,-4
1523147493700572,-2,2,4,7,-7,-3,1,-1
1523147493700572,36,-5,-4,-17,-7,-4,-5,20
1523147493702078,54,14,-3,-7,12,0,-3,-5
1523147493702078,12,-5,6,-77,-14,-5,-3,5
1523147493714117,17,6,-14,-12,-3,0,1,19
1523147493714117,3,-23,2,8,0,1,2,-6
1523147493721128,-32,-4,8,-51,0,-1,-3,-6
1523147493721128,-16,-7,12,26,8,0,-1,4
1523147493737672,7,30,-5,-13,-6,-2,8,-5
1523147493737672,-23,-42,5,-46,-14,-4,-8,9
1523147493739178,1,25,2,60,11,2,-3,-31
1523147493739178,19,-7,-3,12,0,1,0,0
1523147493760233,-43,-5,-3,8,0,-4,-2,2
1523147493760233,-1,28,-1,-12,2,2,5,4
1523147493761735,-43,-32,4,59,5,2,3,3
1523147493761735,25,-12,-2,22,-2,-2,3,-15
1523147493774270,-17,-38,0,8,7,-2,-13,31
1523147493774270,-27,32,-7,-2,-3,0,-2,-4
1523147493781287,4,4,14,2,-6,-6,2,9
1523147493781287,-14,0,-3,-35,-6,-6,-12,-21
1523147493797389,-21,-10,-4,-14,-5,-1,6,0
1523147493797389,14,29,5,9,-2,-5,-3,-6
1523147493798838,-23,-31,-21,-20,-2,0,-4,-35
1523147493798838,-100,-18,10,1,8,7,17,2
1523147493819892,86,98,26,-1,-2,1,-5,6
1523147493819892,12,22,2,16,7,-6,-19,-11
1523147493821397,11,5,-29,-9,1,3,18,12
1523147493821397,51,-20,-16,-15,1,3,5,-22
1523147493834429,-67,5,10,3,-2,-3,-20,5
1523147493834429,85,80,27,6,12,14,26,52
1523147493840949,-25,6,-3,-2,1,2,1,-7
1523147493840949,12,8,-21,-9,-4,-7,-19,8
1523147493857549,-15,-18,-5,2,0,-3,6,-6
1523147493857549,-15,-30,-13,-14,-9,-7,-1,-6
1523147493858995,7,21,10,2,3,1,-5,6
1523147493858995,26,7,9,-5,3,4,16,23
1523147493879550,1,-29,2,57,13,6,2,-18
1523147493879550,-27,-20,-19,-89,-39,-7,-3,-15
1523147493886070,13,-7,4,14,3,-3,-4,5
1523147493886070,-51,-17,1,13,-1,-3,-7,15
1523147493894123,21,2,19,88,27,13,1,-17
1523147493894123,-38,-38,-48,-52,-49,-22,-12,-33
1523147493901107,19,26,-2,43,8,1,13,44
1523147493901107,7,9,12,16,-3,9,-24,-32
1523147493917150,1,-40,-19,-25,-5,-17,-3,-8
1523147493917150,7,2,9,54,32,26,15,-1
1523147493919154,5,-13,-15,-81,-32,-11,-10,1
1523147493919154,6,24,19,-8,0,-7,2,11
1523147493940213,14,-2,-2,-8,-7,-1,0,-4
1523147493940213,-14,-20,-14,-31,1,-10,-5,-3
1523147493941713,19,-4,9,33,10,6,4,-26
1523147493941713,22,4,2,64,10,2,2,13
1523147493954295,-20,-4,3,24,4,2,-1,-13
1523147493954295,4,-44,-16,-45,-30,-8,-6,-12
1523147493961266,-4,-8,-1,-52,-9,0,-8,7
1523147493961266,-5,15,1,30,0,-1,5,7
1523147493977857,-5,-48,7,37,4,2,0,14
1523147493977857,16,2,2,59,16,2,0,-14
1523147493979314,1,-3,-1,-69,-18,-4,0,-20
1523147493979314,-2,-7,9,51,9,-6,-6,6
1523147493999870,17,14,-12,49,-17,1,3,-5
1523147493999870,-3,-1,5,19,32,6,3,11
1523147494001374,-60,11,5,32,8,-1,-6,-14
1523147494001374,-14,-7,-5,-28,-9,-4,-4,7
1523147494014466,16,27,-13,-1,-10,-6,-8,-16
1523147494014466,-4,-3,9,3,-2,-3,1,10
1523147494020928,2,7,14,99,32,8,11,14
1523147494020928,-13,-17,-41,-128,-51,-9,-7,-20
1523147494037472,-21,-7,-20,40,-17,-9,-3,-6
1523147494037472,-10,-2,13,84,15,2,-2,4
1523147494038974,-9,-10,6,-17,0,-2,-3,1
1523147494038974,5,-6,-3,4,6,-4,1,0
1523147494060062,-2,-10,9,-55,-5,-2,2,-1
1523147494060062,1,10,-5,-9,-7,0,1,-3
1523147494061533,49,6,14,53,15,1,-2,15
1523147494061533,16,14,3,-44,-11,1,-1,2
1523147494073623,-1,-34,-21,-73,-15,-6,0,-4
1523147494073623,16,9,17,65,12,3,-4,17
1523147494082589,23,-18,-10,30,-14,-4,-6,7
1523147494082589,3,-12,-4,22,2,-1,-3,-23
1523147494097630,26,15,-9,-37,-2,-1,1,30
1523147494097630,36,19,5,9,3,0,3,-2
1523147494099134,4,-2,7,58,-8,-3,-4,-1
1523147494099134,8,9,-4,65,7,0,1,-4
1523147494120188,-6,-7,-8,-26,-9,-2,-1,-8
1523147494120188,20,-12,-2,-2,0,2,2,6
1523147494121693,-6,17,-16,-15,1,-3,-4,1
1523147494121693,0,-8,15,37,16,3,5,2
1523147494133787,-26,25,23,-25,-5,-1,-4,-4
1523147494133787,-25,-17,-1,10,-2,-4,-6,-3
1523147494142311,-14,-9,-15,19,-6,-1,-1,-12
1523147494142311,9,2,15,-90,0,1,4,4
1523147494157352,-6,-3,-42,-25,-12,-1,-1,-4
1523147494157352,-23,-5,-2,57,8,-3,-2,-10
1523147494158853,0,-1,-5,-30,-4,-2,-1,-7
1523147494158853,19,12,14,35,4,1,4,13
1523147494180154,-14,22,10,46,10,-1,-3,8
1523147494180154,-12,3,-2,-52,-15,-4,-1,-8
1523147494181922,-26,-12,-10,-15,1,-7,-6,-30
1523147494181922,4,18,-2,13,5,1,-1,25
1523147494193686,22,-35,6,-5,6,2,4,-11
1523147494193686,-20,2,6,-7,-10,0,-1,6
1523147494202470,-9,0,5,20,0,1,-4,-5
1523147494202470,11,-5,-9,-23,-1,-2,0,-12
1523147494217509,-22,-18,26,34,10,8,5,1
1523147494217509,-11,1,-1,-10,0,-1,-4,-6
1523147494219014,14,-14,-8,-1,-5,-2,0,-2
1523147494219014,-10,-5,0,10,-2,-2,-2,14
1523147494240070,18,0,1,-17,-2,0,1,5
1523147494240070,-20,-18,-28,8,12,1,0,-4
1523147494241575,-4,8,12,-42,-15,-7,-3,5
1523147494241575,23,2,-13,-28,-7,0,2,-6
1523147494253768,-5,6,-3,-21,2,0,-4,-19
1523147494253768,-14,-21,4,4,-5,-1,1,7
1523147494262629,-34,1,-8,-9,3,3,-2,-6
1523147494262629,-17,49,15,19,4,-2,0,-7
1523147494277684,-28,-12,-5,4,-1,1,-5,-45
1523147494277684,31,-4,20,1,-3,2,13,60
1523147494279174,35,-11,-9,9,3,-2,-2,24
1523147494279174,-34,-38,-20,18,-2,-1,-1,-19
1523147494299729,52,54,13,9,9,5,0,0
1523147494299729,27,5,30,0,-1,1,2,-3
1523147494301735,-46,9,-2,-13,0,-1,14,27
1523147494301735,54,2,13,22,15,2,-16,-27
1523147494313806,-24,-8,-18,-9,-12,-2,9,72
1523147494313806,-13,-41,-19,-11,-2,-3,2,-33
1523147494322288,21,-24,-1,1,-2,-3,-8,-31
1523147494322288,-30,14,2,11,12,5,10,46
1523147494337456,-25,-16,-4,-9,-9,-1,3,-7
1523147494337456,100,77,3,2,-1,-6,-18,15
1523147494338833,-53,-1,1,-8,-14,-5,-4,-30
1523147494338833,-29,-47,-18,11,5,-2,21,27
1523147494360046,-1,-19,-3,-11,-3,-1,-25,-5
1523147494360046,5,35,3,1,-2,0,9,0
1523147494361424,92,40,5,-1,3,4,-10,26
1523147494361424,-55,-69,-5,7,-11,-8,-9,-67
1523147494373583,-30,10,-23,-7,-3,-12,5,-17
1523147494373583,-16,-36,2,2,1,1,-12,-5
1523147494382480,-2,24,7,9,9,13,11,10
1523147494382480,9,13,18,73,6,4,-2,6
1523147494397653,25,-14,-9,-84,-17,-6,-4,-7
1523147494397653,26,8,20,-7,-4,-14,-2,-9
1523147494399024,-34,-18,-21,1,0,-1,-5,-20
1523147494399024,-44,-14,-1,66,0,-2,-6,0
1523147494420154,5,-2,20,8,18,2,6,13
1523147494420154,22,5,-25,-63,-38,-15,-9,-10
1523147494421585,-22,-21,-9,26,4,-2,4,6
1523147494421585,59,37,15,32,0,16,-1,-3
1523147494433743,8,0,23,127,21,-6,-4,3
1523147494433743,-45,-8,-22,2,-4,-2,-5,-16
1523147494442640,-1,-8,0,50,-1,-3,-3,-5
1523147494442640,40,25,6,26,10,0,1,23
1523147494457179,26,25,-22,4,-5,0,-4,-14
1523147494457179,-42,-24,-11,63,0,-5,-5,10
1523147494459186,21,1,15,39,9,2,-3,-2
1523147494459186,24,9,-9,15,-7,-3,2,-2
1523147494479865,11,-5,-2,-22,1,5,3,-7
1523147494479865,-29,-4,-8,37,5,5,0,-6
1523147494481242,-27,-3,-2,-11,-5,-7,1,-15
1523147494481242,40,23,3,-34,1,-6,-12,6
1523147494502299,4,-24,2,47,-9,-4,-4,1
1523147494502299,-18,-3,-15,4,7,7,4,-7
1523147494503802,6,-1,5,-9,-14,-2,0,0
1523147494503802,-10,-5,9,48,23,1,2,-2
1523147494516466,-8,7,-12,58,-21,-6,-3,-1
1523147494516466,21,20,1,13,10,5,5,-7
1523147494532379,-49,-16,-18,12,-1,-2,-4,2
1523147494532379,-13,-3,7,45,5,-10,-4,-2
1523147494540025,-8,-9,-4,-38,-1,6,5,0
1523147494540025,33,28,4,31,1,1,-2,11
1523147494541404,22,-24,-7,-43,-6,-1,-1,6
1523147494541404,-8,1,-3,-39,-12,-5,0,0
1523147494562460,-15,-8,9,-23,1,-2,-1,-8
1523147494562460,-22,-7,2,-45,-9,-3,-1,-10
1523147494563963,13,23,-5,-12,18,7,1,5
1523147494563963,5,-3,-9,5,-20,6,8,6
1523147494577625,-1,1,-18,-51,-9,-4,-9,2
1523147494577625,-10,-22,19,5,-2,-2,0,-6
1523147494579004,13,20,15,-10,-7,-7,-5,9
1523147494579004,-7,-9,-2,52,11,0,1,5
1523147494600164,-53,0,-9,-95,-11,3,5,-2
1523147494600164,-2,13,-19,29,2,-1,-2,-1
1523147494601565,-3,-10,-1,34,7,-1,-1,-12
1523147494601565,15,-3,-12,-25,-18,-2,-2,1
1523147494622634,-7,3,4,24,3,-4,-3,-3
1523147494622634,-1,-10,3,5,0,-1,0,-11
1523147494624126,10,6,6,-3,-7,1,0,9
1523147494624126,11,-10,1,-8,-2,-5,-3,-5
1523147494636658,-41,-10,-5,-21,-3,0,-1,4
1523147494636658,-4,-11,-9,23,6,4,1,-10
1523147494643802,-14,16,0,-1,11,-5,-6,-3
1523147494643802,3,5,-3,-73,-25,-5,-3,-1
1523147494660218,22,6,19,97,15,-2,0,-2
1523147494660218,9,-15,-5,-65,-18,-4,1,5
1523147494661808,-11,-8,-14,16,4,12,5,0
1523147494661808,-20,4,12,-18,-1,-1,-5,-43
1523147494682404,20,27,17,15,-7,-3,-2,45
1523147494682404,4,5,9,40,9,0,-5,-1
1523147494683780,-5,-13,-11,-67,-12,-13,-4,-2
1523147494683780,-16,-19,-29,-25,-1,1,-1,-14
1523147494696943,25,9,3,11,0,0,1,-13
1523147494696943,33,-5,2,4,1,-2,-3,0
1523147494703834,5,-5,19,45,5,0,-2,3
1523147494703834,-18,-24,-30,-32,-22,-8,-3,7
1523147494719878,-15,43,-3,-27,-1,-5,-6,-24
1523147494719878,-15,2,6,1,3,4,3,13
1523147494721381,-1,-7,7,25,1,0,-1,-12
1523147494721381,4,22,2,-13,-1,-2,1,9
1523147494742565,10,-26,6,56,10,5,4,-2
1523147494742565,-59,-7,-2,-14,1,0,3,-11
1523147494743941,8,-19,-7,-20,-13,-5,-5,4
1523147494743941,-22,-2,8,4,5,-4,1,8
1523147494756980,-1,-20,-2,-12,2,5,-2,1
1523147494756980,-9,-3,3,5,-1,-3,1,-4
1523147494763623,1,6,-2,3,4,8,4,-3
1523147494763623,-21,-30,-2,-15,-3,0,-2,24
1523147494780038,47,12,2,12,-4,-7,-6,-14
1523147494780038,-13,13,-3,-8,3,2,0,-6
1523147494781542,20,4,4,0,-6,-8,-2,-16
1523147494781542,16,3,-17,-7,1,-3,1,21
1523147494810159,25,-5,0,2,4,2,-7,29
1523147494810159,-15,-7,11,11,-1,-4,-3,-1
1523147494811625,-55,-35,14,-4,-3,-3,-1,-18
1523147494811625,57,23,5,-3,-8,-6,-7,22
1523147494816635,-19,-26,-8,6,3,-1,6,12
1523147494816635,43,8,-22,-16,-4,0,12,28
1523147494823781,19,1,-2,-3,-9,-4,-22,-14
1523147494823781,-19,-4,1,-5,8,-4,-10,-21
1523147494839822,19,-17,8,-6,-7,-3,3,2
1523147494839822,-4,8,-18,-5,2,-3,-8,-36
1523147494841702,-54,15,10,3,-6,-1,14,35
1523147494841702,9,-59,-23,-10,-24,-9,-9,11
1523147494862383,-36,10,-11,-2,18,1,-6,-49
1523147494862383,35,8,7,-4,-5,5,-3,5
1523147494863762,36,12,-2,12,6,-3,1,12
1523147494863762,20,20,15,2,2,5,1,-9
1523147494876922,-16,-17,9,3,-9,-3,-3,2
1523147494876922,5,42,8,6,4,1,5,16
1523147494883428,-18,-35,-7,-7,-3,-1,-5,-8
1523147494883428,-10,12,8,18,4,3,7,-11
1523147494899982,-5,-11,-16,-34,-5,0,2,-8
1523147494899982,-20,-7,7,54,13,1,-6,-6
1523147494901361,24,16,-5,25,-6,-3,-3,13
1523147494901361,-26,2,3,-5,1,5,0,-18
1523147494922575,-16,18,4,69,9,3,9,9
1523147494922575,-29,-5,4,-20,-10,-4,-9,-5
1523147494923955,18,10,15,110,12,2,2,4
1523147494923955,-55,-9,-24,-100,-32,-7,-6,-13
1523147494936989,7,12,9,79,8,3,2,5
1523147494936989,8,-11,5,69,5,2,-1,-3
1523147494943632,-8,2,-32,-105,-31,-17,-7,-5
1523147494943632,10,20,13,-4,9,2,-3,-20
1523147494960175,36,6,-1,-17,0,0,0,0
1523147494960175,13,-16,18,-17,2,2,-2,16
1523147494961554,17,10,-2,-26,6,5,1,-18
1523147494961554,16,2,4,5,2,-1,0,44
1523147494982661,4,-3,-12,-38,-11,-3,-2,-5
1523147494982661,-1,-7,-11,-11,2,-3,-1,-10
1523147494984114,29,10,6,-12,-5,-3,-2,2
1523147494984114,49,29,20,49,15,4,10,0
1523147494996277,-18,-24,-19,-45,-7,1,-2,-9
1523147494996277,4,7,-22,-20,-17,-8,-3,16
1523147495005171,-22,1,-1,36,15,6,2,0
1523147495005171,-1,-3,-15,5,-11,-11,-4,-11
1523147495019922,-11,-5,8,-72,-24,-3,-3,3
1523147495019922,-12,-7,-9,59,9,3,3,-11
1523147495021300,13,-2,-8,-7,-1,0,2,6
1523147495021300,-2,-4,9,-1,3,2,-2,-9
1523147495042482,7,5,12,58,9,-1,4,8
1523147495042482,-20,-14,2,33,-2,-2,2,-5
1523147495043860,-16,-6,-8,-24,-5,-1,-2,-5
1523147495043860,3,-14,9,23,15,3,1,3
1523147495056022,26,-6,-2,28,0,-5,-9,-3
1523147495056022,20,7,2,-34,-8,-4,-1,-6
1523147495064915,-30,-7,9,46,2,1,2,6
1523147495064915,5,-2,2,5,2,5,6,0
1523147495080083,-5,11,-1,30,8,-4,-4,-6
1523147495080083,10,-8,29,37,9,3,1,4
1523147495081460,22,0,1,61,0,-4,-2,-2
1523147495081460,-18,-9,-24,-36,-9,-2,-2,-7
1523147495102518,-19,-4,-26,-10,-10,0,-1,-1
1523147495102518,11,1,6,11,9,1,-2,1
1523147495104022,4,-4,-6,-49,-10,-1,-1,3
1523147495104022,-23,3,-1,60,8,0,-3,-8
1523147495116178,16,1,7,-38,-2,1,3,-4
1523147495116178,-31,30,-9,-54,-9,-5,-6,-14
1523147495125077,26,27,1,-4,-1,-3,2,-6
1523147495125077,-8,1,-5,-29,4,1,-5,-13
1523147495140251,-7,-2,9,35,-1,1,1,-4
1523147495140251,-41,-19,-3,-10,-7,-4,3,20
1523147495141621,1,-10,7,-12,1,1,-3,5
1523147495141621,6,6,18,127,21,0,1,0
1523147495162743,-27,-3,-13,-21,-16,-9,-1,-7
1523147495162743,26,-5,-6,16,5,-2,-3,-6
1523147495163679,0,-10,12,4,2,4,4,3
1523147495163679,-8,10,-10,-93,-21,-5,-4,0
1523147495176419,9,-13,12,18,10,1,0,10
1523147495176419,-18,-19,15,-36,-5,1,-1,-1
1523147495185237,19,-5,-7,-2,2,-2,-5,-2
1523147495185237,13,4,4,-2,1,2,0,0
1523147495199951,-39,9,-8,-19,-3,-1,0,1
1523147495199951,-22,5,1,-2,-10,-3,-4,-8
1523147495201781,8,-1,-8,-21,0,-1,1,0
1523147495201781,4,-4,-10,35,-4,0,0,-2
1523147495222335,7,1,14,58,14,5,3,-14
1523147495222335,-11,-31,-24,-12,-3,-3,-2,24
1523147495223838,-5,-46,-9,19,-5,-6,-9,-6
1523147495223838,-1,-11,-9,-34,-12,-4,-4,-9
1523147495235871,20,-7,-2,30,13,-1,-2,19
1523147495235871,1,10,-6,-6,-5,1,2,-3
1523147495244895,-9,39,13,-5,2,1,-2,-6
1523147495244895,8,-9,6,-5,-2,-1,-4,1
1523147495259966,-8,3,-1,-27,-7,-4,-2,-6
1523147495259966,-13,-24,-24,5,3,1,2,-6
1523147495261440,4,-8,-3,-13,-2,2,3,8
1523147495261440,-6,10,-15,9,4,-1,0,1
1523147495282559,9,8,8,4,-5,-1,-1,-1
1523147495282559,11,7,-11,-6,-2,-3,-2,5
1523147495284001,-17,-16,-7,-15,-1,-3,-2,-10
1523147495284001,-23,-35,15,11,4,3,7,-36
1523147495296100,21,19,-5,-21,-2,0,-7,44
1523147495296100,31,-19,-21,-8,-7,-6,-9,-23
1523147495305055,-79,6,7,6,-1,2,6,-4
1523147495305055,37,1,13,10,11,8,7,20
1523147495320097,-1,5,-47,-31,-17,-9,-10,-8
1523147495320097,-34,-34,-21,8,-3,-1,1,-10
1523147495321600,-24,24,14,3,8,1,-2,-46
1523147495321600,6,-41,-55,-19,-19,-11,-10,40
1523147495342655,21,13,20,12,4,0,3,-12
1523147495342655,49,-19,14,-5,-5,-2,-2,2
1523147495344195,-1,16,-12,6,-1,0,-4,-8
1523147495344195,-41,1,33,9,8,5,7,-29
1523147495355886,64,-12,0,7,8,3,7,33
1523147495355886,-30,-12,3,-11,-7,-4,-9,-6
1523147495364842,51,11,13,-1,2,0,6,-1
1523147495364842,-11,-10,-5,5,0,4,1,18
1523147495379952,-13,-9,-9,-11,-5,1,5,-26
1523147495379952,2,34,19,-6,-1,-7,-12,8
1523147495381387,21,-8,-11,7,4,-3,4,18
1523147495381387,-12,6,9,3,-2,4,-1,4
1523147495402443,-1,9,-9,7,2,2,-1,-9
1523147495402443,-16,21,8,14,10,4,6,-3
1523147495403948,-8,0,-12,2,-8,-3,-3,9
1523147495403948,-3,-1,-2,-26,-11,-11,-9,-2
1523147495416055,-19,1,8,5,1,0,2,-12
1523147495416055,19,23,18,96,10,1,-2,-5
1523147495425002,21,-8,-14,-92,-25,-7,-9,13
1523147495425002,4,18,17,76,11,2,4,-6
1523147495439041,-26,-18,-1,38,0,-2,-6,-7
1523147495439041,-5,4,6,-74,-16,-3,1,3
1523147495447566,-7,-9,-7,32,10,7,1,2
1523147495447566,21,11,-7,-33,-6,-3,-1,0
1523147495462630,-72,-20,8,25,11,0,3,1
1523147495462630,-4,8,6,-47,-2,-1,-1,1
1523147495464108,-8,-5,-7,-17,-11,0,1,-27
1523147495464108,40,2,5,8,6,4,4,20
1523147495484663,-66,5,-6,-70,-12,-7,-7,21
1523147495484663,-14,4,-3,29,7,5,3,-5
1523147495486667,11,10,6,19,1,2,2,11
1523147495486667,-36,-26,-7,14,2,-5,-7,-18
1523147495499701,16,-3,8,7,-3,-3,-4,-11
1523147495499701,10,0,8,70,5,3,9,5
1523147495501707,-8,-16,-3,55,8,-2,-1,10
1523147495501707,2,12,-5,-72,-17,2,0,-1
1523147495522323,17,-1,1,13,-3,-2,1,0
1523147495522323,4,-6,-5,-18,0,1,-3,-10
1523147495523765,-3,2,-5,65,18,-7,-4,3
1523147495523765,-14,6,-9,-38,-23,-8,-2,-3
1523147495544889,16,3,2,-5,2,-1,-3,-6
1523147495544889,-24,4,-6,-68,-11,-3,2,-2
1523147495546325,-1,-19,4,12,4,1,-1,2
1523147495546325,-44,-10,-14,32,9,3,-1,-2
1523147495559927,-1,10,-7,-18,-22,-6,-8,-8
1523147495559927,0,6,6,82,16,5,7,-12
1523147495561365,13,-29,-5,-37,-25,-6,-4,28
1523147495561365,16,14,1,-9,-2,-1,2,4
1523147495582488,6,-14,8,62,15,2,3,-2
1523147495582488,3,-6,3,36,6,-1,3,31
1523147495583927,-2,21,0,-48,-13,-3,-2,-11
1523147495583927,5,8,2,12,12,1,-2,-10
1523147495605042,2,-5,2,1,-3,0,-1,7
1523147495605042,0,2,-23,-63,-14,-4,-5,-12
1523147495606486,1,3,3,23,0,-2,0,-2
1523147495606486,-3,7,7,54,5,-1,-4,4
1523147495619521,26,3,2,30,13,1,3,-10
1523147495619521,-7,-17,-23,-87,-50,-13,-11,-9
1523147495626245,-14,0,1,119,15,5,2,1
1523147495626245,64,7,4,25,2,-1,-3,-8
1523147495642390,45,5,8,2,5,7,7,12
1523147495642390,1,-1,-1,6,11,1,1,-2
1523147495643827,-5,20,6,18,3,0,-2,-19
1523147495643827,-21,-10,10,-31,-12,-8,-9,-1
1523147495664940,-2,-9,1,-22,-4,0,-2,19
1523147495664940,17,-1,-1,0,4,0,3,18
1523147495666387,-15,-9,-2,-26,-2,2,-1,-20
1523147495666387,-27,-3,13,-8,12,3,2,-19
1523147495679078,-5,6,-16,27,4,0,-1,5
1523147495679078,-16,-4,-22,-30,-17,-4,-4,-7
1523147495686069,13,-16,7,-10,1,3,9,16
1523147495686069,-6,5,4,32,7,-3,-3,-5
1523147495702114,19,-16,-20,-82,-21,-8,-8,-6
1523147495702114,3,8,1,54,13,2,-1,-8
1523147495704119,2,-1,-16,-78,-12,-3,0,-2
1523147495704119,11,4,5,38,6,2,3,12
1523147495725174,-2,5,-11,2,-16,-3,-1,-12
1523147495725174,22,-5,14,81,16,0,0,-2
1523147495726684,5,24,3,-7,-5,-1,-4,-2
1523147495726684,-7,-1,-4,0,-2,-3,0,4
1523147495739222,-28,-6,12,-27,-5,-3,-2,-4
1523147495739222,-19,-11,7,-5,3,0,6,-5
1523147495746290,-9,15,3,-13,0,-2,-14,-5
1523147495746290,-3,6,-5,15,3,0,7,16
1523147495762390,19,0,4,8,4,2,4,3
1523147495762390,42,-14,-1,-6,-5,-3,-2,-2
1523147495763778,5,1,3,-4,7,2,4,9
1523147495763778,-9,-4,-7,-11,-9,0,-1,1
1523147495784833,-8,-44,-5,-35,-2,-3,-8,-1
1523147495784833,-7,3,9,-8,1,3,1,0
1523147495786337,-7,-3,-9,0,-4,-4,-3,9
1523147495786337,5,-13,-21,-8,-4,1,7,0
1523147495799370,-58,-8,-10,28,1,-5,-12,7
1523147495799370,-27,17,-2,-15,-2,-4,-7,-11
1523147495805995,-10,-20,3,9,-5,-2,2,6
1523147495805995,-1,17,-2,-14,-7,-4,-6,-16
1523147495822671,-12,7,20,8,6,2,7,-18
1523147495822671,-2,22,-15,6,6,2,-2,4
1523147495823939,-1,-11,-6,6,-2,0,3,11
1523147495823939,4,-67,-10,-2,-3,-3,10,-19
1523147495845225,-43,25,8,5,-3,-7,-25,-11
1523147495845225,101,39,-12,-2,-1,7,14,25
1523147495846498,-25,4,1,6,-2,-9,-17,-5
1523147495846498,-47,-28,-20,-5,-2,-3,-8,-19
1523147495859638,19,5,-4,15,4,0,18,-60
1523147495859638,-18,-22,13,-3,-1,-7,-13,18
1523147495866048,29,28,15,2,12,19,14,19
1523147495866048,-3,14,1,-8,-20,-13,-14,0
1523147495890245,8,1,-11,6,4,-6,-1,-6
1523147495890245,0,-4,4,-7,2,10,13,-26
1523147495891617,25,-4,12,18,17,6,-7,7
1523147495891617,20,24,-10,8,4,2,-6,-12
1523147495905294,-13,0,-3,-6,-25,-6,7,16
1523147495905294,8,3,-9,-4,-5,-9,6,-19
1523147495906708,4,-9,20,4,1,-5,-3,15
1523147495906708,-48,13,8,7,10,12,10,1
1523147495919190,68,-17,-11,-4,1,-2,-7,15
1523147495919190,4,-3,4,-8,-9,-11,-19,4
1523147495926208,-63,-19,-21,34,1,5,14,-20
1523147495926208,18,15,16,10,1,-8,-7,10
1523147495942491,-15,10,-13,-62,-6,6,7,2
1523147495942491,-28,-6,1,-22,-10,0,-8,-2
1523147495944370,19,-3,2,22,-8,-7,-4,-6
1523147495944370,-5,0,-7,-10,2,-1,4,4
1523147495964811,-9,2,12,67,28,16,3,12
1523147495964811,-8,-21,-14,-31,-30,-3,-1,3
1523147495966316,-91,6,-19,7,-10,-12,-10,-19
1523147495966316,31,11,7,-16,-5,0,1,12
1523147495978588,2,1,10,55,6,1,2,2
1523147495978588,-11,0,2,-29,3,-7,-3,1
1523147495987371,13,-3,7,22,8,10,7,-23
1523147495987371,2,-10,-2,26,-5,-6,-10,27
1523147496002475,-38,-3,-6,-34,-11,-7,-2,5
1523147496002475,-22,13,12,17,11,7,-6,-15
1523147496003915,31,-6,-16,-13,-4,-13,-8,-8
1523147496003915,-3,15,2,-45,-8,1,2,-11
1523147496025210,11,-2,-2,14,-2,6,0,-20
1523147496025210,-59,-26,1,76,15,-3,1,15
1523147496026476,-33,-2,13,55,19,-2,-6,-11
1523147496026476,5,6,-33,-67,-27,2,1,3
1523147496038747,-14,-3,-7,14,-3,1,2,-1
1523147496038747,3,2,4,46,-8,-8,-7,-8
1523147496047532,29,-3,-12,-14,-3,3,-3,7
1523147496047532,-8,-6,22,87,23,-1,3,-3
1523147496062571,5,0,-7,-4,4,12,6,5
1523147496062571,-12,2,11,16,11,4,2,2
1523147496064092,37,-31,0,4,-4,-7,1,2
1523147496064092,-1,-3,-20,-70,-31,-1,-7,-6
1523147496084630,7,-1,5,37,0,-11,-3,0
1523147496084630,3,4,8,-28,10,4,3,1
1523147496086635,4,8,-8,-56,-9,-4,0,-2
1523147496086635,5,-6,-3,44,-3,-4,-5,-9
1523147496098847,16,-2,12,-32,1,-1,-1,5
1523147496098847,2,-3,7,-18,-2,4,2,-6
1523147496107707,-2,-4,-13,-69,-30,-6,2,-1
1523147496107707,-31,-6,22,66,30,6,4,-2
1523147496122231,-20,12,-7,-22,-7,-1,-1,3
1523147496122231,48,3,9,65,30,7,6,3
1523147496124390,-1,3,-20,-30,-68,-12,-10,-2
1523147496124390,-12,-6,-14,42,-5,-3,0,0
1523147496144791,-20,-49,8,65,6,1,2,-7
1523147496144791,31,17,-10,-2,3,0,-4,5
1523147496146870,-3,0,-7,-26,11,6,5,2
1523147496146870,25,-1,-3,-1,-7,-5,-6,5
1523147496167349,-8,12,5,-16,1,-5,-3,-7
1523147496167349,4,-26,-12,25,-8,-4,0,6
1523147496167852,-26,2,7,38,15,3,3,3
1523147496167852,-16,-1,5,-4,1,-3,2,-5
1523147496182071,-5,7,10,-15,11,8,6,5
1523147496182071,-78,-4,-17,49,-15,-6,-7,-25
1523147496182389,4,13,-2,43,11,5,4,7
1523147496182389,7,4,36,48,30,5,5,4
1523147496204186,11,1,-9,-12,-32,-15,-12,6
1523147496204186,7,-7,-20,-12,-7,-1,-1,-14
1523147496204950,0,-2,-3,32,1,-3,0,-9
1523147496204950,30,3,3,46,8,-1,-9,13
1523147496226751,-4,0,-18,-12,5,0,6,-5
1523147496226751,18,3,2,-4,-10,-2,-6,-34
1523147496227532,32,6,-1,-23,4,1,-2,17
1523147496227532,9,1,1,2,1,1,0,-3
1523147496242070,-2,3,5,10,-5,-3,-3,-4
1523147496242070,-18,3,6,-50,8,8,10,-9
1523147496242550,10,-16,-13,-6,-4,-6,-7,18
1523147496242550,15,-28,-4,-13,-3,-2,0,-5
1523147496264161,18,2,-4,0,-7,-4,-7,12
1523147496264161,-65,-3,10,42,11,0,2,6
1523147496265166,0,7,9,2,10,1,2,-10
1523147496265166,12,7,0,-23,-4,-3,-4,3
1523147496286667,0,-11,-31,-59,-18,-6,-1,-6
1523147496286667,1,-1,4,15,-2,-3,-6,7
1523147496287670,0,6,20,17,0,1,0,-4
1523147496287670,-12,2,2,-3,-4,4,0,-6
1523147496301708,2,7,-7,-13,10,-3,-1,1
1523147496301708,14,1,-4,-41,-13,-4,-3,3
1523147496302811,0,-2,-8,15,4,-1,-3,-11
1523147496302811,21,1,-8,-17,2,1,-1,-12
1523147496324268,-50,-4,9,33,4,3,1,0
1523147496324268,12,1,-6,-12,1,2,1,16
1523147496325326,9,-9,10,8,-2,-5,-2,5
1523147496325326,-1,-14,-12,-3,-2,-5,-6,-18
1523147496346828,-2,14,-10,-11,-8,-3,-6,5
1523147496346828,46,-20,-9,-19,-10,-6,0,-16
1523147496347919,-64,-1,-7,14,0,0,-4,-9
1523147496347919,-15,-8,-3,0,7,4,6,4
1523147496361697,47,43,26,12,-1,0,2,21
1523147496361697,-31,-9,-27,-16,-5,-6,-11,-7
1523147496362461,4,-15,-44,-24,-18,-6,-5,-29
1523147496362461,-12,24,16,-6,-6,-1,14,28
1523147496384017,-7,4,-15,-3,-5,-5,-26,-16
1523147496384017,-18,-26,6,1,-3,1,8,0
1523147496385020,95,58,42,8,14,9,5,67
1523147496385020,14,-26,-43,-6,-13,-4,-3,-30
1523147496407078,-13,-4,-3,12,1,-1,16,17
1523147496407078,60,-22,-2,-7,0,-4,-6,-4
1523147496407582,-45,-17,10,3,-8,-1,2,-9
1523147496407582,-53,10,21,4,7,4,-12,-13
1523147496421856,20,4,14,19,5,2,4,-8
1523147496421856,-7,-20,-34,-28,-1,5,6,18
1523147496422620,37,-20,2,32,10,-1,-2,-21
1523147496422620,-20,3,-3,-6,-8,-4,7,61
1523147496444507,15,-24,-15,13,0,0,-6,-15
1523147496444507,-21,13,12,2,0,-3,2,8
1523147496444767,-7,1,3,12,10,7,7,1
1523147496444767,-13,7,-13,-10,-15,-6,-8,-17
1523147496474846,16,-5,2,49,14,-4,-2,-14
1523147496474846,10,24,24,-68,-12,3,5,19
1523147496475848,-29,5,-5,59,5,-2,-4,-16
1523147496475848,-26,1,-10,-77,-6,-7,-4,-14
1523147496482070,-6,-7,8,29,-2,6,2,10
1523147496482070,12,17,18,26,14,-11,7,-3
1523147496482365,-24,-14,-48,-88,-36,4,-8,-7
1523147496482365,18,13,6,50,0,2,2,-1
1523147496504163,2,-7,15,0,2,-2,0,-2
1523147496504163,-22,7,15,51,6,1,0,9
1523147496504927,9,10,10,111,31,0,-1,-7
1523147496504927,4,-10,-23,-64,-38,-14,-9,-8
1523147496526751,54,-26,-16,-5,-13,-5,-7,20
1523147496526751,-12,29,-8,37,2,3,0,-1
1523147496527253,-11,-7,14,20,4,-1,3,1
1523147496527253,29,-1,-6,47,25,9,2,-4
1523147496542030,-32,-10,-3,-84,-23,-4,2,-21
1523147496542030,-38,7,-12,7,-1,-9,-14,28
1523147496542794,13,3,8,-14,-11,-2,-3,2
1523147496542794,-19,-8,8,98,32,4,1,-4
1523147496564463,-10,4,10,-8,-13,3,-1,2
1523147496564463,61,5,-5,79,8,3,1,-22
1523147496564852,0,6,5,-13,1,-2,-1,-1
1523147496564852,7,9,24,1,-6,3,4,6
1523147496586803,-12,-7,-29,67,-1,-4,4,1
1523147496586803,10,-5,-6,21,-4,2,-4,-13
1523147496587839,-5,-13,-12,-13,-2,-4,-5,6
1523147496587839,13,18,11,36,23,6,5,4
1523147496601842,0,-7,-9,-81,-18,-4,-2,-9
1523147496601842,-48,-2,-27,-58,-24,-7,-1,-5
1523147496602866,4,-13,3,22,16,1,-1,-10
1523147496602866,-50,-33,5,52,3,3,-2,2
1523147496624202,-27,7,17,41,11,4,-1,-5
1523147496624202,2,-3,-1,17,13,-2,4,-8
1523147496625354,-3,10,-3,-41,-9,-1,-2,52
1523147496625354,28,13,15,-1,-6,-1,-3,-7
1523147496646708,-2,-1,-21,5,3,1,-1,-5
1523147496646708,-21,-26,8,-10,-1,1,8,-1
1523147496647477,30,23,8,19,1,0,-4,-9
1523147496647477,14,-1,-3,-28,-9,-4,-3,7
1523147496662051,-2,6,0,20,6,0,-4,2
1523147496662051,10,12,-7,-17,0,1,-3,6
1523147496662311,-13,-8,4,7,2,-1,0,-19
1523147496662311,-40,3,1,11,-5,0,3,2
1523147496684371,-15,0,-3,-57,-4,1,-1,-6
1523147496684371,-7,-7,-9,18,1,-2,-7,-3
1523147496684880,50,0,0,7,-4,2,8,-1
1523147496684880,25,14,5,13,2,1,-2,-36
1523147496707001,5,-10,28,106,7,5,0,20
1523147496707001,-40,-28,-17,40,-10,-7,-9,-12
1523147496707431,-22,6,-3,55,11,-4,-2,13
1523147496707431,20,2,3,-6,-8,1,6,3
1523147496721998,-38,13,7,0,11,-3,-14,-9
1523147496721998,9,-20,25,55,8,5,-3,-2
1523147496722473,-11,-13,-24,-49,-34,-12,-4,-19
1523147496722473,-4,3,-13,13,12,-2,-10,13
1523147496752291,26,9,0,-1,2,-3,6,-1
1523147496752291,1,1,10,-5,5,4,1,15
1523147496753326,-14,-3,13,23,-4,1,-1,-7
1523147496753326,-1,-12,-21,-29,-5,-1,4,4
1523147496766853,-19,-7,-7,11,5,0,2,-13
1523147496766853,61,35,13,-15,-8,-2,-3,-5
1523147496767834,-4,-6,10,-1,2,2,3,4
1523147496767834,0,-1,-2,4,-14,-6,-8,0
1523147496781870,-1,-14,-16,-47,-2,-5,-1,-4
1523147496781870,-16,17,1,10,11,6,4,-15
1523147496782374,3,-10,15,17,-6,1,5,6
1523147496782374,-8,-16,-21,-16,-3,-5,-9,-22
1523147496804520,11,-8,2,12,7,7,7,15
1523147496804520,-30,3,-5,-14,-3,-4,2,13
1523147496804931,20,14,-4,-12,0,-4,-7,-16
1523147496804931,-61,-13,6,-25,-2,-1,2,-1
1523147496826599,39,12,8,-12,-9,-2,1,-13
1523147496826599,-8,-18,-6,-23,-13,-6,0,3
1523147496827493,9,10,-3,1,2,-2,4,29
1523147496827493,14,8,-1,-16,-3,0,-7,-19
1523147496841633,3,3,3,35,5,-4,-5,-33
1523147496841633,28,-45,-6,5,-1,2,3,8
1523147496842533,10,-46,14,-5,5,4,-8,25
1523147496842533,37,27,6,9,-3,-4,1,14
1523147496864201,-28,-21,-4,15,-2,2,18,-20
1523147496864201,-47,-18,-3,-17,-16,-14,-39,2
1523147496865090,68,-21,-16,-3,12,8,16,42
1523147496865090,-27,-2,-9,1,-9,-4,2,43
1523147496886755,-28,-8,5,10,-2,-7,-19,-56
1523147496886755,-58,32,20,-9,-1,-2,0,8
1523147496887651,-111,-2,-17,-17,2,-1,-5,-48
1523147496887651,80,-8,-32,5,6,2,2,38
1523147496901186,-57,8,-6,7,6,5,8,11
1523147496901186,51,20,12,-1,-1,7,12,1
1523147496909209,33,30,21,7,3,0,-1,-12
1523147496909209,-8,-10,25,27,11,7,11,-6
1523147496924355,-14,1,2,-33,-9,-2,-6,16
1523147496924355,10,4,-14,95,19,-2,-1,-16
1523147496924751,1,8,2,26,8,-1,-6,-3
1523147496924751,-19,3,-13,-60,-20,-2,2,-8
1523147496946917,27,-1,-4,104,1,-5,-4,16
1523147496946917,22,-13,0,26,-4,3,4,9
1523147496947309,-73,11,-5,-61,-9,-3,-3,-25
1523147496947309,34,-3,3,23,6,-4,-12,-27
1523147496961909,33,8,4,19,2,4,-5,-2
1523147496961909,68,1,-23,-88,-28,-8,4,20
1523147496962350,14,-6,-6,31,8,0,-4,-6
1523147496962350,-16,-2,10,69,6,3,0,28
1523147496983909,-15,-7,17,97,12,-3,3,9
1523147496983909,25,36,-24,-30,-1,5,-2,-17
1523147496984910,-2,-10,1,98,15,-2,-2,-3
1523147496984910,-11,-2,-3,-54,-23,-1,-2,-3
1523147497006967,36,16,8,68,14,2,6,16
1523147497006967,-36,-8,-33,-126,-43,-14,-6,-7
1523147497007470,-5,4,15,48,13,4,4,-1
1523147497007470,-2,-7,-4,20,5,-2,3,-14
1523147497030029,4,3,-6,-94,-11,-4,-9,5
1523147497030029,-12,-15,15,28,12,4,4,-13
1523147497030532,-22,-2,-19,-89,-13,-4,-4,-4
1523147497030532,8,-6,1,36,13,-7,-2,-16
1523147497044171,24,11,18,-2,0,9,5,28
1523147497044171,-25,9,-27,0,-27,-4,-6,-11
1523147497045072,108,15,-7,64,-11,-5,5,-14
1523147497045072,-54,23,17,-80,3,2,-1,17
1523147497066782,-15,-11,-22,-62,-31,-17,-10,3
1523147497066782,-5,2,18,-6,10,-1,-2,-20
1523147497067282,6,-10,-7,32,-3,4,0,-2
1523147497067282,21,10,1,-46,-4,-3,1,-25
1523147497081346,5,2,-20,-103,-13,-3,-5,11
1523147497081346,19,-11,27,107,42,8,8,6
1523147497089341,-25,-11,-24,-126,-69,-17,-11,-8
1523147497089341,-1,-9,47,97,17,6,4,6
1523147497104454,6,-1,0,36,7,-1,1,-3
1523147497104454,24,7,3,-6,8,2,1,-1
1523147497104882,-43,-10,0,-24,19,1,-4,-6
1523147497104882,-5,-8,-3,8,-8,-2,-2,4
1523147497126544,-10,1,-14,79,14,3,0,-16
1523147497126544,-1,3,22,33,-8,-2,-3,4
1523147497127444,-24,2,4,10,3,-3,-1,6
1523147497127444,48,30,-21,-14,-20,-5,-3,-13
1523147497150003,1,-6,14,1,11,4,2,-10
1523147497150003,6,-16,-1,89,15,1,0,24
1523147497150504,-86,-18,-19,-89,-22,-3,-5,-3
1523147497150504,-18,-10,-10,58,-2,-6,-3,-10
1523147497164240,26,-3,9,4,11,0,0,-9
1523147497164240,-13,6,-2,-7,-1,2,3,9
1523147497165043,23,37,7,19,6,0,-3,-9
1523147497165043,1,-12,-18,29,4,2,-5,5
1523147497186840,-8,-2,-12,-102,-26,-8,-2,9
1523147497186840,-13,-9,-3,24,-4,-8,-6,-11
1523147497187603,16,8,20,82,26,8,6,6
1523147497187603,36,4,5,-5,0,4,2,3
1523147497201420,-29,3,-9,59,-5,1,-1,-2
1523147497201420,-17,3,-2,47,2,-1,2,-13
1523147497209441,-3,-6,7,69,7,2,4,27
1523147497209441,43,-7,-6,8,-5,-6,-10,1
1523147497224511,13,4,1,-39,-6,-2,2,0
1523147497224511,5,-10,-5,3,8,0,-2,5
1523147497224772,-6,38,6,-8,-7,-3,4,2
1523147497224772,-6,20,5,-10,3,6,1,-34
1523147497246832,24,4,9,-3,5,1,2,15
1523147497246832,-2,-13,-21,-32,-7,0,-1,-6
1523147497247874,1,-31,-2,-14,-1,-1,2,-13
1523147497247874,38,4,10,12,4,-1,0,-8
1523147497261108,-23,7,8,31,5,-2,2,11
1523147497261108,29,5,12,-23,-3,2,7,-1
1523147497276943,14,20,-21,-7,-6,0,-4,-15
1523147497276943,-52,-80,-17,-14,-4,-3,-3,18
1523147497284222,34,25,14,13,15,1,-9,-7
1523147497284222,27,-8,-33,-27,-21,-9,-1,25
1523147497285226,16,-11,5,-12,-8,-8,-4,3
1523147497285226,1,-4,-4,23,10,1,8,50
1523147497306782,-8,-1,0,-7,-2,-5,-7,-26
1523147497306782,44,23,2,-10,-2,-2,-7,21
1523147497307857,-35,-36,-28,-3,-7,-8,-15,15
1523147497307857,52,11,-1,-6,-1,0,5,59
1523147497330162,0,-10,7,10,-1,0,-14,19
1523147497330162,-25,45,11,-10,1,3,-1,-44
1523147497330420,16,5,5,-1,1,4,16,28
1523147497330420,-27,3,6,3,3,0,-8,-45
1523147497344548,-28,8,-5,-13,-8,-1,4,-1
1523147497344548,18,-31,-3,9,-1,-1,4,2
1523147497344957,57,3,-3,3,11,3,1,-15
1523147497344957,-12,13,5,0,-1,-6,-1,-20
1523147497366571,-23,13,1,-2,-14,-2,6,38
1523147497366571,-61,-56,3,38,17,12,5,-25
1523147497367611,27,21,15,-15,0,-2,-3,-23
1523147497367611,-19,-2,-9,-5,-16,-6,-6,43
1523147497390246,-22,-50,-33,13,3,-5,1,-35
1523147497390246,-63,-19,4,-15,-6,-4,-10,10
1523147497390638,-13,-9,-22,-19,-13,-8,-4,6
1523147497390638,-11,-3,16,61,0,5,6,-16
1523147497404436,6,17,-7,-46,9,3,-1,-37
1523147497404436,7,6,15,-12,9,-1,2,-46
1523147497405393,-6,-8,0,-46,-11,5,4,44
1523147497405393,-18,11,1,-2,1,-3,1,-25
1523147497426996,33,-12,10,81,-17,3,5,15
1523147497426996,-2,30,28,82,39,8,-1,-16
1523147497427803,-11,-4,-20,-93,-50,-14,-7,-13
1523147497427803,-13,10,-3,101,8,3,4,0
1523147497449864,-1,3,16,112,22,7,-1,5
1523147497449864,-6,-12,-13,-51,1,-12,-4,-8
1523147497450909,-23,-21,8,-47,-20,-6,-9,24
1523147497450909,42,23,-33,-74,-14,-9,-3,2
1523147497464188,-27,-14,5,11,-8,-8,-2,-10
1523147497464188,86,27,-3,12,-9,0,-2,25
1523147497465194,-13,6,18,52,29,10,0,-13
1523147497465194,-9,-15,-10,-49,-4,-1,0,-26
1523147497486936,48,8,-7,-47,3,-1,-5,-10
1523147497486936,26,15,3,-33,-17,-3,2,23
1523147497487250,4,-5,3,123,33,7,5,-14
1523147497487250,-26,-8,6,-90,-39,-6,-9,-2
1523147497510181,31,-9,-24,-69,-38,-1,5,-10
1523147497510181,-52,-2,-18,104,21,-3,-3,13
1523147497510555,29,10,13,74,0,-7,0,-5
1523147497510555,-14,-3,19,6,25,14,1,-15
1523147497524590,-14,-5,-9,-80,-4,-6,-5,5
1523147497524590,15,-18,-18,-57,-23,-1,-1,-3
1523147497525093,1,14,11,36,16,3,-1,-5
1523147497525093,-23,-16,0,108,14,-2,-1,-2
1523147497546846,-22,-3,-8,23,-22,-4,3,6
1523147497546846,-30,37,0,-31,-13,-1,2,-12
1523147497547849,2,-22,-2,9,0,-5,-7,-16
1523147497547849,-10,-11,17,51,11,0,-2,-5
1523147497570212,-10,-2,-21,16,7,-4,-4,13
1523147497570212,-31,-2,4,3,-2,-2,2,-18
1523147497570715,53,29,-2,0,4,5,2,20
1523147497570715,-21,-3,16,-8,0,-3,-2,-21
1523147497584250,36,15,9,-35,16,1,1,8
1523147497584250,-10,-16,-17,60,-20,-14,-8,3
1523147497585376,18,5,5,7,11,7,9,6
1523147497585376,20,-12,-17,-11,-7,-2,-1,6
1523147497607106,-13,-1,18,43,22,7,4,1
1523147497607106,11,-2,0,-8,12,6,0,9
1523147497607610,-28,-14,-34,-119,-61,-19,-12,-31
1523147497607610,14,17,-2,95,13,-1,-1,30
1523147497630284,-12,-10,10,58,9,4,-1,-9
1523147497630284,11,-2,22,-3,7,0,0,8
1523147497630671,-11,-7,-10,40,-13,2,4,-13
1523147497630671,-14,-4,-17,-56,-9,-1,-3,-2
1523147497644434,9,0,2,-12,-7,-5,-5,5
1523147497644434,14,7,-1,-27,-4,3,-2,9
1523147497644708,-29,-17,14,53,15,-3,-2,-14
1523147497644708,12,9,4,-5,-4,-2,0,-3
1523147497666994,6,-8,-12,28,11,-1,1,51
1523147497666994,-12,4,9,17,2,1,0,-11
1523147497667268,56,4,8,14,5,1,3,7
1523147497667268,3,-2,16,50,12,3,-6,0
1523147497690045,-7,-5,-23,-86,-32,-9,-1,-12
1523147497690045,-24,-14,-3,18,13,-2,-6,-16
1523147497690831,-11,-47,-6,14,4,4,4,18
1523147497690831,-34,16,11,-9,-5,-4,0,0
1523147497704377,10,1,2,-2,5,3,1,-10
1523147497704377,4,-15,-6,-7,-8,-3,0,0
1523147497704869,-31,16,1,-6,3,-1,-3,-19
1523147497704869,-37,-13,-10,-41,-14,-1,0,-8
1523147497727019,-18,-4,6,72,18,2,-1,-8
1523147497727019,2,11,-4,33,-9,-6,-2,4
1523147497727428,-3,-1,9,12,9,2,-2,-13
1523147497727428,24,-11,-24,-34,-9,-3,-3,33
1523147497749989,-3,5,23,19,2,4,-5,-18
1523147497749989,32,7,0,-26,-10,-4,-2,12
1523147497750491,4,-9,9,-1,8,2,4,-2
1523147497750491,-22,-10,-8,-13,-3,-3,-5,9
1523147497764194,-22,31,-11,-12,-3,-2,-2,-8
1523147497764194,28,-29,3,-4,4,4,7,4
1523147497771546,-74,-34,-24,-10,-11,-7,-19,-14
1523147497771546,14,-10,-12,-26,-2,-3,3,6
1523147497786741,23,24,5,1,2,-1,2,-18
1523147497786741,-23,-6,-11,-29,-14,-8,-8,10
1523147497787589,-53,1,-5,9,4,2,7,-11
1523147497787589,21,-18,-16,-11,-6,-4,0,-3
1523147497810176,43,-20,-8,3,5,-2,-1,-10
1523147497810176,-25,27,9,6,4,7,10,-8
1523147497810650,30,27,19,-6,-2,-2,-14,85
1523147497810650,-50,-10,-3,-1,3,-1,3,-94
1523147497824255,-14,-72,-17,-2,-3,-3,-6,-32
1523147497824255,21,30,-3,-4,-1,0,-1,28
1523147497831705,106,44,1,-29,3,1,0,3
1523147497831705,-15,-10,28,57,9,5,9,-50
1523147497846902,-2,26,-2,-43,-16,-5,-15,47
1523147497846902,-23,-21,1,3,-5,-1,0,-7
1523147497847247,2,6,-6,-10,4,-1,4,-10
1523147497847247,4,20,-8,-6,-4,-1,-2,24
1523147497870011,1,2,2,101,14,2,7,-5
1523147497870011,0,-19,-19,-82,-40,-9,-8,-10
1523147497871017,2,5,-1,24,1,-1,-3,-2
1523147497871017,24,-5,13,-9,0,-2,3,13
1523147497884394,-50,-7,12,18,6,-4,-5,-8
1523147497884394,4,1,-5,-9,8,4,-2,10
1523147497884896,-48,-9,0,-5,-2,1,10,-22
1523147497884896,-24,1,-9,63,13,0,-7,-27
1523147497906963,10,-5,-22,-70,-37,-4,-9,-7
1523147497906963,-5,0,7,87,8,-7,-4,-8
1523147497907455,7,0,-2,36,7,3,0,-16
1523147497907455,25,-6,13,-1,-3,7,-4,31
1523147497930167,0,17,-17,-54,-11,-10,2,25
1523147497930167,17,-41,5,18,12,4,11,24
1523147497930518,-21,-3,-21,-2,-4,-3,-10,-22
1523147497930518,3,13,-12,-54,-15,-8,-6,8
1523147497943726,-12,1,22,88,3,5,7,-2
1523147497943726,-7,1,-23,7,-23,-8,-5,-10
1523147497951728,2,-12,6,29,14,2,3,1
1523147497951728,8,0,19,97,24,6,3,3
1523147497966650,14,8,-32,-76,-40,-8,-2,2
1523147497966650,-45,-24,4,69,9,-4,-12,23
1523147497967615,4,4,-16,12,-5,-1,1,-5
1523147497967615,-19,-10,6,44,-1,4,0,3
1523147497989908,-8,-13,-10,-15,-10,-10,-1,-1
1523147497989908,7,8,2,38,6,1,5,-16
1523147497990677,9,-6,6,-20,-2,2,2,1
1523147497990677,13,12,8,-90,-6,-1,-1,0
1523147498003710,-3,-17,-2,96,25,2,-10,20
1523147498003710,32,8,12,-4,-9,-1,-1,8
1523147498011967,41,-3,-9,88,4,-6,-5,-1
1523147498011967,23,10,-10,14,9,0,2,-2
1523147498027005,-17,-10,3,-101,-23,-3,7,-20
1523147498027005,1,8,2,67,15,1,-14,-13
1523147498027274,-12,9,22,-33,-1,3,6,-6
1523147498027274,9,-3,-20,67,-19,-8,-9,2
1523147498049834,-4,9,-4,70,18,3,9,-2
1523147498049834,3,9,17,-24,4,3,0,-17
1523147498050836,-58,-8,4,12,-8,3,3,2
1523147498050836,4,-6,-8,-2,-5,-9,-7,-1
1523147498063923,-21,9,19,36,15,3,2,-8
1523147498063923,-7,5,4,-15,9,9,7,-14
1523147498072077,0,-9,9,-16,-14,-6,-6,1
1523147498072077,2,1,-9,-86,-17,-6,-1,5
1523147498086670,-1,-6,3,-38,3,2,-2,2
1523147498086670,7,2,-12,8,-3,-3,0,1
1523147498087434,-2,-3,-4,-8,-1,-6,-4,-1
1523147498087434,-7,4,4,67,9,2,-2,-3
1523147498110697,33,2,6,-9,-6,5,11,21
1523147498110697,9,8,-11,-14,-4,2,-2,4
1523147498110997,13,6,0,17,1,-1,2,10
1523147498110997,37,8,0,40,11,-3,4,-3
1523147498123764,-12,-6,4,-3,-11,-2,-9,-6
1523147498123764,-4,0,-6,7,1,1,-2,-16
1523147498139155,-6,29,10,14,4,1,2,3
1523147498139155,5,24,24,16,6,5,8,28
1523147498146593,-7,-9,-13,-44,5,0,-3,-28
1523147498146593,-4,-9,0,-26,-9,-11,-7,21
1523147498147631,3,-13,-2,13,0,3,3,-1
1523147498147631,-46,-6,4,-22,-4,-2,-2,-7
1523147498170248,26,11,15,30,9,4,0,0
1523147498170248,-12,2,2,101,4,0,-1,-11
1523147498170655,6,0,-17,-72,-21,-11,-7,-5
1523147498170655,5,-6,-3,-14,0,1,1,6
1523147498192452,-8,-1,24,55,13,6,3,9
1523147498192452,-4,-16,-28,69,6,-4,-2,-10
1523147498193216,-2,-5,-2,-51,-17,-2,0,12
1523147498193216,-12,-6,-14,-21,-12,-1,6,26
1523147498206880,13,13,-2,19,6,2,-13,-42
1523147498206880,15,7,15,-5,7,2,2,1
1523147498207779,0,-2,3,16,-2,0,-2,-11
1523147498207779,-4,-15,-16,-39,-11,-7,-2,-5
1523147498230036,26,-22,-6,21,1,-4,-6,19
1523147498230036,-3,-9,11,-28,0,5,5,-3
1523147498230817,36,-8,-6,9,-2,-5,-14,-33
1523147498230817,1,-2,6,-8,-4,-2,-4,5
1523147498252606,-16,1,9,61,8,-4,1,-1
1523147498252606,0,13,-26,-123,-35,-8,-6,-4
1523147498253449,-19,0,-1,53,8,-2,1,1
1523147498253449,-16,-41,-34,39,18,8,2,-39
1523147498266644,15,12,6,8,0,0,2,11
1523147498266644,-3,4,11,-9,8,9,13,31
1523147498274571,25,26,10,11,-2,-4,-6,-8
1523147498274571,-53,-5,-1,-12,-4,-2,-12,-42
1523147498290207,-35,-41,-27,-17,-8,-8,-2,-29
1523147498290207,-15,-52,-18,-14,-1,0,-1,-43
1523147498290474,-11,11,-5,-10,-2,-6,-18,6
1523147498290474,108,45,25,10,9,5,32,93
1523147498312707,-39,-13,0,-14,-5,1,-1,-19
1523147498312707,-67,10,10,-21,-6,-8,-17,-51
1523147498313034,82,8,-8,15,5,4,14,56
1523147498313034,-19,0,-9,-21,-13,-6,1,-21
1523147498326767,-36,-14,-3,0,4,-3,0,38
1523147498326767,47,37,7,-7,-2,0,6,6
1523147498327573,-75,-32,-2,-7,1,2,-1,23
1523147498327573,15,-1,-13,-6,1,0,-10,-22
1523147498350188,17,40,5,-9,-4,-3,0,3
1523147498350188,21,-34,-1,2,-2,-4,-10,36
1523147498350635,-9,-5,-27,-6,0,-1,2,-21
1523147498350635,-8,5,1,-7,-1,-1,-4,-27
1523147498372713,-45,-9,-3,-3,0,1,-7,-3
1523147498372713,6,24,11,-2,-7,-6,-6,-15
1523147498373194,-4,15,17,22,7,2,2,-9
1523147498373194,-31,-17,3,-39,-7,-8,-10,6
1523147498386926,11,6,-9,34,-3,3,10,-6
1523147498386926,6,32,33,-42,4,5,7,24
1523147498387733,-23,-15,-6,34,8,8,4,-12
1523147498387733,-22,-4,-18,-31,-17,-12,-14,-15
1523147498409955,21,0,11,57,3,-3,-6,19
1523147498409955,-16,-21,-3,-55,-3,1,6,3
1523147498410293,-53,-4,-6,-67,-16,-3,-2,-18
1523147498410293,26,29,2,-24,-7,-3,-1,26
1523147498432354,32,28,-10,30,27,5,0,-15
1523147498432354,-4,-19,-22,34,-21,-1,-3,33
1523147498433355,-2,6,12,15,6,-1,-1,-18
1523147498433355,-22,-24,0,78,8,5,7,-8
1523147498447035,-37,-15,-1,-29,-5,0,-2,5
1523147498447035,-11,2,4,33,11,-2,-2,-24
1523147498447392,0,-15,-2,17,19,-2,-2,3
1523147498447392,-3,-12,-10,-71,-58,-12,-10,2
1523147498470148,41,19,7,109,15,4,6,-10
1523147498470148,-12,-2,-2,2,18,1,3,6
1523147498471064,-14,-13,-32,-64,-56,-9,-4,-12
1523147498471064,4,12,11,123,29,1,5,1
1523147498492706,-11,-13,-2,-43,-12,3,-9,-18
1523147498492706,-4,-38,1,26,-1,0,-1,20
1523147498493014,22,5,24,56,35,3,2,6
1523147498493014,-15,-11,-16,-101,-26,-9,-12,-29
1523147498506750,0,-16,-18,-113,-37,-9,9,22
1523147498506750,19,29,4,71,9,-1,-6,-1
1523147498507552,18,8,13,40,8,2,-5,-14
1523147498507552,-16,-13,0,41,22,5,0,12
1523147498530112,29,20,6,-58,-12,-3,1,-5
1523147498530112,-33,5,-10,-7,-7,-1,0,-18
1523147498530613,4,1,-12,-5,-10,-7,2,3
1523147498530613,16,4,10,32,11,4,-1,3
1523147498552366,-16,-2,11,-48,5,0,2,2
1523147498552366,32,1,-21,-32,-15,0,-3,-3
1523147498553174,-31,-12,8,-8,-4,-1,-3,-8
1523147498553174,-44,4,-20,-28,22,6,7,-3
1523147498566903,-16,0,13,60,7,1,-6,2
1523147498566903,25,-50,-5,34,0,-3,2,-6
1523147498567888,26,24,2,17,4,-2,-1,18
1523147498567888,-21,3,4,-9,-2,4,2,-40
1523147498590148,-6,-1,-6,-3,-5,-4,4,-6
1523147498590148,-35,3,-10,-18,-8,-3,-10,-6
1523147498590974,24,-6,7,34,11,-1,9,25
1523147498590974,30,1,22,114,19,6,-5,22
1523147498612710,6,-1,-12,-79,-18,-4,-4,-11
1523147498612710,-16,27,-10,-9,-17,-6,0,-16
1523147498613073,-13,-15,-5,-15,-4,-2,2,-6
1523147498613073,23,24,13,-5,-1,-4,-6,25
1523147498626807,9,-17,11,64,15,2,2,11
1523147498626807,0,19,24,-73,-6,2,5,3
1523147498627851,-13,-10,-42,-22,-4,-4,-6,-7
1523147498627851,16,-2,-2,0,-3,-2,0,-3
1523147498649913,3,7,-16,26,1,0,-5,1
1523147498649913,-2,0,14,-1,4,3,5,2
1523147498650414,-1,0,20,78,11,3,-3,-4
1523147498650414,25,-2,-3,-40,-4,-4,0,-18
1523147498672706,20,7,-18,39,0,-6,-11,14
1523147498672706,3,9,-1,-9,6,1,2,-3
1523147498672974,-45,-9,6,-35,-13,-3,-2,-10
1523147498672974,21,-11,-7,74,0,-3,-6,2
1523147498686299,31,1,9,-60,5,6,8,13
1523147498686299,6,2,-2,32,4,-1,-1,4
1523147498694324,-10,8,22,56,8,10,5,9
1523147498694324,-3,-17,-31,-21,-13,-11,8,20
1523147498710092,-18,-18,13,13,5,2,-12,-5
1523147498710092,-19,-24,-8,4,-7,-8,-5,-11
1523147498710869,14,8,14,-15,-4,-2,-2,4
1523147498710869,-9,3,23,-25,-9,-1,-1,-15
1523147498732648,0,0,-13,16,4,-3,2,-2
1523147498732648,-1,3,-10,12,6,2,4,5
1523147498733467,-17,-2,6,7,-2,0,-5,4
1523147498733467,18,11,7,-27,-2,2,-3,10
1523147498747067,-39,7,4,-10,-10,-3,-2,4
1523147498747067,33,1,8,55,14,-1,0,-12
1523147498747467,17,4,-18,-95,-20,-5,2,11
1523147498747467,-5,7,1,-10,-3,-1,-11,-3
1523147498770305,-32,-19,6,31,1,0,0,4
1523147498770305,84,1,-10,3,2,1,9,10
1523147498770809,-1,-1,-4,7,5,2,-8,-10
1523147498770809,-6,12,-15,0,-2,1,5,6
1523147498792620,-3,-24,5,-9,11,2,5,-28
1523147498792620,-63,6,20,-23,-11,-1,-10,-20
1523147498793125,-48,47,16,26,11,-1,-1,-12
1523147498793125,7,-2,5,53,10,5,5,6
1523147498806958,50,-25,-38,-51,-17,-3,-3,-32
1523147498806958,-18,-74,-18,53,0,-9,13,32
1523147498807438,-29,-4,-22,-11,-21,-7,-17,-29
1523147498807438,38,40,33,12,5,-1,2,25
1523147498830230,7,43,19,-2,4,2,1,-1
1523147498830230,10,-8,3,-26,-2,2,-2,26
1523147498830498,67,-19,-1,1,2,2,7,-9
1523147498830498,-72,-43,-30,-30,-6,-5,-24,-36
1523147498852749,28,19,0,44,2,-5,1,82
1523147498852749,-19,22,7,-22,0,0,-1,-6
1523147498853058,16,5,17,54,5,1,7,-2
1523147498853058,-52,34,-18,-14,-7,-3,-3,18
1523147498866333,-8,-27,14,28,2,2,7,-36
1523147498866333,-9,-8,-15,18,1,1,-15,-18
1523147498874354,-4,14,6,-30,-6,0,1,5
1523147498874354,16,-27,-5,-7,-4,-2,4,-18
1523147498889896,-42,8,-2,8,2,2,-7,-9
1523147498889896,17,22,-4,15,5,-4,0,7
1523147498890659,21,-16,-6,-6,5,2,9,10
1523147498890659,-17,-14,13,39,6,6,2,4
1523147498912777,-1,-16,-21,-84,-34,-14,-9,-12
1523147498912777,30,14,-7,-44,-3,0,-4,-23
1523147498913220,7,-10,-3,25,0,-7,-3,16
1523147498913220,2,-6,9,-45,-2,0,3,-11
1523147498926396,4,16,-10,47,0,3,-2,11
1523147498926396,1,14,18,94,14,1,1,-10
1523147498934514,-1,-21,-38,-90,-17,-13,-12,0
1523147498934514,13,1,2,-1,-2,-4,-2,-29
1523147498949817,-8,2,12,34,11,3,2,5
1523147498949817,-68,-7,2,22,-1,11,3,-11
1523147498951050,-6,-6,2,84,11,1,1,24
1523147498951050,13,11,26,37,12,3,2,9
1523147498972616,-53,-5,-21,56,-7,-5,1,-11
1523147498972616,-6,-2,-19,46,-21,-13,-5,3
1523147498972878,-1,-4,14,88,11,4,-3,-11
1523147498972878,-3,5,5,-33,-13,-1,-1,-2
1523147498986152,-27,2,22,56,23,2,1,4
1523147498986152,9,15,-2,-53,10,-3,8,7
1523147498994649,-29,-28,-3,-73,-6,5,1,-3
1523147498994649,24,-28,11,127,23,2,-2,10
1523147499010225,17,5,5,-68,-25,-2,-3,-14
1523147499010225,-44,-32,-35,13,0,-5,-6,-2
1523147499010479,22,22,-4,-20,5,-1,1,-6
1523147499010479,-12,-10,6,27,15,10,2,4
1523147499032544,32,9,11,86,20,4,5,8
1523147499032544,-17,-5,-14,37,-36,-13,-7,-27
1523147499033514,12,-10,10,97,26,2,-2,40
1523147499033514,8,-2,-16,-38,-19,-3,-1,9
1523147499046076,57,13,16,-12,13,3,3,1
1523147499046076,16,11,19,15,23,3,-3,6
1523147499054866,35,-3,-26,-110,-38,-4,-4,-21
1523147499054866,40,4,-5,6,-1,1,7,9
1523147499069917,12,1,0,47,10,-1,-1,6
1523147499069917,-22,0,7,-24,18,2,-5,-8
1523147499071423,-17,-6,13,103,5,1,1,-26
1523147499071423,-13,-6,-25,33,-21,-13,-2,40
1523147499092723,-7,-15,-10,67,-6,-3,-5,-17
1523147499092723,16,-44,18,94,26,11,6,7
1523147499093982,-7,-2,6,106,15,2,7,14
1523147499093982,-24,-1,-9,35,-19,-5,4,-38
1523147499106257,36,40,1,-43,-4,-1,-14,35
1523147499106257,22,4,5,-27,2,0,-3,7
1523147499115037,-38,-2,-2,-68,-3,-1,0,-14
1523147499115037,-33,-20,17,45,29,6,0,-6
1523147499129847,-11,-4,-32,-125,-42,-11,-2,-8
1523147499129847,16,16,-1,-33,-24,-3,-4,-6
1523147499131630,-32,7,-7,12,-3,-1,5,56
1523147499131630,-3,17,2,-12,-1,-4,-2,7
1523147499152185,-20,-16,9,32,14,4,0,-12
1523147499152185,-1,7,-4,-56,-11,-4,-4,4
1523147499154191,-2,-1,6,6,7,3,3,-20
1523147499154191,9,4,-40,-88,-29,-6,-3,21
1523147499165721,-30,-18,0,66,1,-2,-3,-4
1523147499165721,19,11,-4,27,-10,-5,-14,3
1523147499175248,59,9,5,17,1,-1,-4,-12
1523147499175248,7,8,10,10,-4,0,-3,-14
1523147499189786,-39,-18,-21,26,4,1,10,-26
1523147499189786,-22,25,-5,8,-5,2,2,-10
1523147499191866,-18,-77,-4,-37,-1,1,3,-8
1523147499191866,40,24,-3,64,23,2,-7,1
1523147499212346,-9,-19,-8,-73,-24,-5,2,-26
1523147499212346,12,4,3,15,0,0,3,-3
1523147499213851,45,14,-7,24,10,-3,-2,6
1523147499213851,-15,-1,4,85,7,5,4,-11
1523147499234918,-3,-20,-17,-93,-30,-8,-5,-9
1523147499234918,-6,4,-3,1,2,5,4,5
1523147499236691,-3,35,8,13,-11,-3,-3,-4
1523147499236691,-3,-26,-2,-11,0,-4,-10,-9
1523147499250459,25,26,25,78,24,1,-1,2
1523147499250459,-47,-9,3,-34,-15,-4,2,10
1523147499252278,-9,9,-5,-30,-7,-1,-8,-18
1523147499252278,6,10,3,-33,1,0,5,7
1523147499272518,-6,-53,-6,31,7,-3,-20,87
1523147499272518,-40,21,-1,-7,-4,-5,-3,-18
1523147499274438,6,-20,1,4,1,-6,-3,32
1523147499274438,-5,-19,-5,-48,-7,0,-7,-18
1523147499295078,-1,10,9,-2,5,6,6,-22
1523147499295078,-35,33,5,3,4,3,1,-30
1523147499296349,-19,-25,-4,-2,-11,-4,-3,24
1523147499296349,58,-2,6,-30,-6,-4,-2,-1
1523147499310115,-3,21,13,5,9,2,8,-1
1523147499310115,15,-33,21,24,2,-2,9,-34
1523147499311389,-4,38,0,-4,-2,-2,-19,17
1523147499311389,-31,-29,-12,-8,3,-2,6,-27
1523147499332449,-58,-18,-6,16,0,2,10,27
1523147499332449,-10,-6,-15,-21,-11,-6,-17,-32
1523147499333951,-41,-38,-43,0,-1,2,6,-49
1523147499333951,-34,-34,0,28,9,-1,-1,3
1523147499355042,-57,-47,18,-5,5,4,7,-40
1523147499355042,108,53,12,17,9,7,11,22
1523147499356509,-35,-31,-2,-19,-10,0,1,-3
1523147499356509,-9,22,-11,-2,-3,-2,-4,-14
1523147499369046,-5,24,6,-9,2,-1,3,-15
1523147499369046,79,-33,21,-3,-2,1,-1,19
1523147499376121,10,6,0,8,-2,-4,-1,-4
1523147499376121,-4,24,3,-6,-2,1,4,11
1523147499392655,33,20,-4,0,-4,-3,-4,0
1523147499392655,11,-18,-18,-4,-2,-3,-3,34
1523147499394110,25,27,1,-15,-6,-2,1,1
1523147499394110,-22,-17,8,2,-8,-6,-5,-1
1523147499414666,27,18,-11,54,12,-1,-3,-1
1523147499414666,-17,-15,-16,-94,-12,2,0,13
1523147499416670,-35,-33,-4,21,-17,-6,0,-18
1523147499416670,3,16,20,35,13,3,-1,-2
1523147499429249,22,-10,-18,-63,-15,-4,-4,11
1523147499429249,-12,10,25,83,25,4,6,9
1523147499436271,-4,12,-3,-8,-14,0,2,-3
1523147499436271,42,7,-13,8,14,3,0,17
1523147499452263,-33,28,5,53,12,1,-3,-10
1523147499452263,21,-5,-20,-9,-12,-8,-3,2
1523147499453771,-49,-11,30,32,10,1,-3,-26
1523147499453771,0,-46,-1,-36,-24,-4,-3,8
1523147499474875,1,-3,5,0,12,-1,-3,3
1523147499474875,-11,6,2,48,-1,3,1,-4
1523147499476329,15,27,-27,18,-13,-1,12,-5
1523147499476329,28,18,7,0,0,-1,-5,7
1523147499488881,-20,-6,13,13,-6,-5,3,1
1523147499488881,-22,-14,-10,-52,-14,-1,-9,-4
1523147499497385,18,-34,1,-28,14,-4,1,-5
1523147499497385,-15,14,3,34,3,-1,-3,-5
1523147499512476,54,10,-14,-85,-20,-3,1,6
1523147499512476,-7,4,30,127,43,10,11,0
1523147499513928,-8,6,-26,-103,-21,1,-8,3
1523147499513928,-41,4,-5,-58,-4,-4,-1,-5
1523147499535040,-5,-13,13,7,-7,5,-3,-4
1523147499535040,-14,19,1,36,9,-7,0,5
1523147499536489,-24,27,10,-81,-34,1,-1,7
1523147499536489,2,-6,2,101,51,-3,-5,-1
1523147499549524,5,10,-6,-8,-17,-10,-2,-2
1523147499549524,-24,-18,-28,-47,-13,-8,-13,-5
1523147499556096,2,11,9,62,13,2,1,9
1523147499556096,-9,-29,0,11,-15,3,0,-9
1523147499572634,-6,1,-16,19,-17,-1,-2,-5
1523147499572634,-13,-43,10,82,30,-3,-1,-3
1523147499574089,58,0,15,44,20,4,0,69
1523147499574089,-25,10,-3,-37,-13,3,6,-11
1523147499594645,-45,-11,3,114,29,2,-5,-10
1523147499594645,-3,-14,-43,-128,-80,-16,-2,-8
1523147499596650,30,15,-3,65,10,-1,6,19
1523147499596650,3,-7,-1,51,12,3,-5,13
1523147499609232,6,-2,4,24,0,3,3,6
1523147499609232,-3,-1,5,-61,12,5,6,5
1523147499616204,-8,11,8,38,9,-5,-9,-33
1523147499616204,1,4,-11,-102,-33,-4,13,15
1523147499632247,34,3,-15,-26,1,1,-21,-16
1523147499632247,14,4,-1,21,7,2,-1,2
1523147499633751,10,-3,-13,-2,8,0,-1,-14
1523147499633751,-19,5,3,-30,-16,1,5,-6
1523147499654860,-53,-57,-4,-16,11,-2,4,-41
1523147499654860,-45,7,6,50,3,-3,-10,11
1523147499656311,35,13,14,1,7,-2,-3,11
1523147499656311,0,1,-29,-66,-39,-6,-3,-23
1523147499669342,12,16,-1,65,12,0,-1,10
1523147499669342,16,-1,0,57,3,1,-3,14
1523147499675922,-5,-6,30,31,28,10,9,-16
1523147499675922,-28,6,-44,40,-20,-17,-8,-15
1523147499692463,-4,6,-3,-34,-9,3,-8,3
1523147499692463,3,-11,2,1,6,3,6,38
1523147499693911,14,14,21,41,0,1,1,4
1523147499693911,6,3,15,39,2,0,-1,-4
1523147499714962,-2,13,1,9,8,0,8,35
1523147499714962,-19,-10,-3,5,1,1,3,-37
1523147499716468,-2,-14,-14,-29,-13,-8,-7,1
1523147499716468,-54,-9,-3,22,6,3,-1,6
1523147499728559,20,1,-6,-60,-15,-5,2,-5
1523147499728559,3,1,1,-1,-2,-1,-7,-4
1523147499737523,-10,1,-18,-24,-9,0,3,-12
1523147499737523,63,-1,5,34,18,2,-6,8
1523147499752613,19,-52,-13,30,4,-1,1,15
1523147499752613,-27,6,1,-80,-14,-3,0,-12
1523147499754068,-11,13,-6,-2,-29,0,0,-21
1523147499754068,26,-8,-5,98,26,-8,-2,-15
1523147499775127,-13,26,-10,1,-5,-3,-10,6
1523147499775127,32,6,3,5,-2,-2,-3,0
1523147499776629,-16,-4,7,47,15,0,2,1
1523147499776629,7,6,-1,-128,-16,1,-1,-4
1523147499788660,-11,6,6,18,-10,-5,2,-24
1523147499788660,20,31,13,-1,12,4,14,7
1523147499805204,29,30,4,-18,-8,-3,-13,-15
1523147499805204,-77,-10,4,4,4,4,2,-19
1523147499812372,-20,-4,12,-4,0,-2,1,17
1523147499812372,16,-38,-15,14,-2,2,5,14
1523147499814229,-12,18,-4,-8,5,-1,-5,4
1523147499814229,40,-3,7,-13,-3,-1,-1,19
1523147499834927,10,10,1,0,-2,-3,-4,-12
1523147499834927,27,-3,-1,28,2,3,2,-9
1523147499836285,-26,3,-4,-19,-5,-4,18,11
1523147499836285,40,36,14,18,4,-3,-14,-31
1523147499848317,-17,2,11,-5,-3,3,13,-9
1523147499848317,45,45,-21,-9,-13,-5,-12,32
1523147499857342,-17,-22,-4,-8,-2,-3,-4,33
1523147499857342,16,20,1,-4,-3,-3,-13,6
1523147499872497,-11,-21,17,2,3,1,4,10
1523147499872497,54,50,24,4,7,0,4,-3
1523147499873885,-84,-24,-25,-12,-10,-8,-18,-51
1523147499873885,-18,-17,-8,-3,-6,-3,-1,-2
1523147499895030,-5,-6,-12,-12,-7,-6,-5,23
1523147499895030,23,-2,8,7,2,-3,-4,-3
1523147499896448,20,-30,36,20,10,7,10,12
1523147499896448,-27,2,-8,-9,2,3,-9,-13
1523147499908534,45,41,-8,-10,-7,-6,-4,-16
1523147499908534,-36,-33,14,-45,-19,-3,-1,-7
1523147499917504,10,-1,16,68,20,-1,-5,-21
1523147499917504,-20,2,-29,3,-3,1,9,-10
1523147499932612,42,-15,15,27,13,12,8,22
1523147499932612,-37,-2,-3,15,3,1,-6,-27
1523147499934049,-3,11,-24,-79,-25,-5,-3,19
1523147499934049,7,-4,9,20,12,4,8,13
1523147499955138,-10,21,-11,-25,-11,-13,-4,11
1523147499955138,-62,-9,-19,23,-2,-3,-7,-35
1523147499956606,1,-10,2,84,20,3,-6,-21
1523147499956606,20,-4,-1,-1,-20,-7,-1,-4
1523147499968677,-21,17,-10,-62,-4,4,4,6
1523147499968677,-1,-6,8,83,18,-7,-7,2
1523147499977661,35,5,1,-56,-34,-2,6,4
1523147499977661,-25,-18,-11,110,34,6,2,18
1523147499992309,7,2,-13,-22,-37,0,5,-10
1523147499992309,-1,0,-14,68,-5,-2,-1,1
1523147499993706,4,8,3,-29,12,-2,-4,12
1523147499993706,36,-12,18,-10,-2,0,5,-1
1523147500014760,-6,-5,-9,-27,-14,-8,-12,-13
1523147500014760,-82,-19,2,-19,-2,6,15,-21
1523147500016800,43,-46,-44,-11,-15,-16,-23,-10
1523147500016800,-11,5,13,42,6,-3,-4,10
1523147500028836,-29,12,-11,-46,-3,-1,-5,-14
1523147500028836,2,-16,18,75,16,4,6,27
1523147500037321,1,33,13,-23,-5,6,11,-4
1523147500037321,11,14,12,-28,-8,-2,-1,-4
1523147500052616,38,-11,-2,31,28,-4,-6,31
1523147500052616,-14,6,-17,-11,-12,-2,-1,6
1523147500054041,-9,15,-7,-14,0,0,-1,-7
1523147500054041,17,-3,12,20,4,5,2,31
1523147500082616,19,-3,14,-21,-12,0,0,-12
1523147500082616,7,0,-12,-14,2,-3,-1,1
1523147500084145,9,-10,-1,11,7,2,0,4
1523147500084145,12,-19,15,20,-5,-3,-3,-3
1523147500088747,11,3,17,124,25,2,-3,-10
1523147500088747,-4,-25,-21,-128,-39,-5,-6,-2
1523147500097657,0,-9,-3,80,5,3,3,-6
1523147500097657,-10,1,1,-56,-14,-4,1,20
1523147500112193,-23,-43,1,48,9,4,10,13
1523147500112193,25,31,-1,-75,-8,0,-11,-10
1523147500113698,-16,5,6,97,20,3,-2,-5
1523147500113698,6,12,-15,-23,3,-1,4,-20
1523147500135254,-40,-23,1,69,1,0,-1,25
1523147500135254,-6,1,-11,-48,-5,-2,2,1
1523147500136824,-65,-7,-1,-10,-3,0,4,-10
1523147500136824,-6,6,0,-9,-8,-2,-2,-11
1523147500157553,18,13,8,56,14,4,-1,-7
1523147500157553,1,-10,-1,35,3,-1,0,-11
1523147500158817,-27,-2,-29,-21,-10,-6,-5,8
1523147500158817,-7,9,-1,33,7,2,-7,0
1523147500172593,10,-12,10,-31,0,5,-1,-17
1523147500172593,-1,-11,9,125,7,-1,2,-2
1523147500173857,5,-7,6,17,-3,-1,-1,8
1523147500173857,-10,20,-5,-21,-8,-3,1,11
1523147500194914,15,18,0,8,14,6,1,-10
1523147500194914,1,-13,-7,73,0,-1,-2,3
1523147500196418,6,-17,-10,68,-2,-8,-2,-3
1523147500196418,-27,-6,8,81,10,2,4,29
1523147500217713,42,21,-12,-31,-17,-10,-9,-20
1523147500217713,13,-11,27,23,13,8,1,2
1523147500218977,4,11,9,8,9,-1,0,5
1523147500218977,-29,-25,-17,-29,-14,-1,1,-20
1523147500231750,-30,13,0,-4,5,-4,-2,2
1523147500231750,1,13,-6,-57,-4,1,-3,4
1523147500238530,19,7,11,-20,-2,2,0,-8
1523147500238530,-18,-12,-19,-62,-9,-3,-3,-5
1523147500254806,-39,-17,-22,-27,-13,-4,-1,-21
1523147500254806,19,5,8,9,2,-2,-6,-3
1523147500256578,-14,10,5,-34,-6,-2,0,-7
1523147500256578,-30,0,-3,14,3,-3,-2,-2
1523147500277372,37,13,-2,-6,-8,-1,8,4
1523147500277372,2,-25,-8,-17,-3,-6,-7,2
1523147500279137,-1,27,-8,-15,7,3,0,-18
1523147500279137,29,-26,6,-3,-4,0,-2,28
1523147500292673,-52,-7,-3,5,-4,-1,9,-28
1523147500292673,69,-5,18,-4,2,-1,-10,-10
1523147500294376,66,21,7,-11,-5,2,2,32
1523147500294376,-67,-49,-17,-6,-5,-7,-6,-46
1523147500314732,-1,-9,-1,4,-1,-2,-4,-23
1523147500314732,-3,-9,-1,15,4,0,5,28
1523147500316236,32,13,-33,-12,-7,-4,-3,-3
1523147500316236,-15,51,-6,-21,-8,-5,-5,-8
1523147500337793,3,2,28,4,-3,-4,-9,-11
1523147500337793,-14,-16,12,-1,-3,-2,0,-2
1523147500339309,30,0,-16,-14,0,1,3,11
1523147500339309,-39,25,3,0,1,-1,-3,-12
1523147500351832,20,1,-6,-9,-8,-6,-8,10
1523147500351832,20,48,-21,-27,-6,-2,2,2
1523147500359853,-28,-48,5,11,0,0,4,19
1523147500359853,34,-24,9,13,7,6,4,23
1523147500374892,-19,-24,-4,16,6,1,1,5
1523147500374892,-14,26,0,16,4,3,-4,-16
1523147500376396,-34,-37,15,35,1,-2,6,18
1523147500376396,71,-4,-36,-31,-18,-12,-9,-8
1523147500397693,19,-3,-16,10,0,-2,-4,4
1523147500397693,-10,-5,22,53,11,1,6,13
1523147500398956,-19,33,4,3,3,0,-5,-32
1523147500398956,4,-6,8,-43,-15,-1,-1,-6
1523147500412075,-5,12,-9,13,9,2,0,14
1523147500412075,-61,-13,-12,82,5,-1,-3,-12
1523147500418508,-18,-11,9,88,-8,-6,-9,-13
1523147500418508,49,20,24,67,18,8,10,25
1523147500434793,-13,-5,-13,5,-10,-2,-3,2
1523147500434793,-45,-1,-2,-3,7,-4,-9,-18
1523147500436557,7,-5,5,-70,9,4,0,-7
1523147500436557,9,5,-10,8,-33,-5,-1,3
1523147500457777,14,5,20,127,54,7,3,6
1523147500457777,9,-1,-17,-118,-34,-7,1,1
1523147500459326,4,-11,1,42,-13,-3,-1,-1
1523147500459326,16,44,-13,-82,-13,-7,-7,-12
1523147500471650,27,0,5,54,-1,2,1,-7
1523147500471650,-1,-8,1,-55,-20,-9,1,36
1523147500478885,-49,3,15,-21,5,6,-2,-14
1523147500478885,-47,2,-2,-18,1,-2,-6,11
1523147500494955,-12,-13,-16,28,13,2,-2,-17
1523147500494955,20,-5,-21,-42,-1,-2,0,-2
1523147500496215,5,9,16,25,-1,4,3,-1
1523147500496215,9,-19,14,11,14,3,-1,-2
1523147500517510,-3,2,-2,-63,-12,-4,-2,4
1523147500517510,-2,8,2,73,13,3,2,-1
1523147500519083,16,-7,1,4,6,1,2,7
1523147500519083,3,-18,9,15,-5,1,2,-8
1523147500531895,10,5,-1,-47,-17,-5,0,7
1523147500531895,-6,-1,5,90,6,3,3,-8
1523147500538654,4,0,-10,26,-8,-2,-2,0
1523147500538654,0,-15,-30,-58,-34,-6,-4,-10
1523147500554959,-52,-7,2,96,5,2,3,1
1523147500554959,53,21,5,37,2,-4,-4,0
1523147500556463,-48,-1,-12,-80,-7,-3,-4,-11
1523147500556463,12,-4,18,38,22,4,1,-1
1523147500577518,5,15,-7,-57,-15,-5,-2,7
1523147500577518,-6,-8,-5,-29,-4,4,2,-35
1523147500579022,21,8,-1,4,7,-7,-4,48
1523147500579022,6,-7,11,11,7,5,-4,-21
1523147500591762,14,39,2,-4,3,-6,-3,-2
1523147500591762,3,17,9,-40,-17,1,-3,-3
1523147500598809,3,-8,-12,-65,-28,-9,-5,-15
1523147500598809,-18,-15,-15,44,17,-2,4,9
1523147500615120,49,4,10,-4,-2,0,-3,-2
1523147500615120,-47,-2,7,18,9,1,2,4
1523147500616646,2,3,-11,31,7,-2,-2,-12
1523147500616646,-20,-1,2,-41,-9,2,1,7
1523147500637412,2,-24,5,2,-10,0,2,-2
1523147500637412,28,-14,3,6,15,2,3,14
1523147500639183,7,-6,-9,-18,-2,2,-5,0
1523147500639183,23,10,16,61,17,1,2,4
1523147500651214,18,-60,-6,-38,-7,0,-1,-10
1523147500651214,5,21,-6,-26,-15,-6,-2,18
1523147500660373,-8,-6,9,35,9,2,3,-14
1523147500660373,20,-10,6,20,3,0,4,-6
1523147500674998,0,-2,12,53,4,3,2,-2
1523147500674998,5,0,-24,-74,-17,-4,-2,1
1523147500676802,-61,-17,-12,-44,-4,-9,-9,-15
1523147500676802,-30,-1,3,19,3,9,7,-21
1523147500697345,40,53,-12,-20,-5,-4,4,20
1523147500697345,-7,-10,8,126,15,4,-2,-8
1523147500698843,12,6,-2,30,-18,-2,3,6
1523147500698843,-3,-3,-22,53,10,-6,-6,-14
1523147500711115,-24,8,14,-8,-8,-3,2,17
1523147500711115,11,-34,12,12,7,0,-5,-8
1523147500719898,19,1,-10,-51,-8,-3,-3,-30
1523147500719898,18,11,3,53,6,1,7,31
1523147500735177,-41,-14,0,-28,-7,-1,-13,-18
1523147500735177,-5,-17,-5,22,6,-5,-1,8
1523147500736442,-11,-11,8,5,6,3,-3,-8
1523147500736442,21,35,-5,-21,-14,-6,-2,33
1523147500757775,47,7,-11,-11,8,-2,2,16
1523147500757775,13,3,-11,-46,-16,-7,-8,-27
1523147500759294,13,4,4,3,6,-1,-2,11
1523147500759294,-34,-20,-5,1,1,4,7,-14
1523147500771377,8,31,-6,-8,-5,1,-4,15
1523147500771377,-31,-9,12,-12,-4,-3,0,7
1523147500779833,23,22,25,10,0,-1,2,5
1523147500779833,44,-25,-10,-16,-1,-2,-5,7
1523147500795105,-15,8,8,-10,-10,-4,-4,22
1523147500795105,-39,16,-52,-17,1,2,0,-35
1523147500796374,-15,-4,-5,-4,1,-2,3,-2
1523147500796374,34,71,43,4,3,0,-5,-24
1523147500817477,9,-22,-18,-17,-6,0,5,25
1523147500817477,5,-21,16,-8,1,0,-1,7
1523147500818936,-4,-20,9,12,8,0,-1,-4
1523147500818936,-40,-11,-38,3,0,1,5,6
1523147500830973,20,-22,-3,-9,-3,-2,-2,-23
1523147500830973,-11,53,23,6,5,0,-1,1
1523147500839999,39,-4,7,9,1,0,1,-8
1523147500839999,-35,33,21,-9,0,-3,3,-32
1523147500855078,-34,-40,-3,2,3,2,-9,7
1523147500855078,18,-3,-38,14,-6,1,4,8
1523147500856536,-82,-29,-17,-22,-2,-2,-7,-8
1523147500856536,27,46,13,-46,-10,-3,1,8
1523147500885111,-38,18,3,-7,-5,-5,-3,-15
1523147500885111,21,3,-11,14,-2,-6,0,16
1523147500886616,-15,26,-1,20,3,3,6,3
1523147500886616,-71,-73,-81,-26,-6,-9,-17,-1
1523147500891185,50,3,30,0,-4,-7,-7,-34
1523147500891185,11,-9,2,-5,0,1,1,6
1523147500900151,52,19,4,10,-5,4,4,22
1523147500900151,2,-20,-1,75,22,2,2,4
1523147500914692,2,-11,-25,-65,-17,2,1,-47
1523147500914692,-13,30,-12,-33,-18,-10,-3,20
1523147500916694,38,-12,-5,17,11,6,0,17
1523147500916694,28,-6,42,126,35,7,3,4
1523147500937309,-20,-6,-21,-56,-28,-5,-1,-17
1523147500937309,-8,-7,10,62,-8,-5,-5,-31
1523147500938755,3,-12,-6,-20,-12,-5,3,28
1523147500938755,18,1,25,76,19,1,-13,0
1523147500951285,-47,-6,-13,-44,-17,-1,2,9
1523147500951285,-4,0,5,37,7,2,4,-2
1523147500959810,3,5,-4,12,-4,0,1,-6
1523147500959810,18,-5,6,72,5,-4,-3,0
1523147500974913,-14,-15,-16,-45,-1,-5,-3,12
1523147500974913,6,-5,1,3,-3,-1,-5,2
1523147500976353,-13,-9,3,-17,0,-1,-4,-20
1523147500976353,-11,2,5,-84,-19,-1,-1,2
1523147500997410,9,17,11,64,9,2,0,3
1523147500997410,-17,-20,-1,1,1,6,6,0
1523147500998913,-9,8,-11,111,12,-9,-6,-6
1523147500998913,9,-1,-12,-39,-16,-4,-1,-11
1523147501011010,27,24,13,68,11,3,1,31
1523147501011010,-7,-10,26,-29,3,2,1,-2
1523147501019969,8,25,11,18,6,-1,-1,-7
1523147501019969,3,-7,-38,-58,-32,-7,-3,2
1523147501035071,-8,-30,-6,15,8,4,4,-9
1523147501035071,6,-9,16,56,26,3,5,-3
1523147501036514,4,-22,-22,-83,-18,-7,-9,1
1523147501036514,-52,-34,16,-3,9,1,-1,22
1523147501057596,17,14,14,74,4,-1,4,10
1523147501057596,-4,-11,-7,-67,-32,-7,-7,-1
1523147501059076,-17,11,0,63,4,2,0,-1
1523147501059076,5,7,1,-28,-6,0,2,-4
1523147501071106,-16,-8,1,10,9,2,0,-9
1523147501071106,-3,0,-5,-4,3,-2,-6,8
1523147501080130,36,5,13,37,3,1,3,5
1523147501080130,-2,17,-4,-55,-10,1,0,-11
1523147501094742,-4,16,0,29,9,1,-3,0
1523147501094742,4,-3,5,26,5,-1,0,-9
1523147501096723,-6,-4,0,-26,-4,-2,-1,-4
1523147501096723,26,2,-2,-2,-2,-2,1,-1
1523147501117289,-13,-4,-7,-7,3,-2,-2,0
1523147501117289,30,-7,-7,-23,-3,1,0,7
1523147501119233,32,-13,5,2,7,5,3,1
1523147501119233,-7,23,21,71,-7,2,1,2
1523147501139855,15,-12,-36,30,-10,-7,-3,-43
1523147501139855,-26,18,9,22,2,-3,-10,31
1523147501141293,16,16,5,-10,-7,-2,-1,-2
1523147501141293,4,-17,4,19,15,4,3,-2
1523147501154898,-26,16,7,3,3,-1,0,-9
1523147501154898,0,19,-16,-87,-14,-6,0,-9
1523147501156332,-16,12,-27,-21,4,-1,-3,-5
1523147501156332,-10,0,11,27,5,-1,-3,4
1523147501177448,-12,-16,-7,3,-17,-6,-6,2
1523147501177448,5,-9,1,19,9,-1,-1,-5
1523147501178892,36,14,2,-10,-6,2,2,9
1523147501178892,-1,11,5,42,15,4,-2,-2
1523147501200006,-23,-18,-22,-90,-29,-6,-6,7
1523147501200006,8,-2,-4,60,5,-3,-3,-26
1523147501201452,-22,-17,8,25,-3,0,1,5
1523147501201452,-1,9,-1,-20,-11,-5,-2,-1
1523147501214989,28,18,25,36,18,6,4,15
1523147501214989,-39,-33,-8,-19,-5,-1,0,-16
1523147501216492,-20,-30,-2,-9,-6,-2,-1,19
1523147501216492,1,-19,-15,-6,0,-4,-1,-5
1523147501237658,-3,4,7,-40,-3,2,3,11
1523147501237658,0,-4,-19,-1,4,3,1,-4
1523147501239168,-14,5,5,18,3,-1,-1,-9
1523147501239168,17,-27,4,-16,-5,-1,0,6
1523147501259780,30,27,-2,-22,1,-2,-5,-9
1523147501259780,21,8,-2,17,-3,1,-3,14
1523147501261726,-4,-7,-6,-7,-5,-3,-4,-6
1523147501261726,4,12,0,-45,-11,-2,-1,2
1523147501274323,-16,-16,-8,-5,7,3,2,-18
1523147501274323,24,14,13,10,5,1,2,8
1523147501280805,-5,7,2,2,-4,-3,0,-4
1523147501280805,-6,-8,-4,-6,-1,-1,1,-10
1523147501297512,-18,-3,18,39,8,-1,-4,9
1523147501297512,-25,-11,-6,-15,1,3,4,-12
1523147501298948,-2,-18,-12,1,7,6,8,17
1523147501298948,-23,40,13,-2,-6,-5,0,21
1523147501320062,-11,-13,6,6,-1,-2,4,-2
1523147501320062,-98,-16,11,6,6,2,4,4
1523147501321508,-32,14,-8,-14,-8,-2,-9,-32
1523147501321508,17,16,-38,-13,-8,-7,-4,12
1523147501334101,63,24,13,8,4,4,8,1
1523147501334101,22,34,19,-4,1,0,-1,2
1523147501341119,34,16,16,5,3,-2,6,33
1523147501341119,-32,-20,6,-1,-5,-2,-8,-30
1523147501357629,18,29,-6,6,0,-4,-5,23
1523147501357629,18,-6,2,-7,-2,-3,1,0
1523147501359108,-22,-4,-15,-15,2,1,-7,-17
1523147501359108,1,-45,24,6,-3,-5,-5,-3
1523147501379662,-34,-24,8,41,3,0,-8,-9
1523147501379662,92,24,28,14,0,3,4,23
1523147501381667,-72,12,2,-11,-4,-3,-1,-11
1523147501381667,-75,-15,-28,-8,-4,-6,-6,-35
1523147501394274,-1,-9,13,41,13,3,-1,-5
1523147501394274,-3,-14,-11,-47,-6,-5,-5,-8
1523147501401248,35,5,10,23,-9,-2,1,-2
1523147501401248,60,42,3,-3,-3,-1,2,11
1523147501417331,-4,-40,3,68,33,3,-1,-1
1523147501417331,-13,-14,-44,-87,-57,-12,-10,-8
1523147501418769,15,-11,7,97,1,-4,-1,5
1523147501418769,-11,-7,-14,-32,-13,-3,-1,0
1523147501439823,-7,-1,20,77,41,8,3,4
1523147501439823,-11,-4,-31,-23,-46,-12,-4,-2
1523147501441329,4,-8,0,66,11,-1,-3,-6
1523147501441329,4,-14,6,-28,-16,1,-2,-2
1523147501454480,-21,7,-2,82,5,2,-1,-5
1523147501454480,36,0,22,127,50,10,4,3
1523147501461062,-10,-21,-46,-19,-49,-18,-9,-8
1523147501461062,12,-2,2,71,23,4,10,5
1523147501477579,2,-63,-2,8,-14,3,1,5
1523147501477579,-9,31,15,-48,9,-3,0,-6
1523147501479042,-6,-12,-9,-68,-10,-1,-9,8
1523147501479042,11,5,-7,-24,11,3,5,-8
1523147501500098,-41,5,-12,-39,-18,-7,2,6
1523147501500098,-11,3,0,-28,7,4,-1,-1
1523147501501604,-1,-6,7,51,20,0,-6,-21
1523147501501604,6,-5,-5,-67,-19,-4,-1,0
1523147501514136,-17,15,-9,-28,-4,-2,3,0
1523147501514136,0,-30,0,51,20,8,4,3
1523147501521214,-11,14,4,-120,-17,-1,0,-1
1523147501521214,-22,-9,-3,81,3,-3,-5,6
1523147501537256,20,10,2,11,-15,-3,-3,0
1523147501537256,11,-10,-2,-11,-2,-1,0,6
1523147501539205,11,3,9,-9,16,3,3,-2
1523147501539205,12,14,6,12,-1,-3,-1,-3
1523147501559816,2,-36,-5,-50,-12,-7,-8,-5
1523147501559816,-17,4,-8,-9,-5,-2,-5,-4
1523147501561263,5,-7,21,110,21,10,7,3
1523147501561263,21,1,-9,-38,-6,-5,-6,-25
1523147501574357,6,26,-4,1,-7,0,-2,8
1523147501574357,-2,30,36,127,37,6,4,4
1523147501580813,-8,-33,-39,66,-20,-13,-9,-4
1523147501580813,-24,-17,7,62,14,10,5,-8
1523147501597416,-8,13,-9,-25,-20,-8,-3,5
1523147501597416,3,-9,3,19,16,5,0,2
1523147501598861,-22,38,13,-49,4,2,5,-2
1523147501598861,35,-7,-12,-76,-9,-2,-8,3
1523147501619976,-7,-7,-7,-30,-4,-3,-1,-4
1523147501619976,1,0,-29,-36,-7,-4,0,7
1523147501621422,-10,-3,11,10,8,5,1,4
1523147501621422,5,-7,-3,10,-9,-1,-1,10
1523147501633523,6,-7,-3,-37,4,2,0,-3
1523147501633523,-25,-21,-8,43,-6,0,2,-7
1523147501642594,31,-14,-19,-60,-17,-3,4,-13
1523147501642594,16,42,8,45,17,3,-4,-3
1523147501657190,22,2,24,1,2,3,4,24
1523147501657190,-18,-9,8,-30,-4,-3,-4,-3
1523147501659140,-6,-8,-5,13,4,1,1,-10
1523147501659140,-8,-11,4,-8,1,0,-1,7
1523147501679694,2,25,-10,-23,1,4,8,-8
1523147501679694,15,2,-2,-15,-7,-5,-7,-5
1523147501681698,-49,-3,7,-28,2,-2,-5,12
1523147501681698,-11,-5,1,-39,-8,-4,-3,-3
1523147501693399,-7,7,0,37,5,4,0,-28
1523147501693399,-21,-10,-6,33,3,-4,0,9
1523147501702363,21,11,19,-24,-2,1,0,-6
1523147501702363,-14,-18,-3,32,3,1,2,5
1523147501717473,-24,-4,-6,-12,-17,-8,-2,-13
1523147501717473,5,8,-2,6,2,-3,-3,-10
1523147501718909,-12,2,3,42,5,2,0,4
1523147501718909,-10,-6,0,-6,4,-2,1,-4
1523147501747485,1,7,3,3,0,-4,-9,18
1523147501747485,-32,-31,-25,-49,-19,-6,-5,-7
1523147501748988,11,-28,-5,34,2,1,0,3
1523147501748988,-8,-5,7,-8,-4,0,3,23
1523147501753568,-3,10,-4,-21,5,-3,2,-7
1523147501753568,35,-5,-4,8,-6,3,3,12
1523147501762525,13,-4,13,-21,4,4,11,-9
1523147501762525,-43,-13,14,40,6,1,-16,-41
1523147501777573,67,41,-26,5,-7,-3,-1,44
1523147501777573,5,30,-2,-19,-10,-10,-5,-4
1523147501779068,10,-34,-9,-18,0,-1,1,12
1523147501779068,39,-15,-14,3,-10,-1,4,-3
1523147501800123,-80,-24,1,6,-1,-4,-11,-33
1523147501800123,-21,-9,-19,-5,3,2,-4,-13
1523147501801631,-63,14,-5,-6,4,2,-3,-20
1523147501801631,78,12,1,1,-8,-6,1,36
1523147501813660,-32,-29,-25,-5,-4,-3,4,-11
1523147501813660,-43,6,4,4,-1,1,-6,-11
1523147501822684,-2,-17,11,3,3,0,2,-3
1523147501822684,-21,16,19,15,8,5,6,-42
1523147501837281,-12,0,1,-5,3,4,3,12
1523147501837281,47,45,-2,-5,-4,-3,-2,7
1523147501838727,46,31,6,-2,0,2,2,-1
1523147501838727,60,17,-3,-6,-3,-2,1,8
1523147501860352,-52,-11,-3,-9,-5,-3,-12,-12
1523147501860352,-32,-40,9,11,0,-5,-5,-49
1523147501861788,39,7,-7,-42,-9,-6,-10,4
1523147501861788,-36,-5,-19,35,5,1,4,3
1523147501873378,45,11,3,-20,-1,1,3,8
1523147501873378,18,-5,9,-5,-10,-1,6,19
1523147501882342,-10,4,-1,27,-5,-5,-9,-7
1523147501882342,-9,10,1,12,6,0,-1,3
1523147501897441,24,-1,25,57,9,4,5,1
1523147501897441,-22,-11,-12,-12,2,2,-2,-3
1523147501898888,16,10,-9,6,-14,-10,-6,2
1523147501898888,-40,-10,4,9,2,3,3,13
1523147501919942,-1,-10,2,92,18,-1,-1,-5
1523147501919942,-15,7,2,-5,-26,-1,2,-2
1523147501921448,-2,1,-13,53,3,-4,-3,-17
1523147501921448,-6,-9,14,115,20,3,-6,27
1523147501933660,5,26,-10,-122,-32,-7,2,29
1523147501933660,34,16,10,-23,10,7,11,13
1523147501942626,-12,-21,-1,72,28,1,4,18
1523147501942626,-35,2,-6,-112,-20,-7,-5,-27
1523147501957224,16,6,-11,11,8,1,-5,-6
1523147501957224,-7,-15,0,-25,-11,-5,5,17
1523147501959232,24,7,-14,-95,-14,1,-8,2
1523147501959232,-2,7,21,101,20,2,1,-6
1523147501979722,-42,-26,-14,-48,-3,-1,-2,4
1523147501979722,6,-6,-12,-12,0,0,-1,-3
1523147501981227,-15,0,10,2,6,1,-2,-6
1523147501981227,13,-10,-17,-83,-21,-7,-4,-7
1523147501993791,18,-1,-6,13,2,2,2,-12
1523147501993791,-24,-5,4,-2,-18,-6,-4,5
1523147502002784,-1,9,-1,-40,5,-1,2,-3
1523147502002784,3,-3,6,55,-3,1,-2,14
1523147502024907,16,-9,-6,-21,-10,-5,1,-8
1523147502024907,-1,6,5,37,16,-1,-10,16
1523147502026349,35,-1,6,17,-7,4,3,4
1523147502026349,-15,-3,-5,-17,-8,-2,-1,-2
1523147502039943,5,-14,10,34,9,1,2,-31
1523147502039943,31,39,5,-10,2,3,2,7
1523147502041387,-55,-62,-20,-41,-25,-4,-2,-4
1523147502041387,50,25,5,34,10,3,6,1
1523147502062444,5,20,14,36,8,-1,-11,-6
1523147502062444,7,-13,-6,-57,-17,-4,-3,-10
1523147502063947,24,20,2,58,11,2,3,9
1523147502063947,-41,-14,-3,-40,0,3,2,-6
1523147502077523,43,-10,-7,-5,-7,-2,-1,4
1523147502077523,-3,-3,15,38,15,1,3,-10
1523147502078987,-13,-1,1,6,3,-1,-3,7
1523147502078987,-12,-10,-11,-50,-13,-7,-3,-8
1523147502100070,1,6,11,17,2,3,4,8
1523147502100070,-3,-17,-4,39,8,-1,-4,-3
1523147502101547,0,21,-1,-21,-9,-4,-3,-2
1523147502101547,1,-2,-3,17,0,-4,-1,9
1523147502122240,-4,-4,4,5,-1,-1,-1,1
1523147502122240,0,-7,-11,-33,-9,1,0,-6
1523147502124187,-16,1,6,30,2,-6,-3,-3
1523147502124187,5,0,-12,16,-3,-1,-2,4
1523147502137766,-10,-12,-9,-15,-6,-1,-1,-2
1523147502137766,25,-6,3,32,12,5,1,-5
1523147502139309,-6,13,6,-15,-9,-2,-1,0
1523147502139309,0,-6,14,31,24,1,-3,-2
1523147502160014,9,-1,-19,-14,-37,-4,-1,-1
1523147502160014,11,11,-14,46,4,1,1,3
1523147502161284,1,-11,-3,25,2,2,2,-13
1523147502161284,-7,-1,-1,-10,-3,-4,-4,6
1523147502182584,-56,-13,-2,-1,7,2,7,-12
1523147502182584,-37,-10,4,-5,1,-2,-4,2
1523147502183844,4,28,20,-18,2,-1,-1,-32
1523147502183844,-15,-22,-4,-4,-1,0,-4,38
1523147502197614,9,5,6,-3,1,0,0,-3
1523147502197614,-15,-7,6,17,-3,-4,1,0
1523147502198885,-5,6,-10,-6,5,2,-1,4
1523147502198885,2,3,-1,0,-3,2,4,-14
1523147502220173,9,26,8,0,4,-1,-3,10
1523147502220173,-62,-32,-6,-5,0,-3,-5,-10
1523147502221444,3,-9,-1,6,-1,-1,-3,9
1523147502221444,11,6,-2,-35,-16,-2,-2,-5
1523147502242711,4,1,9,17,18,4,-1,5
1523147502242711,9,4,4,34,-4,-2,0,-6
1523147502244005,-1,-9,-16,-5,-5,-2,-1,8
1523147502244005,46,-6,-14,16,-9,-8,-7,-9
1523147502257084,6,1,9,4,-4,-5,0,-9
1523147502257084,30,-13,12,25,10,4,3,3
1523147502271076,-24,-3,-3,-9,-2,-1,-1,6
1523147502271076,4,20,-2,-20,-1,1,-1,0
1523147502279598,-21,-24,-9,10,-3,-2,-3,-1
1523147502279598,52,30,-13,-19,-3,-6,-1,8
1523147502281604,-29,-39,-10,-1,-1,2,-6,-15
1523147502281604,-12,1,-35,-17,-3,-5,0,60
1523147502302706,27,-1,27,-4,0,-2,6,-31
1523147502302706,23,-5,0,-17,-4,-4,-17,-6
1523147502304166,-5,3,9,-7,-4,0,3,-2
1523147502304166,31,17,-21,-9,3,-3,-4,-73
1523147502316894,15,-15,-8,11,-12,-6,-8,34
1523147502316894,23,8,-3,-5,0,3,12,0
1523147502323616,-43,2,-8,-2,-2,0,22,15
1523147502323616,29,36,-15,-9,1,-1,-25,-16
1523147502340163,-27,-11,26,3,1,3,7,24
1523147502340163,0,-1,-2,10,1,-2,-10,-13
1523147502341473,8,4,-7,-2,2,-2,-5,-15
1523147502341473,-33,21,37,-2,-9,0,13,-9
1523147502362523,61,-2,-14,11,16,13,9,61
1523147502362523,-112,0,-30,-28,-16,-11,-9,-16
1523147502364029,21,5,10,33,5,-5,-11,-16
1523147502364029,33,-11,11,0,3,2,-2,-20
1523147502376756,61,28,-31,-24,-4,-9,5,-1
1523147502376756,50,17,21,48,5,4,-4,3
1523147502383776,3,5,-10,-24,-10,-1,-2,-19
1523147502383776,-51,-20,2,-12,-13,-2,-5,23
1523147502399818,8,2,-7,55,-2,-4,2,-6
1523147502399818,-11,-2,3,-12,-5,-2,0,0
1523147502401824,10,1,-5,58,15,0,-5,4
1523147502401824,-7,-1,-3,-34,-12,-3,4,16
1523147502422711,-23,-33,0,17,-3,2,-6,-30
1523147502422711,-9,-8,-11,-3,2,-4,0,9
1523147502423686,23,12,17,-38,-21,3,0,13
1523147502423686,-8,-16,13,26,12,-1,4,-5
1523147502436720,-41,5,-8,50,0,-5,-13,0
1523147502436720,2,3,16,-57,-5,6,7,-2
1523147502443861,-4,-15,-29,-64,-40,-16,-8,0
1523147502443861,4,-13,-1,92,9,6,4,-14
1523147502459984,22,15,8,-3,-8,-5,-6,19
1523147502459984,-37,13,10,73,24,4,4,4
1523147502461286,14,22,3,22,10,3,2,0
1523147502461286,-4,-28,-5,-33,-11,-7,-1,-6
1523147502482498,-12,17,27,36,29,7,0,-22
1523147502482498,-6,-17,-17,-73,-31,-16,-3,2
1523147502483846,27,22,-5,49,-4,2,-5,11
1523147502483846,-13,5,7,24,4,3,4,4
1523147502497036,-7,-3,-4,-40,-4,3,2,-5
1523147502497036,6,-3,4,56,11,1,1,1
1523147502503564,-25,-12,5,-81,-8,-2,-1,2
1523147502503564,17,-14,-3,9,-1,-5,-3,3
1523147502520110,-13,-3,-14,-22,-2,-3,-7,-9
1523147502520110,-10,-13,11,-10,-4,4,2,-2
1523147502521453,-27,-10,27,101,34,4,5,6
1523147502521453,-27,-5,-34,-46,-21,-3,2,-3
1523147502549891,-18,0,-6,9,-10,-4,-3,-7
1523147502549891,8,-3,-6,14,8,2,1,-18
1523147502551751,30,-14,3,19,-12,-2,-5,7
1523147502551751,-17,0,28,36,27,3,0,-1
1523147502556320,-21,31,-11,-16,-7,-6,-3,-21
1523147502556320,48,-19,-18,-35,-5,2,-1,8
1523147502564770,8,-4,11,2,7,2,3,9
1523147502564770,13,9,19,18,-1,0,-1,-3
1523147502580312,-5,4,-28,-62,-10,1,-4,-7
1523147502580312,4,-2,-1,39,8,3,2,7
1523147502581817,-16,3,7,-24,1,-4,-2,6
1523147502581817,-11,-9,-3,14,2,2,3,2
1523147502602525,-2,-6,5,-43,-10,-1,-1,2
1523147502602525,-12,0,-25,15,12,-5,-4,-4
1523147502603873,-10,-9,-6,8,3,3,3,-2
1523147502603873,20,7,-5,-7,-5,-2,0,3
1523147502616067,32,23,2,18,-2,-3,-2,-4
1523147502616067,1,7,21,-3,-6,-1,-1,1
1523147502624930,17,-5,-17,-15,1,2,11,-13
1523147502624930,46,11,9,14,-2,-3,-6,24
1523147502640133,-36,-12,6,-32,-11,-3,-3,-7
1523147502640133,-1,2,3,60,3,-4,-3,-3
1523147502641474,12,2,-9,44,10,0,2,5
1523147502641474,-27,-3,-12,-23,-2,1,2,-4
1523147502662530,12,-4,5,23,2,1,-1,3
1523147502662530,-5,4,-3,-8,-4,0,-2,1
1523147502664033,-10,2,10,53,-9,-1,-5,-2
1523147502664033,-22,-20,-20,-37,2,-5,-3,-8
1523147502685145,-4,-7,0,13,4,2,-2,-1
1523147502685145,-12,-1,-4,9,0,5,5,1
1523147502686594,6,-5,14,-7,6,0,-6,5
1523147502686594,-5,3,21,23,-1,5,0,-1
1523147502700129,-5,-18,-33,-74,-7,-7,-1,-2
1523147502700129,-39,28,-2,-3,-2,1,-1,-19
1523147502701634,13,-22,-5,-29,-1,2,2,34
1523147502701634,-7,-1,8,18,-3,-1,1,13
1523147502722690,-3,-1,4,-19,-7,1,-1,-5
1523147502722690,-4,-6,2,55,14,-4,-2,-22
1523147502723693,5,7,-9,-27,-9,-7,-11,28
1523147502723693,-32,-1,-4,6,4,0,0,-11
1523147502736225,3,-2,14,37,1,-3,1,6
1523147502736225,37,-1,0,-38,-14,4,0,10
1523147502744749,-43,-6,-26,-18,10,0,1,-32
1523147502744749,-18,8,2,7,-4,-1,-2,28
1523147502759948,45,11,-13,22,-2,-4,-7,0
1523147502759948,4,-1,1,-25,-8,-5,-3,0
1523147502761294,0,-2,6,12,-2,-1,-3,-9
1523147502761294,-16,3,9,34,12,11,6,-7
1523147502782348,-18,-23,-12,87,1,-9,-4,-9
1523147502782348,-22,-6,11,28,7,4,0,3
1523147502783853,25,11,-19,-13,-2,0,3,-8
1523147502783853,9,-1,-2,-16,-1,0,0,-18
1523147502796041,-2,26,23,-5,-6,-8,-9,28
1523147502796041,50,-17,-16,-35,-8,-4,-4,16
1523147502804909,-17,4,12,9,3,-2,-2,-17
1523147502804909,50,-61,-32,-32,-10,-6,0,-37
1523147502820105,-32,0,-2,-8,5,4,7,7
1523147502820105,-24,49,8,-21,-7,-4,-11,-17
1523147502821454,17,18,4,-24,-1,0,3,-8
1523147502821454,30,-5,4,11,-8,-6,-6,44
1523147502842629,0,9,-2,-6,6,2,1,-25
1523147502842629,-17,5,-15,-10,-1,1,25,-30
1523147502844013,1,-21,19,4,1,-4,-20,63
1523147502844013,-62,30,0,-8,9,0,-11,-45
1523147502856201,-10,42,-10,-7,-10,-3,-3,-13
1523147502856201,42,-44,0,-5,-7,-3,-1,53
1523147502865069,-48,-14,-30,-8,-6,-3,-3,-58
1523147502865069,-22,-11,-19,-15,-7,-4,2,20
1523147502879608,23,-25,14,0,4,3,-4,-1
1523147502879608,-8,9,4,-1,4,2,-10,-4
1523147502881613,17,6,11,-3,-3,-1,11,5
1523147502881613,16,-4,-8,-4,-3,4,0,19
1523147502902669,-34,-23,-2,1,2,1,4,-14
1523147502902669,0,2,4,-3,-1,0,2,1
1523147502904173,7,0,9,13,2,1,0,10
1523147502904173,-14,11,-8,-16,-13,-10,-6,-15
1523147502916330,-7,-8,7,67,26,9,1,-6
1523147502916330,0,-20,-22,-76,-34,-9,-2,-3
1523147502924728,-1,11,4,-17,7,-1,-8,-2
1523147502924728,-3,10,11,33,5,8,10,-9
1523147502939767,22,-3,21,90,27,3,3,13
1523147502939767,-9,-16,-21,-64,-28,-9,-9,3
1523147502941778,-14,1,23,-17,0,-7,-6,-17
1523147502941778,10,2,-38,-56,-30,-2,-3,5
1523147502962327,-6,-16,-16,68,4,6,8,7
1523147502962327,-8,8,19,127,38,5,-6,2
1523147502964332,4,7,-13,-2,-36,-3,2,-7
1523147502964332,4,-6,37,73,37,5,11,-8
1523147502976019,0,-7,-15,-128,-31,-11,-8,29
1523147502976019,10,4,-3,19,1,5,-5,-29
1523147502984888,-7,-7,0,15,6,1,3,7
1523147502984888,-25,-1,2,22,4,-7,-7,21
1523147503000083,-41,31,-4,-26,-7,-3,0,-17
1523147503000083,0,16,6,-2,5,-1,2,1
1523147503001432,-11,11,-1,-24,0,4,6,12
1523147503001432,73,12,9,17,-6,-1,-2,-9
1523147503022644,2,-5,4,-33,-2,-1,1,0
1523147503022644,2,3,12,23,4,0,0,8
1523147503023993,0,10,13,52,17,7,7,1
1523147503023993,-13,-15,-29,-69,-36,-13,-7,-7
1523147503045048,13,3,4,58,12,2,3,-2
1523147503045048,0,-6,0,30,5,5,5,13
1523147503046552,10,-7,-9,2,1,-3,-10,-20
1523147503046552,-9,-5,30,88,21,6,3,-1
1523147503058740,15,-20,-20,-70,-27,-9,-8,-8
1523147503058740,-14,-8,-1,56,20,3,-1,3
1523147503067609,-8,2,-7,19,-6,-2,-4,-36
1523147503067609,18,2,0,-10,3,1,2,48
1523147503082303,-14,-1,6,-3,-4,3,1,17
1523147503082303,6,-3,-12,-48,-14,-9,-3,-10
1523147503084151,-8,30,-9,-3,-7,1,-3,8
1523147503084151,-10,-29,18,-26,3,0,-1,-20
1523147503104862,-1,-17,-12,-8,1,0,1,-4
1523147503104862,-3,31,-4,-18,-17,-7,-2,8
1523147503106796,10,-2,18,25,7,-1,3,10
1523147503106796,-21,7,-5,1,-8,-4,-3,-28
1523147503119752,-1,-11,2,3,0,5,5,4
1523147503119752,-55,-10,20,14,15,3,-3,-21
1523147503121770,-61,-5,-15,-17,-8,-9,-7,15
1523147503121770,3,10,-2,19,5,0,-2,-11
1523147503142308,1,-2,11,-18,-1,-2,-6,-8
1523147503142308,1,-15,-22,-5,-8,-2,-2,8
1523147503143811,8,-9,-5,-25,2,3,7,-6
1523147503143811,-12,4,5,-14,-4,-2,1,40
1523147503165029,-29,-5,-15,61,3,1,-3,-15
1523147503165029,15,-4,0,-42,-13,-2,9,-13
1523147503166374,-21,-15,-7,27,2,-4,-11,33
1523147503166374,23,20,-21,-43,-6,-4,-2,-8
1523147503179471,18,19,12,5,-1,0,1,-5
1523147503179471,6,-5,-1,20,9,3,-3,2
1523147503186079,65,7,-2,19,0,1,4,-3
1523147503186079,-6,19,-9,-16,-2,-2,-7,-8
1523147503202621,25,6,21,23,-5,-2,1,8
1523147503202621,-28,-9,12,97,15,-2,-3,-6
1523147503203971,10,1,-8,-100,-22,-6,-1,-33
1523147503203971,-14,-15,-39,27,-8,-5,-8,28
1523147503224894,42,1,2,-5,6,5,2,-15
1523147503224894,14,-12,-5,2,5,1,1,2
1523147503226236,17,10,7,28,6,-1,-4,8
1523147503226236,13,-7,2,-27,6,2,3,-18
1523147503239298,-39,-10,-18,19,-19,-11,-2,-22
1523147503239298,38,8,0,-17,-8,-4,-3,9
1523147503245788,12,-18,-18,19,4,3,9,5
1523147503245788,24,-23,-14,-10,1,-4,-16,-26
1523147503262488,4,15,28,3,7,3,-3,10
1523147503262488,-15,-4,-11,-20,-4,-1,2,8
1523147503263835,-7,-20,0,4,-4,-1,2,-2
1523147503263835,-33,29,10,36,0,0,3,-11
1523147503285159,-19,-33,-29,13,14,3,-1,-19
1523147503285159,2,-17,-7,3,-3,-1,-3,-8
1523147503286759,0,-5,2,4,2,-1,-6,37
1523147503286759,-27,-10,13,12,2,4,12,-5
1523147503299136,-7,-10,-19,-17,-10,-7,2,-15
1523147503299136,-4,21,18,-22,1,1,-2,-43
1523147503306296,36,5,-1,12,-1,2,0,12
1523147503306296,-57,-14,-13,-10,-15,-8,-6,-55
1523147503322355,68,5,-2,-6,4,6,3,50
1523147503322355,30,14,8,-11,-2,0,12,49
1523147503324298,-14,-13,-5,-4,-5,-3,-3,2
1523147503324298,9,-18,-7,-2,3,2,-1,0
1523147503344757,-51,-4,2,-11,-1,-1,-2,-23
1523147503344757,16,-5,0,-7,-5,-2,-3,10
1523147503346265,-23,3,-4,14,5,1,-3,-43
1523147503346265,29,3,19,1,3,1,-1,20
1523147503359296,54,15,7,3,0,0,6,-5
1523147503359296,0,0,7,-1,4,3,4,19
1523147503365971,-57,-10,-4,0,-4,-7,-10,-28
1523147503365971,8,-2,-4,-1,-4,-5,0,42
1523147503382513,-12,3,2,-13,-3,-1,-8,-4
1523147503382513,-4,4,-4,-7,-6,-6,-5,19
1523147503383862,17,11,5,11,12,7,6,-12
1523147503383862,-47,0,7,27,2,-1,-2,-12
1523147503405080,-23,-5,-23,-77,-36,-7,-1,10
1523147503405080,17,-5,1,23,3,3,2,10
1523147503406433,-9,-10,0,37,12,2,1,-2
1523147503406433,11,12,30,98,27,9,3,1
1523147503419471,-24,-18,-19,-81,-37,-10,-1,7
1523147503419471,6,-2,-15,9,-5,-9,-9,-26
1523147503426131,9,5,-2,47,2,-1,-1,0
1523147503426131,17,10,12,11,4,0,0,-1
1523147503442669,-5,2,-5,38,2,10,9,-13
1523147503442669,-23,-20,-30,19,-14,-10,-12,64
1523147503444023,15,9,11,55,5,0,1,6
1523147503444023,17,-5,-7,-61,-9,-1,1,4
1523147503465146,3,1,4,64,7,-5,-9,-16
1523147503465146,-20,-39,-12,-19,-6,-4,-1,-7
1523147503466582,-47,-12,6,4,-1,1,-4,-9
1523147503466582,10,6,7,40,5,3,4,16
1523147503479116,-4,-13,8,14,17,-5,-5,-23
1523147503479116,24,-27,1,-1,3,3,1,-12
1523147503486291,4,-2,15,-14,-6,-1,0,12
1523147503486291,-39,-4,-4,-38,-13,2,1,-22
1523147503502677,17,10,10,16,20,0,-1,11
1523147503502677,-9,16,8,0,-11,0,1,-18
1523147503504271,9,1,-3,-42,2,0,-2,-2
1523147503504271,9,-5,11,33,4,0,1,1
1523147503524892,-29,-1,2,19,1,-2,0,5
1523147503524892,-13,23,-26,4,5,0,-2,-21
1523147503526243,16,-26,23,14,-6,2,8,-23
1523147503526243,27,17,-7,-71,-22,-7,-11,14
1523147503538826,-6,7,21,92,15,4,-2,8
1523147503538826,0,6,-14,37,-12,4,2,-23
1523147503547296,39,7,-24,83,13,-6,0,11
1523147503547296,14,39,3,73,9,7,17,-8
1523147503562494,44,26,16,34,12,2,-10,-4
1523147503562494,1,7,25,-40,-10,-2,-2,-8
1523147503563841,-17,0,-30,-46,-9,0,-4,3
1523147503563841,-19,-16,-12,8,-5,-10,0,-27
1523147503585052,-6,-4,-3,-30,1,1,2,19
1523147503585052,-1,10,15,49,15,3,4,-6
1523147503586400,14,21,2,-8,9,2,3,6
1523147503586400,7,-12,-7,-66,-5,0,-3,-5
1523147503598590,-4,-23,6,-2,-9,1,7,-1
1523147503598590,-8,-7,4,4,12,0,-8,-4
1523147503607456,-10,-5,-2,7,-10,-6,1,7
1523147503607456,6,-9,-13,-2,-6,-1,-8,7
1523147503622496,-31,2,15,0,7,0,2,1
1523147503622496,1,-1,-19,10,-5,-2,1,-4
1523147503624001,0,-6,-26,-104,-29,-11,-5,-12
1523147503624001,-13,2,-3,72,15,-2,-9,19
1523147503645056,10,1,-8,8,-3,-1,-4,6
1523147503645056,-38,18,11,11,4,3,2,-10
1523147503646562,42,9,12,19,-6,0,-2,-1
1523147503646562,3,-2,-4,0,-7,-3,-1,-9
1523147503659104,-13,1,-19,14,4,4,8,0
1523147503659104,8,-22,-3,-32,-5,-1,-6,10
1523147503667617,-43,-8,13,8,6,0,0,-4
1523147503667617,2,-1,10,-19,-13,-2,-3,-9
1523147503681747,9,-5,-20,70,15,-4,0,-5
1523147503681747,-41,-5,8,17,4,-4,1,-13
1523147503690177,18,23,-1,-6,1,3,4,20
1523147503690177,19,-8,7,-22,-6,1,-5,-3
1523147503704880,-38,-1,7,-40,-11,0,-4,-9
1523147503704880,12,-4,-10,-11,20,-3,-6,-6
1523147503706801,-14,-14,-7,67,-23,-10,-1,-4
1523147503706801,33,13,-5,-54,-8,-1,0,7
1523147503718821,35,-1,2,-5,-4,0,4,21
1523147503718821,29,9,21,10,8,2,-1,-2
1523147503727275,-12,-3,-6,-22,4,3,3,3
1523147503727275,-15,-28,-22,23,6,0,1,-5
1523147503742476,47,26,1,-20,-9,-5,-4,-4
1523147503742476,-6,-25,6,-4,2,0,4,-5
1523147503743835,-10,0,4,5,0,-2,-3,-19
1523147503743835,-7,34,1,9,-1,-1,1,4
1523147503765032,-6,-16,-12,-23,-3,-4,-8,-6
1523147503765032,-19,10,-1,-55,-9,1,4,7
1523147503766380,19,0,10,14,-1,2,11,-20
1523147503766380,-12,-24,1,34,16,0,-13,-22
1523147503778412,23,20,10,-13,-5,-3,-1,30
1523147503778412,-30,2,4,89,-1,-2,-2,0
1523147503787435,-27,-43,-14,-86,0,8,9,-7
1523147503787435,22,42,17,-4,-5,-2,2,8
1523147503802634,-41,-4,-9,12,9,0,-6,4
1523147503802634,14,-23,-4,-8,-12,-4,-5,11
1523147503803980,18,7,1,16,3,-5,-4,20
1523147503803980,-25,-11,-7,3,-6,1,4,-4
1523147503825176,-3,-13,-13,-14,-6,-5,-12,-14
1523147503825176,-11,-25,-6,-5,2,5,25,-42
1523147503826540,95,54,0,-4,-2,-3,-36,38
1523147503826540,2,0,0,-2,5,0,-2,-27
1523147503838810,25,37,12,-2,-12,-2,14,-15
1523147503838810,-20,30,-7,-17,3,4,-2,-73
1523147503847338,49,10,21,21,5,1,7,-3
1523147503847338,62,-22,-3,1,-4,-2,13,6
1523147503862533,-21,18,-13,-12,0,-2,-18,-29
1523147503862533,45,11,11,-2,1,0,7,30
1523147503863880,-31,-14,-16,-5,-6,-5,-12,-31
1523147503863880,10,2,-6,0,2,0,0,-6
1523147503885094,9,-22,0,-1,13,-4,17,36
1523147503885094,30,27,6,-14,-15,4,2,23
1523147503886440,-99,-21,-2,6,4,-7,-14,34
1523147503886440,-33,-7,-2,5,-6,0,-7,-16
1523147503898629,10,-53,1,2,-15,-6,-5,-17
1523147503898629,-18,-1,-5,-3,8,6,-10,-4
1523147503907497,-10,-12,-10,-3,16,7,2,81
1523147503907497,5,-10,-3,-4,-21,-8,0,-19
1523147503922670,-23,-9,3,11,0,-19,-63,67
1523147503922670,26,-4,33,-18,-30,-12,-13,0
1523147503924040,1,9,-14,4,8,10,16,-42
1523147503924040,-7,-17,-1,7,16,5,5,9
1523147503944595,6,7,6,93,26,15,17,-9
1523147503944595,10,-5,-22,-66,-32,-15,-3,17
1523147503946600,-9,-7,1,25,-4,-10,-7,-11
1523147503946600,-24,-2,-8,-22,-5,0,0,18
1523147503967155,-10,-3,7,43,15,5,14,-18
1523147503967155,-20,1,-3,-12,9,3,1,17
1523147503969159,-20,-2,2,84,0,3,10,-24
1523147503969159,-12,-14,-42,-68,-15,-19,-16,-3
1523147503982696,-4,2,3,6,0,10,12,-23
1523147503982696,26,5,-9,14,3,6,-1,-12
1523147503983699,-71,-34,7,-14,-22,-1,3,2
1523147503983699,13,19,28,77,25,8,-1,-1
1523147504004921,0,-9,-25,-128,-33,-5,11,47
1523147504004921,10,-6,-6,61,9,-3,-1,-39
1523147504006259,49,41,2,16,6,-14,-27,10
1523147504006259,6,-2,21,99,20,4,1,10
1523147504027314,-22,-13,-25,-85,-37,3,11,-15
1523147504027314,-18,-3,-7,66,16,-9,-6,28
1523147504028820,19,4,0,3,4,3,6,-3
1523147504028820,-12,-4,-3,-10,-20,-1,1,2
1523147504042515,24,15,20,-8,-2,-5,-6,-18
1523147504042515,-7,-5,-11,25,9,1,1,14
1523147504043860,-3,-7,-16,17,-5,-8,-1,-24
1523147504043860,22,-8,-16,-43,-5,-2,-4,16
1523147504065073,-26,-7,-9,48,16,-4,3,-18
1523147504065073,10,4,14,-2,3,9,1,9
1523147504066421,2,5,-6,37,-30,-11,-2,-7
1523147504066421,-16,7,2,-33,12,6,5,-3
1523147504087631,5,1,-14,-71,-24,-10,-3,8
1523147504087631,1,-7,-25,-76,-7,-4,-6,6
1523147504088980,40,4,5,3,5,6,2,-11
1523147504088980,-12,1,10,-24,-5,-3,1,3
1523147504101668,51,10,11,60,6,2,-4,8
1523147504101668,-15,1,-7,-14,10,-2,-1,0
1523147504108686,-13,24,-5,-52,-6,-2,0,9
1523147504108686,67,16,0,16,-6,-2,-4,5
1523147504125152,-13,-7,17,8,10,4,2,-4
1523147504125152,-15,0,2,-30,-4,-1,-2,-14
1523147504126579,-9,-10,-4,38,6,5,6,-13
1523147504126579,-13,-3,1,-2,1,-1,4,7
1523147504147634,-21,1,2,27,22,-8,-5,-8
1523147504147634,5,-5,18,-24,1,7,0,0
1523147504149139,4,-5,-7,-85,-27,-13,-3,-10
1523147504149139,-32,-8,9,86,-1,16,3,1
1523147504161722,-13,-14,3,7,3,-5,-1,-8
1523147504161722,15,4,-14,-34,-7,-2,-2,-3
1523147504168690,37,2,14,26,7,-7,-5,1
1523147504168690,4,-2,-6,9,9,-4,0,2
1523147504185273,-8,6,6,-32,-8,4,-1,-18
1523147504185273,-7,-6,-30,19,-14,-8,-4,22
1523147504186785,-2,-15,-2,-11,11,4,1,7
1523147504186785,10,62,1,12,5,0,5,-20
1523147504206831,-26,-24,7,46,-3,1,-7,16
1523147504206831,-9,-1,-7,5,-11,-6,-2,-12
1523147504214853,-9,-5,6,23,8,7,-5,-21
1523147504214853,-13,-2,-2,-42,-5,-5,8,49
1523147504222056,-1,7,5,1,-1,4,-15,-10
1523147504222056,6,-8,17,12,8,3,3,-1
1523147504228629,-18,0,16,56,9,3,0,0
1523147504228629,-7,-25,-23,-108,-36,-12,-6,-11
1523147504245676,9,7,-22,0,-6,2,6,-4
1523147504245676,-41,-12,2,41,9,1,0,9
1523147504246939,7,7,-7,-16,1,5,1,-8
1523147504246939,1,-14,20,27,14,-5,-6,-12
1523147504267493,-12,-10,-3,6,2,1,4,0
1523147504267493,3,14,7,18,3,5,1,-12
1523147504268998,-10,9,-1,-32,4,5,9,12
1523147504268998,-15,-16,-7,-35,-1,-1,-4,-13
1523147504281531,20,6,-2,1,-1,-6,-1,1
1523147504281531,-41,-19,-3,43,6,2,-1,-13
1523147504288794,27,26,3,-21,-6,-2,-5,44
1523147504288794,-13,-37,-6,32,7,2,-3,-17
1523147504305141,-23,1,3,-6,-9,-3,-8,-15
1523147504305141,-1,24,1,6,-2,-6,0,9
1523147504306607,-20,-31,-17,-9,-6,1,5,-3
1523147504306607,4,-31,-16,7,-1,0,-4,9
1523147504327654,36,-15,9,24,12,10,27,41
1523147504327654,1,45,5,-4,-5,-4,-18,-17
1523147504329158,-88,-36,-20,-9,4,-4,-11,-38
1523147504329158,43,-8,-10,28,-4,-5,-3,-34
1523147504341189,66,7,-8,-6,0,-2,-5,-43
1523147504341189,-18,-40,8,8,-4,-3,9,60
1523147504350213,20,5,-3,-11,-5,-1,3,-72
1523147504350213,-31,-47,5,10,-1,-1,-12,66
1523147504365254,-82,37,5,-4,-5,-4,-25,-54
1523147504365254,19,-17,-3,3,12,8,11,17
1523147504366256,46,37,8,-4,-11,-9,-11,16
1523147504366256,-48,-13,-9,3,-7,-6,0,-24
1523147504387552,-46,17,-2,-2,2,-2,1,-4
1523147504387552,16,-11,15,7,0,-1,-1,7
1523147504388815,-28,-20,19,-3,4,3,4,-1
1523147504388815,28,43,-7,1,2,1,4,7
1523147504402121,46,-4,31,8,4,6,6,40
1523147504402121,-10,13,-9,-1,0,-3,-8,-33
1523147504408640,11,15,-18,-22,-17,-5,2,13
1523147504408640,20,-15,-1,22,5,-3,-1,-9
1523147504424929,-24,-11,-10,-23,-11,1,5,-6
1523147504424929,7,7,11,78,28,4,-3,-6
1523147504426688,0,8,3,-59,-29,7,3,1
1523147504426688,-27,-4,1,-41,-3,-6,-4,-4
1523147504447481,-1,-20,0,-31,-4,0,10,11
1523147504447481,9,6,13,-2,16,0,-4,-13
1523147504448746,30,7,-3,30,-2,-7,-5,18
1523147504448746,-8,23,8,23,4,13,6,-10
1523147504461382,0,-13,-28,-51,-36,-15,-4,0
1523147504461382,0,4,12,66,3,0,2,-18
1523147504469803,-15,-8,-5,-30,2,4,1,1
1523147504469803,-10,11,4,76,30,1,1,1
1523147504492362,4,-5,-5,-8,-8,-6,-6,0
1523147504492362,10,-4,-13,-35,-21,-2,4,12
1523147504493868,-12,-4,7,-13,0,-7,-3,-9
1523147504493868,12,15,10,37,-14,10,7,6
1523147504507641,-9,24,-14,116,47,-4,-13,-8
1523147504507641,23,-28,-5,-57,-20,-7,-1,-5
1523147504508906,29,5,9,40,20,3,-2,-1
1523147504508906,12,20,-10,-105,-31,-5,-5,1
1523147504521439,-1,3,6,113,19,7,4,5
1523147504521439,-23,-5,-8,-23,-18,-6,1,-1
1523147504529963,-45,-10,-7,47,10,-1,-6,20
1523147504529963,0,2,1,-29,4,3,2,-9
1523147504545002,16,-15,4,8,-11,-4,3,9
1523147504545002,-4,8,-5,10,2,3,0,-3
1523147504546562,1,-4,-4,-5,1,-3,-3,-1
1523147504546562,-14,3,-2,-30,-6,-5,-7,2
1523147504567722,1,-6,2,-24,5,1,2,-2
1523147504567722,17,9,5,-13,-1,4,2,3
1523147504569113,-27,-1,-2,54,14,-2,-2,-3
1523147504569113,-4,1,-4,7,1,-2,3,-7
1523147504581146,5,-8,-5,-29,-1,-6,-5,4
1523147504581146,3,-3,-5,26,-22,2,-2,-3
1523147504590168,-12,-2,8,-47,-5,-2,2,-5
1523147504590168,-15,4,-5,-11,-7,-7,-6,7
1523147504605232,-6,-7,-1,-4,0,4,3,4
1523147504605232,-16,3,3,-17,7,-4,-3,5
1523147504606839,39,-13,0,16,-12,-5,-1,-7
1523147504606839,0,0,-17,18,3,-1,1,-4
1523147504627268,-5,4,-1,-40,-4,1,3,15
1523147504627268,-17,-37,-5,2,3,-4,-9,-2
1523147504628772,15,30,1,-1,5,7,5,1
1523147504628772,-46,-1,7,-2,1,-5,-5,-9
1523147504641044,-33,-9,-3,23,-4,0,1,-3
1523147504641044,-15,3,-5,-29,-9,-5,-3,8
1523147504649828,-14,-2,-3,50,15,6,5,-2
1523147504649828,13,-5,12,5,2,1,2,5
1523147504665072,-13,-7,-4,-22,-1,1,0,-8
1523147504665072,4,24,5,5,0,-4,-4,-5
1523147504666873,-4,-6,-4,-29,-9,-5,-2,-1
1523147504666873,0,9,22,106,4,3,1,-2
1523147504687635,11,-10,-6,-7,-6,-4,-7,-15
1523147504687635,12,-12,-30,-28,-8,-10,-4,1
1523147504688932,-35,-6,16,20,10,6,1,-18
1523147504688932,9,-24,-2,57,18,7,6,8
1523147504700963,7,3,21,5,5,5,2,1
1523147504700963,-9,-6,-49,-53,-47,-20,-10,-24
1523147504709988,6,-18,-6,27,8,2,-2,24
1523147504709988,0,7,2,-1,0,-1,1,0
1523147504725028,11,5,5,0,0,0,-2,0
1523147504725028,17,9,23,22,11,9,5,-2
1523147504726533,-2,-5,-39,-43,-5,-5,-1,-8
1523147504726533,1,6,-7,-24,-9,-3,-1,-17
1523147504747588,28,-11,-5,-9,-8,-1,-2,42
1523147504747588,-2,4,10,22,9,1,1,-3
1523147504749098,10,5,13,11,-5,0,3,1
1523147504749098,-4,-3,-16,-39,-4,-10,-7,2
1523147504761320,16,7,-20,-36,-2,0,-3,-14
1523147504761320,2,-1,1,31,1,1,3,2
1523147504770148,18,-8,5,-2,2,0,0,0
1523147504770148,-3,0,17,-1,-3,0,0,0
1523147504784686,-62,-3,12,28,11,2,2,-11
1523147504784686,0,-6,-30,-94,-28,-8,-5,-6
1523147504786866,-13,-1,1,18,2,1,-2,47
1523147504786866,21,6,-6,-10,-4,-1,2,-24
1523147504807442,5,4,-1,17,-1,-2,-3,-10
1523147504807442,-5,11,25,17,16,4,1,7
1523147504809252,18,-12,-1,-21,-8,-3,0,-14
1523147504809252,-23,-6,-12,-5,-3,-2,-4,-13
1523147504821284,38,43,11,-2,1,4,11,27
1523147504821284,-5,-56,-3,13,9,1,-17,-23
1523147504830337,-16,13,2,-14,-8,-5,-2,-21
1523147504830337,16,15,0,-5,-1,-2,-2,1
1523147504844775,57,-6,-1,-5,-9,-2,-5,-1
1523147504844775,6,21,5,12,4,0,5,26
1523147504846278,33,21,2,6,4,4,4,-23
1523147504846278,-40,-38,4,-10,-5,-6,-6,40
1523147504867334,-62,8,-20,-3,-5,-6,-7,-28
1523147504867334,32,22,20,19,13,6,16,28
1523147504868838,-9,-15,-1,-13,-5,-1,3,-6
1523147504868838,-58,-52,-14,11,4,0,-8,-22
1523147504890091,6,33,-1,-1,-2,-2,3,10
1523147504890091,-13,-41,-25,-5,-6,-8,-1,-46
1523147504891399,14,16,22,1,2,2,-5,-40
1523147504891399,-33,26,15,3,4,0,-5,7
1523147504904935,56,-13,-24,7,-5,-2,-10,4
1523147504904935,-18,-2,-1,11,6,1,3,-22
1523147504906440,-44,10,-17,-12,-6,-7,4,8
1523147504906440,51,20,13,-5,-2,0,3,-1
1523147504927495,-3,-9,9,-2,2,3,3,2
1523147504927495,-21,17,-6,0,1,1,7,14
1523147504928999,23,3,-8,-10,-7,-5,-16,-1
1523147504928999,-46,-10,-3,7,-3,-4,-4,1
1523147504950006,-15,-12,2,-11,-7,-4,0,-2
1523147504950006,-26,-16,-6,3,-3,2,1,-9
1523147504951313,3,3,1,-11,0,-3,-5,13
1523147504951313,32,-12,-9,22,3,3,3,-9
1523147504965046,0,-44,-6,-8,-4,-3,-1,7
1523147504965046,23,12,22,13,1,1,-1,9
1523147504966854,-31,-9,4,-12,-2,-4,-2,-19
1523147504966854,111,22,-9,-8,-21,-8,-9,14
1523147504987613,-6,-15,4,45,11,6,5,-12
1523147504987613,7,15,5,51,12,4,-1,4
1523147504988914,-8,-12,-2,-4,-6,-2,-1,20
1523147504988914,-22,-19,-7,41,14,2,6,-4
1523147505009970,-9,7,10,81,8,9,11,-1
1523147505009970,20,41,-19,-83,-30,-14,-24,-13
1523147505011474,3,-10,-2,115,4,-3,-8,36
1523147505011474,7,4,0,-90,-30,-1,4,1
1523147505025184,-19,0,13,67,32,-3,-2,19
1523147505025184,-16,-2,-15,7,12,10,2,-13
1523147505026514,33,-8,14,17,16,5,9,2
1523147505026514,-9,18,-28,9,-38,-10,-10,2
1523147505047658,-9,-6,13,-26,-16,-2,2,-10
1523147505047658,-6,-12,14,13,14,2,7,-9
1523147505049074,62,16,-6,-57,-12,-6,-2,7
1523147505049074,12,4,17,99,27,5,7,-2
1523147505077345,-20,-10,-35,-128,-40,-15,-10,-25
1523147505077345,-18,-17,-2,27,0,0,3,8
1523147505079154,11,20,-2,45,8,4,-6,-10
1523147505079154,-8,-28,9,-3,25,8,8,0
1523147505084364,2,4,-25,-56,-29,-10,-11,-7
1523147505084364,2,2,8,49,14,-4,-3,13
1523147505091792,-17,-7,-1,-18,-12,5,7,-3
1523147505091792,-15,19,6,5,-1,-1,1,0
1523147505106923,-11,-10,-5,97,34,4,-3,3
1523147505106923,1,-2,19,27,-4,-6,-6,-3
1523147505107229,-1,-12,-22,-4,-3,-1,2,-19
1523147505107229,-4,7,12,33,9,0,-2,12
1523147505129287,23,2,3,-45,-5,2,-1,-11
1523147505129287,-34,-1,4,21,0,-2,-1,-14
1523147505130290,-32,-22,4,14,8,1,2,36
1523147505130290,57,32,16,-21,-3,-3,-4,-3
1523147505143324,1,3,6,49,-10,0,-1,0
1523147505143324,9,-9,-25,-74,-12,-3,-1,-1
1523147505151847,-14,2,3,-3,-5,2,3,0
1523147505151847,-12,-3,-6,-12,4,0,-6,-10
1523147505166969,-11,4,11,6,0,-2,-5,3
1523147505166969,18,8,3,7,-2,3,2,5
1523147505167388,-11,1,25,23,1,-2,-1,-7
1523147505167388,-11,-14,-25,-40,-5,-8,-2,-3
1523147505189520,1,1,-5,-1,4,1,1,-6
1523147505189520,1,-6,-5,-6,-4,3,-1,5
1523147505189948,-1,-1,-1,-21,-3,-3,-3,-6
1523147505189948,-1,4,19,52,7,5,4,-2
1523147505203681,0,-1,-24,-90,-25,-4,-2,5
1523147505203681,-3,3,-1,50,1,-3,2,7
1523147505211960,-24,-8,-4,21,4,0,-3,8
1523147505211960,-4,4,2,-17,1,1,1,-4
1523147505226804,-9,-2,-1,74,7,-1,1,-2
1523147505226804,-6,-14,-15,-4,-5,1,-1,-5
1523147505227844,-19,-11,-8,-23,-10,-6,-7,-2
1523147505227844,-20,-19,-16,-6,3,0,2,-6
1523147505249362,2,15,8,-18,-1,-2,-2,11
1523147505249362,13,5,0,-7,-4,-4,-7,-6
1523147505250367,1,-1,-7,-12,-7,-2,2,-15
1523147505250367,-13,-5,-11,-2,1,-2,-2,4
1523147505263597,-1,-10,-2,-12,15,8,7,-3
1523147505263597,38,2,17,12,-6,-5,-1,15
1523147505272013,-2,1,-1,-10,-4,-1,-2,-7
1523147505272013,0,0,-16,-87,-10,-3,-2,-8
1523147505286996,1,2,6,47,1,0,0,-5
1523147505286996,4,-12,-14,20,10,4,4,7
1523147505287465,-5,-5,-13,-29,0,1,1,-21
1523147505287465,21,27,-19,-28,-8,-4,-3,-3
1523147505309289,15,-6,19,8,-4,-9,-5,-10
1523147505309289,-4,18,-24,-50,-5,0,-1,21
