timestamp,emg1,emg2,emg3,emg4,emg5,emg6,emg7,emg8
1523148366165010,36,-3,0,2,-4,-3,-12,21
1523148366165010,30,-4,1,-12,-3,0,5,-16
1523148366166515,41,38,9,10,-5,-3,-2,44
1523148366166515,-23,59,23,2,2,3,-4,-43
1523148366179047,-6,-54,-27,0,-8,-10,-4,-12
1523148366179047,-51,-2,2,-1,-7,-2,-9,-21
1523148366187571,6,0,12,12,10,-1,14,10
1523148366187571,15,-41,-34,1,-5,3,0,39
1523148366202610,-39,35,4,1,-6,-4,-11,-61
1523148366202610,-56,-52,-9,-4,-3,-5,3,17
1523148366204139,-40,-17,-7,-2,2,0,-15,-42
1523148366204139,45,2,11,-3,-1,-4,9,24
1523148366225175,-63,19,21,11,4,5,0,22
1523148366225175,-36,2,-3,-1,-5,-5,-1,-29
1523148366226677,-22,-45,-2,2,-1,0,-12,11
1523148366226677,9,-5,-1,-1,1,-3,-1,3
1523148366238710,15,5,-4,3,2,5,9,-1
1523148366238710,20,16,10,-4,2,1,-4,3
1523148366247731,-12,-4,-7,-8,-2,1,1,14
1523148366247731,-34,-6,1,41,-5,-1,-5,-13
1523148366261824,8,-5,-2,-12,3,1,3,4
1523148366261824,1,1,2,-9,-7,0,-3,5
1523148366268790,4,-3,2,-8,11,0,0,-12
1523148366268790,-19,-14,-24,-52,-27,-13,-9,-6
1523148366285337,22,10,4,42,3,-6,0,-4
1523148366285337,18,5,0,31,8,16,1,18
1523148366286835,0,-7,9,72,18,1,0,-4
1523148366286835,-17,-1,-9,-79,-30,-14,-3,-9
1523148366298873,6,3,5,46,15,7,-1,12
1523148366298873,3,-3,-15,-45,-25,-11,-3,2
1523148366307892,-7,1,1,22,5,3,1,-3
1523148366307892,-9,-1,18,60,32,12,6,1
1523148366321774,8,-7,-11,-35,-22,-9,-5,-3
1523148366321774,5,1,13,59,14,1,-1,4
1523148366328793,5,4,4,96,20,9,4,-5
1523148366328793,-12,-5,-26,-54,-40,-12,-7,-1
1523148366345002,27,3,10,42,8,1,3,5
1523148366345002,11,0,11,73,28,1,3,0
1523148366346838,-9,-6,-19,-105,-32,-3,-6,0
1523148366346838,-6,-6,7,33,18,2,2,-1
1523148366359110,0,6,-1,41,10,2,0,-4
1523148366359110,-33,-2,-8,-98,-23,-10,0,1
1523148366367898,-21,-13,-6,16,-4,-2,-6,-8
1523148366367898,17,12,16,89,25,8,7,8
1523148366382435,16,-7,-10,-98,-21,-7,-6,-8
1523148366382435,3,6,6,18,9,1,-2,7
1523148366383940,-3,-3,-8,-6,-9,-4,1,11
1523148366383940,-12,0,-1,-50,-8,0,-3,-7
1523148366405558,9,3,10,38,13,4,7,3
1523148366405558,25,0,0,27,2,3,-3,4
1523148366406999,-4,0,2,7,-5,-3,0,-9
1523148366406999,0,-1,-9,-38,0,-6,-5,-3
1523148366418532,-10,3,8,-4,-2,-2,0,3
1523148366418532,6,-1,-1,23,-3,-1,-1,-4
1523148366427554,5,8,13,-6,3,-2,-2,-1
1523148366427554,-8,4,-9,-14,-1,-1,-2,-3
1523148366442598,-5,-6,-5,-32,-10,-4,-3,-1
1523148366442598,-4,-1,-1,-5,2,3,0,0
1523148366444098,14,0,5,65,-2,-1,0,-1
1523148366444098,-7,0,3,33,5,-2,-3,-1
1523148366465188,-13,-4,-3,-17,0,4,2,3
1523148366465188,26,10,0,-13,-4,-2,-2,-1
1523148366466662,50,5,-7,-7,-1,-1,3,3
1523148366466662,16,1,4,8,1,-2,0,4
1523148366487713,-18,-3,-2,-5,-2,-3,-5,-4
1523148366487713,-17,-9,-3,12,-2,-7,-3,-10
1523148366489223,-3,-10,-15,-46,-8,-5,-5,-2
1523148366489223,4,-5,2,15,4,3,4,-4
1523148366502564,17,6,5,-23,-3,3,2,10
1523148366502564,3,-3,-4,-11,-1,0,0,1
1523148366504063,-13,0,-8,-27,-9,-7,-5,-9
1523148366504063,-3,0,7,49,4,-1,-2,-2
1523148366525120,-9,-4,-5,-28,-4,-3,0,-4
1523148366525120,-1,-1,1,0,-5,-1,-2,-2
1523148366526431,-16,-2,-1,-23,-4,-2,-1,-1
1523148366526431,-6,-1,-7,29,10,-3,0,-1
1523148366547488,-1,-5,-2,22,1,3,1,-3
1523148366547488,-11,-9,-14,-35,-7,-3,-2,0
1523148366548996,-2,1,3,-16,-1,-3,-3,-2
1523148366548996,-1,0,7,-12,-1,0,-2,0
1523148366562588,-4,1,-2,26,-2,2,3,-1
1523148366562588,-10,-2,-5,-31,-1,0,-1,0
1523148366564033,15,1,-1,20,3,-2,0,-3
1523148366564033,1,-4,-4,-12,0,-2,-2,4
1523148366585060,-1,-1,-5,25,0,0,-2,-2
1523148366585060,-7,3,3,12,5,2,2,-2
1523148366586413,-10,-9,-6,-13,-7,-4,-1,12
1523148366586413,-9,-5,3,2,-2,1,-1,-19
1523148366607544,7,6,3,-5,0,-3,-5,-8
1523148366607544,22,-1,1,0,-2,0,27,38
1523148366608973,-13,18,-2,-6,-3,-2,-24,-75
1523148366608973,6,-6,2,-5,1,1,-11,29
1523148366622197,11,-4,4,4,1,-1,4,-17
1523148366622197,-5,22,0,6,-2,-1,0,0
1523148366636166,-29,-1,-5,-32,-6,0,5,-19
1523148366636166,-7,-52,3,-8,-1,0,-10,20
1523148366645405,6,23,-7,-6,-3,-3,-4,-72
1523148366645405,-24,-40,-32,28,7,-2,-9,10
1523148366646692,53,-9,-3,0,0,-1,25,73
1523148366646692,-79,19,4,0,-1,1,-4,-38
1523148366667845,14,16,-2,-5,-2,-3,0,44
1523148366667845,-53,21,12,11,5,1,-1,-89
1523148366669250,19,10,1,11,0,0,-9,15
1523148366669250,44,-39,-16,-8,2,3,7,-63
1523148366682021,-20,-6,-7,2,-7,-7,-6,71
1523148366682021,12,20,-6,-9,-4,-3,-2,24
1523148366688981,24,-13,-7,-3,-2,-2,-2,21
1523148366688981,-17,3,10,1,-1,0,11,21
1523148366712887,20,14,-4,2,-2,-1,-7,-63
1523148366712887,32,-24,6,-9,-6,-1,-1,8
1523148366714370,-4,6,0,-1,-4,-4,-10,-3
1523148366714370,5,24,2,-9,-5,-5,0,15
1523148366727597,-28,-16,-1,-2,-3,-5,-7,-18
1523148366727597,-10,6,-2,-6,-7,-3,-4,-15
1523148366728910,9,-19,0,48,13,4,7,14
1523148366728910,5,19,-5,-45,-18,0,6,-1
1523148366741943,18,-9,6,5,0,2,3,15
1523148366741943,18,14,14,6,8,-2,-5,1
1523148366749079,-12,2,-3,53,0,6,10,-1
1523148366749079,24,9,2,18,-3,-3,-5,1
1523148366765331,-6,-5,11,95,30,-3,-2,13
1523148366765331,-1,-18,-20,-113,-46,-11,-8,14
1523148366766826,-21,-2,3,-18,0,-7,-8,-10
1523148366766826,0,4,3,15,5,15,5,1
1523148366787662,-10,-13,-17,-58,-22,-8,-2,2
1523148366787662,6,6,30,127,38,6,4,1
1523148366789164,-18,-4,-5,-3,-17,0,0,-13
1523148366789164,-7,4,-15,-53,-16,-9,-4,-11
1523148366802968,-21,1,15,-12,21,10,-1,3
1523148366802968,1,-7,-9,-11,-16,-12,-7,9
1523148366810486,-24,2,4,-41,7,5,4,-11
1523148366810486,-14,4,13,63,16,1,4,46
1523148366825022,25,-4,-13,-25,-21,-9,-2,-6
1523148366825022,1,-6,5,22,11,6,-1,-5
1523148366826528,-10,-1,-4,-24,-2,-5,-5,-8
1523148366826528,7,-3,10,81,11,2,1,-12
1523148366847840,-18,-2,1,-7,-7,-2,3,3
1523148366847840,29,5,4,-23,7,5,3,12
1523148366849087,-11,-3,-4,-51,-11,1,0,-3
1523148366849087,-13,-5,-10,-24,-14,-12,-12,-22
1523148366862125,5,-2,3,31,1,3,3,8
1523148366862125,-6,-6,-6,-16,-3,2,1,-5
1523148366868642,2,3,7,92,13,1,3,2
1523148366868642,20,9,16,41,22,5,10,16
1523148366884972,-4,-11,-29,-25,-31,-10,-5,-1
1523148366884972,-12,-3,-5,26,-2,0,-6,-14
1523148366886476,-32,5,19,84,28,6,6,19
1523148366886476,3,-1,-17,-24,-28,-7,-7,-7
1523148366907591,1,-4,4,14,9,7,2,-22
1523148366907591,-1,-4,-7,-7,-5,-4,-3,40
1523148366909093,-2,-7,-6,10,-1,-5,-3,-8
1523148366909093,-5,0,4,44,8,0,-3,-2
1523148366921842,2,2,0,-6,-3,-1,0,2
1523148366921842,5,11,0,25,1,1,2,-13
1523148366928644,-13,-11,-4,-80,-13,-3,-2,-6
1523148366928644,6,3,-2,16,2,-1,1,-9
1523148366945009,9,-6,10,23,5,4,3,10
1523148366945009,-3,13,4,-12,4,-2,-1,-9
1523148366946514,-18,0,-5,-21,-11,-4,-4,-5
1523148366946514,15,-3,-5,-41,-1,-2,0,-4
1523148366967569,-8,-1,7,43,12,4,0,25
1523148366967569,1,-10,-15,-36,-18,-2,-1,1
1523148366969073,13,-3,-1,15,-2,-4,-7,-17
1523148366969073,6,-1,-3,-37,-6,-4,-4,8
1523148366990189,-21,4,1,-13,4,-1,2,-6
1523148366990189,1,-6,1,0,3,4,3,-6
1523148366991448,24,-6,-14,4,-7,-6,-5,-3
1523148366991448,-6,1,2,6,3,0,-2,-10
1523148367004984,2,1,5,-35,-5,-3,0,20
1523148367004984,-5,-6,-11,-22,-9,-6,-5,-8
1523148367006486,5,1,-2,3,-1,0,1,2
1523148367006486,-5,-1,3,11,5,2,3,2
1523148367027541,7,1,4,43,3,0,-2,-9
1523148367027541,-3,-3,-2,-12,-7,-5,-4,-2
1523148367029044,7,0,1,18,10,1,2,-1
1523148367029044,-16,-5,-5,-20,-3,1,3,2
1523148367041080,-3,-10,-13,0,-10,-4,-5,-5
1523148367041080,-5,-2,5,38,12,3,-1,-9
1523148367050105,6,1,-4,-3,-8,-3,-3,-3
1523148367050105,-6,9,-10,-16,-4,-4,0,-2
1523148367065350,-9,-1,2,-10,3,4,-1,-14
1523148367065350,8,-3,1,18,-1,0,0,9
1523148367066645,-8,9,7,63,3,2,3,8
1523148367066645,18,-9,-6,45,-12,-4,-7,-4
1523148367087705,7,5,-3,21,5,0,4,6
1523148367087705,1,-18,-11,7,2,2,0,4
1523148367089204,-1,-5,-1,-17,-2,-6,-7,-11
1523148367089204,12,-6,-1,4,-7,-3,0,0
1523148367101239,-9,-5,1,-12,5,2,0,-8
1523148367101239,-10,0,-6,7,-3,-3,1,-3
1523148367110264,23,-1,-4,-29,-6,-1,-1,-2
1523148367110264,1,-2,1,-10,2,1,0,-2
1523148367125531,4,0,-21,-14,-8,-4,-2,0
1523148367125531,22,8,16,-2,1,3,7,3
1523148367126806,-13,9,15,-22,-8,0,-4,-6
1523148367126806,-62,-3,18,-9,-3,-1,-6,10
1523148367147359,18,4,-1,14,1,3,3,-5
1523148367147359,-13,32,-9,-19,-4,-2,13,33
1523148367148863,-41,-61,-3,-13,-19,-7,-17,-26
1523148367148863,-43,-21,8,11,13,10,9,29
1523148367160895,94,14,-5,2,-5,-10,-11,7
1523148367160895,-13,-3,23,1,-3,-6,-11,-22
1523148367169918,-15,18,-15,-12,2,-1,3,35
1523148367169918,-40,-49,-15,-9,-4,-5,-4,-16
1523148367184958,-19,7,-12,-18,-12,-11,-14,-5
1523148367184958,59,15,6,0,1,1,3,4
1523148367186462,3,4,1,6,6,2,-9,-24
1523148367186462,30,28,5,0,-1,-3,-9,-7
1523148367207519,-39,-11,11,17,8,5,18,2
1523148367207519,17,-17,-5,5,-3,0,-14,-10
1523148367209023,2,11,-7,-8,-2,-2,6,-2
1523148367209023,17,7,-1,14,5,1,1,3
1523148367221054,-2,0,0,-37,-4,0,-1,-6
1523148367221054,-26,3,-9,-19,-5,-2,3,-4
1523148367230081,11,-5,2,7,6,4,7,10
1523148367230081,10,13,-6,-3,4,2,-1,-6
1523148367244114,0,8,6,8,-2,1,2,8
1523148367244114,-22,-8,-1,35,4,-4,-8,-11
1523148367251133,-2,0,-10,-14,-9,-4,1,10
1523148367251133,49,6,-8,7,-5,-5,-2,-4
1523148367267202,-25,-4,10,25,13,7,3,-5
1523148367267202,-18,-20,-14,-7,-11,-4,-3,0
1523148367269207,11,7,1,-16,-12,1,2,-8
1523148367269207,6,16,14,90,19,3,3,2
1523148367281303,-28,-14,-11,-22,-14,-5,-4,4
1523148367281303,-8,0,5,-6,-6,-5,-3,-21
1523148367290263,18,10,12,70,31,5,1,7
1523148367290263,-9,-5,-26,-95,-36,-10,-5,-6
1523148367304327,-48,-5,6,81,15,5,-2,-2
1523148367304327,-5,-7,-3,-55,-4,5,3,2
1523148367311339,-31,-14,-15,-31,-17,-12,-6,-11
1523148367311339,-7,7,5,-9,2,-1,-4,2
1523148367327387,8,-2,4,12,4,-1,0,-6
1523148367327387,0,3,-3,-31,3,3,4,7
1523148367329366,-1,2,-2,26,-5,3,-1,-2
1523148367329366,-1,-3,-3,-5,1,-3,-1,-31
1523148367341461,16,3,15,78,17,2,-1,37
1523148367341461,-33,-11,-27,-49,-36,-8,-8,-12
1523148367349923,25,9,13,23,3,-2,0,4
1523148367349923,3,-4,-2,71,2,-1,2,1
1523148367364501,3,4,7,15,11,4,-1,-8
1523148367364501,-20,-1,8,-3,4,0,2,3
1523148367370980,22,0,-5,26,2,-4,-1,2
1523148367370980,-6,-2,2,-8,-3,1,2,9
1523148367387527,8,0,-2,16,1,-1,0,6
1523148367387527,1,-1,-3,-24,-7,-2,-3,4
1523148367389025,-1,-5,-11,2,-8,-3,-1,-8
1523148367389025,-11,-7,-2,22,12,3,-1,3
1523148367410109,-4,-8,-10,-41,-12,-7,-4,-13
1523148367410109,14,0,18,127,32,6,4,-1
1523148367411614,-17,-4,-19,-79,-30,-6,0,0
1523148367411614,18,-6,0,0,-7,-2,-3,-1
1523148367425148,-21,10,-5,-9,-7,-2,0,-9
1523148367425148,-1,-3,-5,41,1,-4,-3,-3
1523148367426651,12,3,11,19,18,8,6,6
1523148367426651,16,11,-7,-23,-3,-3,-1,4
1523148367447947,37,-6,-5,-31,-10,-2,-1,-5
1523148367447947,-10,-1,1,-28,-2,-5,0,-4
1523148367449211,19,18,2,-10,3,-1,-6,3
1523148367449211,-4,-5,2,-15,-5,-2,1,1
1523148367470267,-3,1,9,42,9,2,3,5
1523148367470267,5,-1,-8,-39,-8,-2,-2,-2
1523148367471775,-7,-6,-2,27,1,-2,1,-1
1523148367471775,-1,7,4,16,8,4,5,-4
1523148367485098,-4,-3,-3,-19,-9,-4,-7,0
1523148367485098,4,3,13,74,11,3,-2,-1
1523148367486600,-11,-9,-6,-29,-5,0,2,5
1523148367486600,32,-3,-5,6,3,1,-4,1
1523148367507656,-16,-2,1,-4,-6,-3,-2,-10
1523148367507656,6,3,1,19,3,0,-3,6
1523148367509157,-8,1,4,-30,3,0,-2,-6
1523148367509157,-2,-7,-7,-20,-10,-5,-1,3
1523148367530212,20,4,1,18,1,3,3,-3
1523148367530212,-28,-4,3,-47,-3,-1,-3,-3
1523148367531718,1,-2,0,18,6,3,0,0
1523148367531718,-15,-2,-8,-9,-1,-3,-3,3
1523148367544753,-7,-5,-8,-19,-6,-8,-2,-1
1523148367544753,52,-2,0,20,4,2,-2,-1
1523148367551269,-12,-7,5,11,5,6,4,1
1523148367551269,-12,4,8,-13,-2,1,0,0
1523148367567313,-5,2,7,44,1,-3,-2,-2
1523148367567313,-9,0,-27,-14,-12,-7,-3,-4
1523148367569318,-3,-4,7,20,-1,-4,-3,-2
1523148367569318,7,-2,-9,9,0,0,-1,3
1523148367590089,1,-4,-4,-9,-3,2,1,3
1523148367590089,18,-1,-4,21,4,0,-1,-2
1523148367591877,16,7,-7,-33,-6,-5,-4,-1
1523148367591877,-18,8,9,9,0,3,7,-29
1523148367604412,53,-7,-4,-30,-3,-2,-7,24
1523148367604412,-16,15,6,7,3,2,1,-11
1523148367611171,8,-5,3,6,-7,-3,4,27
1523148367611171,17,-16,-3,16,5,0,-5,-3
1523148367627524,17,-5,18,-15,-1,-1,3,-5
1523148367627524,36,19,-18,-2,-13,0,6,4
1523148367629876,-26,-9,9,18,3,2,-8,15
1523148367629876,-24,-7,-25,-9,-4,-6,-7,-20
1523148367650179,12,8,25,-8,5,3,-1,-13
1523148367650179,81,27,2,-1,-3,0,3,36
1523148367651434,-65,0,-11,-15,-9,-5,-3,-41
1523148367651434,-17,9,1,5,-4,-2,8,22
1523148367664472,-47,-45,-12,-5,-1,-1,-12,-13
1523148367664472,0,-4,7,13,8,2,-7,-27
1523148367670987,22,-28,-7,8,4,3,11,-17
1523148367670987,31,6,10,-2,-1,-2,-7,5
1523148367687527,-39,-5,-22,-3,-4,-2,1,-4
1523148367687527,-2,-5,13,1,2,-1,2,6
1523148367689032,4,2,-4,0,0,0,4,-1
1523148367689032,-63,-14,3,3,3,2,-3,-17
1523148367710087,37,16,-8,-15,-10,-4,7,-6
1523148367710087,-95,-22,1,16,7,0,-10,-29
1523148367711592,-5,21,-7,-14,-1,-2,-6,15
1523148367711592,3,0,11,14,0,0,2,-1
1523148367724626,-18,1,-14,-39,-14,-6,-2,5
1523148367724626,-1,-7,11,21,13,1,-3,10
1523148367731645,15,-9,-14,25,-14,-7,-1,-1
1523148367731645,-6,7,7,10,7,4,-2,11
1523148367747936,-2,7,5,47,19,4,3,0
1523148367747936,-27,-24,-35,-88,-45,-16,-7,-3
1523148367749191,17,5,11,52,17,4,0,6
1523148367749191,17,5,2,65,4,2,-1,2
1523148367770005,-20,-6,-26,-56,-28,-5,-3,-8
1523148367770005,-8,-3,5,56,10,-1,1,-5
1523148367771756,25,15,16,70,23,4,-1,-3
1523148367771756,3,-11,-36,-82,-51,-15,-7,0
1523148367784090,13,2,18,92,26,6,2,0
1523148367784090,-10,7,3,6,-3,-3,-5,18
1523148367791342,-6,-8,-13,-49,-27,-10,-10,-5
1523148367791342,-2,0,35,127,43,8,3,3
1523148367807651,10,-14,-43,-70,-49,-19,-8,-28
1523148367807651,-33,6,4,58,11,13,7,25
1523148367809157,4,-3,13,39,14,5,2,-9
1523148367809157,7,-3,16,52,17,3,0,5
1523148367830212,-15,2,-26,55,-10,-10,-10,-5
1523148367830212,3,-8,7,35,13,-1,3,-4
1523148367831718,-2,-6,-13,-110,-21,-6,-1,-11
1523148367831718,-15,9,1,15,0,-2,2,30
1523148367844506,8,12,19,11,14,7,6,10
1523148367844506,13,1,6,89,9,2,0,-12
1523148367851272,4,3,-4,59,10,2,-1,11
1523148367851272,10,2,-7,-31,-5,-5,-2,-16
1523148367867663,-23,7,22,85,15,7,2,9
1523148367867663,10,3,-9,-103,-15,-6,-1,4
1523148367869169,-39,3,-1,29,4,-1,1,-12
1523148367869169,-32,-8,-13,-33,1,-1,-4,-7
1523148367890323,-3,-2,0,7,-4,-3,-4,-1
1523148367890323,4,2,5,17,6,4,0,-1
1523148367891574,-31,-12,0,10,2,-2,1,-5
1523148367891574,12,8,-5,19,-8,-1,0,-3
1523148367903606,-3,1,4,-22,10,3,2,25
1523148367903606,10,-9,-10,4,-14,-8,-7,-13
1523148367912629,9,6,1,-19,-4,1,-1,-1
1523148367912629,3,-5,8,42,13,3,2,4
1523148367927917,-3,-3,-7,-74,-8,-3,-2,-12
1523148367927917,-3,-7,-1,6,-3,-3,0,23
1523148367929175,-2,-4,3,58,1,1,1,6
1523148367929175,3,3,1,-20,1,1,-3,-16
1523148367950026,17,-15,-19,7,-8,-7,-5,1
1523148367950026,17,1,12,29,7,3,3,-8
1523148367951531,9,-6,-19,25,-11,-3,-1,3
1523148367951531,-22,0,4,30,1,-1,-2,-17
1523148367963562,0,-2,-13,-96,-20,-4,-2,-21
1523148367963562,11,17,4,20,3,0,-3,4
1523148367972586,3,-5,11,8,9,1,-1,0
1523148367972586,19,-5,-5,-22,-14,-3,-1,-2
1523148367987876,-11,1,6,41,12,5,4,-7
1523148367987876,-4,12,-7,-19,-6,-3,-4,3
1523148367989131,12,4,5,10,1,-1,-1,2
1523148367989131,-5,-5,-7,-32,-9,-4,-5,2
1523148368009967,-3,8,16,10,5,2,-2,1
1523148368009967,-8,-12,-11,0,-1,2,6,-5
1523148368011473,-38,16,-1,-27,-8,-4,-7,-10
1523148368011473,10,0,3,-7,-4,-1,-1,6
1523148368023747,0,3,0,5,-6,-4,-4,2
1523148368023747,1,-10,2,5,4,2,0,-11
1523148368032531,-14,-3,-6,-19,2,4,6,9
1523148368032531,-12,-18,-8,-18,-10,-6,-6,-8
1523148368047602,-6,3,12,11,10,1,-2,2
1523148368047602,-3,-7,-13,-25,-10,-4,-1,-2
1523148368048857,5,-4,3,21,9,-1,-3,-1
1523148368048857,9,9,11,5,3,3,2,9
1523148368070415,17,-8,-15,-36,-10,-3,-1,4
1523148368070415,-22,-5,-1,0,0,1,-2,-7
1523148368071920,34,2,8,-20,-2,-2,-3,5
1523148368071920,-16,-35,-10,21,1,0,1,52
1523148368083699,-6,3,11,34,5,0,-1,-2
1523148368083699,-54,-14,0,-16,1,4,3,-11
1523148368092472,87,-12,-34,20,4,-4,3,11
1523148368092472,9,41,0,-27,-6,-5,-5,-25
1523148368107568,-35,-13,-8,11,-1,0,-4,9
1523148368107568,12,-56,0,-3,2,-1,-1,20
1523148368109317,-24,18,9,-1,0,-1,-6,-28
1523148368109317,-14,-12,-6,-13,-9,-7,-3,7
1523148368130379,30,22,-1,13,9,9,8,3
1523148368130379,-9,27,4,7,-2,-4,-6,-21
1523148368131881,-3,-42,25,-7,-1,0,4,0
1523148368131881,47,9,-21,-16,-7,-3,2,12
1523148368143415,5,-5,14,15,-2,0,2,-8
1523148368143415,-30,-1,-9,-6,-4,-4,-9,13
1523148368152433,9,12,1,-14,-8,-5,-15,14
1523148368152433,-11,7,10,1,5,3,0,-18
1523148368167474,26,9,6,10,2,-1,4,3
1523148368167474,15,11,-1,-1,-4,-4,4,-10
1523148368168977,-41,5,-7,-9,-4,-1,-4,-1
1523148368168977,-5,-11,-1,2,2,3,2,-3
1523148368190349,-11,-1,-5,5,-1,-3,-8,9
1523148368190349,21,29,1,-5,-1,-4,-2,-12
1523148368191790,-46,-20,-5,-7,-2,3,1,-13
1523148368191790,7,3,14,6,-1,1,1,25
1523148368203959,-4,-3,-6,2,3,0,1,-10
1523148368203959,3,5,1,7,-1,-3,-4,0
1523148368213029,29,26,1,1,2,0,2,-3
1523148368213029,-15,6,22,81,5,0,0,-13
1523148368227977,-16,-14,-17,-14,-14,-10,-7,-7
1523148368227977,20,-3,4,13,6,2,-1,8
1523148368229607,4,9,-3,19,3,1,0,4
1523148368229607,-2,-9,1,60,18,6,2,-13
1523148368250476,-11,-4,-10,-84,-30,-11,-8,3
1523148368250476,30,-3,-2,30,5,-1,-1,-5
1523148368251475,-4,2,16,24,22,4,4,-4
1523148368251475,0,-1,-17,-62,-38,-7,-2,-3
1523148368263948,10,-3,-3,9,-1,2,-1,-2
1523148368263948,0,3,1,17,0,-1,-1,-1
1523148368272475,-5,-5,-8,-18,-5,-4,-2,0
1523148368272475,-7,3,-8,-50,-3,-3,-2,-6
1523148368288018,-11,7,-1,21,6,1,2,6
1523148368288018,-26,-14,7,-26,-10,0,1,-3
1523148368289019,31,6,18,101,20,3,0,3
1523148368289019,7,-3,-25,-81,-22,-5,-5,1
1523148368310075,-50,-32,0,55,7,0,1,-8
1523148368310075,-29,-1,-9,-43,-3,-2,-1,4
1523148368312079,9,-2,0,29,8,1,-2,1
1523148368312079,-9,-7,-2,-22,3,-1,-2,-9
1523148368332977,8,4,-9,-27,-28,-4,-1,-6
1523148368332977,15,12,14,54,7,0,0,35
1523148368333886,-10,-4,-10,21,-6,-1,-1,-3
1523148368333886,6,-9,-19,11,1,-2,-3,-5
1523148368347802,-7,5,15,66,28,9,4,3
1523148368347802,3,-3,2,-57,-12,-4,-2,-14
1523148368349431,-11,-11,-13,-33,-19,-3,-2,-4
1523148368349431,-7,-3,-2,-22,4,-2,-1,0
1523148368369020,12,7,9,24,11,3,2,0
1523148368369020,8,-13,-14,-35,-13,-1,-1,-5
1523148368377432,-21,2,-3,-13,0,-3,-3,-1
1523148368377432,-31,-7,6,15,4,3,3,-4
1523148368392473,20,8,-8,-12,5,-3,-5,-2
1523148368392473,0,-2,3,4,2,-1,1,-7
1523148368393976,4,-1,0,-57,-14,-3,-1,-1
1523148368393976,7,4,6,34,4,-2,-1,0
1523148368407511,-20,-3,-2,12,1,4,1,-4
1523148368407511,4,-1,-8,0,0,0,0,-2
1523148368409016,1,0,3,8,-6,1,1,0
1523148368409016,-29,1,-1,22,3,-1,-2,-4
1523148368430260,12,-1,7,27,10,0,-1,2
1523148368430260,11,-1,-4,-33,-9,-3,-1,-7
1523148368431973,-7,-4,-1,1,-2,-2,0,-1
1523148368431973,20,0,-2,-44,-13,-2,0,0
1523148368452859,-10,2,4,21,15,0,-3,2
1523148368452859,-4,1,0,22,1,3,0,-5
1523148368454326,0,1,-6,-18,-9,-2,0,-2
1523148368454326,12,0,10,47,11,1,-1,-1
1523148368467358,-5,-8,-4,-52,-13,-4,0,-1
1523148368467358,37,7,-4,23,2,-3,-3,-2
1523148368469472,17,0,-2,-9,-4,0,1,1
1523148368469472,12,4,15,34,6,3,2,0
1523148368490111,-8,-6,-11,-5,-9,-5,-3,-2
1523148368490111,22,-2,3,28,6,0,-2,-2
1523148368491615,-5,-4,-9,-24,-9,-3,-1,-1
1523148368491615,5,1,6,15,5,-3,0,1
1523148368512865,14,4,5,-23,0,5,4,1
1523148368512865,-29,-8,-6,26,-5,-4,-3,-4
1523148368513870,6,3,-6,-15,-5,-3,-5,-1
1523148368513870,11,1,-7,-13,1,-1,-2,-1
1523148368526904,-39,-4,10,30,6,0,0,-1
1523148368526904,-6,-5,-14,-48,-18,-7,-4,-1
1523148368533618,-27,-2,2,7,7,-2,0,0
1523148368533618,12,-4,-7,-6,-4,-2,-4,-4
1523148368550164,41,1,-2,-8,-4,-2,0,-2
1523148368550164,-7,0,5,21,8,3,2,1
1523148368551672,1,1,-3,-9,-2,1,0,2
1523148368551672,-8,-5,-5,-19,-4,-3,-5,-8
1523148368572740,0,-3,5,10,-5,-2,-2,2
1523148368572740,-4,3,5,23,6,0,0,-2
1523148368574228,5,-4,-9,-51,3,5,5,0
1523148368574228,23,9,-6,-39,-6,0,-1,-5
1523148368586932,23,-19,-4,-3,-5,-3,-1,7
1523148368586932,-5,-1,8,17,2,-5,-5,-4
1523148368593946,-2,-7,-2,-9,-7,-3,-5,-5
1523148368593946,-13,-5,-2,14,4,4,5,2
1523148368610324,-13,10,-8,-10,-1,-1,-2,3
1523148368610324,-2,-1,-4,-8,-1,0,0,-1
1523148368611945,5,2,0,24,-3,-5,-3,-1
1523148368611945,-7,1,-2,-11,-2,0,2,1
1523148368632466,19,44,5,-1,-3,-5,-5,-1
1523148368632466,11,-18,1,27,8,4,3,3
1523148368634298,-5,5,5,-2,-6,0,2,-2
1523148368634298,-25,-31,-6,21,2,0,1,-4
1523148368654904,71,18,1,-7,-10,-4,-3,6
1523148368654904,-2,1,-5,-15,4,-1,-3,-5
1523148368656355,-39,-16,-4,22,4,2,3,27
1523148368656355,50,19,-4,-1,-3,-3,2,0
1523148368679287,11,7,15,0,-2,1,0,-59
1523148368679287,35,-15,17,6,11,3,-5,83
1523148368680624,17,14,-32,-19,-17,-4,-3,-14
1523148368680624,-63,-71,-10,6,-6,-10,-20,-79
1523148368692563,60,14,4,9,9,4,9,89
1523148368692563,-80,-16,3,-2,3,3,19,-80
1523148368694470,48,34,28,10,2,1,-8,76
1523148368694470,36,35,-35,9,-1,-1,6,35
1523148368707079,-60,-36,-16,-11,-12,-8,-14,-38
1523148368707079,10,-20,-4,-6,-2,-5,-8,-34
1523148368713979,-10,-11,8,17,7,1,4,-3
1523148368713979,-9,22,12,-8,1,7,11,5
1523148368730173,-98,-16,8,11,3,-1,-1,-22
1523148368730173,18,13,-11,-19,-11,-3,0,18
1523148368731502,-27,-15,3,11,-1,-6,-3,-39
1523148368731502,2,10,6,-5,0,5,0,17
1523148368752792,4,-20,-13,-13,-1,4,5,2
1523148368752792,13,-2,-6,27,7,3,0,17
1523148368754256,-11,9,0,-47,-9,-8,-6,-24
1523148368754256,-8,0,17,4,3,-4,-4,1
1523148368766789,3,-1,-2,-14,1,-2,0,18
1523148368766789,-7,13,-10,15,-17,-4,-4,-12
1523148368773808,14,-1,19,50,16,4,5,-5
1523148368773808,5,-14,-50,-53,-34,-9,-6,8
1523148368790351,-3,-3,1,33,3,-1,-1,-8
1523148368790351,3,13,12,50,20,1,0,3
1523148368792024,-2,-15,-7,-32,-5,-4,-3,-12
1523148368792024,-8,-4,-12,-52,-35,-8,-2,6
1523148368812482,2,6,2,5,2,-5,-2,-3
1523148368812482,-9,3,-7,-13,-2,2,0,0
1523148368814421,2,-2,8,39,12,7,4,3
1523148368814421,2,6,19,13,-4,10,5,4
1523148368826122,-27,-5,-11,-33,-7,-5,3,-10
1523148368826122,63,12,14,-13,2,-5,-10,2
1523148368834970,-11,-5,-10,-3,-1,-13,-6,-10
1523148368834970,1,4,12,24,18,12,1,4
1523148368850203,5,-4,0,27,5,7,6,-2
1523148368850203,-2,3,27,99,31,7,5,2
1523148368851708,-4,-13,-19,31,-36,-8,-6,-5
1523148368851708,7,2,6,51,7,-9,-5,-4
1523148368872466,24,2,10,30,1,0,-2,8
1523148368872466,-10,2,-6,-18,8,5,2,0
1523148368874577,-36,-5,-4,-31,-5,5,2,-7
1523148368874577,5,33,16,21,5,-2,2,0
1523148368886220,-13,-3,9,-19,10,1,2,8
1523148368886220,-8,-3,-12,-31,-20,-5,-3,-3
1523148368895071,-11,-1,0,11,5,0,2,6
1523148368895071,-12,-3,1,-20,1,-1,-3,-6
1523148368910278,-18,-3,-3,14,2,1,-5,-16
1523148368910278,-12,-2,-7,-35,-16,-4,0,-4
1523148368911615,39,13,-9,-41,-10,4,4,15
1523148368911615,19,-1,10,13,18,-2,4,14
1523148368932572,-47,-7,3,39,3,0,-7,-27
1523148368932572,1,-6,-13,-22,-21,-9,-10,-8
1523148368934390,9,-6,-7,-24,-5,-7,-3,-5
1523148368934390,-29,-2,8,18,6,6,5,19
1523148368946568,20,-6,-3,63,-1,-3,0,-1
1523148368946568,-6,-5,-8,-24,-20,-5,-2,-2
1523148368954944,-8,26,2,82,10,0,2,-22
1523148368954944,-5,-62,-7,-10,-5,-5,-8,0
1523148368970194,15,2,6,40,3,-1,-1,12
1523148368970194,-18,9,11,74,24,8,6,-16
1523148368971687,-22,-8,-14,-68,-24,-2,2,0
1523148368971687,60,-8,-5,25,0,-5,-11,-4
1523148368993044,14,3,1,-14,-1,0,0,1
1523148368993044,-3,-8,3,-3,-3,-3,0,9
1523148368994641,-2,3,16,13,3,5,1,-6
1523148368994641,-19,12,4,41,15,-3,-1,-7
1523148369006564,20,-9,-7,-53,-10,0,1,11
1523148369006564,24,14,16,14,8,2,-2,-1
1523148369015325,2,-11,-25,-46,-12,-6,-4,-1
1523148369015325,16,1,4,37,2,0,-1,-10
1523148369029862,29,3,-15,-37,-7,-6,-3,10
1523148369029862,-4,2,-5,-11,-4,0,4,2
1523148369031868,-2,-5,15,10,6,0,-5,0
1523148369031868,-6,6,-5,-6,-5,-1,0,-7
1523148369052692,-11,0,-3,-16,-3,1,3,-1
1523148369052692,17,-6,-7,-4,0,0,5,1
1523148369054328,19,2,3,5,1,-4,-12,-9
1523148369054328,-23,3,11,15,9,5,0,-8
1523148369066360,-3,-2,-17,26,-10,-2,-2,-20
1523148369066360,-12,-8,4,0,-5,2,8,34
1523148369074882,1,-5,-3,16,6,-1,-2,-4
1523148369074882,-21,23,10,25,9,0,-3,0
1523148369089924,-27,-11,-1,44,-2,0,-2,-4
1523148369089924,-5,-7,-19,-77,-13,-9,-7,-10
1523148369091847,-27,32,10,34,11,3,8,6
1523148369091847,-27,-5,1,-19,-6,-1,-4,-1
1523148369113055,11,5,7,5,0,-1,-1,5
1523148369113055,-3,3,-3,-30,-3,-1,-5,-3
1523148369114696,6,-4,-7,24,1,-2,-1,6
1523148369114696,6,8,8,3,1,0,3,0
1523148369126774,-16,-38,-11,-31,-4,-1,2,2
1523148369126774,1,-1,14,30,-1,-2,-2,0
1523148369134917,-24,-11,-5,-19,-3,-2,-5,-6
1523148369134917,8,-10,-5,-2,-3,-2,4,-4
1523148369149955,52,7,2,-3,2,-3,-7,-18
1523148369149955,-67,-3,0,-10,-1,0,0,-4
1523148369151461,40,-27,13,10,0,-2,-2,40
1523148369151461,-35,-33,-18,-15,-3,0,3,-8
1523148369172517,-9,31,7,-4,4,-2,1,-2
1523148369172517,55,-20,-38,20,4,2,4,16
1523148369174672,-29,-28,-26,5,2,-2,-3,-16
1523148369174672,-41,30,10,3,-1,-1,1,-60
1523148369186300,-33,-4,11,-13,-4,-3,-13,21
1523148369186300,-41,26,9,6,-4,-4,-5,13
1523148369195632,90,-15,3,22,17,6,12,23
1523148369195632,-76,-26,-45,-27,6,-8,-10,-36
1523148369210848,-9,1,-24,-15,-12,-4,2,-40
1523148369210848,26,16,-10,-8,-7,-6,-11,12
1523148369212356,86,37,26,13,5,3,5,-5
1523148369212356,48,19,42,12,1,0,10,48
1523148369234180,70,36,9,-21,5,6,9,16
1523148369234180,23,-55,-6,-37,-7,0,-7,21
1523148369235686,14,7,-10,-61,-16,-4,-3,-18
1523148369235686,24,-11,-8,-5,4,1,8,23
1523148369255240,-11,-2,-21,-26,-16,-8,-14,37
1523148369255240,1,-3,16,28,-3,-5,3,-43
1523148369256742,-93,1,9,36,-3,-1,-6,-15
1523148369256742,18,3,-5,-39,1,-1,-1,20
1523148369270526,-11,-11,3,50,7,3,2,-24
1523148369270526,-14,15,6,-41,7,6,6,5
1523148369271780,-23,-6,2,8,5,-2,-5,-8
1523148369271780,9,7,-18,-7,-19,-5,-2,5
1523148369292699,-11,-16,7,63,12,3,4,8
1523148369292699,0,6,7,77,3,2,-1,-16
1523148369294342,-14,1,-9,2,-10,-1,-2,-3
1523148369294342,23,-12,1,43,0,-4,-3,-1
1523148369314394,8,5,9,50,12,-4,-4,5
1523148369314394,-18,-1,-25,-93,-33,-10,-5,-12
1523148369314897,-6,2,-1,59,21,2,3,-8
1523148369314897,16,9,4,-54,-13,5,-1,13
1523148369329436,-10,-3,3,61,2,3,5,1
1523148369329436,19,15,18,50,22,7,6,14
1523148369329936,-20,0,-10,-101,-21,-14,-7,6
1523148369329936,-37,-23,-14,-47,-17,-12,-17,-57
1523148369352315,12,21,22,47,19,5,4,-11
1523148369352315,0,-36,-10,-61,-11,-6,-4,27
1523148369352497,14,13,8,-45,-13,2,4,12
1523148369352497,-13,-2,2,88,14,0,-1,3
1523148369374052,-1,11,-1,-101,2,4,6,-1
1523148369374052,-13,4,-11,99,-10,-6,-5,-18
1523148369375057,-5,-11,2,61,8,2,-1,6
1523148369375057,6,27,3,23,14,4,2,9
1523148369390098,-18,-25,-8,31,-8,-3,-2,-3
1523148369390098,9,13,6,32,15,5,3,-1
1523148369397503,-20,11,-1,4,-12,-1,-4,-9
1523148369397503,26,7,9,101,11,3,1,2
1523148369412463,-11,0,7,66,-4,0,-1,10
1523148369412463,6,7,3,58,20,2,-2,-9
1523148369412658,-8,-8,-20,15,-27,-10,-7,-11
1523148369412658,7,3,9,-14,12,4,-1,2
1523148369434451,-44,-4,-2,-59,-6,1,6,8
1523148369434451,-42,-12,-15,5,-12,-8,-11,-31
1523148369434952,8,-5,5,15,20,4,1,-4
1523148369434952,12,-1,-7,26,-7,-2,-2,1
1523148369449437,33,-5,-8,-4,-7,-4,-5,2
1523148369449437,-13,4,1,3,5,2,5,-4
1523148369449939,0,-10,8,-34,4,4,1,2
1523148369449939,-3,-7,-15,-77,-24,-8,-3,2
1523148369472337,22,3,-7,-40,3,-3,-4,-1
1523148369472337,-20,-5,-15,-58,-17,-3,1,-1
1523148369472498,-2,5,7,63,12,0,-1,-4
1523148369472498,-8,-8,-2,-32,-7,1,-2,6
1523148369494056,-12,-1,-4,-26,1,0,-3,-6
1523148369494056,3,3,6,-8,1,1,3,13
1523148369495060,1,7,-1,53,12,1,-2,-8
1523148369495060,-11,-71,-13,-90,-17,-8,-6,-4
1523148369509305,4,2,-1,-3,-3,-3,-4,-29
1523148369509305,22,4,1,5,0,1,1,27
1523148369510107,-5,-4,3,85,13,7,3,3
1523148369510107,12,14,-6,-80,-22,-5,-1,3
1523148369531655,7,-6,-1,6,-6,-3,-2,0
1523148369531655,12,-9,-9,49,9,-2,-3,-8
1523148369532658,16,-4,4,31,5,3,1,-7
1523148369532658,-6,15,6,-10,2,1,-1,3
1523148369554432,-21,-15,-2,32,-11,-3,-3,-4
1523148369554432,11,12,1,-43,-5,-5,-3,-2
1523148369555218,-26,-8,1,-26,8,5,3,3
1523148369555218,-9,10,-3,48,7,5,5,-15
1523148369569465,30,5,11,21,3,3,0,23
1523148369569465,-10,0,-3,-51,-13,-9,-8,-15
1523148369570404,-1,-9,-13,-35,-3,-6,-3,-3
1523148369570404,18,12,7,45,10,5,3,-32
1523148369591971,-25,2,-3,-12,2,0,4,36
1523148369591971,0,14,-2,14,2,-1,-7,-14
1523148369592476,29,14,-2,-37,-16,-8,-4,1
1523148369592476,7,4,3,16,-2,-4,-1,26
1523148369614535,-2,-2,-11,-27,0,-2,-2,-7
1523148369614535,-33,3,21,26,3,-1,0,-9
1523148369615035,7,27,-1,-24,-8,-4,-1,-4
1523148369615035,-48,-4,24,52,12,1,0,-6
1523148369629340,59,7,-7,-22,-10,-5,-3,19
1523148369629340,22,-57,-39,-4,3,6,8,3
1523148369630612,-2,28,35,-10,1,1,-4,-31
1523148369630612,-24,-5,19,30,9,-5,-7,17
1523148369651898,1,-86,-36,-16,5,-2,-10,-20
1523148369651898,-7,74,-4,-2,-3,-4,2,-6
1523148369652641,-46,-78,-71,-16,-5,-8,-10,-43
1523148369652641,-4,-4,-10,-1,5,4,22,24
1523148369674338,11,51,37,-11,-5,-2,-5,-15
1523148369674338,-9,-2,11,17,1,1,10,-48
1523148369675196,7,8,15,-3,-6,1,-13,64
1523148369675196,-14,14,-17,10,-6,0,-5,-79
1523148369689233,74,84,5,-2,0,0,7,-4
1523148369689233,82,-8,12,-7,-1,0,8,9
1523148369690237,18,8,9,3,3,4,6,39
1523148369690237,8,-25,-5,1,-4,-5,-10,-20
1523148369711930,-26,-13,-4,-6,-3,-1,-2,-14
1523148369711930,-7,24,-18,-11,-6,-1,-9,6
1523148369712797,33,4,14,22,11,7,12,-22
1523148369712797,-1,6,-5,-18,-5,-4,-9,40
1523148369734354,-22,-11,-6,2,-2,-4,3,-15
1523148369734354,-16,-22,-9,10,9,2,-3,-3
1523148369735357,54,-16,-14,-4,-9,-11,-4,52
1523148369735357,46,28,8,24,2,3,-5,17
1523148369749395,-45,4,7,-36,-6,1,5,3
1523148369749395,-28,-38,-7,-13,2,-1,-3,-11
1523148369749894,-16,-16,-13,9,-9,-5,-5,-19
1523148369749894,21,-4,-3,4,6,1,2,4
1523148369772100,-1,-9,-2,40,-7,-2,-4,13
1523148369772100,16,12,25,80,10,1,1,17
1523148369772454,-11,2,0,13,2,3,8,-6
1523148369772454,-10,0,-4,44,-12,3,3,14
1523148369794558,-20,-13,4,13,13,3,-1,-13
1523148369794558,-26,-9,-6,-65,-9,-13,-7,2
1523148369795014,-20,1,-2,79,-6,2,-3,-12
1523148369795014,12,-3,-8,10,-3,-10,-5,-1
1523148369809373,-1,-4,-4,47,6,1,-2,-1
1523148369809373,-1,-6,-6,23,-12,0,-1,2
1523148369810240,-1,6,17,33,28,4,4,16
1523148369810240,7,8,7,-71,-12,-3,-4,-10
1523148369831938,33,-9,-4,-8,-1,-2,-4,-21
1523148369831938,43,6,15,-9,3,-2,2,61
1523148369832800,-44,-2,-8,-53,-15,-8,-8,-29
1523148369832800,-6,-1,18,127,16,11,4,3
1523148369854498,-32,-12,-16,52,-16,-10,-4,10
1523148369854498,46,12,7,60,2,2,0,-2
1523148369854858,7,5,14,62,23,8,3,-16
1523148369854858,-4,-6,-23,-67,-23,-17,-7,9
1523148369868920,-9,-4,11,19,16,6,8,-4
1523148369868920,-18,-11,-3,-9,-8,-1,-9,-9
1523148369877050,-7,6,3,29,9,0,-1,3
1523148369877050,-4,1,-4,-6,-6,-4,-2,-1
1523148369892093,-5,3,-3,-31,0,0,1,1
1523148369892093,-36,1,13,32,4,4,-2,-12
1523148369892458,-47,5,11,12,-1,-2,3,1
1523148369892458,10,-18,-18,-52,-15,-2,0,-6
1523148369914537,-5,-2,-9,9,-5,-4,-3,6
1523148369914537,-53,-11,-1,13,9,2,4,-11
1523148369915018,13,-2,-3,-45,-6,-3,-4,-10
1523148369915018,6,7,17,80,8,8,4,7
1523148369928668,-33,5,-1,-7,0,-1,-5,-6
1523148369928668,9,9,15,46,4,-2,0,4
1523148369937118,23,-4,-10,-33,-20,-2,1,-3
1523148369937118,-1,3,2,30,17,3,0,2
1523148369951785,-15,-8,-11,-49,-19,-4,-3,-2
1523148369951785,-4,-2,-28,-28,-8,-3,-5,-9
1523148369952619,5,1,-6,13,-6,-2,1,7
1523148369952619,6,-5,-1,-2,6,-1,-3,2
1523148369974318,2,1,20,32,16,7,5,2
1523148369974318,-8,-11,-10,-26,-16,-1,2,-7
1523148369975181,16,-1,-1,-21,-3,-3,-4,6
1523148369975181,-62,-1,0,-22,0,-3,-5,-12
1523148369988715,3,-5,-4,16,2,0,1,6
1523148369988715,16,0,10,-17,0,-1,-2,-4
1523148369996877,-4,15,7,-16,6,3,2,-12
1523148369996877,5,-5,-27,2,-33,-10,-4,5
1523148370011921,3,0,5,89,0,0,-3,-8
1523148370011921,25,6,7,44,8,4,-1,13
1523148370012920,-5,-5,-16,-7,-4,-2,1,-11
1523148370012920,19,2,19,17,14,1,-3,22
1523148370034016,-38,-6,-12,-48,-11,-8,-7,-4
1523148370034016,-4,-1,0,-29,-4,1,-1,-9
1523148370042174,8,-23,-2,18,4,0,1,1
1523148370042174,43,-16,-21,-7,8,2,-1,-14
1523148370048554,-39,-40,-7,-31,-15,-9,-6,8
1523148370048554,8,6,13,15,24,4,-2,1
1523148370057213,-6,-9,-9,-44,-17,-7,-2,2
1523148370057213,-28,-6,-4,-23,-3,2,9,-26
1523148370072116,24,17,10,-15,-4,1,-1,37
1523148370072116,1,-15,-10,12,-1,-3,-4,-5
1523148370072619,-16,4,8,50,4,-2,-4,-9
1523148370072619,9,6,-5,11,-4,-8,-2,-7
1523148370094318,33,19,5,7,11,7,5,-6
1523148370094318,-37,-20,-2,-12,-7,3,8,12
1523148370095180,11,13,18,22,5,2,-1,5
1523148370095180,-6,6,9,-49,-7,-3,-2,4
1523148370108857,12,-3,-1,6,6,-2,-2,-6
1523148370108857,-13,-1,-3,43,-1,-3,-4,1
1523148370116735,42,-15,-14,-29,-5,-3,-1,-5
1523148370116735,20,1,4,22,7,0,-1,11
1523148370131934,-4,-3,-9,-11,3,2,2,0
1523148370131934,21,18,3,-16,-11,-6,-7,-15
1523148370132778,-39,-51,-18,25,10,8,9,-4
1523148370132778,-50,21,-9,-14,-1,-3,-6,25
1523148370154337,100,52,14,-13,-6,7,11,16
1523148370154337,-41,-82,-37,-7,-13,-11,-10,-21
1523148370155339,-80,-2,-6,-19,-7,-3,-4,-25
1523148370155339,11,33,9,10,7,-1,-3,-24
1523148370168373,12,-8,11,-9,-13,-6,-7,11
1523148370168373,-36,40,-3,-7,2,3,4,-16
1523148370177040,39,3,4,-1,9,2,-5,25
1523148370177040,-10,-1,-54,-7,-17,-4,0,-18
1523148370192059,-39,-23,-6,10,-2,-1,3,-37
1523148370192059,24,31,26,-27,-3,0,-4,-18
1523148370192436,-1,0,16,1,-2,-2,6,9
1523148370192436,29,22,21,17,10,7,-1,22
1523148370214544,-29,-2,2,0,3,-2,-2,16
1523148370214544,-21,2,-1,-5,-4,-3,-5,-24
1523148370214998,-15,-18,-2,0,-6,2,3,2
1523148370214998,68,-7,4,22,1,-1,2,-15
1523148370237557,-62,-55,-33,-44,0,-2,-9,13
1523148370237557,8,-4,5,9,0,-4,1,8
1523148370238559,25,31,4,-4,-5,-2,-2,9
1523148370238559,-23,-12,24,62,24,11,9,-4
1523148370252188,19,-61,-33,-51,-35,-17,-12,-19
1523148370252188,14,10,9,90,18,5,1,19
1523148370252597,-15,5,-20,-75,-34,-12,-10,-10
1523148370252597,-13,-6,21,15,11,1,2,12
1523148370274297,31,59,-1,90,22,4,2,-9
1523148370274297,-6,-36,-3,61,1,5,5,21
1523148370275158,47,10,-2,23,-16,-4,-3,9
1523148370275158,-58,-16,-3,18,25,4,-3,-9
1523148370297854,-10,19,-1,-79,-38,-8,-1,4
1523148370297854,5,20,18,103,29,10,8,15
1523148370298218,-17,2,-8,-28,3,-1,2,-12
1523148370298218,7,-20,-8,3,-14,-5,-11,4
1523148370311879,27,13,66,127,83,20,9,-8
1523148370311879,3,-37,-94,-128,-111,-50,-16,-28
1523148370312758,-1,6,-2,58,11,20,2,24
1523148370312758,4,5,22,92,26,9,1,-3
1523148370334314,-18,-10,-45,-99,-68,-20,-4,-9
1523148370334314,11,0,20,24,24,7,-2,5
1523148370334816,5,14,28,51,20,-3,-2,-4
1523148370334816,7,-20,-34,-45,-19,-1,0,-1
1523148370357629,-8,-4,-10,49,-8,-3,-7,-6
1523148370357629,33,28,14,-37,-1,3,0,24
1523148370358379,42,14,-10,-20,-6,-6,-3,-3
1523148370358379,-1,-27,27,79,27,9,6,9
1523148370372149,-15,-5,-2,-32,2,-3,0,-8
1523148370372149,-13,8,1,-25,8,4,-1,-1
1523148370372415,-6,-1,13,98,9,2,1,-2
1523148370372415,2,2,-18,17,-31,-12,-7,-6
1523148370394473,17,13,0,43,7,0,-1,3
1523148370394473,-9,-7,0,3,7,3,2,-1
1523148370394976,20,-4,16,48,19,3,0,-10
1523148370394976,-5,12,-30,-78,-37,-15,-6,13
1523148370417537,4,1,12,12,2,3,1,4
1523148370417537,21,11,11,61,34,11,3,3
1523148370418037,-29,-17,-22,-85,-21,-11,-5,-12
1523148370418037,0,6,2,-25,-16,-4,-3,-8
1523148370431779,-3,2,8,11,8,4,1,-2
1523148370431779,-8,-1,17,27,5,1,0,3
1523148370432577,2,-1,-22,-7,-3,-6,-3,-3
1523148370432577,-1,-2,-1,3,-6,-3,-1,-5
1523148370454726,-10,4,-2,-46,3,6,5,6
1523148370454726,-2,-9,0,-1,-2,2,2,-8
1523148370455136,-17,1,34,-4,-8,-3,-1,0
1523148370455136,10,9,28,66,25,7,3,2
1523148370477798,-5,-7,-13,71,-3,-5,-3,-4
1523148370477798,0,4,-21,-8,-12,-4,-2,-2
1523148370478196,-1,1,14,15,8,4,0,2
1523148370478196,-12,-2,16,9,6,1,2,2
1523148370491947,41,3,-1,30,5,1,0,-3
1523148370491947,14,-3,3,35,1,-1,-4,-2
1523148370492736,-8,-6,-16,-75,-20,-6,-3,1
1523148370492736,-7,0,-8,-48,-8,-3,0,-7
1523148370514524,-24,-4,-1,31,6,0,-2,3
1523148370514524,-5,-3,5,-25,3,-1,3,0
1523148370515296,-21,-5,-13,15,2,3,-1,-3
1523148370515296,-28,-1,-4,19,-1,-3,-2,0
1523148370537527,-16,-1,-3,-88,-14,-7,-3,-6
1523148370537527,-8,3,11,-1,1,3,3,-19
1523148370538358,26,-1,2,33,5,1,0,12
1523148370538358,-9,6,6,-3,2,0,-2,-4
1523148370552064,-11,-34,-26,26,5,0,-2,0
1523148370552064,-16,-17,-5,-11,-5,-8,-9,-7
1523148370552396,13,7,-12,6,-4,-3,-2,-1
1523148370552396,20,2,-4,-20,-5,-2,-1,0
1523148370574453,-5,3,10,16,5,0,0,-3
1523148370574453,10,15,7,-14,-7,1,-1,8
1523148370574955,-12,-9,-19,-19,-11,-9,-4,-4
1523148370574955,8,-11,-16,-2,-3,0,-1,-1
1523148370598209,-7,17,16,6,2,3,5,-1
1523148370598209,-31,-12,-1,-36,-12,-4,-2,2
1523148370598517,-3,9,2,27,4,-2,-2,1
1523148370598517,14,-12,2,-10,1,0,1,-12
1523148370612232,1,14,-14,-20,-8,-6,-8,4
1523148370612232,17,-5,1,4,8,3,3,-5
1523148370612555,10,-31,-11,5,-4,-5,-6,17
1523148370612555,26,41,10,-36,-9,-2,-3,9
1523148370634612,27,-62,1,32,4,5,5,9
1523148370634612,21,-18,-17,1,-5,-4,0,12
1523148370635116,-11,17,-6,9,0,-1,1,-12
1523148370635116,22,2,13,-19,-5,0,7,12
1523148370657843,-24,28,-1,-8,-4,-5,-5,-7
1523148370657843,12,-3,-32,-9,-9,-7,-9,-5
1523148370658676,5,6,-2,11,6,4,4,-1
1523148370658676,16,-50,-16,0,-7,-1,-2,-7
1523148370671871,-90,24,21,4,4,5,20,-28
1523148370671871,3,12,38,23,20,5,-9,62
1523148370672714,-53,1,-46,-11,-11,-6,5,7
1523148370672714,40,1,-16,11,6,-1,6,5
1523148370694772,13,14,9,-5,-4,-4,-17,35
1523148370694772,10,-13,-1,-2,1,0,1,-35
1523148370694772,-22,5,15,1,0,1,4,-16
1523148370694772,-24,28,9,-5,-2,-4,-3,38
1523148370717834,49,19,-1,1,0,-3,1,19
1523148370717834,-49,-32,-21,-8,-4,-2,11,-28
1523148370718338,-6,-30,12,3,2,-3,-19,19
1523148370718338,-38,-10,-8,1,1,0,6,-38
1523148370731914,48,11,8,-2,0,-2,-19,1
1523148370731914,24,5,12,4,0,0,2,1
1523148370732374,4,-1,0,6,1,4,10,-12
1523148370732374,10,6,4,-29,-3,-1,-6,-2
1523148370754611,6,4,5,1,-3,0,1,-2
1523148370754611,-7,13,3,21,8,0,3,-4
1523148370754933,8,1,5,-32,-3,-1,-2,-6
1523148370754933,-15,-4,19,118,29,2,-3,5
1523148370777688,-6,-13,-46,-106,-67,-20,-6,-19
1523148370777688,-29,13,23,106,22,11,1,0
1523148370778497,-27,-8,-7,-29,-12,3,0,1
1523148370778497,-54,11,-3,-51,-2,-7,-5,-7
1523148370791702,36,-7,18,112,34,5,2,-5
1523148370791702,-18,0,-13,66,-4,-7,-4,3
1523148370792534,-2,0,-2,-42,-11,-7,-1,-1
1523148370792534,-33,-4,19,74,16,12,9,-5
1523148370814264,-29,-20,-31,-21,-31,-10,-4,-10
1523148370814264,-28,5,3,-31,7,5,-2,2
1523148370815096,12,16,5,15,-2,4,5,0
1523148370815096,8,-9,-7,82,-2,-13,-13,-14
1523148370845326,-78,-1,13,86,54,-2,-4,-11
1523148370845326,-14,-5,4,30,-32,-4,6,17
1523148370845676,-9,-20,-14,-40,-3,0,2,-5
1523148370845676,38,4,-2,10,-15,-6,-7,-5
1523148370851331,-4,-7,9,-4,44,-6,2,3
1523148370851331,-10,7,-4,14,-42,-4,2,-7
1523148370859379,-44,1,-14,-2,21,10,-3,-15
1523148370859379,-72,-38,-8,-47,-2,6,1,3
1523148370874965,23,12,8,-55,-36,-16,-1,-6
1523148370874965,11,6,13,-28,-21,-2,-7,-2
1523148370875467,100,36,51,66,11,8,6,19
1523148370875467,-14,28,-39,-123,-18,-7,0,0
1523148370897667,0,-23,-30,-46,16,-7,-6,-4
1523148370897667,-12,11,13,-5,14,11,9,12
1523148370898527,21,-6,-32,-21,-44,-14,-5,-5
1523148370898527,-30,-26,-2,92,-9,2,0,-9
1523148370911209,1,-1,7,-12,-22,4,0,-8
1523148370911209,41,-6,-13,-30,48,-6,-7,-8
1523148370919199,12,10,34,71,-5,0,-1,3
1523148370919199,2,-15,-22,27,20,-6,-3,2
1523148370934343,-13,0,11,11,-55,9,3,5
1523148370934343,-15,-4,-21,-86,3,-6,0,-5
1523148370935124,-20,-3,-5,43,24,5,-1,1
1523148370935124,61,4,20,75,-19,7,5,4
1523148370957676,35,-3,-9,-71,-5,1,-1,2
1523148370957676,26,12,-1,-1,3,-7,-8,-5
1523148370958652,-18,-6,3,23,2,-12,-3,-6
1523148370958652,21,-11,-6,-71,1,1,-3,-10
1523148370971182,8,-3,-2,101,29,8,3,3
1523148370971182,1,-28,-35,-81,-26,-6,-2,-2
1523148370979698,-8,-9,-6,43,7,0,-1,-12
1523148370979698,2,28,23,73,3,-3,-4,4
1523148370994492,49,12,-11,-2,-26,2,1,7
1523148370994492,-40,3,4,84,15,1,0,-1
1523148370995296,56,9,12,75,42,5,1,1
1523148370995296,15,0,-12,-71,-46,-12,-5,2
1523148371017741,-26,-3,18,98,22,15,2,1
1523148371017741,40,5,-7,-47,-19,-9,-7,5
1523148371018582,1,7,5,20,15,-2,-1,2
1523148371018582,1,0,1,-43,-27,-17,-4,3
1523148371031299,10,-2,-8,-15,25,28,9,2
1523148371031299,-21,-2,-1,26,-5,1,0,-3
1523148371039305,-9,-1,12,-12,11,10,4,0
1523148371039305,-21,-29,-21,-67,-11,-10,1,1
1523148371054543,46,-12,-1,-11,-3,-10,-4,1
1523148371054543,-10,7,5,13,7,5,0,9
1523148371055429,-21,-34,-6,-1,-12,-9,-7,-9
1523148371055429,-1,14,7,9,-15,3,-2,-4
1523148371077829,-45,-8,-4,69,10,-9,-3,1
1523148371077829,23,2,-2,37,5,6,6,-7
1523148371078153,-7,7,-6,-2,-3,-9,-6,-3
1523148371078153,4,7,10,-19,1,9,4,8
1523148371091356,-9,10,16,5,2,-3,-3,-6
1523148371091356,-9,-18,-11,-3,19,-5,-4,-12
1523148371099209,-4,0,-8,-5,-21,-3,0,4
1523148371099209,13,3,-15,-31,20,6,3,0
1523148371114416,10,15,6,-32,-6,0,2,-8
1523148371114416,-41,-3,1,1,-5,-5,-6,0
1523148371121924,20,4,-8,-24,-8,-3,-7,6
1523148371121924,-17,-7,-1,9,17,4,1,1
1523148371137894,-8,-1,-11,-2,-7,-1,1,-8
1523148371137894,98,26,-4,-19,-18,-12,-13,-16
1523148371138313,12,10,-5,5,12,5,7,36
1523148371138313,40,16,18,5,0,-1,1,5
1523148371151348,-36,-21,5,16,5,7,19,14
1523148371151348,-39,-36,-9,-6,-3,-6,-22,-24
1523148371159547,-28,2,7,-8,-11,-3,-9,-62
1523148371159547,44,16,-7,15,8,-5,-11,43
1523148371174410,7,33,-21,-12,3,3,9,-8
1523148371174410,13,-11,-20,1,-12,3,4,-1
1523148371174910,-19,1,17,-3,9,6,9,-29
1523148371174910,-63,-27,1,21,12,6,-2,75
1523148371197696,-82,16,-12,-8,-18,-8,-19,-50
1523148371197696,39,-8,0,-1,5,1,6,36
1523148371198473,-30,-22,-8,-7,4,-2,-2,5
1523148371198473,5,7,3,8,-3,1,10,-35
1523148371220474,20,-7,15,-11,5,-4,-3,39
1523148371220474,-24,12,12,34,2,2,0,-10
1523148371220940,5,-7,-2,22,-14,-5,-1,-1
1523148371220940,-13,-1,-17,-13,7,2,1,-25
1523148371234475,10,-17,0,-1,-1,-2,-11,1
1523148371234475,-15,-13,-18,-70,-25,-4,2,-8
1523148371234978,6,14,14,107,50,8,5,9
1523148371234978,-7,-12,-37,-32,-59,-22,-15,-18
1523148371258037,1,-6,-11,-31,-11,-8,-6,-5
1523148371258037,-1,17,26,62,23,12,11,5
1523148371258466,12,3,-6,-2,-10,1,-4,16
1523148371258466,7,4,16,37,15,-1,2,-17
1523148371280022,4,-6,5,59,10,6,8,6
1523148371280022,-4,9,27,51,18,8,0,2
1523148371281027,10,-6,-22,40,-28,-9,-2,1
1523148371281027,-13,-7,3,125,-1,-7,-4,-18
1523148371294832,8,4,15,53,-2,-8,-7,2
1523148371294832,-67,-4,7,12,15,10,4,-1
1523148371295062,16,2,-4,-59,-12,-1,-5,-3
1523148371295062,-13,1,-7,-55,7,3,1,-13
1523148371317571,2,-3,19,42,8,-1,-2,7
1523148371317571,6,-2,-14,-62,-3,-3,3,7
1523148371318075,29,9,12,-26,-11,-10,-9,-2
1523148371318075,-7,0,-20,56,-6,-1,-1,-9
1523148371340499,-19,-13,3,-5,2,-3,-1,-8
1523148371340499,15,13,15,60,4,2,3,2
1523148371340634,9,-5,-12,-86,-35,-5,-1,-2
1523148371340634,1,8,20,26,32,2,-2,5
1523148371354672,13,2,1,9,4,5,0,0
1523148371354672,0,0,-6,9,-23,-10,-2,-3
1523148371355174,-33,1,12,60,18,5,4,1
1523148371355174,10,4,11,-22,8,3,-2,-8
1523148371377858,-4,-10,-37,-58,-43,-12,-3,-1
1523148371377858,-13,-6,-6,-2,-7,-2,-2,2
1523148371378233,-10,1,-1,21,10,1,0,-4
1523148371378233,-3,-3,1,-46,-1,0,-3,-1
1523148371400363,33,1,-4,9,9,0,-1,-4
1523148371400363,21,13,7,-23,-7,-4,-2,3
1523148371400794,0,-3,-2,22,11,1,4,13
1523148371400794,7,0,11,33,11,4,1,0
1523148371414715,-19,3,-11,-81,-16,-5,-3,-8
1523148371414715,13,0,-3,0,-6,-3,-4,2
1523148371415218,-11,-6,13,35,14,4,3,6
1523148371415218,-5,-6,-21,-18,-13,-3,-1,-8
1523148371437546,38,2,7,40,10,2,1,7
1523148371437546,42,8,-5,-23,-1,-2,-5,5
1523148371438049,-21,-1,16,4,-3,-2,-3,-2
1523148371438049,0,3,0,-6,7,0,1,-2
1523148371460350,-8,-1,-4,-42,-19,2,1,0
1523148371460350,-2,-6,-14,25,-2,-9,-2,-7
1523148371460608,16,-2,-7,33,-1,0,-2,-3
1523148371460608,37,5,-14,-81,-39,-10,-5,-1
1523148371474407,29,1,11,52,25,3,4,6
1523148371474407,-10,8,0,26,-2,0,3,-3
1523148371475477,-10,-39,-11,17,-4,-6,-7,-7
1523148371475477,-27,-6,-3,-7,1,-1,-2,-14
1523148371497306,-20,-4,6,35,4,-1,0,5
1523148371497306,-18,7,4,-13,0,0,3,12
1523148371497410,7,17,25,77,27,7,3,1
1523148371497410,13,-1,-8,15,-20,2,0,2
1523148371520318,-13,-8,0,66,-6,-9,-6,-5
1523148371520318,-31,-14,-5,32,9,3,0,-7
1523148371520977,-19,5,3,25,13,1,-1,-1
1523148371520977,-10,-4,6,-17,-8,5,4,8
1523148371534838,-6,-1,-12,64,-7,-4,-3,-9
1523148371534838,-2,-4,7,36,2,-1,0,7
1523148371534952,19,5,-16,-36,-13,-2,-2,-3
1523148371534952,-12,0,17,23,19,4,0,-6
1523148371557803,44,1,-1,-39,6,3,0,-8
1523148371557803,15,2,0,-21,-6,-3,4,26
1523148371558406,12,2,-7,-39,-12,-2,-4,6
1523148371558406,14,48,-3,26,10,-3,-4,-4
1523148371580141,-45,-1,-4,18,-15,-2,-1,-7
1523148371580141,9,2,-6,43,-1,-3,-3,-20
1523148371580877,6,-3,-7,-15,-12,-5,-1,4
1523148371580877,-14,8,13,32,7,1,2,9
1523148371594477,-18,8,17,-39,21,7,0,3
1523148371594477,44,0,-9,-28,-14,-6,-6,-14
1523148371594913,-57,11,-10,-32,-10,-3,1,25
1523148371594913,-4,-12,11,34,8,-1,-1,-8
1523148371617859,-7,4,4,22,18,0,-4,1
1523148371617859,2,-14,-43,-60,-22,-5,-3,-2
1523148371618475,-16,-3,-4,-30,-7,-1,5,-32
1523148371618475,-51,2,7,22,2,-1,-3,22
1523148371640378,3,-10,-1,-26,-1,0,-9,-7
1523148371640378,-42,-8,-5,8,-5,-2,-3,-33
1523148371640531,12,-29,-12,24,-2,0,6,-30
1523148371640531,63,-3,-13,-13,1,3,-3,28
1523148371653966,22,1,-1,-17,-2,1,11,25
1523148371653966,-33,-20,8,22,1,-4,-13,-30
1523148371662089,-5,16,-7,-19,-7,3,-3,-12
1523148371662089,-42,-47,-1,0,-3,-7,-1,-29
1523148371677630,-28,-11,-9,3,0,1,3,-8
1523148371677630,63,27,12,2,6,2,6,56
1523148371678633,27,35,-3,-23,-9,-2,3,-5
1523148371678633,14,-31,-13,8,5,5,15,-12
1523148371699769,49,-2,8,7,2,0,-26,53
1523148371699769,-50,18,-3,-20,-5,-2,13,6
1523148371700879,-85,-84,7,8,-11,-9,-21,-60
1523148371700879,60,31,2,-21,-1,-3,-7,40
1523148371714307,-60,37,11,1,-2,-3,8,-25
1523148371714307,25,-10,26,75,22,12,10,7
1523148371715311,-3,16,-24,-78,-27,-12,-8,21
1523148371715311,47,-5,-6,-5,1,0,0,-9
1523148371737601,1,-22,-18,8,-13,-5,3,-7
1523148371737601,13,20,20,79,19,4,-4,7
1523148371738104,7,8,-6,76,-1,-1,1,7
1523148371738104,-24,-8,-1,21,-3,0,-1,-9
1523148371760341,19,14,-6,-75,-13,4,4,1
1523148371760341,-21,-18,-27,20,-18,-10,-10,-26
1523148371760663,44,6,15,47,11,0,2,23
1523148371760663,-8,1,15,60,18,3,1,-4
1523148371773952,6,-13,-21,0,-29,-9,-7,-9
1523148371773952,-7,2,16,70,26,1,-2,-7
1523148371781976,1,-7,-35,-102,-59,-20,1,8
1523148371781976,23,22,19,106,16,17,4,32
1523148371797517,-35,-12,10,101,31,0,-3,-26
1523148371797517,-25,-14,-14,-104,-39,-7,-10,-36
1523148371798019,17,10,-21,6,16,-3,-5,5
1523148371798019,-16,-2,4,-67,-14,-5,-1,-4
1523148371820287,21,5,7,7,9,2,5,13
1523148371820287,8,-1,-2,26,10,-4,-2,5
1523148371820583,18,-2,15,54,16,2,-3,0
1523148371820583,-32,-9,-8,-45,-7,-2,0,-5
1523148371833873,1,-4,-7,3,3,1,3,-3
1523148371833873,7,-4,5,-25,-17,-6,-2,5
1523148371841884,-5,7,24,95,14,9,5,7
1523148371841884,5,-11,-18,90,21,0,-5,-15
1523148371857880,5,9,20,89,18,0,2,4
1523148371857880,-8,-10,-46,-45,-42,-7,-6,-5
1523148371858226,35,12,12,1,7,8,3,5
1523148371858226,-13,-5,0,17,9,-7,-3,-2
1523148371880165,-15,0,-6,-31,-2,-4,2,-45
1523148371880165,30,-9,7,-16,10,4,-2,51
1523148371880509,-13,-5,-3,-9,-7,-1,-5,-2
1523148371880509,-8,-1,-12,-13,-12,-4,-3,-10
1523148371893685,-11,6,-7,-29,-8,-4,-2,-7
1523148371893685,16,8,1,18,7,5,7,11
1523148371902142,-24,-3,0,-26,-3,-1,-1,7
1523148371902142,0,0,11,103,27,7,1,-8
1523148371917745,17,-6,-12,25,-19,-4,-3,13
1523148371917745,-26,3,8,38,12,1,2,-19
1523148371918108,-3,5,8,16,13,5,2,21
1523148371918108,30,12,13,27,-7,-4,-1,0
1523148371940304,-6,-8,-29,-50,-23,-4,-4,2
1523148371940304,-8,-5,-11,13,-4,-5,-5,-10
1523148371940669,-7,2,1,20,8,3,2,-8
1523148371940669,3,-5,4,-20,-9,0,1,-4
1523148371954012,21,-6,33,82,23,8,-1,9
1523148371954012,-17,-7,-23,14,-18,-14,-9,-14
1523148371962036,-25,-7,-18,-33,-7,-1,3,-5
1523148371962036,-12,47,1,-26,-9,3,-3,-14
1523148371976967,17,-46,3,-4,19,6,4,21
1523148371976967,26,5,11,17,15,3,-1,-4
1523148371984456,12,2,1,-39,-1,-4,-1,-4
1523148371984456,-13,-1,-8,-47,-9,-2,2,-3
1523148372000141,9,1,-13,-35,-9,-8,-6,-13
1523148372000141,-10,8,28,18,6,6,0,-2
1523148372001138,-8,-16,-49,-51,-34,-16,-8,-6
1523148372001138,8,-6,-5,-12,3,0,4,3
1523148372013533,-70,-8,1,-13,-3,-2,-1,-1
1523148372013533,42,7,1,-5,-1,0,-1,-5
1523148372022096,13,14,30,74,19,3,-1,-2
1523148372022096,-5,-16,-17,-74,-21,-11,-4,1
1523148372037853,6,8,-6,-35,-8,1,4,15
1523148372037853,-6,-2,15,-11,6,7,4,0
1523148372038130,-39,-4,10,12,13,1,-5,-26
1523148372038130,-1,-1,5,9,-2,-4,-7,-2
1523148372060002,7,16,-18,-41,-16,-9,-5,-3
1523148372060002,-13,-5,4,-11,4,8,12,29
1523148372060692,76,38,9,6,6,9,11,13
1523148372060692,-82,-36,0,20,2,-7,-16,-17
1523148372074049,-4,15,13,21,3,-7,-8,-18
1523148372074049,-7,1,-14,-24,-3,-8,5,1
1523148372081567,-2,-8,3,29,9,28,10,16
1523148372081567,8,3,7,9,0,2,5,10
1523148372097426,2,-10,0,-26,0,4,0,9
1523148372097426,-7,3,-4,-1,-4,-10,-9,-15
1523148372098430,-8,-21,-12,-15,0,-12,-5,-3
1523148372098430,19,-3,-3,-9,-4,4,3,1
1523148372120405,-36,-2,-1,6,4,-2,-4,-7
1523148372120405,0,4,2,-2,0,3,0,-7
1523148372120864,6,3,-4,-14,-10,-10,-6,-3
1523148372120864,-12,7,-1,5,3,5,3,-3
1523148372142425,18,7,7,32,3,-1,1,6
1523148372142425,-4,15,7,-3,-1,1,1,5
1523148372143422,-11,-20,-7,2,-6,-7,-6,-12
1523148372143422,42,14,10,-3,-7,-6,-2,13
1523148372157775,21,-16,3,37,11,16,16,9
1523148372157775,-48,-12,-27,-14,-2,2,-9,-26
1523148372158465,7,8,26,-9,0,-6,-11,-37
1523148372158465,-10,26,5,-5,0,2,6,-12
1523148372180020,4,5,21,11,7,6,8,23
1523148372180020,-56,10,1,-2,-2,0,-4,-35
1523148372181524,2,-28,1,4,-7,-10,-6,48
1523148372181524,-2,-10,3,-9,-6,-6,-11,-7
1523148372202753,29,-1,-11,-3,-7,-3,-6,-10
1523148372202753,22,-29,-1,0,3,-4,2,14
1523148372203457,-19,32,-6,8,-1,3,0,-14
1523148372203457,19,-7,-6,-2,0,-2,2,3
1523148372216547,-8,8,-3,-9,-5,-5,0,26
1523148372216547,17,0,1,-3,-6,-3,-2,-4
1523148372225013,-14,-4,-5,-6,-1,-2,-1,-5
1523148372225013,-5,4,-3,5,3,9,4,0
1523148372240104,-6,-10,-8,1,-7,-15,-8,-22
1523148372240104,6,-7,0,-10,0,3,-1,-3
1523148372241645,12,-10,-5,70,13,7,2,10
1523148372241645,-3,-17,-14,-24,-15,-12,-3,-1
1523148372263297,-25,3,-5,37,13,4,-1,-13
1523148372263297,22,-2,-3,11,-14,-10,-2,10
1523148372264577,27,39,7,43,9,6,4,13
1523148372264577,-2,-16,-2,3,-3,-1,-6,-12
1523148372276609,-4,15,20,50,25,5,0,-3
1523148372276609,7,-6,-35,-84,-49,-12,-7,6
1523148372285132,-25,10,5,92,4,-1,1,-9
1523148372285132,-6,4,9,87,35,10,4,-1
1523148372300171,-4,-4,-18,31,-30,-14,-9,-5
1523148372300171,18,3,25,96,33,10,6,6
1523148372301677,39,-14,-27,-42,-21,-2,1,-4
1523148372301677,4,1,0,56,7,-3,0,1
1523148372322792,-3,-13,-1,2,8,-5,-6,0
1523148372322792,-8,-1,3,15,7,6,5,-6
1523148372324074,3,-7,-13,-128,-16,-2,-1,11
1523148372324074,-5,-9,2,3,-5,-2,-3,7
1523148372336421,16,11,2,51,15,5,-2,-12
1523148372336421,0,-1,-17,-55,-36,-17,-9,-4
1523148372345131,-3,-26,8,39,18,3,3,1
1523148372345131,-5,3,-3,31,0,2,3,0
1523148372360169,-6,-8,-14,-72,-22,-3,-1,0
1523148372360169,2,0,21,48,30,6,0,6
1523148372361674,-10,-5,29,56,3,-2,-1,-3
1523148372361674,7,-1,-29,-70,-14,-7,-4,-4
1523148372382228,-2,-8,-5,-24,-7,-2,0,-3
1523148372382228,0,5,3,9,11,0,-2,3
1523148372384237,-16,3,14,67,4,2,3,-6
1523148372384237,1,-14,-26,-98,-25,-10,-6,-7
1523148372396581,2,9,3,33,3,0,-2,1
1523148372396581,-2,0,2,9,-2,1,-2,2
1523148372405289,-15,-4,-5,-28,-1,-4,-3,-1
1523148372405289,5,-28,9,10,2,-3,0,2
1523148372420536,-21,-6,-5,-35,-10,2,2,0
1523148372420536,6,0,-1,12,5,0,2,-2
1523148372421849,1,-13,-7,-27,-3,-1,-1,-2
1523148372421849,0,19,4,12,-1,0,-2,3
1523148372442677,7,4,6,0,5,5,3,-1
1523148372442677,-7,-6,3,80,2,-1,0,1
1523148372444114,-26,-17,-11,-34,-7,-4,-4,-2
1523148372444114,-3,1,1,-1,-4,-1,0,-4
1523148372457217,1,-1,3,16,1,-2,-3,-2
1523148372457217,-5,4,2,9,11,2,-3,0
1523148372463664,2,0,-12,-78,-11,-4,-1,-2
1523148372463664,-7,3,4,18,-1,1,-1,-1
1523148372480230,5,-3,3,31,3,0,-1,1
1523148372480230,3,-4,-7,-37,-11,-3,-2,-3
1523148372481714,0,6,-1,-1,-5,-3,-2,-2
1523148372481714,-5,-1,7,-4,4,0,2,0
1523148372502771,-4,4,-1,8,0,1,1,-2
1523148372502771,0,-3,6,-39,-4,3,-1,3
1523148372510289,-1,-4,-19,27,-15,-13,-9,-6
1523148372510289,0,1,2,24,9,0,0,2
1523148372516806,1,-8,-3,-6,0,3,1,-2
1523148372516806,7,8,15,38,-4,-4,-3,-1
1523148372523825,3,-1,-3,-17,4,2,0,-1
1523148372523825,-2,-4,-19,-67,-22,-5,-3,-2
1523148372540174,-2,-2,-5,-7,-2,-3,-3,-2
1523148372540174,-2,1,3,-14,-1,-1,0,0
1523148372541878,0,-5,8,20,8,3,0,1
1523148372541878,-11,-2,7,53,1,-3,-3,-1
1523148372562740,6,-1,-13,-60,-8,-4,-2,-1
1523148372562740,21,-5,-8,-9,3,3,3,1
1523148372564433,22,47,9,13,-1,-1,1,1
1523148372564433,-18,-19,-4,1,3,-1,-2,-1
1523148372576967,6,3,8,15,-9,-1,1,-1
1523148372576967,-15,-7,-17,-69,-5,-4,-2,-3
1523148372584105,29,5,-7,24,8,0,1,1
1523148372584105,17,6,14,14,2,3,2,2
1523148372600521,-10,-3,-6,-11,-3,-1,-1,-2
1523148372600521,-10,-5,1,2,-3,3,2,0
1523148372601719,-1,-7,3,-13,-3,1,1,-1
1523148372601719,8,-8,-3,7,3,0,1,3
1523148372622589,-9,1,11,3,-4,0,-1,-6
1523148372622589,17,2,-3,6,4,0,-2,3
1523148372624278,-11,-10,0,-5,-2,-1,-1,-1
1523148372624278,8,18,16,7,3,-1,-1,-1
1523148372636313,6,1,-9,-13,-5,-3,-1,-1
1523148372636313,-11,23,3,-8,-1,-2,0,-4
1523148372645025,2,-31,12,18,9,4,3,8
1523148372645025,21,-25,6,-10,-2,3,5,15
1523148372660196,-1,22,5,4,5,-3,-4,-11
1523148372660196,-6,-19,0,11,-2,-7,-9,-32
1523148372661386,-10,30,5,3,-2,1,1,-8
1523148372661386,-5,-45,-12,-1,1,-6,2,1
1523148372682546,-40,17,0,-4,3,5,0,19
1523148372682546,-57,-33,-20,23,4,-3,-11,-48
1523148372684016,15,8,3,-8,-6,-5,-7,0
1523148372684016,-8,-18,5,7,2,3,4,-4
1523148372696549,44,24,11,-5,-1,1,5,26
1523148372696549,-7,8,3,1,-4,0,2,15
1523148372705635,-19,1,-3,-8,-6,-16,-3,-8
1523148372705635,-7,23,-6,-6,3,13,-2,-3
1523148372720106,8,-19,-1,-4,-3,0,5,3
1523148372720106,8,3,-16,9,3,11,2,10
1523148372721609,-10,-17,-1,12,4,3,-1,-5
1523148372721609,-5,14,-10,-75,-31,-17,-8,-4
1523148372743025,-1,-16,-11,27,1,-10,-9,-11
1523148372743025,4,8,16,-15,-5,-2,-1,7
1523148372744127,-5,-1,13,44,15,6,4,4
1523148372744127,-4,7,-22,1,-15,-5,-7,-5
1523148372756677,-9,-5,5,3,-3,-1,-3,-10
1523148372756677,8,-1,-10,10,2,-8,-2,10
1523148372765182,2,0,1,37,5,4,1,7
1523148372765182,-11,11,19,54,25,10,4,-6
1523148372787510,-8,-8,-17,-56,-27,-10,-8,-11
1523148372787510,9,-13,-7,42,7,3,1,9
1523148372789015,0,8,-7,-52,-6,-2,-3,0
1523148372789015,-5,12,-12,-13,-10,-8,-7,-8
1523148372802551,-1,-18,-9,43,-1,-12,-5,-3
1523148372802551,8,1,6,-7,1,16,7,8
1523148372804056,-5,-2,-2,-3,1,3,1,-2
1523148372804056,1,27,5,38,6,-1,-2,-2
1523148372816609,-4,-8,-5,-53,-3,1,-2,-1
1523148372816609,26,12,12,26,8,-8,-2,3
1523148372825112,-5,-14,-17,-61,-22,-6,-4,-4
1523148372825112,-4,7,2,41,1,0,0,-1
1523148372840150,4,-21,0,69,9,3,1,-2
1523148372840150,-6,-1,-9,-66,-28,-4,2,-1
1523148372841654,-3,1,-9,85,4,-7,-1,1
1523148372841654,5,-10,0,10,3,2,-1,0
1523148372863212,-1,8,4,-15,-1,-1,0,-1
1523148372863212,-5,-3,2,21,6,0,1,0
1523148372864216,1,-4,11,-3,0,6,-1,1
1523148372864216,7,-13,-28,-58,-14,-11,-4,-2
1523148372886543,4,5,14,38,24,9,5,0
1523148372886543,-3,3,1,47,-17,-9,-4,-1
1523148372888046,-6,1,-10,4,-2,-7,-3,-5
1523148372888046,0,-8,5,9,9,12,3,0
1523148372900033,-3,24,-4,21,-3,-2,1,-1
1523148372900033,11,-9,2,8,7,-1,0,4
1523148372901536,24,-4,11,16,3,2,-1,0
1523148372901536,-9,-13,-14,-33,-11,-5,-1,-1
1523148372922991,-4,18,-4,10,-7,1,-1,-2
1523148372922991,-26,3,11,3,19,5,2,2
1523148372924096,-4,-10,-2,-81,-13,-1,1,0
1523148372924096,-11,1,6,114,13,-5,-5,-5
1523148372936522,-3,-12,-15,-77,-35,-7,-5,-5
1523148372936522,-17,2,-6,29,1,-1,-1,-2
1523148372945100,-4,-1,5,-24,0,0,-1,0
1523148372945100,0,-2,1,-29,4,2,2,3
1523148372960544,-29,-16,-1,4,0,-2,-3,-5
1523148372960544,3,9,1,6,0,-1,-4,-2
1523148372961643,-5,3,-8,2,-2,-1,-2,-2
1523148372961643,0,-10,3,8,-2,0,1,0
1523148372982850,27,-14,3,6,5,1,0,7
1523148372982850,-15,-4,0,-18,0,-1,4,-2
1523148372984158,-9,-1,-2,0,-4,-1,-4,-4
1523148372984158,5,-7,-8,4,-10,-7,-4,-3
1523148372996190,4,-4,0,-1,5,1,-3,0
1523148372996190,8,-5,-5,-8,0,-4,-2,2
1523148373005244,1,-5,14,61,13,5,0,0
1523148373005244,-11,9,6,-26,-9,1,3,1
1523148373020625,-6,-2,-11,22,-1,-1,3,0
1523148373020625,3,-16,-2,28,-1,0,0,-3
1523148373021788,-6,2,-9,3,-7,-6,-5,-4
1523148373021788,1,1,13,45,2,-1,-4,-3
1523148373043059,-9,-7,-14,-56,-4,-1,0,-3
1523148373043059,19,1,1,-6,-3,-3,-5,-1
1523148373044649,13,-7,-2,18,-6,-4,-2,0
1523148373044649,18,17,0,-14,-2,-3,-5,-3
1523148373065200,-7,-9,8,18,9,3,-1,-3
1523148373065200,-6,1,-12,-14,-9,1,-1,-1
1523148373066578,-11,6,-4,6,2,1,3,2
1523148373066578,4,1,11,4,-3,-1,-1,-2
1523148373080114,55,18,5,6,5,-1,-1,-1
1523148373080114,8,-12,4,-32,-6,-3,-1,-1
1523148373081615,-2,0,-6,-2,-9,-6,-4,-3
1523148373081615,-14,8,-8,-24,4,3,2,0
1523148373102623,41,6,18,9,-3,2,1,6
1523148373102623,-37,-1,0,7,-7,-2,-3,-5
1523148373104064,-3,-5,5,7,4,3,2,-1
1523148373104064,-6,-2,-12,-27,-1,-5,-4,-2
1523148373125432,3,6,12,-7,-2,-4,-7,-4
1523148373125432,17,34,19,23,6,7,7,10
1523148373127126,-10,-6,-10,-20,-11,-2,0,-11
1523148373127126,-56,3,7,14,7,6,5,12
1523148373140096,-12,4,-18,9,-4,-3,-1,-36
1523148373140096,-11,-10,-20,-19,-4,-5,-3,42
1523148373141602,-5,6,34,5,10,4,9,11
1523148373141602,29,-30,-19,1,-8,-4,-3,8
1523148373161656,-65,-30,-21,3,9,-2,-15,-35
1523148373161656,-17,-1,3,-8,-3,-7,-5,-22
1523148373170177,53,31,-23,-29,-16,-1,-4,6
1523148373170177,36,-36,16,29,17,2,3,25
1523148373185457,51,-9,-19,1,-22,2,16,22
1523148373185457,-68,3,13,-4,3,-2,-3,-44
1523148373186720,-19,2,-14,1,2,1,-9,47
1523148373186720,1,-16,7,-11,-5,-9,-9,-26
1523148373198990,17,5,3,5,5,1,4,14
1523148373198990,6,-6,-7,-7,1,0,0,-24
1523148373207597,23,22,3,-3,-8,-2,10,-29
1523148373207597,-80,2,2,-4,0,5,4,20
1523148373222834,13,9,19,4,8,4,-8,4
1523148373222834,-5,5,-5,13,-6,-6,-3,4
1523148373224460,-17,-16,5,-3,6,-2,-6,-14
1523148373224460,3,7,-13,3,0,-1,-1,-4
1523148373245495,-13,-23,20,40,3,-1,3,7
1523148373245495,38,24,7,-20,5,4,2,12
1523148373246611,-61,-22,-4,32,1,-3,-8,-15
1523148373246611,-3,1,-5,-4,-4,0,1,-10
1523148373259168,-24,25,11,18,-1,-1,-2,9
1523148373259168,28,-37,-17,2,3,0,1,1
1523148373267668,0,-8,-27,5,-2,-6,-5,-8
1523148373267668,13,9,-9,40,-8,-5,-7,-16
1523148373282553,-20,6,6,-38,6,-2,1,-2
1523148373282553,3,8,-17,2,-6,0,-1,5
1523148373284213,14,6,16,15,13,7,5,4
1523148373284213,4,7,-12,4,-14,-5,-4,-8
1523148373304216,-3,-4,0,7,1,-5,-4,1
1523148373304216,6,6,-12,-100,-24,-10,-5,3
1523148373312742,12,-18,3,61,8,6,3,7
1523148373312742,11,4,9,45,23,-2,-2,-4
1523148373318755,-14,-1,-6,70,-9,1,0,-1
1523148373318755,5,-9,-1,-9,5,6,6,9
1523148373327780,-7,-4,2,34,-2,-5,-3,-7
1523148373327780,4,21,3,-11,-3,2,-6,-10
1523148373342818,19,3,-7,3,7,-2,0,2
1523148373342818,0,-16,-14,60,-32,-9,-8,-1
1523148373343822,1,-3,-5,62,-9,-3,2,1
1523148373343822,36,11,10,69,9,6,3,-1
1523148373372898,6,-6,-6,36,10,2,0,24
1523148373372898,-25,-7,1,-57,11,-1,6,-20
1523148373373902,42,7,-7,-80,-4,-4,-15,4
1523148373373902,-1,-9,-5,-72,-22,-3,-2,-13
1523148373379730,1,0,1,19,8,-1,0,20
1523148373379730,3,15,12,38,6,1,0,-1
1523148373386388,-41,-43,-3,3,12,6,4,-2
1523148373386388,-11,-7,-13,-87,-29,-13,-4,-4
1523148373402430,-10,-4,-13,-46,-15,-3,-2,-15
1523148373402430,10,12,35,127,34,10,2,9
1523148373403935,-22,-1,-32,40,-30,-12,-7,-8
1523148373403935,11,5,8,104,12,3,1,9
1523148373424991,-16,-2,15,18,-6,-2,-1,-6
1523148373424991,2,-9,-27,26,13,2,-1,5
1523148373426497,10,8,9,-34,7,0,1,-2
1523148373426497,-11,-4,6,-41,-2,1,2,1
1523148373440031,-11,-5,-6,-20,-5,-7,-4,-5
1523148373440031,5,-2,11,-20,0,-5,-4,0
1523148373446359,5,10,7,-30,2,9,6,1
1523148373446359,-28,11,-25,-10,-9,-5,-4,-3
1523148373462853,-7,-12,2,-15,-1,1,1,-3
1523148373462853,-29,-4,-5,-24,-14,-5,-5,-4
1523148373464050,-5,-2,-1,-7,-6,-6,-2,-3
1523148373464050,1,1,9,8,8,2,2,2
1523148373485442,-2,6,-1,-6,0,3,2,-4
1523148373485442,6,-5,-5,-8,-8,-2,-1,2
1523148373486564,-1,3,1,-4,2,1,1,3
1523148373486564,-10,-2,23,36,11,2,-1,-12
1523148373499302,-4,-6,-21,-12,-10,-5,-2,2
1523148373499302,26,1,-15,0,-5,-5,-2,0
1523148373506067,-43,-4,10,1,3,2,0,0
1523148373506067,17,6,-4,-14,-1,-2,-1,8
1523148373522612,-7,0,-1,7,-7,-4,1,-6
1523148373522612,8,2,6,14,-1,5,6,10
1523148373524119,31,8,1,1,5,4,8,27
1523148373524119,-44,-9,-10,8,-3,-5,-10,-41
1523148373545522,8,-4,-5,-29,16,-6,-11,-13
1523148373545522,0,-2,4,15,-12,-3,-5,-6
1523148373546677,8,9,-7,-23,-37,0,8,8
1523148373546677,59,-5,6,13,13,4,6,21
1523148373558707,12,42,3,5,-7,3,1,2
1523148373558707,-4,-15,-7,-13,17,-16,-8,-5
1523148373567733,24,21,-1,-16,-10,-3,-1,-6
1523148373567733,-6,-22,-4,22,0,4,5,1
1523148373582989,-31,-8,0,11,-2,-4,-2,7
1523148373582989,11,14,7,1,4,3,1,2
1523148373584278,20,3,17,29,10,-1,-2,-9
1523148373584278,2,-1,1,-48,-13,-6,-1,3
1523148373605475,-23,-24,-8,-8,-3,0,-2,-12
1523148373605475,-15,-1,4,7,-5,3,2,-4
1523148373606859,-2,14,4,-2,9,2,-1,-1
1523148373606859,-25,-71,-4,-16,-1,-5,-4,0
1523148373619202,4,3,7,13,-2,3,0,-9
1523148373619202,2,-14,-11,-7,-4,5,4,11
1523148373627895,20,-14,-7,8,7,-4,-5,-14
1523148373627895,-9,10,5,-8,0,3,5,-11
1523148373643059,-18,-6,3,1,0,-1,-2,21
1523148373643059,79,8,5,6,-5,2,-1,-4
1523148373644662,-23,9,2,-9,0,-4,-1,27
1523148373644662,54,13,-3,14,9,2,-3,-18
1523148373665423,-17,8,8,-19,1,1,-1,17
1523148373665423,58,-14,-4,-15,-3,-2,-1,4
1523148373666724,-33,4,16,20,7,2,6,-33
1523148373666724,48,50,16,11,4,7,8,37
1523148373678756,58,-27,-12,6,-5,1,5,76
1523148373678756,-81,38,17,8,5,0,-2,-25
1523148373687779,89,-14,-11,-16,0,-2,-8,68
1523148373687779,-71,-1,-27,-18,11,-8,-9,-2
1523148373702559,18,-51,-33,-6,-17,-7,1,-65
1523148373702559,-1,4,16,5,-1,7,-4,11
1523148373704129,-6,34,7,-4,-7,-2,13,18
1523148373704129,44,3,-17,-12,-6,-3,-3,23
1523148373725189,-83,-8,-14,14,2,2,-8,-62
1523148373725189,31,13,25,21,32,1,12,28
1523148373727064,51,9,0,-18,-21,-4,-3,-16
1523148373727064,2,-13,6,22,-7,7,9,54
1523148373738724,31,20,17,-11,9,-10,-8,-7
1523148373738724,12,36,-7,-20,-1,-11,-18,-21
1523148373747504,43,-19,11,-30,-10,-12,-7,-6
1523148373747504,-28,7,-14,-6,-43,0,2,-47
1523148373762540,-15,47,19,2,-2,-1,5,34
1523148373762540,-33,-22,-2,-3,-3,-5,-3,8
1523148373764047,-14,3,-11,-3,18,-3,-7,-14
1523148373764047,-59,-4,3,-37,37,1,-9,-35
1523148373785656,76,26,-18,1,-33,-1,3,-3
1523148373785656,-62,-21,-9,19,-1,-3,-8,-10
1523148373786869,-46,1,6,-21,-10,-7,-5,-19
1523148373786869,-23,-2,12,21,29,-4,-4,-16
1523148373798672,-13,-7,1,-45,-32,9,8,7
1523148373798672,8,-9,-2,76,4,5,6,4
1523148373807376,-42,-37,-27,-6,-6,5,-4,-25
1523148373807376,3,2,2,-16,8,-16,-6,11
1523148373822920,14,-1,-19,28,-1,6,2,-5
1523148373822920,-11,-10,-3,-42,-17,-9,-5,-10
1523148373824447,-31,-5,13,127,44,12,1,-8
1523148373824447,24,3,-25,-80,-32,-9,-2,2
1523148373845317,-15,-5,-3,-47,-8,-5,-3,-3
1523148373845317,-29,-13,15,66,11,8,5,-5
1523148373846438,-16,-5,-13,-16,8,-6,-7,-7
1523148373846438,8,-10,1,44,2,5,3,8
1523148373859287,-9,9,6,40,-6,-5,-3,-7
1523148373859287,3,-9,-8,79,7,3,4,3
1523148373867432,-7,-10,-19,-22,-31,-6,-1,8
1523148373867432,21,9,11,59,8,4,-2,-6
1523148373882972,-18,-44,-7,-35,-6,-7,-4,-7
1523148373882972,12,-10,2,9,6,0,2,4
1523148373884477,-8,-1,9,-10,3,2,5,-6
1523148373884477,-20,2,13,24,-5,5,-1,-4
1523148373904981,-1,7,17,-9,12,-1,0,5
1523148373904981,1,0,-16,-42,-4,-3,-3,-6
1523148373906487,-6,-15,-6,-13,-20,-3,-1,-5
1523148373906487,-1,1,8,53,21,11,4,6
1523148373927542,-7,-7,-2,17,0,-2,-1,-5
1523148373927542,24,-4,-4,-9,-11,-6,-6,-3
1523148373929045,-12,1,-11,24,5,0,-2,-5
1523148373929045,24,10,15,79,5,-2,-1,7
1523148373942831,-14,-1,-5,-76,-10,-1,-3,1
1523148373942831,-23,-4,-20,-53,-23,-3,-2,-16
1523148373943840,-8,-5,1,47,9,0,-1,4
1523148373943840,6,1,-6,-41,-12,-3,-1,-1
1523148373965357,3,-6,17,48,13,4,0,-4
1523148373965357,6,-4,-25,4,12,1,1,-2
1523148373966669,7,-2,-3,-62,-24,-8,-8,0
1523148373966669,-36,-2,-3,-22,-11,-5,-4,-8
1523148373978955,4,12,3,12,7,1,1,3
1523148373978955,-7,6,3,-51,-7,1,0,0
1523148373988060,17,-3,-3,74,24,3,-1,-12
1523148373988060,5,3,-24,-25,-30,-9,-4,8
1523148374002679,13,3,9,34,10,-1,-3,-1
1523148374002679,5,6,4,-18,-7,-2,0,1
1523148374004204,-13,-7,-3,-15,2,0,-1,-3
1523148374004204,0,-3,-5,-18,-5,-4,0,7
1523148374025443,-23,6,-1,22,8,3,-1,-10
1523148374025443,-6,0,4,12,-1,-3,-2,3
1523148374026989,-3,-3,-4,-31,-5,-1,-1,-3
1523148374026989,-7,-5,16,47,8,3,0,-3
1523148374047187,-2,-6,-34,-21,-12,-8,-5,-1
1523148374047187,3,-1,1,16,-2,-2,-1,-1
1523148374049192,-7,3,5,26,4,4,2,0
1523148374049192,-15,-1,2,-51,0,2,2,-1
1523148374062226,16,-11,6,60,19,3,1,2
1523148374062226,-2,-3,-23,-90,-31,-10,-2,-1
1523148374064234,27,3,7,-17,8,2,1,6
1523148374064234,16,-14,-16,-50,-18,-7,-5,-7
1523148374085386,-18,3,14,35,22,6,1,1
1523148374085386,-4,4,-7,-21,-9,-4,-4,0
1523148374086293,27,-4,5,-20,-1,2,4,-1
1523148374086293,-22,-2,-6,11,1,4,5,-6
1523148374107680,-16,2,1,6,3,-3,-2,-11
1523148374107680,22,0,11,31,8,2,-3,15
1523148374109379,-45,10,7,6,-5,-1,-2,-1
1523148374109379,-24,10,-14,-8,-4,-1,-2,-4
1523148374122766,9,-3,-1,-17,0,-2,-1,-11
1523148374122766,-17,24,28,13,6,1,3,-1
1523148374123892,-15,-9,-3,-7,-11,-2,-8,-46
1523148374123892,5,-19,8,22,-5,-6,0,51
1523148374144949,-18,16,5,-4,-6,-5,-5,-1
1523148374144949,-3,-32,-24,-6,2,-4,-6,-22
1523148374146452,46,53,28,15,2,0,10,32
1523148374146452,48,17,-20,-1,-2,-1,4,5
1523148374175019,-31,-23,-10,-19,-21,-13,-17,-17
1523148374175019,15,-81,3,-6,-6,-3,-13,5
1523148374176524,-32,-7,-13,-1,-4,-5,-8,-25
1523148374176524,-9,-2,5,3,1,0,0,-8
1523148374182078,27,4,-7,-8,2,2,6,20
1523148374182078,0,30,8,8,6,0,-2,5
1523148374188556,-25,-22,4,-2,-2,3,2,19
1523148374188556,2,23,19,-2,4,4,-5,-21
1523148374205345,43,-13,-19,4,-4,-3,-1,-1
1523148374205345,10,37,21,12,4,9,16,14
1523148374206604,102,0,6,21,15,6,7,55
1523148374206604,-66,-31,-38,-23,-19,-10,-10,-49
1523148374227659,-81,-12,-8,-19,1,-3,-13,-43
1523148374227659,25,-13,-3,12,5,1,3,24
1523148374229166,8,30,-13,4,3,-1,2,-2
1523148374229166,70,31,18,-13,-4,-2,8,22
1523148374242349,16,3,9,50,7,4,3,23
1523148374242349,-11,-1,-1,-19,-11,1,-1,-18
1523148374249118,-32,-4,-10,13,21,2,-1,-14
1523148374249118,-7,-19,-15,-55,-26,-10,-5,5
1523148374265535,12,5,18,63,24,5,6,2
1523148374265535,-27,11,-13,-40,-23,-7,-3,-10
1523148374266673,-14,-9,1,82,10,-3,-4,-7
1523148374266673,2,-3,22,51,25,6,3,-1
1523148374287871,4,-16,-36,-75,-37,-7,-3,3
1523148374287871,-3,10,-5,100,26,5,1,-6
1523148374289490,-21,-4,1,-59,-26,-6,-4,-9
1523148374289490,-1,-27,-16,-76,-13,-1,-5,-9
1523148374302461,19,18,24,42,27,9,7,10
1523148374302461,-5,-21,-31,-72,-6,2,10,2
1523148374309293,-24,-16,-8,13,-16,-10,-19,-18
1523148374309293,3,16,30,80,18,3,1,6
1523148374325037,8,-4,-3,-15,1,3,5,12
1523148374325037,-5,6,26,96,27,7,2,-53
1523148374326525,-7,-18,-37,-86,-41,-13,-9,17
1523148374326525,-11,-1,4,25,1,0,4,8
1523148374347579,-32,0,13,2,9,6,4,0
1523148374347579,6,8,-5,57,-2,-6,-6,-7
1523148374349089,4,-29,-5,12,11,5,5,-3
1523148374349089,-1,4,3,14,2,0,-5,-26
1523148374362030,7,3,8,54,10,0,0,2
1523148374362030,-25,3,-7,-97,-29,-7,-5,7
1523148374368547,13,3,6,18,0,1,6,4
1523148374368547,29,1,-13,24,-4,1,0,25
1523148374385270,7,4,19,-13,19,2,0,-6
1523148374385270,-38,-20,-26,-92,-43,-14,-13,-28
1523148374386992,-18,5,7,11,3,0,4,-11
1523148374386992,53,17,15,4,11,3,-1,7
1523148374407951,16,2,-9,-2,-20,-9,-1,4
1523148374407951,-21,2,4,21,5,-1,-3,9
1523148374409608,-13,4,10,74,14,2,1,2
1523148374409608,-17,9,-11,-57,-12,-2,-5,-3
1523148374422465,34,-1,12,-14,-10,0,0,-5
1523148374422465,12,4,8,35,1,-4,-2,16
1523148374428481,-4,1,-1,37,20,5,-1,-16
1523148374428481,5,-3,-4,23,7,0,2,27
1523148374445274,-8,2,-12,1,-15,-3,1,0
1523148374445274,4,-3,8,38,12,1,-1,1
1523148374446528,1,1,-5,-80,-17,-2,0,0
1523148374446528,-14,-12,4,98,14,2,0,-5
1523148374468152,-1,-3,-27,-44,-13,-4,-3,-6
1523148374468152,17,7,14,70,2,5,7,14
1523148374469486,-29,-7,2,29,-2,-1,-2,0
1523148374469486,4,-3,2,39,2,-2,-4,-19
1523148374481241,-39,1,7,15,2,-1,2,-1
1523148374481241,15,5,-1,21,15,4,-2,0
1523148374489927,8,0,-9,-51,-9,-3,-3,1
1523148374489927,-25,-10,-14,-66,-7,-7,-4,-17
1523148374505300,10,4,14,48,21,7,0,0
1523148374505300,13,-6,-5,-66,-15,-3,1,23
1523148374507155,-2,10,0,-3,-6,-2,-1,-6
1523148374507155,-24,-9,4,-12,-6,-2,0,-7
1523148374527864,5,9,-3,-22,-3,-3,-3,-2
1523148374527864,-3,-14,-4,18,6,3,2,8
1523148374528984,8,5,12,45,12,1,-2,0
1523148374528984,-11,2,-5,1,-2,3,3,-4
1523148374541415,3,-8,-20,14,-26,-11,-6,-7
1523148374541415,37,7,-6,-5,10,8,9,6
1523148374549964,-19,-3,8,2,7,4,-3,2
1523148374549964,-3,-4,0,-18,-1,-2,0,-8
1523148374565503,2,-2,17,58,15,3,0,1
1523148374565503,1,-5,-20,12,-5,-6,-5,-5
1523148374566506,-14,17,3,-3,-9,-1,0,-7
1523148374566506,57,-29,-2,-9,-9,-5,-2,0
1523148374587562,-4,-10,4,0,2,0,-1,4
1523148374587562,-17,11,11,30,6,0,-1,-5
1523148374589066,32,2,-3,-75,-20,-2,-1,-3
1523148374589066,-16,12,10,27,8,0,1,-1
1523148374601657,-9,39,0,-7,-8,-1,-3,-7
1523148374601657,2,-18,4,-5,-1,-7,-8,-5
1523148374610125,23,-7,-10,-12,2,3,4,-9
1523148374610125,65,-3,5,12,9,4,-1,19
1523148374625341,-25,0,17,-30,-6,-5,-2,6
1523148374625341,-37,32,8,-25,0,-2,-1,-23
1523148374626707,35,-8,-4,-18,-14,-7,-6,-2
1523148374626707,16,-2,21,-26,-13,-3,3,23
1523148374647895,-18,42,9,23,13,4,1,-26
1523148374647895,43,45,8,-51,-15,-8,-8,16
1523148374649036,-30,-55,20,40,4,-1,5,-46
1523148374649036,-97,-49,-18,-5,2,-5,-14,-34
1523148374662516,92,-28,40,27,10,7,22,94
1523148374662516,1,4,0,-13,-7,-5,-2,-8
1523148374670036,-89,-23,-13,31,1,-3,-15,-19
1523148374670036,-8,-7,14,117,19,8,-1,-17
1523148374684818,-7,-68,-23,-51,-15,-7,-5,-58
1523148374684818,62,21,-7,48,-10,-9,4,36
1523148374686322,19,-31,25,32,19,16,19,47
1523148374686322,-57,5,-9,58,-13,-10,-2,-6
1523148374708160,-6,10,-57,-36,-8,0,-6,-19
1523148374708160,14,-8,12,16,21,8,17,13
1523148374709164,-38,7,-22,-8,10,-5,-17,-9
1523148374709164,-1,15,4,4,-1,-2,-3,-36
1523148374721194,6,-24,14,25,13,9,14,4
1523148374721194,-18,-13,-6,-21,-3,1,-10,18
1523148374730219,-10,27,-12,-3,-7,-9,-3,-7
1523148374730219,16,7,-4,-53,-5,0,-4,-5
1523148374744757,-2,6,9,-5,-6,-1,1,4
1523148374744757,-28,-7,-16,42,18,5,6,-14
1523148374746762,22,-9,-34,-55,-54,-8,-4,2
1523148374746762,8,17,8,2,5,-1,0,15
1523148374767944,-26,-2,-3,43,-4,-5,-11,-8
1523148374767944,-12,-12,20,50,21,3,-4,-8
1523148374769323,23,18,-10,2,7,-5,1,9
1523148374769323,-3,2,-14,-21,0,8,6,9
1523148374781301,-13,8,-13,10,-16,2,-2,7
1523148374781301,-7,-3,-14,-88,-22,-6,-5,-16
1523148374790327,9,9,9,79,13,-2,0,8
1523148374790327,1,3,-7,-26,-14,-7,-4,0
1523148374805422,11,31,17,-11,9,1,-3,-1
1523148374805422,-16,-29,-9,45,-7,-1,-2,-8
1523148374807105,-12,5,-18,-66,-10,1,0,-4
1523148374807105,38,0,2,41,18,5,6,19
1523148374827719,15,20,7,9,4,0,-4,2
1523148374827719,-19,0,-13,15,-18,-8,-7,-12
1523148374829348,29,22,6,1,0,-5,-3,9
1523148374829348,-39,-3,1,50,11,2,2,-2
1523148374841730,-7,-12,-10,-23,-8,-5,-4,-3
1523148374841730,15,-13,-11,-2,-11,-1,-1,-7
1523148374850361,-2,9,3,10,18,5,6,12
1523148374850361,3,10,-15,-42,-12,-1,1,-6
1523148374865234,-8,-17,-10,21,-6,-6,-5,0
1523148374865234,-10,-2,10,52,12,3,-1,-3
1523148374866402,2,-2,10,34,15,5,1,0
1523148374866402,-6,-3,-13,-93,-28,-9,-4,0
1523148374887480,17,-3,-3,-36,-3,-4,-4,-14
1523148374887480,-2,0,15,-6,6,6,4,-3
1523148374889233,0,-5,3,-14,-6,-7,-3,0
1523148374889233,11,15,12,-10,2,1,0,12
1523148374901663,-2,2,-4,1,-5,-5,-3,0
1523148374901663,-2,3,17,89,15,4,3,4
1523148374910291,-9,11,-9,-27,-11,-5,-3,-5
1523148374910291,32,-62,-1,21,1,0,2,9
1523148374924857,-6,-3,-12,-18,-3,-1,-3,-4
1523148374924857,-8,-5,-5,-24,1,0,-1,-2
1523148374926834,-12,3,-4,16,2,-2,-3,1
1523148374926834,-7,9,-6,-7,2,0,2,1
1523148374947657,-7,-8,-6,35,12,6,3,1
1523148374947657,-41,-33,-10,-33,-6,-2,-5,-9
1523148374948912,11,-15,-2,-20,-4,0,-1,-1
1523148374948912,-8,13,11,74,11,-2,-4,-5
1523148374971337,-18,-5,-1,-59,-12,-5,-3,0
1523148374971337,31,17,-10,-83,-11,-5,-2,-1
1523148374973103,4,-1,-4,-11,-2,-3,-1,-1
1523148374973103,21,6,12,-6,-1,0,1,1
1523148374984914,-82,10,13,56,10,4,0,-4
1523148374984914,-6,-5,-14,-74,-20,-7,-4,-1
1523148374986418,7,-1,8,32,7,4,3,-1
1523148374986418,5,3,-10,-27,-7,-3,-4,-1
1523148375007953,23,-9,-14,2,-4,-4,-3,2
1523148375007953,-10,3,1,28,7,1,1,1
1523148375009642,1,-5,7,7,3,1,-1,-3
1523148375009642,-20,6,-12,-11,-10,-2,-3,-3
1523148375037962,15,-2,4,-42,5,1,0,2
1523148375037962,-10,-5,-20,27,-2,-3,-2,-1
1523148375038807,8,-3,-6,-11,-9,-4,-1,1
1523148375038807,-8,2,0,38,3,-3,-3,-2
1523148375044987,-2,0,-8,-22,-9,2,4,1
1523148375044987,33,0,15,66,7,2,1,2
1523148375046372,-2,4,-7,-21,-1,-2,-2,-3
1523148375046372,34,2,-13,-30,-10,-5,-3,-2
1523148375067947,5,5,5,27,4,0,-2,-4
1523148375067947,-27,-14,-6,5,12,4,4,0
1523148375068933,-8,-11,2,-26,-17,0,2,0
1523148375068933,-14,3,13,2,5,-1,-1,-4
1523148375089987,27,3,-12,5,-2,-6,-5,2
1523148375089987,2,3,-5,-23,-7,-3,-2,0
1523148375091493,-12,-10,-1,11,6,1,0,-3
1523148375091493,-7,26,22,-35,-15,-4,-1,-3
1523148375104527,32,-15,0,23,6,-1,-4,-3
1523148375104527,-7,-11,6,10,4,1,0,2
1523148375111589,0,10,-2,8,0,1,0,-1
1523148375111589,-25,32,24,-4,-2,1,1,2
1523148375127969,42,8,1,-2,-5,-5,-4,1
1523148375127969,-9,-7,10,-2,3,0,-2,-5
1523148375129093,-19,-1,-1,1,-1,-4,-4,-5
1523148375129093,-32,-20,-10,-15,1,4,2,-3
1523148375150148,28,17,-25,10,-6,-5,-2,2
1523148375150148,42,26,8,-4,8,-3,-7,-1
1523148375151652,10,40,-6,-1,-14,-1,4,-6
1523148375151652,16,8,-3,11,5,2,1,20
1523148375164781,42,-31,1,12,-6,-3,3,-1
1523148375164781,31,-20,3,-8,-8,-5,-4,-5
1523148375171705,-36,-27,-12,17,14,0,-12,-14
1523148375171705,42,-5,-81,-33,-38,-12,-2,-1
1523148375187296,-2,-6,12,0,0,-2,-3,3
1523148375187296,-44,32,20,-8,-4,4,7,5
1523148375189252,-26,-26,14,17,7,1,4,3
1523148375189252,-75,-29,-1,-1,6,-2,-11,-31
1523148375210077,-35,-3,3,-3,2,2,-7,-4
1523148375210077,61,32,-11,-12,-4,-1,0,0
1523148375212085,12,3,16,3,1,1,4,18
1523148375212085,10,-10,0,28,13,3,7,6
1523148375224117,-12,10,-9,-3,-5,0,8,-2
1523148375224117,-9,-9,2,-6,2,0,-4,9
1523148375232638,6,9,0,11,-2,0,-1,-13
1523148375232638,21,-1,9,19,9,-1,-3,2
1523148375248178,-21,-3,11,-31,-3,3,5,2
1523148375248178,-10,-24,-5,3,0,-1,-1,-4
1523148375249183,1,1,2,66,-1,-6,-8,-3
1523148375249183,-43,-10,0,-13,-4,-4,-3,-6
1523148375270203,-20,-5,-3,-61,-3,1,-2,1
1523148375270203,-22,-3,-6,29,4,5,4,-7
1523148375272103,11,-5,-6,37,3,2,2,5
1523148375272103,27,2,19,24,12,1,-4,0
1523148375283551,-19,5,15,116,22,4,1,-4
1523148375283551,-43,-10,-31,-89,-37,-8,-3,-1
1523148375292577,41,-6,1,-53,-2,2,2,2
1523148375292577,-30,-4,-5,43,5,2,2,-2
1523148375307553,-34,-8,-2,-11,9,0,-3,-3
1523148375307553,-6,5,-4,-37,-24,-11,-8,-2
1523148375314175,10,-6,-5,51,6,1,-2,2
1523148375314175,-6,0,11,-24,-5,-1,0,-2
1523148375330197,17,15,13,-29,4,2,2,4
1523148375330197,-18,-4,4,12,4,-3,-3,-4
1523148375331702,-3,2,-8,-53,-8,-2,-2,-3
1523148375331702,27,-4,-15,-3,-14,0,1,3
1523148375344735,5,30,9,93,-4,-2,0,0
1523148375344735,-1,15,-3,42,9,1,1,-2
1523148375351623,40,8,3,-24,-7,-5,-2,3
1523148375351623,46,-2,4,-9,14,6,2,6
1523148375367691,-13,-5,-9,-17,-15,-5,-3,-1
1523148375367691,13,-2,-9,-17,-7,-8,-8,-5
1523148375369672,-23,-3,10,20,13,7,4,1
1523148375369672,34,8,-2,79,27,9,6,5
1523148375390213,-5,-10,-13,21,-25,-12,-5,-7
1523148375390213,16,-15,-1,78,15,3,2,2
1523148375391875,-3,-4,-1,9,-1,-1,0,2
1523148375391875,-64,-13,7,22,6,-2,-3,-3
1523148375404551,-2,-3,5,-4,-2,0,0,-1
1523148375404551,-10,-9,7,2,13,1,0,1
1523148375411403,-10,3,9,68,12,4,1,2
1523148375411403,-25,-5,-25,-62,-42,-12,-6,-5
1523148375427642,4,-23,-13,36,14,3,4,0
1523148375427642,-2,3,-7,-16,-8,0,-2,-1
1523148375429148,-2,0,1,1,2,-2,-3,-3
1523148375429148,11,5,6,-20,-1,-4,-4,-2
1523148375450477,-21,-6,-4,10,-2,-2,-1,-3
1523148375450477,21,5,2,19,7,5,4,1
1523148375451358,-13,-1,8,-6,8,2,2,1
1523148375451358,-4,0,16,-55,-27,-3,-2,-3
1523148375463985,2,-2,-4,17,1,-2,-3,-3
1523148375463985,-10,-2,14,26,13,4,2,0
1523148375472915,-29,-2,-15,-57,-21,-12,-9,-6
1523148375472915,-21,4,4,13,9,-2,-4,-3
1523148375487492,9,9,2,-23,7,7,4,5
1523148375487492,6,-7,4,-14,-8,2,3,0
1523148375489245,11,6,3,-18,-7,0,-1,-2
1523148375489245,-11,-12,-15,13,3,-4,-1,0
1523148375510046,-6,-2,-5,-20,-7,-5,-7,-8
1523148375510046,-9,7,-5,14,-3,-1,0,2
1523148375511805,2,-3,-3,-5,-6,-3,-1,-1
1523148375511805,28,9,2,14,-6,-5,-3,1
1523148375524005,-2,-6,-5,83,10,-4,-5,-2
1523148375524005,55,5,-7,-13,-3,-1,3,7
1523148375532976,-8,-5,0,9,2,5,5,3
1523148375532976,12,-7,15,73,23,6,2,-3
1523148375547585,-1,-7,-33,-88,-42,-15,-10,-5
1523148375547585,-7,-8,-13,-70,-20,-12,-11,-8
1523148375548904,12,-10,1,31,5,-1,3,6
1523148375548904,-36,2,-14,14,1,-1,-5,-14
1523148375570164,-6,-20,4,5,13,5,4,2
1523148375570164,22,5,-4,13,0,1,0,-1
1523148375571464,-6,4,-14,-20,-11,-4,-2,-3
1523148375571464,18,2,5,-11,7,3,4,6
1523148375592693,-71,-14,-3,-23,-4,-2,-1,-5
1523148375592693,-2,1,12,38,3,-1,-1,-8
1523148375594025,7,-2,-3,-82,-10,2,-1,1
1523148375594025,-1,-12,-11,20,7,-2,-2,-2
1523148375607738,5,23,28,45,15,7,6,6
1523148375607738,-19,-15,10,-34,-2,-2,-2,-3
1523148375609064,-11,-3,-2,-2,-3,0,0,-6
1523148375609064,-12,0,3,-23,-7,0,2,-1
1523148375630258,-19,12,7,-20,12,-1,-1,0
1523148375630258,-23,19,5,11,-7,-2,1,-2
1523148375631625,44,-14,-15,7,-3,-1,4,9
1523148375631625,-45,-13,0,-26,-7,-2,-6,-14
1523148375643826,90,18,8,20,14,9,7,21
1523148375643826,59,16,-22,-1,-6,-2,-4,25
1523148375652887,17,20,-1,10,-9,-8,-8,-15
1523148375652887,-6,-41,11,11,-2,-6,-5,-48
1523148375667541,-64,-32,-7,-24,-8,-3,-6,-38
1523148375667541,60,56,27,11,9,10,21,87
1523148375669397,-65,1,5,14,8,1,-5,-33
1523148375669397,11,19,-11,-16,-5,-3,-8,-10
1523148375690125,3,-23,-27,-5,-2,4,4,-22
1523148375690125,2,-25,10,16,4,-1,0,-21
1523148375691629,11,4,8,22,-4,-3,2,29
1523148375691629,17,22,-1,-7,-1,1,4,24
1523148375703930,-1,-5,-2,-32,-8,-6,-4,2
1523148375703930,-33,4,-4,46,11,0,-2,-1
1523148375713122,-5,9,14,16,0,-3,-4,-7
1523148375713122,-8,-15,-6,27,-1,0,-1,-3
1523148375727496,50,1,-8,-85,-30,-9,-4,19
1523148375727496,-27,-42,4,9,-4,-6,-4,-25
1523148375729001,36,-4,-28,13,12,0,-2,-5
1523148375729001,16,4,10,45,9,1,0,13
1523148375750493,5,11,-11,-40,-7,0,-4,3
1523148375750493,-44,-13,-10,-17,-21,-3,-1,-21
1523148375751495,-39,-17,-1,83,-11,-4,-5,-7
1523148375751495,29,5,17,39,19,4,2,19
1523148375763991,10,8,2,42,6,4,2,3
1523148375763991,-21,-7,-11,-62,1,-11,-13,-21
1523148375772516,16,0,3,-9,-1,-1,0,7
1523148375772516,-7,11,0,-21,-6,4,7,9
1523148375787557,-13,10,27,79,9,5,2,-2
1523148375787557,-25,-10,-9,-34,-6,-4,-5,-7
1523148375789062,-10,1,3,-7,3,-2,-3,4
1523148375789062,2,0,-2,-64,-15,-5,0,0
1523148375810119,4,1,-4,-19,-4,-7,-4,1
1523148375810119,-29,-10,4,40,5,4,0,-4
1523148375811623,44,7,0,-9,4,0,-3,2
1523148375811623,-12,5,0,-53,-1,7,6,1
1523148375824175,-5,-6,-19,-38,-28,-11,-7,2
1523148375824175,41,15,-5,60,-3,0,1,5
1523148375832681,-34,-29,4,19,3,-1,-5,-10
1523148375832681,5,-2,-10,-4,-4,-2,-3,0
1523148375847717,0,2,17,91,19,4,3,3
1523148375847717,-7,-6,-25,6,-6,-6,-3,-9
1523148375849224,32,-2,-15,-22,-16,-1,1,6
1523148375849224,-30,-12,9,32,3,-1,-1,0
1523148375870565,-10,-4,-14,22,13,1,-2,-4
1523148375870565,-6,-6,5,13,5,-2,-4,-6
1523148375872171,-8,-7,11,15,5,1,3,3
1523148375872171,-1,-4,-3,3,-5,-2,1,1
1523148375884148,23,16,7,-10,1,-1,2,1
1523148375884148,-1,-4,12,38,19,7,2,-3
1523148375892676,3,4,-13,-44,-21,-7,-5,0
1523148375892676,19,7,-4,14,7,-2,-5,-1
1523148375907599,-24,-9,6,-52,-5,-6,-2,0
1523148375907599,18,0,-3,5,0,4,2,1
1523148375909104,-35,-9,-4,76,10,6,3,-3
1523148375909104,2,-3,-11,-21,-11,-5,-4,-3
1523148375930159,2,-2,1,54,5,0,0,2
1523148375930159,-12,4,2,-30,0,0,0,0
1523148375931664,42,0,17,70,17,2,1,2
1523148375931664,7,-1,1,102,5,0,-2,1
1523148375952398,29,1,-16,-57,-19,-6,-3,-1
1523148375952398,-5,-2,10,4,9,5,0,-4
1523148375954230,-26,3,-10,-99,-20,-1,0,-3
1523148375954230,6,8,-2,48,8,-1,-2,0
1523148375967266,13,-7,7,-10,-10,-3,-3,-1
1523148375967266,12,1,4,35,16,-3,-3,-3
1523148375969272,14,12,9,-24,8,3,3,5
1523148375969272,-25,-51,-17,-40,-10,-2,0,-8
1523148375990335,-14,5,-1,-3,-1,-5,0,-2
1523148375990335,-4,-3,4,0,-7,2,-4,-5
1523148375991596,-24,-14,-3,-5,0,-2,2,5
1523148375991596,13,33,5,-30,-9,-2,-2,-1
1523148376012652,-14,-6,4,65,8,-5,-3,-8
1523148376012652,-7,-6,-4,-6,-4,1,-1,-4
1523148376014240,-2,19,-4,2,1,-6,-5,-4
1523148376014240,0,-10,0,-3,9,3,4,5
1523148376027290,11,3,4,31,1,2,1,4
1523148376027290,12,3,-8,-67,-23,-6,-3,-8
1523148376034073,-2,9,5,9,0,-4,-4,9
1523148376034073,5,-5,1,9,0,0,0,0
1523148376050569,-11,-6,-2,9,6,5,2,-2
1523148376050569,34,2,-7,-54,-8,-2,-2,-1
1523148376051577,39,-18,6,41,3,0,0,-3
1523148376051577,-1,1,9,4,-5,-3,-3,3
1523148376072961,-25,-23,-11,-36,-2,3,3,6
1523148376072961,-23,10,4,26,1,-2,-1,-2
1523148376074134,-20,6,-6,-19,3,1,2,2
1523148376074134,53,22,5,-13,-2,2,6,25
1523148376087168,-110,-23,-7,8,1,-4,-14,-59
1523148376087168,57,-7,10,22,4,-1,-2,3
1523148376094187,-16,0,-2,-24,-6,-4,-2,2
1523148376094187,18,4,-39,1,0,-2,-1,19
1523148376110731,-7,-2,-28,-18,-13,-2,-1,2
1523148376110731,-64,-25,-9,4,0,-3,-8,-24
1523148376111734,23,-30,1,17,1,-1,-2,1
1523148376111734,-33,-17,34,10,12,7,12,4
1523148376132514,21,50,-25,-11,-5,-1,-1,14
1523148376132514,-35,-5,-7,2,-7,-5,-4,11
1523148376133793,-2,21,-10,14,10,2,-1,-34
1523148376133793,-11,-14,-4,-9,-7,0,-1,42
1523148376146826,26,21,9,1,1,-2,3,-2
1523148376146826,-34,-31,4,10,-2,1,-3,-11
1523148376153343,-19,11,5,0,8,3,1,14
1523148376153343,-8,-2,-15,-23,-13,-5,-4,-34
1523148376169889,77,-42,5,2,-1,-1,0,15
1523148376169889,13,16,-1,7,1,1,3,4
1523148376171392,24,17,8,7,2,2,4,18
1523148376171392,-80,-4,-12,-9,-7,-9,-16,-70
1523148376192614,33,0,23,16,6,3,4,24
1523148376192614,-16,18,1,48,10,0,5,14
1523148376193952,18,-16,-8,-72,-26,-9,-9,-16
1523148376193952,13,26,-15,-34,-20,-9,1,19
1523148376207439,-68,-4,15,27,11,4,-5,-19
1523148376207439,37,3,2,29,-6,-1,4,10
1523148376213980,5,10,6,116,29,1,-1,15
1523148376213980,-48,8,-21,-61,-51,-8,-12,-67
1523148376230473,17,15,0,27,-6,-4,-2,12
1523148376230473,29,-8,14,40,27,9,5,10
1523148376231454,2,-10,-22,-15,-16,-3,-1,14
1523148376231454,17,-3,19,103,30,0,1,8
1523148376253025,-6,1,-12,-21,-15,-3,-4,-22
1523148376253025,3,20,11,23,1,2,4,19
1523148376254611,-8,-1,20,87,22,5,0,-22
1523148376254611,13,-20,-27,-36,-27,-10,-10,34
1523148376267000,13,2,-5,16,3,-2,4,8
1523148376267000,51,20,7,27,16,5,11,34
1523148376274070,-89,-26,-18,-48,-17,-6,-15,-72
1523148376274070,103,-4,6,84,23,2,-5,-17
1523148376290061,-32,15,13,60,17,6,2,8
1523148376290061,-24,-14,-31,-38,-39,-12,-6,-4
1523148376291569,47,25,15,49,13,4,9,26
1523148376291569,6,15,32,54,41,12,10,9
1523148376312622,-14,-23,-48,-83,-63,-20,-12,-21
1523148376312622,-23,-1,9,77,13,-1,7,-21
1523148376314127,24,9,-13,-24,-21,-5,-17,-2
1523148376314127,-2,-5,10,24,22,5,4,8
1523148376326989,39,21,21,-12,13,4,3,15
1523148376326989,-64,-21,-7,-44,-11,-3,-3,-38
1523148376334135,-8,-3,-7,-27,-11,-3,3,4
1523148376334135,1,2,12,12,11,5,-1,5
1523148376350566,13,2,19,3,26,10,5,-3
1523148376350566,-7,-9,-50,-34,-76,-24,-18,-13
1523148376351681,15,-1,3,64,7,1,3,23
1523148376351681,-34,-8,9,40,13,1,-5,-26
1523148376373047,-12,-19,-10,89,-11,-5,-1,-1
1523148376373047,18,3,2,27,16,0,-8,-7
1523148376374562,6,-33,2,-9,3,2,7,18
1523148376374562,-8,3,-9,-39,-20,-3,3,7
1523148376394936,0,-4,16,49,22,5,0,1
1523148376394936,0,-2,-12,-102,-28,-5,-3,-6
1523148376396441,-15,8,-3,0,-10,-3,3,-1
1523148376396441,16,7,2,48,8,2,4,16
1523148376410322,-9,11,-4,-48,-9,-3,-6,-13
1523148376410322,29,11,1,27,12,-3,-6,-1
1523148376411432,-58,-12,3,7,1,1,-1,-11
1523148376411432,-44,-9,-7,-43,-15,-6,-4,2
1523148376432974,14,7,14,36,12,5,6,16
1523148376432974,-3,8,3,19,7,1,1,-15
1523148376433941,12,-1,-4,-22,-5,-1,-3,21
1523148376433941,12,9,41,98,41,6,-2,-20
1523148376446243,7,-18,-74,-90,-96,-20,-5,-3
1523148376446243,-22,-13,-2,110,17,1,-7,6
1523148376455529,-7,15,10,69,13,2,7,10
1523148376455529,15,2,6,-24,-2,1,3,10
1523148376470478,-39,-12,-10,-28,-7,-10,-11,-22
1523148376470478,-1,-12,1,-25,5,1,4,-5
1523148376472082,-28,-12,-15,-38,-12,-3,-5,4
1523148376472082,31,9,-1,-4,-3,2,3,17
1523148376492603,-9,1,21,21,19,0,1,-2
1523148376492603,-14,4,-4,-29,-6,0,-1,-2
1523148376493894,50,-4,12,24,11,0,-1,-7
1523148376493894,7,10,-13,-28,-18,-2,-2,-7
1523148376506144,7,-9,10,21,13,2,-2,-2
1523148376506144,-1,0,10,94,21,2,-1,4
1523148376514951,-14,1,3,-68,-9,-2,-2,-6
1523148376514951,22,3,-33,-48,-35,-9,0,9
1523148376530122,14,9,18,49,18,6,2,6
1523148376530122,-29,-9,44,70,43,15,6,12
1523148376531498,-33,-12,-63,-31,-62,-24,-15,-28
1523148376531498,-15,-6,-7,50,-3,-6,-2,-5
1523148376552706,13,0,8,49,17,6,8,5
1523148376552706,5,-9,2,13,7,5,-2,-1
1523148376554107,-7,2,13,17,15,7,4,1
1523148376554107,3,-14,-9,-42,-16,-6,-7,-8
1523148376566224,12,-5,4,10,3,-5,-2,5
1523148376566224,-4,4,-4,-28,-4,-1,0,-12
1523148376575304,9,-1,-11,-60,-13,-1,-5,15
1523148376575304,1,-1,-4,10,-1,0,-1,1
1523148376589959,-11,2,10,6,15,4,1,3
1523148376589959,4,9,10,-40,-12,-5,-4,-7
1523148376591960,-8,-7,-32,24,-9,-4,2,-4
1523148376591960,7,21,2,41,5,0,-1,-47
1523148376612545,-19,-59,-19,-32,2,-4,-2,46
1523148376612545,6,7,-4,-30,-13,-5,-2,-5
1523148376614047,3,31,28,61,25,9,5,5
1523148376614047,1,-30,-16,-55,-11,-5,0,4
1523148376626205,-5,13,-16,7,-5,-4,-7,-31
1523148376626205,32,21,15,2,-5,2,7,36
1523148376635102,6,15,21,15,14,6,6,3
1523148376635102,-90,-63,-18,-23,-8,-3,-5,-15
1523148376650254,-4,20,10,6,5,0,-5,-12
1523148376650254,14,28,-2,-7,1,1,3,30
1523148376651648,54,27,8,-1,-6,0,3,0
1523148376651648,-14,14,12,1,6,4,-2,-3
1523148376672718,-50,-18,-19,5,-5,0,-1,-1
1523148376672718,7,-15,-32,-27,-34,-11,-2,-16
1523148376674208,3,4,-13,21,7,3,4,2
1523148376674208,54,14,8,34,5,-1,-5,28
1523148376686350,79,7,27,1,4,3,8,2
1523148376686350,-68,-13,-26,-11,-4,-4,-6,-11
1523148376695264,14,27,17,13,3,1,4,-5
1523148376695264,9,12,2,13,1,6,7,8
1523148376710048,-21,-44,-7,11,5,0,0,-5
1523148376710048,32,-37,-3,-11,-1,-4,-3,-34
1523148376711306,-1,10,10,-10,1,-3,-8,26
1523148376711306,-21,-7,-14,-6,-2,-7,-3,1
1523148376732361,27,24,2,-5,-4,-3,-14,-28
1523148376732361,-10,8,-5,1,3,-2,0,16
1523148376734515,-84,-31,0,-5,-2,1,-5,-52
1523148376734515,53,31,19,3,7,4,12,24
1523148376746557,1,17,15,27,3,3,6,10
1523148376746557,0,-7,-16,-56,-15,-6,-6,-6
1523148376755215,12,-9,7,7,-1,-7,-5,3
1523148376755215,-2,6,1,-4,-3,-2,-6,2
1523148376770211,-12,12,-8,6,4,4,5,-3
1523148376770211,-4,1,24,29,15,6,1,1
1523148376776668,3,-9,-13,-47,-21,-10,-1,1
1523148376776668,-18,-7,3,74,19,2,-4,-7
1523148376793075,-18,-7,-42,-89,-52,-15,-6,-8
1523148376793075,40,18,17,91,27,6,5,14
1523148376794214,-6,-14,5,-47,-7,2,-2,0
1523148376794214,-6,-4,-26,12,-9,-4,0,1
1523148376806592,5,3,9,-2,2,1,0,-18
1523148376806592,-26,-6,-2,22,0,-2,-8,-21
1523148376815056,-36,-38,-26,45,-7,-9,-10,-25
1523148376815056,19,11,22,56,21,6,13,36
1523148376830455,12,24,28,67,22,3,-6,23
1523148376830455,-4,-5,-24,-25,-22,-8,-4,-17
1523148376831372,5,4,12,49,19,11,5,1
1523148376831372,15,1,7,24,14,7,7,-21
1523148376853014,-5,-13,-32,-75,-21,-7,-2,8
1523148376853014,3,3,6,-14,-1,0,-1,5
1523148376854680,14,1,6,16,7,-1,-2,-10
1523148376854680,-12,-7,-14,-47,-19,-7,-10,-4
1523148376875418,0,6,20,64,24,6,5,8
1523148376875418,-27,-22,-10,18,7,3,2,2
1523148376876536,3,2,-10,-31,-15,-4,-1,3
1523148376876536,-12,-11,2,-26,0,1,-2,-4
1523148376890479,1,6,19,73,26,8,4,-4
1523148376890479,9,1,-12,-36,-28,-8,-2,-13
1523148376891578,39,6,10,120,29,7,9,26
1523148376891578,-19,-3,-5,-18,-18,-8,-6,-3
1523148376912690,-37,-27,0,7,0,0,-9,-5
1523148376912690,23,-5,5,7,4,3,3,2
1523148376918996,6,2,11,-7,7,1,3,-1
1523148376918996,-18,-3,-13,16,-7,-5,-6,-20
1523148376935533,13,27,-14,-88,-22,-4,3,8
1523148376935533,4,-11,4,5,12,3,1,8
1523148376936697,16,4,-5,-30,-10,-5,-8,-12
1523148376936697,25,20,-10,-45,-16,-5,-4,3
1523148376949972,-7,2,3,9,2,0,1,-2
1523148376949972,-23,-4,2,9,3,3,3,5
1523148376951736,-3,2,0,-1,6,2,-1,1
1523148376951736,25,-2,2,-15,-5,-3,-5,0
1523148376972781,-3,3,13,57,13,1,1,-1
1523148376972781,-14,3,3,-59,-19,-4,0,1
1523148376974588,23,23,-25,-35,-10,-9,-6,-9
1523148376974588,-16,-44,1,3,5,3,-1,13
1523148376994870,5,0,11,20,2,-1,-1,0
1523148376994870,24,5,-5,26,-10,1,1,5
1523148376997158,-43,-16,-15,25,1,-6,-5,-43
1523148376997158,6,17,3,11,3,1,5,56
1523148377009361,-15,-33,-16,-10,-4,1,0,-5
1523148377009361,-21,5,11,43,9,-1,-3,2
1523148377016650,9,-3,15,-66,-11,6,5,5
1523148377016650,-27,-10,-12,60,3,-6,-6,-32
1523148377032358,12,2,1,23,-4,-4,1,7
1523148377032358,8,12,-2,-14,2,0,0,7
1523148377034486,-18,-13,8,9,19,6,2,4
1523148377034486,-2,-7,-13,-53,-23,-8,-4,-20
1523148377055358,-8,0,0,-2,-8,-1,1,7
1523148377055358,23,-3,0,6,5,-3,-5,27
1523148377056828,-8,5,21,25,6,-2,-4,-5
1523148377056828,-16,-13,-29,18,-2,2,2,-15
1523148377069773,-24,-30,-29,-59,-1,-7,2,39
1523148377069773,-64,15,6,10,5,2,2,-9
1523148377076386,-7,-13,1,11,0,0,-3,0
1523148377076386,-41,7,26,45,6,-2,-1,-1
1523148377092426,-5,-1,-15,-67,-46,-10,-9,-17
1523148377092426,22,14,-4,55,12,2,2,-4
1523148377093929,2,-28,-5,-9,-9,0,2,23
1523148377093929,-2,19,9,-14,7,-2,-2,-21
1523148377114949,-13,4,2,11,13,1,-2,-25
1523148377114949,0,-4,24,89,26,5,0,1
1523148377116991,10,5,-45,-55,-53,-12,-7,-8
1523148377116991,10,-17,-6,19,8,6,5,12
1523148377129878,18,17,14,27,2,-1,-2,6
1523148377129878,8,0,-9,-28,-10,-6,-8,6
1523148377136381,2,21,7,40,17,4,1,2
1523148377136381,-7,9,4,-23,-3,-2,0,-3
1523148377152427,-13,-3,-8,-31,-9,-3,-2,-3
1523148377152427,12,2,-2,-6,-2,-2,-2,-22
1523148377154430,38,13,16,-3,2,0,13,5
1523148377154430,-32,21,20,-29,-9,-1,-19,-17
1523148377174986,78,12,-7,26,11,2,7,7
1523148377174986,-32,-51,-34,-46,-15,-8,-2,-45
1523148377176489,-25,12,-9,-3,-8,1,-2,34
1523148377176489,50,-19,11,20,9,6,8,32
1523148377189525,0,9,2,11,-3,-3,-5,-17
1523148377189525,34,11,-1,-15,-1,2,1,24
1523148377196042,-69,-8,13,31,11,-4,-13,-36
1523148377196042,4,5,5,-16,1,-4,-6,-30
1523148377212585,22,-12,2,14,2,4,20,66
1523148377212585,-26,9,-28,-18,-8,-5,-19,9
1523148377214092,-19,-21,-14,8,2,-2,-1,-23
1523148377214092,28,16,-8,-8,-2,-5,-8,21
1523148377235384,-5,-19,6,8,6,3,4,4
1523148377235384,-17,24,6,-6,-3,0,2,-21
1523148377236650,-2,-23,16,9,2,-1,-2,17
1523148377236650,-2,-13,-3,-17,-7,-2,4,-34
1523148377257584,-42,-56,-29,-7,0,2,1,-10
1523148377257584,37,6,14,-4,-4,-5,1,51
1523148377259211,-50,15,-6,-1,-5,-4,-15,12
1523148377259211,-12,-23,6,-3,2,-2,3,-22
1523148377272626,19,-6,-7,10,-13,-6,-13,-24
1523148377272626,-4,-15,-1,1,6,2,5,1
1523148377274248,24,18,6,69,15,9,11,3
1523148377274248,-9,3,-15,-25,-24,-8,-2,12
1523148377294803,-25,33,14,3,12,1,-8,-44
1523148377294803,9,-4,17,67,24,7,7,8
1523148377296810,42,2,-4,4,-12,-2,4,2
1523148377296810,-17,-10,-12,-18,-16,-6,-4,4
1523148377309112,3,4,6,96,21,1,-6,-17
1523148377309112,4,-2,-7,-91,-12,-1,1,-6
1523148377317906,30,-13,1,18,8,0,2,7
1523148377317906,18,11,14,61,15,10,4,-2
1523148377332785,14,23,10,-6,3,-3,4,23
1523148377332785,-30,8,22,65,24,9,11,-16
1523148377333910,4,-7,-6,54,-14,-11,-18,-12
1523148377333910,-8,-8,2,29,10,0,-3,-27
1523148377354963,-8,13,-2,-63,-10,-2,-5,-8
1523148377354963,5,-1,6,69,6,1,4,1
1523148377356467,1,-3,-18,-64,-16,-2,4,-10
1523148377356467,-12,-1,-11,-34,-8,-6,-3,7
1523148377368880,-7,1,6,64,5,2,0,0
1523148377368880,-1,-5,-2,-19,-7,-5,-5,-11
1523148377377524,0,32,22,46,25,6,4,4
1523148377377524,4,-51,-23,39,-19,-8,-1,15
1523148377392564,-2,6,1,29,-2,0,-3,2
1523148377392564,35,3,9,-36,7,4,3,8
1523148377394067,13,-4,-11,-29,-18,-6,-1,8
1523148377394067,-18,18,8,10,15,5,8,-17
1523148377415123,21,-6,12,40,7,-1,-6,8
1523148377415123,-19,-24,-39,-31,-41,-19,-14,-19
1523148377416628,-25,-15,5,36,5,2,4,-8
1523148377416628,12,14,5,1,3,2,-4,3
1523148377428943,-6,-5,-4,43,9,0,4,-2
1523148377428943,-6,10,0,-32,-4,0,-8,-11
1523148377437686,3,-21,-14,-59,-14,-2,4,38
1523148377437686,-13,7,-5,-36,-16,-5,-6,0
1523148377452831,-50,1,8,26,10,-1,-3,-11
1523148377452831,-4,3,-14,8,-3,1,-1,5
1523148377454361,-2,-1,0,-39,-7,-5,-5,-16
1523148377454361,4,9,17,15,19,5,4,11
1523148377475464,35,-13,-13,-4,-9,0,3,8
1523148377475464,11,18,-7,-16,-3,-1,-6,-16
1523148377476787,-6,-16,5,-1,0,-2,2,-3
1523148377476787,0,24,-3,-29,4,1,0,4
1523148377488945,3,-5,-12,-16,-15,-4,-4,-12
1523148377488945,8,-4,-3,-21,-1,-1,1,-17
1523148377497343,9,6,5,-48,-26,-4,-2,12
1523148377497343,7,-13,-34,79,-2,-9,-4,3
1523148377512601,-15,5,-6,-28,-9,-2,1,-2
1523148377512601,14,-1,11,52,6,0,1,-2
1523148377513886,-1,7,18,83,31,7,0,-4
1523148377513886,-9,-12,-15,-93,-60,-14,-5,-12
1523148377535653,-1,3,2,59,7,1,-4,-16
1523148377535653,10,-15,0,45,-3,-1,1,25
1523148377537448,6,7,1,3,12,2,-1,-11
1523148377537448,19,7,12,61,17,4,2,9
1523148377549020,4,3,-5,32,-5,-3,2,-33
1523148377549020,3,4,15,-6,-4,2,-3,25
1523148377557502,-5,-8,-3,-1,-1,0,1,-2
1523148377557502,25,-7,0,37,19,1,0,-1
1523148377572731,-8,3,-17,-117,-19,-5,-3,4
1523148377572731,-17,-5,9,21,9,2,0,-11
1523148377574047,53,1,-17,32,-4,-4,-2,-22
1523148377574047,-21,9,16,-18,17,7,2,15
1523148377595314,-1,-5,-18,-79,-24,-7,-4,3
1523148377595314,-28,-17,-29,-45,-17,-4,4,-10
1523148377596607,24,7,2,44,13,2,-8,10
1523148377596607,-9,-32,9,-39,16,6,-1,-10
1523148377608862,6,-24,-24,14,-21,-6,0,19
1523148377608862,-9,-4,10,-42,-5,-2,2,-15
1523148377617664,-52,17,12,-2,2,-1,-2,6
1523148377617664,30,-19,-10,-8,-1,-1,-3,-3
1523148377632701,58,34,5,-38,9,4,-2,-21
1523148377632701,6,-26,-22,6,-18,-1,3,4
1523148377634206,-21,18,-2,4,-4,-5,-5,-9
1523148377634206,14,27,7,11,-6,-3,4,33
1523148377656443,-15,0,-12,42,18,7,-4,-23
1523148377656443,-35,-78,-60,7,-21,-15,-10,16
1523148377657769,-6,-43,-16,-26,-5,0,2,10
1523148377657769,-23,-33,-12,18,4,3,2,-23
1523148377668964,53,33,34,14,-3,-5,-11,11
1523148377668964,-76,-4,9,18,15,2,2,31
1523148377677824,70,38,21,-11,-1,-2,-3,13
1523148377677824,-16,-40,-29,-7,-14,-6,11,-37
1523148377692557,-15,-1,22,13,7,2,-10,37
1523148377692557,12,25,27,28,5,2,-4,-18
1523148377693865,-7,8,-2,-35,-5,-4,3,-13
1523148377693865,9,19,2,13,-2,0,-6,22
1523148377715170,-74,-1,2,1,-2,-7,0,-13
1523148377715170,44,35,33,27,11,7,10,12
1523148377716427,-26,11,-16,-17,-7,2,-1,8
1523148377716427,-29,-72,-33,13,-1,-3,-8,-25
1523148377728678,-23,-22,-8,-31,-9,-4,4,6
1523148377728678,19,13,20,38,13,1,-8,3
1523148377738082,-18,0,17,-59,-8,1,8,-10
1523148377738082,22,-1,9,22,-10,-4,-8,-20
1523148377752906,11,6,5,-7,-7,1,9,40
1523148377752906,19,10,3,36,7,2,6,-18
1523148377754572,-21,-1,15,-41,6,2,-7,-18
1523148377754572,-17,14,-1,103,-2,-4,1,2
1523148377775083,-2,-9,-2,-5,-13,2,4,-16
1523148377775083,22,10,7,33,-3,-3,-7,22
1523148377776587,-5,-8,5,122,29,10,2,-12
1523148377776587,-25,25,-16,6,-8,-10,-8,-9
1523148377797640,21,1,18,55,21,4,0,-3
1523148377797640,-12,4,-15,-72,-32,-6,-3,2
1523148377799146,-1,-22,-25,90,7,0,14,19
1523148377799146,-1,18,34,-2,5,5,-9,-4
1523148377812754,8,15,33,116,49,15,7,-8
1523148377812754,-48,10,-39,-81,-55,-14,-11,-23
1523148377819030,-10,-55,-3,21,-4,-5,-9,-33
1523148377819030,7,-1,22,21,21,10,12,35
1523148377834775,4,-17,-18,-39,-38,-4,0,10
1523148377834775,-48,0,-9,99,37,-2,0,-17
1523148377836745,4,3,-4,4,-6,-4,-10,-5
1523148377836745,-7,22,10,48,2,7,4,12
1523148377858129,-21,-23,-6,40,-2,-7,-6,-15
1523148377858129,23,-11,-1,-6,1,2,1,-4
1523148377859305,-7,-6,-24,-71,-33,-12,-10,-3
1523148377859305,-2,7,20,2,22,6,3,11
1523148377872733,23,15,-6,-33,-4,-2,2,-26
1523148377872733,16,-2,-3,-35,-12,-2,-9,-6
1523148377874362,1,8,1,15,15,0,2,6
1523148377874362,1,21,9,-41,-13,-3,-3,4
1523148377895297,-6,-1,-4,-26,-5,-1,8,11
1523148377895297,-11,-4,5,1,14,3,-1,-8
1523148377896408,-12,-17,4,-6,4,1,-2,-3
1523148377896408,11,-1,-20,-26,-16,-8,-10,-32
1523148377917460,14,5,-11,-27,-7,-4,1,14
1523148377917460,20,-21,13,30,17,4,6,5
1523148377918965,4,9,-1,9,-4,-1,-4,15
1523148377918965,-13,-4,-7,-19,-8,-1,4,-4
1523148377932318,-32,-15,-6,0,6,-2,-4,-1
1523148377932318,6,12,5,-3,2,2,-3,-10
1523148377938517,4,6,0,-72,-16,-4,-1,-6
1523148377938517,-6,6,-2,6,-18,-8,-5,-3
1523148377955060,-27,-23,7,86,26,3,-4,11
1523148377955060,15,3,-2,-42,-9,-3,-1,-14
1523148377957085,-31,9,9,83,28,8,8,11
1523148377957085,4,-24,-11,-53,-27,-5,-4,9
1523148377977705,-7,2,-8,-20,-15,-8,-2,-7
1523148377977705,3,7,2,45,3,2,-8,-2
1523148377979123,12,12,13,76,20,2,0,3
1523148377979123,-3,12,-14,-61,-13,-4,2,-34
1523148377992329,0,-3,-2,33,6,0,-3,5
1523148377992329,-3,-7,-5,-13,-2,-1,-1,5
1523148377998677,31,3,1,-15,-6,-3,2,0
1523148377998677,10,16,3,-2,9,1,-8,-12
1523148378014718,-7,3,-10,-31,-10,-2,2,-4
1523148378014718,1,-11,-6,-18,4,-3,-2,18
1523148378016723,11,-8,0,21,-9,-2,-3,-1
1523148378016723,-27,2,-7,-20,4,4,10,12
1523148378037488,15,12,8,27,6,4,-1,13
1523148378037488,-5,15,25,73,12,6,6,9
1523148378039284,4,-23,-57,-92,-52,-20,-9,-14
1523148378039284,19,21,11,55,9,1,1,2
1523148378052028,-1,34,12,0,0,4,-2,-3
1523148378052028,8,-5,9,17,-2,1,3,-8
1523148378058982,-3,-4,-2,-20,-1,0,-1,8
1523148378058982,-25,-9,-6,-7,10,2,-1,5
1523148378074882,-6,-7,-13,-30,-8,-5,-6,-11
1523148378074882,8,9,3,-16,3,-1,-1,-22
1523148378076383,1,35,8,-4,0,1,4,38
1523148378076383,3,-14,3,32,8,2,0,1
1523148378097439,-4,-17,-3,-12,-7,-2,-3,11
1523148378097439,-9,-9,0,57,10,0,5,4
1523148378098944,-20,-11,-3,19,6,0,-9,-18
1523148378098944,2,3,0,25,-4,-2,-2,9
1523148378112154,1,3,13,-26,-1,3,-8,-6
1523148378112154,7,-3,-11,1,-12,-4,1,-21
1523148378118711,-7,13,5,-36,-7,-5,4,24
1523148378118711,0,-3,13,18,14,1,-4,10
1523148378135243,-20,-25,-12,-10,-14,-2,-4,-19
1523148378135243,22,9,-10,0,5,-4,-2,55
1523148378136543,-20,-14,7,15,1,2,-1,-46
1523148378136543,20,29,0,-22,-1,1,0,13
1523148378157977,4,18,1,-8,-3,3,8,-22
1523148378157977,4,47,-15,-5,-6,-4,-13,42
1523148378159104,94,16,-12,-2,-6,0,1,8
1523148378159104,1,-12,8,-12,-1,-4,3,-7
1523148378172438,-24,-39,-15,14,-6,-9,-15,-32
1523148378172438,-29,9,20,-10,2,0,-7,-44
1523148378179033,-24,-12,-13,3,9,4,2,-14
1523148378179033,27,-1,-28,-6,-10,-3,-9,92
1523148378195199,11,-12,15,14,8,1,8,-3
1523148378195199,-15,-21,4,-21,-8,-3,3,-9
1523148378196703,39,-19,9,6,0,-1,3,-3
1523148378196703,-21,11,8,12,5,-1,-6,-61
1523148378217944,-19,-2,9,0,9,4,1,16
1523148378217944,45,-7,14,1,2,5,16,54
1523148378219262,-10,2,-13,12,1,-1,-5,-4
1523148378219262,7,-9,-10,11,-3,-4,-2,-6
1523148378240602,11,20,-8,-14,1,0,0,0
1523148378240602,-10,-19,10,-15,0,0,8,12
1523148378242030,-24,-15,-5,-5,-1,0,-6,22
1523148378242030,-7,-31,-13,-17,-9,-4,-1,-6
1523148378255008,21,27,16,18,14,6,5,9
1523148378255008,8,0,-14,15,-7,4,1,-23
1523148378256388,-22,-20,-3,30,2,-3,-2,1
1523148378256388,-5,23,28,120,29,6,0,-5
1523148378277596,6,-5,-16,-79,-31,-10,-1,-22
1523148378277596,5,-10,2,90,14,5,-8,-12
1523148378278924,-46,38,-13,16,-9,-6,-5,-1
1523148378278924,-5,1,14,72,9,4,10,-12
1523148378291455,-23,19,1,8,-8,4,-1,3
1523148378291455,-2,-13,0,86,7,-6,-3,-16
1523148378300981,-5,17,15,46,7,3,-1,-4
1523148378300981,4,9,27,-20,23,12,7,-8
1523148378314675,-3,-19,-24,44,-5,-8,-1,7
1523148378314675,1,10,-20,-31,-7,-2,3,-21
1523148378315020,-2,-13,4,-18,-8,-1,-10,-3
1523148378315020,-14,11,26,126,35,9,4,14
1523148378337355,3,-9,-32,-26,-31,-8,-7,-4
1523148378337355,-6,12,-10,-21,-13,-4,-2,-5
1523148378337578,27,-5,13,30,16,5,8,-7
1523148378337578,-2,-19,-14,33,-15,-6,-5,-10
1523148378359137,-10,-4,1,-12,11,-7,-5,4
1523148378359137,3,-4,-9,-25,-16,-5,-5,-14
1523148378367161,8,2,1,-23,5,3,9,14
1523148378367161,0,-7,-12,-103,-40,-11,-11,1
1523148378374676,14,1,1,45,19,2,0,15
1523148378374676,-11,7,10,15,10,0,-4,13
1523148378375180,-5,-37,-9,-45,-6,2,0,-16
1523148378375180,5,-11,-40,-110,-49,-13,3,23
1523148378397238,-7,-1,3,47,-1,3,-3,-11
1523148378397238,26,-5,-4,-13,8,0,-2,-8
1523148378397739,-7,5,9,34,-4,1,1,0
1523148378397739,-24,-11,-27,-56,-4,-10,-2,23
1523148378420605,-19,-12,5,-14,6,0,-9,2
1523148378420605,-11,-3,6,-13,-2,2,3,4
1523148378420816,-12,5,3,63,14,0,2,-8
1523148378420816,1,-4,4,-14,-18,0,-2,-18
1523148378434352,9,33,20,11,8,2,3,40
1523148378434352,-13,-33,-5,24,19,6,1,1
1523148378435353,-5,-8,-11,-3,-37,-9,-4,-9
1523148378435353,-12,3,-28,-33,-14,-10,-6,-15
1523148378456910,22,7,10,48,11,5,7,12
1523148378456910,-39,3,2,-11,-10,-5,-7,-13
1523148378457966,-8,-7,2,65,23,4,3,5
1523148378457966,5,-4,14,25,4,2,-2,-11
1523148378479973,44,22,25,12,0,3,7,-6
1523148378479973,-7,-22,-8,9,8,-3,-4,-1
1523148378480474,-7,-24,-1,17,15,0,-4,-10
1523148378480474,-29,14,-14,-76,-37,-7,-2,-1
1523148378494812,25,-20,-14,-23,-9,-4,2,-9
1523148378494812,23,22,3,-2,6,-3,-5,2
1523148378495015,8,20,32,28,-14,-1,0,6
1523148378495015,11,-9,-40,-38,17,6,6,-11
1523148378516569,-19,-21,-13,43,-7,1,5,13
1523148378516569,-32,7,5,-3,-11,-2,-14,-1
1523148378517573,26,7,-13,-19,-5,-6,-3,6
1523148378517573,14,10,28,42,16,5,-1,0
1523148378540535,-15,-13,-18,-56,-20,-8,-1,-10
1523148378540535,5,4,-22,-25,-4,-3,2,-17
1523148378540635,-7,-8,9,14,10,5,4,10
1523148378540635,3,31,7,69,-10,0,-2,14
1523148378554170,8,-6,-6,79,15,-2,-5,-18
1523148378554170,-23,-3,9,26,-3,-1,2,37
1523148378555174,5,9,1,-30,-4,-2,-2,-22
1523148378555174,6,8,32,75,26,9,9,1
1523148378576731,-12,-17,-22,37,-7,-10,-6,-6
1523148378576731,14,16,7,42,-3,1,1,15
1523148378578073,23,-32,2,20,5,1,-4,-14
1523148378578073,-30,-36,13,32,4,1,-3,1
1523148378599682,-4,13,18,-19,22,3,-5,-9
1523148378599682,-10,-20,-6,-57,-14,-7,1,-28
1523148378599793,24,17,4,28,15,2,0,56
1523148378599793,26,-4,22,77,13,2,-3,-16
1523148378615836,-38,-12,-30,-36,-25,-11,-5,-13
1523148378615836,-2,5,-3,34,9,0,10,31
1523148378616960,31,-16,-26,-28,-17,-8,-17,-7
1523148378616960,18,5,13,36,14,0,-1,-6
1523148378645297,5,3,-9,-69,-7,0,-3,17
1523148378645297,10,2,-10,-18,-2,0,4,8
1523148378645915,-48,-4,5,-2,2,1,3,-11
1523148378645915,12,0,-24,-30,-6,-7,-5,6
1523148378659450,-48,-15,8,20,6,2,-2,-23
1523148378659450,69,35,17,-17,-6,0,3,0
1523148378659951,-25,2,-10,-27,-10,-8,-4,-15
1523148378659951,24,-9,5,-29,-6,-1,4,-21
1523148378674508,-7,-28,1,15,5,8,4,-19
1523148378674508,-38,5,5,11,9,1,6,24
1523148378674993,-17,36,14,-2,-7,-3,-12,-38
1523148378674993,68,-8,-26,-15,-4,-2,3,57
1523148378697070,-12,-6,-3,16,1,-6,-4,-20
1523148378697070,1,-30,-3,7,-3,2,-7,-15
1523148378697553,51,37,-18,-20,-16,-2,10,29
1523148378697553,-128,38,8,-15,1,-4,-7,-54
1523148378719497,98,-15,31,11,6,1,-14,64
1523148378719497,-10,-7,-27,-7,-4,-4,-3,5
1523148378720113,-11,-3,6,-14,-4,-2,9,9
1523148378720113,3,9,-11,-24,-7,-3,-2,-7
1523148378734153,-4,15,7,5,-2,-1,-1,-9
1523148378734153,-32,-22,5,-2,-1,-5,-4,-40
1523148378735153,-4,-9,-5,1,5,6,3,0
1523148378735153,-1,3,-3,-1,0,1,6,9
1523148378757230,-46,10,-4,-7,-1,1,4,-7
1523148378757230,-5,-9,13,32,-1,-1,-5,-11
1523148378757712,-12,-9,-18,-40,-2,-5,-9,-3
1523148378757712,13,2,0,0,-4,-3,-3,-1
1523148378779814,10,13,24,31,13,4,7,9
1523148378779814,7,20,10,-43,-13,-3,-7,-9
1523148378779814,-9,-15,-17,-4,-15,-9,-3,-5
1523148378779814,19,1,11,-60,-4,-5,-3,4
1523148378794309,32,12,6,107,27,12,7,7
1523148378794309,-22,9,-15,-30,-19,-1,10,7
1523148378795625,-2,-65,13,120,43,7,-3,2
1523148378795625,-9,-27,-40,-13,-48,-21,-13,-18
1523148378816870,-12,6,10,95,2,-2,-2,6
1523148378816870,8,-15,-1,-1,9,7,3,9
1523148378817972,30,7,-14,6,-4,-3,2,-4
1523148378817972,4,9,9,55,21,5,4,-28
1523148378839817,3,-5,-4,2,-3,0,3,26
1523148378839817,8,5,5,61,4,-1,-6,-14
1523148378839932,-9,4,-22,-106,-40,-16,-11,-5
1523148378839932,14,-8,5,31,15,12,10,2
1523148378854701,14,16,-4,-50,-7,-1,1,-3
1523148378854701,-20,-9,-4,-16,-24,-7,-5,-3
1523148378854972,-14,10,6,-3,12,-2,-1,-11
1523148378854972,0,-17,-5,-5,-2,-2,1,19
1523148378877121,-36,22,22,32,24,8,5,-10
1523148378877121,29,-17,16,66,5,0,-3,0
1523148378877531,-8,-2,5,-34,-8,4,5,-1
1523148378877531,-23,-7,-17,45,-9,-14,-14,-4
1523148378899300,-23,-1,0,8,-2,1,1,0
1523148378899300,-8,-2,-15,-4,-3,-4,-1,-15
1523148378900092,-10,42,13,-5,-2,3,4,-13
1523148378900092,38,-4,17,3,17,7,-3,38
1523148378914331,-14,-5,-5,-18,-15,-3,-1,-35
1523148378914331,-8,-49,-5,10,-1,-2,1,46
1523148378921817,-15,10,-5,39,11,4,4,-10
1523148378921817,-2,-5,4,-26,-1,4,2,-2
1523148378936863,13,-12,-24,-50,-10,-6,-1,-1
1523148378936863,7,11,-20,-1,8,2,-1,-18
1523148378937691,7,-5,3,3,-5,2,-1,7
1523148378937691,-15,-4,7,23,4,0,0,1
1523148378959248,4,-1,-16,-21,-10,-4,-3,4
1523148378959248,7,7,-7,-18,0,0,-1,-10
1523148378960394,32,-6,-1,10,-2,-5,-4,5
1523148378960394,-2,3,-15,-4,1,-1,2,0
1523148378974288,3,-6,4,-29,0,0,-1,-4
1523148378974288,-14,26,0,-15,1,-2,2,33
1523148378975291,-3,-28,-8,-2,-5,-2,-9,-26
1523148378975291,-13,-2,17,16,1,1,2,28
1523148378997033,15,4,23,72,5,3,-2,4
1523148378997033,-11,-11,-21,-2,-15,-7,-1,-26
1523148378997908,-19,0,-6,-4,5,-4,-4,31
1523148378997908,8,-6,-2,21,3,0,0,-1
1523148379019578,8,-2,5,4,2,-2,-2,-9
1523148379019578,17,9,8,-28,2,4,2,-3
1523148379019909,7,7,8,36,-1,0,3,-13
1523148379019909,-3,-16,-17,-24,-2,0,5,3
1523148379034341,-2,1,-6,-12,-3,-5,-9,1
1523148379034341,-20,-1,-1,-3,3,0,-5,-12
1523148379035173,-20,-7,-2,-6,-1,-1,0,0
1523148379035173,-6,2,-10,-17,5,4,6,-48
1523148379057282,-10,3,-4,-21,-9,1,2,74
1523148379057282,20,2,0,4,-2,-5,-5,-3
1523148379057446,6,27,-4,-6,-2,-1,0,-2
1523148379057446,6,-10,11,40,8,-3,-4,-8
1523148379079344,2,-1,-13,-7,-9,-5,-6,-26
1523148379079344,44,14,1,-6,-5,-2,-3,-24
1523148379080008,27,-11,8,15,7,2,4,38
1523148379080008,-2,11,15,36,8,2,-4,-4
1523148379094319,5,-13,-25,-44,-14,-6,-2,-11
1523148379094319,9,5,17,38,6,0,-1,5
1523148379095047,-21,-9,-7,-3,4,3,1,-18
1523148379095047,-22,1,3,-7,-2,-2,-2,6
1523148379116944,5,-9,-7,-11,-6,-3,-3,-8
1523148379116944,-16,-15,-8,23,12,3,2,-7
1523148379117608,16,4,4,-3,-8,0,0,-10
1523148379117608,-2,-5,-7,-25,-5,-3,-1,9
1523148379139814,-3,27,12,-19,-3,-1,-5,6
1523148379139814,-65,-35,-6,-7,-2,-3,1,-26
1523148379139974,-30,18,-4,7,2,-2,-7,43
1523148379139974,96,22,15,-13,-7,2,2,7
1523148379154011,6,40,14,-1,2,2,5,-34
1523148379154011,-51,-25,7,17,10,5,3,37
1523148379155012,22,-5,-11,-6,-8,-9,-3,-3
1523148379155012,-25,-22,-18,1,2,-1,-5,-4
1523148379177293,24,-13,-17,-8,-7,-7,-3,4
1523148379177293,26,26,9,-18,1,4,2,14
1523148379177523,-24,-9,-18,0,-9,-3,-3,-69
1523148379177523,-8,24,-6,-8,-4,-6,-12,44
1523148379199461,29,1,-8,7,4,-3,0,-65
1523148379199461,26,27,13,-11,-4,-1,-2,16
1523148379200082,17,11,14,8,6,0,-5,11
1523148379200082,33,-39,-24,-20,-21,-9,-2,-5
1523148379214554,-21,-56,-2,7,9,1,1,9
1523148379214554,-13,-10,-22,-16,-12,-10,7,-49
1523148379215515,-20,9,17,7,6,4,-23,21
1523148379215515,61,49,9,-1,5,8,18,16
1523148379237110,-19,14,10,-3,-1,-2,0,7
1523148379237110,-39,-55,-21,-5,-8,-7,-9,36
1523148379237418,3,-8,-2,6,-5,0,7,-21
1523148379237418,-30,-14,-4,-7,3,-1,-4,-16
1523148379258976,17,1,16,13,3,4,3,12
1523148379258976,16,0,-2,-10,-8,-8,-6,-19
1523148379260480,1,-17,7,8,-1,7,9,13
1523148379260480,-18,1,-33,-20,-3,-2,-7,-1
1523148379274224,-2,18,11,-11,-11,-11,-5,-10
1523148379274224,2,20,-5,-7,5,2,-4,-6
1523148379275002,15,-1,23,71,16,12,13,15
1523148379275002,-33,-14,13,98,4,-4,-5,-25
1523148379297131,-32,-13,-31,-26,-12,1,0,8
1523148379297131,30,14,21,25,0,-5,-4,-1
1523148379297563,-7,9,17,-24,2,-6,0,-8
1523148379297563,-11,15,46,102,53,13,5,1
1523148379319343,-15,-16,-56,-117,-88,-21,-9,-1
1523148379319343,23,4,6,103,13,4,1,8
1523148379320122,-3,6,3,87,31,6,6,-4
1523148379320122,-28,-10,-9,-3,-37,-11,-4,-24
1523148379333880,-41,-10,12,55,31,6,3,24
1523148379333880,26,10,1,-46,-12,0,9,21
1523148379341680,-18,-8,-7,6,-3,-1,-7,-5
1523148379341680,-6,1,2,37,18,2,1,-2
1523148379356719,-4,-6,6,46,12,1,5,19
1523148379356719,-7,8,-9,22,-14,-1,-4,-43
1523148379357723,-8,0,-2,-54,-10,-10,4,9
1523148379357723,21,15,13,-4,2,9,-3,-2
1523148379379429,-10,14,-4,-68,3,10,5,-13
1523148379379429,5,18,6,-17,-12,-3,-5,6
1523148379379781,-25,-53,2,44,21,-4,-3,-2
1523148379379781,-6,-3,-14,-91,-34,-10,-4,-12
1523148379393999,14,8,19,38,-10,0,-2,3
1523148379393999,-2,1,-9,16,7,-1,-4,1
1523148379402141,-5,6,-16,20,-6,-2,-1,-4
1523148379402141,-35,-10,12,28,4,2,4,6
1523148379417065,25,-5,21,15,15,5,-1,4
1523148379417065,-9,-16,-12,2,5,-3,-6,4
1523148379417565,6,8,-11,-31,-21,-4,4,-1
1523148379417565,-13,-6,-2,-22,3,-1,-1,-18
1523148379439263,40,6,6,29,8,-1,-4,22
1523148379439263,-13,-6,-1,-44,-9,0,2,-15
1523148379440125,-32,1,16,9,1,2,0,0
1523148379440125,7,-10,-22,-24,-1,-2,0,4
1523148379453663,5,6,11,42,7,-2,-2,-4
1523148379453663,1,-6,-15,25,-4,-3,-1,2
1523148379461808,0,-1,-12,-122,-25,-6,-5,-8
1523148379461808,20,3,5,11,-1,-1,0,8
1523148379476723,21,-3,0,42,5,0,2,-19
1523148379476723,-8,1,20,28,12,0,-2,10
1523148379477726,-2,-1,-9,9,-1,-3,-5,-6
1523148379477726,14,8,4,-10,-9,-4,-2,5
1523148379499406,-6,16,-5,-15,3,-1,1,0
1523148379499406,2,-5,11,-8,0,4,1,-7
1523148379499785,0,-9,-36,-110,-27,-5,-2,-7
1523148379499785,-5,1,5,41,11,3,2,8
1523148379513938,-42,-30,7,12,3,-1,-3,-7
1523148379513938,24,5,-11,29,13,3,2,3
1523148379521968,5,-4,-18,-46,-26,-8,-4,0
1523148379521968,-12,-3,4,-20,0,-2,0,-4
1523148379536883,-10,3,-2,3,7,4,2,-4
1523148379536883,-20,-7,5,58,6,0,-3,-26
1523148379537385,37,3,3,32,10,2,0,-2
1523148379537385,5,-2,-14,-19,-10,-4,-1,5
1523148379559095,4,-2,6,37,3,-1,-2,-2
1523148379559095,1,0,0,-88,-24,-2,-2,-4
1523148379560096,2,11,-1,94,21,-2,0,-25
1523148379560096,-8,-17,4,-13,0,4,1,39
1523148379573799,-13,1,0,21,0,-1,-2,-4
1523148379573799,-27,-7,-5,13,5,0,0,5
1523148379581825,-12,2,12,-10,-1,-1,1,3
1523148379581825,0,1,-20,-44,-20,-4,-5,-14
1523148379596985,-9,-6,-1,8,9,0,5,-1
1523148379596985,22,-1,-9,25,-5,-4,-4,0
1523148379597365,-3,3,12,-34,-3,3,1,6
1523148379597365,-2,-9,-2,15,1,-6,-4,-12
1523148379619426,-6,2,-10,-12,2,-1,-3,-2
1523148379619426,2,2,6,-39,-12,-4,0,-3
1523148379619926,12,4,1,47,12,4,2,5
1523148379619926,0,32,13,4,-9,0,0,-7
1523148379642487,1,9,-6,-16,-10,-5,-4,-7
1523148379642487,-1,25,15,15,13,-1,0,-2
1523148379642987,38,9,-1,2,-10,-3,-3,27
1523148379642987,-26,-16,4,3,5,5,7,-9
1523148379656824,-21,3,17,-29,-3,-2,2,15
1523148379656824,-80,-26,-31,-16,-12,-4,-2,14
1523148379657529,40,13,-3,13,-2,0,-7,-6
1523148379657529,28,54,0,-13,-7,-4,0,-8
1523148379679747,14,-33,-29,7,1,-4,-3,-7
1523148379679747,39,3,10,7,10,5,12,40
1523148379680088,-60,-19,2,14,0,1,-7,-17
1523148379680088,3,-29,-6,0,2,-4,-7,7
1523148379702787,28,39,-3,-17,-3,3,4,-6
1523148379702787,41,9,-5,-7,2,2,-4,17
1523148379703148,-37,-22,-13,9,-3,-3,1,-18
1523148379703148,2,19,10,-13,-6,-4,8,15
1523148379716804,51,8,16,-11,-6,-1,-7,13
1523148379716804,-47,-11,-15,-20,-5,-5,-15,-23
1523148379717690,-35,7,2,10,1,-1,5,-4
1523148379717690,-8,16,21,2,4,0,-5,-12
1523148379739717,-4,-37,-9,-9,-9,-3,5,15
1523148379739717,9,19,-10,-11,-6,-3,-3,-19
1523148379740064,19,-33,-1,-8,3,-2,3,21
1523148379740064,-67,-10,-19,5,-6,-7,-8,-51
1523148379762726,7,7,3,-24,6,1,-5,44
1523148379762726,-18,-31,0,9,3,2,5,-45
1523148379763122,28,37,13,23,5,-1,-9,21
1523148379763122,29,-15,-10,-14,-10,-2,-1,19
1523148379776659,-17,-2,1,36,6,2,1,-30
1523148379776659,8,-4,3,-3,7,2,4,12
1523148379777662,-20,-5,2,97,2,-2,3,-4
1523148379777662,-4,-11,-9,-90,-10,0,-7,-20
1523148379799300,6,-7,-3,81,16,5,2,-1
1523148379799300,20,20,20,27,-5,0,-1,-8
1523148379800222,-45,-11,-5,5,9,-1,-1,-2
1523148379800222,2,-16,-16,34,-2,-2,-2,4
1523148379822392,-41,-4,-23,-126,-30,-14,-10,-4
1523148379822392,21,2,22,19,13,9,3,15
1523148379823397,32,3,1,-23,7,6,1,-24
1523148379823397,-2,-14,-10,-24,-6,-1,6,19
1523148379837209,32,5,9,59,-5,-6,-9,-10
1523148379837209,14,20,7,49,14,8,7,-48
1523148379837434,0,-38,10,13,11,6,10,25
1523148379837434,-13,-15,-26,25,-25,-16,-23,24
1523148379858991,11,2,1,41,2,-5,-4,-10
1523148379858991,30,8,25,79,18,2,-2,3
1523148379859992,25,-5,-11,83,-5,0,1,-8
1523148379859992,13,-8,1,-5,10,2,5,4
1523148379882456,-32,-14,1,2,-6,3,-1,-8
1523148379882456,1,-3,-23,15,-4,-9,-8,16
1523148379883463,-4,14,7,-33,-6,4,5,6
1523148379883463,-7,-4,-4,34,3,-2,-3,-5
1523148379897004,4,4,8,-31,-6,-1,0,-10
1523148379897004,26,-9,-37,-56,-6,1,4,6
1523148379897505,2,11,22,47,20,0,-3,0
1523148379897505,4,-7,-24,-79,-41,-8,-2,-49
1523148379919819,-17,13,-3,8,11,4,5,10
1523148379919819,3,6,28,79,26,6,1,11
1523148379920067,-11,-9,-12,-28,-31,-14,-9,-6
1523148379920067,28,10,8,89,33,7,6,5
1523148379942598,-33,-8,0,-14,-2,3,3,-14
1523148379942598,-16,-8,-10,-30,-8,-2,-5,10
1523148379942987,39,8,-11,-60,-11,-2,-1,7
1523148379942987,-36,8,12,-6,13,4,3,-8
1523148379957023,19,-4,-7,22,-1,-5,-1,-3
1523148379957023,-15,-7,2,-65,-19,-7,-4,5
1523148379957524,-2,1,-16,-8,2,3,1,-11
1523148379957524,11,-32,4,9,1,0,-2,11
1523148379979438,-3,-4,-10,-9,0,1,0,1
1523148379979438,-62,35,3,-14,-6,0,-1,-3
1523148379979941,-1,-9,-2,-15,-6,-4,-2,-2
1523148379979941,1,10,15,12,13,4,3,16
1523148380002784,-1,-6,-5,50,-9,-6,-6,-2
1523148380002784,-24,-19,-2,-5,-4,1,4,-3
1523148380003505,13,15,-13,-17,-8,-5,-5,-8
1523148380003505,-40,2,12,49,11,0,-1,-1
1523148380016848,6,2,9,-55,-1,-2,0,-7
1523148380016848,-1,-23,-20,-25,-17,-6,-4,3
1523148380017352,15,0,9,12,-3,-4,-2,-19
1523148380017352,24,6,4,-18,-1,2,-2,22
1523148380039701,20,6,1,5,5,1,0,7
1523148380039701,4,-8,1,-20,-9,-4,-1,-7
1523148380039911,-22,0,-12,10,-4,-6,-6,-1
1523148380039911,9,6,3,-16,-3,0,-1,-6
1523148380062766,19,-6,1,14,-9,1,3,0
1523148380062766,4,-2,-17,0,10,1,0,2
1523148380063473,4,-5,2,-10,-7,1,2,8
1523148380063473,-41,-2,5,56,6,-5,-6,-9
1523148380077007,-18,3,3,-32,11,1,0,1
1523148380077007,19,-4,13,10,-11,-4,-1,-3
1523148380077511,2,-34,-3,1,0,-1,0,4
1523148380077511,-52,0,1,13,0,0,0,-8
1523148380099641,-1,-34,-7,0,0,0,-1,-3
1523148380099641,-2,23,1,-2,-3,-5,-3,0
1523148380100068,-16,-14,4,-27,4,4,0,1
1523148380100068,36,2,8,-10,0,1,1,1
1523148380122628,-51,0,0,29,1,0,0,-5
1523148380122628,22,4,0,-28,-11,-6,-6,1
1523148380123131,-11,16,4,6,1,2,-2,-1
1523148380123131,13,6,-10,-13,-4,-3,-2,-3
1523148380137269,-24,6,-4,-29,-7,-3,-3,-8
1523148380137269,-6,-31,-4,18,-1,-3,-5,-10
1523148380137513,14,69,7,-24,-4,-1,0,14
1523148380137513,36,2,-9,-5,-2,-2,-1,-7
1523148380159699,-10,-10,11,-7,-12,-8,-9,-32
1523148380159699,-7,-9,11,0,5,1,8,13
1523148380159999,26,-18,-51,6,-7,-1,-9,35
1523148380159999,-12,-5,-15,-21,-14,-10,-8,-15
1523148380182515,-2,-23,22,22,14,7,18,-38
1523148380182515,32,-32,-20,-13,-9,-5,-21,66
1523148380183521,-16,29,24,-11,0,-5,-4,-29
1523148380183521,46,5,4,5,-9,3,6,17
1523148380197556,-58,10,-12,-2,3,0,-8,-13
1523148380197556,-11,-8,6,5,12,-2,14,-6
1523148380197556,-19,-39,-18,-6,5,13,2,-7
1523148380197556,80,11,2,2,-4,1,-3,34
1523148380219340,4,5,5,-2,-32,-15,0,12
1523148380219340,-24,27,-4,1,23,-26,-1,-18
1523148380220124,-24,-11,13,3,4,31,9,4
1523148380220124,51,-9,0,4,8,5,3,-38
1523148380241448,19,27,9,-1,3,8,-2,35
1523148380241448,-36,-2,-1,-4,-21,-10,-7,-11
1523148380249467,-35,-24,-13,-2,-9,-25,-6,-9
1523148380249467,-35,16,9,-8,0,0,-6,-8
1523148380257164,17,5,-19,-5,3,-2,1,15
1523148380257164,17,0,20,13,0,7,0,-13
1523148380257489,-7,4,-21,-1,3,0,10,-1
1523148380257489,-49,-2,-10,19,0,-2,-2,0
1523148380280075,26,-7,-29,-37,-8,-11,-9,2
1523148380280075,-35,-9,9,24,1,10,2,-18
1523148380281034,-5,10,14,21,-1,-5,-4,-6
1523148380281034,-16,-6,5,28,8,2,6,11
1523148380310233,-30,-12,-4,50,15,4,-7,-6
1523148380310233,25,6,-9,-103,-20,4,0,-2
1523148380310912,2,-4,0,25,-3,-10,-5,1
1523148380310912,-16,-15,0,5,-1,-9,-8,-7
1523148380316310,-2,3,19,22,13,12,12,4
1523148380316310,14,4,-15,48,-3,3,2,-5
1523148380324449,15,7,18,71,7,-5,-9,12
1523148380324449,-21,5,-9,-68,-8,-3,2,-4
1523148380339443,8,-17,-7,-57,0,3,2,5
1523148380339443,5,12,7,28,-2,-3,-5,-13
1523148380339947,6,8,2,-18,0,0,0,7
1523148380339947,-16,-9,1,27,5,-2,1,2
1523148380362407,4,3,7,-9,-7,-5,-1,3
1523148380362407,-2,-3,9,16,3,10,4,1
1523148380363462,-41,-13,-8,-77,-10,-6,2,-10
1523148380363462,9,21,-4,27,4,3,-3,-3
1523148380375961,13,5,-10,16,9,-4,-4,5
1523148380375961,-16,2,1,-6,-21,-6,-3,-7
1523148380384526,9,-4,-26,7,-7,-1,-3,-6
1523148380384526,-7,-14,-9,-2,3,-3,1,2
1523148380399467,20,20,-18,32,-2,-2,-3,-4
1523148380399467,13,-32,2,-54,6,8,2,7
1523148380400069,20,14,7,25,-7,-12,-9,-5
1523148380400069,-4,-4,1,8,3,2,2,-1
1523148380422626,4,7,2,12,-1,4,2,1
1523148380422626,3,2,-5,3,11,2,-2,-17
1523148380423128,-45,-5,21,16,-2,1,3,24
1523148380423128,-5,-12,-18,-50,-20,-9,-2,-6
1523148380436567,-6,-3,10,47,3,4,-7,-7
1523148380436567,-11,-2,6,2,-2,-3,-2,-1
1523148380444459,85,12,-9,81,13,2,1,-8
1523148380444459,-23,-1,-13,65,-8,1,0,-6
1523148380459465,-9,-2,-9,29,-15,-10,-3,5
1523148380459465,-4,-3,-7,35,-1,-3,-2,-5
1523148380460226,-15,15,17,-19,2,3,0,-4
1523148380460226,27,-11,30,65,28,7,4,8
1523148380482673,23,-1,-10,-94,-15,-5,-2,-5
1523148380482673,25,11,4,74,3,1,0,6
1523148380483879,-4,8,-7,72,9,1,4,0
1523148380483879,8,2,13,26,8,4,-2,-1
1523148380496322,-9,-6,0,61,1,0,-1,-4
1523148380496322,1,6,8,-24,8,3,-1,16
1523148380504532,23,-5,-2,-4,-5,0,1,0
1523148380504532,-21,11,-4,18,-16,-11,-7,-8
1523148380519377,22,-26,10,44,15,6,7,8
1523148380519377,-39,-1,-7,91,6,1,-2,-3
1523148380520654,-8,-23,-4,1,-7,-3,-4,-13
1523148380520654,1,3,-2,-15,2,1,-1,3
1523148380542439,40,9,-3,-3,-18,-8,-2,4
1523148380542439,-2,3,1,4,5,-3,1,1
1523148380542940,-12,-11,-6,-66,-7,-4,-2,-2
1523148380542940,-39,-27,3,-30,0,1,-2,-2
1523148380556481,75,58,10,-26,9,5,6,16
1523148380556481,12,-34,-11,-41,-7,-4,-4,-7
1523148380564125,1,6,5,11,3,0,-1,-1
1523148380564125,16,-5,5,-10,1,2,3,-1
1523148380579473,-3,-11,-22,-26,-27,-7,-5,-7
1523148380579473,-20,24,-9,39,-4,-4,0,-4
1523148380586902,23,1,6,-4,-1,2,-3,3
1523148380586902,-1,9,1,7,0,2,-1,2
1523148380602902,-35,-6,9,6,10,0,-2,-9
1523148380602902,-1,6,-9,-35,-8,-3,0,-2
1523148380603462,1,-1,-2,-14,-9,-4,-3,-2
1523148380603462,12,5,-7,-1,1,-2,-2,0
1523148380623879,-27,-10,2,28,6,-3,-2,0
1523148380623879,22,1,4,-24,-5,-3,-2,2
1523148380632236,-20,-11,2,5,2,2,3,-1
1523148380632236,-2,-1,-2,-34,-1,-1,-3,-6
1523148380639423,-19,-1,-1,-13,-3,0,0,3
1523148380639423,34,27,-1,16,-2,-3,-2,1
1523148380639926,-12,-50,1,-24,3,0,2,-6
1523148380639926,-11,2,6,-4,-12,-5,-5,-22
1523148380663007,-18,-7,2,1,1,-2,1,18
1523148380663007,26,23,22,8,18,9,5,12
1523148380663007,-27,9,-7,-13,-26,-12,-9,-19
1523148380663007,45,-29,-1,-7,0,-1,1,6
1523148380685046,50,18,-6,0,-5,-3,-7,13
1523148380685046,-22,-24,-24,-7,-3,-3,1,20
1523148380686065,-46,-18,-4,-32,-15,-7,-11,-46
1523148380686065,65,14,8,17,-6,-7,-2,9
1523148380699913,58,34,17,0,4,3,3,42
1523148380699913,-100,-38,-23,-19,-13,-9,-13,-31
1523148380700085,21,28,-1,0,8,2,3,5
1523148380700085,-25,7,9,4,2,3,4,16
1523148380722597,-37,0,21,13,5,0,3,5
1523148380722597,59,19,7,0,2,4,9,-17
1523148380723100,-7,-8,-29,1,3,-2,-7,35
1523148380723100,24,35,5,-5,-1,1,-5,-30
1523148380745532,-45,-10,2,11,9,7,3,-14
1523148380745532,91,-50,15,6,5,5,1,26
1523148380745659,29,79,10,-1,-1,-4,2,-3
1523148380745659,-30,-29,-36,-9,-10,-9,-2,-9
1523148380759716,-80,-25,-1,1,1,6,-6,-18
1523148380759716,0,13,2,-9,-6,-14,3,18
1523148380760198,38,17,18,16,14,25,17,30
1523148380760198,7,-33,-3,-2,-1,-1,-5,12
1523148380782507,7,-2,-12,16,2,-12,-5,-23
1523148380782507,-22,-4,-6,-43,-17,-1,-8,-13
1523148380783187,-24,-14,-1,8,-2,-13,-5,-2
1523148380783187,-41,5,-2,14,-4,-3,3,-2
