timestamp,emg1,emg2,emg3,emg4,emg5,emg6,emg7,emg8
1523149937971482,4,-2,-2,10,1,-3,-12,57
1523149937971482,-44,-3,6,13,2,-4,-7,-74
1523149937972487,85,14,-51,-7,1,3,14,73
1523149937972487,102,7,0,-10,-4,7,10,116
1523149937994542,-96,-31,-12,5,-6,-6,-13,-90
1523149937994542,-20,-2,-2,2,0,-9,-29,-4
1523149937995546,6,2,-9,-6,-1,-1,9,10
1523149937995546,36,16,-1,-10,-1,3,1,51
1523149938008580,54,19,15,18,4,0,14,46
1523149938008580,3,-5,-12,-3,-2,-1,-2,7
1523149938016606,-34,-1,21,-4,-6,-1,-7,-52
1523149938016606,0,0,-3,-1,1,-1,7,-11
1523149938031643,3,-1,4,5,1,-1,1,-5
1523149938031643,-6,-7,-15,-6,-5,1,-5,-17
1523149938032650,-8,-1,14,-1,-4,-6,-19,-9
1523149938032650,-19,-7,-9,-1,6,2,10,-12
1523149938054703,-5,0,-16,-4,-1,2,-10,-23
1523149938054703,15,-1,31,13,-2,2,14,26
1523149938055706,-13,0,7,-15,-4,-4,-7,-9
1523149938055706,-17,-5,-2,-10,1,-3,1,-23
1523149938068243,8,7,-2,44,6,4,3,-5
1523149938068243,12,-3,-14,-66,-2,3,2,19
1523149938076761,-16,-7,15,5,-14,-10,-1,-20
1523149938076761,-11,3,22,62,2,-1,-4,-14
1523149938091301,13,-7,-50,-84,-7,3,5,17
1523149938091301,5,-3,7,21,6,-1,-6,-1
1523149938092304,-10,11,31,13,16,2,-35,-13
1523149938092304,-8,-15,-5,24,-4,0,52,1
1523149938114864,-4,-15,-20,-51,-22,-9,-3,10
1523149938114864,11,13,-27,5,-2,3,-5,9
1523149938115869,-14,-37,1,-49,-7,-4,1,-16
1523149938115869,3,12,14,24,6,-4,-27,-3
1523149938128402,6,5,33,39,19,11,5,5
1523149938128402,-2,3,4,-16,4,2,3,3
1523149938136424,3,15,9,6,7,5,14,12
1523149938136424,-3,-6,11,53,-1,3,-8,3
1523149938159983,-7,-7,-30,-60,-24,-13,-10,-17
1523149938159983,2,-2,1,23,-3,-3,11,10
1523149938160485,-1,3,15,6,11,5,23,-2
1523149938160485,-5,-7,-14,-32,-4,-1,-13,-11
1523149938176043,5,5,23,27,9,2,1,-7
1523149938176043,3,1,23,37,12,3,-11,8
1523149938177029,-9,-13,-63,-34,-27,-10,-10,2
1523149938177029,-6,1,-2,-50,-5,-6,-1,-8
1523149938197586,5,11,12,46,3,2,7,1
1523149938197586,3,-10,-1,8,-5,-11,-8,4
1523149938198093,-3,2,14,20,8,4,4,-1
1523149938198093,-1,4,-14,-21,5,5,-18,-17
1523149938211795,3,-1,8,8,10,3,5,2
1523149938211795,-8,-1,10,-42,-9,-6,0,1
1523149938212306,-4,-6,-19,17,-10,-3,-3,3
1523149938212306,1,3,-4,-36,-3,-3,-10,-2
1523149938234947,2,-1,22,96,13,2,4,13
1523149938234947,1,-6,-48,-87,-21,-3,-5,3
1523149938235363,-1,-2,19,78,9,1,-4,-1
1523149938235363,-4,7,-10,-11,-15,-8,-6,6
1523149938257005,-2,-1,25,67,1,-4,-8,-4
1523149938257005,1,-1,-2,22,2,2,10,-2
1523149938257925,3,8,-13,-28,-3,-1,-4,-1
1523149938257925,3,7,12,0,7,1,-4,-7
1523149938271709,-2,16,20,-38,8,4,1,3
1523149938271709,-7,-27,-67,-50,-15,-2,0,-3
1523149938272464,-5,1,22,47,-7,-9,-8,-2
1523149938272464,5,16,15,37,6,7,11,3
1523149938294752,-6,-27,-13,-38,-6,-2,2,-2
1523149938294752,-8,25,4,5,9,-1,0,-9
1523149938295522,-1,-17,-1,-76,-3,2,8,4
1523149938295522,-2,2,-7,1,-6,-8,-16,-6
1523149938317323,10,30,18,4,4,-2,16,-1
1523149938317323,-1,-8,-14,-35,-11,0,-11,0
1523149938318085,-3,-1,4,4,0,-1,-4,4
1523149938318085,0,-3,-2,15,7,1,4,-1
1523149938331617,-3,-12,-18,-42,-14,-5,-11,-1
1523149938331617,0,-3,27,57,12,4,3,-6
1523149938332119,0,11,-3,0,-3,1,-3,1
1523149938332119,-3,-10,12,-65,10,3,-2,-3
1523149938354680,-2,-13,-18,94,-17,-6,-1,-6
1523149938354680,1,3,9,20,2,-1,2,8
1523149938355683,12,7,10,17,7,5,11,-1
1523149938355683,-26,-26,-8,10,2,4,20,-2
1523149938377239,8,0,-7,-46,3,-3,-11,-5
1523149938377239,-1,1,41,54,1,-3,-2,-1
1523149938378243,-3,-3,-20,-31,-11,-5,-5,-9
1523149938378243,2,-9,-3,-15,-2,-3,-13,-2
1523149938391778,-1,6,-2,-25,-3,0,-1,-8
1523149938391778,1,-3,-19,19,5,1,10,6
1523149938392280,-1,0,11,4,7,1,0,-2
1523149938392280,3,-2,-19,8,-9,-4,0,2
1523149938414842,-5,-1,2,0,-2,2,-3,5
1523149938414842,2,-4,7,-3,-2,-2,-4,-7
1523149938415842,-5,-4,-9,5,0,1,12,1
1523149938415842,4,-3,2,5,-5,-2,11,-8
1523149938437600,0,2,0,2,3,-1,3,9
1523149938437600,-1,-2,-5,-8,1,-1,-8,0
1523149938437903,-3,-2,-9,-5,1,2,4,2
1523149938437903,2,0,-3,-9,-5,-4,-11,-2
1523149938451686,0,-1,0,-14,0,-3,-4,-9
1523149938451686,-3,-5,4,1,-2,1,5,14
1523149938452440,1,14,-8,-3,-3,-5,-8,-18
1523149938452440,-5,-7,12,-2,-3,-3,-5,7
1523149938475081,3,2,-1,-8,-2,-1,12,2
1523149938475081,32,11,2,1,-1,0,-10,31
1523149938475504,12,-8,3,6,0,2,39,56
1523149938475504,-85,-14,-15,-12,-6,-5,-18,-59
1523149938497058,8,4,0,-5,0,-1,-11,-21
1523149938497058,-7,-2,8,3,2,-4,2,5
1523149938498060,39,3,1,0,4,9,1,46
1523149938498060,36,8,-14,-8,-5,-2,6,32
1523149938512601,-49,-2,-4,-9,-6,-10,-11,-7
1523149938512601,-34,-8,-9,2,1,-4,-5,-34
1523149938520121,-4,2,5,-2,-17,-6,-15,-56
1523149938520121,2,-4,-12,12,24,16,2,-9
1523149938534657,41,14,4,0,5,3,6,52
1523149938534657,12,4,-3,-4,-2,4,26,0
1523149938536162,-15,-9,1,-2,-7,-12,-19,19
1523149938536162,27,2,-1,-7,-11,-9,7,2
1523149938557219,-13,-7,-2,-2,3,8,-8,-2
1523149938557219,-11,6,-2,0,0,-1,18,-19
1523149938558723,-5,8,2,0,7,9,-9,-17
1523149938558723,13,1,8,-1,-3,1,-1,6
1523149938570914,-2,6,-10,4,-5,-7,-13,-5
1523149938570914,-10,-27,-7,-14,-4,-3,-7,-7
1523149938579784,-6,28,-5,6,0,-3,-1,-12
1523149938579784,-5,-15,8,-6,0,1,2,12
1523149938594819,5,-17,12,-13,9,-3,-2,-8
1523149938594819,8,9,1,68,-7,-1,-13,6
1523149938596322,-9,-15,-23,-25,-1,-5,7,-12
1523149938596322,-1,0,0,9,0,0,-15,-8
1523149938617693,4,9,18,12,1,1,20,4
1523149938617693,3,-1,-20,-17,3,1,-11,-8
1523149938618692,-13,-14,2,-7,-11,-10,-2,-3
1523149938618692,3,9,-8,-31,-10,-6,-8,-2
1523149938630725,0,-5,0,-40,-4,-2,-12,10
1523149938630725,1,-3,-12,-11,8,4,24,0
1523149938639748,-5,6,14,30,9,6,0,-2
1523149938639748,1,0,-13,-29,-8,-5,0,8
1523149938655038,-6,-11,3,14,-5,-7,-15,-16
1523149938655038,-2,-2,0,-3,1,1,5,16
1523149938656294,-4,4,6,10,-2,-5,-17,-2
1523149938656294,-1,-17,24,23,5,4,32,5
1523149938677348,-1,-5,-27,8,-1,4,6,-20
1523149938677348,-2,5,-36,-42,-12,-9,-20,-5
1523149938678853,2,34,19,7,9,1,-6,-5
1523149938678853,-4,-24,12,23,5,-2,-1,3
1523149938690884,-11,-19,-28,-12,-23,-5,-10,-9
1523149938690884,3,-12,21,5,1,1,4,3
1523149938699909,5,4,-12,-2,-1,-2,-11,-1
1523149938699909,1,22,11,25,1,-1,-8,-3
1523149938714947,-7,-19,0,-22,3,-1,3,-9
1523149938714947,2,8,17,14,1,-2,-12,-2
1523149938716451,-5,-14,-8,-13,-5,-2,-1,-7
1523149938716451,-1,9,18,41,11,7,-14,1
1523149938737509,6,2,-22,-2,-3,1,21,0
1523149938737509,-4,6,7,21,-3,-1,1,1
1523149938739013,-7,-34,8,1,-2,-2,5,1
1523149938739013,-1,-3,-7,7,2,0,-7,-2
1523149938751288,3,15,25,32,13,5,-3,8
1523149938751288,-4,-2,-32,-42,-29,-11,-21,-7
1523149938760069,0,-4,-11,-6,-2,-2,8,-6
1523149938760069,0,6,-9,13,-2,3,16,21
1523149938774855,-3,12,12,-28,13,4,6,-27
1523149938774855,-4,-20,-12,66,-10,-9,1,0
1523149938776112,-1,-2,23,46,5,4,-1,6
1523149938776112,2,-8,-29,-68,-14,-8,-1,-8
1523149938797165,-1,6,-16,-53,-18,-9,-7,6
1523149938797165,6,30,39,14,22,11,10,2
1523149938798670,-10,-55,-34,1,-7,2,7,-10
1523149938798670,-2,-1,10,26,0,-7,-12,-5
1523149938811322,2,2,1,27,5,9,3,6
1523149938811322,1,-4,2,-23,0,-2,-3,-6
1523149938819730,-1,18,11,-30,2,-1,13,-3
1523149938819730,8,18,-3,-56,2,0,-9,-3
1523149938834767,-5,-17,-2,88,-12,-2,-3,19
1523149938834767,-1,6,1,-17,6,10,39,4
1523149938836326,0,10,18,14,14,4,-6,-11
1523149938836326,-5,-12,-16,10,-5,-5,-8,-12
1523149938857381,5,5,-3,-44,-6,-5,10,8
1523149938857381,-1,-3,9,-5,3,-2,-8,-5
1523149938858883,-1,-1,-7,14,-2,0,-4,2
1523149938858883,-5,-5,-9,1,-8,-7,-12,-6
1523149938871065,-1,4,7,5,4,0,-3,-1
1523149938871065,-2,-6,6,7,2,2,-7,-4
1523149938879940,0,-2,-9,-37,-3,0,-5,0
1523149938879940,-1,1,-30,2,-2,4,-5,2
1523149938894980,-2,2,22,24,7,0,4,3
1523149938894980,-3,-12,-9,-35,-3,-2,-8,-5
1523149938896484,-1,3,-12,8,-13,-9,-6,-2
1523149938896484,2,2,-1,6,1,5,3,-1
1523149938917542,0,-4,-7,6,0,-5,-8,5
1523149938917542,-1,-3,0,-5,2,3,14,-1
1523149938919046,3,3,3,-4,3,1,-4,-1
1523149938919046,1,1,5,1,0,0,11,15
1523149938931075,-3,-10,-4,-13,-3,-3,-6,-6
1523149938931075,-4,-5,5,13,-2,-3,-12,3
1523149938940102,-2,-4,-6,-5,-2,-2,-16,1
1523149938940102,0,0,2,-3,-4,1,14,-8
1523149938954637,3,1,6,4,2,-2,-2,2
1523149938954637,2,3,-2,-3,2,-1,-6,10
1523149938956142,-8,-3,-6,-1,-2,0,-4,-28
1523149938956142,2,4,10,-8,-4,-4,-4,6
1523149938977197,10,2,18,-2,-1,2,9,-5
1523149938977197,-10,1,5,1,-2,-4,-6,10
1523149938978702,9,11,16,-6,-2,-1,-13,16
1523149938978702,11,-1,-47,2,-1,-1,11,21
1523149938990734,-11,-1,12,-2,-2,1,-2,-18
1523149938990734,-11,-4,-7,0,-2,0,-6,-56
1523149938999758,1,2,-3,1,2,1,5,16
1523149938999758,25,12,21,-2,-2,-3,-8,56
1523149939013834,-11,-22,-20,-3,-2,-2,0,63
1523149939013834,-19,-10,-10,-5,-2,0,-8,-15
1523149939022321,-1,-4,4,1,0,-1,-12,0
1523149939022321,-4,-3,5,1,-3,2,20,1
1523149939037409,24,13,-12,-4,1,1,0,22
1523149939037409,0,-12,-1,2,-2,-3,12,-5
1523149939038864,0,1,4,-4,-3,0,4,3
1523149939038864,-7,-9,-1,-3,-2,-3,-13,-8
1523149939050895,-6,6,1,3,-1,-5,-6,-39
1523149939050895,5,2,-1,-4,-5,-6,3,11
1523149939059918,3,1,-8,0,5,8,11,4
1523149939059918,-9,-5,-10,-6,-3,-5,-20,-46
1523149939074959,-9,0,-2,3,1,4,11,-29
1523149939074959,7,-4,-4,16,3,3,-2,26
1523149939076468,-1,-4,-4,-33,-4,-4,-13,1
1523149939076468,-10,12,20,-9,1,-1,19,-17
1523149939097019,-2,-4,-4,47,-2,-6,-17,-11
1523149939097019,8,6,12,-24,6,5,1,25
1523149939099022,-1,1,17,30,4,-5,3,11
1523149939099022,-16,-9,-50,-39,-31,-17,-16,-24
1523149939111053,5,-1,-2,-15,8,-2,-21,3
1523149939111053,20,13,18,94,10,9,41,19
1523149939120078,-35,-25,-23,-97,-13,-6,-18,-10
1523149939120078,3,15,47,64,22,11,23,4
1523149939134115,25,-12,-97,-75,-42,-15,-9,19
1523149939134115,-49,-1,13,-11,1,0,-24,-44
1523149939141151,26,20,21,42,8,0,5,-5
1523149939141151,-2,-3,8,92,5,-4,0,-3
1523149939157255,-12,-24,8,-67,7,5,8,-2
1523149939157255,17,8,21,99,13,6,-17,4
1523149939158682,-10,-14,-66,-99,-35,-10,20,-2
1523149939158682,1,5,45,63,14,3,-20,10
1523149939179738,2,12,11,74,8,5,18,-10
1523149939179738,3,-4,20,-28,4,-5,-20,8
1523149939181243,-2,1,-15,-11,-13,-3,5,-24
1523149939181243,8,-7,-26,-37,-4,7,5,4
1523149939194356,-17,-2,-9,-67,-4,0,-30,-8
1523149939194356,0,-14,-44,-84,-23,-10,-5,2
1523149939200797,3,11,24,63,11,1,2,4
1523149939200797,3,1,-12,4,-4,-3,-7,4
1523149939217425,-13,4,34,-11,12,4,11,-11
1523149939217425,9,0,1,34,5,2,-8,-3
1523149939218842,4,-2,-12,49,-4,0,26,16
1523149939218842,-7,-8,21,10,2,-4,-4,2
1523149939239961,-2,16,24,10,3,-2,-9,13
1523149939239961,-2,-27,-18,4,-5,-8,-9,-18
1523149939241468,-3,14,15,62,11,2,37,-2
1523149939241468,-8,-20,-13,-69,-3,-4,-12,-12
1523149939254004,0,-8,-2,-14,-12,-8,3,4
1523149939254004,4,12,-11,-24,-2,0,10,10
1523149939261018,-2,1,23,55,9,3,-15,-10
1523149939261018,1,3,14,-17,1,0,-1,-2
1523149939277741,4,7,-8,9,-5,2,0,-21
1523149939277741,-1,2,8,-24,-4,-2,-1,3
1523149939279065,3,3,5,12,0,-5,-16,-2
1523149939279065,1,-4,12,11,7,10,27,7
1523149939300123,-3,1,2,2,3,5,-5,-1
1523149939300123,-4,4,-26,0,-12,-4,3,-8
1523149939301625,2,-4,34,-13,4,-3,-9,6
1523149939301625,0,4,0,4,-2,-2,-7,2
1523149939314265,-2,-5,34,112,11,4,3,2
1523149939314265,-5,-11,-32,-25,-17,-7,7,-11
1523149939320832,0,-1,-11,7,-1,-2,-11,1
1523149939320832,-9,1,-6,-5,-6,-5,-6,-5
1523149939337385,5,10,30,65,11,-3,-3,-4
1523149939337385,11,8,0,-31,1,0,1,17
1523149939338831,-11,-16,0,12,-1,0,-12,4
1523149939338831,0,-4,25,-64,-2,-2,-18,-4
1523149939360121,17,-8,-44,19,-5,-5,-8,-8
1523149939360121,-37,4,-2,-33,-2,0,8,4
1523149939361394,3,-6,4,19,4,0,-5,2
1523149939361394,-2,5,-29,-26,-12,-5,-6,-2
1523149939373925,7,-2,-6,-57,-6,-3,-1,2
1523149939373925,7,-20,3,24,-1,3,-7,-9
1523149939382448,-1,19,-2,-4,12,6,2,-4
1523149939382448,-7,-26,21,-41,-10,-2,-2,-4
1523149939397485,-11,-10,-48,-14,-9,-4,11,3
1523149939397485,5,4,13,0,5,-3,-6,-5
1523149939398990,-2,-4,-4,-27,1,3,3,3
1523149939398990,6,5,-4,24,0,-1,17,-4
1523149939419785,-8,3,17,-16,-1,-4,0,-5
1523149939419785,2,4,24,17,5,5,20,0
1523149939421551,4,-13,-33,-3,-6,-1,5,5
1523149939421551,-1,-4,-24,9,-1,0,-6,-7
1523149939433582,-6,7,-9,3,7,2,-5,-13
1523149939433582,3,8,7,29,-6,-6,-8,-5
1523149939442609,-1,3,-9,-22,-8,-4,-9,-3
1523149939442609,2,8,-15,3,4,3,6,14
1523149939457322,-11,-24,9,-10,1,-1,7,-4
1523149939457322,-1,-4,-10,-1,-3,-4,6,4
1523149939459151,-4,1,2,-14,-3,0,2,0
1523149939459151,4,12,-7,13,4,1,-2,-6
1523149939479705,1,-6,22,8,0,3,-1,32
1523149939479705,18,13,4,-4,0,-3,4,-6
1523149939481209,-26,-18,-1,-6,-4,-2,-1,0
1523149939481209,-31,5,-9,7,0,-3,2,-52
1523149939493239,18,15,5,4,-1,-3,-16,26
1523149939493239,-30,-9,6,-10,-1,0,-10,-55
1523149939502264,10,0,-13,-12,2,-2,-2,23
1523149939502264,30,6,2,8,-2,0,-1,41
1523149939517306,0,-7,11,-9,-8,-5,-3,-27
1523149939517306,-32,-4,-18,2,2,-1,-17,-11
1523149939518808,19,6,24,4,6,8,13,6
1523149939518808,-11,-10,-4,3,-2,-1,-13,-9
1523149939539864,17,-2,-14,2,-2,3,11,26
1523149939539864,19,14,0,-3,-2,0,8,26
1523149939541371,-18,-10,0,-7,-6,-7,-3,-20
1523149939541371,8,-4,-4,0,2,0,4,23
1523149939553453,-12,7,0,-2,1,4,8,-6
1523149939553453,2,-6,-8,-3,0,-1,-7,0
1523149939562425,-4,3,-8,-4,-3,-3,-18,-15
1523149939562425,7,-11,-7,-1,-1,0,2,6
1523149939577518,-10,-1,14,0,-5,-4,-6,-11
1523149939577518,0,7,-7,3,1,2,-11,7
1523149939579470,11,-1,-1,-5,1,-1,8,9
1523149939579470,-8,-8,13,-6,6,-1,-13,0
1523149939600254,-16,1,-9,43,2,3,8,-8
1523149939600254,11,-12,-11,-16,-9,-7,-10,9
1523149939601582,2,9,10,0,-2,-2,2,1
1523149939601582,-4,6,5,3,-6,-4,-2,-12
1523149939613617,-4,1,8,14,7,4,1,1
1523149939613617,6,1,-16,-26,-4,-6,9,11
1523149939622142,-3,-3,3,2,-3,-5,-9,-9
1523149939622142,-3,-4,5,0,14,8,8,4
1523149939637182,3,-2,-38,-30,-16,-5,7,10
1523149939637182,1,-4,9,22,2,-6,-4,-4
1523149939639319,-3,-7,-2,7,-4,-2,0,-3
1523149939639319,-1,1,-3,-8,-3,-8,-19,-9
1523149939660242,-4,-7,2,3,8,5,-1,3
1523149939660242,1,-1,11,0,4,4,-3,3
1523149939661248,6,3,6,-9,8,0,6,1
1523149939661248,-2,-1,-7,67,-8,-3,-1,-5
1523149939673314,-11,-6,-8,-37,-15,-15,-9,-9
1523149939673314,3,8,4,19,4,1,1,1
1523149939682301,0,-4,7,9,9,10,27,7
1523149939682301,-1,-1,-3,-16,3,3,-1,4
1523149939697341,-4,2,15,10,6,-1,-6,-4
1523149939697341,1,-5,-26,-33,-15,-2,7,6
1523149939698847,-3,0,8,66,-2,-6,-8,-1
1523149939698847,0,1,9,-43,-1,-2,0,-2
1523149939720124,0,-6,-21,49,-2,3,7,3
1523149939720124,1,0,21,-5,8,2,-6,5
1523149939721406,0,-5,-32,-29,-4,0,-11,-3
1523149939721406,-3,-2,-9,-12,-10,-4,8,0
1523149939733630,4,5,27,28,8,-2,-12,-5
1523149939733630,2,1,5,-18,0,-1,-8,6
1523149939742465,-2,-5,-15,-21,-11,-4,-11,-3
1523149939742465,9,-2,-13,-34,-8,0,2,5
1523149939756498,-13,4,15,6,6,0,8,-16
1523149939756498,2,-3,-12,-36,-7,-3,8,20
1523149939763516,-3,4,-17,15,-8,-1,-5,-43
1523149939763516,0,3,-4,-26,3,5,11,-1
1523149939779565,5,14,-6,-75,-8,0,-2,-2
1523149939779565,-2,-32,25,10,11,4,5,2
1523149939781566,-6,-3,-33,23,-17,-7,-13,5
1523149939781566,-8,-4,5,50,-8,-8,33,-10
1523149939793764,2,-1,-14,-28,-6,-4,-2,0
1523149939793764,6,32,37,-27,21,5,-5,1
1523149939802623,3,21,35,74,16,12,-5,4
1523149939802623,-17,-56,-98,-72,-44,-18,-16,-4
1523149939817661,-1,-3,2,-40,3,3,8,24
1523149939817661,7,4,1,112,0,3,7,-14
1523149939819167,-5,3,31,-25,9,-2,-15,0
1523149939819167,3,25,29,25,13,2,-16,7
1523149939839721,-4,-9,-10,32,-5,-7,-12,-17
1523149939839721,-7,-9,-14,-35,-2,-3,-3,-6
1523149939841223,6,6,-4,-30,-1,-2,8,9
1523149939841223,1,0,15,35,2,-1,-15,-2
1523149939854039,-5,-5,4,-26,2,1,-14,-5
1523149939854039,-7,1,-3,19,-1,4,-2,-11
1523149939862280,2,-5,-7,44,-6,-3,5,0
1523149939862280,-1,-4,-12,-53,-11,-6,-8,0
1523149939877098,7,14,4,21,7,0,15,-3
1523149939877098,-7,-11,-16,18,-6,1,6,8
1523149939883573,2,-7,9,-1,7,-1,-5,6
1523149939883573,3,14,18,14,12,7,17,3
1523149939899880,-3,-13,-12,13,-5,-4,0,-6
1523149939899880,1,-3,-5,-12,-7,-9,-13,-5
1523149939901386,-3,-7,5,-9,2,-2,4,6
1523149939901386,-2,1,-16,-36,0,-4,-16,-4
1523149939913416,-1,-2,-1,-44,-4,-1,5,-9
1523149939913416,0,-3,-3,29,-3,0,5,12
1523149939922441,0,0,1,-21,-3,0,-6,-6
1523149939922441,-3,7,23,39,5,3,25,-2
1523149939936478,9,11,-3,19,2,0,-1,4
1523149939936478,-3,-9,-5,-9,-2,-2,-6,-3
1523149939943764,-3,-5,-7,-24,-3,4,6,-8
1523149939943764,1,-1,8,16,2,-2,-8,5
1523149939960040,-2,1,6,-1,-3,-3,-3,1
1523149939960040,1,6,-1,4,-7,-6,-14,-9
1523149939961543,-3,-11,-15,-30,-1,3,43,10
1523149939961543,-9,1,8,8,4,3,-7,-4
1523149939973577,1,-3,-24,13,-1,-3,-14,4
1523149939973577,1,3,35,-15,-2,-1,-2,-2
1523149939982602,-1,-1,-5,-9,-3,-3,-21,-23
1523149939982602,5,-6,32,16,5,5,5,3
1523149939997139,-4,-8,-32,0,-4,3,4,18
1523149939997139,-1,2,-19,-11,-4,-2,-8,-34
1523149939998643,4,-3,3,-15,0,-1,4,41
1523149939998643,-8,-4,-4,14,-2,-4,2,-35
1523149940019982,-15,-4,14,6,0,0,-8,-4
1523149940019982,6,-2,-16,-13,-4,-1,7,13
1523149940021703,5,3,9,-8,-6,-5,-3,0
1523149940021703,11,8,-3,1,1,1,3,16
1523149940033740,-7,-16,9,8,4,3,15,7
1523149940033740,-6,13,-19,3,2,4,10,-3
1523149940042258,0,1,11,-5,-4,-7,-25,-17
1523149940042258,3,-3,-7,3,-2,3,3,6
1523149940057027,2,1,4,-2,-3,-4,-20,-8
1523149940057027,5,-11,-1,1,1,3,22,28
1523149940063317,2,-1,-8,-8,-2,-1,-2,-31
1523149940063317,-25,0,-7,-2,-1,-5,-16,-10
1523149940079860,1,-8,16,4,-4,2,4,6
1523149940079860,-2,5,-11,-2,-2,-3,-8,-8
1523149940081362,5,1,-6,-4,-2,-3,4,20
1523149940081362,5,-4,3,2,3,1,3,-3
1523149940102128,9,12,10,6,0,2,10,1
1523149940102128,5,-8,-40,-9,-2,-1,5,23
1523149940103632,-34,-5,2,-6,-1,-3,-2,-47
1523149940103632,21,27,19,41,1,-4,-32,-13
1523149940116909,-21,1,-1,-53,-3,1,27,9
1523149940116909,-1,-25,9,0,6,0,-10,-12
1523149940130945,2,-18,-37,39,2,5,4,28
1523149940130945,-4,-14,-13,-22,-15,-8,0,-8
1523149940139729,12,28,6,14,6,-1,-1,-10
1523149940139729,-1,5,-3,-4,-3,3,3,-4
1523149940141234,-6,-4,9,5,6,1,8,9
1523149940141234,-1,4,11,14,10,4,4,5
1523149940162289,6,2,-24,-36,-27,-10,-18,-2
1523149940162289,-5,6,10,-22,0,-5,1,-16
1523149940163792,-2,21,5,-12,-2,1,23,12
1523149940163792,-3,-34,-1,-4,5,1,5,19
1523149940176326,-6,-35,-26,-16,-6,-7,-19,-18
1523149940176326,-4,5,53,63,18,9,11,15
1523149940183395,9,10,-27,-93,-32,-15,-15,-16
1523149940183395,1,16,-20,-8,-8,-5,0,-3
1523149940200142,10,-7,10,-6,8,2,2,-1
1523149940200142,-3,11,12,52,-2,-6,-12,-12
1523149940201394,3,0,38,53,7,4,-8,6
1523149940201394,-9,-15,-31,-13,-6,-1,8,-5
1523149940222448,2,-8,21,51,11,2,-3,8
1523149940222448,-2,-1,-44,-38,-17,-7,-6,-8
1523149940223953,0,4,7,-23,14,6,-11,3
1523149940223953,-1,-2,-9,-12,-11,1,-5,3
1523149940236035,-1,17,15,40,3,-2,2,-1
1523149940236035,19,-5,27,62,17,3,-13,3
1523149940245009,-35,-8,-10,-31,-13,-3,6,-3
1523149940245009,5,14,-12,-44,-5,-3,-11,4
1523149940260273,-5,-21,10,-3,9,5,25,2
1523149940260273,7,1,27,84,8,5,0,7
1523149940261554,-2,-32,-80,-67,-41,-20,-6,8
1523149940261554,-3,8,23,52,11,3,1,-23
1523149940282465,-4,15,4,23,-4,-6,-20,-19
1523149940282465,-5,7,12,-27,8,0,17,-5
1523149940283611,11,2,-2,2,4,4,2,7
1523149940283611,9,5,14,36,0,-2,-6,5
1523149940295644,-13,-8,-48,-53,4,8,13,0
1523149940295644,-12,-5,28,-36,-12,-5,-8,-3
1523149940305199,1,-4,11,47,2,-3,-5,-7
1523149940305199,5,1,-13,37,-5,-7,-11,-1
1523149940319710,-4,-5,26,-50,1,2,0,4
1523149940319710,1,1,-19,-37,-3,-3,-3,7
1523149940321713,0,4,19,62,9,8,3,-13
1523149940321713,-14,-5,-5,-46,4,6,5,-5
1523149940342773,19,-8,1,36,-7,-6,-18,3
1523149940342773,10,21,-13,-24,-8,-1,5,4
1523149940343772,2,-7,9,17,0,-4,-9,-7
1523149940343772,-3,3,0,-29,10,3,2,14
1523149940356308,-19,27,-45,0,1,4,-2,-4
1523149940356308,28,-26,34,-66,-17,-4,2,0
1523149940364828,1,26,15,26,13,2,-3,-2
1523149940364828,-4,3,-5,39,-6,-5,-1,-1
1523149940379868,7,1,7,-5,2,-4,-3,21
1523149940379868,-13,2,-37,-9,-16,-8,-3,-15
1523149940381371,-8,-15,8,-4,6,4,-1,4
1523149940381371,-5,-16,-1,0,-4,-3,1,-1
1523149940402512,15,13,16,-9,-2,-2,-11,1
1523149940402512,-13,3,-10,20,4,1,-1,-7
1523149940403932,-2,-14,-34,-28,-13,-5,-4,-2
1523149940403932,9,1,-6,-12,1,0,0,3
1523149940415965,-1,-7,17,33,0,0,5,-8
1523149940415965,-8,-8,-10,-9,4,0,-20,-1
1523149940424991,4,-1,-7,4,0,6,33,1
1523149940424991,-3,5,16,5,2,1,-19,-5
1523149940439872,6,12,-5,4,-7,-3,17,-1
1523149940439872,-25,-20,-11,19,-2,-2,-3,1
1523149940441586,7,8,12,-16,4,-4,-13,-4
1523149940441586,-12,-16,0,0,2,2,4,8
1523149940462145,0,-6,4,14,-3,-2,2,-2
1523149940462145,3,13,-15,-14,-2,-1,-3,0
1523149940463649,7,2,13,16,6,3,-7,3
1523149940463649,-16,11,-4,-4,-3,-1,27,19
1523149940476339,59,-18,-13,-2,-4,-7,-19,-14
1523149940476339,-33,-1,20,2,-2,0,2,4
1523149940484704,-1,18,-4,-6,0,1,-6,-7
1523149940484704,12,-42,-2,-5,1,4,10,8
1523149940499918,-17,-7,67,15,-1,-3,-12,-18
1523149940499918,10,6,-60,-14,-4,-3,-2,24
1523149940501251,27,-2,19,0,0,-2,4,-16
1523149940501251,-21,5,12,3,-1,-1,20,-25
1523149940522473,0,-5,-24,5,1,2,7,-14
1523149940522473,-2,-18,23,0,-1,0,-1,47
1523149940523808,-54,-5,11,-6,-1,-3,-13,-61
1523149940523808,26,7,-12,-1,0,-1,-8,12
1523149940536007,-14,0,8,3,-1,4,5,19
1523149940536007,15,14,-2,-5,2,-1,5,0
1523149940544865,-10,-5,-16,1,-2,-2,-8,21
1523149940544865,-6,1,14,-3,-5,-7,-22,-5
1523149940560027,-14,-1,-22,2,6,9,43,-2
1523149940560027,22,6,-3,2,0,3,7,15
1523149940561408,7,-6,-6,1,-4,-1,12,30
1523149940561408,3,-3,-3,-3,-1,-4,-13,-28
1523149940582129,-4,6,1,-5,-5,-6,-16,-16
1523149940582129,-19,-10,-6,0,0,0,-2,-11
1523149940583968,8,-5,9,2,1,-1,9,-20
1523149940583968,13,5,-6,-2,1,0,2,82
1523149940596000,-37,-6,-5,-1,-5,-5,-18,-81
1523149940596000,2,-6,5,2,3,1,-1,-20
1523149940605025,6,8,-6,-3,-2,-3,-11,8
1523149940605025,21,10,-6,0,-1,4,6,12
1523149940619803,-5,-13,8,3,-1,0,-3,29
1523149940619803,-8,0,1,-3,-1,-2,-4,-20
1523149940621567,7,12,5,2,1,0,-10,7
1523149940621567,-8,-15,-2,-1,0,1,9,-8
1523149940642123,-2,18,-11,3,1,3,4,8
1523149940642123,-2,-9,-9,-2,-2,-2,14,-8
1523149940643627,7,-19,6,2,-1,-2,-1,24
1523149940643627,-12,11,11,-7,2,-5,-12,-30
1523149940656161,-1,-2,8,73,0,1,-7,9
1523149940656161,7,10,-10,-34,-11,-5,-18,3
1523149940664683,-2,5,5,19,5,3,30,10
1523149940664683,-7,-5,2,-18,3,0,-12,-8
1523149940687332,0,2,17,75,2,-3,-12,8
1523149940687332,3,-10,-31,-80,-6,-2,4,1
1523149940688988,-1,27,4,-13,2,2,-9,3
1523149940688988,-11,-35,-6,-5,-6,2,-4,-23
1523149940702523,4,-12,0,-42,2,-6,-29,18
1523149940702523,-8,-9,-59,-25,-28,-9,9,-10
1523149940704028,1,3,5,2,3,-1,14,8
1523149940704028,7,25,5,25,5,6,25,2
1523149940716235,0,3,-3,-9,1,4,-6,-11
1523149940716235,-4,-1,31,58,12,3,-10,-5
1523149940725082,3,-2,9,-53,1,0,-7,4
1523149940725082,-3,0,-8,12,-16,-11,-20,-12
1523149940740258,-6,-18,-32,-27,-18,-8,28,6
1523149940740258,3,16,45,52,16,-1,-6,-16
1523149940741895,2,12,22,76,0,-1,-11,-6
1523149940741895,-8,-14,-10,4,-19,-10,-12,-7
1523149940770174,-2,-22,-10,-30,6,1,-1,4
1523149940770174,5,14,35,40,17,10,38,15
1523149940771476,-8,-29,-44,8,-14,-11,5,-8
1523149940771476,-1,10,11,14,-5,-5,-19,-7
1523149940776195,2,15,-2,28,-5,-6,9,20
1523149940776195,-4,-2,18,7,11,2,-7,-14
1523149940785013,2,4,13,45,12,3,-3,-1
1523149940785013,-2,-14,-12,-11,6,5,13,6
1523149940799552,0,-1,-3,-97,0,-2,-24,-11
1523149940799552,-4,-7,3,80,-3,-1,24,6
1523149940801802,0,-8,-26,-125,-15,-4,-16,4
1523149940801802,1,3,-3,9,-7,-7,3,-5
1523149940822360,-1,3,-13,-19,-2,-2,-23,-17
1523149940822360,0,-8,0,25,0,0,-1,-6
1523149940823865,2,2,-15,7,-4,1,1,1
1523149940823865,1,12,8,-46,3,-3,-9,-1
1523149940835896,-5,5,15,32,9,4,12,7
1523149940835896,-2,-18,-12,-81,-6,-5,-27,1
1523149940844920,-10,-19,-33,2,-26,-11,29,-21
1523149940844920,6,10,15,10,11,3,-16,-3
1523149940859678,5,17,10,11,-3,0,7,7
1523149940859678,0,4,-5,1,-2,-2,-12,-3
1523149940861467,-6,-12,-18,-40,0,-1,-16,2
1523149940861467,0,-3,4,11,3,1,9,5
1523149940882571,0,0,-14,-16,-7,-3,9,-1
1523149940882571,0,8,8,4,5,2,1,-3
1523149940884025,3,1,33,30,11,5,-17,-1
1523149940884025,-4,3,-27,13,-6,1,32,0
1523149940896056,1,-11,-4,-18,-2,-3,-11,-1
1523149940896056,0,0,1,-12,-5,-5,-16,-4
1523149940905080,-3,-5,1,20,7,3,8,0
1523149940905080,2,5,14,9,7,2,-6,3
1523149940919822,-2,-4,2,-27,-4,-1,-5,-1
1523149940919822,-2,-1,-9,-9,1,1,15,1
1523149940921735,1,-1,5,42,-1,1,-6,-1
1523149940921735,1,-1,12,-20,3,0,0,3
1523149940942385,-3,-6,-31,1,-7,-7,5,1
1523149940942385,0,10,-52,-12,-8,-7,-12,-1
1523149940943684,-4,-9,71,-8,9,2,-11,-13
1523149940943684,0,0,-26,-3,1,1,1,0
1523149940955912,0,-3,5,16,-2,1,5,4
1523149940955912,-4,-5,-6,-20,-4,0,-12,-11
1523149940964740,0,1,-12,1,-2,-4,-14,7
1523149940964740,-1,1,-3,-2,-2,3,17,5
1523149940979779,-3,0,8,-5,2,3,14,1
1523149940979779,1,-4,3,7,-1,-2,-4,-5
1523149940981283,4,6,-4,-2,-2,-3,-11,3
1523149940981283,-3,-6,2,-5,-3,-4,-13,2
1523149941002487,-4,1,-8,9,3,2,13,0
1523149941002487,3,-9,29,-2,-2,0,-4,-2
1523149941003845,4,5,-9,-1,-2,0,-2,-3
1523149941003845,-15,-10,-5,-10,0,2,11,5
1523149941016078,16,0,5,10,1,1,-7,10
1523149941016078,12,1,-15,0,-4,0,-8,6
1523149941024898,-44,11,32,-9,-1,-1,0,-29
1523149941024898,11,-19,-4,6,-2,-2,-5,14
1523149941039939,-1,-9,4,5,0,0,-3,-12
1523149941039939,4,-11,-4,-4,-2,-3,1,21
1523149941041444,20,-7,-18,-2,-2,-1,2,38
1523149941041444,-17,10,2,1,1,1,4,-39
1523149941061998,-15,6,10,7,-1,0,-5,-1
1523149941061998,5,1,-6,-5,-2,-2,-2,-12
1523149941064004,13,1,-10,-1,1,1,3,5
1523149941064004,3,0,4,-1,-3,-5,-6,12
1523149941085197,16,3,-4,-6,0,-1,-3,5
1523149941085197,11,5,4,1,1,-1,3,45
1523149941086301,-33,-4,-13,-2,1,0,14,-57
1523149941086301,4,-1,-9,1,-3,-3,-15,5
1523149941100044,-10,8,-10,2,6,8,13,9
1523149941100044,-9,-1,15,-7,-4,3,20,-27
1523149941101341,37,-4,-2,1,-1,2,15,35
1523149941101341,-22,3,-28,-10,-5,-7,-13,49
1523149941122578,-17,-7,0,1,-4,-9,-12,-33
1523149941122578,-2,0,-9,-2,1,0,-16,-5
1523149941123900,4,-2,-15,-16,4,1,3,-9
1523149941123900,19,4,21,55,1,4,9,-1
1523149941144957,0,-2,-2,-35,-9,-2,4,16
1523149941144957,-15,-1,-4,7,-1,-4,-8,-17
1523149941146464,4,2,-5,21,0,-4,-6,8
1523149941146464,2,2,12,17,1,1,15,-5
1523149941159334,-2,3,4,-22,3,1,2,15
1523149941159334,-5,5,9,44,-2,-1,-1,-13
1523149941166365,-4,-14,-1,3,6,0,-4,-5
1523149941166365,-5,-13,-47,-12,-15,-4,16,-19
1523149941182590,3,6,17,-38,2,0,-7,-11
1523149941182590,0,-4,7,41,5,2,2,9
1523149941184187,-2,8,6,5,-5,-5,3,16
1523149941184187,-4,3,-11,-50,-11,-4,-12,-22
1523149941204952,8,-1,12,31,11,8,15,9
1523149941204952,-2,17,-6,-29,-1,2,13,-4
1523149941206119,-14,-41,-11,-19,-5,-6,-10,7
1523149941206119,3,-10,5,-21,-1,-2,-17,-17
1523149941219250,3,9,25,-13,7,-2,-4,2
1523149941219250,-3,-9,-24,98,-8,-1,12,8
1523149941226006,-2,3,-44,-48,-8,1,1,12
1523149941226006,-3,6,20,24,6,-2,-15,-38
1523149941242566,0,-3,0,-18,2,-2,-25,-5
1523149941242566,-2,2,0,25,-1,0,-2,7
1523149941243721,3,10,17,21,1,-1,-6,-4
1523149941243721,1,6,52,81,25,10,11,10
1523149941265132,-1,-14,-96,-48,-50,-15,27,2
1523149941265132,-2,-3,10,-29,4,-4,-12,-17
1523149941266280,2,7,-2,57,-1,3,2,-11
1523149941266280,3,12,22,-33,9,3,5,6
1523149941279035,-2,1,36,80,16,6,-4,-4
1523149941279035,-5,-20,-42,-87,-11,-3,9,3
1523149941286385,-6,-9,13,-10,2,-3,-6,-9
1523149941286385,2,4,0,-6,4,-1,-9,-2
1523149941302263,-2,-3,11,29,-6,-8,-5,-6
1523149941302263,0,0,-13,-24,-8,0,-13,13
1523149941304241,3,17,18,-5,9,5,16,2
1523149941304241,0,-10,-12,-1,-5,2,9,5
1523149941324803,-4,-8,-8,-26,1,0,1,3
1523149941324803,-2,7,27,43,3,-7,-14,-11
1523149941326159,-2,0,-4,-6,-4,0,-2,-10
1523149941326159,1,-4,-18,-17,-3,-2,-14,3
1523149941339358,-3,-7,-3,7,-2,-3,-1,-9
1523149941339358,0,7,33,29,9,1,-5,-11
1523149941345712,-1,2,-22,-30,-11,-5,0,6
1523149941345712,0,-5,2,-6,-2,-1,-2,2
1523149941362424,-2,2,11,20,12,0,-27,-1
1523149941362424,-3,-6,-28,-61,-13,0,38,1
1523149941363761,-2,0,4,-6,-3,-5,-21,-4
1523149941363761,-1,-3,-6,-7,-2,2,2,8
1523149941384981,2,2,17,57,8,3,3,-4
1523149941384981,-5,-4,-26,-93,-21,-10,-28,-21
1523149941386322,-1,-4,-15,3,-2,1,4,4
1523149941386322,2,2,3,7,-1,0,0,8
1523149941399390,-6,2,-50,8,4,5,11,7
1523149941399390,7,-11,39,-12,-6,-5,-17,-4
1523149941406041,-3,4,3,-6,0,-1,5,-5
1523149941406041,-1,0,-11,-1,-3,-4,-6,-2
1523149941422555,-1,1,-3,-14,-3,-2,-4,0
1523149941422555,-2,1,8,8,15,6,5,7
1523149941423920,-1,-5,-23,29,-11,-7,-16,-4
1523149941423920,-3,-1,10,9,-2,-1,24,2
1523149941444975,-1,-2,6,3,-1,1,-1,1
1523149941444975,-5,-1,-12,3,5,0,-1,2
1523149941446480,1,-1,23,15,1,1,2,1
1523149941446480,2,-1,-14,-17,-4,-3,-9,1
1523149941459178,-7,-6,-5,-15,-8,-7,-6,-18
1523149941459178,-1,2,7,24,5,-1,-7,-5
1523149941466196,14,4,0,-7,1,3,5,25
1523149941466196,11,-2,-2,-4,-2,-2,-12,-6
1523149941482223,-49,-7,10,-2,-1,-4,-12,-51
1523149941482223,19,-2,4,7,1,-1,6,17
1523149941484193,-21,7,-7,-7,-1,0,19,34
1523149941484193,20,-12,2,-7,-1,-1,-6,38
1523149941504779,35,12,6,10,2,5,17,43
1523149941504779,24,6,-6,-3,0,1,11,23
1523149941506640,-94,-34,-6,-31,-6,-12,-42,-99
1523149941506640,-5,0,-7,23,2,-3,-26,-102
1523149941519173,24,2,1,-8,-2,-2,18,41
1523149941519173,30,9,1,4,0,2,5,61
1523149941525691,51,9,11,7,4,5,17,51
1523149941525691,-30,1,-1,-6,-2,-2,-8,-9
1523149941542736,-4,-5,-3,-8,-4,-3,-15,-38
1523149941542736,-5,5,4,5,0,0,6,-6
1523149941543739,4,1,-1,0,-2,-1,-5,8
1523149941543739,-11,-3,-8,-7,-5,-3,23,2
1523149941565296,12,0,4,3,0,1,21,19
1523149941565296,-27,-10,-3,3,-3,-4,-4,-20
1523149941566299,9,4,4,7,0,0,-11,-16
1523149941566299,12,-1,-8,0,1,1,13,23
1523149941578332,0,-1,16,37,6,4,0,20
1523149941578332,-23,-10,-35,-79,-10,-6,-19,-26
1523149941587356,8,-1,-12,5,-1,-2,15,-5
1523149941587356,7,5,9,12,-2,-2,-3,20
1523149941602395,-5,-4,-7,-26,-7,-8,-7,-9
1523149941602395,-11,-3,-5,13,5,-2,-12,-25
1523149941603900,17,8,24,67,10,9,24,17
1523149941603900,-5,-3,-16,-61,1,7,12,9
1523149941625053,-5,-1,4,32,-4,0,-6,0
1523149941625053,-1,-5,-7,-16,-2,-1,-11,-10
1523149941626458,6,-2,-3,-30,-3,-5,-1,-6
1523149941626458,-2,6,8,18,2,-1,3,8
1523149941638639,-3,2,-18,-40,-4,-7,-23,13
1523149941638639,-5,-16,36,98,6,2,16,-12
1523149941647521,-4,-9,-55,-96,-16,-4,-9,-4
1523149941647521,0,-2,33,25,9,4,-1,-15
1523149941662557,7,4,-12,-33,-5,0,-4,8
1523149941662557,-1,18,22,56,7,4,0,3
1523149941664061,1,9,29,33,10,-1,8,3
1523149941664061,3,-3,-6,51,-10,-3,-22,14
1523149941684646,-7,-16,1,-25,0,-3,-9,-16
1523149941684646,-8,-17,-7,-12,-5,-5,-12,-13
1523149941686119,-2,-2,-6,59,-3,-5,-25,-32
1523149941686119,2,13,-4,-21,0,-4,-14,2
1523149941707177,1,5,26,65,6,2,2,-4
1523149941707177,-5,-6,-23,-113,-15,-5,8,4
1523149941709179,5,1,13,-4,6,7,4,16
1523149941709179,-2,0,24,29,2,-1,3,5
1523149941722484,-12,-7,-28,12,-6,-2,-7,-32
1523149941722484,8,7,6,-18,10,1,-11,-1
1523149941723719,1,3,16,68,-2,3,4,12
1523149941723719,-9,-11,-33,-57,-26,-13,2,-7
1523149941744775,1,1,13,22,7,4,9,7
1523149941744775,1,8,36,74,14,3,-8,6
1523149941746278,-5,-10,-60,-98,-31,-16,-28,-22
1523149941746278,-5,-8,10,31,5,3,5,-1
1523149941758814,7,6,4,11,-2,2,-15,1
1523149941758814,-6,13,-23,9,1,0,13,1
1523149941767333,-2,-7,26,-20,9,2,1,0
1523149941767333,-7,-22,-18,-22,-8,-7,-10,-6
1523149941782633,1,-5,0,-20,-2,-4,-13,-1
1523149941782633,5,12,20,44,12,12,46,6
1523149941783879,-3,1,-10,-45,-17,-10,4,5
1523149941783879,2,0,-16,-31,0,2,10,11
1523149941804934,2,3,22,75,8,2,27,0
1523149941804934,0,-2,-19,-35,-11,-6,-16,4
1523149941806439,-1,-16,4,22,6,1,-8,-2
1523149941806439,3,6,24,30,12,5,4,-1
1523149941818470,-6,-9,-47,-88,-12,-8,3,2
1523149941818470,-1,-5,0,18,-5,-5,-8,-4
1523149941827494,0,5,-9,16,1,1,2,1
1523149941827494,3,7,22,13,7,4,-7,2
1523149941842308,0,1,1,-14,4,-1,-10,-6
1523149941842308,-11,-8,-56,-120,-30,-12,-7,-2
1523149941844038,9,2,24,81,13,3,6,2
1523149941844038,1,2,10,18,8,4,-3,1
1523149941864593,-1,-3,6,18,2,1,-14,0
1523149941864593,-2,-2,-8,16,-4,-3,-2,-4
1523149941866599,-3,0,10,-36,-6,-4,2,8
1523149941866599,-1,3,-16,-24,-7,-4,17,10
1523149941878632,0,-7,-3,-4,0,2,9,7
1523149941878632,4,11,27,57,11,-1,-7,-2
1523149941887154,0,1,-7,-17,3,5,2,2
1523149941887154,-3,-4,-11,13,-7,-4,-20,-12
1523149941902699,-2,3,1,0,-1,-1,3,7
1523149941902699,2,-13,6,29,4,2,9,0
1523149941903697,-2,3,-4,-17,0,-1,0,-6
1523149941903697,-1,0,0,-3,-4,-4,-1,-5
1523149941924752,-1,2,5,5,3,5,2,-9
1523149941924752,-2,0,1,8,-1,1,-7,2
1523149941926257,0,-1,-14,15,1,-1,10,11
1523149941926257,-1,2,0,-18,1,-2,-4,-12
1523149941938584,-1,-2,6,-13,-8,-6,6,3
1523149941938584,-2,-7,-8,-1,-2,-2,-5,-5
1523149941947314,0,2,-3,-7,1,-1,-8,1
1523149941947314,-6,-4,7,-9,-7,-5,1,11
1523149941962353,-1,3,-2,3,1,4,27,-18
1523149941962353,6,0,-5,-6,1,-1,-13,20
1523149941963858,5,-1,11,0,-1,-1,6,6
1523149941963858,-4,6,-11,3,1,1,-11,-49
1523149941985003,11,-5,-1,2,-4,-2,11,46
1523149941985003,-82,-7,-6,-14,-3,-8,-55,-102
1523149941986417,19,1,1,0,0,2,23,-1
1523149941986417,21,3,-2,2,0,1,32,2
1523149942007764,-24,-4,0,-9,-1,0,6,5
1523149942007764,22,7,3,-2,0,2,21,8
1523149942008978,-10,-11,-2,4,-1,-3,-27,-2
1523149942008978,-2,1,-1,-5,-1,-1,-5,-1
1523149942023411,8,1,-4,-3,-3,-4,-22,-10
1523149942023411,17,-2,2,0,-2,1,10,36
1523149942028385,-7,2,6,6,2,1,-3,10
1523149942028385,-2,-5,-11,-6,-2,-4,-19,-28
1523149942044931,5,-1,-1,-2,-1,-1,-13,2
1523149942044931,-2,-4,4,-1,-2,0,4,-4
1523149942046435,5,-1,-7,-2,1,0,-1,14
1523149942046435,-12,16,12,-3,-1,-2,-7,30
1523149942075300,-31,-22,-19,-4,-1,-5,-17,-52
1523149942075300,19,3,0,1,2,1,-12,24
1523149942076513,12,4,17,1,-2,4,26,-2
1523149942076513,-7,-2,-14,-5,-6,-5,-14,-22
1523149942082724,0,2,35,3,4,-1,-2,28
1523149942082724,7,-7,-25,10,3,5,-1,14
1523149942084034,-3,-2,0,-4,-4,-7,-17,1
1523149942084034,2,-4,-1,33,-3,-4,-3,12
1523149942104888,8,7,10,-24,1,3,-10,45
1523149942104888,-4,-1,9,2,5,7,42,-33
1523149942106593,-4,2,-3,-11,0,-1,-26,-5
1523149942106593,-4,-9,-10,17,-3,2,36,11
1523149942127149,1,4,-8,7,-3,-8,-9,-2
1523149942127149,6,1,5,-21,-7,-4,-9,23
1523149942128652,-14,8,-2,17,1,-1,19,-8
1523149942128652,0,-6,3,-1,1,1,-16,11
1523149942141809,2,-13,-15,-9,-2,-1,7,-18
1523149942141809,-1,0,14,5,4,-2,-7,-1
1523149942148242,-4,-1,-1,-5,-4,-2,13,-11
1523149942148242,2,5,-3,8,2,-2,-15,8
1523149942165069,6,8,9,5,-1,0,-5,-3
1523149942165069,-2,-4,-1,27,3,4,8,-6
1523149942166252,-2,0,-2,-28,5,4,-11,0
1523149942166252,0,-4,-28,-8,-8,-3,1,-4
1523149942187809,-1,1,3,13,3,-1,-9,-19
1523149942187809,-1,-1,-10,0,-12,-7,-14,7
1523149942189367,-4,-6,-1,-9,1,-4,-2,-9
1523149942189367,3,8,13,1,1,0,-5,-4
1523149942202175,2,9,7,15,5,3,35,-13
1523149942202175,-7,-29,-1,4,-2,-3,-5,2
1523149942208866,0,-1,-20,-36,-4,-1,5,-5
1523149942208866,-1,-6,-2,-51,2,1,1,1
1523149942225010,5,15,2,85,-2,-2,-11,-15
1523149942225010,-2,10,-8,-84,-6,-6,-9,8
1523149942226411,-2,-4,7,17,1,2,-2,-5
1523149942226411,-2,-4,3,17,3,0,6,11
1523149942247538,-1,-3,3,-26,3,-2,1,1
1523149942247538,2,4,13,64,4,1,4,-13
1523149942248973,-6,-8,-20,-22,-10,-13,-26,-6
1523149942248973,0,5,-30,-61,-11,-2,5,14
1523149942262509,-2,-18,-16,17,-5,-1,8,3
1523149942262509,0,-1,17,5,7,1,-19,14
1523149942268667,-5,2,8,51,-2,-3,10,5
1523149942268667,1,1,21,-34,8,8,5,10
1523149942285068,-2,-1,-23,-21,-6,-5,-26,-1
1523149942285068,-2,3,-4,-4,-1,0,11,-21
1523149942286573,2,5,11,39,3,-2,-10,3
1523149942286573,1,-3,8,-12,3,0,-6,-9
1523149942307276,-5,-4,-16,-5,-10,-5,-7,-5
1523149942307276,2,1,-9,-54,-1,-1,-21,1
1523149942309164,-4,-3,-3,-2,-7,3,5,1
1523149942309164,-3,-5,10,39,4,-3,7,-9
1523149942321854,-1,-7,8,13,7,2,-15,-12
1523149942321854,-3,-8,-26,-47,-19,-6,34,7
1523149942328519,-1,4,-2,20,2,2,18,-7
1523149942328519,1,-3,14,19,7,8,0,21
1523149942352511,-2,0,12,60,6,2,9,4
1523149942352511,-2,-4,-15,-23,-7,-1,-5,-7
1523149942353942,1,-5,-16,-85,-13,-6,-15,4
1523149942353942,-1,1,17,52,10,-2,13,0
1523149942366977,1,6,17,16,-3,0,-1,0
1523149942366977,-1,2,6,6,3,-2,2,-6
1523149942368983,-6,-12,-42,-49,-22,-7,-6,-9
1523149942368983,-2,-1,2,34,0,-3,-9,-14
1523149942381658,-2,-1,-1,-34,-2,0,6,13
1523149942381658,4,-1,14,37,8,8,46,34
1523149942388656,1,4,8,12,6,1,-14,-6
1523149942388656,-3,-6,-9,-38,-6,0,4,-13
1523149942404721,-6,-1,-6,5,-5,-5,-5,-4
1523149942404721,0,6,-30,-68,-12,-8,-23,-17
1523149942406661,1,-6,9,62,6,4,-3,5
1523149942406661,1,-3,2,17,3,2,4,17
1523149942427138,1,5,-5,-52,-3,-1,1,-10
1523149942427138,-2,0,23,98,11,2,-18,-10
1523149942428643,-2,3,-13,-68,-6,-2,23,0
1523149942428643,-1,-2,-6,10,-6,-7,-14,1
1523149942441827,0,1,5,-2,4,2,10,-6
1523149942441827,0,3,1,11,-2,-4,-6,-2
1523149942448695,1,-7,13,21,11,5,1,7
1523149942448695,-1,-3,-8,-6,-5,-5,-16,-18
1523149942464736,-1,-20,-10,-25,-4,-2,-2,14
1523149942464736,-4,3,3,1,1,-1,4,-28
1523149942466240,-2,2,7,23,2,1,5,0
1523149942466240,-2,-12,-2,-13,-3,-3,-25,-11
1523149942487440,1,-3,-10,-14,-4,-1,26,26
1523149942487440,-4,-1,-1,7,0,-1,2,-23
1523149942488801,1,5,3,19,7,0,-21,-6
1523149942488801,0,2,-7,-7,-3,0,21,-7
1523149942500978,10,4,-5,-12,-2,2,5,9
1523149942500978,10,0,1,5,1,2,12,30
1523149942509857,10,0,2,8,3,0,-2,8
1523149942509857,-51,-2,-2,-6,-4,-4,1,-39
1523149942525032,-11,-3,-6,-8,-3,-2,-10,14
1523149942525032,-15,0,-4,0,3,3,-3,-12
1523149942526402,19,3,11,9,1,1,19,29
1523149942526402,20,3,-8,-2,-3,-3,0,31
1523149942547507,17,4,4,-2,4,4,4,34
1523149942547507,-4,-6,0,-1,0,1,-7,4
1523149942548962,-20,-4,2,4,-3,-5,-17,-24
1523149942548962,16,3,-4,0,-1,1,11,13
1523149942561138,-3,1,-4,-6,-3,-5,-2,-24
1523149942561138,7,-1,-2,-1,0,-1,-2,7
1523149942570017,-12,-1,1,3,-1,-3,17,-6
1523149942570017,1,2,-1,-3,-3,-4,-24,-6
1523149942584958,6,1,-5,-2,0,-2,-4,7
1523149942584958,0,-1,7,1,3,4,4,-8
1523149942586780,-9,-2,8,5,2,1,-16,-26
1523149942586780,7,-2,-3,-5,-3,1,5,0
1523149942607486,-17,-1,0,-4,-5,-6,-8,-20
1523149942607486,7,0,-8,-4,-3,-5,-19,30
1523149942608805,-3,1,6,21,3,6,17,0
1523149942608805,4,-1,-1,-3,1,-1,2,4
1523149942621016,-2,0,2,-8,-3,-2,-14,-9
1523149942621016,-5,-3,-6,-32,-8,-7,-3,-3
1523149942629860,2,0,0,13,2,0,-11,4
1523149942629860,-6,-1,4,3,2,0,-4,3
1523149942644901,-1,1,15,31,-2,-5,23,5
1523149942644901,-6,-4,-30,-48,-10,-2,-10,1
1523149942646405,2,-3,13,21,4,6,5,15
1523149942646405,-3,-4,-15,-47,-6,-4,-8,-21
1523149942667460,-5,0,12,-4,3,1,-13,-14
1523149942667460,5,1,5,32,-4,-5,2,-5
1523149942668966,3,11,-38,-92,-10,-5,-6,5
1523149942668966,-3,-12,-9,-8,-6,-3,-11,16
1523149942681208,-2,-4,7,-14,4,-1,-5,-16
1523149942681208,-3,3,5,37,1,0,1,-4
1523149942690021,-2,-17,21,56,6,1,9,1
1523149942690021,3,13,10,65,4,1,-5,15
1523149942704779,-4,-6,-42,-55,-12,-4,4,-25
1523149942704779,-4,-7,32,82,4,-3,-6,-1
1523149942706063,0,11,8,32,5,4,-5,-6
1523149942706063,2,-1,2,-22,-9,-5,7,0
1523149942727653,-1,-13,8,-11,3,1,2,4
1523149942727653,-5,7,-6,-39,1,-2,6,1
1523149942729242,0,7,-4,61,-3,-4,-11,-19
1523149942729242,-4,-16,2,-16,-7,-6,-8,4
1523149942740886,4,20,6,18,0,1,-8,-8
1523149942740886,4,2,0,-5,2,0,-6,-3
1523149942749679,-8,-17,8,0,7,2,5,0
1523149942749679,-5,-31,12,21,8,4,-2,0
1523149942764949,-5,4,-49,-45,-4,0,-11,0
1523149942764949,-1,-11,16,85,-7,-1,20,-1
1523149942766223,-1,-3,-22,-44,-7,-8,-8,2
1523149942766223,7,17,19,15,11,3,7,-7
1523149942787509,4,8,14,15,12,10,19,22
1523149942787509,-1,1,11,60,6,1,-28,-34
1523149942788783,-4,-3,-7,7,-13,-8,-11,-2
1523149942788783,-6,8,-7,13,-3,-4,18,-13
1523149942801046,0,3,31,33,8,2,-26,-5
1523149942801046,1,3,-24,-31,7,3,-10,17
1523149942809840,-4,-14,-81,-92,-40,-12,-5,-1
1523149942809840,-1,3,-3,27,-1,-1,1,1
1523149942825036,-3,-11,1,43,2,1,-2,0
1523149942825036,0,-2,21,55,4,1,31,6
1523149942826386,-1,7,-12,-88,-11,-4,-5,-6
1523149942826386,0,7,-8,-20,-1,1,4,2
1523149942847503,-4,-27,-4,15,-2,-1,-2,-12
1523149942847503,-1,3,34,-28,17,9,33,24
1523149942848945,1,-2,-33,-28,-15,-7,-7,-9
1523149942848945,-2,6,-13,9,-1,1,2,8
1523149942861099,0,3,14,24,3,-1,11,9
1523149942861099,-2,-3,-14,-16,-11,-8,-10,-1
1523149942869999,1,1,11,0,9,2,-4,7
1523149942869999,-2,-1,-4,-12,-4,1,16,-5
1523149942885068,1,0,-4,-38,-8,-4,-6,-5
1523149942885068,0,-4,-11,-27,-4,-2,-3,6
1523149942886636,0,9,26,22,7,1,-1,-11
1523149942886636,-3,-12,-13,5,-1,0,-6,-3
1523149942907221,-1,2,6,14,-1,-3,-6,3
1523149942907221,0,2,-16,-20,-10,-5,-2,-11
1523149942908602,2,-1,23,40,12,3,8,4
1523149942908602,2,3,7,13,3,4,-3,0
1523149942929786,-2,-3,-24,-51,-11,-5,-7,-1
1523149942929786,-4,-5,-8,2,-8,-5,-10,13
1523149942931163,-5,-3,9,-14,3,-2,-6,-16
1523149942931163,1,0,14,26,4,2,4,9
1523149942944698,3,3,-4,6,-3,0,-1,-6
1523149942944698,2,2,-4,-16,-2,-3,-39,-4
1523149942946202,-3,-6,13,29,8,5,29,34
1523149942946202,-10,2,-7,-1,-4,-3,-16,-46
1523149942967383,-1,-1,-7,7,-4,-4,5,4
1523149942967383,-1,1,5,-25,-1,-1,0,3
1523149942968763,2,1,10,34,7,3,-12,-3
1523149942968763,4,-3,-13,-19,-1,-2,-6,3
1523149942989946,3,5,9,5,-1,1,20,1
1523149942989946,16,-2,-17,-10,-1,-1,-7,20
1523149942991322,-43,-9,-4,3,-4,-4,7,-42
1523149942991322,-4,-1,0,-7,-2,-1,-1,23
1523149943012498,-2,-1,-10,9,2,-3,-20,-29
1523149943012498,0,1,10,-2,-1,1,7,1
1523149943013884,19,1,6,9,2,0,-9,24
1523149943013884,3,1,-6,-11,-2,-4,-7,-11
1523149943027509,-2,7,6,11,-2,-1,3,15
1523149943027509,-4,-15,-8,-14,1,-2,3,-9
1523149943028922,4,11,3,4,-6,0,-18,-1
1523149943028922,-4,-30,-2,-1,-3,-1,26,5
1523149943049562,0,-5,-10,-2,-2,-2,-6,8
1523149943049562,-5,5,-2,-6,-4,2,22,3
1523149943051483,10,4,5,8,6,-2,-11,-22
1523149943051483,16,5,4,0,1,2,-6,74
1523149943064251,-11,-9,0,3,0,0,8,-13
1523149943064251,-18,3,-1,-7,-1,-2,-15,-40
1523149943071214,-8,-11,-4,6,0,0,11,7
1523149943071214,9,11,-2,-8,-5,-4,-1,4
1523149943087283,-8,0,-4,1,0,-1,1,20
1523149943087283,2,-9,-5,-2,-2,-2,-5,-6
1523149943089198,8,4,6,2,-1,-3,9,0
1523149943089198,11,13,1,-4,-1,-3,-8,0
1523149943109638,-1,-4,-4,3,0,-1,-5,12
1523149943109638,-8,1,1,-4,-3,0,10,-33
1523149943111643,8,5,-9,1,0,1,-8,19
1523149943111643,-11,-5,-6,-4,-3,-2,-7,-29
1523149943124176,-2,1,5,1,-3,-2,28,2
1523149943124176,-2,-1,-5,-2,-2,-3,-12,-3
1523149943130887,5,-3,4,6,-2,-2,-6,10
1523149943130887,-11,0,-2,0,1,2,16,-20
1523149943147237,1,-1,2,2,1,2,-2,-11
1523149943147237,6,4,-1,-1,-3,0,8,17
1523149943148742,-5,3,4,2,-1,-5,-18,-18
1523149943148742,-2,-4,11,47,2,-1,-14,-6
1523149943169958,1,-2,-6,-12,-4,2,-5,2
1523149943169958,-3,-1,-20,-74,-10,-3,3,11
1523149943171302,-1,10,10,-4,0,-1,-2,-3
1523149943171302,-3,7,23,20,15,3,-9,-5
1523149943184866,3,-4,-28,29,-15,-5,-6,1
1523149943184866,-6,-15,24,108,14,5,10,11
1523149943191009,0,-2,5,70,-1,1,5,4
1523149943191009,-3,-7,-26,-85,-16,-8,-1,-5
1523149943207558,0,14,21,43,8,1,-3,-8
1523149943207558,3,2,-1,-27,-7,-7,-6,7
1523149943208902,0,0,34,27,24,10,24,18
1523149943208902,-5,8,11,127,5,2,-4,-37
1523149943229611,-3,-15,-25,-65,-24,-12,-44,39
1523149943229611,-3,-3,4,65,2,3,44,-12
1523149943231463,1,-12,6,-37,7,5,18,18
1523149943231463,3,8,39,86,20,11,-15,4
1523149943243994,-8,-10,-89,-105,-34,-11,-14,0
1523149943243994,4,12,23,37,6,0,-11,10
1523149943251226,2,-10,-18,16,-9,-2,5,6
1523149943251226,-4,-1,-1,-88,-2,4,36,2
1523149943267417,-6,4,9,21,2,-11,-16,-40
1523149943267417,-1,3,-10,-33,-2,1,16,8
1523149943268766,-2,-5,13,12,7,-1,-5,-17
1523149943268766,1,4,7,68,1,1,-12,3
1523149943289982,-5,-14,-33,-71,-22,-10,-1,-3
1523149943289982,-1,0,-4,-4,3,-1,-8,-7
1523149943291326,-2,2,-5,0,-8,-7,-20,-7
1523149943291326,0,-5,-8,-63,-1,-1,12,17
1523149943304361,6,7,49,78,27,12,-2,-12
1523149943304361,-4,-9,-36,-35,-18,-8,-14,-2
1523149943310878,-1,7,-9,-53,-5,1,21,4
1523149943310878,-2,-11,-23,-44,-10,-5,-12,1
1523149943327422,1,-4,19,43,9,2,10,-5
1523149943327422,3,10,19,10,10,3,-12,-4
1523149943328926,1,2,0,28,-9,1,-4,6
1523149943328926,-9,-1,-23,-34,-14,-13,-1,-32
1523149943349838,0,-21,31,42,13,5,10,8
1523149943349838,2,-2,9,-22,7,3,7,-5
1523149943351732,-5,12,-4,17,-14,-5,-2,-4
1523149943351732,-8,-43,-27,-20,-6,-5,-13,0
1523149943364267,2,16,5,3,1,-2,-27,-17
1523149943364267,0,4,10,0,3,0,11,3
1523149943371017,0,-10,4,9,6,1,-5,-3
1523149943371017,3,8,-2,-17,-2,0,1,5
1523149943387560,-2,1,12,27,9,4,6,-4
1523149943387560,-4,-10,-23,-74,-15,-7,-14,-2
1523149943388834,0,5,5,25,-2,-4,-5,-4
1523149943388834,-3,-5,-19,-13,-11,-7,-5,-2
1523149943409890,-1,6,-1,-31,2,-1,25,-7
1523149943409890,0,-1,5,24,2,2,-7,14
1523149943411394,-3,-12,-15,-28,-3,-2,-4,0
1523149943411394,2,12,13,-2,6,1,0,1
1523149943423622,2,5,9,9,3,5,6,2
1523149943423622,-2,0,-4,27,-4,-4,-12,-5
1523149943432450,-2,-7,-11,-53,-6,-3,-12,-10
1523149943432450,-2,-4,-7,29,-11,-9,-15,1
1523149943447392,2,4,6,13,2,3,26,12
1523149943447392,-1,-4,-5,7,0,1,-3,-3
1523149943448740,1,-1,2,21,6,3,-1,-2
1523149943448740,-4,6,8,-1,1,0,-3,2
1523149943469951,-1,-4,-7,-9,-3,-2,-1,0
1523149943469951,-1,-2,-4,6,-1,-1,-3,0
1523149943471300,0,0,-5,-11,-2,-1,-8,-10
1523149943471300,4,0,-1,-7,-2,-1,-6,0
1523149943483487,-1,-1,7,-7,0,0,20,20
1523149943483487,-6,-4,-9,0,0,0,-3,-25
1523149943492355,0,1,2,-2,-1,-4,-2,-1
1523149943492355,6,2,1,-3,1,3,20,38
1523149943507397,16,2,7,11,3,2,2,-18
1523149943507397,24,-1,-13,0,-3,-2,7,78
1523149943508900,-79,-14,-14,-12,-6,-6,-13,-75
1523149943508900,-21,-2,7,4,4,6,8,-67
1523149943529610,15,5,-1,-5,-1,-1,4,-22
1523149943529610,32,1,0,-4,-2,-5,-9,49
1523149943531460,-24,-3,-4,-4,1,1,23,4
1523149943531460,-10,-2,0,0,-1,-2,5,-8
1523149943543493,-12,-2,-4,-1,-3,-1,5,-18
1523149943543493,7,3,2,0,0,3,12,-12
1523149943552516,37,2,0,1,0,0,13,42
1523149943552516,-8,0,-2,-1,-1,1,25,8
1523149943567555,-10,-4,-2,-4,-3,-3,-12,-10
1523149943567555,-17,-4,1,3,-2,-2,-19,-22
1523149943568559,24,8,0,-2,-1,4,34,14
1523149943568559,45,3,1,-4,0,-2,-1,104
1523149943589770,-37,-12,-5,-4,-3,-5,-14,-13
1523149943589770,-47,-4,0,1,0,0,-9,-87
1523149943591118,10,1,-3,1,-1,-2,-18,1
1523149943591118,7,5,0,1,0,0,-5,-1
1523149943603652,22,3,-2,3,-1,-1,-5,52
1523149943603652,-8,0,-1,-1,-5,-3,-4,-4
1523149943612173,0,0,-3,-3,0,-1,3,-4
1523149943612173,9,0,1,0,-1,-2,-8,-8
1523149943627379,-5,-3,-1,1,1,2,-10,0
1523149943627379,-2,0,1,3,4,2,-10,3
1523149943628718,14,31,5,-1,-2,5,16,1
1523149943628718,-18,-36,-5,-5,-2,-4,-5,-2
1523149943650070,-8,-11,0,13,3,0,11,-29
1523149943650070,5,2,-2,-9,-4,1,-15,-1
1523149943651705,4,-4,-36,-34,-23,-13,-10,5
1523149943651705,-8,18,17,22,9,4,-4,-17
1523149943663395,-1,0,-7,-19,-1,-5,-10,1
1523149943663395,7,-5,21,37,2,1,10,-1
1523149943672447,-2,-13,-30,-54,-1,-1,-17,18
1523149943672447,-3,22,-2,-14,1,1,14,-8
1523149943687551,4,-12,7,-27,6,3,19,10
1523149943687551,-2,-1,16,66,-7,-7,-8,4
1523149943688992,-3,-6,7,44,3,-3,31,3
1523149943688992,2,-4,-20,-53,-5,-2,-19,-4
1523149943709546,2,10,2,26,1,6,-1,13
1523149943709546,-3,2,-6,-17,-1,-3,2,-13
1523149943711551,-1,-8,22,10,4,0,-18,-3
1523149943711551,3,-1,-1,51,2,-2,-19,-10
1523149943739782,1,4,4,12,0,-1,3,5
1523149943739782,-2,-2,0,5,2,4,-2,2
1523149943741630,0,-8,11,-18,-3,-4,5,1
1523149943741630,-1,0,-5,-22,-3,-4,-17,2
1523149943747308,-2,2,0,30,-1,-1,-1,16
1523149943747308,-4,-5,-11,-32,-4,-7,-23,-21
1523149943749204,0,-6,9,25,9,4,-8,12
1523149943749204,-5,-2,7,2,3,1,-19,10
1523149943769731,0,-1,-7,23,-6,-2,-4,-2
1523149943769731,1,0,10,23,0,2,6,6
1523149943771210,2,0,-16,7,-5,1,-4,-2
1523149943771210,-6,-5,-17,-14,-7,-2,2,-14
1523149943783454,2,2,8,-53,7,3,-3,-2
1523149943783454,0,-1,-11,22,-4,1,11,8
1523149943792319,0,1,12,46,3,0,-23,-11
1523149943792319,-1,-2,12,13,1,-4,-4,-8
1523149943807524,-3,-1,-20,-94,-17,-8,-20,-12
1523149943807524,-2,5,-14,-12,1,4,25,-2
1523149943808864,-2,-2,9,54,4,2,-1,-9
1523149943808864,-2,-14,8,-42,5,0,6,-5
1523149943830046,-6,-4,-4,99,-9,-7,-4,-18
1523149943830046,1,-3,-10,-82,-6,-5,4,8
1523149943831424,3,4,0,-25,2,-1,-6,-2
1523149943831424,1,22,-2,36,-8,-1,15,-3
1523149943843456,-6,-24,16,32,11,4,-7,-1
1523149943843456,-1,1,-12,-28,-9,-7,-14,2
1523149943852480,0,2,8,-15,9,5,14,-4
1523149943852480,-4,-15,-12,26,-12,-6,-5,-7
1523149943867536,3,6,8,-39,3,1,3,2
1523149943867536,-2,4,-3,47,0,2,-4,1
1523149943869229,-1,-2,1,-61,1,-4,-12,0
1523149943869229,-1,0,-26,-17,-13,0,1,8
1523149943889788,0,4,-7,-14,-2,-3,2,-1
1523149943889788,1,-1,12,6,6,0,7,1
1523149943891583,-1,-2,-19,-46,-9,-6,-11,-5
1523149943891583,-1,-5,5,-5,3,2,22,8
1523149943912342,1,9,-4,13,1,2,6,2
1523149943912342,-3,-11,3,-8,1,-1,-8,-9
1523149943913643,-3,-5,-8,-12,-4,-2,-26,-11
1523149943913643,0,3,1,-12,0,1,14,4
1523149943927386,0,-1,-5,-13,-2,2,9,10
1523149943927386,1,3,10,1,5,-1,3,-4
1523149943928682,-4,-3,0,32,-4,-1,-6,2
1523149943928682,0,-5,-2,4,6,1,-7,-6
1523149943949945,1,2,2,-1,1,0,-3,2
1523149943949945,-1,-1,-7,-18,-6,-3,1,1
1523149943951243,-2,-3,6,26,0,1,11,2
1523149943951243,-2,1,6,-4,2,-1,-4,-9
1523149943972510,-1,-1,-9,4,-5,-4,1,-1
1523149943972510,0,-1,-1,5,2,-1,12,1
1523149943973803,1,6,-2,-2,-2,-3,0,2
1523149943973803,0,-4,3,7,0,0,8,-3
1523149943987545,1,-2,-5,-10,-2,-4,-24,-13
1523149943987545,1,-2,-4,-6,-1,2,10,26
1523149943988842,-2,4,1,3,1,1,8,1
1523149943988842,-5,14,-1,-4,0,-3,-11,-18
1523149944017203,0,-14,2,6,-1,-6,-7,2
1523149944017203,1,1,1,-6,0,3,11,-4
1523149944019222,3,-7,5,4,0,0,-2,8
1523149944019222,-5,7,-5,0,0,0,-3,13
1523149944032451,1,-2,0,-2,-2,-1,-14,-7
1523149944032451,28,11,0,1,1,0,-7,4
1523149944033748,-52,-13,-4,-5,-5,-3,-5,-22
1523149944033748,-9,-18,-1,-1,-4,-5,-16,3
1523149944046949,-7,6,0,-1,-1,-1,1,-36
1523149944046949,-2,-4,-2,-3,2,-1,-6,-25
1523149944053301,26,5,1,6,3,1,-2,34
1523149944053301,-4,0,3,-2,0,-2,-11,-49
1523149944071531,8,3,-2,-2,-4,-3,8,23
1523149944071531,-12,-1,1,-1,-5,-4,-4,-9
1523149944072852,-17,1,-1,-2,2,2,35,10
1523149944072852,20,1,2,3,2,2,0,35
1523149944092403,4,0,-2,-3,-2,-3,-9,-31
1523149944092403,-1,2,-1,1,3,2,-3,37
1523149944093909,-8,-7,-7,-1,-2,-6,-13,-52
1523149944093909,-17,-7,1,-3,-3,-4,-1,25
1523149944106648,-7,4,1,-1,0,0,-6,-44
1523149944106648,0,-5,-3,-4,-3,-6,-24,-5
1523149944113459,14,1,-2,3,0,1,1,11
1523149944113459,7,4,1,3,1,2,16,1
1523149944130049,-1,5,1,-2,-2,0,12,5
1523149944130049,-5,-7,-5,-3,-5,-4,-5,9
1523149944131715,10,0,-1,-3,-1,-1,0,3
1523149944131715,-3,-1,2,1,1,2,1,-16
1523149944152277,-3,-2,-1,-1,-3,-1,-7,35
1523149944152277,-6,-5,-4,-2,0,1,24,4
1523149944153567,0,0,0,-1,-4,-3,5,-6
1523149944153567,5,0,1,-1,0,-4,-21,12
1523149944166601,-2,2,-2,0,1,3,19,1
1523149944166601,-5,-6,-1,-2,-2,-5,-30,-20
1523149944173719,4,-1,4,-1,1,-3,-18,-10
1523149944173719,2,6,4,27,1,3,11,9
1523149944189871,1,-17,-13,-65,-5,4,12,23
1523149944189871,-7,9,-11,-5,-10,-7,-12,2
1523149944191166,-5,-23,-1,2,2,0,-6,-32
1523149944191166,1,-1,16,2,9,0,-6,-18
1523149944212443,-5,-1,-21,7,-9,-7,-9,5
1523149944212443,-2,5,-5,-65,-3,0,5,-12
1523149944213738,6,14,-16,19,-9,-4,-2,13
1523149944213738,0,-15,2,-20,3,-3,-6,-5
1523149944226867,-2,8,30,88,10,4,-2,2
1523149944226867,-5,-25,-26,-37,-3,-5,-4,4
1523149944233290,4,2,-20,1,-13,-2,2,13
1523149944233290,-1,11,8,23,-1,0,18,-15
1523149944250044,4,6,2,8,3,-1,-3,5
1523149944250044,-2,6,10,4,-2,-1,0,-20
1523149944251586,0,-7,20,50,9,3,-15,5
1523149944251586,-2,-7,-16,-55,-6,-1,0,5
1523149944272353,1,-3,8,42,3,0,-8,-3
1523149944272353,1,12,14,27,7,2,-1,-13
1523149944274187,-1,-14,-9,-20,-9,-3,3,17
1523149944274187,0,0,2,28,1,2,25,-10
1523149944286889,-5,-3,1,16,3,3,4,3
1523149944286889,-3,-11,-18,-35,-5,-2,-4,1
1523149944293748,1,13,11,12,8,0,-6,5
1523149944293748,-1,-4,-6,-24,-10,-5,-11,-5
1523149944309744,-3,2,22,-31,7,-2,-4,-3
1523149944309744,1,-3,-14,84,-1,2,10,7
1523149944311248,1,-1,1,-38,-4,-3,7,0
1523149944311248,2,-3,6,20,2,0,-8,2
1523149944332326,1,-4,-23,-38,-4,0,15,6
1523149944332326,0,19,24,-14,6,2,1,6
1523149944333810,0,-12,9,40,6,3,10,-10
1523149944333810,-3,1,-27,-50,-10,-6,-9,-11
1523149944345847,2,-7,5,14,-2,-1,-8,11
1523149944345847,2,0,15,31,10,4,16,3
1523149944354879,-7,-14,-19,-54,-5,-2,-11,-19
1523149944354879,-1,3,26,23,8,1,-8,4
1523149944369953,0,-7,-21,26,-9,-3,-9,-11
1523149944369953,0,-1,-2,-20,-8,-2,5,12
1523149944371413,3,9,10,4,4,1,-9,-21
1523149944371413,1,0,-8,8,1,0,1,3
1523149944392548,-2,1,-3,-37,-9,-8,-18,-1
1523149944392548,-6,-3,10,46,2,0,-3,-7
1523149944394052,0,5,-12,-66,-8,-3,-5,9
1523149944394052,0,-4,15,46,5,-1,2,0
1523149944406155,-2,5,-20,-64,-6,-1,5,-3
1523149944406155,3,-6,17,-24,1,0,-3,-1
1523149944414605,-2,5,-25,-13,-9,-1,10,14
1523149944414605,-12,-10,-16,-13,-3,-2,-3,-20
1523149944429752,1,-6,9,1,3,0,1,-1
1523149944429752,-1,33,-11,-19,-4,-4,1,-1
1523149944431152,-5,-44,12,9,2,-5,-3,-9
1523149944431152,2,13,-4,-11,0,2,4,14
1523149944452312,-3,1,1,21,4,3,-1,7
1523149944452312,-4,-7,-6,-15,-7,-2,14,-27
1523149944453711,5,23,2,22,3,3,2,11
1523149944453711,-3,-6,-10,6,-6,-3,-16,-3
1523149944466242,-5,-10,5,-4,0,-3,5,-7
1523149944466242,0,-5,-4,6,0,-1,-3,8
1523149944474765,1,11,2,2,-1,-3,-8,-8
1523149944474765,-2,-12,-7,-12,-3,1,10,-2
1523149944489916,2,6,6,10,3,0,2,6
1523149944489916,0,-7,1,1,-2,-1,-4,-3
1523149944491310,0,3,-4,3,-2,-2,-8,12
1523149944491310,-3,-2,4,1,-1,0,-4,-29
1523149944512472,1,4,3,-4,-1,-1,-1,3
1523149944512472,-4,-14,-12,4,-2,-4,-2,-2
1523149944513870,2,0,7,-1,3,-1,-4,15
1523149944513870,1,5,-5,-3,0,-4,-10,-8
1523149944526009,4,1,-1,-2,-2,0,5,-2
1523149944526009,-2,-12,-1,-1,-2,-1,1,38
1523149944534925,-4,2,-4,2,0,0,2,-14
1523149944534925,-9,-4,-4,-5,-3,-4,-7,-14
1523149944549965,-9,-3,-6,-2,-3,-2,15,-6
1523149944549965,6,2,7,9,4,1,-1,-16
1523149944551469,7,9,1,1,1,0,0,25
1523149944551469,-1,-11,-5,-3,-3,-1,12,19
1523149944572525,3,6,4,-1,-4,-2,-10,-11
1523149944572525,2,-2,-9,1,2,2,-4,7
1523149944574029,3,2,1,0,1,1,-9,6
1523149944574029,-7,-8,-2,-6,-3,-1,8,5
1523149944586122,1,2,0,1,-5,-9,-39,-35
1523149944586122,10,-4,-3,-2,0,3,42,40
1523149944595087,0,-6,1,0,2,3,-5,-50
1523149944595087,-39,3,2,3,0,2,-6,-34
1523149944609625,9,3,-3,-2,1,-2,-8,27
1523149944609625,-7,-8,-2,-2,-6,-5,-20,-6
1523149944611129,-1,-4,2,-2,-4,-5,6,-53
1523149944611129,4,4,1,-1,0,-1,-3,31
1523149944632290,-2,-5,-5,1,3,2,3,-18
1523149944632290,-3,1,0,2,5,6,-7,-35
1523149944633690,-2,-1,1,2,-1,-1,11,32
1523149944633690,12,1,2,-1,-2,-2,-4,5
1523149944646221,-2,2,-5,-1,-2,-1,-22,16
1523149944646221,4,-3,1,0,-1,5,32,2
1523149944654744,-3,5,-2,-4,-4,-5,-15,-4
1523149944654744,0,4,0,3,0,0,2,-4
1523149944669904,3,0,3,-1,3,2,9,18
1523149944669904,-6,-6,-5,13,-2,-3,-30,-3
1523149944671289,1,2,0,-4,-4,-1,27,8
1523149944671289,8,7,-1,-2,-1,-6,-5,-6
1523149944691342,-2,-3,6,15,8,6,14,-5
1523149944691342,-9,-2,-14,-34,-12,-7,-18,-16
1523149944692345,-4,-8,9,6,7,3,-1,13
1523149944692345,8,0,-15,-4,-9,0,15,38
1523149944713903,-3,-3,-10,-3,-8,-4,30,6
1523149944713903,2,20,14,4,5,-1,7,-6
1523149944714905,-5,-13,-11,1,4,-2,-15,11
1523149944714905,0,3,35,29,-6,-5,4,-11
1523149944728942,6,3,-19,-14,9,13,12,-6
1523149944728942,1,13,-10,-78,-6,-2,-13,4
1523149944729947,-4,-17,-18,26,-2,1,-9,1
1523149944729947,-1,-15,12,57,8,5,6,0
1523149944751502,-8,-12,7,-67,-9,-10,4,12
1523149944751502,0,12,14,33,5,-4,-31,-21
1523149944752505,3,16,12,33,12,15,11,8
1523149944752505,8,12,14,-44,8,1,-4,16
1523149944774061,-1,-9,-36,-8,-11,-1,-4,-15
1523149944774061,-3,-5,2,43,-2,-2,-21,-9
1523149944775065,-2,9,15,17,-7,-6,53,-4
1523149944775065,-2,-21,-8,-13,-3,-8,-18,-8
1523149944789209,-1,18,-2,-23,-7,-4,-13,-1
1523149944789209,-3,-5,16,22,4,-1,-2,-1
1523149944790105,-5,-7,-4,-23,1,0,-17,-6
1523149944790105,3,4,-14,-47,-7,0,2,9
1523149944819792,-1,6,7,33,6,2,2,-7
1523149944819792,-4,-9,-2,15,-5,-4,19,-10
1523149944820686,-1,6,15,-13,0,-3,1,-4
1523149944820686,0,5,-30,-9,1,2,-1,0
1523149944834326,-3,-6,13,11,4,-1,-8,3
1523149944834326,-4,-9,-19,0,-9,-3,-12,9
1523149944834724,-2,-1,4,-23,-2,-4,-6,-7
1523149944834724,2,-6,-7,2,4,4,-2,-7
1523149944848762,-3,-3,-14,5,-6,-4,-8,12
1523149944848762,-3,-1,16,32,10,1,7,-23
1523149944849764,-2,3,-1,-12,-2,0,1,9
1523149944849764,0,0,20,50,-3,0,-9,2
1523149944871883,0,-6,8,-13,-1,-3,18,8
1523149944871883,-3,-5,-30,8,3,-1,-3,-2
1523149944872388,2,7,0,-18,-2,-1,5,-3
1523149944872388,-1,-3,-7,-6,-11,-3,-3,-4
1523149944894052,0,-1,18,8,7,0,-5,-6
1523149944894052,4,3,7,-4,1,4,15,7
1523149944894950,-2,-1,-10,9,-2,-1,-12,-6
1523149944894950,-1,-2,-8,-22,-2,-4,-2,-7
1523149944908988,1,0,6,21,1,-1,-14,8
1523149944908988,-1,0,5,28,-1,1,1,10
1523149944909990,-3,-4,-28,-87,-8,-3,2,1
1523149944909990,-3,-8,9,39,5,3,1,0
1523149944931547,0,5,0,4,0,-1,-19,-10
1523149944931547,1,-5,3,28,1,3,12,20
1523149944932551,1,-1,15,15,-1,-1,-7,4
1523149944932551,0,9,2,-23,1,-2,3,-8
1523149944954220,-7,-13,-30,-13,-14,-6,4,-16
1523149944954220,0,-2,2,-19,-2,-2,-13,0
1523149944954608,-2,-8,-4,20,-2,0,-3,-7
1523149944954608,0,4,-8,-15,2,3,-1,1
1523149944969253,0,3,10,25,5,5,6,3
1523149944969253,-2,6,-4,-35,-6,-4,-4,2
1523149944969648,0,4,-6,13,-5,-4,-1,2
1523149944969648,0,-2,3,7,2,-1,-3,0
1523149944991708,-5,-10,12,-3,-1,-3,-6,-5
1523149944991708,2,-2,-7,-16,-3,1,29,5
1523149944992208,-2,-8,-5,1,-2,-2,-8,3
1523149944992208,2,7,0,0,-3,-2,-7,-8
1523149945013870,-3,1,-4,3,-3,-3,7,10
1523149945013870,-7,-19,-8,-21,-5,-1,7,-9
1523149945014768,-1,-3,2,18,4,2,-6,-2
1523149945014768,3,4,-5,-9,-1,-2,-10,-4
1523149945029306,2,3,-3,0,-2,-2,-1,-5
1523149945029306,1,2,4,-2,2,-1,-24,-5
1523149945029809,2,2,-3,4,-2,1,13,17
1523149945029809,-7,-7,-8,-4,-2,-2,-1,-17
1523149945051866,1,5,1,-3,0,-1,-27,-1
1523149945051866,-1,-7,3,-6,-2,0,4,-13
1523149945052368,-3,0,-6,2,-2,-4,-23,-4
1523149945052368,-4,-6,-7,-6,-2,-3,11,17
1523149945073926,-2,3,0,6,-1,-1,-5,-8
1523149945073926,2,8,0,-8,0,1,32,-11
1523149945074929,1,-8,-2,3,0,-1,-6,14
1523149945074929,2,2,1,0,-1,-1,-1,-14
1523149945088967,15,7,5,0,0,2,24,22
1523149945088967,24,-3,-2,-4,-2,0,-20,54
1523149945089967,-84,-20,-8,-2,-2,-3,17,-82
1523149945089967,3,4,2,3,1,2,-4,55
1523149945111524,1,-4,0,-3,-2,-5,-8,-67
1523149945111524,11,-7,-3,-5,-1,0,-5,8
1523149945112528,27,18,1,1,-4,-3,4,69
1523149945112528,-9,-17,2,-1,1,-2,-4,-24
1523149945134084,12,-3,-1,1,1,0,9,53
1523149945134084,-25,-21,-6,-4,-2,-2,13,-37
1523149945135087,-8,6,0,-2,-1,-3,-6,-8
1523149945135087,-15,0,-4,-2,-3,-4,-8,-54
1523149945149124,14,-2,-1,-3,0,-1,-7,20
1523149945149124,6,4,0,0,-1,-4,-1,7
1523149945149626,9,-8,1,2,1,4,-11,14
1523149945149626,6,10,-2,-1,1,1,-1,12
1523149945171684,-4,-5,-2,2,1,4,1,-3
1523149945171684,-20,5,4,9,3,2,-12,-22
1523149945172186,9,1,-3,14,-3,-2,-1,-11
1523149945172186,9,0,-16,-56,-10,-5,-5,10
1523149945194246,-13,-3,1,3,-2,-3,-11,-17
1523149945194246,-5,-1,-6,-1,2,1,4,12
1523149945194748,15,6,18,20,6,2,0,-1
1523149945194748,-3,-7,6,45,6,2,-5,-3
1523149945208784,-13,-4,-14,-26,-11,-5,7,12
1523149945208784,-1,4,6,6,-3,-2,-3,6
1523149945209787,11,7,18,-30,12,3,1,-15
1523149945209787,-2,-5,2,54,-9,-6,-15,-9
1523149945231366,-8,-1,5,27,3,-1,-10,-6
1523149945231366,4,3,9,19,10,6,11,5
1523149945232398,6,-2,9,4,1,3,5,-6
1523149945232398,-3,5,-14,-7,-14,-6,-3,5
1523149945253905,0,0,19,28,4,3,21,-1
1523149945253905,-3,-10,-36,-34,-10,-3,-6,1
1523149945254908,0,8,0,40,6,0,0,-14
1523149945254908,1,-5,10,-15,6,1,17,-2
1523149945268944,0,4,-19,-16,0,1,1,11
1523149945268944,2,-3,-26,-94,-10,-4,-3,0
1523149945269947,-5,0,29,85,0,-5,-12,3
1523149945269947,-11,-23,-46,-102,-16,-11,-2,-44
1523149945291504,-4,-6,-4,22,2,3,-12,-9
1523149945291504,-1,7,28,119,1,-4,-24,4
1523149945292506,5,-1,-23,-64,-5,3,2,23
1523149945292506,5,8,16,9,7,2,18,20
1523149945314113,-5,-2,-6,18,4,0,9,1
1523149945314113,0,3,13,-17,5,2,-18,-2
1523149945314616,1,-2,-8,-13,-9,-3,-13,-4
1523149945314616,0,3,4,1,1,2,18,11
1523149945329154,-3,2,16,39,-1,-5,-29,-9
1523149945329154,1,11,6,-15,8,3,15,-1
1523149945329656,4,-2,3,50,7,4,6,3
1523149945329656,-11,-19,-76,-59,-43,-14,-7,-10
1523149945351954,1,20,35,73,10,0,-11,1
1523149945351954,-3,-12,-5,41,-5,-4,2,7
1523149945352216,2,1,14,-54,5,3,-2,3
1523149945352216,0,-4,-2,-40,3,0,-12,-11
1523149945374277,-5,-6,-27,-74,-13,-4,0,-10
1523149945374277,-3,-1,11,51,-6,-8,-6,-22
1523149945375282,-1,-5,-31,-15,-4,-4,-26,-12
1523149945375282,3,7,20,23,8,3,-10,7
1523149945404856,-1,-8,-2,-24,-2,-1,12,-5
1523149945404856,2,9,23,12,15,9,6,2
1523149945405357,-4,3,-11,-28,-14,-10,-12,-2
1523149945405357,-3,-12,20,22,2,0,-3,3
1523149945411599,-1,-9,-12,-38,1,-3,-1,-9
1523149945411599,2,-3,-9,-27,-3,-2,-10,4
1523149945412376,-3,2,-19,-38,-15,-8,-7,-4
1523149945412376,5,10,22,54,17,11,20,13
1523149945434434,-3,-7,9,28,0,0,4,-6
1523149945434434,-2,7,-23,-73,-5,-5,-4,-2
1523149945434935,-1,-13,15,65,2,0,7,0
1523149945434935,-3,-5,-37,-65,-8,-5,-5,2
1523149945448471,-2,-2,3,2,1,-2,-2,0
1523149945448471,-1,-2,-4,-9,-1,0,16,-1
1523149945456720,0,2,-6,-3,-2,-3,8,1
1523149945456720,1,4,15,16,5,3,-13,2
1523149945471820,-1,-1,-5,-19,0,0,8,-3
1523149945471820,-2,0,5,31,-3,-3,-8,-4
1523149945472324,-2,-13,-5,-21,-2,-2,8,-5
1523149945472324,1,9,21,54,7,3,-6,4
1523149945494075,0,-1,-7,-22,-3,-1,9,7
1523149945494075,-2,5,12,11,0,0,-5,1
1523149945494885,-2,-4,-11,1,-4,-2,7,-9
1523149945494885,4,2,4,2,3,0,-9,25
1523149945508421,-4,-1,10,5,2,1,11,-21
1523149945508421,-5,-10,-17,-13,-5,-4,-1,3
1523149945516597,1,3,-7,1,-1,3,6,-1
1523149945516597,-2,0,8,13,6,0,19,11
1523149945531514,1,0,-6,-9,-4,-2,5,12
1523149945531514,-1,-1,4,0,-4,-4,-6,-10
1523149945532484,2,0,0,-9,-1,-2,-11,-10
1523149945532484,9,3,8,15,5,5,34,29
1523149945554197,13,-7,-10,-4,-5,1,0,30
1523149945554197,-68,-11,-6,-14,-5,-6,-10,-99
1523149945555044,5,-1,4,5,4,2,-6,7
1523149945555044,2,-1,4,10,1,1,-10,5
1523149945568645,11,4,-3,-4,-1,-1,13,10
1523149945568645,6,2,0,-2,-1,0,4,8
1523149945576758,3,-1,3,-4,0,1,-3,26
1523149945576758,-5,-1,1,9,-3,-2,3,-14
1523149945591843,-1,-2,-2,-7,0,1,-11,11
1523149945591843,15,0,2,3,0,-1,-5,-16
1523149945592348,-14,0,1,1,-2,2,12,-22
1523149945592348,10,5,9,-1,1,-1,-17,13
1523149945614406,-7,-4,-2,-2,-6,-5,-7,-28
1523149945614406,10,-2,-2,0,4,7,13,67
1523149945614907,0,1,-2,0,0,1,12,-28
1523149945614907,11,3,1,2,-1,-2,-1,2
1523149945628599,-36,-6,-5,-3,-2,-5,-16,-32
1523149945628599,26,6,-1,0,0,1,-5,13
1523149945636620,-26,-2,1,-1,0,-2,-1,5
1523149945636620,0,-2,-2,2,1,-2,-14,-38
1523149945651664,-1,2,0,2,1,3,10,-4
1523149945651664,9,-5,-5,-8,-5,-2,-4,18
1523149945652507,4,0,-6,-2,-3,-4,5,3
1523149945652507,-3,3,5,8,5,9,24,-14
1523149945682427,8,1,-2,3,-4,-3,-8,24
1523149945682427,-1,-3,-4,0,-3,-3,-11,-4
1523149945683367,2,-1,9,3,7,4,6,10
1523149945683367,-5,10,-24,22,-11,-5,-8,-4
1523149945688283,4,6,9,-19,3,-1,-13,-1
1523149945688283,-11,-14,-6,8,-3,-5,18,-18
1523149945696806,-3,-6,-33,-29,-16,-9,-19,-13
1523149945696806,5,6,19,35,13,5,14,13
1523149945711888,-3,5,18,14,7,4,-2,-4
1523149945711888,-7,-10,-44,-62,-15,-7,-12,-2
1523149945712393,12,28,45,32,16,3,-17,8
1523149945712393,-10,-46,-2,-51,-4,-6,3,-20
1523149945734105,-5,-6,-21,45,-14,-2,20,12
1523149945734105,-1,-6,2,-68,-2,-5,-16,-7
1523149945734952,3,-5,-1,62,6,7,11,19
1523149945734952,-6,11,0,-25,-4,-5,-33,-16
1523149945757011,3,10,22,27,16,5,15,-3
1523149945757011,5,5,27,41,6,-2,-19,6
1523149945758014,0,7,-7,22,-15,-8,8,4
1523149945758014,-6,0,-33,-15,-5,-1,-6,7
1523149945771705,-3,-23,-24,-46,-13,-5,8,9
1523149945771705,1,10,30,46,24,10,18,-21
1523149945772675,-5,-12,-69,-112,-42,-10,-11,-13
1523149945772675,-5,0,26,43,7,-1,5,0
1523149945794266,16,5,-7,54,-1,-2,-4,-1
1523149945794266,-15,-1,22,27,3,1,6,13
1523149945795174,6,0,31,19,20,5,7,-6
1523149945795174,-6,8,-15,-1,-14,-6,-6,-17
1523149945817326,-4,-8,2,-23,0,-2,-9,-6
1523149945817326,5,0,2,14,2,4,6,7
1523149945818191,0,-2,16,15,10,1,-5,-7
1523149945818191,-5,-6,-58,-112,-35,-9,25,3
1523149945831866,-3,-4,25,30,8,0,-4,-3
1523149945831866,7,32,-4,28,-3,4,3,10
1523149945832371,-11,-58,-6,-42,3,-2,0,-2
1523149945832371,2,-5,15,36,5,-1,9,11
1523149945854088,-2,9,-1,-24,-7,-7,-20,-9
1523149945854088,-1,-8,-35,-45,-12,-2,4,-1
1523149945854930,5,14,14,14,8,2,-10,0
1523149945854930,0,4,18,34,10,3,-4,-3
1523149945877548,-7,-18,-19,-40,-6,-4,-14,-5
1523149945877548,4,2,5,71,-3,-1,3,11
1523149945877991,0,15,-8,2,-1,-3,-1,2
1523149945877991,0,-2,20,74,6,2,-8,8
1523149945891527,0,12,10,-60,-2,1,8,2
1523149945891527,-3,-15,-23,-23,-13,-9,-8,-14
1523149945892532,-2,-5,-13,0,-1,1,-10,6
1523149945892532,-2,2,15,26,4,2,16,3
1523149945914247,3,13,11,29,7,4,-4,-4
1523149945914247,0,-6,3,-2,2,0,-5,0
1523149945915176,-2,-2,1,-2,-4,-2,13,-6
1523149945915176,-2,1,-6,-31,1,0,-30,-10
1523149945937495,1,-4,-5,0,-3,0,6,1
1523149945937495,-3,-3,-8,-18,-3,-3,-6,-2
1523149945937837,0,12,3,5,1,0,2,-1
1523149945937837,-2,-19,4,-7,3,1,-6,-5
1523149945960054,-3,4,-6,1,-2,-1,-1,-4
1523149945960054,-1,-7,2,0,-4,-3,10,-2
1523149945960395,0,3,3,7,1,-1,-4,1
1523149945960395,-1,2,1,-3,1,-3,3,0
1523149945974435,-2,-5,-15,-2,-2,-3,-12,-7
1523149945974435,0,3,3,-7,2,3,-4,2
1523149945981452,4,-3,3,0,-2,0,23,-2
1523149945981452,1,1,-3,-12,-1,0,-1,2
1523149945997520,0,-2,-4,0,-1,-1,8,11
1523149945997520,1,4,4,0,1,0,-14,2
1523149945997997,-4,-3,2,-4,-2,0,9,-11
1523149945997997,1,0,-2,-4,-2,-1,-8,0
1523149946011733,1,0,-2,4,0,1,1,-6
1523149946011733,2,-2,0,0,0,0,2,10
1523149946012739,3,-1,-3,-1,-3,-2,-10,8
1523149946012739,15,7,3,-5,3,2,16,31
1523149946034349,-14,-4,-3,1,-2,-1,0,-44
1523149946034349,-3,-7,-4,-8,-4,-2,3,5
1523149946034798,-23,-5,-1,1,-2,-1,-5,-2
1523149946034798,-3,3,1,-2,-1,-3,-10,25
1523149946057358,13,-3,-4,-5,-4,-7,-6,-14
1523149946057358,32,14,8,3,3,5,11,-8
1523149946058374,-15,-1,-2,6,6,8,9,32
1523149946058374,-19,-5,-4,-3,-3,-4,-17,-41
1523149946071555,-14,0,0,-1,-2,-1,-8,-54
1523149946071555,13,-5,-5,-2,0,1,7,48
1523149946072399,-3,2,2,1,2,3,-1,-50
1523149946072399,-13,1,-1,-3,-2,-1,-10,37
1523149946093955,5,-5,-3,-4,-4,-2,3,13
1523149946093955,-12,-1,0,-5,-7,-6,-8,-31
1523149946094962,19,1,-1,-1,-1,-3,-9,23
1523149946094962,-5,-2,-1,1,1,-1,-8,-18
1523149946117516,-3,-1,-1,4,6,4,-9,-9
1523149946117516,-8,-5,1,-3,-3,0,9,25
1523149946118018,7,2,13,-2,-8,-10,-4,10
1523149946118018,0,-4,-38,-12,-3,-3,-7,-25
1523149946131561,4,1,7,8,3,1,3,26
1523149946131561,-14,-4,-10,-13,-5,-2,-7,-15
1523149946132556,0,0,5,4,0,1,-6,-5
1523149946132556,4,3,9,2,0,1,1,-9
1523149946154115,2,-1,-7,-6,-3,-1,7,17
1523149946154115,-7,0,14,4,7,2,1,-6
1523149946154617,-1,-2,3,20,-4,-2,-6,-14
1523149946154617,6,-3,12,-2,3,-1,-6,5
1523149946177370,-3,0,5,68,0,1,15,20
1523149946177370,-6,-7,-28,-61,-15,-12,-22,-28
1523149946178373,3,0,19,36,6,3,-3,2
1523149946178373,3,12,17,38,6,7,13,5
1523149946191893,-2,-2,-18,5,-7,-7,-16,3
1523149946191893,-4,-16,7,13,3,-1,-6,-11
1523149946192398,3,2,-2,-22,0,-3,4,4
1523149946192398,0,3,0,-11,3,2,1,-6
1523149946214153,-2,0,-11,-18,-4,-4,8,12
1523149946214153,2,14,-20,-51,-7,-1,5,3
1523149946214958,-5,-28,-10,6,-1,-1,-1,-1
1523149946214958,1,-2,-4,-41,-3,0,3,-6
1523149946237217,2,2,-2,-34,5,1,-6,6
1523149946237217,1,10,-1,60,-3,1,26,4
1523149946238019,5,6,8,-10,2,-1,-8,12
1523149946238019,-1,14,-5,24,-9,-7,0,-25
1523149946251794,-9,-60,1,1,1,-1,-6,-11
1523149946251794,-1,2,25,55,14,6,-8,21
1523149946252800,-5,-3,-47,-20,-21,-9,6,-8
1523149946252800,4,4,25,2,0,-3,-10,0
1523149946273866,3,13,-7,-9,-2,1,2,10
1523149946273866,-1,-1,4,4,6,1,1,-9
1523149946274874,2,6,13,12,8,3,1,0
1523149946274874,-2,-7,-12,1,0,0,3,4
1523149946297541,1,12,4,-19,-12,-6,-6,2
1523149946297541,-1,-8,22,11,9,4,-4,-2
1523149946297919,-5,-1,-26,-25,-10,-10,-46,-8
1523149946297919,-4,-2,-26,-45,-3,-2,23,-3
1523149946311649,1,-3,22,61,5,0,-11,11
1523149946311649,2,4,6,-45,0,-1,-13,2
1523149946312459,-7,-5,-16,-17,-13,-5,11,3
1523149946312459,-2,-10,-7,-26,-5,-2,-4,-15
1523149946334216,3,15,15,12,3,-2,-1,5
1523149946334216,-1,-2,0,7,-2,-3,-8,-8
1523149946335025,2,1,-3,-7,8,2,12,12
1523149946335025,-2,-3,6,24,0,0,-8,6
1523149946357078,-2,-4,-24,-28,-11,-3,9,-2
1523149946357078,-3,4,-16,-42,-13,-9,-7,-8
1523149946358080,1,-3,7,-32,0,0,20,6
1523149946358080,-1,9,-10,19,-1,0,13,6
1523149946371238,-1,-22,12,-6,8,5,-15,-15
1523149946371238,0,1,13,44,4,4,3,11
1523149946379333,-1,0,-18,-15,-1,-2,0,-9
1523149946379333,2,3,9,21,-7,-5,-11,-4
1523149946394175,-1,5,-11,-33,-3,-2,3,-2
1523149946394175,-5,-6,-13,3,-3,-2,-1,-6
1523149946394677,1,7,6,11,0,-1,-1,-4
1523149946394677,1,-4,21,24,12,5,-3,6
1523149946416428,0,4,-13,4,-14,-1,2,-2
1523149946416428,0,-10,-8,1,-2,-1,4,-4
1523149946424389,0,5,10,28,-1,-4,-9,-7
1523149946424389,1,-7,0,-18,0,-4,-8,-2
1523149946430967,0,4,-2,-3,4,4,23,7
1523149946430967,-1,2,4,1,1,0,13,-6
1523149946438988,0,2,15,62,2,3,1,-2
1523149946438988,-2,-4,-9,-60,-6,-1,-11,-3
1523149946454256,0,4,3,-1,-1,-4,-11,-10
1523149946454256,-2,2,-5,6,-3,0,20,8
1523149946455054,-5,-20,4,3,2,0,0,-1
1523149946455054,2,3,-9,8,-3,-3,-2,1
1523149946477307,1,21,3,-2,0,-1,-4,-2
1523149946477307,-1,-19,-4,-2,0,-2,-5,6
1523149946478115,1,11,-2,-11,1,-2,-19,-5
1523149946478115,-2,-10,-1,2,-3,0,15,3
1523149946490648,-1,2,-3,-6,0,-1,-5,4
1523149946490648,2,4,-1,7,-3,0,-9,-4
1523149946499366,-2,1,-3,-18,-1,0,-7,5
1523149946499366,-4,-11,-2,7,-3,-1,-4,-23
1523149946514783,0,1,3,6,1,0,-1,5
1523149946514783,7,7,-6,-2,-3,0,1,1
1523149946515215,13,0,0,-6,-1,2,0,-8
1523149946515215,27,0,1,2,-2,-2,8,92
1523149946537468,-68,-10,-7,-2,-2,-6,-27,-59
1523149946537468,2,-3,-1,-4,1,2,-11,40
1523149946538388,5,5,-1,-6,0,-2,-15,21
1523149946538388,16,4,1,9,-1,1,12,30
1523149946551308,14,-8,-3,-4,-3,-4,8,19
1523149946551308,-2,4,-2,1,1,0,-9,-18
1523149946559450,-9,-2,2,0,0,2,-6,-23
1523149946559450,3,-1,-4,1,1,0,1,-15
1523149946573909,11,2,6,1,-2,-1,0,14
1523149946573909,-6,0,0,-5,-6,-4,-2,-24
1523149946574874,7,-1,-2,-3,-3,0,18,2
1523149946574874,-14,-5,-9,-2,-3,0,-4,-13
1523149946597572,-7,1,1,-1,0,0,-2,-8
1523149946597572,1,1,18,10,2,-1,-12,2
1523149946597933,17,-5,-26,-16,-5,-6,19,1
1523149946597933,-21,-4,-5,-1,-3,-2,-7,3
1523149946610968,1,-2,-3,1,-2,0,3,-30
1523149946610968,10,2,1,-2,-3,-4,-1,4
1523149946619202,-12,-6,2,2,1,-2,-2,2
1523149946619202,2,3,6,4,2,3,2,0
1523149946634266,15,3,0,-1,0,1,7,22
1523149946634266,-8,-5,-4,-5,-2,-2,1,-4
1523149946635031,-8,-2,2,-4,-4,-3,-5,-1
1523149946635031,-4,1,-2,-1,3,-1,-13,-28
1523149946657592,2,-3,0,-1,4,4,20,12
1523149946657592,0,-1,-10,-9,-1,-1,5,0
1523149946658094,-9,1,15,-3,5,1,-4,-5
1523149946658094,-3,-5,-25,-22,-14,-5,-24,3
1523149946670859,5,-1,4,7,3,2,6,-21
1523149946670859,-5,1,-1,10,-2,-1,5,-1
1523149946679149,-3,-7,2,-8,1,0,-1,0
1523149946679149,-5,-4,22,63,-4,-9,-8,-11
1523149946694189,4,-4,-38,-77,-10,-6,-6,15
1523149946694189,-3,6,-11,-10,2,3,2,0
1523149946695255,-1,9,24,22,9,4,4,-5
1523149946695255,3,-1,21,35,10,5,5,-4
1523149946717300,-2,-11,-5,41,-16,-9,-20,6
1523149946717300,-4,1,7,-19,0,-3,4,-8
1523149946718347,-3,-2,4,55,0,2,16,5
1523149946718347,-5,9,-50,-101,-32,-14,-6,-9
1523149946739861,2,-24,2,8,10,4,-3,12
1523149946739861,-3,1,6,35,0,0,-4,-13
1523149946740362,-1,11,30,41,13,5,-7,3
1523149946740362,-3,-2,-19,-22,-1,5,17,-2
1523149946754135,8,11,9,-6,4,-1,1,2
1523149946754135,1,7,-19,3,-14,-9,-12,7
1523149946754924,-3,-10,-10,-66,9,3,10,3
1523149946754924,-2,0,26,115,4,1,4,-3
1523149946777589,-2,-9,2,-38,-7,-6,-10,3
1523149946777589,5,11,30,18,18,13,23,36
1523149946777961,-2,-21,-38,-44,-33,-9,-9,-20
1523149946777961,-10,-9,-36,-49,4,-2,-4,-8
1523149946800130,-1,23,30,76,9,3,2,-4
1523149946800130,0,-8,-18,-57,-2,-3,-7,4
1523149946800521,4,-8,-12,-30,-11,-4,2,11
1523149946800521,3,15,18,-5,8,2,2,-3
1523149946814401,-3,-15,-12,-25,-10,-3,11,2
1523149946814401,1,0,-6,-41,0,-1,-22,-19
1523149946814858,1,7,-9,-10,-1,3,26,10
1523149946814858,0,-2,8,12,3,0,-3,-2
1523149946837610,-1,11,9,11,7,2,0,2
1523149946837610,-1,-8,0,20,-3,-1,-3,-7
1523149946838065,0,1,-8,-9,-3,-5,-11,-7
1523149946838065,-1,-6,9,2,-1,-2,-2,3
1523149946859863,3,1,5,1,1,1,2,-1
1523149946859863,-5,-10,-7,-5,-4,-4,9,-5
1523149946860866,-5,0,-6,10,-4,-6,-6,-1
1523149946860866,2,-1,9,-12,6,3,1,-8
1523149946874303,2,-5,-7,2,1,-1,-3,2
1523149946874303,-3,0,-9,1,-3,-1,-7,-7
1523149946874804,-2,5,4,1,2,0,1,-2
1523149946874804,-1,-7,6,1,-2,-4,-2,-1
1523149946897601,0,2,6,10,5,7,5,4
1523149946897601,-4,-7,-10,4,-4,-1,2,-8
1523149946897866,0,2,6,14,4,1,-6,1
1523149946897866,0,-1,2,-14,-1,-3,-1,-6
1523149946920108,-2,1,-2,3,-5,-5,-7,2
1523149946920108,0,0,7,9,3,0,-2,0
1523149946920424,-1,2,-3,0,-2,0,-6,1
1523149946920424,-3,-1,6,-1,2,-1,1,-3
1523149946934463,-2,3,-11,-9,-5,-5,-3,-4
1523149946934463,-2,-4,-2,6,-2,-2,3,0
1523149946934965,0,-3,2,-7,4,2,-3,1
1523149946934965,-2,-2,5,11,-1,-1,1,2
1523149946957569,-2,-7,-6,5,-4,-3,-7,2
1523149946957569,-2,-1,-4,-14,-6,-3,5,-2
1523149946958025,-2,-1,-6,1,0,1,6,-4
1523149946958025,2,0,-1,-4,5,5,6,12
1523149946979788,-2,0,-3,-8,0,1,6,7
1523149946979788,0,-5,0,10,-1,-2,-8,0
1523149946980608,1,0,4,6,-2,-3,-17,-8
1523149946980608,1,-3,-4,-9,-2,1,9,20
1523149946994453,-4,3,0,-7,1,1,9,-34
1523149946994453,0,1,4,5,-1,-2,-4,2
1523149946994824,1,2,1,2,-1,0,-4,18
1523149946994824,2,1,-4,-4,-4,-2,-10,-16
1523149947017166,11,3,1,-3,-1,2,14,27
1523149947017166,-28,-6,-2,1,-2,-3,11,-29
1523149947018170,11,1,-2,2,-2,0,-6,-9
1523149947018170,22,0,3,-2,-1,-1,4,68
1523149947039727,-43,-3,1,0,-2,0,-7,-69
1523149947039727,9,-3,-2,3,-2,-2,3,-2
1523149947040730,-10,-6,-6,1,-5,-6,-12,20
1523149947040730,12,6,4,-1,2,8,37,-29
1523149947054378,30,1,-1,-2,0,-1,-7,102
1523149947054378,-39,-5,-6,-4,-4,-6,-19,-72
1523149947054765,10,2,13,10,3,2,22,54
1523149947054765,-19,-2,-18,-11,-3,-5,-24,-34
1523149947077326,14,3,-2,-1,-2,-1,12,25
1523149947077326,23,3,3,3,0,1,12,-11
1523149947077827,0,2,2,0,-1,0,-11,-2
1523149947077827,-6,-5,10,3,-1,-4,-14,-24
1523149947100089,-19,-8,-34,-18,-4,-2,18,-7
1523149947100089,2,3,1,4,1,2,-9,3
1523149947100387,-4,0,2,0,-2,-4,-1,-1
1523149947100387,-6,-8,-5,0,-3,-2,-1,-3
1523149947114155,11,4,11,2,0,-2,-15,-7
1523149947114155,9,1,-3,-3,-3,-2,-10,28
1523149947114927,-5,0,-7,-2,-4,-5,-1,-26
1523149947114927,-1,1,1,4,6,4,0,3
1523149947137261,-1,-1,1,0,-3,1,-8,-5
1523149947137261,-1,-3,-2,-1,1,1,0,7
1523149947137763,1,0,-1,2,-1,2,3,-8
1523149947137763,-2,-3,-6,-13,-8,-8,-23,9
1523149947160061,-6,2,6,-1,0,3,16,-43
1523149947160061,3,0,-15,-14,-8,-4,17,21
1523149947160824,-5,-4,-4,-2,0,-4,-2,-14
1523149947160824,-3,-4,0,-4,5,8,15,11
1523149947173358,0,1,16,21,2,-6,-20,-18
1523149947173358,5,8,-11,11,-1,4,0,24
1523149947181616,-3,-5,16,12,2,0,11,-6
1523149947181616,-7,-7,-19,11,-15,-9,-26,-18
1523149947197631,3,4,12,14,4,3,13,6
1523149947197631,5,-4,12,-45,9,1,-4,4
1523149947197924,-2,8,14,68,0,3,-5,-3
1523149947197924,-3,-1,-3,-13,-2,-3,-4,-1
1523149947219743,-2,-1,10,7,2,-1,-14,-3
1523149947219743,-1,-8,-15,-8,-2,1,7,6
1523149947220745,2,-1,22,-27,12,4,3,-1
1523149947220745,0,17,14,38,-1,-2,-2,9
1523149947234438,-2,-3,-48,1,-16,-9,-13,-15
1523149947234438,0,-4,8,-57,9,5,-6,7
1523149947234835,-3,-13,-10,24,-1,2,9,0
1523149947234835,-2,3,17,64,0,-3,-3,-10
1523149947257585,0,5,4,-65,10,5,25,8
1523149947257585,3,3,9,112,-2,-7,-11,-3
1523149947257898,-3,-8,-59,-51,-24,-8,-3,-1
1523149947257898,0,5,-2,9,4,1,-3,5
1523149947279955,0,-8,25,48,6,2,-13,2
1523149947279955,0,11,32,87,16,9,25,-2
1523149947280456,-11,-22,-68,-88,-32,-19,-20,-8
1523149947280456,-2,-1,5,7,6,3,15,-2
1523149947294495,2,-2,3,3,1,1,-13,2
1523149947294495,-2,-5,-6,9,-9,-3,19,14
1523149947294996,-1,11,28,15,12,6,3,12
1523149947294996,0,3,-16,-67,-7,-3,1,1
1523149947317610,0,-4,-17,-19,-3,-4,-7,2
1523149947317610,1,2,6,-25,3,0,-12,-2
1523149947318057,-6,-4,-4,-6,-4,0,4,-14
1523149947318057,2,-5,4,-22,2,-1,-4,5
1523149947339615,-6,8,-3,52,-8,-7,-9,-4
1523149947339615,0,-19,-20,-13,-8,-4,-15,1
1523149947340617,1,5,8,-24,10,6,9,-12
1523149947340617,0,3,6,12,0,2,2,1
1523149947353775,-3,0,-11,-49,-13,-6,-12,-4
1523149947353775,-1,-8,10,20,0,3,19,-4
1523149947361798,0,2,2,-18,6,-1,-21,-15
1523149947361798,2,7,12,30,7,4,22,6
1523149947377338,0,-15,2,74,-11,-2,5,-2
1523149947377338,-4,3,2,-42,0,-1,7,-8
1523149947377840,4,12,16,51,11,5,-2,3
1523149947377840,-2,-9,-20,-19,-11,-6,-4,-6
1523149947400002,0,4,0,-21,-2,-3,-1,0
1523149947400002,0,2,3,9,-1,-4,-16,2
1523149947400400,0,-3,6,22,5,4,3,4
1523149947400400,-2,-5,-3,7,-1,-1,-6,-5
1523149947413434,-2,1,-6,-25,3,-1,-2,0
1523149947413434,-1,3,0,-5,-7,-3,-8,1
1523149947421709,-3,-4,-15,-11,-9,-6,-3,-3
1523149947421709,-3,-6,-3,-34,1,-2,-3,-3
1523149947437489,1,-3,-8,-7,-3,-4,2,2
1523149947437489,-1,3,2,2,3,-2,-11,2
1523149947438256,-1,4,-4,11,-2,0,23,-10
1523149947438256,-1,-2,11,-1,5,2,10,9
1523149947460095,-2,-2,-13,-13,-4,-2,-8,1
1523149947460095,-1,3,-8,-3,-6,-4,-15,-16
1523149947460597,2,-2,10,8,0,-1,4,7
1523149947460597,-2,-3,-7,-20,-4,-2,-4,-7
1523149947473217,0,-6,5,4,7,3,8,1
1523149947473217,-2,-2,-8,-15,-5,-4,-10,9
1523149947481895,-4,-5,5,-9,-3,-1,-10,-29
1523149947481895,2,1,-1,12,-2,-3,-3,-2
1523149947497626,-2,-3,0,-7,0,0,7,28
1523149947497626,-4,5,-5,-7,-1,-2,-2,-35
1523149947497941,3,-1,4,6,3,0,-10,15
1523149947497941,0,-4,-6,1,-2,0,0,-2
1523149947519830,7,4,4,-4,0,0,-5,-1
1523149947519830,6,-5,-4,-16,-5,-2,10,34
1523149947520600,-19,3,6,2,0,-1,1,-12
1523149947520600,25,1,-6,-3,-3,-2,-1,46
1523149947533654,-59,-4,2,-9,2,1,-12,-85
1523149947533654,20,1,0,5,2,2,1,27
1523149947541888,11,2,-2,0,-3,-1,1,-9
1523149947541888,5,-3,-1,-2,-2,-1,6,28
1523149947557198,-17,-3,1,-2,-1,-5,-15,-34
1523149947557198,-8,-3,-2,-1,-3,-1,4,0
1523149947558200,6,4,-1,1,2,-1,-7,12
1523149947558200,8,0,-2,-6,-2,0,5,-18
1523149947579758,32,3,0,1,1,2,6,36
1523149947579758,-13,-1,-2,-3,-2,-2,-8,3
1523149947580760,-5,-7,-3,-4,-3,-2,-1,-12
1523149947580760,-8,-3,-3,2,-3,-2,-8,1
1523149947593572,3,0,1,-3,-4,-3,2,-1
1523149947593572,-4,0,-1,0,1,1,9,-11
1523149947602007,17,1,1,0,-1,2,11,30
1523149947602007,-24,-5,-4,-3,-1,-3,-5,1
1523149947624802,8,-2,0,-1,2,4,6,-5
1523149947624802,10,0,-2,-5,-3,-2,-9,17
1523149947625573,-8,-1,0,0,-4,-6,9,-11
1523149947625573,-4,-2,-6,-4,-4,-2,-6,-25
1523149947639611,10,2,1,3,5,9,4,28
1523149947639611,-7,-2,-2,0,-2,-3,3,-26
1523149947641114,-11,-2,-3,-1,-4,-5,-27,-10
1523149947641114,-3,0,2,1,-2,-4,-1,-11
1523149947662254,5,0,0,-3,-1,-2,-4,22
1523149947662254,-5,-3,0,-1,-1,1,12,2
1523149947663759,1,1,1,-1,-3,-4,-9,-2
1523149947663759,0,-1,-3,-4,-2,-1,-7,-9
1523149947676292,-1,-1,2,-4,1,1,-3,10
1523149947676292,-5,-2,2,8,-1,0,-11,-18
1523149947684814,-4,-2,-1,-8,1,2,7,8
1523149947684814,-4,-1,9,7,0,-1,-5,1
1523149947699854,-1,-3,-18,-27,-8,-4,3,-4
1523149947699854,1,1,2,-12,1,-2,-1,3
1523149947701358,2,3,8,27,8,4,-2,12
1523149947701358,-6,-6,-22,-30,-1,1,-7,-16
1523149947722415,2,6,17,-12,2,-4,-9,2
1523149947722415,-1,-2,-1,66,-4,-6,-7,-2
1523149947723918,-4,-13,-25,-62,-1,3,-1,2
1523149947723918,0,-1,14,25,3,2,2,-9
1523149947736189,0,2,6,15,0,-1,-6,-3
1523149947736189,-2,-7,10,9,1,0,2,2
1523149947745112,-1,3,-6,-10,-9,-7,1,-4
1523149947745112,-2,-1,-12,19,-2,-2,-10,-1
1523149947759886,-2,-1,-15,-98,-7,-1,11,8
1523149947759886,-1,8,12,11,2,-2,-24,2
1523149947761155,-2,-2,4,24,2,1,23,-13
1523149947761155,1,4,25,4,12,3,20,19
1523149947782443,-1,-12,6,93,0,-1,0,4
1523149947782443,-1,-5,-46,-128,-17,-3,5,6
1523149947784217,-2,7,29,64,-1,-5,-14,-18
1523149947784217,-10,-14,-51,-48,-22,-12,-12,-10
1523149947795747,1,2,26,33,12,2,5,-9
1523149947795747,3,-1,11,11,7,4,0,0
1523149947804770,2,4,-2,18,1,2,-7,7
1523149947804770,-3,4,12,-71,0,1,-3,-11
1523149947820008,-1,-4,-8,11,-4,-2,-3,-1
1523149947820008,-2,0,-5,24,-1,-3,1,-2
1523149947821314,0,3,-11,-51,-8,-5,-9,1
1523149947821314,0,3,14,45,3,-1,10,14
1523149947842131,-3,-7,-17,-22,-8,-5,-6,1
1523149947842131,0,0,16,27,10,6,-2,-5
1523149947844138,-2,0,-4,3,2,2,5,8
1523149947844138,1,-8,3,-22,2,-2,-8,-6
1523149947856672,-2,-1,-21,14,-16,-3,0,-2
1523149947856672,-1,4,8,12,2,2,8,2
1523149947863584,-2,-10,-12,-5,-7,-5,-9,1
1523149947863584,-2,-2,0,3,0,2,5,-7
1523149947880123,1,2,2,-18,5,2,5,-4
1523149947880123,-1,-1,-6,1,-3,-2,-1,-7
1523149947881392,-1,-3,-3,-11,-3,-1,1,3
1523149947881392,1,3,8,33,3,0,-2,-1
1523149947902447,-4,-5,-2,16,-10,-8,-4,-3
1523149947902447,-2,-3,-5,7,-2,-2,4,-2
1523149947904454,-3,-3,-6,-69,-2,-4,-4,0
1523149947904454,0,0,0,11,0,-1,0,-2
1523149947916863,0,1,4,10,1,2,-1,2
1523149947916863,-2,-1,-3,-27,-2,-2,-4,-1
1523149947923783,-1,-2,17,42,5,4,2,2
1523149947923783,-3,2,-10,12,-3,-1,-3,-7
1523149947939932,-4,-5,-19,-11,-9,-6,-3,-4
1523149947939932,0,-2,0,9,3,3,1,2
1523149947941436,0,0,10,22,6,2,0,1
1523149947941436,-1,-3,2,-10,2,2,0,-1
1523149947962226,0,3,15,12,5,-1,-2,1
1523149947962226,-2,-2,-3,7,-9,-6,-12,-6
1523149947963994,-2,-3,-8,18,-2,-2,-13,-1
1523149947963994,0,2,-3,-45,-6,-2,0,-6
1523149947976952,2,2,-1,-10,4,0,-1,2
1523149947976952,-1,-1,1,-12,-2,1,-3,-3
1523149947983576,0,-3,0,-4,-2,-1,-3,-1
1523149947983576,-2,-10,-5,23,-2,-1,-1,-1
1523149947999668,1,-1,5,-1,4,2,2,-2
1523149947999668,0,-1,-4,-9,-3,-2,5,1
1523149948001704,1,-2,-2,2,-2,-2,4,21
1523149948001704,-2,2,2,8,-1,-1,-3,-29
1523149948022227,9,5,0,-6,1,2,5,7
1523149948022227,12,0,-6,-8,-2,0,2,13
1523149948023732,-36,-4,1,-6,-4,-4,-14,-19
1523149948023732,3,-1,-1,7,0,0,1,-36
1523149948036765,-15,-10,-7,-5,-2,-2,-14,-17
1523149948036765,11,7,1,2,0,-2,1,38
1523149948043523,29,1,-1,0,3,3,9,13
1523149948043523,-64,-5,-2,0,-6,-7,-15,-77
1523149948060151,5,3,3,3,2,0,-4,4
1523149948060151,-2,-2,-1,-3,1,1,-1,-14
1523149948061116,-2,-4,-6,-6,-1,1,6,2
1523149948061116,14,-1,1,2,-1,0,2,45
1523149948082408,-3,-1,3,-1,3,1,6,-29
1523149948082408,-9,-1,8,-7,-3,-3,-11,1
1523149948083676,13,4,25,2,-1,0,23,-7
1523149948083676,7,-2,-16,1,-5,-1,-7,15
1523149948096710,2,2,6,-2,-2,1,-2,-11
1523149948096710,9,-2,-29,-2,1,-1,-3,10
1523149948103764,-11,0,3,8,4,2,-7,2
1523149948103764,1,-6,59,-6,-5,-4,-4,-7
1523149948119965,-5,-1,-10,-2,-2,-3,-5,6
1523149948119965,-10,-4,11,-1,-3,-4,6,-27
1523149948121277,3,0,-13,-2,1,1,-30,0
1523149948121277,11,2,-13,3,3,3,22,29
1523149948150020,1,-3,-14,-6,-1,-2,-10,17
1523149948150020,-12,-3,10,0,-4,3,45,-31
1523149948151357,0,0,-4,-1,-3,-3,-7,2
1523149948151357,9,2,-16,4,1,1,-5,23
1523149948155869,-3,-1,7,-6,1,-2,-1,-5
1523149948155869,0,-3,-17,14,-1,-3,-8,8
1523149948164891,-3,-3,-9,-6,-1,-1,9,-8
1523149948164891,3,2,1,3,4,3,4,3
1523149948180259,1,2,1,-4,0,-2,5,10
1523149948180259,-3,-3,13,8,3,-2,-12,-1
1523149948182157,-1,-3,-19,-12,-11,-5,4,-2
1523149948182157,3,1,-4,2,-2,-4,-6,1
1523149948202324,2,2,14,-2,4,5,3,2
1523149948202324,-1,11,-2,25,7,3,-6,-4
1523149948203664,-2,-4,1,-38,-8,-3,-2,2
1523149948203664,4,-1,-6,-34,-1,0,1,6
1523149948216232,-7,-16,-18,10,-13,-5,10,-16
1523149948216232,-3,-6,-1,-14,6,2,-9,1
1523149948224720,2,9,5,12,3,-1,7,-4
1523149948224720,3,13,21,-21,7,1,13,16
1523149948239762,-3,-1,-33,-3,-11,-4,-18,-28
1523149948239762,-6,-24,-5,17,-6,1,12,4
1523149948241266,2,2,13,10,4,0,-2,-4
1523149948241266,3,3,-3,25,5,4,-14,14
1523149948262478,0,5,16,16,7,0,11,18
1523149948262478,1,2,2,-13,-7,-3,10,5
1523149948263825,-1,0,-12,-13,3,2,3,1
1523149948263825,-5,-6,-2,-2,-5,0,-11,-18
1523149948276012,-1,-12,9,4,6,1,5,-1
1523149948276012,-1,1,1,52,-6,-3,0,-8
1523149948284881,-2,-3,-10,-74,-8,-6,6,6
1523149948284881,1,4,2,31,-2,-2,-12,-3
1523149948300011,1,1,-3,11,0,0,1,13
1523149948300011,-3,-1,-5,-60,-2,-5,-12,-7
1523149948301580,-2,1,16,31,1,2,21,-12
1523149948301580,1,-5,-27,-9,-8,1,-4,-3
1523149948321980,1,1,10,-10,2,0,-9,-7
1523149948321980,-2,-1,1,1,4,0,3,4
1523149948323985,-5,-18,-10,25,-7,-5,5,-4
1523149948323985,0,-4,0,-56,-1,-1,-1,4
1523149948336184,-1,5,-9,-32,-4,-1,4,6
1523149948336184,-3,7,-3,1,-1,-2,-17,-7
1523149948345041,-2,-4,1,13,1,0,-11,-3
1523149948345041,-1,-5,-1,16,-3,-5,4,1
1523149948359736,-1,1,0,-5,4,3,0,4
1523149948359736,0,0,-1,-11,-8,-5,-4,0
1523149948361083,-2,1,1,9,2,-1,-8,1
1523149948361083,-1,1,1,12,6,5,11,5
1523149948382500,-3,0,4,6,-5,-2,-3,3
1523149948382500,-1,0,-8,-11,-1,-1,-2,-1
1523149948383843,-1,-1,3,2,-2,-3,-5,-4
1523149948383843,-1,-1,-2,16,-1,-5,-3,-2
1523149948396030,1,-2,0,-13,-3,-2,0,-1
1523149948396030,0,-1,-2,-22,3,5,0,1
1523149948404898,-2,-5,-2,-14,-8,-2,-6,0
1523149948404898,-2,-3,-11,28,0,0,-8,2
1523149948427501,0,1,27,0,-7,-5,12,2
1523149948427501,-3,-7,-18,-3,-4,-6,-6,-5
1523149948428962,3,2,-49,14,5,3,-3,2
1523149948428962,0,0,-3,-17,7,1,1,0
1523149948442503,-1,1,30,52,2,4,1,5
1523149948442503,0,-2,0,-21,-4,2,1,-1
1523149948444022,0,1,16,17,1,-1,-3,-8
1523149948444022,-2,-3,1,5,-6,-4,11,12
1523149948456177,1,0,-25,-12,3,0,-11,-1
1523149948456177,-1,0,11,3,2,1,5,2
1523149948465059,-2,-1,-2,9,-2,-1,5,3
1523149948465059,0,0,0,-14,-2,-1,-6,-2
1523149948480096,-1,-2,-15,-9,-2,-1,4,-2
1523149948480096,-2,0,-5,13,1,0,-10,0
1523149948481677,-3,0,18,-17,-3,-1,6,-1
1523149948481677,-1,1,10,2,-2,-1,12,1
1523149948502317,-2,-6,-14,-5,-1,-2,-6,-2
1523149948502317,-1,-2,-12,2,-4,-3,-3,-3
1523149948504161,1,1,7,-2,3,2,-5,0
1523149948504161,-1,0,0,-2,-3,-3,-3,-3
1523149948516193,1,0,17,5,-1,-1,2,27
1523149948516193,-5,-4,-37,-15,-2,0,-5,-36
1523149948524716,1,1,3,1,-1,-4,-15,5
1523149948524716,15,4,-1,7,0,3,7,11
1523149948539757,32,3,1,-10,0,3,30,54
1523149948539757,-26,-9,11,0,-2,-6,-2,-16
1523149948541261,-38,-10,-7,1,0,-3,-17,-50
1523149948541261,-7,-3,-7,3,-2,-2,-12,-87
1523149948562473,27,8,-9,-3,1,2,19,9
1523149948562473,71,8,11,4,-1,3,11,120
1523149948563821,-82,-15,-11,-3,-5,-8,-5,-65
1523149948563821,-35,-8,1,-4,-2,-7,-21,-40
1523149948576008,24,6,-2,1,3,4,-11,-20
1523149948576008,18,6,12,3,-2,-2,-6,51
1523149948584877,-18,-5,-5,-7,0,-1,10,-13
1523149948584877,0,-5,-1,-1,-2,-3,5,32
1523149948600004,-16,-1,7,-2,-2,-5,-25,-47
1523149948600004,6,4,5,0,-1,0,4,13
1523149948601577,39,7,8,1,0,3,7,38
1523149948601577,0,0,-11,-3,-3,-3,0,11
1523149948622527,-15,-6,6,-1,-1,-4,-5,-5
1523149948622527,-15,-3,4,-2,-1,0,4,-26
1523149948623981,16,4,-8,1,2,0,-4,8
1523149948623981,1,0,9,-1,-3,-2,0,2
1523149948645035,-10,-4,-13,-3,-2,-3,-11,12
1523149948645035,-19,-3,1,0,-1,0,5,-30
1523149948646640,14,3,-3,6,3,0,-9,15
1523149948646640,11,1,-5,-28,-1,1,1,42
1523149948659731,-13,-4,4,23,2,1,-1,-10
1523149948659731,-19,-9,-23,-29,-21,-11,-12,-34
1523149948661643,18,3,10,-1,1,4,6,18
1523149948661643,4,1,4,21,6,3,-4,11
1523149948682290,-14,-3,3,-18,5,1,-8,-13
1523149948682290,-9,-4,-24,-15,-12,-4,-5,-19
1523149948684177,14,0,10,5,1,-1,1,15
1523149948684177,-1,13,1,16,-3,-3,-14,-2
1523149948704695,-11,-19,-14,0,-7,-2,14,-3
1523149948704695,-3,-9,7,-16,10,4,-5,-8
1523149948706200,6,4,-21,-61,-10,-5,1,4
1523149948706200,0,-7,4,62,-3,-1,-9,17
1523149948718389,-4,9,2,10,4,0,14,-14
1523149948718389,-3,-1,6,6,5,1,1,-2
1523149948734775,5,1,13,44,10,5,-7,0
1523149948734775,2,8,-11,-66,-7,1,18,3
1523149948742451,-1,10,-2,31,-8,-3,0,9
1523149948742451,-7,-10,-21,-53,-8,-3,1,1
1523149948743801,1,-20,3,2,3,-1,-10,-25
1523149948743801,1,5,-13,-22,-6,-3,-17,7
1523149948765006,-4,9,0,-17,-1,-4,-6,-9
1523149948765006,-3,-8,6,18,1,-1,-7,-6
1523149948766360,3,4,-5,-2,-5,-4,-4,23
1523149948766360,-2,-8,-2,-25,1,-1,14,-16
1523149948779049,-1,5,-6,-22,5,1,-7,-2
1523149948779049,-3,8,-5,-9,-9,-3,22,19
1523149948786067,3,-1,-4,2,-5,-2,-12,8
1523149948786067,-2,-5,5,12,2,0,6,9
1523149948802501,-2,-4,5,-15,-4,-3,6,5
1523149948802501,1,12,19,36,9,2,-11,-10
1523149948803961,-1,-8,-5,-15,-2,1,35,2
1523149948803961,-2,-3,-16,-28,-11,-4,-6,-6
1523149948825021,-1,-15,-7,10,1,0,-9,-5
1523149948825021,-2,3,14,33,7,2,-20,-12
1523149948826519,3,17,-19,5,-1,-1,-8,-14
1523149948826519,1,-6,41,-4,4,0,5,16
1523149948839210,-4,-8,-5,-6,-5,-6,-21,-11
1523149948839210,-1,-4,-7,14,6,3,13,-3
1523149948846152,2,15,21,2,5,1,-3,1
1523149948846152,1,-2,-16,20,-6,-4,-1,-15
1523149948862270,0,-2,-3,1,-1,1,-2,6
1523149948862270,-2,3,10,5,3,2,9,-5
1523149948864153,2,1,2,1,3,0,-5,2
1523149948864153,-5,-10,-8,25,-2,-1,2,-6
1523149948884838,-2,0,-4,-3,-8,-6,1,0
1523149948884838,-1,-3,-1,-29,-1,-2,-6,-7
1523149948886678,0,-6,6,48,-1,-1,9,7
1523149948886678,-1,0,18,3,5,1,0,-8
1523149948899373,-1,-1,-23,-15,-1,0,-9,-2
1523149948899373,1,1,-1,6,3,2,-18,2
1523149948905732,-7,-13,-13,-28,-8,0,15,-17
1523149948905732,0,1,3,14,-1,-1,-4,-2
1523149948922274,-2,0,-8,-66,-6,-4,-20,0
1523149948922274,1,2,0,19,3,2,17,11
1523149948923779,-1,-4,-2,-8,-2,1,18,13
1523149948923779,-1,9,-2,8,5,2,-2,-1
1523149948944991,-1,-2,6,11,-2,-1,1,2
1523149948944991,0,-4,0,1,-6,-4,-4,-9
1523149948946340,2,-1,-7,-12,-1,-1,-12,2
1523149948946340,-3,-2,9,6,-1,0,12,-6
1523149948959381,-2,-1,-8,-23,-5,-4,4,1
1523149948959381,-1,-2,-5,-8,0,-3,-4,-3
1523149948966052,-1,8,-2,8,-2,1,5,0
1523149948966052,1,-5,-6,-1,1,-1,-4,-9
1523149948983007,0,-4,3,17,2,1,0,1
1523149948983007,-1,6,12,4,-3,-1,1,-3
1523149948984603,1,-6,-3,-12,-4,-3,-16,-4
1523149948984603,-2,-2,-1,-12,-2,-3,2,5
1523149949012515,-1,6,9,13,3,0,10,-8
1523149949012515,-1,-5,-7,0,-1,0,4,-1
1523149949014019,0,-6,0,3,-2,-3,-8,3
1523149949014019,1,7,-8,-11,-2,-3,-13,2
1523149949019187,-1,-11,-2,13,2,1,11,9
1523149949019187,-5,-1,10,4,-1,-3,-2,-19
1523149949026177,4,0,1,-5,-2,0,-6,-1
1523149949026177,21,0,-17,-2,0,1,0,29
1523149949042255,9,1,-1,3,1,-2,0,40
1523149949042255,-57,-7,-7,-1,-2,-5,-11,-82
1523149949044165,14,0,9,-1,2,-1,0,25
1523149949044165,0,-4,-7,-10,-4,-4,0,-47
1523149949065019,1,-1,4,7,-1,-3,-10,28
1523149949065019,2,-3,-3,0,3,5,8,-10
1523149949066354,-4,-4,-9,-1,0,-3,-10,28
1523149949066354,-17,0,17,2,-1,2,20,-23
1523149949079415,19,-3,-7,-1,-4,-3,-9,28
1523149949079415,-18,-3,-1,0,-2,-1,-10,-55
1523149949086062,3,3,-2,-1,1,2,1,-10
1523149949086062,7,-2,-13,-1,-1,0,12,26
1523149949102548,-9,-5,0,-2,-1,-2,0,-22
1523149949102548,14,5,7,3,-3,-4,-2,50
1523149949103955,5,3,19,-1,-1,0,-2,-12
1523149949103955,-8,-9,-49,-5,2,1,4,-9
1523149949124870,-10,0,0,7,2,4,5,-12
1523149949124870,20,6,18,3,1,3,18,24
1523149949126219,-9,-4,-14,-1,-3,-5,-15,-12
1523149949126219,-5,-1,7,-2,-3,-6,-10,-2
1523149949138751,-4,2,16,1,0,-2,-1,-10
1523149949138751,11,-2,-16,16,1,1,-7,15
1523149949147274,-6,-1,5,-8,-1,1,8,0
1523149949147274,-5,-1,1,0,0,0,-7,9
1523149949162470,1,1,-6,2,-3,-2,4,-18
1523149949162470,8,2,9,4,2,-3,-6,17
1523149949163819,-7,-1,-20,-2,-4,-1,1,-12
1523149949163819,3,-2,15,14,2,3,-5,-3
1523149949184873,-6,-3,-7,-14,-3,0,-5,-7
1523149949184873,3,-3,-6,15,1,-2,2,8
1523149949186398,-2,2,4,12,-3,-3,-1,-5
1523149949186398,0,-2,1,-8,2,1,-6,-3
1523149949198410,-4,-5,-1,16,-2,0,-4,-8
1523149949198410,1,-2,-18,-56,-11,-7,-13,11
1523149949207314,1,-6,10,-7,4,5,31,-2
1523149949207314,-4,0,1,37,1,1,-3,2
1523149949222353,-2,0,-15,-21,-2,-2,-3,-8
1523149949222353,6,-3,7,3,2,0,-16,-2
1523149949223857,-1,5,23,29,4,5,6,0
1523149949223857,-4,-1,-32,-31,-6,-5,-8,9
1523149949245149,-1,-2,-13,-31,-4,-2,4,-15
1523149949245149,-2,-3,-22,-12,-3,-1,-11,1
1523149949246457,0,7,6,2,7,3,4,7
1523149949246457,0,-10,25,20,-3,-2,-3,-7
1523149949258686,-2,5,-19,-1,-5,-4,-2,8
1523149949258686,-1,-2,-2,-6,-4,-2,1,-7
1523149949267473,-4,-3,2,-29,2,-2,-11,-11
1523149949267473,0,4,9,53,0,2,5,0
1523149949289532,1,3,9,-1,7,5,-7,-2
1523149949289532,2,3,0,20,-4,-1,11,0
1523149949291706,-5,-3,-7,14,-3,-7,-6,6
1523149949291706,1,2,6,-31,3,0,8,-1
1523149949304571,-3,-9,-19,-44,-14,-6,1,-6
1523149949304571,3,10,20,2,7,3,1,10
1523149949306634,1,-10,-10,27,0,-2,-25,0
1523149949306634,-2,-8,-14,-39,2,0,-9,0
1523149949318737,0,4,-1,31,4,3,-2,-9
1523149949318737,-2,-11,5,-18,-4,0,22,14
1523149949327689,0,2,5,-15,-11,-10,-10,-9
1523149949327689,-1,3,5,-9,3,0,-15,0
1523149949342365,-3,-6,16,8,-1,0,9,-2
1523149949342365,-3,-2,-10,5,-1,-4,-7,0
1523149949343675,-2,1,-6,-5,-2,0,2,-2
1523149949343675,1,0,4,-15,-1,-3,-7,-6
1523149949364963,3,3,4,13,2,-1,-4,-9
1523149949364963,-1,-3,3,16,2,5,18,20
1523149949366235,-3,-3,-8,-17,-2,2,3,0
1523149949366235,-2,2,0,-4,-4,-2,-2,1
1523149949378499,-2,3,7,16,1,-3,-6,-8
1523149949378499,1,-1,-3,-20,-6,-6,-12,-8
1523149949387567,-3,-4,-13,-13,2,5,7,0
1523149949387567,-1,-1,-3,10,-3,-1,8,4
1523149949402608,-1,-1,10,8,1,0,-2,2
1523149949402608,0,1,0,1,0,-1,-8,-19
1523149949403609,-2,-1,-3,1,-2,-4,1,5
1523149949403609,0,-1,0,-7,-4,-2,-1,-6
1523149949424725,-1,-3,2,3,1,2,4,2
1523149949424725,1,4,1,4,0,0,-2,-3
1523149949426174,0,2,-5,-4,-4,-1,-5,-6
1523149949426174,-2,-5,2,1,0,-1,1,1
1523149949438768,0,-1,-3,0,2,1,-3,2
1523149949438768,-3,-6,-2,3,1,1,2,2
1523149949447324,-2,2,0,-1,-2,-1,-2,-5
1523149949447324,0,8,-1,-6,-1,-3,1,1
1523149949462332,-1,-4,1,2,1,0,9,4
1523149949462332,0,1,-3,-3,-2,-1,-3,-1
1523149949464214,0,-4,-1,-1,-2,-2,1,2
1523149949464214,2,1,4,1,0,-2,-21,-5
1523149949484674,-4,0,-2,1,1,1,6,21
1523149949484674,-4,-2,-3,0,-2,-3,-9,-37
1523149949486719,5,1,1,1,1,-1,11,7
1523149949486719,19,0,1,0,-1,1,-5,28
1523149949498424,-38,-8,1,-6,-5,-6,-14,-33
1523149949498424,-23,0,-2,1,0,0,4,-52
1523149949507749,17,-3,-47,0,1,3,-10,31
1523149949507749,-24,-2,42,-1,-3,-2,7,-19
1523149949522273,27,0,-6,2,1,2,1,30
1523149949522273,11,4,10,2,1,3,4,8
1523149949523779,-13,-2,-14,-4,-5,-4,-4,-33
1523149949523779,3,-2,-5,-3,-4,-2,6,3
1523149949545066,7,3,3,1,-2,0,11,36
1523149949545066,-11,-1,-6,-1,-3,-8,-20,-22
1523149949546345,28,6,15,3,4,1,-3,50
1523149949546345,5,-4,-13,-2,-1,-1,1,29
1523149949568080,-41,-7,2,-3,-5,-5,6,-101
1523149949568080,4,-3,-11,1,1,-1,1,64
1523149949569399,2,-2,9,0,-2,-1,-9,-18
1523149949569399,-13,-2,-5,-4,-2,-3,5,-21
1523149949582578,22,7,-5,0,-3,-5,-20,16
1523149949582578,8,-3,3,2,4,6,30,48
1523149949583937,-15,-3,6,1,6,4,9,-13
1523149949583937,4,-2,-11,-2,0,-1,-3,1
1523149949604492,3,1,2,-1,-1,0,4,4
1523149949604492,2,-2,0,-6,-8,-6,-9,-9
1523149949606498,-10,-2,5,-1,-3,-5,-5,-8
1523149949606498,-3,0,-9,0,1,0,7,-10
1523149949627553,3,-1,1,0,-1,1,-8,6
1523149949627553,-2,0,0,-2,0,-4,-2,-7
1523149949629230,-6,-3,-2,-1,0,-4,-1,-7
1523149949629230,0,0,-18,0,0,2,0,0
1523149949642325,0,0,12,5,0,0,4,1
1523149949642325,3,6,32,1,1,2,-1,-2
1523149949644164,-6,-4,-2,-4,-3,-2,0,-5
1523149949644164,-3,-1,-3,-1,-3,-1,0,-6
1523149949664683,-1,-1,-8,-8,1,-2,-3,-2
1523149949664683,2,0,-6,18,5,4,4,-1
1523149949666185,-4,-2,2,-19,-4,-1,-3,-4
1523149949666185,-4,-4,-2,-6,-6,-5,-3,-7
1523149949687241,3,2,-2,5,2,-1,-3,0
1523149949687241,2,-4,-2,-4,-4,-3,-5,0
1523149949688745,-5,0,2,3,-5,-3,-2,-10
1523149949688745,2,-2,-1,1,5,6,1,4
1523149949701517,1,3,18,29,7,1,-1,6
1523149949701517,-4,-8,-60,-97,-20,-6,10,-5
1523149949708528,-2,-3,8,21,5,0,-23,-2
1523149949708528,1,2,-1,24,-4,-1,-7,15
1523149949725056,-2,-3,-2,0,-4,-2,13,-12
1523149949725056,1,4,4,13,8,-1,-9,-1
1523149949726345,-1,1,5,19,-8,0,3,-7
1523149949726345,-2,-9,-7,-19,-1,-6,-5,-4
1523149949747556,3,1,-8,-7,4,4,-7,5
1523149949747556,1,1,-7,32,-1,-3,-3,2
1523149949748905,-2,3,18,-13,0,0,6,0
1523149949748905,0,8,33,7,16,5,-3,-5
1523149949761652,-4,-15,-35,43,-25,-8,0,4
1523149949761652,2,11,-18,8,2,1,-10,7
1523149949768456,-1,10,11,13,2,-1,15,-23
1523149949768456,-4,-17,15,-4,8,4,2,-5
1523149949784736,-8,-25,-2,7,1,0,14,5
1523149949784736,-1,-13,-1,-13,-11,-5,-15,4
1523149949786504,4,14,3,-28,8,7,23,6
1523149949786504,4,27,-13,74,-9,-2,8,7
1523149949807290,1,-8,12,-15,9,3,-14,-18
1523149949807290,-9,-11,-8,-9,-3,-3,-8,-9
1523149949809183,3,-6,-9,-10,-2,-1,1,12
1523149949809183,1,-2,1,-13,2,2,-1,-6
1523149949821598,1,10,0,-3,0,1,1,4
1523149949821598,0,1,7,-42,-6,-2,-5,-7
1523149949828357,-3,-6,1,18,0,-3,-9,0
1523149949828357,-6,-9,-17,-28,-10,-8,-3,-7
1523149949844895,3,10,2,-19,-2,-7,-10,2
1523149949844895,-2,-3,10,13,0,0,4,-4
1523149949846743,-1,-7,-4,-4,7,4,4,3
1523149949846743,2,14,-9,-8,-8,-1,0,-1
1523149949867423,-2,-11,6,-20,1,-1,-2,1
1523149949867423,-2,-4,11,36,7,-1,0,-1
1523149949868725,-4,-11,-8,-26,-18,-8,-9,-1
1523149949868725,-2,-9,-30,-8,-7,-4,-3,0
1523149949881962,3,15,4,-54,0,3,1,3
1523149949881962,4,6,11,8,11,6,2,0
1523149949888483,-7,-6,-22,-20,-18,-7,-13,-4
1523149949888483,0,0,9,-16,1,-2,7,-6
1523149949905071,-2,1,-1,14,-3,0,15,-3
1523149949905071,-1,-1,0,-10,0,1,4,2
1523149949906530,-1,-1,-3,-6,2,-1,-8,-1
1523149949906530,-2,-4,1,0,1,0,-12,-7
1523149949927586,1,0,-4,-7,1,3,1,2
1523149949927586,0,-2,4,9,-4,-3,2,-2
1523149949929169,0,2,0,22,2,0,2,-1
1523149949929169,-2,-6,-3,1,-4,-6,-4,-1
1523149949941818,-2,1,2,15,4,1,-2,2
1523149949941818,-1,-1,0,7,1,4,6,3
1523149949948643,-1,-3,0,5,-1,-4,-5,-4
1523149949948643,0,0,11,-12,-2,-1,0,-2
1523149949964685,-2,-2,-26,-7,-6,-5,-9,-3
1523149949964685,-3,-2,16,2,-2,-3,-2,-4
1523149949966693,0,-2,-15,0,2,2,4,2
1523149949966693,0,1,47,2,1,0,1,-2
1523149949987245,-1,-4,-17,3,-3,-4,-6,-3
1523149949987245,2,-1,-10,6,-2,-2,-1,8
1523149949988750,-2,-2,4,7,2,-1,-1,3
1523149949988750,-4,-4,-5,-1,1,-2,6,-20
1523149950001853,1,4,7,3,1,0,-8,8
1523149950001853,0,-1,-5,-5,-4,-1,4,3
1523149950008571,6,2,5,-3,-3,-4,-7,20
1523149950008571,4,-3,-13,1,0,2,32,5
1523149950024837,0,2,11,1,2,1,-12,-17
1523149950024837,-13,-1,-3,3,-1,3,8,9
1523149950026147,-12,0,0,3,1,0,-2,-25
1523149950026147,10,-2,-8,-2,-2,-2,-12,8
1523149950047261,-10,3,5,4,-1,-3,1,-10
1523149950047261,24,0,3,1,-1,0,10,75
1523149950048765,-60,-12,-9,-1,-3,-4,0,-92
1523149950048765,-12,-4,-7,-2,0,3,-22,-47
1523149950060991,-5,0,3,-1,-1,0,-6,-10
1523149950060991,2,-1,-5,-3,-3,-8,0,0
1523149950069821,24,3,3,-1,-3,-1,5,41
1523149950069821,-5,0,-8,0,-1,-1,-13,9
1523149950085046,18,0,2,1,-1,1,3,-18
1523149950085046,-36,-3,-2,1,-1,-1,-12,-24
1523149950086367,17,0,1,3,1,3,0,13
1523149950086367,1,0,-1,-2,-3,-1,2,40
1523149950107567,7,0,-1,-2,-4,-2,5,-29
1523149950107567,13,0,0,0,1,2,-4,-10
1523149950108926,-14,-2,-3,-1,1,2,-5,21
1523149950108926,-18,-3,-5,-1,-1,-2,-11,-53
1523149950121459,-3,-1,2,-3,-4,-5,3,35
1523149950121459,5,0,0,0,-2,-3,-10,-27
1523149950129981,10,1,1,0,1,-1,-2,20
1523149950129981,13,1,3,1,-3,-4,-5,19
1523149950144521,-22,-7,-11,-1,-2,-2,-7,-11
1523149950144521,-2,-1,-1,2,2,3,-7,-22
1523149950146525,16,1,0,1,-1,1,0,18
1523149950146525,-1,-3,-4,-5,-1,-1,4,14
1523149950167580,0,-1,-1,-3,-2,-3,2,0
1523149950167580,1,0,-1,0,-1,-1,-1,-4
1523149950169265,-1,-1,-2,1,0,-1,-1,1
1523149950169265,-1,-1,0,1,0,0,8,2
1523149950181236,-1,2,8,0,-1,0,1,0
1523149950181236,-2,-5,-12,-3,-1,-1,-5,1
1523149950189718,3,-2,2,0,0,1,0,-5
1523149950189718,-4,0,0,2,0,-1,0,-5
1523149950204991,6,2,1,1,2,1,0,18
1523149950204991,-3,0,-2,1,-5,-3,2,-5
1523149950206264,1,0,19,-8,-4,-4,-1,-15
1523149950206264,0,-3,-5,11,0,-1,-3,-6
1523149950227550,-2,-2,-1,-5,1,4,-2,9
1523149950227550,-3,-5,-22,-53,-10,-4,3,0
1523149950228823,1,1,2,5,0,0,-4,-4
1523149950228823,3,4,7,4,5,0,-2,2
1523149950240855,1,0,10,15,3,-4,-24,-4
1523149950240855,-4,-1,22,61,-8,0,30,4
1523149950249880,-1,-2,-20,-15,-6,-6,-12,-8
1523149950249880,-1,0,3,-13,5,4,19,16
1523149950264898,3,12,29,4,11,5,2,-19
1523149950264898,-2,-13,16,113,8,2,-3,3
1523149950266776,-8,-10,-34,-62,-20,-11,-7,-1
1523149950266776,1,10,11,28,2,-1,-2,2
1523149950287302,-3,-14,-20,-46,-5,-7,-16,0
1523149950287302,3,0,11,15,7,1,-25,3
1523149950288755,2,1,7,19,10,8,11,17
1523149950288755,4,12,-5,0,-9,-4,8,-18
1523149950300786,0,8,2,-2,-1,4,12,25
1523149950300786,-8,-14,-2,-55,1,-8,-20,-28
1523149950309809,-2,-13,-9,72,0,1,-1,1
1523149950309809,3,0,-7,-71,-8,-2,-9,-3
1523149950324779,-1,23,0,5,-1,-1,15,10
1523149950324779,-3,-20,-11,25,-6,-1,0,-16
1523149950326673,-3,-20,-6,-26,2,0,-14,-2
1523149950326673,-2,-4,-17,-62,-1,0,0,-2
1523149950347338,0,-6,-7,51,-4,-3,-3,-4
1523149950347338,1,20,-22,-105,-11,-2,-1,2
1523149950348645,2,12,29,48,3,-2,2,-2
1523149950348645,-2,-12,9,53,4,0,-8,7
1523149950369700,0,-4,-10,2,-2,-4,-11,-6
1523149950369700,-3,2,-35,8,-9,-4,2,-1
1523149950371207,-4,-3,-6,-23,-8,-5,12,-7
1523149950371207,-2,-3,2,11,2,2,-5,-4
1523149950384935,-2,-7,14,40,5,2,4,12
1523149950384935,3,5,22,13,9,5,5,-3
1523149950386245,3,2,-11,-26,-4,-2,-19,-5
1523149950386245,-2,4,5,19,2,2,-4,-2
1523149950407498,-3,2,-3,-31,-6,-3,4,1
1523149950407498,-2,-16,-7,-14,-4,0,-1,7
1523149950408806,0,6,-4,-8,-2,-3,-1,-1
1523149950408806,0,-4,2,-7,1,-2,-1,1
1523149950420837,-1,-1,-13,-4,-5,2,-7,-6
1523149950420837,0,10,2,-13,3,-3,13,2
1523149950429862,0,2,8,11,1,0,2,-4
1523149950429862,-1,-2,-1,14,0,0,0,-1
1523149950445045,-3,-7,-10,-13,-5,-3,2,1
1523149950445045,1,4,10,14,3,-1,-7,-3
1523149950446405,-1,-1,5,-2,-2,-1,2,-1
1523149950446405,0,-4,-12,-1,-8,-5,-2,5
1523149950467568,0,-4,-2,-5,4,4,8,21
1523149950467568,-4,3,7,-5,3,3,1,-31
1523149950469163,8,5,-3,1,1,1,6,9
1523149950469163,9,-4,-6,-3,-6,-4,-3,25
1523149950490020,-22,-9,1,5,-2,-4,-2,-50
1523149950490020,-5,4,2,2,-2,-4,-5,15
1523149950491527,3,2,1,-1,0,2,3,-3
1523149950491527,0,-1,-5,10,3,3,3,7
1523149950504757,28,0,0,-3,2,0,6,23
1523149950504757,14,4,0,-5,-3,1,-1,45
1523149950506565,-27,-6,-11,-3,-2,-1,11,-41
1523149950506565,2,-4,0,-2,-2,-1,-6,-13
1523149950527620,-16,-1,-1,-2,-2,-2,-4,-26
1523149950527620,25,1,-3,-5,-1,-3,-7,42
1523149950529196,-26,-4,3,4,-1,-3,-8,14
1523149950529196,-18,-3,0,3,-1,-3,-9,-22
1523149950549896,14,-1,-4,-3,-1,1,14,2
1523149950549896,5,4,4,2,1,0,-6,31
1523149950551400,32,3,1,-1,2,-1,1,61
1523149950551400,-27,-7,-5,-5,-3,-4,-6,-67
1523149950565066,-4,-3,2,-1,-1,-1,-1,-6
1523149950565066,1,-1,1,-2,0,0,18,2
1523149950566440,9,4,0,0,-1,1,-2,-4
1523149950566440,15,0,-2,0,0,3,-5,49
1523149950586994,-21,-7,-3,-1,-2,-2,-1,-30
1523149950586994,-23,-4,-1,-1,-2,-1,-3,-37
1523149950589000,12,0,0,2,4,2,-2,1
1523149950589000,-5,2,1,2,-1,-1,5,4
1523149950610093,34,2,0,-1,-1,0,-9,42
1523149950610093,-42,-6,-3,-3,-2,-2,21,-26
1523149950611086,0,1,3,-2,-2,-1,0,-24
1523149950611086,8,-1,-4,-3,-1,-2,-5,19
1523149950624829,-15,-5,-3,-2,0,-3,-5,6
1523149950624829,9,2,1,0,0,-2,-16,-27
1523149950626142,-3,-1,-2,1,1,1,5,7
1523149950626142,-2,-2,-2,-1,-3,-2,-3,6
1523149950647194,3,-1,-2,-3,-4,-3,-2,-5
1523149950647194,-1,0,-1,-1,1,1,-9,-11
1523149950649235,-1,0,1,3,3,5,-5,-1
1523149950649235,2,-1,-3,-4,-3,-1,5,4
1523149950669309,-9,-1,-1,-1,-4,-4,-3,-2
1523149950669309,5,-3,3,-1,2,-3,-4,5
1523149950676271,-7,0,-1,12,-2,-2,-5,-6
1523149950676271,0,0,-4,-36,-1,-1,-7,-8
1523149950684460,0,2,18,26,4,2,5,7
1523149950684460,0,-2,-2,52,-4,1,4,-9
1523149950691043,1,10,0,6,-6,-6,-11,-14
1523149950691043,-2,-12,2,15,1,0,12,5
1523149950707613,-1,-3,1,-1,4,0,12,3
1523149950707613,3,5,20,4,1,-4,-16,9
1523149950709261,-8,-13,-58,-30,-19,-4,5,-13
1523149950709261,1,2,14,11,-3,-2,6,10
1523149950729672,0,5,6,7,8,4,11,-2
1523149950729672,2,-1,5,-5,6,4,2,2
1523149950731766,-2,8,14,50,-10,-9,-2,0
1523149950731766,-4,-3,13,11,5,2,-6,-29
1523149950744415,-3,-15,-39,-82,-16,-4,8,7
1523149950744415,0,9,11,64,8,2,-9,-5
1523149950751075,-3,-5,-1,-12,0,3,4,7
1523149950751075,3,2,-2,-5,0,-1,0,5
1523149950767584,-3,6,16,28,3,-2,1,-4
1523149950767584,1,-6,-10,-56,-1,0,-15,14
1523149950768881,-1,-1,15,21,0,-2,-11,-11
1523149950768881,-3,1,-20,-4,-4,0,25,-4
1523149950789671,-2,0,-1,-16,-4,-4,-25,-17
1523149950789671,2,-2,-28,-27,-15,-6,-40,25
1523149950791443,-2,-1,13,46,11,8,60,20
1523149950791443,1,-3,12,-3,7,3,-19,-3
1523149950804209,-3,-9,-24,35,-13,-7,-19,-3
1523149950804209,-2,-2,3,-1,1,0,18,-10
1523149950811199,-5,-1,2,8,-2,-11,-30,-34
1523149950811199,2,6,-1,-3,1,-2,-1,1
1523149950827271,0,2,10,17,3,4,11,12
1523149950827271,-1,-3,-1,-9,-2,-2,10,-13
1523149950828776,0,-3,-13,-125,-3,0,-6,4
1523149950828776,-2,-3,-3,56,-9,-5,6,2
1523149950850071,-2,1,9,15,4,1,-9,-2
1523149950850071,-4,-14,-20,-25,-5,-2,4,-10
1523149950851335,2,-3,6,-21,7,7,-1,5
1523149950851335,0,1,1,11,0,1,-10,30
1523149950864430,-3,6,9,-10,6,-2,-14,-40
1523149950864430,-1,-6,-23,-44,-10,-1,33,4
1523149950871122,1,0,12,27,3,1,-2,17
1523149950871122,-2,-6,2,-24,1,-3,-13,-9
1523149950886931,-2,4,13,59,4,1,8,-2
1523149950886931,-3,-5,2,34,0,-1,-3,-10
1523149950888936,-1,-7,-6,-19,-5,-2,-14,-7
1523149950888936,0,6,-1,8,-4,0,5,-2
1523149950909723,2,10,14,-14,9,2,-11,11
1523149950909723,-2,0,3,-11,-2,-1,-10,-36
1523149950911729,-2,-8,-9,65,-2,0,7,17
1523149950911729,-1,-2,-4,-29,-3,0,-7,-13
1523149950924819,0,-2,-8,-3,-2,-1,19,5
1523149950924819,1,5,0,-8,-3,-5,-10,-3
1523149950931040,-3,3,5,-2,0,-5,-11,-9
1523149950931040,-3,2,-4,-7,4,2,34,1
1523149950947116,-1,-12,-14,-4,-8,0,-11,6
1523149950947116,0,4,4,3,-2,1,21,7
1523149950953396,0,-4,2,-23,1,-1,-1,-6
1523149950953396,-2,6,-1,19,-3,-3,-1,0
1523149950969940,0,-4,-7,-24,-6,-3,-5,-1
1523149950969940,-1,-1,0,5,1,-1,0,3
1523149950971444,2,3,4,2,1,0,-3,-8
1523149950971444,0,0,-8,-10,-5,-2,-24,9
1523149950983475,-3,-4,-8,-9,-2,1,16,-18
1523149950983475,0,0,3,-1,1,0,-13,-2
1523149950992793,6,3,-3,1,-2,1,28,19
1523149950992793,19,-5,-2,-3,-2,-2,-6,27
1523149951007326,-42,-7,-3,-14,-4,-3,-12,-32
1523149951007326,8,1,5,14,-1,-3,-8,25
1523149951008598,11,1,-4,-10,-2,-3,-9,1
1523149951008598,-24,-6,-2,-2,-2,0,6,-31
1523149951029889,14,-2,-2,-2,-1,-2,4,44
1523149951029889,-4,1,-1,-1,0,3,-6,-21
1523149951031781,-24,-2,-2,-1,0,-1,-1,-13
1523149951031781,29,-1,-1,-4,0,-1,-1,28
1523149951043314,-31,-6,-5,-3,-2,-4,-10,-52
1523149951043314,4,0,1,1,-2,-2,12,9
1523149951052338,21,0,1,-4,0,-1,-14,-10
1523149951052338,-22,-2,-2,2,-1,-3,2,-23
1523149951067586,17,0,-2,-3,1,3,9,43
1523149951067586,-2,-1,0,0,0,-3,3,-17
1523149951068882,-3,0,2,1,1,1,-2,-11
1523149951068882,5,-1,-2,-4,-4,-4,-11,54
1523149951090029,13,0,-3,-5,-3,0,-5,-37
1523149951090029,-3,-1,-2,-1,-1,-2,1,21
1523149951091443,-9,-2,0,1,1,-1,-2,-34
1523149951091443,0,-4,-2,-2,-2,-2,-2,38
1523149951103475,-6,-1,-1,-5,-4,-6,-11,-63
1523149951103475,17,0,2,4,3,2,-4,8
1523149951112499,-17,-3,-2,-3,-3,1,16,1
1523149951112499,-2,1,-2,-2,-1,0,0,-23
1523149951127506,9,2,-2,1,1,3,5,31
1523149951127506,-2,-1,-1,-4,-5,-3,-2,-3
1523149951128815,0,-2,-3,-3,-4,-7,-12,-11
1523149951128815,-8,-2,0,2,3,3,-4,-23
1523149951149888,4,0,-4,-1,-2,-1,9,29
1523149951149888,-8,-1,2,-1,1,-1,-6,-11
1523149951151412,2,0,12,7,1,-2,15,30
1523149951151412,-5,-5,-24,-30,-11,-5,-7,-27
1523149951163458,7,-1,-2,-8,1,2,7,15
1523149951163458,-5,0,0,4,3,-1,-9,6
1523149951172432,0,1,16,23,7,3,-1,0
1523149951172432,0,-1,-15,-31,-10,-4,11,-27
1523149951187043,3,1,2,9,-6,-4,-13,5
1523149951187043,-6,-4,0,-5,3,2,9,-1
1523149951189053,4,2,11,6,0,0,-29,20
1523149951189053,-3,-1,0,28,4,2,3,-8
1523149951209896,1,-1,6,13,-2,-3,-7,5
1523149951209896,-3,-1,0,0,-8,-5,3,-3
1523149951211401,0,5,-34,-49,-5,-1,-22,-16
1523149951211401,-1,-5,25,39,9,4,-3,26
1523149951223761,-5,-7,-16,-11,-10,-4,24,-39
1523149951223761,1,0,3,-41,3,-3,-13,-3
1523149951232145,0,0,-7,-1,-2,-1,3,1
1523149951232145,-1,0,-2,-5,-10,-6,2,-8
1523149951247578,3,0,1,-1,7,4,-4,19
1523149951247578,-5,-2,-14,-13,-7,0,19,2
1523149951249184,-2,11,11,16,1,5,19,-21
1523149951249184,-4,-9,-1,-24,1,-6,-11,-9
1523149951269521,-5,-12,-44,-95,-17,-8,-2,20
1523149951269521,-1,2,-6,90,1,3,7,-2
1523149951271525,-1,-5,12,10,-1,-3,-7,2
1523149951271525,0,7,2,25,6,2,8,-4
1523149951283762,0,1,8,-7,-4,-4,-9,-6
1523149951283762,0,2,-6,-43,2,2,-5,-1
1523149951292585,-2,-2,3,-4,5,-2,-10,1
1523149951292585,0,-4,-12,-42,-15,-5,0,-13
1523149951307121,2,2,17,6,5,1,-8,3
1523149951307121,0,1,-2,23,-1,1,1,2
1523149951308628,-1,-8,-4,-21,1,-3,-13,5
1523149951308628,3,9,7,1,5,3,-8,11
1523149951329860,-1,2,2,46,-3,0,13,6
1523149951329860,0,-10,16,-1,0,-4,1,-4
1523149951331186,-2,-7,-9,10,-1,0,14,6
1523149951331186,-2,1,-1,16,-1,-5,-11,0
1523149951343748,2,5,1,-35,4,0,11,8
1523149951343748,-1,5,6,42,-3,-1,-12,-6
1523149951352241,-2,-8,-30,-52,-9,-4,0,3
1523149951352241,2,3,0,3,3,3,5,-5
1523149951367477,-1,5,6,25,3,2,-9,4
1523149951367477,-4,-12,-4,-24,-6,-6,-7,-7
1523149951368787,-1,-2,-1,8,-2,-2,17,2
1523149951368787,0,-4,5,0,4,2,11,-2
1523149951389868,0,3,1,1,2,1,-5,3
1523149951389868,-2,-7,-6,-11,-4,-4,-23,-3
1523149951391346,1,2,2,7,-4,-3,30,-7
1523149951391346,1,-1,5,16,1,-3,1,17
1523149951403422,-4,-1,3,16,5,1,-10,-5
1523149951403422,-6,0,0,-3,-2,1,12,-31
1523149951412446,-1,-2,1,10,-1,-2,-10,2
1523149951412446,-2,0,-2,-7,-2,-1,-1,-9
1523149951427487,0,-1,-1,4,-3,0,1,13
1523149951427487,2,5,0,-10,1,-1,5,8
1523149951428991,11,-2,0,3,0,2,-7,18
1523149951428991,-11,-3,-3,1,-2,0,4,-17
1523149951450048,-13,-5,0,5,-1,-3,-11,-9
1523149951450048,0,-1,-1,-1,2,0,0,0
1523149951451552,0,2,1,5,-1,-1,-5,-5
1523149951451552,10,2,-3,1,-1,-1,-15,15
1523149951472165,4,0,1,7,-1,-1,12,10
1523149951472165,1,1,0,-8,0,0,-2,2
1523149951474110,2,-3,0,-1,-3,-1,-8,27
1523149951474110,-20,-2,-1,-2,-1,-2,-12,-45
1523149951487147,18,1,2,1,0,1,-7,-1
1523149951487147,-1,-4,-5,-5,-3,-5,4,44
1523149951488649,-44,-5,0,0,-2,-5,-23,-50
1523149951488649,11,-1,2,4,2,2,4,43
1523149951510266,0,2,1,3,1,-2,-9,-42
1523149951510266,26,5,1,-1,1,0,10,32
1523149951511710,11,-1,-1,1,-1,1,1,-4
1523149951511710,3,-1,-3,-6,-2,-4,-2,15
1523149951532295,-31,-6,-3,1,2,2,1,26
1523149951532295,-3,-1,-2,-5,-1,-3,-4,-37
1523149951533769,4,0,-1,0,-1,0,-8,-12
1523149951533769,-3,1,1,1,0,3,19,-35
1523149951546803,27,0,0,0,-3,-5,-11,74
1523149951546803,-35,-3,-2,-1,0,-1,12,-73
1523149951553322,17,-2,-2,-1,-2,-4,-8,3
1523149951553322,-25,-1,-2,-1,-2,0,-13,-27
1523149951569867,13,-1,-1,2,-1,2,17,29
1523149951569867,-6,-1,-3,-3,0,-4,-15,-25
1523149951571369,2,-1,0,1,0,-2,-4,17
1523149951571369,4,-1,-1,0,0,-1,6,-1
1523149951592424,-14,-2,-2,-1,0,-3,-12,-28
1523149951592424,12,2,1,1,1,2,-3,22
1523149951593931,2,0,-1,0,-1,3,25,3
1523149951593931,7,0,0,-1,-3,-5,-11,22
1523149951606532,-4,-1,-1,-2,-1,-4,-2,-38
1523149951606532,2,-1,0,0,-1,3,-16,10
1523149951613483,7,-1,-1,-1,-1,-1,10,35
1523149951613483,-25,-2,-1,-1,2,3,-1,-47
1523149951629592,0,-1,-2,0,-2,-1,-3,-5
1523149951629592,-2,-1,2,-6,1,-1,-4,12
1523149951631528,-1,1,11,35,2,-3,-6,-2
1523149951631528,9,-3,-22,-86,-17,-7,-9,15
1523149951652083,-4,0,13,12,3,3,13,-40
1523149951652083,2,-2,-1,7,0,0,18,13
1523149951654089,-1,0,-4,7,2,1,9,4
1523149951654089,3,1,22,63,9,-4,-9,3
1523149951666629,-4,-4,-18,3,-9,1,11,6
1523149951666629,-4,-4,-8,-13,-4,-4,1,2
1523149951673641,-6,3,8,43,1,-3,-10,-28
1523149951673641,-2,-8,-31,-50,-11,-9,-8,3
1523149951689686,4,-1,8,7,8,9,1,12
1523149951689686,1,-2,-16,-30,-10,-2,-10,10
1523149951691188,-9,-1,-1,-33,-3,2,14,-15
1523149951691188,6,12,21,18,10,2,0,-42
1523149951712291,-2,-10,-4,-10,-9,-5,-15,-3
1523149951712291,-4,-2,-2,15,1,0,0,5
1523149951713795,-2,-1,0,-19,2,5,18,-2
1523149951713795,4,2,-5,-3,-1,1,9,26
1523149951726460,-3,-4,7,9,6,2,22,-27
1523149951726460,-2,0,7,18,-1,1,-6,-1
1523149951733478,0,2,3,6,2,-2,-16,4
1523149951733478,-2,-9,-12,35,-6,-4,-3,7
1523149951757224,2,2,-11,-20,-2,-2,4,18
1523149951757224,-2,1,2,2,-4,-6,-8,-1
1523149951759048,1,14,11,-15,9,4,13,-10
1523149951759048,-1,-16,6,85,0,4,9,5
1523149951772266,-4,-7,3,25,-4,-4,-17,-4
1523149951772266,3,-2,-17,-30,-6,0,-1,2
1523149951774183,0,3,4,11,-2,-3,-9,-27
1523149951774183,-5,9,4,-3,7,5,2,-3
1523149951787122,-2,-2,-1,-6,-10,-7,-3,1
1523149951787122,1,0,12,0,-1,-2,3,-10
1523149951793683,-2,-5,-9,1,-2,-2,-14,29
1523149951793683,0,-3,9,11,2,3,6,-18
1523149951810045,0,0,-2,9,3,-1,-3,3
1523149951810045,-2,0,-1,9,2,-1,-6,-2
1523149951811428,-1,-1,5,-24,5,2,-1,-2
1523149951811428,4,-9,-13,3,-5,0,-4,21
1523149951832566,-1,7,-18,8,-8,-6,-10,6
1523149951832566,0,4,24,32,4,-1,4,0
1523149951833988,-10,-25,0,8,-1,1,-3,-17
1523149951833988,3,9,2,14,8,2,-32,10
1523149951846715,-2,-13,-1,-43,3,5,29,7
1523149951846715,-3,0,9,50,4,-2,-2,4
1523149951853539,-1,2,-36,-87,-27,-11,-10,14
1523149951853539,3,6,18,-11,9,2,1,-1
1523149951869779,-2,9,-22,-34,-14,-6,-17,-6
1523149951869779,-1,-14,-20,13,-2,4,7,2
1523149951871629,-3,-3,9,40,4,-1,-3,2
1523149951871629,-1,-2,-1,-28,-6,-2,6,-4
1523149951892839,-1,3,-21,-56,-5,-2,12,-5
1523149951892839,-1,3,17,0,6,0,-2,-12
1523149951894649,-1,-3,-18,-37,-12,-4,-3,9
1523149951894649,-2,7,-19,-7,-7,-2,1,-11
1523149951905875,-1,-8,27,48,13,6,12,-1
1523149951905875,-3,-3,-8,-35,-1,0,-9,-3
1523149951914702,2,5,6,25,1,-3,-1,-3
1523149951914702,3,-10,3,-13,-4,-1,6,3
1523149951929956,-9,-3,-1,1,-1,-6,-14,1
1523149951929956,0,2,-5,-8,-2,3,30,-9
1523149951931247,3,5,-1,-10,2,1,0,12
1523149951931247,0,1,6,7,-3,-4,18,20
1523149951952303,0,-1,3,3,1,-2,-18,-39
1523149951952303,-7,-6,-9,-20,-5,-3,2,2
1523149951953807,6,4,10,42,7,2,-2,-4
1523149951953807,3,-4,-8,-18,-8,-3,-1,41
1523149951966075,-8,-1,3,9,0,-4,-3,-44
1523149951966075,20,6,5,-5,3,1,-12,27
1523149951974864,-2,-6,-18,-6,-3,2,19,-48
1523149951974864,-43,-4,66,-11,-1,-1,-8,57
1523149951989906,6,-2,-64,-12,2,-1,-13,-33
1523149951989906,18,4,7,5,-1,0,4,65
1523149951991407,34,-1,-8,2,0,-3,-10,19
1523149951991407,-24,-9,-8,-11,-4,-3,5,-6
1523149952012532,-3,6,26,21,4,2,0,38
1523149952012532,-1,-2,-8,-6,-2,-3,-6,-39
1523149952014199,11,-1,0,2,-1,0,5,-3
1523149952014199,5,5,-10,-3,2,0,-16,-41
1523149952034648,-1,-1,12,-3,-3,-1,16,2
1523149952034648,-22,-4,-13,-9,-4,-2,2,2
1523149952036526,-4,-1,8,-4,-3,-2,-4,22
1523149952036526,9,1,-13,2,3,5,9,-24
1523149952049798,15,4,3,1,1,1,-11,5
1523149952049798,-23,-5,2,-7,-4,-3,-4,11
1523149952051567,-16,-3,2,7,-2,-3,-12,1
1523149952051567,12,-4,-16,-5,-3,-4,9,-40
1523149952072318,-3,0,8,2,-2,-2,-11,20
1523149952072318,15,2,1,-2,1,-3,-1,9
1523149952073626,-28,-5,-5,1,3,3,-3,-33
1523149952073626,24,3,-12,-2,2,3,3,22
1523149952085658,8,-1,7,-5,-3,-2,-4,24
1523149952085658,-13,1,1,-2,-3,-1,-6,-36
1523149952094681,2,1,-10,-1,1,-1,-4,15
1523149952094681,2,-3,7,-3,-1,3,3,2
1523149952109915,-8,-1,4,4,-1,-3,-18,-10
1523149952109915,-5,-3,-2,-4,-5,-3,-8,6
1523149952111226,-2,-1,9,2,-1,0,11,0
1523149952111226,2,2,10,-1,1,2,3,-5
1523149952132484,-7,-2,-11,1,0,-2,-2,7
1523149952132484,7,-4,-21,-7,-4,-5,-7,-5
1523149952133787,-1,-3,-2,-7,-3,-1,-5,8
1523149952133787,-6,-1,-3,7,1,-1,-4,-11
1523149952145852,4,2,23,-2,0,3,3,16
1523149952145852,-2,-1,-1,2,2,0,7,-43
1523149952154842,-7,-3,-1,1,0,0,-2,-8
1523149952154842,-1,1,-9,-8,-2,-5,-26,-4
1523149952170038,-1,-2,6,-1,1,5,33,-1
1523149952170038,0,-1,-1,-5,-1,-3,-7,-13
1523149952171387,-5,-1,-36,-46,-10,-3,-21,14
1523149952171387,2,-6,-9,-10,-2,4,30,-2
1523149952192570,-1,2,-18,-6,4,0,-4,3
1523149952192570,-3,5,51,44,3,1,-7,-1
1523149952194142,2,0,11,21,7,2,10,-2
1523149952194142,-3,-10,-17,-61,-10,-8,-8,3
1523149952206172,-6,-8,-23,-15,-16,-4,-7,-2
1523149952206172,2,13,24,27,6,3,-3,2
1523149952215031,-1,-8,15,33,-3,-3,5,2
1523149952215031,0,0,-13,-32,-2,-3,2,-5
1523149952229734,-1,1,23,48,14,7,-5,0
1523149952229734,-3,-5,-41,-60,-14,-1,10,-9
1523149952231678,-3,-1,-19,-62,-11,-1,-9,-21
1523149952231678,-1,15,10,28,3,1,11,3
1523149952252102,-1,6,7,3,-1,-8,-6,-3
1523149952252102,-1,-1,18,0,8,3,-9,10
1523149952253605,-6,-16,-13,48,1,-2,-1,-1
1523149952253605,-2,-2,19,51,5,-1,-2,-16
1523149952266137,-1,-1,-28,-11,-15,-7,-1,1
1523149952266137,1,1,2,7,5,1,-2,4
1523149952274660,-1,7,2,-36,8,1,-4,0
1523149952274660,1,-1,-2,29,-9,-2,-17,-5
1523149952289895,-2,3,9,1,8,-1,-2,-1
1523149952289895,0,-1,19,49,-2,2,6,3
1523149952291705,-1,-6,-29,-93,-4,-6,-9,-12
1523149952291705,-3,-6,9,23,-5,-1,6,19
1523149952312847,1,9,7,12,7,2,-9,5
1523149952312847,0,-8,-11,3,6,5,21,-12
1523149952314352,-3,2,12,62,-2,-5,-15,-20
1523149952314352,-2,-5,-4,30,0,-3,21,2
1523149952325883,2,-1,23,6,5,6,10,0
1523149952325883,-1,2,-16,11,7,0,-5,13
1523149952342426,0,11,26,74,-5,-4,7,13
1523149952342426,-2,-2,-3,-2,2,-2,-21,-5
1523149952350059,-3,-27,-22,-14,-8,-3,12,-9
1523149952350059,-1,4,-6,-26,-1,0,10,22
1523149952351451,2,4,13,27,3,5,10,6
1523149952351451,0,7,-9,-83,-12,-1,-6,5
1523149952372199,-1,-5,-13,8,-3,-2,-8,-5
1523149952372199,-2,-3,-15,-35,-5,-7,-15,-10
1523149952374010,-1,-5,19,24,6,3,3,6
1523149952374010,-2,-3,-13,-16,-4,-5,-13,-1
1523149952394584,-1,3,8,7,1,1,-1,-2
1523149952394584,-2,-6,-10,23,-7,-1,30,-3
1523149952396571,0,4,0,-20,2,-1,-8,2
1523149952396571,0,-3,2,1,5,2,-1,-27
1523149952409613,-2,-6,-1,-20,-6,-4,-4,2
1523149952409613,0,4,8,2,2,0,-10,-2
1523149952411612,-1,-1,-4,1,7,3,2,3
1523149952411612,1,-4,20,45,-3,1,4,0
1523149952432243,-2,2,-8,19,-6,-8,-2,3
1523149952432243,2,1,1,6,3,-1,-11,-9
1523149952433672,0,-1,4,-1,-1,1,14,15
1523149952433672,3,-1,-2,0,5,4,-1,0
1523149952454725,-1,3,1,-11,-2,-2,-2,16
1523149952454725,-6,-4,-11,-18,-8,-3,-10,-29
1523149952456230,0,-2,8,-7,-4,0,0,0
1523149952456230,-1,-2,-3,0,2,-4,-7,0
1523149952469839,-1,3,7,-11,-2,-1,5,0
1523149952469839,1,-7,-12,-12,-6,-3,-3,9
1523149952471270,2,-2,1,-13,-4,-4,-8,9
1523149952471270,-7,-2,-4,-5,0,0,12,-22
1523149952492395,4,0,-1,-8,2,0,-29,14
1523149952492395,5,-4,-3,-6,0,0,16,10
1523149952493830,-5,-1,-8,-3,0,2,3,-12
1523149952493830,-9,0,-4,-3,-1,0,0,2
1523149952514925,-1,0,-19,-5,2,0,-3,-6
1523149952514925,0,-2,35,2,-4,-4,-11,1
1523149952516393,6,-1,-31,-7,-3,-1,4,2
1523149952516393,0,0,25,-3,-1,-3,-4,7
1523149952528993,-1,2,-25,-4,-1,1,10,-11
1523149952528993,-2,1,-7,-4,0,-1,-6,20
1523149952535945,-8,-4,19,-6,-2,-2,0,-33
1523149952535945,2,0,-2,-2,0,-2,-2,5
1523149952551985,7,1,15,-2,0,0,2,5
1523149952551985,5,-3,-5,-6,-1,-2,0,-5
1523149952558571,-1,0,-6,0,1,-2,-2,31
1523149952558571,14,2,-5,0,1,-1,-1,-26
1523149952574613,-20,-6,30,-5,-6,-2,-10,10
1523149952574613,-38,-12,-32,-6,4,-3,-3,-93
1523149952576549,14,7,24,1,-2,1,-9,-7
1523149952576549,24,-5,-21,-10,-4,-2,2,107
1523149952589152,-23,-7,-15,-7,-6,-4,18,-30
1523149952589152,-7,0,7,-1,-5,-4,-12,14
1523149952596101,-13,-3,-3,-1,5,0,9,-10
1523149952596101,12,4,-11,-3,0,1,-3,19
1523149952619666,26,0,7,0,-2,-2,2,29
1523149952619666,-23,0,18,-3,-1,-7,-12,-7
1523149952621169,-1,-6,-30,-7,-5,2,8,-9
1523149952621169,2,1,-18,0,-1,1,17,-3
1523149952634704,13,0,15,-3,-1,1,5,33
1523149952634704,-15,-4,-7,-1,-2,-1,-6,-43
1523149952636209,6,-1,7,0,-2,-5,-8,1
1523149952636209,-4,-3,0,-1,1,1,-2,38
1523149952649252,-26,-3,-7,-2,1,-4,-11,-72
1523149952649252,22,4,-1,0,-1,1,5,21
1523149952655830,1,-3,-15,-3,-2,-3,-10,10
1523149952655830,-13,-2,5,3,3,-2,-11,-25
1523149952672374,6,0,-7,11,6,10,58,4
1523149952672374,12,1,-1,7,-8,1,-13,55
1523149952673809,-8,0,15,1,0,-1,12,-13
1523149952673809,-7,-2,1,20,-10,-4,-9,-17
1523149952694921,-1,-1,-4,4,7,-2,-14,2
1523149952694921,5,-3,-21,38,-2,1,2,4
1523149952696402,-3,-3,-17,-28,-6,-4,2,11
1523149952696402,-6,0,3,0,1,0,-7,-29
1523149952708973,1,0,6,10,0,0,-18,-4
1523149952708973,5,1,16,11,3,1,8,8
1523149952715991,2,1,10,40,5,-1,-11,-3
1523149952715991,-8,-8,-53,-88,-27,-9,-4,-12
1523149952732464,-1,-3,3,24,5,3,-5,1
1523149952732464,4,0,7,7,3,1,1,7
1523149952733970,-3,-2,-10,7,-4,-5,-8,4
1523149952733970,-5,5,4,-5,3,-3,-13,3
1523149952754594,-2,0,-4,-21,-7,-8,0,-21
1523149952754594,2,0,0,-36,3,3,14,15
1523149952756528,-1,-2,4,-19,-1,0,-3,4
1523149952756528,-3,1,14,32,11,5,-8,-16
1523149952769064,-3,-3,-16,-34,-22,-8,-14,1
1523149952769064,-2,-3,-16,-17,-4,-4,-10,3
1523149952776080,0,9,7,23,-1,0,-6,28
1523149952776080,-3,-9,-4,-31,0,-3,11,-25
1523149952792192,2,-3,-4,-5,8,4,6,7
1523149952792192,0,-3,-3,14,-2,-2,-8,-9
1523149952793628,-1,-2,-12,-15,-1,0,2,5
1523149952793628,-2,2,7,40,-3,-3,-14,-1
1523149952814756,1,9,19,-30,3,1,-1,1
1523149952814756,-1,-1,6,-33,2,0,3,1
1523149952816189,-8,-18,-35,-1,-23,-9,13,5
1523149952816189,0,0,14,7,8,2,-13,-8
1523149952828289,-2,-3,2,27,-3,-1,7,-2
1523149952828289,2,13,10,-5,4,4,3,7
1523149952837243,-1,-5,-6,-8,4,0,-7,9
1523149952837243,-1,-2,2,6,0,2,0,28
1523149952852341,0,2,6,-10,0,2,27,3
1523149952852341,1,-3,-21,-9,-4,-4,14,-5
1523149952853789,-2,3,34,30,4,0,-4,-13
1523149952853789,-2,-5,-50,-47,-7,-4,-1,0
1523149952874842,1,1,10,14,2,0,-8,5
1523149952874842,0,-2,-11,-15,-4,-4,-14,-6
1523149952876349,1,4,30,40,6,4,6,-9
1523149952876349,-5,-8,-59,22,-5,6,12,-14
1523149952897423,-6,-9,-45,-80,-18,-11,-15,0
1523149952897423,-1,-5,-4,51,-6,-2,-3,-6
1523149952898909,-2,5,36,8,6,-3,-8,-11
