timestamp,emg1,emg2,emg3,emg4,emg5,emg6,emg7,emg8
1523053729002878,-1,-3,0,-1,1,-1,-24,0
1523053729002878,-1,-2,-3,0,-2,-5,-18,-2
1523053729003880,-2,0,3,-2,-4,-10,3,0
1523053729003880,1,-4,-2,-1,2,14,24,4
1523053729004882,-1,-3,-3,-4,-2,1,16,-1
1523053729004882,0,0,-1,-1,1,-4,-14,0
1523053729006888,-1,-4,1,-6,-4,-2,-24,-3
1523053729006888,-2,-4,-3,-1,-2,-3,-5,-3
1523053729013907,-4,-5,-5,1,2,-1,-3,-4
1523053729013907,1,2,-8,-3,-2,1,8,1
1523053729021427,-4,-6,10,0,0,3,7,0
1523053729021427,1,8,6,3,-3,-6,-3,1
1523053729028953,-2,-5,-26,-5,-1,0,-2,-1
1523053729028953,0,1,15,2,0,-1,5,-1
1523053729046998,2,4,-3,2,1,2,3,0
1523053729046998,0,6,14,4,0,-2,-7,-1
1523053729050004,-1,-9,-19,-8,-2,0,-1,2
1523053729050004,-4,-6,17,3,-2,1,6,-2
1523053729074569,-4,-3,-29,-2,-4,-3,-5,-3
1523053729074569,-1,-1,6,6,-1,-4,-15,-5
1523053729075572,2,8,13,3,3,2,42,3
1523053729075572,0,-2,-4,-3,-1,0,-7,1
1523053729113673,-1,1,8,2,-3,-7,-14,-4
1523053729113673,2,3,15,14,6,2,-4,1
1523053729114221,-6,-11,-16,-30,-6,-12,-29,-7
1523053729114221,-2,-2,-1,8,-4,-9,-27,-2
1523053729115223,1,0,4,2,-2,-8,-6,-4
1523053729115223,-1,2,2,2,0,4,25,3
1523053729118231,1,3,19,9,2,-5,-17,-3
1523053729118231,0,0,-5,-7,2,3,0,-1
1523053729125250,-1,-6,-12,-8,-4,1,-2,2
1523053729125250,-1,-6,9,3,0,0,-5,-2
1523053729132770,0,0,-8,1,-2,-1,7,0
1523053729132770,0,-3,-6,-5,-1,1,16,1
1523053729141293,1,12,0,3,-1,2,4,0
1523053729141293,-2,-5,-8,-9,-4,-3,-6,-3
1523053729154829,-2,-7,-5,2,2,4,-3,0
1523053729154829,-1,-7,-4,-8,-5,-2,3,0
1523053729163853,0,5,7,5,2,3,3,0
1523053729163853,-3,-2,-20,-21,-2,-7,-38,-4
1523053729186414,2,4,6,5,1,14,33,5
1523053729186414,-1,1,7,-4,1,1,31,-2
1523053729187917,0,-6,-9,6,1,-5,-20,-3
1523053729187917,0,1,-18,-20,-10,6,30,1
1523053729200951,0,2,12,7,1,-5,9,-3
1523053729200951,1,4,-14,-15,-1,-1,-13,-1
1523053729207468,-7,-14,-51,-14,1,3,8,-4
1523053729207468,0,-1,0,5,-5,-9,-20,8
1523053729224013,-6,0,-20,-8,-3,-4,19,-18
1523053729224013,-2,1,8,12,-2,-1,20,1
1523053729225517,4,7,43,22,0,-19,-59,-4
1523053729225517,-2,-6,-26,-18,6,8,12,4
1523053729246579,1,2,43,27,-3,-9,-47,4
1523053729246579,-1,-3,-17,-50,-3,-1,-51,-5
1523053729248077,-2,1,-53,14,-7,7,51,2
1523053729248077,0,6,76,-4,5,7,22,-2
1523053729260610,-5,-27,-68,-30,-1,0,-23,-1
1523053729260610,-7,-3,-29,48,-6,-5,5,-5
1523053729267628,-2,6,25,-72,-2,13,16,4
1523053729267628,-4,-8,6,-4,-14,-27,-70,-19
1523053729283671,8,17,33,21,9,15,73,10
1523053729283671,1,14,38,6,4,-16,-33,-11
1523053729285677,-2,-32,-1,-21,11,19,54,38
1523053729285677,-3,2,-11,13,0,19,24,3
1523053729306231,2,4,14,6,-2,-5,-3,3
1523053729306231,3,-6,9,0,5,29,22,17
1523053729308237,4,19,36,22,2,11,-36,2
1523053729308237,-7,-7,-4,-1,8,-2,-1,-51
1523053729320270,-12,-7,-15,-4,-9,3,-4,10
1523053729320270,-3,-2,7,0,0,1,33,-1
1523053729329293,-4,-3,5,10,-1,-18,-20,-8
1523053729329293,5,-1,-19,11,0,-5,-28,11
1523053729343834,5,11,-9,-13,-1,22,74,1
1523053729343834,1,1,-8,-2,-3,-13,-48,-11
1523053729345837,1,-2,-9,0,-2,5,30,2
1523053729345837,-6,-2,-2,7,-6,-16,-22,-1
1523053729366392,4,8,10,-1,-5,-29,-55,-5
1523053729366392,-3,-15,-2,-2,2,15,9,3
1523053729367897,0,-1,-8,-5,-9,-27,-65,-14
1523053729367897,2,10,1,-8,-11,-24,-34,-2
1523053729379984,-2,1,-1,-1,2,2,31,2
1523053729379984,1,-7,-6,5,1,-3,1,-2
1523053729388954,-2,3,-3,3,-2,-2,49,-4
1523053729388954,-10,-13,0,4,1,13,25,10
1523053729404025,-1,-4,-4,-3,-1,-7,-40,3
1523053729404025,10,5,1,1,-1,-1,10,-9
1523053729405497,-5,-1,6,3,-5,-7,-24,8
1523053729405497,8,16,-1,-3,0,2,44,9
1523053729426553,4,-12,0,-2,-2,-1,-17,3
1523053729426553,9,0,0,2,4,9,46,30
1523053729428057,-13,0,5,3,2,-1,-13,-47
1523053729428057,0,-5,-8,-2,-4,0,2,-4
1523053729441646,-5,-1,-4,-3,-1,-4,-17,11
1523053729441646,3,5,1,-2,-6,-6,-3,5
1523053729449113,0,-6,-4,1,-4,-2,9,3
1523053729449113,-1,-1,-2,1,1,1,-4,-3
1523053729463652,1,-2,1,-2,-2,-2,-7,-12
1523053729463652,3,-2,5,1,3,4,-6,-6
1523053729465693,-19,-5,-11,0,0,13,48,10
1523053729465693,-1,-3,-4,2,2,-1,-16,-8
1523053729486210,2,-2,2,-2,-2,1,7,2
1523053729486210,-8,-3,-5,-5,-7,-14,-37,-5
1523053729488270,6,-1,2,1,-1,-5,-17,-11
1523053729488270,1,0,4,6,3,-2,15,9
1523053729500248,-4,-3,-1,-1,1,-2,-2,-5
1523053729500248,-4,-1,-1,-3,-4,-3,7,-7
1523053729509271,6,-1,2,-1,-3,2,-1,1
1523053729509271,-3,0,-4,-3,-2,0,-6,5
1523053729523810,0,-6,-2,7,-1,-6,-9,-5
1523053729523810,-7,0,5,-4,1,-9,-3,-6
1523053729525314,4,2,-7,-6,1,6,3,5
1523053729525314,-2,-7,-5,10,-3,0,0,2
1523053729546371,-2,1,40,28,2,1,-8,-10
1523053729546371,-2,0,-25,0,-3,-11,-28,-2
1523053729547876,1,2,58,-17,4,3,-1,4
1523053729547876,2,-1,6,11,4,0,8,4
1523053729559961,1,4,12,9,-4,1,10,3
1523053729559961,-5,-3,27,-2,3,-1,-13,-4
1523053729568934,0,-9,-1,11,2,5,13,1
1523053729568934,3,10,37,27,5,3,-6,-2
1523053729584005,-6,-11,-86,-50,-2,9,28,2
1523053729584005,4,16,40,77,5,-3,-17,0
1523053729585475,-1,-14,-64,-92,-10,1,47,0
1523053729585475,0,-6,17,34,0,7,47,4
1523053729608036,-1,5,31,11,5,11,10,2
1523053729608036,-6,-6,-96,-69,-10,-9,-11,-7
1523053729609540,6,4,31,49,2,-1,-14,3
1523053729609540,7,20,-50,-42,-1,-15,-69,-4
1523053729620066,3,-5,15,-14,2,7,64,2
1523053729620066,-19,-20,-7,-39,-11,-19,-43,-16
1523053729629125,7,4,56,46,1,6,23,7
1523053729629125,-5,-3,-61,-51,-4,-15,-51,-11
1523053729644131,1,3,-35,-12,-4,4,34,8
1523053729644131,5,11,7,-17,-6,0,-11,8
1523053729645635,-6,-6,7,61,-3,-10,-45,-20
1523053729645635,-4,-8,-31,-17,-1,7,-4,-4
1523053729666190,5,5,-3,10,5,14,41,5
1523053729666190,1,-2,32,32,3,14,48,6
1523053729668249,-3,-1,-52,-43,-5,-13,-26,-1
1523053729668249,0,-2,32,13,2,4,18,5
1523053729680262,-7,-5,6,-6,-9,-20,-48,-10
1523053729680262,3,1,-30,-25,4,6,-15,3
1523053729689265,-2,1,79,61,10,18,56,8
1523053729689265,1,-2,-8,-14,-5,-1,4,-1
1523053729703845,-1,1,29,9,0,-7,-39,-6
1523053729703845,3,-1,-25,-34,0,7,26,3
1523053729705296,-1,-3,-30,-29,-15,-20,5,-2
1523053729705296,-4,-5,12,16,2,11,48,4
1523053729726351,-2,0,-11,-2,0,3,-11,0
1523053729726351,-1,1,16,11,-1,-1,2,-2
1523053729727855,2,2,-48,-33,-3,-5,-28,-3
1523053729727855,-1,-2,60,14,1,2,1,3
1523053729739943,-3,-6,-17,-7,-6,-13,-35,-9
1523053729739943,-4,-4,19,11,0,-3,-1,-5
1523053729748912,0,1,-13,-16,-3,-2,-14,-1
1523053729748912,1,2,35,20,1,2,9,2
1523053729764005,0,-3,-34,-27,0,-4,-22,-5
1523053729764005,0,-5,-6,6,-2,2,15,-2
1523053729765455,0,2,12,14,2,0,-9,0
1523053729765455,0,-3,-15,-4,-1,0,-8,-1
1523053729786511,-2,-3,7,5,0,0,-2,-2
1523053729786511,-1,2,21,16,-1,1,2,-1
1523053729788015,0,-1,-50,-25,-3,-4,-6,-2
1523053729788015,-3,-4,-21,-4,-5,-14,-33,-7
1523053729800047,-1,0,15,10,-1,4,-24,1
1523053729800047,3,-1,16,13,6,3,31,0
1523053729809071,1,5,9,6,6,10,10,0
1523053729809071,-5,-9,-8,-11,-1,3,-12,-1
1523053729824110,-2,0,2,0,-5,-4,-6,-6
1523053729824110,2,1,-5,2,1,16,54,4
1523053729825614,-6,-4,3,-5,-8,-17,-31,-10
1523053729825614,3,-4,-3,-2,-3,0,10,1
1523053729846169,1,-1,5,2,-1,-1,-10,-2
1523053729846169,2,9,-1,1,-1,-3,-13,-1
1523053729848174,7,14,-2,1,1,7,13,2
1523053729848174,-8,-8,1,2,-1,1,23,-2
1523053729860206,1,2,0,0,-2,-4,-8,-2
1523053729860206,-3,-10,-2,0,-3,-7,-20,0
1523053729869233,0,2,2,-1,-1,0,-1,-9
1523053729869233,2,6,4,-4,0,-2,-3,10
1523053729883770,-1,3,4,4,1,2,15,16
1523053729883770,-5,-5,-4,-5,-6,-23,-49,-14
1523053729885774,-2,-4,3,7,6,24,88,13
1523053729885774,5,5,0,1,0,0,-11,-13
1523053729906329,-3,-2,0,3,-2,-7,-3,-7
1523053729906329,-6,-10,-3,-3,-4,2,14,28
1523053729907833,3,-1,2,-2,-3,-13,-61,-12
1523053729907833,-2,0,-4,0,-1,6,25,3
1523053729919864,2,3,1,-2,0,-2,2,-10
1523053729919864,0,1,-1,0,-4,-4,-15,-10
1523053729928889,-6,-4,1,2,2,-6,-22,3
1523053729928889,0,-4,-5,1,1,3,19,-12
1523053729943429,-2,-4,-1,-2,-2,-1,20,29
1523053729943429,0,0,3,0,0,6,-5,-12
1523053729949944,-2,-2,-2,-3,-2,-1,-23,0
1523053729949944,0,-2,-1,-1,1,-2,12,-4
1523053729966488,-4,-1,0,0,-2,-4,-20,-11
1523053729966488,-1,-3,-4,1,0,3,16,3
1523053729967993,0,-7,4,-4,-4,-9,-15,-4
1523053729967993,1,11,1,-3,-1,-3,-28,2
1523053729989049,-2,-8,-4,2,2,3,9,-3
1523053729989049,1,4,3,0,1,-1,-6,-1
1523053729990553,-3,-6,-3,-3,-2,-2,-12,-5
1523053729990553,-1,3,5,8,1,-1,6,5
1523053730004090,-1,-2,-1,-5,0,6,-5,-3
1523053730004090,-1,-3,-5,-2,-5,1,19,-5
1523053730005594,-2,-3,-9,6,2,-2,-8,1
1523053730005594,-3,-5,-17,-17,-6,-4,-7,2
1523053730026650,1,5,15,12,0,-4,-21,-8
1523053730026650,-1,-1,-14,-27,-5,-5,4,-2
1523053730028153,0,2,4,3,5,5,-1,2
1523053730028153,-5,-14,-22,7,-14,-11,-14,-4
1523053730048708,1,12,55,-15,2,-3,-6,-5
1523053730048708,1,-10,38,15,7,3,-13,1
1523053730050714,-8,-1,-25,-50,-9,0,19,-2
1523053730050714,-1,-13,17,8,1,0,0,-8
1523053730063747,4,11,20,14,0,-3,-9,5
1523053730063747,5,13,58,30,8,7,-3,2
1523053730065752,8,11,8,-18,3,2,-1,2
1523053730065752,-2,-1,-56,-19,4,8,30,7
1523053730084805,-6,-13,2,-38,-13,5,34,-1
1523053730084805,6,9,32,30,7,5,34,5
1523053730094330,-1,-4,-24,-21,-5,-10,11,-4
1523053730094330,-1,-8,4,-28,-1,-1,-41,3
1523053730108868,-2,-7,21,45,4,2,0,-4
1523053730108868,-6,1,-59,-1,-7,7,-9,2
1523053730110372,1,-1,19,5,-4,-7,-5,-6
1523053730110372,6,19,45,3,-2,-13,-12,-3
1523053730131484,0,-5,-31,15,2,-4,-20,-3
1523053730131484,-10,-19,-79,-37,-8,-8,-42,-16
1523053730132932,-3,-4,-2,14,0,9,16,9
1523053730132932,-3,0,-6,-8,-5,0,3,0
1523053730144964,-1,-2,-9,-1,-1,-8,-19,-4
1523053730144964,1,0,-10,-27,-1,-4,-12,-4
1523053730153988,-1,1,19,23,6,0,-15,-2
1523053730153988,-5,-10,-20,-6,-7,-10,10,-2
1523053730169027,0,1,1,-8,0,3,22,1
1523053730169027,1,4,25,-17,-3,-5,-4,0
1523053730170572,-3,-3,13,57,-2,-4,-7,-2
1523053730170572,-1,-5,22,-1,4,6,10,0
1523053730191587,-1,4,-25,1,2,-9,-18,-5
1523053730191587,-2,-13,-17,-39,-8,0,26,3
1523053730193093,5,10,27,-4,7,9,-8,3
1523053730193093,-6,-6,-81,-17,-11,-6,-3,-4
1523053730205125,-3,-9,-21,-2,-7,-8,16,1
1523053730205125,1,3,14,15,4,2,-1,1
1523053730214182,-3,1,8,-6,-1,-7,6,-2
1523053730214182,1,10,53,3,3,1,-13,0
1523053730228686,-2,0,5,-5,-2,-3,-28,-6
1523053730228686,0,-8,-1,25,2,9,27,5
1523053730230703,-5,-2,-7,-8,-11,-19,-23,-9
1523053730230703,2,2,-6,2,0,-1,-6,0
1523053730251247,-2,0,-9,-2,-2,-1,-1,-4
1523053730251247,0,3,5,3,-1,-4,-24,-2
1523053730253253,2,4,5,9,3,5,6,1
1523053730253253,0,-1,8,7,-1,5,23,1
1523053730265285,-12,-27,-16,-14,-3,-4,-5,-4
1523053730265285,3,13,3,5,-2,-7,-5,-3
1523053730273806,0,-4,-16,-8,-3,2,-12,2
1523053730273806,4,10,10,13,4,3,17,3
1523053730288846,1,7,-2,-6,-4,-8,-23,2
1523053730288846,-2,-6,4,11,2,-2,11,0
1523053730290350,-4,-2,-7,-2,-2,1,-12,-1
1523053730290350,0,-4,7,4,0,5,35,2
1523053730311406,-4,-17,-3,-4,-2,-1,-7,-2
1523053730311406,-2,5,-1,0,-1,-1,-1,-2
1523053730312910,0,0,-6,-5,-2,1,9,-1
1523053730312910,1,3,10,9,5,7,0,-6
1523053730324942,3,7,-1,-1,3,6,24,11
1523053730324942,-2,2,-2,2,-1,-3,-7,10
1523053730333967,-4,-14,-3,-6,-3,-8,-11,-8
1523053730333967,-2,4,7,5,-1,-1,-8,-1
1523053730349007,0,4,-1,0,-3,2,-8,-18
1523053730349007,-2,-4,-1,-1,-2,-3,-10,6
1523053730350511,0,0,0,-1,-1,2,8,15
1523053730350511,-2,-4,2,1,-1,-2,-14,-11
1523053730371567,2,3,-2,-1,1,4,7,3
1523053730371567,-2,-3,-1,-1,-3,1,12,-10
1523053730373078,-3,-3,-3,-3,-1,-1,-1,-4
1523053730373078,0,-1,-1,-1,-5,-18,-9,5
1523053730385103,-2,3,2,1,4,19,1,-3
1523053730385103,-2,-1,-8,0,-6,-7,3,-8
1523053730394128,-1,-2,-4,0,2,2,-9,7
1523053730394128,-1,-1,3,-1,-2,2,12,13
1523053730408665,1,1,1,0,-1,-7,1,-4
1523053730408665,-2,-3,0,0,-1,-3,-17,-5
1523053730410672,0,-1,-3,-2,-4,3,4,-7
1523053730410672,-1,-3,0,0,1,-4,-18,-4
1523053730431225,-2,0,-3,-4,-5,-4,7,7
1523053730431225,-1,-2,0,-2,1,7,26,0
1523053730433233,2,1,-1,0,-1,-7,-7,-7
1523053730433233,-3,2,0,-1,0,12,14,5
1523053730453787,0,-4,3,1,0,-4,-4,1
1523053730453787,-3,-1,2,0,0,-1,-5,-3
1523053730455290,-1,-1,-11,1,-1,1,12,0
1523053730455290,-2,0,10,9,-5,-5,-16,-5
1523053730468825,1,1,-2,-8,4,15,47,5
1523053730468825,-2,-1,-4,2,2,-2,-2,0
1523053730470330,-2,-3,15,-1,-3,-6,-23,-2
1523053730470330,0,1,14,4,0,1,-3,-3
1523053730491385,-2,1,-40,-24,-13,-12,-12,-5
1523053730491385,0,-5,22,-5,3,0,2,1
1523053730492895,-4,-4,-5,-9,-1,0,12,0
1523053730492895,0,-1,13,12,3,4,5,-3
1523053730513945,2,15,18,12,2,-8,-17,3
1523053730513945,3,-7,-2,-4,-1,-2,-8,0
1523053730515451,2,-2,21,0,-3,-1,6,-4
1523053730515451,-15,-16,-16,4,0,4,10,0
1523053730528986,0,-5,9,19,-2,-12,-11,-3
1523053730528986,0,10,-23,-7,0,3,-20,-4
1523053730530490,0,-9,-14,-9,-1,-4,-28,-2
1523053730530490,2,4,-22,-2,-4,-12,13,1
1523053730551545,1,4,34,3,6,7,-2,1
1523053730551545,-6,-9,-68,-12,-7,-3,5,-4
1523053730553051,-5,-6,-13,-27,-5,2,9,-5
1523053730553051,3,5,4,-7,-2,5,16,3
1523053730574105,-3,-5,0,7,-5,-4,-1,-6
1523053730574105,5,6,66,36,6,-8,-25,0
1523053730575611,-5,-10,-63,-33,-6,4,11,-2
1523053730575611,2,2,-22,-24,-4,12,26,4
1523053730588645,-3,7,-7,8,1,-11,-39,-7
1523053730588645,0,-3,26,0,3,3,3,2
1523053730590651,0,0,-1,32,3,-6,17,2
1523053730590651,1,-1,24,7,-6,3,31,-2
1523053730611705,-6,-17,-105,-87,-8,6,27,-1
1523053730611705,-4,-6,9,43,-2,9,0,4
1523053730617721,6,20,37,35,5,-7,-16,-3
1523053730617721,7,19,46,22,5,-2,-24,4
1523053730633763,-9,-28,-70,-26,-6,-11,-13,-7
1523053730633763,-2,-4,10,-6,0,0,6,-3
1523053730635770,-4,-7,37,28,3,3,-27,-4
1523053730635770,0,11,30,20,1,2,-19,-2
1523053730648303,3,14,20,0,1,-10,-11,-4
1523053730648303,5,3,-32,-19,-2,-9,-21,-1
1523053730662339,-15,-20,-14,-18,-13,-10,-24,-6
1523053730662339,6,6,47,42,14,3,8,0
1523053730671363,-4,-8,-16,-11,-4,-3,-21,1
1523053730671363,-3,0,15,-9,-4,-9,-15,-2
1523053730672868,7,17,16,6,4,5,4,2
1523053730672868,-7,-17,-10,-22,-6,-11,-38,-9
1523053730693924,-3,0,-7,1,-2,7,19,0
1523053730693924,0,4,-7,-2,-5,-10,-22,-6
1523053730695429,3,8,7,-4,2,2,10,4
1523053730695429,-4,-7,-31,-8,3,-7,-27,-5
1523053730708464,3,-4,23,27,-5,-7,-4,-1
1523053730708464,-1,7,-3,-16,-2,8,-5,0
1523053730714980,1,2,41,17,14,14,36,7
1523053730714980,-12,-38,-124,-51,-15,-12,-15,-9
1523053730731524,5,16,50,11,7,1,9,4
1523053730731524,1,1,19,10,1,9,46,3
1523053730733029,1,-3,-1,-19,-5,3,17,0
1523053730733029,-1,1,1,6,2,-5,-20,-2
1523053730754084,1,6,21,11,2,8,13,3
1523053730754084,1,3,-16,0,-1,1,33,4
1523053730755642,1,-4,-41,-14,0,6,26,4
1523053730755642,0,0,-2,-13,-4,-2,-5,-4
1523053730768175,0,0,36,33,2,2,-5,-2
1523053730768175,-3,-7,-13,6,-1,-8,-25,-6
1523053730775140,-7,-14,-68,-55,-14,-14,-41,-8
1523053730775140,1,4,18,8,1,2,11,1
1523053730791182,0,-1,9,-5,2,6,6,1
1523053730791182,0,0,11,6,1,-4,-11,-2
1523053730793189,-2,-2,20,3,-7,-5,1,-1
1523053730793189,1,2,1,-4,1,0,-2,-4
1523053730813742,0,-2,11,9,-1,-6,-20,0
1523053730813742,-1,-2,-18,-20,-5,-5,-6,-2
1523053730815748,2,11,11,18,2,-2,-5,0
1523053730815748,2,-9,4,-4,-1,-2,24,4
1523053730828283,-9,-9,-2,-2,-1,6,17,-2
1523053730828283,0,3,0,-3,-2,-4,-11,-4
1523053730835302,2,5,0,0,-2,-2,1,1
1523053730835302,2,7,7,3,-1,-4,-12,-1
1523053730851343,0,-4,-11,-4,-1,4,10,1
1523053730851343,-4,-5,-5,-6,-2,-1,-1,-2
1523053730852847,0,-2,5,10,-1,-2,-9,-2
1523053730852847,-5,-2,-8,-8,-4,-3,-9,-10
1523053730873937,0,1,4,3,0,1,1,13
1523053730873937,-2,-2,0,-4,2,19,51,13
1523053730875409,1,-1,4,5,2,4,27,-4
1523053730875409,-2,-1,-1,-2,0,-2,-15,1
1523053730888443,0,1,-2,-3,0,0,-2,-10
1523053730888443,0,0,2,-3,-4,-12,-18,-7
1523053730894960,-3,-3,-6,1,1,-1,-34,1
1523053730894960,-2,-1,-2,-3,-4,1,-2,16
1523053730911504,0,1,1,1,0,-10,-9,-29
1523053730911504,3,-2,-2,-4,1,18,55,29
1523053730913007,-3,-4,0,4,-4,-11,-76,-47
1523053730913007,-1,3,-6,-4,2,2,17,-62
1523053730934062,3,-1,-1,2,-1,-7,-7,114
1523053730934062,-6,-9,-3,-7,-4,-8,-11,-42
1523053730935567,-1,0,1,0,3,7,51,-91
1523053730935567,0,2,3,1,-2,-3,-38,33
1523053730948100,0,-1,3,-2,-3,-7,-8,-29
1523053730948100,-2,-3,-11,-1,-3,-8,-6,-5
1523053730955118,1,0,-1,1,-1,3,7,51
1523053730955118,-4,-2,-3,-3,-1,0,-2,-37
1523053730971163,-4,-2,-1,-2,-2,-3,-32,7
1523053730971163,2,0,2,2,0,0,-46,20
1523053730973168,-1,-1,-2,-2,-3,1,16,-1
1523053730973168,-3,-2,0,1,2,0,5,11
1523053730993722,0,-2,-4,-2,-4,-1,-11,-22
1523053730993722,-2,-1,1,0,-2,-5,-12,-17
1523053730995728,-1,0,-4,-1,-1,-2,6,17
1523053730995728,0,-1,2,2,-1,3,14,11
1523053731007759,0,-2,0,3,3,5,15,-5
1523053731007759,-3,-2,-1,-2,-2,-6,5,-11
1523053731016785,-2,-2,-1,1,1,-1,7,15
1523053731016785,1,0,1,-3,-3,0,9,15
1523053731031355,0,0,-1,0,0,5,19,-21
1523053731031355,1,-1,1,-1,0,-1,-5,0
1523053731032827,1,2,-4,-7,-4,-5,-16,9
1523053731032827,-2,-3,10,10,-1,-2,-1,-5
1523053731053882,0,1,12,6,7,7,9,-9
1523053731053882,-3,-5,-23,-25,-5,-3,-8,1
1523053731055387,1,3,17,11,0,1,20,15
1523053731055387,0,-4,-33,-12,-4,-4,-19,-5
1523053731067417,4,7,16,34,7,16,14,1
1523053731067417,0,5,-19,-13,-1,-7,-6,3
1523053731076443,-4,-10,-1,-3,-2,-11,-15,-5
1523053731076443,-16,-38,-75,-54,-17,-13,-19,-7
1523053731091482,3,17,-1,-1,-2,-3,-4,-9
1523053731091482,-1,5,20,5,1,5,-12,-4
1523053731092986,5,13,20,1,4,-2,-15,4
1523053731092986,0,6,46,17,4,7,6,4
1523053731114042,-4,-20,-37,-23,-16,-8,7,-6
1523053731114042,-1,3,9,16,-1,10,72,5
1523053731115546,-3,-11,12,6,1,-2,-7,0
1523053731115546,2,9,20,-5,4,-3,-13,2
1523053731127578,3,-1,31,16,8,-1,-2,-5
1523053731127578,0,5,9,-25,-2,-20,-98,-9
1523053731136602,-6,-15,13,30,-2,9,26,4
1523053731136602,2,7,3,-7,-4,-8,6,3
1523053731151141,-1,8,11,7,-2,-5,5,-3
1523053731151141,0,-4,14,22,-1,12,43,5
1523053731153147,7,-1,-2,3,2,6,4,8
1523053731153147,4,21,41,23,14,8,-2,-2
1523053731173701,-18,-23,-20,-31,-4,-1,21,-8
1523053731173701,-1,-8,-33,19,-4,16,34,5
1523053731175706,-3,8,21,-6,-5,-8,-27,-5
1523053731175706,15,19,60,29,14,8,38,9
1523053731187739,3,-7,-88,-12,-3,7,8,3
1523053731187739,-2,-3,10,-1,5,11,21,0
1523053731196764,-2,-3,10,-3,-2,-14,-58,-5
1523053731196764,3,8,-6,1,2,12,18,3
1523053731218822,-4,1,24,28,-3,-32,-91,-9
1523053731218822,-8,-22,-79,-66,-11,-12,-31,-6
1523053731220326,0,9,13,23,-2,3,9,-2
1523053731220326,-6,-2,27,9,-5,-11,-29,-7
1523053731233861,-3,-13,-25,-36,-4,1,6,-1
1523053731233861,0,8,38,24,-1,-3,-8,-3
1523053731235367,2,5,9,-12,5,11,19,2
1523053731235367,-5,-9,-46,-20,-10,-10,-7,-5
1523053731247397,5,6,41,23,3,6,13,0
1523053731247397,-5,-7,-70,-27,-10,-13,-4,-5
1523053731256421,0,2,5,36,8,13,25,5
1523053731256421,-6,-11,-38,-45,-10,1,20,0
1523053731271460,0,-8,-34,-15,-5,-14,-37,-5
1523053731271460,1,5,10,18,6,11,64,11
1523053731273000,1,7,-30,-30,-4,1,-15,-2
1523053731273000,-3,-31,-4,16,1,15,22,4
1523053731294022,1,17,1,-8,1,13,5,0
1523053731294022,-2,-5,5,8,2,-10,-28,-9
1523053731295580,0,5,-14,-7,-4,-6,-1,-1
1523053731295580,0,0,28,11,-5,-11,-6,-1
1523053731307611,7,2,9,-4,2,0,6,5
1523053731307611,-8,-7,31,11,4,14,26,0
1523053731316583,-1,3,-6,-3,-1,-1,-10,-3
1523053731316583,-2,-1,-8,3,-1,-6,-25,-5
1523053731331622,-4,-4,-1,-2,-4,-6,-52,-8
1523053731331622,3,5,12,4,-1,-3,-2,0
1523053731333127,-3,-11,-13,-10,0,4,16,1
1523053731333127,-2,1,-23,-6,0,2,8,-1
1523053731353679,-3,2,13,-5,-5,-7,-10,-4
1523053731353679,2,0,15,5,2,-7,-23,0
1523053731355704,-3,-6,-20,-18,-6,-11,-11,-3
1523053731355704,-1,4,-1,4,0,-7,-47,-3
1523053731376306,-1,-3,12,5,2,7,40,3
1523053731376306,2,5,12,0,-2,-9,-21,-6
1523053731378246,-2,-8,-17,-6,-3,-3,19,2
1523053731378246,0,1,-7,0,0,8,12,-1
1523053731391334,3,9,10,5,3,9,36,6
1523053731391334,0,3,1,-1,0,1,13,5
1523053731392784,-4,-17,-11,-9,-3,-4,9,-1
1523053731392784,2,16,-1,1,-3,-3,5,-2
1523053731413874,-1,-8,-3,-4,-1,-1,-2,-2
1523053731413874,2,2,6,4,0,0,-10,-2
1523053731415346,1,7,1,-1,0,0,2,0
1523053731415346,-3,-6,-4,0,-1,2,8,4
1523053731436399,-1,-1,-1,0,-1,1,13,1
1523053731436399,1,3,3,-1,-4,-10,-33,-6
1523053731437904,-4,-7,-3,-2,-3,-4,-12,1
1523053731437904,-2,-3,-7,-5,-6,-5,-6,-2
1523053731451494,-1,4,0,0,-1,-2,-6,-2
1523053731451494,-2,-7,3,6,1,1,-4,-21
1523053731452944,-2,-2,-6,-7,-3,-2,10,23
1523053731452944,2,-1,-1,0,-1,-1,9,1
1523053731474056,-3,-1,0,1,2,3,17,1
1523053731474056,-1,-3,2,-2,-3,-10,-44,-9
1523053731475503,0,1,-5,-1,-2,4,17,-9
1523053731475503,-1,0,-1,-1,-3,-7,-18,1
1523053731496598,-2,-5,1,-5,-5,-5,-4,-1
1523053731496598,-2,-1,-1,-1,-1,0,-5,-14
1523053731498065,1,2,-4,-4,-1,-3,-1,15
1523053731498065,-3,-2,-1,1,1,5,8,9
1523053731511601,-2,-1,2,-1,-1,0,-9,-10
1523053731511601,2,0,-7,0,0,0,-3,7
1523053731513104,-2,0,0,-2,-4,-1,-9,-15
1523053731513104,-1,-2,-1,0,1,-4,1,-6
1523053731534161,-2,-2,-1,1,1,9,40,9
1523053731534161,0,1,8,7,-2,-6,-12,0
1523053731535664,-1,1,22,19,-2,-1,4,-4
1523053731535664,-2,2,-35,-30,1,-6,-9,-4
1523053731555717,1,0,33,20,-1,-1,6,1
1523053731555717,1,0,30,13,3,-6,-19,6
1523053731564240,-10,-21,2,-8,-3,8,1,-8
1523053731564240,-1,0,23,-21,-8,-2,-4,-2
1523053731570756,6,10,41,20,7,13,25,7
1523053731570756,-3,-2,-5,1,-7,-15,-35,-7
1523053731577286,-4,-9,-66,8,-12,-30,53,-5
1523053731577286,2,-3,-11,-37,6,50,89,19
1523053731593818,0,12,62,63,6,-27,-81,-15
1523053731593818,8,-13,-51,-75,12,62,96,41
1523053731595324,-1,5,28,-33,0,10,29,0
1523053731595324,0,-3,63,55,-3,-19,-27,-10
1523053731616435,-1,9,-5,32,-2,3,-3,-3
1523053731616435,1,0,16,-10,-4,5,26,6
1523053731617883,-5,-11,-45,-14,0,-19,-63,-7
1523053731617883,1,3,-5,-9,1,-4,-13,-1
1523053731630917,-2,-3,65,20,3,-9,-32,-6
1523053731630917,2,10,46,11,-5,-4,7,-2
1523053731637436,4,4,-34,-18,3,16,9,1
1523053731637436,-1,-11,64,45,5,-7,-16,-6
1523053731653978,-8,-16,-29,-46,-9,-14,-51,-9
1523053731653978,-2,7,14,33,1,2,27,-3
1523053731655483,7,16,31,9,8,16,27,6
1523053731655483,-1,4,-28,5,1,-7,-9,-4
1523053731676540,-2,-14,-65,-57,-7,-1,36,6
1523053731676540,-2,2,30,22,1,-9,-18,-6
1523053731678076,-2,3,-38,-1,1,-15,-61,-12
1523053731678076,-5,-8,22,8,-7,0,5,-4
1523053731690612,-7,-13,-79,-61,-11,-3,19,-1
1523053731690612,0,2,9,9,-6,-17,-8,-4
1523053731697648,3,4,30,14,3,-3,-10,-1
1523053731697648,-3,-8,3,6,-2,-8,-16,-6
1523053731714139,-4,-8,-61,-42,-13,-3,-18,1
1523053731714139,-1,-1,-9,20,5,9,29,6
1523053731715644,0,4,5,-17,-7,-4,-12,-2
1523053731715644,2,6,2,5,2,-2,-3,1
1523053731736199,7,13,19,12,3,5,10,1
1523053731736199,-17,-30,-29,-10,-1,-11,-36,-11
1523053731738206,-2,3,38,14,1,2,-1,2
1523053731738206,0,-2,-31,-5,0,2,14,3
1523053731750736,2,2,-27,-7,-1,-9,3,0
1523053731750736,0,-2,5,-14,-9,-13,-30,-5
1523053731757754,1,1,23,7,-3,0,-1,-1
1523053731757754,-1,1,-5,-1,2,10,7,1
1523053731773798,-4,-7,15,1,-1,-6,9,0
1523053731773798,3,10,15,8,2,-3,6,3
1523053731775301,-3,-8,-6,-6,1,5,30,4
1523053731775301,0,2,-2,0,-2,-9,-27,-5
1523053731796411,-2,2,20,12,3,3,6,0
1523053731796411,-1,-1,-17,-7,0,9,-5,0
1523053731797863,0,1,13,10,2,-1,-6,-3
1523053731797863,-5,-4,-21,-16,-4,-4,3,-1
1523053731810948,-1,-2,6,3,-2,-3,-17,-3
1523053731810948,-3,0,-4,-3,-3,-11,-27,-5
1523053731817471,0,-2,-4,-4,-1,1,11,2
1523053731817471,0,3,-5,-2,-1,0,-5,-1
1523053731833991,-1,-2,3,4,0,5,9,-4
1523053731833991,0,-2,-6,-5,-1,-4,5,19
1523053731835462,0,-2,2,2,-2,-6,-26,-5
1523053731835462,0,-1,-9,-4,-1,0,8,1
1523053731856517,1,-1,9,2,0,0,3,-8
1523053731856517,1,2,-11,-2,3,7,37,-2
1523053731858022,-2,-2,1,-2,-2,-5,-12,3
1523053731858022,-2,0,-3,-1,-1,-2,-5,-3
1523053731870053,-3,-1,1,1,0,-5,-9,-5
1523053731870053,1,1,-3,-2,-2,-7,2,5
1523053731879079,-1,-2,-1,2,-1,4,9,16
1523053731879079,-6,-3,-4,-6,-2,-12,-40,-18
1523053731894118,0,1,3,1,0,12,33,-36
1523053731894118,-1,0,-6,-3,-1,3,38,39
1523053731895682,-1,-3,1,-2,-3,-3,-43,29
1523053731895682,-3,-4,-3,-5,-3,-1,24,-14
1523053731916233,-4,-1,1,1,1,-1,-29,-70
1523053731916233,2,0,-1,-1,-2,-3,11,50
1523053731918182,-1,-2,-4,-4,-3,-5,0,-12
1523053731918182,1,0,-2,0,2,1,9,18
1523053731930227,2,1,2,0,-1,-3,-5,-55
1523053731930227,0,3,0,3,4,18,38,21
1523053731946759,-1,-5,-1,1,-2,12,26,2
1523053731946759,-2,1,-5,-3,-2,-9,-53,-6
1523053731953778,-2,0,0,2,3,6,5,12
1523053731953778,-1,1,1,-2,-1,-5,-32,-28
1523053731955281,0,-1,13,10,1,-5,-3,12
1523053731955281,1,-4,-61,-31,-3,15,56,-14
1523053731976338,1,5,7,3,1,8,30,47
1523053731976338,-3,-8,-9,-8,-5,-8,-27,-13
1523053731977842,1,2,76,73,7,3,12,-21
1523053731977842,-7,-17,-66,-94,-12,-10,-30,-10
1523053731989928,6,16,35,15,3,16,43,47
1523053731989928,-2,-4,56,20,1,0,8,-17
1523053731998896,-1,-5,28,27,8,15,1,-22
1523053731998896,0,0,-9,66,-2,-14,-16,9
1523053732013992,-1,2,-68,-53,-16,-37,-84,16
1523053732013992,-3,11,56,15,-1,2,29,-27
1523053732015441,3,-20,4,-13,0,-4,-11,-6
1523053732015441,-4,8,38,18,8,-8,-47,9
1523053732036497,0,-19,53,42,14,24,49,18
1523053732036497,-5,-5,-57,-49,-21,-24,-81,-27
1523053732038000,-1,5,-122,-94,-8,15,74,11
1523053732038000,8,19,101,25,14,11,12,9
1523053732050034,-7,-13,33,46,-12,-7,-21,-3
1523053732050034,-10,-18,-38,-38,-12,-49,-77,-20
1523053732059057,-2,18,40,16,-6,-26,-81,-13
1523053732059057,7,-1,7,-2,8,22,54,7
1523053732074096,-5,-2,10,-25,0,21,74,12
1523053732074096,0,-5,3,20,6,9,19,2
1523053732075601,-7,-7,-49,-37,-20,-53,-65,-16
1523053732075601,7,18,46,9,3,4,4,1
1523053732096657,-6,-13,-34,-3,-2,4,24,12
1523053732096657,1,-16,-4,23,9,32,111,5
1523053732098161,1,3,-47,-20,-4,5,17,-4
1523053732098161,-6,-8,-65,-26,-12,-1,6,-2
1523053732110194,4,7,2,-3,-3,-4,-32,6
1523053732110194,4,11,16,-1,3,3,-16,-5
1523053732119271,1,0,9,17,8,15,22,5
1523053732119271,-4,-11,-7,-17,-7,-8,-16,-3
1523053732133809,2,8,16,-3,5,-2,-16,2
1523053732133809,-4,-2,-24,38,-2,-3,-20,-5
1523053732135761,-3,-9,63,-6,-10,-9,6,0
1523053732135761,0,3,20,22,0,8,19,2
1523053732156315,0,-2,-8,-14,3,-7,-12,2
1523053732156315,4,14,32,-4,6,11,-7,2
1523053732157820,-4,-7,-16,4,2,2,-4,-3
1523053732157820,0,-1,-10,-1,1,14,73,9
1523053732169851,3,7,15,15,2,-2,7,5
1523053732169851,0,7,17,8,-1,-6,-20,-6
1523053732178875,-6,-10,-51,-35,-2,8,-2,-1
1523053732178875,0,0,56,31,3,-3,7,3
1523053732193971,-3,-8,-61,-17,-7,-8,-26,-7
1523053732193971,-3,-6,-65,-21,-8,2,2,-2
1523053732195420,1,5,30,-14,0,4,0,-2
1523053732195420,1,0,3,17,4,1,-3,-3
1523053732217980,-1,-4,-9,-11,-1,2,-5,0
1523053732217980,-2,-4,-4,11,-2,6,-8,-3
1523053732219483,3,6,22,17,2,4,-5,4
1523053732219483,-5,-8,-18,-15,-5,-7,-12,-3
1523053732230065,1,0,-3,10,0,-6,-14,-4
1523053732230065,-3,-3,-16,-33,-4,-9,-49,-8
1523053732239037,-5,-7,-44,9,4,11,31,-2
1523053732239037,2,2,-16,-9,-1,16,23,11
1523053732254105,-1,-3,-18,-14,-9,-16,-15,-2
1523053732254105,2,7,29,7,3,-4,-18,-4
1523053732255580,-3,5,0,3,-1,-6,-25,-5
1523053732255580,-7,-27,9,13,2,-10,-31,-8
1523053732284155,6,14,10,-21,3,8,13,0
1523053732284155,-8,-14,35,14,-6,-3,12,-5
1523053732285694,-1,-1,40,7,-5,-3,-27,3
1523053732285694,-1,13,5,-3,-4,-12,-26,-9
1523053732290205,3,7,75,44,9,0,-6,3
1523053732290205,-2,-11,-30,-36,-2,-17,-55,-8
1523053732299249,-10,-20,-12,5,0,1,7,-4
1523053732299249,-3,10,13,9,-4,-14,-32,-5
1523053732313736,-10,-12,-44,-30,-9,-9,-8,-4
1523053732313736,8,22,-24,-12,2,13,64,14
1523053732315740,2,-6,6,11,5,5,17,-1
1523053732315740,1,0,-16,-8,0,1,7,1
1523053732336351,0,4,6,-1,-4,-7,-48,-9
1523053732336351,1,-2,2,2,0,7,18,1
1523053732337800,-1,-1,1,6,3,-3,14,6
1523053732337800,2,6,6,5,-1,1,-5,0
1523053732358854,2,14,-5,-1,1,8,24,2
1523053732358854,-8,-32,-1,1,-2,-3,-28,-7
1523053732360360,1,4,0,-2,-5,-7,9,-16
1523053732360360,-1,6,-12,-13,-5,-10,-29,11
1523053732373893,-2,-8,-1,7,5,17,51,17
1523053732373893,6,12,8,3,2,2,19,0
1523053732375399,4,7,6,-1,0,-7,-24,-1
1523053732375399,-11,-16,-11,-10,-6,-8,-17,-38
1523053732403976,0,-4,-6,-3,-6,-2,21,-44
1523053732403976,1,11,13,9,1,-7,3,110
1523053732405478,5,5,-1,-3,2,2,-34,5
1523053732405478,5,0,-3,2,1,6,71,-17
1523053732419015,-4,-5,0,-1,0,0,-53,-23
1523053732419015,-5,2,-2,-3,-4,-2,60,-128
1523053732420519,1,3,-1,3,0,4,-58,114
1523053732420519,1,-12,-7,-12,-4,-5,12,-15
1523053732434056,-1,-4,5,0,4,7,-8,-83
1523053732434056,-1,1,21,1,0,3,22,31
1523053732441073,-3,1,-30,2,-1,-2,50,-15
1523053732441073,1,2,-1,3,-1,0,-43,25
1523053732455611,-1,-5,9,-1,-4,-1,18,36
1523053732455611,-1,-3,-10,-1,1,3,-20,-41
1523053732456616,-2,3,6,0,-2,-1,-18,-14
1523053732456616,1,-1,-3,1,2,0,12,19
1523053732478171,-1,-2,-6,3,1,15,69,11
1523053732478171,-1,0,-8,-1,2,-4,-47,35
1523053732479174,1,1,23,0,-1,-1,16,-23
1523053732479174,-5,-6,-12,-4,-3,0,-18,-22
1523053732493212,0,0,-21,-2,-2,-11,-37,17
1523053732493212,0,-6,2,-3,-3,-5,-12,-1
1523053732494215,4,9,22,16,2,3,22,-18
1523053732494215,-8,-10,-16,-20,-5,-6,-23,-20
1523053732515773,-4,-11,-71,-28,-9,-8,15,21
1523053732515773,2,6,7,10,4,0,-5,4
1523053732516776,-1,-9,37,42,3,0,13,-26
1523053732516776,-2,0,-26,-35,5,4,7,17
1523053732538333,-7,-6,-24,-16,-17,-9,-32,0
1523053732538333,4,6,33,14,3,-5,8,-7
1523053732538834,0,6,-61,-16,-4,-1,16,-9
1523053732538834,-1,-5,83,57,9,3,11,3
1523053732553415,-1,-6,-70,-78,1,-8,-27,-1
1523053732553415,-2,-5,64,0,-11,1,-10,-6
1523053732553920,-6,-4,-80,-52,-8,2,2,-2
1523053732553920,-6,-5,53,30,3,-11,-54,-10
1523053732575477,4,11,13,41,-1,0,2,-2
1523053732575477,-5,-2,-37,-12,-3,-1,-3,7
1523053732576479,6,10,23,12,10,2,15,3
1523053732576479,-4,-10,-58,-59,-12,-2,0,-8
1523053732598037,-1,-9,25,26,-5,-9,-51,-5
1523053732598037,5,9,-15,-12,2,-10,-11,-1
1523053732599097,-3,-4,20,-11,-7,11,51,-4
1523053732599097,4,9,11,30,9,21,75,8
1523053732613134,0,-5,33,4,-1,3,16,9
1523053732613134,-1,-3,34,8,2,13,5,2
1523053732614133,0,3,50,-23,5,-8,-67,-10
1523053732614133,2,0,-30,10,-2,6,37,7
1523053732635690,-8,-12,46,-3,-12,-7,-1,-2
1523053732635690,-5,-5,-51,-24,-9,-15,-44,-10
1523053732636693,8,9,62,25,20,33,64,14
1523053732636693,8,15,40,10,6,-2,-42,-1
1523053732658196,-4,-15,28,6,1,-9,-27,0
1523053732658196,-9,-14,-60,-37,-18,-13,-1,-9
1523053732659199,-3,-3,8,23,-7,-19,-22,-11
1523053732659199,4,9,-4,-10,0,4,6,5
1523053732673237,3,7,-13,12,7,3,13,2
1523053732673237,-2,-8,-10,-1,0,1,10,0
1523053732674240,-4,-6,-6,5,-1,-1,6,-4
1523053732674240,-3,-6,-55,-27,-12,-9,5,-2
1523053732695797,2,10,25,9,3,1,-8,-4
1523053732695797,-2,-5,-42,22,0,4,72,6
1523053732696299,0,-2,-18,-12,-2,-1,-3,-1
1523053732696299,0,4,38,17,1,1,-20,-2
1523053732718357,0,4,23,5,7,2,6,2
1523053732718357,0,3,16,3,0,-1,1,0
1523053732718859,-2,-3,4,1,-5,4,9,-1
1523053732718859,-2,-1,-16,-24,-4,-8,-15,-3
1523053732733397,3,10,26,32,7,1,9,4
1523053732733397,0,-8,15,-2,0,-2,-34,-3
1523053732733932,-3,-12,-27,-10,-4,-6,1,-3
1523053732733932,2,15,28,17,-1,-5,-15,-2
1523053732755456,-5,-6,-20,-19,-8,-8,-16,-3
1523053732755456,-1,-8,-34,-23,2,1,-20,-3
1523053732756459,3,10,3,15,-2,0,-8,-3
1523053732756459,-8,-7,5,3,1,7,49,2
1523053732780020,-5,-4,-8,-6,-6,-12,-8,-5
1523053732780020,1,4,16,6,2,-6,-30,-2
1523053732781525,4,-3,-1,-7,-2,0,-14,3
1523053732781525,1,4,-15,-3,-1,8,22,3
1523053732792553,-3,-1,1,-7,-2,-6,-20,-1
1523053732792553,3,-7,16,11,4,9,18,0
1523053732800575,-7,9,-12,-15,-7,-9,-13,-5
1523053732800575,-1,-8,-3,3,-2,-7,-20,-5
1523053732815672,1,-11,-8,-1,3,2,2,-8
1523053732815672,0,18,19,7,2,-6,-23,16
1523053732816619,0,-11,-7,-7,-4,4,28,9
1523053732816619,-6,-15,-17,-7,-5,-2,-27,-9
1523053732838731,1,6,8,5,4,2,8,-20
1523053732838731,2,4,6,4,1,0,0,14
1523053732839680,2,7,-1,-5,0,-4,17,-64
1523053732839680,-3,-7,-3,3,-2,-6,-35,36
1523053732852713,2,5,-1,0,0,5,7,36
1523053732852713,3,-2,10,2,-1,12,85,-66
1523053732860789,-7,-9,-6,-2,1,10,-10,50
1523053732860789,-4,-7,-2,-7,-5,-8,-55,-32
1523053732883850,2,1,2,-1,2,3,13,-21
1523053732883850,1,6,7,8,8,16,42,24
1523053732884800,0,-5,7,1,0,-5,23,-30
1523053732884800,-1,0,10,2,-2,-2,5,-91
1523053732898335,-4,-5,-56,-10,-5,-3,8,26
1523053732898335,4,1,6,3,-3,-16,-40,81
1523053732898836,-1,-6,-1,-2,-1,2,-31,-42
1523053732898836,0,4,3,-2,-1,-15,-56,-61
1523053732912372,3,7,12,7,8,29,83,12
1523053732912372,-6,-5,1,-2,-1,-1,-14,-26
1523053732920895,-3,-3,-14,-2,-6,-13,-20,52
1523053732920895,1,-3,-3,-3,-2,-4,-8,23
1523053732935937,0,0,8,0,-2,-3,28,-22
1523053732935937,-3,-3,-4,-1,-3,2,-6,-8
1523053732936437,0,0,7,-2,-2,2,-7,21
1523053732936437,1,-2,-7,-4,-3,-2,21,9
1523053732957994,1,0,8,2,0,-5,-14,-5
1523053732957994,-1,3,21,22,2,0,0,1
1523053732958998,-5,-8,-13,-22,-5,-17,-37,-25
1523053732958998,2,3,21,13,-3,4,39,20
1523053732972587,1,1,-10,1,1,-2,-24,7
1523053732972587,1,1,52,24,3,-1,-6,-13
1523053732980608,-4,0,-17,-22,1,5,27,-7
1523053732980608,-3,-1,24,16,-1,-1,6,22
1523053732995595,-4,-8,-6,-37,-2,5,11,5
1523053732995595,2,14,-13,19,2,4,-20,-23
1523053732996631,7,5,64,54,14,9,13,5
1523053732996631,-15,-32,-10,-53,-17,-9,4,14
1523053733018154,3,12,46,39,4,9,50,-1
1523053733018154,6,7,13,-12,7,-12,-42,-13
1523053733019156,2,12,6,-19,-9,-9,-29,-2
1523053733019156,-9,-11,2,42,-5,-8,-52,-3
1523053733032692,-1,-3,-7,-44,-9,-20,-8,-11
1523053733032692,1,11,47,37,3,-2,-16,-3
1523053733040768,7,14,55,78,22,-2,-14,6
1523053733040768,-13,-28,-110,-109,-26,12,76,0
1523053733057259,-2,-7,92,51,3,1,7,-1
1523053733057259,0,-5,-26,-47,-3,3,29,6
1523053733057760,-2,17,2,33,-12,-14,-14,-7
1523053733057760,1,-14,-12,-3,7,6,13,2
1523053733078314,3,1,-25,11,8,36,69,20
1523053733078314,-10,-21,-101,-66,-28,-26,-13,-13
1523053733078815,1,-4,-6,-8,7,25,18,1
1523053733078815,8,19,20,28,7,4,8,11
1523053733092353,2,12,102,66,1,-18,-54,-10
1523053733092353,-10,-28,-88,-60,-5,12,17,0
1523053733100875,-8,-16,46,-7,-5,6,24,-2
1523053733100875,3,18,22,18,0,-11,-22,1
1523053733115915,-7,-13,-77,-47,-9,-12,-47,-11
1523053733115915,-3,1,35,6,-9,1,10,-3
1523053733116416,-1,-3,-7,-7,-3,-11,-21,-4
1523053733116416,1,1,-11,-29,2,11,16,4
1523053733138474,0,1,9,-16,0,2,-5,1
1523053733138474,-1,6,26,16,-2,-8,-36,-7
1523053733138976,8,6,8,-11,0,-3,3,7
1523053733138976,3,4,72,67,16,-18,-71,-6
1523053733161574,-16,-20,-72,-33,-12,-10,-21,-6
1523053733161574,1,-3,7,10,8,23,65,9
1523053733162037,6,12,-2,-26,-1,-2,14,1
1523053733162037,-6,10,4,14,-1,-17,-38,-4
1523053733175573,-6,-30,-40,-34,-11,-17,-34,-9
1523053733175573,-4,-3,35,18,2,-2,-1,0
1523053733183094,-4,-5,-16,-4,-1,3,21,-1
1523053733183094,12,24,60,36,12,13,32,9
1523053733198169,-2,-6,-27,-19,-5,-3,-5,2
1523053733198169,1,-2,3,3,2,-3,-5,-1
1523053733199170,-6,-17,-32,-23,-6,-3,-18,-6
1523053733199170,2,0,2,11,0,3,14,3
1523053733212708,1,10,-17,-9,-2,-5,-29,-7
1523053733212708,2,1,-20,-13,1,-1,-9,-3
1523053733220747,-7,-15,-17,-14,-6,-8,-20,-4
1523053733220747,-6,-9,45,14,-8,-22,-35,-10
1523053733235732,5,15,51,8,3,-5,-17,4
1523053733235732,2,4,19,11,5,-4,-28,0
1523053733236735,-2,-5,-9,-14,-3,11,31,4
1523053733236735,-1,-1,-34,-30,-2,-1,6,-2
1523053733258294,3,6,38,21,2,3,3,0
1523053733258294,-2,0,5,-3,-2,1,0,-3
1523053733258795,-1,3,2,5,-6,-24,-53,-9
1523053733258795,3,-14,-55,-28,2,17,48,8
1523053733281356,2,2,-24,-8,-6,-4,10,-3
1523053733281356,5,20,17,14,3,6,8,4
1523053733282358,-7,-17,-17,-1,-5,-6,-18,-4
1523053733282358,-1,-1,-4,2,2,5,3,2
1523053733295894,3,-3,13,12,3,7,15,0
1523053733295894,-14,-15,-11,-3,-1,0,-2,-5
1523053733296396,5,16,6,2,3,1,13,4
1523053733296396,-3,-14,-2,-6,-3,-6,-13,-7
1523053733318453,-1,-4,-8,-4,0,-1,17,14
1523053733318453,7,0,12,15,8,16,61,12
1523053733318954,-5,-3,-15,-4,-5,-6,-21,44
1523053733318954,5,9,-7,-6,1,12,34,8
1523053733341515,0,-4,0,3,-4,-7,-34,-104
1523053733341515,3,5,-2,1,-2,-16,-17,112
1523053733342017,-7,-18,3,5,3,4,47,2
1523053733342017,3,3,-7,-1,1,18,11,5
1523053733355552,-4,6,5,2,3,1,-26,123
1523053733355552,-7,-14,5,-5,-7,-1,16,-128
1523053733356555,1,2,-9,-11,-6,-8,-37,-61
1523053733356555,-1,5,1,-2,-6,-12,15,-69
1523053733378112,1,6,-2,8,7,0,0,70
1523053733378112,0,-2,-1,-1,-1,7,10,-3
1523053733379115,3,0,16,0,-1,-1,0,14
1523053733379115,-3,-2,-32,-7,-2,9,24,-30
1523053733401174,-1,6,4,2,-2,-2,7,-54
1523053733401174,-3,-1,5,-1,-2,-13,-43,30
1523053733402176,-1,0,2,4,1,12,46,3
1523053733402176,0,3,3,-2,-2,-4,6,10
1523053733415712,2,-4,-1,-3,-1,-2,-19,15
1523053733415712,-1,0,-13,1,-2,-3,-33,-14
1523053733416715,-2,1,21,16,1,0,-5,-16
1523053733416715,2,4,-11,-15,1,-7,-29,37
1523053733438837,2,-1,22,17,-3,1,24,-16
1523053733438837,-6,-11,-54,-25,-12,-13,-25,-22
1523053733439276,1,2,50,54,7,0,-2,1
1523053733439276,-3,-2,-52,-61,-4,-2,-4,25
1523053733461333,0,-4,65,41,6,3,-4,-22
1523053733461333,2,7,-7,1,5,5,17,-2
1523053733462336,-13,-26,-1,-12,-11,-14,-24,4
1523053733462336,2,10,59,49,7,7,6,10
1523053733475872,-4,-6,-109,-89,-15,-12,-5,-17
1523053733475872,6,21,108,51,7,1,-25,8
1523053733476374,9,18,9,-20,13,9,27,5
1523053733476374,-10,-19,2,-7,-14,-11,-3,-12
1523053733498433,5,19,105,106,11,0,-32,-6
1523053733498433,-6,-17,-114,-87,-15,-7,4,1
1523053733498935,-11,-16,31,2,-5,4,3,-4
1523053733498935,-6,-3,36,12,7,-20,-38,-7
1523053733521547,1,12,-14,-9,2,18,20,13
1523053733521547,8,20,76,49,12,8,-5,-1
1523053733521996,-3,-8,-61,-17,-11,-9,-9,-5
1523053733521996,7,16,65,-67,-4,-11,-23,7
1523053733535530,-12,-32,-57,45,-9,-6,24,-7
1523053733535530,-3,-3,22,-5,-1,2,4,-4
1523053733536567,3,4,-20,-11,2,4,24,-2
1523053733536567,6,6,40,44,7,-1,-37,8
1523053733558091,6,6,-71,-49,7,26,62,0
1523053733558091,-6,-15,-43,-26,-11,18,76,6
1523053733559093,8,13,-1,-14,6,16,80,17
1523053733559093,-5,-6,-14,27,-8,-15,-9,-4
1523053733581153,-5,-9,13,-11,-6,-19,-41,-13
1523053733581153,1,-4,-6,11,0,-1,-2,2
1523053733582155,3,10,32,0,0,-3,-13,-4
1523053733582155,2,8,-14,11,7,15,19,2
1523053733595692,-3,-9,-20,-47,-5,-3,-10,1
1523053733595692,-3,-6,17,17,0,-12,-19,1
1523053733596696,2,8,9,17,0,-5,-40,-4
1523053733596696,-3,-10,-18,-31,-11,-4,-6,-5
1523053733618251,-1,4,51,46,4,-6,0,-2
1523053733618251,-3,-15,-105,-59,-7,-8,0,-2
1523053733618753,1,-3,3,9,1,-2,-10,-3
1523053733618753,-5,-7,-3,12,0,4,-10,3
1523053733641314,4,12,57,0,3,-7,-38,-6
1523053733641314,-3,-12,-9,24,-8,0,35,-1
1523053733642369,-6,-8,-34,-16,-2,-5,-20,-2
1523053733642369,0,0,-8,-16,-3,-4,-9,0
1523053733663873,1,5,91,32,7,2,-9,1
1523053733663873,-4,-4,-43,-57,-7,-3,0,-4
1523053733664875,-4,-5,20,8,-5,-9,-33,-5
1523053733664875,3,8,58,35,4,4,14,4
1523053733678411,-4,-9,-47,-54,-2,0,7,-2
1523053733678411,1,14,35,33,6,3,-14,0
1523053733678913,-3,-5,7,31,0,0,-3,-1
1523053733678913,-5,-17,-12,-3,3,0,-3,-3
1523053733701526,2,10,-12,-9,1,1,25,2
1523053733701526,-3,-5,2,-32,-6,-8,-42,-6
1523053733701975,1,10,12,1,-3,5,11,2
1523053733701975,-2,-6,-23,11,2,-6,-20,-2
1523053733715559,1,-4,-37,-14,-5,-7,9,-2
1523053733715559,-3,-3,-47,-27,-8,-4,-33,-7
1523053733716513,0,5,-5,-15,-4,4,8,0
1523053733716513,1,-1,-5,-2,0,4,2,2
1523053733738069,-5,-16,30,8,-3,-2,-10,-3
1523053733738069,-2,5,25,32,-1,-1,-1,-2
1523053733739130,-1,-8,-26,-14,2,-1,-16,-1
1523053733739130,5,9,17,-12,0,3,18,2
1523053733761633,-3,-4,-32,8,-8,-2,-5,-1
1523053733761633,3,-1,0,11,7,1,4,0
1523053733762134,-1,-1,-22,-17,-5,-8,-19,-3
1523053733762134,-3,0,5,8,-3,-2,20,-1
1523053733775670,-3,-2,11,-9,-1,0,4,-4
1523053733775670,2,-1,6,14,4,10,35,11
1523053733783190,-4,1,-1,6,-2,-17,-26,-5
1523053733783190,-3,-6,-5,-5,-5,0,12,-3
1523053733798230,2,2,-1,-6,-1,-3,-16,-2
1523053733798230,2,7,24,2,-5,-6,34,3
1523053733798732,-2,6,-3,-2,4,4,4,-1
1523053733798732,-2,-15,-11,3,1,0,10,-4
1523053733821291,2,16,-23,-14,-5,-3,-22,5
1523053733821291,2,-1,33,17,7,-2,-15,9
1523053733822293,7,1,-7,-10,-3,2,10,-1
1523053733822293,-4,-4,-12,-6,-2,-1,-4,-26
1523053733835831,1,-1,-16,-5,-2,7,44,-10
1523053733835831,-1,0,27,8,-1,-10,-119,-101
1523053733836332,2,11,-6,0,4,3,48,110
1523053733836332,-19,-3,-17,-26,-23,-6,54,46
1523053733859405,1,-11,8,22,22,0,-95,-61
1523053733859405,2,11,25,8,8,18,101,-31
1523053733860396,-4,-20,-13,-7,-4,-9,-18,14
1523053733860396,9,8,-10,-6,-4,-14,-65,-83
1523053733881485,-5,-2,11,-1,-6,7,76,24
1523053733881485,-1,2,-24,1,-6,-5,10,91
1523053733881954,9,1,0,-14,-7,-4,-17,-25
1523053733881954,-6,5,-22,2,-2,-5,-24,-9
1523053733894987,6,9,40,0,3,2,-2,18
1523053733894987,-13,-24,-37,-7,1,4,-28,-27
1523053733903510,-1,-1,5,-3,-4,-19,36,-2
1523053733903510,5,1,-5,5,-17,33,-54,24
1523053733918102,-2,5,14,4,35,-3,40,-17
1523053733918102,4,9,8,5,6,11,-2,33
1523053733919106,-7,-10,-4,-3,2,0,-3,-58
1523053733919106,0,-3,3,-2,-3,-11,3,33
1523053733941613,-3,-5,-13,-9,-12,-3,-23,6
1523053733941613,2,5,31,2,0,-1,14,10
1523053733942151,-6,-15,-7,-9,-1,-2,-27,-19
1523053733942151,4,3,12,15,7,-1,-3,-11
1523053733955204,0,0,-15,-14,-12,10,21,16
1523053733955204,3,14,56,29,1,-18,-7,6
1523053733963223,-2,-11,28,19,3,17,-4,-17
1523053733963223,-3,-9,-12,-46,-12,-8,8,9
1523053733978208,0,12,49,48,8,-17,-25,5
1523053733978208,1,-5,-13,-13,1,12,0,-7
1523053733979211,7,17,47,6,4,8,-3,4
1523053733979211,-2,-7,33,16,5,3,29,10
1523053734001271,-2,-7,-23,-5,-7,-4,-6,1
1523053734001271,3,7,-40,-35,-7,-9,-15,-7
1523053734002273,-3,1,-14,2,-3,-2,-2,1
1523053734002273,-10,-28,-35,-28,3,-3,-3,1
1523053734014806,-5,-1,-18,-13,-11,-6,37,-5
1523053734014806,3,6,39,28,10,8,14,11
1523053734023330,0,2,-5,16,-6,-7,-15,-5
1523053734023330,4,10,23,1,3,-23,-42,-11
1523053734038370,-8,-5,10,16,-4,-3,-12,2
1523053734038370,-9,-28,-86,-89,-23,-12,-1,-1
1523053734038875,0,10,34,22,6,10,16,-5
1523053734038875,3,4,6,19,5,5,9,3
1523053734061432,0,-5,3,-6,-3,1,0,6
1523053734061432,0,9,20,23,5,-3,-5,-1
1523053734062434,-9,-18,-27,-23,-10,-8,-13,-10
1523053734062434,1,10,-9,5,5,9,28,4
1523053734074966,4,6,-5,-2,-3,2,-4,3
1523053734074966,-5,-7,6,1,-4,-4,-3,-1
1523053734082987,0,4,15,15,5,1,-9,-1
1523053734082987,-1,-5,-29,-13,-8,-1,18,0
1523053734098028,0,-7,-19,-18,-7,-2,-21,-3
1523053734098028,-1,0,27,18,2,0,13,0
1523053734099031,0,5,-4,-9,-1,1,-1,2
1523053734099031,2,4,9,4,5,3,5,0
1523053734121591,-4,-7,-18,-16,-8,-10,-29,-10
1523053734121591,-2,-5,14,13,-1,-7,-24,-25
1523053734122091,1,1,-14,-6,3,15,32,33
1523053734122091,1,2,-2,4,2,1,11,-3
1523053734135125,-1,-4,-13,-5,-1,4,-10,-2
1523053734135125,0,2,5,10,1,-5,-28,-2
1523053734143147,-2,-2,11,-14,-3,1,5,-9
1523053734143147,-2,0,-15,4,0,-2,-6,-19
1523053734158188,-2,0,12,2,-1,0,6,26
1523053734158188,1,-1,-8,3,0,3,7,1
1523053734159192,-3,-9,-32,-19,-10,-4,-3,-8
1523053734159192,0,1,6,6,1,1,4,0
1523053734181303,0,0,-9,-3,-1,-2,-3,-8
1523053734181303,2,4,27,13,6,5,16,11
1523053734182253,-10,-12,-5,-19,-12,-12,-11,-8
1523053734182253,3,7,5,11,4,2,6,4
1523053734194786,-1,-5,-5,-6,-2,-1,-10,-4
1523053734194786,-1,-3,5,3,-4,-3,21,5
1523053734203307,2,2,-3,5,5,10,17,-5
1523053734203307,-1,-2,6,-3,-2,-10,-26,-1
1523053734218355,1,2,4,-6,-1,3,7,1
1523053734218355,-4,-4,11,3,0,-5,-16,-4
1523053734218850,-3,-11,-18,-2,-3,-11,-31,-6
1523053734218850,0,8,-1,-6,3,8,34,7
1523053734241409,-1,-4,0,0,2,1,7,-1
1523053734241409,6,7,13,3,0,3,-6,0
1523053734242412,-1,-1,-10,-2,-3,-8,-1,-2
1523053734242412,-7,-7,-22,2,-2,-2,-18,1
1523053734263970,-1,1,7,-4,-5,-17,-52,-13
1523053734263970,0,0,-19,-14,-4,7,34,5
1523053734264470,-1,-5,1,1,1,2,-8,0
1523053734264470,3,4,-1,25,4,2,4,1
1523053734278062,-3,8,-19,-19,-4,-5,-17,-7
1523053734278062,-7,-23,-3,2,-6,-15,-23,-3
1523053734279065,5,10,0,4,4,3,9,3
1523053734279065,-2,-5,1,7,0,6,10,0
1523053734301569,3,1,8,-8,0,-2,-2,1
1523053734301569,6,11,-4,4,2,5,7,7
1523053734302072,-16,-11,2,-6,-2,1,25,-1
1523053734302072,5,7,17,2,-3,-2,-13,-5
1523053734323629,-9,-11,-2,8,1,-18,-13,6
1523053734323629,-5,-8,5,-9,-1,21,-19,-4
1523053734324631,9,6,26,7,5,12,60,0
1523053734324631,-8,-1,-53,-16,-9,-10,-14,-56
1523053734338168,11,7,-8,-5,-5,4,31,93
1523053734338168,1,1,7,0,1,-7,32,18
1523053734339170,6,-10,11,-3,3,14,5,-54
1523053734339170,-10,-3,5,-8,-1,-15,-47,-117
1523053734361229,-11,10,14,12,4,16,37,62
1523053734361229,-6,-7,-11,-2,-7,-37,-94,0
1523053734362232,14,12,-2,5,5,55,80,97
1523053734362232,7,-3,14,-13,-7,-9,-78,75
1523053734383787,-2,-4,-18,4,6,13,-71,-116
1523053734383787,3,12,27,9,5,27,-44,122
1523053734384791,-4,-2,-30,-7,-8,-46,-75,-52
1523053734384791,-5,-11,-25,-9,-3,-2,15,-8
1523053734398326,13,11,52,13,5,55,127,21
1523053734398326,-9,-3,7,-17,-20,-22,-9,-88
1523053734398828,-3,2,-38,3,-3,-17,-52,-31
1523053734398828,7,-13,37,4,0,9,52,36
1523053734421387,-36,-4,-14,6,9,-5,-20,-114
1523053734421387,11,0,-5,0,0,2,15,83
1523053734422390,-22,-16,1,-8,-9,-29,-128,-33
1523053734422390,18,17,10,12,12,23,89,13
1523053734443949,2,-11,5,-12,-12,-13,-31,-50
1523053734443949,-2,-4,-16,6,4,-2,55,-30
1523053734444452,-1,7,27,-4,0,9,18,27
1523053734444452,-7,-10,-30,-7,3,13,20,13
1523053734457985,9,4,-23,-6,-4,-9,-1,29
1523053734457985,-5,-5,25,-12,-6,-11,-81,-49
1523053734458988,11,8,6,10,9,10,85,35
1523053734458988,-6,-5,18,4,-1,3,1,-3
1523053734481549,2,-9,4,1,5,-2,-6,10
1523053734481549,-2,-6,-14,5,-6,-4,22,-11
1523053734482050,-1,3,8,-3,-11,-11,-33,-22
1523053734482050,1,10,12,-2,-1,-4,-19,17
1523053734504110,-7,-9,-30,-9,-9,-7,-1,7
1523053734504110,-5,-12,-12,-14,23,4,-1,-22
1523053734504611,1,6,1,4,-7,-5,0,5
1523053734504611,1,4,9,14,-1,-6,-22,-3
1523053734518146,4,-4,27,18,-5,-15,-27,7
1523053734518146,5,12,0,-10,3,36,127,4
1523053734519149,-2,-10,-6,-4,1,-6,-14,-1
1523053734519149,-4,2,-24,1,2,-2,-38,2
1523053734542710,1,-1,13,-10,-7,7,41,4
1523053734542710,-3,-3,-15,12,1,-5,-17,-11
1523053734543716,0,7,12,4,3,-5,-6,-1
1523053734543716,2,1,18,-1,-5,-3,-4,3
1523053734563820,0,-2,-13,-6,2,-6,-21,1
1523053734563820,-2,-3,0,-2,-5,-2,-2,-13
1523053734564770,0,-3,-27,-14,-10,-5,-4,1
1523053734564770,0,5,10,7,12,-3,-1,-2
1523053734578342,3,0,-10,3,3,1,6,4
1523053734578342,-5,0,-18,-3,-4,-3,-8,-8
1523053734578807,-2,-6,19,-1,-5,-1,-13,-7
1523053734578807,1,4,-1,-8,-2,-2,-1,3
1523053734601368,2,-1,-34,-2,-6,-8,-8,2
1523053734601368,0,1,2,8,4,0,-9,-5
1523053734602371,-2,-3,-15,5,3,2,-8,0
1523053734602371,-1,-1,-7,-6,-9,-10,14,-12
1523053734623927,2,0,4,-2,-1,3,-2,23
1523053734623927,-2,2,8,-1,-8,-13,-25,-17
1523053734624430,-3,-6,-11,-12,0,1,12,-3
1523053734624430,-3,-8,-3,3,2,0,2,-4
1523053734637964,5,6,37,5,-3,4,12,-4
1523053734637964,-7,-14,-40,-8,2,-7,-16,-2
1523053734638968,-3,2,3,1,2,-7,-7,-5
1523053734638968,-2,-1,-2,1,-3,-4,0,4
1523053734661526,-2,-7,-9,-4,5,2,-11,-5
1523053734661526,6,10,24,1,-7,1,11,3
1523053734662028,0,4,10,6,3,4,9,0
1523053734662028,-6,-19,-20,-11,-2,1,-10,-1
1523053734684106,-2,1,-6,0,-1,-6,-24,-3
1523053734684106,1,-2,2,-5,-7,-5,0,-8
1523053734684588,5,11,0,-1,-1,11,10,5
1523053734684588,-4,2,22,0,-1,-4,6,6
1523053734698125,-3,-9,-8,7,-1,-10,-15,-9
1523053734698125,-2,-3,-10,-8,0,6,18,0
1523053734699128,0,6,-2,2,-3,-9,-3,-2
1523053734699128,0,2,3,-1,-1,5,2,0
1523053734721186,-7,-14,-4,4,0,0,6,-9
1523053734721186,2,10,22,5,1,-1,-3,17
1523053734722190,-5,-18,-31,-11,-7,-8,-7,-3
1523053734722190,0,-2,-17,-1,3,0,-17,0
1523053734743745,-3,-6,30,-6,-3,-7,8,-9
1523053734743745,-1,-2,-18,2,0,-3,-34,-13
1523053734744804,-4,-1,-1,1,-1,-6,-17,18
1523053734744804,4,-1,9,5,6,27,73,22
1523053734758285,0,10,-9,-8,-4,-4,-34,-57
1523053734758285,-6,-13,-6,6,1,4,6,-51
1523053734758787,5,12,6,0,-1,-2,25,99
1523053734758787,-2,-6,-7,-11,-7,-10,-5,-15
1523053734781346,6,18,-3,0,2,1,-1,-12
1523053734781346,-9,-16,-1,-1,-1,-5,-11,-16
1523053734782350,0,3,5,2,3,17,38,-128
1523053734782350,-4,0,1,-1,-7,-14,34,89
1523053734805409,-4,-1,-10,-4,-2,-6,-66,52
1523053734805409,3,6,10,-2,-3,14,76,-64
1523053734805911,1,-7,0,-2,-2,-40,-113,75
1523053734805911,8,0,1,2,7,35,103,-41
1523053734817441,-12,-18,-5,2,0,9,-4,-84
1523053734817441,7,11,32,7,-4,-5,-45,45
1523053734825965,-2,-1,-13,-5,-2,13,78,-111
1523053734825965,-11,-4,-8,-11,-21,-76,-128,85
1523053734841507,28,20,12,-9,-2,-1,20,1
1523053734841507,-10,-21,-4,0,7,25,96,-66
1523053734842008,1,4,13,6,8,43,66,-61
1523053734842008,-6,0,-22,-11,-13,-46,-123,-52
1523053734864066,-9,-14,-26,-5,-1,9,116,11
1523053734864066,-22,9,-2,-1,0,10,-43,127
1523053734864567,1,-4,16,-4,-8,-58,-100,3
1523053734864567,-5,-3,-5,11,14,44,68,-91
1523053734877601,12,12,-5,-3,-8,-3,-16,65
1523053734877601,5,3,1,-7,-4,-10,-13,-38
1523053734885624,-6,-11,-3,3,3,-5,-5,25
1523053734885624,-2,0,8,-6,-3,6,-15,-29
1523053734901166,-6,3,18,5,1,1,71,-65
1523053734901166,6,-1,-20,-1,-1,-19,-109,89
1523053734902169,4,-4,2,-5,4,19,58,34
1523053734902169,5,-1,-23,-5,-1,-7,11,-37
1523053734923725,-8,-1,7,3,-2,4,-71,-34
1523053734923725,1,3,23,10,2,10,60,-33
1523053734924728,0,-1,-51,-8,2,1,-33,17
1523053734924728,2,1,36,12,4,9,2,-4
1523053734937762,-6,-7,6,-3,3,2,-5,8
1523053734937762,4,1,-11,-1,-2,-2,20,4
1523053734945783,0,5,9,4,-3,-17,-77,-6
1523053734945783,3,-5,11,-3,9,39,127,23
1523053734961324,3,11,4,10,5,7,-9,34
1523053734961324,-3,-11,1,-2,-10,-27,-51,-18
1523053734962327,-1,-21,11,-5,8,19,29,-1
1523053734962327,-7,4,-63,-17,-6,-2,-20,-5
1523053734983886,0,2,0,2,-8,-14,-21,15
1523053734983886,6,12,-10,-4,15,12,50,-14
1523053734984887,-7,-4,7,-18,-24,-21,-29,-15
1523053734984887,0,-4,8,7,-15,-7,-19,12
1523053734997474,-1,-1,11,22,13,2,-20,8
1523053734997474,1,3,8,4,-4,-1,-4,-22
1523053735005943,-4,-3,-6,5,4,3,-5,5
1523053735005943,3,3,21,-8,-9,-2,-18,4
1523053735021484,-7,-15,-55,-41,-12,1,33,0
1523053735021484,3,10,16,16,6,2,22,-4
1523053735021986,-2,-3,-3,-8,-4,-1,-5,1
1523053735021986,-4,-7,14,10,7,0,-15,-6
1523053735044098,-1,-3,-2,2,6,-10,-4,-2
1523053735044098,-2,-6,-21,-10,1,-4,-11,-4
1523053735044547,1,5,-9,5,-3,8,22,5
1523053735044547,-1,7,-7,5,1,-5,-26,-6
1523053735057581,0,-7,49,11,3,2,15,9
1523053735057581,-5,-15,-71,-31,-17,-9,-27,-7
1523053735065601,0,9,25,18,5,0,19,-3
1523053735065601,1,0,2,0,5,-5,-29,-4
1523053735081646,0,-5,0,-2,-4,0,14,5
1523053735081646,1,6,12,7,4,3,-2,-5
1523053735082147,-1,-2,-11,-6,-5,2,-1,-4
1523053735082147,-2,-4,18,-2,1,-1,10,1
1523053735103703,-3,1,-41,-17,-3,-12,-12,-3
1523053735103703,2,2,24,14,2,4,38,-3
1523053735104706,-2,-3,-15,-9,0,0,-3,10
1523053735104706,1,5,0,2,-8,-4,-5,13
1523053735117741,0,4,8,2,23,5,-20,-9
1523053735117741,-5,-17,7,0,-6,-7,-17,-7
1523053735125799,1,5,-2,4,-3,2,2,-9
1523053735125799,3,2,-3,-6,-1,0,11,4
1523053735141305,-7,-6,9,1,-7,-4,-9,4
1523053735141305,-7,-19,-32,-5,-1,-4,-5,-7
1523053735142306,1,5,5,10,0,4,12,0
1523053735142306,1,13,3,-5,-2,-4,-9,-3
1523053735163864,0,-12,-5,1,-5,-6,-4,1
1523053735163864,0,7,22,1,-1,-2,7,1
1523053735164867,-5,-4,-21,-2,-4,-6,-42,-7
1523053735164867,-2,-5,-3,2,6,6,10,-2
1523053735186425,-2,2,2,0,-6,-5,-4,-2
1523053735186425,2,5,9,2,-1,-3,-8,0
1523053735186925,-2,1,-4,0,1,-1,-16,2
1523053735186925,-5,-9,1,-4,-4,-6,-19,-10
1523053735201500,1,0,-3,1,-1,7,23,4
1523053735201500,-1,8,8,-1,-1,-4,-15,0
1523053735201967,-2,-5,-2,4,2,2,-1,1
1523053735201967,-2,-11,-12,-13,-3,-19,-51,-9
1523053735224027,0,4,26,15,-2,22,95,11
1523053735224027,-2,-1,-1,-2,-5,-7,-17,-4
1523053735224525,4,15,13,1,2,6,25,2
1523053735224525,-1,-6,-4,2,-1,0,-15,-4
1523053735246590,-2,-5,18,7,3,-8,-33,-9
1523053735246590,-3,-1,-19,-6,1,6,14,17
1523053735247086,-2,-8,4,-6,-4,-1,12,3
1523053735247086,1,5,11,5,1,0,5,-7
1523053735260153,4,5,-24,-12,-4,1,11,4
1523053735260153,-2,0,7,2,1,-5,-39,-20
1523053735269143,-1,-5,2,0,-2,-11,-29,1
1523053735269143,2,1,-4,3,8,37,115,-4
1523053735283684,-6,-9,-8,-8,-9,-6,-88,-15
1523053735283684,0,2,1,1,-5,-32,-88,84
1523053735285689,12,12,4,-3,2,9,19,47
1523053735285689,-5,0,5,-3,-1,-10,-66,-34
1523053735306242,4,1,-17,-1,-3,-11,75,24
1523053735306242,-9,-11,6,10,11,68,104,-128
1523053735308250,-6,-10,3,0,-2,-21,-98,99
1523053735308250,-2,2,-10,-9,-10,-18,-62,-76
1523053735319779,3,12,-2,-1,1,-2,-49,94
1523053735319779,17,0,-1,-5,-3,10,94,-9
1523053735328802,-11,-8,6,7,5,5,-17,-96
1523053735328802,-10,-2,14,8,2,-23,78,-24
1523053735343896,0,-6,-8,-15,-13,-28,-60,70
1523053735343896,5,-4,-17,-4,0,-5,19,-67
1523053735345348,-3,-1,4,1,-2,-23,-2,-34
1523053735345348,9,7,-21,5,9,30,-14,79
1523053735366459,-9,-8,-29,-4,-2,-1,21,-9
1523053735366459,1,3,14,0,-2,3,-1,76
1523053735367907,0,-8,-20,-5,1,3,-31,-120
1523053735367907,4,7,-17,-8,-5,-2,4,25
1523053735380439,-4,3,-5,5,1,10,26,20
1523053735380439,0,-5,19,-4,-4,-1,-93,-10
1523053735388963,-7,3,-19,-11,-6,-2,76,-12
1523053735388963,1,5,10,1,-2,-4,-96,12
1523053735404004,0,-6,-4,-5,0,3,20,-50
1523053735404004,-5,2,-11,-2,-1,-17,-11,-6
1523053735405507,4,2,18,-2,-2,-2,-6,46
1523053735405507,0,-7,30,-3,-1,3,38,28
1523053735426577,-6,-11,-5,2,6,8,-6,-52
1523053735426577,-7,0,8,-5,-8,-23,-39,-4
1523053735428120,1,-2,-30,3,2,11,26,22
1523053735428120,-4,-10,-25,-6,-1,9,45,-4
1523053735440657,1,1,28,-2,-6,-5,-31,-31
1523053735440657,5,10,-7,7,6,3,19,15
1523053735447618,-3,2,27,2,7,5,-1,6
1523053735447618,-8,-23,0,-5,-6,-6,-4,-2
1523053735464162,-2,-6,-4,0,-3,-6,-15,-31
1523053735464162,0,5,-7,-5,2,1,17,23
1523053735465666,3,4,1,-1,-2,5,7,1
1523053735465666,-1,6,0,0,-5,-17,-17,-8
1523053735487725,-2,0,2,0,3,4,-9,-11
1523053735487725,-2,-1,-4,-2,-7,-23,-51,-1
1523053735489229,0,-2,0,2,5,15,34,13
1523053735489229,0,-4,-1,-5,2,-1,3,-6
1523053735500759,1,4,8,0,-3,-4,-15,-15
1523053735500759,-6,-7,-7,-5,-1,-14,-38,-2
1523053735507778,-3,-12,-4,6,-6,-1,32,-1
1523053735507778,-2,-1,-3,-4,-1,5,26,10
1523053735523860,2,5,-4,2,4,-1,-5,-9
1523053735523860,-1,3,4,-1,0,2,11,1
1523053735525327,2,1,0,1,-4,-3,0,2
1523053735525327,1,-3,-9,-4,0,4,-1,-3
1523053735546381,1,3,7,3,-3,-2,-4,-6
1523053735546381,-4,-2,5,3,4,3,17,2
1523053735547885,0,1,12,0,-2,0,-1,3
1523053735547885,1,7,-10,16,-2,-7,-13,-4
1523053735560920,-2,1,17,-13,0,2,13,-4
1523053735560920,-1,-10,-16,5,-4,2,17,7
1523053735567491,-1,2,5,-4,-4,-2,-22,-6
1523053735567491,4,12,17,19,6,2,20,2
1523053735583982,-3,7,1,-5,-8,-9,-2,-1
1523053735583982,-6,-28,-42,-12,-1,14,27,6
1523053735585487,-7,3,-11,-16,-8,-24,-33,-13
1523053735585487,-1,-4,10,5,1,3,-12,-4
1523053735606543,3,6,25,11,6,6,22,0
1523053735606543,2,13,-19,-13,-2,-6,-10,0
1523053735608046,-1,-10,1,-5,-6,2,-7,0
1523053735608046,-2,6,6,-4,-4,2,24,5
1523053735620578,-6,-29,-12,3,0,-1,-13,-6
1523053735620578,2,16,42,11,-2,2,1,0
1523053735627653,0,-9,-22,0,7,7,28,4
1523053735627653,-2,4,8,-6,-4,-4,-12,-2
1523053735644142,2,0,-19,-12,-5,-1,-8,-3
1523053735644142,0,2,26,20,1,-4,-2,-1
1523053735645646,-6,-3,-21,-11,-3,-2,-40,-9
1523053735645646,4,8,5,13,2,3,14,3
1523053735666201,-3,-12,-46,-14,1,-2,-9,-4
1523053735666201,-3,-5,-13,-26,-12,1,-16,-1
1523053735668206,3,7,14,8,1,-5,16,1
1523053735668206,-1,-6,-6,-6,0,-10,-41,-8
1523053735680239,1,10,30,21,1,15,51,1
1523053735680239,-1,2,6,0,3,-5,-56,-7
1523053735689261,0,1,29,4,2,9,57,8
1523053735689261,0,-4,11,-7,-5,6,3,3
1523053735703854,0,1,16,15,1,-9,-12,-4
1523053735703854,-4,-11,-76,-50,-5,-4,0,-2
1523053735705304,0,-1,14,15,3,7,12,0
1523053735705304,0,2,-13,4,-1,-15,-36,-4
1523053735726360,6,14,8,-3,12,44,84,22
1523053735726360,0,-9,3,-1,-2,-2,7,-1
1523053735727864,-1,-3,14,19,-2,3,-9,2
1523053735727864,-1,-2,-23,-30,-5,-17,-20,-4
1523053735739897,-5,-4,-25,-11,-10,-16,-35,-9
1523053735739897,2,10,33,23,5,6,0,1
1523053735748922,4,3,-25,-13,4,6,34,3
1523053735748922,-11,-26,-48,-44,-11,6,-14,-4
1523053735763962,0,7,23,27,4,-5,-18,-6
1523053735763962,6,19,67,4,3,1,14,0
1523053735765464,-11,-18,-42,-20,-21,-20,-64,-13
1523053735765464,2,1,24,39,9,13,10,5
1523053735786521,-3,-11,8,-16,-3,-2,13,1
1523053735786521,-1,8,-13,5,1,9,-6,3
1523053735788026,4,9,48,3,7,3,-6,1
1523053735788026,-2,-2,-22,-10,1,3,13,-2
1523053735800113,0,-7,-16,10,-2,-4,-19,-3
1523053735800113,3,3,18,9,-4,-4,0,1
1523053735809082,-2,-2,-9,-17,2,5,0,1
1523053735809082,0,2,-26,13,-6,-2,-4,-1
1523053735824122,-1,-4,18,1,4,14,71,11
1523053735824122,-3,-8,-14,-12,-5,2,23,0
1523053735825680,-1,9,-17,-8,0,-1,-3,-1
1523053735825680,8,11,32,13,0,-6,1,7
1523053735846180,0,1,-9,-14,-8,-27,-64,-14
1523053735846180,-6,-12,-11,2,-4,-7,-2,-3
1523053735848185,0,4,2,6,2,5,17,3
1523053735848185,6,16,19,-1,1,-5,-12,-2
1523053735860216,-14,-3,-12,-4,-5,-5,-36,-8
1523053735860216,-7,-21,-11,-4,-1,1,27,-2
1523053735869242,0,-9,11,10,-1,-9,-20,-2
1523053735869242,1,7,3,-4,-3,-7,29,-1
1523053735883781,8,11,-12,-14,-6,-6,-17,8
1523053735883781,-7,-7,14,12,-1,1,-12,-17
1523053735885283,3,-3,-4,-2,2,0,-29,-4
1523053735885283,-21,-14,-2,-5,-4,-6,23,-1
1523053735906344,6,8,-5,-1,5,30,57,8
1523053735906344,2,7,0,2,-2,-12,-18,-3
1523053735907844,0,-1,-5,-6,-3,1,21,4
1523053735907844,-2,-9,3,-5,-2,-11,-59,-31
1523053735919875,-5,-7,14,-2,-5,-25,-60,16
1523053735919875,4,8,-38,-3,0,14,45,9
1523053735936421,2,-1,2,3,4,17,41,-2
1523053735936421,-1,-12,10,3,4,12,1,1
1523053735943940,-2,-3,4,0,-3,-1,10,-14
1523053735943940,-2,-5,-8,-4,-8,-22,-75,-13
1523053735945443,-1,-2,3,1,-2,-10,0,9
1523053735945443,-3,-2,-5,2,4,12,65,20
1523053735966500,-1,-2,1,-4,-1,-5,-26,-17
1523053735966500,-1,-3,8,0,-3,-8,-17,16
1523053735968004,-2,0,-2,-1,-4,-5,27,3
1523053735968004,-2,-2,6,-1,2,8,-65,-10
1523053735980036,3,-4,-11,-1,-1,-2,16,22
1523053735980036,0,1,6,3,4,2,18,-12
1523053735989060,-7,-4,4,-4,-2,-6,-26,-115
1523053735989060,3,4,-1,2,-3,-5,-2,105
1523053736004099,0,-6,-9,-4,-2,-5,-7,-26
1523053736004099,-5,-3,5,-2,-4,-8,-62,-50
1523053736005605,-1,-2,1,0,1,2,22,-13
1523053736005605,0,-2,-3,-2,-2,-4,-21,-36
1523053736026159,0,4,-5,1,-2,-5,13,3
1523053736026159,4,1,8,4,4,0,0,21
1523053736028200,-18,-25,-14,-11,-4,-8,-21,18
1523053736028200,1,7,6,1,-3,-3,-3,-14
1523053736040196,1,3,10,-1,1,9,13,18
1523053736040196,0,-1,-48,-24,-10,0,37,-5
1523053736049219,3,0,12,4,0,-4,-14,23
1523053736049219,0,1,23,28,2,-1,5,-6
1523053736063816,-3,-4,-50,-29,-1,-2,-20,-17
1523053736063816,-1,0,21,39,4,1,25,9
1523053736065262,6,11,15,15,3,3,-14,17
1523053736065262,-3,-8,3,-26,0,3,10,-13
1523053736086319,-2,0,-6,5,-14,-22,-74,-17
1523053736086319,6,12,13,-5,12,9,18,11
1523053736087823,-8,-26,-46,-5,-8,-7,-10,16
1523053736087823,4,12,94,43,9,6,31,-17
1523053736099855,-3,-2,-25,-12,1,-10,-32,-6
1523053736099855,2,5,18,-9,-7,-4,-16,7
1523053736108879,4,16,42,31,0,-16,-40,0
1523053736108879,1,-7,-14,-45,3,8,35,-1
1523053736123919,-3,-5,41,24,4,18,34,4
1523053736123919,-8,-19,-34,-1,6,22,61,7
1523053736125423,-1,4,-60,-29,-9,-10,1,0
1523053736125423,3,13,-16,11,-2,-15,-66,-11
1523053736146479,8,11,22,-3,1,3,27,6
1523053736146479,-7,-14,-34,-60,-7,-10,-39,-8
1523053736147984,-7,-14,0,19,-10,9,71,5
1523053736147984,-4,1,-6,24,-3,-13,-24,-6
1523053736169081,5,11,36,24,8,10,-4,-3
1523053736169081,7,8,44,19,12,47,66,14
1523053736170596,4,4,-40,-29,-1,1,-2,4
1523053736170596,-7,-13,-19,-14,-13,-25,-39,-10
1523053736184078,-1,2,30,-3,-3,-12,-30,-11
1523053736184078,0,7,1,41,0,-9,25,0
1523053736185582,1,-12,16,-36,5,5,-7,6
1523053736185582,2,11,-6,14,6,16,32,4
1523053736206638,-17,-45,-93,-55,-15,-15,-23,-10
1523053736206638,-5,0,21,33,6,1,17,0
1523053736208196,7,23,41,15,-1,-16,-18,-2
1523053736208196,-1,-7,-36,-1,-1,13,67,5
1523053736228698,-3,-3,-25,-39,0,2,26,4
1523053736228698,-2,-9,13,1,-5,-24,-66,-8
1523053736230704,-4,-1,-21,3,1,-1,-18,-5
1523053736230704,1,-4,-2,19,-2,13,16,0
1523053736243738,-9,-14,-56,-29,-14,-11,-28,-5
1523053736243738,4,9,30,6,3,7,64,6
1523053736245242,0,1,12,10,4,-1,-8,0
1523053736245242,-1,-5,-26,-31,-8,3,19,1
1523053736266351,4,8,15,28,6,11,30,3
1523053736266351,-4,-5,7,0,-4,-23,-88,-10
1523053736267802,-2,-7,-52,-21,0,23,72,10
1523053736267802,-2,0,12,-1,-5,-5,-2,-4
1523053736288857,-2,3,29,26,2,1,4,0
1523053736288857,0,0,-16,-13,-3,-4,-10,0
1523053736290361,4,6,24,17,4,0,-26,0
1523053736290361,-8,-23,-21,-16,1,3,4,-1
1523053736303439,1,11,9,8,1,-2,0,-1
1523053736303439,-5,-8,6,-8,-6,-9,-26,-7
1523053736309958,0,9,38,20,4,5,26,5
1523053736309958,-2,-16,-60,-59,-12,-21,-53,-2
1523053736326503,-11,-5,39,17,2,-11,-23,-24
1523053736326503,0,0,-15,-10,-4,4,15,2
1523053736328008,-1,-2,27,3,-4,-5,-18,-3
1523053736328008,3,15,11,4,2,-6,-12,-2
1523053736349064,8,3,-2,9,6,3,11,-16
1523053736349064,-14,-9,-13,-3,2,1,-9,19
1523053736350568,-5,-4,-11,-9,-2,1,4,2
1523053736350568,0,-4,16,5,3,0,-1,-19
1523053736363099,-1,-5,-7,-1,-2,-10,-57,9
1523053736363099,7,14,4,0,-3,2,12,3
1523053736370118,-6,-2,2,-5,-4,-18,-98,-37
1523053736370118,1,2,2,6,5,10,22,18
1523053736386162,3,6,8,5,-4,-7,-9,25
1523053736386162,-11,-9,-11,-6,-5,-17,-46,-101
1523053736388166,-1,-4,-2,-5,-3,-2,-35,108
1523053736388166,3,-3,9,-4,-4,-2,28,-36
1523053736408780,2,0,1,1,8,20,55,-56
1523053736408780,-4,0,-1,-4,-2,-14,-54,-57
1523053736410726,2,3,-6,1,0,24,125,-2
1523053736410726,-3,3,7,6,-2,-12,-101,9
1523053736423294,1,1,0,0,-2,0,37,35
1523053736423294,2,-3,-9,-9,-5,0,30,42
1523053736429811,2,1,6,0,2,-2,-8,-28
1523053736429811,1,-1,1,2,1,9,25,38
1523053736446321,-7,-3,-3,-3,-6,-11,-47,-93
1523053736446321,4,7,0,5,4,9,25,127
1523053736447826,-1,-5,-2,-7,0,-2,-28,-9
1523053736447826,-4,0,10,4,2,-1,-8,-103
1523053736468883,-1,-3,1,-3,-3,-4,-17,48
1523053736468883,1,0,-13,-4,-4,-7,10,-15
1523053736470387,0,2,11,1,-3,-10,-25,-32
1523053736470387,-3,-4,-27,-1,4,10,17,13
1523053736483420,2,4,7,4,1,7,1,5
1523053736483420,3,0,3,-2,-1,6,12,6
1523053736489938,-2,-1,-5,-1,1,-3,25,5
1523053736489938,1,1,6,-2,-6,-7,-10,-2
1523053736506483,1,-1,-3,1,1,4,20,26
1523053736506483,1,2,-4,-1,2,2,15,-9
1523053736507985,-2,-10,10,14,-2,-5,-17,-21
1523053736507985,0,2,8,-4,2,4,19,18
1523053736529042,-1,-3,-4,-12,-7,-9,-5,0
1523053736529042,0,8,17,5,6,16,22,-11
1523053736530579,1,-7,5,8,1,2,-16,-10
1523053736530579,-1,-3,-30,-33,-16,-3,32,19
1523053736543080,2,11,19,21,9,9,27,11
1523053736543080,-2,-11,41,15,-2,-1,25,-14
1523053736557702,0,-8,-49,-38,2,15,6,10
1523053736557702,5,10,62,56,14,11,33,14
1523053736566224,-7,-10,-111,-59,-10,9,17,-7
1523053736566224,0,2,-42,-11,-10,-21,-49,-11
1523053736568232,-1,-2,40,5,-4,-6,-3,-3
1523053736568232,-4,-8,11,5,-4,-14,-22,-6
1523053736588785,7,22,28,6,11,11,40,8
1523053736588785,-1,-5,33,7,7,-21,-77,-14
1523053736590291,-1,-3,-110,-18,-9,2,19,8
1523053736590291,6,11,-5,2,6,25,62,11
1523053736603380,-10,-23,39,20,-9,-13,-34,5
1523053736603380,-7,-4,-31,-71,-9,-1,-8,-8
1523053736609840,1,12,79,43,6,-13,-29,-10
1523053736609840,0,4,21,4,4,4,-9,2
1523053736626384,2,2,10,11,0,-9,-11,-1
1523053736626384,6,7,23,20,1,7,27,3
1523053736627890,-4,-6,-60,-24,1,8,1,-7
1523053736627890,-6,-13,-22,-53,-13,-13,-26,0
1523053736648444,1,3,21,36,4,-5,-12,-6
1523053736648444,-2,-5,15,18,-5,-2,-1,-5
1523053736654961,-1,4,15,-22,-5,-13,-23,-4
1523053736654961,1,-4,-14,19,6,17,46,12
1523053736662480,0,-1,8,-9,-3,-2,-6,-9
1523053736662480,2,-6,-75,-27,-3,1,-9,-2
1523053736671505,-1,7,14,8,3,20,20,6
1523053736671505,-3,-22,-27,-12,-3,-9,-27,-7
1523053736686545,0,2,55,11,-1,-5,6,6
1523053736686545,1,5,-8,18,2,3,26,1
1523053736688049,-6,-8,-43,-26,-9,-6,-10,-9
1523053736688049,-2,1,12,9,0,-8,-23,-3
1523053736709105,3,10,11,12,4,5,6,1
1523053736709105,-1,-13,-18,-11,-5,4,21,-1
1523053736710609,5,4,26,18,2,0,23,2
1523053736710609,-3,7,2,-21,-2,-7,-18,-2
1523053736722642,-4,-11,-39,7,-4,-1,-5,-2
1523053736722642,-1,3,32,6,6,8,13,3
1523053736731666,-5,0,17,-4,-11,-19,-65,-15
1523053736731666,-3,-10,-35,-20,-2,8,29,3
1523053736746205,1,-1,16,-13,0,1,-19,-1
1523053736746205,-1,4,57,29,-1,-7,-20,-1
1523053736748210,-3,-7,-90,-49,-7,-11,1,-3
1523053736748210,0,9,43,20,4,-14,-49,-8
1523053736769265,-7,-23,-29,-14,-3,0,-17,-5
1523053736769265,0,7,-24,1,1,8,13,1
1523053736770769,-2,2,53,17,-2,-5,-8,-5
1523053736770769,2,4,-9,-1,-4,-7,-11,-5
1523053736782354,4,5,-16,-8,0,4,24,5
1523053736782354,-1,2,13,15,3,-1,-43,-7
1523053736791324,5,-1,13,6,7,4,-11,4
1523053736791324,-3,-2,-5,3,-3,-2,-3,-3
1523053736806418,-12,-14,11,-1,-3,3,32,-3
1523053736806418,2,-4,-21,-26,-4,-7,-22,-4
1523053736807869,4,8,21,14,2,-1,13,2
1523053736807869,1,0,-5,6,-3,0,-5,1
1523053736828925,3,3,5,-1,1,-9,-25,0
1523053736828925,-2,-4,-9,-7,-3,3,32,1
1523053736830429,-4,-6,8,11,2,3,7,-1
1523053736830429,1,10,13,7,0,-3,14,-1
1523053736842461,-2,-9,-11,-9,-3,-3,-9,-1
1523053736842461,-4,6,-7,-7,-6,-3,12,-6
1523053736851484,-1,-20,8,5,2,3,-11,17
1523053736851484,0,4,4,3,-2,-2,-1,4
1523053736866525,0,1,-11,-7,-3,-2,-14,-6
1523053736866525,-3,-2,1,3,-1,-5,-4,-20
1523053736868029,-2,3,12,9,2,-2,7,24
1523053736868029,-1,-5,-7,-7,-1,15,91,-97
1523053736890087,2,7,-6,2,-1,-1,-33,111
1523053736890087,-2,-4,3,-5,-4,-2,40,-51
1523053736892093,-11,-17,2,-4,-4,-8,14,-30
1523053736892093,1,2,-2,2,2,6,30,17
1523053736902620,8,9,2,1,5,14,82,-26
1523053736902620,-1,-1,-1,-2,-1,2,-33,66
1523053736911645,-3,6,-2,-2,-6,-12,-54,-37
1523053736911645,-2,-4,2,2,-1,-6,1,-23
1523053736926219,-1,1,-1,2,2,9,13,13
1523053736926219,-4,-6,-4,0,2,-6,-30,13
1523053736928190,-1,6,2,-1,-1,4,63,-63
1523053736928190,-2,-4,-2,-3,-7,-16,-114,88
1523053736948742,1,-3,-7,-9,-7,-15,20,-6
1523053736948742,-1,-3,2,0,2,13,34,19
1523053736950747,0,1,3,-1,1,6,13,-11
1523053736950747,-3,-2,1,4,2,-3,-6,-35
1523053736962779,-5,-3,-6,-2,-1,-13,-61,-26
1523053736962779,1,-2,1,0,-1,6,12,11
1523053736971303,3,2,-1,0,0,2,13,12
1523053736971303,-2,0,-2,0,-1,2,0,23
1523053736986397,-3,-4,-3,-3,-3,-4,-19,0
1523053736986397,-3,0,0,2,3,-5,-1,-26
1523053736987847,3,5,6,0,-3,-1,0,18
1523053736987847,1,-1,2,-5,2,1,3,13
1523053737008904,0,2,21,26,3,1,9,-27
1523053737008904,-4,-14,-39,-45,-10,-2,12,-9
1523053737010406,1,1,21,16,1,-4,-3,22
1523053737010406,2,1,-9,5,4,8,13,9
1523053737022438,-4,-5,-8,-23,-8,4,19,-19
1523053737022438,0,3,50,15,3,-3,-13,4
1523053737031465,-3,-6,-28,-11,-3,-7,-50,13
1523053737031465,0,6,5,45,-2,-5,11,-10
1523053737046539,7,16,31,-18,22,21,19,1
1523053737046539,-3,-10,-20,-36,-13,-2,-28,-7
1523053737048043,-4,-4,60,33,2,5,16,2
1523053737048043,-6,-22,33,3,3,1,33,-2
1523053737069062,1,13,17,1,-4,-11,-42,-5
1523053737069062,2,4,-58,-22,-2,-3,31,6
1523053737070567,8,10,-6,-4,-3,0,-3,4
1523053737070567,-12,-4,-7,-16,-3,4,-24,-1
1523053737091624,-2,-15,6,19,2,-7,-11,-5
1523053737091624,-3,0,3,10,-1,-22,-55,-13
1523053737093181,6,7,-11,-7,1,22,44,12
1523053737093181,1,-1,-41,-10,-6,-12,-19,-3
1523053737106162,-7,-10,34,58,-1,-5,-9,-10
1523053737106162,-1,-2,-29,-26,-14,-8,-23,-5
1523053737108168,-6,-14,-10,0,-6,-13,-19,-3
1523053737108168,3,11,20,-3,2,-3,-15,2
1523053737128722,-7,-12,-43,-9,-5,-1,6,-6
1523053737128722,4,11,72,56,5,11,43,7
1523053737130225,0,-5,2,-1,3,2,10,6
1523053737130225,2,-2,30,-16,-4,-2,-1,-3
1523053737151337,-1,-7,-14,5,-4,3,17,4
1523053737151337,0,3,63,16,5,8,26,3
1523053737152787,1,11,-19,-14,4,2,-4,2
1523053737152787,0,0,48,35,-3,-4,24,-4
1523053737166321,-2,-7,-98,-70,0,12,11,-2
1523053737166321,3,2,22,36,6,2,28,2
1523053737167827,-3,2,-29,-26,-13,-2,18,1
1523053737167827,1,18,19,-1,-1,-15,-46,-4
1523053737188881,-3,-18,-22,-23,1,-4,-17,-4
1523053737188881,-6,-1,42,17,1,-16,-70,-10
1523053737190386,11,13,46,19,5,12,29,7
1523053737190386,-3,-5,-21,-11,-2,4,9,1
1523053737211442,5,16,62,31,1,-5,-2,0
1523053737211442,-6,-14,-93,-53,-7,-2,-7,-3
1523053737213000,-7,-14,-14,2,0,-10,-37,-7
1523053737213000,0,-2,1,-11,-1,0,-19,-4
1523053737225478,2,8,46,41,-4,-11,-10,-1
1523053737225478,-2,-10,-85,-32,-4,10,24,2
1523053737232536,-5,3,45,-6,-2,-19,-78,-8
1523053737232536,-3,-15,-73,-15,-2,12,46,5
1523053737249043,1,7,24,8,1,0,-13,-2
1523053737249043,2,11,54,14,6,3,-1,2
1523053737250547,-7,-16,-64,-24,-7,-7,-25,-4
1523053737250547,-1,-1,39,5,-1,-5,-17,-1
1523053737271602,-2,1,-5,-12,0,4,-9,0
1523053737271602,1,0,2,2,-1,4,0,0
1523053737273107,1,-4,11,14,2,4,25,4
1523053737273107,-4,-2,-15,-6,-2,-14,-67,-10
1523053737285639,3,7,-8,-14,-3,3,9,1
1523053737285639,-5,-11,16,9,0,-8,-17,-5
1523053737292659,-4,-12,8,9,6,26,76,7
1523053737292659,-8,-4,-10,-8,-4,-4,-35,-6
1523053737308700,2,5,-10,-21,-9,-10,-30,-6
1523053737308700,3,0,7,13,3,4,23,-16
1523053737310705,7,20,-2,1,-2,-9,-34,20
1523053737310705,1,-18,-8,-7,1,12,43,4
1523053737331297,-5,0,-3,2,0,7,35,2
1523053737331297,2,-4,-3,-1,-2,-7,-17,-24
1523053737332766,-1,-3,0,-4,-3,-6,1,7
1523053737332766,1,6,6,0,-1,0,13,21
1523053737345853,2,-1,0,-2,-2,-6,-23,-38
1523053737345853,0,3,0,6,2,15,7,-42
1523053737352370,-1,3,0,-4,-2,2,38,95
1523053737352370,-5,-5,0,2,1,9,78,-27
1523053737368862,1,-5,-1,-3,3,18,90,-6
1523053737368862,6,9,0,5,3,0,-28,38
1523053737370366,-14,-17,-2,-4,-5,-17,-57,-39
1523053737370366,0,4,-1,0,-1,-24,-39,-2
1523053737391421,-5,-3,-6,-5,-4,11,20,6
1523053737391421,3,2,4,1,2,2,12,-10
1523053737392925,2,5,2,4,5,6,15,-5
1523053737392925,0,1,-1,0,-2,-8,-6,-28
1523053737405460,0,-5,-3,-5,-1,-12,-29,47
1523053737405460,-4,-6,1,1,-3,-5,-6,-18
1523053737412510,1,-1,-4,-4,-2,4,36,43
1523053737412510,-2,-4,-1,-2,1,2,-66,-19
1523053737429021,3,2,0,1,-1,-3,6,-24
1523053737429021,-3,0,-2,-1,-3,-7,-1,11
1523053737430526,-2,-3,-2,-1,-1,-11,-22,-35
1523053737430526,1,2,1,-3,-3,4,20,22
1523053737451580,-5,-4,-3,-4,-2,-14,-32,2
1523053737451580,-4,-3,-1,-2,0,-2,-1,22
1523053737453085,1,2,1,-1,-3,-1,-6,-46
1523053737453085,4,2,3,4,3,16,78,25
1523053737465618,-3,-6,-9,-1,-2,3,-3,1
1523053737465618,-3,-2,0,-4,-6,-9,-7,-1
1523053737472637,1,0,2,-2,1,13,31,-11
1523053737472637,-1,-2,-3,-3,-3,-8,-45,2
1523053737488681,-2,0,6,0,-2,-8,-13,3
1523053737488681,0,1,26,-1,-1,3,14,0
1523053737490686,-1,-8,-63,-9,-2,7,16,-9
1523053737490686,-1,0,0,-3,1,3,8,3
1523053737511241,-1,2,-1,16,4,-3,-3,-8
1523053737511241,0,-1,14,-2,2,9,-1,14
1523053737513245,-2,-5,-16,0,-9,-10,-23,-13
1523053737513245,0,2,7,13,4,-2,-5,-5
1523053737525779,3,8,62,10,8,7,9,4
1523053737525779,0,-8,-62,-20,-4,-14,-23,1
1523053737532296,-6,-11,-7,-23,-10,-6,-18,-7
1523053737532296,-7,-21,-90,-47,-16,10,66,1
1523053737548839,1,14,30,11,1,-4,-21,-2
1523053737548839,0,3,21,18,5,-4,-9,6
1523053737550343,-1,5,27,14,3,-3,-6,-13
1523053737550343,5,19,37,16,2,-16,-71,-3
1523053737571401,-9,-27,-57,-48,-10,-13,-51,-10
1523053737571401,-5,-7,-51,-15,-8,9,53,2
1523053737572904,2,5,33,10,6,6,-7,-3
1523053737572904,2,7,61,29,2,-4,-3,-4
1523053737584937,1,5,1,8,-6,-12,-22,3
1523053737584937,-9,-19,-59,-47,-14,-5,-10,-3
1523053737599975,3,2,31,22,10,13,54,6
1523053737599975,-2,1,-7,-3,-3,-6,-16,-3
1523053737609037,-1,-6,11,11,-5,-2,17,-3
1523053737609037,0,2,-33,-16,1,5,16,7
1523053737610505,4,5,12,23,4,5,5,-2
1523053737610505,0,-1,-3,-15,4,0,-4,0
1523053737631560,-8,-8,-5,10,2,8,2,-5
1523053737631560,-3,-8,41,28,-1,-3,-27,-1
1523053737633064,-3,-1,7,-9,-4,-19,-42,-7
1523053737633064,5,13,19,3,4,8,16,5
1523053737645131,6,6,28,10,3,5,21,3
1523053737645131,-2,-2,-14,-4,-1,-6,-18,-3
1523053737654121,4,12,-4,-4,-1,9,16,5
1523053737654121,-2,-13,-4,7,1,-3,-5,-1
1523053737668659,-1,16,36,33,3,-1,7,-1
1523053737668659,-18,-51,-61,-72,-22,-14,-13,-11
1523053737670663,2,13,25,4,2,-8,-13,-2
1523053737670663,-2,3,3,-2,-1,0,-15,-1
1523053737691218,2,3,-4,9,2,3,7,5
1523053737691218,3,16,38,12,2,-4,-13,0
1523053737693228,-3,-12,-15,18,2,12,1,-2
1523053737693228,-3,-1,6,-6,-5,-7,-22,-4
1523053737705257,-4,-11,-86,-50,-11,11,65,12
1523053737705257,4,15,49,29,5,-2,-17,-4
1523053737713778,-2,-6,-37,-3,-6,-6,-12,-3
1523053737713778,-2,-3,2,15,2,3,13,-1
1523053737728872,-5,-5,7,-8,2,-2,-12,-4
1523053737728872,0,0,14,13,-2,-2,5,2
1523053737730324,3,14,51,8,1,-2,0,2
1523053737730324,-3,-14,-25,-17,0,-5,-29,-8
1523053737751378,-2,-9,-14,-17,-5,5,23,0
1523053737751378,6,17,92,63,13,12,43,8
1523053737752883,-10,-21,-93,-102,-17,-9,-9,-9
1523053737752883,0,0,31,16,1,-2,-6,0
1523053737764915,-1,-4,11,-4,-3,-5,-4,-3
1523053737764915,5,13,18,25,11,16,19,5
1523053737773939,3,9,19,8,2,4,19,5
1523053737773939,-5,-5,-25,-21,-3,0,5,-2
1523053737789013,-1,-14,1,12,2,1,1,1
1523053737789013,1,7,-16,-8,-3,-3,-11,-2
1523053737790483,1,-3,7,7,0,-3,0,-1
1523053737790483,3,6,-7,-3,0,8,30,7
1523053737811538,1,9,9,5,0,-13,-29,-4
1523053737811538,1,2,-9,-8,-5,-2,-5,0
1523053737813100,-3,-8,-4,-2,0,-7,-8,-1
1523053737813100,-3,-1,15,9,0,-5,-8,-11
1523053737825074,0,4,-9,-8,-3,-9,-21,13
1523053737825074,1,-4,-8,-6,0,7,68,16
1523053737834098,0,3,16,10,1,-4,-29,-22
1523053737834098,2,1,3,4,3,11,85,35
1523053737849138,-4,1,-6,-7,-3,-8,-67,-21
1523053737849138,-8,-10,-2,-1,0,4,9,-70
1523053737850642,-2,-2,9,10,-3,-6,-24,30
1523053737850642,5,-1,-9,-8,-6,-7,-6,49
1523053737871198,2,-4,1,0,3,15,104,-69
1523053737871198,-11,3,6,6,-2,-22,-112,-33
1523053737873202,-2,-11,1,-5,-5,-17,-75,44
1523053737873202,0,-2,-1,-6,-1,17,70,-113
1523053737885236,3,7,3,-2,-2,-4,59,55
1523053737885236,-6,-6,-2,-3,-6,-10,-38,21
1523053737893759,0,-1,0,4,4,7,5,-36
1523053737893759,-4,1,-5,-4,-2,-15,-41,15
1523053737908797,-2,0,0,0,-5,-1,-21,-48
1523053737908797,4,-2,-1,-1,-24,4,40,5
1523053737910302,-1,0,5,1,16,4,-33,28
1523053737910302,1,0,-3,3,6,10,11,-2
1523053737931358,-4,-7,-5,-4,6,-3,-19,-18
1523053737931358,-1,-2,-2,-3,-5,-5,-9,30
1523053737932863,-1,1,4,-1,-9,-1,8,-13
1523053737932863,-1,-1,2,-1,-4,-10,-33,-36
1523053737944893,-4,-3,-4,-4,-6,-6,-46,9
1523053737944893,2,2,0,2,8,3,4,36
1523053737953918,2,0,0,-1,-6,9,46,-32
1523053737953918,-1,-3,11,5,0,-3,-23,-5
1523053737968957,-3,-3,-3,-4,-1,-1,-9,26
1523053737968957,4,3,-8,4,6,13,39,-14
1523053737970461,-3,0,-1,0,0,-7,21,-24
1523053737970461,-2,-3,2,-2,-10,-6,-12,30
1523053737991572,8,15,57,49,5,5,-14,5
1523053737991572,-7,-15,-60,-89,-4,-2,0,-27
1523053737993023,-9,-23,78,38,-2,-4,-5,1
1523053737993023,-3,-5,27,8,1,0,-4,8
1523053738005055,3,7,35,23,1,-2,-6,-7
1523053738005055,5,7,-61,-21,3,3,6,-1
1523053738014078,0,9,-16,-18,-4,1,7,6
1523053738014078,-1,-1,-19,-7,1,5,-6,-5
1523053738029119,0,3,55,36,7,-3,3,-2
1523053738029119,2,6,34,10,3,1,-20,6
1523053738030623,-2,-16,-62,-22,-1,5,-1,-4
1523053738030623,-4,1,-31,-2,0,1,27,-5
1523053738051177,-6,-12,-16,-15,-9,-5,-8,4
1523053738051177,5,24,69,54,9,-6,-13,1
1523053738053183,-1,-17,-4,-7,-1,11,51,-5
1523053738053183,-1,-8,-34,-18,-2,-2,1,1
1523053738073736,0,0,-7,-31,-6,5,23,10
1523053738073736,0,-3,-15,-13,-6,1,9,-4
1523053738075241,1,13,0,6,2,-2,-24,-9
1523053738075241,3,10,54,26,5,-4,-8,8
1523053738088777,-5,-19,-49,-69,0,-5,-36,-7
1523053738088777,-8,-15,-5,36,-12,-12,16,-10
1523053738090281,6,13,51,29,6,9,30,7
1523053738090281,3,6,38,7,0,-13,-31,-3
1523053738111402,-9,-12,-73,-32,-10,3,-7,-7
1523053738111402,-1,1,19,10,3,-10,-34,-6
1523053738112907,1,1,-30,-31,-3,1,1,-1
1523053738112907,-3,4,11,15,-2,-3,-13,-7
1523053738133964,-6,-6,9,13,3,1,6,0
1523053738133964,1,-20,4,-10,3,1,6,3
1523053738135467,-1,12,-13,18,-5,-3,11,-2
1523053738135467,1,-7,-3,-27,-2,-5,-32,-2
1523053738149056,6,19,-5,7,-4,-4,1,4
1523053738149056,-2,-4,13,-5,-2,4,11,4
1523053738150508,1,-4,59,31,6,-3,-2,-5
1523053738150508,0,6,-12,-4,1,4,12,2
1523053738171562,-2,-5,4,1,-3,-1,-7,2
1523053738171562,4,10,12,26,5,10,42,7
1523053738173067,-6,-5,-68,-41,-7,-6,-13,-7
1523053738173067,-3,-4,-13,-11,-3,20,35,7
1523053738193620,0,-3,-3,10,5,6,-1,0
1523053738193620,2,5,23,9,4,-5,-21,-3
1523053738195688,0,2,-11,-8,-2,2,13,2
1523053738195688,-3,-8,-6,5,-3,-4,-19,-6
1523053738208159,0,-1,-1,-14,-3,-4,2,-4
1523053738208159,2,3,21,12,3,1,0,2
1523053738215178,-1,-2,-28,-20,-4,-6,-7,-1
1523053738215178,-2,-10,6,18,-1,-7,-14,-2
1523053738231260,0,-1,11,-5,-4,2,5,0
1523053738231260,-5,-8,-45,-24,-8,-7,-4,-5
1523053738233226,-1,1,9,10,-2,-1,6,0
1523053738233226,2,2,6,-2,-5,-5,-5,-1
1523053738253782,-2,9,9,2,-1,-5,-4,-3
1523053738253782,-3,-8,19,-5,-1,4,-6,-1
1523053738255287,-3,-8,-11,-20,-6,-15,-40,-7
1523053738255287,3,11,5,16,8,8,22,6
1523053738268321,-1,1,32,5,-1,-6,-30,-4
1523053738268321,-2,3,-52,-10,-6,-8,-20,-7
1523053738274840,-1,-10,24,18,2,4,6,2
1523053738274840,-5,-9,-54,-28,-9,-3,-15,-2
1523053738291382,-2,9,-30,5,2,-1,1,0
1523053738291382,4,3,20,6,0,-5,-24,-2
1523053738292922,6,13,8,10,4,5,40,6
1523053738292922,-8,-9,11,-7,-3,2,-12,-5
1523053738313975,-4,-22,-8,-6,-3,-5,-14,-2
1523053738313975,-1,17,1,-5,2,4,36,6
1523053738315446,-3,1,-3,-4,-5,-24,-90,-35
1523053738315446,6,8,14,9,5,19,60,30
1523053738328480,5,11,-5,3,3,7,11,11
1523053738328480,-6,-35,4,0,-2,-2,-2,-8
1523053738335057,-5,1,4,0,-1,3,30,4
1523053738335057,-4,1,-12,-9,-6,-14,-46,-47
1523053738351563,4,9,2,6,-1,0,49,-41
1523053738351563,6,8,-8,0,3,20,86,112
1523053738353085,-2,10,0,-4,-1,7,-2,-5
1523053738353085,-1,-16,1,-5,-5,-16,-34,-85
1523053738374101,-12,-22,0,2,4,6,-25,-106
1523053738374101,3,22,11,5,2,-5,-36,43
1523053738375607,5,-10,-8,-10,-8,-15,-84,104
1523053738375607,9,9,7,0,6,15,97,-21
1523053738388140,0,-1,0,-6,-7,-19,-7,-110
1523053738388140,-11,-7,6,0,-4,-7,-14,-71
1523053738395157,-1,7,-7,3,-2,2,76,78
1523053738395157,0,-6,-3,-3,-5,-18,-13,7
1523053738411200,5,0,3,4,5,35,108,43
1523053738411200,-2,2,-5,-6,-3,-1,-39,-70
1523053738413206,-5,-9,0,6,4,6,6,-21
1523053738413206,-2,1,1,0,0,-9,-14,18
1523053738433761,-2,2,-10,-2,-2,-5,-11,41
1523053738433761,-2,-2,3,-2,-3,-7,-36,9
1523053738435267,0,-2,4,-3,1,-2,-9,-41
1523053738435267,-4,-1,-3,-3,-5,8,8,19
1523053738448352,-2,2,-1,-3,-10,-6,-41,35
1523053738448352,0,-5,10,-1,5,-13,-15,-6
1523053738454818,-1,-7,-4,-2,0,18,29,-32
1523053738454818,-3,-1,-1,-1,0,-2,-32,-2
1523053738471360,1,-1,-1,-2,-2,-4,-5,40
1523053738471360,1,0,5,1,-4,-1,29,-16
1523053738472865,-4,-5,0,0,0,0,3,-30
1523053738472865,-3,1,8,3,-2,-2,-20,19
1523053738493921,-2,-1,6,-6,-2,-6,-15,17
1523053738493921,1,-2,2,8,2,2,7,-9
1523053738495424,-3,-5,-48,-42,-3,-3,1,-18
1523053738495424,0,3,23,30,7,2,-10,8
1523053738507456,0,-8,21,-13,-3,-10,-13,10
1523053738507456,-4,1,15,-2,-10,2,20,-10
1523053738516481,2,6,35,12,10,2,-4,-6
1523053738516481,-6,-16,3,-31,-3,-2,6,0
1523053738531520,-3,5,11,74,6,-1,5,6
1523053738531520,1,5,-17,-30,1,2,-11,2
1523053738533026,1,10,6,-8,-4,-4,-7,-10
1523053738533026,-1,-7,-9,-9,-4,0,9,4
1523053738554080,1,15,54,2,4,-9,-34,-1
1523053738554080,-14,-50,-87,-18,-7,-2,-31,-5
1523053738555584,-2,3,60,22,-11,-13,-8,-15
1523053738555584,2,13,37,11,4,3,-13,2
1523053738567617,3,-1,-2,-11,-3,2,5,13
1523053738567617,6,16,39,25,9,5,17,-1
1523053738576640,-1,-2,-12,-2,3,0,0,-9
1523053738576640,-3,-3,-29,4,-4,-14,-30,-1
1523053738592684,-2,-6,-66,-52,-1,20,59,11
1523053738592684,-4,-5,21,16,-6,-13,-24,-10
1523053738594689,2,0,40,33,0,-6,-25,-2
1523053738594689,-5,-8,-96,-68,-14,-3,0,5
1523053738613740,2,1,25,46,8,8,6,3
1523053738613740,5,13,20,4,3,4,11,0
1523053738615746,-1,-13,-51,-53,-2,10,22,1
1523053738615746,0,5,31,38,6,-4,-15,-2
1523053738627276,-3,-8,-54,-32,-9,-4,2,2
1523053738627276,-2,-1,4,-12,-2,5,8,0
1523053738636299,-3,1,-25,18,0,-3,22,-1
1523053738636299,1,4,-1,15,5,3,0,1
1523053738651393,-6,-13,-22,-30,-7,-6,-4,-2
1523053738651393,4,10,45,15,-4,-2,5,2
1523053738652846,-5,-7,-44,-37,-4,-11,-23,-7
1523053738652846,-1,-7,11,-3,1,3,9,-1
1523053738673958,-2,-1,17,27,-2,-7,-22,-1
1523053738673958,-1,-3,-12,-26,-7,-3,5,-2
1523053738675404,5,8,28,24,6,12,25,5
1523053738675404,0,2,-3,-14,-4,4,23,5
1523053738687436,0,-6,44,16,8,-7,-12,-1
1523053738687436,0,2,37,5,1,-9,-52,-8
1523053738696459,-2,-7,-35,1,-4,1,1,-2
1523053738696459,0,6,36,25,3,4,24,4
1523053738713003,3,5,-13,5,-3,-3,-4,-1
1523053738713003,-6,-14,-128,-78,-6,-2,-9,-7
1523053738718016,2,9,65,51,5,8,14,2
1523053738718016,-3,-4,-22,-16,-13,-16,-18,-6
1523053738734059,0,-9,21,8,1,-8,-20,1
1523053738734059,-4,5,-76,-13,-5,-1,7,4
1523053738735563,-1,-2,-10,-10,-3,3,-5,-3
1523053738735563,-1,0,22,-3,4,-3,-10,-3
1523053738747595,2,6,0,-17,0,5,11,4
1523053738747595,2,2,24,23,0,3,9,0
1523053738756620,-2,-1,-7,-2,0,-2,3,-2
1523053738756620,-3,-1,5,-1,-3,-6,-13,-2
1523053738771195,-3,-4,24,11,2,-4,-32,-8
1523053738771195,1,-2,34,-3,-1,-5,1,3
1523053738777706,-5,-3,26,-9,-5,-3,10,-1
1523053738777706,0,1,18,10,3,6,22,2
1523053738793772,-1,1,-33,-9,-1,-7,-39,-6
1523053738793772,2,4,25,12,-1,-11,-28,-5
1523053738795223,0,-3,5,2,0,13,49,7
1523053738795223,-4,-8,-4,-2,-4,-6,-28,-6
1523053738807756,-11,-11,-7,-6,2,7,31,1
1523053738807756,-3,-5,6,13,1,3,15,-4
1523053738816779,2,8,0,-6,-5,-18,-41,-8
1523053738816779,3,-1,-1,3,3,13,22,-4
1523053738831318,0,4,-15,-10,-4,2,10,23
1523053738831318,2,0,12,4,-2,0,-8,-5
1523053738832822,8,-4,-3,-1,3,3,-8,-26
1523053738832822,-9,7,-10,-6,-1,-6,-20,21
1523053738853878,6,-22,-4,-6,-1,1,7,-13
1523053738853878,11,-4,5,9,4,17,59,-62
1523053738855382,-1,-15,-6,-2,-3,-7,-80,46
1523053738855382,-26,7,1,5,2,5,12,-13
1523053738867415,13,4,1,-5,1,5,29,24
1523053738867415,4,10,3,1,0,-8,-69,-17
1523053738876439,-62,-9,-5,-5,-1,1,23,-21
1523053738876439,14,-11,-3,-1,-1,3,31,70
1523053738891480,3,6,-5,-5,-3,2,70,19
1523053738891480,0,-1,1,3,0,-5,-63,-1
1523053738892982,3,-3,-1,-2,-1,-2,32,-2
1523053738892982,4,0,-1,0,-2,0,1,-46
1523053738914037,-8,9,-4,8,6,17,47,-64
1523053738914037,-1,-12,-3,-8,-5,0,1,106
1523053738915578,8,0,0,-1,-5,-6,9,-17
1523053738915578,3,1,5,-2,1,1,3,-4
1523053738927574,11,0,-12,-6,-6,-10,-37,-34
1523053738927574,-13,0,-4,3,2,0,-20,-17
1523053738936599,11,6,0,4,4,2,17,45
1523053738936599,3,-3,-5,-5,-2,0,-2,-33
1523053738951136,-12,0,6,-3,-3,-7,-32,13
1523053738951136,-6,-2,3,-1,-3,-10,-3,-7
1523053738953142,3,2,-17,-3,-6,-8,-23,-11
1523053738953142,5,-5,9,2,0,-10,-5,3
1523053738973698,-4,-1,8,3,2,13,-14,-4
1523053738973698,-2,2,-19,9,0,0,37,14
1523053738975702,12,0,13,-9,-2,-1,10,-14
1523053738975702,-3,-2,-17,-21,0,0,-15,-7
1523053738996257,-2,1,-5,6,-3,-7,6,22
1523053738996257,-1,0,17,1,-2,1,24,-14
1523053738997761,1,2,17,11,1,3,-10,1
1523053738997761,-3,-1,-11,10,-2,-6,-29,-1
1523053739011297,-1,3,35,-26,3,-1,-9,4
1523053739011297,-4,-13,-38,-31,-13,-3,25,-2
1523053739012801,2,2,25,35,5,-4,-6,-11
1523053739012801,-1,2,21,21,-2,-7,-22,4
1523053739033857,6,6,13,11,5,-2,2,0
1523053739033857,-4,-6,-27,7,-2,6,46,1
1523053739035361,-1,-7,-8,-42,0,-1,-6,4
1523053739035361,2,9,22,16,-5,2,5,-7
1523053739056418,-1,5,-2,32,4,-9,-25,-1
1523053739056418,-12,-23,-78,-42,-17,-12,-9,-2
1523053739057922,0,-8,6,15,4,11,12,-6
1523053739057922,6,6,-20,-22,2,16,9,7
1523053739071457,-4,-6,-17,-18,-8,-6,18,-1
1523053739071457,6,21,83,35,9,-1,-6,1
1523053739072963,0,-5,-95,-70,-9,-6,-18,-9
1523053739072963,-5,-18,56,61,4,-1,-21,-4
1523053739094032,-3,0,-46,-21,-7,0,-32,4
1523053739094032,-4,-22,1,-8,-1,1,-11,-8
1523053739095536,2,7,41,20,-1,-12,-16,-2
1523053739095536,3,9,37,-1,2,0,2,-1
1523053739116592,0,0,-35,-30,-1,-11,-14,-1
1523053739116592,-1,3,25,29,-2,3,-2,-1
1523053739118096,3,6,23,28,4,11,44,7
1523053739118096,-4,-12,-27,-15,-2,-10,-6,-4
1523053739130629,-5,-3,-15,8,-6,-9,-7,-7
1523053739130629,7,15,9,-13,7,2,-31,0
1523053739137647,-3,-12,3,-4,2,-6,-30,-2
1523053739137647,-2,2,-2,-1,-9,-3,23,0
1523053739153691,-1,-11,-13,-12,-5,4,7,2
1523053739153691,2,7,10,8,5,1,10,2
1523053739155696,0,10,4,6,-2,1,-5,0
1523053739155696,2,-1,16,-2,5,5,3,4
1523053739176249,1,5,6,10,4,6,-4,2
1523053739176249,-5,-9,-13,-21,-5,-2,7,-3
1523053739177755,-6,-7,4,3,-16,-19,-24,-9
1523053739177755,-1,-6,-19,-16,-2,4,19,3
1523053739190789,-1,3,59,1,1,0,-3,-2
1523053739190789,3,8,18,35,6,4,27,1
1523053739197808,-3,-9,-25,-21,1,12,35,7
1523053739197808,-3,0,-49,-30,-3,-2,-9,-4
1523053739213850,-1,0,8,10,-3,-9,-43,-8
1523053739213850,-3,-6,25,4,1,-1,21,1
1523053739215355,-1,5,32,28,-4,-24,-64,-10
1523053739215355,-3,-15,7,-27,3,5,-4,0
1523053739236411,2,12,28,18,3,9,44,5
1523053739236411,3,5,0,-5,2,5,2,1
1523053739237915,1,4,-3,2,0,2,2,1
1523053739237915,1,-4,20,8,-1,-11,-8,-1
1523053739250949,-5,-9,-19,-8,-7,-5,-1,-3
1523053739250949,-2,-2,-17,-10,-1,-5,-15,-1
1523053739257465,1,2,15,-1,4,7,7,3
1523053739257465,-2,3,-22,-9,-6,-17,-10,-4
1523053739274010,-2,-9,-15,-9,-3,1,0,0
1523053739274010,2,1,5,2,2,2,1,2
1523053739275515,2,1,-14,-5,0,3,-1,9
1523053739275515,1,0,-17,0,-3,0,4,-10
1523053739296570,-5,-6,-5,-2,-6,-9,-18,-6
1523053739296570,0,7,14,7,3,4,2,1
1523053739298073,0,-5,-11,-9,-2,0,14,-2
1523053739298073,2,2,-3,4,-1,-5,6,8
1523053739310608,6,-1,13,4,0,3,29,7
1523053739310608,-9,-3,-4,-6,0,-2,-11,-4
1523053739317626,7,17,-6,-6,-3,-9,-31,-19
1523053739317626,2,0,-1,5,0,7,55,30
1523053739333669,-20,-19,-4,3,9,21,40,3
1523053739333669,1,-3,-9,-14,-6,-6,-16,-6
1523053739335675,-10,-11,-5,2,-2,0,4,-2
1523053739335675,8,21,4,4,0,-9,-49,1
1523053739356229,4,-3,-3,-2,-4,2,36,-36
1523053739356229,-1,-4,1,5,2,-1,18,48
1523053739358233,-3,-7,0,-9,-6,-2,-45,23
1523053739358233,-5,-1,-5,-1,2,7,-3,-23
1523053739370767,-7,-5,-1,-1,0,-4,-11,-89
1523053739370767,7,8,2,3,-1,-2,-3,83
1523053739377285,2,-5,-6,-4,-6,-5,39,13
1523053739377285,-8,-6,-5,2,7,15,14,-58
1523053739393828,0,2,-1,-6,-4,-6,-4,-3
1523053739393828,-2,-3,0,0,-2,2,-23,-15
1523053739395332,-8,-1,1,-4,-1,-9,-37,7
1523053739395332,-2,-7,-6,-6,-3,-12,8,-42
1523053739416390,5,6,8,6,2,7,4,91
1523053739416390,4,1,-1,-4,-4,-1,26,-10
1523053739417894,-2,-5,-4,-4,-5,-2,-35,-2
1523053739417894,-4,-3,2,1,-1,-6,-26,0
1523053739430927,3,0,-3,1,1,-2,5,-20
1523053739430927,-3,-3,2,-1,-2,-8,-11,2
1523053739437445,4,2,-16,7,4,10,33,1
1523053739437445,-9,-14,-10,-20,-10,-5,-13,-12
1523053739453990,-1,-1,-14,-2,-7,-10,-49,22
1523053739453990,1,-1,3,3,4,11,44,-15
1523053739455494,0,0,0,6,6,11,17,-23
1523053739455494,4,5,3,4,1,7,11,25
1523053739476586,-1,-3,-2,-10,-7,-11,-38,20
1523053739476586,-3,-3,-3,-3,-2,2,14,-25
1523053739478109,1,3,7,3,3,3,12,-17
1523053739478109,0,-1,-2,4,2,1,10,32
1523053739490084,0,2,9,4,-2,-4,-10,3
1523053739490084,-3,-5,-29,-12,-2,-2,-12,-32
1523053739499110,-1,1,14,16,4,2,23,7
1523053739499110,1,4,4,9,0,-2,-14,13
1523053739513647,-1,-6,-26,-33,-4,-3,9,-9
1523053739513647,0,3,52,51,5,-4,-7,-14
1523053739515688,0,3,24,-49,2,1,11,7
1523053739515688,-5,-4,-22,34,-6,-3,-11,0
1523053739536244,3,4,-12,-4,4,8,35,2
1523053739536244,-4,-15,-22,-27,-3,-8,-33,-5
1523053739538214,-2,4,46,57,0,1,47,0
1523053739538214,5,6,-6,-52,-3,1,-1,1
1523053739550246,-3,-3,-10,16,3,-10,-31,0
1523053739550246,-12,-17,-66,-64,-19,-13,-11,-8
1523053739559270,3,1,-5,42,0,0,13,-5
1523053739559270,-1,6,16,-5,-4,-4,-8,3
1523053739573808,-1,3,20,22,-1,-21,-85,-2
1523053739573808,0,-27,21,2,7,17,36,0
1523053739575313,2,14,-2,-12,3,12,25,-2
1523053739575313,-1,-10,20,31,3,-11,-36,6
1523053739596408,1,-2,-34,-55,-9,7,1,1
1523053739596408,0,18,12,23,-3,-7,-7,-14
1523053739597871,-1,-9,-8,-12,-3,8,22,3
1523053739597871,3,10,18,21,6,4,-12,3
1523053739609957,-2,-2,43,20,5,4,28,-1
1523053739609957,-5,-9,-45,-4,-4,3,-7,-5
1523053739618927,0,-1,-38,-20,-1,23,17,6
1523053739618927,1,8,30,-5,0,-4,16,3
1523053739633969,-4,-16,-12,-12,-6,-7,-43,-5
1523053739633969,5,19,25,18,6,3,13,-2
1523053739635473,-2,-4,-2,18,-2,-12,-45,-6
1523053739635473,-4,-16,-27,-43,-2,21,59,6
1523053739656527,-2,1,39,27,1,6,18,2
1523053739656527,3,5,23,-2,4,-5,-30,-2
1523053739658086,0,0,-17,3,1,2,14,4
1523053739658086,-1,2,7,-4,0,-3,-22,-4
1523053739670063,0,4,-25,-1,-7,-1,31,2
1523053739670063,0,5,-3,-1,3,1,-5,1
1523053739679088,-4,-6,25,-2,-3,-11,-26,-8
1523053739679088,-1,2,5,-3,1,-4,-3,-1
1523053739694127,0,3,-9,-13,-1,-4,-34,-4
1523053739694127,3,6,50,20,0,7,56,7
1523053739695633,-4,-10,-32,-11,-6,-10,-17,-5
1523053739695633,-2,-10,-20,-9,-6,-2,2,0
1523053739716240,1,5,43,25,6,-3,1,-3
1523053739716240,-2,-4,-34,-25,1,0,-6,-1
1523053739718195,2,5,30,2,-1,-10,-12,-1
1523053739718195,-4,-11,-27,8,-1,-1,4,-2
1523053739730223,-1,-2,5,-7,0,-5,-4,2
1523053739730223,1,10,-1,8,2,-4,-30,-2
1523053739738747,-4,-6,-53,-44,-11,-12,-26,-3
1523053739738747,-3,-2,-4,2,-4,0,0,-5
1523053739753786,0,-3,-7,-3,1,3,6,0
1523053739753786,0,-3,-6,6,0,-1,-9,-2
1523053739755290,0,3,8,0,0,-4,-14,-4
1523053739755290,3,11,-6,-2,-2,12,68,8
1523053739776402,-3,-7,-7,-4,-2,4,-2,-1
1523053739776402,-2,-1,14,7,0,-1,-1,-3
1523053739777852,-2,-9,-3,-11,-1,-10,-27,-3
1523053739777852,-3,2,-2,-1,-4,-5,-13,-2
1523053739789882,2,-10,4,10,2,3,15,5
1523053739789882,4,9,1,-9,-7,-6,-1,-1
1523053739798907,-9,-10,-16,4,5,15,49,2
1523053739798907,2,3,6,5,1,3,1,-1
1523053739813947,0,6,-17,-3,0,3,16,3
1523053739813947,-2,-14,3,-8,-6,-14,-37,-10
1523053739815507,3,3,3,-1,-1,2,19,10
1523053739815507,0,-7,12,6,-2,-3,-11,10
1523053739836509,4,7,-4,-3,-2,2,7,-8
1523053739836509,-7,4,-4,1,2,5,31,4
1523053739838011,1,-9,8,2,-1,-2,-1,-9
1523053739838011,-2,3,-7,-5,-3,-10,-19,-6
1523053739850043,3,6,2,-2,-2,-4,-4,4
1523053739850043,-4,-7,-4,-2,-3,-4,-2,-4
1523053739859068,-5,-11,-3,-2,-1,-6,1,-2
1523053739859068,2,5,1,4,4,14,-4,-1
1523053739874106,-6,1,-2,-2,-4,0,3,-1
1523053739874106,4,2,3,0,3,-10,0,-1
1523053739875612,-2,-1,2,0,5,16,-11,0
1523053739875612,0,8,-2,-1,0,-3,1,1
1523053739896166,-5,-15,-2,-4,-6,-15,-6,-6
1523053739896166,-2,-1,-3,1,0,4,5,2
1523053739898172,3,3,5,-1,-4,-7,10,0
1523053739898172,-1,-4,-4,2,2,1,3,-4
1523053739918725,-1,4,-1,-1,-1,3,-3,-7
1523053739918725,0,-4,-3,-3,-6,-13,-13,8
1523053739920731,0,1,-1,-5,-5,-10,8,15
1523053739920731,1,5,30,14,7,10,30,0
1523053739933765,-9,-11,-21,-15,-7,-5,8,-3
1523053739933765,0,-2,-1,0,1,6,-5,-9
1523053739935771,0,7,8,5,1,1,-10,-6
1523053739935771,-3,-7,-11,-6,-3,-6,-13,3
1523053739956379,2,2,21,11,2,2,6,3
1523053739956379,1,6,24,10,3,7,9,1
1523053739957831,-3,3,-3,-15,0,-3,-30,-6
1523053739957831,-3,-13,-29,-25,-14,-17,-11,-2
1523053739980443,3,7,54,30,6,4,0,0
1523053739980443,-4,-9,-73,-24,-9,-3,-34,-5
1523053739981894,-1,1,36,18,2,7,23,0
1523053739981894,-1,-5,13,11,3,-4,-5,-5
1523053739993925,1,9,37,-5,1,2,21,0
1523053739993925,1,0,-17,3,1,12,28,6
1523053739995432,0,-2,16,22,-5,-8,-28,-8
1523053739995432,-3,-2,-52,-38,-5,-3,-8,-2
1523053740016520,-2,2,-7,3,-2,3,5,4
1523053740016520,0,5,37,32,9,2,0,0
1523053740018024,-2,-11,3,3,-2,0,-3,-5
1523053740018024,-2,-3,-45,-32,-5,-3,0,-2
1523053740039045,0,6,45,33,1,-12,-33,-3
1523053740039045,-2,-3,-55,-33,-9,9,23,-1
1523053740040586,5,11,10,-13,1,-4,-21,0
1523053740040586,-2,-4,58,20,10,-3,-35,0
1523053740053084,1,-1,-23,-2,2,13,38,5
1523053740053084,-2,-1,8,10,-3,-11,-16,-3
1523053740060104,1,4,33,17,1,5,37,4
1523053740060104,5,9,27,-5,2,-5,-19,-1
1523053740076646,-2,-4,-41,-18,-1,1,-25,-3
1523053740076646,-5,-10,-20,-19,-6,-5,-44,-4
1523053740078208,4,7,3,-10,1,5,27,6
1523053740078208,3,3,27,15,-4,-7,7,1
1523053740098704,-4,-13,-27,-22,-5,20,47,5
1523053740098704,0,2,97,59,0,-2,21,-2
1523053740100709,0,10,-7,-15,0,-10,-41,-10
1523053740100709,-7,-17,-83,-20,-9,-13,-14,-6
1523053740113244,4,10,34,45,7,6,28,6
1523053740113244,4,3,-4,-28,-2,2,8,2
1523053740119760,-5,-4,-35,-9,-1,-3,-20,-5
1523053740119760,-2,-4,9,3,-3,3,26,1
1523053740136308,-2,-7,-36,-20,-6,-15,-15,-1
1523053740136308,-4,-5,-12,-12,-6,0,-1,-3
1523053740137810,0,-1,8,16,4,-5,-22,-6
1523053740137810,2,1,17,-3,0,9,2,3
1523053740158865,-5,-13,-14,-12,-7,-11,-17,-6
1523053740158865,3,19,31,11,3,4,-11,-2
1523053740160370,-2,-15,5,-26,-5,1,8,3
1523053740160370,-8,-15,6,18,2,0,1,-6
1523053740173406,-2,6,-26,2,1,12,7,-1
1523053740173406,1,-4,-20,-22,0,-8,5,-3
1523053740179921,1,2,-16,3,-5,-3,-2,0
1523053740179921,0,6,18,5,1,1,7,2
1523053740196464,-2,-10,-32,-31,-2,-9,-23,-4
1523053740196464,1,4,21,33,7,0,3,0
1523053740197968,-3,-3,-37,-3,-2,3,20,-1
1523053740197968,0,-1,34,6,-5,-5,-18,-4
1523053740219025,4,9,11,-7,5,-4,-9,-1
1523053740219025,-5,-15,-2,6,-1,-3,-26,-6
1523053740220529,-3,-2,-8,-4,-6,-4,14,1
1523053740220529,0,3,4,11,2,-3,7,-1
1523053740233063,0,5,30,2,-3,-14,-36,-3
1523053740233063,-5,-12,-93,-51,-10,-2,2,-4
1523053740240082,-1,-3,19,8,-1,-1,-6,0
1523053740240082,0,4,-7,8,3,14,74,3
1523053740256624,-5,-7,3,-5,-6,-9,2,-3
1523053740256624,2,0,10,-2,1,-6,-22,-2
1523053740258128,0,1,-13,2,-1,6,28,0
1523053740258128,-2,3,4,-7,-1,-5,-34,-3
1523053740278719,0,-10,-12,-7,-2,-3,-23,-3
1523053740278719,7,0,22,8,3,7,59,8
1523053740280690,-18,-13,-14,-8,-3,2,-11,-16
1523053740280690,2,8,-2,2,-3,-1,-14,-2
1523053740293255,-2,6,1,-2,-2,0,-7,-4
1523053740293255,3,0,7,1,-3,-6,-20,3
1523053740300240,2,-2,10,3,-1,-11,-20,2
1523053740300240,-2,-4,-12,-5,-3,0,-8,0
1523053740316285,-2,-1,-4,2,0,-1,1,2
1523053740316285,-4,2,4,-2,0,5,15,-25
1523053740317789,3,-3,-9,-4,-2,-6,-4,23
1523053740317789,-3,1,-1,3,1,-1,3,0
1523053740338844,-2,-15,-5,-6,-1,2,-3,-5
1523053740338844,-3,8,11,2,-2,-3,-19,-3
1523053740340348,-1,-10,-5,0,0,3,4,-12
1523053740340348,7,15,-6,-2,-3,-4,-17,1
1523053740353382,-3,-7,6,2,-2,3,16,-11
1523053740353382,-4,-3,2,1,2,0,3,24
1523053740359936,4,2,-2,-5,-2,0,24,-1
1523053740359936,1,-4,-4,-1,-5,7,26,4
1523053740376499,0,1,-2,0,-1,-7,-5,-10
1523053740376499,-2,-3,4,4,4,5,23,-3
1523053740377948,-1,4,-3,-2,-3,-13,-39,-27
1523053740377948,-2,-7,0,-2,-3,-3,11,22
1523053740399002,0,4,0,1,2,10,25,8
1523053740399002,-1,0,1,-2,-4,-5,-10,-7
1523053740400507,-1,2,1,2,0,-6,-31,-3
1523053740400507,-4,-7,-3,1,2,1,-10,-16
1523053740412540,0,3,-1,-1,0,9,42,10
1523053740412540,1,-2,2,-1,1,2,-12,13
1523053740421565,-2,-1,-6,-7,-5,3,12,-4
1523053740421565,-3,-3,0,1,-1,-4,-13,-4
1523053740435602,0,0,-4,-2,0,-6,-25,5
1523053740435602,-1,0,19,12,-1,0,1,-5
1523053740444157,2,0,-23,-22,3,5,15,6
1523053740444157,-2,-5,-20,1,-3,-2,-17,-6
1523053740458663,-1,1,1,-6,-1,0,4,3
1523053740458663,-4,-3,-4,-9,-3,-3,1,-7
1523053740460668,2,3,25,13,-1,-7,-21,6
1523053740460668,2,1,13,-3,0,-1,0,1
1523053740472700,1,4,2,41,7,6,3,-3
1523053740472700,-8,-13,-64,-66,-16,-12,-17,-5
1523053740481726,1,3,24,24,4,8,36,7
1523053740481726,-1,0,10,2,2,5,-1,-2
1523053740496261,2,4,39,20,-1,-2,-1,-3
1523053740496261,2,4,-27,2,-1,-8,-33,1
1523053740497766,-2,-2,-7,-12,-1,2,10,5
1523053740497766,1,6,32,5,5,-2,-17,-7
1523053740518823,-8,-24,-57,-50,-17,-6,-2,-6
1523053740518823,3,9,81,49,5,5,14,2
1523053740520327,-5,-8,-33,-19,-10,-13,-18,-6
1523053740520327,4,10,36,44,6,0,1,2
1523053740532358,-2,-1,-7,-9,2,-7,-28,-3
1523053740532358,-1,-4,14,-7,6,5,20,2
1523053740541384,0,0,-32,-3,-2,-2,-24,-7
1523053740541384,-2,0,45,5,-4,-4,-22,-4
1523053740556476,-2,-3,-35,-13,-5,-6,-34,-5
1523053740556476,0,0,38,53,5,6,42,-1
1523053740557927,1,9,8,-58,-7,-6,-10,0
1523053740557927,-6,-18,-5,24,-1,-5,-37,-1
1523053740578983,-3,-6,8,0,-7,-15,-51,-14
1523053740578983,3,-1,-1,-3,4,21,54,9
1523053740580487,4,16,8,11,7,-9,-41,1
1523053740580487,-4,-6,-41,-28,-3,2,25,-3
1523053740592519,1,5,18,0,-3,-4,-11,-24
1523053740592519,3,-1,1,-4,-6,-7,21,11
1523053740601542,0,-3,6,20,1,-7,-46,7
1523053740601542,-5,-10,-34,-26,-7,-4,-1,-8
1523053740616582,2,3,14,17,8,11,40,10
1523053740616582,-4,-2,-19,-12,-3,-9,-42,-16
1523053740618086,1,-7,-7,-1,0,5,23,0
1523053740618086,2,2,-7,-3,-1,-5,6,4
1523053740639142,-1,3,5,-7,2,-3,8,6
1523053740639142,-1,5,23,5,1,-2,-38,-5
1523053740640648,-2,-3,-28,17,9,22,45,10
1523053740640648,1,3,50,-3,7,10,13,0
1523053740652678,-6,-20,-28,-38,-6,26,89,12
1523053740652678,-1,1,35,7,-5,-14,-49,-5
1523053740661736,4,7,30,52,15,12,25,0
1523053740661736,-5,-14,-72,-76,-23,-6,-14,-4
1523053740676242,-1,5,19,9,-8,-28,-37,-4
1523053740676242,11,22,90,42,14,5,-17,6
1523053740677746,-9,-24,-56,-63,-11,22,58,-3
1523053740677746,-1,1,29,22,0,-2,19,2
1523053740698802,0,5,55,21,3,5,9,6
1523053740698802,-5,-11,-62,-34,-9,-13,-23,-8
1523053740700307,17,32,73,41,13,3,20,4
1523053740700307,-8,-10,-34,-6,0,0,-9,-2
1523053740712391,-10,-24,-41,-23,-2,9,32,2
1523053740712391,3,14,3,16,2,-4,-11,-4
1523053740721361,-3,-9,-21,-15,-10,-16,-27,-6
1523053740721361,5,10,-8,-3,-2,-1,-1,-3
1523053740736438,5,12,22,23,3,-6,-49,0
1523053740736438,-4,-14,-38,-28,-2,2,5,1
1523053740737907,-9,-8,7,-4,-9,-10,-12,-8
1523053740737907,-4,-2,2,6,-4,-6,-29,-8
1523053740758960,5,11,10,11,5,-3,-6,2
1523053740758960,-5,-11,-28,-17,-5,-4,23,4
1523053740760519,-4,-8,2,-4,-6,-6,-15,-4
1523053740760519,0,3,22,20,4,-6,-13,-4
1523053740772551,1,0,-10,-7,0,2,5,0
1523053740772551,-2,-3,-19,-10,-5,-1,12,-1
1523053740781521,-4,1,17,9,-2,-1,-17,-4
1523053740781521,3,-6,21,8,4,7,23,3
1523053740796562,-2,8,2,-11,2,-4,-17,-4
1523053740796562,-2,-3,-12,-10,-5,7,-1,1
1523053740798121,-3,-3,25,9,-2,-17,1,-6
1523053740798121,2,5,-2,3,2,4,9,6
1523053740818621,-1,0,7,-3,-5,-8,-9,-4
1523053740818621,1,1,8,7,3,0,-32,-4
1523053740820627,-4,-6,-10,-9,0,7,2,-2
1523053740820627,-1,1,-6,-3,-1,-4,24,1
1523053740832658,2,1,5,7,1,2,-5,-12
1523053740832658,2,1,-12,-7,-3,-3,14,24
1523053740841682,-9,-13,-9,-7,-7,-18,-70,-12
1523053740841682,1,4,-6,2,4,15,36,4
1523053740856276,-1,-2,-3,2,1,4,-18,-7
1523053740856276,2,-2,-4,-3,-2,6,33,-11
1523053740857725,4,7,5,3,0,-3,-3,20
1523053740857725,-6,-7,-1,2,-2,-13,-28,-19
1523053740878781,-3,-3,-8,-6,-3,1,39,24
1523053740878781,-3,-4,0,5,2,1,8,-4
1523053740880285,2,-1,2,-1,1,14,27,-23
1523053740880285,-2,-2,-6,0,0,-3,-8,12
1523053740901339,0,2,-4,0,-1,-3,5,-39
1523053740901339,-3,-4,-2,-2,-6,-8,2,33
1523053740902846,1,0,0,1,0,1,12,-18
1523053740902846,5,3,-2,-2,-1,4,11,-37
1523053740916381,-3,-4,-1,1,1,-3,-19,37
1523053740916381,-4,-6,0,0,1,0,8,24
1523053740917886,1,0,-2,-4,-4,0,16,-65
1523053740917886,-1,-1,-2,1,-4,-1,-16,32
1523053740938941,1,0,2,-1,-3,-11,-40,2
1523053740938941,-3,-3,-3,-1,2,5,38,-17
1523053740940445,-1,-2,0,1,1,1,4,14
1523053740940445,-1,-1,-2,-3,-4,-1,40,-18
1523053740961501,0,-1,0,2,0,-12,-83,-6
1523053740961501,0,0,-4,-5,-5,-6,13,3
1523053740963059,-1,-2,1,2,3,8,-5,22
1523053740963059,-2,-1,2,1,-3,-11,-15,-5
1523053740975594,1,2,-2,-2,1,4,18,12
1523053740975594,-3,-2,-2,0,-1,0,-22,-13
1523053740982612,-1,-1,-5,0,-1,-3,19,1
1523053740982612,0,0,-1,-2,1,-4,-19,11
1523053740999101,0,-1,0,0,-1,4,27,2
1523053740999101,-1,2,19,13,2,-2,-20,-21
1523053741000605,1,1,3,5,2,1,0,21
1523053741000605,-2,-4,21,-1,-2,2,-13,6
1523053741021212,1,2,11,4,1,0,12,-9
1523053741021212,-6,-11,-60,-21,-9,-4,-8,-11
1523053741023164,1,1,18,14,-1,1,7,13
1523053741023164,0,4,12,-2,4,7,-8,5
1523053741035698,5,13,80,49,9,6,16,-10
1523053741035698,-16,-33,-76,-88,-34,-29,-50,-13
1523053741042717,-1,2,48,27,4,2,-19,12
1523053741042717,1,2,39,7,5,6,8,-6
1523053741058812,-4,-7,-35,-18,-9,8,24,3
1523053741058812,8,19,50,34,11,3,9,1
1523053741060264,3,7,46,46,9,1,15,5
1523053741060264,-12,-24,-51,-62,-16,-6,-3,-4
1523053741081318,0,-1,-47,-13,-3,0,9,0
1523053741081318,2,8,59,17,2,-12,-42,-10
1523053741082822,4,9,-1,11,-2,2,46,7
1523053741082822,6,0,35,52,14,14,47,10
1523053741095857,-2,-9,1,-24,2,6,38,5
1523053741095857,-6,-15,-74,-68,-6,7,9,-6
1523053741102376,7,26,83,85,11,-24,-60,-5
1523053741102376,-13,-25,-110,-105,-24,-5,-7,-7
1523053741118920,3,7,58,-3,-5,-12,-33,-5
1523053741118920,13,22,127,93,27,28,104,13
1523053741120424,-16,-20,-94,-109,-10,7,6,6
1523053741120424,-4,-9,84,38,0,-6,-47,-4
1523053741141480,1,2,-7,19,1,-9,-23,-5
1523053741141480,4,9,54,8,3,2,-15,-2
1523053741142984,2,-1,-60,-16,-1,7,7,4
1523053741142984,-2,8,7,12,-2,-15,-28,-7
1523053741155516,-3,-3,-14,-20,-5,1,10,-1
1523053741155516,0,-3,-44,-6,-2,-1,-29,-1
1523053741162536,-1,-5,-18,-27,-1,28,95,12
1523053741162536,3,8,-5,38,6,-1,-14,0
1523053741179080,-8,-23,-40,-20,-22,-12,2,-5
1523053741179080,-2,7,-6,1,1,-6,-16,-4
1523053741180584,-2,-12,-12,-22,-10,-32,-75,-11
1523053741180584,1,14,52,21,7,6,1,1
1523053741201138,1,-2,-18,9,6,5,3,2
1523053741201138,2,-1,10,-5,-5,3,9,4
1523053741203144,-11,-22,-86,-62,-15,-13,-24,-10
1523053741203144,10,19,13,32,8,15,71,10
1523053741215176,-3,2,30,22,6,-2,3,-1
1523053741215176,-3,1,47,46,6,-8,-50,-4
1523053741223196,0,-1,14,-11,-12,-6,14,-3
1523053741223196,-1,-6,-56,-27,-7,-7,-46,0
1523053741238237,-7,-11,-16,-10,-3,-4,-10,-2
1523053741238237,2,0,19,13,3,-5,14,0
1523053741238739,3,7,60,19,6,10,20,4
1523053741238739,0,0,-14,-19,-6,-4,8,-2
1523053741260797,1,2,-8,-13,2,6,13,0
1523053741260797,-4,-6,-21,-8,-7,-3,-1,-2
1523053741261299,-2,3,44,29,4,-5,-32,-8
1523053741261299,-1,-6,-9,-7,0,10,44,5
1523053741274835,2,9,45,18,1,-11,-50,-6
1523053741274835,0,-2,-14,-9,-2,11,32,1
1523053741283357,-4,-3,-8,-7,-2,-2,-15,-3
1523053741283357,1,3,7,5,1,-8,-5,-1
1523053741298396,-1,-1,5,2,1,3,6,0
1523053741298396,-4,-4,-25,-5,-2,4,-23,-4
1523053741298899,-3,-9,16,8,-1,-1,1,1
1523053741298899,-3,10,3,3,0,-7,-37,-4
1523053741320455,-3,-10,-6,-3,-2,0,10,0
1523053741320455,-4,-4,-18,-17,-8,-13,-13,-7
1523053741321459,3,3,7,7,1,4,13,0
1523053741321459,-1,2,3,-1,-2,-21,-72,-6
1523053741334997,-2,5,-15,-4,4,19,65,8
1523053741334997,0,-3,5,2,-1,4,24,3
1523053741343049,-1,-1,-9,-1,-2,-7,-50,-14
1523053741343049,2,-4,-11,-3,-4,-5,3,18
1523053741358057,1,3,6,0,-1,6,51,1
1523053741358057,-2,-4,-6,-1,1,10,14,5
1523053741359059,1,3,-5,-2,-2,-5,-1,-7
1523053741359059,-1,-3,-4,-1,1,9,40,-4
1523053741380616,0,0,2,-2,-2,-4,-29,-23
1523053741380616,-1,0,-5,-3,-1,0,17,24
1523053741381619,-2,-1,-8,-2,0,0,6,7
1523053741381619,-4,-5,5,4,1,-1,5,-13
1523053741395155,-1,-1,-4,-2,-3,-4,-11,-22
1523053741395155,-2,0,-8,-2,0,-4,2,-49
1523053741403174,-2,-2,-1,-3,-5,-5,-38,98
1523053741403174,1,-2,3,1,0,1,10,3
1523053741418216,-1,-2,-1,-4,0,-5,-15,-23
1523053741418216,-4,-3,-3,-3,-1,6,26,-96
1523053741419218,1,2,-2,1,-2,2,8,71
1523053741419218,-1,-6,0,2,1,2,24,23
1523053741440776,2,-1,-3,-2,1,0,-5,-9
1523053741440776,0,0,1,-1,2,11,6,-28
1523053741441278,-2,-3,-2,-2,-1,-6,-33,-38
1523053741441278,-3,0,-5,-4,-6,-2,-9,-7
1523053741454812,1,0,2,2,1,-7,-13,24
1523053741454812,-2,0,-2,-1,-1,-7,-30,-25
1523053741463391,1,1,-3,0,-1,3,23,22
1523053741463391,2,-2,-2,-3,-4,1,8,4
1523053741478388,0,-2,0,0,-1,-3,-11,-12
1523053741478388,1,-2,5,-1,0,-4,-11,31
1523053741478878,-3,-3,-9,-3,2,5,32,-30
1523053741478878,-4,1,0,-1,-2,-11,-28,-18
1523053741500435,0,-2,-2,-2,-2,2,-9,10
1523053741500435,-1,0,-4,-1,0,-2,-7,33
1523053741501438,0,0,0,1,0,7,20,-25
1523053741501438,0,1,-1,0,1,5,14,-6
1523053741514972,-2,2,-3,-1,-1,-1,-12,2
1523053741514972,-2,-1,-2,-2,-1,-2,-11,29
1523053741523027,-1,0,3,2,0,-2,-10,-31
1523053741523027,0,-2,-1,-2,0,0,11,-7
1523053741538035,-1,-1,-2,-3,-3,-4,-13,12
1523053741538035,0,-2,-2,-3,-3,-7,1,13
1523053741539091,-2,-1,0,-1,0,-3,3,-20
1523053741539091,-1,-1,0,-1,1,1,1,-2
1523053741560593,0,1,-1,1,0,1,10,7
1523053741560593,-1,-3,-2,-2,-1,-5,-10,11
1523053741561596,-2,-1,1,1,-5,-7,-1,-17
1523053741561596,0,4,22,8,1,-2,-35,-2
1523053741575167,-5,-9,-56,-36,0,10,43,4
1523053741575167,-1,2,16,11,-1,-3,1,6
1523053741583190,-2,-9,1,-2,-4,-5,-2,-9
1523053741583190,0,3,2,4,0,-3,-3,-4
1523053741598195,0,3,15,6,-1,-3,-13,-1
1523053741598195,1,1,-10,-1,6,12,26,11
1523053741598695,0,3,23,26,2,7,16,-7
1523053741598695,2,2,43,11,9,6,8,-1
1523053741620755,-5,-7,6,-28,-4,-1,-5,0
1523053741620755,-4,-11,23,9,-9,-20,-24,0
1523053741621256,4,7,49,24,10,20,34,3
1523053741621256,-3,4,-16,-13,-4,-19,-21,-9
1523053741634791,3,-4,80,48,15,28,118,22
1523053741634791,-2,-2,-70,-18,-11,-12,-79,-3
1523053741643348,5,11,58,26,6,1,8,-4
1523053741643348,-4,-17,-25,-7,2,-16,-69,-5
1523053741658353,-3,-14,63,-13,-9,47,63,18
1523053741658353,-13,-11,12,13,-5,-18,-88,-11
1523053741658855,1,18,4,-2,3,8,24,-3
1523053741658855,9,13,68,48,8,7,16,5
1523053741680914,0,1,-61,8,-1,-27,-53,-18
1523053741680914,0,-4,-79,-69,-16,-10,31,5
1523053741681415,-15,-29,-99,-96,-19,20,-18,-2
1523053741681415,-5,-12,11,13,-3,5,29,-2
1523053741694951,1,10,-18,-9,-4,-15,-59,-7
1523053741694951,7,17,81,47,13,9,32,7
1523053741702974,-2,4,-54,-20,-11,-28,-19,-12
1523053741702974,-3,-13,-55,-30,-8,-5,-34,1
1523053741718014,-4,-12,-5,2,-9,-8,-4,-7
1523053741718014,1,12,28,25,11,15,31,12
1523053741719071,1,-9,4,7,4,1,0,-4
1523053741719071,-4,2,4,-13,-3,-1,14,1
1523053741740574,6,11,2,20,3,-5,-2,-2
1523053741740574,3,5,10,-1,1,-1,-11,-3
1523053741741577,-9,-21,-72,-39,-8,7,53,5
1523053741741577,-1,-1,-10,7,-3,10,23,1
1523053741763668,-2,5,-1,-5,-5,-23,-41,-8
1523053741763668,2,1,4,-10,2,25,80,9
1523053741764637,5,5,50,28,8,-3,-28,0
1523053741764637,-11,-9,-12,-17,-5,-6,-13,-9
1523053741778173,-2,-3,-37,-1,2,-8,-17,0
1523053741778173,0,-2,16,3,0,-2,-11,0
1523053741779175,1,5,38,26,0,-10,-25,-4
1523053741779175,3,9,-2,-5,-2,4,15,1
1523053741800734,0,1,16,-3,3,4,-3,3
1523053741800734,-3,-3,-2,7,0,-2,1,-2
1523053741801236,0,6,2,-3,-3,-13,-34,-3
1523053741801236,-2,-9,-6,-6,-3,3,19,-1
1523053741822845,0,-3,6,2,1,0,-16,-1
1523053741822845,0,-1,-12,-10,-1,-7,-13,-3
1523053741830812,-1,-3,1,-1,1,5,-2,1
1523053741830812,1,5,8,-2,-1,-4,-4,0
1523053741838392,-2,0,1,1,-2,-4,-10,-3
1523053741838392,-2,-7,-9,-6,-3,-5,-6,-4
1523053741838835,-1,-3,5,5,-1,-8,-9,-2
1523053741838835,2,3,-7,2,1,4,30,5
1523053741860893,-2,-4,-3,-5,-5,-3,-18,-2
1523053741860893,-3,-3,-3,-5,-1,-1,-5,-1
1523053741861395,-1,1,1,1,-1,-2,-4,0
1523053741861395,0,0,-7,-3,-2,-5,-21,-2
1523053741883954,-2,2,1,-2,1,-1,6,1
1523053741883954,-1,-3,5,0,0,2,1,-2
1523053741884457,-2,-3,-2,3,-2,-8,-19,-5
1523053741884457,-1,-3,-3,-2,-3,1,-17,-28
1523053741898045,0,2,3,-1,0,2,12,23
1523053741898045,0,-7,-5,-4,-3,-2,3,3
1523053741898995,-2,-3,-5,-3,-2,-4,-9,-7
1523053741898995,-3,-3,-3,-3,-2,-1,-1,-3
1523053741920552,1,3,0,-1,0,0,-1,-9
1523053741920552,-2,-2,-1,-2,-1,-1,1,-1
1523053741921555,0,2,-1,-1,1,3,5,3
1523053741921555,1,-2,1,-1,0,10,14,6
1523053741944114,-2,0,2,2,2,-4,-19,-8
1523053741944114,-1,-2,-1,-1,0,4,21,-19
1523053741944615,-1,-2,-1,-1,-1,-3,2,20
1523053741944615,-1,-3,-4,-4,-4,-8,-16,5
1523053741958153,0,2,-4,-2,0,5,5,-8
1523053741958153,0,-4,-3,-1,-1,-2,-23,-2
1523053741959156,-3,-4,0,0,-2,-6,-24,-15
1523053741959156,-1,1,-3,-1,-1,-2,3,5
1523053741980712,-1,-1,0,-2,-2,-4,8,4
1523053741980712,-2,2,3,0,1,-5,-18,-28
1523053741981213,-1,2,-1,-1,-2,-2,4,24
1523053741981213,-2,-3,0,-1,-1,-1,-1,8
1523053742003773,-1,-1,-2,0,-1,-1,-8,-10
1523053742003773,-1,-2,-2,-1,-2,-3,-1,5
1523053742004776,0,-2,-2,0,3,8,7,-11
1523053742004776,1,2,-1,2,0,5,-14,1
1523053742018366,-1,-1,6,0,-2,-3,13,4
1523053742018366,1,-1,-8,-4,-3,10,16,8
1523053742018813,-1,-2,5,-2,-3,-3,-1,-5
1523053742018813,0,-1,-11,-1,0,-5,-11,0
1523053742040484,-1,-1,4,1,0,0,-6,-7
1523053742040484,-1,0,1,-1,-2,-4,-6,9
1523053742041487,0,-2,-4,-2,-2,-3,3,-5
1523053742041487,-3,-1,6,0,-1,-4,-10,-7
1523053742064046,0,-2,-4,-3,-3,-1,9,1
1523053742064046,0,2,11,10,2,-1,8,7
1523053742064547,-1,0,5,9,-1,-7,-33,-8
1523053742064547,-6,-18,-79,-49,-15,7,84,1
1523053742078085,-3,-3,-10,-4,-5,-5,-7,-1
1523053742078085,1,5,11,20,4,-1,-3,2
1523053742079088,2,5,85,-14,2,-9,-18,-5
1523053742079088,1,3,-5,58,11,10,9,1
1523053742100645,-5,-10,-20,-23,-8,-2,-5,1
1523053742100645,-2,-1,7,9,-2,-7,29,-2
1523053742101648,0,1,27,-27,-1,1,19,1
1523053742101648,4,11,34,64,8,-6,-15,-2
1523053742123706,-10,-17,-63,-79,-16,-1,37,-4
1523053742123706,4,5,53,72,9,6,-25,1
1523053742124742,1,4,-68,-41,-6,-4,-21,-4
1523053742124742,0,-2,18,21,9,10,32,7
1523053742138243,-10,-12,-52,-6,-19,-15,-38,-12
1523053742138243,-3,7,51,28,-5,-8,-17,-2
1523053742138745,-8,-35,-97,-61,-9,-17,-19,-13
1523053742138745,8,34,41,-2,-1,9,35,5
1523053742160803,14,48,25,41,10,-13,-44,3
1523053742160803,-19,-56,-3,-30,-7,15,55,2
1523053742161305,-2,-2,6,12,-4,16,70,7
1523053742161305,3,-2,62,25,5,4,-7,-1
1523053742183866,-2,-3,18,-7,-1,-11,-41,-3
1523053742183866,8,24,-6,-17,-2,-8,-49,-3
1523053742184869,5,8,1,23,6,8,27,-1
1523053742184869,-10,-20,-36,-35,-10,-8,-27,-2
1523053742198405,0,-11,36,18,8,-3,-35,-4
1523053742198405,0,-4,-34,-29,-3,-5,-19,-1
1523053742198907,-3,-5,2,24,1,5,2,-1
1523053742198907,5,18,11,-14,-4,-9,-14,-2
1523053742220516,-1,0,30,8,4,6,16,-1
1523053742220516,-6,-12,-18,-15,-1,1,10,1
1523053742221518,1,5,15,20,2,9,17,3
1523053742221518,-2,-1,3,-14,-3,-5,-21,-2
1523053742244024,1,-2,61,26,5,6,14,1
1523053742244024,-4,-6,-98,-49,-9,2,14,1
1523053742244527,2,11,41,11,-2,-15,-37,-3
1523053742244527,-4,-8,3,-16,-4,-9,-36,-7
1523053742257561,2,-3,12,14,0,6,26,1
1523053742257561,4,14,34,-1,11,4,3,3
1523053742265582,-6,-6,-6,-1,-6,-9,-20,-7
1523053742265582,-4,-13,1,-7,0,-1,12,-1
1523053742280681,2,0,-39,-19,-2,2,12,1
1523053742280681,3,11,39,19,1,2,-12,1
1523053742281681,0,-4,-19,2,-2,-2,-10,1
1523053742281681,-3,-7,-8,-15,-4,-5,-15,-3
1523053742303683,0,6,11,11,5,6,7,1
1523053742303683,1,0,-16,-13,-5,-10,-3,-1
1523053742304688,-4,-6,-3,2,-2,-3,-14,-2
1523053742304688,-1,9,6,1,0,0,6,0
1523053742318223,-3,-18,-8,-2,1,4,0,-1
1523053742318223,2,2,-12,-6,-1,8,34,4
1523053742318725,2,7,18,16,0,2,-12,0
1523053742318725,0,-1,-6,-12,-3,-1,1,1
1523053742340782,-3,0,-3,-1,-3,-10,-27,-4
1523053742340782,-4,-9,-9,-4,-5,-12,-23,-7
1523053742341284,3,4,4,9,7,13,24,5
1523053742341284,-3,-1,-9,-6,0,-4,-12,-4
1523053742363845,-2,0,-3,-2,-2,-2,-18,-3
1523053742363845,2,1,6,3,0,4,10,3
1523053742364846,-1,-1,-4,0,-2,-8,-9,-4
1523053742364846,-2,-5,-8,-7,-4,-9,-33,-7
1523053742377381,0,0,4,6,2,0,22,-2
1523053742377381,-2,4,0,-3,-2,-8,-9,7
1523053742385904,-2,1,-1,-2,-1,-2,0,13
1523053742385904,0,-11,-7,-2,0,-2,-3,-7
1523053742400442,1,3,-1,-2,-1,1,-8,1
1523053742400442,-1,-2,-7,-2,3,4,25,-9
1523053742401444,-3,-2,-3,-6,-4,1,6,-5
1523053742401444,0,-3,1,-1,-1,1,-8,7
1523053742424004,0,3,-1,1,0,-1,-10,-2
1523053742424004,-1,-2,-3,-3,-3,-2,-3,-27
1523053742424505,-4,-3,1,4,-3,-19,-46,17
1523053742424505,2,1,-2,-2,1,14,53,1
1523053742437541,0,0,0,-2,-1,-2,17,4
1523053742437541,-6,-3,-3,-5,-4,-5,-58,-7
1523053742445616,-3,-7,-2,0,1,2,14,-10
1523053742445616,-5,-1,-4,-4,-5,-9,-9,-70
1523053742460658,-1,-5,-2,1,-1,-1,-4,44
1523053742460658,7,5,2,2,6,21,78,62
1523053742461665,-1,-2,0,-5,-2,-8,-26,-21
1523053742461665,0,0,-3,-1,0,0,6,5
1523053742484165,-2,-2,1,2,-1,1,-31,-40
1523053742484165,0,-3,-2,-1,-4,-10,-5,-5
1523053742484667,0,3,-2,0,-1,0,-6,2
1523053742484667,1,2,-1,0,-1,8,49,8
1523053742497701,-1,0,-1,-2,0,2,32,1
1523053742497701,-3,-2,-3,-5,-5,-9,-28,4
1523053742505758,2,0,1,5,4,18,50,0
1523053742505758,-1,0,0,-1,-3,-11,-32,6
1523053742520763,0,0,-1,0,-2,-4,-10,7
1523053742520763,0,-2,0,-1,2,4,11,-5
1523053742521264,0,0,8,4,2,1,8,-11
1523053742521264,-5,-5,-2,-8,-7,-18,-41,8
1523053742543824,0,0,1,1,-3,-2,3,-2
1523053742543824,-1,-1,2,2,2,5,13,-13
1523053742544865,0,0,23,-6,-1,-3,-1,1
1523053742544865,0,2,-13,-3,1,-4,-29,13
1523053742557358,-10,-17,-94,-65,-16,-9,-3,-18
1523053742557358,-3,-4,14,-12,-6,1,-15,-4
1523053742565881,0,-6,-10,13,5,2,17,9
1523053742565881,-4,-1,32,12,-4,-9,-12,1
1523053742581424,-1,2,-45,-25,-6,-5,-12,-6
1523053742581424,1,2,11,6,3,0,-18,-4
1523053742581925,-6,-7,16,5,-5,1,6,-3
1523053742581925,-3,-11,-19,-6,2,9,21,1
1523053742603984,6,16,55,29,10,15,46,4
1523053742603984,0,2,-19,-23,-2,9,44,5
1523053742604485,3,1,-42,5,-3,1,0,-1
1523053742604485,0,13,7,-9,-3,-15,-25,-4
1523053742617519,-2,-18,64,39,5,-1,-6,6
1523053742617519,0,5,-50,-52,-5,-12,-46,-9
1523053742625541,-7,-16,30,6,-2,2,-19,-7
1523053742625541,3,25,29,35,-4,6,68,14
1523053742640581,-6,-8,-51,-45,-14,-14,-83,-9
1523053742640581,9,5,53,37,19,15,80,8
1523053742641584,1,7,2,9,-2,10,9,2
1523053742641584,-4,-12,-38,-45,-5,-4,-28,-3
1523053742663643,6,14,45,9,-6,1,12,1
1523053742663643,-10,-15,59,33,-4,-17,-50,-13
1523053742664678,0,-7,-8,-16,-5,9,21,7
1523053742664678,-1,4,23,-14,2,1,10,5
1523053742677680,-1,-10,8,25,4,2,9,-6
1523053742677680,-1,-5,-3,-1,1,-5,-12,1
1523053742685702,1,12,-15,-8,4,-6,-3,-1
1523053742685702,0,-5,2,11,-3,0,-21,-4
1523053742700740,2,6,-23,-25,7,4,14,3
1523053742700740,-4,-4,-4,23,-3,10,39,5
1523053742701244,1,6,19,27,1,1,-1,-1
1523053742701244,-2,-11,-57,-45,-2,2,-3,0
1523053742723301,-2,0,29,27,4,0,3,1
1523053742723301,-2,4,-8,0,-7,-15,-26,-7
1523053742723801,1,1,20,-25,0,-3,0,-1
1523053742723801,-3,-13,-37,19,5,8,3,0
1523053742746417,-6,-5,18,5,-6,-14,2,-7
1523053742746417,1,2,-21,-19,-6,-3,-25,-3
1523053742747391,0,2,3,-4,0,-4,13,1
1523053742747391,1,3,33,36,3,-3,-14,0
1523053742760902,-1,-5,-9,-10,-2,2,7,-1
1523053742760902,-1,4,-36,-21,-3,-19,-70,-8
1523053742761403,-3,-4,0,1,1,4,10,1
1523053742761403,1,-18,3,3,-2,0,5,-1
1523053742782960,-12,6,-26,-6,0,4,22,1
1523053742782960,-1,-13,8,4,-5,0,-17,-3
1523053742783962,1,11,-13,3,11,-9,-22,-2
1523053742783962,4,5,0,-10,-4,2,6,1
1523053742808025,4,2,17,11,5,7,11,3
1523053742808025,-3,3,1,1,-2,-4,2,-2
1523053742808527,-2,-6,-10,-5,-7,-3,-7,-1
1523053742808527,-3,-2,5,3,-1,-3,8,-3
1523053742820615,1,-1,4,3,0,-4,7,2
1523053742820615,1,4,-5,6,1,2,22,-17
1523053742821616,-2,-7,-18,-10,-5,-7,-3,20
1523053742821616,0,2,9,1,-1,-1,24,5
1523053742843120,-1,3,1,2,-3,-11,-29,-12
1523053742843120,-3,-6,-7,-2,0,1,7,-6
1523053742844122,-1,-1,-3,-3,-6,-4,-10,3
1523053742844122,0,1,5,-1,2,-1,29,14
1523053742866182,0,0,0,2,0,-1,-21,-2
1523053742866182,-1,0,-1,3,1,5,25,-31
1523053742867183,-3,-3,-4,-1,-3,-2,-14,62
1523053742867183,1,1,2,-2,0,-1,-56,7
1523053742880774,4,0,-4,-2,0,2,8,-52
1523053742880774,2,0,5,3,1,15,45,66
1523053742881222,-3,-10,-5,-5,-4,-4,2,-50
1523053742881222,-3,1,-3,-3,-2,-1,-40,-16
1523053742903317,4,3,3,5,5,15,56,3
1523053742903317,-4,-4,-4,-1,-2,3,-9,-2
1523053742903782,-1,2,-2,-4,-5,-2,26,-51
1523053742903782,-1,-1,0,1,-1,3,5,36
1523053742926394,-5,-5,1,1,-1,-5,-84,14
1523053742926394,1,3,-1,2,-1,2,47,-63
1523053742927387,-1,0,-3,0,0,1,-22,106
1523053742927387,0,-4,1,-2,-2,0,29,2
1523053742940879,1,-1,0,-5,-3,-12,2,-16
1523053742940879,-4,-4,-3,-3,-2,-9,-38,13
1523053742941381,-2,0,1,-1,1,-2,-3,-70
1523053742941381,-3,1,3,1,0,-3,-9,-19
1523053742964443,0,0,-7,2,0,3,21,50
1523053742964443,-1,-5,-2,-3,-4,-4,-6,-4
1523053742965444,0,2,-1,-2,-2,0,3,-22
1523053742965444,-1,1,0,3,1,-2,-5,9
1523053742986500,0,-4,-2,1,1,6,18,5
1523053742986500,-2,-1,-1,-4,-4,-4,-15,-11
1523053742987003,-1,2,-2,1,1,-3,-20,-1
1523053742987003,0,-4,0,-4,-1,1,12,3
1523053743000540,0,-2,1,-1,1,5,-1,-15
1523053743000540,-1,-2,0,0,-1,-6,-29,6
1523053743001541,1,-1,1,2,2,6,29,16
1523053743001541,-3,-3,-5,-4,-4,-7,-12,-21
1523053743023098,0,1,1,-1,-3,-2,-3,-4
1523053743023098,1,6,29,15,1,-5,-15,16
1523053743024102,-2,-5,3,-15,1,4,19,-2
1523053743024102,-1,-2,26,30,-2,0,-19,-18
1523053743046160,-5,-9,-70,-54,-12,-6,-11,3
1523053743046160,2,10,17,11,2,2,7,13
1523053743047163,-2,-5,23,11,1,-9,-20,-22
1523053743047163,-3,-5,-41,-12,2,6,26,-2
1523053743060699,2,3,-1,5,1,-7,-11,12
1523053743060699,-4,-4,-4,-12,-5,-4,1,0
1523053743061201,1,-1,-25,-20,0,-2,-10,-9
1523053743061201,-2,-1,14,-1,-8,-16,-39,-5
1523053743083260,0,1,-8,30,4,-1,1,-2
1523053743083260,-2,-6,-60,-9,-5,1,-4,-2
1523053743083760,0,-2,10,-6,-2,8,32,0
1523053743083760,0,3,-40,-5,3,-1,-24,-2
1523053743106320,3,12,97,24,9,14,20,0
1523053743106320,-2,2,27,38,0,-14,-56,-5
1523053743107324,-6,-15,-35,14,-14,-5,9,1
1523053743107324,-6,-19,-36,-35,-9,-8,-24,-8
1523053743120858,4,13,1,-23,1,-2,-23,-1
1523053743120858,0,7,-9,-22,2,2,-1,2
1523053743121361,-16,-22,-9,20,-3,1,-47,-8
1523053743121361,6,15,0,-29,7,24,84,6
1523053743143418,-8,-16,-37,-27,-16,-8,-23,-6
1523053743143418,-1,1,-18,0,9,0,-18,0
1523053743143920,2,5,22,-28,-6,-18,-38,-8
1523053743143920,1,3,-21,13,3,9,49,5
1523053743166480,-3,-10,-52,-8,-2,1,2,5
1523053743166480,-2,-4,-31,-35,-11,-12,-10,-3
1523053743166981,4,6,12,7,-1,-9,-42,-4
1523053743166981,7,9,33,19,7,14,16,13
1523053743180517,-2,3,53,41,0,14,27,2
1523053743180517,-5,-22,-65,-56,2,26,38,3
1523053743181520,3,5,49,39,6,5,24,2
1523053743181520,-1,6,57,20,0,2,69,0
1523053743203580,-1,-4,12,3,2,-6,1,-4
1523053743203580,2,9,31,9,1,1,-8,3
1523053743210598,-2,-3,-64,-20,-1,7,21,4
1523053743210598,1,7,47,17,-2,-17,-54,-7
1523053743226140,-5,-11,-67,-35,-6,-13,-38,-6
1523053743226140,0,-2,28,28,3,7,41,5
1523053743227142,5,8,-5,-10,3,9,51,7
1523053743227142,-4,-7,9,8,-1,-6,-21,-6
1523053743240730,-2,-1,6,9,-1,-2,-39,-5
1523053743240730,0,1,2,-11,-3,-7,-43,-3
1523053743241688,-3,0,13,0,-1,-3,-12,-3
1523053743241688,-2,-3,-19,-2,1,2,4,-3
1523053743263237,0,-3,21,7,2,2,33,3
1523053743263237,-1,6,-2,-5,-6,-8,-9,-2
1523053743263738,0,-6,20,10,1,-3,-9,-1
1523053743263738,-4,-13,-13,-8,-1,-7,-28,-6
1523053743286298,4,8,2,0,2,3,16,2
1523053743286298,3,4,21,15,-1,3,20,2
1523053743287301,-8,-7,-12,-7,-3,-4,-11,-3
1523053743287301,0,-6,-9,-9,-2,-4,-12,-1
1523053743301339,-1,0,3,-1,2,2,17,1
1523053743301339,-1,-2,13,8,-1,-6,-9,-1
1523053743308393,3,7,2,-3,0,-2,-8,-2
1523053743308393,-4,-4,-11,-10,-5,-9,-16,-4
1523053743323397,-1,-1,14,10,0,-2,13,-16
1523053743323397,0,-1,1,4,-2,-5,1,18
1523053743323898,4,6,-4,-4,6,28,34,14
1523053743323898,-3,-3,4,-1,-2,-2,-5,-8
1523053743346460,0,0,0,1,-1,-1,5,-1
1523053743346460,-3,-6,0,0,-1,-3,-5,-15
1523053743346961,-1,-1,-3,-4,-5,-15,-33,0
1523053743346961,-1,3,0,1,0,-1,13,22
1523053743359994,0,-2,4,0,-1,3,-1,-4
1523053743359994,-2,-6,-2,-3,-2,-1,2,-4
1523053743368016,2,1,1,-2,-3,-5,7,-2
1523053743368016,-3,1,-2,-2,-3,-3,-26,-25
1523053743383056,-5,-1,0,-1,0,-11,-20,21
1523053743383056,-1,-3,4,5,0,-1,-10,-24
1523053743384059,3,2,0,1,1,8,37,28
1523053743384059,0,0,-6,-4,-2,2,24,3
1523053743406118,-3,-3,1,2,-2,-4,-59,45
1523053743406118,0,-1,4,1,-1,1,12,-10
1523053743407122,-3,0,-1,-4,-4,-7,-24,-19
1523053743407122,-2,-1,-2,-3,1,10,24,-12
1523053743430218,0,-1,4,2,-3,0,-7,-70
1523053743430218,-2,-2,-2,0,-1,-5,-23,69
1523053743431223,1,-2,-3,-2,0,3,12,-17
1523053743431223,-1,0,2,-1,-2,-5,-15,0
1523053743443217,0,-1,-1,-1,-1,9,16,-14
1523053743443217,-2,-2,-2,-2,0,-1,-1,-6
1523053743443717,-2,0,-3,0,0,-2,5,3
1523053743443717,1,-1,1,0,0,-2,-41,-10
1523053743466280,1,-1,-1,-1,-1,1,24,18
1523053743466280,0,-2,-1,0,0,-1,9,-8
1523053743467281,-2,0,1,0,0,-4,-21,-3
1523053743467281,0,0,-1,-1,0,-2,-3,4
1523053743479867,-1,-2,0,-2,-3,-2,11,3
1523053743479867,-1,-1,-2,5,1,-5,-14,-2
1523053743488336,-4,-3,9,-6,-4,-4,-7,-14
1523053743488336,0,0,-3,1,-2,-1,5,6
1523053743503430,-1,-2,-2,-1,-1,-2,13,5
1523053743503430,-2,-2,0,-3,-3,-4,0,-17
1523053743503934,2,2,-3,1,2,3,-11,4
1523053743503934,-3,-2,9,14,-1,-3,0,3
1523053743526493,-4,-4,-14,-18,4,6,-10,2
1523053743526493,-1,-2,3,9,1,2,12,-4
1523053743526995,-1,1,-3,-2,-5,-13,4,-1
1523053743526995,0,2,14,-1,1,-5,-27,2
1523053743540030,4,6,23,29,7,8,19,0
1523053743540030,-6,-13,-23,-41,-7,-2,4,-4
1523053743548052,-4,-6,-64,5,-12,-13,-23,-6
1523053743548052,2,4,37,-5,4,-2,-5,-1
1523053743563090,-6,-12,-74,-37,-15,-13,-3,-4
1523053743563090,-5,-10,-25,-34,-4,9,20,1
1523053743564093,2,8,39,32,8,-6,-26,-3
1523053743564093,-2,2,-42,-33,-3,-6,-33,-6
1523053743586210,7,13,60,43,6,12,36,9
1523053743586210,3,0,-27,-19,1,4,33,4
1523053743587213,-12,-21,-61,-30,-12,-17,-36,-14
1523053743587213,-2,-5,30,1,-9,-6,25,1
1523053743600189,0,6,35,8,1,-12,-40,-1
1523053743600189,5,14,35,7,4,-6,-1,-1
1523053743608264,4,10,19,62,13,13,16,1
1523053743608264,-7,-18,-18,14,-2,9,30,0
1523053743623250,-11,-19,-2,-22,-3,1,-19,-3
1523053743623250,3,11,-44,-42,-5,3,20,-2
1523053743623752,-3,-5,6,32,-8,-19,-45,-9
1523053743623752,7,12,-8,15,-4,2,14,6
1523053743646366,-12,-11,-20,-10,0,2,5,-4
1523053743646366,4,0,61,34,9,-3,-15,1
1523053743647373,0,-7,-69,-78,-10,1,13,4
1523053743647373,0,7,-12,12,4,17,56,3
1523053743668872,0,-5,21,1,-1,-2,-45,-11
1523053743668872,-1,-3,-4,21,4,8,30,5
1523053743669875,1,1,15,-22,0,1,19,4
1523053743669875,-1,-1,5,-1,1,-1,-21,-2
1523053743683412,3,11,-17,2,-2,-6,-7,-1
1523053743683412,-4,-4,21,11,-2,-9,-30,-8
1523053743683913,1,1,27,-3,6,18,39,6
1523053743683913,-2,-3,9,1,-5,-7,-27,-3
1523053743706473,3,4,6,-9,1,1,31,4
1523053743706473,-3,-3,19,18,-3,-3,-34,-2
1523053743706975,1,5,10,-7,4,8,9,3
1523053743706975,-4,-4,7,-3,5,1,-3,0
1523053743729032,2,0,-7,6,-2,0,5,2
1523053743729032,-3,-1,35,37,-7,-8,1,-5
1523053743729534,1,6,3,4,11,10,26,3
1523053743729534,1,-1,5,2,2,-3,0,1
1523053743743069,0,-1,19,3,-3,-4,9,0
1523053743743069,-2,2,-19,-5,0,-6,-22,-5
1523053743744072,-2,-5,18,-5,-7,-7,-14,-2
1523053743744072,-1,-1,0,1,-2,-7,-15,-3
1523053743774152,0,1,5,3,-2,-2,5,1
1523053743774152,-2,-3,-23,-10,-4,-4,-8,-4
1523053743774656,-1,-3,-5,-14,0,4,12,1
1523053743774656,0,-1,-15,-7,1,4,11,-1
1523053743788691,0,-1,-12,-6,-3,-5,5,0
