timestamp,emg1,emg2,emg3,emg4,emg5,emg6,emg7,emg8
1523148294674967,34,-8,-16,-14,-13,-2,-6,-26
1523148294674967,-32,-12,-38,15,6,3,6,42
1523148294676972,-1,14,-1,-12,-8,1,0,9
1523148294676972,-23,-29,1,14,-1,-4,-2,-13
1523148294697528,-61,-8,-27,-4,-2,-7,-8,-10
1523148294697528,14,32,-5,-13,1,-1,-4,-22
1523148294699536,-48,-19,-15,-11,-9,-1,2,-51
1523148294699536,81,26,34,27,13,10,5,51
1523148294712572,-6,-55,-27,-8,2,5,10,21
1523148294712572,-23,7,16,-12,-2,-2,-8,-64
1523148294714575,26,29,12,-19,-4,-4,-3,16
1523148294714575,76,24,25,15,6,2,-4,-54
1523148294735127,49,14,23,16,5,5,5,27
1523148294735127,-14,-5,-25,-16,4,3,4,-10
1523148294736632,72,32,5,-16,-9,-9,-7,16
1523148294736632,44,-14,-5,-9,-2,6,5,18
1523148294757687,-61,11,10,-15,-7,-7,-4,-41
1523148294757687,16,0,21,84,13,2,0,25
1523148294759192,14,-1,-6,-43,-24,-4,1,6
1523148294759192,-26,-13,-32,46,-3,-8,-4,9
1523148294772225,-1,18,9,51,6,0,-1,-15
1523148294772225,11,-2,11,-18,-2,2,0,0
1523148294778748,16,29,22,127,27,4,0,16
1523148294778748,-33,-50,-1,-67,-7,-6,-2,-7
1523148294795793,2,-7,-6,12,2,-3,-2,9
1523148294795793,-12,3,16,52,5,-1,-4,0
1523148294801304,7,-9,25,-57,10,4,0,0
1523148294801304,-41,-1,-45,-11,-26,-17,-12,-17
1523148294817852,22,16,20,102,32,11,2,10
1523148294817852,19,-8,-7,-39,-21,-9,1,16
1523148294819357,-19,-15,-9,1,-3,7,5,-11
1523148294819357,-26,-1,5,60,1,-3,-5,-10
1523148294840409,1,-14,-23,-128,-23,-14,-10,1
1523148294840409,4,11,9,64,4,0,-2,-6
1523148294841913,3,-42,-11,1,-6,-2,1,-1
1523148294841913,-12,5,-2,59,6,4,4,12
1523148294855448,19,19,-9,-56,-16,0,-3,14
1523148294855448,-13,-7,-10,-15,-7,-6,-5,-8
1523148294861464,-7,-8,-17,44,12,-7,-1,1
1523148294861464,-3,11,12,16,6,14,1,2
1523148294878009,3,4,-10,-62,-22,-6,-1,3
1523148294878009,4,-1,-7,13,-9,-3,-4,0
1523148294879514,0,-2,9,12,9,-1,-3,2
1523148294879514,-10,11,1,34,15,-3,-1,-1
1523148294892054,2,5,4,6,6,3,2,-8
1523148294892054,-16,-52,-4,8,-2,-4,-1,3
1523148294899080,9,-7,-23,-89,-25,-5,-5,-20
1523148294899080,36,2,14,36,14,0,1,34
1523148294915616,2,3,12,59,2,0,-1,5
1523148294915616,25,12,-7,-2,-7,-6,-3,2
1523148294917120,7,-8,3,49,13,2,0,-2
1523148294917120,2,-3,3,-67,-5,-1,1,-10
1523148294937676,-1,-6,-7,32,-5,-4,-2,-4
1523148294937676,13,10,3,-17,2,3,2,10
1523148294939172,-6,-1,-7,-22,0,1,-3,-3
1523148294939172,-9,8,-20,-37,-10,-4,-2,-9
1523148294952230,-7,3,1,14,2,-1,-2,2
1523148294952230,-15,4,4,-47,6,4,3,-7
1523148294958732,-6,-10,-9,-55,-27,-6,-2,2
1523148294958732,-6,0,-5,7,4,2,0,-5
1523148294975294,40,-4,0,19,1,-1,-2,-4
1523148294975294,11,0,-11,-24,-1,0,-4,-3
1523148294976774,-11,11,18,62,19,5,1,7
1523148294976774,31,-1,-9,-72,-14,-6,-4,-9
1523148294997833,-4,-8,0,-19,1,-1,0,5
1523148294997833,3,6,-4,-12,-6,0,0,-5
1523148294999333,5,7,25,44,9,4,1,2
1523148294999333,-31,-10,12,57,18,3,1,-6
1523148295012367,-13,-37,-8,47,-21,-7,-4,-9
1523148295012367,28,-18,-10,16,-3,-5,-1,0
1523148295018891,-4,1,-16,27,1,0,-1,2
1523148295018891,27,-6,18,48,6,2,1,0
1523148295035434,-1,6,5,-12,15,5,3,-1
1523148295035434,14,11,-9,-61,-23,-6,-2,4
1523148295036933,-15,-7,-10,-5,0,-2,-1,-2
1523148295036933,-10,3,4,16,-2,-2,-3,-1
1523148295057992,0,4,-4,4,8,1,-1,2
1523148295057992,-35,-2,-2,-45,-10,-3,-2,-3
1523148295059493,-17,16,2,-25,5,4,1,-5
1523148295059493,-1,11,-1,-4,-12,-6,-4,-2
1523148295072028,3,8,16,-26,8,6,4,1
1523148295072028,-16,-2,1,-4,-5,-3,-1,-2
1523148295079049,-13,-6,-7,0,-8,-6,-4,1
1523148295079049,52,4,6,9,5,-1,-1,-3
1523148295095086,21,6,11,14,-8,-2,-3,-1
1523148295095086,6,-5,-15,-20,7,3,0,4
1523148295097092,14,1,-3,-2,0,-1,0,0
1523148295097092,-37,-8,-5,-21,-9,-2,0,-1
1523148295118242,13,-1,-5,17,-2,-2,1,-1
1523148295118242,-1,7,21,50,11,2,-1,-2
1523148295119740,9,-10,-18,-80,-21,-6,-3,-1
1523148295119740,-4,-6,-5,-14,-3,-1,1,1
1523148295132273,-56,-3,6,5,6,2,2,-2
1523148295132273,-15,16,12,27,-4,-1,-2,-3
1523148295138797,6,-56,12,-10,1,-2,-5,-3
1523148295138797,-11,5,-29,-9,-2,2,1,-1
1523148295155334,18,-1,-7,5,0,0,-2,5
1523148295155334,-7,3,8,17,9,5,6,6
1523148295156838,14,-1,-27,23,1,2,1,6
1523148295156838,-91,17,1,7,8,2,3,0
1523148295177893,-13,-28,12,-2,-6,-5,-5,-13
1523148295177893,-27,-29,-64,-4,1,-3,-3,8
1523148295179397,-29,8,-6,10,-6,4,5,-11
1523148295179397,57,79,38,-12,-2,-1,-3,3
1523148295191438,21,-32,-23,-2,7,-4,-2,17
1523148295191438,4,23,21,6,-4,0,-6,9
1523148295200452,-104,-10,-3,-8,-8,-6,-12,-31
1523148295200452,78,-25,-6,-2,0,-1,4,21
1523148295214998,72,38,-4,-5,-4,0,5,41
1523148295214998,-71,8,1,1,7,1,-8,-54
1523148295216999,-22,-12,5,20,2,-6,-14,-43
1523148295216999,-18,-31,-8,-7,-7,-5,-5,-22
1523148295237560,20,-17,15,16,-1,2,6,-34
1523148295237560,78,32,26,6,9,5,13,45
1523148295239559,21,8,0,24,-1,-1,2,16
1523148295239559,-61,-17,-30,-61,-13,-7,-4,-14
1523148295251589,-7,19,20,39,8,4,2,1
1523148295251589,9,6,8,-6,3,5,1,-4
1523148295260615,12,-8,10,1,-8,-3,1,5
1523148295260615,11,-7,-10,-33,-19,-10,-6,-1
1523148295275157,-22,0,-14,26,1,-6,-9,1
1523148295275157,-16,-25,1,67,4,-4,-5,-19
1523148295277158,37,14,1,24,13,3,8,23
1523148295277158,-4,-2,12,85,22,11,5,11
1523148295297759,-33,7,-15,-124,-45,-8,-7,-17
1523148295297759,-2,-1,23,82,16,1,-1,-4
1523148295299218,23,18,5,-30,5,2,1,12
1523148295299218,-11,-2,-4,-67,-8,-4,-2,-1
1523148295311248,-33,-8,-7,-30,-4,-1,-6,-14
1523148295311248,14,-11,-3,-27,-6,-4,2,5
1523148295320278,13,4,-6,-35,-9,-6,-1,7
1523148295320278,-15,-2,4,-2,-9,2,0,-9
1523148295335313,-7,-2,-1,23,0,-2,-2,-1
1523148295335313,19,-3,-13,-31,-8,-5,-2,9
1523148295336816,-10,11,-9,-10,2,-3,1,-2
1523148295336816,-23,-9,3,37,11,1,-1,-6
1523148295357895,3,2,-13,-59,-13,-5,-3,-3
1523148295357895,23,4,-13,-19,-9,-2,-1,5
1523148295359378,5,12,23,47,13,10,3,1
1523148295359378,11,-8,3,17,-8,-7,-4,3
1523148295371454,-12,6,10,125,23,6,1,2
1523148295371454,-10,-9,-22,-69,-32,-5,-5,-8
1523148295380433,4,2,15,101,11,2,2,4
1523148295380433,-4,-13,14,34,0,0,-1,0
1523148295395977,-11,-6,-10,-28,-1,-1,0,-1
1523148295395977,-3,2,10,38,12,5,1,-1
1523148295397479,2,12,-2,-48,-15,-4,-4,1
1523148295397479,3,10,-9,-14,4,-3,0,-2
1523148295417577,10,0,-6,38,6,-6,0,1
1523148295417577,-28,-8,-1,-85,-17,2,-2,-6
1523148295419537,-6,0,-6,8,-2,0,-1,4
1523148295419537,-3,-10,-2,-25,-5,0,0,-1
1523148295431570,6,3,14,71,22,6,1,-1
1523148295431570,4,-6,-13,9,-12,-8,-2,-1
1523148295440594,-3,0,5,-19,-2,-2,-2,-3
1523148295440594,-4,-4,0,50,3,-1,-1,0
1523148295455135,-3,-4,-18,-16,0,0,-1,-2
1523148295455135,-1,0,1,10,2,-1,1,1
1523148295456637,3,-6,10,7,1,-1,-2,0
1523148295456637,5,5,12,15,0,0,0,0
1523148295477691,3,-4,-27,-11,-6,0,1,2
1523148295477691,-1,1,12,18,4,-2,-1,-2
1523148295479697,-3,-2,-7,4,0,-1,0,-3
1523148295479697,0,1,-3,-4,-2,0,-3,1
1523148295501756,-8,3,2,-28,-5,-1,-2,-1
1523148295501756,4,-2,-6,-4,1,0,-1,0
1523148295503259,1,-4,-1,12,2,0,-1,-1
1523148295503259,-2,3,-3,-15,-4,-3,2,-3
1523148295515295,15,-10,-8,-18,0,0,0,-2
1523148295515295,7,0,2,46,3,-1,1,1
1523148295516797,-4,1,-1,-12,-2,-1,-1,1
1523148295516797,14,18,12,6,5,-1,-2,0
1523148295537856,19,1,-1,16,-3,-3,-1,2
1523148295537856,19,-6,1,16,7,3,1,0
1523148295539355,1,-1,2,-28,-3,-1,-1,0
1523148295539355,1,-2,-5,7,-3,-1,1,0
1523148295560410,-17,6,17,1,0,-1,-1,-2
1523148295560410,-7,6,0,-10,-4,-2,-3,-3
1523148295561915,5,-9,-4,10,1,2,1,1
1523148295561915,-11,-7,-5,-5,-1,2,1,-3
1523148295575956,-4,2,18,56,7,-1,-3,-1
1523148295575956,-9,-6,-25,-26,-16,-8,-6,-3
1523148295577457,-5,1,-7,0,-2,-3,-3,-1
1523148295577457,20,1,12,69,16,3,1,-1
1523148295597512,-9,-5,-17,-56,-23,-6,-4,-3
1523148295597512,32,2,4,6,4,-2,0,0
1523148295599520,5,9,16,95,20,5,2,2
1523148295599520,-12,-5,-28,-86,-34,-12,-7,-3
1523148295620256,-10,1,13,-59,-1,-2,-3,-3
1523148295620256,-1,-4,1,6,3,-1,-1,0
1523148295621702,6,4,5,-14,-9,-3,-2,0
1523148295621702,-15,-6,0,13,7,2,-1,-2
1523148295642814,-16,0,1,3,-1,0,-1,1
1523148295642814,-4,6,6,-37,-6,-2,-1,0
1523148295644260,-4,0,9,21,8,1,4,-1
1523148295644260,-4,-2,17,-25,9,5,0,1
1523148295657915,-19,-5,-50,-41,-40,-15,-8,-9
1523148295657915,48,25,7,38,15,6,4,10
1523148295659416,7,-24,16,-23,-7,-3,3,17
1523148295659416,-52,-24,-2,10,0,-3,-5,-20
1523148295680471,-40,-19,7,39,12,4,-3,-27
1523148295680471,-1,13,4,18,9,2,2,7
1523148295681976,37,0,-3,53,18,1,-2,-10
1523148295681976,17,-5,-42,-70,-74,-21,-7,37
1523148295695011,35,13,3,71,12,4,7,-14
1523148295695011,-56,-31,9,47,7,-1,-5,37
1523148295697015,32,12,-15,12,7,3,3,2
1523148295697015,4,-11,4,-1,14,4,12,0
1523148295717569,-15,1,16,-23,5,1,-9,12
1523148295717569,-64,-25,-28,-24,-20,-5,-11,-56
1523148295719074,52,10,-10,-36,-5,-1,-1,-17
1523148295719074,99,14,2,4,-1,-5,-1,51
1523148295740128,70,33,34,-10,0,10,20,51
1523148295740128,-111,-16,4,-12,-8,-9,-16,-47
1523148295741634,-23,-12,-19,-23,-16,-8,-13,-36
1523148295741634,49,5,-16,1,5,2,7,9
1523148295754668,19,11,24,16,7,3,2,22
1523148295754668,41,8,33,79,21,6,4,5
1523148295761188,-50,-16,-48,-72,-41,-17,-12,-14
1523148295761188,-27,14,5,47,10,3,4,-30
1523148295777737,23,6,6,24,8,1,4,31
1523148295777737,-30,-30,-18,-12,8,5,6,5
1523148295779237,-24,15,16,34,3,2,0,4
1523148295779237,-47,11,22,45,32,15,11,-8
1523148295800288,28,13,-30,-25,-23,-12,-12,-10
1523148295800288,18,-1,-8,17,-7,-7,-7,-18
1523148295801793,-12,-8,10,11,7,5,6,7
1523148295801793,-26,5,-3,12,5,0,-5,4
1523148295814327,-78,-14,5,92,19,7,0,-21
1523148295814327,45,17,-1,-4,-11,-3,4,20
1523148295821345,1,5,1,26,6,4,3,16
1523148295821345,-9,3,16,4,-1,-5,-12,-26
1523148295837894,2,-21,-27,-9,3,-1,-2,-16
1523148295837894,3,-4,-2,-60,-21,-4,2,2
1523148295839393,10,26,25,-3,2,1,2,17
1523148295839393,-7,-24,6,13,4,7,2,-7
1523148295861452,-21,-39,-34,-31,-12,-11,-9,-10
1523148295861452,11,5,-25,-15,0,2,3,10
1523148295863457,-17,-4,-17,-23,-7,-5,-4,-7
1523148295863457,-13,27,19,-5,-1,1,0,-6
1523148295874490,-13,9,21,15,3,4,2,8
1523148295874490,44,5,6,1,0,-1,0,-17
1523148295881508,25,12,21,2,3,0,-3,14
1523148295881508,-1,-14,-22,2,-12,-4,-1,-2
1523148295897550,-20,-8,2,28,5,-2,-1,-7
1523148295897550,-10,2,-4,61,15,2,0,-3
1523148295899556,-10,-1,-20,-33,-23,-6,-2,-3
1523148295899556,7,-1,0,38,1,-2,-4,1
1523148295920205,3,2,3,-15,-12,-7,-1,-14
1523148295920205,26,12,22,27,17,16,6,6
1523148295921709,15,-16,-7,49,3,-2,-1,19
1523148295921709,-22,1,1,96,16,4,-2,-11
1523148295934744,-42,-10,-17,-101,-40,-13,-6,-11
1523148295934744,6,5,17,88,16,-1,0,-33
1523148295948781,23,-5,8,70,8,4,6,22
1523148295948781,-8,-17,-33,11,-11,-9,-9,13
1523148295957805,12,19,3,19,-5,1,1,2
1523148295957805,-11,-27,5,65,12,2,5,-5
1523148295959309,-31,-3,4,57,16,1,-4,-3
1523148295959309,12,-7,-25,-78,-40,-15,-13,-33
1523148295980379,26,-1,21,116,41,13,3,11
1523148295980379,-15,-7,-29,-68,-53,-16,-4,14
1523148295981867,-8,-4,-4,30,17,-1,1,-12
1523148295981867,-5,-1,19,13,14,6,3,8
1523148295994401,-13,-1,-7,41,7,1,0,-3
1523148295994401,-7,6,0,-41,-2,-1,-3,4
1523148296001420,-15,-1,14,-13,-6,0,1,-8
1523148296001420,-1,6,-2,-29,-12,-4,-2,0
1523148296017966,42,6,17,16,17,7,3,-1
1523148296017966,-59,5,-11,-9,-2,-5,-4,9
1523148296019467,-35,-14,-24,-49,-29,-8,-7,-17
1523148296019467,29,2,10,72,23,4,1,-2
1523148296040123,-55,-15,-4,-20,-2,-1,-4,-10
1523148296040123,29,3,12,13,-3,-3,0,10
1523148296041626,-5,-4,-30,-49,-10,-3,-4,-7
1523148296041626,-30,-5,-5,11,1,-1,1,-3
1523148296054727,14,7,3,29,7,3,2,5
1523148296054727,20,8,-11,-49,-33,-7,-3,4
1523148296061242,-10,-4,-2,8,-1,0,1,-10
1523148296061242,24,9,7,36,10,1,-1,20
1523148296077790,14,-3,-21,-53,-24,-7,-3,-2
1523148296077790,18,6,2,26,14,1,1,5
1523148296079291,3,-4,8,-1,-1,-2,0,-12
1523148296079291,-7,-32,-3,-31,-6,-1,1,7
1523148296100441,5,-1,12,-4,-2,-3,-2,-5
1523148296100441,-1,1,6,8,6,2,0,4
1523148296101944,-16,-2,-2,16,0,-1,-4,-9
1523148296101944,-1,7,-1,-16,-1,-1,0,-9
1523148296113974,2,-5,-11,-4,-5,-4,-5,-1
1523148296113974,1,-7,-3,-10,1,-1,-2,1
1523148296123000,6,9,2,-12,-2,-1,1,7
1523148296123000,-8,-1,-14,-5,0,0,-1,-8
1523148296138046,-9,-12,1,-3,-2,0,1,4
1523148296138046,2,10,-5,-7,1,-1,-2,-5
1523148296139544,9,-13,2,14,3,3,0,4
1523148296139544,-7,0,0,-4,-4,-2,-2,0
1523148296160098,2,4,1,-6,-4,-1,-1,-5
1523148296160098,13,6,2,7,3,1,1,3
1523148296162104,10,5,0,2,2,1,0,5
1523148296162104,10,17,1,9,5,1,1,-5
1523148296174141,39,-11,-19,-7,-11,-5,-4,4
1523148296174141,11,7,3,-1,2,-1,1,6
1523148296182664,1,-3,-5,0,4,-1,-3,-2
1523148296182664,7,-5,5,-10,-2,1,1,-3
1523148296197703,-8,50,11,-7,8,-1,0,-2
1523148296197703,64,7,11,-1,-4,-2,2,-1
1523148296199203,-6,-24,-36,18,-2,0,-1,23
1523148296199203,-64,-15,-3,-4,2,-4,-10,-36
1523148296220259,40,36,-1,3,-1,-2,2,25
1523148296220259,36,-54,-29,-8,-4,-8,-8,41
1523148296226274,-103,-1,-10,-15,-7,-3,-8,-36
1523148296226274,93,24,4,-7,-3,-3,0,2
1523148296233792,-31,2,-1,9,0,2,4,-10
1523148296233792,15,22,4,6,0,2,-5,2
1523148296242818,18,46,12,-12,-3,-5,0,8
1523148296242818,-33,-53,-6,-6,-3,-3,-3,6
1523148296257856,-25,-6,5,-13,-7,-3,3,-2
1523148296257856,-57,-5,11,-2,-1,-1,-1,-7
1523148296259361,-9,-1,-1,1,2,0,1,-15
1523148296259361,29,11,2,-2,0,1,4,14
1523148296280417,-35,-14,-6,-5,-4,-5,-13,-21
1523148296280417,-34,-15,-10,-8,5,4,2,-15
1523148296281921,20,10,7,-6,-2,0,3,-11
1523148296281921,28,16,-2,4,-1,0,1,22
1523148296293955,22,-12,11,26,5,3,5,16
1523148296293955,-25,-6,-19,-17,0,0,-2,-9
1523148296302977,14,-7,3,-39,-12,-5,-1,-2
1523148296302977,-2,3,1,58,11,0,3,6
1523148296317518,-2,-10,0,-52,-22,-6,-6,-7
1523148296317518,-8,16,33,88,27,9,4,-9
1523148296319523,16,-4,12,56,3,2,4,11
1523148296319523,-28,-8,-31,-108,-43,-11,-7,-5
1523148296340248,-2,-12,7,68,14,3,0,-2
1523148296340248,-13,-2,-3,7,4,0,0,-6
1523148296341749,5,-9,3,22,1,1,-2,5
1523148296341749,-23,-8,-12,-5,-9,-5,-6,-7
1523148296353784,0,-5,1,9,-10,1,5,-8
1523148296353784,-7,1,2,38,0,1,2,11
1523148296362807,24,-4,-1,-1,2,-2,-4,13
1523148296362807,-6,3,11,14,8,2,-2,-10
1523148296377845,-6,-4,4,-32,-3,1,1,-1
1523148296377845,-34,-13,-31,-23,-10,-7,-3,1
1523148296379350,19,-7,13,19,16,5,1,0
1523148296379350,7,1,13,52,1,6,5,0
1523148296400416,24,16,-17,-19,-5,-8,-7,3
1523148296400416,-1,-10,-8,27,-6,-1,1,-4
1523148296401910,26,13,40,69,11,5,1,2
1523148296401910,-9,0,-2,77,8,0,1,2
1523148296414020,-2,-2,11,51,7,2,-1,-2
1523148296414020,23,-1,-5,-29,-13,-5,-4,-5
1523148296422966,-3,2,3,0,5,-1,0,0
1523148296422966,-4,4,11,-8,8,1,0,-1
1523148296437004,14,-9,-7,-2,5,2,1,2
1523148296437004,-18,5,4,-41,-6,-3,-3,-7
1523148296445526,-16,-8,-7,-8,-1,0,0,2
1523148296445526,-12,11,23,14,10,2,-1,-5
1523148296460066,-12,-18,-37,-21,-15,-5,-4,-6
1523148296460066,-9,-3,8,22,6,4,4,-5
1523148296462070,0,-6,-12,17,-6,-1,0,2
1523148296462070,-5,-5,-14,-10,1,-1,-1,6
1523148296473744,-6,3,32,54,13,2,1,-3
1523148296473744,-22,-4,-6,-16,-13,-2,0,-2
1523148296482721,-2,7,-13,-12,-7,-4,-1,-5
1523148296482721,8,4,8,-3,-1,-1,2,3
1523148296497759,-2,-2,18,80,18,1,-1,-3
1523148296497759,-15,-4,-13,-68,-36,-8,-7,-4
1523148296499263,56,-2,-4,32,-2,0,1,-2
1523148296499263,15,1,-14,11,-6,-3,-4,-1
1523148296520405,-8,2,1,-14,1,-1,2,3
1523148296520405,-5,-1,-13,-47,-15,-9,-5,-6
1523148296521911,-10,-6,-9,-17,0,-1,-1,-1
1523148296521911,17,-2,2,14,2,1,0,-1
1523148296542966,3,12,9,10,4,0,-3,-1
1523148296542966,25,7,4,-36,-2,-2,0,4
1523148296544471,-15,-6,-10,-16,-3,-3,-5,-2
1523148296544471,-10,-17,-21,-10,-5,3,3,1
1523148296557559,-12,-1,9,41,13,4,1,-2
1523148296557559,46,-4,-8,-28,-9,-4,-2,2
1523148296559510,-48,-8,-2,8,-2,-1,0,-3
1523148296559510,-14,17,6,-44,0,0,-1,-3
1523148296580114,3,-3,-22,-22,-10,-2,-2,-2
1523148296580114,-3,-23,-2,46,12,0,-2,-2
1523148296582075,-12,-9,-1,-58,-1,-2,-3,-3
1523148296582075,3,-4,-12,-8,-9,-4,-2,-2
1523148296602746,-15,-8,-9,10,2,-1,-1,-3
1523148296602746,61,32,6,26,7,0,-1,2
1523148296604200,-9,-30,11,4,-2,0,0,-2
1523148296604200,-20,-5,-7,6,2,-4,-2,-4
1523148296617786,31,1,-8,-62,-10,-7,-2,-1
1523148296617786,-87,-6,4,12,1,4,2,-4
1523148296619240,61,37,-6,18,-1,0,-1,-3
1523148296619240,9,-1,15,-8,-2,-1,2,2
1523148296640348,-35,-24,-13,-20,-11,-5,-4,-4
1523148296640348,-1,-14,-5,33,12,3,1,0
1523148296641802,-35,14,20,-22,-7,-3,-2,-2
1523148296641802,-9,-19,-10,3,0,-2,-4,-8
1523148296662452,-55,-11,8,-10,-2,2,0,-12
1523148296662452,39,36,0,20,-2,2,4,35
1523148296664454,-33,-41,-20,-1,5,3,3,-16
1523148296664454,0,-8,-6,3,-4,-5,-8,-15
1523148296677990,44,-2,3,-8,1,-2,2,16
1523148296677990,26,33,3,-6,0,1,-1,16
1523148296679494,19,23,2,19,10,1,1,-53
1523148296679494,2,-60,-44,8,-9,-6,0,34
1523148296700222,18,25,50,2,29,9,-6,-18
1523148296700222,74,57,-7,40,2,16,32,77
1523148296701666,-35,-9,-9,-37,-14,-11,-15,-23
1523148296701666,-54,-18,-11,15,8,3,-1,-34
1523148296722776,-13,-51,-12,-4,-13,-6,-2,14
1523148296722776,-11,-29,10,-2,7,-6,-12,-53
1523148296724299,-21,4,4,-2,-6,0,10,8
1523148296724299,-46,13,3,11,1,1,-9,28
1523148296736892,-12,-9,-29,38,1,-1,8,7
1523148296736892,-59,-17,12,-9,2,-4,-12,-51
1523148296743854,13,19,-4,6,-14,-6,0,31
1523148296743854,16,-35,-1,-46,-11,-9,-9,-44
1523148296760395,35,55,-3,10,-1,-4,-4,22
1523148296760395,-62,-56,0,1,5,2,-3,-18
1523148296761900,17,-4,-6,16,2,-2,-4,9
1523148296761900,42,27,21,72,18,5,8,22
1523148296783045,-12,-4,-21,-100,-26,-7,-5,-8
1523148296783045,10,-4,32,35,11,2,-2,-4
1523148296785051,-1,8,5,36,2,1,2,15
1523148296785051,-8,12,10,-3,-1,-15,-1,1
1523148296797081,-17,-17,-17,-6,0,13,-2,-20
1523148296797081,-4,9,20,109,14,-7,-2,2
1523148296804100,0,-14,-12,-70,-29,4,-2,9
1523148296804100,6,18,0,18,1,-3,0,-7
1523148296820279,6,10,19,29,5,4,4,0
1523148296820279,3,1,-26,2,-3,-4,-2,5
1523148296821733,20,-1,-10,35,11,-6,-3,6
1523148296821733,-45,18,24,72,23,15,8,-3
1523148296842788,-4,-7,-1,-40,-12,-10,-7,-3
1523148296842788,-32,24,-25,-11,-31,-12,-11,-13
1523148296844293,-24,-22,4,29,5,-2,-2,-7
1523148296844293,12,6,-11,-92,-21,3,0,0
1523148296857000,2,21,4,127,23,5,1,0
1523148296857000,-4,-32,-16,-70,-6,-4,0,-6
1523148296864018,6,-3,-16,-19,-3,-4,-1,7
1523148296864018,19,9,34,84,30,12,6,9
1523148296880049,-20,-16,-37,-73,-42,-8,-2,-4
1523148296880049,22,-15,-9,-34,-23,-12,-6,-6
1523148296882002,12,23,18,105,33,14,3,4
1523148296882002,27,-9,-14,-43,-40,-8,-4,-1
1523148296902687,-2,-2,-3,84,21,-12,-3,-6
1523148296902687,23,-3,27,36,19,19,5,2
1523148296904640,-3,-4,5,-12,-7,-2,1,5
1523148296904640,3,21,27,97,31,5,-2,-2
1523148296917295,7,-10,-9,-56,-24,-7,-4,-4
1523148296917295,-22,1,-15,25,-19,-11,-4,9
1523148296923873,-37,9,26,123,33,9,4,-1
1523148296923873,22,8,-20,-104,-51,-13,-8,-2
1523148296940437,-4,-35,-17,71,-5,-4,-4,-2
1523148296940437,-11,-4,11,42,18,3,1,3
1523148296941938,-13,-1,-15,-64,-16,-5,-4,-1
1523148296941938,25,27,9,-30,4,4,5,-1
1523148296962997,-10,-10,1,-35,-4,3,2,4
1523148296962997,-24,-22,-4,-41,-1,-1,-1,-7
1523148296964498,9,-6,8,-44,-7,-4,-1,1
1523148296964498,-2,-4,-16,-13,-1,-4,-4,-3
1523148296977034,21,11,-3,-30,-5,1,1,1
1523148296977034,-9,2,-5,114,41,11,3,4
1523148296984077,0,5,18,58,-13,-7,-1,0
1523148296984077,-24,-17,-27,-28,-20,-4,0,0
1523148297000142,0,-1,-25,-16,-13,-8,-6,-5
1523148297000142,35,9,11,11,12,3,2,-4
1523148297001598,11,-10,1,-26,-7,-3,-1,1
1523148297001598,5,6,10,29,6,2,1,6
1523148297022706,2,6,12,13,13,5,1,0
1523148297022706,0,6,1,-51,-20,-8,-5,-2
1523148297024234,1,3,-10,-12,2,6,3,-1
1523148297024234,-3,-30,-8,-9,4,-3,0,-1
1523148297036315,3,7,9,-1,6,5,1,-1
1523148297036315,-8,-4,-1,6,-5,-4,-2,-1
1523148297045290,12,8,20,17,7,5,1,0
1523148297045290,-14,-12,-31,-5,-9,-8,-6,-4
1523148297060920,-29,-2,6,11,7,1,0,8
1523148297060920,-15,7,2,-4,-2,1,2,-4
1523148297062425,3,4,5,6,0,-1,-2,-1
1523148297062425,-1,8,15,22,6,2,-1,-1
1523148297082980,-6,0,10,8,7,1,0,-1
1523148297082980,18,34,0,9,-7,-1,0,9
1523148297084486,5,-34,-21,-21,-5,-1,-1,-5
1523148297084486,-10,5,22,65,14,0,-2,2
1523148297096518,1,-1,6,-69,-13,-2,0,-3
1523148297096518,-45,-1,0,7,4,1,-4,-11
1523148297105539,22,-11,-10,-1,-7,-3,-3,10
1523148297105539,3,2,-6,3,3,-1,0,-2
1523148297120125,-4,-15,-10,41,-3,-2,0,-9
1523148297120125,-7,9,-6,-47,-5,-2,-3,-3
1523148297121585,-29,2,-5,-17,-1,-2,-3,-4
1523148297121585,0,4,3,8,-1,1,1,-7
1523148297142638,6,-28,0,17,0,-5,-4,3
1523148297142638,-9,-19,-1,-32,-10,-2,-1,1
1523148297144143,-13,38,1,2,-4,-3,-3,-7
1523148297144143,-6,-10,6,-2,-1,0,-1,5
1523148297156676,13,17,1,2,-2,3,3,-2
1523148297156676,-7,-5,14,6,2,-4,-2,-4
1523148297165198,6,6,-1,-13,-7,-3,-3,-32
1523148297165198,-18,1,11,-27,-1,3,-1,3
1523148297180400,17,28,15,18,3,-5,5,40
1523148297180400,90,13,29,8,3,-1,-13,19
1523148297181856,-71,-69,-21,-3,2,2,-2,-38
1523148297181856,-21,32,-29,-12,-6,-3,9,22
1523148297202914,47,-4,3,-2,-5,-3,-1,-55
1523148297202914,-1,73,-5,2,-1,-5,-7,39
1523148297204417,63,-19,-12,-7,-7,-8,-16,-12
1523148297204417,72,-36,0,-6,-2,-2,-3,11
1523148297224469,-1,-8,-3,10,15,7,7,40
1523148297224469,-41,-36,-35,-3,-18,-8,3,-29
1523148297225475,14,11,-5,-18,-8,-2,-1,1
1523148297225475,-16,-10,-8,11,-3,2,6,7
1523148297239571,32,25,21,-15,-5,-4,-10,-7
1523148297239571,2,2,18,-1,9,2,4,-8
1523148297240512,-72,-17,-29,-1,-8,1,0,7
1523148297240512,31,23,-13,6,7,5,6,51
1523148297262148,-19,22,-9,17,3,1,-2,-53
1523148297262148,-94,-49,-10,12,2,-1,-25,-46
1523148297262650,23,-21,3,-31,-19,-11,2,45
1523148297262650,-32,5,36,17,11,0,-5,-9
1523148297284390,-15,-4,-14,7,0,-1,6,22
1523148297284390,51,14,-13,14,3,7,8,1
1523148297285326,11,27,27,27,8,-3,4,10
1523148297285326,10,24,-4,-4,-17,-9,2,-7
1523148297299367,-39,-4,20,16,8,18,-6,-20
1523148297299367,8,-15,2,50,-9,-10,4,-14
1523148297306930,-15,3,-14,-44,-8,3,1,9
1523148297306930,12,-4,-18,-34,-8,-8,-8,-22
1523148297321977,-16,1,12,88,27,2,1,5
1523148297321977,23,-2,-10,-78,-36,-2,3,9
1523148297322926,24,16,9,99,18,-5,-2,-1
1523148297322926,-46,-8,12,5,-1,1,-1,-11
1523148297344703,93,10,3,39,11,1,1,10
1523148297344703,-4,-23,-8,29,11,-3,0,8
1523148297345205,20,8,10,-74,-6,-1,1,1
1523148297345205,33,12,-20,0,9,10,0,-14
1523148297359748,-41,-18,9,-13,-8,-6,-3,8
1523148297359748,-8,3,15,25,62,0,3,1
1523148297360246,0,1,-47,-27,-58,18,6,-2
1523148297360246,-18,-12,8,-25,-19,-5,-5,-12
1523148297381922,-15,1,-16,34,-6,-11,-5,-3
1523148297381922,-21,-7,-1,-7,-3,-8,1,4
1523148297382923,-13,7,13,90,41,18,4,-5
1523148297382923,-28,-16,5,-49,-10,-3,-2,-9
1523148297404530,43,-20,-20,-8,2,2,-1,5
1523148297404530,12,-7,-1,65,-3,2,2,1
1523148297405484,11,7,29,68,22,-6,-4,-4
1523148297405484,-3,-13,-44,-80,-35,-8,-5,-7
1523148297419568,60,38,13,27,15,2,2,7
1523148297419568,20,-6,4,48,-16,-6,-5,-1
1523148297420521,8,19,-9,-33,-2,-2,4,6
1523148297420521,-5,-2,22,50,28,-1,-2,-4
1523148297442078,-42,-11,6,34,5,1,1,-2
1523148297442078,-41,-5,-6,28,-18,2,4,6
1523148297443080,-3,3,-5,47,5,-3,0,-5
1523148297443080,-5,-18,11,101,12,-1,-2,-1
1523148297464741,-58,-9,4,-46,0,3,1,-5
1523148297464741,6,-1,-22,-75,-18,-1,-2,4
1523148297465235,-15,-13,0,-42,-10,-9,-6,5
1523148297465235,-8,5,11,101,27,5,3,-1
1523148297479774,-10,-18,-22,-128,-41,-12,-6,-4
1523148297479774,34,0,-4,-36,10,5,3,-1
1523148297480276,23,17,3,-11,-6,-5,-2,-5
1523148297480276,-5,-7,-10,-30,-4,0,0,-2
1523148297502334,29,4,1,89,10,-3,-2,-1
1523148297502334,-12,2,7,23,-2,2,1,-2
1523148297502837,-4,-4,-6,44,-3,-7,-2,3
1523148297502837,6,3,7,33,-1,-1,-1,-2
1523148297524485,-48,-15,-24,1,-14,-5,-3,-5
1523148297524485,25,6,24,45,20,5,1,-2
1523148297525484,-1,-13,-8,-48,-10,-2,-2,-1
1523148297525484,-7,1,-8,-24,-5,-1,-1,-4
1523148297539581,-10,-49,-4,8,2,-4,-2,1
1523148297539581,-3,2,-4,-40,-6,0,-1,4
1523148297540524,-19,-6,1,27,7,0,-3,-13
1523148297540524,19,-6,10,-40,-16,-9,-6,-5
1523148297562194,-20,18,9,-28,-5,1,2,-1
1523148297562194,-71,3,-8,3,2,4,6,6
1523148297562692,1,-11,12,50,12,1,-2,-9
1523148297562692,-12,6,3,-43,4,4,2,1
1523148297584503,3,8,-18,-5,-10,-7,-5,-5
1523148297584503,1,-4,-11,1,-4,2,0,0
1523148297585448,4,11,14,82,26,3,2,5
1523148297585448,0,-5,-8,-80,-18,0,1,-4
1523148297599544,10,2,-7,35,1,2,0,-3
1523148297599544,4,-11,-10,10,-5,-4,-2,7
1523148297600486,11,5,1,-2,0,0,1,4
1523148297600486,35,0,9,52,7,2,-2,-4
1523148297622093,-4,5,16,-23,-8,-1,0,0
1523148297622093,11,-2,-16,-29,1,-3,-4,-11
1523148297623046,-6,8,5,-9,-2,-1,2,6
1523148297623046,4,-10,-4,24,-2,-1,1,4
1523148297644604,29,11,-13,-24,-5,-2,1,5
1523148297644604,37,0,13,14,1,-1,-3,-12
1523148297645103,12,12,5,-44,-1,3,3,14
1523148297645103,-67,15,-12,9,0,-4,-6,-15
1523148297659644,-5,-1,-8,30,8,-2,-1,-1
1523148297659644,82,12,6,-10,-11,-3,-3,-5
1523148297660145,-66,-35,-24,-17,1,3,1,-3
1523148297660145,6,32,-1,1,-4,-4,-4,-8
1523148297682214,-23,-1,0,-11,-5,-1,-5,-69
1523148297682214,28,-6,-7,7,0,0,2,94
1523148297682704,-21,10,37,-26,-2,0,5,-5
1523148297682704,38,11,8,22,2,5,8,43
1523148297704414,-96,-11,-8,-18,-8,-6,-16,-58
1523148297704414,-67,-27,-9,-12,-1,-9,-19,-74
1523148297705370,44,-31,0,14,1,1,6,46
1523148297705370,0,9,34,20,7,1,6,1
1523148297719456,-18,-34,-30,-32,-13,-3,10,35
1523148297719456,-32,-13,0,10,3,-2,-11,4
1523148297720410,15,-5,-13,-12,-6,-8,-13,-22
1523148297720410,-46,-30,1,9,4,4,8,-40
1523148297741967,77,40,24,-3,3,7,7,113
1523148297741967,-18,4,31,12,5,4,4,-47
1523148297742970,-3,-10,-26,-14,-5,1,2,2
1523148297742970,0,-39,-15,1,-2,-4,-9,2
1523148297764644,-4,10,-6,-9,-3,-2,3,-29
1523148297764644,-1,21,20,16,8,3,8,14
1523148297765144,24,21,9,-2,4,-2,-3,7
1523148297765144,-35,-12,-18,-29,-1,-2,-9,-37
1523148297779726,45,-2,-4,20,-10,-3,-6,3
1523148297779726,5,18,13,19,-3,0,7,27
1523148297780184,31,-7,-11,-1,-4,-3,-3,-13
1523148297780184,22,12,-4,83,19,0,-9,-18
1523148297802242,2,-21,-14,-48,-30,-11,-9,-8
1523148297802242,4,1,0,18,6,-2,4,3
1523148297802747,-1,10,-1,3,0,6,3,0
1523148297802747,-15,8,25,98,39,6,-1,-8
1523148297824805,1,10,-19,-41,-27,-3,-2,9
1523148297824805,18,-1,-17,-11,-25,-10,-7,-11
1523148297825304,-20,-1,10,74,17,-2,-1,-3
1523148297825304,37,12,15,85,36,11,12,27
1523148297839402,-16,-7,-7,-15,-37,-2,-5,-9
1523148297839402,10,-1,-12,11,-6,-4,0,-9
1523148297840344,-3,7,1,-33,5,2,-3,-6
1523148297840344,10,-24,-45,-20,-30,-22,-16,1
1523148297861904,-4,22,29,76,36,5,1,0
1523148297861904,37,-7,0,18,3,0,-1,-11
1523148297862905,-7,-6,-31,-87,-33,-5,-5,-10
1523148297862905,24,2,4,-10,3,0,5,-4
1523148297884571,-12,-36,-4,-35,-10,3,-1,25
1523148297884571,58,-7,3,105,32,1,-2,1
1523148297892112,-12,18,21,61,10,-2,-1,-7
1523148297892112,11,-12,2,-21,-33,-2,-1,4
1523148297899672,40,25,-10,-39,3,0,5,0
1523148297899672,-15,-21,32,76,38,11,3,5
1523148297900116,-42,-13,-13,-22,-29,-12,-9,-11
1523148297900116,-20,-2,-16,-24,-7,-6,-5,7
1523148297921978,17,7,31,54,21,4,4,3
1523148297921978,-28,10,6,-63,-20,-2,0,-1
1523148297922978,33,10,4,55,10,0,-3,-4
1523148297922978,-12,-4,3,11,-5,-4,-4,-1
1523148297944557,-15,-7,-36,-60,-7,-7,-4,-9
1523148297944557,11,5,0,10,9,8,2,0
1523148297945539,-23,-16,-29,-48,-37,-12,-5,-8
1523148297945539,-67,-2,1,9,0,2,2,4
1523148297959576,24,10,-5,39,8,3,1,-5
1523148297959576,-14,-3,-13,30,-8,-5,-6,-8
1523148297960579,82,13,12,-7,15,4,2,22
1523148297960579,4,34,10,-17,0,5,3,7
1523148297982230,-4,2,27,118,19,0,-3,-9
1523148297982230,-24,0,-10,-106,-23,-3,0,-3
1523148297982732,-2,-13,-6,23,6,-1,0,-5
1523148297982732,6,32,15,75,19,4,2,1
1523148298004791,18,-21,-1,3,-8,-5,-3,1
1523148298004791,1,12,-6,21,0,-1,3,1
1523148298005289,-12,-6,-3,13,-3,-2,-3,-10
1523148298005289,48,9,2,30,5,2,1,14
1523148298019389,-40,2,13,-4,10,0,-3,-5
1523148298019389,11,-6,-30,-41,-17,-6,-3,-1
1523148298020329,-14,2,15,86,31,10,5,3
1523148298020329,20,-17,-21,-128,-31,-8,-4,-4
1523148298041981,-67,-5,-18,-66,-27,-11,-7,-8
1523148298041981,-15,-4,8,64,17,5,0,-6
1523148298042984,-23,-5,-6,-65,-21,-5,-4,-6
1523148298042984,33,-2,-1,27,-3,-3,-4,-3
1523148298064542,15,7,2,2,8,1,4,5
1523148298064542,-36,-1,-3,16,1,-1,-6,4
1523148298065546,-25,10,-4,-89,-5,-3,-1,0
1523148298065546,16,0,-1,-10,-5,-1,1,8
1523148298079080,5,-6,8,68,14,5,0,-9
1523148298079080,-17,-1,2,-26,-29,-8,1,-1
1523148298087227,16,-12,-18,75,10,-2,-1,-7
1523148298087227,-82,15,-9,-40,-14,-5,-3,7
1523148298102235,23,-7,23,50,17,2,1,4
1523148298102235,-7,5,3,-18,1,3,0,-4
1523148298102737,-4,1,1,-21,-10,-5,-4,0
1523148298102737,55,10,18,124,36,7,3,1
1523148298124425,-17,18,2,-52,-23,-1,2,-3
1523148298124425,-18,1,-3,34,-3,-3,-1,2
1523148298125380,-6,-9,1,23,-2,-1,0,1
1523148298125380,3,-21,-5,4,11,2,1,0
1523148298139058,6,2,19,13,-4,-5,-4,-5
1523148298139058,16,-8,-16,-61,-9,-2,-2,1
1523148298147032,15,-3,1,7,2,2,0,-4
1523148298147032,-22,-36,-17,-21,-8,-1,-3,-6
1523148298170312,-4,9,-5,-16,0,1,0,-8
1523148298170312,2,3,-6,-14,-7,-8,-2,7
1523148298171096,-14,-8,2,5,8,5,2,1
1523148298171096,-4,-52,3,-27,-7,1,-2,-10
1523148298184491,14,13,8,-8,-1,1,1,17
1523148298184491,-24,-27,-4,10,8,1,-4,-30
1523148298185637,40,31,-27,-1,-8,-4,2,22
1523148298185637,8,12,-31,-14,-7,-3,-1,-13
1523148298199168,-3,22,11,8,7,0,7,15
1523148298199168,-35,-13,40,2,4,0,-11,-17
1523148298207191,-101,-25,-26,-26,-25,-8,-9,-29
1523148298207191,98,-17,5,-8,-7,2,7,15
1523148298221996,-11,1,-17,17,4,-3,-7,0
1523148298221996,6,12,-11,-6,7,4,8,10
1523148298222999,15,2,12,-4,-8,0,-2,-29
1523148298222999,-78,-11,-10,-9,-5,-4,-1,88
1523148298244661,7,-57,-15,0,0,2,6,6
1523148298244661,56,27,-1,-11,-9,-3,-5,-18
1523148298245724,37,-9,19,2,9,3,1,27
1523148298245724,0,6,5,4,-10,-3,-8,-41
1523148298258606,9,3,-30,-20,-3,-2,0,-1
1523148298258606,24,16,-23,-9,-6,-1,6,29
1523148298267273,-6,-9,14,20,9,5,3,-17
1523148298267273,-8,10,-4,-23,-6,-7,-9,-22
1523148298282156,-38,-2,27,32,10,1,-2,-3
1523148298282156,29,-21,-3,-6,5,6,7,4
1523148298282659,-13,-17,-14,-4,7,1,1,6
1523148298282659,38,17,0,-37,-9,-2,1,25
1523148298304717,-6,-16,-21,73,18,3,-4,-18
1523148298304717,-21,8,0,-20,-11,3,-1,-1
1523148298305217,14,22,32,94,24,0,2,15
1523148298305217,-31,0,-19,-29,-21,-13,2,-21
1523148298318909,15,1,9,37,32,31,5,-4
1523148298318909,-1,4,13,9,-15,-14,-8,1
1523148298327275,-6,1,-20,-46,-22,-8,-9,-4
1523148298327275,0,5,7,-43,-9,-4,-4,-16
1523148298341814,26,6,16,50,11,-9,-6,-3
1523148298341814,-13,-12,-20,-82,-25,-4,0,3
1523148298342819,-38,2,32,52,18,-1,-4,-7
1523148298342819,-44,1,-7,40,-1,8,5,-7
1523148298364496,-14,-29,-10,-38,-10,-13,-7,0
1523148298364496,22,-38,-21,48,7,-1,-9,-14
1523148298365378,20,7,-6,-26,-33,-11,-6,20
1523148298365378,-2,-5,14,53,23,7,-3,-7
1523148298379069,3,12,-11,-66,-20,-14,-4,-7
1523148298379069,0,7,5,23,10,7,1,-5
1523148298387090,0,3,16,15,15,-2,3,-4
1523148298387090,-13,-22,-29,-42,-21,0,-4,-3
1523148298402130,-11,-7,-10,9,1,-5,-6,1
1523148298402130,-3,8,11,25,6,-4,3,-2
1523148298402978,9,-13,-16,16,13,13,4,2
1523148298402978,-20,4,18,-24,-4,-3,1,-1
1523148298424711,-7,6,-4,8,-13,-8,-4,-11
1523148298424711,-3,4,8,60,13,6,3,8
1523148298425212,2,11,-10,-40,-18,-8,-7,-6
1523148298425212,2,5,11,28,9,-3,-2,-1
1523148298447614,17,-2,11,48,-1,5,2,1
1523148298447614,-10,7,-19,5,0,-3,-1,3
1523148298448460,-53,-7,6,8,1,1,1,-4
1523148298448460,-3,22,7,50,6,1,-1,-5
1523148298462154,30,-59,-16,50,13,6,2,3
1523148298462154,-7,5,-15,-41,-9,-3,-2,1
1523148298463122,-2,1,10,-63,-10,-3,-1,-6
1523148298463122,49,2,-17,20,2,-2,-4,-2
1523148298484388,-17,25,0,49,10,5,4,1
1523148298484388,-13,-5,-3,-58,-13,-7,-2,1
1523148298485233,50,-12,-11,17,2,1,1,0
1523148298485233,8,13,14,51,13,2,0,2
1523148298507792,-1,19,-16,-51,-15,-6,-3,0
1523148298507792,10,-1,-3,-24,-1,1,1,-3
1523148298508295,9,13,1,18,1,-1,-1,0
1523148298508295,-11,3,30,52,28,4,4,-3
1523148298522332,-25,-14,-13,-51,-38,-8,-4,-4
1523148298522332,5,14,5,38,8,-4,-3,19
1523148298522833,27,9,4,103,12,5,2,-1
1523148298522833,-33,-9,-12,-70,-13,-6,-6,-15
1523148298544390,-11,-3,8,-18,4,1,1,13
1523148298544390,-26,15,-4,31,4,1,3,1
1523148298545393,19,26,13,26,17,4,1,3
1523148298545393,-10,-19,-27,-90,-34,-8,-5,0
1523148298567960,10,4,2,-27,-11,-6,-1,-3
1523148298567960,12,-13,16,17,4,0,1,-7
1523148298568454,-8,5,0,32,5,1,-1,3
1523148298568454,-1,-5,-1,-8,-21,-2,1,-4
1523148298582303,-12,11,-25,62,0,0,-1,0
1523148298582303,-8,-7,3,96,13,5,5,1
1523148298582670,-51,-20,4,-34,-20,-5,-3,-11
1523148298582670,5,-2,12,22,11,2,-1,-3
1523148298604495,7,-3,10,-37,0,0,-1,-5
1523148298604495,-4,-1,-6,-38,-12,-3,-2,-3
1523148298605408,5,3,-1,-15,5,1,-1,-8
1523148298605408,-4,9,0,-4,2,-1,0,14
1523148298635488,-4,-2,-3,5,5,1,1,-2
1523148298635488,1,1,-3,-12,-3,-3,-5,-7
1523148298635989,17,0,-5,-14,-13,-9,-5,2
1523148298635989,28,13,-11,13,0,0,1,2
1523148298642006,9,6,3,-26,-3,2,0,-6
1523148298642006,-33,22,30,-7,-4,-3,-5,-8
1523148298643152,-5,-15,-11,-8,-1,2,5,5
1523148298643152,3,-2,-6,15,-4,-3,-4,5
1523148298664750,5,8,14,9,9,2,2,-8
1523148298664750,-11,-9,7,7,4,3,4,2
1523148298665253,-2,-3,-14,-3,-5,-3,-3,-17
1523148298665253,-4,-12,-12,-18,-11,-9,-7,-24
1523148298687087,-8,-20,-12,-1,-2,-1,3,36
1523148298687087,-24,2,9,1,-11,-11,-17,-15
1523148298694507,-19,-2,16,-7,5,6,12,-20
1523148298694507,2,17,57,31,21,11,8,29
1523148298702182,-64,16,-20,-6,-13,-8,-16,-49
1523148298702182,53,-23,-27,-12,-11,-11,-12,-3
1523148298703146,-13,14,-10,6,0,0,1,7
1523148298703146,27,-5,-23,11,-3,0,6,17
1523148298724763,-12,6,29,4,5,5,11,22
1523148298724763,-41,21,23,-5,1,4,6,-18
1523148298725266,59,-12,7,-23,-9,-7,-15,0
1523148298725266,0,-42,15,41,7,1,1,7
1523148298747978,-4,-2,2,-31,-5,-3,-3,-14
1523148298747978,20,-5,11,44,3,-2,0,9
1523148298748327,-34,-23,-6,-64,-10,-1,-2,0
1523148298748327,-8,5,-30,-18,-10,-4,-4,-43
1523148298762043,-11,-19,6,67,2,-3,0,67
1523148298762043,14,-2,-16,-27,-1,0,3,-3
1523148298762544,17,14,16,48,17,1,-5,8
1523148298762544,-23,2,-3,-32,-30,-16,-3,-16
1523148298784762,0,-12,-21,-42,2,11,-1,-25
1523148298784762,19,2,-36,-78,-25,-7,0,11
1523148298785606,-5,4,-8,49,6,0,0,12
1523148298785606,-11,-33,6,99,12,3,-3,-6
1523148298807664,22,-3,19,42,13,-7,0,-11
1523148298807664,-7,-8,-26,-55,-32,-7,-4,6
1523148298808668,2,-5,-7,86,-7,-2,-1,-7
1523148298808668,4,7,7,1,21,9,7,8
1523148298822321,17,13,0,-43,-21,-3,-5,-7
1523148298822321,10,-19,1,36,18,7,-3,-15
1523148298822703,-9,22,15,79,25,5,3,5
1523148298822703,-9,11,-8,-16,-19,-9,-5,3
1523148298844466,11,-2,-8,99,22,-2,-2,-2
1523148298844466,-3,-7,0,-17,0,6,3,2
1523148298845265,-3,17,-1,-6,9,-3,4,4
1523148298845265,7,0,16,32,21,6,1,5
1523148298868012,-40,-30,-18,-63,-27,-8,-3,-14
1523148298868012,-5,7,28,50,18,-3,-2,0
1523148298868326,41,-22,-13,-69,-41,-15,-2,2
1523148298868326,-7,14,4,52,16,15,0,-2
1523148298882874,9,12,-3,-26,-12,-2,1,2
1523148298882874,10,10,20,58,32,5,13,7
1523148298883140,30,-20,-26,-111,-48,-7,-19,3
1523148298883140,8,14,14,40,21,2,0,-4
1523148298904698,14,4,-20,16,-32,-15,-6,-6
1523148298904698,-4,7,34,116,32,9,7,6
1523148298905202,-20,10,-18,-27,-25,-11,-5,-17
1523148298905202,-7,-1,-2,17,1,-2,-2,1
1523148298927774,-3,20,51,91,47,15,6,2
1523148298927774,-11,-9,-76,-105,-55,-16,-7,-14
1523148298928804,-6,6,13,36,17,-1,-2,3
1523148298928804,-14,-46,-15,-8,-16,0,0,-1
1523148298941841,11,-6,13,-13,-2,1,3,-2
1523148298941841,35,7,-8,35,-9,-3,-3,-12
1523148298942844,0,-29,14,12,20,5,3,31
1523148298942844,33,21,-2,-75,-18,-11,-6,14
1523148298964406,4,-5,12,13,17,4,2,-4
1523148298964406,3,-9,2,-10,0,-1,-8,1
1523148298965404,0,1,-11,-28,-4,2,3,-15
1523148298965404,18,14,0,-36,3,-1,-1,-9
1523148298987965,-17,1,-8,-19,-9,-1,0,9
1523148298987965,-19,-3,2,19,3,-1,0,-1
1523148298988472,-8,14,34,-11,8,-1,0,-12
1523148298988472,-35,-13,-22,102,-1,-5,-4,-13
1523148299002068,10,3,-30,-24,-13,-6,-5,-5
1523148299002068,-27,-21,-3,14,4,1,2,5
1523148299003002,-36,3,11,60,15,4,3,3
1523148299003002,3,2,35,95,55,12,6,4
1523148299024708,-4,-21,-44,-76,-68,-19,-10,-17
1523148299024708,5,4,21,98,16,3,0,14
1523148299025209,-11,-30,-24,15,-11,-3,-1,9
1523148299025209,-20,3,8,34,10,0,-3,-7
1523148299047875,1,8,2,-14,-5,0,0,-3
1523148299047875,-3,2,6,-97,-18,-3,0,-1
1523148299048271,-7,1,2,7,0,-2,0,0
1523148299048271,3,8,-16,-61,-25,-7,-3,-13
1523148299061305,9,3,26,52,33,9,3,14
1523148299061305,-21,-3,-24,-17,-20,-9,-7,-3
1523148299069435,-3,2,1,69,11,4,1,-7
1523148299069435,18,10,-13,-128,-27,-4,1,6
1523148299084630,15,28,31,50,10,2,2,3
1523148299084630,41,9,7,28,1,6,1,-3
1523148299085130,-18,0,-5,-11,-25,-6,-5,-10
1523148299085130,-9,-5,-36,66,2,-2,-1,16
1523148299107692,34,55,8,-8,8,2,3,6
1523148299107692,-14,-15,-17,0,9,2,-4,-29
1523148299108694,8,12,15,5,10,3,2,2
1523148299108694,-8,-14,12,-68,-27,-9,-5,-28
1523148299121332,-19,-10,3,63,22,4,4,32
1523148299121332,5,3,-13,-68,-20,-9,-7,1
1523148299129774,-12,37,-4,4,5,-1,-4,4
1523148299129774,-43,-18,-17,-25,-4,-1,-3,-10
1523148299144301,-53,-23,-1,21,9,1,-2,-12
1523148299144301,22,-1,29,28,12,3,3,-2
1523148299145305,-47,-7,-25,-24,-8,-4,-4,-13
1523148299145305,-2,-33,-14,7,-20,-2,-2,17
1523148299167863,22,-24,0,54,12,0,0,-13
1523148299167863,-21,22,-1,31,8,1,4,5
1523148299168363,43,25,14,-31,-10,0,-2,20
1523148299168363,-3,-13,-6,-12,3,0,-1,0
1523148299181506,-14,-6,-24,62,-11,-5,-9,-48
1523148299181506,-63,29,21,62,16,5,5,23
1523148299189524,56,51,12,37,12,1,1,20
1523148299189524,-28,-45,-8,23,11,-1,-7,-79
1523148299204494,88,5,11,-67,-9,-4,-4,35
1523148299204494,-66,5,3,-19,2,1,-1,-3
1523148299205495,-22,-70,-55,14,2,9,18,4
1523148299205495,38,31,1,3,-2,-2,-3,-1
1523148299227661,-45,13,13,-21,1,1,6,-2
1523148299227661,4,10,22,12,-8,-6,-5,3
1523148299228558,3,36,39,-16,8,4,-6,23
1523148299228558,-21,-19,-44,-5,-32,-7,-15,-1
1523148299250220,-20,-6,-32,-8,0,-4,-3,-31
1523148299250220,-23,21,10,12,10,10,16,41
1523148299251118,80,15,30,-5,-1,2,6,-12
1523148299251118,-22,7,30,0,7,0,3,27
1523148299264795,-98,-40,-11,-7,4,-7,-17,-37
1523148299264795,86,-20,-22,-16,-13,-6,-5,-2
1523148299265296,2,-23,-29,-5,-5,-6,-3,27
1523148299265296,20,31,35,19,4,1,4,13
1523148299287963,10,3,-3,-16,-3,5,3,8
1523148299287963,1,-10,-1,1,1,-2,-5,-19
1523148299288358,1,-31,-25,39,19,7,8,-2
1523148299288358,18,9,-8,6,-21,-10,1,14
1523148299301500,-6,7,24,-25,10,5,1,3
1523148299301500,16,-19,-5,-6,-24,-6,-6,-9
1523148299309521,6,-4,-7,-5,5,-8,-6,-16
1523148299309521,-65,0,8,6,17,5,1,-2
1523148299324616,21,9,1,52,-12,-2,-1,7
1523148299324616,14,-65,-12,100,7,-6,-8,-6
1523148299325117,6,8,0,74,10,1,-1,-13
1523148299325117,9,8,13,108,31,4,3,3
1523148299347451,25,-1,-7,5,-32,-23,-3,11
1523148299347451,0,5,5,71,21,31,11,4
1523148299348452,-37,-19,-20,-63,-31,-16,-13,-28
1523148299348452,35,3,15,9,35,6,0,8
1523148299370510,21,13,20,-50,-6,4,3,13
1523148299370510,-22,0,-30,-94,-51,-27,-17,-19
1523148299371012,18,-48,-1,38,-1,-1,0,-6
1523148299371012,13,48,25,45,26,8,4,7
1523148299384745,-14,-22,-51,-83,-76,-19,-11,-6
1523148299384745,14,10,5,73,20,4,4,-7
1523148299385234,-42,-11,13,30,9,4,0,-21
1523148299385234,1,-9,-24,-33,-21,-1,2,13
1523148299407947,-3,54,32,44,45,8,4,0
1523148299407947,26,-35,9,-33,11,4,6,48
1523148299408447,-17,30,-2,11,2,-1,-5,-16
1523148299408447,6,-6,3,-52,-32,-5,0,0
1523148299430110,-7,-1,-13,59,18,8,-2,3
1523148299430110,2,11,-2,72,12,-3,1,-12
1523148299431006,-20,-4,-6,11,-17,-2,-2,1
1523148299431006,-5,0,-1,37,-1,-4,-2,4
1523148299444544,15,9,20,78,25,9,4,-3
1523148299444544,-4,2,-15,-81,-33,-19,-9,-12
1523148299445571,40,-6,4,2,-4,0,-5,3
1523148299445571,-17,-9,0,18,5,2,3,-3
1523148299467714,27,23,14,-8,-11,-11,-9,-7
1523148299467714,8,1,-9,9,5,2,-2,-2
1523148299468607,-30,2,10,34,13,3,-1,1
1523148299468607,-3,38,-3,-106,-28,-8,-2,-3
1523148299490162,27,0,17,0,22,8,4,8
1523148299490162,-20,2,-11,-15,1,0,-2,-6
1523148299491167,-10,-5,-4,-55,-18,-6,-6,-10
1523148299491167,9,-4,-6,65,21,5,0,3
1523148299504703,-9,-22,-9,16,-17,-1,1,5
1523148299504703,-36,11,-9,-3,-2,-2,-4,-22
1523148299505204,-4,0,5,-22,4,0,6,24
1523148299505204,6,-6,-5,14,-9,-4,-5,-5
1523148299527938,-6,-30,-3,-12,-10,-6,-8,-6
1523148299527938,32,-10,6,17,11,3,4,9
1523148299528439,-36,-16,-13,-62,-13,0,2,-5
1523148299528439,-8,-1,4,4,-1,-2,-1,7
1523148299550410,-11,-24,-15,19,2,5,5,0
1523148299550410,4,-13,8,73,5,1,0,-7
1523148299551300,1,35,6,80,8,2,7,12
1523148299551300,63,4,-2,27,-2,-1,-5,21
1523148299564484,-38,-5,7,-10,2,2,1,-6
1523148299564484,-10,0,-19,-24,7,0,-4,-10
1523148299565486,-8,14,3,9,1,4,3,-38
1523148299565486,12,7,-12,-31,-18,-7,-4,0
1523148299587654,41,14,0,17,19,4,3,18
1523148299587654,-6,-13,5,-7,-6,-2,0,1
1523148299588547,-25,5,4,-16,0,0,-2,-20
1523148299588547,-34,-20,-21,-11,-10,-1,3,2
1523148299610359,-34,13,2,-12,2,-2,-5,-10
1523148299610359,55,37,23,-22,-9,-4,2,12
1523148299610755,82,-18,4,-4,-3,-3,-8,7
1523148299610755,-73,23,5,-1,1,-3,-6,-51
1523148299624294,23,-47,-31,-9,-2,-2,-5,42
1523148299624294,19,16,-7,-15,-1,2,5,-4
1523148299625294,-4,-5,-14,1,-3,-6,-10,5
1523148299625294,29,-8,26,11,10,6,4,9
1523148299647629,14,-21,-22,-1,-10,0,14,7
1523148299647629,21,36,29,5,15,8,2,13
1523148299648632,-101,-60,-41,-24,-19,-14,-19,-34
1523148299648632,-14,-18,-4,24,10,4,-2,-35
1523148299670296,5,-5,-10,-7,1,-2,-1,-4
1523148299670296,22,5,25,-2,1,6,11,30
1523148299671191,50,5,-11,0,-2,1,7,19
1523148299671191,-21,-16,-5,-16,-5,-4,-5,8
1523148299684759,-6,15,16,9,10,5,8,-14
1523148299684759,37,48,-9,-15,-15,-9,-15,18
1523148299685228,36,-18,-17,1,2,3,10,15
1523148299685228,-1,39,-27,-9,-4,-5,-6,-14
1523148299707416,16,-20,-1,10,6,0,1,-2
1523148299707416,-78,-32,-19,12,-9,-12,-18,9
1523148299708418,17,17,16,-39,-8,-2,-1,0
1523148299708418,0,-6,-10,3,4,0,1,11
1523148299730112,-36,-12,-25,0,-2,-6,-11,-22
1523148299730112,-50,-26,-14,-31,-7,-1,-5,-38
1523148299731012,6,11,20,33,9,5,6,17
1523148299731012,31,-7,2,10,-1,1,5,17
1523148299744685,3,15,13,6,3,2,0,0
1523148299744685,-10,-24,-5,-29,-8,-7,-2,-12
1523148299745187,-21,20,0,12,3,-1,-6,-5
1523148299745187,-12,-22,-4,-31,2,-2,2,-5
1523148299766848,-23,1,15,-18,-8,-1,-6,-6
1523148299766848,7,5,-30,23,-6,-1,5,13
1523148299774765,1,9,16,3,4,-1,-5,-17
1523148299774765,10,0,-22,105,10,1,0,28
1523148299790444,8,18,-3,8,-16,-7,-8,-3
1523148299790444,0,-8,3,44,18,3,4,-11
1523148299790943,-6,-8,10,-128,-12,-5,0,2
1523148299790943,-9,-19,-19,30,-10,-2,0,-5
1523148299804623,27,10,15,-14,7,3,0,2
1523148299804623,-57,-8,-22,-1,1,-1,-5,-16
1523148299805123,-9,-29,-1,30,17,1,0,3
1523148299805123,-5,18,13,-69,-2,2,3,3
1523148299827695,39,-5,-25,-14,-34,-13,-8,0
1523148299827695,-20,4,10,-26,-2,-4,0,-14
1523148299828185,3,26,26,-5,-12,-2,-5,2
1523148299828185,1,-4,13,30,-5,-4,-1,1
1523148299850347,-13,-5,4,-6,12,3,0,-5
1523148299850347,1,-3,16,38,28,9,5,1
1523148299850746,-16,-1,-41,-50,-50,-15,-7,-3
1523148299850746,12,3,9,17,1,2,3,-2
1523148299864519,-2,4,69,-47,-2,2,3,-7
1523148299864519,-1,21,-26,8,-3,-1,-2,8
1523148299865420,-14,-17,13,41,15,4,1,-1
1523148299865420,57,-3,9,-4,8,4,6,13
1523148299887588,-38,-3,-51,-23,-2,-2,-8,-14
1523148299887588,9,-8,29,-34,1,-1,0,-7
1523148299888483,6,6,-3,37,-10,-1,-2,1
1523148299888483,5,-13,-4,-73,-15,-1,0,-1
1523148299910435,-5,19,-19,70,22,6,3,5
1523148299910435,3,-2,-14,-71,-18,-6,-3,-7
1523148299910830,-23,0,-20,60,13,4,3,-2
1523148299910830,18,6,35,-14,8,0,-2,-6
1523148299924366,1,-3,-45,-3,-21,-9,-3,0
1523148299924366,5,-16,27,33,10,3,-2,-4
1523148299925371,18,-3,3,23,10,0,0,-2
1523148299925371,8,-9,-32,8,2,1,-2,-1
1523148299947929,-4,4,8,10,4,2,-1,-10
1523148299947929,10,0,-17,37,2,1,5,9
1523148299948431,13,85,11,-3,9,-2,-4,-3
1523148299948431,-16,-7,12,-13,-11,-6,-7,-7
1523148299970225,10,3,9,-35,13,2,4,11
1523148299970225,0,-20,13,-60,-19,-7,-3,-7
1523148299971123,-23,-5,0,14,1,-2,-3,-6
1523148299971123,-35,-4,10,10,8,4,5,3
1523148299983656,22,3,-17,-12,-9,-4,-1,-7
1523148299983656,-15,8,4,15,0,0,-2,4
1523148299992179,-8,-19,-8,-37,-4,-2,-1,-1
1523148299992179,-5,-9,-25,-39,3,0,3,-9
1523148300007781,-16,-22,11,3,-2,-2,-7,14
1523148300007781,63,8,11,1,2,2,6,9
1523148300008281,19,-8,4,6,-6,0,-2,9
1523148300008281,-50,-2,8,33,3,-2,-9,-6
1523148300030486,34,22,19,21,3,3,14,9
1523148300030486,-22,-50,-15,9,-4,0,-3,-17
1523148300030987,-31,-63,-12,0,12,1,-7,-5
1523148300030987,54,24,3,-2,-4,1,12,6
1523148300052648,8,-32,1,-4,-14,-6,-7,43
1523148300052648,-3,-5,24,25,8,2,-1,-14
1523148300053547,72,-1,29,19,17,9,15,18
1523148300053547,12,-22,-19,4,-21,-5,-3,-16
1523148300067691,-64,-12,-13,11,-4,-8,-11,-15
1523148300067691,-41,25,-5,6,-4,-5,-11,-29
1523148300068588,-50,10,31,14,-1,-1,9,22
1523148300068588,30,3,13,3,-2,0,-9,-1
1523148300090401,39,7,9,17,6,5,10,10
1523148300090401,-15,11,-34,-25,-9,-3,-4,-1
1523148300090901,4,44,-9,-13,-1,-3,-2,-19
1523148300090901,-16,12,18,-10,-8,-7,-5,-3
1523148300112735,-36,-41,-1,4,2,3,3,-11
1523148300112735,-3,5,-4,16,7,2,-3,0
1523148300114237,13,9,-18,12,-4,-4,0,3
1523148300114237,-26,-3,24,42,15,2,-1,1
1523148300126771,-8,13,-6,-23,-17,-9,-12,-24
1523148300126771,34,-4,-4,21,-7,-3,5,9
1523148300135294,-20,-14,17,87,34,12,2,-2
1523148300135294,-25,-17,-44,-89,-52,-24,-11,-6
1523148300150334,3,9,18,62,23,18,4,-11
1523148300150334,-4,-7,-27,-58,-46,-9,0,10
1523148300151838,-10,-4,5,62,14,-4,-9,-12
1523148300151838,-1,4,4,44,29,-2,-1,0
1523148300163871,4,6,-26,-28,-56,-10,2,-1
1523148300163871,17,-11,-8,14,17,5,-3,2
1523148300172894,13,17,39,78,35,20,6,1
1523148300172894,-7,-30,-44,-100,-56,-23,-9,-3
1523148300187678,51,11,11,53,32,3,4,8
1523148300187678,-3,5,25,55,24,2,-1,5
1523148300189439,-18,1,-21,-48,-26,-2,2,-7
1523148300189439,11,-16,40,127,26,9,3,3
1523148300210498,-25,-21,-10,-8,3,-4,0,-2
1523148300210498,-66,-52,-4,-6,-1,1,1,0
1523148300211765,18,11,-9,-74,-13,-10,-11,-9
1523148300211765,12,22,-2,-2,9,8,7,9
1523148300223797,-1,4,1,-28,-4,0,-4,-2
1523148300223797,24,-5,7,12,15,3,1,-4
1523148300232822,4,-8,-28,-69,-18,-9,-6,-5
1523148300232822,-3,-9,-4,-16,10,5,-1,-6
1523148300246594,-31,1,18,14,1,-1,-1,-24
1523148300246594,28,20,-6,3,7,1,3,10
1523148300255381,-1,-13,-19,23,-5,-6,-4,-2
1523148300255381,3,6,-13,4,-3,2,-1,-6
1523148300270584,28,20,16,-24,7,2,3,12
1523148300270584,12,23,9,19,-1,-3,-6,-5
1523148300271925,-30,-60,-27,20,-17,-8,-3,-4
1523148300271925,48,24,23,45,19,7,6,18
1523148300284194,-1,3,3,42,10,2,3,10
1523148300284194,-65,-17,-12,-2,-11,-5,-8,-31
1523148300292983,30,15,18,43,19,0,0,4
1523148300292983,-15,-1,-18,-38,-17,-3,-5,-2
1523148300307019,6,1,-17,-74,-25,-9,-1,9
1523148300307019,33,7,4,20,-7,0,4,9
1523148300314109,-33,-49,6,4,5,6,3,-6
1523148300314109,9,26,8,31,8,-3,-6,-2
1523148300330316,-8,-27,1,4,-2,-2,-2,-4
1523148300330316,12,26,-1,-26,6,4,4,11
1523148300332202,15,26,15,98,19,3,2,0
1523148300332202,-7,-11,-43,-80,-53,-16,-8,-6
1523148300353105,-8,-12,4,85,19,0,-5,-34
1523148300353105,1,22,4,39,6,2,3,20
1523148300354405,12,5,13,-4,7,5,2,5
1523148300354405,-5,9,-11,-78,-21,-2,-4,-5
1523148300368070,20,6,-3,14,4,0,1,0
1523148300368070,-34,-19,-12,4,2,-3,0,-11
1523148300369679,32,15,4,-27,-10,0,-1,6
1523148300369679,-81,-19,13,-14,-4,-3,-2,-8
1523148300390151,-16,-4,0,-8,0,-2,-3,-2
1523148300390151,5,-15,8,-43,0,3,2,2
1523148300391656,-4,10,-15,-72,-24,-6,-3,2
1523148300391656,19,-1,17,75,28,7,4,0
1523148300412907,-12,-1,4,11,1,-2,-3,1
1523148300412907,4,11,-11,4,-4,-2,-3,-2
1523148300414217,14,30,-18,-95,-34,-12,-4,-6
1523148300414217,52,-3,5,43,23,7,3,6
1523148300427947,-8,7,-4,32,-9,0,0,2
1523148300427947,17,-10,-8,-28,-13,-7,-4,-2
1523148300429256,-15,-6,-9,-1,0,-1,-1,-2
1523148300429256,-8,-1,3,19,9,2,2,-3
1523148300450509,2,18,18,45,13,1,0,4
1523148300450509,10,-37,-2,-2,-7,-4,-1,-2
1523148300451816,50,-12,-16,14,-3,-2,2,5
1523148300451816,-6,14,16,66,13,2,2,-5
1523148300472870,-8,-10,-6,34,4,2,-4,4
1523148300472870,-33,12,6,-32,-11,-3,-3,-5
1523148300474375,-18,-4,0,-20,-6,-3,0,-3
1523148300474375,-11,-19,-4,-18,5,0,-3,-1
1523148300487117,-10,-9,-6,-10,4,2,2,1
1523148300487117,1,0,13,-20,-3,-2,1,-1
1523148300494123,-13,-11,-15,11,-19,-9,-4,-2
1523148300494123,-6,8,5,14,10,2,0,-1
1523148300510382,5,5,-7,-43,-5,-1,0,-3
1523148300510382,2,6,3,51,6,0,1,0
1523148300511690,-25,-30,1,16,9,3,1,-2
1523148300511690,-11,4,-2,-8,-8,-5,-3,-4
1523148300532946,1,1,1,-23,-6,-3,-2,-1
1523148300532946,23,-4,-14,14,3,-1,-1,3
1523148300534251,-25,5,3,-3,-1,-3,-3,-3
1523148300534251,14,-4,-6,-59,-11,-1,-2,1
1523148300547285,10,21,4,41,11,0,1,-3
1523148300547285,1,-23,-8,7,0,1,0,-3
1523148300553998,-12,17,8,-13,-5,-4,-7,-2
1523148300553998,-35,-19,-13,7,-3,3,2,3
1523148300570544,14,-13,-21,-14,-12,-6,-6,-17
1523148300570544,-61,33,18,6,10,-3,-4,21
1523148300571857,32,-2,-16,-2,1,5,5,-18
1523148300571857,-6,-11,10,13,7,2,4,33
1523148300592959,-5,-15,-23,-38,-16,-9,-12,-10
1523148300592959,-27,13,-10,12,-7,-6,-6,-31
1523148300594412,-40,-10,-6,0,1,-3,-10,42
1523148300594412,77,16,-15,-2,-8,3,5,8
1523148300606943,-30,43,13,-22,-3,3,8,7
1523148300606943,-37,-24,-7,-9,-16,-3,-6,-11
1523148300614159,-22,-15,-2,23,18,1,3,-26
1523148300614159,-106,-1,10,-7,13,4,4,-24
1523148300630200,109,43,23,-1,-13,-10,-20,50
1523148300630200,3,4,9,-13,-27,-2,6,1
1523148300632190,-35,16,8,-28,-16,-7,-7,-11
1523148300632190,-18,-76,-73,38,17,1,-3,-18
1523148300652983,-38,-30,-2,8,12,4,8,-17
1523148300652983,37,20,11,26,11,7,5,22
1523148300654763,-68,-16,-12,-47,-18,-3,-4,-12
1523148300654763,25,27,16,19,-3,0,-9,-14
1523148300667832,-36,11,1,11,-2,-5,1,-6
1523148300667832,55,-7,3,47,9,3,2,0
1523148300673765,27,8,7,17,-2,-10,2,16
1523148300673765,18,11,10,-36,3,6,2,4
1523148300690308,-19,-14,1,20,-2,1,0,-3
1523148300690308,3,-8,-31,-76,-27,-9,-4,-3
1523148300691814,20,13,11,42,22,7,3,-1
1523148300691814,-7,18,27,33,3,-5,0,10
1523148300712563,-5,-26,-21,1,-4,1,-2,-9
1523148300712563,-14,-14,0,82,11,2,-7,-11
1523148300714067,7,-5,-9,-36,-14,-3,9,0
1523148300714067,-44,-25,-2,-41,-7,-9,-13,-5
1523148300727309,2,6,6,-54,-25,1,6,3
1523148300727309,-59,-14,-8,53,8,-1,0,-6
1523148300733986,-29,-2,19,66,16,0,-3,-16
1523148300733986,68,30,18,72,3,5,7,13
1523148300750474,-21,0,2,-9,12,2,-1,-10
1523148300750474,1,1,-10,-23,-13,-6,-4,-1
1523148300752036,22,0,-5,-26,-26,-3,-2,-7
1523148300752036,-9,15,11,82,36,4,4,1
1523148300772926,-1,-25,-16,-72,2,2,1,-2
1523148300772926,38,5,-4,36,-3,-3,-1,-2
1523148300774430,16,3,21,10,20,11,3,10
1523148300774430,7,2,-12,14,-37,-17,-10,-7
1523148300787124,17,-8,25,44,9,-6,0,1
1523148300787124,55,9,6,27,16,15,5,3
1523148300794125,19,-55,-13,-40,-8,-8,-7,1
1523148300794125,-8,5,14,6,2,4,0,1
1523148300810525,1,-1,8,85,12,6,4,-3
1523148300810525,-16,-2,-4,-16,-8,-7,-3,-16
1523148300812030,20,29,-4,114,21,3,0,34
1523148300812030,61,-29,-18,23,2,2,0,12
1523148300832741,-69,-29,1,-70,-10,-8,-5,-11
1523148300832741,-16,2,9,-15,6,1,1,6
1523148300834089,-20,-10,-11,-23,0,5,3,-24
1523148300834089,-27,37,-3,-49,-9,-7,2,16
1523148300846627,12,3,-28,48,20,7,0,2
1523148300846627,-6,2,13,22,9,4,1,3
1523148300855321,-8,-8,-44,-26,-29,-10,-7,-12
1523148300855321,2,0,1,-43,-15,-4,-3,-2
1523148300870494,2,5,11,39,1,1,2,2
1523148300870494,1,6,-7,-16,4,1,1,1
1523148300871865,24,-3,4,-1,-5,-1,1,10
1523148300871865,-23,0,-5,-65,-13,-4,-2,-5
1523148300892974,18,4,3,-19,2,0,-2,2
1523148300892974,-36,-7,11,48,7,-5,-6,-16
1523148300894426,15,25,17,33,19,4,2,7
1523148300894426,-38,-40,-7,-39,-15,-5,-1,-4
1523148300906457,13,-1,5,-1,-4,1,2,6
1523148300906457,4,-3,-8,-12,-3,1,0,2
1523148300915481,-19,15,21,33,20,6,-2,-17
1523148300915481,2,-6,-14,24,-20,-11,-8,-13
1523148300930175,-19,21,12,58,5,-1,3,4
1523148300930175,74,35,19,5,0,2,2,25
1523148300932151,11,-2,24,33,8,5,2,1
1523148300932151,0,-5,1,-89,13,0,-3,-7
1523148300952744,-24,12,-13,-3,-3,-4,-1,6
1523148300952744,1,7,5,47,15,3,-1,-1
1523148300954083,-21,-11,-29,-116,-58,-11,-6,-12
1523148300954083,41,3,11,121,12,5,-1,-1
1523148300966508,9,2,3,-31,-23,-7,-5,-9
1523148300966508,24,-3,-6,-3,5,-2,-2,7
1523148300975424,-54,-26,-13,-8,-13,-4,-3,-5
1523148300975424,15,10,0,18,7,4,3,-8
1523148300990163,13,21,-6,-40,4,0,-3,-2
1523148300990163,-16,-25,-2,-14,-12,3,6,2
1523148300991643,16,21,16,90,33,6,3,9
1523148300991643,-10,4,-16,-96,-35,-13,-6,-7
1523148301012700,4,-3,-4,90,12,4,-1,-12
1523148301012700,-3,-9,1,-21,-12,-6,-3,9
1523148301014257,-3,11,-4,33,9,-1,-5,-15
1523148301014257,-9,8,18,-9,9,3,0,1
1523148301026444,29,-7,12,-5,-7,-3,-3,-2
1523148301026444,-1,-8,-15,9,7,-1,0,-3
1523148301035492,49,2,-2,1,0,1,4,14
1523148301035492,-9,5,12,49,-1,0,-3,-4
1523148301050189,-12,-8,-7,-12,-17,-5,-3,-1
1523148301050189,-15,18,26,20,5,2,0,-3
1523148301052101,35,0,-22,-81,-9,-11,-8,0
1523148301052101,2,-9,-1,31,-3,2,3,-1
1523148301072590,-7,-2,-11,40,6,1,2,5
1523148301072590,-70,-28,-9,-16,0,-3,-5,-8
1523148301074094,73,4,4,-25,-9,0,2,2
1523148301074094,9,4,12,36,10,1,2,3
1523148301086629,0,-12,-10,-44,-2,-1,-2,-1
1523148301086629,-3,-15,-34,-110,-20,-6,-3,-8
1523148301095154,-17,-12,-10,12,-6,-2,1,1
1523148301095154,41,-13,-4,-5,2,-4,-3,-14
1523148301110471,-2,5,15,28,-1,-3,-4,4
1523148301110471,23,15,-10,-2,0,-4,-1,-5
1523148301111894,12,-8,9,7,1,0,1,-9
1523148301111894,7,26,-7,-14,-10,-4,-2,13
1523148301133025,18,32,0,-9,-1,-7,-4,-14
1523148301133025,14,16,5,8,-3,-3,-5,6
1523148301134455,-43,2,-8,-19,-11,-2,3,9
1523148301134455,-7,-4,7,1,7,4,3,-11
1523148301146497,74,63,21,-3,11,2,6,47
1523148301146497,-3,-35,20,4,0,4,-1,-21
1523148301155191,-14,50,50,31,13,3,1,13
1523148301155191,-37,-48,-35,-11,-3,-5,-8,-6
1523148301170386,-66,-31,-2,7,-21,-4,-2,-38
1523148301170386,-8,4,32,21,23,3,13,51
1523148301171735,28,14,-15,-4,-4,-3,-20,-19
1523148301171735,45,-19,9,16,5,2,5,19
1523148301193251,-48,-56,-44,-12,5,-5,-5,-17
1523148301193251,-32,10,-2,9,-5,0,-4,-32
1523148301194549,5,20,14,4,-9,-4,0,-7
1523148301194549,3,31,4,-2,3,5,5,21
1523148301206340,45,-24,15,41,16,2,1,-1
1523148301206340,-32,23,-19,-113,-13,-10,-9,-5
1523148301215364,2,-3,-13,5,5,1,3,4
1523148301215364,-12,1,11,29,22,5,1,-15
1523148301230136,-20,-10,7,32,-13,-2,2,8
1523148301230136,55,11,-19,22,-10,-2,-4,-14
1523148301231908,1,-32,-4,19,0,0,3,-3
1523148301231908,-13,-2,-15,-76,-10,-2,-3,1
1523148301252714,-9,-21,0,-6,-1,0,-4,1
1523148301252714,0,0,7,16,8,-3,1,-13
1523148301254722,13,-18,-9,-6,-20,-7,-5,17
1523148301254722,4,2,-10,33,3,2,-2,-2
1523148301275560,-6,10,-3,38,7,1,1,2
1523148301275560,16,-15,-19,-44,-19,-4,-4,-6
1523148301276872,-18,-14,-9,-15,-4,-2,0,2
1523148301276872,-23,0,-10,-92,-13,-5,-2,-8
1523148301290363,7,8,-4,19,2,2,-1,10
1523148301290363,-6,-6,0,50,2,0,1,0
1523148301291866,-12,-8,-4,42,10,2,0,-2
1523148301291866,-11,12,17,78,6,4,3,2
1523148301312696,-6,-13,-11,-97,-1,-11,-6,-4
1523148301312696,-8,-4,12,40,-18,0,2,-8
1523148301314468,-5,0,-4,-14,4,-1,2,24
1523148301314468,0,2,11,31,1,5,-2,-7
1523148301335255,-1,-3,6,32,25,7,4,2
1523148301335255,4,-3,-25,-46,-28,-5,-2,2
1523148301337229,4,-35,1,32,3,-4,-4,-15
1523148301337229,2,1,-10,4,-1,0,2,5
1523148301349795,20,19,5,-1,-6,-3,-9,0
1523148301349795,-4,15,0,-15,8,2,-1,6
1523148301356078,-4,-5,-8,5,-5,6,4,1
1523148301356078,-8,-3,-8,71,2,-12,-7,0
1523148301372621,-4,-2,-17,-80,-20,-2,1,-6
1523148301372621,8,-21,3,27,10,2,-2,4
1523148301374126,-12,-25,-14,30,2,1,0,-4
1523148301374126,-14,-4,5,-20,-1,-1,-3,-10
1523148301395448,-13,-8,-17,-71,-28,-8,-4,-6
1523148301395448,0,-2,-12,-56,-14,-7,-2,4
1523148301396952,-44,-17,4,37,11,5,3,-5
1523148301396952,18,2,10,-11,3,3,1,1
1523148301409504,-8,-9,22,94,20,6,2,-3
1523148301409504,6,-7,-32,-63,-32,-8,-4,4
1523148301416730,3,14,7,-28,2,-2,-3,-6
1523148301416730,-21,16,3,7,-3,1,2,3
1523148301432799,-4,-31,-3,-2,-5,-2,-4,-5
1523148301432799,-1,8,8,91,31,8,6,-5
1523148301438659,2,3,-14,12,-41,-13,-7,0
1523148301438659,-29,-24,-18,40,10,-10,-7,-13
1523148301455203,-16,0,11,25,2,3,3,-1
1523148301455203,-3,5,31,107,30,5,1,5
1523148301456961,-3,7,-14,-74,-31,-6,-3,-8
1523148301456961,2,-17,-26,-68,-27,-7,-3,-2
1523148301469805,6,5,-8,-9,-3,-3,0,-2
1523148301469805,0,0,27,95,22,5,4,4
1523148301476501,-6,5,11,42,19,4,3,2
1523148301476501,0,4,-14,0,-40,-8,-6,0
1523148301500323,14,36,3,74,17,4,5,6
1523148301500323,8,-51,-1,3,-10,-1,0,0
1523148301502228,5,-9,6,27,17,1,1,-1
1523148301502228,46,6,17,30,13,3,5,17
1523148301515389,-30,9,-3,-16,0,-1,-7,-18
1523148301515389,-21,-3,-9,-60,-11,-6,-9,-13
1523148301516894,19,25,1,-59,-10,0,3,10
1523148301516894,-19,-59,1,-4,4,0,-1,9
1523148301529640,17,5,25,110,53,15,5,3
1523148301529640,-11,-2,-55,-35,-61,-20,-12,-11
1523148301536680,-7,4,-1,91,12,3,4,1
1523148301536680,10,27,22,75,9,2,0,8
1523148301552989,-17,-5,-4,-19,-5,-4,-1,-6
1523148301552989,0,-1,2,20,-6,0,-2,-1
1523148301554510,3,-1,2,-18,4,-2,-2,-4
1523148301554510,-1,12,5,-4,12,5,4,-6
1523148301575577,11,-4,4,-28,-13,-2,0,5
1523148301575577,20,13,10,-24,11,2,1,0
1523148301577136,-6,-3,-9,28,-8,-3,0,1
1523148301577136,-6,42,1,102,19,4,-3,-9
1523148301588615,-8,-26,-22,9,-12,-2,4,20
1523148301588615,-12,16,-3,-7,-1,1,-3,-6
1523148301597608,8,39,42,19,29,5,0,-2
1523148301597608,-18,-22,-19,-86,-33,-7,-4,-9
1523148301612649,-4,4,-14,-41,-21,-6,-3,-5
1523148301612649,-17,0,6,28,17,1,1,6
1523148301614152,-17,2,-4,-24,6,1,-1,-3
1523148301614152,-5,-2,12,70,14,2,-3,-14
1523148301635412,-8,-3,-5,-34,-37,-12,-5,0
1523148301635412,16,-4,5,39,17,2,4,7
1523148301636766,30,-12,-10,-3,-8,-2,-1,-2
1523148301636766,-16,5,-8,-27,-4,-5,-3,0
1523148301649662,7,-9,14,3,-5,-3,-4,-11
1523148301649662,-1,-30,7,-1,3,0,3,17
1523148301656484,6,14,0,42,3,0,-6,-13
1523148301656484,-62,15,-1,-23,-4,-1,-1,-4
1523148301673026,14,-3,-12,4,8,4,2,-5
1523148301673026,25,6,-4,-7,1,0,1,4
1523148301674531,-99,-61,-39,12,-4,-1,4,19
1523148301674531,44,-24,11,-13,2,4,-1,-15
1523148301695084,-42,32,13,1,-6,-1,-2,-2
1523148301695084,-33,-13,4,25,7,4,5,7
1523148301697166,70,18,-2,-26,-5,-1,4,1
1523148301697166,-82,-22,-17,-12,0,-3,-6,-51
1523148301709476,26,-18,31,0,6,-3,-3,-15
1523148301709476,-10,35,5,-7,2,1,-5,15
1523148301717519,10,-18,-14,-25,-12,-8,-7,1
1523148301717519,97,33,20,-2,-1,6,22,43
1523148301732757,70,-14,-16,4,-1,0,-6,-1
1523148301732757,-52,-24,-21,-23,-8,-11,-21,-33
1523148301734667,73,47,29,-2,4,2,3,4
1523148301734667,57,28,1,-5,-3,-3,1,24
1523148301755155,-63,-74,-31,-6,-6,-5,-4,-16
1523148301755155,106,17,-8,3,2,0,5,-3
1523148301757145,-30,-8,-5,-12,-7,-4,-16,-11
1523148301757145,5,-1,11,22,1,3,10,17
1523148301769218,67,25,-17,6,-5,3,10,41
1523148301769218,-4,-3,-11,-7,-2,-1,-9,-9
1523148301777678,-30,-39,15,91,16,2,0,-18
1523148301777678,27,1,-2,-75,-20,-8,-5,9
1523148301792914,-25,16,7,31,0,7,6,-14
1523148301792914,-25,-4,-1,28,11,-2,-1,-8
1523148301794724,14,16,0,-29,-3,-2,1,10
1523148301794724,-30,-9,-6,25,4,-2,-5,-3
1523148301815538,-24,1,-5,4,-3,-6,-6,-7
1523148301815538,6,7,6,-19,-4,3,6,5
1523148301817001,3,0,8,47,-1,1,4,5
1523148301817001,-14,-22,-27,-79,-26,-13,-10,-23
1523148301829034,-7,11,0,-19,2,-2,-3,-3
1523148301829034,26,6,12,54,19,7,6,9
1523148301838145,-12,-9,-18,-50,-23,-6,-2,-11
1523148301838145,-15,35,2,22,-5,-3,-9,-7
1523148301852800,11,4,16,77,8,1,2,13
1523148301852800,0,0,0,-56,-14,-1,4,3
1523148301854600,-7,-2,-4,37,7,-1,-3,-7
1523148301854600,-3,-24,6,27,11,2,-1,-2
1523148301875399,2,2,-6,14,2,5,1,0
1523148301875399,1,-6,4,70,3,-4,0,-7
1523148301876709,7,4,-4,-56,-3,1,0,-2
1523148301876709,5,19,9,30,7,3,-2,1
1523148301888742,7,8,5,56,-8,1,2,-4
1523148301888742,-13,-2,-6,59,-10,-6,-3,-4
1523148301897979,10,1,-4,-18,1,-4,-7,6
1523148301897979,3,-9,-15,-73,-16,-5,-4,-2
1523148301912714,-35,4,-14,-60,-13,-2,-1,-2
1523148301912714,-6,34,-3,50,-14,-1,0,-2
1523148301914524,-12,-1,0,25,22,1,3,-8
1523148301914524,-9,-25,-1,52,12,1,2,7
1523148301935512,-14,-10,2,-21,7,0,-4,-1
1523148301935512,2,2,15,-6,5,1,0,4
1523148301936820,-17,-8,-14,-16,-34,-8,-7,-8
1523148301936820,26,12,14,81,20,4,0,-4
1523148301948847,10,7,-7,2,-9,-6,0,3
1523148301948847,-25,-7,10,-66,-1,1,0,-3
1523148301957873,1,-3,15,88,14,4,3,-1
1523148301957873,-8,-2,-25,61,-6,-2,-3,-3
1523148301972912,9,7,7,56,10,0,-2,3
1523148301972912,43,-12,2,18,7,1,0,2
1523148301974416,0,6,-8,-64,1,-1,0,0
1523148301974416,-15,-14,-20,-88,-25,-9,-4,-4
1523148301995518,20,32,-11,-37,1,0,-1,-8
1523148301995518,17,11,-7,-14,5,1,3,6
1523148301996976,-54,-47,-3,-11,2,2,-6,-20
1523148301996976,2,-3,25,31,9,-1,-4,-4
1523148302009191,16,-4,-17,-75,-24,-7,0,22
1523148302009191,15,4,12,30,15,5,6,22
1523148302018031,9,-12,-26,-23,-24,-6,2,14
1523148302018031,-32,1,-29,-116,-44,-12,-13,-52
1523148302032601,15,-6,10,67,13,1,6,44
1523148302032601,57,-17,0,61,8,-3,-10,-23
1523148302034607,75,21,0,-52,-11,-2,2,15
1523148302034607,-11,-17,0,88,6,0,-2,-9
1523148302055663,1,12,-15,25,-23,-8,-3,-25
1523148302055663,-13,1,1,46,10,1,6,19
1523148302057165,56,-8,-9,21,4,1,-10,-13
1523148302057165,17,8,19,69,24,6,2,7
1523148302068905,-8,-35,-21,19,-5,-1,-1,-24
1523148302068905,1,12,2,17,0,2,13,75
1523148302077720,-41,-3,10,21,3,0,-10,-45
1523148302077720,-13,14,16,-6,7,1,1,1
1523148302092989,-19,-14,12,-41,6,0,-5,-4
1523148302092989,-26,-1,-13,-91,-20,-2,0,-25
1523148302094491,0,21,19,21,15,2,8,24
1523148302094491,15,-8,-5,32,17,5,4,18
1523148302115460,-4,16,1,-79,-25,-10,-8,-5
1523148302115460,-27,-4,-11,3,-10,-6,-10,-23
1523148302116767,11,5,16,-2,2,2,5,13
1523148302116767,0,1,-23,66,9,2,0,3
1523148302128995,-16,-5,-9,-26,-6,-1,0,-10
1523148302128995,-29,-20,0,-23,-1,0,1,8
1523148302137826,-8,-1,-5,-14,-14,-8,-6,8
1523148302137826,-8,2,20,65,21,10,7,1
1523148302152862,13,-46,6,16,0,-7,-5,3
1523148302152862,-49,-18,-21,-64,-32,-6,-4,-23
1523148302154369,29,29,20,64,10,4,2,39
1523148302154369,-2,3,5,3,-4,-3,-2,-1
1523148302174971,-69,19,16,10,8,2,4,-23
1523148302174971,-24,-24,-28,-13,-7,-7,-16,3
1523148302176973,6,9,10,7,7,1,-4,-28
1523148302176973,-5,-2,-11,-59,-19,-5,-3,19
1523148302188710,-26,-23,9,17,18,9,3,4
1523148302188710,0,58,50,8,12,-1,5,-24
1523148302197734,85,-8,-33,-9,-10,1,21,45
1523148302197734,-53,-6,-50,-57,-22,-11,-21,-45
1523148302213026,-14,-8,5,31,8,-2,-10,-37
1523148302213026,80,-49,7,24,11,4,0,8
1523148302214536,27,1,11,-15,-4,1,7,7
1523148302214536,5,19,6,-21,-2,-1,3,10
1523148302235324,-19,30,4,15,0,0,-2,-41
1523148302235324,22,2,2,-7,-2,-1,-11,0
1523148302237128,-64,21,11,2,-2,0,2,-5
1523148302237128,15,-25,3,-6,-1,0,-1,8
1523148302258042,-4,3,4,9,7,4,3,12
1523148302258042,-8,19,-6,0,-4,-2,-4,-8
1523148302259400,-35,-12,-7,2,-2,-3,-4,-19
1523148302259400,8,34,7,-19,-5,-5,1,32
1523148302272436,-6,-1,-10,32,8,0,-2,6
1523148302272436,13,6,18,-9,-1,1,5,-6
1523148302274440,-20,-17,7,-4,5,3,-1,-8
1523148302274440,3,-4,-20,63,9,2,1,-11
1523148302295243,53,21,3,64,4,-1,0,15
1523148302295243,-14,-4,-12,39,1,-2,2,4
1523148302296720,-21,7,-31,97,-11,-7,-8,-17
1523148302296720,-1,-8,22,-11,4,5,6,1
1523148302318014,13,-51,8,73,33,5,2,17
1523148302318014,-20,-12,-27,-95,-52,-11,-8,-21
1523148302319281,-32,-16,-22,38,-7,-8,-7,-15
1523148302319281,110,28,42,58,32,10,6,12
1523148302333256,-5,1,-48,-79,-43,-13,-8,0
1523148302333256,-5,12,-4,-22,4,1,-1,-4
1523148302335083,-1,-8,-28,-18,4,3,6,0
1523148302335083,-30,-21,0,-23,-16,-6,-14,-13
1523148302355171,-15,2,36,2,32,10,2,-3
1523148302355171,-1,-23,12,2,6,2,0,-5
1523148302357175,-16,-5,-37,-94,-48,-14,-5,-3
1523148302357175,5,-11,-5,-27,8,2,9,10
1523148302377978,16,12,2,42,-4,-1,1,3
1523148302377978,-46,3,-9,40,11,-4,-4,7
1523148302379651,-7,-29,-7,-54,-37,-7,-7,-4
1523148302379651,-10,-14,-19,-13,10,-2,0,-4
1523148302392367,11,-8,31,31,-1,5,5,7
1523148302392367,37,51,10,30,8,3,6,9
1523148302398927,-7,4,30,31,28,7,-3,-11
1523148302398927,-13,19,-12,-20,-12,-6,-5,-2
1523148302415274,-8,13,13,59,15,1,1,5
1523148302415274,-18,-4,-11,-48,-54,-9,0,1
1523148302416778,40,-4,23,112,30,9,4,13
1523148302416778,13,-13,65,46,-8,-1,12,7
1523148302437832,63,19,46,5,-13,-8,-21,-18
1523148302437832,2,-9,16,29,31,8,4,-10
1523148302439337,22,21,7,-1,8,0,1,5
1523148302439337,-23,-46,-26,-105,-27,-6,-3,6
1523148302451369,21,22,-41,-38,-4,0,4,7
1523148302451369,38,25,33,35,41,9,2,5
1523148302460143,-24,-11,-16,-43,-26,-11,-2,-5
1523148302460143,20,18,0,33,18,6,1,-5
1523148302475378,-56,-48,-36,-50,-17,-6,0,-1
1523148302475378,-12,-20,-24,20,7,-3,-8,-16
1523148302476687,-5,6,-2,-18,13,4,1,0
1523148302476687,-10,-3,-14,-16,-11,-4,-2,-6
1523148302497940,3,6,-1,85,8,5,4,7
1523148302497940,0,-3,-3,-27,-14,-5,-1,4
1523148302499247,-4,4,-40,51,-10,0,-2,2
1523148302499247,-3,-6,-13,36,-8,-6,-5,-9
1523148302512312,15,5,31,-10,4,0,4,11
1523148302512312,7,-18,-19,39,1,1,1,-1
1523148302518996,-12,1,-1,-6,11,4,-2,-8
1523148302518996,-22,-7,-16,-8,-3,1,7,10
1523148302535539,1,11,1,-10,-15,-8,-9,-4
1523148302535539,-27,-4,-53,-1,19,1,-6,-31
1523148302536848,-22,7,25,-55,-15,-7,-9,-6
1523148302536848,9,-23,32,33,7,6,2,4
1523148302558032,27,34,-13,-38,-3,-3,4,11
1523148302558032,63,6,13,-8,-6,-1,-2,4
1523148302559409,-33,-1,-24,-14,6,0,-2,2
1523148302559409,4,-3,-53,17,7,0,0,-6
1523148302571941,-26,-6,-11,-26,-6,0,5,-5
1523148302571941,16,-9,8,6,-3,0,2,21
1523148302579156,-13,-21,-3,-5,3,-2,0,-7
1523148302579156,-20,58,-8,-2,-5,-1,0,6
1523148302595199,34,-5,-1,-14,-4,1,1,12
1523148302595199,-38,10,-24,-6,-11,-4,-1,-25
1523148302597214,7,-38,21,-9,3,-5,-9,-12
1523148302597214,22,1,8,3,5,2,0,5
1523148302617797,32,-57,-54,-29,-12,-5,-6,9
1523148302617797,-58,8,102,20,-5,-5,0,-15
1523148302619690,-1,40,3,10,9,7,2,-1
1523148302619690,-20,-47,-11,-11,-8,-7,-2,-24
1523148302632101,53,14,-15,-8,7,5,0,33
1523148302632101,-84,-35,-41,-2,-5,-7,-12,-12
1523148302638618,-8,5,21,10,1,0,-4,-16
1523148302638618,-6,20,21,-13,-6,-2,0,4
1523148302655164,-18,6,20,-6,-1,0,-6,-14
1523148302655164,31,5,6,13,3,3,6,27
1523148302656666,-1,19,18,65,3,5,5,6
1523148302656666,18,-17,-8,-103,-6,-5,-3,3
1523148302678224,-21,12,15,32,-3,-4,-2,-10
1523148302678224,12,-9,-7,46,-4,0,2,1
1523148302680285,44,24,-6,-37,17,4,4,4
1523148302680285,19,4,17,57,1,-1,-3,5
1523148302691414,-61,-22,-25,-50,-28,-6,-3,-11
1523148302691414,45,-3,-16,-91,-29,-5,0,3
1523148302700282,-5,-12,5,34,5,-2,-1,-2
1523148302700282,-41,-14,22,12,35,9,3,-4
1523148302722998,5,19,-21,-80,-48,-12,-9,-12
1523148302722998,-3,-4,39,127,32,10,6,9
1523148302724348,16,24,-7,-69,-21,-5,-2,0
1523148302724348,17,-31,-2,53,8,2,9,-3
1523148302737882,-1,-5,28,62,22,8,-5,3
1523148302737882,13,18,-16,-25,21,-1,-5,-5
1523148302743898,-7,-10,-34,-83,-84,-22,-9,-1
1523148302743898,4,17,-2,51,-3,2,2,10
1523148302751572,-26,-5,9,35,21,2,-2,-33
1523148302751572,-10,-13,4,46,23,2,-4,-2
1523148302760443,-17,-3,-22,-35,-36,-12,-5,-7
1523148302760443,-12,9,-16,30,-11,-5,-6,-21
1523148302775140,-43,-67,-9,-15,-4,-4,0,11
1523148302775140,65,39,10,36,26,12,4,4
1523148302776993,15,-14,-8,-44,-19,-6,0,-1
1523148302776993,24,8,-8,7,-16,-5,-3,7
1523148302797697,-2,27,30,59,36,8,5,2
1523148302797697,-5,-2,4,59,-2,-1,0,-22
1523148302799638,-21,-57,-26,51,5,-3,4,60
1523148302799638,35,25,6,11,-10,-2,-6,7
1523148302811663,-23,13,0,10,9,-3,-8,-29
1523148302811663,17,-8,8,13,12,4,2,13
1523148302820295,14,14,-4,19,-8,-5,-4,-20
1523148302820295,-20,18,-3,2,6,1,-4,17
1523148302835371,1,-43,-10,-7,4,2,5,15
1523148302835371,-1,0,19,87,30,6,4,1
1523148302836714,-6,-2,-24,-37,-35,-4,-2,-7
1523148302836714,-52,-25,-5,69,10,-1,1,-12
1523148302858453,5,46,1,19,-6,-2,-5,-1
1523148302858453,11,-6,-8,-3,-4,-4,-1,5
1523148302859955,-26,-9,15,17,18,5,-1,-11
1523148302859955,37,19,-10,-79,-10,-5,0,4
1523148302871485,109,15,-13,-19,-8,0,4,1
1523148302871485,-20,-34,1,-51,-22,-6,-3,-5
1523148302886627,-18,13,18,27,27,5,-1,14
1523148302886627,-7,-15,-11,14,-10,0,-3,-9
1523148302895203,7,-7,-11,-4,3,1,4,4
1523148302895203,10,7,-14,-55,-24,-10,-7,4
1523148302897127,-13,-8,33,57,48,14,7,-19
1523148302897127,-28,-1,-32,-58,-40,-12,-7,-6
1523148302917797,-23,-3,-8,-19,-4,-6,1,7
1523148302917797,-16,6,-15,4,-16,-4,-7,-2
1523148302919642,-1,2,5,25,28,7,2,-2
1523148302919642,-6,-3,12,3,-1,-6,-10,-15
1523148302931479,-10,6,2,27,3,3,6,4
1523148302931479,-7,-6,-29,-92,-34,-7,-2,0
1523148302940347,29,3,12,59,16,2,-1,-3
1523148302940347,5,59,16,-19,13,4,5,1
1523148302955387,-9,-2,14,10,-16,-5,-1,-3
1523148302955387,-16,1,5,-28,-1,-3,-1,1
1523148302956893,26,-4,-6,12,8,0,-4,-9
1523148302956893,-6,-3,6,65,12,5,12,15
1523148302977639,-10,4,9,17,-1,1,-8,-9
1523148302977639,-9,-5,-10,22,6,-4,-4,-10
1523148302979645,-5,24,12,54,7,2,3,0
1523148302979645,-8,-12,-13,-55,-8,-4,-7,-5
1523148302991675,-26,-9,-2,4,4,-2,1,-3
1523148302991675,-8,-14,-5,3,-4,-1,0,4
1523148303000199,-9,41,0,-22,-2,-2,-1,-2
1523148303000199,11,-39,17,29,5,0,-6,-6
1523148303015453,11,-5,-6,-34,-4,1,2,5
1523148303015453,-6,23,-6,-29,-13,-3,-1,-4
1523148303016921,-10,-10,8,36,15,-2,-2,5
1523148303016921,3,-11,9,-5,-4,0,-4,11
1523148303037475,0,6,2,-4,7,0,0,0
1523148303037475,-48,-11,-17,-13,-21,-5,1,-21
1523148303039480,44,-8,6,9,3,1,-5,9
1523148303039480,-11,-2,-6,39,4,3,3,-7
1523148303051657,13,-12,3,29,7,1,-2,4
1523148303051657,4,-3,4,5,10,3,2,4
1523148303060536,-5,-25,-14,1,-13,-6,-5,-5
1523148303060536,6,-35,10,-17,0,3,9,-6
1523148303075237,31,-8,-4,8,-1,-2,-11,3
1523148303075237,43,11,6,9,-3,-5,-8,-11
1523148303077079,-14,-3,11,9,5,0,3,-1
1523148303077079,-11,-3,-5,-5,-5,-2,-3,-19
1523148303097791,7,34,-2,5,-8,-2,-1,18
1523148303097791,14,7,13,53,7,5,8,7
1523148303099641,-32,-17,-4,-9,4,-2,-5,2
1523148303099641,-11,28,10,-9,4,5,3,12
1523148303111671,-57,5,14,5,0,-1,8,-22
1523148303111671,-74,9,-7,8,-2,0,-6,33
1523148303120379,43,4,-5,-29,-5,-2,0,-6
1523148303120379,-39,2,-6,12,3,6,9,9
1523148303135484,98,55,-18,-25,-9,-9,-17,8
1523148303135484,-42,16,15,5,7,4,20,-72
1523148303136924,-41,-36,24,-5,13,7,-3,23
1523148303136924,55,-30,-17,-19,-26,-10,-17,50
1523148303156977,-29,-34,-12,1,-9,-3,1,-15
1523148303156977,52,48,-8,-12,-6,-5,-15,-42
1523148303165499,28,9,-1,14,15,9,30,-10
1523148303165499,31,39,-1,-1,5,-5,-13,43
1523148303180513,-78,-6,-3,1,-8,-1,-14,-2
1523148303180513,38,-25,-29,-22,-3,1,2,23
1523148303181783,-8,-52,-24,13,4,0,4,1
1523148303181783,14,-6,5,10,10,2,3,-13
1523148303195551,1,16,2,-13,4,3,24,6
1523148303195551,-30,-33,1,-5,-5,-3,-13,29
1523148303196823,22,28,6,-7,-8,-4,-17,-33
1523148303196823,12,2,4,-6,2,0,2,-35
1523148303218060,7,-3,1,-6,-1,-1,-2,5
1523148303218060,29,-18,10,-3,0,2,7,20
1523148303219712,-17,6,-13,-13,-3,0,3,8
1523148303219712,-15,29,-3,34,9,0,0,-26
1523148303240309,-25,-45,-2,-56,-12,-4,-9,6
1523148303240309,-3,-6,0,-39,-4,-5,-2,13
1523148303242080,5,32,-10,19,-7,-6,-9,5
1523148303242080,50,19,8,24,6,-1,-1,-16
1523148303254635,-12,4,-12,-5,3,1,3,-1
1523148303254635,15,15,-13,70,-1,1,-1,-9
1523148303261705,10,-4,6,-27,-15,-13,-16,42
1523148303261705,-73,-35,3,-6,3,-1,2,-12
1523148303278049,4,-17,-4,8,-8,-2,0,-10
1523148303278049,16,-11,-3,-40,-14,-6,7,11
1523148303279321,-73,4,15,42,17,8,-11,-31
1523148303279321,7,-5,17,53,6,2,1,-3
1523148303300375,1,6,-12,85,-3,-4,-3,6
1523148303300375,-46,-24,-10,-12,-4,1,1,-11
1523148303301879,44,16,-7,43,0,0,4,6
1523148303301879,15,-2,6,-62,-9,-7,-7,-2
1523148303314474,21,-14,-7,-66,6,-1,-2,-19
1523148303314474,-4,13,-2,75,-11,4,2,8
1523148303321494,-4,-15,-13,127,1,-3,-1,-10
1523148303321494,-4,4,3,72,4,0,1,0
1523148303337535,8,13,12,-9,1,-1,-4,3
1523148303337535,-14,39,6,83,20,5,12,-17
1523148303339541,-10,-36,7,-87,-8,-1,-12,40
1523148303339541,-17,17,-7,-7,0,2,3,-7
1523148303360346,-2,-3,-5,-10,-13,-2,1,-7
1523148303360346,65,-29,9,74,28,3,-11,5
1523148303361851,-20,-15,-8,-48,-24,-5,5,-32
1523148303361851,21,20,-6,6,-1,-3,-3,1
1523148303374663,10,11,7,6,14,5,4,5
1523148303374663,6,-2,5,-49,-15,-8,-8,0
1523148303381414,-5,18,-10,-38,-14,-4,2,-9
1523148303381414,0,-30,-3,-33,0,-2,-6,1
1523148303397959,-8,0,-5,127,15,5,8,-1
1523148303397959,-40,-18,-16,-47,-11,-7,-3,-2
1523148303399229,5,2,16,51,14,1,-2,-5
1523148303399229,-26,7,1,65,5,2,6,2
1523148303420214,7,-13,-21,-24,-29,-11,-8,-10
1523148303420214,7,14,-6,32,9,7,11,18
1523148303421556,17,16,-1,-24,2,1,-1,3
1523148303421556,-41,-2,6,-9,2,-1,-5,-11
1523148303434590,-5,2,12,9,3,1,5,3
1523148303434590,0,10,-4,-53,-3,-3,-7,-4
1523148303441653,7,11,20,-12,29,9,11,-2
1523148303441653,15,-10,-25,-54,-29,-7,-15,9
1523148303457807,-5,-46,-11,-83,-14,-3,4,-8
1523148303457807,76,-3,15,16,-5,-7,-19,2
1523148303459157,-43,-4,-21,-28,-7,0,2,-3
1523148303459157,-3,-9,-2,23,-6,-4,-4,-8
1523148303480367,-12,15,11,49,10,0,-1,-2
1523148303480367,-3,-10,2,-26,2,0,-2,2
1523148303481716,7,1,4,36,-6,-5,-1,-2
1523148303481716,18,5,-8,-51,-7,0,2,-1
1523148303494751,-28,-10,-7,-22,2,1,2,6
1523148303494751,-39,-31,-9,-13,-4,-4,-2,-12
1523148303501423,17,37,9,33,1,-1,-2,-16
1523148303501423,-23,-36,3,13,19,1,3,7
1523148303517681,-1,-6,-24,-29,-32,-9,-7,-5
1523148303517681,-19,-6,-3,3,2,-1,0,-23
1523148303519633,-20,0,-9,-27,-4,3,5,21
1523148303519633,34,9,0,5,0,-3,-8,-7
1523148303540237,10,-4,2,3,6,-1,-3,1
1523148303540237,5,12,8,45,5,1,1,-4
1523148303541585,-2,-12,-7,-62,-19,-6,-5,12
1523148303541585,-12,-2,-3,-40,-10,2,6,-17
1523148303554619,-6,-8,12,35,14,4,-1,11
1523148303554619,3,-4,-4,1,-7,-2,-2,4
1523148303561638,-52,-5,5,63,20,2,2,-6
1523148303561638,-4,-16,-25,-27,-19,-5,0,-10
1523148303577706,3,89,30,7,8,3,-1,-13
1523148303577706,13,-2,-16,9,4,-3,-3,8
1523148303579686,20,0,2,43,-10,0,-1,-3
1523148303579686,-3,8,-21,15,0,-6,-4,-12
1523148303600478,29,2,1,-34,-2,-1,8,10
1523148303600478,-29,9,9,5,-6,1,-1,23
1523148303601744,43,6,23,88,34,7,-2,-19
1523148303601744,-8,10,-10,63,-20,-7,-1,7
1523148303614934,11,-20,-4,81,3,-4,-7,-2
1523148303614934,75,17,17,47,18,3,16,-17
1523148303621296,18,0,1,-41,2,1,-15,15
1523148303621296,-15,-23,37,11,3,6,9,16
1523148303637842,2,28,-17,23,11,-6,-8,-26
1523148303637842,-16,-1,4,23,10,3,-2,18
1523148303639345,42,32,-10,-53,-30,-8,6,15
1523148303639345,-43,5,18,9,-1,-1,0,-3
1523148303660164,-31,-33,18,72,6,5,8,-14
1523148303660164,56,15,-9,-75,-19,-4,18,3
1523148303661667,8,29,3,37,8,0,-13,-55
1523148303661667,6,-20,-28,10,4,-1,-23,8
1523148303674028,-8,-13,-42,-42,-2,2,2,3
1523148303674028,-79,5,29,3,-1,2,9,-37
1523148303690336,84,12,1,-34,-13,-2,10,55
1523148303690336,40,-21,-5,-34,3,-3,1,-15
1523148303698084,-17,10,4,-4,4,3,-7,-14
1523148303698084,13,-40,-28,0,2,3,-9,-13
1523148303699360,-95,-48,-5,-35,-18,-7,0,-10
1523148303699360,8,83,31,24,17,7,12,29
1523148303719999,26,30,29,15,6,3,0,22
1523148303719999,-14,9,2,-12,-7,-4,-4,15
1523148303722005,-11,-20,-9,-2,-5,-4,-12,-27
1523148303722005,-64,-57,-21,-13,1,-3,1,-31
1523148303734046,59,-19,-12,-23,-14,-11,-10,-2
1523148303734046,0,28,4,-10,-5,0,-10,4
1523148303742825,41,4,10,1,5,3,10,5
1523148303742825,47,7,6,24,-5,-2,-4,11
1523148303758038,34,-19,1,-31,-4,1,4,48
1523148303758038,-14,-32,-13,22,6,-4,-8,3
1523148303759371,-21,-13,-27,25,14,0,-4,2
1523148303759371,-12,-14,-13,-65,-15,0,7,-20
1523148303780403,-22,-17,-1,-75,-18,-2,0,-1
1523148303780403,-16,2,-6,52,-6,-6,-8,0
1523148303781690,-35,7,7,4,1,1,5,-14
1523148303781690,8,6,-22,-39,-14,-11,-10,0
1523148303793763,-20,4,12,66,33,11,8,-11
1523148303793763,4,1,-14,-128,-50,-11,-18,-4
1523148303802745,36,1,0,89,8,3,5,3
1523148303802745,-16,-5,32,82,16,10,4,11
1523148303817996,-2,-11,-32,-37,-13,-12,-7,-6
1523148303817996,-14,-1,4,31,27,7,8,8
1523148303819291,1,-11,6,-79,-21,2,1,1
1523148303819291,24,-6,-25,-30,-23,-16,-13,-3
1523148303840565,-28,13,23,127,13,5,17,-19
1523148303840565,-61,-3,3,-39,-3,0,-7,-4
1523148303841851,-21,-6,-12,47,5,-4,-5,-4
1523148303841851,30,17,9,40,12,2,0,0
1523148303853883,-8,0,6,-10,-6,3,1,-12
1523148303853883,19,-19,-18,-9,-16,-7,-3,4
1523148303862906,-26,-10,7,15,5,2,2,4
1523148303862906,-33,2,17,12,5,3,2,-4
1523148303878059,-11,-11,-20,44,9,-2,-8,4
1523148303878059,-4,-43,-14,-21,-7,-5,-2,-1
1523148303879685,23,17,7,-15,-8,-4,-2,5
1523148303879685,6,3,-8,8,15,1,12,1
1523148303900203,-8,6,5,-56,-18,-2,-15,-10
1523148303900203,-4,-20,15,57,15,3,4,15
1523148303902144,-14,-7,-32,-72,-31,-10,-7,-20
1523148303902144,1,-14,-1,7,11,4,4,-3
1523148303913959,11,8,17,-18,9,4,3,-7
1523148303913959,50,16,-6,-50,-17,-5,7,44
1523148303922786,-14,-3,15,44,21,5,-8,-8
1523148303922786,11,9,-20,-63,-16,-5,-6,-1
1523148303937827,-10,-10,-6,-24,-11,-5,-1,10
1523148303937827,-8,15,10,46,14,5,2,-20
1523148303939331,1,-6,7,25,9,3,3,9
1523148303939331,-18,-2,13,33,5,5,0,3
1523148303960520,-20,-12,-42,31,-36,-14,-7,-6
1523148303960520,38,25,3,-2,9,5,4,-5
1523148303962087,-7,-3,-2,25,-1,-2,1,6
1523148303962087,33,-4,-12,-5,-15,-4,-4,-16
1523148303973841,-13,35,34,74,38,9,-2,13
1523148303973841,-10,-18,-9,-15,1,-3,-3,-10
1523148303982667,0,-3,-25,-84,-37,-12,2,-19
1523148303982667,71,23,14,90,23,8,-3,8
1523148303997707,52,27,15,79,4,1,5,15
1523148303997707,-30,8,-9,-54,-21,-7,-11,-21
1523148303999711,-12,-5,1,4,3,2,4,3
1523148303999711,-25,-12,5,45,9,1,0,1
1523148304020267,21,-13,-31,-37,-11,-5,-4,-3
1523148304020267,-23,4,15,40,2,1,0,-24
1523148304021742,59,-10,-12,57,20,5,1,22
1523148304021742,-21,21,-8,-101,-40,-6,-2,-7
1523148304034194,-3,-15,6,10,10,-1,-5,16
1523148304034194,-2,22,8,56,21,0,4,4
1523148304043039,16,-11,5,80,-4,0,-6,-9
1523148304043039,-18,-2,-9,-29,-13,-6,1,-19
1523148304057780,-22,-26,-25,6,-16,-10,-9,18
1523148304057780,-37,16,6,12,1,0,-6,7
1523148304059595,-81,-13,-3,-35,-5,-2,-2,-6
1523148304059595,-2,-8,20,31,12,4,-3,0
1523148304080372,-31,-5,-14,-115,-11,-6,1,-18
1523148304080372,-4,-11,10,41,-1,0,2,-4
1523148304082195,11,9,7,-21,5,2,3,34
1523148304082195,-10,-6,-9,27,-4,-3,-1,2
1523148304102942,-6,-15,4,-49,5,3,0,-7
1523148304102942,4,-5,-17,-13,-7,-1,-1,6
1523148304104203,1,0,1,34,10,-5,-3,-24
1523148304104203,-30,-9,-3,-11,3,-1,0,5
1523148304117982,30,-31,12,21,2,3,2,-4
1523148304117982,6,-16,0,-19,2,3,-2,-4
1523148304119243,9,-5,5,48,11,1,3,-4
1523148304119243,-32,-2,-38,-52,-21,-9,-8,3
1523148304140539,-5,9,20,25,-1,5,-2,-2
1523148304140539,-46,-4,-22,6,6,-2,0,-10
1523148304141803,38,0,16,-15,-3,-6,-5,-3
1523148304141803,-23,-6,-3,9,6,-1,-3,9
1523148304163040,-9,4,-19,8,-1,1,2,-6
1523148304163040,53,-26,-8,-3,-3,-1,6,18
1523148304164362,-16,39,-6,-21,1,2,-3,-14
1523148304164362,27,-29,5,-2,-4,-3,8,16
1523148304177964,27,39,16,-9,4,2,-11,-17
1523148304177964,-75,-16,-15,15,-1,-5,-6,-12
1523148304179403,35,4,-9,-37,-10,-6,-5,-13
1523148304179403,35,-14,1,15,-3,0,7,-11
1523148304200569,26,0,-14,2,7,-2,-1,2
1523148304200569,-28,23,18,19,-1,-1,6,5
1523148304202192,15,41,23,-20,-5,0,8,-10
1523148304202192,5,-6,-5,-4,3,-2,-9,34
1523148304222751,-11,-8,12,4,0,1,8,17
1523148304222751,-32,7,0,14,4,5,-5,-16
1523148304224522,-42,-35,-29,-27,-10,-3,0,-22
1523148304224522,25,-7,17,22,11,2,-3,15
1523148304237557,13,13,7,1,-10,-7,-7,6
1523148304237557,113,7,39,-16,-5,0,-2,21
1523148304239563,-30,-44,-19,-3,-4,0,3,13
1523148304239563,-18,1,-17,22,1,-5,-9,-13
1523148304260173,-26,9,-1,20,1,-1,1,-11
1523148304260173,40,25,20,82,5,0,2,-3
1523148304261621,-24,1,9,-20,-9,-5,-7,-11
1523148304261621,-19,15,14,-12,-1,0,1,-7
1523148304290438,-38,20,0,43,-2,-4,4,46
1523148304290438,3,-48,0,11,4,0,-9,-7
1523148304291702,12,14,1,104,22,4,2,6
1523148304291702,0,1,-22,-57,-21,-1,3,-14
1523148304297215,-20,-26,18,69,22,8,4,-14
1523148304297215,2,5,-17,-127,-15,-9,6,-2
1523148304303734,4,-13,-1,-12,5,1,-20,14
1523148304303734,-11,-5,-1,63,21,3,-1,-15
1523148304320277,17,-7,-12,-128,-33,-7,-6,-8
1523148304320277,-7,1,-4,52,-1,1,-2,-6
1523148304321782,-2,7,-6,-7,-4,-3,4,3
1523148304321782,10,19,1,3,-6,-3,-1,-4
1523148304342837,1,-9,3,-6,14,6,1,-10
1523148304342837,1,0,3,100,8,0,-1,-2
1523148304344342,-8,-8,-5,-26,-19,-5,0,5
1523148304344342,0,5,12,55,4,2,-4,1
1523148304357419,-32,-16,-5,29,2,-1,3,-19
1523148304357419,-28,9,0,3,-6,3,0,29
1523148304364135,19,3,-2,-39,-2,-2,-3,1
1523148304364135,-3,-1,10,69,14,2,0,-4
1523148304380583,-5,-3,-11,-25,-9,-7,-5,-15
1523148304380583,27,5,-11,-46,-6,-1,-2,-1
1523148304382181,-3,-1,-1,-27,-3,2,3,2
1523148304382181,7,-3,3,13,2,1,4,-1
1523148304402874,3,-14,-22,-107,-39,-11,-4,5
1523148304402874,27,5,0,11,-4,3,-2,8
1523148304404285,-14,16,-3,65,9,1,0,3
1523148304404285,-7,-7,-10,-80,-14,-5,-3,-10
1523148304417407,69,1,1,62,13,0,-1,14
1523148304417407,-9,-13,2,12,10,-1,-2,-10
1523148304423836,-4,-16,-12,-80,-25,-7,-2,-6
1523148304423836,-6,8,8,25,1,3,2,8
1523148304440562,17,-7,9,35,25,2,-1,-11
1523148304440562,-31,5,-15,-112,-39,-9,-8,-11
1523148304441885,-22,-6,-12,-7,-3,-2,-2,-6
1523148304441885,-5,-6,-7,-10,0,0,-2,-6
1523148304462636,6,13,9,-3,1,3,-1,-1
1523148304462636,2,-4,0,46,6,-2,-2,-4
1523148304464445,-20,-5,9,5,2,-1,1,3
1523148304464445,27,5,-3,-40,-13,-4,1,-1
1523148304477174,-40,8,9,60,7,2,0,-4
1523148304477174,-5,-1,-17,-23,5,0,-2,-6
1523148304491709,25,-5,9,78,11,3,1,1
1523148304491709,16,17,-7,-93,-12,-5,-4,8
1523148304500482,1,1,23,32,1,-2,-2,-2
1523148304500482,2,-7,-14,37,9,0,3,-10
1523148304501785,-9,18,-7,-46,-6,-1,-4,-7
1523148304501785,-18,0,8,39,8,4,6,1
1523148304523060,-13,-2,0,-5,-2,0,-7,21
1523148304523060,-29,-14,-1,-53,-12,-5,-4,-8
1523148304524345,10,2,-6,1,3,1,0,-1
1523148304524345,-38,-10,-10,17,-7,-3,-1,6
1523148304536878,-9,9,7,-32,-8,-2,0,-12
1523148304536878,65,37,17,29,15,0,-1,2
1523148304551650,-14,-18,-9,-7,5,0,0,9
1523148304551650,-11,-6,-25,-83,-56,-12,-8,-11
1523148304560561,20,-11,-11,37,9,3,5,0
1523148304560561,27,-6,7,43,3,3,0,14
1523148304562178,10,18,-4,-45,-12,-5,-1,6
1523148304562178,-6,-1,13,42,17,1,-6,-22
1523148304583023,-23,-6,3,-41,4,4,3,-11
1523148304583023,-22,-3,-2,-27,-18,-9,-8,1
1523148304584734,35,-34,8,19,4,0,0,-7
1523148304584734,22,12,-3,8,7,3,3,27
1523148304596532,0,-3,-4,25,5,2,0,-1
1523148304596532,-21,-3,14,53,14,4,4,0
1523148304605321,-13,-7,-9,-27,-13,-6,3,-6
1523148304605321,17,-13,-5,10,9,-1,-7,13
1523148304620360,-21,2,-2,2,-9,-4,-3,-8
1523148304620360,3,-6,3,-35,-3,2,5,-2
1523148304621865,-2,10,-2,74,-15,-6,-5,1
1523148304621865,-1,-9,8,63,17,1,2,-16
1523148304642654,-12,-4,-9,25,0,0,1,9
1523148304642654,79,2,-12,13,16,3,1,14
1523148304644425,-24,-12,1,1,-24,-3,-3,16
1523148304644425,4,28,2,69,4,-2,2,-20
1523148304656460,-48,0,1,38,-2,-1,3,14
1523148304656460,-40,-5,4,19,2,0,-6,-16
1523148304665593,30,-12,11,9,20,7,2,4
1523148304665593,28,55,11,-20,0,0,0,-10
1523148304680364,23,-89,-31,-55,-12,-4,-2,-4
1523148304680364,-40,-19,2,15,5,-1,-3,-8
1523148304682215,-9,14,-2,-12,1,-2,0,27
1523148304682215,-49,-16,4,-29,-8,0,-5,-21
1523148304702691,8,-21,26,21,19,-2,2,-17
1523148304702691,-73,-10,-24,-23,-15,-3,0,15
1523148304704195,1,-40,15,25,8,4,-3,-45
1523148304704195,-11,-50,-14,-2,-3,-6,-6,37
1523148304716466,33,34,-4,-5,-4,-1,-7,44
1523148304716466,-44,-37,-9,-3,-7,-5,-2,12
1523148304725252,25,-6,-8,12,5,1,7,-28
1523148304725252,2,23,32,22,10,4,21,-34
1523148304740531,38,9,-13,-27,-15,-3,-14,65
1523148304740531,30,3,-16,2,2,-1,-16,-48
1523148304741795,-50,28,6,1,-5,-7,6,15
1523148304741795,31,1,30,10,9,7,4,-4
1523148304762636,74,67,-18,-10,-9,-1,1,35
1523148304762636,56,27,13,-7,-7,-1,5,-35
1523148304764445,-87,-30,-40,1,-5,-10,-26,-83
1523148304764445,-21,-18,-24,-8,-3,-1,2,12
1523148304776461,42,36,21,25,4,2,1,-17
1523148304776461,47,12,15,-19,-4,-2,11,42
1523148304785264,-13,-19,6,22,20,7,5,36
1523148304785264,-3,11,-17,-84,-25,-5,-4,-7
1523148304800543,-33,-4,2,-2,1,-1,-5,-35
1523148304800543,-4,3,-14,19,-3,-3,1,7
1523148304801807,-17,-14,11,10,4,3,2,36
1523148304801807,3,-12,-1,14,6,1,-14,20
1523148304830389,-26,-16,13,46,11,2,7,-33
1523148304830389,-31,3,-22,-51,-24,-7,-3,-3
1523148304831890,16,28,22,80,34,11,3,5
1523148304831890,-4,-20,-19,-64,-39,-10,-3,8
1523148304836400,-23,-4,-12,8,-17,-6,-2,-12
1523148304836400,-5,6,18,87,16,0,-6,-6
1523148304845424,39,12,2,27,0,1,3,4
1523148304845424,6,1,-16,-95,-7,-5,-5,0
1523148304860464,-15,-11,-3,27,-3,1,5,-43
1523148304860464,-6,-1,15,52,9,3,1,19
1523148304861969,18,11,-2,-20,4,1,1,-16
1523148304861969,-7,-10,-13,49,4,3,0,5
1523148304882586,-19,-8,-8,-35,-12,-7,-3,-11
1523148304882586,-3,-3,4,45,9,2,3,-13
1523148304884528,16,17,19,-31,-12,-6,-8,13
1523148304884528,-11,-15,-29,1,-13,-4,0,-11
1523148304896561,-2,3,2,33,22,4,1,14
1523148304896561,-22,0,-8,-13,-17,-9,-7,-13
1523148304905585,7,8,13,-38,-18,0,-1,3
1523148304905585,-10,-16,-22,13,9,-5,-2,-8
1523148304920250,-7,-8,18,37,-1,-5,-6,-16
1523148304920250,15,17,6,-65,9,8,1,6
1523148304921756,-2,11,-10,-83,-30,-8,-3,0
1523148304921756,3,-3,12,23,9,1,-1,13
1523148304942881,-5,5,4,3,-2,-1,1,-8
1523148304942881,4,-9,3,15,5,5,4,0
1523148304944315,19,-2,-8,43,-12,-3,-1,-2
1523148304944315,-15,5,18,13,14,7,-4,9
1523148304956344,57,18,-9,11,10,-2,-1,-3
1523148304956344,-18,-6,-5,-37,-7,-8,-3,-4
1523148304965368,27,-2,21,62,14,6,4,6
1523148304965368,-24,-12,-16,34,-3,-1,-1,-8
1523148304980435,-33,-14,-2,13,-1,2,1,0
1523148304980435,26,8,7,0,-7,-3,-1,-2
1523148304981914,0,-7,-7,-40,-9,-3,-1,-2
1523148304981914,34,40,29,64,21,1,-2,0
1523148305002968,20,-16,-18,-96,-25,-5,-5,0
1523148305002968,-13,-10,-19,-43,-20,-8,-2,-3
1523148305004473,-21,10,13,72,21,2,-5,-16
1523148305004473,6,-6,-4,31,-7,0,4,19
1523148305016583,-28,-9,-30,-17,0,-3,-2,0
1523148305016583,3,-21,-5,30,4,0,-2,-11
1523148305025529,30,7,-16,-22,-13,-3,0,-10
1523148305025529,-3,6,-1,-43,5,-4,-3,19
1523148305040126,-4,4,25,24,9,6,-3,-1
1523148305040126,-13,5,-24,-49,-48,-14,-7,-12
1523148305041571,-10,-25,-17,8,2,-3,1,-4
1523148305041571,14,-1,7,86,11,-1,-6,-4
1523148305062691,-14,7,1,21,2,-2,3,9
1523148305062691,39,5,13,78,13,10,4,7
1523148305064131,-42,-1,-39,-88,-21,-13,-12,2
1523148305064131,-8,-17,-5,-50,-29,-6,0,-17
1523148305085259,-8,2,20,51,20,5,2,-12
1523148305085259,17,1,3,25,5,0,-1,14
1523148305086691,11,0,-10,11,-5,0,4,-2
1523148305086691,5,10,15,22,16,5,2,16
1523148305100301,-34,6,0,-29,-6,-3,-4,-7
1523148305100301,-11,30,4,21,3,2,2,2
1523148305101731,14,-5,8,48,8,0,-1,3
1523148305101731,-12,3,0,19,4,0,4,-14
1523148305122851,-4,2,-4,35,2,2,-4,3
1523148305122851,-4,-2,-5,-63,-4,-2,-2,6
1523148305124291,-13,4,1,-30,-2,-5,0,8
1523148305124291,2,5,7,26,7,2,-6,-18
1523148305145347,-31,-22,-17,-16,4,3,8,22
1523148305145347,-49,-12,9,33,19,4,-2,-13
1523148305146852,5,9,8,-33,-24,-7,-7,2
1523148305146852,-16,-11,7,40,15,0,-3,-7
1523148305160389,-2,-2,-17,-68,-27,-8,-3,-23
1523148305160389,-4,-5,4,27,7,1,2,17
1523148305161930,-13,-4,-4,23,7,4,-2,-12
1523148305161930,18,15,-9,-2,-6,-3,-3,3
1523148305182685,51,5,5,12,0,-1,-1,9
1523148305182685,33,-6,19,4,2,0,3,-9
1523148305184452,-46,-1,9,21,10,7,6,9
1523148305184452,-12,-3,-37,-25,-16,-3,-1,1
1523148305205006,84,-2,21,4,5,2,-2,-8
1523148305205006,-35,-18,-14,6,15,0,-1,7
1523148305207011,59,53,29,-1,4,-2,14,-3
1523148305207011,-27,29,18,-6,-7,-2,-9,-30
1523148305219544,4,-32,-12,-9,-10,-4,-7,-23
1523148305219544,35,19,4,4,6,1,9,14
1523148305226714,-5,-9,-16,18,7,-1,-7,9
1523148305226714,-15,-14,3,-9,-2,1,6,-7
1523148305242637,-13,32,10,6,0,1,6,-17
1523148305242637,41,-3,-22,-26,-20,-17,-24,-32
1523148305244613,10,-13,-2,14,5,0,-1,14
1523148305244613,24,-13,3,-3,-1,1,4,27
1523148305265171,-99,26,-6,5,-1,1,7,-12
1523148305265171,-10,-57,0,-2,-1,0,-2,2
1523148305266677,-35,-8,7,-2,1,1,-1,-2
1523148305266677,17,-4,4,28,11,1,-1,-3
1523148305279754,3,-12,-7,7,-5,-4,-1,-11
1523148305279754,-11,0,-22,-42,-11,0,2,9
1523148305286222,17,4,5,44,9,0,-2,2
1523148305286222,-14,-5,0,-65,-10,-2,-3,-7
1523148305302768,6,-37,-11,9,-9,-5,-7,7
1523148305302768,-2,18,19,-9,0,1,-1,5
1523148305304270,-10,-13,-26,39,19,6,5,-10
1523148305304270,8,-3,-16,-61,-41,-7,-5,-7
1523148305325366,5,15,34,127,50,10,4,22
1523148305325366,-31,-9,-33,-85,-24,-10,0,2
1523148305326830,15,-5,-9,32,-12,-3,-6,-17
1523148305326830,-1,12,18,100,23,5,0,5
1523148305339364,6,-4,11,-100,-15,-3,-3,8
1523148305339364,-30,-2,-16,38,-1,-4,1,-23
1523148305346381,-5,-5,17,-11,-3,-2,-6,-7
1523148305346381,28,11,-6,5,12,2,1,28
1523148305363011,-21,23,-3,-91,-22,-7,-1,0
1523148305363011,12,6,37,107,56,13,0,11
1523148305364431,5,-4,-47,-128,-95,-20,-7,-6
1523148305364431,-15,-12,-4,92,9,1,2,-8
1523148305385487,-14,-20,26,74,0,4,0,-11
1523148305385487,17,-5,-9,14,9,-6,3,18
1523148305387686,-15,-2,4,-14,15,5,-5,17
1523148305387686,-10,-7,11,49,21,6,2,-13
1523148305399523,-9,-13,-38,-76,-52,-14,-3,4
1523148305399523,1,16,17,97,8,6,5,0
1523148305406724,1,-13,9,52,19,4,-5,-3
1523148305406724,-5,-2,-14,6,-9,-7,0,4
1523148305422584,23,15,2,-44,18,5,4,2
1523148305422584,-13,-1,7,14,-26,-9,-13,5
1523148305424088,0,6,-8,-13,-3,-5,-5,-2
1523148305424088,0,1,10,29,5,-1,0,0
1523148305445144,-24,-8,-14,52,9,-1,-4,-16
1523148305445144,-6,-52,3,-57,-13,0,1,38
1523148305447222,7,19,21,127,44,10,5,-2
1523148305447222,-7,-6,-25,-78,-48,-13,-8,-12
1523148305459728,-2,12,-4,33,-2,-3,-2,13
1523148305459728,25,11,22,33,21,8,2,-9
1523148305466439,-9,-31,-10,-75,-15,-7,2,4
1523148305466439,12,-8,-3,-34,1,1,-1,1
1523148305482744,59,18,-7,2,-1,-2,-3,3
1523148305482744,-15,10,-4,64,12,1,-1,-20
1523148305484248,11,0,-17,-32,-3,-2,9,7
1523148305484248,0,-4,13,-6,4,4,-5,-3
1523148305505337,29,-3,2,7,-2,-1,-2,1
1523148305505337,-18,-1,-22,11,-3,-5,-4,-15
1523148305506809,13,3,-6,-31,-5,-3,-3,-4
1523148305506809,15,-1,3,-8,-1,0,6,10
1523148305519695,18,-9,7,47,22,6,1,25
1523148305519695,15,6,-6,-63,-15,1,-1,-18
1523148305526465,2,2,0,27,-9,-6,-4,-4
1523148305526465,11,3,-16,14,5,-3,-1,3
1523148305542768,13,7,7,14,6,0,-2,5
1523148305542768,-15,10,-6,26,2,1,4,-9
1523148305544272,-21,-4,-11,58,-4,0,-4,-5
1523148305544272,20,24,13,58,7,-1,-2,-6
1523148305565328,-25,-21,-29,-89,-27,-5,4,3
1523148305565328,20,16,-7,12,-1,-2,-6,2
1523148305566833,-12,-24,29,86,29,6,3,-1
1523148305566833,-4,-7,-6,-49,-19,-2,-1,1
1523148305579070,-20,-11,-34,-11,-8,-11,-8,-15
1523148305579070,2,8,5,-20,0,0,3,-10
1523148305587888,28,13,7,-14,8,4,1,1
1523148305587888,-66,-11,0,9,4,2,-1,-5
1523148305602428,-25,-24,3,-5,-5,2,0,-2
1523148305602428,-2,1,17,-33,-5,-1,0,0
1523148305604432,6,-29,-16,-6,4,-1,-2,16
1523148305604432,27,6,-10,-8,3,3,4,-19
1523148305624987,-11,17,10,26,1,-1,0,15
1523148305624987,-33,-12,0,-6,-4,-1,-2,8
1523148305631715,-2,6,-9,-24,-4,-1,1,-7
1523148305631715,3,-13,12,15,2,-3,-1,1
1523148305639189,-2,-1,-14,-21,7,3,0,-1
1523148305639189,34,28,5,20,3,1,4,-6
1523148305648047,6,-10,4,-24,-3,0,-3,1
1523148305648047,-1,18,9,4,6,3,8,10
1523148305663387,-24,-37,0,24,2,-1,-6,-15
1523148305663387,6,10,-17,-18,-7,-1,-1,7
1523148305664895,-4,9,7,3,7,2,-3,-26
1523148305664895,75,28,-4,-4,0,0,10,10
1523148305685204,-4,-55,-36,1,-12,-4,-6,36
1523148305685204,-68,11,22,-2,6,-3,-7,1
1523148305687211,28,0,-17,-8,-9,-10,-13,-19
1523148305687211,-15,11,30,10,12,2,-4,-8
1523148305698983,64,14,-1,13,7,8,19,12
1523148305698983,-50,-42,-14,2,-1,1,0,-26
1523148305707765,23,46,9,-2,-2,-4,-5,-2
1523148305707765,33,-32,0,-1,0,-3,-7,-38
1523148305723011,-70,26,23,13,-6,-3,12,70
1523148305723011,14,2,-3,3,1,1,-15,-36
1523148305724309,-7,0,17,8,1,2,3,-17
1523148305724309,55,-5,-11,-11,-5,-3,1,40
1523148305745534,17,26,26,24,21,4,-1,-23
1523148305745534,-34,-61,-53,-19,-20,-11,0,-23
1523148305746869,-48,11,11,-11,-3,1,6,-6
1523148305746869,3,2,1,-9,-10,-3,-18,44
1523148305759135,7,24,9,19,10,1,-2,-14
1523148305759135,5,17,21,8,10,0,0,25
1523148305767924,-24,3,0,-31,-10,-4,-3,-11
1523148305767924,-68,-8,-15,7,-3,-4,3,0
1523148305782958,-19,-1,7,10,1,0,-2,-21
1523148305782958,48,2,5,22,-1,0,-2,0
1523148305784227,-73,-9,4,109,26,8,9,24
1523148305784227,-2,-11,-20,-23,-8,2,2,-15
1523148305805311,-46,2,1,-13,-15,-9,-11,-45
1523148305805311,-6,10,8,-19,-2,6,7,22
1523148305806787,26,-1,-7,-19,-13,-6,-3,12
1523148305806787,-21,4,11,-9,9,-2,-2,-5
1523148305818819,23,0,-10,-1,-17,-4,-5,-22
1523148305818819,-8,-3,-11,-58,-31,-7,3,0
1523148305828146,-23,-7,-10,-21,-11,-1,3,15
1523148305828146,7,24,20,73,19,2,-4,-24
1523148305841826,11,-14,8,-32,-3,-3,0,-1
1523148305841826,42,1,-30,-57,-2,-2,-1,1
1523148305850682,15,-27,8,-30,3,4,0,12
1523148305850682,-16,-3,-6,-13,-20,-6,-2,-9
1523148305865590,15,10,11,-17,14,3,2,3
1523148305865590,5,8,7,17,13,1,-3,7
1523148305867181,17,0,-4,-50,-15,-8,-3,-9
1523148305867181,-13,-23,-10,16,2,2,3,3
1523148305878986,3,-5,-3,3,-3,0,-3,3
1523148305878986,3,-8,7,-70,1,-3,-2,-3
1523148305888045,-9,6,-5,62,19,1,2,-6
1523148305888045,-56,-21,-25,-68,-43,-13,-7,-11
1523148305902550,4,-3,10,69,8,5,1,9
1523148305902550,48,12,9,51,14,8,9,42
1523148305904054,42,6,-10,101,9,-6,-7,2
1523148305904054,-49,-10,8,8,7,2,5,-1
1523148305925539,4,18,-12,96,1,-4,-11,-12
1523148305925539,-26,-29,-3,-30,-19,-2,-1,-41
1523148305926869,-12,11,15,-8,-5,2,6,19
1523148305926869,20,33,4,14,5,2,0,22
1523148305938900,0,-7,14,84,11,2,0,-3
1523148305938900,-16,13,-3,68,0,-3,-3,-12
1523148305947925,-4,-10,-16,-99,-22,-2,-4,-6
1523148305947925,3,39,11,9,7,2,0,-20
1523148305963085,-28,5,3,-17,-4,-2,-7,-5
1523148305963085,2,8,-2,72,5,-4,-2,9
1523148305964704,-7,-10,-13,-54,-14,-2,-3,-6
1523148305964704,12,-14,1,62,15,3,0,6
1523148305985024,12,1,12,-40,-7,-1,1,7
1523148305985024,4,2,-12,13,0,-2,0,-2
1523148305987092,-1,2,-8,33,7,0,-2,2
1523148305987092,51,-13,10,1,0,-1,-5,-9
1523148306007739,1,-1,-6,-20,0,-2,-1,5
1523148306007739,2,-3,3,-37,-3,-2,1,-4
1523148306009631,23,11,10,-10,-7,-4,-3,14
1523148306009631,65,17,15,23,2,-2,-3,0
1523148306022801,15,-4,18,-56,-1,-1,-1,-4
1523148306022801,7,-4,-44,-28,-64,-12,-4,5
1523148306024305,-8,2,6,105,16,7,0,-48
1523148306024305,-26,-47,-20,27,-3,-6,-1,34
1523148306045360,12,-3,-1,19,-2,-1,-2,-1
1523148306045360,-8,8,20,53,22,7,5,-1
1523148306046867,-10,-7,-12,0,-11,-3,0,-9
1523148306046867,42,23,1,-16,-6,0,-1,0
1523148306067936,-6,-8,-28,-12,-3,-3,-7,-30
1523148306067936,14,-11,13,22,6,0,-4,-3
1523148306069200,-16,5,-5,2,0,0,-1,-1
1523148306069200,-21,-5,1,-25,8,0,4,-5
1523148306082968,-5,1,2,-16,-4,-4,0,15
1523148306082968,-35,8,31,21,9,0,-3,-14
1523148306084239,8,-8,-15,-38,3,1,0,12
1523148306084239,-4,-7,-14,-17,-4,1,4,11
1523148306105295,-12,22,-18,7,-7,0,0,-9
1523148306105295,24,-3,3,10,2,-4,0,6
1523148306106799,10,48,22,42,9,2,0,8
1523148306106799,-37,-39,-8,-21,-4,-2,-6,-23
1523148306127612,-64,-5,-14,1,-3,-1,-1,-5
1523148306127612,5,-13,-1,-15,-4,-1,0,19
1523148306129668,13,12,-8,31,14,-3,-2,-2
1523148306129668,-37,9,31,2,0,2,0,-42
1523148306142150,42,-44,22,3,2,5,14,44
1523148306142150,8,42,-3,2,0,-1,-6,-11
1523148306148903,5,8,26,-31,-10,-8,-8,3
1523148306148903,4,-5,-26,-5,-20,-4,6,-17
1523148306165432,-63,-25,-14,-3,8,1,-11,-10
1523148306165432,55,32,11,0,3,-2,0,-3
1523148306166715,74,-80,11,-13,-2,3,6,8
1523148306166715,-54,-14,-22,11,10,-2,-12,-32
1523148306188010,117,48,24,-4,-6,0,8,7
1523148306188010,-101,13,1,-12,-2,-4,-13,28
1523148306189276,-11,-10,19,11,13,6,6,13
1523148306189276,6,45,-5,-9,1,1,13,-21
1523148306201808,-32,-42,-48,-5,0,-6,-29,-39
1523148306201808,18,-8,2,-4,-5,-4,-1,15
1523148306209845,17,52,29,-6,9,6,18,34
1523148306209845,-45,-69,-35,-10,-11,-6,-8,-17
1523148306224870,-66,5,-2,-12,-18,-13,-7,-44
1523148306224870,-17,-70,-9,5,2,0,9,-7
1523148306225371,37,16,6,0,5,1,-10,36
1523148306225371,11,37,4,-8,-10,-1,0,22
1523148306247165,-20,-3,26,1,2,-1,5,15
1523148306247165,-9,-13,-11,8,6,2,4,-21
1523148306247931,-1,-22,-27,-19,-12,-6,-11,-40
1523148306247931,33,11,15,-18,2,2,-3,41
1523148306269989,26,13,-13,15,10,3,-1,-13
1523148306269989,10,3,-2,77,-2,-4,0,2
1523148306270993,-22,2,-25,26,1,2,1,-5
1523148306270993,8,2,5,-24,-5,-2,-6,9
1523148306284591,9,6,10,65,4,3,4,-17
1523148306284591,10,9,6,-49,9,5,4,5
1523148306285532,-46,-22,-17,-26,-35,-11,-9,-13
1523148306285532,9,-8,38,122,44,8,1,0
1523148306307325,18,-5,-41,-104,-55,-15,-1,6
1523148306307325,-12,3,-18,-71,-3,4,3,-14
1523148306307589,6,-2,5,77,6,4,5,9
1523148306307589,-13,-3,-18,-65,-9,-5,-3,18
1523148306321716,1,6,4,27,0,-3,4,7
1523148306321716,-14,-30,-3,3,-4,2,-2,6
1523148306329860,-17,-2,-3,28,15,-1,-1,-13
1523148306329860,16,9,0,-13,-18,-2,0,7
1523148306344531,-17,-46,0,25,21,7,4,7
1523148306344531,7,-7,-16,-59,-33,-12,-3,-11
1523148306345690,-51,6,-8,34,21,8,-1,-5
1523148306345690,-20,-8,-7,-47,-30,-9,-10,-9
1523148306367370,6,15,5,73,2,0,-3,8
1523148306367370,17,9,2,24,22,2,0,-5
1523148306367775,-1,-4,-5,-49,-32,-8,-6,1
1523148306367775,3,12,1,7,23,5,5,-8
1523148306381551,16,10,17,-21,-2,4,6,33
1523148306381551,-21,-14,-7,9,-1,-2,-2,-8
1523148306389540,9,4,6,-8,3,-4,-3,-5
1523148306389540,-23,-10,0,28,3,2,1,4
1523148306404373,9,8,-2,-6,-3,-3,-1,0
1523148306404373,6,11,11,11,5,0,0,8
1523148306405376,-9,0,21,90,17,9,6,-9
1523148306405376,-12,-37,-42,-58,-51,-20,-15,18
1523148306427148,-2,8,3,-21,22,-1,-3,-3
1523148306427148,-8,14,-19,-38,-13,-3,-4,-5
1523148306427936,-19,-54,-10,-16,-7,-4,-4,-15
1523148306427936,15,12,10,23,12,6,2,-2
1523148306441706,8,11,21,13,0,1,3,4
1523148306441706,-18,-13,-11,-18,-7,-3,-5,2
1523148306449820,14,15,-4,-45,-4,-3,1,0
1523148306449820,8,2,8,2,14,5,7,1
1523148306464860,-8,-6,3,44,2,-1,-9,-3
1523148306464860,3,16,24,9,19,6,1,-7
1523148306465290,-11,-6,-46,-111,-53,-13,-8,-3
1523148306465290,27,9,11,14,9,2,0,-26
1523148306487082,33,16,3,1,2,-1,0,34
1523148306487082,43,17,16,54,10,1,1,7
1523148306487851,-37,-5,3,-8,5,-2,-4,-11
1523148306487851,9,1,10,11,2,-2,-3,-3
1523148306501387,-24,-13,-9,-30,-3,2,4,-10
1523148306501387,2,8,0,3,-13,-1,0,7
1523148306509642,10,3,3,3,11,0,1,6
1523148306509642,-3,2,6,41,3,0,1,1
1523148306524460,-8,3,0,6,1,0,0,-8
1523148306524460,9,22,2,48,10,3,4,-11
1523148306525463,-6,26,6,22,7,1,-4,9
1523148306525463,24,-2,-24,-52,-19,-4,-1,3
1523148306547258,14,8,22,83,8,6,3,2
1523148306547258,-11,-22,-39,-93,-27,-12,-6,-12
1523148306547522,15,6,-2,52,2,-3,-2,-5
1523148306547522,14,8,-1,33,10,1,-1,8
1523148306561595,50,5,-13,-29,-9,-3,-5,-1
1523148306561595,-1,4,21,55,10,1,-3,-2
1523148306569581,1,-8,-16,-63,-16,-1,-1,-2
1523148306569581,-20,-9,-11,21,4,0,0,3
1523148306584629,-6,-1,-4,-19,-2,0,3,0
1523148306584629,-27,-1,17,56,10,2,-1,-2
1523148306585121,20,17,-6,-42,-9,-7,-4,1
1523148306585121,20,15,13,27,0,-4,-1,-1
1523148306607298,-65,18,-3,-20,-2,4,3,-4
1523148306607298,6,17,7,43,11,2,-1,1
1523148306607681,8,6,-13,-49,-29,-5,-1,1
1523148306607681,-15,18,8,9,4,3,5,5
1523148306621414,6,-28,-10,14,8,3,2,-4
1523148306621414,24,2,8,-22,-4,0,-6,9
1523148306629872,-17,-10,19,64,18,9,9,-1
1523148306629872,-3,-44,-7,4,-2,-3,0,4
1523148306653019,-31,53,6,-9,-7,-6,-1,-27
1523148306653019,38,-9,-4,5,1,1,10,35
1523148306653520,47,-2,-12,31,12,3,-8,-13
1523148306653520,35,-18,-9,-32,-9,1,3,29
1523148306667257,43,-10,5,0,-3,-1,-9,-3
1523148306667257,-99,-41,2,9,0,-1,-1,-14
1523148306667556,54,82,29,9,13,-1,11,-12
1523148306667556,-8,-3,15,-5,-6,-4,-6,-2
1523148306681673,8,-20,-26,-30,-25,-12,-4,12
1523148306681673,6,-11,-1,-15,-11,-3,-3,11
1523148306689812,21,-3,12,4,7,2,8,10
1523148306689812,-8,-31,7,14,3,4,-4,2
1523148306704383,-69,23,10,-29,-1,-5,-10,-57
1523148306704383,11,2,16,12,7,-4,-6,-19
1523148306705572,-1,-14,-3,-4,-6,3,1,5
1523148306705572,39,25,-8,-8,-6,-3,-2,7
1523148306727328,-15,-9,-5,7,2,-1,3,6
1523148306727328,-12,-8,-11,28,-3,6,6,-8
1523148306727657,-7,-4,-4,-5,0,0,-5,33
1523148306727657,-10,15,8,31,9,2,6,-19
1523148306741193,-3,-20,-14,-49,-10,-4,-7,-2
1523148306741193,37,39,3,-50,5,0,-3,-3
1523148306749214,-41,-54,4,14,0,3,7,7
1523148306749214,-31,3,-10,6,-7,-3,-4,-33
1523148306773016,-5,-13,9,21,10,0,-5,10
1523148306773016,19,21,0,16,0,-5,-8,-9
1523148306773778,-33,-56,-27,-38,-13,-7,-5,-15
1523148306773778,-27,2,11,-25,6,0,-3,-2
1523148306787391,43,5,18,80,25,5,9,21
1523148306787391,-6,7,-20,-56,-30,-3,4,3
1523148306787818,-16,12,0,-6,-7,-6,-7,-20
1523148306787818,2,6,8,34,8,2,0,1
1523148306801133,39,10,5,6,8,1,0,16
1523148306801133,-2,17,-6,-36,-4,-3,-4,-2
1523148306809879,-18,-9,0,42,2,1,-2,-20
1523148306809879,18,27,-12,13,-7,-4,-5,1
1523148306824742,5,4,7,72,29,2,2,21
1523148306824742,-13,-26,-19,-49,-34,-9,-4,-12
1523148306825242,-2,0,0,7,-3,1,-1,1
1523148306825242,48,-42,4,56,11,0,1,3
1523148306847391,-27,-9,-10,-11,-9,0,1,-34
1523148306847391,25,4,15,35,7,1,7,30
1523148306847804,-36,-12,9,127,24,2,-5,10
1523148306847804,-16,41,13,-5,-8,0,2,-7
1523148306861338,5,-17,-33,44,-15,-4,-8,-8
1523148306861338,-9,-48,6,59,12,0,-1,4
1523148306869360,7,18,-2,-23,1,-2,0,3
1523148306869360,5,12,27,118,49,15,6,6
1523148306884429,16,33,-8,1,-28,-5,3,-1
1523148306884429,-71,2,1,44,9,1,-2,1
1523148306885405,29,-8,3,6,10,1,-1,4
1523148306885405,-33,-33,-25,-97,-37,-12,-8,-23
1523148306907298,-33,-28,-5,-22,10,2,4,17
1523148306907298,54,-1,-17,-50,-18,-1,-3,-4
1523148306907783,-39,-10,6,-5,-1,-4,-3,-15
1523148306907783,-1,3,-9,-12,-6,-4,-1,1
1523148306930593,-20,-10,3,-46,-6,-1,-5,10
1523148306930593,-8,3,-1,43,13,-1,-3,-9
1523148306931095,2,4,-9,-63,-14,-3,-1,2
1523148306931095,-2,0,-5,-22,-6,0,3,0
1523148306944587,24,-4,12,12,3,-3,-4,-4
1523148306944587,2,5,3,107,19,5,5,-2
1523148306945385,48,-1,-23,-64,-15,-5,-4,3
1523148306945385,-26,-9,-3,5,-9,-5,-5,-1
1523148306967338,20,11,5,-26,-6,0,-1,-26
1523148306967338,-1,-14,0,23,5,-1,-3,8
1523148306967708,-44,-9,-4,71,24,8,4,-4
1523148306967708,-29,-1,-18,33,-6,-9,-5,-2
1523148306990498,-5,-55,-4,20,-3,1,2,-3
1523148306990498,-14,0,6,-11,-2,-2,-5,-4
1523148306991317,3,7,-6,17,3,0,-5,-4
1523148306991317,-5,-20,2,30,14,4,1,1
1523148307004420,3,0,-39,-82,-25,-9,-3,-10
1523148307004420,9,4,3,-3,4,-3,1,19
1523148307005308,6,15,7,-26,-11,-1,3,-5
1523148307005308,10,-9,24,4,7,2,-5,21
1523148307027100,9,12,-7,-3,-10,-2,-1,-18
1523148307027100,2,1,-4,-18,-2,-2,-3,29
1523148307027868,25,7,1,10,-5,-3,-2,-16
1523148307027868,6,23,-12,-31,-7,-4,-6,-1
1523148307050428,-20,-27,58,34,9,2,0,16
1523148307050428,-10,-3,-14,-39,2,1,11,-9
1523148307051430,-34,-7,1,30,-2,1,1,-29
1523148307051430,27,-2,-7,-12,-1,0,-1,14
1523148307064465,8,3,1,-10,1,2,1,-2
1523148307064465,7,48,5,23,8,-1,-7,-14
1523148307065468,1,-2,5,-12,-14,-3,-2,2
1523148307065468,-11,31,-2,36,4,2,6,-3
1523148307087259,6,9,-27,-2,-12,-6,-2,4
1523148307087259,9,-1,15,13,-5,-2,-5,-15
1523148307087526,8,5,-15,-31,6,-3,0,3
1523148307087526,-45,-32,-4,-13,-7,0,5,8
1523148307110521,-3,46,3,19,6,0,-15,24
1523148307110521,11,-11,-7,21,5,1,-1,-6
1523148307110843,1,5,25,59,-14,-1,-1,-8
1523148307110843,6,-20,-44,-62,3,-11,-2,-1
1523148307124628,-6,10,5,8,1,0,-1,-2
1523148307124628,36,-10,5,4,-1,-1,2,-16
1523148307125705,-14,-26,7,23,12,3,3,23
1523148307125705,-2,9,6,-19,-15,-2,1,2
1523148307147187,-8,-26,-14,-2,2,0,-2,-3
1523148307147187,3,6,-9,-10,-1,2,-4,-6
1523148307147689,5,29,2,-12,-1,0,11,7
1523148307147689,34,-17,-5,-1,-4,-6,-23,-31
1523148307170248,25,-18,3,-19,-5,-6,10,-10
1523148307170248,10,31,19,9,8,7,-9,14
1523148307170750,-31,-18,-44,-35,-23,-7,-4,-5
1523148307170750,30,31,19,-5,2,3,-1,81
1523148307184543,88,33,26,32,15,10,17,26
1523148307184543,-108,-55,-8,-20,-7,-7,-13,-70
1523148307185654,51,50,13,-7,-2,-4,-13,4
1523148307185654,47,-41,4,13,13,8,7,6
1523148307207361,-28,15,-19,-10,-7,-2,-3,-8
1523148307207361,9,-27,23,30,9,1,16,43
1523148307207635,10,-48,-2,-11,2,2,8,-10
1523148307207635,-58,-27,14,3,-8,-2,-17,-23
1523148307230426,-9,-15,10,13,7,0,-3,7
1523148307230426,5,-22,-22,-18,-8,-3,10,-10
1523148307231318,-2,-7,-15,9,4,-3,-16,-8
1523148307231318,-51,12,-3,-1,-2,2,9,-4
1523148307244491,41,-29,-19,-11,-6,-2,-3,-8
1523148307244491,-60,-4,-12,-14,-11,-3,-3,8
1523148307245545,29,-16,0,-5,0,-2,4,15
1523148307245545,14,29,0,8,-5,-3,-7,-33
1523148307267086,-25,-2,-7,-7,3,0,3,26
1523148307267086,-11,-3,5,-56,-12,-6,-4,0
1523148307267552,-19,12,-9,22,-3,-5,-5,1
1523148307267552,2,3,-11,-104,-36,-8,1,-26
1523148307290111,-38,13,12,70,37,8,3,-9
1523148307290111,54,-6,-32,-89,-58,-14,-6,-9
1523148307291115,-53,10,9,97,17,3,-1,9
1523148307291115,-55,-21,15,75,30,5,1,-18
1523148307304684,-2,2,-31,-43,-50,-12,0,-12
1523148307304684,45,34,33,127,43,10,-4,21
1523148307305700,16,26,-31,-86,-14,-5,-5,-9
1523148307305700,-8,-21,-25,75,-42,-15,4,-1
1523148307327242,7,16,38,113,38,15,1,19
1523148307327242,-18,-14,-19,-32,-9,-14,-4,-21
1523148307327745,-5,-35,-6,31,0,11,-8,14
1523148307327745,43,48,37,68,60,11,10,-19
1523148307350391,-71,-1,-48,-120,-77,-20,-14,9
1523148307350391,-5,10,13,69,15,2,1,-29
1523148307350806,9,1,39,111,30,3,0,16
1523148307350806,18,4,-36,-123,-44,-16,-9,1
1523148307364342,21,-24,26,81,30,6,1,-4
1523148307364342,-7,-19,-43,-64,-42,-8,1,7
1523148307365345,-55,8,3,16,3,-5,2,-26
1523148307365345,16,1,-4,112,17,6,-4,11
1523148307387104,35,-13,3,-12,-3,-6,0,-33
1523148307387104,14,-5,17,-10,10,8,1,27
1523148307387905,26,11,11,-5,4,-1,-3,-9
1523148307387905,-22,-17,-19,-84,-14,-2,-3,-5
1523148307409971,14,14,-1,6,12,2,15,12
1523148307409971,33,17,10,24,5,4,-3,33
1523148307410966,-41,-13,-12,2,-9,-8,-9,-10
1523148307410966,-8,-3,6,56,9,-1,-7,-34
1523148307424514,-25,-7,-9,-6,3,1,-3,-15
1523148307424514,17,31,2,-38,-12,-1,6,16
1523148307425514,28,-60,0,-26,-6,1,9,27
1523148307425514,-2,23,45,64,32,13,10,28
1523148307447371,-90,-24,-41,-13,-41,-20,-9,-14
1523148307447371,11,-24,-5,49,13,0,-10,-7
1523148307447826,16,8,9,29,10,1,-1,-9
1523148307447826,3,2,-4,-36,-10,-2,2,-4
1523148307470402,14,7,8,33,2,3,-4,7
1523148307470402,-20,9,-3,48,24,3,4,-33
1523148307471403,9,8,-14,-64,-29,-8,-10,24
1523148307471403,-27,-14,3,24,-2,-3,-3,-3
1523148307483700,4,7,-15,-69,-25,-8,-9,-14
1523148307483700,-7,3,4,21,9,2,5,1
1523148307492411,49,20,19,44,4,3,12,-3
1523148307492411,16,3,-32,6,-15,-8,-11,12
1523148307507339,-3,-20,2,-34,9,-2,-7,-2
1523148307507339,-30,10,11,-33,4,0,0,-2
1523148307507765,6,3,-6,6,-15,0,6,4
1523148307507765,16,-4,7,34,5,2,1,-8
1523148307530325,27,30,10,35,14,2,5,36
1523148307530325,-23,-27,9,9,-3,0,-4,-11
1523148307530827,-14,25,-4,-19,4,-2,-6,-20
1523148307530827,-9,-15,-11,8,-8,-5,-4,-11
1523148307544217,13,-11,-3,-42,-7,-3,-4,-16
1523148307544217,13,24,11,16,8,1,0,-1
1523148307552383,-6,-13,-2,-12,-1,-2,-2,7
1523148307552383,-3,-28,-7,-60,-2,1,2,-3
1523148307567186,51,10,12,68,17,5,1,-1
1523148307567186,5,-4,-35,-49,-36,-12,-5,-6
1523148307567689,-5,5,19,8,6,1,1,-5
1523148307567689,0,13,-1,48,-3,0,-3,5
1523148307590023,66,20,4,-19,-1,-2,-8,-20
1523148307590023,-53,-28,16,103,18,3,-1,3
1523148307591027,-15,-4,-40,-112,-21,-6,-4,-8
1523148307591027,6,1,11,49,19,5,9,7
1523148307604609,-49,6,13,23,2,4,-3,-14
1523148307604609,21,28,10,13,-2,-6,-10,-8
1523148307612300,14,-16,10,49,9,1,-2,-2
1523148307612300,9,18,-5,-94,-12,-3,4,-2
1523148307627336,35,20,18,-7,6,2,4,0
1523148307627336,-12,28,-14,-18,-5,-2,2,5
1523148307627612,-16,-1,9,4,0,1,4,-5
1523148307627612,-2,-4,-7,-11,-14,-8,-8,1
1523148307650183,-30,-22,11,13,6,1,-4,-11
1523148307650183,6,-7,13,-18,5,3,7,21
1523148307651186,-7,19,-3,26,0,-1,-5,-16
1523148307651186,-26,21,12,13,3,3,3,-9
1523148307663971,-11,-8,8,-16,-1,-9,-11,33
1523148307663971,-36,-63,-54,5,-10,7,7,-64
1523148307672377,16,-40,-18,-6,3,-1,12,65
1523148307672377,103,17,11,-5,7,5,14,13
1523148307687367,-54,-8,-17,11,-1,-7,-32,-79
1523148307687367,-75,-7,-4,-27,-13,-12,-10,-3
1523148307687798,-61,-48,-5,1,3,4,-5,-22
1523148307687798,68,13,-25,4,2,4,13,20
1523148307710512,-35,5,-22,-2,-8,-3,12,6
1523148307710512,39,13,18,5,3,-3,-10,25
1523148307710902,4,63,1,-3,1,1,3,-11
1523148307710902,-47,-1,8,-8,-4,-7,-10,2
1523148307724186,-8,-14,-2,-7,-6,10,12,6
1523148307724186,34,10,5,0,6,-5,-4,8
1523148307732411,7,-8,-9,37,7,1,0,-12
1523148307732411,-10,-20,-6,-3,0,-2,-6,-21
1523148307747280,1,-26,-12,-10,-6,0,8,22
1523148307747280,31,18,25,6,-11,14,8,6
1523148307747747,8,-1,-15,-68,16,-19,-16,-13
1523148307747747,-20,0,2,22,3,0,-2,47
1523148307770307,2,16,10,53,13,3,1,-5
1523148307770307,-10,-1,5,69,-2,2,2,4
1523148307771344,-11,-38,-2,104,-6,0,-1,-12
1523148307771344,-23,16,0,-42,-9,-3,-2,-6
1523148307783945,36,23,-9,74,5,-8,-5,6
1523148307783945,-4,2,-17,-58,-10,-5,-3,2
1523148307791967,30,29,23,11,26,-5,10,7
1523148307791967,-28,-25,-30,-84,-37,5,-9,-21
1523148307807336,17,4,12,90,3,-3,6,17
1523148307807336,24,-4,-1,60,27,7,5,-9
1523148307807792,-46,14,17,5,-5,7,-1,12
1523148307807792,-49,-11,14,71,34,-1,-1,-3
1523148307830492,-17,-13,-6,-83,-32,-3,-5,-7
1523148307830492,-27,-15,-30,-102,-46,-17,-5,-5
1523148307830942,-34,1,17,43,23,4,1,-1
1523148307830942,-25,-19,-13,-38,-15,-5,-5,-12
1523148307853000,11,14,-5,29,11,2,2,31
1523148307853000,7,11,10,9,12,-1,-2,6
1523148307853502,19,22,-6,-98,-29,0,-2,-9
1523148307853502,-4,-19,-6,40,-7,-4,3,12
1523148307867071,5,-9,1,23,27,1,-4,2
1523148307867071,29,15,14,-30,-9,2,3,1
1523148307867573,4,21,1,16,8,4,0,1
1523148307867573,18,3,-18,-18,-20,-11,-5,-14
1523148307890305,-17,-14,11,4,7,3,4,2
1523148307890305,2,-3,-3,-8,-2,-1,-1,7
1523148307891307,89,-2,1,65,-1,-4,-2,-2
1523148307891307,24,-1,4,-45,0,1,0,-3
1523148307912983,-58,1,-3,-9,2,2,4,0
1523148307912983,43,2,23,22,4,-2,-4,-7
1523148307913365,5,-13,-6,-51,-11,-3,1,4
1523148307913365,-5,-9,2,-26,-5,0,-1,-4
1523148307927056,-1,11,-2,1,3,2,-4,-7
1523148307927056,2,25,-2,17,3,-2,-1,-2
1523148307927904,-4,-5,-9,15,-6,-1,-3,2
1523148307927904,34,-9,2,-50,-8,-2,-1,2
1523148307950146,-26,2,12,-3,2,-1,2,2
1523148307950146,-25,-8,-41,11,-1,-4,-3,-7
1523148307951149,-5,-8,0,-38,-4,3,1,-12
1523148307951149,24,29,-4,-46,-15,-11,-12,33
1523148307972599,26,-25,-4,-4,-8,-2,1,-13
1523148307972599,-8,-15,4,10,6,-2,-1,-4
1523148307973646,-5,-5,-6,43,-10,2,0,5
1523148307973646,-9,-1,3,59,27,8,4,-41
1523148307987184,9,-3,-5,-61,-16,-1,0,17
1523148307987184,-5,-9,6,19,8,-2,-3,3
1523148307987687,-13,-10,-3,-14,-13,-8,-7,-14
1523148307987687,-24,6,12,79,12,2,3,-10
1523148308010582,11,3,2,26,2,1,1,0
1523148308010582,13,-10,-1,-15,-2,2,4,2
1523148308011033,-10,15,1,-7,3,-1,0,5
1523148308011033,-10,-3,9,54,5,2,5,2
1523148308032591,-7,-11,-20,-78,-32,-10,-14,-36
1523148308032591,54,-1,1,72,11,2,8,60
1523148308033594,-48,-18,-25,-76,-26,-14,-17,32
1523148308033594,-4,-3,18,70,23,6,4,-37
1523148308047128,-2,-43,-7,10,0,-1,-14,19
1523148308047128,13,19,7,-68,-6,-2,-1,-10
1523148308048164,8,-7,4,72,8,1,2,-1
1523148308048164,-18,-27,13,68,13,6,10,-4
1523148308070459,24,0,-8,61,-13,-7,-3,3
1523148308070459,8,36,-4,69,4,-2,5,-2
1523148308070930,9,1,12,44,-1,2,-9,-17
1523148308070930,-6,13,-15,9,4,-5,-2,41
1523148308092987,-2,-8,-7,-56,7,-1,1,-26
1523148308092987,-31,-14,4,-36,-7,-4,0,-4
1523148308093490,-4,10,-2,-7,5,0,3,16
1523148308093490,9,5,-1,-35,-21,-3,-7,-11
1523148308107223,-3,21,6,7,9,4,3,-10
1523148308107223,-76,-23,-12,-6,0,-2,-5,-7
1523148308108153,5,-4,-3,-22,-10,-2,3,-20
1523148308108153,22,-7,2,29,3,0,1,15
1523148308130287,-3,-15,1,-6,4,-1,7,4
1523148308130287,2,-4,5,-41,3,2,-12,-40
1523148308131089,8,-39,6,37,-5,-2,4,-2
1523148308131089,-7,-3,-24,-76,-19,-7,-9,-2
1523148308151645,11,33,18,83,23,9,11,-7
1523148308151645,2,-23,-1,51,-3,2,-4,-10
1523148308159679,53,23,-4,-16,-1,1,1,15
1523148308159679,-50,12,-3,-20,-2,-1,2,5
1523148308167186,-27,-14,6,-7,-1,-5,-6,-10
1523148308167186,56,6,-7,-11,4,-2,-15,24
1523148308167687,-39,38,13,10,6,3,4,-36
1523148308167687,42,4,34,32,29,6,5,42
1523148308190480,-47,19,-18,-26,-16,0,-2,23
1523148308190480,18,-41,-12,9,-8,0,6,21
1523148308191326,30,-4,10,-33,-8,-4,-7,-19
1523148308191326,-3,27,-3,15,-5,-2,-6,58
1523148308213007,80,-41,-29,-20,-10,-4,5,12
1523148308213007,-49,40,23,-1,-2,-6,4,-19
1523148308213307,88,0,-22,-12,-15,-12,-6,25
1523148308213307,-75,-42,-34,-25,-18,-8,-14,-26
1523148308227078,-32,35,22,0,2,1,-3,26
1523148308227078,-56,-29,-52,0,-10,-10,-10,-38
1523148308227846,-16,-14,-16,-16,-9,-11,-14,-51
1523148308227846,22,-6,12,2,5,0,-1,-16
1523148308249643,44,40,14,0,4,2,5,7
1523148308249643,-3,-13,24,-1,23,10,10,1
1523148308250408,38,46,-1,-80,-20,-3,6,24
1523148308250408,-15,-25,-26,20,-11,-5,-4,-12
1523148308272621,-35,-19,14,52,8,-5,6,-11
1523148308272621,-1,25,18,92,34,20,4,8
1523148308273469,-34,-47,-39,-33,-52,-15,-8,5
1523148308273469,17,-6,-1,53,0,0,7,-24
1523148308287160,25,2,-8,22,-3,-4,-11,-2
1523148308287160,8,6,10,17,2,-6,-4,-14
1523148308288012,-43,14,8,13,12,1,-6,15
1523148308288012,6,18,-8,-14,-3,-6,-8,-24
1523148308309723,-10,-34,-7,-76,-18,-4,-5,-39
1523148308309723,19,1,29,88,40,6,10,15
1523148308310623,-20,5,-58,-45,-54,8,4,2
1523148308310623,13,19,25,18,-9,2,8,14
1523148308332786,8,29,-31,-45,-16,-16,-15,-11
1523148308332786,-5,-10,-8,-8,-15,-5,-4,1
1523148308333628,-25,-3,43,127,62,8,6,0
1523148308333628,-10,4,6,-22,0,6,6,-2
1523148308347163,-18,-4,-20,-69,-26,-10,-4,-4
1523148308347163,11,-6,25,67,12,4,1,5
1523148308347667,4,-18,6,63,17,-5,-1,-14
1523148308347667,-12,21,-24,-72,-13,-7,-16,15
1523148308369777,47,-9,30,-15,11,4,-1,32
1523148308369777,-59,-10,-11,-47,-14,-5,-1,-14
1523148308370227,1,-30,-15,-54,-11,2,7,13
1523148308370227,34,11,5,102,-8,-4,-1,-15
1523148308392941,-44,-1,2,22,10,3,1,-14
1523148308392941,11,-15,-25,-36,-35,-7,-7,18
1523148308393787,-1,16,10,-71,3,4,8,16
1523148308393787,0,-12,9,19,18,2,0,-1
1523148308406980,26,5,16,101,17,4,4,16
1523148308406980,12,0,-8,23,-12,-4,-5,-18
1523148308407826,7,9,-4,29,0,0,1,-14
1523148308407826,2,-4,-11,21,13,-1,-3,-22
1523148308437441,-2,-9,39,127,39,14,5,6
1523148308437441,-25,4,-34,-115,-48,-16,-5,-12
1523148308438413,-22,-14,6,61,11,3,15,-12
1523148308438413,7,15,15,22,15,1,-20,5
1523148308452490,6,-11,-2,60,6,3,10,-1
1523148308452490,27,-4,0,20,-4,-3,-7,-5
1523148308453450,-7,-7,6,-30,-3,-6,-8,9
1523148308453450,-9,-3,12,7,4,3,9,0
1523148308466983,-7,0,-15,-6,3,1,0,-8
1523148308466983,-4,16,8,13,-1,-5,-4,-1
1523148308467986,-8,-43,10,33,10,3,-5,3
1523148308467986,-10,5,4,46,13,1,3,2
1523148308489543,4,18,0,28,-2,-3,-6,0
1523148308489543,11,-7,-8,-26,-15,-3,4,5
1523148308490721,3,39,4,15,7,-1,-4,-4
1523148308490721,-30,-38,13,19,0,-1,2,0
1523148308512604,-6,-6,-22,-43,-6,-2,-2,-5
1523148308512604,21,0,-2,-17,1,0,-4,1
1523148308513607,-25,6,10,28,15,5,1,2
1523148308513607,13,1,-3,-53,-20,-6,-2,-6
1523148308526140,-5,10,6,-28,0,3,5,12
1523148308526140,-8,10,16,76,28,9,5,-12
1523148308534663,11,-4,-17,-115,-37,-7,-7,12
1523148308534663,-2,-12,-30,-56,-9,-10,-3,-11
1523148308549702,-76,-23,-9,9,-2,4,9,-33
1523148308549702,48,26,8,12,2,1,-2,27
1523148308550204,32,40,19,57,22,3,-2,5
1523148308550204,52,7,2,25,-4,3,1,-4
1523148308573003,-24,-9,-4,-55,-12,-6,-4,-11
1523148308573003,-5,-9,-6,-42,-2,-5,0,2
1523148308573266,-3,-8,3,27,6,2,1,-2
1523148308573266,-5,-8,-9,-6,-4,-1,3,-2
1523148308586508,21,8,4,7,-1,-2,-7,-1
1523148308586508,-2,-2,3,16,8,3,3,8
1523148308594386,9,-16,1,-1,-5,-4,-3,1
1523148308594386,3,19,-5,-16,1,-1,5,-6
1523148308609862,-17,-20,1,-10,1,1,-3,-10
1523148308609862,5,1,-2,-18,-8,-2,-9,15
1523148308610365,5,22,11,9,11,0,-1,-12
1523148308610365,0,-2,13,3,-5,3,2,7
1523148308632423,48,18,-6,-14,-17,-8,1,40
1523148308632423,31,15,3,15,23,-3,-13,-22
1523148308633427,45,12,-43,-11,-39,-3,4,11
1523148308633427,-1,-21,13,-9,-6,-1,-2,-6
1523148308646460,44,17,9,-1,-3,-3,-6,8
1523148308646460,-17,1,-1,-9,-6,1,4,-1
1523148308654482,-20,-31,9,28,41,5,0,10
1523148308654482,-23,6,1,-8,5,0,3,-27
1523148308669522,6,-22,-66,-34,-34,-2,-5,-6
1523148308669522,-31,25,-8,4,-5,2,10,57
1523148308670663,-71,-6,9,4,10,1,-8,-67
1523148308670663,10,-13,-2,3,-5,-2,6,22
1523148308692823,-33,-44,19,31,23,5,-10,-8
1523148308692823,22,31,20,17,12,8,10,-5
1523148308693829,30,-3,-11,-24,-3,1,2,13
1523148308693829,-38,-69,14,2,-12,-3,4,-10
1523148308715143,17,22,15,5,-17,-3,-2,4
1523148308715143,16,-28,-4,-10,-3,2,6,3
1523148308716145,-34,-7,-7,5,-5,-4,9,-37
1523148308716145,5,37,-3,1,11,3,-14,47
1523148308729847,49,28,2,1,5,2,7,5
1523148308729847,-37,-54,-12,2,-15,-8,-11,-29
1523148308730183,-22,-6,8,-9,6,1,2,-12
1523148308730183,-3,18,-1,-47,-8,-1,-6,-18
1523148308752983,-17,4,13,72,31,1,0,-6
1523148308752983,12,2,-21,-86,-20,-3,0,1
1523148308753244,29,-3,-6,75,0,-7,-5,19
1523148308753244,7,10,1,52,10,3,1,0
1523148308766280,-13,-2,2,80,19,3,-4,3
1523148308766280,-14,-14,-18,-19,-26,-8,-6,-26
1523148308774301,-2,1,17,97,16,11,2,17
1523148308774301,-6,-7,-20,-35,-32,-12,-7,-6
1523148308789388,-4,4,6,66,23,4,6,-8
1523148308789388,-68,-1,-4,-53,-8,-5,-6,-10
1523148308790344,36,-1,3,-30,-7,-7,-9,4
1523148308790344,4,6,-11,-7,-14,2,6,-3
1523148308813063,-18,-12,3,-12,-18,-5,-4,-4
1523148308813063,6,-13,7,89,17,1,-5,-7
1523148308813404,72,3,-12,-87,-24,-3,-4,0
1523148308813404,-11,11,12,17,17,2,7,-1
1523148308835539,-28,16,-7,-128,-20,-9,-10,8
1523148308835539,29,-21,3,59,14,3,4,-5
1523148308835964,-17,-6,-6,-12,-28,-3,6,31
1523148308835964,6,25,-8,62,5,-7,-20,-14
1523148308849502,0,-7,13,52,13,2,5,-5
1523148308849502,6,1,-9,-46,-2,0,0,-1
1523148308850503,-19,1,-5,22,0,-7,-5,-4
1523148308850503,27,-10,-14,-52,0,1,-1,5
1523148308872796,0,-5,4,-3,-10,-2,0,4
1523148308872796,-3,9,3,5,6,0,-2,-10
1523148308873773,-4,-15,30,115,21,8,3,0
1523148308873773,-29,-10,-31,9,-4,-4,1,2
1523148308895825,-9,14,6,34,9,3,-3,-22
1523148308895825,29,8,32,120,28,7,5,8
1523148308896125,-57,33,-4,-68,-10,-3,-1,2
1523148308896125,-45,-2,-39,-52,-48,-16,3,-3
1523148308909801,-6,-47,3,44,4,5,-12,21
1523148308909801,17,3,3,127,15,0,2,7
1523148308910162,-12,-10,-3,-17,-2,-2,-7,-7
1523148308910162,2,6,29,27,25,9,6,-10
1523148308932724,28,1,-32,20,-14,-9,1,-9
1523148308932724,-25,6,-11,-68,-15,-5,-4,18
1523148308933224,14,-7,5,-27,1,-2,-3,2
1523148308933224,15,1,0,-18,5,3,-1,3
1523148308963004,37,-10,15,-10,-13,0,4,4
1523148308963004,-24,-6,3,20,11,-1,-5,-6
1523148308963302,7,8,11,46,26,4,1,1
1523148308963302,0,11,-24,-58,-41,-11,-9,6
1523148308969395,28,36,2,-5,1,1,3,-3
1523148308969395,28,-10,4,-1,-6,2,4,-11
1523148308970323,20,3,-15,-22,-8,-4,-7,7
1523148308970323,-1,-10,33,96,30,6,1,-3
1523148308993026,-20,3,-9,-128,-17,-2,1,-3
1523148308993026,-32,-2,-15,-60,-14,-7,-5,-14
1523148308993383,-5,9,17,56,7,1,1,10
1523148308993383,14,-31,-4,-24,8,5,0,1
1523148309015441,0,20,26,82,8,2,3,-5
1523148309015441,18,-9,-34,81,-11,-6,-4,-3
1523148309015946,11,0,3,68,18,3,2,4
1523148309015946,33,11,14,-8,2,2,1,-10
1523148309029684,-77,-10,-9,0,4,-6,-3,22
1523148309029684,-9,3,32,16,13,8,4,-1
1523148309030481,-1,-6,-41,-73,-41,-12,-7,-6
1523148309030481,25,23,-1,19,1,1,7,-10
1523148309052738,-51,-7,-2,3,5,2,-9,1
1523148309052738,-45,-7,0,-19,-5,-4,-2,-8
1523148309053544,-7,5,7,1,-8,-4,-4,-9
1523148309053544,-16,-10,-7,-14,6,0,-3,3
1523148309075297,-5,-27,-21,-34,-4,-2,4,-11
1523148309075297,-4,34,-1,-25,-1,3,4,-1
1523148309076304,3,-6,7,-5,4,1,-5,8
1523148309076304,2,1,5,23,-2,-3,-4,0
1523148309089639,6,-44,-12,13,-4,-1,-2,-7
1523148309089639,82,-24,-18,0,8,1,2,6
1523148309090676,-55,-1,14,-1,0,-2,0,8
1523148309090676,49,16,0,28,12,4,0,-7
1523148309113402,24,30,-12,-24,-13,-2,7,25
1523148309113402,-72,39,17,-20,-1,-3,-11,1
1523148309113704,25,-10,2,-17,-11,-1,1,-1
1523148309113704,44,-45,-10,13,5,-2,-9,10
1523148309135262,-62,17,20,-3,-3,-2,2,-53
1523148309135262,26,-17,-10,-24,-28,-6,-1,11
1523148309135764,44,7,-10,8,4,-4,-4,2
1523148309135764,24,46,-12,10,-2,0,5,17
1523148309148911,3,5,4,-2,9,0,2,2
1523148309148911,-39,-54,0,2,1,-3,-6,10
1523148309157821,-10,25,11,-10,-2,4,-4,-9
1523148309157821,72,2,-1,3,1,-4,3,6
1523148309172860,54,56,9,0,4,2,1,39
1523148309172860,-22,-13,-5,-5,-5,0,1,-39
1523148309174366,46,8,-11,-5,3,-1,-1,8
1523148309174366,-43,11,38,15,-2,2,0,2
1523148309195420,-23,6,-9,-17,-17,0,0,-6
1523148309195420,24,13,4,21,14,-3,-3,2
