timestamp,emg1,emg2,emg3,emg4,emg5,emg6,emg7,emg8
1523178599336227,-8,-18,14,19,1,-5,-28,-76
1523178599336227,-5,5,-7,-11,-2,-2,-18,-44
1523178599336227,-4,-6,11,2,-3,-2,3,15
1523178599336227,4,6,10,18,1,0,-8,36
1523178599337200,10,8,-1,-18,-1,-5,27,32
1523178599337200,5,2,17,25,-2,-3,-11,36
1523178599338201,-4,-8,-36,-25,0,1,-3,-29
1523178599338201,-14,2,4,0,0,-4,-16,-89
1523178599349277,7,9,10,22,3,1,12,40
1523178599349277,-23,-15,-15,-9,-4,-8,-15,-55
1523178599358251,14,10,-1,-14,-3,2,8,82
1523178599358251,7,-1,1,2,-4,-7,19,-51
1523178599364317,-9,4,15,12,0,6,-18,7
1523178599364317,-11,-3,-14,-24,0,-7,25,52
1523178599379542,15,2,3,18,2,6,-17,-70
1523178599379542,-2,3,3,2,-1,-11,-20,9
1523178599387328,-9,3,0,-6,-2,4,2,-11
1523178599387328,11,1,5,0,-4,1,7,50
1523178599402378,-8,1,-14,-25,-1,-2,3,-8
1523178599402378,-15,-2,25,41,0,-1,-26,30
1523178599410390,5,4,4,4,3,1,-26,-84
1523178599410390,6,0,-33,-13,-5,0,22,80
1523178599423673,-17,-9,2,4,-1,-2,-28,-85
1523178599423673,8,4,-31,-41,-2,2,8,37
1523178599465537,-17,-4,-1,-3,1,4,10,-76
1523178599465537,2,3,-23,-3,-3,-6,-2,0
1523178599466538,6,-5,20,-14,-1,0,8,41
1523178599466538,-10,-6,-4,9,1,1,-5,-9
1523178599469553,13,7,5,-9,-2,-12,5,66
1523178599469553,-18,-10,8,18,2,3,25,-40
1523178599470571,-10,3,-22,-20,1,9,10,-96
1523178599470571,14,1,9,8,-3,-2,5,71
1523178599476565,10,3,-12,-12,-1,1,0,22
1523178599476565,-5,0,-3,-16,-3,-1,-20,-75
1523178599483584,-1,-8,-4,6,-1,-2,-11,49
1523178599483584,-3,10,9,11,5,3,-3,8
1523178599491606,-5,-16,-11,0,-5,-12,-36,-72
1523178599491606,16,14,8,-3,-2,-2,13,78
1523178599506745,6,0,-12,-10,3,22,20,-18
1523178599506745,-7,-9,19,9,-3,-3,17,14
1523178599513669,-11,1,0,19,3,9,5,84
1523178599513669,4,4,-14,-16,-3,-4,9,-83
1523178599538730,-12,-16,17,5,0,-8,-43,45
1523178599538730,6,7,15,-4,-5,5,25,-55
1523178599538730,-8,1,-19,-3,-2,-6,10,8
1523178599538730,4,-8,1,-25,-3,4,3,34
1523178599551997,19,11,-7,12,-2,5,44,79
1523178599551997,-13,-2,-13,-20,-1,-2,-19,-96
1523178599552774,-22,-2,36,41,5,-2,-10,-14
1523178599552774,-12,-4,2,12,-3,-12,-14,-42
1523178599574832,5,4,11,-5,-3,2,-22,18
1523178599574832,6,2,-5,-13,-4,-8,-5,36
1523178599574832,-4,-4,-21,-10,-4,12,-10,-68
1523178599574832,-3,5,-12,-2,3,6,16,57
1523178599598090,4,0,0,3,-4,-21,-25,-73
1523178599598090,-12,-2,11,16,9,15,-10,94
1523178599598090,14,4,-13,-28,-5,-3,-6,-90
1523178599598090,-20,-6,11,16,-3,-6,-36,33
1523178599612133,-18,-3,-8,-16,-3,-8,-8,-10
1523178599612133,5,1,-21,8,-6,-5,-6,11
1523178599612929,9,7,5,-31,2,2,43,27
1523178599612929,-2,-7,38,59,5,3,-12,-22
1523178599634199,-1,2,-18,-22,-3,-1,6,-20
1523178599634199,-13,-5,-6,-7,-4,-12,15,-59
1523178599634993,27,8,18,13,2,8,-3,7
1523178599634993,10,-5,-15,-31,-1,12,12,14
1523178599657084,-8,2,-2,6,1,-6,-5,-8
1523178599657084,9,-10,2,7,-2,-4,-4,23
1523178599658054,-9,1,-13,-8,-2,-1,47,-32
1523178599658054,-4,1,9,4,-1,5,-5,-35
1523178599672321,1,-5,17,13,0,1,-19,0
1523178599672321,20,0,-11,-4,4,6,19,45
1523178599672321,-12,-7,-8,-4,-1,6,-27,12
1523178599672321,-23,-10,-7,-9,-4,-10,-21,-30
1523178599694333,-1,10,13,13,0,-2,21,-1
1523178599694333,-7,-5,0,-12,-4,1,19,33
1523178599695155,-1,-1,0,5,-3,0,9,-34
1523178599695155,5,5,-17,-20,-2,-1,25,28
1523178599725230,3,-8,15,10,-3,-2,-2,-2
1523178599725230,-10,-3,-16,-12,-1,-5,-28,-37
1523178599726229,10,-1,9,12,1,-9,-12,68
1523178599726229,-1,3,3,3,-1,-2,4,-44
1523178599732246,1,7,-12,-6,-3,0,11,48
1523178599732246,-7,7,20,-10,-4,-8,0,-103
1523178599732246,-8,-17,-18,11,1,11,5,25
1523178599732246,6,-3,-24,-17,-9,-21,-21,3
1523178599755508,14,9,6,9,5,19,20,48
1523178599755508,7,-10,-8,3,-3,-6,2,18
1523178599755508,-17,-9,17,9,-7,-23,-54,-89
1523178599755508,12,21,6,1,3,0,6,45
1523178599777401,-11,-18,-7,-7,-2,-5,11,9
1523178599777401,3,5,-4,3,2,0,-19,1
1523178599778375,-5,-2,14,-11,-4,4,17,-11
1523178599778375,2,-5,-19,1,0,-1,-3,-1
1523178599791408,-3,1,3,-1,-1,4,0,13
1523178599791408,6,-4,-8,-10,-3,0,1,-19
1523178599792405,-1,2,1,-10,-1,-3,-13,59
1523178599792405,2,-4,21,11,0,1,-7,72
1523178599815506,-1,-2,-3,1,-3,-8,-7,-120
1523178599815506,-19,-11,-20,1,-2,-7,-30,67
1523178599815506,13,9,8,-8,2,8,31,22
1523178599815506,16,-6,-15,-5,1,9,-3,78
1523178599837757,-5,5,-2,-5,2,-6,44,13
1523178599837757,-1,10,-4,3,-2,10,-37,-94
1523178599838538,6,-4,1,-1,1,-9,-8,39
1523178599838538,2,-5,6,-2,0,5,-17,-4
1523178599851701,5,-5,-11,-35,-3,0,1,60
1523178599851701,6,6,10,33,0,-20,-15,3
1523178599859591,-18,3,13,31,3,10,11,-56
1523178599859591,-1,-3,-19,-9,0,4,6,61
1523178599874629,9,-1,-25,-11,-5,2,-14,-39
1523178599874629,-11,-1,8,-21,-3,-4,10,11
1523178599874629,5,4,17,0,-1,-2,-12,45
1523178599874629,-5,-10,-54,-27,-4,-6,8,-53
1523178599897898,-13,3,46,38,1,-12,-33,-15
1523178599897898,-7,1,9,7,0,1,0,-30
1523178599898689,13,-5,-3,11,2,1,9,30
1523178599898689,-9,0,13,-3,0,9,17,-36
1523178599910993,-10,-8,-11,-15,-3,-3,-22,8
1523178599910993,11,-1,0,-1,0,5,0,12
1523178599919916,-2,0,2,-5,-6,-8,-13,-2
1523178599919916,7,3,-25,-42,-3,0,7,-39
1523178599934972,10,3,31,56,3,-8,-16,-27
1523178599934972,-30,-7,-4,-4,3,12,15,29
1523178599935787,-2,0,-19,-4,-5,-4,-17,-4
1523178599935787,10,-2,7,2,2,-1,-1,14
1523178599957848,-5,-3,3,-16,-2,-7,12,0
1523178599957848,-13,-1,2,12,1,12,15,-39
1523178599957848,11,10,12,-2,0,-2,6,33
1523178599957848,1,-11,-26,-5,-2,2,9,14
1523178599971109,-2,-1,7,21,1,4,1,-29
1523178599971109,2,-13,-16,-25,-3,-9,5,41
1523178599980069,13,-4,-10,-13,2,2,9,-4
1523178599980069,3,4,50,60,2,0,-9,25
1523178599993976,-7,0,-20,-18,-2,-5,-3,-38
1523178599993976,0,-2,-24,-37,-7,-6,6,-103
1523178599994944,-11,-8,11,-12,0,-4,-16,40
1523178599994944,-5,-1,9,40,2,-7,7,20
1523178600018002,3,-3,-23,-12,-4,2,4,54
1523178600018002,16,6,4,-18,0,-1,0,42
1523178600018002,-5,-6,-13,2,0,2,1,-57
1523178600018002,6,8,-1,-6,-1,-3,-8,11
1523178600031264,-21,-20,-7,12,0,-2,4,-49
1523178600031264,3,-2,-13,-8,-4,-2,-11,1
1523178600039337,3,8,-2,-14,-4,-3,-4,20
1523178600039337,-6,-1,23,19,1,-12,-22,12
1523178600054258,22,0,-19,-8,0,6,-16,9
1523178600054258,-30,-9,7,13,-1,2,17,-73
1523178600062399,-6,3,9,-7,-1,-3,18,47
1523178600062399,8,-10,-21,-5,-4,-2,6,0
1523178600078163,-4,12,4,-15,-1,10,8,-9
1523178600078163,8,-5,8,6,-4,-9,-8,53
1523178600078163,-7,-5,-23,9,0,-3,-17,-45
1523178600078163,-2,5,-7,-20,-3,-2,-3,22
1523178600100465,-27,-11,7,0,0,-4,16,-58
1523178600100465,35,11,19,14,5,8,22,76
1523178600101223,-1,-4,-25,0,-4,-5,-16,-88
1523178600101223,0,-3,9,-26,-4,-7,-4,34
1523178600114496,6,7,0,20,0,-1,-3,24
1523178600114496,-12,6,12,-1,0,-1,-6,-12
1523178600115263,-16,-16,-46,-21,-3,0,14,25
1523178600115263,-3,4,41,5,1,-2,-1,-32
1523178600137607,5,3,-9,7,1,3,2,-7
1523178600137607,1,5,-18,-6,3,6,-2,62
1523178600138325,-9,-13,9,21,-3,-16,-29,-77
1523178600138325,1,0,-5,-10,-1,-6,-8,-46
1523178600151458,5,9,6,-5,-2,4,10,32
1523178600151458,14,-2,0,4,0,-3,6,45
1523178600159467,7,-2,-1,-12,-2,-13,-18,22
1523178600159467,-8,2,7,16,0,4,-3,-54
1523178600174419,-8,2,1,-17,0,0,8,26
1523178600174419,0,-10,-20,-4,-1,-8,-11,35
1523178600175422,31,5,11,-5,-2,4,-6,-41
1523178600175422,-15,-14,7,15,-2,1,24,2
1523178600197479,0,1,-16,-6,-4,-10,-29,23
1523178600197479,-6,-2,-1,-23,-1,-3,-3,-13
1523178600198481,3,7,12,3,-1,7,17,10
1523178600198481,5,5,7,-4,-2,-11,-8,-12
1523178600211516,-2,2,12,5,2,11,9,-11
1523178600211516,-9,-2,-3,-4,0,-1,0,-68
1523178600219540,10,5,18,5,-2,-10,-31,43
1523178600219540,-13,-10,-6,2,0,2,19,-76
1523178600234579,5,2,11,-9,-2,-5,-4,28
1523178600234579,-5,9,7,10,0,-8,-20,-53
1523178600234579,2,0,1,0,2,3,50,61
1523178600234579,0,6,-12,-9,1,5,-8,59
1523178600257645,17,-3,15,5,0,-9,14,-39
1523178600257645,-4,3,-9,-26,-3,13,-1,14
1523178600258642,-30,-12,20,39,0,-3,4,-40
1523178600258642,-2,0,5,9,-1,-3,-12,28
1523178600279698,2,4,-12,-15,-1,7,31,37
1523178600279698,13,-13,-11,4,-6,-6,-1,23
1523178600280702,1,9,8,-17,-1,-1,-6,-52
1523178600280702,-3,-11,-2,-10,-2,2,-10,10
1523178600294737,-21,-12,-4,7,-4,-11,-49,-1
1523178600294737,-7,-2,-9,-12,-1,-2,-12,-66
1523178600294737,8,16,13,35,0,7,9,89
1523178600294737,-11,-10,1,-10,-4,-8,-18,-82
1523178600318036,7,-5,-8,-2,0,-2,2,93
1523178600318036,5,7,-3,0,-1,1,-4,-45
1523178600318954,-23,-12,-12,-42,-6,-5,36,19
1523178600318954,4,4,1,28,6,10,-22,51
1523178600339856,-3,-12,-14,-8,-4,-4,0,-31
1523178600339856,-2,2,1,6,-3,-4,15,-25
1523178600340860,2,7,0,-4,-1,-7,-41,28
1523178600340860,8,4,-4,-1,-1,6,45,18
1523178600354085,-2,2,0,-10,-5,0,-18,-94
1523178600354085,0,-3,25,4,1,9,0,97
1523178600354897,2,-1,0,3,1,-1,-5,3
1523178600354897,13,5,13,18,1,0,-5,-13
1523178600378036,-33,-1,-19,-6,-3,-8,-22,-101
1523178600378036,-21,-2,2,8,2,1,-12,23
1523178600378036,1,-9,-32,-38,-4,4,-7,33
1523178600378036,13,-2,10,-19,1,1,15,74
1523178600400019,13,8,11,40,1,8,26,10
1523178600400019,-26,-15,-2,-2,-4,-11,6,-71
1523178600401022,10,3,-4,7,6,12,3,16
1523178600401022,-6,4,-4,-12,-3,-2,4,6
1523178600414061,-3,-11,7,-14,-4,-7,-13,-36
1523178600414061,-3,-2,-21,3,-3,-4,12,54
1523178600415059,-1,6,3,-2,3,3,2,-16
1523178600415059,-7,-3,15,34,0,-7,-18,-12
1523178600445489,6,-5,-9,-3,-2,-4,14,50
1523178600445489,-1,-2,-47,-4,-2,0,-15,-83
1523178600446142,-10,-3,-7,-13,-2,-5,-11,-17
1523178600446142,-7,-7,-11,-19,0,6,-14,-31
1523178600460240,14,11,15,-5,0,1,19,101
1523178600460240,21,-5,5,4,-1,-2,-5,-22
1523178600461182,-2,-9,-13,-1,-3,-2,-10,46
1523178600461182,-16,-3,-1,-14,-2,2,5,-51
1523178600482328,2,-4,7,12,0,-3,-20,2
1523178600482328,22,14,11,10,3,3,-6,96
1523178600484242,-1,0,-4,-11,-1,0,-7,-112
1523178600484242,-10,0,-12,-16,-5,-12,16,42
1523178600505297,-5,-4,-5,13,4,10,-13,-38
1523178600505297,12,7,-6,-30,-1,6,30,44
1523178600506301,-7,-17,34,41,0,-2,2,45
1523178600506301,2,11,-21,0,3,0,-4,-101
1523178600520337,-8,0,-1,3,0,-5,15,-13
1523178600520337,-6,3,15,-3,-2,-3,-5,9
1523178600521340,-1,-6,-9,-10,-4,-9,-16,16
1523178600521340,3,0,1,-5,0,3,-5,-29
1523178600542448,7,0,-1,-16,-3,-5,3,71
1523178600542448,-3,0,23,36,0,-4,13,-50
1523178600544453,-3,-1,-30,-13,-3,-2,-14,-17
1523178600544453,-5,-4,-6,-25,-3,0,-6,76
1523178600556433,-2,4,11,28,0,-3,0,-57
1523178600556433,-2,-16,7,10,-2,-7,-6,87
1523178600565458,-6,2,-2,-5,0,6,9,-89
1523178600565458,-4,0,-2,0,-3,1,-7,16
1523178600579494,-3,5,-22,-9,1,6,5,40
1523178600579494,7,-5,13,-4,0,2,12,13
1523178600581500,2,4,1,12,-4,-7,24,13
1523178600581500,-1,-13,-2,-8,-2,1,-28,-40
1523178600602556,-10,2,1,-20,-1,-7,-23,-35
1523178600602556,-10,-4,-23,2,1,-5,-21,-4
1523178600603558,14,6,18,8,0,27,41,75
1523178600603558,-3,-3,17,8,-2,-2,28,-73
1523178600615624,-2,1,3,3,0,-6,-18,65
1523178600615624,7,-1,-7,12,2,1,1,23
1523178600624633,-13,-1,-11,-27,-2,-9,-18,-57
1523178600624633,16,5,7,3,1,10,42,80
1523178600647736,-12,-24,-16,-1,-3,-2,-12,-27
1523178600647736,-1,4,24,-10,-2,-1,0,-25
1523178600648682,13,-2,-22,8,0,3,25,50
1523178600648682,-4,3,-10,-3,-2,-6,-5,-47
1523178600662888,7,4,-4,-4,0,-1,-1,-3
1523178600662888,3,-3,1,27,-1,-2,9,33
1523178600663820,-3,1,13,-7,2,-1,-3,0
1523178600663820,-9,2,-4,13,1,-9,-26,-27
1523178600675783,13,2,5,-24,-4,5,16,64
1523178600675783,-24,-2,-44,-33,-6,-8,-35,-128
1523178600685150,-21,-5,6,23,1,0,12,15
1523178600685150,4,-2,-6,-3,-2,-1,-4,87
1523178600700203,9,6,8,5,0,-15,-26,44
1523178600700203,7,2,13,-10,-2,13,15,-41
1523178600701857,-11,-10,-9,2,-1,-6,-21,-14
1523178600701857,-10,1,5,20,2,-5,-3,14
1523178600721873,5,7,20,7,2,4,26,-53
1523178600721873,-7,-15,-31,-25,-5,-5,-15,35
1523178600723879,8,4,-4,-11,-2,-1,-8,-18
1523178600723879,-2,4,3,3,0,-4,-13,-10
1523178600735911,-2,-1,30,26,-1,-1,15,47
1523178600735911,9,7,-9,5,4,10,17,50
1523178600744935,4,-7,-3,-6,0,1,8,-80
1523178600744935,-18,4,15,-9,-6,-12,-5,27
1523178600760019,-2,-9,-28,-11,-2,17,-2,43
1523178600760019,0,-2,12,-18,-2,-6,-11,2
1523178600761980,6,1,17,52,1,-3,-5,75
1523178600761980,15,11,0,-12,0,1,4,-31
1523178600783071,-9,-8,-22,-17,0,-7,-10,-66
1523178600783071,8,4,12,12,0,5,26,43
1523178600784038,2,5,-4,-19,0,4,-16,-22
1523178600784038,-10,-17,-2,-2,-1,-7,-13,-46
1523178600805329,0,3,-10,3,1,-1,3,-27
1523178600805329,-3,6,17,11,-2,-6,-31,13
1523178600806099,-8,6,-4,-12,-3,-8,-13,-10
1523178600806099,16,1,-10,-2,-3,7,13,-36
1523178600820371,3,-2,12,-1,-1,-4,4,38
1523178600820371,-2,5,-17,7,-1,-3,44,-61
1523178600821376,-3,0,6,10,2,4,-15,16
1523178600821376,-9,-2,-3,-2,-3,-1,-4,-42
1523178600842406,-2,-7,-7,-8,-2,-1,-15,17
1523178600842406,3,4,6,5,-1,-19,8,14
1523178600844200,6,0,-19,-25,-3,8,30,39
1523178600844200,15,0,8,3,2,11,17,80
1523178600865641,-17,-1,-31,5,-4,-6,-9,-128
1523178600865641,-16,-20,16,-17,-5,-7,-56,-10
1523178600867260,-10,-2,-1,9,1,-5,-2,22
1523178600867260,20,-4,-5,-9,-2,2,-3,35
1523178600879358,3,9,13,-1,1,-1,-2,82
1523178600879358,2,4,10,9,0,4,-16,-94
1523178600887708,-1,-5,-13,-18,-2,-6,-17,-9
1523178600887708,-2,0,0,14,3,1,16,44
1523178600902761,3,0,5,9,1,2,6,61
1523178600902761,6,1,-4,8,2,2,-23,-18
1523178600904358,-27,-14,-9,-3,-6,-2,8,-86
1523178600904358,-14,10,-1,-4,0,2,-5,-6
1523178600925413,-4,-21,-48,-36,-10,-7,-6,-13
1523178600925413,2,-1,14,22,1,-2,-6,87
1523178600927420,18,3,7,-6,2,9,27,32
1523178600927420,-17,-4,1,0,-2,-8,4,-71
1523178600939493,-8,0,11,19,1,7,27,-6
1523178600939493,17,10,-14,-35,0,4,2,67
1523178600946854,-15,-9,55,73,2,-11,-28,-62
1523178600946854,-1,-8,-22,-23,-3,-4,6,40
1523178600962898,5,5,-3,-3,2,10,17,-36
1523178600962898,-25,-13,-16,-7,-3,-2,-1,-5
1523178600964625,15,5,1,-21,-3,-9,10,57
1523178600964625,-4,3,2,6,1,-1,-24,-12
1523178600985819,-4,-12,6,-4,-8,-10,-4,-73
1523178600985819,11,12,18,10,1,5,1,-4
1523178600987579,-11,-18,-39,-31,-5,-2,5,-36
1523178600987579,10,-1,9,8,-2,-1,-12,59
1523178601000016,7,4,-5,6,0,1,4,-5
1523178601000016,-16,2,20,17,0,-3,8,-58
1523178601005908,14,-5,6,-1,0,-6,-16,83
1523178601005908,-1,0,-21,-14,-1,7,18,-55
1523178601022707,-10,-1,44,16,2,1,-17,-42
1523178601022707,0,-2,-12,0,-1,1,-19,-13
1523178601023680,13,7,-15,-8,1,0,-8,36
1523178601023680,10,1,-12,-10,-3,4,21,66
1523178601045110,-14,-11,-7,-14,-4,-6,-18,-44
1523178601045110,0,-4,13,2,-1,-1,10,-8
1523178601046738,6,7,-11,0,0,-3,1,7
1523178601046738,-6,-14,-9,0,0,-2,13,5
1523178601060162,-5,-2,10,-16,-5,-6,-6,-59
1523178601060162,-3,-1,11,28,3,-1,-8,34
1523178601066834,-10,2,17,-1,-1,4,16,31
1523178601066834,-2,-2,-33,-8,-3,-1,-8,-12
1523178601083166,-3,6,-8,-5,1,-3,-15,-11
1523178601083166,4,-7,-4,-13,-6,-14,-27,33
1523178601083838,2,14,22,-3,0,10,-8,-51
1523178601083838,0,5,50,24,1,-1,13,15
1523178601105205,1,0,-47,-13,-2,0,18,31
1523178601105205,7,-1,-7,-8,-3,-4,9,10
1523178601106897,3,5,-6,3,3,2,2,15
1523178601106897,-8,-1,-9,-7,-5,-9,-31,-39
1523178601119973,3,-4,14,14,2,3,23,39
1523178601119973,-8,1,-2,8,1,2,16,-64
1523178601126981,-5,-7,-16,-14,-5,-6,4,38
1523178601126981,19,6,1,-3,3,12,20,99
1523178601143276,-4,-2,5,-12,2,0,-14,-77
1523178601143276,-14,-4,-13,-9,-4,-2,-27,24
1523178601143996,-1,-1,18,28,1,-1,13,-42
1523178601143996,2,-2,-5,-12,2,13,-2,26
1523178601165378,2,4,7,11,-2,-3,10,83
1523178601165378,-3,-3,-6,-17,-2,10,-4,-71
1523178601166056,4,-6,0,-6,-2,-4,-27,8
1523178601166056,-8,0,-3,-9,-1,-9,5,-6
1523178601179219,2,0,-3,7,-3,-5,-28,9
1523178601179219,0,4,29,10,0,1,12,-48
1523178601186407,-3,-3,-28,3,-4,-9,-26,-9
1523178601186407,5,0,3,-1,-2,4,30,23
1523178601203554,0,-2,-3,-15,-1,1,12,33
1523178601203554,2,4,7,18,1,0,-10,-22
1523178601204158,-15,15,-3,-11,-2,-7,-29,-67
1523178601204158,1,-6,13,12,1,-2,-10,-1
1523178601225213,8,2,-19,2,3,5,2,74
1523178601225213,-3,-2,-10,-8,-5,-6,16,-23
1523178601226214,-1,3,-7,-8,-4,-3,-7,-19
1523178601226214,-4,-1,2,2,-2,-4,-10,-50
1523178601239283,2,3,17,3,-2,-12,-10,31
1523178601239283,5,-6,-11,-6,-1,5,15,71
1523178601246539,8,2,9,-3,-1,-5,15,2
1523178601246539,-13,-7,-9,0,-3,-6,19,-87
1523178601262579,-10,2,10,-1,1,-6,-31,-21
1523178601262579,10,-5,-7,2,-2,-2,3,92
1523178601264318,-8,-7,-16,-2,0,8,16,-64
1523178601264318,-9,-4,-2,-1,-4,-7,-22,5
1523178601285406,5,12,2,-4,0,2,17,48
1523178601285406,-5,-24,-4,-17,-5,-8,6,-81
1523178601286375,2,10,17,9,3,-1,-12,68
1523178601286375,2,-2,4,2,2,-4,-16,-5
1523178601298731,4,-4,-19,-3,-2,5,-1,-2
1523178601298731,-9,-2,-3,-8,-1,3,16,44
1523178601307436,10,3,5,4,1,16,8,29
1523178601307436,-9,-4,-4,-5,-3,-8,6,-35
1523178601322504,-3,-5,4,5,-1,-5,-25,0
1523178601322504,8,14,-5,7,5,23,25,-58
1523178601324524,-20,-29,-7,-15,-6,-5,8,73
1523178601324524,6,16,5,-2,0,4,-15,14
1523178601345577,-17,-13,-30,-1,-5,-8,-10,-67
1523178601345577,-1,2,18,7,4,6,14,63
1523178601346538,-1,-4,-13,-8,1,-1,17,-21
1523178601346538,18,6,-4,-3,-2,-9,-29,60
1523178601358566,2,15,17,-19,-5,-6,19,-46
1523178601358566,-13,-6,-19,7,2,-5,-20,-19
1523178601367592,3,-3,-11,-25,-5,3,-9,-6
1523178601367592,-11,-13,16,7,-3,-19,6,-9
1523178601382962,2,4,25,69,5,14,27,4
1523178601382962,1,9,5,-15,1,-8,-8,-14
1523178601383634,-2,-5,-20,-8,0,-3,-21,-32
1523178601383634,8,0,-28,-26,-4,4,-3,73
1523178601404980,-3,-10,-2,-31,-5,-3,-10,-103
1523178601404980,8,1,19,26,-5,7,54,95
1523178601406694,7,10,7,11,2,-8,-2,-14
1523178601406694,-21,-25,5,23,-4,-16,-23,-43
1523178601419051,-2,-4,-15,-15,-1,8,1,-7
1523178601419051,7,15,-21,-23,-4,-5,-5,8
1523178601427750,9,-13,-34,-14,-4,-21,-25,85
1523178601427750,3,8,-3,1,6,25,-1,-87
1523178601443033,-21,-5,-10,0,-5,-9,-27,-30
1523178601443033,0,-1,14,-4,1,-6,-32,16
1523178601449101,10,10,15,16,1,8,32,22
1523178601449101,5,1,-17,-3,-2,-1,-3,2
1523178601465159,4,2,-9,-7,-1,-2,10,20
1523178601465159,-10,-19,-26,-36,-4,-1,-22,-28
1523178601466854,-2,2,44,44,1,-2,18,52
1523178601466854,-6,-7,0,16,-2,-23,-32,-34
1523178601479192,2,-2,4,-14,1,7,5,12
1523178601479192,4,6,4,3,1,-4,-3,-37
1523178601487912,-7,2,-27,-20,-1,6,27,-4
1523178601487912,0,-17,2,-5,-9,-17,-19,-32
1523178601503256,-10,-6,9,4,4,0,-23,14
1523178601503256,14,-3,6,13,0,5,7,112
1523178601503953,-3,11,18,0,0,2,21,-121
1523178601503953,1,11,-36,-13,-1,18,20,50
1523178601525330,7,-2,4,-3,-6,-8,3,69
1523178601525330,-7,-20,-39,-6,-3,2,1,-84
1523178601527013,0,7,12,-27,-1,-2,-27,1
1523178601527013,4,11,37,80,10,4,15,73
1523178601538386,-8,-10,-4,-8,-1,-7,-11,-66
1523178601538386,-7,4,-1,-5,-5,-3,-17,-33
1523178601547381,5,-18,7,-15,-5,-8,-12,69
1523178601547381,-7,-10,-34,-28,-2,7,48,-74
1523178601562391,-7,-6,-10,11,-2,0,-37,42
1523178601562391,-1,-4,14,9,0,-10,-12,-22
1523178601564113,-11,-4,-9,3,-2,1,-6,-88
1523178601564113,16,8,17,-22,-1,0,12,120
1523178601585467,4,2,21,29,6,3,21,-52
1523178601585467,-11,-19,-62,-24,-8,-8,-1,-4
1523178601587173,3,-6,10,16,0,2,-8,12
1523178601587173,4,13,1,-13,0,3,-6,-8
1523178601599420,9,7,-20,-18,1,0,6,65
1523178601599420,1,7,27,4,-2,3,0,-64
1523178601607227,-8,-5,-3,4,2,7,18,87
1523178601607227,-14,5,12,-1,-4,-9,-1,-110
1523178601622268,3,3,-8,-5,-1,-3,-12,70
1523178601622268,10,1,14,9,0,3,9,102
1523178601624275,-1,5,-4,-9,-1,6,1,-85
1523178601624275,-6,3,0,5,1,0,2,47
1523178601645625,5,-2,8,4,-2,-1,5,-13
1523178601645625,3,4,-4,1,-1,-2,7,-15
1523178601646332,8,-1,-1,0,1,-9,-24,1
1523178601646332,-35,-10,10,13,-3,-6,-20,-61
1523178601658700,-4,4,-2,0,0,4,1,-31
1523178601658700,5,4,5,2,-2,-4,29,51
1523178601667603,-1,-16,-9,-8,-4,-6,-14,-24
1523178601667603,17,7,5,-8,3,11,22,14
1523178601682704,-12,-8,-1,-1,-2,-8,-1,-12
1523178601682704,-7,12,4,-8,3,7,33,-19
1523178601684433,-2,-2,-18,2,-1,1,-31,0
1523178601684433,0,-16,-6,-8,-3,-3,-20,4
1523178601705488,2,1,15,0,-7,-19,-20,4
1523178601705488,3,1,-17,5,3,7,-15,39
1523178601706490,-11,-21,18,-12,-5,-6,-3,-42
1523178601706490,-7,9,13,27,1,4,-3,-36
1523178601734886,9,-4,-17,-18,-1,1,3,55
1523178601734886,-2,3,10,3,2,-5,-23,-22
1523178601736570,-5,4,-35,-15,-2,-1,5,34
1523178601736570,4,0,3,-13,-1,-2,-11,-48
1523178601742888,-3,-4,-1,-4,-3,-10,-9,37
1523178601742888,-3,-3,10,0,1,14,-3,-41
1523178601743590,11,-1,-15,12,1,3,14,87
1523178601743590,-6,-2,1,-10,-3,-6,4,-64
1523178601764986,-9,2,22,-1,2,11,28,-17
1523178601764986,-5,-5,-17,0,0,1,-22,58
1523178601766650,13,7,19,29,3,2,11,-50
1523178601766650,17,4,-10,-18,1,-12,-13,80
1523178601787821,-25,8,-1,9,-1,15,40,-49
1523178601787821,-3,-19,12,-17,-4,-13,1,61
1523178601788709,-18,-7,-6,13,1,10,-11,-116
1523178601788709,4,-3,-6,6,-5,-9,-8,62
1523178601802857,21,8,-16,-5,2,-4,-11,-4
1523178601802857,1,7,13,10,-1,9,10,-23
1523178601803768,-7,1,10,-7,-3,-8,-2,1
1523178601803768,6,-10,-1,-8,1,9,-5,-28
1523178601823803,3,-6,-16,-2,-4,0,15,78
1523178601823803,-5,3,7,3,-3,-16,-32,-111
1523178601832829,-2,0,14,2,3,2,-12,66
1523178601832829,2,-3,-14,-5,1,0,-43,16
1523178601848101,-1,-12,-19,-23,-5,4,2,-19
1523178601848101,-7,6,35,20,-1,-12,-25,-49
1523178601848873,-3,7,-3,13,-2,-2,18,-13
1523178601848873,-9,-13,15,3,0,-3,-3,33
1523178601862932,17,2,-15,-10,1,12,12,4
1523178601862932,-4,-4,-33,-14,-6,-11,-19,-48
1523178601863962,-9,-5,-5,-10,-4,-10,-4,36
1523178601863962,2,7,13,-10,2,18,54,40
1523178601885235,-7,-4,10,20,0,-3,-16,-73
1523178601885235,12,1,-24,-27,-1,-2,-1,111
1523178601886972,-5,5,15,44,1,5,13,-107
1523178601886972,-3,-5,-26,-25,-7,-14,-17,18
1523178601908082,4,6,10,-12,-3,4,-17,18
1523178601908082,-3,-2,1,15,-1,-9,-41,33
1523178601909033,4,6,-10,-36,-3,-1,2,-49
1523178601909033,-2,-7,10,-21,-3,-2,14,6
1523178601922064,-7,-1,-10,48,5,-7,3,-7
1523178601922064,1,5,5,4,2,-8,-32,-22
1523178601928348,8,-10,2,-18,-2,10,41,40
1523178601928348,-3,-4,-2,3,-1,2,10,-13
1523178601945412,2,0,8,-4,1,0,4,34
1523178601945412,-12,-6,8,5,-4,0,17,-15
1523178601946129,18,11,-2,4,1,-5,-3,32
1523178601946129,-19,3,-19,1,2,6,-2,-91
1523178601968232,6,-9,7,2,-3,-6,-28,22
1523178601968232,7,2,-10,-8,4,25,63,31
1523178601969190,-17,2,29,26,-3,-18,-53,-38
1523178601969190,17,9,5,10,3,7,14,95
1523178601982501,-7,-4,-24,-17,-1,4,-4,-106
1523178601982501,2,-4,-28,-55,-4,-4,-6,23
1523178601988295,-5,0,34,52,0,-3,-5,12
1523178601988295,-6,-5,-6,2,-3,-4,-9,-26
1523178602005286,-7,0,15,1,-1,-7,-3,-86
1523178602005286,-2,-3,1,-4,-2,7,14,40
1523178602006290,13,-8,-31,-35,-3,2,17,71
1523178602006290,5,3,22,0,-2,-17,-29,41
1523178602026587,-10,-5,-1,19,-1,-5,-2,-40
1523178602026587,1,8,3,-10,-1,2,25,-35
1523178602035365,12,16,19,1,3,-3,-17,88
1523178602035365,-24,-16,4,56,1,13,26,-128
1523178602042500,9,3,2,-29,0,12,-19,119
1523178602042500,5,5,0,16,2,-9,9,76
1523178602049442,-9,2,-9,-13,-2,3,-2,-94
1523178602049442,-3,0,-46,-21,-4,1,0,21
1523178602065718,-1,2,15,2,-3,-10,-11,31
1523178602065718,-8,-3,9,26,0,1,-3,-27
1523178602066449,12,-10,-27,-19,-3,2,16,107
1523178602066449,-11,-7,-5,-24,-5,-10,-15,-62
1523178602087777,0,2,-10,-19,-2,-1,-2,-11
1523178602087777,-2,-15,30,20,-3,-11,-18,-34
1523178602089508,-8,-6,-22,10,-1,-10,-26,-37
1523178602089508,16,12,8,-3,1,5,-5,103
1523178602101728,14,5,-7,-9,-2,7,39,53
1523178602101728,-6,-3,-4,-18,-5,8,-4,-113
1523178602108873,-22,0,1,-9,0,-4,-20,-13
1523178602108873,-1,-1,-7,12,1,7,10,40
1523178602125685,4,-8,17,-3,-2,-1,36,72
1523178602125685,-12,-15,-21,3,-4,-8,-35,-36
1523178602126609,-3,5,16,-3,0,-1,0,-32
1523178602126609,-2,5,1,5,1,-3,-14,42
1523178602147927,7,1,0,-1,-2,-5,13,-66
1523178602147927,9,9,4,6,2,3,19,116
1523178602148668,-20,-11,-20,-13,-6,-6,-14,-123
1523178602148668,15,4,1,-21,-1,-5,-2,106
1523178602162940,-9,-2,9,4,1,-5,-2,-11
1523178602162940,-16,-11,-1,29,-2,-2,-1,-43
1523178602170036,18,11,-1,-13,2,3,18,71
1523178602170036,6,-4,-21,-29,-7,2,5,-17
1523178602184992,7,9,26,25,0,-2,4,12
1523178602184992,-10,-6,-12,15,2,-24,-37,6
1523178602186769,-20,-15,-8,-9,0,11,30,-35
1523178602186769,-5,-5,-8,-6,-3,-6,-15,-43
1523178602208023,-7,-2,-2,-8,-5,5,7,18
1523178602208023,22,13,25,-3,2,2,13,100
1523178602208830,-1,-8,-23,-2,-2,-6,3,-64
1523178602208830,-6,-5,-12,1,-2,-2,22,50
1523178602221161,-2,-1,-10,-10,-1,-12,-31,-60
1523178602221161,1,9,14,10,4,27,38,-8
1523178602229882,10,-1,9,-11,3,2,-2,106
1523178602229882,-25,-16,23,5,-6,-8,-27,-128
1523178602245183,4,0,3,26,2,-7,-11,59
1523178602245183,3,-9,-15,-20,-5,-11,-12,0
1523178602246928,4,13,-3,-3,1,2,5,26
1523178602246928,7,-4,-6,-5,2,1,2,-11
1523178602268196,-13,-10,-10,-1,-4,-3,3,10
1523178602268196,-14,-4,-1,-7,-5,-11,-7,-95
1523178602268987,9,3,-2,-8,-1,-2,-3,17
1523178602268987,18,9,21,21,3,1,-12,115
1523178602281302,-16,-9,-31,-24,-1,7,43,-128
1523178602281302,-13,-2,-17,-10,-6,-7,-37,47
1523178602290043,-2,-2,29,15,-1,-4,16,16
1523178602290043,-1,4,-3,1,-1,3,5,-7
1523178602305083,0,-1,-4,3,0,-4,-5,79
1523178602305083,7,3,6,-10,0,6,10,-64
1523178602306084,-1,-3,-16,-12,-2,1,8,27
1523178602306084,-12,-14,4,8,1,-7,-17,-65
1523178602328142,5,1,-5,0,0,5,-6,-6
1523178602328142,2,-3,0,-11,-1,-5,5,9
1523178602329146,2,6,33,20,-1,3,-11,-5
1523178602329146,0,-5,-31,-24,-1,-5,3,18
1523178602341416,-3,1,12,21,2,0,-19,5
1523178602341416,-3,0,-3,9,3,13,11,12
1523178602350204,5,4,4,0,-1,0,5,-66
1523178602350204,-5,-4,-11,-2,-5,-5,-9,-17
1523178602365519,7,4,-1,-33,-2,-6,-32,14
1523178602365519,0,6,35,68,7,18,38,-9
1523178602366247,-1,-17,-29,-18,-2,-8,-24,43
1523178602366247,5,14,6,-5,-3,9,-16,28
1523178602387586,0,-1,-7,-9,0,4,-7,-58
1523178602387586,13,-9,-26,-15,-5,-5,5,34
1523178602389305,-3,0,-2,6,0,-3,-21,-20
1523178602389305,-3,6,8,14,1,-7,14,-52
1523178602401610,-11,-3,-5,-12,-6,-8,19,7
1523178602401610,5,8,17,1,3,5,-4,-16
1523178602410363,2,-1,-34,-5,-2,2,10,-25
1523178602410363,-13,-14,-12,-12,-3,-10,4,19
1523178602425717,-6,5,31,17,-3,-2,-27,-22
1523178602425717,1,2,-11,-24,-3,-8,24,39
1523178602426406,-1,0,12,19,-1,-5,-10,8
1523178602426406,-4,9,14,3,-1,-5,-30,-88
1523178602447747,7,-3,4,5,6,11,22,44
1523178602447747,6,0,4,3,-1,4,7,76
1523178602449466,-1,-3,-4,-34,-2,9,-13,-36
1523178602449466,-5,-1,11,24,0,-4,-11,-67
1523178602461762,-13,-15,-2,21,2,5,23,31
1523178602461762,6,6,0,-20,-2,-6,-22,16
1523178602470521,5,2,-6,-4,-1,-10,7,-14
1523178602470521,1,-8,-6,1,2,28,56,75
1523178602485607,1,10,-23,-31,-6,-9,-50,-112
1523178602485607,-11,-9,-8,7,-2,-2,8,44
1523178602486567,1,0,8,9,-1,-5,7,-2
1523178602486567,2,2,31,23,2,-4,-3,49
1523178602507866,3,-5,12,7,1,6,-5,-32
1523178602507866,-8,-6,-49,-30,-3,-6,-6,11
1523178602508624,-5,0,2,-5,-4,1,-7,-21
1523178602508624,8,2,-14,-19,-2,-2,-20,9
1523178602520919,14,5,10,3,-1,1,43,108
1523178602520919,-8,-4,15,10,-1,-6,-4,-98
1523178602529958,-5,1,5,3,0,-1,-12,66
1523178602529958,-11,7,-2,-2,-1,-1,-1,-30
1523178602544988,-3,-9,-11,0,-2,-5,-22,54
1523178602544988,2,6,-18,-8,-4,-5,4,-47
1523178602546724,-2,-4,-22,-9,-3,-2,-14,33
1523178602546724,4,6,40,5,-1,1,20,-51
1523178602568057,-16,1,14,47,2,-13,-32,-29
1523178602568057,-4,-17,-20,-13,-2,3,-13,13
1523178602568793,4,4,-1,-4,-4,3,-8,9
1523178602568793,-1,-11,3,-23,-3,-5,13,-5
1523178602581082,-1,1,-31,-9,0,4,15,6
1523178602581082,-2,-6,-40,-5,-3,-6,-6,-16
1523178602589841,2,2,9,15,1,2,14,38
1523178602589841,-2,-1,1,3,-1,5,33,41
1523178602604879,5,4,15,-3,-2,-6,-13,-94
1523178602604879,-5,5,11,-2,-1,-5,-25,-2
1523178602606884,-15,-16,-2,-4,-2,0,9,24
1523178602606884,12,9,-5,7,-1,5,27,22
1523178602627245,-1,2,-24,-28,-1,1,31,72
1523178602627245,-8,3,26,15,2,-9,-25,-86
1523178602628945,6,5,-12,7,0,6,26,-14
1523178602628945,8,-2,-11,-27,-2,-2,-7,98
1523178602641225,-6,-1,5,48,1,-8,-1,-81
1523178602641225,1,3,-6,-22,-1,6,9,-11
1523178602650054,-10,-4,11,1,-2,-2,9,-10
1523178602650054,5,-2,-21,-3,-1,-2,-34,-46
1523178602665304,6,-6,-35,-42,-5,9,27,44
1523178602665304,-17,-5,70,27,2,-6,-10,-1
1523178602666042,-3,0,-45,31,1,-5,-19,-20
1523178602666042,7,-5,-13,-12,-3,0,21,51
1523178602687384,-10,-6,1,-18,-4,-5,-50,-47
1523178602687384,3,1,-5,-4,-1,3,6,33
1523178602689104,7,6,23,-8,-3,-2,2,-1
1523178602689104,-10,-6,7,10,0,-7,-5,9
1523178602710474,4,2,-3,-2,1,-6,-2,38
1523178602710474,4,2,0,-3,-1,3,10,-25
1523178602711161,-5,-4,3,-6,1,0,-8,-37
1523178602711161,-9,4,-5,7,-6,-29,-28,-4
1523178602725492,6,-9,7,1,0,12,6,49
1523178602725492,-2,-3,-11,0,-1,4,29,-99
1523178602726202,-4,-1,14,-2,-2,-3,33,57
1523178602726202,0,4,0,-4,-2,-13,-38,15
1523178602747548,-6,-10,8,10,-3,-1,7,-75
1523178602747548,8,12,-11,1,2,5,-21,81
1523178602749263,1,-11,13,-6,0,8,-11,-25
1523178602749263,3,1,-13,-6,-2,6,-15,-4
1523178602769601,-1,-3,-1,-4,0,2,19,31
1523178602769601,-4,2,-3,9,-1,-4,7,28
1523178602777582,-5,-1,4,-6,0,21,50,-35
1523178602777582,-5,1,5,6,2,10,-28,-61
1523178602785670,6,2,1,-3,0,-1,3,21
1523178602785670,5,-3,-1,13,-1,0,22,14
1523178602786362,-6,-2,-10,-34,-2,-11,-22,-54
1523178602786362,6,0,10,45,4,4,24,19
1523178602807665,-15,-2,-20,-2,-8,-9,-13,-47
1523178602807665,0,0,19,-5,-1,-4,-13,44
1523178602809424,4,3,8,6,-1,-8,2,-5
1523178602809424,1,-2,-18,-14,3,18,34,-6
1523178602830534,13,11,15,12,3,-10,-25,51
1523178602830534,2,-12,9,8,-2,-6,22,46
1523178602831483,2,5,-1,-7,0,-1,-24,-64
1523178602831483,-23,-15,2,-9,-5,-13,-16,-48
1523178602844799,4,0,-11,-15,1,-1,4,82
1523178602844799,6,1,1,6,-1,3,1,-47
1523178602851833,0,1,-20,-8,-1,0,3,57
1523178602851833,-6,-3,14,17,-1,-1,15,-14
1523178602867852,2,2,3,-8,-4,-3,-12,-23
1523178602867852,4,5,-8,-14,0,9,-5,12
1523178602868582,-3,-7,0,9,-2,-8,-5,6
1523178602868582,7,2,-12,-7,0,1,-2,3
1523178602890639,12,7,23,21,2,13,34,102
1523178602890639,-11,-1,-4,-12,2,3,-1,-128
1523178602891645,-7,-4,-5,5,-4,-10,-43,-34
1523178602891645,5,3,7,-20,-5,-4,-4,36
1523178602904676,-4,-4,10,-31,-1,12,16,-48
1523178602904676,3,-2,-28,21,-4,-17,-33,15
1523178602910922,-5,3,29,3,3,9,26,23
1523178602910922,-3,-13,-38,-21,-2,-5,1,20
1523178602928010,-1,4,28,15,-6,-11,-8,-38
1523178602928010,-6,-2,-3,-10,-5,-4,-6,37
1523178602928743,5,-8,15,15,3,-5,-15,44
1523178602928743,-3,5,-5,-22,-1,9,-11,-74
1523178602950022,-3,-6,-6,13,-2,-6,5,15
1523178602950022,-18,-5,-14,-20,-2,-6,27,15
1523178602951802,0,7,-7,22,1,3,-15,-27
1523178602951802,12,2,5,-19,-3,4,8,95
1523178602964093,-11,-3,-15,11,1,0,-16,-111
1523178602964093,0,-5,-2,-17,-6,-8,-2,9
1523178602970851,-3,-3,-3,-12,-4,-10,-31,18
1523178602970851,3,9,12,24,1,-1,14,0
1523178602987897,-2,-7,-7,6,0,-1,4,0
1523178602987897,8,6,-27,-33,0,7,-6,34
1523178602988899,-1,-2,12,15,-2,-7,22,10
1523178602988899,-8,-3,1,19,0,1,-5,-78
1523178603010215,1,0,-5,-28,-1,-5,-21,35
1523178603010215,-1,-2,20,14,1,3,3,-18
1523178603011960,4,-7,-20,-21,-5,1,-1,13
1523178603011960,1,2,21,8,-1,-10,-33,5
1523178603024284,-1,10,-9,-1,1,-2,-21,-12
1523178603024284,1,-13,-17,-1,-1,11,26,81
1523178603031292,-13,5,4,-3,2,-6,-6,-69
1523178603031292,-16,-7,-4,5,-2,4,-9,5
1523178603048207,0,3,-13,-17,-3,-8,-16,-46
1523178603048207,-11,-10,26,12,-1,-7,-12,-45
1523178603049064,11,0,18,29,1,2,14,84
1523178603049064,19,7,-11,8,5,3,5,10
1523178603070432,-9,-5,1,-20,-4,-17,4,-50
1523178603070432,0,-5,-25,-7,-1,16,18,8
1523178603071122,-4,-6,-10,-19,-7,-10,-20,-31
1523178603071122,3,4,13,-5,1,0,22,13
1523178603084419,4,0,6,17,2,0,-2,96
1523178603084419,-1,-9,16,-12,-2,3,6,-28
1523178603091482,-2,2,10,18,1,-3,-1,-41
1523178603091482,-19,-7,-40,-13,-6,-5,-21,-21
1523178603107502,-13,0,16,6,5,4,8,-12
1523178603107502,2,0,8,11,2,-9,-14,31
1523178603109220,13,10,-6,-22,-2,4,20,29
1523178603109220,2,-8,0,-7,2,11,29,34
1523178603130563,3,-2,1,-2,-1,6,16,-19
1523178603130563,2,13,2,8,-1,-4,-16,18
1523178603131279,-6,-6,-9,7,1,8,39,-19
1523178603131279,10,6,-8,-4,-4,-7,-22,7
1523178603144608,3,-10,-13,-24,-2,6,-11,68
1523178603144608,-18,8,2,12,-3,-7,-25,-105
1523178603151611,-5,7,1,15,0,4,-29,10
1523178603151611,-3,-20,-34,-21,-5,-7,4,-2
1523178603167625,6,2,21,-7,-5,-2,14,61
1523178603167625,15,12,30,73,7,10,13,2
1523178603169380,-4,-3,-34,-29,-4,-10,-6,-32
1523178603169380,0,1,25,3,3,14,50,22
1523178603190435,2,0,-30,-17,-4,-8,-25,5
1523178603190435,17,1,-5,-27,2,23,59,25
1523178603196755,-3,-4,4,12,0,10,24,40
1523178603196755,-2,-15,-6,-4,-5,0,-7,-34
1523178603203749,7,-1,3,8,0,5,5,17
1523178603203749,-39,-10,23,8,-3,-25,-104,-128
1523178603212495,12,7,-17,-15,2,-3,1,95
1523178603212495,-4,-6,-1,-7,1,2,0,-13
1523178603227777,3,5,10,15,3,12,20,2
1523178603227777,15,0,-9,-10,-1,-6,9,63
1523178603228539,-3,-3,0,-11,-4,-16,-41,-89
1523178603228539,-9,0,-6,0,-1,-11,-27,-3
1523178603250607,-8,-4,-21,-1,-3,-7,-19,-66
1523178603250607,6,6,-6,3,2,5,35,60
1523178603251602,-3,-12,2,-14,-6,-2,12,9
1523178603251602,2,5,-1,13,-3,-8,23,-1
1523178603263908,9,4,17,-33,1,-12,-17,29
1523178603263908,-3,-7,6,63,3,-1,-33,-47
1523178603272654,-2,0,-10,-15,-1,11,36,0
1523178603272654,-12,2,12,-7,-6,-5,-39,-93
1523178603287694,-2,-3,-22,-15,-3,-12,0,68
1523178603287694,9,1,5,-18,-2,-3,0,21
1523178603288695,-10,-3,8,11,0,-2,18,-59
1523178603288695,-3,-2,4,6,1,-1,-16,17
1523178603310051,-4,0,-1,-6,-6,-4,-21,14
1523178603310051,9,7,-2,-2,4,14,27,41
1523178603311759,-6,-10,9,7,1,1,-12,7
1523178603311759,0,8,13,14,1,2,11,26
1523178603324104,6,1,-9,19,2,15,38,36
1523178603324104,6,-10,-37,-45,-9,-13,-31,-44
1523178603332816,-23,-13,-25,-26,-4,-5,6,-42
1523178603332816,1,7,24,4,-1,-7,6,47
1523178603347858,2,-8,38,68,7,13,-2,-58
1523178603347858,-2,-13,-14,-28,-5,-3,13,18
1523178603348858,7,-1,-7,-8,1,1,-12,40
1523178603348858,14,15,13,-17,-1,-6,33,-5
1523178603370173,-8,-10,-22,4,0,-1,24,46
1523178603370173,-11,-1,-2,-13,-2,-2,-33,-48
1523178603371916,8,9,5,4,4,3,-47,0
1523178603371916,-8,-5,5,19,0,4,17,3
1523178603384289,3,12,-4,-11,-1,0,-7,-27
1523178603384289,12,3,-28,-16,0,0,4,95
1523178603392976,-1,6,17,2,-7,-11,-15,-73
1523178603392976,-6,9,22,30,7,-3,-13,54
1523178603408171,0,-1,-16,2,0,7,-10,19
1523178603408171,-23,-19,-64,-45,-10,-7,8,-73
1523178603409022,23,6,1,14,0,-9,9,89
1523178603409022,2,-5,-19,-22,-3,-4,-30,-46
1523178603430346,3,2,42,22,3,2,-38,-17
1523178603430346,-12,-9,0,-15,0,-1,29,6
1523178603432078,-2,1,-16,31,5,7,-7,72
1523178603432078,-5,-9,9,2,-3,-2,8,-19
1523178603444351,-12,-6,-18,-32,-5,-15,-32,-99
1523178603444351,9,10,25,-12,-1,2,21,78
1523178603452421,5,6,17,25,2,-7,0,-8
1523178603452421,7,0,-7,-5,2,15,26,61
1523178603468218,4,10,-11,-12,-4,-8,15,-42
1523178603468218,-24,-18,20,19,1,-11,-41,-15
1523178603469177,4,-8,-9,-34,-4,-11,-32,2
1523178603469177,-3,-8,2,27,-2,9,26,-49
1523178603490495,-10,-5,-10,-7,-4,-4,41,44
1523178603490495,5,7,10,13,0,-12,-18,23
1523178603491236,4,2,-9,-6,0,7,6,-12
1523178603491236,1,-8,7,-14,-2,-4,-13,11
1523178603503565,-29,0,9,22,0,-4,7,3
1523178603503565,-1,3,22,28,0,0,14,-63
1523178603512386,-2,-7,-15,-19,-1,16,25,65
1523178603512386,14,11,-29,-13,-1,-2,-14,-7
1523178603527570,-9,-22,-28,-13,-5,-6,19,-44
1523178603527570,7,6,22,5,1,0,-5,41
1523178603529337,2,3,1,-12,-4,3,11,-7
1523178603529337,-7,-2,7,10,-3,-6,-17,2
1523178603550529,0,-1,16,-2,0,4,-1,-54
1523178603550529,-11,-1,-22,-2,-3,-5,-14,-5
1523178603551398,5,-10,6,-12,0,4,-3,-6
1523178603551398,6,-3,-1,4,3,7,0,110
1523178603563719,5,4,-5,0,-2,-6,-31,-59
1523178603563719,0,10,1,-15,2,9,-39,20
1523178603572450,-1,-5,-6,8,-1,-2,25,48
1523178603572450,-15,-14,9,-21,-4,-15,-43,-72
1523178603587494,3,6,26,24,1,15,43,60
1523178603587494,17,12,-10,0,-3,-9,-1,-11
1523178603589495,-4,-12,13,1,3,1,6,18
1523178603589495,0,2,-13,-19,-6,-4,-5,-23
1523178603610593,1,-13,-45,-22,-4,2,-9,11
1523178603610593,1,-4,14,3,2,8,34,25
1523178603611560,-3,7,0,7,-5,-8,-18,-75
1523178603611560,-6,-2,4,8,0,-1,11,8
1523178603632893,7,3,4,4,0,1,-8,1
1523178603632893,10,3,-5,-9,4,18,22,34
1523178603633614,-24,-13,5,12,-2,-11,-40,-81
1523178603633614,-8,4,-2,-11,-1,-8,-41,-63
1523178603647934,2,0,-2,-2,1,-1,-14,48
1523178603647934,9,-13,1,10,-2,-2,19,64
1523178603648655,9,7,-11,-4,0,7,12,28
1523178603648655,-2,19,1,-3,0,-10,-9,-62
1523178603669973,-6,-3,1,18,0,-12,-5,17
1523178603669973,-5,3,2,-4,-3,9,18,-7
1523178603671716,-7,5,8,6,2,1,-1,-33
1523178603671716,19,-8,-35,-17,1,8,18,127
1523178603692027,-9,-3,13,-7,-1,-12,-15,-110
1523178603692027,-25,-6,1,12,-5,0,2,37
1523178603700061,11,9,11,-16,-1,-8,8,63
1523178603700061,1,-9,7,23,0,29,50,6
1523178603707046,-18,-4,5,-10,0,2,24,58
1523178603707046,0,-4,-17,-3,-6,-24,-29,-115
1523178603714105,-2,0,0,-17,1,15,11,55
1523178603714105,5,12,-7,-5,-1,-11,0,5
1523178603730148,1,-11,2,-22,1,-1,-4,45
1523178603730148,-16,3,20,29,3,-6,-10,-69
1523178603731876,-1,-7,-34,4,-6,-3,-3,-75
1523178603731876,-13,-2,20,-24,-2,-14,-51,-71
1523178603753213,17,11,14,58,4,2,11,92
1523178603753213,15,7,-35,-47,-3,-5,-2,29
1523178603753934,-22,-9,44,21,3,8,10,-40
1523178603753934,-9,-9,-28,6,-2,-4,-34,-30
1523178603767245,20,7,5,-31,-3,0,19,44
1523178603767245,-3,2,17,13,2,2,-28,-45
1523178603774300,3,-14,-75,-22,-7,-20,-17,45
1523178603774300,-16,-11,23,-1,2,11,41,-11
1523178603790317,-2,3,2,18,0,5,2,-8
1523178603790317,-2,7,1,-6,1,-3,5,3
1523178603792034,1,0,13,-6,-1,2,17,58
1523178603792034,9,1,14,17,2,21,58,14
1523178603812089,-3,-3,-4,-3,-4,-21,-39,-105
1523178603812089,7,-2,-10,-13,2,4,4,47
1523178603814094,-5,-3,12,15,-1,-8,-8,-11
1523178603814094,-12,-3,-15,0,-8,-25,-68,-49
1523178603827385,11,7,3,-7,7,24,39,36
1523178603827385,-5,-5,24,5,-3,8,52,46
1523178603834410,-6,-11,-5,-5,-1,-15,14,-44
1523178603834410,1,-3,-8,2,2,11,19,52
1523178603850473,-7,-4,6,-11,-7,-20,-94,-82
1523178603850473,-5,-9,6,16,3,0,2,21
1523178603851192,9,-1,5,1,0,-5,-32,26
1523178603851192,10,11,0,1,1,7,25,-5
1523178603872248,-2,-7,-24,-23,-4,-5,-10,48
1523178603872248,0,-9,-2,0,-3,-7,-16,-81
1523178603874255,1,21,13,4,4,20,-13,60
1523178603874255,-6,-5,-1,9,-2,-18,-11,-60
1523178603886544,4,7,-19,-3,5,19,22,91
1523178603886544,18,-4,13,3,-2,-25,-16,-15
1523178603893503,5,1,-19,-7,0,21,29,27
1523178603893503,-28,-10,-10,-26,-6,-11,21,-82
1523178603910537,-14,3,37,46,-1,-1,-10,-10
1523178603910537,-7,-1,-22,-2,-5,-5,-10,17
1523178603911354,7,-7,-4,-4,-1,-4,-15,-17
1523178603911354,22,10,6,-3,0,5,5,117
1523178603932677,-10,-22,-60,-46,-6,6,45,-30
1523178603932677,1,6,0,21,4,5,-17,6
1523178603934414,-15,3,8,-10,-1,2,-11,-71
1523178603934414,3,3,6,23,0,-5,-31,41
1523178603947728,-2,-3,-3,-21,0,16,80,-2
1523178603947728,7,-3,-4,-13,-2,7,15,14
1523178603953466,-2,-4,20,38,1,-6,12,46
1523178603953466,-1,-1,-8,-11,-3,-9,-40,-54
1523178603969801,6,9,13,-6,0,-2,-18,-37
1523178603969801,-16,-18,-6,-7,-4,13,27,-3
1523178603971513,0,17,3,0,-2,-10,-7,-19
1523178603971513,4,-3,-4,6,0,-6,9,63
1523178603992816,10,12,-20,-21,-3,2,6,76
1523178603992816,-10,-33,49,29,9,33,44,-63
1523178603993571,-12,6,2,3,-3,-20,-61,-107
1523178603993571,10,2,5,-10,-3,1,6,67
1523178604006900,5,-5,-16,-9,-1,6,-11,-9
1523178604006900,3,11,-1,-8,-6,-18,-13,27
1523178604013898,5,-2,-2,-1,1,5,20,56
1523178604013898,3,-4,15,10,1,8,21,-54
1523178604029936,1,6,-3,2,-1,-21,-21,39
1523178604029936,-17,-7,-12,-12,-4,-4,-38,-87
1523178604031671,0,-5,0,5,3,3,12,0
1523178604031671,7,-5,-18,-23,-5,-7,-15,27
1523178604053005,-3,-6,21,39,3,-21,-43,14
1523178604053005,3,6,24,-2,-4,2,26,-18
1523178604053730,-5,0,-25,-22,-4,-5,-25,-25
1523178604053730,-6,-1,0,13,2,16,16,-53
1523178604067071,14,-3,3,1,-2,-2,1,54
1523178604067071,13,14,-7,-9,-1,-8,-18,-20
1523178604074098,-2,-2,28,8,-1,0,15,48
1523178604074098,-4,1,-1,3,1,3,6,-17
1523178604090137,0,-5,-3,5,-1,13,9,-35
1523178604090137,17,20,-4,-1,3,3,2,127
1523178604091831,-9,-8,-18,-19,-7,-2,11,-107
1523178604091831,-6,-6,-1,19,-2,-7,-18,22
1523178604113195,-10,-4,4,-11,-1,-9,-22,-15
1523178604113195,17,6,-15,-7,-2,-3,19,127
1523178604113891,-13,2,-5,4,0,-12,-9,-77
1523178604113891,-19,-13,-21,-13,-4,1,-20,38
1523178604126221,-5,-1,23,12,-1,-6,-25,5
1523178604126221,3,9,-25,-9,-1,3,-13,15
1523178604134946,20,-9,-27,-10,-2,4,22,98
1523178604134946,-25,-3,13,-1,-1,-9,39,-45
1523178604150238,-9,-2,7,0,-1,-1,-31,-71
1523178604150238,0,-11,4,15,1,-6,-9,20
1523178604151990,19,21,11,11,-1,-9,-11,-26
1523178604151990,4,-19,-1,-1,4,12,24,26
1523178604173095,-22,-7,-23,-27,-5,1,20,-104
1523178604173095,0,-5,4,-4,-2,-13,-31,-57
1523178604174053,-4,-2,41,18,2,2,33,89
1523178604174053,15,9,-22,-5,-1,-2,-17,-4
1523178604186359,7,-3,-38,2,3,23,50,33
1523178604186359,-1,-5,-17,-9,-5,0,-1,23
1523178604195109,-7,-2,-2,-36,-1,0,-3,-23
1523178604195109,2,14,37,39,0,-5,-12,5
1523178604210423,7,7,8,19,3,-2,-24,10
1523178604210423,-7,-3,-33,-12,-1,-2,3,-73
1523178604211149,1,0,-17,-29,-5,4,-15,3
1523178604211149,10,10,0,7,1,-4,34,68
1523178604232471,-10,-4,2,-7,-2,-10,-5,-84
1523178604232471,-19,0,4,9,-1,-1,-14,-20
1523178604234209,2,-5,9,0,1,8,5,0
1523178604234209,15,11,-17,-21,-6,-6,-20,37
1523178604255266,-6,-7,45,17,-2,-7,-2,12
1523178604255266,-5,-5,-30,-4,-2,-2,1,1
1523178604256267,-3,-12,11,2,4,3,5,-18
1523178604256267,4,9,-9,12,4,8,-5,1
1523178604270308,5,-5,3,-5,-4,-4,30,74
1523178604270308,9,10,20,-22,0,7,-9,-3
1523178604271310,-18,-12,-49,7,-4,-4,-9,-72
1523178604271310,-28,-9,-7,-14,-5,-18,-30,-12
1523178604292608,8,-12,26,22,6,27,60,51
1523178604292608,1,7,6,-2,-4,1,36,64
1523178604294371,1,1,-2,-6,-6,-9,-44,14
1523178604294371,-3,0,17,11,2,-18,12,-44
1523178604306686,-6,1,-16,-11,-2,6,-4,-36
1523178604306686,-2,-1,3,-2,-3,-7,12,38
1523178604315428,10,1,-10,-2,2,8,39,25
1523178604315428,-1,-3,-15,-31,-8,-9,-13,-51
1523178604330577,-2,9,36,35,3,-8,-47,-11
1523178604330577,13,1,-21,2,5,5,-9,83
1523178604331472,-19,-1,3,8,-2,-2,18,-78
1523178604331472,-5,-8,-2,-2,0,11,5,82
1523178604352808,17,4,-20,-18,-2,5,15,78
1523178604352808,-40,-17,-1,-8,-2,8,-18,-128
1523178604354528,11,1,12,16,2,-2,-14,70
1523178604354528,14,16,25,37,5,10,32,83
1523178604366871,-9,-6,-14,-12,-1,-1,14,-91
1523178604366871,2,3,2,-5,-1,-15,-15,17
1523178604375587,-10,-7,-13,-12,-2,-3,4,10
1523178604375587,0,2,10,-11,-3,-8,-23,-63
1523178604389930,6,2,-18,-10,-2,-9,-10,29
1523178604389930,2,-2,-11,13,-1,10,4,-16
1523178604391629,10,3,5,-13,1,6,1,28
1523178604391629,-2,-11,7,7,1,1,-14,-58
1523178604412985,-2,-3,6,-4,-5,-12,-8,7
1523178604412985,-14,-7,-1,-4,-5,-7,-16,-114
1523178604413687,-1,-6,3,-17,-7,-3,-22,49
1523178604413687,8,4,6,10,0,6,6,19
1523178604426859,-5,-3,-20,-31,0,-7,-1,1
1523178604426859,7,-2,16,31,2,-15,-8,36
1523178604435015,8,10,8,8,-7,-8,4,40
1523178604435015,2,-8,-5,-20,2,9,6,-65
1523178604450135,-7,3,-24,-1,-4,-6,-15,-8
1523178604450135,-12,-10,23,-24,-3,-9,-8,12
1523178604451788,7,14,14,51,5,6,-14,22
1523178604451788,6,-16,-19,-18,-3,1,-18,69
1523178604473105,-6,2,-22,-1,1,12,14,-62
1523178604473105,-10,2,-3,-11,-3,-5,-16,-21
1523178604473847,-1,-3,-5,-5,3,11,23,17
1523178604473847,15,2,6,-9,0,5,36,48
1523178604486185,-11,-9,27,18,-3,-4,-30,-5
1523178604486185,-1,-3,-7,0,-2,-2,6,-25
1523178604494904,-1,3,10,-2,-1,-4,-2,-11
1523178604494904,-9,-7,-2,-1,-4,-23,-32,9
1523178604509996,11,4,-18,-9,-2,15,24,1
1523178604509996,-13,-23,-24,-35,-2,-8,-1,-34
1523178604511948,7,1,46,56,4,0,7,57
1523178604511948,-5,6,-14,-6,1,0,8,-86
1523178604533269,-10,-2,17,2,-4,-9,-10,13
1523178604533269,9,10,13,6,4,4,-29,93
1523178604535008,3,-11,-54,-49,-6,5,4,-31
1523178604535008,-10,-2,6,7,-2,-2,11,-13
1523178604555063,3,8,9,17,0,-2,-4,8
1523178604555063,15,11,-11,-18,-5,12,31,32
1523178604556066,-3,-3,2,-5,-1,-6,-6,49
1523178604556066,-14,-7,-30,-17,-3,0,-30,-92
1523178604570105,-20,-5,32,18,-2,-4,12,-29
1523178604570105,9,9,9,31,6,11,8,22
1523178604571106,-4,-3,0,1,0,-3,11,-15
1523178604571106,11,2,1,-13,-3,6,9,74
1523178604592420,3,-3,-58,-36,-5,-10,-28,8
1523178604592420,-5,2,17,7,-4,-18,-1,-82
1523178604594166,-3,1,15,6,3,24,17,64
1523178604594166,-1,-2,-5,-2,-2,-7,-24,-102
1523178604615517,11,2,4,-8,-1,-3,4,90
1523178604615517,6,-1,-1,5,-4,1,14,-18
1523178604616224,-5,7,19,10,0,-6,-6,-32
1523178604616224,-4,7,-9,6,-3,-14,-22,39
1523178604630549,-17,-16,2,-14,-3,-1,-13,-34
1523178604630549,10,4,-17,4,4,17,18,7
1523178604631265,6,3,-17,-20,-2,-6,-17,-4
1523178604631265,4,-4,12,3,2,10,27,77
1523178604652601,-3,4,14,25,2,-1,-7,-86
1523178604652601,-7,-8,-9,-6,-2,-3,3,4
1523178604654327,-6,-10,-44,-13,-7,-9,-21,-66
1523178604654327,4,12,28,-4,0,17,74,24
1523178604675697,18,8,7,29,2,-8,-24,95
1523178604675697,-10,-11,3,13,0,-1,21,-38
1523178604676386,-16,0,-3,-27,-2,-1,-36,-91
1523178604676386,-4,8,49,32,1,-18,-3,5
1523178604690580,0,-1,-42,-29,-5,-4,-4,6
1523178604690580,3,-2,-5,6,1,23,26,59
1523178604691428,8,4,1,-5,-2,10,43,24
1523178604691428,15,-2,20,8,-2,-10,-47,16
1523178604712771,-3,14,-32,-9,0,3,11,-47
1523178604712771,0,-4,9,6,-1,-5,2,67
1523178604714485,-18,-10,-8,-12,-3,-12,-30,-120
1523178604714485,-9,2,-2,-5,-1,3,-14,15
1523178604735708,28,6,15,20,3,4,16,80
1523178604735708,-6,-8,-16,-23,-4,-10,27,34
1523178604736546,-18,-18,0,-2,-7,-22,-23,-54
1523178604736546,-10,5,31,12,3,20,-25,-94
1523178604749856,-7,-10,-31,-10,0,-3,15,-13
1523178604749856,10,5,27,-4,-3,3,-27,28
1523178604756721,10,6,-21,-2,0,-11,-10,88
1523178604756721,0,-15,-22,5,-1,2,36,41
1523178604772928,-16,-15,8,-11,-4,-4,-21,-119
1523178604772928,-5,16,24,0,0,-5,-17,0
1523178604778948,14,4,4,24,7,9,35,9
1523178604778948,-3,-6,-46,-21,-7,-5,-3,7
1523178604794896,2,-3,19,-40,-1,6,4,92
1523178604794896,6,2,17,75,2,-7,-1,-40
1523178604796705,-16,-3,-7,-17,-2,-9,-8,-21
1523178604796705,-6,-15,-18,0,-3,-4,-23,2
1523178604809991,6,6,9,-6,2,3,22,-35
1523178604809991,5,4,-10,-23,-3,-17,-28,-1
1523178604816016,7,-8,-12,2,-3,11,9,77
1523178604816016,-9,-3,3,-11,-1,1,10,-43
1523178604833083,5,-4,30,35,0,-9,0,-28
1523178604833083,1,-15,-55,-23,-3,3,-2,81
1523178604833806,-14,0,21,19,-2,-6,33,-110
1523178604833806,0,-1,-27,-48,-4,4,11,81
1523178604854860,3,12,34,40,1,5,-21,23
1523178604854860,-1,-7,0,-3,2,1,-5,28
1523178604856866,21,10,-10,-5,-1,-9,-26,-14
1523178604856866,-25,-39,0,0,2,6,7,-12
1523178604869190,-3,1,52,-9,1,-6,-5,-23
1523178604869190,-3,-5,-76,-10,-2,8,4,-23
1523178604876168,6,0,36,2,1,-1,-39,93
1523178604876168,5,18,15,0,-1,-9,40,-128
1523178604893185,3,0,-9,-4,-3,-2,-26,68
1523178604893185,-10,-5,13,-6,-2,-11,17,26
1523178604893963,-2,0,17,20,0,7,-9,-60
1523178604893963,12,8,-20,24,5,1,-33,25
1523178604915326,-6,-6,-6,-9,-4,-4,0,-23
1523178604915326,-8,6,1,-13,-3,0,-15,-46
1523178604917024,1,-10,-17,-14,-1,3,7,58
1523178604917024,2,4,-10,3,-3,-8,-5,-41
1523178604929330,-1,-3,-13,-4,-1,8,21,77
1523178604929330,-7,12,30,-1,1,2,-8,-127
1523178604936077,-4,7,-3,7,0,-5,16,41
1523178604936077,9,-20,-50,-15,-6,1,-6,72
1523178604952494,-4,-11,-10,0,0,6,25,-46
1523178604952494,-12,-2,-6,-24,-6,-13,-21,-16
1523178604954123,3,8,30,18,3,-3,-3,-17
1523178604954123,5,9,11,16,3,2,-9,20
1523178604975422,-3,-7,-19,-12,-3,-12,-1,1
1523178604975422,7,-9,22,6,1,0,12,12
1523178604976184,-5,-4,-15,-12,-4,-5,-22,-39
1523178604976184,0,-2,0,-9,-3,-1,5,25
1523178604989353,-2,2,-5,-1,-2,-5,-16,-28
1523178604989353,8,0,16,20,1,2,11,76
1523178604997393,-10,-5,-6,-17,-4,-2,8,-84
1523178604997393,-2,7,5,9,-1,1,-3,19
1523178605012524,2,12,-5,-2,-2,-1,12,8
1523178605012524,2,-4,14,-2,-2,-3,-15,2
1523178605014285,6,-13,-17,-4,6,33,51,82
1523178605014285,-9,-10,15,-14,-5,-19,-33,-49
1523178605035652,-14,-2,7,22,0,5,-42,-80
1523178605035652,2,-7,-45,-7,-3,2,27,11
1523178605036341,1,-2,-2,-2,-5,-5,-2,17
1523178605036341,-1,6,8,7,4,7,12,30
1523178605057643,13,-1,10,-5,1,-1,9,55
1523178605057643,-6,3,3,-1,-4,-6,-17,-42
1523178605059404,-16,-3,-18,-5,-5,-4,-18,-77
1523178605059404,-3,3,-4,-5,-1,-3,-7,33
1523178605072711,0,-1,-5,-3,-2,1,8,22
1523178605072711,7,6,9,7,1,4,24,58
1523178605074444,8,8,-5,-8,-2,3,19,10
1523178605074444,-6,-9,1,-6,0,-4,-20,-21
1523178605095669,-8,-5,6,20,3,7,23,-11
1523178605095669,0,4,-4,-12,0,3,-13,-35
1523178605096506,-6,9,7,4,0,-3,12,41
1523178605096506,3,2,1,-8,-1,-8,-17,-19
1523178605108771,3,-1,-8,-3,-2,0,-2,27
1523178605108771,1,-5,19,1,1,-3,-4,4
1523178605117557,-4,-3,-20,11,-8,-10,-1,-8
1523178605117557,2,10,1,0,1,-4,-26,-32
1523178605132875,3,-3,-13,-11,-2,-2,22,68
1523178605132875,-3,2,17,0,0,9,7,-112
1523178605133601,-9,-8,5,-4,-2,-6,1,34
1523178605133601,-2,-4,-20,-4,-3,5,8,25
1523178605155670,2,3,4,-28,-3,-15,-29,-59
1523178605155670,-20,-1,23,56,6,4,51,-27
1523178605156662,12,-3,4,-4,-1,1,-18,46
1523178605156662,5,4,-3,0,0,2,49,-5
1523178605168959,6,1,-25,-21,-4,1,-11,38
1523178605168959,-5,-5,-14,-34,-2,-10,-8,8
1523178605177717,-5,5,53,48,5,0,-10,-66
1523178605177717,-11,-23,1,5,-2,-4,0,43
1523178605193017,8,3,-2,-3,0,9,32,4
1523178605193017,-9,5,-14,-13,-7,-10,-36,-40
1523178605193759,2,-3,11,-12,-2,-3,12,-5
1523178605193759,-4,10,-46,-12,-2,8,-1,33
1523178605215083,-6,-13,-11,10,-3,-8,-21,-37
1523178605215083,5,8,-9,-11,-1,3,3,58
1523178605216821,10,-7,1,-9,1,1,28,-15
1523178605216821,9,14,23,11,3,0,-23,17
1523178605229141,-10,2,-7,12,5,5,10,-29
1523178605229141,-4,-16,-9,-7,-5,-1,9,39
1523178605237879,1,8,4,-4,-3,-25,-34,3
1523178605237879,2,-9,-3,-12,-3,10,47,0
1523178605252218,0,-15,-6,0,-2,1,16,-20
1523178605252218,0,-6,20,17,2,-3,-39,-13
1523178605253918,-15,0,-3,-18,0,-4,-12,-12
1523178605253918,4,-1,19,22,1,0,8,9
1523178605275273,5,5,-7,-5,0,5,33,45
1523178605275273,-4,10,-4,-6,-4,-4,-47,-85
1523178605276991,-4,-22,-44,-10,0,11,13,66
1523178605276991,-1,3,17,-24,-6,-14,-11,-17
1523178605289344,2,2,15,17,1,-2,-23,32
1523178605289344,4,6,0,-19,-2,-5,-19,-21
1523178605298036,11,-3,19,25,0,6,10,52
1523178605298036,-14,-1,5,3,0,6,14,-127
1523178605313172,-3,11,7,1,1,-8,-17,63
1523178605313172,-4,-15,-7,-2,0,5,8,-79
1523178605314083,-3,-1,-9,-24,-1,8,-41,68
1523178605314083,8,-3,-5,6,1,2,27,-16
1523178605335413,3,4,13,-4,-1,-8,-25,24
1523178605335413,13,6,-7,-2,-3,8,65,65
1523178605336139,-14,1,0,-3,-4,-13,-38,-98
1523178605336139,-5,-5,-8,1,0,-6,-14,36
1523178605349332,-5,5,8,3,-2,3,6,-49
1523178605349332,11,-5,-3,-4,-2,-4,-10,74
1523178605365217,2,-7,-7,-3,1,-5,12,55
1523178605365217,-9,-1,-13,-10,-3,6,6,-55
1523178605372549,-10,-8,9,2,-5,-8,-26,-77
1523178605372549,8,8,-6,13,1,1,5,47
1523178605374239,0,14,8,-7,-3,1,24,-76
1523178605374239,4,-4,-8,1,3,-4,-26,35
1523178605395568,1,1,-21,-15,-5,1,-8,-47
1523178605395568,-16,-2,3,6,-2,-9,-26,19
1523178605396301,3,-3,-6,-4,2,13,22,17
1523178605396301,7,2,8,2,-7,-4,16,92
1523178605408598,-16,-6,16,5,1,2,0,-78
1523178605408598,4,-18,-69,-18,-5,-8,-12,75
1523178605417596,9,5,7,2,-3,-10,-49,-14
1523178605417596,-8,2,12,18,-3,-1,5,-37
1523178605432681,-13,-3,-21,-66,0,-7,-10,1
1523178605432681,-1,2,42,75,2,0,15,10
1523178605434401,3,-3,-10,-2,-1,-2,-2,42
1523178605434401,-6,10,-14,-3,0,2,8,-49
1523178605455707,-9,-12,-20,-1,-3,-7,-19,32
1523178605455707,20,6,-19,-35,-3,-1,9,1
1523178605456459,3,1,4,4,-3,5,-2,-28
1523178605456459,-14,14,2,11,-1,-16,-57,-128
1523178605468768,29,-10,7,14,2,-1,-6,56
1523178605468768,-6,4,2,-13,1,-10,13,78
1523178605477515,-4,3,26,7,-5,5,39,-78
1523178605477515,-4,-8,-48,-28,-1,9,6,49
1523178605491809,0,0,0,18,0,0,-9,50
1523178605491809,11,9,-4,-16,-1,0,-2,-25
1523178605500578,-12,3,8,-2,1,-4,2,41
1523178605500578,-3,-5,17,32,-1,-7,-7,15
1523178605515648,-11,-5,-11,-1,-4,3,7,-46
1523178605515648,3,9,33,-15,1,1,-3,16
1523178605516619,9,2,-26,13,0,2,28,66
1523178605516619,6,7,-17,-15,0,-5,2,-10
1523178605537675,-18,-1,7,10,-1,11,-15,-5
1523178605537675,8,2,5,-14,-1,-8,-24,-11
1523178605538675,2,1,-17,-10,1,14,3,-19
1523178605538675,3,-8,25,8,-2,-10,-34,62
1523178605552715,4,-12,2,12,3,9,68,46
1523178605552715,-27,-1,-15,-14,-4,-3,-47,-128
1523178605553716,0,-13,7,-9,-2,-7,-10,72
1523178605553716,11,3,28,36,0,-2,17,41
1523178605575080,5,16,6,-11,0,4,-2,-34
1523178605575080,-6,-17,-24,-21,-3,4,10,18
1523178605576778,-8,7,-3,12,-1,-13,-25,-66
1523178605576778,1,-4,-20,-20,-3,17,38,-19
1523178605598100,7,13,27,-7,-1,-6,-1,21
1523178605598100,5,-2,19,52,5,-9,-19,60
1523178605598840,-13,-22,-22,-26,0,22,45,12
1523178605598840,3,-4,13,-19,-3,-7,-17,-50
1523178605613063,6,3,-28,-6,-2,-4,0,15
1523178605613063,-6,-18,13,9,0,3,-8,-24
1523178605614879,-5,2,-6,0,-2,-5,-18,-61
1523178605614879,1,-4,1,-5,1,2,13,74
1523178605643205,-4,-3,-1,24,-1,-5,-10,-28
1523178605643205,-7,-12,12,-11,3,3,4,-38
1523178605643956,4,3,-5,13,-2,-9,-15,60
1523178605643956,0,-5,2,-12,4,16,53,-42
1523178605658168,-8,-7,-11,-8,-7,-8,-7,-1
1523178605658168,1,1,4,11,-2,6,10,42
1523178605658996,2,6,5,1,-3,-7,15,-66
1523178605658996,1,-3,-26,-45,-2,-7,-28,65
1523178605672419,0,6,12,34,5,-15,-54,-40
1523178605672419,-5,4,-28,-13,0,21,96,70
1523178605679394,13,0,-29,3,-3,-6,0,35
1523178605679394,-4,-1,-6,-26,-4,-9,-55,-43
1523178605695445,-14,-7,10,-10,-5,-8,-6,-72
1523178605695445,-4,1,2,4,-2,-4,-39,-21
1523178605696095,-4,-2,16,-4,6,12,16,73
1523178605696095,17,8,11,17,4,5,14,18
1523178605717418,10,-3,-6,9,0,4,10,124
1523178605717418,-14,1,-7,-11,-2,-2,-7,-121
1523178605719156,-5,5,-6,-22,-5,-4,5,58
1523178605719156,-12,-14,-4,5,-6,-17,-10,-45
1523178605732457,-2,-7,37,-8,-1,2,-21,23
1523178605732457,2,11,1,19,1,-1,8,48
1523178605739370,-6,-2,1,9,5,22,66,-26
1523178605739370,-10,3,-6,11,-3,0,1,-36
1523178605755561,14,1,-12,-25,-4,-1,32,86
1523178605755561,-5,-1,-10,-6,-2,-7,-15,-92
1523178605756255,-15,-11,-3,-13,0,-8,-30,-14
1523178605756255,5,5,19,17,5,6,-6,42
1523178605777566,-3,-13,28,37,4,5,27,-15
1523178605777566,7,-2,-15,-2,-1,-4,21,61
1523178605779318,12,3,6,-4,-3,-1,-19,7
1523178605779318,-8,-9,-16,-15,-2,-1,-7,-75
1523178605792495,-18,-4,-8,-21,-1,-3,-35,-24
1523178605792495,3,2,10,10,2,1,-4,-26
1523178605798645,14,-5,-1,-13,-2,-12,-16,25
1523178605798645,3,2,12,20,-3,2,30,76
1523178605815691,-15,-1,-57,-2,1,-1,-7,-60
1523178605815691,1,-4,15,0,-1,-1,-8,-23
1523178605816415,11,13,-7,-20,-3,1,4,-16
1523178605816415,-2,-6,33,18,2,-2,-24,67
1523178605837472,6,1,-13,5,-3,-3,15,19
1523178605837472,2,-12,-11,-13,-3,-3,-1,-29
1523178605839498,-5,4,-7,-6,-3,-10,22,52
1523178605839498,-2,5,7,4,-2,-2,-18,-90
1523178605851795,-6,8,-6,-4,1,9,-3,-44
1523178605851795,0,-17,-3,3,0,2,0,107
1523178605858826,-10,-1,3,9,-2,-18,-31,-101
1523178605858826,6,3,-9,3,-2,-3,8,49
1523178605875603,0,7,17,-31,-1,1,4,-35
1523178605875603,6,16,41,49,3,-7,-21,42
1523178605876589,0,-9,-24,-7,-1,13,3,-46
1523178605876589,-5,-2,-33,-17,0,-1,18,35
1523178605896888,7,-4,12,-7,-6,-9,-18,-59
1523178605896888,-2,-4,-5,-14,-3,-5,16,46
1523178605897630,-5,-4,19,26,6,13,-4,1
1523178605897630,4,3,-25,-23,-1,-1,-5,-29
1523178605911849,15,20,9,-6,1,1,25,115
1523178605911849,-40,-16,6,27,-2,-9,-16,-128
1523178605919688,1,3,-4,0,-2,-2,5,108
1523178605919688,6,3,-2,-2,-6,-8,-27,-39
1523178605935007,-10,-14,-31,-12,-3,3,14,38
1523178605935007,2,-5,13,-18,-7,-1,-13,-17
1523178605935007,-1,1,-6,-3,-2,-3,-10,-36
1523178605935007,4,-1,21,9,2,-10,-18,41
1523178605957054,12,-3,0,10,1,8,42,33
1523178605957054,-12,8,-23,-27,-4,-4,-4,-76
1523178605957792,-3,-1,7,26,0,-6,-50,-104
1523178605957792,-6,-8,-1,2,-3,0,20,52
1523178605971876,-2,-1,-5,-4,4,0,-4,4
1523178605971876,2,-7,17,5,2,3,43,32
1523178605980031,11,0,-31,-11,-5,-8,-10,12
1523178605980031,-11,-6,8,4,0,-5,-45,-15
1523178605993888,-22,-20,-8,5,-1,14,45,-77
1523178605993888,19,14,-12,-8,4,15,7,71
1523178605994889,-3,0,13,-1,-2,-12,13,-6
1523178605994889,-6,-5,-3,19,2,2,5,-21
1523178606017297,12,-1,9,-22,-5,-4,-11,46
1523178606017297,-1,-1,4,-20,-1,-4,-8,-6
1523178606017953,1,-23,27,48,0,-7,9,34
1523178606017953,-7,0,15,-7,-1,8,7,-99
1523178606031253,-9,2,-30,-6,-3,-7,-33,12
1523178606031253,17,7,-1,2,-1,3,-3,60
1523178606039280,9,12,-6,-22,-1,2,9,60
1523178606039280,-21,-17,-3,-6,-4,1,13,-66
1523178606055083,9,6,18,20,2,-8,-24,-10
1523178606055083,7,4,-17,-6,-3,6,-2,11
1523178606055083,8,3,1,-33,1,6,20,110
1523178606055083,-24,-5,22,53,-1,-13,10,-73
1523178606077314,8,8,-5,1,1,9,-7,52
1523178606077314,3,-8,-14,-10,-1,-4,30,64
1523178606077314,-5,12,4,-5,-2,-3,-25,-120
1523178606077314,9,2,-35,-32,-3,2,11,72
1523178606091383,-17,-18,0,1,-4,-15,-23,-20
1523178606091383,-10,-1,5,16,0,4,11,30
1523178606099423,7,1,8,5,-1,0,-6,20
1523178606099423,-5,2,-4,-14,-4,2,-4,-45
1523178606114528,2,2,4,7,1,7,18,-32
1523178606114528,3,-8,-25,-17,-3,-9,-5,24
1523178606115216,-5,-4,28,29,2,5,-27,28
1523178606115216,-1,5,-14,-4,0,-3,2,-25
1523178606137268,-23,-12,1,-12,-6,-11,-47,-29
1523178606137268,2,7,21,-2,0,7,20,-8
1523178606138276,3,-6,-8,-16,-2,-1,-5,-16
1523178606138276,18,9,0,12,6,12,36,127
1523178606151557,-4,-7,-52,-21,-6,-18,-36,-87
1523178606151557,-6,2,27,32,2,5,12,-79
1523178606159328,-4,-2,-7,-5,1,-4,-4,49
1523178606159328,6,3,25,17,-1,2,-13,-38
1523178606174618,3,4,-2,-21,0,-5,23,47
1523178606174618,-4,-7,-15,3,0,-8,-40,-48
1523178606175374,-6,-1,-9,-7,-2,7,13,-8
1523178606175374,10,0,16,-28,-3,-1,-3,94
1523178606196724,3,3,-16,32,1,6,44,-37
1523178606196724,-14,-6,7,-13,-6,-16,-76,-10
1523178606197433,-3,4,-8,9,3,4,18,27
1523178606197433,-4,-10,-23,-19,-4,-12,-41,-12
1523178606211710,9,-1,2,-14,-2,6,-7,45
1523178606211710,8,2,4,10,-1,-5,-19,23
1523178606219486,-18,-1,-5,-1,-3,1,40,-128
1523178606219486,11,5,0,0,2,7,12,87
1523178606234792,2,8,19,19,-2,-1,2,-75
1523178606234792,-16,-10,-13,-25,-1,-8,-27,-44
1523178606235531,4,-2,20,34,0,-1,-3,32
1523178606235531,7,-3,-35,-11,-2,2,13,-19
1523178606256897,-17,-15,15,-21,1,-6,-17,20
1523178606256897,3,2,-9,3,-4,4,39,-20
1523178606257593,-1,4,3,-6,-3,-7,-15,12
1523178606257593,-1,-16,-12,-4,-2,0,22,14
1523178606280650,-9,-8,15,-6,-1,-2,-19,-34
1523178606280650,5,0,-10,14,0,0,-23,12
1523178606280650,-3,-7,-9,-25,-2,8,7,-20
1523178606280650,2,1,17,18,2,8,39,60
1523178606294974,0,7,1,16,0,15,32,-67
1523178606294974,-19,-2,-2,-10,1,-5,23,59
1523178606294974,5,1,-5,1,0,-3,-11,55
1523178606294974,-9,-8,-15,-21,-6,-11,-7,-73
1523178606317004,13,9,18,18,0,0,17,87
1523178606317004,7,4,1,4,5,4,26,-13
1523178606317747,-23,-9,-8,-1,-3,-15,-30,-100
1523178606317747,9,11,-14,2,4,4,-5,54
1523178606340072,0,-14,-37,-39,-4,-15,-18,33
1523178606340072,11,7,14,31,-3,5,10,-24
1523178606340811,-10,-5,17,11,3,15,26,28
1523178606340811,-2,-8,-10,-25,-2,-2,-35,-39
1523178606355048,-10,-6,16,23,1,0,-2,71
1523178606355048,-11,-3,-26,-34,-3,-20,-39,-61
1523178606355048,11,1,-13,5,-1,2,-10,37
1523178606355048,-11,7,14,-1,-4,3,5,-43
1523178606377064,15,10,-3,5,1,7,21,60
1523178606377064,2,-7,-22,-12,-3,-3,15,-18
1523178606377909,-1,0,15,15,1,-10,-22,-40
1523178606377909,-21,1,22,9,1,-3,-18,-26
1523178606400232,10,9,-3,-1,1,2,-1,38
1523178606400232,4,3,4,16,2,9,19,15
1523178606400969,7,-3,-1,-4,-4,-5,-18,4
1523178606400969,4,-1,-5,-27,-3,6,42,24
1523178606414270,-20,4,32,15,-4,-8,-19,-72
1523178606414270,2,-6,-11,0,0,2,-2,-43
1523178606415008,0,3,-26,-17,1,9,27,36
1523178606415008,11,6,8,7,-2,-27,-26,26
1523178606437065,-1,-2,-1,6,1,22,23,-10
1523178606437065,3,-1,6,-16,-4,-1,-9,31
1523178606437065,7,3,3,-10,1,6,15,4
1523178606437065,-10,-9,-3,19,-3,-10,-17,-26
1523178606460127,-6,-9,-20,-3,-2,-6,-8,-31
1523178606460127,13,13,21,-5,1,6,4,11
1523178606461130,-1,-8,0,-14,-2,-13,-15,0
1523178606461130,2,9,-2,17,1,11,6,58
1523178606474411,-2,-9,-26,-19,-3,-7,-19,-72
1523178606474411,-6,2,28,-3,-4,-18,-40,80
1523178606475168,1,-6,-6,26,2,-5,-5,-80
1523178606475168,2,-2,21,2,1,21,27,73
1523178606497509,-1,2,-46,-1,-1,2,-46,-18
1523178606497509,3,8,-4,-12,-1,-3,-13,-34
1523178606497509,-3,-12,-36,-32,-6,-4,33,48
1523178606497509,-1,-1,11,33,4,-3,5,-19
1523178606520286,4,5,-2,-16,-2,-7,-2,17
1523178606520286,-10,-15,21,16,2,10,-1,-18
1523178606521336,-5,12,9,5,-3,-3,-10,-23
1523178606521336,8,4,-1,-2,0,-1,-5,12
1523178606534580,5,-8,-17,-4,0,-4,15,47
1523178606534580,-13,-4,-12,-12,-2,3,-4,-72
1523178606535326,0,-4,6,7,-1,7,10,100
1523178606535326,-6,2,5,5,-2,-12,-23,-49
1523178606557384,0,-1,21,-2,1,15,57,42
1523178606557384,3,5,31,7,2,3,-22,-12
1523178606557384,-10,-14,-84,-26,-7,-12,-15,-40
1523178606557384,3,-3,22,-9,-1,6,15,32
1523178606580450,-6,3,13,25,-1,-9,4,-88
1523178606580450,-7,-4,9,2,2,1,13,29
1523178606580450,6,11,24,-7,0,-2,5,4
1523178606580450,10,-6,-24,-10,-2,-4,-24,37
1523178606594803,2,1,16,-1,-4,-1,37,64
1523178606594803,-19,-2,-33,-13,0,-5,-10,-92
1523178606595487,1,4,38,19,3,5,-18,63
1523178606595487,-6,1,-19,-14,-3,-2,6,-57
1523178606617566,6,-2,14,14,2,-4,-19,35
1523178606617566,9,3,-15,-12,-2,-16,-14,24
1523178606617566,12,4,5,5,3,5,6,85
1523178606617566,-7,-3,-4,5,-3,5,27,-56
1523178606640605,-7,2,16,-9,-3,3,-15,-61
1523178606640605,4,-11,-34,-24,-5,-8,12,95
1523178606640605,-2,5,11,5,3,-1,0,-52
1523178606640605,-1,0,22,14,-2,-7,23,77
1523178606654964,0,-13,4,6,2,-8,-45,-100
1523178606654964,3,-4,-20,-10,-3,11,26,53
1523178606654964,1,2,22,-19,-4,-8,-3,-4
1523178606654964,5,17,0,-15,3,9,-13,-75
1523178606676702,0,11,23,49,4,-5,-1,78
1523178606676702,11,-1,-2,6,-1,8,-1,6
1523178606677703,-6,-9,5,-21,-4,0,6,-20
1523178606677703,-12,-12,-34,-17,2,1,-36,-43
1523178606700027,2,2,22,-4,2,-2,6,-33
1523178606700027,-1,-2,-8,17,3,9,34,41
1523178606700767,11,11,-10,2,-3,-3,6,68
1523178606700767,-23,-8,-12,-13,-6,-6,-30,-89
1523178606714082,2,11,8,-14,-2,0,-4,42
1523178606714082,-2,1,15,29,-3,-7,-6,15
1523178606722092,7,-1,2,8,3,6,13,8
1523178606722092,6,2,-17,-13,-5,-6,-14,-21
1523178606736861,-16,-9,-10,-18,-4,-4,-10,-46
1523178606736861,19,19,28,18,2,3,4,76
1523178606737868,-8,2,-13,-7,-5,3,27,-80
1523178606737868,-13,-11,-6,2,-4,-4,-31,20
1523178606760120,-4,5,7,3,6,-8,-6,-43
1523178606760120,-13,-4,25,16,-1,2,-9,-60
1523178606760926,16,-2,-37,6,1,12,-17,72
1523178606760926,15,-4,10,-12,-1,4,38,90
1523178606774213,-34,-21,-15,-16,-9,-5,-4,-42
1523178606774213,12,10,-1,-7,-4,-2,-12,78
1523178606774962,-28,-5,8,2,2,-14,-32,-70
1523178606774962,5,-5,-4,8,2,1,-2,49
1523178606797298,22,4,-8,-1,-1,7,8,69
1523178606797298,-3,-10,-15,-29,-4,0,21,-58
1523178606798027,-20,-7,35,46,7,-16,-47,-94
1523178606798027,-5,-9,11,5,2,-2,13,-1
1523178606820083,8,-3,-8,-7,-3,-18,-45,19
1523178606820083,-3,-8,-18,-23,-5,-13,-16,-29
1523178606821087,3,4,9,2,-1,17,26,24
1523178606821087,13,11,7,26,0,-8,7,89
1523178606834334,-4,6,-11,-6,-2,6,-10,-56
1523178606834334,-25,-38,-48,-25,-6,-1,9,7
1523178606835122,-19,-17,-4,-11,-7,-11,-15,38
1523178606835122,-5,3,19,-15,0,-4,0,-44
1523178606857438,1,1,6,35,3,14,13,8
1523178606857438,13,4,16,6,-3,-23,2,12
1523178606857438,4,5,17,7,2,8,-8,-8
1523178606857438,5,-5,-6,-5,4,17,26,33
1523178606880520,-10,-10,-3,-17,-6,-15,-23,-53
1523178606880520,-1,6,8,-3,2,17,1,-8
1523178606880520,13,0,-3,-7,0,-3,22,51
1523178606880520,-2,3,12,10,-2,-9,-28,-36
1523178606894544,-2,11,-1,-2,2,9,29,-64
1523178606894544,-19,-9,0,8,-2,-11,-5,-23
1523178606895282,7,8,4,0,-4,6,4,25
1523178606895282,1,8,6,-2,1,7,-5,0
1523178606917528,2,-14,-23,-5,-5,1,6,26
1523178606917528,4,10,1,-6,0,7,-1,-19
1523178606917528,0,1,-5,-12,-3,-6,2,6
1523178606917528,-5,-6,-2,14,-4,-7,-5,22
1523178606940582,2,4,-3,-17,-2,-7,-19,-22
1523178606940582,0,8,-6,14,1,4,-21,47
1523178606940582,1,-6,-8,-33,-1,3,-14,-77
1523178606940582,-3,-10,22,20,0,-12,-4,37
1523178606954751,1,-7,-28,11,0,2,13,54
1523178606954751,1,4,0,-3,1,1,18,-4
1523178606955441,-11,-5,-5,-9,-2,2,-2,-27
1523178606955441,28,2,-4,-12,-1,2,-9,-5
1523178606976703,-5,-1,5,-13,0,-13,2,31
1523178606976703,-7,-9,-6,-6,2,3,11,-50
1523178606977503,4,7,28,33,-1,-3,-14,30
1523178606977503,-14,-1,-10,-10,-2,1,11,-17
1523178606999866,8,-1,-2,0,-2,-3,10,69
1523178606999866,3,-1,-24,-7,-3,-4,-38,-9
1523178606999866,-19,-9,1,-11,-5,-10,-9,-93
1523178606999866,-1,-8,-3,-14,1,11,-4,0
1523178607014862,3,7,13,18,1,-21,-20,28
1523178607014862,4,9,27,14,1,23,35,34
1523178607014862,16,1,-45,-41,-1,5,27,87
1523178607014862,-19,-4,31,45,-1,-10,-10,-128
1523178607036658,-7,-4,12,-10,-2,4,-22,38
1523178607036658,4,-2,-10,1,0,9,17,34
1523178607037665,5,5,3,-3,0,-6,10,17
1523178607037665,-8,-7,-72,-44,-8,-9,2,-12
1523178607059898,-6,4,46,22,2,12,15,-4
1523178607059898,-1,2,2,10,-1,-9,-12,-11
1523178607059898,0,-12,-7,5,-1,1,13,25
1523178607059898,-9,2,10,-13,-4,-5,5,-58
1523178607074013,6,-7,-48,-18,-3,16,29,50
1523178607074013,-2,-2,13,-18,-5,-11,-23,6
1523178607082038,-10,-12,0,33,2,-4,-40,-23
1523178607082038,7,3,8,4,0,-3,-10,27
1523178607097125,4,-1,-13,-9,-2,-8,-3,-39
1523178607097125,-8,4,-3,-8,0,11,-8,-32
1523178607097822,7,-5,17,-4,-3,-10,4,-17
1523178607097822,-5,3,-10,15,3,16,28,11
1523178607118876,5,-5,-23,-34,-1,5,6,77
1523178607118876,3,1,41,37,2,-10,0,-26
1523178607119880,0,8,-28,-1,-2,-4,-5,-12
1523178607119880,6,-1,16,-24,-2,2,2,117
1523178607134069,-17,4,30,36,0,-5,-15,-94
1523178607134069,-14,-5,-34,-23,-4,2,-26,-14
1523178607142195,-12,-16,13,-1,-4,-3,-5,-77
1523178607142195,13,4,-14,-12,-3,0,48,91
1523178607157287,13,9,-26,-16,3,17,-20,74
1523178607157287,-14,0,7,-6,-1,-12,-12,-98
1523178607157983,2,10,20,35,3,2,-4,58
1523178607157983,4,3,-4,6,-1,2,13,-44
1523178607179343,-8,-9,18,2,-1,-6,9,-10
1523178607179343,-3,-4,-31,-2,-1,-3,-4,22
1523178607180042,13,1,-21,-17,-2,-9,-22,-31
1523178607180042,-5,5,11,10,2,0,-6,20
1523178607194343,-1,-6,15,-5,-3,-8,3,-31
1523178607194343,12,-3,-12,11,3,6,18,91
1523178607202098,-13,-3,12,-3,-2,-3,-29,-82
1523178607202098,-13,-3,5,9,-5,-14,-15,-10
1523178607217346,2,-5,-25,-14,-2,-9,-33,7
1523178607217346,20,0,-19,-16,-4,7,41,127
1523178607217346,-13,-26,43,9,1,1,0,-68
1523178607217346,-7,4,6,11,-2,-4,-19,-18
1523178607239466,1,0,-17,-6,-4,-6,-5,28
1523178607239466,3,-3,15,3,2,-1,13,-6
1523178607240200,3,4,-21,-16,-2,6,49,66
1523178607240200,8,4,0,-6,0,-2,-29,-54
1523178607254353,-8,-8,1,-19,-5,-3,18,-29
1523178607254353,4,7,-8,17,1,-2,1,14
1523178607262530,-3,0,6,-14,-1,-2,-10,-16
1523178607262530,-1,-5,-1,2,2,0,-15,17
1523178607277524,20,17,-3,4,-2,1,30,73
1523178607277524,-20,-2,11,18,1,-8,-3,-128
1523178607277524,-2,6,2,2,-6,-10,-3,110
1523178607277524,10,5,-19,-31,0,-9,-27,-15
1523178607299680,0,7,21,31,3,12,18,-54
1523178607299680,-6,-10,6,-13,0,7,-6,34
1523178607306621,0,-30,6,9,3,3,21,67
1523178607306621,3,3,-11,-8,-2,-3,-18,-11
1523178607313669,-10,-1,0,-3,-1,0,-28,-69
1523178607313669,-1,5,13,3,-2,-11,-7,-18
1523178607322428,5,14,-17,-7,-1,1,11,9
1523178607322428,-7,-8,2,0,-1,7,17,45
1523178607336660,-1,-13,38,23,1,-2,11,35
1523178607336660,-2,-6,-10,-10,-6,-18,-23,-13
1523178607337460,-4,10,-21,-8,3,25,33,-21
1523178607337460,-15,1,27,15,2,3,17,-60
1523178607359755,8,0,-35,-14,-2,-11,-8,-123
1523178607359755,10,8,3,8,1,10,-3,127
1523178607359755,-1,-3,-6,-18,-1,-6,-16,-38
1523178607359755,2,2,-4,20,0,9,28,19
1523178607373807,1,-3,-4,-4,-6,-5,0,49
1523178607373807,0,1,20,9,-1,-2,9,-21
1523178607381845,-1,-10,-31,-11,-1,-5,-7,8
1523178607381845,1,-8,4,3,-2,-4,-16,-9
1523178607396866,-4,17,-10,0,-4,-6,-21,-1
1523178607396866,2,-10,-39,-47,-2,4,1,-22
1523178607397620,4,16,24,57,3,0,9,90
1523178607397620,-11,-8,-14,-10,-5,-9,-12,-90
1523178607419675,-2,-1,5,3,1,6,1,98
1523178607419675,-11,-8,1,-15,-7,-25,-45,-68
1523178607419675,-10,5,7,-4,0,-4,-16,14
1523178607419675,4,-8,-39,-17,-7,4,16,32
1523178607442999,1,-2,0,-9,-2,3,27,-6
1523178607442999,4,5,27,21,-3,-6,-17,18
1523178607442999,5,1,-21,-9,-2,-9,-3,-33
1523178607442999,-5,0,-1,2,-4,2,-1,0
1523178607457035,-15,-18,4,-5,-3,-5,-2,-22
1523178607457035,9,3,-11,9,1,6,10,22
1523178607457780,-6,-7,-30,-24,-7,-4,-2,-43
1523178607457780,5,-7,23,32,3,1,12,41
1523178607480023,3,6,-2,2,2,3,12,-35
1523178607480023,3,-3,1,12,0,-1,13,60
1523178607480023,-12,5,1,-19,-7,4,11,-128
1523178607480023,-1,5,-7,-15,-2,-4,-8,51
1523178607502896,3,-13,-16,7,2,-15,-26,37
1523178607502896,-3,-8,-15,1,-3,4,44,13
1523178607503946,7,-4,13,-5,-1,3,-34,56
1523178607503946,1,9,-7,-4,-2,-5,3,-53
1523178607517078,0,0,14,22,5,3,-5,40
1523178607517078,-6,3,-3,-7,-1,0,-15,-116
1523178607517937,6,2,4,3,1,-12,-13,48
1523178607517937,-5,-3,-25,-8,-5,0,-3,-62
1523178607539297,4,-9,4,-18,2,6,-5,54
1523178607539297,9,4,23,10,0,3,5,12
1523178607539996,-20,-8,-43,4,-5,-8,-23,-45
1523178607539996,-24,2,10,-5,3,-9,-35,-73
1523178607563172,-1,3,-16,-4,-6,-4,-9,-21
1523178607563172,5,-1,15,-4,4,20,22,49
1523178607563172,13,1,6,14,2,6,14,61
1523178607563172,6,3,3,-19,1,-4,4,72
1523178607585116,1,1,-15,6,-2,8,19,17
1523178607585116,-8,2,7,-4,4,-8,-35,17
1523178607586120,-2,7,5,-3,-2,12,-1,-89
1523178607586120,-16,-9,-10,-11,-2,-11,-39,49
1523178607599424,-3,-4,-3,-1,-3,1,6,24
1523178607599424,7,12,-9,-20,0,-5,27,-10
1523178607600158,-2,-11,13,20,3,6,10,4
1523178607600158,3,-4,34,15,3,-3,-30,4
1523178607622410,1,0,-17,-20,-2,2,0,-24
1523178607622410,-14,-9,-33,-18,-8,-16,-1,22
1523178607623217,3,-1,17,9,0,0,20,21
1523178607623217,12,1,15,5,3,20,39,-20
1523178607637493,-6,4,7,-1,-1,-6,5,8
1523178607637493,-6,7,2,9,-4,-12,-40,-69
1523178607637493,18,6,6,-4,2,2,24,98
1523178607637493,-6,-2,-5,-1,-1,7,24,-59
1523178607659513,-3,4,-8,-42,1,16,28,88
1523178607659513,-16,-6,47,62,-3,-9,-9,-111
1523178607660318,4,-2,-8,-12,-2,15,9,74
1523178607660318,14,3,-10,-2,1,-2,5,16
1523178607682633,5,5,2,7,-2,-9,-5,-30
1523178607682633,1,-15,-30,-25,-2,14,16,53
1523178607683381,1,11,28,6,2,-1,-9,-64
1523178607683381,-2,-8,-21,-9,-6,-5,-6,1
1523178607697496,-7,-2,34,-1,1,-5,-9,-44
1523178607697496,16,-2,-7,9,0,-1,-22,97
1523178607697496,-6,0,-16,-1,-2,-9,14,-10
1523178607697496,-13,0,12,-11,-4,-12,-72,25
1523178607719621,9,0,12,19,1,7,34,90
1523178607719621,-23,-8,-2,-13,-1,-3,9,-124
1523178607720646,-5,5,-12,-12,-1,-10,-12,9
1523178607720646,12,-17,-1,11,1,6,23,48
1523178607742736,-1,2,-10,3,-1,-9,-20,-21
1523178607742736,14,2,-5,-25,3,1,20,92
1523178607743541,-3,-1,4,4,1,7,48,-31
1523178607743541,-12,-3,-2,-2,-2,-2,-12,-71
1523178607756831,-1,-11,15,19,-1,-1,2,3
1523178607756831,-6,-5,-34,-16,1,3,8,-48
1523178607757576,2,0,33,4,0,6,26,27
1523178607757576,0,-10,1,19,1,-6,-10,14
1523178607779894,-4,-7,-23,-12,-4,2,19,-26
1523178607779894,8,5,22,-2,-1,-2,-23,25
1523178607779894,-7,-5,-11,-12,-6,-18,-47,-95
1523178607779894,8,6,19,9,4,5,0,63
1523178607802696,-7,-9,9,7,-2,2,3,-43
1523178607802696,13,1,-1,-7,-5,-8,4,101
1523178607803771,-2,-3,-20,-12,-2,-13,-11,-2
1523178607803771,-13,-4,3,9,0,0,1,4
1523178607816829,-7,14,-5,-5,-5,-1,-1,-42
1523178607816829,0,2,15,8,3,6,3,7
1523178607817736,-14,-14,-19,0,-6,-18,-70,-56
1523178607817736,9,4,-14,-17,-2,-4,23,23
1523178607839990,8,7,3,19,3,5,19,48
1523178607839990,-4,3,3,-8,-1,10,-16,-60
1523178607839990,-4,0,1,1,1,4,-3,14
1523178607839990,-4,-4,-22,-4,-2,-7,-12,-31
1523178607863150,9,4,12,32,0,-7,-22,33
1523178607863150,14,3,-5,-2,3,10,31,105
1523178607863857,-31,-14,-8,-8,-4,7,17,-93
1523178607863857,5,5,-4,-26,-2,-2,-19,47
1523178607877042,-4,-4,8,9,-2,1,-6,0
1523178607877042,-10,-5,-11,6,-4,-9,-22,-37
1523178607877895,16,9,0,3,2,8,22,72
1523178607877895,6,1,5,17,-1,-2,16,40
1523178607899997,-2,-3,-40,-46,0,5,10,-49
1523178607899997,-13,-7,7,6,-2,-1,25,-46
1523178607899997,-3,-1,17,7,-3,1,-34,-26
1523178607899997,10,7,8,-1,1,0,18,55
1523178607923167,2,29,18,1,-1,-12,-36,-116
1523178607923167,-7,-7,-35,-10,4,14,13,27
1523178607923167,7,-1,26,33,1,-9,-4,50
1523178607923167,6,2,-16,-8,-2,4,16,21
1523178607937368,-5,-4,-1,-31,-4,-5,-19,1
1523178607937368,-1,4,13,21,0,1,-22,-21
1523178607938059,-4,1,-3,-11,-2,-8,-2,49
1523178607938059,3,8,8,8,0,1,-25,-93
1523178607959312,-11,-14,-45,-40,-6,1,6,19
1523178607959312,-7,-4,31,15,1,-9,-27,-23
1523178607960116,13,5,-7,17,1,4,12,55
1523178607960116,3,-3,2,-5,-4,-3,12,47
1523178607982438,-6,-6,-9,5,-3,-11,-18,-58
1523178607982438,-5,-2,-1,-30,0,6,10,21
1523178607983173,6,5,-19,-2,-1,-1,-11,20
1523178607983173,-6,-11,3,-2,-3,-4,3,-48
1523178607996487,1,-2,9,28,3,1,2,35
1523178607996487,3,0,-6,-27,-5,0,9,0
1523178608004477,9,6,12,32,3,1,10,20
1523178608004477,2,-11,-12,-10,-1,-3,1,40
1523178608019271,-20,-1,-1,-21,-5,-1,-1,-58
1523178608019271,2,-1,-1,19,1,5,7,34
1523178608020272,2,-1,-2,-38,-4,6,37,34
1523178608020272,-4,-10,11,37,0,2,23,15
1523178608042531,4,3,-2,-3,-3,-6,6,-46
1523178608042531,-4,-3,-4,-16,-3,-5,-8,28
1523178608043336,-3,1,6,7,0,3,-24,-33
1523178608043336,-7,-1,-6,14,-4,-12,29,-27
1523178608056633,5,-9,-1,7,0,14,17,49
1523178608056633,5,-1,-8,-1,-5,-14,-19,-1
1523178608064643,-10,-8,4,0,0,-1,1,24
1523178608064643,-4,-3,-14,-14,-2,0,-7,-28
1523178608079717,-12,-8,1,-7,-3,-12,-27,-69
1523178608079717,10,3,2,18,-2,-5,18,76
1523178608080432,-5,0,12,-3,0,-1,34,-104
1523178608080432,1,4,5,-10,2,5,-26,30
1523178608102491,4,-6,7,8,2,4,8,81
1523178608102491,-10,0,-19,-21,-4,-3,-4,-23
1523178608103495,32,-1,-3,0,3,3,33,55
1523178608103495,-13,-2,18,7,-2,3,-25,-89
1523178608116602,8,5,-3,18,10,19,37,37
1523178608116602,0,-3,24,12,-2,-7,-4,-5
1523178608124551,-20,-9,-65,-33,-5,-10,-35,-28
1523178608124551,4,9,12,3,2,12,34,7
1523178608139854,12,0,-25,-15,0,-1,-8,61
1523178608139854,-7,-14,0,-2,-2,0,-6,-43
1523178608140595,-15,-3,19,21,-5,-8,-18,-56
1523178608140595,2,5,0,-4,1,0,10,8
1523178608162931,6,3,10,-1,-3,-13,-13,82
1523178608162931,-4,0,1,10,0,0,3,-122
1523178608163653,-2,3,3,-5,1,16,-16,2
1523178608163653,-3,3,-13,-13,1,-3,20,52
1523178608176847,0,-2,18,9,-1,-1,-17,-10
1523178608176847,0,-8,-41,-10,-2,-9,12,26
1523178608184711,9,-2,-14,-16,-4,-9,-5,16
1523178608184711,-4,2,5,-1,-3,-4,-1,-31
1523178608199872,-7,-3,3,-4,-3,3,-14,-20
1523178608199872,-1,3,24,8,-1,-6,-1,8
1523178608199872,-3,9,-9,-1,2,-6,3,0
1523178608199872,8,-8,3,-2,-1,6,-7,48
1523178608223051,-8,-4,-8,-1,-3,-14,-24,-86
1523178608223051,-10,-8,11,-10,-6,-4,-8,-2
1523178608223051,6,-4,18,8,4,14,8,17
1523178608223051,-2,-1,-31,-8,-3,-13,-33,-17
1523178608235845,-4,-4,-3,5,-4,5,12,21
1523178608235845,-5,16,1,5,0,-5,-25,-98
1523178608243917,6,-2,0,-22,-1,-4,-13,107
1523178608243917,3,0,-11,-3,-1,-7,9,-44
1523178608259173,-11,-3,27,32,0,-2,1,26
1523178608259173,2,4,-19,-19,0,3,9,25
1523178608259911,-5,-6,-5,3,-4,-10,-6,11
1523178608259911,2,-1,-19,-8,-3,-1,-1,-26
1523178608283124,12,4,7,0,1,-8,11,52
1523178608283124,-8,1,12,16,4,8,-2,-36
1523178608283124,2,-2,9,6,-3,-1,-8,72
1523178608283124,-14,-1,-19,-12,-2,-3,-9,-91
1523178608305349,9,-8,8,-21,-4,-17,-14,61
1523178608305349,6,0,3,28,5,11,-10,52
1523178608306036,-8,-4,-19,-17,-4,2,7,-49
1523178608306036,3,-2,13,7,0,4,17,19
1523178608320069,-1,6,-7,-2,1,6,1,-24
1523178608320069,10,-15,25,-8,0,-4,4,19
1523178608320069,-6,1,-18,-5,0,0,-10,-76
1523178608320069,-5,2,21,-1,-5,-6,-3,58
1523178608343142,8,2,4,8,3,9,16,-30
1523178608343142,-1,-3,-10,0,-4,1,1,9
1523178608343142,-22,-7,8,7,2,-4,-15,-52
1523178608343142,-1,-8,-4,-15,-3,-3,-18,14
1523178608365453,1,4,10,0,-3,5,-2,2
1523178608365453,10,9,-18,-8,-4,-7,35,68
1523178608366191,1,4,0,24,3,-11,-60,-51
1523178608366191,-6,-9,-3,-20,-1,2,-5,-12
1523178608379520,-4,-11,-2,-2,-1,0,11,31
1523178608379520,-11,-8,7,23,0,-8,-18,-47
1523178608380230,3,9,0,-5,-2,9,44,88
1523178608380230,2,4,-6,-5,-1,-8,-15,-73
1523178608402286,-13,-4,-13,-15,-4,-2,7,-35
1523178608402286,4,6,0,-13,-1,2,-10,39
1523178608403292,5,-8,10,-5,-3,-7,-8,35
1523178608403292,2,4,12,13,2,9,22,13
1523178608425493,2,-8,-25,0,-1,-1,-14,1
1523178608425493,-15,-2,-21,-10,-2,-3,-10,-108
1523178608425493,4,1,18,4,1,-4,-11,19
1523178608425493,9,6,14,25,4,3,11,89
1523178608439659,-6,0,1,-7,-3,-6,-8,-78
1523178608439659,4,7,11,-12,-1,5,2,64
1523178608440391,5,-4,-39,-20,-5,-2,-9,-23
1523178608440391,-7,-11,6,-5,-5,-5,20,11
1523178608462724,7,5,-1,10,2,9,23,55
1523178608462724,-3,6,22,12,-2,-19,-19,-47
1523178608463450,-14,-19,10,-9,1,17,22,-14
1523178608463450,4,3,-10,-9,-2,-6,-22,31
1523178608484506,-2,7,18,6,2,-2,-1,6
1523178608484506,2,0,-10,5,0,6,-13,-24
1523178608485510,-6,-2,-16,-19,-3,-16,-10,-21
1523178608485510,2,4,2,17,1,0,-10,21
1523178608499591,10,4,-2,1,0,3,21,27
1523178608499591,0,-5,-12,-29,-2,4,9,31
1523178608500549,-13,-7,4,-8,-2,-7,-6,-93
1523178608500549,-4,5,14,47,4,8,-19,9
1523178608522872,-1,-9,-18,-24,-5,-2,14,26
1523178608522872,6,-5,-7,4,0,1,30,40
1523178608523609,2,5,4,-19,-2,3,-3,-14
1523178608523609,-2,4,-5,-17,-2,-10,-24,-9
1523178608545771,-2,-3,14,-6,0,-11,-16,15
1523178608545771,1,7,1,28,7,18,30,30
1523178608545771,23,-7,-21,-5,-4,-19,-19,-56
1523178608545771,-14,-12,7,8,-2,3,-3,11
1523178608559979,-14,-5,-26,-26,-4,-12,-61,-81
1523178608559979,-10,-23,11,24,-1,-4,21,23
1523178608559979,5,6,10,27,2,2,15,22
1523178608559979,5,5,-8,-24,-5,-4,12,11
1523178608582875,3,-3,-13,-10,-3,-3,-14,-9
1523178608582875,-5,-4,0,-15,-1,5,-2,-53
1523178608582875,-10,-3,-20,-10,-7,-11,-24,19
1523178608582875,7,3,-20,-17,8,14,38,26
1523178608605132,0,-13,53,50,-3,-2,6,0
1523178608605132,-12,-14,-8,-19,-3,-11,-21,-15
1523178608605830,-12,4,15,44,-1,2,6,56
1523178608605830,3,5,-8,-20,-3,-1,0,-76
1523178608620004,2,9,-16,-16,0,-4,-12,10
1523178608620004,1,-8,-9,-8,0,12,31,24
1523178608620004,9,-2,5,-14,3,16,30,33
1523178608620004,-3,-2,-13,-24,-8,-30,27,-4
1523178608643193,-20,-2,35,55,9,15,-28,-79
1523178608643193,15,5,-11,-11,-4,-11,-8,28
1523178608643193,13,16,10,25,2,-1,12,127
1523178608643193,-29,-7,7,12,-2,-2,-36,-122
1523178608665288,6,9,-15,-23,-1,2,35,31
1523178608665288,-2,10,17,-9,-1,-2,-16,-33
1523178608665990,-5,-14,-26,-4,-4,-2,-13,12
1523178608665990,3,-7,20,7,-1,-3,-17,12
1523178608680070,2,4,-17,-3,-2,7,35,10
1523178608680070,-2,11,-4,20,-1,5,24,44
1523178608680070,9,3,-32,-35,0,2,2,-25
1523178608680070,-8,-4,14,15,-3,-6,-19,-11
1523178608703159,-8,-2,27,31,-2,-3,-12,1
1523178608703159,8,10,-18,-23,-3,-11,-22,-9
1523178608703159,-12,-9,25,28,2,1,23,-38
1523178608703159,5,4,7,-31,2,1,-5,60
1523178608725300,2,-4,-15,14,1,11,36,-23
1523178608725300,1,-3,-46,-1,-6,-2,-17,9
1523178608726150,-6,0,6,-23,-2,-8,-12,-66
1523178608726150,-12,0,7,12,-4,-4,-23,-59
1523178608739448,0,1,28,2,-1,7,65,76
1523178608739448,4,-5,11,8,1,12,-12,-12
1523178608740189,3,6,-11,-9,1,3,-3,22
1523178608740189,11,-6,-19,-14,-1,6,33,-5
1523178608762525,0,-4,8,-8,3,0,-28,61
1523178608762525,-6,-10,-17,-12,-8,-6,3,0
1523178608763251,-5,1,13,21,-2,-7,-3,-106
1523178608763251,0,6,-5,8,6,15,-23,63
1523178608785307,6,-1,-11,-10,0,-3,2,22
1523178608785307,-4,-2,7,14,0,-6,-11,-49
1523178608786361,-1,-6,-4,-18,-6,11,8,51
1523178608786361,14,0,-1,2,0,-6,-3,46
1523178608798593,-19,2,-6,-2,0,-13,-6,-91
1523178608798593,-9,-3,6,-1,2,-1,-33,-11
1523178608807365,4,13,40,-7,-2,-1,9,52
1523178608807365,4,3,-39,-16,-3,-2,12,-6
1523178608822647,13,-8,-34,19,-1,0,-8,104
1523178608822647,0,2,16,-15,0,-9,-4,-55
1523178608824411,-28,-12,9,27,2,-1,-15,-82
1523178608824411,5,6,7,-6,1,3,3,78
1523178608845716,1,-9,-14,-27,-6,-4,-9,-19
1523178608845716,3,1,4,9,2,2,7,16
1523178608846470,10,8,-8,-2,-4,-3,-2,69
1523178608846470,-2,-21,15,-3,-3,3,29,-59
1523178608858701,-8,2,-15,-1,-1,0,-10,-56
1523178608858701,3,1,-1,0,1,9,8,124
1523178608867523,2,-9,1,-21,-2,-1,34,-100
1523178608867523,-9,3,2,19,-4,-8,-29,3
1523178608882619,-6,-6,-4,-6,-3,-4,-21,-14
1523178608882619,-2,-5,5,-9,-4,-1,7,2
1523178608883569,11,3,-10,-8,0,1,16,55
1523178608883569,2,-2,-14,0,-1,2,2,15
1523178608904927,-6,2,4,-25,-3,-1,-16,-61
1523178608904927,-7,-1,-39,4,-3,-7,-9,-26
1523178608906628,-2,-6,32,31,1,-8,-37,41
1523178608906628,7,3,25,24,2,6,6,3
1523178608918702,-4,-10,-33,-11,-1,-5,-14,-79
1523178608918702,-4,0,5,-2,0,7,7,-12
1523178608927686,4,-7,-14,-15,-4,2,-11,40
1523178608927686,2,9,0,0,0,2,13,37
1523178608949744,1,-1,-8,-8,-3,-16,-19,-25
1523178608949744,7,3,13,-7,-2,-3,15,-28
1523178608951748,-19,3,-15,21,2,20,22,-86
1523178608951748,3,0,-1,-10,1,13,15,41
1523178608965006,9,5,-7,-11,-4,3,35,56
1523178608965006,2,1,15,-1,1,-2,-12,4
1523178608966787,-5,-1,-17,7,-1,-10,-13,-7
1523178608966787,-7,-12,-17,-10,0,-1,10,-1
1523178608979125,-3,2,11,-10,-1,1,-13,-29
1523178608979125,5,2,19,18,0,1,6,63
1523178608987847,3,-1,-5,-22,-2,-5,-2,-14
1523178608987847,-11,-7,-8,14,-4,-12,-18,-45
1523178609003108,-3,-5,-7,-20,-1,2,-13,49
1523178609003108,6,1,20,11,-1,-7,-8,34
1523178609003889,-6,-4,-28,-3,1,1,26,-49
1523178609003889,-9,1,20,0,-2,1,-21,7
1523178609025216,5,7,21,42,5,7,0,31
1523178609025216,-4,-2,-18,-16,-3,-8,-1,8
1523178609026989,9,3,11,-10,0,-24,-31,-19
1523178609026989,-5,3,-4,-12,-2,7,8,-35
1523178609039182,-5,-1,-36,-17,-8,-3,17,-20
1523178609039182,-1,-7,12,21,2,1,-24,19
1523178609048003,6,-4,4,5,-3,0,9,77
1523178609048003,-9,1,-1,-10,-1,-6,-31,-80
1523178609063059,4,-2,20,-1,0,0,-10,41
1523178609063059,1,0,-21,-6,0,-3,3,-13
1523178609064047,-5,-2,-22,-11,-2,8,-7,-11
1523178609064047,5,-4,-4,0,-4,-2,2,-35
1523178609085105,-7,-3,3,6,0,2,1,-11
1523178609085105,-2,1,36,19,-1,-7,4,49
1523178609086106,4,1,-12,-16,-2,2,3,-6
1523178609086106,-8,0,-6,10,-4,-6,-1,8
1523178609099139,1,-2,17,-20,-3,-6,-7,-23
1523178609099139,-4,-8,-10,13,1,4,13,-1
1523178609107418,-2,-11,10,-6,-2,-9,7,27
1523178609107418,8,-1,-15,-16,1,14,27,12
1523178609122466,6,8,13,-3,0,-8,17,44
1523178609122466,-14,-4,21,24,1,3,-16,-107
1523178609124206,-2,2,-3,-5,-5,-10,-11,39
1523178609124206,10,-1,3,5,2,-2,6,46
1523178609145540,5,1,-9,-6,-2,5,12,12
1523178609145540,10,16,-28,-27,-7,-7,-1,-13
1523178609146268,-16,-1,25,25,5,11,12,28
1523178609146268,3,-4,24,19,1,-2,37,34
1523178609158575,-5,-3,-25,-4,-1,1,-31,-67
1523178609158575,-17,0,-6,-22,-3,-10,-14,-45
1523178609167319,13,7,5,-9,0,8,4,28
1523178609167319,-8,-3,-1,-8,-1,-1,-27,-3
1523178609182408,8,4,6,11,2,3,13,30
1523178609182408,2,-17,-12,-12,-1,6,2,-12
1523178609184368,-4,-7,3,-2,-5,-8,-10,4
1523178609184368,0,0,-6,-3,0,4,-19,-47
1523178609204727,-12,-4,12,6,-1,-10,-19,-55
1523178609204727,6,5,-18,-10,-2,3,8,16
1523178609206425,3,-5,16,-22,-5,-18,-39,30
1523178609206425,4,9,-8,35,1,0,22,48
1523178609218457,-13,-9,2,-8,-2,7,6,-92
1523178609218457,11,3,-7,-8,-1,4,8,95
1523178609227546,-21,-5,-10,3,0,0,-15,-97
1523178609227546,-1,-1,1,-18,-3,-3,-23,40
1523178609241718,2,-2,7,1,-1,-7,-4,38
1523178609241718,0,1,-21,-5,-1,6,-15,-27
1523178609250541,-1,-3,-19,28,2,13,28,-20
1523178609250541,1,6,-22,-38,-3,-9,-9,-22
1523178609265657,8,-14,54,77,6,-13,17,97
1523178609265657,-13,-2,-14,-21,-2,2,-5,-83
1523178609266588,4,-1,-1,-9,-5,2,12,43
1523178609266588,-6,1,6,-11,-2,-8,-35,-65
1523178609287912,0,-8,-44,-13,-2,6,48,29
1523178609287912,4,5,27,5,1,-3,-11,59
1523178609288643,1,1,7,14,0,4,25,-3
1523178609288643,-3,-7,-17,-16,-2,5,6,-7
1523178609303009,9,7,12,-4,0,9,-3,53
1523178609303009,-7,-9,-8,-1,0,-4,0,-63
1523178609303683,-14,5,10,28,3,2,-13,-62
1523178609303683,7,-5,-21,-14,-2,-8,-22,3
1523178609324936,0,6,-7,-26,-2,-16,-22,-16
1523178609324936,0,-5,-9,13,0,14,38,72
1523178609326744,22,7,8,-11,-1,-3,-8,53
1523178609326744,-4,-20,19,17,2,0,-2,11
1523178609348077,-25,-4,-28,-24,-6,-8,-35,-112
1523178609348077,-2,3,8,9,-1,-7,-15,46
1523178609348804,8,7,8,-2,2,-1,16,58
1523178609348804,4,0,2,43,1,4,35,25
1523178609363133,11,4,3,-20,1,16,21,-14
1523178609363133,-7,-3,-4,-13,-5,-10,-18,-46
1523178609363847,0,-2,-16,-18,-2,4,-17,8
1523178609363847,-5,2,7,9,0,-3,3,-22
1523178609384903,3,8,19,2,-1,-1,-24,23
1523178609384903,-3,-4,-11,-4,-1,-3,-3,-37
1523178609386952,-12,-9,1,4,0,-6,-18,-23
1523178609386952,2,1,0,-5,-2,-2,0,10
1523178609407960,5,0,1,4,-1,7,0,17
1523178609407960,5,-1,8,-5,-1,-7,-16,10
1523178609408966,-8,-4,-1,-5,-3,1,2,-21
1523178609408966,-4,-4,-3,-5,-2,-2,-8,8
1523178609422250,4,-1,-25,-15,1,3,7,19
1523178609422250,1,0,20,8,-3,-5,2,-2
1523178609429146,-12,-4,2,11,-1,-9,4,-57
1523178609429146,-8,0,-10,-6,-3,-1,-17,-49
1523178609445061,5,7,2,7,0,2,17,53
1523178609445061,1,-8,-31,-19,-6,-15,5,35
1523178609447063,5,4,12,8,3,20,21,-3
1523178609447063,4,4,9,4,1,3,-2,94
1523178609468119,-8,-6,-5,-5,-6,-8,-10,-120
1523178609468119,-6,-3,12,-1,1,-13,-25,-5
1523178609469121,-5,-13,-3,12,1,6,15,49
1523178609469121,8,7,-1,-16,-5,-11,-24,-35
1523178609482200,0,-5,-15,23,2,24,18,58
1523178609482200,-5,2,27,20,2,1,45,-7
1523178609489342,18,13,-3,-9,1,-2,-18,49
1523178609489342,5,-1,-11,-6,0,8,36,4
1523178609505498,-24,-12,3,-21,-8,-17,-26,-81
1523178609505498,-8,-1,10,22,1,1,-21,-31
1523178609506226,6,-9,-8,-14,-1,2,-22,4
1523178609506226,-3,-6,8,-3,1,3,58,38
1523178609528532,11,1,34,2,0,0,6,76
1523178609528532,-3,-8,-55,-12,-1,5,10,-27
1523178609529287,8,7,23,6,-2,-11,-13,48
1523178609529287,-4,-3,-8,-12,-1,-2,-18,-64
1523178609542521,0,-2,1,11,2,-17,-12,54
1523178609542521,-2,1,26,6,3,13,-22,-31
1523178609548613,-5,0,-6,-14,-4,-6,-5,-65
1523178609548613,-4,-2,-12,11,-3,3,21,28
1523178609565427,3,6,0,-13,-1,-10,-13,-16
1523178609565427,-1,1,8,-2,0,6,2,46
1523178609566384,-1,0,-5,-1,-3,-10,-19,-40
1523178609566384,-1,-3,1,2,-1,13,1,27
1523178609587689,7,3,3,8,1,0,14,-2
1523178609587689,-6,-5,-20,-15,-2,-7,-1,-47
1523178609589444,-21,-10,-14,-17,-4,1,-23,-70
1523178609589444,-1,11,27,16,1,-11,-26,7
1523178609602531,6,7,-2,33,5,6,-8,79
1523178609602531,13,-3,-8,-6,-1,-3,-10,-30
1523178609608693,-3,4,-8,-41,-3,-3,14,16
1523178609608693,2,2,6,29,1,-2,14,11
1523178609625635,2,4,-4,-2,1,22,10,18
1523178609625635,0,10,32,-1,-2,-4,-3,7
1523178609626544,6,-2,-44,-5,-2,1,-3,13
1523178609626544,2,-2,-14,-21,0,2,-2,23
1523178609647886,-9,-11,-1,12,-5,-8,-19,-65
1523178609647886,-7,0,7,-36,-3,-6,-7,-31
1523178609648606,-1,4,25,69,8,4,5,-60
1523178609648606,8,-7,-15,-13,-2,-8,-1,74
1523178609661910,-1,-3,6,-8,-3,3,35,-44
1523178609661910,-8,-9,-28,-25,-6,-12,-38,-10
1523178609668996,-4,1,18,-5,-1,6,9,-38
1523178609668996,-11,1,32,13,2,-1,-34,-36
1523178609685703,-1,-10,-27,-21,-3,-7,0,58
1523178609685703,14,9,-9,11,1,7,12,37
1523178609686704,7,-4,12,-5,-2,-4,-13,17
1523178609686704,-17,-2,-1,6,-2,6,24,-18
1523178609708045,0,4,6,3,4,6,1,-14
1523178609708045,3,-1,0,2,-2,2,22,15
1523178609708760,4,4,10,-19,-5,-15,-9,3
1523178609708760,1,0,-16,9,3,6,4,45
1523178609722045,-6,-4,2,6,-7,-14,-42,-107
1523178609722045,-11,-7,-2,2,2,6,34,-16
1523178609729079,-2,4,-14,-8,-3,-11,1,34
1523178609729079,9,-1,10,-11,-2,-9,-30,15
1523178609744951,8,5,-6,-26,-4,-9,29,110
1523178609744951,0,-9,12,35,3,17,-18,-60
1523178609746864,-14,-10,7,-1,-6,4,10,27
1523178609746864,-8,-8,-33,-19,-4,-16,-16,-30
1523178609775001,2,-2,1,25,3,7,21,47
1523178609775001,7,9,10,-8,-1,-9,-7,13
1523178609776942,0,-3,-20,-1,0,-4,0,24
1523178609776942,3,-3,-17,-9,-3,2,-2,-42
1523178609781038,0,-7,-3,-8,-4,-12,-20,13
1523178609781038,-4,4,-4,-2,1,-1,4,20
1523178609789978,11,3,-3,32,8,9,16,-2
1523178609789978,-1,-1,-7,-15,-4,-6,-3,-50
1523178609805270,-18,-1,-7,-4,1,-2,-30,-41
1523178609805270,9,4,9,-20,0,7,14,67
1523178609807021,-2,-4,-4,15,-1,-2,3,-18
1523178609807021,8,2,1,-6,-3,-4,13,30
1523178609827347,-7,-14,-16,-5,-4,-20,-41,-60
1523178609827347,-4,2,-17,-1,1,0,1,19
1523178609829079,10,7,9,-4,0,7,28,85
1523178609829079,-11,-5,14,7,0,3,8,-80
1523178609841309,-10,1,8,-2,-4,-3,-18,-45
1523178609841309,0,-5,-8,-19,-4,-6,-22,6
1523178609850138,5,-10,0,39,2,-6,0,52
1523178609850138,3,1,-3,-10,-1,5,0,-46
1523178609865179,-14,-2,-1,-14,-1,5,19,-13
1523178609865179,4,1,3,15,-1,0,3,11
1523178609866178,7,3,9,-20,-3,-1,-2,13
1523178609866178,2,-1,-29,-9,-2,5,20,54
1523178609887450,-5,-4,36,0,2,4,-3,-72
1523178609887450,2,12,-6,30,-1,-11,-39,-4
1523178609889240,-4,-11,-15,-22,-3,3,6,-8
1523178609889240,3,-2,28,2,-2,-7,-1,46
1523178609901273,6,8,-11,21,5,5,32,35
1523178609901273,-5,0,7,-7,-1,2,5,-80
1523178609910297,-10,0,-8,-21,1,10,-7,-35
1523178609910297,10,4,6,33,2,2,-4,44
1523178609925478,8,5,-6,-23,-1,-3,-3,-8
1523178609925478,-6,-3,23,2,-3,0,7,9
1523178609926341,-2,-3,-45,-13,-1,-5,4,25
1523178609926341,-5,0,23,-9,-3,-2,8,4
1523178609947649,4,-5,26,24,3,9,22,9
1523178609947649,1,-7,-17,-3,-2,-6,4,8
1523178609949400,-4,2,7,-7,1,-3,-37,-34
1523178609949400,-2,3,-3,-5,0,-4,-4,9
1523178609961683,4,7,6,17,3,23,40,27
1523178609961683,-10,-12,-20,-20,-7,-1,4,-19
1523178609970458,-1,-5,2,-21,-3,-11,3,43
1523178609970458,-4,0,8,45,3,-1,-10,-45
1523178609985733,-5,0,-8,-12,-3,-6,-33,-15
1523178609985733,7,2,0,-2,-1,-1,14,61
1523178609986500,-4,1,-5,-1,-2,-5,-12,-52
1523178609986500,6,5,-3,-15,0,3,26,45
1523178610007705,-6,-3,1,-8,-2,0,-14,-76
1523178610007705,-21,-7,-2,7,-2,-4,16,23
1523178610008559,7,5,16,13,5,-1,-37,22
1523178610008559,-2,-24,1,-2,2,20,49,-18
1523178610021649,-7,-10,-42,-28,-7,-7,22,29
1523178610021649,4,-6,8,14,-2,-6,-15,7
1523178610029865,3,6,7,5,1,3,17,-19
1523178610029865,-1,3,7,-11,-3,-8,-18,-11
1523178610052923,1,-2,9,-3,-2,0,22,36
1523178610052923,2,1,-8,14,1,2,-21,-12
1523178610053678,-6,-4,4,1,-3,-15,-35,-4
1523178610053678,3,5,-15,-10,1,23,66,28
1523178610067716,2,3,-10,-6,-2,-3,-26,-1
1523178610067716,1,8,16,3,0,-1,10,-31
1523178610068715,11,5,-13,3,2,-3,21,37
1523178610068715,-18,-5,-22,-26,-9,-13,-68,-111
1523178610081049,-14,-8,8,16,-2,-10,-11,-6
1523178610081049,14,7,22,40,8,9,21,-16
1523178610089832,1,-6,-17,-12,-6,6,13,69
1523178610089832,0,-3,-10,-21,-2,-17,-53,-12
1523178610105075,8,2,1,8,-1,0,19,33
1523178610105075,8,3,-25,-50,-4,-9,-21,20
1523178610106821,-14,1,15,32,1,-3,26,-9
1523178610106821,-3,-4,-1,-5,-2,-1,-1,-58
1523178610128140,8,7,0,-4,0,-1,-24,13
1523178610128140,-2,2,7,15,1,-3,24,-5
1523178610128881,-7,2,-1,-16,-5,-1,-22,29
1523178610128881,2,-2,1,16,0,5,-9,-38
1523178610141184,-7,-2,-5,-13,1,0,-6,-20
1523178610141184,-1,-4,-11,-1,-1,6,31,28
1523178610149935,5,2,1,-9,-1,10,40,21
1523178610149935,4,4,10,18,0,-1,-13,-39
1523178610164973,1,-9,22,8,0,-6,-42,15
1523178610164973,-11,-3,-26,-16,-2,-8,-48,-3
1523178610165976,-11,-9,-5,-17,-2,-5,-8,-115
1523178610165976,-17,-9,20,18,3,8,8,68
1523178610188034,18,14,-23,-20,0,2,3,58
1523178610188034,-23,-6,30,17,2,1,1,-81
1523178610189039,4,-2,-7,26,1,-10,-31,41
1523178610189039,6,2,-13,-19,-3,-7,47,17
1523178610210401,1,0,0,-3,0,4,17,21
1523178610210401,7,-8,-18,-20,-1,9,-6,32
1523178610211097,4,4,7,-5,-1,3,20,-39
1523178610211097,-3,-1,-4,0,0,-8,-7,9
1523178610225389,-11,-16,-22,5,-2,-1,-8,-22
1523178610225389,-1,-8,-8,-8,0,-7,-4,6
1523178610226137,2,-6,12,-5,-3,-3,-13,-3
1523178610226137,12,7,-15,-8,-3,-9,9,78
1523178610247462,-12,-5,25,18,-3,1,0,-7
1523178610247462,-6,-16,15,1,-1,-16,-46,-57
1523178610249197,8,0,-7,5,1,12,5,35
1523178610249197,-2,-7,2,-5,-3,-4,-20,-51
1523178610270542,13,7,-7,-13,0,10,92,91
1523178610270542,-19,-13,-2,-4,-6,-3,12,-8
1523178610271255,-4,3,7,-3,-1,-2,-16,-35
1523178610271255,6,3,-3,-7,0,-2,-11,11
1523178610285607,1,-3,-4,7,-2,-10,-20,-22
1523178610285607,8,6,5,3,-1,-5,-9,-26
1523178610286295,-3,-3,-10,-4,0,9,46,40
1523178610286295,-2,5,1,3,-1,1,-10,-1
1523178610307599,-1,0,-5,3,0,0,-18,-32
1523178610307599,6,6,-1,-2,-3,4,50,12
1523178610309358,-23,-9,-1,-3,-1,-5,0,-47
1523178610309358,9,5,0,-2,-2,-1,1,67
1523178610330555,-11,0,6,5,1,-6,-41,-66
1523178610330555,2,-6,-8,-5,-1,10,41,29
1523178610331417,9,5,3,-6,-7,-21,-38,13
1523178610331417,0,2,-1,6,4,19,-2,4
1523178610345697,-2,0,-2,1,1,3,-3,-56
1523178610345697,4,6,-1,-1,0,8,11,41
1523178610346463,-5,-2,-7,-4,-1,-11,-13,-47
1523178610346463,-7,-1,10,6,0,-7,-31,20
1523178610367513,10,5,-7,-5,-1,-5,10,64
1523178610367513,-2,1,-24,-7,-1,2,-2,-6
1523178610368517,3,-1,15,11,0,2,-2,-22
1523178610368517,-8,-6,-7,1,-1,-3,13,-10
1523178610390613,1,4,4,-4,-2,-7,-13,-13
1523178610390613,-1,-5,-4,-3,-4,-9,-22,32
1523178610391578,11,4,-31,-47,-2,1,3,-6
1523178610391578,-10,-6,39,27,-1,-22,-5,25
1523178610404881,-4,6,3,38,6,21,-15,-42
1523178610404881,-6,-3,1,-17,-7,-13,-14,-33
1523178610411825,-2,1,-4,-5,-2,-3,-21,-15
1523178610411825,-5,1,-11,-17,-3,1,24,-22
1523178610427936,25,2,-7,-15,-2,-7,32,96
1523178610427936,-2,-17,53,28,3,-1,6,2
1523178610428674,-11,-3,-20,15,4,9,1,-16
1523178610428674,1,1,-7,-10,-1,-2,-11,-12
1523178610449731,-2,-16,7,-4,-4,-7,3,41
1523178610449731,-2,20,-19,-16,-2,2,-8,-72
1523178610451737,-13,-11,24,31,1,-6,-14,6
1523178610451737,5,-9,-4,-16,0,6,16,47
1523178610464770,-3,-6,-10,7,-2,5,-27,-73
1523178610464770,3,0,-20,-8,-1,24,33,52
1523178610471082,-22,-1,12,-1,-8,-11,-10,-88
1523178610471082,-3,4,-14,6,3,5,-25,21
1523178610488066,-3,-5,4,-12,-4,-8,-9,15
1523178610488066,9,5,3,2,3,-4,-20,41
1523178610488836,7,1,-13,-12,-1,7,28,16
1523178610488836,0,-6,7,-2,-5,-10,-33,-31
1523178610510192,-6,2,-8,-7,-1,-12,-22,14
1523178610510192,1,-3,0,6,-1,-2,-14,-27
1523178610511898,-1,2,0,-1,3,9,25,42
1523178610511898,-3,7,8,5,2,-5,-31,-122
1523178610524219,-3,7,7,0,1,6,40,44
1523178610524219,1,2,-14,-2,-2,-7,0,4
1523178610531239,6,-2,-10,-2,-1,-9,-13,23
1523178610531239,0,0,-5,3,0,14,39,29
1523178610547991,12,9,0,-13,0,3,13,7
1523178610547991,-13,-8,13,15,-1,-3,14,-32
1523178610548993,-9,3,-9,-20,-1,-4,-37,-78
1523178610548993,9,5,5,28,2,-2,14,19
1523178610570354,-7,1,-2,-2,0,-1,-1,-14
1523178610570354,21,3,28,1,4,5,12,123
1523178610571057,-14,-6,-11,3,1,11,5,-76
1523178610571057,-4,-6,-20,-20,-4,-10,-4,15
1523178610584089,-6,0,28,-4,-6,-12,0,-27
1523178610584089,6,11,-38,12,4,-1,-6,16
1523178610591251,9,0,1,11,0,6,19,74
1523178610591251,0,9,18,-14,-1,-18,-33,-82
1523178610607412,-7,-17,-43,-14,-3,7,28,33
1523178610607412,-10,-2,57,13,-3,-11,-41,-63
1523178610609154,22,5,15,38,6,13,31,79
1523178610609154,-12,2,-6,-10,-5,-11,4,-65
1523178610637474,-13,1,-16,-2,1,7,-53,29
1523178610637474,-3,-5,-55,-33,-5,3,3,-63
1523178610639232,-3,-2,-2,-8,-5,-13,-10,34
1523178610639232,13,1,-11,0,0,4,-10,72
1523178610644503,5,3,0,-14,-3,-1,10,-41
1523178610644503,-3,5,0,0,-1,-2,-7,14
1523178610651266,-5,-9,35,50,5,-2,-7,-3
1523178610651266,-14,-12,-8,-20,-7,-3,-7,-23
1523178610667310,-2,-5,-15,3,-2,-8,-3,-2
1523178610667310,3,-1,-3,-20,-3,-3,5,0
1523178610669318,3,2,8,-14,-3,6,12,-21
1523178610669318,1,14,2,7,2,4,18,58
1523178610690622,3,-1,30,15,1,-11,-53,-38
1523178610690622,-10,-20,-42,-1,-4,-8,-17,-8
1523178610691374,-7,-2,-14,-27,-3,2,44,8
1523178610691374,-1,-2,1,-3,1,22,23,35
1523178610704668,5,11,20,16,0,-4,12,-12
1523178610704668,-4,0,-15,-31,-5,-16,-40,-8
1523178610711684,6,1,5,28,-4,-7,-14,44
1523178610711684,4,-20,-13,-12,-2,-4,-18,-83
1523178610727733,2,-1,7,11,1,6,20,91
1523178610727733,-32,-7,16,24,1,4,-2,-123
1523178610728472,7,6,11,-28,-2,-2,3,94
1523178610728472,5,7,1,-3,-1,-13,-22,-18
1523178610749527,2,-15,-73,-11,-2,15,35,33
1523178610749527,13,13,21,6,3,0,1,21
1523178610751536,0,-5,17,-8,-3,-3,-13,-31
1523178610751536,3,1,-12,14,3,11,30,75
1523178610763821,-14,-8,7,-13,-2,-9,-16,-126
1523178610763821,7,17,41,24,3,-2,-14,81
1523178610772592,5,-12,-32,-7,-1,1,8,-36
1523178610772592,2,11,51,17,7,12,23,23
1523178610787859,-6,-16,-108,-25,-8,-2,-17,-20
1523178610787859,15,2,22,-11,0,4,22,92
1523178610788634,-11,5,16,18,2,-4,-18,-128
1523178610788634,-21,-7,17,11,-4,-9,-31,-41
1523178610809938,9,11,43,14,4,-5,-19,23
1523178610809938,0,-10,-18,-9,-1,14,41,42
1523178610811692,7,0,-17,-18,-4,3,-32,32
1523178610811692,5,0,-12,-14,-3,5,25,44
1523178610823869,-5,8,40,25,-2,-26,-4,-37
1523178610823869,5,1,-11,-4,4,22,26,-25
1523178610832750,-8,-11,-53,-17,-2,-3,-14,4
1523178610832750,-8,-6,-24,-10,-5,-15,-39,-25
1523178610855075,4,1,16,3,1,15,37,59
1523178610855075,4,1,0,-10,-6,-19,19,-4
1523178610856813,-13,10,47,30,2,3,4,-105
1523178610856813,-3,-9,-16,11,4,7,31,3
1523178610870140,3,-4,-24,-22,-3,0,10,21
1523178610870140,9,6,19,5,-1,-1,-12,50
1523178610871854,-8,-7,-43,-28,-3,0,22,-45
1523178610871854,-12,-7,-6,-2,-9,-12,-18,-12
1523178610883885,-3,7,59,-5,5,0,-8,-14
1523178610883885,6,5,-2,29,1,5,7,32
1523178610892907,-1,-23,-62,-44,-5,-14,-26,14
1523178610892907,-1,2,63,25,-1,6,10,14
1523178610914967,0,-6,-47,-19,-1,1,-8,11
1523178610914967,-2,-2,-11,-14,-2,-5,-25,-85
1523178610916970,-9,8,40,4,4,8,20,-11
1523178610916970,6,0,11,19,0,-1,9,35
1523178610930256,2,5,17,19,-1,8,6,63
1523178610930256,-3,-8,-13,-8,-3,-3,-17,-44
1523178610932057,8,13,4,-9,0,-6,3,54
1523178610932057,-8,-8,-25,-20,-2,2,-11,-61
1523178610944300,-6,-9,-18,-7,-9,-17,-8,7
1523178610944300,-6,-3,5,9,1,5,8,-49
1523178610952296,15,4,6,16,0,0,3,127
1523178610952296,-11,0,-14,-60,-4,-11,-28,-100
1523178610968150,-16,-5,68,54,1,-7,-37,-3
1523178610968150,-2,-5,-58,-7,-4,9,25,36
1523178610969111,5,-8,-19,-11,-5,7,32,33
1523178610969111,4,4,-3,11,5,3,9,1
1523178610990452,2,-6,-11,-33,-6,-14,-20,-49
1523178610990452,-8,6,36,10,4,14,-7,-76
1523178610991169,5,14,56,30,5,-4,-7,63
1523178610991169,4,-23,-74,-37,-11,-9,-7,41
1523178611004203,-1,2,21,8,0,1,-8,-37
1523178611004203,0,0,-4,-3,-1,-8,22,17
1523178611012477,-9,-10,-25,-7,-3,-6,-20,-33
1523178611012477,5,10,30,11,3,3,-19,-30
1523178611027533,7,6,32,2,2,2,19,47
1523178611027533,10,-1,-22,-4,-1,-3,3,74
1523178611029273,-13,-2,32,14,-1,-11,-20,-99
1523178611029273,-11,8,50,16,1,4,-16,9
1523178611050325,-3,-9,-53,-21,-5,6,36,-18
1523178611050325,7,1,12,7,2,6,-15,95
1523178611051370,1,3,-13,-13,2,-5,-12,-71
1523178611051370,1,0,45,13,-4,-11,-1,22
1523178611063598,2,4,-33,-8,1,9,25,12
1523178611063598,-18,-13,-3,-5,-5,-14,-17,-1
1523178611072424,10,1,18,-5,-2,6,12,64
1523178611072424,18,3,-7,13,0,-1,14,6
1523178611087647,-18,5,21,-6,1,-10,-44,-119
1523178611087647,0,-6,-14,-15,-1,9,25,37
1523178611089430,-6,-2,30,12,-2,2,-10,-59
1523178611089430,7,-1,-55,-2,1,0,20,77
1523178611110526,3,-11,-11,-10,-6,-3,1,18
1523178611110526,-5,6,-10,-25,-5,-15,-10,-55
1523178611111488,-3,0,25,14,3,8,7,37
1523178611111488,-3,2,15,25,5,3,-19,-101
1523178611123753,-13,-26,-73,-27,-4,2,2,57
1523178611123753,0,7,43,3,-2,-5,-20,0
1523178611132547,9,8,17,6,-2,-6,16,36
1523178611132547,2,-8,-35,-9,-3,-3,-15,20
1523178611146869,1,4,23,5,2,2,10,-32
1523178611146869,-17,-14,-11,-6,-4,-10,-6,-30
1523178611153831,3,-4,-6,-14,-1,9,-3,64
1523178611153831,-2,-3,-8,1,-1,6,19,-21
1523178611169943,7,1,32,22,3,4,-4,11
1523178611169943,-16,-16,-50,-1,-4,-13,-25,-57
1523178611171649,-9,-28,-15,-11,-2,-5,1,-13
1523178611171649,3,4,14,-6,0,12,24,42
1523178611192970,-2,-3,-12,-11,-4,0,-11,-17
1523178611192970,8,7,38,-12,1,-4,-5,0
1523178611193707,10,11,-1,58,5,7,-4,88
1523178611193707,-2,-7,-25,-26,-5,1,3,-32
1523178611208044,-10,2,37,9,0,-5,-14,-21
1523178611208044,2,0,-46,-8,-1,3,9,104
1523178611208751,6,7,-4,-12,1,14,18,-44
1523178611208751,-4,-3,-30,-4,-5,-12,-10,9
1523178611230166,3,3,-8,11,6,9,-10,-7
1523178611230166,3,0,38,21,4,18,12,-26
1523178611231808,-1,-2,-31,-25,-2,-16,-22,47
1523178611231808,5,-1,18,7,-3,4,25,3
1523178611253106,-3,6,8,-15,-5,-4,9,-2
1523178611253106,3,8,11,24,2,-6,-27,-6
1523178611253870,-4,-6,-20,-9,1,-3,-1,-12
1523178611253870,-22,-2,6,6,-2,-9,-29,-77
1523178611268199,2,3,16,0,-3,-6,0,32
1523178611268199,4,-3,-12,-7,-5,-8,9,-7
1523178611268909,5,2,-7,-15,-4,-4,-10,47
1523178611268909,-1,-3,7,3,1,-1,16,-27
1523178611290248,4,5,5,16,4,2,14,22
1523178611290248,2,4,5,18,2,-1,4,13
1523178611291968,7,0,4,3,0,-2,-32,-2
1523178611291968,-9,-13,-30,-24,-3,5,40,44
1523178611313131,-8,0,3,-2,0,2,-21,-65
1523178611313131,-8,9,-8,-6,-2,-3,-15,-1
1523178611314031,-8,-5,-15,-11,-1,-3,3,11
1523178611314031,4,-4,30,15,1,-2,-14,47
1523178611327333,12,6,-6,5,6,17,31,9
1523178611327333,-6,-6,-10,-14,-7,-5,1,-7
1523178611334290,-21,-3,9,10,-2,-3,-17,-93
1523178611334290,0,7,51,0,5,0,-6,73
1523178611350124,0,-13,-81,-2,-5,-8,0,-30
1523178611350124,4,-10,-7,-16,-1,-2,3,61
1523178611351127,-4,-2,7,-4,-3,20,37,-38
1523178611351127,5,7,-3,8,-2,-5,-5,-9
1523178611372425,-5,-2,4,-38,-1,-10,-20,4
1523178611372425,-5,-11,17,43,5,14,-6,-19
1523178611374188,4,0,-2,-15,-3,-13,-11,13
1523178611374188,12,9,-21,-3,4,4,8,79
1523178611387453,-14,-3,-3,-10,-7,0,21,-52
1523178611387453,-4,2,1,-4,-2,-8,-29,-45
1523178611394356,2,5,7,-4,-2,-6,-7,52
1523178611394356,-1,-5,1,1,1,-1,-1,-53
1523178611410509,10,11,26,24,3,2,13,68
1523178611410509,0,-8,7,-12,-1,2,2,17
1523178611411286,-7,-1,-13,10,0,-8,0,-70
1523178611411286,6,4,-10,-9,-1,7,7,28
1523178611432342,-8,-4,14,-5,0,-3,-21,-22
1523178611432342,-2,1,24,17,2,14,37,-4
1523178611434348,8,-2,-20,-11,1,1,7,-23
1523178611434348,1,-2,-4,1,-3,-5,-3,62
1523178611446621,-10,-2,-30,-4,-1,-1,-14,-45
1523178611446621,-3,1,35,7,-1,-18,-48,-45
1523178611453590,5,-2,-18,-10,0,22,67,29
1523178611453590,-1,1,1,3,-2,-5,-19,31
1523178611470692,8,2,4,5,-1,-7,-22,-35
1523178611470692,-2,-1,-9,-5,0,-10,9,-31
1523178611472446,-14,-5,23,7,-2,-2,-20,-44
1523178611472446,0,3,8,3,1,-2,-13,-14
1523178611492764,13,-2,-16,-3,-4,3,41,127
1523178611492764,2,6,-11,-5,-1,3,17,-35
1523178611493512,-4,-3,3,1,0,5,-24,-28
1523178611493512,-9,-3,-5,-5,-3,-2,-3,-38
1523178611506824,4,4,13,25,2,-5,-2,15
1523178611506824,3,-2,-11,-24,-4,-1,45,44
1523178611513801,1,-15,16,29,5,5,-31,-37
1523178611513801,-10,-5,-12,-31,-8,-6,-5,2
1523178611529847,8,5,19,20,1,2,-2,69
1523178611529847,-13,-6,-8,-2,-2,-12,-16,-93
1523178611531605,-3,-2,-10,-29,-3,-7,-27,22
1523178611531605,0,-5,5,15,-1,-2,-7,15
1523178611552923,-1,0,9,-3,1,-1,0,-42
1523178611552923,16,0,-11,-15,-2,5,15,127
1523178611553664,-7,-1,8,1,-1,-7,-13,-69
1523178611553664,-11,-6,-16,8,0,-3,-24,-105
1523178611566890,-5,3,15,4,-4,-4,-2,7
1523178611566890,3,0,-7,5,1,-6,-16,-6
1523178611573911,-1,1,-20,-14,-6,-9,36,43
1523178611573911,5,-9,-9,-5,-1,5,13,41
1523178611589910,1,-1,2,-7,2,20,-6,-17
1523178611589910,-11,-3,10,0,-4,-1,2,-8
1523178611591767,-2,5,21,12,0,-14,-10,-40
1523178611591767,-10,-5,-28,-1,-1,21,59,-19
1523178611613145,0,-3,3,-5,-3,-12,-10,27
1523178611613145,3,4,-6,-7,1,7,-13,18
1523178611613825,2,6,-3,1,-5,-2,-31,-11
1523178611613825,-3,-4,21,-10,2,-2,4,-2
1523178611627145,-14,-9,-64,0,-3,3,7,-29
1523178611627145,-2,-4,1,6,-2,-2,-16,-47
1523178611634100,7,7,-17,-17,1,2,18,58
1523178611634100,-4,4,21,-8,-4,-23,-50,-47
1523178611649922,-4,-3,25,53,8,8,-5,-57
1523178611649922,-1,2,-12,-12,-2,-3,1,29
1523178611651928,5,-8,-22,-5,-1,-7,-1,73
1523178611651928,6,-2,7,-14,-2,4,17,-7
1523178611673149,-6,2,16,-9,0,-8,-1,8
1523178611673149,1,2,-18,-2,-3,3,2,-6
1523178611673985,-17,-10,29,26,-4,-3,-10,-52
1523178611673985,2,6,19,-2,-3,-18,-12,22
1523178611686269,-4,-11,-45,-25,-7,-6,10,-24
1523178611686269,8,5,4,-18,0,7,13,11
1523178611695046,-5,-8,11,8,-3,-4,-13,4
1523178611695046,5,5,10,32,5,2,20,-33
1523178611709356,-5,-3,-11,-36,-7,-17,-22,4
1523178611709356,-3,-6,-3,13,-1,-5,-3,25
1523178611718101,9,5,-12,-14,-1,4,2,28
1523178611718101,-1,3,-4,4,0,-4,-22,-53
1523178611732139,2,2,6,-2,-2,4,6,18
1523178611732139,10,0,-5,-1,-2,2,-3,56
1523178611734146,4,5,5,0,0,4,27,5
1523178611734146,-33,-10,-24,5,-6,-13,-57,-63
1523178611746471,9,3,25,-3,3,1,8,80
1523178611746471,-3,-3,2,0,0,0,-1,-30
1523178611755200,2,5,-8,18,0,-5,-14,-10
1523178611755200,14,0,-45,-32,-4,6,23,89
1523178611770496,-2,-3,19,-11,-1,1,15,-26
1523178611770496,-11,-2,28,57,7,-2,-14,-68
1523178611771247,-6,0,14,-13,0,-3,-4,15
1523178611771247,6,-10,-50,-18,0,18,63,37
1523178611792549,5,3,24,-9,1,8,-1,21
1523178611792549,1,-3,-40,-18,-2,-3,4,33
1523178611794307,2,-2,12,28,3,14,32,-33
1523178611794307,-4,-1,24,7,2,3,-24,-73
1523178611806606,-10,-1,-8,-1,-4,-2,-2,24
1523178611806606,5,2,4,-4,3,7,10,2
1523178611815362,-4,6,-7,-20,-2,-9,-8,-30
1523178611815362,1,-2,-3,9,-5,-13,-39,57
1523178611830399,8,-14,6,9,4,10,27,1
1523178611830399,-8,-4,3,-6,-7,-11,-24,-21
1523178611831405,5,11,-10,-4,2,1,11,40
1523178611831405,-1,3,12,10,3,4,11,-5
1523178611852696,3,4,-13,-7,-4,-6,-14,-31
1523178611852696,-10,-5,3,-9,-3,-2,2,-36
1523178611854463,-8,-9,4,-1,-3,-4,-13,-1
1523178611854463,4,-4,-9,-1,-1,-9,-11,17
1523178611866493,1,3,-6,-1,1,4,2,27
1523178611866493,13,2,6,-12,-3,4,41,52
1523178611875520,-8,-2,-11,-4,-4,-6,-23,-50
1523178611875520,-8,-3,6,-3,-2,-18,-58,-58
1523178611890574,2,8,28,16,4,13,18,8
1523178611890574,6,-5,-5,1,-2,-5,25,70
1523178611891563,-3,-4,-39,1,-3,6,11,-54
1523178611891563,-13,-8,6,-26,-5,-15,-33,17
1523178611912890,-1,2,5,13,-2,-4,16,-31
1523178611912890,-2,9,21,7,2,-1,-24,-50
1523178611913623,11,3,-15,12,1,12,16,71
1523178611913623,0,2,-7,-24,-1,6,30,12
1523178611926832,-5,-1,-7,4,-2,-9,-40,-50
1523178611926832,-6,-4,10,7,0,0,7,-18
1523178611934823,1,-6,2,-6,-4,-6,-12,37
1523178611934823,10,9,-8,10,1,5,18,50
1523178611949717,-9,-12,-8,-18,-3,-4,0,-45
1523178611949717,-1,6,-7,-1,2,0,8,8
1523178611951723,-10,-10,-25,-17,-6,-13,-50,-96
1523178611951723,5,7,12,3,-2,8,44,93
1523178611973021,0,-6,1,-1,-1,-3,-20,13
1523178611973021,1,1,7,4,-3,-8,-10,22
1523178611973782,11,4,18,3,0,-1,23,88
1523178611973782,-19,-3,-7,3,-4,3,-11,-123
1523178611986076,2,-1,-17,-8,0,-3,-11,94
1523178611986076,0,-5,-5,1,-4,0,-9,16
1523178611995016,-10,7,1,-33,0,2,-2,-19
1523178611995016,3,-30,27,68,2,-10,5,10
1523178612010136,-6,0,-22,-20,-2,-2,-7,-26
1523178612010136,-12,-6,6,-7,-1,3,-1,-92
1523178612011882,1,-4,4,-2,-1,-3,14,-3
1523178612011882,8,10,-2,-11,-1,4,16,24
1523178612031936,-7,1,9,21,-1,-7,-26,-49
1523178612031936,3,-8,-25,-8,-1,8,17,25
1523178612033944,-4,0,10,-4,-3,-8,2,-12
1523178612033944,8,8,-2,-1,3,11,34,4
1523178612046232,5,-4,-9,-2,-3,3,3,8
1523178612046232,1,6,-7,-21,-1,-1,-27,5
1523178612054999,-9,1,7,22,2,6,15,-36
1523178612054999,-2,3,17,-3,1,-7,-14,34
1523178612070295,4,11,4,22,0,-3,15,19
1523178612070295,-7,-5,-8,-13,-2,-9,3,-20
1523178612071040,6,-5,-4,-4,0,8,-40,17
1523178612071040,4,7,-7,-7,-1,1,24,-1
1523178612093098,-1,-2,-6,-12,-1,10,20,-19
1523178612093098,-10,1,18,18,1,-3,-33,-79
1523178612094100,4,-5,4,-4,-4,-25,-10,82
1523178612094100,-4,-3,-24,3,1,13,1,-72
1523178612115157,0,-4,-16,-14,-4,-9,-10,61
1523178612115157,1,-1,4,6,0,-1,2,14
1523178612116162,1,2,12,3,0,3,10,8
1523178612116162,6,-1,-8,-6,-2,-3,-3,58
1523178612130201,-11,-4,0,-3,-2,-6,-26,-113
1523178612130201,2,4,12,4,-3,-1,-1,42
1523178612131197,1,1,-23,-3,1,-9,-17,3
1523178612131197,1,0,1,-2,-1,5,1,17
1523178612152498,-2,-9,4,0,-1,-2,4,95
1523178612152498,-9,0,6,9,1,3,0,-66
1523178612154260,-17,-2,12,-3,-5,-2,-17,6
1523178612154260,5,4,11,14,5,10,8,4
1523178612175587,1,1,-12,-3,2,3,-10,19
1523178612175587,4,-3,-7,1,0,-8,-20,54
1523178612176323,7,1,-7,-11,-4,0,9,-2
1523178612176323,-9,-10,-2,-14,-4,-8,-10,-26
1523178612189394,-2,-4,6,4,0,0,2,-5
1523178612189394,10,0,-5,-4,1,-1,-11,57
1523178612197378,-9,-2,6,5,-1,15,39,-38
1523178612197378,-5,5,-12,-10,0,-15,-49,-33
1523178612212672,-4,2,10,4,-1,3,46,-95
1523178612212672,-8,-5,-22,-12,-6,-7,-14,1
1523178612214423,10,0,3,14,6,6,-17,84
1523178612214423,7,7,-5,-1,-4,-1,27,-21
1523178612235707,-7,-3,-18,-8,-7,-5,-3,72
1523178612235707,0,2,1,-49,0,-4,2,-63
1523178612236480,-6,-1,11,49,0,-3,-6,-8
1523178612236480,4,-1,-8,6,-1,-10,-33,81
1523178612249713,4,5,4,-1,2,3,1,-69
1523178612249713,-3,1,-19,3,-3,0,9,36
1523178612256655,-12,-2,-3,-34,-5,0,-13,-78
1523178612256655,2,-1,9,-4,0,4,-2,23
1523178612272879,4,-1,7,7,-2,-8,-15,3
1523178612272879,-4,8,2,-5,-2,-5,-1,11
1523178612273581,4,-1,17,18,5,-7,-20,-19
1523178612273581,-4,-4,8,-5,-8,-8,-18,-25
1523178612294997,2,-1,-7,-19,-1,9,17,31
1523178612294997,4,-1,19,12,0,-6,-11,-6
1523178612301692,-6,-4,-37,-15,0,8,26,15
1523178612301692,-1,-1,15,15,-2,-12,-19,-28
1523178612309803,4,-1,-6,-5,-4,-7,-11,67
1523178612309803,-9,-6,8,-1,0,4,-12,-65
1523178612316691,4,3,0,0,0,-3,15,13
1523178612316691,-4,-7,-19,-8,-5,2,4,33
1523178612332735,2,5,2,5,-2,-16,2,7
1523178612332735,-15,-14,-6,2,-1,10,-9,-40
1523178612333736,8,4,1,-19,-1,2,15,28
1523178612333736,-2,-6,-1,-3,-1,1,6,-64
1523178612355093,-10,1,6,-6,-2,-9,-38,-34
1523178612355093,2,-2,-1,19,3,8,35,-11
1523178612356798,6,0,-5,-10,-4,2,33,60
1523178612356798,0,-2,-17,-10,-2,-11,-26,-37
1523178612369967,6,-3,6,6,3,16,13,41
1523178612369967,-3,1,2,-1,-4,-11,-22,-40
1523178612376128,-1,-7,-14,-13,-1,-2,-4,25
1523178612376128,0,9,16,27,4,5,10,8
1523178612393116,1,1,7,-3,-4,-7,23,24
1523178612393116,4,-1,-19,-5,-1,6,11,24
1523178612393898,2,4,-1,-5,-4,-3,-9,-67
1523178612393898,-11,-3,23,-10,-3,1,20,20
1523178612414954,-11,-5,-26,3,3,-5,-15,-32
1523178612414954,10,-2,-8,11,1,8,29,115
1523178612416959,-3,4,-6,-3,-6,-12,-35,-106
1523178612416959,-5,1,-7,-16,1,6,4,39
1523178612429149,0,-1,21,2,-1,1,-7,-8
1523178612429149,6,1,-8,-17,-3,3,27,60
1523178612436293,0,-1,-1,0,-1,-1,-6,-36
1523178612436293,-12,-6,8,31,0,-4,-12,-24
1523178612453055,1,4,3,3,2,-1,14,-33
1523178612453055,1,1,-7,-10,-1,7,4,19
1523178612454057,8,0,2,-13,1,-3,-14,43
1523178612454057,-4,-10,4,0,0,11,26,-53
1523178612475396,-5,-2,-6,0,1,-3,24,1
1523178612475396,0,-1,10,8,-4,-20,-43,-12
1523178612476116,-3,-1,3,4,2,19,37,5
1523178612476116,6,3,-10,-12,-2,0,1,22
1523178612489334,-1,-5,-24,-4,-2,-4,-29,-8
1523178612489334,-1,-2,17,17,0,-8,3,27
1523178612496288,2,-4,-7,5,0,-2,9,7
1523178612496288,-6,-2,-4,-8,-2,-5,12,-21
1523178612512523,-12,-2,-1,1,-4,-3,-52,-80
1523178612512523,-3,-3,5,-12,-2,1,8,-13
1523178612514220,-4,-6,0,13,0,-6,3,3
1523178612514220,7,1,0,-2,0,0,26,67
1523178612535572,8,4,-7,-13,-2,5,14,10
1523178612535572,-1,4,0,4,2,-5,-15,-26
1523178612536276,-6,-17,4,-3,-2,14,31,39
1523178612536276,9,-1,-7,-5,2,9,-29,10
1523178612549311,-3,2,16,3,0,-5,3,-12
1523178612549311,-8,-5,-14,-8,-7,-10,-2,-74
1523178612556600,0,1,-7,-3,-1,2,3,43
1523178612556600,1,3,2,4,3,-2,-13,-27
1523178612572654,4,-3,3,-2,-3,2,28,79
1523178612572654,3,3,2,7,3,9,23,-23
1523178612579426,-15,-2,6,-4,-3,-14,-53,-122
1523178612579426,-3,-4,-9,-10,-4,-3,-17,56
1523178612595707,7,4,8,-3,0,2,8,58
1523178612595707,1,-1,1,-1,0,-1,12,10
1523178612596436,10,4,6,4,0,2,31,45
1523178612596436,4,-1,-4,-2,1,9,-2,45
1523178612608714,-6,-2,-6,-2,-3,0,-15,-38
1523178612608714,-9,-2,5,-8,-4,-5,-12,-36
1523178612617491,-12,-2,-14,7,0,3,2,-45
1523178612617491,-1,-1,-7,-12,-6,-1,5,-44
1523178612632533,3,1,2,1,-2,-6,-8,28
1523178612632533,8,-1,-11,-18,-1,-5,-6,81
1523178612633535,3,7,20,17,0,5,13,9
1523178612633535,-11,-12,-31,3,-3,-10,-10,-6
1523178612655633,-8,-8,-3,-3,-2,8,8,-60
1523178612655633,-5,1,-2,-5,-2,1,-7,-9
1523178612656596,8,4,7,24,3,-9,-17,62
1523178612656596,12,3,2,-9,2,12,58,49
1523178612668926,-1,-4,-23,-16,-4,2,2,-15
1523178612668926,-22,-7,7,-23,-4,-6,-7,14
1523178612677656,1,0,32,41,1,0,-10,50
1523178612677656,-6,8,-13,4,-2,3,-12,-120
1523178612692956,5,-5,-15,-8,1,-5,-7,127
1523178612692956,5,0,0,-26,-7,-2,13,-79
1523178612693694,-6,1,8,8,0,-14,-34,27
1523178612693694,9,1,11,-3,-3,-9,9,35
1523178612714748,-6,0,-7,0,2,18,38,-86
1523178612714748,-4,-3,-20,9,0,3,0,40
1523178612716755,-2,-1,-4,-18,-4,-4,5,-46
1523178612716755,-5,-5,9,9,-3,-10,-27,0
1523178612729082,0,-5,3,-4,-1,-6,-3,16
1523178612729082,4,3,10,23,4,0,-23,-13
1523178612737812,10,2,-35,-19,-4,-4,23,76
1523178612737812,-4,-1,0,-67,-3,2,-5,-87
1523178612753080,-8,-1,79,101,1,-22,-24,85
1523178612753080,-9,-1,-22,17,5,25,14,-111
1523178612753855,-7,-3,-1,-25,-4,-8,-29,50
1523178612753855,15,1,7,-11,0,5,12,107
1523178612775157,6,-3,-22,-35,-3,6,37,19
1523178612775157,-10,-5,24,16,-4,-21,-24,-19
1523178612776917,0,-3,-10,-8,-2,5,3,21
1523178612776917,-2,1,15,9,-2,-4,-2,13
1523178612796972,6,5,0,-7,0,-1,-4,-13
1523178612796972,-3,-1,-10,5,1,8,14,37
1523178612798977,0,-6,21,4,1,-1,7,3
1523178612798977,-11,-1,-5,26,1,-13,-35,-66
1523178612812276,0,10,-15,-12,-1,5,0,27
1523178612812276,11,-9,-54,-46,-6,2,-2,-56
1523178612814014,-10,3,25,-33,1,7,14,-38
1523178612814014,-3,10,23,81,7,-3,-23,44
1523178612835369,0,-14,-17,-25,-2,1,-4,-107
1523178612835369,0,-4,8,4,2,6,21,94
1523178612836077,3,-4,-36,-35,-6,-5,4,-20
1523178612836077,-3,-4,-9,-12,-2,6,18,2
1523178612849147,2,9,13,8,2,3,-31,-3
1523178612849147,7,6,11,4,-2,-9,-15,46
1523178612857381,1,-4,-42,-14,-3,-4,-7,-35
1523178612857381,-6,3,15,-12,0,1,0,13
1523178612873171,-1,4,19,24,3,-6,-20,79
1523178612873171,-9,-1,12,23,0,-4,-11,-68
1523178612874175,-10,-6,-5,8,0,5,5,-26
1523178612874175,0,2,-28,-39,-3,8,-15,-17
1523178612895500,-1,-15,5,-13,-1,-7,10,80
1523178612895500,0,-2,8,6,-3,21,49,-57
1523178612896235,2,4,3,10,-1,-3,-20,-11
1523178612896235,4,0,4,0,0,-9,4,2
1523178612909323,-6,-4,-17,-5,-1,3,-4,-15
1523178612909323,4,1,5,2,0,-5,-4,41
1523178612917341,1,-5,-8,1,-2,-4,-7,-2
1523178612917341,2,-7,3,-9,-1,5,12,-3
1523178612932329,-12,4,0,12,0,-7,-27,-74
1523178612932329,0,4,-22,4,1,-6,-19,12
1523178612934338,5,-1,7,-53,-4,-1,8,36
1523178612934338,14,8,31,87,6,9,16,114
1523178612955673,-17,-5,-24,-30,-7,-4,39,-106
1523178612955673,-16,0,21,10,-1,-14,-85,-27
1523178612956398,-2,-14,-41,-19,-1,3,29,78
1523178612956398,1,-8,-15,-32,-3,-6,-18,27
1523178612968724,19,2,2,-2,-1,11,23,53
1523178612968724,7,4,9,25,-2,-7,15,49
1523178612977448,-4,11,28,23,3,2,-16,-81
1523178612977448,-21,-9,0,-10,-3,-19,-42,-67
1523178612992745,1,0,-17,17,2,5,10,-21
1523178612992745,5,3,-6,-57,-2,-4,18,33
1523178612994493,17,10,51,55,3,9,22,127
1523178612994493,-12,-4,-17,9,-5,-4,11,-115
1523178613014547,-18,-6,2,-32,-4,-6,-76,41
1523178613014547,6,-4,-15,5,-1,4,18,57
1523178613016555,7,-4,-6,-24,-3,-19,-16,46
1523178613016555,-1,7,18,18,3,12,22,0
1523178613028874,-4,-2,-12,-7,-5,-5,-3,-88
1523178613028874,3,1,-12,-23,0,1,7,18
1523178613037610,-22,-18,17,21,-4,-10,-32,-69
1523178613037610,5,-2,4,1,-1,-5,-8,15
1523178613052899,18,11,-25,0,0,-1,12,6
1523178613052899,-20,-13,2,3,-1,-7,6,6
1523178613053653,7,-3,-16,-12,-5,0,0,10
1523178613053653,10,8,-8,-33,2,1,20,32
1523178613075007,-8,9,46,55,6,9,19,-85
1523178613075007,0,-8,-6,-7,-1,-3,-29,-10
1523178613076713,-15,-11,-8,-10,-1,-10,-9,-33
1523178613076713,-6,-9,-11,5,-1,25,16,27
1523178613097771,13,5,-15,-35,-1,-5,19,74
1523178613097771,2,2,4,35,0,0,-17,-4
1523178613098772,-3,7,-6,-19,1,8,-5,6
1523178613098772,3,-1,2,0,0,-5,-8,-36
1523178613112808,-8,-7,5,5,1,-8,9,-18
1523178613112808,-2,1,11,13,1,14,47,5
1523178613113810,5,-2,-16,1,1,13,11,-8
1523178613113810,2,3,-9,-19,-1,-7,6,-8
1523178613135090,4,-2,-4,-15,-1,2,-21,77
1523178613135090,-1,-4,28,-1,1,-5,3,-83
1523178613136874,6,6,9,41,3,1,2,45
1523178613136874,-12,-7,-28,-33,-7,2,11,-3
1523178613158044,-12,-9,4,-19,-2,-5,-24,-13
1523178613158044,3,-2,-5,30,0,-5,1,15
1523178613158935,-1,3,-15,-15,-4,-14,-23,-51
1523178613158935,-5,0,5,9,-2,1,-3,47
1523178613171967,7,-12,-2,-9,-2,-15,-13,28
1523178613171967,8,7,5,-8,2,24,38,21
1523178613173972,-8,-6,-3,-14,-10,-17,15,-25
1523178613173972,0,8,5,16,4,2,3,-8
1523178613195325,0,-3,6,24,0,0,-11,17
1523178613195325,2,0,-3,-11,-3,-6,-7,17
1523178613196030,-4,-2,-2,21,2,-4,-8,8
1523178613196030,-4,-2,-33,-55,-5,0,-16,-32
1523178613218148,-8,0,17,12,-4,0,-6,-9
1523178613218148,-6,-7,23,24,5,-4,-17,-26
1523178613219092,5,0,-16,-1,-1,4,4,67
1523178613219092,6,-2,1,-6,0,-9,1,32
1523178613232337,-17,-6,-22,-23,-6,-7,-33,-95
1523178613232337,2,2,8,18,-2,-3,-5,32
1523178613239236,3,19,7,-16,1,5,17,-36
1523178613239236,0,-7,8,25,-1,-12,-21,28
1523178613255467,8,-4,-6,-8,-1,8,37,15
1523178613255467,-6,-15,-29,-28,-2,7,-7,-37
1523178613256194,-1,6,14,11,3,6,-2,-36
1523178613256194,3,4,13,16,-1,-4,7,73
1523178613277517,-5,-1,-5,-17,0,4,22,-75
1523178613277517,-11,-6,-14,-12,-7,-6,-5,-12
1523178613279251,4,0,0,2,-2,3,5,41
1523178613279251,-1,-4,7,5,3,-4,-25,-55
1523178613292494,4,7,17,32,-1,-9,16,22
1523178613292494,4,-8,-5,-21,4,7,4,88
1523178613298302,-21,-8,-10,-5,-6,-11,-19,-118
1523178613298302,4,1,-3,-27,-3,-2,-3,-2
1523178613315344,7,6,-13,1,0,-11,-8,-11
1523178613315344,4,13,14,19,1,3,1,27
1523178613316389,-5,-10,-11,-9,-1,4,13,-6
1523178613316389,1,-13,-2,0,-1,-3,14,18
1523178613337553,-7,-8,22,22,0,-4,7,16
1523178613337553,-5,7,-22,-24,-4,-7,-30,-60
1523178613339409,15,8,15,2,2,8,14,59
1523178613339409,-7,9,-2,17,-1,-13,-18,-51
1523178613352445,-12,-15,-11,-33,-3,15,-8,-8
1523178613352445,6,-1,0,11,-1,-11,6,107
1523178613358713,-5,-7,7,6,0,2,-5,-88
1523178613358713,0,4,-14,3,-3,0,-9,33
1523178613375651,4,7,-2,-7,-3,-9,-30,3
1523178613375651,-9,-5,-5,3,-2,3,16,-7
1523178613376510,1,-4,-11,-41,0,11,30,22
1523178613376510,-6,-5,42,71,1,-1,0,-24
1523178613397563,4,7,-26,-16,-1,-6,-6,-24
1523178613397563,1,5,11,-6,-2,-1,2,-29
1523178613398569,10,4,-8,-2,-1,-6,-7,84
1523178613398569,-16,-18,-19,-2,-4,-3,13,-31
1523178613411879,-12,1,6,-3,-3,8,11,-37
1523178613411879,9,1,-4,-2,0,1,-10,40
1523178613418877,1,-4,10,-1,2,-2,11,-3
1523178613418877,9,7,-32,-39,-3,-5,-2,64
1523178613434920,1,6,42,57,3,1,20,1
1523178613434920,1,7,-8,5,-1,6,-14,-31
1523178613436669,-4,-18,-7,-9,-4,-4,-23,-2
1523178613436669,-11,-7,-5,-10,-2,2,-12,-74
1523178613457999,5,6,-17,-27,-1,-1,3,62
1523178613457999,1,-3,-4,-15,0,-10,11,0
1523178613458733,-2,4,42,63,2,1,-2,23
1523178613458733,3,-1,-24,-15,-2,4,9,-8
1523178613472048,10,1,-6,-17,1,9,9,22
1523178613472048,-5,2,31,35,-2,-5,-4,16
1523178613478821,-12,-10,-25,-17,-4,-3,4,-80
1523178613478821,0,0,8,-9,-1,-3,-4,32
1523178613495115,5,-5,-21,-6,0,2,-9,40
1523178613495115,5,-3,10,-23,-1,8,39,48
1523178613496832,4,9,3,22,1,-10,-9,-44
1523178613496832,-9,-4,-12,-7,0,2,-17,-14
1523178613518129,3,-10,15,-4,-4,4,30,52
1523178613518129,1,4,9,20,-1,-7,-28,-17
1523178613518888,-18,-5,-20,-18,-6,0,0,-29
1523178613518888,3,-6,10,2,0,-10,-23,-10
1523178613532136,-4,4,-3,2,2,0,5,-42
1523178613532136,1,-3,-14,-10,-4,-18,-14,30
1523178613539200,-1,8,-16,-2,7,20,16,-15
1523178613539200,1,-2,15,14,-1,2,9,53
1523178613555243,2,-7,-18,-9,-5,-12,-30,-30
1523178613555243,-2,11,5,-17,0,-4,-35,-95
1523178613555988,-11,-27,25,47,3,-10,0,18
1523178613555988,4,-4,-21,-20,0,10,25,112
1523178613578143,-6,1,25,17,-2,-13,-3,-63
1523178613578143,9,8,-17,4,2,10,13,92
1523178613579051,7,6,-12,-27,-3,-4,-23,-87
1523178613579051,-7,4,8,3,1,3,6,-18
1523178613591334,-11,-7,-3,-3,0,0,13,35
1523178613591334,8,-4,-18,-16,-7,-6,-17,-24
1523178613600109,-11,5,44,12,1,-6,-6,36
1523178613600109,9,4,2,22,2,3,23,43
1523178613615357,-10,-21,-13,-30,-6,-6,-5,-84
1523178613615357,-7,-4,-24,3,2,-3,-35,-44
1523178613616148,14,4,-4,-21,-4,4,17,59
1523178613616148,3,13,9,-17,-2,-1,6,-57
1523178613637348,11,10,11,50,7,15,21,96
1523178613637348,-12,-18,-1,-19,-1,4,-4,-70
1523178613639207,-13,-8,7,2,-5,-9,-31,4
1523178613639207,1,4,-7,-20,-3,-11,4,22
1523178613660555,1,6,-2,22,2,8,-15,-47
1523178613660555,1,-5,11,-5,-3,-8,0,-27
1523178613661272,2,14,-16,0,-2,-2,-11,-2
1523178613661272,1,-15,-1,10,2,-5,5,42
1523178613675550,4,-1,2,-16,-2,5,13,38
1523178613675550,-16,-4,4,2,-1,-6,-5,-49
1523178613676307,0,-6,-21,0,-1,-1,-1,1
1523178613676307,7,2,3,-4,-2,5,-11,11
1523178613697360,-3,0,-3,1,-1,-2,7,-30
1523178613697360,2,-1,-3,-5,0,2,-6,26
1523178613699366,7,9,-6,-12,-3,4,27,103
1523178613699366,-8,1,2,1,-1,2,-16,-123
1523178613711673,1,0,-11,-7,0,-10,-30,58
1523178613711673,1,-1,7,-3,-1,7,62,60
1523178613720428,8,5,2,9,0,1,-30,16
1523178613720428,-11,3,-4,-2,-3,-5,-8,-64
1523178613735650,-15,-4,2,3,2,23,1,-58
1523178613735650,-2,-5,-15,-4,-4,-2,23,-11
1523178613736468,18,10,7,1,4,11,-1,66
1523178613736468,4,-10,0,-1,-2,-4,13,78
1523178613757792,-15,4,-4,-7,-4,-7,-22,-91
1523178613757792,-4,-3,8,12,0,-1,8,64
1523178613758525,-3,4,-8,-5,-2,-10,-29,-85
1523178613758525,-4,-4,-7,0,-2,8,13,-16
1523178613771818,15,4,2,-10,0,-11,-25,54
1523178613771818,-2,-7,0,-1,-2,1,15,33
1523178613779584,-11,-1,-2,-1,-5,-20,-22,-41
1523178613779584,-9,1,3,8,0,-2,-1,-94
1523178613794901,8,-3,-7,7,-2,8,23,127
1523178613794901,-2,11,1,-32,-6,-11,-37,-108
1523178613796625,2,-8,-9,-4,1,19,37,84
1523178613796625,-7,-2,4,-2,-1,-3,12,-23
1523178613817914,-1,3,1,1,-3,-6,-23,-27
1523178613817914,6,3,3,18,2,3,7,48
1523178613818685,-3,-5,-9,-5,0,-8,14,-59
1523178613818685,7,-2,7,1,-1,1,3,80
1523178613830754,6,0,-5,-3,-4,-1,7,34
1523178613830754,-17,-4,-3,-4,-3,-4,-10,-97
1523178613839910,-6,-1,1,0,0,-3,-12,23
1523178613839910,3,2,-6,15,3,5,8,29
1523178613855050,0,-11,-3,-19,-3,-6,-16,-2
