timestamp,emg1,emg2,emg3,emg4,emg5,emg6,emg7,emg8
1523183200603312,-32,-15,46,106,22,2,-2,11
1523183200603312,30,-21,5,-11,-4,0,-2,7
1523183200604309,32,16,-5,-34,0,1,-20,29
1523183200604309,-23,1,-47,-48,-18,-6,3,-13
1523183200625365,21,8,-14,-77,-15,0,8,-10
1523183200625365,1,43,33,127,26,-7,1,5
1523183200627370,-11,-63,0,-8,6,1,-13,0
1523183200627370,12,-21,-17,19,-2,4,2,13
1523183200640408,47,30,-9,-74,-1,-2,8,41
1523183200640408,-17,-44,27,42,-5,-4,5,-21
1523183200642410,-40,34,3,-15,-11,-1,-19,-35
1523183200642410,4,11,28,12,12,3,17,-24
1523183200662464,-19,-47,-9,12,-5,-9,1,-24
1523183200662464,49,1,16,-88,3,11,-1,64
1523183200664469,73,27,-33,-55,-8,4,21,47
1523183200664469,-18,-20,18,13,0,-3,-28,-14
1523183200685525,23,-12,-1,69,2,-5,4,-63
1523183200685525,42,8,21,0,11,7,0,46
1523183200687531,-69,-2,-30,-85,-12,4,-20,4
1523183200687531,-43,-7,-62,-29,-23,-5,-7,-63
1523183200699570,-22,2,38,15,25,-8,-23,-51
1523183200699570,-5,-4,-34,-48,-20,-9,2,54
1523183200706583,54,20,30,-21,7,7,14,47
1523183200706583,7,-5,-26,-30,-4,4,9,20
1523183200722624,-39,-6,-25,-87,-21,-1,-11,-27
1523183200722624,4,-12,13,127,24,-9,0,-14
1523183200724629,7,24,34,-17,-5,2,30,-33
1523183200724629,-29,8,-43,-20,5,8,-37,-2
1523183200745685,-27,7,9,-18,-5,1,25,22
1523183200745685,-46,-37,-10,59,-2,-13,-9,-30
1523183200746695,8,-13,-18,-74,-3,0,-19,-4
1523183200746695,21,21,37,-30,5,-2,16,-2
1523183200760725,25,10,0,-3,1,6,21,37
1523183200760725,-40,20,-50,-128,-32,2,-11,-18
1523183200766748,-23,-20,2,116,10,-9,-16,-70
1523183200766748,-13,-17,-5,23,4,-3,22,1
1523183200782792,3,7,-4,30,-7,-2,-13,10
1523183200782792,69,28,42,-27,0,14,27,59
1523183200784796,-14,-7,-54,-33,-22,-4,-13,-34
1523183200784796,-28,-58,-8,97,34,-6,14,-67
1523183200805850,49,27,0,-6,-10,2,-10,77
1523183200805850,-30,-3,-24,-61,-6,-2,17,-16
1523183200806847,28,10,28,-106,-8,-1,-13,-18
1523183200806847,-10,-17,-2,47,-7,-16,-18,6
1523183200819884,5,-44,-38,50,4,-2,3,13
1523183200819884,-12,32,0,38,15,1,27,-79
1523183200826901,-21,-1,12,-54,2,12,-14,25
1523183200826901,41,40,31,-58,-15,1,16,43
1523183200843439,-63,-38,-1,78,7,-6,-7,-68
1523183200843439,-14,9,-11,-108,-21,-6,-23,-56
1523183200844944,59,-8,-25,127,28,-10,9,11
1523183200844944,-15,-34,71,-31,7,2,13,-17
1523183200865999,-2,37,-36,-99,-13,5,22,25
1523183200865999,1,-14,0,-30,-1,5,-8,10
1523183200867503,-51,-16,-19,-89,-7,-2,-2,-40
1523183200867503,35,11,4,74,-18,-14,-12,33
1523183200880043,-5,-16,6,70,16,1,4,-25
1523183200880043,30,-3,2,4,9,10,40,57
1523183200887059,15,12,-7,-21,-21,-9,2,43
1523183200887059,-27,7,0,2,12,8,-2,-32
1523183200903097,17,-8,28,-36,-4,-1,-12,-34
1523183200903097,10,-29,-10,72,6,-9,-16,24
1523183200905103,86,28,8,-60,-10,10,20,49
1523183200905103,-79,11,30,20,9,-4,4,-4
1523183200925660,-43,-59,47,39,11,-11,-20,-63
1523183200925660,42,23,0,-98,2,6,-37,39
1523183200927665,-16,-48,-3,-6,-4,-7,-1,-3
1523183200927665,61,28,-15,-121,-10,11,11,58
1523183200940197,22,18,5,31,8,7,18,25
1523183200940197,25,22,-9,-60,-9,5,-8,-64
1523183200946714,-19,-38,39,106,20,-6,0,22
1523183200946714,10,3,-61,-45,4,-4,-15,39
1523183200963261,11,6,-10,-71,-12,-3,-13,9
1523183200963261,-17,-7,0,-58,6,3,5,-18
1523183200964762,-20,11,32,83,-5,-3,-7,-25
1523183200964762,7,-9,-1,-28,-1,5,7,2
1523183200985818,25,37,-8,-10,3,4,-5,105
1523183200985818,27,20,-17,-105,-26,1,13,12
1523183200987322,-77,-53,-34,63,6,-14,-18,-74
1523183200987322,3,17,29,61,0,-11,-30,-22
1523183201000358,15,7,3,-32,-15,5,12,9
1523183201000358,11,-10,-40,-29,-4,-2,3,34
1523183201006873,-18,28,-22,-15,-1,6,11,-36
1523183201006873,-26,-1,20,40,-2,-9,-6,-74
1523183201023417,15,-51,34,27,10,3,-6,9
1523183201023417,-3,-16,7,36,-4,-2,-6,12
1523183201025131,22,44,37,-22,4,5,11,11
1523183201025131,18,-26,-53,-115,-28,1,10,52
1523183201046165,-35,-15,-23,-21,13,2,31,-24
1523183201046165,-30,2,45,96,16,-5,-31,9
1523183201047483,-22,-17,33,-48,-10,3,-8,-36
1523183201047483,43,36,28,-89,-5,5,-8,57
1523183201059515,54,55,-39,32,5,-4,6,36
1523183201059515,-91,-59,-2,23,-11,-14,-10,-109
1523183201068538,-11,13,38,-70,-1,12,-10,13
1523183201068538,2,3,-50,2,6,3,17,21
1523183201083082,6,-25,-30,40,-7,-6,-6,9
1523183201083082,-3,-52,18,-53,-8,4,13,30
1523183201085081,-42,11,38,72,5,-14,-3,-27
1523183201085081,-21,15,-19,6,2,1,-13,-41
1523183201105636,6,-10,54,-53,1,1,4,-2
1523183201105636,25,33,-17,-13,-6,-3,-12,53
1523183201107640,-18,-34,24,60,-4,-5,37,-20
1523183201107640,36,1,21,47,14,3,-18,-1
1523183201119172,-81,32,-67,-63,-12,-10,5,34
1523183201119172,2,-20,-11,-29,-2,2,-1,-52
1523183201128195,18,61,-12,22,2,-4,-8,24
1523183201128195,7,-87,37,20,-6,3,40,20
1523183201143238,-48,9,5,-11,-14,-16,-53,-89
1523183201143238,-22,-8,11,-11,6,-7,-7,-25
1523183201144740,33,5,-79,-117,-22,-1,0,66
1523183201144740,25,20,-1,-88,1,12,13,8
1523183201165798,4,-49,34,33,8,-1,6,-50
1523183201165798,-4,-12,-4,6,13,6,0,38
1523183201167303,48,9,-62,-63,-4,-2,-13,12
1523183201167303,-4,15,-13,-114,-16,-2,5,-3
1523183201179332,16,19,-4,42,3,6,21,-16
1523183201179332,-2,13,-7,70,14,-8,-16,-68
1523183201188358,54,-17,-21,-39,-4,2,50,112
1523183201188358,9,16,25,-30,-9,0,-26,-11
1523183201203396,-15,-17,56,-106,-3,7,12,29
1523183201203396,5,16,-24,117,5,-8,-3,-28
1523183201204900,-14,8,-7,-19,7,1,-5,-8
1523183201204900,-30,-16,40,42,12,-5,5,-12
1523183201225957,57,54,-12,-71,-14,3,-14,-6
1523183201225957,-44,-55,-3,75,-1,-7,72,7
1523183201227460,-3,-33,-7,-68,-7,-2,-48,-26
1523183201227460,11,29,21,18,-5,2,2,1
1523183201239492,-19,4,5,84,20,-7,-18,60
1523183201239492,21,19,17,-58,-10,6,18,-30
1523183201248516,-15,0,27,5,12,12,-6,-37
1523183201248516,-60,-17,-25,-3,0,-5,-3,24
1523183201263056,-29,8,-29,36,5,5,33,-111
1523183201263056,52,-10,48,-51,-6,-8,-66,87
1523183201265077,-2,33,-9,5,11,7,-7,-5
1523183201265077,-19,-59,-56,23,2,-8,-11,-53
1523183201285614,-20,-16,32,40,-4,-7,-33,28
1523183201285614,27,41,-12,-26,-6,-5,0,25
1523183201287619,55,-10,2,-82,-7,4,-3,14
1523183201287619,-20,-13,26,108,13,-18,-12,12
1523183201299652,16,3,-49,38,7,6,0,-11
1523183201299652,5,18,-8,-66,-8,0,3,1
1523183201316199,-47,4,9,38,7,3,6,25
1523183201316199,-4,16,-32,-18,-14,-4,13,-54
1523183201323214,-20,-30,-9,19,-6,-8,-32,-12
1523183201323214,6,26,37,-62,6,14,10,15
1523183201324720,39,0,6,-1,-3,-4,10,-3
1523183201324720,-21,26,-20,-79,-10,0,-23,-37
1523183201346009,-8,-17,-7,59,-8,-9,-14,-38
1523183201346009,-88,17,23,12,10,9,0,10
1523183201347278,36,-8,-51,41,-10,-16,-22,30
1523183201347278,75,-7,12,-72,-16,8,-1,38
1523183201359310,-20,-12,-4,6,13,-19,7,1
1523183201359310,-14,11,9,2,-2,2,1,-52
1523183201368336,-38,-33,27,-24,6,2,-16,6
1523183201368336,35,14,3,-6,1,-4,1,52
1523183201383376,-13,0,7,-128,-21,11,26,5
1523183201383376,-33,-20,-8,107,3,-5,-19,-85
1523183201384878,-7,10,5,45,2,-5,9,32
1523183201384878,30,16,45,5,13,16,24,10
1523183201405934,14,-7,-3,-33,-5,-3,-16,6
1523183201405934,-9,-18,14,-20,-3,-12,9,46
1523183201407441,24,14,-55,-69,-20,-5,-11,13
1523183201407441,-42,9,4,37,13,-1,8,-18
1523183201419470,13,0,26,-69,-9,6,5,13
1523183201419470,11,-6,7,49,2,2,-7,19
1523183201428504,-45,-1,1,36,5,-3,5,-58
1523183201428504,6,-22,-6,-13,-6,-4,2,11
1523183201443034,53,24,-15,54,0,-4,8,34
1523183201443034,18,-3,-41,-80,-9,6,10,-53
1523183201445038,-28,-5,64,88,10,-7,-20,5
1523183201445038,-31,-15,-38,-21,7,0,3,-60
1523183201466101,20,-12,-43,-83,-10,1,-26,56
1523183201466101,11,10,-9,66,6,-2,3,-41
1523183201467599,-2,25,-31,-84,-10,-5,-22,14
1523183201467599,-15,43,10,7,-2,-5,1,3
1523183201488153,2,-18,20,-35,4,10,1,-8
1523183201488153,68,11,-41,-75,-8,4,19,86
1523183201489657,-8,-16,-9,98,2,-16,9,-57
1523183201489657,-12,-25,44,106,12,8,-12,-5
1523183201503193,-21,-43,-9,-20,6,3,-3,-35
1523183201503193,35,28,35,-43,-10,-1,-2,37
1523183201504699,-2,4,-13,-22,-5,-1,12,-25
1523183201504699,49,-9,-42,-54,-19,-1,33,95
1523183201526079,57,17,17,106,17,-7,-11,-36
1523183201526079,-32,-5,-23,-65,-4,-4,-21,-21
1523183201527344,8,-8,-9,-1,-3,-2,-4,-21
1523183201527344,-16,0,33,-27,-6,9,12,-14
1523183201548404,-7,-16,-2,36,3,3,-9,23
1523183201548404,-2,-14,-3,32,-2,-1,0,20
1523183201549906,0,16,4,-101,-8,3,-2,-26
1523183201549906,-61,-22,31,119,27,-4,-17,-31
1523183201563441,31,30,-6,-100,-33,-5,7,21
1523183201563441,-53,1,10,-63,-3,0,-14,-45
1523183201564949,-10,-37,36,97,25,8,35,-6
1523183201564949,0,23,-30,-82,-5,5,14,39
1523183201584997,44,41,37,73,10,2,3,22
1523183201584997,-50,-10,-62,-83,-27,-9,11,-39
1523183201593521,-44,-19,-4,50,-1,-8,-25,-60
1523183201593521,44,-5,6,-67,-7,-5,-2,-37
1523183201608059,41,31,-14,80,-3,-3,-1,96
1523183201608059,-46,-6,4,94,10,-8,-4,11
1523183201609563,45,-1,-17,-83,-5,11,13,5
1523183201609563,-3,23,31,-14,4,-4,-22,-1
1523183201622606,-81,-33,26,-13,-16,-14,4,-39
1523183201622606,58,6,-19,16,-12,8,13,8
1523183201629617,-45,-16,-2,-86,-2,2,-47,25
1523183201629617,-41,-3,8,78,3,-15,-29,-68
1523183201645659,18,16,-17,-124,-2,8,19,25
1523183201645659,-8,-4,29,-24,12,-4,2,43
1523183201647163,-20,-10,11,53,16,5,10,-5
1523183201647163,12,2,13,31,-12,2,-2,-29
1523183201668219,-50,-15,-12,-66,-7,-2,8,-37
1523183201668219,41,8,9,35,8,-4,1,16
1523183201669722,33,25,-36,-110,-31,7,21,49
1523183201669722,-26,-39,15,28,17,-5,-1,-5
1523183201682757,11,-5,-13,61,7,5,-13,40
1523183201682757,34,-3,-9,-46,-8,1,-15,21
1523183201689275,-27,-27,31,49,6,-10,3,-23
1523183201689275,-45,-18,-17,36,18,15,13,-64
1523183201705819,11,2,-15,-83,-20,-6,2,-16
1523183201705819,29,14,-17,-9,24,1,19,39
1523183201707322,-27,6,-28,-86,-41,-1,-27,-76
1523183201707322,2,-3,42,43,-11,-7,-25,-26
1523183201728380,9,-16,22,51,27,2,5,6
1523183201728380,7,8,-45,-32,0,-2,-10,9
1523183201729884,-17,5,-3,-60,15,5,39,-7
1523183201729884,57,3,-59,-9,-10,-1,-19,77
1523183201742415,-24,13,24,60,-4,-3,-3,-6
1523183201742415,-4,-23,32,26,-10,-11,6,-33
1523183201749436,31,21,37,35,21,16,-25,59
1523183201749436,-9,-19,-104,-76,-26,-7,8,-15
1523183201765482,19,35,-7,-74,-9,-2,-43,32
1523183201765482,-74,-49,4,77,0,-18,-12,-78
1523183201767488,7,4,-17,-13,2,-2,-4,-10
1523183201767488,24,15,65,-40,5,5,-1,21
1523183201788038,-15,0,-28,-80,1,-6,6,-22
1523183201788038,12,18,10,-53,-25,11,23,10
1523183201790042,-1,4,3,89,13,-3,-5,12
1523183201790042,4,-38,-14,-52,7,-5,0,36
1523183201802576,-13,11,12,-10,-4,2,15,-48
1523183201802576,-8,1,-5,49,2,-3,-2,4
1523183201809594,-35,-43,-5,55,3,-13,-11,4
1523183201809594,30,55,-28,-87,-10,1,-21,28
1523183201825639,-30,-40,22,49,17,-4,-15,-5
1523183201825639,30,43,19,-50,-6,6,5,-23
1523183201827648,-32,-29,-26,-1,-10,-1,21,-23
1523183201827648,68,-11,24,101,11,-10,-29,24
1523183201848199,-82,-8,-42,-128,-36,-1,5,-11
1523183201848199,-31,32,15,127,26,-7,-18,-39
1523183201849701,18,11,32,-73,-7,12,22,23
1523183201849701,-24,-9,-28,-35,1,8,13,-18
1523183201862234,29,7,26,64,15,7,45,30
1523183201862234,36,-26,-8,28,4,5,-20,49
1523183201870756,-43,21,-8,-39,-58,-20,-10,-76
1523183201870756,-42,-8,4,83,13,-12,13,10
1523183201885798,38,2,-27,-35,7,4,3,-12
1523183201885798,12,26,28,-107,-2,9,15,45
1523183201887301,38,-27,-24,-96,-8,4,-18,56
1523183201887301,-26,24,64,90,14,-16,-16,-71
1523183201908413,44,-6,-77,-73,-30,-9,-9,-1
1523183201908413,-65,-26,-15,-41,7,4,-4,-4
1523183201909861,20,-14,18,-28,9,7,3,-2
1523183201909861,-15,-12,44,11,-3,-1,24,9
1523183201922394,25,31,21,-19,15,8,7,54
1523183201922394,-10,-10,-23,41,4,-4,-11,-24
1523183201929650,23,-5,7,125,9,-5,6,35
1523183201929650,-57,-24,-14,-53,-11,-4,-6,0
1523183201945957,36,-7,-5,-17,-10,-1,-1,22
1523183201945957,6,-34,-4,-97,-6,1,-8,-15
1523183201947466,-18,42,32,52,21,2,33,-22
1523183201947466,9,-6,7,55,-5,-8,-28,4
1523183201968021,19,35,-3,42,-4,-5,-12,17
1523183201968021,2,-14,0,-115,-21,-12,-5,-47
1523183201970021,6,34,37,110,20,0,10,-7
1523183201970021,13,-18,-27,-76,3,18,4,19
1523183201982059,2,-10,30,26,8,-4,3,13
1523183201982059,8,21,6,21,11,2,11,11
1523183201991077,-18,-53,-35,-104,-29,-10,-33,51
1523183201991077,-17,45,0,69,9,0,16,-1
1523183202005655,-65,-16,-27,-8,5,2,-14,-65
1523183202005655,1,16,21,-52,-15,-5,-6,14
1523183202007622,44,2,-10,-36,-7,6,15,56
1523183202007622,8,26,-26,-113,-16,0,10,2
1523183202028411,-14,14,-36,45,5,-5,22,7
1523183202028411,2,11,30,55,18,5,-15,-15
1523183202029679,3,-39,-2,39,-3,-7,-9,-45
1523183202029679,8,-34,-3,15,-3,-5,2,24
1523183202041711,-23,-9,3,-40,-4,-1,-16,-64
1523183202041711,-3,15,-18,-30,-9,-7,-4,4
1523183202050736,3,-35,4,45,8,-5,-9,22
1523183202050736,-4,28,36,-23,14,4,8,12
1523183202065777,1,-14,-12,-4,-10,2,7,-9
1523183202065777,31,-11,7,-37,-11,10,-12,20
1523183202067282,19,18,-60,39,15,-7,-4,7
1523183202067282,-16,4,10,-10,-11,-13,11,-20
1523183202088337,-17,-7,-3,-59,9,8,-9,-84
1523183202088337,-11,-12,-6,73,7,2,-1,22
1523183202089839,25,29,-20,-86,-17,-4,-12,18
1523183202089839,42,-19,-23,-25,-16,-7,-21,92
1523183202101884,-21,-8,-9,-13,-5,-7,-16,-65
1523183202101884,30,-14,-7,-18,3,1,13,-2
1523183202110938,18,37,9,-51,-1,6,-6,-27
1523183202110938,48,-27,-10,89,23,-3,-3,44
1523183202125934,2,-26,19,29,-21,-15,-13,0
1523183202125934,5,17,-10,-16,10,7,9,12
1523183202127478,4,-10,-23,-80,-17,2,8,-22
1523183202127478,-51,-16,63,55,23,2,-1,-42
1523183202148497,-3,-17,30,-8,7,3,8,20
1523183202148497,14,25,-39,29,-14,-10,14,-13
1523183202150001,-7,-8,44,86,25,0,10,21
1523183202150001,-31,1,-63,-128,-23,1,-7,-52
1523183202162031,-13,9,42,127,10,9,-6,-5
1523183202162031,-8,-9,-14,-82,2,10,34,12
1523183202171056,4,-12,4,13,-8,-3,-6,67
1523183202171056,-15,-13,-11,-6,0,0,-7,-37
1523183202185594,22,-12,-40,-119,-17,1,7,37
1523183202185594,-27,0,29,127,18,-23,-30,17
1523183202187599,-44,9,9,-77,2,1,-4,-82
1523183202187599,5,41,-54,-88,-29,-5,-5,24
1523183202208156,21,-31,1,52,13,2,18,18
1523183202208156,95,27,30,-15,1,12,3,37
1523183202209658,-1,-23,-23,-50,-17,-8,-7,10
1523183202209658,10,23,6,9,3,11,10,-42
1523183202221690,-74,-3,26,57,-7,-26,-24,-15
1523183202221690,-28,-22,9,-53,14,7,-2,-44
1523183202230717,6,23,-42,-59,-10,-4,-23,33
1523183202230717,31,35,25,41,1,17,14,2
1523183202245996,16,-5,17,18,15,6,33,54
1523183202245996,-66,-30,-20,-12,-30,-14,-25,-67
1523183202247261,-21,-8,-6,58,9,-10,2,-6
1523183202247261,7,19,-21,-109,-3,20,21,29
1523183202268314,-11,-30,25,24,6,0,-13,-33
1523183202268314,-38,5,-33,-110,-8,-1,-8,-1
1523183202269818,18,7,16,70,19,3,59,17
1523183202269818,23,22,13,6,-8,-13,-53,12
1523183202281855,-23,42,-89,-116,-17,1,1,-51
1523183202281855,35,5,-2,83,18,2,-4,-54
1523183202290876,-27,3,22,-20,4,8,-4,1
1523183202290876,55,-16,22,32,2,-10,6,-12
1523183202305913,20,41,6,-68,-9,2,-10,13
1523183202305913,-31,-49,-51,-13,-10,-10,-4,-43
1523183202307418,6,-27,-32,30,2,4,-5,-5
1523183202307418,-28,25,31,12,-5,-3,10,4
1523183202327972,40,-22,-10,-27,2,7,-2,35
1523183202327972,-11,11,-4,-22,-16,-8,4,31
1523183202334490,25,10,19,14,2,-2,10,9
1523183202334490,-30,-21,-16,19,0,-3,-7,-8
1523183202350532,-7,36,39,38,11,4,-5,4
1523183202350532,-5,-21,-7,25,5,9,7,18
1523183202352537,9,-40,-12,-29,-12,-10,-50,42
1523183202352537,26,12,-17,-79,-18,-5,15,-38
1523183202365083,12,15,5,1,8,3,7,97
1523183202365083,-40,-6,-28,-69,-3,0,-15,-46
1523183202371827,-8,28,10,24,0,-5,-4,-44
1523183202371827,-7,-37,-18,6,2,-8,3,31
1523183202388133,0,6,22,5,-1,-1,0,13
1523183202388133,15,-1,-47,-93,-10,10,4,38
1523183202389637,-5,4,-2,103,5,-20,-5,-33
1523183202389637,25,-18,-15,-31,2,8,8,-17
1523183202401710,11,2,5,-75,-7,-2,4,68
1523183202401710,-6,20,9,44,-1,-1,-15,-27
1523183202410692,-9,-1,15,28,10,-2,32,-20
1523183202410692,29,12,-1,-39,1,0,-5,-45
1523183202426233,-1,-19,-6,-14,-6,2,-13,-35
1523183202426233,24,9,21,-100,-9,3,-2,34
1523183202427738,-50,15,11,38,23,-3,0,-45
1523183202427738,-27,-13,13,-39,-3,-2,-35,13
1523183202448295,34,-2,7,-75,-8,-2,1,-21
1523183202448295,-45,-3,53,127,13,-22,-17,-33
1523183202449796,-5,-8,25,-121,-12,24,6,48
1523183202449796,-34,-20,12,-38,-5,3,11,-10
1523183202470852,-21,-10,-7,21,11,-10,-7,-24
1523183202470852,51,11,2,0,0,2,1,51
1523183202472356,3,19,15,-14,-7,4,2,-28
1523183202472356,-20,-17,-6,18,4,-6,-16,23
1523183202485894,6,16,-15,-11,-8,11,18,-15
1523183202485894,-60,-43,8,127,15,-15,-1,-14
1523183202487397,14,16,-17,-128,-14,9,1,-48
1523183202487397,-13,-6,9,91,15,-9,-8,45
1523183202508609,-1,30,19,-21,5,6,33,-73
1523183202508609,24,5,-20,-54,5,4,-11,70
1523183202510195,-13,-29,-20,-101,-7,1,-5,-18
1523183202510195,-31,-1,7,61,-6,-7,-8,-31
1523183202530512,-44,-19,-32,52,-4,-12,-11,-20
1523183202530512,39,15,29,-28,6,9,52,9
1523183202532516,31,17,17,83,8,1,-57,61
1523183202532516,3,18,-67,-122,-37,-2,8,-54
1523183202545551,-21,-41,10,10,9,-5,-27,-29
1523183202545551,60,17,8,76,28,4,1,88
1523183202547557,52,23,7,-47,-4,-1,19,21
1523183202547557,-14,-20,-2,-107,2,5,14,14
1523183202568110,-26,-14,15,34,-12,-14,-23,-29
1523183202568110,12,-14,1,45,-12,-3,-8,-42
1523183202569617,17,6,-12,-74,-6,3,16,53
1523183202569617,-17,14,12,127,18,-8,-11,-18
1523183202590674,3,-18,17,-11,-8,5,2,-29
1523183202590674,-30,-41,-24,75,-13,-7,-7,-21
1523183202592175,11,10,-33,-56,-4,0,-2,19
1523183202592175,60,8,0,-32,-13,4,28,85
1523183202605209,-59,12,-64,27,1,-4,-11,-64
1523183202605209,-13,25,14,-62,-7,-8,-10,-45
1523183202611725,7,-26,0,65,3,4,-6,18
1523183202611725,53,14,12,-3,-3,0,30,-3
1523183202628771,15,10,-50,-79,-12,0,-3,27
1523183202628771,2,-12,-1,41,15,-2,-1,-56
1523183202630276,-43,16,7,14,2,-5,5,-11
1523183202630276,3,3,13,-70,3,-4,2,11
1523183202650831,9,14,-9,-53,-17,4,9,8
1523183202650831,-30,-5,4,-16,8,19,10,-4
1523183202652837,0,0,14,-7,-12,-14,-14,-76
1523183202652837,-3,8,24,5,22,6,9,21
1523183202664872,15,16,-1,-105,-6,3,-5,60
1523183202664872,26,-10,-39,-106,-32,-2,-2,8
1523183202671887,0,4,33,89,24,2,26,-18
1523183202671887,-54,-13,24,29,-5,-9,-33,-23
1523183202688430,39,11,24,-66,-5,6,6,32
1523183202688430,0,-14,-19,-91,-12,-5,3,65
1523183202689934,-43,-11,9,98,6,-9,-5,-5
1523183202689934,-23,-24,-17,-1,2,-3,-1,-19
1523183202710490,16,-6,2,-17,5,1,10,23
1523183202710490,4,26,8,60,-8,-5,-10,-46
1523183202712496,-18,23,37,-58,-10,3,0,9
1523183202712496,24,-33,-13,-18,-3,5,-1,10
1523183202725029,-20,-11,-8,65,9,-8,-16,-28
1523183202725029,6,-27,-10,-87,-13,-3,7,78
1523183202732045,-19,17,-55,12,-11,1,4,-46
1523183202732045,-15,-25,12,127,26,-8,-45,-47
1523183202748591,-49,7,26,-52,-14,-10,10,2
1523183202748591,6,-11,3,-105,-7,-6,-6,-22
1523183202750098,2,-7,6,79,5,5,-4,-24
1523183202750098,-3,17,-13,-63,-9,6,12,37
1523183202770657,81,-1,-2,79,13,2,13,44
1523183202770657,-55,7,0,-87,-19,-2,-10,-55
1523183202772657,-20,-26,14,23,13,-7,-4,-30
1523183202772657,13,10,8,-64,-4,0,13,-6
1523183202785192,5,-7,19,127,15,-6,-13,-8
1523183202785192,8,19,28,-26,-10,-2,7,29
1523183202791817,62,11,-35,-128,0,17,26,40
1523183202791817,-45,5,-11,-95,-16,4,-7,-52
1523183202808360,-21,-18,7,83,3,-6,-13,-36
1523183202808360,5,-1,18,57,15,1,5,2
1523183202809864,-40,-13,-1,-24,-3,-2,-14,-15
1523183202809864,37,8,-19,-3,-10,-8,-48,21
1523183202830921,26,28,-11,-86,-12,1,19,76
1523183202830921,-24,-6,4,18,1,4,-10,-41
1523183202832423,-35,-16,-3,-26,-7,-11,-6,-28
1523183202832423,17,-10,4,53,0,6,20,-6
1523183202845958,-41,0,-13,-32,12,1,-15,-20
1523183202845958,28,32,-18,-85,-21,12,13,29
1523183202851975,-18,-8,21,61,23,-11,-4,-38
1523183202851975,-4,-16,-5,-19,1,-3,-14,-17
1523183202868281,-12,-28,-12,-24,-6,-3,11,12
1523183202868281,61,20,14,3,7,1,-1,46
1523183202870023,-36,-4,-49,-125,-29,5,-2,2
1523183202870023,-27,1,-5,45,6,-14,2,-26
1523183202891081,-7,2,-18,-18,-5,0,1,7
1523183202891081,34,22,-9,-26,0,-2,-2,41
1523183202893087,2,15,0,-115,-23,-6,-20,9
1523183202893087,-24,-20,20,66,26,-2,-18,87
1523183202905117,-16,-7,-3,49,-7,-5,8,19
1523183202905117,29,1,-8,-27,-3,-5,0,10
1523183202912136,5,3,-21,-109,-20,-1,0,-14
1523183202912136,3,0,30,47,-3,3,18,2
1523183202928746,49,-8,-21,38,14,6,-1,-63
1523183202928746,23,0,-12,25,1,-2,2,36
1523183202929682,38,3,6,1,-1,3,19,34
1523183202929682,-16,0,-3,34,-10,-9,0,-43
1523183202950774,-20,4,37,-24,4,1,-9,-17
1523183202950774,32,12,40,67,22,20,-3,39
1523183202952244,-45,-12,-63,-90,-11,-3,-7,-39
1523183202952244,-7,3,-17,3,-10,-1,-9,-88
1523183202964281,5,5,20,-24,-6,-6,12,-4
1523183202964281,-78,29,-12,61,2,-9,-15,-41
1523183202980818,-12,-18,16,40,17,2,8,73
1523183202980818,0,12,-22,-61,-3,7,1,17
1523183202988337,-10,7,-6,-8,-10,-4,-4,-29
1523183202988337,-15,-34,-14,-49,-10,-10,-1,-28
1523183202989842,14,-17,-22,24,1,7,-2,14
1523183202989842,-24,8,-28,55,-10,1,6,-10
1523183203011282,6,0,-6,-31,-5,-4,15,37
1523183203011282,30,2,9,-10,2,0,-8,71
1523183203012403,-21,-8,29,41,-7,-17,-9,-84
1523183203012403,-30,10,-9,-43,4,3,-16,-9
1523183203024434,39,-16,-29,-94,2,10,1,-21
1523183203024434,-18,-23,18,127,23,-6,-1,63
1523183203033457,106,14,0,7,-2,-10,0,47
1523183203033457,52,42,29,-65,6,6,32,53
1523183203048041,-57,-10,-3,-33,-14,-4,-33,-26
1523183203048041,-77,-43,-44,-17,-5,-11,-13,-128
1523183203050001,-17,4,11,20,7,3,-1,8
1523183203050001,51,7,18,-47,0,7,10,34
1523183203071254,23,35,14,111,8,2,-5,39
1523183203071254,-12,-62,34,-44,8,7,9,-32
1523183203072563,14,-2,-30,-19,4,0,4,31
1523183203072563,-75,-6,-8,-74,-4,5,21,10
1523183203084596,-8,9,35,1,2,-3,-8,-25
1523183203084596,4,10,0,-101,-22,0,-3,-69
1523183203093617,-24,-15,50,127,27,-15,-28,56
1523183203093617,57,10,-10,-128,-1,14,9,3
1523183203108158,-29,5,17,-46,-6,-2,9,-4
1523183203108158,-46,-7,-22,-10,12,-3,-14,-33
1523183203109667,21,13,-30,-80,-19,1,9,1
1523183203109667,-8,-26,18,86,-3,-12,-18,-20
1523183203130720,6,-13,10,68,17,5,-2,-9
1523183203130720,22,35,-3,-5,-7,0,13,22
1523183203132225,3,-8,-41,-70,-17,5,1,5
1523183203132225,-17,-2,14,80,8,-8,-6,-38
1523183203144935,32,-5,-49,-121,-32,2,12,42
1523183203144935,-22,-17,40,113,25,-7,1,-81
1523183203153278,-8,-20,-20,-59,-3,2,-18,104
1523183203153278,-7,-7,-12,-64,-10,-10,-7,-4
1523183203168319,77,2,-6,-25,6,0,8,42
1523183203168319,-13,22,20,-9,-10,7,14,-3
1523183203169822,-50,14,6,40,3,-4,-2,-89
1523183203169822,-22,-35,-4,8,-7,-8,6,47
1523183203190878,67,-10,-9,25,1,-3,-24,32
1523183203190878,53,8,12,-60,-14,0,18,73
1523183203192381,-59,23,3,127,18,0,-12,-107
1523183203192381,-22,-18,-15,-52,-4,9,-5,-70
1523183203204415,-45,-9,-24,-19,5,1,8,-41
1523183203204415,-7,26,-14,-26,-7,-6,-7,51
1523183203213439,47,7,28,-106,-12,1,9,9
1523183203213439,-6,-14,0,86,10,-10,-22,8
1523183203228976,-50,1,13,70,9,3,-2,-30
1523183203228976,8,-8,-30,-35,-7,-4,13,-8
1523183203229984,49,9,19,-57,-16,3,0,37
1523183203229984,-45,39,38,59,20,10,3,-51
1523183203249533,-51,-39,-47,-4,-8,-21,-33,-47
1523183203249533,34,11,-9,-21,-1,6,13,36
1523183203258557,28,26,-6,43,5,3,16,27
1523183203258557,74,-6,11,-128,-18,4,-2,56
1523183203264573,-74,-6,-30,69,-7,-11,24,-53
1523183203264573,-44,-28,-8,5,-6,-9,-34,-86
1523183203273597,-5,-16,4,-77,-7,11,25,4
1523183203273597,50,-8,-19,34,-2,-6,0,43
1523183203288170,-23,27,33,40,15,2,-11,-5
1523183203288170,-8,-3,-16,-60,-3,2,0,3
1523183203289639,-42,-31,7,2,-3,-2,20,-46
1523183203289639,-19,26,-5,-88,-11,1,-14,-18
1523183203311081,47,5,29,32,14,1,7,43
1523183203311081,-11,16,-48,27,-3,-4,-6,-10
1523183203312199,-11,-22,18,-118,-30,7,-4,-38
1523183203312199,7,-15,45,95,35,-7,-11,-15
1523183203324232,35,12,7,-92,4,-1,4,21
1523183203324232,61,6,-19,-101,-13,15,3,75
1523183203333254,-67,-22,13,127,25,-20,-8,-15
1523183203333254,-11,5,-5,-116,-22,-4,-1,19
1523183203348295,-8,-7,12,26,2,7,-10,-23
1523183203348295,34,-3,24,45,17,7,44,24
1523183203349799,-33,10,-2,-44,-2,0,-15,51
1523183203349799,-26,-20,-61,-48,-12,-7,2,16
1523183203370352,7,6,9,-55,-10,-1,5,19
1523183203370352,-3,29,5,6,-1,-1,4,-21
1523183203377110,-12,2,24,74,13,1,-1,-11
1523183203377110,-52,-8,-18,-8,-7,-2,-18,-30
1523183203393414,20,10,-37,-53,-2,6,0,24
1523183203393414,-56,-69,40,1,-6,-9,-17,-51
1523183203394919,31,22,22,68,18,-3,-10,-28
1523183203394919,52,24,-14,-21,-10,-1,25,55
1523183203408188,-7,-4,3,-83,-25,-2,-5,0
1523183203408188,-42,14,7,45,20,-1,-28,-64
1523183203409958,42,3,-7,15,0,3,10,33
1523183203409958,10,-17,0,35,6,-1,6,-11
1523183203430516,4,-20,11,-32,-9,-3,5,14
1523183203430516,65,11,-4,45,-1,-7,-11,-11
1523183203432518,27,-8,-24,-73,-21,-6,-31,71
1523183203432518,14,7,-20,-79,-7,11,23,9
1523183203453073,-24,-9,26,127,7,-12,-3,-22
1523183203453073,-24,-1,27,86,13,-11,-42,-17
1523183203459590,23,0,-64,-85,-10,-3,-5,-9
1523183203459590,8,7,24,1,-2,1,3,3
1523183203468349,21,-19,-23,-74,-12,1,6,23
1523183203468349,-56,-15,-1,4,-2,4,40,-17
1523183203470120,-22,0,26,76,7,-4,-21,-23
1523183203470120,7,-7,-57,-41,-14,-1,4,36
1523183203490717,-77,-15,-11,-18,-6,-1,-8,-30
1523183203490717,21,-43,-64,-56,0,-2,-7,-55
1523183203492223,-14,18,10,78,10,2,16,54
1523183203492223,13,2,23,20,-7,0,-9,-16
1523183203513281,-19,2,-20,-28,12,0,-13,-14
1523183203513281,-24,20,-12,-107,-13,2,-5,23
1523183203515283,5,-13,14,65,11,-2,13,-15
1523183203515283,18,7,12,13,-5,-1,1,57
1523183203527315,-21,3,12,-49,4,5,-4,-83
1523183203527315,-42,2,17,88,11,-9,-3,50
1523183203536338,28,-13,-22,-93,-9,7,15,9
1523183203536338,90,47,18,-39,-6,9,10,28
1523183203549913,-48,-25,50,98,21,-9,-23,-40
1523183203549913,-23,-11,-38,-73,-18,-12,-1,-67
1523183203550877,68,53,6,-37,14,20,36,0
1523183203550877,-27,-35,-7,-43,-1,-6,-23,78
1523183203572435,7,45,0,-17,2,8,2,-53
1523183203572435,23,-10,51,93,2,-16,-12,49
1523183203573440,-7,-45,-37,-50,-30,-17,-11,-30
1523183203573440,37,25,2,-3,15,21,26,14
1523183203595496,-26,32,-31,-85,-27,-1,8,35
1523183203595496,-65,-2,14,115,20,-8,-31,-63
1523183203596498,6,12,-7,-48,-5,-6,-13,3
1523183203596498,-48,-18,27,65,9,-6,5,-53
1523183203610130,94,-18,-23,-55,-8,3,2,94
1523183203610130,-7,10,4,-50,-22,-5,5,11
1523183203611211,-26,-11,12,10,7,7,5,-24
1523183203611211,-42,-36,-32,0,3,-8,-27,-75
1523183203632595,58,27,46,92,24,8,17,64
1523183203632595,-9,-20,-59,-128,-41,-7,-1,44
1523183203633095,-24,-14,41,113,19,-9,-26,-64
1523183203633095,-15,-29,18,86,14,11,12,-79
1523183203647137,17,3,6,-22,-13,-7,-3,75
1523183203647137,63,34,10,-83,-4,8,27,43
1523183203655153,-10,-19,-11,-39,-17,-13,-27,15
1523183203655153,-80,-14,-36,-76,-8,5,-3,-91
1523183203669972,-14,-2,13,43,12,-3,0,34
1523183203669972,83,31,9,42,5,10,16,76
1523183203670976,-46,-31,-9,-56,-8,-2,1,-36
1523183203670976,-8,-4,14,15,0,-11,-15,-40
1523183203692533,5,15,-23,27,-9,-5,-4,-8
1523183203692533,-16,-30,-6,-16,0,-1,-3,37
1523183203693535,34,41,9,-20,2,9,16,36
1523183203693535,-17,-6,18,-18,-7,-11,-1,1
1523183203708574,-13,6,-5,-84,9,11,3,-52
1523183203708574,-19,-7,7,42,9,3,-4,-23
1523183203715093,-4,-21,-34,-20,-16,-8,3,-7
1523183203715093,9,15,7,33,13,-1,-11,45
1523183203730135,33,8,-17,-91,-11,2,14,20
1523183203730135,-20,8,47,62,9,3,-12,-53
1523183203730634,15,-4,0,50,11,-4,35,88
1523183203730634,39,23,-7,3,-2,11,18,34
1523183203752692,-24,-6,-5,-16,-6,-2,-6,3
1523183203752692,-81,-20,0,-118,-7,1,-30,-99
1523183203753196,23,-14,-19,109,-3,-11,-8,0
1523183203753196,79,-5,12,45,8,-2,41,30
1523183203766730,-31,30,4,-5,1,4,3,71
1523183203766730,-76,-3,4,27,0,-6,-39,-59
1523183203775445,51,22,-4,-112,-10,6,-14,54
1523183203775445,-1,-3,-31,-57,-13,-7,8,81
1523183203798314,59,-20,31,97,2,-9,-2,7
1523183203798314,17,-10,-27,-65,-1,7,25,43
1523183203799317,3,34,21,-4,10,10,-5,-25
1523183203799317,-1,20,19,86,1,-3,8,-37
1523183203812854,-10,-27,-27,-107,-13,-2,-16,5
1523183203812854,6,20,5,122,16,-8,-8,4
1523183203813857,17,14,18,-77,13,12,2,-13
1523183203813857,8,-20,27,-84,-11,0,5,5
1523183203826929,-39,-31,-21,34,-1,4,-5,-76
1523183203826929,47,-1,-14,-24,3,5,24,19
1523183203834950,9,10,10,-10,1,4,-17,53
1523183203834950,-26,-33,-17,-53,-12,-18,-17,-11
1523183203849953,-19,-23,-3,98,4,-9,-1,-54
1523183203849953,26,13,-14,-67,-7,17,25,73
1523183203850994,-19,14,8,112,14,-16,-3,-31
1523183203850994,-67,-33,-15,-16,-14,-11,-33,-73
1523183203872550,33,17,2,-24,12,-10,-16,53
1523183203872550,11,-7,20,17,6,18,14,45
1523183203873515,-54,-1,-55,-113,-22,-9,-6,-72
1523183203873515,-37,16,6,81,4,-4,-14,-53
1523183203887049,36,-7,21,14,-2,-2,0,6
1523183203887049,11,20,-1,-63,-5,-2,-7,-27
1523183203895088,-3,-12,-4,48,7,-2,-5,24
1523183203895088,13,16,11,-6,7,-2,-12,-13
1523183203910111,0,-11,-5,-42,-11,-5,15,-9
1523183203910111,24,23,8,-83,3,2,2,-13
1523183203911145,-6,-11,-12,-56,-23,3,-7,-5
1523183203911145,-1,13,-14,31,-2,1,11,0
1523183203932670,-18,-42,12,62,8,4,15,-28
1523183203932670,-35,7,-30,-106,-13,-10,-4,20
1523183203933174,9,-4,-2,-52,2,10,4,17
1523183203933174,-2,11,-18,125,8,-6,-10,-7
1523183203946711,-13,18,8,-83,-3,8,25,92
1523183203946711,0,9,-4,33,3,2,-27,-52
1523183203955231,-16,-20,3,-70,-17,-3,26,-6
1523183203955231,-25,9,1,-26,5,-7,-22,3
1523183203969771,22,-15,-6,13,-5,-4,-4,-20
1523183203969771,52,9,-2,-5,-6,2,13,61
1523183203970775,-65,-13,15,76,13,-16,-17,-83
1523183203970775,21,-24,-4,-55,-4,7,2,-23
1523183203992928,-32,-3,-2,124,12,0,-10,-81
1523183203992928,66,25,-7,6,-2,-5,2,83
1523183203993334,110,33,2,-123,-17,23,33,127
1523183203993334,-91,-27,-4,82,22,-24,-26,-76
1523183204006868,-38,2,7,-121,-13,-4,-33,-60
1523183204006868,6,-34,-33,16,-15,3,6,-31
1523183204014890,57,44,20,36,9,10,25,63
1523183204014890,26,7,21,-128,-15,15,2,59
1523183204029973,-19,-14,-4,37,-11,-6,-20,-48
1523183204029973,-34,-48,18,101,36,-2,27,-41
1523183204030933,-34,-35,17,-5,3,0,20,30
1523183204030933,44,75,-25,-89,-28,18,-16,39
1523183204052725,-7,16,15,61,7,-20,-7,13
1523183204052725,-24,-41,7,-55,-8,0,-2,-36
1523183204053492,-3,22,1,-2,7,-9,-30,-41
1523183204053492,34,0,-18,-128,-24,20,42,67
1523183204067030,-15,-8,-33,41,-10,-6,-7,-54
1523183204067030,-41,24,19,91,34,-17,-23,-39
1523183204075051,-25,-64,-13,-60,3,-4,-6,-10
1523183204075051,73,24,9,-90,2,4,10,90
1523183204090090,-16,29,30,-100,-17,3,-2,-11
1523183204090090,-11,-37,21,55,13,11,4,3
1523183204090592,-42,-20,-34,-67,-18,-4,-10,-52
1523183204090592,-5,-15,7,111,27,-10,-4,3
1523183204112650,38,2,-7,-64,-5,-4,35,41
1523183204112650,27,11,3,66,-7,-2,-26,24
1523183204113652,-17,41,12,11,3,11,12,-10
1523183204113652,-37,-17,-19,-65,-18,-4,-17,-50
1523183204126725,3,-22,11,94,36,-12,-1,6
1523183204126725,50,33,-16,-128,-27,-2,22,56
1523183204135213,-84,-35,15,-8,-11,-12,-32,-94
1523183204135213,-23,-13,-2,79,22,-6,-3,1
1523183204150249,26,-4,-42,-82,-8,9,1,35
1523183204150249,54,30,2,-51,-18,1,12,58
1523183204150752,6,-8,12,29,9,-5,-2,-42
1523183204150752,-38,-17,4,67,-4,-5,8,-16
1523183204172321,-29,-6,-15,-44,4,9,-6,5
1523183204172321,64,16,2,7,1,4,14,62
1523183204173323,-57,3,16,-47,-22,-10,-17,-40
1523183204173323,-9,-9,-12,51,19,2,-10,-47
1523183204186899,13,8,4,11,-6,6,7,35
1523183204186899,-37,-23,-12,33,-6,-11,-16,-28
1523183204194881,60,2,12,18,11,5,-9,76
1523183204194881,4,-7,-12,-98,-26,-11,5,3
1523183204209921,-1,9,28,43,24,3,-11,-55
1523183204209921,-28,-5,14,73,1,1,14,-17
1523183204210924,72,29,7,-32,1,0,-18,87
1523183204210924,-34,-35,17,84,12,-1,-12,3
1523183204232491,-30,6,-65,-128,-33,-10,5,-21
1523183204232491,-29,10,-28,-22,5,0,-23,-85
1523183204233521,-31,-65,-36,6,-17,-2,12,64
1523183204233521,55,33,38,37,15,1,11,25
1523183204247031,14,18,6,-8,-5,4,8,16
1523183204247031,7,0,2,-38,-10,-9,-13,9
1523183204255051,44,15,-12,-39,-4,10,20,-9
1523183204255051,-82,-19,6,66,-10,-15,-29,-88
1523183204270092,-19,-26,21,100,21,-23,-19,-16
1523183204270092,1,-7,-8,-106,-3,11,10,18
1523183204270593,37,19,0,-13,4,-1,12,21
1523183204270593,44,20,4,-128,-8,17,24,42
1523183204292652,18,41,4,-52,-27,10,1,1
1523183204292652,-56,-74,8,98,29,-24,-13,-10
1523183204293694,69,22,0,-19,7,8,6,15
1523183204293694,-46,13,19,-55,0,0,7,-57
1523183204315714,-38,-31,-30,-52,-15,-9,-32,-47
1523183204315714,17,31,4,-12,0,10,19,19
1523183204316716,-19,-1,2,78,12,-3,-3,-16
1523183204316716,44,10,-1,-9,-3,3,27,81
1523183204330252,70,3,30,-1,10,7,9,74
1523183204330252,-77,-39,-20,-125,-32,-2,-6,-53
1523183204330752,-39,-11,19,127,26,-18,-26,-80
1523183204330752,33,20,-14,-14,0,6,5,53
1523183204352918,-14,-36,28,-17,-5,-5,0,13
1523183204352918,20,46,8,-13,-3,10,-5,0
1523183204353314,-44,-51,-32,-115,-22,6,6,-5
1523183204353314,43,-20,-15,-34,3,-11,-7,-7
1523183204375696,24,15,31,88,31,-7,0,20
1523183204375696,9,8,-3,-83,-7,-1,2,15
1523183204376700,12,29,33,-34,4,8,4,-12
1523183204376700,-6,-19,-30,-70,-11,-1,-9,-3
1523183204390196,-47,-31,4,14,-12,0,16,-9
1523183204390196,6,10,-18,-54,-10,-5,-17,32
1523183204390696,24,14,15,127,-3,-11,8,12
1523183204390696,4,8,-14,-26,1,9,-4,-3
1523183204412512,-56,-1,-11,-1,-6,-5,-29,-34
1523183204412512,-13,-4,-15,-1,-8,-4,-16,-21
1523183204413515,30,6,-23,-22,-1,-2,-14,21
1523183204413515,7,25,13,16,-4,10,17,18
1523183204435573,-2,-7,-10,-42,2,10,5,-17
1523183204435573,17,20,22,-54,-4,1,-4,5
1523183204436577,-4,14,4,85,11,-13,-4,-9
1523183204436577,37,-40,0,-51,-4,-4,6,36
1523183204450111,6,24,-16,24,1,0,5,27
1523183204450111,-37,-58,-4,-4,-2,-1,7,-59
1523183204450613,-15,23,-6,-64,-16,8,-3,-15
1523183204450613,-35,4,44,98,18,-5,3,-28
1523183204472672,18,-17,-49,-115,-10,3,-18,14
1523183204472672,42,33,11,-51,-12,-8,10,52
1523183204473174,-43,23,20,-50,9,11,0,-63
1523183204473174,-33,-67,-9,112,19,-7,-15,-16
1523183204495735,-1,-26,30,-29,-8,3,12,12
1523183204495735,52,15,-17,8,8,-2,-3,22
1523183204496736,-57,-18,-8,-26,-15,-14,-12,10
1523183204496736,-41,30,13,33,0,9,-9,-23
1523183204510005,52,26,-9,-8,7,6,15,25
1523183204510005,-41,-2,0,79,-8,-13,-6,-6
1523183204510773,10,-1,-8,-8,-12,-13,8,21
1523183204510773,-16,-1,-26,-55,-12,-4,-5,-25
1523183204532329,7,-6,-5,-93,4,20,8,-1
1523183204532329,10,2,38,69,29,-1,-1,0
1523183204533333,17,39,-9,-45,-7,-7,-7,10
1523183204533333,6,-21,18,-29,-6,-9,3,-10
1523183204556134,-4,10,-34,-48,-15,-3,-9,30
1523183204556134,-10,-43,11,-7,11,9,16,14
1523183204556393,-44,6,-19,40,-7,-8,-11,-50
1523183204556393,2,19,-62,-88,-17,-14,-16,-9
1523183204569929,7,0,28,106,24,9,20,13
1523183204569929,-41,13,5,-7,-1,3,2,-4
1523183204570972,62,-17,-55,-83,-5,19,8,23
1523183204570972,-13,13,30,39,9,-39,-17,-10
1523183204592489,-16,56,25,-49,12,17,11,-19
1523183204592489,-8,-65,-20,-30,14,22,5,12
1523183204593492,28,-6,43,-37,6,14,6,25
1523183204593492,15,-17,-57,-109,-19,2,7,-16
1523183204615550,9,-7,13,83,-6,-37,-31,-27
1523183204615550,12,27,48,110,-17,-12,-3,-33
1523183204616555,66,33,-16,-62,18,6,9,80
1523183204616555,0,9,59,42,-2,5,5,22
1523183204630091,-34,-2,0,93,6,-19,-9,-18
1523183204630091,-42,-39,-47,-74,-23,4,0,-32
1523183204630592,61,8,-5,1,-8,-14,-20,6
1523183204630592,23,-6,12,28,2,3,-7,26
1523183204652649,32,54,-30,-106,-13,6,5,15
1523183204652649,21,27,16,-2,3,-5,-5,-6
1523183204653152,-46,-46,-15,74,-3,-9,4,-53
1523183204653152,4,30,15,-2,5,5,-5,11
1523183204676117,-12,-26,-4,-83,-23,-8,-4,18
1523183204676117,49,7,-20,-10,11,-7,8,17
1523183204676493,-43,-27,9,-58,11,27,10,-34
1523183204676493,2,8,-12,47,-4,-9,-15,-20
1523183204690030,-7,7,0,-22,16,4,9,0
1523183204690030,-22,-19,-48,-20,-28,2,18,1
1523183204691032,-26,-18,17,11,11,-10,-11,-3
1523183204691032,83,11,-4,-1,12,11,20,83
1523183204712641,-105,-33,-19,-82,-23,-16,-34,-99
1523183204712641,37,32,49,-3,-4,2,-9,-26
1523183204713092,-12,-22,-2,9,-13,-3,7,2
1523183204713092,17,9,-31,-27,-6,0,3,19
1523183204735651,59,10,8,43,12,8,29,68
1523183204735651,-32,16,3,24,-10,-2,-11,-6
1523183204736653,-36,-42,-13,127,15,-14,-11,-29
1523183204736653,18,15,12,-59,0,4,18,-35
1523183204750189,29,-20,-11,-50,-17,1,1,50
1523183204750189,-65,5,-14,-54,11,10,-4,-8
1523183204750692,-67,-15,30,76,24,-11,-27,-79
1523183204750692,-50,-22,-5,-86,-1,11,12,36
1523183204772533,104,32,-5,20,4,17,-2,75
1523183204772533,-76,-25,13,77,12,-20,-9,-44
1523183204773536,-17,24,14,-38,-15,-7,-11,-30
1523183204773536,-24,-7,-28,-54,7,7,-12,-33
1523183204795597,39,-19,31,24,2,2,11,0
1523183204795597,53,58,-38,-114,10,6,3,60
1523183204796597,-6,-45,43,98,6,-8,0,31
1523183204796597,-60,6,-27,-57,-27,-10,-9,-65
1523183204810132,23,-30,0,-65,-8,1,-1,-11
1523183204810132,46,-15,-41,25,7,7,31,74
1523183204810633,-26,23,-9,39,-7,-7,-19,-31
1523183204810633,-13,4,18,42,22,1,-17,-60
1523183204832693,-13,34,9,28,-8,-8,0,-13
1523183204832693,10,-39,13,52,2,-4,-13,-50
1523183204833696,42,16,-39,-128,-19,14,38,76
1523183204833696,62,15,31,127,8,-5,-24,79
1523183204855989,20,35,-6,-74,-23,13,19,11
1523183204855989,-64,-32,50,45,40,-19,-26,-36
1523183204856756,-52,-3,6,-65,12,4,-1,-31
1523183204856756,-15,-23,4,-79,-15,1,1,-27
1523183204869791,-25,-13,-20,-89,5,1,12,38
1523183204869791,38,25,-9,37,-16,-15,-5,24
1523183204870794,55,-2,-18,-9,-1,0,22,2
1523183204870794,-52,-1,15,-13,3,5,-22,-38
1523183204892586,-25,-8,-10,22,-3,2,4,12
1523183204892586,10,9,-11,-128,-30,0,-3,16
1523183204893353,4,19,-2,105,20,-14,-4,-2
1523183204893353,12,-11,10,23,0,2,11,-8
1523183204923433,-52,7,0,76,17,-1,2,-43
1523183204923433,100,-2,3,-89,-12,5,20,27
1523183204923936,-81,3,-39,-128,-36,0,-34,-53
1523183204923936,-65,-62,-27,98,7,-29,-27,-50
1523183204929455,-33,-7,28,-10,13,1,-28,-50
1523183204929455,7,33,-1,-43,8,11,23,-48
1523183204937471,24,-51,-10,-128,-7,14,1,125
1523183204937471,34,28,0,33,-15,0,9,23
1523183204952745,-52,-45,37,97,-17,-25,-14,-65
1523183204952745,-14,-1,-3,-5,-4,3,-1,14
1523183204953513,30,21,-7,-7,-7,1,-2,4
1523183204953513,-22,15,29,-61,-2,0,13,35
1523183204975572,25,-19,-18,-85,8,12,14,36
1523183204975572,-32,21,26,118,9,-5,-11,25
1523183204976576,-64,-43,21,46,6,-10,-10,-93
1523183204976576,34,29,16,-84,-9,-1,-2,33
1523183204989611,-49,-39,-63,-33,-5,-9,1,-22
1523183204989611,52,7,16,-12,-3,-2,-1,79
1523183204997630,36,45,16,34,13,4,26,37
1523183204997630,-83,-31,-29,-103,-6,7,-3,-68
1523183205012711,-56,26,25,116,21,-3,-34,-31
1523183205012711,2,7,14,-89,-15,5,7,-1
1523183205013171,76,14,21,-14,-11,3,-4,32
1523183205013171,-5,-26,-18,-2,7,-17,5,21
1523183205035732,24,23,-19,-41,-1,-1,13,37
1523183205035732,-25,2,-17,-13,-4,-4,-22,-16
1523183205036233,35,-11,-19,-37,-11,0,5,1
1523183205036233,26,17,15,-120,-9,20,18,36
1523183205049268,-5,-12,13,127,20,-12,-16,-56
1523183205049268,15,-18,-20,-23,-16,-5,1,34
1523183205057957,4,25,9,-67,14,18,24,47
1523183205057957,-66,4,-5,58,6,-8,-25,-57
1523183205072332,2,-50,-38,-81,-15,-16,0,8
1523183205072332,13,5,-3,36,15,15,1,-10
1523183205073331,32,11,12,7,5,4,8,72
1523183205073331,-9,14,12,-7,-2,0,14,1
1523183205095929,31,20,2,-122,-22,7,-9,-11
1523183205095929,-90,-53,-9,97,15,-13,-5,-24
1523183205096393,21,2,-5,3,-9,-2,6,0
1523183205096393,61,27,-7,30,9,9,15,82
1523183205109663,-3,12,5,-109,-20,0,-4,-81
1523183205109663,-12,2,21,62,9,-16,-25,-10
1523183205117450,39,-5,17,29,14,-1,-8,41
1523183205117450,-19,-31,-23,-77,-22,-2,7,-43
1523183205132488,37,16,22,81,21,13,10,72
1523183205132488,-37,-17,-47,-36,-13,-9,-9,-42
1523183205133495,25,16,-9,1,-12,-7,-1,-7
1523183205133495,5,16,2,33,0,-3,0,20
1523183205156090,9,-29,55,-14,2,8,10,6
1523183205156090,-5,26,-14,-79,-30,5,-3,-18
1523183205156553,-38,-53,-44,-8,9,-7,-4,-21
1523183205156553,21,18,-28,-2,1,-1,3,43
1523183205169588,28,0,-26,-19,0,9,11,47
1523183205169588,-68,-2,19,73,8,-11,-21,-77
1523183205177608,-47,-18,22,-35,-13,-3,-2,-54
1523183205177608,-15,-25,-11,-33,-7,-5,13,51
1523183205192889,12,32,2,-58,7,-6,-11,5
1523183205192889,52,16,-5,-128,-4,14,15,25
1523183205193149,6,-9,-16,86,-1,-7,-14,-34
1523183205193149,68,13,16,127,32,9,10,15
1523183205215709,-18,-2,2,-12,1,2,6,27
1523183205215709,-46,-33,-15,75,-9,-13,-17,-53
1523183205216714,-28,13,7,-18,0,6,4,-23
1523183205216714,62,30,-2,-55,-19,6,-2,34
1523183205229251,9,-13,32,51,11,-9,-11,-14
1523183205229251,-10,4,11,-51,-6,4,7,25
1523183205237769,29,46,-19,-37,-2,-2,2,67
1523183205237769,16,-53,-12,-30,1,-3,10,11
1523183205252931,-76,-8,-38,-121,-31,1,-25,-79
1523183205252931,-19,-27,16,68,25,-15,-9,-14
1523183205253309,-7,3,-13,-65,6,5,33,-23
1523183205253309,71,25,20,-96,-5,1,-45,69
1523183205275691,21,5,21,-41,4,8,13,26
1523183205275691,-42,-48,-47,-31,-45,-18,-14,-36
1523183205276864,-14,-3,7,87,15,-2,-7,-7
1523183205276864,-26,-11,-12,10,8,10,31,-67
1523183205298256,-3,13,-8,-33,-9,-5,-2,48
1523183205298256,45,57,16,-9,13,7,-4,23
1523183205299216,-55,-45,-46,43,-9,-13,-23,-37
1523183205299216,-43,-36,3,17,-2,-3,9,-8
1523183205312751,29,28,21,-3,-2,4,3,19
1523183205312751,52,-10,-14,-55,-15,2,17,14
1523183205313253,62,23,-12,-33,-6,-11,-3,-39
1523183205313253,31,7,-4,32,12,-10,-25,5
1523183205335814,18,-16,-10,55,4,2,3,36
1523183205335814,-29,14,19,-40,13,11,-2,18
1523183205336317,-27,-9,-25,-100,-31,-4,6,-5
1523183205336317,-54,0,17,116,-2,5,1,-37
1523183205358565,29,20,-12,2,2,-6,20,34
1523183205358565,55,49,25,-27,12,11,-14,37
1523183205358873,-26,-33,22,-9,16,10,-8,-12
1523183205358873,9,2,-18,-88,-25,-13,-3,6
1523183205372412,-36,-11,-19,14,6,8,22,-39
1523183205372412,35,-6,4,92,31,4,0,4
1523183205373413,34,55,11,-71,-16,-1,9,56
1523183205373413,-32,18,14,-60,12,9,-5,-58
1523183205395973,-24,-40,-26,-8,-17,-11,-8,-63
1523183205395973,24,-25,22,44,13,-1,13,3
1523183205396474,41,12,-4,-17,-17,-2,0,72
1523183205396474,-37,10,26,-27,0,1,8,19
1523183205418031,-57,2,-3,-27,-11,0,-5,-32
1523183205418031,-64,-37,-17,-62,2,-12,-4,-37
1523183205419035,-45,-20,41,75,2,-9,-15,-4
1523183205419035,44,3,17,1,-4,-8,-5,17
1523183205432570,37,1,-53,-97,-30,-1,-5,24
1523183205432570,-32,-38,6,65,2,-1,-3,9
1523183205433573,0,5,14,3,14,3,1,-13
1523183205433573,47,22,-14,-96,-12,-8,1,24
1523183205455869,-38,-7,4,-64,8,3,-8,-44
1523183205455869,35,7,-3,54,4,-14,3,-31
1523183205456871,-8,18,-39,-65,10,15,-22,7
1523183205456871,39,25,8,-1,12,5,11,50
1523183205478194,-4,-43,-11,1,-11,-15,-9,14
1523183205478194,4,-28,32,35,-8,7,-5,-77
1523183205479193,23,5,-19,20,2,-5,-1,-8
1523183205479193,-5,-17,-10,6,-9,-9,1,-5
1523183205492915,54,27,36,122,28,11,1,68
1523183205492915,48,36,-18,-128,-43,0,9,19
1523183205493233,-93,-55,-28,109,18,-17,-30,-99
1523183205493233,40,-14,-8,31,8,8,14,4
1523183205515832,-76,43,26,-19,7,0,5,-13
1523183205515832,-10,9,18,-34,-3,-6,-10,23
1523183205516292,70,9,-41,-25,-23,8,5,5
1523183205516292,-52,-22,-22,63,4,-2,-11,-34
1523183205538352,27,8,-8,16,8,-3,-1,-6
1523183205538352,3,2,39,8,7,2,1,-5
1523183205538855,22,9,-5,26,-24,-13,20,-44
1523183205538855,-78,-68,-15,-76,0,1,-20,-59
1523183205552888,74,19,36,107,5,-4,7,93
1523183205552888,-85,-50,-5,43,5,-2,-11,-25
1523183205553391,-49,1,51,-32,2,3,1,-49
1523183205553391,-30,0,-34,-35,-29,-3,3,-12
1523183205575993,47,20,14,32,22,-2,-5,-6
1523183205575993,30,2,-30,-46,-1,34,37,98
1523183205576452,-75,-38,35,71,17,-18,-23,-21
1523183205576452,-18,2,20,-97,15,9,5,-37
1523183205598052,-51,-8,-27,-81,-14,-16,-21,-3
1523183205598052,14,48,-24,-77,-11,4,24,60
1523183205599019,34,-15,24,-73,-3,12,7,44
1523183205599019,-44,-41,-12,81,-1,-19,-35,-84
1523183205612550,-16,-5,32,28,2,1,15,-24
1523183205612550,47,8,-19,4,3,-6,-3,70
1523183205613050,15,44,-3,-128,-16,15,13,42
1523183205613050,-14,-31,20,103,11,-18,-17,-32
1523183205635649,-47,-17,25,-3,17,9,14,-14
1523183205635649,3,12,-14,-80,-12,-1,-15,0
1523183205636617,33,19,19,-22,10,2,9,62
1523183205636617,46,35,-24,-47,-12,-3,11,52
1523183205658407,-13,-41,-44,-52,-14,-1,-7,-23
1523183205658407,-8,-27,25,102,23,-14,0,-31
1523183205659307,-19,-7,45,-56,-1,4,-38,-15
1523183205659307,-41,16,8,-67,8,13,12,15
1523183205672708,6,7,-4,25,-12,-2,-7,-2
1523183205672708,-26,13,-40,-66,-24,-13,-9,-55
1523183205673210,37,8,55,82,11,7,23,8
1523183205673210,81,11,-66,-55,-17,8,13,45
1523183205695771,-39,-10,14,56,21,-16,-25,-26
1523183205695771,10,3,-16,36,-22,-11,11,-53
1523183205696270,-48,4,-16,-5,1,-3,12,-17
1523183205696270,63,17,8,-86,-2,9,-15,63
1523183205718328,28,41,-27,-112,-14,5,6,-26
1523183205718328,-59,-62,33,83,-11,-32,-20,-35
1523183205718831,-44,19,-5,23,34,12,7,-32
1523183205718831,4,-5,3,-51,-10,3,11,4
1523183205732368,41,4,14,-22,-4,-2,16,44
1523183205732368,-5,28,19,-36,-3,2,-17,-4
1523183205733372,2,-32,-35,-55,-5,10,5,16
1523183205733372,12,21,14,67,1,-5,6,-11
1523183205756429,-31,-5,17,37,4,-3,-1,8
1523183205756429,-33,-52,-30,-128,-10,0,-6,0
1523183205756932,-42,6,-3,90,12,-15,-4,-51
1523183205756932,43,10,0,-63,7,18,5,-11
1523183205778491,15,8,4,-3,-12,-6,-10,15
1523183205778491,2,15,-23,-128,8,15,11,52
1523183205778993,4,-32,-31,23,3,5,22,-39
1523183205778993,-35,20,28,94,-2,-20,-33,-3
1523183205792527,15,-11,-21,-6,2,-4,-8,-5
1523183205792527,56,27,30,2,6,13,16,32
1523183205793529,-55,-1,-35,-11,-25,5,5,-25
1523183205793529,-38,1,22,22,13,-3,-17,-25
1523183205815588,-30,-17,-3,8,4,0,-3,-15
1523183205815588,26,28,-16,-29,-4,1,1,17
1523183205816591,37,-15,3,-104,-26,-8,4,32
1523183205816591,-53,-12,23,103,25,-7,-4,-17
1523183205838148,9,-7,-45,-73,-4,-3,-1,17
1523183205838148,22,18,16,-22,-8,-2,-24,-15
1523183205839151,18,32,-6,-86,-4,3,0,34
1523183205839151,-29,-49,-7,28,-9,-2,4,-4
1523183205851919,-38,9,30,13,14,9,-3,-74
1523183205851919,-55,-51,-48,-61,-8,-7,3,11
1523183205860205,59,17,5,-3,-11,-9,-12,55
1523183205860205,23,43,-15,-55,-13,7,15,19
1523183205875791,-21,-53,40,127,-8,-12,-2,-18
1523183205875791,-18,37,12,-24,33,22,25,5
1523183205876249,-53,17,-1,-81,-6,-9,-20,34
1523183205876249,41,-47,-15,-37,-8,-2,6,13
1523183205898309,5,20,-46,-69,-32,-11,-21,-36
1523183205898309,-17,-16,10,102,25,-4,-14,-35
1523183205898809,-36,-17,-19,14,2,-15,6,-54
1523183205898809,86,21,10,-33,-3,8,5,79
1523183205911902,-39,-15,-29,-87,-1,0,-4,-25
1523183205911902,-39,12,14,86,-32,-27,-24,-86
1523183205919918,-7,-3,11,6,28,15,-3,15
1523183205919918,16,3,-15,-41,-8,-7,2,12
1523183205935460,31,15,33,7,5,4,9,59
1523183205935460,15,-2,-49,-83,-19,-4,1,23
1523183205936463,-8,-1,13,127,13,-7,-2,-8
1523183205936463,-68,-5,-11,-45,-26,-4,5,-36
1523183205958758,45,-7,1,-64,13,11,2,46
1523183205958758,-7,31,-20,-28,-9,1,3,-8
1523183205959524,82,-39,33,91,5,-22,-24,-15
1523183205959524,-25,-22,-59,-101,-7,10,7,-3
1523183205972058,10,13,21,22,3,7,18,-4
1523183205972058,-76,20,26,-47,20,2,-23,-37
1523183205980080,-33,-17,25,11,-16,-27,-17,-22
1523183205980080,32,19,-28,-71,-1,4,-4,15
1523183205995620,37,-11,31,-48,8,11,15,47
1523183205995620,57,-1,-87,5,-25,0,8,12
1523183205996623,-10,19,-4,-14,-13,1,3,-14
1523183205996623,-38,21,47,127,28,0,-14,-2
1523183206018180,32,-9,-47,-112,-15,9,4,41
1523183206018180,-44,-22,16,95,14,-10,-10,-13
1523183206019184,11,-13,-51,-98,-22,-9,-27,-81
1523183206019184,-5,11,4,7,10,-8,15,15
1523183206031718,40,45,4,-32,-6,7,11,65
1523183206031718,-30,-47,-15,-78,1,5,-9,-36
1523183206039737,48,0,48,104,16,-1,-11,54
1523183206039737,-53,-33,15,0,9,-2,-3,-39
1523183206056017,60,18,36,13,16,12,19,53
1523183206056017,6,-17,28,-47,-2,0,6,-13
1523183206056281,-56,-14,-18,-76,-20,-13,-1,-5
1523183206056281,-12,-14,9,81,11,21,4,-48
1523183206078346,-43,-12,-11,56,-5,-26,-20,-55
1523183206078346,60,29,-8,-81,-13,18,11,42
1523183206078843,-15,4,38,17,43,12,6,2
1523183206078843,-63,20,-28,-103,-26,-24,-12,-23
1523183206092113,-16,-4,3,5,-14,-9,-6,-44
1523183206092113,-6,-10,21,84,36,19,12,35
1523183206099898,67,-12,-40,-114,-26,9,16,65
1523183206099898,-35,-6,-3,-46,-11,-4,-2,-25
1523183206114938,-12,-5,24,107,32,-8,-27,-103
1523183206114938,-31,20,-8,-103,-15,-14,-25,95
1523183206115941,0,36,20,-6,5,13,5,1
1523183206115941,-18,-11,6,-47,-10,-10,-2,3
1523183206138000,-59,-26,-41,-18,-10,-3,-15,4
1523183206138000,20,0,-22,61,11,6,7,-22
1523183206139003,96,28,-7,-39,4,12,24,23
1523183206139003,11,-16,25,57,-4,-14,5,2
1523183206152227,-40,7,2,12,-4,0,1,20
1523183206152227,67,15,8,-46,-2,-3,7,33
1523183206160057,-1,8,-16,-28,-11,-2,9,33
1523183206160057,-11,-7,-15,-114,-8,-4,-22,-64
1523183206175097,-9,-18,-31,122,6,-17,-12,-22
1523183206175097,7,6,21,73,12,-2,23,-11
1523183206176207,23,-13,-10,-91,-15,15,-13,50
1523183206176207,39,5,8,20,-10,-5,3,23
1523183206198161,-3,-57,-18,28,9,3,-17,-35
1523183206198161,30,2,15,-48,-6,3,0,-4
1523183206199201,-6,-3,-18,3,-17,-13,10,1
1523183206199201,27,21,14,119,25,7,8,23
1523183206220720,-29,31,-29,-128,2,14,-6,-13
1523183206220720,-26,-31,-5,-41,-16,-8,-3,-8
1523183206221226,-2,7,9,52,12,-16,-13,-21
1523183206221226,17,8,17,-30,3,9,4,13
1523183206235257,42,22,-2,-80,-11,-2,10,14
1523183206235257,50,2,18,-17,2,-1,10,41
1523183206235759,-65,-21,-23,-122,-15,4,-4,-34
1523183206235759,-46,-14,10,112,22,-20,-24,-55
1523183206258555,-23,-13,-7,-11,-18,-13,2,12
1523183206258555,42,0,19,2,9,10,15,32
1523183206258819,30,18,11,23,9,6,-1,-10
1523183206258819,36,2,-17,-66,-36,-13,-7,19
1523183206280878,5,-10,14,-47,4,11,15,-8
1523183206280878,-18,21,43,61,24,4,0,-9
1523183206281380,6,-23,-34,9,9,-7,2,31
1523183206281380,0,4,4,-105,-5,8,9,31
1523183206294919,-8,4,4,37,-9,-12,-12,-19
1523183206294919,-23,31,9,-83,-11,10,11,-15
1523183206295923,19,-1,-3,64,13,-2,-10,7
1523183206295923,17,-54,-14,42,-3,-8,5,15
1523183206317978,-16,28,6,-7,13,4,-6,-16
1523183206317978,7,-21,-7,-48,-8,12,-9,-26
1523183206318981,-55,-55,28,64,2,-10,2,-77
1523183206318981,15,26,-9,-56,-4,-4,-27,10
1523183206341077,93,15,-10,-20,-1,2,23,88
1523183206341077,-27,2,-11,-1,3,-7,-15,-46
1523183206341539,-25,-9,2,-30,-9,0,-13,19
1523183206341539,10,25,-3,27,6,11,10,31
1523183206355311,-1,-12,14,-7,-4,-1,13,5
1523183206355311,-13,10,-34,-71,-25,-4,-17,-19
1523183206355575,-58,-31,30,119,24,-5,-2,-55
1523183206355575,-87,-20,-4,-16,7,3,-6,-68
1523183206378420,33,26,27,-115,-9,0,-1,32
1523183206378420,3,3,28,40,6,-11,5,31
1523183206378921,-3,-41,-84,-44,-4,22,13,42
1523183206378921,-53,12,7,-27,-11,6,7,8
1523183206401090,-7,-7,-3,16,2,1,-8,-57
1523183206401090,29,0,22,30,2,-10,-1,15
1523183206401482,25,21,3,-25,-14,-8,-5,-1
1523183206401482,68,-20,4,44,6,0,11,50
1523183206415025,-58,-22,-22,4,-11,4,20,34
1523183206415025,25,5,-18,-46,-3,-2,-10,25
1523183206416022,38,40,11,-3,-21,10,4,21
1523183206416022,-18,-18,8,80,48,1,-3,-40
1523183206438079,13,0,-16,-31,-24,-13,-18,-3
1523183206438079,-45,-26,-3,12,11,-1,0,-12
1523183206439082,23,35,6,-86,-9,4,10,41
1523183206439082,24,24,-38,-105,-11,11,3,-6
1523183206460641,-32,-26,68,127,12,-12,-13,-20
1523183206460641,-7,-12,-17,-42,-1,-5,-8,-17
1523183206462142,36,31,4,-48,-6,-6,1,20
1523183206462142,-4,31,-44,-71,-17,-13,-13,-59
1523183206474175,-19,-7,-48,-126,-22,6,3,-30
1523183206474175,-14,-33,22,116,30,-2,-7,-15
1523183206483198,2,27,54,26,0,6,21,-3
1523183206483198,89,-18,-17,-33,-9,5,29,104
1523183206497738,-36,-5,-30,-23,7,0,-39,-91
1523183206497738,16,1,-3,46,-15,-13,-4,8
1523183206504754,-36,14,9,15,22,-6,-5,-29
1523183206504754,-30,2,26,27,-7,9,13,17
1523183206520799,15,-10,36,48,19,6,-3,40
1523183206520799,4,22,-60,-111,-28,-2,5,6
1523183206522302,-10,-28,-4,-97,6,2,-10,-55
1523183206522302,-71,-31,19,118,12,-11,-15,-24
1523183206534335,36,10,52,-38,9,2,23,74
1523183206534335,10,-11,3,-81,-3,7,-15,-9
1523183206543358,-12,2,-32,-88,-21,-8,-5,28
1523183206543358,-2,5,-21,-24,-11,-15,-18,-31
1523183206558135,8,6,-38,-18,15,11,10,2
1523183206558135,-60,-39,29,127,-7,-10,-6,-62
1523183206559904,8,-3,9,2,-8,-1,4,92
1523183206559904,-60,-13,-2,-103,-18,-1,1,-10
1523183206587978,-68,11,-12,112,14,-9,-11,-96
1523183206587978,23,15,7,-61,6,11,-11,19
1523183206589984,-8,-40,4,32,2,-6,4,-32
1523183206589984,42,39,33,-18,-16,-6,9,41
1523183206594495,29,-23,-28,-128,-16,13,23,40
1523183206594495,-30,0,-15,30,12,-3,-16,-41
1523183206603518,-6,19,21,127,11,-8,-12,-23
1523183206603518,78,24,26,-15,1,7,26,45
1523183206618100,28,0,-22,-106,-28,-8,-1,41
1523183206618100,-17,-41,62,127,41,0,-12,-30
1523183206619560,7,6,-20,-98,-11,5,0,0
1523183206619560,-52,-6,-9,-40,0,-5,-9,-14
1523183206640617,-30,31,-1,-24,0,1,5,-42
1523183206640617,11,17,-22,-30,-8,1,46,-12
1523183206642669,-20,-18,8,28,-1,-2,-17,-19
1523183206642669,-9,-4,35,-2,7,7,-16,2
1523183206654152,-8,-18,-21,35,-8,5,8,10
1523183206654152,0,18,-8,18,5,-2,7,-5
1523183206663176,58,28,11,-105,-4,4,23,51
1523183206663176,-32,-34,-31,119,3,-10,-20,-38
1523183206678239,-32,-29,-47,-47,4,-3,-14,-70
1523183206678239,73,2,-10,43,-21,-8,-2,27
1523183206679721,-16,0,-16,4,9,-4,2,53
1523183206679721,84,38,-33,-128,-27,20,3,40
1523183206701013,-48,-21,54,127,25,-15,-13,-5
1523183206701013,-64,-19,3,-74,-4,-9,-1,-40
1523183206702281,21,37,-20,-123,-6,1,-14,52
1523183206702281,61,-1,-16,-93,-18,-4,20,35
1523183206714351,-17,-20,-6,62,25,11,-8,-15
1523183206714351,2,13,27,-34,-3,0,2,-5
1523183206723338,-23,-12,8,56,6,-6,-4,-26
1523183206723338,42,23,17,1,15,10,7,16
1523183206738393,42,25,5,-90,-35,-25,-18,-46
1523183206738393,-18,-53,-3,66,-6,-14,25,103
1523183206739882,-22,-21,-11,40,19,16,-3,-17
1523183206739882,6,32,11,-12,5,0,-1,6
1523183206760938,69,5,-13,18,-14,0,16,27
1523183206760938,23,27,10,4,9,3,-12,39
1523183206762440,-21,5,-25,-57,-32,-5,-5,-46
1523183206762440,-25,-14,-3,-54,-7,-1,-13,-54
1523183206774510,-20,-13,-6,59,15,-10,-2,-1
1523183206774510,47,30,-30,-87,-13,3,0,-2
1523183206783535,6,2,1,-4,-8,-9,-11,-13
1523183206783535,15,19,11,-72,-13,13,12,-15
1523183206798036,-72,-43,21,44,41,-11,-15,-8
1523183206798036,3,13,-7,-112,-13,-7,5,72
1523183206800043,3,-17,-27,-9,-6,-18,18,62
1523183206800043,1,10,-15,22,30,29,24,-21
1523183206820596,-5,-3,7,-32,-19,2,3,-36
1523183206820596,-23,5,3,78,-12,-5,0,-10
1523183206822608,-21,-18,-4,-14,0,-1,-27,-50
1523183206822608,0,-34,2,59,2,-19,-4,-1
1523183206834131,42,26,19,-15,2,11,13,72
1523183206834131,-4,-7,2,-62,5,11,-3,-50
1523183206843657,14,4,-20,31,-11,3,-8,-28
1523183206843657,-12,-11,20,12,20,-1,-1,11
1523183206865752,-34,-7,2,-51,-8,1,5,-14
1523183206865752,18,-2,-11,-94,-14,3,-15,-46
1523183206867221,12,15,52,30,8,6,9,-7
1523183206867221,-23,-16,-4,82,7,-14,-3,18
1523183206880756,41,28,-17,-126,-61,-12,-15,53
1523183206880756,-61,-26,-57,72,17,16,2,-11
1523183206882260,-8,-32,1,83,23,-4,-9,-72
1523183206882260,-14,5,7,-41,-11,-3,-3,-34
1523183206894292,-5,-41,2,-27,-1,-4,-18,-3
1523183206894292,35,19,-6,13,1,8,41,10
1523183206903315,-9,-2,-13,-100,-12,-1,-29,4
1523183206903315,-2,-5,52,79,6,0,-4,-7
1523183206918368,6,14,5,23,0,-24,-4,-22
1523183206918368,-27,6,29,-39,7,1,2,34
1523183206919860,9,15,-40,-84,11,14,32,1
1523183206919860,-12,2,-36,-128,-14,-1,-12,-24
1523183206941042,-21,14,-10,63,0,5,-8,-40
1523183206941042,-7,-12,30,127,25,-19,-30,-46
1523183206942419,40,23,21,-114,-4,14,26,69
1523183206942419,-10,-43,-14,-2,-7,-11,-7,55
1523183206954451,13,1,-9,-43,-12,2,-4,32
1523183206954451,-9,-33,-44,-128,-18,-2,5,-45
1523183206963476,-23,38,24,80,7,1,17,-16
1523183206963476,89,38,0,19,7,1,-9,89
1523183206978057,-72,-2,-6,-93,0,8,-22,-88
1523183206978057,34,-22,-33,-128,-15,-6,-26,101
1523183206980020,0,-8,82,105,15,-25,-21,-8
1523183206980020,16,25,24,-6,22,0,25,29
1523183207001075,46,-49,-22,-51,-5,7,5,61
1523183207001075,12,52,-42,-95,-27,9,4,-15
1523183207002710,-18,-41,-20,9,6,-9,-13,-54
1523183207002710,-36,22,25,39,8,-6,12,-37
1523183207014399,38,-29,19,10,7,12,10,-9
1523183207014399,49,-4,-8,-18,-18,7,-2,6
1523183207023424,-33,-30,4,8,-10,-20,-16,-31
1523183207023424,-11,40,-12,-35,-17,-10,2,-16
1523183207037964,52,-7,-23,21,4,11,21,65
1523183207037964,-57,16,-10,101,5,0,-13,29
1523183207039968,1,16,3,-66,1,11,-7,-23
1523183207039968,-46,-45,-36,69,1,-17,-25,-59
1523183207060527,26,47,37,-71,-12,0,20,76
1523183207060527,11,26,18,-6,-5,-1,10,2
1523183207062528,-87,-29,-30,-15,3,5,-6,-57
1523183207062528,-41,-58,-15,-9,-7,-20,-30,16
1523183207074560,-12,38,20,-44,19,10,16,24
1523183207074560,82,12,-6,-10,3,-5,28,35
1523183207083583,-26,34,-9,-103,-24,7,-12,-3
1523183207083583,-16,-53,-24,29,-2,5,-1,1
1523183207098123,-13,35,12,112,13,-4,-13,13
1523183207098123,50,26,41,-44,1,-2,1,0
1523183207099753,-49,-23,-39,-124,-45,-15,-1,-49
1523183207099753,34,22,56,109,38,11,-19,-21
1523183207120809,-21,-14,14,-19,11,-8,3,-21
1523183207120809,7,-30,86,13,7,5,36,45
1523183207122314,108,18,-61,-85,-17,7,13,124
1523183207122314,-54,-27,-12,-45,-10,-17,-24,-55
1523183207143869,-42,1,-7,90,8,-10,-43,-82
1523183207143869,44,-10,-9,-44,-5,5,-6,-6
1523183207145372,1,-56,44,117,24,-7,7,20
1523183207145372,64,19,-7,-111,-12,10,5,86
1523183207157643,-2,32,-29,-100,-1,14,-3,-19
1523183207157643,-70,-35,22,92,0,-23,-5,-65
1523183207164426,20,47,0,-55,8,8,-17,5
1523183207164426,25,-18,-16,-75,-11,5,5,-22
1523183207180466,-27,-6,-15,-34,-17,-5,3,-53
1523183207180466,-46,20,-78,49,33,7,-20,-91
1523183207182474,44,-7,33,-49,-25,-11,2,89
1523183207182474,-23,43,30,-20,9,5,13,16
1523183207203261,28,-8,3,-128,-21,6,11,42
1523183207203261,-48,-32,-58,48,20,3,-5,-57
1523183207205031,-17,-6,-9,-3,14,13,-20,-12
1523183207205031,28,-6,-4,1,-5,0,19,-2
1523183207218346,115,29,8,-23,-6,-1,22,110
1523183207218346,-81,-53,10,49,-4,-11,-32,-71
1523183207219851,35,-26,3,-50,-5,1,13,-25
1523183207219851,-41,-35,-10,-53,-10,-4,-10,29
1523183207241082,18,12,-15,2,6,-8,6,48
1523183207241082,40,17,-8,-128,-10,11,12,72
1523183207242410,13,39,10,-4,-2,-2,10,-24
1523183207242410,-60,2,-11,91,17,-6,-1,-86
1523183207263003,-66,-6,-52,-47,-7,-8,-23,5
1523183207263003,-4,18,43,-33,1,6,15,60
1523183207264970,-13,17,-29,-74,-17,1,8,3
1523183207264970,13,42,-21,4,8,5,23,-2
1523183207278005,10,-34,10,81,11,0,2,15
1523183207278005,-80,-24,50,55,10,-17,-39,-51
1523183207280010,-8,-4,5,-36,-9,-11,-16,-63
1523183207280010,0,-8,3,82,27,1,2,-11
1523183207301088,26,16,4,-84,-25,1,7,-14
1523183207301088,93,23,-15,-38,-14,3,13,88
1523183207302795,36,11,-9,-18,7,13,16,29
1523183207302795,-44,-25,29,71,-14,-30,-41,-40
1523183207323163,-46,-38,17,-68,11,5,13,-38
1523183207323163,39,28,-37,-70,-1,4,-28,-32
1523183207324630,2,-11,-8,42,4,-12,6,71
1523183207324630,20,-6,-58,-128,-30,22,31,-10
1523183207345687,-36,21,11,127,13,-14,-26,-88
1523183207345687,7,6,16,-54,-23,-9,33,31
1523183207347190,-21,19,-1,16,9,-1,5,-1
1523183207347190,13,-31,7,-74,-15,12,-24,-33
1523183207360730,11,33,-4,-69,-27,-3,3,-13
1523183207360730,-46,-70,-6,98,23,-22,-26,-37
1523183207362229,-35,20,-20,-49,0,5,11,-39
1523183207362229,87,41,13,-63,-6,-1,0,90
1523183207383306,4,18,-20,-90,-14,-1,0,14
1523183207383306,-26,26,13,38,10,-2,-13,-72
1523183207384789,-16,-47,16,27,1,1,-5,33
1523183207384789,-23,-37,6,49,9,-10,-16,-32
1523183207397323,40,21,-2,-16,2,8,7,74
1523183207397323,55,37,13,-69,-6,21,27,57
1523183207404583,-93,-56,34,127,10,-22,-11,-112
1523183207404583,5,-16,-21,-96,-11,2,-3,2
1523183207420666,-4,-23,21,7,1,-6,-5,16
1523183207420666,59,23,20,-128,-5,14,9,49
1523183207422172,-1,-11,-29,22,1,-16,-22,-30
1523183207422172,-3,53,-21,-78,-24,10,20,12
1523183207443227,-33,-80,31,127,50,-5,-11,-32
1523183207443227,4,2,-11,-95,-8,1,-8,19
1523183207444730,-24,-12,-21,-105,-5,9,40,81
1523183207444730,2,0,35,88,-1,-29,-26,-41
1523183207456998,22,8,-8,50,0,2,2,51
1523183207456998,-22,-25,-4,-12,-6,1,-17,-43
1523183207473306,9,11,-2,0,2,8,39,48
1523183207473306,-46,1,-17,49,-2,-4,-11,-26
1523183207480826,-17,20,4,4,0,0,5,10
1523183207480826,6,-10,-7,-42,-4,-3,15,8
1523183207482330,-14,-4,11,0,-5,9,-6,0
1523183207482330,12,19,-16,-128,4,10,5,23
1523183207503577,-25,-15,4,52,-12,-10,0,-21
1523183207503577,-51,-20,35,127,29,-13,-12,-39
1523183207505150,27,14,-13,-111,-12,5,-35,22
1523183207505150,-17,-23,-27,-28,1,3,4,12
1523183207517538,-17,9,-10,30,-7,-12,-14,-46
1523183207517538,3,13,-4,-46,-8,14,29,-36
1523183207524519,31,-22,-23,23,12,-7,-19,66
1523183207524519,25,15,26,57,6,-3,50,62
1523183207540797,87,27,-11,-128,-31,-9,-35,-11
1523183207540797,-86,-10,-13,0,3,17,-8,-11
1523183207542065,-11,-11,14,46,32,5,2,-60
1523183207542065,8,0,-11,-86,-8,2,6,27
1523183207563122,-10,-16,-7,-43,0,-2,16,9
1523183207563122,35,60,-11,-82,-18,-8,0,47
1523183207564626,33,12,22,58,-10,7,0,-15
1523183207564626,-78,-20,22,113,9,-5,-12,-8
1523183207577661,26,38,-18,-113,-10,3,16,45
1523183207577661,-22,-45,44,122,6,-7,-10,-1
1523183207584177,-26,7,17,30,16,1,-4,-102
1523183207584177,35,-11,-6,-8,-5,-6,-50,61
1523183207600721,-6,20,14,28,17,10,-1,1
1523183207600721,-13,-11,-36,-124,-21,1,4,44
1523183207602227,-38,-39,-13,62,-9,-15,-14,-80
1523183207602227,2,2,14,73,10,-3,-5,-29
1523183207623299,6,-11,12,-60,4,9,14,7
1523183207623299,-24,-4,-1,73,-2,-8,-6,11
1523183207624802,9,-21,-2,11,-11,-25,-27,-5
1523183207624802,7,4,-11,-35,-1,17,16,2
1523183207636832,19,-66,-56,27,0,8,2,37
1523183207636832,15,27,-6,-44,-10,-15,-9,-85
1523183207645857,-24,23,18,-33,-2,1,-3,-47
1523183207645857,42,9,12,-28,1,12,25,51
1523183207660898,17,5,15,-68,4,4,-13,10
1523183207660898,21,-23,-33,-2,-13,3,3,-11
1523183207662402,12,-2,-19,-115,-19,-15,-21,103
1523183207662402,-37,5,13,-17,-1,-12,-9,-36
1523183207682955,-27,4,-1,-12,8,3,17,-15
1523183207682955,-35,-12,-1,-34,-6,-7,-6,-6
1523183207684961,23,34,5,8,8,7,-20,15
1523183207684961,52,-1,-20,-44,0,8,20,12
1523183207697495,-12,2,-1,27,-11,-3,6,34
1523183207697495,-45,2,7,31,6,-14,-20,-50
1523183207706017,18,13,4,-23,-1,14,31,23
1523183207706017,-5,-20,-38,-115,-20,0,-5,-21
1523183207720840,30,-14,25,105,14,-13,-9,-26
1523183207720840,39,14,16,-45,-4,-4,9,1
1523183207722345,3,29,-13,-80,0,10,25,41
1523183207722345,-55,-32,14,85,17,-7,-20,-58
1523183207743401,-1,21,-10,-128,-22,5,13,-40
1523183207743401,64,-65,-47,62,23,8,0,49
1523183207744904,-8,12,29,51,12,-10,-2,-16
1523183207744904,6,13,0,-97,-26,-9,-1,-17
1523183207765500,-21,-5,-18,-19,1,2,-4,-15
1523183207765500,0,26,53,68,27,-1,-1,10
1523183207767466,35,-8,-24,-74,-10,11,10,28
1523183207767466,-74,-11,8,12,3,-6,-2,-3
1523183207780498,24,15,30,46,11,3,1,-41
1523183207780498,78,-1,-54,-104,-30,-7,2,99
1523183207782544,-54,-21,4,53,-7,-6,1,-61
1523183207782544,16,10,13,0,2,0,-15,-34
1523183207803295,31,-18,28,41,10,9,-12,42
1523183207803295,-60,-8,-6,7,-6,-2,-18,-22
1523183207805194,-19,8,-24,-21,-6,-13,-16,-83
1523183207805194,10,1,4,31,-4,-6,8,-1
1523183207816882,-18,-16,-20,-22,-9,2,-1,17
1523183207816882,54,43,17,3,8,8,15,56
1523183207825912,-18,-37,-23,-128,-27,8,5,16
1523183207825912,-21,-22,2,67,1,-20,-13,-13
1523183207841099,-45,-7,-5,108,18,-3,-7,-17
1523183207841099,-7,10,9,-70,-5,5,14,14
1523183207842454,24,-3,-18,-59,3,4,7,19
1523183207842454,-27,-2,-11,8,2,-4,-23,-42
1523183207863004,-6,21,-11,-99,-4,-3,31,-21
1523183207863004,-32,-10,31,97,1,-8,-16,35
1523183207865020,62,26,-45,-41,-2,0,-3,27
1523183207865020,22,-7,19,10,2,-1,10,31
1523183207877042,-30,-13,-13,-39,-1,1,6,-41
1523183207877042,25,33,-27,-47,-5,5,1,8
1523183207885566,14,11,22,16,6,3,0,40
1523183207885566,-40,-47,-11,-27,-6,4,16,-30
1523183207900840,-12,3,-11,-6,-15,-10,-10,19
1523183207900840,15,-5,-17,-11,-1,-1,-1,-51
1523183207902705,-77,11,13,61,-1,-15,-20,-46
1523183207902705,75,56,19,-3,12,19,15,50
1523183207922985,-28,-16,22,-8,0,0,-10,18
1523183207922985,-49,-37,-35,-88,-27,-11,-13,-56
1523183207924953,-1,-13,33,127,39,0,0,-14
1523183207924953,9,42,21,-15,-6,3,3,22
1523183207936986,12,17,-14,-49,-10,5,4,55
1523183207936986,-40,-15,7,101,3,-6,-9,-20
1523183207946009,21,2,8,4,-13,-4,1,-4
1523183207946009,9,-5,-22,-46,5,7,4,-1
1523183207960548,-4,4,14,40,12,-1,-10,-19
1523183207960548,-16,8,-8,-111,-16,3,7,-4
1523183207962553,26,-19,51,97,17,-1,5,11
1523183207962553,-7,-28,-24,14,-3,-2,-3,14
1523183207983146,-40,-25,-8,-20,-8,-9,-16,-70
1523183207983146,15,2,-8,-52,-5,-9,-5,-23
1523183207984612,8,22,17,-31,2,15,7,24
1523183207984612,64,14,-26,-85,-9,5,7,35
1523183207996707,-25,-35,9,127,17,-7,21,-9
1523183207996707,24,46,-12,-72,-13,-6,-11,3
1523183208005731,-56,-40,-14,-27,-33,-6,-5,-29
1523183208005731,-22,-26,11,91,24,-12,-6,-57
1523183208020770,-8,-22,50,-28,24,45,3,50
1523183208020770,20,-8,-81,-29,-14,-10,21,-1
1523183208022274,79,56,15,-57,-11,-13,1,15
1523183208022274,-20,26,13,-26,-14,0,-35,-1
1523183208043346,-92,-62,-31,66,-10,-12,-25,-59
1523183208043346,46,-12,29,32,26,16,9,17
1523183208044834,34,16,-45,-90,-9,2,11,25
1523183208044834,-67,9,12,61,0,-15,-5,-31
1523183208065889,77,44,-14,-34,1,-9,-1,5
1523183208065889,-9,-39,22,-9,1,-3,-13,46
1523183208067394,-11,-17,0,-7,-34,-19,5,7
1523183208067394,4,4,-71,9,15,20,4,-5
1523183208080928,12,-16,6,7,-4,-7,-1,-21
1523183208080928,-23,36,24,31,12,1,-4,16
1523183208082434,3,-78,-23,-72,-10,7,3,9
1523183208082434,-14,-19,4,13,-7,-23,-15,-44
1523183208103587,11,10,14,71,13,4,-24,-52
1523183208103587,-32,-25,31,20,6,7,17,73
1523183208104993,-8,22,20,-30,23,12,10,17
1523183208104993,15,14,29,-9,-30,2,-3,33
1523183208125551,-38,-1,-78,-88,-24,-24,20,-41
1523183208125551,-5,-4,33,-82,3,14,-12,-35
1523183208127052,-47,3,-6,47,13,-2,-15,-44
1523183208127052,32,-7,-1,-59,-2,11,21,39
1523183208140816,6,36,11,14,-17,-22,-8,11
1523183208140816,12,-8,8,45,-16,-6,11,9
1523183208142093,6,19,7,37,26,24,-2,-15
1523183208142093,-3,-22,-38,20,-2,-8,7,3
1523183208163147,32,9,15,-57,-2,9,4,-3
1523183208163147,-9,-10,10,113,10,-20,-23,-23
1523183208164653,-5,22,-32,-13,-26,-16,-10,-5
1523183208164653,-12,7,-5,-96,15,15,10,9
1523183208185707,29,10,23,79,13,3,-2,37
1523183208185707,-32,7,-42,-35,-9,5,43,-29
1523183208187212,-14,-18,31,42,7,-6,-10,56
1523183208187212,31,23,-21,-55,-31,-16,17,-26
1523183208200983,7,-11,-23,-8,18,23,-30,-14
1523183208200983,20,37,12,-36,0,-5,9,-4
1523183208202251,47,-18,-5,71,14,4,5,42
1523183208202251,-51,-16,13,-53,-12,-8,-7,-31
1523183208223346,-52,18,15,-71,-14,-5,1,-46
1523183208223346,-29,-43,-13,127,12,-11,-17,-35
1523183208224811,26,16,0,-119,8,20,35,24
1523183208224811,59,22,17,4,12,6,-4,78
1523183208253386,-46,-23,13,-112,-23,-2,-7,-70
1523183208253386,2,-27,-2,69,-16,-20,-22,-1
1523183208254892,-11,9,0,44,19,26,16,-20
1523183208254892,60,-7,-2,-8,-7,-5,-3,-5
1523183208259906,23,30,26,-4,1,-7,5,58
1523183208259906,-19,-7,18,-76,-5,-1,-12,-30
1523183208266924,-27,-21,-34,33,-36,-25,-24,-59
1523183208266924,-26,18,7,53,19,1,-9,-28
1523183208283004,55,4,0,12,12,18,28,82
1523183208283004,39,26,1,-67,-4,6,0,30
1523183208284972,10,11,-1,-44,-10,-2,-3,-20
1523183208284972,-24,-38,-6,73,-3,-15,-24,-25
1523183208305761,27,12,-25,-5,-1,-10,11,34
1523183208305761,31,-14,-8,-7,9,11,11,-14
1523183208307638,-29,22,7,-29,-3,9,-9,48
1523183208307638,-5,12,10,-72,4,4,12,-54
1523183208320065,19,18,-1,43,-2,-15,-18,43
1523183208320065,48,-17,0,-57,2,16,19,56
1523183208326626,-36,-10,-11,67,-1,-21,-19,-2
1523183208326626,-36,-25,-1,-19,1,-3,-4,-47
1523183208343128,-16,15,1,-38,-16,-7,20,-1
1523183208343128,36,23,-9,-6,26,39,7,51
1523183208344630,0,-26,-6,15,-1,-14,-11,-45
1523183208344630,-6,10,25,33,8,7,34,5
1523183208365687,-70,-10,-18,-57,-4,-2,-41,-67
1523183208365687,62,30,-57,-128,-30,0,18,95
1523183208367190,26,26,83,98,20,-21,-11,-15
1523183208367190,-37,-87,2,-8,-6,-11,-16,-46
1523183208380223,11,5,-14,-81,-14,-14,-7,-5
1523183208380223,-44,-11,16,6,-3,2,-1,-45
1523183208386742,65,70,-9,-128,3,35,28,68
1523183208386742,-49,-15,21,95,21,-15,-26,-11
1523183208403524,-22,-58,-15,-20,-18,-20,-16,-45
1523183208403524,-37,1,22,-11,3,-5,-9,-27
1523183208404790,36,12,3,-33,3,-3,4,8
1523183208404790,24,28,2,-43,-15,5,6,78
1523183208425630,-24,-23,-26,25,-6,-6,2,-17
1523183208425630,5,47,28,90,17,8,0,-42
1523183208427634,-29,-47,-34,-88,-1,19,5,13
1523183208427634,27,-29,2,18,-28,-10,-19,-17
1523183208440169,43,10,18,100,29,2,34,46
1523183208440169,-36,-3,-62,-55,-16,-18,-19,-46
1523183208446916,22,4,-17,-36,-5,6,32,30
1523183208446916,-64,-7,13,49,13,2,-25,-74
1523183208463230,58,21,5,-9,-12,-8,9,38
1523183208463230,-12,-8,22,24,10,2,-9,23
1523183208464734,-28,-4,-21,-61,-4,4,17,4
1523183208464734,-12,24,-3,-127,6,11,12,17
1523183208485790,-24,-27,-6,60,-13,-8,-25,-79
1523183208485790,40,-2,16,24,10,-2,-7,63
1523183208487297,35,-9,-18,-39,8,-3,2,28
1523183208487297,-20,16,9,-56,-22,0,-7,19
1523183208500062,-42,-19,-11,28,15,-6,-36,-84
1523183208500062,-19,-15,-26,-47,-9,-1,-6,-24
1523183208507213,-32,18,20,67,4,-6,-2,0
1523183208507213,77,20,-18,-128,-12,1,1,98
1523183208523214,-33,-24,19,62,-21,-51,-4,6
1523183208523214,-38,-25,0,-79,24,64,15,-52
1523183208524678,-56,-10,4,-65,2,0,-12,-9
1523183208524678,87,71,-14,-98,0,17,30,38
1523183208545775,-12,-13,63,8,0,4,3,40
1523183208545775,22,-48,-18,77,7,-47,-55,-68
1523183208547238,15,-1,-4,-63,-8,-13,-17,-1
1523183208547238,23,23,34,13,12,22,19,11
1523183208559315,-8,10,-8,-78,8,18,7,41
1523183208559315,25,-14,3,21,-21,-22,-15,-15
1523183208568309,-15,4,-14,-37,-11,4,-7,-61
1523183208568309,36,-1,-14,117,12,-14,2,22
1523183208583333,-11,31,43,33,5,20,24,49
1523183208583333,-67,-15,-63,-56,-15,-15,-3,-44
1523183208584876,12,2,13,69,-22,-23,-11,-4
1523183208584876,-40,-8,10,-68,20,10,1,-18
1523183208606060,-5,29,-26,-122,-1,22,21,37
1523183208606060,25,34,40,-76,8,4,12,50
1523183208607630,-87,-52,-15,-13,-33,-19,-33,-107
1523183208607630,-18,-19,-24,104,15,-13,-6,16
1523183208619430,-13,-10,-25,-54,16,17,-12,-60
1523183208619430,103,25,18,-60,-18,-7,-5,119
1523183208628453,0,5,45,47,10,2,4,-5
1523183208628453,-74,-9,-34,-97,-32,-13,-14,-44
1523183208642993,23,-53,-10,81,31,12,-10,-35
1523183208642993,-43,34,-10,-23,-11,-4,16,1
1523183208644997,36,3,21,-1,20,10,4,26
1523183208644997,-11,11,32,23,-3,-3,-5,-7
1523183208665553,54,18,-41,-128,-16,-8,4,53
1523183208665553,-53,-11,15,85,-23,-16,5,-27
1523183208667057,-47,-31,-36,26,25,20,-1,-27
1523183208667057,36,10,8,22,-6,-6,2,-7
1523183208679129,54,5,-15,-78,-15,3,3,40
1523183208679129,-77,-10,-1,123,8,-7,-9,-57
1523183208688613,46,3,2,-35,8,5,6,-18
1523183208688613,31,10,-44,-26,-8,-12,-14,64
1523183208703151,-66,-10,1,8,-7,0,3,-24
1523183208703151,-3,6,11,-117,22,28,10,17
1523183208705156,-6,-28,-25,111,9,-12,-9,-22
1523183208705156,49,-13,1,-54,-7,7,1,-12
1523183208725715,-26,38,13,30,-20,-24,3,-36
1523183208725715,-2,-15,-3,-84,-11,-7,-14,-61
1523183208727217,32,-13,-18,16,0,11,17,51
1523183208727217,-77,-6,41,107,29,-1,-9,-53
1523183208739483,3,-1,-59,-70,-4,21,24,64
1523183208739483,24,11,1,-35,-5,2,0,-1
1523183208748273,-3,-9,18,45,-11,-27,-16,10
1523183208748273,-3,-16,-4,-18,9,3,-1,-42
1523183208763312,-46,15,4,54,15,15,21,-52
1523183208763312,41,25,9,18,1,-9,-20,15
1523183208764818,46,29,8,-128,-12,10,12,43
1523183208764818,-43,-2,4,57,-8,-14,-14,-22
1523183208785873,2,12,19,-20,13,-3,17,-53
1523183208785873,27,-26,43,-48,18,19,-7,14
1523183208787375,6,24,6,-12,-6,-14,-8,36
1523183208787375,-26,-32,-62,-128,-40,2,12,-83
1523183208799445,14,-23,-3,85,18,7,-5,-22
1523183208799445,-35,10,9,97,3,-10,35,12
1523183208808438,63,24,10,-12,7,9,-22,80
1523183208808438,-5,23,2,-85,-4,-2,-7,22
1523183208823008,-11,-43,25,51,-20,-14,-28,13
1523183208823008,-20,-2,6,-23,16,14,6,-5
1523183208824979,-3,18,-10,-107,-1,7,33,41
1523183208824979,64,16,-6,-23,9,5,-6,74
1523183208845530,-34,-52,-27,-23,-23,-27,-41,-69
1523183208845530,-41,-39,15,108,0,3,17,-36
1523183208847535,3,-19,-13,65,10,2,-14,-41
1523183208847535,40,34,-10,-1,-7,4,29,119
1523183208859610,27,14,11,-76,-4,-2,-19,45
1523183208859610,-8,-7,-11,-35,-21,-14,-7,-33
1523183208868090,-99,-41,-21,25,17,18,19,-75
1523183208868090,77,35,38,66,16,15,6,94
1523183208883171,-56,46,-32,-100,-16,0,-6,-43
1523183208883171,-56,-31,-37,-1,-7,-16,-25,-27
1523183208884636,-12,-17,39,-34,-3,-12,-14,-22
1523183208884636,-68,-30,9,125,-1,-8,7,-57
1523183208905928,127,24,22,-1,23,9,13,125
1523183208905928,43,15,-43,-115,-28,-14,6,31
1523183208907193,-22,-8,-9,-96,-8,25,8,-35
1523183208907193,-40,2,55,97,34,-14,-9,-50
1523183208919228,45,27,30,-57,-7,0,-6,22
1523183208919228,25,7,20,-69,14,-1,2,16
1523183208928249,-40,-29,-61,-24,-32,-22,-14,-19
1523183208928249,-31,10,-22,30,5,8,31,-99
1523183208943290,22,-12,43,5,16,9,-48,44
1523183208943290,-27,-4,-9,16,-10,-8,-5,1
1523183208944794,73,20,27,50,7,-1,37,12
1523183208944794,1,-9,-39,-51,-10,-3,-30,-33
1523183208965861,2,14,9,10,-6,-7,14,-42
1523183208965861,6,18,20,28,-3,6,5,33
1523183208967354,57,7,-20,-75,-12,-19,0,58
1523183208967354,-75,-30,15,67,7,11,3,-48
1523183208979385,-52,-5,-5,-26,10,3,-1,-17
1523183208979385,-6,9,-19,-29,5,3,-9,-10
1523183208988411,-31,-63,4,84,-21,-22,-13,1
1523183208988411,45,12,-3,-21,-13,-8,19,17
1523183209003559,37,-16,25,50,16,5,-9,48
1523183209003559,0,1,-4,-2,7,1,13,-9
1523183209004953,54,54,27,72,19,3,-3,57
1523183209004953,-41,-63,-20,-66,-22,6,-15,-53
1523183209025510,-43,-23,9,29,-9,-10,4,-48
1523183209025510,4,9,17,-27,8,12,28,-19
1523183209027514,-48,27,36,33,20,10,-20,55
1523183209027514,33,10,-27,-128,-20,-2,15,80
1523183209048069,2,-6,-20,23,0,-3,-4,-23
1523183209048069,6,-2,3,49,-2,-14,-14,5
1523183209049572,21,17,-41,-128,-19,17,17,-23
1523183209049572,6,-10,17,127,15,-12,-13,4
1523183209063110,-23,-11,-9,-18,-17,-24,4,-9
1523183209063110,17,-12,50,19,21,26,-8,13
1523183209064616,-4,8,-13,35,10,5,-1,-37
1523183209064616,-1,45,-21,-128,-29,1,-12,36
1523183209085668,25,-32,-4,93,16,-5,-2,-25
1523183209085668,-30,-34,8,26,-8,-20,-1,-16
1523183209087674,-48,34,10,-30,3,0,-8,-27
1523183209087674,20,-63,-8,-99,3,21,14,17
1523183209108233,0,10,-71,-6,-14,1,27,-50
1523183209108233,-81,25,33,60,2,5,-8,-13
1523183209109734,57,-18,17,-1,-10,-14,-26,-9
1523183209109734,4,30,-2,-28,-7,-4,-1,12
1523183209123306,8,-4,-15,55,2,1,1,-4
1523183209123306,12,16,-19,-23,-4,-3,-4,26
1523183209124791,3,-2,18,-18,-4,-5,8,33
1523183209124791,-29,-44,3,13,-8,-10,-15,2
1523183209145827,-3,-7,24,48,4,-2,-10,-12
1523183209145827,28,33,-13,-57,5,15,9,13
1523183209147339,-20,-12,21,65,3,-5,2,-2
1523183209147339,12,-32,-6,-7,0,-3,-7,4
1523183209167887,32,14,10,-71,-24,-1,19,45
1523183209167887,-2,-14,-46,11,-1,-12,-11,-60
1523183209169895,7,1,28,-82,-16,2,6,2
1523183209169895,10,-11,33,105,24,-10,-7,-8
1523183209182463,2,8,5,-56,7,5,2,44
1523183209182463,-9,6,-76,-76,-7,2,8,-70
1523183209189682,-36,-34,-20,-75,-3,1,-26,31
1523183209189682,47,18,1,-96,-5,8,-3,29
1523183209205725,-4,-1,22,65,-4,-5,1,49
1523183209205725,-48,-27,24,32,5,-11,-14,-2
1523183209207493,15,-2,-40,38,4,-9,-8,-37
1523183209207493,-12,24,15,-12,-2,3,16,-41
1523183209228046,-18,11,-51,-110,-20,0,-1,6
1523183209228046,-23,-16,6,25,7,19,-10,-78
1523183209229552,7,-9,-12,112,-5,-18,3,10
1523183209229552,31,20,-2,-30,6,-5,3,63
1523183209242628,-7,-17,36,-6,14,9,5,-9
1523183209242628,53,-13,-13,44,-3,4,14,55
1523183209249143,-54,-20,12,53,14,5,6,-61
1523183209249143,12,17,51,123,18,4,-25,22
1523183209264643,39,28,-15,-89,-18,-7,5,41
1523183209264643,35,-6,18,-63,-20,-4,10,56
1523183209273168,-21,8,20,45,20,1,-6,-87
1523183209273168,-79,-7,-51,-88,-10,-6,-43,-8
1523183209288215,-9,-20,0,58,15,0,-9,-45
1523183209288215,-28,21,39,-23,-10,0,30,75
1523183209289712,111,62,26,-35,0,12,6,53
1523183209289712,-39,-7,-52,-51,-24,-1,12,-73
1523183209302909,-30,-5,30,11,12,-11,-18,-15
1523183209302909,37,4,12,-35,12,4,3,37
1523183209309308,-28,-34,-26,-65,-12,-9,10,4
1523183209309308,12,-4,-43,-46,-15,-1,8,-42
1523183209325851,-6,12,13,-8,12,23,11,-53
1523183209325851,27,15,-21,-31,-4,-8,-3,10
1523183209327311,-33,12,18,8,-2,-1,-6,7
1523183209327311,73,-19,0,-54,-17,0,16,48
1523183209348366,-17,-21,-20,-51,-31,-8,-11,-6
1523183209348366,-96,-32,-41,-31,5,-9,-25,-59
1523183209349871,47,0,14,13,21,0,-3,14
1523183209349871,-5,63,55,-56,9,5,16,36
1523183209362906,31,-20,-30,-67,-25,4,19,53
1523183209362906,-18,-43,-67,-101,-31,-24,-21,-14
1523183209369424,-40,-23,8,66,21,3,10,-33
1523183209369424,-24,44,16,-8,14,-1,-7,-9
1523183209385966,87,-2,-2,-128,-13,14,24,72
1523183209385966,27,15,43,114,10,-11,-31,-63
1523183209387471,-25,-11,-38,-87,-14,-11,2,-27
1523183209387471,39,-19,-6,-19,6,6,39,32
1523183209408037,73,36,18,-70,-8,-5,-39,27
1523183209408037,24,-27,-27,-32,-12,4,10,27
1523183209410037,-54,-3,-19,-32,-15,-9,-13,-35
1523183209410037,12,10,43,127,24,9,-7,-28
1523183209422603,-30,5,-5,16,2,2,17,7
1523183209422603,69,-8,37,61,19,4,8,57
1523183209429582,-8,-32,-46,-128,-43,-3,-10,-10
1523183209429582,-73,-23,34,81,28,-26,-20,-74
1523183209445860,-26,13,1,-50,19,16,3,-5
1523183209445860,8,48,53,13,15,7,17,41
1523183209447131,47,19,16,-100,-6,13,13,65
1523183209447131,-82,-61,-49,3,-29,-20,-28,-78
1523183209468186,-24,-20,23,127,10,-27,5,-37
1523183209468186,37,22,-11,-103,10,35,-1,57
1523183209469691,13,29,9,-74,-19,4,11,60
1523183209469691,-23,-29,15,36,16,-2,18,32
1523183209482261,-57,-4,-31,-89,-15,-12,-18,-76
1523183209482261,-46,-11,-4,80,4,-3,7,-31
1523183209489242,12,-1,36,-21,2,8,0,24
1523183209489242,18,11,-14,32,2,5,8,63
1523183209506020,-34,19,-16,-20,6,-3,-14,-70
1523183209506020,-10,-26,-9,-21,-31,-14,-2,-38
1523183209507290,-25,11,-49,2,9,-4,3,-3
1523183209507290,28,5,-28,-49,0,13,5,-10
1523183209528384,4,26,8,-91,-19,6,19,36
1523183209528384,-92,-21,3,106,12,-22,-61,-95
1523183209529851,-63,-52,17,127,6,-25,-11,-110
1523183209529851,14,-39,8,-83,-17,-3,-5,51
1523183209541927,38,26,-1,-42,-3,4,0,30
1523183209541927,99,-16,11,46,-6,6,25,68
1523183209550905,-13,15,-25,-22,12,7,3,-36
1523183209550905,-4,12,25,-45,-15,-8,-2,-40
1523183209565445,34,27,4,-34,12,12,16,44
1523183209565445,-24,-25,-18,-81,-11,-1,2,6
1523183209567449,14,61,2,-102,5,9,9,13
1523183209567449,11,-81,31,111,4,-13,-37,-19
1523183209588004,-26,-2,-12,20,-2,-14,-17,5
1523183209588004,28,38,1,-78,-4,3,16,-7
1523183209589508,-8,-26,-24,-53,-9,8,-13,-20
1523183209589508,-13,72,-15,43,10,-5,-7,3
1523183209601777,-28,-16,7,35,11,-5,2,-22
1523183209601777,12,-2,32,8,2,-3,-25,27
1523183209610849,67,8,-45,-40,-16,-4,22,54
1523183209610849,14,30,-27,-83,-10,2,8,40
1523183209625891,-49,-47,-8,72,-13,-4,-19,-55
1523183209625891,19,0,-20,35,-6,-17,5,-10
1523183209627428,43,1,69,56,11,7,2,37
1523183209627428,-61,3,-60,-86,-22,-1,5,-28
1523183209647947,14,9,-15,-68,4,9,6,-12
1523183209647947,-9,5,16,12,-3,-20,-11,45
1523183209650182,-24,-29,-23,26,6,9,-8,8
1523183209650182,39,26,81,-5,4,7,8,-3
1523183209662021,-43,-50,-9,34,-17,-4,-8,-71
1523183209662021,2,13,-12,-41,1,-3,1,-11
1523183209671007,13,14,42,-52,4,8,-12,-37
1523183209671007,18,0,7,41,11,7,-15,70
1523183209685547,-10,5,-2,-72,8,-7,-9,-9
1523183209685547,31,17,-5,-120,-17,4,22,-3
1523183209687554,-29,-29,10,127,13,-23,-12,-25
1523183209687554,59,30,2,-75,-8,11,19,25
1523183209708110,8,-14,-20,28,5,6,3,24
1523183209708110,-49,-11,-40,-49,-17,-3,-2,-30
1523183209709728,-56,-23,-16,28,-2,-16,-12,-15
1523183209709728,-8,-22,-13,-18,1,10,8,-11
1523183209721760,50,30,59,81,10,0,6,87
1523183209721760,-43,17,-39,-126,-36,8,9,-76
1523183209730784,-47,-21,-16,72,35,-11,-18,-64
1523183209730784,-11,-9,-4,-41,-6,-12,-30,-43
1523183209745824,-7,3,25,-53,7,2,25,21
1523183209745824,86,8,1,-7,-2,1,-5,46
1523183209747368,-4,4,-1,-32,-23,1,-13,-4
1523183209747368,-27,-10,-20,65,8,-8,-14,0
1523183209768384,20,12,-5,-41,0,10,8,2
1523183209768384,8,35,22,43,20,9,-15,50
1523183209769887,-30,0,-33,-128,-29,8,11,-43
1523183209769887,-37,-34,24,105,41,-26,-19,-70
1523183209781920,9,-39,-17,-97,-32,-11,6,43
1523183209781920,-6,27,19,16,16,-1,-10,26
1523183209790958,7,40,52,17,5,7,8,4
1523183209790958,-21,-27,-68,-128,-15,8,3,-17
1523183209806048,-31,4,3,120,19,0,-10,-28
1523183209806048,-34,-28,-43,-85,-40,-5,12,-1
1523183209807493,26,24,33,43,30,-16,-7,31
1523183209807493,45,16,-1,-107,4,20,17,46
1523183209828043,8,-1,27,127,19,-12,-14,-51
1523183209828043,-27,-27,-24,-119,-10,5,13,19
1523183209829546,40,1,8,-42,-2,6,-23,73
1523183209829546,-75,-3,-27,-46,-18,-10,-3,-57
1523183209842081,18,19,22,39,5,-4,-3,9
1523183209842081,-1,52,5,34,21,14,11,-1
1523183209851231,17,-56,4,6,-3,-6,-3,45
1523183209851231,6,-24,-13,13,-10,5,15,27
1523183209865925,-10,-4,-27,-128,-24,18,5,-7
1523183209865925,-24,8,29,127,22,-42,-30,-59
1523183209867430,40,10,4,25,8,4,-14,40
1523183209867430,-41,-7,-13,-65,-24,-7,-6,-65
1523183209887986,-24,22,-28,-128,-26,14,3,-9
1523183209887986,23,-35,36,69,56,-5,13,-47
1523183209889990,18,16,-17,-112,-11,5,15,-30
1523183209889990,31,17,19,-21,0,-7,-18,88
1523183209902215,4,24,0,-82,-22,-6,5,32
1523183209902215,-19,-63,-14,24,-1,15,10,-11
1523183209918568,-45,-40,-6,63,7,-2,-27,-27
1523183209918568,61,38,45,41,-6,-3,-17,75
1523183209933105,-64,-28,-16,18,8,-12,-14,-38
1523183209933105,-4,20,-12,-101,-16,-4,-11,15
1523183209934608,-19,13,-2,63,-15,-5,11,-21
1523183209934608,11,-4,-1,19,6,12,22,-8
1523183209948182,59,-4,-15,-48,-6,-3,2,63
1523183209948182,-47,-22,-15,-39,-12,3,-5,-57
1523183209949789,-34,3,27,30,30,1,26,-56
1523183209949789,13,18,6,-80,-10,-5,-5,-5
1523183209970804,10,4,3,46,11,-7,-6,10
1523183209970804,32,-16,-8,7,-14,-5,9,37
1523183209972346,44,0,-27,-128,-17,17,23,33
1523183209972346,-75,26,4,52,-5,3,-6,-60
1523183209985844,-59,-36,17,76,33,-6,-19,-37
1523183209985844,27,35,-9,-90,-11,9,17,-28
1523183209987349,35,0,13,-56,-8,-7,-8,93
1523183209987349,13,16,-9,34,0,-5,3,-39
1523183210008406,-51,-23,21,51,5,-2,4,5
1523183210008406,39,12,7,5,5,0,13,10
1523183210009908,9,71,-13,-71,-17,-1,-16,-9
1523183210009908,22,-52,-1,71,1,-1,9,10
1523183210030462,31,-22,-15,-15,-2,-9,-15,-1
1523183210030462,38,33,31,37,3,-3,4,65
1523183210032492,-45,-17,-29,-116,-6,15,27,-8
1523183210032492,-47,14,28,83,10,-15,-35,-65
1523183210045739,27,-19,9,53,4,5,3,-52
1523183210045739,31,1,12,-78,-4,1,-4,80
1523183210047509,38,11,-24,23,-19,2,18,15
1523183210047509,16,-3,12,-8,1,-5,7,12
1523183210068062,9,17,-6,39,17,3,7,-6
1523183210068062,22,-13,20,-22,-9,-1,-11,-22
1523183210069566,-6,-8,-12,-19,-11,-12,-1,-5
1523183210069566,-5,-4,7,-34,7,12,10,9
1523183210090635,-65,15,-42,-108,-21,-4,-8,1
1523183210090635,-81,-4,-13,-31,3,17,5,-13
1523183210092139,-60,-21,57,127,22,-19,-18,-56
1523183210092139,-2,3,-4,-49,-9,-6,9,39
1523183210105674,12,38,14,-33,-7,-3,31,26
1523183210105674,-36,-16,-11,-20,10,17,-28,-34
1523183210107185,-27,9,-32,-109,-26,13,20,-38
1523183210107185,9,-26,51,83,30,-7,-31,54
1523183210128237,13,8,0,3,-26,-12,-13,-15
1523183210128237,-5,12,-5,-3,12,-11,8,-27
1523183210129739,73,-6,-16,-30,-3,4,-4,-3
1523183210129739,14,-30,-35,-81,-17,1,5,24
1523183210151030,59,-5,-24,-6,-2,2,-5,29
1523183210151030,-60,-7,-9,-43,-22,7,3,-32
1523183210152299,-44,-24,26,111,27,-26,-28,-15
1523183210152299,47,25,-10,-78,0,3,15,-9
1523183210164836,-19,-15,20,-43,8,7,-2,17
1523183210164836,-3,32,-7,-45,-12,-8,14,33
1523183210171889,-59,-70,-4,15,0,3,2,17
1523183210171889,-43,-9,-32,81,-13,-4,-8,-44
1523183210187402,-35,-17,-20,-27,9,-7,-17,-16
1523183210187402,20,6,14,-13,-3,0,-3,28
1523183210195914,13,34,4,-6,-9,-1,10,25
1523183210195914,14,10,-23,-112,-2,14,10,5
1523183210210954,-28,-14,15,92,8,-13,-10,-48
1523183210210954,-46,-51,-47,37,1,-3,-23,-38
1523183210212460,48,27,-16,-92,-15,-5,2,18
1523183210212460,24,-17,-12,-60,0,3,11,27
1523183210225035,14,-1,-17,-43,-15,-1,18,14
1523183210225035,24,35,29,59,28,6,-7,25
1523183210232009,-65,-14,-18,32,5,-11,1,-79
1523183210232009,-5,-5,-9,-61,-14,-1,-12,15
1523183210248092,3,24,5,51,6,-1,10,20
1523183210248092,45,-52,-11,-15,9,3,12,-2
1523183210249558,30,29,11,4,-8,10,-12,23
1523183210249558,-47,-8,8,-83,-14,-3,-6,-73
1523183210270613,-5,-8,25,65,7,-18,-20,-39
1523183210270613,19,-13,-13,-82,-8,-3,4,-16
1523183210272117,-1,23,21,-18,13,0,-5,11
1523183210272117,-50,-57,-18,-8,-12,-2,5,6
1523183210285152,2,45,-24,5,1,3,-9,-17
1523183210285152,34,-1,-2,-38,-26,1,-2,31
1523183210291671,-57,29,41,96,19,-7,34,17
1523183210291671,31,20,24,-10,16,7,-15,32
1523183210308227,43,-20,8,-108,-9,20,18,31
1523183210308227,-81,-16,-45,100,9,-27,-25,-81
1523183210309716,-16,10,21,1,-8,-6,-4,9
1523183210309716,-7,2,-4,30,-3,-7,6,5
1523183210330774,-12,14,30,-85,4,7,2,-12
1523183210330774,27,2,27,65,14,13,17,25
1523183210332278,15,-30,-49,-83,-19,-3,-16,1
1523183210332278,39,22,-31,127,1,-9,5,-12
1523183210345358,-28,-42,-7,-66,-4,-10,-15,-13
1523183210345358,-19,6,-5,39,-6,-1,3,-6
1523183210352065,98,27,-25,-84,-20,13,12,5
1523183210352065,-66,-9,36,66,24,-23,-6,-42
1523183210367872,59,12,-6,-37,8,12,-13,49
1523183210367872,20,-10,6,-69,-8,-6,-19,15
1523183210369876,-2,-41,16,93,5,-10,-10,-2
1523183210369876,18,22,-7,-71,-3,9,5,5
1523183210390932,-27,0,8,8,-6,-3,2,-29
1523183210390932,6,19,50,1,11,3,1,6
1523183210392436,46,-3,10,-14,2,6,-2,12
1523183210392436,-17,-16,9,-53,-25,-6,9,7
1523183210405206,-34,4,-25,-37,1,-2,4,-14
1523183210405206,6,24,33,64,13,12,5,35
1523183210411990,46,-41,-17,-33,5,0,3,1
1523183210411990,-47,-70,-26,-11,-5,-4,-7,-69
1523183210428031,-31,5,3,-9,-18,-11,-17,-54
1523183210428031,-1,1,26,2,0,0,9,-2
1523183210430038,5,21,-6,3,7,3,-24,36
1523183210430038,-26,-14,-10,22,8,2,9,-21
1523183210450827,2,2,-4,-70,-11,2,-10,41
1523183210450827,-35,-9,-12,72,-11,-19,-2,-28
1523183210452784,9,-4,0,15,5,2,-3,51
1523183210452784,67,27,42,-21,7,13,11,38
1523183210473155,0,11,-16,-31,-4,4,17,36
1523183210473155,30,18,-27,-114,-10,-1,3,-10
1523183210474656,-93,29,7,53,4,-15,-18,-77
1523183210474656,-5,0,21,1,-14,0,-4,-9
1523183210488190,79,11,34,64,25,21,24,53
1523183210488190,-16,-18,-41,-89,-22,-5,13,-6
1523183210489697,-61,-38,-28,11,-4,-16,-17,-58
1523183210489697,30,62,35,-28,1,-4,-6,11
1523183210510751,0,-23,3,53,8,-5,-2,-7
1523183210510751,43,19,-53,-74,-11,3,7,46
1523183210512257,47,-41,-9,4,4,7,4,5
1523183210512257,5,23,-14,-17,-13,-2,-2,-13
1523183210524330,13,-23,24,50,7,-4,4,16
1523183210524330,31,6,31,116,6,-14,-12,2
1523183210533335,-26,24,-12,-111,-19,0,4,10
1523183210533335,62,-15,-52,-32,-4,4,5,32
1523183210547915,-49,-2,18,-21,-5,-12,-15,-67
1523183210547915,-109,-35,-9,-60,3,-9,-19,-54
1523183210549917,24,15,23,-128,-4,12,15,32
1523183210549917,1,-10,-45,-44,-11,15,17,48
1523183210571060,-46,2,-2,66,48,-3,-3,-38
1523183210571060,1,9,8,-53,-32,-6,-16,-18
1523183210572477,-17,0,0,59,27,9,12,11
1523183210572477,55,21,10,18,-28,-5,-1,22
1523183210584470,2,-14,14,-1,-1,3,3,21
1523183210584470,-57,-32,-18,-2,4,-6,-7,-11
1523183210593494,-14,-7,-39,-128,-33,-5,1,-12
1523183210593494,-55,32,37,73,29,2,-7,-9
1523183210608033,-53,-1,-39,6,-5,-2,-6,2
1523183210608033,54,13,8,-62,-7,-2,0,29
1523183210609535,-93,-58,23,101,8,-2,-8,-97
1523183210609535,-49,1,-1,67,34,4,-5,-42
1523183210630593,15,-7,-10,-113,-32,4,21,1
1523183210630593,22,18,20,-15,2,-1,-20,40
1523183210632097,35,16,2,9,-20,-1,14,35
1523183210632097,-31,-45,-16,62,28,-3,-16,-62
1523183210644129,34,12,40,26,4,5,10,-19
1523183210644129,31,3,-47,-5,-3,3,7,6
1523183210653751,39,38,7,-70,-2,-6,-2,52
1523183210653751,17,12,-43,-128,-14,14,7,-12
1523183210668192,-42,-63,60,99,5,-42,-40,-44
1523183210668192,-19,-16,-32,-80,2,-3,-1,-25
1523183210669697,-2,18,51,-61,5,5,-2,28
1523183210669697,80,4,-41,-98,-7,3,17,67
1523183210690754,-62,18,-25,12,-1,4,-9,-54
1523183210690754,12,-6,27,25,1,2,4,-14
1523183210692256,-20,-37,-25,85,13,1,-4,-19
1523183210692256,-25,30,48,13,4,9,19,54
1523183210704530,127,16,33,-42,-10,7,5,87
1523183210704530,-9,-26,25,46,-1,-1,9,20
1523183210713351,-49,-26,-35,-126,-28,-6,-9,-6
1523183210713351,-41,26,47,121,29,-16,-22,-41
1523183210727849,-5,-27,-34,-59,-19,1,11,15
1523183210727849,-10,55,-15,-63,23,26,11,7
1523183210729856,92,3,15,33,8,-2,7,45
1523183210729856,-9,-28,14,-41,-21,-12,-12,-8
1523183210750912,-55,-19,-54,35,-16,-5,-10,-30
1523183210750912,43,12,7,20,13,4,13,33
1523183210752917,-30,15,-8,-12,2,-1,-5,-48
1523183210752917,-20,-10,-18,-55,-10,-4,-8,-25
1523183210764448,40,-4,-12,54,-6,-14,-11,9
1523183210764448,9,37,26,15,8,-2,18,40
1523183210773487,18,-48,-7,-26,6,6,-19,25
1523183210773487,-25,17,-44,-98,-27,-7,-14,-22
1523183210788010,5,-2,-38,9,19,13,1,6
1523183210788010,-30,-12,30,117,-1,-15,-18,-46
1523183210790020,61,-3,-14,2,-9,-9,6,-20
1523183210790020,25,13,15,83,9,9,37,78
1523183210810570,39,14,8,-80,-1,5,-1,49
1523183210810570,3,11,3,-81,-20,6,1,-25
1523183210812076,-45,-8,-14,70,4,-20,-11,-21
1523183210812076,20,11,58,97,27,3,5,-6
1523183210824112,27,-2,-15,-107,-2,7,0,-12
1523183210824112,-8,-31,-16,-109,-32,5,0,4
1523183210833633,-15,-14,9,61,9,-2,5,-9
1523183210833633,21,-9,-36,70,1,-12,-8,-6
1523183210848208,-5,67,47,-16,-2,4,12,32
1523183210848208,57,-11,19,-100,-3,13,-3,-40
1523183210850175,-53,-37,-68,50,-5,-18,-27,-71
1523183210850175,15,-26,-7,-24,-16,-15,-4,-5
1523183210870966,-17,-1,-21,-13,32,33,10,-9
1523183210870966,-4,23,38,103,8,-9,-9,36
1523183210872235,25,25,4,-59,3,10,7,-1
1523183210872235,10,-2,37,57,13,-5,-9,2
1523183210884267,44,-4,-47,-128,-41,-13,-7,-1
1523183210884267,-48,-35,-38,104,12,-5,-2,-31
1523183210893291,4,38,38,30,5,4,22,15
1523183210893291,-4,-4,2,-57,-4,10,-1,25
1523183210908363,-28,-69,-65,-38,-11,-3,-17,-55
1523183210908363,-23,-23,-10,-37,-28,-14,-17,-76
1523183210909833,-22,-3,12,4,28,-1,-10,13
1523183210909833,32,-1,5,-128,-8,11,23,51
1523183210930890,-42,15,57,127,13,-4,2,-6
1523183210930890,38,-2,-18,-121,3,7,5,37
1523183210932395,1,-21,-9,72,5,-5,-3,-20
1523183210932395,-7,2,0,-45,-36,-17,-7,-15
1523183210953562,45,23,20,-6,15,32,21,42
1523183210953562,-20,20,-33,16,0,-8,-5,-30
1523183210955165,-3,14,53,-50,1,19,14,24
1523183210955165,-11,-8,-52,-106,-17,-5,-15,-9
1523183210967988,-73,-54,29,99,4,-38,-20,-36
1523183210967988,-10,39,-1,-25,11,-1,2,-17
1523183210970123,26,56,-10,-55,3,19,19,46
1523183210970123,-22,-37,-30,-115,-5,6,-14,-2
1523183210990797,11,2,5,31,-9,-14,-7,20
1523183210990797,-14,-18,-1,77,9,-13,-7,1
1523183210992296,-7,1,-13,-17,-19,-6,1,-7
1523183210992296,34,37,38,-9,10,13,13,15
1523183211013350,11,29,-24,-124,-13,2,4,9
1523183211013350,-44,-64,-1,127,19,-13,-16,-18
1523183211014857,-16,1,15,38,-1,-14,-5,-13
1523183211014857,-45,1,-16,-2,-1,6,-2,-26
1523183211028391,57,23,21,-52,8,15,14,39
1523183211028391,-11,45,16,-25,1,3,12,32
1523183211030397,-10,-43,-28,-63,-30,-12,-20,-37
1523183211030397,-29,-37,15,125,10,-9,-15,-52
1523183211050686,21,24,-15,-5,1,3,10,26
1523183211050686,68,-27,-14,-85,-6,18,19,34
1523183211052458,-11,5,2,79,3,-24,-33,-40
1523183211052458,7,-4,42,45,5,-8,-1,13
1523183211073014,-16,-9,-36,-81,-25,6,11,-14
1523183211073014,35,20,41,113,24,2,-6,35
1523183211075015,12,2,0,6,6,4,4,32
1523183211075015,1,-12,34,-12,3,4,3,-20
1523183211087548,-21,24,2,-14,-22,-11,-11,-15
1523183211087548,33,-4,-11,22,20,10,9,17
1523183211094784,-25,-22,20,52,-7,-23,-10,-15
1523183211094784,-17,10,-18,-32,14,8,6,-1
1523183211110612,0,-16,-10,-69,-17,-6,-5,7
1523183211110612,6,16,-42,-66,-14,2,4,23
1523183211112113,-8,8,16,-111,-4,19,11,3
1523183211112113,-29,-5,19,29,9,-17,-7,-29
1523183211133202,2,-14,12,49,8,-3,-9,-13
1523183211133202,-42,-1,22,-9,-6,-7,-11,2
1523183211134164,51,-14,-26,-59,-5,3,0,64
1523183211134164,61,34,-33,-80,-23,5,9,12
1523183211147434,-21,-12,8,116,17,-14,-12,-44
1523183211147434,-8,-19,47,49,22,3,0,-12
1523183211154455,45,33,-33,-34,-18,3,11,3
1523183211154455,-21,-15,-4,-70,-13,8,1,0
1523183211171000,-49,-10,-38,112,5,-20,-20,-51
1523183211171000,-1,18,4,-89,-21,-4,2,-9
1523183211172325,9,22,34,51,13,11,5,13
1523183211172325,22,0,-23,-51,-1,-1,1,26
1523183211193380,21,35,31,22,13,6,15,50
1523183211193380,-23,-12,-3,-86,-28,11,9,-19
1523183211194384,-81,-74,-46,13,16,8,-26,-92
1523183211194384,-13,26,21,0,5,-11,-2,81
1523183211215440,-8,-21,-61,-2,-10,-3,-1,-18
1523183211215440,-76,-50,37,22,-8,-14,7,-36
1523183211217446,29,43,-66,-106,-10,8,-1,64
1523183211217446,49,9,5,82,14,4,0,-26
1523183211230520,-57,-24,-13,-128,-26,1,-12,-7
1523183211230520,-7,14,2,96,22,-12,-2,-14
1523183211232485,-22,-2,19,-69,-6,1,-2,69
1523183211232485,-15,8,-20,-2,2,7,10,26
1523183211253556,50,13,-31,-128,-29,22,26,80
1523183211253556,-73,-63,-1,100,15,-46,-49,-98
1523183211254545,-37,1,-5,-93,6,9,15,-27
1523183211254545,65,11,-10,-80,-7,5,4,10
1523183211267583,-6,20,64,8,14,6,6,17
1523183211267583,-7,21,-39,-125,-18,12,3,11
1523183211274115,-37,7,10,127,-12,-27,-10,-31
1523183211274115,-47,-30,-25,35,6,-8,-1,-15
1523183211290155,-11,17,32,71,27,16,6,30
1523183211290155,-8,0,-39,-100,-17,8,5,24
1523183211292159,19,-4,43,72,8,-12,-1,-24
1523183211292159,-29,-18,-40,-41,-12,-9,-19,-30
1523183211313255,81,-3,46,8,16,2,16,39
1523183211313255,73,16,-47,-128,-17,9,9,80
1523183211314219,-67,-75,5,32,9,-4,-20,-86
1523183211314219,-9,-1,23,51,-1,-4,3,34
1523183211327252,13,2,-32,-119,-15,-8,-23,0
1523183211327252,48,-3,44,117,55,15,10,34
1523183211334271,37,52,-4,-128,-30,8,23,24
1523183211334271,13,-8,23,-20,-2,-10,-6,-31
1523183211350352,-37,3,-7,-54,-17,-10,-3,-35
1523183211350352,13,3,6,-79,-20,0,7,8
1523183211352319,4,1,-9,52,19,14,-2,-5
1523183211352319,19,-7,23,35,-2,-9,-11,-12
1523183211373385,8,60,5,-44,-12,-6,-2,-18
1523183211373385,-1,-13,2,82,39,12,-1,-27
1523183211374386,11,-31,17,-66,-29,-16,0,47
1523183211374386,54,24,-10,-63,-8,6,16,29
1523183211387421,-39,-33,-14,16,11,-9,-13,-51
1523183211387421,-2,0,-18,-43,-22,-13,-22,-19
1523183211394675,74,29,34,-79,2,12,10,34
1523183211394675,-55,-27,12,127,9,-9,-16,37
1523183211410481,101,22,0,-30,1,6,12,10
1523183211410481,-27,-18,-34,-30,-20,0,16,-13
1523183211412487,-6,46,-5,34,11,0,-29,-2
1523183211412487,9,-14,41,71,20,-9,-3,-9
1523183211432541,-41,-45,-42,-38,-16,0,0,-31
1523183211432541,15,-29,10,-49,-11,-12,-18,8
1523183211434546,-23,3,27,-36,-13,-3,13,-1
1523183211434546,12,17,-43,-96,-14,14,12,3
1523183211446577,10,-13,24,122,9,-7,-2,48
1523183211446577,-76,20,13,96,28,-8,-19,-95
1523183211455601,0,10,-49,-110,-27,-3,-3,5
1523183211455601,4,-28,11,-63,14,9,8,-13
1523183211470881,24,-3,29,-40,-1,15,7,10
1523183211470881,62,14,24,6,-17,-6,6,57
1523183211472149,-6,16,-11,58,21,0,6,1
1523183211472149,24,4,-42,-104,-16,1,-4,-39
1523183211493449,-3,-22,12,102,10,-20,-23,-13
1523183211493449,-45,-19,-7,-33,-19,1,-7,-64
1523183211494214,-6,21,24,49,21,-3,22,-40
1523183211494214,35,32,6,-46,-7,6,5,57
1523183211506246,-80,-12,-5,-8,6,6,5,-45
1523183211506246,0,-18,-12,-13,7,1,-17,-33
1523183211515270,-35,-20,-16,-83,-14,-4,2,17
1523183211515270,-19,-2,-17,8,-1,-1,4,-15
1523183211530311,6,32,56,92,24,5,10,39
1523183211530311,-4,-10,13,-30,-3,6,-2,-35
1523183211532317,26,-39,-67,-42,-15,-3,-21,-39
1523183211532317,-9,-1,6,100,15,-7,-10,-9
1523183211553557,15,44,-13,-128,-16,8,13,24
1523183211553557,-13,-3,8,127,9,-11,5,43
1523183211554373,3,-16,-10,14,0,-15,-15,-25
1523183211554373,-45,-29,0,-41,-17,-3,-10,-36
1523183211566916,9,-2,-43,-59,1,-4,1,0
1523183211566916,75,34,-25,-128,-15,16,14,30
1523183211582737,-32,-1,13,-16,-3,3,3,-30
1523183211582737,-6,-15,-7,42,-1,-16,-11,-13
1523183211590761,20,-33,3,-13,-11,-8,0,23
1523183211590761,8,22,-35,-95,-4,2,7,38
1523183211591761,19,2,18,-86,-6,7,10,21
1523183211591761,-44,16,48,99,8,-10,-11,-37
1523183211612855,-8,1,-30,-68,9,6,15,-13
1523183211612855,81,9,22,-43,2,9,8,107
1523183211614861,-65,-27,4,119,3,-5,-17,-73
1523183211614861,-40,-1,-24,-2,-16,-11,-13,-71
1523183211626855,29,-18,-6,30,7,2,10,5
1523183211626855,58,28,20,16,9,3,6,82
1523183211635879,57,26,-12,-103,-27,23,27,47
1523183211635879,-43,-28,-27,34,9,-18,-30,-33
1523183211651061,-80,-48,63,23,-1,-14,-10,-46
1523183211651061,12,4,22,-75,14,11,10,14
1523183211651920,24,-19,-4,-25,-7,4,22,44
1523183211651920,23,-3,34,0,-17,-7,-14,5
1523183211672810,21,31,-8,-28,5,8,-10,-3
1523183211672810,-43,6,34,37,-2,-7,9,33
1523183211674813,93,29,-31,-87,-7,15,7,99
1523183211674813,-99,-44,20,52,38,-28,-40,-79
1523183211686845,-52,-43,-40,-92,-19,-15,-4,-61
1523183211686845,50,12,-1,-111,-18,-9,-35,37
1523183211695869,3,38,17,38,15,-5,9,24
1523183211695869,47,43,2,-63,-4,29,44,93
1523183211709944,11,-35,22,27,4,-3,-28,-39
1523183211709944,-98,-42,-18,86,-7,-12,-1,-99
1523183211711911,5,11,13,6,-3,-9,2,16
1523183211711911,32,-5,-18,-128,-4,31,24,20
1523183211733006,-60,-39,-5,122,20,-20,-22,-32
1523183211733006,-12,17,-10,-90,-17,-2,12,-30
1523183211734974,-14,-12,21,37,25,-12,-23,-13
1523183211734974,6,24,-8,-40,-31,6,13,11
1523183211747009,47,-32,-11,20,7,4,26,25
1523183211747009,12,-23,-2,28,-2,4,-17,31
1523183211756030,17,30,-16,77,9,-11,-16,-63
1523183211756030,45,-23,-13,-24,-10,-9,3,63
1523183211770812,56,59,36,-32,-11,10,30,55
1523183211770812,-15,4,-25,2,-9,-5,-9,-7
1523183211771615,-82,-51,-5,41,24,-14,-27,-100
1523183211771615,-6,-2,-3,21,-9,-9,8,61
1523183211792786,25,66,6,-45,0,9,-2,35
1523183211792786,3,-8,30,20,19,13,18,74
1523183211794791,-20,6,21,-46,-5,10,3,-22
1523183211794791,-15,0,-41,-65,-9,-2,2,-39
1523183211806823,-55,-39,-12,94,10,-13,-3,-32
1523183211806823,13,15,0,11,10,3,-3,-4
1523183211815848,-10,28,-50,-96,-18,-4,-14,40
1523183211815848,-40,-36,40,40,-3,-3,-13,-94
1523183211830887,11,39,-45,-125,-22,9,-4,24
1523183211830887,9,-41,-25,5,-4,-12,-10,-35
1523183211831889,96,-9,26,84,8,-1,25,87
1523183211831889,-55,24,-14,-50,15,12,-32,-98
1523183211860512,-9,14,-2,28,-26,-12,-3,-15
1523183211860512,-47,-11,6,127,21,-9,-15,-29
1523183211862479,60,38,35,-3,2,12,17,53
1523183211862479,27,35,-75,-114,-29,14,27,80
1523183211875056,-61,-66,22,109,29,-12,-16,-39
1523183211875056,-43,25,4,16,-2,-19,-33,-58
1523183211877022,4,-4,28,-62,-1,1,15,3
1523183211877022,77,28,-1,-90,2,12,12,57
1523183211890100,17,24,-6,43,-13,7,0,49
1523183211890100,-2,-43,-5,22,12,4,2,-32
1523183211892061,-68,-46,-13,-1,-7,-15,-16,-63
1523183211892061,25,22,43,32,8,-1,2,34
1523183211913118,46,15,23,-35,7,15,21,-14
1523183211913118,-16,-33,-61,-15,-26,-13,-12,-1
1523183211914159,-29,-24,1,-26,-8,0,-11,-35
1523183211914159,-34,-32,-3,-19,8,4,7,-2
1523183211935176,31,29,21,-18,7,5,2,44
1523183211935176,-2,53,-30,-125,-22,4,20,8
1523183211937183,-64,-61,-51,43,0,-15,-22,-70
1523183211937183,9,-1,-5,62,-14,-18,16,-7
1523183211950451,15,-3,1,-6,14,5,-16,13
1523183211950451,13,9,14,-36,-8,-2,12,-3
1523183211952221,-17,15,-35,-20,-3,7,13,-11
1523183211952221,6,-33,26,13,16,7,-6,-3
1523183211972819,15,5,-10,63,0,-8,-5,38
1523183211972819,44,18,-16,-59,0,0,19,55
1523183211974824,-70,-22,20,82,2,-12,-19,-59
1523183211974824,8,-31,-21,-2,-10,-7,-4,31
1523183211996005,-65,16,-6,-128,-3,7,3,-23
1523183211996005,10,-2,61,127,6,-2,-15,-26
1523183211996882,35,11,9,-39,0,12,12,53
1523183211996882,-41,53,-33,-51,-13,11,5,21
1523183212010918,-5,-26,2,60,18,-14,-23,-31
1523183212010918,-24,-10,5,-85,-1,0,9,-56
1523183212011923,5,29,-4,-38,4,2,-17,58
1523183212011923,103,64,0,-97,-2,11,8,41
1523183212033015,-9,-18,19,52,-19,-13,4,33
1523183212033015,-95,-45,-10,52,6,-5,-16,-65
1523183212034988,16,26,-5,-81,10,8,5,-4
1523183212034988,-5,11,13,47,29,-9,-18,-1
1523183212055043,67,11,-11,-81,-27,3,21,32
1523183212055043,25,-3,14,27,0,4,7,47
1523183212057047,54,-22,7,-4,-5,-3,-5,37
1523183212057047,37,-3,30,37,2,2,13,41
1523183212070319,-26,-15,-23,-10,2,-1,10,-32
1523183212070319,-27,24,-27,-95,-12,5,-9,-46
1523183212076229,28,7,13,65,27,-9,-10,43
1523183212076229,-39,-42,-4,44,-1,-7,10,-23
1523183212093273,-30,3,-8,-37,-1,-4,-40,-52
1523183212093273,18,-8,11,-128,-17,4,11,54
1523183212094323,-29,30,31,-92,-7,12,11,-20
1523183212094323,-43,-38,31,127,23,-24,-25,-74
1523183212115335,27,-10,-26,-94,1,7,14,62
1523183212115335,16,33,33,-63,5,9,18,42
1523183212117337,-39,-5,-29,99,-7,-22,-16,-54
1523183212117337,-24,-41,4,15,1,5,-7,-33
1523183212138394,-11,3,-44,-73,-14,11,-8,-2
1523183212138394,41,22,16,49,3,-5,3,27
1523183212139395,36,6,-36,-12,-10,8,29,38
1523183212139395,-36,-27,3,23,-3,-2,14,15
1523183212153537,-6,-2,4,63,9,-11,-50,6
1523183212153537,-4,3,-6,-4,-3,-2,7,-2
1523183212154435,-1,2,-2,-128,-28,15,14,-16
1523183212154435,-38,-10,21,89,30,-11,-20,-44
1523183212175149,-30,21,26,-82,21,11,27,-11
1523183212175149,-12,-10,-2,3,-10,-10,-15,16
1523183212177115,-73,0,5,-67,-16,0,-6,-46
1523183212177115,4,17,-13,-96,-1,4,10,25
1523183212190389,15,6,3,113,1,-1,2,4
1523183212190389,3,-4,0,11,2,-5,0,8
1523183212196404,-27,-43,9,23,-2,-5,0,-33
1523183212196404,-4,20,-31,-35,3,14,3,-2
1523183212213212,24,3,-7,62,3,0,7,9
1523183212213212,-28,-8,16,74,5,-5,3,-6
1523183212214213,25,9,-3,-16,13,-2,-5,-10
1523183212214213,32,-30,12,-61,-36,-7,10,-30
1523183212235269,-41,8,-11,-45,-8,-1,-38,41
1523183212235269,28,13,-17,19,0,3,-4,-11
1523183212237277,40,-16,-3,-39,2,-8,2,68
1523183212237277,16,23,-2,-71,-5,5,-7,-25
1523183212250349,-18,-32,19,89,-10,-5,12,-29
1523183212250349,-16,-21,0,49,4,-1,-5,-54
1523183212256834,15,5,12,19,1,-8,3,58
1523183212256834,-29,37,-10,-73,3,10,2,72
1523183212273232,20,4,-5,35,-9,-6,-2,-40
1523183212273232,-13,-25,-15,-23,6,2,4,-12
1523183212274189,9,11,-8,6,-3,1,4,-14
1523183212274189,12,9,-4,-25,-14,-3,14,55
1523183212295480,6,19,13,-55,1,6,-9,-33
1523183212295480,19,30,29,43,10,0,1,30
1523183212297289,11,7,12,74,4,1,-3,-5
1523183212297289,-34,-26,7,-71,-21,-12,-19,-100
1523183212309283,7,-22,-38,4,-3,-7,-10,-24
1523183212309283,42,22,-16,-15,1,-1,-1,70
1523183212316302,32,15,6,-10,0,2,-5,42
1523183212316302,-9,22,-22,-10,0,4,-18,-53
1523183212333506,8,-44,3,46,-9,-15,3,-12
1523183212333506,7,-7,-7,-9,10,7,1,-17
1523183212334349,0,6,0,-12,-10,0,6,35
1523183212334349,2,6,9,17,-4,-6,-10,-10
1523183212355407,11,-25,-1,-90,-4,5,3,-27
1523183212355407,-28,16,-7,107,3,-10,3,-22
1523183212357418,1,-10,17,8,26,13,0,11
1523183212357418,25,-46,-4,-7,-11,10,-3,37
1523183212369449,-14,31,-5,-32,-12,-7,3,-12
1523183212369449,11,-11,2,-79,-1,4,1,16
1523183212378502,-21,10,-12,-36,-10,-10,-13,-17
1523183212378502,-55,18,16,127,24,8,6,-54
1523183212393542,-41,-34,-7,-44,5,-7,-23,-32
1523183212393542,-8,15,-28,-78,-15,-6,-10,-40
1523183212394544,48,13,10,-5,0,4,-2,54
1523183212394544,-10,-22,30,4,11,6,26,32
1523183212415602,-47,-18,-42,-89,-18,-3,-14,-55
1523183212415602,-3,2,18,53,2,-3,3,-20
1523183212417607,-11,-39,-6,25,1,2,-1,-26
1523183212417607,22,-6,31,58,9,-3,7,20
1523183212428635,102,34,15,-80,-2,6,8,43
1523183212428635,-11,-11,7,65,10,0,-4,2
1523183212438665,4,-2,-22,-50,-15,0,5,-10
1523183212438665,-9,1,2,-13,-8,-19,-22,-16
1523183212452935,6,26,-20,-92,-10,3,29,39
1523183212452935,-19,-15,11,63,11,18,5,-4
1523183212454705,54,-27,15,73,2,-7,-10,-30
1523183212454705,-19,-4,-30,-33,-13,-12,-11,41
1523183212475324,-62,3,24,0,4,-6,-5,-20
1523183212475324,-12,10,-13,-5,-8,5,12,-37
1523183212477330,-19,22,6,19,-6,-1,-10,-6
1523183212477330,24,-14,-38,-14,1,-4,-9,19
1523183212489364,66,11,14,55,-11,-9,4,23
1523183212489364,-58,-33,-27,-53,-7,-14,0,6
1523183212498424,0,-32,-1,-25,0,2,-11,-3
1523183212498424,43,31,-17,29,-2,1,5,30
1523183212512447,1,27,19,15,8,7,7,32
1523183212512447,21,-24,-15,-76,-9,4,1,-1
1523183212514429,-55,-27,-53,-11,-12,-14,-5,-55
1523183212514429,-12,-14,-8,-119,-13,-9,-2,-33
1523183212534482,-15,-3,27,127,12,15,3,27
1523183212534482,34,26,9,-21,4,4,5,1
1523183212535484,-5,30,1,-76,1,3,2,24
1523183212535484,35,-10,27,127,8,-5,-22,-12
1523183212557548,-55,-17,-26,-67,-5,-14,0,-23
1523183212557548,4,2,15,47,-7,-3,-20,-9
1523183212558048,-7,33,37,20,19,7,12,44
1523183212558048,62,-22,-41,-9,-1,4,-8,0
1523183212572588,-9,18,-20,-96,-11,4,3,24
1523183212572588,-45,-54,12,55,12,-6,-11,3
1523183212572588,-64,-27,-26,-17,-2,-2,8,-13
1523183212572588,-20,32,11,-105,-5,1,-4,-27
1523183212594653,-40,14,-4,53,9,2,29,50
1523183212594653,-20,11,5,2,-7,-11,-4,-1
1523183212595657,71,5,-11,21,-10,1,8,9
1523183212595657,-14,-14,9,-25,-1,-3,-3,52
1523183212617715,-47,9,-19,-93,-22,-8,-22,-110
1523183212617715,15,-31,8,70,25,8,16,36
1523183212618718,-24,-14,12,23,11,4,1,40
1523183212618718,78,40,-20,-79,15,15,25,37
1523183212631797,15,-33,-1,108,-42,-20,-14,18
1523183212631797,7,29,-13,-84,-13,-20,3,-16
1523183212632754,-10,-32,-5,-50,-6,5,-3,-8
1523183212632754,-27,2,-16,4,6,4,13,8
1523183212654813,14,6,29,-82,4,1,4,-6
1523183212654813,-12,-18,-2,53,1,7,-23,-33
1523183212655816,-25,0,7,101,10,-19,-22,-18
1523183212655816,-15,27,14,38,-5,2,6,-22
1523183212676851,69,-34,2,6,13,10,16,103
1523183212676851,27,45,21,-26,-7,-9,1,-15
1523183212677814,-40,-29,-18,-70,-28,-13,-21,-11
1523183212677814,-6,-2,-15,26,5,8,-22,-9
1523183212691891,37,11,43,58,15,4,12,10
1523183212691891,7,20,-11,-94,0,6,-6,24
1523183212692855,25,-10,-4,87,-7,-17,4,4
1523183212692855,-29,-7,10,-57,-10,0,11,-23
1523183212714913,-14,-35,-55,-102,-7,7,9,-17
1523183212714913,17,47,15,19,18,-3,-17,35
1523183212715917,33,15,28,4,-3,-4,14,82
1523183212715917,-26,-16,28,-23,-11,-8,-12,-26
1523183212736973,64,14,-14,-103,6,12,2,-32
1523183212736973,-43,-16,-11,51,-11,-17,-3,-43
1523183212737977,-2,-5,-22,5,0,1,0,8
1523183212737977,26,27,5,4,0,-1,2,31
1523183212752012,-7,-16,28,-40,5,6,1,11
1523183212752012,-29,-29,-38,-8,-9,6,14,-29
1523183212753015,11,12,24,42,16,7,10,-44
1523183212753015,16,-2,-1,18,4,0,6,-19
1523183212775095,-82,2,-13,65,-2,-10,13,-3
1523183212775095,2,-11,16,-112,-14,10,-27,7
1523183212775095,-4,6,17,62,7,-3,4,-64
1523183212775095,-35,-20,-23,-15,-12,-22,-8,4
1523183212797192,54,30,31,72,14,0,-3,10
1523183212797192,26,-10,65,-4,2,24,19,20
1523183212798156,-50,-14,-100,-128,-31,-3,-12,-33
1523183212798156,-42,-13,27,127,9,-14,-7,-55
1523183212812194,25,25,-11,29,4,-2,-14,41
1523183212812194,24,-6,-7,-55,-6,-5,7,21
1523183212813196,61,27,31,-41,1,11,7,30
1523183212813196,4,30,-18,-124,-21,-3,-1,-7
1523183212834251,-69,-97,-7,118,14,-14,-21,-102
1523183212834251,-4,-15,-24,-61,-12,-12,-7,-13
1523183212835254,20,13,19,-9,1,2,-9,9
1523183212835254,32,-22,1,-35,12,18,10,31
1523183212857356,1,50,24,19,-5,-2,-6,4
1523183212857356,-51,8,20,-41,7,11,24,-28
1523183212858365,35,-21,41,104,1,-20,-33,24
1523183212858365,26,29,48,-3,0,3,5,62
1523183212881021,-18,29,-19,-55,1,2,-2,-29
1523183212881021,-26,-51,-25,79,-5,-12,-7,-7
1523183212881021,-108,-25,-23,-24,6,13,-2,-71
1523183212881021,19,19,6,25,1,0,1,20
1523183212895109,41,-2,12,-10,8,1,1,28
1523183212895109,19,32,-8,5,-11,-19,-12,25
1523183212895109,28,17,-2,-88,-5,4,12,6
1523183212895109,-11,-22,-25,-10,6,8,6,30
1523183212917175,42,42,13,-38,2,7,25,45
1523183212917175,-40,-58,-15,18,-14,-16,22,-55
1523183212918171,-85,-6,-24,-15,0,-1,-32,-96
1523183212918171,-13,-15,-25,-70,-15,-3,-4,-16
1523183212932443,12,12,-7,57,0,-6,-12,37
1523183212932443,42,43,8,16,14,7,8,35
1523183212933211,10,32,24,17,7,3,18,25
1523183212933211,-13,-48,-1,-27,3,2,6,-16
1523183212954322,-16,12,-46,-50,-14,-7,-16,14
1523183212954322,8,0,-3,-37,-5,0,-7,-8
1523183212955270,-5,14,2,46,4,-12,1,-22
1523183212955270,-11,9,0,17,3,11,-9,-12
1523183212976837,13,-17,12,6,5,2,5,-10
1523183212976837,14,23,14,-10,7,6,-9,45
1523183212977840,7,-10,-21,-128,-28,-6,-8,14
1523183212977840,-22,-20,8,127,13,-10,20,-21
1523183212991879,-68,-31,18,59,9,-6,-11,-21
1523183212991879,31,20,-23,-60,-1,7,0,11
1523183212992914,25,8,5,-43,6,13,21,43
1523183212992914,-4,3,-25,48,-1,-9,-9,-33
1523183213014939,-27,-10,39,67,-1,-18,-34,44
1523183213014939,19,-1,-20,-28,-3,1,-1,3
1523183213015942,0,-15,-13,-2,-11,-4,10,9
1523183213015942,29,-1,37,-8,13,4,-8,8
1523183213037235,30,7,-27,-128,-20,30,25,-1
1523183213037235,-34,0,23,99,22,-17,-9,-70
1523183213038000,-1,26,43,-54,15,0,-49,-9
1523183213038000,81,-5,-12,-98,-6,-3,0,62
1523183213052038,-76,-4,0,-46,-2,2,0,-66
1523183213052038,-24,-6,-43,-37,-33,-7,-24,-42
1523183213053039,19,21,-8,-31,1,0,32,18
1523183213053039,7,27,14,74,3,-4,0,25
1523183213075032,8,-3,7,17,19,-8,-11,-17
1523183213075032,-16,-2,0,-45,-1,17,12,-9
1523183213075032,-1,-33,14,5,-5,-8,3,17
1523183213075032,43,-8,-22,-33,-15,-5,-13,-32
1523183213097119,-21,-35,-20,3,8,-1,10,-2
1523183213097119,-44,15,-13,-4,-8,-13,-18,-3
1523183213098092,6,-12,-7,-103,-12,13,51,30
1523183213098092,-20,11,-3,86,18,2,-21,-49
1523183213112128,5,-15,1,-16,-14,-14,-14,-32
1523183213112128,77,9,7,-64,0,0,6,52
1523183213113133,24,15,18,35,6,4,-1,3
1523183213113133,-30,-6,-55,-124,-17,-7,12,-23
1523183213135192,11,12,33,54,22,12,4,-18
1523183213135192,-36,2,8,-11,-11,-1,-2,15
1523183213135192,42,18,-12,-44,6,1,-1,7
1523183213135192,-23,6,16,71,12,-5,-3,-4
1523183213157248,-24,-86,-19,42,-12,-8,-9,-30
1523183213157248,-12,-6,-20,-54,-10,-4,-6,7
1523183213158256,-28,-5,2,13,1,5,8,-11
1523183213158256,-20,20,16,-67,4,2,-7,8
1523183213172296,15,10,-9,-32,-11,2,-3,11
1523183213172296,56,-7,3,-44,0,20,38,41
1523183213173296,79,-20,8,73,15,-15,-60,5
1523183213173296,-33,0,0,-64,-6,-2,2,-5
1523183213194358,-2,34,-1,-25,1,-8,-5,-13
1523183213194358,-15,-77,-8,-44,-16,-8,10,-2
1523183213195360,-8,-3,-27,56,-9,-1,1,-15
1523183213195360,-41,-20,19,36,4,1,-4,-13
1523183213217419,65,34,-20,-113,-8,7,8,14
1523183213217419,-6,12,5,127,11,-9,-10,22
1523183213218422,-38,-15,30,39,-3,0,-10,-21
1523183213218422,-8,-19,-42,-80,-20,-10,-6,16
1523183213232460,18,25,-29,-10,-7,-2,12,22
1523183213232460,5,16,0,-26,3,3,-5,-35
1523183213233487,-39,-21,-18,37,4,-2,-1,-42
1523183213233487,2,13,9,3,-9,-2,-1,-8
1523183213254518,17,13,14,6,5,6,19,17
1523183213254518,-6,36,-1,-108,2,5,-17,50
1523183213255522,-28,-49,30,114,11,-18,-15,-38
1523183213255522,-16,-21,-17,-62,-22,-6,-2,21
1523183213277682,73,34,7,-35,10,11,6,65
1523183213277682,-47,-15,11,58,10,0,3,-49
1523183213277682,-98,16,-16,-91,-13,-9,-23,-88
1523183213277682,10,-28,-20,19,7,3,-6,-12
1523183213292717,11,-11,-5,4,-10,-9,12,61
1523183213292717,74,34,19,0,-5,4,16,51
1523183213292717,-45,5,-19,45,12,6,-5,-54
1523183213292717,5,5,-15,-57,-9,2,-2,-23
1523183213314774,-15,-4,46,103,14,-7,-24,-28
1523183213314774,14,12,-3,-38,0,-4,-3,5
1523183213315780,35,14,12,-2,-1,9,15,27
1523183213315780,7,-28,-7,-63,10,-3,1,77
1523183213337074,-29,-7,-15,34,-29,-23,-33,-39
1523183213337074,-4,0,-16,43,-2,-5,-9,2
1523183213337837,-12,19,-13,-92,1,18,6,32
1523183213337837,-8,21,1,44,-6,1,44,-34
1523183213351874,-31,-7,22,48,7,-6,-60,-1
1523183213351874,35,-39,-27,-40,-18,-9,0,54
1523183213352918,22,2,-36,-89,-8,0,18,-25
1523183213352918,-2,10,41,49,9,3,38,3
1523183213374949,8,-20,-7,-51,8,4,12,39
1523183213374949,-36,2,8,5,8,1,-9,-80
1523183213375950,25,25,11,-44,-3,7,-8,-1
1523183213375950,12,-31,0,18,-2,8,21,54
1523183213397006,-21,-13,20,-22,-1,-10,14,-42
1523183213397006,15,6,0,-29,-7,-6,3,28
1523183213398014,15,0,31,18,0,1,-1,12
1523183213398014,-2,14,4,125,26,6,-24,-27
1523183213420302,-10,3,18,30,10,4,13,-6
1523183213420302,21,-17,5,-25,1,2,2,0
1523183213421072,-18,4,7,-8,-11,-15,27,-14
1523183213421072,17,-21,44,-36,-4,5,-27,13
1523183213435108,-30,-16,-58,-103,-14,8,9,-26
1523183213435108,3,-10,-19,108,-8,-17,-1,-37
1523183213435108,23,-1,-8,34,-3,-11,6,25
1523183213435108,21,31,4,-22,4,6,-12,-3
1523183213457670,31,26,5,-25,0,5,23,-26
1523183213457670,2,6,3,-67,2,8,10,50
1523183213458172,14,-53,-3,51,2,-7,-26,24
1523183213458172,-52,-4,-14,-25,-21,-27,-35,-71
1523183213471712,-8,-16,5,1,8,9,12,-21
1523183213471712,-27,19,4,-49,11,11,7,-25
1523183213480368,57,13,-9,44,3,5,8,59
1523183213480368,5,-38,39,-28,4,-4,-1,46
1523183213494274,-40,-8,-60,-52,-20,-7,-6,-67
1523183213494274,-27,6,20,-12,1,-3,-2,6
1523183213495276,9,20,-49,-55,2,11,1,2
1523183213495276,21,17,-15,24,2,-4,21,-15
1523183213525399,57,43,14,-16,7,10,-18,59
1523183213525399,-24,-46,1,48,2,-13,-17,-30
1523183213526359,-25,13,-15,-45,-15,-9,5,-15
1523183213526359,68,37,-34,-92,-17,5,-7,-1
1523183213531372,-79,-46,68,77,35,-10,-9,-53
1523183213531372,13,9,-27,-86,-11,-5,-24,-89
1523183213539394,15,-4,25,5,12,9,23,76
1523183213539394,26,14,-24,-99,-10,4,-9,16
1523183213554434,46,41,7,-5,-7,1,10,31
1523183213554434,-35,0,32,107,21,-4,-16,-35
1523183213555436,-31,-66,-21,11,-9,-13,-14,-60
1523183213555436,-9,9,-14,-80,-18,2,18,7
1523183213576508,22,3,-13,-81,6,6,-14,37
1523183213576508,-43,6,12,113,21,1,-10,-21
1523183213584531,14,36,1,-71,-9,-3,3,73
1523183213584531,10,-18,18,34,-4,-10,-26,15
1523183213591547,1,-5,-24,-25,-20,-3,7,3
1523183213591547,0,14,-14,-45,-5,5,31,39
1523183213599620,-2,8,30,5,10,2,-38,-46
1523183213599620,-19,-15,-7,13,5,-2,-4,-16
1523183213614661,-14,-38,-6,73,-6,-12,9,12
1523183213614661,35,22,-5,-27,-8,-1,4,11
1523183213615664,13,37,26,-25,5,10,20,6
1523183213615664,-75,-59,-47,36,-7,-13,-6,5
1523183213637734,-44,11,-2,-25,3,1,-43,-19
1523183213637734,6,-20,-26,-64,-13,0,-7,7
1523183213637734,17,12,16,44,6,-2,5,18
1523183213637734,12,33,20,50,7,1,15,-17
1523183213651759,-13,-19,-27,-85,0,-2,-15,51
1523183213651759,33,53,13,1,-18,-2,-15,9
1523183213659791,-33,-67,30,43,11,11,8,-81
1523183213659791,63,13,-1,-25,-10,-10,-7,20
1523183213674937,1,-5,1,45,-4,-10,6,-15
1523183213674937,46,39,29,-43,1,4,14,28
1523183213675940,-39,-29,-52,-85,-11,-3,-9,35
1523183213675940,-30,2,24,75,4,-5,-19,-32
1523183213697032,32,29,4,-10,1,7,11,3
1523183213697032,-13,0,-19,-79,-2,8,-3,-14
1523183213697997,-24,-49,9,104,2,-21,-3,-81
1523183213697997,-73,-7,-27,-57,12,0,-7,-13
1523183213712033,37,17,9,-27,-4,2,17,38
1523183213712033,-16,9,23,5,0,1,17,44
1523183213720291,-3,15,-2,-55,-3,3,9,-31
1523183213720291,15,-13,45,-34,7,12,-2,48
1523183213735334,32,51,13,-12,-4,-1,8,-14
1523183213735334,17,-26,37,97,13,-2,-6,-43
1523183213735334,-9,-13,-6,97,-16,-14,-5,10
1523183213735334,43,28,9,-1,4,14,1,23
1523183213757657,-35,-14,-21,-74,-16,-4,0,-2
1523183213757657,-40,-56,-19,-84,-3,-7,-32,-60
1523183213758159,-13,-6,-6,49,5,-13,18,21
1523183213758159,-14,27,9,19,7,12,14,-17
1523183213780970,24,0,25,57,8,10,12,16
1523183213780970,-17,10,-14,-23,-7,-1,-15,12
1523183213780970,24,15,-11,-97,-14,-2,1,14
1523183213780970,-27,16,52,104,9,-8,1,-57
1523183213803259,-48,-42,-54,72,4,-3,-12,-82
1523183213803259,64,-8,11,-11,-2,3,-4,104
1523183213804030,70,47,15,-85,0,16,28,74
1523183213804030,-97,-74,-19,43,-16,-23,-71,-71
1523183213817075,-26,-19,19,-4,3,-7,-8,-50
1523183213817075,-5,-1,-22,41,1,-8,9,-47
1523183213818065,62,31,-42,-63,-4,21,12,35
1523183213818065,32,42,26,-68,10,19,43,51
1523183213840129,-52,-53,32,110,-2,-22,-40,-75
1523183213840129,2,-62,-77,32,4,-1,-23,13
1523183213841127,30,25,42,71,27,-1,-6,23
1523183213841127,-7,20,-22,7,-39,-12,15,-85
1523183213855162,21,18,9,-87,-9,-1,-16,44
1523183213855162,11,8,11,-14,6,18,8,15
1523183213855162,-10,-2,29,114,16,-7,-8,-18
1523183213855162,-25,-33,-42,-87,1,3,-3,-17
1523183213876776,9,7,49,33,1,-8,3,9
1523183213876776,14,-58,-53,66,10,-5,7,-7
1523183213877776,-36,-5,0,63,-27,-18,-1,-77
1523183213877776,110,36,-6,-62,14,15,28,127
1523183213900836,-3,22,-37,-100,-18,0,-17,6
1523183213900836,-27,7,-17,-125,-15,12,1,-63
1523183213901853,-74,-46,34,66,16,-31,-31,-84
1523183213901853,1,0,-25,-63,-9,-13,1,62
1523183213914874,16,34,12,-97,11,19,22,25
1523183213914874,-24,54,5,-8,-14,-6,-2,29
1523183213915877,-9,9,-78,-74,-9,-1,-21,-24
1523183213915877,6,3,50,39,1,-3,-15,39
1523183213936933,57,-50,15,34,10,-2,24,112
1523183213936933,-75,-8,6,-11,-11,-8,-8,-72
1523183213937937,-46,3,-33,-32,-19,-13,-36,-58
1523183213937937,-33,9,-15,32,10,0,-12,-22
1523183213960501,48,55,-12,75,15,15,23,57
1523183213960501,23,40,48,-62,-33,12,27,17
1523183213961505,9,-55,47,74,43,-5,-1,25
1523183213961505,-59,-21,-35,-28,-10,-14,-19,-50
1523183213974826,35,5,7,-90,-15,6,3,38
1523183213974826,51,63,5,-23,5,-1,21,48
1523183213975831,-4,22,-40,-128,-20,18,17,22
1523183213975831,-38,-75,-29,86,-2,-23,-22,-73
1523183213996888,-53,-20,-23,-12,-2,-16,-1,-26
1523183213996888,58,-9,22,-26,10,-2,-6,64
1523183213997888,15,79,-30,-128,-4,19,16,75
1523183213997888,-26,-23,33,59,-23,-24,-19,-82
1523183214020082,-73,-74,-34,-41,4,-16,7,-100
1523183214020082,-18,-2,-32,-85,5,6,-2,5
1523183214020952,49,31,67,-42,4,7,-4,55
1523183214020952,-19,14,-70,-117,-20,7,17,-30
1523183214034987,4,18,15,59,1,4,-2,-27
1523183214034987,-92,-37,8,62,0,-17,-6,-76
1523183214034987,50,37,11,12,5,15,8,100
1523183214034987,60,33,15,17,2,4,0,40
1523183214057550,-48,-44,-35,-102,-10,-6,3,-54
1523183214057550,30,9,-3,94,17,10,-33,-16
1523183214058052,-14,-8,11,-7,-28,-24,-6,-20
1523183214058052,20,-16,49,-43,40,17,4,-62
1523183214081354,106,14,-21,-69,6,10,25,86
1523183214081354,-20,21,13,-46,-25,-12,-18,3
1523183214081354,-38,-78,-14,-59,-1,13,-9,-66
1523183214081354,12,39,-11,9,2,1,8,23
1523183214095154,-11,-64,29,55,-29,-5,-16,-42
1523183214095154,27,13,10,-61,19,3,26,86
1523183214095154,1,-16,-25,-81,-6,-2,-3,-27
1523183214095154,20,52,27,-42,7,4,3,46
1523183214117449,-22,-14,18,1,3,8,-2,-40
1523183214117449,-13,-68,-5,31,-9,-8,3,-20
1523183214118258,-15,-5,13,-1,-24,-6,9,25
1523183214118258,14,-6,20,43,35,20,20,28
1523183214140275,26,127,-23,7,-12,-18,-15,39
1523183214140275,-41,-99,-3,-20,25,-4,9,11
1523183214141279,-45,-88,-10,-69,-20,12,-7,-63
1523183214141279,3,-16,35,30,-4,-9,-16,2
1523183214154314,-83,20,-63,-53,-14,-7,8,41
1523183214154314,55,49,26,20,11,-7,0,-12
1523183214155316,22,24,9,-18,-3,-2,9,32
1523183214155316,-30,-13,-53,-115,-24,8,-7,-45
1523183214177414,25,-55,26,127,28,-5,-10,-16
1523183214177414,14,35,30,46,3,0,5,9
1523183214178182,26,14,-66,-27,7,-5,0,28
1523183214178182,-16,-15,33,111,7,-1,17,-29
1523183214200241,60,38,-63,-128,-32,11,4,3
1523183214200241,-109,-47,17,15,-16,-17,0,-66
1523183214201248,10,65,19,17,33,10,-29,-41
1523183214201248,37,-20,17,64,-4,-11,6,28
1523183214214278,-21,-49,2,-112,-2,9,-2,85
1523183214214278,30,31,-37,-5,-1,-4,-35,9
1523183214215281,-41,7,28,2,10,-4,4,-46
1523183214215281,0,21,-68,-122,-27,5,10,-9
1523183214237343,-28,5,16,16,-10,-11,-7,-24
1523183214237343,58,-71,-10,-18,3,0,9,24
1523183214238345,-6,-14,35,78,13,0,1,19
1523183214238345,-9,-11,-71,-123,-57,-8,-8,-1
1523183214260407,-11,24,93,127,62,-10,1,-63
1523183214260407,-12,11,-12,-128,-9,18,15,-32
1523183214261410,36,31,23,-54,-2,6,11,38
1523183214261410,11,-24,-55,-48,-22,-9,-7,25
1523183214274340,-45,-14,2,78,5,-10,-15,-79
1523183214274340,-24,47,-17,-60,-5,6,8,46
1523183214275300,-27,-45,12,119,27,9,23,18
1523183214275300,38,32,28,-122,-27,6,3,24
1523183214297360,-26,-18,51,71,22,-10,-20,-17
1523183214297360,-20,4,19,22,7,-8,0,-45
1523183214298363,63,10,-37,-105,-9,6,15,40
1523183214298363,-24,-2,20,38,25,6,-7,18
1523183214320422,-18,-16,-63,-110,-26,5,-19,-49
1523183214320422,10,17,66,78,18,-8,7,-19
1523183214321424,-3,1,17,-22,-7,-5,-6,52
1523183214321424,34,3,-7,-97,-8,5,10,39
1523183214334696,-36,-5,-31,40,13,-4,-6,-21
1523183214334696,5,-7,29,38,0,16,55,-61
1523183214335460,-13,10,-4,72,5,-15,-51,-5
1523183214335460,34,20,11,-63,-11,6,16,30
1523183214357518,-52,4,3,26,-4,1,20,-66
1523183214357518,-7,-23,-2,71,15,-8,-14,10
1523183214358024,83,26,-29,-69,3,2,22,33
1523183214358024,-46,-17,9,13,28,8,5,-23
1523183214380865,22,-3,29,63,0,4,-5,-54
1523183214380865,4,-18,-75,-89,-28,-8,20,43
1523183214380865,-28,11,-2,-50,-19,-7,-7,-14
1523183214380865,10,-22,40,46,28,-2,-19,22
1523183214393659,-8,-6,-8,-97,-30,-1,-3,-5
1523183214393659,-44,0,12,24,4,14,3,-39
1523183214402878,22,-23,-26,26,-9,-16,-11,24
1523183214402878,-18,5,-6,-39,1,-6,-14,-10
1523183214417962,10,28,17,31,12,2,0,3
1523183214417962,25,-12,-37,-128,-27,-4,-5,27
1523183214418727,-24,-27,-32,64,-27,-17,-14,-23
1523183214418727,-11,7,39,127,31,-2,-9,-36
1523183214440786,21,9,43,-91,-16,5,9,76
1523183214440786,-25,11,1,-16,11,4,-18,-52
1523183214440786,-15,-17,3,-5,18,5,15,-10
1523183214440786,30,8,-4,-18,12,5,24,-7
