timestamp,emg1,emg2,emg3,emg4,emg5,emg6,emg7,emg8
1523208952326973,2,-2,-37,5,-4,0,-1,-2
1523208952326973,1,6,70,14,-25,-6,-1,-2
1523208952340008,-6,-13,-98,-16,-4,-3,-15,-4
1523208952340008,2,4,5,20,-8,-7,-3,5
1523208952349033,-13,2,35,-26,-4,-4,17,-1
1523208952349033,-2,-10,-24,9,-10,-4,-1,1
1523208952364071,4,-2,-1,-16,2,3,-1,1
1523208952364071,4,2,-18,-6,14,-4,-35,-6
1523208952366084,7,-7,48,29,4,7,30,6
1523208952366084,-17,3,-26,8,-13,-5,-7,-7
1523208952378107,-3,-18,49,-32,12,2,-12,1
1523208952378107,-4,-10,-27,-3,-23,-17,0,5
1523208952387132,5,10,0,16,4,-1,-6,-11
1523208952387132,2,6,5,3,9,-6,44,7
1523208952401170,-5,2,12,4,2,12,-8,-7
1523208952401170,11,0,-8,10,-1,-3,1,3
1523208952408188,0,1,-23,-14,-5,-5,-40,-1
1523208952408188,2,6,8,-22,-22,-11,-6,2
1523208952424234,-3,-9,-105,15,25,13,11,3
1523208952424234,-4,8,80,-15,-7,-3,0,-3
1523208952426243,4,6,-57,16,-12,1,1,0
1523208952426243,1,-13,-2,28,36,24,0,6
1523208952438269,-3,-3,-58,-56,-1,1,8,23
1523208952438269,-7,-6,-19,9,-9,-6,-12,-20
1523208952447296,0,-2,19,-19,-17,-22,-10,-16
1523208952447296,3,4,-14,-13,-19,-4,-14,20
1523208952461330,-6,-5,30,25,10,6,25,19
1523208952461330,-8,-3,-23,-7,5,-8,47,-21
1523208952467351,-3,1,10,-14,-7,-3,-9,0
1523208952467351,4,-1,-22,-1,2,-1,-13,-2
1523208952484393,6,11,77,17,6,0,-18,5
1523208952484393,-1,1,-20,-7,-8,3,-21,6
1523208952486399,-1,2,-61,11,-10,2,13,0
1523208952486399,-7,-12,20,-13,7,2,-8,-7
1523208952506451,7,15,-8,-21,-2,-9,0,-10
1523208952506451,-12,-16,-52,8,-3,12,9,-6
1523208952508456,5,7,70,22,24,13,1,8
1523208952508456,3,11,-21,-5,-2,0,-2,-3
1523208952521494,-2,5,-2,1,-12,-21,-14,-19
1523208952521494,3,11,19,-15,-21,-7,14,5
1523208952527506,-9,-23,-13,-14,-7,-9,-6,7
1523208952527506,-4,-9,19,-38,1,1,-4,-10
1523208952544554,0,2,28,78,7,-1,9,-8
1523208952544554,-2,-4,43,-45,-9,6,-6,7
1523208952545560,3,12,20,17,31,13,-1,3
1523208952545560,1,3,58,5,-7,4,9,-6
1523208952566609,-13,-25,-35,-28,-20,-21,-15,-14
1523208952566609,1,-16,-25,16,-6,0,-74,7
1523208952568615,-2,3,26,-9,5,2,96,-4
1523208952568615,2,3,-26,4,-2,-7,11,9
1523208952580649,1,12,68,7,3,4,5,2
1523208952580649,1,-13,-55,4,1,0,-10,-3
1523208952587666,-5,-3,18,-19,-4,-1,-35,-4
1523208952587666,1,3,-42,19,-4,-4,-6,-9
1523208952604715,3,2,81,-8,-2,-3,7,7
1523208952604715,4,23,-2,12,16,8,16,0
1523208952605714,-2,-4,-21,-6,-4,1,-16,26
1523208952605714,-11,-12,-1,1,-1,-2,-1,-25
1523208952627004,5,6,-9,3,-6,-4,-65,1
1523208952627004,-7,-5,5,-11,-8,-9,94,-16
1523208952628774,7,11,28,-2,-6,0,-12,8
1523208952628774,1,1,-20,12,24,15,-7,6
1523208952640808,-2,-6,-23,-12,14,3,-1,-16
1523208952640808,8,33,-14,15,-1,-1,-16,2
1523208952649830,-2,-22,-15,-4,-8,-1,2,84
1523208952649830,-9,7,9,-9,-15,-8,-35,-87
1523208952663877,-1,0,-82,-5,-4,1,2,2
1523208952663877,-11,-3,-8,-32,1,-7,25,-13
1523208952665874,2,8,36,58,-7,-5,-10,-76
1523208952665874,5,1,26,-2,1,-4,-20,69
1523208952686929,0,6,49,-8,5,4,9,-16
1523208952686929,-26,-27,-29,-6,-7,-5,-66,20
1523208952687932,0,0,-10,-20,1,7,63,-28
1523208952687932,20,7,-8,4,5,3,37,25
1523208952699963,8,5,-30,7,-4,-3,-9,5
1523208952699963,17,3,16,-6,-4,0,19,67
1523208952708987,-43,-1,13,-23,-1,8,-61,-106
1523208952708987,-3,-9,16,-1,2,-4,40,20
1523208952724263,11,-4,-12,29,-5,-4,22,38
1523208952724263,-6,-12,14,12,-3,7,4,-18
1523208952726033,10,0,-20,-8,11,6,-27,127
1523208952726033,14,-4,47,-3,-6,1,-34,-12
1523208952747122,-48,-32,-49,-36,-1,-8,52,-99
1523208952747122,0,-9,37,47,-4,-4,-40,18
1523208952748092,-12,-5,25,30,-5,-15,48,-88
1523208952748092,50,41,15,-14,6,2,-17,10
1523208952760358,-42,-34,16,1,-2,-1,-15,117
1523208952760358,-6,-11,-48,-23,-3,2,-59,-128
1523208952769148,51,0,40,-19,-1,-7,77,60
1523208952769148,-57,-14,-41,-12,-10,-9,-38,7
1523208952784189,9,30,55,54,7,18,-27,-20
1523208952784189,-10,-4,-57,-27,6,-10,52,67
1523208952786194,30,9,-37,-1,-1,-1,-27,27
1523208952786194,27,-2,3,3,1,8,-12,-25
1523208952808252,-45,-5,-42,-12,-3,-4,-11,-14
1523208952808252,-1,9,47,21,-1,2,14,-14
1523208952810451,-40,-6,-90,-23,-3,-19,-6,-63
1523208952810451,-15,-11,-44,2,1,-3,1,-10
1523208952820519,26,16,30,-25,-5,1,-4,19
1523208952820519,42,12,-30,3,3,14,-6,19
1523208952829308,-5,-14,13,33,-1,-10,12,17
1523208952829308,-21,-46,27,-4,-1,4,-22,19
1523208952844348,-12,4,-12,-13,-1,-12,48,-47
1523208952844348,6,-18,35,-5,-4,-3,-31,-22
1523208952846358,-3,13,21,-47,0,9,-13,18
1523208952846358,35,20,-13,-11,-9,0,-7,-10
1523208952866405,-19,5,52,93,0,-14,-6,17
1523208952866405,-24,-1,-6,-23,3,-2,-34,-23
1523208952868412,20,20,51,2,2,5,-14,38
1523208952868412,51,36,-17,-45,5,5,10,-30
1523208952880450,-50,-50,-34,14,-4,-2,-14,-46
1523208952880450,-8,-13,38,12,-4,-1,32,85
1523208952889467,-14,-4,-68,-6,-10,-17,-63,-70
1523208952889467,15,22,50,22,9,9,40,2
1523208952904508,57,45,-59,-32,2,12,-9,59
1523208952904508,-9,-3,13,-5,3,6,2,-68
1523208952905511,-2,0,59,18,2,7,51,-14
1523208952905511,-30,-36,-44,35,-4,-12,-6,20
1523208952926801,29,14,16,-3,-2,-3,-3,2
1523208952926801,-7,-4,-11,-9,-2,-3,-4,12
1523208952928572,14,16,1,-32,3,10,-4,-1
1523208952928572,-11,-14,-37,9,-4,-8,4,33
1523208952940604,-9,-11,53,-20,1,0,-16,-51
1523208952940604,14,2,3,13,-9,-6,11,64
1523208952949627,-1,10,-8,10,-5,-4,-42,-15
1523208952949627,-36,-5,-13,8,1,-4,-12,-48
1523208952964668,8,-29,40,-26,12,10,92,26
1523208952964668,36,38,9,-8,-5,-9,-18,-35
1523208952965670,-58,-44,41,37,-5,-3,-10,26
1523208952965670,-12,-16,29,-18,0,11,18,40
1523208952986764,8,23,-7,-24,-2,-7,-64,-42
1523208952986764,-2,3,1,5,1,-2,29,-20
1523208952988731,24,16,-54,-33,-1,10,13,25
1523208952988731,10,16,-7,20,-5,-10,-16,-16
1523208953000763,-27,-12,-7,-6,-3,-1,15,-33
1523208953000763,-8,-14,-17,-1,-2,-4,5,-3
1523208953009787,7,-2,10,-18,5,4,-24,-18
1523208953009787,-74,-8,21,35,7,4,31,39
1523208953024870,87,29,-38,-37,-4,4,-9,53
1523208953024870,-31,-1,-10,48,-6,-10,-22,4
1523208953025829,-29,-34,4,-19,1,1,-4,-75
1523208953025829,-6,-6,24,-7,0,0,33,-2
1523208953046889,3,0,-37,12,-2,-1,13,42
1523208953046889,69,22,45,-43,3,11,23,72
1523208953047893,-52,-9,-14,29,-9,-15,-75,-26
1523208953047893,6,21,22,9,1,-4,27,-6
1523208953059919,57,26,46,-5,-4,-10,-7,50
1523208953059919,-10,17,-10,-26,1,4,33,-19
1523208953068944,68,31,66,8,6,13,-24,70
1523208953068944,-28,-15,-33,-1,-10,-14,17,-7
1523208953083985,-25,5,19,29,1,1,-4,-6
1523208953083985,-12,16,-13,4,4,-1,-4,-38
1523208953085991,-1,-51,-48,-21,-3,-5,9,-29
1523208953085991,16,25,11,17,-1,-3,-12,-12
1523208953108049,17,-15,-7,-18,-6,1,-24,-25
1523208953108049,-57,-25,-16,-2,-2,-6,8,48
1523208953110053,-19,15,-25,-14,3,6,25,-77
1523208953110053,25,-8,12,-2,-2,0,6,60
1523208953121082,-33,-40,17,27,6,0,-2,-36
1523208953121082,6,16,28,28,2,-3,-25,-31
1523208953129109,32,6,-62,-40,-7,-7,-43,53
1523208953129109,-18,-13,17,-3,1,9,24,3
1523208953144144,55,3,-11,-3,-3,-5,-6,-22
1523208953144144,-94,-23,-27,-3,-2,1,1,-10
1523208953146156,28,29,9,-41,3,5,24,101
1523208953146156,-13,-12,30,16,-4,-5,-46,-88
1523208953166202,-70,-38,26,33,-2,-6,0,-17
1523208953166202,55,17,-27,-7,-2,-5,33,38
1523208953173457,60,5,-2,17,4,8,30,110
1523208953173457,-20,-4,-81,-60,-3,3,14,-53
1523208953180242,-13,12,-3,-24,-2,4,17,-26
1523208953180242,-28,-18,1,12,-2,-12,-35,-46
1523208953189274,-1,8,76,26,-2,-3,22,-1
1523208953189274,54,22,-51,-45,-1,0,-18,51
1523208953203302,-1,-21,31,37,-4,3,-2,61
1523208953203302,12,3,36,32,-5,-4,14,-63
1523208953212332,12,-1,-1,-20,0,-1,9,21
1523208953212332,-110,-24,-5,31,-1,3,-45,-24
1523208953226598,23,30,-4,-40,-3,-12,-1,48
1523208953226598,49,7,-15,-25,2,13,18,2
1523208953228383,-37,-20,24,34,-3,-9,-2,22
1523208953228383,22,4,-42,-66,-11,-12,-7,24
1523208953249425,-15,-8,-36,-4,1,4,-24,5
1523208953249425,15,-32,86,85,4,-6,-1,24
1523208953250426,-21,6,-33,-9,1,2,4,-16
1523208953250426,20,-5,39,-8,1,3,1,29
1523208953264465,33,28,53,-12,0,-3,-14,-20
1523208953264465,30,-12,-29,-39,-3,7,15,-7
1523208953265466,-30,13,15,38,-2,-7,-38,-10
1523208953265466,48,6,-32,-15,-3,-6,5,-3
1523208953286523,-33,-6,-9,2,1,3,70,-3
1523208953286523,6,-24,-41,-8,-6,-3,-44,-6
1523208953288529,-27,-6,-37,-17,0,1,31,-19
1523208953288529,19,-11,5,-1,-3,0,7,-29
1523208953300560,13,14,1,21,-4,-4,-23,-14
1523208953300560,-16,3,-38,-30,-1,5,-15,42
1523208953309584,-1,-9,32,11,-2,-5,7,-23
1523208953309584,2,6,-6,-24,0,-4,-29,-68
1523208953324626,54,-1,-44,25,2,2,7,35
1523208953324626,-96,8,20,1,-6,-11,-25,-100
1523208953325626,17,4,12,19,1,-4,-28,15
1523208953325626,11,-14,50,8,4,10,23,36
1523208953346683,-32,-13,-33,-23,-5,-2,-16,-22
1523208953346683,31,23,57,-4,5,10,9,85
1523208953348690,-11,-26,-72,-22,-7,-10,9,-82
1523208953348690,-14,32,63,30,-2,-2,12,62
1523208953368741,-1,1,-25,-32,-6,-4,-50,19
1523208953368741,-13,-32,-8,-1,3,-8,29,-52
1523208953370746,17,2,-16,-22,-7,4,1,-2
1523208953370746,25,13,17,23,0,7,-12,31
1523208953383781,24,6,16,-20,-3,-9,21,-34
1523208953383781,-54,-2,-24,27,-4,-2,-16,50
1523208953385786,13,15,1,-23,0,0,1,-8
1523208953385786,-52,-33,-31,16,-5,-11,4,0
1523208953406842,-4,18,18,-12,2,4,-6,-24
1523208953406842,5,11,14,-36,2,3,-36,-19
1523208953408847,-30,-27,-31,40,2,1,58,50
1523208953408847,-12,6,-38,9,0,0,-6,-55
1523208953428906,-4,3,-37,-31,0,10,18,31
1523208953428906,41,-26,20,55,-1,-13,-6,3
1523208953430908,-16,4,32,-14,1,-1,-29,-50
1523208953430908,78,7,39,6,0,-8,7,66
1523208953443939,-53,-46,-125,-19,-2,-1,-3,-88
1523208953443939,73,25,26,-8,-4,-4,-19,25
1523208953445949,-79,-5,19,-7,-2,-3,-15,17
1523208953445949,-8,-9,-4,24,-1,-5,-37,-33
1523208953467004,-11,-10,50,24,7,-4,5,48
1523208953467004,-21,-15,-52,-53,-6,4,13,-28
1523208953468005,44,5,-44,2,-9,3,-11,-14
1523208953468005,1,35,-49,-34,6,-5,21,51
1523208953489060,-2,4,56,24,-1,-1,-40,-36
1523208953489060,-11,0,-35,10,-3,-4,8,-8
1523208953491066,87,5,7,19,5,2,5,35
1523208953491066,-30,-2,-34,-9,-5,-2,-29,-35
1523208953504100,11,16,-6,2,4,2,41,32
1523208953504100,-42,-30,-7,-28,-2,2,-2,21
1523208953506105,-6,-1,33,3,-1,-3,-5,-26
1523208953506105,23,2,24,3,-4,1,7,13
1523208953527160,-9,9,-16,12,2,-1,43,22
1523208953527160,31,14,-1,-19,-5,2,-8,-22
1523208953528169,-23,-2,4,-6,6,-3,-27,84
1523208953528169,-6,-2,53,3,-3,-5,18,-15
1523208953549221,5,-2,34,69,0,-8,-15,18
1523208953549221,1,16,-12,-16,-1,3,14,25
1523208953551226,-14,-16,11,-13,2,0,-9,-18
1523208953551226,22,3,-11,-21,2,6,27,-16
1523208953563264,-25,-16,-46,-47,-10,-5,-9,7
1523208953563264,-19,-28,-87,11,-2,0,5,-41
1523208953570285,40,21,64,23,1,2,15,0
1523208953570285,-22,-14,-81,-21,5,9,0,13
1523208953586320,-22,-13,22,21,-9,-7,-7,-12
1523208953586320,-9,17,64,10,2,-1,6,50
1523208953588324,45,14,-30,12,-6,-2,-8,-102
1523208953588324,-96,-15,3,-12,5,6,23,-37
1523208953609615,31,-48,27,-12,-8,-13,-1,-21
1523208953609615,39,6,-70,-2,-1,5,2,42
1523208953610385,4,-9,21,-25,-2,-1,-1,77
1523208953610385,-6,26,-2,28,-2,1,-40,-27
1523208953623653,-1,6,0,-17,3,5,33,-47
1523208953623653,-1,-6,125,11,-3,-8,9,-15
1523208953630438,-39,14,-53,3,3,5,23,9
1523208953630438,61,-9,-60,-20,-4,0,-24,6
1523208953646483,7,-19,-57,-5,0,-2,-25,40
1523208953646483,-2,20,26,29,6,-2,7,-37
1523208953648484,-55,-14,31,51,2,5,14,-24
1523208953648484,92,-2,6,-53,-7,-7,-33,22
1523208953670581,3,13,8,-13,1,2,-13,52
1523208953670581,38,26,50,83,0,-6,43,-56
1523208953671546,-6,-3,-20,-110,-3,-1,16,-3
1523208953671546,-34,-48,-66,42,-8,5,1,-13
1523208953683577,8,7,86,33,1,-6,-4,54
1523208953683577,53,20,7,-22,1,0,-34,51
1523208953690596,-85,-21,38,40,-1,-6,-8,-32
1523208953690596,-17,-3,12,-43,-1,1,21,-43
1523208953706640,10,15,-43,-8,0,10,-7,16
1523208953706640,-22,-23,-24,-7,-4,-11,-51,15
1523208953708645,21,-2,-29,-9,2,0,45,-2
1523208953708645,4,4,61,-36,6,5,-1,53
1523208953729702,-34,-17,22,71,0,-1,-39,-56
1523208953729702,-23,-1,10,-3,-3,-11,-12,-39
1523208953730704,47,-21,-46,-33,-9,4,-42,13
1523208953730704,0,17,69,8,0,-8,16,16
1523208953743736,-9,-9,12,-42,1,5,22,28
1523208953743736,26,-9,-56,13,1,2,13,31
1523208953750757,-55,-31,-30,22,-7,-7,-31,-54
1523208953750757,52,22,23,13,1,7,6,43
1523208953766798,-5,19,-74,-28,2,0,11,-25
1523208953766798,61,-6,-29,-48,1,-4,-3,40
1523208953768804,39,30,102,69,0,-2,4,16
1523208953768804,-32,-36,-24,52,-6,-10,-24,-33
1523208953788858,-54,3,41,-20,-4,-3,10,2
1523208953788858,-15,0,-15,-55,2,9,2,-9
1523208953790864,27,19,-38,-29,2,3,-5,5
1523208953790864,1,3,10,2,0,1,26,36
1523208953803942,50,19,30,24,-1,-5,-21,6
1523208953803942,-103,3,17,27,9,9,-7,-19
1523208953810106,8,-18,-6,-28,1,-1,22,0
1523208953810106,-85,-44,-4,37,-11,-14,-41,-87
1523208953826957,11,13,-26,-54,-1,-7,8,24
1523208953826957,41,9,-54,-23,1,7,6,-2
1523208953827961,-19,-5,16,-14,-5,0,-27,26
1523208953827961,19,8,-3,16,-1,-6,11,14
1523208953849017,-61,8,96,42,0,5,-1,39
1523208953849017,73,20,-13,-25,-1,-3,-8,-17
1523208953851022,17,27,47,59,13,8,30,5
1523208953851022,-24,-56,-128,-49,-22,-16,-2,-1
1523208953863055,91,6,49,-5,1,2,-46,-30
1523208953863055,-46,19,71,44,-1,4,34,98
1523208953870074,-60,-20,-119,-57,-12,-19,-27,-90
1523208953870074,7,17,29,13,12,12,8,-36
1523208953887118,7,-4,-56,-10,-5,-7,-2,-28
1523208953887118,20,15,-94,-40,0,6,2,11
1523208953888121,22,11,113,44,-1,-1,-33,30
1523208953888121,44,37,33,7,1,2,32,52
1523208953909178,-8,12,-25,-20,-1,4,-8,-53
1523208953909178,-8,-21,50,10,4,2,9,-57
1523208953911189,-35,-30,31,31,-7,-6,8,23
1523208953911189,57,10,-30,3,5,-4,-15,-13
1523208953923215,-32,8,16,-7,-5,-4,5,3
1523208953923215,-26,-57,-9,-32,0,0,23,-2
1523208953932239,60,54,17,22,5,6,3,-10
1523208953932239,-94,-55,106,-51,-13,-9,-7,21
1523208953947278,25,25,-31,0,6,0,32,12
1523208953947278,0,-10,-26,21,-9,-3,-20,26
1523208953948281,-59,-16,36,15,-1,-7,1,-1
1523208953948281,-1,41,-18,-8,6,2,-2,-21
1523208953969338,26,0,45,-12,-5,5,3,29
1523208953969338,-44,-13,44,33,0,-2,2,-37
1523208953970340,19,0,-7,-66,2,4,1,29
1523208953970340,-1,5,16,61,-3,-1,-4,26
1523208953982372,-75,-29,-10,-36,-2,-4,-9,-105
1523208953982372,71,30,66,60,2,2,1,104
1523208953992397,-57,-17,-56,-7,-2,-13,3,-44
1523208953992397,36,16,6,-17,-2,1,-6,48
1523208954006435,-45,-7,-10,-16,2,-5,-8,-12
1523208954006435,-10,-20,-11,-18,-9,-7,-8,-6
1523208954008443,32,-8,-32,16,-6,-4,18,12
1523208954008443,5,18,-11,-63,2,7,8,4
1523208954029512,29,-8,18,97,1,-2,-4,18
1523208954029512,-13,17,23,-10,-1,-7,-11,8
1523208954030500,-2,-7,-69,-53,0,9,5,16
1523208954030500,9,-10,25,32,4,2,-7,8
1523208954042531,-50,-8,-16,-36,-10,-10,-9,-28
1523208954042531,7,-38,-100,-36,-6,-6,1,-61
1523208954051555,62,22,23,-6,0,3,-2,25
1523208954051555,-61,5,-44,-42,1,1,6,-29
1523208954066595,2,-17,54,72,3,8,-16,32
1523208954066595,-32,-3,17,72,6,-9,-34,0
1523208954068601,4,3,-12,-51,-8,-3,49,-10
1523208954068601,31,21,1,-5,3,3,-9,25
1523208954089657,39,11,-38,-25,3,7,-2,-32
1523208954089657,-64,-3,23,-34,-4,-1,72,-60
1523208954090660,55,-17,-81,-15,1,1,-17,7
1523208954090660,-88,-52,12,44,-6,-8,-25,4
1523208954102691,95,14,18,6,1,0,40,21
1523208954102691,0,12,-21,-19,1,-9,-13,3
1523208954111720,7,25,-10,-9,1,-3,-8,62
1523208954111720,7,1,-33,-32,2,1,11,-39
1523208954126756,43,-14,37,-2,-5,-3,-8,-43
1523208954126756,17,11,-9,12,1,-2,-37,35
1523208954128765,-37,-4,52,17,1,6,38,-19
1523208954128765,78,28,37,-8,1,-3,-29,27
1523208954148815,-40,-10,-27,-18,2,-2,14,10
1523208954148815,63,10,9,64,-11,-6,-18,-7
1523208954150820,-24,-18,32,-2,0,-1,7,15
1523208954150820,13,6,0,18,3,0,1,-64
1523208954162852,-3,20,-31,-79,2,7,10,11
1523208954162852,-23,-24,42,20,-8,5,-16,30
1523208954171875,-8,6,-87,-6,-7,-13,-15,-60
1523208954171875,-26,8,37,5,-1,-8,-5,-49
1523208954186916,-4,-9,-5,36,0,-7,-7,29
1523208954186916,-28,1,20,12,0,3,-11,-6
1523208954187917,14,-2,15,-6,-1,5,-22,22
1523208954187917,21,-11,-36,-42,6,10,42,51
1523208954209027,-71,-11,-33,-39,-9,-7,-15,-8
1523208954209027,31,31,37,61,1,2,14,14
1523208954210986,-58,-52,123,18,7,0,4,-5
1523208954210986,-55,-43,16,-15,-4,-7,-11,0
1523208954223246,57,9,-44,-18,1,6,-5,36
1523208954223246,-17,-22,86,-15,-1,-4,-24,-67
1523208954232034,-6,3,-74,8,0,0,38,85
1523208954232034,-6,-4,-30,6,2,0,-12,-9
1523208954247076,28,-11,17,-3,0,-3,-26,-21
1523208954247076,10,14,-28,-57,-4,-1,-2,30
1523208954248077,6,1,10,33,-4,-2,-8,-21
1523208954248077,8,17,-11,4,-5,-1,5,-12
1523208954269245,31,10,-27,17,-2,-2,-3,68
1523208954269245,-47,-10,-57,-13,4,2,-18,-49
1523208954271139,39,1,3,22,-2,-4,5,-20
1523208954271139,-49,-17,19,-28,-6,1,7,46
1523208954283211,6,-10,-84,-9,-5,-8,7,-52
1523208954283211,5,2,47,4,0,1,-7,11
1523208954292195,2,32,11,-49,3,-2,-6,18
1523208954292195,77,17,14,73,1,-3,-23,-34
1523208954307234,-41,-17,18,16,1,-5,0,10
1523208954307234,19,7,-9,-37,0,2,36,29
1523208954308238,0,8,26,14,7,6,-13,-6
1523208954308238,17,11,14,-37,1,1,-10,-21
1523208954329293,-11,-24,22,73,-1,0,-6,-11
1523208954329293,2,14,-29,-50,-2,0,20,71
1523208954331299,47,5,-1,21,2,0,-30,-53
1523208954331299,-57,5,-20,-21,-4,-7,-3,-61
1523208954351392,-33,7,96,-9,-1,6,41,33
1523208954351392,-64,-37,-13,-30,-7,-8,-10,-12
1523208954353358,16,-10,3,16,-2,-5,-17,-32
1523208954353358,23,1,-8,47,-3,-2,7,2
1523208954366431,-33,-13,-15,-10,-2,0,-4,23
1523208954366431,12,-12,-10,-7,1,-1,0,-69
1523208954368400,92,21,28,-26,0,8,-7,43
1523208954368400,-78,-23,-36,-26,-10,-6,10,-19
1523208954389453,82,25,-4,32,-2,-2,-7,36
1523208954389453,-46,-24,-3,-22,7,6,4,3
1523208954390495,-40,-3,-36,34,-4,-6,-14,-64
1523208954390495,83,15,63,11,7,6,13,29
1523208954411517,-77,-11,-60,-43,-6,-8,-10,0
1523208954411517,-81,-4,-29,-25,1,5,5,23
1523208954413518,32,-9,-18,-16,-10,-6,-9,3
1523208954413518,-16,6,-29,36,3,6,7,40
1523208954426592,-36,-8,22,-7,-6,-7,-11,-59
1523208954426592,22,1,69,34,4,6,-28,1
1523208954428561,-72,-13,-34,-26,-1,10,71,71
1523208954428561,-56,-19,-27,-21,0,-6,-5,-40
1523208954449654,25,15,32,38,-7,-7,-40,-59
1523208954449654,5,19,-19,8,-3,-6,34,43
1523208954450616,29,2,-17,-17,-3,-1,-22,-22
1523208954450616,110,17,60,-9,3,10,14,99
1523208954471671,-93,-17,-93,-24,1,-1,21,5
1523208954471671,92,5,34,22,-2,-7,-21,-9
1523208954473677,-33,-3,22,26,-1,-3,-6,46
1523208954473677,45,21,-4,14,-3,-6,-4,-9
1523208954485711,51,10,23,-65,4,9,4,53
1523208954485711,-1,-25,-20,52,-1,-2,-5,-37
1523208954492873,-19,1,42,24,3,-11,-5,-123
1523208954492873,-19,-8,28,-1,2,2,-8,86
1523208954508770,68,-8,36,14,1,-3,-8,-63
1523208954508770,23,-1,-30,-69,-1,6,42,51
1523208954510776,52,19,-32,4,0,7,-22,-6
1523208954510776,51,11,61,37,-4,-10,-1,-42
1523208954531831,-31,2,47,19,7,3,5,47
1523208954531831,55,-7,-22,-22,-4,0,2,-25
1523208954533837,-100,5,42,9,-2,-5,-16,18
1523208954533837,54,2,-83,-26,1,10,3,34
1523208954545872,30,5,117,8,2,-9,9,-4
1523208954545872,10,0,-54,-40,-6,-2,-1,8
1523208954552887,36,-6,22,42,0,-1,9,1
1523208954552887,-45,10,8,-6,1,1,-6,82
1523208954569931,5,-20,-23,19,-8,-2,-7,-76
1523208954569931,-26,4,-52,-17,5,0,-4,-102
1523208954570935,-14,-2,16,-30,-3,2,-23,15
1523208954570935,-22,-1,15,16,-4,-3,11,-21
1523208954592031,75,14,-65,-15,7,11,34,52
1523208954592031,-72,6,18,-4,-7,-5,-16,-8
1523208954592996,5,10,20,74,7,0,20,-40
1523208954592996,-28,-14,12,-9,-1,-3,-2,-29
1523208954606029,32,48,-26,-34,1,8,13,56
1523208954606029,-2,-19,-10,-9,-3,0,2,-33
1523208954613048,-2,-42,33,-20,-10,-15,-18,40
1523208954613048,-20,19,-54,-3,-2,-1,-6,-24
1523208954629095,-38,8,23,9,0,0,2,11
1523208954629095,65,12,19,15,1,-1,18,36
1523208954631095,-16,6,-24,-42,-5,-1,-6,26
1523208954631095,-20,-35,-19,35,-2,-7,-8,-59
1523208954652152,80,11,-4,-4,1,1,-18,7
1523208954652152,-77,-6,21,-14,-1,1,16,-44
1523208954653153,50,-4,-78,-23,-5,-2,-3,25
1523208954653153,-50,-9,50,-44,-2,-7,-36,-24
1523208954666189,28,-2,33,28,5,2,19,-25
1523208954666189,55,2,37,69,0,-6,-18,48
1523208954673447,-24,1,-66,-48,-2,2,18,22
1523208954673447,26,16,-3,-5,-4,-7,-18,-19
1523208954689250,-66,-14,-9,-11,-1,-2,-27,-52
1523208954689250,-18,-15,-21,11,-2,-1,10,12
1523208954691256,-23,3,-10,7,-1,-1,-8,28
1523208954691256,-13,2,-14,4,2,3,4,-48
1523208954711327,0,-18,-20,1,-2,-5,-7,24
1523208954711327,-25,27,-2,-13,0,-1,3,-12
1523208954713314,-8,-26,-43,-2,2,1,-7,31
1523208954713314,-28,-47,-12,-30,-2,4,13,-54
1523208954726347,64,31,62,-4,0,1,-2,3
1523208954726347,-14,-1,-8,33,1,-5,-21,3
1523208954733367,-8,5,-5,-3,-1,-1,3,-22
1523208954733367,41,0,4,-3,1,2,16,58
1523208954749448,-57,-18,-38,-22,-5,0,-9,-67
1523208954749448,75,14,-35,6,-2,-5,-4,82
1523208954750412,-65,-12,73,13,-3,-2,7,-79
1523208954750412,33,5,-11,-43,5,6,12,62
1523208954771703,-20,-39,-8,25,-4,-1,-1,-12
1523208954771703,-10,-6,-6,27,1,-5,-11,6
1523208954773473,-46,-15,-24,-46,0,2,0,5
1523208954773473,92,17,47,49,3,2,3,7
1523208954786508,-98,3,-38,-13,-9,-7,6,84
1523208954786508,-25,-14,-3,-4,-3,-5,-11,-49
1523208954792524,41,6,9,-30,5,8,3,5
1523208954792524,-4,10,-39,-28,-7,-2,-6,-55
1523208954809569,-88,-24,101,103,2,-12,-12,-28
1523208954809569,71,20,-54,-68,-1,5,1,5
1523208954810576,-17,6,69,33,-8,-7,-5,69
1523208954810576,-54,8,-3,-83,2,3,4,-55
1523208954831668,-11,-29,-56,46,-4,-4,-2,80
1523208954831668,9,10,42,2,4,8,4,4
1523208954833634,31,6,-32,-47,-3,-6,-17,26
1523208954833634,-78,-22,45,114,1,-9,-3,-56
1523208954845667,21,-10,-39,-82,-8,-3,19,-31
1523208954845667,-13,-19,63,-9,-2,3,-8,69
1523208954854689,92,33,21,27,7,8,13,-64
1523208954854689,-58,3,-69,-26,-2,4,-6,110
1523208954869868,-48,-38,-32,37,-4,-14,-36,-126
1523208954869868,58,6,-13,-47,-5,-4,10,6
1523208954870731,3,-13,62,64,1,-3,-6,12
1523208954870731,58,31,-63,19,1,3,13,64
1523208954891827,35,27,-5,-24,3,3,-1,-49
1523208954891827,-17,-4,9,-22,-1,2,-1,26
1523208954892794,-3,7,-76,-4,2,1,-5,-85
1523208954892794,-7,-3,9,27,-4,-3,4,14
1523208954905825,41,26,49,11,3,7,18,47
1523208954905825,-116,-27,10,35,0,-6,-13,27
1523208954914849,16,-8,-30,-20,2,-2,-6,-89
1523208954914849,28,5,6,-33,-6,-2,13,8
1523208954928891,37,0,-55,-52,-3,2,-2,18
1523208954928891,-98,-22,42,48,-5,-9,-12,-54
1523208954930892,5,20,43,-8,2,-1,9,48
1523208954930892,-46,-35,-51,6,2,-1,-12,5
1523208954951947,43,5,1,13,-4,-1,2,17
1523208954951947,37,14,-24,-9,2,4,21,-22
1523208954952950,-48,-23,-21,-14,-9,-6,-8,62
1523208954952950,60,12,75,15,0,-2,8,-57
1523208954964996,-4,3,-87,-23,2,5,-8,66
1523208954964996,-44,-8,21,25,1,-3,4,-11
1523208954974200,21,17,-8,-13,-5,-1,-5,-92
1523208954974200,25,4,14,-18,-3,4,1,77
1523208954989049,-14,12,5,1,5,4,3,-14
1523208954989049,27,9,6,12,-2,1,2,27
1523208954991052,-29,-16,9,-5,-6,-8,-7,-53
1523208954991052,-60,-16,23,46,-6,-5,-7,-2
1523208955012108,64,22,-22,-31,3,4,11,49
1523208955012108,34,14,-28,-33,-1,0,-10,-34
1523208955013111,-1,-3,-14,8,-3,-3,-3,11
1523208955013111,-22,-9,9,-5,-6,-4,-1,-18
1523208955025377,15,-8,4,-10,1,1,8,15
1523208955025377,36,3,45,4,-3,-4,-7,18
1523208955042227,-4,-6,-3,22,6,3,-3,-13
1523208955042227,35,2,-14,-1,0,-3,-3,20
1523208955049207,44,-3,6,-4,-2,-1,3,-30
1523208955049207,20,12,-6,-49,-2,2,-5,-27
1523208955051213,-39,6,16,30,6,8,2,47
1523208955051213,81,30,-7,-10,1,0,2,13
1523208955072368,-3,-16,68,87,-3,-5,0,10
1523208955072368,58,29,-9,-8,3,-3,-22,-1
1523208955073269,34,-21,-46,-40,-4,2,21,-50
1523208955073269,-43,-24,-29,8,-1,-7,-14,-37
1523208955085304,-47,-2,12,-45,-2,4,-6,-10
1523208955085304,-75,-13,-21,5,-7,-1,-3,-26
1523208955094344,76,10,18,6,3,4,13,85
1523208955094344,-26,7,25,19,2,7,8,20
1523208955109366,34,11,0,6,-4,-6,-5,7
1523208955109366,35,-7,-24,-22,2,2,-5,-26
1523208955110376,-43,0,-11,-40,-8,-3,-9,17
1523208955110376,-42,-26,-24,53,-8,-12,-10,-4
1523208955131425,81,10,-14,29,-5,-5,-3,-12
1523208955131425,51,10,-2,-38,1,6,23,50
1523208955133429,-17,3,15,-7,3,2,-8,94
1523208955133429,-1,-4,-14,-87,-5,-3,-12,-69
1523208955145471,-25,-8,16,66,-1,-5,2,16
1523208955145471,-63,-19,-14,-52,-5,-6,2,26
1523208955154487,-20,2,-12,-21,-1,-5,-3,-7
1523208955154487,1,17,22,-8,2,7,7,42
1523208955168759,-37,-41,1,-52,8,7,3,-7
1523208955168759,23,-2,-23,68,-3,-3,6,-34
1523208955169527,-88,-8,8,21,1,-1,0,81
1523208955169527,4,5,0,-64,-8,1,-5,-87
1523208955190582,-111,14,64,69,3,-7,2,-50
1523208955190582,-31,-32,-29,23,0,-2,0,-1
1523208955191585,44,-26,12,-14,-7,-7,-5,0
1523208955191585,54,13,-31,-34,1,-2,-7,73
1523208955213644,-23,5,-23,-49,-2,5,11,0
1523208955213644,20,12,16,2,-2,-1,-7,-26
1523208955214647,7,6,18,36,-1,-2,-3,-43
1523208955214647,-58,-28,16,33,4,4,9,95
1523208955228683,-39,-10,-68,-56,-9,-7,-12,-84
1523208955228683,5,-17,-34,-20,3,9,6,113
1523208955229689,59,22,-7,2,-1,-3,-13,-82
1523208955229689,1,4,8,-1,1,1,8,6
1523208955250741,33,-10,-29,30,-4,0,-3,61
1523208955250741,-27,21,18,0,2,-1,2,-41
1523208955251745,-49,-9,8,28,0,-1,-9,40
1523208955251745,21,22,-6,-54,-2,-6,6,31
1523208955274039,-1,-1,-31,-14,-5,-5,-3,-7
1523208955274039,-16,-43,-23,-31,-9,-8,-9,0
1523208955274039,-50,-24,0,24,-4,-2,0,-15
1523208955274039,53,13,10,-7,1,1,-8,24
1523208955288843,28,19,-41,-25,6,5,-4,-24
1523208955288843,6,27,64,54,2,1,0,9
1523208955289969,-30,-29,-18,-9,-6,-7,-5,-49
1523208955289969,-71,2,-13,66,1,-3,-5,33
1523208955310908,25,13,3,-107,-11,-5,-5,-46
1523208955310908,-15,6,18,11,-3,0,2,-19
1523208955311904,121,55,11,-24,2,4,13,35
1523208955311904,-34,-6,4,-6,2,4,7,-34
1523208955333965,-52,-15,-29,-22,0,-1,-1,127
1523208955333965,-9,-32,44,91,-1,-9,-18,-52
1523208955333965,47,20,-5,-88,-8,-2,0,78
1523208955333965,-51,-16,10,26,0,-3,6,-20
1523208955348000,12,28,5,-12,8,8,11,61
1523208955348000,35,0,-18,-12,-1,1,0,7
1523208955349002,-4,-7,5,40,0,-5,-11,-78
1523208955349002,27,-13,2,-2,-3,-3,-6,-106
1523208955371297,-4,-9,34,6,2,0,0,-17
1523208955371297,-15,6,-49,-12,-2,0,7,26
1523208955372063,6,11,20,34,0,-2,-4,-18
1523208955372063,26,-6,16,-32,3,4,-1,2
1523208955393119,-94,11,13,94,3,0,-4,-44
1523208955393119,-8,5,-33,-103,-3,0,-8,-32
1523208955394125,-73,-28,19,55,-1,-2,5,56
1523208955394125,43,-6,-18,13,-5,-5,-7,-29
1523208955408395,-27,-9,-3,-62,-4,-2,5,60
1523208955408395,38,29,25,67,5,-4,-19,-28
1523208955409162,23,-20,-57,-24,2,7,27,42
1523208955409162,-10,3,11,11,-1,0,6,59
1523208955431222,35,1,46,20,-3,-5,-10,-30
1523208955431222,14,13,-10,-32,-1,0,5,31
1523208955432226,-9,8,-6,-8,2,2,-17,-40
1523208955432226,-17,-56,-10,11,-3,-2,7,90
1523208955453319,25,20,-17,26,-6,-7,3,10
1523208955453319,49,-7,15,-59,-4,-1,1,-65
1523208955454283,-42,3,0,-16,0,-1,-2,27
1523208955454283,12,-5,12,51,0,-2,-4,16
1523208955468555,-17,-21,18,-23,1,-1,-4,-13
1523208955468555,-8,-19,-30,15,2,3,3,29
1523208955469323,37,18,-6,-10,-3,-1,2,-80
1523208955469323,-53,2,-17,-3,-3,-1,-5,-2
1523208955491381,16,-15,26,27,-2,-3,4,72
1523208955491381,-40,-16,-12,-26,-1,0,-5,-78
1523208955491381,21,14,42,58,6,6,-1,19
1523208955491381,-6,-11,-52,-21,-13,-21,-19,-128
1523208955513441,-6,2,-9,-7,1,2,-9,-78
1523208955513441,60,23,9,11,1,1,8,127
1523208955514442,-72,-4,-16,-62,1,5,13,-2
1523208955514442,-23,-7,56,58,3,4,-4,-4
1523208955528480,105,-7,-19,-37,-2,-4,-9,30
1523208955528480,2,5,-1,16,-8,-3,15,-8
1523208955529483,50,11,29,52,9,-1,0,4
1523208955529483,26,18,-32,-24,-5,2,3,4
1523208955551542,-42,-29,4,-52,-5,-8,-20,29
1523208955551542,-51,-3,-7,43,5,2,-8,-58
1523208955551542,-37,-29,29,6,-6,0,9,18
1523208955551542,38,22,-4,-35,-2,-4,2,46
1523208955573834,-36,10,9,-8,-4,1,-9,-106
1523208955573834,64,9,-10,-27,-1,-1,4,70
1523208955574602,-38,-42,-33,13,-8,-5,-9,61
1523208955574602,25,21,-3,-31,-2,2,1,7
1523208955588639,47,0,-25,48,-1,0,4,-60
1523208955588639,-32,-2,9,-36,-7,-9,-11,-25
1523208955589642,53,16,-4,-22,7,4,-8,-80
1523208955589642,26,2,8,79,6,4,9,39
1523208955610704,-23,16,-11,-24,1,4,7,41
1523208955610704,-35,6,13,11,-3,-1,-5,-35
1523208955611701,32,-11,-32,-70,1,-1,-11,17
1523208955611701,-69,-30,51,52,-7,-8,-2,-23
1523208955633758,6,8,-7,-32,1,2,15,-15
1523208955633758,-21,16,-15,25,-2,2,2,78
1523208955634762,-27,8,-9,-78,-6,-1,-1,7
1523208955634762,28,-16,-13,38,1,-4,-15,-13
1523208955648800,-59,-1,-18,19,-3,-8,-2,-20
1523208955648800,-64,-34,14,-8,4,1,5,41
1523208955649801,64,28,-5,13,-1,1,0,-39
1523208955649801,-21,15,-12,-28,-1,2,1,23
1523208955671093,-35,-25,16,4,1,-1,-3,23
1523208955671093,-4,-10,-12,-9,4,2,3,-23
1523208955671860,12,20,27,41,0,0,10,51
1523208955671860,-66,-13,-16,-40,-4,-1,-6,-27
1523208955693926,-3,-31,37,3,-1,-1,1,-9
1523208955693926,14,1,-10,-53,0,1,0,-23
1523208955693926,-59,-34,-35,101,-3,-8,-8,1
1523208955693926,-4,27,49,3,-2,-3,1,0
1523208955708960,75,22,-19,11,2,2,4,52
1523208955708960,-20,16,4,10,-1,-4,-6,44
1523208955708960,32,-18,-10,-29,-1,-1,0,-92
1523208955708960,50,3,-22,-20,4,4,2,17
1523208955731018,-45,-13,-3,14,1,2,-7,-16
1523208955731018,44,12,7,2,-2,-2,4,26
1523208955732021,-31,33,7,-2,-4,-4,-5,23
1523208955732021,-23,-20,-27,-16,-2,0,-5,-69
1523208955753078,37,8,20,-2,-1,-3,2,35
1523208955753078,-2,-8,-13,-5,-2,1,-4,-64
1523208955754078,-29,-12,-2,0,-3,-3,-5,69
1523208955754078,0,-2,0,-20,-1,-4,-5,-32
1523208955769167,6,29,-6,0,-1,1,-2,27
1523208955769167,43,5,-10,5,-2,-1,12,-21
1523208955769167,39,-8,4,-11,-4,-4,0,42
1523208955769167,-29,-2,6,3,3,5,-7,7
1523208955791218,-2,-12,-1,9,-2,-1,2,-42
1523208955791218,-99,-16,12,13,-1,0,-3,-46
1523208955792182,34,11,3,-7,0,-3,6,70
1523208955792182,5,11,-10,-15,1,-1,-9,-29
1523208955813236,11,13,0,1,6,2,0,27
1523208955813236,14,-14,-20,-40,-12,-8,-4,22
1523208955814239,-34,-1,4,42,-5,-3,-4,-55
1523208955814239,29,14,23,-10,1,0,17,29
1523208955828324,-5,-15,-45,4,2,3,-5,25
1523208955828324,75,-19,-8,16,3,-1,-2,17
1523208955829278,-28,0,13,-21,-6,-9,-23,-37
1523208955829278,73,37,2,-9,-4,-3,10,25
1523208955851338,-29,-10,14,0,-2,0,2,25
1523208955851338,71,-7,-11,17,-1,2,-3,37
1523208955851338,7,-1,5,-1,3,6,-7,-5
1523208955851338,-51,-51,-4,-36,2,-2,1,-52
1523208955873631,12,22,14,75,0,-1,7,17
1523208955873631,-30,10,18,-39,-5,-2,-6,-2
1523208955874398,-44,-14,2,-18,-7,-3,6,-5
1523208955874398,31,-3,-13,-2,-1,-2,-9,15
1523208955887434,-20,1,-2,-16,-5,-5,-5,-41
1523208955887434,25,13,-21,-1,3,-1,-2,19
1523208955896458,25,4,29,17,4,4,-1,-73
1523208955896458,-22,-19,-28,-23,-4,2,3,39
1523208955911497,-30,-1,22,9,-3,-3,-1,-2
1523208955911497,-66,27,7,24,3,4,0,-11
1523208955911497,82,7,-4,-23,-2,-3,0,4
1523208955911497,31,-10,-12,18,0,-2,1,23
1523208955933556,8,-17,-2,-21,-1,-2,-3,-4
1523208955933556,-42,2,9,9,3,3,1,-34
1523208955934599,8,12,-12,-16,-4,-4,2,57
1523208955934599,-8,-21,8,49,-1,-1,-12,-57
1523208955947592,25,16,-11,-71,-2,0,-3,2
1523208955947592,15,-14,11,44,7,9,26,40
1523208955955615,-78,-31,-18,-20,-9,-10,-12,-43
1523208955955615,48,14,36,27,0,-5,-8,21
1523208955971697,-9,15,-14,-17,-2,-2,0,-23
1523208955971697,42,1,-8,-7,-2,-1,-12,-13
1523208955971697,-32,-22,-1,0,2,2,4,60
1523208955971697,-34,-15,5,-17,-6,-5,-9,-65
1523208955993766,21,1,1,-5,-3,-2,-5,2
1523208955993766,-14,-5,10,27,-4,-4,2,37
1523208955994720,6,5,-12,-19,0,5,6,27
1523208955994720,11,23,-40,-18,-2,0,1,4
1523208956007989,2,-19,18,28,-2,-2,-1,15
1523208956007989,-36,-16,39,39,-5,-13,-24,-68
1523208956016009,24,19,-5,-21,-1,5,13,36
1523208956016009,-68,11,7,11,0,4,4,28
1523208956030814,16,-5,-41,-31,-1,0,-11,-49
1523208956030814,20,1,18,-36,-1,-2,6,11
1523208956039071,-22,7,-1,38,3,2,-1,-63
1523208956039071,11,16,13,-11,4,4,12,50
1523208956053876,-3,-16,28,15,-5,-2,4,35
1523208956053876,-42,2,-15,-17,-2,-6,-12,-13
1523208956054879,23,22,-5,0,3,2,-3,-9
1523208956054879,-47,-5,-11,-52,-4,-1,5,29
1523208956068149,-70,1,4,57,4,-1,0,-63
1523208956068149,11,-4,-13,0,0,0,0,37
1523208956075934,64,10,26,35,0,-6,-2,-44
1523208956075934,18,-11,-33,-75,-3,2,-8,3
1523208956090974,-43,13,24,11,-3,-6,-3,22
1523208956090974,-14,18,3,7,-5,-4,-1,-9
1523208956091977,-11,-11,-18,25,2,6,10,-6
1523208956091977,6,-6,-9,8,1,3,-9,-45
1523208956114166,37,4,-22,-38,-1,-1,-1,-53
1523208956114166,40,0,7,-19,1,5,11,49
1523208956114166,-111,-11,21,32,-1,-5,-6,-34
1523208956114166,36,-10,9,25,-6,-5,-25,25
1523208956128083,52,-7,0,-10,-1,-1,13,57
1523208956128083,-49,-16,3,-16,3,4,26,-29
1523208956136096,24,-2,2,-10,-1,1,6,45
1523208956136096,97,24,-15,-1,-3,-5,-8,-3
1523208956151134,-57,-35,-6,-45,1,2,-3,4
1523208956151134,25,1,5,89,0,-3,-8,-37
1523208956152137,25,17,13,-12,-4,-6,-6,33
1523208956152137,-5,-7,16,5,0,-4,1,-17
1523208956174215,6,7,-28,-17,5,9,13,34
1523208956174215,59,21,-6,-12,-2,-1,1,64
1523208956174215,-75,-41,-43,-2,-7,-10,-29,-103
1523208956174215,-13,7,19,34,-1,-2,8,-38
1523208956188233,-32,9,-12,-3,-3,-1,5,85
1523208956188233,48,-3,-16,-47,-2,-1,-13,-95
1523208956196257,82,5,-18,15,6,4,-6,46
1523208956196257,-79,-42,19,2,-9,-14,9,-19
1523208956211294,83,24,27,38,2,2,-15,17
1523208956211294,7,-5,-9,-24,2,3,24,34
1523208956211294,-4,6,-7,1,-4,-6,-13,29
1523208956211294,-58,-13,-3,-57,-4,0,-1,-41
1523208956233354,42,20,23,28,1,-1,-10,15
1523208956233354,22,0,-9,0,1,2,-7,-17
1523208956234356,-93,-50,15,-42,-1,-1,12,65
1523208956234356,51,15,-8,59,5,0,1,39
1523208956257415,30,5,0,11,-6,-8,-17,-42
1523208956257415,0,-13,-5,-21,3,5,1,35
1523208956257415,27,24,-3,-14,2,10,27,54
1523208956257415,1,-2,-9,0,-1,-1,-4,23
1523208956271695,-14,-12,-32,-96,-3,-3,3,-34
1523208956271695,-86,-11,26,97,-3,-9,-31,-102
1523208956271695,15,-8,41,-50,-1,-4,10,25
1523208956271695,31,7,5,2,1,1,-3,31
1523208956293515,51,31,2,14,5,4,7,106
1523208956293515,-74,-8,-16,-56,5,-2,-17,-42
1523208956294515,-61,-20,-17,31,-8,-2,5,-13
1523208956294515,66,26,30,13,2,4,6,17
1523208956316614,-24,-28,-30,-20,-4,-7,0,-76
1523208956316614,10,-21,-4,-17,-7,-5,1,75
1523208956317577,37,23,58,59,2,-5,-21,-115
1523208956317577,-71,8,-17,-27,2,4,-8,23
1523208956330611,-67,-35,8,39,-2,-2,5,-81
1523208956330611,67,43,-23,-42,-6,-3,-6,-46
1523208956331613,-59,-15,-28,-24,3,5,5,-16
1523208956331613,37,4,26,11,-5,-2,2,69
1523208956353673,20,-8,12,25,1,-1,1,-78
1523208956353673,-3,-16,-24,-13,1,1,-15,52
1523208956354677,69,-17,7,21,-1,-2,-11,-63
1523208956354677,-43,8,4,-1,0,-4,20,-4
1523208956376738,17,1,15,-21,-1,1,-2,106
1523208956376738,-33,-26,-43,-21,-13,-10,5,-77
1523208956377738,94,30,10,-6,3,2,-11,77
1523208956377738,-44,-12,2,75,7,6,-5,36
1523208956390771,15,10,13,-48,-4,0,40,-14
1523208956390771,-62,-3,5,4,-1,-5,-7,-35
1523208956391780,47,-2,-53,-87,-5,0,3,13
1523208956391780,-27,-7,3,35,-4,-3,-8,-56
1523208956413831,-12,27,4,31,4,3,-15,51
1523208956413831,62,15,-6,-22,2,3,7,29
1523208956414991,-42,-14,10,-1,-10,-8,-19,-108
1523208956414991,52,5,-16,-23,5,2,24,83
1523208956436895,15,-6,-1,15,-3,-3,-2,-5
1523208956436895,26,14,5,12,-1,1,4,77
1523208956437897,-23,11,10,-26,-2,-1,0,8
1523208956437897,-16,-31,-14,17,-3,-5,-30,-73
1523208956450930,57,0,7,26,0,7,16,70
1523208956450930,-50,-12,21,-2,6,3,23,27
1523208956451933,46,7,-24,-11,1,-6,-19,57
1523208956451933,-55,11,-20,-20,-1,-4,-7,-22
1523208956474164,-99,-23,-17,-67,-7,-3,-31,-26
1523208956474164,27,-42,82,103,1,-7,27,27
1523208956474164,19,-1,-13,-13,-1,3,18,49
1523208956474164,47,10,-8,-27,0,0,-13,12
1523208956497052,49,5,5,10,6,5,24,-64
1523208956497052,-3,28,-4,-22,-3,3,-3,29
1523208956497052,-23,-20,5,15,-5,-5,4,-19
1523208956497052,-17,-8,53,31,2,1,11,24
1523208956511098,11,9,-2,32,0,-5,-23,-33
1523208956511098,-21,-5,-8,-43,-1,3,-7,26
1523208956512095,10,-8,-24,-27,1,3,-14,-14
1523208956512095,-42,-2,-9,-7,-7,-3,34,-67
1523208956533150,63,18,0,-4,1,-4,-12,51
1523208956533150,10,-2,-8,10,0,3,-2,15
1523208956534152,36,25,5,21,0,-1,-14,5
1523208956534152,-8,14,-15,-31,2,9,17,61
1523208956556211,-15,-3,-6,9,-6,-4,-10,46
1523208956556211,-58,-5,9,-1,-5,-11,-20,-125
1523208956557213,-4,23,-3,-7,-4,2,22,43
1523208956557213,-4,-23,-18,-10,-4,-2,2,6
1523208956571252,-27,-13,1,30,-1,-3,-2,67
1523208956571252,-3,-1,-17,-37,1,9,-1,3
1523208956572253,-17,3,12,15,1,-3,-8,-54
1523208956572253,-20,40,-25,-14,1,-5,-16,-18
1523208956593311,-50,-40,55,30,-5,2,1,0
1523208956593311,67,-46,-15,15,-4,-6,13,14
1523208956594312,20,17,3,2,-1,-5,3,-11
1523208956594312,40,-4,-12,-2,3,2,-9,-1
1523208956616372,-53,-14,-16,-41,-3,0,-3,-46
1523208956616372,23,35,-15,20,-2,-7,-21,-4
1523208956617374,30,-6,16,-1,-1,2,11,15
1523208956617374,-65,-6,-20,-35,0,6,16,-14
1523208956631415,-19,-31,5,31,2,1,-7,-5
1523208956631415,15,29,1,6,-4,-6,-11,-98
1523208956631415,-3,10,-33,-10,-1,-1,0,33
1523208956631415,-34,-53,7,-9,-5,-7,-24,-11
1523208956653469,24,25,-25,7,-3,-8,9,35
1523208956653469,-12,-9,-8,-22,3,4,29,24
1523208956654472,-42,-13,-2,21,-2,-1,13,5
1523208956654472,72,41,59,46,3,6,-4,0
1523208956676530,18,-11,-56,-36,-9,-10,-12,-26
1523208956676530,-15,-3,14,-8,1,-1,-13,44
1523208956677532,52,10,3,-1,2,4,9,19
1523208956677532,-20,12,2,-19,-1,0,-1,4
1523208956690571,-15,-24,3,-5,0,1,12,-25
1523208956690571,-40,-3,-3,4,-6,-2,-12,-8
1523208956698599,-16,-3,-6,-19,1,1,7,-8
1523208956698599,86,18,9,35,-1,0,-4,15
1523208956713628,-29,1,-2,-1,2,1,-2,53
1523208956713628,-17,6,-26,-75,-3,0,-19,-6
1523208956714632,-35,-45,10,114,-5,-10,0,-94
1523208956714632,-9,-3,5,-26,-7,-12,-19,60
1523208956736690,6,24,12,1,5,3,17,-35
1523208956736690,23,13,-11,-13,1,3,-10,56
1523208956737693,-15,-8,-15,-18,4,6,0,20
1523208956737693,50,3,11,13,1,2,9,14
1523208956750728,-30,6,-15,-18,-7,-5,-26,-26
1523208956750728,-19,-22,-7,-10,2,-2,1,-75
1523208956751730,86,25,36,21,3,1,-9,16
1523208956751730,18,-17,-11,23,-4,-9,17,-52
1523208956773789,12,11,-10,-51,-1,4,-5,5
1523208956773789,35,7,26,36,6,6,17,90
1523208956774792,-92,-30,-37,-31,-10,-12,-10,-54
1523208956774792,1,-10,-1,-9,3,3,-5,-41
1523208956796851,-4,26,21,8,5,7,13,59
1523208956796851,-20,-17,-26,-4,-6,-5,-3,-23
1523208956797853,-3,-9,15,-15,-3,-1,-13,-26
1523208956797853,2,2,8,22,-2,-3,-26,8
1523208956810888,15,11,16,-5,-6,-7,-12,31
1523208956810888,-1,22,10,19,4,5,8,37
1523208956811890,2,-3,-21,-28,7,12,22,21
1523208956811890,-35,-10,-42,-69,-7,-8,-22,-13
1523208956833954,45,9,28,60,-4,-7,-16,-10
1523208956833954,-99,-36,21,18,-6,-6,-13,-42
1523208956833954,34,19,0,-1,3,-1,-1,9
1523208956833954,76,25,-11,-12,5,9,16,92
1523208956857010,-22,-41,-24,-43,-2,1,28,-75
1523208956857010,48,39,21,76,5,1,6,16
1523208956857010,-38,-5,21,8,-4,-7,-20,51
1523208956857010,-61,6,2,0,1,2,4,-52
1523208956870043,-20,8,-14,-27,0,1,-33,-25
1523208956870043,42,3,-31,-42,2,3,49,-6
1523208956879072,-23,-17,41,16,-2,-2,-3,74
1523208956879072,9,-4,-10,33,-6,-9,5,-73
1523208956893115,-34,-3,2,5,2,-1,-5,-14
1523208956893115,55,18,-3,-11,-4,-5,6,36
1523208956894108,-3,21,-22,-34,6,8,3,10
1523208956894108,-31,-47,7,51,-6,-8,-27,-71
1523208956917170,31,4,13,16,-2,-3,5,-90
1523208956917170,-45,18,-19,-24,-4,0,-15,78
1523208956917170,8,-21,32,-12,-5,-3,5,10
1523208956917170,-14,8,-8,-2,1,2,10,19
1523208956930205,19,-19,-7,15,3,1,4,45
1523208956930205,0,-10,8,-13,-8,-9,-38,-51
1523208956939238,28,16,-33,-10,5,4,17,37
1523208956939238,-30,3,23,-13,-9,-2,19,52
1523208956953266,-9,5,-12,25,-1,-4,-21,-20
1523208956953266,24,-29,-3,-31,2,1,-4,18
1523208956954268,-19,-6,45,31,-9,-12,-13,-9
1523208956954268,51,12,-15,36,6,5,4,0
1523208956976375,96,26,24,-43,-2,5,1,49
1523208956976375,-65,-1,-1,13,-2,-7,-2,17
1523208956977329,-22,-12,-25,-18,-2,1,-16,11
1523208956977329,-48,-18,13,-18,-2,-7,-12,-5
1523208956990364,47,-3,1,13,1,-5,22,43
1523208956990364,20,-14,-17,-11,-2,3,-2,-4
1523208956998387,-21,-5,21,7,-6,-3,6,-11
1523208956998387,-4,6,2,-38,1,3,5,22
1523208957013425,-13,13,-17,44,2,1,-6,-10
1523208957013425,90,-3,14,4,2,4,-5,44
1523208957014431,-21,13,-31,-17,-2,-10,23,-106
1523208957014431,42,-1,-16,-16,-1,2,-6,-35
1523208957036487,-33,-31,3,-5,-5,-4,3,26
1523208957036487,21,17,5,14,1,0,0,-83
1523208957037489,12,10,2,15,5,5,-15,11
1523208957037489,44,-5,-4,-34,-3,0,0,71
1523208957050525,-59,-1,7,8,2,2,23,-16
1523208957050525,-34,-11,2,40,-2,-12,-16,-26
1523208957058549,21,4,-18,-45,-1,5,-19,16
1523208957058549,4,-3,17,48,2,0,42,40
1523208957073821,-41,-27,-5,-14,-3,-2,-24,-54
1523208957073821,-45,-3,-3,3,-5,-3,-2,-10
1523208957074594,7,13,-4,0,1,6,1,3
1523208957074594,23,4,-20,-24,-1,0,12,2
1523208957096645,-102,-20,-12,-11,-5,-8,-34,-17
1523208957096645,46,-6,10,-23,3,0,23,9
1523208957097649,24,8,-17,62,-1,-3,10,13
1523208957097649,46,-1,38,-12,-10,-3,-13,43
1523208957119863,-57,4,1,3,4,-1,18,-8
1523208957119863,63,13,5,-7,-2,0,-15,1
1523208957119863,-18,2,-19,-33,0,2,9,48
1523208957119863,-26,-20,-28,-16,6,9,6,-30
1523208957133744,52,13,13,13,-2,1,-9,17
1523208957133744,-92,-22,-26,1,-9,-9,0,-70
1523208957134747,-7,-11,20,41,1,-1,-2,-7
1523208957134747,-3,17,-7,-4,-2,-3,-14,26
1523208957156807,30,-22,-23,-47,-4,-5,10,51
1523208957156807,-77,-5,1,-10,3,5,-10,-22
1523208957157814,15,-17,4,12,-6,-4,-29,15
1523208957157814,-22,6,-8,7,1,-3,56,-97
1523208957171016,11,6,-1,-23,2,5,1,36
1523208957171016,118,20,9,-1,0,4,2,54
1523208957178865,-51,-22,1,21,-1,-3,-8,-44
1523208957178865,10,14,10,-19,-2,-2,-27,32
1523208957193909,-12,3,-1,16,-2,5,-21,8
1523208957193909,-52,10,-12,-13,-2,-5,47,-16
1523208957193909,-5,-15,13,-11,-2,2,-5,-17
1523208957193909,-69,2,-27,16,1,-2,-4,-50
1523208957217007,-2,-8,0,-20,-1,-3,-1,5
1523208957217007,-2,-25,31,47,3,5,-20,17
1523208957217993,45,20,-28,-46,-4,-3,1,1
1523208957217993,-4,9,4,4,1,-2,-32,-3
1523208957239260,-17,9,25,35,4,5,48,-35
1523208957239260,62,6,-6,-64,-4,-2,2,10
1523208957240027,-15,-25,-12,15,-2,0,3,1
1523208957240027,-24,2,-12,23,-4,-6,-11,11
1523208957253102,90,30,-7,-17,2,4,-8,-56
1523208957253102,9,16,3,0,0,2,8,101
1523208957254065,12,-31,-10,-15,-1,-7,-10,-94
1523208957254065,-10,-4,6,-23,-8,-8,-17,-21
1523208957277127,33,5,-9,4,-2,-5,-13,-8
1523208957277127,-63,-8,13,12,-2,1,-1,6
1523208957277127,54,19,4,-2,0,-1,-2,70
1523208957277127,-73,-34,-22,-24,-1,0,4,-48
1523208957299185,-32,-43,14,26,-4,-3,13,-42
1523208957299185,7,22,-2,37,3,-2,8,-19
1523208957300188,-25,7,2,-36,0,2,6,24
1523208957300188,19,-10,2,5,1,3,-7,-11
1523208957313457,24,17,-19,-17,-2,-1,7,51
1523208957313457,-68,-39,-10,11,-6,-7,-22,-34
1523208957314223,-29,19,-10,21,-1,-1,26,7
1523208957314223,38,14,-7,-33,1,4,10,30
1523208957336284,-24,-10,-6,56,-6,-7,-22,-6
1523208957336284,74,5,-2,-17,-2,-5,2,41
1523208957337285,-28,-11,6,0,-1,-1,-14,-10
1523208957337285,-22,12,12,25,5,6,7,36
1523208957359357,20,-17,-21,-30,-3,-4,-11,-25
1523208957359357,7,6,-9,-2,0,3,1,-6
1523208957360347,-2,15,12,-11,-3,-4,-10,23
1523208957360347,43,-9,-4,1,1,-3,-28,13
1523208957373618,-5,-10,-5,-2,0,0,28,83
1523208957373618,4,7,16,22,4,4,-13,-48
1523208957374387,75,15,-23,-26,-5,4,3,37
1523208957374387,-23,-38,35,-11,-6,-14,-11,-74
1523208957396442,-13,1,2,31,-1,-7,1,-50
1523208957396442,4,8,5,-24,-4,1,5,35
1523208957397457,-24,15,-4,7,2,1,21,-66
1523208957397457,4,-11,-20,-4,-1,7,5,41
1523208957418737,7,12,-13,-44,-4,-7,-24,-29
1523208957418737,55,2,14,4,0,6,18,-4
1523208957426523,9,-11,49,55,-1,-3,14,-59
1523208957426523,-25,-2,-36,-84,-1,-1,-1,66
1523208957433541,-30,-7,15,80,-5,0,-11,-49
1523208957433541,34,-11,-19,-43,-2,-5,-17,71
1523208957434545,0,3,-15,-4,-3,-1,3,-10
1523208957434545,15,23,21,9,-1,-4,7,46
1523208957456603,-8,-21,-13,-28,-1,-1,-6,-81
1523208957456603,2,7,6,11,0,-3,2,17
1523208957457608,-7,3,-8,-10,2,0,-18,57
1523208957457608,31,-4,-1,19,-1,1,-3,-64
1523208957479665,-3,-5,20,-13,1,-2,8,77
1523208957479665,-14,0,-18,3,-5,-5,-10,-72
1523208957479665,6,7,9,-22,1,0,17,-14
1523208957479665,56,6,-18,41,4,8,-8,6
1523208957493708,-88,-1,10,-7,-5,0,15,78
1523208957493708,-53,-9,11,26,2,-6,-23,-113
1523208957494704,5,4,-1,-21,-2,1,-6,81
1523208957494704,-4,-2,-11,1,-4,3,1,-82
1523208957516762,42,-7,-3,-31,2,5,14,2
1523208957516762,-65,1,24,28,-3,-7,-9,15
1523208957517765,-56,-19,6,8,-4,-4,-5,-10
1523208957517765,-35,-21,6,8,-1,0,6,46
1523208957539863,28,31,-9,-14,4,2,-12,-45
1523208957539863,31,14,-37,-59,-4,0,0,21
1523208957539863,-6,-28,18,72,-1,-1,1,-24
1523208957539863,-32,17,16,4,0,-9,-9,45
1523208957553860,17,7,-7,-15,-1,0,4,-27
1523208957553860,39,-4,-14,-1,2,8,3,52
1523208957553860,-54,8,-29,-29,-1,-1,16,12
1523208957553860,79,-2,40,19,-4,-6,-7,13
1523208957576929,-19,-15,13,28,3,0,-1,20
1523208957576929,32,-1,-6,-6,2,2,26,4
1523208957577925,127,32,-10,-4,0,-1,-23,19
1523208957577925,-84,5,-19,-23,-3,-1,9,-20
1523208957598981,56,29,-1,13,2,1,-14,30
1523208957598981,-47,-34,-5,-24,-3,3,9,-33
1523208957599984,3,-12,-5,-12,-3,-6,-7,29
1523208957599984,-30,12,7,7,-3,-5,-3,18
1523208957614078,41,24,16,26,0,-6,-20,-52
1523208957614078,-17,-13,-12,4,4,4,-6,53
1523208957614078,-33,-2,4,-15,-4,-8,-24,-76
1523208957614078,18,1,-39,-24,-3,2,1,18
1523208957637082,-51,-19,39,18,-2,-6,4,3
1523208957637082,14,-3,6,19,0,-6,-27,-45
1523208957638169,4,-20,-8,-25,-6,-1,36,16
1523208957638169,56,14,3,12,6,6,-7,8
1523208957659152,-43,5,-25,-29,0,1,2,11
1523208957659152,12,-2,0,16,-1,-2,3,-1
1523208957660144,-31,-7,12,17,3,2,-28,-4
1523208957660144,-6,-11,0,-8,-5,-10,2,-14
1523208957673413,22,29,-33,-31,-1,3,20,23
1523208957673413,-117,-10,43,14,1,6,7,-40
1523208957674181,-47,-14,-14,12,-1,-4,-4,91
1523208957674181,-6,-14,-9,7,-4,-8,-36,-92
1523208957697283,41,-2,-4,-23,-2,-1,35,17
1523208957697283,11,17,3,8,-6,-7,-2,32
1523208957697283,29,17,-11,-6,0,3,8,8
1523208957697283,-78,-1,15,6,-1,-1,-5,-43
1523208957719303,20,-8,14,5,-1,0,-13,17
1523208957719303,45,16,-29,-14,-1,-1,-5,10
1523208957720306,-1,-1,5,-4,-3,3,-22,-33
1523208957720306,-32,-23,-4,3,0,-3,15,22
1523208957733339,31,7,-3,-14,-3,0,-4,-7
1523208957733339,-69,-16,-4,4,0,0,18,-23
1523208957734341,7,4,-5,9,-1,-4,-5,23
1523208957734341,16,-3,12,-6,3,9,-32,-30
1523208957756400,-1,-14,-6,14,5,-2,35,22
1523208957756400,-59,-2,6,18,-6,-4,1,-33
1523208957757407,-9,-1,-2,-11,0,-4,-38,-21
1523208957757407,42,-1,-4,-4,0,1,44,39
1523208957779463,-9,2,-10,10,0,4,-15,8
1523208957779463,33,-2,-13,-18,-2,-3,-18,-12
1523208957780471,42,3,22,-6,-1,5,6,-23
1523208957780471,20,16,-6,14,0,-3,-3,14
1523208957792501,22,-6,-22,-28,-4,2,-4,2
1523208957792501,-54,-23,31,17,1,-8,0,-1
1523208957801518,1,-4,26,39,-1,-2,24,-9
1523208957801518,10,16,-7,-13,-1,2,-6,32
1523208957816558,47,12,-34,-15,-6,-8,-11,31
1523208957816558,99,25,-1,-12,0,6,61,-41
1523208957817561,-12,-14,-17,-2,5,11,-14,-18
1523208957817561,-48,-23,30,38,-4,-16,-33,57
1523208957839872,-21,-1,-27,-38,-4,2,1,-70
1523208957839872,24,2,2,26,-4,-4,25,35
1523208957839872,-39,-3,-29,2,3,-10,48,-1
1523208957839872,52,15,-12,-22,1,11,23,-7
1523208957852657,4,-7,5,8,-2,4,-19,50
1523208957852657,-49,-2,-3,15,-1,-4,-48,-38
1523208957860677,46,-1,14,-17,1,6,6,18
1523208957860677,-15,-10,-27,-14,-3,-3,9,-7
1523208957876719,-10,1,22,25,2,0,2,-15
1523208957876719,29,31,-7,-39,3,13,9,30
1523208957877721,-2,-8,9,-14,-3,-2,-4,30
1523208957877721,3,6,5,24,-3,-3,-8,-14
1523208957898779,-9,-12,29,15,-3,-10,-25,-49
1523208957898779,11,-12,-14,-25,2,2,-7,44
1523208957899782,-63,-19,8,15,-9,-11,-17,-42
1523208957899782,23,21,3,-15,2,6,16,58
1523208957913050,-112,-17,-1,0,-4,2,12,-100
1523208957913050,-32,-23,-4,-12,-4,-13,-1,42
1523208957921072,-5,6,-20,-10,0,3,-4,-27
1523208957921072,2,-2,1,-3,1,1,-18,-33
1523208957936878,25,12,11,6,-2,-1,-4,110
1523208957936878,-30,-21,-8,26,0,-1,-21,-101
1523208957937882,31,8,4,-20,-3,0,9,59
1523208957937882,15,-6,-3,14,1,-8,-16,-44
1523208957958948,0,12,-7,-17,1,4,-43,-8
1523208957958948,63,-8,-24,-16,1,-7,54,76
1523208957959941,-4,-5,37,28,-1,1,-10,-3
1523208957959941,13,12,12,8,-2,-2,-13,-60
1523208957973210,-1,-24,-19,-28,2,4,27,-7
1523208957973210,-28,-35,-8,24,-4,-4,-28,-23
1523208957980996,11,22,2,9,-2,-8,-15,-43
1523208957980996,2,4,-21,-25,2,1,6,16
1523208957997039,-3,6,-14,-19,-1,-2,-29,0
1523208957997039,-50,12,38,63,4,10,29,30
1523208957997039,22,9,20,5,2,-4,18,52
1523208957997039,-70,-13,-33,-10,-3,-2,-1,-53
1523208958019332,-3,2,-3,-4,-3,-8,2,-14
1523208958019332,41,20,-11,-24,-1,2,-10,34
1523208958020100,10,0,0,2,1,4,-6,-22
1523208958020100,5,-29,-12,2,-8,-1,9,62
1523208958033135,-50,-5,3,11,0,-5,39,-7
1523208958033135,70,21,5,-14,-2,2,-28,10
1523208958041163,-9,-7,-64,-51,-2,3,14,58
1523208958041163,-13,-34,85,59,-6,-9,-21,-112
1523208958056196,0,-23,-19,22,1,-9,-12,53
1523208958056196,14,21,5,-15,-1,-4,-1,0
1523208958057198,2,-3,-7,-13,5,6,-9,30
1523208958057198,35,8,-23,-34,-5,1,9,-15
1523208958079259,27,0,24,26,-7,-4,-25,-31
1523208958079259,51,-36,14,-1,1,2,7,-47
1523208958081262,-33,-15,-26,-14,-5,-6,-15,-11
1523208958081262,35,34,-8,-61,-3,0,-4,-12
1523208958093293,8,-4,-16,38,4,8,41,72
1523208958093293,-12,-4,25,52,-5,-9,-47,20
1523208958102319,-12,-3,9,8,-3,-7,0,-81
1523208958102319,-1,15,12,7,2,0,-11,64
1523208958116356,26,17,-17,-46,3,2,21,-36
1523208958116356,2,4,-15,-56,2,9,25,124
1523208958122607,-34,-30,2,60,-2,-3,-22,-112
1523208958122607,-42,2,34,42,2,-8,12,23
1523208958139653,56,2,1,-10,0,1,22,51
1523208958139653,-5,-2,1,-7,1,5,-39,-22
1523208958140425,-4,14,-10,-36,2,-2,21,36
1523208958140425,6,-9,-23,-12,-1,-5,-44,-39
1523208958161477,-60,-7,42,40,-3,-3,-19,-62
1523208958161477,-75,-14,11,-8,-3,-8,8,11
1523208958163485,52,10,-29,-40,-5,6,20,52
1523208958163485,-9,21,-9,3,2,2,37,-25
1523208958175516,-13,-16,11,1,-4,-8,-68,-3
1523208958175516,-2,-14,-24,-22,1,5,17,11
1523208958182531,-16,7,28,85,2,-6,-32,-64
1523208958182531,23,7,-14,-34,1,3,24,97
1523208958199579,-10,9,-30,-27,1,3,-15,18
1523208958199579,13,7,37,48,0,-3,2,-64
1523208958200580,17,-2,-10,-29,-2,7,14,97
1523208958200580,-72,-15,-20,-11,-3,1,-12,-66
1523208958221870,15,12,8,-32,3,6,46,60
1523208958221870,-9,8,-22,44,-1,-7,-24,-5
1523208958223691,3,-6,-26,-27,-1,0,1,29
1523208958223691,-8,-2,16,6,-2,0,-10,13
1523208958235674,-76,5,-20,-21,2,8,31,1
1523208958235674,13,20,-25,-46,1,8,-1,40
1523208958242692,-47,-31,10,49,-6,-9,-18,-82
1523208958242692,13,-13,5,15,3,-7,8,-52
1523208958258735,4,6,-31,-40,-7,-5,-23,-29
1523208958258735,24,-15,39,4,-5,-1,21,61
1523208958260739,-35,14,-5,-27,5,4,-7,57
1523208958260739,33,-11,-9,46,4,11,45,-36
1523208958281797,-13,-5,2,34,-3,-15,-39,-43
1523208958281797,7,23,-28,-34,-2,-1,25,38
1523208958283802,40,-6,-4,-57,0,5,4,42
1523208958283802,-81,-18,-38,11,-6,-5,-32,-50
1523208958295833,-16,-46,65,64,3,2,32,64
1523208958295833,1,8,-39,-22,-2,-1,-28,-20
1523208958303087,50,28,20,7,4,-6,-16,36
1523208958303087,26,9,-1,-39,-4,5,39,70
1523208958318894,14,-19,-15,-9,-8,-9,-26,-61
1523208958318894,-72,-10,10,13,-2,-6,-24,-41
1523208958320899,53,3,19,14,-2,1,39,88
1523208958320899,10,13,-15,-17,5,5,-8,-39
1523208958341960,15,-4,33,46,-2,-1,-37,-5
1523208958341960,20,8,-5,-19,-5,-9,7,6
1523208958342960,4,9,-7,-8,-1,1,-5,-57
1523208958342960,28,5,-2,-1,8,4,7,71
1523208958355992,1,0,9,-26,-4,0,-11,19
1523208958355992,-86,-16,20,10,-3,-13,-26,-128
1523208958363246,-28,-2,-3,5,-2,-3,-4,27
1523208958363246,68,4,-2,-3,-4,6,60,68
1523208958379054,101,9,-2,-21,2,5,11,99
1523208958379054,-18,-15,42,14,0,1,-29,-22
1523208958381059,-17,-13,-76,-27,-12,-9,31,-108
1523208958381059,-27,-8,31,37,3,-5,-58,38
1523208958402115,85,19,26,19,-4,5,48,102
1523208958402115,-29,8,-16,-21,-5,1,32,11
1523208958403184,-7,-9,12,-5,1,0,-10,-4
1523208958403184,22,18,5,-13,1,6,-11,17
1523208958416152,-16,0,-30,-7,3,-2,-9,16
1523208958416152,16,3,-11,-8,-10,-10,-30,-11
1523208958423170,-35,10,-29,19,6,6,12,-39
1523208958423170,71,-12,-49,-64,-6,1,22,38
1523208958439449,-59,-8,44,69,1,-4,-26,-72
1523208958439449,26,11,32,25,2,0,12,-29
1523208958441219,1,0,19,-15,-7,-7,-3,79
1523208958441219,30,-15,-67,-7,-5,-7,-6,18
1523208958462362,-72,8,-24,-45,2,3,-16,-19
1523208958462362,127,-11,-7,2,-1,2,-8,94
1523208958463277,-45,-4,51,24,3,-2,27,-125
1523208958463277,-19,4,15,-5,-2,-3,-22,11
1523208958476313,-10,-6,-8,-2,3,1,17,-18
1523208958476313,21,3,-23,-6,-5,-5,-53,-16
1523208958483332,15,0,13,1,3,-3,16,16
1523208958483332,-76,-5,30,10,-3,-4,14,30
1523208958499374,14,2,-30,-2,-1,-7,-24,-21
1523208958499374,-4,5,-1,-15,-2,5,27,11
1523208958500376,60,3,-26,-32,-5,0,3,90
1523208958500376,-46,-30,47,54,2,-10,-31,-101
1523208958521667,12,35,17,-5,-1,-3,-2,66
1523208958521667,-2,-5,-15,12,2,0,-15,25
1523208958523439,20,11,-1,-7,-2,-3,26,45
1523208958523439,35,13,19,-7,2,7,10,34
1523208958536472,-18,-7,-41,-35,-7,-2,-16,-78
1523208958536472,-12,-3,-33,-6,-1,-5,5,-33
1523208958542492,-8,-2,40,8,-2,-2,-20,-31
1523208958542492,8,-8,32,86,1,-2,-31,12
1523208958559535,-6,-18,9,-27,1,-2,39,23
1523208958559535,-10,4,-15,-21,2,-10,6,-22
1523208958560536,-35,-8,36,-5,-3,4,-19,56
1523208958560536,-62,-7,-8,-23,-5,-8,22,-35
1523208958581630,13,2,-5,8,2,-1,4,35
1523208958581630,43,7,-1,14,3,13,12,30
1523208958583597,-6,7,20,-13,4,10,5,-14
1523208958583597,-29,-14,11,12,-2,-10,-9,43
1523208958595632,-70,14,-5,4,-7,-3,2,-59
1523208958595632,40,-7,-33,-57,-2,11,17,63
1523208958602649,-53,8,63,114,6,-11,-33,-14
1523208958602649,55,17,-16,-36,-1,9,13,55
1523208958619811,-3,-22,10,-11,1,-1,-20,-32
1523208958619811,-37,8,-10,-8,4,-2,15,-5
1523208958620695,64,-3,-38,-29,-10,0,-5,52
1523208958620695,40,3,3,-7,-2,-9,-31,-114
1523208958641753,-10,10,10,11,3,8,61,31
1523208958641753,8,10,5,-25,0,4,-26,41
1523208958643758,20,-3,-27,15,-1,-7,26,-23
1523208958643758,12,8,15,-10,1,-1,-1,-3
1523208958655789,-3,-15,15,-34,-10,-5,-3,-50
1523208958655789,-65,-36,12,53,5,0,-17,-13
1523208958664813,10,-17,-24,-9,-2,-4,-7,-30
1523208958664813,-7,6,-31,34,3,14,27,33
1523208958678851,23,11,29,-29,-4,-5,-1,27
1523208958678851,-10,-12,4,-6,-7,-11,-7,53
1523208958680856,18,-1,-12,-17,-1,-4,-28,-96
1523208958680856,25,0,10,-11,4,-3,4,65
1523208958702147,55,-1,-39,-18,-5,1,-35,-78
1523208958702147,-92,-23,30,52,2,-6,39,-23
1523208958703989,-4,1,-16,-34,2,8,1,24
1523208958703989,52,-6,-19,-27,-3,-1,7,21
1523208958714946,29,11,19,70,2,-2,-4,-3
1523208958714946,-8,11,0,-10,-4,-2,-9,-33
1523208958723974,-12,-4,12,11,2,5,6,60
1523208958723974,-8,-14,-20,-14,-7,2,-12,-19
1523208958739246,-57,-8,3,-1,3,-8,-14,-36
1523208958739246,15,2,-15,-15,-7,-6,-25,-128
1523208958741023,3,6,-12,-11,3,5,-9,22
1523208958741023,-63,7,11,-43,-5,-8,23,87
1523208958762307,-32,-11,-5,68,-5,-4,-40,-40
1523208958762307,50,4,49,-27,2,6,53,58
1523208958763079,-86,-32,-84,-14,-9,-18,-19,25
1523208958763079,20,13,32,-45,0,4,-15,-64
1523208958775108,5,3,42,-8,3,4,8,21
1523208958775108,24,23,-3,28,3,0,-19,-51
1523208958784130,-10,3,43,35,-5,-3,-7,58
1523208958784130,-3,-6,-16,-1,-3,-12,28,-53
1523208958799406,8,8,-52,-24,-1,-2,8,80
1523208958799406,15,1,-18,11,1,7,-21,6
1523208958801175,7,9,-5,-29,2,1,4,-41
1523208958801175,4,16,-31,11,-3,4,-15,29
1523208958822312,11,4,26,32,6,4,39,15
1523208958822312,-24,-8,-2,-12,-7,-7,29,61
1523208958823240,71,5,18,12,-1,-4,-51,-128
1523208958823240,-28,-15,1,14,2,-10,-10,20
1523208958835265,43,6,-62,-45,3,9,35,64
1523208958835265,15,1,-11,-6,-2,6,-8,60
1523208958844290,-10,0,63,66,3,-2,4,-42
1523208958844290,30,0,27,-31,-8,-6,-14,7
1523208958859338,-1,-3,-62,-4,2,2,-23,-35
1523208958859338,26,-13,-14,36,5,1,-9,-7
1523208958860333,-2,30,80,-25,1,9,47,50
1523208958860333,-16,-28,-63,-4,-7,-4,3,45
1523208958881389,-7,4,49,-28,-6,-9,24,-7
1523208958881389,32,16,26,0,-2,-1,-19,14
1523208958883393,-41,-33,-39,3,0,2,-6,-24
1523208958883393,15,28,66,68,3,0,-1,69
1523208958895468,18,19,-6,-33,-3,7,-56,27
1523208958895468,29,1,-28,23,0,-6,75,-36
1523208958904451,-43,-10,-39,-40,-8,-1,3,34
1523208958904451,-12,-3,7,-10,-2,0,12,-1
1523208958919726,1,3,21,19,1,-4,-34,-97
1523208958919726,20,-10,22,-13,-2,5,-7,99
1523208958920492,-27,6,18,12,2,-2,-6,-84
1523208958920492,-33,-8,-21,0,0,-4,-67,-62
1523208958941549,8,4,20,6,3,-3,35,21
1523208958941549,-27,-29,-12,-21,-6,-3,18,13
1523208958943554,-19,-15,43,-6,0,-4,2,23
1523208958943554,-51,4,32,-20,-7,-2,-34,-76
1523208958955821,43,-6,46,41,3,2,-4,34
1523208958955821,-109,-10,-27,-15,-6,-8,-21,-24
1523208958964610,45,23,-45,-64,-1,8,44,35
1523208958964610,42,-5,28,68,5,6,45,51
1523208958979652,38,-12,2,24,-7,-13,-13,73
1523208958979652,-16,-21,-5,-18,-4,-14,-52,-97
1523208958981655,31,10,-48,-22,3,7,42,-3
1523208958981655,-25,0,45,-19,1,3,8,-21
1523208959001943,10,-23,-81,3,-6,-1,7,54
1523208959001943,-12,-1,26,15,2,6,-25,-40
1523208959003713,-12,-11,-43,1,-2,-13,-34,42
1523208959003713,36,-2,-82,-39,3,6,2,-12
1523208959015751,-33,30,108,11,-3,1,5,49
1523208959015751,-1,-24,-76,-1,-2,-21,-55,-41
1523208959024769,10,13,41,12,-1,14,10,23
1523208959024769,19,-10,-46,3,-2,-1,60,8
1523208959039042,1,-4,-50,-45,1,10,17,12
1523208959039042,-16,-8,11,28,-1,0,-2,81
1523208959052843,-20,-1,8,20,-3,-11,-52,-91
1523208959052843,55,10,11,-3,-1,-6,9,25
1523208959061868,30,2,-48,-20,-2,1,12,-17
1523208959061868,-69,8,-66,-25,-3,-1,8,-84
1523208959063876,-4,-11,26,14,3,1,32,58
1523208959063876,16,19,43,16,-1,-3,-38,19
1523208959091948,-34,-12,-25,-28,5,6,-1,-124
1523208959091948,11,22,56,14,-5,0,24,10
1523208959092952,6,-15,7,-9,-7,-12,-28,20
1523208959092952,-22,7,4,10,1,-3,-16,-29
1523208959099202,11,8,-27,3,-5,-1,9,52
1523208959099202,57,18,34,-11,3,6,9,21
1523208959100972,-8,-4,-14,5,-2,1,-34,-24
1523208959100972,-5,-11,-3,-11,1,8,16,118
1523208959122263,-26,-12,-9,-13,-5,-12,-7,-63
1523208959122263,18,17,-34,18,5,3,-18,-16
1523208959123031,0,-8,-19,-18,0,0,-11,20
1523208959123031,39,-17,1,-5,-6,0,38,1
1523208959144088,-11,-25,13,0,-5,7,-16,69
1523208959144088,-21,2,-11,-20,0,0,28,-51
1523208959146095,21,2,26,25,4,3,-5,-9
1523208959146095,-33,20,-20,-2,3,0,-11,-30
1523208959159133,40,3,15,1,1,2,-5,38
1523208959159133,27,1,32,-3,-4,-10,8,-51
1523208959161132,-14,-13,-89,7,-2,-1,9,61
1523208959161132,7,-3,44,0,0,-5,-17,-42
1523208959181188,17,11,7,10,3,-5,17,27
1523208959181188,0,-26,25,-24,2,11,21,42
1523208959183191,44,19,-21,14,-7,-8,3,24
1523208959183191,-6,-6,-82,-12,-6,-2,-26,-41
1523208959204485,-47,-7,27,13,5,3,47,-29
1523208959204485,0,-22,-42,-8,-2,-1,-17,12
1523208959206261,-12,7,53,0,-3,-7,-24,-54
1523208959206261,-73,-24,-54,-26,-5,-1,-3,-1
1523208959218287,-22,-8,35,39,0,-8,-7,-45
1523208959218287,27,20,22,-6,1,0,27,99
1523208959225303,34,-4,7,-13,-1,2,-19,26
1523208959225303,-48,1,-2,-13,-1,-6,-13,-110
1523208959241347,11,-2,-30,-41,1,0,-17,48
1523208959241347,-14,-17,76,47,-4,-1,7,34
1523208959243350,-3,5,11,10,-1,-2,26,36
1523208959243350,8,10,33,9,-1,-1,-35,-25
1523208959264408,-16,-8,-11,-35,-3,-2,15,16
1523208959264408,35,31,-17,2,4,3,9,-73
1523208959265448,-9,8,24,-10,-2,-2,-11,3
1523208959265448,22,-4,32,4,-3,0,-6,21
1523208959278443,-47,-5,-35,7,-3,-9,18,-38
1523208959278443,2,2,6,-25,-2,-2,-7,26
1523208959285463,-5,-8,-41,-17,-1,4,-27,-29
1523208959285463,15,13,11,28,7,13,60,39
1523208959301741,66,6,-11,-1,-4,-14,-8,-10
1523208959301741,23,-5,21,21,-4,-9,-25,-20
1523208959303511,-107,-22,-35,-20,-6,-12,-7,-106
1523208959303511,61,-3,13,0,-1,-3,0,37
1523208959324569,7,0,22,-5,-2,6,-44,18
1523208959324569,-73,9,-44,2,1,1,45,78
1523208959325571,25,-45,10,8,1,0,10,-13
1523208959325571,-42,-13,-18,9,-3,-10,-27,-72
1523208959338839,-31,13,47,10,0,-1,-5,-6
1523208959338839,20,15,43,-19,5,5,-3,6
1523208959345623,31,15,-41,-23,-3,-1,11,89
1523208959345623,17,-18,-11,8,-6,-8,8,26
1523208959368683,-46,-5,22,26,-2,-1,-10,0
1523208959368683,5,-15,-11,-14,-1,-3,1,-19
1523208959370689,12,-9,5,-3,1,4,14,-17
1523208959370689,45,3,8,-31,7,12,15,115
1523208959383724,-43,-6,3,30,-5,-3,-25,-83
1523208959383724,-10,-3,15,-15,-4,-4,-32,-47
1523208959385729,2,-10,12,29,2,-2,-8,24
1523208959385729,-15,16,5,3,0,-6,-9,0
1523208959398999,48,0,-20,-33,3,9,10,63
1523208959398999,46,3,5,15,1,1,-6,11
1523208959405781,68,25,2,-16,-3,2,14,69
1523208959405781,-58,-4,33,61,2,-2,-19,-66
1523208959422059,-35,-19,-16,-16,0,-4,-13,-91
1523208959422059,31,5,-11,4,2,3,-9,20
1523208959423833,20,32,-20,-4,-2,-5,4,84
1523208959423833,38,-1,-9,-4,-4,-2,38,56
1523208959443883,-39,-1,-19,-8,-1,-2,-1,-67
1523208959443883,11,-5,-36,-33,-6,-2,32,9
1523208959445889,-63,-40,-1,28,-4,-4,-3,-35
1523208959445889,-20,-5,-48,8,-1,-1,-34,82
1523208959458927,33,20,40,31,1,4,35,2
1523208959458927,-17,1,7,-42,2,5,-4,25
1523208959464941,-21,14,-27,-11,1,-1,-22,-76
1523208959464941,-1,1,67,-13,-5,-6,17,59
1523208959481987,-20,-14,14,23,0,-1,-24,-66
1523208959481987,-23,-15,-1,11,-1,-7,-7,21
1523208959482987,54,16,21,15,4,10,16,15
1523208959482987,49,6,27,2,-2,0,-16,-15
1523208959504043,-14,-9,-30,-19,-7,-4,52,60
1523208959504043,4,25,4,-3,1,3,7,16
1523208959506050,81,14,37,12,1,2,-30,-39
1523208959506050,-42,-15,-8,-28,3,-3,-18,-38
1523208959518317,59,5,-32,18,-1,4,44,56
1523208959518317,-18,-16,-8,-14,-7,-12,-36,-78
1523208959527104,5,5,-4,14,1,-4,15,21
1523208959527104,-55,-11,42,36,-6,-2,43,1
1523208959541143,-7,0,-1,-28,-4,-7,-35,-2
1523208959541143,-6,4,17,28,2,2,0,16
1523208959543147,-42,4,-10,-63,-1,4,-4,-9
1523208959543147,-8,-24,-12,16,4,0,-7,1
1523208959571456,-71,5,0,-5,-3,-4,-26,81
1523208959571456,-17,12,46,30,2,-2,-13,-100
1523208959573227,-35,-3,-99,-24,1,0,-2,6
1523208959573227,38,8,9,-7,-2,2,10,28
1523208959578241,9,-11,25,22,-2,-5,-25,7
1523208959578241,-10,-26,-28,-44,-3,2,3,11
1523208959587265,-21,-16,52,44,0,5,7,26
1523208959587265,21,21,-1,-3,-1,0,20,5
1523208959601302,-23,-22,-25,-27,-6,-9,-15,-60
1523208959601302,66,-1,8,4,3,2,8,43
1523208959603307,48,17,7,-4,-5,-2,-4,35
1523208959603307,-19,1,-107,-74,-4,4,-2,-63
1523208959624368,-10,-25,87,86,-3,-9,-27,-57
1523208959624368,-24,1,-25,8,4,-3,-17,26
1523208959625367,-12,-11,15,-27,-8,-12,32,34
1523208959625367,15,18,-11,-22,1,3,-31,5
1523208959638473,78,12,-26,-41,5,7,0,67
1523208959638473,-58,-12,-25,30,-5,-8,-26,-33
1523208959646656,-4,12,32,20,3,7,16,-21
1523208959646656,9,-18,-28,-15,-4,-4,-15,63
1523208959661463,7,16,-10,-24,0,1,31,-52
1523208959661463,7,-7,-26,25,2,4,5,15
1523208959663467,7,-6,38,12,-5,-8,-18,5
1523208959663467,-20,6,-4,1,1,3,24,-25
1523208959684523,22,7,51,-23,-2,-5,-9,78
1523208959684523,5,-3,-63,-7,-4,-1,13,-45
1523208959685525,-37,-24,-2,9,-2,-7,2,-25
1523208959685525,8,2,25,35,1,-9,-31,-50
1523208959697792,-7,9,-30,-22,-4,-4,6,28
1523208959697792,3,2,27,-55,0,6,33,51
1523208959706584,89,10,34,48,2,2,-20,-71
1523208959706584,-34,-10,-11,-7,-6,-5,-10,-22
1523208959721857,-2,8,-8,12,4,4,-2,-3
1523208959721857,-20,0,23,10,1,2,-9,18
1523208959723630,-29,-44,-78,-61,-6,-4,-1,-18
1523208959723630,89,34,24,-2,3,9,16,31
1523208959743679,-45,-8,-4,43,2,1,16,57
1523208959743679,-40,-14,11,-17,-9,-9,-24,-103
1523208959745686,3,-7,-20,-9,4,5,3,8
1523208959745686,-21,7,25,16,2,0,-18,-7
1523208959757728,17,-1,-17,-21,1,1,1,-8
1523208959757728,42,7,-18,24,-1,-6,2,72
1523208959766742,-37,1,23,4,-1,3,6,-1
1523208959766742,-20,-8,-16,2,-3,-8,-10,-53
1523208959781781,32,25,-5,4,2,1,8,15
1523208959781781,49,1,4,-16,2,7,14,34
1523208959783787,-38,18,-14,-28,-2,0,-2,1
1523208959783787,-20,-9,102,25,-1,1,22,-46
1523208959804880,-13,-8,-45,-4,0,2,-24,6
1523208959804880,47,4,5,5,-4,-3,4,60
1523208959805850,-72,0,-49,-38,0,-3,-15,-64
1523208959805850,-56,-34,89,55,-6,-11,-1,1
1523208959817877,46,-24,3,0,-4,-4,14,11
1523208959817877,-8,15,7,11,2,-1,-30,-20
1523208959826901,49,23,-11,4,-4,0,54,29
1523208959826901,8,0,-64,-54,-1,1,-13,41
1523208959841944,-31,-1,14,-29,-3,1,-13,-102
1523208959841944,-25,-19,10,91,-3,-6,-8,28
1523208959842945,-3,-17,22,-13,1,-2,-49,15
1523208959842945,8,3,-34,-11,4,2,32,48
1523208959864234,-3,1,15,3,-1,2,-6,-4
1523208959864234,-44,8,14,-50,-4,4,3,-10
1523208959866005,36,2,61,30,2,-2,-17,11
1523208959866005,-12,-14,-104,0,-4,-2,-49,8
1523208959878037,-41,-10,15,-12,-5,-7,-26,-9
1523208959878037,59,20,-81,-60,-6,-2,-20,-64
1523208959887062,-42,-7,23,47,1,-1,14,5
1523208959887062,63,7,13,23,1,0,23,62
1523208959902306,12,6,-15,-29,-1,-1,10,9
1523208959902306,-82,-4,-1,-15,2,8,-34,-83
1523208959903102,-13,-1,1,5,-7,-16,-18,-68
1523208959903102,57,1,-1,-42,-6,0,1,-8
1523208959924206,7,5,-30,9,2,4,5,3
1523208959924206,28,1,-22,-25,-1,8,32,92
1523208959926165,12,-4,17,19,1,-2,3,22
1523208959926165,-20,0,16,41,1,-6,-6,-123
1523208959938386,14,-10,0,-4,-2,0,3,-11
1523208959938386,-46,-8,11,0,2,-1,2,58
1523208959947221,-22,2,-81,-38,-2,5,11,-10
1523208959947221,15,11,7,32,-3,-2,-1,-29
1523208959961259,8,-6,-23,-21,-5,-1,-36,31
1523208959961259,-49,-5,29,6,-4,-9,17,-5
1523208959963264,-9,7,48,36,1,3,-17,-2
1523208959963264,15,5,-27,-60,-9,-14,11,0
1523208959984319,7,13,-17,3,1,2,-17,-27
1523208959984319,21,8,-1,-12,-2,3,21,36
1523208959985322,33,-7,15,2,0,-2,-13,39
1523208959985322,-74,-17,-14,31,3,4,-16,-82
1523208959998461,39,9,23,12,0,-4,21,-20
1523208959998461,97,-8,29,38,2,-3,-26,40
1523208960007384,-27,-6,-21,-16,-1,5,55,-2
1523208960007384,9,11,-10,-27,-1,14,24,105
1523208960021654,13,1,13,25,-4,-4,1,25
1523208960021654,-73,-6,16,-4,0,-12,-15,-64
1523208960023428,29,0,9,-66,0,4,-17,57
1523208960023428,-28,-33,2,61,-1,-2,-7,-24
1523208960044481,-27,25,42,45,-2,-3,2,64
1523208960044481,-23,-23,-14,-3,2,-7,4,-72
1523208960045482,9,12,14,-3,-3,-1,-19,65
1523208960045482,-13,18,-10,-60,3,1,2,17
1523208960066539,7,11,-5,-13,-2,5,4,22
1523208960066539,44,4,30,25,-1,5,9,16
1523208960068544,-27,-25,-100,-7,-1,3,-4,13
1523208960068544,25,6,9,-2,-4,-5,19,-2
1523208960081578,-14,-25,11,8,3,-1,7,-65
1523208960081578,15,-8,-38,-16,0,-1,2,12
1523208960083588,3,23,15,9,-3,-2,-12,-6
1523208960083588,8,2,-15,-35,5,9,28,21
1523208960104639,-29,-29,37,91,2,2,8,59
1523208960104639,-17,3,3,-86,-10,-6,-11,-99
1523208960105645,5,5,24,5,0,-3,2,-13
1523208960105645,-25,6,4,-7,-3,-8,-2,0
1523208960126697,-14,-26,-57,-100,-4,3,-3,-46
1523208960126697,-72,17,1,70,5,2,-30,45
1523208960128703,-37,-50,97,111,-5,-16,54,-54
1523208960128703,37,15,6,-26,4,-3,-54,-22
1523208960141739,-27,18,-9,-24,1,4,19,5
1523208960141739,43,11,-21,-23,-2,7,9,121
1523208960143742,6,-1,-10,-44,-2,-2,-19,-48
1523208960143742,-14,-17,-17,45,-5,-12,-12,-69
1523208960163796,36,6,28,-2,3,5,34,77
1523208960163796,12,-23,-1,17,6,7,-3,77
1523208960165801,-29,10,2,-19,-5,-4,13,-80
1523208960165801,-16,-18,-21,-23,0,3,11,2
1523208960187092,15,17,41,9,-2,-3,-21,33
1523208960187092,28,-3,62,23,-3,-6,12,7
1523208960188865,17,-31,-64,-46,-1,2,16,43
1523208960188865,23,-15,46,31,0,3,-25,23
1523208960201131,11,2,-39,-26,1,4,18,58
1523208960201131,-28,16,0,-44,-4,2,14,-109
1523208960207914,3,3,-5,59,-1,-3,-37,-8
1523208960207914,-8,4,56,36,-3,-11,-9,-8
1523208960223956,-21,-5,-10,-22,-1,-3,-29,7
1523208960223956,26,21,-12,12,-3,2,-5,3
1523208960225964,24,20,-34,-51,4,4,27,20
1523208960225964,-39,-39,-11,-5,-4,5,22,94
1523208960247252,-18,-8,-7,14,-5,-15,-26,-122
1523208960247252,-1,7,8,22,2,3,1,-13
1523208960249025,8,2,-9,-3,-7,0,-8,7
1523208960249025,30,24,-6,-23,3,10,17,110
1523208960261054,-60,-36,6,-1,-3,-4,-3,-39
1523208960261054,21,-15,-23,4,-3,-11,-15,-76
1523208960268075,-54,14,14,34,3,3,12,42
1523208960268075,17,-4,-4,-26,-1,-1,16,20
1523208960284115,-22,-8,-47,-5,-5,-1,-10,-70
1523208960284115,28,10,-5,-23,-7,-4,1,66
1523208960286122,4,-3,46,21,3,7,-43,-47
1523208960286122,74,12,-24,-21,2,2,21,27
1523208960306180,-47,-8,-2,5,-1,-10,-13,-46
1523208960306180,-9,6,27,17,0,-3,45,42
1523208960308180,-10,12,0,-16,2,5,-8,-17
1523208960308180,-15,-10,1,13,-6,-3,-24,-58
1523208960321403,34,6,-2,5,-1,-2,-4,51
1523208960321403,-34,-2,5,13,-1,-1,34,-29
1523208960328234,22,3,-16,-27,-5,-5,-12,43
1523208960328234,-52,4,-39,-35,2,10,32,2
1523208960344283,18,2,46,40,-4,-4,-2,1
1523208960344283,-66,-2,-4,-13,-3,-3,-7,-8
1523208960346280,16,18,6,18,-1,0,-3,-9
1523208960346280,64,9,-16,25,5,-3,-4,31
1523208960366335,-32,-17,-11,-19,4,2,11,28
1523208960366335,10,0,-18,-4,0,-4,3,-39
1523208960368340,-3,-21,8,-17,-5,9,-7,31
1523208960368340,18,7,-37,-20,-9,-22,-3,1
1523208960381376,60,18,8,16,4,8,17,43
1523208960381376,-14,-16,64,77,-3,4,3,11
1523208960388393,17,7,-12,-11,2,-8,4,-66
1523208960388393,-46,-2,5,-15,1,2,-48,-7
1523208960404671,-5,-1,-33,-31,-1,8,14,-81
1523208960404671,3,1,1,-6,-1,-5,24,-17
1523208960405440,11,5,3,-15,-3,-2,19,50
1523208960405440,-102,-31,5,33,-1,1,-11,0
1523208960426495,-12,-2,-15,-30,-5,-5,-34,-79
1523208960426495,2,-16,10,-5,3,8,-29,1
1523208960428499,15,9,1,-1,-2,-6,9,21
1523208960428499,6,17,11,-3,1,7,14,-4
1523208960440579,13,4,8,-22,-2,-2,32,109
1523208960440579,-12,-28,-67,18,-3,-4,-5,-20
1523208960447786,-7,40,-5,24,1,-10,-27,0
1523208960447786,-7,-15,25,-15,3,2,4,-44
1523208960471613,20,5,11,20,-5,0,-17,40
1523208960471613,8,12,-25,-46,-1,-4,7,27
1523208960473619,24,13,41,7,5,8,18,24
1523208960473619,3,-4,-34,-3,-2,5,1,-6
1523208960486890,52,13,4,2,-3,-10,-45,-53
1523208960486890,-59,-29,-17,-19,-1,-7,4,1
1523208960488677,2,-20,4,12,-4,-7,-14,-19
1523208960488677,2,13,16,6,-3,-5,2,26
1523208960501702,-17,1,8,-2,5,7,-17,-25
1523208960501702,83,12,9,36,0,7,50,121
1523208960507710,-22,-8,-41,-10,-8,-16,-32,-95
1523208960507710,3,-7,1,-15,3,3,5,-73
1523208960523760,-44,6,-7,-1,0,4,10,28
1523208960523760,-9,6,7,-53,-2,7,-9,11
1523208960525758,-22,-18,25,65,0,-3,2,34
1523208960525758,2,4,-49,-27,-8,-7,-35,-74
1523208960547049,7,-2,-5,7,1,-2,6,8
1523208960547049,9,8,15,-15,1,1,-8,23
1523208960548985,32,-6,-9,6,4,4,15,-45
1523208960548985,-14,12,26,4,-6,-6,-4,4
1523208960559849,5,-5,10,35,-2,-3,31,65
1523208960559849,3,4,3,9,1,3,-35,-44
1523208960568873,7,4,-26,-42,2,4,15,28
1523208960568873,30,4,6,-8,-2,-5,-22,50
1523208960583912,12,4,-24,-22,-8,-6,8,10
1523208960583912,-3,-19,9,31,-2,-4,26,-40
1523208960585918,-9,-3,36,27,-4,-1,-10,57
1523208960585918,-31,-6,0,-11,1,3,3,1
1523208960606979,3,-7,-6,-22,2,9,3,82
1523208960606979,56,-21,8,62,-4,-11,-39,-69
1523208960607978,-3,0,-22,-59,0,0,2,-9
1523208960607978,3,-6,29,53,2,0,0,-7
1523208960621049,62,6,10,-38,-5,5,25,-1
1523208960621049,-24,13,17,-15,1,0,-11,-25
1523208960629032,-21,4,-51,14,-1,3,-2,-33
1523208960629032,44,4,68,49,-2,-7,10,37
1523208960644076,-34,-4,-25,4,3,3,4,15
1523208960644076,34,3,10,-25,-3,2,-8,-30
1523208960646079,-21,-2,-37,-31,-8,-9,-8,97
1523208960646079,4,15,18,13,-2,-5,-1,-13
1523208960667134,-18,-3,-26,2,-1,-4,-58,15
1523208960667134,-34,-9,-22,0,2,2,76,-53
1523208960668139,1,-14,21,2,2,4,-14,34
1523208960668139,7,4,-43,-28,-3,3,-2,19
1523208960680168,36,-1,9,16,-1,-6,-8,-86
1523208960680168,35,12,-2,-10,2,5,-33,87
1523208960689205,-12,-10,2,10,-2,0,-8,-60
1523208960689205,-85,-5,-22,-6,0,-8,-5,-18
1523208960704421,-16,-8,11,4,0,1,33,30
1523208960704421,16,0,-16,-19,-2,-7,-2,-6
1523208960706244,-9,-6,18,6,0,1,31,39
1523208960706244,21,8,0,1,-10,-12,-32,-45
1523208960726291,-5,4,-1,-23,-2,0,53,-31
1523208960726291,-24,-6,21,24,0,4,-2,62
1523208960728296,9,-13,45,42,4,-3,-2,31
1523208960728296,-9,-7,-10,-2,0,3,14,-16
1523208960740374,-1,2,1,-3,1,-2,-27,-16
1523208960740374,-63,4,-17,-27,0,-5,-24,3
1523208960749351,-67,2,-18,-15,-5,2,17,-39
1523208960749351,47,3,15,-3,-2,-11,-28,33
1523208960764393,-40,-2,22,-9,-4,-2,0,3
1523208960764393,-17,11,-25,-4,1,-2,20,42
1523208960765395,77,-5,4,-20,-2,-3,-14,38
1523208960765395,-24,-6,-39,-44,-2,1,28,-49
1523208960786686,5,10,-7,36,1,-5,-26,-32
1523208960786686,-7,-10,38,46,-3,-3,-24,12
1523208960788461,-19,-20,3,-1,-3,-11,-3,-37
1523208960788461,0,-6,-20,-24,1,7,18,16
1523208960800724,20,-1,23,-8,3,12,1,13
1523208960800724,20,17,-33,-19,-4,-5,-15,31
1523208960809513,0,14,10,-9,-1,2,-4,-41
1523208960809513,-6,1,-26,-33,2,6,7,-10
1523208960824552,-46,-50,54,76,-6,-10,-5,38
1523208960824552,-6,-24,18,9,0,-7,-55,-24
1523208960825555,74,10,-28,-15,0,1,15,-30
1523208960825555,-82,2,24,-2,3,1,-1,15
1523208960846845,2,7,-19,-24,-1,7,14,-18
1523208960846845,12,4,-10,-23,-7,2,2,1
1523208960848616,1,-7,-14,-1,1,-4,-20,9
1523208960848616,40,-7,-67,-6,-4,2,-11,-27
1523208960860648,-1,2,72,44,4,-11,-2,85
1523208960860648,-31,-11,-38,-10,-6,-6,-6,-126
1523208960869711,-8,6,35,-6,2,9,4,25
1523208960869711,27,35,29,5,6,6,-22,30
1523208960883711,-61,-12,-29,-17,-7,-1,40,-8
1523208960883711,54,28,-7,-7,5,1,24,92
1523208960885713,-44,-14,-31,-67,-5,-2,-14,-54
1523208960885713,-32,-24,67,126,-7,-17,-18,-61
1523208960906773,61,27,-41,-41,1,-3,-23,-2
1523208960906773,-64,7,28,-4,-1,-11,8,8
1523208960907774,9,5,-2,-13,-3,4,5,44
1523208960907774,-13,-20,21,-8,4,11,14,10
1523208960920909,-31,3,-28,24,-2,-11,-28,-23
1523208960920909,16,-2,9,-8,1,6,17,-4
1523208960928828,25,11,-18,19,4,-1,-25,18
1523208960928828,16,1,-25,-16,-4,1,16,12
1523208960943868,46,25,91,-29,5,13,19,73
1523208960943868,-36,-26,-10,20,0,-10,-56,-101
1523208960945874,-82,-14,37,10,-12,-16,-25,-98
1523208960945874,26,-9,7,16,-3,3,51,79
1523208960966929,24,11,-17,-32,2,3,18,7
1523208960966929,41,19,-5,2,1,5,37,69
1523208960967934,48,-3,-15,3,1,6,-14,45
1523208960967934,-51,-23,-21,-31,-8,-9,43,-61
1523208960988991,-10,-20,-14,17,-2,-8,-3,-77
1523208960988991,16,1,-45,-22,3,11,-13,1
1523208960990998,-63,3,30,12,-4,1,40,13
1523208960990998,33,16,-7,-38,1,-3,-3,-14
1523208961004174,4,-19,-29,18,-5,-8,-32,86
1523208961004174,-40,-4,13,5,-2,-6,4,-104
1523208961006039,38,8,-12,16,6,6,-1,96
1523208961006039,-16,3,-9,-12,-5,-2,-5,-19
1523208961034111,13,-4,56,-17,-1,-1,-18,-23
1523208961034111,24,-2,29,21,5,2,-14,17
1523208961036114,3,-2,16,-2,-5,1,61,29
1523208961036114,6,15,-17,-34,-2,2,-20,-25
1523208961049384,30,-4,-35,18,2,0,-13,-60
1523208961049384,-84,-10,0,18,-6,-2,33,120
1523208961051154,9,9,39,-42,1,-14,-25,-113
1523208961051154,61,-6,14,93,10,10,-23,65
1523208961063188,-12,13,-28,-45,-4,2,28,65
1523208961063188,-36,-22,5,-27,-5,-2,-28,-83
1523208961070441,36,-9,8,25,-2,2,22,90
1523208961070441,-2,-6,21,0,2,-1,-8,27
1523208961087315,-15,-15,-43,12,4,2,2,-53
1523208961087315,35,22,62,-44,-7,0,4,36
1523208961088258,28,-21,-54,-1,-6,-3,-6,-54
1523208961088258,-51,29,-3,31,-2,-11,-19,0
1523208961109308,-6,-21,46,37,4,6,21,21
1523208961109308,16,0,11,-23,2,-2,-20,44
1523208961110313,-21,1,7,-6,-4,-9,3,-83
1523208961110313,26,7,9,-10,1,6,44,44
1523208961123353,-9,1,-60,-15,-2,0,13,20
1523208961123353,20,0,-9,9,-4,-5,-23,-55
1523208961130366,-11,5,8,40,3,3,24,79
1523208961130366,-5,-11,6,-32,-5,1,-18,-42
1523208961147408,41,8,-8,-11,-3,-10,11,-44
1523208961147408,77,-9,-23,20,4,8,-10,16
1523208961148412,31,1,-6,16,4,5,18,39
1523208961148412,-26,-3,6,-37,-2,1,-11,32
1523208961169705,-10,8,83,43,-5,-13,-22,-92
1523208961169705,-20,-14,-35,-16,-3,-7,0,4
1523208961170479,-23,13,18,-15,-2,-1,9,-6
1523208961170479,34,5,-18,-9,4,10,-6,47
1523208961183515,-18,25,-7,-35,-1,1,-1,64
1523208961183515,-31,-23,35,58,-4,-9,12,-54
1523208961190526,76,15,5,1,2,-1,-42,-72
1523208961190526,-16,-24,10,-33,-10,-15,4,23
1523208961206582,9,-42,-13,-12,0,3,-15,-8
1523208961206582,18,25,-19,-16,-2,10,20,85
1523208961208573,-5,-1,9,15,2,-5,-22,44
1523208961208573,-9,2,12,29,-2,-7,1,-48
1523208961229628,0,7,7,-11,-3,-2,-32,-14
1523208961229628,15,9,46,-7,4,7,15,64
1523208961230630,-38,-8,1,-18,-7,-2,-8,-78
1523208961230630,-16,-13,-33,16,4,4,-5,-85
1523208961243670,-20,-25,-54,30,-10,-10,-11,93
1523208961243670,-14,-5,-17,-48,1,10,30,-40
1523208961250930,-9,13,-43,-35,0,2,-9,5
1523208961250930,-100,-19,104,67,-2,-7,-9,32
1523208961266728,42,13,-2,-44,-3,1,-40,-61
1523208961266728,16,11,-22,19,-4,-1,38,-12
1523208961268732,-10,-5,38,-27,2,3,-4,26
1523208961268732,27,16,-40,-31,2,6,-74,71
1523208961289801,-30,-42,45,47,2,-1,105,20
1523208961289801,-82,-5,-27,-12,0,3,11,90
1523208961290794,-7,-7,-28,11,-10,-13,-33,-103
1523208961290794,45,14,-1,-4,8,6,8,4
1523208961303914,-45,20,57,-14,-4,7,-34,5
1523208961303914,30,4,-12,4,-1,-6,26,-43
1523208961311847,32,-8,-33,7,0,3,-27,100
1523208961311847,-51,-3,40,-4,-4,1,22,44
1523208961326888,-7,2,12,-36,-4,-11,-20,-100
1523208961326888,-17,-3,85,-18,7,3,-13,33
1523208961327891,66,12,64,105,0,-4,-26,71
1523208961327891,4,-20,-90,-71,-10,-8,18,-40
1523208961349180,18,12,-1,31,7,7,21,60
1523208961349180,-14,-16,-79,-28,-7,-11,-9,-103
1523208961350950,-20,2,4,-29,3,1,9,-45
1523208961350950,14,-15,-57,8,-2,-10,-13,102
1523208961363985,-10,-3,-55,-28,-5,-5,-8,-92
1523208961363985,22,8,14,87,3,-1,-1,57
1523208961370237,-45,-29,-92,-26,2,-2,-7,-67
1523208961370237,21,24,46,36,-4,-7,54,-17
1523208961387192,-75,-36,-69,-74,-6,3,26,5
1523208961387192,-29,25,82,21,-4,-5,-42,25
1523208961388055,4,7,7,-1,2,1,30,-34
1523208961388055,8,8,-45,5,1,5,-30,-56
1523208961409107,25,0,20,37,-1,0,-29,35
1523208961409107,55,5,-23,6,7,3,18,23
1523208961411112,-85,-17,-30,-35,-6,3,-14,56
1523208961411112,59,-13,-5,-28,-4,-8,26,-45
1523208961423146,-47,17,-3,21,10,17,35,69
1523208961423146,37,12,1,-23,-5,3,-17,-15
1523208961430162,-25,-15,-36,56,-6,-9,63,65
1523208961430162,56,25,-22,-1,7,8,-24,8
1523208961447329,49,16,-74,-11,-1,3,0,-22
1523208961447329,-38,-39,-12,-28,-8,-8,-26,3
1523208961448209,-25,17,-55,18,6,-2,-26,-93
1523208961448209,33,-29,101,-27,-12,-6,-71,54
1523208961469501,49,2,-53,48,0,-17,58,-19
1523208961469501,-22,-14,-33,15,0,4,-12,64
1523208961471272,-28,5,-11,-37,-4,-4,-37,16
1523208961471272,-26,11,-2,7,1,-3,7,-9
1523208961483303,24,27,30,-29,5,12,-20,-10
1523208961483303,8,-42,-1,28,-12,-17,-9,2
1523208961491325,3,2,44,-55,3,8,7,-10
1523208961491325,-83,19,15,24,3,-3,22,2
1523208961506374,26,-17,-51,-9,-8,-8,2,-9
1523208961506374,-19,13,20,-3,-3,-8,10,-61
1523208961508368,24,11,16,-10,-1,-3,31,68
1523208961508368,55,3,30,-22,4,9,45,47
1523208961529426,-26,-6,0,10,-5,-6,-28,-16
1523208961529426,-51,0,-54,-6,-1,-6,-52,-113
1523208961530428,64,-4,-37,-8,-5,4,38,38
1523208961530428,-51,-5,-2,56,11,5,3,-1
1523208961542460,32,-6,21,-28,-9,-9,-15,100
1523208961542460,19,15,15,6,3,3,10,-52
1523208961551653,-11,6,-14,-24,0,-4,-33,15
1523208961551653,28,-1,-13,15,0,-3,-43,22
1523208961566538,-24,-4,53,-39,-2,-2,-3,-70
1523208961566538,21,-17,-8,7,1,3,10,98
1523208961568531,-4,-6,64,-8,-2,1,-33,-20
1523208961568531,14,-1,-33,13,-3,0,16,1
1523208961589593,51,31,3,17,3,4,2,36
1523208961589593,80,-1,12,-20,0,1,86,46
1523208961590588,-77,-10,19,2,-4,0,19,-59
1523208961590588,-22,-23,-43,-47,-6,-4,-26,-6
1523208961602855,-24,6,41,58,0,-1,1,-58
1523208961602855,7,11,-114,-12,-1,11,-25,-2
1523208961611643,22,10,44,23,5,0,-30,55
1523208961611643,18,-11,-19,-28,-4,-1,37,-15
1523208961626685,-116,-30,10,-1,0,-1,-20,43
1523208961626685,-24,14,46,27,5,-3,-38,-67
1523208961628690,-6,-12,-47,-11,-2,4,36,-67
1523208961628690,8,7,84,-18,-9,-6,-22,53
1523208961649828,-40,-10,-27,-15,3,2,-25,-36
1523208961649828,-4,26,8,20,1,3,8,30
1523208961650746,38,-27,94,-13,-11,-5,0,62
1523208961650746,-21,0,-15,2,0,-4,-3,10
1523208961662780,27,3,-11,-23,-4,-4,-30,-27
1523208961662780,50,9,40,29,-3,-4,-2,5
1523208961671811,4,12,-22,-13,5,6,-2,-24
1523208961671811,-19,-10,5,39,-3,2,-11,-63
1523208961686945,98,35,82,-8,0,4,-11,19
1523208961686945,15,-57,-92,-68,-8,-7,-55,-6
1523208961688852,-1,2,30,62,1,-4,64,68
1523208961688852,-34,9,2,-16,0,0,-20,-79
1523208961708903,-4,-10,-16,-4,-2,-1,14,20
1523208961708903,13,11,103,15,3,5,27,0
1523208961710907,10,5,-48,0,1,-1,-4,108
1523208961710907,-37,-32,-36,-20,-6,-9,-16,-110
1523208961722941,-4,-1,92,31,3,0,19,55
1523208961722941,-59,3,-52,-4,-2,5,-5,-12
1523208961731963,8,14,-13,-25,-3,-6,16,24
1523208961731963,-22,12,69,29,5,3,15,28
1523208961747239,-9,-11,-1,-21,0,-4,-17,19
1523208961747239,-6,8,6,35,2,3,24,-65
1523208961748088,-11,-16,-8,-11,-6,-6,-48,-69
1523208961748088,42,22,-14,-16,5,3,7,96
1523208961769301,-48,-43,-25,-3,0,-5,-19,-101
1523208961769301,101,24,21,-18,8,6,-4,91
1523208961771070,-72,-13,-4,-29,-9,-11,-11,-47
1523208961771070,11,-5,63,32,-6,-4,1,5
1523208961783100,-23,-9,-87,2,-10,-13,-28,6
1523208961783100,11,-3,-9,-17,2,-2,-5,25
1523208961792122,15,14,8,-6,4,12,-33,-90
1523208961792122,11,12,26,-9,3,4,18,45
1523208961807163,61,12,-36,35,6,1,6,86
1523208961807163,-8,-4,9,-33,-7,0,30,-67
1523208961808166,-10,-30,-20,14,-7,-6,-9,36
1523208961808166,-7,2,-35,7,-1,3,-6,-43
1523208961829222,22,22,7,19,4,-6,-5,9
1523208961829222,6,17,90,-14,-1,0,9,56
1523208961831227,63,8,3,14,2,1,8,-1
1523208961831227,-10,-39,-86,-2,-7,-8,-8,-60
1523208961843261,11,4,5,-39,-3,5,8,-3
1523208961843261,-51,-18,12,28,-3,-6,-15,-19
1523208961852282,31,21,16,4,-1,0,24,20
1523208961852282,-25,-29,-29,-4,-2,0,31,-3
1523208961866360,-21,6,-6,0,-3,1,-20,17
1523208961866360,0,13,-23,-73,-6,2,-1,-17
1523208961868326,-15,1,26,100,-2,1,1,27
1523208961868326,31,-1,18,-30,-1,-1,-7,36
1523208961889429,-33,5,-30,-8,-3,1,2,-40
1523208961889429,-26,8,-5,4,1,-9,24,9
1523208961890386,-13,-1,7,-24,2,6,-12,28
1523208961890386,-10,25,1,-8,-1,11,13,-42
1523208961911439,36,10,21,17,-1,-13,-14,41
1523208961911439,23,-11,-9,-7,-3,6,36,83
1523208961913446,1,-19,-61,8,6,2,25,-48
1523208961913446,0,17,55,12,-3,-3,-17,-33
1523208961926480,-20,-32,-75,-11,-5,-4,-8,-49
1523208961926480,67,13,-28,5,0,-7,-53,35
1523208961928488,2,-4,0,-7,-1,2,25,21
1523208961928488,39,18,8,-7,-1,-1,4,29
1523208961949776,13,2,-7,16,0,3,12,-15
1523208961949776,-38,-2,-40,2,-5,-6,-26,-6
1523208961950544,2,8,23,-17,-5,-9,-45,13
1523208961950544,16,7,3,4,8,13,57,-28
1523208961971610,-17,4,-54,-38,-4,5,1,52
1523208961971610,-62,-18,24,16,-1,-4,8,-115
1523208961973606,23,-14,-4,-32,-13,-10,-45,-4
1523208961973606,7,1,-10,63,6,-4,-25,14
1523208961986700,6,4,51,-2,-5,-3,36,23
1523208961986700,35,15,-3,-13,2,7,-6,14
1523208961988668,-78,3,-21,-10,10,7,19,37
1523208961988668,-40,-44,-59,-33,-11,-7,-32,-1
1523208962008698,34,-2,44,9,1,-5,-3,14
1523208962008698,-70,-8,17,-6,-2,-11,7,-30
1523208962010703,-8,6,4,14,-5,-2,6,-39
1523208962010703,-42,11,21,-4,-1,-3,18,96
1523208962031759,-1,1,-4,1,0,5,-49,-116
1523208962031759,2,-17,-25,-7,3,-1,21,-1
1523208962033765,7,-19,45,-12,0,3,30,22
1523208962033765,-42,-18,5,2,-4,-9,-46,-72
1523208962046032,-5,7,4,29,-8,-15,20,40
1523208962046032,-9,-15,-19,-5,1,10,-18,-11
1523208962059835,22,3,-29,-17,-3,-2,-19,-13
1523208962059835,42,15,7,-16,3,8,31,37
1523208962069900,18,-5,41,-8,3,7,2,23
1523208962069900,0,4,6,10,2,-13,-67,36
1523208962070866,-61,-14,-22,-1,1,9,27,80
1523208962070866,-29,-37,28,-17,-9,-10,-22,-125
1523208962091922,24,23,13,56,5,2,8,94
1523208962091922,-4,34,26,-11,-2,-2,-34,32
1523208962092923,-23,-19,-64,-10,7,3,-3,-23
1523208962092923,4,7,-40,-34,-4,0,-26,45
1523208962105964,-9,-46,-71,26,0,-6,-14,-63
1523208962105964,32,25,22,11,-7,-3,78,47
1523208962112977,19,-7,43,-7,0,3,-11,-17
1523208962112977,35,2,-19,6,3,-1,14,35
1523208962129018,-74,-34,6,-39,-6,-5,-16,-61
1523208962129018,-52,3,-22,25,2,2,-12,-6
1523208962131025,40,14,10,12,1,-2,-5,95
1523208962131025,-16,-12,-44,6,7,13,17,-32
1523208962152301,47,1,43,-13,-5,1,25,-24
1523208962152301,-32,0,-8,-5,-3,-8,-7,-1
1523208962153081,31,-1,-36,18,0,-5,-29,-58
1523208962153081,-22,12,39,-4,2,2,73,71
1523208962166119,-6,17,-6,-11,1,3,-13,7
1523208962166119,1,-14,44,22,3,-2,35,-4
1523208962173138,45,22,60,-3,-6,-8,-35,53
1523208962173138,-3,8,-25,13,0,-11,-68,-87
1523208962189183,10,14,17,-21,-2,-3,63,110
1523208962189183,-11,-23,-24,25,-1,1,-5,-49
1523208962191184,54,4,11,3,-10,-5,-21,98
1523208962191184,0,21,-2,-2,-3,-7,-24,-48
1523208962211239,39,4,6,-12,-11,-9,12,-6
1523208962211239,13,-9,14,-25,7,9,-68,-19
1523208962213243,-5,6,-5,-30,4,7,66,-5
1523208962213243,7,-21,-1,50,-9,-9,-18,-32
1523208962226278,1,-8,48,39,-7,0,-1,20
1523208962226278,38,-2,-16,-15,0,-9,0,-2
1523208962233295,-19,-4,-14,-14,4,10,23,-30
1523208962233295,-26,-6,1,-29,-3,-5,32,31
1523208962249573,-53,-34,30,-4,1,-1,5,-2
1523208962249573,18,-17,-75,11,-3,-2,-87,76
1523208962251427,0,34,-8,-23,3,12,98,-44
1523208962251427,27,3,75,3,-2,-7,-71,-5
1523208962271403,-48,-2,11,63,2,-5,-63,73
1523208962271403,-13,-10,19,-27,-4,8,87,-62
1523208962273403,-50,13,-3,15,3,-5,-20,-72
1523208962273403,42,11,-7,-12,3,12,21,110
1523208962286476,-15,9,-10,-26,4,3,16,-93
1523208962286476,-19,-31,7,-13,-6,0,-36,42
1523208962300709,26,8,5,19,-2,1,32,24
1523208962300709,-53,4,48,36,7,-14,29,-6
1523208962309499,-14,15,-33,-42,-2,7,16,-4
1523208962309499,13,-5,-10,-8,1,9,23,-6
1523208962310500,24,-25,-26,-10,-13,-14,-14,58
1523208962310500,-36,-6,19,44,0,-5,-57,-47
1523208962331558,28,24,-18,-3,6,8,8,77
1523208962331558,-23,-5,9,2,-4,-3,-58,-32
1523208962333561,13,10,0,-41,-8,2,96,49
1523208962333561,23,-15,-54,24,2,3,2,62
1523208962345829,-14,0,32,-10,-2,-18,-90,-116
1523208962345829,7,-13,9,4,1,-1,5,-45
1523208962354623,-9,10,15,12,4,1,-73,-35
1523208962354623,24,2,-54,-42,-3,3,48,49
1523208962369697,19,-24,3,20,4,8,24,16
1523208962369697,12,16,-79,-39,0,-3,4,11
1523208962370663,-10,-9,68,54,3,-3,-20,-91
1523208962370663,18,12,11,-30,-6,-1,35,80
1523208962391717,33,-11,-36,-31,-4,-1,-47,-92
1523208962391717,-25,10,-9,11,-5,-1,36,22
1523208962393724,-10,-4,-4,27,2,-9,-36,57
1523208962393724,5,1,-17,-19,2,3,-13,-54
1523208962405758,10,17,13,-11,-1,-2,25,10
1523208962405758,20,9,43,9,-1,2,-10,61
1523208962413775,-12,7,-73,-31,0,7,3,-49
1523208962413775,-21,-1,28,-19,-1,1,2,121
1523208962428817,-76,-34,-3,32,-10,-10,-10,-85
1523208962428817,13,20,21,27,3,-6,-21,-30
1523208962430825,-26,-29,18,-1,-2,-9,4,22
1523208962430825,-1,6,-61,-56,-6,-4,-102,3
1523208962452111,50,-4,-3,27,0,18,66,19
1523208962452111,-53,3,-6,-10,-6,-13,-18,-51
1523208962452879,35,8,7,15,1,4,-12,49
1523208962452879,-30,14,-32,-43,-5,-2,-16,-72
1523208962464911,-6,-16,-5,28,-4,-5,-12,127
1523208962464911,-3,18,42,7,4,8,18,-11
1523208962473938,1,-7,-5,30,0,2,-45,-8
1523208962473938,-44,-20,15,-25,-13,-16,62,-127
1523208962488981,-39,18,0,7,9,1,-17,-34
1523208962488981,53,14,-15,-32,-11,-2,57,31
1523208962490980,-28,2,50,49,6,-2,11,58
1523208962490980,51,2,-37,11,3,7,29,0
1523208962512075,16,31,7,-35,3,3,-19,-97
1523208962512075,-8,-32,-6,9,-1,-5,80,61
1523208962513039,12,-9,25,-25,-6,0,-12,-39
1523208962513039,21,-2,17,33,6,5,-36,80
1523208962525069,-9,-9,-6,-62,-5,4,12,-47
1523208962525069,8,-9,-73,1,-3,-9,-67,-56
1523208962534094,-18,-14,63,10,-3,-3,-10,-30
1523208962534094,9,-3,50,72,6,1,19,-51
1523208962549369,36,19,-94,-37,1,3,-25,64
1523208962549369,-15,-4,54,5,2,5,55,62
1523208962551140,-56,-29,-33,-8,0,-7,-32,-36
1523208962551140,-3,-9,-3,-12,2,7,-45,-48
1523208962572203,25,26,15,-22,3,-8,31,71
1523208962572203,26,-10,18,52,-5,4,-22,34
1523208962573199,-44,23,-57,-24,-4,-5,33,-8
1523208962573199,23,-18,59,36,7,6,-16,100
1523208962585465,-5,-21,-6,-13,-2,0,8,-51
1523208962585465,-59,-20,-24,-21,-3,-11,-29,-49
1523208962594255,15,12,-6,-47,-7,-10,-46,-30
1523208962594255,86,14,-60,-24,-2,5,25,-37
1523208962609296,-4,-3,46,35,-7,2,-21,127
1523208962609296,-21,8,18,37,8,1,6,-82
1523208962610299,8,-5,-15,-31,0,-12,-70,-69
1523208962610299,-25,5,2,-12,0,1,30,-73
1523208962631354,2,-21,-22,35,-4,0,-17,57
1523208962631354,-17,34,32,-6,2,11,9,-12
1523208962633358,57,-9,5,-3,-1,-5,-53,98
1523208962633358,-93,6,-58,0,2,2,20,-73
1523208962645625,2,-12,32,-3,-4,-26,-18,71
1523208962645625,-10,-40,13,-44,-12,-8,-4,-56
1523208962654415,17,-3,25,58,8,11,42,35
1523208962654415,20,-3,23,56,-8,-6,-25,49
1523208962669494,17,19,-7,-38,-2,12,27,-2
1523208962669494,-26,11,-21,-39,4,-1,5,-6
1523208962670462,-17,-2,-29,-18,2,3,21,-49
1523208962670462,42,5,4,-45,-2,-3,18,124
1523208962691512,-33,6,39,72,4,6,-25,-128
1523208962691512,65,21,-15,-69,-12,-12,-49,127
1523208962693518,-110,-12,-18,-6,1,6,67,-101
1523208962693518,55,16,-3,-21,4,2,11,80
1523208962705584,-31,-25,-20,-13,-5,-2,23,-29
1523208962705584,22,9,-7,10,-2,-6,-25,-20
1523208962714575,-33,-15,11,28,-3,-7,-9,33
1523208962714575,-4,-23,2,-104,-3,2,9,11
1523208962729614,9,6,-6,88,3,7,16,16
1523208962729614,-9,-27,1,-25,-23,-27,-52,53
1523208962730618,4,27,11,-9,5,6,-17,-87
1523208962730618,46,-6,8,-11,0,4,34,81
1523208962751672,-15,9,-19,-41,3,-17,-10,-52
1523208962751672,-5,3,21,48,5,6,-47,-86
1523208962753678,69,10,4,-10,-5,1,9,33
1523208962753678,6,16,-26,-15,-3,0,-13,57
1523208962765711,29,-24,-14,0,-5,1,2,-21
1523208962765711,24,9,-28,25,5,6,-3,-21
1523208962774734,36,22,35,-36,-6,1,7,46
1523208962774734,-32,-24,-58,38,-9,-7,-1,-65
1523208962788784,-19,-17,-2,-23,-1,-5,4,-14
1523208962788784,35,25,6,3,11,5,34,22
1523208962790777,19,12,14,18,-5,-6,-45,83
1523208962790777,-14,7,34,37,6,10,59,24
1523208962811872,-23,14,23,-66,5,5,-29,-55
1523208962811872,-13,-35,-31,109,0,1,12,-48
1523208962812835,57,-3,-20,-80,-10,-3,-12,-5
1523208962812835,-48,28,35,48,-2,-11,-30,30
1523208962824867,17,-15,-45,-38,-4,0,-18,17
1523208962824867,-30,1,30,1,16,9,44,44
1523208962833931,-12,-27,-9,27,-5,-4,18,-35
1523208962833931,-50,-10,24,43,-4,-6,-25,-74
1523208962849151,-24,11,12,-49,4,3,-73,30
1523208962849151,37,18,-36,-64,-4,13,30,84
1523208962854950,-12,-22,3,117,0,-7,-22,-48
1523208962854950,-3,-1,-18,-114,-11,3,18,25
1523208962872037,-98,-14,21,32,2,-3,-50,-92
1523208962872037,12,-29,13,72,-5,-15,59,68
1523208962872995,-14,20,-2,-30,3,-2,-1,-93
1523208962872995,14,4,-12,15,2,0,-29,9
1523208962894286,40,38,-22,-29,-4,0,28,30
1523208962894286,-21,-16,7,-57,-1,-1,7,-2
1523208962896056,20,-28,-10,59,3,12,52,50
1523208962896056,-6,-4,-22,-10,-2,-3,-5,-59
1523208962909091,19,11,12,-26,0,2,28,23
1523208962909091,-26,-10,1,41,-11,-8,-26,-31
1523208962911097,18,12,-1,-98,0,4,-3,47
1523208962911097,-8,-5,10,8,-2,-4,-12,-116
1523208962932152,33,6,22,58,5,-3,2,58
1523208962932152,-26,0,-10,-47,3,-3,-103,-21
1523208962933154,8,13,-26,-19,5,13,43,50
1523208962933154,-35,-70,34,74,-12,-8,-8,94
1523208962954216,-4,10,8,-17,-9,-6,15,-22
1523208962954216,26,-20,-3,-25,-2,-4,-16,-108
1523208962956217,-11,3,-57,-79,1,-5,-13,82
1523208962956217,-29,4,30,48,5,0,-26,-72
1523208962976271,12,-4,8,52,-4,0,10,78
1523208962976271,-26,17,23,20,0,6,45,17
1523208962978274,-47,-18,-11,-21,0,-10,35,48
1523208962978274,88,28,-32,-4,4,-5,-22,-44
1523208962991311,12,-16,-19,-17,0,14,87,38
1523208962991311,17,14,27,9,-5,5,4,-1
1523208962993315,5,8,-4,40,-3,3,-13,40
1523208962993315,-20,1,10,-6,-4,-5,4,-20
1523208963014384,15,2,-19,-47,3,2,-1,32
1523208963014384,-39,-17,-43,-26,0,-2,-30,-66
1523208963015374,37,-6,88,115,-5,-16,-40,23
1523208963015374,-19,12,6,-45,0,-6,56,-67
1523208963028408,-53,-9,-17,-5,0,-2,-39,-50
1523208963028408,-35,-12,7,-30,8,4,41,50
1523208963035661,64,-18,-20,4,-8,-5,-38,-11
1523208963035661,39,12,31,42,-2,-6,-20,10
1523208963051705,-4,-19,-11,-2,2,6,35,35
1523208963051705,2,12,4,-10,0,7,-3,6
1523208963053474,-53,-7,2,0,-10,-12,-101,-19
1523208963053474,-14,0,-15,-16,8,7,22,-48
1523208963074531,26,10,-99,-99,-6,3,-10,33
1523208963074531,15,2,70,91,-7,-10,-26,95
1523208963075533,-56,-6,-2,2,9,-3,-29,-125
1523208963075533,29,24,-60,-73,1,10,8,93
1523208963088596,-60,-41,32,17,-10,-13,28,-67
1523208963088596,-26,-3,-32,-12,1,1,12,-39
1523208963095821,27,32,-18,-32,2,13,18,53
1523208963095821,19,20,40,31,1,-10,-106,121
1523208963111629,58,11,-14,-8,4,6,97,-46
1523208963111629,-44,-5,-21,-26,-8,-11,-60,-65
1523208963113636,-6,-18,21,36,-10,-14,11,-33
1523208963113636,10,-9,-25,-101,-7,2,-32,26
1523208963134774,14,28,42,61,-2,-5,-30,42
1523208963134774,32,-26,20,31,4,3,40,20
1523208963135692,-52,-6,-25,-72,1,6,20,-8
1523208963135692,16,6,-44,6,-2,5,10,25
1523208963148963,-44,-23,105,107,-3,-18,-54,-74
1523208963148963,35,35,-9,-26,0,0,18,25
1523208963155747,-16,1,7,-52,1,2,7,-10
1523208963155747,-27,-4,-23,-2,-3,4,0,-3
1523208963171791,-2,13,-6,41,-1,1,10,47
1523208963171791,17,13,-7,-47,1,-1,-20,127
1523208963172791,-32,-30,4,-11,-3,0,-1,-100
1523208963172791,-42,-23,41,64,-7,-10,-30,0
1523208963194849,43,26,14,4,8,2,55,31
1523208963194849,23,-7,-59,-27,-2,-3,-12,-79
1523208963195852,29,4,-17,42,0,2,35,62
1523208963195852,47,8,28,-25,1,2,13,-42
1523208963208888,-50,-20,-42,-35,-4,-8,-116,-31
1523208963208888,57,4,23,17,0,7,114,11
1523208963214904,27,10,-14,14,-3,-3,-28,29
1523208963214904,12,15,-9,-41,-2,0,28,-49
1523208963231948,73,-21,29,37,-1,1,-25,85
1523208963231948,48,14,2,-26,-2,0,-39,-15
1523208963232951,-2,14,4,23,9,7,7,88
1523208963232951,-25,-21,-30,-10,-2,-3,16,-86
1523208963254015,-23,10,30,73,1,3,1,11
1523208963254015,19,3,-1,-51,-3,-2,5,88
1523208963256014,-56,-3,-9,-9,-1,-1,-22,52
1523208963256014,-61,-27,14,41,2,-10,7,-63
1523208963269046,9,12,-24,-69,0,-2,11,-12
1523208963269046,-1,-22,21,89,2,-1,-26,40
1523208963275063,8,38,5,-99,-6,5,-15,-14
1523208963275063,-35,-1,-26,7,-6,-1,14,61
1523208963292111,-8,-5,0,-25,-2,-3,55,-38
1523208963292111,-26,14,19,21,6,2,-31,-9
1523208963293111,29,-12,-44,24,-6,0,16,2
1523208963293111,-92,-36,66,24,-8,-15,-46,-17
1523208963314167,-65,3,-28,-23,5,10,46,-23
1523208963314167,63,28,-27,-34,2,10,6,49
1523208963316174,-107,-40,0,3,-9,-15,-12,-128
1523208963316174,61,15,3,21,8,3,3,85
1523208963328207,-66,2,-3,-14,-7,-13,-55,76
1523208963328207,-57,-18,-5,-20,-5,-4,-2,-82
1523208963335458,76,12,4,15,1,6,49,35
1523208963335458,43,13,0,17,3,6,-12,-2
1523208963352286,19,27,-5,-19,-3,-12,-59,16
1523208963352286,-4,-2,-4,12,2,0,59,-48
1523208963353274,23,1,-8,-15,4,1,-11,36
1523208963353274,18,5,11,62,0,0,-47,40
1523208963374327,40,3,-41,-89,-10,2,100,-79
1523208963374327,-47,-30,-32,14,-3,-7,-41,46
1523208963375329,-8,-9,17,13,3,2,25,-43
1523208963375329,-3,8,-30,-36,3,6,8,2
1523208963387366,123,-1,28,77,1,3,-37,10
1523208963387366,-16,5,21,-14,-2,0,19,29
1523208963396620,-47,2,-2,-21,-3,-7,-52,-19
1523208963396620,95,-4,14,41,3,2,70,25
1523208963411428,45,3,-19,-35,-5,-3,1,2
1523208963411428,-35,-22,-2,-9,-4,-5,-48,-86
1523208963413431,41,22,24,-11,2,4,-10,57
1523208963413431,-19,29,-10,55,-3,2,20,-8
1523208963434486,20,-1,-9,-76,-5,-5,-64,54
1523208963434486,-10,20,-8,22,1,6,56,-23
1523208963435489,-17,-3,31,-3,-2,-6,-15,-2
1523208963435489,-44,-29,-22,-12,-5,-5,98,63
1523208963448523,-5,-9,7,24,1,-1,9,-36
1523208963448523,-29,-4,-2,-18,-3,-2,-23,46
1523208963456544,15,-20,-22,12,-2,2,-33,-29
1523208963456544,1,9,-4,-37,4,6,5,30
1523208963471600,-28,-16,0,11,2,2,-28,15
1523208963471600,8,-5,19,-8,-6,-7,49,0
1523208963473592,-20,1,2,79,5,-1,-6,-49
1523208963473592,-2,-27,8,-25,-2,-6,-100,-43
1523208963494776,-51,8,-13,-30,6,1,75,37
1523208963494776,77,37,-21,-15,3,9,-11,-43
1523208963495648,58,-10,6,11,-10,-6,13,27
1523208963495648,-46,-30,24,-6,-3,-15,-97,-80
1523208963507681,43,-7,11,20,2,14,62,61
1523208963507681,10,-6,23,18,-5,-12,-33,-34
1523208963516706,-5,7,-31,-17,3,-3,-31,-26
1523208963516706,8,-1,15,10,-3,-1,15,-45
1523208963531745,-25,4,-24,9,6,9,53,14
1523208963531745,59,16,-8,-75,7,9,-13,26
1523208963533883,-39,-18,19,97,-16,-6,-5,-31
1523208963533883,4,8,0,-82,-10,-11,-6,31
1523208963554048,-27,-4,8,25,4,-1,-43,-55
1523208963554048,8,23,-26,0,3,6,4,102
1523208963555810,-25,-8,1,-20,5,-4,-39,-80
1523208963555810,-27,12,-24,-6,-1,5,51,-9
1523208963567842,0,-4,19,16,-4,-10,-61,-7
1523208963567842,-53,-12,-29,-8,-3,-5,86,-60
1523208963576865,58,19,15,-27,2,3,1,105
1523208963576865,12,-3,-32,-11,-2,7,54,115
1523208963591906,2,-8,-4,0,-4,-5,-42,-85
1523208963591906,-59,-36,-6,34,-3,0,-17,-2
1523208963592909,-17,-23,1,-43,-10,-12,-36,80
1523208963592909,-2,7,15,-9,7,16,20,-100
1523208963613965,23,13,-1,-15,-5,-11,-12,13
1523208963613965,-71,-39,-2,12,-5,-9,-76,9
1523208963615970,35,20,-12,-18,2,-6,68,80
1523208963615970,61,5,-1,-19,-4,1,-45,87
1523208963637069,-60,-28,-7,25,-2,-5,-2,-95
1523208963637069,39,21,18,4,4,5,-1,-12
1523208963638030,-47,3,-32,-53,0,0,-40,-66
1523208963638030,35,-5,43,62,-2,-10,-4,-11
1523208963652063,12,25,-5,4,-2,1,-39,-7
1523208963652063,29,-9,36,46,1,-4,-44,88
1523208963653070,-101,-20,5,-12,2,9,105,-128
1523208963653070,-4,1,-27,-3,-4,-6,8,-43
1523208963674124,-5,-14,-3,-58,-9,-6,-24,24
1523208963674124,7,-12,11,12,-2,7,-15,-2
1523208963676129,59,5,1,1,7,0,-30,75
1523208963676129,-11,2,7,-15,1,2,53,34
1523208963688163,-98,-8,-3,19,0,0,11,-5
1523208963688163,42,13,0,-9,-6,-2,-16,73
1523208963697185,-40,0,-2,-17,-4,-2,-10,-100
1523208963697185,-23,-6,-5,-21,-1,-11,17,25
1523208963711222,57,-22,-8,33,-1,-5,-53,64
1523208963711222,72,12,-13,-27,-4,5,116,-9
1523208963713227,-26,0,-6,-2,-4,7,5,54
1523208963713227,-10,17,8,23,0,-1,-58,-36
1523208963734519,38,7,-13,-47,-7,4,-23,31
1523208963734519,-33,-4,21,20,-2,-8,-24,-42
1523208963736289,63,13,-51,7,0,6,45,53
1523208963736289,-55,-28,25,1,-2,7,8,-14
1523208963748424,-19,5,-23,-23,-1,-4,25,-35
1523208963748424,-27,-10,24,26,4,3,-21,-55
1523208963756342,16,7,-6,-7,-2,-14,7,18
1523208963756342,21,21,-7,-11,3,3,-43,27
1523208963771383,22,-21,-21,7,1,8,30,93
1523208963771383,-53,6,42,24,-4,-8,-35,-86
1523208963773387,30,18,2,18,0,-2,3,20
1523208963773387,9,-11,-3,-2,-1,3,10,24
1523208963794679,-38,3,-1,0,2,0,-5,-13
1523208963794679,40,5,-31,-11,-3,-11,76,24
1523208963796461,31,15,33,7,4,11,9,42
1523208963796461,-11,-14,-15,12,-6,-13,-19,53
1523208963816502,-11,15,29,29,8,-3,-41,-26
1523208963816502,6,5,-30,-37,-3,-9,-128,67
1523208963818508,-11,-11,35,21,6,1,10,91
1523208963818508,27,12,-69,-24,-2,17,4,-35
1523208963831542,3,5,54,17,2,-4,62,64
1523208963831542,-40,-10,-42,10,0,3,-2,-108
1523208963833547,4,-28,45,-18,-9,-6,-28,-4
1523208963833547,24,6,-30,-22,1,-15,-22,-54
1523208963854636,-36,-6,-6,21,-2,0,11,76
1523208963854636,3,11,-19,-38,-2,1,-11,-26
1523208963855606,14,2,-6,-44,1,12,23,-55
1523208963855606,-67,-21,20,64,-3,-10,-48,-35
1523208963876661,6,-4,-10,2,-9,-6,98,-39
1523208963876661,22,0,4,37,5,-3,-22,103
1523208963878708,-8,4,-33,13,2,3,-40,-29
1523208963878708,14,11,38,-40,-3,4,-19,45
1523208963892746,-9,-9,-23,-24,-3,-5,-41,10
1523208963892746,-24,-15,6,4,-2,9,30,23
1523208963893708,-19,7,-6,25,-1,-23,-32,-37
1523208963893708,12,10,10,-19,0,9,60,-17
1523208963913770,65,-8,-2,20,1,-3,-28,81
1523208963913770,-22,16,-14,-49,0,0,-3,-6
1523208963915766,-6,-9,15,45,-5,-7,-41,-39
1523208963915766,54,-1,5,-17,-5,-7,6,35
1523208963936826,-74,-9,14,13,7,2,-35,16
1523208963936826,11,-8,-18,-18,-8,-1,8,-36
1523208963937836,26,5,-25,-18,-3,-1,24,19
1523208963937836,10,4,-7,-3,0,-1,-93,40
1523208963951095,35,9,7,-15,1,16,27,-43
1523208963951095,17,-9,5,19,-2,-12,-68,11
1523208963957880,-20,-6,-3,-3,-8,-3,25,20
1523208963957880,-29,15,2,4,2,2,-4,-69
1523208963973919,52,0,-1,-19,-4,1,-31,-34
1523208963973919,-18,4,18,15,5,-4,18,-17
1523208963975925,26,-27,-4,-14,-3,10,-15,-7
1523208963975925,-17,6,8,6,1,-2,47,11
1523208963997216,-14,10,-16,-22,-7,3,-11,-7
1523208963997216,7,1,49,50,0,-2,5,-49
1523208963997983,-73,-3,2,17,5,-1,24,50
1523208963997983,65,11,-16,-39,0,8,47,68
1523208964011062,-49,-7,-13,-5,-2,-14,-30,-100
1523208964011062,-27,-49,-15,-10,-7,-4,5,-37
1523208964018273,-3,5,15,12,3,-3,-4,0
1523208964018273,-15,-2,0,27,3,-6,-75,13
1523208964034083,34,19,13,8,2,8,62,41
1523208964034083,2,-11,-31,-40,-2,9,39,64
1523208964036085,23,-16,10,-4,-5,-6,7,53
1523208964036085,3,-26,-11,47,-1,-6,5,-89
1523208964057141,6,6,-4,23,0,-1,-27,-22
1523208964057141,3,18,8,-15,-1,4,10,12
1523208964058144,25,28,-43,-57,0,7,21,59
1523208964058144,-65,-20,4,6,2,4,13,5
1523208964071178,-22,-22,30,55,-1,-10,-25,-63
1523208964071178,49,9,0,-4,2,-3,13,-5
1523208964078236,-46,-6,6,-1,-4,7,16,54
1523208964078236,0,7,-14,-23,1,6,-6,-57
1523208964094240,-13,-2,-20,-28,0,-2,26,-24
1523208964094240,-44,-1,21,-4,-5,-9,-20,16
1523208964096428,26,18,-12,-18,3,1,8,-20
1523208964096428,2,-13,22,51,-3,-3,-41,9
1523208964116300,3,9,5,7,-4,7,114,24
1523208964116300,23,4,-11,-46,0,-1,-28,34
1523208964118303,-38,-7,-9,19,2,-3,-28,90
1523208964118303,-9,2,-18,-53,-6,-8,13,-94
1523208964130336,55,11,1,49,-2,2,-69,94
1523208964130336,-41,3,10,6,2,-3,40,-98
1523208964137359,-11,9,-8,-3,-7,-4,6,-54
1523208964137359,64,1,-9,-39,5,4,-60,49
1523208964153403,-83,-2,19,10,-6,-6,68,11
1523208964153403,49,8,3,13,5,9,11,46
1523208964154406,3,-1,5,-15,3,7,20,-4
1523208964154406,-17,-3,29,52,-1,-7,-45,-27
1523208964175456,45,8,-1,-41,3,5,71,-31
1523208964175456,-38,-17,-12,-19,-8,-1,-31,16
1523208964176458,50,1,12,40,3,-10,-69,-44
1523208964176458,-95,-25,-29,-63,-11,-4,50,-16
1523208964190539,8,-5,-19,-44,1,5,-71,3
1523208964190539,-12,2,30,110,5,-6,10,-74
1523208964198752,28,-10,-6,-71,-10,-7,-35,31
1523208964198752,84,14,17,0,1,4,11,36
1523208964213560,-88,-22,-29,-11,-2,-15,-2,-42
1523208964213560,-6,-6,-9,-11,0,6,-43,79
1523208964214560,58,21,14,-14,4,4,111,-125
1523208964214560,-50,-36,-42,34,-7,-11,-22,-50
1523208964235618,30,-5,59,46,-10,-14,-108,79
1523208964235618,-11,2,-3,-47,-7,-6,-28,-67
1523208964236623,39,-19,6,20,5,-5,3,3
1523208964236623,-5,17,-20,-55,-2,10,77,-33
1523208964250942,13,-6,-39,-2,-1,4,17,17
1523208964250942,34,23,14,20,-4,-13,-53,74
1523208964258965,-113,-42,21,11,-1,6,-39,-94
1523208964258965,11,0,-20,-1,7,9,42,93
1523208964274003,-86,-4,-22,-14,-7,-10,-103,82
1523208964274003,-69,-12,-19,-12,-7,-10,26,-64
1523208964274003,32,2,-15,-4,4,10,75,85
1523208964274003,21,19,39,69,2,3,-5,71
1523208964296300,6,12,4,-7,0,2,25,-36
1523208964296300,30,2,-15,-9,1,7,-30,47
1523208964297065,-15,16,-7,23,-2,-7,-4,-12
1523208964297065,-4,0,62,35,6,2,22,14
1523208964310138,-42,-27,-69,-11,2,-7,-19,-33
1523208964310138,-17,-2,-11,-33,-4,0,32,-87
1523208964319125,-18,13,0,13,-2,-4,-39,28
1523208964319125,-17,-17,-12,-26,-1,-5,42,127
1523208964334163,-1,3,2,9,0,-3,-47,-95
1523208964334163,-38,-6,12,-28,-5,-6,13,106
1523208964334163,-16,-19,-24,27,-2,4,-19,71
1523208964334163,-11,9,2,-30,-4,1,-54,51
1523208964356221,60,-23,3,-16,1,13,52,-106
1523208964356221,-69,-16,16,33,0,-3,-20,-11
1523208964357225,69,15,-9,8,-8,-8,-18,0
1523208964357225,-42,19,1,-4,2,-6,-24,-52
1523208964370259,62,23,1,-5,7,6,38,71
1523208964370259,88,9,2,-10,2,9,11,36
1523208964386302,25,-12,5,-39,-4,1,-25,-22
1523208964386302,-32,-19,35,48,-8,-15,-45,-128
1523208964393366,26,10,6,-5,4,5,91,92
1523208964393366,-4,-6,-2,34,4,0,-18,-35
1523208964394323,-23,9,0,-22,-4,-6,-25,-11
1523208964394323,60,11,7,27,6,2,-4,-11
1523208964416384,53,20,9,-31,-7,4,-42,82
1523208964416384,-23,-5,22,19,-9,-7,-11,-27
1523208964416384,-113,-19,-21,9,-6,-12,-26,-5
1523208964416384,39,3,-16,-34,-1,8,18,28
1523208964430421,-9,-11,-27,-21,1,2,53,77
1523208964430421,37,14,15,6,8,5,14,22
1523208964438440,37,24,1,36,4,8,5,21
1523208964438440,17,-29,2,-16,-12,-13,1,-42
1523208964453522,-21,11,28,23,-3,-11,-32,88
1523208964453522,34,-4,-21,-30,0,7,66,64
1523208964454483,-7,2,-39,-8,5,7,49,-24
1523208964454483,40,16,-38,-49,2,4,40,84
1523208964475577,-20,-9,8,20,-6,-25,-49,-128
1523208964475577,65,22,9,56,6,11,41,94
1523208964476541,91,14,16,-18,4,3,-93,20
1523208964476541,-105,-13,-60,-19,3,8,10,-45
1523208964490585,-21,-19,48,6,-6,-14,-94,-72
1523208964490585,-11,-5,-13,-13,0,-3,9,-5
1523208964498838,-8,-15,46,30,-5,-4,-16,28
1523208964498838,23,11,-55,-21,-3,-13,4,29
1523208964513642,24,21,13,11,6,14,13,-15
1523208964513642,42,-1,-17,-34,-1,0,31,27
1523208964514645,-82,-11,4,5,-5,3,33,-95
1523208964514645,28,-12,36,13,0,-4,-46,79
1523208964535715,7,19,-10,-45,-5,0,-6,-126
1523208964535715,0,1,-6,61,-5,-8,-10,-24
1523208964536707,10,2,19,-58,-4,-5,52,75
1523208964536707,-32,-22,0,3,0,4,-2,37
1523208964550258,-8,11,-28,-21,1,-7,10,-11
1523208964550258,-29,-10,-1,11,1,3,-45,-37
1523208964558046,-35,-10,36,57,-4,-10,-34,-38
1523208964558046,-5,18,13,5,0,6,92,-55
1523208964573085,30,-7,4,-11,1,7,9,68
1523208964573085,-20,-9,-35,-44,1,-1,-43,-66
1523208964574088,20,9,-10,-22,-1,0,13,40
1523208964574088,-2,27,12,25,-1,-9,-72,30
1523208964596381,11,-31,-28,9,-5,6,-2,-10
1523208964596381,12,10,4,2,3,2,25,22
1523208964597148,-53,2,3,0,3,0,-18,-22
1523208964597148,31,14,5,-12,2,10,24,99
1523208964610184,-22,-8,-2,40,1,-2,-25,-86
1523208964610184,-73,-10,10,-35,-10,-12,-70,-78
1523208964618206,31,7,-26,-24,-1,-2,16,3
1523208964618206,33,-16,-19,7,-1,1,9,45
1523208964633482,30,26,69,99,4,-2,-42,-57
1523208964633482,-38,-8,-8,-28,-4,1,-15,39
1523208964641267,25,5,-12,9,5,19,73,-32
1523208964641267,42,-1,32,-14,2,-5,-42,1
1523208964656306,-37,-11,-9,-41,-11,-7,20,59
1523208964656306,9,4,0,23,1,4,-15,-25
1523208964656306,4,0,-4,-29,-3,-10,-122,5
1523208964656306,26,-12,9,12,5,14,53,76
1523208964670346,-21,-16,-30,-31,-3,-9,-49,-52
1523208964670346,-1,1,38,69,1,-6,14,-17
1523208964678364,30,4,-4,-17,-3,-10,-23,122
1523208964678364,-39,-8,-7,14,2,9,-13,-128
1523208964693641,-18,-5,-2,-37,-5,-4,-2,96
1523208964693641,11,11,-14,-13,1,2,28,52
1523208964701427,42,14,-7,25,-3,-4,19,2
1523208964701427,46,-3,-6,-16,-3,-9,-32,-111
1523208964716466,23,9,-24,-34,5,6,9,2
1523208964716466,39,-1,-22,55,-1,4,-7,-50
1523208964716466,-43,-21,55,-3,-2,0,31,-28
1523208964716466,-2,6,-34,-22,-7,-7,-25,-11
1523208964739527,-43,-14,12,4,1,1,41,73
1523208964739527,30,11,-6,-10,-4,-2,1,-1
1523208964739527,-29,-1,-10,-3,2,8,3,-52
1523208964739527,-30,4,-16,-22,-3,-7,-35,86
1523208964753564,75,0,2,40,8,5,-2,-43
1523208964753564,-11,9,17,11,-4,-6,2,61
1523208964754569,-2,-28,-3,-26,-4,-4,-12,-23
1523208964754569,-33,2,21,-4,-4,-12,-110,12
1523208964775622,-20,4,-7,-20,0,15,51,-10
1523208964775622,-112,-31,-19,-20,1,-3,-11,29
1523208964776627,67,5,8,7,0,0,2,32
1523208964776627,4,12,-41,34,-6,-2,-9,61
1523208964799797,7,-5,39,43,-2,-21,6,-21
1523208964799797,62,11,4,-37,2,5,-27,34
1523208964799797,-35,-4,-17,17,0,6,51,-43
1523208964799797,-16,8,1,-39,-6,-4,13,-68
1523208964813765,9,-13,-37,-30,1,9,-3,101
1523208964813765,1,1,24,79,0,1,43,0
1523208964814727,29,1,16,-18,-4,-16,-21,44
1523208964814727,6,0,14,2,2,6,27,-44
1523208964835789,73,15,-17,-34,-3,-1,-14,30
1523208964835789,35,14,-18,-60,2,5,-30,4
1523208964836788,-91,-21,-11,30,1,2,79,-72
1523208964836788,-20,-26,33,55,1,-9,-13,-29
1523208964858843,20,30,12,-6,5,3,8,-17
1523208964858843,29,-7,-52,-42,-1,-5,-21,39
1523208964859846,-1,5,10,16,0,7,-8,-26
1523208964859846,-21,-2,4,-3,3,9,15,78
1523208964873884,-104,-15,-4,8,-8,-10,-6,-69
1523208964873884,-44,-16,-9,-14,2,0,-25,-63
1523208964873884,5,2,-1,28,1,7,-25,81
1523208964873884,13,0,11,-3,-2,-4,32,33
1523208964903965,20,19,28,-12,-4,7,18,68
1523208964903965,-18,-13,1,4,-6,-12,-11,-93
1523208964904968,13,12,-30,10,4,4,-38,0
1523208964904968,-2,1,20,-2,1,3,66,17
1523208964919008,11,-17,11,0,-5,-7,-21,44
1523208964919008,-7,4,23,-16,-3,-2,15,-74
1523208964920011,-52,-11,-14,2,2,-4,3,-15
1523208964920011,13,5,13,3,-2,-9,-33,-53
1523208964934104,56,-10,10,-16,1,0,-15,34
1523208964934104,6,12,11,6,-2,6,30,62
1523208964934104,-22,-15,-19,-15,-4,-21,-77,-19
1523208964934104,11,15,21,-17,3,0,32,-104
1523208964956102,-9,11,-34,17,-4,1,-24,25
1523208964956102,-33,-34,-17,-44,0,0,41,-40
1523208964957105,51,-2,33,46,-6,-1,-15,84
1523208964957105,-54,-15,-80,-32,-8,-6,2,-50
1523208964979165,44,7,24,28,0,0,-12,-2
1523208964979165,-12,15,-19,-11,4,6,32,113
1523208964980166,30,12,4,-30,-4,-8,20,-74
1523208964980166,10,-1,27,32,1,3,18,11
1523208964993240,-14,5,-24,13,0,1,7,-7
1523208964993240,-8,1,7,-51,-4,0,-1,79
1523208964994203,-1,-9,4,40,5,2,12,-51
1523208964994203,0,-4,-37,-30,-6,0,2,111
1523208965016263,-66,-6,14,-15,5,1,-18,-127
1523208965016263,0,-10,39,24,-4,-7,-56,-2
1523208965016263,3,9,-7,-27,-5,1,49,-6
1523208965016263,-16,7,12,14,6,-5,-41,26
1523208965039323,-40,-9,-18,-6,1,3,7,52
1523208965039323,55,3,-33,13,-1,-5,-21,2
1523208965040327,7,2,-3,-16,-8,-3,-28,-70
1523208965040327,-83,-24,6,1,-3,3,53,-48
1523208965053371,21,-20,12,1,1,-3,-15,2
1523208965053371,54,-3,-11,11,-1,0,52,11
1523208965054365,-3,4,-28,-22,4,5,-33,27
1523208965054365,58,20,13,3,3,6,14,62
1523208965076424,-4,-10,7,10,1,4,29,-26
1523208965076424,-32,-4,0,9,-3,-2,4,-25
1523208965076424,16,6,10,-16,-6,-3,-19,15
1523208965076424,-5,-9,-17,6,-6,-11,-30,-33
1523208965099525,-2,3,1,-30,0,3,8,8
1523208965099525,43,19,3,4,5,0,-38,27
1523208965099525,-37,1,-6,-6,0,2,33,67
1523208965099525,-21,-10,-16,-16,-2,3,84,-1
1523208965113562,-31,8,11,31,-5,-7,-52,-27
1523208965113562,21,-9,-16,3,2,-12,-20,-102
1523208965114522,-2,-7,19,-27,-7,-1,-4,73
1523208965114522,17,-6,24,56,2,-9,-36,-77
1523208965135585,15,10,-11,-6,1,5,14,71
1523208965135585,-20,4,-1,-19,-3,2,25,13
1523208965136584,15,2,-12,3,9,6,37,71
1523208965136584,-12,-2,-18,-19,-2,0,-43,10
1523208965159645,18,-2,18,1,-3,-2,17,35
1523208965159645,-24,7,10,8,2,0,-17,-43
1523208965159645,4,-4,-20,-6,1,4,-32,-18
1523208965159645,27,32,8,-49,-1,4,2,-11
1523208965173681,-51,-19,-14,31,-12,-4,25,47
1523208965173681,-86,-7,34,44,3,-11,-52,-64
1523208965174683,-74,-5,-67,-52,-3,-8,-46,-22
1523208965174683,-34,-11,28,36,0,4,-2,-38
1523208965195974,34,5,-5,-32,2,-4,-15,-25
1523208965195974,41,24,-22,-23,-4,-2,61,71
1523208965196741,13,-11,19,37,-2,-6,-19,-18
1523208965196741,15,3,-25,-16,1,-4,-49,-16
1523208965218810,14,27,2,13,5,4,26,30
1523208965218810,-58,-29,-23,-17,-8,0,10,-14
1523208965219816,11,-16,-12,0,-5,-6,4,-105
1523208965219816,47,1,43,-6,-10,-3,46,67
1523208965234022,-38,-15,24,4,-1,-3,4,-28
1523208965234022,28,8,11,13,-1,1,-17,12
1523208965234022,-13,-11,-5,8,-3,-2,11,-83
1523208965234022,-45,-13,-3,-9,1,1,-13,50
1523208965255937,-68,9,3,-14,-2,7,14,-16
1523208965255937,30,8,-39,-34,-3,-1,13,34
1523208965256902,8,0,11,-9,2,0,-59,40
1523208965256902,29,-1,-25,12,5,8,75,31
1523208965278960,12,4,28,62,-3,-4,-39,-36
1523208965278960,-12,12,-29,-19,-1,-1,16,35
1523208965279962,0,6,34,1,0,-4,-9,-26
1523208965279962,-9,-10,-46,-23,-7,-9,-66,-45
1523208965294066,37,14,-7,9,5,-4,-16,-15
1523208965294066,17,-5,21,-3,-3,3,0,37
1523208965294066,41,6,23,-6,3,1,33,31
1523208965294066,-17,0,6,3,3,6,-15,27
1523208965316060,87,-10,-31,-23,-3,0,61,-1
1523208965316060,-14,-3,20,11,1,-4,-51,-29
1523208965317103,-42,4,-10,18,0,2,78,33
1523208965317103,-18,-22,-2,2,-6,-8,-44,95
1523208965339120,-16,-22,-10,-37,-7,-5,-28,-90
1523208965339120,26,-12,42,42,-1,2,29,102
1523208965340123,24,8,2,4,-1,2,-31,-63
1523208965340123,33,14,17,-24,-2,1,-39,96
1523208965353163,-30,12,-24,29,-2,-7,-3,37
1523208965353163,45,-1,-13,-43,-6,-5,-6,-24
1523208965361180,-41,-31,-17,-14,2,0,1,19
1523208965361180,15,1,32,32,-2,-2,-4,-50
1523208965376219,40,-5,-21,-33,2,-1,12,54
1523208965376219,65,9,-11,-3,3,9,51,28
1523208965377222,103,16,-4,19,-5,0,-23,35
1523208965377222,-76,-8,-5,0,4,-4,39,-66
1523208965399517,18,0,-1,6,-2,3,3,60
1523208965399517,-35,-19,-11,-4,-4,-7,-17,-78
1523208965400282,30,1,-9,-38,-1,5,13,13
1523208965400282,10,-1,24,43,-7,-13,-15,-42
1523208965412314,-21,2,-5,8,-2,-6,-14,-11
1523208965412314,-16,5,41,25,5,1,-43,38
1523208965421338,-20,5,-4,-20,1,0,-79,64
1523208965421338,35,12,-8,-17,1,6,29,-22
1523208965436407,-39,-19,16,-5,2,-6,11,-36
1523208965436407,-5,-2,-39,20,-2,-2,37,-46
1523208965436407,-11,-11,17,-11,-3,1,-2,49
1523208965436407,70,12,-11,10,2,7,-36,25
1523208965459439,-45,-1,4,-23,3,1,-40,-26
1523208965459439,5,-5,13,-25,-3,0,6,115
1523208965459439,54,3,-16,33,0,-12,-34,-61
1523208965459439,-29,-13,8,12,2,-2,61,-83
1523208965472475,-34,-9,-42,-34,0,3,-21,61
1523208965472475,26,-25,5,12,-4,6,-27,30
1523208965480496,10,4,16,3,-5,-4,61,26
1523208965480496,12,2,-24,-21,-6,-6,-15,-38
1523208965496593,-57,-26,3,0,3,1,-47,-25
1523208965496593,-9,3,13,9,2,7,102,-12
1523208965496593,36,6,8,-6,0,6,8,52
1523208965496593,-63,1,8,23,-2,-2,-25,-57
1523208965519603,17,-5,2,8,-4,-4,-17,49
1523208965519603,24,25,0,-12,-4,-9,-2,-42
1523208965519603,19,4,-17,-10,4,4,-7,-15
1523208965519603,-12,1,-7,-6,-1,-5,-2,-25
1523208965532856,6,7,10,-18,-4,-1,21,-102
1523208965532856,-29,-12,31,44,2,-2,-31,2
1523208965540657,24,7,-64,-55,-2,7,61,41
1523208965540657,27,-22,86,97,4,2,-44,61
1523208965555695,17,9,-4,-36,-5,-7,-56,4
1523208965555695,7,-2,-32,-40,0,1,68,-12
1523208965556699,-69,-16,31,41,1,-6,12,-87
1523208965556699,50,-11,-27,-67,-3,9,-4,77
1523208965578758,2,9,4,28,-1,-2,5,8
1523208965578758,-4,-5,-3,-4,1,5,-17,-39
1523208965579760,-116,2,11,13,0,-6,-21,29
1523208965579760,65,14,-24,-29,-3,1,-6,73
1523208965593031,40,16,-2,3,2,5,18,-87
1523208965593031,-78,-26,32,43,-5,-14,-49,-31
1523208965600818,7,-20,1,31,-6,-18,-42,-30
1523208965600818,8,1,-29,-11,0,-3,13,11
1523208965615857,37,19,-3,-6,0,3,44,58
1523208965615857,7,13,-3,-13,3,4,-53,36
1523208965616858,-28,6,21,-11,-3,1,6,1
1523208965616858,5,16,-30,-16,-1,1,25,8
1523208965638917,-15,-30,17,41,1,3,-5,26
1523208965638917,-34,-11,-2,-29,-5,-3,-17,-43
1523208965638917,-4,16,60,40,0,-13,16,-50
1523208965638917,22,2,-24,-35,-4,-3,-30,-59
1523208965652954,45,12,-6,-3,2,4,30,46
1523208965652954,-63,8,-23,-6,-5,-9,-79,-29
1523208965660976,15,-2,-18,-27,1,11,105,32
1523208965660976,9,1,26,12,3,5,-36,62
1523208965676016,18,-5,-11,32,-4,-6,-11,-27
1523208965676016,57,1,-1,-24,1,4,14,-16
1523208965677018,-8,-2,-5,-22,-1,6,-28,13
1523208965677018,-54,-5,5,50,2,-1,19,-20
1523208965699114,-29,-6,3,-34,-4,-2,-13,0
1523208965699114,-34,-1,-15,-18,-1,5,-3,-11
1523208965699114,44,-10,-3,8,1,8,73,-32
1523208965699114,49,-9,13,-16,-5,-7,19,34
1523208965721134,-39,-3,23,25,-3,-10,-46,-73
1523208965721134,48,-2,4,-5,5,-7,18,43
1523208965722137,-25,24,-24,26,0,-1,-30,24
1523208965722137,11,-23,-17,-34,4,9,9,-52
1523208965736184,-56,-13,31,44,-8,-5,2,108
1523208965736184,55,21,2,-22,-5,-5,-19,-71
1523208965737178,-7,5,-12,19,4,2,-51,110
1523208965737178,-15,2,-5,-30,-4,-6,94,-8
1523208965758233,-14,-1,-15,12,2,1,-27,22
1523208965758233,-13,-15,-3,4,-5,-2,48,-12
1523208965759236,36,-6,-5,-35,-3,-7,-63,34
1523208965759236,-79,-9,7,27,-2,-4,10,-34
1523208965781334,87,9,14,5,2,-1,-5,-17
1523208965781334,-49,-2,8,31,3,7,47,45
1523208965782299,-24,0,-4,-44,-6,-4,-37,-105
1523208965782299,-92,-19,-11,-28,-3,-7,2,0
1523208965796572,25,-2,-4,-14,3,-5,1,17
1523208965796572,65,7,15,32,0,-5,-52,54
1523208965796572,32,2,-4,23,-1,5,15,31
1523208965796572,-68,11,-22,-7,-1,3,-17,-51
1523208965818399,15,-24,-7,-38,2,7,40,75
1523208965818399,-26,-6,-8,12,2,-6,-49,-100
1523208965819398,16,-3,21,15,2,2,11,50
1523208965819398,82,20,-15,-50,-5,1,-15,46
1523208965841455,-46,7,6,6,-5,-8,5,-78
1523208965841455,-49,-19,15,-4,-2,0,8,77
1523208965842457,-15,0,-17,13,0,-1,-13,-2
1523208965842457,14,6,34,65,4,-9,-93,-37
1523208965855493,15,3,-23,-77,-3,12,38,11
1523208965855493,1,-6,-16,-1,0,4,-10,-16
1523208965856495,-7,-1,16,-18,-3,-7,8,-44
1523208965856495,21,-16,-11,-14,4,1,-66,-21
1523208965878555,-85,7,13,79,-2,-14,40,58
1523208965878555,-41,4,-17,-41,-8,-4,17,-92
1523208965879556,-5,-8,-11,-4,3,7,4,41
1523208965879556,1,-11,-8,-14,-5,7,41,24
1523208965901620,-53,-3,3,0,-1,6,13,-73
1523208965901620,23,-6,-2,6,-1,-8,3,14
1523208965902626,30,5,-5,10,-1,-5,34,16
1523208965902626,-17,3,26,25,-7,-1,-4,42
1523208965915652,22,-28,0,-49,1,8,-32,-73
1523208965915652,35,23,4,-9,-3,-2,-26,90
1523208965916654,-64,-18,18,18,3,0,-7,-21
1523208965916654,24,23,-18,3,2,-4,-10,14
1523208965938713,18,13,2,30,2,6,-44,79
1523208965938713,45,9,6,-32,3,5,3,49
1523208965939717,16,-12,-15,37,-4,-11,-38,-79
1523208965939717,10,-10,5,-39,-5,-9,47,5
1523208965961813,5,4,-16,-10,-4,-12,-46,14
1523208965961813,16,-7,-13,4,0,-4,-13,0
1523208965963011,47,18,-8,-1,3,11,30,-32
1523208965963011,-48,-21,43,27,0,-4,-16,71
1523208965975814,-28,-3,-27,-19,-5,-7,17,-82
1523208965975814,0,-10,-47,-10,-6,-4,0,-88
1523208965976814,-18,-1,9,-10,0,3,15,-17
1523208965976814,2,-19,4,15,0,-3,-5,1
1523208965999070,-19,3,-9,-18,-1,-1,72,34
1523208965999070,27,-10,10,-5,-2,4,15,51
1523208965999070,4,-8,4,-25,-7,-12,-8,-34
1523208965999070,20,14,-19,41,4,2,1,-42
1523208966021934,28,25,-13,-17,-2,-8,-37,34
1523208966021934,-28,7,8,20,4,4,42,27
1523208966021934,12,-7,6,6,1,-3,-45,-38
1523208966021934,5,7,-13,-27,-3,-3,-18,-27
1523208966035973,26,9,10,7,1,4,0,86
1523208966035973,-13,1,-13,3,-1,-3,-37,1
1523208966037002,-39,-13,-11,-37,-3,4,31,-10
1523208966037002,-9,5,37,36,-3,-5,-9,-7
1523208966058030,-22,20,2,28,2,5,6,-12
1523208966058030,43,-3,-3,-13,0,-5,-18,-7
1523208966059034,-14,10,16,-11,0,1,24,24
1523208966059034,-62,-14,-41,-14,-1,7,7,-26
1523208966082096,5,-8,-2,-41,-4,8,20,37
1523208966082096,-9,-12,40,53,1,-3,-20,-6
1523208966083103,21,-13,-28,-17,0,-11,-17,-65
1523208966083103,-25,8,18,13,-1,-1,-10,9
1523208966096366,69,2,-2,4,3,-2,-101,27
1523208966096366,-46,4,-11,-21,7,22,113,5
1523208966097134,3,-16,2,6,-6,-3,-28,21
1523208966097134,7,-15,-11,23,-7,-11,-22,29
1523208966118197,-6,-44,11,3,1,-3,-1,-84
1523208966118197,-6,2,3,-16,-3,-2,9,25
1523208966119193,-49,12,4,20,1,5,55,68
1523208966119193,70,14,-19,-29,1,1,9,29
1523208966141253,-39,2,-2,17,-5,-9,9,-123
1523208966141253,12,15,23,44,0,0,-12,-11
1523208966142255,-55,-4,-15,-8,-2,1,-22,0
1523208966142255,34,0,-13,-36,0,0,-2,-2
1523208966156291,55,-5,1,5,-2,-6,14,41
1523208966156291,-37,-14,-8,-6,-6,-5,-19,-73
1523208966156291,18,8,13,1,0,-2,-15,15
1523208966156291,-16,18,18,24,5,4,-10,-9
1523208966178350,58,5,-10,-2,3,14,55,94
1523208966178350,-20,-7,-29,-3,-8,-10,-33,-70
1523208966179353,4,8,19,-16,-4,-3,-3,3
1523208966179353,26,-9,-16,-15,7,9,1,13
1523208966201416,8,3,13,-5,-4,-3,-22,-70
1523208966201416,-32,5,-4,27,0,-6,26,56
1523208966202416,9,-3,-11,-51,-6,-3,-23,-29
1523208966202416,-37,20,-6,-17,-3,-4,42,12
1523208966215450,-29,-18,31,69,-2,-9,-16,-96
1523208966215450,40,13,0,-8,8,9,-66,75
1523208966216451,5,-24,-14,-35,-1,-10,-76,82
1523208966216451,-39,2,19,87,-2,8,97,-51
1523208966238513,-49,-1,-28,-47,0,-10,26,-21
1523208966238513,16,3,-6,-28,-6,-7,-19,45
1523208966239512,22,3,10,9,3,10,21,-19
1523208966239512,-4,-3,-12,-35,-2,-7,-67,-42
1523208966261574,-50,-14,13,40,-4,-6,1,-14
1523208966261574,49,11,11,-1,1,9,13,36
1523208966262574,-44,-5,-15,-13,2,-2,54,-6
1523208966262574,-1,2,-2,11,1,-1,-13,-15
1523208966275610,6,-5,-3,-29,-2,-4,0,-53
1523208966275610,-35,-3,-33,-15,-3,-4,-2,48
1523208966276610,38,15,15,27,-3,4,8,27
1523208966276610,4,-5,6,-33,2,1,-14,-2
1523208966298870,-24,27,-1,3,5,12,-9,91
1523208966298870,6,3,13,3,-2,-12,17,-19
1523208966305688,-31,7,3,17,-2,-3,-10,23
1523208966305688,29,3,-22,-34,-7,2,27,-43
1523208966321730,27,0,-19,-8,0,6,-26,14
1523208966321730,-54,-31,38,23,1,0,-2,-76
1523208966322734,23,9,-3,18,1,2,-47,54
1523208966322734,102,14,7,-21,1,2,73,96
1523208966335770,-15,-12,-12,-1,-2,-1,-24,-24
1523208966335770,33,-5,-15,-18,-4,3,34,29
1523208966344026,-63,-4,10,10,-4,-6,-30,-1
1523208966344026,2,-10,17,44,8,0,-45,-28
1523208966358830,9,-5,-25,5,-6,-1,8,68
1523208966358830,-2,5,8,-19,-5,-11,3,-49
1523208966358830,30,-4,-9,-22,-7,-8,-13,1
1523208966358830,-9,-3,-13,-9,3,12,35,28
1523208966381891,8,13,12,-17,2,1,12,7
1523208966381891,-29,9,-3,5,2,7,-6,54
1523208966382894,10,-14,-43,6,-3,-5,-13,-22
1523208966382894,-74,-28,51,41,-11,-15,9,-28
1523208966395954,34,-3,-5,-16,3,-6,-47,31
1523208966395954,-24,-4,-7,-11,-1,9,96,-51
1523208966402947,31,31,-12,11,8,8,11,20
1523208966402947,-51,-10,-4,-31,-4,-5,-54,6
1523208966417993,39,16,2,-16,1,3,-15,32
1523208966417993,13,0,9,37,-3,0,-25,-32
1523208966418990,-48,-17,-2,-5,-2,-6,-11,-47
1523208966418990,19,8,-24,-25,-2,-3,18,21
1523208966442081,6,-2,40,34,-2,0,-12,-32
1523208966442081,-35,16,1,-38,-4,-1,-21,32
1523208966442081,12,-22,8,15,0,-3,17,79
1523208966442081,34,14,7,22,5,4,-55,-7
1523208966455085,-16,-13,-53,-84,-2,-5,33,8
1523208966455085,-24,-21,7,52,-6,-13,-35,7
1523208966463127,28,-6,22,21,0,2,55,-86
1523208966463127,24,4,-21,-14,-3,-7,15,22
1523208966478147,-91,-6,5,-12,0,5,-32,-4
