timestamp,emg1,emg2,emg3,emg4,emg5,emg6,emg7,emg8
1523207877511453,2,23,26,0,2,-3,2,-1
1523207877511453,1,-11,14,-3,1,2,-2,1
1523207877512457,1,9,-19,7,11,7,2,2
1523207877512457,1,0,72,3,-7,-3,0,-2
1523207877525491,-2,-5,0,-22,2,-2,1,-3
1523207877525491,-6,-5,-53,35,-3,-3,-7,-5
1523207877526492,-1,5,59,-12,4,3,4,2
1523207877526492,-4,-13,-59,-30,-17,-11,-1,-2
1523207877548556,3,2,54,28,-6,-3,1,-3
1523207877548556,-1,4,-8,0,9,2,5,3
1523207877549555,-2,-3,-10,7,19,14,11,2
1523207877549555,7,7,22,19,4,-1,-5,0
1523207877571615,-2,4,-67,-35,-12,-3,-11,-2
1523207877571615,-5,-30,-62,-2,-9,-2,-50,1
1523207877571615,-11,-7,21,4,7,-8,28,-12
1523207877571615,18,7,12,-11,-1,0,31,3
1523207877585652,3,2,-33,17,-1,1,-30,3
1523207877585652,-7,0,51,-19,-10,-7,41,-2
1523207877586653,3,0,-23,-8,-2,-1,-19,2
1523207877586653,-2,1,25,14,2,2,-13,-3
1523207877608711,1,1,14,2,4,1,-3,0
1523207877608711,4,5,-25,-15,1,2,1,1
1523207877609714,-4,-7,49,12,-5,-3,-6,-2
1523207877609714,1,8,-3,-16,-6,-3,4,1
1523207877631777,-3,-9,25,20,7,3,1,-1
1523207877631777,-3,15,5,17,1,-2,3,-3
1523207877631777,2,3,4,-9,-3,-2,13,1
1523207877631777,-3,-3,-5,5,-4,-1,-14,-2
1523207877645812,3,-7,-11,-27,26,15,7,4
1523207877645812,-6,-1,36,52,-4,-2,0,-4
1523207877646817,0,1,-4,-43,-4,-9,8,0
1523207877646817,1,3,-18,6,-17,-5,-5,0
1523207877668882,2,5,17,-4,0,2,-2,3
1523207877668882,1,7,-22,1,2,-3,-3,5
1523207877669875,-2,-9,-32,-7,2,-2,-32,-6
1523207877669875,-7,-8,3,8,2,-4,21,-1
1523207877690930,1,9,-19,-33,-6,2,10,1
1523207877690930,-5,-13,-67,-4,-3,-2,-19,-7
1523207877691932,-1,-4,15,33,-10,-5,2,-1
1523207877691932,-3,-4,31,-52,-10,-7,-10,-3
1523207877705969,-1,-2,11,33,3,-4,-22,-5
1523207877705969,4,9,3,-20,14,13,30,7
1523207877705969,1,-2,-8,9,2,4,-23,1
1523207877705969,-8,-7,3,13,0,-4,12,-10
1523207877728029,-3,0,-8,-21,-21,-9,35,7
1523207877728029,2,-1,-10,-18,1,-3,-18,-12
1523207877729031,1,-3,34,19,3,5,10,26
1523207877729031,6,6,-4,2,1,0,-29,-32
1523207877751090,10,7,-20,-28,-4,-1,-5,13
1523207877751090,-9,-26,18,29,-7,3,-43,101
1523207877752092,-16,2,-6,-16,1,-11,66,-100
1523207877752092,-1,1,4,0,2,-1,4,25
1523207877765132,-2,-5,-11,17,0,8,-22,20
1523207877765132,11,10,-22,-34,1,-12,1,0
1523207877766129,1,-2,18,-34,5,12,29,74
1523207877766129,0,-2,-16,89,1,0,-73,-76
1523207877788188,3,0,78,-64,-11,2,28,-6
1523207877788188,23,13,-4,9,-1,7,17,98
1523207877789191,-13,-22,3,7,5,2,-64,-83
1523207877789191,-32,-7,-60,-36,-2,-18,52,-42
1523207877811252,-4,-14,-7,28,0,-8,0,52
1523207877811252,9,-4,-51,-5,-4,12,-13,22
1523207877812253,35,13,50,8,3,7,-19,112
1523207877812253,-65,-19,-83,-37,-7,-12,-112,-36
1523207877825288,-40,-25,83,85,10,0,60,63
1523207877825288,-3,14,62,-13,1,-25,-13,-100
1523207877826290,10,12,-64,-18,-2,3,-106,-82
1523207877826290,44,-21,49,38,1,5,86,36
1523207877848360,21,5,-77,5,2,-2,-49,50
1523207877848360,-24,-25,-18,-35,-14,-5,-57,-40
1523207877849355,-10,-1,-25,28,4,3,119,20
1523207877849355,8,-15,40,-3,-2,-13,-63,99
1523207877871413,-27,9,-4,-32,2,-5,-41,-128
1523207877871413,39,10,-69,15,6,25,20,127
1523207877872413,-11,-6,45,36,-11,-5,3,-85
1523207877872413,20,33,-10,-37,-1,7,28,20
1523207877884444,17,9,-2,9,1,19,75,127
1523207877884444,-26,-29,-32,-34,-9,-7,48,-128
1523207877893468,25,23,-32,-56,-4,-8,-24,13
1523207877893468,-23,-5,84,79,6,4,95,23
1523207877908508,-11,-23,3,18,-1,4,-55,-34
1523207877908508,-31,-34,-18,-11,-9,-23,-10,-6
1523207877908508,-6,-11,6,-9,-3,-5,19,91
1523207877908508,34,22,-47,-32,3,10,-15,-55
1523207877931573,16,23,-43,-22,-2,5,-40,-18
1523207877931573,-12,5,91,31,1,-1,38,-41
1523207877932574,31,-4,-36,2,2,2,-13,46
1523207877932574,-30,-17,46,2,-2,4,-105,-10
1523207877945607,-14,-20,36,29,4,-20,55,-66
1523207877945607,8,17,-18,-6,-2,3,-63,7
1523207877946610,8,18,13,-7,0,-2,-41,6
1523207877946610,2,-14,-15,-13,-8,0,-18,24
1523207877967666,9,5,-47,-36,-6,-8,32,-2
1523207877967666,13,6,73,40,0,7,7,54
1523207877968667,-19,1,-11,0,2,-3,-21,-43
1523207877968667,33,20,-17,-21,4,8,23,74
1523207877990726,-10,3,52,19,0,-1,-4,-44
1523207877990726,-2,11,-70,-9,1,3,-15,15
1523207877991728,1,-7,81,52,-4,4,-1,-73
1523207877991728,-60,0,-21,-40,3,-27,35,49
1523207878013788,13,-6,-13,2,-3,4,4,35
1523207878013788,-14,-8,30,0,3,0,44,-43
1523207878014800,-2,0,-43,-9,-8,-5,-12,21
1523207878014800,58,-2,2,-2,-3,4,-57,1
1523207878028063,50,4,-16,-22,-5,-7,1,34
1523207878028063,-67,10,83,3,7,4,-4,4
1523207878028827,46,-19,-101,-1,-2,-2,15,12
1523207878028827,-28,-11,77,-11,0,7,3,-27
1523207878050886,3,-11,-39,22,-2,-4,-29,-3
1523207878050886,18,-16,67,5,3,0,77,19
1523207878051892,-37,7,-3,-28,3,1,-4,60
1523207878051892,-49,-58,37,5,-12,-8,-53,-28
1523207878064928,-4,-3,-15,-21,-4,-11,5,-39
1523207878064928,23,27,-4,17,2,0,37,32
1523207878073184,45,27,43,19,3,-5,24,77
1523207878073184,-42,-8,23,-36,-5,1,15,-75
1523207878087985,-47,-39,-88,-56,-15,-7,-23,-26
1523207878087985,-3,-5,59,61,4,6,29,81
1523207878088988,-41,20,0,-22,-4,-3,-6,-28
1523207878088988,10,2,61,21,11,11,14,48
1523207878111048,66,3,-22,-47,-8,-9,-103,-94
1523207878111048,-26,10,26,42,7,6,57,17
1523207878112048,34,-8,-13,4,-4,1,-1,23
1523207878112048,-19,21,-29,3,-3,5,26,18
1523207878125082,21,-30,3,-1,1,-13,-35,72
1523207878125082,57,-9,-76,-68,-5,9,-119,-45
1523207878133111,-61,-14,61,64,0,-13,75,10
1523207878133111,116,53,-23,-8,-1,5,17,-5
1523207878148153,-128,-15,3,15,1,3,10,-16
1523207878148153,-13,-6,23,-17,-4,-11,8,-58
1523207878149155,39,-10,25,28,5,15,51,-11
1523207878149155,33,18,-46,6,5,4,9,56
1523207878171441,23,42,39,-17,11,18,47,127
1523207878171441,-98,-70,-30,6,-27,-30,-41,-125
1523207878172208,6,8,32,-25,2,-2,-37,-70
1523207878172208,21,-3,-51,-9,-6,-5,35,91
1523207878185243,-39,0,48,47,6,3,-13,-111
1523207878185243,53,45,-25,-21,0,1,-42,127
1523207878193267,-37,-22,-22,-15,-7,5,77,-66
1523207878193267,1,9,12,10,1,-5,-48,-43
1523207878208304,47,33,-25,-25,-2,16,86,12
1523207878208304,18,19,72,30,2,8,-41,31
1523207878209306,-62,-44,46,29,2,-21,62,29
1523207878209306,-5,-25,-85,-38,-3,-5,-6,-23
1523207878238383,10,16,-17,-5,-7,0,-12,68
1523207878238383,7,16,-12,6,2,-1,-41,49
1523207878239387,-1,18,20,5,9,2,-51,-56
1523207878239387,-14,2,-12,-18,-4,2,43,-2
1523207878245511,0,-4,44,23,4,3,7,33
1523207878245511,22,6,-40,-28,-5,6,-21,-58
1523207878253431,10,1,-42,-31,-3,6,52,54
1523207878253431,-17,-13,41,25,2,4,-35,-8
1523207878268464,-20,-18,-10,3,-8,-13,-46,-79
1523207878268464,10,-8,52,48,14,15,86,0
1523207878268464,-14,2,-39,-29,-9,-7,-62,3
1523207878268464,-6,-6,29,33,0,-3,17,-13
1523207878291526,15,10,0,-13,0,9,16,42
1523207878291526,-38,3,-39,-32,0,-4,45,-51
1523207878291526,10,-2,0,2,-6,-6,-42,27
1523207878291526,6,-9,12,14,1,5,24,40
1523207878304560,-4,5,27,9,4,-19,-46,-68
1523207878304560,7,-7,-75,-28,1,-4,-18,-2
1523207878313584,6,25,45,33,-3,-6,-97,3
1523207878313584,-17,-27,20,-10,-4,1,13,-18
1523207878327622,35,-15,-56,2,-1,-1,22,50
1523207878327622,28,33,-15,-48,3,-2,38,46
1523207878334641,7,14,-4,23,4,9,13,-45
1523207878334641,-6,-16,-6,-3,-10,-6,-10,3
1523207878351685,-17,11,32,42,4,-4,1,6
1523207878351685,1,-29,-36,-21,-2,-8,-81,-34
1523207878352688,9,0,-29,-33,-1,2,-20,32
1523207878352688,12,18,-12,1,0,-15,-30,-23
1523207878364726,9,-6,23,2,-2,1,-12,35
1523207878364726,42,28,14,-37,2,7,37,48
1523207878373777,-83,-37,15,24,-2,1,6,-51
1523207878373777,-16,0,-34,29,-1,-12,-9,-64
1523207878387782,-5,15,-6,-4,1,-4,-26,39
1523207878387782,8,0,-11,2,-2,-7,-12,-85
1523207878396811,35,-7,45,-17,-1,5,-18,108
1523207878396811,-51,-3,47,5,3,-3,-10,-37
1523207878411887,-6,-4,-35,-17,-15,-7,-6,2
1523207878411887,18,7,2,-7,5,4,19,24
1523207878412847,24,8,-15,-19,-3,3,17,91
1523207878412847,-5,30,-35,42,2,8,-3,-90
1523207878433905,8,-37,17,9,5,6,-38,-2
1523207878433905,-7,2,-5,-27,-7,-3,53,56
1523207878434913,-13,18,-32,18,-7,-9,-44,-24
1523207878434913,11,21,36,-1,1,-5,46,-32
1523207878447947,38,14,-12,-8,1,1,-66,-12
1523207878447947,-100,-51,7,-21,-14,-9,10,-25
1523207878455999,26,3,53,28,4,4,-14,2
1523207878455999,15,7,7,-34,1,19,25,86
1523207878471043,-28,-10,40,36,0,-5,55,-31
1523207878471043,26,5,-25,13,1,-3,-36,-39
1523207878473007,-10,-12,7,-23,-2,-1,9,23
1523207878473007,-23,-36,-81,-34,-10,-14,-81,-98
1523207878494067,39,14,27,2,-1,6,61,51
1523207878494067,-17,6,89,22,0,2,-41,-25
1523207878496069,11,-7,-77,4,-2,-6,27,-24
1523207878496069,27,11,1,2,4,1,-8,50
1523207878508102,-30,3,-45,-22,-2,1,61,-18
1523207878508102,12,-9,5,21,-5,0,-9,-11
1523207878516122,16,9,8,-15,-1,1,-8,1
1523207878516122,5,-4,30,-12,0,3,20,44
1523207878531167,-18,2,-22,18,-8,-8,-59,-26
1523207878531167,-2,-4,4,13,4,3,14,-22
1523207878533168,-4,1,-10,-31,1,-3,62,3
1523207878533168,-5,2,20,17,-1,-3,-18,7
1523207878554225,-3,-7,-9,-16,-2,5,-8,-10
1523207878554225,-13,4,5,18,-1,-3,-16,12
1523207878555227,-8,-2,10,-6,2,-1,4,-23
1523207878555227,14,4,-38,-26,-3,-4,-18,30
1523207878568261,6,19,52,-6,0,4,34,-2
1523207878568261,10,-3,7,36,6,11,-31,33
1523207878575281,22,-13,-31,-14,0,1,42,27
1523207878575281,-42,-1,57,-6,-5,-9,-17,-89
1523207878591325,-9,-13,95,30,-3,-14,-39,-14
1523207878591325,25,-5,-87,-26,-1,-3,41,-11
1523207878593328,-60,-12,-4,-1,0,2,-16,9
1523207878593328,35,12,46,10,1,6,8,61
1523207878613382,-7,3,-18,-16,1,0,24,-16
1523207878613382,21,32,-15,-39,1,-2,-34,18
1523207878615390,-11,-28,89,103,-5,-5,-30,-46
1523207878615390,4,-17,-67,-10,0,-8,12,76
1523207878628420,-22,8,18,0,-2,-2,-15,-66
1523207878628420,-29,-28,-38,-8,-3,2,-58,15
1523207878634437,1,3,-20,-48,-4,-10,1,-59
1523207878634437,-6,-12,-22,25,-2,-2,-33,16
1523207878651482,32,9,-23,12,3,-4,91,52
1523207878651482,50,8,13,3,-2,0,2,72
1523207878652484,-58,7,-16,-52,3,4,-45,-28
1523207878652484,5,-8,19,64,-3,-3,15,-71
1523207878673541,2,-10,3,-19,3,7,-56,23
1523207878673541,4,18,-47,0,-4,-13,51,-24
1523207878675545,24,0,-67,1,5,6,10,35
1523207878675545,2,18,76,-45,-2,6,-23,24
1523207878687578,-42,-38,3,27,-7,0,13,-23
1523207878687578,-7,9,67,-18,2,-6,-22,-33
1523207878694597,33,13,-19,13,-1,0,-32,-6
1523207878694597,4,-13,-46,20,-4,-8,-59,31
1523207878711643,-17,-26,-51,-50,3,2,31,-51
1523207878711643,-8,0,60,8,-4,-3,-5,-15
1523207878712645,18,-2,-7,15,-2,1,-34,22
1523207878712645,14,11,-26,-18,0,-11,-11,18
1523207878733705,-1,9,-7,-10,-2,-2,17,47
1523207878733705,14,17,-2,24,6,-9,43,-74
1523207878735707,-13,1,-27,-20,2,3,-20,25
1523207878735707,-53,-32,-19,-28,-2,-1,-2,-47
1523207878747739,0,-34,14,40,-7,-10,-29,8
1523207878747739,-19,-6,-74,-34,-1,10,46,13
1523207878754757,32,-7,95,31,2,4,32,-1
1523207878754757,28,27,-73,-14,0,12,106,60
1523207878770800,4,23,-32,-41,2,0,-31,19
1523207878770800,-4,-28,31,32,-8,-3,-41,-58
1523207878772804,12,-5,7,-5,-6,-10,-27,-5
1523207878772804,-3,13,-20,-29,6,6,57,-12
1523207878793861,6,20,44,27,-2,-2,-20,2
1523207878793861,-19,-17,-34,-11,0,-6,-9,54
1523207878794864,-12,5,-9,-29,-4,-2,-33,-37
1523207878794864,33,-14,14,14,-2,0,77,-8
1523207878807898,41,49,-29,-43,2,4,-20,28
1523207878807898,-29,-51,-40,10,0,6,24,-4
1523207878814917,3,28,10,14,1,-5,16,-10
1523207878814917,-10,-6,58,-7,-3,-3,-39,6
1523207878830966,-13,-12,-14,86,8,3,34,32
1523207878830966,14,33,24,-50,-11,-2,-23,-30
1523207878832965,23,10,21,-2,3,5,19,116
1523207878832965,-3,-22,20,-7,-6,-3,3,-101
1523207878854020,-83,-21,-8,-43,-7,-7,-30,-23
1523207878854020,61,-4,36,41,3,-17,-14,21
1523207878855023,-25,16,9,13,2,6,59,27
1523207878855023,5,16,15,11,7,7,-18,61
1523207878868058,25,-18,-41,-2,-5,0,20,-36
1523207878868058,-4,15,4,-32,-5,-2,-14,-9
1523207878875079,-11,-27,-45,1,-7,-10,-36,-40
1523207878875079,23,12,27,13,3,5,23,60
1523207878891121,17,4,13,-8,1,-7,-7,-19
1523207878891121,-17,-25,-21,-38,3,9,-10,-21
1523207878893127,-4,-31,-14,39,-11,-12,10,45
1523207878893127,-46,-19,-2,11,-3,-9,-119,-84
1523207878914193,27,6,-52,-24,0,-4,4,24
1523207878914193,-23,-1,34,20,-2,0,16,19
1523207878915188,-4,-10,-19,-31,1,5,-11,-14
1523207878915188,49,19,-29,14,2,3,12,16
1523207878927217,-56,-17,69,10,-2,0,-26,22
1523207878927217,-9,6,-28,-19,-4,-1,3,-39
1523207878936239,6,8,29,-1,-1,-1,15,-25
1523207878936239,-20,-15,-38,-7,-3,-2,9,28
1523207878951278,20,-4,-36,45,-3,2,-5,-17
1523207878951278,-46,-31,-69,16,3,-4,36,2
1523207878953285,70,30,100,-28,-4,-2,-13,-13
1523207878953285,-30,3,9,1,-3,-6,-17,82
1523207878973336,1,20,33,-30,1,-10,17,-69
1523207878973336,1,13,28,20,-4,3,-9,46
1523207878975342,19,5,-9,9,2,-1,-69,-26
1523207878975342,7,-4,-38,-4,1,11,105,38
1523207878987376,26,2,3,-36,-5,1,6,24
1523207878987376,-38,-7,71,76,0,-3,-26,-28
1523207878996400,-17,-6,-34,-41,-1,-3,27,-13
1523207878996400,-9,-5,6,-15,-3,-1,-45,-17
1523207879011441,-7,1,15,19,1,0,9,27
1523207879011441,61,32,51,-23,4,10,-9,-12
1523207879012443,-28,-24,24,24,-2,-3,5,28
1523207879012443,-20,-5,46,27,0,-8,-12,21
1523207879033498,14,-8,-47,-33,-3,0,-19,-65
1523207879033498,-1,11,5,-3,-1,5,37,23
1523207879035502,60,6,-50,-25,-2,-8,-6,13
1523207879035502,-33,-4,40,19,4,5,48,-16
1523207879047537,-7,6,-6,21,3,5,10,5
1523207879047537,-7,-14,-41,-14,0,-1,-14,13
1523207879056558,-23,-24,-41,5,-2,0,-17,-7
1523207879056558,40,23,71,4,-3,-10,-33,-10
1523207879071599,-7,-22,-35,-16,3,6,-5,38
1523207879071599,21,13,-4,-8,0,2,21,1
1523207879072602,-37,-5,-29,-18,-8,-1,7,-27
1523207879072602,5,-12,55,37,6,2,-37,-22
1523207879093657,7,15,-39,30,4,-2,-29,-10
1523207879093657,17,-8,14,-18,-4,-1,42,29
1523207879095662,14,7,-22,-48,-4,1,44,24
1523207879095662,-1,-7,-49,-12,-7,-3,-22,11
1523207879107696,-9,3,49,9,-4,1,-31,-84
1523207879107696,4,3,8,9,2,-7,49,49
1523207879116718,92,42,-8,-42,2,7,-2,4
1523207879116718,1,-19,-26,56,-4,2,-22,26
1523207879130760,-99,-7,8,35,-1,-5,-11,-10
1523207879130760,30,35,79,-17,-3,-2,-22,56
1523207879132762,-13,11,12,-15,6,3,-4,-36
1523207879132762,20,4,-30,-31,1,1,-1,-26
1523207879153817,23,-3,29,48,-2,-9,-17,70
1523207879153817,-21,-8,-49,-5,-1,-9,-21,-110
1523207879155823,-12,14,33,52,5,-3,-33,-40
1523207879155823,-44,-33,-23,-53,-6,0,8,1
1523207879175875,21,13,-71,-56,-2,8,55,29
1523207879175875,-9,-6,60,65,-1,-6,-60,37
1523207879177881,-25,-4,-28,-14,-4,5,5,-18
1523207879177881,29,33,-20,4,2,-4,23,37
1523207879190920,12,-15,-10,-52,-7,-7,3,-8
1523207879190920,-8,11,-17,-17,-7,-6,-41,-31
1523207879192922,-53,-27,72,85,2,-7,30,-27
1523207879192922,29,31,4,-7,3,11,36,35
1523207879213985,45,-20,-41,-51,-4,-3,34,105
1523207879213985,-40,-30,21,-5,-2,-1,26,-44
1523207879214980,-3,-25,17,15,-1,-1,-39,24
1523207879214980,-10,6,-8,2,4,1,-1,-24
1523207879228013,22,6,5,-11,2,3,-16,-17
1523207879228013,13,-4,-28,-51,-2,3,-59,8
1523207879236036,-62,-27,9,59,-6,-4,26,-14
1523207879236036,14,9,-10,-3,-3,-6,-10,59
1523207879251079,-22,9,42,2,0,0,4,-69
1523207879251079,11,3,-29,4,-2,2,-60,62
1523207879253081,40,14,-4,-21,0,-5,41,17
1523207879253081,-45,5,-32,-30,0,2,-53,18
1523207879274145,-10,3,62,58,-1,-1,85,-17
1523207879274145,-23,-9,-84,-24,-8,0,8,-33
1523207879275139,12,0,17,6,-2,-3,-38,23
1523207879275139,24,-23,27,2,-1,-1,3,-68
1523207879287171,4,11,50,4,2,1,8,7
1523207879287171,-3,-11,32,12,4,8,23,-5
1523207879296195,-12,15,-53,-49,-6,-6,-38,35
1523207879296195,-6,-17,33,41,4,-2,34,-51
1523207879311236,-14,-3,9,6,-3,-1,-17,-35
1523207879311236,32,10,7,3,4,3,28,23
1523207879313241,-1,25,0,-19,2,4,0,40
1523207879313241,-11,-7,-6,-29,-3,-2,-9,-16
1523207879333294,8,-3,-22,14,2,3,-1,-6
1523207879333294,-12,9,-52,22,-2,-6,-7,-4
1523207879335299,24,-3,-3,-16,3,2,-27,-9
1523207879335299,-61,-26,-66,-54,-9,-7,11,-63
1523207879356355,27,11,40,24,-1,0,-24,40
1523207879356355,10,-3,38,42,4,-4,0,30
1523207879357358,-20,11,18,-14,-3,0,5,-31
1523207879357358,73,16,13,-13,-1,8,-22,65
1523207879371633,-49,-20,-20,-46,-6,-5,28,-48
1523207879371633,-33,-15,-43,9,-2,-7,-3,7
1523207879373482,14,-7,16,35,3,3,20,-62
1523207879373482,29,18,26,2,-3,2,-21,37
1523207879393455,-18,4,-28,-51,-1,1,-14,-14
1523207879393455,4,-10,81,61,-2,-7,-38,-62
1523207879395460,-35,-17,-34,22,-1,-6,62,77
1523207879395460,-21,1,36,2,-2,-4,-7,-87
1523207879416514,23,1,-37,-8,-4,-2,-31,57
1523207879416514,9,4,-36,-51,2,5,13,37
1523207879417517,-25,-36,-4,32,-1,4,-21,-47
1523207879417517,4,1,21,17,3,-5,35,-4
1523207879431555,-42,0,13,13,2,1,10,40
1523207879431555,65,8,-29,-33,-4,5,-31,-91
1523207879432557,-62,-14,-26,-42,-6,4,32,-31
1523207879432557,2,-6,-15,47,3,-5,20,10
1523207879453613,9,-4,18,-3,-2,-3,-6,-30
1523207879453613,5,4,22,36,-2,5,46,22
1523207879455658,18,-2,27,11,0,-12,-62,11
1523207879455658,-1,0,8,-37,-3,0,10,16
1523207879476859,8,-11,-80,-19,-6,-2,-15,-4
1523207879476859,-23,-1,26,5,0,-3,-36,106
1523207879477676,17,-5,-13,-5,3,1,33,-24
1523207879477676,-12,1,7,-5,-4,2,-6,-21
1523207879490716,40,19,42,38,3,-2,-34,-15
1523207879490716,-23,-12,56,-24,-1,-2,4,36
1523207879492718,-21,-31,-19,-12,-4,-4,-46,-40
1523207879492718,3,-14,-13,45,3,13,82,18
1523207879513780,15,18,-22,-21,-9,0,12,-1
1523207879513780,-17,-18,21,-33,-2,2,21,-22
1523207879515782,19,33,67,56,1,-5,-10,28
1523207879515782,-12,-38,-8,-22,-4,-8,33,-6
1523207879535831,14,19,-9,10,2,1,-25,19
1523207879535831,18,17,-37,-30,1,2,26,-4
1523207879537838,-16,-3,-13,-45,-4,-1,-16,20
1523207879537838,-24,-19,-16,64,-2,-1,-67,-48
1523207879550871,22,-1,38,-1,9,-6,32,59
1523207879550871,-18,-16,-18,-8,-2,-1,-21,-95
1523207879557891,53,12,-39,-24,0,4,-8,79
1523207879557891,-48,34,24,-14,-1,-8,-18,-36
1523207879574145,-19,-8,6,5,6,8,-15,-36
1523207879574145,-13,-21,-25,28,1,-3,-10,-17
1523207879576083,18,20,30,11,0,-1,33,23
1523207879576083,39,1,-7,-33,3,6,-45,45
1523207879595992,-29,6,-5,-17,-3,3,5,-23
1523207879595992,-20,14,27,8,3,3,8,37
1523207879598002,-6,-24,-61,-39,-1,0,3,-67
1523207879598002,-11,-33,57,48,-8,-15,-41,-7
1523207879611031,5,-3,-1,-5,2,3,3,14
1523207879611031,27,19,-18,-37,-6,-5,-4,12
1523207879617048,-6,-6,6,17,0,4,2,12
1523207879617048,28,14,-5,-20,3,-1,-42,-6
1523207879634094,-10,-15,-57,45,-3,-10,46,15
1523207879634094,-20,-10,-9,-7,-6,-4,0,30
1523207879635096,-10,11,-12,-53,-2,1,-1,-11
1523207879635096,9,-5,11,-25,-2,-1,-35,-2
1523207879656151,24,1,33,43,-7,-11,-19,31
1523207879656151,-12,14,-9,0,4,2,-5,8
1523207879658157,25,23,-24,4,-4,-2,34,23
1523207879658157,-37,-13,14,-10,-3,-5,7,-52
1523207879671227,-62,-27,-34,-33,-5,4,-3,4
1523207879671227,17,-6,24,28,-2,-10,9,-7
1523207879677443,33,10,19,-26,2,8,-24,11
1523207879677443,-11,13,-38,33,-2,-1,65,-25
1523207879693252,23,2,36,-5,-3,2,26,4
1523207879693252,-1,-1,-60,0,2,-2,-17,-7
1523207879695254,-14,-9,-13,-22,-1,3,32,8
1523207879695254,7,-6,-8,10,-3,-2,-3,9
1523207879716311,35,13,-9,18,3,-1,17,5
1523207879716311,-74,-2,-54,-3,0,5,9,0
1523207879718318,-17,-10,66,-3,-2,-7,-26,-47
1523207879718318,5,12,-12,-14,-3,1,20,20
1523207879730358,-4,4,12,-9,0,-3,-1,-24
1523207879730358,54,1,6,-2,-6,-4,-3,-14
1523207879737367,-26,4,-30,-5,-2,-4,-1,34
1523207879737367,18,11,-21,-28,0,4,-2,15
1523207879753415,-22,-18,60,72,-2,-6,-14,-11
1523207879753415,45,8,63,-2,3,6,7,25
1523207879755416,-27,-7,-51,3,-6,-11,-19,-63
1523207879755416,29,-10,-6,-30,1,-2,-2,98
1523207879776709,-7,13,-14,-34,-5,0,-47,-88
1523207879776709,-2,-6,-9,38,1,-4,5,-32
1523207879778519,-17,-6,-30,-30,-1,6,32,-10
1523207879778519,-20,-9,36,33,-2,-6,-31,-17
1523207879790509,42,2,47,21,9,3,-29,13
1523207879790509,-47,-10,-45,-32,-3,-3,38,23
1523207879797532,15,4,30,59,7,2,-65,-64
1523207879797532,2,3,-23,-44,-1,-1,30,46
1523207879813578,2,10,24,-18,-3,2,-13,2
1523207879813578,13,-2,5,-16,-4,2,0,-32
1523207879815577,-7,-6,-10,-19,1,-1,-36,36
1523207879815577,21,-3,13,23,-5,1,25,3
1523207879836632,-17,9,13,10,5,-6,-15,-32
1523207879836632,-16,5,-1,-7,-1,-4,-5,-74
1523207879837635,11,-22,10,-11,-3,-1,17,49
1523207879837635,-3,5,-41,4,-1,-10,-22,-8
1523207879849665,-1,-24,-36,-44,-8,-4,17,13
1523207879849665,-12,-15,-15,33,3,1,-21,26
1523207879858690,-32,-3,42,8,-7,-11,14,-15
1523207879858690,4,1,-16,-23,1,3,3,-23
1523207879873964,52,7,54,2,0,1,5,57
1523207879873964,6,-1,-74,-10,-1,-3,-27,-20
1523207879875735,-59,-9,32,28,-1,-5,-10,-2
1523207879875735,-13,-15,-10,-3,1,-5,13,19
1523207879903811,-3,0,-55,-23,-5,-4,-1,-39
1523207879903811,37,10,26,-16,-4,1,-8,76
1523207879905814,34,22,-60,-15,1,4,-3,-26
1523207879905814,-10,13,68,74,1,2,-10,-7
1523207879909827,-37,-41,-93,-4,-5,-8,-23,-24
1523207879909827,-4,3,35,-15,-3,3,40,-3
1523207879918849,11,3,-19,-17,-1,0,31,115
1523207879918849,-1,0,-27,-15,-3,-6,18,-51
1523207879933889,5,7,22,-9,0,0,-3,-37
1523207879933889,18,6,42,37,-1,2,-15,23
1523207879934892,16,-23,48,-24,0,6,45,1
1523207879934892,8,47,-82,-51,-6,0,-10,71
1523207879956952,-11,4,100,97,5,3,46,59
1523207879956952,-27,-14,0,-26,1,-6,-4,-68
1523207879962968,4,12,15,21,1,8,-11,-31
1523207879962968,-11,-9,-20,-33,-2,-2,-29,-13
1523207879970022,12,12,-8,4,0,0,20,13
1523207879970022,53,2,15,15,2,5,-3,43
1523207879979010,-57,-13,-39,-15,-7,-8,-1,15
1523207879979010,-6,-6,-51,-24,0,3,-34,-69
1523207879994285,-11,-9,15,27,0,1,-19,19
1523207879994285,30,10,-8,-19,-3,0,18,-21
1523207879995052,12,3,-34,12,7,3,28,-11
1523207879995052,1,0,41,12,-7,-5,-52,-6
1523207880016111,3,8,6,-15,-1,-1,1,4
1523207880016111,-59,-15,-60,10,-1,-6,4,20
1523207880018114,35,12,-18,-10,-1,0,8,-24
1523207880018114,-12,-31,46,5,5,6,18,93
1523207880030151,-11,0,-12,-21,-4,-1,-40,-102
1523207880030151,-13,-5,24,12,-6,1,48,14
1523207880039170,23,12,-8,-4,2,6,-3,3
1523207880039170,10,3,9,31,-1,-2,8,-33
1523207880054208,8,2,-29,-39,-2,4,22,67
1523207880054208,-30,-20,14,-13,4,1,-22,23
1523207880055212,-18,-43,-14,14,-6,-10,-41,-44
1523207880055212,-9,13,14,3,5,8,33,-60
1523207880076503,-3,-3,-6,-16,-7,-5,-10,53
1523207880076503,32,44,43,11,0,-1,19,-25
1523207880078274,22,-1,-45,-9,4,9,17,35
1523207880078274,55,-34,33,3,-9,-11,-3,-7
1523207880090307,-63,-11,-30,7,-3,-6,-13,-6
1523207880090307,24,3,1,3,0,-4,-34,-4
1523207880099329,16,8,36,7,0,-5,2,13
1523207880099329,5,14,-30,-43,-5,0,24,102
1523207880113373,-2,-1,44,-1,-1,4,15,-105
1523207880113373,4,-19,-50,-5,-6,-6,-11,48
1523207880115373,-29,-25,57,38,-4,-5,4,-16
1523207880115373,-15,12,-3,-26,1,-1,16,-36
1523207880136428,14,-8,-59,-24,0,1,-2,28
1523207880136428,-7,-2,-22,9,2,0,9,24
1523207880137431,9,10,68,-9,-6,-3,-12,-19
1523207880137431,-18,-13,-28,12,-1,-2,-13,-8
1523207880149463,40,7,10,-2,5,6,8,51
1523207880149463,-21,-15,16,-2,-4,-5,23,-31
1523207880158486,0,5,21,3,-2,-5,-35,57
1523207880158486,-24,-2,31,79,1,-6,9,-49
1523207880181549,74,22,-55,-2,4,4,9,11
1523207880181549,-44,4,12,-9,0,4,-9,24
1523207880182550,15,8,21,-15,-2,-8,-13,-47
1523207880182550,-24,-1,18,-17,2,4,-36,-19
1523207880196597,9,5,-64,-22,-2,4,32,37
1523207880196597,3,-18,56,39,6,-2,-23,-24
1523207880197590,-4,-4,-35,-11,0,5,11,15
1523207880197590,-9,2,20,-13,1,-1,-6,-36
1523207880209622,-33,-6,44,21,-4,-9,0,-21
1523207880209622,2,8,-46,-8,-4,2,37,20
1523207880218646,2,3,9,5,1,3,7,48
1523207880218646,13,-33,-67,-9,-6,-10,-37,-81
1523207880233686,-34,-13,80,19,2,5,54,66
1523207880233686,7,6,-4,-32,-3,-5,-26,-46
1523207880235692,11,8,13,42,-3,-4,11,11
1523207880235692,16,20,-3,-12,5,7,14,21
1523207880255744,-17,-6,0,-35,0,4,-20,-40
1523207880255744,1,15,-8,-6,-3,0,10,-13
1523207880257750,-6,-19,47,32,4,5,5,12
1523207880257750,20,0,2,15,-3,-3,8,-15
1523207880270020,-56,8,4,-4,1,-1,-2,-9
1523207880270020,4,-3,-1,-28,0,2,5,44
1523207880278805,-6,4,-35,-14,-2,-2,-32,-113
1523207880278805,7,47,-19,4,3,2,12,77
1523207880293848,38,-31,-6,-11,-2,-4,-23,78
1523207880293848,-18,-7,8,-13,-3,0,27,-120
1523207880294852,-39,-10,-28,-1,-5,-7,-7,47
1523207880294852,28,19,17,18,-2,2,6,29
1523207880315905,-11,-22,-56,0,3,-3,-2,-29
1523207880315905,7,17,93,-11,-3,-5,10,30
1523207880317912,34,3,-72,10,-4,-6,-16,-12
1523207880317912,-3,5,26,-12,0,-1,30,9
1523207880338966,-6,16,0,-10,-2,0,-38,-46
1523207880338966,-3,-22,-3,13,-4,-4,-27,49
1523207880339969,-13,0,7,-17,1,3,39,-46
1523207880339969,9,-15,8,22,-2,-8,6,10
1523207880354008,-27,3,-14,9,0,-5,-66,39
1523207880354008,3,-1,-83,-21,-5,-6,5,-52
1523207880355014,-45,8,17,-14,-3,-2,-20,-31
1523207880355014,-12,-19,19,29,3,3,12,58
1523207880376064,45,9,18,-6,-6,-5,-53,-90
1523207880376064,-30,-10,-23,-33,0,2,29,14
1523207880378069,38,7,21,22,-5,-4,-20,48
1523207880378069,-19,-3,-46,24,3,3,0,-21
1523207880399129,-2,12,20,-10,-6,-2,23,-2
1523207880399129,29,24,1,0,5,3,-31,15
1523207880400129,3,-5,-20,-31,-3,0,-18,-42
1523207880400129,-27,-8,-1,-24,-10,-6,-24,77
1523207880413209,-27,-22,74,-4,0,-2,55,-97
1523207880413209,17,10,11,31,1,2,-16,34
1523207880420181,29,4,-46,15,4,4,1,41
1523207880420181,-6,1,-12,-25,-3,-2,-34,47
1523207880436224,6,16,-15,4,-3,-3,26,-16
1523207880436224,-35,-27,22,0,-1,-2,-17,-66
1523207880438232,30,-1,5,-1,-2,0,14,-17
1523207880438232,-71,-11,-18,-18,-2,2,3,6
1523207880459287,9,0,-42,-2,0,0,4,29
1523207880459287,50,10,14,20,-4,-1,15,47
1523207880461290,-21,1,-7,-2,2,-5,-31,16
1523207880461290,8,3,-1,-42,-3,5,21,-114
1523207880473558,5,3,-22,-6,2,-7,-35,-9
1523207880473558,-12,-8,0,43,-5,1,-11,-37
1523207880480343,-66,-8,64,32,5,3,48,12
1523207880480343,16,4,-12,-24,-2,-6,-10,-15
1523207880496394,-1,-6,30,-1,4,5,9,31
1523207880496394,25,-6,-46,5,4,2,-15,42
1523207880497399,32,29,-11,-65,-7,1,-4,30
1523207880497399,10,-11,61,67,5,-2,-6,-65
1523207880518443,-17,3,-20,26,0,0,10,47
1523207880518443,5,-8,-50,-25,1,-3,-14,51
1523207880520447,-14,6,49,16,2,1,4,-42
1523207880520447,25,2,-38,-38,-2,4,13,23
1523207880533518,5,6,-12,-9,-2,6,-18,20
1523207880533518,-21,-11,35,40,1,-4,21,-38
1523207880539499,16,2,-20,18,1,-7,3,14
1523207880539499,-45,1,-17,-34,-2,-1,-29,-12
1523207880556544,-1,-12,-28,-4,-9,-5,12,-40
1523207880556544,-50,2,14,-7,-3,2,-12,20
1523207880557546,-6,-13,-23,-37,-2,2,7,24
1523207880557546,30,13,67,78,3,-2,4,-7
1523207880578608,14,-3,-17,-31,5,9,12,52
1523207880578608,-33,-20,31,19,-8,-8,-40,-8
1523207880580639,5,-9,-12,-29,-3,-11,61,-35
1523207880580639,8,4,20,6,1,2,1,-6
1523207880592642,17,7,-19,-3,-4,-4,0,56
1523207880592642,18,-8,6,-18,2,0,-2,8
1523207880599657,-10,-41,-65,-27,-7,0,-20,-26
1523207880599657,5,-3,20,23,-1,-5,4,45
1523207880616705,-18,7,28,6,-2,0,-2,-39
1523207880616705,54,0,-63,-26,-2,0,14,28
1523207880617706,-80,-4,-12,-15,-3,3,5,-6
1523207880617706,26,4,-3,-7,-1,-2,-10,43
1523207880638763,-6,-28,23,58,1,0,1,-33
1523207880638763,-11,-2,62,-5,5,-1,11,4
1523207880640769,46,9,-23,4,-5,-4,-32,5
1523207880640769,-28,-12,-63,-59,-5,2,-12,-104
1523207880652801,9,10,56,-1,-3,-10,1,9
1523207880652801,15,-4,0,38,4,2,3,-3
1523207880660055,18,10,21,5,5,8,32,70
1523207880660055,-29,-21,5,6,-2,-1,-7,-50
1523207880676874,-15,-22,-58,-29,-3,-3,-24,-3
1523207880676874,4,25,-20,-15,-12,-4,16,-73
1523207880677868,-5,6,19,-16,0,1,-18,54
1523207880677868,-2,7,24,46,1,0,6,8
1523207880698922,4,-8,-12,-8,-1,2,20,12
1523207880698922,-12,15,40,22,3,-3,-30,-22
1523207880699925,70,17,-47,-2,-3,-4,-35,9
1523207880699925,-66,-2,3,-52,-5,4,95,21
1523207880712963,-17,12,14,54,2,-2,-31,-13
1523207880712963,-21,-7,20,-13,1,4,7,12
1523207880720216,9,-11,-11,16,1,-11,-45,-44
1523207880720216,39,15,44,-14,2,5,-4,51
1523207880736023,-11,-8,-76,-37,-10,-10,-41,-53
1523207880736023,10,11,29,43,5,5,48,43
1523207880738031,-71,-12,-14,-13,2,5,-30,-79
1523207880738031,5,-11,10,14,1,0,11,-10
1523207880759083,11,10,13,-16,0,5,25,47
1523207880759083,16,4,-15,-42,-4,-2,-43,-23
1523207880760188,-4,-16,40,64,4,-1,60,-25
1523207880760188,10,2,-20,-8,-1,0,-22,33
1523207880773357,5,8,-2,-33,-7,-3,-2,46
1523207880773357,20,-5,15,-5,2,0,28,19
1523207880780140,-74,-6,15,13,1,0,13,-37
1523207880780140,25,10,-23,-26,-1,2,3,45
1523207880796185,-20,-19,28,40,-1,0,-5,-84
1523207880796185,-4,-10,-32,-17,-3,-2,1,11
1523207880798186,17,-3,36,10,-6,-9,-15,44
1523207880798186,-23,11,-8,3,2,-4,-25,-94
1523207880818239,13,-3,10,-13,3,-1,11,14
1523207880818239,-7,-11,-3,9,-8,3,-25,-13
1523207880820247,18,16,3,5,0,-9,-18,63
1523207880820247,17,-13,-49,-20,-3,1,4,-6
1523207880832276,-7,-2,53,6,-4,-6,-21,9
1523207880832276,-24,4,-45,-21,6,2,-12,-60
1523207880842305,29,5,-3,6,-5,-1,16,17
1523207880842305,35,7,-19,8,-2,-1,-24,14
1523207880856340,-27,5,8,-25,0,1,-2,34
1523207880856340,-14,-22,-41,2,-7,-16,-24,-77
1523207880857343,-32,-2,9,11,1,0,8,32
1523207880857343,-22,-10,-9,1,-1,-8,-8,-57
1523207880878399,32,14,-3,2,-2,3,-3,26
1523207880878399,-27,9,3,-22,-3,-3,11,22
1523207880880408,49,-10,-34,-28,-2,5,-18,-41
1523207880880408,-8,5,98,41,-4,-8,4,39
1523207880892439,2,0,1,-13,3,2,-11,-20
1523207880892439,19,1,-15,-16,0,3,4,67
1523207880901462,19,9,15,14,-4,-7,-7,-43
1523207880901462,-17,-24,10,-16,2,5,15,107
1523207880916501,-8,7,-54,-11,-4,-4,-13,-42
1523207880916501,29,11,7,23,-4,2,7,57
1523207880917503,13,0,16,-3,0,1,5,-42
1523207880917503,-58,-10,-25,-2,5,1,-1,-39
1523207880938559,24,7,-32,-2,1,0,-1,-9
1523207880938559,1,-4,-11,-20,-4,-1,4,-40
1523207880940564,8,0,-21,34,-1,4,-8,16
1523207880940564,37,12,18,-5,-4,-4,9,17
1523207880952596,5,-2,0,-4,1,-4,16,10
1523207880952596,-8,5,46,38,3,-5,-23,-28
1523207880961628,-10,-4,4,-30,1,6,49,33
1523207880961628,10,-11,-37,-5,2,1,-20,6
1523207880976829,-6,14,19,0,-7,0,33,-30
1523207880976829,21,3,-14,-9,2,2,25,96
1523207880977663,-11,5,27,8,4,-8,-47,-87
1523207880977663,30,-6,9,-14,-1,-1,2,-17
1523207880998718,-28,-19,-47,-15,0,1,10,59
1523207880998718,7,7,73,45,1,3,-2,-59
1523207881000724,-25,-16,-45,-1,-1,-6,-6,25
1523207881000724,-9,6,-2,0,0,0,19,11
1523207881012786,18,27,84,-13,0,2,-27,-7
1523207881012786,5,-32,-90,-38,-3,-6,1,-27
1523207881021780,-23,-11,59,34,-2,2,-44,60
1523207881021780,28,21,-32,-5,-1,-4,31,-55
1523207881035818,1,-11,12,8,0,-4,14,97
1523207881035818,-52,-23,1,-10,0,-5,-14,-87
1523207881037823,27,11,-21,-37,-6,2,-9,-10
1523207881037823,43,9,9,10,1,2,-14,77
1523207881058915,-11,1,-6,40,-2,-3,-9,-87
1523207881058915,2,-12,37,-1,-4,-3,0,34
1523207881059882,34,13,-9,-3,1,4,52,62
1523207881059882,4,5,5,-41,-2,-1,-11,44
1523207881072979,25,-7,23,39,-2,-4,3,-77
1523207881072979,-76,13,-10,4,-3,-9,-28,43
1523207881080938,7,5,26,-5,4,8,-6,-40
1523207881080938,15,4,-24,-19,-5,-3,27,66
1523207881095987,4,-32,28,37,-3,-6,-7,-13
1523207881095987,-33,8,58,-16,0,4,-6,4
1523207881097983,-3,-25,0,12,-1,-1,27,24
1523207881097983,-46,13,-24,-9,-3,-1,-38,-29
1523207881126058,-11,-15,-31,-48,1,6,31,20
1523207881126058,48,-2,-2,-6,-4,-2,-7,-13
1523207881128069,-49,-45,37,43,-1,-4,20,-2
1523207881128069,32,0,-16,1,3,-3,-37,24
1523207881132074,5,-4,18,2,-4,-14,-29,-69
1523207881132074,-50,-12,-53,-31,-2,2,15,-4
1523207881141098,1,17,16,-19,0,-3,-29,-52
1523207881141098,-17,-30,5,36,2,3,0,-49
1523207881156137,37,27,-13,-15,-4,1,14,85
1523207881156137,19,-18,-22,-23,-3,-2,8,33
1523207881158143,21,27,-30,10,-1,-2,-16,18
1523207881158143,-43,-3,28,25,-3,-8,-11,-38
1523207881179204,-6,20,-21,-2,9,7,22,1
1523207881179204,3,-8,-7,-11,-1,2,2,54
1523207881180210,-17,1,-25,-42,-12,-6,10,-80
1523207881180210,5,-10,-15,16,4,5,32,32
1523207881192232,-9,-14,43,47,3,2,-9,8
1523207881192232,22,-8,-7,-2,0,0,12,-44
1523207881201258,-61,-10,-54,-26,1,0,-38,-40
1523207881201258,22,-19,-17,-32,-10,-3,9,-47
1523207881215295,-14,8,-8,16,6,2,-3,64
1523207881215295,36,26,13,35,1,3,5,-22
1523207881222312,22,19,16,-34,-1,2,30,12
1523207881222312,27,-6,-17,-32,4,7,5,-61
1523207881238355,-25,-6,14,34,0,4,9,-13
1523207881238355,-19,-7,8,3,1,-2,-38,111
1523207881240361,72,18,24,13,-1,-12,5,-83
1523207881240361,-55,-38,7,-6,-5,-7,-11,61
1523207881261420,-61,-37,-12,-38,-4,0,8,-14
1523207881261420,45,33,40,14,2,2,1,99
1523207881263429,22,0,-54,7,-3,1,-2,-62
1523207881263429,-7,22,36,3,0,-1,0,6
1523207881276695,15,-7,-28,-23,-5,-4,-39,-74
1523207881276695,32,16,-1,32,-1,-10,1,20
1523207881277462,-19,16,13,-22,4,7,-21,-13
1523207881277462,-52,-59,-47,12,-8,-13,3,25
1523207881298515,-8,1,-17,-47,-6,-3,23,-15
1523207881298515,11,32,-21,-17,-5,-2,-1,43
1523207881300521,44,12,54,73,8,4,5,-1
1523207881300521,-19,0,-67,-27,-4,-1,-7,22
1523207881321812,2,-20,7,-4,-5,-7,-20,-30
1523207881321812,36,2,-1,-27,2,7,-11,-74
1523207881322579,-106,-3,83,22,-2,3,40,127
1523207881322579,13,-14,-26,7,0,3,-40,-94
1523207881336617,10,33,-3,-10,2,-2,49,100
1523207881336617,-15,-14,4,10,-5,-5,-5,-71
1523207881337620,-17,-17,-36,-33,-3,-1,-20,22
1523207881337620,17,32,88,29,5,7,11,-57
1523207881358913,5,-10,-3,26,-2,-7,-23,78
1523207881358913,16,-2,-25,0,-1,0,10,-69
1523207881360682,-25,-22,-11,2,-2,-6,25,74
1523207881360682,30,35,1,-32,4,4,2,9
1523207881380740,17,-16,-32,11,-2,-4,16,8
1523207881380740,-29,13,-12,15,0,1,6,-49
1523207881382740,44,-14,21,-35,-1,5,7,-4
1523207881382740,-83,1,-3,13,-7,-3,10,108
1523207881395807,11,23,38,-30,-3,3,-19,-92
1523207881395807,-24,-44,-5,46,3,-3,-12,-13
1523207881402819,29,19,-17,-21,0,-6,-14,-27
1523207881402819,33,-7,-13,-10,-2,1,-5,30
1523207881418835,10,15,36,17,3,2,-13,33
1523207881418835,-53,-13,16,0,2,3,8,-46
1523207881420972,8,-13,-34,11,-5,-4,-21,72
1523207881420972,18,10,35,-1,0,-3,9,-13
1523207881440894,-11,-6,-48,-28,1,2,-25,-86
1523207881440894,30,13,-4,-9,-2,-3,-1,106
1523207881442898,-20,-6,-23,-19,1,1,-25,-99
1523207881442898,58,5,48,32,-1,-1,19,17
1523207881455935,-20,1,12,32,-1,-7,-20,38
1523207881455935,-24,-15,21,-5,3,3,10,-104
1523207881461957,15,-10,-18,-1,-6,-4,16,58
1523207881461957,16,2,2,-27,-2,2,-15,-8
1523207881479003,22,29,-3,-8,1,7,-5,15
1523207881479003,-4,11,-24,10,-6,-9,2,23
1523207881479998,5,-12,-19,-18,-3,-4,-2,4
1523207881479998,8,21,27,31,3,2,-3,-30
1523207881501055,6,-21,-27,-6,-3,0,-8,37
1523207881501055,-9,-9,27,-37,-7,-8,11,43
1523207881503059,-3,10,-14,35,-4,-9,-13,-112
1523207881503059,-15,-3,-10,-1,-3,-3,-9,46
1523207881515091,16,1,8,9,1,0,8,25
1523207881515091,1,0,4,-53,-1,4,7,94
1523207881522344,-29,-13,-42,49,-1,-9,18,-8
1523207881522344,-78,-23,18,26,-3,-9,-8,-120
1523207881539155,5,-5,-25,-17,-3,-3,-17,16
1523207881539155,30,13,-7,-11,1,3,-1,-26
1523207881540157,14,8,62,3,0,6,-2,63
1523207881540157,-1,-25,-48,-8,-1,-8,-3,-1
1523207881561216,54,-8,3,-13,-3,0,10,-39
1523207881561216,-13,37,-8,-1,-6,-4,-14,-16
1523207881563224,7,16,26,-3,1,3,23,46
1523207881563224,-15,-30,8,32,2,-4,-14,-73
1523207881576252,9,5,-12,-44,-6,-4,-3,59
1523207881576252,4,-3,7,40,4,0,-2,78
1523207881582269,20,25,-31,-30,4,8,33,-79
1523207881582269,16,8,-28,-14,-1,7,-3,25
1523207881598318,-9,-28,-48,-24,-4,-2,3,86
1523207881598318,-63,-8,6,24,-5,-7,2,-83
1523207881600317,8,10,-1,21,5,-2,15,127
1523207881600317,30,21,-10,-20,-5,-1,9,19
1523207881621611,-42,22,29,5,4,5,11,23
1523207881621611,14,-35,-20,-25,-5,-7,-38,-78
1523207881622616,13,-8,44,53,0,5,-31,11
1523207881622616,-20,28,30,-24,0,-4,32,1
1523207881635449,-73,-22,-42,15,-4,-1,-3,56
1523207881635449,30,1,4,14,-1,-11,1,-59
1523207881642428,-28,-11,4,-20,3,9,18,46
1523207881642428,29,-27,18,4,0,-2,-18,-33
1523207881658708,-7,-9,26,6,2,3,3,-1
1523207881658708,-15,2,-20,-10,2,7,17,12
1523207881660479,25,-25,-25,-9,-2,-2,4,2
1523207881660479,7,10,-23,-4,-4,-2,11,35
1523207881681532,-26,-1,-1,3,3,4,1,-57
1523207881681532,20,-5,46,-9,3,5,-11,16
1523207881682537,-18,-7,-54,-10,-2,-4,-47,-79
1523207881682537,-2,18,21,26,5,6,11,19
1523207881695577,33,10,41,-15,-1,-3,-1,-56
1523207881695577,-59,-36,-44,12,-10,-9,-17,-30
1523207881702589,-14,8,-1,-24,-4,-6,-2,48
1523207881702589,-7,-3,-6,21,0,-1,21,-6
1523207881718871,38,6,-34,1,4,4,6,-32
1523207881718871,31,25,-5,-22,3,9,4,40
1523207881720637,-1,-31,16,-12,-1,-2,37,-20
1523207881720637,-69,4,-23,-6,-5,-6,7,0
1523207881741692,-9,-16,91,40,1,-8,1,-5
1523207881741692,6,39,-7,-7,-2,-1,-4,-23
1523207881742732,15,11,-19,-18,0,-4,-17,68
1523207881742732,13,-1,36,4,1,3,-10,-12
1523207881754729,-57,-43,9,32,-8,-9,-3,-96
1523207881754729,20,-2,-6,18,4,1,12,50
1523207881763753,-11,15,-12,-56,-6,2,-6,-14
1523207881763753,52,0,27,12,2,1,2,127
1523207881778818,-41,4,11,-1,-5,-9,-21,-91
1523207881778818,-13,-22,12,39,1,-6,-41,20
1523207881779794,19,23,-51,-6,2,7,25,33
1523207881779794,24,-1,-12,-30,-4,0,9,16
1523207881800850,18,-8,-29,-34,-6,3,-34,33
1523207881800850,42,15,85,53,1,-7,15,-48
1523207881802856,-27,-14,-27,-13,-2,-1,-9,-32
1523207881802856,7,13,-26,1,0,6,10,25
1523207881814888,11,0,-99,-49,-5,-7,-67,16
1523207881814888,-49,-3,55,63,2,-2,21,-34
1523207881823910,0,-4,43,3,-1,-7,-21,37
1523207881823910,20,8,-23,0,1,1,5,-25
1523207881837956,37,21,-4,-20,4,6,30,22
1523207881837956,-7,-39,-21,-59,-5,2,2,29
1523207881845974,-31,-2,-7,36,-1,-8,-20,-51
1523207881845974,-4,-6,-14,7,-4,0,6,-4
1523207881861009,24,19,-16,2,1,2,27,5
1523207881861009,14,6,-4,-12,-1,-2,-7,-14
1523207881863018,-39,-16,15,5,-4,-5,3,2
1523207881863018,-9,1,7,-35,1,-3,-34,-97
1523207881875283,7,16,48,54,-1,0,24,10
1523207881875283,45,5,-27,-40,-4,3,27,3
1523207881884072,-45,-1,26,32,2,-10,2,22
1523207881884072,17,13,-22,-37,-2,1,7,29
1523207881899112,-4,-11,40,38,3,1,9,12
1523207881899112,-25,-16,-18,-17,-3,2,-13,79
1523207881900116,26,8,-8,-12,-5,-3,-13,-85
1523207881900116,-47,-41,17,-10,-2,-7,-23,-56
1523207881921405,41,24,33,23,7,11,14,-2
1523207881921405,17,5,-30,8,5,7,14,125
1523207881923176,9,-6,21,-32,-7,-1,-22,-37
1523207881923176,3,4,-6,23,-6,-11,-31,-21
1523207881935243,-13,-15,44,-4,-1,3,25,46
1523207881935243,4,47,-32,-15,-3,-4,-5,-34
1523207881944239,-11,-26,12,-9,2,4,-23,-18
1523207881944239,-7,-14,-18,5,0,-6,-45,36
1523207881959330,11,6,5,3,-4,1,41,-11
1523207881959330,-4,-8,10,2,-3,-6,25,67
1523207881960279,52,18,67,14,0,-2,-1,-80
1523207881960279,-87,-27,-45,-13,-1,3,2,54
1523207881981330,17,9,-29,-20,2,-10,-10,-8
1523207881981330,17,-4,14,20,1,1,-35,-33
1523207881983337,60,20,-2,-52,-2,7,46,118
1523207881983337,-23,5,68,52,-3,-9,-3,-104
1523207881995369,-19,-5,-9,4,-4,-7,-14,26
1523207881995369,-55,-29,21,13,2,0,-25,-102
1523207882003391,24,29,-23,-17,-2,4,25,46
1523207882003391,37,9,-2,-39,0,5,18,124
1523207882018430,-41,-16,-21,-16,-9,-9,-72,-108
1523207882018430,24,-8,38,49,6,0,53,20
1523207882020434,-10,17,-13,9,-2,2,8,29
1523207882020434,7,-6,-17,-15,-3,-4,-4,-26
1523207882041490,4,1,-4,-39,0,2,6,21
1523207882041490,15,2,-45,-6,-3,1,-34,-5
1523207882042492,-18,-23,-6,32,4,-7,-2,-44
1523207882042492,19,7,-6,0,-1,7,14,17
1523207882054524,16,2,79,13,4,4,-17,24
1523207882054524,-16,-7,-11,-25,-4,-4,8,3
1523207882063549,-9,-12,-12,5,-2,-2,11,-50
1523207882063549,22,10,58,5,0,-2,-33,-3
1523207882078593,-4,2,-37,16,0,0,24,125
1523207882078593,14,-7,-45,-28,-6,2,53,-101
1523207882080593,-24,-8,13,7,-3,-9,-59,47
1523207882080593,6,-10,26,0,3,-11,19,26
1523207882101651,55,19,-54,2,-7,-3,-14,19
1523207882101651,-36,22,-35,-32,-3,1,12,88
1523207882102653,9,0,-8,14,1,3,11,-5
1523207882102653,-4,-7,-42,28,1,4,-28,-15
1523207882123947,-6,-8,-42,-40,-2,-1,3,-29
1523207882123947,-2,3,27,-29,1,-2,-2,-28
1523207882125713,-12,-14,45,40,-1,0,-9,28
1523207882125713,9,28,16,-5,0,0,7,-42
1523207882138748,-35,-16,-42,8,-5,-5,-11,-36
1523207882138748,24,4,29,3,3,3,-24,-14
1523207882140754,-22,-18,-11,-14,-5,-4,22,31
1523207882140754,4,-3,-64,1,2,3,6,19
1523207882160809,1,0,26,-1,1,-6,30,16
1523207882160809,-16,-3,-39,-17,-4,-10,-18,-8
1523207882162813,54,5,7,10,1,6,-21,3
1523207882162813,-21,1,-9,-21,-4,4,28,96
1523207882183869,-38,-5,4,14,-1,-4,-28,-128
1523207882183869,10,-8,-2,23,5,5,-8,62
1523207882184873,7,16,43,-6,1,1,-11,-83
1523207882184873,9,11,-6,1,-1,1,16,41
1523207882198909,1,6,-26,-6,3,5,11,33
1523207882198909,3,-4,30,10,-1,-2,8,-34
1523207882200913,-54,-24,-28,-7,-4,-4,-15,21
1523207882200913,-1,0,26,26,1,6,-4,-64
1523207882221024,8,6,7,0,0,2,11,53
1523207882221024,-39,11,3,-2,1,7,4,-92
1523207882222971,-39,-20,-41,-23,1,-2,18,18
1523207882222971,-1,-11,-1,3,-9,-12,-13,23
1523207882244034,-18,-15,9,-3,-2,1,-1,-50
1523207882244034,45,27,-3,18,-4,2,-10,29
1523207882245033,2,10,74,-8,4,-1,-2,-56
1523207882245033,-50,-36,-84,-27,-8,-13,-26,-57
1523207882259307,25,6,56,19,-6,-8,-5,-5
1523207882259307,9,8,12,-8,5,6,-3,58
1523207882260071,20,5,-71,-11,-2,7,26,19
1523207882260071,39,5,14,-5,1,1,6,62
1523207882281126,-36,-9,-8,-1,-4,-4,11,-31
1523207882281126,0,-19,-3,-2,-4,-8,-23,13
1523207882283133,-45,-9,6,3,0,-4,-25,20
1523207882283133,2,-1,2,6,0,0,-10,-115
1523207882303185,37,16,-54,-21,-1,9,31,95
1523207882303185,-37,-19,12,8,-7,1,18,18
1523207882305190,18,10,22,-4,1,-9,5,28
1523207882305190,-47,-12,-9,12,-4,-7,-36,-87
1523207882318225,-17,-13,15,12,3,2,10,-8
1523207882318225,16,19,-32,-16,-2,0,12,-8
1523207882325482,31,7,-3,-15,1,6,-19,127
1523207882325482,-27,-34,-53,-25,-6,-12,29,-73
1523207882341288,-8,-2,4,7,-6,-14,-27,-88
1523207882341288,-1,-1,16,8,0,-5,-13,-17
1523207882343292,33,-14,-2,13,-1,0,7,102
1523207882343292,15,22,50,9,5,9,29,50
1523207882363346,-31,-17,4,-39,0,2,-2,6
1523207882363346,0,-20,-55,9,-9,-10,-23,-34
1523207882365351,-4,0,13,9,-2,1,35,-28
1523207882365351,51,26,56,16,0,-1,-5,52
1523207882378393,-17,-13,3,-1,2,6,-24,31
1523207882378393,-61,-38,-22,-36,-4,-9,4,-21
1523207882384402,60,12,-29,3,-2,-2,-2,-40
1523207882384402,-37,11,-9,18,3,8,12,76
1523207882401447,-3,26,-4,-26,1,0,-6,-8
1523207882401447,-13,-25,32,11,1,3,-30,13
1523207882403452,-21,1,-15,23,-4,-14,15,-2
1523207882403452,36,5,5,-19,4,3,-28,0
1523207882423743,25,-3,13,11,3,6,44,74
1523207882423743,10,-7,23,-8,2,6,3,13
1523207882425509,-30,8,-42,-22,-2,5,-12,-64
1523207882425509,30,12,40,17,-2,-1,-24,9
1523207882438545,-43,-47,-29,8,-2,-4,2,-69
1523207882438545,17,29,19,0,3,-1,-4,0
1523207882444562,9,-13,4,-9,-2,1,15,-6
1523207882444562,-4,-5,4,-4,-3,0,7,-2
1523207882461617,14,-3,-13,10,-2,0,-7,5
1523207882461617,23,19,25,-2,0,-10,15,42
1523207882462609,-40,1,6,-3,-4,-4,-13,-20
1523207882462609,2,-4,-10,-24,0,6,16,-1
1523207882483665,6,2,-70,-7,-4,0,10,89
1523207882483665,-56,-26,80,39,-6,-9,-6,-96
1523207882485672,14,24,-8,-12,2,3,18,-49
1523207882485672,7,-7,-4,-3,0,-5,6,8
1523207882497702,22,7,5,37,-1,0,-12,71
1523207882497702,17,9,-54,-59,-5,-3,-6,21
1523207882504722,-2,-2,21,25,-1,-6,-29,-40
1523207882504722,-10,1,-21,-17,-3,-1,11,-18
1523207882521833,15,-8,32,31,5,5,4,-17
1523207882521833,11,16,-42,-5,5,6,15,26
1523207882522769,-17,-4,62,17,0,-2,-26,3
1523207882522769,-40,-10,-9,-16,-4,-8,1,14
1523207882543829,59,27,-12,-20,2,7,6,49
1523207882543829,-86,-47,33,6,-2,-1,36,-28
1523207882549842,2,-6,-14,14,-2,-9,-31,-97
1523207882549842,29,0,29,32,2,0,5,67
1523207882557862,-1,13,9,-22,-9,-8,-38,19
1523207882557862,19,27,-16,-17,1,-2,-17,-59
1523207882564882,3,5,-9,-18,-1,7,50,72
1523207882564882,-10,-13,75,13,-1,1,-22,-58
1523207882580924,-12,-14,6,2,-1,-7,-15,-29
1523207882580924,13,-4,10,7,4,4,-19,27
1523207882582931,7,-12,-15,-35,-7,-1,1,58
1523207882582931,10,6,14,21,-2,-3,9,21
1523207882603987,-21,14,4,-8,1,-1,-11,17
1523207882603987,7,3,13,4,-4,-3,-9,-12
1523207882604986,57,2,-7,12,0,1,-19,55
1523207882604986,-39,1,-12,-5,2,3,36,-28
1523207882618261,55,-7,-18,-14,-2,-3,20,-26
1523207882618261,-40,5,2,-2,0,5,-29,-27
1523207882625276,8,-4,-35,1,0,-5,-7,2
1523207882625276,11,0,-28,2,2,-3,-31,22
1523207882641083,-20,1,47,32,-2,-3,18,-59
1523207882641083,30,-9,-80,-16,-6,3,3,40
1523207882643091,-10,-5,-28,-33,-3,1,23,62
1523207882643091,-23,2,35,19,1,0,-15,-103
1523207882664144,-33,-1,80,29,4,-2,4,-62
1523207882664144,24,-2,-40,2,0,-4,-25,44
1523207882665147,-3,8,27,-20,0,8,20,4
1523207882665147,24,-1,-69,-10,-7,-2,-18,82
1523207882677187,-38,-19,19,6,2,-4,50,-29
1523207882677187,21,23,-9,-22,-7,-8,-4,-4
1523207882686203,-49,-24,1,14,2,-1,-39,-11
1523207882686203,36,13,-10,-26,-4,14,29,36
1523207882701244,-22,-19,-4,9,-3,-7,-36,-30
1523207882701244,2,14,-6,1,1,2,23,8
1523207882703279,14,6,19,16,-3,-6,-14,28
1523207882703279,22,1,24,3,3,4,17,63
1523207882724343,-51,-8,-50,-54,-8,-6,-31,-7
1523207882724343,3,-11,33,58,4,-2,8,-66
1523207882725306,1,0,-60,10,0,0,-18,-3
1523207882725306,44,1,10,10,-3,-5,10,-7
1523207882737339,20,12,10,-25,0,3,5,91
1523207882737339,-9,-6,-16,-16,-4,2,32,46
1523207882746363,-19,0,26,-1,-4,-4,-14,-87
1523207882746363,-1,16,-63,-7,0,0,8,-15
1523207882761415,-3,4,-16,-5,-5,-3,-17,24
1523207882761415,31,-18,24,10,2,4,8,-39
1523207882762406,50,19,6,5,2,-2,41,98
1523207882762406,-10,-2,-12,-23,-6,-1,2,75
1523207882783462,-55,-24,14,-12,-5,-12,-71,-114
1523207882783462,17,-4,-36,-18,1,-2,-13,110
1523207882785466,22,0,28,19,-2,2,19,85
1523207882785466,-8,4,74,14,3,0,-22,-45
1523207882797498,44,-17,-10,29,-1,-4,37,54
1523207882797498,-21,2,-18,-11,-1,4,10,20
1523207882806522,20,11,1,-7,2,4,-10,-37
1523207882806522,-20,-13,-18,-18,-3,-2,20,-37
1523207882821797,6,17,-5,-4,-1,-1,-9,32
1523207882821797,2,-11,32,16,-3,-10,-23,-66
1523207882823567,2,27,-8,-2,1,11,7,14
1523207882823567,54,-1,20,6,0,-16,5,24
1523207882843621,-34,0,-14,-12,-1,3,-8,-13
1523207882843621,-20,-25,-18,-35,-6,-4,5,27
1523207882845627,-28,-24,17,40,0,-2,-16,-63
1523207882845627,0,-10,37,8,1,5,-21,9
1523207882857658,33,15,-28,-1,-1,2,28,8
1523207882857658,9,27,14,-11,-3,-1,-18,31
1523207882866685,5,-24,24,-30,-6,-6,-1,-70
1523207882866685,-61,-13,22,12,3,4,0,-25
1523207882880720,27,0,-26,-10,1,3,4,21
1523207882880720,-5,23,-29,-2,-1,7,12,72
1523207882882725,-12,-9,51,34,3,-7,-35,-66
1523207882882725,-25,-22,-34,-18,-3,-7,-26,-108
1523207882903817,12,19,17,7,4,0,-3,35
1523207882903817,17,-6,8,2,2,1,9,61
1523207882905787,47,4,-4,-16,0,3,-3,7
1523207882905787,-39,8,-15,15,-3,-10,-51,-16
1523207882918000,6,2,-4,1,4,7,18,-31
1523207882918000,20,5,37,20,2,3,62,-36
1523207882926845,5,0,-29,-24,-3,-9,-42,43
1523207882926845,-80,-4,-31,-8,-2,1,41,-51
1523207882940880,13,-17,9,43,4,2,-5,37
1523207882940880,17,4,89,2,-4,-2,-42,-11
1523207882942887,-46,-5,-7,-7,-4,-16,-5,-111
1523207882942887,26,4,-10,-24,-4,2,4,24
1523207882963941,13,19,27,-10,-8,-4,-27,50
1523207882963941,-12,3,-1,-1,3,0,44,-28
1523207882964955,-35,-14,1,20,-1,0,8,47
1523207882964955,39,-8,-8,17,4,-4,-15,46
1523207882976999,-3,3,1,-10,-5,-3,64,-22
1523207882976999,6,6,-27,-10,-3,-1,-37,-29
1523207882985999,-51,19,-17,-44,-6,-3,7,-72
1523207882985999,-9,-21,12,58,0,-5,-29,-12
1523207883001039,2,5,-7,6,8,4,-8,13
1523207883001039,8,14,-19,-35,-4,0,12,32
1523207883003045,-1,-5,-7,0,-5,2,24,50
1523207883003045,-5,0,27,6,-4,6,-15,-45
1523207883024302,-16,-31,-57,-14,-7,-12,-8,6
1523207883024302,-1,-9,18,0,0,-4,-9,-16
1523207883025103,13,3,16,-26,1,5,-3,3
1523207883025103,57,24,-48,8,5,5,-20,54
1523207883037135,-3,0,26,16,-1,1,-18,31
1523207883037135,-51,-27,-44,-11,-9,-4,-13,-108
1523207883046160,14,10,-22,-18,-1,0,24,54
1523207883046160,-10,5,42,4,-1,-3,3,0
1523207883062201,-2,-30,-45,-12,-1,-3,-29,35
1523207883062201,-56,7,64,38,-5,-17,-11,11
1523207883063205,36,-19,3,7,4,1,-40,7
1523207883063205,31,27,-5,-19,3,7,23,-16
1523207883083259,12,9,-15,-45,0,7,21,37
1523207883083259,22,-7,46,63,0,-5,-50,-70
1523207883085267,5,-11,-60,10,-2,-6,38,4
1523207883085267,-15,-3,-2,-25,-3,-4,1,-50
1523207883097294,3,6,72,2,3,10,9,30
1523207883097294,-9,-36,0,-40,0,7,-12,42
1523207883106319,-53,-17,89,85,-1,-5,-26,-15
1523207883106319,12,-1,-97,-19,-1,-3,31,-37
1523207883121597,12,11,37,-3,-3,2,-34,-96
1523207883121597,30,18,-16,-7,5,-1,25,-33
1523207883123451,-95,4,-10,-25,-5,7,-28,38
1523207883123451,-5,4,23,-20,-5,-2,23,40
1523207883143420,15,20,57,20,4,1,1,-43
1523207883143420,15,-40,-78,3,-3,-1,3,80
1523207883145424,-5,-16,-10,27,-1,-6,-51,-68
1523207883145424,12,8,-14,-9,3,1,65,93
1523207883166479,-19,19,1,-21,-3,0,-8,61
1523207883166479,-24,11,-2,-18,4,1,-22,-77
1523207883168495,-1,-8,-13,-7,-1,-11,42,89
1523207883168495,29,5,63,19,-3,-8,-61,-75
1523207883181523,-67,-20,3,12,0,6,17,53
1523207883181523,32,36,-5,-6,-5,-6,44,48
1523207883182521,60,46,-46,-61,4,6,4,-47
1523207883182521,-62,-24,59,76,-1,-5,-11,56
1523207883203578,-16,-30,-70,-11,-9,-15,-12,-92
1523207883203578,2,-15,-42,1,3,9,24,3
1523207883205583,-2,14,4,-19,-1,-2,3,28
1523207883205583,21,9,-24,-32,1,4,-7,-49
1523207883225684,3,7,3,21,0,-10,7,-19
1523207883225684,-27,5,-16,-18,-5,5,34,61
1523207883233658,127,-6,15,6,3,5,15,73
1523207883233658,-54,-28,-95,-17,-6,-8,-64,-95
1523207883240677,33,-3,1,15,-7,-8,11,6
1523207883240677,13,20,59,22,4,-6,-30,34
1523207883242681,54,7,-44,-13,-3,10,46,61
1523207883242681,-1,-3,27,-23,-5,6,67,65
1523207883263737,3,11,-15,-11,1,6,-22,-69
1523207883263737,38,16,44,12,-3,-15,-17,94
1523207883265744,-84,-46,-75,-11,-4,2,-12,-90
1523207883265744,-35,-38,-6,1,-7,-20,-81,2
1523207883285796,-2,6,72,19,1,-1,16,-70
1523207883285796,93,31,-39,-2,1,14,12,46
1523207883287801,-68,-15,-26,-11,-1,-5,16,19
1523207883287801,-15,1,32,12,3,2,-29,8
1523207883300835,24,14,-57,-6,1,1,-10,66
1523207883300835,-9,11,20,1,-1,5,24,-28
1523207883306852,51,2,-39,-22,-3,0,10,92
1523207883306852,2,-16,-31,-14,0,4,-7,-64
1523207883324135,-2,-5,72,75,-5,-6,-7,52
1523207883324135,-34,-7,22,-10,4,-5,-15,19
1523207883324900,-30,-9,32,-4,0,-2,47,-35
1523207883324900,-31,-2,-30,-13,0,0,-47,-25
1523207883345956,34,9,-42,-24,-3,3,45,93
1523207883345956,8,-1,48,-15,-3,-4,-46,-89
1523207883347961,-90,-11,65,36,0,-2,33,-8
1523207883347961,44,8,4,-12,3,3,13,54
1523207883361006,-14,2,-13,6,3,4,-7,-82
1523207883361006,3,-13,-5,5,1,-8,4,-30
1523207883367014,-12,-6,19,2,6,3,-36,21
1523207883367014,-15,-7,-26,2,-4,3,35,-49
1523207883384057,-42,-10,-43,-17,2,-12,-42,47
1523207883384057,-23,-2,9,-24,-4,3,43,-34
1523207883385061,47,22,7,-16,-1,1,-33,9
1523207883385061,-30,16,31,72,-4,-9,7,-37
1523207883406116,-13,2,23,-20,2,2,-34,37
1523207883406116,8,-48,-44,0,5,7,13,-27
1523207883408121,-64,-14,-7,-11,-4,-1,-25,32
1523207883408121,53,21,8,-41,-4,-2,30,15
1523207883421191,-5,-21,-17,-1,-5,-3,-9,-78
1523207883421191,11,15,-49,24,-2,-8,-9,33
1523207883427178,35,15,47,13,3,2,11,-37
1523207883427178,19,-2,-45,-25,-8,6,31,73
1523207883444219,2,14,-4,-36,1,0,-15,-13
1523207883444219,-56,-7,-5,24,-7,-7,-2,-2
1523207883445221,13,-31,15,41,-3,-9,-33,-18
1523207883445221,-17,11,27,-6,5,-3,-7,-21
1523207883466276,31,22,16,-38,0,7,23,19
1523207883466276,6,-21,-17,13,-6,-6,16,102
1523207883468283,-23,1,-25,7,-10,-16,-41,-128
1523207883468283,51,-13,14,14,-8,-14,-52,13
1523207883480312,7,5,-2,-1,-2,-1,36,8
1523207883480312,-34,15,-13,-37,1,6,-7,26
1523207883487332,-19,-28,36,21,2,-3,-16,50
1523207883487332,19,-12,-21,-25,0,-2,26,20
1523207883503374,26,8,-8,0,-2,5,-6,-24
1523207883503374,10,0,7,5,-4,5,11,-49
1523207883505380,4,-3,-46,-13,-5,0,36,99
1523207883505380,-24,9,-28,-3,1,-7,-41,-103
1523207883526445,3,4,10,4,10,1,30,55
1523207883526445,-9,-17,-5,-2,0,1,-26,60
1523207883527444,46,23,64,35,0,-10,16,-105
1523207883527444,-19,-12,23,12,3,3,12,119
1523207883540473,-72,-16,-29,-2,-9,-13,-39,-118
1523207883540473,39,17,-21,-27,-1,4,8,16
1523207883547493,45,25,7,-16,7,16,-3,26
1523207883547493,-29,-8,4,-11,-4,-4,-20,21
1523207883563535,-6,-20,10,50,-3,-10,-12,-96
1523207883563535,-19,8,11,2,5,7,2,-21
1523207883565539,10,33,7,-4,0,-1,7,9
1523207883565539,1,-7,3,-14,3,8,5,-2
1523207883586595,-3,-8,-18,-14,-2,2,15,62
1523207883586595,0,-8,16,-14,-3,-6,17,-6
1523207883587599,19,5,-14,29,-4,-4,3,-59
1523207883587599,-9,9,6,-15,1,7,14,67
1523207883600633,33,4,15,-1,-2,-15,-9,12
1523207883600633,-63,-13,-50,-5,-3,-3,-20,-20
1523207883608702,45,-3,-1,19,4,3,2,40
1523207883608702,23,-4,41,-24,-2,2,16,-10
1523207883623932,12,-5,-20,10,-2,1,7,70
1523207883623932,6,11,10,3,-1,-2,-14,-44
1523207883625700,-12,1,-8,-20,2,1,-26,-59
1523207883625700,9,3,14,17,1,1,41,114
1523207883645753,-46,-18,3,-25,-8,-10,-38,-115
1523207883645753,60,6,-6,-14,2,4,11,67
1523207883647759,-30,-7,22,33,-2,-2,-10,-24
1523207883647759,16,23,-1,8,1,7,18,5
1523207883659792,29,-29,4,-10,-3,4,14,69
1523207883659792,-53,-16,2,-1,-1,-4,-41,-68
1523207883668813,-3,-23,-7,-21,-8,-4,-7,37
1523207883668813,-17,-2,-1,22,0,-13,5,32
1523207883683889,16,16,-15,10,1,0,37,-57
1523207883683889,-6,-5,-7,11,2,5,-21,17
1523207883684856,29,6,-46,-42,-3,3,7,46
1523207883684856,-27,-23,14,-6,-2,-4,17,-26
1523207883705912,11,-12,-24,20,-4,-3,-10,-20
1523207883705912,18,21,15,47,-1,-10,-1,16
1523207883707917,3,21,-27,-14,5,4,-8,-8
1523207883707917,25,13,-18,-10,-5,5,27,-24
1523207883720188,-35,-11,18,-23,2,1,11,93
1523207883720188,-10,1,1,-16,-3,-2,-28,-128
1523207883728974,13,-11,-68,-11,-3,-2,4,113
1523207883728974,-78,-10,13,6,-8,-6,-4,-120
1523207883744019,16,23,27,9,5,1,16,21
1523207883744019,21,-2,5,3,-7,-8,0,71
1523207883745017,-16,30,47,-3,2,6,56,-39
1523207883745017,30,-12,-82,-24,-1,3,-24,104
1523207883766109,-26,-6,-22,-3,0,2,5,-33
1523207883766109,-18,-3,56,21,-3,-6,16,-8
1523207883768078,42,25,33,32,3,0,2,12
1523207883768078,42,31,-16,-26,-2,-3,-3,49
1523207883789323,-106,-79,16,20,0,2,-16,-58
1523207883789323,20,14,-45,-49,-4,-7,-21,-65
1523207883790136,-47,-34,36,14,-4,-7,-4,-69
1523207883790136,45,19,6,24,5,5,-6,49
1523207883803176,-34,21,-1,-13,2,3,85,-52
1523207883803176,-8,-13,12,1,-1,-5,-14,43
1523207883805176,10,-7,-15,-21,-4,0,-22,26
1523207883805176,-23,4,19,-10,-1,-4,-19,-41
1523207883826232,46,12,13,16,-3,2,-25,26
1523207883826232,-45,-25,-11,9,3,0,13,7
1523207883828237,-4,-10,4,9,1,-2,8,23
1523207883828237,14,-5,-1,1,1,-2,-15,-53
1523207883840501,51,48,46,-11,3,5,-14,22
1523207883840501,15,-17,3,-13,2,5,-7,-25
1523207883849293,-51,-24,7,2,-4,-4,-39,9
1523207883849293,-31,-21,5,6,1,-4,12,-103
1523207883863330,14,10,-29,-20,-7,-6,-41,11
1523207883863330,5,17,9,16,-1,-3,-37,17
1523207883865336,-19,-6,-82,-22,0,10,33,-38
1523207883865336,15,12,15,3,-4,-9,-6,15
1523207883886393,37,4,-7,-14,1,6,18,49
1523207883886393,-48,-30,28,18,-5,-1,-9,4
1523207883887397,16,5,5,20,-6,-9,-9,-16
1523207883887397,19,-18,33,-11,2,2,-1,57
1523207883899427,-10,-2,-85,-22,-6,-3,-26,-35
1523207883899427,8,10,-7,-5,1,3,22,-45
1523207883909457,8,1,49,-6,-3,-1,25,77
1523207883909457,-15,2,-2,24,6,4,-18,-47
1523207883923728,27,7,-8,-12,-4,-1,8,115
1523207883923728,-34,-25,17,9,-2,-2,-20,-74
1523207883925499,27,23,-53,-10,3,4,37,31
1523207883925499,-21,-5,-40,-20,-5,1,-17,-24
1523207883946551,-19,-14,34,53,-1,-13,-14,-13
1523207883946551,51,-6,-56,-13,-3,2,35,25
1523207883947554,-5,9,64,-6,-2,-5,-17,11
1523207883947554,92,26,18,-15,2,7,11,-6
1523207883959586,-22,6,0,-16,-1,1,-6,99
1523207883959586,-17,-4,-1,19,-7,-9,1,-80
1523207883968701,-3,1,49,-11,0,-5,-19,6
1523207883968701,-2,-15,-14,2,0,3,-9,-33
1523207883983690,12,-7,27,12,-1,1,9,8
1523207883983690,33,11,0,0,3,6,12,78
1523207883985658,19,20,-7,-14,2,10,-7,34
1523207883985658,-55,-21,19,9,-10,-19,0,-9
1523207884005711,-25,-35,-25,8,-3,-10,-53,-89
1523207884005711,-17,-2,19,-7,3,8,39,32
1523207884007715,4,10,-21,19,-5,-7,25,15
1523207884007715,-2,6,26,0,3,4,-7,-36
1523207884019987,27,24,7,-15,1,5,12,14
1523207884019987,29,-7,-50,-12,-1,0,-21,44
1523207884028772,37,-2,27,-8,-1,0,4,1
1523207884028772,-61,14,25,11,0,0,-10,-36
1523207884043822,21,11,-43,-34,-7,-1,17,-10
1523207884043822,-20,-8,44,31,-1,-6,-26,16
1523207884044816,-20,-17,22,3,-2,-5,7,-107
1523207884044816,23,-14,-72,-4,-1,-4,10,70
1523207884065868,6,8,31,26,8,5,10,-21
1523207884065868,17,7,-28,-24,2,5,-21,40
1523207884067875,-41,-6,-18,-3,3,4,-3,-58
1523207884067875,8,9,-4,-2,-2,1,55,71
1523207884089166,27,18,11,-23,0,9,-8,-15
1523207884089166,-62,-12,-43,-19,-1,0,4,89
1523207884089932,-62,-32,-14,40,-10,-20,-35,-104
1523207884089932,-19,-32,37,6,3,-4,-20,-85
1523207884102968,27,10,0,5,1,5,9,62
1523207884102968,49,34,45,-1,6,6,40,30
1523207884109988,-61,-20,-25,-20,-2,5,2,26
1523207884109988,19,4,-10,9,-3,0,2,48
1523207884126050,-20,-23,16,5,-2,-5,1,4
1523207884126050,15,45,23,-3,-1,2,2,-47
1523207884128035,28,13,-43,-7,2,1,-17,-6
1523207884128035,10,-13,-25,-25,0,0,-1,31
1523207884149091,-60,-55,8,39,-11,-10,-14,-55
1523207884149091,-24,5,-28,-13,-6,-14,-17,-109
1523207884150092,12,9,-13,-24,-1,-3,-34,11
1523207884150092,49,23,32,18,-3,-1,15,74
1523207884163127,-10,24,0,0,6,10,43,33
1523207884163127,-17,2,-23,1,-1,-3,1,27
1523207884165134,49,-29,21,-7,0,-5,-36,-9
1523207884165134,2,-3,9,-6,5,9,-2,-12
1523207884186189,10,15,16,-48,-5,-4,2,43
1523207884186189,-13,-19,41,51,-12,-19,-18,-98
1523207884188195,-19,-2,22,11,0,1,37,27
1523207884188195,2,13,-24,-3,-3,-1,-20,-23
1523207884208246,4,-12,38,-7,1,-4,11,-19
1523207884208246,32,3,-46,-3,2,3,-20,39
1523207884210258,23,10,-14,-11,2,9,33,63
1523207884210258,-17,-12,-17,16,-1,-5,-10,-77
1523207884223523,-20,23,14,-4,2,-1,8,-50
1523207884223523,5,7,-7,-26,-1,7,-22,70
1523207884230305,-76,-25,-15,13,-4,-13,-32,-128
1523207884230305,9,10,-16,-12,-5,-1,30,42
1523207884246347,24,15,-21,24,-3,-11,-16,40
1523207884246347,-17,-33,28,-5,-1,-1,24,-10
1523207884247352,30,25,7,2,5,4,12,61
1523207884247352,-3,4,-1,-24,-3,5,-1,45
1523207884268647,-27,-11,-28,-17,-6,-5,-41,-41
1523207884268647,21,2,-11,9,2,-6,18,29
1523207884270412,7,-4,24,7,0,-1,6,12
1523207884270412,-9,-11,10,-1,-1,-2,-25,58
1523207884283448,-13,-9,-13,-20,-4,5,21,-1
1523207884283448,20,3,32,52,7,-7,-21,26
1523207884289701,-3,-5,-21,-30,-7,-3,-24,-128
1523207884289701,-43,-2,12,15,0,-2,19,16
1523207884306508,17,0,29,10,3,4,-2,10
1523207884306508,89,23,-72,-35,1,-1,-24,23
1523207884307511,-11,-15,7,-3,5,7,18,25
1523207884307511,-4,-33,-85,46,-4,-6,2,-2
1523207884327564,-14,-9,11,-18,-1,-3,-19,-91
1523207884327564,-5,-20,37,-13,-6,-2,13,-5
1523207884328568,13,14,-23,21,-5,-11,-26,-40
1523207884328568,18,4,10,-4,4,3,-24,-13
1523207884342604,17,11,-28,7,-1,-3,14,64
1523207884342604,-36,-7,-25,-11,-2,7,22,-8
1523207884350625,4,7,45,-12,-5,-4,-42,45
1523207884350625,-32,-9,18,-14,-3,-3,30,-49
1523207884365712,9,-2,-21,3,0,-3,-3,-3
1523207884365712,26,6,27,12,-1,11,1,14
1523207884366670,0,-8,0,14,-1,-12,8,36
1523207884366670,19,16,20,1,-2,-1,-19,13
1523207884387725,33,-5,29,-6,1,-3,11,21
1523207884387725,-42,-13,10,-23,-4,-6,-8,-73
1523207884388726,8,16,8,-4,-3,6,10,-16
1523207884388726,-21,-26,-6,-10,1,2,-8,-9
1523207884402786,3,-19,9,31,-2,-4,2,19
1523207884402786,18,5,-2,-4,1,9,54,-17
1523207884410786,-23,24,-8,1,2,2,-3,41
1523207884410786,-5,-22,22,-12,-5,-2,10,10
1523207884425829,-31,-7,-20,-1,-1,1,-20,-82
1523207884425829,5,-1,31,11,-1,0,-16,29
1523207884426835,-5,-9,-16,-13,-1,9,14,37
1523207884426835,84,29,-11,5,0,-5,49,-3
1523207884447883,-22,-12,-34,10,0,-5,-43,51
1523207884447883,-38,0,10,-14,-3,-3,-8,-57
1523207884448888,13,-8,-62,-6,-5,-3,-2,-62
1523207884448888,-12,2,20,-24,-4,-2,-15,62
1523207884461921,20,0,-3,31,2,1,2,18
1523207884461921,-16,2,-13,-7,0,-5,-13,7
1523207884471119,58,1,-75,-14,1,7,58,44
1523207884471119,-44,1,9,0,2,0,-20,-36
1523207884484984,-8,-12,-29,-23,-4,0,12,-22
1523207884484984,-6,10,-12,13,-2,-4,11,53
1523207884485985,13,2,30,-2,2,1,-12,79
1523207884485985,-1,4,3,16,1,6,1,-59
1523207884508042,-31,-4,-8,8,0,0,-31,38
1523207884508042,6,-1,5,-8,-2,-3,35,-15
1523207884509052,-44,-19,40,11,-1,-4,-16,41
1523207884509052,-21,24,-31,-20,0,-1,18,-76
1523207884522317,6,16,28,-15,-3,-1,-12,-36
1523207884522317,-1,6,19,60,8,5,17,-11
1523207884530102,21,19,2,-17,3,9,2,-26
1523207884530102,-24,-23,1,-3,1,5,-7,86
1523207884545143,17,-2,1,-12,-5,-6,10,-19
1523207884545143,-14,-3,-9,-20,0,-1,-10,-66
1523207884546145,-9,-3,-19,12,-1,0,9,-2
1523207884546145,4,-4,28,20,4,-4,-50,-8
1523207884568209,7,2,95,8,2,0,16,30
1523207884568209,6,3,-15,-17,-6,-3,-10,37
1523207884569421,-2,-17,18,-7,3,3,-7,-55
1523207884569421,24,11,-16,-21,-4,-8,-8,67
1523207884582241,48,1,31,26,-1,-10,-56,-81
1523207884582241,-39,-29,-41,-7,-1,-3,-8,81
1523207884590500,-37,-17,-10,-19,-7,-9,9,-75
1523207884590500,6,-10,-18,-13,-4,1,15,23
1523207884605303,5,6,-36,-1,-5,0,11,2
1523207884605303,26,17,15,-1,0,-3,-16,15
1523207884606305,-49,0,-29,20,2,-1,-20,-6
1523207884606305,-16,-44,8,3,-3,2,7,79
1523207884628363,-24,3,-18,-2,-1,-5,32,-48
1523207884628363,-2,-4,14,-21,-1,0,-12,-3
1523207884628363,21,12,8,11,-2,1,9,46
1523207884628363,-21,7,17,-2,-3,-5,7,-52
1523207884642402,-25,-18,-16,-25,-5,-2,-16,-15
1523207884642402,11,-11,30,49,3,-3,-35,80
1523207884650423,35,5,19,-25,-1,-1,31,-55
1523207884650423,-63,5,-3,28,-2,-1,-49,-23
1523207884665462,-32,-52,-39,-41,0,1,9,-4
1523207884665462,17,15,59,3,-2,4,-19,-37
1523207884666464,10,5,-5,-3,-4,-4,-2,78
1523207884666464,17,11,9,6,1,0,-26,-30
1523207884688649,51,42,-32,-32,0,9,20,103
1523207884688649,-63,-16,47,24,-1,-3,0,-54
1523207884688649,-14,-17,0,32,-1,-5,-27,-22
1523207884688649,10,3,15,-13,-3,-11,8,-78
1523207884711585,18,-9,-67,3,1,6,13,44
1523207884711585,36,2,-61,-50,-5,0,11,37
1523207884711585,-4,4,22,-5,-2,-9,-27,35
1523207884711585,14,18,2,23,-1,-3,-4,-89
1523207884725621,-22,3,57,11,3,4,38,-3
1523207884725621,-7,-16,-46,-9,-1,4,8,-9
1523207884726628,14,4,33,-2,0,4,-7,99
1523207884726628,-11,-12,-38,-15,-6,-4,-12,-64
1523207884748683,-9,17,18,12,1,-8,-32,-34
1523207884748683,-35,-18,-10,-6,1,1,-1,16
1523207884755701,-4,-9,52,37,2,-3,8,-11
1523207884755701,89,20,-22,-25,1,5,38,81
1523207884762721,-72,-5,39,26,1,1,-9,-94
1523207884762721,30,10,-1,-8,1,0,-15,-2
1523207884770977,11,6,-92,-37,-1,3,8,8
1523207884770977,3,-1,36,2,-2,2,-8,-27
1523207884785782,2,-19,13,32,-3,-6,4,53
1523207884785782,-11,6,9,-11,-2,-5,6,-114
1523207884785782,1,-3,12,6,3,7,-20,18
1523207884785782,-13,-15,-19,-11,1,3,9,24
1523207884807840,22,10,-20,-14,-2,8,-8,25
1523207884807840,17,16,28,14,-4,-4,23,-3
1523207884808843,-5,-3,-19,-12,-6,0,5,46
1523207884808843,15,15,23,5,0,-5,-2,-1
1523207884822971,-47,-16,-27,7,-8,-3,-19,-92
1523207884822971,-13,-3,-5,-16,2,-6,29,28
1523207884830901,-14,-39,12,20,-3,-9,-24,-52
1523207884830901,10,-5,-15,-13,-1,1,4,82
1523207884845943,52,10,11,1,4,-5,13,47
1523207884845943,20,18,-44,2,-3,4,-5,-10
1523207884845943,-29,5,24,-22,-7,-8,3,-43
1523207884845943,-22,-30,-42,11,-1,0,-39,42
1523207884867999,-1,16,24,-6,1,-7,16,-24
1523207884867999,-9,-9,-8,-11,-3,-8,1,15
1523207884869003,-35,-11,-6,7,0,-5,-13,-28
1523207884869003,-17,-7,11,-6,-8,-4,-8,-70
1523207884882039,21,19,84,9,3,0,-1,116
1523207884882039,14,5,-29,1,-3,-3,19,-94
1523207884898079,41,17,32,10,-1,-2,-11,3
1523207884898079,-99,3,12,-10,3,5,40,50
1523207884905099,14,-2,-40,-1,-2,0,-53,-19
1523207884905099,-5,-26,22,7,0,-1,22,24
1523207884906101,37,-7,-27,-19,1,6,11,-6
1523207884906101,-11,-10,31,24,1,-6,-26,-3
1523207884928159,40,11,-56,-22,-2,10,26,-2
1523207884928159,-25,-6,9,6,-3,1,10,42
1523207884929163,8,17,34,13,6,1,15,75
1523207884929163,-18,1,5,-24,-4,-11,-29,-80
1523207884942199,-21,-7,17,35,0,-4,-41,107
1523207884942199,7,16,6,2,0,5,18,-100
1523207884950219,-11,-7,-11,-27,-2,4,21,44
1523207884950219,37,4,39,19,-1,-1,8,-38
1523207884965494,0,-13,4,-4,-2,-2,-5,-14
1523207884965494,6,-4,13,-11,-2,-4,-44,15
1523207884966260,-68,11,-6,1,-3,2,25,5
1523207884966260,42,10,-30,-2,9,3,-2,14
1523207884988319,10,13,-53,-27,-1,3,53,-70
1523207884988319,-21,-3,18,16,1,9,-34,53
1523207884989398,26,-3,-22,-8,-3,-11,-17,-51
1523207884989398,16,5,-6,4,0,-3,-24,21
1523207885011382,-15,-26,38,40,1,5,27,69
1523207885011382,12,1,-3,-16,3,2,-15,5
1523207885012385,10,7,-45,-5,-1,1,-2,-47
1523207885012385,-30,-18,4,-8,0,3,5,1
1523207885025423,54,44,31,-17,2,0,-16,-8
1523207885025423,-6,5,-25,-4,-3,-3,-18,49
1523207885026427,16,10,40,38,3,3,-6,5
1523207885026427,-61,-8,-12,1,-5,7,46,30
1523207885047476,-30,-32,-12,-19,-7,-14,-30,-108
1523207885047476,8,0,32,5,0,-1,-4,14
1523207885048479,20,-7,15,1,1,1,16,0
1523207885048479,35,40,-2,14,1,-1,9,41
1523207885071776,-27,-27,-16,-16,-2,5,29,-25
1523207885071776,-1,15,2,-11,-3,-6,3,18
1523207885071776,8,-15,-26,0,0,1,15,-18
1523207885071776,30,0,22,-2,-6,-2,-15,113
1523207885085606,-32,4,-19,0,-2,-4,-6,-71
1523207885085606,21,4,-11,-5,0,0,3,78
1523207885086582,-37,-34,17,9,-4,0,13,-40
1523207885086582,5,-2,-14,-21,-1,-5,-13,-78
1523207885107636,17,14,-10,13,2,-3,-10,38
1523207885107636,-41,-21,65,7,-2,-4,-17,-27
1523207885108641,22,14,-83,-11,-1,5,11,15
1523207885108641,-23,-17,-27,-5,0,-4,12,5
1523207885130699,51,-28,0,-3,-7,-3,-11,5
1523207885130699,-4,3,-8,-3,0,-8,31,-6
1523207885131700,-14,-6,21,-14,-5,-7,-22,-2
1523207885131700,26,5,-13,-3,1,2,-37,-44
1523207885145738,9,3,-15,-9,0,4,-6,60
1523207885145738,6,-13,13,10,0,-3,-1,-43
1523207885146740,-3,23,23,-9,-1,-2,0,-3
1523207885146740,21,15,-13,27,1,3,12,13
1523207885168032,27,14,0,-21,3,7,-58,127
1523207885168032,-40,-7,18,-14,2,0,41,-71
1523207885168798,-77,-17,-19,65,-10,-20,-73,-114
1523207885168798,-4,-3,11,-18,-5,-5,32,19
1523207885190859,-31,-40,23,-14,-2,-8,10,54
1523207885190859,91,21,-34,-19,0,8,-9,37
1523207885191861,18,28,16,-18,-1,-1,-5,57
1523207885191861,5,-7,18,18,0,3,17,-6
1523207885205899,-19,17,-15,3,3,3,2,-23
1523207885205899,31,9,-27,-7,0,3,-10,-3
1523207885205899,-3,-30,1,-26,-5,-6,-7,11
1523207885205899,-8,-7,-9,8,-3,2,1,-34
1523207885227957,-16,14,29,27,6,-4,25,-29
1523207885227957,-15,-4,-28,6,0,-2,-14,28
1523207885228960,7,-16,-17,-20,6,7,3,-26
1523207885228960,36,-3,-18,14,-1,-4,19,33
1523207885251056,-20,18,9,-13,0,7,38,28
1523207885251056,-40,-23,-46,11,-2,-6,-28,-19
1523207885252020,-5,9,15,-18,-2,-1,9,-56
1523207885252020,42,8,-21,-7,-1,1,-22,-56
1523207885265296,-88,-2,63,16,-6,-2,30,14
1523207885265296,-34,-52,-18,0,-8,-4,3,33
1523207885266058,21,12,23,-20,-2,1,-8,45
1523207885266058,-13,2,-12,3,3,3,25,35
1523207885288351,37,23,-17,-27,-2,-4,-29,-62
1523207885288351,-27,-1,57,31,-1,-1,20,-40
1523207885289119,1,9,-20,4,1,2,-25,56
1523207885289119,-26,-37,-33,-17,-2,-6,-24,-80
1523207885311178,34,3,-15,12,-2,-10,-14,32
1523207885311178,38,25,10,-22,0,4,13,26
1523207885312180,-18,-4,2,11,-1,-2,14,30
1523207885312180,-12,7,-21,-2,-5,-3,-20,-8
1523207885325219,22,-6,13,-22,0,2,40,31
1523207885325219,-12,1,-64,-20,-3,-6,-38,-7
1523207885326223,53,33,46,43,2,-2,7,32
1523207885326223,-64,-6,-13,-1,1,5,10,48
1523207885348277,-20,-32,-56,-1,-4,-7,-22,-36
1523207885348277,28,28,38,4,0,-3,20,103
1523207885348277,27,13,-62,-26,0,5,33,-44
1523207885348277,4,-23,52,-22,0,-4,-42,-9
1523207885371575,-2,3,-30,30,-4,2,12,-53
1523207885371575,5,13,5,11,-1,-6,-9,10
1523207885372340,17,2,28,-8,0,6,-18,76
1523207885372340,-11,9,-20,-6,-2,0,3,15
1523207885385375,-21,-1,14,-5,-2,-9,-12,-86
1523207885385375,5,13,-8,-11,-4,-1,16,30
1523207885386377,-33,-33,10,-6,-3,2,1,-49
1523207885386377,17,1,16,39,0,-1,34,31
1523207885408437,1,12,-39,-18,-1,0,-5,6
1523207885408437,6,-10,-5,-13,-1,1,-5,-43
1523207885408437,4,9,24,22,0,-4,15,3
1523207885408437,11,9,-14,-15,1,-1,4,28
1523207885431536,-45,-22,-20,6,-1,2,21,-6
1523207885431536,-9,-4,30,0,-5,1,9,-36
1523207885431536,-7,-11,15,-17,-2,-4,-13,-16
1523207885431536,-4,0,-6,-11,-1,-2,36,39
1523207885453558,-15,4,95,5,0,-5,-29,-50
1523207885453558,17,-13,-67,6,1,2,-13,49
1523207885454562,-27,26,18,2,2,2,31,3
1523207885454562,-3,-4,29,-4,0,5,14,-59
1523207885467593,40,8,13,-1,1,-6,-44,15
1523207885467593,-38,-17,-13,-2,3,2,25,-78
1523207885468595,14,0,-22,-21,0,6,0,27
1523207885468595,8,10,22,41,1,1,10,35
1523207885490658,-2,-25,-31,1,-4,-4,-12,10
1523207885490658,23,-11,22,6,-4,-4,-18,-66
1523207885491657,8,-11,-46,-21,1,-11,-82,86
1523207885491657,10,7,4,-5,-2,-2,74,-47
1523207885505695,-14,1,-27,-21,1,9,29,8
1523207885505695,59,27,16,15,2,-1,-14,18
1523207885506699,-32,-27,11,20,-6,1,-4,-37
1523207885506699,-26,-18,-21,-16,-1,-5,-30,8
1523207885527752,29,15,8,11,4,9,-20,-1
1523207885527752,0,-13,-4,-21,-3,-2,6,10
1523207885528755,12,9,-15,2,-4,-5,0,10
1523207885528755,8,16,18,12,-1,-1,-21,-30
1523207885550814,-10,-3,28,1,-1,-1,17,-30
1523207885550814,-23,3,10,5,-2,3,-1,41
1523207885551817,-8,-4,28,4,-1,-2,5,-13
1523207885551817,15,12,-96,-15,-4,-13,-35,-28
1523207885565855,-1,25,-8,-5,-4,-2,-9,-5
1523207885565855,-43,-12,-10,-12,-1,-3,-11,-7
1523207885565855,65,5,14,-4,1,5,37,20
1523207885565855,-74,-5,21,21,1,4,-10,-26
1523207885588151,46,0,-7,-5,-1,-4,1,16
1523207885588151,-22,3,-14,1,-3,-8,12,4
1523207885588915,-7,-10,-33,-18,-2,-1,-2,-5
1523207885588915,37,12,35,-1,2,3,-32,-7
1523207885610975,-16,-26,-3,10,1,2,-3,-17
1523207885610975,-5,6,21,4,1,0,-26,-14
1523207885611976,-2,0,-24,-7,-4,-7,21,-2
1523207885611976,18,-1,-36,-24,-3,-1,-2,124
1523207885625014,-59,-29,-25,-9,-3,-7,-13,-91
1523207885625014,1,-1,43,58,5,0,0,52
1523207885633035,-26,7,46,-4,-1,3,32,-54
1523207885633035,78,-6,-44,-9,-2,-6,-1,25
1523207885648073,-12,13,-17,-6,-1,3,29,33
1523207885648073,-9,-19,-30,-21,-2,2,-8,6
1523207885649077,-3,11,15,13,1,-6,-14,-46
1523207885649077,5,-5,50,-6,-3,1,21,78
1523207885671370,53,7,21,3,1,0,-23,-29
1523207885671370,-4,1,6,-9,-4,-5,4,-43
1523207885672136,-7,-12,-28,10,1,-6,-3,2
1523207885672136,-12,0,46,-7,0,6,-46,-27
1523207885685171,25,-1,-8,-9,4,6,52,127
1523207885685171,-15,-8,-12,-2,-1,4,-4,25
1523207885693194,1,15,-5,13,2,2,-1,-63
1523207885693194,-17,8,-1,-28,-1,0,-7,-73
1523207885708234,1,0,-26,28,-2,0,13,38
1523207885708234,23,5,9,11,0,1,5,49
1523207885709240,-28,-20,3,-11,-2,0,-8,-30
1523207885709240,16,-5,3,-1,1,9,12,-13
1523207885731295,-104,-10,-10,-34,-3,-6,-16,-9
1523207885731295,71,27,-17,5,-5,-5,9,-38
1523207885732297,-46,-22,-22,26,0,-1,11,30
1523207885732297,6,8,16,1,2,1,23,-27
1523207885744328,18,-5,-5,1,-3,-1,-16,8
1523207885744328,-13,-12,1,-26,-4,-1,4,-49
1523207885753588,27,7,-8,-11,-6,-5,-18,67
1523207885753588,-25,5,0,25,0,-7,20,63
1523207885768394,-1,11,31,-4,-1,-2,-12,-34
1523207885768394,-46,-23,-10,-8,0,-7,-17,-20
1523207885768394,32,20,-41,-15,-3,-3,-30,-6
1523207885768394,-13,6,27,30,1,-1,10,99
1523207885791455,28,-1,-5,-8,-5,-5,0,-31
1523207885791455,-7,4,4,22,-1,-2,5,12
1523207885792461,5,-5,42,-28,0,4,-9,-21
1523207885792461,74,6,-21,-5,-1,3,-60,-19
1523207885804491,-32,3,-2,4,-5,-11,22,-17
1523207885804491,25,2,27,-7,0,1,26,1
1523207885813671,-12,7,-4,10,3,1,-5,47
1523207885813671,-11,-45,-3,-13,-1,-3,-32,-45
1523207885827550,13,3,-64,3,-4,2,14,-9
1523207885827550,0,-2,14,2,1,-2,4,30
1523207885828554,-21,-4,16,15,-3,-6,-3,-34
1523207885828554,-19,-1,4,11,5,2,29,8
1523207885851634,17,16,-15,-15,-1,6,21,25
1523207885851634,-2,-1,-10,-5,-5,-5,-19,-37
1523207885851634,-31,-32,-3,4,0,0,6,17
1523207885851634,-20,0,5,-6,-6,-7,-21,35
1523207885864886,3,-2,17,4,0,-6,1,-64
1523207885864886,26,13,-13,-20,3,7,-15,25
1523207885872908,77,27,34,22,0,3,5,9
1523207885872908,-111,-23,2,-10,-4,-4,-7,-47
1523207885887955,16,-23,18,-3,1,0,8,125
1523207885887955,-20,-7,-36,12,0,-1,-7,-58
1523207885888711,-10,-3,23,-3,-2,3,-16,-77
1523207885888711,10,-2,-10,-7,-1,-17,-1,-21
1523207885910770,17,22,22,8,0,3,-23,40
1523207885910770,-15,-8,2,-12,0,-3,0,20
1523207885911775,8,-1,44,2,2,5,9,17
1523207885911775,23,13,-2,2,0,3,27,58
1523207885924811,-26,-8,-19,-7,-4,2,-22,-101
1523207885924811,-19,-18,-12,-11,3,-4,-36,35
1523207885932830,-16,-7,0,-6,-5,1,31,-64
1523207885932830,21,18,0,10,0,4,13,-17
1523207885947870,12,4,-6,-3,-2,-4,-18,73
1523207885947870,-7,1,5,11,2,11,-7,-23
1523207885948873,-7,-3,2,-13,-4,-9,-16,31
1523207885948873,33,-1,-7,-5,-1,-3,4,3
1523207885971169,-93,-20,81,3,1,3,-6,-68
1523207885971169,14,-13,-45,-15,1,13,67,59
1523207885971933,-6,-19,-11,-2,-3,-4,-16,-2
1523207885971933,-6,-11,57,39,-7,0,-32,-1
1523207885993994,36,16,-18,-2,0,-15,1,9
1523207885993994,21,27,44,14,0,-6,5,38
1523207885993994,-9,4,-38,-12,-2,-1,-11,-20
1523207885993994,-19,-8,-22,-26,-2,2,22,-14
1523207886008031,37,8,3,22,2,7,8,80
1523207886008031,-44,-7,-8,-2,-1,-5,-62,-101
1523207886009038,31,-7,-28,-3,-1,-5,62,53
1523207886009038,-3,-5,-15,-2,0,0,-18,28
1523207886031092,21,9,28,-29,-5,-3,6,-42
1523207886031092,50,-23,-79,17,3,3,11,-2
1523207886032094,-55,-17,12,6,-1,1,-8,13
1523207886032094,7,15,-5,-14,2,-2,9,-33
1523207886053152,-5,-12,-19,-7,-2,5,-8,29
1523207886053152,-8,-3,-6,-5,-8,-10,-8,-11
1523207886054153,-2,-36,29,26,7,7,41,42
1523207886054153,7,6,-19,-15,-3,-3,-10,-88
1523207886068424,-11,-11,-39,0,1,4,5,12
1523207886068424,0,8,44,-26,-7,-3,9,41
1523207886069193,29,26,-19,10,0,-3,-14,22
1523207886069193,-22,-16,0,-1,4,-3,-26,-84
1523207886091251,7,-17,36,5,1,0,-8,19
1523207886091251,-11,-1,17,5,-1,-1,-10,-7
1523207886092254,12,9,-5,7,-2,2,-34,49
1523207886092254,-13,-2,-55,-28,-5,0,31,4
1523207886114347,27,2,41,15,-2,-4,-7,79
1523207886114347,-19,9,-71,-5,-1,-2,4,-85
1523207886114347,-49,6,-5,-25,0,0,-24,-15
1523207886114347,29,-9,-1,10,-2,2,-3,44
1523207886128349,-80,1,-11,0,0,1,9,-80
1523207886128349,-16,28,6,-1,-1,-2,-28,1
1523207886128349,7,10,4,2,-2,-6,16,-10
1523207886128349,4,6,15,-20,2,1,4,-6
1523207886151450,11,-16,-27,24,-5,-3,3,47
1523207886151450,-12,-10,28,1,-1,2,0,14
1523207886151450,-1,13,-3,-8,-1,-4,-1,-78
1523207886151450,6,-9,24,8,3,6,10,74
1523207886173467,14,-2,-28,-16,-2,-1,-2,-34
1523207886173467,-6,2,27,5,0,-6,-3,22
1523207886174477,7,-3,-26,-10,0,0,0,37
1523207886174477,-9,0,-2,-2,-5,-6,-16,-59
1523207886188592,-59,-2,61,-16,3,10,64,-23
1523207886188592,22,-4,-37,14,-4,0,5,-16
1523207886188592,4,-2,32,17,1,1,2,59
1523207886188592,46,14,1,9,2,4,56,1
1523207886211571,-62,3,-4,-12,-3,-10,-46,-105
1523207886211571,-4,-15,47,-10,3,1,32,49
1523207886212607,18,-4,-11,-3,-4,2,30,-18
1523207886212607,5,10,22,6,0,-1,-21,21
1523207886233657,30,2,-35,-7,-5,0,5,15
1523207886233657,-1,-22,24,5,-3,-2,23,0
1523207886234632,-8,-9,-32,-4,-5,1,-21,-36
1523207886234632,-18,-2,16,-2,3,-9,-19,-40
1523207886248667,61,21,-27,-20,-5,-4,12,85
1523207886248667,-49,-28,5,22,-1,-6,-37,6
1523207886248667,40,-16,-12,16,6,-10,74,-32
1523207886248667,2,13,0,-9,-7,-1,18,67
1523207886271817,11,-14,-3,0,0,3,0,36
1523207886271817,12,12,-35,-15,-3,2,8,-46
1523207886271817,0,1,-19,-14,-2,-4,-61,42
1523207886271817,17,4,-21,5,-3,-4,-21,-74
1523207886293789,-56,-11,-6,6,1,-1,20,38
1523207886293789,-3,4,37,0,0,-2,-13,8
1523207886294791,-13,5,21,1,-2,0,-14,-80
1523207886294791,-7,-11,-51,-3,-1,-2,1,31
1523207886307832,41,11,-4,18,1,2,-28,-4
1523207886307832,14,17,2,-7,2,2,4,5
1523207886308832,-35,-13,3,-17,0,10,39,-16
1523207886308832,-28,-7,12,1,-2,-10,-28,-59
1523207886330887,32,7,23,3,2,0,-14,46
1523207886330887,-58,-10,-41,-15,-2,-1,0,-70
1523207886331890,24,14,11,27,-2,-5,-9,70
1523207886331890,-28,-3,42,20,-2,-2,-5,3
1523207886354186,8,8,-24,-14,-1,-9,-19,-75
1523207886354186,39,36,-2,-9,-2,0,21,49
1523207886354186,9,9,7,-5,2,1,-49,13
1523207886354186,-58,-3,0,-7,-3,1,11,16
1523207886367986,7,-5,15,12,4,2,-12,-72
1523207886367986,35,21,-37,-18,2,3,28,53
1523207886368989,-34,-21,-25,10,-5,-2,-25,-28
1523207886368989,3,-19,4,-12,4,-5,15,26
1523207886391048,9,2,31,36,-4,-3,-8,-34
1523207886391048,-8,-15,9,-4,1,-2,-7,-27
1523207886392054,53,8,1,-22,-1,0,11,14
1523207886392054,4,8,-12,-10,1,4,-28,70
1523207886414319,-22,-22,-5,6,4,12,61,-8
1523207886414319,22,-6,18,0,-3,-9,16,-82
1523207886414319,5,4,-40,-11,-2,-4,-16,-28
1523207886414319,24,-3,20,-10,-6,4,1,75
1523207886428146,2,-5,-11,-10,-5,-7,-22,-40
1523207886428146,-71,-14,-18,1,-1,4,6,22
1523207886429186,-23,-10,-1,-1,1,0,16,-13
1523207886429186,19,2,12,16,1,0,6,-7
1523207886451209,-5,0,-92,-14,-1,1,-37,53
1523207886451209,16,-32,44,26,2,-2,14,-22
1523207886452210,5,20,23,-36,-3,-1,-22,5
1523207886452210,6,28,-25,5,2,3,44,43
1523207886474270,-11,-29,31,-4,-7,-18,-30,-19
1523207886474270,0,15,6,-5,0,0,-17,-10
1523207886474270,29,2,3,-4,-7,-6,-2,70
1523207886474270,3,-14,6,27,-2,-3,2,8
1523207886488543,16,17,-19,-7,1,0,6,-53
1523207886488543,0,11,-31,-18,-2,4,2,36
1523207886488543,8,6,8,-3,-2,1,12,-21
1523207886488543,3,-15,25,-15,-6,-5,-13,45
1523207886510363,-74,-14,-5,28,3,-2,-1,-74
1523207886510363,30,12,21,14,0,0,-25,24
1523207886511367,-14,-14,-37,-9,1,0,-40,-17
1523207886511367,-30,-14,-41,-6,1,-4,-18,-89
1523207886533438,28,10,15,5,0,1,-31,68
1523207886533438,18,11,22,0,-4,-7,8,-17
1523207886534428,-7,9,-2,7,3,4,7,24
1523207886534428,-4,5,27,-29,-4,0,-16,-14
1523207886548616,-9,-27,15,25,1,-4,-1,-55
1523207886548616,-28,19,52,-10,-4,-1,0,54
1523207886548616,-4,-19,-62,2,-2,-3,-5,-8
1523207886548616,19,9,2,-7,-2,0,-11,0
1523207886570524,-1,-11,5,-7,-2,5,39,-33
1523207886570524,18,-13,-22,14,2,5,13,95
1523207886571526,-12,7,61,-1,-5,-7,-23,-36
1523207886571526,10,-3,-32,-2,1,3,44,-50
1523207886593586,-4,4,-28,-13,-1,-3,-20,76
1523207886593586,85,-1,-12,-2,-2,-2,-33,-48
1523207886594587,-36,-4,-1,6,2,-1,13,-20
1523207886594587,17,7,-17,15,3,9,77,-34
1523207886615645,26,31,39,-14,0,2,-11,27
1523207886615645,-35,-34,-80,-27,-5,2,5,-17
1523207886616647,24,2,33,48,6,0,-19,44
1523207886616647,26,15,73,7,2,0,-4,-7
1523207886630685,48,8,-39,-10,-2,-7,-6,83
1523207886630685,-44,6,-1,-9,2,-1,-7,-65
1523207886631687,-15,6,-22,-10,-2,2,13,2
1523207886631687,-46,-47,24,-7,-6,-8,-43,15
1523207886653746,36,12,-3,6,6,5,12,52
1523207886653746,-5,-5,15,6,-2,-5,1,-34
1523207886654750,2,7,-46,-23,-2,-3,-14,90
1523207886654750,-9,-11,7,29,-7,-8,35,-108
1523207886667941,-27,-18,-37,-18,-3,-8,-24,-44
1523207886667941,6,10,12,12,0,3,22,3
1523207886675804,6,1,33,-18,0,0,10,-16
1523207886675804,34,21,-49,-3,-3,-1,-43,63
1523207886690844,-64,-20,33,-11,-5,-4,-14,-64
1523207886690844,-13,-19,9,39,2,-1,-11,-14
1523207886690844,17,12,7,-20,0,-2,36,57
1523207886690844,20,8,5,21,-2,-6,-38,8
1523207886714140,22,11,0,-4,3,-2,25,-29
1523207886714140,0,-7,11,-4,-3,-13,-59,2
1523207886714908,-3,0,36,-22,-2,8,-8,12
1523207886714908,-36,-3,-11,14,-2,-3,5,13
1523207886726940,26,-1,-31,11,0,10,71,20
1523207886726940,15,1,29,-19,-3,1,13,50
1523207886735963,-21,-18,9,1,-5,-7,-6,-52
1523207886735963,-9,3,-19,1,0,-4,-26,-6
1523207886751141,13,24,70,3,-2,3,9,14
1523207886751141,19,11,-76,-5,2,7,4,52
1523207886751141,-28,-17,-28,8,0,-1,-2,-37
1523207886751141,-34,-10,8,-25,-2,-2,16,-23
1523207886774066,8,16,10,-12,-2,-3,7,47
1523207886774066,57,15,15,49,-2,-4,12,31
1523207886774066,4,1,-17,8,2,11,17,-17
1523207886774066,-23,-16,-13,-12,1,-8,-33,18
1523207886787101,-6,8,-37,-26,-7,-7,-36,-47
1523207886787101,-56,-10,-30,-19,2,-3,-19,-24
1523207886795123,30,21,20,31,0,3,34,37
1523207886795123,1,9,27,9,5,4,7,43
1523207886810162,-8,-12,-71,-45,-3,2,-28,-36
1523207886810162,-6,-14,47,28,-3,-1,5,-1
1523207886811163,-22,-21,-43,25,-2,-8,-10,-22
1523207886811163,-8,-21,-24,-30,-4,3,2,-9
1523207886833222,10,4,27,18,0,0,-20,57
1523207886833222,18,21,4,-15,2,-2,-23,-41
1523207886840249,-21,-21,-23,-12,1,0,-1,21
1523207886840249,8,23,2,5,-3,3,13,-43
1523207886847498,-12,-28,0,14,1,2,-1,11
1523207886847498,-11,7,-1,-10,-1,-4,-15,3
1523207886855519,20,7,20,9,-2,-7,14,26
1523207886855519,-9,-15,-6,-17,2,-1,-29,-44
1523207886870322,8,6,0,14,-3,-3,-16,-24
1523207886870322,-45,-26,-20,-16,0,-6,-1,62
1523207886871328,30,8,20,-9,-2,-2,-12,-3
1523207886871328,19,8,0,9,1,1,21,1
1523207886893388,-56,-2,39,14,1,4,-26,-41
1523207886893388,42,13,-8,-1,-6,0,37,4
1523207886894384,-14,20,74,-3,2,1,-15,-11
1523207886894384,-11,-34,-75,-25,-8,-10,-6,38
1523207886916443,17,6,62,40,0,-5,-10,-10
1523207886916443,12,11,-28,-13,1,4,20,49
1523207886917447,-16,-8,23,-6,-4,-2,2,-53
1523207886917447,-18,9,-3,2,5,4,24,37
1523207886930483,5,1,-27,-16,-1,-2,-14,23
1523207886930483,-8,-7,31,0,0,-1,23,-25
1523207886931484,29,-3,-12,7,-4,-4,-22,-30
1523207886931484,-13,5,8,1,-5,0,8,3
1523207886953780,17,-12,-19,-1,-3,-5,7,0
1523207886953780,-14,-6,2,-1,-1,2,-6,-23
1523207886954544,7,-14,-9,-6,3,4,4,4
1523207886954544,27,17,-1,-12,-4,-4,-23,48
1523207886976603,-8,6,36,-5,2,5,17,27
1523207886976603,-9,1,21,0,-2,1,3,-88
1523207886976603,-2,3,11,16,-4,-14,-2,-19
1523207886976603,-12,-1,-39,3,-1,-3,-9,9
1523207886990641,-2,-11,-16,-9,0,2,9,24
1523207886990641,5,-7,-11,-31,-5,-4,16,21
1523207886991651,-18,-11,48,-9,-2,-4,-33,1
1523207886991651,16,-2,-25,27,3,7,15,-3
1523207887013940,18,43,-13,-6,-2,-2,22,-9
1523207887013940,-16,-31,-11,2,-1,-5,-46,-11
1523207887014703,-96,-7,-27,-12,-6,-3,10,-25
1523207887014703,40,1,14,-4,4,5,9,5
1523207887035761,-52,-6,32,9,0,0,6,1
1523207887035761,-6,-4,-10,-9,-6,0,-3,20
1523207887036762,37,9,-15,-16,2,0,-3,76
1523207887036762,-19,0,2,29,0,-1,-17,-71
1523207887050802,5,-6,44,0,2,2,9,60
1523207887050802,-3,-2,-58,-15,-6,-8,-3,-73
1523207887050802,-26,-3,-2,-7,-4,-7,-50,-41
1523207887050802,38,2,-21,-2,-1,3,-3,64
1523207887073863,-5,-32,-50,-3,-3,-7,20,-27
1523207887073863,-4,-21,4,5,3,4,-14,58
1523207887074870,36,7,-43,1,-2,0,-1,10
1523207887074870,26,13,2,-11,0,9,55,1
1523207887096158,-50,-12,-18,2,-1,0,-12,-36
1523207887096158,-91,-13,-9,2,5,7,-5,-21
1523207887096922,13,3,-22,6,2,2,-8,-4
1523207887096922,10,6,76,-2,-2,-4,-6,6
1523207887118985,23,1,7,0,-1,-2,1,-15
1523207887118985,25,25,13,-2,-3,1,18,36
1523207887118985,10,-6,20,-12,-3,-3,1,-36
1523207887118985,-36,4,31,17,-1,-1,-16,-47
1523207887134021,18,-11,23,17,5,1,15,45
1523207887134021,27,-7,-5,8,0,-6,-17,-21
1523207887135025,-52,-13,-16,-14,-6,0,30,-8
1523207887135025,11,2,2,-24,-4,-7,-29,-52
1523207887156079,7,-2,-29,4,-3,-5,-18,-19
1523207887156079,33,21,55,0,1,7,10,66
1523207887157084,19,-9,-15,21,2,-3,66,-19
1523207887157084,-22,-4,17,3,1,-3,-21,34
1523207887170119,63,4,-5,-10,-5,1,-15,-28
1523207887170119,0,3,-66,-11,-3,-1,3,7
1523207887171119,0,3,47,5,-4,2,-13,-4
1523207887171119,-47,-13,25,1,1,-6,-10,6
1523207887193178,33,13,-41,-25,0,2,19,31
1523207887193178,6,0,5,14,-3,-3,-21,-13
1523207887194182,8,6,17,18,0,2,-13,-3
1523207887194182,13,8,-14,-8,0,0,-7,57
1523207887216239,-25,5,-6,-2,-6,0,-20,-75
1523207887216239,-5,-4,-50,-8,-2,-4,15,-49
1523207887218244,13,14,3,-24,1,-1,-34,96
1523207887218244,-43,-21,14,36,-4,-11,-10,-107
1523207887229273,-9,3,-28,-11,-4,-8,-19,2
1523207887229273,24,45,63,5,0,-1,-21,24
1523207887238536,20,5,-1,-7,1,6,32,14
1523207887238536,-23,-30,-19,-8,0,1,-4,5
1523207887254341,-11,-16,-13,-6,-1,-1,12,62
1523207887254341,-2,9,3,16,3,2,-28,-35
1523207887255343,16,-5,-15,-3,-1,2,45,25
1523207887255343,-26,16,-2,-9,2,2,4,-8
1523207887276399,-10,1,16,4,-6,1,17,6
1523207887276399,17,-8,-9,0,3,-3,3,45
1523207887277401,-24,-17,-10,18,1,1,0,-76
1523207887277401,38,14,14,-13,-3,2,24,24
1523207887289436,-7,-14,-51,-17,1,0,-15,-19
1523207887289436,-10,-15,20,13,-7,-10,8,7
1523207887298464,3,4,2,1,3,-3,8,-3
1523207887298464,28,-2,19,12,-1,-4,-16,-5
1523207887313733,-13,19,28,5,1,1,35,48
1523207887313733,17,-10,46,-6,4,7,2,0
1523207887315504,-40,-50,-84,-10,-4,0,-3,-25
1523207887315504,41,8,1,-30,-1,0,-14,13
1523207887336789,-87,-6,32,15,-4,-6,-19,-69
1523207887336789,-7,7,23,5,-4,-1,12,40
1523207887337562,17,-23,-25,-4,0,4,6,-8
1523207887337562,54,14,12,-12,2,8,11,69
1523207887349594,-51,-8,-9,19,1,0,-10,-3
1523207887349594,6,8,12,-9,0,0,-14,-12
1523207887358617,-8,6,30,0,5,-1,4,75
1523207887358617,-5,-15,-86,3,-2,4,6,-85
1523207887373664,35,1,-17,-2,-4,-4,24,3
1523207887373664,-20,-8,-6,0,-1,8,-17,-54
1523207887375665,0,18,-3,-13,-1,1,27,-16
1523207887375665,-1,5,3,4,-3,-3,15,30
1523207887396789,26,-23,19,11,-1,6,26,62
1523207887396789,-10,-11,-35,-12,-4,-5,-5,-49
1523207887397721,-26,3,-9,0,-4,-9,-30,-41
1523207887397721,-29,1,31,-1,0,-1,-9,-55
1523207887409754,21,8,-70,-19,-2,-4,-15,10
1523207887409754,17,-15,12,20,-5,-4,16,50
1523207887418778,-4,1,40,12,4,-1,-7,-23
1523207887418778,4,1,9,3,-4,-6,-13,47
1523207887433818,14,5,-13,-29,-1,1,-6,18
1523207887433818,18,-4,6,-14,-1,-4,-12,-81
1523207887434823,12,19,19,43,1,-4,2,-13
1523207887434823,-13,-28,-12,8,3,2,12,24
1523207887455877,13,10,78,-9,3,4,-11,-25
1523207887455877,13,9,13,-24,4,4,55,40
1523207887457887,-4,-19,-38,15,-10,-11,-39,-47
1523207887457887,-11,27,25,-3,-3,-10,-7,29
1523207887470148,14,-11,35,4,0,-6,-21,-89
1523207887470148,11,21,-21,2,3,6,33,12
1523207887478938,34,22,102,-17,3,7,9,96
1523207887478938,-66,-40,-71,-2,-5,-8,-10,-81
1523207887493980,7,-14,-70,10,-5,-7,-12,0
1523207887493980,15,3,55,2,0,3,-41,4
1523207887494980,22,7,-29,-9,-3,-2,6,-2
1523207887494980,7,18,39,-14,2,8,32,-6
1523207887516037,4,-8,-1,-12,2,3,18,40
1523207887516037,-101,-20,20,31,-1,-1,2,-29
1523207887518044,17,-16,-8,-7,2,1,-16,44
1523207887518044,14,-15,10,-6,-2,-3,-16,16
1523207887530074,-17,13,8,-9,-1,1,2,-33
1523207887530074,12,-8,-4,-5,0,2,-15,38
1523207887539099,-28,-6,39,18,-1,-4,12,-2
1523207887539099,-13,5,-11,19,1,-5,-11,-66
1523207887554288,8,-5,24,1,-1,0,11,62
1523207887554288,-1,2,-2,-23,-6,-4,12,-32
1523207887555140,3,2,-21,-45,-3,1,9,62
1523207887555140,41,-18,-15,67,2,1,17,-56
1523207887576199,7,9,15,-1,3,0,-27,23
1523207887576199,0,-11,-38,-11,-2,8,7,43
1523207887578208,7,26,27,-12,-4,-3,15,19
1523207887578208,78,2,1,-28,-6,3,14,81
1523207887590239,-52,-6,-33,22,3,-3,-40,-70
1523207887590239,-2,1,12,22,-2,-7,-24,-13
1523207887599257,13,-7,-12,5,0,0,0,2
1523207887599257,23,13,4,-26,-4,1,27,104
1523207887613297,-3,7,39,-6,-2,-1,28,-45
1523207887613297,-9,-20,-47,-16,-4,-12,-55,6
1523207887615300,-17,22,-35,-17,2,3,9,-70
1523207887615300,12,-22,17,41,0,-2,-17,-27
1523207887636357,32,4,-18,2,-3,2,4,72
1523207887636357,-7,2,14,2,-3,-6,16,31
1523207887638416,0,-14,-22,-7,-2,0,-12,-75
1523207887638416,-16,20,-7,-31,0,-4,2,35
1523207887650438,9,-11,46,5,-2,-2,-26,12
1523207887650438,-58,-7,-80,13,2,-1,42,-17
1523207887658416,2,-8,10,-18,-4,5,18,58
1523207887658416,-17,-1,6,13,-1,-7,-9,-11
1523207887673466,-22,37,4,9,2,-2,5,-100
1523207887673466,24,-4,14,-4,-1,-5,-34,24
1523207887675461,-1,11,0,7,1,4,-15,12
1523207887675461,-40,-23,-60,-27,-4,-2,-3,10
1523207887696515,-20,1,38,8,-1,-1,11,59
1523207887696515,14,14,18,-4,0,8,25,-39
1523207887697605,7,2,-58,0,0,-10,21,20
1523207887697605,-19,-26,-10,26,5,7,11,-29
1523207887709558,14,-3,-26,-13,-4,-3,-20,37
1523207887709558,-20,-4,27,0,-2,-4,-26,-114
1523207887718576,42,-5,-13,3,4,-3,6,28
1523207887718576,-34,5,27,-14,-1,-3,-24,-1
1523207887733614,39,-6,-77,-10,-3,1,24,26
1523207887733614,15,11,-1,-5,-1,-3,-3,20
1523207887735619,10,10,30,11,-3,1,-17,-57
1523207887735619,-20,-18,-1,0,-1,4,7,-19
1523207887755675,22,13,34,6,5,1,-15,37
1523207887755675,-40,-21,10,-28,-3,-3,-7,-51
1523207887757685,-14,4,-17,29,0,-5,-15,-26
1523207887757685,9,22,39,17,2,5,6,54
1523207887769948,-1,0,45,-3,0,3,-2,-12
1523207887769948,-9,-14,-73,-17,-2,-11,64,28
1523207887778736,-6,-20,2,-5,-3,-1,-16,-4
1523207887778736,-92,9,10,-6,-2,-3,-25,-26
1523207887793774,30,7,48,-9,-2,0,13,-16
1523207887793774,18,-6,14,-1,0,6,1,51
1523207887795779,-34,-13,-15,41,-2,-1,-4,-69
1523207887795779,50,19,21,-10,-2,-2,12,56
1523207887815833,-6,-3,-32,-5,0,-1,3,42
1523207887815833,8,12,-1,-12,-4,1,-10,-78
1523207887817838,-17,16,28,-21,-2,-2,5,64
1523207887817838,16,9,30,5,-1,2,-5,-47
1523207887829870,4,-19,-63,2,-1,-1,0,-45
1523207887829870,29,23,66,15,1,1,6,50
1523207887838896,32,-2,-83,-25,-2,3,-3,6
1523207887838896,-33,-35,-24,7,-2,1,2,-46
1523207887853935,6,23,13,-11,-2,0,4,-50
1523207887853935,47,18,32,22,3,-4,-16,34
1523207887854940,-1,1,-9,-14,-4,0,-2,11
1523207887854940,-34,-11,-9,-29,0,-4,-17,-28
1523207887875992,-24,-18,0,17,-5,-4,3,-19
1523207887875992,10,3,3,9,1,0,-1,-19
1523207887877997,30,18,35,-6,-5,-4,8,40
1523207887877997,31,4,-94,-17,-6,-1,-1,26
1523207887899288,-60,-22,44,1,-1,-6,-20,-14
1523207887899288,-22,2,-14,3,0,-2,-19,-15
1523207887900056,-19,-39,50,-6,-3,-8,12,-2
1523207887900056,7,22,-26,-9,-2,-1,-2,14
1523207887914094,11,-6,-69,-10,-3,1,-16,4
1523207887914094,25,-1,-45,-13,0,0,30,27
1523207887915096,-28,-39,11,35,-1,0,-26,-19
1523207887915096,15,4,28,-8,1,5,48,-33
1523207887936391,9,-3,-9,10,4,-5,11,45
1523207887936391,-84,-25,-54,-17,-5,-4,-29,-43
1523207887938158,11,24,26,5,1,4,0,-13
1523207887938158,8,-15,-56,14,2,-2,3,-19
1523207887958214,11,25,-1,-15,3,2,3,56
1523207887958214,-6,-61,-23,16,1,-3,-2,80
1523207887960219,-78,6,5,-8,-1,-2,-19,-96
1523207887960219,11,22,-7,1,0,-10,-28,54
1523207887974256,6,-28,1,-5,-3,0,33,44
1523207887974256,14,4,52,5,1,10,15,66
1523207887975257,0,3,-41,-15,-3,-18,-50,-41
1523207887975257,11,-4,37,10,-3,-6,-49,11
1523207887996313,9,19,11,9,3,4,12,6
1523207887996313,75,-9,27,-14,-4,-6,5,-93
1523207887998392,-41,-19,-5,9,0,4,-5,8
1523207887998392,-29,1,43,-36,-5,-3,-5,-14
1523207888018372,16,0,16,36,-5,-8,-15,-82
1523207888018372,-12,-9,28,13,3,2,-18,36
1523207888020382,29,10,49,-7,-1,-1,19,-15
1523207888020382,-38,7,-48,-13,-2,-2,-17,-22
1523207888033410,7,-5,-49,-17,4,9,40,35
1523207888033410,9,42,10,2,-3,-8,-60,48
1523207888039430,-15,3,-20,-2,-1,0,8,-75
1523207888039430,13,8,-20,0,0,-3,15,33
1523207888056481,-16,-36,34,12,-1,0,-30,-16
1523207888056481,-20,5,-21,-2,-2,4,20,-15
1523207888062490,27,8,-19,-11,2,4,2,63
1523207888062490,21,-7,-2,-8,3,4,-6,-2
1523207888078532,7,13,9,23,-4,-4,-3,-52
1523207888078532,-50,0,-16,-4,2,-9,-17,-36
1523207888080537,15,-4,29,-8,-1,-3,4,-1
1523207888080537,31,-1,38,8,0,4,19,73
1523207888092568,-24,0,-51,-10,-2,-2,-11,-81
1523207888092568,13,9,23,9,1,3,22,22
1523207888099825,-40,12,-24,-2,-4,-1,16,21
1523207888099825,13,1,-27,-3,-4,3,45,31
1523207888115629,-9,-20,35,-3,3,-1,-5,24
1523207888115629,3,3,-11,0,-8,-8,4,-4
1523207888117635,11,-16,-38,6,3,2,-18,52
1523207888117635,4,2,56,3,-2,-1,10,-68
1523207888138691,-23,10,-55,-16,-2,-7,-25,-1
1523207888138691,59,4,3,-10,1,7,-7,-48
1523207888140698,-22,1,12,19,0,0,-1,43
1523207888140698,-11,-15,-23,-16,-3,-3,-14,7
1523207888152966,-4,3,43,13,0,-1,-3,-29
1523207888152966,14,20,-24,0,1,0,7,65
1523207888159746,3,-30,13,-8,-2,-5,18,24
1523207888159746,8,17,33,14,1,-1,-83,-73
1523207888175789,-32,-9,-5,-17,-3,6,94,-12
1523207888175789,-15,-7,-34,13,-4,-1,-9,-53
1523207888177795,29,6,-6,-7,-2,-12,-37,13
1523207888177795,14,9,17,3,2,3,89,80
1523207888199089,26,-13,-65,7,-2,-1,-40,24
1523207888199089,-38,14,44,4,-1,-5,-45,29
1523207888200925,25,1,-88,-8,-3,-2,-41,-34
1523207888200925,8,-6,56,-4,3,3,21,-16
1523207888212889,39,-12,-53,-19,-5,-6,-41,17
1523207888212889,20,-4,11,-8,3,3,17,22
1523207888219909,-6,-10,-13,1,-2,2,23,-36
1523207888219909,-25,-13,-11,14,-4,-5,-16,-42
1523207888235949,0,6,8,12,1,-2,5,48
1523207888235949,-5,-18,-16,0,-1,3,-1,4
1523207888237959,-11,15,18,-9,0,1,3,4
1523207888237959,41,-8,-47,-19,-2,-5,-26,21
1523207888259010,-35,-2,53,-24,-3,4,18,1
1523207888259010,-23,-25,35,5,-4,-11,-8,-27
1523207888260013,12,9,-6,21,1,2,4,-22
1523207888260013,-12,-10,-21,-1,-1,2,49,42
1523207888273057,16,20,63,10,1,-3,-35,15
1523207888273057,-11,15,-36,-37,1,2,33,-46
1523207888280067,-32,-33,67,32,0,3,-9,-6
1523207888280067,-23,-5,8,-1,-6,-2,-58,-70
1523207888296109,65,9,-20,-6,1,-2,31,-7
1523207888296109,-33,5,-14,4,1,7,29,49
1523207888298324,-4,6,5,-31,-1,0,32,-23
1523207888298324,-4,-19,11,31,1,-3,-54,25
1523207888318169,15,11,17,13,2,2,31,34
1523207888318169,74,12,-31,0,0,-1,2,-3
1523207888320174,-18,9,12,-6,1,2,-27,10
1523207888320174,-34,-17,38,-46,-3,-3,0,-59
1523207888333207,7,3,-66,4,-7,-2,-6,33
1523207888333207,6,-1,-15,30,0,-5,0,28
1523207888340237,-4,-1,2,0,3,0,11,19
1523207888340237,-4,6,11,-8,-5,-2,19,-78
1523207888356275,-20,-2,7,-30,0,0,-37,-35
1523207888356275,6,4,-2,16,-5,-6,44,52
1523207888357276,11,-1,-14,-4,-3,0,1,26
1523207888357276,35,-3,-89,-15,-3,-1,5,45
1523207888378327,-86,-8,43,25,-3,-2,-18,36
1523207888378327,-29,-8,1,-10,3,0,-2,-56
1523207888380335,9,9,37,7,0,2,20,-20
1523207888380335,25,8,10,-7,3,1,0,15
1523207888392366,-19,11,-8,12,-4,-2,-13,-3
1523207888392366,17,10,48,4,-1,-4,20,75
1523207888401388,-14,-2,-9,-7,-3,0,-29,-94
1523207888401388,-13,-9,21,-4,-1,-6,3,31
1523207888416429,24,25,31,-19,-6,-6,1,20
1523207888416429,-9,-29,-8,-3,-1,0,-10,-25
1523207888417431,35,14,11,10,5,4,4,18
1523207888417431,10,16,-6,17,1,2,21,39
1523207888438487,-19,-7,-8,0,1,1,14,0
1523207888438487,-30,-5,-36,-27,-9,-4,-40,-121
1523207888440502,26,-4,9,1,-2,-5,-2,60
1523207888440502,-69,12,-37,6,0,1,-7,-6
1523207888452525,-5,-28,-23,0,0,-6,34,54
1523207888452525,-17,9,71,-11,2,2,6,-59
1523207888461549,-77,-27,-53,-2,0,-3,-22,-25
1523207888461549,23,31,1,19,-3,-2,-9,-17
1523207888476588,39,-2,25,-4,-4,4,-50,13
1523207888476588,-18,-15,20,-11,-2,-2,64,9
1523207888477591,28,8,-40,-17,-3,-1,3,-25
1523207888477591,13,12,60,33,2,-1,-1,60
1523207888497882,-9,7,70,-15,-4,-3,-25,-102
1523207888497882,35,-6,-26,-2,0,3,-8,11
1523207888506674,-16,-12,6,5,1,3,33,47
1523207888506674,-9,-27,-1,-11,5,7,35,63
1523207888512685,23,14,-10,7,-3,-6,-13,-99
1523207888512685,-12,-20,-15,-3,-2,-3,-14,58
1523207888521712,-1,-11,32,21,0,6,25,-40
1523207888521712,-2,2,-25,-5,-2,-8,-43,-15
1523207888535745,66,7,-16,-11,5,-1,17,30
1523207888535745,-6,-10,11,-4,-2,4,17,31
1523207888537750,10,6,-44,-10,-6,-9,-4,-18
1523207888537750,11,-4,-32,15,-5,-3,-7,8
1523207888558807,-8,-7,9,-15,-3,-2,2,9
1523207888558807,23,26,-26,9,4,8,-11,39
1523207888559809,5,-1,22,-9,2,0,-11,34
1523207888559809,9,5,38,18,-5,-6,21,-51
1523207888571845,-56,-18,-63,-11,0,-2,6,-30
1523207888571845,4,4,19,2,2,-1,-21,43
1523207888580866,-3,2,22,-3,-4,-2,-29,-26
1523207888580866,-7,13,-45,-29,-1,-1,19,-26
1523207888595908,2,1,-21,6,0,5,-20,5
1523207888595908,-8,-13,-2,22,-2,-2,8,-7
1523207888597912,-36,-6,-34,-2,-4,-7,-24,47
1523207888597912,56,12,13,1,0,2,-38,-115
1523207888619001,-13,2,4,8,4,-4,23,9
1523207888619001,-15,-11,-31,-19,-5,-1,0,-20
1523207888620093,39,13,10,-6,-5,7,6,43
1523207888620093,-16,-9,1,-4,-2,-4,2,-58
1523207888632002,-16,-16,-22,9,3,4,17,41
1523207888632002,39,13,-8,-21,-5,-7,-32,-18
1523207888641028,-10,-38,-58,35,1,-4,4,-26
1523207888641028,-18,7,1,-18,-1,11,1,46
1523207888656070,-3,5,37,5,-2,-4,-9,-39
1523207888656070,-18,-29,13,-2,1,-3,22,-15
1523207888658073,19,4,33,-11,1,0,-13,-23
1523207888658073,19,19,8,-7,2,2,-36,44
1523207888679127,-20,-15,-11,-5,-7,-8,28,9
1523207888679127,13,26,11,7,3,2,-37,-29
1523207888680130,-27,-9,13,-9,-3,-3,33,-52
1523207888680130,6,-7,-10,31,-3,-9,-1,-10
1523207888692161,13,2,-40,-1,-3,3,-4,27
1523207888692161,-18,-3,-10,-3,3,8,20,64
1523207888701184,19,-2,31,-15,-2,-2,2,47
1523207888701184,-22,2,-76,-16,0,0,4,-57
1523207888716227,8,-1,-1,5,-1,-1,6,60
1523207888716227,-15,-17,16,1,-2,-3,-34,-54
1523207888718230,10,32,11,-6,-2,-2,29,-49
1523207888718230,-12,-37,-11,1,0,2,13,22
1523207888738285,1,-17,29,-10,-1,-1,-9,-12
1523207888738285,-29,12,4,27,0,-1,-20,12
1523207888740289,-16,7,41,-13,0,-2,-3,-32
1523207888740289,-1,-7,-6,12,-6,-7,-1,89
1523207888752562,19,23,45,-13,2,5,-2,-81
1523207888752562,-14,1,-26,-8,0,-6,-14,-28
1523207888761345,18,4,15,10,2,-2,20,21
1523207888761345,-13,-10,3,7,1,0,22,25
1523207888783404,12,31,-65,-2,-4,-9,-43,-2
1523207888783404,-30,-24,-24,-6,-5,-1,17,-59
1523207888785411,31,15,-9,2,2,4,-13,37
1523207888785411,4,20,56,-12,-1,-5,-1,-47
1523207888798682,-11,-10,39,14,0,-1,-2,6
1523207888798682,20,10,-28,-5,-2,0,4,6
1523207888800450,53,-21,-39,-4,1,5,24,7
1523207888800450,-25,-6,80,3,1,4,-11,14
1523207888821504,4,-7,1,-7,-3,-3,22,100
1523207888821504,6,24,16,4,-2,-4,-8,-80
1523207888822513,7,12,15,-2,0,4,2,107
1523207888822513,-8,-15,-37,-21,-5,-10,14,-39
1523207888836761,-14,-29,53,1,1,1,-11,0
1523207888836761,35,14,20,8,1,4,17,51
1523207888837546,-17,10,15,14,-4,-6,-9,26
1523207888837546,-16,-7,-26,-17,0,-7,-43,5
1523207888859607,-31,-4,17,24,3,1,59,-80
1523207888859607,55,8,13,-14,1,2,0,12
1523207888860609,-10,8,-2,-7,-2,1,-38,-35
1523207888860609,-24,-25,-8,-15,-3,-1,-6,85
1523207888880701,77,-7,-39,8,-4,2,-7,-66
1523207888880701,-20,12,44,5,0,9,-1,38
1523207888882667,1,0,-26,0,-2,-9,-5,2
1523207888882667,-13,5,27,-3,-1,3,-7,-18
1523207888896762,-8,4,-73,-5,-1,-3,20,-31
1523207888896762,7,-28,16,20,-1,-2,4,14
1523207888897708,-19,-1,54,-4,4,5,-26,-11
1523207888897708,26,9,-19,3,1,2,51,-18
1523207888918764,-30,-9,-39,-13,-2,2,4,95
1523207888918764,-27,4,26,-24,-8,-15,-33,-104
1523207888920832,17,-9,-98,4,-2,-4,2,54
1523207888920832,7,-20,36,4,-1,2,-17,-17
1523207888940822,15,11,-18,7,0,7,-7,44
1523207888940822,-5,-4,-35,-28,-2,-6,37,49
1523207888942827,19,1,72,7,-4,0,26,-26
1523207888942827,-20,-8,-31,9,0,2,-26,-65
1523207888955863,-15,-10,11,-18,-5,-3,5,4
1523207888955863,21,-4,-5,4,-1,-3,-4,47
1523207888961918,-38,-2,32,-10,-1,-1,1,-42
1523207888961918,26,17,-15,5,0,1,4,49
1523207888978925,-11,-18,32,-5,-2,-2,-18,-23
1523207888978925,-9,0,-21,4,-4,-12,3,-19
1523207888979927,-64,-18,-6,-4,0,-5,8,-34
1523207888979927,-18,-1,5,9,-3,-5,-8,53
1523207889001220,14,23,25,-9,-2,-2,-27,-67
1523207889001220,7,9,16,-4,0,3,1,57
1523207889002987,11,-16,-95,2,-4,-2,-6,22
1523207889002987,0,-11,34,-25,-2,-1,7,-46
1523207889015019,54,8,-22,32,-2,-5,-36,13
1523207889015019,-47,-5,43,15,3,-4,18,-25
1523207889022042,-2,4,29,-3,4,3,-16,-25
1523207889022042,16,7,22,-16,-4,-2,3,20
1523207889039189,21,4,-53,-19,-1,3,2,3
1523207889039189,0,14,-15,4,-7,1,-29,-5
1523207889040088,24,-3,-17,9,2,-5,-2,4
1523207889040088,1,5,-42,-9,-5,-5,-11,-44
1523207889061149,-108,-18,56,4,1,2,47,-43
1523207889061149,19,-1,-26,-8,-4,-1,-15,42
1523207889063148,-6,5,-3,5,-3,4,-8,1
1523207889063148,38,13,-23,16,6,3,59,65
1523207889075179,5,28,28,-14,0,-3,-26,7
1523207889075179,-19,-10,-74,-12,2,6,13,-30
1523207889082197,2,-9,26,9,-5,-2,-8,14
1523207889082197,-7,-6,12,3,-1,-4,-30,-14
1523207889099282,-8,-10,-7,-3,2,-13,-32,-11
1523207889099282,21,14,14,0,-1,2,22,-18
1523207889100245,25,10,-51,-5,-1,2,6,92
1523207889100245,27,-12,26,3,-3,2,-64,-52
1523207889121301,-109,-23,69,-10,-1,-5,63,-3
1523207889121301,22,12,-35,1,2,0,-11,25
1523207889122311,-3,8,73,16,-3,-3,-11,18
1523207889122311,17,-6,1,-9,-2,3,-3,48
1523207889135339,30,7,13,-4,-2,-16,14,-20
1523207889135339,-25,-14,42,14,0,-1,-29,-10
1523207889142359,-12,-38,-38,-33,-5,-3,26,-110
1523207889142359,-65,8,-11,25,1,1,8,15
1523207889158400,49,18,-4,8,4,12,4,55
1523207889158400,-10,-39,-22,4,-1,2,-19,50
1523207889160405,-12,-5,-10,-11,0,-18,25,-48
1523207889160405,-16,-15,29,0,-2,-4,-13,-15
1523207889181463,21,-1,-69,-25,-3,7,12,32
1523207889181463,46,13,18,34,4,9,-2,41
1523207889182464,-8,1,-17,-19,-5,4,3,-41
1523207889182464,9,6,5,2,-4,-6,25,-32
1523207889195500,-1,8,12,10,2,8,-1,51
1523207889195500,9,-8,-43,-18,2,0,-9,21
1523207889202753,-13,-7,-7,9,-2,-4,-23,-1
1523207889202753,-18,6,1,-10,-3,6,44,-77
1523207889218796,20,-10,-7,7,-1,-4,-27,82
1523207889218796,-4,8,-43,5,-1,-2,18,-84
1523207889220565,-8,-2,8,-1,2,4,-9,-7
1523207889220565,-21,-36,26,7,7,6,16,84
1523207889240618,13,10,49,8,-5,-2,-11,-30
1523207889240618,-37,-22,-36,-20,0,1,46,-41
1523207889242625,48,24,70,21,0,4,-14,39
1523207889242625,-50,4,-54,-15,-2,-6,-4,-18
1523207889255659,-28,-18,-7,-9,-2,-5,-10,-89
1523207889255659,7,-5,64,12,-2,-3,2,44
1523207889262677,-5,5,-12,2,2,2,-17,-9
1523207889262677,37,15,-27,-16,-4,-1,16,-3
1523207889278720,45,7,-12,-12,-2,-3,-38,41
1523207889278720,-39,11,-12,21,-4,-5,6,-31
1523207889280725,-4,-39,-50,-1,2,3,-7,99
1523207889280725,-11,4,-7,2,-6,-8,9,-98
1523207889300781,33,19,7,-19,-2,-3,-2,44
1523207889300781,1,-21,37,-22,-5,-3,-4,23
1523207889302784,-7,15,48,27,2,-3,-35,-1
1523207889302784,55,15,-6,10,7,8,14,24
1523207889314818,-110,-18,-67,-30,-2,-1,-5,-27
1523207889314818,17,16,127,27,0,-4,-31,28
1523207889323843,-5,0,-27,-3,-3,-1,18,-29
1523207889323843,40,18,8,-10,-4,-3,-16,9
1523207889338885,-45,-39,-8,6,1,4,22,9
1523207889338885,27,12,2,-23,-5,-23,-54,-57
1523207889339882,-19,-3,-17,-14,-3,0,6,-62
1523207889339882,29,4,5,18,0,1,-15,41
1523207889360938,26,21,30,-11,2,5,7,26
1523207889360938,-22,-29,-71,17,0,4,14,-1
1523207889362944,15,7,6,8,-1,-1,-4,97
1523207889362944,-13,-14,-15,-11,-3,2,12,-20
1523207889374975,27,10,1,12,2,2,3,16
1523207889374975,-56,18,57,-33,-5,2,-3,28
1523207889384000,-8,-24,-55,15,-7,-6,11,-8
1523207889384000,-44,-29,-76,-3,-2,-5,-15,-56
1523207889399039,-53,-26,24,15,-3,-5,-26,-51
1523207889399039,40,17,-24,-36,2,4,-9,-40
1523207889400042,-4,33,5,-21,-5,4,13,40
1523207889400042,-14,-1,-17,41,2,-6,0,14
1523207889421101,10,-6,22,11,-5,0,13,-33
1523207889421101,12,0,-52,-1,4,-1,1,11
1523207889423104,5,4,10,-38,3,10,51,19
1523207889423104,-7,-8,72,-8,-3,-2,-18,7
1523207889435135,10,-5,-64,55,-7,-15,-30,-25
1523207889435135,23,14,34,3,7,7,7,30
1523207889444170,78,15,-3,-15,-5,0,19,49
1523207889444170,-10,14,29,-11,-1,-5,-21,15
1523207889458197,-9,-34,-2,-3,7,5,-3,28
1523207889458197,3,-7,-11,16,-5,-2,30,-43
1523207889460203,-16,17,55,-3,-3,-3,-14,12
1523207889460203,8,-13,7,-9,3,8,39,70
1523207889481258,22,24,18,-37,-2,7,15,44
1523207889481258,3,17,-42,6,-5,-6,-19,-60
1523207889482262,2,20,65,49,5,-5,-52,-5
1523207889482262,12,3,-8,17,-2,-1,-1,7
1523207889495298,-39,-33,26,-23,-7,-5,7,-73
1523207889495298,22,-2,-36,-28,-1,1,-11,105
1523207889504322,-60,-21,-43,-5,-5,-9,-29,-128
1523207889504322,-5,19,30,-5,-2,-1,-1,99
1523207889518357,60,16,-31,13,3,5,-11,-9
1523207889518357,4,-4,33,-21,-3,-4,21,66
1523207889520362,-82,-35,-10,6,-5,-2,-12,-74
1523207889520362,-16,1,-9,1,2,1,-7,-7
1523207889541419,27,3,-34,-21,-3,-2,2,18
1523207889541419,-38,-15,76,41,-1,2,4,-51
1523207889542426,31,14,-4,-4,1,2,43,62
1523207889542426,13,4,-21,-18,0,-6,-19,-8
1523207889554467,-27,-8,-14,-2,-5,-8,25,21
1523207889554467,2,26,12,3,-1,-3,-39,-21
1523207889563479,13,-23,-26,5,6,5,5,53
1523207889563479,3,11,-6,-10,1,0,-44,-36
1523207889578522,30,28,38,3,2,4,32,54
1523207889578522,-1,-38,-30,-21,-9,-7,1,-24
1523207889580524,2,18,18,17,2,-2,-3,24
1523207889580524,-9,-9,9,13,-2,-3,8,-44
1523207889601578,-19,10,-12,-7,2,0,-12,-18
1523207889601578,13,-6,-38,6,3,3,7,-9
1523207889602580,7,3,-1,-35,-3,0,20,-21
1523207889602580,9,3,9,0,2,3,17,66
1523207889614620,0,4,0,1,-3,-2,-22,21
1523207889614620,-36,-29,-20,13,-4,-5,-2,-42
1523207889623635,4,-3,-20,-4,2,-2,-43,27
1523207889623635,-10,-1,-15,-7,-6,-2,4,-28
1523207889638677,10,0,5,2,-1,1,15,3
1523207889638677,-8,10,7,-13,-1,4,3,28
1523207889640681,-5,-4,10,-3,-3,-4,-11,-45
1523207889640681,25,-1,4,7,0,4,-5,68
1523207889660737,-15,-6,43,5,2,7,23,-95
1523207889660737,-4,-18,-44,-27,-2,-4,58,75
1523207889662744,11,6,37,19,-1,-10,-42,-86
1523207889662744,9,21,18,31,5,4,38,-18
1523207889674772,-2,2,45,16,1,-5,-20,82
1523207889674772,-18,0,-34,-4,-1,-1,-25,-52
1523207889683797,15,4,-14,-25,-2,0,19,42
1523207889683797,-4,0,44,-16,-2,0,-24,15
1523207889699074,2,-14,-40,7,-1,-3,-21,19
1523207889699074,-3,1,21,18,3,2,5,8
1523207889700917,-12,1,-6,-15,-1,6,4,13
1523207889700917,-13,-14,-32,0,-3,-5,-11,-20
1523207889720901,-4,14,-2,9,-1,-6,-15,-36
1523207889720901,17,9,-10,2,1,5,1,13
1523207889722900,-20,-12,2,-12,0,-1,19,61
1523207889722900,16,-17,37,20,-3,0,1,-39
1523207889743957,-101,-4,-31,7,-5,-6,-45,-52
1523207889743957,26,-14,-6,-8,2,-2,5,-10
1523207889745062,8,-3,12,10,-5,-10,-16,-11
1523207889745062,11,6,-16,-18,0,-1,-27,17
1523207889759036,26,-4,-36,-6,0,4,28,-2
1523207889759036,-22,28,56,-3,-1,-1,-14,-8
1523207889759999,-10,6,-2,9,3,9,20,57
1523207889759999,-1,-6,-2,-12,0,-4,-20,2
1523207889781095,24,13,-6,8,-2,-6,3,26
1523207889781095,-1,-7,-35,0,-3,-2,-13,-21
1523207889783062,-12,-21,-4,-13,-5,-4,15,-40
1523207889783062,-16,3,-39,-18,0,0,17,-25
1523207889804118,11,11,24,13,5,9,3,24
1523207889804118,7,-11,46,46,0,-4,24,32
1523207889805119,-4,12,-31,-11,-3,-10,-21,-59
1523207889805119,48,-3,4,-17,0,1,-5,32
1523207889819258,-44,-4,-85,-12,1,0,21,-75
1523207889819258,-24,8,61,-8,-4,-1,-17,24
1523207889820158,11,2,1,18,0,-1,-5,-35
1523207889820158,6,6,-64,-5,-1,-1,-13,5
1523207889841215,66,21,7,-13,-1,3,25,58
1523207889841215,-20,-16,-3,-17,-7,4,-41,16
1523207889843220,-40,-46,41,37,1,-16,24,-40
1523207889843220,-9,25,14,-7,-3,-2,21,26
1523207889863274,-1,-3,15,-6,2,2,1,-32
1523207889863274,7,7,-29,7,-1,0,11,-9
1523207889865279,36,22,-10,-16,0,2,-17,56
1523207889865279,-30,-24,-2,3,1,6,0,16
1523207889878314,-9,-19,19,22,-8,-14,-34,-73
1523207889878314,-27,6,31,-9,3,6,24,13
1523207889885438,11,14,-10,-9,1,-9,-6,27
1523207889885438,-12,-19,-24,-4,-7,-8,-3,-29
1523207889901613,0,5,0,-47,-1,11,-15,-45
1523207889901613,-19,-37,-6,17,-5,-16,-49,-70
1523207889903449,63,18,2,33,2,0,3,43
1523207889903449,-51,33,-16,-16,-9,0,5,57
1523207889923434,21,-7,27,-7,4,2,25,53
1523207889923434,29,7,-61,-22,-1,6,26,58
1523207889925447,-20,-2,-17,-11,1,1,-40,-82
1523207889925447,23,23,12,9,-1,-6,17,24
1523207889937470,17,-4,14,0,-3,-5,9,66
1523207889937470,-10,9,-2,18,5,-3,-17,-102
1523207889944501,-9,-12,-36,-8,-5,-1,-32,41
1523207889944501,18,1,50,13,6,8,51,-48
1523207889961533,-82,-28,-23,1,-1,-9,-12,54
1523207889961533,4,-6,-19,-26,-8,-7,-6,11
1523207889962537,11,13,-12,-29,1,8,-5,-35
1523207889962537,-8,-56,49,26,-9,-9,-10,-20
1523207889983832,92,17,23,37,6,10,6,49
1523207889983832,-3,12,-28,-18,0,-10,-9,-47
1523207889985599,-22,-8,-6,-18,-2,2,4,-24
1523207889985599,-35,-36,8,14,5,4,-9,-29
1523207889998652,18,-4,0,-1,-7,-14,-22,-40
1523207889998652,2,19,18,-8,-4,1,4,26
1523207890004650,6,-6,3,-13,4,11,28,53
1523207890004650,-16,-11,7,16,2,-7,-14,-63
1523207890021773,-33,5,10,0,-3,-8,-6,-45
1523207890021773,26,33,0,2,-2,3,25,87
1523207890022696,-49,-5,27,-20,-4,-6,-35,-72
1523207890022696,8,-8,-32,7,-1,3,18,55
1523207890043966,1,5,38,4,6,1,3,30
1523207890043966,9,-3,-55,-5,0,0,-11,-32
1523207890045811,-30,-7,14,23,-1,-1,8,67
1523207890045811,-13,-16,16,-8,2,5,-33,-41
1523207890057790,-6,17,-4,-10,-9,-8,-14,-38
1523207890057790,-2,-19,-36,-3,1,5,26,-3
1523207890064810,21,3,39,6,3,-1,19,61
1523207890064810,34,23,-15,-10,-6,-3,1,-16
1523207890080853,-27,-37,19,3,-1,-3,-14,-27
1523207890080853,22,-10,22,-1,-2,-3,-22,-65
1523207890082857,-19,-1,-28,4,-3,-5,29,-43
1523207890082857,16,10,-28,-26,-8,-6,-4,123
1523207890103913,10,1,-26,7,-1,2,-49,-36
1523207890103913,4,-6,31,5,5,1,25,30
1523207890104915,30,-1,-13,-11,-4,-2,-20,10
1523207890104915,22,17,19,1,6,3,6,-28
1523207890118189,-75,-18,-30,-16,-6,-5,-2,-19
1523207890118189,-46,-22,1,11,-2,-8,-19,-49
1523207890124968,7,17,45,-2,1,3,24,41
1523207890124968,29,-11,-14,10,0,0,25,-27
1523207890141011,-1,-4,-90,-6,-3,7,-2,58
1523207890141011,3,11,30,22,5,0,-12,-61
1523207890143016,28,-10,10,-8,-5,0,14,84
1523207890143016,4,18,-30,-20,-2,-1,17,-51
1523207890164074,7,-15,20,10,6,11,17,47
1523207890164074,-31,-15,-4,-16,-4,-4,20,9
1523207890165075,4,1,-14,25,-2,-7,-33,-13
1523207890165075,-8,14,-8,-1,0,-1,-5,3
1523207890178111,-13,17,-7,-4,-1,1,4,70
1523207890178111,-3,-9,6,-23,-5,-5,-15,34
1523207890185128,-10,1,-27,-10,1,-3,22,-36
1523207890185128,-43,0,17,33,-1,-6,-36,-83
1523207890201406,12,-16,0,1,2,-3,17,31
1523207890201406,19,10,0,-2,-2,1,-6,56
1523207890203175,3,11,-9,-15,-3,0,-6,-28
1523207890203175,19,8,4,-19,-6,0,-3,22
1523207890223230,56,-5,-9,23,2,-2,19,29
1523207890223230,-51,-21,26,14,0,-2,-32,-67
1523207890225235,1,0,-6,-7,-1,2,2,-68
1523207890225235,-4,-38,41,-18,0,-5,-5,20
1523207890237268,24,18,4,-15,-6,-5,-20,4
1523207890237268,17,0,20,25,4,9,33,66
1523207890246289,1,-6,-14,10,5,8,3,-8
1523207890246289,-14,-19,15,4,-6,-7,-17,-62
1523207890261373,-46,-5,-2,-28,-7,-10,-9,-101
1523207890261373,50,18,-1,21,3,5,18,57
1523207890262333,-12,-15,-15,-2,-2,1,10,40
1523207890262333,12,16,-9,6,3,14,-6,87
1523207890283390,-8,-1,-9,-12,-2,-8,-7,-116
1523207890283390,5,2,-13,4,2,2,12,33
1523207890285394,17,0,27,-10,-2,-3,-1,-2
1523207890285394,31,12,-10,4,-1,-2,3,49
1523207890297662,-21,2,25,13,0,7,-11,-20
1523207890297662,5,0,-14,-16,0,-4,20,6
1523207890306450,1,-32,20,15,0,2,11,17
1523207890306450,-8,4,-28,-22,0,1,8,53
1523207890321492,13,15,54,-7,3,1,-31,-25
1523207890321492,-18,-13,-21,4,-6,-3,37,-103
1523207890322493,38,7,19,5,-2,-3,-15,30
1523207890322493,-9,1,2,-8,-2,-3,8,-29
1523207890343554,9,-19,-10,-5,-1,3,50,29
1523207890343554,-30,7,63,-7,-5,1,-28,33
1523207890345555,-1,11,-34,-6,3,1,14,-36
1523207890345555,-9,-4,-39,15,-2,-2,1,2
1523207890357587,22,19,-7,-20,-3,-3,-26,86
1523207890357587,-4,-7,5,17,-2,-5,-11,-75
1523207890366611,-10,-2,-11,-1,-3,2,23,111
1523207890366611,-27,6,4,0,1,-7,-35,-123
1523207890380648,1,4,-14,-7,-3,-2,-5,39
1523207890380648,27,6,-4,-19,-4,-1,1,55
1523207890382653,-8,4,1,-10,1,-2,-12,-23
1523207890382653,15,-2,-74,34,0,-3,-3,56
1523207890403717,-89,-25,19,9,-3,-6,26,-31
1523207890403717,-11,-20,6,-3,4,-2,-20,-47
1523207890404713,-9,8,7,0,-2,-3,2,-18
1523207890404713,14,2,9,-15,1,3,7,46
1523207890417746,13,0,6,6,0,2,13,-40
1523207890417746,-16,6,-9,2,-1,-1,-32,16
1523207890426771,-21,-1,-6,-11,-5,-3,8,-19
1523207890426771,-28,-2,35,17,-5,-8,-29,22
1523207890440811,8,-39,-90,-7,-9,-6,-10,-69
1523207890440811,8,7,14,-18,3,0,15,38
1523207890447907,12,-10,23,6,-1,-3,-6,-14
1523207890447907,-10,-6,24,-4,-1,1,-2,55
1523207890463869,20,19,13,5,1,2,-5,-42
1523207890463869,56,-14,-30,-15,-1,0,-23,13
1523207890464911,-3,-17,9,40,0,3,34,27
1523207890464911,7,-4,-27,-16,-2,-4,4,10
1523207890476904,18,6,23,-24,0,7,0,49
1523207890476904,-57,-14,-43,7,-4,2,7,-45
1523207890486145,-36,-4,27,1,-5,-7,-17,69
1523207890486145,-1,-9,21,-6,0,1,30,-52
1523207890501206,26,14,2,6,3,2,9,7
1523207890501206,27,24,67,-11,0,12,33,34
1523207890502975,-10,-9,-41,-6,-6,-5,7,-44
1523207890502975,-10,-3,-41,-8,4,-2,-32,29
1523207890524030,-7,-6,70,14,-1,-4,-4,10
1523207890524030,-22,-6,-34,15,1,-5,-21,-40
1523207890525032,35,15,-7,-8,3,1,-33,-95
1523207890525032,71,13,9,-20,-2,0,20,20
1523207890537071,11,14,12,-4,1,1,2,44
1523207890537071,-6,-12,-37,8,-3,-7,-38,16
1523207890546135,8,-9,7,-4,-2,2,-1,40
1523207890546135,6,12,-8,-12,1,3,-15,-98
1523207890561128,-15,-3,16,10,0,1,22,13
1523207890561128,19,14,-5,4,3,0,-8,6
1523207890563134,30,10,4,-15,-3,-1,-11,62
1523207890563134,-42,0,7,11,3,17,5,-60
1523207890584187,-24,-7,-7,-2,-1,-13,-20,-52
1523207890584187,-8,-12,0,-12,-3,-8,37,-25
1523207890585192,-7,3,-10,6,3,2,-38,-21
1523207890585192,-4,-2,19,-3,-2,7,39,63
1523207890597461,26,7,-13,-7,-3,1,5,-10
1523207890597461,16,4,24,25,2,-1,7,99
1523207890606247,-23,-18,-20,-6,0,4,-26,-68
1523207890606247,37,-1,22,0,-3,-12,21,44
1523207890621333,-5,-5,-33,-5,-2,0,-13,-56
1523207890621333,-6,1,1,3,-4,-7,-40,-26
1523207890622290,-59,10,16,-7,0,6,62,54
1523207890622290,38,15,-15,-18,-3,-11,-17,70
1523207890643347,-21,-19,19,44,-6,-7,-10,-54
1523207890643347,-13,4,78,-9,1,-1,1,-19
1523207890645351,-8,-23,-1,-4,-4,-5,-12,-52
1523207890645351,-5,8,41,8,-2,-2,8,20
1523207890657383,0,11,-29,-23,-1,3,-31,40
1523207890657383,-10,-30,45,6,-3,-5,96,-22
1523207890666409,20,13,-16,-5,0,-5,-31,17
1523207890666409,-29,-8,-5,4,-2,0,-12,-75
1523207890681487,-2,-3,0,-2,-3,-11,-11,-27
1523207890681487,9,13,-30,-3,1,4,-23,45
1523207890682450,12,-1,-28,-2,-7,0,9,-9
1523207890682450,-15,-20,9,7,0,-1,7,19
1523207890703510,-7,13,14,-9,5,0,-8,-15
1523207890703510,-40,-15,-30,5,-6,-9,-20,16
1523207890705511,18,5,-14,-9,-2,-9,-6,27
1523207890705511,-28,-20,-52,-11,-2,8,-34,-36
1523207890726572,8,-2,-20,-2,3,3,93,18
1523207890726572,64,18,6,-22,1,-1,-33,58
1523207890727569,-28,1,61,19,1,0,-25,-71
1523207890727569,-19,-7,-56,9,-4,-3,-12,-21
1523207890741607,21,-8,25,13,5,4,-9,51
1523207890741607,-4,39,-31,-18,-1,2,-15,1
1523207890742609,-1,-3,-55,-6,1,-4,9,9
1523207890742609,-2,-21,5,13,0,1,-11,-30
1523207890763668,3,-6,-25,-5,-6,-6,-16,19
1523207890763668,30,5,-1,9,3,7,18,30
1523207890765673,4,2,-19,-33,-5,3,-20,-29
1523207890765673,-12,12,1,-14,0,4,43,-16
1523207890785962,-8,-1,15,27,3,-1,0,-22
1523207890785962,8,-12,29,4,-1,2,-1,75
1523207890787730,17,9,-2,-10,-1,6,15,-47
1523207890787730,-2,-20,22,4,1,1,-3,40
1523207890801805,33,-2,31,0,-4,3,12,91
1523207890801805,-11,-13,-72,-10,-6,-1,19,-65
1523207890802769,-16,9,28,26,4,-8,5,-1
1523207890802769,-2,-1,25,-10,-2,-7,2,49
1523207890823826,-3,5,-36,-11,2,8,20,-22
1523207890823826,2,2,15,-11,-2,-1,-9,-38
1523207890824828,-36,-43,-37,21,0,-5,-1,64
1523207890824828,-21,2,-12,-5,-10,-15,-23,-118
1523207890846122,33,14,90,-8,4,0,26,59
1523207890846122,-83,-13,-8,10,-5,2,-9,-13
1523207890847889,5,-11,19,-2,0,2,-12,-16
1523207890847889,18,8,28,2,3,-9,5,22
1523207890860925,-20,-4,18,0,-3,2,-3,-45
1523207890860925,49,50,-3,-1,1,-1,11,46
1523207890866940,-3,0,2,-1,-2,1,27,10
1523207890866940,-8,5,-12,12,-1,-4,-34,7
1523207890883986,-23,-15,-24,9,-2,1,30,-38
1523207890883986,-12,-12,46,-20,-2,-2,-12,-10
1523207890884988,-54,-1,-46,3,-3,-4,6,-5
1523207890884988,35,20,2,-8,0,2,2,48
1523207890906045,1,-6,-9,3,-5,-13,-15,-1
1523207890906045,12,0,23,1,1,2,15,30
1523207890908051,109,15,1,-15,3,6,-5,41
1523207890908051,-92,-20,-31,6,1,3,17,-67
1523207890920083,13,-7,-2,2,-5,-9,-53,-8
1523207890920083,-4,-1,-17,-8,-4,1,23,-47
1523207890927101,15,19,31,0,-7,-9,-10,25
1523207890927101,22,1,19,-4,2,-2,-26,10
1523207890944282,-9,-14,8,-1,3,6,-4,-2
1523207890944282,9,-11,-40,-11,-3,-7,-10,-13
1523207890945148,-7,-5,15,16,3,2,6,-58
1523207890945148,37,0,12,-1,1,10,27,57
1523207890966442,-78,4,-3,-26,-8,-4,10,-6
1523207890966442,7,-6,10,25,-1,-5,-14,-66
1523207890968210,-32,1,-11,-19,-2,-3,-25,1
1523207890968210,0,-5,18,26,-4,-8,1,73
1523207890980240,110,-4,-52,-7,2,11,42,74
1523207890980240,-9,1,-6,-7,-1,-2,6,-6
1523207890987262,-7,18,8,-16,1,2,-16,-59
1523207890987262,-11,-4,-26,11,-3,-14,8,44
1523207891003309,6,-18,66,13,0,0,-17,-46
1523207891003309,5,-17,42,3,2,1,-38,62
1523207891005308,5,6,-33,-3,-1,6,50,-18
1523207891005308,-6,-20,17,-27,3,8,-4,-15
1523207891026364,15,22,-26,1,0,1,0,22
1523207891026364,-9,-1,-16,7,3,-2,-14,5
1523207891027368,-8,-8,9,3,0,-5,3,0
1523207891027368,-9,12,42,17,-1,2,7,-48
1523207891040402,13,-4,-34,-13,-3,0,-11,81
1523207891040402,-9,5,-21,-7,-1,2,-38,-107
1523207891047655,-5,-12,1,19,1,-7,23,46
1523207891047655,11,-15,-15,-15,-4,-5,-12,-2
1523207891063464,44,17,18,9,2,2,-10,-1
1523207891063464,-57,-2,-12,-16,1,2,32,-8
1523207891065468,-14,-15,53,3,-5,-2,-13,5
1523207891065468,9,-4,-79,4,1,6,-1,16
1523207891086525,-4,11,72,-15,-4,-7,-7,-41
1523207891086525,-9,-13,18,7,-8,-9,-24,31
1523207891087525,11,9,28,6,3,0,31,22
1523207891087525,-15,-7,-46,-15,-6,-1,2,59
1523207891100799,-57,-17,-37,9,-2,-10,-53,-76
1523207891100799,33,7,-11,-8,1,7,36,56
1523207891107579,4,15,18,18,6,2,7,20
1523207891107579,26,10,28,-16,-7,-11,-3,1
1523207891123623,31,-28,-77,-18,-6,-1,-6,16
1523207891123623,-11,0,12,21,3,-4,8,-34
1523207891125630,14,3,-50,-6,-3,-1,-21,-9
1523207891125630,9,21,9,1,2,4,7,18
1523207891146783,-9,12,23,4,-4,-2,4,-18
1523207891146783,18,1,-12,-4,1,-4,27,-29
1523207891147685,22,-7,18,-9,0,-3,-15,57
1523207891147685,-54,4,27,-4,-1,-1,-9,-102
1523207891160721,-22,-4,36,20,-2,-6,-32,127
1523207891160721,0,-4,-54,-4,-4,-3,28,-69
1523207891167905,-14,-8,-22,-6,-4,-5,-53,12
1523207891167905,14,2,11,-1,-1,-3,36,-56
1523207891184022,-11,17,-4,-11,7,4,-6,-12
1523207891184022,-16,0,10,1,0,7,-16,20
1523207891185787,36,0,-9,-10,-7,-10,11,-28
1523207891185787,14,16,14,18,-4,-2,-8,26
1523207891205842,56,1,5,-17,3,4,21,-9
1523207891205842,-29,-12,-72,-20,-8,2,-42,46
1523207891207845,-10,24,27,6,1,-5,1,-95
1523207891207845,-3,-41,-1,-11,1,4,1,22
1523207891219880,48,22,24,21,1,6,42,-30
1523207891219880,4,-22,-46,-12,0,-5,0,66
1523207891228905,14,19,12,11,-3,6,-27,12
1523207891228905,-16,9,68,1,3,-4,21,-45
1523207891244177,-24,-6,-103,6,0,1,4,3
1523207891244177,24,14,39,1,-2,-5,-6,-29
1523207891245955,-22,-13,-27,-17,1,10,25,55
1523207891245955,39,12,18,3,3,2,9,-7
1523207891266038,-88,1,8,-19,-4,7,46,16
1523207891266038,7,26,38,13,1,-4,-23,-7
1523207891268043,49,-13,17,9,4,4,-20,76
1523207891268043,-55,-16,-11,-2,-1,-2,-32,-128
1523207891280037,-12,-6,15,-6,1,0,-18,23
1523207891280037,0,-9,16,-3,-5,0,23,66
1523207891289064,-24,-19,-76,-2,-5,-4,-5,-44
1523207891289064,41,22,-1,7,1,3,-14,127
1523207891304102,-20,-8,25,-2,-2,-11,-32,-78
1523207891304102,5,-13,35,0,3,1,22,-20
1523207891305104,-14,-6,16,-17,-7,-1,-17,-53
1523207891305104,-4,11,-24,15,-2,4,39,-33
1523207891326164,13,-3,-80,4,-3,-9,-19,55
1523207891326164,9,0,23,-19,-1,-2,9,40
1523207891328165,-48,-9,73,2,3,7,10,-34
1523207891328165,-13,-15,-40,-22,-2,-8,-43,-46
1523207891340197,-16,12,47,26,3,-2,-23,-37
1523207891340197,-33,-14,-18,-29,-6,6,8,63
1523207891349222,-1,-3,6,25,-1,-10,10,-20
1523207891349222,-39,-24,15,4,-3,-3,-7,45
1523207891364272,14,0,-19,-12,-3,-1,-18,-39
1523207891364272,47,18,-26,8,-3,-11,-15,35
1523207891365265,10,7,-29,-2,4,4,11,17
1523207891365265,10,2,-8,3,-2,1,4,-37
1523207891386319,-58,-19,26,-10,-2,-1,7,-34
1523207891386319,9,5,-6,5,-4,-10,-26,-21
1523207891387327,1,-5,-34,-28,-4,0,8,7
1523207891387327,27,14,-55,29,5,2,22,33
1523207891400392,-7,5,-45,-17,-3,2,26,27
1523207891400392,23,-27,26,-16,-4,3,-2,-2
1523207891408417,-25,-3,-2,22,-4,-9,-14,125
1523207891408417,4,6,8,-17,2,-2,-7,-71
1523207891423418,0,7,-4,-2,-4,-1,4,55
1523207891423418,-39,-8,18,26,3,2,4,9
1523207891425424,17,-1,0,-7,1,2,-3,-35
1523207891425424,24,17,4,-13,-4,-1,-29,48
1523207891446716,-7,-15,-6,-1,0,0,19,-25
1523207891446716,17,16,54,11,5,5,0,-14
1523207891448484,-4,-10,9,32,-7,-5,2,-39
1523207891448484,-27,-16,-68,-37,-13,-15,-11,-23
1523207891459515,21,22,48,12,4,5,-6,37
1523207891459515,-1,7,-30,-2,4,-9,-27,-5
1523207891468637,22,-1,-25,4,4,0,-8,-10
1523207891468637,-80,-2,-42,-7,-3,6,23,32
1523207891483817,12,-23,-4,-1,-1,-3,-3,68
1523207891483817,-4,-13,-44,-18,-6,2,1,-62
1523207891485585,-12,2,30,9,4,4,2,-1
1523207891485585,47,2,36,10,4,9,-25,92
1523207891505637,6,2,-54,-17,-7,-9,56,-93
1523207891505637,-13,-1,-12,16,4,1,-36,-44
1523207891507642,7,12,27,-20,-3,-5,-3,-35
1523207891507642,14,3,37,-2,-7,0,6,-10
1523207891519680,-10,-11,25,32,-3,-11,-29,-13
1523207891519680,14,2,3,-7,2,-6,-20,33
1523207891528699,-17,37,38,-15,-4,4,50,-27
1523207891528699,117,6,27,7,-1,-4,-1,52
1523207891543976,-56,-18,17,-4,2,2,-39,-32
1523207891543976,25,-1,-61,15,2,5,35,16
1523207891545844,-1,-12,19,-37,-3,-1,-38,54
1523207891545844,14,6,47,36,1,-1,36,-16
1523207891565797,26,1,18,-3,1,3,14,96
1523207891565797,-32,-14,-43,-2,-7,-2,-1,-32
1523207891567802,17,3,-12,-8,2,-6,-18,7
1523207891567802,-24,2,-40,-16,2,3,-21,20
1523207891579833,-9,-26,22,17,-5,1,17,-59
1523207891579833,0,11,44,28,-1,-6,28,69
1523207891588858,-6,-2,-19,-3,1,6,9,10
1523207891588858,-19,16,39,-5,0,-4,-9,0
1523207891603943,60,6,-25,-16,-5,-1,-8,78
1523207891603943,-30,1,44,-7,2,4,3,-49
1523207891604901,11,-8,4,1,-1,-3,8,32
1523207891604901,-16,-6,12,6,-3,-1,17,7
1523207891625958,-15,-13,8,3,0,1,-26,-78
1523207891625958,33,11,-72,-20,-5,1,-9,-6
1523207891627963,-3,-15,-2,25,-3,-4,8,64
1523207891627963,-17,-8,21,-19,0,-2,-13,-4
1523207891649230,11,7,9,-1,1,-1,1,-14
1523207891649230,0,-1,4,-16,-1,3,1,-36
1523207891650020,-39,-16,17,0,-2,-11,9,-83
1523207891650020,-3,-11,-40,15,-2,-12,-47,-7
1523207891671078,-4,16,2,3,2,6,67,45
1523207891671078,-50,12,48,-19,0,6,8,-2
1523207891673082,39,-15,-37,4,-7,4,-15,18
1523207891673082,-60,-7,8,-7,-4,-6,1,1
1523207891686118,-18,-29,16,-3,1,-1,-11,-42
1523207891686118,17,3,23,6,2,-5,22,44
1523207891688122,16,-2,-24,-18,1,8,27,-6
1523207891688122,-10,2,21,33,1,5,-1,-13
1523207891708178,-5,6,-53,-12,-3,-3,-35,11
1523207891708178,1,0,-8,5,-1,0,14,-44
1523207891710181,-3,40,26,-1,5,10,9,5
1523207891710181,8,-16,-25,-14,-1,1,1,16
1523207891723214,-3,12,-7,-10,-1,-3,0,35
1523207891723214,25,2,29,20,0,2,-28,22
1523207891725221,25,8,-26,6,0,-2,12,18
1523207891725221,29,1,14,-26,-2,1,8,-89
1523207891746515,0,0,-30,8,-2,-6,-5,41
