timestamp,emg1,emg2,emg3,emg4,emg5,emg6,emg7,emg8
50823711625,9,-2,3,46,9,-3,27,18
50823711625,11,0,-2,0,2,3,-6,-14
50823712344,-1,2,0,1,-2,-1,-19,-3
50823712344,-13,-5,-6,-25,-5,-1,8,25
50823713141,0,-1,-7,-16,0,-4,-17,-8
50823713141,14,3,2,24,-3,-4,-6,-18
50823714004,-28,-5,2,14,1,1,14,52
50823714004,-3,-4,-3,-3,-3,-1,-6,-43
50823725311,4,1,1,-13,-6,-1,-1,-7
50823725311,2,2,-2,-7,3,3,4,-16
50823734503,14,3,-1,-4,0,3,40,16
50823734503,10,-2,-2,7,0,-3,7,11
50823739576,-29,-4,-2,-11,0,-2,-4,-21
50823739576,13,-1,-3,-1,-5,-3,41,5
50823754609,1,-4,2,12,2,-1,4,39
50823754609,-6,-3,1,3,1,-1,-10,7
50823763967,9,1,0,1,-2,2,0,-28
50823763967,7,-2,-2,-15,1,0,-9,52
50823769605,-46,-3,-5,-20,-7,-5,-25,-56
50823769605,5,2,5,26,4,0,1,2
50823785398,5,-1,2,3,3,5,58,44
50823785398,-3,-2,-2,9,3,-2,-8,-2
50823793341,17,0,-1,-5,-6,1,11,-19
50823793341,12,4,2,-9,11,5,-41,-17
50823832855,0,-2,-4,-3,-5,-4,21,46
50823832855,-10,-1,-2,-4,2,-2,11,-8
50823833661,9,-1,-5,2,-4,-2,-17,0
50823833661,15,1,-1,-3,-2,0,8,39
50823834469,-28,-4,0,5,0,-1,-8,-99
50823834469,4,-1,-2,-3,1,-2,-1,9
50823836954,11,0,-4,2,-1,-8,-26,19
50823836954,17,3,-3,-25,-8,3,14,0
50823845245,-28,-4,-4,11,7,4,-3,-18
50823845245,-9,-6,0,3,-5,0,21,7
50823851982,-5,-2,0,11,7,-1,7,-11
50823851982,7,-1,-6,4,-7,-5,-17,4
50823859549,22,5,3,-11,8,4,11,25
50823859549,-5,-3,-11,-18,-7,-7,-4,-12
50823874437,5,0,3,0,-3,2,23,3
50823874437,-17,-4,0,4,1,-5,-14,6
50823882709,3,2,1,-2,-5,-3,-45,7
50823882709,3,0,0,1,0,4,14,1
50823889588,3,1,-2,-36,3,3,-27,30
50823889588,-3,-3,-6,30,10,-4,22,-37
50823905211,15,1,2,20,-17,2,25,23
50823905211,-4,-2,1,0,18,7,-8,31
50823912096,-26,-4,1,-9,-17,-3,12,-46
50823912096,-7,0,3,-27,-14,3,4,39
50823919590,14,3,0,0,26,-3,-6,-29
50823919590,22,-4,5,43,1,-6,-19,27
50823934592,-12,-1,0,-4,-7,-2,-18,-25
50823934592,-16,-2,3,-11,3,2,0,-9
50823942774,7,2,4,7,-5,0,22,20
50823942774,7,2,-4,-24,-10,0,7,-28
50823949501,-1,-1,-5,14,8,-5,-23,-23
50823949501,-8,-8,-8,18,-3,-3,18,-19
50823965306,-24,-2,-3,-9,-5,-2,6,-6
50823965306,0,-5,-6,4,-8,-10,-34,-17
50823972029,10,3,4,-8,-10,5,76,31
50823972029,13,3,0,-6,16,6,1,40
50823979505,2,-6,-7,-12,-3,0,-3,10
50823979505,-24,1,1,4,-26,-8,-9,-60
50823994456,8,3,2,-6,25,0,-1,-11
50823994456,-9,-5,-1,2,-13,-2,-3,0
50824002383,7,-2,4,19,1,-7,-15,-11
50824002383,23,6,5,-4,10,19,53,36
50824010860,-25,-3,-2,7,5,1,-2,-10
50824010860,-36,-5,2,-5,-2,-2,-10,1
50824025305,7,-1,-12,-30,-9,-6,-20,37
50824025305,12,4,-1,-16,-5,-6,-3,-4
50824032081,-6,-8,1,42,-1,1,2,-9
50824032081,17,3,-2,-13,10,0,16,-13
50824039600,-4,-1,-2,-6,-7,0,14,-28
50824039600,-2,0,16,74,9,-3,-36,10
50824054530,3,-4,-16,-29,-7,9,-40,11
50824054530,7,1,3,5,-1,-1,6,-21
50824062641,15,-1,-2,-26,-6,-1,-11,26
50824062641,-6,3,-1,-22,9,0,2,-49
50824069484,14,-3,5,20,-7,-4,-2,17
50824069484,-13,-8,-12,-3,-9,-9,-28,-38
50824085232,4,-2,1,-6,-2,4,49,28
50824085232,1,2,-9,-28,13,2,13,12
50824092022,11,-6,1,24,-4,-8,-2,-1
50824092022,17,8,2,-23,-6,6,7,29
50824099544,-5,-3,-1,24,0,-1,-16,-15
50824099544,-11,-3,3,0,1,3,3,14
50824114369,2,6,-1,-19,0,2,-9,0
50824114369,6,2,1,19,6,-7,-9,-5
50824122675,-2,-3,-2,-4,-6,-7,-10,-34
50824122675,-32,-5,-2,-17,-6,-2,-73,-23
50824137098,1,-2,-3,-7,-16,6,48,35
50824137098,11,0,5,15,20,5,15,-5
50824145962,2,3,4,5,1,3,-7,26
50824145962,13,-6,-10,-16,-6,-9,-5,20
50824152054,-31,-2,0,-16,-5,-10,-4,-31
50824152054,4,1,6,12,-12,0,-10,-9
50824168362,0,-3,-8,-2,12,3,5,19
50824168362,1,-4,-4,-1,1,-3,11,14
50824174480,-14,-3,0,8,7,-3,-10,-15
50824174480,0,0,0,-3,-5,-2,-65,-39
50824183394,-9,1,0,-1,-2,5,16,-8
50824183394,3,2,0,-6,-7,0,3,19
50824196936,17,1,-5,-6,4,-1,4,17
50824196936,-15,-5,-4,2,-5,-5,-12,-35
50824205866,-1,2,0,-12,-9,-1,2,30
50824205866,-18,-3,0,5,1,-1,3,-51
50824211923,-7,1,1,-13,-7,-2,-2,-3
50824211923,-19,-3,1,37,19,3,23,-1
50824228372,16,1,-2,-47,-5,0,-39,-27
50824228372,4,2,-7,-12,-6,1,64,11
50824234415,-14,-7,2,26,9,-4,-8,-1
50824234415,6,-1,-1,-8,-4,-5,1,13
50824243365,-8,0,2,16,-4,0,53,-2
50824243365,19,2,5,18,14,1,-1,2
50824256932,-1,-2,-7,-23,-29,-2,-2,1
50824256932,-18,0,-1,-5,21,19,4,0
50824265858,-1,1,3,2,6,-4,-22,-18
50824265858,4,-2,0,14,-7,0,-4,15
50824272073,13,1,0,-10,5,-5,-3,29
50824272073,0,-3,0,-3,-14,-10,-19,14
50824288422,-2,-6,-2,39,7,2,-10,-70
50824288422,-2,1,4,1,4,2,18,50
50824294431,16,5,4,-1,-6,-1,-12,-15
50824294431,-5,-1,-6,-55,-14,-3,54,-22
50824303430,-2,0,2,7,-2,-3,-23,-11
50824303430,11,-2,4,39,11,5,7,-3
50824317045,-18,-1,-1,-4,7,2,6,8
50824317045,-4,-4,-2,5,-5,-2,-6,-13
50824325978,1,-3,-6,-15,-3,-4,-6,34
50824325978,-10,0,-4,-34,-17,-3,13,-8
50824332078,13,2,0,12,17,10,9,29
50824332078,13,2,0,3,4,1,20,5
50824348513,12,1,3,13,-1,-2,11,16
50824348513,-33,-4,-8,-36,-7,-7,-36,-33
50824354597,-36,-10,0,16,-2,-9,-15,-35
50824354597,6,4,6,5,-14,8,-1,29
50824363465,-2,0,0,20,31,6,-23,12
50824363465,19,-2,3,13,-3,-4,-9,18
50824377070,11,1,-2,-14,-7,-1,20,4
50824377070,-1,-3,-1,8,5,-4,-9,-3
50824385933,9,5,2,-30,-22,-4,-11,20
50824385933,-5,-3,-5,-5,13,11,38,15
50824391942,-37,-3,3,13,8,-4,-11,-30
50824391942,9,-6,-5,-5,-5,-6,-19,19
50824408552,1,0,2,-7,-5,-2,18,0
50824408552,24,1,0,5,-6,-4,-36,21
50824414392,-10,0,-5,-12,-6,-2,7,-3
50824414392,2,3,1,-3,1,-7,-1,-4
50824423416,-8,-5,-7,-9,-9,-7,33,26
50824423416,1,-2,2,7,10,10,11,-5
50824436888,18,-2,3,27,8,-1,-1,-18
50824436888,6,1,-2,-21,-10,1,-27,3
50824445883,-21,-8,-10,-3,-1,1,-17,-22
50824445883,-7,2,-1,-27,14,2,-9,-8
50824451908,13,3,-5,7,-2,2,-18,33
50824451908,1,-6,-2,13,-5,-11,4,2
50824468445,22,3,7,14,-9,-1,9,-3
50824468445,-38,-4,-6,-38,-13,-1,4,-17
50824474521,-4,1,-4,-3,4,1,-6,-21
50824474521,-10,-4,0,45,8,-8,-22,-14
50824483392,1,-4,-4,-11,-3,-2,34,51
50824483392,1,0,-1,9,-9,-5,-16,-21
50824497143,15,4,1,-27,-6,1,14,12
50824497143,5,0,-3,-20,-4,7,33,-20
50824505936,-13,-1,1,9,6,-1,-14,-50
50824505936,-5,-3,-2,18,-1,-8,-31,9
50824512014,3,-2,-1,-1,-10,-5,19,7
50824512014,6,1,-7,-18,-5,5,-10,5
50824528378,1,4,2,8,7,1,-34,-14
50824528378,-5,-4,0,8,3,6,7,-21
50824534484,5,-3,-8,-21,-5,-3,-18,-21
50824534484,-21,1,2,25,3,1,-5,-56
50824543455,-4,-6,-2,-13,-1,-4,7,23
50824543455,15,0,-5,0,-7,-7,-5,5
50824556917,-4,0,-3,-1,-5,-4,-2,22
50824556917,0,2,-1,-17,3,1,4,-2
50824565892,2,-1,-2,-2,-3,-1,-4,2
50824565892,21,3,2,7,-3,-2,-7,4
50824571927,-24,-4,2,9,0,0,-5,-16
50824571927,-14,-2,-4,-32,-3,-3,-102,-31
50824588394,-7,-4,-3,30,11,0,34,25
50824588394,-2,-3,-4,4,-14,-9,2,-6
50824594524,31,7,4,0,21,13,12,9
50824594524,26,1,-2,-15,-8,-3,-10,41
50824603415,-45,-4,-2,5,-1,1,-27,-42
50824603415,-6,-1,4,15,3,-1,10,-4
50824616992,7,-1,0,8,-4,-1,4,-4
50824616992,12,2,1,-17,-2,1,25,17
50824625934,14,2,-3,-42,-6,2,-9,40
50824625934,-39,-5,0,47,13,4,7,-30
50824631991,-8,-2,3,29,3,-4,-22,-20
50824631991,-1,0,5,16,6,3,20,51
50824646991,2,-4,-6,-9,-8,-8,28,-13
50824646991,22,8,-1,-34,-11,2,43,26
50824654413,1,-5,-3,-23,-5,-2,-7,-19
50824654413,-46,-3,2,31,6,0,7,-13
50824663461,9,0,-5,-14,-2,-4,31,-14
50824663461,19,1,3,6,-8,-3,-19,24
50824677023,13,0,1,15,10,-1,4,69
50824677023,6,0,0,1,0,2,20,-5
50824685904,6,1,3,17,0,3,-37,-46
50824685904,-2,-3,-3,1,0,0,0,-1
50824691921,3,0,3,9,-5,-5,-19,-1
50824691921,-8,-5,-4,-9,0,-3,-1,9
50824707031,4,3,4,4,-1,0,-14,2
50824707031,11,1,1,-3,4,0,3,23
50824714529,-2,1,-14,-67,-9,3,-18,-1
50824714529,16,-3,2,11,-4,-5,-2,6
50824723419,19,0,2,21,2,0,-14,12
50824723419,-68,-10,-3,0,-3,-6,-30,-18
50824736913,-4,0,4,10,-7,-5,28,-4
50824736913,-1,0,-13,-39,-15,2,-11,-4
50824745885,23,-1,7,44,13,0,-7,33
50824745885,-29,-2,3,-2,-4,-3,-15,-35
50824751889,-16,1,1,0,-8,5,-5,-39
50824751889,22,2,2,-10,0,1,-6,3
50824766935,-56,-8,-11,-34,-13,-3,0,-11
50824766935,26,3,-1,24,13,3,13,13
50824774515,9,-3,6,31,3,-2,9,-12
50824774515,7,-3,-10,-9,-1,-2,25,19
50824783342,2,1,-1,-15,2,0,-8,-14
50824783342,8,1,-7,-31,-20,-4,-21,-11
50824796881,9,0,1,17,15,2,9,21
50824796881,-21,-9,-6,8,-3,-5,30,9
50824805966,-5,-3,-5,-43,3,3,47,-5
50824805966,23,2,1,17,-3,-4,-4,-2
50824820267,19,-1,5,34,-3,-3,2,19
50824820267,-51,-4,-2,-4,6,2,-26,-68
50824827161,-9,-4,-4,-13,-3,-6,-24,0
50824827161,-2,-1,-4,-24,-9,3,13,-2
50824843315,16,3,-2,-32,3,-1,-12,-41
50824843315,11,0,5,51,-3,-1,47,60
50824844888,-3,1,4,5,8,5,15,2
50824844888,-2,-6,-12,-32,-12,-3,2,-26
50824856920,-44,-7,-9,-33,-10,-2,-2,-3
50824856920,-2,-4,0,5,3,-10,-31,-14
50824865872,8,3,8,49,1,1,-28,-32
50824865872,16,4,0,-4,3,-3,-1,48
50824880131,20,1,-6,-13,-4,-2,4,-12
50824880131,-35,-3,-2,-14,-5,-2,4,-21
50824886830,5,4,3,19,4,1,-9,-12
50824886830,13,2,4,-11,-2,0,-5,-11
50824902409,-24,-1,-6,-40,-4,4,16,8
50824902409,16,-5,2,69,10,-4,-18,7
50824910834,-17,-8,-2,-14,-5,-2,42,29
50824910834,13,3,2,5,-5,3,10,1
50824917025,-7,-4,0,-11,-3,1,25,-13
50824917025,22,7,4,-8,2,2,10,-5
50824925911,5,-5,-9,-8,-6,-6,-63,64
50824925911,-30,-2,0,12,7,-2,6,-60
50824940159,8,0,-2,-2,-2,1,17,46
50824940159,13,1,-2,-23,-5,-3,-12,-4
50824946975,-11,-5,-3,2,-12,-5,-21,-33
50824946975,22,0,-2,-9,14,6,18,6
50824963312,-14,-5,4,55,4,-2,-26,-28
50824963312,-2,-2,-8,-36,-4,1,-7,-5
50824964871,7,5,0,-18,-2,-3,-18,33
50824964871,15,-3,6,43,3,-4,-4,-8
50824977077,-16,-2,-8,-10,2,-4,14,-9
50824977077,5,0,0,5,-3,1,2,12
50824985927,-38,-4,-5,-31,0,1,-13,-36
50824985927,-1,0,-5,-16,-4,1,-5,32
50825000131,16,2,4,25,3,1,-17,9
50825000131,16,11,6,-8,-7,4,-7,-23
50825014343,9,-4,-1,25,19,4,6,-26
50825014343,-59,-9,-1,-8,-5,-9,-20,-5
50825023321,11,2,1,-3,1,-2,11,7
50825023321,6,-1,-3,-10,0,-1,-7,-5
50825024840,2,3,2,12,-7,-1,-6,-7
50825024840,21,1,-2,-16,-1,-4,0,-16
50825037008,-22,-1,0,-10,-1,-1,-8,1
50825037008,10,-3,-3,5,-2,4,12,19
50825045869,23,4,7,36,12,2,15,22
50825045869,-5,-1,0,4,1,-2,-12,-17
50825060236,-48,-6,-4,-17,-5,-3,-23,-35
50825060236,9,2,-2,-13,3,0,22,17
50825067028,8,-2,-2,-17,-14,0,39,-5
50825067028,10,0,-1,25,6,4,6,39
50825083391,19,3,5,23,0,-2,-8,-16
50825083391,-3,-4,-2,0,12,4,10,-7
50825084847,-20,-7,-11,-47,-7,-4,4,-22
50825084847,13,1,4,1,0,1,3,5
50825097062,9,0,-4,-15,-5,-3,-11,-22
50825097062,-12,-2,0,14,-3,-4,-4,21
50825105863,10,3,4,7,-4,0,-8,-7
50825105863,-5,-4,-11,-41,1,0,-13,-41
50825120689,-38,-5,-1,14,4,-1,-1,24
50825120689,3,0,2,6,-3,-5,-46,0
50825126900,5,2,0,1,1,1,45,-24
50825126900,3,0,-3,-13,-10,-3,-14,41
50825143214,7,-1,-3,3,-5,-5,3,-31
50825143214,-9,-4,1,21,3,0,13,22
50825144830,-7,-3,-6,-17,-2,-1,-25,-8
50825144830,12,0,2,16,5,0,6,-2
50825156828,26,3,-2,-27,-3,0,3,27
50825156828,2,-4,-7,-9,-20,-8,-22,-13
50825165880,-5,-3,-3,9,15,7,-3,24
50825165880,-14,-3,3,0,-1,0,9,-6
50825180093,8,-1,-2,6,-3,-1,-6,6
50825180093,12,4,1,-12,3,-2,-36,2
50825186921,19,0,-4,5,-6,-2,19,10
50825186921,-18,-1,0,0,-3,-1,16,23
50825203365,1,-3,-3,-1,1,-4,-4,-5
50825203365,-6,-1,1,-4,3,2,36,-5
50825205005,15,2,0,-11,-8,0,10,30
50825205005,8,1,5,45,3,0,-16,-2
50825217051,-10,-3,-1,-6,0,-1,5,-25
50825217051,-3,-4,-4,4,-4,-9,-13,-58
50825225900,-5,-7,-5,-10,-17,-4,28,0
50825225900,-38,-5,-1,10,24,14,-13,-40
50825240250,18,3,5,18,-1,-1,-27,13
50825240250,-1,0,-3,-9,-4,1,0,-46
50825247012,1,1,2,0,0,-5,-7,29
50825247012,11,0,-5,-20,-14,-3,0,14
50825263251,-8,-5,-6,-17,0,-2,-33,-44
50825263251,-9,1,6,15,5,0,-13,6
50825264840,1,4,-3,-46,-12,1,0,18
50825264840,13,-2,-4,14,3,-3,3,-5
50825276977,-2,-5,1,48,5,-2,-11,23
50825276977,-2,-2,0,-6,-3,-4,12,35
50825285923,-6,2,2,-28,-5,-3,-26,-60
50825285923,-31,-2,2,31,-12,-1,4,34
50825300247,15,0,-2,-26,26,9,-17,-6
50825300247,-54,-9,-1,38,4,-2,17,-30
50825307037,10,1,-3,-36,-1,-3,5,14
50825307037,12,0,-12,-42,-8,-7,-10,-32
50825323379,16,3,0,0,-7,4,20,38
50825323379,2,-3,1,3,-5,1,7,8
50825325015,-18,-2,6,18,5,-2,-33,-42
50825325015,6,0,5,-4,1,2,13,12
50825337032,25,2,2,22,3,-2,20,-4
50825337032,18,-4,-2,-23,-3,0,8,35
50825345826,-60,-4,0,36,7,3,-17,-29
50825345826,18,-1,0,-19,-6,-3,22,2
50825360119,1,5,1,-27,-8,1,22,30
50825360119,14,0,-3,-5,-1,-6,24,3
50825367145,8,-4,1,46,1,-4,-4,-7
50825367145,-22,-1,4,9,18,2,-9,-41
50825382785,2,0,-8,-17,-14,0,6,49
50825382785,1,-2,-6,-8,3,2,-37,34
50825389600,10,0,1,9,0,-3,7,-2
50825389600,23,3,0,-34,-9,-1,-20,18
50825397090,-26,-9,-5,42,-4,-9,-1,-30
50825397090,-54,-5,-1,-17,-1,0,-1,-24
50825405837,9,1,-1,18,-3,1,3,-11
50825405837,12,1,1,2,-1,-5,-30,-5
50825420270,11,1,6,-2,-2,-3,-1,16
50825420270,14,6,0,9,-10,13,17,-2
50825426986,-3,-2,-2,-29,16,4,-7,-1
50825426986,-20,-4,-3,4,-9,-6,-12,9
50825442736,6,-1,-2,-8,-2,-1,42,17
50825442736,8,1,5,2,-7,-3,8,-13
50825449525,8,0,0,6,-6,-4,-8,-5
50825449525,6,-4,-8,-12,-7,-6,-4,19
50825456900,-47,-4,0,-7,-1,3,-14,-40
50825456900,12,0,1,15,12,3,9,17
50825465900,12,5,0,-10,-5,0,48,41
50825465900,3,-2,-1,30,3,1,14,-27
50825480318,-21,-4,-13,-57,-13,-1,-11,-22
50825480318,20,-2,5,51,13,-3,-19,1
50825486825,-27,-3,-2,5,-2,-5,-10,-14
50825486825,-2,0,2,-9,4,9,10,1
50825502664,7,3,3,-11,-3,-3,-9,-8
50825502664,20,2,-6,-33,-9,-2,31,4
50825509608,-41,-7,-3,-1,-12,-6,-1,-21
50825509608,5,1,5,26,23,10,11,20
50825517037,-19,-6,-10,-18,-1,-2,33,0
50825517037,11,2,3,1,-1,0,-4,-7
50825525875,8,0,0,6,-4,-5,-12,-5
50825525875,-11,-1,-4,-28,-10,1,13,-12
50825540129,10,-1,1,35,0,-6,-29,10
50825540129,5,0,-3,-6,0,-7,-13,5
50825546925,-6,-5,-7,-16,-4,0,11,4
50825546925,10,4,4,-3,-1,-1,-6,24
50825562662,34,7,7,22,13,7,-31,3
50825562662,-30,-7,-7,-14,-9,-6,-58,-14
50825569534,17,4,2,-6,3,5,-4,16
50825569534,3,-7,-14,-15,-12,-11,1,-18
50825585831,-13,-2,5,11,-8,-2,14,-10
50825585831,9,2,1,28,4,3,5,2
50825587325,11,-1,0,-2,5,0,-14,44
50825587325,-12,0,-2,-12,-9,-5,-7,-4
50825600063,14,-1,-5,-5,3,0,1,-5
50825600063,8,1,1,-17,-12,-4,-8,4
50825606867,-28,-5,-11,-18,-2,3,14,-12
50825606867,11,0,5,11,2,-2,-55,4
50825622566,-14,-5,-5,-3,-2,1,57,35
50825622566,2,0,6,14,0,-4,25,10
50825629601,25,0,2,22,5,-1,-10,5
50825629601,-32,-4,-4,-26,-10,-2,-9,-16
50825645838,-3,-3,0,3,3,-3,-16,-12
50825645838,-9,-3,-1,-11,4,1,11,-4
50825647274,27,3,-5,-13,1,-3,16,4
50825647274,5,-2,-2,26,-2,-1,15,40
50825660060,-15,3,9,17,-10,-1,-15,-48
50825660060,9,1,-5,-22,6,7,15,5
50825674517,-15,-5,2,3,-6,-7,-79,-39
50825674517,9,4,2,-25,0,4,22,-32
50825682712,1,-2,0,9,3,0,-3,-1
50825682712,-10,-2,-4,-14,-3,-3,-16,23
50825689501,9,-3,2,25,1,-3,8,11
50825689501,0,0,0,-3,-7,-4,6,19
50825705900,18,-2,-1,3,2,-1,-11,45
50825705900,-17,-2,-5,-6,8,8,-18,-22
50825707290,13,3,5,2,5,4,13,17
50825707290,-10,-4,-6,-16,-4,-2,-10,8
50825720230,12,1,5,23,3,-5,-2,12
50825720230,21,0,-4,-16,-3,0,1,27
50825726894,-26,-8,-3,-3,-7,-7,-8,-31
50825726894,-70,-6,-2,-7,-5,-3,7,-67
50825742677,-1,-3,1,22,6,2,-18,6
50825742677,6,1,2,25,1,-3,10,-6
50825749565,26,3,-1,-2,-3,-2,19,43
50825749565,24,2,2,1,1,3,-31,-5
50825765920,-17,1,-7,-45,-2,2,18,-1
50825765920,-16,-5,-6,-13,-5,-4,-18,-4
50825767305,-3,0,-1,14,-2,-1,27,-24
50825767305,6,-6,3,31,8,-3,4,10
50825780088,3,0,-2,-6,-8,-5,-20,-25
50825780088,11,0,-2,-20,-4,-4,11,8
50825787107,5,3,0,-5,0,2,-22,27
50825787107,0,-1,-5,0,-1,-2,11,-14
50825802588,-58,-11,-6,-25,-7,-7,-18,-48
50825802588,-9,-1,0,9,-6,-3,17,24
50825809552,-3,-5,-1,-6,-3,-5,-5,-10
50825809552,21,4,1,16,5,6,19,-4
50825825709,24,3,0,5,0,-2,19,26
50825825709,-5,-2,-8,-23,-7,-4,-3,-7
50825827332,-7,-2,5,33,-1,-1,1,6
50825827332,-8,-4,-1,-26,4,1,-4,-5
50825840058,8,0,-2,3,-2,-3,22,11
50825840058,7,7,3,-27,0,4,10,-17
50825848341,13,2,-1,6,5,4,5,-15
50825848341,-15,-6,3,43,4,-8,-3,-27
50825862655,16,3,2,-5,4,7,1,-9
50825862655,-11,-3,-1,2,3,-3,9,-18
50825869495,14,-1,-2,-17,-5,0,8,27
50825869495,-16,1,-6,-35,-12,7,-2,-8
50825885816,4,-3,4,36,10,-1,-34,45
50825885816,11,0,1,8,0,-3,7,-32
50825887329,-3,-3,-2,-9,-1,-5,-16,-15
50825887329,9,1,-2,11,-9,-9,5,27
50825900247,9,4,3,-11,2,8,-6,6
50825900247,-1,1,1,1,7,5,-31,3
50825907040,2,-1,1,6,-3,-1,14,-13
50825907040,-30,-7,-4,-5,-1,-7,-3,27
50825922721,8,1,-1,-22,-4,-2,35,-7
50825922721,-3,0,4,21,-1,-6,-53,-10
50825929397,12,1,-2,-6,2,4,32,35
50825929397,8,-2,4,18,5,4,-7,1
50825944956,-22,-4,-4,-17,-6,3,-11,-31
50825944956,-13,-4,-5,-16,-3,-3,-18,-4
50825953350,-4,0,0,5,-3,-5,-46,-22
50825953350,20,1,1,-2,3,-3,-3,18
50825960249,-4,-5,-3,26,-8,-4,0,30
50825960249,-5,-6,-4,-12,-1,0,26,-13
50825966919,-3,2,0,-1,4,2,6,14
50825966919,-15,-2,-1,0,-9,-2,8,-17
50825982731,5,3,-2,-11,6,3,-32,-38
50825982731,5,-5,-3,4,-7,0,28,25
50825989487,-45,-7,-4,-2,4,-3,-13,-37
50825989487,2,-1,-2,-6,-2,-4,3,3
50826005725,19,4,-3,-57,-22,-2,2,-7
50826005725,-8,-3,-2,38,14,0,5,-15
50826007346,0,-6,0,35,0,-4,4,11
50826007346,14,2,1,-8,4,5,16,-6
50826020179,-1,3,-1,-6,-1,-2,17,16
50826020179,5,1,-1,-26,-13,1,-12,-25
50826027029,-23,-2,-3,-13,-2,-4,-16,-33
50826027029,5,-3,-4,-2,-5,-6,-11,-4
50826042646,4,-2,0,16,-3,-4,14,-9
50826042646,14,3,0,-15,3,6,10,28
50826049411,3,3,-2,10,5,3,18,12
50826049411,2,-4,2,15,1,-4,-52,-47
50826065643,-13,-6,-5,-14,0,0,67,52
50826065643,14,-2,1,10,-8,-2,-6,6
50826067266,-1,1,-3,-25,7,3,-1,0
50826067266,-7,-3,-5,-34,-3,1,4,-12
50826079310,-9,-2,4,53,13,-3,3,-13
50826079310,-11,-2,0,14,-1,-3,0,0
50826088287,18,2,1,-22,-4,1,10,18
50826088287,6,-3,-6,-15,-4,-5,30,23
50826102513,15,2,-2,-6,-2,-1,-34,-5
50826102513,3,4,3,-12,5,10,27,-9
50826109334,-27,-8,-6,13,4,-5,-46,-20
50826109334,-7,-1,1,3,-3,-5,13,1
50826125667,13,-1,-5,-7,-14,1,-22,-17
50826125667,-12,0,0,8,10,-4,-24,2
50826127298,18,2,-2,-21,-8,-1,-16,20
50826127298,10,0,3,45,12,-2,24,34
50826139326,-25,-8,0,6,1,-3,-16,-18
50826139326,1,-4,-3,-3,-3,-4,13,13
50826148312,12,4,3,7,0,3,-10,4
50826148312,28,2,-3,-26,-19,-6,-7,16
50826162473,-52,-4,-6,-36,3,4,-2,-27
50826162473,-13,-7,-2,23,0,-5,-3,8
50826169316,-18,-5,1,19,1,-4,-2,-16
50826169316,27,6,1,-4,3,6,11,-9
50826185630,24,2,-1,2,-3,-6,11,52
50826185630,-30,-4,-5,-41,-6,-4,-23,-45
50826187249,-5,-1,-5,5,-3,0,64,-26
50826187249,-6,1,7,32,4,6,-61,-14
50826199308,13,2,-2,-14,5,-2,19,-21
50826199308,19,4,-2,-28,-8,1,18,37
50826208291,-7,-4,-13,-30,-6,0,-13,4
50826208291,-60,-10,0,20,3,-6,-17,-56
50826222206,-1,0,3,0,-1,1,-5,21
50826222206,20,3,2,14,6,4,-7,-4
50826230832,12,3,4,-22,-6,0,-4,0
50826230832,2,-2,-4,-13,-1,1,20,16
50826245693,-7,-2,0,7,0,-6,-39,-30
50826245693,-12,0,1,3,-3,-3,15,-32
50826247294,18,2,2,0,-4,6,-5,45
50826247294,-12,0,3,5,-3,-2,-2,10
50826259314,24,2,0,3,11,6,7,14
50826259314,14,-5,-4,-20,-14,-6,-31,-27
50826268357,-37,-9,-1,17,3,-7,42,12
50826268357,17,1,2,35,4,-3,19,24
50826282500,-8,-2,-2,-8,-13,-4,6,-20
50826282500,14,2,1,0,-1,1,-9,-10
50826289295,14,2,2,-6,-1,5,-10,12
50826289295,-6,-1,-10,-49,-1,0,1,-1
50826305628,-13,-5,3,40,2,-8,-15,-21
50826305628,-5,-2,-2,-4,-3,-9,-30,7
50826307270,-1,-2,1,17,-11,3,17,15
50826307270,3,2,-1,-13,16,10,20,4
50826319319,24,1,1,4,7,2,-14,12
50826319319,-48,-7,-3,12,-6,-2,-9,-11
50826328276,2,2,2,-6,-5,-10,-15,-11
50826328276,24,-2,-7,-14,-9,-2,-14,37
50826342525,-17,-1,-3,-16,-5,-5,5,-29
50826342525,-14,-3,0,10,1,0,32,-1
50826349307,16,1,4,12,8,5,-10,28
50826349307,-8,2,-2,-8,-3,-1,32,-30
50826365016,11,-3,-3,-10,-6,-3,-20,47
50826365016,-15,-2,1,29,4,-3,5,-7
50826371811,12,-4,0,-5,3,-3,-6,13
50826371811,-2,0,2,5,2,4,-17,-46
50826379292,10,4,0,-9,-6,3,12,12
50826379292,7,-2,-11,-19,1,-2,6,27
50826388351,-8,-1,-2,-2,-5,-6,-19,-11
50826388351,16,1,4,-16,-5,3,11,45
50826402526,-18,-4,-8,-22,-10,0,0,-50
50826402526,21,2,-1,1,5,0,-1,2
50826409307,7,-3,5,43,12,3,-49,-6
50826409307,-16,-2,-3,-3,-6,-6,8,37
50826425031,17,0,-3,-14,-3,0,-2,-12
50826425031,-73,-6,-2,-12,-5,-8,-9,-32
50826431927,-2,1,-3,-16,-3,0,-14,-27
50826431927,12,3,2,9,4,3,-5,-34
50826439480,12,3,0,11,4,3,-19,24
50826439480,-7,-2,2,-6,1,3,35,9
50826448377,4,-2,-3,4,-8,-1,42,32
50826448377,-30,-5,-5,-33,-14,-1,2,-39
50826462677,5,-2,-3,33,7,-1,22,2
50826462677,18,0,6,35,7,0,-29,21
50826469498,-1,4,-1,-16,-3,1,-4,-30
50826469498,22,-1,-2,-3,2,-1,1,41
50826485229,-36,-7,-1,-9,-4,-3,1,-52
50826485229,15,3,0,2,-2,0,0,34
50826491991,0,-1,-1,-9,0,1,48,-1
50826491991,-5,-1,1,13,-5,-3,-17,8
50826508241,17,4,1,-2,3,1,33,-17
50826508241,17,-1,-1,-5,-2,2,17,24
50826509797,-13,3,-1,-6,-1,0,-13,-23
50826509797,-12,-8,-3,-3,-2,-4,-11,2
50826522659,-15,-7,-1,25,3,-7,-1,41
50826522659,29,6,3,-7,-2,-2,7,-10
50826529498,-14,-3,-4,-18,-5,-1,-10,29
50826529498,-6,1,5,19,11,7,-8,-38
50826545051,-11,1,-5,-52,-6,3,-14,-1
50826545051,6,-3,4,61,6,-6,-26,-14
50826552029,17,3,1,3,4,-2,7,-15
50826552029,15,0,-3,-6,-7,-6,42,64
50826568381,-16,-5,0,-6,-2,-4,-28,-10
50826568381,-6,2,-2,-29,-8,-1,8,7
50826569834,13,-1,0,5,0,4,-2,6
50826569834,-4,0,4,34,5,1,19,5
50826582719,14,0,0,3,0,0,18,49
50826582719,-11,-4,-3,-29,-11,-4,-24,6
50826589541,-62,-9,-6,-16,-7,-5,9,-74
50826589541,8,4,-1,1,6,5,28,7
50826605185,19,1,-1,25,4,-4,-12,4
50826605185,12,-4,2,9,-12,-3,0,9
50826612018,-37,-1,-2,-3,12,4,-23,-45
50826612018,2,-1,-2,-9,-3,-1,-28,-11
50826628217,0,-1,0,-4,-3,2,37,25
50826628217,13,3,-1,-1,2,0,2,-19
50826629803,17,1,-4,-24,-15,-7,9,21
50826629803,0,-5,-4,0,-1,-5,-42,-22
50826642549,-49,-7,9,61,10,0,7,-48
50826642549,24,1,-7,-24,2,3,5,20
50826649488,-9,-9,-3,5,-4,-11,-18,-27
50826649488,-25,1,0,-5,2,-2,-34,-29
50826665112,27,6,-1,-34,-11,0,-25,37
50826665112,15,4,-5,-38,4,2,10,20
50826672054,-23,-10,2,53,5,-2,-6,-17
50826672054,-17,-6,-3,2,-6,-8,-7,6
50826688375,1,3,-2,-14,-5,5,15,-4
50826688375,-4,0,-2,-1,1,2,8,14
50826689823,44,5,5,6,1,0,18,16
50826689823,1,-1,1,2,3,5,6,8
50826702567,-7,-2,-2,-15,-10,-9,6,-21
50826702567,9,-1,-2,-4,-1,7,3,-11
50826709532,-2,3,1,3,4,3,7,24
50826709532,-5,-6,-2,12,5,2,10,-3
50826725203,-10,-1,2,11,6,0,-4,-16
50826725203,-1,0,0,5,-3,-2,-50,-18
50826731840,7,1,-3,-14,-7,-2,-8,15
50826731840,12,-1,-6,-34,-1,-6,-36,-11
50826748360,-36,-4,-6,-20,-7,-1,17,59
50826748360,-2,-2,7,38,7,-3,-5,-12
50826749797,-18,-3,-2,-15,-5,-3,-18,-35
50826749797,2,0,-3,-28,-21,0,22,-9
50826762658,15,-1,1,40,17,-2,-26,-9
50826762658,-28,-4,2,22,-1,-3,29,0
50826769484,33,7,-1,-21,2,2,2,-20
50826769484,2,-2,-4,-11,-5,1,-4,9
50826785232,-18,-2,-4,-8,-1,0,-18,-44
50826785232,8,2,-1,-9,-1,3,44,40
50826791822,34,4,3,30,17,10,-48,4
50826791822,-18,-4,-3,-15,-4,-6,34,-33
50826808345,-20,-3,-7,-29,-5,-2,-12,42
50826808345,-8,-4,2,40,4,-9,-41,-41
50826809778,2,-3,-1,4,-4,-3,-8,20
50826809778,11,0,2,14,2,0,-1,27
50826822712,9,1,0,-12,-4,-1,27,-2
50826822712,-14,-3,-4,-34,-6,0,18,3
50826829575,2,2,-4,-26,-4,-1,-2,6
50826829575,7,-2,5,58,2,-4,-12,-11
50826845250,11,-1,-2,-14,5,3,-2,10
50826845250,-15,0,-1,0,-2,1,35,-5
50826852016,0,0,1,7,1,-2,22,17
50826852016,33,6,2,-23,-6,3,0,7
50826868272,3,1,-2,9,-2,3,-14,-31
50826868272,-57,-12,-6,11,-2,-4,-28,9
50826869802,20,4,2,-18,1,-4,-21,-38
50826869802,-9,-3,5,20,-5,-9,3,14
50826882714,-17,-6,-13,-7,-7,1,5,-7
50826882714,31,8,2,-41,3,5,28,-17
50826889384,-34,-9,-7,7,-7,-6,-4,30
50826889384,1,-1,7,37,9,-3,-14,-16
50826905090,25,3,7,11,0,1,-17,-12
50826905090,0,1,-3,-33,-3,-1,-9,-9
50826911925,0,-4,1,26,-8,-1,4,10
50826911925,7,6,1,-10,12,7,23,-5
50826928344,-19,-2,0,0,6,0,-11,21
50826928344,2,0,0,12,-6,-2,-3,-4
50826929761,19,2,2,-7,-8,-6,13,-5
50826929761,-12,1,-3,-3,-8,2,-7,33
50826943299,9,-3,-2,-7,-4,-3,-38,-40
50826943299,-16,-6,-9,-26,-6,-2,14,-4
50826949553,-25,-6,-1,21,3,1,4,-9
50826949553,12,0,2,13,4,-4,16,-8
50826965872,25,4,-2,-4,-1,4,3,37
50826965872,8,3,2,-14,-2,3,-3,-1
50826971887,3,-3,-2,-4,1,1,-1,5
50826971887,-50,-3,0,-22,-2,-4,-31,-86
50826987712,20,3,6,1,-2,1,8,23
50826987712,-9,-4,-2,28,5,-6,-38,-3
50826988338,1,3,-3,-3,-9,4,25,5
50826988338,5,-4,-7,-3,12,3,-26,10
50827003397,-32,-4,-1,9,1,-2,56,-3
50827003397,19,0,1,-10,-3,0,0,-9
50827009290,-11,2,3,-2,-2,-1,-23,9
50827009290,12,-1,-6,-16,-6,2,32,10
50827025812,15,0,-2,-15,1,4,-13,33
50827025812,18,0,2,24,7,-2,-13,-27
50827031986,-33,-7,-1,15,-5,-3,-1,22
50827031986,-16,-2,-7,-18,-6,-2,0,-11
50827047679,17,3,5,1,-2,-11,-15,-11
50827047679,-1,1,-4,-2,-5,3,48,-12
50827048358,27,3,0,-15,10,8,20,15
50827048358,-36,-5,-1,-1,-3,2,7,52
50827063298,1,-3,6,18,2,-2,-15,-12
50827063298,-5,-2,-4,21,-9,-7,-22,-2
50827069338,4,0,-5,-36,4,0,19,-24
50827069338,-3,-3,1,2,-4,0,-4,-10
50827085820,15,2,2,0,2,-1,10,13
50827085820,-16,2,-2,-39,-12,-2,-30,-27
50827091895,4,-1,4,63,9,-5,-11,10
50827091895,11,-1,2,13,3,3,11,-23
50827107637,-39,-8,-7,-8,-6,-10,-11,-19
50827107637,9,-1,0,-14,-1,-1,-8,-9
50827108315,2,1,-7,-39,-14,-1,8,-1
50827108315,11,3,1,7,3,-2,-16,-12
50827123315,6,1,-2,-1,5,12,12,6
50827123315,0,-1,0,8,5,0,-6,24
50827129493,-1,-1,2,5,-3,-6,-18,-17
50827129493,19,-1,-6,-8,-5,-6,-10,3
50827145841,-26,-2,-3,-7,-6,-4,-19,-30
50827145841,-10,-3,0,7,-6,2,-5,-8
50827151977,-18,-5,-2,10,20,4,4,3
50827151977,21,6,0,-18,-3,-2,-15,5
50827167639,26,0,-4,-2,-4,-1,-27,7
50827167639,-11,0,3,11,2,2,3,-11
50827168286,1,-1,-4,-11,-5,-2,-1,14
50827168286,-22,-6,-8,-47,-3,-8,5,-18
50827183320,18,1,3,52,4,-1,-6,2
50827183320,4,-4,2,17,7,6,15,60
50827189371,11,3,1,-15,-6,2,18,-17
50827189371,-21,-3,-3,-14,-5,-4,-27,11
50827205802,-9,-5,-7,-33,-11,-5,27,11
50827205802,9,1,2,35,8,-1,-2,2
50827211870,3,-3,-3,-22,-8,-5,13,16
50827211870,-22,-4,-2,12,-3,0,20,22
50827227626,3,2,-3,-21,0,3,-1,-11
50827227626,2,-1,-2,0,0,4,22,9
50827228244,-10,-5,-8,-12,-1,-2,-7,-51
50827228244,20,3,0,24,0,-2,-12,1
50827243310,4,0,7,19,1,0,19,25
50827243310,14,-1,-1,-13,-1,-4,-29,15
50827249533,-42,-4,-6,-14,-3,-4,-28,-47
50827249533,4,2,2,-3,3,6,15,33
50827265790,15,3,-1,-16,-11,0,5,-10
50827265790,1,-4,-6,-19,-6,-2,-15,-46
50827271999,-2,-3,0,12,-2,1,-44,27
50827271999,-8,-5,3,45,17,4,0,20
50827286985,-3,0,-1,-15,-1,-5,7,-33
50827286985,11,-1,-2,3,-5,-2,8,-2
50827294488,-11,1,3,-9,-6,-5,-6,9
50827294488,8,0,-2,7,-5,0,33,23
50827303327,-10,-6,-2,4,1,-5,-29,-28
50827303327,-27,-1,-2,-13,-4,-7,-8,-9
50827309482,17,1,1,3,0,6,-2,19
50827309482,6,0,1,-5,2,7,3,27
50827324494,9,-1,-1,-19,-6,-2,-1,-10
50827324494,-29,-2,-7,-15,-2,-6,36,6
50827331857,18,0,7,41,9,-5,-11,-27
50827331857,-2,0,0,6,-6,-1,38,-29
50827347063,-6,-1,0,-1,13,7,3,-4
50827347063,11,2,-3,-12,-1,0,21,-15
50827354506,13,1,-5,-21,-1,2,37,57
50827354506,7,1,0,-7,-2,-6,-21,-28
50827371486,-14,2,0,0,-3,-1,-10,-52
50827371486,-15,-9,-7,-15,-2,-1,-7,41
50827372346,-26,-7,1,37,0,-4,6,-25
50827372346,27,5,3,1,-3,-4,8,21
50827384518,2,-2,-4,0,5,6,3,45
50827384518,13,2,4,16,3,-1,-20,-11
50827391922,-2,-2,-4,-12,-12,-4,9,-87
50827391922,-3,-3,-2,-1,1,4,65,76
50827407014,8,0,-1,-12,-9,-6,21,20
50827407014,-3,2,6,26,7,0,4,-2
50827414515,24,1,-3,-15,0,1,7,8
50827414515,-71,-6,-3,11,-5,0,-46,-62
50827423296,-7,-1,1,9,0,0,20,-21
50827423296,-12,-10,-10,-11,2,-5,-15,64
50827429368,2,-1,0,-4,-10,-8,12,17
50827429368,28,0,-2,-20,-11,1,-21,0
50827444541,-26,-2,2,4,5,1,-19,-41
50827444541,6,2,4,18,4,-1,-46,-11
50827451986,-5,-1,-4,-15,-2,-3,21,-32
50827451986,29,5,-1,-15,1,3,-7,0
50827467031,32,-3,-1,16,1,2,11,27
50827467031,-75,-9,-1,-1,-5,0,-17,-57
50827474494,3,1,-1,-9,3,2,-12,6
50827474494,2,0,2,1,-2,0,-5,-11
50827490151,9,2,0,-6,3,-3,0,20
50827490151,27,3,2,19,5,-1,18,10
50827490740,-7,-7,-3,25,-3,-3,4,50
50827490740,-33,-4,-5,-27,-8,-4,-30,-33
50827504508,-3,-2,2,22,21,3,-45,-10
50827504508,19,5,0,-18,-6,0,26,-14
50827511937,11,5,4,1,5,5,-17,40
50827511937,33,1,1,12,-1,-8,-4,-20
50827527013,-75,-14,-9,-15,-18,-11,-11,-26
50827527013,14,3,5,7,18,12,61,-21
50827534512,14,4,-2,-4,1,2,-8,13
50827534512,10,-2,-2,4,-2,-2,-2,35
50827550123,-30,-7,-5,-4,-8,-1,-4,-45
50827550123,1,-1,0,18,0,-1,-44,-8
50827550763,-8,1,3,-24,-2,-1,1,7
50827550763,22,4,-6,-17,-3,0,5,-4
50827564483,39,2,9,65,0,-5,7,32
50827564483,-18,-9,-8,-21,-15,-4,-32,11
50827571797,1,-2,0,-2,11,3,10,3
50827571797,7,1,1,-11,-3,0,-24,-16
50827586961,-1,1,-2,-15,2,1,-45,-30
50827586961,22,-3,-5,1,-8,-5,25,20
50827594463,5,1,-2,-10,-2,1,-14,19
50827594463,-4,-6,-4,-3,0,-1,11,-4
50827618197,-10,2,2,14,0,-2,-26,1
50827618197,7,-2,-3,-9,0,3,13,38
50827618977,-34,-5,-6,-21,-3,-8,-13,-62
50827618977,8,1,2,23,1,-3,7,10
50827624476,35,6,0,-9,2,8,-14,27
50827624476,-61,-7,-1,3,3,-1,-9,-17
50827631998,-18,-3,-1,-7,-3,-3,-16,-44
50827631998,3,-1,-1,-11,-2,-1,-7,6
50827646986,17,4,3,14,5,5,40,31
50827646986,28,4,1,-11,-2,-5,-5,-16
50827654459,-26,-6,-4,12,-16,-3,10,-26
50827654459,-10,-1,1,8,18,1,-14,-41
50827670137,-9,-10,-5,-19,-11,-4,59,36
50827670137,1,4,3,-9,0,5,15,11
50827670765,18,2,0,-5,-2,3,13,40
50827670765,7,-2,2,23,0,-5,-39,-8
50827684453,-28,-3,-16,-22,-4,-4,40,-18
50827684453,23,2,2,6,-4,-1,3,8
50827691805,-12,-6,-6,-3,6,2,8,-3
50827691805,-31,0,-2,-7,-2,-2,-30,-36
50827706792,23,2,2,-15,-2,-3,5,20
50827706792,15,-3,2,7,-6,-6,-12,-11
50827714444,9,5,3,16,3,1,12,13
50827714444,5,-8,-10,-15,-2,3,7,-16
50827730099,-35,-5,0,1,-5,-5,-26,10
50827730099,8,1,-3,-6,3,8,54,41
50827730793,33,5,4,4,5,3,-19,18
50827730793,-4,-3,-2,2,-6,-1,61,83
50827744425,2,-3,-1,-8,-5,-3,-9,5
50827744425,-22,-1,-4,-9,-4,-4,-81,-60
50827751996,23,2,-1,-2,-1,6,5,31
50827751996,-12,-3,2,13,-1,-2,-23,-33
50827766952,-26,-5,-5,8,7,6,7,62
50827766952,11,3,4,1,0,1,-7,-50
50827774465,-26,-10,-6,-5,-6,-9,-33,-25
50827774465,14,5,3,10,11,10,9,-13
50827790059,28,6,2,-48,-4,-2,-3,-4
50827790059,-22,-6,-3,19,1,-7,-27,-14
50827790702,5,-1,-1,-6,-5,0,-12,26
50827790702,-15,-2,-6,-17,-2,-6,43,-37
50827804279,21,1,5,28,-3,3,-17,-15
50827804279,8,-3,-5,-18,-16,-2,26,29
50827811942,-23,-3,-2,1,17,-4,17,-25
50827811942,9,2,2,-4,1,0,5,46
50827826982,5,-3,-4,-11,-6,-2,64,0
50827826982,19,2,0,-3,-1,0,5,18
50827834455,-12,-5,0,20,2,-2,-19,16
50827834455,3,1,1,13,-3,-3,-33,-26
50827850056,9,2,4,2,10,5,22,28
50827850056,-30,-1,-1,4,9,1,-25,-44
50827850796,-22,-7,-4,-9,-9,-2,-18,10
50827850796,-23,-2,-12,-63,-8,-2,-30,-6
50827864490,12,-2,12,90,7,-7,-25,-27
50827864490,33,2,-5,-8,0,2,45,51
50827871925,-9,1,-1,-5,-12,0,31,-19
50827871925,-39,-6,-3,-7,-3,-4,-8,-12
50827886962,6,2,-1,-22,-2,1,-23,2
50827886962,-13,-2,-3,-4,-8,-3,6,-6
50827894482,23,2,1,10,0,-4,4,53
50827894482,23,5,3,3,1,2,8,-34
50827909343,-6,-13,-19,-34,-8,-5,-6,-20
50827909343,-45,-4,3,9,2,-4,-10,-16
50827917646,12,0,2,5,-14,3,-22,-23
50827917646,0,-3,-1,11,6,-6,-36,-3
50827924469,26,7,3,-4,-1,-1,34,19
50827924469,15,-2,-3,-13,-2,-6,22,12
50827931926,-27,-5,-5,-23,-5,-4,-21,-41
50827931926,14,1,6,32,5,0,-8,14
50827946997,-9,-1,-3,-6,-8,-3,-34,-40
50827946997,12,2,-2,-9,-1,4,15,40
50827954512,21,1,3,13,11,-2,20,-16
50827954512,-73,-13,-8,-5,-14,-10,7,-6
50827970172,-7,2,2,-3,15,7,-25,13
50827970172,-1,4,1,-1,1,-3,-33,-47
50827970736,22,-2,-3,-6,2,0,118,68
50827970736,-1,-2,-4,-11,-11,-2,-17,53
50827984476,-11,-4,1,2,-8,-8,-14,-17
50827984476,6,-1,-2,13,7,0,-14,-4
50827991984,17,5,4,11,8,1,-23,-10
50827991984,-7,-7,-2,-5,-4,0,23,-37
50828006946,-36,-2,-1,-3,-2,-2,8,-5
50828006946,20,2,-2,-12,1,-1,14,4
50828014496,3,-1,1,-1,-9,-3,-21,12
50828014496,30,7,6,2,1,7,15,15
50828030029,-18,-4,-3,8,1,-1,19,-14
50828030029,-25,-8,4,23,7,-6,-50,-26
50828030716,-1,1,-2,-3,-5,4,49,-5
50828030716,8,-1,1,-4,-2,-2,-9,9
50828044449,22,7,0,-12,-1,3,-27,0
50828044449,4,-1,-1,-15,-7,-2,14,13
50828051930,-15,-2,-6,4,2,-8,-50,-30
50828051930,25,-3,-1,-3,-1,-3,20,28
50828066787,-15,-1,1,4,-6,0,-12,-10
50828066787,-17,-3,-2,9,0,0,68,35
50828074433,-8,-1,-1,-14,2,2,-60,-55
50828074433,-8,-3,-1,16,8,-3,-14,-24
50828090110,30,2,-1,-16,-4,0,38,33
50828090110,8,-1,-2,-9,-8,2,-3,54
50828090900,-5,1,3,2,6,3,26,19
50828090900,-2,-1,-3,2,-5,-6,0,9
50828104374,-7,-1,2,20,-2,-8,6,-16
50828104374,31,-2,-10,-14,-10,5,17,14
50828111977,2,-2,2,8,17,8,0,-16
50828111977,21,2,-1,-28,-7,-1,-5,44
50828126890,-23,-6,-4,1,-4,-7,-18,-43
50828126890,-36,-5,4,27,-1,-10,-36,-60
50828134431,8,-1,-8,-9,-8,-7,-45,-67
50828134431,5,-1,-2,1,5,3,-9,57
50828150258,14,2,1,-10,-9,-3,18,-76
50828150258,27,10,2,-43,3,4,-31,32
50828150687,-18,-12,-9,15,-3,-7,-13,-15
50828150687,-32,-4,7,24,5,3,-4,-2
50828164417,-13,-8,-6,3,0,-8,17,3
50828164417,-11,-1,-3,-16,-6,-5,-27,-30
50828171922,33,9,3,16,-4,4,22,21
50828171922,14,0,-4,-7,0,-3,15,-41
50828186980,6,2,1,-4,-2,3,-25,37
50828186980,-14,-4,-1,-18,0,0,8,-35
50828194511,6,4,3,5,-2,-4,-2,15
50828194511,24,-1,-3,-6,-2,3,25,60
50828209473,-61,-11,-7,-10,-2,-6,-26,-16
50828209473,-9,1,4,12,3,-2,-2,-71
50828217651,8,-1,-6,-1,0,2,4,50
50828217651,-18,-2,3,15,6,-1,0,-38
50828224536,34,9,4,-9,6,17,15,23
50828224536,14,2,-4,-7,2,3,7,5
50828231982,-23,-6,-3,-11,-8,-2,39,-14
50828231982,-16,1,0,-4,2,-4,-13,-32
50828246878,25,3,-2,-5,-21,-3,11,19
50828246878,18,0,5,34,29,8,12,-12
50828254275,-45,-3,1,-20,-6,1,-7,2
50828254275,8,-1,-1,1,-1,-3,-15,-10
50828278279,3,0,1,10,6,-4,-4,-15
50828278279,13,1,-4,-13,-9,2,-6,32
50828278958,7,-3,1,8,-2,-7,-11,-4
50828278958,-40,-5,0,16,2,-4,-39,-6
50828284447,10,1,1,3,1,3,42,2
50828284447,-2,-1,-1,-3,-5,3,19,16
50828291843,4,0,-7,-43,1,5,-28,0
50828291843,-1,-1,4,26,2,1,-30,2
50828306922,23,-2,-6,-5,1,-6,28,64
50828306922,4,-6,-3,0,-20,-11,-15,-20
50828314473,-34,-4,-5,-27,1,1,-3,-11
50828314473,24,6,1,5,0,4,28,-41
50828329475,-10,-3,3,22,-1,-5,-7,8
50828329475,-10,-2,0,24,-2,0,-44,9
50828337351,20,3,3,10,2,1,8,0
50828337351,7,-5,-7,-26,-9,-4,29,29
50828345794,-15,0,-2,-16,2,0,-21,-20
50828345794,-5,1,1,8,-1,-2,26,-8
50828351844,-1,-3,2,13,2,-2,1,-3
50828351844,5,0,-4,-22,-7,-1,2,22
50828367003,-10,-3,-7,-7,-2,0,-13,-22
50828367003,-7,-4,5,33,7,0,-7,12
50828374478,29,4,1,-3,2,-4,-60,-6
50828374478,-3,1,0,13,4,5,52,24
50828389505,-2,1,-2,-23,-4,4,-25,-18
50828389505,-3,-4,-5,-13,-1,-8,-14,-6
50828397590,-40,-9,-2,4,-8,-10,8,3
50828397590,5,1,-3,-12,-2,-1,-13,-26
50828412682,15,1,2,7,1,-2,4,35
50828412682,2,3,1,-10,4,5,45,6
50828413281,14,-2,0,-3,-11,-1,14,1
50828413281,-20,-5,-3,-13,-6,-2,-31,-46
50828426963,-1,-2,0,0,6,4,87,67
50828426963,0,0,-1,3,3,-9,-47,-27
50828434442,2,-2,3,22,-2,0,-36,5
50828434442,3,5,1,-27,-5,5,38,-26
50828449459,25,-1,-3,13,4,-5,-39,-13
50828449459,-51,-14,-5,-2,-8,-12,-20,49
50828457744,3,6,1,-18,2,9,8,-13
50828457744,19,-1,-1,29,4,-1,-25,17
50828472609,11,2,0,-23,-2,-2,-12,-23
50828472609,-25,-3,-5,1,-3,-3,27,-32
50828473208,-14,-3,0,19,-3,-6,3,3
50828473208,18,7,5,-20,-1,8,-7,10
50828486940,-17,-10,-13,-16,2,0,0,-8
50828486940,19,5,4,10,2,5,5,-5
50828494440,10,2,-2,1,3,-1,12,23
50828494440,-11,0,0,-4,-6,-9,-68,-11
50828509313,4,2,-5,-29,-9,-5,35,-9
50828509313,24,-5,4,61,9,0,-7,37
50828517646,-31,-5,0,5,4,-4,29,-37
50828517646,15,-2,-2,-7,5,-4,-43,56
50828532613,-8,0,4,10,-10,-3,-1,-29
50828532613,11,1,-4,-43,-6,9,2,41
50828533203,18,2,-6,-3,1,-3,-9,-31
50828533203,7,-3,-2,19,-3,-3,11,23
50828546960,-18,-5,2,5,5,-5,-88,-84
50828546960,-23,0,-2,-26,-10,2,12,11
50828554370,27,4,-3,10,8,6,2,12
50828554370,-21,-1,2,1,1,1,26,-2
50828569439,6,-1,-1,17,-1,0,8,-18
50828569439,-37,-1,-4,-37,-6,-3,20,-52
50828577630,5,0,0,18,1,-2,20,-14
50828577630,-1,-6,4,12,1,-5,32,-26
50828592628,4,-1,0,1,-12,-1,-21,30
50828592628,3,3,3,16,31,10,-12,-20
50828593232,-33,-1,-2,-36,-17,-3,17,-8
50828593232,16,4,-3,-4,-3,-1,39,4
50828606934,-4,-4,7,47,8,2,34,1
50828606934,2,-4,-7,-35,-8,-7,-10,2
50828622657,11,3,3,9,3,-2,-32,19
50828622657,-8,-3,-3,3,-3,1,9,-23
50828629489,0,2,-1,-20,-2,1,6,9
50828629489,40,-1,-5,-8,-13,-7,53,16
50828637658,-52,-9,1,11,2,-6,-35,26
50828637658,-12,-4,-6,-12,-7,-4,-7,-2
50828652598,3,0,-2,-4,8,6,10,7
50828652598,3,3,2,17,-1,0,22,-11
50828653247,12,0,-1,-11,-3,0,-1,50
50828653247,-1,-1,-4,-9,-5,2,10,-4
50828666955,-4,3,6,25,-1,3,-10,-2
50828666955,18,-1,3,23,5,-1,-28,-5
50828674481,-18,-3,-3,-6,0,-4,14,-12
50828674481,8,5,3,-10,-3,1,-28,6
50828689482,3,-6,-6,-22,-6,-7,-24,-23
50828689482,-4,0,3,14,-2,-6,-21,-33
50828697652,23,4,0,-14,0,3,28,27
50828697652,7,-1,-1,14,5,-3,15,-14
50828712606,-22,-1,1,-13,-5,-4,-25,-15
50828712606,-14,-3,-5,-58,-9,-3,-2,33
50828713251,11,1,7,54,8,1,-30,-9
50828713251,3,-1,3,32,11,5,50,23
50828726998,-16,-2,-6,-43,-6,-2,15,-7
50828726998,8,2,-1,18,0,0,4,-7
50828734366,23,-3,0,-17,-6,-4,0,2
50828734366,-27,0,-1,-20,1,3,-21,-21
50828749339,-10,-1,4,20,14,10,-21,17
50828749339,-34,-8,-11,-39,-4,-2,-2,6
50828757738,12,0,2,8,1,2,7,0
50828757738,26,1,0,2,-5,-5,-3,9
50828772491,-12,-2,-1,-3,-4,-3,-8,39
50828772491,-5,0,7,27,9,1,-42,-52
50828773336,4,-4,-2,2,-2,2,8,-36
50828773336,-13,-4,-8,-8,-7,-7,-15,57
50828786968,5,3,-1,-5,1,2,40,-13
50828786968,17,1,1,20,2,6,23,10
50828794358,-8,2,-1,-13,1,-1,15,14
50828794358,13,-2,-6,-36,-5,-1,3,-18
50828809352,-32,-10,-1,31,2,-5,-7,-31
50828809352,-10,-2,-1,21,-2,0,43,29
50828817493,2,0,1,-1,-1,1,42,-11
50828817493,-2,0,-3,-10,-1,-3,-5,-18
50828832631,27,4,-1,-12,-5,-2,-6,36
50828832631,6,2,-3,-13,-2,-6,-34,3
50828833273,-26,-7,-5,-20,-18,-6,-6,-3
50828833273,-3,-1,0,6,22,13,-1,7
50828846914,3,-1,-4,-3,0,-4,-3,-17
50828846914,13,1,3,4,-3,-2,-7,37
50828854399,9,-1,-6,-17,-5,-2,-1,-5
50828854399,-7,3,6,31,5,0,-14,-68
50828869439,22,-2,1,-12,1,-1,-78,-9
50828869439,-1,-4,-7,-20,-3,3,48,56
50828877598,-27,-5,3,34,7,-8,-16,1
50828877598,3,0,0,-9,-10,-6,8,9
50828892662,18,4,1,11,4,1,-5,18
50828892662,-24,-3,-2,-18,-8,-2,-25,-43
50828893174,8,1,-6,-31,0,4,2,-3
50828893174,-15,-11,1,92,6,-6,-1,-19
50828906955,-5,1,0,-4,-7,-9,16,13
50828906955,9,-3,-2,2,-3,-3,3,13
50828914311,0,1,0,-9,-4,3,11,22
50828914311,0,3,-4,-40,-4,3,-3,-7
50828929467,-7,-4,-4,10,-2,-2,27,19
50828929467,18,0,4,13,2,-1,16,-10
50828937757,14,-2,-3,-36,-5,-6,-38,9
50828937757,-57,-5,-1,-2,-12,-5,13,-12
50828952597,9,6,6,0,5,6,8,-11
50828952597,-5,-1,-2,10,2,-2,-42,28
50828953235,-2,-1,0,17,6,-3,9,-11
50828953235,9,-4,-1,-17,-5,1,13,29
50828966906,3,1,1,1,-1,-1,-18,-47
50828966906,8,3,-1,-4,0,-1,7,-2
50828974475,-37,-3,-3,3,-4,-4,-22,-14
50828974475,-7,-5,-4,1,-1,-7,-18,-42
50828989468,0,3,-1,-29,-3,7,30,43
50828989468,46,0,-1,21,-3,-1,-26,25
50829005132,-28,-5,2,35,10,0,6,-25
50829005132,-8,0,-1,-17,10,3,7,-13
50829012483,12,0,-3,-11,-6,-4,-12,0
50829012483,4,2,0,4,-1,-5,-30,1
50829013255,-5,-3,-3,1,-5,-4,-5,-5
50829013255,23,0,-4,-13,-13,-5,-26,-7
50829026783,-45,-7,0,-5,-5,-2,22,-28
50829026783,-2,4,-2,-2,9,7,20,-2
50829034221,9,1,3,12,0,1,-28,-43
50829034221,17,0,-2,-11,-4,-8,-7,24
50829049494,-20,-3,0,7,-6,-5,-28,-1
50829049494,-4,2,1,-23,2,4,-11,-28
50829057560,29,2,0,18,9,7,6,22
50829057560,-28,-7,-1,2,-9,-7,54,54
50829072485,8,-2,-2,6,2,-4,-19,1
50829072485,-23,-1,0,-15,-4,0,12,-15
50829073336,40,3,0,13,-1,2,-4,11
50829073336,-8,0,2,-2,2,-1,-16,15
50829086908,0,-8,-6,8,9,1,8,15
50829086908,-5,1,1,7,-2,-3,-7,8
50829094489,0,-2,-2,-23,-6,-1,-27,-11
50829094489,4,2,3,10,-2,0,28,-31
50829109312,5,-2,-2,3,9,4,12,32
50829109312,14,2,0,-11,-4,-3,7,-22
50829117537,16,1,-2,-16,-6,1,10,20
50829117537,-11,-3,-3,-8,2,2,-37,10
50829132614,-14,-2,-2,8,0,-4,7,-33
50829132614,-4,-4,4,27,4,-2,-4,11
50829133215,-2,1,-6,-36,-7,-1,17,-4
50829133215,27,5,-1,-13,-1,1,31,-31
50829146929,15,1,2,22,-2,-2,-3,73
50829146929,-50,-7,-1,2,7,-4,1,-37
50829154397,9,2,3,4,-1,0,3,17
50829154397,8,2,-4,-24,-2,5,-10,9
50829169413,10,4,2,10,3,4,-3,-21
50829169413,-14,-8,-10,-38,-13,-11,0,23
50829177594,-3,0,-5,-26,-3,2,-17,-32
50829177594,-3,-2,3,28,10,2,-8,-1
50829191830,6,1,3,5,-7,-6,-5,27
50829191830,18,0,-1,7,-1,2,-9,-16
50829200116,-21,-1,0,-12,3,-2,-10,-42
50829200116,3,-4,-1,8,-4,-6,-11,-8
50829206918,-18,-6,-2,-7,-4,-5,1,-34
50829206918,-3,-3,-3,-16,-8,1,56,-6
50829214403,4,2,-2,-1,0,-1,-21,33
50829214403,13,3,3,18,4,3,22,14
50829229350,2,-2,-3,7,1,-3,18,9
50829229350,8,-1,-2,-7,-13,-5,-38,-7
50829237650,-5,-1,1,19,5,3,21,5
50829237650,1,-1,1,-7,5,3,-14,26
50829251766,-3,-3,-6,-22,-3,-3,-23,-17
50829251766,-15,1,2,20,-4,-4,15,-32
50829260088,13,-1,2,-26,-5,-3,17,18
50829260088,9,-2,0,35,7,1,36,12
50829266978,-16,-5,-8,-64,-13,-6,15,-29
50829266978,19,3,0,9,3,6,39,10
50829274451,-27,-8,-1,17,-1,-7,3,-14
50829274451,-3,0,-1,-1,-3,-2,-18,-17
50829289427,2,3,8,36,9,1,-18,-16
50829289427,13,3,-1,-1,1,0,-6,14
50829297560,3,0,-3,-8,-5,-2,-13,-9
50829297560,-17,-4,-6,-26,-21,-6,-16,-18
50829311793,2,-1,-2,6,20,9,6,26
50829311793,2,1,1,-3,-3,-3,-28,-1
50829320022,2,0,3,20,1,-1,-19,4
50829320022,-8,-2,-5,-11,-5,-9,19,6
50829326985,5,0,1,-4,-7,1,12,-1
50829326985,-5,-2,-1,-5,1,-1,-12,-2
50829334255,-5,-3,-1,8,4,-4,-45,-1
50829334255,-1,-1,-1,-4,-1,1,22,5
50829349500,8,2,0,-9,-7,-3,-9,-24
50829349500,16,5,1,9,10,2,-26,-5
50829357587,-26,-9,-1,11,-6,-5,5,9
50829357587,-3,0,0,-11,0,0,-20,-13
50829371964,9,-3,-2,7,0,1,7,23
50829371964,-23,-4,-7,-19,-8,-3,7,-3
50829380163,18,1,2,15,9,-1,27,13
50829380163,0,-1,-1,4,-11,-5,-19,-1
50829395060,-7,-1,0,-6,10,8,-18,-25
50829395060,17,0,3,10,-4,-4,-6,17
50829395729,10,0,-1,-31,-5,-1,4,18
50829395729,7,0,-1,19,5,-3,-11,24
50829409342,-16,-4,0,-4,-10,-7,4,-37
50829409342,3,0,2,-10,2,3,-14,46
50829417403,12,3,-4,-12,0,6,81,-14
50829417403,-9,-5,-6,1,-2,-4,-4,8
50829431770,-17,-1,0,1,-6,-5,-57,-4
50829431770,-9,-4,1,15,5,2,39,-35
50829440042,2,0,2,17,1,-2,-5,27
50829440042,19,4,-3,-31,1,2,-16,-3
50829455083,-1,-3,0,20,0,4,57,8
50829455083,1,0,1,7,1,0,-2,2
50829455723,7,1,-3,-6,-2,0,-23,-28
50829455723,-15,-4,-5,-22,-2,-1,-24,-18
50829469446,-2,0,0,7,-10,-3,40,20
50829469446,-1,0,-1,3,12,5,-10,23
50829477608,8,4,-1,-19,-2,-1,-12,-8
50829477608,4,-5,-8,-11,3,6,44,25
50829491882,-7,-2,0,-3,-1,-6,-17,-15
50829491882,-4,-2,1,17,-9,-3,-1,-9
50829500125,-11,-3,-3,-18,-3,-2,2,-3
50829500125,-1,3,0,16,1,-2,-13,-23
50829515036,3,-2,4,31,5,1,-13,47
50829515036,1,-2,-3,-13,-2,-1,6,9
50829515721,-5,-2,-2,-3,-2,-6,-9,4
50829515721,-6,3,4,-6,-9,-1,1,-19
50829529418,-7,-2,-2,-1,6,5,30,11
50829529418,-35,-5,0,3,-2,-5,-22,-38
50829537581,-2,-1,-5,-1,-2,-2,-38,-1
50829537581,18,-2,3,5,7,-2,16,28
50829551888,6,2,-4,-5,-13,-7,-10,-31
50829551888,-5,-2,-1,-6,5,6,-38,-3
50829560216,0,0,-1,7,0,1,7,-1
50829560216,-5,1,4,6,0,-3,-20,0
50829575061,13,1,-4,-30,-4,1,-5,10
50829575061,-8,-3,-1,18,4,-2,12,-42
50829575680,-8,0,1,-2,0,0,-25,-34
50829575680,9,-2,1,11,5,-3,-13,40
50829589416,-24,-3,-5,-17,-11,-8,-14,-34
50829589416,23,2,-7,-27,-8,-6,15,30
50829597546,-19,-4,1,14,0,1,11,3
50829597546,-3,-2,-2,-6,-2,-1,-6,-25
50829611858,16,2,3,9,-4,0,-11,53
50829611858,5,-1,-2,-2,2,5,6,12
50829620114,-28,-5,-3,8,-1,-2,18,8
50829620114,-10,-1,0,-6,-11,-3,29,-24
50829635081,8,-1,-4,-4,15,5,-6,39
50829635081,5,-1,0,5,0,-6,5,-27
50829635690,0,-1,2,1,-5,0,13,38
50829635690,2,1,-2,-1,3,2,-17,-29
50829649410,4,-1,2,20,-3,0,-27,-19
50829649410,2,4,3,-13,0,3,12,10
50829657379,8,-1,-2,5,6,0,6,-10
50829657379,-5,-3,-1,-15,-4,-3,12,-33
50829671871,6,-3,-3,-6,-16,-6,14,35
50829671871,-19,-2,3,28,37,8,-30,-23
50829680023,2,-1,-4,-15,-16,0,47,30
50829680023,-4,-3,0,-1,-6,2,15,-22
50829694921,-3,-1,-4,-11,3,-6,20,-41
50829694921,15,-1,-1,-13,-15,-3,15,50
50829695711,3,-1,-2,9,2,-1,-5,-13
50829695711,2,4,1,7,10,3,-37,7
50829709380,17,2,-1,-6,-2,1,2,-5
50829709380,-19,-4,-3,-7,-5,-6,-21,-23
50829717640,-18,-3,-3,-9,2,0,-2,-6
50829717640,7,-5,3,28,1,5,41,20
50829731916,-20,-1,0,5,6,0,2,-7
50829731916,21,3,-3,-25,-9,-4,24,0
50829739956,-6,-1,-2,-3,-6,-5,-18,-19
50829739956,14,6,2,1,8,7,-25,11
50829754394,12,-3,1,21,3,0,65,75
50829754394,-52,-8,-8,-19,-22,-7,3,-51
50829763224,21,3,1,-42,-1,2,-3,9
50829763224,-4,1,-1,-8,-3,-4,15,5
50829769337,-2,-6,7,68,13,-2,-47,-18
50829769337,22,1,-2,-8,-10,-3,-13,31
50829778240,-34,-6,-3,-3,-9,-9,23,-29
50829778240,-17,-5,-5,-27,2,0,-7,6
50829791795,-1,3,-2,-38,-8,-2,32,-14
50829791795,23,-1,0,31,5,1,-3,32
50829801012,16,2,4,20,12,6,-22,2
50829801012,-8,-3,-2,-6,-6,-4,-7,-8
50829814453,-19,0,-6,-40,-3,2,-18,-37
50829814453,6,-1,-2,16,1,-5,-5,17
50829823206,10,-3,5,26,4,-3,2,2
50829823206,-2,-4,1,11,-4,0,-65,13
50829829261,-10,-2,-2,-6,0,-2,-25,-17
50829829261,10,5,0,-26,-13,0,13,-3
50829838216,16,1,-4,-21,3,0,-11,49
50829838216,-21,-7,-7,9,-2,-8,-10,-25
50829851801,-10,-4,2,7,6,-2,-23,-30
50829851801,-4,1,3,10,1,4,-12,-62
50829860734,15,-1,-2,16,-3,-6,53,16
50829860734,-26,1,-3,-32,-2,-1,-27,-7
50829874408,8,1,-1,-7,-8,4,5,-17
50829874408,-6,2,2,9,16,10,4,32
50829883194,19,-3,-4,-10,-8,-4,-33,19
50829883194,-27,-6,-3,1,5,-4,1,-24
50829889372,3,-2,-3,-6,-7,-8,-10,-6
50829889372,4,1,3,7,1,1,6,-17
50829898236,-12,1,2,6,-9,-2,-47,-44
50829898236,30,5,0,7,4,-2,12,23
50829911905,-7,-2,0,6,7,2,-11,22
50829911905,-14,-2,-3,-12,-3,-4,-38,-21
50829920690,17,-2,-6,-13,-6,0,14,-3
50829920690,-29,-1,1,0,-10,-5,-11,3
50829934258,29,3,-2,-15,-4,0,84,19
50829934258,1,-2,0,6,-5,0,7,0
50829943188,-17,-3,1,1,8,2,15,-1
50829943188,26,0,7,37,-1,0,6,10
50829949370,-13,-6,-7,23,3,-5,-28,-36
50829949370,2,1,1,-6,-3,-4,23,21
50829958203,6,2,0,-5,-3,-2,5,19
50829958203,-10,-1,-2,-15,-4,-3,-18,-53
50829971883,-5,4,-1,-17,-2,2,3,45
50829971883,12,-4,-2,9,-9,-4,8,30
50829980693,-33,-7,-2,15,20,1,-19,-65
50829980693,8,-1,-3,-16,-2,-1,31,27
50829994397,5,1,2,4,2,9,44,12
50829994397,3,0,-1,-12,-3,-2,4,5
50830003175,14,1,0,3,-1,2,17,-3
50830003175,-7,-4,-2,-5,-7,-5,-24,16
50830009408,-12,-1,2,2,4,-1,-15,8
50830009408,9,3,-2,-16,-5,0,13,6
50830018202,-6,-6,0,27,-7,-7,11,-9
50830018202,-16,-3,0,22,12,-2,-2,-5
50830031846,16,2,1,-3,5,4,-28,-17
50830031846,-24,-4,-1,-4,4,0,-28,-38
50830040674,-10,2,-4,-22,-11,-6,-9,-8
50830040674,24,6,-1,-18,-3,4,20,25
50830054340,-11,-8,-5,5,-10,-9,-4,1
50830054340,-26,-6,-3,3,3,-3,-23,-30
50830063172,1,1,0,-2,0,-2,-50,-27
50830063172,5,-2,2,10,0,3,48,24
50830069416,4,0,-1,-10,-1,-2,-37,-18
50830069416,19,1,-3,6,-1,-2,3,4
50830078191,-7,-2,-3,-2,-3,1,-1,20
50830078191,-4,-1,-1,-12,0,2,-39,-26
50830091862,-5,-2,-1,5,-5,-3,22,12
50830091862,-8,-5,0,5,1,-2,-4,6
50830100637,4,0,0,3,2,3,11,23
50830100637,14,-1,0,-2,-1,1,15,20
50830114301,-19,-1,-5,-20,-6,-3,-12,-11
50830114301,2,0,1,5,1,4,13,-25
50830123214,2,2,3,10,5,3,27,26
50830123214,3,-1,-3,-2,-3,-3,1,-24
50830129397,1,-1,0,-2,-3,-3,-9,-23
50830129397,10,0,-2,-2,2,2,27,29
50830138166,3,1,-1,-12,-3,1,-57,-18
50830138166,-18,-2,-4,-13,-1,1,41,4
50830151779,7,-2,5,33,3,-4,-5,8
50830151779,2,5,1,0,2,1,-20,-46
50830160712,-20,-13,2,27,-2,-6,-2,49
50830160712,-16,0,-1,-14,-7,-2,5,-12
50830174374,4,2,-1,-10,-5,4,-9,0
50830174374,0,-1,-5,-31,7,4,-2,10
50830183216,-10,-1,-5,6,-1,0,-11,-22
50830183216,-3,-3,-2,15,3,-3,12,-4
50830189289,14,2,2,4,3,-2,2,12
50830189289,0,0,0,-36,-20,-6,0,9
50830198204,7,2,-1,20,3,4,-3,6
50830198204,6,-1,3,21,5,1,20,9
50830211850,-18,-1,-6,-18,-4,0,3,4
50830211850,21,-3,1,14,-3,-5,0,27
50830220718,-19,-2,-2,-23,-1,1,13,-8
50830220718,12,2,0,-4,-4,0,-6,-9
50830234912,10,-1,-2,1,1,-3,-1,5
50830234912,-5,1,0,-1,-1,-3,-7,-14
50830241839,-2,0,0,-7,0,1,30,-3
50830241839,22,3,4,7,5,2,23,2
50830249352,-15,-2,-5,-20,-4,-4,1,-22
50830249352,-18,-6,-4,11,-4,-1,17,13
50830258242,-8,-3,-2,7,-1,-1,7,1
50830258242,15,1,2,-2,2,0,-20,-9
50830271849,19,2,-1,-6,-4,-2,-18,-8
50830271849,-15,-2,1,14,4,-1,-18,9
50830288175,15,1,0,-7,-7,-4,0,12
50830288175,-15,-6,-6,-11,-3,-1,-19,-4
50830295097,-14,-1,2,6,2,-4,-22,-11
50830295097,7,-1,0,8,3,0,18,-16
50830301718,1,3,0,-9,2,3,-33,16
50830301718,9,0,-3,-13,-4,-2,-10,-35
50830318248,-33,-6,-2,12,1,0,3,-39
50830318248,-6,-2,2,18,5,-2,6,5
50830319650,7,-1,-4,-5,-2,-1,-2,18
50830319650,11,3,2,0,-3,1,-15,-17
50830331955,18,3,-1,-9,1,3,-10,-3
50830331955,-27,-7,-3,-8,-2,-1,23,2
50830340673,0,0,2,0,-1,-6,10,-29
50830340673,4,-2,-4,-2,-17,-5,-48,34
50830355043,1,1,0,0,19,13,11,-1
50830355043,10,-4,-2,4,1,4,44,6
50830361849,-23,-1,-1,-11,-4,-5,6,-18
50830361849,-4,0,2,5,2,-5,-35,-31
50830378198,13,2,1,-7,-7,-3,-9,2
50830378198,-20,-5,-4,-6,-5,-2,-24,11
50830379624,13,-2,2,25,4,-4,4,18
50830379624,0,-3,-5,-1,0,-3,32,-26
50830391863,-23,-2,2,2,1,0,-2,-4
50830391863,22,1,-2,-18,-16,0,46,42
50830400704,-30,-2,-4,-16,10,8,7,-32
50830400704,-5,0,3,8,6,0,-13,24
50830415081,22,-1,-3,7,-5,-7,16,24
50830415081,11,2,-1,-2,-3,-3,-12,-5
50830421848,17,0,-2,-14,-4,3,10,-2
50830421848,-4,0,-2,-4,5,2,20,-4
50830438045,-15,-6,1,25,2,-6,7,-15
50830438045,0,5,3,2,1,-1,-51,6
50830439660,22,1,-2,1,-7,-5,45,-31
50830439660,-43,-9,-5,-20,2,5,6,-2
50830451888,-30,-4,-1,-11,-6,-2,-4,-42
50830451888,0,-5,-5,19,4,-3,-31,47
50830460641,15,3,3,-1,2,-1,-10,6
50830460641,24,3,1,-2,-3,2,34,15
50830475012,21,0,-4,-13,-4,0,2,25
50830475012,-36,-3,-1,-15,3,1,-1,-43
50830481874,-10,-2,1,14,3,1,2,-9
50830481874,-7,-5,1,11,-2,-2,31,-22
50830498159,0,0,-4,-5,-2,2,-13,31
50830498159,25,3,1,-4,0,2,4,-1
50830499656,-11,-9,-8,-22,-10,-4,0,15
50830499656,-19,-2,1,4,-5,-7,-41,-20
50830511887,-5,-3,5,13,1,-1,3,-34
50830511887,10,0,-1,10,20,8,-5,4
50830520698,3,1,0,-2,-5,-2,-14,24
50830520698,10,1,0,-6,-1,-1,-36,44
50830535039,13,1,-6,-17,-5,0,20,15
50830535039,-17,-4,5,25,-9,-10,-28,-38
50830541884,3,1,2,-1,6,6,39,15
50830541884,-4,-3,-2,-3,3,2,-10,10
50830558240,12,2,1,-8,-6,-4,-27,-14
50830558240,11,3,-4,-17,-6,-2,20,-10
50830559644,32,4,-3,-27,-11,1,-18,22
50830559644,-86,-9,-1,17,7,-5,-32,-81
50830571777,-14,-7,9,95,17,-1,-2,14
50830571777,-13,-3,-3,-5,-3,-5,-2,-13
50830580670,8,0,2,-9,-6,-2,-21,-57
50830580670,29,5,-1,-31,-8,2,-5,95
50830595052,4,0,-3,-23,-2,1,7,-10
50830595052,-17,-3,-2,7,2,-2,16,-32
50830601674,7,-2,-3,1,-9,-7,-15,-14
50830601674,16,3,0,0,1,1,18,8
50830618229,-3,-4,-4,-8,2,-2,-5,17
50830618229,25,1,1,-3,-5,-4,0,34
50830619591,4,2,0,-3,-10,2,-20,-26
50830619591,-48,-6,-3,14,15,6,15,-19
50830631804,7,-3,-3,-17,-6,0,18,17
50830631804,-5,-4,-4,-5,-4,-3,-11,-40
50830640739,-14,0,4,16,10,0,-17,2
50830640739,39,-1,-7,-5,-10,-8,-30,15
50830655003,1,2,-2,-18,-3,2,17,-44
50830655003,-17,-4,1,14,2,-4,-12,-13
50830661655,-2,-2,1,8,2,3,11,45
50830661655,18,3,2,3,1,4,-8,-1
50830678138,14,4,-1,-18,-1,0,16,-7
50830678138,-4,-4,-2,-7,-8,-2,3,12
50830679663,-37,-3,-2,9,5,-1,-25,-9
50830679663,19,-2,-1,-4,-4,-2,25,12
50830691822,3,2,-4,-21,-7,-1,-18,6
50830691822,23,3,5,31,14,4,-2,-5
50830700669,-10,-4,-1,3,-2,2,-12,20
50830700669,-3,2,0,-8,6,4,9,-13
50830715019,12,-1,-3,15,-1,-5,27,17
50830715019,-20,-6,-4,-14,-3,0,-36,-44
50830721842,14,0,0,-20,4,-2,6,18
50830721842,22,3,-4,-45,-17,-3,-7,1
50830738224,-40,-4,-4,-3,-1,3,5,0
50830738224,-1,-3,15,95,22,-4,10,-2
50830739622,9,-4,-4,-6,-7,-9,12,17
50830739622,-12,1,1,-11,-3,-4,-1,-4
50830751748,12,1,0,-26,-8,1,-8,-13
50830751748,-24,2,-8,-59,-4,4,26,-12
50830760652,-23,-11,-1,38,6,-4,9,27
50830760652,-35,-5,1,13,4,2,43,15
50830775053,11,3,1,8,-2,-3,8,-12
50830775053,13,-1,-5,-17,-18,4,7,46
50830781883,20,4,0,-10,14,5,-7,-22
50830781883,-3,1,2,8,-4,-5,1,-7
50830798113,-5,-5,-6,-2,-2,-7,-51,44
50830798113,-13,-2,-2,-20,-2,0,13,22
50830799674,13,3,-1,-11,-4,0,6,-15
50830799674,9,-3,1,21,1,-2,53,11
50830811816,-10,0,4,13,5,0,-34,-19
50830811816,32,3,-1,-15,-6,-3,-20,0
50830820674,-49,-4,-6,-7,-5,-5,2,-38
50830820674,13,6,2,-13,1,4,-5,4
50830834895,16,-2,-2,-4,-5,-2,16,10
50830834895,-33,-4,-5,8,2,-5,-3,8
50830841820,7,1,2,9,1,2,-73,-14
50830841820,-35,-10,-7,-2,-4,-5,-16,14
50830858157,14,3,-1,-29,-6,-1,-5,8
50830858157,2,4,1,-5,-7,5,-10,-29
50830859615,4,-1,3,22,11,0,7,39
50830859615,14,2,-3,3,-6,-5,-46,-18
50830871786,-5,-4,0,6,8,5,13,5
50830871786,8,0,-2,-14,-8,-6,-13,6
50830880650,8,-3,-5,-5,-6,-2,19,23
50830880650,13,3,3,8,-1,-3,-22,-21
50830894874,14,1,1,-12,-4,0,4,28
50830894874,-66,-9,-8,-3,0,-2,-15,-62
50830901710,14,2,6,9,2,2,6,20
50830901710,11,-4,-1,14,4,2,23,-11
50830918178,-3,3,8,23,3,0,-46,-20
50830918178,16,2,-4,-23,-3,2,20,49
50830919678,-3,-2,-3,-7,-2,-4,-43,-12
50830919678,12,0,-2,-1,-5,-1,0,-31
50830931729,6,-3,-1,-10,-7,0,6,49
50830931729,-24,-2,1,-7,-1,-1,7,-34
50830940701,-5,-1,-3,24,2,4,63,-5
50830940701,19,1,4,27,8,0,0,-27
50830955039,-28,-8,-5,-1,-6,-8,-1,9
50830955039,21,1,3,-5,4,3,-1,24
50830961731,7,3,-1,-27,-7,4,18,-19
50830961731,-19,-7,-7,32,6,-4,-14,26
50830978116,6,-4,0,15,-1,-3,14,-6
50830978116,-4,-2,-2,-12,-2,0,38,21
50830979649,0,3,-3,-19,-6,1,11,10
50830979649,21,3,-3,-24,-5,-1,-4,-1
50830991820,-7,-3,4,52,15,0,47,80
50830991820,-11,0,1,-9,1,-1,-19,-74
50831001566,4,-1,-2,6,-18,-5,-2,-13
50831001566,-19,-5,-4,-44,14,1,-9,-3
50831015003,-3,2,-4,-15,-2,-2,-11,-45
50831015003,45,5,1,12,2,0,0,57
50831021867,-9,-9,-3,8,-3,-11,10,-16
50831021867,-49,-2,0,-49,-13,-2,-56,1
50831037389,14,-1,-8,-14,-6,1,-40,-13
50831037389,15,-4,4,41,0,-3,-8,14
50831044295,-6,-1,0,-3,6,-2,-9,-35
50831044295,11,-2,2,23,-1,-1,-1,29
50831051801,-4,5,0,-18,2,4,0,-36
50831051801,32,1,-3,-18,-6,-1,-17,18
50831060639,-54,-5,-4,-6,-4,-3,-12,-4
50831060639,-5,-2,5,25,3,3,25,-23
50831074969,-16,0,-1,-4,2,0,2,-48
50831074969,7,0,-4,-8,0,0,-22,2
50831081679,14,3,3,2,1,0,13,36
50831081679,4,0,-3,-8,-3,-1,34,24
50831097530,3,0,-1,3,-3,-1,4,-28
50831097530,8,3,3,11,7,4,27,2
50831104219,24,-4,-4,-7,2,-2,-14,27
50831104219,-14,-3,1,3,-6,-1,-3,6
50831111695,1,1,-1,-20,0,1,20,-2
50831111695,-3,2,0,8,1,0,-10,-7
50831120709,5,-4,-4,-1,-2,-3,-15,-4
50831120709,-2,0,2,17,3,0,4,-16
50831135034,-4,-1,2,-3,-8,1,6,-25
50831135034,9,0,-6,-51,-4,2,4,37
50831141846,-5,2,5,57,9,-3,-16,-7
50831141846,10,0,0,5,-2,0,31,15
50831157562,-3,2,0,-3,3,0,-10,9
50831157562,16,-2,-4,-5,-3,-1,-3,-18
50831164347,-57,-5,-6,-30,-11,1,-16,-53
50831164347,7,-4,-1,25,-10,-8,-13,1
50831171787,-6,-1,0,-1,9,0,-23,57
50831171787,23,-1,-1,8,0,-2,10,8
50831180671,-20,0,-3,-14,-2,-1,19,-31
50831180671,22,7,4,-1,1,6,-8,-3
50831195022,0,-5,-4,-22,-5,0,-6,4
50831195022,-38,-7,-4,10,-2,-7,-15,-46
50831201684,28,4,4,10,6,0,-13,5
50831201684,4,0,-1,14,2,1,-5,-9
50831217147,-17,-5,-7,-38,-13,-7,-8,-23
50831217147,-10,-4,1,41,11,3,-29,10
50831225679,-20,-4,-3,-15,-2,1,17,-6
50831225679,22,6,-1,-9,1,4,8,-3
50831240754,10,-4,0,0,-5,-9,11,32
50831240754,-46,-3,-6,-22,-9,-8,-17,-36
50831242122,24,-2,4,28,-10,-7,-27,-24
50831242122,-21,-6,-4,6,-4,0,1,54
50831255024,15,6,2,6,11,5,-11,-43
50831255024,-1,0,0,-6,-5,-2,46,15
50831261873,4,0,-3,-14,3,1,-2,-3
50831261873,0,-2,-7,-30,-9,-3,5,-28
50831277513,0,-2,4,17,-1,-2,-7,-6
50831277513,9,-2,1,21,4,-3,-7,18
50831284226,-10,-1,4,9,4,1,6,12
50831284226,16,-2,-3,-20,-3,0,8,2
50831300603,-21,-2,-2,6,2,-2,1,10
50831300603,-4,1,-1,-10,-2,-2,8,-66
50831302146,19,1,-4,-26,-5,1,-23,29
50831302146,-26,-3,1,19,4,-5,-7,-13
50831315098,10,3,2,17,2,0,-32,9
50831315098,10,1,1,-23,-3,3,-34,7
50831321705,-15,-2,-2,9,-1,2,23,-9
50831321705,1,-3,-3,-10,-1,-2,-3,12
50831337396,-9,-2,-3,-2,-5,-1,-4,2
50831337396,14,4,3,9,0,2,25,45
50831344335,-3,-8,-6,-11,-1,-2,-2,-73
50831344335,-20,-4,-2,3,4,-4,-27,-19
50831360595,6,1,2,26,2,0,16,-4
50831360595,0,-3,-3,-9,0,2,19,16
50831362126,7,2,-1,-28,-8,-3,14,25
50831362126,-1,0,-5,-2,2,2,7,9
50831375034,1,-3,-5,-13,-1,4,-31,0
50831375034,-15,-1,-2,-4,-5,-6,10,-5
50831381838,2,-1,3,27,6,-3,22,-8
50831381838,11,2,2,-13,-4,-2,-2,-2
50831397502,10,0,-5,-2,-3,1,13,8
50831397502,-7,1,1,-9,-4,2,-13,13
50831404348,16,0,1,18,3,2,3,-5
50831404348,-37,-8,-3,-19,-3,-7,2,33
50831420558,10,-3,-3,1,0,0,10,1
50831420558,0,-3,-2,-6,-6,-2,9,-20
50831422108,10,7,3,0,4,1,-44,30
50831422108,34,7,5,6,1,2,-4,-14
50831434890,-9,-5,-2,6,-5,-7,-4,4
50831434890,-32,-4,-6,-18,0,1,-21,-10
50831441777,13,4,8,55,2,2,-14,18
50831441777,15,-2,-3,3,14,4,6,-2
50831457580,-53,-7,-5,-15,-3,-5,10,-20
50831457580,15,0,-2,-7,-2,-5,-18,-27
50831464353,5,1,-3,-26,-2,2,27,8
50831464353,-7,-3,-4,-2,-13,-1,68,-17
50831480586,8,0,1,-12,0,-3,-12,-2
50831480586,17,-1,1,23,4,2,0,7
50831482129,-25,-5,-5,-15,-3,-3,8,-21
50831482129,-13,1,1,-1,-1,-2,-30,-41
50831494904,11,-2,-1,-3,-2,-1,52,21
50831494904,-4,0,1,1,-3,-4,2,18
50831501691,-10,-3,-3,-17,-5,-5,2,8
50831501691,-3,1,1,7,4,1,-29,-32
50831517530,12,2,1,4,-1,4,-11,-2
50831517530,19,-1,2,16,1,-1,-1,4
50831524217,-29,-3,-5,-18,-2,-5,20,15
50831524217,0,0,0,2,1,1,-19,51
50831540676,3,2,3,5,1,-2,10,-9
50831540676,-26,-6,-4,-1,-11,-3,0,21
50831542101,8,-2,-2,-14,13,5,53,36
50831542101,4,0,-1,1,-3,-2,1,-4
50831555018,0,-2,-3,8,2,-2,-17,3
50831555018,19,1,-1,-6,0,-2,7,18
50831561772,-1,1,-4,-17,-10,-6,-16,-2
50831561772,-12,-1,2,15,2,1,-11,-5
50831577428,-7,-3,-7,-36,-3,1,11,-20
50831577428,-12,-1,1,11,6,-4,-11,-21
50831584235,13,-2,4,25,5,2,-16,-22
50831584235,4,1,-2,-8,-1,-2,17,-2
50831608176,-2,0,0,1,-9,-1,-14,39
50831608176,12,3,-2,-20,-6,2,-7,-22
50831609628,0,-6,-3,-11,-2,-5,-16,32
50831609628,-24,-3,-2,-1,-2,0,-28,-4
50831615048,-3,-3,1,11,3,-1,-7,-14
50831615048,-4,-1,1,8,6,0,23,6
50831621853,25,4,0,-8,-5,-1,15,12
50831621853,0,0,-2,-18,-8,-1,-15,-2
50831637562,-19,-3,0,20,6,3,-39,-49
50831637562,13,0,1,6,5,3,-4,9
50831644290,6,0,-2,-6,-5,-6,-19,17
50831644290,4,2,2,-8,-2,-4,-9,-21
50831660488,3,1,0,-4,-15,-1,17,2
50831660488,-10,-1,1,9,16,4,-2,-13
50831662089,7,-4,-7,-19,-6,-2,-5,17
50831662089,-11,-2,-2,6,-1,-5,-22,-24
50831675472,7,-2,-2,-5,-1,-6,-21,19
50831675472,-14,-4,-2,-3,-6,0,-1,-10
50831681772,2,3,1,-22,2,5,-4,-30
50831681772,19,1,-6,7,-1,0,32,21
50831697560,0,-2,9,63,11,-1,-15,-16
50831697560,-4,-2,-4,-39,-11,-4,11,15
50831704334,2,1,0,13,3,1,-35,-11
50831704334,-7,-7,-2,-10,-1,2,22,-12
50831720686,-3,-1,-4,-17,0,-1,-11,-3
50831720686,-27,-4,-3,9,-3,-2,1,-6
50831722125,6,3,2,1,0,3,24,-30
50831722125,11,0,-2,-2,-2,-4,-7,5
50831734295,-4,1,4,6,3,-3,5,2
50831734295,8,-3,-4,-5,-10,0,4,11
50831743151,8,2,-5,6,5,1,3,-2
50831743151,8,-1,-1,-3,-3,-3,-13,-31
50831757382,-46,-5,-3,-6,0,-1,21,-56
50831757382,-1,-3,-2,-19,-9,-4,-15,14
50831764310,-3,-1,-4,13,-4,-2,17,-3
50831764310,27,2,-1,14,5,2,-1,45
50831780686,-10,-1,-4,-23,-4,-4,9,-3
50831780686,-4,3,2,8,1,0,-4,-64
50831782184,-6,-4,-2,-16,-5,-2,-17,31
50831782184,-9,2,2,24,3,0,-8,-1
50831794232,20,-1,1,-18,0,-1,-1,26
50831794232,14,1,-3,0,1,6,19,21
50831803119,-14,-7,-1,12,2,-1,14,-20
50831803119,-38,-3,-1,-20,0,0,4,-57
50831817335,11,3,6,38,2,1,9,31
50831817335,8,0,-2,-1,2,-4,-33,-22
50831824349,3,-1,-5,-20,-9,-3,-13,1
50831824349,7,-1,2,6,2,-3,8,23
50831840571,7,-3,-8,-23,-5,4,24,-6
50831840571,14,3,7,25,6,1,-2,25
50831842125,-8,-1,-1,2,-2,1,17,-7
50831842125,-39,-8,-7,-22,-8,-5,-9,-27
50831854278,16,5,2,1,7,-4,-17,20
50831854278,7,0,-4,-6,-2,-1,2,22
50831863151,-5,-1,5,23,-3,-3,8,5
50831863151,9,0,-4,-29,11,5,24,-10
50831885586,-9,-1,-5,3,-1,0,35,19
50831885586,2,-3,6,26,6,-6,-24,-13
50831887074,-10,-1,-1,-10,1,5,-4,-15
50831887074,2,1,1,-1,-1,1,17,46
50831900535,8,3,3,-1,0,3,2,-3
50831900535,9,-5,-7,-23,-6,-7,-8,16
50831902082,-22,-1,2,21,2,-3,-13,-34
50831902082,13,0,-2,-24,-9,-3,-10,15
50831914247,-23,-5,-6,-14,-6,-7,-36,-22
50831914247,5,1,1,-5,-1,0,-2,2
50831923143,17,1,3,15,4,1,-7,35
50831923143,0,-3,1,28,-3,-4,9,14
50831937535,-7,-1,4,21,1,-5,45,-67
50831937535,-25,-6,-13,-46,-4,2,54,-27
50831944307,-12,-1,0,-17,-2,0,21,-28
50831944307,17,1,-3,-3,-2,1,-30,12
50831960652,4,-2,-2,9,-4,-2,17,42
50831960652,6,-2,1,17,-1,-3,-7,25
50831962106,-8,0,-2,-18,-1,-3,-29,-1
50831962106,-8,-3,-2,-5,-6,-6,7,-35
50831974200,-2,1,-1,-1,-10,3,-3,-7
50831974200,-12,-6,2,22,12,3,-1,13
50831983146,-1,0,-4,-8,-1,-4,1,37
50831983146,24,4,1,-6,-2,-4,4,15
50831997545,3,-5,-3,10,-3,-4,-9,30
50831997545,-10,3,0,-5,-4,0,-11,-11
50832004289,18,0,0,10,6,3,-52,-41
50832004289,-18,-4,0,13,2,-2,-31,29
50832020055,-5,0,-5,-30,-2,2,2,-40
50832020055,-14,1,1,15,-1,2,15,15
50832026860,-3,-3,2,-14,-4,-6,-15,-8
50832026860,20,1,-2,11,-1,2,-5,25
50832034379,3,2,2,-11,3,1,-19,-5
50832034379,3,-3,0,10,0,-3,-10,22
50832043132,-29,-7,-5,-12,-8,-4,29,-6
50832043132,-17,-1,-2,-15,-5,0,0,-35
50832057459,13,-2,5,43,6,-1,-31,9
50832057459,5,0,2,-2,-1,-2,11,17
50832064369,15,2,-2,2,-2,-2,-21,1
50832064369,4,-1,2,-1,3,4,16,19
50832080063,-7,0,-5,-21,-2,-1,-2,-20
50832080063,13,-1,-4,-5,0,2,19,20
50832086625,-19,-5,3,7,-2,-7,-43,-10
50832086625,7,1,0,-16,-8,0,3,-36
50832094115,-5,-3,2,33,20,5,5,15
50832094115,-9,-3,-1,-1,-1,-4,-32,-12
50832103049,-12,0,1,5,3,2,21,3
50832103049,6,-1,-2,7,0,-1,7,8
50832117266,22,2,-1,-22,-11,-5,34,14
50832117266,-2,-1,-2,-14,-3,-3,-17,-9
50832124097,-14,-5,-9,5,5,2,-12,-1
50832124097,-4,-2,2,10,3,3,13,8
50832139790,6,-1,-3,-13,-4,0,31,6
50832139790,7,4,1,11,-2,-3,-2,9
50832146569,0,-1,-1,-13,-8,-6,24,-4
50832146569,1,-2,-1,-2,-2,-5,1,-21
50832154059,-5,-2,0,12,1,1,-4,20
50832154059,4,2,3,3,2,1,-18,-22
50832163110,18,0,-2,-11,-1,2,41,31
50832163110,-22,-3,-1,5,-1,-5,9,9
50832177283,-11,-2,1,5,-7,-5,-25,-37
50832177283,8,-2,-1,9,14,5,5,-20
50832184078,16,3,5,15,4,3,13,6
50832184078,-4,0,-1,-10,0,-4,-19,-9
50832199756,0,-1,-7,-26,-8,-3,-13,-1
50832199756,2,-3,-3,-10,-8,2,38,28
50832206598,-12,-1,-2,6,1,-1,1,-35
50832206598,11,-2,2,18,0,-2,20,-31
50832222708,-3,3,-6,-67,-5,2,-21,41
50832222708,8,-1,3,43,4,-2,1,-9
50832229132,-34,-5,0,13,1,-3,11,0
50832229132,7,0,4,20,-4,-4,3,10
50832237311,-9,-3,-4,-22,-5,-5,-12,-13
50832237311,-7,-3,-1,1,-6,-2,15,-15
50832244103,26,7,4,-6,3,5,5,28
50832244103,-8,-4,-13,-25,-2,2,-6,19
50832259807,16,0,2,13,-4,-1,8,14
50832259807,-25,0,1,3,-10,-5,24,-63
50832266634,6,-2,3,21,15,3,-9,-2
50832266634,-10,-1,0,-12,0,3,-24,-9
50832282954,11,6,3,19,4,7,-7,10
50832282954,7,-5,-9,-33,-5,-6,-5,0
50832284591,-6,-5,3,20,-1,-6,-6,16
50832284591,3,2,2,7,0,-1,-15,-4
50832297279,11,-1,-1,-12,1,-3,-13,5
50832297279,-4,1,-4,-3,2,3,38,-20
50832304056,2,2,-4,-25,-9,-2,-13,-25
50832304056,6,-2,-3,4,-2,-4,4,22
50832319822,-14,-5,4,25,2,-3,-2,1
50832319822,-13,0,0,-17,-3,-1,-43,-21
50832326732,22,0,-8,-18,-5,-4,-46,-8
50832326732,1,-2,1,28,3,4,26,16
50832343166,9,0,1,0,0,2,1,-27
50832343166,-36,-5,-4,-22,-2,-4,-19,-1
50832344649,4,1,-5,-23,-12,-7,4,17
50832344649,8,3,3,12,-3,1,-34,-7
50832357460,0,-2,-2,16,20,6,15,-5
50832357460,9,1,3,2,-1,-3,-23,22
50832364260,-18,-4,-6,-23,-3,1,22,-1
50832364260,7,2,1,-8,0,-2,1,-13
50832379950,-1,-3,-3,4,0,-1,6,11
50832379950,-13,3,0,-15,-5,1,1,-4
50832386747,6,1,2,25,6,4,23,12
50832386747,-27,-10,-3,20,1,-7,23,37
50832402972,-9,-1,-5,-35,-6,-1,-30,-40
50832402972,23,2,-2,-14,-3,1,-6,78
50832404709,8,-4,-2,9,-1,-2,-15,-23
50832404709,-31,-4,3,16,7,-1,-4,-43
50832417478,11,1,3,7,-3,-3,-37,17
50832417478,9,-1,-2,8,-5,-2,31,-14
50832424296,4,0,-1,-16,2,7,1,31
50832424296,12,-1,-5,-10,0,2,-3,-3
50832439996,1,0,5,10,-13,-4,-6,24
50832439996,6,0,-2,-25,6,2,-7,-47
50832446808,16,-3,-1,-3,-3,1,6,-9
50832446808,-21,-4,-3,4,0,-3,-12,-13
50832463105,-5,-2,-5,-3,-3,-4,17,21
50832463105,10,-3,9,52,8,-4,-16,33
50832464623,-6,1,2,-2,0,-1,12,-15
50832464623,17,4,-2,-24,-3,1,6,-8
50832477395,-16,-4,-5,-11,-2,-2,2,-8
50832477395,-8,-1,-4,-2,-12,2,34,-6
50832484288,3,-2,1,10,5,0,8,19
50832484288,-8,-2,-5,-28,-3,0,-18,-20
50832500006,5,-1,2,9,1,0,10,-5
50832500006,-10,-2,1,14,3,-4,-19,18
50832506793,7,2,1,7,-4,1,7,-1
50832506793,20,4,1,-11,-2,-1,-3,21
50832523189,-30,-13,-6,-2,-3,-9,-20,-16
50832523189,-21,-4,-1,-4,-6,-6,-19,-18
50832524629,6,3,-1,-9,10,4,-30,-14
50832524629,25,4,0,-6,-4,1,8,21
50832537487,10,0,1,11,0,-1,10,17
50832537487,-1,-4,-5,-27,-7,-3,-32,3
50832544287,-5,-1,6,39,4,-5,17,26
50832544287,-6,-1,-4,-31,-7,-1,7,-12
50832559994,3,0,-3,-6,0,0,2,-22
50832559994,5,0,1,11,4,0,19,-35
50832566825,-3,-2,-1,1,-8,-5,-2,-17
50832566825,2,-3,2,19,5,2,-12,-7
50832582332,-20,2,-2,-11,-4,0,45,26
50832582332,5,-2,-4,-14,-1,-1,-1,10
50832583225,-34,-4,0,2,-4,-1,26,-16
50832583225,21,1,-4,-33,-1,1,5,14
50832598103,5,-2,-2,5,1,-2,-44,-31
50832598103,-14,-1,1,-2,0,-2,-19,-25
50832604282,15,1,-1,8,-3,-2,-10,21
50832604282,-2,0,0,17,-2,-5,-13,14
50832620625,19,0,-1,-7,3,1,31,19
50832620625,-14,-2,-2,-1,-4,0,-31,17
50832626805,5,0,-1,-14,6,8,-7,-8
50832626805,-2,1,-1,7,-7,-2,-10,-21
50832642465,-31,-4,0,11,5,-6,-6,-14
50832642465,20,3,0,3,2,0,19,-1
50832643038,19,3,-4,-13,-6,-4,-5,35
50832643038,-41,-13,-3,21,-1,-4,13,17
50832658090,-7,0,1,-11,-2,1,9,-44
50832658090,12,3,2,-1,2,5,16,22
50832664279,-10,-1,-8,-34,-9,-3,7,-40
50832664279,11,-7,0,24,0,-8,0,2
50832680624,-5,-1,2,41,0,-3,-9,-4
50832680624,1,-3,0,-6,0,-2,10,-3
50832686859,12,-1,-3,-24,-8,-5,-4,31
50832686859,-6,1,-1,-6,-3,1,-1,-11
50832702438,-14,-3,-3,-28,-5,3,-11,-41
50832702438,-5,-2,0,16,-6,-1,12,-3
50832703062,7,-2,1,20,0,-5,7,-24
50832703062,-3,-3,-5,-26,-5,-3,-5,-1
50832718530,19,4,1,1,2,4,-7,31
50832718530,13,4,1,13,1,2,13,-17
50832724284,-28,-10,-4,5,-4,-2,70,19
50832724284,3,1,1,-4,-4,-4,9,7
50832739181,4,0,-7,-21,-1,0,-11,13
50832739181,7,0,3,5,5,-1,-14,-26
50832746809,-16,-4,-2,1,-4,-5,-24,24
50832746809,6,4,3,6,3,0,-2,11
50832762380,36,1,0,6,-1,0,4,-22
50832762380,-67,-7,-5,-6,-2,-4,-9,-6
50832763100,15,4,2,9,-3,2,-12,-5
50832763100,-1,-2,-4,-16,13,3,1,-27
50832778088,5,3,1,-26,-8,-8,-34,-2
50832778088,26,1,-1,19,5,2,12,33
50832784270,-9,-3,0,-38,-1,0,-22,-9
50832784270,-6,3,-2,32,6,4,-21,-28
50832799313,-1,-3,6,42,5,-2,18,15
50832799313,-10,-1,-6,-30,-5,-2,-15,-2
50832806895,3,1,2,8,1,-3,-22,-1
50832806895,-7,-1,-3,-28,-4,-6,4,26
50832822454,-1,0,-5,-14,-5,-1,3,-3
50832822454,10,2,1,8,-1,2,2,-13
50832823046,-17,-5,-7,-8,-1,-3,-23,-34
50832823046,-4,-1,1,12,-2,-2,-27,7
50832838089,-7,-1,-1,6,0,-2,23,14
50832838089,7,1,1,3,-5,0,-26,15
50832844226,15,2,-2,-1,1,1,28,-11
50832844226,-11,-3,-2,-7,-2,3,3,-23
50832859282,-12,-1,0,2,-2,-1,5,-1
50832859282,15,-2,-2,-5,-8,-2,2,4
50832866843,-7,-1,-1,7,7,1,-20,-24
50832866843,4,5,5,11,1,4,23,15
50832882345,18,-4,-5,-16,-6,-3,-7,8
50832882345,-13,-5,2,10,4,2,-9,3
50832883188,-1,-1,-4,-3,-5,-5,-9,-8
50832883188,-17,-3,0,-18,-6,-1,0,-2
50832898086,-1,0,-1,11,7,1,13,-21
50832898086,-5,-2,1,25,5,-6,-9,19
50832904274,-14,-6,1,16,-2,-2,36,10
50832904274,21,3,-4,-21,-1,0,-10,-2
50832919234,4,1,-2,-8,-6,1,-2,7
50832919234,4,2,1,-2,-3,-4,-23,-1
50832926787,-6,-2,0,0,-2,-3,-27,-18
50832926787,2,-1,-1,-7,-5,-2,4,0
50832941853,-11,-2,0,0,0,-1,13,17
50832941853,-1,-1,-3,-3,0,-3,-21,-6
50832949249,1,3,-1,-7,-3,2,-11,-5
50832949249,9,1,-1,-16,0,0,0,11
50832958096,3,-2,0,13,3,-1,-23,17
50832958096,-4,-3,-2,3,0,-4,14,24
50832964311,13,-1,-1,-4,-5,-3,-1,1
50832964311,-20,-4,-2,-1,-8,-1,5,6
50832979157,-3,4,1,-7,2,5,13,23
50832979157,29,2,-2,-4,1,3,19,7
50832986762,-37,-2,-2,1,-2,-4,-20,-15
50832986762,8,-3,-2,1,-4,-2,0,7
50833001799,-15,-4,-2,3,-1,1,-12,-29
50833001799,4,0,0,-10,2,0,7,-18
50833009284,21,5,2,-3,1,-1,4,0
50833009284,-1,-2,-5,9,1,-1,-24,-7
50833018100,-8,-2,0,5,1,-3,-43,-12
50833018100,-5,-1,-1,-16,-3,-1,10,-13
50833024298,4,-1,-1,-8,0,0,6,5
50833024298,3,2,3,8,0,-2,15,-7
50833039214,5,-2,-4,-1,-2,-1,-14,-14
50833039214,-2,-2,-4,-8,0,2,4,-7
50833046828,8,0,1,6,2,1,1,16
50833046828,-12,0,0,4,6,0,-1,-6
50833063096,17,1,-1,-8,-5,-4,16,60
50833063096,-16,-1,0,12,4,1,-5,-59
50833069294,-22,-2,-4,-12,-13,-5,26,31
50833069294,-10,-5,4,30,11,1,-6,-32
50833078127,-13,-1,1,-1,3,2,16,-8
50833078127,8,2,-4,-16,-5,-4,26,2
50833084273,4,-2,0,-2,-4,0,6,7
50833084273,6,1,-3,-6,-2,3,12,1
50833099313,-3,-1,0,-7,0,0,5,-8
50833099313,1,0,0,9,0,-1,-5,-9
50833106841,5,2,1,-12,1,2,-6,-26
50833106841,10,-3,-3,12,-6,-6,-13,21
50833121739,-17,-2,2,5,2,1,1,-5
50833121739,-15,-1,-1,-8,2,2,-30,8
50833129346,14,-1,-2,-5,1,-1,-7,12
50833129346,12,1,-2,-27,-8,-2,-9,1
50833144933,-23,-3,1,17,1,-2,3,-4
50833144933,-11,-4,4,17,-1,-4,-34,5
50833145531,4,0,-1,2,1,-4,-3,4
50833145531,17,2,-3,-11,-9,1,11,-1
50833159253,10,2,-3,-14,5,1,5,16
50833159253,-4,-1,-2,-16,-7,1,18,-7
50833166796,-11,-6,2,38,9,-2,-28,-29
50833166796,-7,0,-1,-1,-1,-3,51,27
50833181887,11,1,0,-9,-4,0,10,3
50833181887,3,1,-3,-4,-1,0,-10,5
50833189252,10,0,-3,-32,-5,-2,-12,4
50833189252,-17,-2,0,-9,-1,2,-14,-56
50833204954,-4,-6,-4,17,-4,-5,4,-12
50833204954,17,3,8,44,11,0,16,20
50833205677,23,3,-4,-17,-6,-3,2,17
50833205677,-19,-6,-4,-6,-2,-4,0,2
50833219207,-4,-2,0,-11,0,1,6,-18
50833219207,6,2,-1,-3,-4,2,-6,-3
50833226742,-1,0,-1,3,2,1,38,13
50833226742,-11,-1,0,11,-3,-6,-10,-3
50833241823,7,0,-1,-2,-5,-6,-2,16
50833241823,7,0,-8,-33,-15,1,18,-8
50833249217,-7,-3,10,59,17,3,-43,-17
50833249217,-6,-2,-3,-19,2,1,43,0
50833264861,-2,-1,-3,-3,-4,-1,19,-21
50833264861,-2,-1,1,-10,-4,-5,9,54
50833265567,10,-1,-4,-8,-6,-2,13,-29
50833265567,0,1,0,14,3,2,-3,7
50833279271,4,-1,-3,-10,-2,-1,-10,-21
50833279271,-3,-4,-6,-23,-1,0,14,-12
50833286748,-21,-5,-5,-5,-4,2,13,-24
50833286748,-13,-3,2,19,-2,-3,-9,12
50833301721,12,2,0,-11,1,1,-11,-25
50833301721,3,-2,-3,-3,2,0,-15,11
50833309285,-5,-4,-1,6,1,2,52,-29
50833309285,-27,-3,0,-2,1,-3,-6,-50
50833324957,15,2,-2,-17,-2,-2,-38,-3
50833324957,2,-3,0,24,3,0,-3,-1
50833325535,-2,2,6,24,3,-3,-21,34
50833325535,25,3,-3,-14,-2,0,-7,31
50833339077,-8,-1,1,-8,-5,3,31,-8
50833339077,-6,-3,-2,2,5,-2,-2,-15
50833346635,-15,-2,-3,-11,-9,-3,-13,1
50833346635,22,2,3,-18,2,3,-45,-4
50833361747,-7,0,0,11,4,-1,9,9
50833361747,5,3,0,-14,-11,-3,-2,-8
50833369298,20,-1,0,14,0,0,-3,10
50833369298,-26,-2,1,2,2,-2,-1,39
50833384935,-13,-1,-1,6,-1,0,-40,-30
50833384935,-14,-4,-1,0,6,4,-4,10
50833385566,5,1,-1,0,3,-2,1,17
50833385566,2,-3,-1,2,-4,-4,-15,9
50833399290,2,-1,0,-4,-2,-2,1,8
50833399290,0,2,-1,-11,-4,-1,12,8
50833406834,-9,-1,-4,-7,-4,-1,-10,20
50833406834,9,0,2,9,3,-2,-20,3
50833421879,1,-1,0,15,-4,1,-12,-20
50833421879,0,-1,-2,-3,-5,0,7,6
50833429226,-13,-3,-5,-17,2,2,-12,-15
50833429226,21,0,-2,0,-5,-4,11,-22
50833444922,-11,-3,-1,0,2,-2,1,33
50833444922,-2,-3,-2,1,-3,-6,-22,-23
50833445550,-3,5,4,-10,-2,0,-14,-20
50833445550,26,2,-3,-9,-1,2,10,-4
50833459274,-30,-5,-2,-7,-10,-6,0,6
50833459274,-11,-4,2,44,14,-3,10,-23
50833466596,-1,0,1,9,5,3,-8,8
50833466596,7,4,0,-3,-2,0,30,-21
50833481757,20,3,-1,-12,1,3,38,-10
50833481757,11,4,-1,-24,-7,-1,8,2
50833489257,-18,-6,-7,-14,-1,-4,4,-18
50833489257,-8,-3,1,2,0,-3,5,15
50833504820,4,0,-2,-7,1,0,-21,-16
50833504820,-3,-1,5,33,3,-4,6,-23
50833505581,4,2,2,2,-1,-1,-9,13
50833505581,5,-1,-6,-45,-9,0,-5,6
50833519223,18,2,-6,12,4,-3,-1,12
50833519223,12,-4,2,14,3,-1,-1,41
50833526738,-55,-4,0,-4,-5,-4,-10,-46
50833526738,-6,-1,-6,-35,-1,2,39,-33
50833541717,-1,-8,-3,9,3,-3,-10,50
50833541717,2,3,-1,-17,-3,3,-15,-34
50833549269,25,1,-3,1,-6,-1,5,24
50833549269,-6,1,4,38,4,2,-34,-20
50833564894,20,4,1,-12,1,4,25,46
50833564894,-25,-5,-9,-35,-4,-1,1,-21
50833565489,13,-1,-1,19,-5,2,1,8
50833565489,-15,-4,3,38,20,6,-16,7
50833579309,3,-3,0,16,-4,-7,20,-10
50833579309,-2,-3,-1,3,-1,-3,-15,14
50833586732,14,8,-3,-64,-10,-2,0,-1
50833586732,42,-1,-7,9,-6,-5,-2,45
50833601579,-90,-12,2,27,-3,-1,-7,-40
50833601579,-2,0,-1,-10,-1,1,3,-19
50833609111,5,-5,-3,-30,-2,-4,3,6
50833609111,-2,-2,3,16,-1,-4,0,-7
50833624844,16,4,2,-10,-3,0,-15,5
50833624844,2,0,-3,-1,-2,0,32,11
50833625607,11,3,-2,-35,0,3,-1,10
50833625607,-6,-1,1,25,0,-2,11,-8
50833639139,-5,-2,4,39,5,-3,-20,-41
50833639139,4,1,2,-7,-4,-3,-17,18
50833646694,-10,-5,-4,5,0,-2,-2,17
50833646694,-14,-3,-3,-26,-5,-2,7,-7
50833661692,12,2,-1,-14,-5,-1,-33,25
50833661692,18,1,1,13,10,5,12,-4
50833669331,8,0,4,11,0,3,15,-2
50833669331,-89,-14,-15,-36,-5,-6,-43,-87
50833684851,19,2,3,6,2,-2,-17,13
50833684851,1,1,-3,-22,-9,-3,1,22
50833685610,12,3,-2,13,2,1,12,6
50833685610,15,1,7,19,2,1,28,27
50833699246,-3,-2,-7,-9,-3,-4,13,-15
50833699246,-14,-4,-3,-20,-5,-5,-17,9
50833706630,-10,0,3,31,8,7,16,36
50833706630,24,4,4,4,-2,0,-13,5
50833721555,-19,-4,-6,-24,-4,-2,19,-15
50833721555,-7,-4,-3,-4,-6,-4,-14,-9
50833729192,3,1,-1,7,2,-2,-36,1
50833729192,0,-2,2,12,-5,0,39,17
50833744892,3,-1,0,-1,18,10,10,15
50833744892,-3,0,-3,-1,-3,-3,-20,-12
50833745584,6,-1,-1,11,-4,-5,-8,-28
50833745584,6,1,-2,-8,4,6,-7,35
50833759211,13,0,-2,-15,-9,-2,1,-28
50833759211,-9,-4,-1,11,-1,-4,3,7
50833766687,3,-2,-1,1,-2,-1,-3,15
50833766687,10,3,2,5,-1,1,-5,-1
50833781609,6,-1,0,-2,1,1,5,11
50833781609,-14,1,3,8,4,3,-2,-18
50833789219,3,2,-4,-18,-6,-5,2,-15
50833789219,2,-6,-4,15,2,-4,2,34
50833804741,-14,0,3,9,1,-4,-16,-39
50833804741,3,-6,-1,-4,-3,-4,31,5
50833805547,3,2,3,3,-10,0,-5,-7
50833805547,16,4,-1,-13,12,9,-19,45
50833819064,-9,0,-4,-62,-12,5,29,-48
50833819064,-18,-3,-5,26,8,-2,-22,-11
50833826810,-10,-9,10,77,8,-10,21,-37
50833826810,8,2,-1,-12,-13,-6,-18,-16
50833841642,22,1,1,-3,0,3,5,27
50833841642,-32,-1,-4,-30,-6,4,-54,-9
50833849330,-17,-6,-4,-21,1,3,58,0
50833849330,0,-1,-4,7,1,-3,9,-4
50833864907,7,0,-1,5,-3,-9,-8,16
50833864907,13,-1,-1,-6,-13,-4,-6,53
50833865528,-5,0,-2,10,9,9,0,8
50833865528,0,-1,3,15,2,0,-8,-9
50833879294,12,1,-2,3,2,0,-6,3
50833879294,11,1,-2,7,2,-3,18,12
50833886765,-10,-5,-5,-17,-8,-8,-20,26
50833886765,-32,0,-1,-24,-13,-2,10,-42
50833901579,4,0,3,10,9,5,-10,-10
50833901579,-1,-3,-1,-1,-5,-1,21,-13
50833909221,7,3,-2,-7,1,1,31,35
50833909221,8,0,1,-2,-2,-2,-47,13
50833924121,-9,-5,1,11,-4,-4,30,5
50833924121,-1,3,1,-12,0,1,-2,-25
50833932499,16,4,-4,-33,-7,2,-8,4
50833932499,-20,-12,-3,57,14,-6,-39,-36
50833939300,-8,1,2,6,-6,0,-5,13
50833939300,10,-1,0,-4,4,4,9,11
50833946557,-10,0,-2,-10,-4,-6,-18,-68
50833946557,30,5,0,-22,-9,-1,18,26
50833961761,-5,-1,-3,-2,0,0,-16,61
50833961761,-4,-1,0,11,2,0,7,-32
50833969271,10,1,0,-14,-5,-6,-43,-24
50833969271,3,1,-6,-34,-7,3,-2,-23
50833984233,-6,-4,9,80,11,-1,-10,22
50833984233,13,7,3,0,1,-1,4,0
50833992428,27,-4,-3,-11,-1,-1,10,25
50833992428,-68,-5,-4,-9,-10,0,-13,-67
50833999255,2,3,-2,-20,-3,5,10,-14
50833999255,21,-2,3,31,5,-2,-17,24
50834006835,-3,-2,1,5,3,-4,3,-1
50834006835,-12,-2,-6,-43,-18,-5,11,53
50834021566,-14,-3,-5,-9,7,0,-13,-49
50834021566,-11,-1,4,23,9,-4,10,-6
50834029206,10,0,-4,-12,-14,1,-38,11
50834029206,17,-2,1,30,10,5,16,22
50834044228,-21,-6,-4,-13,-7,-4,11,3
50834044228,29,2,0,-37,-9,-7,-1,13
50834052458,-44,-6,-8,-8,7,-5,-17,-12
50834052458,23,5,12,44,-1,7,-1,32
50834067273,25,4,0,-30,11,2,-23,-8
50834067273,-33,-11,-7,-1,-5,-4,-8,-20
50834068023,12,3,4,-3,-3,-6,20,53
50834068023,-12,-2,1,6,1,-5,13,-60
50834081707,22,3,1,10,2,4,-6,40
50834081707,7,0,-2,-12,-4,5,17,-9
50834089137,-62,-12,-7,6,-1,-3,-5,-17
50834089137,26,0,1,1,4,-5,2,35
50834104207,-48,-5,-5,-19,-11,-2,21,-30
50834104207,15,3,1,25,10,10,20,-2
50834112433,27,5,-1,-46,-8,0,24,7
50834112433,-2,-4,-14,-40,-8,-10,-5,9
50834127412,7,-9,14,83,-1,-6,-9,-2
50834127412,-34,-5,-1,-5,-2,7,27,-3
50834128048,25,5,8,23,34,11,12,0
50834128048,17,5,-4,-24,-4,-7,-15,-50
50834141752,-13,-3,-11,-46,-18,-7,10,17
50834141752,3,-2,-1,5,1,-4,-26,-10
50834149214,-7,1,3,8,-5,0,-11,-37
50834149214,11,3,-2,-25,-6,-6,11,4
50834164301,11,-1,2,39,14,0,-18,-17
50834164301,-8,1,5,23,3,7,21,26
50834172384,-32,-8,-7,-3,-1,0,-7,6
50834172384,-31,-5,3,-7,0,3,17,-31
50834187269,-3,3,-7,-32,-9,-2,5,-39
50834187269,6,-4,5,33,1,-7,-21,27
50834188073,17,1,6,19,-2,0,15,-17
50834188073,8,10,-6,-43,1,7,-18,23
50834201655,18,-3,4,44,8,-5,22,42
50834201655,-42,-5,-12,-3,-3,-8,-17,-47
50834209301,29,-1,3,10,-12,6,-4,1
50834209301,-78,-6,3,7,9,4,10,-13
50834224231,-3,0,-11,-53,-10,1,-4,27
50834224231,12,-1,0,-3,0,-4,4,11
50834232318,8,0,2,20,-1,-4,4,0
50834232318,16,2,-8,-21,-7,3,5,4
50834247408,16,-7,6,25,-21,-5,-9,6
50834247408,-14,-1,-6,-32,13,2,-1,17
50834248072,-5,-1,-8,-1,5,-1,-33,-5
50834248072,22,-3,12,52,14,0,-29,3
50834261716,-5,1,-7,-42,-12,-3,36,10
50834261716,20,3,1,-8,-4,1,9,-9
50834269211,-37,-5,-8,-34,-9,-1,10,-19
50834269211,10,1,1,4,8,6,-2,8
50834284117,-2,0,-4,-11,6,4,-21,-21
50834284117,20,1,9,30,-4,-2,18,10
50834292424,26,4,-4,-22,-2,-3,15,26
50834292424,-72,-17,-4,60,5,-15,-23,-57
50834307404,-1,0,0,-21,-3,0,8,-15
50834307404,9,2,-3,-20,-7,-2,-4,41
50834307983,14,8,-4,-85,-14,7,-33,-6
50834307983,21,-4,-3,75,2,-8,19,10
50834321552,8,2,13,30,23,7,-18,17
50834321552,18,4,-5,-33,-22,-2,16,-60
50834329202,-50,-14,-1,18,6,-6,-18,-42
50834329202,14,4,-5,-76,-16,-1,-47,2
50834344137,4,0,-8,-15,0,-1,6,21
50834344137,10,0,6,32,-6,-5,13,-5
50834352397,10,4,-7,-16,2,7,13,56
50834352397,28,-1,4,21,5,3,17,-18
50834367432,-20,1,-5,-39,-14,-5,-8,23
50834367432,-29,-4,-5,-17,2,-1,-29,-14
50834367982,-21,-10,-2,46,4,-9,-6,-26
50834367982,21,2,9,28,13,7,9,45
50834381620,13,0,-1,12,-1,-3,-24,29
50834381620,-8,0,-6,-45,-4,4,15,-18
50834389260,-3,-1,1,4,-6,-3,3,-2
50834389260,11,6,-3,-70,-13,3,21,-19
50834404230,24,4,-11,-49,-10,-3,-17,-8
50834404230,-21,-15,12,77,31,-2,-3,19
50834412355,17,2,10,34,25,8,4,-14
50834412355,34,5,0,-57,-12,0,14,5
50834427283,-64,-7,-12,6,-5,-5,-21,-50
50834427283,28,8,-2,-37,-11,1,-53,15
50834428047,2,-8,0,58,0,-9,7,16
50834428047,4,-2,6,37,4,-1,7,20
50834441539,8,3,-1,-19,-3,0,21,-1
50834441539,-2,-3,-5,-4,-7,-6,12,-19
50834449224,2,3,2,-13,-6,0,-6,-32
50834449224,-4,0,-10,-23,-1,0,-8,-25
50834464214,-24,-11,10,58,3,-8,-4,3
50834464214,-7,-2,-2,10,0,3,2,-16
50834472375,-15,3,-2,-13,-2,-1,6,-8
50834472375,20,-2,-7,-33,-11,-6,-17,34
50834487274,-20,-1,1,-2,-7,5,34,-46
50834487274,-19,3,-4,-28,4,1,-5,35
50834488157,-19,-10,-5,32,3,-9,-12,-23
50834488157,-8,-5,6,30,3,-4,-19,15
50834501615,10,1,-1,-11,3,2,30,-30
50834501615,-1,0,-5,-41,-13,4,4,36
50834509235,27,8,2,-41,-5,4,4,18
50834509235,5,-1,-2,16,1,-1,17,6
50834524214,-27,-10,-1,40,8,-3,-19,-20
50834524214,15,-1,-4,-33,-7,-3,-7,-25
50834532386,-5,-1,3,17,4,-4,5,1
50834532386,-6,2,11,30,-4,6,7,-1
50834547315,25,1,-1,-7,27,7,14,6
50834547315,-18,-3,-9,1,-3,-5,-15,-22
50834548045,-21,-5,1,24,-4,-9,-7,6
50834548045,19,3,-6,-115,-28,1,31,27
50834561550,-30,-2,-3,71,14,3,-4,-63
50834561550,2,-8,5,39,8,-8,29,39
50834569201,14,4,1,-26,1,6,-52,14
50834569201,-13,-2,-2,6,-5,-7,11,-45
50834584204,11,-2,-8,-50,-7,6,44,104
50834584204,-8,2,-3,-11,0,1,-23,-62
50834592320,38,1,2,23,-14,-3,11,7
50834592320,-67,-7,-3,1,11,0,-18,-15
50834607346,27,2,-5,-27,-10,-4,-27,38
50834607346,10,-2,8,51,10,-1,-9,-1
50834607926,-7,-7,-6,-16,-7,-3,24,41
50834607926,-31,0,0,12,-7,-1,-10,-18
50834621731,20,2,1,10,19,5,22,6
50834621731,-14,-1,3,-1,-1,-3,-65,27
50834629162,18,0,-13,-53,-8,-3,19,10
50834629162,12,-7,10,121,7,-6,17,-6
50834644073,16,8,3,-36,-9,0,-62,17
50834644073,15,2,-1,5,0,3,-4,16
50834652399,-18,-2,0,-26,0,2,-6,-92
50834652399,-47,-3,-11,-75,-8,1,-1,-34
50834667331,19,1,0,35,2,-5,-39,1
50834667331,3,-6,11,46,11,-1,28,33
50834668025,2,4,-2,-14,-1,4,1,6
50834668025,18,-3,-5,-16,-3,-6,12,51
50834681678,-7,1,-1,-25,-15,-4,-1,-65
50834681678,2,5,-3,-21,-10,6,32,-18
50834689127,8,0,3,23,3,4,3,34
50834689127,14,4,3,21,11,3,36,24
50834704234,-9,4,2,-61,-15,0,2,-20
50834704234,-1,-5,-17,-54,-18,-9,5,-21
50834712390,-72,-20,10,109,27,-2,41,28
50834712390,34,4,-1,-56,3,6,-22,-21
50834727230,-15,-3,-4,11,-9,-8,-22,-2
50834727230,16,4,2,1,-6,-2,42,7
50834728139,5,2,-8,-43,-4,2,-5,13
50834728139,1,-3,-2,25,5,-2,-9,9
50834741680,-1,-2,-2,-28,-6,-3,23,-9
50834741680,8,2,-7,-49,-9,3,-10,-7
50834749248,17,6,3,48,-11,3,-2,-34
50834749248,10,-9,-5,-1,21,-6,24,41
50834764204,-74,-11,7,61,11,-5,-26,-30
50834764204,3,0,2,-7,9,1,5,-12
50834772353,9,4,-2,-30,-15,-6,-31,-10
50834772353,9,1,-3,-7,-7,2,12,-22
50834787218,36,3,-3,-24,-5,-3,37,13
50834787218,-30,-7,-3,-9,2,-4,-17,22
50834788067,-9,3,-3,-6,1,4,29,-8
50834788067,21,-1,7,48,-6,-7,-13,-4
50834801560,-6,-3,-3,-17,3,-3,5,-20
50834801560,4,0,12,93,21,13,15,-18
50834809152,31,-1,-4,-44,-2,-4,-5,7
50834809152,-43,-6,-4,2,-12,-10,-32,7
50834824182,16,1,2,-1,-1,2,12,-33
50834824182,12,4,-7,-61,-10,-2,-36,4
50834832404,-5,-5,-1,18,3,-2,3,-19
50834832404,-9,2,1,12,12,3,-22,-3
50834846740,11,0,0,-2,-9,-5,3,17
50834846740,0,1,-4,-24,-4,3,-3,16
50834854900,-24,-3,2,27,5,-3,-13,6
50834854900,-2,-4,-6,-7,-4,-2,5,10
50834861671,21,1,3,7,2,0,-48,27
50834861671,10,0,-2,4,2,-2,29,-18
50834869167,-2,-2,-2,-31,-8,-4,15,35
50834869167,-19,-1,-5,-6,-6,1,2,-35
50834884187,-36,-9,2,-14,-4,-5,-28,13
50834884187,7,-3,1,48,5,-5,25,0
50834892414,-3,-1,1,0,5,4,-20,3
50834892414,15,3,2,-1,4,11,35,8
50834906643,14,1,0,1,12,6,18,22
50834906643,-11,-3,-2,-18,-13,-6,-18,-7
50834914907,2,1,0,3,-4,-3,-3,-13
50834914907,8,0,-2,-11,-2,-3,-13,3
50834921631,2,0,-1,-5,-9,0,26,2
50834921631,4,0,-4,2,3,2,-6,35
50834929211,-3,-6,1,20,1,-5,14,11
50834929211,-20,-1,1,-1,-2,0,-1,-8
50834944203,8,2,-3,1,-2,-2,-17,-20
50834944203,6,0,4,5,-2,0,-62,-24
50834952466,-20,-3,-4,-8,4,-2,18,-19
50834952466,11,-3,0,4,0,-5,-15,-48
50834966806,-49,-8,-4,3,-6,-5,7,63
50834966806,15,2,2,-4,3,5,-9,9
50834974793,2,-1,-6,-23,-9,-3,-15,-17
50834974793,3,-2,1,-2,-3,-5,5,7
50834981528,20,3,2,12,6,1,12,-18
50834981528,-10,-2,-5,-13,-8,-2,16,6
50834989077,13,1,0,-8,0,2,-21,1
50834989077,-11,-2,-3,9,5,1,3,6
50835004094,-5,-1,3,12,-9,-3,-7,-13
50835004094,-18,-5,-2,-2,-2,-2,-7,-20
50835012317,4,4,3,-1,4,3,7,-10
50835012317,16,3,-3,-12,-2,4,2,24
50835026532,17,-3,-4,-5,-2,2,-4,-32
50835026532,-52,-5,0,17,4,-3,9,-57
50835034898,-4,-4,-3,6,0,-2,21,65
50835034898,-2,-3,-3,-12,-6,-3,9,24
50835049781,18,5,0,-1,2,2,7,11
50835049781,22,0,-1,-9,-3,-1,27,-6
50835050520,-22,-3,-1,-7,-6,-1,3,-22
50835050520,19,3,2,0,-2,0,-30,15
50835064155,-34,-3,-12,-32,-3,3,-12,-32
50835064155,7,-5,5,50,11,0,6,1
50835072292,-11,-2,0,-5,-3,-3,13,1
50835072292,1,4,2,2,-1,2,-15,10
50835086778,36,7,2,-18,-5,1,20,44
50835086778,-22,-8,-12,-32,-3,-5,-32,-43
50835094905,-42,-6,8,45,7,-4,26,-56
50835094905,2,-2,1,3,0,-1,7,-9
50835109697,16,3,0,0,0,-2,-7,18
50835109697,22,4,-4,-23,-12,-3,3,51
50835110467,21,-3,-4,-8,-3,1,-11,27
50835110467,-18,-3,-2,-1,2,-1,31,-28
50835124174,2,-1,2,15,2,2,-2,1
50835124174,15,4,-1,-21,-7,-3,-8,-2
50835132307,17,-3,-3,39,5,-2,-23,12
50835132307,-39,-5,-2,-5,-9,-4,9,-30
50835146748,-4,-1,0,7,15,2,-6,-8
50835146748,-14,-3,-1,-4,-7,-2,8,39
50835154807,16,5,-2,-27,2,6,-15,-7
50835154807,6,-3,-5,-3,-3,-4,-6,2
50835169829,13,-2,2,11,-4,-9,-6,-39
50835169829,-19,-2,-2,-2,-1,-2,-23,6
50835170458,3,0,-1,-11,-3,7,-16,22
50835170458,7,-2,1,11,6,2,-12,16
50835184179,-7,-1,0,-2,-2,-3,33,-9
50835184179,18,0,2,3,2,-1,25,15
50835192399,-1,0,-3,-14,-7,-5,-15,-18
50835192399,-1,0,0,6,0,1,-11,29
50835206697,-11,-5,-3,3,-3,-3,-15,-12
50835206697,2,-2,-3,-3,-5,-2,10,-1
50835214875,0,1,-2,-6,-6,-1,13,-2
50835214875,1,0,1,1,5,-1,12,-13
50835229804,15,1,1,0,-8,0,-10,17
50835229804,-15,0,0,-4,8,11,24,7
50835230415,-8,1,3,19,2,-6,6,-26
50835230415,15,-3,-15,-61,-11,-2,-23,8
50835244230,-8,-3,2,49,1,-7,-13,-24
50835244230,-11,-2,6,28,-2,-5,3,-42
50835252336,7,0,-4,-19,2,0,-5,39
50835252336,19,4,3,23,0,-2,13,-20
50835266738,-9,-3,-5,-35,-5,3,-9,9
50835266738,11,2,2,3,1,4,10,-15
50835274946,18,5,-1,-24,-1,4,3,-3
50835274946,6,-5,-7,20,0,-6,-18,-26
50835289785,-19,-6,1,1,0,3,9,-1
50835289785,-27,-4,-2,7,1,0,-22,-8
50835290491,-1,3,3,-1,-3,1,-19,-11
50835290491,4,2,-1,-13,1,7,37,38
50835304155,15,4,3,5,4,1,44,1
50835304155,9,1,-7,-21,-7,-1,10,25
50835312346,-55,-12,1,55,6,-8,-10,-61
50835312346,-5,-2,2,1,-4,-4,-47,-25
50835326700,11,-3,-1,4,0,-2,15,20
50835326700,1,3,0,-19,-3,-1,-10,-30
50835334896,25,1,-7,-35,-7,0,8,26
50835334896,-16,1,6,14,1,-2,-15,-26
50835349863,-55,-9,-3,9,0,-9,-27,-35
50835349863,24,-3,-4,-7,-4,-2,-34,32
50835350536,7,1,3,7,3,0,-15,-38
50835350536,-3,-2,-1,-21,-4,0,-10,18
50835364224,14,3,-1,-25,-11,6,3,-7
50835364224,-2,1,5,40,18,1,-1,-27
50835372355,-5,-3,1,22,3,-2,-21,23
50835372355,8,3,6,10,1,2,39,26
50835386680,16,1,-8,-13,-10,1,-30,60
50835386680,-36,-6,-1,-12,-4,-4,-12,-82
50835395495,0,-4,-2,-9,-6,-1,28,48
50835395495,1,1,-2,-25,-4,0,-19,-24
50835409185,8,-2,-7,2,1,-2,9,14
50835409185,10,3,8,13,3,-1,-6,7
50835417968,2,-3,-9,-7,2,2,10,45
50835417968,-14,-5,2,32,-4,-3,35,-68
50835424100,-10,0,-1,-21,0,-2,-14,-16
50835424100,4,-3,-1,-2,2,2,8,38
50835432992,23,3,-3,-32,-10,-5,-10,-12
50835432992,-1,0,6,38,8,3,7,13
50835446612,9,-3,1,26,5,-1,-1,4
50835446612,-33,-4,-4,-14,-6,-6,-5,-9
50835455438,13,4,0,-18,-2,1,28,9
50835455438,22,3,-5,-7,-3,7,5,19
50835469197,-5,-3,2,5,11,2,-48,-13
50835469197,-2,-1,-2,-8,-7,-4,-9,1
50835478017,22,4,3,-2,3,2,-5,2
50835478017,-19,-4,-2,0,-1,-3,-1,-42
50835484206,-53,-5,-2,-3,-6,-5,-12,34
50835484206,21,0,-3,5,0,3,8,63
50835492971,10,-2,-1,-10,-4,0,-16,-52
50835492971,-35,-3,-4,-22,1,-3,-19,-3
50835506688,-5,-2,2,16,1,-3,-6,-22
50835506688,13,0,0,-3,-1,-3,39,28
50835515520,-4,-3,5,34,6,-5,-25,-5
50835515520,12,-3,-1,-33,-2,0,2,31
50835529197,13,4,-5,-15,-1,0,-9,-29
50835529197,0,-6,2,35,-6,-6,-23,13
50835538020,-3,3,0,-9,-4,-1,29,3
50835538020,-3,-4,-6,-15,-2,-6,-3,-1
50835544088,-3,2,5,13,-2,1,-6,8
50835544088,21,8,-1,-24,1,12,2,-36
50835552971,-35,-13,-11,-14,-4,-6,-10,-7
50835552971,-32,-1,6,10,2,-4,-20,0
50835566707,28,3,-10,-13,-5,0,46,2
50835566707,0,-6,0,27,0,-5,-17,15
50835575504,5,-1,-1,-7,-2,-2,-4,22
50835575504,15,3,-1,-9,-1,-2,12,-12
50835589177,-2,2,3,-3,-5,-2,5,-14
50835589177,9,0,-1,-8,2,4,5,-30
50835598007,-6,-2,-3,-13,-1,1,-2,-11
50835598007,-7,-3,1,27,-1,-2,-9,15
50835604189,0,3,0,-24,5,1,-11,6
50835604189,28,-3,-12,-15,-5,-5,43,36
50835613023,-56,-5,4,18,2,-2,2,-51
50835613023,-38,-5,-7,-16,-11,-1,-45,20
50835626719,13,3,4,3,11,5,-7,-2
50835626719,11,8,-3,-43,-6,2,-10,-39
50835635517,-14,-5,-3,26,1,-4,-4,53
50835635517,17,-1,6,39,7,-1,-7,13
50835649157,-1,2,1,3,-2,0,-30,11
50835649157,-9,1,-6,-31,-7,-2,18,-9
50835657997,14,-2,2,24,1,0,-24,-24
50835657997,3,0,1,12,4,2,15,46
50835664172,19,2,0,2,-2,-2,19,-7
50835664172,27,0,1,-9,-1,-1,-23,-17
50835673001,-83,-8,-8,-37,-13,-4,9,-19
50835673001,25,0,-2,-13,4,2,5,19
50835686654,-29,-4,0,-13,-1,0,14,-29
50835686654,21,6,1,29,-1,1,-10,17
50835695517,28,-1,3,32,5,-3,-12,6
50835695517,-12,-4,-6,-30,-8,-6,10,11
50835709212,-1,-2,-2,-2,-12,-4,0,-17
50835709212,-25,-3,-1,24,19,1,-12,-8
50835718001,45,10,5,-17,0,5,31,65
50835718001,44,2,-6,-20,-6,-3,2,-17
50835724064,-69,-13,-8,-16,-10,-5,1,-7
50835724064,-31,-7,6,43,0,-6,-13,1
50835732999,33,5,-2,-22,0,2,-36,-28
50835732999,12,0,-5,-15,-3,4,5,23
50835746561,35,3,4,28,3,2,56,9
50835746561,-30,-2,-1,-15,2,1,-8,-5
50835755473,5,1,0,13,6,2,-1,-4
50835755473,25,5,1,-8,-4,-1,8,2
50835769159,-7,-1,1,8,1,-2,-18,-8
50835769159,-4,-1,-3,-23,-4,2,43,-5
50835777974,15,-3,-9,-87,-14,-2,11,0
50835777974,-49,-6,1,45,7,0,-27,-52
50835784160,28,-5,5,62,10,-3,-5,27
50835784160,8,3,3,-6,-5,-2,-13,-14
50835793000,25,3,-4,-12,-5,4,6,6
50835793000,-2,0,-1,-18,-1,-1,9,24
50835806724,-16,-1,-5,-47,-9,-4,-19,-35
50835806724,4,-2,-2,-5,3,-1,-47,-8
50835815466,-12,-4,0,33,0,-3,9,14
50835815466,-2,-1,1,24,8,5,5,-13
50835829074,24,4,5,16,9,5,22,31
50835829074,2,-3,-8,-24,-10,-6,7,-27
50835837975,-39,-3,-1,4,-3,-4,58,10
50835837975,12,4,2,-5,1,-1,-18,-7
50835844194,-18,-9,-14,-26,-11,-5,1,-2
50835844194,6,4,5,8,-1,3,13,3
50835852982,-6,-4,3,28,1,-6,-40,7
50835852982,12,1,3,4,0,-1,-19,-38
50835866674,0,3,-5,-25,-3,3,6,-5
50835866674,18,-2,-10,-18,-6,-2,-9,-6
50835875450,-22,1,5,41,6,0,8,7
50835875450,-18,-2,-3,-5,1,-3,-9,-12
50835889835,11,2,8,25,1,0,-3,-9
50835889835,14,5,-4,-76,-6,3,-4,1
50835896711,-13,-4,-10,-1,-7,-4,-16,-5
50835896711,-39,-8,-1,26,3,-7,0,-56
50835904222,1,-3,6,44,9,3,79,18
50835904222,-5,-2,0,12,-12,-3,-2,16
50835912965,36,8,-2,-46,7,11,-10,0
50835912965,34,6,-3,-48,-10,0,0,31
50835926619,-13,-13,-5,69,6,-9,-4,15
50835926619,-46,-8,1,14,6,0,4,-14
50835935460,13,4,1,3,-1,2,4,-16
50835935460,2,-5,-4,-15,-8,-5,3,2
50835949801,30,6,2,-20,0,-3,-10,30
50835949801,5,-2,0,11,-1,-2,-2,7
50835956664,-6,-1,1,-4,-3,-1,16,-10
50835956664,-24,-3,-5,12,5,4,22,-16
50835972927,-13,-2,-2,-35,-9,-2,-22,-17
50835972927,-4,-3,1,35,5,-4,-44,-5
50835974481,26,-1,2,9,-2,1,20,18
50835974481,9,2,-1,-17,-4,3,10,33
50835986675,7,-1,-3,-6,4,2,7,-4
50835986675,-42,-3,2,4,0,-1,-1,-6
50835995478,20,2,2,5,3,1,-9,-6
50835995478,4,0,-4,-25,-8,-3,-8,10
50836009644,5,0,-7,-33,-7,-3,-48,-7
50836009644,8,-5,3,58,6,-7,7,24
50836016441,8,4,5,22,-11,-4,-17,-46
50836016441,-12,-6,-3,7,16,9,11,24
50836032826,-92,-9,-7,-41,-9,-5,-50,-56
50836032826,24,7,0,-27,-2,3,-7,-13
50836034406,3,-1,-3,-12,-8,-1,34,28
50836034406,53,5,-1,2,-2,-2,13,24
50836046979,-2,0,-4,-34,-5,-1,-3,-20
50836046979,-25,-10,0,53,8,-3,5,4
50836055427,1,2,3,11,6,0,-11,14
50836055427,21,3,0,-34,-12,-1,42,37
50836069739,-3,0,-6,-23,-4,3,18,1
50836069739,13,0,5,37,8,1,23,-15
50836076609,2,1,1,-7,4,-3,4,17
50836076609,-24,-4,-3,-4,-6,-6,-20,26
50836092827,5,-3,3,20,1,-2,-16,-23
50836092827,1,2,-4,-40,-5,1,27,9
50836094462,-5,-3,-2,12,8,-1,-57,-24
50836094462,18,3,3,-4,-3,-5,-13,-8
50836106536,0,2,3,-3,-14,0,5,26
50836106536,-10,-1,-4,-22,-1,4,27,-24
50836115519,-56,-10,-5,0,-2,-5,-13,-5
50836115519,-22,-7,3,73,10,-6,-14,-35
50836129754,46,9,3,-8,-3,4,3,14
50836129754,19,2,-1,-11,-5,-1,1,13
50836144214,-39,-7,-8,-20,-9,-6,-15,-16
50836144214,-14,-3,-1,2,0,1,28,-44
50836153008,-1,-1,3,24,5,-3,8,19
50836153008,21,6,1,-16,-2,2,-24,45
50836154457,17,0,-3,-32,-1,6,11,9
50836154457,-27,-2,-7,4,-2,-2,-5,-54
50836166554,13,-5,3,35,6,-3,5,22
50836166554,-16,-2,-3,2,0,-4,-37,-19
50836175559,17,2,1,2,-5,1,9,11
50836175559,11,2,-6,-76,-22,0,-4,23
50836189836,-20,-13,-7,58,26,-4,-3,-9
50836189836,-7,-3,4,19,0,-4,5,-10
50836196620,-22,-2,0,9,0,-4,-2,-35
50836196620,32,6,4,6,5,7,-23,-3
50836212817,18,6,-5,-52,-17,1,62,50
50836212817,-17,-10,-8,-2,-5,-7,2,21
50836214386,20,2,4,3,2,1,11,0
50836214386,-7,-3,-6,-8,0,1,2,10
50836226658,-5,-2,1,10,-1,-3,-36,-33
50836226658,-4,0,6,50,13,-2,-7,-25
50836235442,12,1,-2,-17,-7,-3,36,67
50836235442,1,-1,-2,6,0,-1,16,21
50836249745,26,4,1,-5,1,3,-12,-32
50836249745,4,-5,-7,-45,-15,-4,-2,20
50836256424,-66,-12,-12,-31,-4,-7,-34,-32
50836256424,13,4,10,70,11,-1,-21,-24
50836272819,-10,-3,2,20,4,-3,14,14
50836272819,27,3,-1,-37,-13,1,29,28
50836274399,21,2,-3,-13,9,6,-35,-13
50836274399,-16,-3,-3,-13,-2,-1,-3,-8
50836286510,14,3,1,-24,-7,-3,-11,-7
50836286510,-9,1,0,10,-2,1,69,45
50836295414,4,2,2,7,3,-1,-6,-33
50836295414,-18,-8,0,26,3,-6,-16,-35
50836309613,-12,1,0,11,4,3,29,27
50836309613,12,-2,0,-9,-1,0,-34,5
50836324158,-31,-3,0,10,1,0,3,-13
50836324158,35,3,3,-5,-4,0,-14,15
50836332949,-25,-1,-10,-48,-5,-1,-22,-14
50836332949,-17,-1,8,50,10,-4,-16,-38
50836334480,24,-5,3,36,-4,-3,-3,31
50836334480,-12,1,0,-16,-2,-4,-14,-16
50836346700,2,0,-3,-10,-1,-1,-31,-11
50836346700,6,0,-4,-31,-13,-3,4,-7
50836355481,36,10,5,23,9,6,47,14
50836355481,-14,-5,-3,-6,1,-4,16,-5
50836369816,-33,-9,-2,9,-1,-6,-34,-16
50836369816,-7,2,-4,-38,-9,-3,18,0
50836376463,9,-2,-1,8,-2,-1,-4,-4
50836376463,-50,-6,-1,-12,-7,5,20,-10
50836392805,34,2,-2,-4,1,0,33,18
50836392805,9,-1,6,55,14,-2,-29,6
50836394384,2,1,-2,-23,-7,-6,20,-11
50836394384,-1,1,-1,-9,3,5,62,15
50836406673,-3,0,0,-12,-7,1,-4,-10
50836406673,-9,-2,-6,-30,-9,-1,-5,-23
50836415421,-8,-3,1,14,2,-2,-5,18
50836415421,9,-1,2,24,4,0,-8,31
50836429880,17,2,1,-5,-4,-1,1,-11
50836429880,-17,-1,-10,-40,-7,1,-5,-19
50836436598,-7,-12,-1,56,2,-9,7,-2
50836436598,-39,-4,1,13,-4,-4,-33,-78
50836452981,12,2,5,8,9,5,-22,22
50836452981,30,3,-1,-14,-4,2,-5,19
50836454419,0,3,-8,-58,-9,4,4,-15
50836454419,4,2,-3,6,-8,-10,-19,6
50836466658,11,-7,-5,22,2,-1,12,-2
50836466658,-17,1,-1,-6,-3,-2,2,3
50836475448,9,-2,-2,-4,-1,-4,-12,-2
50836475448,3,-1,-1,-9,-1,0,-3,41
50836489642,-3,1,3,-2,-4,0,-7,2
50836489642,-22,-4,-2,2,1,-1,4,-21
50836496408,-10,2,2,19,3,0,-6,46
50836496408,11,-6,-3,17,5,-9,12,-11
50836512807,-7,-1,-2,-10,-4,-1,37,15
50836512807,-4,-2,-1,-9,-5,0,8,7
50836514424,27,7,6,-7,3,8,4,-11
50836514424,18,3,1,10,5,0,-11,-15
50836526455,-16,-1,-1,15,-5,-4,-26,11
50836526455,20,-14,1,47,15,-2,13,2
50836535410,-51,-4,-3,-30,-6,5,28,-35
50836535410,13,0,-2,-26,-4,-1,-7,16
50836549801,0,4,5,-5,-2,-3,4,-24
50836549801,13,3,-5,-10,-7,-2,-24,41
50836556617,10,-4,0,7,2,-5,-34,-1
50836556617,-31,-7,-3,-2,0,-2,4,-13
50836572772,9,1,-1,-10,0,-1,-5,-2
50836572772,1,5,3,15,1,3,1,6
50836574383,20,4,-4,-8,-7,-4,-11,3
50836574383,-13,-6,-2,34,2,-1,-29,-77
50836586584,-50,-11,-5,-15,-2,-5,-17,32
50836586584,4,1,0,-5,2,1,7,-35
50836601456,-4,3,2,-2,-1,3,32,9
50836601456,39,5,-4,-39,-4,2,23,57
50836609795,-12,-3,-3,16,-4,-4,-7,-34
50836609795,-24,-7,3,28,4,-7,-32,-10
50836616656,9,2,-3,-18,-7,-6,-14,7
50836616656,8,1,2,-18,0,14,9,23
50836632825,5,1,-1,-15,5,5,32,-2
50836632825,4,0,-2,22,-2,-4,-6,15
50836634351,-16,-5,1,20,0,-7,-6,-34
50836634351,-12,-1,-2,-12,-7,-5,-11,2
50836646611,21,2,-2,-8,-4,5,6,17
50836646611,-5,-1,-4,-26,-2,3,3,-18
50836655473,-15,-1,0,0,-5,-3,25,3
50836655473,12,-3,-1,10,6,-7,-28,-5
50836669864,0,3,1,6,4,4,-19,-38
50836669864,15,0,-3,2,-1,1,2,24
50836676483,-38,-11,-3,7,-4,-4,-13,-1
50836676483,13,6,5,-3,0,4,33,23
50836693002,19,-1,0,-1,0,-3,-3,-21
50836693002,-7,0,-1,-14,-1,3,-8,-10
50836694458,39,5,-1,-17,2,0,-16,10
50836694458,-29,-5,-11,-27,-14,-7,-4,-17
50836706512,-16,-8,8,63,0,-4,-28,-27
50836706512,4,4,5,8,18,7,21,10
50836715443,17,2,-9,-56,-6,2,-13,2
50836715443,4,-3,0,30,0,-6,5,26
50836729611,-21,-4,-4,-16,-7,-6,-2,-20
50836729611,-4,1,-2,-1,-5,-2,-6,-12
50836736371,12,-3,1,-3,1,-2,-13,-26
50836736371,-16,1,-2,-5,-2,0,75,-20
50836752104,17,-1,0,12,3,0,-14,28
50836752104,-3,-1,2,-5,-2,0,-25,0
50836758971,13,3,-1,-6,0,6,52,15
50836758971,30,5,2,-4,-1,3,-5,49
50836766457,-6,-4,-6,-20,-2,-5,20,-5
50836766457,-74,-7,-1,20,1,-2,7,-55
50836775406,6,3,2,6,-6,0,-35,-41
50836775406,-20,-8,-3,-10,-1,-3,-38,-31
50836789768,23,3,8,43,17,1,7,63
50836789768,13,-5,-7,-29,-13,-7,-21,24
50836796584,-12,0,3,-5,-5,2,-12,14
50836796584,8,2,-8,0,8,8,-20,11
50836812227,18,3,-3,-36,-3,0,11,9
50836812227,8,2,-1,-8,-5,-3,-4,10
50836819054,2,-4,1,23,10,-3,-28,-1
50836819054,-1,0,-4,-22,-9,-1,5,39
50836826539,0,-5,3,28,-3,-4,9,-17
50836826539,-29,-5,-5,-8,-4,-7,-9,-22
50836835401,3,3,0,-3,-1,4,-2,4
50836835401,7,1,3,0,3,-1,-3,-3
50836849766,2,1,-5,-16,-5,3,23,-12
50836849766,4,1,3,16,-1,-2,-27,-36
50836856631,-3,-2,3,-5,-1,2,24,33
50836856631,-29,-4,-4,5,-2,-1,-11,-5
50836872171,-13,-12,6,81,10,-10,-20,-29
50836872171,30,7,-2,-25,-3,3,16,-6
50836879117,26,-1,-3,5,2,-1,-2,-2
50836879117,-46,-6,1,-3,-10,-5,-30,-2
50836886603,-18,2,-5,-46,1,10,14,-2
50836886603,9,-4,-1,9,9,5,-2,-9
50836895406,16,2,-1,16,-1,-2,44,70
50836895406,33,5,1,2,-1,0,14,-19
50836909870,-41,-5,-6,-22,-11,-7,-23,17
50836909870,-1,-2,1,-4,0,-1,5,-3
50836916702,-10,-1,-2,33,10,1,-1,-19
50836916702,29,1,8,29,0,-3,0,14
50836932150,-20,-1,-5,-35,-8,-2,23,-1
50836932150,6,0,-1,-22,-4,1,-2,7
50836946624,-5,1,-1,-7,-6,-1,8,-21
50836946624,-9,0,-1,-11,4,-1,-6,19
50836955440,35,0,5,54,9,-1,-22,-33
50836955440,-45,-5,-3,-16,-8,-4,37,7
50836956945,-17,-5,-5,-12,-4,-4,-11,-15
50836956945,12,4,5,5,5,3,7,-19
50836969828,15,6,-2,-30,-3,3,1,17
50836969828,20,0,-3,-15,-2,-2,3,37
50836976558,-5,-3,1,15,-3,-5,-18,-32
50836976558,-13,0,2,4,2,2,5,-38
50836992271,8,-3,-4,-5,3,-2,-9,46
50836992271,-15,-2,0,15,1,-1,9,-40
50836999048,-11,-1,0,-15,1,0,-13,0
50836999048,6,-2,-5,-21,-10,-5,-30,5
50837015441,17,3,-2,-9,-4,3,14,-21
50837015441,30,6,6,13,6,8,36,41
50837017067,-14,-2,-3,-21,-2,-1,-18,-16
50837017067,-11,-11,-2,42,6,-6,-11,-2
50837029808,-8,-1,3,9,2,-1,6,-9
50837029808,12,0,-2,-2,-3,-2,-16,34
50837036532,1,0,2,-5,1,1,6,-11
50837036532,-8,-7,-4,-11,-4,-3,0,-29
50837052148,3,2,-3,-19,-4,-2,-23,-3
50837052148,0,-2,1,10,-4,-2,1,-5
50837059141,3,1,-2,9,2,0,44,14
50837059141,15,2,0,-2,3,5,28,36
50837075508,-6,1,-1,-19,-3,-4,-21,2
50837075508,-1,-2,2,19,-7,-5,-15,-13
50837076934,-15,-4,-3,-4,13,-2,-30,12
50837076934,-12,1,-2,1,-1,1,20,-20
50837089836,12,4,0,-15,-1,4,0,0
50837089836,24,0,-3,-9,0,1,1,-1
50837096429,-35,-6,-5,2,-4,-5,-28,-20
50837096429,3,-3,3,22,0,-5,8,28
50837112258,-42,-6,1,15,-1,-4,-23,-22
50837112258,6,1,-6,-43,-9,-2,-8,-12
50837119114,17,-1,-3,-3,1,0,-2,1
50837119114,-4,1,1,1,4,0,15,11
50837135412,18,3,0,-3,-3,0,34,18
50837135412,0,-1,3,27,7,-3,-4,28
50837136923,-11,-1,-4,-13,-9,-2,4,14
50837136923,-17,-4,0,15,2,-4,-15,-48
50837149737,9,-2,-2,-6,-1,-1,-40,-3
50837149737,-20,-2,0,-5,0,3,3,17
50837156720,12,-3,-5,-7,-10,-1,6,-11
50837156720,8,1,3,-2,-2,-1,-8,-2
50837172189,-7,-3,-6,-19,-8,-4,3,3
50837172189,-19,0,-3,-10,-1,0,10,-24
50837178995,11,-2,5,32,3,-1,0,30
50837178995,2,5,3,9,-2,3,-3,-13
50837195499,4,-1,-3,-33,1,0,3,-19
50837195499,-14,-4,-3,14,-3,-2,-6,-45
50837196924,13,-3,2,11,0,-3,8,1
50837196924,-35,-6,-1,14,1,-7,-16,16
50837209833,21,5,5,-1,0,5,-8,-14
50837209833,10,0,-4,-8,-3,1,77,53
50837216468,-2,-2,1,4,1,1,-24,-19
50837216468,19,3,-4,-28,-2,-1,-11,-10
50837232178,-2,-3,-1,1,-6,-3,-12,11
50837232178,11,0,-2,-8,0,-2,-11,-64
50837239096,-24,-1,2,13,3,-4,-2,-24
50837239096,-1,-4,-7,-20,-6,-1,3,12
50837255388,-28,-3,-5,3,0,-3,13,-4
50837255388,25,3,4,18,-5,-4,-13,25
50837256911,19,-2,-1,-10,12,3,4,53
50837256911,-41,-4,0,2,1,-2,-5,-43
50837269821,12,3,0,1,-1,1,3,-9
50837269821,-7,-4,-4,-7,-7,-6,-15,6
50837276559,3,2,-2,-9,-9,-3,-1,8
50837276559,21,0,0,-6,3,2,-2,10
50837292333,-16,-5,-4,11,0,-1,7,24
50837292333,-7,-2,1,8,5,2,-1,-21
50837299133,-5,2,-2,-17,-5,-3,-2,-12
50837299133,11,1,-3,-1,1,0,14,3
50837315255,7,-1,2,13,3,2,-3,-11
50837315255,-25,-3,-2,-2,-4,-3,-46,-7
50837316834,0,-2,-2,-3,-3,2,6,3
50837316834,22,4,2,5,3,3,-6,17
50837329605,4,2,5,8,0,-2,42,46
50837329605,-20,-6,-11,-32,-14,-5,-20,12
50837336438,-23,-5,4,40,20,4,-1,-45
50837336438,-10,-4,-5,-20,-3,-2,-13,-38
50837352225,9,-2,2,34,0,-7,-22,-5
50837352225,7,5,3,6,5,-3,-24,12
50837358879,12,2,-6,-49,-13,-2,24,-4
50837358879,-6,-2,-4,7,-6,-1,-6,-9
50837375289,-3,-3,3,16,10,-5,-6,23
50837375289,6,-2,-1,1,0,-1,9,-33
50837376854,-8,-1,2,15,9,1,-21,-3
50837376854,-6,0,-1,-15,-7,-4,-58,2
50837389063,6,3,-5,-26,-14,12,56,2
50837389063,5,0,-1,-1,6,0,23,36
50837397947,-26,-6,2,13,-2,-4,-11,7
50837397947,18,-1,-2,8,-5,-5,-4,23
50837412075,-16,-7,-1,41,-3,-8,-17,-19
50837412075,15,2,4,1,9,10,15,4
50837418967,23,4,1,-8,-6,-2,11,14
50837418967,3,-3,-3,-20,-5,-3,6,2
50837435380,-53,-5,-5,-15,-7,-4,-10,-23
50837435380,-1,-6,0,22,4,-5,1,-11
50837436901,3,0,-1,5,0,-5,-28,-8
50837436901,12,4,4,-1,1,6,16,9
50837449129,22,-1,-9,-37,1,4,-14,-2
50837449129,-11,-4,-2,1,-3,-4,20,12
50837458012,1,2,-8,-22,-8,-5,-31,-38
50837458012,17,0,1,3,4,5,-18,35
50837472302,-26,-3,-9,-23,-2,-1,-8,-15
50837472302,-4,-2,4,12,-1,-4,-5,-9
50837479145,2,-3,0,10,-12,-6,4,2
50837479145,3,1,3,-4,3,-3,16,-15
50837495468,21,4,1,6,8,8,-9,13
50837495468,-10,-4,-2,13,5,0,-5,-17
50837496893,8,2,-3,-24,-8,-3,2,54
50837496893,3,0,-3,4,0,-2,-14,-8
50837508921,-23,-5,4,15,1,-1,-5,-4
50837508921,10,4,2,-8,1,3,21,-7
50837517978,12,-1,-1,-32,-2,6,2,-3
50837517978,-25,-3,-3,12,4,2,5,0
50837532207,24,0,2,9,0,-8,3,11
50837532207,-26,-4,-1,4,-2,-3,-53,-3
50837539051,-3,-1,1,-8,-3,4,22,11
50837539051,-1,1,-2,-22,-2,4,3,-10
50837555287,13,1,-1,-1,3,-1,0,-25
50837555287,-5,0,-2,-8,0,0,-14,-4
50837556857,-20,-2,-2,13,2,-6,-15,7
50837556857,-2,-1,0,-8,-8,-5,-6,2
50837569101,10,-2,-1,-1,-4,-1,20,33
50837569101,9,0,1,1,4,5,40,-5
50837577923,-7,-3,-2,-1,0,1,7,-28
50837577923,-9,-4,-2,12,3,2,2,-45
50837592347,3,1,1,-21,1,2,-8,1
50837592347,10,3,-4,-14,-7,-3,-27,16
50837606543,9,1,1,6,4,1,28,5
50837606543,-9,-4,0,26,5,-4,7,-1
50837615481,-4,-1,1,-11,-5,-3,14,-16
50837615481,-3,-1,-3,-18,-7,-3,-19,-10
50837616903,10,-1,-1,15,2,2,-14,1
50837616903,-4,1,2,-14,0,-2,-1,-7
50837629105,18,1,-3,-2,-3,-1,-10,-9
50837629105,-18,-2,-5,-42,-8,-1,-44,14
50837637916,-13,-3,-6,-4,-3,-7,1,-15
50837637916,-18,-3,12,73,9,-2,3,27
50837652106,32,2,2,-8,0,2,-4,-10
50837652106,-24,-8,-6,2,-4,-3,15,9
50837658872,-2,-3,-4,-26,-4,-4,-24,-32
50837658872,8,2,-4,-25,-6,-3,9,14
50837674740,-7,0,0,3,-1,2,6,-8
50837674740,11,1,2,14,-1,-2,8,-29
50837681491,-1,-2,2,17,2,2,15,50
50837681491,9,1,-6,-16,-3,0,14,1
50837689051,-21,-3,-3,-3,-5,-3,-17,-6
50837689051,22,3,-1,-5,-1,2,56,-3
50837697955,-22,-3,0,10,0,0,-1,19
50837697955,14,1,-4,-18,-4,-3,13,-6
50837712282,-27,-2,0,5,0,0,-16,-54
50837712282,-1,-4,1,17,7,-3,8,1
50837719176,12,-1,0,23,-5,-5,-34,-28
50837719176,-2,0,-1,-13,9,8,39,3
50837734646,18,-1,-4,-15,-5,0,4,31
50837734646,-10,1,1,-7,0,3,3,-11
50837741548,14,7,3,13,5,3,-6,-33
50837741548,5,-5,-4,4,-4,-3,-40,37
50837749112,-26,-5,-3,1,-5,-6,-12,10
50837749112,19,1,3,13,5,1,-42,-45
50837757921,-40,-5,-5,-21,-4,-1,6,10
50837757921,25,8,-1,-42,-11,4,15,17
50837772208,17,0,-6,6,-1,-1,4,38
50837772208,-65,-12,14,93,9,-12,-47,-33
50837779103,12,-3,-2,-7,-1,3,61,22
50837779103,-8,-1,0,-2,-5,-7,-15,-22
50837794837,29,6,1,-26,-3,4,7,20
50837794837,9,1,-10,-39,-9,2,-9,22
50837801407,-4,0,6,28,4,-2,-15,-29
50837801407,-8,-3,-1,-22,-2,-5,3,9
50837817975,-3,-2,-4,17,-1,-1,7,-3
50837817975,14,-2,-2,-7,3,2,17,16
50837819429,-5,-2,0,4,3,0,-17,-10
50837819429,19,0,-1,-4,-4,-3,-45,-17
50837832269,-29,0,1,4,2,1,-7,6
50837832269,20,1,-1,-7,1,2,18,24
50837839041,-8,1,-2,-25,-5,-1,16,-6
50837839041,-18,-7,-3,22,0,-1,-41,-56
50837854805,-20,-6,2,13,2,-4,-17,-22
50837854805,14,4,-3,-10,-12,1,11,61
50837861405,6,-1,-1,-9,13,3,-17,-15
50837861405,8,3,3,10,3,3,13,12
50837885417,-14,-4,-3,1,1,-4,-20,-15
50837885417,12,0,-3,-16,-5,-1,24,11
50837886870,13,1,-4,-7,-6,-4,-11,-9
50837886870,-23,-5,-4,-7,-2,2,-3,12
50837892247,13,1,4,20,3,-1,-21,-4
50837892247,2,-1,-3,-14,2,-2,20,27
50837899100,15,0,0,10,-2,1,-8,4
50837899100,-4,0,-6,-13,0,1,2,0
50837914563,-14,-5,-2,-25,-6,-2,-7,5
50837914563,2,1,-2,11,3,-2,-49,-4
50837921530,-19,-6,1,20,2,-4,21,19
50837921530,-22,-1,2,12,0,-1,25,-5
50837938021,21,5,-2,-25,-1,0,6,-13
50837938021,-4,-2,-5,-6,-11,-4,10,-22
50837939355,-5,-2,-3,2,9,2,-23,53
50837939355,8,-2,-2,10,-1,-6,0,5
50837952327,-4,-2,0,-8,-4,-2,25,-13
50837952327,-1,0,-2,-8,2,1,8,-22
50837959192,13,3,0,-5,-12,-4,13,20
50837959192,-4,0,1,11,7,4,2,3
50837974847,-10,-5,-8,-18,0,-2,-7,17
50837974847,16,4,5,18,0,-1,50,9
50837981543,3,-5,-4,-8,-4,-3,-12,-14
50837981543,-13,-2,1,9,2,0,38,-13
50837997870,2,5,1,-5,-1,4,19,-8
50837997870,-17,-9,-4,10,0,-3,-42,-22
50837999300,17,3,0,-2,0,1,23,9
50837999300,12,0,0,-7,-5,-6,-5,-2
50838012210,-5,-1,-2,1,-3,-2,12,-20
50838012210,8,2,1,-21,-1,4,-9,50
50838019047,-3,0,-6,1,2,3,8,-2
50838019047,-12,-8,5,43,3,-7,-59,6
50838034544,1,-3,-2,4,-1,0,41,17
50838034544,-8,-1,-3,-10,-3,0,-18,-1
50838041400,10,3,1,-4,0,3,-2,7
50838041400,29,5,-2,-18,-8,-6,2,3
50838057742,-39,-4,2,12,-7,-1,-23,-17
50838057742,-11,-3,1,18,10,2,-3,-1
50838059362,7,-4,-9,-49,-8,-7,8,0
50838059362,-4,-2,-8,-31,-13,-1,5,-6
50838072143,17,1,6,38,12,4,11,26
50838072143,-1,-2,-2,13,-1,-2,-33,-40
50838078892,-22,0,4,10,3,1,-7,-34
50838078892,6,0,-2,-15,-3,-1,46,5
50838094662,14,4,-4,-29,-6,-2,-13,-12
50838094662,11,-2,-2,0,1,-2,8,24
50838101372,-16,-2,4,26,5,-1,-27,-65
50838101372,-7,-3,-3,-11,1,2,-3,13
50838117893,4,-1,1,3,0,-1,23,4
50838117893,18,-1,-2,-10,4,1,13,-4
50838119302,-52,-7,-2,-2,-10,-8,-2,-41
50838119302,4,-1,-2,1,-2,0,6,26
50838132289,15,1,0,3,3,0,-14,2
50838132289,29,6,0,-15,-6,0,11,12
50838139004,-23,-7,-2,4,-3,-2,6,-8
50838139004,-30,-8,1,28,6,-3,-14,-57
50838154584,8,-2,3,-1,0,1,-11,39
50838154584,-16,0,-6,-22,-4,-1,-8,-20
50838161374,21,0,-3,4,-3,1,20,21
50838161374,9,4,1,7,4,2,23,4
50838177881,8,0,1,0,-1,-2,-8,9
50838177881,-11,-3,-4,-12,-4,0,53,37
50838179438,17,2,-2,-12,-3,-1,-3,0
50838179438,24,1,2,24,-8,-2,-2,30
50838192129,-68,-6,-4,-2,11,0,-9,-92
50838192129,8,1,2,-2,1,1,-8,12
50838199099,6,1,-2,-5,0,-2,-32,1
50838199099,-2,-3,0,5,-3,-2,31,40
50838215403,2,1,0,16,1,-2,1,4
50838215403,-13,-4,-1,4,-1,-4,-3,-19
50838221366,3,2,1,2,0,-1,15,3
50838221366,13,5,-3,-30,-3,1,-12,2
50838237287,20,3,-1,-4,-8,-2,8,13
50838237287,-4,-8,0,29,1,-9,-9,-33
50838237893,-19,-6,-6,-11,-1,0,7,16
50838237893,-18,-1,2,-4,6,2,-12,-17
50838252943,11,-1,0,14,-3,-3,-12,-10
50838252943,8,3,0,-6,-5,-4,5,5
50838259052,12,1,2,0,-1,0,-55,-2
50838259052,-28,-5,-5,-7,-3,-1,4,-20
50838274083,17,2,-2,-8,-1,-2,-7,32
50838274083,16,4,0,-7,0,2,13,20
50838281595,-48,-5,-2,-3,3,5,-7,-65
50838281595,-4,-1,1,23,7,0,-21,-33
50838297211,11,-5,-1,-11,-6,-6,-4,29
50838297211,-19,-4,-1,7,-4,-5,0,-2
50838297867,2,1,3,-13,-4,4,36,38
50838297867,10,2,1,2,2,0,1,-14
50838312906,-7,-2,-2,-2,-2,-1,19,5
50838312906,3,0,-1,-5,3,1,-6,-9
50838319094,23,4,-1,3,-5,-5,36,-20
50838319094,15,5,-1,-20,-9,0,10,60
50838333935,-7,-7,-4,-3,0,-1,-20,-11
50838333935,-82,-11,-5,0,-3,-3,-8,-31
50838341373,18,0,6,22,1,1,60,50
50838341373,9,0,-7,-44,1,2,-3,-8
50838357190,20,0,5,57,6,-2,6,21
50838357190,14,0,0,-2,-2,-4,-10,8
50838357917,-1,-1,1,5,-2,-7,-23,-10
50838357917,8,1,-4,-20,-1,2,6,8
50838372872,8,1,-3,-25,-6,2,49,-18
50838372872,-17,-2,-1,7,6,7,2,-9
50838378926,18,0,1,1,-2,-3,-22,13
50838378926,-23,-6,-3,6,-2,-6,-16,-42
50838393829,2,-1,-3,-16,-8,-2,-3,-14
50838393829,3,0,4,17,7,4,-8,5
50838401361,17,2,0,-4,1,-1,7,16
50838401361,7,0,-1,2,-3,-1,-14,1
50838417191,-18,2,-2,-9,-3,-2,-6,4
50838417191,-3,-1,-3,-22,-8,-2,-7,-30
50838417853,9,4,-2,2,-1,2,-43,-5
50838417853,-11,-7,1,22,1,-1,-22,23
50838432846,-26,-4,-2,-13,-5,-9,-69,-19
50838432846,10,-4,-1,8,4,2,2,2
50838439023,9,-1,-1,-2,6,3,-13,-33
50838439023,4,0,2,4,-2,0,4,14
50838454115,7,3,1,-6,1,2,0,-8
50838454115,-7,0,-3,-24,-7,0,-16,4
50838461508,2,-2,-2,4,-2,-4,-8,-9
50838461508,6,1,3,12,3,-1,4,-3
50838477082,-1,-1,-2,-9,2,5,12,25
50838477082,11,2,0,-4,-5,-5,-24,-41
50838477914,-14,-1,3,-13,3,13,24,27
50838477914,11,3,2,4,-2,-2,5,4
50838492875,-10,-9,-3,27,7,-4,-15,21
50838492875,-23,-6,-1,11,-7,-6,34,-31
50838498927,1,0,-3,-33,-4,-6,1,-4
50838498927,4,-3,-1,12,2,-1,-11,4
50838515347,23,2,0,-10,0,3,16,-19
50838515347,15,4,-1,1,0,0,-6,14
50838521474,-24,-4,-3,-4,-4,-3,-4,-2
50838521474,3,0,-2,-8,-1,1,16,2
50838537278,-23,0,-2,4,0,-2,3,-26
50838537278,1,1,1,-1,0,2,-2,13
50838537817,4,1,1,10,-1,-6,-18,-3
50838537817,6,4,2,-2,2,4,11,-4
50838552965,24,3,-3,-24,-5,5,8,21
50838552965,-32,-10,-4,1,-1,-6,-32,22
50838558849,-44,-11,-1,24,2,-6,3,-10
50838558849,-6,-4,-1,1,-3,-7,-25,5
50838574055,2,4,4,-1,-1,3,5,-15
50838574055,46,7,-1,-18,0,7,23,39
50838581513,2,-2,-4,-5,-3,-5,-10,-14
50838581513,-23,-5,-3,-7,-6,-6,-9,-27
50838597193,2,-1,-1,-4,-2,-3,-2,0
50838597193,6,1,-1,2,1,-1,3,0
50838597964,4,0,-1,7,1,-2,-35,-4
50838597964,9,-1,-2,-3,-2,1,23,36
50838613370,-10,-5,-4,-12,5,8,82,59
50838613370,6,-7,-1,14,2,-4,-14,-43
50838619027,-37,-2,3,3,1,2,-3,21
50838619027,-16,-3,-1,9,3,0,-13,-29
50838634039,-1,-2,1,8,-3,-5,-30,-12
50838634039,6,3,-1,-19,-4,2,7,13
50838641401,31,1,-3,-3,-1,1,32,49
50838641401,0,1,0,-5,-2,-3,-6,-6
50838656387,-15,-2,-1,7,1,-1,-11,-40
50838656387,-1,0,1,7,2,3,6,13
50838663882,11,0,-2,-8,-6,-2,9,-46
50838663882,2,2,2,4,2,3,39,44
50838672878,15,1,-1,-7,1,5,0,36
50838672878,-33,-6,-5,2,-6,-6,-24,-69
50838678845,-5,-2,4,16,6,-6,-9,22
50838678845,5,-2,-7,-10,-12,-1,7,-27
50838693965,-12,0,3,25,16,3,5,-13
50838693965,24,2,-2,-10,-3,2,1,32
50838701333,-5,-1,-2,-8,-5,1,4,-3
50838701333,-6,-2,-2,-9,-4,-5,-12,-20
50838716413,10,2,-1,-18,-6,-3,-27,-9
50838716413,8,3,0,15,1,-1,-23,10
50838723993,14,-1,-5,-37,-6,0,5,24
50838723993,-13,-3,2,29,7,-1,-15,-15
50838732900,9,-9,-1,17,4,-5,-24,-17
50838732900,-52,-3,1,-10,-4,-5,-11,-40
50838738963,20,4,-5,-14,-4,0,17,-5
50838738963,16,0,-1,-15,-2,2,-19,-9
50838753980,1,-1,-7,-37,-8,-3,-16,29
50838753980,23,-1,6,48,7,-1,17,25
50838761486,-17,-1,0,3,1,-1,6,-8
50838761486,-11,-5,-5,-22,-8,-4,-24,-39
50838776525,-13,1,-5,-8,-10,-3,65,11
50838776525,12,0,4,21,3,-1,-4,9
50838783915,12,0,-2,9,2,4,20,12
50838783915,-24,-7,1,-6,1,-4,-11,11
50838799733,6,5,1,-7,-4,-1,-23,-19
50838799733,8,-1,-8,-29,-6,2,-19,18
50838800329,-24,-5,1,4,-3,-5,-1,-27
50838800329,0,0,5,23,1,-1,-1,-6
50838814043,8,-1,-2,-19,0,-3,-15,28
50838814043,-22,-1,0,8,2,2,7,-63
50838821525,25,6,2,-7,-2,1,-25,29
50838821525,22,-2,1,25,3,3,34,6
50838836314,-48,-8,0,3,-2,-3,-18,-5
50838836314,29,6,3,-9,5,5,-16,19
50838844036,1,-3,-4,-8,-13,-6,3,-16
50838844036,6,5,-3,-23,-5,4,10,58
50838859692,6,-4,5,58,9,-4,-27,-42
50838859692,-18,-5,0,3,-6,-9,15,-12
50838860396,3,-2,-4,-10,-1,-1,-16,-4
50838860396,19,5,-1,-14,-2,3,9,0
50838873955,4,2,-2,-4,0,6,6,-10
50838873955,-36,-6,-3,-15,-5,-6,3,23
50838889717,0,-2,1,10,-2,-4,2,21
50838889717,5,0,-2,-1,-3,-9,-5,-22
50838896482,2,0,0,-16,-7,0,11,5
50838896482,20,2,-4,18,8,8,-18,-12
50838904092,-23,-4,-1,3,12,5,40,-4
50838904092,-25,-5,-4,-6,-3,-4,-11,4
50838919703,14,-1,3,10,-6,-5,-6,7
50838919703,-7,-3,-3,-21,-8,-3,-7,6
50838920495,18,-1,1,10,-3,1,-6,-8
50838920495,-2,0,-2,-2,4,1,-22,-11
50838934057,4,5,-1,-12,0,1,-24,-14
50838934057,14,-4,0,4,-4,-2,40,-29
50838941542,-19,-7,-1,23,2,-4,-17,5
50838941542,-4,1,-3,-27,-4,-3,8,-4
50838956309,9,2,1,1,2,2,-13,0
50838956309,32,7,-1,-2,0,2,34,10
50838963807,-26,-8,-3,23,-2,-6,-22,-38
50838963807,16,-4,2,21,8,-1,-13,-6
50838979500,-50,-5,-2,-2,-1,1,56,16
50838979500,-1,-3,-2,-24,-5,-3,-9,-13
50838980262,-10,3,-2,-18,-6,-2,-38,-11
50838980262,7,-2,-4,-3,-1,2,-9,27
50838993837,5,1,2,3,2,2,-1,-25
50838993837,1,2,-4,-22,3,2,-9,39
50839001483,13,0,-1,-6,-3,-3,-8,-2
50839001483,5,-1,1,6,2,0,-24,-12
50839016320,1,-1,1,18,-4,-6,-50,-26
50839016320,-37,-6,-3,-8,7,2,10,-14
50839023839,24,5,3,13,2,2,18,10
50839023839,5,0,-2,-7,-3,1,31,5
50839039538,-44,-9,-5,-11,-2,-6,4,-12
50839039538,22,3,3,37,0,1,-4,-5
50839040339,6,-1,-4,-34,1,3,39,64
50839040339,12,1,-1,-22,0,1,4,-18
50839053822,-71,-5,-7,-22,-11,-6,-8,-61
50839053822,0,-3,11,78,10,1,42,41
50839061338,15,-7,-7,2,3,-2,30,1
50839061338,-42,-4,0,1,-7,-5,2,10
50839076310,46,4,-4,-42,-3,3,15,33
50839076310,-4,6,-6,-42,-10,-4,-17,-23
50839083812,36,7,8,39,7,2,9,33
50839083812,-37,-9,-4,-8,3,-3,0,-18
50839099488,-1,-4,-1,15,-5,-4,0,8
50839099488,18,5,-7,-75,3,4,-14,-9
50839100268,24,3,6,49,7,4,-13,7
50839100268,-60,-9,-2,21,-2,-11,-10,-69
50839113855,14,2,5,26,8,6,9,44
50839113855,19,0,-1,-16,-12,-3,-5,2
50839121348,13,6,0,-38,-3,1,-40,4
50839121348,8,2,-8,-22,-3,3,24,53
50839136342,4,-7,0,17,-6,-5,-33,-3
50839136342,-17,-8,-5,9,1,-9,3,2
50839143836,-24,-6,-4,-7,-5,-4,-43,-20
50839143836,-4,3,3,8,-2,1,-1,-26
50839159506,38,1,-2,-5,4,1,-41,20
50839159506,-59,-5,-5,-13,-8,-3,-16,-13
50839160340,-16,-1,-1,-6,-3,-2,-21,-18
50839160340,20,4,1,8,-1,-1,-11,18
50839173815,34,6,-2,-16,-3,2,32,22
50839173815,15,-1,1,10,2,-2,-14,0
50839181308,-39,-3,-4,-17,-5,-2,21,-46
50839181308,2,-1,1,16,-3,0,-4,26
50839196361,-9,-8,-4,16,11,-2,-11,-17
50839196361,10,2,8,14,2,5,-4,31
50839203811,-6,-4,-4,-26,-4,-3,19,-32
50839203811,21,0,0,5,-1,-2,10,7
50839219492,-7,0,0,13,6,0,-24,-23
50839219492,-2,-2,0,14,-7,-6,-9,9
50839220285,15,9,2,-38,-3,6,0,8
50839220285,9,2,-2,-2,2,2,-12,-24
50839233836,-30,-6,1,13,-3,-5,15,-6
50839233836,-16,-8,-7,-6,-3,-2,11,-26
50839241336,7,0,5,22,2,-4,-17,-15
50839241336,9,0,-5,-13,-6,2,-1,15
50839256341,18,10,5,-18,4,2,-33,12
50839256341,50,-1,1,19,4,0,14,62
50839263833,-83,-10,-8,-24,-21,-5,16,-37
50839263833,-35,-5,-2,2,19,0,25,-29
50839279458,17,-2,1,12,0,-4,18,-6
50839279458,15,5,2,-1,-1,0,-32,-1
50839280240,35,2,3,24,2,2,24,7
50839280240,2,-3,1,-16,-4,0,-24,18
50839293799,-15,4,0,-21,-5,2,24,-23
50839293799,-10,-6,-6,-16,-2,0,80,28
50839301310,17,3,1,-11,3,6,20,76
50839301310,24,-2,1,28,3,-3,1,11
50839316311,-35,-12,-3,13,-11,-11,-53,-14
50839316311,-16,1,2,3,6,4,-1,-21
50839323811,13,1,-3,-10,-1,-2,16,-16
50839323811,15,4,-3,-10,2,4,21,4
50839339473,33,2,-3,-5,-12,3,22,52
50839339473,-11,-2,-1,2,-2,-6,-29,-63
50839340260,-78,-14,-8,-9,3,-6,4,-24
50839340260,10,5,8,6,0,-1,-15,9
50839354059,5,-2,1,19,-6,0,-12,-27
50839354059,11,2,1,2,0,2,-31,33
50839361518,22,7,4,5,6,10,-9,-19
50839361518,-26,-19,-10,11,-9,-15,-8,9
50839376611,-3,6,4,-8,4,-1,1,3
50839376611,26,2,3,-9,-3,2,-5,3
50839383920,-33,-10,0,30,3,-7,-23,-27
50839383920,11,8,2,-30,-11,9,-17,-15
50839399573,14,-2,-4,-13,17,8,70,34
50839399573,-45,-5,5,33,-1,-7,17,-64
50839400267,-10,-10,-27,-26,-8,-11,-67,-19
50839400267,-1,-1,3,-1,1,-5,-25,23
50839413884,17,5,-6,-45,-9,5,-15,12
50839413884,29,4,4,23,15,7,25,4
50839421473,-3,-3,8,38,1,-8,11,15
50839421473,-1,2,1,-4,-6,-1,-31,-25
50839436575,9,2,-2,-24,2,0,50,-24
50839436575,-19,-8,-16,-40,-9,-5,-8,51
50839444036,-6,-4,5,13,1,8,-16,12
50839444036,-6,-1,0,9,3,-1,16,4
50839459042,5,1,-1,-2,-7,-6,-5,3
50839459042,18,7,2,-6,-2,0,-25,11
50839467144,40,1,-3,-8,-5,-4,33,66
50839467144,-5,-4,-4,-1,-3,1,3,-21
50839473999,-61,-4,0,16,18,9,23,-28
50839473999,-24,-6,-4,-25,-7,-2,12,-40
50839481529,24,10,3,-8,-1,-2,-20,-31
50839481529,18,-5,7,70,6,-5,-30,29
50839496547,-79,-16,-2,34,-2,-9,19,-51
50839496547,4,1,2,4,-1,-4,9,-14
50839504053,14,6,1,-40,-10,8,22,-9
50839504053,24,7,-2,-37,-2,2,7,0
50839519628,45,1,-2,15,2,0,0,52
50839519628,-22,-8,-3,-20,-9,-4,2,2
50839520330,6,2,0,5,1,3,16,12
50839520330,24,3,0,-2,0,0,49,8
50839534041,-70,-11,-4,-3,-7,-9,-11,-36
50839534041,3,4,6,4,5,5,-7,-1
50839549730,19,-3,-8,5,0,-2,-30,-9
50839549730,-10,-3,-4,-10,-2,-2,13,20
50839556521,34,4,2,-10,-1,4,-10,-3
50839556521,-1,6,0,8,5,5,76,22
50839564034,-7,-1,9,13,-1,-1,36,26
50839564034,-17,-19,1,-43,2,-3,-57,-1
50839579062,14,-6,0,31,3,-8,-11,0
50839579062,20,4,3,-3,-17,-1,-21,22
50839587159,27,1,3,8,23,11,23,-20
50839587159,-69,-3,-7,-30,-5,2,11,6
50839594021,35,3,10,17,1,1,-15,14
50839594021,-28,-13,-24,-17,-4,-9,-25,-28
50839601372,16,3,-2,-5,-7,-4,-14,21
50839601372,19,3,-6,-18,-7,-5,25,12
50839616501,4,3,1,11,-4,-1,-19,-5
50839616501,-12,-2,7,31,8,6,-7,20
50839624007,-17,-2,-1,-8,1,3,-4,-21
50839624007,3,3,-3,5,-2,-4,-7,-21
50839638960,19,2,2,-26,-5,0,-5,3
50839638960,28,3,-1,3,-11,-9,1,1
50839647154,-1,-6,0,18,1,-8,-30,-10
50839647154,-5,-3,4,25,8,4,-15,-35
50839653975,-61,-3,-8,-16,-4,2,45,-5
50839653975,-4,-8,-9,-21,-10,-5,-22,-7
50839661456,-15,-3,1,5,3,0,18,-8
50839661456,27,8,5,15,-1,2,32,13
50839676390,19,4,3,-7,-3,-3,-18,-5
50839676390,8,-5,-18,-12,1,-2,-24,-13
50839683987,-49,-3,2,-15,-5,0,23,12
50839683987,14,6,8,9,6,4,-4,6
50839699026,26,-1,-4,-17,-4,3,49,45
50839699026,-35,-8,0,-4,0,-10,-21,-81
50839707094,-7,-5,-1,41,4,-7,-7,42
50839707094,-3,0,-3,-8,2,2,-34,-29
50839722164,9,5,4,3,0,0,-23,-19
50839722164,13,5,1,-8,-3,8,14,74
50839722764,7,-6,-7,-37,-10,-1,-27,-2
50839722764,-83,-10,-3,-1,-10,-7,1,-67
50839736524,32,1,5,33,6,-4,-11,42
50839736524,27,4,0,-6,4,4,6,24
50839743971,-22,-2,-2,4,-10,-4,-21,-18
50839743971,11,0,0,-4,2,2,29,-20
50839759069,8,-4,-11,-24,-11,-8,33,71
50839759069,-13,-5,4,4,-2,-8,-57,-61
50839767186,11,6,7,16,-3,-1,-32,40
50839767186,21,2,-10,-46,-3,1,-9,-16
50839782166,-15,-8,-5,5,3,0,-19,-42
50839782166,-3,1,7,17,4,4,28,-8
50839782808,17,1,-2,-12,5,1,0,-8
50839782808,-13,-5,-2,36,-5,-9,2,14
50839796520,20,3,5,9,3,2,-7,-21
50839796520,12,7,5,3,12,8,-12,39
50839804003,9,-4,-13,-36,-13,-9,-7,-55
50839804003,-43,-5,-3,0,-1,2,10,36
50839827891,-19,-3,-3,-6,-5,-3,-2,-58
50839827891,10,-2,1,7,0,-1,1,-2
50839828544,5,3,2,7,5,-1,39,13
50839828544,43,3,-3,2,-1,-3,5,39
50839842197,-26,-2,-3,-1,-2,-4,-36,-15
50839842197,-5,-1,0,-11,-2,1,-16,-15
50839842803,16,2,-1,4,3,1,-30,10
50839842803,13,1,0,7,1,-4,-28,-4
50839856552,-11,0,-6,-9,-5,2,1,49
50839856552,0,0,0,-4,2,-1,-6,-7
50839863987,-14,-5,1,25,-1,-6,-19,-51
50839863987,-36,-7,-3,-4,-6,0,39,20
50839879069,-8,1,-1,-2,3,6,-21,-12
50839879069,-4,-4,-2,3,-2,-3,3,-1
50839887025,9,0,-2,1,2,5,12,19
50839887025,16,4,-2,-7,-3,-4,2,-21
50839902002,7,-4,-5,-6,-1,-2,2,3
50839902002,2,-2,-3,1,-7,-2,51,37
50839902910,-9,-2,0,-5,-2,-2,13,-3
50839902910,0,7,4,9,6,3,-1,-18
50839916557,20,-6,-5,-22,-5,-2,-5,0
50839916557,-87,-10,-4,15,-6,-4,-24,-64
50839924027,14,2,-4,-16,6,-3,-5,-20
50839924027,4,-4,4,16,1,11,28,62
50839939017,35,8,11,14,3,3,23,10
50839939017,25,1,-13,-17,-3,-3,-8,5
50839947052,-19,-11,-22,-43,-21,-6,35,55
50839947052,-7,-1,2,11,-1,4,-6,-2
50839962029,4,-2,2,-5,16,0,-10,-39
50839962029,-34,-3,6,10,-2,-2,-3,-27
50839962807,0,1,5,8,2,5,10,6
50839962807,29,3,-2,-10,-5,-7,2,-18
50839976413,-7,2,-2,-5,-4,3,13,23
50839976413,36,5,2,-3,1,-3,21,40
50839984038,-6,-2,1,14,1,0,-19,-1
50839984038,-55,-8,-3,-4,1,-3,-20,-37
50839998992,-14,-2,0,7,1,1,-9,-46
50839998992,-17,-2,0,-9,1,-1,-4,-15
50840007203,34,6,8,11,-1,-1,-23,52
50840007203,3,-1,-2,-1,-1,0,13,-20
50840022046,-5,-3,-6,-19,-9,-4,-6,40
50840022046,52,3,-1,4,-1,3,18,41
50840022820,-25,-11,4,0,-1,-2,-42,-52
50840022820,-29,-6,0,4,-1,-7,-1,-79
50840036507,8,0,2,18,3,0,-26,64
50840036507,19,7,2,-11,1,3,11,22
50840043906,21,6,5,-4,-9,3,-7,12
50840043906,8,-5,-12,-25,13,6,4,-2
50840058820,-14,-4,-1,23,2,-6,-18,-27
50840058820,5,0,3,1,-6,-3,2,1
50840067248,8,3,-1,2,2,0,22,-6
50840067248,-18,-2,0,-7,-5,0,-6,22
50840082057,-35,-4,-6,-5,-2,-6,45,-39
50840082057,-13,-4,-6,4,2,-5,-47,-28
50840082860,-7,-3,0,-1,-6,2,45,4
50840082860,40,6,1,-3,2,2,-54,23
50840096471,17,2,-3,-20,-8,-2,17,43
50840096471,15,3,2,8,6,3,-18,-34
50840103832,-33,-8,3,23,7,0,19,15
50840103832,-9,-9,2,46,-2,-7,-15,16
50840118980,-18,-2,2,-1,-3,-2,-12,-28
50840118980,7,4,6,-8,-3,1,15,33
50840127192,14,0,-19,-25,0,-4,-45,-23
50840127192,18,0,-6,-26,-14,1,51,92
50840142126,1,0,-1,-1,1,-2,-12,-42
50840142126,0,-5,2,10,-2,-4,27,21
50840142931,-2,5,7,12,7,1,-51,-33
50840142931,30,2,-1,-10,-3,1,12,46
50840156463,-27,-9,-10,-7,-8,-3,-10,-93
50840156463,-22,-6,1,6,2,-3,-7,-12
50840163962,13,2,-1,-3,-5,-3,30,-5
50840163962,19,7,4,-23,0,-1,20,-7
50840178942,-2,-4,0,5,-8,-6,-34,40
50840178942,-55,-14,-13,23,-3,-2,-14,-68
50840187025,-6,-1,1,2,3,-3,-30,-12
50840187025,22,4,1,3,-2,-4,21,-29
50840201989,23,9,5,-10,5,6,10,26
50840201989,12,6,0,-14,-4,-2,-39,38
50840202798,17,-4,-7,-15,-9,-2,16,12
50840202798,-72,-9,-6,-8,0,-4,-43,-90
50840216522,9,-4,5,48,9,-2,26,57
50840216522,19,2,-2,-10,1,1,-3,-29
50840224028,-20,-4,2,-7,-5,-4,-5,14
50840224028,40,8,3,-7,0,1,-39,-6
50840238894,2,-4,-6,-14,-4,2,39,18
50840238894,-30,-6,0,0,3,0,13,35
50840247190,31,5,1,22,4,1,11,26
50840247190,12,-2,-3,-9,-5,-2,-7,-35
50840262177,-46,-6,-5,5,-1,-2,-33,-23
50840262177,14,-2,7,1,4,-1,4,31
50840262784,-16,-1,1,-10,2,2,-17,-12
50840262784,-5,1,-1,10,2,0,11,2
50840276527,33,5,4,-9,-7,1,8,33
50840276527,-7,-8,-23,-32,-10,-3,17,10
50840283941,-19,-3,-3,4,0,0,62,-21
50840283941,20,2,2,7,1,2,6,36
50840298971,14,-1,1,-8,0,-1,-26,-18
50840298971,-17,-2,3,-1,-5,-2,-2,-31
50840307083,1,3,0,1,2,3,13,5
50840307083,1,-1,-1,12,3,1,2,-5
50840322151,2,-5,-6,-15,-7,-6,10,-12
50840322151,3,5,7,8,3,0,6,4
50840322854,-1,-4,-4,-14,-2,1,30,15
50840322854,-50,-11,1,2,-6,-7,3,-22
50840336490,-16,-2,0,0,2,2,-7,-28
50840336490,35,8,3,-1,5,4,-37,29
50840343863,-2,-4,0,-5,-1,1,25,23
50840343863,-1,-4,-1,25,1,-4,24,18
50840359014,14,3,-4,-7,-4,-2,4,-28
50840359014,-21,-5,-4,-4,-2,-4,-40,15
50840367074,11,3,6,-3,-3,-5,-18,-27
50840367074,-7,-5,-12,-8,-8,-4,13,13
50840382097,-6,-4,1,13,-1,-1,-2,-3
50840382097,21,3,4,-1,-1,3,15,15
50840382789,16,1,-1,4,4,3,-6,-24
50840382789,-42,-9,-2,-9,-1,-4,-7,10
50840396553,6,6,3,2,6,1,-47,19
50840396553,4,-2,-2,-4,-8,1,47,6
50840403807,-15,-5,-2,6,1,-3,-31,-48
50840403807,34,4,4,-6,-2,0,12,35
50840418977,2,2,-6,-8,-3,-2,2,21
50840418977,10,-6,-10,9,5,-1,0,-25
50840427193,-57,-5,1,0,-1,-1,-54,-11
50840427193,15,9,-5,-5,2,2,-6,-50
50840442203,-7,-14,3,-7,-3,-2,16,-4
50840442203,-4,-2,-3,-2,0,0,-3,12
50840442741,10,0,-1,3,-1,-4,8,5
50840442741,-4,3,2,0,-1,-5,-34,-54
50840464721,19,10,-2,-7,-6,3,-12,18
50840464721,6,-5,0,-1,-1,-1,67,-17
50840465421,-54,-14,-4,16,-2,-6,-9,4
50840465421,-3,-2,5,8,6,6,25,29
50840478990,34,4,0,-6,-2,-1,39,-14
50840478990,-26,-4,1,-5,-4,-1,-3,1
50840487111,6,5,-4,-12,-1,3,-8,-21
50840487111,21,-1,-2,-12,-6,-1,-6,0
50840501337,-27,-7,1,10,3,3,7,-19
50840501337,-7,2,3,-8,-2,0,-12,-14
50840509525,9,-1,-4,-1,-2,-2,14,11
50840509525,11,3,6,30,8,-1,-24,16
50840516546,24,1,-2,-6,3,2,-11,15
50840516546,-73,-6,6,2,-5,-6,-21,-100
50840524016,-1,-3,-10,-11,-4,-3,-20,6
50840524016,14,1,1,-14,-2,4,26,4
50840538842,-23,-1,-1,3,8,2,-2,0
50840538842,51,5,1,4,2,3,27,43
50840554603,-3,1,6,5,2,2,16,-7
50840554603,-21,-5,-8,-9,-9,-11,-16,9
50840561496,2,1,-2,1,-4,-4,11,20
50840561496,4,4,3,1,5,1,-18,6
50840569730,10,-1,-2,-5,1,-1,11,-38
50840569730,6,0,-2,-1,-5,0,-3,16
50840576444,-1,4,2,5,0,-2,-2,9
50840576444,58,7,3,3,-1,-2,-62,7
50840583984,-42,-8,24,9,0,-3,8,-11
50840583984,-88,-29,-54,-49,-13,-15,-34,-60
50840598941,-12,-3,2,8,0,-1,-40,6
50840598941,5,2,-1,4,7,5,4,5
50840607203,70,11,6,3,1,0,9,47
50840607203,14,7,15,9,-5,4,1,1
50840621454,-5,-3,-4,-13,11,1,5,-36
50840621454,-1,-6,-8,0,-7,-4,36,45
50840629705,-21,0,-4,-5,-1,2,-5,-11
50840629705,16,-10,11,8,6,0,3,10
50840636400,-4,3,-6,-1,-8,-2,22,-30
50840636400,13,5,5,6,4,0,-26,-3
50840643937,11,-4,-5,-5,-2,2,41,84
50840643937,3,4,3,7,-1,2,-6,8
50840658891,-24,-4,2,-2,-5,-3,-15,-24
50840658891,-23,-7,-4,-4,1,-1,21,-28
50840667187,7,6,-8,-3,-8,-3,-15,-30
50840667187,21,4,6,6,5,1,5,25
50840682769,-2,-3,2,2,-1,-3,-21,26
50840682769,-24,-7,-10,-7,-7,-6,18,-25
50840689833,9,3,-4,-4,1,1,-7,1
50840689833,34,5,9,9,4,5,16,25
50840704640,-63,-12,-10,-13,-10,-3,-18,-69
50840704640,-9,1,3,6,12,3,-29,-30
50840705227,21,-2,4,4,-2,-4,27,29
50840705227,-9,0,-6,-7,3,3,42,3
50840718936,18,4,4,6,0,-1,18,29
50840718936,6,-6,-15,-23,-10,-4,-1,19
50840727182,-31,-4,-4,-5,-3,-4,22,-47
50840727182,1,5,5,5,5,3,-7,-11
50840741296,20,-1,-3,3,0,-2,2,-2
50840741296,-2,-1,2,-1,-4,-3,-22,12
50840749678,0,-2,0,1,1,1,-24,-11
50840749678,-8,-2,1,3,-3,-3,-9,-8
50840764663,8,2,5,1,2,2,-1,3
50840764663,16,4,1,2,-3,-1,-1,8
50840765327,19,-1,-2,0,-3,-2,13,40
50840765327,-46,-11,-4,1,-6,-4,-37,-54
50840778893,10,-1,0,-1,5,5,57,11
50840778893,-2,-3,2,-3,-3,-1,54,11
50840787075,-3,-1,-6,-4,-1,0,-28,19
50840787075,20,4,2,3,0,-2,10,19
50840801338,17,-2,-1,-7,-6,-3,-16,18
50840801338,-30,-5,-1,-1,3,1,6,-32
50840809669,3,0,2,6,3,4,-35,-16
50840809669,19,6,6,7,0,2,52,0
50840824667,2,-2,-17,-22,-2,-4,-56,27
50840824667,-7,-1,2,0,-6,-5,-18,49
50840825333,8,-1,-2,-2,-3,-2,-9,14
50840825333,-69,-9,-8,-7,0,-3,-11,-12
50840839019,2,-1,-3,3,-2,-1,-24,-37
50840839019,15,3,2,6,2,6,-21,-8
50840847160,10,3,3,0,0,0,-3,10
50840847160,25,2,-2,-2,1,2,-13,13
50840861521,-14,-5,4,-2,-7,-5,5,-18
50840861521,-20,-3,-5,0,0,-4,-9,-36
50840869603,-1,-3,0,3,-1,-1,15,-10
50840869603,14,3,3,3,5,6,-9,1
50840884597,14,2,-1,1,1,-1,21,-9
50840884597,9,1,3,3,-2,-4,-61,43
50840885254,-4,-3,-3,-8,-7,-5,-63,7
50840885254,-21,-6,-2,0,-1,-1,36,-20
50840899009,2,-1,3,2,0,-2,3,-9
50840899009,-6,-5,-4,-3,-6,-7,32,-1
50840907146,32,5,1,-1,5,2,-19,-8
50840907146,-21,-4,-5,-7,-6,-5,-23,-6
50840921317,-11,-1,-1,1,0,-3,2,10
50840921317,23,3,2,1,-1,3,29,3
50840937086,-16,-3,-2,2,-1,-1,11,7
50840937086,9,-1,-4,-5,0,-2,1,-13
50840944518,-18,-1,0,2,-3,-3,9,-23
50840944518,9,1,-2,-2,-7,4,-2,-7
50840945425,-6,-4,-4,4,14,6,64,10
50840945425,16,5,5,-6,-8,-5,-13,38
50840959016,16,-1,2,6,-1,1,-2,12
50840959016,-39,-4,-9,-13,-1,0,-50,-23
