timestamp,emg1,emg2,emg3,emg4,emg5,emg6,emg7,emg8
1523180314971309,3,3,1,7,-13,-6,-2,-3
1523180314971309,-3,-1,9,53,10,-5,-8,-1
1523180314973321,3,5,9,4,55,16,20,6
1523180314973321,1,1,2,-17,-3,32,-5,2
1523180314985346,3,-5,-11,-19,-63,-45,-6,-7
1523180314985346,-3,-3,-3,-18,-16,-36,-8,2
1523180314994369,17,2,2,24,0,5,17,-8
1523180314994369,-21,-1,-2,-10,-12,14,-21,27
1523180315009412,-9,-3,8,28,49,42,12,-12
1523180315009412,-3,-1,0,-4,-19,-4,-9,-4
1523180315010411,0,-2,-8,4,-5,-19,-7,-5
1523180315010411,15,-4,8,-30,36,32,16,0
1523180315031476,5,18,-11,-17,-32,-5,-1,3
1523180315031476,-10,-2,0,3,10,10,7,7
1523180315033474,-5,-35,-8,10,9,-11,-10,-6
1523180315033474,0,-3,-14,-11,-7,-5,-13,-12
1523180315045507,0,-9,13,13,48,-1,9,4
1523180315045507,-2,9,8,54,-16,21,15,-4
1523180315054530,-4,-5,-8,-15,-60,-17,-5,7
1523180315054530,-2,18,8,7,14,-16,1,-2
1523180315068567,15,1,-2,-1,22,-9,-6,-3
1523180315068567,-8,8,16,-26,-33,-1,-7,3
1523180315070572,-14,4,-20,-14,44,-12,-12,-3
1523180315070572,7,-32,-16,4,-2,-6,22,-14
1523180315091628,0,-41,9,13,-7,-19,-38,30
1523180315091628,-43,-7,-20,-23,5,1,-8,-14
1523180315092631,-18,28,12,-6,-6,2,14,-16
1523180315092631,6,33,8,-9,-8,-21,1,-19
1523180315105669,4,10,3,6,-20,-5,-7,-6
1523180315105669,12,-31,-7,-18,-54,-11,-7,6
1523180315114696,8,2,9,33,58,39,31,29
1523180315114696,-26,3,-1,-9,-17,-7,-42,-11
1523180315128730,8,3,1,14,5,1,6,16
1523180315128730,9,12,0,-12,-55,-17,-12,-3
1523180315130739,2,3,-8,-26,-38,-11,-11,5
1523180315130739,21,-21,8,17,70,29,31,13
1523180315151790,-11,-14,-11,-8,-6,34,12,-2
1523180315151790,-6,12,-6,2,-12,1,-1,13
1523180315152790,-10,-1,3,2,-35,-8,-16,-20
1523180315152790,20,3,5,-12,-25,-10,-6,7
1523180315164833,1,-3,-1,27,24,-9,-14,-7
1523180315164833,37,2,-5,4,3,-6,34,33
1523180315173846,-24,-2,3,-7,-22,-18,-13,-22
1523180315173846,-17,2,1,-6,7,-24,-11,-23
1523180315188889,8,8,1,5,-51,24,7,-1
1523180315188889,8,-14,-2,4,40,25,-12,-11
1523180315190891,16,-6,-10,-3,8,-8,2,12
1523180315190891,-11,-2,-5,-8,-7,-5,8,-1
1523180315211955,-14,9,-7,-23,-14,7,0,-4
1523180315211955,2,0,-3,12,14,-9,-3,-5
1523180315212952,-2,2,30,49,22,31,-3,1
1523180315212952,1,-13,2,-6,10,4,1,-2
1523180315224986,-7,-5,-23,-17,-10,-21,8,-8
1523180315224986,-8,-2,-9,-29,14,-4,-7,-11
1523180315234007,-3,-1,-12,-25,-46,-15,6,-11
1523180315234007,20,2,2,-18,18,3,-15,12
1523180315248089,-15,18,13,44,62,33,-11,4
1523180315248089,10,-1,5,20,-7,-27,-6,-11
1523180315255062,10,-3,3,-2,-35,12,-5,-4
1523180315255062,-14,-6,-9,-10,-33,-17,2,12
1523180315271340,10,1,-7,-28,54,-22,11,-6
1523180315271340,8,9,19,49,96,36,-2,-5
1523180315273110,7,0,4,9,-77,0,14,17
1523180315273110,10,1,-1,-9,-21,-2,-16,4
1523180315285143,-11,-4,-6,-14,21,-17,-10,-11
1523180315285143,18,-1,-2,-11,78,5,5,21
1523180315294166,-26,0,-4,-27,15,-6,33,-15
1523180315294166,-3,2,-4,-3,-20,8,3,1
1523180315309441,-20,-6,10,30,20,-7,-2,-15
1523180315309441,0,-7,5,6,-58,5,-7,-2
1523180315310209,5,1,0,10,63,46,-16,6
1523180315310209,-1,-3,-19,-56,1,-39,19,-2
1523180315331265,3,4,1,-39,-89,-2,5,6
1523180315331265,-11,0,1,-14,-45,-29,-15,-13
1523180315333270,3,-12,-17,-54,-50,-35,5,-3
1523180315333270,-14,-9,-12,16,59,7,-20,-4
1523180315345307,9,-1,6,16,-78,-9,2,-7
1523180315345307,-5,6,6,23,67,29,12,1
1523180315354326,10,2,-8,6,7,-26,-18,4
1523180315354326,-17,-11,2,-13,-67,-11,-9,-13
1523180315369365,7,-1,-3,-14,17,16,22,2
1523180315369365,3,7,4,21,17,-20,-10,2
1523180315370369,-29,-4,-3,-25,-22,-1,-15,-12
1523180315370369,1,4,2,19,-12,8,-11,-2
1523180315391426,12,-3,-1,13,22,-7,1,9
1523180315391426,2,2,2,-7,-20,33,2,-6
1523180315393430,9,4,6,14,52,8,4,-1
1523180315393430,0,-4,1,28,43,11,-3,2
1523180315405697,-3,-4,-17,3,-27,-13,-5,-6
1523180315405697,-2,-9,12,-3,9,4,3,1
1523180315414487,4,-2,-9,-6,-17,-11,-19,6
1523180315414487,-8,2,0,14,11,-4,14,-6
1523180315428530,3,6,5,-16,-21,29,8,6
1523180315428530,-6,-4,-16,-41,-39,-34,8,-6
1523180315435543,-3,-5,-5,-6,-1,-22,-10,0
1523180315435543,7,6,9,20,-1,31,22,4
1523180315451585,-4,-6,-4,-51,-54,-18,-18,-12
1523180315451585,-7,1,2,45,44,-6,2,8
1523180315453590,22,4,15,37,-44,1,-3,-1
1523180315453590,-26,2,-4,-27,15,2,-8,16
1523180315465623,-12,-5,-2,6,35,2,6,-15
1523180315465623,-11,-11,-24,-72,-92,-31,-19,-17
1523180315474646,16,3,0,15,9,-2,19,10
1523180315474646,14,4,1,24,-9,7,5,7
1523180315488685,-3,2,6,3,15,-9,-19,-1
1523180315488685,-7,-7,-8,-6,0,-14,-6,-10
1523180315490688,-2,-7,-1,0,24,17,-2,1
1523180315490688,8,1,-1,26,-1,-14,3,0
1523180315511752,-7,5,12,21,31,-2,3,-8
1523180315511752,10,3,1,0,29,34,11,3
1523180315512755,-11,-9,-3,-37,-42,-10,4,-3
1523180315512755,4,7,5,58,72,35,5,2
1523180315533805,11,-6,-13,-37,-9,-3,0,15
1523180315533805,-17,-2,-3,3,-9,29,4,-28
1523180315535809,0,2,-2,-8,-34,-10,-3,12
1523180315535809,-10,-1,5,1,-44,-26,7,-12
1523180315548843,11,4,-4,50,-1,-12,-2,15
1523180315548843,-11,-1,-4,-76,-29,-24,-6,-7
1523180315550849,-1,3,13,72,-9,9,-7,-2
1523180315550849,11,-6,-21,-42,22,-5,7,-5
1523180315571905,-4,-1,8,14,11,-22,-13,5
1523180315571905,0,-5,-8,-23,-26,-14,-7,4
1523180315572907,5,0,0,31,80,4,-10,-6
1523180315572907,-18,-3,0,-22,-94,-48,-9,-12
1523180315594978,-27,-2,0,-15,-54,-1,-14,-9
1523180315594978,5,9,18,68,102,23,38,2
1523180315595971,2,0,7,20,72,37,-2,-28
1523180315595971,15,0,-18,-82,-68,-19,1,42
1523180315609239,9,-2,-3,-8,-12,-8,4,26
1523180315609239,-2,-8,-7,-15,-29,-4,-3,3
1523180315611010,-2,1,-13,4,52,-6,-6,-8
1523180315611010,3,-5,8,16,38,30,1,-33
1523180315631065,5,7,4,-3,-12,-12,-8,-16
1523180315631065,-19,-5,-17,-50,-75,-22,-8,5
1523180315639083,13,2,10,29,90,39,19,7
1523180315639083,-23,-7,2,16,-6,-6,-20,-17
1523180315654359,19,-6,-18,-51,11,28,24,-18
1523180315654359,4,-2,-12,-11,-51,-7,1,-3
1523180315656229,-40,-3,-11,23,-41,-54,-28,9
1523180315656229,9,7,13,-50,-41,-1,-1,27
1523180315668161,34,14,39,117,119,51,55,26
1523180315668161,15,-8,-3,38,31,8,-4,6
1523180315682197,-11,-4,-15,-43,-64,-22,-8,-88
1523180315682197,1,-6,-1,43,29,-16,-15,96
1523180315691221,-33,-13,-18,-25,-28,-8,2,-25
1523180315691221,9,7,8,-22,-51,1,5,11
1523180315693226,0,-3,-4,-14,-47,-11,-13,6
1523180315693226,6,12,15,33,105,12,8,-45
1523180315714284,4,-7,-4,-30,-60,-3,-6,-1
1523180315714284,-12,0,-1,29,48,-1,-4,2
1523180315715286,2,-6,-11,-43,-91,-21,-9,11
1523180315715286,-5,8,5,11,41,16,7,-57
1523180315728321,3,3,4,-12,15,13,-9,6
1523180315728321,-39,-7,7,41,77,20,-1,41
1523180315735338,28,1,3,-17,27,15,10,-6
1523180315735338,-4,-5,-13,-32,-44,12,7,26
1523180315751382,8,0,-3,18,-13,-70,-9,-29
1523180315751382,-12,-1,-4,53,-100,41,1,-21
1523180315753387,-10,-8,7,-32,8,-15,-9,14
1523180315753387,9,2,3,-9,17,0,-17,-48
1523180315774444,-14,15,-6,-64,7,25,16,-8
1523180315774444,32,-2,-11,-59,-45,-26,-8,89
1523180315775445,-9,-4,1,36,42,24,12,21
1523180315775445,2,-14,-7,-3,-120,-35,-7,-31
1523180315788486,27,0,3,49,109,8,18,13
1523180315788486,-37,7,5,-6,-28,-41,-30,18
1523180315795506,-5,-10,-13,-25,-48,12,6,9
1523180315795506,-29,-14,-9,0,-9,-13,14,-22
1523180315811543,-16,-7,-5,-4,-4,10,-9,-75
1523180315811543,40,1,-7,-27,-50,-19,-5,5
1523180315813550,28,18,17,30,95,18,-7,70
1523180315813550,16,0,-1,-5,-92,7,-6,-2
1523180315833600,-70,-8,-2,18,-3,-15,-17,3
1523180315833600,-8,-4,-2,-21,-13,39,19,-38
1523180315835605,8,-2,-3,-15,-29,-20,-9,-15
1523180315835605,6,5,1,23,85,22,10,-3
1523180315848639,10,-7,-19,-34,-81,-15,-27,-16
1523180315848639,-9,2,14,55,18,-10,2,-86
1523180315855765,25,7,10,-52,44,28,43,82
1523180315855765,-10,-5,-11,-5,-30,-4,-33,63
1523180315871702,16,-3,-4,-5,16,-13,0,31
1523180315871702,-14,-2,0,4,75,14,6,-53
1523180315873706,7,3,2,24,15,9,12,-46
1523180315873706,-36,1,6,-2,48,-6,-14,-2
1523180315893915,9,-3,-4,-5,7,8,-19,22
1523180315893915,24,-10,-12,-12,-43,-13,-5,-5
1523180315895769,-39,-1,-5,-12,-10,8,25,-57
1523180315895769,-9,2,2,5,3,-9,-1,41
1523180315908993,-8,2,6,18,-109,-20,-11,13
1523180315908993,41,8,9,18,87,3,18,-2
1523180315914818,-24,-7,-10,-17,56,13,-29,12
1523180315914818,28,-4,-8,-13,-78,4,24,-2
1523180315931860,-18,-4,-3,-21,8,10,-4,-36
1523180315931860,-15,-6,-2,30,10,10,3,27
1523180315932864,7,1,-1,-6,-28,-24,-9,-19
1523180315932864,-8,-2,1,11,27,-4,-6,-25
1523180315954155,15,-10,-16,-55,10,3,0,29
1523180315954155,-7,4,12,40,11,-1,13,-27
1523180315955927,-15,4,5,21,10,5,-8,-24
1523180315955927,40,2,-2,-9,6,10,11,67
1523180315967958,-2,1,2,11,45,4,8,47
1523180315967958,-66,-11,-10,-26,-53,-33,-17,-50
1523180315974977,-13,0,-4,-7,-14,-12,10,2
1523180315974977,-19,-1,3,16,52,-18,-8,-84
1523180315991018,22,4,0,0,8,24,-4,-41
1523180315991018,-3,1,0,-12,-41,10,8,106
1523180315993024,57,-1,16,37,1,6,16,50
1523180315993024,-21,-1,-3,-26,-43,-17,-23,-39
1523180316014080,-11,-5,-9,26,40,-6,6,-31
1523180316014080,10,-5,-3,-21,40,7,-12,-32
1523180316015082,14,3,-5,-16,-15,-23,3,-10
1523180316015082,31,4,-7,-31,-17,-34,17,46
1523180316027114,-15,4,20,89,34,47,-3,-27
1523180316027114,-18,-3,2,-9,-70,-12,-13,-8
1523180316036138,13,0,-9,-28,-45,-7,-15,17
1523180316036138,-58,-6,-4,25,36,12,19,-12
1523180316051178,32,1,-3,-16,-36,-4,44,19
1523180316051178,-17,-5,-12,-41,-91,-6,-40,-25
1523180316053183,-46,6,36,113,118,21,-12,-61
1523180316053183,67,0,8,-35,-13,19,-2,3
1523180316074240,-45,-1,-31,-68,-54,-19,22,59
1523180316074240,-45,-9,-2,9,21,21,27,-71
1523180316075242,65,-9,-13,-34,-111,-43,-11,62
1523180316075242,-57,1,-2,12,23,10,10,-97
1523180316087274,-6,-3,17,36,-81,-21,-18,-79
1523180316087274,37,13,-1,-14,-3,-18,30,72
1523180316096302,-7,7,-7,11,8,-18,-36,6
1523180316096302,39,-5,5,1,-44,37,15,-18
1523180316111340,-3,-5,3,-5,89,-2,-2,-53
1523180316111340,-35,-6,-1,7,-11,-16,-12,-51
1523180316113350,-47,-5,-12,-27,-58,9,-34,40
1523180316113350,56,7,-2,-42,85,13,-28,38
1523180316134400,-44,9,7,47,-42,-9,26,-15
1523180316134400,34,-1,21,38,72,-16,-4,15
1523180316135403,-1,-13,-16,-25,-68,-18,-21,-12
1523180316135403,43,-3,-12,31,-6,-24,-16,99
1523180316147436,29,5,5,10,10,22,39,-21
1523180316147436,-28,11,-4,-44,43,13,5,-20
1523180316156458,6,-2,11,-2,5,21,23,31
1523180316156458,15,-5,-21,-17,-55,-39,-38,-59
1523180316171501,25,-10,4,-1,-25,-24,-62,39
1523180316171501,83,10,11,41,51,46,40,74
1523180316173503,-43,1,-6,-9,12,-2,10,-39
1523180316173503,-27,-3,6,49,-17,20,2,-98
1523180316194563,40,17,1,-95,-45,-1,29,-10
1523180316194563,-70,-10,12,-6,82,52,-9,45
1523180316195567,-19,-12,-8,-5,9,-24,-22,-86
1523180316195567,27,-2,-3,13,-4,-27,5,-12
1523180316207596,26,-5,-4,26,36,8,-42,-47
1523180316207596,-39,-17,-51,-62,-109,-45,1,-58
1523180316216618,10,28,76,96,99,64,15,26
1523180316216618,23,7,11,-94,-97,12,-4,44
1523180316231658,-18,-8,-14,-32,16,28,-6,63
1523180316231658,71,-6,-8,13,4,-30,5,-10
1523180316232661,-66,-12,-26,5,13,21,19,-86
1523180316232661,-15,-3,11,78,52,15,-12,-45
1523180316253716,9,9,22,-18,34,7,-51,61
1523180316253716,16,2,-8,-9,52,27,26,-12
1523180316255722,-5,-3,-22,-31,-90,-33,60,4
1523180316255722,-24,5,12,29,56,9,-2,-60
1523180316267755,-18,-24,-22,0,-45,-30,-7,20
1523180316267755,9,0,4,19,-11,10,-56,-65
1523180316276777,58,2,-4,6,-12,11,-6,-1
1523180316276777,-60,10,1,3,7,3,41,56
1523180316291829,-2,-9,-9,-22,-84,-69,-10,4
1523180316291829,43,9,7,-3,4,0,44,61
1523180316292819,2,-9,-12,-25,67,-9,-53,-65
1523180316292819,-2,-5,-10,0,-72,5,17,47
1523180316313877,22,6,12,6,8,16,30,23
1523180316313877,-31,5,9,8,-12,-24,-42,-14
1523180316315882,-13,-3,-9,-27,-11,33,26,18
1523180316315882,-43,-15,3,61,54,-22,-16,-60
1523180316327922,-52,-7,0,-69,-37,11,-9,-128
1523180316327922,61,15,30,82,75,46,48,109
1523180316336978,75,4,-4,-54,-98,-8,-17,-56
1523180316336978,-32,-4,3,-1,60,-17,-1,-81
1523180316350976,7,4,-10,28,-56,-34,16,5
1523180316350976,-91,-15,-8,-5,-25,-3,-40,-55
1523180316352981,42,-1,-13,-16,-73,-7,51,0
1523180316352981,-21,-2,-12,-13,42,6,-20,57
1523180316374038,0,-8,-7,9,-45,-8,-9,4
1523180316374038,16,10,17,47,24,1,-7,-17
1523180316376044,-38,6,17,-3,44,-10,11,-34
1523180316376044,35,-1,-7,-26,-58,4,12,25
1523180316388074,-12,-5,-4,9,71,7,10,91
1523180316388074,44,7,-3,-18,-52,-5,-29,-13
1523180316397098,-70,-14,-12,1,3,-15,-23,-12
1523180316397098,8,-3,5,2,-20,-13,-6,-55
1523180316411136,80,0,-4,16,35,-10,-41,78
1523180316411136,-79,-15,-3,-33,-49,-4,58,-99
1523180316413140,41,9,1,-10,-16,-37,-35,8
1523180316413140,0,5,-1,-14,-20,28,25,-20
1523180316434199,-51,-10,7,8,3,-11,-22,2
1523180316434199,19,-4,-8,-27,-12,-6,-13,-1
1523180316435199,5,-4,-2,18,7,-16,-11,-14
1523180316435199,-17,-6,-12,23,-40,2,7,33
1523180316456255,30,20,0,-79,67,11,45,26
1523180316456255,10,-3,9,-7,-26,5,-41,-4
1523180316458260,-35,-5,-2,51,55,15,-21,-9
1523180316458260,-18,-2,12,14,-47,-6,27,36
1523180316471295,-10,-4,-4,26,31,9,-40,-77
1523180316471295,-42,4,-12,-45,-53,-48,-5,2
1523180316473301,46,-4,-1,-2,41,26,16,33
1523180316473301,29,-5,-7,-58,9,-8,-22,0
1523180316494362,-21,0,13,79,-8,4,-28,-32
1523180316494362,29,-1,-7,-10,-42,-31,34,-56
1523180316495385,-36,3,-3,-10,82,41,0,31
1523180316495385,-15,-1,1,12,25,2,-4,31
1523180316516416,-17,2,4,-14,-33,-12,31,24
1523180316516416,-18,-3,6,27,3,13,-3,11
1523180316518420,16,-6,2,4,-10,6,7,-58
1523180316518420,56,1,0,-23,22,-17,-16,-13
1523180316530454,-54,-8,-17,6,20,51,16,-29
1523180316530454,47,6,19,39,4,1,-23,-18
1523180316537471,-21,-2,-26,-56,-25,-31,-21,37
1523180316537471,6,6,5,-14,6,7,-8,25
1523180316553514,12,3,9,58,42,8,-7,-25
1523180316553514,8,5,-2,-12,49,7,11,-43
1523180316555519,-11,-7,1,-23,-35,-26,-23,54
1523180316555519,34,-5,-13,-35,-67,-6,5,48
1523180316576574,22,0,-2,-21,53,50,21,2
1523180316576574,-7,-1,6,11,17,8,1,-21
1523180316577587,-18,-1,-1,23,0,-33,-3,-30
1523180316577587,-56,-4,5,-19,14,-12,1,-60
1523180316590646,23,-7,-6,24,-38,-74,-24,-7
1523180316590646,-16,-6,-14,14,48,15,-17,90
1523180316597663,37,15,22,-31,3,26,72,1
1523180316597663,14,0,-12,-18,-67,-23,13,5
1523180316613673,-19,-1,6,21,28,5,-13,-46
1523180316613673,13,-8,-11,-4,-73,0,-28,-24
1523180316615679,-18,-10,-4,16,-35,-44,-16,-15
1523180316615679,-42,7,-1,-10,-40,6,22,-4
1523180316636735,26,1,1,-29,0,-18,11,83
1523180316636735,36,9,-2,4,51,14,31,30
1523180316637738,-35,-1,2,-12,-53,3,-4,4
1523180316637738,28,-2,13,48,33,7,-18,-47
1523180316650772,-48,-4,-8,-7,-20,-8,-13,-68
1523180316650772,1,-8,-14,-26,3,-4,-12,60
1523180316658026,-6,-6,-3,18,-21,-14,19,-20
1523180316658026,28,0,-1,14,34,29,-17,-7
1523180316673833,-22,9,-2,-25,16,-27,-8,-30
1523180316673833,18,0,-4,-45,-15,-9,23,-45
1523180316675839,41,0,-8,-12,-89,-15,0,71
1523180316675839,-32,-3,4,34,50,1,-19,4
1523180316696896,24,1,4,23,-29,25,3,-1
1523180316696896,-10,1,3,-32,27,-24,-23,-43
1523180316697897,13,-1,-5,34,-10,36,7,8
1523180316697897,43,0,-9,-38,-27,-18,9,25
1523180316710936,-51,2,10,-25,14,27,-13,-79
1523180316710936,10,0,-3,41,-48,-31,-16,57
1523180316717951,11,-1,-3,6,-52,-48,-13,15
1523180316717951,-28,-2,-11,-38,97,33,40,-15
1523180316733993,24,-1,16,39,64,29,39,-34
1523180316733993,9,-3,-2,-7,-16,-3,-20,83
1523180316736045,-37,-7,-29,-72,-1,-1,-18,-26
1523180316736045,-11,-8,-2,23,27,34,-3,9
1523180316757093,0,-6,-12,-30,-50,-39,2,-38
1523180316757093,-9,-1,-4,-17,-80,-22,3,14
1523180316758057,-6,18,37,93,122,66,24,11
1523180316758057,-19,-7,-5,-4,-94,-17,-14,-29
1523180316771093,24,-5,-5,-17,-24,5,-7,36
1523180316771093,14,0,-4,11,1,21,-24,-20
1523180316778114,-45,-13,-9,-35,-51,-29,-4,-8
1523180316778114,-17,2,3,13,-16,-10,1,-27
1523180316794154,17,-7,-8,-14,31,13,2,18
1523180316794154,-14,6,1,-9,32,31,11,-24
1523180316795161,37,-4,-4,5,-39,-24,-3,37
1523180316795161,-20,3,4,8,-2,34,6,-23
1523180316816212,11,-5,-6,-6,19,-58,-1,37
1523180316816212,-22,-1,5,48,12,-13,-32,-4
1523180316818217,-23,-1,-1,17,29,27,-10,-91
1523180316818217,71,6,0,-15,-74,-26,-14,24
1523180316831251,-57,1,-1,-68,-55,8,-2,-9
1523180316831251,45,0,0,-4,32,-2,52,11
1523180316837268,-21,-4,6,17,-52,12,-18,27
1523180316837268,1,-2,1,-5,-57,-26,13,3
1523180316854314,21,3,-13,-2,-7,-2,-18,0
1523180316854314,-14,-2,-3,-32,-30,2,6,-56
1523180316855315,23,3,10,-33,-31,-75,-32,65
1523180316855315,-35,-7,-15,54,127,14,0,4
1523180316876372,30,13,22,40,-2,43,22,35
1523180316876372,-53,-2,15,20,-30,9,0,-35
1523180316878405,31,-9,-24,-12,28,-12,-2,-44
1523180316878405,11,-1,-7,29,-42,-34,-21,45
1523180316890408,-29,6,14,53,-33,3,17,-11
1523180316890408,17,4,5,1,-39,-26,-15,23
1523180316897453,-62,-4,-3,-17,35,39,4,-38
1523180316897453,25,-2,-7,-30,-82,-49,-8,-6
1523180316913469,10,-1,3,16,-8,61,31,16
1523180316913469,39,3,-8,-33,-12,-17,-12,44
1523180316915476,15,10,4,9,-12,4,16,-14
1523180316915476,-15,-10,9,-11,-2,5,-9,19
1523180316936532,-3,-11,-5,7,54,-11,-7,-54
1523180316936532,-38,-11,-18,24,27,-21,-7,33
1523180316938537,20,1,-13,-109,-59,-3,4,-14
1523180316938537,0,5,1,67,26,12,1,64
1523180316949568,1,5,6,7,65,20,3,-3
1523180316949568,46,-1,5,9,16,0,3,-11
1523180316959595,-56,-1,0,29,31,-23,-15,-86
1523180316959595,-77,-8,11,-29,8,33,6,10
1523180316973632,16,-3,-11,-39,6,-42,-16,39
1523180316973632,-20,-3,-7,20,-27,12,10,-37
1523180316975635,50,5,8,-6,29,3,-4,35
1523180316975635,16,7,15,-20,-39,25,22,-73
1523180316996692,-7,-13,-26,-45,-94,-9,-5,-10
1523180316996692,4,-7,10,57,93,43,19,43
1523180316997694,7,14,6,-15,127,55,12,9
1523180316997694,10,-5,-9,-12,-11,-50,-25,2
1523180317009751,-42,-1,9,-4,-35,-6,-5,-60
1523180317009751,40,0,-9,-48,-106,-22,-5,40
1523180317018791,-4,-20,-4,30,21,-31,-2,30
1523180317018791,18,7,5,30,61,6,-8,2
1523180317033792,19,5,-10,-46,-14,-25,-15,-26
1523180317033792,-28,4,6,12,31,-22,-5,-71
1523180317035797,17,-19,-13,-21,-86,18,3,107
1523180317035797,-49,6,6,6,95,48,36,-8
1523180317057086,49,4,7,69,4,-26,-27,31
1523180317057086,-100,-8,-7,-30,43,20,-4,-96
1523180317057854,35,1,-2,-11,-88,-24,30,-22
1523180317057854,18,-3,-5,-35,3,-21,0,16
1523180317069886,-8,-3,-3,2,-30,32,8,29
1523180317069886,6,3,1,40,122,24,-2,0
1523180317078912,-22,2,-10,-31,-93,-35,-2,-47
1523180317078912,24,7,20,69,35,20,1,-12
1523180317093954,26,-4,2,23,-5,-16,15,40
1523180317093954,-32,4,6,-35,41,-12,-5,1
1523180317095958,38,-9,-2,23,16,21,-2,-19
1523180317095958,-76,-1,-13,6,-21,1,-8,38
1523180317116008,6,2,-3,-82,-71,-25,1,-14
1523180317116008,-11,-12,-14,-34,-58,-21,7,-7
1523180317118015,18,14,16,22,100,63,0,-48
1523180317118015,21,7,1,-6,-77,-31,-38,10
1523180317130047,24,-2,9,40,47,17,62,31
1523180317130047,-12,-7,-8,-27,-113,-3,-10,-14
1523180317139070,-10,8,11,18,73,14,-7,73
1523180317139070,5,-14,-14,-18,45,-3,19,-61
1523180317154345,-68,2,-14,-18,44,-15,-19,-43
1523180317154345,41,3,-3,16,-17,-7,-12,28
1523180317156240,-1,8,49,59,-29,-23,-3,-22
1523180317156240,31,7,-13,-79,-54,-6,1,76
1523180317176213,6,-10,-21,-2,16,3,-8,-3
1523180317176213,-2,-12,-6,-28,-113,-24,2,-25
1523180317178178,-36,0,-8,80,84,27,0,-11
1523180317178178,15,1,4,-58,-3,40,11,-43
1523180317190208,-10,5,19,29,17,0,-29,11
1523180317190208,11,3,-4,-2,12,25,40,29
1523180317199231,23,1,-4,-19,-5,-18,18,20
1523180317199231,11,-11,-10,-41,-77,-71,-34,-51
1523180317214270,-33,-6,-14,-13,-68,18,3,-9
1523180317214270,-12,7,4,16,-3,11,1,-19
1523180317215272,-11,-3,-14,-29,-124,-51,-21,-48
1523180317215272,54,11,25,40,85,38,26,109
1523180317236329,-13,-17,-21,-42,-118,-33,-35,-33
1523180317236329,18,11,17,74,127,52,19,5
1523180317238334,4,-7,-8,-29,-26,-13,3,-10
1523180317238334,-58,-5,1,24,-75,-41,-29,-65
1523180317250367,-12,-2,3,27,34,11,0,30
1523180317250367,-25,-5,-6,-26,-2,-13,-26,12
1523180317259459,3,0,0,-3,8,-1,1,2
1523180317259459,30,-7,-16,18,-44,-4,-20,-5
1523180317274431,-3,19,36,7,50,9,6,-8
1523180317274431,9,2,-10,-27,-16,4,-8,-43
1523180317275431,-12,-13,-22,-64,-52,-63,-26,-36
1523180317275431,17,-7,-1,2,87,41,29,27
1523180317296490,28,-3,-8,24,23,6,-7,-21
1523180317296490,-19,4,12,18,13,-7,-1,4
1523180317298493,-27,-2,-3,-25,39,15,0,-56
1523180317298493,-52,-1,4,21,-89,-41,-9,-26
1523180317310550,3,-11,-22,6,48,20,-7,5
1523180317310550,20,-6,-9,-61,-80,-44,-3,3
1523180317319550,34,13,28,116,126,73,15,63
1523180317319550,-24,10,-4,-79,-60,12,22,-14
1523180317333587,40,-5,16,32,1,-2,2,18
1523180317333587,-58,-13,-12,-1,-86,-39,-31,-37
1523180317335594,12,0,-14,-94,-85,23,12,8
1523180317335594,1,-5,-15,4,42,-32,-15,-6
1523180317356883,21,13,10,-4,-72,-28,21,-47
1523180317356883,30,1,10,47,76,45,-14,127
1523180317358740,-22,-14,-9,14,75,-13,-8,2
1523180317358740,-69,2,-4,-8,-49,-30,-12,-58
1523180317369688,12,-8,-11,-29,15,12,-5,14
1523180317369688,-16,-8,-9,-23,7,-2,19,-70
1523180317378708,-19,-2,0,74,9,28,-7,21
1523180317378708,37,3,-2,-124,118,2,-18,6
1523180317393756,-7,11,20,45,-7,5,10,18
1523180317393756,33,1,1,10,-35,-4,-3,4
1523180317395756,2,-3,-24,-25,-32,1,-2,-7
1523180317395756,-9,-10,12,77,73,20,3,-32
1523180317416810,-13,2,-11,-25,-65,-12,-10,42
1523180317416810,23,10,20,1,19,2,-10,10
1523180317417811,33,5,7,15,-18,-11,-8,5
1523180317417811,-62,0,-6,24,-22,25,3,-61
1523180317438868,-30,-14,-2,10,48,8,-8,23
1523180317438868,2,-11,-13,-69,47,-1,25,36
1523180317440872,-20,3,17,75,-32,1,6,19
1523180317440872,26,3,-16,-26,-11,10,-7,-23
1523180317454145,-8,0,1,-2,13,14,-13,-22
1523180317454145,-17,-4,-4,25,-21,-26,0,-20
1523180317455912,9,1,-3,-38,8,-7,2,20
1523180317455912,34,-7,5,39,32,25,17,7
1523180317476971,3,3,-6,-8,-4,-27,-28,-44
1523180317476971,22,9,5,-1,-61,4,19,27
1523180317477974,-10,4,14,19,102,8,6,37
1523180317477974,9,-3,-2,-5,-16,2,12,15
1523180317499026,-7,-8,-10,-3,-50,-32,-10,-12
1523180317499026,16,0,-8,-16,-1,-13,-18,-52
1523180317501033,-22,-4,3,-28,-57,-19,7,-13
1523180317501033,13,4,2,31,-11,11,-7,-1
1523180317514067,7,-11,-14,-3,22,-31,-3,51
1523180317514067,-13,4,6,-58,-7,49,13,-12
1523180317516072,61,19,14,45,29,25,1,20
1523180317516072,-63,-4,-4,-30,40,1,10,-9
1523180317536126,7,1,8,21,-62,-26,-1,-22
1523180317536126,-10,-8,-8,10,93,-17,-1,-25
1523180317538131,-34,-11,1,-2,-8,-9,-21,17
1523180317538131,24,-5,-22,-71,-103,1,9,15
1523180317559186,-3,-6,-3,44,89,7,-17,-19
1523180317559186,34,3,1,14,-41,-16,56,46
1523180317561197,1,4,6,-15,-21,28,-2,-58
1523180317561197,-2,-2,4,39,28,-5,-29,-21
1523180317573227,9,-4,0,-4,-62,19,5,59
1523180317573227,-12,-5,-11,-44,-58,-30,-11,-29
1523180317580243,13,9,-2,-32,75,17,61,12
1523180317580243,1,1,0,28,-10,-5,4,-9
1523180317596286,4,-8,-18,-47,30,16,-13,-25
1523180317596286,21,2,23,117,82,36,-13,-13
1523180317598290,-93,-11,-13,-2,-15,-4,-4,-3
1523180317598290,12,-1,13,-25,-73,-11,-4,-11
1523180317618345,11,13,-6,-48,35,11,27,14
1523180317618345,17,2,-3,0,41,37,-5,18
1523180317625364,9,-13,-26,20,24,-16,-19,-25
1523180317625364,51,4,1,-15,20,2,-1,45
1523180317633383,-61,-5,9,37,-24,1,1,-6
1523180317633383,-47,-2,4,-35,-27,-13,-9,-47
1523180317640404,18,0,-9,-31,-47,-22,-19,-15
1523180317640404,-6,-5,-3,21,75,3,8,61
1523180317656680,-2,0,21,19,7,3,-28,-59
1523180317656680,12,-5,-22,-28,5,-1,16,78
1523180317658450,-23,2,-3,-30,-53,3,13,2
1523180317658450,45,10,8,44,1,10,33,11
1523180317679506,-20,1,-6,-17,-15,-13,-10,-19
1523180317679506,-17,-12,11,39,37,2,-19,-32
1523180317680508,18,-13,-17,-14,29,-8,-21,-3
1523180317680508,-8,-1,1,-34,-51,-5,-9,-2
1523180317693576,-4,3,6,39,-8,2,20,7
1523180317693576,-2,3,-13,-15,-119,-19,-11,-8
1523180317700561,27,3,-2,-9,28,16,2,27
1523180317700561,-35,-5,-1,-8,69,31,-11,-49
1523180317716607,3,4,-5,-10,31,15,44,33
1523180317716607,108,2,-12,-29,-27,-20,-35,13
1523180317717647,-98,1,0,-20,-12,-23,-10,-5
1523180317717647,37,-4,2,28,-10,-38,-11,-19
1523180317738664,-14,-5,-6,-29,-99,11,15,-27
1523180317738664,19,1,7,17,1,-3,-7,17
1523180317740669,59,8,6,22,-109,-29,-19,23
1523180317740669,-42,-5,-6,45,-6,14,10,0
1523180317753939,4,0,6,6,72,18,12,5
1523180317753939,-22,0,3,-3,26,30,-1,-8
1523180317759726,15,-11,-1,-1,6,-16,-6,-28
1523180317759726,-12,6,-16,-56,-88,-11,15,26
1523180317776771,17,-2,-1,-37,-25,0,4,7
1523180317776771,-32,4,12,47,23,13,-3,-6
1523180317777773,20,0,3,-6,-8,11,-8,-9
1523180317777773,-19,-8,2,50,13,-20,-20,4
1523180317798823,19,2,-1,-20,7,9,-5,7
1523180317798823,-40,6,2,-11,-21,-19,-1,-35
1523180317800829,9,-9,-3,-42,-73,-5,8,33
1523180317800829,12,-1,-6,-21,12,-28,-13,6
1523180317813863,-7,-6,2,26,53,3,-10,-28
1523180317813863,39,-6,4,22,-1,-18,4,30
1523180317821884,-36,4,-27,-95,-7,28,31,-7
1523180317821884,-6,-8,7,24,-13,-17,0,-30
1523180317836925,31,4,7,5,-35,3,-3,-63
1523180317836925,-10,1,-1,26,38,-4,-9,87
1523180317837927,-7,0,1,15,88,10,3,-11
1523180317837927,14,-3,-5,-19,-6,0,25,22
1523180317859022,-35,1,-3,-17,-54,-32,-24,-50
1523180317859022,-2,-3,1,5,68,9,35,-42
1523180317860992,7,-2,4,49,-88,-50,-27,-16
1523180317860992,-2,4,-4,5,22,5,-4,15
1523180317873023,9,4,14,13,48,14,4,33
1523180317873023,-19,-4,-15,-81,-47,15,-3,25
1523180317880040,6,-1,0,-2,-20,-6,-8,-24
1523180317880040,8,9,34,112,68,24,3,-59
1523180317896084,0,-1,-12,-14,-46,-29,-4,85
1523180317896084,-23,-6,-16,-14,1,0,5,37
1523180317898087,-11,-10,-9,-38,-71,-65,-12,-14
1523180317898087,10,2,13,35,24,63,-10,-23
1523180317919144,23,2,11,45,6,17,-1,-11
1523180317919144,2,5,2,-36,-20,-14,-14,-40
1523180317920185,-42,0,-9,-42,-36,-2,12,5
1523180317920185,13,-8,-19,-70,-115,-24,-14,33
1523180317932217,10,-9,-8,23,34,-23,-9,-8
1523180317932217,-2,4,15,-36,1,7,10,-27
1523180317941204,24,5,2,54,-3,37,-2,-6
1523180317941204,-10,3,0,-31,10,-22,5,-13
1523180317956476,18,0,-15,-1,10,20,21,114
1523180317956476,-14,-20,-14,9,-41,-24,-20,-93
1523180317958247,-26,-5,11,-35,36,37,-18,17
1523180317958247,2,2,-13,-5,31,-19,4,-30
1523180317979305,-13,7,-1,-30,-6,17,8,-30
1523180317979305,15,15,20,92,102,25,27,57
1523180317980305,32,-5,6,-14,-21,-14,2,19
1523180317980305,-35,-3,-9,-33,-39,1,-28,-3
1523180317992338,-6,6,3,-9,-1,23,17,-30
1523180317992338,2,3,3,-1,-112,0,27,-20
1523180318001432,6,-8,-3,54,46,-4,-13,-3
1523180318001432,2,3,2,-8,10,-10,4,26
1523180318016401,-62,-12,-12,-29,-43,-40,-33,-57
1523180318016401,10,4,9,37,29,30,-12,1
1523180318018409,27,-6,-5,35,27,1,18,20
1523180318018409,23,-5,-4,-36,-9,2,5,6
1523180318039462,0,-2,0,-17,-106,-53,-19,8
1523180318039462,-13,13,24,3,106,22,5,11
1523180318040465,18,-1,-9,32,-12,-11,-6,-35
1523180318040465,4,1,4,14,-25,1,-8,29
1523180318052732,-8,-8,-11,-36,-6,-7,11,18
1523180318052732,0,-2,-8,4,-67,-57,-29,-31
1523180318061524,-12,8,13,0,69,44,19,-12
1523180318061524,29,2,1,-6,-33,-6,-3,-3
1523180318076574,-23,2,9,43,41,1,-25,31
1523180318076574,-58,-10,-3,-11,40,0,-15,-26
1523180318078568,-9,2,-1,-6,-48,-14,11,0
1523180318078568,-5,-5,-7,18,19,19,69,6
1523180318098622,52,2,-2,-30,-19,11,-4,22
1523180318098622,-2,-8,-16,-1,39,-9,-27,-17
1523180318100625,-4,7,21,47,22,-5,-19,-9
1523180318100625,-27,-2,18,-49,-106,-41,-30,6
1523180318112660,1,-8,-25,-6,59,-2,21,-32
1523180318112660,29,-3,-2,14,-12,45,24,40
1523180318121682,-56,-9,-3,28,82,13,-7,9
1523180318121682,13,2,-1,-2,-35,32,22,-12
1523180318136722,6,13,10,-8,5,-7,10,-28
1523180318136722,11,2,5,8,-22,-12,-23,9
1523180318137724,5,-5,-10,-43,-40,-8,9,34
1523180318137724,8,-14,-12,20,104,49,-1,-26
1523180318158778,-85,-4,1,17,-70,-15,-11,-29
1523180318158778,17,-5,-18,-53,-43,-20,25,-8
1523180318160791,56,16,16,-3,-13,17,-4,46
1523180318160791,-28,-9,-9,-53,-81,-32,-19,6
1523180318181840,15,0,-6,16,48,3,-8,-26
1523180318181840,27,-4,-9,3,49,9,17,-11
1523180318182844,-33,-4,-10,-1,-56,-27,-3,10
1523180318182844,6,-2,8,14,51,2,-12,-9
1523180318196883,15,9,1,-29,-12,14,-4,24
1523180318196883,41,6,5,-3,-36,-8,-8,-10
1523180318197885,-64,-4,-4,-9,41,15,24,-43
1523180318197885,23,-1,-7,20,57,-7,-17,22
1523180318218940,5,-6,3,-7,-18,29,-1,4
1523180318218940,-11,-1,-9,-42,-40,-15,-13,4
1523180318220945,23,10,15,27,-4,16,17,-31
1523180318220945,-10,-9,-25,-60,-12,-9,-32,17
1523180318232990,5,-5,6,46,13,27,15,-8
1523180318232990,-19,0,15,89,92,15,-1,13
1523180318242002,49,-12,-13,-44,-37,-1,-6,23
1523180318242002,-59,18,10,-24,-38,-21,11,9
1523180318257138,10,-3,0,-8,9,0,-24,-40
1523180318257138,-19,-8,-4,-21,15,11,31,6
1523180318258045,11,1,-1,73,-9,4,14,-21
1523180318258045,60,7,13,20,69,27,0,46
1523180318279100,-70,-3,-6,-27,-15,3,-1,23
1523180318279100,-39,-8,-8,10,-26,-30,-40,-21
1523180318281104,23,0,-4,-25,-6,-15,-3,-33
1523180318281104,39,-8,-9,13,45,14,-7,18
1523180318292134,-2,3,4,2,19,-19,4,5
1523180318292134,22,2,-8,-8,8,24,11,9
1523180318302201,-39,5,13,-12,-14,8,0,0
1523180318302201,3,-1,-6,55,-36,-41,-20,-31
1523180318316239,0,4,7,-57,-18,0,-5,-12
1523180318316239,17,7,15,16,-1,-9,34,61
1523180318318203,34,-5,-8,-15,20,-4,-27,-19
1523180318318203,-9,2,-4,11,-7,9,2,41
1523180318339260,-44,-19,-2,2,-31,-36,-19,-14
1523180318339260,-25,-15,-19,-31,-71,-36,-13,-31
1523180318341304,21,10,-1,-9,48,7,22,-21
1523180318341304,-16,4,4,2,-9,8,11,-7
1523180318361328,49,4,11,15,60,7,4,16
1523180318361328,6,-3,-3,-7,-101,-23,-18,-6
1523180318363323,-49,-4,3,25,13,43,-1,10
1523180318363323,10,-9,-2,-23,-31,-21,-10,9
1523180318376361,24,-6,-21,-31,-51,-14,13,10
1523180318376361,-12,13,21,47,113,35,-4,-16
1523180318378364,27,-5,-12,-34,-67,-62,-29,10
1523180318378364,-62,4,-9,0,-26,14,22,-46
1523180318399427,9,1,11,42,42,25,3,33
1523180318399427,5,-4,7,-17,-3,10,-18,12
1523180318400423,4,-1,1,-42,-57,-46,5,3
1523180318400423,10,1,-5,29,127,36,-8,-28
1523180318421478,-36,-3,-11,-7,-17,-10,17,13
1523180318421478,3,-11,-12,9,-35,-10,-6,-11
1523180318423485,5,-2,6,16,-4,1,-5,-24
1523180318423485,-29,-1,3,-24,-50,-12,8,-12
1523180318436558,36,5,-5,-16,49,13,-13,22
1523180318436558,34,1,-4,-30,-11,-21,-1,13
1523180318438525,5,-5,1,26,-82,-5,-3,38
1523180318438525,-41,-2,12,56,39,14,-3,-48
1523180318458575,26,13,7,13,-25,-5,9,-2
1523180318458575,-13,10,10,0,71,22,-11,-26
1523180318460587,13,-7,-10,13,38,10,3,-22
1523180318460587,26,-5,3,-2,-21,-27,-4,34
1523180318481638,-59,-4,3,2,0,14,7,-7
1523180318481638,18,-3,-15,-17,-27,3,3,2
1523180318483646,-46,2,-1,15,-9,13,-2,-13
1523180318483646,-2,4,7,0,-12,-13,-12,-27
1523180318495676,26,-2,4,1,31,12,13,8
1523180318495676,-10,-7,-27,-41,-90,-20,22,-2
1523180318502930,-3,-3,6,36,118,40,-14,14
1523180318502930,37,1,1,-20,-2,-8,17,6
1523180318518743,24,-3,-5,-9,-108,-3,2,17
1523180318518743,-58,17,18,37,77,14,-1,4
1523180318520742,31,-8,-14,-60,-29,-38,-16,-11
1523180318520742,-42,-6,-3,-14,-19,35,7,-7
1523180318541824,39,-2,-16,-18,-53,-46,-5,-12
1523180318541824,7,1,5,18,20,21,17,2
1523180318542806,-29,2,1,9,11,1,12,7
1523180318542806,28,2,3,-1,4,-43,-17,-28
1523180318556074,-8,-10,-3,-12,-1,4,0,51
1523180318556074,-16,0,-4,-11,-44,-1,2,-19
1523180318562855,-10,0,-12,-34,-34,-27,-29,4
1523180318562855,32,6,24,68,20,38,32,6
1523180318578897,-16,0,7,26,-27,-1,0,-8
1523180318578897,5,4,-1,-14,78,20,-15,-6
1523180318580902,-28,3,4,-35,-76,-35,-11,-39
1523180318580902,-24,-5,-15,-20,13,-12,-10,-9
1523180318602111,8,-5,-19,-22,-4,18,-7,-1
1523180318602111,39,-4,7,16,-33,-18,2,28
1523180318602961,-3,-5,-1,-8,34,-9,2,25
1523180318602961,-51,-12,-11,-1,-54,-32,-17,-36
1523180318615995,13,10,7,24,-4,-6,-4,-50
1523180318615995,-11,-11,-10,-44,-90,-41,-26,1
1523180318623015,13,4,4,-21,26,6,16,-1
1523180318623015,13,-3,-11,-8,-6,-3,-6,16
1523180318639057,-23,-1,10,31,127,33,-9,11
1523180318639057,-4,2,0,-2,37,31,21,-19
1523180318641063,10,1,-7,-4,-84,-42,-3,25
1523180318641063,-12,-4,4,33,30,-11,-19,10
1523180318661165,8,-7,-27,-102,-98,-25,-14,2
1523180318661165,-7,1,16,87,62,51,21,12
1523180318663120,26,-4,0,21,34,20,-4,-9
1523180318663120,26,4,-9,-22,-29,-8,-2,20
1523180318676156,-44,-19,-4,-1,17,-14,34,-53
1523180318676156,30,2,1,-7,-10,-17,-30,-13
1523180318682210,9,3,-1,21,39,15,16,55
1523180318682210,18,3,1,-27,-3,-4,-9,29
1523180318699219,-29,2,19,66,4,-4,-18,-49
1523180318699219,-28,-4,-30,-122,-95,-19,-19,-16
1523180318700221,21,-1,-4,2,27,17,10,-15
1523180318700221,-3,2,13,56,7,1,-1,29
1523180318721276,10,-10,3,26,20,4,-8,12
1523180318721276,-21,-10,-5,14,33,13,0,-11
1523180318723282,5,7,9,-3,-96,-31,-17,-14
1523180318723282,3,-3,-11,-18,-30,5,9,-58
1523180318735313,31,15,-1,-1,-16,0,3,70
1523180318735313,-8,-2,7,35,8,13,14,78
1523180318742342,-41,-2,-3,-22,90,36,-4,-18
1523180318742342,-39,3,13,6,-18,-12,19,-5
1523180318759377,20,1,5,-20,-79,38,0,-49
1523180318759377,39,7,9,64,-26,-20,-10,-1
1523180318760382,-2,-3,1,30,98,30,22,10
1523180318760382,10,-3,-12,-55,-58,-31,-17,5
1523180318781437,12,-1,-10,18,-10,-21,1,5
1523180318781437,-6,5,10,-2,4,-11,-13,12
1523180318783443,-23,-14,-19,-30,-32,-6,13,-16
1523180318783443,55,1,12,32,24,-10,10,4
1523180318795474,-43,4,-8,-35,-50,-16,7,-6
1523180318795474,-56,-16,-1,1,33,-4,6,-7
1523180318802726,38,1,5,64,20,10,-19,5
1523180318802726,4,3,-15,-59,68,17,5,9
1523180318818534,42,7,14,55,24,-8,-7,24
1523180318818534,-33,-1,-10,-72,-47,-15,-8,-75
1523180318820539,-2,-9,-10,-72,-113,-42,-7,7
1523180318820539,17,-1,-1,-15,-10,19,3,34
1523180318841595,-9,-2,0,22,59,8,22,-12
1523180318841595,14,1,-8,-3,-28,-5,6,10
1523180318843604,-16,-7,-5,-15,-37,-55,-16,-42
1523180318843604,-1,2,5,39,17,27,0,-16
1523180318855762,11,-7,-10,-19,29,-21,-26,-7
1523180318855762,-7,0,4,-23,-23,17,15,41
1523180318864656,-19,-5,-12,-11,29,25,-4,-1
1523180318864656,-8,3,5,18,66,2,-13,-7
1523180318878696,-15,0,8,-4,10,12,2,-4
1523180318878696,33,2,-16,-8,-36,-10,-18,-34
1523180318880699,-5,-13,5,36,1,-8,25,45
1523180318880699,-21,-6,-16,-36,-89,3,-1,-10
1523180318901755,62,8,8,28,87,26,15,13
1523180318901755,-31,-1,15,14,-9,-6,-15,-16
1523180318903772,6,-5,-20,-4,-51,-16,-26,-16
1523180318903772,14,1,-5,-18,-22,24,38,11
1523180318914793,-55,-4,3,-10,-123,-42,-4,-49
1523180318914793,7,3,13,76,97,58,11,38
1523180318924816,15,9,9,-45,-11,-6,-15,4
1523180318924816,-28,-10,-11,-9,-38,12,3,8
1523180318938854,-21,4,-3,12,33,15,-10,6
1523180318938854,-4,-8,-7,-14,-10,-27,-11,-10
1523180318940860,-2,-6,9,15,9,14,-4,-3
1523180318940860,33,0,3,-5,2,-3,17,-44
1523180318961915,-42,7,7,7,64,1,-20,10
1523180318961915,35,2,0,0,46,28,11,33
1523180318962917,22,6,4,-14,-12,25,9,19
1523180318962917,7,-2,0,-8,-48,-37,-8,-1
1523180318974954,-27,-14,-31,-30,-43,-36,5,-47
1523180318974954,16,4,12,11,78,24,-1,0
1523180318983974,-2,7,-9,20,63,6,6,-32
1523180318983974,-19,-6,5,28,47,24,-3,67
1523180318999014,55,-2,-2,-44,-14,-14,-12,23
1523180318999014,15,16,4,-11,-36,-8,16,2
1523180319001019,-78,-4,-6,-21,22,-19,4,-34
1523180319001019,-20,-3,0,3,-91,-36,-9,-61
1523180319021071,16,-11,-13,-13,-10,-23,-13,83
1523180319021071,40,2,-3,4,-68,-6,-14,-8
1523180319023077,-15,5,9,20,43,32,36,25
1523180319023077,10,-7,4,8,32,-5,-31,-6
1523180319035110,-3,1,0,7,-43,7,36,13
1523180319035110,3,-2,-11,-30,-2,2,1,-6
1523180319044137,28,1,2,29,-39,-7,-14,10
1523180319044137,-43,-3,-1,-29,-54,-31,-25,-8
1523180319059174,14,5,20,10,114,80,10,10
1523180319059174,-19,-12,-20,42,-72,-57,-20,-22
1523180319060180,42,8,9,38,62,12,20,-9
1523180319060180,3,5,-2,-5,52,4,18,25
1523180319081231,3,-1,-13,-66,-97,-23,-18,-7
1523180319081231,-83,-8,-7,26,21,-3,4,-31
1523180319083240,69,0,1,-10,9,11,-21,11
1523180319083240,-50,8,4,16,49,25,11,-7
1523180319095270,8,-4,5,6,-5,-16,10,-6
1523180319095270,16,-4,-3,-10,79,9,16,23
1523180319104293,0,2,-2,4,-92,-21,-14,-18
1523180319104293,-7,-2,2,13,20,-1,2,-11
1523180319119333,19,-12,-9,-34,-11,17,-10,46
1523180319119333,-21,-4,-3,-1,-45,-6,-6,-43
1523180319120336,-56,11,9,-23,-46,8,-15,39
1523180319120336,31,-3,2,15,95,4,-1,-7
1523180319141391,-2,-10,-14,14,17,-7,-7,-34
1523180319141391,34,0,2,-42,-59,-33,5,19
1523180319143401,-16,-6,1,39,-1,47,9,-29
1523180319143401,-29,-7,-8,-54,-49,-21,-11,9
1523180319155664,-6,-1,6,50,14,-60,-12,-46
1523180319155664,7,-3,-4,-37,-8,-20,8,-12
1523180319164453,17,9,8,27,105,27,14,59
1523180319164453,15,-3,-7,-15,-17,-5,-14,11
1523180319178490,24,3,11,6,17,18,0,-18
1523180319178490,-52,-4,-4,-9,-26,3,8,-53
1523180319180495,-12,-7,-3,-20,-10,-28,6,35
1523180319180495,17,-3,-11,19,-33,1,-9,13
1523180319202760,37,9,25,62,8,15,9,12
1523180319202760,-16,7,4,-24,51,20,-7,-1
1523180319203556,-7,-10,-12,-44,-26,-39,-17,-42
1523180319203556,28,-2,10,61,81,76,26,5
1523180319215591,-21,0,-14,-44,-43,-20,-14,-11
1523180319215591,12,8,9,30,14,17,22,16
1523180319223610,0,-1,7,10,40,4,3,10
1523180319223610,17,0,-6,-13,-20,-3,-18,6
1523180319238653,-30,-5,-3,6,24,-29,2,-27
1523180319238653,10,-11,-11,-17,-54,54,17,20
1523180319240655,20,9,2,1,-69,-21,-16,5
1523180319240655,-3,10,10,2,-11,-11,4,0
1523180319261716,-35,-16,-18,-17,-19,25,14,-11
1523180319261716,12,-2,-10,8,5,-45,-19,0
1523180319262714,2,-9,1,26,46,23,-3,17
1523180319262714,-15,3,14,-12,-78,0,20,-25
1523180319283770,-2,4,-8,-38,-47,-21,-14,12
1523180319283770,2,0,-2,-15,46,0,-17,-6
1523180319285777,-3,-9,8,43,0,-19,-5,-32
1523180319285777,-17,-4,-8,-25,6,-22,-13,-2
1523180319298813,38,5,-5,26,40,-8,34,37
1523180319298813,-8,-5,4,2,-10,-9,-3,13
1523180319300817,-23,-2,-8,-34,31,-8,-6,-35
1523180319300817,6,4,4,14,74,19,-3,28
1523180319321871,-12,-8,2,-6,-62,-22,-45,-13
1523180319321871,16,-8,-11,12,-6,-20,11,18
1523180319322875,-16,12,6,-47,17,23,26,-4
1523180319322875,-5,-1,-12,-12,-78,-20,-3,-10
1523180319343930,0,2,12,25,85,42,11,-4
1523180319343930,20,-4,5,-3,-29,-8,-11,-10
1523180319345935,-7,-8,-12,10,-19,-12,-9,-2
1523180319345935,19,1,-6,-18,-50,1,16,-24
1523180319357967,-43,3,6,27,16,42,7,-39
1523180319357967,20,2,-3,-17,-13,6,-16,103
1523180319366994,-4,-9,-10,-50,55,-5,1,-26
1523180319366994,13,-1,-16,-46,-65,-32,-12,0
1523180319381030,1,9,17,33,97,39,-3,-18
1523180319381030,-20,2,5,10,-43,-27,-4,-25
1523180319383034,9,3,10,44,-21,8,29,4
1523180319383034,29,-1,15,55,50,11,5,26
1523180319404325,-8,-21,-17,-25,-1,-4,-32,-18
1523180319404325,-81,-10,-22,-80,-4,30,17,-24
1523180319405092,-1,3,-14,-1,-128,-24,-29,9
1523180319405092,1,-4,7,24,79,34,0,5
1523180319419130,20,0,1,17,-65,-11,18,12
1523180319419130,-7,3,15,44,74,-3,-21,-3
1523180319420133,1,1,-2,-11,-53,-11,-5,-24
1523180319420133,-11,-3,-5,-1,16,-25,-2,-15
1523180319441191,20,5,9,-10,-34,-3,-7,66
1523180319441191,27,-3,-11,-25,-43,35,24,-8
1523180319443200,-12,-5,2,14,-5,-26,-6,-22
1523180319443200,-16,0,-8,10,62,6,-11,-2
1523180319464250,-8,13,7,-2,18,-4,-15,-14
1523180319464250,25,-8,-8,-20,-21,-24,10,-30
1523180319465252,-40,-10,-8,12,71,15,-2,41
1523180319465252,16,7,-1,15,22,-8,-5,-14
1523180319486309,19,-2,0,-32,-5,-11,14,5
1523180319486309,-10,4,12,42,66,13,-12,-13
1523180319488314,39,-1,-9,6,26,-25,-19,-22
1523180319488314,-28,-4,2,-15,-41,8,-2,23
1523180319501388,8,4,-10,6,16,18,48,15
1523180319501388,6,5,12,15,5,-29,-30,-13
1523180319503354,5,-7,-8,-33,-101,-37,-15,-4
1523180319503354,-18,-6,2,37,1,26,5,0
1523180319524412,-39,-10,2,1,32,14,10,-13
1523180319524412,32,5,-3,-35,-41,17,1,8
1523180319525413,-8,-2,-14,-14,-43,23,4,-34
1523180319525413,-4,-4,1,6,40,12,1,17
1523180319537445,16,-6,-4,26,-20,-8,-22,25
1523180319537445,-48,1,10,-8,-50,-22,19,-28
1523180319545466,4,6,3,-30,32,22,2,-17
1523180319545466,24,1,1,-12,-41,-25,-19,16
1523180319560512,-20,0,-7,-16,-5,-3,38,-31
1523180319560512,38,-1,-10,16,12,6,-18,13
1523180319561509,37,5,7,12,56,14,2,35
1523180319561509,-45,-8,-5,-18,-53,-50,-13,-26
1523180319583568,-9,-4,-11,-28,-48,-36,-32,-16
1523180319583568,6,-3,1,48,52,-11,7,-10
1523180319584571,-2,-8,2,-45,4,-20,1,-35
1523180319584571,13,10,25,61,21,27,-6,-1
1523180319597607,18,11,-12,-26,-43,-22,-15,61
1523180319597607,-5,-9,-7,11,5,-12,-1,0
1523180319605861,-14,-6,-6,8,20,20,31,19
1523180319605861,3,-3,5,-2,69,-1,-7,-14
1523180319620666,-11,3,1,40,-30,-7,-2,-30
1523180319620666,-18,5,3,-25,-21,5,-11,-12
1523180319621668,9,2,1,-33,-13,-19,-12,16
1523180319621668,56,-7,-22,-54,-47,-5,39,49
1523180319643729,-49,5,23,47,59,56,17,-11
1523180319643729,30,-8,-19,-26,-42,-9,-9,15
1523180319643729,-39,6,18,72,90,45,-3,-23
1523180319643729,-16,-2,-5,-31,-71,-11,3,-48
1523180319657764,9,-7,-6,-14,24,-11,-21,2
1523180319657764,16,6,20,20,27,16,21,11
1523180319665812,-4,-5,-19,-21,-35,-4,0,3
1523180319665812,3,2,-5,10,-7,-12,-19,14
1523180319680824,14,-5,5,0,24,2,-11,11
1523180319680824,-15,1,-2,3,27,-13,1,-31
1523180319681828,13,0,5,24,-21,3,-6,35
1523180319681828,-12,-2,3,23,70,-7,7,-29
1523180319703926,2,1,-9,-25,-52,14,-4,8
1523180319703926,2,-8,7,-14,-54,8,-1,25
1523180319703926,-40,-11,1,6,40,20,-3,-9
1523180319703926,5,-7,-21,-77,-86,-15,-10,-7
1523180319717970,4,10,16,56,53,0,11,-10
1523180319717970,62,2,-4,21,16,3,-7,-1
1523180319725947,-66,3,9,10,-41,-3,37,3
1523180319725947,0,-1,1,-4,39,11,-2,-9
1523180319740985,11,-2,-7,-8,81,42,1,3
1523180319740985,-2,0,-8,1,87,16,7,28
1523180319741988,9,-2,-3,-16,-24,11,-2,-25
1523180319741988,-23,3,9,61,-6,19,3,-14
1523180319763045,22,8,-2,-54,-11,10,2,-4
1523180319763045,5,0,10,12,-6,-9,-5,28
1523180319764047,15,-2,-11,-2,22,8,3,31
1523180319764047,-40,-1,-8,-1,34,-2,4,-2
1523180319778084,15,-7,-7,-18,-41,-42,-35,-37
1523180319778084,-48,-5,9,40,-94,7,0,-38
1523180319786107,24,6,2,5,6,-3,5,13
1523180319786107,14,4,-6,-49,-54,-52,-40,-21
1523180319801380,20,6,14,-13,19,29,56,63
1523180319801380,3,4,-15,-19,28,2,5,4
1523180319801380,0,-3,4,21,-24,9,3,1
1523180319801380,-14,-12,3,-2,-53,-18,-21,-10
1523180319823205,-2,-18,-17,-15,-2,1,-13,-59
1523180319823205,-16,4,-10,-8,-54,-13,35,3
1523180319824209,32,8,10,16,-2,-6,-15,36
1523180319824209,-21,7,9,8,66,6,5,10
1523180319837244,-22,-3,-8,-10,21,-4,-2,-24
1523180319837244,-22,-17,-2,34,-5,-39,-19,-20
1523180319846267,15,-10,-35,-105,-11,-20,-17,1
1523180319846267,1,8,2,33,39,67,21,33
1523180319860302,-5,4,3,28,12,-22,-9,-5
1523180319860302,-33,-9,16,5,34,3,-10,-14
1523180319861305,10,2,11,60,81,11,-5,-28
1523180319861305,30,-7,-11,-20,-56,-21,21,17
1523180319883365,-9,3,-12,-5,38,17,1,17
1523180319883365,-26,-4,-12,-22,-64,-20,-31,-14
1523180319884367,0,1,15,-1,21,18,6,-18
1523180319884367,8,-1,-3,-9,35,-9,54,25
1523180319897402,25,4,9,24,-7,-18,-12,-19
1523180319897402,-21,4,-5,-34,-8,-1,0,24
1523180319905657,-18,-14,-9,-9,-41,-7,-32,-23
1523180319905657,15,-1,3,40,107,20,13,15
1523180319920462,-28,0,5,1,-49,-28,4,-6
1523180319920462,40,10,1,-18,2,-3,-19,-12
1523180319921465,-9,1,12,32,-24,-23,12,0
1523180319921465,-54,-3,-7,-26,-17,-6,-22,-20
1523180319943526,-8,-8,5,4,-93,-36,-10,24
1523180319943526,16,0,-3,5,62,10,8,-3
1523180319944527,8,1,-7,-12,-34,-25,0,3
1523180319944527,26,-2,1,23,50,4,-3,2
1523180319957600,-31,-1,-2,-23,-21,8,-12,-20
1523180319957600,0,3,7,-5,-80,-36,-17,-41
1523180319965584,33,-4,-4,-3,3,32,22,82
1523180319965584,17,-4,2,11,-22,-47,-11,-11
1523180319980622,-59,-4,-6,17,43,7,4,15
1523180319980622,-20,3,6,-21,-40,10,9,-13
1523180319981624,17,7,1,27,-30,-45,-17,-23
1523180319981624,24,0,2,-20,-20,17,-4,16
1523180320003883,32,-11,-8,17,104,68,9,17
1523180320003883,-5,-4,-13,-17,-50,-16,10,-1
1523180320003883,-18,1,4,8,85,6,-3,-23
1523180320003883,-3,7,-3,2,-9,20,-1,0
1523180320017722,-2,-7,-10,-41,-77,-26,-10,-10
1523180320017722,10,-2,7,1,7,1,8,18
1523180320025815,19,4,1,25,79,31,18,23
1523180320025815,-34,-6,2,-10,-25,-15,-34,-38
1523180320040782,61,-5,-1,15,-45,-21,29,10
1523180320040782,-75,-7,-4,-28,-3,-10,-27,-9
1523180320041785,-33,-2,-10,-9,-38,-20,-13,-61
1523180320041785,17,-1,-10,-14,-54,-4,36,97
1523180320062841,17,12,12,48,27,8,-10,-3
1523180320062841,30,6,9,-26,119,52,10,11
1523180320063845,11,-2,0,0,38,19,4,-32
1523180320063845,-9,-3,-1,-17,-51,-33,-29,-35
1523180320077885,-27,-4,-11,-18,-56,-13,-6,28
1523180320077885,14,0,-4,27,15,19,33,1
1523180320085905,1,3,5,-11,-57,-20,-7,1
1523180320085905,-11,3,-3,23,31,10,-3,-39
1523180320101177,7,8,19,-3,68,31,4,-3
1523180320101177,17,-11,-6,16,-93,46,12,30
1523180320101945,-7,-9,-16,-32,-56,-27,-13,10
1523180320101945,32,7,11,15,30,16,3,-7
1523180320123001,-22,-2,-9,-19,-64,-78,-16,-69
1523180320123001,-34,-3,0,4,1,-40,-11,60
1523180320124008,29,-2,2,-22,-23,30,7,18
1523180320124008,-14,-4,-13,18,73,10,13,5
1523180320138043,1,4,4,-27,-49,18,-16,-22
1523180320138043,-4,8,-1,5,-2,-14,-5,-18
1523180320146101,-21,-6,11,47,-82,-35,-12,8
1523180320146101,-48,-10,-13,-13,20,19,-19,-64
1523180320161102,31,-4,-3,16,29,23,13,7
1523180320161102,16,1,-3,17,37,21,4,63
1523180320161102,-14,4,-2,-39,-45,-9,20,-4
1523180320161102,-12,-6,20,36,-32,0,0,7
1523180320183162,-10,-11,-24,-60,-68,-27,-13,-20
1523180320183162,10,-8,-19,-29,28,-1,-13,-28
1523180320184164,6,11,11,33,99,39,17,3
1523180320184164,35,7,9,9,-1,-5,5,-26
1523180320197199,11,1,7,8,19,-26,30,65
1523180320197199,43,3,-1,-22,-49,-26,-21,-15
1523180320206434,-69,2,-2,36,1,1,2,18
1523180320206434,-5,-3,-5,-21,-115,24,-12,-24
1523180320221261,-5,2,15,30,118,22,3,2
1523180320221261,34,-8,-12,1,5,-11,-3,-22
1523180320221261,10,-7,-15,-52,-10,-3,1,6
1523180320221261,17,0,5,21,-59,-27,0,39
1523180320243323,-11,1,-1,0,4,4,-12,-2
1523180320243323,-12,0,-6,-20,-24,-29,-8,-22
1523180320244323,-4,4,10,19,-57,-8,-13,-20
1523180320244323,-18,-7,-12,-47,-95,-82,-30,-12
1523180320266383,14,-4,2,9,-7,16,17,21
1523180320266383,1,13,5,24,16,-5,1,-30
1523180320267385,-12,-6,-13,-12,-39,-9,-1,17
1523180320267385,8,-1,6,-28,26,7,14,-17
1523180320280424,14,-2,-14,-6,1,-10,-16,39
1523180320280424,-6,0,4,15,-9,1,9,12
1523180320281424,-3,-2,3,-20,-47,5,-17,-20
1523180320281424,16,1,-9,-5,75,11,-5,12
1523180320303480,-29,-9,-2,-7,-53,-17,13,-42
1523180320303480,-2,2,-1,18,105,-7,-5,21
1523180320304482,10,-1,-3,-17,-46,-13,-6,15
1523180320304482,-2,1,3,8,-6,11,17,3
1523180320326541,4,4,7,1,-30,-21,-18,-10
1523180320326541,1,-3,-3,5,-23,-9,-14,22
1523180320327545,-13,-8,-4,28,32,-6,-9,-63
1523180320327545,-10,2,-5,-44,-43,22,11,19
1523180320340579,13,2,-4,10,54,22,22,-2
1523180320340579,-22,-1,6,-3,44,36,0,1
1523180320341585,21,-6,-5,13,41,11,-6,3
1523180320341585,2,-7,-7,10,-16,-11,-15,13
1523180320363641,18,7,6,-11,30,24,-19,-38
1523180320363641,-36,-1,-5,-36,-2,-20,20,-21
1523180320363641,28,4,14,69,37,57,52,25
1523180320363641,-1,0,0,19,44,3,-20,0
1523180320386701,-32,0,-7,-30,-95,-35,-10,23
1523180320386701,21,-5,-3,-1,-86,3,-6,-24
1523180320387704,-12,1,-13,-51,21,-36,-19,-40
1523180320387704,12,4,23,73,-7,-30,18,30
1523180320400739,20,-5,0,6,33,28,7,3
1523180320400739,-40,1,-5,-30,-59,-4,8,-33
1523180320401742,-4,-6,-6,-9,-27,1,-7,16
1523180320401742,1,-10,-16,-53,19,-2,-24,-8
1523180320422797,4,-4,-13,7,-75,-40,-3,4
1523180320422797,21,5,13,46,12,22,14,4
1523180320423802,-16,-6,-10,-19,10,0,8,11
1523180320423802,-11,7,-2,-41,-23,-3,5,-33
1523180320446862,-12,-8,-5,5,47,-3,-29,32
1523180320446862,5,-5,4,22,-6,19,-8,9
1523180320446862,18,1,10,9,6,4,3,13
1523180320446862,-6,-7,-5,-10,-5,21,7,2
1523180320460899,-21,9,7,10,62,12,17,-12
1523180320460899,25,2,-11,-1,-11,-27,-17,-28
1523180320461902,10,-5,6,-34,-19,-21,-23,5
1523180320461902,-7,3,1,44,121,61,9,23
1523180320482958,-7,-1,-1,-38,-86,-26,2,4
1523180320482958,2,-2,10,66,21,23,-8,13
1523180320483960,21,5,-3,-32,-40,-39,18,-10
1523180320483960,-1,-1,-5,5,-31,-53,-24,-19
1523180320506020,0,5,5,0,12,34,-9,-4
1523180320506020,-11,-10,-3,-20,108,19,18,6
1523180320507021,-19,-5,-11,5,18,0,3,5
1523180320507021,10,-9,-4,26,-33,-24,-2,-7
1523180320521060,-16,-1,2,-5,52,30,-6,-19
1523180320521060,22,8,-1,-2,-97,-29,8,10
1523180320521060,17,4,4,-8,82,14,-5,2
1523180320521060,-86,-6,-4,-13,-32,1,11,-20
1523180320543117,17,-6,-10,-4,-36,-22,26,-14
1523180320543117,-10,2,9,30,14,43,-3,-8
1523180320544124,18,3,12,14,0,23,3,10
1523180320544124,18,2,-14,-19,-28,1,-34,5
1523180320566179,8,6,10,20,73,12,2,-1
1523180320566179,0,-3,4,-17,-1,-33,9,7
1523180320567182,-1,-14,-28,-14,-82,-49,-5,-7
1523180320567182,-11,9,21,29,127,55,17,-5
1523180320581219,-3,-6,-5,-15,-112,-4,-27,1
1523180320581219,4,-9,-20,-29,3,-32,3,-1
1523180320581219,-15,9,7,0,1,-2,-8,-7
1523180320581219,22,0,-4,-18,-38,0,7,5
1523180320603279,-12,8,5,21,-7,4,-1,-6
1523180320603279,-17,-4,1,-5,40,23,-3,0
1523180320604280,-18,3,-1,11,28,10,1,-14
1523180320604280,-23,-14,0,-13,-108,-36,2,5
1523180320626338,32,1,10,-6,83,25,6,-3
1523180320626338,-40,-3,1,11,-36,-12,4,19
1523180320627341,28,1,-1,-16,-45,-5,-3,-6
1523180320627341,37,7,3,17,109,22,-7,42
1523180320640380,-47,-7,-12,-7,19,-30,2,-13
1523180320640380,3,-6,-5,-42,-34,3,9,-14
1523180320641380,-9,-5,0,34,91,21,-1,16
1523180320641380,6,1,-3,-11,-39,-8,4,-17
1523180320663438,34,8,1,3,64,38,5,0
1523180320663438,-21,-3,6,12,2,7,-14,3
1523180320664440,0,2,2,-8,-2,-19,-15,1
1523180320664440,-1,0,-2,-14,-53,-18,13,-15
1523180320686498,9,-3,4,19,10,8,-5,22
1523180320686498,-43,-2,-21,-6,-27,-2,11,-23
1523180320687502,-8,-1,6,-5,-15,19,-6,-11
1523180320687502,21,-1,-2,-30,23,-14,-8,5
1523180320700536,-17,-7,-4,11,-12,19,9,7
1523180320700536,31,3,-10,-43,-59,-21,-19,6
1523180320701538,-4,-4,-2,50,78,19,-1,-5
1523180320701538,11,5,13,10,-13,5,15,11
1523180320723597,-6,0,-7,-6,-3,-21,4,0
1523180320723597,43,-2,7,27,24,-21,-25,-7
1523180320723597,-44,-7,-6,-26,-13,15,-16,-20
1523180320723597,-10,-10,-13,4,-8,-3,4,2
1523180320746573,10,3,1,2,-69,-37,-17,20
1523180320746573,-10,1,5,14,25,0,9,-13
1523180320747578,9,2,-3,-26,-9,-22,2,-1
1523180320747578,-31,-5,-3,-6,38,10,1,-2
1523180320761112,-3,-10,-13,-16,-128,-26,-9,-24
1523180320761112,14,-3,-11,-5,8,-15,-6,6
1523180320761612,8,8,12,34,4,20,-2,6
1523180320761612,12,2,4,-6,-11,18,13,12
1523180320783672,-1,-3,0,21,-9,-8,1,0
1523180320783672,-4,-4,-3,-17,-10,-1,0,-10
1523180320784173,-12,-9,-17,-24,-69,-42,-13,-17
1523180320784173,2,7,9,42,80,16,-1,2
1523180320806733,38,0,2,10,19,11,18,-7
1523180320806733,-24,4,6,-2,85,43,11,29
1523180320807235,-22,-2,-4,-34,-50,-38,16,-20
1523180320807235,-3,0,-3,10,64,57,-12,-9
1523180320820269,-43,1,6,-21,-112,-25,5,-12
1523180320820269,32,4,13,44,43,27,-3,11
1523180320828290,9,-10,-2,17,17,-5,-20,6
1523180320828290,11,-11,-22,-44,-63,-33,5,3
1523180320843332,-34,4,15,38,34,17,8,-12
1523180320843332,10,6,-5,-30,-30,4,-8,-28
1523180320844335,-12,-5,0,30,-6,3,0,5
1523180320844335,18,-9,-8,-26,13,-10,-9,29
1523180320867394,-5,7,3,8,-37,9,1,-10
1523180320867394,2,-1,-1,-23,-26,-3,-16,1
1523180320867896,9,-1,20,-23,-8,-3,-11,-24
1523180320867896,-5,-7,-13,27,-24,-21,19,-11
1523180320880433,10,-4,-22,-27,11,4,6,-5
1523180320880433,-10,5,-3,21,39,1,32,1
1523180320888452,31,4,11,-20,-92,11,-1,18
1523180320888452,-22,3,2,-8,-35,-15,-13,-1
1523180320903493,22,6,6,20,73,0,-10,-12
1523180320903493,-59,-7,-3,-18,-30,-18,-14,-10
1523180320904495,29,-2,-1,48,56,-9,15,18
1523180320904495,34,15,9,-38,-3,-1,2,27
1523180320926552,-33,-12,-24,-62,-7,-5,-5,-5
1523180320926552,24,-3,23,43,40,11,2,24
1523180320927559,6,-4,-19,-17,-34,-9,11,-10
1523180320927559,-4,8,8,17,0,-21,-21,-37
1523180320940594,8,-7,-7,-15,-28,-21,-6,26
1523180320940594,-1,-4,-6,-11,23,3,-5,-11
1523180320948611,-21,-2,-15,-11,39,44,3,16
1523180320948611,14,5,13,33,-70,10,3,-3
1523180320963649,14,2,1,23,26,18,5,-11
1523180320963649,-60,-17,-10,-21,-47,-34,-8,-23
1523180320964152,15,2,-5,-32,1,-19,-8,18
1523180320964152,6,2,-4,-45,-18,14,-13,13
1523180320986712,-11,-9,-1,-21,85,9,20,0
1523180320986712,1,1,5,22,-112,-34,-7,-1
1523180320987714,-16,0,-6,-28,-13,-13,-22,-5
1523180320987714,16,1,8,54,38,18,3,-10
1523180321000255,-24,3,-1,-14,-21,-22,-24,-8
1523180321000255,20,-4,-2,-8,-11,-21,29,-72
1523180321008770,8,8,7,-6,-13,12,27,96
1523180321008770,-23,-9,-11,-26,-14,11,-4,-7
1523180321023812,7,1,23,67,69,42,3,-3
1523180321023812,33,6,-7,-2,40,-3,-17,0
1523180321024312,-40,-5,-1,11,-50,-15,-13,-69
1523180321024312,-28,-7,6,-3,-23,-8,31,-15
1523180321046871,21,-11,-21,-28,-109,0,-35,13
1523180321046871,-13,8,6,7,41,56,30,13
1523180321047373,8,4,6,28,127,25,12,21
1523180321047373,-3,2,-5,-43,-14,-23,-29,-11
1523180321060408,3,0,12,45,-15,-10,19,-17
1523180321060408,21,3,3,17,-21,-8,5,33
1523180321068432,26,-3,-9,-9,-3,15,10,-7
1523180321068432,-44,-3,-6,10,13,10,1,-8
1523180321083471,12,6,3,-48,25,-1,-13,7
1523180321083471,2,-6,7,9,101,35,-2,14
1523180321084470,-13,-12,-10,10,40,-1,-2,-25
1523180321084470,4,-8,-17,-24,-115,-39,-3,-31
1523180321107033,1,2,-4,9,97,9,5,62
1523180321107033,13,0,-11,-50,-128,-70,-18,5
1523180321107535,-6,13,23,57,115,13,6,9
1523180321107535,-18,-5,-2,11,-12,-8,-16,-64
1523180321120711,-33,-2,-5,-27,-69,-20,-5,4
1523180321120711,5,-4,-4,9,52,29,17,12
1523180321128589,33,-1,0,-19,-97,8,3,1
1523180321128589,28,-6,-7,11,84,17,-2,24
1523180321151649,-75,-4,1,-6,38,21,3,-29
1523180321151649,18,-1,-14,-33,-30,-27,-24,-4
1523180321152653,-9,-4,15,50,27,21,-8,-3
1523180321152653,21,2,-3,-15,2,-22,6,30
1523180321166692,0,-8,-13,-17,60,2,-13,-17
1523180321166692,-13,-2,-12,2,-93,6,8,-12
1523180321167698,-2,0,-5,-45,-12,11,-9,-3
1523180321167698,-29,-5,13,16,-12,-19,-1,7
1523180321189485,33,5,4,26,-8,-21,-18,-24
1523180321189485,-46,-9,-12,-34,-21,-5,-1,28
1523180321190259,23,5,2,-6,-58,-17,15,8
1523180321190259,23,0,15,49,27,21,39,48
1523180321203933,-53,3,8,29,34,6,-6,-51
1523180321203933,24,-6,-10,-28,64,13,-15,-14
1523180321204290,-9,2,0,8,-51,-16,-8,-11
1523180321204290,19,-1,-17,-46,-33,2,-9,14
1523180321226848,29,5,5,13,44,31,14,12
1523180321226848,-5,3,22,19,-22,-25,-12,-4
1523180321227351,-14,0,-19,-22,-56,-4,-2,-15
1523180321227351,1,5,5,-34,-60,39,-6,1
1523180321249408,14,-6,-4,46,5,-14,-1,32
1523180321249408,25,-1,-6,-4,-27,-7,8,-4
1523180321249911,8,10,7,1,24,1,15,-25
1523180321249911,-80,-2,-6,-22,-55,-21,-2,-29
1523180321263447,16,-13,-18,-52,-97,-62,-13,7
1523180321263447,16,7,32,97,88,33,-5,24
1523180321264453,8,-5,0,9,79,-14,12,0
1523180321264453,32,4,1,-3,32,11,5,-4
1523180321286548,-4,1,-9,-24,-64,-30,-7,-11
1523180321286548,4,7,-4,2,-37,17,-10,-10
1523180321287511,-10,-10,-7,-33,-34,-9,-8,15
1523180321287511,-15,-13,-8,11,14,-43,-16,-5
1523180321309067,-6,-3,8,35,-4,4,-8,8
1523180321309067,5,-1,-10,-57,45,-19,1,-28
1523180321310071,-6,5,6,30,-19,11,-3,2
1523180321310071,38,6,4,-2,21,-14,5,4
1523180321323614,-16,5,13,22,27,43,19,11
1523180321323614,-37,-11,-8,-10,-33,5,5,-33
1523180321324109,-5,-3,-1,-31,26,4,-10,37
1523180321324109,-3,-7,-16,9,57,4,-34,12
1523180321346762,34,7,0,1,-12,3,20,32
1523180321346762,-1,3,-1,8,-9,2,-2,-9
1523180321347672,-5,2,9,8,54,8,-5,-13
1523180321347672,2,-8,9,10,-41,20,2,-21
1523180321369228,-10,-4,-7,-16,-48,-22,-11,-15
1523180321369228,21,0,-15,-15,-75,-41,-17,9
1523180321369730,6,4,-6,-51,-39,-23,23,13
1523180321369730,-56,-4,7,61,31,15,0,-23
1523180321383268,18,-7,2,49,83,28,23,-14
1523180321383268,-3,2,-10,-34,-81,2,-22,21
1523180321384268,8,3,-4,-14,-42,-23,-19,-1
1523180321384268,12,1,2,-20,-12,-14,10,19
1523180321406828,-12,-6,7,-14,64,17,1,-5
1523180321406828,4,-8,-8,6,3,-5,5,-10
1523180321407332,-14,-4,-4,0,30,-5,-13,7
1523180321407332,-26,0,-3,10,18,9,-15,-36
1523180321429386,14,0,-8,-47,-118,-19,-7,5
1523180321429386,16,5,20,68,82,17,16,9
1523180321429892,-16,-11,-14,20,-90,-43,-17,-17
1523180321429892,21,14,11,3,38,76,29,33
1523180321443426,36,1,-8,-40,-68,-38,-27,6
1523180321443426,-23,6,17,48,98,53,15,0
1523180321444429,-39,-11,0,13,-69,-9,10,-37
1523180321444429,20,2,-2,3,102,-18,-9,3
1523180321466487,9,0,-9,-22,-8,-8,-24,-11
1523180321466487,-14,1,-1,0,-34,3,17,19
1523180321467490,11,-6,-6,-8,18,-3,20,-14
1523180321467490,27,3,3,-6,17,-15,-10,34
1523180321489287,-7,-2,-10,-54,-31,-15,-2,-36
1523180321489287,-62,-8,0,18,41,10,-2,-12
1523180321490050,15,-10,-4,28,60,22,0,17
1523180321490050,-9,-2,-8,-23,-68,-17,-8,-69
1523180321503821,-30,2,-1,26,-12,1,1,9
1523180321503821,26,4,-9,-45,-1,-2,-6,32
1523180321504087,-6,3,16,12,41,14,25,10
1523180321504087,6,-10,-19,0,-51,-74,-4,2
1523180321526645,9,1,6,-13,11,33,10,-5
1523180321526645,-19,1,-1,1,-38,-18,-5,-14
1523180321527650,18,8,5,-1,35,33,-11,-3
1523180321527650,6,1,1,-1,-25,30,1,-3
1523180321549528,-45,-11,-7,32,-31,-14,10,-4
1523180321549528,31,-4,0,-49,34,-13,11,6
1523180321549792,-7,0,1,9,-36,22,-23,-4
1523180321549792,13,-5,-5,15,-61,-4,19,21
1523180321563327,-20,1,-2,-8,38,-5,-2,-17
1523180321563327,9,-3,2,-12,-23,4,-27,-17
1523180321564369,4,-1,0,-3,-15,-35,-8,-9
1523180321564369,-43,-2,-10,-31,-23,3,0,26
1523180321585890,13,2,7,31,33,7,10,28
1523180321585890,10,3,3,-15,-93,-9,-1,-6
1523180321586893,8,8,7,12,65,-29,-8,-14
1523180321586893,12,-5,-7,-26,-87,-3,-12,-14
1523180321609449,-10,7,5,17,-32,-21,2,5
1523180321609449,-16,-7,-9,-49,7,-30,-3,1
1523180321609951,-21,-3,-7,82,30,93,2,5
1523180321609951,-9,-8,-2,8,56,34,21,4
1523180321623489,48,1,-3,-45,-56,-9,-11,10
1523180321623489,-28,2,11,8,5,0,-10,-28
1523180321624492,-6,-11,-26,-54,-60,-27,2,7
1523180321624492,6,3,4,-3,-11,-6,0,-16
1523180321646138,10,-2,-9,33,58,1,-15,24
1523180321646138,4,0,3,6,7,25,26,10
1523180321646640,-7,2,10,30,19,-3,1,5
1523180321646640,15,4,0,-15,-6,-20,0,-18
1523180321669488,-22,-4,6,-11,-13,28,-6,-13
1523180321669488,-23,-4,-3,17,62,-46,-18,-16
1523180321669991,1,-5,-11,-22,-9,-18,-11,7
1523180321669991,27,-5,-9,-25,-31,-10,4,-9
1523180321683525,-30,2,4,34,-11,-5,7,7
1523180321683525,31,-1,1,-4,27,31,10,22
1523180321684529,-25,-4,5,-32,-44,-9,-13,-20
1523180321684529,-10,4,3,16,40,-36,-22,-15
1523180321706086,23,-3,-1,-25,20,53,18,34
1523180321706086,18,-8,-29,-13,-16,-10,-9,0
1523180321706592,3,5,8,16,31,-2,-1,12
1523180321706592,-19,-1,-5,-49,-80,9,-11,2
1523180321729148,4,4,24,70,86,8,9,-23
1523180321729148,23,-5,-8,5,-24,-12,-6,5
1523180321730150,0,-1,-6,-27,-101,-3,12,-10
1523180321730150,-25,5,5,17,54,-2,-6,8
1523180321743687,26,6,-3,-36,-22,-10,1,2
1523180321743687,0,3,7,32,-14,0,-1,-15
1523180321744732,-25,-1,7,21,34,35,3,-15
1523180321744732,48,0,2,19,26,29,3,33
1523180321766246,-20,-4,-5,-10,-22,-29,-12,-35
1523180321766246,-6,1,-1,-13,-48,2,13,11
1523180321766748,27,4,-9,-6,81,24,-5,13
1523180321766748,-27,2,5,-16,-51,-15,8,8
1523180321789307,19,-4,9,46,57,-10,-9,17
1523180321789307,-5,-7,-5,-35,20,13,3,1
1523180321789808,1,5,15,7,-26,9,12,-6
1523180321789808,3,-9,-13,10,-10,-9,-8,10
1523180321802863,-11,-4,-17,-54,-75,-15,-16,-25
1523180321802863,5,8,2,21,11,-8,-4,6
1523180321810865,16,7,9,6,96,-21,29,0
1523180321810865,-9,-5,8,-2,1,3,-16,2
1523180321826019,5,-11,-16,-5,-18,0,1,-13
1523180321826019,-26,-1,3,-6,3,1,-12,-13
1523180321826998,-5,-4,-14,-12,-79,-29,-6,6
1523180321826998,31,15,14,37,123,18,5,-2
1523180321849041,-57,-2,17,13,-33,9,-2,4
1523180321849041,10,-17,-15,-32,-12,-13,-16,-6
1523180321850049,10,-1,-19,-36,-54,0,-12,4
1523180321850049,-3,6,15,78,51,22,11,-10
1523180321863078,20,2,0,-18,-29,-18,-4,7
1523180321863078,-1,1,7,20,98,3,0,2
1523180321871336,-15,-6,-13,3,-62,-26,-26,-14
1523180321871336,3,-1,-12,-27,-24,-13,22,2
1523180321886142,1,1,4,-1,32,25,-6,6
1523180321886142,9,-3,23,59,-4,22,3,14
1523180321886643,9,-6,-9,-14,3,2,5,-25
1523180321886643,-24,2,-9,-48,-67,-36,-17,-7
1523180321909201,-22,-3,1,-17,-19,-11,13,-29
1523180321909201,-24,-2,4,24,24,43,11,6
1523180321909703,28,3,1,4,-16,-14,3,9
1523180321909703,-6,-1,0,-27,38,7,0,2
1523180321922742,9,-3,-13,-19,-69,-33,-16,-4
1523180321922742,-3,4,-6,-34,-13,-16,-14,7
1523180321931261,6,-1,14,48,82,11,8,25
1523180321931261,13,1,-4,11,35,3,-12,-27
1523180321946378,-13,-5,-12,-10,-51,-9,23,4
1523180321946378,-6,0,1,-4,6,-15,-8,-26
1523180321946802,5,-8,-4,-17,-94,9,1,6
1523180321946802,-5,-6,-1,6,-28,-4,-6,18
1523180321969362,9,7,8,42,127,53,16,-1
1523180321969362,-27,-4,-16,-29,-121,-78,-17,-27
1523180321970413,-14,1,7,6,81,42,3,-6
1523180321970413,-4,-5,-13,-45,-95,-18,4,-17
1523180321982903,16,-1,0,37,-39,9,21,32
1523180321982903,32,0,-6,3,55,21,10,12
1523180321990921,-15,9,9,-11,4,-12,-22,-9
1523180321990921,-1,-10,2,28,76,16,-6,-34
1523180322005965,-28,-5,-8,-5,-37,-7,-5,36
1523180322005965,75,2,-5,-11,2,-14,3,8
1523180322006963,-64,1,2,7,-93,36,-5,-23
1523180322006963,-3,1,6,-9,-6,23,0,9
1523180322029020,27,8,3,-13,62,-5,-5,-7
1523180322029020,11,2,3,13,21,38,-5,20
1523180322030023,5,-5,5,2,60,-10,20,-14
1523180322030023,0,-8,0,74,-25,-25,-1,-18
1523180322042558,-8,0,1,-32,-16,-15,-3,4
1523180322042558,-5,10,-14,-58,-1,24,9,11
1523180322051317,23,-2,1,-16,18,-13,-18,28
1523180322051317,14,-7,-4,-10,-97,-30,-3,11
1523180322066119,-34,-20,-17,15,50,-23,4,-68
1523180322066119,-86,-3,-4,-7,-43,-25,-29,-38
1523180322066620,-21,-3,-4,2,-80,-42,13,51
1523180322066620,29,19,46,63,127,67,6,35
1523180322089181,58,0,-4,-25,-44,-4,-13,28
1523180322089181,23,-11,-18,-6,-117,-21,2,24
1523180322090187,-35,-3,-8,-27,-16,31,1,-44
1523180322090187,-18,-4,-4,18,-12,-25,-13,-37
1523180322111740,4,19,11,-17,-32,2,-17,1
1523180322111740,2,3,16,-6,6,5,28,21
1523180322112242,53,-12,-6,-6,43,-16,-11,-10
1523180322112242,-46,-4,-14,-9,-35,-39,-11,-26
1523180322125817,-1,-2,2,20,-16,21,4,23
1523180322125817,-25,-1,-12,15,37,-13,-5,1
1523180322126780,36,2,2,-7,-38,28,7,10
1523180322126780,-16,-1,-4,-41,-12,-9,4,-15
1523180322149369,-3,-3,2,1,36,-6,0,-15
1523180322149369,25,-7,9,24,23,-8,-1,6
1523180322149842,28,7,-10,1,57,3,-3,6
1523180322149842,-51,3,-12,-24,-17,6,-3,-25
1523180322171920,13,-1,17,38,30,32,30,6
1523180322171920,-34,-17,-4,-22,-32,-7,-11,-22
1523180322172402,41,-5,-7,14,50,-6,-7,19
1523180322172402,22,12,-4,-14,-8,23,6,37
1523180322185937,-59,-10,-13,-11,-38,-24,26,-20
1523180322185937,25,13,18,12,11,16,-6,-29
1523180322186940,-50,-16,-11,-41,-112,-52,1,-28
1523180322186940,24,-3,-8,-14,76,1,-23,23
1523180322209002,7,3,-1,21,53,13,-5,-10
1523180322209002,-7,-3,5,29,-27,29,16,2
1523180322210002,14,5,3,0,-21,-41,-29,15
1523180322210002,-42,-14,-6,29,7,24,-14,-18
1523180322231558,-7,2,4,-61,-59,-29,-16,-54
1523180322231558,26,7,4,52,54,43,34,19
1523180322232562,2,-9,-5,-26,-28,-41,20,87
1523180322232562,-13,-3,4,34,24,45,-2,13
1523180322246333,24,-1,-11,12,51,-10,-33,5
1523180322246333,-13,1,-6,16,-31,-19,-7,-42
1523180322246598,36,6,5,-23,52,26,-14,-25
1523180322246598,-60,-2,-3,-12,-99,-71,39,11
1523180322269159,39,-3,3,-14,59,20,-16,37
1523180322269159,-30,-14,-3,65,17,8,-24,-20
1523180322270386,54,7,-4,-56,-39,-23,25,-43
1523180322270386,-71,0,-15,-43,36,63,27,21
1523180322291721,41,1,0,-4,28,-13,-8,10
1523180322291721,-22,3,18,-8,-23,-20,-13,18
1523180322292761,5,-13,-14,38,-5,-6,-4,-20
1523180322292761,35,5,10,-25,45,-14,-12,-51
1523180322305757,-55,9,3,18,-65,25,8,59
1523180322305757,30,5,3,4,55,15,0,23
1523180322306760,-55,-8,10,56,44,-5,-22,-49
1523180322306760,36,-22,-5,59,-89,-42,-25,-43
1523180322329319,5,7,-37,-94,-72,35,35,-36
1523180322329319,-1,10,11,35,-128,-52,-4,62
1523180322329821,-15,16,4,41,78,30,2,1
1523180322329821,61,-8,3,17,-47,-59,-28,-18
1523180322352615,-32,-13,3,41,4,-54,-23,-15
1523180322352615,2,2,-15,-62,-20,17,26,-30
1523180322352881,-59,4,8,0,-36,-5,6,6
1523180322352881,-1,1,8,-2,67,27,-11,-4
1523180322365917,19,-5,13,106,89,7,0,-17
1523180322365917,18,3,-18,-128,-72,-18,14,-31
1523180322366918,19,1,-3,40,-83,6,18,99
1523180322366918,20,7,-8,1,35,8,5,-14
1523180322388979,1,-3,3,7,-17,-22,-18,-1
1523180322388979,11,-7,9,43,-16,-28,-19,-61
1523180322389984,-28,-7,-4,-26,-1,60,47,-21
1523180322389984,-24,6,2,-59,-86,-1,-37,64
1523180322411538,-6,-3,11,33,14,18,-8,-34
1523180322411538,-65,-12,-11,2,-57,-48,-23,5
1523180322412541,26,4,-3,-15,-35,-17,-6,-5
1523180322412541,27,3,0,-2,11,-6,11,47
1523180322426117,-17,-2,-10,-28,-13,-29,-12,-42
1523180322426117,11,8,-7,8,67,25,-19,-48
1523180322426576,-10,-8,12,30,-40,-32,-20,57
1523180322426576,24,-5,2,-75,43,11,27,17
1523180322449137,12,5,-4,-18,26,48,11,-15
1523180322449137,-4,2,4,19,35,14,5,48
1523180322451181,-42,2,-12,-4,64,1,30,-79
1523180322451181,20,1,1,54,1,-15,-21,-11
1523180322471696,8,-3,12,-41,-29,14,-1,43
1523180322471696,-42,-11,-3,-2,4,7,-18,0
1523180322473202,5,-22,-20,-4,-1,7,9,6
1523180322473202,-48,9,0,15,-25,41,36,-41
1523180322485232,12,-4,-14,-1,-26,-45,-11,-29
1523180322485232,45,1,9,2,-27,-12,1,-44
1523180322494257,-42,1,7,-13,24,13,-25,74
1523180322494257,71,-3,2,45,-18,0,9,-15
1523180322509296,-82,2,-6,-6,51,33,-3,45
1523180322509296,9,-2,-9,-10,4,-17,-9,-18
1523180322510801,4,4,1,-93,-37,-5,0,-73
1523180322510801,46,0,5,48,80,10,12,100
1523180322532360,2,5,2,29,13,18,13,-40
1523180322532360,-12,-6,-4,2,-40,-20,6,9
1523180322533863,-3,-9,-6,6,-25,-16,-31,-25
1523180322533863,-12,-3,-3,38,75,17,21,-28
1523180322545392,8,7,-6,-27,-94,-34,-22,56
1523180322545392,55,13,6,-50,14,4,3,-1
1523180322554417,-34,-6,7,14,-62,-32,-17,-7
1523180322554417,-50,-13,-8,-23,-29,-26,-17,-63
1523180322569495,-29,-11,8,121,75,5,46,-34
1523180322569495,43,15,-20,-111,-48,22,-20,41
1523180322571187,24,12,5,9,-97,-9,12,-26
1523180322571187,-42,-20,16,25,-82,-17,7,15
1523180322591515,8,-7,-15,-16,22,-2,-1,29
1523180322591515,-46,-11,-2,64,59,5,2,-60
1523180322593020,10,6,26,44,9,15,-39,-77
1523180322593020,9,3,-33,-115,-74,-14,-8,81
1523180322605553,39,1,-3,-31,-105,-35,-22,15
1523180322605553,19,-3,2,40,75,-10,17,8
1523180322620730,-71,-13,-6,27,54,9,0,-64
1523180322620730,-15,-4,-8,-54,-115,-47,-14,-67
1523180322629115,10,3,12,38,10,39,-15,-43
1523180322629115,40,13,12,16,37,25,15,59
1523180322630621,18,1,-13,-42,-1,10,0,104
1523180322630621,7,-13,-11,-1,-8,8,-2,-19
1523180322651910,-75,-12,-8,-41,-13,-31,-9,-67
1523180322651910,-35,-3,4,106,31,12,-5,-128
1523180322653719,29,11,5,-54,45,29,49,64
1523180322653719,95,11,9,-67,-15,22,-13,64
1523180322665213,-33,-10,-20,-5,14,28,-2,2
1523180322665213,-10,-10,-6,5,-43,-31,1,20
1523180322674235,-29,1,-9,-8,10,-32,-25,-109
1523180322674235,14,12,18,101,77,52,31,46
1523180322689275,30,4,9,44,15,-10,5,27
1523180322689275,60,-1,-9,-99,-68,-21,20,50
1523180322690780,-7,13,8,50,67,59,-24,28
1523180322690780,-81,-12,-17,19,11,16,-8,-128
1523180322711838,27,4,18,25,15,-14,10,-36
1523180322711838,4,-5,-17,20,-32,13,4,64
1523180322713341,106,7,11,-52,-48,-23,23,-14
1523180322713341,-67,2,9,38,15,-28,-22,-33
1523180322725389,55,-7,-10,-18,-14,7,-25,-57
1523180322725389,-91,-3,-1,18,47,17,-6,-21
1523180322734455,14,3,-14,-34,18,-23,4,-13
1523180322734455,-16,1,2,11,8,27,-2,7
1523180322749451,79,-1,-8,-75,-62,1,48,48
1523180322749451,-36,6,-1,15,-54,25,27,15
1523180322750956,-12,-3,13,87,127,1,3,-16
1523180322750956,27,-4,15,-4,-24,-42,-6,-18
1523180322771586,-20,-7,-9,28,-69,-26,21,60
1523180322771586,8,-1,-14,-106,-43,-29,-52,6
1523180322773516,-7,3,1,85,67,42,33,0
1523180322773516,41,7,-11,-10,70,-7,9,-12
1523180322785546,57,0,18,32,87,-9,-12,-6
1523180322785546,-103,-16,0,-21,36,-5,-7,-18
1523180322794573,31,-14,-6,23,-30,8,-29,5
1523180322794573,-7,3,4,53,-64,-15,-20,-14
1523180322816634,-43,-4,-15,-71,-13,41,-13,-30
1523180322816634,10,5,16,12,3,22,39,15
1523180322818134,0,-13,-1,-13,-12,-18,-10,7
1523180322818134,29,-1,-12,-19,-32,-5,7,52
1523180322831708,-56,3,0,13,7,-12,-13,-37
1523180322831708,6,-4,6,39,43,-2,-19,-87
1523180322833174,8,9,-1,-2,-46,2,10,48
1523180322833174,42,12,9,0,46,2,9,87
1523180322845208,-40,-8,0,-25,-58,-3,16,13
1523180322845208,21,-16,-17,2,6,-24,-7,-14
1523180322854230,-71,-6,-3,-4,-100,-6,-14,-105
1523180322854230,-2,8,-3,-6,56,-8,-10,-78
1523180322869509,23,6,11,4,42,13,26,127
1523180322869509,4,-11,-4,-9,-7,-20,4,-10
1523180322870775,36,-1,-8,8,-46,-40,-29,7
1523180322870775,-40,3,1,14,1,14,28,-105
1523180322891832,-8,3,10,44,40,19,3,-37
1523180322891832,76,9,1,-54,-39,12,-5,66
1523180322893334,-81,-1,-7,-2,5,-13,-7,27
1523180322893334,2,-13,-1,-46,-38,-8,-11,8
1523180322905367,35,-11,-13,11,24,-23,-21,-18
1523180322905367,-19,4,2,44,38,-7,7,-30
1523180322914391,19,1,-6,-52,53,-7,28,4
1523180322914391,1,7,4,-43,-64,16,-17,45
1523180322928929,-26,-12,-3,-7,-81,-34,-11,-22
1523180322928929,-5,5,14,57,74,66,8,-9
1523180322930934,-9,-14,-14,-41,-97,2,-10,-19
1523180322930934,8,6,-3,36,62,-14,4,5
1523180322951728,18,6,-2,-58,15,-5,49,83
1523180322951728,-1,1,15,35,-30,-17,-26,-3
1523180322953494,34,-1,1,19,-38,26,7,-15
1523180322953494,-43,-9,-13,12,49,20,-1,-60
1523180322965526,21,9,-3,-15,-104,-28,-42,-39
1523180322965526,-48,-10,2,-1,41,38,30,68
1523180322974550,5,-1,-1,29,-7,20,12,8
1523180322974550,-2,-8,-6,-25,4,-10,-3,1
1523180322989604,17,9,7,18,13,-13,-9,-20
1523180322989604,-18,0,-4,-19,61,-9,-12,-44
1523180322991094,105,4,-8,-42,-5,11,-13,12
1523180322991094,-93,3,7,36,-99,-30,-21,52
1523180323011652,14,-9,11,1,119,19,16,-31
1523180323011652,-26,-10,-23,17,-124,-32,-5,-1
1523180323013153,6,7,8,7,111,57,12,16
1523180323013153,13,-5,12,32,3,-18,9,-29
1523180323025185,2,3,-5,-56,-41,-14,-21,52
1523180323025185,4,-2,-7,-20,-73,-24,8,-29
1523180323034208,8,2,4,41,66,-2,-9,-6
1523180323034208,-28,4,-4,-25,26,1,-38,-44
1523180323049248,-24,-4,8,58,28,1,29,-128
1523180323049248,67,12,8,23,26,78,29,98
1523180323050754,-18,-8,-18,-67,-98,-88,-28,-87
1523180323050754,-11,-3,16,-6,82,45,36,-7
1523180323071809,-31,0,-16,-2,-60,-6,-24,0
1523180323071809,-5,8,9,-9,33,-5,-13,-41
1523180323073313,-7,-10,22,63,28,-8,9,18
1523180323073313,-8,-26,-28,-26,-57,-7,-1,33
1523180323094637,-1,12,-2,26,-4,1,-3,13
1523180323094637,28,3,-10,-31,-61,-7,6,4
1523180323095643,-3,7,0,-6,26,-18,-14,27
1523180323095643,22,6,9,9,-86,-17,0,-11
1523180323109178,-3,-11,-4,-3,57,0,-11,1
1523180323109178,39,3,-4,-14,-31,-5,13,17
1523180323110682,-115,-12,2,5,-9,-3,5,-31
1523180323110682,40,5,-16,-33,-41,4,2,9
1523180323131740,13,4,18,47,32,0,-9,14
1523180323131740,-4,-10,-5,-16,32,9,-10,-39
1523180323133244,25,-1,-13,-10,-44,-6,20,37
1523180323133244,2,6,-1,-11,-15,-1,-4,2
1523180323154534,-32,-7,9,21,-11,21,-34,-23
1523180323154534,-5,-15,-4,-14,30,-5,13,-43
1523180323155803,10,3,2,14,15,19,15,53
1523180323155803,27,1,-1,21,11,12,-15,-7
1523180323176858,1,-1,-13,-47,-2,-10,-13,-5
1523180323176858,-9,-2,0,8,-3,1,29,-50
1523180323178362,-72,2,10,10,34,31,-27,-8
1523180323178362,41,-6,-3,-11,-11,-25,-12,26
1523180323191898,22,0,2,14,-2,12,-1,3
1523180323191898,7,4,-27,-97,-17,-32,-3,-10
1523180323193403,-7,-2,6,44,-98,-18,-17,11
1523180323193403,-9,-3,-2,11,122,36,28,-87
1523180323214457,-6,-2,-8,80,35,-15,21,84
1523180323214457,3,5,11,-68,-57,-8,-27,17
1523180323215966,44,10,13,23,33,5,10,7
1523180323215966,-58,-13,5,74,78,-2,15,-19
1523180323228495,2,-4,-16,-9,15,-5,9,-58
1523180323228495,-5,3,9,113,26,-11,-49,-17
1523180323235515,50,11,-14,-128,-77,2,16,68
1523180323235515,26,3,11,18,-33,5,-7,25
1523180323252100,-63,-1,-9,-54,-118,2,18,-13
1523180323252100,32,-11,13,86,105,-13,-6,-13
1523180323253679,-77,-14,-20,-13,21,0,-26,-68
1523180323253679,85,12,3,-21,10,14,6,50
1523180323274117,-30,1,0,-2,-37,19,45,47
1523180323274117,0,10,0,-42,26,-17,-29,-79
1523180323275624,2,-2,-1,18,0,40,4,10
1523180323275624,1,-9,2,-30,-40,-25,-1,66
1523180323288662,14,-7,-4,-14,34,-1,-41,-26
1523180323288662,-32,-10,-14,25,-18,-29,-16,-56
1523180323295174,24,14,15,90,117,4,-14,-128
1523180323295174,6,22,-1,-106,-65,30,90,71
1523180323311716,37,-8,24,-4,-37,17,-21,20
1523180323311716,-43,-27,-20,17,17,-26,11,-33
1523180323313223,31,-5,-20,-3,-25,-70,-40,-72
1523180323313223,-106,-13,-10,30,62,-8,-36,-91
1523180323334397,-12,6,-12,-47,-37,-19,7,-33
1523180323334397,43,9,17,34,-38,33,20,68
1523180323335905,-37,3,10,-44,21,25,-16,14
1523180323335905,33,6,-1,-17,-73,37,1,12
1523180323348437,15,-2,-13,-16,-9,0,-2,39
1523180323348437,-21,1,1,12,2,-19,-22,25
1523180323355458,31,-2,9,18,-47,-30,9,26
1523180323355458,-1,4,-3,-8,21,3,3,-21
1523180323372002,17,-2,-9,24,6,2,-21,-87
1523180323372002,-43,-12,4,0,-33,22,1,48
1523180323373505,39,-2,-15,-92,-17,31,30,83
1523180323373505,-48,-17,4,73,21,-40,-23,-23
1523180323395110,-5,5,-2,-5,-12,-14,-3,-20
1523180323395110,-16,10,1,16,12,-21,-25,-29
1523180323396567,35,-5,-5,-5,71,13,6,0
1523180323396567,-1,-9,-8,2,-106,-28,-12,-7
1523180323408598,-10,-3,-4,-28,-6,-15,1,-12
1523180323408598,32,5,-9,-67,25,20,24,28
1523180323415615,-24,-1,2,33,16,-24,32,11
1523180323415615,5,-5,-4,3,-15,-15,-18,-43
1523180323431898,15,-5,12,56,-13,-12,-9,-52
1523180323431898,-8,8,-2,-40,14,17,28,95
1523180323433163,1,-2,-10,-22,-107,-13,-3,-14
1523180323433163,-9,4,11,34,127,11,-14,-27
1523180323454217,15,11,14,-10,-1,-1,4,-18
1523180323454217,44,0,-7,4,-13,6,2,-26
1523180323455724,2,-6,12,16,11,-15,15,96
1523180323455724,15,-5,-19,-9,-46,-51,-10,-20
1523180323467756,-62,0,7,4,87,-25,-19,-55
1523180323467756,29,14,21,91,6,18,1,32
1523180323476834,-7,-9,-26,-85,-53,-14,1,3
1523180323476834,19,-9,-1,-4,11,26,-6,12
1523180323491875,0,-6,-13,-26,-12,3,4,19
1523180323491875,-26,1,2,47,6,-20,-18,-54
1523180323493378,-27,2,6,15,-70,-54,-35,-35
1523180323493378,2,-8,-2,-26,77,59,19,33
1523180323514433,9,-3,-1,28,94,39,-11,-15
1523180323514433,25,7,-7,-55,-73,-1,-12,-46
1523180323515939,-102,-10,2,19,-49,10,11,-41
1523180323515939,66,9,6,18,56,16,-10,69
1523180323528711,-28,-9,1,44,-56,-19,29,24
1523180323528711,-31,-2,11,-61,23,9,6,-7
1523180323535490,37,-8,-17,-6,27,2,-40,-49
1523180323535490,-6,7,-9,16,-127,-40,16,12
1523180323551580,15,-1,2,-30,51,9,10,60
1523180323551580,0,5,5,12,17,12,20,13
1523180323553084,0,-1,-3,8,5,-1,8,-37
1523180323553084,-28,-1,5,-4,-5,-7,-22,-23
1523180323574139,27,-5,1,5,13,19,8,5
1523180323574139,-23,-9,-2,10,-50,-29,-11,-14
1523180323575643,15,9,7,0,48,12,-12,53
1523180323575643,44,-2,-6,16,-49,-25,31,-91
1523180323587675,-9,9,-7,-37,-64,34,6,74
1523180323587675,-93,-12,0,10,85,28,-13,-8
1523180323596699,29,5,16,61,15,56,33,31
1523180323596699,9,1,0,-19,-35,-14,-7,-12
1523180323611740,24,4,6,12,6,-5,-22,-34
1523180323611740,22,-8,-12,-34,-82,-22,1,-21
1523180323613243,-6,-1,-6,41,55,21,-10,56
1523180323613243,-16,10,6,-65,26,15,22,1
1523180323634534,6,5,-1,-30,-27,2,-9,-7
1523180323634534,9,-5,3,45,21,9,-13,14
1523180323635803,-2,-21,-16,-3,32,-40,-25,-82
1523180323635803,-63,-6,3,-4,25,16,42,-21
1523180323647836,32,0,-8,-10,-55,-7,-11,115
1523180323647836,52,4,-2,-10,-70,4,3,23
1523180323656859,-6,10,24,34,100,29,-17,-46
1523180323656859,-9,-7,-13,-35,-30,-28,-40,-42
1523180323671899,-44,-9,-9,15,-74,-28,32,8
1523180323671899,34,7,-7,-66,29,21,6,26
1523180323673403,35,10,-8,-2,-15,-29,3,-5
1523180323673403,-32,-5,23,33,74,34,-23,13
1523180323693957,1,-15,-9,24,-26,-23,9,-24
1523180323693957,-16,-7,-5,-3,-54,-10,-3,-57
1523180323696003,-23,4,6,11,21,12,9,-10
1523180323696003,22,5,-21,-39,-11,-23,24,71
1523180323707994,20,4,12,11,30,-31,-43,-20
1523180323707994,34,2,17,55,102,-25,50,4
1523180323717019,-87,-5,-8,-54,-101,-27,-17,-21
1523180323717019,23,-3,-12,-59,-32,-15,-10,33
1523180323732296,-4,2,1,16,22,-4,-14,-16
1523180323732296,14,-1,-12,-14,7,11,1,9
1523180323734063,-17,-6,11,40,52,-2,11,-52
1523180323734063,-11,-2,8,56,49,32,-6,-20
1523180323754117,-11,-2,-2,-36,18,-6,-9,38
1523180323754117,36,10,12,-2,-28,-18,2,13
1523180323755623,19,-7,-14,-15,45,15,9,58
1523180323755623,-1,5,1,22,-33,-2,-3,-6
1523180323767655,0,8,1,-7,-11,7,0,-76
1523180323767655,-51,-9,-10,15,57,-9,-12,-28
1523180323776677,95,2,19,1,59,16,27,13
1523180323776677,-33,-2,-9,-19,18,-25,-31,-2
1523180323791719,-59,8,5,9,-45,34,0,-9
1523180323791719,28,5,5,14,-18,43,75,41
1523180323793222,-29,-6,-9,-20,-70,-18,-31,-75
1523180323793222,19,0,5,30,42,-30,-14,16
1523180323814278,3,-4,-3,-18,0,-12,13,78
1523180323814278,-9,-12,-13,-32,41,5,-30,1
1523180323815781,10,-2,0,-8,19,13,20,36
1523180323815781,-1,-1,-9,13,-9,3,-2,-95
1523180323827814,10,2,-9,-12,-108,-30,2,-26
1523180323827814,-17,5,7,32,86,37,-5,20
1523180323836837,1,-4,4,-31,-77,-31,-15,39
1523180323836837,8,-2,-8,19,11,7,4,23
1523180323851879,-17,-16,-16,-31,-28,16,-21,-95
1523180323851879,-1,5,-9,-47,33,14,21,-80
1523180323853382,-14,4,4,10,41,55,5,91
1523180323853382,18,2,-1,-7,-51,-14,-7,33
1523180323873935,-25,-5,0,25,62,2,-7,-25
1523180323873935,-3,-5,1,26,-128,-46,-70,-39
1523180323875941,-22,-6,-13,13,-8,12,18,-126
1523180323875941,22,3,0,-32,11,31,37,95
1523180323887982,2,1,2,-62,-56,-21,8,-17
1523180323887982,-1,3,15,50,42,-26,-25,36
1523180323896997,-8,-6,-16,2,-16,-26,38,15
1523180323896997,14,-3,10,42,-26,1,-24,-87
1523180323911536,31,4,-7,-17,79,16,22,107
1523180323911536,-11,0,-4,-30,-101,-39,-27,12
1523180323913543,48,8,4,-3,-49,-51,-38,-18
1523180323913543,-66,-16,0,13,-77,50,51,-26
1523180323934096,2,3,-1,8,48,-9,-15,-58
1523180323934096,-9,-5,-3,0,-52,13,-3,49
1523180323935605,37,7,-4,1,-12,-21,5,-1
1523180323935605,9,8,-6,-92,-15,-22,-18,18
1523180323947631,-6,-2,7,19,31,0,-14,-11
1523180323947631,-37,-21,-15,29,48,-38,-15,-66
1523180323956656,2,-2,-5,5,-52,8,-31,91
1523180323956656,8,-6,-4,14,52,11,26,-13
1523180323971199,-3,1,12,41,5,0,2,-20
1523180323971199,8,3,-12,-67,5,-12,8,27
1523180323977713,-58,-2,16,-1,48,25,-21,-41
1523180323977713,7,-7,-10,4,11,1,-16,21
1523180323994257,42,3,-7,1,-102,-40,-12,0
1523180323994257,11,1,5,16,59,27,46,-20
1523180323995761,-27,2,-5,-28,-18,12,10,5
1523180323995761,13,2,0,5,7,-40,-1,32
1523180324016815,-3,-11,-1,-15,-32,2,5,-28
1523180324016815,55,-3,-1,22,9,8,-22,-19
1523180324018322,-51,8,-2,-16,6,26,16,86
1523180324018322,-27,1,-4,-3,12,-31,-3,-61
1523180324032049,-19,-5,-4,-4,6,2,7,17
1523180324032049,-20,5,11,-1,-9,-8,8,15
1523180324033363,3,-12,-2,18,25,2,-14,-74
1523180324033363,30,0,1,27,23,18,-28,-37
1523180324053914,15,2,-13,-44,-36,1,24,106
1523180324053914,-17,12,6,-13,-14,33,13,7
1523180324055923,19,-6,-1,47,36,11,25,-32
1523180324055923,-10,10,12,19,30,33,2,-20
1523180324076474,10,-7,10,21,24,-11,-41,-6
1523180324076474,-3,-14,-12,14,-33,10,-19,12
1523180324078479,-5,6,-17,-51,-128,-51,-17,-45
1523180324078479,-7,-3,8,30,-33,-5,17,7
1523180324091516,9,-3,3,6,114,39,6,-4
1523180324091516,25,-11,-12,23,-48,-14,-1,12
1523180324093521,-21,5,11,5,2,-3,10,-1
1523180324093521,-36,2,-6,-40,-32,-12,-15,5
1523180324114075,11,9,-3,-29,31,3,10,-19
1523180324114075,-52,-11,3,59,72,-20,-8,-55
1523180324115578,31,2,-5,-39,24,46,13,-22
1523180324115578,68,12,23,37,41,32,20,116
1523180324136866,-29,-4,-11,-14,-80,-16,20,-28
1523180324136866,-21,-3,-1,12,28,17,3,-16
1523180324138140,13,3,19,33,-35,-69,-4,-19
1523180324138140,6,-22,-30,-38,11,-27,-55,-19
1523180324151713,-30,-1,3,35,90,43,30,-37
1523180324151713,33,18,3,-6,13,23,-27,-9
1523180324153736,4,9,20,-13,-10,-2,-2,64
1523180324153736,-30,-20,-5,-25,-69,39,15,-3
1523180324174233,32,-11,-19,8,40,8,-13,13
1523180324174233,-52,4,-7,-23,-123,-54,1,-46
1523180324175740,-12,3,9,35,78,5,-12,-52
1523180324175740,26,8,20,44,-12,7,9,85
1523180324197296,8,3,-10,-42,20,10,-28,-3
1523180324197296,-37,-3,1,-29,-47,14,57,44
1523180324198800,21,-13,-4,4,-41,-34,-3,-14
1523180324198800,-2,-1,-15,-6,-12,-25,-12,-60
1523180324210832,14,7,14,22,7,-6,11,-11
1523180324210832,1,2,0,-31,12,-8,3,34
1523180324217851,7,-11,-22,-24,-7,0,-20,5
1523180324217851,-21,-6,-15,-22,76,38,-14,-62
1523180324234583,38,3,-1,7,-88,-54,-5,38
1523180324234583,-11,8,27,55,6,41,-6,-20
1523180324235898,-14,-6,-3,-2,10,20,55,30
1523180324235898,-72,-6,-7,-22,-32,-28,-7,-30
1523180324256453,7,-1,-4,-9,9,7,-5,21
1523180324256453,30,-13,-12,-18,-31,-6,-14,5
1523180324258458,-50,-11,-5,22,17,0,6,-37
1523180324258458,63,18,13,-15,-44,4,1,-1
1523180324270999,-37,-4,3,17,-11,27,-2,-22
1523180324270999,6,-1,-8,-67,72,-12,21,25
1523180324278009,16,-3,-13,2,39,27,-18,-13
1523180324278009,7,8,21,26,-87,-33,13,5
1523180324294595,-18,-1,21,37,39,6,-7,-24
1523180324294595,24,-4,-23,-6,1,2,-24,43
1523180324296057,33,4,-2,-22,-73,-27,19,1
1523180324296057,-38,-4,-1,13,92,13,9,-13
1523180324316613,2,-1,3,-11,9,-11,-36,-55
1523180324316613,19,5,0,-11,-63,-47,5,43
1523180324318672,8,2,7,31,32,41,-7,0
1523180324318672,-18,-9,-5,-28,-17,-12,-27,-47
1523180324331151,11,-2,-5,-4,18,9,11,-21
1523180324331151,-39,6,-1,-26,-77,6,41,20
1523180324337674,35,-3,-15,-17,-46,7,-19,84
1523180324337674,18,3,20,43,93,-15,-21,-10
1523180324354215,-9,-8,-2,0,12,39,1,-21
1523180324354215,-1,-9,-13,8,50,-2,-27,-47
1523180324355718,7,4,12,-5,-46,0,16,35
1523180324355718,-11,0,-24,-67,-117,-23,-8,56
1523180324376772,-2,2,8,29,67,6,14,10
1523180324376772,16,-4,2,7,-20,-37,-10,-25
1523180324378279,-40,4,5,38,87,53,-9,-70
1523180324378279,1,-4,-8,0,29,-9,-8,4
1523180324390812,48,3,-5,-67,-70,-30,-5,12
1523180324390812,-60,-14,-3,24,25,29,3,21
1523180324397828,8,-1,-7,-14,-47,-23,10,-6
1523180324397828,-13,2,6,22,17,1,0,-9
1523180324414162,-19,0,3,10,-70,-35,-10,-42
1523180324414162,23,1,7,9,70,-3,-29,5
1523180324415667,-18,-16,-9,-20,-4,-24,31,-43
1523180324415667,-7,2,-6,9,-1,3,28,99
1523180324436854,12,7,9,-2,-59,2,0,45
1523180324436854,6,-5,2,10,44,0,-31,-23
1523180324438237,-8,3,-2,21,-8,-17,-27,-11
1523180324438237,19,2,1,-16,-23,13,15,-49
1523180324451260,1,2,-11,-24,-75,-59,9,24
1523180324451260,-29,5,22,55,55,46,14,-8
1523180324457776,19,-8,0,15,-26,-35,-28,-11
1523180324457776,25,-2,-6,-58,-3,8,-3,17
1523180324481840,-17,-4,-14,-9,-42,-2,-3,-19
1523180324481840,37,14,10,-3,-39,9,30,68
1523180324483345,7,2,-4,-29,1,2,-16,-6
1523180324483345,-15,-13,2,26,-59,-52,-14,-23
1523180324496880,-15,-1,4,29,77,36,18,-20
1523180324496880,10,6,3,19,82,7,-7,-55
1523180324498388,-2,0,6,31,0,3,6,43
1523180324498388,29,13,0,-72,10,31,16,72
1523180324510417,25,1,5,10,-89,-23,-19,12
1523180324510417,-67,-20,-15,2,46,29,25,-21
1523180324519441,-45,-8,-1,13,2,7,-12,-18
1523180324519441,28,1,-3,24,49,-3,-16,-69
1523180324534392,-5,3,11,12,-23,3,11,11
1523180324534392,30,-3,-4,-31,-65,-24,-12,30
1523180324535900,16,-2,-7,4,22,0,0,37
1523180324535900,-26,7,-2,-12,-19,23,28,-13
1523180324556492,-16,-11,-11,10,19,6,14,-26
1523180324556492,6,4,-3,-90,-50,37,-20,1
1523180324558460,13,6,2,23,22,-16,22,-14
1523180324558460,-9,-13,-10,20,7,-17,-8,-20
1523180324570494,-9,-4,-9,-5,32,-12,-28,44
1523180324570494,5,-2,0,7,-89,-36,10,1
1523180324579639,39,2,-4,-30,78,41,-24,-8
1523180324579639,0,8,10,25,-35,11,20,11
1523180324594054,-44,-7,-9,-20,51,17,17,-25
1523180324594054,-3,-1,8,55,74,6,-4,-21
1523180324595559,6,3,1,-4,-15,-22,-6,11
1523180324595559,-5,2,-2,-35,-39,-31,-14,43
1523180324616615,20,14,5,-19,89,17,-7,-58
1523180324616615,49,11,9,44,-11,-16,5,69
1523180324618118,1,-3,5,1,43,36,1,-32
1523180324618118,-30,-15,-4,36,47,60,10,-3
1523180324630386,-14,-7,-11,-16,-47,-38,13,7
1523180324630386,10,4,-9,-20,16,-1,-32,-65
1523180324639174,-12,5,6,23,-16,-3,0,6
1523180324639174,7,-6,7,-36,-28,-7,51,44
1523180324654219,10,0,-5,4,-12,44,-11,12
1523180324654219,-7,2,4,18,-29,-11,7,-24
1523180324655718,-5,-5,-4,27,-19,-26,-37,-14
1523180324655718,3,-5,-4,-63,-1,-4,-23,-64
1523180324676776,10,5,0,11,-19,3,13,80
1523180324676776,-56,-13,-9,-26,-25,-31,-4,-49
1523180324678279,-25,-12,-6,5,15,-61,-15,7
1523180324678279,-27,-4,-20,-49,-25,1,5,-33
1523180324690353,56,19,26,50,90,82,84,34
1523180324690353,-14,-6,-4,0,-33,-15,-14,-25
1523180324699335,6,-9,-5,8,-32,-13,9,-6
1523180324699335,25,11,-6,-27,15,-10,4,-21
1523180324714374,-12,-3,-2,-9,18,-20,-31,13
1523180324714374,0,-10,-17,-31,-53,-11,15,9
1523180324715878,2,7,9,0,-36,11,-3,2
1523180324715878,41,-2,17,87,30,-25,-28,-9
1523180324736432,-37,-6,-29,-59,-23,-2,-5,-36
1523180324736432,-5,-4,7,-11,-10,-4,21,8
1523180324738440,-11,0,-2,-32,-30,23,9,22
1523180324738440,2,5,-16,-8,46,13,-8,41
1523180324758994,-9,-6,6,24,-30,-26,-19,-24
1523180324758994,15,2,-5,-2,11,-13,-32,-31
1523180324760999,34,1,-8,-27,-24,7,22,42
1523180324760999,-2,4,5,37,87,-25,5,-58
1523180324774032,-36,-12,4,31,60,-10,-6,41
1523180324774032,22,0,-4,-22,-7,39,0,0
1523180324775537,-13,-3,-4,-39,-65,-22,-26,42
1523180324775537,24,0,-4,30,19,-11,14,-41
1523180324796594,23,2,-9,-1,-74,-34,-18,59
1523180324796594,11,7,30,37,6,36,10,24
1523180324798096,-36,-7,-6,-13,24,11,32,-7
1523180324798096,-14,-18,-14,35,-33,-11,-47,-31
1523180324810131,-23,3,2,-25,45,9,6,-68
1523180324810131,29,11,-8,-60,-12,5,24,58
1523180324819698,22,7,4,10,48,2,-11,-10
1523180324819698,-24,-10,7,65,-1,-4,1,49
1523180324841712,-7,-3,-4,-1,-47,-3,-11,-24
1523180324841712,10,-6,-1,17,28,29,3,-26
1523180324843216,-12,1,-4,-29,16,21,0,-48
1523180324843216,35,4,5,-24,21,0,5,52
1523180324856751,-4,4,0,31,-61,-19,-1,28
1523180324856751,-22,-18,1,-3,-48,18,-9,-20
1523180324858256,13,-4,-24,-75,-48,-9,18,-13
1523180324858256,-37,-1,9,24,9,20,-3,12
1523180324870289,4,-1,-11,-21,-33,9,-19,-53
1523180324870289,-5,7,-1,-2,55,-33,-25,58
1523180324879312,31,-8,-13,11,-70,-29,7,-27
1523180324879312,-75,-8,15,75,-14,0,-4,-2
1523180324894394,6,-1,3,-88,-6,-5,10,-49
1523180324894394,-4,-9,-28,4,20,-29,-11,76
1523180324895856,82,10,15,32,14,2,-2,18
1523180324895856,-37,6,10,-18,5,1,-2,-46
1523180324916913,-10,-15,8,80,84,16,-11,-46
1523180324916913,-20,1,-1,24,57,-8,-12,-45
1523180324918416,0,11,4,-50,14,22,-11,73
1523180324918416,64,0,-15,-46,-68,-16,57,44
1523180324930685,-49,4,6,2,-60,-8,-9,7
1523180324930685,-24,-5,-2,-6,-41,-11,4,-24
1523180324939472,-15,-9,-1,34,3,-7,-17,-24
1523180324939472,-11,3,-16,-48,-85,-19,-24,-42
1523180324954013,49,6,8,49,119,-4,12,24
1523180324954013,29,-3,11,34,66,2,20,73
1523180324956016,-59,-5,-7,-56,-81,-1,1,-23
1523180324956016,37,-2,-20,0,12,23,-45,-10
1523180324976571,-17,-3,-7,-22,-34,-37,-5,-37
1523180324976571,-30,3,-2,8,-82,-10,-28,-29
1523180324978700,8,-5,32,99,127,25,45,-28
1523180324978700,-10,6,2,-43,49,10,-15,110
1523180324999132,-7,-5,-14,-42,-85,8,19,-22
1523180324999132,23,10,4,-18,15,-18,-12,-32
1523180325000634,-38,1,-5,21,36,32,-20,-71
1523180325000634,30,6,15,29,-8,26,-11,-12
1523180325014173,1,-4,-6,-11,-58,5,21,57
1523180325014173,-10,-9,2,62,75,8,10,-38
1523180325015677,17,6,-6,-100,-41,-64,-32,-17
1523180325015677,11,-2,14,66,6,22,14,76
1523180325036729,-4,-6,13,30,25,28,-8,12
1523180325036729,3,0,-23,-19,-10,24,36,-36
1523180325038236,-31,4,10,67,55,-9,-18,-23
1523180325038236,0,-9,3,-21,-20,-22,-15,-60
1523180325059292,19,1,-3,13,44,8,12,44
1523180325059292,-10,-7,-8,-64,-75,-33,2,-19
1523180325060796,-20,-8,-16,-15,12,-15,-19,66
1523180325060796,-63,1,-15,-51,-96,21,30,-103
1523180325074836,35,2,4,43,76,15,2,83
1523180325074836,30,4,24,81,99,21,-5,0
1523180325076337,19,-2,-7,-73,-69,7,21,37
1523180325076337,-21,-5,-6,-24,-74,-35,-34,-49
1523180325096390,12,2,-14,11,16,-6,-6,-37
1523180325096390,-24,-6,-3,-29,-16,15,-2,11
1523180325098396,5,2,14,90,5,34,-3,-7
1523180325098396,2,-3,2,-8,73,7,-15,-39
1523180325119586,11,6,-8,-84,-29,-4,-2,9
1523180325119586,20,8,8,12,-47,10,-18,54
1523180325120956,-10,-21,-14,23,-4,-21,2,-14
1523180325120956,-11,-3,13,80,46,-32,-8,-73
1523180325133723,16,-9,-2,-16,-51,-14,-16,65
1523180325133723,-22,6,-17,-94,-55,-15,-6,-23
1523180325140511,49,15,22,66,68,42,37,-2
1523180325140511,-6,-4,-9,22,-28,-42,-12,-20
1523180325156550,-51,1,11,1,-19,18,9,-15
1523180325156550,21,-2,-3,-4,2,3,15,3
1523180325158053,-17,5,-10,-34,-37,-25,-50,-31
1523180325158053,34,3,-9,-21,-26,0,21,49
1523180325179345,28,-19,11,51,9,-2,-7,-6
1523180325179345,-70,-11,1,27,48,21,6,-14
1523180325180613,31,11,-7,-67,-17,19,5,4
1523180325180613,-24,-4,5,2,24,12,18,29
1523180325193646,3,-2,-20,-15,-23,-45,-24,-16
1523180325193646,5,1,2,28,-39,30,23,-32
1523180325200166,27,-6,-1,-4,-42,-61,-33,2
1523180325200166,-26,-2,-3,-22,-82,-3,31,34
1523180325216710,-1,4,3,9,89,38,-13,-60
1523180325216710,20,-2,6,26,-52,-16,-4,43
1523180325218713,-30,3,-6,-10,-31,-18,18,-17
1523180325218713,27,7,2,-11,-6,6,8,16
1523180325239269,25,1,9,0,23,-16,-14,40
1523180325239269,-16,-8,-9,-28,16,-3,-21,-41
1523180325240774,-22,-8,0,-5,35,10,15,-2
1523180325240774,12,4,10,27,20,13,-5,56
1523180325253307,-30,-4,-5,7,8,0,6,-27
1523180325253307,34,3,-4,-8,-2,-13,2,4
1523180325261832,-14,-2,-3,34,39,-23,-37,-23
1523180325261832,32,6,-4,-47,-19,25,10,-4
1523180325276869,2,-1,-10,-50,38,-4,-11,-19
1523180325276869,-11,-2,3,11,-14,38,21,24
1523180325278373,-20,3,9,33,-4,29,32,-25
1523180325278373,15,-2,4,45,10,-1,-33,-1
1523180325298929,6,-6,-3,1,2,1,1,74
1523180325298929,-3,7,-11,-22,-41,-15,-8,-62
1523180325300933,-3,-10,-15,-49,-87,-6,6,41
1523180325300933,66,6,20,30,100,7,-21,0
1523180325313466,-106,-8,-9,2,-80,17,0,-50
1523180325313466,43,0,21,25,72,-13,21,64
1523180325320492,-11,-11,-29,-59,-36,-4,26,0
1523180325320492,-12,-2,-1,11,23,5,-19,-69
1523180325337032,4,2,-4,-9,-20,-8,-4,5
1523180325337032,16,4,-6,21,39,-13,-14,1
1523180325338533,24,9,17,8,19,4,-28,2
1523180325338533,-49,-15,-17,-38,-22,-6,21,13
1523180325359089,16,4,8,42,-15,-40,-17,-72
1523180325359089,-35,-4,-7,-26,-14,-6,-5,-15
1523180325361094,54,14,0,-63,15,19,41,83
1523180325361094,-27,-1,-2,6,-10,-9,-17,-8
1523180325373627,-12,-13,-1,-4,-27,-8,0,-10
1523180325373627,34,-13,-19,-18,-20,-11,-1,-40
1523180325380144,-70,-7,-8,8,35,-21,-36,-11
1523180325380144,16,10,10,33,35,1,10,-25
1523180325396688,24,4,8,-15,-95,24,15,32
1523180325396688,25,5,0,10,37,64,37,106
1523180325398194,-24,-4,5,23,54,36,-2,44
1523180325398194,-39,-5,-10,-23,-64,-9,-12,-2
1523180325419247,8,-3,-1,28,9,-38,-26,-92
1523180325419247,-4,4,7,-24,-72,-44,12,-22
1523180325420751,39,5,2,21,54,24,30,36
1523180325420751,-72,-11,-6,9,39,-1,-6,-7
1523180325433325,60,3,-1,-44,-7,-7,16,17
1523180325433325,-70,-6,-1,9,-31,-40,-36,-41
1523180325440302,-5,-10,-6,15,-10,27,10,-21
1523180325440302,30,3,5,-11,43,-7,1,11
1523180325456847,10,0,-24,-21,-59,-22,21,-12
1523180325456847,-22,0,-4,-14,31,0,-19,37
1523180325458354,-3,7,28,54,-36,-3,-32,-9
1523180325458354,93,-3,-13,23,11,-1,67,-6
1523180325479552,-98,1,9,-36,5,-3,-9,-12
1523180325479552,31,-7,-8,-13,19,24,9,54
1523180325481115,18,-6,-10,0,-100,-34,-17,-88
1523180325481115,7,2,0,5,-10,-17,-20,117
1523180325492944,-4,8,11,27,59,11,-4,-11
1523180325492944,11,2,-1,27,2,-33,-49,-45
1523180325501968,-26,1,5,-15,-69,-10,31,-18
1523180325501968,38,7,-11,-64,72,21,2,6
1523180325517072,-5,-10,-2,22,87,15,12,19
1523180325517072,4,0,6,15,-21,-8,-3,20
1523180325518510,-16,-2,0,33,-28,-8,-21,-2
1523180325518510,16,1,2,-3,8,4,-8,-39
1523180325539065,-37,-5,-10,-21,-25,-15,-27,27
1523180325539065,12,-6,0,-7,23,-9,73,-73
1523180325540570,20,-6,-8,-5,3,-9,2,54
1523180325540570,10,-3,-11,-26,-74,-11,6,20
1523180325553105,-34,3,4,9,15,1,-21,-28
1523180325553105,-22,3,3,19,-63,-27,3,-27
1523180325561626,-13,-3,-2,22,34,12,-13,-32
1523180325561626,7,-2,-2,-65,-49,-15,-29,43
1523180325576665,46,7,0,1,2,-3,27,1
1523180325576665,-7,-5,-8,-16,-25,10,-8,18
1523180325578170,-1,-6,2,13,37,10,-5,-3
1523180325578170,-33,-6,-5,37,20,6,13,-33
1523180325599266,22,5,2,-30,-37,2,2,-4
1523180325599266,-18,9,19,15,91,62,14,-12
1523180325600729,27,-5,-9,11,29,16,6,17
1523180325600729,-2,-14,-7,-7,-30,-17,-1,12
1523180325612762,-45,-3,-2,13,14,19,23,11
1523180325612762,19,6,5,-4,-45,8,-21,4
1523180325621786,-9,-8,-10,-14,-36,-28,4,-31
1523180325621786,-69,2,8,40,65,10,4,-49
1523180325636828,48,-3,7,52,-22,1,-21,54
1523180325636828,16,2,-14,-60,36,9,-15,2
1523180325638331,-35,1,3,-30,82,-7,12,-35
1523180325638331,27,-3,3,15,-44,13,-1,1
1523180325659387,-64,-12,-16,13,-4,16,17,-4
1523180325659387,3,-5,-3,-5,-12,-23,-7,-34
1523180325660889,13,6,2,10,26,-1,2,56
1523180325660889,4,-1,-15,-97,-51,6,1,27
1523180325672922,42,14,32,77,109,24,2,-33
1523180325672922,-20,-4,-9,10,-18,-3,0,35
1523180325681946,-23,-5,-6,2,-59,-33,-16,-9
1523180325681946,23,-9,7,17,25,-14,-16,-40
1523180325696486,23,-3,-18,-33,-55,5,16,25
1523180325696486,-43,1,-5,-53,-23,6,-8,-42
1523180325698490,22,3,12,18,32,26,1,25
1523180325698490,-37,2,1,32,-42,-42,-31,3
1523180325719158,64,4,1,-12,2,22,7,-17
1523180325719158,-16,-10,0,15,94,0,2,5
1523180325720549,0,-3,-16,-20,-33,3,17,1
1523180325720549,-2,8,8,4,-44,-22,-2,-12
1523180325733199,5,-4,4,-4,-39,-11,-1,-9
1523180325733199,18,0,-2,-14,2,-14,-18,17
1523180325742105,-4,0,-1,21,24,13,9,10
1523180325742105,0,3,-5,-61,-24,5,14,-41
1523180325756645,0,-1,-8,-18,57,-13,5,46
1523180325756645,-34,-7,-1,32,8,-8,-29,45
1523180325758154,7,2,12,2,-24,-15,-34,-50
1523180325758154,51,-12,-4,27,32,47,25,46
1523180325779439,-98,3,0,-11,17,11,17,-76
1523180325779439,17,-7,-10,-29,-99,-31,-15,-19
1523180325780708,31,12,14,25,115,18,14,-2
1523180325780708,-34,-4,3,62,-12,-23,-26,20
1523180325792742,63,2,-21,-89,-18,4,12,56
1523180325792742,0,3,7,24,18,33,4,18
1523180325801765,-27,-3,1,-29,-50,-16,5,-28
1523180325801765,-14,2,2,17,-17,-30,-7,-11
1523180325816804,33,-2,7,49,39,16,-25,-26
1523180325816804,-32,-6,-10,-5,-21,-13,-7,-72
1523180325818308,105,12,0,-14,-26,16,5,106
1523180325818308,-114,3,10,8,73,32,22,20
1523180325839364,18,-3,-9,-24,-13,-6,-20,8
1523180325839364,37,1,6,25,-68,8,6,-20
1523180325840868,-25,-9,5,29,14,-9,-13,-58
1523180325840868,9,-8,-14,27,78,-9,-9,-26
1523180325852902,16,12,0,-99,-53,1,-14,81
1523180325852902,11,5,0,36,3,10,62,21
1523180325862425,-66,-11,-12,-24,56,-2,-22,-20
1523180325862425,7,-8,1,-12,-89,-13,4,-12
1523180325877007,-19,-2,1,32,57,30,-11,-47
1523180325877007,16,3,11,34,108,3,-16,-1
1523180325878468,43,0,-3,-22,-72,-20,-5,-5
1523180325878468,-37,-10,-18,-39,-4,-20,18,-23
1523180325899061,-40,-6,-7,26,-34,9,7,88
1523180325899061,19,3,-5,-54,-36,-40,-2,4
1523180325901126,-2,-6,5,56,8,44,-1,-47
1523180325901126,21,1,0,-46,-42,-14,13,28
1523180325921582,21,4,0,-2,9,6,4,-33
1523180325921582,-17,3,13,19,26,15,-6,-7
1523180325923086,-22,-15,-22,-47,-75,-56,-13,-17
1523180325923086,25,6,17,83,81,70,6,-13
1523180325936623,-11,-3,-3,-1,-54,-20,1,-8
1523180325936623,-33,-5,2,-13,-78,-23,1,34
1523180325938126,20,4,0,-6,71,0,12,-2
1523180325938126,0,6,3,-17,-72,12,-11,-29
1523180325959184,13,-7,3,16,30,-33,-20,-15
1523180325959184,-14,-10,-13,-11,-31,-10,-26,-23
1523180325960686,-37,-4,-9,8,-75,-39,1,14
1523180325960686,41,13,22,17,111,39,31,40
1523180325981742,11,-4,-5,-59,-40,-23,2,-11
1523180325981742,0,-5,3,32,-17,-4,0,-17
1523180325983248,-24,-1,-11,-19,-38,-21,2,3
1523180325983248,20,3,-8,6,40,-23,-26,-1
1523180325996782,-19,-1,16,11,-20,-18,-1,-39
1523180325996782,4,-3,-11,-23,23,41,9,4
1523180325998287,27,6,1,12,64,9,-11,42
1523180325998287,-9,7,-5,-20,-101,21,2,-2
1523180326018986,-15,8,20,54,59,6,3,-20
1523180326018986,21,0,8,7,-3,-7,-6,-6
1523180326020993,-64,-13,6,6,81,14,5,18
1523180326020993,-19,-9,-22,-23,26,-6,-19,-2
1523180326041548,13,4,6,-39,-54,-6,-7,-2
1523180326041548,42,5,-4,7,56,17,-3,36
1523180326043052,16,-2,-6,-23,-125,-3,-10,-52
1523180326043052,-14,2,2,23,5,-29,10,53
1523180326056085,-8,-3,-4,22,46,-11,0,-6
1523180326056085,6,5,6,2,-21,38,-12,-22
1523180326062604,6,2,4,18,95,36,16,32
1523180326062604,-13,-6,-16,-32,-87,-41,-23,-36
1523180326079385,27,4,-12,12,-57,11,22,10
1523180326079385,2,-2,-6,-32,-25,5,12,50
1523180326081194,-38,-11,18,44,-85,3,-11,-27
1523180326081194,45,-8,-7,-21,20,14,-1,-44
1523180326101943,-47,-7,-9,-11,23,9,1,20
1523180326101943,-2,8,-9,5,9,-44,-12,31
1523180326103212,-31,1,-5,-29,-33,2,32,-24
1523180326103212,27,-5,6,5,-7,1,-6,0
1523180326115785,19,-7,-8,2,7,2,-4,-16
1523180326115785,-41,-6,-9,-2,-43,9,38,-45
1523180326122763,39,6,-4,8,86,-16,-42,15
1523180326122763,-1,6,-3,-55,23,-7,38,67
1523180326139847,22,-8,9,14,-26,8,7,-11
1523180326139847,-27,-3,5,8,-31,-1,-15,-5
1523180326141313,-1,2,-4,4,50,6,10,0
1523180326141313,-16,-9,-10,-7,-6,19,0,-38
1523180326161866,20,-4,1,35,39,-35,-38,21
1523180326161866,-34,5,1,-8,59,42,32,-4
1523180326163372,36,0,-10,-25,-80,-15,-10,3
1523180326163372,-34,8,12,-9,-21,19,14,5
1523180326175943,53,2,11,20,46,-32,-6,-5
1523180326175943,-9,-7,1,38,-21,-14,-5,-61
1523180326183164,1,-6,-1,-6,51,10,-23,83
1523180326183164,6,7,-4,-45,9,9,10,-28
1523180326198973,-23,2,-6,4,-19,12,-3,-11
1523180326198973,21,-7,-2,-17,-9,-21,-10,-60
1523180326201179,-4,4,-2,0,-25,-6,0,95
1523180326201179,-4,-6,0,64,61,-21,-22,-38
1523180326221531,-15,7,1,-22,-18,44,25,8
1523180326221531,7,5,4,-7,-13,-27,-19,1
1523180326223030,-17,-9,5,-1,-31,15,22,-59
1523180326223030,-4,-10,-2,37,47,6,-30,4
1523180326236067,-11,-2,-5,5,-13,-26,5,-11
1523180326236067,3,-1,0,2,15,6,2,42
1523180326242582,-3,3,0,-48,-37,-4,5,-13
1523180326242582,1,3,2,39,32,-5,0,10
1523180326259125,-25,-4,-6,-20,-35,-6,-19,-27
1523180326259125,55,3,10,20,35,-4,1,85
1523180326260630,-26,-1,2,1,-27,9,1,-69
1523180326260630,-32,-3,-7,-44,-40,-10,-5,-15
1523180326281923,-54,-5,0,32,-82,32,3,-39
1523180326281923,8,2,-4,3,122,19,25,88
1523180326283732,40,8,10,11,-13,38,17,34
1523180326283732,36,-8,4,25,-26,-17,-11,10
1523180326296224,-15,-2,-6,3,-77,-8,9,-27
1523180326296224,4,6,7,-48,8,-24,-18,-34
1523180326302742,-14,-7,-25,-39,44,23,21,-43
1523180326302742,-6,-3,1,-11,2,-20,-17,23
1523180326319291,13,-8,-13,-8,-27,-26,-15,26
1523180326319291,5,0,7,39,-28,7,-24,-35
1523180326320790,-12,13,3,26,75,-1,14,7
1523180326320790,18,5,5,-7,-59,20,0,4
1523180326341346,2,-6,-3,-16,13,-10,11,21
1523180326341346,-17,4,-2,-7,-27,-3,-1,-15
1523180326343350,-20,-6,-6,-4,-47,-48,-40,-29
1523180326343350,-3,-8,14,23,-30,7,29,17
1523180326355882,44,-6,-2,16,91,37,18,29
1523180326355882,-13,0,-15,-34,-41,-1,-10,1
1523180326362902,-6,-1,-11,-15,-29,-48,-8,-43
1523180326362902,4,11,6,26,62,65,-22,15
1523180326379572,25,-1,1,-75,-64,-64,-23,15
1523180326379572,-19,0,2,37,71,21,9,-17
1523180326381192,22,-8,-8,-2,-96,-31,3,23
1523180326381192,-10,-11,-7,-12,6,-18,11,-8
1523180326401737,1,4,7,33,79,32,-1,-13
1523180326401737,-13,-2,-5,-32,-119,2,-5,-37
1523180326403511,7,3,0,9,7,-36,-15,10
1523180326403511,-2,7,16,5,-37,19,33,33
1523180326424063,-11,4,2,7,66,18,1,-19
1523180326424063,47,-11,-4,-13,-10,-24,0,23
1523180326425569,-16,-10,-4,17,48,23,-8,-8
1523180326425569,-88,-10,-9,-20,-27,-19,-4,-28
1523180326439103,10,9,10,45,9,-4,-15,7
1523180326439103,-15,-6,-3,-13,-39,-28,-9,-34
1523180326440610,48,1,3,-25,1,6,-5,29
1523180326440610,-5,-8,-19,-9,39,-34,-7,-57
1523180326461665,-16,-1,-1,4,-10,8,21,62
1523180326461665,23,3,8,43,53,14,2,11
1523180326463169,-49,-5,-5,-36,-47,-8,-6,0
1523180326463169,17,6,-1,-13,2,37,-17,-37
1523180326475199,-27,-6,-1,3,38,-1,-2,-17
1523180326475199,34,3,-8,-53,-43,-28,-7,26
1523180326484225,0,3,8,23,37,5,41,-20
1523180326484225,9,5,8,31,-70,4,5,39
1523180326498764,-8,-9,-11,-16,-44,-27,-21,-22
1523180326498764,-12,-5,0,-59,6,27,9,-32
1523180326505280,-4,4,4,75,45,36,-5,73
1523180326505280,23,3,-1,-15,37,15,11,-35
1523180326521823,42,3,-8,-62,-57,-36,-20,4
1523180326521823,-73,-8,-3,36,-47,-27,-4,-24
1523180326523328,-4,-7,2,-28,34,-1,4,-67
1523180326523328,-6,-1,-10,12,35,-25,-10,57
1523180326535360,-4,5,3,30,-16,9,15,5
1523180326535360,3,-7,-6,-2,-46,-22,-6,-31
1523180326544385,26,11,19,8,27,34,-1,-2
1523180326544385,32,2,5,25,23,2,-2,8
1523180326558924,-9,2,6,33,-2,17,6,44
1523180326558924,-5,-5,-13,-41,65,8,-6,7
1523180326560927,1,-1,-3,2,-36,-5,-6,-33
1523180326560927,-4,-6,-6,-24,43,-9,10,7
1523180326582025,-20,0,-6,-4,-33,-4,-2,-60
1523180326582025,20,-5,3,61,34,37,27,114
1523180326583697,42,0,-5,-32,16,-15,-6,35
1523180326583697,-21,0,-13,-26,-22,-28,-21,-28
1523180326595521,-56,-23,-9,-47,-51,-18,-7,-62
1523180326595521,56,4,2,41,21,-9,0,-17
1523180326604550,-24,-6,-18,-56,-14,29,0,-39
1523180326604550,80,8,3,31,30,8,-4,65
1523180326619084,-21,2,27,99,16,20,-14,-8
1523180326619084,-46,-5,-2,-53,36,-17,12,4
1523180326620587,10,5,11,26,-65,-7,9,-1
1523180326620587,1,2,-10,-39,-26,-5,-10,-19
1523180326641642,3,5,-2,7,35,24,-8,36
1523180326641642,5,-3,-6,22,58,2,12,11
1523180326643146,-9,-4,12,-12,27,9,-15,-25
1523180326643146,-17,-4,4,58,-72,-21,7,16
1523180326655178,18,4,3,-13,114,46,10,1
1523180326655178,52,8,-7,1,-44,9,-3,-14
1523180326664203,-88,-5,-7,-45,-51,-47,-9,3
1523180326664203,-24,-7,7,-16,-61,-8,12,-51
1523180326679242,29,-8,-18,-17,-18,-14,13,21
1523180326679242,6,5,7,19,11,8,-15,-12
1523180326680747,53,5,-7,-16,61,16,15,59
1523180326680747,7,9,20,72,78,18,-1,16
1523180326701830,-21,1,-4,-4,-42,-26,-4,-41
1523180326701830,-14,-11,-10,-14,-39,-17,-20,-24
1523180326703336,2,2,17,33,22,-25,16,-8
1523180326703336,5,-4,-9,-68,-25,19,-9,35
1523180326715369,20,5,-9,-13,49,7,15,34
1523180326715369,-29,2,7,13,-43,-27,-25,-23
1523180326724391,-9,-3,-11,9,-59,7,-4,-20
1523180326724391,-6,-8,-3,-30,3,-21,-8,-45
1523180326738930,-4,0,4,11,5,5,3,8
1523180326738930,0,-2,4,-27,-3,15,9,20
1523180326740936,15,-1,-7,27,37,3,-2,8
1523180326740936,26,5,-3,-4,35,-12,0,-1
1523180326761490,-54,-5,-4,-4,29,5,-13,-30
1523180326761490,-62,6,22,22,32,-1,5,6
1523180326763495,16,-7,-26,-40,-29,0,-1,9
1523180326763495,-6,-1,0,30,-23,6,6,-34
1523180326775529,29,7,7,11,75,13,0,-8
1523180326775529,49,0,1,1,-49,2,6,33
1523180326784551,-7,2,3,-5,31,4,-2,34
1523180326784551,-22,-3,-1,3,7,1,-7,-11
1523180326798593,12,-1,2,-25,-42,-36,-12,-25
1523180326798593,-19,-8,-7,3,6,16,21,-33
1523180326805107,2,-9,-5,-14,0,24,-31,1
1523180326805107,43,6,-6,6,24,14,-3,56
1523180326821651,-42,-1,0,19,-9,6,9,8
1523180326821651,-8,-5,-17,-55,-19,-2,6,-35
1523180326823154,-8,-3,9,22,-67,-31,-23,-9
1523180326823154,-42,-17,-7,38,74,1,5,4
1523180326844210,44,4,-1,-40,-35,-1,-1,9
1523180326844210,3,5,4,9,-17,14,-5,-8
1523180326845715,-18,2,-10,-9,1,-11,19,-15
1523180326845715,20,2,5,2,14,16,-8,73
1523180326859340,9,2,7,4,85,31,13,1
1523180326859340,17,-4,-11,-6,-33,-38,-4,-18
1523180326860844,-25,-2,12,22,-33,-1,-25,-2
1523180326860844,-24,-3,-3,-57,-6,-14,-5,-19
1523180326882022,-20,-13,-11,16,-79,-22,8,-9
1523180326882022,13,3,6,25,88,16,1,2
1523180326883678,6,0,-2,0,-32,8,1,-3
1523180326883678,-3,-2,-10,1,-17,-4,23,0
1523180326904004,4,3,9,-29,7,-13,-22,-42
1523180326904004,-3,5,5,6,-5,0,0,38
1523180326906009,-22,-10,-12,-1,2,-5,1,32
1523180326906009,1,-10,-12,8,-17,-29,-25,-40
1523180326919046,-16,-2,-9,-48,5,22,26,-36
1523180326919046,-11,2,-1,-14,5,7,1,25
1523180326920548,19,0,10,37,92,26,6,-18
1523180326920548,9,9,10,-32,-52,-4,-16,-8
1523180326941603,-9,-7,-24,-11,-78,-55,11,-7
1523180326941603,29,0,-1,14,91,7,-32,0
1523180326943107,5,-2,16,20,-18,17,17,2
1523180326943107,-6,-2,3,3,16,-15,19,-2
1523180326964164,7,3,3,29,-59,-15,-12,27
1523180326964164,-32,-6,-4,-9,-54,-35,-13,-43
1523180326966170,8,7,0,-9,-4,14,9,-15
1523180326966170,61,-2,-4,-11,-24,-1,1,54
1523180326979940,-25,-1,0,-4,11,-4,-13,-19
1523180326979940,-23,-1,-6,22,4,9,25,59
1523180326981775,-47,-4,5,4,5,-26,-26,-31
1523180326981775,4,-1,0,-17,-15,-10,4,-24
1523180327001763,33,4,0,14,9,1,-4,20
1523180327001763,40,4,-2,-14,-5,-1,8,-7
1523180327003268,-8,-5,-1,3,31,6,28,3
1523180327003268,-20,-2,-6,-5,-15,22,-3,-5
1523180327024323,11,2,5,-4,5,-18,0,13
1523180327024323,-16,-2,-7,-30,-73,-32,-24,-31
1523180327025828,12,10,13,16,8,8,9,-30
1523180327025828,7,-9,-20,9,-70,-37,-14,21
1523180327038361,-4,-7,7,13,41,0,-4,24
1523180327038361,-45,-11,-9,25,-6,-3,7,0
1523180327045380,37,7,0,-43,4,14,2,13
1523180327045380,-42,0,-13,-89,-89,-23,-13,-31
1523180327061421,-44,-14,-12,24,-33,-19,-17,-13
1523180327061421,27,3,8,29,108,82,45,-52
1523180327063428,1,-4,4,77,44,15,-5,52
1523180327063428,-1,0,1,-57,-14,25,2,-53
1523180327084217,38,2,-2,-6,-6,-14,-9,14
1523180327084217,-41,-3,5,32,-18,-14,-31,-33
1523180327085989,10,-4,-2,12,-22,-34,5,-48
1523180327085989,1,5,0,30,62,18,10,14
1523180327098522,32,1,0,-75,-27,52,19,62
1523180327098522,4,-7,8,8,32,-8,-10,-8
1523180327105539,-8,0,-8,-22,-93,-12,-19,-15
1523180327105539,-18,-2,-6,6,-88,-41,-27,19
1523180327121584,-12,8,21,95,104,52,31,-32
1523180327121584,27,5,7,-32,-15,-8,-14,28
1523180327123086,-24,-13,-11,-36,-74,-50,-7,1
1523180327123086,-42,-4,-3,10,-13,11,-3,-5
1523180327144142,11,-4,-15,-16,78,-11,6,35
1523180327144142,-13,4,-3,-29,-92,-6,7,-14
1523180327145646,46,3,0,21,17,-35,-17,-1
1523180327145646,-4,9,9,26,17,6,0,-42
1523180327158682,-21,-14,-5,-37,20,20,-8,3
1523180327158682,-4,-11,-1,-5,52,-10,-3,9
1523180327165198,37,11,-8,-4,33,24,14,19
1523180327165198,13,-2,2,32,72,2,13,27
1523180327181742,-40,5,6,23,-58,3,13,-102
1523180327181742,3,-7,3,-4,-28,-19,-24,62
1523180327183247,-1,1,-9,-34,-27,24,-14,23
1523180327183247,14,-5,1,-23,20,17,8,-20
1523180327204336,14,1,-7,-22,-16,-31,-15,9
1523180327204336,-59,-3,-8,27,-34,-85,-36,-108
1523180327205805,64,3,7,15,1,27,67,89
1523180327205805,0,11,3,-25,55,23,5,-38
1523180327218342,-8,-3,0,9,-16,1,-37,55
1523180327218342,1,-3,4,2,55,-3,-18,-80
1523180327225360,10,-16,-26,5,-6,-14,5,33
1523180327225360,-1,1,2,-1,-64,-3,-11,37
1523180327241903,6,2,-5,-22,-40,8,37,-20
1523180327241903,1,1,3,26,-19,10,-1,30
1523180327243406,-12,11,12,-9,97,56,6,-46
1523180327243406,-3,-6,3,3,-59,3,11,-30
1523180327263959,-28,4,-7,-14,-16,15,-5,63
1523180327263959,97,6,-17,-38,25,-10,8,40
1523180327265965,-80,1,18,25,-36,4,-19,-16
1523180327265965,-14,-10,10,35,-1,-27,6,-51
1523180327278498,-40,-12,-5,37,56,7,-28,-30
1523180327278498,60,0,-11,-85,-25,3,25,54
1523180327285532,-9,6,-12,-43,-53,-17,-1,-27
1523180327285532,-7,-4,-8,0,-39,-47,-19,-30
1523180327301561,23,7,13,25,37,-25,-7,-2
1523180327301561,-10,-15,-13,18,-62,27,22,31
1523180327303565,-1,1,1,-4,-16,1,14,10
1523180327303565,11,1,3,1,-36,-33,-8,-5
1523180327324216,25,4,5,13,-2,-1,-2,-61
1523180327324216,-39,-1,-9,-16,-45,5,-22,-2
1523180327325721,11,7,6,-8,67,10,-12,-16
1523180327325721,-35,-6,-4,14,35,2,23,6
1523180327337751,71,-1,-8,-14,-29,-37,0,38
1523180327337751,-1,8,12,21,14,27,9,9
1523180327346775,-13,-12,-18,-59,-76,-32,-19,-11
1523180327346775,19,7,9,29,87,33,12,-7
1523180327361819,-5,-5,-8,-39,-38,-6,2,8
1523180327361819,-11,-2,4,46,57,33,-3,18
1523180327363319,-1,1,-3,5,64,8,7,-18
1523180327363319,-18,-2,2,2,-2,5,-14,-4
1523180327384373,3,0,0,9,-32,-1,-13,32
1523180327384373,-17,2,0,25,12,11,44,58
1523180327385879,-7,0,8,-38,17,4,4,1
1523180327385879,-6,-9,-6,18,8,11,-22,10
1523180327397911,23,-1,-3,-2,-16,0,-6,-48
1523180327397911,-16,4,3,12,-77,-21,-19,-33
1523180327406934,-24,3,-5,31,26,-7,1,-46
1523180327406934,8,0,6,1,67,22,11,77
1523180327421474,38,-6,0,-29,10,31,28,35
1523180327421474,26,-6,-9,-7,6,-27,-36,-56
1523180327423478,-70,1,10,39,-54,-2,-1,-56
1523180327423478,32,4,-2,-47,-47,-4,29,54
1523180327444032,-15,1,2,23,63,27,10,26
1523180327444032,46,-1,-5,-13,-13,-15,-1,-25
1523180327445537,-75,-20,-10,-22,14,12,-34,13
1523180327445537,51,9,5,54,34,36,3,20
1523180327458072,-27,4,7,-23,-49,-37,14,-40
1523180327458072,-55,-6,-1,-23,10,23,4,-65
1523180327466592,48,-4,-5,56,-82,-64,-11,-5
1523180327466592,10,-6,-8,-25,-9,9,5,-3
1523180327481632,-4,4,4,-16,-21,2,-2,61
1523180327481632,17,4,3,13,56,25,-17,3
1523180327483687,2,6,0,-17,2,31,7,-6
1523180327483687,-36,1,2,29,-12,1,8,-24
1523180327504192,-9,0,5,9,-7,-34,-31,-55
1523180327504192,44,-6,-4,-19,-32,-18,-14,23
1523180327505696,-45,-6,7,43,21,-10,47,11
1523180327505696,38,4,-28,-76,-45,-12,6,27
1523180327517727,10,-1,8,46,-18,-1,-13,-12
1523180327517727,-36,-7,-3,2,-15,-21,-20,9
1523180327527253,36,-5,5,36,22,6,7,-23
1523180327527253,17,0,0,-37,17,3,5,36
1523180327541794,-52,-2,-11,-18,-57,-54,-20,-19
1523180327541794,14,3,-1,-20,-55,-26,7,-21
1523180327543298,-8,-2,-10,-5,24,39,-2,-20
1523180327543298,-15,-1,7,25,27,41,1,-25
1523180327564352,-3,3,-4,-14,-29,9,4,7
1523180327564352,-1,5,-3,-3,84,8,44,-9
1523180327565857,28,-6,14,54,45,-6,-30,12
1523180327565857,-17,3,5,-61,-17,-10,10,-41
1523180327577888,21,8,12,4,21,41,18,10
1523180327577888,8,-5,-7,-14,-10,-5,-9,60
1523180327586912,-35,-12,-17,-18,7,1,-4,-16
1523180327586912,15,-6,-5,33,21,-28,-27,-36
1523180327601954,-13,1,3,14,-58,-9,-9,-30
1523180327601954,-16,11,4,0,41,39,30,9
1523180327603457,45,0,5,-16,-64,-54,-16,40
1523180327603457,-28,-13,-8,25,-43,-7,-25,-29
1523180327624013,7,0,-8,-76,124,39,28,-22
1523180327624013,9,2,17,43,-53,3,4,57
1523180327626098,14,-5,-7,-24,-78,-36,-25,-55
1523180327626098,9,1,0,76,11,4,13,75
1523180327637586,20,1,-11,-38,-51,-40,0,-11
1523180327637586,14,6,11,-32,55,37,16,11
1523180327646571,-36,0,-13,-7,-5,-6,-27,-13
1523180327646571,5,3,7,8,3,-37,-17,-59
1523180327661623,-46,-16,1,58,-3,-6,-20,-33
1523180327661623,-11,-4,0,3,66,28,4,15
1523180327663117,36,15,2,-16,-37,1,2,13
1523180327663117,-28,5,-2,-19,-17,-6,-10,44
1523180327684214,0,-10,6,45,60,20,19,21
1523180327684214,14,-7,-10,-12,-70,-39,-12,-29
1523180327685676,-14,0,-6,-35,97,44,4,-33
1523180327685676,13,3,2,-6,-33,-10,-15,12
1523180327697708,-22,-2,-6,8,-9,7,27,43
1523180327697708,-33,-2,3,36,-28,-41,4,-70
1523180327706732,91,-9,-7,-24,-13,66,7,84
1523180327706732,-64,1,6,-17,28,2,10,-1
1523180327721772,-14,-1,-5,9,33,13,-38,-37
1523180327721772,-8,-2,0,7,-34,-6,-6,-33
1523180327723276,0,7,2,-2,50,3,-22,11
1523180327723276,7,-1,6,17,5,3,24,-16
1523180327744330,50,-3,-6,5,-39,-3,-10,-4
1523180327744330,-67,-4,-7,-35,-30,-9,-13,35
1523180327745837,20,4,11,14,-30,7,12,23
1523180327745837,-22,-7,-14,5,-22,2,2,-69
1523180327757906,-4,3,-1,-25,64,-17,-7,-7
1523180327757906,39,0,23,39,-79,54,20,73
1523180327766892,-54,1,-9,-33,-23,-12,18,3
1523180327766892,35,-1,1,22,119,20,-6,-18
1523180327782046,-19,-4,-7,4,-121,-46,-4,-8
1523180327782046,13,2,-9,-22,-15,-31,-25,-28
1523180327783647,-15,3,0,-1,19,0,23,-22
1523180327783647,54,2,7,7,-34,-17,-1,-13
1523180327804991,-37,-12,1,-15,2,-20,-45,20
1523180327804991,1,-1,-10,-10,57,18,-28,-2
1523180327806496,-8,4,13,62,5,0,61,-9
1523180327806496,12,2,-1,-42,35,10,-32,45
1523180327826784,22,1,-4,-10,25,49,33,31
1523180327826784,-31,4,1,0,-75,-6,-1,-12
1523180327828053,8,-6,-3,-7,-40,-45,-21,-18
1523180327828053,-19,-12,1,31,-6,-20,-32,-38
1523180327841589,23,1,-7,-26,-37,17,16,-16
1523180327841589,-43,4,0,-12,22,16,13,13
1523180327843093,-8,4,-2,-6,-31,-54,-8,-18
1523180327843093,4,-3,4,4,-89,-6,0,-10
1523180327864150,16,-5,-8,-17,28,17,20,57
1523180327864150,18,2,-6,16,38,-2,4,-28
1523180327866193,-6,-8,1,-24,20,-3,-11,-17
1523180327866193,-19,-8,-4,-5,-37,-20,-5,48
1523180327886708,-36,-4,-1,11,-1,5,-21,-113
1523180327886708,21,-2,-2,-19,60,6,22,52
1523180327888213,42,5,11,25,-47,10,1,123
1523180327888213,-19,0,-11,-13,91,5,12,-1
1523180327901752,2,-1,-9,-15,-63,-26,4,-35
1523180327901752,-21,-8,7,31,-24,-38,-23,-69
1523180327903253,0,-1,-15,-45,20,7,-3,-12
1523180327903253,-25,-1,-5,-9,39,3,-3,-26
1523180327924311,-21,5,6,18,47,-5,1,19
1523180327924311,11,-2,-6,22,-14,0,15,-25
1523180327925814,27,-7,-5,-74,47,-13,-22,0
1523180327925814,-8,5,-3,15,19,62,34,15
1523180327946869,22,-2,2,-7,-42,-20,-21,45
1523180327946869,13,-1,-7,-13,-81,-25,-20,-35
1523180327948374,-20,4,3,54,47,-36,22,-78
1523180327948374,15,-8,-2,-21,-2,-18,-13,69
1523180327960906,-15,-7,-12,-14,22,56,21,-20
1523180327960906,8,6,1,-39,-19,11,-8,21
1523180327967926,7,0,-12,-21,-34,-7,-13,-57
1523180327967926,-22,2,21,7,-70,-13,-19,-34
1523180327984471,46,2,9,50,79,4,27,29
1523180327984471,-6,-1,-9,-4,4,3,6,43
1523180327985973,-16,-1,9,51,11,14,-18,-14
1523180327985973,4,4,-9,-51,-52,-22,16,-8
1523180328006528,53,7,11,11,-25,12,1,6
1523180328006528,-82,-19,-3,-8,-1,26,7,-30
1523180328008032,18,6,-2,14,-15,-21,-8,18
1523180328008032,-4,-1,-1,22,33,-4,2,-72
1523180328021068,21,1,10,-31,-65,3,-11,69
1523180328021068,47,-6,-12,25,-11,-17,-10,25
1523180328028123,-63,-4,6,10,-1,31,19,31
1523180328028123,-4,-10,-15,-9,-44,-27,-3,-23
1523180328044128,-16,15,-4,-33,47,4,-11,-53
1523180328044128,18,2,6,-2,73,-7,-1,-45
1523180328045632,16,-4,-15,-24,52,-10,-19,110
1523180328045632,18,8,16,13,-72,35,26,-14
1523180328066923,-13,0,15,40,78,-9,-12,-22
1523180328066923,-26,-11,-10,6,-63,-5,-10,9
1523180328068193,-28,-6,-12,-44,-34,3,2,-79
1523180328068193,4,1,-9,-9,54,-10,-26,0
1523180328081963,17,1,10,37,-64,-44,24,43
1523180328081963,55,8,18,26,63,50,19,12
1523180328087744,-24,-4,-1,-27,-44,17,7,50
1523180328087744,-33,-6,-7,-6,-5,-12,-11,-1
1523180328104287,13,0,-8,-7,-20,-36,-23,-55
1523180328104287,-37,-2,-13,-15,-17,-12,-2,-25
1523180328105792,58,4,9,13,42,-24,17,30
1523180328105792,16,-6,5,9,-56,62,9,-5
1523180328126846,-51,-5,4,46,-14,-11,-2,-22
1523180328126846,-11,4,2,-48,-28,-13,-11,-35
1523180328128353,48,8,1,-16,-40,5,-45,21
1523180328128353,-33,-3,-9,4,41,-8,29,46
1523180328140885,-17,-5,-8,-14,-35,1,7,-23
1523180328140885,27,-4,7,28,-25,-4,4,0
1523180328147904,-25,-5,1,8,-2,0,-9,24
1523180328147904,18,1,-9,-3,12,-7,-6,-25
1523180328162945,11,1,-7,-21,-23,9,-34,-7
1523180328162945,-46,4,11,31,68,-2,53,25
1523180328171968,32,8,7,9,-76,8,15,-26
1523180328171968,28,3,0,17,60,16,-20,34
1523180328186505,-53,-18,-9,33,53,25,-8,-11
1523180328186505,20,-2,-10,-19,1,-49,-35,-35
1523180328188014,11,4,-1,10,39,6,46,15
1523180328188014,-8,5,6,-27,-23,-5,15,-9
1523180328201046,22,4,-3,-16,-34,-12,-22,106
1523180328201046,-11,-8,-4,16,59,-4,-17,-8
1523180328207583,-43,-5,-8,-11,-54,-5,-10,-53
1523180328207583,6,7,12,12,82,-8,0,-31
1523180328224108,-5,-3,1,0,33,20,12,-33
1523180328224108,27,-2,-7,-5,5,8,0,80
1523180328226132,-13,-7,2,27,4,-16,-14,-45
1523180328226132,-1,-9,-5,11,-45,17,7,8
1523180328246667,4,2,-1,-42,13,-1,-11,45
1523180328246667,-8,5,7,8,-23,21,8,-4
1523180328248172,-5,-7,-8,-9,20,-2,-16,-20
1523180328248172,-6,-5,0,-2,-56,-12,-18,-39
1523180328261208,-6,-1,-8,-11,-2,-22,10,-19
1523180328261208,2,0,-2,14,-3,-2,5,-6
1523180328267722,9,0,1,-6,41,17,2,-4
1523180328267722,37,2,-2,-11,-29,-8,-5,49
1523180328284266,-18,3,9,56,32,38,8,-26
1523180328284266,-19,-1,2,-8,56,16,0,-16
1523180328285771,10,-4,1,26,-12,-5,-4,-87
1523180328285771,18,1,-4,-4,-15,0,6,94
1523180328306826,-39,-8,-8,-37,-44,9,-7,-5
1523180328306826,30,-4,-4,-5,8,11,-16,-8
1523180328308332,-1,11,5,11,19,6,2,38
1523180328308332,-4,0,-8,-12,-56,-21,11,-38
1523180328320361,5,-2,12,5,21,30,6,2
1523180328320361,1,-10,-17,-30,-79,-31,-20,-23
1523180328329386,-15,0,-9,12,79,81,14,-9
1523180328329386,-4,1,3,-56,3,15,-4,46
1523180328344425,-16,-4,-5,16,-41,-38,19,-31
1523180328344425,14,10,12,20,-38,-2,8,15
1523180328345932,7,-1,1,-13,25,-12,-30,-43
1523180328345932,-64,-10,-2,16,-46,-38,-23,-8
1523180328367024,28,3,9,27,107,41,51,28
1523180328367024,11,1,-17,-39,-15,-7,-8,-16
1523180328368490,-12,2,4,-10,15,7,2,6
1523180328368490,22,-1,9,15,8,-22,-9,-128
1523180328380521,-16,-7,-9,-6,-15,-22,-28,21
1523180328380521,18,2,-1,31,6,-5,14,62
1523180328389326,-3,-7,0,-51,-82,-45,-9,2
1523180328389326,-9,-8,-11,-12,40,24,23,-5
1523180328404365,12,6,8,18,-26,-50,-20,-29
1523180328404365,1,2,-3,3,9,-19,7,-35
1523180328405869,-9,-4,4,47,-22,12,0,52
1523180328405869,-5,0,-5,-16,70,2,1,0
1523180328427029,68,1,-18,-72,-16,-8,-13,15
1523180328427029,-56,1,-4,-20,-92,13,-10,35
1523180328428678,-4,-6,20,33,65,-10,35,5
1523180328428678,-9,-14,1,73,-4,18,0,-7
1523180328449540,-13,-1,-6,-39,59,6,-14,-64
1523180328449540,0,3,-11,-35,-44,-44,31,1
1523180328451047,36,7,1,22,20,73,3,-1
1523180328451047,-3,1,1,9,-4,-8,-7,28
1523180328464080,-20,-3,-6,18,-22,-14,-10,-71
1523180328464080,10,-9,6,-29,-12,-11,-1,-4
1523180328466085,22,-10,-10,-3,1,-23,-7,44
1523180328466085,-16,6,1,-1,-7,-18,11,-1
1523180328486639,-60,-1,-19,-81,-112,-23,-30,-34
1523180328486639,27,7,15,21,110,13,12,-30
1523180328488145,-17,-11,-9,-25,16,-29,-4,-31
1523180328488145,43,-1,-13,40,-74,-12,-17,63
1523180328500177,-2,1,11,37,95,-15,13,3
1523180328500177,-3,-3,12,5,-75,-16,15,-23
1523180328509202,-20,1,-4,-19,25,-2,4,-40
1523180328509202,-13,0,-6,-34,-27,-1,-24,-17
1523180328524241,-12,-2,4,4,-37,-10,-3,27
1523180328524241,35,-11,-8,16,11,9,-22,7
1523180328525745,-17,5,4,35,-1,-12,0,-12
1523180328525745,1,4,5,-13,22,16,6,-14
1523180328546585,10,-3,-2,26,3,2,-6,62
1523180328546585,-34,-4,-5,-22,74,15,-10,-56
1523180328548089,11,0,1,-2,-49,6,-21,18
1523180328548089,13,1,-7,-27,33,-9,3,5
1523180328568665,16,1,2,-5,-40,45,0,-18
1523180328568665,-14,1,-1,18,25,44,22,21
1523180328569145,17,7,1,-10,56,-10,-6,-3
1523180328569145,-3,2,12,26,48,19,8,10
1523180328583182,35,-1,0,10,-27,-8,2,58
1523180328583182,-26,1,-2,2,19,5,-21,-31
1523180328584188,-4,-11,-12,-37,-100,-19,6,-12
1523180328584188,11,-3,1,4,-2,-1,-8,-48
1523180328606245,-16,1,-5,-1,26,0,21,-32
1523180328606245,-8,5,3,-1,4,18,-8,43
1523180328606744,-5,2,4,50,-1,-22,-11,-18
1523180328606744,78,1,-4,-69,-1,5,28,60
1523180328628845,-53,-5,-2,18,-41,2,-5,1
1523180328628845,-7,0,7,46,79,-8,-14,-9
1523180328629304,-17,0,-1,-2,-30,21,-22,-31
1523180328629304,-4,3,6,52,22,-7,8,22
1523180328644847,25,-1,-6,-23,-28,-3,3,12
1523180328644847,9,-7,1,-10,-32,-36,-17,-22
1523180328645849,-11,-4,-10,-44,-22,-42,23,22
1523180328645849,-8,0,-10,38,64,58,-18,-25
1523180328666137,19,4,7,-33,38,15,17,-2
1523180328666137,8,-7,-4,25,9,-12,-10,13
1523180328666905,-34,-11,-6,-9,-37,-19,11,-8
1523180328666905,-34,-6,1,-24,-83,18,-16,-37
1523180328688461,61,5,4,56,37,-6,13,7
1523180328688461,-38,9,0,-39,-8,38,12,35
1523180328689465,-7,-2,-1,-55,-28,-2,-13,46
1523180328689465,-6,-8,-6,17,39,12,28,3
1523180328703501,-12,-3,0,17,11,1,-6,-25
1523180328703501,45,4,-9,-5,-41,-11,-15,-17
1523180328704504,-12,2,2,6,2,5,14,-9
1523180328704504,-3,1,5,-10,-54,-23,-14,22
1523180328726297,-27,-12,-5,-11,33,0,6,-32
1523180328726297,11,2,-8,-9,-8,8,-7,-9
1523180328726564,-8,1,2,41,49,-4,-18,-14
1523180328726564,-32,-1,9,15,-11,3,14,-43
1523180328748621,-31,-1,-3,-53,-4,-20,-6,64
1523180328748621,1,-8,-8,-10,-19,-14,2,13
1523180328749695,27,-3,-7,9,35,61,7,-2
1523180328749695,30,8,3,9,20,-23,-7,-38
1523180328763661,-22,-5,0,2,22,44,7,42
1523180328763661,-41,-7,8,41,-36,-20,-18,-75
1523180328764164,22,5,-4,-29,59,26,3,21
1523180328764164,5,-3,5,-11,-19,-16,-19,14
1523180328786221,4,3,-5,10,-58,10,13,-13
1523180328786221,10,-2,0,-6,13,-3,-4,44
1523180328786725,29,2,2,25,-18,-9,-6,-49
1523180328786725,-38,-1,-4,-18,-10,-12,-8,47
1523180328808282,40,-1,-4,-13,-13,-16,-21,-23
1523180328808282,-9,8,4,-5,18,8,7,-29
1523180328809285,-47,-10,3,28,-53,-30,2,49
1523180328809285,65,2,-3,-36,31,-5,-4,-5
1523180328823321,-75,-4,-14,-44,-23,-25,-10,-22
1523180328823321,41,2,10,11,-11,18,20,5
1523180328824323,14,3,0,9,45,5,2,-20
1523180328824323,-9,0,-1,14,32,3,-12,22
1523180328845880,23,2,16,16,-25,11,9,-33
1523180328845880,-23,0,-8,-5,46,4,-16,20
1523180328846884,-13,-11,-11,-17,-6,-55,0,-30
1523180328846884,-5,4,-6,-2,-66,30,9,19
1523180328868445,26,-1,-8,-32,62,7,-2,15
1523180328868445,-2,-6,-5,-54,2,-4,-19,28
1523180328869444,20,4,-8,20,-87,8,13,10
1523180328869444,-10,-4,9,26,71,-25,17,-27
1523180328883265,0,-3,15,38,-34,-79,-20,-29
1523180328883265,-58,-13,-7,11,-17,40,8,-28
1523180328884272,13,6,-3,6,-53,-8,-19,14
1523180328884272,1,3,-12,-61,-30,-13,-24,3
1523180328905825,3,3,8,37,50,-11,54,18
1523180328905825,20,-2,-1,3,74,6,1,66
1523180328906830,-8,4,4,10,24,0,-21,3
1523180328906830,-18,-3,1,24,-25,26,3,-53
1523180328928886,-3,3,6,2,75,13,-17,-43
1523180328928886,3,-1,-15,-22,-47,-53,4,-22
1523180328929388,14,0,12,24,6,31,21,67
1523180328929388,6,1,11,18,73,-4,-8,41
1523180328943425,20,-6,-11,-30,-60,5,13,-5
1523180328943425,-34,10,-5,-55,11,48,-6,6
1523180328944428,-23,-1,4,18,-18,3,-7,-42
1523180328944428,-8,-6,-6,-28,-99,-61,-9,-68
1523180328966224,26,1,13,100,71,61,-2,90
1523180328966224,-1,-1,1,-23,-94,-8,2,-6
1523180328966989,11,3,-7,-57,-22,-10,-6,-6
1523180328966989,-47,-11,-4,10,-17,-21,2,20
1523180328988545,-4,-8,-14,-17,74,-11,-15,-17
1523180328988545,14,-2,4,20,-4,-12,-12,-29
1523180328989547,-1,7,11,21,10,13,14,1
