timestamp,emg1,emg2,emg3,emg4,emg5,emg6,emg7,emg8
1523208735173275,1,6,-3,34,6,5,-2,-1
1523208735173275,2,3,8,-3,-3,-4,0,0
1523208735175282,-2,2,13,-14,-5,-5,-5,-5
1523208735175282,-1,-8,-22,-13,-7,-8,-1,-1
1523208735187309,-6,8,-12,-1,-1,0,4,0
1523208735187309,-1,3,9,-13,-6,-4,-2,0
1523208735196334,0,2,20,20,4,0,-1,-1
1523208735196334,-1,3,-25,-13,-3,-1,1,1
1523208735211403,0,-3,39,16,2,1,-1,0
1523208735211403,2,-1,-34,-10,-5,-3,-1,0
1523208735212375,-5,-4,11,-6,-7,-12,-10,-4
1523208735212375,12,22,66,28,21,13,11,8
1523208735233433,-26,-54,-92,-77,-30,-22,-15,-14
1523208735233433,2,5,-5,18,8,18,12,4
1523208735235437,3,2,14,25,6,-6,-2,0
1523208735235437,2,7,3,-48,-26,-9,-1,-3
1523208735247469,8,14,4,26,38,28,11,6
1523208735247469,-4,-11,-8,11,14,24,3,2
1523208735254487,-1,1,10,-8,0,0,-2,1
1523208735254487,-6,-9,-32,-7,-8,-11,-4,-6
1523208735271532,3,4,21,14,-20,-17,-5,-3
1523208735271532,-6,-9,-63,-56,-23,-19,-10,-7
1523208735272535,5,5,44,45,28,17,8,4
1523208735272535,0,0,-11,9,10,3,-3,0
1523208735293602,-1,-10,3,-2,-3,-4,-3,1
1523208735293602,-2,6,36,14,1,-13,-5,-4
1523208735295597,2,4,-17,-8,-10,-1,0,0
1523208735295597,-2,-4,8,-22,-7,4,1,0
1523208735307632,-2,-2,-5,23,0,-7,0,0
1523208735307632,2,2,20,16,10,-1,0,1
1523208735316652,1,3,43,-6,7,6,2,0
1523208735316652,-5,-5,3,-14,-5,-4,-5,-3
1523208735330691,4,11,43,-1,-1,3,0,0
1523208735330691,-4,-14,4,10,-7,-7,-4,-2
1523208735332695,-2,-1,-22,-13,-8,-3,-1,1
1523208735332695,-2,-1,-5,0,-6,-11,-4,-1
1523208735353751,-1,-6,-17,-8,-18,-12,-4,-2
1523208735353751,14,29,59,20,4,8,8,6
1523208735354756,-15,-34,-77,-63,16,15,0,-6
1523208735354756,-5,-10,24,39,7,4,0,-2
1523208735367792,0,1,-14,4,5,-2,-4,-3
1523208735367792,-2,0,24,-3,-13,-6,-5,-3
1523208735376819,6,12,21,5,-18,-13,-1,3
1523208735376819,-2,-1,-21,-13,-3,-5,1,-4
1523208735390857,-1,-4,-4,-2,5,7,6,1
1523208735390857,0,2,-4,1,-1,-2,-4,0
1523208735392860,-1,2,-1,2,-7,5,-2,-5
1523208735392860,-2,-1,2,-8,-3,-18,-7,-3
1523208735414146,4,6,-26,-1,-10,2,1,1
1523208735414146,-6,-7,-27,21,24,9,2,-2
1523208735414913,-3,-1,-57,-20,-9,1,-4,-3
1523208735414913,1,2,29,5,-1,1,-2,-2
1523208735426945,2,-1,9,-3,4,5,2,1
1523208735426945,4,8,27,-23,-3,0,1,2
1523208735435968,-1,-8,9,55,3,-1,-2,0
1523208735435968,-6,-8,-61,-52,-9,-4,-3,-2
1523208735451243,-5,0,-5,-3,-3,-6,-5,-3
1523208735451243,-5,-9,-2,5,-2,-5,-4,-5
1523208735453014,5,8,40,5,0,0,3,2
1523208735453014,4,3,-9,-1,7,4,2,1
1523208735473303,1,-1,-11,3,0,0,-2,-2
1523208735473303,-4,-11,-37,-25,-7,-1,-7,-5
1523208735475083,-4,0,-9,-6,-7,-7,3,-3
1523208735475083,3,3,-43,3,-3,-3,3,2
1523208735487105,-2,2,51,1,5,2,1,-2
1523208735487105,1,4,3,5,-2,2,-3,0
1523208735496134,0,-6,2,14,5,1,-2,0
1523208735496134,0,8,43,27,6,6,0,0
1523208735511265,-1,-5,18,-25,-2,-1,-8,-2
1523208735511265,-2,-1,3,0,-8,-7,2,0
1523208735513174,-2,3,-27,-1,-6,-5,-5,0
1523208735513174,-2,-2,-38,6,9,4,-1,0
1523208735533228,1,-4,41,6,3,1,-2,-4
1523208735533228,-2,0,47,3,-2,-3,2,-1
1523208735535233,-3,-3,-4,-13,-6,-8,3,0
1523208735535233,-3,-4,-32,-3,-8,-6,-3,-4
1523208735547308,-2,-3,-44,-8,-1,4,-12,0
1523208735547308,0,1,2,-3,9,6,7,0
1523208735556288,1,2,26,1,6,2,10,1
1523208735556288,-1,-4,30,-4,-4,-3,-10,-1
1523208735571329,-2,1,-15,5,-7,-3,2,1
1523208735571329,-3,-9,-56,-13,-11,-8,-2,-2
1523208735572331,1,5,8,3,4,3,-3,-2
1523208735572331,-2,-1,27,-5,-1,1,2,-2
1523208735593389,-1,8,-14,15,3,1,5,1
1523208735593389,-1,-3,-5,-2,-3,-2,-18,-3
1523208735595393,-6,-16,-9,-7,-8,-11,11,-6
1523208735595393,3,1,25,-2,-1,-1,-1,2
1523208735607425,0,-3,-38,-1,1,-4,11,-6
1523208735607425,1,5,19,5,-7,-2,-11,-1
1523208735616449,0,4,-7,-7,6,12,-4,2
1523208735616449,2,-3,22,42,20,11,5,2
1523208735631490,0,5,-23,-62,-3,1,-10,-1
1523208735631490,-3,-3,39,5,-5,-7,1,-4
1523208735632491,-2,-2,46,-8,-16,-11,-9,-3
1523208735632491,-2,-1,-13,2,-9,-1,4,1
1523208735653551,5,13,47,31,14,7,-1,4
1523208735653551,-2,-11,-79,-3,2,3,6,-1
1523208735655552,-4,-11,45,-16,-3,-3,-4,-1
1523208735655552,-2,4,31,-6,-4,-3,-8,-4
1523208735667820,-2,-6,-21,5,-5,-6,-4,-3
1523208735667820,0,-1,29,8,1,4,0,3
1523208735676609,-2,3,-53,-24,-4,-1,7,-2
1523208735676609,-1,-5,-43,-13,-7,-4,-8,-1
1523208735690653,-4,-9,-14,-3,6,3,3,-3
1523208735690653,2,5,13,3,6,3,7,4
1523208735692651,3,5,15,40,4,1,-10,1
1523208735692651,-1,1,16,-21,-6,-6,0,-2
1523208735713708,-2,-8,-38,-17,-12,-6,-9,0
1523208735713708,0,2,-1,1,3,2,-5,-2
1523208735714750,2,7,4,3,8,8,15,5
1523208735714750,-9,-20,-91,-7,-7,-6,-5,-5
1523208735726744,2,0,21,13,-2,-2,-8,4
1523208735726744,-2,-2,-8,-9,0,1,8,0
1523208735736769,3,5,10,3,0,-3,-6,-1
1523208735736769,2,9,20,0,2,0,-6,-3
1523208735751041,-1,0,-1,16,3,8,14,2
1523208735751041,-4,-5,-5,-4,-4,-7,2,-3
1523208735752811,3,9,7,11,0,-2,-17,-1
1523208735752811,-1,-4,13,-13,-2,0,17,3
1523208735773869,-4,-11,-38,-4,-7,-12,-31,-2
1523208735773869,-1,-6,20,12,0,8,51,-6
1523208735774878,-2,-7,-40,-16,-3,-3,-14,2
1523208735774878,3,1,13,10,3,1,-1,-1
1523208735787930,0,4,12,0,2,4,14,3
1523208735787930,-1,-3,4,-1,-3,-6,-33,-1
1523208735795926,-1,11,1,-5,-1,-2,-6,-1
1523208735795926,3,8,3,2,-2,3,14,-6
1523208735810966,2,-8,31,27,1,-6,-20,7
1523208735810966,3,-4,-51,-29,-3,2,18,7
1523208735812972,-1,10,14,-5,4,3,1,-6
1523208735812972,16,14,0,1,-1,-2,-20,21
1523208735834027,12,13,18,11,0,0,31,-21
1523208735834027,-55,-30,22,-3,-11,-4,-25,-20
1523208735835030,-1,-7,12,16,7,7,30,0
1523208735835030,-4,-14,5,-6,8,6,-31,-16
1523208735847061,7,0,3,-4,-3,-10,28,6
1523208735847061,19,11,-7,-5,-7,-1,-15,25
1523208735856126,-4,2,1,-7,-3,-2,11,-10
1523208735856126,5,4,5,6,0,-1,-24,-11
1523208735871126,-11,-5,-10,-8,-3,2,16,10
1523208735871126,11,8,-1,0,-3,-3,-19,-8
1523208735873132,-11,-12,2,-9,-8,-2,-13,10
1523208735873132,50,6,3,14,8,4,31,49
1523208735893191,-15,34,-18,-13,-10,-1,-19,-25
1523208735893191,-29,-39,-8,-2,-1,-8,-5,-1
1523208735895189,4,-44,-1,3,6,0,-5,-13
1523208735895189,1,-9,-6,-4,-5,1,37,13
1523208735907228,12,-9,-4,-5,-1,3,-26,38
1523208735907228,-7,77,18,10,2,-3,-12,-52
1523208735916245,-7,-11,-30,-13,-8,-4,-29,1
1523208735916245,-16,-42,11,2,-4,-5,50,-4
1523208735931285,12,-18,0,-7,-3,9,12,0
1523208735931285,-24,-23,8,6,4,-6,1,2
1523208735932289,-9,26,10,-1,1,-4,-62,-5
1523208735932289,-9,21,4,-2,-1,6,76,-3
1523208735955584,8,-35,5,2,1,-2,-6,-11
1523208735955584,27,-3,-9,-8,-1,1,11,19
1523208735956354,3,13,2,0,-2,-4,-1,-11
1523208735956354,-22,-5,-6,2,-3,-4,-46,-11
1523208735967381,0,24,9,-1,0,-3,6,16
1523208735967381,-5,-37,-9,-2,1,2,2,-43
1523208735976405,1,4,-2,5,-4,-1,7,9
1523208735976405,6,-6,-1,-3,4,0,-19,8
1523208735990445,-28,67,-7,-7,-2,-5,-7,-29
1523208735990445,-5,-44,-5,0,3,4,-20,3
1523208735997463,2,-31,-6,1,-4,-10,29,-1
1523208735997463,13,6,-2,-8,-8,-2,-4,16
1523208736013505,-4,14,-4,1,-1,-3,-25,-6
1523208736013505,18,16,-3,1,-1,6,-11,13
1523208736015511,-15,1,4,-5,1,1,34,-8
1523208736015511,2,-3,-5,4,9,2,-25,-14
1523208736027540,-8,1,-1,-2,-1,-2,3,2
1523208736027540,2,-5,-6,-2,-6,-7,-11,2
1523208736036569,2,-13,3,0,-3,1,7,5
1523208736036569,-15,5,-4,-3,-4,-4,-48,-14
1523208736050838,6,-10,5,4,3,7,37,13
1523208736050838,9,12,-15,-9,1,0,17,11
1523208736057624,3,6,2,4,1,0,-2,-11
1523208736057624,-14,6,10,0,-3,-6,-26,-3
1523208736073665,37,-8,-3,-1,0,1,-12,13
1523208736073665,-40,-16,6,0,0,-2,28,-22
1523208736074671,-5,42,-2,0,1,2,12,7
1523208736074671,-18,-37,-5,-1,-3,-3,-34,-24
1523208736087886,36,-13,-5,-2,0,-1,-18,16
1523208736087886,-45,-1,1,1,1,0,44,10
1523208736096726,9,9,-3,4,1,0,-12,-4
1523208736096726,0,22,0,-2,-4,2,2,5
1523208736110781,-14,-2,-3,-5,0,4,-3,5
1523208736110781,33,-11,1,2,2,-9,-30,-4
1523208736116779,-3,1,13,9,-4,-1,27,-5
1523208736116779,-3,8,-24,-10,-3,-2,15,-2
1523208736133823,1,-19,-8,1,0,0,-53,-13
1523208736133823,14,36,9,4,3,7,12,2
1523208736134827,3,78,-1,-2,-3,-12,-1,0
1523208736134827,-11,-80,7,3,-3,-3,8,-19
1523208736155884,2,0,-11,-5,0,-3,2,34
1523208736155884,-19,-24,-23,-11,-5,-1,-51,-71
1523208736157892,7,-8,2,4,5,3,21,14
1523208736157892,3,32,-2,-8,-6,-1,24,6
1523208736170921,-17,-11,6,6,4,1,18,-15
1523208736170921,10,0,8,5,-2,2,3,32
1523208736172928,0,-34,-2,-5,-5,-1,-15,2
1523208736172928,-1,20,-7,-6,-3,-5,-25,-4
1523208736193987,-9,-29,5,7,-1,0,29,-8
1523208736193987,26,17,10,1,1,0,9,23
1523208736194986,10,10,10,9,0,3,-31,-5
1523208736194986,-13,-5,-20,-21,-2,-1,28,10
1523208736216043,-17,6,-13,-19,-5,-7,2,-18
1523208736216043,6,-9,-3,3,0,-3,-9,37
1523208736218050,-11,-63,11,5,2,4,14,-39
1523208736218050,9,7,-1,7,-1,-5,-1,1
1523208736232088,-2,-27,-8,-5,0,1,1,-8
1523208736232088,-7,20,4,1,-2,-3,-9,-35
1523208736237098,24,5,-8,-6,-2,-3,-33,19
1523208736237098,-6,-5,8,7,3,2,45,-5
1523208736253141,-16,-19,0,-9,-6,-6,2,-1
1523208736253141,17,11,6,1,0,-1,5,26
1523208736261163,7,3,-6,-5,-2,2,-31,18
1523208736261163,6,28,-4,5,3,-2,1,-12
1523208736276204,-16,-11,13,4,-4,-4,-7,-8
1523208736276204,14,-9,3,3,-1,-3,6,21
1523208736277205,-5,-3,0,-8,-2,-1,-10,-8
1523208736277205,10,3,15,-7,-7,-2,2,26
1523208736290245,-4,15,9,20,13,8,-6,-8
1523208736290245,-5,23,-31,-17,1,-4,5,-34
1523208736297258,-9,-17,-9,-1,-2,-4,14,-17
1523208736297258,0,-23,-4,2,-5,-4,-29,13
1523208736313301,0,24,6,5,-5,-7,-15,11
1523208736313301,8,-2,26,6,-2,-1,2,12
1523208736315307,1,22,-27,-21,-4,-5,3,7
1523208736315307,7,-18,9,2,2,2,0,3
1523208736336364,7,6,-11,1,-1,-4,4,-22
1523208736336364,-3,-4,16,-5,-4,7,-5,17
1523208736337366,-4,10,-9,-8,0,4,3,-1
1523208736337366,-7,-1,2,7,15,1,-8,-14
1523208736350402,-4,-16,-7,-1,-2,-1,-2,-5
1523208736350402,3,5,13,11,-1,-3,-13,-3
1523208736357419,0,-12,-7,-8,-8,-4,30,17
1523208736357419,0,18,20,11,-2,2,4,-13
1523208736373466,-1,-9,-23,-14,1,-1,-12,-4
1523208736373466,-7,-13,-8,-8,-7,-5,27,23
1523208736375466,-1,5,13,1,-2,-3,-8,-3
1523208736375466,-11,-7,15,11,4,2,-15,-15
1523208736396525,2,4,0,-1,-2,1,5,0
1523208736396525,9,19,-7,4,-1,-2,-24,2
1523208736397527,-12,15,3,-5,0,-3,44,-4
1523208736397527,-6,-5,-13,-8,-6,-5,-4,1
1523208736410559,-2,-43,-20,-8,-5,0,-4,-1
1523208736410559,13,7,8,4,4,4,14,13
1523208736417578,-17,-22,-13,-8,-1,-5,-40,-21
1523208736417578,8,22,-2,-2,-3,0,-5,-2
1523208736433621,2,1,-3,-3,-3,-1,19,1
1523208736433621,-1,8,-8,-5,-5,-2,-18,0
1523208736435626,-12,-18,-15,-2,-2,1,1,-1
1523208736435626,-20,-11,-12,-4,-4,0,-2,-29
1523208736456687,12,8,18,12,0,-2,-18,-3
1523208736456687,-1,18,-5,7,4,2,2,17
1523208736457688,7,-27,-28,0,1,-1,-3,8
1523208736457688,13,24,-6,-5,-4,0,12,-3
1523208736469717,-12,-42,1,-6,-4,-5,29,9
1523208736469717,5,13,-5,-9,-1,-4,0,-5
1523208736478740,-1,6,20,13,2,4,6,3
1523208736478740,8,4,28,22,3,0,-11,4
1523208736493782,22,40,-17,-11,2,3,16,36
1523208736493782,-39,-49,14,2,-4,-5,-6,-24
1523208736494786,48,43,30,21,5,4,12,0
1523208736494786,-53,-14,-42,-47,-10,-8,-23,-3
1523208736515840,-11,-31,24,20,1,-2,-11,12
1523208736515840,17,14,7,-1,1,1,-1,1
1523208736517846,11,-19,-58,-26,-4,-3,-27,2
1523208736517846,10,10,2,8,-1,2,10,14
1523208736530880,-3,28,21,8,8,3,-17,-20
1523208736530880,0,-31,21,5,0,-1,2,2
1523208736537930,-14,14,0,5,-4,-4,-19,-5
1523208736537930,12,-1,31,10,-3,-4,23,-2
1523208736554173,-14,7,-93,-54,-23,-5,-11,-14
1523208736554173,8,3,24,26,13,6,7,6
1523208736554942,-40,5,30,6,13,3,-9,-47
1523208736554942,17,-25,-4,2,-4,-1,-15,26
1523208736576001,7,5,13,-2,2,1,14,12
1523208736576001,-16,9,-5,-9,-11,-4,2,-30
1523208736578005,2,-22,0,2,-2,-3,-15,12
1523208736578005,11,8,28,27,10,9,14,-2
1523208736590035,0,-1,-15,3,-2,-2,-13,-1
1523208736590035,-28,22,-67,-44,-6,-6,-12,-17
1523208736597056,27,-14,49,9,-7,-8,10,59
1523208736597056,51,45,14,7,0,-2,-16,4
1523208736613099,-55,-73,-3,-9,-5,-5,3,-18
1523208736613099,24,-10,19,27,4,-1,-13,-24
1523208736615103,-7,2,-4,-1,-1,5,12,7
1523208736615103,2,17,-1,4,14,3,4,3
1523208736636400,24,16,20,6,-7,-8,0,3
1523208736636400,0,-19,-13,-19,-27,-4,-13,-5
1523208736638164,5,14,9,12,20,11,24,5
1523208736638164,-23,-40,11,-5,18,9,4,-6
1523208736650356,17,39,-28,7,5,3,-15,-10
1523208736650356,-10,-39,-30,-47,-10,-5,80,35
1523208736659220,-22,5,20,3,-22,-13,-22,-17
1523208736659220,-9,41,-6,-3,-9,-4,-15,-17
1523208736674265,-9,-54,25,18,9,0,-12,-7
1523208736674265,17,14,6,16,-1,1,11,3
1523208736675265,11,12,-18,-9,-4,2,11,-7
1523208736675265,-29,-31,-31,-22,-7,-7,4,5
1523208736696318,6,25,14,0,-1,2,-4,-4
1523208736696318,1,1,1,9,6,3,-16,10
1523208736697321,-12,-24,-34,-9,2,-2,-7,-34
1523208736697321,-2,6,-4,5,-7,-4,-13,-11
1523208736709356,2,13,5,-6,-7,0,20,13
1523208736709356,-6,21,2,9,10,2,-8,-8
1523208736718378,6,-14,5,0,2,-2,13,17
1523208736718378,-15,-1,6,3,-10,-4,-7,-21
1523208736733418,6,5,13,9,-1,-1,-7,-19
1523208736733418,16,-26,-47,-35,-4,-1,17,38
1523208736735423,-3,18,5,-8,-5,-5,-11,-10
1523208736735423,-4,-16,-18,-8,-9,-2,-5,2
1523208736756478,11,18,30,2,-5,1,-16,-3
1523208736756478,12,14,1,18,22,8,13,6
1523208736757490,-7,-15,-11,-7,-6,-2,-16,19
1523208736757490,9,-13,-6,-10,-4,0,9,-2
1523208736769514,-10,7,3,3,-3,-1,-4,-3
1523208736769514,-1,-13,-7,3,-7,1,1,-1
1523208736778536,0,-7,-15,-9,2,0,-7,2
1523208736778536,0,-16,0,0,0,-3,-1,-13
1523208736793578,-14,2,-6,-2,0,-3,13,18
1523208736793578,-11,-1,11,5,-4,-6,-16,-13
1523208736795583,-5,2,33,10,-1,0,-3,-2
1523208736795583,-16,-4,-18,-14,3,9,2,-9
1523208736816639,11,-12,7,11,20,4,-12,-7
1523208736816639,35,-13,5,8,0,-3,-12,5
1523208736817642,-67,11,6,13,-4,-5,-15,-44
1523208736817642,19,7,-1,-11,-8,-1,11,33
1523208736829674,-3,12,-11,-13,-4,-3,7,13
1523208736829674,4,10,24,13,2,-1,-1,-35
1523208736838695,25,-10,-28,-5,-5,-3,3,22
1523208736838695,-2,43,0,15,-5,-5,-10,-4
1523208736853739,-2,-16,-26,-25,2,6,19,-4
1523208736853739,-22,-9,26,-4,6,3,-14,-20
1523208736854741,19,9,17,10,10,3,9,6
1523208736854741,-6,-21,-13,-6,-4,-7,-15,-1
1523208736875796,-10,-4,22,22,-5,-2,1,-13
1523208736875796,-1,20,-13,-5,-8,-2,11,8
1523208736877801,5,-24,-15,-9,-2,3,12,20
1523208736877801,5,-1,27,9,-1,-3,-19,-7
1523208736889852,2,-16,-31,-15,-5,-3,-4,16
1523208736889852,-20,5,-5,-15,0,-1,-11,2
1523208736898858,9,22,7,3,0,-3,-12,9
1523208736898858,0,-7,-6,-5,-1,0,15,12
1523208736913934,-2,-4,-7,-3,-2,1,-10,-20
1523208736913934,-1,-8,2,6,1,-2,3,5
1523208736914901,-2,1,-32,-15,-6,-4,4,-12
1523208736914901,9,-10,-2,-4,1,1,-5,5
1523208736935956,8,22,13,1,-1,-1,-5,15
1523208736935956,-1,22,17,23,0,-1,-17,-11
1523208736937962,-8,-13,6,-11,-4,-2,10,4
1523208736937962,-7,-32,-38,-19,-3,-4,-3,-6
1523208736950227,2,9,-7,3,0,-3,-1,4
1523208736950227,-2,4,4,5,1,-1,10,2
1523208736959017,9,6,6,5,0,2,-11,1
1523208736959017,25,10,-4,-4,0,-1,24,-7
1523208736974069,-42,-11,7,1,-1,-2,0,21
1523208736974069,-33,-10,-14,-3,-8,-6,-29,-61
1523208736975061,9,-5,-3,-6,0,-1,16,4
1523208736975061,-4,8,6,2,1,1,10,-9
1523208736996115,14,-1,4,2,-2,0,10,-6
1523208736996115,5,-6,-3,-2,-1,-1,-12,17
1523208736998120,-9,23,8,3,0,0,0,11
1523208736998120,-12,-31,-25,-15,-6,-5,-7,-2
1523208737010152,2,22,21,5,-2,-1,-12,-12
1523208737010152,5,-20,-44,-22,0,2,23,18
1523208737019179,16,0,11,9,3,-1,-11,20
1523208737019179,-9,24,4,3,-3,-5,-12,-23
1523208737033225,-4,-10,11,8,3,1,-13,-32
1523208737033225,12,2,-11,-18,-8,-3,2,30
1523208737035220,-3,6,12,8,-2,1,-1,-2
1523208737035220,13,-31,-45,-17,0,1,2,21
1523208737056278,15,18,1,0,1,4,16,19
1523208737056278,-1,64,27,14,0,-4,-8,1
1523208737057282,-24,-88,-28,-8,-6,-8,-8,-13
1523208737057282,-7,6,18,3,1,1,-4,4
1523208737078332,4,-8,17,2,-3,-2,0,-13
1523208737078332,9,7,-22,-10,8,4,2,10
1523208737080339,1,19,21,9,6,7,-5,-16
1523208737080339,33,12,12,8,0,-2,6,15
1523208737093375,-24,9,-9,-8,-1,-1,17,19
1523208737093375,-6,-1,9,9,-6,-3,-6,-25
1523208737095380,-49,-22,-6,-22,-5,-8,-24,-73
1523208737095380,-5,-44,13,8,4,6,3,3
1523208737116434,24,16,-1,-6,-3,-4,12,25
1523208737116434,2,-1,2,8,1,-4,-21,4
1523208737117524,6,-2,-11,-2,-4,2,5,12
1523208737117524,5,29,-1,-3,-2,-1,-5,6
1523208737138657,-13,-12,3,-2,-3,0,-7,-27
1523208737138657,1,-28,3,2,1,2,-16,29
1523208737140503,20,22,-1,3,-2,0,35,-8
1523208737140503,-31,5,11,9,3,-3,-4,-35
1523208737153533,10,12,-17,-7,-4,-4,-5,-1
1523208737153533,0,-33,0,-4,-3,-2,6,10
1523208737155539,11,-9,7,5,3,2,-3,14
1523208737155539,-6,3,-20,7,1,3,2,27
1523208737175591,0,2,-2,-15,-2,-4,0,-32
1523208737175591,0,-2,5,0,-2,0,9,3
1523208737177597,2,8,5,-3,-1,0,-1,-12
1523208737177597,-5,6,22,8,-2,-2,-5,5
1523208737198653,-5,23,-28,-3,0,-2,-22,-11
1523208737198653,6,-22,7,7,1,2,11,16
1523208737200660,16,0,-22,-15,-3,-3,-15,41
1523208737200660,-12,21,16,3,0,-3,7,-63
1523208737212690,-5,-9,10,4,-3,-3,-3,5
1523208737212690,-11,-6,-52,-24,-5,-6,9,-11
1523208737219944,-11,-25,1,7,1,1,-16,-18
1523208737219944,5,5,0,-6,-3,-6,1,30
1523208737236753,-1,0,-2,3,2,-2,4,6
1523208737236753,-7,12,13,11,-1,-1,-1,-22
1523208737237757,35,3,4,6,2,3,-3,18
1523208737237757,-52,-2,-10,-9,-2,0,5,-6
1523208737258818,6,-14,16,9,-3,-1,1,13
1523208737258818,-13,-13,1,1,2,1,-12,-35
1523208737259817,-8,43,1,-7,-6,-5,3,-9
1523208737259817,15,-36,0,-3,-2,1,-3,14
1523208737272858,10,-9,-3,8,4,1,16,11
1523208737272858,-9,-13,6,-7,-4,1,-10,-4
1523208737279871,2,18,-10,4,-1,-3,7,4
1523208737279871,5,-8,17,2,0,1,4,5
1523208737295913,-3,-12,-20,-10,-2,2,2,-1
1523208737295913,18,16,2,6,2,1,-1,14
1523208737297916,-8,-1,13,-6,-3,-3,10,-4
1523208737297916,9,3,-3,3,2,3,19,10
1523208737319207,5,10,-1,-1,0,-1,-13,4
1523208737319207,-27,14,6,-2,-4,-3,3,-31
1523208737319975,-16,-45,-7,2,-1,-3,-13,-14
1523208737319975,10,0,7,7,-3,-2,-8,13
1523208737333013,-5,6,-1,-5,2,-2,-17,-38
1523208737333013,17,-4,4,1,1,1,-2,26
1523208737340029,-6,-6,-1,-2,-2,-3,5,-20
1523208737340029,-20,-3,-4,-2,0,-1,-7,-30
1523208737356080,2,-11,0,0,-2,0,15,9
1523208737356080,5,5,-2,-4,-1,-2,-10,2
1523208737358080,-1,15,22,8,3,2,0,13
1523208737358080,7,10,-12,-11,1,1,9,8
1523208737378130,-1,-15,13,-3,-8,-5,3,14
1523208737378130,-9,-12,-1,-1,-1,2,-1,-4
1523208737380136,15,-8,2,2,0,2,9,22
1523208737380136,-20,18,-6,-2,-2,0,7,-47
1523208737393171,-3,-4,-2,-1,0,1,-6,-4
1523208737393171,16,-14,-1,-3,-2,-1,-1,0
1523208737400378,-29,2,-13,-4,-1,-3,-4,19
1523208737400378,2,7,-3,-2,-4,-5,-23,-14
1523208737416244,1,17,-2,-7,-2,1,4,-3
1523208737416244,-10,-16,3,3,-1,-2,0,-4
1523208737417234,19,-19,-6,1,1,0,4,4
1523208737417234,7,5,-24,-10,-3,-1,-2,12
1523208737438406,-6,-5,4,3,0,2,-11,-14
1523208737438406,12,33,12,1,-1,0,19,20
1523208737440299,-4,3,-6,-4,-1,0,-3,-7
1523208737440299,5,-22,21,8,2,2,-6,20
1523208737453331,6,19,-7,-8,-3,-6,-14,-17
1523208737453331,-12,2,-11,-5,-2,-5,-2,-7
1523208737459347,-2,0,-2,-7,-1,-1,-5,10
1523208737459347,8,6,-4,-1,-1,-1,10,4
1523208737476392,-29,-44,-5,4,1,-1,11,-13
1523208737476392,8,9,1,4,2,2,-5,5
1523208737477394,-7,12,0,-3,-4,-2,13,-16
1523208737477394,16,23,-2,-6,-5,-4,-34,7
1523208737498449,2,18,-1,-1,1,2,22,21
1523208737498449,-4,-7,-4,0,1,-1,6,-25
1523208737500457,-5,-39,-8,-2,-4,-1,-18,-11
1523208737500457,0,10,-2,0,0,1,-3,-1
1523208737512488,6,-13,-5,-6,-4,-1,-2,22
1523208737512488,-3,12,-7,-2,0,-1,-4,-4
1523208737519508,-4,15,4,3,1,3,-28,7
1523208737519508,-12,-6,-4,-2,-3,-5,26,-32
1523208737536703,-4,-29,1,1,-2,-2,0,1
1523208737536703,-1,26,-4,2,-1,-4,-6,30
1523208737537553,-1,-8,-7,-6,-3,-2,-5,-12
1523208737537553,14,-24,-2,-3,-3,2,4,34
1523208737558651,-10,7,3,8,4,1,-6,-29
1523208737558651,10,2,-9,-5,-2,0,3,-5
1523208737560617,1,5,4,4,3,-2,-6,-2
1523208737560617,-2,10,22,11,0,-1,-10,8
1523208737572654,5,6,-4,-3,-3,-1,13,-8
1523208737572654,-18,-38,-6,-8,-3,-1,-6,-38
1523208737581672,-13,11,5,1,-1,-3,-2,-19
1523208737581672,-6,-10,-1,4,1,3,3,-8
1523208737595707,16,17,12,8,2,0,-2,14
1523208737595707,1,38,-2,-6,-4,-5,16,19
1523208737597714,-4,-34,-13,2,0,0,-8,14
1523208737597714,4,-4,-1,-8,-2,0,6,-13
1523208737619011,-5,-21,-9,-1,-3,-2,-2,9
1523208737619011,6,2,-18,-7,-2,2,-13,-8
1523208737619772,35,7,-13,-4,-1,-3,8,0
1523208737619772,-60,-14,-2,-4,-2,-4,-9,7
1523208737631805,10,9,-1,-6,0,-2,-2,2
1523208737631805,0,-14,18,12,1,1,2,23
1523208737640828,-12,8,-4,-6,-2,-3,3,-31
1523208737640828,21,1,-4,-1,-1,0,3,31
1523208737655874,-17,-9,-2,-4,-1,1,-8,-11
1523208737655874,-5,-21,9,-2,-3,-2,-11,3
1523208737657881,-5,-22,24,6,-3,1,15,6
1523208737657881,11,10,-40,-23,-4,-2,8,-3
1523208737678930,-9,16,6,0,0,-3,-12,3
1523208737678930,6,10,1,6,2,-2,-5,-1
1523208737680935,16,0,9,2,0,2,10,28
1523208737680935,-2,-2,2,-3,-1,-7,-24,-18
1523208737691964,21,17,-5,0,-4,-1,11,37
1523208737691964,-43,-21,9,-1,1,0,-9,-87
1523208737701106,-5,-12,-15,-3,-3,-1,5,12
1523208737701106,60,-1,4,3,1,-1,-8,-7
1523208737716028,-92,-15,-13,-3,-1,-1,-9,-18
1523208737716028,19,25,6,2,3,2,18,29
1523208737718033,4,9,-9,-7,-7,-5,-1,-10
1523208737718033,-18,-22,0,3,0,1,-2,-14
1523208737739094,22,-17,8,3,2,0,-4,5
1523208737739094,4,3,-4,-5,-3,-3,-13,7
1523208737740124,-14,0,-1,3,2,0,-1,-5
1523208737740124,9,24,1,-1,-2,0,4,-4
1523208737752361,16,0,-5,-2,-4,-6,-6,8
1523208737752361,-15,-22,-5,-4,-2,-1,1,7
1523208737761148,8,-12,-4,-1,0,-2,-1,-6
1523208737761148,-10,0,4,6,1,0,4,0
1523208737776188,11,3,5,-2,-1,4,3,24
1523208737776188,0,1,-1,0,-2,-1,13,-5
1523208737777192,7,21,6,2,0,-2,4,8
1523208737777192,-15,-3,2,2,1,0,2,-15
1523208737799273,3,-9,-6,-3,-3,-1,-3,12
1523208737799273,12,10,6,6,-1,0,-20,24
1523208737800251,-4,-27,-41,-26,-3,-3,52,11
1523208737800251,-11,-2,8,6,0,-2,-25,-11
1523208737812323,22,19,0,1,-1,1,38,32
1523208737812323,-13,-6,-5,-5,-4,-4,-19,-30
1523208737821306,-9,10,7,7,3,2,8,-8
1523208737821306,1,-47,-4,-2,0,2,-5,0
1523208737836583,44,29,-7,-3,-3,-2,2,10
1523208737836583,-56,1,3,-1,-2,-1,-5,-44
1523208737837436,20,26,4,4,1,-1,-12,13
1523208737837436,-15,-5,-5,-5,-3,-4,-3,-23
1523208737858451,2,-5,5,3,-1,-1,-14,-20
1523208737858451,18,-9,-4,-2,1,-1,7,25
1523208737860411,-3,-9,7,-2,-3,-4,-20,-15
1523208737860411,3,19,-2,1,0,3,-5,8
1523208737872445,-7,-4,-4,-2,0,-2,-5,-27
1523208737872445,11,12,-1,-3,-3,-4,5,9
1523208737881469,-11,-26,0,3,-1,0,-3,16
1523208737881469,5,0,5,0,0,-3,-37,-14
1523208737896732,-16,19,0,4,1,0,24,-17
1523208737896732,5,-4,-2,-4,-2,-1,1,-5
1523208737897514,2,25,-1,-3,-4,-3,-15,-5
1523208737897514,-8,-52,-2,-3,-3,-2,1,22
1523208737925585,2,3,-3,6,3,0,-5,-24
1523208737925585,13,26,8,0,1,2,6,16
1523208737927590,3,13,-4,-4,-4,-2,-6,6
1523208737927590,2,26,0,0,2,3,10,1
1523208737932603,-11,8,-8,-8,-4,-7,-24,-13
1523208737932603,20,-60,6,6,5,4,12,5
1523208737941630,-19,0,3,5,2,3,-6,-2
1523208737941630,10,28,0,-8,-6,-5,17,18
1523208737955665,9,2,5,3,2,2,-5,-4
1523208737955665,-9,12,-37,-10,-4,-8,-9,-29
1523208737957674,-6,-15,5,-3,-2,1,9,-7
1523208737957674,-1,14,2,1,1,-2,14,-2
1523208737978726,7,-34,2,1,-1,2,-14,6
1523208737978726,22,5,5,-3,-3,-1,0,32
1523208737979729,-9,20,-4,2,3,-3,-2,-52
1523208737979729,-11,-26,-1,6,1,-2,-5,2
1523208738001786,3,-12,-9,-11,-4,-2,1,11
1523208738001786,3,-3,2,2,0,-1,-4,19
1523208738002790,1,12,3,-3,-3,-1,-7,3
1523208738002790,2,-10,2,6,1,-1,1,-8
1523208738015827,-1,24,7,3,3,2,0,-2
1523208738015827,-24,-45,-2,-3,-2,-1,-6,-7
1523208738017831,8,9,-3,-7,-4,-1,-6,0
1523208738017831,-2,3,-3,-3,-4,-2,10,0
1523208738038891,5,-19,-2,4,2,3,6,18
1523208738038891,-8,13,6,-6,-5,0,6,-18
1523208738039897,9,13,-8,1,-1,-1,-9,16
1523208738039897,3,-29,3,0,2,2,1,0
1523208738060947,-8,-16,-5,-8,-8,-6,8,16
1523208738060947,14,22,-1,6,2,-3,-23,9
1523208738062950,-3,0,0,1,-1,0,40,-13
1523208738062950,18,4,0,-1,-2,1,0,30
1523208738075983,-24,6,-4,3,1,-2,-7,-28
1523208738075983,-4,-15,3,-2,-2,1,3,-4
1523208738077991,22,-1,2,-4,-2,-3,-12,18
1523208738077991,-17,29,-6,-1,0,1,-3,-16
1523208738099176,2,-25,3,-2,-3,0,15,21
1523208738099176,-19,-42,-6,3,-2,-4,12,-23
1523208738100047,8,22,6,4,-1,-1,-10,12
1523208738100047,-15,-22,-2,-4,-4,0,5,-15
1523208738121174,23,30,2,-2,-1,0,-3,26
1523208738121174,-16,2,-3,-6,-3,-4,5,-7
1523208738123137,2,-15,-6,0,-1,-1,-15,4
1523208738123137,-7,-7,7,0,-4,-1,-3,-5
1523208738136379,14,-2,0,2,0,0,-6,-10
1523208738136379,-27,30,-7,6,5,3,-2,5
1523208738138151,-5,-25,-1,-13,-7,-5,-1,-2
1523208738138151,16,18,-2,2,-1,-1,-5,6
1523208738158204,-33,9,3,-3,1,0,4,-36
1523208738158204,8,-37,0,0,-1,-2,2,12
1523208738160208,-10,-18,0,2,0,-2,-10,-18
1523208738160208,13,7,-5,-3,0,0,-9,26
1523208738181265,9,1,4,4,3,7,60,-24
1523208738181265,-4,22,5,-1,-1,1,3,15
1523208738182273,-11,9,-1,-3,-2,-3,-10,-30
1523208738182273,-14,3,-7,-8,-4,-3,2,-10
1523208738195341,-7,-11,1,1,-2,-1,-18,-8
1523208738195341,17,18,2,0,0,0,-9,25
1523208738202554,0,2,3,4,2,0,11,1
1523208738202554,8,7,1,3,3,4,4,32
1523208738218363,-17,32,-5,-3,-3,-5,-15,-31
1523208738218363,-12,-46,-2,-7,-6,-5,-7,-34
1523208738220368,6,-5,2,2,1,-2,-17,15
1523208738220368,-8,5,-3,-6,-2,-4,11,-18
1523208738241427,7,-15,-2,-1,1,-1,-12,33
1523208738241427,11,24,-1,1,1,1,15,-4
1523208738242426,5,4,-2,4,1,2,2,18
1523208738242426,0,1,2,2,0,-3,15,14
1523208738255462,-9,-19,-6,-3,-3,-2,-18,-4
1523208738255462,2,1,-2,-2,-1,0,-6,-11
1523208738262715,2,0,0,1,0,2,5,21
1523208738262715,25,28,7,5,4,-1,-17,-28
1523208738278523,-60,-44,0,0,-4,1,9,-25
1523208738278523,11,-1,-26,-17,-4,-4,2,5
1523208738280531,-1,4,2,4,4,4,6,6
1523208738280531,4,0,1,-2,-1,1,0,2
1523208738301727,7,6,20,13,2,-4,-15,3
1523208738301727,7,10,-3,-2,-1,-2,-5,7
1523208738302587,-5,0,-3,-9,-3,-3,12,6
1523208738302587,-15,-19,8,-4,-5,-2,-10,-23
1523208738315621,13,10,-9,-4,1,2,12,33
1523208738315621,-19,-34,-3,-3,-3,-3,-8,-49
1523208738322652,13,15,-2,7,1,0,-5,5
1523208738322652,0,-9,-7,-6,-3,0,4,5
1523208738338684,3,14,0,-5,-3,-3,-17,-7
1523208738338684,6,1,10,4,2,1,2,17
1523208738340689,-7,-14,0,-2,0,0,-9,-18
1523208738340689,-16,-10,-9,1,-3,-4,7,-12
1523208738360741,8,11,-8,-5,-4,-4,-17,-6
1523208738360741,8,3,7,2,-1,0,23,20
1523208738362746,31,18,-1,-9,-4,-4,-11,-8
1523208738362746,-29,-10,-3,-1,-4,-2,8,-2
1523208738375781,2,-13,-2,-5,-2,-2,-3,-1
1523208738375781,-3,-19,1,4,1,3,-8,5
1523208738381797,9,2,7,3,0,-1,16,6
1523208738381797,-1,31,5,2,0,-4,-11,-15
1523208738399077,12,-9,1,-2,-2,-1,-4,4
1523208738399077,1,6,2,5,0,0,12,0
1523208738399843,-21,-18,-2,2,-2,1,-3,3
1523208738399843,6,6,10,1,-1,-2,1,3
1523208738420943,3,-2,-3,1,-1,1,5,19
1523208738420943,3,15,4,2,-3,-5,-35,-8
1523208738422911,-4,5,-1,-1,-2,-2,10,12
1523208738422911,-17,-29,-6,-2,-1,-4,-7,-19
1523208738436026,-9,-9,-3,-1,0,-3,-2,-10
1523208738436026,27,12,-3,-1,0,1,-5,12
1523208738441957,-13,-8,-3,-9,-5,-4,6,-4
1523208738441957,-11,36,-5,-1,-3,-2,-4,-27
1523208738459002,21,-21,-5,-2,-2,-4,-18,1
1523208738459002,-60,-13,5,6,0,0,7,-37
1523208738460005,5,5,-7,-1,-1,-3,-4,2
1523208738460005,13,7,-8,-2,2,1,1,20
1523208738481060,-5,9,4,1,2,-1,-1,0
1523208738481060,17,7,0,-2,0,1,11,20
1523208738483069,-8,-28,-5,-3,-1,-3,-9,-8
1523208738483069,-1,-5,-3,-2,2,2,-4,6
1523208738495098,3,-4,0,3,-1,0,0,-11
1523208738495098,18,23,0,5,6,4,-16,29
1523208738504121,-30,4,-3,-3,0,4,33,-31
1523208738504121,13,-21,5,-2,2,4,1,12
1523208738519200,6,20,-4,-1,2,3,1,-4
1523208738519200,-7,-27,-1,-9,-3,-2,5,21
1523208738520164,-5,7,2,5,3,3,-10,-4
1523208738520164,-1,-14,-3,2,3,4,8,6
1523208738541222,-1,11,-4,-2,0,0,10,-5
1523208738541222,1,-3,-4,-4,0,2,-6,-5
1523208738542224,11,10,3,4,1,-1,-14,19
1523208738542224,-33,-22,-4,-8,-5,-5,7,-45
1523208738555284,20,9,-10,-5,-4,-5,-8,-1
1523208738555284,8,30,1,-3,-6,-6,5,-7
1523208738563280,-8,-13,-2,-5,-4,-5,-13,-6
1523208738563280,-4,-2,0,1,1,1,-3,13
1523208738578319,-15,-30,-2,-3,-2,-2,2,-2
1523208738578319,33,8,0,3,1,-1,8,13
1523208738580324,-52,-7,-1,2,-1,-1,-1,-18
1523208738580324,4,10,-7,-3,-7,-10,-21,-7
1523208738601426,-10,-13,9,-1,-1,-3,-11,-13
1523208738601426,7,11,0,-2,-1,1,14,17
1523208738602384,19,-26,-5,2,-3,-3,-15,-10
1523208738602384,-25,-5,1,-3,0,-1,0,-9
1523208738614449,-4,14,3,-2,-5,-6,-3,2
1523208738614449,-6,-15,-2,2,-1,-1,-6,-15
1523208738623445,6,13,2,-7,-4,-2,-20,10
1523208738623445,-1,12,-9,-8,-7,-4,15,5
1523208738638479,-10,-26,0,0,-1,-2,-1,-5
1523208738638479,-6,-12,2,4,0,-1,-6,-8
1523208738640485,-12,12,2,1,1,-5,-3,-29
1523208738640485,19,-21,1,0,-1,-2,-7,40
1523208738660537,-17,15,0,-4,-4,2,8,-27
1523208738660537,-14,-1,-7,0,2,-3,-16,-24
1523208738662544,2,-10,3,3,-3,0,10,16
1523208738662544,17,20,-1,1,-2,-1,-8,15
1523208738674575,4,-8,-4,0,-1,-1,3,11
1523208738674575,-5,11,4,1,-2,-2,0,-8
1523208738683632,18,11,2,-4,-1,2,9,15
1523208738683632,25,3,-2,2,1,-1,-10,-11
1523208738698874,-50,-4,-4,0,0,-3,14,4
1523208738698874,-3,-17,0,-3,-2,0,3,-3
1523208738700644,9,-12,-8,-2,2,-1,-12,1
1523208738700644,0,-5,3,1,0,2,18,5
1523208738720725,21,27,-2,-2,0,2,1,17
1523208738720725,-16,-19,-5,1,0,-1,-17,-48
1523208738722707,-16,5,-2,-6,0,0,18,-20
1523208738722707,1,1,0,3,1,1,-12,12
1523208738734735,7,8,-6,0,2,6,-3,-27
1523208738734735,-23,-20,-10,-2,-3,-5,6,6
1523208738743759,14,-20,0,1,0,6,6,10
1523208738743759,-4,5,3,0,1,-1,1,-12
1523208738758799,11,14,6,1,3,3,-6,18
1523208738758799,14,2,-3,0,3,5,3,22
1523208738759801,-19,-1,-1,1,1,-1,-7,-41
1523208738759801,2,-14,-6,-1,3,1,-3,20
1523208738780858,12,-1,-2,-2,1,3,2,3
1523208738780858,-5,10,2,1,3,3,5,-14
1523208738782862,2,25,4,-1,-2,-2,-6,-3
1523208738782862,-6,-22,-3,1,-1,-2,-6,-5
1523208738794895,3,-15,-4,2,-3,-4,-6,-2
1523208738794895,11,15,3,-8,-5,-4,8,14
1523208738803920,-4,13,-3,4,-1,-1,2,10
1523208738803920,1,-5,-1,4,2,1,-2,6
1523208738819201,-7,-17,-6,-10,-8,-10,-14,-35
1523208738819201,-1,-12,12,-5,-8,-4,1,12
1523208738819960,31,16,-1,2,-1,-2,-5,-3
1523208738819960,-50,6,-6,-2,-2,2,38,-7
1523208738841018,13,-6,-4,4,1,-2,-2,13
1523208738841018,0,-1,-1,-3,-4,-5,-13,16
1523208738843022,18,11,0,1,-3,-1,-2,20
1523208738843022,11,18,-2,-6,-3,-3,-21,-11
1523208738855055,-21,-50,-3,1,-4,-3,13,-3
1523208738855055,0,3,-3,-1,0,-1,7,-3
1523208738864079,-7,-9,-6,-10,-5,-5,-2,5
1523208738864079,18,14,-1,4,-2,1,8,12
1523208738878118,-23,6,2,-1,-6,-6,-6,-17
1523208738878118,11,-16,-4,4,-1,-3,4,-3
1523208738880124,-12,-5,-1,-2,-4,-5,0,-4
1523208738880124,5,-12,5,1,-2,-2,-2,-3
1523208738901412,5,29,1,0,0,0,-11,14
1523208738901412,-7,-5,0,-1,-3,-2,-4,-19
1523208738903181,1,-19,-4,0,-3,-3,-10,22
1523208738903181,-19,-13,1,-4,-1,-3,-8,-65
1523208738914211,44,28,3,-1,1,1,-4,45
1523208738914211,-51,-5,-2,1,3,2,-11,-41
1523208738923285,8,-1,3,1,-1,-1,-3,23
1523208738923285,-9,-4,-4,0,2,2,-8,-6
1523208738938303,6,7,2,2,4,2,4,-11
1523208738938303,2,5,-2,-2,-1,1,-2,-9
1523208738940281,-7,3,0,-1,2,0,-1,-4
1523208738940281,45,-10,3,1,0,1,6,17
1523208738961337,-41,2,-1,0,-1,2,2,-7
1523208738961337,10,15,-1,0,0,0,5,14
1523208738962345,-1,-12,-1,-2,1,2,-1,5
1523208738962345,11,-11,-1,-3,4,2,2,7
1523208738983633,8,-8,-2,-4,2,2,-14,-4
1523208738983633,14,16,-1,-2,4,4,19,22
1523208738985401,-4,-23,-3,10,6,4,-20,-13
1523208738985401,-6,8,3,-10,-3,-1,13,20
1523208738998670,0,-26,2,-7,2,3,1,-33
1523208738998670,-47,5,-3,-1,0,0,-15,-19
1523208739000441,4,12,-1,-2,-1,-2,1,-34
1523208739000441,-16,13,0,4,-1,2,-3,6
1523208739021499,-10,-35,-3,-1,-3,-5,2,13
1523208739021499,27,-1,0,-8,-6,-6,0,15
1523208739022506,-13,0,1,0,-1,-2,6,-8
1523208739022506,-7,2,-3,3,-4,-7,-11,-5
1523208739043557,11,10,0,-5,-8,-2,10,2
1523208739043557,4,1,-1,-1,-1,-2,-9,-1
1523208739045562,-2,-8,0,-3,-5,-3,-2,15
1523208739045562,-9,-15,-2,-1,-4,-7,11,3
1523208739058595,2,-5,-2,-1,-3,-3,-6,18
1523208739058595,15,19,0,4,-2,-3,-9,12
1523208739060601,-12,-24,-4,-2,0,3,13,33
1523208739060601,-5,10,1,0,0,-3,-16,-14
1523208739080654,7,16,-1,4,3,0,1,-7
1523208739080654,-2,-19,-8,-6,-4,-2,14,5
1523208739082661,11,23,3,-3,-3,-3,5,6
1523208739082661,-3,-24,-7,-2,-4,-2,-17,0
1523208739103739,-8,2,0,1,0,0,9,-2
1523208739103739,3,-7,5,1,-2,0,-4,2
1523208739105729,0,15,-4,-3,-1,-1,2,-15
1523208739105729,2,-5,-2,3,-1,-1,-5,-2
1523208739117988,23,-9,-1,1,0,-1,-1,-4
1523208739117988,-23,12,-3,-2,0,2,7,2
1523208739124771,-17,-20,0,-1,-1,-6,-5,-26
1523208739124771,12,14,0,-4,-1,1,-10,7
1523208739140815,13,13,0,1,1,-6,-9,12
1523208739140815,13,-1,0,-5,-3,3,7,-1
1523208739142819,-13,-17,-4,-3,-4,-2,4,9
1523208739142819,3,10,0,-3,-3,-4,-7,-15
1523208739163875,-15,9,-6,1,-2,0,0,-8
1523208739163875,-3,-29,0,-1,-1,-2,5,8
1523208739164878,0,-16,1,3,1,-2,2,2
1523208739164878,14,6,-2,2,-1,3,2,11
1523208739177915,-7,29,3,-1,-1,0,-10,11
1523208739177915,-2,-6,-1,-4,-2,-5,-7,-5
1523208739185166,10,5,-2,-1,1,2,3,-5
1523208739185166,-4,1,-2,3,3,1,4,2
1523208739201207,-8,1,-1,2,4,4,1,-11
1523208739201207,5,4,-1,-2,-1,0,-18,-4
1523208739202979,14,18,-3,-1,3,6,10,1
1523208739202979,3,-19,-6,-2,3,1,-2,22
1523208739224038,-7,12,2,-5,0,3,9,-13
1523208739224038,9,-11,-4,3,3,-2,-19,12
1523208739225037,-7,-1,4,-2,0,-2,-11,-69
1523208739225037,-32,2,-2,4,3,1,0,20
1523208739238075,8,-18,-1,-7,-5,-3,-4,19
1523208739238075,5,11,-1,2,-3,-2,5,3
1523208739245090,17,20,1,2,-2,-5,1,1
1523208739245090,7,-20,0,1,0,1,9,0
1523208739261133,-1,5,-1,3,-1,-2,-4,-17
1523208739261133,6,-31,-4,-2,-5,-8,-14,52
1523208739263157,-27,11,2,-2,-4,-3,-8,-28
1523208739263157,4,42,2,-7,-5,-4,4,-7
1523208739284220,-17,-33,-5,2,-1,-2,3,-3
1523208739284220,24,13,2,-3,0,2,4,3
1523208739285197,21,-5,-6,-2,-2,2,33,46
1523208739285197,-18,0,2,1,-3,-4,-3,-32
1523208739298467,1,-2,-6,2,-2,-4,-11,-13
1523208739298467,10,28,10,-1,-2,-2,10,0
1523208739305252,-13,16,-3,-7,-5,-4,-19,6
1523208739305252,-12,-64,-5,-8,-4,-5,0,-16
1523208739321321,21,-7,-3,2,0,-1,3,14
1523208739321321,-56,-8,-4,-2,0,-1,14,-41
1523208739322299,-10,26,1,0,0,0,-5,-2
1523208739322299,18,-20,0,-1,-1,0,4,18
1523208739344357,-14,6,0,-3,-1,-3,-14,-19
1523208739344357,8,-7,2,1,2,-1,-3,-9
1523208739346359,6,18,-2,-2,-1,1,-7,8
1523208739346359,0,23,-1,-4,-2,-3,-4,-5
1523208739357390,5,-19,1,3,-1,-1,9,18
1523208739357390,1,12,-8,-7,-3,3,6,2
1523208739364408,-16,-28,-3,3,1,-3,-19,-18
1523208739364408,4,-3,-1,-2,-3,1,-6,-15
1523208739381454,-4,20,-4,-1,-2,-2,17,9
1523208739381454,0,-26,-1,-1,-1,-4,-3,-1
1523208739382455,0,-19,-1,1,1,1,6,-12
1523208739382455,11,5,-2,2,1,2,3,15
1523208739403511,22,11,7,-6,-3,-2,-13,26
1523208739403511,-21,29,-1,-1,-2,-1,-2,-27
1523208739405525,15,-22,-1,-4,0,-1,0,32
1523208739405525,-23,19,-2,0,2,-1,-4,-75
1523208739418591,-23,-44,4,-5,1,-1,5,-2
1523208739418591,14,-5,-2,-1,0,0,-10,5
1523208739424570,-6,17,1,1,2,3,11,-3
1523208739424570,7,3,-1,-4,0,5,8,27
1523208739440612,-7,1,-5,-1,3,3,-11,-7
1523208739440612,-19,-7,2,2,2,4,9,-36
1523208739442618,10,-27,1,2,2,1,2,15
1523208739442618,4,54,1,-2,-3,0,-4,10
1523208739463671,-14,-46,-3,-5,-5,-1,16,-13
1523208739463671,13,15,3,6,2,-1,-4,12
1523208739465678,25,16,1,-1,-4,-5,-26,4
1523208739465678,-15,-26,-1,4,1,3,27,16
1523208739477709,-2,36,5,0,-4,-5,-16,-54
1523208739477709,11,8,-8,-1,-1,-2,5,18
1523208739485965,-9,-24,-3,2,-1,-6,6,-7
1523208739485965,28,10,1,-6,-4,-6,-18,2
1523208739501005,1,12,-2,-5,-4,-1,2,53
1523208739501005,-26,-16,0,2,-1,-5,-7,-46
1523208739502776,0,-7,-2,-4,-3,-3,-5,2
1523208739502776,6,23,0,3,0,-2,-3,18
1523208739523833,-8,-12,-1,5,2,-2,1,-9
1523208739523833,1,-18,1,-7,-6,-3,-18,8
1523208739524834,8,0,-2,-2,-2,1,15,23
1523208739524834,-22,-18,-1,-2,-3,-6,2,-18
1523208739536865,8,20,-2,-2,-1,-2,-6,-18
1523208739536865,-7,-16,-5,-1,-1,-1,-4,-14
1523208739546078,29,-5,2,0,2,2,12,0
1523208739546078,-32,15,6,5,3,0,-6,13
1523208739560932,-1,2,-3,-10,-6,-4,-1,2
1523208739560932,7,14,-5,-2,0,2,7,13
1523208739562935,-8,-25,-5,-3,0,-3,-3,-14
1523208739562935,13,2,0,0,0,0,-11,1
1523208739584176,-9,3,-3,0,-2,1,15,-3
1523208739584176,-3,10,0,3,1,1,8,6
1523208739584993,-14,12,-1,-1,-2,-1,-13,-2
1523208739584993,-6,-16,-2,2,-2,-1,-7,-6
1523208739597261,26,8,2,5,1,-1,-4,44
1523208739597261,-34,-3,-3,-11,-7,-5,-9,-58
1523208739606052,-16,-12,2,1,-2,-3,-4,-17
1523208739606052,10,-2,-2,1,0,-1,1,34
1523208739621093,-6,-9,-1,2,0,1,-7,-21
1523208739621093,15,12,-1,2,1,-3,3,30
1523208739623095,-12,2,-2,-12,-6,2,2,-6
1523208739623095,0,-15,-3,-6,-3,-1,-1,-19
1523208739643155,4,1,1,-1,2,1,-9,-7
1523208739643155,8,3,-1,5,4,2,3,13
1523208739645153,-15,3,-1,-1,-2,2,6,-4
1523208739645153,17,-4,-2,1,3,2,5,11
1523208739657186,-13,12,4,-2,1,3,-3,-7
1523208739657186,16,-5,1,-3,1,1,0,17
1523208739666211,2,-38,-7,-2,0,4,20,6
1523208739666211,-15,9,2,-2,-1,-2,-17,-46
1523208739681250,5,-5,-3,0,0,-3,-15,-2
1523208739681250,7,8,-4,3,1,2,29,17
1523208739682255,12,16,3,-4,-2,-2,-15,7
1523208739682255,0,-9,-1,-2,-1,1,9,12
1523208739703306,-11,2,-5,-1,-3,-4,7,-8
1523208739703306,12,-7,5,-3,-7,-4,-11,0
1523208739705320,-4,14,-8,4,1,-1,-1,12
1523208739705320,-17,-23,1,0,-1,0,11,-29
1523208739717386,30,-4,1,-6,-2,-2,10,39
1523208739717386,20,8,-1,-3,-4,-4,-6,53
1523208739726370,-33,9,2,4,0,-4,-12,-55
1523208739726370,6,-21,-3,-5,-5,-5,-13,29
1523208739741411,-17,11,-4,3,0,0,20,-18
1523208739741411,-17,-50,-5,3,3,2,-11,-7
1523208739742414,34,32,5,0,-1,-1,-4,14
1523208739742414,-58,11,3,0,0,-3,-2,4
1523208739763470,6,-4,-3,3,-2,-4,-9,-9
1523208739763470,-3,7,-1,-6,-4,0,21,-8
1523208739765474,-13,6,1,-4,-4,-3,-19,-16
1523208739765474,21,0,-1,6,2,1,9,1
1523208739777508,-11,-20,-3,-4,-5,-2,-3,-4
1523208739777508,-8,27,-3,2,0,-3,-18,-11
1523208739786529,-8,-51,-1,2,1,2,12,-12
1523208739786529,20,13,-4,-5,-3,-4,-2,8
1523208739801697,-17,-7,1,4,2,0,0,-9
1523208739801697,31,5,1,-2,-1,-1,-7,28
1523208739802572,-12,7,2,1,0,-1,0,-11
1523208739802572,6,18,-4,-5,-5,-5,5,4
1523208739823628,-4,-33,-1,0,-2,-2,-9,-1
1523208739823628,-9,13,4,1,0,-2,5,-8
1523208739824631,7,-4,-2,0,0,0,1,15
1523208739824631,8,3,-3,-3,-2,0,-7,-3
1523208739837668,25,-2,-6,2,-2,-2,-6,-3
1523208739837668,-34,-19,10,-2,-1,-1,-12,-6
1523208739845922,1,9,-6,-7,-4,-4,9,8
1523208739845922,46,18,-2,1,-1,-1,-23,-9
1523208739868983,-46,-31,-3,0,3,2,16,19
1523208739868983,0,-1,1,0,-2,-4,-9,-34
1523208739869751,-10,-8,-7,-2,-2,0,-11,6
1523208739869751,14,-10,4,0,3,7,1,-5
1523208739884024,2,21,1,3,3,3,-1,18
1523208739884024,-23,-23,-4,-2,-2,-1,7,-10
1523208739885799,-2,-9,0,3,6,5,-8,-8
1523208739885799,6,-6,-5,-1,4,-1,-5,14
1523208739905852,11,-2,1,-5,-3,0,13,8
1523208739905852,-3,25,-5,-2,1,3,5,-6
1523208739907852,25,7,4,-4,-2,-2,-4,-16
1523208739907852,-28,-17,-1,5,0,-1,-16,8
1523208739920889,4,14,3,-2,1,1,19,10
1523208739920889,-2,2,-5,-2,-4,-8,-5,-22
1523208739922893,5,4,1,-2,-1,0,11,13
1523208739922893,-8,-3,0,-1,-2,-2,-3,-13
1523208739943988,-7,3,2,-1,-3,-4,-19,-32
1523208739943988,18,-3,2,2,0,3,17,14
1523208739945000,0,9,-1,3,-2,-1,2,16
1523208739945000,-8,3,-1,1,-3,-7,8,-29
1523208739966008,1,-7,-2,-8,-7,-7,-11,-5
1523208739966008,-1,-6,1,2,2,0,1,5
1523208739968241,1,-1,-1,-3,-4,-8,-17,-3
1523208739968241,1,12,0,-3,-2,-2,6,7
1523208739981048,-3,-26,-8,0,-1,-4,0,5
1523208739981048,-13,-16,0,0,-2,0,7,-40
1523208739983052,-18,13,-5,-1,-2,0,22,-15
1523208739983052,9,-15,1,-2,-2,-1,0,6
1523208740004108,0,37,3,0,0,1,-2,-7
1523208740004108,38,0,-4,-1,0,-2,-13,24
1523208740005113,-32,-19,-3,1,-2,-3,-6,3
1523208740005113,-26,-7,-1,-1,-2,-2,-22,-47
1523208740026166,-7,17,-3,-3,-4,2,21,-11
1523208740026166,17,1,-2,0,-2,-2,-9,7
1523208740028170,18,10,-1,-3,0,-1,-1,5
1523208740028170,2,-18,-2,3,0,1,-5,11
1523208740039201,5,19,5,-4,0,-1,-12,2
1523208740039201,-1,-1,-5,-5,-3,0,-4,-6
1523208740048460,10,10,-3,0,0,0,1,26
1523208740048460,-49,-16,-4,-2,0,-3,3,-63
1523208740063266,8,-12,-1,-4,-1,-3,-10,6
1523208740063266,-5,8,5,-3,-1,0,-8,-1
1523208740063266,-14,-42,-1,0,1,1,12,-7
1523208740063266,58,71,4,2,0,4,12,64
1523208740085558,-69,-25,-7,-5,-6,-3,1,-37
1523208740085558,-13,-51,-6,-4,-4,-2,-12,-7
1523208740086326,14,36,-4,4,4,2,-18,4
1523208740086326,14,-33,-4,-4,-2,-2,8,22
1523208740100391,7,15,5,8,7,5,-10,-13
1523208740100391,11,15,1,-7,-1,1,33,35
1523208740107382,-1,3,-2,-1,0,3,-3,-7
1523208740107382,-4,-7,-1,-2,1,2,4,29
1523208740122423,-7,-7,-4,1,1,2,-7,-44
1523208740122423,-35,-8,-4,1,0,-3,-9,-39
1523208740123425,6,0,3,0,2,-1,-1,-4
1523208740123425,2,2,0,-3,0,1,3,4
1523208740145485,17,8,1,-1,-2,-2,-1,19
1523208740145485,7,15,1,1,-1,-4,-11,12
1523208740146488,-12,1,-1,0,-2,-1,24,-8
1523208740146488,3,-10,1,-5,-4,-1,-3,4
1523208740159522,2,9,-1,2,-2,0,13,-9
1523208740159522,16,-6,-1,0,-2,0,3,-11
1523208740168584,-47,-19,-2,-4,-7,-9,-22,17
1523208740168584,-2,23,-1,-1,-2,-2,3,-2
1523208740182817,19,-20,0,-2,0,-2,3,18
1523208740182817,-2,7,-2,4,2,3,-6,16
1523208740183583,-1,-30,-3,-1,-3,-6,7,-53
1523208740183583,9,1,-2,-10,-6,0,9,19
1523208740205644,-19,8,3,1,0,-2,-11,-23
1523208740205644,0,1,-2,3,0,0,-11,1
1523208740206647,12,15,3,0,-1,1,14,18
1523208740206647,-13,3,-4,1,-1,-5,-8,-26
1523208740219679,-1,-17,-2,-3,-2,-3,-3,12
1523208740219679,-2,7,-2,3,1,0,-13,-3
1523208740227703,11,20,1,3,3,2,-2,25
1523208740227703,-28,-11,-4,-8,-8,-5,-8,-82
1523208740242743,12,-7,-5,1,-1,0,6,15
1523208740242743,24,5,3,1,-2,-2,-4,15
1523208740243745,-52,-8,-3,5,1,-1,-8,-12
1523208740243745,7,9,5,-6,-4,-2,-7,16
1523208740265805,18,-12,-5,-3,-2,0,3,31
1523208740265805,-32,-10,-4,2,0,-2,-7,-49
1523208740265805,64,15,-4,-4,-1,3,6,28
1523208740265805,-30,-23,-2,2,1,-1,5,-12
1523208740279840,-8,-10,2,0,-3,-3,-3,-2
1523208740279840,4,20,0,-3,-2,-3,8,17
1523208740287870,11,-10,0,-1,0,0,-7,-10
1523208740287870,2,-2,-2,2,3,2,4,6
1523208740302900,12,4,-3,1,1,-1,-13,19
1523208740302900,-9,-10,3,-4,-3,1,20,11
1523208740303904,-11,6,-3,-6,-6,-6,-17,-44
1523208740303904,-3,-13,-5,0,-1,-1,-1,9
1523208740324959,0,6,-2,-2,0,0,-12,2
1523208740324959,-3,2,4,2,5,4,18,5
1523208740325963,30,-18,-4,-1,0,2,8,1
1523208740325963,-3,33,0,3,4,4,-20,29
1523208740340000,1,-7,-2,-1,2,3,4,-17
1523208740340000,-6,-13,-1,-1,1,0,-12,-6
1523208740348257,4,1,0,-4,-2,-1,-10,24
1523208740348257,15,-20,1,4,3,1,-1,1
1523208740363080,3,19,3,1,1,2,7,-7
1523208740363080,3,24,-1,-1,1,1,6,-3
1523208740364066,-9,-19,3,-1,-2,-3,-9,17
1523208740364066,16,-15,-5,-4,-6,-7,-10,1
1523208740385355,-4,8,-3,0,-1,-4,-20,2
1523208740385355,24,-14,-3,-5,-5,-6,19,8
1523208740386121,6,12,1,7,2,0,10,-3
1523208740386121,-14,-26,2,-1,-3,-5,4,8
1523208740400348,-16,-10,-6,-8,-6,-6,-19,-25
1523208740400348,11,-1,-1,-1,-6,-3,-5,5
1523208740408180,64,12,2,2,3,1,2,-10
1523208740408180,-85,5,-3,0,-1,-1,23,9
1523208740423222,-11,-35,-1,3,-2,-1,0,36
1523208740423222,-50,-18,-2,-1,-1,-2,-5,-75
1523208740423222,-33,-9,-5,1,-2,-4,1,-36
1523208740423222,35,-19,1,2,-2,0,-4,3
1523208740445346,32,29,3,-3,-1,-3,0,4
1523208740445346,8,33,1,-3,-2,-1,-14,11
1523208740446281,-61,-6,-1,2,2,-2,9,2
1523208740446281,47,-3,0,-1,0,1,-8,14
1523208740459317,-39,-3,-3,-2,-1,-4,-1,-30
1523208740459317,22,-5,0,-4,-1,0,4,14
1523208740468495,-8,5,-5,-3,-3,-3,-17,-7
1523208740468495,14,8,3,-1,-1,-1,10,11
1523208740483496,-10,-10,-5,3,0,1,10,2
1523208740483496,-3,5,1,-1,0,-3,-13,5
1523208740483496,-5,10,-4,-6,-3,-2,2,15
1523208740483496,-29,-35,-6,0,-1,-2,-5,-6
1523208740505440,21,2,0,-4,-1,-1,8,1
1523208740505440,1,-1,-4,2,2,1,-9,18
1523208740506444,-2,14,3,2,1,2,-16,-15
1523208740506444,17,29,0,-3,2,-1,18,11
1523208740519476,-12,-14,-3,-3,-4,-5,-7,-8
1523208740519476,-2,-41,-3,-1,-3,-1,11,21
1523208740527501,-7,21,2,2,-1,1,-4,3
1523208740527501,41,-20,-4,-3,-4,-1,4,6
1523208740542539,-36,24,0,0,3,1,-5,-48
1523208740542539,-11,-4,-1,0,0,-1,-12,1
1523208740543542,23,-12,3,-2,3,8,42,11
1523208740543542,-16,4,-4,-1,0,0,-13,-26
1523208740565599,32,17,-3,-1,0,-1,1,33
1523208740565599,-2,-23,-4,-4,2,2,0,5
1523208740566602,-21,3,-1,-3,0,0,-4,-41
1523208740566602,10,15,0,2,5,6,12,-2
1523208740579638,9,-15,-1,1,3,5,3,19
1523208740579638,-6,28,-3,-3,-2,-1,2,-17
1523208740587664,11,5,0,-1,0,-3,-24,21
1523208740587664,-65,-13,-6,-4,-3,-3,-3,-24
1523208740602696,18,-11,6,3,0,2,9,34
1523208740602696,-22,14,-1,7,4,1,7,-46
1523208740603707,14,-4,2,-5,-5,-7,-2,7
1523208740603707,-59,-2,-5,-1,-6,-4,-4,-14
1523208740625759,-9,-5,0,-1,-1,-4,-6,0
1523208740625759,7,-5,-3,-4,-4,2,9,21
1523208740625759,9,10,0,-1,-4,-3,3,5
1523208740625759,20,7,0,0,-2,-6,-23,-36
1523208740639797,0,-4,-3,-4,-4,-1,15,-9
1523208740639797,0,-4,1,-1,-3,-4,-12,2
1523208740648054,7,-5,-1,-2,-3,0,-9,-17
1523208740648054,32,18,2,4,0,-1,3,22
1523208740662860,-15,21,4,-4,-1,-1,-16,-14
1523208740662860,18,-7,-4,-1,-1,-1,9,18
1523208740663861,-21,-33,0,-3,-4,-6,-18,-10
1523208740663861,5,-6,0,4,4,3,5,5
1523208740685151,12,6,1,1,2,1,9,-10
1523208740685151,6,39,-3,-2,-4,-2,-5,13
1523208740685918,-6,-20,3,-3,-2,-1,-5,12
1523208740685918,2,-1,-1,-1,0,-5,-5,-2
1523208740700191,24,-18,-2,0,-1,0,2,10
1523208740700191,4,24,-2,0,-2,-3,-7,-3
1523208740707981,-29,6,-1,6,3,3,3,-14
1523208740707981,22,-31,0,-7,-4,0,-7,5
1523208740723018,62,14,-3,-2,-1,0,-2,35
1523208740723018,-31,2,-1,2,1,-3,6,4
1523208740724019,9,2,1,0,-1,1,3,2
1523208740724019,0,21,4,-2,-1,3,-1,-3
1523208740746078,17,-5,-3,-1,-2,-3,-29,-12
1523208740746078,-16,-33,-1,-5,-3,1,10,6
1523208740746078,8,16,-5,3,1,-3,-11,27
1523208740746078,-1,10,-1,-3,-2,0,19,-11
1523208740760116,-25,-26,-5,-1,-2,0,-2,-11
1523208740760116,6,1,0,-2,1,3,-12,-13
1523208740768373,15,-7,-6,-4,-2,-1,1,14
1523208740768373,-18,-5,-4,-2,-3,-3,-14,-4
1523208740783177,-21,1,2,-1,-1,-1,-5,-14
1523208740783177,29,-9,3,6,5,2,-5,7
1523208740783177,1,-16,0,0,2,3,9,-6
1523208740783177,1,31,0,1,2,1,-26,-46
1523208740805237,-21,-6,3,-4,1,2,29,-11
1523208740805237,8,-18,-1,-1,1,3,1,10
1523208740806239,8,33,-2,-5,-2,-1,4,2
1523208740806239,-1,-8,4,1,2,1,-5,10
1523208740828299,-15,-25,-4,0,1,0,-6,3
1523208740828299,10,4,-2,-1,-5,-1,-4,-14
1523208740829300,-28,-18,0,1,0,-2,8,-5
1523208740829300,-1,40,1,-4,-4,-2,4,5
1523208740843337,-7,-14,-4,-4,-4,-4,11,3
1523208740843337,24,-29,0,-2,-3,-6,-5,16
1523208740843337,1,-4,-4,0,-1,-2,-15,-4
1523208740843337,-11,0,-4,1,1,-3,3,-33
1523208740865632,10,38,6,-3,-3,-3,8,1
1523208740865632,-11,-25,-4,0,-1,-1,6,19
1523208740866399,-10,17,2,2,1,-2,-2,-5
1523208740866399,-3,-44,-3,-1,0,-2,5,3
1523208740888460,-8,-2,0,0,-2,-5,-17,12
1523208740888460,-19,25,-3,-3,-2,-3,20,-13
1523208740889462,-9,-4,1,-3,-4,0,-7,6
1523208740889462,19,12,0,3,-1,-1,7,21
1523208740903498,-11,-11,-5,-4,-2,-1,5,-13
1523208740903498,25,3,5,-5,-3,-2,-6,1
1523208740903498,-15,-4,-2,1,0,-2,-6,0
1523208740903498,5,-18,-2,0,-1,-2,0,8
1523208740925556,7,14,5,4,2,0,-5,7
1523208740925556,62,18,0,-1,0,1,11,-8
1523208740926559,-47,5,-5,2,-1,-1,-8,-26
1523208740926559,-28,-10,3,-12,-6,0,-1,2
1523208740948852,-6,10,-3,3,1,-1,6,-17
1523208740948852,6,-29,-1,2,1,3,-2,28
1523208740949620,26,26,2,0,1,0,0,3
1523208740949620,-1,5,-6,-1,0,-1,11,5
1523208740962654,6,-22,1,-3,-2,0,-6,8
1523208740962654,-23,13,-4,-1,-2,-1,6,-6
1523208740963657,12,-2,2,0,1,1,0,1
1523208740963657,6,1,-3,-4,-2,-3,-2,-10
1523208740985715,3,16,-2,3,2,0,-12,23
1523208740985715,-51,-8,-6,2,-1,-7,-13,-37
1523208740985715,13,-11,-2,-6,-4,-2,-8,2
1523208740985715,20,-4,1,0,1,5,7,31
1523208741008777,-11,-9,-1,-2,-1,-2,-6,-14
1523208741008777,-3,-2,-3,-1,1,-3,-20,13
1523208741009780,1,-8,3,2,2,1,3,5
1523208741009780,16,9,1,1,3,3,6,16
1523208741022815,-7,9,1,1,2,4,-5,-19
1523208741022815,-13,4,1,-1,2,4,4,-4
1523208741023817,4,-33,-7,-3,-4,-6,-12,-15
1523208741023817,3,-1,0,-7,-4,-3,-3,13
1523208741046021,6,-10,-3,-1,-2,2,4,9
1523208741046021,29,40,1,0,-2,-2,-2,0
1523208741046021,-83,-44,1,-3,-1,-3,-23,-35
1523208741046021,20,-24,-4,-3,-4,-1,22,5
1523208741068936,-3,17,1,1,-1,-3,2,0
1523208741068936,6,-17,0,0,-3,-4,-9,16
1523208741068936,28,18,-1,-1,0,1,18,17
1523208741068936,-12,-14,4,-5,-7,-8,-21,15
1523208741083210,-8,7,-1,3,-1,0,6,-25
1523208741083210,-26,-21,-4,0,-1,1,30,2
1523208741084212,75,1,0,1,-3,-1,2,18
1523208741084212,-52,40,-1,-2,-1,1,-1,-38
1523208741105034,-15,-26,-9,1,1,0,-3,-19
1523208741105034,-25,-8,3,0,1,-4,-22,-23
1523208741106036,19,7,-3,-6,-7,-5,-10,14
1523208741106036,-12,-9,-3,0,-2,0,8,-20
1523208741128094,18,15,-1,-1,-1,0,0,28
1523208741128094,-13,14,-3,-3,-2,-2,6,-22
1523208741129096,-7,-27,0,-2,0,1,18,10
1523208741129096,-11,-4,-3,2,0,-1,-4,-29
1523208741151390,-1,-11,-2,-2,-3,-2,3,-5
1523208741151390,3,7,1,-2,-1,-1,-24,16
1523208741152158,-10,20,-1,1,1,-1,18,-9
1523208741152158,4,-17,-2,2,1,0,-11,11
1523208741165428,3,-9,-3,-5,-4,-4,-4,-8
1523208741165428,-3,-3,-2,2,0,0,-18,-7
1523208741166195,1,13,7,-3,-2,0,8,-4
1523208741166195,0,28,-7,0,0,0,-1,13
1523208741188296,-20,-36,0,-5,-4,-4,-8,-46
1523208741188296,-3,-4,-4,-4,-3,1,3,-1
1523208741189256,-11,-14,-5,1,0,0,1,-9
1523208741189256,18,15,5,9,5,4,-4,9
1523208741203340,25,7,3,-1,0,0,-1,31
1523208741203340,-4,3,-1,-3,-5,-2,0,4
1523208741203340,-26,10,1,-2,-2,-1,-10,-48
1523208741203340,2,-10,-6,0,0,0,3,10
1523208741225354,10,17,-1,3,0,1,-5,2
1523208741225354,34,-9,1,1,1,0,0,-15
1523208741226356,-24,-5,-4,-1,0,2,-6,31
1523208741226356,28,16,0,-1,-1,0,-2,-8
1523208741248413,-38,3,-5,3,3,1,-9,-16
1523208741248413,14,-34,-5,-6,-2,1,18,-9
1523208741249417,19,12,0,-1,3,4,-4,24
1523208741249417,-18,10,1,-3,-1,0,-10,-20
1523208741262452,48,-2,0,0,3,2,24,3
1523208741262452,-29,16,2,3,2,1,-22,10
1523208741263455,3,16,-3,-3,-2,-1,23,-18
1523208741263455,2,-50,-2,1,1,-1,4,18
1523208741285511,-4,21,4,1,0,0,-6,6
1523208741285511,17,-7,2,-9,-5,-6,-29,4
1523208741286524,-18,-11,-1,5,0,0,7,12
1523208741286524,20,25,1,-1,0,-1,-1,15
1523208741308575,-41,-12,-1,-5,-9,-9,-22,-42
1523208741308575,-23,-2,-1,1,-1,-2,13,-12
1523208741308575,16,5,-1,0,-1,-1,-6,7
1523208741308575,-4,-1,-1,2,-1,-2,0,-7
1523208741322612,35,-8,-2,-4,-2,0,0,35
1523208741322612,-42,-5,-2,-1,-4,-2,-2,-51
1523208741323614,26,-2,-2,0,-2,-3,-2,4
1523208741323614,-9,-7,2,-3,-2,-3,-11,1
1523208741345908,25,7,1,-2,-3,-1,3,30
1523208741345908,18,21,0,-4,-1,3,34,-5
1523208741345908,-54,-42,-6,2,0,-1,-4,6
1523208741345908,-1,-4,1,3,-1,-3,-7,-6
1523208741368732,-6,1,2,2,1,2,2,17
1523208741368732,19,-6,-5,-3,-5,-4,-12,-3
1523208741369736,11,8,0,1,0,-2,-5,4
1523208741369736,0,-18,2,-7,-5,-2,0,-1
1523208741382772,-16,9,-7,-1,-2,-2,-6,-7
1523208741382772,-14,-22,2,3,0,2,-6,5
1523208741383774,20,27,-2,-3,-3,1,7,-12
1523208741383774,-17,-18,-2,-1,-1,-1,4,-53
1523208741404829,2,7,4,-5,-1,-3,-2,-10
1523208741404829,0,3,1,1,1,-1,-2,9
1523208741405834,3,-7,-3,-2,-3,-2,1,2
1523208741405834,19,7,5,-1,-1,-1,1,25
1523208741428893,-9,-6,-2,3,2,2,2,-24
1523208741428893,-9,21,-6,-4,-4,-4,-6,-23
1523208741428893,-10,3,8,-2,-1,-6,-39,7
1523208741428893,-40,-25,-8,0,-1,-1,19,14
1523208741441928,-7,-6,-1,-6,-4,-2,19,0
1523208741441928,26,3,0,5,1,2,-3,25
1523208741451045,29,5,4,0,1,1,-5,21
1523208741451045,-37,3,-3,-5,-4,-3,-11,-49
1523208741465215,36,10,0,2,4,0,-17,26
1523208741465215,-25,-17,-2,-2,1,4,17,-18
1523208741465992,11,16,0,2,-1,0,5,8
1523208741465992,9,28,0,1,1,6,11,6
1523208741489053,-13,-39,-6,1,0,-2,-17,18
1523208741489053,-12,2,-5,-3,1,4,32,-24
1523208741489053,-11,-8,-4,-2,2,2,-7,-25
1523208741489053,36,12,-3,3,2,2,-4,25
1523208741502129,-21,10,0,-1,-2,-1,-1,-21
1523208741502129,40,5,4,-1,0,0,-2,64
1523208741510110,-36,-9,-2,-2,-2,-5,6,-49
1523208741510110,-39,-5,0,-2,-1,-2,8,24
1523208741526152,6,7,-3,0,-3,0,1,18
1523208741526152,-5,12,3,-5,-4,-5,-20,2
1523208741527154,20,-3,-7,-5,-5,-2,14,16
1523208741527154,19,7,1,5,0,-3,-28,-44
1523208741549252,-24,-17,2,-8,-7,-14,-19,-10
1523208741549252,-17,16,3,0,-4,-5,49,-21
1523208741549252,75,19,-4,2,1,2,-11,28
1523208741549252,-41,-47,-4,-6,-5,-8,-18,11
1523208741562260,17,32,5,5,3,2,7,-14
1523208741562260,14,-28,-1,1,1,1,-23,-1
1523208741570294,-23,14,-5,-5,-4,-3,4,-7
1523208741570294,33,-21,-2,3,0,0,7,29
1523208741585308,-7,7,0,-4,-2,3,7,-14
1523208741585308,-41,-2,-1,-5,-4,-5,-14,13
1523208741586317,-20,-17,0,1,1,0,-7,-7
1523208741586317,8,26,3,-2,-2,-2,-11,3
1523208741608372,-2,-22,-3,-3,-3,-4,11,-22
1523208741608372,3,5,-2,2,2,-2,-14,-3
1523208741609374,6,13,3,1,-1,2,7,5
1523208741609374,-17,-8,-5,-2,1,0,-3,-14
1523208741622410,13,2,-1,-3,-1,0,-9,12
1523208741622410,7,-12,-1,0,1,0,-19,9
1523208741630469,-19,-5,-1,-2,-4,0,35,-23
1523208741630469,26,3,0,1,0,2,11,23
1523208741645537,-8,4,1,1,-1,2,0,-1
1523208741645537,8,13,-2,-1,-1,-1,4,9
1523208741646472,-17,-11,-3,-5,-3,0,-14,2
1523208741646472,11,21,3,-2,-1,-1,-1,-1
1523208741668529,-4,-31,-4,2,2,1,3,3
1523208741668529,-12,9,0,1,1,1,-4,4
1523208741669538,-5,-16,-4,-4,-5,-6,-4,-15
1523208741669538,16,3,-4,0,-2,0,6,6
1523208741682786,-10,-11,0,-1,-3,-2,-5,-24
1523208741682786,68,19,1,0,-1,-1,-10,-8
1523208741690590,-37,-20,-1,3,4,2,-1,10
1523208741690590,11,16,1,3,2,0,-7,-7
1523208741705629,-19,-2,0,-10,-3,0,1,8
1523208741705629,2,-19,-6,-4,0,1,1,-24
1523208741706631,33,0,-5,-1,2,0,-24,26
1523208741706631,0,21,1,-5,-3,0,6,-4
1523208741728689,-17,-15,-6,0,-1,-3,-8,-24
1523208741728689,-15,-14,-1,1,2,5,30,3
1523208741729695,-9,-19,0,-4,2,2,5,-8
1523208741729695,-3,17,1,3,3,-3,-7,5
1523208741742729,25,5,-8,-3,-2,0,5,0
1523208741742729,1,3,1,-3,-4,-6,-13,12
1523208741750984,-5,-6,1,0,0,-2,5,-3
1523208741750984,22,-28,-3,-3,-4,-4,1,-6
1523208741765788,15,44,1,-1,-3,-1,7,5
1523208741765788,-22,-4,-4,1,-1,-5,-14,-5
1523208741765788,5,-17,-2,2,-4,-1,6,6
1523208741765788,8,-5,0,-7,-4,-6,-11,3
1523208741788850,-14,12,5,3,3,2,13,8
1523208741788850,-3,-14,-1,-4,-6,-4,4,3
1523208741788850,6,29,1,-1,-1,-2,-15,1
1523208741788850,-28,-36,-6,-2,-3,-1,3,-25
1523208741810909,9,-10,0,1,-1,-1,-5,12
1523208741810909,-4,21,5,3,2,-2,-3,-10
1523208741811911,17,-6,-4,-4,-2,-2,-14,24
1523208741811911,-31,-4,0,-3,-5,-5,-12,-64
1523208741824948,-12,-11,-1,6,3,1,10,8
1523208741824948,4,-1,-2,-8,-5,0,-3,7
1523208741825949,-12,-8,-1,-4,-2,-1,-5,-7
1523208741825949,21,27,2,5,3,2,1,24
1523208741848241,-29,-28,-1,-1,-3,-2,-1,-11
1523208741848241,-25,12,-3,5,3,0,-5,-9
1523208741849009,14,-2,-2,-5,-5,-2,0,15
1523208741849009,-6,-34,-6,-7,-4,-2,0,8
1523208741871068,-2,19,4,5,2,1,4,2
1523208741871068,15,8,-3,0,-1,-1,0,9
1523208741872072,-2,-3,1,0,1,-2,4,-7
1523208741872072,0,10,-2,2,1,1,6,0
1523208741885105,20,4,-2,-4,-3,-1,-17,33
1523208741885105,3,11,-1,-2,-2,-4,0,-25
1523208741886110,-72,-31,-2,3,0,1,6,-43
1523208741886110,-15,-9,0,-9,-7,-5,-7,-5
1523208741908168,77,12,-2,-3,-2,0,7,24
1523208741908168,-33,-20,-2,3,2,1,-1,-15
1523208741909170,13,23,4,2,2,3,0,-16
1523208741909170,-1,3,-1,5,2,4,8,9
1523208741931231,-3,14,0,-6,-2,-2,-11,-7
1523208741931231,-2,-23,-4,-2,0,3,7,12
1523208741932231,0,-3,0,3,1,-1,0,2
1523208741932231,9,25,1,-1,3,3,-4,1
1523208741945500,-9,-9,-4,-3,-1,0,0,-7
1523208741945500,-10,-8,-3,2,3,3,-7,4
1523208741946268,15,-2,-2,-5,-2,0,13,20
1523208741946268,19,1,1,2,4,5,-11,5
1523208741968331,38,6,-4,-3,-2,-4,24,28
1523208741968331,-85,-18,-2,-3,-5,-2,0,-44
1523208741969339,55,6,3,-3,-2,-4,-8,3
1523208741969339,-37,-3,2,1,-3,-2,4,9
1523208741991389,-28,3,0,-2,2,0,-1,42
1523208741991389,28,-9,-3,-6,-5,-7,-14,-29
1523208741991389,37,4,-6,-6,-6,-3,13,-1
1523208741991389,-27,-12,0,1,-3,-2,-6,8
1523208742005427,-62,-5,2,2,-1,-2,-7,-51
1523208742005427,40,11,0,4,-1,-1,-1,36
1523208742006427,-28,4,-1,2,-2,2,-2,-9
1523208742006427,33,-1,1,-6,-5,-6,-3,39
1523208742028486,-22,1,-1,2,-1,-1,13,-38
1523208742028486,13,20,2,-4,-1,2,8,20
1523208742029489,11,-15,-3,-2,-1,1,-9,-7
1523208742029489,58,-2,-3,0,-1,-3,-8,22
1523208742050781,-53,-7,-2,3,1,-1,-6,-14
1523208742050781,12,-7,2,1,-3,-4,-3,18
1523208742051548,-22,10,1,1,1,-2,-6,-47
1523208742051548,-2,1,1,-4,-3,-1,10,-31
1523208742065626,51,-1,1,-2,-2,-1,-11,33
1523208742065626,-69,-20,-3,1,0,-3,-4,-42
1523208742066589,-11,-12,-3,3,0,-1,-17,11
1523208742066589,-8,11,-3,-2,0,0,6,-13
1523208742088648,0,-1,0,-4,-4,-3,-1,-11
1523208742088648,22,5,0,-3,-1,1,4,25
1523208742089649,-2,5,0,-2,-2,-2,-6,-7
1523208742089649,-18,-6,-3,2,2,1,28,-9
1523208742110714,13,8,-2,-2,-2,-2,-11,-2
1523208742110714,10,12,1,-2,-1,1,2,14
1523208742111708,-14,-11,-1,-3,-3,-3,-1,6
1523208742111708,39,7,1,0,0,1,-2,15
1523208742125745,-23,-16,-5,-2,-2,0,6,-16
1523208742125745,-62,-11,4,-2,2,4,8,1
1523208742125745,12,27,0,-3,-3,-3,6,-13
1523208742125745,-17,3,-7,3,0,1,9,-6
1523208742149040,-5,-40,-2,-2,-4,-4,-11,0
1523208742149040,30,11,-2,-5,-1,0,5,11
1523208742149808,-32,-8,3,1,1,2,8,-17
1523208742149808,-15,-2,0,0,3,5,-8,-2
1523208742170866,28,13,1,5,8,3,-11,14
1523208742170866,9,18,0,-1,0,-1,0,-27
1523208742171868,-9,-10,-6,-6,0,-1,0,12
1523208742171868,-5,-12,-3,-1,1,-2,-14,-11
1523208742185909,1,-11,-1,1,2,4,-3,-4
1523208742185909,-23,-12,-4,2,1,1,-4,12
1523208742185909,10,18,3,-3,0,1,10,17
1523208742185909,-10,-3,-3,-1,-4,-4,-12,-25
1523208742209002,-3,3,-1,-5,-2,-3,9,-7
1523208742209002,24,10,2,-2,-2,-1,-1,4
1523208742209002,3,-12,-4,2,-2,-2,-6,25
1523208742209002,-44,14,2,2,-1,-4,-3,-10
1523208742231260,-4,-13,2,-9,-8,-6,6,-8
1523208742231260,14,-3,1,2,-1,-5,-14,8
1523208742232028,0,-13,-3,-1,-2,-4,-13,-31
1523208742232028,22,10,0,-8,-5,-2,0,5
1523208742246064,-18,-15,-4,0,1,-1,-16,-3
1523208742246064,16,-16,-1,-1,-2,-3,10,-19
1523208742246064,3,6,2,3,1,0,24,17
1523208742246064,-3,1,1,2,1,-1,-22,-12
1523208742268122,4,23,0,-8,-6,-5,20,-12
1523208742268122,9,1,-4,-3,-2,0,-4,7
1523208742269130,-6,-10,2,0,0,1,-1,10
1523208742269130,14,5,-5,-2,-2,-4,-19,-10
1523208742291185,4,-11,1,5,-1,-3,1,9
1523208742291185,-23,9,-3,0,-3,-4,-11,-64
1523208742292188,-23,0,-4,-3,-1,-1,1,13
1523208742292188,0,-32,-1,-4,-4,0,0,-5
1523208742306224,1,9,0,3,2,0,-16,-6
1523208742306224,0,-7,0,3,-1,-1,3,27
1523208742313243,24,22,0,-3,1,0,-13,-15
1523208742313243,6,-21,0,3,1,1,14,-13
1523208742328283,1,18,-2,2,2,2,-1,14
1523208742328283,19,22,1,-3,-2,2,8,12
1523208742329286,4,-16,-4,-8,-8,-9,-19,18
1523208742329286,-10,5,-2,4,4,1,18,-5
1523208742351344,10,-22,-1,3,1,3,2,9
1523208742351344,22,13,1,-1,-1,-2,-5,5
1523208742352349,-26,-9,-3,-1,-1,-1,2,-34
1523208742352349,-12,9,3,-3,-3,0,7,18
1523208742364615,2,11,0,-1,-1,0,1,-11
1523208742364615,-8,-21,-4,-1,1,3,-3,12
1523208742372402,3,15,-2,2,0,0,4,22
1523208742372402,6,-1,-1,0,2,1,4,6
1523208742388443,-21,-7,-2,-2,1,2,-8,-7
1523208742388443,4,-6,-4,-2,0,-1,-7,13
1523208742389446,-11,-15,2,-1,4,6,13,-1
1523208742389446,47,0,-2,-1,1,0,0,7
1523208742411504,-5,26,2,-1,0,-1,0,3
1523208742411504,-13,-13,0,-6,-3,0,-15,-5
1523208742411504,49,15,1,7,4,5,5,26
1523208742411504,-92,-7,-2,-5,-4,-4,-3,-75
1523208742424539,28,10,-1,-4,-4,-4,3,-4
1523208742424539,6,-2,0,-1,-4,-3,2,5
1523208742433588,18,-9,-2,-1,-2,-2,-4,-14
1523208742433588,4,12,-1,-1,-1,-1,1,82
1523208742448839,2,-15,-7,-2,-4,-5,-6,-23
1523208742448839,-28,7,5,2,-1,-2,-1,-11
1523208742449608,-6,-19,-6,-8,-9,-6,-1,-10
1523208742449608,2,-9,2,1,-2,-3,-6,13
1523208742470665,-3,16,0,-1,-2,-2,10,-6
1523208742470665,56,6,-4,1,0,0,14,65
1523208742471664,-56,-16,0,-2,-1,-5,-14,-39
1523208742471664,16,2,-2,1,0,-3,4,-7
1523208742484700,18,1,2,0,-1,4,4,22
1523208742484700,-65,-9,-3,-2,-4,-8,-18,-65
1523208742492761,2,-12,-4,-2,-1,0,3,5
1523208742492761,0,4,-2,1,-1,1,-3,48
1523208742508764,3,19,1,1,-1,-4,-4,-29
1523208742508764,1,-31,-2,-1,-3,1,7,21
1523208742509766,-3,20,1,-2,1,-2,-2,-8
1523208742509766,-3,-24,-3,-5,-6,-4,-9,10
1523208742531057,44,-16,-1,5,4,4,-2,20
1523208742531057,-60,36,2,-1,2,2,-13,-5
1523208742531822,59,-19,-3,-3,-4,-4,9,15
1523208742531822,12,17,-2,2,1,3,2,-24
1523208742545094,-2,-8,-1,-2,-3,-4,-4,10
1523208742545094,1,-15,-4,0,-1,1,5,-14
1523208742552884,-14,-8,2,1,2,1,-10,2
1523208742552884,-5,8,1,1,2,0,3,2
1523208742568930,-18,15,0,-5,-4,-3,-4,-13
1523208742568930,-7,-22,-4,-3,1,-1,0,-17
1523208742568930,-11,1,1,0,0,2,2,0
1523208742568930,26,3,0,-6,-5,-7,-7,-4
1523208742591025,-23,29,-1,3,2,-1,2,-2
1523208742591025,9,-34,-4,-6,-5,-5,-5,0
1523208742591984,-3,-3,-4,2,3,2,2,2
1523208742591984,-11,4,2,0,0,-1,-20,-27
1523208742605020,34,10,0,-1,2,2,18,32
1523208742605020,-27,-6,-2,-3,-2,-5,-11,-54
1523208742613041,4,7,-5,2,2,0,-5,5
1523208742613041,-6,-5,0,-5,1,4,4,-1
1523208742628080,-3,5,0,-5,-1,-1,-10,-5
1523208742628080,35,-2,-2,4,4,7,9,23
1523208742629083,-2,8,2,4,3,-1,-1,-3
1523208742629083,-21,8,-2,-12,-5,-3,1,-30
1523208742651140,-3,-16,-5,3,3,1,3,0
1523208742651140,-5,-8,3,-5,-2,3,23,12
1523208742652150,-7,20,0,0,-2,-2,-15,9
1523208742652150,14,-6,-2,2,-1,-1,15,6
1523208742665317,-36,-39,-1,-3,-4,-6,-11,-19
1523208742665317,28,13,-1,1,0,-3,-7,51
1523208742673201,-28,8,4,0,-4,-3,-1,-68
1523208742673201,16,-2,-6,-8,-8,-8,-11,6
1523208742688241,4,-3,2,0,-3,-5,-7,9
1523208742688241,-39,1,-2,2,0,-2,-6,-23
1523208742688241,16,7,-1,-4,-6,-6,17,26
1523208742688241,-15,-6,-3,8,3,3,-4,-3
1523208742711303,15,-5,2,-1,-2,-1,-16,11
1523208742711303,40,19,-3,-5,-3,-5,22,16
1523208742712492,-11,-11,1,0,-1,-2,-21,4
1523208742712492,-2,2,-1,0,-1,1,29,-3
1523208742733594,0,-17,-2,1,0,0,7,0
1523208742733594,14,20,3,-2,-4,-2,7,-12
1523208742734362,-8,-4,-3,-2,-2,-1,-30,-37
1523208742734362,9,-3,-2,3,0,-2,-2,13
1523208742748466,-7,4,-5,-7,-4,-1,-6,-2
1523208742748466,13,12,2,-1,-1,0,-3,9
1523208742748466,-23,-13,-6,-4,-2,-2,42,-8
1523208742748466,-2,-9,0,3,2,-1,-49,10
1523208742771461,-11,2,-3,-2,1,2,37,-23
1523208742771461,9,-13,-3,5,2,-4,-20,20
1523208742771461,22,-2,2,1,-1,0,-14,39
1523208742771461,-1,20,2,-1,0,1,-3,-4
1523208742793759,15,-5,-3,-1,-5,-3,-46,17
1523208742793759,-66,-5,-6,0,0,-6,69,-24
1523208742794523,18,-7,4,2,2,13,-47,17
1523208742794523,-16,-19,3,-3,-5,-5,-41,-22
1523208742807559,-17,-4,0,3,-1,1,-16,-8
1523208742807559,7,9,0,1,-1,-2,-49,-4
1523208742808559,21,1,-1,-8,-2,-4,19,46
1523208742808559,-23,6,-2,1,0,0,31,-34
1523208742831690,5,0,-1,-5,-1,-2,-5,5
1523208742831690,1,-1,0,-2,0,1,-5,6
1523208742831690,3,16,-3,1,-1,0,18,2
1523208742831690,63,-12,-1,2,4,5,-1,43
1523208742853679,-65,-7,-1,-1,2,-1,1,-30
1523208742853679,23,-2,0,4,7,10,-5,0
1523208742854681,-13,11,-1,-6,-2,-1,1,-18
1523208742854681,8,-11,-1,1,0,-2,-3,27
1523208742867720,6,26,-2,-1,-1,-1,8,-28
1523208742867720,-8,-12,2,-1,0,2,-2,-13
1523208742868727,-14,-24,-4,-3,-2,-8,-12,-1
1523208742868727,4,4,-2,-1,-1,-2,-2,13
1523208742890778,-12,-13,-2,-1,-1,-2,4,-17
1523208742890778,9,3,2,4,-1,0,-12,-1
1523208742892784,-2,22,1,-4,-5,-3,-12,-14
1523208742892784,5,-1,5,-2,-4,-3,11,10
1523208742914074,-13,-1,-3,-2,-2,-4,-24,-16
1523208742914074,36,-11,-3,-4,-4,-6,-3,-3
1523208742914074,-8,-20,-3,5,0,4,35,16
1523208742914074,-45,-2,-3,-3,-3,-1,21,-49
1523208742927876,14,19,0,-2,-2,-4,-25,48
1523208742927876,15,-6,0,0,-1,0,2,5
1523208742928879,-4,-3,1,-2,-4,-6,-21,-34
1523208742928879,-4,-34,-8,-2,-2,-1,18,13
1523208742950938,45,20,0,1,1,0,-10,10
1523208742950938,4,2,1,-3,-2,-2,-4,16
1523208742952944,7,-4,-4,0,-1,-3,6,9
1523208742952944,-4,13,4,1,-2,-1,-22,-3
1523208742974002,-8,-1,-1,0,-1,0,14,-16
1523208742974002,4,9,-1,-4,-2,-2,-3,2
1523208742975000,-8,-11,-5,1,-1,-2,4,3
1523208742975000,3,10,2,0,0,-1,-12,-8
1523208742987074,14,-29,-4,-3,-2,0,27,31
1523208742987074,-70,4,1,-5,-3,0,-15,-45
1523208742996091,11,16,1,3,-1,-5,-15,26
1523208742996091,-7,-3,-6,0,0,0,-1,-11
1523208743011137,14,1,4,2,1,2,13,13
1523208743011137,60,1,-3,-1,-1,1,-29,15
1523208743013103,-83,-15,-5,-3,-3,-3,9,-31
1523208743013103,-2,-16,2,1,1,-1,0,3
1523208743034158,-16,-13,-2,-1,0,-1,-2,-33
1523208743034158,25,22,3,-2,-1,1,6,12
1523208743036166,9,10,1,0,-1,0,-2,4
1523208743036166,23,-4,-2,-3,0,-2,7,17
1523208743047429,-33,-8,-1,-2,-1,1,11,-50
1523208743047429,-22,-3,-4,4,-2,-6,-11,-10
1523208743056217,12,3,-4,-7,-1,2,11,1
1523208743056217,-21,-19,-5,0,1,3,-4,-5
1523208743071259,3,8,1,0,0,0,-37,9
1523208743071259,1,-12,-3,-5,-2,3,54,5
1523208743072261,11,7,2,2,3,0,-11,-6
1523208743072261,7,19,-1,-4,-1,0,-4,-6
1523208743093551,1,-7,-2,2,1,1,6,4
1523208743093551,-5,-5,-1,-1,0,-2,-51,44
1523208743095322,-24,-26,-3,0,2,6,32,-67
1523208743095322,10,-2,-2,-1,-1,1,9,16
1523208743107354,-6,23,-3,-5,-5,-5,0,9
1523208743107354,1,-3,-1,-3,-4,-5,-14,7
1523208743116378,52,11,-1,1,1,-2,3,-21
1523208743116378,-41,11,-2,-2,-2,-4,-14,-13
1523208743131650,-7,-24,0,3,1,3,7,0
1523208743131650,7,13,-1,2,-3,-4,6,-4
1523208743132462,40,7,-1,-3,-4,-3,-22,27
1523208743132462,-55,-21,0,-3,-4,-3,7,-31
1523208743153478,8,19,0,1,-3,-4,7,25
1523208743153478,-13,-8,2,-2,-2,-1,3,-30
1523208743155481,0,5,5,2,-1,-1,0,24
1523208743155481,3,3,-5,1,-1,0,-5,-11
1523208743167519,-22,-8,1,1,-1,-5,-23,-31
1523208743167519,-1,-13,-6,-1,-1,2,26,34
1523208743176538,-6,-3,0,3,0,-3,-4,-9
1523208743176538,23,25,6,0,-3,0,2,13
1523208743190575,-8,-16,-8,-9,-6,-2,2,5
1523208743190575,5,-2,-1,2,1,0,5,7
1523208743192580,-8,-3,0,2,0,-1,-14,5
1523208743192580,27,7,0,3,3,1,16,29
1523208743213870,-10,8,-1,-3,-3,-5,2,-16
1523208743213870,-11,3,0,-2,-2,-4,-54,-13
1523208743215644,-27,-30,-4,2,3,5,62,-17
1523208743215644,1,-6,1,-4,-4,-2,-14,-9
1523208743227674,35,22,2,-2,-1,-3,5,33
1523208743227674,-54,-19,-4,-2,-1,-2,-2,-58
1523208743235703,18,-5,-1,-4,-2,-3,-31,29
1523208743235703,2,4,1,0,-1,0,20,-31
1523208743250733,-21,-13,-2,2,2,1,-3,-41
1523208743250733,64,15,2,0,1,1,15,5
1523208743252745,-23,14,-2,3,1,-2,-12,20
1523208743252745,-6,-18,-2,-11,-7,-3,-3,0
1523208743273798,6,-19,-3,-2,-1,-1,-2,19
1523208743273798,3,11,-2,3,2,3,11,-14
1523208743274797,4,6,-1,-1,-1,0,-11,2
1523208743274797,-2,2,-4,2,3,0,-8,3
1523208743286831,15,-29,-2,-1,1,3,9,6
1523208743286831,-6,30,1,-7,-1,0,-10,13
1523208743296042,-11,-11,-5,-7,-2,0,3,-4
1523208743296042,25,-13,-3,3,4,1,-10,4
1523208743310894,-54,21,4,1,2,1,7,1
1523208743310894,-10,-22,-1,1,2,2,0,-1
1523208743312900,13,-7,1,0,-1,-1,-6,8
1523208743312900,-6,21,1,-3,-2,0,-8,-25
1523208743333956,9,-18,-6,-2,-5,-5,-6,6
1523208743333956,-10,-5,-2,-4,-5,-3,11,-13
1523208743334960,-9,-2,2,3,1,2,5,-11
1523208743334960,20,25,0,0,-1,-1,0,11
1523208743347225,-2,-19,3,-3,-5,-5,-4,-1
1523208743347225,-19,-1,-6,1,-1,-2,-2,-6
1523208743356015,16,-16,-1,-2,-5,-4,-8,10
1523208743356015,20,20,-2,-2,1,2,5,8
1523208743371053,4,4,1,4,0,-1,5,1
1523208743371053,-3,-9,3,-6,-5,-4,2,-6
1523208743373061,42,5,0,-2,-3,-1,1,0
1523208743373061,-8,-19,-6,1,0,-3,-8,15
1523208743394163,-29,10,0,0,-2,-2,0,-41
1523208743394163,15,24,-4,-1,-1,1,2,36
1523208743395118,-11,7,-2,-3,-3,-3,-5,-16
1523208743395118,17,-23,-4,-10,-7,-5,1,-21
1523208743407150,21,7,1,6,6,3,3,27
1523208743407150,-1,-15,1,4,3,0,15,0
1523208743416174,-8,40,-1,-2,0,-1,-11,-2
1523208743416174,-4,2,-5,3,-1,-1,-2,17
1523208743431214,-3,-38,-3,0,-2,1,1,-2
1523208743431214,-9,9,1,-4,-3,0,-6,-18
1523208743432217,0,-12,1,-1,-3,-2,-6,25
1523208743432217,-23,0,2,1,-2,-3,10,-6
1523208743453276,11,-24,-3,1,2,1,14,10
1523208743453276,4,5,0,6,3,0,-18,-8
1523208743455277,-9,4,-5,-11,-7,-1,6,-7
1523208743455277,-10,-2,1,4,1,2,-3,-1
1523208743467316,9,13,-2,-4,-2,-4,-6,13
1523208743467316,14,-12,-2,-1,-1,1,-14,-28
1523208743476334,-76,1,-2,-1,-1,-5,-4,-30
1523208743476334,5,1,1,0,-1,0,-4,8
1523208743491375,17,38,-1,-1,-1,0,-4,14
1523208743491375,-9,-39,-4,-4,-4,-6,-4,7
1523208743492377,-31,-1,0,-1,1,1,-7,-4
1523208743492377,-9,-7,0,1,2,-1,-7,-14
1523208743513668,9,-8,2,-2,-2,0,-6,7
1523208743513668,-22,21,-1,-2,0,0,6,11
1523208743515438,19,-11,-1,2,2,4,24,-38
1523208743515438,3,-2,-1,2,2,1,3,28
1523208743527469,-10,8,-3,-4,-1,2,-13,-7
1523208743527469,15,-4,-1,0,0,-1,5,-3
1523208743536493,21,2,0,3,5,4,1,31
1523208743536493,-6,-6,-1,0,-3,-3,-8,-22
1523208743551538,15,-3,0,-2,1,1,1,-8
1523208743551538,-10,21,2,-2,-3,0,7,0
1523208743553540,16,-11,-2,3,1,-3,-16,29
1523208743553540,2,-21,-5,-12,-7,-5,19,1
1523208743573592,11,17,0,1,-2,-2,-8,14
1523208743573592,-14,-33,-1,2,0,-4,-2,-15
1523208743575599,0,39,5,1,-3,-2,-8,-5
1523208743575599,8,3,0,-3,-3,-1,-4,-11
1523208743587630,-25,-32,-2,-4,-3,-4,12,-25
1523208743587630,16,25,-5,1,-1,-1,-2,4
1523208743595886,4,-11,1,1,-1,-2,-6,-3
1523208743595886,-11,15,1,-1,-2,-4,-12,-2
1523208743610693,1,8,0,1,1,3,18,17
1523208743610693,21,19,-2,-2,-4,-5,-5,24
1523208743612695,-12,-51,-7,-2,-3,-3,-1,-18
1523208743612695,-16,7,3,2,2,-1,-4,3
1523208743633752,14,-8,-7,-7,-5,-3,4,6
1523208743633752,8,2,-1,1,2,-1,2,7
1523208743634761,7,0,1,-4,-1,-1,-23,-11
1523208743634761,13,7,-5,-6,-5,-4,4,28
1523208743647837,-31,-8,2,1,0,-3,1,-36
1523208743647837,-10,-15,0,-1,-2,1,7,-10
1523208743655811,18,-8,-2,3,2,0,-9,38
1523208743655811,-32,6,3,2,0,2,-11,-40
1523208743670850,-4,3,-1,-3,-4,-4,-16,-15
1523208743670850,-3,22,1,2,1,0,9,-17
1523208743672855,-28,-46,-5,-4,-2,-5,-1,-24
1523208743672855,7,-1,-1,2,1,0,2,16
1523208743694151,16,11,3,-2,-1,0,-6,13
1523208743694151,6,10,1,-3,0,0,-5,-11
1523208743694914,9,26,2,2,-2,1,10,-3
1523208743694914,7,-40,-4,0,1,1,-5,20
1523208743715970,-14,25,2,1,-1,0,1,-39
1523208743715970,5,-14,-4,2,2,1,-5,2
1523208743717975,-15,10,-1,-4,-5,-2,8,-12
1523208743717975,5,-9,3,-4,-6,-3,-4,1
1523208743731011,-3,-39,-6,4,2,1,-5,-21
1523208743731011,-2,1,4,-5,-3,-2,-17,5
1523208743733015,38,35,-1,-2,1,2,17,39
1523208743733015,-16,-2,1,2,1,-3,-2,-33
1523208743753113,-2,0,-1,-1,2,-1,-13,20
1523208743753113,-4,-24,-4,-2,2,3,-11,-4
1523208743755073,-17,9,2,0,0,1,-1,-14
1523208743755073,-8,-50,-10,-2,1,2,7,11
1523208743776130,-1,17,5,6,3,7,-3,4
1523208743776130,5,-10,3,-4,0,1,2,-15
1523208743777134,15,21,1,-4,-1,2,3,24
1523208743777134,8,26,4,2,2,-1,-2,1
1523208743791171,-12,-10,-7,-14,-9,-6,5,-11
1523208743791171,0,-15,2,2,0,-1,-9,9
1523208743792173,-3,-5,-6,-1,-2,-3,28,-6
1523208743792173,14,17,2,1,-1,-2,-9,25
1523208743814230,-19,21,4,0,-1,-3,-2,-51
1523208743814230,-14,-29,-3,-3,-5,-5,-10,-5
1523208743815235,41,-7,-2,-4,-3,-6,-14,-5
1523208743815235,-73,18,-4,3,-2,-3,-5,-7
1523208743836290,33,-7,0,0,-3,-4,6,63
1523208743836290,-38,-1,1,-1,-3,-5,-3,-22
1523208743837293,19,-7,-1,2,-1,-1,-22,-17
1523208743837293,18,-3,-3,2,1,1,30,6
1523208743850329,9,19,-3,-1,-3,-2,-3,-13
1523208743850329,-19,-14,-3,-3,-4,-4,14,1
1523208743857346,4,-13,-1,-3,-3,-1,0,5
1523208743857346,-28,-2,1,0,2,1,-4,-3
1523208743873392,2,0,0,0,-1,0,-8,23
1523208743873392,7,6,-6,8,2,-2,7,-18
1523208743875395,-36,37,5,2,-2,-1,21,-1
1523208743875395,22,-39,2,0,-3,1,-2,20
1523208743896631,-7,-3,-20,1,5,0,0,-13
1523208743896631,5,19,19,-5,-6,-3,-2,24
1523208743897451,20,-37,-6,-2,5,4,-9,29
1523208743897451,-29,18,16,9,-4,-5,-11,-70
1523208743909484,18,-22,-15,-15,-3,1,7,18
1523208743909484,-37,10,3,3,-5,-2,-5,-3
1523208743918511,-16,12,-11,-5,7,-1,-7,-4
1523208743918511,25,-22,-19,-4,-1,0,9,8
1523208743933550,4,10,15,9,4,4,0,-18
1523208743933550,24,10,16,17,1,1,4,21
1523208743935553,-17,-9,3,-24,-12,-5,-11,6
1523208743935553,-32,-35,-81,-29,-11,-11,-21,-68
1523208743955607,26,22,5,4,2,-1,26,2
1523208743955607,28,-5,-9,-6,2,1,-6,20
1523208743957612,-4,15,39,16,-1,1,5,-17
1523208743957612,41,0,3,-3,4,5,-1,43
1523208743970655,-48,-19,1,-2,-5,-4,0,-47
1523208743970655,2,0,-16,4,4,5,2,-1
1523208743976669,-8,15,-13,-10,-3,2,-2,0
1523208743976669,15,19,14,-4,2,2,1,1
1523208743993943,-10,2,-6,6,4,2,-9,11
1523208743993943,-1,-25,0,-2,3,0,-3,5
1523208743995720,-8,-2,22,11,0,-1,-1,-30
1523208743995720,38,-12,-12,0,-6,-5,2,26
1523208744015767,-26,32,-1,-15,-3,1,-2,34
1523208744015767,9,-25,7,-1,1,-5,0,-36
1523208744017778,14,-10,-13,1,0,-1,-1,5
1523208744017778,-3,22,31,9,0,3,4,-6
1523208744030813,47,-13,11,0,-7,-4,-1,35
1523208744030813,-23,21,-9,-13,-3,1,5,-9
1523208744036823,-41,-24,-19,2,-1,-6,-11,-17
1523208744036823,34,33,27,8,-1,-7,-17,19
1523208744053870,-27,-2,-10,-1,-4,0,23,-17
1523208744053870,20,5,-8,-8,-7,-1,5,6
1523208744054870,-9,-28,-6,2,0,-2,-9,-19
1523208744054870,-17,31,9,7,3,-1,0,-4
1523208744075928,-2,-27,-6,-9,-4,-7,-12,-9
1523208744075928,-11,-4,4,-7,-4,-2,3,1
1523208744077932,26,11,10,11,1,0,2,6
1523208744077932,-56,-10,10,13,3,3,-10,-1
1523208744090200,-7,31,-29,-10,-4,-1,7,-7
1523208744090200,9,-35,9,3,-1,-3,3,5
1523208744097218,4,-7,6,-2,-1,0,-2,9
1523208744097218,23,4,5,4,1,2,4,2
1523208744114162,9,1,34,18,4,0,-4,6
1523208744114162,-14,30,-4,-3,-4,-2,-5,-2
1523208744115030,-1,-23,-37,-9,-4,-1,-1,16
1523208744115030,17,-19,3,22,-1,1,3,-16
1523208744136090,-60,-14,10,4,3,-1,-11,-20
1523208744136090,20,22,43,-7,7,2,1,6
1523208744138092,12,20,-94,-20,-4,-4,-3,10
1523208744138092,-15,17,35,4,-6,-4,5,-5
1523208744150125,26,-87,-30,0,-1,-2,-5,39
1523208744150125,-16,-7,-61,-29,-2,1,-4,-27
1523208744157182,-12,26,49,14,-2,2,-5,-5
1523208744157182,8,-6,-23,-15,0,-2,-6,-1
1523208744173187,9,6,22,22,3,-1,3,-2
1523208744173187,17,-17,1,-6,-4,-2,11,3
1523208744175191,-69,-4,6,-4,0,1,7,-9
1523208744175191,1,25,-12,-6,-2,0,-3,3
1523208744196482,20,-17,6,-3,1,-1,-9,5
1523208744196482,-28,10,-8,-9,-5,-4,-7,-22
1523208744197271,17,-15,-53,-15,-5,-2,1,-8
1523208744197271,1,-24,9,-4,4,4,5,5
1523208744209281,-10,24,25,17,10,7,5,-3
1523208744209281,9,35,-16,1,-2,4,2,4
1523208744218306,11,-46,-41,-26,-10,-8,-7,5
1523208744218306,5,-3,18,2,2,-2,2,11
1523208744233347,21,35,-11,-15,0,3,-2,-3
1523208744233347,31,-8,46,39,0,-1,-24,-23
1523208744235354,-21,8,38,1,14,9,17,2
1523208744235354,-4,2,-60,-75,-29,-10,-10,6
1523208744256446,23,47,20,13,5,2,16,23
1523208744256446,-67,-54,-14,7,-1,-6,-7,-18
1523208744257409,31,17,59,37,4,1,-9,8
1523208744257409,-6,-17,-15,10,6,-1,-1,-14
1523208744269442,11,-40,-100,-67,-24,-8,1,21
1523208744269442,9,45,29,11,-1,1,1,26
1523208744278465,9,30,5,-3,1,-2,5,-13
1523208744278465,-31,-55,20,13,5,1,13,-13
1523208744293740,-2,5,16,6,-2,-6,-12,-12
1523208744293740,5,-8,46,60,7,1,7,20
1523208744295510,8,15,-25,-31,-10,-3,0,6
1523208744295510,6,12,-32,-64,-23,-13,-17,-6
1523208744315566,-17,-13,61,50,11,2,0,-6
1523208744315566,37,25,4,1,3,-1,3,7
1523208744317572,-6,-45,59,45,3,-5,-10,-2
1523208744317572,-45,-2,1,14,7,1,9,8
1523208744329601,5,23,-15,-13,-5,1,0,-14
1523208744329601,10,-13,-24,-58,-16,3,-1,24
1523208744338626,15,30,33,30,10,2,5,2
1523208744338626,28,1,-20,-3,2,4,-1,-20
1523208744353665,6,-9,-2,4,-4,-10,7,37
1523208744353665,-13,5,-9,5,6,-4,-12,-14
1523208744354669,5,-13,26,3,-3,2,12,5
1523208744354669,12,35,24,28,7,5,5,-10
1523208744375724,-6,7,33,1,1,1,-5,-11
1523208744375724,-17,-37,-13,-6,-2,-3,1,2
1523208744377729,-3,-31,-34,-21,-8,-4,-5,2
1523208744377729,14,34,59,55,11,4,-2,26
1523208744389760,-17,-5,-52,-17,-5,-1,-14,-34
1523208744389760,10,13,23,-10,-3,-2,-7,8
1523208744398784,-27,-18,-74,-42,-2,2,12,-18
1523208744398784,-60,9,-5,31,-2,-3,7,23
1523208744414060,0,-5,-15,-43,-7,-5,-13,-3
1523208744414060,-1,-61,-34,-14,-2,-5,5,-13
1523208744414827,21,70,51,32,11,4,-10,5
1523208744414827,12,-32,-13,-10,-2,1,-3,-17
1523208744435883,-9,16,15,24,3,4,-18,-4
1523208744435883,-8,-5,9,3,15,4,28,11
1523208744437890,-2,-14,55,2,-2,0,11,3
1523208744437890,5,1,10,0,-6,6,-6,-5
1523208744449922,4,-1,-46,-22,5,4,0,-8
1523208744449922,11,0,24,11,-7,-5,-13,8
1523208744458947,14,20,32,53,3,-1,4,21
1523208744458947,9,13,71,49,10,-2,10,-2
1523208744473984,-21,-32,-66,-86,-18,-8,-12,-26
1523208744473984,-2,4,-34,-9,-6,-3,0,-1
1523208744474987,0,-22,-9,-4,0,-7,-22,4
1523208744474987,-6,14,39,27,2,-1,-8,-5
1523208744496278,33,9,45,32,-1,-4,-9,-5
1523208744496278,-6,9,-17,-5,1,0,5,25
1523208744498055,-23,-8,0,-2,-9,-3,-10,-56
1523208744498055,11,-14,-64,-58,-10,-5,-20,-2
1523208744510081,0,-8,33,26,3,-2,1,-8
1523208744510081,1,-27,-23,-8,-4,1,-4,-8
1523208744519107,52,41,13,1,1,-3,-17,12
1523208744519107,-17,-10,-35,-26,-2,-1,-20,14
1523208744533143,-22,-8,10,23,-3,-1,33,-32
1523208744533143,-15,13,35,3,-8,-2,-3,-8
1523208744535150,5,-14,-24,-11,-5,-2,-4,2
1523208744535150,6,7,-33,-33,1,0,5,-10
1523208744555201,7,47,38,29,0,-5,-3,22
1523208744555201,-19,-16,-5,-4,7,2,2,-19
1523208744564252,-17,-50,-103,-68,-14,1,0,2
1523208744564252,13,32,22,6,6,4,12,0
1523208744569241,21,-32,23,24,6,3,3,34
1523208744569241,-8,31,-41,-4,1,1,-8,-22
1523208744586285,-38,13,25,12,1,-3,15,-29
1523208744586285,49,-32,-5,-1,-6,-5,2,-22
1523208744593507,12,5,2,-1,1,1,-2,24
1523208744593507,-6,26,26,24,0,-3,-9,5
1523208744599316,1,-16,-9,-31,-4,0,6,18
1523208744599316,24,4,11,-8,-1,2,19,-4
1523208744616365,-11,-6,-53,-51,-5,-3,7,-7
1523208744616365,9,15,14,24,-5,-3,6,7
1523208744617370,-34,-49,27,5,-1,-3,-10,-11
1523208744617370,14,-4,29,22,5,4,19,-3
1523208744638421,3,8,10,-6,-2,2,-6,0
1523208744638421,-7,12,-10,-3,0,3,1,5
1523208744640428,24,23,8,5,8,4,-10,4
1523208744640428,-39,-37,-106,-56,-20,-6,-10,2
1523208744653461,0,-18,81,28,11,2,-3,21
1523208744653461,5,23,-57,-58,-8,-5,16,-32
1523208744655469,-49,5,42,42,2,0,-20,-27
1523208744655469,10,-2,16,13,2,3,43,33
1523208744675520,-25,-13,-7,1,7,3,-35,-50
1523208744675520,15,-2,20,11,0,3,22,26
1523208744677525,24,20,-13,-2,0,-1,0,17
1523208744677525,-15,1,5,-12,-7,-6,1,6
1523208744698816,-6,0,-18,0,-9,-5,-6,39
1523208744698816,1,-19,12,2,3,2,11,-41
1523208744700593,4,9,-18,-15,-3,-1,2,5
1523208744700593,6,-1,39,27,3,-4,-27,6
1523208744713856,1,1,-69,-30,-7,-2,-23,-13
1523208744713856,-13,-25,-2,-1,-3,0,51,17
1523208744714624,1,6,13,0,0,0,16,45
1523208744714624,-15,-1,24,13,-1,-7,-22,-76
1523208744735681,15,1,4,10,0,2,13,16
1523208744735681,-8,-7,-15,-18,-5,-2,-47,-18
1523208744737690,7,3,-1,4,-4,-10,-11,-12
1523208744737690,-8,0,15,21,5,3,21,37
1523208744758742,4,22,-1,-18,-7,-4,0,2
1523208744758742,-15,-17,48,14,1,-3,-20,12
1523208744759745,28,-14,29,19,0,-3,1,8
1523208744759745,-1,-3,-10,-7,-3,-2,-20,-11
1523208744772779,-16,-16,-10,3,6,1,14,-6
1523208744772779,27,23,10,9,1,0,-12,14
1523208744779797,-8,12,-41,-20,-3,2,4,-8
1523208744779797,-7,-10,7,1,0,-5,-6,4
1523208744796075,-8,6,-12,-8,-5,-2,1,-24
1523208744796075,5,-6,-3,-11,-4,-4,-8,5
1523208744797845,-12,-22,-6,2,2,-1,-14,-9
1523208744797845,-2,-12,-28,-18,-3,2,9,8
1523208744818945,-3,7,19,18,3,0,-1,15
1523208744818945,6,8,-1,1,1,0,-4,-19
1523208744819903,3,11,-2,-7,-7,-2,8,9
1523208744819903,13,10,13,6,0,0,-8,6
1523208744832944,22,-6,16,17,0,0,3,-6
1523208744832944,-60,-1,-4,-11,2,4,-4,25
1523208744839997,6,-9,16,-1,-2,2,2,-12
1523208744839997,-1,2,-5,-1,2,-2,-4,-14
1523208744856003,-16,-1,-2,-1,-4,0,2,-3
1523208744856003,27,4,8,10,1,1,1,11
1523208744862016,-5,-6,-2,-3,2,2,-1,-15
1523208744862016,-9,-4,-8,-9,3,3,-8,10
1523208744878059,-2,-1,-24,-3,-4,-2,-9,-11
1523208744878059,4,-6,-9,-1,0,-1,-4,-8
1523208744880065,-3,-1,-5,-2,0,-1,2,7
1523208744880065,-1,4,4,5,3,0,3,-11
1523208744893334,8,-8,7,-3,2,4,5,22
1523208744893334,-25,-3,-11,-8,-5,-1,9,-66
1523208744900119,27,13,-10,0,-1,0,9,10
1523208744900119,15,0,0,0,-2,-3,-13,42
1523208744916165,-3,-12,8,-3,-4,-5,1,-17
1523208744916165,-17,-12,-13,-3,-3,-7,-23,-2
1523208744917165,35,1,12,3,1,5,-2,23
1523208744917165,-24,-4,-9,-6,-4,-5,10,-41
1523208744939219,-5,9,6,2,-2,-1,3,1
1523208744939219,17,-8,2,6,-4,-6,-7,20
1523208744940223,4,-5,-6,-8,-2,-2,-4,-11
1523208744940223,2,12,-11,-3,-2,1,-3,22
1523208744953259,-3,-6,4,5,1,-2,-1,-1
1523208744953259,18,0,3,1,0,2,5,0
1523208744959275,-14,4,-2,0,-2,-4,2,-4
1523208744959275,-2,16,-3,-6,-6,0,-1,-4
1523208744976322,-21,-43,3,-1,3,-2,4,7
1523208744976322,-1,-10,-5,-5,-3,-4,-3,-13
1523208744977322,-11,-3,-4,-2,1,2,-10,13
1523208744977322,-16,7,2,-1,-2,-7,3,-47
1523208744998613,6,5,-3,-2,-4,-4,-4,26
1523208744998613,31,16,3,4,0,3,10,28
1523208745000389,-27,-13,-5,-4,-1,-5,-25,-37
1523208745000389,16,-5,-16,-9,-2,1,2,5
1523208745013518,1,12,19,12,-1,-2,6,-7
1523208745013518,25,24,4,4,2,1,-5,24
1523208745019474,-23,-15,-11,-18,-5,0,5,-14
1523208745019474,-8,-56,-39,-4,0,0,-23,0
1523208745036479,16,2,-23,-7,-1,-2,17,-7
1523208745036479,-48,-8,18,-1,-3,-3,-6,1
1523208745037482,11,32,-7,6,0,-2,9,6
1523208745037482,-7,7,11,0,1,-2,-13,6
1523208745058538,-2,-13,0,1,1,-1,15,-5
1523208745058538,7,-6,1,0,-4,-1,-2,-3
1523208745060543,-16,2,-3,0,3,2,-6,-14
1523208745060543,10,-15,5,-1,5,1,-1,30
1523208745072574,3,20,7,3,0,0,-19,-14
1523208745072574,-18,8,-8,0,3,1,9,-30
1523208745079595,4,-21,1,-3,-2,-3,-22,-38
1523208745079595,-12,15,4,2,0,0,7,16
1523208745096677,-12,-3,4,-5,-1,1,-12,-4
1523208745096677,-7,1,-7,-5,0,2,5,-6
1523208745097642,22,20,0,0,-1,3,-5,24
1523208745097642,-2,-4,8,5,2,-1,29,-27
1523208745118740,0,-16,-2,-4,0,-1,-17,-6
1523208745118740,15,15,-4,-2,-1,1,-4,49
1523208745119701,-11,11,5,8,0,1,37,-8
1523208745119701,5,-23,1,-8,-7,-2,-5,10
1523208745132738,-17,-6,1,-8,-5,-1,3,-5
1523208745132738,19,-16,-3,6,2,-1,-4,29
1523208745140987,0,5,3,3,-3,-4,8,-8
1523208745140987,-3,26,7,4,0,0,-10,-11
1523208745155835,16,8,2,-8,-7,-4,7,16
1523208745155835,2,-15,-5,1,1,-1,3,6
1523208745157804,-16,-1,5,-3,-2,-4,0,-4
1523208745157804,6,38,5,3,0,1,-6,-12
1523208745178858,-4,-45,-26,-3,-1,-1,-10,2
1523208745178858,69,15,2,-2,-1,0,4,-7
1523208745179864,-66,-46,-7,-5,-6,-6,-10,9
1523208745179864,19,6,2,-1,1,1,1,11
1523208745191891,14,20,9,3,-2,-1,-4,20
1523208745191891,-21,13,-6,1,0,-1,10,-14
1523208745200920,20,0,-1,-1,0,-2,-3,7
1523208745200920,-8,5,-1,-5,-3,-3,-5,-11
1523208745215963,3,1,2,-2,1,3,10,5
1523208745215963,-12,-7,-6,-3,-2,-3,-7,-2
1523208745217962,8,1,0,3,-1,1,0,2
1523208745217962,-10,-7,2,-2,-3,-1,2,5
1523208745239057,-12,5,3,6,1,0,-4,-29
1523208745239057,-2,4,1,-3,-1,-2,-17,-8
1523208745240020,1,-24,-4,-7,-3,-3,12,5
1523208745240020,-3,2,-7,-4,-5,-3,6,-31
1523208745252052,14,8,1,0,1,0,-8,-7
1523208745252052,7,-4,1,6,0,0,-5,44
1523208745261076,-7,19,-3,1,3,3,15,-26
1523208745261076,-9,-5,-3,-5,-2,-3,-6,0
1523208745276351,1,-11,2,-3,-2,-2,1,-26
1523208745276351,-21,-18,-1,4,1,-1,2,-3
1523208745278120,17,-7,-2,-4,-14,-8,-9,10
1523208745278120,-4,15,-2,-11,-9,-13,-9,2
1523208745298409,-13,-16,4,11,-11,-11,6,-7
1523208745298409,6,-22,2,4,42,34,8,-1
1523208745300183,-9,24,-4,4,23,22,2,4
1523208745300183,7,-23,-1,1,-2,6,-2,4
1523208745312212,-17,22,-5,-9,-12,-9,-8,-22
1523208745312212,-12,-21,-2,-10,-25,-20,-10,-15
1523208745321237,11,14,-3,-1,-7,-6,-2,3
1523208745321237,-16,-26,6,1,3,2,2,0
1523208745336277,52,-9,-6,-12,-1,-6,-8,36
1523208745336277,-28,-30,-7,-9,-27,-20,-11,-31
1523208745337278,42,23,20,14,12,15,4,1
1523208745337278,-44,22,-27,-1,32,15,8,30
1523208745358334,4,17,8,9,1,0,3,12
1523208745358334,-6,-26,4,-8,-19,-9,-10,-27
1523208745360340,4,26,8,19,11,-10,-11,14
1523208745360340,30,-6,-17,-21,-14,-12,-9,0
1523208745372372,-9,-64,6,3,2,9,2,13
1523208745372372,-14,60,-2,-3,-9,-5,19,-4
1523208745381396,-10,-52,1,5,9,3,-10,-20
1523208745381396,8,39,14,12,18,9,1,-15
1523208745396660,-12,11,1,-5,-10,-7,5,-2
1523208745396660,-3,-14,-24,-18,-24,-9,-9,-11
1523208745397437,63,-7,13,-1,7,-1,6,23
1523208745397437,-57,-19,-10,9,-7,-9,1,6
1523208745418500,-33,58,-8,-29,-3,-9,-14,-55
1523208745418500,-2,-35,23,15,-1,1,2,12
1523208745420500,-1,-26,-11,-14,-10,-8,-19,3
1523208745420500,44,26,25,12,1,4,40,16
1523208745432532,-31,-13,24,33,5,14,5,-25
1523208745432532,11,38,-65,-31,28,11,6,2
1523208745441556,0,-15,12,0,-14,-4,-1,4
1523208745441556,16,4,7,-1,-20,-14,-16,-7
1523208745455592,-22,-15,19,9,-10,-9,-7,2
1523208745455592,10,10,7,12,18,8,7,7
1523208745457599,-36,-5,-18,-11,4,4,4,-11
1523208745457599,22,-43,-10,-4,-15,-6,-10,4
1523208745478654,25,22,-18,-8,-2,3,14,19
1523208745478654,21,16,14,0,8,-13,-6,17
1523208745479657,3,14,-15,-15,-46,-6,-4,-25
1523208745479657,-4,3,41,24,62,34,16,0
1523208745492834,-58,-7,-28,6,13,8,2,31
1523208745492834,4,-4,7,6,-7,-11,-21,-8
1523208745500716,-24,-18,-22,-21,-24,-15,12,-10
1523208745500716,1,-9,1,-3,-25,-14,-13,-54
1523208745515762,30,6,-6,-13,8,5,-4,2
1523208745515762,-7,14,14,14,11,6,-1,6
1523208745517758,-10,14,-3,-8,-11,-14,-11,17
1523208745517758,-14,-14,-12,-3,-19,0,4,-6
1523208745538813,8,-10,-4,7,47,21,7,4
1523208745538813,4,7,6,-6,-1,7,2,-9
1523208745539816,5,-1,-2,-3,0,0,-8,5
1523208745539816,10,27,7,6,-1,-2,3,5
1523208745560873,8,10,3,-7,-16,-7,-8,-7
1523208745560873,14,-10,-8,-4,-1,-2,9,12
1523208745562883,-37,-13,6,-8,-8,-11,-1,14
1523208745562883,17,-2,2,-9,-9,-20,-13,29
1523208745575914,29,7,4,3,-40,-3,-2,-18
1523208745575914,-43,-34,4,19,70,24,12,-31
1523208745577919,38,52,29,13,15,23,7,-9
1523208745577919,-5,-13,0,-5,-8,-5,-23,2
1523208745598974,-13,-16,-39,-27,-17,-18,4,-11
1523208745598974,20,-27,11,0,-39,-28,-21,34
1523208745599980,0,3,-10,-11,-31,-5,31,-17
1523208745599980,-12,3,27,18,38,9,1,-4
1523208745621033,29,42,8,15,19,18,-20,9
1523208745621033,25,-8,0,-3,7,13,13,0
1523208745623038,-69,-43,-36,-8,3,-7,-7,2
1523208745623038,9,-2,-23,-19,-26,-12,-4,3
1523208745636073,-9,-6,2,2,-4,-8,-7,3
1523208745636073,-15,16,8,-3,-14,-16,-13,-53
1523208745638079,15,10,9,-3,-18,2,-9,2
1523208745638079,12,-1,7,17,11,6,14,17
1523208745658169,-10,-3,-68,-39,31,13,10,-6
1523208745658169,-17,-3,29,22,8,16,2,-10
1523208745660137,26,21,8,-2,7,-9,-15,17
1523208745660137,-32,-4,-12,-12,-26,-11,-5,-29
1523208745681193,7,-13,20,7,-17,-21,-4,9
1523208745681193,0,3,-2,-3,-35,-19,4,8
1523208745682196,-12,0,-19,-10,36,27,14,-5
1523208745682196,13,-28,-9,11,20,19,-4,15
1523208745695465,-13,13,34,13,9,7,19,-11
1523208745695465,30,-3,-29,-21,-26,-15,-9,10
1523208745702249,4,5,27,18,1,-11,-15,17
1523208745702249,-18,10,-7,-11,-10,-2,-1,-22
1523208745718290,2,-12,-3,-7,-4,-4,18,16
1523208745718290,1,7,-2,-1,-6,0,0,17
1523208745720297,18,-7,-5,-1,6,1,1,-26
1523208745720297,-8,-2,-13,-8,0,-2,-30,-4
1523208745741352,-4,-45,1,1,-8,-3,-8,-15
1523208745741352,-13,24,6,6,8,9,5,19
1523208745742355,-18,27,1,2,7,0,-2,-12
1523208745742355,-8,-35,-5,-10,-4,-2,-19,23
1523208745755390,-7,-3,14,7,0,3,17,-20
1523208745755390,0,-3,1,-1,5,5,-3,5
1523208745762408,-1,-8,-5,5,9,3,19,6
1523208745762408,-2,10,1,-3,-9,-4,1,-17
1523208745778450,-22,2,3,3,-1,-2,-17,52
1523208745778450,-11,-1,-9,-15,-1,1,5,-49
1523208745780496,-3,3,0,2,-3,-7,-29,2
1523208745780496,21,-2,15,9,1,3,37,31
1523208745800513,20,-3,-12,-8,-3,-5,-14,-5
1523208745800513,-18,-1,15,12,-2,-3,-1,5
1523208745802515,-13,7,7,3,1,-2,-3,-11
1523208745802515,13,-5,-7,-3,-3,0,-20,14
1523208745815555,8,-2,10,-1,1,-4,-22,14
1523208745815555,-18,-3,-14,-12,-8,-5,32,-9
1523208745822567,17,4,1,5,-1,-2,-4,7
1523208745822567,-9,13,-2,-3,0,-1,-2,-28
1523208745838694,-16,-9,-3,3,-2,-1,-4,-14
1523208745838694,8,-11,0,-2,-1,1,-1,0
1523208745839613,-3,-16,-3,0,0,-2,-10,6
1523208745839613,2,29,-7,-9,-5,2,36,-6
1523208745860671,13,13,2,0,-2,-1,7,51
1523208745860671,-6,-21,-3,1,2,1,-11,-68
1523208745862674,-57,-15,-7,1,1,-2,7,-13
1523208745862674,-30,6,-2,-8,-6,-9,-20,2
1523208745875750,19,-2,6,2,-2,0,-7,8
1523208745875750,-24,0,-5,-2,0,-5,-14,-18
1523208745881724,28,-1,-5,1,-2,1,18,10
1523208745881724,15,-3,1,-1,-2,-3,-12,-20
1523208745898772,-26,-2,5,0,-2,-2,2,-8
1523208745898772,0,-4,-8,-5,-1,5,26,34
1523208745899776,13,-4,1,-1,-4,-1,4,-18
1523208745899776,-19,-23,-2,2,1,-2,-6,4
1523208745920829,12,17,2,1,2,2,4,-28
1523208745920829,3,6,2,-2,-1,0,-27,11
1523208745922835,27,29,-1,1,1,-5,12,-10
1523208745922835,-37,-25,-3,1,2,2,28,12
1523208745934872,-3,2,-3,-4,-6,-4,-11,-11
1523208745934872,-10,-9,-3,-4,-3,-6,0,2
1523208745941886,-12,-9,1,-7,-4,-2,-22,-36
1523208745941886,64,8,-1,3,2,2,-8,6
1523208745958931,-95,1,2,1,1,-1,6,-13
1523208745958931,17,13,-4,0,-1,-2,-18,19
1523208745959933,12,5,0,-1,2,5,4,6
1523208745959933,-8,-5,-2,-1,0,-4,-11,-13
1523208745980988,23,-12,-1,3,1,2,-4,-2
1523208745980988,15,18,0,-1,2,5,13,16
1523208745983001,-35,-27,-1,10,6,6,0,0
1523208745983001,9,8,-5,-19,-11,-3,-13,10
1523208745996056,33,3,-1,-3,-2,-2,24,21
1523208745996056,3,7,2,0,0,-1,5,2
1523208746002046,7,15,-2,2,0,0,-3,7
1523208746002046,0,-29,-2,4,1,1,0,5
1523208746018088,5,3,0,3,-2,0,3,-14
1523208746018088,30,6,-6,-8,-6,0,13,-1
1523208746020093,-65,-36,2,-2,-3,-3,3,37
1523208746020093,3,30,-4,0,-3,-5,0,-9
1523208746041149,-5,-27,-3,-3,-3,-3,4,-19
1523208746041149,0,-5,-2,4,2,1,-5,3
1523208746042151,13,-12,3,2,-1,-1,-2,4
1523208746042151,-3,11,2,-2,-4,-2,4,-5
1523208746055189,4,4,1,-2,-2,-3,-4,0
1523208746055189,-15,-1,-2,-1,0,0,-8,-1
1523208746063446,29,-3,-4,-3,-5,-5,-12,24
1523208746063446,-7,1,0,1,-1,2,34,-1
1523208746078247,13,41,-2,1,1,2,-2,-8
1523208746078247,57,-39,0,-3,-2,-1,25,71
1523208746080253,-25,15,0,-5,-5,-6,-21,-53
1523208746080253,-52,-21,-2,4,2,0,-1,19
1523208746101311,-9,-7,-2,-2,-4,-5,-2,0
1523208746101311,2,0,-3,2,2,-2,-13,6
1523208746102311,33,-5,-1,-2,0,1,8,7
1523208746102311,21,6,-1,-5,-3,1,3,-10
1523208746114589,0,9,1,0,0,-1,-7,0
1523208746114589,-27,-7,-2,4,1,0,-15,-19
1523208746123369,14,8,0,2,0,2,5,7
1523208746123369,-13,-3,-2,2,0,0,1,-16
1523208746138642,-8,-26,-2,-5,-3,-4,-20,5
1523208746138642,-12,21,-1,0,-1,-1,12,-26
1523208746140414,4,4,1,-3,1,2,24,16
1523208746140414,23,27,0,4,3,3,6,11
1523208746161656,-10,-52,-3,0,-1,1,2,0
1523208746161656,22,-21,0,-5,-5,-7,-37,-32
1523208746162471,-31,-4,-4,5,4,3,6,41
1523208746162471,-59,12,1,-4,-6,-8,-15,-25
1523208746174738,15,31,-4,-2,-1,0,12,-10
1523208746174738,-12,10,-1,-1,0,-2,-11,2
1523208746183528,24,-18,-4,1,2,3,-14,3
1523208746183528,33,-19,-4,-1,0,0,-2,40
1523208746198569,-17,15,3,3,2,0,-17,-53
1523208746198569,-15,-6,-1,-2,-2,-1,2,7
1523208746200574,3,10,-2,0,1,1,-21,-27
1523208746200574,19,10,1,2,4,5,9,14
1523208746220640,6,2,0,-1,0,1,-2,8
1523208746220640,-58,2,2,-1,-1,-3,-14,-24
1523208746222630,-12,-35,-3,0,-1,-4,7,-10
1523208746222630,1,-19,-4,-2,-2,1,-7,4
1523208746234668,5,-14,-1,-2,-3,-2,0,0
1523208746234668,16,20,3,4,0,0,0,23
1523208746243687,0,2,2,-3,-4,-3,2,-19
1523208746243687,16,9,-3,-3,-5,-3,-5,3
1523208746258727,-76,1,0,1,0,-1,6,-18
1523208746258727,11,-26,-4,3,0,-5,-5,24
1523208746259729,-2,12,-4,-5,-5,-6,-27,1
1523208746259729,32,0,1,1,2,0,35,-27
1523208746281801,40,15,1,0,0,1,-13,31
1523208746281801,-28,18,4,-8,-4,-3,0,-17
1523208746282791,2,-26,-5,-2,-3,-5,-8,-6
1523208746282791,-19,-20,1,3,0,-1,-12,-19
1523208746294825,3,8,-3,-2,-3,-3,5,19
1523208746294825,-8,-12,-4,3,1,1,5,3
1523208746303847,17,22,0,-2,-1,-1,7,7
1523208746303847,15,-14,-1,-2,-2,1,-15,12
1523208746318892,-67,-18,-2,3,0,-4,21,-32
1523208746318892,36,22,-3,0,-1,2,19,33
1523208746319890,-6,4,0,-7,-5,-4,3,-26
1523208746319890,-15,-5,-4,-2,-1,-2,-6,-6
1523208746341180,37,7,1,0,1,2,-18,-2
1523208746341180,-14,-8,-1,2,1,-2,-21,5
1523208746342952,-14,29,1,-3,-1,2,28,-1
1523208746342952,24,-14,2,1,-2,1,-7,17
1523208746354985,-8,-8,-3,0,-2,-1,-4,-61
1523208746354985,-17,10,-2,1,0,-2,-15,-11
1523208746364007,19,-15,-1,2,1,2,30,27
1523208746364007,-2,6,-1,-4,-3,-4,-6,-27
1523208746378045,30,5,1,-5,-4,-2,1,54
1523208746378045,-14,-22,-4,-4,-4,-5,6,-16
1523208746380049,19,-4,-5,-1,0,-3,-27,-2
1523208746380049,-47,-3,-3,-1,0,-3,-3,-17
1523208746401104,10,-13,-1,4,2,0,-5,19
1523208746401104,12,18,4,0,0,3,5,-19
1523208746402107,6,-8,-1,-3,-1,0,0,20
1523208746402107,-3,19,0,2,2,0,-2,7
1523208746415144,13,-16,-3,-4,0,1,-10,13
1523208746415144,-32,-7,-2,-1,1,0,12,-46
1523208746423398,2,5,-3,4,4,4,-7,-4
1523208746423398,9,12,3,0,2,3,6,-2
1523208746438243,20,12,-4,-3,-1,-2,0,21
1523208746438243,-63,-16,-9,-3,0,0,-2,3
1523208746440210,2,-24,-2,0,-4,-5,-4,13
1523208746440210,16,-7,0,-4,-2,-2,7,-27
1523208746461265,-18,5,5,2,2,3,11,3
1523208746461265,33,12,4,-6,-3,-2,2,8
1523208746462487,22,2,-1,1,0,-1,-11,-6
1523208746462487,-73,-12,-5,1,1,-2,-4,2
1523208746475328,11,-8,-5,-1,-4,-7,-9,-3
1523208746475328,20,-1,2,-3,-6,-1,2,7
1523208746483330,-24,4,4,2,-2,-1,-6,-54
1523208746483330,39,6,0,-1,-3,-3,-3,22
1523208746498370,-5,8,0,0,0,2,23,-11
1523208746498370,6,-6,-3,2,0,-2,14,6
1523208746500373,-5,4,-4,0,-2,-4,-8,44
1523208746500373,-17,-24,0,0,1,-3,-22,-49
1523208746521426,-7,15,5,-8,-6,-4,2,-5
1523208746521426,28,-1,-1,-1,0,1,-4,12
1523208746522484,16,2,-4,2,3,1,11,9
1523208746522484,-20,9,2,-4,-3,-3,7,-14
1523208746543485,16,-10,-3,2,1,0,-10,24
1523208746543485,15,3,0,-1,-1,-1,-7,-11
1523208746545529,2,29,4,-1,-2,-3,-6,-6
1523208746545529,15,-3,-9,8,5,2,2,42
1523208746558524,-16,-19,-6,-8,-6,-4,3,-17
1523208746558524,3,-34,-2,-2,0,0,0,20
1523208746560529,-35,-8,0,3,1,0,-6,-38
1523208746560529,30,11,1,-3,-1,-1,4,31
1523208746580818,9,30,0,2,-1,-1,1,-4
1523208746580818,-9,18,4,0,-3,-1,-6,0
1523208746582591,-21,-40,-18,-10,-9,-2,-7,-4
1523208746582591,6,-1,0,-4,-4,0,-1,-6
1523208746603648,3,3,1,1,3,-2,-5,-4
1523208746603648,-5,3,-1,0,-1,-3,-1,-8
1523208746604646,12,3,11,1,2,1,7,5
1523208746604646,3,48,1,-6,-4,1,2,-8
1523208746618685,-14,-35,-6,-3,-2,-2,-8,-3
1523208746618685,3,-7,2,4,3,3,-3,7
1523208746619686,19,-3,-3,1,2,3,8,47
1523208746619686,-34,-22,-6,-2,-2,-3,-11,-40
1523208746640743,55,33,5,0,3,1,-5,13
1523208746640743,-76,-3,1,2,2,0,-14,-50
1523208746642747,27,7,3,-12,-4,1,10,20
1523208746642747,10,6,0,0,1,-1,-6,7
1523208746664042,16,10,-3,-2,-4,-1,0,5
1523208746664042,11,21,-5,5,7,2,2,8
1523208746664805,-26,-30,-2,-5,1,3,1,-14
1523208746664805,30,-62,4,7,2,-1,-5,-6
1523208746677840,-43,-1,-10,-14,-10,-3,-7,-8
1523208746677840,20,19,1,-4,-8,-6,-1,8
1523208746684861,-13,3,1,2,-1,-5,-5,-9
1523208746684861,10,-1,1,-2,-2,-1,4,-10
1523208746700902,4,-13,-1,4,3,1,-3,13
1523208746700902,14,-1,3,0,1,2,15,19
1523208746702907,8,24,-1,-4,-3,-3,-4,-30
1523208746702907,-67,10,-2,-1,-3,-4,-2,0
1523208746724130,2,-17,7,-2,-3,-5,0,4
1523208746724130,-5,-9,-5,-2,-2,-1,-17,3
1523208746724965,12,-8,-1,-2,-4,-4,12,0
1523208746724965,-8,8,0,2,-1,-1,-1,8
1523208746738002,-14,13,-2,-1,-1,-3,-9,-21
1523208746738002,21,0,-4,-1,-2,-3,2,20
1523208746745020,-25,-15,3,3,1,4,10,-3
1523208746745020,10,18,-5,-9,-4,-3,7,-22
1523208746761297,4,5,-1,7,3,-1,0,4
1523208746761297,5,-19,0,-4,-5,-1,11,2
1523208746763066,-7,30,0,-1,-2,-3,-25,-10
1523208746763066,3,-14,-1,-3,0,-2,-6,31
1523208746783167,28,-14,1,1,0,0,4,-19
1523208746783167,-54,11,4,5,1,-3,-9,-16
1523208746785127,-5,2,3,-7,-5,-4,-4,10
1523208746785127,8,-12,-5,0,0,3,3,15
1523208746806182,6,-13,-4,-5,-4,-1,1,4
1523208746806182,23,3,-2,1,-2,0,-12,-7
1523208746807184,-15,4,-3,4,6,1,10,-1
1523208746807184,14,4,1,0,-3,0,1,-4
1523208746821221,-11,13,2,4,8,4,-3,-4
1523208746821221,1,-2,-13,2,-5,-1,0,0
1523208746822251,-9,-28,-3,-1,-1,-1,-1,2
1523208746822251,8,3,1,-2,0,-1,-12,-12
1523208746843281,-9,-9,2,3,0,1,16,4
1523208746843281,19,36,4,-6,-3,-2,-7,53
1523208746845286,17,-1,-4,-1,-1,-4,-4,-22
1523208746845286,-15,1,-1,4,4,1,-18,16
1523208746857318,19,-31,-4,-3,-5,-5,-1,-2
1523208746857318,-50,34,-2,-3,1,-1,-6,-9
1523208746864335,6,-3,2,8,0,-2,-8,3
1523208746864335,20,5,2,-5,-3,-1,8,17
1523208746881383,-10,2,-7,1,2,1,-6,-7
1523208746881383,24,-46,-3,-2,1,2,13,-12
1523208746882392,-11,0,-2,2,2,0,-7,14
1523208746882392,-8,13,2,-2,-3,-2,2,-21
1523208746903441,2,11,1,0,-1,3,-11,20
1523208746903441,-2,-7,-4,-3,-1,-3,3,-51
1523208746905447,-15,-2,3,3,0,1,5,2
1523208746905447,1,0,-1,0,-1,-5,-3,7
1523208746917483,-12,-24,-2,-14,-11,-4,-1,-9
1523208746917483,15,0,-12,-6,-5,-2,-1,11
1523208746924496,-9,-6,10,4,4,3,-1,-9
1523208746924496,26,-1,-3,3,2,-2,-9,33
1523208746940539,-38,10,5,8,5,-1,4,-37
1523208746940539,6,6,2,-1,-2,-1,12,-10
1523208746942544,7,23,-12,-6,-5,0,7,4
1523208746942544,33,-45,-1,-1,0,-1,-15,9
1523208746963835,-23,47,3,0,0,1,8,9
1523208746963835,7,-34,5,3,-2,1,-11,7
1523208746965607,1,5,-4,-6,-4,-3,18,3
1523208746965607,-5,2,-5,-4,-4,-1,2,-31
1523208746977872,8,-21,-4,2,2,0,6,13
1523208746977872,-1,23,3,-3,-1,-1,-2,-12
1523208746984657,43,9,3,-3,-2,-3,-12,-3
1523208746984657,-87,-27,-5,-2,-2,-1,15,-11
1523208747000700,-10,-37,-7,2,0,-1,6,-11
1523208747000700,-1,-8,3,0,-1,1,2,10
1523208747002703,19,34,-5,-3,-5,-3,-8,18
1523208747002703,-8,12,-2,-3,-4,-2,3,-49
1523208747022992,17,2,0,3,3,3,-5,33
1523208747022992,-5,6,3,-2,-2,-4,-10,-20
1523208747030777,-10,-9,0,-6,-4,-2,3,-1
1523208747030777,4,13,1,3,1,-3,8,3
1523208747036794,22,4,1,-6,-4,-3,-8,-1
1523208747036794,-42,-18,-16,6,2,3,2,0
1523208747045984,8,19,2,-12,-4,0,-10,19
1523208747045984,-8,-14,0,3,-1,1,-13,1
1523208747061095,9,2,4,1,1,-3,9,5
1523208747061095,32,3,0,4,4,0,1,2
1523208747062863,-20,-34,-4,0,-2,-3,3,21
1523208747062863,18,21,-4,-1,-1,1,-1,-1
1523208747083920,-60,-18,-1,-4,-4,-3,7,-24
1523208747083920,4,-2,4,1,2,1,-3,2
1523208747084928,-12,-14,-2,1,-2,-3,-10,9
1523208747084928,11,35,2,-3,-2,-1,27,6
1523208747097115,16,-22,-8,1,1,-2,-13,11
1523208747097115,-20,-11,7,-1,-2,0,-4,-34
1523208747105978,-2,-48,-10,-1,1,-1,9,4
1523208747105978,14,6,6,-3,-1,-2,-13,-4
1523208747121018,-17,53,-4,-4,-1,-2,-9,-26
1523208747121018,-13,-49,-6,-2,-1,-2,9,9
1523208747123024,14,-4,3,-6,-2,-1,-12,24
1523208747123024,-7,-9,0,4,1,1,11,11
1523208747144156,10,42,2,0,-2,-3,-3,-9
1523208747144156,15,-24,-3,0,-2,-2,0,4
1523208747145082,-21,26,1,2,-1,-2,-2,-41
1523208747145082,3,-26,-6,-4,-2,-1,-15,1
1523208747157115,0,-8,7,-3,-1,-1,12,6
1523208747157115,2,13,-4,0,0,-2,-6,-4
1523208747166140,5,-2,0,0,1,5,20,28
1523208747166140,-13,-6,0,1,-1,-2,-10,-37
1523208747181185,16,-1,-1,0,-1,1,12,9
1523208747181185,44,0,0,-3,-1,0,1,44
1523208747182185,-77,6,2,2,-3,-5,-7,-4
1523208747182185,-6,49,-5,-2,-1,0,-1,16
1523208747203237,-8,-65,-9,-1,1,0,-12,-14
1523208747203237,39,13,-3,-4,-2,1,10,-5
1523208747205243,-24,8,3,5,0,3,5,11
1523208747205243,13,0,4,3,0,-6,1,0
1523208747217323,-13,1,-3,-3,-3,-1,-8,4
1523208747217323,-5,-8,-5,-6,-4,-4,-10,-9
1523208747226300,16,3,-1,-1,0,0,-8,-32
1523208747226300,-3,-8,-2,-2,1,0,6,16
1523208747241338,-1,9,-3,-1,-1,3,4,-30
1523208747241338,-18,24,4,-5,-4,-5,-4,0
1523208747242340,11,-2,-8,5,3,1,-4,-1
1523208747242340,-6,-42,-4,-4,-2,-1,8,-31
1523208747263643,13,18,7,-2,-3,-1,-7,11
1523208747263643,-7,11,7,-3,0,0,5,26
1523208747265404,-12,21,-14,-8,-7,-2,-6,-23
1523208747265404,8,-17,2,2,4,4,-3,18
1523208747277671,5,21,-8,1,1,0,-5,-8
1523208747277671,10,-5,0,-3,-5,-8,-10,11
1523208747286458,-31,-7,5,-1,2,-1,11,-9
1523208747286458,41,-2,-4,1,0,1,12,1
1523208747300498,-3,10,5,1,-1,-2,-3,41
1523208747300498,-19,4,-7,0,-1,1,7,-27
1523208747302499,28,-13,-2,-1,-2,-3,-7,11
1523208747302499,1,1,0,-3,-5,-3,-5,-26
1523208747323557,-11,-25,7,-2,1,-1,-5,2
1523208747323557,15,3,1,-3,0,1,1,12
1523208747325774,2,-6,3,4,1,-2,-3,-11
1523208747325774,-10,-1,1,2,0,1,-1,12
1523208747337594,19,22,-1,-1,-1,-2,0,10
1523208747337594,-22,-18,1,-4,-5,-4,-4,-10
1523208747345614,8,-8,-1,4,0,1,0,-18
1523208747345614,-13,16,0,-4,-1,-1,-7,-19
1523208747361677,-2,-10,-2,-1,-2,-1,-1,-9
1523208747361677,6,-2,-11,2,-1,2,-15,5
1523208747362659,22,7,6,-2,0,-3,-2,-31
1523208747362659,-33,-15,-6,-4,-7,-4,2,37
1523208747383717,10,-2,-3,-1,-1,-1,0,5
1523208747383717,-6,12,0,1,2,1,10,1
1523208747384719,-10,-17,-6,-6,-3,-1,-1,-6
1523208747384719,4,2,1,4,4,0,-14,7
1523208747396866,-3,-2,-4,-1,0,-1,6,-7
1523208747396866,6,7,1,-3,-4,-1,19,24
1523208747405780,7,-3,-1,-2,-2,2,11,-5
1523208747405780,-5,-7,-2,2,2,-2,2,5
1523208747420816,-14,8,-4,-4,-3,-1,0,-17
1523208747420816,6,-15,3,0,-1,-2,-14,3
1523208747422819,6,7,-5,4,2,-3,-9,-43
1523208747422819,20,-4,11,-9,-5,0,28,44
1523208747443876,-19,-6,-5,2,0,-3,-26,-34
1523208747443876,-26,7,7,-5,-3,0,1,-52
1523208747444960,23,11,2,-5,0,-2,-3,14
1523208747444960,-24,0,-32,-6,-2,-5,-13,-18
1523208747465938,-13,-13,-4,-2,-4,-4,-7,-37
1523208747465938,-1,-27,4,0,0,1,7,19
1523208747467946,-11,-2,4,6,2,1,-2,23
1523208747467946,12,9,2,-4,-2,1,0,-10
1523208747480985,6,-14,2,-4,-4,0,6,35
1523208747480985,-5,18,-7,2,0,-3,-10,-17
1523208747482982,57,-10,0,5,4,5,13,18
1523208747482982,-58,11,5,-11,-8,-5,-4,-22
1523208747503034,6,18,3,-1,-2,-3,1,7
1523208747503034,-8,-17,3,2,-1,-1,0,1
1523208747505038,6,0,-1,-1,0,-3,-6,4
1523208747505038,24,29,4,5,1,1,4,20
1523208747526330,-25,-18,3,-7,-2,2,-3,-39
1523208747526330,-13,-7,-1,3,-1,-2,7,-5
1523208747528099,-34,-18,0,-6,-3,-1,0,-56
1523208747528099,9,15,0,0,0,0,-3,-5
1523208747541137,12,5,3,1,3,-1,-1,30
1523208747541137,1,15,2,4,1,1,-7,10
1523208747542139,-17,-16,0,0,-3,-3,-2,2
1523208747542139,-1,-21,0,-4,-3,-2,-3,-12
1523208747563395,21,-5,-8,0,2,4,10,9
1523208747563395,-27,17,-2,-3,-1,-3,-7,-3
1523208747565205,8,18,3,0,-1,-5,-12,8
1523208747565205,11,-9,1,0,-1,-1,0,-1
1523208747586256,-4,15,0,-1,-2,-1,8,31
1523208747586256,-14,-53,-8,-4,-2,0,-11,-66
1523208747587257,-8,25,-2,-2,-5,-2,-2,8
1523208747587257,-1,-21,-1,2,3,2,-6,28
1523208747600296,55,8,3,-4,-6,-6,-3,-25
1523208747600296,-21,15,-8,3,3,0,6,13
1523208747607311,-21,-22,5,-1,-1,-1,-9,33
1523208747607311,-12,21,-1,0,-1,1,-5,-44
1523208747623586,6,-13,-10,-1,1,0,-3,21
1523208747623586,23,-3,1,-8,-4,2,6,-2
1523208747625358,16,-4,-2,-2,-1,-4,-8,18
1523208747625358,3,1,-4,0,1,2,8,4
1523208747646639,-18,19,5,8,3,-2,-9,-3
1523208747646639,0,-15,-5,-3,-3,-4,-7,8
1523208747647423,-14,-3,-2,-4,-3,0,3,-6
1523208747647423,-2,-29,-5,-1,-1,-2,-4,-4
1523208747660451,-8,-10,2,-3,0,-1,-1,-9
1523208747660451,16,14,-2,-2,-2,-1,2,30
1523208747667473,-3,-2,-2,-1,0,-2,3,-20
1523208747667473,9,19,-1,1,-1,-3,-6,-2
1523208747683558,-13,-24,-2,4,-1,-1,1,3
1523208747683558,1,-8,1,-2,-2,-1,0,14
1523208747685518,-1,7,-14,0,-1,1,1,-1
1523208747685518,-4,-2,0,-4,-3,-5,-4,-14
1523208747705572,-4,4,-1,-3,1,3,3,6
1523208747705572,3,24,2,5,4,2,-5,-4
1523208747707577,31,-18,1,-3,-3,-7,-7,-7
1523208747707577,-22,-13,1,-4,-4,-1,9,30
1523208747720611,-8,16,-5,1,-3,-3,-2,-27
1523208747720611,3,2,-1,3,0,1,9,-12
1523208747726627,37,14,3,0,2,4,-7,17
1523208747726627,2,-9,2,9,1,-3,-7,26
1523208747743907,1,-6,0,-10,-6,0,16,-15
1523208747743907,-29,15,-7,-7,-6,-3,0,-33
1523208747745716,-8,14,-1,3,1,-1,2,5
1523208747745716,11,-8,2,2,0,2,1,6
1523208747765733,-9,7,-1,6,0,-2,-10,11
1523208747765733,32,-30,-7,-7,-2,-2,-3,18
1523208747767737,-17,9,1,-1,-1,1,3,-33
1523208747767737,2,-2,3,-1,1,0,-7,4
1523208747780773,-16,-25,0,-1,1,-1,-4,-10
1523208747780773,9,12,2,0,0,-1,-3,15
1523208747786788,-13,-10,-7,-1,-4,-2,-3,31
1523208747786788,9,7,-6,-1,1,1,3,-43
1523208747803833,-21,-7,1,-5,-3,-3,-7,-7
1523208747803833,1,3,3,2,-1,-1,2,-22
1523208747804836,-13,18,3,-3,-1,-2,-1,0
1523208747804836,0,-10,-2,-4,-1,-1,-9,-3
1523208747826894,5,4,-5,1,0,-2,4,-11
1523208747826894,-4,-13,3,3,0,-1,-5,-6
1523208747831907,-21,-8,-3,-7,-6,-2,1,-10
1523208747831907,13,24,3,-3,-2,0,-1,15
1523208747840163,5,-21,3,2,3,0,1,6
1523208747840163,-1,10,-1,-2,0,-1,-4,18
1523208747846947,-1,-30,-2,0,-1,1,4,-15
1523208747846947,3,6,1,-1,-1,-1,2,48
1523208747863999,0,-2,-2,4,1,2,-2,-36
1523208747863999,0,24,-1,2,1,2,1,16
1523208747865000,0,-4,0,-8,-5,-3,-16,-32
1523208747865000,22,-16,-3,-2,-1,1,-4,-3
1523208747886050,-62,-3,-3,0,-3,-3,0,1
1523208747886050,16,3,-4,4,0,-3,-10,23
1523208747888056,-40,-24,13,-8,-5,-3,-1,-20
1523208747888056,-4,-16,-10,1,1,1,2,13
1523208747900090,53,41,-2,4,3,0,-11,2
1523208747900090,-10,-23,1,-5,0,3,14,22
1523208747907107,14,1,-2,1,-2,0,-3,11
1523208747907107,-14,3,-1,0,-1,-3,2,-38
1523208747924175,7,-11,-1,-4,-7,-2,3,27
1523208747924175,-6,6,4,3,-2,-8,-6,-22
1523208747925154,7,46,-12,2,1,5,9,20
1523208747925154,-13,-28,5,-5,-2,-1,2,-12
1523208747946413,-1,0,-7,-3,1,1,3,13
1523208747946413,3,-14,-3,0,0,0,-7,-13
1523208747947218,-5,-30,0,0,1,0,3,-3
1523208747947218,6,51,-1,-1,-1,-2,-2,5
1523208747960287,2,-14,-4,-7,-6,-3,-5,6
1523208747960287,-9,-22,3,-4,-3,-1,3,-13
1523208747968270,25,41,-1,8,8,7,-16,10
1523208747968270,-13,18,-4,-2,-1,-4,18,-23
1523208747983316,3,-36,2,1,-1,-3,1,44
1523208747983316,13,0,-1,-5,-3,-3,-6,-28
1523208747985314,46,5,-1,3,1,-3,-1,1
1523208747985314,-28,17,5,1,1,1,-14,-4
1523208748006371,4,27,-3,-1,-2,3,36,-6
1523208748006371,-16,-45,-3,-4,-2,-4,-1,-6
1523208748007374,12,-10,0,4,3,3,10,16
1523208748007374,23,28,2,-10,-5,-3,-17,5
1523208748019411,-16,-23,-8,-6,-5,-5,-11,-9
1523208748019411,-9,-2,1,6,2,0,-4,1
1523208748028505,-19,5,-5,-10,-6,0,9,-15
1523208748028505,4,-41,1,-2,-3,0,-7,13
1523208748043705,-2,41,4,0,1,-1,-13,-1
1523208748043705,8,24,0,1,-1,-2,-2,9
1523208748045474,-7,-27,-3,3,1,-1,10,34
1523208748045474,-46,-17,-7,3,0,-1,-1,-65
1523208748065530,21,-17,-3,-5,-3,-4,-8,6
1523208748065530,6,18,4,-8,-4,0,-5,1
1523208748067533,28,21,-2,3,0,-2,2,5
1523208748067533,-23,-20,-2,-1,-2,-2,4,33
1523208748079634,-3,6,1,5,3,4,1,-6
1523208748079634,-11,-7,-5,-5,-1,-1,3,-1
1523208748088589,-17,0,3,-5,-3,-5,1,-25
1523208748088589,29,9,-4,7,4,2,0,11
1523208748103631,-4,-18,1,-4,-5,-2,-7,-10
1523208748103631,-3,31,-1,1,-1,0,1,-1
1523208748104671,-8,-34,2,1,1,-2,0,13
1523208748104671,-11,-36,0,-1,-2,-5,-9,-45
1523208748125687,43,12,6,4,3,2,3,7
1523208748125687,-11,6,-4,-7,-7,-6,-21,20
1523208748127693,-14,3,3,2,1,0,29,-20
1523208748127693,18,-2,-4,-2,0,4,2,46
1523208748139960,1,10,4,-5,-5,-5,-21,-57
1523208748139960,-20,31,3,-5,-5,-6,9,-9
1523208748148749,-26,-25,5,5,4,2,-6,4
1523208748148749,9,-14,3,-3,-2,-4,-8,1
1523208748163794,0,-2,0,-2,3,0,-2,22
1523208748163794,14,-7,-7,-3,-2,-1,-2,-1
1523208748164793,-16,8,6,-6,-7,-6,-7,-13
1523208748164793,2,37,3,3,3,0,7,1
1523208748185847,-10,-47,-9,1,2,1,2,0
1523208748185847,7,12,-6,0,1,5,9,-4
1523208748187852,12,15,1,-6,-4,-2,-3,30
1523208748187852,0,2,-5,1,2,0,-3,-18
1523208748199889,-8,-11,1,-2,-1,-1,2,-3
1523208748199889,13,1,-4,3,0,0,3,36
1523208748208910,-18,-13,-7,0,-3,-2,-12,-9
1523208748208910,2,-41,-1,-7,-5,0,0,1
1523208748224130,-11,32,-1,2,1,-3,4,-4
1523208748224130,9,-21,8,1,1,0,3,4
1523208748224950,11,13,-3,1,2,1,-3,8
1523208748224950,0,17,-7,0,-3,-3,-7,-39
1523208748246168,-13,-11,-1,-3,0,2,5,-13
1523208748246168,54,-19,0,4,2,0,3,27
1523208748248018,-42,36,-1,-18,-11,-7,-8,-40
1523208748248018,10,-1,-7,8,5,-2,-2,-5
1523208748260045,-5,5,9,-5,-4,1,10,23
1523208748260045,1,-30,-3,-1,1,2,-3,-15
1523208748269068,-20,-8,-10,4,3,-1,-14,-39
1523208748269068,54,0,0,-6,-3,-1,14,28
1523208748283109,-36,12,1,9,3,-1,-6,-1
1523208748283109,-10,22,-2,5,2,1,3,-11
1523208748285111,11,-17,-4,-4,-3,-2,-2,10
1523208748285111,-4,18,8,0,-1,2,-6,7
1523208748306168,34,-22,-5,-3,-2,-3,4,52
1523208748306168,-36,-1,-1,0,-2,-4,-14,-85
1523208748308173,14,18,1,4,2,1,8,18
1523208748308173,-33,-37,-5,-8,-4,-2,-5,-6
1523208748319202,8,-25,-4,-7,-5,-3,-2,8
1523208748319202,-2,3,-4,-3,-3,0,1,15
1523208748328460,18,12,0,4,3,3,-2,-7
1523208748328460,-7,14,4,2,0,-1,6,10
1523208748343500,28,35,1,5,1,-1,-3,-8
1523208748343500,-49,-10,0,-6,-2,-1,-6,4
1523208748345271,-1,-34,4,0,1,2,-2,-1
1523208748345271,2,25,-1,5,3,2,3,9
1523208748366327,-9,-12,-5,-2,-2,1,-5,-20
1523208748366327,19,13,-1,-5,-4,-2,1,10
1523208748367330,2,2,-4,-1,0,4,5,21
1523208748367330,-12,-20,-3,0,-2,-1,4,13
1523208748388386,-3,0,1,5,4,1,-8,-12
1523208748388386,-20,-9,7,-6,-2,-2,4,-9
1523208748390392,-4,-9,-10,-9,-5,-2,20,9
1523208748390392,38,23,4,-1,2,-3,-21,8
1523208748403427,-89,-8,-5,2,-2,-5,24,-41
1523208748403427,21,-4,-8,6,3,3,0,48
1523208748405432,19,10,5,-2,-4,-7,-9,-6
1523208748405432,-9,-1,1,-1,-3,1,1,-7
1523208748425482,32,46,-4,-5,-3,-3,-11,16
1523208748425482,-17,-50,-5,-5,-2,-3,-5,-13
1523208748427490,-16,29,1,1,-1,-2,0,-1
1523208748427490,-5,-51,-6,2,-1,0,-5,-12
1523208748448550,12,3,-3,-5,-4,-1,-5,13
1523208748448550,-12,13,0,4,1,-2,-10,10
1523208748450551,13,13,2,5,-2,-1,-1,-9
1523208748450551,-8,14,4,-6,-3,0,15,-1
1523208748463587,-5,-21,-8,-8,-4,-1,-9,-8
1523208748463587,14,17,0,3,2,-1,-29,7
1523208748465591,-7,-24,-5,1,1,-1,2,-9
1523208748465591,-16,1,-3,-1,-1,0,21,-7
1523208748485645,28,1,4,2,2,3,5,13
1523208748485645,-1,21,2,-2,-2,-4,-13,-37
1523208748487652,-6,-42,-8,-1,-1,5,-22,3
1523208748487652,-7,-9,-2,0,-3,-7,5,-7
1523208748508706,5,14,5,-2,-2,0,-5,0
1523208748508706,-9,2,-4,0,0,3,22,-6
1523208748510761,7,-49,-8,0,0,-1,-13,11
1523208748510761,-18,12,2,-3,-3,-2,-17,-52
1523208748522978,3,6,2,6,4,3,11,-4
1523208748522978,9,15,0,5,5,5,10,0
1523208748529762,1,9,1,-6,-4,-4,-1,-1
1523208748529762,3,1,-2,0,0,1,-7,20
1523208748545919,-5,-8,4,-3,-2,-2,1,14
1523208748545919,7,2,-4,3,-2,-4,-2,0
1523208748547816,2,1,-7,-2,1,1,1,4
1523208748547816,15,31,0,-5,-3,-3,7,16
1523208748568865,12,-12,-7,-2,-2,1,7,-5
1523208748568865,-12,-20,1,-2,-4,-3,11,3
1523208748570870,-1,-13,-4,0,-4,-6,-4,1
1523208748570870,-1,10,-3,1,1,0,-11,1
1523208748582904,7,-3,1,-4,-1,1,-6,26
1523208748582904,-16,27,-4,-4,-5,-6,3,-40
1523208748589923,1,-16,5,0,1,4,10,-4
1523208748589923,-6,29,-1,1,-1,0,-5,-4
1523208748605964,0,-26,-3,0,-1,-3,-7,-5
1523208748605964,19,-8,-1,1,2,2,5,27
1523208748607970,-23,29,-4,-4,-4,-7,-9,-50
1523208748607970,10,-8,1,-2,1,1,0,8
1523208748629112,-8,14,-4,1,-1,-3,-2,-10
1523208748629112,-1,-15,1,-4,-5,-1,-8,3
1523208748630031,18,27,5,8,5,3,8,12
1523208748630031,-32,-9,-8,-9,-4,-4,-2,-16
1523208748643064,3,-40,-3,3,0,-4,-5,-16
1523208748643064,-61,-35,-7,4,-1,-4,-9,-16
1523208748650081,10,6,10,-7,-4,-2,-2,18
1523208748650081,4,-17,1,0,-2,-1,1,0
1523208748666125,-12,44,4,3,1,0,-1,-5
1523208748666125,21,-22,-3,-6,-4,-2,2,14
1523208748667126,-2,-10,-5,-2,-2,-2,-5,-13
1523208748667126,-2,1,-1,3,1,0,2,9
1523208748688184,-16,13,-5,-6,-4,0,-3,1
1523208748688184,35,6,5,-5,-1,-1,0,-1
1523208748690187,2,15,-3,6,2,0,2,17
1523208748690187,-13,-44,-3,1,-1,-6,-3,-9
1523208748703224,-9,32,-4,-5,-2,3,6,10
1523208748703224,-1,-49,-1,0,1,-1,1,-1
1523208748710277,7,12,4,4,3,1,2,14
1523208748710277,13,10,1,1,-1,0,-2,3
1523208748726518,1,-8,5,-2,-1,0,-6,0
1523208748726518,-5,16,-2,-3,0,-2,-3,-17
1523208748728288,31,14,-5,1,2,2,6,-2
1523208748728288,-60,-28,-5,-3,-3,-2,-21,-33
1523208748749346,-4,-14,-1,3,-1,-4,21,38
1523208748749346,0,33,2,-5,-5,-6,-10,-67
1523208748750347,-3,-43,-6,-3,-2,-3,-3,20
1523208748750347,28,28,3,2,3,6,7,-1
1523208748762422,16,4,4,2,1,1,-17,9
1523208748762422,-28,-20,-4,-8,-5,0,-3,-12
1523208748769399,2,12,-6,-4,-4,-5,6,-16
1523208748769399,2,-22,-4,0,-1,0,3,17
1523208748785440,-6,0,-2,-1,-1,-4,-7,-21
1523208748785440,21,3,2,5,2,1,6,32
1523208748787446,-22,-11,7,0,-2,1,-4,-11
1523208748787446,15,2,1,-3,0,1,2,3
1523208748808501,-11,1,-7,3,0,0,-17,-12
1523208748808501,12,-13,-1,0,-2,0,52,20
1523208748810507,-17,13,-1,-3,-3,-5,-26,-7
1523208748810507,12,3,5,-2,-2,-2,12,25
1523208748822774,-1,3,3,-2,-1,0,3,-12
1523208748822774,18,-5,-6,0,0,2,-25,15
1523208748829559,-50,-22,0,0,-1,-5,-25,0
1523208748829559,11,-5,-4,-12,-6,0,14,19
1523208748846606,11,21,-1,-4,-2,-2,3,-14
1523208748846606,17,23,-4,-2,-1,-5,-31,17
1523208748848610,5,-6,0,8,1,2,25,26
1523208748848610,-6,28,0,-1,-2,-1,-5,-27
1523208748868661,-17,-38,-2,-9,-5,-3,-8,-23
1523208748868661,-8,3,4,2,0,-2,-14,-11
1523208748869666,14,18,-3,-2,1,2,9,23
1523208748869666,-13,9,-3,3,2,1,-7,-25
1523208748881699,12,-3,-4,-5,-3,-1,1,3
1523208748881699,-2,12,2,2,1,2,20,13
1523208748890720,-8,-4,-4,-5,-3,-1,-3,-25
1523208748890720,18,15,-4,3,3,3,7,36
1523208748905761,-6,-15,-1,2,-2,-3,-12,-8
1523208748905761,-4,17,-1,8,3,1,2,-8
1523208748907766,1,-26,2,-12,-6,3,12,-15
1523208748907766,21,3,-3,7,3,2,-10,63
1523208748928937,-33,4,1,-1,-3,-3,4,-40
1523208748928937,-6,17,-4,-7,-3,1,14,-20
1523208748929829,0,-7,0,-1,2,2,-3,-14
1523208748929829,21,8,2,-2,-2,-5,0,25
1523208748941857,24,-4,-1,8,3,2,7,21
1523208748941857,-4,-10,18,2,1,7,2,7
1523208748950883,-2,50,-11,-3,-2,-6,7,27
1523208748950883,-33,-49,-7,-6,-4,-7,-29,-62
1523208748965921,19,23,-4,-1,1,0,-3,12
1523208748965921,-3,-38,0,-1,-2,-2,10,0
1523208748967926,8,32,-4,1,-1,-1,-7,-25
1523208748967926,-4,-3,10,0,-1,-1,0,3
1523208748987979,0,5,-3,3,0,-1,1,6
1523208748987979,10,-11,-6,-1,-2,-4,-9,3
1523208748989985,-16,-10,4,1,0,-1,-9,-6
1523208748989985,-11,-10,-7,1,-3,-3,14,-1
1523208749010273,-7,4,-3,-3,-4,-1,2,-24
1523208749010273,7,-22,-2,-2,-2,-3,-13,22
1523208749011040,18,34,7,7,3,-2,-3,-2
1523208749011040,-11,-22,5,2,0,-1,2,-33
1523208749025313,-2,-8,-4,-5,-1,-1,-6,18
1523208749025313,0,5,-5,-3,0,1,-5,7
1523208749026079,-3,-12,0,3,0,1,6,-9
1523208749026079,3,36,1,1,-1,-1,-4,-8
1523208749048182,-11,-32,2,0,-1,1,23,4
1523208749048182,6,2,-8,-9,-4,-7,-9,6
1523208749048182,12,-10,-1,1,0,0,-4,29
1523208749048182,-59,-38,3,-3,-6,-5,9,-18
1523208749070238,12,2,-3,-3,-1,0,-11,34
1523208749070238,-11,3,-7,-1,-2,-1,-1,-23
1523208749071199,7,-13,4,2,0,1,3,19
1523208749071199,16,14,-2,-1,-1,-2,-25,3
1523208749085519,-4,10,2,3,-2,-3,6,-6
1523208749085519,-12,-13,-1,-3,-2,-2,1,2
1523208749086521,7,24,-1,-4,0,2,-2,-10
1523208749086521,-9,-45,-8,-3,0,3,5,-11
1523208749107577,-3,-22,-2,-2,-1,-5,-8,-15
1523208749107577,14,24,4,0,-1,0,0,11
1523208749108580,-8,1,-7,-6,-6,-3,2,-9
1523208749108580,10,-2,-7,1,1,0,-2,-10
1523208749130644,-10,-3,5,-6,-2,0,-1,26
1523208749130644,-1,-10,3,4,3,2,-2,0
1523208749131643,-3,-7,10,2,1,-2,10,-1
1523208749131643,13,27,4,-1,0,4,7,3
1523208749145678,15,-16,-5,2,1,1,-10,20
1523208749145678,-12,89,4,-9,-6,-2,20,-7
1523208749145678,-30,-107,-8,2,1,-2,-7,-33
1523208749145678,34,32,0,-2,1,0,-4,43
1523208749167739,9,-4,-4,1,2,2,-3,-16
1523208749167739,-4,19,-4,4,-1,-3,-10,11
1523208749168742,-1,-7,-7,0,-2,-1,-6,32
1523208749168742,-17,36,1,1,1,-2,-3,-49
1523208749189796,-5,-33,2,-3,-2,-1,-9,2
1523208749189796,5,0,-1,-3,-2,-2,-8,-5
1523208749190798,9,-6,-5,-5,-3,1,-7,4
1523208749190798,-1,-7,-3,2,1,-3,-1,4
1523208749204836,1,28,1,-2,-2,0,-1,-17
1523208749204836,-11,-31,-8,4,3,1,2,0
1523208749205839,-16,-13,0,-3,-4,-4,10,-19
1523208749205839,12,-9,7,-1,-6,0,4,11
1523208749228132,2,40,-8,-4,-2,-3,-25,-2
1523208749228132,4,26,0,-6,-3,-1,6,-17
1523208749228901,-2,-6,-1,1,2,-2,-31,1
1523208749228901,0,18,0,0,1,-5,5,-5
1523208749249964,-9,-4,-13,1,-4,-3,7,-3
1523208749249964,5,-29,2,-3,-1,1,-13,20
1523208749250958,-1,15,-6,-3,-1,0,-8,-23
1523208749250958,3,4,-5,3,2,0,10,-22
1523208749264996,-16,-37,2,-1,-2,-3,15,7
1523208749264996,-2,-23,-4,2,2,5,2,-5
1523208749266000,13,-19,-1,1,-2,-2,11,26
1523208749266000,-8,-19,4,-5,-5,1,-1,6
1523208749288057,4,18,3,1,2,1,12,-2
1523208749288057,6,15,-1,-2,-5,0,0,23
1523208749289060,-3,-20,9,-1,-3,-4,1,13
1523208749289060,4,-13,-10,-3,-1,4,17,-61
1523208749310350,8,65,10,0,-1,-6,-9,-1
1523208749310350,5,-22,-15,-2,-1,-1,13,44
1523208749311117,-16,21,-3,0,0,2,-15,-45
1523208749311117,2,-16,-6,-2,-5,-7,-8,-7
1523208749325392,-35,-15,6,3,5,9,-45,-67
1523208749325392,17,3,-2,-1,-2,-3,42,13
1523208749326158,-2,5,6,4,1,2,6,6
1523208749326158,-17,15,1,-2,-1,0,-1,19
1523208749348223,10,-44,-25,-8,-3,-4,1,11
1523208749348223,-6,-37,20,10,4,0,-25,13
1523208749348223,0,40,-4,-3,-6,-5,-17,-28
1523208749348223,2,-33,-7,3,3,0,8,6
1523208749370511,3,58,-2,-4,-4,-3,2,8
1523208749370511,2,0,4,-7,-4,-4,-7,-3
1523208749371279,-51,-59,0,0,-1,-1,4,-32
1523208749371279,7,-11,-30,-11,-1,-1,-7,14
1523208749385315,11,12,1,9,6,6,-4,10
1523208749385315,-12,45,-5,3,-2,0,6,-45
1523208749386318,10,-26,-4,-8,-4,-6,-8,18
1523208749386318,-4,-13,3,-4,-2,-2,1,3
1523208749407373,-5,-36,4,-4,0,0,12,12
1523208749407373,12,21,-2,1,-1,-4,-18,-16
1523208749408377,15,31,-6,4,3,1,-2,10
1523208749408377,9,-12,16,6,3,6,9,41
1523208749430498,-16,-20,-2,-2,-3,-2,6,-21
1523208749430498,-20,9,1,0,-1,0,-13,-25
1523208749431441,15,-27,-7,-11,-4,-3,3,14
1523208749431441,5,18,5,0,-2,-4,-13,11
1523208749445475,6,24,8,0,-2,-1,7,2
1523208749445475,-23,-29,-9,-5,-1,0,-3,-15
1523208749446484,0,17,-5,4,-1,-1,-14,-11
1523208749446484,5,-8,-2,-7,-5,-1,-2,11
1523208749467535,-4,-6,6,-2,-3,-5,-8,-23
1523208749467535,3,-4,-4,0,-1,0,-8,-6
1523208749468538,15,36,-2,2,3,4,23,14
1523208749468538,-11,2,11,-1,-4,-7,-30,-3
1523208749490635,10,-32,-4,2,-2,-2,6,28
1523208749490635,-19,11,-2,-7,-4,-3,-2,-39
1523208749491597,-4,-8,5,-4,-6,-6,-13,-16
1523208749491597,14,9,-2,2,1,4,1,3
1523208749505635,-47,26,3,-1,-1,-4,-5,-8
1523208749505635,16,-57,12,9,5,3,9,39
1523208749505635,-13,37,-29,-17,-6,-3,-4,-23
1523208749505635,0,-24,-2,-5,-5,-8,-4,8
1523208749527694,25,-7,4,2,2,5,2,10
1523208749527694,-3,42,-7,-8,-2,-4,-18,-12
1523208749528696,-8,-13,7,3,2,0,13,8
1523208749528696,-5,3,0,0,0,-1,-4,-14
1523208749550755,15,4,0,-2,1,-1,11,1
1523208749550755,15,6,2,5,2,-1,-9,43
1523208749550755,2,-7,2,7,2,1,-2,-34
1523208749550755,-13,1,-10,-4,-2,2,14,3
1523208749564792,6,-1,7,0,-1,4,6,-13
1523208749564792,44,3,-3,4,-1,-3,-6,31
1523208749565795,-59,10,6,-5,-6,-6,3,-4
1523208749565795,-20,-9,-13,3,3,2,-10,-37
1523208749587854,-7,-33,-1,-4,-5,-4,2,-8
1523208749587854,2,-18,-1,1,0,-1,4,-12
1523208749588857,26,26,11,0,1,1,4,18
1523208749588857,4,8,1,0,-3,0,18,24
1523208749610933,-5,25,2,-3,-3,-3,-8,-42
1523208749610933,-12,-20,-9,-4,2,2,4,-12
1523208749610933,2,-9,8,2,1,0,3,-15
1523208749610933,-9,15,-2,-2,-2,-2,-7,-3
1523208749625953,24,10,0,4,-1,-2,-5,39
1523208749625953,-29,20,-7,-4,-5,0,16,-13
1523208749625953,7,-55,-4,-1,1,0,-6,-8
1523208749625953,11,23,1,-1,-1,0,-3,-2
1523208749648015,-8,-15,-5,-3,-1,0,-14,-2
1523208749648015,10,23,2,0,1,1,19,-7
1523208749649016,15,3,1,-1,1,2,-4,42
1523208749649016,-4,-14,4,0,-1,-1,-9,4
1523208749670072,2,3,-9,-6,-1,-1,6,-18
1523208749670072,-35,-15,7,-6,-5,-6,6,-18
1523208749671074,-37,-8,-9,-7,0,2,0,16
1523208749671074,-9,-28,-13,-10,-11,-8,8,20
1523208749685114,-6,13,23,20,8,4,-1,-38
1523208749685114,6,14,-40,-11,-7,-5,-12,21
1523208749686118,10,-36,1,4,2,1,-2,1
1523208749686118,18,4,1,-7,1,0,-4,-6
1523208749708174,-5,-2,-7,0,-1,0,9,19
1523208749708174,1,-16,16,-2,-5,-1,6,1
1523208749708174,5,47,-3,0,1,-1,-7,23
1523208749708174,-9,-12,-3,1,0,0,-13,-75
1523208749730279,33,-8,-5,-1,3,2,-2,49
1523208749730279,-19,-1,10,7,3,-1,-5,-27
1523208749731235,3,38,-4,-5,-4,-5,-9,-3
1523208749731235,-3,-3,12,4,-1,-1,12,27
1523208749745310,-6,-5,-12,-1,0,0,1,3
1523208749745310,1,-18,4,-2,-1,0,-6,-8
1523208749746280,16,5,-8,-4,-5,-1,-9,1
1523208749746280,-7,4,2,1,2,-1,23,2
1523208749767332,14,1,-3,-3,-2,1,0,27
1523208749767332,-22,-23,12,6,4,3,-11,-51
1523208749768333,17,0,7,5,2,3,30,15
1523208749768333,34,32,2,-1,-2,-2,-30,8
1523208749790629,-60,-30,-13,3,0,1,16,-20
1523208749790629,-2,-18,0,-11,-10,-8,-20,43
1523208749791396,18,37,-1,2,1,0,16,-26
1523208749791396,-28,-28,-13,-7,-3,-3,0,-55
1523208749804429,7,-19,6,-4,-4,-7,-6,3
1523208749804429,16,3,8,14,6,3,-8,-20
1523208749813463,-4,-10,0,-2,0,1,-13,81
1523208749813463,-21,13,-8,-5,-1,-5,0,-45
1523208749827726,6,2,-6,-11,-3,-3,-36,-2
1523208749827726,3,16,-4,0,-1,-4,76,4
1523208749828493,33,-3,-1,3,0,5,2,42
1523208749828493,-6,4,9,3,2,4,-1,-7
1523208749850551,3,-6,-2,-4,-6,-7,-2,1
1523208749850551,-47,-21,-9,-6,-2,-3,-31,4
1523208749851554,-9,-33,3,-3,-2,-3,-1,-17
1523208749851554,27,5,4,3,-2,-2,-7,45
1523208749865592,-14,9,4,-4,-2,-2,-6,-38
1523208749865592,29,19,-13,-6,2,2,-23,21
1523208749865592,-8,-14,-3,6,-2,-4,22,-29
1523208749865592,-14,29,7,4,-1,-1,-34,-1
1523208749887651,12,-23,-3,-2,-3,-5,-7,3
1523208749887651,6,6,1,-2,1,-1,-12,-6
1523208749888653,-12,-22,-4,-7,-3,0,13,-4
1523208749888653,7,8,2,1,3,0,4,13
1523208749910931,31,45,-4,-1,-2,-1,4,-19
1523208749910931,-25,-18,-7,3,0,0,5,-12
1523208749910931,-9,-17,-2,-7,-5,-3,-18,-20
1523208749910931,-2,-9,-1,4,3,3,-20,45
1523208749924990,4,-34,-6,-6,-1,0,49,-11
1523208749924990,10,0,-3,-5,-1,1,-20,-4
1523208749932770,25,29,23,21,0,-4,-10,-16
1523208749932770,-37,14,-7,-3,-3,-5,-17,10
1523208749948815,-22,-25,-7,-5,-5,1,22,0
1523208749948815,24,30,0,-4,0,-1,-20,4
1523208749948815,-24,3,4,-2,2,2,20,-8
1523208749948815,9,-21,-15,-9,-3,2,10,4
1523208749970930,-2,-16,7,4,-2,-6,-22,13
1523208749970930,4,4,6,11,0,0,6,14
1523208749970930,-5,-4,-2,-7,0,-3,-15,-45
1523208749970930,23,-19,-6,-8,2,3,17,31
1523208749984911,-17,24,2,2,1,2,-2,-1
1523208749984911,10,-8,14,16,-1,0,5,3
1523208749993168,-6,1,-2,-5,0,-4,-1,-1
1523208749993168,7,-9,-10,-4,0,0,-2,5
1523208750008206,1,23,-10,-14,0,0,-7,0
1523208750008206,36,3,31,18,-3,-5,-12,-9
