timestamp,emg1,emg2,emg3,emg4,emg5,emg6,emg7,emg8
1523180552300736,4,-7,-4,-10,-1,5,20,31
1523180552300736,-23,5,3,6,11,-5,-25,22
1523180552314775,20,0,-2,-8,-12,-9,-3,-8
1523180552314775,-39,-1,-5,2,-10,-4,-7,-16
1523180552315777,14,-1,2,0,8,-10,-5,-18
1523180552315777,22,0,4,5,45,-11,-6,17
1523180552336836,2,1,-2,-5,-79,26,25,5
1523180552336836,71,3,1,5,18,21,-3,22
1523180552338838,-72,1,-3,-1,8,4,18,-16
1523180552338838,0,-9,-2,5,12,-4,-10,4
1523180552350875,1,2,-6,-15,2,-4,-14,-6
1523180552350875,-2,4,-4,-10,8,-10,0,-1
1523180552359894,3,-5,7,35,-11,-32,9,-23
1523180552359894,14,-3,4,5,25,56,-11,52
1523180552374934,14,-4,-8,-7,3,-2,2,13
1523180552374934,-39,-4,-8,-32,-35,-8,-5,-38
1523180552375938,-34,-4,-6,-13,18,-7,-6,-32
1523180552375938,17,3,12,19,-15,-18,11,6
1523180552396996,12,10,17,20,20,4,-5,13
1523180552396996,-16,0,-9,-3,-40,-7,7,2
1523180552398999,-12,-17,-4,-11,35,2,-12,-10
1523180552398999,15,-5,-9,-43,-61,4,-3,0
1523180552411031,-3,-8,-12,11,-7,-13,-7,2
1523180552411031,-10,5,-3,60,27,25,6,2
1523180552420054,16,11,13,-4,21,18,15,-3
1523180552420054,4,-5,-10,-22,7,0,-5,6
1523180552435100,-8,2,14,3,29,1,-8,-19
1523180552435100,-4,-1,5,-3,-34,-13,-3,-1
1523180552436096,-3,-10,-27,-1,-74,-14,-2,-5
1523180552436096,-3,1,-3,-19,27,-13,0,0
1523180552457153,2,-3,-2,-4,-53,2,-2,-12
1523180552457153,-6,-7,-3,19,64,-10,-2,11
1523180552459158,3,6,11,-21,-45,35,-13,-1
1523180552459158,4,7,17,34,5,-3,2,-9
1523180552471193,-8,-1,-19,-26,-2,-11,3,-3
1523180552471193,9,1,11,31,27,11,3,9
1523180552480213,-4,-8,1,-2,44,-8,-6,-5
1523180552480213,-11,-3,-6,11,-7,-10,-6,-18
1523180552494252,-1,-2,-3,-11,15,-4,0,7
1523180552494252,1,4,7,-11,4,4,1,-1
1523180552496257,5,-1,-21,-17,-18,-22,1,9
1523180552496257,4,1,6,-15,-9,2,-1,3
1523180552517315,-1,-5,5,-1,-11,1,4,4
1523180552517315,-15,-9,-10,-27,3,-12,-7,-7
1523180552519323,2,0,2,15,6,-4,5,-4
1523180552519323,5,6,2,26,30,-6,-26,-3
1523180552531465,-4,3,1,-18,-15,10,29,-4
1523180552531465,10,0,-3,-41,30,-1,-5,23
1523180552539371,-9,-5,3,24,40,14,8,-11
1523180552539371,12,-3,-8,-3,9,-19,-7,-8
1523180552554411,3,-1,-1,12,14,-5,-19,4
1523180552554411,-21,0,-3,-6,-60,-29,-8,-8
1523180552556416,-33,-3,1,-13,1,-2,5,-3
1523180552556416,-3,-3,2,5,-9,3,27,3
1523180552576707,12,-3,-4,8,37,5,4,1
1523180552576707,11,-1,-4,-16,-19,-3,-1,12
1523180552584498,18,2,2,5,-2,-16,-3,-6
1523180552584498,-10,-3,1,3,-14,-5,1,-6
1523180552590507,3,-2,-9,-3,14,-3,-8,3
1523180552590507,-6,-3,-11,2,-5,17,11,-4
1523180552599533,7,5,6,10,16,10,-5,12
1523180552599533,8,-5,-1,0,30,-2,1,-4
1523180552614809,-25,0,1,-19,20,-2,-3,-12
1523180552614809,-3,-8,-10,6,-36,-14,-8,-10
1523180552616579,2,-6,-12,-13,-10,-13,-8,11
1523180552616579,-2,0,-1,-5,45,-13,-15,-13
1523180552636630,6,4,4,-3,-64,-17,0,6
1523180552636630,-5,8,28,33,36,1,20,-17
1523180552638635,17,7,-1,29,-17,25,21,30
1523180552638635,-19,-8,7,11,28,36,13,-23
1523180552658729,-7,-6,-12,-20,-8,-21,-32,-17
1523180552658729,22,-7,-20,-35,-33,7,-25,8
1523180552667719,27,7,2,-30,-57,-27,-13,-3
1523180552667719,-21,5,6,26,-7,3,8,9
1523180552673767,-22,-2,2,-1,17,14,-7,-19
1523180552673767,6,7,12,11,56,22,2,1
1523180552680984,18,-12,-14,-13,-23,-29,-15,4
1523180552680984,33,4,-6,-17,-78,28,7,-3
1523180552696794,-38,-7,-4,-27,-23,16,19,4
1523180552696794,-13,2,13,69,23,13,10,-13
1523180552698794,14,-6,-14,-9,8,-18,-39,-16
1523180552698794,-28,1,-4,-15,5,-25,-13,5
1523180552719850,28,-9,-13,4,-4,9,34,18
1523180552719850,6,2,9,-21,-9,7,-5,20
1523180552720853,15,4,5,49,-8,7,9,-10
1523180552720853,-14,-4,-10,10,56,20,-15,3
1523180552734898,-62,0,12,2,18,-8,-2,-12
1523180552734898,31,-6,-2,4,24,-20,1,15
1523180552735900,-87,-21,-5,-26,-4,17,-3,-17
1523180552735900,64,4,-12,-24,-43,-21,-20,10
1523180552756950,43,12,3,16,-36,-37,-5,12
1523180552756950,7,-3,-11,-25,44,-2,-9,-13
1523180552758957,-48,-1,0,-19,-77,-34,11,-37
1523180552758957,15,5,23,-24,-43,-2,1,30
1523180552780246,17,3,10,76,96,15,8,6
1523180552780246,-19,3,-2,-32,-88,10,15,13
1523180552782048,22,1,18,8,39,17,-3,20
1523180552782048,-17,-7,-22,-12,4,-10,-10,-33
1523180552794049,30,6,22,-4,7,14,1,5
1523180552794049,-13,8,4,2,-26,-61,-29,0
1523180552801077,-10,3,-17,10,38,84,43,6
1523180552801077,6,-11,-16,15,33,-12,0,27
1523180552817112,71,5,17,-7,-73,9,-6,-19
1523180552817112,-119,-22,-10,0,35,2,-15,-40
1523180552819115,30,4,7,-31,-4,-50,-21,-19
1523180552819115,-41,8,11,27,49,-57,-1,7
1523180552840172,1,-1,-20,-16,-5,10,-23,-3
1523180552840172,32,6,5,-17,-26,-10,10,16
1523180552841173,16,-5,17,34,34,14,31,0
1523180552841173,47,8,5,2,-63,92,38,16
1523180552854207,-5,-4,-7,4,98,17,-4,14
1523180552854207,-37,-10,-11,-16,-73,12,-23,-14
1523180552861227,-2,-1,-14,-29,-38,-46,-32,-2
1523180552861227,-24,0,32,28,13,39,5,9
1523180552877507,-27,-10,-43,-1,9,4,14,10
1523180552877507,55,9,11,2,2,-13,-2,5
1523180552879274,-17,-1,-11,-5,37,-9,-4,-3
1523180552879274,57,-1,4,-14,-81,-18,13,30
1523180552899334,-45,8,25,4,-41,0,-12,-45
1523180552899334,-36,-3,-15,22,82,22,4,14
1523180552905343,-6,-8,2,1,-69,27,8,9
1523180552905343,22,1,-2,-26,6,-35,-32,-14
1523180552913603,15,10,1,18,-39,-22,12,3
1523180552913603,27,-4,-12,-16,-39,36,40,4
1523180552922389,-65,-9,29,6,8,-8,-25,8
1523180552922389,-29,-12,-33,10,-44,-21,-10,-23
1523180552937428,-8,-14,-20,-38,14,-36,-20,6
1523180552937428,38,7,-1,-29,-79,-96,-28,-36
1523180552938434,-22,8,0,-14,25,96,74,45
1523180552938434,10,4,8,-18,1,2,-1,-1
1523180552959489,-17,-19,1,12,70,19,-6,-7
1523180552959489,14,5,-16,-2,18,20,-7,17
1523180552961495,25,-10,8,-2,24,-43,-37,-6
1523180552961495,-24,2,-9,7,57,-21,46,-26
1523180552973526,61,11,-5,3,11,14,-8,5
1523180552973526,-80,-2,23,14,25,64,12,-1
1523180552982555,7,-13,-23,-14,-27,-42,-22,7
1523180552982555,-38,-2,23,-42,-56,-61,-49,-15
1523180552997589,8,1,-17,45,61,-67,28,-26
1523180552997589,7,11,3,57,28,80,43,-3
1523180552998591,20,3,1,-19,-11,23,5,0
1523180552998591,12,-15,-3,-27,-85,-29,-21,6
1523180553019647,-45,-5,-1,-62,35,-2,-44,-7
1523180553019647,55,2,-11,-16,7,-99,-20,18
1523180553021653,9,13,3,64,79,63,37,13
1523180553021653,-27,-3,15,17,1,13,3,-14
1523180553033694,21,-7,0,-15,24,-27,-2,21
1523180553033694,12,-11,-12,-45,-71,-17,-27,18
1523180553040704,-10,21,26,-4,-34,-37,0,-62
1523180553040704,19,-10,-47,25,43,5,33,20
1523180553056746,-9,5,14,-11,-6,43,0,5
1523180553056746,-1,-7,-1,-13,4,18,-5,-16
1523180553058751,21,-8,-8,-33,-45,-101,-63,18
1523180553058751,71,11,9,14,60,45,25,40
1523180553080045,-119,-10,-8,23,-27,3,41,-56
1523180553080045,0,-3,12,19,31,52,5,2
1523180553081862,-9,-6,-14,-7,36,33,6,-9
1523180553081862,-28,-4,-2,11,-49,-24,-20,-5
1523180553093845,-4,-5,-6,-26,-22,-12,-34,-3
1523180553093845,18,2,2,-41,83,-36,13,-5
1523180553100867,10,0,4,112,57,44,34,-7
1523180553100867,17,-8,-30,-7,12,26,5,43
1523180553116910,-7,-3,15,-29,-39,-4,-19,-1
1523180553116910,-11,-1,15,13,-48,-109,-52,0
1523180553118913,-4,-6,-29,-23,-20,-57,6,-45
1523180553118913,-16,18,44,36,34,99,97,19
1523180553140009,29,-1,-2,15,-60,24,5,37
1523180553140009,17,-1,-7,-26,-32,-4,-24,-8
1523180553140972,-54,1,-10,-45,-42,-100,-56,-33
1523180553140972,-27,-10,0,16,2,-36,-24,-30
1523180553153002,-12,-6,-7,-17,-45,-7,-4,23
1523180553153002,43,6,6,62,28,59,8,4
1523180553162026,91,8,4,-21,10,27,29,5
1523180553162026,-112,-9,-4,9,23,-9,-3,-39
1523180553177283,6,6,11,-1,11,-35,-11,16
1523180553177283,-5,-3,-3,-2,14,-19,14,-64
1523180553179071,44,8,-7,-24,-2,81,50,40
1523180553179071,-3,-8,-1,28,-1,39,-16,-19
1523180553200132,83,5,0,-23,14,-10,13,56
1523180553200132,-84,-3,-2,24,-56,-40,-11,-47
1523180553201137,-35,5,15,-4,-43,-105,-64,8
1523180553201137,17,-11,-19,-91,0,80,30,6
1523180553213164,18,-9,-3,74,14,1,0,6
1523180553213164,35,11,20,44,83,7,28,25
1523180553222187,32,-6,-23,-27,-35,76,17,-4
1523180553222187,-97,-2,5,-14,47,-82,-74,-2
1523180553237228,-4,-5,-8,-9,-90,-51,-23,-46
1523180553237228,26,3,-3,-24,-7,73,68,6
1523180553239232,32,-7,-11,-15,6,6,-11,32
1523180553239232,14,4,5,18,16,-6,3,6
1523180553259323,-66,-4,-3,-10,30,16,-1,-44
1523180553259323,8,2,1,-10,-76,-4,-17,17
1523180553261292,31,3,-5,-5,-48,-83,-14,1
1523180553261292,18,2,-12,-7,-17,-3,-23,-16
1523180553273364,-39,-14,20,52,-1,26,11,0
1523180553273364,-23,-11,-23,-20,46,-55,-6,15
1523180553282351,11,2,15,29,27,55,25,54
1523180553282351,3,10,5,12,-52,-31,6,-78
1523180553297387,-5,10,1,-28,-18,45,27,-8
1523180553297387,8,-11,-1,15,-3,-41,-40,16
1523180553299395,12,3,5,-26,65,-73,-7,10
1523180553299395,17,8,8,25,103,84,1,-16
1523180553319447,57,8,-2,18,27,16,35,27
1523180553319447,-108,-11,-5,-10,-27,-9,-19,-35
1523180553321450,-42,-8,-12,-15,-10,-23,-11,-6
1523180553321450,58,-1,4,-17,-69,-51,-29,29
1523180553333486,8,2,-9,-29,-8,-32,-21,-8
1523180553333486,35,-1,-14,0,42,58,12,19
1523180553342506,15,7,22,24,10,49,24,-6
1523180553342506,-55,-9,-20,-32,-23,-35,-9,-12
1523180553357547,67,4,21,1,22,-22,-1,-3
1523180553357547,-33,-2,-21,25,-8,86,5,-8
1523180553358549,15,3,-12,6,5,50,39,-12
1523180553358549,33,5,6,-3,-39,-33,-21,41
1523180553379605,-48,-9,-17,-54,-11,-103,-14,-50
1523180553379605,-15,5,35,63,10,88,15,37
1523180553381610,-61,-14,-3,9,48,-26,-9,-1
1523180553381610,-6,0,-24,-54,-110,-44,-7,-47
1523180553393642,36,3,2,64,96,-35,-8,35
1523180553393642,22,-2,5,-43,-32,-58,4,2
1523180553402665,32,-1,-5,32,-43,-9,5,-2
1523180553402665,-25,-4,3,-6,-22,35,5,25
1523180553417709,18,1,-11,-36,-11,2,-18,-12
1523180553417709,-71,-1,12,-4,13,23,13,-13
1523180553418713,-17,-4,-22,-16,-21,-37,-27,1
1523180553418713,4,-4,8,13,-17,-90,-32,-10
1523180553439765,5,7,-2,3,23,51,63,6
1523180553439765,50,5,3,-11,-36,-5,10,13
1523180553440769,-48,-7,1,-16,5,-14,-29,-25
1523180553440769,57,3,1,31,89,-35,-31,-5
1523180553452802,-51,-2,7,6,-83,5,-28,15
1523180553452802,35,1,-4,-16,-18,-56,27,1
1523180553461823,-1,10,12,17,94,24,-39,-9
1523180553461823,4,-14,-31,-25,-66,-22,-3,0
1523180553476864,-17,0,18,38,9,92,39,20
1523180553476864,36,-6,-8,-19,126,53,13,4
1523180553478869,-1,-4,4,-13,-69,2,-5,-4
1523180553478869,23,4,-7,-15,6,7,-1,5
1523180553499931,-71,-7,-8,-40,-49,-45,-26,-20
1523180553499931,-35,-4,-8,-17,70,-44,-17,-35
1523180553500932,4,-5,-8,15,28,22,4,-16
1523180553500932,46,2,9,-19,53,11,23,63
1523180553512959,-23,0,-4,26,14,-15,-23,-53
1523180553512959,33,3,-3,-8,-8,-102,-14,11
1523180553521984,-48,-11,5,3,-107,53,17,0
1523180553521984,-9,5,7,13,6,-4,2,11
1523180553537024,7,-3,-5,-24,-18,100,67,26
1523180553537024,29,0,-11,-11,-21,-5,-25,-30
1523180553539030,19,7,-10,-12,0,5,7,16
1523180553539030,-19,-5,-3,2,46,12,-6,-41
1523180553560084,12,-2,-1,10,-48,-36,-30,2
1523180553560084,-9,-12,-6,-8,29,-22,-10,10
1523180553561088,48,14,26,9,-82,-6,21,35
1523180553561088,-9,4,-9,48,40,38,29,-20
1523180553573120,-38,-5,7,-18,14,-1,0,8
1523180553573120,45,3,-13,-14,-74,7,3,21
1523180553582143,-24,-19,-13,-82,36,31,-5,2
1523180553582143,-75,-1,17,55,-4,0,-3,-27
1523180553597184,35,11,18,34,-79,-44,-1,15
1523180553597184,39,3,-14,-1,49,3,-4,37
1523180553599194,-45,-2,-10,4,25,-26,-15,-44
1523180553599194,39,-5,2,-33,24,-9,10,1
1523180553619246,-15,-6,-9,-50,61,19,1,-6
1523180553619246,17,1,16,8,-71,8,9,-1
1523180553621246,-19,-6,-15,32,15,12,-19,4
1523180553621246,-1,3,-2,10,-68,-28,-42,-21
1523180553642303,15,-7,-16,-25,-33,-35,-4,9
1523180553642303,6,2,5,15,65,25,16,5
1523180553643306,-15,-1,0,-26,16,-4,1,-42
1523180553643306,41,6,13,-21,-113,-32,1,31
1523180553657343,3,-3,-10,20,36,-4,-21,-6
1523180553657343,-55,-1,16,-18,-88,-2,15,-24
1523180553658346,-34,-19,-7,94,64,8,-15,-7
1523180553658346,1,-3,-11,-12,50,7,20,-3
1523180553679403,70,8,9,18,32,42,4,36
1523180553679403,-6,10,10,3,-103,-49,1,-17
1523180553681407,-66,-7,7,-28,32,37,38,-13
1523180553681407,-10,-2,5,28,19,5,-14,41
1523180553702467,-20,-2,-7,18,-11,-48,-25,-66
1523180553702467,5,-11,-13,-20,25,2,-23,18
1523180553703465,67,7,18,-12,-68,-18,4,13
1523180553703465,-19,1,-30,2,70,1,1,-3
1523180553717503,-26,-9,0,-53,-96,-47,6,9
1523180553717503,-10,-5,18,49,124,-12,0,-10
1523180553718505,-1,5,-9,-9,12,23,7,12
1523180553718505,2,-1,-11,-33,13,-30,-12,-5
1523180553739561,-4,-7,12,63,65,-19,-19,-15
1523180553739561,-6,-5,-22,1,-67,-20,12,2
1523180553741567,35,13,18,13,74,31,4,13
1523180553741567,49,7,9,-13,8,28,30,12
1523180553762621,-97,-5,-22,-38,-18,20,-7,-34
1523180553762621,26,-4,-5,-17,33,-4,-40,8
1523180553763626,-50,-5,11,11,-82,-39,13,-2
1523180553763626,39,8,14,28,97,15,33,-14
1523180553776662,38,5,-1,-16,27,39,-27,18
1523180553776662,-14,-6,-18,-20,-45,-34,20,-5
1523180553783678,24,-2,-18,-24,-47,22,-24,23
1523180553783678,-36,-8,13,-1,9,1,-12,-24
1523180553799727,43,11,18,6,-46,-3,11,8
1523180553799727,-30,3,-13,2,-35,-7,-8,-11
1523180553801728,36,-7,-8,10,36,-9,4,-6
1523180553801728,-2,-1,13,-5,-51,11,10,37
1523180553821781,-32,-3,-5,24,10,24,-5,-41
1523180553821781,-14,-4,13,-22,-36,3,-34,-5
1523180553823785,15,8,16,32,3,-54,-4,-8
1523180553823785,-8,-4,-18,44,39,112,27,23
1523180553836819,54,-6,-4,-4,-57,-4,0,9
1523180553836819,-11,5,-7,-39,8,-48,-17,10
1523180553842835,-58,-6,1,8,-75,-16,3,-45
1523180553842835,33,3,15,22,62,69,10,29
1523180553859880,-1,-2,-2,-3,43,-21,0,28
1523180553859880,43,-5,-19,-15,57,18,-14,-26
1523180553860885,-71,2,10,6,35,-54,-12,9
1523180553860885,-25,-13,-27,-58,-89,-50,-24,-20
1523180553881940,9,-6,0,7,64,17,26,18
1523180553881940,11,5,20,77,-77,64,9,-11
1523180553883945,75,9,-9,-10,-23,-31,-20,39
1523180553883945,-110,-5,16,25,-4,-62,5,-50
1523180553896980,8,0,-8,-36,-25,56,37,2
1523180553896980,-6,0,-15,-26,69,45,6,25
1523180553902995,43,-4,14,14,-8,21,16,14
1523180553902995,12,-1,-20,-36,-61,-36,-2,-4
1523180553920042,-37,4,8,62,41,31,-14,-44
1523180553920042,20,1,13,7,-26,2,24,7
1523180553921043,13,5,-10,-15,3,11,0,5
1523180553921043,1,-6,-17,-55,-28,-34,-14,27
1523180553942099,2,-3,6,46,-28,-59,-11,-2
1523180553942099,-18,-10,-15,12,106,-2,-3,-8
1523180553944104,44,9,27,60,-27,13,-10,-18
1523180553944104,-8,3,20,27,-41,-6,42,19
1523180553956138,14,-4,-20,-40,53,60,-4,45
1523180553956138,-77,-8,-7,-3,-25,-7,-30,-68
1523180553971176,15,-7,-6,-9,34,-116,-4,-6
1523180553971176,29,13,16,2,13,85,45,20
1523180553980201,-19,-4,-10,-9,8,-16,10,-10
1523180553980201,65,-2,4,-8,-58,-16,5,42
1523180553981204,-50,0,-23,-46,2,27,-1,-23
1523180553981204,-21,-12,-11,-35,-61,-62,-31,-36
1523180554002260,-52,6,18,25,-76,-41,-12,-29
1523180554002260,19,1,28,52,23,81,3,15
1523180554004266,8,0,-24,-41,-26,-1,-10,6
1523180554004266,18,-11,-25,4,91,-17,-11,-15
1523180554016300,40,-5,-5,6,-55,16,24,39
1523180554016300,-32,12,7,-12,-44,-37,8,-37
1523180554023315,-8,-5,16,19,58,38,-26,4
1523180554023315,46,3,-8,-30,-17,-59,-20,25
1523180554039361,-89,-9,-19,-86,-68,-35,-3,-50
1523180554039361,36,11,7,-28,-5,5,-5,13
1523180554041364,19,-2,4,13,63,-12,14,31
1523180554041364,-1,-3,0,1,-25,15,-22,-46
1523180554062419,85,5,-4,-8,42,-63,0,49
1523180554062419,-75,-4,-17,-31,-39,74,47,-27
1523180554063423,2,-1,-7,-28,-54,-1,-21,-19
1523180554063423,30,1,15,35,-31,-14,-25,37
1523180554076456,-9,13,30,79,60,104,53,-31
1523180554076456,1,-4,-11,-12,-18,-35,-12,21
1523180554083477,-24,-13,-14,-30,5,11,13,-8
1523180554083477,2,-9,-26,-8,41,-57,-28,4
1523180554099525,21,12,34,49,70,-23,-11,-17
1523180554099525,-14,-1,7,-18,-99,24,2,-1
1523180554101525,41,-6,12,29,66,-8,-4,-8
1523180554101525,22,1,-7,-45,-35,23,37,8
1523180554122580,-52,-11,-37,-98,9,-32,-24,32
1523180554122580,2,8,20,32,-12,-25,-28,-24
1523180554123583,-21,3,1,4,-26,-46,-3,-6
1523180554123583,30,-1,-3,-26,-25,74,-34,-23
1523180554135614,57,-1,6,25,-30,-75,-27,8
1523180554135614,-7,4,6,17,37,43,25,40
1523180554144637,1,7,-1,-38,-36,4,-5,4
1523180554144637,-35,-3,-5,58,53,-23,-7,-27
1523180554159678,-3,-4,-20,-63,-50,-12,-22,-2
1523180554159678,4,-7,-19,9,104,-3,15,-1
1523180554161684,3,-2,13,-21,-85,-6,-2,3
1523180554161684,-35,12,31,21,102,27,24,-7
1523180554181738,7,-19,-35,16,33,8,-14,-5
1523180554181738,30,-9,-5,1,-44,-16,21,16
1523180554183750,16,10,-5,-23,43,110,25,-13
1523180554183750,-47,-3,19,27,-33,-8,-7,-15
1523180554195774,-21,1,-1,-20,-23,-43,-39,-32
1523180554195774,2,1,-9,-33,20,-87,-38,20
1523180554204797,32,2,-2,9,9,-1,46,28
1523180554204797,-61,-3,10,29,47,36,18,10
1523180554219877,9,-11,-14,-31,-74,-6,-10,-5
1523180554219877,3,-8,-17,0,59,27,-13,-7
1523180554220840,11,8,36,10,17,-66,-14,-26
1523180554220840,16,0,-24,59,-19,-23,38,4
1523180554249957,52,9,11,-4,19,89,29,26
1523180554249957,-88,-13,22,-13,-50,-54,-36,-22
1523180554250949,-5,-8,-58,-23,6,2,7,26
1523180554250949,8,0,33,47,-13,-29,-36,-26
1523180554255932,29,3,-10,-29,52,-20,-7,18
1523180554255932,-37,-2,10,-5,-34,26,27,-41
1523180554264958,-4,10,-5,-12,-38,-32,-12,23
1523180554264958,-12,-7,-2,-25,-94,42,47,-36
1523180554280233,-36,0,-4,-30,0,-17,-20,15
1523180554280233,59,13,3,48,22,85,32,25
1523180554281001,33,-6,5,28,63,6,-12,31
1523180554281001,-26,7,6,-46,-53,-67,-39,-30
1523180554302057,23,1,-6,35,-84,-34,4,-9
1523180554302057,2,-11,-8,13,88,-3,2,11
1523180554304100,-62,-7,-15,-20,-30,-2,2,-58
1523180554304100,50,10,23,23,26,48,-1,35
1523180554316097,-80,-3,12,5,19,-43,8,-11
1523180554316097,5,-2,6,13,-63,-17,-14,4
1523180554332136,37,-15,-19,11,39,82,26,30
1523180554332136,-8,-11,-36,-56,-15,-38,-24,11
1523180554340159,-28,11,25,57,34,-11,32,-1
1523180554340159,8,10,-3,-23,-33,-25,-8,-44
1523180554341161,-3,0,4,-47,-32,-41,-42,9
1523180554341161,9,1,3,68,-33,59,41,-11
1523180554362216,37,-5,0,10,-52,32,17,20
1523180554362216,-26,-2,6,13,-83,-5,19,32
1523180554364221,-22,4,5,-26,-53,29,-7,-30
1523180554364221,-44,-7,-14,-12,-12,-39,-37,17
1523180554376437,22,3,5,2,69,-11,-27,2
1523180554376437,19,-10,-17,-26,-23,-16,-15,2
1523180554385277,-56,-13,6,56,-56,-57,0,-41
1523180554385277,2,-3,-13,-61,-39,9,-3,-5
1523180554399343,47,2,16,21,124,59,35,50
1523180554399343,-10,4,-2,4,40,2,-27,-47
1523180554401320,8,0,-12,13,24,9,34,9
1523180554401320,12,16,27,-12,-89,-76,12,20
1523180554422376,-27,-6,-19,-42,-128,-9,-41,-52
1523180554422376,68,13,11,42,126,14,-22,21
1523180554423379,-39,-16,3,-10,-30,-21,-45,6
1523180554423379,-28,3,-6,-28,-69,1,-8,-19
1523180554435409,20,2,-2,-8,-60,-31,21,22
1523180554435409,12,9,9,20,38,47,38,13
1523180554444478,-1,4,-7,-17,-30,-37,-9,-11
1523180554444478,32,-13,-18,-8,78,19,-9,18
1523180554459474,-58,-12,-22,-16,-7,38,-53,-31
1523180554459474,-14,-10,3,-16,20,-12,11,8
1523180554461480,44,18,25,79,28,9,18,-5
1523180554461480,-3,-18,-39,-94,-56,-22,-28,14
1523180554482539,-2,10,36,46,66,-17,8,-8
1523180554482539,4,-10,-48,-1,-61,-36,1,4
1523180554483545,23,5,12,-30,30,-20,-11,4
1523180554483545,49,20,37,70,-33,66,29,-2
1523180554495571,-97,-22,-20,0,38,40,22,-18
1523180554495571,-86,-10,17,-20,-53,-35,-15,-27
1523180554504594,1,3,-4,12,-38,-77,-41,7
1523180554504594,34,-11,-27,-48,65,-60,4,8
1523180554520677,111,6,9,-6,38,44,8,36
1523180554520677,-67,-12,-14,12,-9,32,38,-33
1523180554521640,-63,-8,-16,-70,-55,64,7,-7
1523180554521640,-10,0,40,117,110,-11,-31,-18
1523180554541694,32,1,-6,-16,1,-65,-11,8
1523180554541694,23,-6,-10,-23,-64,-43,-4,13
1523180554543698,9,-3,-35,10,19,61,12,12
1523180554543698,-7,5,-2,-29,-5,9,17,4
1523180554564757,-6,5,-1,1,-41,-1,0,-35
1523180554564757,34,21,67,20,14,9,-18,15
1523180554566760,-36,-30,-66,-24,90,-29,-9,-24
1523180554566760,55,4,8,-15,-80,15,45,25
1523180554580032,-46,5,8,49,95,48,27,24
1523180554580032,-31,6,-15,-22,-28,-3,-4,0
1523180554581799,12,-4,29,9,70,-15,-20,22
1523180554581799,80,2,-17,-27,-10,-35,-41,3
1523180554601895,-109,-6,-22,-37,-9,-22,56,-45
1523180554601895,-43,-14,-5,6,-42,-37,-13,10
1523180554607869,14,17,55,72,72,-6,-22,-24
1523180554607869,9,0,1,-4,-7,71,51,-17
1523180554624914,107,-6,-49,-22,-59,42,14,70
1523180554624914,49,11,5,-19,53,9,10,23
1523180554626947,-26,-13,17,-24,-21,-36,17,-33
1523180554626947,-39,-2,-25,2,-1,-20,-55,-3
1523180554639998,6,0,31,27,-3,-3,-17,-21
1523180554639998,34,-9,-30,-46,-73,9,-21,2
1523180554640956,-15,8,-3,-3,32,-30,28,6
1523180554640956,-61,-6,8,11,127,100,61,3
1523180554661016,48,9,13,-39,-117,-39,-34,40
1523180554661016,-23,0,-10,49,0,-85,-50,-75
1523180554662014,40,18,-3,57,-33,22,19,47
1523180554662014,-37,-26,16,-26,-56,-15,-23,-19
1523180554684117,-72,-18,-16,-2,-40,-29,-6,-18
1523180554684117,28,2,37,-10,96,4,-42,12
1523180554685073,44,0,-44,9,-46,11,44,21
1523180554685073,-21,6,-16,11,22,73,51,11
1523180554699115,26,2,11,-4,58,-23,-43,-13
1523180554699115,15,3,9,-13,18,-50,-15,-20
1523180554700115,21,7,4,3,16,-118,-15,-3
1523180554700115,-85,-18,-15,-9,70,73,40,30
1523180554721249,18,-2,19,14,61,-27,-5,-47
1523180554721249,30,24,57,0,-90,-19,11,49
1523180554722174,18,-41,-81,-66,6,11,0,-16
1523180554722174,36,15,40,37,17,-48,-42,-28
1523180554744231,-76,-8,-3,-19,27,-19,-14,-13
1523180554744231,43,4,-1,-11,-63,-21,-10,58
1523180554745355,-16,5,48,34,18,16,2,-80
1523180554745355,-17,15,-5,45,-25,-15,24,7
1523180554759272,43,-5,-32,-18,6,16,-6,-2
1523180554759272,28,10,1,21,7,96,19,-12
1523180554759272,-7,-7,6,-26,-105,-38,-40,42
1523180554759272,67,9,9,-17,-11,-83,1,20
1523180554781332,-25,-1,-12,18,-8,44,6,24
1523180554781332,6,-5,-3,-57,13,-27,-3,-54
1523180554782337,-12,-5,-44,55,-9,16,8,-16
1523180554782337,-61,-17,29,-1,44,15,-7,-2
1523180554804392,27,7,19,10,-50,-54,3,10
1523180554804392,37,-17,-51,-27,28,-13,23,16
1523180554804392,-39,13,35,-21,-54,6,-36,5
1523180554804392,-62,-3,-21,-46,-68,-65,-38,-91
1523180554818429,62,0,-6,43,-68,-75,12,37
1523180554818429,-6,2,1,50,39,56,16,36
1523180554826687,-12,0,38,20,26,47,-21,-43
1523180554826687,28,7,-39,-47,-53,-112,-35,15
1523180554841490,22,-1,2,-6,-28,13,13,-41
1523180554841490,-115,-17,10,-8,65,42,26,-17
1523180554842494,27,-1,6,72,45,123,51,55
1523180554842494,0,-4,1,1,13,17,-33,0
1523180554863548,8,8,3,-40,-11,-59,-52,-33
1523180554863548,3,-23,-42,-2,-74,-59,4,-1
1523180554864555,3,-3,41,-31,6,4,-4,24
1523180554864555,23,4,-4,46,-10,16,29,5
1523180554878826,-8,-1,-5,11,83,41,13,1
1523180554878826,-24,9,-8,11,10,-2,-33,2
1523180554886621,22,6,-2,-40,-66,-49,17,-3
1523180554886621,-50,-3,31,26,-43,-3,-30,-13
1523180554901650,-33,-14,-13,-37,-37,20,2,29
1523180554901650,70,-5,-12,3,34,28,19,-6
1523180554902654,-58,-9,-16,-49,-89,-108,-38,-72
1523180554902654,-32,11,25,41,15,80,54,34
1523180554923709,-15,5,10,-37,46,-6,26,14
1523180554923709,47,-13,-14,13,12,22,-15,41
1523180554924711,-1,4,13,-5,116,22,-16,-4
1523180554924711,109,-10,-48,-54,-17,-114,-68,-26
1523180554938748,-97,4,31,15,-41,-72,-29,-22
1523180554938748,4,4,-6,17,72,61,105,26
1523180554946770,50,10,23,2,-42,5,6,15
1523180554946770,-51,-27,-42,-7,52,-20,-16,-26
1523180554961813,59,6,-10,-7,3,-70,-49,-4
1523180554961813,-19,-2,14,4,-41,-120,-46,-8
1523180554961813,26,7,5,-9,-3,111,49,-7
1523180554961813,-39,8,3,-18,-5,-19,-33,30
1523180554983868,48,-6,8,22,-56,33,32,32
1523180554983868,-33,-8,-14,20,-44,6,-4,-66
1523180554984871,-54,-18,-1,-5,-62,-28,-1,-5
1523180554984871,-24,1,-8,-11,-51,21,21,15
1523180554997909,72,17,2,18,101,66,20,4
1523180554997909,-33,3,0,-25,-34,-21,-37,34
1523180555006935,-19,-14,-18,-5,64,-1,-13,-14
1523180555006935,2,-4,15,-2,15,-68,-50,-43
1523180555021204,-3,1,-9,22,-73,-49,-8,-8
1523180555021204,24,13,4,-2,100,115,61,27
1523180555021970,33,-4,-20,-10,40,34,-1,23
1523180555021970,29,7,19,17,-57,9,9,16
1523180555044036,-12,-2,-11,-26,22,-9,-9,-15
1523180555044036,35,7,-5,-25,-27,-88,-63,11
1523180555045032,-74,6,13,32,35,-47,37,-15
1523180555045032,45,1,-6,10,9,28,19,-20
1523180555058066,-64,-15,-17,-18,-44,61,24,-6
1523180555058066,25,9,35,1,11,-34,-6,-34
1523180555066087,10,-6,-58,-36,-69,-53,-41,45
1523180555066087,-80,-12,8,12,-13,72,51,4
1523180555081126,87,6,11,42,-7,19,-6,-28
1523180555081126,-51,-7,7,4,52,22,52,19
1523180555082134,67,8,15,-11,-35,-45,-4,-8
1523180555082134,-25,-4,-29,-19,-2,-44,-21,-24
1523180555104187,-57,-10,-5,4,18,-6,2,20
1523180555104187,9,-10,-26,-39,-5,71,17,-1
1523180555105190,-43,14,39,52,32,3,-21,-49
1523180555105190,97,8,7,13,46,-56,-27,49
1523180555118226,56,0,-2,-35,-31,3,-7,-3
1523180555118226,-109,-15,-14,-17,-1,3,4,-23
1523180555126245,25,6,5,3,54,38,18,22
1523180555126245,30,0,-7,17,11,37,69,1
1523180555141288,0,-3,6,-24,-1,69,-6,-10
1523180555141288,-27,-5,-10,39,-15,-44,-12,-6
1523180555142289,54,-5,-18,-47,-128,-30,-14,13
1523180555142289,24,7,9,57,41,-34,-40,22
1523180555164354,-96,-6,-9,-1,47,-64,7,-57
1523180555164354,-39,1,-5,-2,-53,71,14,-20
1523180555165352,6,-1,9,4,19,8,61,44
1523180555165352,27,1,-10,-7,6,60,1,-4
1523180555178620,42,-1,-5,9,48,-25,2,36
1523180555178620,-35,-10,2,-6,-69,-59,-61,-31
1523180555186406,-24,2,26,10,-37,-61,-17,1
1523180555186406,12,-1,-12,18,64,45,29,-3
1523180555201489,8,5,1,-10,3,56,44,12
1523180555201489,-8,1,-14,16,-65,-66,-20,-6
1523180555202450,1,-4,9,-13,-21,3,-13,-12
1523180555202450,48,13,17,-18,-33,7,-33,13
1523180555223505,-79,-9,7,2,-37,-20,-28,-4
1523180555223505,51,3,8,10,-31,-99,0,-41
1523180555224508,-17,5,-4,14,85,91,30,-9
1523180555224508,40,-1,-17,18,76,-48,-25,12
1523180555238548,13,-4,-4,-11,15,59,20,2
1523180555238548,7,5,8,-21,-37,-27,-14,29
1523180555246568,-23,-11,-29,14,7,29,5,-7
1523180555246568,-7,3,20,24,41,64,6,-20
1523180555261611,10,4,6,-13,-22,-34,-30,28
1523180555261611,18,3,12,49,31,-9,-12,12
1523180555262610,1,-2,-7,-41,-71,2,20,1
1523180555262610,-30,-5,-22,-40,-90,25,-18,-26
1523180555283667,38,-1,17,16,4,-49,-8,-7
1523180555283667,-29,2,0,-19,27,3,6,-13
1523180555284669,-33,-3,-1,8,61,-29,17,4
1523180555284669,-5,-3,-3,-9,6,-22,-4,15
1523180555298705,14,3,5,6,-28,10,-8,42
1523180555298705,77,7,-19,-8,-56,-28,-28,-33
1523180555306727,-53,-13,-19,-15,70,-1,-5,-15
1523180555306727,-18,0,20,-26,-125,75,38,-10
1523180555321767,-11,2,2,10,38,-17,-7,-17
1523180555321767,22,-3,-6,-23,13,22,20,32
1523180555321767,14,4,-15,58,23,-35,-35,7
1523180555321767,-12,1,19,-3,25,-87,-31,6
1523180555343826,2,-11,-15,10,-14,-19,-11,-26
1523180555343826,6,-4,9,-24,45,84,9,-20
1523180555344830,-22,1,1,3,-68,-47,-52,-6
1523180555344830,1,-11,-33,-68,-75,-69,18,15
1523180555359867,40,17,31,57,-48,96,68,11
1523180555359867,36,5,11,-11,-15,-47,-37,3
1523180555366886,-3,-11,-22,-31,-7,11,26,16
1523180555366886,-12,0,-3,-13,-32,-32,-23,0
1523180555381931,-38,2,6,-2,-13,-11,18,-16
1523180555381931,9,1,4,14,113,8,2,3
1523180555381931,22,-13,-39,-29,-71,14,-31,2
1523180555381931,28,4,3,-25,-32,-45,3,12
1523180555403985,-71,-6,-7,12,56,-7,25,-33
1523180555403985,5,-2,-3,9,43,20,2,35
1523180555404987,-18,0,11,-29,-82,25,-13,-36
1523180555404987,51,8,27,10,42,-31,13,36
1523180555418031,-8,-7,-19,31,9,71,0,-19
1523180555418031,-9,7,-17,-21,-18,-27,-11,8
1523180555426140,22,9,10,-5,57,13,8,15
1523180555426140,-21,-7,-13,-25,2,60,-22,-50
1523180555442087,49,10,8,-9,-49,-44,11,39
1523180555442087,-30,-15,8,20,57,97,8,-10
1523180555443090,66,7,2,20,6,14,0,-8
1523180555443090,-25,4,32,4,20,-31,-4,-12
1523180555464145,-26,4,-57,-20,4,-30,-39,11
1523180555464145,-4,-5,26,7,-55,-82,15,-5
1523180555465156,33,-17,-33,-27,-28,85,10,24
1523180555465156,8,6,36,61,37,9,13,-9
1523180555487208,-35,-2,-14,-25,-9,-86,-39,-42
1523180555487208,18,-7,-5,-12,-80,7,14,50
1523180555488210,-87,-3,16,24,93,6,-12,-54
1523180555488210,-43,-4,-3,-14,21,22,60,-18
1523180555501246,21,-10,-10,-31,-86,-37,-43,45
1523180555501246,-7,7,-3,21,76,15,10,-33
1523180555502245,17,8,12,12,-20,-76,-41,0
1523180555502245,-31,-18,-20,-44,-27,30,25,27
1523180555524304,48,5,13,64,-15,11,15,16
1523180555524304,-13,-15,-10,-30,-21,-7,15,-43
1523180555524304,-52,8,4,10,-3,-44,4,-2
1523180555524304,42,-8,-10,0,-59,-87,-40,1
1523180555547370,8,2,9,-42,10,26,1,1
1523180555547370,-53,-4,12,40,-53,78,34,19
1523180555548368,66,10,0,7,58,31,16,31
1523180555548368,-5,-4,-2,18,-82,4,-6,-1
1523180555561404,6,-8,4,-8,65,-40,-26,3
1523180555561404,-28,-4,-18,-5,69,-60,-28,-49
1523180555562406,-5,3,16,-12,-75,1,16,11
1523180555562406,-18,-3,-28,-10,-11,-2,-5,-15
1523180555583462,24,7,33,-13,72,10,6,7
1523180555583462,35,-3,-19,90,80,2,-15,17
1523180555584464,-26,4,7,-35,-16,12,-3,-9
1523180555584464,-6,-8,-6,-12,-5,-58,5,1
1523180555607526,9,-7,-20,14,14,85,23,10
1523180555607526,28,13,18,-28,-103,-52,-10,8
1523180555607526,6,-9,7,6,-7,-19,-31,4
1523180555607526,-38,-1,-16,0,65,-34,-22,-40
1523180555621801,10,1,-6,-21,21,59,73,32
1523180555621801,28,9,19,20,-31,103,62,-13
1523180555622566,0,-3,-13,19,0,16,-7,16
1523180555622566,-55,0,7,-10,9,-14,-34,-20
1523180555643623,5,-6,1,-6,16,-27,-61,-25
1523180555643623,-7,-1,-21,-5,-109,-79,-28,23
1523180555644624,-12,-2,23,11,95,87,44,-12
1523180555644624,60,-4,-21,-38,-40,-67,-8,20
1523180555667689,-44,-5,-6,80,-15,88,69,-27
1523180555667689,27,-5,-2,-53,18,62,20,32
1523180555667689,14,1,16,27,5,-10,-18,3
1523180555667689,17,8,-6,-11,25,6,-20,28
1523180555681728,-29,-2,-1,-33,-94,-97,-62,-81
1523180555681728,-36,-4,7,-5,35,-105,23,0
1523180555681728,31,3,-5,25,-2,92,46,27
1523180555681728,5,4,4,31,84,44,17,-14
1523180555703782,-5,2,6,-22,-18,-17,-22,21
1523180555703782,-24,-12,-17,-7,-72,-59,-53,27
1523180555704784,-45,-14,-15,-45,-3,-48,1,-87
1523180555704784,-47,-3,28,7,-22,82,37,13
1523180555726845,-2,3,-17,14,3,-53,-5,10
1523180555726845,28,-15,-15,-13,21,68,-8,-8
1523180555727847,23,-12,-44,-36,-94,-107,-39,32
1523180555727847,16,1,4,-11,51,39,11,-35
1523180555741883,-17,11,13,-3,1,33,6,6
1523180555741883,19,6,16,3,16,8,-15,-10
1523180555741883,52,1,3,4,24,-29,13,59
1523180555741883,-53,-3,-19,26,-40,-57,-12,-47
1523180555763946,-45,-11,10,-31,-49,27,4,-15
1523180555763946,-13,-8,-24,-10,-43,-14,9,-27
1523180555764949,72,18,16,-16,-28,14,13,65
1523180555764949,10,11,11,49,32,34,-8,13
1523180555787003,-34,-8,-18,-7,-32,-65,-27,-27
1523180555787003,1,-4,-1,15,61,14,6,-11
1523180555788006,2,-14,-15,-9,45,11,-28,-7
1523180555788006,23,3,-6,13,-35,-31,25,45
1523180555801040,23,4,25,7,11,86,50,41
1523180555801040,-15,1,-16,0,4,-41,-20,-48
1523180555802042,-25,8,28,13,-25,-9,2,-9
1523180555802042,-5,-10,-32,-6,-18,-21,-25,-11
1523180555824102,33,7,2,-30,20,-28,8,10
1523180555824102,12,7,17,10,18,53,6,3
1523180555825104,-31,5,13,3,5,43,-1,-39
1523180555825104,-34,-2,22,-25,-8,37,19,12
1523180555847169,28,-18,-61,9,9,-64,-38,-15
1523180555847169,-26,5,19,-5,48,73,34,24
1523180555848170,16,4,-11,9,-58,-86,-77,-4
1523180555848170,4,-4,24,-18,115,99,74,10
1523180555861201,-8,3,22,12,-14,17,11,-28
1523180555861201,21,3,12,2,5,7,-13,26
1523180555862203,-36,-8,-26,19,21,-5,8,-36
1523180555862203,29,7,-3,-24,-54,-32,-44,16
1523180555884263,18,-2,-17,16,40,4,1,33
1523180555884263,-7,-9,-38,-37,-4,-25,-12,-11
1523180555884263,-44,7,16,-3,-50,-36,27,-15
1523180555884263,39,-3,-8,-2,4,38,8,7
1523180555907325,4,7,40,28,29,-8,-30,12
1523180555907325,-99,-12,16,-36,-70,-62,-36,-64
1523180555908326,37,-3,-36,34,115,86,38,44
1523180555908326,18,0,18,26,-43,36,23,0
1523180555921598,-20,0,-6,-32,-27,-21,4,-5
1523180555921598,43,4,-4,21,78,-46,-16,45
1523180555922363,-32,-3,-2,-39,-93,-21,-5,-70
1523180555922363,3,-2,7,13,-6,-60,-40,8
1523180555944422,23,3,7,8,15,25,25,5
1523180555944422,-23,-10,-36,-3,-60,56,3,27
1523180555944422,6,-5,2,2,35,-12,-13,-29
1523180555944422,-11,5,-7,-1,55,-37,28,9
1523180555967527,-32,-3,-2,-4,-69,78,-13,-8
1523180555967527,51,1,7,8,21,-10,13,20
1523180555967527,-55,-5,9,-39,-25,-1,-7,13
1523180555967527,14,-5,7,36,32,5,-22,-24
1523180555981548,54,5,-5,-5,68,-80,-42,24
1523180555981548,-93,-4,-1,18,1,27,56,-69
1523180555982524,47,3,5,-24,-104,-12,4,62
1523180555982524,-55,-14,-18,4,39,27,23,-42
1523180556003578,16,4,6,-9,-18,-13,-7,20
1523180556003578,56,7,-10,11,15,-4,-17,15
1523180556004580,14,-7,11,14,26,-38,-26,2
1523180556004580,-25,-11,-13,-68,-90,-6,-26,-8
1523180556027760,-30,4,-4,51,-26,-33,12,-30
1523180556027760,7,7,13,-1,-64,-29,-38,-2
1523180556027760,41,4,2,19,109,36,36,20
1523180556027760,55,9,10,-11,-7,-9,-10,0
1523180556041683,-43,-4,6,28,26,41,13,-23
1523180556041683,17,-2,-14,-20,-40,-75,0,5
1523180556042682,-16,0,10,5,8,68,-5,-13
1523180556042682,28,-3,-18,3,-28,-30,-26,19
1523180556063747,4,-1,4,-36,-40,-6,6,-5
1523180556063747,-12,9,10,6,15,-2,-3,-21
1523180556064746,26,-1,9,23,-24,-26,-1,12
1523180556064746,19,8,-25,-26,-12,15,-5,48
1523180556086801,-21,-4,13,44,82,28,-16,-41
1523180556086801,-53,-6,7,0,1,24,5,55
1523180556087802,-46,-14,-18,-14,-16,-17,27,-70
1523180556087802,2,4,-1,9,17,-33,-24,-7
1523180556100876,54,-6,-10,-37,-23,-21,21,34
1523180556100876,25,-3,6,1,-8,37,-12,-5
1523180556108859,13,8,6,10,-3,-41,-38,-8
1523180556108859,-15,5,12,15,-18,-20,27,7
1523180556123944,21,-1,-2,-5,-24,18,-7,-1
1523180556123944,-7,-1,7,-16,-47,-19,3,-9
1523180556124902,4,2,-4,7,64,47,22,28
1523180556124902,21,0,-4,3,-43,-32,-16,-4
1523180556146961,12,-8,-6,-11,28,-47,-11,23
1523180556146961,-47,10,-6,6,72,89,23,-56
1523180556147966,-88,-10,-9,19,-10,15,3,-18
1523180556147966,30,-18,-4,-13,60,29,15,9
1523180556161232,17,-4,6,-2,-1,44,1,43
1523180556161232,42,2,10,-3,-33,-69,-33,-7
1523180556169020,27,7,0,-26,17,-14,15,-5
1523180556169020,-60,1,4,13,-1,34,-9,-16
1523180556185060,-17,2,-13,3,-72,-24,-4,-34
1523180556185060,24,7,21,-9,48,49,34,21
1523180556185060,7,-11,-18,-22,-39,-4,-20,26
1523180556185060,29,-10,-15,-3,23,-16,1,-17
1523180556207120,-42,4,1,-31,-43,-31,-17,-7
1523180556207120,9,-1,-2,10,-19,26,-1,-3
1523180556208122,-34,-2,24,-1,-15,-41,-18,-20
1523180556208122,-48,-17,-38,12,-43,-53,-31,0
1523180556221157,49,-7,25,5,-9,47,48,31
1523180556221157,18,-4,-18,4,18,37,14,-29
1523180556229379,-4,7,4,10,-13,-1,3,38
1523180556229379,14,12,23,-2,11,-6,-16,-36
1523180556244458,-52,1,-8,-38,-32,-31,-14,-21
1523180556244458,25,0,2,13,94,-30,4,39
1523180556244458,49,3,16,57,38,63,0,-15
1523180556244458,-24,6,12,-6,-43,-29,-31,9
1523180556267279,22,4,-7,1,58,2,-3,-3
1523180556267279,7,-3,-8,-13,-128,-14,-12,-1
1523180556268283,-25,-14,-19,-1,65,-24,8,-8
1523180556268283,3,10,27,28,84,43,9,8
1523180556281318,7,-3,-32,-3,-94,-66,-16,7
1523180556281318,-10,-2,5,-24,7,54,34,-11
1523180556289339,-7,1,7,1,3,2,-5,33
1523180556289339,-9,-7,-10,-14,-96,25,18,-56
1523180556304378,-42,-9,-5,-28,38,-33,-3,-27
1523180556304378,49,7,3,30,-7,-58,-32,27
1523180556304378,10,10,5,-4,-7,-18,-17,2
1523180556304378,-15,0,6,1,-4,44,53,29
1523180556327444,28,3,-3,-32,-3,-9,-1,-7
1523180556327444,-29,3,6,36,17,-5,-3,-8
1523180556327444,-39,-25,-26,-24,-22,-57,-22,-25
1523180556327444,6,-3,-10,-33,-98,12,-19,-8
1523180556340474,-30,2,33,62,83,58,29,15
1523180556340474,17,2,-1,-18,79,68,59,17
1523180556348498,26,9,4,-33,-43,-24,-21,4
1523180556348498,-20,-15,-43,1,22,17,-12,-14
1523180556363538,4,0,17,-24,35,-30,0,7
1523180556363538,-10,-13,-39,-19,-31,-83,-30,0
1523180556364538,12,0,-4,29,-65,33,6,-13
1523180556364538,26,7,4,9,73,14,32,35
1523180556387599,-32,-3,4,2,-4,34,-27,-33
1523180556387599,61,2,19,-20,-75,-59,11,46
1523180556387599,-104,-5,-7,4,92,-34,4,-102
1523180556387599,27,-1,-2,-21,-87,32,32,24
1523180556400634,6,3,-2,-1,15,85,51,32
1523180556400634,-22,-4,12,25,16,-35,-45,-22
1523180556408655,49,3,4,-22,-38,-22,-3,33
1523180556408655,3,0,6,28,15,-47,-19,-20
1523180556423701,25,-2,-50,-24,21,-34,-45,5
1523180556423701,-26,-2,10,-22,2,-32,11,-16
1523180556424700,-30,9,-9,-2,20,74,18,11
1523180556424700,-7,3,36,21,-1,36,36,-5
1523180556446764,9,-13,-12,15,57,-36,-34,-1
1523180556446764,7,-4,-8,-26,-78,-26,-19,-2
1523180556447761,30,10,12,56,-26,15,21,0
1523180556447761,22,3,-3,-31,72,19,-44,45
1523180556469818,1,6,-7,-18,-62,4,50,-15
1523180556469818,-102,-16,19,68,23,-9,-33,-76
1523180556470821,41,-7,-5,-43,-24,-38,-24,32
1523180556470821,-14,0,-16,-10,-41,-60,6,-37
1523180556483857,35,1,5,21,80,83,6,33
1523180556483857,32,2,2,-33,14,9,-7,-16
1523180556484858,-56,-3,-12,-2,43,26,6,-8
1523180556484858,-57,-13,7,-2,-60,-125,-43,1
1523180556506918,49,1,-4,-4,61,57,36,2
1523180556506918,-60,1,-18,-12,-10,92,36,14
1523180556507920,63,-4,24,9,-5,-40,-8,7
1523180556507920,35,4,-6,-2,14,32,-12,19
1523180556529980,-51,-3,6,-19,30,-64,-35,-18
1523180556529980,29,9,-8,15,2,-38,-5,-4
1523180556529980,-1,-15,-7,34,-29,75,66,3
1523180556529980,-20,-1,-14,-28,-8,14,-4,-8
1523180556544016,13,-4,-4,2,-47,-45,0,20
1523180556544016,62,4,8,-10,-4,-28,-10,31
1523180556545018,-6,2,-14,-12,52,18,-23,-35
1523180556545018,-99,-7,13,21,-21,-2,5,-5
1523180556567079,9,-5,1,2,-78,-57,-29,-5
1523180556567079,1,14,19,46,41,72,-1,36
1523180556568080,21,-3,7,-9,-18,-25,11,-17
1523180556568080,55,-1,-22,-32,31,18,-2,11
1523180556590137,-14,-1,9,13,48,-29,-27,11
1523180556590137,-39,-13,-20,-17,-26,13,26,-54
1523180556590137,32,10,27,5,-41,-36,-26,12
1523180556590137,10,2,-17,22,90,31,44,0
1523180556604176,-26,-11,-35,-9,-63,-11,-14,-3
1523180556604176,76,-4,24,0,15,-21,4,23
1523180556605179,-102,-15,-12,-17,-4,9,-17,5
1523180556605179,27,2,9,-3,-17,-48,-26,-28
1523180556627236,19,3,8,-9,11,-27,-16,-12
1523180556627236,-78,-18,-16,-4,-79,-64,-1,-22
1523180556628239,-2,12,-9,-10,26,40,35,26
1523180556628239,25,8,20,48,22,28,1,20
1523180556657343,-30,-2,-1,-6,-60,18,8,-23
1523180556657343,1,-6,-4,-47,-32,-19,-23,-22
1523180556658321,4,-4,-6,13,46,-118,-36,-6
1523180556658321,8,-2,-1,-10,-53,61,15,-1
1523180556664339,10,2,-15,3,-15,13,23,5
1523180556664339,2,10,-3,22,56,57,1,10
1523180556664339,12,7,14,-9,-29,-23,23,5
1523180556664339,33,-3,-8,11,14,65,8,39
1523180556687397,-9,0,5,8,88,55,26,-42
1523180556687397,-31,-6,-1,-9,51,-26,-29,-3
1523180556688405,-38,-9,-19,-39,-21,7,-36,-1
1523180556688405,-18,0,1,15,-26,-91,25,-37
1523180556709456,-2,6,16,14,-44,61,15,16
1523180556709456,39,1,-13,9,-16,41,15,1
1523180556710458,38,-1,41,18,26,18,-2,16
1523180556710458,-10,-5,-37,-28,11,-72,-29,-1
1523180556723491,-7,-6,0,10,-100,-51,-10,-7
1523180556723491,19,12,-2,2,54,24,18,25
1523180556724497,26,-4,-10,-51,-57,-46,-11,-6
1523180556724497,-78,0,25,48,71,43,19,-4
1523180556747577,8,-3,8,22,-50,-11,10,-6
1523180556747577,8,3,-2,-4,57,-12,-28,22
1523180556747577,39,-7,-23,-31,-50,-17,-5,1
1523180556747577,10,0,2,-8,-11,-99,-52,0
1523180556769614,-31,6,3,-8,-10,22,65,-38
1523180556769614,-49,-1,12,-3,37,63,-12,-28
1523180556770617,37,6,-4,48,14,14,37,41
1523180556770617,15,-6,1,-8,-23,-10,-16,-12
1523180556783652,-4,-6,5,-1,29,-42,-75,-7
1523180556783652,41,-6,1,-8,-52,-34,-8,33
1523180556784655,-36,1,-32,-1,-16,-10,6,-55
1523180556784655,33,-6,-7,-38,-28,54,-6,37
1523180556806718,6,4,6,28,114,-52,0,12
1523180556806718,-12,4,8,12,-29,38,34,-12
1523180556807715,-4,-2,-9,-60,-49,8,-28,-1
1523180556807715,-14,-3,6,52,-41,8,8,-5
1523180556829778,1,-1,0,7,-18,27,-4,-4
1523180556829778,26,-1,-12,-22,12,-62,-25,-26
1523180556830777,42,1,5,9,52,38,44,57
1523180556830777,-25,0,-15,-90,18,29,11,-33
1523180556844050,-20,-2,1,11,-47,42,-22,-13
1523180556844050,13,4,8,35,2,-23,-21,30
1523180556844815,-50,-5,0,13,-50,-66,-41,-46
1523180556844815,46,4,-3,-22,6,-33,60,8
1523180556874895,31,3,12,1,66,96,46,20
1523180556874895,-15,-10,-10,-14,22,-53,-18,-16
1523180556874895,5,-1,-7,-20,-98,-28,-27,0
1523180556874895,-19,0,13,40,42,4,-12,-4
1523180556889935,31,14,4,-32,16,-64,-10,16
1523180556889935,43,1,-28,14,-10,10,12,12
1523180556890939,-3,-1,22,-4,16,22,20,4
1523180556890939,-31,-20,9,48,-23,-21,-35,-13
1523180556903972,32,0,-5,-7,-57,-24,-3,1
1523180556903972,-31,0,-4,-60,-57,-26,-5,-33
1523180556904975,44,9,-3,12,-1,51,44,16
1523180556904975,11,7,-15,-5,23,29,-1,21
1523180556927268,-7,-11,14,5,16,-16,-39,-3
1523180556927268,-69,-8,-3,16,-77,-41,-5,-17
1523180556928035,-6,4,-4,-9,12,21,7,-32
1523180556928035,27,9,20,18,16,76,48,37
1523180556950094,2,-3,-12,17,54,-30,-6,-8
1523180556950094,46,1,-14,-35,-58,16,0,31
1523180556950094,-77,-9,-9,30,26,-54,-39,-15
1523180556950094,-2,-6,5,-46,-32,-28,-21,-20
1523180556964132,-5,-7,-5,14,-64,-25,-14,5
1523180556964132,-32,-8,-11,-21,81,9,12,-12
1523180556965135,15,2,5,-21,81,-20,7,11
1523180556965135,35,10,9,71,24,13,12,20
1523180556987194,19,2,-14,-57,-67,-5,-12,-1
1523180556987194,-68,-17,2,-32,-17,-49,-29,-21
1523180556988197,-82,-16,5,38,4,2,56,-44
1523180556988197,43,6,4,3,27,-13,-22,15
1523180557010306,-19,3,-12,-15,-29,72,8,7
1523180557010306,18,9,2,-6,6,9,9,-8
1523180557010306,56,4,-11,-19,-15,6,-40,35
1523180557010306,-46,-1,19,11,-8,-9,9,-29
1523180557023289,0,-2,13,69,31,-7,13,-13
1523180557023289,29,-4,-28,-16,-86,-9,-7,25
1523180557031311,9,-5,11,27,51,-50,-16,-4
1523180557031311,10,-5,-39,-69,-52,16,13,1
1523180557047354,-12,4,-7,-45,2,43,12,3
1523180557047354,-6,-2,37,78,47,15,16,4
1523180557048356,27,11,27,17,-22,-2,-25,9
1523180557048356,3,-2,-20,-28,57,-67,-25,-1
1523180557069412,-10,-12,-11,-21,-61,9,28,-2
1523180557069412,-12,0,16,72,64,41,3,10
1523180557070415,35,-1,-9,-30,-1,33,-6,-13
1523180557070415,-44,3,24,10,-50,14,-12,-24
1523180557083449,-29,-1,-24,-29,-106,-95,-30,1
1523180557083449,43,-8,-6,-23,95,8,35,49
1523180557091471,-2,2,7,4,-26,125,49,6
1523180557091471,60,6,7,54,17,-10,-7,-2
1523180557107747,-14,6,16,-35,50,-6,-12,-21
1523180557107747,-7,4,5,-11,-128,-25,-28,-10
1523180557107747,11,3,-11,-3,45,-41,-25,8
1523180557107747,-12,-17,-8,-27,-80,-44,20,-7
1523180557129575,6,-1,2,15,106,6,4,6
1523180557129575,19,2,-4,-22,-6,-20,-7,18
1523180557130587,-43,-2,-3,19,-41,-2,-11,-50
1523180557130587,7,13,16,-27,-2,2,-13,7
1523180557143610,-53,-19,-18,0,-35,-46,6,-18
1523180557143610,9,-4,-5,12,57,85,42,17
1523180557151669,3,4,-2,-21,-68,-19,-4,-23
1523180557151669,29,6,10,10,85,-29,-38,16
1523180557167673,-25,6,1,-11,0,-15,-4,9
1523180557167673,-3,3,3,15,-43,44,13,-9
1523180557167673,76,-7,-13,-30,-19,-11,8,58
1523180557167673,-89,-5,-15,-35,-59,-47,-19,-51
1523180557189739,3,-2,-3,-1,20,23,10,-8
1523180557189739,41,5,3,-39,-53,-64,-16,25
1523180557190733,-83,-5,5,58,69,36,-15,-53
1523180557190733,12,-6,-3,-28,-2,-18,2,10
1523180557203772,22,8,6,29,-51,13,21,23
1523180557203772,-2,-14,-10,72,54,-1,19,-22
1523180557211792,9,2,14,8,13,39,-2,16
1523180557211792,-4,-4,-14,15,-5,24,13,16
1523180557227856,3,-6,-5,-34,-23,-20,-41,-33
1523180557227856,65,16,7,-11,19,5,-5,20
1523180557227856,-47,-23,-33,-72,-42,-17,-5,10
1523180557227856,-35,6,14,37,-18,-5,24,-62
1523180557249893,55,15,13,87,119,117,51,30
1523180557249893,-23,-15,-8,-50,-37,-42,-34,-18
1523180557250894,-27,0,7,31,99,-25,22,2
1523180557250894,-10,-15,-22,-70,-58,-49,-37,16
1523180557262930,50,1,-3,-57,-13,-8,5,-2
1523180557262930,-81,4,24,82,30,28,3,-21
1523180557271949,33,-1,-17,-17,7,23,-1,4
1523180557271949,-1,-13,-12,4,55,18,2,-7
1523180557286990,-3,-6,-12,-56,-71,-108,-42,10
1523180557286990,26,13,23,18,-59,35,-1,-20
1523180557287993,-76,-3,-14,-5,-24,-35,13,3
1523180557287993,56,-3,0,10,6,114,20,82
1523180557310287,-21,-9,8,-14,-5,-83,-31,-92
1523180557310287,-33,3,-11,-32,-12,-13,17,20
1523180557310287,40,3,4,-11,-75,-52,3,-38
1523180557310287,-13,13,29,40,65,50,14,-2
1523180557323087,-29,-22,-20,20,77,17,-21,19
1523180557323087,7,3,1,-6,-27,-13,1,-5
1523180557331107,45,3,-19,1,-31,-41,-10,19
1523180557331107,42,3,-14,4,49,23,64,22
1523180557346152,9,7,18,-8,-33,-18,-5,0
1523180557346152,-33,-3,-3,0,91,-34,-10,-20
1523180557347151,15,-19,-6,-14,1,42,-9,22
1523180557347151,-73,-10,2,15,9,-38,-42,-37
1523180557369209,-17,7,10,48,-49,-15,10,-15
1523180557369209,8,-15,-35,-29,61,49,12,6
1523180557370212,13,7,6,-24,-16,18,1,-3
1523180557370212,51,6,-1,30,55,-42,7,5
1523180557392270,-28,-1,12,36,-37,2,-9,48
1523180557392270,-22,-3,23,8,-38,-18,-21,-16
1523180557393273,7,2,-1,16,62,-55,12,-25
1523180557393273,25,-1,-10,-43,-79,60,0,0
1523180557407547,-46,-9,-1,5,65,34,8,9
1523180557407547,43,1,-25,-39,-26,-29,5,12
1523180557408313,9,11,5,76,32,61,-6,41
1523180557408313,-93,-18,18,28,-75,-54,-30,-79
1523180557429371,74,-14,1,-16,1,-21,-41,6
1523180557429371,-35,-13,-24,-48,-69,7,22,18
1523180557430373,-22,2,-6,-6,6,-3,10,-19
1523180557430373,71,13,-1,16,3,7,11,27
1523180557452429,-29,8,9,29,-12,12,7,-13
1523180557452429,34,8,12,6,58,-97,-48,48
1523180557452429,-54,-4,-6,-2,34,55,-9,-61
1523180557452429,36,0,-5,34,41,38,1,15
1523180557466513,-14,-4,-7,-36,-2,-17,5,-11
1523180557466513,58,3,-13,12,3,-21,-11,5
1523180557467470,-38,-1,28,19,-99,-48,-5,16
1523180557467470,-20,-1,11,23,43,17,-9,-13
1523180557489529,63,10,6,-24,16,-25,-1,17
1523180557489529,-27,7,5,1,8,22,18,-35
1523180557490531,39,-2,-4,-28,9,47,29,15
1523180557490531,10,-8,-26,-38,-57,-11,-12,-1
1523180557512592,-37,-9,-6,13,7,23,18,38
1523180557512592,-64,-3,6,30,55,53,-17,-71
1523180557512592,32,7,5,-35,-33,-105,-15,-5
1523180557512592,34,9,-10,-79,-100,60,27,35
1523180557526862,-12,4,24,84,91,90,44,-14
1523180557526862,45,-7,-4,-37,16,-5,-10,48
1523180557527629,-49,-5,4,26,-8,10,17,-22
1523180557527629,-19,-1,-14,-31,-67,-89,-35,-22
1523180557549688,5,-4,-39,-64,-94,-41,-2,1
1523180557549688,-22,2,42,50,9,61,24,-15
1523180557550692,45,5,9,30,86,-22,-13,22
1523180557550692,-21,-6,-6,-29,15,-45,-21,6
1523180557572753,-15,-5,-5,45,-38,39,16,-14
1523180557572753,58,2,-9,-14,-23,-52,-6,19
1523180557573752,-23,2,13,18,-27,-16,-10,7
1523180557573752,-92,-5,19,6,44,-9,-23,-48
1523180557585784,13,-8,-32,-15,-11,16,-2,-4
1523180557585784,21,4,-7,-43,-58,70,28,-9
1523180557594807,27,0,-21,-46,-25,-41,2,62
1523180557594807,-20,7,30,111,44,55,27,4
1523180557610085,-9,8,19,-13,-67,-2,-15,-14
1523180557610085,8,-5,-8,6,20,-13,7,-19
1523180557610850,-24,4,-10,-41,-40,-11,-34,2
1523180557610850,39,-2,-1,6,-25,10,16,15
1523180557631908,-12,-11,2,-25,-14,-39,-27,2
1523180557631908,-16,4,-17,1,-22,-1,8,-16
1523180557633911,29,7,20,1,-3,38,14,1
1523180557633911,20,-11,-32,-48,0,-36,-7,41
1523180557645946,-15,-4,2,18,59,24,0,-37
1523180557645946,-32,2,9,-11,-22,-13,7,-25
1523180557654967,10,4,4,88,81,13,-2,-11
1523180557654967,-10,-14,-18,-5,72,55,-5,4
1523180557670008,37,-4,-15,-53,-97,-45,-5,33
1523180557670008,-42,-3,-6,6,-13,-11,-19,-23
1523180557671011,56,8,6,-14,22,-5,21,12
1523180557671011,-70,-6,6,-13,19,5,10,-10
1523180557692068,56,8,-4,7,24,-15,-49,4
1523180557692068,0,-9,-9,-46,-17,16,10,10
1523180557694071,-7,-7,-12,16,28,-13,37,-43
1523180557694071,29,8,3,-51,-45,-42,-1,2
1523180557706341,7,16,38,80,47,63,19,19
1523180557706341,19,-9,-8,-30,-19,-18,-40,29
1523180557715128,-40,-22,6,-37,-4,-37,-49,-16
1523180557715128,23,13,-12,-23,-74,-58,-11,-7
1523180557729171,-45,11,-10,-12,104,-20,-8,-42
1523180557729171,1,-2,10,36,21,37,55,16
1523180557731170,32,-15,-2,-7,-73,80,-14,26
1523180557731170,-42,-3,13,-13,20,5,-3,-22
1523180557752227,62,12,-8,0,-62,-14,8,28
1523180557752227,-23,15,15,62,44,-16,-25,11
1523180557754231,-12,-1,-14,-38,-27,7,14,9
1523180557754231,-7,-3,10,3,-20,7,1,-56
1523180557766263,38,-12,-14,-48,-83,-14,-46,15
1523180557766263,-39,0,-10,-39,-9,-48,6,-45
1523180557774285,89,23,18,51,60,108,49,28
1523180557774285,39,7,-7,11,38,-26,-1,24
1523180557789326,-70,-12,-8,-23,15,91,66,-19
1523180557789326,38,-1,39,23,-25,-70,-44,10
1523180557791333,-6,-13,-12,46,48,-63,8,11
1523180557791333,22,0,-13,-14,-30,79,2,-5
1523180557812387,11,-12,-19,-26,28,-85,-21,1
1523180557812387,-15,12,-1,-29,-13,54,26,11
1523180557813433,-28,5,-10,-36,-21,14,1,-15
1523180557813433,12,-7,31,43,48,-22,0,25
1523180557825423,-51,-14,-10,1,-18,7,-14,-29
1523180557825423,55,-3,-9,3,-104,-79,-13,7
1523180557834445,-61,8,3,-11,79,-14,0,-37
1523180557834445,-15,0,-11,21,-10,71,43,29
1523180557850487,-119,-14,5,-7,27,23,-7,-42
1523180557850487,23,0,-15,-29,5,-13,-30,-26
1523180557851491,46,0,-15,-19,-29,-11,-26,56
1523180557851491,26,-5,12,35,-16,-20,11,1
1523180557872547,17,0,0,-21,2,17,22,4
1523180557872547,34,3,17,79,97,22,-8,60
1523180557873550,-95,4,-4,30,-57,-45,-31,-80
1523180557873550,0,-6,11,-26,-1,-55,-12,6
1523180557885581,41,-3,5,-2,-7,76,24,31
1523180557885581,-43,-14,-40,-17,-32,-19,-19,-45
1523180557894672,98,1,-6,-45,-20,35,15,27
1523180557894672,-76,2,-2,15,-8,10,3,-27
1523180557909880,-60,-10,3,8,-37,-106,-16,-9
1523180557909880,-20,-5,10,-15,21,64,26,-24
1523180557911655,1,-5,0,-30,-43,38,-8,7
1523180557911655,100,8,-5,79,45,-7,-19,33
1523180557939728,-16,4,-2,-26,32,-12,-22,31
1523180557939728,-39,-9,-4,-2,-81,-52,-9,-37
1523180557941730,-21,-5,6,3,23,11,38,26
1523180557941730,59,0,-1,-5,-23,-23,-17,-13
1523180557945746,-31,-1,0,11,19,18,6,-1
1523180557945746,-51,-23,-24,-45,13,56,13,-19
1523180557954765,-3,4,1,-8,-35,-103,-65,-24
1523180557954765,25,-1,-12,-10,-97,-27,48,33
1523180557969808,67,24,36,71,70,17,71,42
1523180557969808,-19,-4,-15,-35,8,-15,10,0
1523180557970809,-5,-7,4,-16,-7,-6,-38,-25
1523180557970809,-30,-8,-20,-58,-35,-56,-24,-55
1523180557991905,27,2,7,7,-15,60,-15,48
1523180557991905,-25,6,28,106,114,9,-17,-49
1523180557993869,4,-6,-5,0,-64,-33,-18,23
1523180557993869,-7,3,-3,-35,78,-46,-46,5
1523180558006136,47,10,-14,11,-76,29,35,-13
1523180558006136,11,2,16,-21,84,98,8,69
1523180558014924,-41,-10,10,7,-25,-7,-7,-40
1523180558014924,-69,-11,-28,-19,15,19,-9,-17
1523180558030009,23,2,7,-41,-39,-39,-11,-14
1523180558030009,40,-2,-25,6,0,6,-1,31
1523180558030968,-6,4,15,34,-14,-18,-14,-3
1523180558030968,-3,1,2,-8,17,-16,32,14
1523180558052023,18,-6,-10,-22,1,40,33,-27
1523180558052023,-8,5,7,-15,-123,-22,-8,-1
1523180558054031,20,5,-11,-71,51,25,25,46
1523180558054031,32,6,16,74,81,50,-17,13
1523180558066060,-64,-10,-9,-32,4,-70,-32,-61
1523180558066060,41,-1,3,3,-85,20,38,19
1523180558075086,-15,-12,-1,-43,-9,65,-3,19
1523180558075086,36,3,-12,-6,-23,-43,-21,1
1523180558090124,-29,4,6,24,35,5,-7,-14
1523180558090124,8,-3,-12,-53,14,-28,-26,-13
1523180558091127,-8,-11,-2,63,59,-7,20,1
1523180558091127,0,1,8,-20,-40,79,12,-18
1523180558112190,26,3,2,38,106,-58,24,50
1523180558112190,-57,6,15,-27,-22,55,-2,-59
1523180558114188,5,-6,-29,-19,-23,-3,-5,-7
1523180558114188,-21,-9,26,46,19,-49,-18,-12
1523180558134244,53,-8,-19,-23,-20,-12,-5,42
1523180558134244,2,-1,-4,-10,22,-30,-5,-7
1523180558136247,-9,11,1,4,-46,-51,23,-40
1523180558136247,-18,9,15,62,55,40,-1,-6
1523180558149285,0,-17,-9,0,-72,-56,-37,-18
1523180558149285,57,7,-4,11,-10,3,34,46
1523180558151286,-30,-8,-15,-18,25,44,-11,-27
1523180558151286,55,13,-11,-51,-114,-78,-6,37
1523180558172343,-59,-2,39,40,-6,51,14,-23
1523180558172343,24,-17,-27,34,24,50,10,9
1523180558173345,23,-13,4,-4,31,-24,-10,-7
1523180558173345,-44,-5,6,-19,15,-49,-34,-15
1523180558185378,30,10,-19,-32,32,-19,-8,9
1523180558185378,10,7,-1,-36,-11,-70,-7,0
1523180558194443,4,6,16,48,-26,12,18,56
1523180558194443,-48,-8,-6,-15,-1,17,-1,-70
1523180558209679,-13,-2,-18,-11,-10,-55,-18,-16
1523180558209679,10,1,9,30,-1,-71,-4,-1
1523180558211447,41,6,2,5,6,54,33,21
1523180558211447,32,-1,1,-28,-8,52,41,60
1523180558232504,-71,-1,7,86,58,107,12,-15
1523180558232504,29,1,-14,-52,-32,-45,-27,20
1523180558233506,-35,-10,0,18,-89,-108,-58,-34
1523180558233506,17,-9,-18,-35,71,-34,1,-13
1523180558245540,27,9,25,-1,14,-10,22,-3
1523180558245540,-18,-6,6,54,22,43,17,0
1523180558254657,6,9,-4,-26,-2,30,-4,-6
1523180558254657,0,-3,-19,-48,-49,7,-9,0
1523180558269602,25,-2,-27,-58,-32,-39,-42,3
1523180558269602,-71,-6,22,19,-29,-86,6,-18
1523180558271607,68,6,3,18,77,28,23,51
1523180558271607,-14,0,6,-5,-15,42,27,-10
1523180558292758,-62,-5,0,-9,10,32,12,-23
1523180558292758,29,-7,-10,-12,-77,-22,-43,3
1523180558293665,-99,-14,-11,-15,38,-32,-4,-63
1523180558293665,10,1,15,12,27,3,-10,4
1523180558314721,61,6,-13,-12,-12,74,36,25
1523180558314721,11,5,17,-10,57,58,26,5
1523180558316728,35,0,-6,-14,-13,-6,-11,13
1523180558316728,-60,-10,10,18,-40,-6,4,5
1523180558328767,7,4,-17,2,23,-62,-55,-21
1523180558328767,-17,-7,4,30,5,-10,-12,-11
1523180558335778,36,-1,-5,-40,-2,-21,-3,-2
1523180558335778,-41,-2,-12,-7,-71,-55,-17,-2
1523180558352827,23,3,8,-3,22,62,27,33
1523180558352827,-27,1,4,11,102,53,4,-6
1523180558353825,23,12,10,17,-76,-34,2,-15
1523180558353825,10,-2,11,83,57,23,0,-1
1523180558374883,-91,-24,-10,-30,-11,-77,-55,4
1523180558374883,22,-6,-28,-50,-49,17,24,-62
1523180558375884,-65,1,7,41,69,89,3,11
1523180558375884,15,1,7,58,-1,18,15,16
1523180558389922,68,-2,12,-80,-47,8,-3,14
1523180558389922,3,-1,-8,63,34,-11,-40,28
1523180558390925,22,-1,-9,-56,-54,-37,-20,-15
1523180558390925,-8,7,12,21,67,-20,3,-16
1523180558411981,-3,-14,-30,15,-45,-10,5,-4
1523180558411981,3,5,-5,-30,-19,-11,8,14
1523180558413985,9,-1,15,13,13,15,4,2
1523180558413985,-37,7,-2,-17,-48,29,-5,3
1523180558435041,81,9,23,35,-25,-71,-8,-15
1523180558435041,-25,5,-8,-11,22,-44,15,1
1523180558436045,-46,-2,5,2,25,90,17,3
1523180558436045,67,-4,-4,-12,67,-25,-10,42
1523180558457335,-20,1,2,11,-92,6,-11,-76
1523180558457335,36,11,5,24,77,65,34,51
1523180558459342,-46,-10,-14,-31,27,-58,-44,-19
1523180558459342,1,-10,-5,-32,-81,-46,-2,-5
1523180558472140,8,0,3,18,91,41,21,63
1523180558472140,-8,0,-1,-34,-35,-47,-23,-56
1523180558474146,27,8,30,46,1,41,26,9
1523180558474146,-48,-13,-42,-40,13,17,0,-21
1523180558495201,34,-4,7,7,-15,-26,9,20
1523180558495201,-45,-9,1,-2,-23,0,-3,-10
1523180558497206,17,2,-5,-2,23,-6,5,32
1523180558497206,48,10,2,-39,-62,-58,-22,-32
1523180558509474,-5,6,2,13,8,12,-27,-40
1523180558509474,-106,-7,4,12,-17,-2,39,12
1523180558516259,9,-9,-9,-9,-20,32,5,-9
1523180558516259,37,-3,-14,-37,-10,-13,-9,21
1523180558532299,53,6,-4,11,45,-82,-18,-21
1523180558532299,16,-1,21,9,-75,7,21,-25
1523180558533303,2,-8,0,66,-20,-36,-26,30
1523180558533303,-19,3,11,22,24,123,58,-5
1523180558555360,7,5,4,-6,1,1,-2,0
1523180558555360,21,0,-16,-32,-13,-53,-39,20
1523180558556363,-2,-8,-16,-44,-40,-28,-21,-24
1523180558556363,-4,3,1,3,-16,-32,0,2
1523180558569399,-5,0,-2,-14,-39,-10,-4,28
1523180558569399,55,-3,-6,-50,-49,-4,3,21
1523180558575455,-87,-2,16,49,91,75,14,-81
1523180558575455,4,-4,-16,-37,-77,-53,-38,16
1523180558592697,-68,-4,2,-13,-21,20,20,-52
1523180558592697,62,13,-2,-2,-15,80,53,35
1523180558593462,41,-7,-16,-43,-9,44,11,19
1523180558593462,0,1,8,16,56,-3,-13,-13
1523180558614558,-40,-15,0,-34,-24,-43,-22,18
1523180558614558,-5,-5,-8,18,22,-41,-28,-12
1523180558616525,3,6,4,15,8,-25,5,-5
1523180558616525,-20,-6,-22,-20,-25,11,5,17
1523180558628557,4,2,1,-17,8,15,2,-25
1523180558628557,-12,9,14,52,112,68,21,-3
1523180558635574,26,8,-6,-12,-25,-58,6,37
1523180558635574,11,-1,10,-37,0,-2,3,-5
1523180558652618,-68,-9,6,37,30,28,12,5
1523180558652618,-4,1,14,9,-35,-66,-35,-28
1523180558653622,30,-12,-42,-3,-18,-8,4,13
1523180558653622,28,7,3,-30,53,29,11,17
1523180558674680,66,18,7,18,-21,-6,9,10
1523180558674680,-38,-16,7,18,12,7,-32,-49
1523180558676683,-39,-8,-3,-19,-51,-87,-32,8
1523180558676683,-24,-13,1,16,5,42,44,-21
1523180558688716,14,4,-23,-16,4,-25,-11,20
1523180558688716,17,4,-5,-25,-81,-68,-35,15
1523180558695740,47,11,15,34,89,78,42,1
1523180558695740,19,6,11,42,-30,-36,18,17
1523180558711781,-109,-14,13,35,-8,12,6,-54
1523180558711781,23,-3,-12,-39,19,4,-18,20
1523180558713783,2,4,-3,-9,-40,-95,-46,-22
1523180558713783,-13,-4,-1,-17,10,-3,-3,-5
1523180558734840,68,9,-4,10,-34,67,14,39
1523180558734840,-45,-4,3,2,51,2,12,-15
1523180558735843,3,-8,2,-20,-28,56,42,13
1523180558735843,-14,4,-11,26,66,18,-31,-21
1523180558748917,19,-14,-12,-40,-48,-31,-4,34
1523180558748917,-6,-6,1,13,-27,-32,5,-27
1523180558755895,-1,9,13,-1,4,34,-18,13
1523180558755895,39,3,-9,12,-24,-58,-10,22
1523180558771936,-12,-1,-2,-1,53,-32,5,-22
1523180558771936,-69,-3,2,-17,49,48,16,-12
1523180558773944,12,4,5,-37,-35,-16,2,-10
1523180558773944,-1,-1,13,47,38,12,-22,0
1523180558795001,11,10,-7,-39,-22,-24,22,6
1523180558795001,38,2,-5,22,13,14,-5,17
1523180558796006,-41,-10,6,-25,4,-56,-17,-13
1523180558796006,2,-10,-10,-7,-4,83,18,9
1523180558808268,25,-2,-8,7,34,-47,-18,28
1523180558808268,-37,6,10,-18,-32,57,4,-45
1523180558817056,49,3,-24,-8,-3,38,7,47
1523180558817056,-53,-12,2,15,-44,-54,1,-52
1523180558832096,-8,0,29,64,27,20,8,6
1523180558832096,42,6,-4,-17,-64,15,11,28
1523180558834103,6,6,-10,-28,-43,-43,-6,1
1523180558834103,-5,-2,0,-31,5,4,-3,6
1523180558855228,3,-8,-14,-15,-21,13,-30,-4
1523180558855228,-10,-2,13,27,86,-37,-30,-27
1523180558856160,0,-3,-11,-4,-10,-76,-4,-13
1523180558856160,-21,5,-4,-19,-18,50,40,13
1523180558868193,22,4,1,27,33,69,13,-11
1523180558868193,42,-1,14,40,2,1,13,43
1523180558877227,-13,-1,11,13,-40,41,-17,-24
1523180558877227,4,-1,-13,-31,30,-32,-35,-2
1523180558892255,-7,0,-6,-11,-49,-34,-2,-8
1523180558892255,7,2,33,10,-27,15,3,20
1523180558894268,1,-6,-42,41,50,-58,-14,-5
1523180558894268,-1,9,22,6,-4,-32,-2,-7
1523180558914314,20,-13,-25,-55,16,88,29,24
1523180558914314,-39,-5,1,19,-4,-3,-5,2
1523180558916321,2,1,17,9,5,-15,-6,3
1523180558916321,-37,-9,-5,4,-68,-68,-44,-37
1523180558928360,45,3,-10,-8,84,-47,14,27
1523180558928360,-35,11,1,-2,33,80,38,-66
1523180558937377,-40,-11,1,-23,-8,26,11,4
1523180558937377,33,5,-14,-5,-16,-7,8,10
1523180558952651,16,9,27,26,-16,-41,-41,16
1523180558952651,44,-2,-22,-18,0,-37,-9,14
1523180558954421,-16,-2,8,-1,18,30,12,-15
1523180558954421,-10,-6,-36,-43,-26,-33,-10,1
1523180558974476,-27,-4,8,48,-4,14,-1,-13
1523180558974476,39,1,-10,-21,28,-27,-8,25
1523180558976482,-11,-1,2,-5,-23,-3,-2,-13
1523180558976482,14,5,32,46,-32,-2,0,15
1523180558988525,-21,1,-10,-2,-36,69,36,-3
1523180558988525,54,-4,-24,-40,-31,1,-28,24
1523180558997537,-88,-11,14,10,65,43,35,-31
1523180558997537,22,4,17,48,74,40,3,-19
1523180559012580,-6,5,-18,-46,-3,-50,-32,1
1523180559012580,-30,-12,-4,12,-85,16,14,23
1523180559013579,58,4,-12,-17,6,-22,-4,31
1523180559013579,-17,1,3,-50,-29,-25,11,-30
1523180559034636,-29,-18,-8,82,85,-22,-36,-14
1523180559034636,10,-1,-9,-41,27,-85,-22,6
1523180559036642,46,12,12,8,-58,44,52,11
1523180559036642,-45,-7,2,-10,4,60,-8,-3
1523180559048675,7,-3,10,-17,-38,-31,-8,-13
1523180559048675,-22,-5,-21,-12,-43,-80,-28,-6
1523180559057695,-53,5,2,-1,15,61,39,-20
1523180559057695,49,3,17,60,39,28,-1,36
1523180559071735,-15,2,3,-27,-19,-37,1,-6
1523180559071735,-4,-8,-3,39,40,76,-3,2
1523180559073739,25,5,2,-40,-64,-62,-32,-18
1523180559073739,13,5,-13,0,55,-53,-11,11
1523180559094799,-24,-2,16,-3,-24,107,43,9
1523180559094799,17,0,2,-10,34,-5,17,12
1523180559095800,21,-18,-18,-13,-25,-58,-46,11
1523180559095800,-68,4,11,29,-34,38,3,-24
1523180559108905,8,-3,2,0,-17,-115,-10,1
1523180559108905,38,11,0,-7,24,35,26,34
1523180559117856,-23,-9,6,18,30,69,4,-25
1523180559117856,19,-1,-6,-57,-16,-51,-20,-6
1523180559131893,1,3,-30,-8,-59,6,5,-27
1523180559131893,-6,-8,1,-20,-52,-12,-3,-6
1523180559133899,27,7,5,5,16,-37,-8,25
1523180559133899,-7,-1,16,41,31,6,-13,5
1523180559155190,-8,7,0,-45,-57,-16,15,-29
1523180559155190,-28,-10,-22,-5,14,44,34,7
1523180559155958,36,2,14,33,38,39,-1,17
1523180559155958,13,-11,-13,-12,20,-28,3,10
1523180559167989,-39,0,12,-16,-4,6,-16,-24
1523180559167989,3,5,1,17,-8,-99,-40,10
1523180559177013,82,7,-3,-33,-7,-7,0,25
1523180559177013,-78,-9,6,4,-27,42,3,-57
1523180559192275,-18,-19,-22,-11,77,28,-19,3
1523180559192275,9,-1,-10,-56,-39,-33,1,8
1523180559194065,-32,5,28,6,1,10,19,-6
1523180559194065,76,5,-16,73,-15,-20,-9,27
1523180559215116,5,-6,3,-19,28,-27,-5,10
1523180559215116,-29,-5,0,13,-14,6,1,-26
1523180559216117,-1,5,8,8,-13,33,-8,5
1523180559216117,-2,-4,-26,-80,-21,-49,-19,2
1523180559238176,-4,5,20,97,38,45,30,-3
1523180559238176,6,-6,1,8,16,-23,-1,-2
1523180559239178,-9,2,6,43,19,16,14,20
1523180559239178,47,2,-7,-46,-45,102,14,43
1523180559252451,-25,-2,-5,-8,-27,-60,-45,-81
1523180559252451,-47,-9,-4,-11,-41,-16,-22,0
1523180559254218,-43,1,0,23,28,-65,26,-42
1523180559254218,15,7,18,-57,48,-22,19,35
1523180559274280,52,-5,-29,-2,-60,68,25,46
1523180559274280,8,-3,16,14,20,1,-31,-5
1523180559276277,-28,-11,-13,6,40,-38,-32,-29
1523180559276277,37,-1,-5,-39,-4,-22,26,8
1523180559297333,-37,11,32,33,9,-28,-4,-25
1523180559297333,4,4,-10,-9,-3,36,28,-15
1523180559298336,7,-9,-28,-49,-45,-14,-26,18
1523180559298336,0,-2,2,25,50,32,2,-9
1523180559312379,8,2,5,-55,-29,-24,-20,14
1523180559312379,-20,-8,-13,32,-12,48,17,-26
1523180559313377,-5,2,-3,-15,-23,-118,-37,3
1523180559313377,26,5,11,64,31,113,102,-4
1523180559334431,3,2,8,4,33,-18,7,57
1523180559334431,-47,-9,-4,-11,-12,-43,-40,-55
1523180559336438,-31,1,-7,-25,17,-52,-34,-23
1523180559336438,-8,-2,-2,43,-53,-81,-29,-24
1523180559357728,29,-7,-12,-44,-42,-9,2,47
1523180559357728,52,12,33,54,26,18,13,12
1523180559358496,0,-9,-20,18,-22,47,8,4
1523180559358496,-24,-5,-9,-41,-4,-14,-15,1
1523180559372534,17,1,0,-4,27,14,3,-11
1523180559372534,5,6,2,8,-8,-18,-15,13
1523180559373537,-11,-1,-4,7,30,1,12,-25
1523180559373537,7,-5,8,-10,-27,-48,-6,32
1523180559394592,-31,-3,-17,-17,-14,21,-8,-43
1523180559394592,49,0,0,-14,-15,30,42,12
1523180559396597,-18,1,-1,5,-71,41,-24,9
1523180559396597,-19,-2,-8,5,77,-25,20,-35
1523180559416651,-44,1,1,-21,7,16,-12,19
1523180559416651,21,1,7,2,5,44,-4,-6
1523180559418656,38,-5,-3,-6,-3,2,4,28
1523180559418656,-17,2,-6,17,-72,-6,-8,-13
1523180559431690,42,-3,-2,2,-3,-75,11,6
1523180559431690,-10,1,-2,6,25,-10,-14,8
1523180559438708,-50,-5,14,-11,0,9,-1,-44
1523180559438708,-14,-14,-23,-3,36,-3,-22,3
1523180559454989,0,-2,-10,-4,-4,5,6,0
1523180559454989,16,0,8,12,1,-7,9,14
1523180559456788,8,5,13,82,-3,-9,-3,19
1523180559456788,-19,1,4,-8,-29,74,-5,-20
1523180559476809,16,-2,-17,-6,36,-58,-10,-12
1523180559476809,-53,-2,9,-29,3,30,1,-33
1523180559478816,10,-2,-20,-41,-5,16,40,21
1523180559478816,31,7,31,51,-3,89,34,15
1523180559491850,-22,-3,-7,7,-43,-51,-31,12
1523180559491850,-4,6,-10,-16,28,-21,-20,-1
1523180559497867,10,-7,-23,-44,-65,-22,11,-19
1523180559497867,-20,-11,-4,38,22,-11,-6,1
1523180559514911,37,4,20,11,0,28,-1,19
1523180559514911,-4,-1,-11,-17,-14,-69,-28,-30
1523180559516916,-18,3,7,2,-6,-31,-20,-5
1523180559516916,-10,5,16,12,33,30,25,9
1523180559536986,15,-1,10,-12,-24,28,7,-19
1523180559536986,-22,-3,-11,8,-27,-16,0,2
1523180559538976,49,3,-8,-6,18,32,15,19
1523180559538976,42,-8,-14,-25,-45,-62,-43,29
1523180559552131,-105,-5,5,24,1,-2,6,-23
1523180559552131,5,-2,2,-31,-21,-1,-2,-37
1523180559558261,5,4,-9,-6,45,-12,3,-6
1523180559558261,16,7,11,60,-36,28,36,2
1523180559575071,56,2,11,6,48,121,32,59
1523180559575071,9,-1,1,-22,-42,-19,-10,26
1523180559576074,-66,-12,-22,0,24,-8,-26,-48
1523180559576074,-38,-7,-7,-73,-49,-85,-71,-32
1523180559597134,33,3,12,86,16,-73,-12,10
1523180559597134,-28,-3,-8,-49,-47,5,50,-14
1523180559599134,45,15,37,32,43,122,65,31
1523180559599134,-3,-3,-4,-34,37,38,9,11
1523180559611171,-3,-4,-6,-33,-76,4,-16,-17
1523180559611171,33,1,-7,24,58,-61,-34,12
1523180559620192,-20,-9,-4,4,-10,-46,-11,-25
1523180559620192,-18,3,-24,-30,-69,-41,-17,-33
1523180559634229,9,3,27,43,-18,-1,-1,7
1523180559634229,4,-6,2,32,100,80,36,24
1523180559636233,-5,-7,-5,-34,-50,1,-11,6
1523180559636233,2,1,17,-4,30,-32,1,17
1523180559657527,2,2,-23,-9,3,-32,-25,-35
1523180559657527,3,1,-21,-39,-40,-42,-33,11
1523180559659345,-26,-3,21,30,69,55,70,-34
1523180559659345,-3,-4,8,-4,-9,26,39,22
1523180559671328,18,-5,-40,-60,-21,-13,-10,-23
1523180559671328,12,2,15,23,24,-9,-13,11
1523180559678349,-2,7,16,33,-10,-25,-31,25
1523180559678349,10,-2,-23,-43,-18,-44,-29,-19
1523180559694389,-7,0,17,-3,43,-3,23,1
1523180559694389,8,-6,-25,32,-3,28,7,-5
1523180559696395,21,-2,8,19,7,-11,-22,28
1523180559696395,-16,-2,-10,-28,15,5,11,-19
1523180559717452,16,7,25,-9,14,17,3,16
1523180559717452,-34,-10,-20,4,-12,-36,-23,-17
1523180559718453,21,0,-6,-40,-41,-28,27,43
1523180559718453,-22,4,14,57,77,95,9,-35
1523180559730484,42,-4,-14,-19,-1,43,16,-28
1523180559730484,-33,6,10,-18,-37,3,-4,10
1523180559739509,-30,-7,-16,-38,-38,-44,-41,-20
1523180559739509,8,0,18,35,-6,-60,-18,10
1523180559754783,-45,-7,-8,19,26,-25,21,20
1523180559754783,33,2,10,7,23,71,29,5
1523180559756794,28,-2,-4,-3,-18,-1,-27,-9
1523180559756794,8,-1,-17,-30,-3,-74,-19,21
1523180559777610,-9,3,10,34,-10,0,-6,-26
1523180559777610,-3,-2,-4,-24,-42,30,54,-5
1523180559778613,-21,1,-14,20,21,16,0,5
1523180559778613,-5,-10,1,16,-42,-92,-42,-8
1523180559799668,3,-5,9,-17,44,85,30,11
1523180559799668,4,-1,-8,-12,-27,5,-20,6
1523180559801715,16,5,-2,-15,27,13,-16,5
1523180559801715,-2,0,-13,-14,-23,5,-22,-2
1523180559814708,-38,-5,-16,-18,29,-64,-17,-23
1523180559814708,36,-4,18,107,17,-22,-5,0
1523180559815710,-37,8,22,39,-13,-27,44,0
1523180559815710,-3,-2,-8,-45,31,76,-10,-10
1523180559836767,-50,-8,-13,-28,-9,37,21,0
1523180559836767,-2,1,11,-59,17,9,-16,2
1523180559838772,39,-7,-1,34,20,-30,-16,3
1523180559838772,18,-4,-1,2,-38,-45,-8,19
1523180559850843,-50,-3,-13,-15,-12,-56,-33,-32
1523180559850843,9,9,-5,-2,33,49,39,16
1523180559859830,7,-11,14,24,-6,34,12,-3
1523180559859830,-3,-4,-10,-11,52,12,15,-5
1523180559873866,25,3,7,5,-4,38,-18,1
1523180559873866,-17,0,7,-6,-15,-121,0,-3
1523180559881889,19,14,-3,-43,25,109,44,22
1523180559881889,35,4,10,69,8,-8,10,0
1523180559896929,45,-1,-9,-20,-58,-73,-39,9
1523180559896929,-106,-16,2,43,-15,-19,12,-47
1523180559898931,26,-6,-12,-51,16,5,-41,-10
1523180559898931,13,6,12,-16,-4,-14,21,19
1523180559910968,60,9,13,27,0,116,30,18
1523180559910968,17,4,1,-11,-42,-13,-23,18
1523180559919993,-47,-9,-12,-28,-21,-22,-24,-29
1523180559919993,-10,-1,-15,-4,-67,-63,-15,6
1523180559935029,16,-5,-2,9,40,3,-5,9
1523180559935029,10,0,3,0,-54,6,6,-5
1523180559936030,-3,-1,-6,-2,-11,-46,6,7
1523180559936030,0,12,11,10,10,84,5,1
1523180559957322,-19,1,2,-5,-4,-15,10,1
1523180559957322,-4,-6,-11,-8,17,1,-27,-15
1523180559959092,8,2,11,44,32,-80,-32,0
1523180559959092,1,-6,8,-15,-13,38,34,9
1523180559971125,2,3,-8,15,56,39,32,-48
1523180559971125,2,-7,-5,-27,-22,-61,-4,16
1523180559980149,-23,8,-1,-29,85,75,12,5
1523180559980149,-36,-13,-2,19,-18,15,-7,-12
1523180559994188,9,-3,5,-4,-32,4,3,23
1523180559994188,65,4,-5,-25,-1,-35,-14,8
1523180559996190,-16,4,-5,26,14,-25,3,-17
1523180559996190,3,-6,-12,-18,-28,7,4,1
1523180560017248,-5,2,22,63,79,84,30,17
1523180560017248,15,-3,-12,-5,-26,-6,-25,-3
1523180560019253,-17,-5,7,-30,-30,-32,5,0
1523180560019253,10,-6,-30,-32,11,-3,-6,31
1523180560030286,-41,-7,5,26,-34,-109,-49,-57
1523180560030286,-9,2,0,-16,51,84,81,-6
1523180560039304,15,-3,0,32,-46,9,-10,-2
1523180560039304,2,2,8,-21,40,-27,-33,0
1523180560055360,-5,-2,-21,-82,-76,-73,-5,20
1523180560055360,8,10,23,102,63,60,-23,16
1523180560056351,20,-4,-12,-17,-32,-19,-6,-3
1523180560056351,-8,-11,12,21,21,-54,3,-11
1523180560077408,2,-3,-20,-33,2,24,11,21
1523180560077408,7,4,-6,1,35,-28,-30,-4
1523180560078409,-29,-5,0,-32,-56,26,38,-37
1523180560078409,0,11,0,56,-17,10,-6,-28
1523180560090442,8,-1,6,12,-3,-22,-10,13
1523180560090442,-14,-3,-9,-66,17,-25,-30,9
1523180560099464,15,10,34,49,2,-54,7,20
1523180560099464,8,-4,-38,-51,-78,45,4,-8
1523180560115508,-8,-10,-3,-68,56,-4,11,-7
1523180560115508,25,9,13,34,18,36,24,12
1523180560116511,11,-3,-19,-15,24,3,-6,0
1523180560116511,-20,14,23,17,21,-22,-1,-11
1523180560137567,19,-10,-17,-5,-42,21,-8,19
1523180560137567,-22,-16,-7,-44,-23,-3,-27,-19
1523180560138570,-8,-5,-1,7,0,-50,-24,1
1523180560138570,9,0,-11,-38,18,11,-17,7
1523180560150839,-14,11,5,35,23,-45,-15,0
1523180560150839,1,-6,-1,6,24,-93,62,-13
1523180560159624,-39,-3,2,18,-30,127,38,15
1523180560159624,-34,-4,2,-15,22,-38,-13,-28
1523180560174706,17,1,-4,-8,-24,-24,-38,1
1523180560174706,34,4,5,27,-11,-32,-29,28
1523180560176673,2,-6,-1,-5,17,-90,-46,-11
1523180560176673,4,1,-5,19,8,71,47,5
1523180560196724,-12,-1,10,11,-3,9,23,2
1523180560196724,-15,0,-7,7,-10,4,-7,11
1523180560198729,26,-1,-4,-3,6,5,-35,-4
1523180560198729,-20,2,23,-17,0,-43,-2,-24
1523180560219784,9,5,-6,32,-12,-16,1,13
1523180560219784,3,-4,-4,-40,-18,63,37,7
1523180560220789,-13,-6,-6,-5,-9,-21,-12,-9
1523180560220789,1,-5,-7,2,32,-19,-2,-9
1523180560234825,10,5,2,-14,-10,-10,-1,27
1523180560234825,7,0,-13,-17,-9,-43,-42,-17
1523180560235827,-42,-3,8,3,-11,38,45,-24
1523180560235827,48,3,6,16,71,117,41,21
1523180560256886,-26,-5,1,-4,-18,-17,-8,24
1523180560256886,-52,-12,-18,-43,-38,-33,-35,-41
1523180560258891,59,9,6,60,-38,-65,-16,11
1523180560258891,-46,-7,-6,4,18,-40,5,9
1523180560279945,34,3,1,-7,50,77,1,-5
1523180560279945,19,7,15,18,65,53,40,10
1523180560280947,23,-1,-4,-62,-85,3,-10,-2
1523180560280947,-5,0,-14,46,-7,-5,-16,-3
1523180560294990,-9,-9,-7,-22,-19,-12,2,-12
1523180560294990,-15,-5,-2,-13,-2,-18,-8,-3
1523180560295988,-4,1,32,54,42,-2,-4,2
1523180560295988,12,0,-14,-16,27,0,-5,4
1523180560317044,-11,-2,2,15,-66,-42,12,-11
1523180560317044,-16,1,9,27,-6,110,29,-10
1523180560319050,21,2,-10,-35,33,24,-7,24
1523180560319050,36,5,12,1,-51,-54,-24,20
1523180560340104,-19,4,-3,-6,7,-19,4,-11
1523180560340104,13,-6,-3,6,-12,-17,-9,-12
1523180560341108,-86,-10,-9,14,12,-15,-31,-18
1523180560341108,-29,-5,7,-14,-13,10,-6,-25
1523180560354141,26,3,-8,-4,8,46,42,-12
1523180560354141,51,-2,7,12,-47,-17,0,39
1523180560361160,21,-2,-18,-15,66,31,11,0
1523180560361160,-17,-1,9,25,-28,-50,-31,-3
1523180560377204,10,-1,0,-3,5,-5,-6,5
1523180560377204,-1,5,4,7,-1,-7,-9,-7
1523180560379209,-21,-3,-19,-18,-11,-5,10,-3
1523180560379209,4,-4,0,6,26,5,8,2
1523180560399261,17,5,25,13,17,24,6,-4
1523180560399261,-34,2,-15,-16,-94,3,-2,2
1523180560401267,-58,-14,-15,-34,25,0,10,-12
1523180560401267,-6,4,24,67,16,-11,4,19
1523180560414302,-9,-13,-33,-10,5,16,-37,-31
1523180560414302,16,-3,-8,-49,-38,-127,2,-11
1523180560420319,58,16,39,21,-5,111,83,40
1523180560420319,-11,-11,-21,-36,-29,4,5,5
1523180560437365,19,5,15,52,15,-40,-16,-24
1523180560437365,-26,-3,-26,-2,31,-31,-45,-4
1523180560438366,-39,-9,-16,31,-4,-67,-33,-14
1523180560438366,76,18,24,-15,24,21,31,19
1523180560459423,-26,3,-2,-8,-34,-20,-13,18
1523180560459423,-19,-7,-4,-10,21,-32,-53,-28
1523180560461427,-8,-4,0,25,22,-14,93,-5
1523180560461427,4,3,2,3,-37,81,37,-24
1523180560474462,31,-2,-3,3,47,-48,-13,8
1523180560474462,-27,-3,4,0,33,0,-15,29
1523180560480478,30,-1,-14,-50,-1,-26,-67,0
1523180560480478,-13,-9,-2,-22,-56,-62,-14,-9
1523180560497523,-26,-2,1,43,10,42,27,0
1523180560497523,0,-7,14,-9,-7,-24,-8,3
1523180560498527,28,3,-17,10,6,-61,-54,-7
1523180560498527,-13,2,-10,-13,-17,-25,-6,-7
1523180560519583,-21,7,16,-8,23,97,71,11
1523180560519583,83,6,16,41,38,19,8,23
1523180560521587,-79,-6,4,-2,-28,-11,1,-34
1523180560521587,8,-11,-25,-51,-41,-16,-50,-13
1523180560533621,-11,-1,5,20,-53,-99,-28,-9
1523180560533621,-21,7,6,7,-3,64,53,3
1523180560540642,50,9,-3,-7,22,17,-5,25
1523180560540642,-2,-12,-12,-19,21,-13,-3,10
1523180560556680,-37,-6,-11,-27,11,-34,-17,-31
1523180560556680,-9,0,4,-10,-17,36,16,18
1523180560558686,13,-4,-8,21,-22,-57,-44,-40
1523180560558686,-22,7,36,10,45,-1,19,3
1523180560579741,31,1,-32,-2,16,44,36,29
1523180560579741,-21,-7,14,9,34,70,7,-7
1523180560580744,20,3,0,-36,-14,1,-10,14
1523180560580744,13,0,-8,-13,4,-45,-41,-2
1523180560593779,-2,-6,-2,-9,-10,-53,-32,-19
1523180560593779,-50,2,4,-6,-19,-72,24,-16
1523180560600798,32,4,2,62,10,109,28,31
1523180560600798,-6,-5,1,9,23,10,17,-14
1523180560616841,23,4,10,-24,-3,-18,-15,28
1523180560616841,13,-6,-16,-17,-9,1,-8,13
1523180560618846,-15,-1,12,-2,-29,-16,19,-33
1523180560618846,-42,6,-4,8,17,31,13,-11
1523180560639901,-3,-3,-5,-28,-40,7,-30,-9
1523180560639901,11,-1,13,33,42,-67,-26,9
1523180560640904,33,-13,-11,3,35,31,10,30
1523180560640904,1,0,0,-4,-79,-14,-15,-2
1523180560653945,-12,-1,-1,-24,39,-41,-8,-19
1523180560653945,1,5,1,34,19,119,55,-10
1523180560660957,18,6,-1,-31,3,36,-1,26
1523180560660957,-20,-6,0,25,15,-38,-16,-29
1523180560677001,28,-6,-8,-25,-4,-29,-26,3
1523180560677001,-44,-7,-21,-15,-1,15,7,-16
1523180560679005,-11,1,13,-22,-53,-40,-3,4
1523180560679005,-28,-11,-12,24,66,41,9,18
1523180560700062,8,1,7,10,-48,-2,-11,7
1523180560700062,12,-1,-20,-17,-19,-69,-27,-14
1523180560701067,-8,4,-7,-6,2,10,48,-25
1523180560701067,-18,2,15,-20,-8,52,-8,2
1523180560713097,-17,-9,3,9,8,-31,13,14
1523180560713097,45,1,-11,-2,13,-5,12,1
1523180560722120,-9,-3,-3,-30,-14,-22,-22,-23
1523180560722120,50,10,7,34,-31,-37,-4,29
1523180560737161,-66,-6,-1,4,49,65,19,-24
1523180560737161,24,9,19,23,-36,-38,-17,22
1523180560739165,5,-3,-18,-3,4,-13,5,-1
1523180560739165,5,-3,4,-19,21,-35,-2,-18
1523180560759219,22,1,-8,18,-41,-2,-16,6
1523180560759219,-15,-11,1,-28,-29,38,18,-5
1523180560761223,8,7,15,27,41,11,-5,18
1523180560761223,14,4,-1,1,12,40,33,2
1523180560773256,-17,-4,-22,-27,1,-12,-6,-8
1523180560773256,-11,-3,3,-1,-36,-39,-22,-10
1523180560782280,-2,-7,6,-15,36,10,-4,-6
1523180560782280,37,0,-8,-33,-66,-21,-26,23
1523180560797320,-3,4,11,14,-10,-41,-4,-31
1523180560797320,-52,0,5,28,10,112,51,1
1523180560798324,52,0,-16,-38,-19,1,-5,18
1523180560798324,-60,-8,0,37,-4,-46,-10,-14
1523180560819379,22,4,3,-4,-6,8,2,18
1523180560819379,12,-4,-3,-13,27,19,-22,-16
1523180560821386,-17,0,-1,-2,-17,1,11,-3
1523180560821386,36,-3,-13,-27,25,8,-28,2
1523180560833417,-16,-2,0,-5,-42,13,29,-1
1523180560833417,1,-1,-1,27,10,-26,16,-10
1523180560842440,1,-10,4,-4,5,23,-12,12
1523180560842440,-1,5,-5,-18,31,-36,-4,-7
1523180560857479,-10,-3,-18,-7,10,-26,-25,8
1523180560857479,13,9,16,-15,-21,-51,-19,-8
1523180560858484,28,11,14,36,61,46,35,10
1523180560858484,-52,-9,-18,-19,-31,31,9,-5
1523180560879537,-16,-1,17,12,11,1,-10,2
1523180560879537,14,-2,-11,-2,18,-46,-40,1
1523180560881543,9,-8,-25,-96,-80,-85,-22,-22
1523180560881543,-28,15,26,89,67,53,52,-6
1523180560893796,-14,-1,16,5,39,45,38,5
1523180560893796,-17,-13,-11,-17,-25,30,-13,10
1523180560902827,11,-3,-12,-35,-36,-78,-55,-1
1523180560902827,53,0,14,19,-17,-23,17,11
1523180560916639,12,0,-27,-9,0,32,5,2
1523180560916639,2,6,22,17,-37,-5,4,-1
1523180560918642,-5,-1,2,17,26,5,-9,5
1523180560918642,-25,2,-4,-19,-32,-63,-19,-1
1523180560939934,3,-2,9,-2,5,15,19,2
1523180560939934,30,0,-1,8,75,43,0,14
1523180560941703,-65,0,-1,4,-25,29,-11,-45
1523180560941703,9,-6,0,-16,-9,9,14,3
1523180560953773,-1,3,-1,6,-13,-21,-17,1
1523180560953773,16,-5,-36,-54,39,3,8,8
1523180560961757,2,2,20,34,-6,30,8,5
1523180560961757,7,5,17,-1,-18,-27,-21,5
1523180560976797,14,-20,-35,-21,2,15,-4,12
1523180560976797,18,4,-11,-8,-11,-28,-2,-27
1523180560978802,-25,-1,5,27,6,-12,-4,0
1523180560978802,-20,-3,-6,-39,-7,-14,-26,-4
1523180560999858,67,6,25,42,14,61,50,74
1523180560999858,-52,7,-4,3,-41,-31,-11,-85
1523180561000967,-16,-6,-8,-4,0,-35,-8,11
1523180561000967,27,4,2,0,84,82,33,24
1523180561012894,-11,6,4,-15,-78,-30,-30,-40
1523180561012894,-22,-8,-8,-47,10,-2,-1,33
1523180561021917,10,6,22,60,-5,-7,-21,-2
1523180561021917,13,-4,-15,-49,-51,-47,-10,-9
1523180561036957,-3,-6,-7,33,29,25,19,13
1523180561036957,10,-5,3,8,-6,-27,-36,-13
1523180561038964,-17,1,-5,6,8,11,36,-11
1523180561038964,1,-4,-15,7,-32,48,30,24
1523180561060019,14,4,6,-17,12,68,-4,-3
1523180561060019,-27,-2,8,14,-15,-47,-40,-14
1523180561061021,-29,-3,-1,-1,-21,-73,-6,-6
1523180561061021,-3,-12,-22,27,15,43,18,-8
1523180561073053,-13,0,6,-17,5,-11,6,-2
1523180561073053,39,2,-1,21,14,15,-5,-14
1523180561082077,-29,0,0,-14,-24,-22,-8,7
1523180561082077,25,-1,16,13,17,-27,-10,-7
1523180561097118,-42,-6,8,34,13,1,-3,9
1523180561097118,-8,4,4,25,-26,-3,7,-9
1523180561099127,11,2,-11,-32,17,9,6,9
1523180561099127,-5,-2,-4,-19,-21,-19,-9,-6
1523180561120178,27,-1,0,17,17,-20,-21,7
1523180561120178,-5,2,2,1,32,0,13,5
1523180561121180,2,-3,-2,51,-19,33,4,-1
1523180561121180,15,0,-12,-15,-25,-14,-11,-4
1523180561142235,-7,-3,-2,-18,1,-38,-9,-21
1523180561142235,-35,-1,6,-5,13,39,21,22
1523180561143240,7,2,-11,-14,-3,3,-7,-12
1523180561143240,9,-10,18,26,53,34,12,-8
1523180561157514,-45,-3,-10,-23,-72,-26,-6,-19
1523180561157514,24,2,-3,-18,-24,-21,-21,18
1523180561159302,20,-2,-18,-28,15,-61,-4,24
1523180561159302,2,3,11,24,-10,84,1,9
1523180561180337,2,-3,4,4,-2,-17,30,-33
1523180561180337,-6,-1,7,6,43,27,-4,-1
1523180561182343,11,-2,-2,-5,-48,-13,-29,14
1523180561182343,13,5,-7,0,-6,-128,-32,17
1523180561202631,-62,-4,1,-60,12,9,62,-44
1523180561202631,26,-1,-6,25,-15,65,27,24
1523180561203398,19,2,21,47,100,37,2,-15
1523180561203398,32,-5,-13,3,5,-59,-37,2
1523180561217436,-20,1,-11,-42,-33,-63,-17,10
1523180561217436,-34,-3,-1,18,-8,70,19,1
1523180561218439,2,-19,-5,-49,-10,-44,-5,-10
1523180561218439,12,1,10,5,-47,31,15,-1
1523180561239733,50,9,-9,-6,38,-29,-42,-4
1523180561239733,4,2,12,-10,-80,-8,31,9
1523180561241738,-3,4,-5,5,24,33,-2,-3
1523180561241738,-25,0,-7,-29,64,-7,1,-15
1523180561262555,26,4,12,22,-10,9,-12,27
1523180561262555,-33,-2,3,4,3,-38,-20,-27
1523180561263559,19,-5,-2,-14,-26,5,-2,13
1523180561263559,-34,-2,-2,-4,22,-6,3,-38
1523180561276600,-11,-4,0,19,-18,1,-15,-20
1523180561276600,-23,2,-10,-17,34,-1,21,24
1523180561278598,40,4,-3,16,28,65,1,3
1523180561278598,4,-1,-10,-7,-25,-20,-2,19
1523180561299655,-18,-7,18,15,23,-70,-24,21
1523180561299655,17,0,3,-9,-3,57,22,-18
1523180561301847,-36,-1,-14,-32,-25,-44,3,-14
1523180561301847,26,3,-5,-12,-83,70,-19,19
1523180561321951,-8,-1,-13,20,13,-84,-30,-38
1523180561321951,26,-8,1,5,6,34,23,19
1523180561323720,0,5,15,20,0,84,23,3
1523180561323720,-19,-3,-5,3,27,-45,-18,-2
1523180561336753,16,5,-8,3,-62,8,-13,7
1523180561336753,2,-1,-7,-36,4,-43,-23,-5
1523180561343813,13,0,8,14,-2,-25,19,5
1523180561343813,-55,-4,0,34,20,25,6,-15
1523180561359816,31,-4,-7,11,44,47,11,20
1523180561359816,11,2,-2,-3,-2,-55,15,-13
1523180561360818,37,4,6,-14,-27,45,0,32
1523180561360818,-52,2,12,1,26,-1,14,-32
1523180561381874,-27,-3,-3,-19,-8,21,-10,-5
1523180561381874,12,-3,-11,12,-20,-47,-45,11
1523180561383878,6,-2,-1,5,4,36,47,0
1523180561383878,25,5,5,2,10,-3,-2,-2
1523180561396922,31,-1,-2,-20,-25,-1,-14,9
1523180561396922,-25,-4,-10,-11,3,-41,8,8
1523180561403164,-51,-4,1,-9,8,-15,-1,-34
1523180561403164,3,-4,-2,1,-29,21,3,-12
1523180561419975,-17,-4,0,4,20,-28,-28,-3
1523180561419975,24,0,-7,-63,-2,-17,-26,10
1523180561420979,-6,5,13,56,68,6,18,13
1523180561420979,-30,-11,-24,-41,-66,-2,5,-10
1523180561442033,27,6,8,12,23,8,-11,-7
1523180561442033,45,-3,-1,-3,-40,-87,-26,31
1523180561444039,-48,-2,-8,-8,34,35,3,-30
1523180561444039,29,5,1,-1,-58,64,50,3
1523180561457312,-31,0,2,10,46,69,29,10
1523180561457312,-14,-4,1,22,0,21,-16,-17
1523180561463111,14,2,7,11,-54,-95,-48,-3
1523180561463111,27,-2,4,30,17,-62,-10,12
1523180561480134,-6,-1,7,-14,-3,57,28,-12
1523180561480134,2,-4,-4,13,12,23,13,7
1523180561481137,6,-7,-11,-34,-35,-27,-17,0
1523180561481137,4,3,-5,-4,35,-13,-9,5
1523180561502431,-13,3,10,32,-6,-14,4,16
1523180561502431,-12,3,6,12,5,13,-17,-30
1523180561504198,22,-4,-5,-11,-35,13,21,7
1523180561504198,-22,-3,-15,-43,41,19,14,5
1523180561524251,14,-9,8,31,36,51,23,6
1523180561524251,-28,-1,-3,14,-39,-85,-15,7
1523180561526259,-13,-7,-4,3,-20,21,-6,-29
1523180561526259,44,10,-3,-27,-5,-21,-27,0
1523180561547321,20,-5,-16,-1,-11,4,-3,24
1523180561547321,-78,-17,1,-3,12,-1,-1,-49
1523180561548315,21,2,2,-18,-11,14,9,14
1523180561548315,-23,-7,4,6,27,8,-3,-4
1523180561562360,38,4,-4,-29,-25,-13,-4,2
1523180561562360,8,2,-1,2,-38,26,26,8
1523180561563367,-27,-4,-15,-26,-29,-51,-31,-6
1523180561563367,9,-7,0,9,24,-3,1,13
1523180561576392,-11,5,2,-8,-21,-14,18,-21
1523180561576392,14,2,5,4,76,28,15,10
1523180561583410,-6,1,-9,21,-16,6,6,-3
1523180561583410,14,3,5,1,-34,-11,16,5
1523180561599454,-57,-17,-20,-22,-15,-25,-33,-8
1523180561599454,-1,6,32,-18,17,34,-7,-15
1523180561601457,-7,-10,-27,-25,40,-42,-16,15
1523180561601457,16,0,-10,25,49,39,-3,-7
1523180561622514,-11,7,12,-14,-5,54,36,12
1523180561622514,9,1,-3,3,-37,22,-18,2
1523180561623516,4,3,10,5,2,16,9,0
1523180561623516,-34,-7,19,16,-14,-36,-18,6
1523180561636549,23,-2,-19,-17,-2,-14,7,-16
1523180561636549,5,5,-8,-10,31,29,13,19
1523180561643572,1,-4,3,0,3,-22,-10,-6
1523180561643572,-2,-4,4,31,-13,-35,-15,-4
1523180561659612,19,8,2,-3,-17,-12,-17,-4
1523180561659612,10,-2,-14,11,-1,2,2,-5
1523180561661617,-50,-3,10,10,-7,-30,-6,-6
1523180561661617,17,5,5,-4,24,43,4,16
1523180561681671,-21,-3,1,-11,-11,-54,6,-29
1523180561681671,25,3,6,13,7,37,10,13
1523180561683675,23,0,-25,-13,50,35,-3,3
1523180561683675,-19,-1,-5,10,-31,-63,-30,-10
1523180561695709,9,1,-4,-18,16,-22,2,-5
1523180561695709,-4,-6,17,37,46,71,39,6
1523180561704731,2,5,20,11,-16,12,-15,-2
1523180561704731,-6,2,-19,-58,-12,-18,-2,-5
1523180561719773,-5,-10,-15,23,-4,-10,-2,-1
1523180561719773,-4,0,-22,-47,-10,-59,-13,-10
1523180561720774,25,3,19,44,71,8,-4,25
1523180561720774,-14,-7,-5,-13,-90,-63,-34,-17
1523180561741832,4,3,12,-11,-7,71,40,-15
1523180561741832,6,9,5,12,16,62,47,17
1523180561743835,7,-4,-13,-21,0,-1,-22,7
1523180561743835,-21,-4,-1,-5,-26,-30,-41,-27
1523180561756103,16,2,1,-8,7,-122,-61,7
1523180561756103,5,2,2,20,24,57,90,24
1523180561764892,-17,-1,4,16,7,38,38,-4
1523180561764892,6,-6,12,7,-17,-34,-15,33
1523180561779931,-69,-12,-11,11,-3,-59,-41,-32
1523180561779931,29,-2,-2,-14,35,-87,-53,-17
1523180561780936,10,6,4,12,-62,13,18,8
1523180561780936,56,2,-9,-3,46,49,25,-4
1523180561802226,-29,-3,7,-25,-22,38,-1,6
1523180561802226,-17,-8,-20,26,1,-34,-27,-1
1523180561803995,0,-4,-7,-7,14,-33,0,-19
1523180561803995,-12,-6,-1,-27,-42,52,19,-4
1523180561825050,25,10,17,24,21,51,6,19
1523180561825050,-10,0,-5,-8,-1,-9,-10,-8
1523180561826054,3,-7,-14,-39,-48,-56,-28,-17
1523180561826054,-12,-6,-13,28,30,12,14,9
1523180561840298,11,2,7,0,42,24,15,-10
1523180561840298,25,2,3,-12,-26,-7,-14,18
1523180561841093,-64,-5,-3,-12,6,13,7,-24
1523180561841093,4,5,7,25,5,-4,19,18
1523180561862149,18,-1,0,16,17,32,8,4
1523180561862149,-2,-4,-10,-14,-58,-36,-16,-4
1523180561864157,-14,5,11,1,-11,-4,-14,6
1523180561864157,0,-5,-16,4,30,-5,4,-19
1523180561876189,14,2,9,22,11,-3,8,15
1523180561876189,5,-1,-10,-30,-47,-91,-31,-1
1523180561885211,5,-8,-1,-11,-9,-6,8,0
1523180561885211,-18,10,13,10,33,98,57,-21
1523180561900298,14,-1,-8,-28,17,38,8,12
1523180561900298,-12,-1,12,49,-5,-19,-22,-5
1523180561901254,12,-1,-7,-16,-25,-51,-25,10
1523180561901254,-3,-2,5,-11,-22,-90,-31,-3
1523180561922310,-3,-2,-8,6,53,22,5,-2
1523180561922310,-19,-1,-6,2,-68,21,-2,-24
1523180561923315,37,1,-3,-6,-5,-15,11,24
1523180561923315,-25,0,26,65,42,57,19,-8
1523180561935345,20,-1,-20,-36,-4,-29,-20,17
1523180561935345,23,8,6,18,-20,-49,-9,7
1523180561944370,-75,-12,3,22,32,89,32,-15
1523180561944370,16,-3,-18,-41,13,-23,-15,-1
1523180561959413,2,8,12,55,-30,4,19,-2
1523180561959413,32,-3,-10,-18,23,-8,-7,0
1523180561961413,18,0,-5,-26,35,-28,-24,-7
1523180561961413,-15,1,4,10,-69,24,15,9
1523180561982472,4,-1,2,37,-19,-18,-14,-6
1523180561982472,-12,-1,3,-24,-36,55,21,-1
1523180561983473,-1,3,-1,9,23,-18,-3,-2
1523180561983473,-14,-7,-5,-33,17,-33,-15,-5
1523180561995504,17,0,-11,-8,-47,-13,-7,18
1523180561995504,-7,-5,5,-2,9,-23,13,-31
1523180562004575,-32,-3,3,2,-1,31,-29,-8
1523180562004575,-33,-8,-9,-8,6,-19,-1,-17
1523180562019571,16,-1,4,-18,-22,-28,27,7
1523180562019571,-37,-6,-16,-41,-22,-50,-28,22
1523180562021574,19,5,7,23,47,40,48,-49
1523180562021574,35,0,-5,-50,-9,18,5,16
1523180562041626,-29,-5,4,36,-57,-26,-18,-12
1523180562041626,1,0,3,37,50,34,-2,4
1523180562043632,33,2,-8,-38,-33,-54,-7,12
1523180562043632,6,2,-3,28,20,14,-1,7
1523180562055902,-20,-2,3,-35,16,2,-7,-24
1523180562055902,8,0,0,10,82,-23,1,4
1523180562064688,-4,-3,-2,19,-91,-25,-8,15
1523180562064688,11,1,1,3,32,18,-1,12
1523180562079728,-2,-2,-9,-16,-21,-14,-28,-6
1523180562079728,-23,-4,-3,-2,25,47,23,-18
1523180562080733,-1,-1,7,19,24,-12,4,4
1523180562080733,1,-1,-8,-13,-59,-12,-18,26
1523180562102794,-18,-3,-9,-12,59,-100,-37,-31
1523180562102794,25,1,-2,-21,-45,1,58,5
1523180562103792,4,-8,1,-17,9,68,21,28
1523180562103792,-37,-1,13,46,10,-36,-23,-45
1523180562124849,-70,-3,2,22,-14,-28,32,3
1523180562124849,17,6,-1,21,23,61,-23,2
1523180562125852,19,-1,-4,-32,-31,-4,-8,9
1523180562125852,51,5,-1,-21,14,-3,5,28
1523180562140126,-5,-6,-5,2,-9,-23,-32,-33
1523180562140126,-15,0,-7,-7,-7,-8,-7,-6
1523180562140890,18,4,-7,-13,-47,-7,0,-2
1523180562140890,-8,-1,18,34,63,-10,-8,6
1523180562161946,15,1,12,47,-42,50,17,10
1523180562161946,7,0,-5,-18,-26,-16,9,1
1523180562163957,-1,6,-1,13,7,-12,-8,3
1523180562163957,-13,-1,-5,-29,11,38,1,-11
1523180562185008,1,-10,-8,-34,10,76,52,10
1523180562185008,2,-3,9,44,16,-1,-50,-11
1523180562186010,15,-1,-6,-6,36,-52,-13,-11
1523180562186010,22,13,-7,-8,-42,7,33,20
1523180562200221,4,6,6,6,1,96,-13,17
1523180562200221,-20,-5,-3,-10,2,-21,-10,-15
1523180562201049,29,3,15,32,18,0,-9,-8
1523180562201049,-60,-12,-13,-35,-33,-41,-24,-13
1523180562222107,33,-1,-8,-7,47,-50,-10,2
1523180562222107,-34,-1,-9,-29,-4,21,9,7
1523180562224113,15,2,-7,37,16,2,-13,-4
1523180562224113,-6,-2,11,-1,11,-49,-22,-11
1523180562244166,8,-5,-9,-46,-16,10,44,15
1523180562244166,0,-1,11,37,10,85,32,-6
1523180562246170,-8,1,3,-3,12,41,3,14
1523180562246170,1,0,-9,0,53,15,-6,-7
1523180562259445,-8,-2,-2,-2,4,-76,-32,-4
1523180562259445,16,-3,-5,-40,26,-19,-11,1
1523180562266224,11,-1,-1,-25,-90,-28,-6,-7
1523180562266224,13,0,0,35,26,8,3,-1
1523180562282307,-10,11,4,10,-29,-6,-6,7
1523180562282307,6,-6,-5,-25,3,-2,5,6
1523180562283272,-10,-6,0,6,9,-26,-13,-3
1523180562283272,-20,-4,-11,-19,-7,2,-9,-19
1523180562304562,18,5,18,-12,-19,-19,-6,-3
1523180562304562,5,-11,-26,40,12,-6,-9,-4
1523180562306330,-38,-2,0,-5,-19,37,3,-2
1523180562306330,45,7,-5,-3,-25,-107,-21,8
1523180562319367,-56,-4,6,-11,46,126,60,7
1523180562319367,15,-4,12,32,-23,23,4,1
1523180562325382,-38,-6,0,-7,44,8,-14,-13
1523180562325382,0,0,-2,-11,-82,-64,-25,-12
1523180562342427,-2,-3,-20,8,-7,49,37,-5
1523180562342427,8,3,2,-3,25,-28,-49,15
1523180562343430,9,3,-7,-13,-22,-29,6,5
1523180562343430,7,2,11,30,3,-4,66,13
1523180562364487,8,-1,-1,-4,12,64,-14,-11
1523180562364487,-10,-5,-6,-32,-30,-87,-10,-10
1523180562366492,-6,-2,20,53,45,100,34,-1
1523180562366492,67,4,-17,-15,-1,39,-7,2
1523180562378522,-67,-4,-10,-1,-20,-71,-18,1
1523180562378522,3,7,11,-18,27,10,-4,5
1523180562385541,-19,-10,-3,-9,-37,-62,-22,3
1523180562385541,-15,1,10,15,20,32,0,-27
1523180562402723,24,0,-7,-31,5,-27,-22,17
1523180562402723,-2,-5,10,53,-1,-47,-19,-5
1523180562403588,12,1,-27,-26,-31,55,56,5
1523180562403588,2,4,19,25,34,53,25,6
1523180562424651,48,2,-2,-1,23,-5,-13,7
1523180562424651,-59,-1,-1,-34,12,-23,-18,-2
1523180562426651,20,-1,4,0,-73,-19,-2,-16
1523180562426651,-33,0,1,16,28,36,8,8
1523180562438684,11,-1,6,-6,-38,-29,-17,-24
1523180562438684,16,-2,-14,-27,-15,-49,20,-1
1523180562445705,11,8,0,19,57,59,15,19
1523180562445705,-15,-9,-7,-12,3,27,-6,6
1523180562461745,27,-1,2,11,14,-55,-35,-22
1523180562461745,-4,-1,-5,-9,-67,28,13,-22
1523180562463750,-45,8,0,-27,-3,-83,44,7
1523180562463750,-8,-9,0,-1,26,97,20,7
1523180562484839,15,-15,12,30,24,-29,-2,10
1523180562484839,36,8,4,4,-11,18,-20,13
1523180562485808,-10,-4,-15,-52,-5,-88,-46,12
1523180562485808,-3,1,-5,12,1,-55,-17,-39
1523180562498883,-12,4,-4,13,-19,28,9,-5
1523180562498883,7,2,10,-5,1,-54,-2,12
1523180562506096,17,-3,11,22,22,62,18,10
1523180562506096,-16,-5,-3,-16,55,15,-16,2
1523180562521943,-11,-5,-12,-8,-71,4,-16,-4
1523180562521943,-14,2,-3,-10,28,49,32,-20
1523180562523910,28,4,-4,14,4,-35,-28,3
1523180562523910,43,2,-6,-33,-45,-46,-19,14
1523180562544966,-50,-2,24,36,0,3,30,-5
1523180562544966,-86,-21,-8,6,34,41,13,5
1523180562545967,17,-8,-9,-13,3,-18,-18,-19
1523180562545967,-19,1,-3,-1,-9,-39,-21,-5
1523180562559244,58,9,-4,-38,2,-4,-10,3
1523180562559244,14,4,1,-8,-37,-9,-2,-4
1523180562573081,-19,-5,2,21,53,-24,0,18
1523180562573081,4,3,1,15,-14,-15,22,-6
1523180562582063,-4,1,-7,-9,13,52,4,13
1523180562582063,38,-1,2,-8,21,-26,3,8
1523180562584070,-26,-1,2,3,-70,29,-20,-32
1523180562584070,-4,0,-5,-28,-17,-82,-10,1
1523180562605297,-6,1,4,14,21,59,36,11
1523180562605297,8,3,-9,3,-25,-11,6,5
1523180562606128,15,1,20,18,35,-22,-13,-5
1523180562606128,7,-7,-7,1,-20,5,-8,22
1523180562618159,8,-8,-20,-13,-10,-40,-21,-32
1523180562618159,-65,-9,7,-2,9,3,-17,5
1523180562627183,-50,-5,-15,-7,-21,7,-5,-41
1523180562627183,-35,-2,-2,-29,-19,-21,-24,-30
1523180562642270,20,3,3,8,11,-95,14,21
1523180562642270,41,6,-3,24,20,94,47,13
1523180562643227,0,-4,9,-18,-24,-33,-27,4
1523180562643227,-2,1,-1,38,39,120,54,2
1523180562664283,11,0,3,12,17,1,-41,-1
1523180562664283,-18,-7,-8,-9,-20,-47,-7,-18
1523180562666290,0,-3,-5,-10,9,-13,-10,2
1523180562666290,12,-3,5,-25,-29,-87,-29,-5
1523180562678318,-7,0,-18,-19,-20,33,19,4
1523180562678318,3,-5,12,45,30,32,-3,0
1523180562687343,13,-12,-33,-17,8,17,12,-6
1523180562687343,-1,2,6,-6,-22,7,-5,19
1523180562702619,-11,0,-1,-6,-17,-31,-14,-11
1523180562702619,0,2,1,-37,-12,-20,16,-16
1523180562704418,18,9,15,67,28,45,14,45
1523180562704418,-15,-4,0,-6,12,9,-15,-44
1523180562724445,-3,-5,-7,-14,-23,-2,13,5
1523180562724445,10,5,3,-8,-1,60,-10,7
1523180562726447,84,4,-9,-10,45,-14,-5,11
1523180562726447,-96,-19,-5,8,10,-25,-8,18
1523180562738480,7,1,-4,-19,-34,26,4,1
1523180562738480,69,10,7,18,9,-9,4,12
1523180562747505,-52,-5,0,-48,-36,1,-15,-28
1523180562747505,39,5,2,42,22,20,-28,-9
1523180562762543,-12,-5,-22,-20,28,14,29,-5
1523180562762543,-1,-14,-9,27,-13,-42,-22,5
1523180562763547,20,10,5,-1,0,11,21,7
1523180562763547,7,-3,-6,-38,-21,-17,2,-6
1523180562784602,-19,4,7,21,2,0,18,11
1523180562784602,10,4,-4,-29,-10,23,-12,-2
1523180562786647,-7,-5,-2,5,-48,-64,-33,-16
1523180562786647,4,-5,0,1,-26,-26,34,6
1523180562798639,15,5,13,38,71,76,28,-8
1523180562798639,8,0,-3,9,-7,-47,-25,8
1523180562807665,-35,-2,9,45,77,12,12,8
1523180562807665,-23,0,-1,-18,-94,-37,-33,-13
1523180562821938,1,-6,-6,-18,-11,-107,-33,7
1523180562821938,-23,3,3,6,-18,76,70,-6
1523180562823711,-8,-2,-2,-8,29,-17,-24,-10
1523180562823711,49,5,3,12,39,20,5,32
1523180562852781,5,-4,18,16,-6,-64,-57,11
1523180562852781,-17,2,-11,-34,8,-55,-29,-47
1523180562853785,-5,-10,-26,19,0,-34,18,9
1523180562853785,6,3,39,21,35,98,36,4
1523180562857799,-12,-7,-9,-32,-13,8,-17,-7
1523180562857799,0,7,15,21,-5,-46,-13,7
1523180562866872,14,6,-6,-31,-6,-30,-4,-8
1523180562866872,-17,-4,-13,-20,27,40,33,-10
1523180562890119,22,5,17,22,-29,34,16,11
1523180562890119,-57,-10,-7,-10,50,31,-23,-7
1523180562890886,17,2,-2,14,-61,-66,-41,4
1523180562890886,-11,-2,-9,-28,-1,-12,15,-16
1523180562905157,35,3,2,5,36,35,12,-5
1523180562905157,-86,-4,-8,-3,-44,12,-5,-3
1523180562905924,13,-1,13,-19,-20,21,8,9
1523180562905924,7,-5,-10,28,26,-29,-22,16
1523180562917958,-3,-8,-12,-23,-22,-5,-12,-40
1523180562917958,37,6,1,19,-65,-110,-57,19
1523180562932997,-8,2,15,11,57,39,61,3
1523180562932997,16,-8,-19,-5,2,9,10,23
1523180562942025,-16,-3,0,-13,-39,-58,-20,-6
1523180562942025,14,0,-4,-8,27,60,33,-5
1523180562944027,-18,-3,6,-20,-17,-19,-10,2
1523180562944027,5,1,4,26,-20,-30,-8,-13
1523180562965081,-16,1,-7,19,18,-27,-4,5
1523180562965081,11,-6,-1,-16,-3,50,14,-17
1523180562966085,4,3,-5,-20,10,36,17,-7
1523180562966085,27,5,-8,-13,-10,-3,33,15
1523180562978115,-7,0,4,24,-13,-13,-7,-11
1523180562978115,-3,-5,6,11,-23,-10,-6,10
1523180562987141,13,-5,-11,-31,-28,-15,-17,-22
1523180562987141,-46,-11,-3,23,22,-54,-29,-18
1523180563002418,-31,1,-2,-1,-35,77,47,14
1523180563002418,54,7,14,-32,51,2,-11,11
1523180563004185,17,1,7,23,-55,-18,-6,18
1523180563004185,35,1,-4,5,-19,-9,-7,-8
1523180563024243,-11,-6,-11,-56,38,-27,-18,1
1523180563024243,-11,-1,7,61,2,8,34,4
1523180563026244,-13,4,-2,-36,-48,30,-1,-28
1523180563026244,14,-2,-7,-34,28,-40,-48,-1
1523180563047299,-9,4,-2,42,45,-43,23,1
1523180563047299,-47,-13,-24,-7,-13,16,22,9
1523180563048303,12,-3,20,10,7,96,14,15
1523180563048303,8,11,13,1,-45,9,11,-3
1523180563062342,7,-2,-5,-16,-1,-2,-48,-8
1523180563062342,33,-12,7,-15,11,-113,-42,-7
1523180563063343,-30,-5,-23,-9,-5,-42,-2,-7
1523180563063343,-104,-6,5,-28,-7,35,18,-11
1523180563084399,18,-4,-30,-61,20,-7,-21,7
1523180563084399,25,13,34,79,-9,-52,19,5
1523180563086404,-2,0,10,15,83,21,22,-2
1523180563086404,30,5,-9,-16,22,12,-1,-12
1523180563107461,-32,-7,2,-11,-81,-23,7,-5
1523180563107461,9,3,-1,-34,20,34,-9,0
1523180563108464,3,-13,-43,-1,28,-39,-22,-2
1523180563108464,10,7,18,16,29,9,-4,4
1523180563122500,23,-1,-8,12,-5,-12,3,1
1523180563122500,-44,-12,-13,-33,-26,2,-3,-7
1523180563128515,18,9,45,87,51,80,40,8
1523180563128515,-8,-4,-18,1,-71,18,-3,12
1523180563144559,24,5,9,3,2,-55,-36,-2
1523180563144559,-33,-2,-22,-39,-26,11,28,-40
1523180563146566,-12,4,16,10,7,6,23,4
1523180563146566,32,-9,-8,6,57,-12,-20,7
1523180563166618,34,12,26,36,-81,23,20,30
1523180563166618,-43,-1,-13,-7,11,-11,-45,-15
1523180563168624,-18,-8,-13,-33,-12,-67,-24,-16
1523180563168624,34,-1,1,-5,-36,-6,29,4
1523180563181657,6,0,-6,-16,57,41,2,8
1523180563181657,-8,-1,5,46,94,43,39,10
1523180563183663,6,-2,-14,-20,-48,12,-13,-9
1523180563183663,7,-1,2,-28,-23,-32,-39,-17
1523180563204956,-4,-1,8,33,38,-42,3,-6
1523180563204956,17,-5,-16,-42,-77,45,-6,11
1523180563210736,-5,5,29,52,29,-35,0,10
1523180563210736,-16,4,3,-11,1,76,39,-12
1523180563226778,15,-7,-10,23,19,17,4,21
1523180563226778,30,3,-5,-22,50,-34,-17,-5
1523180563228782,-8,0,-12,-7,-65,-33,-25,6
1523180563228782,32,1,-2,-12,17,-19,-3,-6
1523180563242056,-110,-12,14,-3,29,-24,-17,-26
1523180563242056,-3,-8,-7,8,-35,-61,-4,9
1523180563247877,3,0,-13,-12,19,79,9,1
1523180563247877,50,12,9,22,12,1,43,38
1523180563264880,-19,5,3,20,45,125,28,-4
1523180563264880,2,-2,-3,3,1,-30,-20,-38
1523180563265882,-1,-5,-8,-48,-99,-65,-38,0
1523180563265882,-4,3,17,46,62,-33,-13,5
1523180563286938,9,-3,-9,-2,-65,-4,71,11
1523180563286938,18,12,25,21,88,28,2,11
1523180563288943,0,-9,-27,3,-74,62,5,-17
1523180563288943,-34,-8,-20,-41,-28,-20,-20,19
1523180563302073,12,-3,1,8,48,-25,-25,-11
1523180563302073,26,7,8,-3,9,-15,-1,3
1523180563308035,10,3,3,7,-9,-26,-13,-3
1523180563308035,-76,-13,-9,-12,-73,-126,-58,-19
1523180563325040,-3,3,0,35,32,69,75,2
1523180563325040,29,-7,2,-35,-22,66,17,25
1523180563326041,2,0,1,-19,84,10,14,26
1523180563326041,-17,-3,-7,-11,-10,18,-24,-63
1523180563347097,10,9,1,-15,-31,-63,-39,10
1523180563347097,-15,-1,-6,12,-14,34,7,-11
1523180563349104,-3,-6,0,-26,11,-25,6,10
1523180563349104,13,-4,-2,-7,-10,41,11,22
1523180563361133,-21,-8,-3,14,-5,-45,-56,-40
1523180563361133,19,-1,-16,-17,-16,-91,3,13
1523180563368154,-13,9,14,55,56,87,32,-10
1523180563368154,-9,7,11,7,3,62,49,29
1523180563384196,19,5,23,-35,12,-1,-37,-4
1523180563384196,4,-10,-50,10,-13,-41,-31,19
1523180563386201,-25,-12,24,28,-21,-77,-4,-39
1523180563386201,26,1,-4,7,18,73,6,13
1523180563407259,14,11,11,-15,-98,-7,-16,5
1523180563407259,-14,-3,-12,8,21,-21,-2,-12
1523180563408260,-8,-3,4,-33,-6,-12,-5,2
1523180563408260,17,5,9,59,48,82,38,5
1523180563421350,4,3,3,-4,26,-26,-16,9
1523180563421350,19,-3,-6,-32,-51,-39,-14,22
1523180563429315,21,4,-6,-17,46,16,16,-35
1523180563429315,-32,-2,-14,-3,-55,-12,-11,3
1523180563444356,-84,-16,-5,-4,-14,-46,5,-25
1523180563444356,22,7,24,22,4,55,5,14
1523180563446362,12,0,-8,7,-4,-35,-23,10
1523180563446362,27,-2,-9,-7,21,-16,-5,6
1523180563467419,68,-3,-16,-26,-1,-63,-11,25
1523180563467419,-40,4,13,1,-48,26,14,-39
1523180563468420,-21,7,17,-9,26,16,27,2
1523180563468420,2,13,16,29,8,26,-6,-8
1523180563481454,-1,-25,-60,-22,14,31,-3,4
1523180563481454,8,-2,22,-10,4,-34,-26,-5
1523180563488474,6,-4,-25,8,-75,1,8,0
1523180563488474,-16,2,1,-22,54,33,40,-2
1523180563504750,9,3,6,17,13,46,8,14
1523180563504750,-3,5,17,-5,-10,2,-6,-5
1523180563506520,11,-8,-18,-2,49,-16,-47,1
1523180563506520,-7,-8,0,-1,-25,-128,-23,-34
1523180563526614,-38,1,7,3,-19,86,36,-8
1523180563526614,-34,5,-8,15,89,100,34,4
1523180563528578,19,4,0,-39,-41,-36,-4,12
1523180563528578,34,-1,1,42,-43,22,-6,21
1523180563540615,-28,-11,-5,-20,60,3,-12,-30
1523180563540615,9,0,14,-5,-1,-35,-19,10
1523180563549635,14,-4,-14,4,-23,-31,-9,8
1523180563549635,14,-2,-12,-38,-44,1,22,-3
1523180563564675,17,11,11,9,9,-1,-31,-2
1523180563564675,-16,-5,-18,28,-2,-5,20,-2
1523180563566681,-15,4,19,-17,4,45,26,8
1523180563566681,-22,-12,-4,-15,-61,-41,-42,-17
1523180563586735,-10,-6,-2,-7,20,-30,-1,14
1523180563586735,1,2,8,8,-7,39,19,-16
1523180563588740,-2,-2,-11,25,21,-4,-9,-4
1523180563588740,10,-1,3,-12,25,-2,9,11
1523180563601006,37,9,10,2,-53,9,-2,28
1523180563601006,-10,-3,-13,-35,-20,-73,-35,-40
1523180563609794,-16,-6,-6,7,-5,-25,-12,-4
1523180563609794,-87,-2,7,13,27,30,15,-26
1523180563624838,12,-4,-9,2,-31,-33,-8,-1
1523180563624838,31,-3,-2,-17,-24,-8,-13,19
1523180563625837,-9,2,4,-10,-2,-19,-4,-10
1523180563625837,34,0,-6,-12,33,-65,-24,15
1523180563646936,0,2,-1,-25,-6,100,80,-2
1523180563646936,-14,-1,23,71,-14,10,12,-5
1523180563648901,27,-3,-11,12,-5,-48,-24,-2
1523180563648901,-18,-11,-8,-6,32,23,-11,-1
1523180563660975,-9,3,9,-6,-64,-78,-20,-18
1523180563660975,6,10,-3,-6,-45,21,18,15
1523180563669956,9,-5,-13,3,12,3,6,23
1523180563669956,2,0,29,8,10,-48,-9,-20
1523180563684996,-8,-7,-22,14,26,67,23,-4
1523180563684996,12,-1,6,-59,-24,-36,-28,17
1523180563685999,-9,7,19,55,19,-6,-12,-21
1523180563685999,-4,-3,-26,-35,-11,-22,-7,6
1523180563706287,-50,-4,21,-12,12,36,27,-32
1523180563706287,10,-10,-20,-16,-13,-36,14,27
1523180563707054,-9,5,8,-4,39,43,-15,-4
1523180563707054,19,-4,-8,-16,-1,-57,-24,-13
1523180563729114,5,-2,-9,-12,-28,4,17,32
1523180563729114,-10,2,-2,11,16,67,12,-12
1523180563730116,-44,-9,-2,-35,-38,39,10,-20
1523180563730116,3,5,7,84,13,-23,-25,-1
1523180563744153,26,0,-11,-69,39,-38,-27,3
1523180563744153,-27,-13,4,5,4,-24,25,-3
1523180563745163,19,-1,-18,-34,2,35,8,12
1523180563745163,8,-2,10,38,-9,18,-10,22
1523180563767214,3,14,12,28,8,-66,-43,-34
1523180563767214,-1,-5,19,20,31,-15,36,0
1523180563767214,6,3,-2,-30,-19,62,12,21
1523180563767214,3,-7,-32,-35,-50,-7,17,-10
1523180563789507,3,1,-2,18,14,-23,-21,-11
1523180563789507,-8,-1,11,24,17,61,28,19
1523180563789507,-70,-4,12,12,-6,-41,2,27
1523180563789507,49,2,-10,-35,-20,61,20,-18
1523180563804550,-27,0,12,66,-2,-24,-42,-8
1523180563804550,-52,-4,-20,-19,-16,0,-36,-15
1523180563804550,28,-5,-13,-23,10,-61,-24,-2
1523180563804550,3,2,12,52,18,17,40,26
1523180563826413,19,3,14,25,29,32,25,8
1523180563826413,31,-8,-18,-2,-5,-4,-11,-1
1523180563827375,2,-1,-7,3,12,-6,3,4
1523180563827375,-25,-1,5,-42,1,-22,-18,-11
1523180563848429,15,-5,-18,-23,-23,-22,2,-9
1523180563848429,0,1,3,11,5,-18,-9,5
1523180563849432,8,0,-1,5,2,34,19,-7
1523180563849432,-2,5,4,-19,4,3,-6,4
1523180563863508,-18,-2,12,56,26,21,20,8
1523180563863508,1,1,-9,1,-4,17,-20,-20
1523180563864472,-3,-9,-3,0,-11,-5,6,-42
1523180563864472,0,-1,-18,-44,-47,-18,-10,30
1523180563886531,-1,2,17,-36,-32,-29,-16,-26
1523180563886531,-15,-9,-44,-18,-3,-4,44,-9
1523180563887533,19,6,25,7,24,105,38,5
1523180563887533,18,1,13,30,39,16,-18,5
1523180563908591,-4,-11,-18,-67,-19,-72,-10,11
1523180563908591,-22,7,18,29,-27,-13,-56,-31
1523180563909592,-85,-12,-26,-18,10,-116,-4,6
1523180563909592,13,-3,1,-2,-21,74,12,11
1523180563923635,9,2,0,0,17,84,26,-7
1523180563923635,47,11,8,-10,53,17,22,17
1523180563924634,13,-3,-2,4,-18,-88,-20,-13
1523180563924634,-22,-1,-3,-11,-62,85,5,-3
1523180563946754,18,-3,-6,-5,-27,-37,-21,34
1523180563946754,-31,5,-1,-4,44,6,-17,-58
1523180563947693,30,9,21,15,26,41,21,26
1523180563947693,-38,-16,-13,30,36,-76,-1,-18
1523180563968750,14,-2,13,11,5,4,-1,20
1523180563968750,9,-2,-23,-10,-27,-44,-44,18
1523180563969752,12,-5,0,-10,6,-11,12,-17
1523180563969752,-3,2,6,-9,-2,64,9,12
1523180563983789,-18,5,10,68,26,8,9,-23
1523180563983789,27,-1,20,15,9,9,19,13
1523180563984792,-5,0,-18,5,-30,-33,-50,-16
1523180563984792,26,1,-2,-31,-10,-41,1,-4
1523180564006853,-81,-11,-9,-8,-2,36,23,9
1523180564006853,-8,-1,1,-37,-32,-59,-23,-14
1523180564006853,20,2,-14,18,56,57,14,30
1523180564006853,5,2,17,44,-27,-2,-11,-30
1523180564028911,30,-4,-16,-23,5,-75,-23,-9
1523180564028911,11,6,17,17,-15,7,7,38
1523180564029912,7,0,20,0,13,-4,-6,-6
1523180564029912,-27,-7,-16,9,0,-18,-14,-20
1523180564044952,32,2,-16,-17,-18,-30,7,-3
1523180564044952,-8,0,-6,3,11,79,73,21
1523180564045954,-12,0,17,15,-32,57,0,-2
1523180564045954,-1,4,-4,-16,38,-49,-21,-7
1523180564066007,1,-4,0,-2,-36,-42,-26,5
1523180564066007,14,-6,7,-61,38,-62,-35,-12
1523180564067012,-18,-1,-4,57,-30,-26,-13,-16
1523180564067012,-11,0,-21,-67,-61,-70,-13,6
1523180564090075,111,16,12,67,95,91,105,40
1523180564090075,-65,0,8,18,4,70,17,16
1523180564091076,22,-11,2,-35,-46,-19,-17,-27
1523180564091076,17,3,3,36,80,-2,-21,-21
1523180564104344,7,-5,-5,-29,-48,-53,-42,-4
1523180564104344,51,7,27,28,-25,-42,-22,1
1523180564105111,-2,-4,-63,-71,-7,-14,-6,17
1523180564105111,-16,-4,30,35,40,72,33,16
1523180564126170,-19,1,3,-21,-6,4,-3,-2
1523180564126170,-12,-6,-10,-10,1,16,-10,-25
1523180564127169,-13,7,8,-2,15,6,31,-1
1523180564127169,6,-4,-14,2,-4,-27,5,11
1523180564149228,-8,-6,9,0,21,23,-12,-7
1523180564149228,-7,-4,-11,5,-43,-5,-18,5
1523180564149228,-10,-3,-2,-21,-20,-93,-30,-25
1523180564149228,25,7,-2,-16,-17,-1,8,34
1523180564164306,-42,-2,8,23,2,64,3,-27
1523180564164306,85,0,-17,-4,-27,-128,-36,22
1523180564164306,-47,7,28,44,32,105,69,11
1523180564164306,-41,-7,-5,-4,57,120,40,-8
1523180564186328,-10,-6,-17,-70,-41,-5,-38,-26
1523180564186328,-16,-8,-5,15,9,-35,-18,-1
1523180564187330,21,2,8,24,22,-49,-25,6
1523180564187330,4,2,11,-22,-27,-60,-39,-2
1523180564209388,-6,-8,-27,-8,-17,-99,-23,3
1523180564209388,15,3,14,-23,4,85,105,4
1523180564216407,18,3,-5,3,25,61,7,10
1523180564216407,-19,-9,2,-26,-9,-35,-3,-12
1523180564224429,30,8,-16,-36,-8,-54,-56,19
1523180564224429,-45,-3,8,27,-6,11,0,-45
1523180564224429,0,-1,13,-7,-13,-18,-1,7
1523180564224429,32,8,15,21,7,-26,-2,7
1523180564246723,3,-1,-1,-4,-34,78,25,-6
1523180564246723,-12,-7,-12,-22,21,-40,-31,10
1523180564247490,-7,5,-5,-28,-8,36,7,6
1523180564247490,12,3,-1,18,1,-29,7,-11
1523180564268546,-19,-6,11,31,-1,-55,-8,-2
1523180564268546,-8,-9,-30,-36,3,97,26,-5
1523180564269549,76,1,23,44,-2,-76,-23,8
1523180564269549,-37,6,-15,-16,8,91,46,16
1523180564283586,-34,3,6,21,38,15,4,-3
1523180564283586,24,3,6,24,-7,-19,-13,-7
1523180564284589,28,-8,-20,-41,-18,36,-14,3
1523180564284589,-25,-6,6,14,-23,-46,-17,-4
1523180564306648,-25,0,9,-15,8,20,9,-24
1523180564306648,-11,0,-9,10,-58,-61,-43,-15
1523180564307650,23,-2,-7,13,-62,-47,18,18
1523180564307650,8,3,5,0,69,53,19,-22
1523180564328705,6,1,-2,-4,3,6,-10,20
1523180564328705,-3,0,8,4,6,-36,-9,-15
1523180564329709,-13,0,4,-5,35,23,-15,13
1523180564329709,-29,-5,4,11,-50,15,5,-22
1523180564343747,13,-3,-21,-1,-4,-45,-12,0
1523180564343747,-13,-1,-2,-39,0,29,7,-4
1523180564344748,-4,-5,11,60,12,-10,24,2
1523180564344748,3,2,-17,-21,27,-20,36,26
1523180564366807,20,7,19,-6,-39,43,0,-6
1523180564366807,-3,-2,-15,-7,-21,-30,-34,6
1523180564366807,-22,-2,1,-8,-2,-16,-35,-17
1523180564366807,18,-6,-7,-17,-11,-70,-40,16
1523180564389102,-23,2,3,1,-10,-56,-2,-38
1523180564389102,-13,4,20,41,46,86,47,11
1523180564389871,-6,-7,-2,-13,2,12,-1,5
1523180564389871,16,-3,-5,0,1,-16,-9,-10
1523180564404143,86,1,-7,-17,13,26,5,33
1523180564404143,-86,-7,-4,-21,-42,32,13,-62
1523180564404908,15,6,20,48,46,-15,0,1
1523180564404908,13,0,-32,-16,-13,-14,-22,3
1523180564425965,-10,-1,22,19,4,28,-5,-4
1523180564425965,49,-2,8,20,-5,-57,11,21
1523180564426966,-12,0,6,-55,34,47,34,0
1523180564426966,2,-1,1,4,-3,65,-3,3
1523180564449027,-32,4,-7,11,33,-17,-16,-17
1523180564449027,4,-5,-13,-25,-28,-68,-23,13
1523180564450030,-31,2,15,7,0,29,25,-13
1523180564450030,36,-1,4,-4,-2,42,27,23
1523180564464109,-13,-6,-11,9,23,25,9,-3
1523180564464109,-16,-7,-4,-21,-13,-63,-38,-3
1523180564465070,-15,-1,-13,-20,-14,-4,10,-8
1523180564465070,1,0,-12,4,0,6,-16,-7
1523180564486129,29,0,23,9,-13,18,30,12
1523180564486129,-28,3,-1,5,38,74,8,25
1523180564487127,22,-8,-17,-26,-25,-86,-47,-10
1523180564487127,-22,-2,-5,9,-24,16,-6,-21
1523180564509185,-3,5,19,23,62,29,60,19
1523180564509185,37,-7,-20,-17,-24,-13,-20,-5
1523180564509185,-7,-9,-15,-9,-6,-57,-30,8
1523180564509185,-21,-2,11,-39,24,-52,12,-13
1523180564524229,-11,0,5,23,-3,-37,-22,-13
1523180564524229,39,11,10,27,-21,34,12,24
1523180564524229,-9,0,-20,-3,1,14,-12,-12
1523180564524229,-28,-8,10,1,-7,-80,-34,-26
1523180564546287,5,-8,-14,-6,-1,-27,9,16
1523180564546287,-23,-2,10,34,49,35,23,-28
1523180564547287,34,4,-5,-18,-33,-4,-26,13
1523180564547287,-29,-4,3,-1,-13,7,2,-16
1523180564569346,-18,-10,-17,-31,-17,13,14,-1
1523180564569346,13,4,4,21,11,-7,-18,9
1523180564570347,-12,-2,2,-4,-35,-21,24,9
1523180564570347,7,-4,-12,-30,1,51,-7,1
1523180564583383,9,4,11,65,2,-17,-41,-29
1523180564583383,14,0,1,40,15,-42,39,25
1523180564591404,5,3,-13,-14,24,20,2,-9
1523180564591404,17,5,18,23,26,50,46,19
1523180564606446,-10,-9,-12,-53,-60,-30,-33,8
1523180564606446,-9,1,-18,-20,-17,-55,-29,-10
1523180564607447,-8,5,20,56,-22,6,32,-12
1523180564607447,-8,0,-5,2,9,49,-3,11
1523180564628505,0,0,-8,-19,-3,-48,-9,-9
1523180564628505,10,-7,0,-33,-5,-11,-23,-3
1523180564629505,-34,-2,-13,-22,-16,-64,-24,-11
1523180564629505,23,-7,-10,-17,-27,6,52,-4
1523180564643543,-35,2,7,41,54,74,2,14
1523180564643543,-28,-7,-6,-24,-31,-48,-9,-15
1523180564651563,20,-1,4,-11,-11,-21,-8,11
1523180564651563,-21,2,-12,13,-3,-43,-27,-14
1523180564666604,22,0,6,0,-6,-13,33,4
1523180564666604,21,5,9,9,33,26,8,18
1523180564667606,-15,-6,6,-9,-8,-48,-28,-14
1523180564667606,18,10,17,22,36,28,4,5
1523180564688663,10,-12,-27,-39,-83,-46,-30,-16
1523180564688663,15,-1,-9,-9,44,-29,9,2
1523180564689667,-41,0,15,39,10,127,34,-2
1523180564689667,2,-1,-7,-9,-29,-104,-36,-24
1523180564703895,-3,1,7,-23,-52,54,22,18
1523180564703895,5,-7,-8,-3,55,37,2,9
1523180564711724,41,8,-5,-24,-14,19,-4,-14
1523180564711724,-35,-4,-2,2,39,-12,-3,-14
1523180564726763,-28,-4,11,-1,17,-25,-17,2
1523180564726763,4,9,23,6,-18,-23,-10,-9
1523180564726763,14,-9,-49,-31,3,22,27,6
1523180564726763,16,-4,15,36,-13,-6,-30,14
1523180564748863,25,1,-7,-26,36,-33,20,8
1523180564748863,-21,2,9,7,-16,88,15,-19
1523180564749825,-7,0,0,5,-14,-19,-12,26
1523180564749825,6,-5,-6,-60,-34,-33,-14,-7
1523180564762859,24,-1,0,24,24,79,29,18
1523180564762859,-35,3,-1,2,0,4,0,-10
1523180564771885,15,0,1,1,34,12,-5,-4
1523180564771885,-8,-3,-9,-27,-43,-30,-22,2
1523180564786925,-33,2,8,17,13,-19,-19,-17
1523180564786925,22,-9,-19,13,-22,-90,-9,9
1523180564786925,-15,0,3,-4,-26,50,25,5
1523180564786925,46,0,4,16,90,94,23,17
1523180564808988,-5,10,4,-19,-8,-26,-11,-2
1523180564808988,-15,-7,-26,-20,-1,12,0,-11
1523180564809984,-9,-1,30,13,-17,-44,-30,-29
1523180564809984,-1,-2,0,49,-41,-54,-20,0
1523180564823023,8,-4,-3,-1,-25,25,29,-1
1523180564823023,28,10,9,-8,49,52,13,20
1523180564831042,-7,-4,-16,-20,9,3,-4,11
1523180564831042,-11,1,1,3,9,9,3,-26
1523180564847082,10,-2,-11,4,48,-10,-46,1
1523180564847082,-16,-3,3,-17,-34,-83,24,-20
1523180564847082,55,10,6,32,29,108,40,5
1523180564847082,-19,4,25,34,-5,1,17,23
1523180564869144,-48,-10,2,-3,1,-35,-12,-8
1523180564869144,6,-7,-36,-28,-5,19,-22,3
1523180564870224,12,-2,13,2,-11,-86,-31,-22
1523180564870224,11,1,-4,-22,-10,2,7,21
1523180564883182,32,15,14,15,18,49,29,-4
1523180564883182,0,-8,-16,-7,-16,27,-3,19
1523180564891201,-10,-8,5,-4,14,-53,-26,-9
1523180564891201,24,1,-1,60,5,-3,28,43
1523180564906242,-45,1,5,4,-19,-12,-24,-53
1523180564906242,0,1,2,-10,30,-5,-8,-25
1523180564907245,0,0,-16,-1,-30,-3,19,8
1523180564907245,-15,5,10,-31,-16,10,15,-10
1523180564929303,7,-3,-5,19,-33,-15,15,42
1523180564929303,10,2,10,7,17,2,-21,-33
1523180564929303,-33,-8,-6,-9,-8,-31,-39,-5
1523180564929303,-8,-2,-11,-53,8,-49,-18,-14
1523180564952598,55,-3,-18,-14,-35,32,35,-1
1523180564952598,-61,-8,4,-23,-12,-2,-15,21
1523180564952598,4,4,16,20,30,3,14,-14
1523180564952598,-20,-2,-3,-6,-1,38,0,-12
1523180564966402,7,-1,-5,7,1,-32,-23,3
1523180564966402,23,2,-3,-6,-65,9,2,7
1523180564967403,0,1,-1,-40,-8,-8,8,19
1523180564967403,-7,-6,-12,-2,-23,-4,-14,-17
1523180564989467,-3,-10,-8,3,2,-22,-28,-31
1523180564989467,-34,0,17,23,13,29,22,8
1523180564989467,-6,4,5,19,21,15,-5,6
1523180564989467,-1,-2,-10,-9,9,70,41,1
1523180565012523,5,4,1,-11,-22,39,11,12
1523180565012523,53,0,0,9,2,-99,-24,15
1523180565012523,-98,-6,0,2,-39,-42,-7,-29
1523180565012523,1,-2,6,-45,-8,42,-11,6
1523180565026600,8,-5,-20,41,44,-29,-9,3
1523180565026600,7,-1,-4,-30,-9,22,10,-20
1523180565027563,57,4,-2,49,20,-49,-21,39
1523180565027563,-30,-4,24,-9,-36,-60,-22,-46
1523180565048619,-30,-4,-24,-53,-12,-2,15,4
1523180565048619,12,3,27,37,16,53,12,-2
1523180565049622,23,2,-16,-15,19,45,16,18
1523180565049622,-16,-1,-6,-2,-3,-15,-10,-3
1523180565071918,16,5,13,22,20,-8,-9,6
1523180565071918,-11,-3,-4,-25,1,-40,-8,-10
1523180565072685,-9,-4,-18,-24,-14,53,5,-11
1523180565072685,-3,0,13,46,-28,-46,0,-5
1523180565086721,8,-4,-9,-26,-14,-22,-32,6
1523180565086721,-4,0,4,-28,-16,-101,34,4
1523180565086721,-9,13,7,10,40,95,101,-5
1523180565086721,41,3,-2,-6,23,27,4,25
1523180565108780,-51,-6,-15,5,-11,-64,-29,1
1523180565108780,17,-2,4,-4,-10,20,-15,9
1523180565109781,-19,-9,5,-21,-21,-108,-57,-29
1523180565109781,15,2,-12,11,-6,-19,-8,-13
1523180565131841,2,6,4,-1,11,31,6,-5
1523180565131841,15,-2,-1,10,-13,25,-12,6
1523180565132844,4,-4,-14,-22,17,0,-4,2
1523180565132844,5,-5,-28,-27,-14,-12,-12,8
1523180565146881,6,1,35,68,66,-64,4,1
1523180565146881,-2,7,10,23,-2,114,47,24
1523180565146881,0,-5,3,14,1,-28,-12,-18
1523180565146881,-7,1,-13,-24,-45,-69,-17,-2
1523180565169176,4,-2,3,-66,-10,72,15,10
1523180565169176,-19,-5,1,103,99,-1,6,-16
1523180565169943,13,-1,0,4,7,14,-15,4
1523180565169943,14,-1,-5,-13,19,-64,-9,29
1523180565192001,-29,-2,-2,-16,-24,27,2,-9
1523180565192001,12,-1,1,-12,0,15,21,-34
1523180565193004,34,6,-3,6,1,2,-8,27
1523180565193004,-8,-7,8,28,8,-19,-16,-46
1523180565206042,-47,-9,-10,-27,-21,-19,-3,14
1523180565206042,5,1,-14,-36,-29,-78,-38,2
1523180565207041,15,8,14,50,41,53,49,18
1523180565207041,30,3,6,-6,-38,33,12,24
1523180565229099,7,-4,-4,19,-10,-46,-24,-23
1523180565229099,-11,-2,-12,-51,-10,17,-12,-15
1523180565230102,-3,3,32,67,11,18,18,-2
1523180565230102,-11,-6,-26,18,8,13,6,8
1523180565252397,8,0,7,-6,-2,23,3,-5
1523180565252397,-7,-2,4,-10,-30,-43,-27,3
1523180565253162,-3,1,-7,-6,-25,-81,-36,-15
1523180565253162,-16,1,9,-8,51,11,0,5
1523180565266199,3,-4,-3,13,23,24,61,-12
1523180565266199,17,2,0,3,4,72,11,33
1523180565267200,-19,-3,-3,-32,17,8,-34,-23
1523180565267200,-31,-4,-7,-24,-37,-84,-34,-14
1523180565289263,24,4,3,20,5,-55,30,13
1523180565289263,31,6,6,57,18,78,46,35
1523180565289263,-49,-14,-14,-29,-13,-23,-10,-22
1523180565289263,2,-4,-2,-8,-2,-37,-24,11
1523180565312328,5,3,0,-6,-19,-54,-46,-46
1523180565312328,-1,1,-4,2,0,-44,-5,6
1523180565313324,-35,-2,-6,0,-36,0,1,7
1523180565313324,5,2,13,-17,10,-35,0,-25
1523180565326361,1,-10,-25,3,2,65,66,26
1523180565326361,35,3,4,-9,-9,66,-12,-2
1523180565327362,9,-5,-15,-12,-9,-19,-18,30
1523180565327362,-17,6,34,51,22,-7,-18,-9
1523180565348415,5,-1,-21,-38,-25,-55,-32,-14
1523180565348415,-29,-18,-14,-35,-13,-10,20,-18
1523180565349419,17,2,24,63,23,31,17,8
1523180565349419,13,1,-12,4,-12,5,13,6
1523180565372500,-26,-2,12,-10,-18,-12,-45,-30
1523180565372500,14,3,-3,-9,-8,-118,-4,16
1523180565372500,-14,-3,-11,-39,-7,68,40,-17
1523180565372500,19,2,5,26,34,57,24,8
1523180565386518,-29,-4,2,1,-3,2,12,14
1523180565386518,-36,-5,-4,-13,-11,-39,-30,-23
1523180565387520,46,-1,-9,-15,21,-8,-12,0
1523180565387520,9,0,-7,-7,-38,-9,-6,1
1523180565408576,9,5,9,-6,15,5,0,10
1523180565408576,1,-2,6,36,-6,8,11,9
1523180565409578,-10,-9,-8,-15,-7,-22,-17,-25
1523180565409578,-6,-6,-16,-27,7,1,21,4
1523180565432742,23,10,3,5,-1,-1,-13,28
1523180565432742,-46,1,6,-8,2,16,-13,-49
1523180565432742,32,-2,-4,-23,-22,-66,0,9
1523180565432742,-6,-4,-8,-1,4,28,4,-2
1523180565446680,-10,-4,2,20,5,19,-18,25
1523180565446680,-1,5,2,-2,-2,19,27,7
1523180565446680,-7,-2,-4,-22,-12,-4,1,1
1523180565446680,51,4,0,9,1,6,-8,-5
1523180565468735,-69,-10,7,0,11,-46,-8,-18
1523180565468735,-17,1,-17,-45,-13,10,-25,5
1523180565469738,-3,4,26,49,5,12,14,3
1523180565469738,5,-5,-12,-14,6,-14,13,28
1523180565491797,31,-4,3,-18,-6,54,-16,-12
1523180565491797,-9,-6,-21,-32,-21,-55,-28,-13
1523180565492800,8,1,-14,12,-1,-59,14,11
1523180565492800,-8,6,-7,10,9,53,-14,-14
1523180565505835,6,0,23,11,-41,-2,51,4
1523180565505835,8,4,0,6,84,51,-7,-7
1523180565513895,-9,-3,-12,-38,-67,-29,-33,-16
1523180565513895,-13,-7,12,22,-12,-75,-19,7
1523180565528896,3,4,-1,17,11,66,33,-4
1523180565528896,7,4,16,36,-17,-16,3,-1
1523180565529900,23,4,-11,16,52,-3,-22,6
1523180565529900,-29,-5,-8,-12,-58,-68,4,3
1523180565552191,-6,-7,0,-8,-41,84,8,-12
1523180565552191,78,4,4,-14,63,10,3,12
1523180565552959,-48,0,-10,-25,-13,-18,-7,-14
1523180565552959,-67,-8,19,24,16,4,21,-1
1523180565565994,38,5,-17,0,-8,-76,-19,7
1523180565565994,-5,-13,-19,-40,-24,12,27,9
1523180565574017,25,9,44,91,27,38,1,3
1523180565574017,26,11,16,6,23,127,31,12
1523180565589057,-9,-2,-24,-33,-10,-6,-6,3
1523180565589057,-24,-7,-12,6,-13,-77,-38,-16
1523180565590069,44,-6,-14,-35,50,-54,-20,6
1523180565590069,-43,-4,-1,-17,-55,-7,-3,-29
1523180565612156,-13,0,6,1,26,-22,-18,-7
1523180565612156,-2,3,6,34,-21,-43,-13,4
1523180565613120,-14,-8,-5,-32,3,40,30,-3
1523180565613120,28,0,4,4,-6,-8,-16,17
1523180565626155,19,-1,-11,-42,17,-9,-1,-21
1523180565626155,-11,-4,7,72,2,7,12,-2
1523180565634214,-25,4,2,9,-26,35,34,15
1523180565634214,15,-1,-5,-20,19,5,-13,-3
1523180565649215,-26,-6,-1,2,3,-18,-12,3
1523180565649215,0,2,4,-20,-34,-22,-16,-12
1523180565649215,2,2,7,-24,-26,-27,-1,-13
1523180565649215,22,-12,-36,29,35,48,10,19
1523180565672292,-10,-2,4,-13,10,-13,-5,-3
1523180565672292,-29,7,13,39,0,10,-2,-12
1523180565673281,21,-10,-17,-39,-41,-12,-41,-6
1523180565673281,-30,-1,9,-23,8,-100,-18,-22
1523180565685312,43,10,9,22,31,99,89,39
1523180565685312,9,-6,-18,-72,-19,13,-17,1
1523180565694428,-20,-3,-1,18,-17,-63,-6,-13
1523180565694428,10,6,14,8,14,-4,-2,5
1523180565708373,2,-2,-2,17,9,8,-25,-9
1523180565708373,7,2,1,-24,4,24,3,20
1523180565709375,-18,-3,-18,-35,-42,15,-2,-17
1523180565709375,35,-3,-9,19,41,-8,-5,1
1523180565732672,-50,2,22,21,-40,-46,-5,-8
1523180565732672,-18,-10,-34,-14,-2,-18,-5,-5
1523180565732672,11,-4,12,-21,-1,-18,-21,1
1523180565732672,-20,1,-13,25,-7,22,52,18
1523180565745471,25,8,17,-5,25,61,32,-17
1523180565745471,-26,0,9,38,-8,50,-11,6
1523180565754568,-17,-4,-10,-2,18,-31,-26,-4
1523180565754568,14,-7,15,-39,-11,-35,-25,-1
1523180565768534,16,-1,-18,0,-49,-72,-25,3
1523180565768534,0,4,4,-11,-11,-22,5,-1
1523180565769535,8,2,13,12,1,80,48,7
1523180565769535,3,-7,-24,-12,9,12,-14,-5
1523180565791594,-20,-7,-6,2,-14,-30,-27,-8
1523180565791594,11,-2,8,-31,-16,-39,-5,-15
1523180565792596,-14,3,18,62,31,-8,49,18
1523180565792596,10,7,-3,-4,22,79,20,-4
1523180565814656,2,-6,-4,-11,-17,-25,-11,-4
1523180565814656,4,2,14,17,9,28,-3,23
1523180565815660,17,-4,-28,-40,-14,-74,-27,-22
1523180565815660,-18,-4,5,3,24,-19,-5,-34
1523180565828695,-41,-3,-3,-8,-5,2,-14,-2
1523180565828695,22,4,11,28,-4,-28,-8,-5
1523180565829696,12,0,-13,-19,-15,-57,-18,30
1523180565829696,-48,-5,14,19,15,111,64,-10
1523180565851796,31,8,8,-28,22,-31,-1,7
1523180565851796,8,-1,6,54,-16,21,-3,5
1523180565852756,12,-3,-8,-21,-24,-24,-31,-4
1523180565852756,-10,2,-8,7,-17,-40,0,-28
1523180565874850,11,1,15,-16,32,39,0,30
1523180565874850,-13,-4,-20,7,10,-23,18,-14
1523180565875818,9,0,-9,-6,22,45,-15,22
1523180565875818,2,0,23,10,-9,-47,-5,-10
1523180565888854,7,-4,-12,-9,-8,9,-5,18
1523180565888854,4,-5,0,-35,26,5,-12,-11
1523180565889859,-32,1,7,-14,16,-27,-22,-39
1523180565889859,17,8,12,-27,-12,-21,49,21
1523180565911914,10,-2,-14,43,30,42,-1,7
1523180565911914,-7,-1,0,-39,-32,-87,-29,0
1523180565912917,-47,-12,1,-1,-14,-60,28,6
1523180565912917,10,3,-7,18,10,54,-10,-1
1523180565934975,4,1,10,10,-10,-26,-17,-27
1523180565934975,38,-5,-3,-9,-1,-4,5,13
1523180565934975,-25,-5,-19,-9,-13,-9,-18,-1
1523180565934975,2,-1,-7,-15,-35,-28,-31,-17
1523180565949012,10,3,8,10,25,20,15,23
1523180565949012,-7,-3,-12,-9,10,14,14,1
1523180565950015,10,3,21,-4,-2,47,8,-1
1523180565950015,1,-8,-9,31,-5,-40,-4,10
1523180565972080,-1,6,-2,8,29,20,-7,-4
1523180565972080,-11,-4,-6,3,-3,-15,-11,-6
1523180565973080,7,1,3,-12,-8,75,42,-1
1523180565973080,3,-3,-2,48,7,-29,-40,9
1523180565994137,5,-5,-11,-38,-48,-90,-21,-12
1523180565994137,12,3,4,10,23,54,40,14
1523180565995134,16,5,2,-1,8,13,-28,-19
1523180565995134,-62,-12,-7,-73,-30,-96,-40,-20
1523180566009173,-13,7,7,39,20,68,98,49
1523180566009173,-13,-8,-6,6,20,78,1,-17
1523180566009173,-4,3,-5,16,5,-37,-33,-20
1523180566009173,27,0,3,-50,-12,-24,19,4
1523180566032471,13,1,0,9,-3,16,-17,9
1523180566032471,6,6,21,-17,-16,-33,-2,4
1523180566033237,4,-2,-16,14,5,25,5,17
1523180566033237,-5,-8,-13,3,-19,-47,-42,-6
1523180566054530,-4,-5,-4,35,20,-64,-29,-11
1523180566054530,-5,2,6,-31,-39,-3,41,-4
1523180566055296,8,1,-2,16,101,73,21,8
1523180566055296,2,5,7,2,18,65,22,19
1523180566069332,-4,-7,-2,-13,-42,5,-10,-33
1523180566069332,-15,0,-8,-64,-61,-81,-63,-9
1523180566069332,-14,-2,11,44,-3,-17,15,19
1523180566069332,23,5,-1,51,21,-27,22,-12
1523180566092394,-19,-6,4,14,21,72,-4,-4
1523180566092394,-37,-7,-8,-5,-18,-24,-13,-10
1523180566093435,26,-2,1,-6,-14,5,1,-4
1523180566093435,1,3,-2,-28,-13,-49,-38,17
1523180566114452,20,1,-10,18,-4,-65,6,-12
1523180566114452,-64,2,4,44,43,91,61,21
1523180566115455,-18,-7,15,28,-11,6,8,0
1523180566115455,9,-3,-7,-12,-10,32,-9,-1
1523180566129530,17,-9,-15,-51,-50,-88,-36,-10
1523180566129530,20,1,-4,4,19,-36,-21,1
1523180566129530,5,-5,-29,-19,-33,-37,-13,-10
1523180566129530,6,9,36,30,31,53,29,7
1523180566152553,-2,3,-12,-34,23,3,-5,12
1523180566152553,0,2,15,48,-25,33,10,-29
1523180566152553,2,-2,-11,-16,-12,-15,-5,11
1523180566152553,-12,-8,-13,-21,-15,-22,-32,-16
1523180566174614,4,2,8,42,1,-61,-3,16
1523180566174614,4,1,-4,2,42,16,16,-14
1523180566175616,-2,9,18,4,8,80,49,17
1523180566175616,-11,1,-6,-38,1,120,10,18
1523180566188649,-9,-11,-18,-5,4,-26,-22,-30
1523180566188649,35,-3,-5,5,-15,-56,-33,-11
1523180566189658,-15,1,12,-16,3,17,10,-5
1523180566189658,-9,-3,-2,12,1,-14,1,6
1523180566211712,-40,-1,4,-34,-5,-30,-17,-12
1523180566211712,27,2,12,62,-2,-35,15,-2
1523180566212714,-30,-5,-37,-55,18,78,7,-13
1523180566212714,11,0,5,11,-1,-3,-2,7
1523180566234772,10,0,1,-4,-10,13,3,-10
1523180566234772,-2,3,27,-9,21,-22,6,6
1523180566235775,30,3,-4,29,1,-29,-15,5
1523180566235775,-6,-11,-11,-20,-17,-47,-31,-11
1523180566248809,-5,-5,-22,-67,-45,-73,-8,-1
1523180566248809,25,13,22,66,26,97,55,35
1523180566249813,-19,4,21,42,6,6,-24,-16
