timestamp,emg1,emg2,emg3,emg4,emg5,emg6,emg7,emg8
50960649061,32,-6,0,62,-2,-4,-5,-2
50960649061,12,13,14,46,10,3,17,-11
50960649787,4,-5,-17,-32,-4,-3,-5,-30
50960649787,-6,-21,2,-12,-6,-5,-11,6
50960650582,-36,-8,-5,-16,-3,0,-20,5
50960650582,14,32,4,-13,13,1,18,4
50960651330,-1,21,20,81,0,0,-4,-5
50960651330,-18,-23,-19,-11,-2,-3,7,-14
50960662137,7,-2,-10,-18,-2,0,-3,9
50960662137,-12,-33,-10,-43,0,-2,-3,-29
50960670798,1,15,8,-13,-7,-1,-15,6
50960670798,4,8,5,-3,-5,-4,-8,20
50960678455,-5,-16,-6,-7,-2,-3,15,3
50960678455,15,11,-1,15,8,4,5,7
50960692836,1,11,-5,2,-4,-1,3,7
50960692836,-4,-5,8,-14,-6,2,-2,-23
50960700799,-3,-25,-14,48,-1,-1,5,4
50960700799,17,-6,4,-77,-22,-7,-17,-12
50960707161,2,2,-5,-1,5,1,50,10
50960707161,-24,-21,-1,-7,7,3,-5,-2
50960722159,18,19,10,-12,8,0,1,-7
50960722159,-15,-10,-1,12,-7,-2,-1,2
50960730756,2,5,-5,16,-5,-1,-17,0
50960730756,5,12,6,29,-2,0,1,2
50960770217,-2,-19,-12,-17,3,0,-1,6
50960770217,-7,-15,-24,-1,-23,-7,-12,-8
50960771194,0,-1,4,24,6,1,-2,-12
50960771194,-25,9,5,23,11,1,-5,-4
50960771876,33,17,-20,-94,-13,-2,15,-21
50960771876,-40,-16,10,4,6,0,3,6
50960775129,3,2,0,9,0,-2,-1,6
50960775129,7,-7,-6,-42,-9,-6,-1,1
50960781761,10,2,1,47,4,0,-28,-25
50960781761,-30,7,-2,32,1,-1,1,-18
50960789210,18,-19,1,-32,-1,0,-13,18
50960789210,-5,27,9,10,1,2,16,15
50960798250,-13,-26,1,52,0,-1,-10,9
50960798250,49,6,-6,-76,-3,-1,1,17
50960812427,-27,19,-4,20,0,-2,3,7
50960812427,20,-10,2,2,-4,-4,-15,-17
50960819252,-13,10,3,-3,2,-2,17,13
50960819252,-7,-31,2,15,5,4,1,-2
50960826721,4,19,-11,31,-5,-3,2,-4
50960826721,-3,-50,-16,-30,-3,0,0,5
50960841819,-19,6,-2,6,-15,-5,3,0
50960841819,21,9,0,-23,4,6,3,-8
50960849384,8,22,7,-27,-1,0,-12,9
50960849384,-28,1,-3,13,5,0,2,-15
50960865779,-19,-19,1,11,2,-1,-36,17
50960865779,22,5,2,13,-3,-4,-20,3
50960872607,-5,5,0,-19,-3,0,2,11
50960872607,-34,-11,4,11,0,-3,0,14
50960879298,-4,9,2,-2,6,1,3,-8
50960879298,-7,-3,-1,-3,-14,-6,-15,-1
50960886735,2,-26,-3,2,2,-1,12,-10
50960886735,51,-1,7,5,-3,-2,6,-5
50960901753,-19,-14,6,21,11,2,4,4
50960901753,18,31,2,16,0,2,-3,3
50960918105,-8,-42,-13,-1,1,-2,6,-17
50960918105,34,16,2,-1,-5,-1,-1,-14
50960919720,13,11,5,-3,5,3,4,0
50960919720,-2,5,12,-4,0,0,12,16
50960932431,-3,12,-3,-39,-13,-4,7,-21
50960932431,-17,-4,-5,-2,3,-1,6,9
50960939233,40,-8,4,-17,-2,2,12,7
50960939233,-45,-6,-18,-2,3,-2,7,-8
50960946734,-8,7,14,41,4,-1,-6,-6
50960946734,1,1,-3,-31,-12,-3,-4,8
50960961742,5,10,5,-18,3,1,11,1
50960961742,27,-5,9,48,10,-1,-12,4
50960969220,-6,14,-15,-46,-21,-7,22,-6
50960969220,-3,-14,-3,37,0,2,2,-31
50960985737,-19,-3,-1,-7,-12,-5,-6,15
50960985737,-4,1,-2,1,4,-1,7,-9
50960992623,4,-11,-8,20,6,0,-19,-13
50960992623,-29,22,-5,-52,-6,-1,-8,19
50960999383,6,-4,-10,2,-1,-1,27,2
50960999383,-9,-18,4,-1,-3,-3,-4,-11
50961006842,3,-7,14,8,8,4,-8,3
50961006842,1,6,-10,-13,-1,1,-9,1
50961021742,-2,7,11,8,-7,-4,-14,-12
50961021742,-3,-3,-8,-10,2,-1,0,7
50961029402,4,-7,6,17,1,1,15,6
50961029402,5,14,14,91,21,5,-2,3
50961038198,6,23,1,9,-19,-5,-7,-4
50961038198,6,1,-23,-72,-17,-4,0,-13
50961052545,-10,-21,5,35,8,2,-11,-13
50961052545,10,-5,5,24,4,-4,2,-2
50961059365,-22,-21,-4,28,14,3,22,25
50961059365,10,3,5,9,1,0,23,0
50961066755,8,33,0,-13,-2,2,-9,10
50961066755,7,-10,10,-18,-5,-4,-7,-2
50961081701,13,-25,-14,-17,-1,1,13,6
50961081701,-8,0,0,-4,-5,-4,-8,-2
50961089361,0,12,-3,6,-3,-1,-1,-1
50961089361,-5,-5,-3,-4,-1,0,0,0
50961098372,-4,-4,-1,-6,-1,0,-18,-2
50961098372,-6,0,5,39,7,3,-7,-26
50961112570,-7,-5,-18,-89,-14,-6,-4,5
50961112570,9,9,-1,-3,-4,-1,-5,-4
50961119362,22,10,-3,4,3,1,2,9
50961119362,-71,-22,-6,6,-4,-5,-9,10
50961135044,4,-12,-1,17,3,0,7,6
50961135044,-8,-2,-6,-13,-6,-1,5,-15
50961141885,13,13,1,-10,5,0,-38,-9
50961141885,2,17,10,6,5,1,21,18
50961149249,-28,-17,-5,9,2,1,-5,6
50961149249,34,5,-10,-13,-5,-4,-3,-1
50961158200,-6,-4,6,-7,-9,-3,13,-20
50961158200,10,-2,3,-1,1,2,-16,13
50961172574,6,-4,-2,0,-1,-2,-6,-9
50961172574,-14,14,0,9,5,0,5,10
50961179436,1,-2,-3,5,4,0,8,2
50961179436,15,8,3,-8,-1,-1,-3,1
50961195061,3,-5,7,24,4,-1,8,5
50961195061,13,-4,-3,-20,-7,-3,-2,3
50961201787,-66,9,-8,-38,-6,-4,-9,-25
50961201787,11,2,11,2,5,0,-9,-1
50961209417,-2,4,-8,-2,-9,-2,5,18
50961209417,-2,-16,-4,-1,-2,-1,-11,-17
50961218212,7,36,3,4,-2,-3,12,6
50961218212,-1,-24,-5,1,1,-1,-21,-27
50961232545,-6,-5,11,-10,-3,-4,-2,-5
50961232545,-9,-7,-8,0,2,1,1,8
50961239455,23,-10,-7,17,3,5,0,-2
50961239455,16,20,9,12,-7,-2,10,8
50961254732,9,8,-9,-23,0,0,-8,8
50961254732,-6,-10,2,-8,-5,-1,-3,-2
50961263326,34,-9,0,17,2,0,-11,4
50961263326,-96,11,2,-8,-2,-4,20,-9
50961269437,14,-7,4,10,4,1,1,-8
50961269437,-9,-1,-1,12,0,2,3,24
50961278209,15,1,4,6,1,1,6,2
50961278209,36,-5,-2,-3,-3,-1,11,-4
50961292568,-9,1,-1,-1,-3,-3,-24,-7
50961292568,-10,3,0,4,3,-2,4,-2
50961299405,-15,-16,2,5,-1,-3,12,-4
50961299405,9,-13,-7,1,2,-2,-27,-6
50961315115,-16,15,2,9,4,2,29,1
50961315115,8,-22,-5,-59,-8,-1,1,-9
50961321909,0,3,-5,-38,-5,-4,-10,-5
50961321909,-14,2,-5,7,-5,-3,15,14
50961329429,2,1,0,-1,6,-1,-11,3
50961329429,-11,-6,6,27,0,-2,5,7
50961338194,-11,-13,-11,9,-7,-3,-1,-4
50961338194,19,7,0,3,4,0,-3,-4
50961352532,5,3,7,39,8,4,-1,-15
50961352532,-20,12,-4,-23,-5,0,-1,9
50961359409,5,-7,5,15,2,-5,-8,-5
50961359409,17,4,0,8,1,3,4,1
50961375102,16,-5,-3,-1,-5,-2,4,-2
50961375102,3,7,1,24,8,3,-11,-16
50961381886,-2,-8,-8,-54,-9,-4,-7,-3
50961381886,13,3,-6,-19,-4,0,-7,3
50961389376,-6,9,-2,-6,3,1,18,-9
50961389376,31,-11,0,1,-3,-1,-20,-5
50961398243,-53,26,-9,2,-6,-1,-4,2
50961398243,2,-45,-16,-4,2,2,9,21
50961412613,0,-10,6,-13,-9,-4,-10,11
50961412613,3,-14,-13,6,-4,-3,5,1
50961419407,3,10,12,20,7,0,-4,-6
50961419407,16,21,9,15,5,-1,-12,-7
50961435062,-8,-7,-13,-37,-3,-2,7,9
50961435062,2,8,3,4,-4,-3,-1,-5
50961441875,5,-6,3,0,3,1,4,3
50961441875,-7,7,3,-1,1,1,-1,-5
50961449302,10,-7,1,16,1,-3,-12,5
50961449302,-16,-8,-11,-31,-8,-4,2,-14
50961464274,1,-5,-4,-25,0,0,-3,5
50961464274,8,-4,-7,-1,-4,-1,3,-11
50961472466,15,-10,-3,9,-3,0,-10,-8
50961472466,1,14,-1,10,4,0,2,5
50961479410,-8,-20,7,13,2,-2,-7,-5
50961479410,0,1,-1,-5,-5,0,1,-5
50961495146,-4,2,6,-2,1,0,0,4
50961495146,-4,6,1,3,1,-1,-5,2
50961501744,8,7,5,2,3,1,1,-3
50961501744,6,2,2,-2,6,1,-2,-7
50961509441,-5,-15,-4,3,-7,2,-2,16
50961509441,-40,5,7,1,0,-3,0,-34
50961524379,-6,0,2,38,2,0,13,-7
50961524379,1,0,-7,-82,-13,-4,-14,5
50961532426,0,2,2,6,2,0,-1,-3
50961532426,11,4,4,7,5,4,19,10
50961539403,-4,29,6,1,0,-1,-11,-4
50961539403,-3,-48,-5,19,1,1,-17,-2
50961555147,-7,-11,1,-9,-4,-5,6,-7
50961555147,3,5,2,10,6,3,-7,-3
50961561901,-3,-15,-6,-41,-12,-3,2,-1
50961561901,-17,25,4,13,1,-1,10,6
50961569376,28,5,-3,-6,-1,-1,-7,-6
50961569376,-4,-9,-2,10,6,0,-2,7
50961584307,-8,2,-6,12,2,4,-1,-15
50961584307,15,11,0,2,-6,-4,15,15
50961592592,-26,-10,-2,-9,-4,-2,-6,-2
50961592592,26,3,3,1,0,-1,-5,-2
50961599391,6,5,-1,1,-1,-1,-9,0
50961599391,-37,5,-1,0,-1,-3,4,-10
50961615023,-2,-35,-2,5,1,0,1,-8
50961615023,7,-4,-2,-1,-7,0,6,1
50961621769,2,-27,-12,-2,0,-2,-27,26
50961621769,22,20,1,16,-2,-2,1,37
50961629418,-9,22,-1,-39,-4,-2,1,-7
50961629418,-14,-5,-3,-2,-1,-1,11,-4
50961644332,12,-11,0,-12,-2,-3,4,-5
50961644332,-4,5,6,9,2,1,-6,0
50961652577,2,3,-7,14,5,1,-5,-7
50961652577,-7,-1,4,-11,-6,-3,-1,32
50961659399,-1,25,3,5,1,-1,15,-2
50961659399,5,-16,6,7,3,-2,-15,-31
50961675048,-16,-19,-10,16,-4,-4,-2,16
50961675048,-22,-16,-21,-64,-10,-3,-2,-3
50961681861,2,17,7,10,7,-1,23,14
50961681861,-5,-2,7,4,-2,1,14,-7
50961689297,13,9,7,10,2,0,-11,-12
50961689297,-7,8,2,20,3,1,-12,-3
50961704189,12,-5,-5,-10,-7,-2,-5,2
50961704189,-51,1,-10,-18,-5,-5,11,-6
50961712542,9,22,7,5,1,0,1,-7
50961712542,8,-16,4,15,3,-1,-7,-9
50961719306,-7,6,-2,0,-1,1,-8,-10
50961719306,-7,2,-3,22,-1,0,-1,10
50961734944,1,-12,-5,-17,1,0,-9,-3
50961734944,3,10,5,10,1,0,4,3
50961741802,1,-10,5,1,1,-1,-13,8
50961741802,12,-4,-5,5,-4,1,10,-1
50961757440,-4,-4,-6,6,8,4,1,1
50961757440,-22,28,5,-8,-8,-2,-26,20
50961764197,22,-39,-15,1,0,-3,30,3
50961764197,8,6,-1,-5,0,0,-13,-26
50961780649,-6,9,4,-8,2,-1,8,15
50961780649,30,-8,-10,4,-1,-2,3,-6
50961782190,-26,-2,-5,3,-10,-2,-5,-8
50961782190,12,-7,5,-9,0,0,-2,-1
50961794961,7,21,4,0,2,0,7,-7
50961794961,-21,-26,-2,27,-2,-3,4,-9
50961801728,6,-7,-4,-3,0,-1,-6,-7
50961801728,12,-13,-8,-1,5,2,12,5
50961817507,-6,-7,-10,-7,-10,-5,4,-1
50961817507,9,20,10,3,4,2,16,-13
50961824242,0,11,3,0,-1,0,-13,3
50961824242,-23,-17,-8,2,2,1,5,6
50961840756,19,13,-4,8,-1,-1,-12,4
50961840756,-1,6,1,-2,-10,-2,6,-1
50961842231,-12,-18,-2,10,2,-1,-2,-21
50961842231,-7,-22,-3,-18,-2,0,-1,7
50961855006,17,-5,-3,2,-6,-2,-3,19
50961855006,-7,0,3,1,9,1,1,-4
50961861948,-7,23,1,6,-4,-3,-1,5
50961861948,14,-16,-4,-1,-3,-1,-13,0
50961877512,-11,0,0,-6,-2,1,-3,-8
50961877512,36,-10,-3,0,-5,-2,-1,4
50961884304,-8,25,0,4,7,3,0,-7
50961884304,6,-4,-8,9,1,-3,12,8
50961900617,-7,6,4,-20,-10,-5,-22,-33
50961900617,19,2,-1,-2,5,2,6,19
50961902152,-11,-27,4,-3,-1,-2,-5,-14
50961902152,14,21,12,21,3,-1,12,5
50961915011,-9,-17,-14,10,0,-3,-2,-7
50961915011,-6,2,-7,0,-2,-3,-3,-2
50961921830,3,-15,4,-12,1,-4,-4,-3
50961921830,7,7,9,9,1,2,-16,-12
50961937538,-14,0,5,5,0,1,5,17
50961937538,17,-8,-3,-4,-2,-4,2,-25
50961944366,9,12,-3,-1,-5,-1,-7,13
50961944366,-20,-16,-4,-17,0,-3,-4,-1
50961960809,7,1,3,8,-1,3,8,-14
50961960809,-14,-14,-8,-3,0,-1,-12,8
50961962197,-1,13,10,20,7,3,4,-1
50961962197,10,11,-19,2,-19,-5,-6,-10
50961975718,1,0,-1,-4,-1,-3,13,0
50961975718,-17,3,-4,22,-1,-2,-17,-3
50961981920,3,-12,0,-10,0,0,-9,6
50961981920,-15,9,13,24,3,1,8,13
50961996869,-10,-9,-1,7,2,-2,1,-6
50961996869,-11,-4,-9,-56,-5,-1,4,-7
50962004250,5,0,0,24,5,1,3,10
50962004250,5,7,-12,-32,-4,-2,4,5
50962027577,-4,12,5,2,-2,-1,-3,12
50962027577,-6,-9,5,-9,6,3,-5,-17
50962028236,-8,-16,-8,5,-7,0,42,30
50962028236,20,11,-2,-35,5,2,-2,-2
50962035719,-48,11,-4,-7,-4,1,-5,-21
50962035719,30,-1,1,6,-8,-6,-10,7
50962041783,-46,2,-5,-5,-2,-1,-3,-18
50962041783,0,-32,7,13,9,0,-8,-5
50962056923,-3,11,10,13,2,2,7,3
50962056923,-31,-7,-9,11,-7,-2,9,8
50962064401,18,26,4,-11,0,-1,2,-16
50962064401,14,-12,-5,-6,-8,-3,-17,7
50962079899,31,-19,-2,-2,2,2,1,-5
50962079899,-83,18,12,11,-1,2,-8,-2
50962080674,15,8,-1,-12,-6,-5,-1,11
50962080674,-12,9,4,8,3,-1,6,-9
50962095661,58,10,-7,-3,2,0,-15,-6
50962095661,9,-23,-6,-6,1,-1,-3,-13
50962101725,-7,-23,-5,0,-4,-2,-5,-4
50962101725,5,14,5,5,5,1,-7,-4
50962116910,-21,12,11,2,3,-1,-2,-4
50962116910,13,8,10,15,0,-4,3,-2
50962124205,0,2,-12,-27,-3,-2,-9,-8
50962124205,-10,-43,-2,-5,-4,-4,-4,0
50962140096,-5,-4,-10,-5,-4,-2,1,7
50962140096,-1,0,0,6,-1,1,-1,7
50962140658,15,1,13,32,4,2,22,-5
50962140658,-22,10,-16,-49,2,3,-13,2
50962155727,-30,-24,-9,6,-10,-7,15,19
50962155727,20,2,3,-51,-3,-3,-14,-10
50962161869,-7,11,4,2,-6,-2,-9,0
50962161869,-12,33,2,16,-2,2,5,-2
50962176814,10,-34,-7,-11,0,-2,-7,0
50962176814,6,6,7,15,8,3,5,7
50962184276,-2,12,2,-3,-1,0,-7,1
50962184276,12,-3,3,6,-4,-1,-4,-5
50962200057,0,5,0,-13,0,-1,-5,-2
50962200057,19,-10,-10,7,-7,0,20,46
50962200664,-49,-19,-2,-6,5,2,-6,-7
50962200664,7,7,4,18,2,-2,18,-7
50962215698,-11,-3,-2,-11,2,-1,-10,-22
50962215698,46,15,-6,1,-1,-4,-9,8
50962221853,-52,10,3,-1,-1,0,5,-11
50962221853,14,-3,0,-3,-4,-6,-4,4
50962236841,-13,-8,0,2,-1,1,0,-11
50962236841,-1,1,0,5,-2,-2,-6,-2
50962245045,8,0,-5,-11,6,0,-7,-2
50962245045,2,-4,1,28,-7,-4,-17,-17
50962259883,6,2,-4,-35,-3,-1,2,16
50962259883,0,-19,-20,4,2,0,-1,-1
50962260786,-1,19,7,-2,-3,-1,5,2
50962260786,4,3,3,0,5,2,-1,-1
50962275722,9,-1,-6,10,-2,0,2,9
50962275722,-7,-9,0,-5,-3,-2,-18,-20
50962281805,-8,-10,-4,-2,0,2,-6,1
50962281805,-3,6,-4,-9,-1,-1,11,4
50962296896,-6,0,1,5,-4,-1,-4,6
50962296896,-15,8,12,1,2,-1,0,-7
50962304387,26,-21,-9,1,1,0,-7,5
50962304387,-1,22,6,-5,-1,1,2,-2
50962320029,18,-17,-10,5,-3,-2,0,13
50962320029,-12,-15,2,14,-4,1,7,-11
50962320680,26,-10,-3,2,-1,-2,0,3
50962320680,-42,-4,-4,-9,-1,0,-2,3
50962335744,34,23,5,2,-3,-1,4,0
50962335744,-42,13,4,-4,3,-1,-7,-19
50962341870,20,-12,-7,4,-5,-3,-3,2
50962341870,8,-3,-4,7,4,0,6,-1
50962356833,-46,-5,0,-9,-1,2,5,-7
50962356833,13,6,1,6,-3,-1,7,9
50962364330,3,-2,3,-8,-2,-2,-7,-4
50962364330,7,9,-4,-6,-2,-3,-12,-5
50962379318,15,7,1,1,0,-1,1,-13
50962379318,-19,-3,5,18,5,1,8,9
50962386795,32,12,2,-11,-7,-4,1,9
50962386795,-48,-43,-9,-5,-4,-6,-13,-7
50962395695,-11,4,4,12,1,1,0,-2
50962395695,38,8,5,-5,2,1,-9,-7
50962401693,-19,-14,-11,17,4,-3,3,-19
50962401693,22,1,-1,-32,-7,-3,3,-2
50962416881,-7,7,1,5,-1,-3,-4,6
50962416881,-5,-8,-9,-11,-5,-5,-2,-1
50962424215,12,5,0,2,-2,0,-2,0
50962424215,12,3,1,6,4,2,1,3
50962439274,-9,9,8,-2,1,-2,-4,-17
50962439274,1,9,-6,-3,1,1,4,19
50962446759,1,-23,-2,-5,-2,-2,14,-2
50962446759,6,4,-4,4,-2,-2,3,-1
50962455661,-4,13,5,1,7,1,-7,10
50962455661,-19,6,-2,4,-5,-5,-2,-14
50962461759,11,-16,-2,-4,0,-1,-11,-2
50962461759,24,24,8,4,5,2,-15,0
50962476791,-2,-30,-6,2,-13,-4,7,-2
50962476791,6,-7,-6,-6,2,0,-8,0
50962484242,-55,9,3,-7,2,0,-1,14
50962484242,11,-9,-2,5,0,0,10,-17
50962499329,6,12,4,2,5,-1,-15,2
50962499329,-1,-4,-9,1,-10,-6,15,3
50962506799,27,6,4,1,-5,-2,-6,-4
50962506799,-10,8,0,1,5,1,6,15
50962515672,-14,-56,-16,-28,-9,-5,-6,-5
50962515672,5,1,0,8,2,0,3,-17
50962521819,-5,2,-2,3,2,1,3,12
50962521819,-10,10,1,-2,-7,-3,4,-4
50962536718,26,5,-1,9,5,3,5,-1
50962536718,0,10,9,-6,0,1,-13,-12
50962544367,-10,-18,-11,-14,-7,-3,12,5
50962544367,18,-7,4,8,3,-1,-4,6
50962559351,-42,6,-5,1,-6,-1,12,5
50962559351,-6,-7,-6,-10,-2,2,0,8
50962566839,27,27,9,5,1,-3,-11,-22
50962566839,-9,-20,5,-2,-1,1,3,1
50962582510,17,0,-4,8,0,0,1,23
50962582510,2,2,-5,-5,-6,-3,5,7
50962583105,-2,5,4,-2,0,0,-1,1
50962583105,2,-5,-7,10,-2,-4,1,-5
50962596796,10,-7,-4,-22,-3,0,-3,-3
50962596796,-7,-17,2,5,7,3,-10,0
50962604199,5,1,-5,-9,-10,-6,-19,-4
50962604199,-12,-21,-5,7,-1,0,8,-3
50962619273,2,18,9,11,6,1,-9,-1
50962619273,11,-6,-11,-9,0,-2,7,-3
50962626841,-14,6,1,2,2,-2,-3,-6
50962626841,-5,-2,1,-23,-5,-1,-3,3
50962642420,-10,-1,-8,6,-1,-1,3,-25
50962642420,25,-3,4,-1,4,3,-8,7
50962643258,2,2,4,10,4,1,7,13
50962643258,-5,18,3,-8,-8,-2,0,3
50962656802,5,-8,-1,2,3,-1,1,-11
50962656802,-16,-4,-2,2,-2,-2,-1,-5
50962664342,-3,14,1,-6,1,2,3,6
50962664342,5,-23,-16,-1,-2,-1,-6,4
50962679320,-1,14,8,6,-1,-1,-5,-4
50962679320,-8,5,-1,-1,-10,-5,4,5
50962686753,-3,-1,-2,-19,0,-2,-5,-17
50962686753,-1,-10,1,13,1,-2,-4,-3
50962702462,-8,4,1,-4,3,0,5,-4
50962702462,3,-6,-1,9,1,-4,-7,-4
50962703175,-1,-5,2,4,-1,5,-5,12
50962703175,6,28,3,3,0,-1,-5,9
50962716672,-33,-6,1,0,-3,-2,3,-14
50962716672,2,3,2,4,-1,-4,-1,-3
50962724327,-5,-28,-8,-5,0,-2,-3,-10
50962724327,7,4,10,1,-1,-1,1,-7
50962739223,12,6,-4,-3,-5,-1,-18,1
50962739223,-8,0,-6,-8,1,-1,14,3
50962746686,-1,4,-6,0,-2,-4,3,-2
50962746686,-7,-20,-9,-3,1,4,9,-17
50962762307,10,15,9,0,0,0,2,9
50962762307,-11,2,10,4,2,-2,-6,-31
50962763166,7,-1,-7,-8,-6,-2,-11,8
50962763166,-14,10,2,-7,1,-2,2,10
50962778198,28,0,2,4,-1,-1,-5,-10
50962778198,13,-15,-7,-9,3,1,6,1
50962784261,-27,-4,3,2,-7,-2,-21,-5
50962784261,14,1,1,3,1,-1,7,29
50962799302,-14,2,4,2,4,0,9,7
50962799302,32,11,2,-6,-1,0,4,13
50962806778,-3,3,-1,7,2,3,-2,-7
50962806778,-12,11,5,-4,-3,-1,3,12
50962822483,0,-30,-12,-4,-2,-3,-4,7
50962822483,26,1,3,-1,0,0,13,10
50962823289,0,3,-5,1,5,-1,9,-8
50962823289,-13,7,5,-3,-5,-3,-3,-9
50962836791,23,1,0,0,0,-1,10,14
50962836791,-9,-3,-2,-7,-4,-1,-14,0
50962844320,2,-2,-1,1,-1,1,7,4
50962844320,0,0,-5,-4,3,-2,-4,-12
50962859313,3,-6,-2,-7,-9,-2,-12,5
50962859313,8,-12,-7,-3,-1,1,-4,3
50962866766,-62,4,11,28,4,1,7,-16
50962866766,47,-26,-20,-55,-6,-3,-18,-2
50962882376,-42,29,2,-12,-5,0,7,8
50962882376,-15,5,1,-1,0,-1,6,-5
50962883218,29,2,1,-5,-6,-4,13,1
50962883218,4,10,3,17,7,2,-3,1
50962896801,-19,-10,-6,4,-1,-4,-2,3
50962896801,-14,0,0,-5,-3,-3,0,-21
50962904360,26,-7,0,5,-2,-4,-37,13
50962904360,-24,0,-9,-4,-13,-1,11,-29
50962919220,8,9,-8,-36,-2,0,1,10
50962919220,-14,-20,-1,15,7,1,-3,-2
50962926806,6,-8,-4,-14,-3,-3,-4,-7
50962926806,-4,8,7,24,0,-2,-2,-7
50962942551,25,-14,0,21,6,3,-3,0
50962942551,-4,19,1,-7,-6,0,-4,7
50962943185,-12,-23,-8,-6,-2,-1,1,-7
50962943185,2,-16,-4,2,-4,-1,-8,6
50962956948,4,10,5,-3,1,-2,9,-9
50962956948,28,-6,-3,10,2,3,-2,13
50962964392,-30,3,1,-9,-2,-2,2,-3
50962964392,2,12,-1,-1,0,-2,0,19
50962979441,14,-13,-3,18,1,1,-5,-3
50962979441,-8,28,6,-3,1,-1,-23,-7
50962986789,0,-6,-8,-31,-4,-2,23,28
50962986789,-14,-27,-5,11,2,-2,-3,-9
50963002360,4,5,1,-23,0,0,-3,-6
50963002360,-9,7,-4,-19,-1,-1,-3,11
50963003143,-10,13,-1,-9,-1,2,13,-8
50963003143,30,14,16,35,10,1,-19,-16
50963016814,5,-8,-24,-11,-12,-2,10,-5
50963016814,-19,-10,-1,-16,-1,-1,-6,-3
50963024350,3,-12,-8,17,-6,-2,22,-16
50963024350,1,1,6,19,4,1,-6,4
50963039169,-28,0,6,31,3,-1,-10,-7
50963039169,-14,-20,-7,21,6,1,12,-5
50963046767,37,37,7,-20,-4,-3,-13,-5
50963046767,-21,-23,-5,12,-2,-2,2,-15
50963062306,2,-2,-6,-31,-2,-2,-3,0
50963062306,-3,-3,-5,0,-5,-3,0,-2
50963063090,5,4,6,9,4,1,-12,10
50963063090,10,14,-2,-11,-3,-2,4,4
50963076792,-21,-11,4,0,0,-1,0,-8
50963076792,13,-5,-7,-8,-7,-4,4,4
50963084360,10,-2,0,11,2,2,-3,-5
50963084360,-1,6,-7,-21,-4,-2,5,-8
50963099363,-23,-3,0,29,3,0,-2,-12
50963099363,5,3,1,-18,3,0,-6,-10
50963106856,-13,-11,-1,22,-7,-3,-9,8
50963106856,5,-5,-6,-9,0,-2,-2,12
50963122452,10,3,9,8,1,2,-3,12
50963122452,-12,22,7,10,-2,-2,-21,-6
50963123126,10,-9,-16,-12,1,1,4,-5
50963123126,-13,-24,-4,-3,-1,0,-1,21
50963136855,-8,5,-4,7,2,-1,-4,0
50963136855,18,-1,8,12,0,1,5,-4
50963144373,-6,4,0,2,0,-2,-16,0
50963144373,-16,19,7,3,0,0,13,15
50963159394,1,-24,-12,-4,-5,-1,2,4
50963159394,9,8,1,-12,-5,-3,2,2
50963166824,-9,18,4,3,1,-1,3,6
50963166824,-32,-25,-5,-3,-1,-1,-13,-28
50963182525,33,15,7,-1,2,-2,4,24
50963182525,-48,-5,-6,1,-1,-1,1,-1
50963183132,5,-20,-1,-15,-6,-3,15,2
50963183132,15,0,-1,-6,1,1,-5,7
50963204982,-30,0,-6,-1,-3,-1,8,-1
50963204982,19,-3,-7,-1,0,-2,-6,3
50963205676,-4,8,10,6,5,3,6,4
50963205676,2,6,-4,-7,-2,-2,-3,-14
50963219405,25,8,7,-6,0,1,-14,2
50963219405,-13,-17,-3,3,1,0,11,-5
50963226766,1,-1,6,9,1,-3,-5,-1
50963226766,5,-4,-4,-10,-9,-2,3,0
50963242466,0,12,3,1,1,-1,-7,-5
50963242466,-4,10,5,4,2,2,4,-13
50963243168,24,-2,-7,0,0,-3,-8,6
50963243168,-14,-20,0,5,0,-1,-6,-6
50963256823,-8,-2,2,-2,-3,-2,-3,-10
50963256823,24,3,0,-5,-3,-1,11,-9
50963264342,-61,-7,2,1,6,4,2,-7
50963264342,3,18,3,-11,-11,-8,1,-4
50963279416,9,-9,-1,-2,2,0,-2,-3
50963279416,-18,-12,3,3,0,-2,-7,8
50963286854,-10,7,-2,-2,-1,1,-4,-9
50963286854,45,-10,-11,-8,-1,1,1,-12
50963302479,-35,-8,10,10,-1,-3,11,-2
50963302479,-10,-1,-5,-22,0,1,-19,-2
50963303096,29,4,-2,0,-2,-3,1,3
50963303096,-18,10,5,-3,1,2,2,16
50963316869,15,-17,-13,-12,-3,-4,-14,-3
50963316869,-8,-4,3,13,1,0,11,-2
50963324427,12,-15,0,-7,1,3,3,3
50963324427,-12,18,1,13,-2,-1,1,4
50963339320,6,-6,3,0,2,-1,8,-19
50963339320,12,12,0,-5,-4,2,6,22
50963346838,-50,0,-9,-12,-7,-5,-9,-12
50963346838,3,1,8,3,7,0,20,-3
50963361867,-17,-14,-13,-1,-9,-3,3,-8
50963361867,23,8,-6,7,2,-3,-14,10
50963369851,21,0,0,0,-2,2,-1,2
50963369851,-4,17,1,-4,0,0,-2,9
50963376869,-22,-3,-4,-7,-4,-2,15,14
50963376869,0,-13,-1,3,-2,-2,2,-16
50963384218,-4,-2,1,5,1,1,-1,7
50963384218,-16,-3,-7,-9,-2,-1,-15,-6
50963399411,22,16,5,7,4,3,-11,0
50963399411,-8,11,0,3,0,2,-7,11
50963415020,-4,-28,-3,-6,-3,1,17,-1
50963415020,8,-12,-6,5,2,0,3,-6
50963421869,50,20,2,-2,0,-1,-15,13
50963421869,-56,-13,3,3,0,-1,0,6
50963430017,57,2,-4,3,-3,-2,-2,-9
50963430017,-59,5,-1,2,3,1,-4,-3
50963436872,11,-13,-6,-4,-2,-2,-15,9
50963436872,-8,-10,-4,-3,0,-1,4,4
50963444378,26,3,-1,0,0,-2,-5,-7
50963444378,12,1,-1,1,0,-2,-5,3
50963459160,-18,20,7,0,0,-1,9,2
50963459160,10,-6,0,-5,-5,-2,14,0
50963466876,-41,-14,-9,7,1,1,-10,-9
50963466876,28,3,0,-15,-12,-6,3,-15
50963481835,-13,-9,-3,1,6,1,1,-9
50963481835,9,0,2,-2,-3,-4,-7,-3
50963490113,2,0,-5,-2,-3,0,-2,4
50963490113,6,17,5,3,4,-2,0,1
50963496804,-1,-23,-7,-1,-1,0,-4,4
50963496804,32,22,10,0,-1,-1,5,-19
50963504267,-55,-14,-7,-2,1,-3,-10,-3
50963504267,33,-8,-1,-1,-3,0,-2,3
50963519289,-1,12,0,-1,-4,-2,-7,-4
50963519289,-3,-12,4,2,2,3,-2,23
50963526870,21,21,-4,-8,-3,-2,1,-1
50963526870,-6,-28,-7,-2,-2,1,-5,9
50963541694,-1,-4,1,-2,-2,-1,-6,-12
50963541694,-27,-2,-8,0,1,0,-20,-10
50963549935,14,17,8,-1,-4,-4,-5,0
50963549935,-15,-8,-9,0,2,-1,3,-1
50963564950,3,2,6,0,0,0,-6,-14
50963564950,2,-5,-6,-1,1,-1,-4,2
50963565679,-2,-15,-1,-4,-2,-2,-2,-1
50963565679,-10,-7,-1,2,2,0,-8,4
50963579214,2,7,1,0,1,0,14,0
50963579214,25,13,0,-2,-7,-2,25,16
50963586781,-13,10,7,-1,0,0,1,8
50963586781,3,-13,-2,11,-3,-3,-4,8
50963601714,-12,0,-6,-26,-1,-1,3,-3
50963601714,4,14,0,0,-1,-4,0,-7
50963610034,21,-20,-4,2,3,0,7,-2
50963610034,-11,5,8,6,6,1,0,-4
50963624935,-4,-9,0,2,2,-2,3,2
50963624935,-14,-9,-14,-11,-12,-6,-18,-14
50963625761,7,17,10,5,3,0,6,9
50963625761,-22,-7,-14,-5,-3,-2,4,-12
50963639286,1,-2,2,6,3,-1,-4,14
50963639286,-16,4,0,2,7,1,13,-23
50963646862,4,12,3,-2,-4,0,-15,-1
50963646862,7,-7,-3,-5,-2,-2,2,8
50963661836,34,2,3,5,-2,0,1,1
50963661836,-80,8,-4,2,-1,-1,-3,-15
50963669861,7,-30,-7,1,0,-1,0,0
50963669861,2,9,5,-3,1,-1,-7,-14
50963684970,5,10,-3,5,1,2,5,9
50963684970,-3,-19,-5,-8,-6,-2,-9,3
50963685707,2,11,2,0,3,0,5,-8
50963685707,-1,35,2,-6,-5,-2,-10,-1
50963699372,-6,-32,-6,2,-4,-3,-12,-9
50963699372,34,-4,4,2,2,2,14,12
50963706848,1,-3,-5,-3,0,-1,-18,-24
50963706848,9,-1,2,0,0,0,4,-5
50963721805,-7,53,10,2,0,1,-2,3
50963721805,32,-46,-6,-2,1,0,-1,16
50963729998,-3,-5,-6,-7,-8,-5,-3,4
50963729998,11,-2,8,0,2,0,11,-4
50963744882,-12,-25,-17,-1,-6,-2,-2,-7
50963744882,28,16,1,3,0,0,3,8
50963745672,-35,1,-1,7,5,1,-9,4
50963745672,34,4,4,-3,-5,-2,-1,7
50963759409,-5,15,1,-2,-1,-1,1,-3
50963759409,-3,-7,9,22,8,2,1,-22
50963766815,6,5,-10,-37,-9,-2,5,7
50963766815,-22,-13,-4,-3,1,0,-11,-10
50963781832,-27,-12,-2,-3,-5,-2,0,-11
50963781832,23,8,1,5,1,-2,-3,-13
50963789869,7,28,7,12,1,-2,-4,0
50963789869,-9,-15,-7,-2,-1,0,0,-5
50963804994,-8,4,3,-6,-3,-3,21,3
50963804994,-1,-20,-9,-8,-5,-2,-11,-8
50963805675,-26,5,2,2,-3,-2,7,4
50963805675,14,9,1,0,1,2,-4,6
50963819191,2,-13,-7,11,2,-1,13,1
50963819191,-1,24,2,-13,-8,-4,-14,6
50963826854,7,-24,-5,1,-1,-3,-1,-12
50963826854,-4,-16,0,2,1,0,-4,12
50963841850,-2,4,4,0,5,1,-4,-1
50963841850,-10,4,-4,-2,-2,-1,2,3
50963849978,15,-2,3,4,4,2,-1,-13
50963849978,-16,15,-7,1,-3,-1,8,13
50963864834,11,-20,-2,-1,3,0,-18,-16
50963864834,-22,-5,-3,-5,-2,-3,1,-13
50963865756,-28,0,3,4,-4,1,4,9
50963865756,8,-13,-2,-1,0,-4,-19,-16
50963879403,-18,13,1,0,0,-2,-2,6
50963879403,15,22,9,3,3,1,13,7
50963886902,0,-35,-12,-3,-7,-4,-3,6
50963886902,-9,-5,-2,-11,-7,-3,-5,-8
50963901687,-1,-5,-4,-4,0,1,-3,-2
50963901687,3,-5,-1,-4,-1,-2,5,-1
50963910047,13,23,5,5,6,0,-5,17
50963910047,-20,-1,-1,1,0,0,11,-23
50963925044,30,-2,0,-1,-5,-3,7,17
50963925044,-15,-1,-5,0,0,0,-2,-1
50963925663,-1,-16,2,-4,0,0,-11,-14
50963925663,1,29,0,-2,-3,-1,6,-3
50963939336,-3,-14,1,0,0,0,-15,0
50963939336,10,2,0,-2,-2,-2,-8,-5
50963946833,39,18,-3,1,-1,-1,5,7
50963946833,-10,-19,0,1,3,1,2,7
50963961839,27,22,3,-5,-5,-1,-7,-5
50963961839,-34,-16,-5,-3,-5,-1,9,-1
50963969926,21,-12,-9,2,0,2,7,-6
50963969926,14,6,5,2,0,-1,-13,8
50963985085,-10,15,4,2,3,1,15,-3
50963985085,10,-6,-4,-5,-6,-2,-11,35
50963985633,-20,-2,0,1,1,-1,5,-16
50963985633,20,10,-3,1,-2,-2,1,1
50963999290,-17,-4,0,-4,-3,-2,-13,15
50963999290,1,-14,4,-2,-3,-1,2,-26
50964006797,-12,0,1,1,2,0,-1,-2
50964006797,-5,-1,-7,5,2,0,8,18
50964021626,4,-11,-4,-7,-8,-5,-13,-12
50964021626,-7,-4,-7,-1,1,-1,4,3
50964029974,2,15,5,3,1,1,-7,-18
50964029974,-7,-20,2,2,1,0,-4,13
50964044855,-9,-5,-2,2,-1,1,12,-18
50964044855,1,3,-4,-1,-1,0,-10,10
50964045707,14,23,3,-1,0,-1,7,-7
50964045707,-10,-34,-3,-1,1,-2,-3,-9
50964059213,-3,0,-3,1,-3,-2,5,18
50964059213,-1,5,8,4,4,2,8,4
50964066688,3,-14,-7,-7,-8,-5,-4,0
50964066688,-2,-1,-7,-4,-3,-2,4,-1
50964081731,1,11,1,-4,6,0,-10,-1
50964081731,-32,-25,-7,9,3,2,1,15
50964089870,8,-6,1,-11,-6,-3,-4,11
50964089870,-25,9,1,-1,-2,-2,1,-6
50964104881,2,-16,-1,3,-1,0,-7,-13
50964104881,13,23,0,-1,1,1,-4,-9
50964105728,-23,4,-1,-2,0,-1,0,-6
50964105728,0,-17,-8,-8,-5,-1,9,16
50964119331,17,10,4,5,4,2,-2,-6
50964119331,18,-5,7,-2,1,-1,3,-8
50964126837,8,-19,-9,1,-4,-3,23,-24
50964126837,2,22,11,0,1,0,-3,-6
50964141755,-6,2,1,2,2,2,-3,3
50964141755,18,5,-10,-5,-7,-4,-4,-2
50964150018,-9,-17,2,-7,-4,-1,3,9
50964150018,5,22,11,-1,4,-1,-2,-11
50964164994,-14,-13,2,1,-5,-1,3,-9
50964164994,-3,0,-1,-1,0,-1,-11,3
50964165632,-6,3,-5,5,8,4,1,14
50964165632,-8,7,10,1,-1,0,-1,-7
50964179395,-9,-22,-13,-7,-8,-4,-3,-19
50964179395,-1,-1,2,-4,-3,-1,-2,-4
50964186843,11,2,3,10,4,3,1,15
50964186843,4,6,-5,1,0,1,1,5
50964201675,-4,-14,3,-5,-2,-2,5,-9
50964201675,-8,-15,-2,2,-2,-3,-17,-4
50964209863,-2,40,3,-3,0,0,-16,-19
50964209863,-3,-52,-10,-5,-1,0,0,10
50964224997,-9,1,0,-1,2,0,-3,-2
50964224997,7,7,-1,-1,1,-3,5,-10
50964225633,-7,6,11,10,7,1,-9,4
50964225633,-4,7,3,0,-1,0,-11,-3
50964239286,9,-10,-12,-5,-6,-4,-8,-9
50964239286,0,1,6,-3,2,1,21,17
50964246722,4,-10,-7,4,1,-2,-2,5
50964246722,22,24,10,6,4,0,0,-3
50964261844,-14,-28,-9,-4,-8,-6,9,1
50964261844,3,9,0,-3,0,0,-7,-1
50964270040,-11,-28,-6,0,1,1,1,-5
50964270040,-2,7,-1,-8,-8,-3,-3,11
50964284294,-5,3,6,-2,4,-1,-1,8
50964284294,-18,11,3,0,-3,-3,-5,-10
50964292467,0,6,5,-3,0,-2,6,10
50964292467,-2,-15,-11,3,0,2,14,-3
50964299305,-11,17,-4,-4,4,-1,-4,-5
50964299305,2,-17,-9,-6,-11,-4,12,-1
50964306832,16,6,1,-2,1,1,1,12
50964306832,7,2,-1,-4,-6,-6,-4,-10
50964321796,-19,3,-2,2,1,0,0,1
50964321796,-7,-3,5,1,5,0,-6,-10
50964330075,3,-6,-10,-4,-6,-3,0,-1
50964330075,10,21,5,14,11,5,0,3
50964344328,9,-6,-24,-7,-18,-2,1,11
50964344328,0,-22,1,-8,-6,-4,-3,3
50964352490,-14,-5,4,-1,0,0,-2,8
50964352490,10,5,-4,-3,-1,-3,1,-7
50964359289,1,8,14,6,9,3,-9,-5
50964359289,-15,6,0,1,0,2,-5,2
50964366835,-5,7,-9,-2,-5,-1,-5,21
50964366835,10,-23,-9,-6,-2,-4,-1,-6
50964381852,7,19,9,8,6,3,13,-19
50964381852,6,-4,-1,-2,3,0,1,-15
50964390045,-10,-11,-2,-1,1,-2,-12,-11
50964390045,25,17,-2,-13,-12,-2,9,7
50964404281,-19,15,2,2,2,1,7,4
50964404281,2,-9,0,5,1,-2,-1,0
50964412183,4,0,0,2,0,2,0,10
50964412183,-17,23,10,0,-2,-1,-4,-14
50964420614,10,-12,-5,-1,-4,-3,-4,7
50964420614,-42,-12,-7,1,1,0,-2,7
50964426717,18,-10,-1,-2,-1,-1,2,-9
50964426717,-8,8,5,-3,1,0,-8,5
50964441626,-2,1,5,2,3,1,-6,11
50964441626,11,13,1,1,0,1,-4,10
50964449953,0,6,2,-2,-6,-2,-1,-8
50964449953,-18,-16,-3,-4,3,0,8,-13
50964464343,-10,4,3,-4,-4,-3,-14,20
50964464343,37,6,-4,0,2,-1,0,-9
50964472446,-53,21,4,1,4,1,11,0
50964472446,-5,-20,-10,7,-4,1,-1,-4
50964487516,4,-2,4,-3,-1,0,-1,1
50964487516,11,-20,-5,-3,-6,-4,-5,9
50964488076,-3,2,8,2,0,0,-2,-23
50964488076,8,-11,-7,0,2,-2,-7,8
50964501619,13,1,1,0,4,2,17,11
50964501619,-7,4,7,1,-3,0,0,-22
50964510025,6,-5,-5,-4,-3,-1,-2,5
50964510025,32,-12,3,6,3,1,9,-4
50964524292,-39,-1,-3,-3,-2,0,-11,7
50964524292,34,16,3,-5,0,-2,-2,8
50964532321,-10,1,-1,1,0,0,5,-13
50964532321,1,16,5,3,-3,-3,-20,0
50964547460,17,-11,1,-2,-1,-1,0,6
50964547460,-15,12,-4,-2,0,-1,0,1
50964548120,7,-13,-2,-7,-2,-3,-8,-1
50964548120,-12,-19,-7,-1,-2,-1,-2,-6
50964561827,-1,-12,-7,-5,-2,-3,0,-2
50964561827,-17,-10,4,-1,1,2,-5,0
50964569928,25,1,-9,3,-3,-4,5,-4
50964569928,-26,1,1,-8,-5,-4,2,-5
50964584326,4,5,0,0,2,-2,-3,-12
50964584326,6,2,-7,0,-1,-2,10,-8
50964592553,-10,0,-1,-2,-7,-2,-10,19
50964592553,1,-6,-4,1,3,1,-7,-4
50964607310,8,11,0,-1,4,-1,10,0
50964607310,-18,6,0,4,-6,1,8,-1
50964608195,7,-24,2,3,5,0,3,-14
50964608195,23,29,-4,-8,-5,-2,5,1
50964621895,-65,-67,-11,-3,-3,-3,-3,-14
50964621895,45,8,-5,0,0,-1,-16,7
50964629863,-74,-1,5,-5,-2,0,12,-17
50964629863,7,9,-5,-6,-6,-3,-1,9
50964644273,27,10,-2,2,-3,-1,-1,3
50964644273,5,-9,-5,-2,-1,-1,0,-10
50964652513,7,13,-2,-2,1,-1,-19,15
50964652513,4,0,10,-1,1,0,-5,5
50964667475,-10,13,-3,2,-6,-1,-1,-13
50964667475,-15,-15,-7,-2,-3,-2,-4,-11
50964668105,18,-14,1,-3,0,-1,15,3
50964668105,-23,-12,-10,3,3,0,-1,-8
50964681728,18,6,-4,-9,-1,-4,-10,12
50964681728,-32,16,8,-1,-1,1,18,2
50964689881,23,9,1,-3,-3,-4,-3,4
50964689881,0,-12,-12,2,3,-2,-7,8
50964704211,-23,-4,3,-2,-1,0,7,-5
50964704211,-3,-7,-2,-1,1,0,-1,3
50964712440,4,28,3,0,-1,-1,8,-11
50964712440,-8,3,1,-2,-3,0,-5,9
50964728100,16,-27,-1,-4,-2,-1,-3,-10
50964728100,18,4,-6,-1,0,-3,6,-5
50964728792,-4,-14,-6,-2,-1,-1,-5,8
50964728792,8,11,8,4,1,-1,-21,14
50964741792,7,35,3,-1,0,0,10,-21
50964741792,-14,-36,-8,-1,1,0,-1,1
50964749895,8,3,0,2,-1,-1,-3,-3
50964749895,-18,-14,-2,-2,-7,-3,-2,7
50964764364,6,7,-2,3,4,2,-24,12
50964764364,-15,34,5,-4,-4,-2,11,13
50964772333,20,-32,-7,-2,-2,-3,-17,-8
50964772333,-16,-9,2,3,2,1,5,-23
50964786796,5,10,5,0,0,0,4,19
50964786796,42,-9,-2,2,0,2,-9,2
50964803774,-73,10,-1,1,0,-1,-9,-14
50964803774,4,13,4,-1,-1,-1,6,-3
50964804773,27,-3,-6,-3,-2,-3,-2,3
50964804773,-15,-23,-5,2,0,0,-14,-7
50964810621,16,-7,2,-6,-6,-3,19,28
50964810621,-6,-8,-2,0,1,-2,-24,-14
50964824109,-2,9,6,6,3,0,1,5
50964824109,-2,25,6,0,4,0,-1,-5
50964833107,8,-31,-13,-7,-6,-4,-10,-2
50964833107,-20,-4,2,-3,-2,-1,-3,7
50964846792,19,0,6,6,-1,0,-1,12
50964846792,-34,-2,0,-4,-2,-1,-6,4
50964855635,18,28,3,4,2,1,-9,7
50964855635,-9,-37,-8,-6,-3,-3,33,-21
50964861837,7,17,0,-2,0,1,-14,-20
50964861837,7,-43,-3,-3,-1,-1,12,18
50964870628,-13,-3,-7,-4,-1,0,3,-2
50964870628,7,8,-6,0,-3,2,-17,-9
50964884282,-9,-8,-4,-1,1,-2,-1,1
50964884282,12,13,1,-2,-2,-4,-5,-6
50964893100,10,20,3,-2,-1,-2,-6,-5
50964893100,-4,-22,-2,2,3,1,11,-10
50964906769,12,4,0,-4,1,-1,11,-2
50964906769,2,25,-1,-2,-6,-2,-8,-18
50964915617,-26,-28,3,0,-1,-1,-2,-11
50964915617,13,24,-4,-2,0,-2,-11,-3
50964921794,-16,-3,-1,-1,0,2,4,16
50964921794,22,-30,-6,-1,-4,-3,3,6
50964930620,0,-7,-3,2,-5,0,0,2
50964930620,37,7,9,2,8,2,-28,4
50964944194,-10,12,-6,2,-7,0,12,-7
50964944194,-41,7,4,1,2,2,4,-9
50964953135,6,-6,-5,0,2,1,5,13
50964953135,1,2,-1,-3,-6,-1,3,21
50964966819,18,18,7,-7,1,-4,-13,-3
50964966819,-17,1,1,1,-1,-3,0,-9
50964975621,4,-6,-4,-2,1,1,-3,-13
50964975621,-10,4,-2,0,5,0,15,4
50964981616,-7,-9,-4,0,-6,-3,0,-8
50964981616,1,-6,-11,-4,-2,-2,1,-11
50964990613,-25,9,8,-3,-1,-2,-5,1
50964990613,50,-9,-11,-1,-4,-2,4,12
50965004081,-91,7,6,5,8,-1,-8,-26
50965004081,22,21,5,0,-3,-3,3,-10
50965013096,10,-21,-4,-1,0,-3,-16,8
50965013096,-30,8,4,0,-3,-1,12,-3
50965026833,4,-19,-5,-3,0,0,7,-11
50965026833,-6,11,0,5,-2,3,-6,7
50965035624,17,2,-7,0,-1,-3,15,-2
50965035624,-18,-9,5,-6,-6,-3,6,1
50965041752,26,-1,-5,-3,-2,1,-15,5
50965041752,4,-3,1,-1,-2,0,-4,10
50965050627,11,37,3,2,2,3,0,10
50965050627,-49,-17,-8,-4,-5,-3,-6,-13
50965064199,8,-7,-4,0,-4,0,8,8
50965064199,2,16,3,-3,4,0,-7,-11
50965073068,22,-14,-5,4,-1,1,-2,4
50965073068,-20,-5,-3,-4,-4,0,-4,4
50965086844,7,-6,0,-6,-5,-3,14,6
50965086844,8,-4,2,3,5,2,4,5
50965095633,7,32,8,-3,5,2,0,-11
50965095633,-16,-19,-4,0,0,-3,2,6
50965101654,8,-23,-3,1,2,-1,-5,-16
50965101654,3,0,6,-4,-5,-4,0,12
50965110637,5,14,3,0,0,-2,2,-10
50965110637,1,-1,-3,-2,-1,-1,-4,-10
50965124315,4,-9,8,0,1,1,-2,6
50965124315,5,-12,-10,-4,1,-5,1,16
50965133067,-15,-6,-6,1,1,0,-5,-13
50965133067,42,22,0,2,2,1,16,-9
50965146843,-16,11,3,0,1,0,-4,5
50965146843,-14,-10,-16,-3,-4,-3,13,-26
50965155640,0,-13,0,-1,-1,0,-6,1
50965155640,23,14,-5,1,-2,1,0,7
50965161827,8,-6,-9,-4,-6,-4,3,3
50965161827,0,5,4,2,3,1,-7,-2
50965170608,5,-5,-8,-8,-4,-5,6,11
50965170608,2,-13,0,1,8,4,12,4
50965184267,-2,1,-5,-2,-7,-3,-6,6
50965184267,-5,-4,2,-3,-5,-4,-2,-4
50965193080,0,-3,-3,-2,-5,-5,-4,8
50965193080,-9,3,5,-2,4,0,17,11
50965206698,1,0,-4,3,1,0,-2,-4
50965206698,2,19,4,-1,-2,-1,5,2
50965215625,7,-5,1,7,5,4,-5,24
50965215625,-70,-16,-11,-4,-12,-6,-2,-12
50965221831,7,31,7,4,2,0,3,1
50965221831,2,-18,-4,-1,2,1,-9,4
50965230622,-3,-11,-4,2,0,-1,-1,-18
50965230622,17,4,7,1,0,1,-12,-14
50965244288,-20,-10,-9,-3,-3,0,-1,3
50965244288,-7,-7,-8,-5,-4,0,-11,-3
50965253101,-3,3,0,-2,0,2,1,-1
50965253101,5,-15,-5,-4,1,-3,-13,1
50965267520,6,21,8,-1,0,2,1,-10
50965267520,15,-18,3,0,0,0,-8,5
50965274295,-1,-11,-5,-2,-7,-3,6,7
50965274295,4,8,-4,3,3,0,8,6
50965281800,7,-23,-5,1,-1,-2,0,0
50965281800,-8,6,-3,-6,-7,-2,2,4
50965290615,-31,5,7,-3,-1,0,-3,-7
50965290615,6,3,4,3,-2,0,9,-3
50965304277,18,-13,-5,-3,-1,-1,3,5
50965304277,-11,5,-1,5,0,0,1,-9
50965313132,4,-10,0,-1,-1,-1,-8,-14
50965313132,4,22,12,5,5,2,-1,-12
50965327418,-10,-17,-8,-4,-6,-3,-12,-7
50965327418,29,-2,-2,3,3,2,-9,-13
50965334264,-26,9,2,-5,-2,0,6,-11
50965334264,-16,-14,-2,2,0,0,2,8
50965341761,23,2,7,0,0,-3,-19,4
50965341761,0,6,0,-1,0,-2,5,-13
50965350625,3,9,-2,2,2,-4,-5,5
50965350625,-10,-9,-1,-3,-4,-2,-9,-8
50965364063,3,-5,-1,-4,-2,-1,8,-1
50965364063,-13,-1,-2,2,5,2,9,5
50965373053,19,2,-4,-11,-5,-1,-11,16
50965373053,30,8,-1,-2,-4,-5,-6,9
50965387204,-33,-7,2,3,5,1,-11,-18
50965387204,-8,24,2,1,-5,0,6,13
50965394010,23,-41,1,12,6,1,2,-8
50965394010,11,-16,-19,-15,-14,-4,11,-9
50965410384,6,-4,-2,0,-5,-2,-11,-7
50965410384,-9,10,7,0,3,2,-5,18
50965411995,-29,10,1,1,0,-1,1,-16
50965411995,-2,2,-4,-4,-1,-3,4,10
50965424516,11,6,4,0,4,1,15,1
50965424516,-50,-16,-5,-2,0,0,-4,-5
50965433008,48,12,4,4,3,3,8,12
50965433008,-50,-11,-5,0,-7,-2,-18,-9
50965447177,-2,-3,-4,-6,-5,0,4,2
50965447177,22,13,6,-1,0,-1,-8,7
50965454032,-6,-26,-8,0,0,1,15,-15
50965454032,8,6,-9,0,0,0,-8,-31
50965470376,3,-8,-6,-2,-1,-1,9,-3
50965470376,12,9,-6,0,-4,-4,9,4
50965472023,-10,-19,2,0,1,0,-6,-16
50965472023,2,2,0,1,4,2,-9,4
50965484008,1,9,1,-1,0,0,7,15
50965484008,-13,-7,2,4,2,-2,-3,-6
50965493053,-4,7,2,-2,-5,-4,-3,-5
50965493053,13,17,10,4,6,4,-13,2
50965507256,-44,8,0,5,2,3,3,10
50965507256,10,-17,2,-9,-10,-1,-7,-7
50965514061,-2,13,-8,-5,-4,-1,3,-7
50965514061,-6,-14,12,4,5,2,-1,14
50965530435,23,12,-2,3,-1,-1,-5,-9
50965530435,-23,-32,-7,-4,-4,-3,16,9
50965532017,-4,1,-4,-2,-2,0,-5,9
50965532017,36,0,-4,-4,-4,-1,-3,7
50965544098,-2,13,2,5,5,0,5,-1
50965544098,10,-6,-2,1,-5,-2,4,3
50965553043,-4,2,2,-2,-5,-2,-3,4
50965553043,-36,16,-1,2,3,0,-5,24
50965567218,12,-17,0,-4,-5,-4,15,-28
50965567218,0,-17,-2,-1,1,-1,-21,-8
50965574076,15,16,-2,5,0,0,10,6
50965574076,-6,13,4,-5,2,0,0,-10
50965590396,-11,-10,0,-2,-2,1,-1,-11
50965590396,5,6,2,-3,-2,-2,-6,-8
50965591988,-13,7,-5,-1,1,0,1,8
50965591988,3,-17,-2,-1,-3,-5,7,-1
50965604261,2,9,-9,-8,-3,-3,-10,7
50965604261,54,-2,4,-2,-2,1,7,1
50965613108,-73,3,-3,-3,-4,-4,-7,-7
50965613108,9,-5,3,0,-3,-2,0,-2
50965627493,8,3,3,4,3,1,-4,11
50965627493,5,20,-2,-11,-5,-4,3,5
50965634315,7,-28,-6,2,1,1,-4,-20
50965634315,7,-8,0,-2,-2,1,-4,4
50965650750,-16,6,-6,2,1,0,0,-6
50965650750,-10,-16,1,8,9,1,-2,-4
50965652050,4,22,-4,-11,-10,-4,-7,9
50965652050,0,-8,1,-1,-3,-3,8,-13
50965664267,14,-21,-13,0,0,1,-12,11
50965664267,-7,19,5,5,5,1,-9,-3
50965673060,13,5,3,0,-4,-4,-2,11
50965673060,5,-18,-4,-1,0,0,-3,4
50965687487,-6,10,5,-6,-5,-5,4,9
50965687487,16,2,-4,-4,-4,0,2,-16
50965694186,-63,-29,-9,-1,3,-2,2,-15
50965694186,3,32,4,2,4,-2,-3,-3
50965710489,27,-3,4,-9,-7,-4,-4,2
50965710489,-28,-18,-10,-9,-2,-3,-3,-11
50965711996,22,22,9,1,-1,1,15,10
50965711996,-1,4,5,2,4,0,-1,5
50965724182,-27,-26,-15,2,0,-1,-6,-17
50965724182,26,-8,-3,-5,-7,-3,-9,16
50965733120,27,4,3,-2,1,-3,9,-6
50965733120,-15,-7,1,-5,0,-1,-4,-1
50965747383,5,-17,1,1,4,-1,-6,2
50965747383,-15,4,-3,6,3,2,-1,2
50965754197,8,2,1,1,2,1,-5,1
50965754197,5,15,3,-1,-5,-4,-3,-2
50965770479,5,5,1,2,0,1,7,-19
50965770479,5,-9,-7,-1,-4,-5,-8,19
50965772002,1,-3,6,-2,2,1,-1,-6
50965772002,8,11,-5,-2,2,0,10,-4
50965784142,-11,4,-1,-5,-7,-2,-12,9
50965784142,4,-12,-1,6,2,1,-6,1
50965793097,7,-19,-3,-2,-3,0,3,6
50965793097,-7,3,-4,3,-5,-1,-10,24
50965807312,-1,7,3,1,-5,-3,11,-15
50965807312,-28,-5,-7,0,1,-1,-5,-7
50965814164,15,8,9,0,0,-3,-10,0
50965814164,-25,-3,-4,5,1,1,6,-19
50965830432,1,48,19,-4,0,-1,1,23
50965830432,-19,-38,-15,-3,-3,0,8,-18
50965832045,-5,-25,-13,-1,-4,-2,-5,-4
50965832045,12,1,4,-3,-2,-2,28,7
50965844193,3,7,-4,-2,1,0,-4,-9
50965844193,23,8,7,2,5,1,5,0
50965853734,-68,1,-8,-6,-6,-3,-10,-14
50965853734,14,-7,0,-1,0,2,-10,5
50965867432,7,-26,-5,-1,-4,-1,5,11
50965867432,-37,4,-2,3,1,-1,11,-1
50965874241,43,13,8,1,1,0,-4,4
50965874241,2,35,3,-1,0,0,-3,-7
50965890432,-46,-54,-22,-5,-4,1,3,-1
50965890432,7,12,4,-2,-2,-2,-4,6
50965892053,5,-6,-7,1,1,2,-2,3
50965892053,-11,-25,-5,-4,-4,-4,-5,6
50965904211,34,18,9,2,3,0,11,-11
50965904211,-36,17,-2,-3,0,-2,10,-8
50965913031,34,-30,-5,0,3,2,-12,5
50965913031,11,6,0,-2,-6,-5,-14,-7
50965927518,-1,9,7,-4,-2,0,0,-22
50965927518,10,-6,-1,0,-3,-1,2,-2
50965934245,12,21,7,2,1,1,3,7
50965934245,-7,-26,-15,2,3,2,-2,-7
50965950528,5,-17,1,3,-2,-2,4,15
50965950528,-1,23,0,0,-3,0,-7,-8
50965952047,-2,7,1,2,5,1,2,-1
50965952047,-1,-21,-5,-4,-7,-3,-12,-4
50965964288,-41,4,-1,2,1,2,2,6
50965964288,28,19,3,-1,4,1,-3,-10
50965972993,-15,-4,-1,-2,-6,-3,2,-4
50965972993,-12,-7,-1,-6,-2,-3,-8,-34
50965987484,-3,-25,-6,-3,-3,-3,-4,16
50965987484,-5,0,11,3,7,2,14,-3
50965994270,4,2,-11,3,-3,-1,-2,-1
50965994270,20,14,2,-4,-3,-2,17,-11
50966010612,6,-10,0,1,1,-1,-11,-10
50966010612,6,-17,-5,-2,0,-2,-16,-5
50966012033,6,8,8,-1,4,1,-3,1
50966012033,-25,10,0,5,-1,1,7,-7
50966024297,2,25,-3,-1,-3,-1,-4,49
50966024297,8,-55,-12,-7,-7,-1,-12,12
50966033071,4,5,0,-7,-8,-6,5,-10
50966033071,3,-4,7,2,2,-1,-6,2
50966047371,2,1,0,7,6,0,5,2
50966047371,0,26,-7,-8,-10,-2,-16,5
50966054245,-6,-5,0,-4,-2,-1,1,-2
50966054245,0,-27,-7,0,-2,1,-11,2
50966070439,10,22,-2,-8,-2,0,21,-5
50966070439,2,-8,1,0,0,-2,6,-14
50966072028,-2,3,5,-2,0,-1,1,2
50966072028,0,3,0,0,-1,-1,2,17
50966084299,5,-7,-2,2,4,1,-17,-23
50966084299,-12,31,3,-2,-3,-2,26,-19
50966093049,11,-36,-8,-2,0,-2,-15,-1
50966093049,-61,-15,1,-7,-4,-3,-10,-7
50966107467,7,-5,0,1,-3,-2,-8,8
50966107467,-2,20,8,6,2,-1,22,19
50966114110,-5,6,-5,4,0,3,-8,10
50966114110,15,-1,-3,2,1,-4,3,21
50966130434,-5,5,-3,-4,-4,0,0,-8
50966130434,2,-22,-6,-6,-2,-5,-6,-4
50966131998,0,11,1,2,0,2,11,6
50966131998,34,12,-3,-1,1,1,1,3
50966144262,-30,-14,4,5,-1,-1,-6,-9
50966144262,8,-1,-2,-4,1,0,13,13
50966153078,-15,-12,-6,-1,-6,-5,6,-17
50966153078,27,29,4,3,1,2,-2,6
50966167516,-6,-25,-8,-8,-2,-4,-11,9
50966167516,10,10,-2,4,1,2,-7,10
50966174150,-4,-20,0,0,1,-3,-5,-5
50966174150,-12,30,1,-3,-4,-1,-7,-3
50966190268,19,2,3,0,2,2,24,0
50966190268,-14,-3,3,0,-3,-1,-19,0
50966196688,-13,-8,-7,2,3,2,10,-18
50966196688,11,-5,4,-7,-1,-2,-7,4
50966204242,4,17,5,2,-1,-2,6,-18
50966204242,-3,8,0,0,1,2,-9,13
50966213044,-6,3,-4,1,1,-1,0,-9
50966213044,-3,-17,-12,-16,-9,-7,6,-6
50966227447,-18,13,5,-3,0,0,-19,-6
50966227447,5,4,3,3,-2,-2,-15,7
50966234242,2,-10,-7,-1,-1,0,23,11
50966234242,-14,-19,-4,3,3,1,19,-4
50966258164,-3,3,-2,-1,0,-2,-12,-3
50966258164,34,-8,-7,-1,1,1,-1,6
50966259516,-75,23,11,-5,-5,-3,-9,8
50966259516,34,-6,1,-2,1,-1,-10,-5
50966264212,30,-6,-10,-3,-5,-4,5,-13
50966264212,-38,-7,2,-1,-4,-4,0,-23
50966273018,34,1,2,7,1,-1,2,10
50966273018,-21,10,3,6,3,2,3,-1
50966287378,3,17,-2,-7,-3,-4,-13,-21
50966287378,-3,-11,-7,-4,-2,-1,4,7
50966294272,3,-19,2,-4,-1,-3,-4,-3
50966294272,-7,-15,-5,4,-3,-1,-20,-1
50966309851,10,-10,1,-1,0,0,0,22
50966309851,-12,11,1,0,-1,0,2,-34
50966316746,35,2,-5,-2,2,-1,0,-1
50966316746,-1,4,6,2,0,0,7,-6
50966324237,9,-3,-1,-2,-1,0,-12,17
50966324237,3,-4,4,0,-3,-2,-6,2
50966333017,4,31,4,-10,-2,-1,-12,-9
50966333017,-4,-20,-9,-4,0,-1,8,8
50966347491,-10,-19,-4,0,2,-2,-2,-12
50966347491,6,10,-2,3,-1,1,-16,-8
50966354280,6,-4,2,-2,0,2,13,8
50966354280,-4,23,0,0,0,-3,-6,-6
50966370003,-1,-17,-4,-2,-6,-1,8,1
50966370003,-3,-8,1,-1,-1,-2,-6,0
50966376742,-7,4,-3,-2,-4,-4,2,-2
50966376742,-1,7,4,1,1,1,-3,10
50966392995,-8,11,0,2,2,0,3,2
50966392995,-4,-12,0,-2,-1,-1,-2,-7
50966394537,1,4,1,-2,-2,0,-5,-1
50966394537,-1,-1,-4,5,2,2,9,-4
50966407302,-2,2,-1,-3,-1,-2,1,-9
50966407302,-13,-9,-8,-3,-3,0,11,6
50966414209,2,-19,0,3,2,-1,-10,-12
50966414209,13,8,2,-1,-2,-2,11,5
50966429875,-5,-11,-9,-4,-2,-1,-13,0
50966429875,18,5,3,-2,0,0,-3,-11
50966436777,-56,1,-10,-3,-1,-1,-17,-7
50966436777,1,-8,1,2,0,-1,2,-21
50966453065,4,19,5,7,5,4,18,14
50966453065,1,-5,-3,-4,-3,-2,1,-3
50966454481,19,21,11,6,2,1,-17,-13
50966454481,-16,-24,-11,-6,-5,-2,4,-5
50966467482,5,-5,-6,0,-6,-4,-16,2
50966467482,-29,8,-1,2,4,0,9,19
50966474068,0,-4,4,1,5,-1,13,-2
50966474068,30,17,-3,-3,0,0,5,7
50966489800,0,7,3,-8,-7,-2,8,-5
50966489800,1,-7,1,2,1,-1,21,0
50966496745,5,8,-7,-3,-3,-1,0,34
50966496745,12,-5,-1,1,-1,3,11,1
50966513067,-82,26,3,-2,2,-2,-10,-27
50966513067,7,-22,3,-2,-6,-1,-9,12
50966514688,-6,-10,-7,-7,-5,-3,3,-1
50966514688,8,-17,0,-2,-4,0,-7,-3
50966527381,14,16,6,5,2,1,0,-1
50966527381,-6,20,-2,-8,0,-1,-15,-25
50966534181,2,-16,-3,1,-5,-2,5,0
50966534181,-20,-38,-13,-3,4,-1,-10,5
50966549906,16,27,5,-1,-4,0,-3,-1
50966549906,-8,-3,-4,-2,-1,-3,-5,-2
50966556710,15,-15,-5,0,2,-2,-13,2
50966556710,-9,16,4,-2,4,1,-4,-3
50966573035,3,-9,-1,-2,2,-3,0,12
50966573035,6,0,3,5,-1,-2,-5,-4
50966574482,0,-1,-6,-3,-3,1,2,-2
50966574482,-4,15,-2,2,-3,-3,-22,-4
50966587218,9,-31,-8,-3,1,0,-5,-14
50966587218,-1,17,4,1,-1,-2,-14,-13
50966594213,4,3,1,1,1,0,-2,8
50966594213,12,-21,2,-6,-1,-2,2,3
50966609861,-63,-4,1,5,1,0,5,-3
50966609861,18,7,-5,-3,-5,-3,8,14
50966616737,-16,10,4,-1,-1,-1,8,-27
50966616737,16,1,2,3,-3,-2,-6,12
50966633053,9,-14,3,1,-1,1,6,-16
50966633053,-9,0,1,-2,1,0,7,18
50966634539,-1,0,-3,0,0,-1,4,-1
50966634539,-38,21,0,0,3,0,-11,-9
50966647415,30,5,-1,-5,-6,-4,-2,-4
50966647415,-7,-27,-7,2,2,1,1,3
50966654195,14,10,-6,-2,-3,0,-6,-7
50966654195,-12,-12,1,-4,-3,-1,2,-16
50966669877,7,-4,-5,5,2,0,-25,0
50966669877,-5,8,-3,-1,3,1,18,19
50966676686,2,-2,6,1,0,-2,9,16
50966676686,-1,12,1,-1,-4,-1,19,-3
50966692994,22,3,-5,0,2,3,-13,31
50966692994,-10,-7,4,-4,-4,-3,0,-9
50966694479,5,5,0,2,1,0,-2,6
50966694479,-14,3,-8,2,-2,-1,12,-11
50966707262,16,-9,3,-3,0,-1,4,1
50966707262,7,-19,-6,-3,-2,1,-1,-12
50966714176,-4,9,2,-6,-3,-3,-9,-10
50966714176,0,-26,-4,-6,-6,-4,2,10
50966729915,-8,-5,-5,1,0,-2,4,-10
50966729915,-2,8,0,-2,0,2,23,17
50966736621,-3,-7,2,-2,-3,-2,-25,-23
50966736621,7,15,-2,4,2,1,-16,9
50966753132,3,3,7,-5,-2,-2,16,-3
50966753132,-6,-5,-5,5,2,1,-25,-11
50966754537,8,9,-4,-5,-11,-3,16,0
50966754537,-8,-12,0,-2,0,-4,-13,8
50966767454,0,2,-3,-1,3,2,2,9
50966767454,2,35,6,0,1,-2,-6,-9
50966774211,1,-54,-5,3,3,0,-3,-2
50966774211,16,-4,4,-1,-1,-1,-7,-18
50966789850,-52,-15,-7,-4,-5,-4,5,15
50966789850,18,15,1,2,3,0,-4,-26
50966796524,5,7,1,-4,-4,-3,8,5
50966796524,6,6,2,2,9,4,-18,-1
50966813575,15,-15,-2,-3,-9,-3,6,-3
50966813575,-11,-1,6,3,1,0,7,19
50966814965,-10,-4,-11,-8,-10,-3,-32,-10
50966814965,16,-13,-2,3,0,-3,10,6
50966827429,5,67,6,-2,-4,1,7,11
50966827429,-14,-96,-18,-7,-6,-3,-10,-17
50966834133,21,-1,7,5,3,0,-1,-3
50966834133,-43,10,2,-3,-2,-2,-3,4
50966849933,8,-6,-2,5,6,1,-14,-21
50966849933,-1,20,-4,-3,-4,-1,-6,-4
50966856681,-6,-10,3,-3,-4,-4,-8,13
50966856681,-2,-1,-2,-2,-4,-2,5,-18
50966873124,3,-3,3,3,3,-1,-12,14
50966873124,8,7,0,0,0,1,12,5
50966874529,29,3,-4,9,6,3,19,6
50966874529,-64,12,-1,-1,-4,-3,5,-11
50966886708,5,6,4,-3,-3,-3,-14,-6
50966886708,3,-9,-15,-3,-3,-5,1,-7
50966895526,-11,-27,-8,-1,-1,1,-1,26
50966895526,16,30,12,2,2,2,16,9
50966918107,6,-29,-15,-3,0,-2,3,-4
50966918107,-13,12,14,-1,2,0,-10,-5
50966919521,-17,-3,-1,-1,-1,1,6,-18
50966919521,9,-1,-4,-2,-3,-1,14,4
50966933018,-3,2,1,-1,-1,1,12,-10
50966933018,21,17,7,-4,-4,-1,-11,7
50966934480,-14,0,-5,-4,2,0,2,-8
50966934480,7,-3,1,6,6,1,-3,3
50966946646,3,-16,-7,4,1,-2,-5,-9
50966946646,14,34,5,-6,-5,-1,-1,0
50966955619,-41,-33,-4,-3,0,-1,-4,17
50966955619,14,-13,-5,2,-2,0,17,-8
50966969914,-23,-3,-4,1,3,2,6,-12
50966969914,1,-18,-6,3,-1,0,-15,7
50966976680,3,27,2,-2,-1,-2,15,9
50966976680,30,-1,3,-3,-3,0,-10,7
50966993025,-7,-12,1,6,1,0,-14,9
50966993025,-7,3,-3,-4,-3,-3,-4,10
50966994517,1,14,2,1,-1,0,-19,-19
50966994517,-16,-11,-4,-6,-1,0,12,8
50967006678,20,5,4,-3,-2,-2,4,5
50967006678,-5,6,1,4,0,0,-7,-9
50967015517,7,19,0,3,7,2,-2,8
50967015517,-3,0,4,0,-2,-3,-6,12
50967029875,0,-8,-3,-4,-4,-2,-5,4
50967029875,49,-17,-2,-1,0,3,19,-1
50967036728,-25,19,3,-4,-1,-1,-9,-20
50967036728,13,-7,-10,3,0,-2,-9,1
50967052981,2,6,6,-4,-6,-3,20,7
50967052981,8,-4,0,0,0,-4,-1,6
50967054481,3,0,1,0,0,-1,1,5
50967054481,-3,-12,-8,-7,-3,-4,9,-38
50967066728,-2,2,-2,0,-2,-1,3,13
50967066728,-28,14,0,0,0,0,6,-8
50967075619,14,-10,3,-1,-3,-2,6,18
50967075619,-7,5,5,-2,2,0,-10,-33
50967090376,6,12,4,1,1,0,9,-12
50967090376,-22,-24,-11,-6,-4,-3,9,-10
50967096766,3,-6,-3,-6,-5,0,-11,20
50967096766,15,4,1,3,-1,-3,-8,7
50967112401,-5,7,-6,3,2,-1,-11,12
50967112401,-7,-14,-5,-5,-5,-2,-4,12
50967119149,-1,9,-8,-5,-9,-3,7,-14
50967119149,5,-16,-3,-2,-1,-1,-17,11
50967126697,0,1,-3,-1,-1,0,12,-7
50967126697,-11,-6,2,3,4,-1,-17,-17
50967135541,6,-10,-7,3,2,-1,-1,-5
50967135541,-42,16,4,-2,-2,-3,-4,0
50967149807,4,-14,0,-2,-4,-2,2,2
50967149807,-7,18,3,2,2,1,-6,7
50967156746,19,-16,-3,-2,4,2,4,5
50967156746,8,-12,-1,-8,-5,0,-4,20
50967172389,-3,-4,-1,4,1,-1,-10,-6
50967172389,-10,6,-6,-2,0,-2,-12,-2
50967179194,-3,12,6,-1,-4,-2,-4,-25
50967179194,10,3,-2,0,-1,1,1,16
50967186690,17,-14,0,-4,-1,-2,-8,-6
50967186690,11,19,3,2,1,0,8,2
50967195510,9,0,-6,-5,-4,-3,-13,-15
50967195510,-1,-1,6,3,0,0,3,4
50967209727,-18,-8,-4,-3,-5,-1,-4,-20
50967209727,15,13,3,2,4,1,15,16
50967216685,2,-25,2,4,-1,-1,4,2
50967216685,-16,8,-7,-5,-3,-1,9,10
50967232360,17,2,3,-1,-1,-3,5,-3
50967232360,-13,-4,2,3,-1,-1,2,1
50967239175,-7,1,5,2,2,-3,26,4
50967239175,12,6,-3,-1,-2,-1,-15,-4
50967246620,-19,-20,-10,2,1,1,-19,-14
50967246620,6,16,3,-4,-5,-1,29,-7
50967255498,-8,-13,-2,-2,1,-1,0,-3
50967255498,-3,-9,6,1,1,0,0,10
50967269801,8,-4,-8,-6,-1,-1,-2,2
50967269801,-14,-7,-2,-6,-10,-4,-1,8
50967276645,1,20,4,-3,4,2,-10,3
50967276645,8,-6,-1,4,4,2,-3,-7
50967300633,-30,3,-1,1,2,1,-6,22
50967300633,26,-18,-5,-3,-2,-2,-13,-4
50967301996,-19,13,1,-2,-3,-1,-7,0
50967301996,-17,-9,-3,-2,0,-1,2,3
50967315597,27,-17,-7,-3,-3,-2,2,-5
50967315597,12,11,1,0,0,0,-21,-16
50967317042,-9,9,3,1,5,2,8,1
50967317042,15,-1,0,-1,-8,-4,-9,-13
50967329870,2,10,3,-1,1,0,10,13
50967329870,-18,-2,-3,0,2,0,-7,-9
50967336681,13,-1,4,7,1,1,18,-1
50967336681,-4,0,-7,-3,2,-1,3,-13
50967352424,-7,6,5,0,-6,-2,4,18
50967352424,31,-17,-7,-5,-3,-2,0,-9
50967359199,-51,12,1,5,-1,0,-3,-14
50967359199,-17,-12,-6,-6,-5,-2,11,-10
50967375404,9,-2,-1,-3,-2,-1,-6,-11
50967375404,-12,-17,-2,5,5,0,-16,-1
50967376979,11,12,5,-8,-7,-3,-1,16
50967376979,7,-1,2,4,9,2,-15,7
50967389859,-6,14,4,-2,-3,-2,-2,-14
50967389859,15,-13,1,-2,-2,-1,33,11
50967396712,-13,-13,-12,-2,-2,-3,-9,-4
50967396712,3,7,-13,1,-4,-3,-5,-7
50967412365,-2,7,8,2,1,1,0,-4
50967412365,0,-5,-3,-2,2,1,-6,9
50967419173,16,6,2,4,1,0,-7,-11
50967419173,2,-7,0,-2,-3,0,13,-13
50967435501,-10,5,-12,-3,1,2,-11,-18
50967435501,-22,-15,-7,-7,-6,-4,-17,-4
50967436991,5,7,3,2,3,3,-3,-3
50967436991,-4,8,6,-2,-2,-3,-11,-11
50967449919,15,2,-1,1,1,1,-22,17
50967449919,-20,15,5,0,1,2,14,14
50967456648,25,-3,-9,-1,-3,-5,-4,-1
50967456648,10,-14,-3,-2,-3,0,-1,6
50967472820,11,-4,1,2,1,-2,1,-11
50967472820,1,-9,-2,-2,-5,-1,6,4
50967479206,-1,20,-3,3,-2,-2,0,9
50967479206,7,2,5,1,3,2,6,-5
50967495564,-8,-6,0,-1,0,-1,1,22
50967495564,-23,-3,-1,1,0,-2,-11,-9
50967496971,27,2,2,1,6,5,-6,18
50967496971,-13,8,1,-2,-4,-1,-4,-12
50967509842,-2,0,3,-4,-3,-3,4,-1
50967509842,-5,-13,-3,0,0,-3,2,-11
50967516490,3,-22,-5,0,-4,-3,-30,28
50967516490,-11,21,1,2,1,3,29,12
50967532370,-6,-22,-4,-2,0,-1,0,-3
50967532370,14,7,4,-3,-6,-1,-3,-5
50967539120,-1,-20,-9,-8,-5,-4,12,-28
50967539120,13,6,-5,1,-1,-2,-17,11
50967555505,14,-20,-1,-4,-4,-3,-9,-26
50967555505,7,9,-10,3,-3,-1,17,21
50967556999,-3,-36,-2,0,1,0,-17,-10
50967556999,6,-3,4,-1,1,0,-12,1
50967569841,-14,8,-3,3,3,1,9,-11
50967569841,0,3,1,-1,1,-2,6,15
50967576738,-3,20,0,3,1,2,10,-2
50967576738,-9,-3,-1,-4,-3,-4,-14,5
50967591776,0,-18,-12,-5,-5,-1,6,2
50967591776,-10,4,3,-2,1,0,-24,-11
50967599072,-8,8,4,2,-1,-3,11,19
50967599072,11,-10,-4,0,3,1,13,-2
50967614834,8,16,8,3,3,1,-1,-5
50967614834,-10,15,3,4,-2,1,-5,6
50967615532,-2,-2,7,-7,-1,0,-7,21
50967615532,-3,-20,-6,-8,-9,-3,-6,-30
50967630470,-12,-17,-3,-5,-3,-3,4,1
50967630470,1,-3,-6,2,3,1,-3,-20
50967636687,1,6,-3,1,1,-2,6,13
50967636687,-18,8,5,4,2,1,19,37
50967651701,24,29,3,0,1,1,16,-23
50967651701,-10,-25,-4,-8,-5,-4,-2,-8
50967659216,-3,-10,-6,-5,-4,-2,-2,-16
50967659216,7,4,5,-1,1,-1,3,-7
50967674827,-10,-4,-3,-1,-1,1,14,9
50967674827,-5,12,1,0,0,0,-14,3
50967675423,15,-6,0,-2,-1,0,6,-37
50967675423,-2,-4,-4,-2,-3,-5,-3,6
50967690492,-23,16,2,2,2,0,-25,-22
50967690492,8,2,-4,1,3,1,20,11
50967696571,-16,-17,-2,-10,-8,-1,1,-15
50967696571,10,3,-2,1,0,1,-13,4
50967711671,-7,30,11,3,4,2,-2,4
50967711671,-11,-38,-9,1,-4,-3,10,-9
50967719186,-3,1,4,-2,-3,-2,-11,-9
50967719186,11,2,-9,0,-2,1,-8,1
50967734865,-20,-5,7,-1,-2,-2,-8,1
50967734865,5,9,6,1,2,-1,8,10
50967735425,0,6,1,-2,3,2,5,1
50967735425,-2,-1,0,1,-9,-2,8,-17
50967750955,30,25,0,1,3,-1,-8,47
50967750955,-22,-7,-8,-6,-7,0,-13,-21
50967756747,-4,0,1,4,3,0,-8,-7
50967756747,-1,14,7,-5,-1,-1,-5,-4
50967771613,8,-47,-12,-2,-1,-3,5,-20
50967771613,-2,24,8,4,3,-1,-9,15
50967779153,2,-5,-4,0,-2,-1,4,2
50967779153,-3,-10,-9,-3,-5,-2,-12,-2
50967794801,9,12,0,6,25,-6,3,-3
50967794801,4,29,0,2,1,3,-11,-8
50967795493,-14,-30,-12,-19,-53,4,6,-1
50967795493,-2,7,6,3,12,-1,-6,4
50967810500,-16,-18,-6,-5,-6,2,-2,1
50967810500,19,20,7,4,13,-3,7,0
50967816565,3,-11,-4,4,13,0,5,1
50967816565,-9,6,-1,0,-2,1,12,-11
50967831681,5,-14,-8,-9,-12,-6,-34,-4
50967831681,12,-29,2,4,10,3,12,23
50967839111,-1,20,0,-1,0,-4,6,3
50967839111,-3,-19,5,0,-3,-3,-8,-12
50967854851,-9,17,-4,4,1,-3,-6,0
50967854851,14,-9,-5,-3,-8,-2,-9,-18
50967855473,-41,-9,2,4,7,-1,5,13
50967855473,18,-2,2,4,7,1,-13,3
50967870502,28,25,3,-5,-9,1,11,5
50967870502,-70,-1,0,-6,-14,-4,-6,-12
50967876673,17,-8,-2,2,11,2,-2,35
50967876673,-10,6,-2,-1,4,1,12,-6
50967891702,-17,-9,0,-3,-6,1,6,-10
50967891702,17,20,0,-3,-4,-3,1,-13
50967899190,1,-18,-6,3,4,-3,-17,-17
50967899190,-11,6,2,-3,2,-1,5,7
50967914875,-4,-7,-4,-1,-8,1,-5,27
50967914875,23,-20,-11,-9,-19,1,1,-6
50967915507,-32,24,5,-3,0,-6,12,-19
50967915507,-17,-9,-4,2,-4,-4,-17,7
50967930510,0,-18,6,-3,4,0,24,-16
50967930510,5,10,4,11,23,2,-1,18
50967936564,9,36,8,-2,-17,-1,12,-7
50967936564,-3,-36,-6,-2,-3,-4,-12,5
50967951775,-10,3,3,0,-2,0,-5,-10
50967951775,-1,-22,-2,-1,3,3,-2,1
50967959186,16,11,-4,-1,3,-5,-7,-7
50967959186,-5,3,4,4,-1,2,4,-10
50967974725,15,3,-2,-3,-1,-1,9,-10
50967974725,-3,-15,-5,-3,-4,-3,-8,7
50967975413,12,10,5,4,10,0,-3,-2
50967975413,24,20,-4,-4,-1,0,-12,-10
50967990477,-59,-2,1,-1,-3,2,-17,9
50967990477,14,9,1,-6,-5,-6,-7,-9
50967996622,0,-22,-10,-3,3,0,-5,12
50967996622,-22,7,1,-1,-6,-3,-2,12
50968011444,29,-7,-2,4,0,0,5,-13
50968011444,11,19,7,-3,-1,-2,-2,6
50968019040,-7,1,8,2,3,2,-9,3
50968019040,8,-5,-1,-9,-7,-2,11,9
50968034739,-12,10,-4,4,9,1,-13,9
50968034739,-27,-20,-5,0,-7,-1,2,-14
50968035490,18,-12,-5,1,-2,-1,9,-4
50968035490,3,5,-1,-3,-4,2,4,8
50968050470,-6,-21,-3,-6,-2,-4,1,-5
50968050470,3,-11,-7,-5,9,-2,-3,-3
50968056516,9,11,2,3,-4,4,6,9
50968056516,-7,-6,-4,-1,-4,-1,-18,0
50968071644,5,16,9,1,-3,-2,-5,-5
50968071644,3,-5,5,1,-1,0,17,-6
50968078966,34,2,-6,2,4,-2,-1,0
50968078966,-46,-3,2,5,8,-1,11,-4
50968093988,-17,-1,-1,-5,-3,-1,19,9
50968093988,5,-13,-6,-2,-14,-4,-11,14
50968101549,6,24,2,0,5,-1,10,-3
50968101549,5,-49,-13,-7,-5,-2,13,-6
50968110521,0,-7,-4,2,7,4,-13,-17
50968110521,23,9,7,-1,-1,0,4,4
50968116541,-36,3,-3,-2,-1,-1,-4,4
50968116541,13,1,-8,1,-1,-1,3,-3
50968131513,-2,-2,2,-3,-4,0,-29,-2
50968131513,0,6,0,-2,-1,-2,6,-1
50968139071,5,-6,3,5,1,3,-6,-6
50968139071,3,10,0,-5,-2,-4,15,2
50968154185,11,-8,-9,-1,-2,-4,-8,-22
50968154185,5,16,1,2,-3,0,-1,-12
50968161418,-11,-28,-11,-4,1,0,-4,4
50968161418,16,11,-3,0,-4,1,13,7
50968170456,-57,-30,-13,-4,-12,-2,8,6
50968170456,16,11,2,-2,-2,-1,1,15
50968176690,16,-20,-8,-1,1,-3,-6,-27
50968176690,-30,18,2,4,5,1,-5,3
50968191579,30,12,3,5,-1,1,-8,10
50968191579,-27,-4,-3,-1,3,1,2,-24
50968199107,-8,5,5,0,-3,-2,-17,0
50968199107,5,0,-3,-5,-2,-1,-16,-1
50968213992,7,-2,1,0,1,-1,17,13
50968213992,-19,1,-1,-5,-1,-2,-9,-7
50968221414,3,3,-2,-1,-7,-2,4,2
50968221414,4,-37,-6,-3,1,-3,-11,-10
50968237296,2,8,5,1,3,-1,5,1
50968237296,7,-5,-2,-2,-8,0,-4,1
50968237981,-6,5,-1,3,4,2,4,-2
50968237981,-3,6,3,-1,-4,1,-4,-10
50968251502,44,7,3,-4,3,-4,-7,-15
50968251502,-62,-23,-4,-2,-2,-1,14,16
50968259154,-3,23,9,-1,-1,0,-23,-13
50968259154,22,-14,2,4,1,1,7,-1
50968273892,12,-1,-7,-1,-7,-1,-5,-6
50968273892,31,19,4,1,6,3,-3,0
50968281446,-43,-8,3,3,2,0,6,4
50968281446,28,6,-3,1,0,2,-10,2
50968296861,-48,-8,-1,-3,-3,-4,5,6
50968296861,29,9,4,1,-2,-3,-17,-8
50968304686,-8,-17,-14,-5,-3,-1,-5,-5
50968304686,3,12,6,0,-2,2,3,-4
50968311451,5,15,8,0,-2,1,16,4
50968311451,-20,-35,-15,-2,3,1,-19,-8
50968318967,14,12,1,-7,-4,-4,15,10
50968318967,-6,4,3,-2,0,-2,3,4
50968334156,1,6,-4,-2,-3,-1,8,9
50968334156,3,7,-2,0,-1,-1,2,2
50968341520,6,0,4,-2,-3,-2,3,6
50968341520,15,3,-1,2,-1,-1,21,0
50968357302,8,-2,1,-4,-4,-1,17,13
50968357302,-4,-4,-1,1,5,3,-14,8
50968358058,9,-7,-3,-4,-6,-3,-10,6
50968358058,-9,8,-1,0,1,-2,-6,-23
50968371442,4,-17,0,-6,0,-3,-5,7
50968371442,-11,-5,-3,0,-8,0,3,1
50968379118,2,13,1,-1,1,-1,-12,2
50968379118,-9,-39,-6,0,2,0,0,-23
50968394216,0,9,-1,6,8,2,-11,-18
50968394216,17,17,1,-7,-6,-4,9,-3
50968401464,-40,-23,-1,0,1,-1,-17,-12
50968401464,19,6,1,-5,-7,-5,-3,5
50968417126,-29,-7,-5,6,3,0,-1,3
50968417126,-5,5,5,-1,-1,-2,11,-11
50968418078,16,10,-1,-3,-1,-1,8,10
50968418078,-20,13,-2,5,8,1,-4,3
50968431689,12,-15,-4,-2,-7,-2,-12,-8
50968431689,27,-9,-9,-2,-1,-1,19,7
50968439179,-24,3,3,3,1,0,7,-12
50968439179,-8,11,4,-1,-3,0,-17,10
50968453996,-3,-17,-4,-6,0,0,-2,13
50968453996,0,17,-1,4,1,-2,4,2
50968461630,11,-32,-5,-2,0,1,11,-22
50968461630,-10,-25,-6,1,-1,-2,-3,-7
50968477077,5,22,8,1,-1,-2,6,13
50968477077,-7,17,8,-4,0,-3,-8,0
50968477863,1,-14,-1,1,-1,0,1,6
50968477863,1,15,-2,-3,-3,-4,6,4
50968491445,1,-18,-8,0,-4,2,-3,-5
50968491445,-12,-4,5,-3,0,-3,-2,10
50968498916,5,14,1,1,0,-1,17,-4
50968498916,3,35,0,-6,-5,-1,1,-12
50968513920,13,-10,3,-4,-4,-5,-17,-4
50968513920,-3,19,-5,3,1,0,-3,-15
50968521435,14,-34,-10,-5,-3,-1,-26,16
50968521435,-1,-8,2,-2,3,1,7,11
50968537112,18,12,-4,5,-1,2,14,12
50968537112,-9,-14,-2,0,3,3,-2,-8
50968537904,9,20,2,-3,-4,-1,-14,1
50968537904,-2,-2,6,-1,0,-1,-14,-1
50968551449,7,2,-5,0,0,-2,5,-3
50968551449,5,-7,-2,-2,-3,-1,-6,5
50968559123,0,24,5,-1,-1,0,6,3
50968559123,7,-20,-4,-2,-2,-2,-5,9
50968574199,-29,-8,-3,-1,-2,-1,21,3
50968574199,11,18,3,3,3,3,9,-19
50968581455,-6,-30,-11,-3,0,-4,-13,-16
50968581455,0,-5,-1,1,3,3,-4,8
50968597258,-2,10,1,-5,-2,-5,-4,8
50968597258,-15,-30,-3,1,0,0,-7,-5
50968597992,-3,13,5,1,-2,1,4,20
50968597992,5,3,-4,-3,-1,-1,-2,-8
50968611441,0,-15,-4,0,0,-2,-7,-11
50968611441,-4,3,-9,-2,1,-2,-2,10
50968619051,11,-11,-2,2,1,1,0,-6
50968619051,-38,12,7,1,-3,0,0,0
50968635418,-1,11,12,1,-1,-1,2,-5
50968635418,-5,-1,-1,-7,-5,-3,-12,-7
50968641609,8,-10,-4,4,1,0,7,4
50968641609,6,5,-8,-1,0,-2,1,7
50968657286,-1,0,-5,-6,0,-1,-32,-21
50968657286,-11,-8,4,2,1,2,19,21
50968657961,-2,4,0,3,-1,-1,17,-3
50968657961,7,12,4,3,-1,0,1,-3
50968671545,-10,9,2,-4,-1,1,3,-16
50968671545,0,-29,-3,4,5,-2,-14,-1
50968679099,-5,14,4,-2,-3,-1,-11,1
50968679099,6,5,-3,-1,-3,-3,15,1
50968694131,2,-16,-6,4,24,-2,-6,-5
50968694131,-5,-7,-10,-3,-20,0,8,3
50968701461,0,6,1,-5,-20,-2,5,-5
50968701461,-4,-2,2,1,7,-1,-3,-6
50968717133,2,5,-2,-6,-7,2,-5,10
50968717133,21,-4,5,4,13,-1,-11,9
50968717943,9,-1,-2,-5,7,4,15,16
50968717943,17,2,1,-3,-14,-3,-7,-7
50968731394,-3,4,-2,5,6,0,1,1
50968731394,31,-3,2,-4,-7,-3,3,-3
50968738873,-52,13,-8,1,3,1,3,-21
50968738873,18,-25,-4,-7,-1,-1,-6,6
50968753896,9,11,-2,2,-2,0,11,18
50968753896,-17,9,4,-2,0,0,-7,-16
50968761418,12,-3,-5,1,1,-2,-10,-9
50968761418,-13,-13,-4,3,4,1,4,5
50968777087,-20,-15,-1,-4,-9,-2,-4,-17
50968777087,-11,-6,-1,-6,-12,-5,-3,5
50968777893,13,18,8,-1,7,-3,0,-1
50968777893,-12,-19,-5,1,3,1,0,15
50968791669,2,8,-1,-2,-6,0,5,4
50968791669,0,4,-4,-2,0,0,7,-24
50968799101,7,-1,1,-2,-1,-2,-23,0
50968799101,7,23,-4,-5,-4,-2,1,5
50968813951,-25,-34,-5,1,-1,0,5,-12
50968813951,-4,-1,-5,-2,2,0,5,8
50968821631,52,-6,2,-3,-2,0,-7,12
50968821631,-51,5,-1,0,3,1,-14,-16
50968837164,15,10,-5,0,-3,-2,-3,1
50968837164,-15,-3,-6,-9,-5,-1,-8,11
50968837850,5,-9,6,2,3,-1,10,13
50968837850,15,4,7,-3,-4,-3,-7,-1
50968851558,16,-9,-4,0,-2,0,4,-7
50968851558,-6,-1,0,4,2,1,-5,0
50968859004,-14,-4,-1,-2,-3,-2,10,-16
50968859004,2,11,4,5,1,0,-17,-17
50968874125,-6,-7,-4,-1,0,0,-1,9
50968874125,13,-9,2,6,2,2,0,3
50968881584,-17,2,-3,3,-4,-2,-1,-18
50968881584,-7,-10,0,0,-1,-1,2,0
50968897277,35,5,5,0,0,1,-9,5
50968897277,-41,11,1,-1,1,-1,10,7
50968897942,-10,0,1,0,1,0,-33,-7
50968897942,4,-17,-11,-1,-5,-3,4,1
50968912946,-9,7,4,-3,-3,-1,9,4
50968912946,5,-1,-4,-2,-4,-3,-16,7
50968918961,-5,0,0,0,-1,0,27,14
50968918961,-7,-4,4,1,4,1,5,-3
50968934160,3,6,-1,-2,-4,-2,1,-3
50968934160,0,-14,-4,3,1,-2,-6,-3
50968941497,-5,-9,-7,-7,-2,-4,-24,1
50968941497,16,-12,-2,3,0,5,41,8
50968957118,-8,-19,-2,0,-3,-2,-2,-5
50968957118,25,17,2,0,0,1,1,5
50968957864,17,11,3,3,-2,-1,-9,-2
50968957864,-9,-4,-8,-4,-3,-1,-23,1
50968971464,-13,3,2,1,2,1,10,-18
50968971464,-15,-4,1,2,0,2,-1,-6
50968979124,16,-5,-3,-3,-5,-2,1,-1
50968979124,-1,11,-1,-2,-3,-3,-1,6
50968994075,-4,7,-1,-5,-4,-1,-6,-5
50968994075,7,-11,6,2,3,-2,-3,10
50969001581,-15,-1,-3,3,1,1,30,0
50969001581,2,8,1,-2,1,-1,-19,12
50969016572,-13,-3,-10,-6,-6,-3,-6,-1
50969016572,3,-6,-2,-6,-3,-3,2,-4
50969024839,-13,-14,-5,-2,3,-1,0,42
50969024839,-6,12,1,0,-4,0,15,10
50969031594,5,-10,-3,-1,1,0,5,-5
50969031594,-7,6,-3,-3,0,-4,-6,-16
50969039023,1,4,1,2,3,2,-1,-11
50969039023,31,15,10,-1,-2,-1,-4,-7
50969054097,-35,-9,-1,-4,-5,-1,-4,16
50969054097,9,-9,-3,-2,-1,-3,2,-13
50969061505,10,19,-5,-4,-1,-2,-16,6
50969061505,-30,-19,-3,2,5,-1,11,-31
50969076679,19,12,6,0,-5,-2,-1,11
50969076679,-4,14,2,5,3,1,4,3
50969084787,-6,-15,-2,-4,0,-1,-6,-15
50969084787,14,5,-1,-6,-7,-2,15,19
50969091495,-32,-14,2,1,0,-2,-29,17
50969091495,-15,14,-1,-4,-2,-1,-6,-15
50969099070,9,-3,-5,0,-5,-2,11,9
50969099070,-4,-2,-3,-2,-2,-3,-9,-15
50969114108,9,2,0,6,5,-1,-3,-16
50969114108,22,13,2,2,1,2,6,17
50969121460,-19,-6,5,-5,-2,-1,-14,-20
50969121460,0,27,2,1,2,1,14,5
50969136464,12,-12,-3,-5,-7,-2,2,1
50969136464,-10,-7,0,-5,-4,-4,-10,-4
50969144670,8,-18,-7,-1,-4,-4,19,6
50969144670,-28,3,-5,1,3,-2,-23,-6
50969151587,16,10,-2,-2,4,2,9,5
50969151587,0,-6,5,-1,0,1,2,-1
50969159129,-20,3,-1,2,1,-1,-10,-9
50969159129,21,-12,-1,-3,0,1,7,-11
50969174117,0,20,3,1,0,0,-17,0
50969174117,-4,-17,-6,-4,-3,-2,9,2
50969189734,0,3,0,-1,-3,-3,-7,-11
50969189734,15,-3,1,2,4,-1,-3,1
50969196623,0,28,8,-3,-3,0,9,-11
50969196623,5,-47,-17,-1,-3,0,-17,-19
50969204834,26,11,6,1,0,0,-2,-10
50969204834,-26,-5,3,-2,-1,-1,8,6
50969219938,-50,-20,-1,-3,-2,0,7,-6
50969219938,12,21,1,2,3,-2,-3,14
50969220374,-9,0,-8,-8,-7,0,0,5
50969220374,-7,-13,-1,0,0,-2,-2,-17
50969234139,27,5,-2,2,3,1,-8,6
50969234139,-13,13,0,1,2,0,1,-10
50969241531,-7,3,-6,-2,-2,1,-2,-4
50969241531,7,-18,-5,-4,-4,-3,2,2
50969256636,6,-1,-3,0,-3,-3,-1,1
50969256636,-3,-6,-2,1,2,0,8,3
50969264833,-7,14,5,5,5,4,9,-15
50969264833,16,-12,-1,-4,-7,-2,-20,7
50969279870,-45,-13,1,0,-3,-2,25,13
50969279870,24,9,0,1,-3,-1,-9,-7
50969280370,-7,-17,-6,-4,-4,-2,-4,9
50969280370,-17,-22,-10,-1,4,3,2,5
50969293974,25,17,-1,0,2,-2,-9,-19
50969293974,0,5,3,-3,-2,-1,11,15
50969301424,4,0,4,4,4,2,2,0
50969301424,14,16,7,-1,-3,-2,1,5
50969316379,15,-10,-5,2,2,-1,-13,-8
50969316379,-17,19,-1,-1,-3,-2,20,1
50969324791,13,-19,-1,-1,-1,-1,-6,2
50969324791,-6,-10,-7,-2,-5,-1,-6,6
50969339687,8,21,7,0,0,-2,-1,10
50969339687,-5,-5,1,1,0,3,10,-30
50969340548,-7,6,3,1,-2,-2,-18,11
50969340548,-2,9,3,4,1,1,-2,4
50969354086,5,-22,-8,-3,-2,-2,1,-2
50969354086,-4,-1,0,-4,-2,-3,-12,-7
50969361526,-6,3,-1,-2,0,-1,7,13
50969361526,-3,1,1,-9,-9,-3,-9,-17
50969376605,3,-1,-4,1,1,1,-3,8
50969376605,12,-4,2,0,2,1,14,11
50969384843,-3,19,1,2,1,0,9,-21
50969384843,0,-5,-2,-2,-1,-3,6,0
50969399572,30,-1,0,-1,2,2,8,-3
50969399572,-69,-7,-1,-2,-1,-1,-9,-21
50969400351,2,9,0,0,1,-1,15,7
50969400351,-1,-4,-3,-3,-2,-3,-2,-10
50969414357,-3,-21,-4,-4,0,1,-8,-14
50969414357,5,-20,-6,0,-3,-1,-2,3
50969421394,0,13,1,0,2,0,2,-4
50969421394,-9,-12,0,-4,-4,-2,22,8
50969436395,-1,10,0,-3,0,-3,0,1
50969436395,6,16,2,-1,-4,0,-17,5
50969444643,-8,-22,-5,1,2,-1,-2,0
50969444643,16,14,1,-3,1,-1,-8,3
50969460224,-10,1,-1,-6,-6,-3,3,-5
50969460224,-4,7,-2,0,-1,0,4,-2
50969461006,21,-6,1,-2,0,-2,-15,3
50969461006,-4,8,-4,0,0,0,-5,-9
50969474005,-9,-7,2,1,0,-2,-1,26
50969474005,-2,-33,-7,-2,0,-5,-10,21
50969481532,5,-6,0,-4,-5,-1,16,7
50969481532,5,5,3,3,3,-1,-15,-12
50969496560,42,6,4,1,-2,1,-5,10
50969496560,-66,15,3,0,-2,-4,8,-16
50969504797,6,-12,2,2,1,-2,-20,10
50969504797,-2,1,-5,-1,-1,3,4,-1
50969519742,1,13,-4,1,0,-3,-9,-2
50969519742,26,4,6,-1,0,1,1,6
50969520265,-13,-4,-4,2,-1,-1,0,2
50969520265,-12,16,6,5,0,0,2,-11
50969534108,-3,-21,0,-3,-4,-2,-22,9
50969534108,22,4,-4,-4,-2,1,3,10
50969541532,-3,4,4,-4,-5,-6,-10,-21
50969541532,13,-22,-5,5,4,2,5,16
50969556562,-21,22,-3,5,3,3,12,-18
50969556562,19,-17,5,-3,-3,-3,-11,-1
50969564753,-11,6,3,3,0,1,9,4
50969564753,-22,-4,-3,-3,-1,-4,-10,-1
50969579690,44,-3,-7,-3,-8,-3,-10,-6
50969579690,-47,6,0,1,1,3,20,-1
50969580456,5,4,0,-2,8,3,0,1
50969580456,3,1,0,-3,-6,0,-5,4
50969593996,-12,-6,-2,-5,-1,-1,2,-12
50969593996,28,19,1,1,-1,-1,-9,-1
50969601416,-21,-57,-11,-4,-5,-1,-1,-5
50969601416,10,0,2,5,6,3,0,-3
50969616542,-15,-7,-9,-1,-4,-3,4,-11
50969616542,28,19,-6,-2,1,-2,-2,-3
50969624718,-15,5,5,0,-2,2,1,-8
50969624718,8,-2,0,-1,-3,-2,-5,4
50969639639,-16,-13,-2,-4,1,0,10,4
50969639639,-5,11,2,1,2,-1,-15,-13
50969640387,36,-1,-9,-5,-6,-2,-8,25
50969640387,-47,-9,1,-2,-1,-3,10,-16
50969655403,26,6,4,9,5,1,0,23
50969655403,-38,-10,-4,-5,-6,-2,-11,-5
50969661561,10,15,5,5,0,0,12,-12
50969661561,14,6,-3,-6,-5,-3,-22,6
50969676416,0,2,1,0,0,-3,-4,-24
50969676416,27,-32,-8,0,1,0,1,8
50969684709,-47,1,-4,-4,-5,-3,-2,-5
50969684709,0,2,-2,1,1,0,7,3
50969699751,-19,14,2,-2,-1,-1,-6,-5
50969699751,32,-10,-7,-1,-2,-1,-4,13
50969700349,15,2,-5,-3,-4,-1,5,-9
50969700349,9,3,4,4,4,1,0,-17
50969714077,-7,2,0,-2,1,-1,15,5
50969714077,-10,-2,3,2,0,-3,2,-15
50969721611,19,1,0,-7,-4,0,2,8
50969721611,-22,9,0,1,-2,-1,23,-5
50969745390,-19,-13,-5,-1,-2,0,-4,-1
50969745390,16,-4,5,0,-3,-2,10,-15
50969746053,-7,7,8,8,10,2,-3,6
50969746053,15,-3,-9,-8,-8,-3,-4,12
50969759728,-16,15,8,2,0,-1,8,5
50969759728,-16,-15,1,-5,-2,0,-10,-2
50969760385,-8,-18,-5,2,2,-2,-6,-16
50969760385,14,-8,-8,0,-3,-5,0,13
50969773962,33,-8,0,-2,3,1,7,-16
50969773962,-39,10,3,0,-3,-4,-32,-6
50969781607,0,9,-6,-3,-2,-1,14,11
50969781607,11,-8,0,-6,1,-2,4,3
50969805333,-14,3,-3,-2,-6,-3,-13,-8
50969805333,23,11,-1,2,3,2,-4,6
50969806218,12,-2,1,-2,-1,-2,-16,-16
50969806218,-5,-12,-2,0,-4,-3,-1,-6
50969820234,-3,-14,-1,-1,-1,-1,8,7
50969820234,-3,11,-3,0,2,0,-3,10
50969820995,-16,-3,1,-1,-3,-3,0,8
50969820995,26,26,11,1,4,1,-10,5
50969842211,-11,-35,-11,-1,-2,0,-7,-2
50969842211,-2,-7,-6,-4,-5,0,11,-2
50969842991,11,12,-6,0,-3,-1,-3,0
50969842991,-7,-4,1,4,5,0,-5,-1
50969856654,-6,8,5,4,3,1,4,-1
50969856654,5,11,3,-2,1,-4,-18,-3
50969864633,-5,8,0,1,-4,-1,11,5
50969864633,-4,0,-2,-8,-10,-3,-3,-14
50969879670,16,-5,2,0,-1,-2,7,16
50969879670,-43,3,-5,-3,-1,-2,1,-16
50969880350,3,-14,0,-5,-4,-3,-1,2
50969880350,-11,3,2,2,2,-2,-7,6
50969894060,7,15,-2,-4,-1,-2,-5,-7
50969894060,11,-8,0,5,1,-2,10,10
50969909700,32,-21,-9,-11,-5,-4,0,8
50969909700,-10,-7,-6,-1,-4,0,0,-1
50969916618,-12,2,2,1,-1,0,5,-11
50969916618,25,19,4,1,0,-1,-2,15
50969924758,-29,-8,0,-1,1,2,4,-6
50969924758,7,-5,-3,2,0,1,-13,-6
50969939785,3,-7,-7,-5,-4,-3,1,50
50969939785,0,-5,2,-1,-2,0,19,-11
50969940413,-1,21,8,5,-1,0,-2,-8
50969940413,-10,-33,-9,-4,-3,-4,-22,6
50969953910,-10,2,5,4,1,2,-3,-21
50969953910,2,-9,0,2,2,1,5,11
50969961593,10,25,5,-3,-2,-4,-11,11
50969961593,2,-9,-4,-2,3,2,22,-22
50969977888,-8,6,5,-1,-2,-3,-19,-9
50969977888,28,-22,-5,-2,0,0,-1,3
50969984780,-69,25,0,5,5,1,-6,-27
50969984780,-12,-1,3,-1,-5,-1,3,11
50969999046,18,-12,0,-4,-3,-4,0,-8
50969999046,-16,8,-2,-1,4,4,6,-7
50970007108,30,-30,-6,-1,-1,-1,-1,4
50970007108,-34,33,2,4,4,1,12,12
50970014094,-4,12,9,0,1,-3,-3,-16
50970014094,-19,14,-13,-1,-4,-4,-1,3
50970021410,13,-54,-15,-2,0,-2,32,3
50970021410,-33,3,0,-2,-1,-1,1,-1
50970037944,18,-4,1,-1,-2,0,7,-4
50970037944,0,23,6,-1,2,2,-12,3
50970044687,14,4,-2,0,-4,0,2,0
50970044687,-34,-8,-5,2,-1,-1,-3,6
50970059033,28,12,-3,-1,-2,0,1,-3
50970059033,-37,-21,6,2,-3,-2,-1,-20
50970075438,-14,9,-7,-3,-4,-2,-4,-11
50970075438,33,-13,3,-3,-1,0,-4,-8
50970076869,-15,4,-10,1,-2,-3,-6,1
50970076869,10,-10,1,0,1,0,9,3
50970081562,8,9,9,-4,-2,-1,-12,18
50970081562,8,29,10,2,3,0,-25,-23
50970105419,26,-5,-4,1,1,2,19,15
50970105419,-35,-24,-12,-5,-7,-2,-9,-3
50970106096,-9,0,0,-5,-1,-3,-17,4
50970106096,22,-1,0,0,-5,-4,1,-5
50970119177,-11,5,1,2,5,3,-5,0
50970119177,-8,18,8,-2,2,0,5,-8
50970127074,2,1,8,6,6,4,0,-4
50970127074,2,-22,-13,-5,-8,-3,4,18
50970142040,-14,11,-2,-1,1,0,1,-10
50970142040,-2,-5,7,5,6,1,2,7
50970142808,22,10,-1,0,-2,-4,-11,-7
50970142808,20,38,-2,-11,-3,-1,-1,-1
50970156400,-20,-56,-14,-4,-1,-3,-2,-15
50970156400,24,-4,8,-3,-4,-1,5,13
50970164651,-19,2,-3,7,3,2,16,3
50970164651,35,-5,0,0,3,0,-14,2
50970178955,-28,18,5,-1,-1,2,5,-20
50970178955,13,-6,-5,1,3,1,1,1
50970187082,15,3,-8,-4,-3,-3,1,-6
50970187082,-18,-19,-2,0,-5,-3,4,2
50970202613,3,7,1,-1,2,-2,-14,27
50970202613,12,-5,-5,-1,-2,-2,8,-32
50970209741,-42,-15,7,-1,1,0,9,-3
50970209741,12,17,-11,1,-3,-1,8,5
50970216513,-21,-37,-10,-3,-6,-3,-10,1
50970216513,14,-3,1,-1,-1,-3,-5,0
50970224589,-1,5,-3,-6,-5,-1,-7,0
50970224589,-8,-13,2,3,5,2,-6,-7
50970239056,9,16,5,-4,-6,-2,5,12
50970239056,8,22,2,-1,-1,-3,-28,13
50970254640,17,3,-5,-1,0,1,31,9
50970254640,-30,-12,5,3,4,-1,4,3
50970262923,46,6,-8,-5,-2,-3,-10,-5
50970262923,-6,-12,0,-5,-8,-2,-5,-12
50970263743,7,10,4,2,1,-3,-16,13
50970263743,3,-2,-2,-2,-1,1,20,2
50970277037,-5,7,-1,-1,-3,-1,-3,1
50970277037,14,-25,-9,-3,0,0,11,4
50970292201,10,-9,1,-1,1,-3,-9,-24
50970292201,0,-5,5,-4,-4,-2,1,8
50970299105,-10,5,3,2,4,0,-3,1
50970299105,7,13,-3,-1,-2,-2,9,25
50970307138,-17,6,-1,-3,-4,1,-2,-11
50970307138,4,-2,2,0,2,0,-4,-4
50970322860,-8,5,11,0,-1,0,25,1
50970322860,-8,1,-4,2,-3,-1,-5,16
50970323583,-12,-17,-12,-1,1,2,-4,9
50970323583,11,0,1,1,-1,0,8,-12
50970336583,11,3,-3,1,-9,-3,-11,-13
50970336583,-13,-9,-12,-4,-5,-4,6,-2
50970344642,-10,0,4,2,1,0,-21,-11
50970344642,27,-6,3,-2,-4,-3,0,23
50970359059,-16,-12,-10,-1,1,-2,-6,-6
50970359059,12,26,4,-2,0,-1,-5,-12
50970367214,-1,-8,-1,5,2,0,-6,-12
50970367214,5,6,1,-9,-8,-3,-3,-4
50970382962,-5,18,3,-3,0,-1,-10,-2
50970382962,0,-19,-5,-2,-2,1,0,0
50970383733,6,11,-4,4,7,2,-5,-7
50970383733,0,-8,-6,2,3,4,-3,-16
50970396561,-40,-18,-4,-9,-9,-4,23,0
50970396561,17,0,0,-2,0,0,-5,3
50970405401,-25,35,2,-3,-4,-2,-2,10
50970405401,-14,-41,-13,-1,1,-1,-10,-18
50970427776,11,5,-3,5,1,-2,-11,-1
50970427776,-27,3,-3,2,4,-1,3,-43
50970429310,14,-13,8,-7,-7,-3,-6,9
50970429310,4,30,4,-2,-2,-1,0,9
50970441489,-12,-3,1,1,4,1,-9,3
50970441489,-1,-20,-7,-2,-5,-4,-7,-9
50970450337,6,7,2,1,-2,-1,0,16
50970450337,-34,10,-1,4,5,3,6,-22
50970456396,33,-12,1,-3,-1,-2,-24,-20
50970456396,9,-8,-5,-5,0,-1,-22,24
50970465280,-1,-1,0,-1,-2,-3,-4,-19
50970465280,0,16,2,3,2,-2,-2,18
50970487768,-4,1,-1,-2,-2,-2,-1,5
50970487768,2,-13,-5,-4,-3,-1,4,-3
50970489356,-1,-3,2,1,1,-1,2,-7
50970489356,-7,-8,-3,-3,1,-2,-8,6
50970501348,-1,5,-6,-1,-3,-1,2,-3
50970501348,11,6,1,0,-2,-1,12,4
50970510371,-33,-13,-1,-5,-2,-1,3,7
50970510371,-3,19,8,3,4,1,-1,-10
50970516363,-6,2,4,-1,1,1,3,6
50970516363,-5,-11,-6,-2,-1,0,0,-6
50970525462,8,-3,-4,-6,-2,-2,8,8
50970525462,6,-18,-7,2,1,-1,2,-1
50970539057,-6,18,9,2,2,2,5,13
50970539057,20,11,8,2,4,-2,3,-5
50970547895,16,-11,-3,8,3,2,0,29
50970547895,-3,-3,5,-5,-6,-2,2,0
50970561539,11,-5,-7,-3,0,0,5,-10
50970561539,-11,5,10,-2,-1,-1,1,-15
50970571019,-9,26,9,-3,0,-1,1,-3
50970571019,50,-31,-15,-4,-1,-1,0,8
50970576568,-69,-1,-2,7,2,1,9,-8
50970576568,14,-14,-8,-3,-4,-1,4,12
50970585378,26,3,2,-1,-1,0,0,-14
50970585378,-58,29,10,1,-1,1,-10,11
50970598897,14,-37,-13,-2,-5,-2,1,7
50970598897,-6,13,2,1,1,0,-2,-4
50970607878,-6,1,-8,1,0,1,-1,-5
50970607878,16,-15,4,-1,0,-1,-5,-6
50970621553,7,3,-2,-4,-1,-2,-28,14
50970621553,-44,14,2,4,0,1,5,4
50970637037,22,-1,5,-8,-8,-3,-8,-14
50970637037,-2,13,-4,-3,-5,-6,0,-8
50970637864,-13,-19,-2,1,3,2,-2,11
50970637864,33,12,-4,5,4,1,-7,-7
50970645409,-13,-15,-1,-4,-4,0,11,1
50970645409,-1,16,4,0,-1,-3,-1,1
50970658921,6,-2,5,1,1,0,0,4
50970658921,4,-4,7,-3,-2,-1,-5,4
50970667844,-6,12,-6,-3,-5,-3,3,-1
50970667844,-3,-9,-6,-1,-2,-1,-3,-19
50970681380,28,-4,1,-3,-3,-2,-2,-3
50970681380,-60,0,1,-1,0,-2,6,6
50970690328,1,-28,-10,-2,0,-2,0,-4
50970690328,2,22,1,1,-1,2,6,6
50970705401,-1,-8,-3,1,2,0,-2,-16
50970705401,12,-10,-3,-5,-3,-2,-7,-17
50970706825,-5,-6,-2,-1,-2,-1,-2,26
50970706825,-38,-8,-4,2,1,-2,0,-11
50970718902,14,20,7,7,1,2,17,-2
50970718902,-1,-12,-1,-3,-2,-1,-2,4
50970727905,-24,3,2,-3,-3,-4,-3,-10
50970727905,15,-2,-2,-3,0,-1,6,-27
50970741462,-9,1,3,1,-1,-1,-7,-8
50970741462,10,8,-1,-1,1,1,6,16
50970750397,-2,1,-10,3,2,-2,-12,-2
50970750397,3,-8,-2,-2,-3,-1,-1,10
50970756561,-7,-1,1,-3,-2,-3,26,-5
50970756561,35,-16,-5,0,0,0,-9,-24
50970765405,-34,3,9,-1,0,-4,-7,9
50970765405,5,-7,-2,-2,-1,1,19,23
50970778913,-2,6,-2,-2,-2,-3,-10,12
50970778913,27,24,4,-4,0,2,-6,-6
50970787915,-6,-69,-12,-1,3,1,0,-12
50970787915,9,-1,-3,3,2,-1,-9,3
50970810376,-11,11,6,0,-1,-1,-6,-10
50970810376,-6,22,2,5,1,-2,10,12
50970811840,12,24,7,-8,-7,0,-9,-20
50970811840,11,-25,-5,-2,-1,-2,-3,10
50970816518,-41,-13,-5,-3,-1,1,-2,7
50970816518,-13,11,8,1,-1,-1,7,-10
50970825308,24,14,3,2,1,1,7,8
50970825308,9,9,-9,-3,-3,-2,-3,-1
50970839031,7,-10,-6,-2,-3,-1,-12,11
50970839031,10,-10,-3,-1,0,0,-4,-14
50970847830,-59,0,3,-1,-3,-2,-1,-2
50970847830,5,17,4,0,2,1,3,7
50970862240,20,7,-4,-1,2,-1,-5,-2
50970862240,-18,-23,-11,-2,-3,-3,-6,1
50970876385,31,-3,-5,-2,-5,-6,-3,-20
50970876385,-3,25,1,-1,1,3,-2,16
50970885354,-6,-13,-5,0,-4,-2,2,-3
50970885354,17,-18,-3,1,0,-1,-4,8
50970886849,5,5,-3,-1,2,1,2,2
50970886849,-17,0,5,1,-1,-2,6,-11
50970899014,21,1,-5,-3,3,1,-3,-1
50970899014,-3,1,2,1,-3,-1,-7,3
50970907908,-5,11,-7,-2,-1,-1,13,3
50970907908,-6,-46,-7,-4,-2,-3,-18,-1
50970922083,9,10,1,-4,-1,-2,17,1
50970922083,-8,-4,1,-1,-1,-3,-38,-11
50970928820,9,11,-6,-2,1,2,-6,4
50970928820,1,-14,8,3,3,-1,-8,-20
50970936557,-10,-9,-4,-5,-7,-3,16,-14
50970936557,-16,-2,-3,-1,0,0,-19,6
50970945403,35,-1,5,7,1,-1,18,-11
50970945403,-1,14,-1,-9,-9,-4,-28,-7
50970959118,3,-9,-3,2,-1,-1,-2,1
50970959118,1,4,-4,-3,-2,-2,13,0
50970967867,-1,-3,2,3,2,1,-11,0
50970967867,11,-13,-2,3,0,1,-7,-3
50970982138,4,50,6,2,0,-1,-9,1
50970982138,-6,-5,-6,-3,-4,0,35,14
50970989070,-11,-57,-3,0,0,1,8,2
50970989070,-16,-7,-4,-4,-1,-4,-4,0
50970996465,8,4,13,2,1,1,1,-1
50970996465,-3,10,-7,2,-1,-2,-9,-4
50971005385,-1,16,-2,-4,-3,-1,0,2
50971005385,6,-3,-5,-3,-5,-2,11,1
50971019012,2,-13,2,-2,0,-1,-3,-3
50971019012,2,2,4,-5,0,-2,5,3
50971027869,-6,5,0,6,-2,-2,-2,-8
50971027869,1,-3,0,-3,0,0,0,2
50971042165,-2,-4,0,-2,-1,-1,4,16
50971042165,-14,0,3,2,2,1,0,1
50971048798,-5,7,-1,-4,-1,-2,-6,2
50971048798,6,21,-2,9,1,0,9,15
50971056326,-5,-9,-2,-8,-10,-9,-32,-44
50971056326,-2,-17,-3,0,3,2,15,35
50971065346,8,-1,-8,-3,-7,-2,-5,-12
50971065346,-2,-10,-2,5,3,-1,5,9
50971078798,-4,-3,5,-2,-3,-1,-6,-23
50971078798,28,25,0,0,-3,0,2,-8
50971087848,-3,4,1,-1,6,-1,8,-3
50971087848,-5,0,-8,-5,-4,-3,-10,-18
50971102004,-11,-20,-8,5,1,0,17,19
50971102004,18,-2,2,-3,-2,-2,-4,-8
50971108808,1,11,7,-2,2,1,-4,12
50971108808,-8,-2,2,2,1,0,6,-4
50971125170,2,20,2,-2,4,1,12,6
50971125170,-8,-7,0,-1,-8,-3,-1,-11
50971126802,-18,-7,-3,-3,-3,-2,-16,8
50971126802,11,4,7,-1,0,0,14,3
50971138834,18,-20,-11,-3,-1,-3,-5,7
50971138834,-12,7,5,0,-1,-2,-10,-6
50971155364,1,7,-4,-2,-1,0,4,-9
50971155364,5,-16,-9,-4,-3,-3,-14,-6
50971161984,14,3,-5,1,-1,0,29,28
50971161984,-13,8,0,-2,5,0,-7,-18
50971168815,6,-17,1,2,-3,-1,-16,3
50971168815,-13,3,2,-4,0,0,-7,-10
50971192679,9,20,-1,2,1,0,1,-3
50971192679,-16,-14,-9,-5,-4,-1,15,5
50971194294,5,-6,1,-3,3,0,-1,3
50971194294,-8,3,12,5,1,0,20,-10
50971198793,1,-1,-6,0,-4,1,2,-4
50971198793,-29,24,9,2,1,2,-26,20
50971207848,12,-33,-10,-7,-6,-3,-6,6
50971207848,22,-22,1,0,3,0,6,-1
50971222011,-8,5,-6,3,5,1,-16,-5
50971222011,2,2,0,3,0,-2,20,-14
50971228809,5,12,3,2,1,0,-6,-8
50971228809,-15,-7,-4,-1,-1,-1,-18,11
50971251733,29,9,4,-1,-1,0,-12,-6
50971251733,-15,0,-2,-4,-2,-1,12,-8
50971261011,-8,-22,-8,3,2,0,3,-10
50971261011,-1,17,-1,-9,-6,-4,1,-7
50971261820,-8,-20,-4,-3,-4,1,-7,-9
50971261820,13,5,2,-1,2,0,-5,-4
50971267796,-6,-1,1,1,-1,-2,-1,-3
50971267796,-8,24,3,3,5,2,0,10
50971281989,39,-15,2,0,-2,1,13,-18
50971281989,-32,-4,-4,-7,-6,-3,-24,13
50971288842,-1,-4,4,-2,-5,-2,-5,0
50971288842,0,-1,0,0,-1,-1,2,19
50971305190,-12,-1,-7,0,2,-2,-2,6
50971305190,23,5,-4,2,0,1,14,7
50971306815,1,22,9,0,0,-2,2,3
50971306815,-2,2,-4,-2,-4,-1,2,-18
50971327663,2,8,4,-1,1,0,0,18
50971327663,-60,-29,-15,4,0,-2,-1,-16
50971329300,-5,-18,-13,-12,-7,-3,0,-8
50971329300,3,0,1,-3,-2,-1,2,-11
50971342022,-19,6,5,-1,-1,-2,-10,-3
50971342022,24,-10,-2,0,1,-4,-1,-4
50971348779,8,23,6,5,4,1,4,-7
50971348779,-19,-23,-4,-2,2,0,-10,7
50971365168,11,14,3,-2,8,1,-17,13
50971365168,-5,-17,-1,0,-10,-3,-3,2
50971366770,-35,0,2,3,2,1,5,7
50971366770,14,2,3,-8,-10,-5,-6,9
50971378832,-19,17,7,0,0,0,-2,1
50971378832,15,-2,1,-1,3,0,-5,-3
50971387800,2,-2,-5,0,4,1,7,8
50971387800,-5,-10,-13,2,-2,-3,4,5
50971402026,20,8,0,0,-3,0,6,-1
50971402026,-54,-4,-2,0,1,-2,-10,-5
50971408833,14,-1,1,-5,-4,-2,-2,-11
50971408833,-2,15,-2,0,4,2,4,-3
50971425169,4,-20,-8,-3,-3,-3,0,14
50971425169,21,-4,1,0,1,-2,4,-5
50971426794,4,4,9,-1,-1,1,-3,7
50971426794,-1,7,2,0,-1,-1,3,-5
50971438803,-18,-5,-2,2,-3,-2,6,-5
50971438803,18,-4,-4,-5,3,1,1,1
50971447836,0,7,2,4,-2,1,-1,-3
50971447836,2,-2,6,2,2,2,-10,-8
50971462048,-18,-10,0,-3,-2,-2,-3,-3
50971462048,8,-13,2,-2,-1,0,2,-14
50971468808,19,7,-5,0,-2,-3,1,-10
50971468808,2,-7,-5,3,2,0,10,25
50971485310,-18,5,2,-2,0,0,7,-15
50971485310,11,-5,-7,-5,-4,-3,-13,14
50971486770,8,4,-10,-9,-7,-4,3,0
50971486770,-47,-3,1,0,0,-3,-7,-6
50971498935,-18,-4,-6,-3,1,2,-8,-12
50971498935,19,1,6,2,-1,0,8,-1
50971507850,-1,0,0,-4,-1,-2,9,18
50971507850,16,-6,-10,-1,1,0,-10,-10
50971530283,9,21,1,-1,-4,-4,9,3
50971530283,2,-4,0,5,7,5,8,-6
50971531840,13,0,-1,-2,1,0,-31,-5
50971531840,5,-13,-4,0,0,-3,26,6
50971545269,-13,-6,1,-1,-5,-2,0,-6
50971545269,23,23,5,0,-4,0,6,0
50971546819,-16,6,0,2,4,3,16,-1
50971546819,4,-26,-8,-6,-4,0,-14,-2
50971558919,-5,-9,-5,1,2,-1,3,7
50971558919,-3,5,-3,-8,-7,-4,-9,-14
50971567857,-2,-13,3,3,5,0,-2,19
50971567857,-4,22,5,-1,-2,2,-4,-22
50971582148,4,-7,-5,0,-3,-1,-4,4
50971582148,1,-3,-4,0,2,0,-7,-6
50971588966,-8,-24,-3,-7,-5,-5,-2,-6
50971588966,16,-2,0,0,-1,-3,-2,-13
50971605295,-5,-4,1,-2,-3,-2,-16,9
50971605295,0,-6,3,3,2,1,0,7
50971606810,17,6,0,-1,-1,2,0,-4
50971606810,-6,4,-4,-5,-5,-3,3,7
50971618941,4,-8,2,-3,0,0,9,-21
50971618941,0,10,2,1,-2,-2,8,7
50971627886,4,15,-2,2,2,-1,-17,1
50971627886,-6,-29,-1,1,3,0,-24,0
50971642160,8,-2,-1,-2,0,0,-13,-1
50971642160,-49,6,-1,-3,-4,-2,12,-1
50971648962,-1,3,0,0,-2,-2,-4,10
50971648962,24,7,3,-1,-1,-1,-1,-15
50971665357,-17,-7,-4,0,2,-2,-3,-26
50971665357,18,-1,-1,-7,-4,-3,-15,12
50971666828,-9,9,4,-2,-1,2,7,0
50971666828,-19,-3,1,0,0,1,18,13
50971678906,19,10,11,6,0,1,1,0
50971678906,3,-23,-9,-2,0,-1,31,7
50971687814,-14,-10,-11,-5,-4,-2,-1,-5
50971687814,8,17,7,-1,0,1,2,2
50971710352,-3,19,-1,-2,0,-1,-1,9
50971710352,0,-21,3,-1,0,-3,-4,5
50971711852,-2,12,1,1,-2,-1,-4,-15
50971711852,-11,-20,-15,-4,-4,-2,2,1
50971725319,-11,-4,-2,-4,-4,-3,-7,-4
50971725319,0,5,1,0,0,-1,-14,1
50971726938,2,-9,-2,1,2,1,-1,-5
50971726938,23,29,1,1,-1,-1,-9,-12
50971738880,-15,-15,-6,-5,-5,-2,-9,8
50971738880,18,0,0,2,3,0,3,7
50971747977,-7,-7,0,-3,-1,1,1,-10
50971747977,-18,10,5,-4,-2,-3,-9,-5
50971762136,2,-10,-7,-3,-1,-1,-23,-3
50971762136,23,17,5,2,0,0,-9,-11
50971776496,-20,-10,1,4,1,0,7,-7
50971776496,-2,5,0,2,-1,-2,-19,1
50971785362,-22,-10,-1,0,2,1,4,-18
50971785362,-6,8,2,-5,-8,-3,-9,0
50971786803,17,16,1,1,0,-1,-5,-9
50971786803,-13,-35,-13,-3,-1,-1,12,6
50971799014,19,-3,6,0,5,-1,7,13
50971799014,-12,10,-13,1,-2,-3,-5,-1
50971807823,-12,-12,-8,0,-2,-2,5,-6
50971807823,7,-9,1,-2,2,-1,10,-2
50971822130,4,-3,-6,-3,-1,-2,-3,-4
50971822130,6,-8,7,1,1,1,6,5
50971829036,-3,10,0,1,0,-2,-1,-3
50971829036,9,-2,-4,-5,-7,-5,-8,12
50971844687,-7,-15,-2,-2,0,1,6,-19
50971844687,-9,3,-2,-3,-5,-3,-6,0
50971851556,4,-12,-8,0,3,-2,-12,-10
50971851556,3,15,4,3,2,1,-13,1
50971859074,0,17,-1,-1,-2,-1,9,15
50971859074,32,-14,-3,1,0,0,1,-20
50971867788,-29,-12,1,-7,-8,-3,-10,7
50971867788,-7,12,-2,1,1,0,11,0
50971882121,9,6,-7,2,-2,-2,-8,5
50971882121,0,13,7,1,2,0,-22,1
50971889032,-9,-2,4,-1,1,1,25,9
50971889032,12,22,-1,2,-2,-1,-1,6
50971912852,-15,-21,-4,3,2,1,4,-1
50971912852,-6,-1,-5,-3,-2,1,-1,4
50971914300,0,0,2,1,1,-1,6,-8
50971914300,2,8,4,4,1,-1,8,-14
50971919024,1,9,2,-1,-3,-2,7,10
50971919024,-1,-6,-1,-4,-3,-1,-4,-3
50971927853,11,-9,1,-4,-2,0,4,19
50971927853,-4,-29,-6,-7,-2,-1,-1,-5
50971942181,12,9,2,-2,-3,-2,-9,0
50971942181,-42,-6,-2,-2,1,-2,11,3
50971949008,9,26,7,2,1,-1,-5,-3
50971949008,-11,11,0,1,6,3,-14,0
50971964699,0,-3,5,-2,-3,-3,24,4
50971964699,29,-9,-6,-1,-1,1,-2,6
50971971475,-22,11,-2,5,2,-2,-13,-31
50971971475,-6,-9,5,-6,-6,-2,7,5
50971978931,10,8,1,-1,0,0,-3,-6
50971978931,3,-39,-8,0,1,-1,2,7
50971987817,2,18,8,6,-4,1,-21,18
50971987817,-6,-23,2,-2,0,-1,10,-5
50972002207,3,1,-3,-1,-2,-2,-5,8
50972002207,-11,10,-4,1,0,0,6,-36
50972008927,20,-15,-8,-6,-2,-2,-8,10
50972008927,-12,-4,0,4,2,1,-4,-10
50972024565,4,14,9,-2,-5,-1,-5,11
50972024565,7,33,6,-2,0,-1,-4,-4
50972031485,-31,-54,-16,-4,-3,0,7,-4
50972031485,8,10,-3,-3,-7,0,-3,-8
50972046909,-15,-24,-10,-4,1,-2,5,0
50972046909,5,4,4,1,2,1,3,8
50972055500,9,15,4,0,0,-2,-9,-3
50972055500,-19,15,5,-1,-5,-3,5,18
50972062156,-14,-20,-3,0,-2,0,-2,-6
50972062156,25,11,0,-3,0,-1,-8,2
50972068904,-12,-1,3,0,-1,-2,-8,-3
50972068904,-6,-17,-11,2,4,2,20,-1
50972084699,11,15,-1,1,0,-1,-1,9
50972084699,-12,-18,-4,-5,-7,-5,5,8
50972091507,3,-8,-2,-4,-1,2,1,-9
50972091507,17,7,1,0,-1,-3,-22,-3
50972107721,13,24,-2,3,3,1,6,-14
50972107721,-55,-52,-5,-2,0,1,-3,-3
50972109340,5,10,-10,0,-3,-3,3,10
50972109340,-1,11,2,-2,3,0,-6,-3
50972122050,-4,-19,-7,1,-2,1,-5,3
50972122050,-2,19,5,-5,-3,-3,-3,-3
50972129043,4,0,0,4,0,-1,12,6
50972129043,31,1,0,2,1,0,-2,-17
50972144704,-4,17,1,1,0,0,-5,-4
50972144704,-5,6,4,0,1,1,-16,10
50972151515,-1,-20,-2,-3,-1,-2,9,-18
50972151515,8,14,2,-1,-1,-1,-7,3
50972167874,-12,-18,0,-1,0,1,6,10
50972167874,3,13,0,2,0,0,-16,10
50972169298,8,9,-12,-2,-1,0,16,-33
50972169298,10,-39,-6,1,-2,0,-14,15
50972182169,-10,1,-1,-2,1,-2,-6,-13
50972182169,1,5,-2,-1,-5,-3,2,3
50972188901,8,1,5,-1,1,-2,4,-13
50972188901,-14,-2,-5,-2,-3,-3,3,7
50972204569,11,-6,-3,-4,-2,1,-18,3
50972204569,10,27,11,5,2,2,16,-1
50972211500,-9,4,-2,2,-2,-2,-3,16
50972211500,2,-17,1,-1,-3,0,10,4
50972227841,-9,-4,-1,4,2,1,3,-15
50972227841,4,19,-2,6,6,4,-2,1
50972229279,7,-7,3,-16,-10,-5,-6,20
50972229279,-15,14,4,2,1,-1,-11,-13
50972242049,0,-6,3,3,0,-1,10,-6
50972242049,-11,-25,-15,3,0,-2,11,1
50972248822,-1,6,10,0,-1,1,-10,2
50972248822,3,10,-3,-3,-3,-1,-4,6
50972264588,0,2,5,-2,1,-3,1,-5
50972264588,8,9,-7,0,0,0,-4,-4
50972271508,-7,-17,-10,-2,4,3,-4,0
50972271508,-6,-8,-5,-12,-11,-7,1,1
50972295488,-6,4,-1,-4,-6,-2,9,14
50972295488,-1,-20,-3,-3,-1,-4,-17,-11
50972296777,5,13,2,1,1,-2,-2,2
50972296777,-9,-2,-5,2,4,0,-2,4
50972302222,29,1,0,1,0,1,6,-29
50972302222,-20,-6,-6,-6,-7,-4,-7,-4
50972309004,4,6,3,-3,1,0,-1,6
50972309004,22,4,6,2,4,2,6,-7
50972324756,-3,11,-3,-3,-4,-2,-18,14
50972324756,4,10,9,-2,-4,-3,-1,-3
50972331542,-3,-19,-7,4,2,1,-1,-5
50972331542,-10,-4,-1,2,-1,-2,-21,-1
50972347842,-3,7,-2,-1,2,-1,-5,4
50972347842,2,-7,-3,-2,-4,-1,24,-7
50972349286,-3,3,-1,-2,-1,-1,-1,30
50972349286,-9,4,-11,-3,1,-4,-5,-16
50972362208,10,-25,0,-4,-4,-1,-8,2
50972362208,-64,21,4,5,2,1,-2,-8
50972368991,8,-23,-12,-6,-7,-4,5,1
50972368991,-4,-5,2,-5,-1,-3,0,6
50972384704,2,1,-2,0,2,-1,-3,-8
50972384704,29,11,4,1,2,-1,-11,-13
50972391503,-65,-4,-7,-3,-5,1,16,18
50972391503,9,1,1,3,1,0,4,4
50972407748,-7,-8,-4,-4,-1,-2,2,-8
50972407748,11,-8,2,-1,2,0,-2,-1
50972409292,27,20,10,4,4,1,-3,-2
50972409292,-31,-4,-5,-4,-5,-3,-1,-17
50972422152,-21,-9,-2,-1,1,-2,3,1
50972422152,9,-14,1,-3,0,1,6,11
50972428865,18,15,5,1,-1,0,-8,-20
50972428865,0,7,4,-1,1,0,11,8
50972444749,3,8,-4,2,-5,-1,-7,3
50972444749,-1,-32,-5,-1,-1,0,8,-3
50972451448,7,3,2,2,-1,-1,-10,0
50972451448,2,-5,0,-1,-1,1,0,0
50972475291,9,5,0,-4,0,-1,-6,-2
50972475291,-51,-3,-7,-7,-6,-2,-4,-15
50972476799,0,-13,-2,-3,2,0,-9,2
50972476799,1,-5,-3,3,0,1,7,2
50972482206,28,21,3,3,2,0,8,17
50972482206,26,7,-1,-1,0,1,-7,-1
50972488976,2,-26,-2,-1,-2,-3,5,-17
50972488976,-10,2,-4,-4,-2,0,-1,-2
50972504634,-8,-19,-3,-3,-2,-2,-1,6
50972504634,10,13,0,-2,0,2,-5,13
50972511494,-11,9,3,1,1,-2,-13,-31
50972511494,14,-2,0,0,-1,0,16,26
50972527802,-21,-7,-4,2,1,0,2,0
50972527802,11,1,-7,-1,-1,-1,-1,8
50972529293,3,3,2,-1,-1,-2,-13,-4
50972529293,-10,-2,0,-4,1,0,-19,-3
50972541388,-11,-16,-1,-2,-2,-3,-6,-6
50972541388,1,0,-1,2,2,0,-2,-2
50972550269,6,5,3,0,3,-2,4,6
50972550269,3,3,-2,-3,-1,1,9,-15
50972572815,-7,-4,2,-4,-5,-2,-2,-9
50972572815,16,21,2,3,-1,1,-1,4
50972574319,-2,-17,-8,0,1,0,6,1
50972574319,1,2,6,-1,-1,-2,4,4
50972587859,-6,8,1,-4,-3,-1,9,6
50972587859,14,-8,-1,2,-2,-2,16,9
50972589313,-36,14,-3,-1,1,1,18,9
50972589313,-27,-2,1,-1,-4,-2,-16,0
50972601308,-3,-16,-8,-3,1,0,13,-4
50972601308,14,6,1,1,0,-1,-8,-2
50972610318,14,30,1,0,-1,0,1,27
50972610318,-5,-19,-6,-1,1,-3,6,-17
50972624679,7,-7,-7,1,0,0,-18,0
50972624679,-9,16,2,-3,-1,-3,13,5
50972631532,2,-20,-5,-3,-4,-4,-19,10
50972631532,7,-2,0,-2,-3,-1,4,0
50972647847,16,24,6,3,-3,-1,-1,-6
50972647847,-38,-32,-6,0,0,-1,-7,-11
50972649274,2,9,-3,-2,-1,3,11,19
50972649274,13,16,13,0,0,1,2,-4
50972661437,-3,-6,-8,1,3,0,2,-1
50972661437,3,-2,4,-2,-1,-2,-12,-10
50972676528,30,-9,-2,-1,-1,-2,0,-13
50972676528,2,4,-8,3,0,1,-3,-5
50972684699,0,13,2,-1,-1,-1,-6,16
50972684699,-1,-26,-7,-2,-1,-2,4,-7
50972691380,22,-2,3,-1,-2,-1,-5,-12
50972691380,11,4,2,-2,-2,0,0,-12
50972707841,-14,5,6,0,1,-1,-16,-19
50972707841,12,12,-4,-3,-2,-3,9,-19
50972709251,-5,-5,2,3,-1,3,1,-7
50972709251,-7,-11,-4,-3,1,0,-8,18
50972721489,2,-7,-5,-4,-2,-1,5,-1
50972721489,11,-2,1,0,0,2,-11,-11
50972730273,-9,5,-4,0,5,0,1,5
50972730273,-13,-3,-2,0,-5,-4,-6,-9
50972745053,8,-39,-8,-6,-8,-3,10,4
50972745053,23,-7,6,1,1,2,-7,6
50972751531,-44,6,-4,-2,-3,-3,-7,-14
50972751531,14,14,2,1,3,1,0,5
50972767872,-12,8,7,0,-2,-1,-3,-4
50972767872,6,-3,-6,-1,2,-1,6,-5
50972769311,11,7,4,1,2,0,17,-3
50972769311,5,-8,-2,4,-5,-2,-6,-18
50972781473,-2,14,2,0,1,-1,2,-4
50972781473,-8,7,1,-4,-6,-4,3,13
50972797767,1,-9,3,-4,-1,-1,-11,-10
50972797767,22,-12,-12,-3,-3,-1,1,-9
50972804694,-36,-31,-9,3,-3,-3,-20,20
50972804694,-5,20,7,-1,-2,1,27,9
50972811312,2,-24,-8,-6,-8,-6,-4,10
50972811312,-8,0,0,2,4,1,-10,-5
50972827170,18,13,5,4,6,2,5,-5
50972827170,-3,-2,-6,-7,-7,-4,-11,0
50972833921,0,5,4,4,1,2,-1,2
50972833921,-12,-9,0,-2,1,-2,3,-3
50972841516,-5,2,1,0,-1,-1,1,-6
50972841516,-8,12,8,4,3,0,-18,13
50972857775,7,-13,-22,-5,-6,-2,-2,-16
50972857775,15,2,-2,3,2,0,14,9
50972864681,6,15,8,-1,-2,-4,-5,-5
50972864681,2,-18,-6,0,-4,-7,-8,-3
50972871269,-7,0,5,-3,8,2,-1,4
50972871269,3,-20,-15,-1,-15,-5,0,6
50972887251,-1,22,12,1,8,1,-10,0
50972887251,-46,-32,-11,-7,-7,-3,2,-1
50972893979,11,0,7,-3,-3,-4,-5,-6
50972893979,-5,-3,0,-2,6,1,3,-3
50972901338,11,13,5,-2,-4,-2,-3,-10
50972901338,-5,10,-3,2,2,0,-8,1
50972910264,18,2,-10,-1,-2,-2,-1,3
50972910264,-9,16,7,-6,6,3,1,11
50972924620,-94,-6,-10,-2,-6,-2,-10,-29
50972924620,28,1,4,-2,1,2,-8,1
50972931500,18,3,-2,1,4,5,14,10
50972931500,2,11,5,-4,-1,-3,1,-3
50972946815,27,-12,-13,0,-1,1,6,-5
50972946815,-46,-13,-1,-4,-4,-6,9,37
50972955304,-1,24,9,3,1,2,-4,-10
50972955304,-3,-12,-4,1,-4,-1,2,-14
50972970178,-3,0,-4,-3,2,0,-1,2
50972970178,4,-5,1,1,0,0,-22,-16
50972971783,-5,-7,-1,5,1,-3,-6,-6
50972971783,6,11,9,-2,-6,-4,5,-1
50972984573,20,9,-4,-1,2,2,11,6
50972984573,-35,1,-3,-1,3,3,2,-10
50972991480,-35,0,4,0,1,-2,-7,-10
50972991480,9,-13,-8,-3,-4,1,9,-6
50973007190,21,-2,3,-6,-4,-4,0,13
50973007190,21,4,0,-1,2,-2,17,-24
50973013925,-7,6,2,5,0,0,-11,-9
50973013925,-8,-6,-6,-3,0,3,24,7
50973030346,11,-9,2,1,7,9,-2,-10
50973030346,12,4,-8,-3,6,1,9,7
50973031754,-1,-3,-2,-5,-9,-11,10,-3
50973031754,13,9,7,5,-25,-6,-3,14
50973044578,-66,3,-3,1,14,12,-8,0
50973044578,23,2,3,5,9,7,4,21
50973051492,-29,-15,-4,-6,0,-3,-4,-6
50973051492,-4,-2,-8,-7,-2,-11,-23,20
50973075344,-2,-12,-5,-1,-9,-7,6,1
50973075344,9,-3,9,0,-3,-8,-14,1
50973076781,4,-2,-7,0,-17,-1,9,9
50973076781,38,4,5,5,-14,7,-6,-8
50973090340,-30,2,4,9,45,19,7,2
50973090340,-9,-5,-6,-7,-1,-1,-5,-2
50973091757,27,15,4,0,5,-1,21,6
50973091757,-21,-15,2,1,-3,-11,-7,-26
50973104611,20,4,-3,-4,-16,-9,2,12
50973104611,12,-21,-7,0,7,4,-10,-2
50973111464,-15,13,-2,-6,-4,-5,-3,-9
50973111464,-18,5,4,-1,5,0,-4,-2
50973127187,28,-6,-2,-4,-7,-5,-1,-1
50973127187,-33,0,1,2,-5,-2,4,-5
50973133887,-26,9,1,-7,-5,1,-4,3
50973133887,6,2,-5,8,21,3,-5,5
50973150314,-1,-15,-3,-12,-12,-7,-4,-26
50973150314,5,-21,-15,-6,-8,-6,4,3
50973151729,22,5,4,0,0,0,-24,0
50973151729,-18,0,0,-7,2,-2,3,-6
50973164689,32,10,9,4,-9,-5,1,12
50973164689,-27,11,0,2,2,11,1,2
50973171531,-4,-13,-1,-1,16,2,0,-9
50973171531,7,4,1,4,9,-2,-10,-10
50973187798,37,-4,-2,2,-23,-3,7,16
50973187798,-9,-6,1,-3,10,5,14,-3
50973193967,33,0,3,6,2,-2,-4,9
50973193967,-38,-3,-6,-2,1,3,3,-20
50973210161,-1,-5,-2,-2,0,-7,-12,-3
50973210161,29,29,11,3,-7,-2,-5,7
50973211735,-18,-32,-10,1,-4,-2,-1,-21
50973211735,11,-4,3,4,2,0,-4,29
50973225282,-4,32,-2,-6,-17,-5,0,-7
50973225282,-8,-23,1,-1,0,1,-5,-6
50973231454,14,-12,-2,-4,-1,-2,3,2
50973231454,-1,3,3,0,0,0,-2,16
50973246480,-11,-2,5,1,11,3,-4,20
50973246480,20,12,-2,1,-8,-9,5,-10
50973253988,-11,9,4,-5,-3,4,-4,3
50973253988,22,-10,-1,-3,-3,1,-15,-20
50973269588,-22,0,-3,2,3,1,47,14
50973269588,13,4,-5,-3,-4,-4,-14,5
50973270291,15,6,4,-2,2,-1,0,20
50973270291,13,5,0,-4,-10,-7,-5,-9
50973285272,-31,-38,-13,3,6,-3,-12,-18
50973285272,4,4,7,-1,-7,-3,0,-9
50973307726,9,5,1,-2,-10,-3,5,1
50973307726,14,5,-4,2,7,5,-4,5
50973309229,-13,-14,-4,-3,0,-1,-2,-7
50973309229,0,3,4,1,-3,-3,-9,-7
50973313871,1,7,-2,3,0,1,-3,1
50973313871,-10,21,10,-6,-3,-3,-13,-7
50973329559,13,-4,-2,1,-1,-1,12,1
50973329559,-3,-14,-5,-2,-6,1,-2,-9
50973330254,-15,11,4,-3,4,2,-2,-10
50973330254,-5,-30,-11,-2,0,-3,-1,-23
50973353454,-11,5,-16,3,-4,-1,-10,-10
50973353454,4,8,11,-6,-15,-7,-15,16
50973354444,33,11,-14,-1,4,-4,11,10
50973354444,-96,-46,-7,1,-5,0,5,2
50973366484,47,2,3,-2,-3,2,-14,9
50973366484,-45,-5,-11,0,1,-1,-4,-5
50973373969,13,3,-4,-1,-2,0,-5,-2
50973373969,8,32,3,-3,-1,-2,-6,6
50973389645,-3,-15,3,-1,-4,-6,-11,3
50973389645,19,4,-2,5,2,-1,7,-5
50973390278,-22,0,-3,-3,-5,-3,-16,-6
50973390278,-4,2,1,1,4,2,33,4
50973405263,-11,9,3,-3,3,2,6,-8
50973405263,14,2,-5,-2,4,2,1,-11
50973411361,11,-8,2,-2,2,-2,1,3
50973411361,23,19,2,3,-10,-4,-12,5
50973426359,-4,-34,-11,-2,2,2,0,15
50973426359,10,3,2,-4,7,3,9,7
50973433926,-12,-9,-5,2,-11,-3,-1,-7
50973433926,34,-4,-3,-1,-2,0,-1,0
50973449375,-4,21,3,-2,2,-3,-4,-10
50973449375,-6,9,-1,0,-5,-1,-4,6
50973450154,-7,-34,-6,1,6,6,2,-6
50973450154,21,5,-5,-3,-2,-5,-1,15
50973465216,18,14,8,4,-4,-2,1,-6
50973465216,-43,-4,-5,-8,-5,-10,-3,-15
50973471314,25,-8,-7,2,-12,-6,-2,-2
50973471314,-7,-3,3,1,15,14,18,14
50973486377,-27,-29,-10,0,9,4,-23,-7
50973486377,51,12,-2,-4,1,-18,-10,3
50973493876,-19,-3,0,-1,-24,-9,2,-5
50973493876,-28,3,6,1,-6,9,-7,-8
50973509529,-44,3,-4,0,25,31,7,20
50973509529,50,3,3,4,10,9,13,18
50973510341,-93,-18,-3,1,8,-8,-14,-14
50973510341,-4,5,0,-10,-22,-16,-8,-30
50973525249,1,11,6,-3,-11,-16,-4,-5
50973525249,18,-3,-8,-5,0,-6,0,2
50973531317,-3,18,6,2,-9,-4,1,3
50973531317,-3,7,1,6,-15,17,14,15
50973546366,39,2,3,-1,40,5,0,-5
50973546366,-5,-25,-5,5,1,3,4,-4
50973553894,-2,-8,4,-3,7,-3,-7,-9
50973553894,-2,14,-6,-5,-1,-11,-5,1
50973569641,40,0,5,-3,-27,-9,-12,-17
50973569641,4,-9,2,-1,11,5,13,5
50973570235,3,5,-11,-3,4,2,-1,5
50973570235,-14,-22,-2,0,6,0,-8,-13
50973585276,-16,6,1,3,-9,-1,8,15
50973585276,-22,-2,-1,-1,-1,2,-1,-11
50973591356,27,15,8,2,5,3,3,6
50973591356,-8,-12,-14,-4,6,-6,-1,3
50973606373,15,18,-3,-6,-9,-7,-2,3
50973606373,-19,0,-1,1,-3,5,1,-5
50973613941,1,-6,0,1,7,0,-1,-11
50973613941,11,-3,-3,-2,-5,-11,-6,-11
50973630965,-15,-16,1,2,-27,-2,0,-1
50973630965,6,15,-2,-1,39,21,11,11
50973631774,-24,4,3,1,7,10,3,15
50973631774,22,-9,2,3,10,-4,5,0
50973645284,-18,3,-5,-1,-11,-12,-3,-6
50973645284,2,4,-1,-2,-17,-6,-10,-17
50973651411,14,1,7,-1,-2,1,-9,-6
50973651411,2,-8,5,-2,12,0,-5,29
50973666496,31,18,-10,-4,-8,-6,47,-26
50973666496,-12,-25,0,1,-15,-6,-10,-5
50973673940,-7,0,-5,-1,9,3,0,-2
50973673940,3,2,0,-3,-2,2,-14,-11
50973689691,-1,-4,-1,-2,0,-5,-7,9
50973689691,-15,-1,-1,-6,-12,-9,-8,4
50973690212,15,-8,-3,-3,-9,-5,14,-28
50973690212,-4,10,5,1,12,10,-29,22
50973705273,-34,4,-12,0,0,0,1,-8
50973705273,-19,2,2,-1,-11,-1,-10,0
50973711347,19,-8,-1,-6,2,1,-3,12
50973711347,31,-1,2,-1,-7,-4,5,-4
50973726499,-6,-11,1,-2,3,-1,-14,0
50973726499,10,26,3,2,6,1,2,9
50973733860,-40,-40,-11,-9,-14,-8,0,-7
50973733860,11,8,-5,2,-3,-5,10,-4
50973750278,11,-6,3,-1,2,2,11,-19
50973750278,-5,14,1,1,-3,3,-23,4
50973756307,3,24,15,4,5,1,-1,-1
50973756307,0,-19,2,-4,8,0,11,8
50973765274,18,0,4,0,-11,-7,-9,9
50973765274,-67,-8,-9,0,0,-4,2,-11
50973771457,12,-2,-6,0,-16,-2,-2,9
50973771457,-15,0,1,5,26,13,10,-1
50973786509,24,1,2,-6,3,-2,-16,5
50973786509,-30,-32,-4,-1,-20,-5,-2,-26
50973793959,19,13,-3,2,24,8,9,19
50973793959,-18,4,3,-4,-12,-5,3,-23
50973808783,17,34,1,5,7,5,1,24
50973808783,19,-31,-6,1,12,-1,5,-10
50973816407,-13,4,-1,-2,-14,-8,14,-1
50973816407,6,-2,-11,-4,-16,-6,5,2
50973825270,-5,-4,7,4,11,5,-6,-12
50973825270,-1,2,3,0,-8,-5,7,3
50973831464,9,12,-1,0,1,0,-4,-2
50973831464,12,-14,3,1,3,-1,-11,5
50973846479,18,-12,-14,-4,-19,-5,1,6
50973846479,-9,-2,-2,0,5,1,2,-3
50973853932,22,-21,-9,-6,-4,1,-4,6
50973853932,-4,17,-2,-2,-1,-5,-6,-11
50973868947,6,-11,-2,-10,-6,-6,-27,-8
50973868947,23,16,2,1,-4,-2,14,-5
50973876473,26,3,1,0,17,-1,-13,-2
50973876473,-56,-43,0,1,-6,0,-2,0
50973885218,-29,3,1,1,10,3,6,-1
50973885218,31,3,-3,0,1,1,-5,7
50973891368,-1,14,3,2,1,4,-4,-2
50973891368,-33,2,-2,-2,-9,-8,-3,-1
50973906456,-9,-11,2,0,12,-2,15,-1
50973906456,10,3,-3,-4,-8,-5,-19,-1
50973913999,26,-3,0,4,-12,3,3,15
50973913999,-30,31,-1,-5,6,4,-2,-14
50973928890,-9,-50,-10,-2,-9,-5,5,-1
50973928890,-29,-3,2,0,9,1,7,19
50973936376,-1,-3,-9,1,-10,-6,-15,7
50973936376,10,-15,-6,3,8,5,12,2
50973960406,4,31,17,-7,-5,-2,-10,0
50973960406,3,2,-1,1,-3,0,-9,-7
50973960876,-5,4,4,0,6,2,-8,2
50973960876,12,8,1,-2,-4,-1,2,3
50973966409,-23,-28,-7,0,-1,-5,-1,1
50973966409,19,-15,-3,-3,1,0,-2,-1
50973973910,33,11,7,0,-11,5,8,11
50973973910,-54,-3,-2,4,21,0,3,-3
50973988939,1,19,7,-1,-1,2,-7,-2
50973988939,25,1,-1,-9,-3,-4,5,12
50973996434,-4,-9,-6,0,-8,-7,19,8
50973996434,10,-10,-4,-1,2,4,-12,-7
50974012115,16,2,4,0,3,0,-22,0
50974012115,-20,31,4,-2,-8,-5,30,9
50974012690,-14,-28,-10,-5,-4,-3,-8,-12
50974012690,22,-8,1,0,-8,0,4,11
50974026287,4,12,-3,-1,2,1,9,-7
50974026287,14,10,7,3,-1,1,-11,-20
50974033936,-9,-2,2,1,-1,-2,-13,-7
50974033936,25,19,-1,-5,-9,-4,-7,17
50974048977,-21,-34,-8,-2,-2,-2,-15,-11
50974048977,40,-22,4,-1,-6,0,5,-12
50974056460,-13,3,9,3,11,1,-2,-5
50974056460,12,12,3,2,-2,0,4,-1
50974072122,10,19,2,-1,-1,-2,4,6
50974072122,-9,-1,-8,0,-3,1,3,2
50974072735,-6,10,-1,-6,3,-6,-2,-21
50974072735,-35,-25,0,-2,-5,-5,-5,-1
50974086406,33,-8,-5,6,-6,-2,-1,-5
50974086406,-10,0,-1,2,15,6,-7,1
50974093880,-23,0,-2,-1,-8,-3,20,15
50974093880,18,16,5,0,-8,-6,8,-10
50974108946,-18,-6,-8,-4,3,1,7,20
50974108946,-17,4,-4,-1,-2,-4,-13,-21
50974116455,27,-11,0,-2,-3,4,-3,5
50974116455,-13,-1,-9,-3,-3,-1,-11,-23
50974132112,-9,7,7,4,4,1,8,27
50974132112,17,11,-1,-5,-6,-2,-5,6
50974132773,-19,-3,2,-2,1,-5,-13,-14
50974132773,31,6,-6,1,-2,-2,2,9
50974146479,3,-24,-9,-2,-1,0,-3,-7
50974146479,15,-20,-2,2,-5,-4,-1,6
50974162147,-31,4,-6,-5,-8,1,-6,9
50974162147,-8,-1,6,3,9,4,-11,-2
50974168931,-11,20,4,1,-3,-3,13,-13
50974168931,23,10,-7,-2,1,-1,-10,9
50974176480,22,-13,1,2,-1,-4,-4,-1
50974176480,2,4,-6,-4,-9,-4,6,8
50974192058,-46,1,3,-5,6,3,1,-8
50974192058,-26,-14,3,2,3,0,-9,2
50974192744,-8,22,4,-6,4,4,2,-15
50974192744,10,-16,-9,0,-2,-2,-8,-2
50974206442,11,4,-2,-1,0,-2,17,3
50974206442,-13,-25,-3,2,-4,0,5,-3
50974213932,-1,17,-4,-2,3,-1,0,-3
50974213932,46,4,8,5,-2,-2,4,12
50974228930,-67,-5,-5,-5,-8,-5,-22,-25
50974228930,-8,-9,1,-1,0,0,19,21
50974236464,12,1,1,-1,4,-5,-7,-4
50974236464,-32,47,0,-6,-1,-2,6,-5
50974252158,32,-46,-9,0,-10,6,-15,8
50974252158,-10,22,1,-2,7,2,4,-22
50974252668,-17,-18,0,2,1,-1,-10,21
50974252668,-15,-24,-11,1,-9,-7,-4,4
50974266316,11,27,7,-2,0,0,-32,-21
50974266316,6,7,-10,-2,-2,2,2,18
50974273940,-23,-17,0,3,0,2,-10,-15
50974273940,5,-4,5,0,3,-2,-3,-43
50974288901,7,5,-1,5,-1,-5,17,15
50974288901,-7,-12,2,-2,-4,-6,-15,-9
50974296467,2,26,-3,-2,-3,-2,20,23
50974296467,27,5,-3,-3,-2,3,-6,-6
50974311952,-61,-20,-1,-3,0,-1,-13,-10
50974311952,20,0,-2,2,-2,-2,6,-9
50974312905,-1,-20,-11,-6,-11,-8,21,-29
50974312905,22,-1,3,4,10,8,41,20
50974326385,-5,15,5,5,4,-1,26,6
50974326385,-10,18,5,-2,-5,-2,-13,13
50974333946,-26,2,-1,1,1,-2,-10,-24
50974333946,0,-34,-7,-2,-4,0,-1,2
50974348919,16,19,0,-7,-4,-3,-4,2
50974348919,-16,-3,-2,1,4,0,6,-6
50974356409,3,-34,-7,1,-2,2,2,3
50974356409,2,7,-1,-6,6,2,-22,2
50974373381,13,8,-1,1,0,0,9,4
50974373381,11,3,5,1,-4,0,-6,4
50974374251,9,6,2,4,9,3,0,-10
50974374251,-9,1,2,-4,-4,-5,-2,8
50974386380,21,26,-3,0,1,-2,-10,-17
50974386380,34,-31,-8,-2,-8,-2,14,5
50974393736,-19,-1,1,-3,-6,-1,0,18
50974393736,-10,-8,-1,-1,-1,-1,8,-19
50974408770,56,18,6,2,2,-3,-9,-14
50974408770,8,0,-10,0,3,1,-3,22
50974416405,-8,-6,-5,-4,-5,-3,1,3
50974416405,12,3,2,-6,-6,-8,-2,-4
50974432055,-8,-21,-11,-2,-5,-5,-5,12
50974432055,-18,3,-2,-7,-5,0,6,-26
50974432775,38,10,10,5,6,3,0,1
50974432775,-20,-1,2,4,4,3,7,8
50974446317,6,-8,-6,1,-3,-2,4,15
50974446317,-2,-11,0,-5,-1,-4,-2,0
50974453994,-16,-3,-2,-1,1,-1,-3,-16
50974453994,-7,15,-4,0,-11,1,-7,-14
50974468951,-2,17,9,0,21,12,2,5
50974468951,-1,-22,-3,-8,1,-1,3,-6
50974476442,0,-5,-3,-4,-5,-4,-2,7
50974476442,10,-10,-1,0,-1,-4,-7,0
50974492093,-31,0,-3,-4,-2,-3,4,-10
50974492093,-3,15,4,-1,-6,-1,3,-10
50974492636,6,13,13,3,3,4,0,-4
50974492636,5,-22,-9,3,-6,-2,-3,5
50974506414,9,11,0,0,4,5,9,10
50974506414,0,27,2,3,1,0,-10,-14
50974513912,14,-7,-8,-12,-6,-6,4,-7
50974513912,-76,-19,0,-5,-2,-4,-7,-1
50974528702,12,-12,0,-1,-9,-6,-21,-8
50974528702,19,9,0,3,5,5,5,-5
50974536256,-3,7,0,4,3,0,16,4
50974536256,-18,6,-8,-2,-2,-2,6,13
50974552053,14,-22,-3,-6,-8,-8,-4,-3
50974552053,-25,-9,-4,-2,-4,-2,12,6
50974552745,-1,-25,-4,4,5,1,-17,-14
50974552745,-1,5,5,-2,3,0,-10,2
50974566444,0,4,0,0,-4,-1,16,-1
50974566444,-4,0,1,-2,-1,-1,-14,5
50974573906,-5,18,-2,-2,-5,-3,16,10
50974573906,8,2,7,-3,0,-1,2,-15
50974588995,-7,-15,2,1,-3,-1,-6,-5
50974588995,4,17,3,-5,2,0,-4,13
50974596509,4,-8,-6,-3,3,1,-2,16
50974596509,20,-13,-3,2,2,-1,-47,-16
50974612086,-5,6,2,0,-6,0,34,5
50974612086,-6,-9,-7,-1,4,4,-3,-4
50974612656,3,8,1,5,-1,-3,-7,3
50974612656,23,19,4,-1,-2,-2,2,2
50974627690,13,-15,-1,1,1,-1,-3,11
50974627690,-21,1,-2,1,-10,-5,1,-1
50974633828,-5,-7,-4,-1,-3,3,0,0
50974633828,-8,-9,-1,1,7,1,13,10
50974648878,12,-2,-2,-1,0,2,-14,-7
50974648878,-7,-1,5,2,3,0,5,-9
50974656336,19,14,-5,-6,-5,-4,-9,1
50974656336,3,-2,4,-3,-2,0,10,-10
50974671322,-13,-3,0,-5,-5,-5,38,39
50974671322,3,9,4,6,2,-3,9,-1
50974687922,-11,-5,2,-2,3,3,-11,7
50974687922,34,25,-2,4,4,3,15,-3
50974689171,-17,-20,-8,-4,-3,-4,-19,-29
50974689171,-23,-2,-1,-5,-6,-7,-1,-16
50974693766,-6,-13,-5,1,0,-2,5,-6
50974693766,5,-5,-4,8,3,1,-11,11
50974708831,26,11,1,-8,-9,-2,-8,7
50974708831,-37,-19,-8,0,7,3,13,-26
50974716274,2,16,10,-1,-1,-3,-14,-8
50974716274,-13,14,-3,2,-11,-7,0,6
50974731339,-19,-29,-5,4,10,5,-18,-8
50974731339,7,9,-2,3,-4,2,-28,2
50974739530,-15,-6,4,-6,2,6,-2,-26
50974739530,-10,-8,6,-3,3,-2,-11,-8
50974746318,-8,15,6,4,-2,-1,-1,-3
50974746318,20,8,-10,-5,-6,-7,-8,3
50974753735,10,-11,-6,0,-5,-8,14,9
50974753735,-11,1,1,1,-1,-1,-16,-16
50974768837,15,-12,-6,-5,-3,-7,-10,-9
50974768837,16,-12,8,2,-10,2,-1,12
50974776265,-7,4,5,0,19,11,21,-13
50974776265,10,-11,1,-3,0,-1,10,10
50974791455,7,12,-8,1,2,-1,2,8
50974791455,3,18,5,3,2,-6,6,11
50974799535,-15,-3,-1,-4,-18,-8,2,25
50974799535,-24,-2,-2,-5,-2,0,-8,-28
50974806321,-7,10,0,2,12,9,1,4
50974806321,-7,-42,-13,-6,-5,-5,-11,-1
50974821937,-10,4,1,2,-5,-3,-12,-8
50974821937,9,-13,-4,1,2,0,4,19
50974828881,-29,12,1,1,-3,0,-4,-34
50974828881,42,-3,2,-5,-1,-2,0,2
50974836380,-26,8,5,-2,-10,-3,-9,6
50974836380,3,4,-10,-6,7,-1,12,24
50974851291,-2,-3,-1,1,-3,-1,1,-9
50974851291,9,0,4,-7,3,3,22,1
50974859506,34,-2,0,4,4,-2,1,-7
50974859506,0,21,3,0,-6,-2,-19,-22
50974874481,-29,-34,-18,-4,-3,-2,34,5
50974874481,-16,-6,6,-6,1,1,-10,7
50974875337,-9,5,-1,-1,-2,0,-7,-2
50974875337,8,8,2,-2,-6,-3,1,-2
50974888831,10,5,1,2,2,-2,-9,-9
50974888831,-10,13,4,1,0,-1,6,10
50974896290,-18,3,-1,2,2,1,4,-5
50974896290,20,-14,-2,-2,2,-1,2,6
50974911241,-1,36,4,0,-6,-6,-4,12
50974911241,27,-32,1,-5,-9,0,-3,-1
50974919506,-73,27,7,-1,12,7,-8,-10
50974919506,20,-34,-17,-1,-3,-2,9,-13
50974934520,18,-4,17,-3,-1,-3,-31,9
50974934520,-10,27,-1,5,0,-5,4,-9
50974935263,28,-15,-5,-5,-4,-5,-9,-4
50974935263,-30,4,2,4,-13,0,6,16
50974948960,-5,-2,-5,-7,8,0,9,-21
50974948960,-9,9,2,4,-3,-1,-12,-3
50974964976,53,-20,2,4,0,-2,-10,0
50974964976,0,16,1,-3,-5,-5,3,1
50974972653,36,-2,-1,2,-1,4,0,12
50974972653,-45,-4,-10,1,5,-2,-5,-9
50974979431,-27,1,-4,-7,-5,1,23,7
50974979431,-11,-23,4,-4,2,1,-7,-19
50974994469,-10,18,4,2,-5,-4,3,-4
50974994469,18,-19,-1,-2,5,0,-8,-13
50974995212,-22,9,-5,2,2,0,-2,-16
50974995212,10,-12,1,-7,-8,-2,1,0
50975008813,-17,-12,2,-2,1,-1,-2,6
50975008813,4,-2,0,3,-3,-1,5,0
50975016312,4,3,2,0,-5,-2,-10,-8
50975016312,5,16,0,1,8,4,11,19
50975040192,-2,-16,-4,-6,-3,-1,-2,1
50975040192,8,23,-6,2,-2,-1,5,-2
50975040916,24,-8,-3,2,0,1,-15,15
50975040916,-3,5,3,-1,1,-1,12,14
50975062760,-7,-6,-3,-5,-8,-5,-4,-2
50975062760,-9,-14,-5,0,0,-3,-11,-7
50975063387,33,-5,-7,-7,-6,-1,-1,0
50975063387,-47,29,7,0,-1,2,-4,-7
50975068844,-35,-5,4,2,1,2,0,0
50975068844,2,4,6,-5,1,0,5,1
50975076278,24,10,3,1,1,-6,-11,9
50975076278,13,-15,-5,3,1,0,17,10
50975091437,45,-3,-2,-3,-3,1,10,6
50975091437,-14,9,5,-1,-1,-3,-16,-21
50975099431,16,-13,-2,4,0,-2,-10,-28
50975099431,1,-4,-2,1,2,2,10,16
50975114550,12,6,2,4,-1,0,-9,-3
50975114550,-14,-10,-3,1,2,1,2,4
50975115221,2,0,-3,-4,-3,-4,0,-4
50975115221,8,1,-1,-2,-4,-2,-9,13
50975128816,-15,-22,-2,2,1,-2,3,-28
50975128816,17,0,-3,0,-4,-1,-1,37
50975136277,-8,16,-12,-7,1,0,10,0
50975136277,-1,-30,-6,-1,-1,-1,-18,-9
50975151334,37,12,0,3,2,1,31,14
50975151334,-86,-3,-3,-7,-3,-6,-10,-17
50975159665,26,3,1,1,-2,-1,2,20
50975159665,-4,4,-2,1,-2,0,-5,-9
50975174590,6,1,-5,1,-1,-2,-11,-2
50975174590,27,9,0,-5,-6,-1,1,-4
50975175227,-14,-5,-5,-3,0,0,14,2
50975175227,-14,12,5,-5,-4,-4,0,-2
50975188933,-11,-19,-5,-2,-2,3,-11,-11
50975188933,7,-17,-2,1,1,0,0,27
50975196379,-7,1,3,0,3,0,-1,3
50975196379,36,0,3,0,-5,-2,9,18
50975211376,-11,17,-4,0,14,3,13,1
50975211376,6,10,4,-1,-2,2,-8,-28
50975219499,15,-1,2,0,2,-1,22,-7
50975219499,29,-22,-4,-8,-8,-4,2,20
50975234366,-19,3,-3,-3,-2,-5,-20,-11
50975234366,16,-24,-2,2,-6,-1,3,-5
50975235272,-6,-6,2,5,0,1,-5,1
50975235272,13,7,-3,1,4,3,5,0
50975248893,-12,6,0,-1,-2,-1,-4,-2
50975248893,16,8,1,-2,4,0,-5,3
50975256255,-2,-1,2,1,-4,-2,9,6
50975256255,-20,-4,-6,-1,1,-4,6,-5
50975272699,16,2,-3,1,-1,3,28,-25
50975272699,-12,32,-11,-4,-4,-6,-7,23
50975279677,-16,-45,-7,-6,-8,-7,-12,-11
50975279677,-17,-24,3,-1,-2,5,-11,-21
50975294568,-8,-25,-9,2,20,8,-6,6
50975294568,12,11,8,4,2,4,10,-5
50975295214,-4,16,-4,-2,1,-1,-5,-1
50975295214,3,16,-2,1,1,-5,-15,-11
50975308743,-1,8,4,1,-9,-6,-20,36
50975308743,24,-12,-4,3,1,4,21,2
50975316338,-37,2,-2,-6,3,0,-9,21
50975316338,-23,22,-2,-10,-7,-6,-27,-13
50975331320,-19,-16,6,-3,-7,-4,-8,-11
50975331320,-4,-18,0,-2,0,-2,-7,-2
50975346844,18,-22,-10,6,2,4,16,-3
50975346844,6,12,-2,5,4,4,9,5
50975355841,6,11,-1,-3,-4,-2,-1,13
50975355841,10,12,1,-3,0,-2,-2,-6
50975356857,1,-18,-1,-4,-8,-5,-12,5
50975356857,6,0,1,9,6,4,-2,-2
50975368849,8,15,4,-9,-15,-12,-14,-12
50975368849,-13,19,5,3,-9,0,6,30
50975376400,-3,26,-5,-2,8,6,9,12
50975376400,-32,-65,-6,-3,1,-7,-36,-38
50975391317,-8,-31,-9,0,-4,0,3,-25
50975391317,-3,1,3,-5,-3,-1,-1,1
50975399654,13,28,13,1,3,2,0,-2
50975399654,43,23,0,4,-1,-3,9,2
50975422673,-23,8,-1,0,1,1,12,-11
50975422673,11,-12,-1,-4,-1,0,42,-20
50975423372,4,4,8,0,-1,-2,4,8
50975423372,27,-8,-2,-5,-1,-2,14,-16
50975428857,51,18,6,2,0,-2,-15,5
50975428857,-56,-10,-5,2,5,0,-8,-14
50975436304,7,-39,-10,-3,-8,-3,-7,-14
50975436304,-14,15,12,1,-5,1,11,0
50975460101,-8,11,-8,2,3,-4,2,18
50975460101,1,-14,-3,-1,-3,-5,-14,2
50975460931,-8,-29,-1,-2,1,4,-5,-4
50975460931,-14,-7,-7,0,3,2,-4,5
50975474542,1,20,11,-1,-4,-2,-1,9
50975474542,12,-13,-7,-3,0,-5,-11,-6
50975475215,-1,4,0,4,-8,-3,-1,-5
50975475215,-20,5,5,-2,3,6,3,-4
50975488866,16,4,-7,-1,9,5,-3,4
50975488866,-47,-10,-7,1,-3,-5,-16,-9
50975496235,-7,13,4,-4,-12,-9,3,-2
50975496235,8,-9,0,2,2,2,-4,0
50975511414,-9,24,-1,-2,6,7,-13,11
50975511414,-2,-4,-2,1,2,6,-4,8
50975519522,28,-13,-6,-3,0,-2,-5,-12
50975519522,-6,-11,-5,1,-7,-9,-9,25
50975534554,-9,-8,3,-6,-9,-3,9,2
50975534554,34,14,-5,7,7,2,-24,3
50975535116,-39,8,3,-6,-5,-2,5,-19
50975535116,10,-3,0,1,2,-1,2,-3
50975548864,-1,-15,-7,1,-4,0,3,-1
50975548864,10,-2,-3,-5,1,-2,-7,7
50975556276,-4,14,8,-1,0,1,1,4
50975556276,17,-9,-15,-3,-4,-2,-5,-2
50975571366,-54,7,1,0,2,-1,-2,-17
50975571366,1,-22,1,-1,0,-2,-2,-16
50975579535,0,-3,-3,2,5,0,-9,4
50975579535,-26,9,-4,1,-3,0,11,-3
50975594336,17,-8,0,1,-2,-5,2,-9
50975594336,7,4,0,1,-2,0,11,-1
50975595101,-6,3,-2,-1,1,1,-9,-3
50975595101,4,-4,4,-2,0,-3,-17,-2
50975608656,-15,-18,-6,-1,-9,-2,-12,16
50975608656,-5,3,1,-1,5,1,-3,-17
50975616133,16,7,1,3,2,1,-16,2
50975616133,-5,8,-2,-11,-6,-4,-11,11
50975631131,-3,-11,3,1,3,5,16,-16
50975631131,42,5,8,0,-2,0,7,17
50975639356,-30,12,-2,2,-2,0,2,-8
50975639356,-6,1,5,-3,0,-4,0,-2
50975662489,-7,-25,-8,-3,-4,-2,2,-1
50975662489,0,4,-1,2,1,2,2,5
50975663280,7,7,4,1,-1,-4,2,-5
50975663280,6,9,5,-1,-3,-1,3,-3
50975676812,8,-13,1,1,0,0,-9,-1
50975676812,-2,-1,1,-2,-1,1,-31,-6
50975677598,25,5,2,1,0,2,22,10
50975677598,-27,-9,-4,0,1,-1,14,41
50975691112,20,7,3,-2,-4,-3,13,-53
50975691112,-16,-3,-11,0,-2,-2,4,2
50975699307,12,-8,4,-1,-1,0,-10,8
50975699307,12,32,-3,-3,-11,2,29,7
50975722516,7,-29,-1,2,17,4,-3,28
50975722516,-18,-21,-7,-3,-5,-7,4,-27
50975723303,7,12,-10,6,4,3,2,0
50975723303,2,1,1,-3,-3,0,-7,-20
50975728623,-10,1,0,-5,-9,-5,0,7
50975728623,15,31,2,-1,-3,0,6,15
50975736821,-32,-24,-7,-5,4,-3,6,5
50975736821,-1,-3,2,3,0,-4,-14,-18
50975751267,17,16,-1,0,0,1,-4,11
50975751267,-1,8,0,-4,2,-1,4,11
50975759335,-2,-19,-4,-3,-11,0,25,16
50975759335,-10,-1,5,7,21,5,-8,-34
50975773681,-9,7,-12,-3,-4,-4,-2,-6
50975773681,12,1,10,-2,-1,-5,2,13
50975781895,-6,26,-3,-5,-6,-4,14,-23
50975781895,22,-37,-8,-5,-6,-3,-13,-10
50975788637,-47,24,-2,-4,3,0,-11,-4
50975788637,-12,-2,-5,2,-1,2,0,-20
50975796827,8,-16,-3,2,0,-4,-2,-11
50975796827,-24,-4,-5,-7,-8,-3,2,8
50975811204,-1,-8,4,1,-2,-3,-7,-1
50975811204,17,10,2,-3,-2,-1,-8,3
50975819365,-14,-4,-2,-1,2,2,21,0
50975819365,22,14,3,2,2,1,2,-14
50975833683,2,-1,-1,3,-4,0,-3,16
50975833683,-1,-7,-4,-7,-9,0,-3,-3
50975841867,1,0,-1,-3,2,-2,-19,12
50975841867,0,3,0,3,1,-1,2,8
50975857585,1,-3,-3,0,1,-2,7,14
50975857585,10,-8,6,4,-8,-1,-9,13
50975858408,-1,22,4,0,11,3,-10,-12
50975858408,-3,-3,1,-3,1,1,13,18
50975871321,16,-26,-8,-2,-7,-6,-8,-20
50975871321,-82,6,3,0,-2,-2,15,6
50975879488,14,1,2,1,0,1,-25,10
50975879488,23,6,2,-2,1,-1,0,-8
50975893784,-34,-17,1,-4,-2,-2,-3,-3
50975893784,10,-15,-4,0,0,0,-2,-6
50975901940,-4,7,-1,-1,-4,-2,-5,1
50975901940,-10,-8,-10,-4,-3,-4,-18,-4
50975917491,13,21,14,2,3,4,25,7
50975917491,26,-20,-8,-4,1,1,5,-5
50975918414,-32,-36,-9,-4,-2,1,6,14
50975918414,-10,11,1,-3,-6,-3,-7,14
50975931265,10,-4,-3,-1,-5,-2,-6,31
50975931265,3,24,8,-2,-3,-3,24,-5
50975939423,4,-7,-1,-6,-8,-7,-3,1
50975939423,-4,-16,1,-1,-5,-1,3,-2
50975953828,6,-14,-10,2,1,4,-4,0
50975953828,-8,-4,-4,1,4,3,29,5
50975962058,3,4,2,4,6,2,-25,-28
50975962058,44,10,4,-1,-4,-3,7,7
50975977702,-10,8,0,-2,-4,-7,3,-4
50975977702,20,-6,-8,-3,-4,-2,-8,10
50975978396,-14,-5,-1,3,-1,-2,-7,-10
50975978396,-6,12,4,1,4,4,6,4
50975991329,18,17,5,-6,-5,-3,0,-11
50975991329,8,-23,-2,-3,4,0,-5,-7
50975999464,1,-6,-4,-4,-4,-4,-22,23
50975999464,-8,-13,-11,6,8,5,5,-34
50976013873,-9,10,8,-1,3,-1,-11,-12
50976013873,-20,-2,-6,-2,-5,-3,-7,0
50976022012,9,-22,-7,-2,-10,-2,11,-2
50976022012,4,0,-3,7,5,1,1,7
50976036409,1,3,3,3,1,-2,-5,-2
50976036409,21,27,3,3,5,1,1,-15
50976045181,-25,-22,-1,-5,2,2,6,-1
50976045181,9,-1,-4,-3,-6,-3,0,10
50976051209,-56,-7,-5,-2,-4,-1,-9,-9
50976051209,-8,3,3,3,-2,-2,-12,-1
50976060212,14,19,5,0,0,1,-3,-3
50976060212,-20,0,3,1,2,1,13,-7
50976073855,3,15,-1,-4,-3,-3,-16,-13
50976073855,10,13,-5,-9,-10,-7,-10,21
50976082673,1,-45,-5,-1,5,3,-6,-19
50976082673,-15,-10,-14,1,0,0,-1,-17
50976096421,27,-5,-4,1,-1,0,9,16
50976096421,-15,20,7,5,8,0,-5,0
50976105167,27,39,9,-2,-8,-8,2,-9
50976105167,-44,-28,-7,-7,-3,-3,-10,-11
50976111395,7,4,6,1,0,1,15,7
50976111395,12,-11,-12,3,-2,1,14,18
50976120149,30,50,8,-4,-3,-2,-8,-9
50976120149,-61,-23,0,-5,-6,-4,-8,-6
50976133869,2,-30,-10,-4,-3,-1,2,4
50976133869,-8,-6,6,3,7,2,-8,-14
50976142636,0,-3,-1,1,0,-2,6,14
50976142636,19,28,5,-6,-6,0,4,5
50976156187,-5,2,1,6,9,3,-14,-3
50976156187,35,-6,4,-5,-8,-1,-6,-22
50976165217,1,-1,-15,-3,-4,-3,19,10
50976165217,-5,-18,-3,-6,-11,-7,-12,8
50976171391,5,10,7,-3,11,1,-11,-11
50976171391,-2,-29,-6,-2,4,2,10,2
50976180141,-9,4,-3,0,7,4,-7,-2
50976180141,13,5,3,2,0,-4,1,-1
50976193870,11,6,-3,1,-7,-2,14,-6
50976193870,-15,8,1,-4,-4,-3,-3,-8
50976202632,-7,-18,-6,1,2,0,6,-9
50976202632,16,21,1,1,2,0,-1,8
50976216234,17,-15,-6,-1,-2,-1,-3,-14
50976216234,-26,-10,-7,-3,-2,-2,6,2
50976225191,-11,-19,-1,-3,-5,-5,-10,2
50976225191,15,5,11,5,7,2,0,7
50976231355,3,8,-3,-1,-2,-2,3,12
50976231355,17,-3,-3,1,1,2,-6,-9
50976240142,-5,8,10,8,7,1,-5,4
50976240142,0,5,-16,-2,5,2,-11,-21
50976253784,-4,-7,4,1,-2,-3,32,34
50976253784,-16,7,-1,-3,-11,-2,-16,6
50976262696,-11,14,4,-7,8,0,-6,-11
50976262696,1,-15,0,-7,-7,-3,-6,-6
50976277070,-18,-41,-17,0,0,-1,-16,-4
50976277070,9,-12,4,5,1,-1,-3,3
50976283763,6,14,4,3,1,1,-2,10
50976283763,14,5,-1,4,-5,-3,7,13
50976291353,-11,15,2,-5,-2,0,-12,-25
50976291353,-6,-3,1,6,4,-1,8,12
50976300171,10,19,5,-4,-3,-1,6,-5
50976300171,4,-3,2,0,2,0,5,6
50976322563,-10,-24,-10,-8,-11,-4,15,3
50976322563,-10,-17,-1,-2,-2,-5,8,-27
50976324137,-2,-5,-1,3,-3,-1,-16,21
50976324137,7,22,-4,-2,-1,2,14,-9
50976336959,6,-6,1,1,0,-1,-5,5
50976336959,-11,-8,3,-7,-1,0,-3,-5
50976343799,4,-14,-3,6,2,6,21,5
50976343799,-7,10,2,1,3,-1,-4,10
50976360203,25,28,7,-3,-2,-1,-10,1
50976360203,-25,-7,-6,-5,-12,-6,-11,-8
50976361632,19,-12,6,1,6,-1,1,2
50976361632,-7,1,4,0,1,1,-17,5
50976373783,-6,24,6,0,0,-1,1,-1
50976373783,22,-11,-6,-1,2,-1,-20,0
50976382668,4,-5,-1,-5,-5,-5,7,-10
50976382668,7,5,2,1,0,-4,-28,-12
50976405091,-7,-4,-3,6,6,4,13,15
50976405091,19,-3,3,-3,3,3,-8,1
50976406628,-12,20,-6,-1,-4,-3,7,1
50976406628,-2,-41,-3,4,0,-3,-16,-1
50976411325,10,-6,2,-6,-11,-4,-2,-5
50976411325,-13,29,7,4,9,8,17,12
50976420180,-11,-26,-1,-2,-6,-2,-1,4
50976420180,4,15,6,-1,-8,0,49,10
50976433794,-8,-2,-6,-1,3,1,-6,-4
50976433794,-7,-5,-10,-1,-2,-1,3,-1
50976442671,5,5,-3,-1,1,-1,-9,-1
50976442671,-6,-1,-5,-1,-3,-1,-7,1
50976457636,-8,-12,0,-3,-5,-3,-7,-15
50976457636,13,17,7,-1,0,-3,5,6
50976459113,4,7,-5,-5,-5,1,-7,-7
50976459113,-49,-9,-3,0,5,3,-10,-31
50976471357,-8,14,-1,0,-1,-2,0,19
50976471357,-8,-48,-9,-2,-6,-5,-10,-18
50976480131,-10,-20,-8,1,-7,-3,-4,7
50976480131,25,0,6,0,5,-1,22,12
50976493724,12,24,11,2,5,0,-14,7
50976493724,-9,26,-1,2,0,0,14,-3
50976502634,-3,9,-2,-1,-2,-2,1,-8
50976502634,2,-11,-10,-7,-5,-2,-2,3
50976517704,-2,-5,-1,1,1,2,3,-8
50976517704,-1,13,-2,-2,-2,-2,-1,5
50976519133,-3,-19,-1,1,-3,1,-4,0
50976519133,-4,22,7,-3,7,6,4,-9
50976531303,12,-5,-1,-6,-8,-3,-8,-5
50976531303,-11,-19,-6,-3,-2,-1,-21,-9
50976540167,3,-45,-9,-2,-3,-6,10,-4
50976540167,-8,0,4,1,-6,-1,-12,15
50976553799,8,4,-4,1,4,2,-3,-17
50976553799,20,19,3,-1,1,0,8,7
50976562671,25,14,-5,1,-3,0,0,-7
50976562671,-26,-7,-5,-2,-1,-3,-4,3
50976577063,-16,-2,3,2,-1,0,5,0
50976577063,2,-10,-1,-1,-1,-4,-15,27
50976583687,3,33,7,1,0,1,3,5
50976583687,8,24,-4,-7,-4,-3,0,-5
50976591184,-6,-41,-9,-3,-2,-1,-1,-3
50976591184,-17,-35,-4,1,-3,0,3,-7
50976600298,-13,-9,1,-2,-6,2,-3,-2
50976600298,11,5,4,3,9,4,-2,-5
50976613642,-7,20,0,-1,-5,-2,-3,8
50976613642,4,8,-1,1,3,-3,-17,-11
50976622688,48,8,-1,0,-6,-1,-9,17
50976622688,-36,1,-2,0,-5,-4,-6,-19
50976637001,-46,-30,-5,1,6,1,-3,-4
50976637001,32,11,4,-1,3,0,15,-6
50976643780,-3,11,9,-5,-2,-3,-7,7
50976643780,23,-40,-11,-9,-8,-2,3,-8
50976651307,19,-9,-12,-6,-3,0,-7,-4
50976651307,-16,12,4,-1,2,1,5,-1
50976660145,-29,16,1,2,7,0,1,-5
50976660145,40,7,4,3,-3,-4,-3,9
50976682628,-6,14,6,-1,3,-1,-1,4
50976682628,5,10,-2,1,-2,0,12,4
50976684090,-10,-21,-8,-10,-3,-7,-5,-1
50976684090,-10,-13,3,3,-4,0,22,7
50976696886,19,-7,-1,0,-4,1,4,-2
50976696886,-10,17,6,-1,-3,0,0,1
50976703789,-10,-5,-2,2,4,1,-7,-8
50976703789,-4,-4,-8,2,4,1,-4,6
50976711338,2,7,-2,1,-2,-4,14,15
50976711338,-9,-4,-5,-6,-9,-5,12,12
50976720105,23,-10,2,2,2,1,-4,-9
50976720105,-26,21,1,-3,-3,-1,-1,6
50976733761,-29,-21,2,0,4,0,4,-8
50976733761,-2,-18,-9,-3,-4,-4,-23,-27
50976742683,-34,0,-5,-2,-2,-1,3,-17
50976742683,30,24,8,1,1,-3,5,7
50976756999,26,-9,-7,-2,-1,-1,-13,18
50976756999,-29,0,13,1,4,0,2,-1
50976771305,4,8,-2,-1,-5,1,17,-1
50976771305,-23,-10,-7,-3,1,-1,-11,-13
50976780173,-3,26,11,0,1,-2,8,-25
50976780173,15,-11,4,5,-7,0,4,15
50976781641,-7,16,-1,-6,4,1,-17,-6
50976781641,-2,-24,-5,-2,2,2,15,8
50976793893,-1,-12,-5,-1,-1,-2,-15,-8
50976793893,0,19,-6,-4,0,-2,-3,-3
50976810194,-8,-4,16,0,-2,-4,-18,3
50976810194,8,-5,-5,-4,-7,-4,1,-2
50976816969,-2,11,2,1,1,3,2,-12
50976816969,24,-20,-4,-2,1,1,7,7
50976823818,-49,3,-5,1,2,-2,4,1
50976823818,-2,7,0,1,-3,-1,10,11
50976840204,14,-14,-3,3,-3,-1,-1,0
50976840204,-28,-3,-1,-7,-1,0,-4,-8
50976841659,7,-26,-4,1,1,-2,-7,-22
50976841659,23,-1,-1,0,-7,-5,11,12
50976853789,-3,34,1,2,9,7,-1,-2
50976853789,-4,1,3,3,1,0,2,-4
50976862691,4,-11,-6,-9,-8,-4,2,14
50976862691,23,-10,-8,1,1,-2,-14,5
50976876995,-16,-6,-3,-6,-14,-8,-1,0
50976876995,-2,26,3,1,5,3,2,-7
50976883792,28,-19,-6,-1,-4,-3,-1,-6
50976883792,1,7,9,-5,4,6,-5,8
50976900329,0,-2,1,-2,0,-2,3,1
50976900329,1,-7,-7,-2,-6,-3,-9,5
50976901635,54,10,1,1,-10,1,-2,18
50976901635,-88,-4,2,0,6,-4,-5,-38
50976913861,2,-7,-6,-3,-8,-6,-1,12
50976913861,7,8,-4,1,6,3,-9,8
50976922638,22,4,4,1,6,7,16,9
50976922638,4,-9,5,-2,-5,5,27,7
50976937390,-8,-1,4,-2,3,1,-7,7
50976937390,-1,-1,1,-1,-8,-9,-5,-5
50976945166,-8,-12,-8,-4,0,-3,13,-6
50976945166,-27,10,1,-2,-6,-5,-25,-6
50976960116,-21,-11,-2,2,8,1,5,-2
50976960116,23,4,-11,1,-3,3,7,1
50976961678,-10,-9,-7,-3,3,0,-9,-3
50976961678,-5,18,11,0,1,-3,-6,-9
50976973760,16,-3,-1,-3,-12,-6,-1,0
50976973760,-15,-5,-2,6,4,0,14,-9
50976982665,-24,-12,-6,-9,-4,-5,-16,-17
50976982665,71,4,-14,-8,-12,-6,-5,19
50976997446,-77,-5,-5,4,16,9,3,-15
50976997446,10,29,6,-4,1,-6,-9,-6
50977011329,-31,-4,10,7,-12,-3,8,2
50977011329,29,-20,-9,-6,0,2,-32,-13
50977020220,38,3,2,-1,-2,-4,-11,5
50977020220,-14,2,-2,-4,-2,-1,3,22
50977021642,-5,31,5,-1,2,-2,-1,-4
50977021642,-4,-22,-2,1,-3,-7,-18,-9
50977033716,18,20,8,1,-2,-1,-3,-2
50977033716,-11,-22,0,2,2,-1,-6,-14
50977042677,14,1,-4,-2,-4,0,22,4
50977042677,-24,8,1,-2,-1,-1,19,2
50977057005,16,-10,-1,0,-3,-3,-22,7
50977057005,-17,0,11,4,1,0,7,2
50977063754,10,-4,-1,0,5,2,-10,-14
50977063754,-14,13,-2,4,6,3,0,-15
50977080139,12,22,5,-1,1,-5,19,-1
50977080139,-19,-47,-5,-11,-10,-4,-19,-4
50977081640,-11,-7,-3,4,-2,2,0,8
50977081640,5,8,1,1,8,5,-3,-21
50977093718,26,8,3,3,2,5,-3,-2
50977093718,-38,12,-4,-1,2,3,-1,8
50977102628,3,-12,-1,-4,3,-6,-2,-9
50977102628,1,-7,-5,-4,-8,-7,-2,6
50977116965,6,-6,-5,0,-6,-3,18,-17
50977116965,14,1,0,-2,1,0,5,13
50977123805,-12,2,-1,2,1,-2,-7,-9
50977123805,-11,-1,-1,3,2,0,-4,17
50977139982,-3,-1,-4,-9,-3,-3,-10,-13
50977139982,35,16,7,-3,-1,-2,10,-4
50977141636,-19,-15,-8,1,-5,-1,-24,14
50977141636,10,5,0,4,9,10,4,-2
50977153794,1,-8,4,-1,-3,-1,11,0
50977153794,23,-8,-9,2,-4,-2,1,-14
50977162671,-15,18,9,3,3,-1,-7,0
50977162671,15,-21,-3,-5,-4,-6,21,14
50977176854,5,4,-7,2,-8,-3,-9,-5
50977176854,-4,3,-2,-3,-7,4,10,-4
50977183822,13,6,-5,-3,18,6,16,9
50977183822,22,-10,-1,3,-1,-1,-11,-5
50977200190,-44,-3,-13,-7,-3,-5,5,-15
50977200190,1,-9,-3,-1,0,-4,-14,1
50977201655,-3,52,2,1,-1,-2,-2,-20
50977201655,-5,-31,8,0,1,0,-10,9
50977222660,-5,-11,-8,-4,-5,-2,29,3
50977222660,16,-4,-6,-1,0,-3,-14,-8
50977224085,5,5,3,1,-1,0,6,19
50977224085,-52,25,-1,0,3,-3,-11,-34
50977236874,10,-21,-4,1,5,5,12,23
50977236874,-4,-1,7,-3,-3,-2,-3,-5
50977243733,7,-1,0,1,-2,-1,4,4
50977243733,16,-10,2,-3,-6,-7,-2,-14
50977260224,-23,17,7,2,2,-4,-23,-5
50977260224,2,-23,-15,-1,-4,2,11,-21
50977261633,-3,5,8,1,9,6,-30,-13
50977261633,11,-13,3,-2,1,1,11,6
50977273817,1,1,-1,-4,-3,-4,-9,5
50977273817,-4,-3,-5,-2,3,-4,-6,10
50977290164,-8,12,10,2,-8,-3,-9,-23
50977290164,-10,2,-12,0,-4,-2,3,16
50977297007,17,7,7,1,-3,1,-6,15
50977297007,4,11,10,1,-3,-3,-6,2
50977303765,15,-14,-19,-4,0,-2,16,5
50977303765,12,-9,3,-5,-1,-2,3,12
50977320186,-23,8,9,1,1,-2,1,-8
50977320186,18,-20,-8,-1,-2,2,-3,5
50977321645,3,18,3,-1,-5,-3,10,-7
50977321645,-17,3,0,6,0,1,-23,0
50977333794,26,-6,-3,-4,-2,-1,30,-3
50977333794,2,17,7,-4,-1,-2,-8,-3
50977342633,-12,-25,-14,-1,-2,-2,2,5
50977342633,13,-4,-3,2,-2,-1,7,0
50977356885,5,-7,0,-9,-3,0,-17,-3
50977356885,-6,6,-1,2,-4,1,2,-3
50977363782,3,-3,4,-2,-7,-3,7,-2
50977363782,-7,13,1,0,0,3,3,2
50977380166,-2,4,1,7,7,1,-18,-1
50977380166,0,-11,-8,-5,-3,-5,13,7
50977381635,-12,-13,1,-8,-6,-1,7,6
50977381635,1,10,-5,2,4,8,6,4
50977393727,10,-6,8,4,0,1,2,-3
50977393727,-23,28,-2,-3,1,-1,3,-11
50977402634,-19,-33,-1,-1,-2,-5,-7,-19
50977402634,-4,-2,-3,-2,0,-5,-22,-8
50977416850,21,25,-1,-5,-5,0,-12,7
50977416850,-4,-28,0,4,6,2,-2,14
50977423793,12,15,9,-4,-3,-3,-1,-14
50977423793,-2,10,2,0,-1,-2,8,8
50977440096,-6,-29,-9,2,0,0,-3,-12
50977440096,-18,14,5,2,3,-1,-10,0
50977441627,-10,0,1,1,2,1,-1,11
50977441627,-7,-34,-12,0,1,-4,-3,-3
50977453779,16,6,-5,-9,-5,-6,-2,4
50977453779,8,5,5,1,-8,2,-3,-3
50977462636,-17,19,5,2,18,8,12,9
50977462636,-13,27,-1,-1,-3,-2,4,-9
50977477000,-3,-27,-4,-3,0,1,0,1
50977477000,-15,-7,-3,1,1,0,-7,-6
50977483793,20,-13,-8,-4,-8,-7,10,10
50977483793,16,-3,0,-1,1,1,-3,-31
50977500154,-31,6,2,-1,-2,-2,-3,24
50977500154,6,-2,-2,-7,-4,-2,1,-6
50977501643,-8,-10,-8,7,0,0,-2,11
50977501643,32,12,3,1,-4,-3,19,-19
50977513735,2,22,2,0,-1,-2,-9,9
50977513735,-12,-22,-1,3,7,3,-8,4
50977522634,6,-14,-2,-1,-2,-3,-8,6
50977522634,-34,14,-4,-10,-13,-5,5,17
50977537004,20,-34,-5,0,-2,-2,-8,-18
50977537004,8,15,4,1,5,0,-2,-3
50977543701,-4,-1,-2,-1,-2,-2,-6,1
50977543701,-14,5,6,3,4,2,-6,2
50977559472,-3,6,0,-2,-1,-2,7,1
50977559472,5,20,4,-1,1,-1,2,-15
50977566269,64,-4,-2,0,-2,-2,1,8
50977566269,-89,-20,-1,1,0,-4,7,-9
50977573772,17,9,-1,-5,-16,-4,-13,1
50977573772,15,-13,-1,4,15,4,15,0
50977582625,-2,-15,-8,-4,-5,-2,-2,-8
50977582625,32,18,11,1,2,3,-8,9
50977596915,-11,8,-7,2,1,-4,3,-12
50977596915,-17,-30,-7,0,-6,-3,9,0
50977603795,-29,17,4,-1,-1,-1,18,9
50977603795,38,-21,-16,-2,-3,-4,-9,16
50977619495,8,-4,1,4,3,3,7,-3
50977619495,12,27,2,-7,-7,-3,0,13
50977626307,-14,1,3,3,0,-3,-2,6
50977626307,8,-26,-4,-5,-1,1,-1,-25
50977633713,-6,-10,2,8,9,4,-8,1
50977633713,-6,14,-3,-6,-5,-1,-1,13
50977642631,11,-19,-8,-4,-7,-1,-11,-6
50977642631,3,20,5,-2,-3,-2,-2,5
50977656949,14,3,-6,1,1,0,3,-1
50977656949,-25,13,3,4,3,0,6,13
50977663847,-30,-34,-7,-4,-8,-5,-4,2
50977663847,14,-26,-2,-7,-12,-2,17,10
50977679513,9,11,-4,1,3,1,6,1
50977679513,20,5,11,2,0,-2,-5,-1
50977686338,-7,17,-10,-6,-4,-1,-9,-13
50977686338,2,-2,3,1,1,-2,-9,-2
50977702519,-11,-6,5,-1,-3,-4,4,16
50977702519,0,2,-7,2,2,3,-2,10
50977704042,-4,10,11,-5,-2,2,-5,12
50977704042,-31,22,-7,1,6,1,-14,-12
50977716889,-3,-24,7,-7,-2,-2,-1,-20
50977716889,-11,-34,-12,-3,-2,-3,-13,7
50977723657,5,-22,-8,3,4,1,-3,-3
50977723657,8,27,8,1,0,2,7,7
50977739934,11,14,4,2,-1,0,-8,2
50977739934,-54,0,4,0,-2,-1,4,-13
50977746236,8,10,0,2,3,1,-5,-4
50977746236,-19,0,4,3,5,0,-5,-1
50977762610,30,0,-11,-4,-5,-4,-15,-6
50977762610,-17,25,5,-5,-13,-2,19,-22
50977764083,-29,-20,-13,-7,9,3,2,-3
50977764083,0,-28,3,1,-2,-3,-18,-2
50977776795,-8,-12,-4,-2,2,0,1,0
50977776795,26,4,-3,1,-4,-3,-5,-5
50977783794,3,28,4,2,-2,1,-6,-2
50977783794,16,5,-5,4,5,0,6,11
50977799308,-18,-2,0,-5,-1,0,-5,-27
50977799308,32,-6,-8,-6,2,2,-8,22
50977806219,-42,2,3,2,-4,-3,24,-12
50977806219,29,3,-4,-5,-3,-6,-2,4
50977822660,-8,-3,-4,-2,-6,-3,0,8
50977822660,-9,-30,-5,-2,3,1,-10,1
50977824050,32,7,9,5,3,1,-3,-6
50977824050,-6,3,-4,3,-2,2,10,8
50977836991,-25,0,-3,-2,2,-1,9,-5
50977836991,28,10,-2,2,0,-3,-9,-11
50977843757,5,3,1,-3,-2,-1,0,-5
50977843757,0,-8,-10,-7,-11,-5,0,23
50977859521,15,-9,-1,-4,1,5,-16,-5
50977859521,-33,-18,1,-5,-2,-4,-6,-8
50977866273,12,-2,0,-4,-7,-4,-5,-11
50977866273,-9,4,2,4,3,1,-7,4
50977882594,12,7,0,4,3,1,10,1
50977882594,3,-9,-3,-1,-2,0,-8,-2
50977884084,6,11,2,3,0,0,-7,4
50977884084,3,-6,-1,-2,-3,-1,-1,-7
50977896949,24,12,5,9,3,3,-9,14
50977896949,-80,-4,-5,-4,-4,-2,25,-25
50977903787,8,7,2,2,-3,-4,0,-20
50977903787,7,-39,-4,-7,-2,1,-1,-4
50977919568,-10,-9,-3,-4,-2,-1,-5,-1
50977919568,20,19,3,4,1,0,2,8
50977926268,10,-2,-6,-1,-2,-1,0,6
50977926268,-10,9,2,-1,0,-1,-3,-10
50977942475,-19,8,0,3,2,-3,-10,-2
50977942475,26,-1,7,0,2,1,7,5
50977944039,-34,-13,-5,4,-5,3,22,17
50977944039,23,30,-1,-4,2,-1,8,-12
50977956798,15,-3,-2,-6,-4,-2,-17,12
50977956798,1,-32,-2,-3,-10,-3,-18,4
50977963783,2,-34,-6,-3,15,7,-7,-5
50977963783,-17,-7,-4,2,-1,-1,9,5
50977979538,9,15,1,2,-1,-2,17,-1
50977979538,20,21,1,2,-1,-3,-10,-4
50977986303,-4,11,3,-7,-6,-2,13,11
50977986303,10,2,-7,0,2,0,2,-3
50978002606,11,-10,-2,-3,-3,-4,4,0
50978002606,-71,-1,-2,3,1,2,-1,-20
50978004086,4,-12,-6,-4,-6,-6,-7,14
50978004086,4,18,10,-2,1,0,-11,-10
50978025008,-14,23,7,-2,-3,-3,8,0
50978025008,13,-35,-9,-1,-1,-2,5,3
50978026640,9,-1,-4,1,-3,-2,-14,-14
50978026640,-11,-13,-3,0,-3,0,0,5
50978039333,-8,5,5,2,5,0,-12,13
50978039333,33,43,5,3,1,-1,12,-5
50978046315,-9,-9,-5,-1,-2,-2,-13,-3
50978046315,30,-20,-2,0,-7,-2,-8,2
50978070016,-17,11,-1,-6,0,-1,2,-12
50978070016,5,-9,-5,2,3,-3,-20,8
50978071626,11,18,3,-1,3,0,26,-17
50978071626,-3,16,6,-3,-10,-5,-1,-8
50978077006,-20,-55,-11,-1,0,1,-10,-16
50978077006,3,-16,-8,-7,-2,-1,3,1
50978083784,41,16,3,1,-2,-2,-13,7
50978083784,-98,8,-5,2,8,4,8,-9
50978099490,16,1,-3,1,-1,-1,20,5
50978099490,17,-5,-3,-8,-6,0,-9,9
50978106225,3,17,7,5,2,4,-2,-2
50978106225,21,9,2,-2,1,1,-1,-1
50978122468,-17,-18,0,-3,-2,-2,6,2
50978122468,-8,21,2,-1,-3,-1,-8,-5
50978124093,10,-22,-6,-1,-3,-2,-3,17
50978124093,-6,-21,-5,6,5,-1,3,-9
50978136979,1,6,-6,-7,-5,-1,17,14
50978136979,78,5,7,6,3,4,1,-1
50978143813,-71,25,-1,-4,-2,-3,-7,-13
50978143813,17,-1,4,-2,0,0,-19,9
50978159462,-9,-12,-5,0,-3,0,5,-9
50978159462,1,20,0,-1,1,0,19,7
50978166384,6,-12,-6,-3,1,-1,-10,5
50978166384,4,-17,1,-2,-4,-2,-8,-5
50978190142,-3,17,-7,-4,-3,-2,7,8
50978190142,0,0,0,2,1,0,-3,-4
50978191640,-18,-1,0,-3,-6,-5,-7,-8
50978191640,-15,-4,-6,-8,-5,-2,7,-2
50978196355,3,-6,1,5,2,1,-18,-4
50978196355,-16,1,-9,-6,-10,-4,8,19
50978205123,1,-12,1,0,11,3,4,-4
50978205123,15,11,2,3,-2,-3,-11,4
50978219500,2,20,6,1,0,1,3,7
50978219500,-6,-7,-3,-1,5,1,-8,-1
50978226323,33,-6,1,0,-5,-4,-15,-29
50978226323,33,5,5,2,3,4,12,8
50978242627,-52,-11,-4,-4,-7,-3,-16,-8
50978242627,-28,5,12,3,1,-1,3,-11
50978244084,7,-10,-7,-3,-3,-2,-7,6
50978244084,1,-22,-5,2,5,0,-15,-14
50978256339,8,9,1,4,0,-1,2,-20
50978256339,-12,2,1,-5,-2,-1,3,4
50978265100,41,-16,0,4,-1,-2,-13,4
50978265100,-36,8,5,1,-8,-3,1,-11
50978279501,13,-14,0,1,16,8,4,0
50978279501,-4,14,-1,-2,3,0,0,-4
