timestamp,emg1,emg2,emg3,emg4,emg5,emg6,emg7,emg8
1523183321239500,2,-12,-6,2,0,-6,5,30
1523183321239500,-6,5,-16,-53,-10,-4,21,-7
1523183321240000,2,-13,1,20,8,1,-39,-7
1523183321240000,5,27,-16,-41,-3,-2,-15,-6
1523183321261564,-16,-40,4,2,-3,-5,-11,28
1523183321261564,22,-5,7,14,-10,0,9,0
1523183321262560,2,0,-21,11,7,7,22,-7
1523183321262560,-9,-41,22,-8,-2,-6,-17,5
1523183321276095,9,4,-5,-12,-13,-6,5,-45
1523183321276095,-8,29,-6,14,5,-1,-19,4
1523183321284122,4,8,-32,-6,0,-1,-8,-11
1523183321284122,0,-12,-11,-39,-3,-2,11,-4
1523183321299157,2,-2,10,0,2,8,4,-18
1523183321299157,-8,-16,13,17,2,0,-8,14
1523183321300163,-15,9,-2,-12,-7,-7,10,7
1523183321300163,17,3,5,29,-3,-8,-20,-3
1523183321321717,-13,7,-8,-19,1,3,12,-11
1523183321321717,4,16,-1,8,13,16,7,-5
1523183321322219,-9,-24,-12,5,-6,-1,22,15
1523183321322219,6,15,9,24,3,-2,-23,-25
1523183321335754,-7,-16,-7,-18,-11,-12,-4,12
1523183321335754,-8,2,0,16,-1,2,-16,-34
1523183321344278,6,-19,74,-25,1,1,3,2
1523183321344278,-1,6,-8,29,2,2,19,23
1523183321358817,2,12,6,-1,0,0,-5,-15
1523183321358817,-16,25,6,4,-7,-6,-6,-30
1523183321359818,8,-45,2,0,1,5,9,24
1523183321359818,-46,5,6,2,2,0,0,-5
1523183321381377,-5,-5,3,-17,-3,-2,-8,-3
1523183321381377,22,-5,-10,-2,-3,-14,23,0
1523183321382380,-13,10,-31,11,-9,-2,-29,-13
1523183321382380,1,22,-9,13,17,19,-5,-1
1523183321395914,-2,-20,3,-18,-1,1,0,5
1523183321395914,11,3,14,0,-5,-9,10,-2
1523183321403936,1,54,-17,11,-6,-8,-2,-2
1523183321403936,8,-39,31,18,4,1,21,-10
1523183321418983,-8,41,15,-16,-2,2,-19,-16
1523183321418983,24,14,15,-1,1,-4,0,38
1523183321419979,-1,-48,1,32,5,-2,-12,-4
1523183321419979,17,27,-52,-60,-11,4,4,6
1523183321441787,-28,-4,4,33,6,5,22,-7
1523183321441787,-18,-7,11,10,-1,0,-19,4
1523183321442290,8,25,-1,-22,9,4,26,7
1523183321442290,0,-11,4,45,-5,-9,-20,-5
1523183321472421,-3,-26,-8,-9,-6,-11,-27,4
1523183321472421,-1,-1,4,50,2,-6,13,-24
1523183321472872,-5,-21,-40,-66,2,26,-4,6
1523183321472872,12,-7,-38,-22,-4,1,9,52
1523183321479122,16,15,-5,23,-2,0,-5,7
1523183321479122,-7,12,3,-14,-13,-10,-16,-24
1523183321479890,-2,-23,7,84,9,-10,3,-17
1523183321479890,-16,-9,-8,-75,-10,-4,10,1
1523183321501448,-22,-6,-5,6,-1,5,17,3
1523183321501448,8,35,-27,-15,0,2,-8,0
1523183321502450,0,4,29,111,5,-3,23,-18
1523183321502450,-14,-10,-52,-23,-14,-9,-22,24
1523183321525119,-1,24,12,61,13,4,-4,-18
1523183321525119,-28,-26,0,26,4,3,17,-1
1523183321525512,3,9,8,-16,0,-2,7,-23
1523183321525512,5,24,34,91,11,4,-4,-21
1523183321539048,20,-11,12,-52,-13,-5,27,44
1523183321539048,-7,0,-2,-8,-1,-2,-35,20
1523183321540073,1,-3,40,-20,-5,-16,-26,-15
1523183321540073,11,11,18,5,10,15,9,20
1523183321561608,-27,-30,-36,-2,4,10,22,-17
1523183321561608,15,-28,8,-1,1,4,2,-21
1523183321562109,-7,24,-49,-27,-3,-3,52,5
1523183321562109,-6,-17,1,-46,-23,-26,-97,-18
1523183321584669,-17,22,22,23,9,4,-7,13
1523183321584669,-3,-39,-13,-20,-5,4,18,21
1523183321585673,-10,-3,-21,-63,-4,-2,-10,-19
1523183321585673,11,-22,44,76,17,6,26,12
1523183321599208,15,15,-16,45,10,5,-11,-2
1523183321599208,-3,-16,-25,-77,-28,-18,-23,-7
1523183321599711,-11,2,37,62,5,2,3,19
1523183321599711,2,-5,8,-44,-14,-9,6,-3
1523183321622771,0,3,11,5,0,-2,-19,-1
1523183321622771,-6,19,23,29,22,21,23,-8
1523183321623812,8,-39,-16,-7,-4,3,3,12
1523183321623812,-5,-27,-42,-18,1,-2,-9,-26
1523183321644830,8,-15,-2,-14,-15,-15,19,-18
1523183321644830,10,22,-8,4,2,-5,-44,18
1523183321645330,6,8,-53,-40,-8,4,-12,-2
1523183321645330,-4,36,2,22,5,1,23,12
1523183321658869,23,32,-6,-16,-11,-9,-20,11
1523183321658869,-12,-57,-8,30,-3,-5,22,-12
1523183321659871,12,28,-4,-60,-5,8,-11,29
1523183321659871,-14,0,8,27,3,2,26,-2
1523183321681426,0,14,-27,-3,5,1,-36,-21
1523183321681426,2,24,29,26,-1,0,41,-2
1523183321682428,-13,1,5,14,-5,-16,-65,-3
1523183321682428,12,17,3,-27,-7,2,19,-39
1523183321704987,45,-27,4,-13,1,6,-11,24
1523183321704987,2,17,-20,-11,-4,-4,-10,-7
1523183321705489,-4,-19,-3,-7,4,2,1,-23
1523183321705489,4,6,14,18,6,6,15,5
1523183321719025,-15,-30,2,17,-3,-7,-5,12
1523183321719025,-18,-23,1,-50,-11,-3,14,6
1523183321720028,19,4,45,14,-3,-3,-23,10
1523183321720028,-16,9,3,-14,-3,-5,-4,-18
1523183321741084,-5,10,9,40,-3,-6,14,4
1523183321741084,-13,-7,-19,-49,14,18,4,12
1523183321749106,-12,-6,-7,29,1,6,36,-1
1523183321749106,15,7,19,-1,-8,-11,-2,3
1523183321764646,-27,-22,-3,-15,-1,2,-43,8
1523183321764646,2,8,12,32,5,-7,-15,-38
1523183321765652,3,-1,-13,-5,-7,-9,-9,37
1523183321765652,-13,2,5,23,4,4,5,7
1523183321779421,11,16,-9,-60,-9,-4,23,10
1523183321779421,-10,11,7,11,2,-2,0,16
1523183321779685,-6,-19,-14,32,5,4,-1,-10
1523183321779685,-20,-34,-23,-53,-7,-2,3,-14
1523183321801747,-13,-13,6,-12,-3,-2,-5,8
1523183321801747,26,3,-12,-13,-9,-5,0,13
1523183321802247,-2,31,9,11,2,1,28,-30
1523183321802247,13,12,-2,34,18,7,-2,36
1523183321824808,5,10,4,-1,-8,-9,-8,-19
1523183321824808,-1,-14,17,-3,0,7,9,24
1523183321825809,-3,3,0,-7,-4,-2,-41,-3
1523183321825809,-3,-9,-7,5,-3,-1,4,7
1523183321838844,13,28,-5,-11,3,0,10,-4
1523183321838844,-13,-33,-23,-6,-15,-16,3,-7
1523183321839850,-29,-40,14,14,7,2,8,-3
1523183321839850,0,18,10,-22,6,12,1,1
1523183321861405,12,-30,-26,-57,-10,-3,2,-13
1523183321861405,7,52,-11,23,1,-5,-5,2
1523183321862446,10,-2,2,6,7,1,3,-16
1523183321862446,-2,-15,-15,-38,-21,-14,-11,6
1523183321884973,4,18,11,31,0,-1,8,-36
1523183321884973,-4,-10,-14,-30,3,7,21,17
1523183321885471,-2,4,-27,-13,-9,-7,-19,-1
1523183321885471,-1,13,15,29,2,-2,10,-19
1523183321899004,7,-41,16,5,-7,-3,-16,-9
1523183321899004,16,3,6,10,6,6,4,-5
1523183321900011,-13,6,-12,16,-8,-6,7,6
1523183321900011,13,25,1,11,4,3,9,-38
1523183321921566,-20,-9,-1,-2,2,-2,8,3
1523183321921566,-5,8,4,17,7,5,-27,-10
1523183321922567,1,-27,-7,-2,-11,1,15,37
1523183321922567,3,7,14,-4,12,-1,2,-12
1523183321944625,-15,13,-1,31,12,7,-13,-3
1523183321944625,22,-21,-14,-57,-15,-10,1,-19
1523183321945629,12,27,24,-15,0,-7,0,18
1523183321945629,2,-13,24,13,-3,3,-16,-3
1523183321959202,-42,2,-5,14,0,1,13,22
1523183321959202,-9,-2,14,16,6,-3,-28,-6
1523183321959666,-5,-5,-20,1,-4,-8,38,-28
1523183321959666,23,-12,-3,-15,12,23,9,53
1523183321981723,-20,5,-3,-3,3,0,-52,-14
1523183321981723,-10,7,14,11,2,-2,6,7
1523183321982225,20,22,5,-12,-11,-7,37,-28
1523183321982225,-32,-33,3,23,-3,-10,-67,9
1523183322004784,44,-32,-30,-8,0,3,6,-14
1523183322004784,-8,24,-4,18,-1,-5,-2,2
1523183322005787,0,-26,3,-64,-5,-2,-20,0
1523183322005787,1,25,-16,-1,1,0,42,-27
1523183322019324,-10,23,9,-11,-4,1,-14,24
1523183322019324,8,-4,4,19,2,-1,3,-11
1523183322019837,9,8,-15,-3,0,3,-4,2
1523183322019837,7,-1,-6,-27,-11,-9,-24,-24
1523183322041420,10,25,-19,13,1,-4,29,-7
1523183322041420,-12,5,9,9,11,15,-1,0
1523183322042426,7,4,-2,4,4,3,-2,-3
1523183322042426,-40,-30,-31,10,-5,-12,-22,-9
1523183322064949,11,-5,23,-15,-13,-11,-3,-3
1523183322064949,7,14,6,17,0,1,8,6
1523183322065447,-7,-10,-3,18,3,11,-8,5
1523183322065447,2,3,-14,-8,-7,-4,3,-15
1523183322078480,3,-1,-4,-3,6,7,60,-14
1523183322078480,-14,-10,-7,-4,-6,-9,-45,0
1523183322086502,-5,6,13,7,1,0,-2,10
1523183322086502,-16,0,15,16,2,0,42,13
1523183322101542,-12,9,1,4,-1,-5,-62,25
1523183322101542,-4,-33,12,-13,-4,-3,10,-9
1523183322102545,-1,39,-1,-4,-9,-8,-8,-5
1523183322102545,4,-57,22,12,10,11,13,-20
1523183322124643,13,21,22,37,8,9,23,36
1523183322124643,-6,-12,-47,-85,-29,-5,-22,4
1523183322125607,-24,-9,13,22,6,-8,-22,-6
1523183322125607,17,27,-1,5,-4,-5,23,24
1523183322138640,-3,-5,9,8,2,-4,-7,-18
1523183322138640,8,-13,38,22,2,3,9,9
1523183322146662,-4,-12,-15,-10,9,13,-7,-5
1523183322146662,3,13,5,17,9,0,-17,12
1523183322161703,3,-21,-27,-60,-22,-9,3,-12
1523183322161703,-29,20,-9,17,-7,-11,24,-10
1523183322162204,10,-18,-14,-18,-16,-11,-26,15
1523183322162204,8,15,-4,-8,6,11,0,-21
1523183322184763,4,-4,25,19,9,1,-1,11
1523183322184763,18,-12,-27,-7,0,-1,49,-6
1523183322185265,-16,37,34,45,12,-3,-27,-7
1523183322185265,-7,-46,-17,-5,-21,-5,3,-10
1523183322198306,0,15,-31,8,-2,-1,17,-35
1523183322198306,-21,-7,-29,27,4,-6,-19,34
1523183322206822,12,-12,-4,-21,-8,-1,5,9
1523183322206822,14,1,0,6,8,1,-17,3
1523183322221361,-5,-15,-3,-10,1,0,12,-2
1523183322221361,6,17,32,-5,8,9,-8,19
1523183322222364,-2,-2,-23,-2,-11,-5,-3,25
1523183322222364,-3,12,21,31,3,-7,20,5
1523183322244923,-8,-13,-25,-89,-15,-2,-40,-11
1523183322244923,11,0,-1,8,9,-2,-9,5
1523183322245425,17,-6,-10,-15,-6,-9,24,27
1523183322245425,-13,25,22,6,-9,-1,-7,-33
1523183322258462,3,-11,1,30,5,4,11,-6
1523183322258462,-3,-19,-6,-12,-7,2,20,-4
1523183322266481,5,5,7,-12,9,-4,-20,-24
1523183322266481,3,23,2,29,-8,-6,3,3
1523183322281521,1,-3,-6,-53,4,3,11,14
1523183322281521,-9,-33,0,21,2,1,-19,-19
1523183322282523,-10,-42,19,20,-2,1,15,-8
1523183322282523,6,1,-4,-19,-3,-7,13,20
1523183322304582,15,39,27,54,9,11,-19,2
1523183322304582,12,15,-7,-21,-8,-5,6,-25
1523183322305585,1,-9,23,5,11,10,21,-42
1523183322305585,-4,-9,-20,-18,-10,-9,-60,6
1523183322318619,-1,-7,7,-13,-7,-8,15,-3
1523183322318619,17,7,1,3,2,-2,-19,-5
1523183322326641,-14,14,-8,33,-4,-4,-6,-2
1523183322326641,2,3,5,-53,-3,4,6,-14
1523183322341680,11,-15,-8,15,-15,-10,17,-4
1523183322341680,-9,5,44,30,22,16,2,3
1523183322342182,-8,-13,-7,-16,-7,-5,0,3
1523183322342182,5,14,4,15,15,11,5,17
1523183322364747,2,18,-5,7,-1,-5,-6,19
1523183322364747,-12,-61,2,-1,-8,-1,14,-42
1523183322365746,-8,11,-14,1,7,10,-18,15
1523183322365746,-7,-17,4,-5,-6,-6,20,-19
1523183322387302,-7,10,6,17,1,-3,-31,-8
1523183322387302,-8,13,-1,8,1,-3,-5,-15
1523183322387803,-2,6,-3,-2,-1,-1,11,10
1523183322387803,-21,7,-14,3,0,1,-1,-33
1523183322401340,0,-13,-15,-38,-5,-2,22,-10
1523183322401340,-5,48,-5,10,-1,-1,-24,6
1523183322402342,3,-50,-46,-23,-8,-4,15,7
1523183322402342,6,3,16,13,-6,-2,2,6
1523183322424901,-11,-14,8,24,18,3,-19,-3
1523183322424901,0,4,-21,-18,-4,2,11,14
1523183322425403,14,35,8,14,4,-3,-13,-3
1523183322425403,-7,-22,-24,-27,-4,-1,-3,-25
1523183322447462,-11,-7,-9,-20,-7,-4,-2,27
1523183322447462,13,19,27,-14,-7,-9,-6,20
1523183322447964,-6,-12,5,-6,-1,0,16,-5
1523183322447964,0,-16,-15,12,-2,-7,-22,24
1523183322461499,3,-3,-12,10,4,11,19,-25
1523183322461499,-4,10,-12,-24,7,7,11,12
1523183322462501,-11,-30,11,7,-13,-14,-19,47
1523183322462501,-29,43,2,3,-4,-10,-4,-10
1523183322484561,37,-15,-21,-15,2,3,3,-2
1523183322484561,4,13,-11,29,-14,-9,51,-3
1523183322485564,5,15,6,-17,-4,6,-32,29
1523183322485564,9,-34,17,10,14,12,-8,9
1523183322507127,-37,13,17,23,0,-6,2,6
1523183322507127,-4,-33,-20,-25,-9,-4,-18,-4
1523183322508126,-1,14,25,16,4,-2,18,-28
1523183322508126,6,18,4,-9,3,1,25,38
1523183322521659,2,12,-3,15,-6,-3,-30,-25
1523183322521659,6,-16,10,9,-3,-2,1,-21
1523183322522161,-40,0,-22,-4,7,4,0,-10
1523183322522161,12,32,3,-6,2,0,11,-28
1523183322544787,1,-15,20,27,-8,-10,-9,11
1523183322544787,-1,12,-9,34,13,10,7,17
1523183322545723,9,22,-2,-19,1,5,27,-12
1523183322545723,8,11,7,21,4,1,-57,-18
1523183322567280,-6,-42,-53,-34,-5,-7,8,-10
1523183322567280,0,16,6,9,-1,-4,-12,-3
1523183322568284,1,-22,3,-4,0,5,-15,-10
1523183322568284,-4,-10,13,-1,-5,-8,15,-14
1523183322581316,-5,17,13,32,8,4,24,37
1523183322581316,4,-24,43,-26,2,7,-7,-11
1523183322582320,19,12,-20,-3,-1,-3,-9,-7
1523183322582320,-14,3,-8,-12,-6,-7,-10,-1
1523183322604880,-2,2,14,13,-7,-7,-5,-9
1523183322604880,-1,46,-13,-28,1,5,18,0
1523183322605382,-4,-20,15,21,-5,-3,-12,33
1523183322605382,-17,-46,-19,-11,-6,-5,1,5
1523183322627439,-11,7,-12,-3,-3,-5,-27,-15
1523183322627439,20,7,5,13,6,-1,33,8
1523183322627941,-1,16,-1,-1,6,6,-10,15
1523183322627941,8,-1,-15,4,-13,-10,-16,8
1523183322641478,-11,-5,8,16,8,6,25,-18
1523183322641478,-1,-17,-39,-13,-4,7,-20,32
1523183322642480,-4,17,16,4,6,1,1,-16
1523183322642480,8,-12,-2,-22,-2,6,31,-16
1523183322665041,-8,17,9,4,-3,-5,-39,7
1523183322665041,18,40,-13,9,-4,-13,8,-11
1523183322665544,-1,-80,32,-10,-10,-6,-9,-31
1523183322665544,-7,-11,-7,5,-1,4,-5,-35
1523183322687098,15,13,-19,-14,-1,3,-12,78
1523183322687098,-3,-8,-12,-4,0,-6,-32,-9
1523183322688104,-44,35,-34,-9,-6,-6,13,22
1523183322688104,-7,-1,18,-10,-2,-3,-2,-15
1523183322701676,36,-9,24,30,7,3,19,23
1523183322701676,-10,8,-28,-81,-16,-9,-11,-10
1523183322702138,20,8,-3,-5,2,-2,3,-24
1523183322702138,-17,-20,11,9,1,6,5,48
1523183322724736,-4,-7,-3,-8,5,7,-23,-19
1523183322724736,6,27,24,25,6,-4,19,-4
1523183322725878,8,37,-23,25,-4,-1,-24,-25
1523183322725878,-7,-18,-16,-29,-3,-1,-32,66
1523183322747258,1,15,4,-3,-3,-4,6,-31
1523183322747258,-11,-20,-12,15,-5,-7,-13,26
1523183322748266,2,-3,-1,-10,-5,-7,26,8
1523183322748266,18,37,-22,33,3,1,14,-19
1523183322761296,-5,-22,8,-4,-1,6,19,19
1523183322761296,-21,-55,-14,3,-4,-4,-2,-17
1523183322762299,3,21,14,2,2,0,-9,-23
1523183322762299,8,25,-4,-3,1,5,28,-29
1523183322784858,-7,-4,17,4,-3,-7,-11,-27
1523183322784858,21,-24,16,7,-1,2,8,27
1523183322785360,-12,-36,-8,-3,3,4,10,-8
1523183322785360,4,-19,-16,13,0,-5,6,38
1523183322807418,27,63,-5,-22,0,15,23,-41
1523183322807418,-4,-92,10,17,7,-5,-38,7
1523183322807920,-6,-9,-1,-14,-19,-13,-7,8
1523183322807920,-1,9,27,1,12,13,-5,-7
1523183322821456,8,20,-29,-13,-10,-10,0,6
1523183322821456,-15,-11,3,-3,-7,-4,0,2
1523183322822459,14,-8,14,9,17,14,-30,0
1523183322822459,0,2,1,-5,-4,-5,7,-57
1523183322844516,-12,-12,-39,-15,-2,0,14,20
1523183322844516,-6,11,10,13,-2,-3,-17,-47
1523183322845520,-21,21,-22,-5,-3,-3,12,37
1523183322845520,37,6,22,24,-1,-1,-17,7
1523183322867077,-11,-39,-13,-28,-2,-6,-5,-3
1523183322867077,-8,-9,-14,-2,1,9,23,-32
1523183322868081,25,-18,20,-2,-3,-1,-13,29
1523183322868081,8,9,1,0,-1,-2,-38,23
1523183322881616,-10,-18,4,8,-7,-9,13,-15
1523183322881616,-14,23,-44,-10,-2,-2,-3,11
1523183322882118,25,15,16,-12,3,3,11,-3
1523183322882118,-14,-26,1,-14,-6,-5,9,-6
1523183322904676,-16,5,-11,2,-6,-8,-20,29
1523183322904676,-4,-34,13,29,3,7,17,-26
1523183322905682,-5,16,-25,-14,5,10,19,20
1523183322905682,-9,-13,-10,-18,-10,-12,14,24
1523183322927236,-19,3,18,-1,-7,-10,-53,-18
1523183322927236,-1,15,33,40,12,-3,1,12
1523183322928239,8,4,-13,-17,-6,2,-15,-42
1523183322928239,-1,23,0,-4,-2,5,23,-19
1523183322941775,6,-43,8,5,7,5,-6,4
1523183322941775,11,56,29,-2,-4,-3,12,12
1523183322942278,-25,27,-51,-3,-5,-11,-24,-19
1523183322942278,-20,-6,10,-15,-5,-4,-1,16
1523183322964839,29,-8,-7,36,-1,-5,1,55
1523183322964839,2,-13,0,-98,1,10,-2,-27
1523183322965340,2,-17,23,23,3,2,28,-8
1523183322965340,-12,13,-19,-9,-5,-3,-17,38
1523183322987456,26,17,3,11,-1,0,-2,-8
1523183322987456,-15,-23,6,1,-3,-10,-3,-7
1523183322987960,10,12,22,6,-7,1,15,0
1523183322987960,-4,-11,20,5,18,16,23,-1
1523183323001032,-7,33,1,-28,-15,-4,-15,-24
1523183323001032,7,-14,-46,10,-9,-2,4,17
1523183323009057,-15,22,18,-8,9,-3,-28,-11
1523183323009057,8,-62,-10,7,-5,-10,-15,-23
1523183323024594,-13,-5,2,3,0,-5,6,24
1523183323024594,8,35,26,-25,4,11,-6,-4
1523183323025560,10,31,4,12,-2,-4,-14,16
1523183323025560,-5,-47,-17,-14,-7,-2,-14,14
1523183323047116,5,1,-10,6,6,-1,11,-36
1523183323047116,-4,6,7,11,13,9,16,10
1523183323048130,-5,-26,9,14,-1,-8,-5,-15
1523183323048130,-1,-11,-20,-17,7,8,3,22
1523183323060657,-15,4,-24,-16,-19,-10,22,-20
1523183323060657,0,7,6,5,-2,1,-41,14
1523183323069175,16,19,3,17,3,3,43,-59
1523183323069175,-12,4,3,8,-10,-10,-24,53
1523183323084717,6,-4,-3,-11,6,3,-8,-19
1523183323084717,-13,-26,26,14,-2,-7,-16,-4
1523183323085719,-17,-41,-3,-19,-11,-10,-8,-8
1523183323085719,19,29,-44,7,-2,-8,34,-19
1523183323107277,4,5,15,20,18,15,-24,-6
1523183323107277,1,36,-15,-30,-9,-1,7,-14
1523183323108278,-11,-54,-13,-4,1,-4,-3,64
1523183323108278,-11,6,-2,-12,-3,-9,14,-12
1523183323120838,-41,27,4,9,9,10,40,15
1523183323120838,-22,-33,-20,16,0,-6,-69,25
1523183323129073,2,18,10,2,1,1,8,-17
1523183323129073,-6,18,29,-6,0,-5,-24,26
1523183323145115,13,-32,14,-28,-3,-4,-5,-53
1523183323145115,-13,41,-3,5,-6,-4,14,-7
1523183323145376,1,-12,12,-6,2,3,-8,11
1523183323145376,-1,-3,22,18,-16,-4,11,-33
1523183323166991,-1,-19,35,9,15,12,36,27
1523183323166991,32,-18,26,10,1,14,2,-9
1523183323167994,-4,-33,-11,0,-1,-1,-26,25
1523183323167994,12,14,-28,-19,1,1,-9,-32
1523183323181033,-15,6,10,-7,-7,-14,-16,2
1523183323181033,16,35,-16,4,1,-1,-15,-17
1523183323189049,4,-23,6,-5,-4,2,17,-8
1523183323189049,3,62,-4,13,18,5,-16,21
1523183323204591,-1,-75,-18,4,-11,-4,-10,-23
1523183323204591,-7,24,-23,-14,-12,-19,34,32
1523183323205596,9,-17,-12,2,0,-3,-3,-15
1523183323205596,27,8,22,20,15,18,32,-15
1523183323227151,2,23,-7,-6,-11,-8,-67,39
1523183323227151,-5,27,-30,-2,-9,-5,37,-21
1523183323228155,6,17,26,5,-4,-1,-34,-5
1523183323228155,-7,1,-13,-20,-10,-4,12,-6
1523183323240688,-11,-53,15,14,21,24,27,-25
1523183323240688,13,-20,11,-41,-15,-11,13,13
1523183323249215,-29,-9,-33,-14,-9,-13,-14,9
1523183323249215,7,53,33,37,-25,-12,-2,-13
1523183323264753,1,3,-15,-36,28,16,5,-4
1523183323264753,-16,-25,-3,16,-11,-5,0,-5
1523183323265753,-2,-10,-20,-5,0,4,37,-1
1523183323265753,-10,-40,-1,5,8,16,-10,-5
1523183323287352,-7,29,36,24,-1,-6,13,3
1523183323287352,3,24,1,1,2,-3,-28,-25
1523183323287814,23,-31,26,-5,-8,-13,-23,-15
1523183323287814,-61,-5,-66,-14,4,-1,-21,-30
1523183323300847,-7,3,-15,-20,-20,-7,44,14
1523183323300847,-9,-1,-17,4,14,9,-4,-11
1523183323309871,9,58,30,4,-1,-4,1,-17
1523183323309871,7,39,6,0,-3,-14,-43,41
1523183323323446,-6,-59,-35,-7,-8,3,46,-17
1523183323323446,8,29,-2,-4,-7,2,-4,21
1523183323332432,-15,-69,-43,-18,4,8,8,4
1523183323332432,9,5,13,-4,12,4,13,-23
1523183323347473,4,-15,7,6,-19,-14,-13,3
1523183323347473,3,-2,40,12,0,-9,-8,9
1523183323348976,-10,-28,4,18,10,12,29,37
1523183323348976,11,16,6,2,0,2,17,-48
1523183323369765,-4,35,-19,-12,-5,-12,-83,-42
1523183323369765,35,8,-2,37,12,-1,-8,63
1523183323371570,-12,-41,-30,-82,-11,-4,21,-11
1523183323371570,-15,3,3,0,7,-4,2,-19
1523183323383565,5,-5,-13,12,-11,0,10,1
1523183323383565,-8,-25,-4,7,1,11,-3,-1
1523183323392592,-22,56,27,2,-3,-8,1,-19
1523183323392592,9,-58,-1,-6,3,-5,-22,22
1523183323414651,11,57,33,5,10,8,12,11
1523183323414651,-19,-98,-53,-2,12,11,8,-29
1523183323416156,41,62,-2,7,-8,-2,9,20
1523183323416156,-7,-48,-25,-12,1,-2,-16,-33
1523183323429689,-10,26,25,26,5,-9,13,22
1523183323429689,5,13,21,-15,7,-2,8,-7
1523183323431193,-3,-11,16,24,-1,1,-37,-22
1523183323431193,-13,4,0,-28,-22,0,-4,-2
1523183323443228,20,59,2,3,4,1,22,9
1523183323443228,-8,-26,-13,2,-16,-12,-13,-7
1523183323452249,-6,5,-23,-25,-19,-12,-5,17
1523183323452249,22,4,18,18,8,14,6,7
1523183323467291,-24,5,4,1,-1,3,0,20
1523183323467291,-54,-46,-13,0,3,-5,-7,-52
1523183323468793,10,40,-6,16,7,-3,-12,1
1523183323468793,19,41,-1,-7,-19,-6,21,16
1523183323489849,7,-45,-9,-2,12,16,-9,0
1523183323489849,-26,1,11,8,-4,-4,6,-22
1523183323491355,-1,42,3,-4,-4,2,23,-5
1523183323491355,12,-9,3,13,3,2,24,-2
1523183323503888,-5,-26,5,-13,-1,-8,-17,1
1523183323503888,10,-4,-16,-23,-9,-14,-50,38
1523183323510905,5,-37,-12,31,7,3,-2,-30
1523183323510905,3,3,19,30,9,12,32,43
1523183323527449,-5,23,4,11,4,2,-8,-39
1523183323527449,7,2,28,-12,-4,-9,13,-18
1523183323528953,3,15,12,11,-13,-11,-9,5
1523183323528953,4,-34,-44,6,15,34,3,3
1523183323549509,4,28,-1,-24,-4,-3,-9,-3
1523183323549509,3,-49,20,1,-9,4,33,19
1523183323551545,-7,25,-64,-1,-2,-13,-28,-29
1523183323551545,-20,-37,2,-17,-10,-22,-48,32
1523183323564046,12,51,-34,19,-4,1,11,18
1523183323564046,-11,-2,-19,-16,-14,-11,-13,-13
1523183323571065,6,35,43,-1,7,7,23,0
1523183323571065,21,-42,4,19,-2,2,4,21
1523183323587109,-11,-8,-29,-12,-5,-5,-17,-21
1523183323587109,16,24,13,22,18,5,13,10
1523183323588613,-4,52,-24,18,5,14,10,11
1523183323588613,-19,-20,11,-39,4,-4,-17,-45
1523183323609667,-1,-16,14,14,-17,-21,-1,17
1523183323609667,9,38,-15,33,1,10,15,-3
1523183323611176,-2,-14,54,-11,14,20,1,-20
1523183323611176,23,70,8,0,-2,-10,-5,64
1523183323624245,-3,-20,19,-9,-5,-10,-14,8
1523183323624245,-12,21,18,39,3,-2,-11,-25
1523183323631009,-20,-26,-20,-53,-6,0,6,-19
1523183323631009,10,10,4,14,-5,-5,2,40
1523183323647559,5,35,18,9,1,3,7,17
1523183323647559,3,-26,-25,-23,9,-5,-17,17
1523183323649056,-18,-27,0,-2,-22,-11,8,-18
1523183323649056,1,7,-64,-22,-6,1,7,-22
1523183323669612,-11,-17,3,3,-4,-3,12,-1
1523183323669612,22,37,34,1,8,11,-9,20
1523183323671617,6,-20,9,30,16,14,56,0
1523183323671617,-24,-22,27,-32,-8,-15,-50,-30
1523183323683648,17,-25,16,36,5,-2,17,-1
1523183323683648,-5,21,14,-12,2,19,31,-5
1523183323692171,-6,-33,-1,0,-3,-4,-5,-5
1523183323692171,-11,6,27,28,-5,-12,-31,-22
1523183323707212,-5,1,-11,3,26,10,-2,34
1523183323707212,-47,-58,-1,-11,-18,-6,54,27
1523183323708714,-20,8,14,-2,0,-7,-62,-12
1523183323708714,-4,0,-4,15,-4,4,27,-31
1523183323729771,-29,3,-61,-26,-12,-1,-22,-36
1523183323729771,29,58,-8,-10,7,3,2,-17
1523183323731274,31,25,-6,8,14,6,-16,26
1523183323731274,-31,-68,1,17,-1,-9,16,-16
1523183323744486,1,-10,-17,-21,1,-1,4,-35
1523183323744486,-1,10,12,-2,-19,-15,-17,15
1523183323750826,11,2,-22,-53,-8,-1,-11,31
1523183323750826,2,34,0,3,9,6,9,-18
1523183323767371,11,-16,-16,9,2,10,90,-32
1523183323767371,6,-14,-1,5,-1,-18,-75,-17
1523183323768874,11,5,17,21,1,-2,27,19
1523183323768874,-7,30,-19,-15,10,19,-20,-40
1523183323789682,32,-87,43,-3,0,1,-8,41
1523183323789682,-11,-4,-30,-7,-3,-9,-11,-11
1523183323791186,-15,14,-9,-19,-7,-4,16,13
1523183323791186,33,24,6,-2,-14,-6,59,6
1523183323804220,-9,29,-2,21,-7,7,-20,2
1523183323804220,23,54,-22,-33,7,4,-4,-64
1523183323810973,1,-41,33,29,-3,-4,-81,25
1523183323810973,-23,-35,-81,0,8,-7,10,-1
1523183323827320,-14,37,18,-20,-10,-3,-13,18
1523183323827320,26,-33,32,17,10,4,28,6
1523183323829325,-9,19,20,8,8,-6,-7,-23
1523183323829325,0,20,-26,-15,-24,10,-8,28
1523183323849842,7,-9,58,10,4,-6,-45,13
1523183323849842,29,-20,15,6,0,1,14,-33
1523183323851346,-34,-35,-34,7,-9,-10,11,-24
1523183323851346,3,-9,39,21,5,-14,-24,48
1523183323863384,9,82,-36,-14,3,13,28,-6
1523183323863384,10,-21,-15,-21,6,3,3,41
1523183323872403,3,-37,-16,5,-2,-3,-10,22
1523183323872403,-11,4,37,-21,-7,-8,-1,-25
1523183323886941,8,-8,-33,-8,-6,-14,-36,-31
1523183323886941,-11,25,-12,1,-6,-8,6,29
1523183323893458,17,38,-30,2,3,25,15,17
1523183323893458,1,-48,47,0,1,9,13,2
1523183323909786,1,7,-30,-6,10,2,-5,-7
1523183323909786,-36,4,39,-3,-6,-3,39,-37
1523183323911292,-9,-12,10,28,-3,-14,-55,-10
1523183323911292,21,40,-31,-3,-10,-14,-15,7
1523183323923360,7,9,30,-4,-6,13,33,-4
1523183323923360,-33,-32,-14,-3,0,2,-3,85
1523183323932346,5,-5,-10,5,8,5,23,-7
1523183323932346,-2,-5,34,-15,-1,-1,101,8
1523183323947394,-1,-6,-48,-2,2,-13,-109,5
1523183323947394,18,30,5,10,-1,5,16,-18
1523183323948890,0,27,7,-16,1,4,-37,24
1523183323948890,-24,-16,-5,17,2,-4,7,-6
1523183323970589,-1,-57,6,-6,-5,-9,18,-26
1523183323970589,-16,26,-38,-9,-9,-7,-22,26
1523183323971951,20,4,-59,-43,1,0,15,13
1523183323971951,-1,20,9,-10,-4,5,-15,13
1523183323983481,1,19,14,9,14,2,0,10
1523183323983481,7,-46,-31,-5,-15,-5,1,-19
1523183323992506,-13,-70,26,-8,-33,-22,40,-34
1523183323992506,-7,-32,6,13,33,31,49,19
1523183324007046,-3,28,14,19,-5,4,-73,-39
1523183324007046,10,10,-11,-3,1,-5,22,-12
1523183324009049,-9,17,-35,-50,-2,-9,21,-2
1523183324009049,9,1,9,2,-6,-4,-45,-4
1523183324029604,2,-24,-5,-2,-7,-9,19,-11
1523183324029604,7,57,22,12,2,0,1,-25
1523183324031108,-12,-32,25,34,16,6,-10,0
1523183324031108,41,16,-45,-22,-8,-3,30,7
1523183324043790,49,-104,-47,-20,-2,-6,-1,-2
1523183324043790,-65,-22,30,29,-22,-9,-17,-22
1523183324052164,40,91,-33,-6,8,13,74,-26
1523183324052164,0,-28,-13,-10,-7,-22,-97,8
1523183324067205,-34,69,2,0,-16,-26,39,4
1523183324067205,23,-18,13,12,15,27,-3,46
1523183324068709,50,-38,24,14,29,39,7,-26
1523183324068709,-41,-17,25,37,9,-5,4,20
1523183324089765,5,28,-7,-83,-30,-16,-14,28
1523183324089765,15,88,9,-7,-7,-15,20,3
1523183324091270,-57,-69,21,19,1,-3,-18,-13
1523183324091270,15,20,-9,1,2,-2,-35,-52
1523183324103299,-54,3,37,10,3,1,50,10
1523183324103299,37,47,7,1,1,-10,-51,-9
1523183324112326,21,40,-18,-9,-8,4,0,7
1523183324112326,-64,-71,-12,14,17,18,38,-26
1523183324127364,-32,-45,-1,-13,-27,-12,2,-38
1523183324127364,-9,-27,-3,-3,6,-12,-2,-32
1523183324128868,12,29,-1,6,-12,-2,-55,34
1523183324128868,-8,47,2,22,17,12,27,-21
1523183324149924,15,6,7,20,22,12,20,24
1523183324149924,-24,3,30,-7,-4,0,-27,1
1523183324151429,-1,-9,-16,2,-14,-30,3,-15
1523183324151429,1,29,-48,-53,-22,-19,16,18
1523183324163470,28,9,-21,14,2,13,-17,4
1523183324163470,-4,4,8,-6,0,5,3,-1
1523183324172483,-29,-71,36,22,11,2,21,-13
1523183324172483,10,33,-2,-27,-9,8,-22,45
1523183324187024,5,51,19,23,14,-8,-28,-6
1523183324187024,13,-70,-18,-23,-8,0,15,3
1523183324189067,14,54,30,18,11,8,24,22
1523183324189067,17,-12,-4,4,-6,-17,-21,-40
1523183324209584,29,71,39,-1,8,21,47,12
1523183324209584,39,-76,-45,24,2,-2,-15,5
1523183324211588,-42,22,13,-5,-8,-5,68,20
1523183324211588,-8,-97,9,-28,-6,0,-74,-23
1523183324223619,6,18,17,6,9,8,1,56
1523183324223619,-14,-8,-9,-8,0,1,-1,8
1523183324232643,2,34,-12,-3,-12,-16,3,-33
1523183324232643,44,65,32,22,2,-8,-27,-16
1523183324247183,-31,-93,22,18,14,12,38,6
1523183324247183,-8,7,-16,-3,2,1,5,-36
1523183324248687,-8,10,17,-3,-3,0,-67,17
1523183324248687,-20,-34,0,7,-6,3,31,-8
1523183324269742,-30,-110,-33,-41,-2,5,8,-48
1523183324269742,14,49,-25,0,4,-11,-38,51
1523183324271246,29,-16,-22,-12,-5,-8,-14,-13
1523183324271246,10,-17,7,16,-6,4,32,14
1523183324291303,6,19,-6,57,22,12,-42,-9
1523183324291303,-36,-24,-75,-68,-22,-7,9,-35
1523183324299823,39,37,-1,1,1,1,-3,-30
1523183324299823,-13,28,6,6,1,-10,-10,-13
1523183324307578,7,43,23,16,-22,-14,-34,7
1523183324307578,83,-19,37,14,15,21,50,29
1523183324308847,-33,-54,-52,-17,-13,-17,-60,13
1523183324308847,-6,14,-23,6,-4,-15,30,-50
1523183324329901,0,3,-64,-28,3,15,20,20
1523183324329901,-1,69,44,32,24,25,-19,-15
1523183324331407,-33,-120,44,-77,-24,-21,-8,89
1523183324331407,-10,-25,22,20,4,2,7,11
1523183324352461,5,33,22,-5,10,9,27,18
1523183324352461,-40,-76,1,-26,-3,-9,9,-34
1523183324353966,22,-27,-46,23,-14,-21,-61,-21
1523183324353966,-32,43,-17,-13,-15,11,-16,0
1523183324367578,6,-34,13,-18,-8,-3,29,-57
1523183324367578,-11,8,-58,-1,-4,-1,-32,69
1523183324369044,1,16,23,12,8,-1,21,-4
1523183324369044,9,-10,14,-2,0,-3,16,18
1523183324389570,-6,-4,-8,-7,-1,-7,-42,-12
1523183324389570,-5,16,31,45,-1,2,23,5
1523183324391566,-30,13,-3,-4,3,7,8,-20
1523183324391566,18,-14,-4,3,-10,-9,-15,15
1523183324412358,-12,31,-7,-14,7,0,15,-12
1523183324412358,-7,-13,40,33,9,6,17,-34
1523183324414127,4,87,24,8,1,9,14,-8
1523183324414127,19,31,25,-17,2,-4,3,-2
1523183324426661,-29,-64,-3,10,-22,-14,-13,4
1523183324426661,-22,-27,-15,-14,-1,-1,1,1
1523183324433219,-6,67,11,15,19,33,26,-81
1523183324433219,-3,25,-15,-6,2,-10,-29,86
1523183324449725,13,-3,46,-1,-11,-16,-16,-4
1523183324449725,14,10,16,-6,-9,-8,-6,-4
1523183324451225,-13,5,-12,15,4,0,15,43
1523183324451225,6,7,6,-15,1,-4,2,-5
1523183324472281,-13,33,-7,9,-2,-4,19,48
1523183324472281,2,-49,-65,-21,-2,7,-2,-27
1523183324473785,-13,43,-16,-3,-4,-7,-8,12
1523183324473785,-7,-48,6,10,8,5,1,-23
1523183324486819,29,61,-22,-7,-17,-9,-6,19
1523183324486819,-20,7,-4,-6,-3,-4,4,-25
1523183324493337,43,3,-25,-7,2,8,44,31
1523183324493337,-17,-26,1,8,2,-8,-54,-26
1523183324509884,2,-5,-12,28,3,-4,11,6
1523183324509884,8,38,-15,-82,-12,-8,4,44
1523183324511386,-12,-17,9,17,1,0,16,-74
1523183324511386,45,53,8,12,15,11,-61,-13
1523183324531939,4,-47,8,-5,0,-9,-62,33
1523183324531939,-45,-5,27,27,-1,-6,7,9
1523183324533945,62,15,-8,-6,4,5,-1,12
1523183324533945,-8,-71,29,-16,-8,-1,33,-21
1523183324546486,-12,-14,-8,13,3,-5,11,-24
1523183324546486,-1,22,21,19,7,3,-17,-5
1523183324553497,-17,-8,2,-1,1,1,-11,15
1523183324553497,-8,-40,-28,16,-6,-1,19,16
1523183324569778,-5,9,-54,-28,-4,0,2,-4
1523183324569778,-3,-54,46,33,-5,-10,-6,4
1523183324571587,-7,8,5,-56,-3,-3,1,-3
1523183324571587,16,27,17,10,4,12,15,9
1523183324592118,-20,-8,8,7,-3,4,43,-24
1523183324592118,-18,-19,-17,-6,-2,-6,-66,-4
1523183324593603,-16,-18,-12,-18,-1,1,-11,0
1523183324593603,-14,14,-4,-3,3,-3,17,-49
1523183324606638,-1,-17,0,-4,-20,-10,12,62
1523183324606638,8,22,1,10,9,1,-46,-30
1523183324613161,6,16,21,13,1,-4,-16,5
1523183324613161,-5,-42,-24,-15,3,7,14,-22
1523183324629706,-13,35,-22,-11,3,-1,16,-2
1523183324629706,23,-11,51,-8,-3,4,29,19
1523183324631203,-8,-26,9,17,4,-1,-9,5
1523183324631203,7,20,-13,-13,-2,-4,4,-6
1523183324652260,-5,-9,4,-11,-11,-8,-16,-23
1523183324652260,-1,-16,-69,-5,6,5,10,12
1523183324654264,5,-10,-6,-7,-6,-8,-8,-4
1523183324654264,-11,45,7,-7,-13,-6,10,17
1523183324666802,6,-23,1,0,8,7,3,-15
1523183324666802,-3,24,-6,-4,-2,-4,6,4
1523183324673316,0,-11,3,17,1,4,10,-30
1523183324673316,3,11,10,15,3,0,-16,33
1523183324689859,9,17,-4,-26,-4,-6,0,-15
1523183324689859,1,-25,43,7,-4,1,-8,-23
1523183324691364,19,7,-7,21,7,6,6,14
1523183324691364,-9,-9,2,-52,-27,-17,-5,7
1523183324712420,1,19,20,64,19,13,-4,-14
1523183324712420,-1,-15,11,22,11,17,32,2
1523183324713925,4,-92,-45,-23,-6,-5,-14,6
1523183324713925,-6,8,-16,-1,3,-3,9,5
1523183324726958,-1,-12,4,16,-9,-12,-44,-13
1523183324726958,14,47,9,-2,4,-6,15,-8
1523183324733475,-18,12,0,-49,-11,-7,-11,27
1523183324733475,6,24,2,28,-3,-2,4,-7
1523183324749518,-3,-24,-17,-25,10,13,6,-15
1523183324749518,-8,-2,-1,3,-4,-1,33,-11
1523183324751524,-29,-3,12,5,-5,-7,-62,39
1523183324751524,17,4,-3,15,-3,-5,17,4
1523183324772120,19,40,4,-3,9,-6,-7,13
1523183324772120,2,2,-23,-15,-5,5,-2,-39
1523183324773582,4,-81,13,11,5,7,57,14
1523183324773582,-20,1,-13,8,-4,-3,-41,-2
1523183324786114,-14,12,-24,0,6,-8,-7,-5
1523183324786114,5,24,21,-12,-21,3,5,17
1523183324794638,3,41,-1,8,9,3,27,-21
1523183324794638,7,4,4,58,11,3,-16,-6
1523183324809678,-4,-20,-6,-73,-11,-13,5,-5
1523183324809678,-2,32,0,16,26,-17,-10,5
1523183324811753,2,-8,-20,-19,-67,10,9,0
1523183324811753,-8,-6,-7,0,5,4,4,-1
1523183324832237,1,-13,13,16,3,9,-6,1
1523183324832237,-7,5,-3,0,2,-15,-11,9
1523183324833742,-6,14,-6,16,25,-6,-16,-10
1523183324833742,-1,17,3,-19,-6,8,25,-34
1523183324845774,5,-25,15,32,-1,5,43,13
1523183324845774,-6,-37,-41,-45,-8,-8,-73,67
1523183324854798,-8,13,4,8,4,-8,-15,-19
1523183324854798,16,18,-2,-49,-1,5,9,-15
1523183324870070,8,27,23,19,7,6,0,-12
1523183324870070,2,18,-22,7,-3,10,34,-2
1523183324871386,-14,-12,26,24,10,3,0,0
1523183324871386,-1,-22,-16,-55,-7,-10,-20,3
1523183324892613,-10,-4,3,-8,-4,-2,4,0
1523183324892613,-2,-7,-4,2,-15,-1,5,2
1523183324894121,9,21,-9,16,31,-4,-1,-6
1523183324894121,-2,17,-8,2,-8,15,12,-2
1523183324905934,2,-13,24,8,-12,-3,-13,10
1523183324905934,3,-6,29,18,-3,-5,-2,-1
1523183324914958,-3,8,-27,-12,-8,-9,-5,-17
1523183324914958,0,9,16,8,-9,-14,-4,10
1523183324929498,-4,-21,-25,-3,32,11,6,-4
1523183324929498,-9,-14,-7,-8,-13,-6,14,-54
1523183324931501,-11,-1,4,7,13,11,8,6
1523183324931501,0,-21,-24,-46,-14,-5,-21,29
1523183324952058,0,0,18,12,-12,-4,-7,-17
1523183324952058,1,11,1,5,12,8,48,-23
1523183324954061,-22,-19,8,-35,-6,-17,-53,-6
1523183324954061,8,7,-1,25,3,-5,8,-24
1523183324965591,-9,-28,-23,-44,-12,3,-20,12
1523183324965591,-4,7,-26,-3,7,11,11,15
1523183324975117,3,-8,24,21,-2,3,17,-7
1523183324975117,1,12,-14,3,7,0,-2,2
1523183324989656,5,18,24,27,-1,-3,3,0
1523183324989656,0,-31,-35,-24,-13,-8,-12,3
1523183324991160,8,-1,3,7,-3,-7,5,10
1523183324991160,-4,-19,4,14,5,2,-3,-4
1523183325012217,6,31,-9,-10,-6,2,27,-14
1523183325012217,-11,-34,-21,-17,-7,-4,-33,14
1523183325013721,5,6,30,19,6,12,16,-36
1523183325013721,-32,-11,-16,6,5,-6,12,70
1523183325025752,10,16,-54,12,-5,-8,-50,-18
1523183325025752,0,-4,44,5,9,3,6,-5
1523183325034776,3,9,-23,3,-15,-8,-7,5
1523183325034776,5,-3,-9,-25,8,6,24,-23
1523183325049855,0,5,-6,5,-7,-1,22,-11
1523183325049855,-13,36,-67,14,-6,-14,-43,24
1523183325051320,17,32,-23,13,0,13,28,12
1523183325051320,-3,-34,6,5,15,16,-2,-5
1523183325079899,-11,-10,19,-8,3,3,36,-11
1523183325079899,30,29,-4,13,1,-7,-49,0
1523183325081400,9,-15,15,-3,-9,-12,-1,5
1523183325081400,21,27,-23,-21,-13,-11,-7,-19
1523183325085913,-8,-79,26,36,14,3,3,21
1523183325085913,-3,-13,14,-73,-15,-5,-15,23
1523183325094936,-7,13,-30,-60,-26,-10,-2,0
1523183325094936,24,7,31,31,12,10,22,-13
1523183325110137,-12,18,10,-2,4,0,-32,10
1523183325110137,8,27,12,19,7,7,33,11
1523183325111715,8,-11,21,28,12,-1,-16,6
1523183325111715,-21,-56,14,-14,-14,-7,6,-38
1523183325132033,-8,21,-77,-8,-14,-16,-22,27
1523183325132033,-28,25,22,36,0,12,17,18
1523183325134040,15,8,3,-13,-4,7,8,-7
1523183325134040,4,-3,11,44,11,-3,-19,-6
1523183325146076,-6,21,-27,-16,-16,-5,4,3
1523183325146076,3,-40,-30,-10,14,-1,-11,-26
1523183325154595,-19,-4,-24,-27,2,4,9,6
1523183325154595,30,14,-24,-12,-12,-11,0,7
1523183325169633,25,-9,28,-4,10,14,-25,21
1523183325169633,17,19,20,6,-3,-3,42,-33
1523183325171139,-4,23,12,18,-2,-2,-15,-13
1523183325171139,-2,-39,-4,1,2,2,-5,15
1523183325192195,-21,2,-22,-7,-16,-8,-7,-24
1523183325192195,5,-33,60,40,-4,-6,14,-22
1523183325194266,-4,22,-1,-6,9,6,11,7
1523183325194266,-35,9,39,-3,3,-1,7,5
1523183325206274,34,-7,6,-29,2,1,-22,-17
1523183325206274,-1,-24,-12,-5,-5,1,20,-9
1523183325214754,-15,-31,2,30,-3,-14,-29,20
1523183325214754,-15,23,-7,-38,-9,2,6,-37
1523183325229294,3,4,1,5,6,3,4,40
1523183325229294,19,30,11,-8,-3,-5,30,0
1523183325235811,-13,-37,42,5,9,13,-17,-14
1523183325235811,8,7,14,38,12,5,-21,14
1523183325252354,-21,7,-20,-17,-6,8,32,-11
1523183325252354,21,12,22,-54,-34,-17,-22,-17
1523183325253858,3,-17,17,26,1,-5,15,-22
1523183325253858,-3,1,-14,11,-2,-7,-26,41
1523183325274703,-8,47,-26,10,7,-5,16,-26
1523183325274703,-21,-79,15,55,11,4,-27,-14
1523183325276205,2,1,-57,-102,-12,-5,12,2
1523183325276205,-24,-8,11,4,-5,-1,0,-49
1523183325289741,14,4,5,-38,0,-2,0,36
1523183325289741,5,23,-23,15,6,10,-17,-21
1523183325291245,-2,10,0,24,2,-1,24,-9
1523183325291245,3,22,-4,2,-2,-11,-49,9
1523183325312300,-10,-59,36,26,-9,1,17,-21
1523183325312300,-1,-4,-26,-4,21,9,20,18
1523183325313806,-11,-27,24,-4,-15,-15,-12,-35
1523183325313806,-7,17,-6,-23,4,27,19,42
1523183325334863,11,-42,14,6,-1,-2,1,-6
1523183325334863,-6,27,35,19,3,-4,-10,43
1523183325336366,-3,5,-53,13,2,-4,6,-23
1523183325336366,-17,-18,-35,-15,-19,-13,23,-9
1523183325357421,-7,1,37,7,0,-6,-56,14
1523183325357421,27,31,-1,-6,4,1,7,45
1523183325358925,-26,25,31,12,9,-1,-7,-24
1523183325358925,-1,-54,-5,10,-5,-10,11,-1
1523183325372462,-27,-39,-23,-36,2,6,4,-29
1523183325372462,-21,1,-21,-15,-1,4,-9,19
1523183325373965,39,26,-10,16,6,-2,-4,18
1523183325373965,11,20,4,-25,-10,0,-7,3
1523183325394754,-9,54,-2,46,12,-3,46,-11
1523183325394754,9,-67,42,8,2,15,-48,-20
1523183325396530,-3,12,34,-18,-16,0,1,24
1523183325396530,-6,11,-26,17,6,-5,-1,-9
1523183325409291,-13,-32,-3,18,-7,-7,13,-16
1523183325409291,23,34,-14,23,14,6,-6,7
1523183325416076,9,-2,-6,-7,-4,1,-6,29
1523183325416076,10,-3,17,44,-3,-6,1,-10
1523183325432118,-4,-9,59,3,-1,5,62,4
1523183325432118,26,29,0,-2,1,-1,-37,-22
1523183325433624,1,-30,-17,36,3,-4,-11,6
1523183325433624,15,1,-7,-52,-12,-10,-2,-11
1523183325454679,-16,13,-37,-29,-1,11,-7,-3
1523183325454679,-17,-10,-11,22,-4,-6,7,-15
1523183325456724,5,21,-23,-18,-3,2,26,-19
1523183325456724,4,14,-10,6,7,1,-31,17
1523183325469218,10,-17,-8,-4,-6,-4,-22,8
1523183325469218,-13,1,-22,3,-11,-11,9,0
1523183325475778,-8,6,-38,-69,-15,-3,-11,-9
1523183325475778,-15,1,18,28,9,11,39,-10
1523183325492514,1,9,3,7,-3,-12,-44,-22
1523183325492514,-17,19,4,65,0,3,16,1
1523183325493783,5,-7,7,-28,0,-1,-5,12
1523183325493783,-3,-17,-25,-93,-12,-6,2,8
1523183325514839,-6,15,19,12,-7,-5,-20,-8
1523183325514839,-15,6,17,13,8,6,31,4
1523183325516343,-7,-24,-1,35,-10,-5,-14,-26
1523183325516343,-1,13,19,81,19,0,11,15
1523183325528878,22,17,3,25,6,11,17,11
1523183325528878,-16,23,-38,-59,-10,-3,14,7
1523183325535896,19,-17,23,62,5,-9,-63,7
1523183325535896,3,-25,59,-1,-18,-16,-6,-13
1523183325559692,-3,-1,-15,-14,-5,-2,13,6
1523183325559692,16,8,11,30,21,25,34,1
1523183325561463,-16,10,27,2,-7,1,24,-33
1523183325561463,-10,-4,-8,29,-2,-4,-19,-20
1523183325574498,22,-5,0,-22,6,-1,-16,36
1523183325574498,-5,3,11,-34,-21,-13,-39,4
1523183325576509,5,-28,-14,72,23,7,10,6
1523183325576509,-9,-35,-11,-36,-19,-2,-5,-13
1523183325589036,-59,11,2,-25,-3,-5,19,5
1523183325589036,-22,2,-16,-82,-12,-3,21,-9
1523183325596055,5,-30,-12,43,10,7,-35,-13
1523183325596055,-7,10,5,46,4,-6,-19,-16
1523183325612098,29,3,-10,26,-4,2,-3,20
1523183325612098,-8,-17,29,16,1,-5,25,-4
1523183325613603,-6,22,24,32,8,8,12,25
1523183325613603,7,1,-16,-68,2,8,17,20
1523183325635161,4,-9,-2,83,1,-3,-28,-2
1523183325635161,11,-17,-21,-46,-10,-14,-27,12
1523183325636664,-2,16,-7,-11,-11,-10,22,27
1523183325636664,-2,4,-28,-48,4,19,29,-4
1523183325649200,47,-8,3,6,1,3,12,16
1523183325649200,-14,27,10,18,-7,-17,-79,-31
1523183325655947,12,-15,-26,8,-6,-6,19,-1
1523183325655947,1,-7,-12,-4,-1,-8,-16,-12
1523183325672259,-15,-14,-13,-27,-12,-5,26,-22
1523183325672259,1,-27,-5,44,16,3,-13,66
1523183325673762,-1,16,-24,-105,-10,9,11,-8
1523183325673762,1,11,-5,24,5,1,-3,6
1523183325694859,5,-10,10,28,3,-4,12,-20
1523183325694859,6,-13,-22,-20,-15,-15,-29,-18
1523183325696323,-6,7,12,89,6,0,1,27
1523183325696323,-8,-6,-6,16,-5,-4,-14,3
1523183325708858,3,26,11,18,-1,-4,-17,-15
1523183325708858,-11,-19,-4,6,4,8,51,-6
1523183325715873,-1,3,-17,-1,3,5,-3,-75
1523183325715873,18,21,-14,-9,-6,-6,-32,9
1523183325732419,22,11,17,4,5,0,-25,-17
1523183325732419,-8,-28,10,14,0,4,29,-3
1523183325733934,-12,-9,4,-96,-13,-4,0,4
1523183325733934,13,0,-7,64,11,3,17,6
1523183325754710,-27,-11,-9,-4,-2,-3,-8,-5
1523183325754710,23,21,16,-12,-6,-7,2,6
1523183325756482,14,-30,23,-15,-5,2,12,31
1523183325756482,-17,3,7,52,9,12,-3,10
1523183325768513,-15,-5,-1,21,3,2,-2,1
1523183325768513,4,5,-21,-6,-8,-3,-11,-26
1523183325777776,-10,12,5,4,-3,-17,0,5
1523183325777776,-11,10,10,-8,5,11,12,-1
1523183325792308,-3,-8,-23,-123,0,10,-16,9
1523183325792308,-10,15,21,105,11,-1,16,-6
1523183325794235,12,9,-27,-80,-18,-13,-16,9
1523183325794235,2,-6,0,20,2,-1,-21,-19
1523183325814636,-14,8,6,9,4,5,23,5
1523183325814636,-1,-40,-18,-57,-10,-4,-37,8
1523183325816140,9,-4,7,32,6,1,16,27
1523183325816140,-16,8,-37,-34,-11,-13,-2,-17
1523183325837195,21,-3,8,-1,-2,-2,8,6
1523183325837195,-20,4,-14,-12,2,2,3,-25
1523183325838700,-12,2,-4,29,11,5,-3,-19
1523183325838700,-6,0,-5,-26,-7,-6,-1,-2
1523183325852477,-31,6,-17,9,-7,-6,18,-40
1523183325852477,23,0,-5,-38,0,10,13,18
1523183325853739,-26,9,20,49,12,9,20,8
1523183325853739,20,-8,19,-26,-9,-13,-60,-8
1523183325874797,-3,-7,32,28,-7,-14,-20,-30
1523183325874797,-2,-2,-4,-27,-9,-3,14,-7
1523183325876301,10,13,-4,-24,6,19,29,7
1523183325876301,-22,-18,-2,6,-2,-2,4,-29
1523183325888333,5,-2,-13,1,-4,-6,6,29
1523183325888333,4,10,3,23,-1,-7,-23,4
1523183325897857,0,-9,-30,-8,-6,3,-6,-11
1523183325897857,-19,-4,11,-4,3,-1,2,14
1523183325912897,-6,-31,-10,5,6,5,17,-38
1523183325912897,4,-38,3,15,-1,-8,-7,17
1523183325914402,-16,10,-10,-19,-10,-16,-48,-1
1523183325914402,19,34,3,-6,-4,8,31,13
1523183325934956,-9,-3,25,-11,9,10,-11,-25
1523183325934956,-3,13,0,24,-2,0,0,18
1523183325936462,2,-11,6,23,5,-3,5,-14
1523183325936462,29,22,8,-69,-14,-5,5,49
1523183325948495,8,-6,-17,-1,-4,-1,29,-27
1523183325948495,-20,-8,-11,-11,-5,4,-32,13
1523183325957533,-18,31,25,16,3,-1,-5,6
1523183325957533,37,-54,4,18,6,-5,21,7
1523183325972054,-13,-12,-7,7,-12,-14,-24,-2
1523183325972054,-6,-11,-27,-43,-3,2,23,-12
1523183325974060,14,14,-1,1,5,13,14,-2
1523183325974060,-16,32,7,27,16,9,16,29
1523183325994635,16,-24,-31,-86,-31,-20,-38,6
1523183325994635,7,14,13,67,19,9,16,-28
1523183325996125,14,-9,1,12,-5,-4,-11,17
1523183325996125,0,-18,-9,15,1,3,14,-25
1523183326008385,20,34,-17,-2,-2,4,-11,35
1523183326008385,-10,-8,0,8,-5,-10,-1,-3
1523183326017174,-14,-1,5,-35,-6,2,30,-5
1523183326017174,-1,-3,0,25,5,-5,-24,-6
1523183326032213,-15,24,19,52,2,-7,-10,9
1523183326032213,37,-7,-18,-80,-10,9,-3,-1
1523183326033718,-4,-1,-2,-7,6,5,31,-27
1523183326033718,-8,-45,-23,-4,-1,-2,-18,-58
1523183326054774,9,22,1,4,6,-3,-25,55
1523183326054774,-7,-7,23,46,-6,-12,28,5
1523183326056278,9,-15,19,-40,18,22,22,-49
1523183326056278,-26,25,21,33,10,6,-33,-41
1523183326068310,30,4,-7,-2,-4,-5,-21,24
1523183326068310,1,-3,16,82,7,-6,2,-22
1523183326077334,0,-13,-15,-42,-24,-18,-7,26
1523183326077334,4,-5,-18,-8,-1,0,-7,4
1523183326092375,-15,5,-8,-6,7,11,20,-5
1523183326092375,-15,25,-4,-7,0,7,25,-55
1523183326093879,8,11,33,35,-7,-19,-31,95
1523183326093879,-12,-22,-27,-5,0,-3,-12,17
1523183326114933,3,-9,9,-16,-4,-4,-3,-4
1523183326114933,-34,-25,-16,-14,-2,-1,1,-11
1523183326116449,-7,5,-10,11,-4,-3,0,-48
1523183326116449,11,-2,-8,-30,-7,-5,-3,35
1523183326136993,2,10,20,30,9,8,20,-1
1523183326136993,-8,8,-9,-4,0,-1,-13,28
1523183326139000,1,-8,16,19,3,-4,-55,-25
1523183326139000,-13,10,-5,8,-7,-6,24,14
1523183326152269,-6,-21,-16,-26,-4,3,2,1
1523183326152269,2,7,11,-17,-9,-2,-5,2
1523183326154038,-18,8,-27,2,19,12,0,11
1523183326154038,5,21,8,12,2,2,32,-38
1523183326174593,27,-5,6,-21,-7,-6,-4,63
1523183326174593,-16,-19,1,-5,-9,-13,-50,-14
1523183326176599,-12,-7,-12,15,-8,-6,21,-36
1523183326176599,-20,-31,41,16,-5,-4,-21,35
1523183326197152,-12,5,-3,18,5,7,17,-40
1523183326197152,46,28,0,-28,2,-2,-8,22
1523183326198658,-23,3,-2,6,-2,-2,-14,2
1523183326198658,31,28,-12,-5,2,8,40,-22
1523183326212195,28,-14,-9,18,-3,-3,-24,-11
1523183326212195,-1,-15,1,-9,1,-1,-1,9
1523183326213697,-4,-21,9,-7,-7,-3,20,27
1523183326213697,-22,6,3,1,-2,3,7,39
1523183326234790,-32,-11,13,58,8,2,-14,-38
1523183326234790,-2,9,13,-8,2,-4,0,0
1523183326236257,16,-11,-19,13,-16,-14,13,1
1523183326236257,-10,1,13,2,19,25,4,20
1523183326257546,-36,-18,-11,-32,-1,1,9,-6
1523183326257546,25,-2,-5,4,2,4,13,-6
1523183326258817,-6,-5,-17,-8,-6,-8,-7,-5
1523183326258817,11,20,17,16,-13,-13,27,-40
1523183326272354,-31,-5,-4,13,12,12,-33,31
1523183326272354,11,-9,-26,-15,-2,2,12,-26
1523183326273860,-10,9,9,9,2,-4,-4,6
1523183326273860,15,6,20,6,-7,-9,-6,-6
1523183326294916,7,3,-2,-9,-7,-6,16,5
1523183326294916,-27,-16,-20,-34,-5,3,9,-48
1523183326296420,37,11,26,15,5,1,-49,68
1523183326296420,3,-4,-16,-20,-9,-12,-21,-5
1523183326317473,-15,2,-15,12,-3,-11,62,-49
1523183326317473,10,-2,12,0,16,17,-111,6
1523183326318977,-13,-31,-35,-9,-5,5,18,-22
1523183326318977,-8,11,-6,23,5,3,-19,10
1523183326331509,18,37,45,9,-7,-12,5,-4
1523183326331509,-3,13,-7,13,-10,-8,39,14
1523183326338528,7,-15,4,-4,-1,-1,-10,-22
1523183326338528,-21,28,-20,7,0,-1,3,1
1523183326355110,50,-22,7,7,8,10,4,29
1523183326355110,-8,-31,8,-25,-10,-8,0,-8
1523183326356576,-27,19,-12,-6,4,7,15,29
1523183326356576,9,-21,-19,-38,-9,-7,32,13
1523183326377580,9,53,-49,-35,-5,-7,-56,-34
1523183326377580,-12,3,40,14,3,2,18,-9
1523183326378922,28,-17,-13,2,-7,-5,31,27
1523183326378922,-8,-14,-5,3,9,0,-25,-10
1523183326391498,-6,0,-19,-5,3,0,-5,-11
1523183326391498,17,0,-15,10,-14,-15,2,10
1523183326398473,-8,-11,1,-28,-2,9,15,-16
1523183326398473,13,41,-12,-1,7,14,-6,18
1523183326414514,-43,-40,44,-4,-11,-5,9,-17
1523183326414514,-4,6,0,36,-8,-26,-43,17
1523183326416519,-8,26,18,-11,2,14,40,-19
1523183326416519,28,-31,27,-3,5,9,-19,2
1523183326437073,15,18,-4,-21,-3,-5,-24,-1
1523183326437073,-13,27,2,-3,-3,-5,36,21
1523183326438579,-16,2,-1,18,0,-13,-43,-2
1523183326438579,22,-18,-7,3,-6,-7,-12,-4
1523183326451613,-1,20,-20,-26,5,4,18,1
1523183326451613,-2,14,18,8,-3,5,7,-23
1523183326465650,-7,34,1,-22,0,0,-31,-1
1523183326465650,-27,-58,-8,-5,-6,-12,11,-13
1523183326474674,-1,1,-8,4,-8,-5,-14,36
1523183326474674,18,-8,-29,12,14,10,41,35
1523183326476182,24,11,-32,-2,6,14,15,-2
1523183326476182,-2,5,0,19,-7,-11,-41,-8
1523183326497234,-21,-19,-9,-23,-4,-4,25,-37
1523183326497234,-15,17,0,-9,6,-1,-47,8
1523183326498739,9,-6,-13,7,-14,-7,9,17
1523183326498739,-3,47,10,8,11,1,4,-32
1523183326511773,-2,-73,-12,14,-6,-2,-20,55
1523183326511773,0,-9,-13,0,6,9,39,5
1523183326518292,-2,-14,5,21,-10,-18,-37,1
1523183326518292,-6,11,-42,-42,-2,11,6,-16
1523183326534863,35,15,13,-12,-6,-6,-5,40
1523183326534863,-13,-68,16,14,-6,-5,-10,-9
1523183326536376,-6,-17,5,0,15,11,53,-39
1523183326536376,-11,25,12,9,-1,-5,-51,1
1523183326557393,22,2,18,11,12,8,-2,-5
1523183326557393,-3,-13,-21,-13,-7,-9,31,1
1523183326558898,-2,-12,-7,-25,-19,-13,-64,-54
1523183326558898,3,32,21,-4,21,24,41,52
1523183326571433,3,7,-1,14,10,13,11,2
1523183326571433,-33,35,20,-3,-1,-2,-9,35
1523183326578452,-8,-25,-9,-24,-4,-8,32,-40
1523183326578452,7,17,12,9,-3,-11,-63,30
1523183326594998,-8,6,12,-23,-19,-6,-8,-32
1523183326594998,4,-83,-31,16,16,11,-4,-22
1523183326596498,-12,-21,40,17,-11,-6,38,18
1523183326596498,-21,-23,2,7,-6,-2,-37,-14
1523183326617052,-1,32,2,10,2,-6,14,-5
1523183326617052,12,38,24,-36,-3,11,-7,-29
1523183326619063,-21,10,28,6,5,-5,-64,37
1523183326619063,-10,-63,-2,-10,-14,-11,31,-7
1523183326631089,-8,-10,9,14,2,-9,-23,39
1523183326631089,21,58,-4,2,5,16,25,-21
1523183326639613,1,-76,-38,0,6,-1,-37,14
1523183326639613,-5,24,20,-9,-5,-4,61,17
1523183326655152,-3,37,8,-13,-7,-7,-26,-60
1523183326655152,-4,-35,-4,-4,-4,-16,12,21
1523183326656157,15,10,-11,-6,-5,3,-3,-5
1523183326656157,0,-17,-11,17,22,28,24,-28
1523183326677338,-11,-26,-12,7,0,0,19,54
1523183326677338,18,43,-4,-1,-5,-8,-21,-17
1523183326678723,0,58,28,3,-13,-7,14,5
1523183326678723,-2,-23,-1,12,-12,-19,-32,-21
1523183326690749,-8,7,-14,-28,6,12,-30,37
1523183326690749,3,-23,-16,17,10,6,22,-45
1523183326700066,-27,-27,-41,6,2,-8,-27,13
1523183326700066,-7,13,9,-8,-10,-4,35,-13
1523183326714863,4,44,23,29,-2,-3,-8,-23
1523183326714863,8,-18,25,-13,6,21,28,29
1523183326716375,9,43,-8,10,6,5,-6,-27
1523183326716375,-11,0,0,-6,-8,-4,25,-29
1523183326744945,-17,-86,-19,-2,2,-10,-29,28
1523183326744945,11,22,9,45,-15,-12,44,11
1523183326746449,-7,-28,-41,-74,-1,11,-5,-15
1523183326746449,9,27,-26,3,-1,0,-18,-27
1523183326750960,-14,29,-19,0,6,5,61,20
1523183326750960,-6,-21,-21,-4,0,-2,-29,18
1523183326759983,3,-47,27,31,-6,-15,4,38
1523183326759983,32,33,-6,-9,0,6,15,29
1523183326774523,-45,2,17,-10,3,5,-9,-51
1523183326774523,-6,-89,-28,-7,-6,-14,-54,7
1523183326776526,8,-7,49,22,-13,-10,4,-38
1523183326776526,-3,14,-19,-7,8,4,25,22
1523183326797083,12,-3,11,18,6,4,-39,20
1523183326797083,-19,1,-32,-65,0,5,-1,-50
1523183326798585,12,29,3,27,7,-12,-13,20
1523183326798585,-9,36,21,12,-30,-15,49,-34
1523183326811122,14,-65,-32,5,20,32,-57,41
1523183326811122,-39,26,-27,13,-4,-7,-16,-26
1523183326819641,48,52,-18,-26,2,5,10,-6
1523183326819641,-3,-32,21,-1,1,-5,24,31
1523183326834680,14,15,4,7,-15,-18,20,-18
1523183326834680,3,-34,-30,3,10,13,4,10
1523183326836185,-14,38,-1,13,8,11,17,-4
1523183326836185,-12,-1,14,-2,0,-13,-61,46
1523183326857476,16,-15,8,-6,-12,-14,24,-48
1523183326857476,-6,-7,42,17,7,-6,-28,34
1523183326858746,-12,75,-19,-3,17,20,54,-32
1523183326858746,18,-86,-2,-3,10,14,-91,-13
1523183326870778,-19,33,-15,9,-8,-14,-3,-17
1523183326870778,-1,32,27,-18,-11,-10,60,9
1523183326879891,2,-22,21,13,8,1,-23,-18
1523183326879891,-5,4,-17,-8,-6,2,28,-10
1523183326894932,15,22,5,24,0,-6,-34,-22
1523183326894932,16,41,17,-5,-12,2,-20,40
1523183326896435,3,-39,25,-5,3,5,27,5
1523183326896435,-17,13,-34,4,-5,-12,-66,-7
1523183326916992,-2,-58,22,6,7,11,78,-23
1523183326916992,2,60,15,-18,-5,-10,-29,8
1523183326918996,5,-93,-21,20,-8,-6,-28,4
1523183326918996,-11,-5,9,31,6,9,47,4
1523183326931027,-7,30,-10,-23,-5,9,16,-4
1523183326931027,13,45,36,30,1,-2,-9,4
1523183326940053,-4,10,-15,-76,-1,-5,-38,-5
1523183326940053,-2,-30,11,22,-9,-21,-8,-20
1523183326954824,4,13,-10,-10,-14,-7,20,12
1523183326954824,10,23,5,23,24,37,31,-38
1523183326956635,-33,-32,-19,-31,-5,-10,-32,60
1523183326956635,28,-30,19,-2,-7,0,39,35
1523183326977204,-8,50,-3,6,-4,-11,-30,-54
1523183326977204,1,-1,19,-10,2,-2,10,21
1523183326978710,-7,-33,-8,27,-15,-7,40,-23
1523183326978710,-2,7,-14,-13,27,16,-37,-5
1523183326990742,-7,38,15,-4,-4,1,7,4
1523183326990742,-3,-47,-13,19,0,-3,35,34
1523183326999763,11,49,-5,-38,-6,-3,-53,-32
1523183326999763,-10,-4,-4,-23,-14,-15,6,-11
1523183327022082,14,-64,-15,-2,9,11,28,-2
1523183327022082,-2,15,-29,1,-2,4,18,14
1523183327023589,-12,-12,17,44,5,-6,-28,12
1523183327023589,7,13,23,2,-6,-5,5,-14
1523183327037124,0,11,13,-11,-8,1,-15,-16
1523183327037124,7,1,-14,-14,5,-12,-11,-22
1523183327038631,14,10,5,17,5,6,49,49
1523183327038631,-8,16,-17,28,15,25,-40,9
1523183327050658,-9,-75,3,17,2,-5,4,24
1523183327050658,-5,-33,-41,-74,-15,-13,-26,-26
1523183327059683,2,45,6,1,0,10,64,-12
1523183327059683,36,46,-16,-10,1,-16,-71,-10
1523183327074760,-9,23,10,-7,-13,-7,5,5
1523183327074760,-18,-82,-13,10,-10,-9,-21,-7
1523183327076227,-5,6,-21,21,5,2,-4,-14
1523183327076227,2,3,-35,-34,1,8,45,-72
1523183327097281,-24,-35,11,-21,6,8,7,44
1523183327097281,9,45,2,4,-10,-12,-23,18
1523183327098788,-18,-18,-7,5,-15,-12,-25,5
1523183327098788,-6,-32,6,16,-5,-4,26,-6
1523183327119842,14,21,2,10,15,-1,-19,15
1523183327119842,-16,17,-2,-15,-9,5,9,-14
1523183327121346,6,4,-11,4,6,3,6,4
1523183327121346,4,25,17,47,10,8,11,48
1523183327134882,-23,-16,-19,-5,-11,-11,-6,-35
1523183327134882,1,-7,45,8,2,8,19,10
1523183327136385,9,-8,-6,-6,-6,-6,-41,7
1523183327136385,-6,-12,5,-19,-6,-7,18,16
1523183327157199,9,13,20,50,6,-5,3,11
1523183327157199,18,4,-29,-48,-7,-5,-13,-12
1523183327159246,4,11,12,30,0,9,16,-42
1523183327159246,-5,-13,-2,-29,2,2,16,52
1523183327179759,-2,-1,-7,-8,9,6,-9,-31
1523183327179759,31,18,6,6,-4,-15,-22,-7
1523183327181264,-5,16,-16,-69,-32,-19,-21,40
1523183327181264,-12,-77,-15,6,8,11,10,-23
1523183327194800,0,2,-19,-27,-1,1,11,-22
1523183327194800,-15,47,-12,26,9,2,-3,-8
1523183327196304,10,25,11,3,-5,-9,15,-20
1523183327196304,-9,14,19,47,-6,-12,-19,6
1523183327217358,-4,-47,-26,-49,0,21,2,3
1523183327217358,-11,-19,5,1,-3,-3,1,16
1523183327218866,3,3,2,27,-8,-13,-22,24
1523183327218866,-15,38,3,-30,11,6,18,-35
1523183327240104,24,52,-5,21,5,2,22,19
1523183327240104,-14,-52,7,4,-5,1,-18,24
1523183327241423,0,2,4,1,3,0,-7,-22
1523183327241423,4,23,21,42,-10,-14,-5,3
1523183327254193,9,32,33,17,2,8,16,-9
1523183327254193,4,76,3,-8,5,6,7,-18
1523183327260980,-4,1,14,126,15,1,1,8
1523183327260980,-8,29,-52,-105,-33,-14,-1,-22
1523183327277524,-19,14,-38,23,-3,-4,-4,2
1523183327277524,18,-5,8,45,11,12,13,1
1523183327279024,3,4,1,-12,26,14,-6,-6
1523183327279024,10,-12,5,-72,-37,-17,-2,-1
1523183327299617,-9,19,1,33,1,0,32,2
1523183327299617,-11,-43,-14,-8,-3,-12,-30,48
1523183327301766,1,23,2,-23,2,5,-11,-6
1523183327301766,16,-2,0,62,34,28,38,-54
1523183327314118,6,-39,-17,-50,-34,-28,-53,28
1523183327314118,-30,-14,37,73,4,2,30,-44
1523183327320635,3,-80,-28,-59,-1,3,9,13
1523183327320635,-55,13,21,25,2,-13,-24,-6
1523183327337177,29,11,20,20,2,10,26,-9
1523183327337177,-11,47,2,-7,8,5,-17,-35
1523183327338682,-18,-65,-39,-39,-16,-16,-10,-9
1523183327338682,-5,-17,3,-25,-21,-20,-2,17
1523183327360115,-4,-3,-16,23,33,34,5,-8
1523183327360115,11,26,4,-35,-8,-3,17,-20
1523183327361501,4,7,33,22,9,4,-9,63
1523183327361501,3,-19,-6,5,-5,-14,-23,-11
1523183327374035,-2,-18,-1,-24,-24,-32,-18,20
1523183327374035,9,21,-7,8,6,28,4,-9
1523183327381052,-18,-21,-8,5,5,7,33,-25
1523183327381052,20,-64,55,14,9,6,21,-20
1523183327397096,0,15,14,2,-1,-14,-37,6
1523183327397096,-14,12,-6,-23,-11,-14,3,-20
1523183327398598,14,25,1,27,-7,1,5,3
1523183327398598,13,1,-49,-16,8,13,3,48
1523183327419911,-9,7,45,12,6,-2,-4,-17
1523183327419911,-4,-54,0,2,-16,-16,8,3
1523183327421416,-10,-21,-15,35,-1,-2,-3,-21
1523183327421416,-3,4,-20,-15,14,22,-11,-2
1523183327433951,7,6,40,5,2,7,11,-10
1523183327433951,3,5,-23,5,4,0,14,3
1523183327440967,15,18,20,30,-3,-14,-29,27
1523183327440967,-17,40,16,-6,-9,-7,4,6
1523183327457600,5,-11,-45,-33,-6,-7,0,8
1523183327457600,-5,-38,4,9,6,2,-11,-15
1523183327459230,4,-27,17,-6,4,6,15,-16
1523183327459230,4,19,9,15,2,1,6,5
1523183327479569,-7,-80,-27,5,0,-4,-20,-12
1523183327479569,-3,32,9,-38,-15,-4,-8,8
1523183327481576,43,8,-32,-7,-1,2,5,-6
1523183327481576,-9,2,-32,-62,-13,-22,-23,23
1523183327494113,13,24,7,1,-5,-9,24,-53
1523183327494113,12,5,17,22,15,31,-12,39
1523183327500669,1,28,11,-38,5,8,-3,30
1523183327500669,8,12,-5,30,-3,1,6,-4
1523183327517169,3,6,-5,-2,-4,-25,-31,-11
1523183327517169,2,30,9,4,-4,-8,6,-10
1523183327518674,-28,-66,-72,-37,5,13,15,-23
1523183327518674,-12,-55,-1,20,-8,-8,-13,-17
1523183327539729,-20,44,-8,-39,-2,4,13,9
1523183327539729,10,-52,0,35,-3,-26,-13,11
1523183327541235,-14,24,-20,6,8,16,1,-13
1523183327541235,0,-15,28,15,3,5,1,-6
1523183327554048,-5,-12,-3,22,-3,6,2,8
1523183327554048,0,9,-18,-51,-4,-9,-11,0
1523183327561070,1,37,32,17,5,-10,8,-8
1523183327561070,-2,-25,-32,-69,-24,14,3,4
1523183327577629,-1,-36,82,42,2,6,2,6
1523183327577629,-20,-6,0,3,-7,-10,-5,3
1523183327579115,13,45,52,-5,1,-33,-12,6
1523183327579115,5,-3,-26,28,-7,19,18,-1
1523183327599671,-22,-48,-18,-25,6,17,-9,15
1523183327599671,-7,-38,42,40,2,-3,-14,-5
1523183327601674,-11,15,10,-70,-1,-2,0,-9
1523183327601674,23,50,10,18,4,-18,-11,19
1523183327613206,16,15,-31,-1,-7,0,39,-26
1523183327613206,18,7,-19,47,19,11,-26,-11
1523183327622230,12,20,17,-4,-17,-10,-3,3
1523183327622230,-1,1,17,56,15,3,-3,-2
1523183327637272,3,-5,-73,-32,-2,0,-3,20
1523183327637272,-9,6,5,-4,-1,-2,11,-2
1523183327638774,2,14,-7,5,-4,4,-3,-13
1523183327638774,25,-7,23,-52,0,2,0,-3
1523183327659829,-16,21,38,98,15,2,11,-41
1523183327659829,-9,-41,-15,41,-9,-9,-20,34
1523183327661335,5,-24,-31,-29,-17,0,-23,30
1523183327661335,-14,16,13,27,8,-2,0,-15
1523183327673365,-4,39,-61,-7,-3,-8,-17,-9
1523183327673365,-2,40,-13,-17,-11,5,24,-15
1523183327682391,-18,-5,8,15,10,3,13,-11
1523183327682391,-1,12,-4,10,26,9,22,-8
1523183327697429,6,-7,8,-34,1,-10,-53,25
1523183327697429,22,-24,39,-12,-11,17,24,-15
1523183327698938,-18,-39,14,-15,-14,-13,4,9
1523183327698938,-9,18,-20,-2,-16,-30,-16,-10
1523183327719528,2,-39,0,16,-1,11,29,-16
1523183327719528,7,50,-57,-100,23,19,-2,16
1523183327721494,-3,-39,41,52,10,6,1,16
1523183327721494,-17,-29,4,22,2,-4,-20,-6
1523183327733524,7,3,69,-23,-17,-17,4,85
1523183327733524,-4,-4,-17,53,-5,-13,-29,-1
1523183327742549,5,61,-6,-52,-2,13,38,-21
1523183327742549,-25,-29,-86,-24,-8,-10,-24,1
1523183327757326,8,12,55,-4,-3,5,13,1
1523183327757326,-3,-36,-11,3,5,1,29,-48
1523183327759124,-21,-16,-1,3,-9,-7,-23,23
1523183327759124,15,30,6,25,-7,-5,13,-17
1523183327779651,-3,31,-41,-25,8,4,-4,11
1523183327779651,13,8,-1,-7,-3,-5,15,-9
1523183327781152,-9,-38,11,26,2,-4,-8,-69
1523183327781152,-6,-7,-61,-44,-10,6,-2,45
1523183327793687,-3,17,-22,-49,-11,3,17,-16
1523183327793687,-13,1,6,5,1,-6,-18,-18
1523183327802208,13,17,3,-7,-1,5,13,8
1523183327802208,-4,23,18,2,6,-1,-18,-33
1523183327817250,-22,40,-31,28,8,1,-9,-16
1523183327817250,2,-47,10,12,-16,-12,-23,52
1523183327818753,9,7,-4,25,4,5,2,-12
1523183327818753,-9,16,61,42,14,7,8,21
1523183327839809,-23,-21,16,-32,-21,-5,-20,-11
1523183327839809,0,10,-19,-15,-5,2,68,-8
1523183327841313,-1,14,7,112,13,-11,-89,27
1523183327841313,1,-52,32,-97,-13,-9,12,19
1523183327853344,-1,-23,-8,55,35,26,42,-24
1523183327853344,3,15,-2,-21,-13,-4,-78,57
1523183327862367,-2,25,2,-2,-2,2,24,3
1523183327862367,-5,-6,30,-1,-19,-17,0,-8
1523183327877408,10,-27,2,5,-27,-17,-4,-49
1523183327877408,-2,45,13,-3,27,21,3,2
1523183327878913,-11,-23,-34,-7,-15,-1,36,2
1523183327878913,-26,-22,-36,-13,6,-4,-45,-19
1523183327899467,-13,-21,-50,-31,-14,-14,-26,-72
1523183327899467,-4,-9,52,4,-6,-14,-22,61
1523183327901692,14,29,12,0,-7,5,10,15
1523183327901692,14,-3,42,127,30,22,37,13
1523183327913503,-5,-5,-28,-42,-6,-12,-7,18
1523183327913503,-19,-11,-43,-7,-11,4,17,-47
1523183327922530,-8,16,-29,-14,0,-13,-4,-13
1523183327922530,12,23,25,6,4,12,-14,-26
1523183327937067,15,41,-15,0,8,7,-9,5
1523183327937067,-1,-26,2,23,-3,-18,-6,2
1523183327939072,4,46,-9,-44,27,23,19,-17
1523183327939072,-8,-26,-18,-15,-26,-16,3,-8
1523183327959625,16,7,30,13,8,9,72,-6
1523183327959625,10,13,6,-9,1,-4,-65,-28
1523183327961131,5,-12,-4,35,15,-15,-2,-36
1523183327961131,2,27,-19,-49,-22,11,14,34
1523183327973206,17,-2,-62,19,6,3,2,34
1523183327973206,10,-41,46,3,-8,-3,22,2
1523183327982187,-9,-15,-11,-81,-37,-19,-7,-12
1523183327982187,12,15,14,19,22,-10,-25,-1
1523183327997273,-14,27,5,7,3,19,-10,27
1523183327997273,-13,-11,-2,6,8,2,17,-27
1523183327998731,-10,-28,1,1,-2,2,-14,-41
1523183327998731,-5,-3,-4,-1,-6,-7,-4,22
1523183328019786,-1,10,18,-9,-6,-12,-7,21
1523183328019786,16,33,-38,2,0,-2,23,-22
1523183328021293,36,-29,29,53,18,6,14,23
1523183328021293,-25,-40,-64,-93,-30,-7,15,-25
1523183328042584,-13,-11,10,72,11,-3,-62,54
1523183328042584,-17,-2,-35,-44,-6,-3,4,-24
1523183328043851,16,14,20,16,-12,3,29,13
1523183328043851,9,23,14,34,12,8,-2,27
1523183328057614,-6,-36,37,18,10,-8,-33,-31
1523183328057614,-11,35,-22,-30,5,6,20,-4
1523183328058890,-21,-20,-21,9,-26,-16,3,-31
1523183328058890,-2,0,-32,-37,21,29,33,-7
1523183328079446,18,-2,9,-30,-9,-10,-36,-6
1523183328079446,-6,53,-9,8,-7,-12,29,0
1523183328081453,-11,10,32,15,11,10,-31,-17
1523183328081453,27,-18,-8,36,-1,-4,12,-19
1523183328102243,14,7,-14,-55,-20,-12,12,10
1523183328102243,-22,-10,20,33,-16,-14,-10,15
1523183328104010,2,23,-19,-15,10,5,2,3
1523183328104010,-16,-4,2,27,-15,-11,-20,11
1523183328117047,-10,21,-3,-67,13,0,5,5
1523183328117047,-4,-44,-23,-17,-8,5,-10,-23
1523183328119049,-29,-28,-26,-9,7,17,74,-36
1523183328119049,26,33,28,23,13,-6,-56,31
1523183328139605,20,-1,0,-37,-21,-13,10,-19
1523183328139605,3,19,11,20,-4,-6,-2,15
1523183328141609,-19,-3,-42,-21,4,13,29,-3
1523183328141609,14,5,12,7,-2,8,8,-11
1523183328162165,-1,22,13,53,2,-8,-5,32
1523183328162165,7,-18,-23,-12,-16,-20,-18,-11
1523183328163669,4,10,1,-65,-4,-4,12,13
1523183328163669,0,1,-14,92,25,17,-34,21
1523183328177205,-1,12,1,2,-10,1,5,-4
1523183328177205,18,22,19,-5,24,11,-13,11
1523183328178709,-16,-41,-2,-6,-18,-18,-30,40
1523183328178709,10,22,6,-7,-14,-16,33,-64
1523183328199806,-9,-35,19,31,15,14,16,-42
1523183328199806,-30,37,29,10,11,24,36,53
1523183328201268,17,-4,-45,14,-4,-9,-48,2
1523183328201268,-13,6,-45,-56,-35,-18,-4,-8
1523183328222327,-7,11,3,22,23,4,-3,-25
1523183328222327,8,-28,4,17,-3,-5,16,-15
1523183328223870,16,51,-46,4,-5,1,-22,18
1523183328223870,-24,-7,39,-1,17,10,24,6
1523183328236362,18,-34,16,-35,-21,-12,-18,3
1523183328236362,-12,-20,4,38,14,4,9,36
1523183328243391,0,-15,-19,-52,6,1,-5,28
1523183328243391,39,-1,5,-19,-8,-1,-12,1
1523183328259924,-13,-41,17,41,-18,-11,22,-3
1523183328259924,4,-20,-2,-34,11,-3,-13,10
1523183328261431,3,10,13,-23,8,14,-5,-31
1523183328261431,-1,12,-10,32,16,-1,19,15
1523183328281984,-8,22,-14,-41,-35,-6,11,-8
1523183328281984,-4,-14,-14,34,-31,-16,10,-71
1523183328283989,-3,-48,26,-32,-3,5,-34,12
1523183328283989,-14,29,22,-6,11,3,7,1
1523183328296522,-16,-22,-21,23,0,-6,-26,-26
1523183328296522,7,-23,-20,-30,-1,-4,13,12
1523183328303732,19,27,-33,24,0,-6,-46,-43
1523183328303732,-14,17,7,22,7,11,49,-4
1523183328319584,23,35,-43,-16,-6,-17,-80,21
1523183328319584,-2,-40,-7,-48,-4,-5,4,-8
1523183328321091,0,13,24,28,-3,-7,18,5
1523183328321091,1,-20,10,-56,-2,5,-29,-2
1523183328342348,-15,-9,49,25,7,14,47,8
1523183328342348,-5,36,-32,0,4,4,-10,-9
1523183328343653,8,-10,33,5,-2,-6,0,16
1523183328343653,-9,37,10,53,22,-8,8,-14
1523183328356681,-16,-59,-36,-60,-37,10,3,4
1523183328356681,4,16,-14,13,-3,1,-49,-16
1523183328363198,14,-8,34,44,-18,-21,46,63
1523183328363198,-29,13,0,-1,21,30,-13,-47
1523183328379743,-3,-4,10,11,15,5,25,1
1523183328379743,10,-11,3,-16,6,-4,-18,-7
1523183328381254,-15,28,-49,8,-14,-9,4,-16
1523183328381254,3,-29,40,7,-8,-8,6,2
1523183328402037,-30,11,-24,-14,10,7,37,11
1523183328402037,22,3,24,8,-8,-7,-22,3
1523183328408555,-11,-21,-11,6,-3,-11,-4,-17
1523183328408555,14,-26,25,-28,11,10,16,-55
1523183328416381,4,16,18,33,11,3,-31,107
1523183328416381,4,48,9,-22,2,7,76,25
1523183328423361,-28,-61,-36,-3,1,-8,-93,-18
1523183328423361,25,-16,-35,-7,-27,-17,15,90
1523183328440048,-13,3,33,20,20,4,1,-63
1523183328440048,-3,6,4,21,-5,1,2,-1
1523183328441407,8,37,63,31,22,19,-9,40
1523183328441407,-38,-33,-88,-44,-21,-15,5,-34
1523183328461962,28,-6,-58,6,-3,-14,9,12
1523183328461962,-64,-25,9,2,-15,0,-20,-9
1523183328463967,3,5,25,-10,8,12,22,-10
1523183328463967,-11,11,-1,10,-19,-24,-9,-2
1523183328476503,18,11,-8,7,22,15,5,8
1523183328476503,5,-75,-25,26,16,19,24,-46
1523183328483518,8,15,29,-2,7,0,-16,38
1523183328483518,30,14,23,-3,-14,-7,-42,-25
1523183328499603,-6,-83,-47,-33,-24,-27,-6,33
1523183328499603,0,-21,62,30,16,14,33,-24
1523183328501566,-35,-20,20,-29,-5,1,19,-19
1523183328501566,42,68,-11,30,1,-10,-40,36
1523183328522122,-6,-53,-10,-39,0,0,6,-47
1523183328522122,13,37,-26,-24,-22,-20,-24,1
1523183328523626,-24,-35,41,11,11,10,42,2
1523183328523626,-14,-16,-12,0,6,9,19,-4
1523183328535658,5,106,24,-28,-6,0,-15,-21
1523183328535658,-8,-10,28,28,24,-4,-12,7
1523183328544682,3,-47,-27,-30,-42,-25,-8,-26
1523183328544682,30,-25,-29,-44,28,32,27,49
1523183328559723,13,26,5,23,20,-9,-40,-6
1523183328559723,1,39,9,69,-8,-6,7,0
1523183328561227,15,17,-33,-43,-3,1,-28,26
1523183328561227,-24,-45,-1,-2,-32,-13,10,31
1523183328582283,-9,-10,-12,8,25,15,18,-26
1523183328582283,19,48,25,-58,-11,-18,-70,15
1523183328583801,20,49,8,80,14,6,18,-4
1523183328583801,-37,-53,-78,-35,-15,-18,-7,-29
1523183328595817,6,18,65,27,0,2,16,4
1523183328595817,-16,2,-34,-16,-16,-1,-5,4
1523183328604842,-1,14,-13,24,19,12,11,-19
1523183328604842,12,33,38,3,6,2,-14,3
1523183328619881,-6,43,6,27,-7,-4,12,20
1523183328619881,1,-42,-50,-81,-16,5,-2,-12
1523183328621385,8,49,-39,42,-10,-10,17,-30
1523183328621385,-3,25,98,42,25,7,-6,-2
1523183328642177,1,-8,-7,60,-6,0,-9,60
1523183328642177,-6,-22,34,89,8,16,26,-17
1523183328643947,9,-55,50,97,5,-2,-19,36
1523183328643947,-3,-16,-72,-43,-6,-5,6,-49
1523183328656195,7,12,53,69,-8,-3,16,-17
1523183328656195,-4,-1,-82,-94,10,10,-4,-13
1523183328665003,-12,-12,48,-10,14,19,39,-5
1523183328665003,5,24,17,54,-3,-8,7,-7
1523183328679539,4,-46,-14,20,0,-3,-60,23
1523183328679539,-10,9,18,4,-12,-14,17,0
1523183328686059,-19,-32,-70,-100,-12,2,-14,-25
1523183328686059,2,-18,22,25,-6,0,21,16
1523183328702337,12,96,-68,9,-11,-9,-33,-28
1523183328702337,-3,-5,16,-34,-2,-8,-6,-30
1523183328704178,-7,19,18,-3,4,-4,-9,47
1523183328704178,1,10,8,2,-3,-2,-24,-32
1523183328715636,18,-31,7,-10,16,13,30,20
1523183328715636,16,-24,20,-5,-8,3,3,19
1523183328724661,-24,54,8,61,1,-6,-44,-41
1523183328724661,-36,-17,-24,38,-23,-16,-7,-42
1523183328739700,0,-46,2,22,5,1,23,-8
1523183328739700,5,35,-18,2,6,-3,1,28
1523183328741204,8,28,-47,1,-3,9,9,-14
1523183328741204,8,45,31,-35,8,2,-5,27
1523183328762261,-15,-35,-6,25,-19,-8,10,14
1523183328762261,-34,-7,7,11,6,-4,-7,-52
1523183328763766,29,3,16,55,2,-10,22,43
1523183328763766,2,-7,-10,-54,3,11,-8,43
1523183328775796,-19,18,-16,-41,-25,0,13,-66
1523183328775796,18,-37,-1,68,8,4,-19,55
1523183328784820,-6,-15,6,-4,1,4,52,-26
1523183328784820,9,15,-55,-2,16,2,-62,18
1523183328799859,-17,-10,34,9,-1,4,52,-68
1523183328799859,-5,-12,-35,-54,-18,-14,-68,26
1523183328801364,8,9,63,81,15,-4,-4,-46
1523183328801364,-10,-63,-46,-57,-32,-15,9,1
1523183328822419,-2,0,23,17,7,-7,33,-6
1523183328822419,4,37,37,84,25,22,0,3
1523183328823963,-1,-78,1,1,-12,-2,-2,27
1523183328823963,-5,-6,9,4,5,2,4,-14
1523183328835955,3,5,-12,-23,-8,-4,-20,18
1523183328835955,19,14,12,8,11,-6,19,0
1523183328844980,4,37,-2,-58,-22,-10,-19,22
1523183328844980,6,-17,28,27,16,13,18,-16
1523183328859519,-15,-18,-12,-27,-16,-13,-56,-12
1523183328859519,-1,17,8,12,31,13,16,-11
1523183328861523,-20,24,-37,-28,-18,-4,-10,39
1523183328861523,-8,-32,12,-17,-4,-12,22,-1
1523183328882079,9,-29,0,25,3,6,-17,3
1523183328882079,-11,19,24,2,-13,7,8,0
1523183328884085,3,40,-23,-21,25,20,10,-1
1523183328884085,5,-58,45,46,-3,-3,19,-7
1523183328895614,-17,31,-9,-28,1,-8,-19,18
1523183328895614,15,-13,-31,-29,-34,-26,14,10
1523183328905138,25,21,-8,-2,13,5,9,-18
1523183328905138,-10,39,6,27,0,5,-25,14
1523183328919679,-3,-21,6,-7,5,1,21,-20
1523183328919679,-4,-1,7,9,2,-2,-11,2
1523183328921183,-10,-12,-25,-25,-15,-11,10,-18
1523183328921183,7,20,26,3,3,-4,-31,23
1523183328942238,3,-29,71,7,6,14,40,-21
1523183328942238,10,-7,-49,-36,-12,-13,-77,58
1523183328943745,-8,-44,43,-10,3,-1,-15,-7
1523183328943745,18,4,-19,-19,-9,-8,5,-10
1523183328964798,-72,5,-16,12,8,1,-12,40
1523183328964798,60,48,-2,29,3,5,43,-5
1523183328966302,-37,-61,46,0,-18,-7,-42,-33
1523183328966302,-2,-5,-27,7,5,8,-11,9
1523183328987360,22,17,12,-5,0,-2,15,-13
1523183328987360,-13,-16,7,-13,-12,-12,7,-13
1523183328988863,5,38,-28,-18,1,-7,-2,19
1523183328988863,-7,31,-62,21,1,4,21,-32
1523183329002606,16,-34,-8,-44,9,3,-15,13
1523183329002606,-22,-14,3,9,-10,4,21,-32
1523183329003902,16,27,-19,4,-1,5,-12,47
1523183329003902,-17,-21,5,-8,12,0,11,-3
1523183329025057,7,12,-24,45,-9,-1,-4,3
1523183329025057,17,-21,-17,-36,-13,-13,-19,52
1523183329026463,10,4,19,76,9,2,23,-32
1523183329026463,30,36,-49,-105,-29,-12,5,-15
1523183329039497,9,17,-11,33,6,2,-3,16
1523183329039497,-23,19,32,35,14,6,49,-22
1523183329041501,-8,-14,-29,-20,-18,-16,-23,8
1523183329041501,2,0,45,29,4,12,-4,20
1523183329062056,5,4,-26,-62,3,4,34,-61
1523183329062056,-31,-5,4,40,6,4,-29,40
1523183329064062,56,17,-32,-12,6,1,11,14
1523183329064062,-18,24,0,22,-5,-14,-15,-4
1523183329084655,8,-57,-7,-18,-12,-5,12,8
1523183329084655,-18,-20,-1,49,17,18,4,-21
1523183329086121,-19,-11,-7,36,4,-7,-13,-6
1523183329086121,6,-29,51,13,8,-2,2,-28
1523183329099657,9,23,10,31,-1,-1,25,77
1523183329099657,4,38,-79,-42,-3,1,-45,-2
1523183329101161,-32,-7,-6,-64,-7,-3,5,-30
1523183329101161,10,1,7,64,12,6,25,-52
1523183329121998,-15,31,35,20,1,-5,-63,48
1523183329121998,10,-22,18,-23,-1,-6,22,-19
1523183329124008,-17,-3,25,4,5,7,-9,-4
1523183329124008,8,66,14,2,8,1,-9,23
1523183329144559,2,-49,19,41,-3,-2,4,-14
1523183329144559,9,22,25,16,-13,-4,-8,-6
1523183329146062,-3,-28,50,79,22,14,3,-3
1523183329146062,-41,-97,-36,-75,-42,-12,21,-62
1523183329159098,5,12,10,70,6,-4,-38,84
1523183329159098,2,10,11,22,1,-8,4,-10
1523183329165615,5,2,35,86,8,-2,30,-24
1523183329165615,7,-16,12,-10,24,22,-15,14
1523183329182158,-13,11,-36,-59,-13,4,37,-62
1523183329182158,49,-29,35,-10,-10,-13,-18,-7
1523183329183662,5,27,-4,-40,-6,-15,-22,-3
1523183329183662,3,51,-7,18,-25,-14,2,50
1523183329204718,-10,-59,-5,-33,30,24,-5,-29
1523183329204718,-12,-2,-26,-69,-14,-7,3,24
1523183329206747,1,-14,-33,-8,-15,-9,-10,3
1523183329206747,12,17,-7,11,-5,-9,-5,-3
1523183329219257,12,51,17,22,2,-8,1,-27
1523183329219257,-21,-21,-12,8,9,5,5,-31
1523183329225775,-6,-6,-8,-78,-14,3,6,13
1523183329225775,-22,-6,-5,56,12,1,-10,14
1523183329242318,22,54,16,75,0,-6,-6,-8
1523183329242318,-18,-16,2,-68,-11,-3,16,-17
1523183329243823,-15,-14,-68,-108,-30,-8,16,18
1523183329243823,-1,1,4,45,18,19,45,-15
1523183329264879,6,51,-4,11,4,-6,-28,-14
1523183329264879,-18,-20,6,81,15,0,-14,-3
1523183329266383,21,-14,16,-57,-21,-7,14,-58
1523183329266383,-56,-28,-1,39,1,5,1,51
1523183329278915,2,6,-16,-62,-9,2,32,-45
1523183329278915,-4,42,-44,30,5,-3,-29,28
1523183329285975,-2,-44,36,65,12,-8,-17,75
1523183329285975,0,2,-11,-101,-27,-25,-22,-26
1523183329302598,-8,-19,-24,27,14,26,21,5
1523183329302598,-6,25,-16,15,8,1,-3,-29
1523183329304155,8,-10,-10,-18,4,7,28,-18
1523183329304155,4,-7,-8,11,-10,-14,-34,17
1523183329325107,-3,-14,-8,8,-18,-25,-34,33
1523183329325107,6,-9,-9,13,-6,8,31,-22
1523183329326549,-23,3,64,98,8,21,0,-15
1523183329326549,28,22,28,-10,15,5,-2,5
1523183329339077,13,-16,-7,-6,-9,-8,-9,-1
1523183329339077,20,-58,-14,-42,-9,1,16,-27
1523183329353721,-14,41,-19,7,-6,-5,30,16
1523183329353721,-2,26,15,24,2,3,-28,7
1523183329362136,-21,-12,-7,24,-6,-3,-8,23
1523183329362136,3,25,-5,-35,8,2,-11,-32
1523183329363642,11,13,-24,-19,-1,-11,-19,56
1523183329363642,-7,-15,5,21,6,10,14,-4
1523183329384695,-15,16,-36,-59,-2,-3,6,-7
1523183329384695,-18,-6,47,95,5,-4,3,-22
1523183329386202,-5,-7,-44,-10,-14,-2,-11,-24
1523183329386202,1,-17,-15,27,9,1,19,24
1523183329398233,-2,-6,-2,-12,-20,-21,-20,-35
1523183329398233,0,51,13,42,25,27,13,49
1523183329406755,6,-4,10,1,9,7,-9,-32
1523183329406755,23,9,15,33,3,-5,6,21
1523183329421294,-1,-15,-14,-62,-9,-3,0,-35
1523183329421294,-17,-1,-15,-56,-23,-20,10,39
1523183329422296,53,57,-2,29,7,2,-43,-1
1523183329422296,-12,-25,-19,-18,5,16,3,-69
1523183329443854,5,-44,12,54,8,-1,7,44
1523183329443854,-28,6,-9,-79,-18,-10,22,6
1523183329444855,8,-39,-15,-10,6,-10,-10,-30
1523183329444855,3,-13,5,34,-3,-3,-3,-5
1523183329458433,-29,29,3,-22,-2,9,-16,20
1523183329458433,10,-69,14,15,3,-2,8,8
1523183329466414,-15,-16,53,12,1,0,17,-3
1523183329466414,14,6,4,-5,-3,-9,-16,2
1523183329481454,28,35,1,47,2,10,86,-13
1523183329481454,22,19,29,-36,11,18,-58,-27
1523183329482457,-13,-23,-29,-9,-4,-6,41,43
1523183329482457,-39,-5,-13,-6,2,-9,-53,-48
1523183329504013,24,23,17,20,-6,-10,23,55
1523183329504013,6,30,-4,-2,-5,9,-11,-7
1523183329505015,-46,-42,-58,8,8,0,4,-42
1523183329505015,41,-10,8,-12,-8,-4,10,7
1523183329520057,-5,-26,-25,-44,-8,-9,-22,-3
1523183329520057,14,11,0,20,8,-1,9,9
1523183329526574,7,48,2,5,14,8,-12,-6
1523183329526574,-39,-35,-14,-15,-1,4,8,36
1523183329541614,-3,8,2,-40,-4,-3,2,-55
1523183329541614,-29,-41,8,33,-24,-18,-8,24
1523183329542119,46,-7,37,16,12,3,2,-8
1523183329542119,-20,-38,33,25,6,2,-39,23
1523183329564172,-4,-15,61,48,9,5,-13,3
1523183329564172,-41,-10,-39,-12,-14,-16,-2,-32
1523183329564675,-9,25,6,-8,-18,-5,-9,3
1523183329564675,-16,54,-15,-13,0,8,29,-2
1523183329578210,-3,-11,-28,4,12,11,-3,0
1523183329578210,12,-56,-11,45,1,-3,1,-3
1523183329586734,1,35,-11,40,-14,-15,-24,18
1523183329586734,-1,-20,-4,33,10,10,34,15
1523183329601510,20,24,17,-13,1,2,-5,-4
1523183329601510,11,24,-17,31,13,1,-7,-4
1523183329602313,10,-19,43,-23,-5,0,8,17
1523183329602313,25,6,-6,-4,-6,-7,1,9
1523183329623832,-42,1,-1,4,3,-7,-12,-5
1523183329623832,4,10,2,-11,-21,-6,22,-13
1523183329624834,8,12,-2,-5,16,21,7,-21
1523183329624834,23,21,3,-7,-1,-2,10,12
1523183329638372,-10,-26,-2,-17,-4,-6,-17,-21
1523183329638372,7,6,5,35,-5,-11,-13,-13
1523183329646391,-6,0,-29,-34,-8,11,11,3
1523183329646391,20,33,-28,20,7,-10,-27,-34
1523183329661432,-6,-1,-8,5,2,10,19,-60
1523183329661432,16,0,-2,-48,-9,-4,-32,67
1523183329662434,-9,-15,-2,27,9,-4,1,-26
1523183329662434,-3,12,0,-55,-11,-6,-10,11
1523183329684030,21,4,-9,7,-7,-1,17,10
1523183329684030,-1,-17,16,-6,16,12,1,-28
1523183329684996,-84,2,-30,-17,-5,-6,10,-24
1523183329684996,-28,24,4,36,-12,-11,-18,6
1523183329698576,-30,-15,-23,-54,3,7,-6,9
1523183329698576,80,17,4,19,11,14,48,18
1523183329706727,9,6,1,38,1,-5,-36,-1
1523183329706727,9,-16,-10,-3,-7,-3,32,-11
1523183329721803,-11,9,22,24,3,-5,-16,35
1523183329721803,-15,30,0,-1,-2,5,-7,-4
1523183329722094,15,-81,14,15,4,1,-15,-49
1523183329722094,-6,7,12,-24,-12,-1,31,36
1523183329744151,12,-21,-43,9,-5,-6,-30,4
1523183329744151,-16,-11,1,11,12,6,20,-39
1523183329744655,9,39,-13,-25,-9,-11,-36,14
1523183329744655,-35,-36,20,24,-3,1,-7,-35
1523183329758691,9,19,-13,-26,-15,-5,4,20
1523183329758691,4,-8,-9,6,0,15,18,-6
1523183329766712,-9,23,-9,-10,3,0,14,-15
1523183329766712,-3,11,6,4,0,2,-27,8
1523183329781252,12,11,-10,27,-11,-10,-12,-2
1523183329781252,-27,-39,4,33,18,-13,-13,18
1523183329782256,35,29,-16,8,-1,15,54,-9
1523183329782256,21,2,41,-13,-9,-5,-35,37
1523183329804392,8,-7,46,9,0,4,-30,72
1523183329804392,-11,52,15,-6,-5,-4,-4,-21
1523183329804813,-11,-41,15,-8,1,-2,12,-26
1523183329804813,-1,-4,-27,8,3,-2,8,-26
1523183329818349,-1,5,-31,-38,-5,-1,30,-3
1523183329818349,40,25,0,0,-8,-8,-32,36
1523183329826416,17,61,3,26,2,-12,-11,6
1523183329826416,16,-77,-45,-77,-16,1,25,-11
1523183329841410,-14,-28,-20,26,14,10,-26,-35
1523183329841410,-33,-3,13,-20,3,12,25,-16
1523183329842429,17,-12,-14,10,-1,-13,-18,26
1523183329842429,6,8,5,29,-16,-6,42,-20
1523183329864008,6,24,-21,-2,23,19,-1,-19
1523183329864008,-17,-13,0,-22,-23,-19,-26,14
1523183329864974,-2,-4,-6,-41,10,-1,-44,22
1523183329864974,-29,38,8,3,10,4,17,-17
1523183329887073,-6,15,-32,1,0,-9,-9,33
1523183329887073,-10,-30,-1,28,1,5,19,13
1523183329888036,-27,-6,25,16,3,3,-20,-10
1523183329888036,40,-38,-22,-8,3,-3,-9,7
1523183329901806,6,7,32,8,0,1,-3,-40
1523183329901806,-24,-26,-24,2,4,-5,5,-12
1523183329902070,2,12,-20,-26,-16,-7,-38,36
1523183329902070,-9,22,-3,30,14,13,2,-1
1523183329924409,14,41,36,-4,1,-9,8,0
1523183329924409,-8,3,33,47,-7,-2,32,-31
1523183329924914,-46,-12,3,-66,-3,7,26,-3
1523183329924914,61,-9,-7,9,3,-7,-53,30
1523183329946971,-8,12,12,31,-4,-6,0,-50
1523183329946971,10,-13,-75,-44,-16,-12,-23,30
1523183329947974,-11,-5,2,-13,-3,3,27,24
1523183329947974,-14,4,-5,-34,-6,-3,-6,-10
1523183329961509,-4,0,16,-36,-8,-1,14,1
1523183329961509,5,14,2,11,-11,-10,-11,-3
1523183329962512,3,-40,-18,37,10,6,24,25
1523183329962512,-26,6,-2,-63,-11,1,-49,0
1523183329984068,-17,-12,-7,-26,-17,-12,0,-5
1523183329984068,6,24,41,3,27,6,5,1
1523183329984571,15,13,-4,3,-2,16,57,-29
1523183329984571,-2,8,-2,31,-2,1,-36,67
1523183330007631,-43,23,14,-19,-5,-7,-38,-30
1523183330007631,37,-20,-18,-31,-10,-12,-19,-23
1523183330008139,-32,-67,56,15,-10,-4,-34,-4
1523183330008139,61,-10,27,16,17,8,37,-27
1523183330021670,-27,-2,-12,19,-9,-1,11,40
1523183330021670,-8,-4,-7,-84,-7,-6,-11,-23
1523183330022172,12,40,33,9,-4,-8,-5,4
1523183330022172,-47,-29,13,60,10,20,24,-30
1523183330044228,16,-16,-12,-9,6,0,-5,28
1523183330044228,-7,-51,22,41,0,3,18,-2
1523183330044731,2,16,6,-3,8,-9,1,-38
1523183330044731,14,60,-1,-23,-12,-8,4,82
1523183330066789,-15,-72,-19,8,18,17,12,-21
1523183330066789,3,-51,6,12,-2,5,-1,41
1523183330067795,-13,-13,-55,-70,-16,-21,-33,-18
1523183330067795,-3,11,-52,30,18,21,31,12
1523183330081327,-27,40,19,-3,0,-5,-32,-9
1523183330081327,15,-1,-2,14,4,7,-37,-15
1523183330082332,7,16,-16,40,-7,-8,-21,6
1523183330082332,-6,-35,-3,-40,-12,-14,12,-65
1523183330104404,1,30,5,6,1,2,-1,81
1523183330104404,-14,-2,-25,-18,6,0,0,-12
1523183330104890,4,-66,2,48,2,1,18,6
1523183330104890,-31,3,-12,1,-1,-3,-7,-12
1523183330126952,14,-3,-22,-70,-8,3,27,-6
1523183330126952,-31,29,-7,1,-2,-2,-13,-12
1523183330127951,41,15,-13,37,9,2,-10,16
1523183330127951,-25,-33,36,76,-9,-16,-2,-9
1523183330141488,25,-19,4,-19,-11,-5,10,-12
1523183330141488,2,8,9,51,23,20,30,14
1523183330142492,-14,7,-7,-45,-11,1,39,2
1523183330142492,-14,-2,3,11,-7,-17,-43,-46
1523183330164086,34,13,77,117,10,8,-14,-20
1523183330164086,-32,21,-31,-108,-17,-7,-18,-37
1523183330165052,10,11,15,53,20,22,-4,45
1523183330165052,19,58,24,-98,-8,-7,19,10
1523183330186607,17,-85,-33,-29,-15,-16,10,-27
1523183330186607,9,30,23,64,6,-1,6,-24
1523183330187109,-14,-44,9,-3,-3,-6,-40,-6
1523183330187109,-11,2,-12,-23,-6,0,14,5
1523183330201647,11,34,20,15,11,-5,-10,-13
1523183330201647,-8,-23,-47,63,-17,-9,18,15
1523183330202149,7,6,-17,-73,-2,15,63,-11
1523183330202149,5,53,22,34,16,7,-29,7
1523183330224209,3,-42,-18,69,11,-3,13,-51
1523183330224209,-3,5,-50,-51,-41,-40,-47,93
1523183330224711,-25,34,-18,-36,-3,13,23,-52
1523183330224711,-23,-29,16,32,8,1,-30,-2
1523183330247311,11,81,-7,-12,8,4,-4,21
1523183330247311,-1,-67,41,13,-1,1,35,-9
1523183330247774,8,-6,-30,35,4,-7,-25,7
1523183330247774,0,-14,-21,-86,-4,10,18,-22
1523183330261317,-4,81,19,3,1,3,-18,13
1523183330261317,4,-46,8,1,6,0,-23,-15
1523183330262323,-24,-24,-21,58,-13,-15,-10,3
1523183330262323,0,-7,10,71,6,5,15,-17
1523183330283877,13,-20,-26,-57,-18,-6,12,25
1523183330283877,14,59,27,46,19,13,25,-10
1523183330284903,10,17,14,11,-11,-4,19,-21
1523183330284903,9,17,-49,1,8,-10,-21,12
1523183330307582,16,-20,-1,36,-6,10,78,-92
1523183330307582,0,27,35,64,21,12,-61,52
1523183330307943,9,21,26,42,6,-8,-11,-15
1523183330307943,-10,-26,-47,-72,-35,-13,13,-17
1523183330321711,-11,-22,14,22,16,11,-9,29
1523183330321711,20,17,-8,-40,-4,1,41,-54
1523183330322509,18,53,26,53,10,-5,-33,105
1523183330322509,21,4,26,15,-3,-7,-12,-33
1523183330343536,-13,-53,-31,-28,-11,-9,-3,6
1523183330343536,-17,-9,-30,-17,2,6,14,-6
1523183330351790,21,38,98,15,11,5,22,5
1523183330351790,-23,-31,-12,-16,-11,-9,0,4
1523183330367137,-11,-28,7,1,-6,-13,-32,6
1523183330367137,1,77,-10,35,18,12,-13,46
1523183330368103,-50,-90,-90,-118,-28,-7,20,-77
1523183330368103,32,52,44,58,16,6,-9,35
1523183330381638,-19,-25,28,20,-2,-4,-3,1
1523183330381638,7,-45,-33,-43,-19,-14,-9,-29
1523183330382139,6,28,-6,-27,-16,-16,-4,-16
1523183330382139,2,-19,36,52,22,33,21,21
1523183330404197,18,18,-1,16,2,-2,-26,10
1523183330404197,0,9,55,-18,1,-2,20,-1
1523183330405200,-5,-21,-39,-52,-5,-1,-26,-17
1523183330405200,-15,-16,-23,-34,-22,-19,-3,12
1523183330426300,-11,-6,8,32,19,11,11,0
1523183330426300,1,4,3,-3,-5,0,19,-20
1523183330427259,33,4,17,41,1,-5,-3,-14
1523183330427259,-16,47,39,47,14,13,7,-33
1523183330441797,-19,-67,-58,-96,-26,-12,-25,-6
1523183330441797,0,12,1,20,6,-13,43,6
1523183330442301,5,1,-19,14,-5,2,-78,56
1523183330442301,12,-4,15,62,12,8,7,-24
1523183330463856,12,7,38,18,1,-1,12,10
1523183330463856,-9,2,9,-7,-14,1,-3,-17
1523183330464860,-9,2,-1,34,16,-2,14,-1
1523183330464860,12,15,-27,-26,1,3,14,20
1523183330487419,-9,-13,-20,-81,-5,3,-14,7
1523183330487419,8,17,-17,0,3,-6,-15,2
1523183330487920,-3,7,31,7,3,2,10,-13
1523183330487920,-16,-47,-16,-23,-13,-18,-21,12
1523183330501691,9,8,-13,30,-1,-3,9,8
1523183330501691,13,48,6,-7,0,7,-6,-14
1523183330502458,-18,-10,-14,-19,-3,9,21,19
1523183330502458,11,-30,-27,6,6,-6,-21,50
1523183330524015,2,27,36,67,0,-3,6,-17
1523183330524015,-8,-15,-6,-65,-16,-9,-44,-13
1523183330525021,-16,11,-13,31,5,9,-5,-22
1523183330525021,-15,-1,11,3,-2,3,23,6
1523183330546577,9,20,-24,48,5,-4,10,13
1523183330546577,-1,1,-6,7,8,5,-15,12
1523183330547077,-18,-2,9,50,8,-3,13,-23
1523183330547077,-2,-3,-40,-50,-24,-11,-1,-23
1523183330560654,8,36,-29,25,7,6,-1,8
1523183330560654,1,12,28,28,-10,-8,-2,-13
1523183330569136,13,-28,7,9,17,8,-2,14
1523183330569136,-1,-4,-10,-3,-7,-8,-3,-12
1523183330584177,-1,0,-11,-68,3,10,25,-21
1523183330584177,9,-4,9,41,8,-1,-27,67
1523183330584677,3,-16,6,-29,-13,-3,15,-8
1523183330584677,4,-5,-5,8,5,-4,-29,-13
1523183330606467,-58,8,11,15,-10,-11,-8,-5
1523183330606467,16,-6,-11,-1,0,1,-19,-25
1523183330607239,-25,-26,-2,-11,7,16,5,6
1523183330607239,-15,-2,18,-6,-1,-5,-18,-13
1523183330620771,12,6,15,16,1,1,14,-5
1523183330620771,-2,-14,6,19,6,-6,3,29
1523183330629296,-1,0,-41,-71,-44,-27,-22,-1
1523183330629296,-2,-10,-2,-11,11,24,30,-11
1523183330643834,2,-3,3,12,-13,-6,12,-12
1523183330643834,-7,12,8,22,22,25,27,-3
1523183330644838,16,15,4,-44,-6,-7,-14,3
1523183330644838,-2,-1,14,19,1,-9,6,0
1523183330666678,11,3,-19,-36,-13,-8,-26,11
1523183330666678,-13,2,-29,-20,-16,-8,13,-35
1523183330667181,12,2,4,42,9,7,3,42
1523183330667181,-14,16,26,23,5,1,9,4
1523183330680718,3,-2,-14,-42,2,1,-7,-1
1523183330680718,-7,-25,-19,8,-10,-10,-4,-6
1523183330689239,-13,12,16,5,8,5,3,-35
1523183330689239,22,30,8,10,1,-1,21,62
1523183330704014,-6,2,16,59,9,-6,-42,27
1523183330704014,-19,-27,-24,-88,-23,-16,5,-7
1523183330704782,2,-13,-7,20,15,23,21,22
1523183330704782,-6,-17,-4,10,3,3,4,-50
1523183330726337,19,22,11,11,1,-1,1,-5
1523183330726337,0,26,13,14,1,-6,-24,23
1523183330727381,0,-16,28,84,-9,-20,-4,-17
1523183330727381,-8,-22,-63,-100,-27,-2,12,-13
1523183330740874,-1,-13,12,60,28,16,8,3
1523183330740874,-5,-15,0,9,-17,3,-4,-21
1523183330748896,15,30,-1,2,3,-3,8,12
1523183330748896,-3,-20,65,59,7,-4,-11,-4
1523183330763937,-5,-1,-42,-75,-19,-6,-9,-9
1523183330763937,-6,-23,33,17,13,6,24,-14
1523183330764939,27,52,6,-11,-1,-5,-41,32
1523183330764939,1,-44,-24,-12,-11,-5,-26,-1
1523183330786498,3,-59,24,56,-17,-16,27,5
1523183330786498,-4,-4,6,20,24,25,13,-22
1523183330787498,-17,-4,-5,7,12,14,-12,10
1523183330787498,37,52,20,1,-4,-5,-7,-9
1523183330801035,1,-15,8,14,2,2,-12,-18
1523183330801035,-9,-53,-27,-49,-29,-35,-5,28
1523183330809059,-16,3,-8,36,-15,-10,6,-18
1523183330809059,10,18,-3,46,43,42,21,-18
1523183330824097,-22,4,-36,-70,-26,-13,-20,52
1523183330824097,10,18,6,-16,-3,-3,-18,-20
1523183330824604,27,42,-22,-36,-2,-10,10,-18
1523183330824604,-31,-26,-2,16,-8,-14,-29,25
1523183330846656,16,40,19,17,5,7,12,-19
1523183330846656,-7,-26,-6,5,7,8,4,8
1523183330847158,-17,12,20,-1,-14,-17,-2,-3
1523183330847158,5,42,-42,-35,3,16,28,-23
1523183330860693,-33,-20,-2,-26,11,5,-5,5
1523183330860693,0,19,27,34,0,3,-14,7
1523183330869215,-8,1,-6,8,1,2,15,-18
1523183330869215,-6,-64,-28,-40,-11,-17,9,-10
1523183330883755,10,4,-8,-4,-19,-17,-38,-16
1523183330883755,4,14,23,19,22,22,27,13
1523183330884759,0,-10,22,0,3,1,3,-14
1523183330884759,-5,-24,9,33,-2,-7,-11,-3
1523183330906816,14,18,-12,-37,13,11,-3,53
1523183330906816,-12,14,-15,2,-21,-6,12,-4
1523183330907823,-2,-75,-22,-7,8,8,-10,41
1523183330907823,-1,30,24,20,1,-8,-23,-3
1523183330929878,2,-5,-5,33,1,-9,18,-50
1523183330929878,8,54,-8,-34,-8,-7,-5,20
1523183330930379,-9,-52,-16,-28,-6,2,-2,4
1523183330930379,-1,1,1,2,-2,2,15,6
1523183330943914,-1,45,-41,5,8,11,6,-31
1523183330943914,-7,-30,21,18,7,4,32,20
1523183330944920,-11,-14,-12,42,-7,-11,-3,-23
1523183330944920,-7,-27,6,-60,-15,-11,-16,15
1523183330966474,24,15,-7,11,-13,4,58,-2
1523183330966474,17,20,-3,18,24,7,-68,-1
1523183330967482,12,-3,7,-6,5,5,3,-1
1523183330967482,19,28,-6,32,-9,-11,3,-4
1523183330989771,-6,0,13,20,16,18,15,-4
1523183330989771,-10,-65,-24,15,-28,-19,-5,-10
1523183330990539,3,44,30,36,16,12,-13,-19
1523183330990539,2,25,35,-36,-5,-4,-1,6
1523183331004074,-5,-12,0,-2,0,-5,-7,-10
1523183331004074,2,8,11,-16,-3,-6,0,17
1523183331005115,-21,-10,-13,-30,-10,-7,-16,-6
1523183331005115,19,18,-6,4,5,-4,6,1
1523183331026635,0,-13,-4,24,-18,6,0,6
1523183331026635,18,26,10,-31,23,27,30,-13
1523183331027137,-24,-58,-75,-67,-19,-13,-26,12
1523183331027137,-27,9,6,11,-1,-5,-1,-14
1523183331049696,-21,-24,28,2,7,-5,18,30
1523183331049696,39,17,-37,7,-11,-9,-19,-8
1523183331050698,30,34,38,48,-3,-1,13,4
1523183331050698,-21,-48,-1,-81,-7,2,0,-10
1523183331063771,-9,-7,-6,10,4,-5,-4,39
1523183331063771,2,37,5,-1,-3,2,31,-22
1523183331064737,16,8,10,-4,9,-1,-7,-5
1523183331064737,-9,-21,-26,21,-11,-8,20,-14
1523183331086461,4,-4,21,-6,7,3,-33,1
1523183331086461,-10,2,20,2,12,10,22,-48
1523183331087463,9,5,-17,19,0,3,11,4
1523183331087463,14,28,-17,16,-10,-4,-15,-9
1523183331109067,9,-4,-8,-4,-8,-9,9,-17
1523183331109067,-11,-7,16,56,-1,-9,-28,48
1523183331110064,7,-11,19,-1,7,-2,4,-3
1523183331110064,-6,29,-4,23,6,5,11,-11
1523183331124107,1,-19,-16,-9,-3,-7,-46,-15
1523183331124107,-3,4,0,-3,-1,-2,5,-12
1523183331124107,-3,5,13,-20,-10,-5,14,62
1523183331124107,-3,-6,-24,19,5,3,-11,-15
1523183331146633,29,67,19,-5,-2,-2,24,-3
1523183331146633,-6,-36,-39,27,4,2,-2,-37
1523183331147398,-15,-40,-15,-85,-2,1,-6,-18
1523183331147398,-9,0,-9,15,1,7,-6,7
1523183331168985,-15,-58,14,34,7,2,-5,-6
1523183331168985,0,39,22,9,-11,-19,6,0
1523183331169985,3,-12,9,34,-27,-19,-40,-6
1523183331169985,-5,-17,-12,15,31,32,12,27
1523183331184025,10,-7,-14,-71,-8,4,-1,-21
1523183331184025,-7,-1,8,-16,-3,-4,19,10
1523183331185026,2,-3,-26,7,-4,-7,-8,1
1523183331185026,2,32,28,13,-11,-15,2,13
1523183331206316,-12,0,-24,27,2,4,-14,14
1523183331206316,-8,-31,-36,-15,-8,-9,-15,40
1523183331207082,-12,33,-36,-31,1,4,32,-32
1523183331207082,48,-9,22,31,7,-7,-35,24
1523183331229142,-2,59,-41,-48,-16,-12,9,-15
1523183331229142,-13,-64,-34,-14,-8,3,-5,-5
1523183331230145,-6,-35,-4,19,18,19,23,-16
1523183331230145,-17,23,9,-1,-1,1,33,26
1523183331244189,30,-17,-10,-17,-6,-22,-46,8
1523183331244189,-5,-26,-21,-26,-33,-15,-3,-14
1523183331244691,6,45,22,3,28,35,44,-52
1523183331244691,-8,-18,0,-6,-11,-10,-46,58
1523183331266580,-8,-8,12,2,3,1,-3,-21
1523183331266580,-3,16,17,14,-2,-4,-16,-2
1523183331266580,1,6,-6,31,-3,-14,12,-38
1523183331266580,-7,-12,-25,-68,-13,-4,11,8
1523183331289877,-69,10,58,25,9,-4,-11,-9
1523183331289877,13,-2,30,48,16,16,-4,-5
1523183331290647,-13,-19,-14,-99,-18,-7,18,8
1523183331290647,17,15,-15,-4,6,3,-15,-49
1523183331303913,4,-32,-1,12,-2,4,22,31
1523183331303913,-5,-3,-16,13,6,-3,-21,-24
1523183331304681,7,25,18,-19,-3,-8,-23,12
1523183331304681,-7,-18,10,28,-2,-4,16,74
1523183331325739,0,6,9,-13,-3,6,-20,-26
1523183331325739,10,15,16,-14,14,10,12,-6
1523183331326740,-5,-5,8,61,-13,-14,-21,45
1523183331326740,9,-22,-20,-62,-3,-11,-18,2
1523183331349804,-4,18,-5,-14,-6,5,16,-18
1523183331349804,-9,-19,-16,-14,2,2,3,14
1523183331350306,3,5,25,87,6,-2,-18,-8
1523183331350306,-11,18,-49,52,12,4,23,-54
1523183331363661,0,-12,7,33,-29,3,13,23
1523183331363661,-8,-12,-24,-17,7,6,4,-43
1523183331364664,6,12,-14,-50,-10,-11,-27,32
1523183331364664,2,-13,100,127,31,9,28,-57
1523183331386724,15,-7,-16,7,21,0,-1,55
1523183331386724,-13,-40,5,-5,-20,2,-4,37
1523183331386724,-18,-6,2,50,8,-8,-20,20
1523183331386724,7,7,-5,-65,-21,-12,-31,5
1523183331409783,4,-15,2,-9,-3,-7,15,-20
1523183331409783,-1,21,28,7,15,10,16,12
1523183331409783,1,8,-1,-8,-3,-1,-5,10
1523183331409783,-9,-3,-6,-49,-10,9,18,-17
1523183331423821,19,6,22,51,9,-3,-4,-8
1523183331423821,-3,31,-24,-47,-6,-9,-5,-13
1523183331424826,1,-34,9,-1,-1,13,29,-11
1523183331424826,0,25,6,37,-2,4,-14,-16
1523183331446624,-12,-44,-17,-46,-2,-4,-55,-8
1523183331446624,16,28,-10,20,-2,-9,-4,29
1523183331447124,6,-6,10,-13,-12,-3,8,-64
1523183331447124,-6,-20,73,2,-1,0,17,25
1523183331468970,-4,4,-9,-8,3,7,14,-7
1523183331468970,11,0,4,61,12,-1,-28,6
1523183331469973,-28,-9,-10,-72,-13,3,-7,-23
1523183331469973,15,-25,-78,-96,-24,-15,-12,-14
1523183331483006,4,58,-20,57,7,-7,0,0
1523183331483006,-6,-13,21,15,-11,3,13,4
1523183331491037,6,37,3,28,12,3,6,-22
1523183331491037,-13,-23,0,21,-2,-1,-9,5
1523183331506301,-6,-1,-12,-61,-3,1,3,-16
1523183331506301,5,-18,-7,7,1,-4,14,-4
1523183331507071,6,-5,3,3,13,-2,-10,35
1523183331507071,2,10,-15,1,-12,-5,-6,-11
1523183331529127,1,-22,-5,-45,-21,-1,23,12
1523183331529127,-7,0,-12,37,20,9,-5,-8
1523183331530130,-10,2,14,-16,-6,-1,-5,-1
1523183331530130,-10,31,3,38,19,-2,-1,1
1523183331543403,-7,-13,-52,-54,-25,-6,-12,-13
1523183331543403,2,-15,-3,9,-13,-5,33,48
1523183331551660,5,7,0,38,10,-6,-42,-1
1523183331551660,2,15,1,10,9,5,6,-19
1523183331566299,2,1,7,43,5,7,9,3
1523183331566299,-6,0,22,-42,0,2,2,-15
1523183331567302,11,28,12,-5,3,1,9,-9
1523183331567302,-6,-15,9,13,-2,-10,7,24
1523183331589584,-11,-62,12,34,0,4,-6,16
1523183331589584,-12,-47,-15,-17,-2,-3,2,-5
1523183331590361,11,29,0,20,1,3,-22,-11
1523183331590361,4,15,-3,-8,3,7,4,-5
1523183331603628,13,17,-1,29,7,-6,1,-5
1523183331603628,8,2,16,-9,-7,-7,-26,-20
1523183331611418,-2,-4,-57,-23,-22,-9,7,15
1523183331611418,-8,-13,1,10,17,8,3,-8
1523183331626459,1,16,-14,-51,-4,-5,-6,7
1523183331626459,8,19,14,51,-5,-2,18,-37
1523183331627462,27,38,-35,-88,-15,0,23,-1
1523183331627462,-18,-48,-5,19,-1,0,-50,24
1523183331649761,9,8,32,23,2,-9,-1,44
1523183331649761,-18,-8,-31,-38,-7,-4,-3,-38
1523183331650803,-11,-22,-8,20,5,3,45,-11
1523183331650803,35,46,19,-21,-3,-1,-12,-31
1523183331664065,8,-31,18,-2,-1,-13,0,-18
1523183331664065,4,46,7,24,-3,2,-21,29
1523183331671318,2,-22,29,37,33,33,14,20
1523183331671318,-8,22,-17,-78,-26,-19,6,-9
1523183331686124,-10,-36,6,38,13,7,-4,-17
1523183331686124,-1,32,4,12,4,-5,8,-2
1523183331687127,5,-3,15,18,-18,-12,-8,3
1523183331687127,-3,-12,-19,47,7,8,-1,-11
1523183331709184,-1,33,10,32,-2,-3,18,-15
1523183331709184,-15,-23,-40,-2,-13,-14,-2,-29
1523183331710186,5,7,32,28,8,1,-12,-5
1523183331710186,-2,-7,-16,-18,-9,-1,-22,-1
1523183331723221,-7,-24,25,33,14,6,56,40
1523183331723221,-15,-15,22,10,22,9,-73,1
1523183331731243,-4,-6,-29,-62,-6,3,5,-31
1523183331731243,-17,-6,-8,-2,-30,-25,-22,-30
1523183331746525,19,11,6,-6,17,16,2,-37
1523183331746525,-12,-2,-3,-7,6,9,18,42
1523183331747293,-4,-31,24,22,6,-12,-4,24
1523183331747293,-8,17,23,3,-4,7,18,-16
1523183331769111,-44,-8,-21,10,-1,-1,-21,36
1523183331769111,11,6,25,-44,-5,-4,-8,-19
1523183331770155,-9,2,-21,13,-8,-12,-15,17
1523183331770155,11,-3,12,36,16,5,31,18
1523183331783150,15,8,16,-6,3,-5,-15,-22
1523183331783150,21,10,2,34,-7,-5,18,26
1523183331791407,-8,71,-7,-56,-12,9,-7,-28
1523183331791407,-12,-89,-28,6,9,8,-8,26
1523183331806444,0,-9,-10,-24,0,3,25,-7
1523183331806444,-30,9,-12,-10,-6,-8,-41,5
1523183331807215,44,31,30,29,5,-8,7,27
1523183331807215,-14,31,-1,31,7,2,24,5
1523183331829270,9,-26,-1,-12,-15,7,54,-29
1523183331829270,-40,-7,1,-11,19,5,-16,-25
1523183331830272,25,0,12,5,-6,-2,-24,-8
1523183331830272,10,-19,2,22,2,0,17,8
1523183331852335,-10,45,26,35,0,-4,-23,-53
1523183331852335,5,-13,-15,-39,-12,-2,27,40
1523183331852836,-1,-46,-18,18,2,-4,-5,-4
1523183331852836,-4,-7,16,-8,-2,-6,-6,-17
1523183331865741,17,33,13,16,0,5,-16,-6
1523183331865741,14,19,-23,19,5,11,0,1
1523183331866704,-18,-22,35,-8,0,-5,1,33
1523183331866704,-3,-17,-18,-26,-8,2,22,-27
1523183331889777,-16,-11,-37,-52,-22,-23,-34,50
1523183331889777,15,36,16,26,12,9,11,-16
1523183331890775,-20,-71,2,29,12,13,12,2
1523183331890775,-18,9,17,16,-1,-5,0,1
1523183331911827,-10,17,6,-12,-9,-8,-40,7
1523183331911827,-25,-23,0,11,-3,-5,27,-8
1523183331912827,-26,0,-18,-27,1,-2,-1,-50
1523183331912827,-2,27,3,-15,-14,3,-1,29
1523183331925863,5,-13,40,42,2,5,17,10
1523183331925863,11,-1,-34,-8,2,-7,-18,4
1523183331926865,-17,-29,-27,-13,-16,-19,-11,1
1523183331926865,-8,6,-8,-32,-1,3,-8,-26
1523183331949927,4,0,-10,13,7,5,18,-1
1523183331949927,12,58,30,24,15,14,-23,-7
1523183331950429,23,-4,17,30,14,9,16,36
1523183331950429,-5,-38,10,-9,-6,-14,-13,-34
1523183331971812,3,9,-15,-19,-13,-17,2,45
1523183331971812,13,-1,4,-14,4,17,50,-17
1523183331972580,-5,30,-17,-9,-8,-9,-80,2
1523183331972580,11,30,7,27,2,0,-8,22
1523183331986619,-28,14,-37,-23,5,2,-2,2
1523183331986619,4,-54,4,21,-12,-10,30,-12
1523183331986619,-11,-7,-24,-1,-5,-4,7,30
1523183331986619,21,-5,2,-15,-3,-2,-2,-9
1523183332008676,-4,-11,48,12,22,16,-13,-26
1523183332008676,2,-9,-14,-10,-14,-5,13,6
1523183332009678,10,39,-2,33,-2,0,7,5
1523183332009678,-9,-8,-15,-50,0,-5,-33,-6
1523183332031738,4,13,23,23,1,-3,10,-4
1523183332031738,17,-9,-36,-80,-17,-8,1,-7
1523183332032741,2,-2,8,-53,-4,-6,-12,10
1523183332032741,17,-2,-25,4,-15,0,-9,-7
1523183332046514,3,-51,-16,40,-1,8,32,0
1523183332046514,-12,15,9,-44,-8,-12,-42,-33
1523183332047281,18,5,17,56,3,-1,25,-1
1523183332047281,8,9,5,14,9,4,3,22
1523183332069439,0,14,1,44,2,2,-5,-16
1523183332069439,6,-23,22,29,0,-6,10,-7
1523183332070438,-13,-18,-42,-96,-43,-6,5,-26
1523183332070438,-9,16,19,9,28,13,-1,4
1523183332091495,13,2,17,86,17,-1,-35,2
1523183332091495,-17,-13,-45,-87,-27,-14,-9,16
1523183332092496,5,-9,5,7,-8,-17,-8,-37
1523183332092496,-4,58,28,59,11,20,60,12
1523183332106534,13,-17,10,37,17,8,0,-38
1523183332106534,1,24,-13,-5,-21,-16,-63,63
1523183332106534,-11,-48,-7,43,11,-2,16,-20
1523183332106534,0,7,-8,13,-4,-9,11,-10
1523183332129596,-1,13,-14,-56,-14,-3,-19,-15
1523183332129596,4,4,6,47,11,12,33,-22
1523183332130601,-13,18,20,54,9,7,23,9
1523183332130601,9,-28,-23,-5,1,-11,-24,21
1523183332152400,-10,-19,-6,-37,-7,-1,9,2
1523183332152400,-10,-10,-8,21,8,4,-9,-7
1523183332153163,1,22,-10,-22,-2,1,-1,4
1523183332153163,-7,-10,9,32,14,-2,-3,-10
1523183332166468,-4,-27,-41,-49,-23,-6,-14,8
1523183332166468,10,5,-12,-2,-5,11,30,15
1523183332167470,-9,8,25,104,18,3,-6,-27
1523183332167470,-3,-5,32,-89,-22,-6,-9,-15
1523183332189531,4,35,-16,-7,-3,-6,-20,31
1523183332189531,18,25,-10,24,17,1,35,58
1523183332190533,-5,-6,32,54,3,-6,-65,-10
1523183332190533,1,-16,-33,6,-4,-6,2,-44
1523183332210586,-12,-6,-10,-78,-9,1,-8,19
1523183332210586,-11,-26,32,13,9,4,7,-27
1523183332218608,-39,22,15,-2,3,5,15,-5
1523183332218608,10,-11,-7,29,-2,-6,4,39
1523183332226631,3,4,-38,-82,-21,-20,-3,-18
1523183332226631,-10,-28,11,76,11,-7,-23,-10
1523183332226631,9,76,6,-26,4,23,24,4
1523183332226631,-19,-99,-17,80,0,-3,-15,-22
1523183332249691,-17,-19,13,14,3,2,14,14
1523183332249691,10,0,6,26,-5,-15,-47,-8
1523183332250694,-3,3,5,19,1,-3,8,2
1523183332250694,11,36,-9,-17,4,14,26,24
1523183332271845,2,15,8,30,7,-7,-53,-12
1523183332271845,13,-3,17,-3,-9,1,15,-6
1523183332272811,4,-33,-20,-18,-4,-1,6,-10
1523183332272811,-3,30,5,2,2,-2,9,16
1523183332285845,0,-29,-15,-10,-5,-2,-6,-16
1523183332285845,-3,27,24,-20,1,-3,-11,6
1523183332293864,13,25,15,41,7,4,9,-23
1523183332293864,-5,-2,-52,-107,-20,0,10,29
1523183332309906,-15,-27,6,59,10,0,-14,-23
1523183332309906,7,12,-33,24,1,4,-2,-6
1523183332310910,12,-18,32,-14,-6,-5,-4,13
1523183332310910,-13,-29,15,46,1,-10,4,-28
1523183332331966,9,37,7,25,6,10,25,70
1523183332331966,-21,-35,-35,-61,-5,-2,-12,-26
1523183332333980,14,1,-11,53,-1,5,7,26
1523183332333980,-1,-1,-10,-110,-10,-3,1,-12
1523183332346198,-11,10,4,2,-3,-4,5,-7
1523183332346198,6,-10,10,21,-1,3,5,-17
1523183332355032,-5,-19,-8,-19,-6,-13,-8,32
1523183332355032,-3,30,3,48,11,0,-3,13
1523183332370099,9,24,10,-3,-9,6,19,-31
1523183332370099,-11,-30,23,4,9,1,-13,48
1523183332371101,-9,-19,-35,-27,1,2,-2,-4
1523183332371101,-11,-1,18,17,-3,-3,-15,-4
1523183332392158,15,13,18,0,-5,-2,12,3
1523183332392158,1,12,48,31,4,-4,7,-9
1523183332393161,-7,-15,-11,-17,1,-1,-1,11
1523183332393161,-1,-15,-15,-49,-25,-14,-16,20
1523183332405430,14,34,1,29,14,9,14,11
1523183332405430,0,4,-6,45,-2,5,6,-10
1523183332414216,-18,-26,-26,-93,3,0,-24,-19
1523183332414216,-4,22,10,14,2,3,21,-23
1523183332429255,-5,-9,-11,-21,-8,-11,-19,-6
1523183332429255,23,8,1,48,-11,-8,27,14
1523183332431264,-5,-15,-30,-84,-15,-7,-40,-2
1523183332431264,-14,20,7,49,9,11,14,-35
1523183332452340,19,-21,-13,-15,3,-2,-30,15
1523183332452340,-4,-13,5,-13,-12,-11,3,17
1523183332453846,1,10,9,45,-21,-11,25,-17
1523183332453846,-2,12,2,-76,13,18,-19,-4
1523183332465112,-13,-26,4,33,-3,-3,-2,-7
1523183332465112,2,40,13,-24,0,-3,-8,15
1523183332474142,6,-61,-24,-14,-2,-7,12,-17
1523183332474142,8,32,-12,80,-4,-14,-33,76
1523183332489217,-11,-35,-8,-82,-11,4,10,4
1523183332489217,-27,15,-6,4,1,-4,16,-38
1523183332491143,23,21,-17,20,-5,-9,-15,-5
1523183332491143,14,23,24,51,3,9,1,-18
1523183332512199,2,13,-18,-28,16,12,0,-6
1523183332512199,-9,-10,-10,28,2,8,-6,-31
1523183332513207,-33,1,5,-7,-8,-4,5,37
1523183332513207,8,-11,10,26,4,-5,-7,-7
1523183332525233,8,20,1,9,-8,-13,-1,5
1523183332525233,3,31,16,28,1,7,8,-19
1523183332534258,-20,-27,-23,58,-1,3,3,-17
1523183332534258,1,-25,-5,3,-10,-15,-12,-13
1523183332549806,-30,-5,-11,11,-5,0,0,35
1523183332549806,16,-1,32,1,12,5,12,11
1523183332551311,21,45,51,-3,8,1,-17,18
1523183332551311,-12,-31,-7,-23,-6,-2,-24,-39
1523183332572077,-4,-2,45,19,5,3,27,-32
1523183332572077,-2,6,-27,-6,-6,-8,-29,-12
1523183332574082,1,-2,-27,-99,-21,-4,18,23
1523183332574082,7,6,13,14,5,2,9,0
1523183332585112,-1,-26,3,63,15,1,-1,-10
1523183332585112,-3,-8,-45,-86,-16,7,11,-7
1523183332594370,-11,0,29,26,17,11,-2,-13
1523183332594370,22,20,5,-6,0,-3,-4,7
1523183332609174,-10,-6,-5,21,-3,-4,8,-13
1523183332609174,1,-37,-18,1,-11,-15,-35,33
1523183332611180,0,-21,-26,-12,-1,-15,-4,-7
1523183332611180,-2,4,14,7,5,16,12,5
1523183332632274,8,23,-3,-1,7,16,33,-22
1523183332632274,-6,8,-14,-41,-2,-5,-4,2
1523183332633239,17,29,38,13,17,5,1,-33
1523183332633239,-11,-36,20,33,-8,-21,-12,8
1523183332646014,-4,-2,-65,-90,-30,0,9,-32
1523183332646014,-9,2,7,64,14,4,2,9
1523183332654804,10,-3,-7,28,4,0,-10,42
1523183332654804,7,6,-2,-6,-2,-7,-1,-5
1523183332670027,-8,-5,16,-11,-15,-13,0,31
1523183332670027,21,-21,-10,-32,10,14,-4,-24
1523183332670863,9,44,5,17,-1,3,6,-7
1523183332670863,-17,-66,-20,-16,1,0,1,3
1523183332691919,-16,-2,6,40,7,-4,-23,9
1523183332691919,-3,30,-15,-31,-17,-6,6,2
1523183332694139,-10,-40,-3,37,-6,-1,-4,-3
1523183332694139,-1,21,-1,20,2,1,10,6
1523183332705957,13,11,12,21,9,10,12,-14
1523183332705957,-16,-34,-7,-17,-3,-7,-14,-5
1523183332714981,8,28,3,21,4,6,10,-7
1523183332714981,-3,0,5,-40,-20,-1,47,-7
1523183332729019,4,0,2,8,-1,-10,-58,21
1523183332729019,-12,24,5,-11,-9,-7,6,39
1523183332731024,-5,-3,-13,-5,0,0,-18,-45
1523183332731024,-3,-8,-16,-6,1,0,7,54
1523183332752597,14,2,-23,2,-2,-7,-3,-12
1523183332752597,-7,-20,17,-17,-1,-4,19,-12
1523183332754200,-3,-9,5,-5,11,15,6,-9
1523183332754200,2,-13,-13,6,0,1,-7,-12
1523183332774297,-4,17,-13,-26,-6,-2,-1,-7
1523183332774297,3,-48,-22,36,9,-5,-8,2
1523183332776253,-1,45,11,-49,-8,-3,24,-10
1523183332776253,0,-36,-8,34,-5,-6,-25,17
1523183332789287,-8,-22,4,15,-13,-12,0,7
1523183332789287,4,13,3,29,14,13,4,-9
1523183332791293,-3,2,8,-8,2,1,13,-12
1523183332791293,1,20,0,-5,3,-2,-22,41
1523183332812349,-2,11,-10,-38,-9,-12,-1,-23
1523183332812349,6,-6,21,-4,6,9,-2,2
1523183332813352,-13,-41,8,26,6,10,-1,56
1523183332813352,-5,9,-12,27,2,-6,-22,-37
1523183332834408,3,-14,-4,-58,-7,-7,6,6
1523183332834408,5,30,6,11,-3,-8,-6,-8
1523183332836455,7,3,-32,17,2,0,16,-6
1523183332836455,14,2,-21,-61,-13,-6,-17,12
1523183332850192,-4,-1,28,31,3,6,1,11
1523183332850192,-6,8,-11,-9,1,1,1,-9
1523183332852073,-9,-22,6,64,-2,-9,-2,0
1523183332852073,1,44,-37,-41,-9,3,3,-33
1523183332872059,-6,-34,-2,40,3,6,26,16
1523183332872059,-4,-14,-20,-12,-12,-11,-44,0
1523183332873065,-1,-20,0,17,7,3,1,8
1523183332873065,4,26,28,23,4,6,42,-72
1523183332895119,3,18,1,24,-11,0,-49,57
1523183332895119,-10,-14,-2,-37,-4,-3,11,-28
1523183332896123,2,-5,12,27,6,-5,-12,8
1523183332896123,1,-3,-3,-5,-4,5,47,20
1523183332909158,-26,3,7,-1,5,-7,-26,-83
1523183332909158,14,-1,9,27,-5,-2,18,-7
1523183332911162,1,14,-10,-26,-2,0,-31,24
1523183332911162,-6,-11,2,5,-2,-3,-14,7
1523183332932258,9,5,4,19,15,0,34,-35
1523183332932258,-5,2,-1,-18,-23,-18,-32,28
1523183332933221,3,-3,-9,-30,5,18,23,-47
1523183332933221,-6,-4,8,8,15,25,58,33
1523183332955022,10,14,9,-5,-2,-13,-35,64
1523183332955022,4,-16,17,16,2,1,52,-18
1523183332956292,-9,-3,-5,1,2,0,-66,-36
1523183332956292,-9,-17,-18,-10,-13,-30,-37,-7
1523183332969403,8,5,-30,-33,-3,29,32,-18
1523183332969403,-2,23,9,-20,2,-5,25,30
1523183332975387,13,22,16,-1,-10,-5,-11,-6
1523183332975387,-2,-18,21,16,16,4,-13,3
1523183332992394,-12,-41,-53,-4,-30,-38,1,-14
1523183332992394,-1,22,-31,17,21,48,-3,-6
1523183332993398,-10,-7,10,-7,-1,2,10,-23
1523183332993398,7,30,11,0,-2,-8,12,15
1523183333014454,0,13,30,-11,5,0,-18,0
1523183333014454,-10,-38,-41,64,-1,-7,-16,0
1523183333016458,-8,-16,-5,5,-4,-6,56,-10
1523183333016458,-3,-7,7,52,3,-2,-61,26
1523183333028489,-10,28,-11,-54,-17,-8,33,-3
1523183333028489,-1,-11,38,11,1,2,-12,-5
1523183333037514,-1,5,-20,20,8,1,11,20
1523183333037514,-1,4,3,5,-4,-8,-5,-18
1523183333052604,2,-3,6,11,13,15,5,14
1523183333052604,-7,-3,10,-17,-5,-12,-23,4
1523183333054203,-9,9,-7,-6,-19,-13,16,-6
1523183333054203,5,-17,-15,-51,-1,9,-24,8
1523183333074317,7,15,6,5,17,4,2,-13
1523183333074317,1,12,-5,-19,1,8,-4,-27
1523183333076321,10,30,-4,-14,-8,-16,-43,15
1523183333076321,2,-7,8,0,-4,2,14,-2
1523183333088354,-3,-42,4,30,9,12,33,-16
1523183333088354,3,-16,36,32,-5,-13,-35,18
1523183333095435,2,16,1,-42,-1,5,19,-5
1523183333095435,1,22,0,11,1,0,-10,-58
1523183333112417,-22,2,-17,2,1,-5,-7,48
1523183333112417,-2,-13,18,22,1,0,10,-16
1523183333113419,6,8,-9,4,3,5,-12,22
1523183333113419,5,10,-1,-45,-8,-3,8,15
1523183333134476,7,-23,7,-29,3,1,2,-23
1523183333134476,-3,13,-21,-31,-21,-9,-10,-14
1523183333136481,-18,-11,-16,6,0,-4,61,-17
1523183333136481,1,-5,7,25,9,13,-47,3
1523183333149066,10,9,10,26,10,11,16,-1
1523183333149066,-5,35,-6,-21,-1,-7,3,-23
1523183333156085,28,-41,-14,-29,-16,-7,-3,-1
1523183333156085,-21,16,-5,-8,1,-1,29,1
1523183333179654,-4,-36,-3,12,1,-3,-11,6
1523183333179654,4,4,13,9,-1,-7,10,-21
1523183333180655,-11,9,-22,-60,-5,-5,-28,2
1523183333180655,7,-35,15,43,3,6,8,6
1523183333194928,7,23,6,28,-3,4,-22,-3
1523183333194928,0,-12,5,-3,5,-1,13,-7
1523183333195694,17,3,27,30,2,-1,17,49
1523183333195694,-5,-3,-9,5,-3,-7,-32,-5
1523183333208767,-4,-13,-5,-15,-6,-11,-5,-21
1523183333208767,8,-16,-18,4,-16,-3,33,34
1523183333215747,-10,-1,-6,4,21,27,0,-7
1523183333215747,-27,-49,-21,-4,5,0,5,-9
1523183333231791,30,49,24,9,-4,-9,-32,-31
1523183333231791,-7,-18,-11,25,-1,-13,-2,48
1523183333233834,-6,-30,10,-37,-14,-2,-26,2
1523183333233834,0,23,7,24,6,4,14,-12
1523183333255075,-12,-4,-7,-36,-8,-2,12,-2
1523183333255075,-1,26,-11,61,15,6,-3,10
1523183333256366,-2,1,-37,-46,-13,-2,1,-18
1523183333256366,-5,-2,1,4,3,-10,4,3
1523183333267897,-2,-4,-4,40,-5,4,-9,7
1523183333267897,-1,-17,-15,-44,-1,3,14,-28
1523183333276921,-2,-16,60,71,1,-10,-18,14
1523183333276921,13,9,-17,-64,0,0,40,-42
1523183333291963,3,9,20,9,-4,-13,-86,74
1523183333291963,-1,2,-9,-32,-1,12,5,-44
1523183333293968,-28,-4,-14,-17,-8,-8,-22,12
1523183333293968,18,24,8,-1,-2,6,44,-30
1523183333314059,3,-13,8,28,9,0,2,-5
1523183333314059,-20,4,31,66,17,8,-13,-27
1523183333316028,-7,-8,-6,77,-12,-18,-21,0
1523183333316028,7,36,-5,28,-7,-2,12,-12
1523183333328058,3,-9,-11,-6,9,12,23,1
1523183333328058,12,22,-19,-79,-25,-11,-5,39
1523183333337081,0,-44,-2,50,30,8,18,-12
1523183333337081,-11,-20,4,-91,-5,4,4,-42
1523183333352361,11,27,28,20,7,4,-13,46
1523183333352361,4,-11,-6,36,3,-3,-12,1
1523183333354172,12,24,0,-28,-9,-5,8,18
1523183333354172,0,-8,-13,26,-14,-10,-36,83
1523183333374195,0,5,45,4,3,-2,-9,-10
1523183333374195,7,3,18,46,14,2,18,-15
1523183333376199,2,35,-40,-94,-20,0,16,55
1523183333376199,-1,-5,5,44,8,5,-19,5
1523183333388231,-15,-13,-24,3,0,2,22,-37
1523183333388231,-16,-31,-12,-18,-11,-11,-21,20
1523183333403506,14,0,26,11,9,0,8,-46
1523183333403506,30,39,-1,-40,-11,-7,-22,28
1523183333412294,-15,-28,-32,-25,-4,4,39,3
1523183333412294,-16,-25,-26,-23,-5,-2,-13,-45
1523183333413298,1,5,10,33,16,8,43,19
1523183333413298,-7,-6,-1,16,-12,-12,-51,-38
1523183333434364,3,17,-16,-81,-18,-12,-15,-11
1523183333434364,10,7,-3,50,4,10,34,25
1523183333436358,0,-12,40,-94,4,8,-23,-10
1523183333436358,-3,7,16,45,2,0,6,3
1523183333448398,-7,-22,-1,48,2,5,10,-13
1523183333448398,6,-7,21,-40,2,2,0,-11
1523183333456919,-6,3,-26,17,-15,-17,-41,5
1523183333456919,-1,-24,0,-4,5,-4,7,-6
1523183333472409,7,20,11,4,-19,-12,5,-8
1523183333472409,-5,7,-12,-22,4,8,6,6
1523183333473398,-5,32,-15,52,17,19,-13,5
1523183333473398,-18,-105,-9,-12,0,5,28,-27
1523183333494692,1,-7,-26,37,0,-8,-10,12
1523183333494692,-10,39,7,-44,-6,-12,-28,49
1523183333496458,-8,-12,-11,1,-35,-20,3,-6
1523183333496458,-13,23,3,8,14,8,2,-25
1523183333508489,-9,-2,-6,-15,7,10,13,-23
1523183333508489,4,-9,29,27,7,6,14,-4
1523183333517516,0,17,-4,-2,1,-2,-27,4
1523183333517516,11,-9,4,3,-10,-6,13,1
1523183333531787,-2,1,4,19,8,6,4,-10
1523183333531787,2,11,8,27,6,1,-11,-3
1523183333533556,-1,-11,-17,-21,-8,-3,6,-6
1523183333533556,2,18,-5,6,2,-4,1,-6
1523183333554854,-7,-2,16,1,-4,-2,4,9
1523183333554854,0,-6,-27,-7,1,5,-7,33
1523183333556124,8,-16,-4,-6,-4,-8,-37,8
1523183333556124,-8,26,-14,7,-6,-8,-5,14
1523183333568370,2,-7,-19,1,6,15,14,-34
1523183333568370,3,-22,-3,-34,-6,-6,-6,-5
1523183333577378,-9,-4,0,20,3,4,29,-9
1523183333577378,-5,-9,-4,10,5,0,-21,-5
1523183333592418,1,5,-19,-21,-9,-13,-13,-20
1523183333592418,-4,-11,-3,-10,-14,-4,10,-18
1523183333593421,-11,-3,-22,12,4,-1,5,6
1523183333593421,-1,2,3,-15,1,2,1,9
1523183333614476,12,14,10,11,3,6,15,-9
1523183333614476,-6,3,-7,-21,-11,2,-2,-5
1523183333616483,7,-1,36,36,10,0,-8,-19
1523183333616483,-7,1,-4,35,-2,2,4,4
1523183333628514,-11,29,26,16,6,-1,-1,4
1523183333628514,-2,-46,-31,7,-6,-9,-20,10
1523183333637539,8,12,-4,20,-5,-1,45,-69
1523183333637539,6,8,5,-12,9,13,-52,92
1523183333652084,-1,-8,-26,-22,-3,-3,-3,-1
1523183333652084,5,30,37,34,5,-5,3,-18
1523183333654154,-6,-10,-4,26,-2,-5,-2,4
1523183333654154,6,-12,-19,-65,-21,-8,21,-6
1523183333681704,8,4,3,20,-3,-5,-1,24
1523183333681704,-3,22,-1,52,7,-3,-13,10
1523183333683710,8,-33,-2,-24,-4,8,19,9
1523183333683710,-14,18,18,14,1,-7,-8,20
1523183333687721,2,7,30,0,0,1,-13,18
1523183333687721,14,19,-5,-31,-1,0,16,-19
1523183333696742,-9,-30,-12,8,14,13,10,-22
1523183333696742,-8,-4,-2,-7,-13,-5,-14,-31
1523183333711824,-3,-7,-28,-48,-8,-3,56,-10
1523183333711824,5,34,29,8,4,-8,-85,-1
1523183333713789,2,23,9,8,-5,0,7,36
1523183333713789,1,-55,-15,1,0,-5,3,-18
1523183333734845,-8,-6,-9,-7,1,-2,11,-47
1523183333734845,8,-1,-22,-43,-5,2,52,-11
1523183333735848,3,77,12,-11,-1,23,-25,55
1523183333735848,-1,-55,-3,1,2,-3,11,-53
1523183333756944,-5,-6,-6,24,-8,-7,-20,97
1523183333756944,-11,-24,1,-28,-8,-7,7,-24
1523183333758486,5,-21,11,1,3,-13,-8,-10
1523183333758486,6,56,26,65,14,7,9,3
1523183333772531,4,-17,-12,-47,-14,1,9,-16
1523183333772531,-7,-8,-28,2,-5,-6,-56,14
1523183333773526,-7,-8,-30,-7,-9,-6,11,-43
1523183333773526,0,16,3,11,7,1,-21,57
1523183333794820,0,23,25,37,16,1,-13,-12
1523183333794820,1,-32,6,2,1,6,46,11
1523183333795796,-8,-4,-3,-28,-14,-11,-22,-55
1523183333795796,3,20,-2,-11,6,1,-3,19
1523183333816671,-4,-31,11,1,2,1,0,9
1523183333816671,4,23,-8,9,-12,-20,-19,25
1523183333818645,7,3,-17,22,18,17,9,17
1523183333818645,6,-20,-3,14,16,22,26,5
1523183333831681,-6,16,6,-2,-6,-3,15,-20
1523183333831681,-7,-19,7,11,4,0,-47,-3
1523183333833687,-5,-7,14,35,-9,-29,-8,12
1523183333833687,-4,10,-21,-84,-31,-10,-2,-8
1523183333854749,4,-2,2,22,7,4,-1,-20
1523183333854749,-1,-17,-3,8,5,4,25,-19
1523183333856253,2,17,19,-3,-3,0,-2,22
1523183333856253,-6,-14,-6,-18,-13,-5,-3,-10
1523183333876849,-3,1,2,21,13,3,-18,-22
1523183333876849,6,27,2,-31,-1,2,24,-1
1523183333878817,5,-11,-11,0,-6,0,-12,17
1523183333878817,-5,-35,5,23,1,7,62,-43
1523183333890850,-6,-11,-29,-32,-4,0,-61,41
1523183333890850,-2,12,19,14,-5,-3,35,-5
1523183333897907,-12,-47,-4,7,7,-5,-46,-28
1523183333897907,2,30,-5,-35,-2,-3,-17,-10
1523183333914912,4,3,-6,-5,-11,-9,15,19
1523183333914912,-11,-23,-1,29,10,6,13,-2
1523183333915915,-4,17,10,-24,-3,6,4,-13
1523183333915915,-2,15,7,19,-1,-11,7,15
1523183333935968,4,-16,5,14,3,9,9,-10
1523183333935968,-7,14,-9,-24,1,0,5,7
1523183333944997,-10,9,-4,-10,-12,-15,-38,53
1523183333944997,-3,2,3,11,-4,-9,4,9
1523183333959036,6,-12,-5,4,3,1,3,-25
1523183333959036,3,3,-1,-19,-11,-2,-14,-2
1523183333961042,1,-16,8,10,11,4,30,-8
1523183333961042,1,10,-10,0,8,22,10,25
1523183333974076,-3,-9,1,23,0,-11,-12,-18
1523183333974076,-4,35,-37,-34,-9,7,17,-8
1523183333976082,-5,-64,8,0,-9,-1,-1,-15
1523183333976082,2,26,-20,-22,-5,-13,-19,13
1523183333997138,5,-1,10,-3,-5,-7,4,5
1523183333997138,-13,33,-33,8,0,-4,-28,-16
1523183333998180,12,21,5,2,9,0,57,58
1523183333998180,3,-22,30,6,-12,-1,-31,-45
1523183334011176,-14,-26,-32,-18,-7,-4,-24,43
1523183334011176,37,34,20,48,15,9,4,58
1523183334018196,1,-19,-35,-73,-18,-14,-28,-27
1523183334018196,-13,8,11,35,14,4,12,-15
1523183334034471,8,15,4,-1,6,8,3,8
1523183334034471,1,-39,14,10,-4,-11,1,-32
1523183334036242,-7,27,0,11,-10,-16,7,25
1523183334036242,17,-2,7,11,15,30,-2,41
1523183334057304,-9,10,-10,-17,0,7,14,-39
1523183334057304,-12,-17,8,-1,-2,-3,-12,-46
1523183334058306,12,32,13,5,-4,-1,-9,0
1523183334058306,-14,-25,-36,-3,0,-19,-7,-29
1523183334071345,8,3,15,-15,-7,0,36,8
1523183334071345,-4,-27,7,1,8,3,-19,2
1523183334078365,-12,6,-16,-31,-10,-3,-32,12
1523183334078365,-13,11,-5,13,0,-9,-4,-10
1523183334094409,1,-35,-2,8,-4,1,5,-18
1523183334094409,-13,-11,-6,-23,-4,-4,-9,-38
1523183334096451,4,-19,-4,42,12,12,12,-25
1523183334096451,8,22,3,-37,-9,-10,1,16
1523183334116467,-15,31,8,6,-13,-7,-8,-6
1523183334116467,-10,-51,9,-4,13,11,13,5
1523183334118472,-6,2,10,23,14,12,12,-27
1523183334118472,5,2,-1,-3,-11,-9,-15,-8
1523183334131742,-2,4,-2,6,-10,-16,-14,-2
1523183334131742,4,16,2,18,2,3,33,8
1523183334138532,3,4,-17,-9,-4,14,-10,19
1523183334138532,7,-9,36,0,-1,5,12,-29
1523183334154573,-10,-11,-3,-4,-5,-7,-51,36
1523183334154573,0,9,-8,11,1,-1,52,-41
1523183334156580,-7,-2,-10,-3,-2,-17,-31,-5
1523183334156580,3,28,-33,-9,-31,-19,-6,11
1523183334176475,5,5,6,3,20,27,39,-5
1523183334176475,4,24,7,-21,-4,3,-13,3
1523183334178478,-7,-49,6,23,2,-4,11,15
1523183334178478,20,23,3,-19,-1,-4,2,-2
1523183334191551,3,-78,-16,15,5,-5,-29,-3
1523183334191551,-15,18,-15,-12,-8,-7,19,18
1523183334198530,2,9,14,-21,0,2,-35,-5
1523183334198530,-13,-24,1,22,10,2,2,-8
1523183334214574,10,30,10,7,-8,-2,6,7
1523183334214574,-1,-4,-17,-29,-7,1,-5,-5
1523183334215579,-2,6,1,9,-3,-7,9,10
1523183334215579,18,3,-15,46,15,17,21,0
1523183334237634,-6,5,-12,-62,-15,-9,-11,20
1523183334237634,3,-32,0,45,3,-3,-24,48
1523183334238641,-12,22,-15,-18,-2,0,37,-59
1523183334238641,10,11,-11,1,-13,-11,-19,19
1523183334250909,6,-12,5,16,18,20,29,23
1523183334250909,-5,-18,3,6,-1,-3,-28,-7
1523183334259702,-1,-7,-2,-7,-3,-10,36,5
1523183334259702,-6,13,-7,20,-2,0,3,-15
1523183334274743,4,53,1,-26,-3,-4,-10,-40
1523183334274743,-1,-55,-8,-13,2,17,18,-20
1523183334275744,6,14,46,26,1,-5,-7,49
1523183334275744,-11,18,26,11,-3,-3,-10,-3
1523183334296840,-8,8,-23,-45,-15,-20,-4,-27
1523183334296840,7,8,-20,-62,-9,-9,-3,34
1523183334298846,0,5,-4,-7,5,1,-46,30
1523183334298846,-7,-17,18,22,15,2,0,4
1523183334310838,5,6,20,48,0,3,-1,4
1523183334310838,-5,-9,-3,-56,-10,-7,21,-35
1523183334319862,0,-16,-14,5,1,0,-17,19
1523183334319862,-6,3,16,14,3,1,-21,-2
1523183334334902,-9,-26,-28,-57,-4,5,-11,-11
1523183334334902,-1,17,-25,-2,-5,-1,6,-6
1523183334335904,-5,4,5,23,-1,-3,-27,-10
1523183334335904,5,-19,-23,-11,-1,-1,-3,15
1523183334364519,1,19,12,7,0,-6,18,-25
1523183334364519,0,-23,10,16,2,-12,-44,32
1523183334365519,-8,-47,-26,-4,4,20,36,-28
1523183334365519,-16,-9,-16,0,2,-1,17,-4
1523183334370769,2,14,28,72,13,3,-32,-3
1523183334370769,-7,19,8,-11,-8,-4,-13,-5
1523183334379556,-2,29,23,1,2,1,7,-48
1523183334379556,-3,-34,-4,-18,-7,-2,1,-1
1523183334394606,5,24,13,27,2,-4,17,20
1523183334394606,14,2,23,38,7,13,15,-50
1523183334395599,-9,-10,-16,-39,-9,-5,-31,84
1523183334395599,-3,9,-17,5,-10,-10,-4,-9
1523183334416656,-15,7,-8,-48,-10,-13,6,-29
1523183334416656,6,-7,25,14,15,17,-22,4
1523183334418661,10,2,-2,8,7,10,44,4
1523183334418661,-16,-28,22,-18,-7,-11,-15,18
1523183334430732,11,38,32,110,10,-10,-5,24
1523183334430732,-7,-25,-57,-70,-20,5,25,-16
1523183334439718,-6,6,-3,54,4,3,-17,-37
1523183334439718,11,5,-5,-23,-2,-5,-11,13
1523183334454494,-4,-7,0,49,2,4,13,-1
1523183334454494,3,27,3,-13,-4,-6,20,-13
1523183334456498,-1,3,-18,-58,-2,0,0,-48
1523183334456498,-10,-19,21,-20,-3,-5,-27,64
1523183334476611,13,-16,-16,-28,-2,2,-8,20
1523183334476611,23,18,15,45,-5,-13,6,53
1523183334478616,5,-15,-9,-25,-1,-2,-20,-33
1523183334478616,-3,23,-3,6,2,2,23,-30
1523183334490648,-8,-3,-8,-31,-13,-2,-1,-19
1523183334490648,-10,5,12,0,13,17,-21,39
1523183334499672,6,2,8,22,-11,-9,17,-37
1523183334499672,4,9,2,12,13,10,6,43
1523183334514711,-11,-37,-44,-24,-22,-7,-1,-23
1523183334514711,-2,5,16,76,17,-3,-10,-2
1523183334516716,-11,1,2,19,10,10,11,12
1523183334516716,11,16,1,-7,-5,0,12,-26
1523183334537006,-6,-1,26,44,12,-3,-14,3
1523183334537006,-7,-12,-23,-38,-23,-10,24,-3
1523183334538776,5,-3,-7,11,-3,10,39,-32
1523183334538776,7,7,11,49,7,-7,-77,-3
1523183334550812,-8,-6,1,4,17,1,-5,8
1523183334550812,-1,-14,-9,-29,-23,-5,9,-5
1523183334559415,3,-3,-20,-31,2,13,59,9
1523183334559415,1,-15,-20,-35,-10,-5,-25,3
1523183334574456,5,16,35,101,12,4,-7,-13
1523183334574456,-1,6,15,50,4,-6,-21,7
1523183334576462,-5,22,-10,-53,-5,-4,2,-9
1523183334576462,7,-51,-16,-6,-5,2,13,-6
1523183334596749,3,4,0,-2,7,4,10,2
1523183334596749,3,18,5,-8,-1,-4,-16,8
1523183334598518,-8,-14,6,10,-5,-8,-8,3
1523183334598518,-9,-8,-13,-13,-2,0,15,-26
1523183334610553,1,2,-13,-59,-7,0,3,8
1523183334610553,-2,7,3,30,10,-1,-3,-26
1523183334619575,8,0,2,-24,-9,-8,-24,34
1523183334619575,-3,14,35,99,10,5,14,-28
1523183334634850,-4,-20,-50,-53,-25,-3,5,-21
1523183334634850,-2,-6,-9,24,-9,-9,-19,63
1523183334636633,2,12,7,29,5,-9,-39,9
1523183334636633,2,-12,15,33,10,3,7,-22
1523183334657180,19,-12,-4,-3,-4,-6,-4,23
1523183334657180,-5,13,-7,-48,-4,9,10,-27
1523183334658684,24,-36,8,48,16,4,0,13
1523183334658684,-2,26,-2,14,-6,-4,0,-5
1523183334679981,-3,37,-11,-67,3,5,1,-17
1523183334679981,-8,-65,-4,59,2,-11,-28,31
1523183334680747,-13,-9,12,-55,-17,-2,12,-12
1523183334680747,-5,11,-23,-42,-2,12,17,-4
1523183334694785,13,25,23,52,8,4,-17,50
1523183334694785,-6,-28,3,-14,5,0,-2,-13
1523183334695788,-11,-15,-40,-29,-15,-14,-13,-19
1523183334695788,-10,-19,8,18,-4,-4,31,-38
1523183334716846,-14,-5,-10,-47,-6,-5,-48,46
1523183334716846,13,31,12,11,-3,0,16,13
1523183334718849,4,22,12,2,4,-4,-11,-15
1523183334718849,0,5,1,-19,5,3,18,-20
1523183334739141,-2,0,-5,23,1,5,14,-24
1523183334739141,-5,-14,5,35,5,-2,-2,10
1523183334740907,12,0,8,45,4,6,32,-63
1523183334740907,-3,16,16,41,2,-8,-61,76
1523183334754461,-4,49,30,73,9,6,10,-17
1523183334754461,-4,-30,-29,-35,3,8,-7,-52
1523183334756470,4,-24,-14,-9,-8,-3,26,12
1523183334756470,-6,-5,-3,10,-1,3,8,10
1523183334776656,-3,-30,3,4,0,-9,-21,14
1523183334776656,2,49,9,1,-6,-12,13,-4
1523183334778622,-1,0,12,37,7,5,1,34
1523183334778622,-10,-6,-21,-80,-15,5,17,-38
1523183334799679,4,3,-6,-16,-2,0,-1,-8
1523183334799679,3,-1,14,1,4,7,7,-21
1523183334800680,-7,12,-5,-5,0,-6,-4,-20
1523183334800680,0,-7,-11,-15,-7,-13,-9,100
1523183334813753,-2,-16,2,21,-8,-3,11,-25
1523183334813753,-16,5,-4,2,0,5,19,-13
1523183334820733,-1,10,17,17,3,-15,-27,-1
1523183334820733,-1,-6,-20,-10,-1,-4,-10,-18
1523183334837014,-11,-49,-9,-22,3,9,21,-13
1523183334837014,11,6,-26,-72,-5,4,37,31
1523183334838783,-18,-9,-3,1,-8,-3,-28,78
1523183334838783,13,44,15,23,5,-2,-17,-27
1523183334859480,7,-25,-6,-23,-2,-5,20,10
1523183334859480,-1,13,9,23,5,0,-12,-5
1523183334861447,-3,-3,-2,14,1,1,-2,-34
1523183334861447,-6,-32,-16,-11,-6,-6,7,-3
1523183334873478,-4,-8,-8,-14,-2,-3,2,-16
1523183334873478,-9,22,9,-5,-2,-1,30,-44
1523183334880732,8,15,18,-2,1,2,-59,40
1523183334880732,-3,-12,-21,-54,-11,-5,9,-9
1523183334896539,-3,-13,0,20,-9,-3,-12,-28
1523183334896539,3,3,9,13,16,9,37,-5
1523183334898546,-4,10,7,7,-1,5,-8,-5
1523183334898546,-12,-23,-4,1,0,-1,3,-16
1523183334919836,7,-8,-2,-4,-1,1,24,-11
1523183334919836,0,21,21,20,-15,-22,-50,49
1523183334920602,1,-19,-29,-42,-20,-14,13,3
1523183334920602,6,1,18,47,23,28,6,-3
1523183334933874,-8,30,-27,-9,-5,-5,25,-17
1523183334933874,-19,-22,2,40,3,3,-32,15
1523183334940656,-6,2,-3,6,0,0,7,2
1523183334940656,3,-13,8,-11,-6,-3,24,-45
1523183334957244,-7,-9,8,20,10,0,18,-6
1523183334957244,-9,-8,-18,-32,-11,-16,-53,-12
1523183334958750,2,39,15,24,7,10,20,-16
1523183334958750,-2,-11,-5,-15,3,9,33,12
1523183334980046,9,-25,5,23,-2,5,-20,2
1523183334980046,-1,-9,-2,-24,-9,-5,-6,-17
1523183334980815,-12,-20,-25,-36,-16,-19,0,39
1523183334980815,-5,12,24,76,17,9,8,-9
1523183334993850,1,7,-14,-71,-18,-5,-14,12
1523183334993850,9,6,14,33,10,5,-5,-13
1523183335000911,4,10,12,9,2,-2,-9,-16
1523183335000911,3,-1,-10,9,-13,-9,18,23
1523183335016911,-24,0,-6,-22,-2,-1,-22,16
1523183335016911,36,10,9,36,4,0,-5,-9
1523183335018916,-5,11,-12,-24,-2,3,43,-23
1523183335018916,10,15,3,14,-3,-11,-54,-2
1523183335039217,-41,-22,-19,-8,-14,-4,8,66
1523183335039217,-7,-17,-3,29,8,8,-13,-21
1523183335040975,7,-2,27,49,7,0,0,-25
1523183335040975,-2,10,-2,-52,-8,-7,20,-1
1523183335054016,22,7,14,-19,13,2,-7,-48
1523183335054016,-18,-29,-39,-43,-27,-15,-5,19
1523183335060755,4,16,25,49,14,9,0,13
1523183335060755,-6,-10,-14,-20,5,7,-1,-21
1523183335076795,13,-8,-5,-51,-11,1,33,-14
1523183335076795,-15,-30,1,17,-11,-8,-8,57
1523183335078798,-2,6,3,24,15,-2,-55,-46
1523183335078798,8,22,9,14,9,-4,-13,34
1523183335100006,-9,-8,-19,-27,-10,1,-10,-6
1523183335100006,3,-18,-4,-7,-7,-5,16,-15
1523183335100857,-15,2,-7,-28,2,16,21,-14
1523183335100857,-3,3,5,28,6,0,9,45
1523183335113894,15,24,3,-39,-14,-11,-41,14
1523183335113894,7,26,39,16,30,16,45,-31
1523183335120912,6,46,-12,-13,-14,-10,-44,-15
1523183335120912,-17,-89,-62,-110,-24,-8,-1,-30
1523183335137018,7,14,28,82,9,-1,0,23
1523183335137018,2,15,-9,5,3,7,19,-46
1523183335138959,13,9,9,11,1,-3,3,32
1523183335138959,9,36,39,15,0,5,-31,-5
1523183335159789,-7,-10,27,31,-1,-10,1,7
1523183335159789,4,1,1,-30,-4,-1,-21,-16
1523183335160789,-12,-8,-3,60,12,16,58,-15
1523183335160789,11,-6,-61,-80,-25,-13,-45,34
1523183335172820,24,-25,20,81,15,9,-15,-3
1523183335172820,-12,33,-19,-38,-11,-10,0,0
1523183335181874,27,-55,9,28,-1,-12,26,-2
1523183335181874,-14,20,9,63,1,-17,-15,-1
1523183335196885,-17,14,-14,-79,2,19,32,-41
1523183335196885,50,17,-21,-52,3,5,-17,56
1523183335198892,-55,-24,5,-86,-19,-12,-31,-8
1523183335198892,14,-14,-17,34,1,14,38,17
1523183335220046,-11,-10,-20,19,-4,-13,-34,-21
1523183335220046,16,10,6,68,-3,-2,4,34
1523183335220953,-12,-16,-27,-19,-10,-2,18,8
1523183335220953,5,14,59,53,14,10,-4,-32
1523183335233018,3,29,12,-3,-3,-3,9,-9
1523183335233018,2,-56,-14,3,-1,-5,-15,-13
1523183335242003,-8,-22,14,6,-8,-10,-3,4
1523183335242003,-30,13,10,41,18,4,5,-18
1523183335257049,16,-21,-45,-59,-12,-4,10,11
1523183335257049,-26,3,16,30,-2,15,52,-57
1523183335258551,22,0,22,54,7,8,-22,47
1523183335258551,-5,-31,13,9,4,-4,26,-14
1523183335279292,18,-2,-20,-29,-12,-20,-45,15
1523183335279292,-34,53,19,-7,-5,0,16,-44
1523183335281063,6,5,-70,-22,-13,0,13,21
1523183335281063,3,32,56,69,7,9,17,-37
1523183335293096,23,35,4,13,6,-4,-12,-20
1523183335293096,-17,-100,-16,13,-7,-15,-25,12
1523183335302118,14,38,3,9,4,-10,-9,-44
1523183335302118,14,22,-19,-19,-13,13,21,21
1523183335317384,-8,54,29,27,22,4,10,3
1523183335317384,-16,8,-7,-2,5,9,-11,-4
1523183335318340,-6,4,4,-9,6,-1,-57,4
1523183335318340,18,-21,-29,-64,-18,-30,-18,34
1523183335338215,5,-52,17,69,8,17,9,7
1523183335338215,-36,27,3,6,7,4,-22,-4
1523183335347246,17,2,13,-34,-22,-19,12,23
1523183335347246,-11,-13,-16,-6,7,8,-4,-34
1523183335353497,-16,-40,-5,46,-1,3,-21,41
1523183335353497,4,-60,13,-9,8,1,-14,28
1523183335362334,46,40,41,25,8,4,19,-14
1523183335362334,-22,21,-5,-23,-13,-16,-11,-26
1523183335377336,-7,-28,-10,1,10,0,16,-66
1523183335377336,12,21,0,8,-16,-3,-16,51
1523183335378338,-24,30,7,-32,7,5,-1,-3
1523183335378338,17,1,-45,-37,-14,-6,3,8
1523183335399433,-25,7,8,2,3,5,23,-9
1523183335399433,31,37,0,10,6,8,8,18
1523183335401399,4,-21,2,27,14,6,-10,-8
1523183335401399,5,13,10,-22,-19,-4,4,1
1523183335413431,-18,5,-29,-33,-13,-20,-14,7
1523183335413431,7,30,10,16,4,-13,20,-12
