timestamp,emg1,emg2,emg3,emg4,emg5,emg6,emg7,emg8
1523055052916901,5,33,57,24,13,-10,2,3
1523055052916901,3,16,38,4,-1,-11,4,3
1523055052918861,-3,7,18,-9,-4,3,-2,-3
1523055052918861,8,0,-6,6,4,0,0,3
1523055052920864,4,-7,-14,6,0,6,-3,-1
1523055052920864,-7,28,15,-5,-7,-6,-3,-4
1523055052921867,-2,-38,-39,-1,-2,-4,-6,-2
1523055052921867,-7,-1,-7,-10,4,-1,-12,-1
1523055052929894,13,31,30,10,14,7,15,6
1523055052929894,-2,-19,6,15,0,28,-18,-3
1523055052937407,1,10,-10,-9,-4,-8,24,-3
1523055052937407,-10,-22,-56,-16,-6,-1,-15,-2
1523055052944933,-1,-16,-5,-2,-4,-2,-8,2
1523055052944933,13,11,-11,10,6,10,6,5
1523055052959978,-1,35,2,6,2,7,-14,-2
1523055052959978,13,52,84,14,-1,-6,16,4
1523055052966017,-18,-55,-93,-9,1,9,2,-3
1523055052966017,-6,-13,-1,-9,3,5,-5,-3
1523055052981023,2,5,26,18,8,0,-1,1
1523055052981023,2,8,-3,-10,-10,-10,5,2
1523055052989599,4,32,8,5,6,8,5,-1
1523055052989599,-4,-16,-33,0,1,1,-4,-4
1523055053004638,-13,-2,14,3,2,0,-5,-4
1523055053004638,10,-2,7,-4,-4,12,-6,-4
1523055053044192,5,-10,-1,-14,-8,3,-7,0
1523055053044192,9,14,10,17,6,5,-4,0
1523055053045192,-20,6,-15,-8,2,6,-3,-4
1523055053045192,-2,-6,-13,-13,-12,-4,-4,-1
1523055053045696,23,21,40,9,11,-8,4,2
1523055053045696,-3,-28,-24,14,14,10,-3,-4
1523055053048201,-2,10,22,-1,-9,-6,0,-2
1523055053048201,1,4,1,-7,6,3,2,0
1523055053057227,-27,-8,-9,13,-6,4,-6,-5
1523055053057227,18,24,5,-19,-1,-8,-5,4
1523055053063241,10,13,10,8,-4,-9,3,1
1523055053063241,-25,-28,-15,0,-7,-3,8,-4
1523055053072264,1,-8,-9,-14,-7,-2,-5,-3
1523055053072264,-5,15,6,14,-3,-7,4,1
1523055053085855,11,-19,-20,-9,2,6,-7,0
1523055053085855,-8,14,12,-24,-10,4,-5,-3
1523055053094825,1,-14,-37,30,15,2,1,1
1523055053094825,-6,-10,-1,-12,-7,-5,-2,-3
1523055053124404,10,4,5,6,1,-2,9,1
1523055053124404,1,-20,-5,0,9,6,2,0
1523055053126409,6,24,32,1,-3,-4,1,2
1523055053126409,-17,-4,-12,-3,0,1,-6,-5
1523055053131423,1,-7,-11,-4,-3,-1,0,0
1523055053131423,8,9,12,10,2,-9,-16,0
1523055053138441,13,24,52,-4,-15,-2,7,1
1523055053138441,-29,-25,-43,8,22,3,-3,-4
1523055053154483,-1,-18,-4,-18,-9,0,-10,-4
1523055053154483,-3,-12,-6,4,-2,1,-8,-3
1523055053155987,-17,13,32,0,-2,-5,-11,-4
1523055053155987,16,-8,-4,-12,-20,-14,25,2
1523055053177043,2,5,12,17,15,17,-3,1
1523055053177043,3,13,26,7,8,2,1,1
1523055053178549,3,-14,-31,-5,1,-6,-4,-4
1523055053178549,13,2,4,-2,-8,-6,10,3
1523055053191581,-3,-6,-8,-14,-3,-6,-3,0
1523055053191581,-1,15,15,24,-8,-7,10,2
1523055053198100,-20,-18,-27,-7,13,9,-5,-4
1523055053198100,4,8,20,-6,-4,1,-12,-2
1523055053214644,18,-5,2,-5,-4,5,1,1
1523055053214644,5,2,-17,-5,-7,-13,-9,-1
1523055053216148,-14,-8,-7,-3,-3,1,9,-19
1523055053216148,-19,-15,-12,-5,-4,-2,-13,0
1523055053237203,23,-26,-15,-2,-6,-4,0,0
1523055053237203,11,0,4,1,2,-1,-8,0
1523055053238747,1,14,-16,4,4,4,5,4
1523055053238747,19,3,24,0,-2,7,2,5
1523055053250740,-38,-9,-5,5,6,16,-5,2
1523055053250740,-7,-6,-17,-2,3,0,18,1
1523055053265780,-15,-14,-4,-11,-8,-13,-21,-4
1523055053265780,6,6,-2,0,-2,-5,-36,-15
1523055053274803,-9,19,14,5,1,-17,-36,7
1523055053274803,27,5,3,2,12,31,16,49
1523055053276307,-27,1,-4,-4,-5,-22,17,-53
1523055053276307,-79,-22,0,-4,-4,-9,-22,17
1523055053296861,18,0,-16,-7,-4,-7,11,-25
1523055053296861,-22,-8,3,-12,-4,-1,-27,-15
1523055053298926,52,-6,-6,1,1,25,-9,41
1523055053298926,34,7,-1,2,2,-11,4,-24
1523055053310900,-12,7,7,7,2,2,-1,-7
1523055053310900,0,-7,-12,-1,-5,-10,2,-7
1523055053319923,-3,-4,-3,-7,-7,-1,-19,5
1523055053319923,2,-6,0,3,6,18,48,12
1523055053334463,-2,8,5,-3,-6,2,15,13
1523055053334463,9,2,-7,0,-1,1,-6,-8
1523055053336469,-7,-7,7,1,1,-7,-3,-11
1523055053336469,3,-1,-14,-4,-3,1,-14,25
1523055053357080,0,0,-1,1,-1,-8,12,-15
1523055053357080,-2,14,15,-1,-6,1,-4,-3
1523055053359028,-4,13,47,5,-2,0,-11,7
1523055053359028,7,-62,-95,-12,1,-1,6,-5
1523055053370559,0,42,85,-3,-20,-12,1,9
1523055053370559,-25,-86,-89,-26,-3,7,-4,-20
1523055053379583,16,37,17,14,0,4,6,4
1523055053379583,14,33,31,3,-5,2,7,-1
1523055053394623,-14,-9,5,-1,0,-6,-4,-8
1523055053394623,7,9,-7,2,-5,-11,-13,-7
1523055053396128,9,-17,-22,-9,-8,-13,34,6
1523055053396128,-3,26,20,-5,-6,6,15,-5
1523055053417240,-4,-18,-22,7,0,0,0,5
1523055053417240,2,20,30,-1,13,-6,16,-4
1523055053418687,-4,-8,-23,-1,3,3,-36,0
1523055053418687,28,42,67,-2,-5,9,4,-3
1523055053430717,-35,-40,-61,-9,-9,-11,25,0
1523055053430717,1,-26,-49,15,9,0,-4,1
1523055053439743,-7,-20,1,-24,-26,-37,-12,-5
1523055053439743,-8,-24,-48,6,0,-15,-5,-8
1523055053454783,11,48,-8,-13,-2,1,-14,1
1523055053454783,-3,9,21,1,-12,-2,3,-2
1523055053456287,-34,-13,-39,-6,8,2,4,-3
1523055053456287,1,-5,29,9,7,-1,-3,-2
1523055053477342,3,-6,-23,-2,-1,-2,-3,0
1523055053477342,1,4,18,7,-9,-13,-2,-2
1523055053478883,11,13,-15,-8,14,6,13,2
1523055053478883,-3,16,26,2,-2,-12,-15,-4
1523055053490879,2,-7,8,9,11,0,-3,-4
1523055053490879,10,-2,-3,-10,-7,1,-12,-1
1523055053499902,-13,-4,25,3,-2,2,5,6
1523055053499902,-7,-24,-52,-7,-4,13,-8,-10
1523055053514441,7,5,39,21,7,-3,-11,-3
1523055053514441,-1,-2,-21,-20,-2,4,8,2
1523055053516492,41,15,-9,9,5,15,6,11
1523055053516492,-31,3,18,-6,0,-3,-9,-9
1523055053535998,-5,1,-19,-5,-7,-4,-1,-3
1523055053535998,5,15,30,8,4,0,2,0
1523055053544521,4,-1,-21,6,10,11,0,0
1523055053544521,4,14,77,6,0,-11,0,0
1523055053550591,8,-8,0,2,9,20,-3,0
1523055053550591,-15,-7,-5,5,2,-1,-2,-5
1523055053559562,-2,4,-6,-10,-14,-26,18,8
1523055053559562,13,19,26,8,13,43,-2,2
1523055053575104,-13,-26,-10,-5,-2,2,-5,-4
1523055053575104,4,21,16,8,2,-1,-3,0
1523055053576107,-4,-3,-3,-5,3,15,0,-3
1523055053576107,7,-4,-21,-14,-17,-18,20,0
1523055053597160,3,-10,-25,1,8,-4,19,-1
1523055053597160,-27,-10,2,4,2,11,0,-6
1523055053598665,9,-13,13,2,-2,-8,-6,-3
1523055053598665,-1,4,-9,1,3,-1,-8,-1
1523055053610696,-20,3,8,-4,-6,-1,-10,-4
1523055053610696,11,19,2,-3,-5,-12,7,6
1523055053619722,-11,-9,5,-6,-10,-16,-12,-7
1523055053619722,0,6,-28,10,18,0,-2,-2
1523055053634761,6,9,41,7,-3,-4,-8,-1
1523055053634761,6,-16,-40,-1,4,9,-3,0
1523055053636265,-3,8,3,-8,-6,5,-1,0
1523055053636265,5,10,46,10,1,-4,-3,5
1523055053657322,-13,-26,-86,-18,-9,-3,-3,-3
1523055053657322,20,18,29,7,-8,-19,1,0
1523055053658827,-12,-10,-5,-2,21,26,-2,-2
1523055053658827,3,-15,-9,-7,-16,-12,-1,-3
1523055053679435,19,18,26,3,5,11,1,3
1523055053679435,-24,1,4,-8,-4,-5,0,0
1523055053681385,9,-4,0,4,-7,-5,-3,0
1523055053681385,-7,-12,-31,-5,-3,2,-6,-3
1523055053694419,15,16,12,5,7,9,-3,3
1523055053694419,-6,9,22,12,4,7,1,-1
1523055053696480,-16,3,5,9,4,3,0,-6
1523055053696480,-2,5,-27,-9,-5,-2,-2,0
1523055053716979,10,-10,-16,-7,-5,-5,2,4
1523055053716979,-11,-6,-7,-5,-1,-2,1,-2
1523055053719003,-6,-8,20,4,-1,-1,-2,-15
1523055053719003,-2,-5,16,-1,-5,-5,0,-4
1523055053739540,8,1,-4,-4,0,-2,1,8
1523055053739540,11,3,0,1,2,2,-2,4
1523055053741045,-2,13,3,-1,-3,1,-14,-2
1523055053741045,-35,-11,-6,2,1,-2,-9,-27
1523055053762102,-12,6,0,-4,-3,7,-13,-10
1523055053762102,40,8,9,8,1,-3,35,53
1523055053763605,-47,-39,-6,-18,-9,3,-1,-6
1523055053763605,4,0,-7,-6,-4,-1,-11,20
1523055053777140,-21,-3,11,2,0,-7,-3,-10
1523055053777140,12,6,3,2,4,4,4,1
1523055053778645,24,1,-16,-1,-3,-8,24,32
1523055053778645,5,-7,3,1,1,18,-18,-9
1523055053799700,-16,-12,3,-9,-9,-34,-5,-2
1523055053799700,9,0,-3,-2,-1,4,-31,-15
1523055053801204,-10,0,-5,2,0,-4,-43,-7
1523055053801204,5,-5,-1,-6,-4,-24,36,16
1523055053813737,13,8,2,-1,-10,-13,12,-13
1523055053813737,7,-1,2,13,32,48,-17,-21
1523055053820756,24,8,-1,4,-3,-35,19,-10
1523055053820756,0,2,-4,-6,-1,15,-4,35
1523055053837300,-8,-7,-4,-5,-8,-10,10,-72
1523055053837300,-7,21,11,-12,-18,-24,-5,-12
1523055053838804,5,-18,-4,13,18,39,18,14
1523055053838804,-3,18,-3,-1,0,-4,-17,-20
1523055053860362,-19,-28,-10,3,5,5,17,12
1523055053860362,19,1,-11,-20,-14,-1,22,22
1523055053861867,17,51,25,4,-2,6,-17,-12
1523055053861867,-40,-32,-32,-10,-10,-20,-6,-18
1523055053873901,3,17,26,11,12,13,-7,12
1523055053873901,-19,-28,-31,-6,-2,-9,-3,-9
1523055053880916,9,14,34,-4,-13,-14,1,16
1523055053880916,18,1,-34,8,7,10,24,7
1523055053904483,-7,-16,-32,-8,-2,7,-17,10
1523055053904483,-4,-11,59,9,8,-4,5,-5
1523055053906488,1,-21,-61,0,3,1,8,-4
1523055053906488,-4,16,37,-5,-15,-21,-9,-11
1523055053919613,20,14,20,14,16,20,4,13
1523055053919613,-8,0,-5,-6,-8,-9,-1,-5
1523055053921532,-8,15,40,7,1,3,-1,-5
1523055053921532,1,-22,5,-10,-4,-6,-2,0
1523055053934064,4,5,-27,11,9,4,6,15
1523055053934064,-16,-4,-18,7,10,3,-1,-6
1523055053941082,21,2,8,-1,2,-4,1,2
1523055053941082,-24,-3,10,-3,-4,1,-3,-7
1523055053957204,18,1,4,-16,-13,1,-3,6
1523055053957204,-33,-50,-91,-20,-15,-18,-11,-14
1523055053958626,2,-5,0,12,-7,-5,-3,-5
1523055053958626,12,-3,-1,-15,4,-4,9,5
1523055053979725,-4,2,3,-19,-3,-18,2,5
1523055053979725,-3,-11,1,13,-2,1,-1,-1
1523055053981184,-7,5,-34,-3,-4,3,0,3
1523055053981184,4,9,25,-1,-3,0,2,-2
1523055053994718,-3,-6,-38,-3,-6,-6,-4,2
1523055053994718,13,50,48,12,7,3,2,2
1523055054000734,-6,-23,-12,-5,-7,-3,1,-3
1523055054000734,3,2,5,4,4,9,-21,-7
1523055054015775,15,14,20,5,2,12,8,4
1523055054015775,10,-7,-7,-11,-7,-18,12,0
1523055054024800,-37,-6,15,0,13,16,-15,-11
1523055054024800,6,7,-8,5,1,1,-24,1
1523055054040548,-2,-25,-54,-5,-7,-3,-4,4
1523055054040548,3,-5,3,-8,-15,-14,-7,-1
1523055054041844,10,15,24,-2,9,6,24,5
1523055054041844,10,-5,-31,-6,-2,0,-11,7
1523055054062572,-8,11,60,25,16,13,-7,-5
1523055054062572,-1,5,14,-2,5,6,-6,-6
1523055054063903,-5,-30,-62,-19,-17,-18,-9,-5
1523055054063903,6,23,31,16,6,6,11,2
1523055054075964,3,5,14,-10,-15,-14,4,7
1523055054075964,-20,-10,-1,4,20,22,1,-5
1523055054085197,0,-1,17,-4,-9,-6,-6,-4
1523055054085197,7,8,15,7,3,2,15,3
1523055054100124,5,21,65,2,-5,-3,0,-1
1523055054100124,-14,-38,-58,-5,-9,-6,-9,-4
1523055054101274,5,7,-15,-4,9,8,14,3
1523055054101274,11,-4,0,-13,-19,-12,4,-1
1523055054122667,-26,-14,-4,2,9,-10,-7,-6
1523055054122667,12,40,34,6,-4,-8,-3,2
1523055054123832,0,-27,0,3,0,4,1,2
1523055054123832,3,3,-12,-4,1,-2,3,-4
1523055054136242,-11,-2,-4,3,-7,-3,-5,2
1523055054136242,0,5,7,1,1,0,-1,-1
1523055054144890,-6,-5,1,2,0,-10,-3,0
1523055054144890,-4,-2,19,7,6,1,5,-2
1523055054158926,9,-6,-14,-14,-11,-13,-2,2
1523055054158926,-1,9,23,2,-4,0,0,0
1523055054165943,-8,-1,-28,12,11,0,-5,-5
1523055054165943,-10,-14,21,-10,8,6,-4,-6
1523055054182183,1,-4,-26,-4,-3,-2,2,-4
1523055054182183,6,-16,-20,-19,-17,-6,-1,2
1523055054190083,-2,16,15,-4,-4,-5,-11,-5
1523055054190083,-7,-14,-38,12,-3,-8,0,-2
1523055054205048,5,-3,5,-4,1,2,-1,0
1523055054205048,-4,8,21,5,5,5,0,-1
1523055054206761,0,-8,-13,-14,-14,-12,-2,-1
1523055054206761,-5,-35,-58,-11,-4,-3,-5,-5
1523055054219586,4,2,9,-1,-5,7,-4,1
1523055054219586,5,8,21,-5,-3,-2,-1,2
1523055054221092,-5,22,30,7,0,-4,-2,-1
1523055054221092,15,-7,9,-4,-6,2,0,3
1523055054242147,1,9,-28,3,2,5,4,3
1523055054242147,-13,-4,7,0,4,1,-10,-11
1523055054243651,-26,14,4,2,4,5,16,11
1523055054243651,-1,-3,6,3,-3,9,-5,4
1523055054264745,-4,-5,5,-2,2,4,33,-3
1523055054264745,14,10,0,2,2,4,-21,31
1523055054266247,15,1,-6,-6,-4,-6,2,-10
1523055054266247,-12,15,11,7,6,13,-4,-25
1523055054278745,-80,13,20,8,8,0,-7,-13
1523055054278745,-22,18,6,3,-2,-5,-29,-13
1523055054285764,-24,-11,-5,0,-3,3,11,-17
1523055054285764,60,17,3,5,1,-7,6,27
1523055054302306,35,-101,-42,-28,-18,-22,-16,-7
1523055054302306,-41,-2,-8,-16,-4,-19,4,-62
1523055054303847,18,-1,16,10,0,-8,-20,15
1523055054303847,-32,19,-22,-23,-11,-6,14,-9
1523055054324883,46,-1,4,3,0,11,-23,0
1523055054324883,-28,-4,7,17,8,-1,34,34
1523055054326370,22,12,-3,7,5,-4,-39,-5
1523055054326370,-19,-11,-20,-5,1,0,10,-11
1523055054338961,5,16,12,-4,-7,-5,-14,-2
1523055054338961,5,-6,-5,-7,2,5,7,19
1523055054345922,3,-2,4,1,0,7,16,3
1523055054345922,2,-4,4,10,2,0,-17,2
1523055054361966,-8,35,12,7,7,5,3,-17
1523055054361966,26,-1,5,-6,-8,8,-1,-39
1523055054363972,-3,-30,8,-5,-2,-6,13,19
1523055054363972,12,-8,-2,0,-3,-4,-4,24
1523055054384526,-11,7,-2,6,3,-1,8,2
1523055054384526,36,48,69,8,-1,-1,-9,-6
1523055054386031,-8,-43,-24,-17,-7,0,-12,-7
1523055054386031,-33,-19,-3,-7,-2,-5,3,-7
1523055054399064,-2,11,-2,5,0,2,-5,4
1523055054399064,4,-4,11,-1,3,-1,7,6
1523055054405635,-9,2,-16,-16,-9,5,5,0
1523055054405635,1,-12,4,5,5,-3,-10,-3
1523055054422182,9,0,22,1,-3,-4,-6,7
1523055054422182,4,1,7,1,-4,-7,-9,4
1523055054423631,-6,-19,-73,-13,1,-2,13,1
1523055054423631,3,-9,-3,-7,-9,-1,2,-6
1523055054444686,2,30,33,7,14,12,6,0
1523055054444686,1,-10,-15,6,-7,-3,-3,5
1523055054446189,11,19,2,13,12,8,-1,1
1523055054446189,3,23,24,8,1,-2,17,-3
1523055054458222,-8,-30,-51,-21,-5,-10,-20,0
1523055054458222,-2,9,34,7,0,6,25,15
1523055054467247,-6,-20,-32,-19,-10,-7,-50,-27
1523055054467247,1,10,21,5,-2,1,11,0
1523055054482286,-13,41,23,2,-3,-7,10,4
1523055054482286,2,-23,-32,-7,-4,5,3,2
1523055054483791,-2,15,36,4,0,1,-3,-6
1523055054483791,0,-7,8,-4,-1,-9,-7,-1
1523055054504845,-10,-33,-27,-8,-1,6,-4,-3
1523055054504845,12,-9,-24,-5,-13,-13,-4,1
1523055054512366,-15,26,42,7,4,-7,16,7
1523055054512366,1,-7,-13,10,11,20,-5,-1
1523055054518937,-1,-35,-73,-10,-4,-2,7,0
1523055054518937,-1,3,0,5,5,4,-4,2
1523055054525901,4,-16,11,-8,-5,-8,0,-6
1523055054525901,12,11,5,5,6,0,-4,3
1523055054541946,3,1,3,13,4,0,4,-2
1523055054541946,-11,-9,-31,-20,-5,3,-8,-2
1523055054543951,15,6,8,6,-6,2,7,6
1523055054543951,-1,12,-3,-3,2,-1,3,1
1523055054564504,14,19,39,14,7,5,4,4
1523055054564504,-15,-17,-18,-6,-1,-2,0,-3
1523055054566009,9,11,13,5,1,8,9,5
1523055054566009,-7,13,8,-3,-3,-2,0,1
1523055054579044,3,-6,-8,-1,-3,-1,-4,2
1523055054579044,13,-20,0,-2,12,5,-3,-2
1523055054585560,3,3,-1,-2,-4,-3,5,4
1523055054585560,-33,7,-1,-6,-6,-2,-3,-6
1523055054602662,1,9,20,-2,-5,-2,-3,-1
1523055054602662,-4,-2,-17,-9,-14,-9,-1,-1
1523055054604110,10,-8,-16,18,28,10,3,1
1523055054604110,6,0,4,-4,-1,-7,-5,-1
1523055054624665,-8,0,8,0,-2,-1,-1,-1
1523055054624665,0,-17,-19,-11,-8,-6,-5,-2
1523055054626169,3,8,9,-5,-13,-3,-3,0
1523055054626169,11,9,14,4,0,-2,2,3
1523055054639205,-15,-32,-73,-7,2,-3,1,-4
1523055054639205,7,11,6,0,-1,0,-2,-1
1523055054645774,-21,2,8,2,-5,-6,-1,-1
1523055054645774,14,5,20,3,1,-2,2,1
1523055054662320,-11,-4,20,13,22,25,-5,-2
1523055054662320,-5,-9,-30,-7,2,9,-8,-2
1523055054663768,7,-2,-1,7,-6,-10,-3,0
1523055054663768,-7,-21,-22,-2,-9,-5,-3,-3
1523055054684823,15,9,18,0,-4,-7,2,3
1523055054684823,0,9,11,2,-3,-3,3,2
1523055054686382,-18,0,-29,-4,7,10,-7,-11
1523055054686382,-9,-25,16,-10,-3,-3,-5,-4
1523055054698360,22,-5,14,-4,-9,-7,-9,-1
1523055054698360,-6,-4,-1,9,6,-1,18,-2
1523055054707386,5,-1,4,-10,-9,-7,-3,1
1523055054707386,6,21,7,6,2,0,5,4
1523055054721979,8,7,16,0,1,-2,-1,0
1523055054721979,7,4,-2,0,-5,3,-7,2
1523055054723928,-11,-1,-9,-3,-2,1,-4,-8
1523055054723928,-15,-21,-28,-4,-1,-2,-6,-9
1523055054744484,5,18,28,1,-6,-7,-4,2
1523055054744484,6,5,-5,2,3,-1,-1,1
1523055054745987,11,5,16,0,0,-1,3,-10
1523055054745987,-9,6,-9,-3,1,-1,-6,31
1523055054758520,11,-1,6,-8,-12,-9,-3,-3
1523055054758520,-22,-2,1,5,5,-3,2,-2
1523055054767043,3,3,4,0,1,0,-2,-2
1523055054767043,36,-11,-7,-6,-5,-13,-16,8
1523055054782082,-30,-9,-16,-9,-8,-7,18,12
1523055054782082,-10,6,3,9,2,-6,-19,-14
1523055054783589,-14,-30,0,-4,-5,-1,-31,-52
1523055054783589,-28,4,-9,-2,-5,-4,17,15
1523055054804643,18,8,-10,-12,-9,-11,-7,-12
1523055054804643,19,5,1,6,2,0,-15,18
1523055054806147,4,18,-7,14,1,0,-23,1
1523055054806147,4,-20,-19,-35,-11,-8,-1,-10
1523055054818180,-13,-11,-7,-2,1,0,-20,-22
1523055054818180,-16,0,3,-3,-1,13,17,36
1523055054827705,13,1,-1,2,1,-25,11,38
1523055054827705,8,-1,4,4,-2,9,2,5
1523055054842300,33,29,7,8,10,11,9,-10
1523055054842300,-38,-34,-12,-9,-6,-25,-58,-23
1523055054843748,-28,0,16,-2,2,11,29,20
1523055054843748,2,8,-7,6,1,2,1,-16
1523055054872323,8,-2,1,-7,-6,-7,14,31
1523055054872323,6,-4,5,7,7,10,9,-4
1523055054873827,-12,-4,-5,-9,-5,2,5,-1
1523055054873827,-6,1,-15,1,2,1,3,-9
1523055054878340,-6,2,-16,2,2,8,-2,-2
1523055054878340,2,-52,-20,-8,-5,-7,8,-6
1523055054887364,-2,6,5,-11,-9,-5,-9,-8
1523055054887364,24,16,18,15,12,9,11,-1
1523055054901902,-31,-21,-18,-10,-16,-10,-16,-13
1523055054901902,15,29,12,0,9,-2,11,-6
1523055054903907,22,11,-43,-6,6,12,13,17
1523055054903907,-10,2,32,11,9,2,0,-9
1523055054924463,-4,-4,17,12,-1,4,8,11
1523055054924463,0,-2,-5,-17,-20,-9,0,-11
1523055054925969,-2,0,-15,12,2,-7,9,3
1523055054925969,-4,-17,-13,9,8,5,-4,-4
1523055054938501,-3,18,25,12,1,-11,-7,-8
1523055054938501,4,-14,-23,-20,-2,4,3,-1
1523055054947523,1,9,44,-5,-14,-3,2,-1
1523055054947523,-3,-14,-32,3,11,5,-5,-9
1523055054962063,-7,-10,-17,2,6,6,-8,-1
1523055054962063,1,18,4,9,-1,2,20,-2
1523055054963567,-9,-28,-4,-21,-8,-18,13,0
1523055054963567,-9,-7,14,-2,-11,-6,-10,-3
1523055054984623,3,5,-41,-15,-10,-12,6,1
1523055054984623,0,11,28,33,-8,-12,-16,-4
1523055054986127,10,2,8,-10,32,10,-1,-1
1523055054986127,-2,10,-5,-1,-10,1,5,-3
1523055054998158,-4,0,39,-2,-5,-7,-13,-1
1523055054998158,0,-14,-60,-25,-14,-8,5,0
1523055055007184,-2,-2,-24,5,-11,-10,-7,-4
1523055055007184,-4,7,29,1,-7,-6,-2,-2
1523055055022221,0,-8,-5,0,-1,9,6,3
1523055055022221,-3,3,5,7,11,-3,3,-4
1523055055023727,8,8,10,8,-4,7,-2,-2
1523055055023727,-3,-13,-30,-14,6,5,-4,-3
1523055055044781,-6,8,32,-1,-8,-6,4,-3
1523055055044781,-7,-16,-1,-9,2,15,2,-3
1523055055046287,-1,-7,-5,11,16,25,-9,-2
1523055055046287,-2,1,-2,1,-14,-10,-6,-4
1523055055058373,-4,6,0,7,10,1,1,1
1523055055058373,6,13,23,-1,-3,-4,3,4
1523055055067343,1,-7,3,0,-6,-2,-3,-1
1523055055067343,-6,-4,-7,-4,0,0,-2,-4
1523055055081423,3,-5,-10,-3,-2,4,4,0
1523055055081423,-5,-1,-3,8,5,4,-9,-3
1523055055088455,5,5,18,-1,-1,3,0,1
1523055055088455,9,6,-21,-1,0,-2,1,0
1523055055104495,-12,-9,7,-8,2,-9,-3,-4
1523055055104495,-7,4,12,0,-6,-6,0,-6
1523055055105946,-5,-13,-2,10,12,12,1,-2
1523055055105946,-2,11,26,3,6,3,0,1
1523055055127000,28,9,4,0,-3,-1,4,8
1523055055127000,-7,-8,-9,-7,0,0,-2,-1
1523055055128507,0,-6,3,0,-11,-9,1,0
1523055055128507,7,-15,-6,-4,-1,-4,-1,-3
1523055055142042,-6,32,1,-2,3,4,-3,-2
1523055055142042,9,-19,8,3,3,3,2,3
1523055055143547,-7,12,13,-7,-5,-9,-5,-4
1523055055143547,0,-9,-22,-3,-8,-8,3,-1
1523055055164600,2,-20,-17,-3,6,9,-1,-1
1523055055164600,2,21,12,2,3,0,2,2
1523055055166108,11,-2,-15,-3,-5,-4,-8,2
1523055055166108,-19,4,4,-8,-12,-2,1,-3
1523055055187160,-6,-9,0,1,16,11,0,-2
1523055055187160,8,39,36,20,15,17,0,4
1523055055188665,14,-10,-2,-3,-7,-3,-2,0
1523055055188665,-6,-3,28,-1,0,0,-7,-4
1523055055202203,-6,-5,-9,2,-1,-3,8,1
1523055055202203,6,2,8,-8,-9,-4,1,-1
1523055055203706,-7,26,11,4,2,1,-3,-2
1523055055203706,9,13,19,1,-1,1,3,14
1523055055224760,-14,-28,-38,-9,-6,-3,0,-7
1523055055224760,-7,-3,1,3,1,-2,-2,-9
1523055055226266,-3,-11,1,-3,-5,-2,-16,41
1523055055226266,-3,-12,-26,-3,1,-1,7,11
1523055055247322,7,-5,5,-2,-2,8,13,-6
1523055055247322,42,12,-1,-1,-2,-11,-8,14
1523055055248827,-40,-23,-49,-4,-2,5,13,-22
1523055055248827,-15,-36,-3,-19,-8,-2,-23,-2
1523055055261414,-9,-2,7,3,-1,6,-13,-21
1523055055261414,31,10,-7,1,9,18,-13,52
1523055055268377,-86,28,32,6,-1,-39,-19,-47
1523055055268377,37,8,-5,5,2,1,21,40
1523055055284420,-1,-10,-6,-9,-7,-1,4,6
1523055055284420,-28,-16,-11,-6,-5,-4,-35,-31
1523055055286424,55,0,6,2,-2,-2,3,7
1523055055286424,-61,4,-3,5,0,-15,-12,-38
1523055055306981,-48,-21,-5,-3,-6,-19,-26,-20
1523055055306981,9,10,1,-3,-1,2,-13,-1
1523055055308986,21,-4,-6,-1,3,34,27,28
1523055055308986,36,4,-7,-5,-6,-12,9,-5
1523055055321520,27,4,6,4,4,5,8,35
1523055055321520,-20,-12,-10,-8,-7,-16,19,31
1523055055328036,-9,-19,-9,-7,-5,-8,-39,15
1523055055328036,3,1,1,-1,-4,-2,13,-28
1523055055344581,-11,13,6,4,-1,-6,-10,-3
1523055055344581,-5,-20,-13,-4,-4,-1,15,-32
1523055055346085,-1,9,6,-4,-6,-2,1,-40
1523055055346085,3,18,10,10,11,14,-3,7
1523055055367141,-12,1,15,-4,-5,-12,-6,2
1523055055367141,-1,-9,-17,-2,-1,-3,11,3
1523055055368646,10,-18,1,-2,-2,1,0,-6
1523055055368646,-7,30,30,2,-1,-3,-10,-10
1523055055380682,18,-40,-28,0,1,13,13,-3
1523055055380682,-5,19,19,-5,-4,-4,0,-11
1523055055389706,6,22,37,11,5,-3,13,7
1523055055389706,-21,-47,-29,-7,3,22,-8,-13
1523055055404803,9,29,25,-5,-2,-7,-7,14
1523055055404803,0,6,7,5,1,0,7,3
1523055055406251,-11,-5,6,-6,-12,-8,-13,-15
1523055055406251,8,12,21,10,8,-6,8,10
1523055055427307,7,1,-68,-26,-5,4,0,-3
1523055055427307,-16,-15,4,29,3,-1,5,-13
1523055055428811,21,24,39,-4,-6,8,4,8
1523055055428811,-10,-40,-72,-15,-10,-7,-6,-5
1523055055440843,-2,8,13,5,-2,-5,2,2
1523055055440843,3,20,12,-7,4,-2,5,-3
1523055055449866,-1,-4,-29,5,11,4,4,8
1523055055449866,5,18,47,8,5,3,-4,4
1523055055463903,-1,-2,21,2,-5,-7,3,-4
1523055055463903,-16,-22,-88,-32,-36,-36,-2,-5
1523055055472427,9,4,-6,9,36,32,15,6
1523055055472427,5,19,13,-23,-6,0,-3,-1
1523055055486966,-8,1,12,34,-1,-5,3,-6
1523055055486966,-5,-3,2,3,5,14,-3,-3
1523055055488971,-3,-10,-22,-15,-5,-10,-4,-2
1523055055488971,7,3,-6,-1,-7,1,8,4
1523055055501002,4,1,1,1,3,-1,-14,-2
1523055055501002,-4,-4,0,3,5,4,-1,-4
1523055055509525,1,-5,-12,-9,-13,-8,3,3
1523055055509525,10,39,73,23,13,13,0,5
1523055055524565,-5,2,18,-8,-2,-8,-6,-3
1523055055524565,-5,-21,-12,0,3,-4,-18,-7
1523055055526069,-5,-12,-15,-9,-12,-8,21,-4
1523055055526069,-1,-6,-42,3,-7,-21,-1,3
1523055055547126,10,12,10,5,8,16,1,2
1523055055547126,-4,-9,8,0,6,8,1,-1
1523055055548630,-7,20,5,-2,-9,-8,-10,1
1523055055548630,-6,-15,-19,-7,-8,-8,-6,-3
1523055055560661,4,-12,2,4,5,12,6,0
1523055055560661,-9,-26,-41,-11,-1,-4,-10,-4
1523055055569686,16,36,88,12,3,-1,-2,3
1523055055569686,-17,-33,-42,-7,-5,-3,-1,-4
1523055055584724,-1,5,-12,0,7,4,7,-1
1523055055584724,7,19,43,-4,-6,-6,0,3
1523055055586229,-7,-28,-35,2,0,-12,1,-4
1523055055586229,12,36,29,4,14,13,5,0
1523055055606839,-17,-28,-27,-1,-5,3,-3,2
1523055055606839,14,13,25,1,-1,5,7,2
1523055055608882,-36,-15,-27,-14,-12,-5,11,-4
1523055055608882,14,-2,-2,-1,-18,-10,7,0
1523055055621379,0,33,57,15,27,36,3,1
1523055055621379,-8,-33,-64,-13,6,5,-1,-3
1523055055629902,12,-12,-21,-2,-1,-3,-11,-1
1523055055629902,1,0,10,1,-6,-6,-4,0
1523055055645198,1,5,-2,-20,-21,-16,6,1
1523055055645198,10,15,30,13,-11,-6,-6,-1
1523055055646445,-11,11,-18,-11,15,-1,-5,-5
1523055055646445,-16,-15,-15,1,7,3,-5,-1
1523055055667622,11,6,1,0,-3,-10,-9,-1
1523055055667622,-17,11,19,-2,-4,4,3,-2
1523055055668504,10,-25,-11,-2,-11,-13,-5,-2
1523055055668504,-10,7,15,7,6,-6,-8,-4
1523055055680888,5,8,-11,-1,2,1,-1,-1
1523055055680888,19,10,3,2,2,10,0,4
1523055055689560,-9,3,24,1,-9,-11,1,-3
1523055055689560,3,-27,-55,-9,2,9,-1,0
1523055055704600,2,-12,-13,1,2,-3,-1,-2
1523055055704600,-4,20,39,-1,1,0,3,2
1523055055706105,-4,-20,-17,-6,-4,-1,-7,-3
1523055055706105,27,12,8,-4,-5,2,-4,3
1523055055727283,-9,22,32,1,-5,-13,0,-4
1523055055727283,-18,-28,-63,-7,2,1,-3,-9
1523055055728664,-3,-41,8,11,4,5,-2,0
1523055055728664,-20,-4,6,-4,-3,-6,5,-12
1523055055740696,2,-9,-10,-4,-1,-2,-13,-29
1523055055740696,-21,21,27,1,2,4,23,0
1523055055749720,22,-18,-18,-1,-2,3,-12,10
1523055055749720,-15,-15,-13,-7,-5,-1,-7,-56
1523055055764759,-7,2,1,1,-3,-11,-1,9
1523055055764759,40,-9,-19,-2,1,14,-50,17
1523055055766318,20,40,11,9,7,-28,43,25
1523055055766318,-29,3,16,10,7,8,-2,19
1523055055787321,10,16,-1,3,1,5,-34,59
1523055055787321,-54,-11,11,-1,0,-9,-90,-4
1523055055788883,1,4,6,2,0,7,31,-69
1523055055788883,51,-23,-9,-2,-1,-7,-3,25
1523055055800909,-92,0,-11,-8,-10,-39,15,0
1523055055800909,5,-19,3,2,-1,6,18,-8
1523055055809881,51,6,-12,-6,-2,7,-48,-15
1523055055809881,-11,12,8,3,-1,-17,-17,-13
1523055055824419,43,-7,-16,-10,-2,16,30,-8
1523055055824419,1,0,9,3,2,-1,14,-12
1523055055826423,-3,13,3,2,0,4,-49,1
1523055055826423,-2,3,-3,-3,-6,8,58,5
1523055055846979,11,-6,-11,-7,-5,-15,-26,4
1523055055846979,24,-6,7,1,-1,-3,54,25
1523055055848482,-14,8,0,0,1,13,18,22
1523055055848482,5,-23,2,-4,-5,-6,-46,29
1523055055869595,-24,1,17,7,1,8,12,-35
1523055055869595,1,-2,-38,-4,1,-6,7,-19
1523055055871043,-33,-12,2,-1,-3,2,-9,-16
1523055055871043,-8,18,14,-1,-2,4,-5,9
1523055055884578,20,11,-5,0,-3,3,13,-4
1523055055884578,4,-5,2,-5,-7,-25,5,2
1523055055886083,-15,-22,8,5,5,19,-3,13
1523055055886083,1,27,-7,-2,0,-2,5,-9
1523055055907139,-2,-49,-32,-6,-2,3,2,3
1523055055907139,-1,19,43,8,6,-5,3,-4
1523055055908643,-2,11,1,-9,-9,-3,5,12
1523055055908643,-8,12,46,9,3,-4,-17,-4
1523055055920674,7,-14,-50,-13,-9,-7,11,-2
1523055055920674,0,6,2,1,6,-6,-2,5
1523055055929698,-1,16,18,2,-1,-3,-34,-11
1523055055929698,-3,-2,4,-7,-12,-15,52,-1
1523055055944738,-1,10,1,2,6,8,-19,1
1523055055944738,0,13,39,4,5,31,4,1
1523055055946242,8,24,17,4,-2,-53,-16,25
1523055055946242,7,-18,-3,1,5,5,27,10
1523055055967298,-11,4,17,2,0,3,-19,-18
1523055055967298,-12,4,14,-1,-9,-9,-14,-7
1523055055968804,8,-25,13,-9,-7,8,9,-3
1523055055968804,-22,-26,-77,-7,8,19,-17,-5
1523055055980834,9,10,-3,-3,-6,-5,18,7
1523055055980834,16,-3,11,6,4,4,1,0
1523055055989858,-12,-5,-12,-2,0,16,15,0
1523055055989858,9,57,-3,-3,3,1,2,-1
1523055056003897,9,-16,1,-4,-1,5,-15,1
1523055056003897,-30,25,8,-1,-3,-4,4,-3
1523055056010950,-11,-16,-37,-16,-11,-4,10,-5
1523055056010950,7,3,10,4,-1,-4,-7,1
1523055056026957,7,10,12,11,8,14,1,-5
1523055056026957,5,21,-1,-6,-3,-3,8,7
1523055056028962,5,60,7,4,2,-8,11,3
1523055056028962,-4,-19,31,1,-2,5,-20,-6
1523055056040494,-3,-8,10,-2,-4,-8,-6,-3
1523055056040494,-2,-38,-26,-4,-1,-3,9,-3
1523055056049518,3,16,-2,-1,-1,4,-7,-1
1523055056049518,-4,-9,-13,-5,-7,4,17,-1
1523055056064055,-5,-17,-1,-3,-13,-28,-5,-6
1523055056064055,7,8,-7,3,11,18,10,2
1523055056070574,-4,-21,-10,2,4,3,-7,-4
1523055056070574,-3,-7,6,-5,-4,-7,-23,0
1523055056087118,0,-12,0,-8,-15,-14,13,2
1523055056087118,2,13,-1,12,18,20,2,-3
1523055056088621,-6,-14,5,-2,3,-5,8,4
1523055056088621,-8,-13,-33,-8,3,0,-9,-7
1523055056109678,12,33,8,-5,-6,3,-4,5
1523055056109678,-8,-8,-8,-4,-7,-1,-5,-2
1523055056111221,-8,-21,0,5,7,13,19,-4
1523055056111221,10,16,7,2,2,-1,-8,3
1523055056123715,0,-4,4,-2,0,-3,0,2
1523055056123715,4,-8,-24,-6,-5,-8,-1,-1
1523055056130734,-17,-17,2,7,9,10,-3,-4
1523055056130734,-4,-28,4,4,2,0,-2,-1
1523055056147297,-13,2,1,1,5,6,2,-3
1523055056147297,-8,-7,2,-6,-10,-13,-1,-3
1523055056148835,3,5,-3,-5,-9,1,2,2
1523055056148835,2,-8,-8,2,-2,-6,-7,-3
1523055056169837,-1,1,14,1,5,6,-1,-1
1523055056169837,1,-3,2,-8,-7,-5,2,-2
1523055056171376,3,-11,-11,-1,-1,-1,-5,1
1523055056171376,0,25,31,7,-1,-1,0,-2
1523055056184880,0,-10,-2,-2,6,-1,-2,-3
1523055056184880,-2,-8,-2,-1,-7,-3,-3,-1
1523055056186438,10,-4,-10,-2,-3,0,-2,-2
1523055056186438,13,-17,-10,0,0,-4,-1,2
1523055056206936,-1,19,-4,2,0,4,3,-3
1523055056206936,3,4,0,-4,-4,-3,7,-4
1523055056208941,3,7,6,-2,-3,-3,-4,15
1523055056208941,-4,4,0,-4,-4,-3,1,-2
1523055056229497,4,-16,-19,5,4,6,-20,-8
1523055056229497,-39,-6,-6,-1,-1,-2,18,27
1523055056231000,5,-18,-8,-11,-9,1,23,-37
1523055056231000,4,13,-1,13,3,-3,10,5
1523055056244089,-9,-19,-8,-22,-7,0,4,-1
1523055056244089,23,-20,-3,-2,-3,-4,-11,-1
1523055056250552,-18,31,14,11,10,8,-13,-2
1523055056250552,-38,-9,0,1,1,-3,-33,15
1523055056267097,60,15,4,1,7,57,57,-7
1523055056267097,-33,0,-4,2,-2,-40,5,70
1523055056268602,3,-35,-13,-11,-9,-8,-4,-4
1523055056268602,32,8,1,-4,-1,-11,-1,-51
1523055056289657,-76,3,6,10,2,13,-48,37
1523055056289657,-6,-12,-7,-6,-3,12,31,75
1523055056291161,24,24,-2,0,-3,-8,30,-13
1523055056291161,-1,0,2,-1,-4,-7,16,15
1523055056303193,13,-19,-7,-2,-3,-9,8,15
1523055056303193,21,-29,-5,3,1,5,-16,-43
1523055056311214,-44,12,-5,-3,-2,0,2,13
1523055056311214,7,18,0,-9,-4,8,-15,-16
1523055056326255,10,23,5,0,-2,-18,-5,-17
1523055056326255,9,-3,-1,1,0,3,-2,-24
1523055056327256,26,1,3,1,1,6,-13,7
1523055056327256,-23,8,7,-9,-4,1,4,-4
1523055056348814,4,0,6,13,9,-5,3,2
1523055056348814,8,21,-14,-3,-4,-3,-17,-21
1523055056349818,-7,-14,5,7,8,2,-13,0
1523055056349818,6,24,73,5,1,3,3,17
1523055056363354,-20,-63,-63,-15,-10,-20,-8,-9
1523055056363354,-4,-39,-17,-9,-7,-2,-17,-36
1523055056371373,0,10,30,9,8,1,0,1
1523055056371373,-11,-23,-16,4,5,0,-9,2
1523055056386415,15,38,67,8,2,5,14,-1
1523055056386415,-1,-22,-73,-23,-6,5,5,-17
1523055056387417,13,-9,5,-2,-7,-2,-13,9
1523055056387417,-6,-9,-6,-3,-6,-4,9,1
1523055056408974,-3,-19,-18,6,3,0,-19,-9
1523055056408974,7,43,37,3,5,6,3,-2
1523055056409477,-3,-10,-12,-7,-2,-7,4,8
1523055056409477,6,-4,-22,-2,6,17,8,1
1523055056432036,-5,8,-33,6,-4,-12,-9,-9
1523055056432036,-1,16,74,3,-3,-19,-5,-8
1523055056433039,-1,-14,-25,-3,0,7,4,1
1523055056433039,-9,-2,-18,-29,-18,-14,-5,-7
1523055056446573,2,18,14,14,8,-5,-3,2
1523055056446573,5,5,25,7,-6,-6,-3,-5
1523055056447077,-5,6,14,3,-14,-3,-3,-1
1523055056447077,-4,-12,-50,-13,18,10,-8,1
1523055056469133,-19,-45,3,-10,-13,-22,3,-4
1523055056469133,6,4,0,-1,-2,-6,-7,-7
1523055056469636,2,19,20,6,6,6,-6,-2
1523055056469636,4,12,21,16,-4,3,2,2
1523055056492196,2,-4,-9,-4,6,3,2,-1
1523055056492196,1,11,8,-7,-5,5,-4,-5
1523055056492697,-10,-22,-54,-6,-4,1,-9,-4
1523055056492697,-1,-22,-3,-6,6,-4,-3,1
1523055056506232,-18,50,20,9,2,4,2,-3
1523055056506232,-3,4,4,1,-1,-2,-6,-4
1523055056507235,1,5,-4,-12,-8,-3,9,4
1523055056507235,-2,9,14,9,-1,-1,1,-2
1523055056528796,7,-12,-4,-5,-2,-3,0,-4
1523055056528796,-3,-4,-9,2,2,4,-2,-1
1523055056529795,0,-8,-7,-13,-6,-5,0,4
1523055056529795,-7,-5,3,20,14,21,-5,-6
1523055056552355,4,3,-1,-12,-8,-7,0,1
1523055056552355,2,2,6,10,9,6,-2,-1
1523055056552857,9,-14,-27,-1,2,-2,0,-1
1523055056552857,-19,-2,0,-9,-22,-28,-8,-3
1523055056566426,16,19,22,2,5,18,-4,2
1523055056566426,-5,-6,-41,-5,0,-1,-7,-5
1523055056567395,-3,17,12,6,2,-6,-1,0
1523055056567395,3,-14,-12,-6,-8,-7,0,1
1523055056588954,-6,-13,-26,-3,-2,-7,5,1
1523055056588954,8,0,15,-4,-4,-1,-2,-3
1523055056589455,3,16,38,6,4,-5,-8,0
1523055056589455,6,-30,-34,-5,-6,-10,1,0
1523055056612015,0,-10,-32,-3,2,16,-3,-1
1523055056612015,-27,17,21,4,-4,-7,6,-2
1523055056613071,16,7,-23,-1,-2,-1,-11,-3
1523055056613071,-7,-12,-11,-2,-2,4,-1,5
1523055056626552,-35,-6,26,8,0,-1,-5,-12
1523055056626552,24,-2,9,-13,-1,-14,1,0
1523055056627054,-16,-17,-15,-2,9,14,-18,-8
1523055056627054,17,29,37,4,1,4,8,5
1523055056649112,29,26,45,-5,-12,-12,1,11
1523055056649112,-12,7,-93,-7,-4,-1,0,-2
1523055056649615,-8,1,14,-2,2,-2,1,-3
1523055056649615,29,-6,3,-3,-2,-10,-11,3
1523055056663150,-24,-3,3,0,-1,-3,4,-8
1523055056663150,5,-2,11,-2,-4,0,-5,-1
1523055056671672,4,-6,3,-7,-14,-12,3,2
1523055056671672,-5,-22,-30,8,22,7,1,-2
1523055056686211,-5,9,1,-7,-3,-3,3,2
1523055056686211,-27,5,29,8,5,8,2,-4
1523055056687214,1,-21,-9,0,-4,1,6,-4
1523055056687214,-21,31,31,3,-4,-3,-1,-3
1523055056708805,14,-11,-11,-5,-4,-4,-4,3
1523055056708805,5,0,23,11,9,10,-1,0
1523055056709775,-24,-3,-24,-2,-4,-4,1,-3
1523055056709775,64,-38,-23,-15,-14,-12,-2,12
1523055056732333,18,21,6,2,5,6,3,22
1523055056732333,-8,-11,-7,-4,-4,-5,-37,-27
1523055056732835,-6,33,15,4,0,-2,75,-21
1523055056732835,40,22,0,-3,-5,-3,-2,9
1523055056746373,-33,-30,-15,-2,-1,9,-32,-67
1523055056746373,68,17,12,14,12,-26,24,59
1523055056747373,-96,-34,6,-5,1,2,-8,-33
1523055056747373,13,60,-3,1,-3,-2,4,5
1523055056768931,4,-83,-6,-6,-9,-13,-9,-8
1523055056768931,-88,-16,-9,-19,-10,3,8,-22
1523055056769433,93,-4,-1,2,7,36,-16,19
1523055056769433,-100,23,33,7,-2,-45,-3,-43
1523055056792049,10,33,-6,7,3,15,-27,13
1523055056792049,119,36,1,11,9,15,16,28
1523055056793049,-76,56,33,-3,-1,-4,-36,40
1523055056793049,19,26,11,9,7,16,2,-18
1523055056806585,-54,14,12,-5,-2,11,43,6
1523055056806585,16,-31,-7,0,-3,14,22,34
1523055056807034,49,53,1,6,5,2,41,-45
1523055056807034,-53,-28,-21,-8,-4,12,1,12
1523055056829091,-25,-69,-13,-2,-12,-31,-45,-42
1523055056829091,-4,-24,-7,0,-2,1,-36,-12
1523055056829595,-1,-13,9,11,14,12,-22,3
1523055056829595,13,-27,-12,-3,-4,4,21,13
1523055056852154,45,34,-3,1,6,9,15,37
1523055056852154,-37,38,68,-3,-17,-16,-1,-31
1523055056852655,10,-71,-80,-12,14,1,-11,5
1523055056852655,-6,13,67,5,-5,4,12,4
1523055056866247,-4,-15,-7,-11,-2,-10,4,2
1523055056866247,-5,-14,-23,-9,-4,6,-12,-9
1523055056867194,3,1,7,-12,-9,-12,-1,7
1523055056867194,16,18,18,0,8,25,1,12
1523055056888750,-1,7,-2,-1,-1,-5,-12,-2
1523055056888750,-9,0,31,28,11,4,9,-5
1523055056889753,5,-35,-38,-34,-22,-13,-14,4
1523055056889753,-24,-94,-127,-8,2,0,-32,-22
1523055056912312,24,46,56,11,3,16,26,12
1523055056912312,-19,-17,-6,-7,7,-4,50,13
1523055056912816,9,15,45,8,-12,-26,4,-2
1523055056912816,-9,10,21,1,-2,-22,-44,-37
1523055056926351,10,87,17,-8,0,-44,-7,-2
1523055056926351,-14,-41,-51,-4,-4,3,-10,-1
1523055056927354,0,13,13,24,3,5,8,7
1523055056927354,7,1,6,-2,-8,-6,7,14
1523055056948912,8,-4,-5,-22,1,-1,4,7
1523055056948912,-3,33,18,5,4,14,-10,-11
1523055056949914,7,-6,16,-11,-7,-5,-4,7
1523055056949914,-2,-27,-37,12,-1,-6,10,3
1523055056971470,1,-29,-27,0,2,11,2,4
1523055056971470,1,10,25,5,4,4,6,1
1523055056972474,-4,-24,-18,1,1,-1,-9,-8
1523055056972474,1,11,16,-15,-11,0,-4,5
1523055056986510,6,7,-13,4,-4,-15,10,9
1523055056986510,-4,3,17,-9,-6,-9,-9,-4
1523055056987013,2,31,15,9,4,2,4,2
1523055056987013,-10,-11,17,-8,-1,6,-3,-3
1523055057009571,20,-2,16,3,-4,2,0,6
1523055057009571,-25,-21,-52,-6,-5,0,-3,-11
1523055057010073,-6,14,3,6,0,-11,-2,0
1523055057010073,25,9,-3,-13,-4,14,26,12
1523055057031631,-6,-12,15,8,3,3,-21,0
1523055057031631,12,-35,-28,-6,-3,9,27,-1
1523055057032133,14,16,16,1,2,-6,-26,12
1523055057032133,4,5,-2,0,-8,-18,4,1
1523055057046670,-6,2,-5,6,4,4,4,0
1523055057046670,20,-4,2,1,6,7,-11,-3
1523055057047173,-6,19,15,2,7,3,-6,0
1523055057047173,6,13,12,2,-5,-12,-4,2
1523055057068730,-7,-22,-10,-1,1,23,7,-3
1523055057068730,-14,7,3,2,3,-11,-18,-7
1523055057069733,6,-23,-6,-1,7,6,7,-4
1523055057069733,2,-5,-10,4,4,-2,0,5
1523055057091290,-20,2,-6,-8,-8,-6,6,-5
1523055057091290,-12,-9,-6,4,-3,-13,-12,-3
1523055057092293,15,-21,-5,0,-1,2,1,-2
1523055057092293,-12,8,4,1,4,10,0,-1
1523055057106331,6,2,0,0,-1,-1,-1,2
1523055057106331,3,5,-13,-19,-19,-12,-5,-1
1523055057107365,-11,-11,1,14,4,-4,4,-4
1523055057107365,17,-11,-8,-1,6,1,-6,1
1523055057128889,-28,-25,6,1,5,0,4,-6
1523055057128889,5,13,3,-1,-2,-3,-6,-1
1523055057129899,-16,3,1,-18,-23,-11,-1,-3
1523055057129899,-8,-10,-9,7,7,10,-2,-5
1523055057151450,12,0,-14,12,12,2,0,0
1523055057151450,-1,-23,-6,-8,-3,-1,-5,-5
1523055057151952,-9,10,7,-7,-12,-3,-5,-7
1523055057151952,-3,0,-6,-1,-3,-4,0,0
1523055057166490,3,-7,-1,7,6,8,0,-2
1523055057166490,12,14,3,2,12,5,0,6
1523055057166992,2,-7,-10,1,-2,0,-3,0
1523055057166992,-18,8,9,-5,-3,-4,4,-1
1523055057189049,3,4,-7,-7,-11,-10,-2,-2
1523055057189049,-2,-8,-6,0,-2,0,-2,-1
1523055057189551,4,17,18,4,5,4,4,8
1523055057189551,-22,-2,-8,11,8,7,-1,-7
1523055057212111,6,-9,12,-6,-7,-6,-3,-2
1523055057212111,11,-11,-27,-4,-1,-2,-4,0
1523055057213113,7,15,23,-1,1,0,3,3
1523055057213113,8,-19,-61,-5,-1,-1,-4,-5
1523055057226650,-35,37,-23,4,4,3,10,-2
1523055057226650,-7,9,20,3,-4,-4,0,-1
1523055057227152,7,-26,-14,-3,-4,-6,-12,-2
1523055057227152,-18,57,46,7,1,-2,7,21
1523055057248708,25,-6,2,6,4,-5,-44,20
1523055057248708,-43,5,-14,-5,-8,14,52,-70
1523055057249744,75,-29,-41,-4,-3,-6,8,31
1523055057249744,-35,12,33,-5,-4,-12,-5,-34
1523055057271269,15,-11,-5,-5,-2,-5,-12,-11
1523055057271269,-41,7,10,10,7,27,-7,-2
1523055057272273,3,5,17,-1,-3,-6,71,2
1523055057272273,-30,14,15,8,4,12,-46,-43
1523055057286308,-65,-65,-19,-14,-3,25,75,0
1523055057286308,12,-12,-1,-4,-2,-30,-84,-79
1523055057287312,-6,11,6,10,9,30,2,40
1523055057287312,28,-12,-17,-7,-12,-63,-39,-5
1523055057308868,35,37,13,-5,-3,29,60,20
1523055057308868,-1,-15,2,-8,-3,-6,74,27
1523055057309871,-88,-17,-25,-6,-7,-9,-46,6
1523055057309871,-10,-16,3,0,-8,-2,-38,-37
1523055057331485,40,-15,-3,2,1,-17,-13,42
1523055057331485,55,0,-1,-10,-13,7,23,47
1523055057332434,28,39,12,13,17,10,-2,-46
1523055057332434,21,2,-4,-1,2,16,25,35
1523055057346468,-12,-9,-5,-9,-8,-1,-12,-31
1523055057346468,34,-4,-9,-6,-5,-9,-25,33
1523055057346970,-14,21,8,-4,-6,-7,-16,-20
1523055057346970,1,-21,-1,-3,1,9,17,17
1523055057369028,14,10,3,-2,-6,-15,-20,-4
1523055057369028,-2,11,5,10,4,-8,-23,-4
1523055057369530,-1,-24,-4,-1,5,-3,6,4
1523055057369530,13,-6,3,-4,5,19,23,3
1523055057391588,-8,5,4,4,3,-8,-17,-17
1523055057391588,-15,4,3,1,-5,-4,-4,3
1523055057392091,2,-2,-5,-1,-8,0,-1,-14
1523055057392091,42,8,3,-8,2,7,11,22
1523055057406629,-40,-8,-7,0,-5,-13,-16,-11
1523055057406629,-11,-11,3,-1,-7,-9,-14,-1
1523055057407131,2,-7,-5,4,13,2,-1,-2
1523055057407131,18,-3,-1,-5,-10,-12,8,7
1523055057428687,10,0,-3,-4,-3,-12,-1,-5
1523055057428687,-4,35,42,14,14,14,-2,1
1523055057429690,-7,-33,-59,-16,-16,-11,-8,-10
1523055057429690,-6,-9,-2,8,2,1,11,3
1523055057451248,0,1,1,-11,-7,2,-7,-6
1523055057451248,-3,-18,26,6,5,-3,-5,5
1523055057452303,-7,-11,-20,3,-4,-1,-6,-3
1523055057452303,-14,-8,-13,-18,-4,-1,-3,-2
1523055057466287,3,-1,0,5,0,4,0,-3
1523055057466287,-1,-1,-11,-1,10,5,-5,2
1523055057467324,1,24,50,4,-5,1,-1,-2
1523055057467324,-10,-35,-41,-8,2,0,2,-5
1523055057488849,5,31,-4,0,-5,-5,4,-3
1523055057488849,0,-20,4,4,-3,2,1,3
1523055057489849,-3,14,40,0,5,9,-4,-6
1523055057489849,-8,-10,-56,-2,-3,-5,-1,-2
1523055057511407,12,19,11,-4,-1,1,-8,1
1523055057511407,-10,-22,-13,4,-2,-8,-6,-1
1523055057512409,7,20,36,-8,5,-5,4,6
1523055057512409,-3,-9,-2,6,8,12,2,-3
1523055057526501,-3,-9,3,2,-1,-12,-9,-4
1523055057526501,-5,-5,-31,-7,0,8,-1,-1
1523055057526948,4,29,14,0,-8,-5,-1,-2
1523055057526948,2,-5,4,-4,-5,-3,-1,2
1523055057549008,9,-41,-13,1,10,12,-3,0
1523055057549008,-4,17,7,-4,-8,-3,4,5
1523055057549510,-1,-4,-8,1,2,2,-3,-5
1523055057549510,-6,17,11,6,-2,-2,5,3
1523055057571567,2,-10,6,6,-1,-2,1,-2
1523055057571567,-8,44,23,-1,6,3,0,2
1523055057572069,-3,-22,-31,-7,-14,-7,-4,-2
1523055057572069,-2,5,18,6,-4,-15,-4,-2
1523055057586607,-4,6,-37,-9,3,2,-4,-4
1523055057586607,14,4,0,0,4,-2,0,1
1523055057587108,0,-8,-2,-3,-3,0,2,0
1523055057587108,-5,5,18,-9,-15,-5,-4,-2
1523055057609168,-15,5,10,14,2,-2,0,-2
1523055057609168,4,-14,-17,-11,1,4,-1,0
1523055057609670,10,-25,-22,-7,-9,-10,0,-1
1523055057609670,18,14,14,4,2,8,0,5
1523055057631227,-2,5,-2,-22,-16,-9,-5,-4
1523055057631227,-6,-3,0,20,7,2,1,-3
1523055057632229,1,6,-4,-4,9,7,1,3
1523055057632229,-7,-13,14,7,5,6,-2,-2
1523055057645798,-3,0,0,-8,-10,-9,1,-1
1523055057645798,-2,-4,-12,-16,-8,-5,-5,-1
1523055057653822,-5,2,-2,7,9,11,3,-3
1523055057653822,11,-19,-2,-1,2,2,0,-1
1523055057668825,-1,5,5,1,-1,-1,-1,1
1523055057668825,0,-8,-11,-18,-19,-12,-2,-1
1523055057669829,-9,-4,14,29,12,5,2,-3
1523055057669829,0,-4,-18,-5,1,3,1,-2
1523055057691386,2,-8,0,0,6,5,-4,0
1523055057691386,8,6,-4,-6,-8,-6,-3,-4
1523055057692388,-21,-5,-7,-14,-15,-9,-5,-3
1523055057692388,20,-5,8,8,3,-1,-3,3
1523055057705925,9,22,8,-1,-1,-5,3,3
1523055057705925,-18,-18,-6,9,4,2,-5,-11
1523055057713982,6,3,-10,-12,-5,-6,-2,-1
1523055057713982,0,2,0,-4,-3,-1,-2,-2
1523055057728986,25,-10,-4,1,-4,-4,1,23
1523055057728986,-4,19,11,-6,4,11,-23,-13
1523055057729487,-2,-20,-21,-4,-9,-15,7,18
1523055057729487,-2,18,13,13,15,13,3,-5
1523055057751546,-1,-10,-7,-1,8,14,-21,-13
1523055057751546,-43,1,5,0,-8,-31,19,28
1523055057752048,45,-25,-6,0,0,4,21,25
1523055057752048,4,11,-9,-19,-13,-1,-21,6
1523055057774607,2,-6,11,14,5,1,28,9
1523055057774607,-21,-34,-9,6,4,3,-40,-26
1523055057775610,27,-9,-8,-7,-7,-11,-12,-32
1523055057775610,-97,3,21,7,2,-6,18,-31
1523055057789147,17,22,8,9,5,7,-23,23
1523055057789147,62,13,2,1,5,45,64,-30
1523055057789648,-86,-9,18,-6,6,2,-85,-17
1523055057789648,7,-43,-1,3,0,-8,50,8
1523055057811204,-77,2,-2,-14,-3,9,-6,-12
1523055057811204,32,13,-4,1,-5,6,-12,48
1523055057812207,45,16,-6,8,2,-15,-26,16
1523055057812207,-31,-19,-3,-8,-1,6,6,-32
1523055057825744,1,-3,-13,10,-7,-2,-5,21
1523055057825744,9,15,10,-11,-1,-14,14,30
1523055057833766,-23,20,3,1,-3,12,25,-6
1523055057833766,50,11,0,-1,-2,1,-40,28
1523055057848804,-29,10,0,1,-1,-6,35,0
1523055057848804,21,-5,-4,-5,-3,0,-3,-27
1523055057849807,-17,2,12,2,2,-3,-2,-7
1523055057849807,-26,-8,-35,-8,-7,-3,-11,-65
1523055057871366,30,-3,7,-8,-5,-4,-19,-7
1523055057871366,-9,0,-3,12,9,1,7,-4
1523055057872368,-2,-2,-6,-4,-7,6,14,1
1523055057872368,18,18,17,7,10,-4,-11,22
1523055057885903,11,3,-1,-4,-3,-3,12,-15
1523055057885903,-17,-11,-29,-6,-10,-19,-17,-3
1523055057893925,10,42,82,12,7,7,13,11
1523055057893925,-3,-41,-76,-24,-24,-18,8,7
1523055057908965,-7,-36,-26,5,14,2,-8,-16
1523055057908965,-2,9,16,1,5,6,11,13
1523055057909466,-3,-9,-13,-13,-6,-3,-1,-8
1523055057909466,11,32,65,9,-3,-7,-1,13
1523055057931525,-16,-28,-29,-14,-13,-10,-6,-20
1523055057931525,-7,-1,-2,4,-5,-7,-29,0
1523055057932026,-2,-9,-32,-4,3,0,38,-4
1523055057932026,4,-1,-2,1,0,4,-8,4
1523055057954587,4,2,0,-10,-3,-1,3,5
1523055057954587,-1,4,22,13,6,3,17,5
1523055057955088,3,14,17,7,5,-5,-19,-4
1523055057955088,1,33,9,-2,5,4,-13,6
1523055057969124,2,-13,-4,-8,-13,-1,-14,-8
1523055057969124,-7,-1,-20,-3,1,4,-9,-3
1523055057969627,8,19,-6,8,0,-2,10,8
1523055057969627,-7,-32,-35,-1,4,6,-5,-2
1523055057991185,8,31,26,-4,-6,-4,8,3
1523055057991185,-5,-13,-4,8,4,-6,-8,-4
1523055057992241,-3,3,11,2,-3,-1,2,2
1523055057992241,8,7,2,-5,-3,0,8,6
1523055058014747,7,-17,-8,4,10,-3,-6,-5
1523055058014747,-3,15,43,1,-5,-2,7,1
1523055058015249,-3,-19,-14,2,-1,2,0,-4
1523055058015249,-2,-14,14,-3,-5,-4,-5,4
1523055058028785,-3,1,13,-5,0,-1,18,-2
1523055058028785,0,10,12,-11,-16,-39,-22,-5
1523055058029788,-10,-25,-29,-3,5,9,4,-1
1523055058029788,10,16,10,23,15,4,2,6
1523055058051345,0,6,2,17,17,6,-1,1
1523055058051345,-20,-3,-13,-24,-10,1,7,-6
1523055058052348,3,-12,-14,-27,-21,-12,-16,-5
1523055058052348,-9,0,-2,6,-11,-5,0,0
1523055058075407,1,6,17,-4,7,-1,0,1
1523055058075407,1,-4,-14,6,5,6,-2,0
1523055058075911,3,8,-2,3,3,4,1,0
1523055058075911,-7,12,7,-9,-1,5,1,2
1523055058088945,1,1,6,3,-11,-9,-8,-20
1523055058088945,0,-19,-22,-4,-1,4,0,1
1523055058089948,-4,4,-21,-13,-10,-16,-4,-2
1523055058089948,12,1,10,21,11,5,-1,-4
1523055058111503,-9,23,-2,2,1,3,-1,3
1523055058111503,-1,-11,-18,-8,-4,4,-5,0
1523055058112005,-4,-4,10,-2,-5,-1,-4,-6
1523055058112005,14,18,18,15,9,3,3,5
1523055058134565,-4,-1,7,-4,1,0,0,0
1523055058134565,-12,-12,-6,-11,4,13,-2,-3
1523055058135568,-5,-11,5,-3,-10,-5,0,-2
1523055058135568,0,1,-1,-8,0,-1,1,-1
1523055058149103,17,1,-3,4,5,4,-1,5
1523055058149103,12,11,29,11,0,-5,2,3
1523055058149606,-19,-3,-6,2,2,2,-1,2
1523055058149606,18,-3,0,-11,-4,-2,9,-13
1523055058172199,-37,2,6,-1,-4,-8,-8,-5
1523055058172199,9,-3,-10,-1,-3,-2,6,2
1523055058172667,5,-4,-9,5,9,-9,-5,3
1523055058172667,18,-2,-9,-9,-5,-2,-2,5
1523055058194725,18,-9,-8,0,-5,1,0,-3
1523055058194725,-23,4,14,3,2,-2,-3,15
1523055058195227,-1,-42,-64,-7,-1,-6,-52,-41
1523055058195227,-12,12,5,-5,-5,12,19,39
1523055058208809,10,-3,-4,-5,-5,-32,0,-34
1523055058208809,2,-4,-6,-1,0,2,16,34
1523055058209866,19,-20,9,0,-1,1,-11,-14
1523055058209866,-19,17,2,-3,1,-2,-48,-33
1523055058231369,16,-11,-22,-2,-7,6,-33,-9
1523055058231369,16,-5,-1,-7,-3,-1,-27,0
1523055058232372,0,2,8,1,3,2,13,-58
1523055058232372,23,-4,-6,-8,-6,2,90,-18
1523055058254431,24,17,7,22,9,11,16,-8
1523055058254431,-75,-32,-9,-8,-6,5,-22,-28
1523055058255435,-11,6,9,0,-4,-15,-27,107
1523055058255435,21,43,11,11,8,-12,26,83
1523055058268971,-14,0,21,-11,0,7,13,-101
1523055058268971,50,7,-18,-1,-3,6,11,29
1523055058269472,-83,-13,3,-3,0,-6,2,-26
1523055058269472,13,-35,-9,0,-2,-25,-46,-9
1523055058291530,1,-15,5,3,1,11,39,63
1523055058291530,30,30,9,8,12,18,13,-56
1523055058292032,33,-9,2,-5,1,8,38,8
1523055058292032,5,12,4,6,-5,-9,-82,-43
1523055058314627,7,28,7,-14,-6,-8,5,43
1523055058314627,-28,-62,-86,-15,-8,2,-14,-73
1523055058315593,28,35,43,8,1,9,14,5
1523055058315593,-29,-53,-46,-12,-6,0,19,-9
1523055058329129,-10,-3,-8,0,3,7,-25,1
1523055058329129,8,37,29,4,7,-5,16,44
1523055058329632,-8,10,9,-2,-11,-9,14,16
1523055058329632,-25,-1,2,2,4,5,-5,-4
1523055058351188,14,15,10,-2,-2,6,-10,11
1523055058351188,12,-12,-34,9,11,-7,3,5
1523055058352190,9,-23,-72,-11,-4,4,10,-6
1523055058352190,10,3,18,-13,-13,-6,-14,-28
1523055058374750,-5,17,69,22,-2,-4,-3,12
1523055058374750,-20,-31,-17,-16,0,-5,4,-6
1523055058375252,-12,11,30,-9,-7,1,-8,-18
1523055058375252,-1,19,19,4,15,8,2,15
1523055058388842,-20,-30,-42,-8,-11,-3,-13,11
1523055058388842,4,55,87,16,3,-8,18,11
1523055058389846,3,-51,-57,-7,-2,4,2,-3
1523055058389846,-2,12,45,-4,-3,12,8,-1
1523055058411348,-25,-77,-102,-7,0,-7,-6,2
1523055058411348,15,44,72,-14,-4,-16,-29,-1
1523055058412353,7,6,7,6,8,1,-19,2
1523055058412353,-2,3,1,0,5,10,32,4
1523055058434409,-17,-11,-13,-1,-4,10,-23,-6
1523055058434409,4,-3,-54,-14,-12,-8,2,6
1523055058435466,-5,21,56,35,7,5,4,2
1523055058435466,-10,20,-38,-14,2,-2,-12,-1
1523055058449450,22,22,23,-3,-6,-15,4,7
1523055058449450,-1,28,5,9,5,-2,-4,1
1523055058456470,23,26,89,19,0,-8,7,5
1523055058456470,-37,-58,-44,-15,-13,1,-32,-20
1523055058479530,-9,13,11,-3,-2,-10,53,3
1523055058479530,30,2,2,14,9,46,-43,12
1523055058480533,-22,19,22,-4,6,-10,37,-23
1523055058480533,-12,-21,-55,-11,-13,-8,4,5
1523055058495071,4,13,33,4,-4,-10,-6,-4
1523055058495071,-16,-46,-45,0,2,-12,-11,-2
1523055058496075,11,-1,-25,17,3,-10,38,13
1523055058496075,26,23,76,5,-4,-1,-3,5
1523055058509129,-44,-12,-76,-40,-6,-1,-15,-12
1523055058509129,10,72,17,-2,-28,-4,7,-5
1523055058509611,-15,-28,-7,-11,22,25,-7,-1
1523055058509611,53,79,12,36,-19,-13,9,11
1523055058531167,-43,52,54,-7,9,8,-5,-33
1523055058531167,-22,-50,-75,-38,-23,-21,-1,-37
1523055058532225,24,-17,-15,-13,6,5,-13,7
1523055058532225,46,83,18,19,4,7,5,16
1523055058554732,-16,-41,-48,-3,-8,1,-15,6
1523055058554732,-38,-36,94,8,-5,2,-50,-39
1523055058555233,-12,18,20,1,6,47,28,-6
1523055058555233,6,-15,-50,-7,4,-12,-16,3
1523055058568267,36,23,22,-3,-8,5,5,14
1523055058568267,-12,-21,13,21,26,0,5,7
1523055058576287,18,-15,-32,-9,-10,-3,-49,-2
1523055058576287,-46,-24,36,-11,-1,-3,19,-4
1523055058592833,13,-29,-48,-4,3,-9,-5,12
1523055058592833,-1,-7,-4,-1,-9,-9,4,1
1523055058593333,17,21,22,30,-23,-36,-8,9
1523055058593333,-22,-44,-36,-27,25,20,8,-9
1523055058614890,-1,0,22,-1,-4,-10,-3,-2
1523055058614890,0,18,4,4,0,5,17,11
1523055058615894,4,21,1,1,-11,-11,1,3
1523055058615894,-15,-52,-31,-10,-8,1,-1,-2
1523055058628425,-6,-15,-6,12,14,3,-1,-3
1523055058628425,42,10,21,0,-1,-3,-7,13
1523055058635947,-22,15,2,-9,5,5,14,-6
1523055058635947,4,-58,-17,-11,-15,-19,31,-5
1523055058651544,7,12,-9,2,-8,-12,-6,-2
1523055058651544,8,-22,-32,7,7,7,18,7
1523055058651990,8,13,36,7,12,-2,-50,-7
1523055058651990,33,17,13,5,6,29,24,-15
1523055058674550,-70,-14,11,-5,-11,-22,28,70
1523055058674550,-19,-2,-11,-5,-7,-23,42,16
1523055058675601,-14,10,-19,-12,-8,14,27,-43
1523055058675601,-26,-30,19,3,0,14,-48,-41
1523055058688085,60,-3,-15,10,11,10,-11,18
1523055058688085,-60,-16,4,-2,-8,-33,-29,-25
1523055058696614,-39,2,-2,-12,-5,30,14,-10
1523055058696614,-12,10,-1,-8,4,5,-33,11
1523055058711647,57,27,30,9,6,5,-64,-41
1523055058711647,-3,35,-5,-6,4,49,0,6
1523055058712150,-16,-14,-40,-11,-14,-71,-25,29
1523055058712150,-3,-55,12,-9,2,-10,29,105
1523055058734708,67,21,4,-6,2,14,10,-12
1523055058734708,-50,-4,-6,-8,-10,17,-22,-11
1523055058735211,10,-27,-25,-9,4,34,6,67
1523055058735211,49,75,22,25,8,-6,83,93
1523055058748246,-34,-7,43,11,6,8,23,26
1523055058748246,64,6,0,1,-3,-17,-13,-9
1523055058756268,-75,-18,-6,1,0,5,7,-21
1523055058756268,22,9,-3,8,2,-29,-26,-42
1523055058771308,13,34,56,14,5,15,21,-1
1523055058771308,5,-13,-26,-1,-6,-13,-3,7
1523055058772343,13,-25,-39,-14,-7,-15,-23,-12
1523055058772343,-12,16,21,2,-4,2,-16,-20
1523055058794421,-26,-8,-8,10,0,-7,-4,-18
1523055058794421,-11,10,40,-4,21,26,21,-9
1523055058795371,36,-13,-29,15,-8,-16,0,-2
1523055058795371,-23,5,6,6,-22,-35,-11,-23
1523055058808430,-5,-4,-4,-25,11,10,10,-5
1523055058808430,26,15,26,1,-3,-8,9,13
1523055058816480,8,-30,-24,8,10,13,3,-9
1523055058816480,-20,2,21,-9,-15,-3,-53,-32
1523055058831467,-9,0,16,6,-5,-9,15,-2
1523055058831467,9,13,30,9,-2,-9,24,21
1523055058831969,9,34,42,-9,0,-13,-8,-16
1523055058831969,-19,-21,-34,-2,-3,10,-2,-7
1523055058854528,15,9,0,8,-4,-16,-13,-11
1523055058854528,-12,-25,-56,-13,-1,6,8,6
1523055058855532,-1,-40,22,9,16,0,21,2
1523055058855532,0,-15,5,8,9,8,-34,-10
1523055058868097,-7,8,-15,-11,-5,6,1,16
1523055058868097,9,-1,8,6,-7,-11,4,-4
1523055058876621,-4,14,-14,7,11,19,-7,8
1523055058876621,0,39,2,-21,-7,2,8,-6
1523055058891628,-19,-46,-36,-2,1,-1,-11,-16
1523055058891628,10,23,0,-5,-15,-19,-5,-5
1523055058892129,11,8,15,-5,-3,12,-10,0
1523055058892129,-5,15,32,7,13,6,1,-17
1523055058914687,-16,-66,-28,-12,-15,-4,-5,15
1523055058914687,8,2,-5,-3,-9,-1,-17,7
1523055058915189,29,36,13,11,10,6,-3,20
1523055058915189,-24,-11,-35,-16,-9,-2,17,-19
1523055058937248,7,4,12,1,1,35,2,28
1523055058937248,-9,-29,-24,5,4,-16,-6,-8
1523055058937752,9,3,-27,-6,-7,-5,-8,-2
1523055058937752,-3,14,49,12,5,-7,2,-7
1523055058951286,0,10,16,-3,-1,1,-10,-2
1523055058951286,2,35,-48,-19,-6,-9,11,5
1523055058952344,-7,-2,-23,5,-4,0,0,-9
1523055058952344,8,27,21,-3,6,5,-5,10
1523055058974849,-8,-15,-29,1,-2,-14,3,-26
1523055058974849,10,14,55,13,5,7,4,11
1523055058975350,-10,-38,-23,-9,-7,-31,-2,-12
1523055058975350,1,-17,-27,17,3,4,6,8
1523055058996908,6,-10,54,-12,-8,-32,-12,-21
1523055058996908,-1,-61,-24,15,16,19,13,15
1523055058997911,1,35,30,-10,-10,-3,-24,4
1523055058997911,0,-61,-97,-3,-5,2,10,0
1523055059011500,-14,15,12,9,23,13,-1,-11
1523055059011500,-4,0,-5,-5,-4,-2,-8,-4
1523055059012447,2,-15,9,-5,0,5,11,-8
1523055059012447,0,12,21,-6,-6,-11,-3,-1
1523055059034508,-5,16,1,3,-16,-7,-20,-4
1523055059034508,-7,-39,-63,-26,13,-2,11,-22
1523055059035511,8,11,15,-7,-12,-4,-11,-21
1523055059035511,-8,-41,-68,-7,7,1,-3,-16
1523055059057120,-9,7,-9,4,0,4,9,-7
1523055059057120,15,6,29,4,-5,7,-10,-1
1523055059058124,-15,13,18,14,13,15,4,3
1523055059058124,0,-8,20,-5,-5,0,-8,-3
1523055059071606,-16,-11,-58,-6,-7,0,8,4
1523055059071606,-13,-17,33,12,1,8,-9,0
1523055059072107,-14,-17,-28,-27,-20,-16,2,-22
1523055059072107,8,9,28,18,3,8,-2,21
1523055059094721,25,30,41,-8,15,5,11,2
1523055059094721,-7,8,-29,10,-3,-9,-4,-4
1523055059095171,-1,-21,-60,-25,-20,-24,-5,2
1523055059095171,6,-20,50,-17,-19,-20,7,-11
1523055059117262,0,76,106,52,19,15,-6,4
1523055059117262,-11,-48,-54,-41,1,0,5,-18
1523055059117729,36,22,41,7,-3,-8,48,18
1523055059117729,-68,-14,-25,-3,-6,0,4,-11
1523055059131265,2,-6,9,-11,-20,-20,8,-22
1523055059131265,-8,29,-8,10,-12,-20,-12,-4
1523055059132266,12,-11,4,-3,24,14,-9,7
1523055059132266,10,14,-25,5,7,4,3,-7
1523055059154326,6,17,8,0,-3,-8,3,9
1523055059154326,0,56,32,6,-6,3,-5,17
1523055059156368,-3,45,33,8,-11,-11,-16,-1
1523055059156368,-19,-59,-87,-40,5,8,-3,1
1523055059176885,-11,-55,-73,-16,4,32,-8,29
1523055059176885,15,13,45,7,1,4,-14,-59
1523055059178944,18,-5,13,4,0,-9,2,11
1523055059178944,11,40,51,9,5,27,13,18
1523055059190922,7,9,24,-1,-9,-21,-14,-17
1523055059190922,-31,-62,-61,-24,-6,-5,-19,-2
1523055059199946,1,2,3,19,10,-1,14,-1
1523055059199946,-7,12,12,6,6,12,62,2
1523055059215488,-24,-30,-30,-5,-4,-6,-60,-70
1523055059215488,30,8,15,-2,-4,-16,9,107
1523055059216992,-6,31,7,-6,-4,12,9,-6
1523055059216992,17,2,-10,3,1,-8,-29,0
1523055059237105,-57,7,-11,-2,-8,-9,-8,-25
1523055059237105,15,-6,14,1,-2,-11,35,63
1523055059238551,26,-30,-21,-4,-1,2,9,-12
1523055059238551,33,33,35,10,11,9,-84,-41
1523055059250581,-2,-2,-17,-2,2,-31,33,103
1523055059250581,-81,40,24,12,1,1,15,-55
1523055059259606,-16,11,9,-2,9,48,20,64
1523055059259606,40,-21,10,4,1,-5,-73,75
1523055059274647,58,-8,-21,-3,1,33,35,-30
1523055059274647,-8,-21,-2,-10,-7,-83,-50,-86
1523055059276151,6,1,-6,-5,2,45,-80,66
1523055059276151,-76,-4,15,5,-11,-94,61,43
1523055059297239,56,-13,-24,-11,-10,-23,61,39
1523055059297239,-11,14,18,10,9,76,-12,11
1523055059298744,-48,11,3,-1,-4,-27,-61,-30
1523055059298744,-5,-4,-12,-19,-20,6,6,-49
1523055059310742,-75,-59,-17,-6,-2,21,-25,-28
1523055059310742,43,30,22,24,30,21,29,2
1523055059319767,28,-22,8,12,-8,-4,11,-17
1523055059319767,11,35,10,-18,21,12,32,-5
1523055059334806,17,41,-4,12,-6,-18,-2,-10
1523055059334806,20,-43,7,-10,-19,3,-20,-3
1523055059336309,-16,-29,-7,-8,-5,-5,22,-9
1523055059336309,-32,-68,-62,2,-12,3,-15,-29
1523055059356864,10,10,5,-14,3,2,-22,0
1523055059356864,0,4,2,-6,1,2,0,13
1523055059358924,-15,10,18,18,-2,-12,-21,-20
1523055059358924,12,35,34,-6,-8,-16,13,-6
1523055059370902,4,-22,-73,-20,-9,-3,-20,-5
1523055059370902,-16,-28,-29,15,6,11,19,-5
1523055059379925,3,1,-10,11,12,-27,5,-13
1523055059379925,18,7,0,-2,8,26,-11,-4
1523055059394465,1,11,38,21,1,-2,-13,4
1523055059394465,-5,0,-11,-26,2,3,-25,-1
1523055059395971,-12,-17,-27,-25,-30,-38,29,-23
1523055059395971,9,34,37,18,5,11,-9,8
1523055059417024,-2,-1,33,5,0,-13,-8,-2
1523055059417024,-15,-16,-32,-19,-20,-34,15,-8
1523055059418528,6,2,0,8,9,16,-3,-4
1523055059418528,-4,-8,-18,3,-3,4,2,-7
1523055059430560,3,13,-10,5,6,-6,18,2
1523055059430560,14,20,1,6,-9,-10,-15,5
1523055059439584,0,8,-2,-5,9,4,7,-2
1523055059439584,3,16,22,-25,-5,7,-1,0
1523055059454627,-6,-33,-18,32,13,24,-9,-1
1523055059454627,7,18,-27,-3,1,4,9,5
1523055059456131,-8,48,40,4,-6,-5,4,-3
1523055059456131,-2,-6,5,8,-7,-10,5,-6
1523055059477221,-1,2,23,-31,-7,5,-11,-3
1523055059477221,3,10,23,-1,-11,1,13,4
1523055059478726,1,-18,-20,-4,16,7,3,-3
1523055059478726,7,0,21,10,-2,8,-15,1
1523055059490720,-2,-9,-28,-14,12,7,53,-4
1523055059490720,-17,-17,22,12,-6,-3,-8,-2
1523055059499745,10,-4,-9,-8,-9,-1,-23,-3
1523055059499745,2,-3,-17,4,2,1,-3,0
1523055059514784,5,35,32,6,-10,-22,-12,4
1523055059514784,26,11,51,-2,10,6,6,1
1523055059516327,-37,32,22,17,8,4,11,-7
1523055059516327,7,-3,1,-7,-4,-8,-19,-9
1523055059536844,-1,-9,12,-4,-6,-2,-9,-2
1523055059536844,4,5,-15,-27,-11,-13,-4,0
1523055059538849,6,-8,25,16,16,19,-5,1
1523055059538849,5,0,7,10,1,-8,1,3
1523055059550882,-11,-6,2,3,-4,-2,-7,-2
1523055059550882,-2,-6,-8,3,0,1,3,0
1523055059559947,12,1,11,-12,-9,-6,-10,2
1523055059559947,-15,-30,-41,-10,-4,-6,26,-4
1523055059574488,-6,-21,-9,12,12,27,-6,-4
1523055059574488,-8,-20,-6,13,12,22,-8,-4
1523055059575993,7,9,3,-21,-4,-9,4,5
1523055059575993,13,-6,-15,3,-1,7,-7,2
1523055059597102,-9,0,-12,-20,-18,-5,-3,0
1523055059597102,-20,-8,17,6,-15,-22,-4,-8
1523055059598553,0,8,-39,28,19,13,4,-5
1523055059598553,1,-7,-17,-23,11,3,-16,-2
1523055059610585,27,9,-4,-8,0,10,4,1
1523055059610585,-35,2,53,8,2,5,0,1
1523055059619611,11,-26,-85,-20,-16,-15,6,-4
1523055059619611,-10,13,19,13,4,15,-10,-3
1523055059634682,-8,28,28,1,-2,-14,7,-8
1523055059634682,6,-5,-11,-2,1,5,-4,17
1523055059636153,-23,-11,15,-3,-3,3,-4,-4
1523055059636153,4,8,-12,2,-4,-7,-4,3
1523055059657209,10,-26,5,2,1,-4,-2,-6
1523055059657209,29,10,3,4,1,1,14,6
1523055059658712,-29,-15,1,-13,-7,-3,2,-5
1523055059658712,-1,-9,5,-14,-22,-13,1,3
1523055059670746,3,61,17,22,34,30,-4,3
1523055059670746,16,-9,-15,2,1,-3,-7,-6
1523055059679768,15,-3,1,-4,-6,2,-2,-9
1523055059679768,-14,4,9,2,-1,-2,9,-5
1523055059694808,-4,-3,-7,-4,-13,-15,-7,5
1523055059694808,-2,9,-10,-1,1,3,-3,-3
1523055059696313,7,2,-3,-10,-3,1,3,10
1523055059696313,1,-3,32,9,-1,-8,-1,4
1523055059716867,-5,-1,-20,-9,-3,-3,-4,-23
1523055059716867,36,7,-4,-5,-1,-5,-28,-51
1523055059718926,-52,-10,7,6,-3,-9,8,-11
1523055059718926,38,12,-5,-1,2,3,7,14
1523055059730904,32,-33,-20,-9,-7,13,-16,-9
1523055059730904,-31,35,5,5,5,-4,-1,13
1523055059739928,16,-21,-1,-6,-8,-12,13,-28
1523055059739928,31,-28,-17,-3,0,4,-8,16
1523055059753967,-14,-19,-3,0,4,-4,-45,-28
1523055059753967,38,14,-7,8,-2,13,69,49
1523055059760484,-5,-37,6,-19,3,7,-12,94
1523055059760484,-23,17,5,9,11,46,-79,-30
1523055059777028,-64,-29,-10,-7,-15,-84,94,-75
1523055059777028,33,-3,-9,20,11,33,-3,-11
1523055059778532,-31,13,17,3,-2,-30,-35,-17
1523055059778532,15,-20,-7,-2,-3,24,4,41
1523055059790566,-39,-7,-12,-14,-16,-78,-25,-27
1523055059790566,-31,7,2,2,2,12,1,-6
1523055059799587,28,25,-1,2,1,2,35,40
1523055059799587,20,19,10,4,4,-5,42,-16
1523055059813123,49,3,-3,-1,-5,18,15,60
1523055059813123,-101,-39,-14,-11,-6,-19,-39,-21
1523055059822148,38,3,1,-5,-6,-9,-20,4
1523055059822148,-30,-1,-2,4,7,-8,-3,-26
1523055059837188,21,-2,-10,8,9,56,41,58
1523055059837188,10,-12,-12,-13,-8,-5,22,-12
1523055059838692,12,14,1,-8,-10,17,-48,-32
1523055059838692,-33,37,18,16,10,-23,31,-3
1523055059859747,8,39,25,14,22,38,0,12
1523055059859747,19,-31,-25,-14,-5,12,-11,2
1523055059861252,-16,10,43,0,-11,-22,7,-27
1523055059861252,-5,-47,-92,-12,-6,-6,11,1
1523055059873786,1,-9,-16,-11,-14,-4,-31,13
1523055059873786,5,26,26,13,12,-3,12,-2
1523055059880805,14,22,69,12,0,3,-4,1
1523055059880805,-15,-39,-19,-20,-16,-27,-35,-13
1523055059896900,-6,-7,-5,-5,0,15,5,2
1523055059896900,-1,-1,-15,11,10,-4,-10,13
1523055059898905,13,23,12,-1,2,2,49,-2
1523055059898905,-4,-6,7,16,1,-3,-31,-18
1523055059919406,-13,8,4,-4,-20,-20,-13,-2
1523055059919406,6,-27,10,-16,4,-12,-2,1
1523055059921415,-1,-28,-40,3,5,6,-2,-3
1523055059921415,2,47,61,5,-6,-22,7,1
1523055059934447,-9,-49,-38,-6,-12,-5,-14,-1
1523055059934447,6,21,30,-16,-16,-20,-3,-2
1523055059935951,1,8,-49,23,31,32,-3,-9
1523055059935951,-11,-10,0,1,-5,-5,2,3
1523055059957006,10,47,51,2,-7,-14,-2,5
1523055059957006,2,1,32,23,14,17,0,-1
1523055059958512,-8,-21,-12,-5,-15,-25,-20,-8
1523055059958512,9,34,17,-10,-11,2,12,0
1523055059979567,-10,-28,-14,-5,14,13,-17,1
1523055059979567,3,-21,-70,-19,-17,-7,3,-5
1523055059981071,1,-17,-10,-11,-6,-6,-3,-1
1523055059981071,-4,33,21,4,-5,3,5,1
1523055059994104,3,-28,-42,-3,10,5,-12,-2
1523055059994104,-5,13,31,-6,-10,6,-7,5
1523055060000623,1,-26,-10,20,19,0,3,-6
1523055060000623,-16,-63,-48,-23,-6,-10,-1,-3
1523055060017166,-1,33,88,14,0,4,-1,1
1523055060017166,2,-9,-8,-2,-5,-11,5,2
1523055060018670,-2,10,-36,-17,-4,19,8,0
1523055060018670,-1,58,121,22,17,22,8,1
1523055060039780,-10,-90,-110,-19,-6,-14,-7,-7
1523055060039780,-19,13,28,4,2,5,-8,-5
1523055060041232,10,-4,12,-3,-6,-2,-7,1
1523055060041232,4,-8,-22,-3,1,-3,5,3
1523055060053764,0,36,43,6,0,-1,-15,2
1523055060053764,10,3,-13,-2,-1,7,30,2
1523055060060782,-10,-5,1,-6,-8,-15,0,1
1523055060060782,-4,-50,-84,-8,12,19,-6,-7
1523055060077327,5,21,31,4,1,4,13,4
1523055060077327,1,-6,-39,2,4,9,-7,-1
1523055060078831,-7,-15,0,4,5,7,7,-16
1523055060078831,3,14,20,3,4,0,7,-16
1523055060099441,3,-4,-6,-1,3,18,4,9
1523055060099441,-3,-15,-41,-1,0,-3,-7,0
1523055060101390,6,33,45,-2,-8,-9,13,-2
1523055060101390,-2,-5,-7,-4,-7,-8,-4,2
1523055060113925,0,15,7,8,6,1,-2,0
1523055060113925,13,-32,29,-3,-6,-7,-1,-1
1523055060120943,-14,-3,14,-7,-6,-5,-4,4
1523055060120943,4,-16,-16,-3,-5,2,-22,2
1523055060136986,-2,-6,-2,-3,-3,-9,27,7
1523055060136986,2,23,23,14,21,11,-5,1
1523055060138490,13,-9,-5,-3,-4,1,-29,-1
1523055060138490,20,4,-6,-6,-4,-9,5,5
1523055060159546,-68,3,10,-2,-5,-6,-9,-16
1523055060159546,4,4,-6,-1,-5,-10,-6,-1
1523055060161049,3,-5,-26,-7,4,2,-8,0
1523055060161049,5,11,21,0,1,2,9,3
1523055060174084,7,-10,-30,-1,-7,-3,-10,1
1523055060174084,-4,-1,-11,-3,4,-11,-10,-6
1523055060180601,-10,-6,0,0,-5,4,6,-4
1523055060180601,1,2,0,-2,-3,-8,-12,3
1523055060197145,34,13,11,5,5,8,26,7
1523055060197145,-39,2,-4,-6,-4,-1,1,-3
1523055060198649,32,-22,-7,-4,-7,4,-19,14
1523055060198649,-19,-23,-6,-1,-2,-15,20,-29
1523055060219706,-9,-17,-10,-4,-6,-7,-60,-40
1523055060219706,1,4,0,-1,-2,4,8,1
1523055060221210,-8,2,3,-1,2,-7,0,-38
1523055060221210,4,17,17,9,2,4,-14,14
1523055060233242,43,0,-8,-3,6,11,17,38
1523055060233242,-12,33,24,-5,-9,-9,-21,-60
1523055060242265,-60,-26,-12,-7,-2,1,16,14
1523055060242265,-24,8,-9,0,4,16,-6,-56
1523055060256804,23,12,6,2,2,-17,-8,-7
1523055060256804,46,23,4,6,1,0,-21,28
1523055060258810,-6,16,-18,-8,-7,-13,9,76
1523055060258810,-68,-33,-11,-1,1,33,34,29
1523055060279364,-32,-15,1,-7,-8,7,-24,14
1523055060279364,5,16,15,8,4,-4,-65,12
1523055060281369,24,16,0,5,2,-18,32,14
1523055060281369,7,-7,-4,-4,-3,-1,-20,25
1523055060293400,43,21,3,2,1,1,24,-21
1523055060293400,-19,-13,-1,-1,-4,1,14,18
1523055060302425,23,-7,-9,-1,-1,4,-5,-8
1523055060302425,19,48,14,1,-3,-9,-10,8
1523055060316964,-25,-17,6,0,0,3,6,2
1523055060316964,-1,-8,-21,-10,-1,-6,16,-12
1523055060318468,26,-11,-10,-6,-9,4,-7,4
1523055060318468,-2,1,3,1,-2,-10,44,-7
1523055060339524,1,56,72,13,7,14,-66,-4
1523055060339524,-15,-69,-54,-12,-13,-10,12,-16
1523055060341029,-11,12,1,0,-6,-3,-19,-19
1523055060341029,31,20,32,13,16,12,27,26
1523055060353059,-6,11,24,7,4,2,28,12
1523055060353059,-8,-18,1,-8,-9,-10,-29,-22
1523055060362084,-1,14,27,0,-5,-20,33,6
1523055060362084,3,-17,-12,-5,-9,-13,-10,8
1523055060377124,-2,-4,-12,4,11,-2,-18,-29
1523055060377124,4,14,18,-7,5,4,83,12
1523055060378628,-15,-9,-11,2,2,19,-12,-23
1523055060378628,1,-3,3,-3,-7,-8,16,-1
1523055060399684,-3,-6,-17,-4,-7,-15,25,0
1523055060399684,7,18,5,0,-3,1,-33,-7
1523055060401189,-20,-47,-6,-2,2,4,-18,-10
1523055060401189,10,24,21,0,1,10,10,9
1523055060413220,-7,-24,-53,-10,-6,-6,-1,4
1523055060413220,-4,49,37,12,6,6,5,-4
1523055060422245,-2,5,23,2,0,-1,7,-35
1523055060422245,5,-22,-18,-7,-4,-10,-33,-10
1523055060437283,-24,18,-12,-5,-2,1,16,-39
1523055060437283,5,-52,1,-4,-8,-14,9,8
1523055060438789,6,14,4,4,6,7,-12,0
1523055060438789,-9,-6,-27,1,4,-7,-8,2
1523055060459343,8,6,4,-5,-7,4,0,-10
1523055060459343,6,0,-9,2,0,-15,48,31
1523055060461348,-4,3,-5,-1,0,-2,-11,-7
1523055060461348,0,-22,-10,-5,-6,-12,-24,-7
1523055060473380,8,8,28,5,1,3,11,21
1523055060473380,-38,-18,-71,-10,-3,6,-38,-15
1523055060482404,23,6,-9,2,-2,-5,14,3
1523055060482404,-6,-6,2,-5,0,-3,-3,-6
1523055060496943,-20,-11,1,-4,-8,-7,0,11
1523055060496943,1,-7,2,0,5,3,-4,-2
1523055060498948,-2,25,5,1,-1,0,-3,-3
1523055060498948,8,-4,-6,3,4,6,15,-1
1523055060519503,10,1,4,-1,-2,0,-28,3
1523055060519503,7,4,36,-2,-5,0,1,7
1523055060521007,-9,-22,-65,-10,-5,-1,-7,-3
1523055060521007,-2,9,22,-1,-5,-4,2,1
1523055060533038,15,-13,-21,3,7,5,-4,2
1523055060533038,-5,4,7,-1,-1,-9,-12,-12
1523055060542064,12,18,21,-1,-3,3,27,5
1523055060542064,-20,9,15,-6,-8,-7,-32,-1
1523055060557157,28,-26,-26,-4,2,4,-11,-5
1523055060557157,-17,-20,-34,0,7,12,2,1
1523055060558608,-48,-34,-7,-7,-5,-7,-9,-19
1523055060558608,14,-10,-15,-6,-8,-13,-17,17
1523055060579664,-7,10,13,-2,-3,5,27,-3
1523055060579664,38,24,18,6,2,4,3,13
1523055060581168,-20,2,7,5,5,2,10,5
1523055060581168,5,-14,-44,-7,-2,4,-14,-9
1523055060593199,-7,-5,-4,-9,-12,-19,-6,7
1523055060593199,16,48,43,16,6,13,15,11
1523055060602224,-2,-27,-13,-6,-1,-4,-14,-2
1523055060602224,-3,5,22,6,4,7,2,-5
1523055060617262,-2,-13,-19,-3,-3,-4,12,6
1523055060617262,3,6,14,-5,-9,-14,-15,-8
1523055060618767,2,1,-13,3,1,4,-10,-3
1523055060618767,4,2,0,3,4,-1,-7,4
1523055060639822,-2,12,25,4,2,4,15,-2
1523055060639822,-13,-16,-19,-2,-3,-11,14,6
1523055060641328,10,8,13,-4,-4,-8,-2,3
1523055060641328,-3,11,31,9,3,-1,13,-6
1523055060653393,-14,-17,-51,1,10,4,-4,1
1523055060653393,1,-4,10,-1,-1,-1,-9,-6
1523055060662417,13,7,0,1,-1,7,4,5
1523055060662417,-5,7,10,-2,-2,1,26,0
1523055060676923,-5,25,53,4,0,-1,-6,-2
1523055060676923,-2,6,15,-3,-3,1,-4,-4
1523055060678926,-11,-49,-75,-14,2,-6,-7,-6
1523055060678926,-4,-5,-19,-1,0,7,-8,-6
1523055060699482,5,15,36,2,0,-2,5,5
1523055060699482,4,-26,-29,-13,-7,-5,-10,-2
1523055060700987,25,-19,2,-1,-3,-2,-6,0
1523055060700987,-3,6,-4,-6,-4,-5,2,-5
1523055060713017,-6,-18,-30,-6,-2,0,-20,-1
1523055060713017,1,13,13,1,0,-4,-3,0
1523055060722042,9,29,59,11,5,13,-17,-1
1523055060722042,-4,-34,-53,-6,-3,10,56,-4
1523055060736580,0,-10,4,-5,-3,-30,-49,-1
1523055060736580,7,-21,-43,-1,5,16,11,7
1523055060743099,-19,30,45,9,3,4,4,-16
1523055060743099,3,-16,-34,-5,-7,-12,44,-30
1523055060759643,-2,0,-5,2,-1,8,-5,-4
1523055060759643,0,-19,-10,-12,-4,7,-40,-44
1523055060761146,-17,-5,5,5,10,28,31,47
1523055060761146,-36,42,24,6,-2,4,-43,-34
1523055060782234,-61,1,2,6,-3,-27,-58,-20
1523055060782234,-21,-11,-11,-12,-3,25,57,34
1523055060783739,23,4,5,4,0,-7,47,-52
1523055060783739,16,52,27,4,6,10,-13,-7
1523055060796276,70,25,-12,5,4,0,17,34
1523055060796276,-84,20,39,7,5,-64,-9,-4
1523055060803260,-64,-11,-12,-12,-11,-16,-52,-29
1523055060803260,23,-18,2,2,3,-20,-42,-64
1523055060819804,29,-1,-14,1,-10,-31,68,14
1523055060819804,-3,9,-9,-3,1,51,20,12
1523055060821308,26,-7,-2,-1,-3,-29,5,-22
1523055060821308,-33,-14,6,4,5,1,-54,11
1523055060841860,31,-2,-2,-5,0,31,6,31
1523055060841860,19,1,-6,2,-1,-5,-22,-57
1523055060843866,-9,8,2,4,0,-10,-17,3
1523055060843866,17,-16,-9,-9,-2,27,17,30
1523055060856453,-2,3,8,-2,2,12,11,8
1523055060856453,9,-8,-35,5,-1,-16,-18,32
1523055060863417,-13,0,-7,-6,-5,4,-12,9
1523055060863417,22,0,4,-1,-2,-27,5,17
1523055060879460,-9,-19,-9,-7,-2,2,32,6
1523055060879460,-22,-4,12,4,-4,-3,10,-26
1523055060880967,32,10,2,-6,-6,-10,-31,7
1523055060880967,-23,-12,1,4,10,9,3,14
1523055060902021,-19,4,2,-3,-4,-3,6,-22
1523055060902021,26,-2,15,3,1,10,-22,13
1523055060903527,16,16,17,0,-5,6,11,20
1523055060903527,-5,-20,-14,-3,-2,2,25,23
1523055060916559,-15,9,11,2,2,4,-22,-11
1523055060916559,18,5,9,3,4,-9,-2,3
1523055060923078,-8,-16,-30,-6,-4,4,-17,6
1523055060923078,2,17,20,0,-2,-10,-6,2
1523055060939677,-7,-6,4,1,1,13,-9,-12
1523055060939677,15,-4,-26,-7,1,7,2,8
1523055060941126,-3,-6,27,7,3,-4,5,4
1523055060941126,-2,-9,-26,-14,-8,-3,-11,2
1523055060962182,-9,-33,-51,-10,-7,4,-12,-6
1523055060962182,5,13,28,8,1,-14,65,27
1523055060963686,-2,7,-3,-3,3,7,-3,2
1523055060963686,4,2,4,-3,-6,4,-23,5
1523055060976255,-10,-8,-5,-6,-4,-7,21,-4
1523055060976255,-1,1,6,3,1,-29,-33,-5
1523055060983290,3,-1,-16,0,1,18,6,6
1523055060983290,4,-7,6,4,1,-7,11,4
1523055060999780,-7,-8,-2,-2,0,12,-19,-5
1523055060999780,0,-9,-19,0,-4,9,-19,-10
1523055061001285,0,-2,-2,-2,0,-5,6,3
1523055061001285,1,-14,-33,-6,-4,0,-1,15
1523055061022343,16,72,91,17,7,6,8,7
1523055061022343,-14,-34,-25,-9,-7,-8,-25,-14
1523055061023846,3,21,-8,-1,1,4,13,-2
1523055061023846,0,2,20,2,-4,-6,-8,-3
1523055061036380,-2,2,-2,2,3,-2,10,-3
1523055061036380,9,5,17,-2,-3,-11,4,7
1523055061043396,3,8,1,4,3,-1,-7,0
1523055061043396,-3,-4,3,-1,1,-5,0,1
1523055061059439,-11,-20,-18,-4,4,10,-3,-7
1523055061059439,6,29,10,1,0,10,-3,-1
1523055061061445,-4,-28,-8,-3,-3,-6,-8,3
1523055061061445,6,3,0,-1,-5,-2,6,6
1523055061082058,5,-11,-12,-6,-5,-8,1,-9
1523055061082058,-9,-4,-14,-5,-3,6,4,4
1523055061083505,-5,9,13,2,0,0,2,-2
1523055061083505,5,-8,3,0,2,9,1,-2
1523055061095535,-16,-8,-14,0,0,-9,-13,-4
1523055061095535,4,-5,5,-1,-3,1,-3,-2
1523055061104560,0,-1,-1,-4,-3,-3,8,3
1523055061104560,4,2,2,3,1,-3,-7,-2
1523055061119600,-2,-8,-12,-4,1,-1,0,-4
1523055061119600,3,0,-4,1,1,4,3,0
1523055061121107,5,9,9,3,2,-3,-5,0
1523055061121107,-3,-5,-9,-7,-4,-2,1,-5
1523055061142203,-3,-4,-3,-6,-6,-4,-2,-2
1523055061142203,-2,-6,4,5,5,4,3,0
1523055061143718,-4,-2,-3,-1,-3,0,-1,0
1523055061143718,3,-4,-5,-3,-1,-1,-1,-1
1523055061155695,-3,2,6,1,0,1,2,1
1523055061155695,6,6,1,-3,-2,0,-6,0
1523055061164721,3,-3,-3,-2,-2,-1,1,-2
1523055061164721,-7,1,2,1,2,1,0,-3
1523055061179759,-9,-13,-8,-2,-4,-3,-3,-2
1523055061179759,2,0,-1,-2,-4,-2,0,1
1523055061181264,2,3,2,0,1,-1,-1,-1
1523055061181264,-3,1,4,0,0,0,6,-1
1523055061201820,-1,-2,-3,-4,-2,-2,-2,-2
1523055061201820,0,-5,-12,-3,-1,0,1,-3
1523055061203878,-2,-3,1,0,0,0,0,0
1523055061203878,-2,2,2,-1,0,1,0,0
1523055061217359,4,-2,-3,2,0,0,-5,0
1523055061217359,-1,0,5,1,0,-9,-15,-1
1523055061224879,-5,-5,-6,-4,-2,14,62,3
1523055061224879,-2,-1,-6,-1,0,4,-45,-6
1523055061239420,5,3,0,-1,-2,-2,42,34
1523055061239420,2,1,3,2,2,3,11,2
1523055061241423,4,3,3,5,2,-1,-8,34
1523055061241423,4,-2,0,-1,-2,-7,-8,18
1523055061261978,25,1,0,2,0,7,18,6
1523055061261978,14,-6,-9,-14,-11,26,45,-40
1523055061263482,-2,0,0,-2,-2,-16,5,-20
1523055061263482,-34,-15,-9,-6,-5,-3,32,-11
1523055061275516,-30,-11,2,3,1,-46,-95,-63
1523055061275516,70,24,18,20,19,5,60,120
1523055061284540,-42,-13,-9,-6,-3,30,16,-42
1523055061284540,-13,12,9,3,1,13,5,-32
1523055061299578,23,4,-7,-6,-9,-11,-10,6
1523055061299578,-42,-8,-6,-14,-10,-13,-42,-34
1523055061301082,49,16,7,9,6,5,-30,31
1523055061301082,-42,-13,-1,3,4,8,-71,-71
1523055061322138,-3,-10,-7,-6,4,65,18,25
1523055061322138,-9,2,5,4,0,-30,-8,-19
1523055061328154,26,-1,-7,-5,-6,-16,-12,19
1523055061328154,19,6,-3,-4,-2,10,32,35
1523055061335676,29,4,5,3,4,10,23,13
1523055061335676,-30,-8,-7,-7,-7,7,-65,-57
1523055061344700,-52,-16,-2,-1,-3,-30,-72,-25
1523055061344700,-6,-7,0,1,0,-14,16,10
1523055061359738,-1,6,0,-2,-2,-14,18,12
1523055061359738,16,2,8,-1,0,6,18,17
1523055061361243,-2,3,-13,-5,-5,-3,14,0
1523055061361243,15,-3,-3,2,1,-8,1,7
1523055061382300,3,39,73,10,2,5,12,4
1523055061382300,-30,-80,-103,-26,-10,-1,-19,-15
1523055061383836,2,14,39,5,-4,-3,-10,-5
1523055061383836,11,3,17,-6,0,-3,11,19
1523055061395871,-7,10,35,2,-1,-1,3,-12
1523055061395871,8,43,41,11,3,-4,10,13
1523055061404860,-10,-54,-83,-12,-9,-9,13,13
1523055061404860,12,0,-9,13,18,19,1,-6
1523055061419397,-17,-2,0,5,3,7,-62,-40
1523055061419397,-1,13,12,-3,-7,-18,1,1
1523055061421403,7,8,5,-2,-1,-4,7,4
1523055061421403,10,16,5,5,-3,-18,11,19
1523055061442014,-8,-19,-19,-3,0,7,47,9
1523055061442014,-3,2,4,3,4,7,-10,-6
1523055061443463,-1,-8,5,-5,-2,17,2,-5
1523055061443463,7,18,52,2,-1,-4,8,7
1523055061455495,-20,-60,-74,-17,-5,-14,-18,-9
1523055061455495,-4,-1,-3,1,-3,1,4,1
1523055061464517,4,14,25,6,4,2,15,0
1523055061464517,3,2,-22,-6,-8,-2,-9,-2
1523055061479557,-5,-28,-31,-9,-13,-9,-7,-1
1523055061479557,9,55,72,15,14,10,12,8
1523055061481063,-14,-51,-52,-9,6,3,-13,-8
1523055061481063,2,-5,-13,-2,-2,-6,-39,-3
1523055061502117,5,17,14,-3,-4,10,33,8
1523055061502117,-4,-10,-7,1,-3,-2,-6,-4
1523055061503623,-2,20,31,6,4,-9,-14,0
1523055061503623,8,2,-11,-6,-4,-6,1,0
1523055061515707,-10,0,-1,5,1,-3,-21,-4
1523055061515707,5,-3,8,-3,-5,-2,-3,0
1523055061524677,3,11,9,2,1,1,-13,-3
1523055061524677,-5,-8,-7,-8,-10,-7,14,0
1523055061539717,4,11,8,1,1,-4,-4,1
1523055061539717,-1,8,34,4,4,5,7,1
1523055061541225,-8,-39,-88,-13,-5,1,4,-4
1523055061541225,-5,-6,-13,-3,-5,-6,-4,-2
1523055061562277,1,-3,-17,-2,-1,-8,2,-3
1523055061562277,-7,-17,-12,-4,-7,-9,-14,-2
1523055061563816,9,29,35,5,4,4,7,1
1523055061563816,-2,5,12,-3,-4,1,7,1
1523055061575850,-5,-8,-18,-5,-4,-10,-10,-1
1523055061575850,-2,-7,-9,0,0,1,1,0
1523055061584839,1,7,15,1,-2,-1,2,-2
1523055061584839,-12,-10,-8,-1,-2,0,4,-3
1523055061599376,14,16,5,2,5,-6,-2,4
1523055061599376,4,0,17,14,9,6,2,1
1523055061601382,-20,-3,18,-2,-4,-4,0,-5
1523055061601382,14,0,6,0,-1,-1,-10,-2
1523055061621973,-16,1,10,-5,-8,1,23,3
1523055061621973,-2,2,-10,15,-5,11,1,-1
1523055061623941,17,19,19,-15,11,-4,-6,3
1523055061623941,-7,-7,-15,3,1,19,24,-1
1523055061635473,2,7,8,3,-2,-9,-18,-4
1523055061635473,0,-11,-17,-14,-5,-3,8,3
1523055061644497,0,4,19,9,-8,-4,4,-1
1523055061644497,-1,-4,-5,-2,0,-2,-9,1
1523055061659035,9,7,8,-6,1,-2,-9,0
1523055061659035,-10,-24,-14,-4,-5,-6,-5,-2
1523055061665552,1,6,-6,0,-4,-4,-9,-3
1523055061665552,12,3,12,-3,-1,-5,-1,3
1523055061682153,2,-15,-12,1,-3,0,1,0
1523055061682153,-10,-12,-10,-8,0,-6,-7,-5
1523055061683601,-11,5,3,5,3,4,11,-7
1523055061683601,-6,-17,-2,-4,-3,-2,-16,-3
1523055061695634,21,-8,0,1,-2,-1,-49,2
1523055061695634,-8,-23,-20,-13,-3,5,71,-12
1523055061704658,-1,13,17,6,1,0,0,-1
1523055061704658,-16,1,-3,3,-2,3,13,2
1523055061718694,-19,-14,-8,0,2,-5,-27,-14
1523055061718694,18,6,7,-4,1,0,-24,5
1523055061725712,2,5,1,2,-6,-7,-16,-14
1523055061725712,-22,3,-3,0,-1,-9,3,0
1523055061742281,26,-21,9,7,9,7,-94,-2
1523055061742281,-2,56,10,8,11,28,22,64
1523055061743815,-39,-1,10,4,-1,5,59,-48
1523055061743815,14,-67,-14,2,2,29,-75,-3
1523055061764316,34,20,-2,-2,-2,-54,111,29
1523055061764316,10,10,4,5,-3,-12,-75,-57
1523055061766357,-8,-17,-9,0,-1,15,-49,41
1523055061766357,6,-31,-11,3,3,-50,22,15
1523055061778855,-24,27,4,-11,-7,10,-18,-70
1523055061778855,62,4,-8,-9,-6,-5,-16,52
1523055061785872,-28,2,4,2,1,-17,-25,54
1523055061785872,55,-4,-8,-9,-6,14,-20,-49
1523055061801915,-12,6,1,7,8,18,101,49
1523055061801915,-13,7,2,-1,-9,-12,-4,-85
1523055061803943,28,-17,-10,-14,-7,-3,-29,16
1523055061803943,-13,14,5,3,0,21,39,67
1523055061824477,-30,-21,-6,-5,-8,-2,0,-5
1523055061824477,-16,62,20,2,5,9,-22,12
1523055061825979,-15,6,-2,3,4,-3,-68,-46
1523055061825979,-20,20,12,5,4,11,-6,-4
1523055061839068,-4,6,2,-1,-4,7,-33,-27
1523055061839068,-9,-32,-9,-6,-4,-26,53,9
1523055061845589,6,-7,-13,-1,-4,-2,13,8
1523055061845589,-11,29,14,-1,2,-5,-1,-6
1523055061862075,9,-11,-12,7,5,17,-52,11
1523055061862075,-19,-25,-8,-1,-1,-4,14,2
1523055061863579,17,16,11,-6,-5,-15,27,-19
1523055061863579,15,8,4,-2,-2,2,2,-5
1523055061884640,-6,-8,-24,-1,-4,-8,35,2
1523055061884640,-7,-14,5,-5,-3,-22,3,4
1523055061886140,15,13,-17,-4,-2,12,43,-2
1523055061886140,-5,12,19,3,1,1,29,-2
1523055061899175,-6,-15,10,-1,-5,-10,-26,1
1523055061899175,-10,12,-10,-6,-2,8,-8,-3
1523055061905691,7,-24,8,-6,-9,-7,-39,-9
1523055061905691,0,20,12,15,4,0,4,-3
1523055061922235,-1,16,0,-18,-15,-11,17,6
1523055061922235,5,-8,5,6,5,20,3,5
1523055061923739,7,22,6,-7,7,5,10,2
1523055061923739,-6,-29,-14,19,0,-14,8,3
1523055061944795,5,6,17,1,3,8,3,-4
1523055061944795,-10,-21,-18,-5,-7,-14,-50,-16
1523055061946300,4,8,13,1,-2,-6,37,7
1523055061946300,-4,-6,-10,-10,-2,4,-5,-4
1523055061958833,0,12,-4,-1,-1,-2,9,5
1523055061958833,-9,-7,-1,-2,-4,7,1,-4
1523055061965885,3,-12,-13,7,5,32,-2,-1
1523055061965885,0,10,3,-7,-1,-29,-9,-2
1523055061981948,-2,-19,-9,-3,-1,-8,6,-5
1523055061981948,1,-9,-31,-2,1,1,15,2
1523055061983915,5,11,30,3,-1,1,3,1
1523055061983915,-5,-2,0,-11,-7,-3,-1,-6
1523055062004510,-19,-7,2,-2,3,-3,-6,-9
1523055062004510,4,-2,10,3,1,4,-26,-2
1523055062005959,0,18,3,2,0,-5,29,6
1523055062005959,3,-1,-1,-3,0,7,-24,-9
1523055062018993,2,23,30,4,-1,-7,-3,1
1523055062018993,-15,-16,-30,-11,-7,-3,8,-1
1523055062025564,-1,13,-5,3,2,-3,-4,1
1523055062025564,14,59,43,-4,-4,0,4,4
1523055062042054,-7,-58,-89,-7,3,12,-1,-6
1523055062042054,9,-6,23,2,-3,-3,6,6
1523055062043558,-4,-13,-4,-3,-5,-14,5,-3
1523055062043558,-15,5,1,5,-3,-11,10,-4
1523055062064614,-1,-8,-26,-7,1,3,2,-1
1523055062064614,2,11,17,9,2,-1,-12,0
1523055062066119,4,-33,-38,-3,0,7,9,1
1523055062066119,7,10,34,-5,-4,2,10,3
1523055062079152,-4,-11,-33,-7,-11,-9,-15,-1
1523055062079152,3,-14,-5,2,4,4,-7,-3
1523055062085672,-11,1,15,1,0,9,-4,1
1523055062085672,0,-15,-25,-4,-1,-5,21,-4
1523055062102214,10,31,28,2,-5,-4,-19,0
1523055062102214,3,18,9,2,5,-4,0,-1
1523055062103718,-5,-6,-7,4,-2,-7,-10,-4
1523055062103718,1,3,-7,-12,-5,2,-3,0
1523055062124774,1,-11,17,3,-3,-8,11,4
1523055062124774,1,0,6,-3,8,9,4,-1
1523055062126280,2,-12,-33,-2,-2,-6,-7,-4
1523055062126280,-11,-23,-27,-6,0,-1,-2,-2
1523055062138813,-5,11,22,-8,-9,-5,1,-3
1523055062138813,-2,-8,-10,7,-10,0,-1,0
1523055062145829,6,15,19,13,18,7,6,1
1523055062145829,-10,-9,-11,0,0,5,-8,-6
1523055062161873,1,-6,-11,-5,-3,0,12,3
1523055062161873,-2,-2,-1,-7,-6,-3,-2,0
1523055062163878,0,8,21,2,-1,0,-1,-2
1523055062163878,6,-3,-25,-2,-2,5,-9,-1
1523055062184435,2,14,33,6,8,14,3,4
1523055062184435,3,-9,-15,0,-3,-4,6,3
1523055062186438,-1,-8,-12,-3,-3,-8,-5,-3
1523055062186438,-5,-27,-24,-9,0,0,-29,-7
1523055062199025,1,11,-1,4,1,1,27,4
1523055062199025,1,24,29,3,2,-2,4,19
1523055062205489,-15,2,13,-3,-4,-4,-8,-16
1523055062205489,-25,26,22,5,-2,0,2,4
1523055062222034,1,-43,-68,-5,7,-3,-13,-6
1523055062222034,-14,11,3,1,-1,2,0,-4
1523055062223540,15,3,4,-3,-6,-5,-1,2
1523055062223540,1,-14,-9,-3,-2,-6,-8,1
1523055062244651,-7,14,33,5,1,13,25,7
1523055062244651,2,-7,-16,-6,-4,-6,-13,-24
1523055062246098,20,-45,-27,-4,-1,2,8,79
1523055062246098,7,-1,-4,2,0,11,-69,-34
1523055062258163,-14,62,28,7,7,26,72,55
1523055062258163,-4,-17,-9,-7,-1,3,13,-39
1523055062267154,-18,102,19,15,3,-28,70,24
1523055062267154,25,-27,26,0,3,13,14,-3
1523055062282194,51,-5,-35,-15,-7,39,-39,-29
1523055062282194,-33,-92,-25,-13,-11,-98,12,69
1523055062283698,-1,13,-2,-24,-23,-13,3,-17
1523055062283698,22,-54,-9,23,14,2,2,-7
1523055062304754,-9,56,31,20,14,21,-3,27
1523055062304754,10,-7,-15,10,13,53,58,62
1523055062306294,-80,-85,-12,-30,-21,2,-114,-36
1523055062306294,-69,-5,-8,-4,-3,-18,-8,-57
1523055062318290,94,-102,-12,-1,0,-26,13,58
1523055062318290,19,41,20,12,7,18,-81,-37
1523055062327313,26,-67,-74,-4,4,-4,-28,-15
1523055062327313,-52,105,74,11,5,35,49,75
1523055062341851,-8,-25,-45,-2,2,-32,-35,-32
1523055062341851,3,26,85,14,0,14,4,3
1523055062343856,22,-24,-55,-10,1,21,6,-17
1523055062343856,20,22,-13,-26,-12,-26,-3,12
1523055062364411,-24,40,-34,6,2,-10,-16,6
1523055062364411,-13,37,90,7,-9,-11,-10,-16
1523055062366417,0,-10,-2,-4,4,-4,31,0
1523055062366417,20,-23,-17,0,-10,-23,25,10
1523055062378449,-23,-4,10,-10,0,-17,-90,-27
1523055062378449,15,7,-38,4,9,-3,36,-14
1523055062387486,-4,4,37,8,5,9,-40,-8
1523055062387486,9,-5,-5,-3,-7,7,0,13
1523055062402013,-14,14,45,2,-8,-13,-30,-34
1523055062402013,2,-32,-68,-16,2,-14,-18,4
1523055062403517,2,3,10,4,-4,17,20,17
1523055062403517,-3,-21,-33,3,3,26,-27,-6
1523055062424572,-12,-5,22,-8,-11,-29,28,4
1523055062424572,-2,1,-28,-13,-9,8,14,-8
1523055062426077,-3,-15,7,-4,2,-4,3,-9
1523055062426077,15,8,12,9,5,12,-2,1
1523055062438107,-12,-24,-16,19,10,8,32,-7
1523055062438107,-4,13,23,-10,-7,0,-29,-11
1523055062447134,16,35,-35,-2,1,-29,-5,7
1523055062447134,-15,-38,21,-9,-2,-10,7,-11
1523055062462172,-4,0,1,-6,-7,4,2,-4
1523055062462172,-6,-7,41,4,2,-8,2,-5
1523055062463676,1,43,13,10,6,16,27,-5
1523055062463676,17,3,-12,1,6,1,-1,6
1523055062484732,2,36,-11,-5,-9,-13,10,5
1523055062484732,-2,-6,27,4,2,25,-6,-7
1523055062486272,-4,-30,-13,-4,-12,-5,4,-4
1523055062486272,-1,-6,-19,-1,-1,-15,1,3
1523055062498302,-1,-3,13,-4,12,6,-23,-8
1523055062498302,8,-1,-32,-6,-7,-7,14,9
1523055062507293,0,20,51,4,-3,4,-7,0
1523055062507293,-7,-29,-58,-10,0,-16,3,-4
1523055062521832,7,8,28,5,-5,7,5,-2
1523055062521832,-23,-6,-21,1,0,3,-16,-8
1523055062523838,-1,18,8,5,3,-1,12,3
1523055062523838,8,4,23,-4,-5,4,-4,-5
1523055062544392,-5,-2,9,-2,-6,1,19,0
1523055062544392,13,-14,-25,-6,0,-1,4,3
1523055062546414,-5,-4,2,6,-1,-7,-3,-5
1523055062546414,13,26,47,0,-5,-5,8,5
1523055062558428,-14,-52,-74,-18,-5,-3,5,-3
1523055062558428,-2,7,-6,-3,-4,-7,-16,-4
1523055062567452,3,-12,1,9,10,3,10,4
1523055062567452,-7,3,5,0,-3,-12,6,8
1523055062581993,5,17,44,6,6,22,-35,-8
1523055062581993,-8,-25,-43,-16,-15,-12,-29,-13
1523055062583495,10,33,17,6,3,4,14,24
1523055062583495,-4,-10,1,-1,5,-2,0,-2
1523055062604550,-4,-3,-1,-2,-2,-8,-10,-7
1523055062604550,2,1,8,-1,0,-2,18,14
1523055062606055,1,-16,0,-6,-4,12,12,-4
1523055062606055,-5,15,-10,-1,-3,-9,-17,-9
1523055062618089,4,8,11,-2,-4,4,4,3
1523055062618089,14,0,-1,5,7,6,3,-5
1523055062627112,-23,-27,-7,-5,-2,-8,-6,2
1523055062627112,-14,-9,-7,2,-3,3,5,-8
1523055062642152,-6,-1,1,-6,-5,-5,-1,-7
1523055062642152,9,3,-11,0,0,-2,4,7
1523055062643655,0,-31,8,4,1,-5,-2,-10
1523055062643655,4,3,5,-4,0,2,-1,-3
1523055062664710,-6,-4,-4,3,2,-5,3,1
1523055062664710,-13,-5,5,5,9,14,12,1
1523055062666216,6,-30,-25,-3,-2,-3,-10,-8
1523055062666216,5,17,-3,-2,-2,2,-4,-2
1523055062687271,5,-28,-7,-3,-3,-7,11,-1
1523055062687271,-11,3,-2,-4,-3,-7,1,-15
1523055062688830,1,27,23,-4,-6,-6,-19,-11
1523055062688830,4,-20,-24,-14,-7,-1,1,4
1523055062702311,2,3,4,18,11,2,0,-3
1523055062702311,-20,-10,7,-1,-3,1,-3,0
1523055062703817,1,25,11,1,-3,-6,-15,-26
1523055062703817,4,-6,-13,-8,-8,-5,-6,28
1523055062724371,-18,-5,9,-3,-3,-1,21,-14
1523055062724371,1,-7,-15,-7,-6,0,6,-8
1523055062726374,-3,2,-5,-1,2,-1,0,10
1523055062726374,11,7,7,4,0,-2,0,-4
1523055062746931,-1,8,9,6,4,8,-12,21
1523055062746931,-18,-11,-8,-1,0,-10,27,-71
1523055062748936,46,-11,-17,-10,-6,-6,4,31
1523055062748936,-94,6,7,4,1,12,-51,-63
1523055062761470,-8,20,17,-5,-1,17,18,-24
1523055062761470,34,-12,-7,1,-2,-34,23,-41
1523055062767987,-36,37,26,12,8,25,40,67
1523055062767987,17,67,15,12,9,-6,27,-6
1523055062784532,30,-38,-26,-10,-6,9,-53,-20
1523055062784532,-6,14,-1,-3,-3,24,1,90
1523055062786036,-55,-19,6,15,11,-7,-21,-42
1523055062786036,58,-47,-29,-20,-14,-32,87,119
1523055062807123,26,-11,-7,-2,-1,21,19,3
1523055062807123,72,14,-9,-1,0,-22,-99,-55
1523055062808596,-14,-34,-9,-18,-10,7,-109,-63
1523055062808596,-40,-37,-6,-4,4,26,16,61
1523055062821628,-17,5,-2,-7,-5,6,17,-84
1523055062821628,-23,-1,11,13,16,23,5,14
1523055062828204,-4,8,4,7,3,1,26,-2
1523055062828204,49,0,-4,-2,-3,-4,-61,-33
1523055062844689,-30,6,-8,-17,-20,-37,-37,28
1523055062844689,-4,12,6,11,5,14,37,-4
1523055062846228,9,1,-1,3,-2,6,-48,-5
1523055062846228,2,12,14,10,5,-18,28,-4
1523055062867251,14,16,13,-3,3,-36,55,11
1523055062867251,-16,-1,-11,-8,-8,-25,11,67
1523055062868756,7,-11,-27,-11,-9,11,15,-1
1523055062868756,29,-3,13,5,1,5,-21,-39
1523055062881344,-6,9,9,-1,-11,-7,-18,24
1523055062881344,-31,-46,-49,0,18,24,-3,0
1523055062888340,14,5,16,-12,-4,-22,14,3
1523055062888340,-15,-13,-9,0,-2,8,2,-10
1523055062904348,-8,31,29,7,3,15,-18,-4
1523055062904348,8,38,68,2,-6,9,4,16
1523055062906391,3,-24,-61,-14,-8,-14,1,0
1523055062906391,-3,8,9,-5,-2,-4,16,-12
1523055062926908,-2,0,-3,8,4,1,-3,13
1523055062926908,8,-49,3,0,-3,-16,-2,-1
1523055062928913,3,17,17,-2,-2,-2,34,2
1523055062928913,-7,-5,-9,-1,-14,-1,-18,-13
1523055062940945,3,-5,1,-12,4,-6,17,21
1523055062940945,-10,-1,-18,4,8,11,-9,3
1523055062949970,-3,3,14,-8,-4,-18,16,-4
1523055062949970,-6,10,-10,9,7,1,4,-3
1523055062964510,7,40,7,1,-1,8,-12,5
1523055062964510,-1,0,35,2,-6,-3,4,0
1523055062966014,5,-10,8,11,15,14,1,3
1523055062966014,6,2,-7,-5,0,5,-9,-11
1523055062988574,-1,-21,17,13,1,4,3,7
1523055062988574,0,10,-9,-3,-6,-13,-7,1
1523055062990077,11,-22,9,5,1,-7,22,12
1523055062990077,-5,10,8,2,-14,-1,-17,-4
1523055063000605,-8,-22,-10,-3,20,6,8,-3
1523055063000605,-6,7,-10,-8,-11,4,-26,-3
1523055063009630,5,15,18,13,2,-2,-32,3
1523055063009630,-3,-22,-21,-10,4,17,41,-2
1523055063024670,-6,-8,-15,1,-7,-4,11,4
1523055063024670,8,27,34,5,-3,-4,11,-1
1523055063026174,-11,6,-23,-5,6,-6,-4,-6
1523055063026174,-2,-3,-8,4,2,-8,-16,-4
1523055063047228,0,-3,-7,-4,-5,-10,13,20
1523055063047228,7,15,38,2,1,-1,3,1
1523055063048734,-13,-12,-5,3,1,6,5,-29
1523055063048734,-2,-3,-9,-10,-3,-9,-4,3
1523055063060765,15,-4,-14,3,-1,1,-9,-1
1523055063060765,-12,-11,-11,-5,-4,-9,-4,-1
1523055063069789,4,15,36,6,1,2,14,9
1523055063069789,-10,-25,-45,-7,-1,-5,-10,-9
1523055063084328,-2,7,8,-6,-5,-4,-10,-3
1523055063084328,-1,6,-13,-5,-7,-5,1,1
1523055063086390,7,8,2,-1,-4,4,6,3
1523055063086390,0,3,17,3,3,2,-4,-3
1523055063106887,-1,-3,-7,-2,-3,-4,-5,-1
1523055063106887,-4,-3,-17,-5,-7,-2,1,-3
1523055063108893,-3,-5,10,-3,-7,-9,1,3
1523055063108893,4,5,25,4,6,3,-4,-3
1523055063120925,-2,-9,-12,-4,-3,-2,-7,-5
1523055063120925,0,9,-1,-3,-5,0,0,0
1523055063129963,6,9,-1,-1,-3,1,3,5
1523055063129963,-1,-4,-12,6,12,0,1,0
1523055063144541,1,-16,-17,-4,-3,0,1,0
1523055063144541,-18,15,-2,0,0,1,6,-3
1523055063145993,5,9,-2,-5,-6,-6,-15,1
1523055063145993,1,-1,-4,-4,-7,-4,0,0
1523055063167049,-5,5,5,2,-2,-3,7,-2
1523055063167049,3,-16,0,-1,3,-2,-14,-5
1523055063168552,-3,-2,-20,2,3,9,17,3
1523055063168552,-1,8,14,0,-3,0,0,0
1523055063180585,15,-16,-11,2,2,-3,-11,-1
1523055063180585,2,0,1,-7,-3,7,6,2
1523055063189610,-1,-1,-9,-5,-4,-5,-1,-45
1523055063189610,6,4,10,0,-2,2,-2,5
1523055063204681,-11,0,-6,-6,-4,-8,1,-1
1523055063204681,6,-30,-29,-4,-4,-8,-5,2
1523055063206153,-1,-35,-12,-1,1,7,31,-12
1523055063206153,15,-31,-23,-9,-5,-7,-18,12
1523055063227207,-30,33,12,-6,-6,6,31,-55
1523055063227207,15,7,-4,-1,-2,1,17,-10
1523055063228713,11,-5,-2,0,-2,-8,-15,61
1523055063228713,-40,43,20,3,4,1,-12,-56
1523055063242249,11,-13,2,4,1,10,74,19
1523055063242249,-36,13,-4,3,4,-2,-29,45
1523055063249769,-8,10,7,-1,-6,-7,-8,-7
1523055063249769,-34,20,13,9,5,23,-28,-19
1523055063265342,39,13,-4,0,3,14,-85,14
1523055063265342,15,54,24,12,12,-17,15,18
1523055063266813,-19,26,6,-3,-7,-9,12,-68
1523055063266813,3,-16,1,7,14,20,-113,71
1523055063286866,-15,-4,11,6,-4,-47,-42,-6
1523055063286866,15,-50,-21,-2,-2,-25,5,37
1523055063288871,40,33,6,1,5,-25,-14,11
1523055063288871,11,-7,6,-12,0,11,37,34
1523055063300905,-7,-20,-2,4,1,23,62,46
1523055063300905,7,-29,-15,-5,-11,-18,10,-2
1523055063309927,-44,-9,8,7,3,5,-14,50
1523055063309927,63,14,-4,-1,-2,4,16,-17
1523055063324468,-26,-21,-4,2,6,24,24,87
1523055063324468,-11,6,2,-5,-3,5,5,-66
1523055063326471,-21,-5,-2,-2,-6,13,11,-49
1523055063326471,4,-14,-11,-2,-9,-38,23,-20
1523055063347026,-9,13,-6,-2,1,7,-24,-9
1523055063347026,4,-22,-9,-3,-10,15,-40,-27
1523055063348531,-8,11,20,5,4,-30,13,10
1523055063348531,14,-17,-24,4,12,0,12,12
1523055063360564,-13,-4,-19,-2,0,-8,-14,-30
1523055063360564,-18,1,-10,-1,4,0,13,3
1523055063369588,32,8,18,-4,-8,12,-16,22
1523055063369588,-17,-7,-13,4,-3,-8,23,-8
1523055063384629,-9,-37,-44,-26,-10,-16,-28,-27
1523055063384629,10,-4,-7,2,3,15,-4,4
1523055063386131,-1,6,16,-2,-8,16,0,15
1523055063386131,-13,3,33,16,-3,-21,1,-15
1523055063407241,2,-28,-40,-33,-11,-8,-1,-22
1523055063407241,1,-9,-19,22,12,10,-1,13
1523055063408746,3,9,24,-12,-5,10,7,5
1523055063408746,-22,-4,-37,-3,-8,-21,-21,-18
1523055063420724,9,5,-4,5,-9,-17,-18,-10
1523055063420724,-5,-18,27,-5,-2,8,15,5
1523055063429748,-15,-19,-46,-11,1,-2,-21,-9
1523055063429748,10,8,13,-2,-7,14,20,8
1523055063444786,-1,13,26,1,-1,-13,-24,-7
1523055063444786,-1,33,25,3,9,6,-38,-17
1523055063446292,1,-45,-53,-8,-7,-10,-3,3
1523055063446292,-5,-9,-16,-5,5,7,2,1
1523055063468351,8,10,7,15,8,5,10,-1
1523055063468351,-6,-3,-10,-4,-9,-4,8,2
1523055063470355,7,-21,-9,-5,1,-12,-19,3
1523055063470355,-8,-27,18,-5,-10,-9,13,3
1523055063481384,-4,-37,-27,-17,-11,-3,3,-1
1523055063481384,17,10,-17,11,2,-6,0,1
1523055063489907,-8,35,15,11,6,6,6,5
1523055063489907,-14,14,10,0,7,9,9,-5
1523055063504499,6,27,84,18,6,6,8,1
1523055063504499,-16,-46,-68,-33,-15,-3,-5,-2
1523055063505950,12,1,5,3,0,0,6,6
1523055063505950,9,-19,-33,-7,2,2,11,-2
1523055063527059,-13,16,17,8,4,2,-14,-3
1523055063527059,-15,16,22,-2,-1,1,2,-1
1523055063528510,2,3,13,-1,-1,7,-2,-1
1523055063528510,12,2,0,-5,-8,-7,-4,-1
1523055063540543,5,-4,-13,2,5,3,3,-1
1523055063540543,0,5,16,-5,-6,4,-12,3
1523055063550066,-1,-10,-18,9,6,1,4,1
1523055063550066,-6,5,6,-12,-5,-2,-10,-8
1523055063564103,15,5,-9,-1,-3,0,-1,-6
1523055063564103,-1,21,24,2,1,-4,0,13
1523055063570622,-4,-2,2,4,4,1,-6,-1
1523055063570622,8,8,3,-3,-4,-2,-2,3
1523055063587167,-5,0,0,-1,-1,-2,-1,2
1523055063587167,10,-12,-7,-7,-5,-2,3,-4
1523055063588671,3,-1,-8,-1,2,0,3,3
1523055063588671,-3,11,19,6,1,-2,1,-1
1523055063609727,-4,4,-20,-1,0,2,2,-4
1523055063609727,-5,-2,7,-6,-2,-1,1,-3
1523055063611283,7,16,13,0,-5,-3,1,2
1523055063611283,5,-16,33,1,-3,-2,1,-3
1523055063623762,-31,-13,-38,-10,-6,-3,-5,-7
1523055063623762,5,16,7,1,4,0,0,-3
1523055063630781,-1,-4,-2,-6,-3,-2,1,1
1523055063630781,1,18,4,0,-5,-2,1,3
1523055063647327,10,-3,16,8,2,4,-2,2
1523055063647327,5,-3,-3,4,5,6,-1,-4
1523055063648831,-16,-3,-1,0,1,3,-1,-4
1523055063648831,18,-3,-19,-8,-5,-3,0,3
1523055063670888,-6,2,7,1,1,-3,-4,-5
1523055063670888,-8,1,-2,-2,-3,-2,2,-1
1523055063672894,9,13,5,3,2,-1,1,4
1523055063672894,-4,-16,-14,0,0,-2,-2,-4
1523055063684426,13,4,9,0,-3,-2,0,2
1523055063684426,-6,9,1,2,-1,-2,4,7
1523055063686430,9,-13,-3,-5,-3,-3,0,8
1523055063686430,-27,7,8,4,4,2,1,-4
1523055063706986,-6,3,3,-5,-3,0,3,14
1523055063706986,9,0,2,3,2,0,-7,-7
1523055063708490,-14,5,-8,-6,-5,-4,-4,-11
1523055063708490,4,6,5,0,-2,-8,-4,-1
1523055063729544,-50,59,27,10,9,24,1,-24
1523055063729544,11,-18,3,-5,-7,2,28,-27
1523055063731050,0,11,-3,2,4,3,-14,21
1523055063731050,-40,-19,9,3,6,17,-34,-8
1523055063744082,40,-18,6,11,-1,-32,35,55
1523055063744082,-32,11,1,-1,4,26,68,6
1523055063750600,44,-13,-9,-9,-14,-14,32,15
1523055063750600,-56,28,10,7,13,11,28,5
1523055063767145,-10,-19,-12,-13,-12,-13,-51,-48
1523055063767145,32,0,4,8,2,-48,-37,-70
1523055063768650,33,-28,-9,0,3,10,-7,24
1523055063768650,58,14,-10,-2,-5,-19,-18,-7
1523055063789705,-90,10,22,13,10,-22,23,-18
1523055063789705,95,7,-5,-6,-6,-27,77,68
1523055063791263,-95,14,19,10,10,-13,-98,-75
1523055063791263,58,-57,-30,-6,-15,-52,-30,-18
1523055063803796,5,-9,-6,-6,-1,17,-7,9
1523055063803796,-22,-7,-4,-6,-1,-5,-53,9
1523055063810761,0,-25,5,6,8,36,94,3
1523055063810761,-6,36,4,-3,-4,11,-8,17
1523055063827310,0,-17,-17,-15,-11,-16,29,1
1523055063827310,-31,-26,-9,-6,-6,-4,-16,-3
1523055063828867,33,3,10,-4,-6,7,19,22
1523055063828867,-20,-10,-46,-3,5,19,7,-21
1523055063849363,83,20,16,12,12,75,-25,-29
1523055063849363,-11,8,-6,-9,-8,-34,31,-53
1523055063851368,-15,34,11,-5,-11,-26,-22,-17
1523055063851368,8,22,58,21,15,15,16,34
1523055063863903,7,-18,-7,-9,-5,3,-17,13
1523055063863903,-3,21,22,12,15,37,-28,9
1523055063870920,11,23,30,5,8,-1,17,7
1523055063870920,-4,-29,-32,-16,-22,-28,17,-26
1523055063887018,17,-6,0,13,13,21,2,2
1523055063887018,-10,15,-6,7,-7,9,-36,-2
1523055063888468,16,72,73,-6,3,1,-4,1
1523055063888468,-15,-22,30,-9,-9,12,9,15
1523055063909525,-14,-47,-66,-8,-13,-34,-1,-11
1523055063909525,-6,24,7,-2,-1,-2,-12,22
1523055063911027,2,-34,12,-1,-12,-6,-34,-3
1523055063911027,-6,-5,-9,-3,-11,-9,-19,-15
1523055063923059,11,-3,-6,-10,-7,-15,7,6
1523055063923059,0,-8,5,22,2,3,3,3
1523055063932083,1,-22,-74,-37,11,13,11,4
1523055063932083,11,60,108,3,-3,-4,-3,1
1523055063947123,-27,-45,-58,-16,1,-30,-18,-10
1523055063947123,13,-14,35,2,-8,2,-13,10
1523055063948629,-12,8,-19,13,-11,-26,2,-11
1523055063948629,-4,14,-30,-4,8,8,7,5
1523055063971190,18,33,-10,11,11,25,5,13
1523055063971190,7,-3,6,-7,0,10,-3,2
1523055063972695,-6,-34,-42,-12,-7,-10,-14,-8
1523055063972695,31,-25,-43,9,5,-4,1,10
1523055063992243,12,17,-3,-4,-8,1,21,6
1523055063992243,-15,-33,-2,-10,-7,-4,-8,-11
1523055063993749,22,19,58,19,5,2,-3,-4
1523055063993749,-53,-38,-48,-20,-4,11,9,-16
1523055064007284,3,21,25,23,0,-8,-9,0
1523055064007284,-23,-51,-14,-35,-7,-5,-9,-2
1523055064008789,34,25,22,4,1,2,6,12
1523055064008789,2,6,-31,-13,-2,2,-8,-19
1523055064029342,10,24,55,-1,-9,-10,-3,-7
1523055064029342,3,-27,-79,8,4,-3,-3,13
1523055064031347,-28,1,11,6,-8,3,-5,-22
1523055064031347,7,-3,-44,-12,-3,-3,0,3
1523055064043379,-3,6,-2,-18,-12,-20,-2,4
1523055064043379,-1,31,30,39,39,42,6,-3
1523055064052405,3,-44,-5,3,-1,1,-3,10
1523055064052405,3,9,19,10,6,2,9,27
1523055064066942,2,20,25,-12,-8,-9,-5,-20
1523055064066942,0,3,-14,-3,-10,-10,-12,4
1523055064068446,-23,-12,-30,-10,0,7,2,-3
1523055064068446,13,1,39,4,1,8,9,5
1523055064089503,-13,-51,12,5,4,0,-5,2
1523055064089503,-14,-6,-58,-18,-1,-6,-16,-7
1523055064091008,-12,-3,-15,1,4,7,9,-5
1523055064091008,2,4,26,8,-3,-8,-15,-5
1523055064103539,42,-8,-38,-4,1,7,-4,15
1523055064103539,-23,48,27,-3,-9,-2,3,-16
1523055064112064,-11,-5,-20,4,-1,-9,-7,3
1523055064112064,10,15,-8,-10,-2,-1,3,8
1523055064127102,-10,7,25,5,-3,1,1,-17
1523055064127102,-6,-7,1,-7,1,-11,2,1
1523055064128606,7,8,8,6,4,-11,-3,1
1523055064128606,2,5,14,12,2,2,-10,-11
1523055064149662,-19,-11,-9,-6,0,5,4,5
1523055064149662,2,13,14,-6,-10,-4,14,11
1523055064151168,2,-6,-23,-10,-10,-2,1,2
1523055064151168,4,-15,8,2,5,-3,-7,-6
1523055064163199,-2,22,58,13,8,2,-6,4
1523055064163199,-2,-19,-12,-8,-9,-3,1,-3
1523055064172224,-5,-21,-11,1,-1,-1,0,-5
1523055064172224,-3,-3,-12,-4,-3,4,3,2
1523055064187262,-1,-1,-3,-2,-2,-4,-7,3
1523055064187262,4,-7,6,-5,-3,1,-1,36
1523055064188768,30,13,-12,4,7,7,-20,63
1523055064188768,-20,-11,-9,0,-2,-5,46,2
1523055064209322,-12,-22,-11,-8,-4,3,10,68
1523055064209322,-1,-27,-2,-2,-5,-14,-29,-25
1523055064211328,-2,-10,-12,-4,-2,10,-16,9
1523055064211328,-16,0,7,11,13,-5,4,-67
1523055064231881,13,-8,-10,-9,-11,15,65,-50
1523055064231881,-11,49,18,7,5,-3,-8,1
1523055064233886,-51,-52,-19,-15,-11,-23,-14,-41
1523055064233886,5,15,0,-2,-5,6,-50,26
1523055064246421,4,33,13,15,14,38,3,-84
1523055064246421,-8,-10,0,-4,-4,-15,-54,-52
1523055064253438,26,-6,10,2,-7,-21,74,-41
1523055064253438,-37,9,0,3,13,14,-18,9
1523055064269481,-22,44,8,4,-1,-22,38,61
1523055064269481,-12,25,15,-4,-8,6,-45,14
1523055064270985,-4,-12,-7,-3,-5,-13,48,31
1523055064270985,-16,-21,-7,-1,3,71,-55,19
1523055064283019,40,-15,-14,3,4,-14,-18,32
1523055064283019,-9,25,16,4,9,63,93,-8
1523055064292041,5,-72,-66,-15,-13,-16,14,104
1523055064292041,14,10,-11,-19,-16,-41,-48,-7
1523055064307083,-19,-22,-8,-6,-4,-8,-46,12
1523055064307083,20,22,42,13,1,9,8,-8
1523055064308586,-18,3,-23,-8,2,18,-37,-38
1523055064308586,23,30,26,7,3,-14,50,25
1523055064329642,-6,55,72,5,-4,-18,-37,-9
1523055064329642,-3,-58,-72,-5,3,-17,1,8
1523055064331146,0,22,10,4,2,17,37,-1
1523055064331146,15,1,14,-5,0,-7,-5,-19
1523055064343178,-5,-9,-11,-5,-12,-17,-18,-7
1523055064343178,4,13,5,-3,5,11,17,8
1523055064352202,-3,-24,-3,-14,-7,1,-37,-20
1523055064352202,4,-23,-16,25,9,-19,23,11
1523055064367241,11,20,52,-20,-7,14,-2,4
1523055064367241,6,-13,-40,30,-5,-14,-9,7
1523055064368745,-8,34,51,-23,-4,1,-22,-21
1523055064368745,4,10,23,-10,5,-5,3,1
1523055064389355,-12,-39,-47,-11,-4,-6,18,1
1523055064389355,11,1,31,25,-3,5,-1,7
1523055064391359,2,-4,4,-14,-2,-4,-16,-12
1523055064391359,-15,-19,-4,-14,-16,-8,4,-5
1523055064403394,3,-36,-56,18,17,18,-5,-1
1523055064403394,-1,6,-9,-20,1,-10,-1,0
1523055064412420,14,-9,-7,15,-3,-2,-10,-7
1523055064412420,3,28,0,-7,-9,-8,5,3
1523055064426453,-8,-8,-10,-15,-1,-4,-13,-4
1523055064426453,-2,-39,0,3,-1,-5,-5,-1
1523055064433417,3,12,-39,6,9,0,-2,-7
1523055064433417,0,-7,28,10,17,9,10,4
1523055064449461,0,-2,12,15,-2,0,-1,-4
1523055064449461,1,8,15,-20,-8,-6,6,3
1523055064450965,8,34,28,10,6,1,-12,-3
1523055064450965,-5,-2,-5,0,-12,-6,10,2
1523055064463498,6,-6,-14,-9,-4,0,-1,-4
1523055064463498,-3,-2,11,0,8,-1,5,4
1523055064472022,0,8,15,11,2,2,-3,-3
1523055064472022,4,-3,-13,-3,-9,-5,-6,-1
1523055064486558,9,14,26,5,2,-1,5,6
1523055064486558,8,-7,-38,-7,-3,-12,0,0
1523055064493077,10,-10,5,0,-3,6,-15,-11
1523055064493077,-18,1,-4,-4,-5,-2,9,-1
1523055064509620,2,7,0,2,-2,-2,2,-2
1523055064509620,-5,1,14,-5,-3,-3,-1,0
1523055064511125,-10,1,2,7,9,5,-5,-13
1523055064511125,3,-6,-19,-5,-3,-1,-6,2
1523055064523155,-4,-3,-4,-4,-4,-5,-2,-1
1523055064523155,-2,3,2,1,1,0,3,-1
1523055064532182,-8,1,-4,2,-1,-3,-1,-2
1523055064532182,7,-4,-3,0,-1,0,3,-1
1523055064546253,-4,-2,-12,-2,-1,3,-2,0
1523055064546253,4,5,6,-6,-5,-2,-4,0
1523055064553236,1,23,5,9,4,2,2,2
1523055064553236,-1,16,30,4,0,0,3,-1
1523055064569780,-4,-26,-24,-5,-1,-3,-3,-4
1523055064569780,-2,-9,-31,-8,-2,-1,-2,1
1523055064571284,-3,1,13,5,3,-1,2,4
1523055064571284,7,43,38,1,-4,-1,3,3
1523055064591876,-3,-11,-26,-3,1,-4,-2,-4
1523055064591876,2,1,5,-7,-5,-3,1,0
1523055064593866,-6,3,5,0,0,0,1,-1
1523055064593866,4,-2,-24,-5,-3,-1,-2,-1
1523055064606379,2,-15,-3,0,1,1,-1,3
1523055064606379,-2,-23,-8,-8,-8,-8,-3,-24
1523055064613396,-16,28,9,3,3,5,2,2
1523055064613396,2,-26,-15,-2,0,2,0,6
1523055064629440,-19,14,6,2,-2,-1,-2,-4
1523055064629440,5,-23,-2,1,-1,-2,-2,3
1523055064631445,-2,-17,-10,-5,-2,-2,-2,0
1523055064631445,4,-10,-14,-1,-3,-1,0,-4
1523055064651999,0,7,1,-1,2,2,-3,-2
1523055064651999,-8,8,9,1,2,4,-1,3
1523055064653503,4,-3,5,-1,-3,-2,-2,-12
1523055064653503,-12,-11,-5,-5,-6,-3,-3,0
1523055064666539,-2,-8,-10,-5,1,3,-2,-4
1523055064666539,-1,16,5,1,-1,-5,-5,0
1523055064673056,0,-2,-1,-2,-1,-1,-11,-4
1523055064673056,27,-31,-16,-2,-1,-1,12,-13
1523055064689598,0,20,-3,-2,0,2,-1,-6
1523055064689598,-4,27,14,5,2,2,1,-31
1523055064691103,41,6,1,-2,-2,5,-18,-10
1523055064691103,-34,-35,-20,-10,-9,-15,9,11
1523055064712160,10,1,17,13,9,4,-25,-22
1523055064712160,-39,65,38,2,3,-1,0,-10
1523055064713664,38,-67,-66,-19,-13,-5,5,91
1523055064713664,9,15,7,15,12,11,5,-29
1523055064727199,-62,27,19,5,3,-19,-54,-16
1523055064727199,14,-41,-17,-3,0,-9,-25,51
1523055064734720,32,-6,11,3,1,3,-19,-52
1523055064734720,39,-18,-19,-3,1,9,-25,62
1523055064748757,-27,9,-8,-8,-9,-12,24,-2
1523055064748757,13,-22,-6,-4,-3,33,22,22
1523055064757279,20,31,17,4,5,6,105,16
1523055064757279,13,-11,-12,3,6,37,-66,69
1523055064771818,47,27,17,0,-2,-44,-57,-72
1523055064771818,19,4,-7,-7,-3,78,88,46
1523055064773823,-45,-10,-1,-6,-8,-38,-89,-8
1523055064773823,-19,16,4,1,-1,3,-11,-71
1523055064785855,-6,-27,-3,-5,-4,14,-17,-18
1523055064785855,-28,-2,0,-1,-1,-16,-23,-45
1523055064794879,-16,12,8,4,2,2,-17,-4
1523055064794879,-16,-1,-41,-6,0,-3,9,-47
1523055064808918,-26,-14,7,-3,-7,4,1,17
1523055064808918,20,-17,3,7,3,-25,-26,-3
1523055064815935,-14,36,15,10,3,10,44,2
1523055064815935,-13,6,35,1,-3,-24,-4,13
1523055064831978,21,-41,-54,-3,12,24,44,25
1523055064831978,11,7,-52,-8,-1,-15,-4,5
1523055064833482,-15,-4,21,-10,-6,4,-2,4
1523055064833482,-11,-4,-8,12,10,2,2,-13
1523055064845514,18,14,25,-7,-19,-13,-5,22
1523055064845514,-2,-3,-9,33,-19,-32,13,-12
1523055064854538,-25,-21,0,-16,44,18,-30,-18
1523055064854538,1,-7,-9,-11,-15,-8,10,5
1523055064869578,6,1,-5,-8,-14,-3,19,19
1523055064869578,-8,7,7,2,-28,-37,-30,-5
1523055064871083,-4,-23,-5,-24,-17,-9,11,-4
1523055064871083,1,18,13,8,9,-3,13,4
1523055064892138,6,0,21,18,13,-4,22,18
1523055064892138,-16,-49,-47,-47,-20,-7,-19,-13
1523055064893678,4,36,37,49,16,11,-9,-1
1523055064893678,-5,18,13,-29,0,11,8,-8
1523055064905703,2,-17,6,30,-15,0,1,7
1523055064905703,-11,2,7,-16,29,10,-5,-3
1523055064914699,13,26,18,5,-17,-10,1,1
1523055064914699,-6,-10,1,-5,-1,-7,-4,2
1523055064929737,11,33,-4,-1,2,5,4,5
1523055064929737,-1,9,32,2,5,11,-13,-7
1523055064931243,-29,6,-26,-11,-16,-18,-9,-6
1523055064931243,7,0,14,11,6,-6,30,1
1523055064952299,7,0,-10,0,0,2,-4,4
1523055064952299,-10,-2,15,-5,15,-7,-25,-4
1523055064953838,-2,-25,-27,-8,-10,5,38,-4
1523055064953838,-9,-12,-18,-2,-16,-15,-18,-1
1523055064965834,17,5,20,-8,3,-5,12,3
1523055064965834,-6,-24,1,9,3,0,4,1
1523055064974860,11,5,-2,0,-7,-11,-17,3
1523055064974860,-12,16,20,6,0,3,-3,-3
1523055064989398,-11,-11,-9,-7,3,3,-1,-6
1523055064989398,10,7,3,-6,-8,-2,2,6
1523055064991402,11,-4,13,5,2,3,-6,-4
1523055064991402,-22,19,8,4,0,-2,6,-1
1523055065011956,-14,-15,-26,-18,-4,4,-10,-7
1523055065011956,7,-14,1,2,-2,-4,5,1
1523055065013460,4,12,23,6,1,0,1,7
1523055065013460,4,-4,11,-4,-6,-4,-5,-3
1523055065025492,-7,-4,-10,-7,-3,0,-4,-2
1523055065025492,11,13,2,-5,-6,6,4,1
1523055065034517,1,3,2,4,4,6,0,2
1523055065034517,-11,-7,12,9,8,4,-6,-3
1523055065049557,-4,-7,-1,1,3,11,0,3
1523055065049557,16,-7,1,-3,-4,-5,5,0
1523055065051061,-10,-12,-20,-13,-8,-3,-6,-4
1523055065051061,1,-8,-17,-2,-3,-4,3,1
1523055065072118,-3,1,13,7,12,15,8,4
1523055065072118,8,29,9,13,8,5,3,3
1523055065073622,-16,-28,-40,-6,-3,-4,-2,-7
1523055065073622,8,-5,-2,-4,-5,-3,-3,-2
1523055065085654,8,0,7,-3,-3,-9,-4,3
1523055065085654,2,9,15,3,0,1,4,-1
1523055065094678,-19,-7,-4,5,1,2,-22,-3
1523055065094678,9,-5,-13,-12,-2,3,0,0
1523055065109716,-8,-1,2,-1,-1,-2,12,13
1523055065109716,-6,11,17,2,-2,5,-2,-3
1523055065111222,27,-20,-24,-2,-2,-5,7,5
1523055065111222,-1,-10,-21,-7,-7,-9,-6,0
1523055065132278,4,0,12,-1,4,5,-12,-2
1523055065132278,-3,26,10,14,13,-3,-2,-1
1523055065133783,-2,-17,-16,-6,-6,-3,-2,7
1523055065133783,14,10,17,3,0,-4,-19,1
1523055065145814,17,-3,-17,-9,-8,-8,24,-3
1523055065145814,-44,-8,6,-2,-2,0,7,-4
1523055065154836,1,5,9,0,-1,-4,-2,-5
1523055065154836,9,10,13,4,2,7,-1,2
1523055065169409,-9,22,9,-1,-1,-5,-19,-5
1523055065169409,22,-1,-7,2,5,23,-7,13
1523055065171393,1,14,9,3,2,-1,26,55
1523055065171393,-4,-5,-2,-2,-6,-5,-4,-17
1523055065191488,-4,15,0,-2,0,-7,-22,-18
1523055065191488,19,-27,-29,-14,-11,-2,13,-80
1523055065191938,-11,9,5,-3,-7,0,-31,-14
1523055065191938,-22,14,10,4,2,0,51,-10
1523055065214051,17,-17,-14,-5,-10,-1,-29,-46
1523055065214051,-22,-12,-9,0,4,-8,-84,-14
1523055065214497,-24,-6,7,-10,-17,-13,113,14
1523055065214497,-12,26,3,2,5,10,-46,15
1523055065229034,-4,-25,4,8,10,39,-5,-31
1523055065229034,-7,-2,-10,-14,-8,27,89,41
1523055065229536,20,20,7,6,7,4,-98,-88
1523055065229536,-13,-35,-6,6,3,26,26,27
1523055065251597,-49,30,4,-7,-6,-71,64,-22
1523055065251597,55,34,8,2,0,10,-80,-26
1523055065252103,3,-44,-10,5,8,14,-1,24
1523055065252103,76,-8,-13,-12,-3,9,-34,0
1523055065274155,-54,-12,5,5,0,-40,-71,62
1523055065274155,1,-14,-8,-2,-3,-16,63,0
1523055065274657,1,26,7,-3,-7,-28,9,-27
1523055065274657,-17,-9,-4,-4,-7,-33,-47,-46
1523055065288693,5,-7,0,-2,0,10,37,33
1523055065288693,-3,10,5,-1,-1,-22,4,44
1523055065289697,-8,-24,-5,-5,-1,4,22,33
1523055065289697,-21,-26,-58,-6,-1,10,-2,4
1523055065311254,23,4,-8,-13,-14,8,13,6
1523055065311254,3,39,93,34,23,1,26,21
1523055065312257,-11,-16,-40,-8,2,15,-27,-27
1523055065312257,-7,-24,-9,12,17,0,25,-9
1523055065333814,16,8,3,0,0,5,1,3
1523055065333814,-8,14,35,-5,-40,-37,-20,-6
1523055065334817,-10,5,13,-9,13,21,-16,2
1523055065334817,13,12,-54,-3,28,-6,11,22
1523055065348855,5,8,37,24,-11,10,4,14
1523055065348855,-11,10,29,-1,19,22,-18,-3
1523055065349855,-1,5,26,-37,-25,-16,-1,0
1523055065349855,-2,-20,4,-5,-17,-24,5,10
1523055065371413,14,11,17,5,-12,9,5,-6
1523055065371413,-10,-26,-94,-4,20,-8,-14,-9
1523055065372415,8,38,14,21,10,6,9,6
1523055065372415,-5,-7,30,-3,-1,5,1,-8
1523055065393974,-2,-55,-28,-18,-6,0,-11,-5
1523055065393974,-8,47,-3,-24,-29,-27,-5,3
1523055065394476,3,-16,-38,10,12,2,-4,6
1523055065394476,-4,2,28,6,-12,-10,-13,-3
1523055065409014,-9,8,-13,3,17,21,2,-4
1523055065409014,9,28,37,9,2,-1,6,7
1523055065409516,-11,-42,-23,-6,-3,-2,-12,-12
1523055065409516,-3,-31,-17,-7,-22,-4,3,-6
1523055065432578,23,12,9,-4,16,7,2,4
1523055065432578,-27,-7,8,-4,2,7,-4,-3
1523055065433579,-9,-3,-8,-1,-8,-6,-9,-4
1523055065433579,8,4,15,4,-6,-9,3,4
1523055065454133,16,27,-9,-6,1,-5,-4,4
1523055065454133,-7,-40,-20,4,2,4,3,0
1523055065454635,14,17,14,2,-4,-11,3,1
1523055065454635,-4,16,9,1,8,12,13,7
1523055065468726,1,0,-5,-1,2,0,-6,-4
1523055065468726,4,-19,-22,-3,-2,3,-2,-2
1523055065469729,-3,-4,17,7,1,-3,-4,0
1523055065469729,8,32,21,-6,-4,-5,-1,0
1523055065491233,-8,-14,-5,0,0,4,-1,-3
1523055065491233,7,-24,-18,1,1,-5,-14,0
1523055065492268,10,9,-3,2,5,10,0,4
1523055065492268,-40,0,2,-5,-5,-4,-4,-6
1523055065513845,1,7,16,5,1,0,-1,-2
1523055065513845,-2,-24,-29,-7,-4,-4,-1,4
1523055065514796,2,14,6,-1,-5,0,-3,0
1523055065514796,17,18,10,8,10,10,-1,-1
1523055065528888,-15,-27,-68,-10,-6,-4,0,3
1523055065528888,4,2,22,4,1,5,-2,-4
1523055065529887,-6,12,1,-3,-1,-6,0,2
1523055065529887,3,-20,-37,-2,-6,-3,-15,-3
1523055065551430,-7,1,4,-4,-2,11,30,-5
1523055065551430,0,-1,4,-3,-3,-4,-7,17
1523055065552396,5,20,15,10,8,10,3,-19
1523055065552396,-8,-41,-18,-3,-1,-3,-4,11
1523055065574006,7,3,8,-1,-2,-6,-21,-1
1523055065574006,1,6,-12,-3,-2,3,5,-5
1523055065574454,-1,15,25,1,-3,-5,4,4
1523055065574454,1,-17,-12,-4,-2,0,3,-2
1523055065588992,1,10,23,9,10,0,0,-4
1523055065588992,-3,-52,-59,-11,-5,4,1,-8
1523055065589494,-5,12,47,6,-3,-7,-1,3
1523055065589494,0,8,-47,-10,-7,-3,3,-7
1523055065611551,-9,-7,2,-9,-8,-6,-7,-1
1523055065611551,16,4,12,6,7,4,-3,-1
1523055065612054,2,-3,-10,-6,-5,-1,-2,1
1523055065612054,15,11,34,4,-5,-17,6,2
1523055065634115,-15,-4,4,3,8,15,5,2
1523055065634115,6,-6,-12,-3,-4,0,-1,-9
1523055065634615,-22,2,20,1,-2,-1,-3,-3
1523055065634615,0,-4,-20,1,3,-1,-6,2
1523055065648652,17,8,-7,0,0,5,22,26
1523055065648652,-24,14,32,10,7,0,0,-8
1523055065649689,3,-24,-38,2,5,1,-8,17
1523055065649689,-5,25,32,-4,-6,3,19,-34
1523055065671265,-10,-10,-7,-1,-3,-2,-6,-16
1523055065671265,15,-26,-47,0,3,9,-12,4
1523055065672268,-24,9,3,-3,-5,-10,8,-43
1523055065672268,6,12,13,4,4,3,16,-19
1523055065693772,8,-10,-23,-9,-8,-3,-13,38
1523055065693772,-13,-26,10,-10,-14,-9,-68,-47
1523055065694775,6,9,-8,-3,-2,-19,96,79
1523055065694775,1,8,6,1,3,9,-54,44
1523055065708309,-3,3,16,8,6,-7,-59,-36
1523055065708309,-10,6,1,-5,-3,-34,85,90
1523055065716332,18,-9,-7,2,3,18,-51,26
1523055065716332,-16,-10,11,3,6,55,-62,-19
1523055065732877,-9,3,5,6,2,-39,10,63
1523055065732877,-37,-2,-5,-8,-13,-32,-41,-30
1523055065733379,-1,1,1,8,15,30,-101,-27
1523055065733379,46,18,18,5,2,5,68,-83
1523055065753985,-19,8,5,5,6,36,36,-66
1523055065753985,-53,-14,-8,-10,-11,-74,-9,-78
1523055065754933,96,10,-4,-5,-13,1,37,-28
1523055065754933,2,0,0,-9,0,-4,-19,23
1523055065768972,-46,-19,-3,-1,-5,-56,-14,-20
1523055065768972,-65,-25,-5,-3,3,28,118,-28
1523055065769474,12,-2,9,4,12,39,13,4
1523055065769474,-12,1,-3,-8,-11,-55,-18,-22
1523055065791565,70,16,1,-6,-10,8,32,91
1523055065791565,27,14,11,7,8,26,-50,29
1523055065792033,-35,-17,-11,-12,-19,-29,-18,-20
1523055065792033,-5,0,5,12,10,2,29,-6
1523055065814091,-7,-2,4,7,17,10,-18,3
1523055065814091,36,24,21,7,8,44,2,10
1523055065814594,-14,-26,-49,-13,-7,-2,-7,-9
1523055065814594,0,17,1,4,-8,-16,11,50
1523055065829137,-5,-7,7,-5,-9,6,-5,-37
1523055065829137,16,27,45,-4,-14,-8,-14,20
1523055065829638,-1,22,30,-3,14,-5,30,-1
1523055065829638,-19,-5,18,0,4,-14,-18,1
1523055065851227,-6,-43,-60,-10,1,20,-2,-9
1523055065851227,33,30,39,17,11,26,16,3
1523055065852229,-22,-29,8,-2,-1,-1,-24,3
1523055065852229,-9,20,83,-3,-17,-5,11,4
1523055065873804,-10,-55,-85,-16,0,12,-2,-21
1523055065873804,10,-12,9,-3,-16,-32,-5,14
1523055065874806,-5,18,28,10,16,24,9,-3
1523055065874806,2,19,-30,9,3,17,-3,14
1523055065888791,5,21,28,-13,-12,1,0,-9
1523055065888791,4,-18,-24,-3,5,3,-19,-5
1523055065889793,-13,-19,-35,-6,-20,-39,-12,-4
1523055065889793,1,11,-6,7,7,-2,2,0
1523055065911406,2,17,28,-5,-5,3,-1,-8
1523055065911406,12,15,-19,9,12,17,14,3
1523055065912389,-12,-11,11,-5,-6,-10,3,-5
1523055065912389,-13,-58,-17,-14,-8,23,28,0
1523055065933964,11,19,10,2,-9,-28,-42,-5
1523055065933964,0,-2,-6,-2,4,5,-8,1
1523055065934912,-8,-35,-4,4,-4,-10,15,10
1523055065934912,-1,-21,-3,-4,1,0,-17,11
1523055065948950,-11,2,5,-1,-2,-4,8,-11
1523055065948950,17,6,11,-2,-1,-3,3,-7
1523055065949452,-27,18,0,6,10,31,-13,0
1523055065949452,-1,-21,-5,-7,-3,-8,13,9
1523055065971511,5,15,24,7,2,-4,-19,-2
1523055065971511,3,3,-6,-7,-10,-3,5,7
1523055065972013,0,-9,-9,-1,2,-2,-17,-9
1523055065972013,11,22,-9,-3,3,5,1,3
1523055065994070,-5,2,13,12,7,3,21,5
1523055065994070,-1,-9,-15,-7,-2,5,-18,-27
1523055065994571,7,13,-5,-3,-4,-8,4,-2
1523055065994571,-1,1,-13,-9,-6,-10,-9,0
1523055066009109,-6,-3,6,0,-4,3,-2,-8
1523055066009109,1,8,-4,2,4,9,-14,-9
1523055066009613,-2,1,-8,1,1,-8,-2,-3
1523055066009613,9,8,2,0,-7,-15,-5,-1
1523055066031171,-5,-3,1,-3,2,5,2,1
1523055066031171,-4,12,29,6,6,2,3,10
1523055066032172,-6,-32,-59,-12,-9,-4,-4,-4
1523055066032172,-3,6,8,-5,-2,-11,-12,-11
1523055066053783,11,2,-3,0,-1,1,31,-5
1523055066053783,-1,0,-6,-4,-3,5,-1,5
1523055066054785,18,26,50,1,-7,-9,-3,-1
1523055066054785,-22,12,-25,0,5,5,-2,18
1523055066068803,-6,-30,-54,-9,-6,-14,-15,-54
1523055066068803,-7,-1,-7,-1,0,7,-8,1
1523055066069808,6,3,8,4,0,-6,7,-4
1523055066069808,12,-5,7,-1,3,-3,4,-5
1523055066091330,8,27,29,2,-5,-9,-7,22
1523055066091330,3,-1,-23,2,-4,-5,-3,3
1523055066092333,-20,21,22,-3,-2,-3,-3,-9
1523055066092333,-2,1,2,3,-1,-9,-34,-3
1523055066113945,5,2,17,7,8,17,34,21
1523055066113945,0,-1,-28,-6,-4,-3,-6,-34
1523055066114892,3,17,34,9,4,3,5,23
1523055066114892,-24,-43,-88,-10,3,-1,-5,-5
1523055066128427,-3,0,14,-6,-6,-6,-14,4
1523055066128427,-3,5,32,3,3,15,-15,15
1523055066136448,18,-8,-7,0,2,-11,23,17
1523055066136448,-14,-2,2,-2,-7,-9,-10,-52
1523055066151488,22,35,81,10,1,0,-14,-3
1523055066151488,-19,-77,-111,-22,-6,-10,4,-1
1523055066151992,6,1,3,8,3,1,-10,2
1523055066151992,9,14,36,6,2,13,30,23
1523055066174050,1,-9,6,-3,-3,-6,9,9
1523055066174050,13,31,57,5,-1,-4,-10,2
1523055066174551,-17,-15,-40,-10,-5,-4,-2,-4
1523055066174551,5,-10,-33,-4,1,-3,6,9
1523055066188087,3,-5,-10,0,0,8,24,3
1523055066188087,-16,-23,-31,-1,-1,-7,-5,-12
1523055066196609,-22,-2,12,-6,-6,-3,-49,-52
1523055066196609,16,-10,-17,-8,-3,3,8,10
1523055066211147,-4,24,32,5,-2,-18,-7,6
1523055066211147,6,17,39,4,1,2,14,-2
1523055066212184,-9,-4,6,-1,2,6,6,-8
1523055066212184,11,51,99,18,6,-2,1,-15
1523055066233709,-41,-100,-119,-42,-8,8,-32,-14
1523055066233709,0,15,26,-2,0,8,14,8
1523055066234764,20,38,44,9,1,-6,5,13
1523055066234764,-8,-1,20,-5,-5,3,36,13
1523055066248246,-1,0,-11,-3,-8,-9,-61,-17
1523055066248246,-1,17,18,10,-4,-13,-13,2
1523055066256321,4,-42,-9,0,20,25,17,5
1523055066256321,7,-6,-7,0,-1,4,-2,11
1523055066271343,6,6,-22,7,3,2,17,9
1523055066271343,7,-10,-14,-6,-7,-9,-9,9
1523055066272310,-7,15,9,-3,-11,-3,16,-1
1523055066272310,3,-29,-26,-4,-3,-4,-14,-6
1523055066293869,8,58,57,13,5,12,0,3
1523055066293869,2,-4,28,2,2,-4,10,45
1523055066294870,5,-7,-16,-1,3,-1,-7,21
1523055066294870,-1,7,15,-1,-2,-3,-7,-3
1523055066308438,23,4,2,-2,-2,-3,11,3
1523055066308438,-22,-10,-19,-4,-1,5,8,-4
1523055066316428,-10,-6,-24,-8,-11,-9,-3,-3
1523055066316428,3,24,44,12,2,7,-4,4
1523055066331468,2,24,28,12,18,6,-3,5
1523055066331468,10,-1,-16,-2,2,4,0,-7
1523055066331971,0,9,9,-3,-7,-8,-4,-4
1523055066331971,-19,2,-10,-5,-8,0,-16,-10
1523055066354029,4,17,48,10,2,3,9,2
1523055066354029,-6,-2,11,2,5,4,3,-8
1523055066354531,8,-11,-20,-2,0,2,-21,-5
1523055066354531,-19,-3,-13,-5,-2,-2,-9,-1
1523055066368106,2,-15,-5,-2,-8,-13,17,2
1523055066368106,6,20,6,-1,-1,-1,2,4
1523055066376587,24,0,-1,-6,-7,-6,-1,1
1523055066376587,8,-5,-9,7,-3,-5,-1,-3
1523055066391628,6,-27,-26,-17,8,6,0,5
1523055066391628,-15,16,7,3,0,0,-5,-12
1523055066392131,-10,-37,-22,-7,-4,-9,-4,-18
1523055066392131,12,-1,7,4,2,6,12,9
1523055066413688,9,-10,-21,-8,-11,-8,-6,-2
1523055066413688,-17,23,10,0,2,6,16,-22
1523055066414730,24,32,15,3,0,2,1,-32
1523055066414730,-52,-15,-12,-10,-2,-9,-24,-53
1523055066428281,-22,-20,-7,0,-6,8,31,0
1523055066428281,-7,-15,-1,-10,1,9,-6,-37
1523055066436248,9,15,8,4,0,-8,17,93
1523055066436248,-7,-11,-8,-5,0,8,-12,-33
1523055066451288,1,-3,-11,-4,1,-10,12,-16
1523055066451288,-21,-25,-5,2,-6,-1,-24,-19
1523055066452291,-16,20,4,-3,-3,3,36,-45
1523055066452291,22,-20,-12,-16,-4,2,14,57
1523055066473900,-23,0,-7,-8,-12,-6,-44,-49
1523055066473900,18,-4,-2,-1,-3,-26,56,88
1523055066474871,11,-38,-12,-2,-1,11,-31,13
1523055066474871,37,6,-2,-1,-5,-17,-23,4
1523055066496908,-13,5,3,10,8,5,-5,-1
1523055066496908,16,10,0,1,6,21,-25,31
1523055066497911,-10,16,25,4,7,10,24,-48
1523055066497911,-6,8,32,4,3,1,33,53
1523055066511448,-25,-45,-56,-11,-7,-16,-24,24
1523055066511448,25,-17,-1,-8,-5,16,4,-36
1523055066511949,0,23,59,11,-2,-9,-37,2
1523055066511949,-4,-55,-64,-22,-6,-11,12,-25
1523055066534009,31,46,58,17,11,4,51,42
1523055066534009,-42,4,23,2,0,-7,-31,-18
1523055066534510,-10,26,49,5,-4,-2,7,-7
1523055066534510,-16,-46,-74,-13,8,2,-14,-8
1523055066557069,8,-24,-5,-5,-12,-9,-17,-3
1523055066557069,17,29,34,1,11,-4,35,12
1523055066558072,-14,-24,-54,-11,-5,-7,0,6
1523055066558072,9,31,29,12,5,3,-26,-8
1523055066571606,5,19,29,12,6,8,9,10
1523055066571606,-7,-54,-63,-10,1,-9,-9,-6
1523055066572109,7,60,85,0,0,-8,-20,2
1523055066572109,-5,-34,-71,-8,-25,-15,2,-4
1523055066594168,-27,-64,-46,1,26,28,1,-12
1523055066594168,12,37,25,-21,-6,-12,5,3
1523055066594669,-3,-56,-49,8,22,22,-3,5
1523055066594669,5,35,77,9,-1,25,13,2
1523055066617269,-7,-16,32,4,-14,-22,-8,-3
1523055066617269,10,-6,-34,2,-3,2,-13,-1
1523055066617731,-10,-19,-56,-5,-2,-5,6,4
1523055066617731,6,50,48,9,6,2,0,0
1523055066631267,1,14,1,-23,-9,-9,-14,-1
1523055066631267,23,33,76,9,3,4,-2,6
1523055066632269,-22,-36,-53,-1,-17,-12,6,-7
1523055066632269,-3,38,24,0,11,5,-9,-3
1523055066653826,20,35,23,5,-4,-5,-2,2
1523055066653826,-5,0,-19,-5,-9,0,7,2
1523055066654828,-5,12,10,-4,5,7,6,7
1523055066654828,10,-4,3,3,-7,-14,-3,-3
1523055066676886,4,-2,11,6,10,11,9,4
1523055066676886,-4,-36,-59,-5,-11,-9,-8,-6
1523055066677889,5,14,5,13,8,8,-4,1
1523055066677889,1,6,-11,-7,5,-2,3,1
1523055066691427,25,52,47,5,-9,3,4,7
1523055066691427,21,-10,11,18,13,4,-1,6
1523055066691927,-21,-29,-26,-19,-15,-7,-9,-7
1523055066691927,-43,-20,4,2,1,-13,-22,-13
1523055066713987,-12,8,-9,2,0,10,41,2
1523055066713987,2,4,0,-6,-16,-10,-11,-1
1523055066714487,38,24,23,32,31,26,4,10
1523055066714487,20,22,45,-5,5,2,3,4
1523055066737047,-20,-18,-30,-8,-10,-5,-34,-5
1523055066737047,1,-13,-12,3,2,0,17,-1
1523055066738055,-8,16,3,-15,-12,-2,4,-5
1523055066738055,-18,3,21,5,-14,-8,4,2
1523055066751587,9,-11,-38,-9,5,-1,-20,-9
1523055066751587,-22,2,26,-2,1,2,-4,-6
1523055066752088,-5,4,22,5,-5,-11,-6,-2
1523055066752088,24,-13,-9,-1,5,4,4,4
1523055066773644,13,7,0,-3,-4,-3,1,5
1523055066773644,-49,-9,12,10,-9,-6,-13,-12
1523055066774647,-11,9,7,-18,7,-1,8,0
1523055066774647,26,-5,-42,-3,-2,3,2,4
1523055066797207,-8,0,29,5,0,-1,2,-5
1523055066797207,10,7,-18,-3,-3,-4,-4,4
1523055066797711,-10,-24,-16,-1,-5,-3,-4,-17
1523055066797711,-10,-10,-16,-7,-8,-6,1,-6
1523055066811244,-2,21,6,4,6,5,-2,-3
1523055066811244,19,-14,-15,-5,-4,-1,0,15
1523055066812247,16,-15,-17,-7,-9,-12,-15,-11
1523055066812247,12,2,3,2,2,-3,-28,7
1523055066833804,-55,-5,-14,5,3,18,48,13
1523055066833804,13,0,-7,-4,-4,-9,2,-17
1523055066834807,24,-12,-10,-7,-8,-16,-28,24
1523055066834807,-43,-22,7,7,3,25,4,-33
1523055066856867,5,23,5,6,3,-7,-50,8
1523055066856867,-2,-5,0,-2,6,13,62,77
1523055066857870,76,-12,-14,-5,-12,-25,8,-47
1523055066857870,-59,-12,3,-1,0,-11,-39,6
1523055066871404,6,23,-5,3,-1,8,-3,0
1523055066871404,-19,-6,1,-6,-4,-1,-22,-20
1523055066871906,-16,-21,-8,-1,-1,-7,-9,42
1523055066871906,3,14,5,7,3,-1,5,-10
1523055066893966,25,-13,-11,-7,-3,11,-33,-38
1523055066893966,12,15,3,0,1,8,-12,30
1523055066894467,-38,-2,1,1,0,6,40,6
1523055066894467,8,-11,-4,-3,0,12,34,38
1523055066917027,-2,-3,-5,-4,-6,-16,77,14
1523055066917027,18,6,0,1,-2,-3,-27,-35
1523055066918030,38,19,12,10,10,17,-2,20
1523055066918030,-52,-8,-4,-10,-7,9,14,3
1523055066931564,-2,-34,-45,-11,-10,-18,-34,-23
1523055066931564,18,47,89,16,13,6,14,-19
1523055066932067,-49,-88,-98,-32,-18,-8,8,-24
1523055066932067,32,34,19,4,-9,-7,5,10
1523055066954124,7,5,26,-7,2,-7,5,8
1523055066954124,-30,12,25,21,17,-4,-21,-27
1523055066954627,-8,61,105,20,0,14,-7,12
1523055066954627,12,-46,-70,-32,-10,-17,-3,-19
1523055066977185,-7,-20,-12,19,4,-4,-8,0
1523055066977185,18,33,50,-5,7,11,13,15
1523055066977687,-3,7,2,4,-4,-9,-1,-3
1523055066977687,17,3,-12,1,-7,2,8,1
1523055066990723,-12,-26,-24,-24,-19,-8,-7,-11
1523055066990723,-8,-21,-14,-7,-1,-9,-12,-1
1523055066998797,-3,28,27,-13,-1,4,-5,-5
1523055066998797,3,-11,-41,24,6,-8,-5,-10
1523055067013784,3,1,0,-8,-1,-2,-7,9
1523055067013784,12,34,10,19,-6,4,4,-1
1523055067014788,-16,-17,-24,-21,-5,-9,-39,-13
1523055067014788,11,17,32,-4,0,23,39,-1
1523055067036844,12,26,6,11,12,2,-1,9
1523055067036844,-10,-18,-23,-7,-15,-3,12,1
1523055067037848,2,42,100,37,20,4,-8,-3
1523055067037848,-17,-72,-46,-29,-1,-4,1,-10
1523055067050882,6,40,38,10,2,0,2,5
1523055067050882,-10,-3,-3,-15,-12,-13,-12,-7
1523055067058937,-14,-10,-11,-14,-6,-4,5,3
1523055067058937,10,17,16,14,4,0,-7,-1
1523055067073945,7,10,46,6,0,-8,2,5
1523055067073945,-18,-39,-53,-11,-10,-11,-6,-10
1523055067074448,-19,-4,-26,4,3,1,7,-5
1523055067074448,24,18,10,-1,0,-10,-10,0
1523055067097006,12,8,11,-1,-6,-2,1,0
1523055067097006,3,-10,-27,-4,1,-4,-6,-1
1523055067098008,9,7,-4,7,-2,4,11,4
1523055067098008,-15,6,52,4,6,0,-2,0
1523055067110541,13,-9,-15,-13,0,4,-4,1
1523055067110541,6,-14,-15,9,0,-3,-16,-4
1523055067119065,-8,-8,0,-6,-9,1,10,-4
1523055067119065,3,1,-14,-8,-8,-3,-10,-1
1523055067134103,-5,-20,-16,1,-6,2,9,-4
1523055067134103,-7,-6,-7,0,12,12,-9,-2
1523055067134606,25,5,-18,-6,-1,-4,4,8
1523055067134606,-16,16,40,8,-2,-4,-2,-1
1523055067157164,1,-9,-20,-5,-7,-6,1,-2
1523055067157164,1,-24,-21,0,-7,-7,-5,-2
1523055067158167,-15,-10,-20,-11,1,-2,-2,-2
1523055067158167,11,9,9,8,1,2,0,3
1523055067170700,-10,-4,1,-1,3,-2,-15,-4
1523055067170700,-14,-3,-15,-11,-8,-4,3,0
1523055067178722,5,1,0,8,-1,1,4,0
1523055067178722,-7,13,29,-1,-4,-4,-4,0
1523055067193762,-15,-45,-94,-6,13,4,-1,-7
1523055067193762,1,-20,20,-1,-7,-3,2,-2
1523055067194765,14,7,11,4,3,4,4,5
1523055067194765,5,-5,-3,-2,-1,-4,-8,-3
1523055067216825,-5,23,32,0,-8,-1,5,28
1523055067216825,-26,-9,-5,-6,-3,-10,-4,-20
1523055067217882,3,-11,-25,-6,-2,-3,-2,-9
1523055067217882,-3,32,18,6,6,-1,-18,3
1523055067230861,5,-7,15,1,-1,-2,10,8
1523055067230861,-10,-1,-13,-3,4,0,-9,3
1523055067238884,-7,-9,-8,1,-4,-3,-9,-38
1523055067238884,7,12,-3,2,1,5,-8,18
1523055067253922,13,0,-2,1,0,-4,-9,15
1523055067253922,-13,39,24,5,7,16,8,7
1523055067254423,-25,-17,-6,1,-2,-9,-7,13
1523055067254423,13,1,-9,-4,-1,17,-9,-29
1523055067276985,-3,12,5,-3,-3,-5,15,-50
1523055067276985,39,-5,-7,-4,-7,-2,13,6
1523055067277988,9,19,4,5,8,-6,48,62
1523055067277988,-16,6,4,8,4,27,16,-6
1523055067290519,-10,-37,-1,0,-5,-6,4,27
1523055067290519,-62,-21,-15,-25,-16,-34,-10,-57
1523055067299042,6,-17,-2,2,1,11,-21,-7
1523055067299042,-1,13,-2,-3,-6,5,27,13
1523055067313583,36,53,16,0,1,-16,-15,-6
1523055067313583,-7,-7,-1,4,1,9,1,-17
1523055067314585,-14,-5,-8,-3,1,20,-22,-21
1523055067314585,28,-5,1,3,8,-15,6,1
1523055067337145,-3,-11,2,7,3,9,-19,0
1523055067337145,-11,26,6,2,5,6,6,6
1523055067337647,-11,0,3,-1,-4,-1,6,9
1523055067337647,0,-16,-6,-2,-1,-10,-10,-15
1523055067350679,-9,17,5,0,-2,-1,-6,-14
1523055067350679,24,-21,-6,-6,-5,-6,-18,1
1523055067358702,18,11,-1,-4,-10,-14,3,-14
1523055067358702,-10,-8,6,4,4,-2,8,21
1523055067373743,-20,-28,-51,-7,6,3,-2,1
1523055067373743,18,0,17,3,-6,1,3,9
1523055067374745,-1,9,-19,-10,0,-3,-4,-3
1523055067374745,-3,18,15,16,-9,-15,-7,-2
1523055067396802,23,102,122,14,15,14,10,20
1523055067396802,-37,-94,-91,-25,-12,0,-4,-13
1523055067397839,-4,27,46,-1,1,6,-20,-8
1523055067397839,3,24,40,0,-4,-23,-6,13
1523055067419362,-2,-22,2,-12,-12,1,-3,-13
1523055067419362,21,18,1,11,1,-3,13,26
1523055067420366,-2,-9,8,9,8,12,1,0
1523055067420366,-4,-21,-38,-25,-12,-10,-16,-8
1523055067433902,0,-51,-37,-2,-13,4,3,0
1523055067433902,15,28,33,-5,19,-11,19,11
1523055067434905,-4,-8,-66,-9,-11,-1,-10,5
1523055067434905,8,11,36,28,16,4,18,1
1523055067457016,-13,-61,-71,-13,-6,-3,-9,-4
1523055067457016,14,41,63,-6,-12,2,-3,9
1523055067458019,3,-37,99,20,13,-5,6,-3
1523055067458019,-55,-108,-122,-26,-13,-7,-18,-15
1523055067479523,0,27,45,-13,-13,-5,-3,-1
1523055067479523,25,11,7,20,16,8,0,9
1523055067480525,-21,-5,-12,-11,-1,-8,5,-1
1523055067480525,8,30,30,0,1,9,-2,1
1523055067494061,-21,-37,-19,4,-2,-3,-1,-1
1523055067494061,-2,-6,-12,-10,-7,-8,-5,-3
1523055067494562,13,22,-21,-4,-7,0,1,2
