timestamp,emg1,emg2,emg3,emg4,emg5,emg6,emg7,emg8
1523210017154941,-1,-2,25,16,-6,-1,-3,-3
1523210017154941,-3,-1,-14,9,11,2,1,1
1523210017155934,-1,2,3,37,-1,-3,-6,-3
1523210017155934,0,-4,-35,-47,0,2,4,2
1523210017166963,0,-3,68,8,-14,-4,1,-1
1523210017166963,-3,-6,-61,-9,-4,-6,-5,-4
1523210017175989,-1,1,-8,34,15,8,2,-3
1523210017175989,0,-3,4,-20,2,1,-2,2
1523210017190025,-3,-2,-14,-12,2,5,0,0
1523210017190025,1,1,54,14,-10,-7,-3,-2
1523210017197045,0,5,-23,-26,-7,-9,-17,-1
1523210017197045,-3,-10,-41,-3,-5,-1,18,1
1523210017213085,3,3,-11,19,2,-3,0,2
1523210017213085,-5,-6,-56,-21,-4,-1,-1,-3
1523210017215092,-1,-1,75,-6,-13,-6,-4,-3
1523210017215092,-1,-5,-55,-20,-22,-9,-8,-1
1523210017227122,1,3,36,30,37,3,0,0
1523210017227122,2,4,-7,17,21,21,9,5
1523210017236150,0,-7,-29,-10,5,10,6,2
1523210017236150,-2,0,49,4,-4,2,-2,-2
1523210017250186,-3,0,14,-11,-12,-4,1,-1
1523210017250186,-4,-8,-45,2,-21,-15,-28,-7
1523210017256200,1,-8,-16,0,-6,-8,22,-1
1523210017256200,-3,0,-69,-30,-3,-6,-25,-6
1523210017273245,1,1,0,15,0,0,5,-2
1523210017273245,-3,0,36,-10,1,-5,14,-2
1523210017274248,0,1,-4,4,-7,-1,-3,3
1523210017274248,-1,-2,14,-2,3,-4,-6,-5
1523210017295303,-2,1,-8,-2,2,2,-15,-1
1523210017295303,-2,-4,18,5,-2,-1,7,-1
1523210017297308,-3,1,-23,-12,-5,-6,-4,-3
1523210017297308,2,-2,21,-6,10,5,8,3
1523210017309341,-1,25,7,29,6,3,-3,1
1523210017309341,1,8,24,-12,-14,-3,0,-2
1523210017316359,-5,-7,24,-1,-2,-6,-10,-6
1523210017316359,3,5,-7,-6,10,6,3,4
1523210017333410,2,-6,24,-4,-3,3,-5,0
1523210017333410,-1,-4,-5,9,3,-1,9,3
1523210017334410,-1,8,12,-7,-7,-6,-1,-4
1523210017334410,0,-1,8,6,-12,-7,-6,-1
1523210017355481,0,-5,12,-7,2,0,6,0
1523210017355481,0,-2,-12,5,9,8,-3,1
1523210017357469,2,-2,15,12,10,5,-4,0
1523210017357469,-6,-7,-24,-16,-5,-3,2,0
1523210017370509,3,6,-9,-4,-12,-5,-3,-3
1523210017370509,-3,0,38,-10,-13,-12,-7,-3
1523210017376520,-1,-4,-36,8,4,0,3,0
1523210017376520,-1,1,22,12,11,5,5,2
1523210017392563,-2,2,7,-7,-4,-5,-1,-2
1523210017392563,4,2,1,-11,0,3,-3,1
1523210017394566,-3,-2,-20,-8,-11,-4,-16,-5
1523210017394566,-3,-3,36,19,11,2,16,0
1523210017415625,1,-1,-26,-11,-1,4,6,-1
1523210017415625,-4,-9,-3,-3,-3,-3,-8,-1
1523210017417630,2,2,-11,-5,2,0,-1,1
1523210017417630,-1,-5,-50,-11,-8,-5,-7,-3
1523210017429660,1,-5,24,9,-3,-1,2,0
1523210017429660,4,6,-7,2,4,3,2,0
1523210017436682,-7,-18,-46,3,-3,-2,-3,-3
1523210017436682,2,15,47,-14,-8,-4,1,-5
1523210017452722,-2,-5,58,9,2,-2,1,3
1523210017452722,-2,-4,-67,-19,1,-1,-5,-3
1523210017454731,2,5,11,21,4,3,6,2
1523210017454731,2,0,-1,-24,-6,-3,-10,-3
1523210017475822,-6,-16,-31,1,-9,-6,-7,-5
1523210017475822,-1,5,-14,2,4,0,8,-2
1523210017476786,2,4,-1,1,-2,1,-15,-3
1523210017476786,-5,-16,-6,-3,-2,-4,11,1
1523210017489819,3,6,12,-20,-6,-4,4,3
1523210017489819,-4,-6,-11,-6,-10,-8,-9,-5
1523210017497992,4,5,16,14,12,0,5,2
1523210017497992,-2,-6,-28,-6,6,10,-1,0
1523210017513118,-5,-7,-39,-10,2,2,0,1
1523210017513118,3,-4,26,5,-7,0,-3,1
1523210017514886,2,4,47,-14,-6,-4,3,-3
1523210017514886,4,23,77,19,1,1,-4,0
1523210017535943,-1,-10,-26,-5,7,1,1,-2
1523210017535943,-7,-3,6,5,-4,-3,-8,-2
1523210017536947,-6,-11,-75,-43,-10,-8,0,-2
1523210017536947,1,0,15,12,-13,-7,-8,0
1523210017549212,2,7,-14,14,12,5,10,0
1523210017549212,4,11,73,9,17,8,0,2
1523210017558002,-5,-9,-16,-12,-8,0,3,-3
1523210017558002,-1,-2,20,24,5,1,-10,-1
1523210017573041,-6,-6,7,-24,-12,-7,1,-2
1523210017573041,-2,-7,19,-16,-6,-5,1,-1
1523210017575046,1,1,-12,15,4,1,-7,0
1523210017575046,0,-3,-42,-17,-6,0,0,-1
1523210017596165,1,3,8,16,2,2,-2,1
1523210017596165,-1,1,17,8,10,0,6,0
1523210017597105,3,19,19,-9,-5,4,4,1
1523210017597105,-9,-29,-62,13,-3,-10,-14,-4
1523210017609161,1,3,-10,5,1,1,1,-2
1523210017609161,-6,-12,-33,-14,-8,-1,-4,-3
1523210017618163,-5,-12,48,7,-3,-3,1,-1
1523210017618163,2,7,15,-4,-1,1,5,1
1523210017633451,-2,3,15,3,7,1,-1,-2
1523210017633451,-1,-5,-19,-9,-1,-1,2,-2
1523210017634210,1,0,4,18,11,3,0,1
1523210017634210,0,4,1,-22,-2,1,4,1
1523210017655260,-1,-2,-7,-17,-15,-8,-18,-5
1523210017655260,2,13,13,6,-9,-1,6,3
1523210017657265,-4,-15,-6,-7,0,-2,-13,-4
1523210017657265,1,1,-66,4,5,3,22,3
1523210017670301,-5,-4,48,2,0,-2,-3,0
1523210017670301,1,-4,-26,-16,-1,-5,7,-1
1523210017676315,-1,7,40,8,-4,0,-3,0
1523210017676315,-1,3,19,7,-3,-4,-6,-3
1523210017693599,2,6,18,12,1,7,2,1
1523210017693599,-2,-9,76,13,3,6,2,2
1523210017694364,-5,-3,-116,-9,4,0,-2,-1
1523210017694364,-1,1,90,5,-3,-2,-18,-4
1523210017715420,1,6,-13,6,0,-1,17,3
1523210017715420,0,-8,27,-1,2,-2,-10,-1
1523210017717430,5,13,20,17,-3,1,-8,2
1523210017717430,-6,-16,-34,-1,7,0,1,-4
1523210017730499,-3,-3,-56,-17,-3,-2,22,1
1523210017730499,3,15,0,6,-9,-6,-14,-7
1523210017736488,-2,-10,27,16,-1,4,30,10
1523210017736488,4,38,52,-9,5,3,-26,-12
1523210017752566,-3,-9,-21,-2,-4,-6,-16,13
1523210017752566,-5,-7,-9,8,-2,-5,16,-7
1523210017754524,1,-2,4,-27,-10,-4,-12,-1
1523210017754524,0,3,32,-3,7,6,17,3
1523210017775618,-3,-15,-12,8,2,1,-9,-14
1523210017775618,-4,3,-44,-8,-5,-5,-3,-1
1523210017777585,1,-4,33,7,-7,-3,-8,3
1523210017777585,16,7,-5,-22,2,4,20,29
1523210017789616,-6,8,-65,23,-1,-3,-15,-11
1523210017789616,-16,-39,-44,2,-5,-2,-23,-31
1523210017796635,-11,-17,7,-25,-2,-2,-7,-7
1523210017796635,7,-5,-6,9,5,-5,48,-3
1523210017813679,42,30,45,0,-1,4,8,39
1523210017813679,-55,-35,7,1,2,-3,-12,-32
1523210017814683,-4,0,-36,-10,-6,-5,-12,-11
1523210017814683,-9,-8,-11,1,-9,0,-41,-7
1523210017835744,46,-14,43,3,2,2,31,33
1523210017835744,-47,21,16,3,5,2,5,-29
1523210017836743,-3,-2,0,-35,-1,3,-13,-1
1523210017836743,-5,-16,-34,12,1,-2,-27,2
1523210017849812,-11,9,14,-1,3,-5,9,-22
1523210017849812,33,5,21,1,1,1,-95,32
1523210017857799,-9,-4,-1,6,-4,-6,94,0
1523210017857799,-3,5,-27,-10,-12,-5,-4,-2
1523210017872837,-11,-14,11,1,-5,3,15,-2
1523210017872837,16,3,-22,-17,-7,-4,-19,1
1523210017874845,7,8,11,19,23,8,-6,9
1523210017874845,1,-9,-8,11,0,2,0,-4
1523210017896114,-18,-1,-11,-19,-2,-5,-28,-18
1523210017896114,18,31,41,-8,-6,3,30,15
1523210017896901,-11,4,-108,-30,-8,-3,-15,-22
1523210017896901,-5,1,107,55,8,-1,22,-3
1523210017908933,-2,17,-63,-45,-14,-9,-7,-8
1523210017908933,4,-15,-15,-5,0,3,34,38
1523210017917958,10,-7,42,38,8,-6,-12,-37
1523210017917958,2,20,-67,-47,-9,-6,-29,-18
1523210017933207,-20,-22,30,11,-2,1,-24,18
1523210017933207,0,2,-24,0,-3,3,30,-41
1523210017935007,5,3,13,20,9,0,1,24
1523210017935007,2,-14,43,11,-2,-4,1,-2
1523210017955056,-4,0,-42,-42,-10,-3,-7,-15
1523210017955056,11,6,-51,16,2,3,0,21
1523210017957062,-2,17,-4,-35,6,4,-10,-1
1523210017957062,-7,-7,6,18,-4,0,4,0
1523210017969093,-3,-2,21,11,6,3,-14,-5
1523210017969093,19,-4,14,5,-2,-5,-4,18
1523210017978118,-18,2,-8,-17,-11,-5,47,-18
1523210017978118,4,-1,-22,6,-5,-2,13,33
1523210017993157,-7,-15,54,6,-2,-3,-16,-17
1523210017993157,22,1,-25,19,10,4,8,12
1523210017995218,-11,16,-35,-45,-14,-2,-18,-22
1523210017995218,-13,9,12,-6,6,0,-10,-2
1523210018015451,-2,-39,22,31,0,-3,-4,0
1523210018015451,-1,7,1,-18,-1,-4,22,-6
1523210018017239,20,-1,45,31,6,0,-11,30
1523210018017239,-11,-12,-18,-3,-2,0,-5,-7
1523210018029253,-18,14,-25,5,6,4,-16,-25
1523210018029253,3,23,8,-13,-10,-5,10,5
1523210018038278,21,25,-14,7,-15,-4,-15,-19
1523210018038278,-48,-35,-17,-16,3,-1,-2,38
1523210018053317,13,0,43,20,9,-1,8,12
1523210018053317,-3,-5,-13,-5,8,2,-4,-7
1523210018054320,5,-12,20,22,1,2,1,2
1523210018054320,8,13,-17,-27,-9,-3,-7,-1
1523210018075415,-4,6,5,21,0,-2,-11,-41
1523210018075415,14,-3,-2,-36,-6,-4,31,30
1523210018077382,-16,1,45,53,-2,0,-26,-9
1523210018077382,15,4,-53,-44,3,2,-15,-4
1523210018089413,24,-23,20,13,3,-3,40,30
1523210018089413,-45,-15,27,-3,-5,-5,-12,-52
1523210018098437,0,-8,26,23,1,-3,-15,14
1523210018098437,4,18,-11,-2,-11,0,8,-5
1523210018113610,20,-8,4,-8,13,7,6,10
1523210018113610,-8,1,-15,2,-4,-4,-13,-34
1523210018114479,-9,-35,7,-19,-13,-7,-18,9
1523210018114479,9,4,38,23,10,12,25,-20
1523210018135538,-5,43,-70,-29,5,1,8,5
1523210018135538,27,-55,-65,2,2,-2,5,36
1523210018137540,-37,6,25,15,-5,-4,-16,-45
1523210018137540,17,21,8,-16,-12,-5,-7,-3
1523210018149689,-13,-44,14,8,-4,2,-18,17
1523210018149689,2,6,27,4,2,5,18,-16
1523210018158598,-7,-15,-12,-7,11,-5,23,22
1523210018158598,22,17,13,7,1,-4,-6,23
1523210018172636,-18,-16,-69,-15,-19,-8,-14,-8
1523210018172636,-2,36,0,26,-1,6,-17,11
1523210018174639,6,25,-47,-63,2,2,-3,4
1523210018174639,-9,2,22,23,5,-1,8,-7
1523210018195696,-12,2,25,8,6,-4,-3,-5
1523210018195696,11,2,4,-16,-6,-3,-12,3
1523210018196735,9,-3,85,26,11,7,4,5
1523210018196735,16,-13,-98,-10,-15,-4,-10,12
1523210018208731,-20,14,45,-26,-10,-5,30,-30
1523210018208731,2,12,50,-14,3,-2,-3,27
1523210018218759,4,-23,-65,-38,-9,1,0,-5
1523210018218759,-5,-20,7,46,5,5,-1,-1
1523210018232794,19,14,15,20,23,23,-3,-4
1523210018232794,-48,-4,25,1,-7,-28,5,13
1523210018234800,-8,17,5,-17,0,-1,26,7
1523210018234800,8,-25,-11,-14,-6,-4,-17,-15
1523210018255855,3,5,-24,3,-8,-2,3,31
1523210018255855,10,12,-6,-4,-2,3,-14,-35
1523210018256859,6,7,-26,10,-5,1,-14,-6
1523210018256859,22,10,7,-23,4,-3,9,7
1523210018268896,-36,37,10,29,-3,-2,-10,13
1523210018268896,-1,-20,-1,-20,3,2,-5,-16
1523210018277915,2,-9,-5,2,-7,-4,-14,4
1523210018277915,-19,-7,10,10,3,-3,-1,-52
1523210018292953,25,-3,5,-22,-4,2,17,23
1523210018292953,19,-4,14,0,0,-1,12,14
1523210018294960,-39,4,-37,44,-2,-3,-7,-12
1523210018294960,15,-11,15,-61,-4,-2,-8,12
1523210018315014,-13,-24,8,-14,-6,-5,-4,-19
1523210018315014,-4,-4,2,22,2,9,-2,3
1523210018317019,29,-9,15,-7,2,-1,4,10
1523210018317019,-31,3,5,29,-4,-5,-6,52
1523210018338075,-5,18,-38,-28,-11,-6,-6,-82
1523210018338075,-26,55,-22,-1,14,12,-6,-39
1523210018339077,42,-23,9,7,5,-8,9,43
1523210018339077,-27,17,25,7,2,4,20,-17
1523210018353116,69,-8,2,4,-8,-15,-12,38
1523210018353116,-49,-29,5,12,-7,-1,3,-22
1523210018354117,-6,-1,-24,-19,-5,-1,-33,8
1523210018354117,-24,-24,-7,8,1,-5,9,-37
1523210018375175,-5,-2,9,2,5,7,13,13
1523210018375175,118,19,6,-5,-2,0,-9,33
1523210018377178,-103,-15,37,10,-2,-1,7,-8
1523210018377178,0,-20,7,3,-2,-2,-10,13
1523210018398236,4,-16,-75,-18,-9,-1,-4,-37
1523210018398236,-8,-5,-22,-21,-3,-5,-14,-3
1523210018399245,21,17,12,4,-4,0,36,25
1523210018399245,4,-18,-9,13,-4,5,-2,-18
1523210018413274,-35,10,19,-38,2,0,-8,-27
1523210018413274,12,16,1,9,-12,-5,2,10
1523210018414276,-17,-24,-27,-6,10,0,0,12
1523210018414276,-15,-15,2,1,-1,1,1,1
1523210018435332,0,0,10,23,9,1,19,20
1523210018435332,11,-15,30,15,5,5,-2,34
1523210018437337,28,36,14,-6,-8,1,-17,-25
1523210018437337,6,11,-6,-9,-7,-8,-11,7
1523210018458396,-14,-26,24,-2,3,3,-5,12
1523210018458396,2,19,-31,18,-3,-6,9,-6
1523210018459397,-4,9,14,-6,2,1,-8,-27
1523210018459397,13,-40,12,-10,-6,-3,-54,14
1523210018472432,8,42,-12,9,-1,-3,11,3
1523210018472432,-5,-17,41,-18,-3,0,0,-4
1523210018479452,10,11,-16,10,0,-3,4,22
1523210018479452,-6,8,-8,0,5,4,5,-38
1523210018495494,-11,25,38,14,-4,2,-15,6
1523210018495494,43,-24,-22,-13,9,-6,-7,22
1523210018497498,-30,-29,15,4,-9,2,16,1
1523210018497498,17,20,-28,-15,-2,-5,-7,-5
1523210018517560,13,-12,38,18,-3,-2,-3,4
1523210018517560,-30,-15,21,14,-3,-4,-8,38
1523210018519556,32,29,-11,-6,0,3,-13,-17
1523210018519556,-19,-26,35,22,21,2,3,-25
1523210018532595,-17,-34,-34,-18,-4,-4,21,1
1523210018532595,-9,-9,-24,-9,-7,9,20,1
1523210018539618,64,0,12,9,10,-13,-39,12
1523210018539618,-36,55,1,13,-1,-5,12,-12
1523210018555653,2,-9,-3,8,-5,3,23,13
1523210018555653,-3,-10,-20,-10,-2,-8,3,-27
1523210018556656,8,4,4,3,-3,10,-31,-32
1523210018556656,-4,8,-16,-7,-2,-1,36,13
1523210018577711,22,38,-5,4,14,-4,-41,-48
1523210018577711,-37,-7,-33,2,-4,5,-17,-51
1523210018579718,-38,-21,-63,-25,-8,-1,32,33
1523210018579718,27,-7,43,-2,-1,-8,-16,2
1523210018592755,-6,39,-18,8,-3,3,9,12
1523210018592755,-2,-20,4,-13,-6,-3,-41,-5
1523210018598824,25,-5,0,-5,16,6,33,0
1523210018598824,-37,-5,-28,11,-11,5,17,-5
1523210018615812,1,8,-19,-11,3,-2,-11,6
1523210018615812,17,-8,-18,22,-2,-4,2,9
1523210018616817,-1,6,48,9,-3,-2,-6,12
1523210018616817,11,-4,-32,-16,-8,-3,-3,11
1523210018637871,-4,-50,2,-9,-15,-4,-27,-16
1523210018637871,-20,3,15,12,13,6,25,1
1523210018639876,1,12,-8,10,9,12,15,-1
1523210018639876,13,-31,10,-31,-4,-8,-16,-13
1523210018651919,0,46,24,13,-3,2,9,16
1523210018651919,-1,-73,-25,-8,-6,-8,15,28
1523210018658966,-15,36,29,3,1,2,-13,-33
1523210018658966,6,31,11,5,3,6,11,32
1523210018675972,-2,-50,-7,-4,-2,-3,-13,0
1523210018675972,-1,41,-7,-7,-6,-2,-24,0
1523210018676975,40,-6,-10,8,-8,2,41,-5
1523210018676975,-81,6,-9,-7,8,-2,6,-13
1523210018698031,48,-13,-24,-8,2,-2,-15,22
1523210018698031,-14,5,-2,4,-2,-3,5,-29
1523210018700036,-3,-17,-4,4,-8,-3,-6,20
1523210018700036,26,-51,-12,-3,1,0,-9,-9
1523210018712068,17,4,20,17,4,-1,10,37
1523210018712068,-15,27,-11,-17,-2,-1,-37,-18
1523210018719087,40,4,30,2,-8,-5,26,41
1523210018719087,-40,-13,-20,-23,-9,-8,-6,-32
1523210018735138,8,2,-12,10,5,0,-2,4
1523210018735138,-33,31,3,-15,-4,-6,-24,8
1523210018737134,-16,-30,7,8,5,5,19,4
1523210018737134,46,20,-11,-4,-8,6,10,33
1523210018758190,-25,-37,3,0,10,4,18,-21
1523210018758190,24,4,-4,-6,1,-5,15,-28
1523210018759194,-97,-2,13,-7,-9,-2,-23,30
1523210018759194,34,-24,-21,5,-5,-8,16,-7
1523210018772264,-3,-16,9,-5,-10,-5,11,11
1523210018772264,6,15,15,-10,-1,11,-7,-16
1523210018779247,-1,-17,5,4,7,-7,5,-29
1523210018779247,29,31,-5,14,5,3,-12,30
1523210018795527,-44,14,14,-12,-4,-3,-20,-37
1523210018795527,-5,-34,-15,-3,-1,-1,20,2
1523210018797295,11,-7,-17,-14,-4,1,-28,-24
1523210018797295,6,8,17,12,-1,-1,-4,11
1523210018818353,10,30,-11,-25,-5,-2,-9,2
1523210018818353,-15,-8,-19,4,-3,0,21,36
1523210018819352,-17,-51,4,-1,-4,-6,-26,-65
1523210018819352,15,7,12,5,0,3,24,9
1523210018831384,14,-7,-3,13,0,2,18,14
1523210018831384,44,-2,8,6,26,4,-14,16
1523210018840407,-74,62,-23,-6,-8,-4,42,5
1523210018840407,-10,-31,18,10,0,7,1,-2
1523210018855449,-9,-12,-39,-28,-15,-7,-17,-5
1523210018855449,-6,28,31,18,-7,-7,12,-23
1523210018857494,32,-23,-84,-11,-2,-4,-10,-9
1523210018857494,-23,74,21,-9,6,1,-4,-4
1523210018877507,10,-36,26,5,3,-1,2,-11
1523210018877507,-16,-18,-11,-2,0,5,2,-8
1523210018879513,18,29,27,6,0,-6,-17,-2
1523210018879513,40,-47,-9,5,-5,0,-5,15
1523210018891584,-24,31,15,-18,6,2,-12,3
1523210018891584,-16,-24,-29,-3,-10,-6,18,-2
1523210018900572,26,1,11,-7,-8,-3,-22,1
1523210018900572,-11,7,22,-12,11,5,-43,-14
1523210018915610,5,-2,7,-4,2,2,53,6
1523210018915610,0,-21,12,30,10,0,1,26
1523210018917619,4,16,-17,-31,-5,2,1,-29
1523210018917619,26,11,16,14,1,-3,-15,0
1523210018938688,-27,-29,-13,6,-7,-2,-7,15
1523210018938688,-34,11,11,-14,-4,2,5,-3
1523210018939672,-26,-25,23,12,4,-5,-6,-55
1523210018939672,12,17,-12,-2,-3,0,-4,-6
1523210018951705,-1,-6,-2,8,3,3,-22,-23
1523210018951705,0,-1,5,-11,0,1,5,4
1523210018960728,6,16,36,21,4,-8,-15,26
1523210018960728,-13,-29,-25,-9,-11,-7,21,7
1523210018975813,-13,2,-39,-23,-6,-5,-17,-12
1523210018975813,15,31,-12,-11,-8,-1,6,-6
1523210018976771,-9,-46,11,3,8,2,-8,1
1523210018976771,-8,14,9,1,-2,-5,1,-5
1523210018998065,16,-24,3,4,-3,0,8,18
1523210018998065,1,26,-1,25,5,7,3,-6
1523210018999832,30,-8,-5,-10,-1,-6,0,40
1523210018999832,-1,-15,-43,1,2,3,32,-21
1523210019011865,-21,9,27,1,-8,-5,-13,9
1523210019011865,22,-10,8,-3,-8,-7,-25,7
1523210019020888,-8,36,5,-2,-2,5,6,17
1523210019020888,-2,-23,12,9,15,1,-15,-24
1523210019035934,-31,3,4,3,-2,-1,-3,1
1523210019035934,10,-13,1,-18,-8,-10,-22,-17
1523210019036931,29,3,-46,-14,-4,1,28,24
1523210019036931,-24,14,24,13,-4,-2,-12,-12
1523210019057988,31,0,7,-5,7,1,6,8
1523210019057988,-34,-35,31,12,-1,-2,-2,-11
1523210019059993,5,27,-14,-11,-5,3,0,14
1523210019059993,-6,22,-43,-35,-14,-6,-6,-16
1523210019072025,-7,-30,16,21,13,0,0,-17
1523210019072025,18,-8,-1,-3,5,5,0,26
1523210019081049,14,-25,19,40,4,2,-31,6
1523210019081049,-27,15,-1,0,-3,1,10,-14
1523210019096138,47,5,-21,-16,-11,-10,25,47
1523210019096138,-10,-3,19,-8,-7,-3,-6,-13
1523210019097090,34,-2,-9,-5,2,-2,-1,-5
1523210019097090,-46,1,19,9,-4,1,-32,14
1523210019118191,26,37,-6,10,1,-5,-3,-8
1523210019118191,-39,-8,-6,-2,0,2,5,-13
1523210019119163,-28,15,8,-1,-6,-5,5,-28
1523210019119163,24,-21,7,-6,-6,-3,-1,-2
1523210019131181,-5,5,7,-1,-2,1,-29,-10
1523210019131181,4,-3,-8,5,12,2,39,5
1523210019140440,-1,-24,1,-9,-5,1,4,17
1523210019140440,17,41,-4,7,10,1,-25,5
1523210019155248,-35,8,2,-6,-5,-2,12,-29
1523210019155248,15,7,5,0,-6,-3,-5,16
1523210019157252,0,-10,-18,-1,5,-1,-18,-10
1523210019157252,-15,22,3,-17,-11,2,40,8
1523210019178308,-10,-64,-5,10,16,7,-10,22
1523210019178308,15,-4,-10,-2,-3,-4,-10,15
1523210019179309,-8,36,21,2,-4,-2,10,-46
1523210019179309,59,-11,-37,-9,-4,-4,-10,24
1523210019191342,-40,9,17,23,1,0,15,-6
1523210019191342,-9,14,-44,-28,-2,3,4,-8
1523210019200377,-6,-12,9,6,2,-2,9,13
1523210019200377,1,-21,21,2,1,-2,-1,0
1523210019215406,0,-28,-37,-23,-16,-7,-10,-19
1523210019215406,10,25,21,23,4,1,-10,-3
1523210019217411,5,11,-77,-4,-8,-3,12,2
1523210019217411,-10,-19,12,5,14,7,12,14
1523210019237464,-14,18,36,24,4,0,-20,-58
1523210019237464,12,1,-18,-13,0,2,-2,5
1523210019245524,-6,-12,-13,-20,-9,-7,12,-17
1523210019245524,26,5,19,7,-4,-6,3,13
1523210019260525,-22,14,-9,2,-3,1,-1,11
1523210019260525,55,3,20,11,5,0,-14,-21
1523210019262533,-14,23,-9,-9,0,2,5,7
1523210019262533,-2,-18,-20,-3,-6,-8,8,-10
1523210019275566,20,1,25,2,-1,2,-3,6
1523210019275566,17,23,14,-6,-1,3,5,11
1523210019277571,-69,-35,-38,-10,2,-3,0,-2
1523210019277571,-16,14,3,2,3,2,3,-7
1523210019298666,14,4,-7,-9,-7,-4,-11,-38
1523210019298666,-24,-22,6,3,-1,3,7,13
1523210019299632,26,-16,25,19,5,-4,-9,17
1523210019299632,-9,10,18,-15,-9,2,-4,5
1523210019320689,-9,14,-67,-31,-15,-3,-10,-27
1523210019320689,-6,-12,-32,3,8,-1,23,-12
1523210019321687,11,-11,32,-15,6,5,-15,8
1523210019321687,-10,-8,5,53,9,-7,-13,-34
1523210019334736,16,21,26,-8,10,7,17,16
1523210019334736,-35,1,-33,-21,-16,-7,-10,-9
1523210019341780,23,13,9,11,1,-4,-5,9
1523210019341780,-13,-40,11,-12,-5,1,-5,25
1523210019357822,3,-1,-11,5,-7,-2,-4,-30
1523210019357822,-46,15,-51,-18,-2,-15,-23,-28
1523210019359790,28,-4,36,6,8,3,-4,38
1523210019359790,-19,-67,6,-3,-6,0,0,-28
1523210019380846,20,22,20,16,0,0,-21,27
1523210019380846,-2,-12,19,-8,1,-1,47,-29
1523210019381848,-2,-1,16,-6,-11,-1,-12,-11
1523210019381848,-4,49,-8,0,1,-1,2,1
1523210019395121,-4,-62,13,1,12,1,5,18
1523210019395121,22,6,23,10,0,0,-13,5
1523210019401902,-2,-26,-23,-5,-4,-2,10,-4
1523210019401902,5,56,14,11,1,4,9,-2
1523210019417944,-13,-34,-50,-19,-8,-10,-12,2
1523210019417944,7,-20,6,6,-6,1,-1,30
1523210019419950,8,-12,-9,-11,6,-3,0,-9
1523210019419950,-15,15,-18,3,-4,1,2,5
1523210019440238,-6,6,22,4,8,3,-10,-34
1523210019440238,34,31,18,5,0,-6,-3,7
1523210019442009,-17,-26,-32,-15,-14,-1,-22,-6
1523210019442009,9,-19,-19,-9,5,7,4,3
1523210019455042,-14,32,24,22,4,-11,9,18
1523210019455042,-3,0,-38,-5,-9,-6,-23,-8
1523210019462060,9,-1,17,-10,-10,4,-2,-10
1523210019462060,21,-24,1,0,11,-1,-8,39
1523210019478340,-11,9,-2,16,15,9,24,-1
1523210019478340,-53,-14,-9,-3,-4,-2,-14,-35
1523210019480264,-7,15,0,-5,-9,-6,19,7
1523210019480264,11,-22,-15,-8,-7,-5,-12,-8
1523210019501212,-4,31,15,-6,-6,-1,-1,12
1523210019501212,0,14,0,4,1,4,31,3
1523210019502214,-29,2,-13,0,0,0,1,-7
1523210019502214,36,32,29,-5,3,-1,4,-9
1523210019515245,-3,-10,-11,0,-4,-5,-15,3
1523210019515245,-5,-36,34,2,-2,2,-18,6
1523210019521219,15,31,18,7,3,2,10,-18
1523210019521219,-10,-23,8,-4,-5,0,-1,23
1523210019538501,47,81,-12,-3,3,2,2,31
1523210019538501,-67,-58,18,11,-3,0,10,-45
1523210019539314,25,11,7,7,3,1,10,5
1523210019539314,-13,-8,-13,-11,-7,-6,-2,-4
1523210019560323,22,-16,-10,-17,-13,-5,-20,12
1523210019560323,-5,5,19,3,0,7,10,28
1523210019562327,-12,14,-2,6,15,2,-4,8
1523210019562327,5,15,-43,-23,-7,-7,-4,-43
1523210019574360,-6,-14,-16,1,-4,-2,6,6
1523210019574360,22,-5,4,3,1,-2,-19,19
1523210019581615,-9,3,2,-2,-5,0,0,-1
1523210019581615,-17,-31,11,4,2,-2,-3,20
1523210019598496,-44,11,2,-4,-3,-2,-6,-54
1523210019598496,14,14,-13,-1,-4,-7,-9,-15
1523210019599425,10,13,15,10,1,0,1,25
1523210019599425,-1,-18,-14,1,2,-1,7,-5
1523210019620482,2,-21,20,-6,-3,4,10,6
1523210019620482,33,19,-29,-5,-4,-3,-7,11
1523210019622486,-2,-8,2,7,4,-1,-13,-10
1523210019622486,25,27,12,0,3,7,-1,38
1523210019634526,-21,-21,-20,-5,-6,-5,16,-29
1523210019634526,11,-8,12,1,6,0,-3,4
1523210019641537,5,-16,-5,0,-7,-2,-9,1
1523210019641537,-24,-1,-19,-16,-12,-4,-9,-11
1523210019657878,24,12,-3,9,11,5,23,49
1523210019657878,-6,-18,0,-4,-6,-9,-26,-20
1523210019659884,-19,-18,-6,-4,-7,-6,11,-17
1523210019659884,-3,28,26,-2,2,-1,4,-12
1523210019682948,-11,-51,-4,4,1,2,-2,-2
1523210019682948,26,9,1,-4,3,3,-3,28
1523210019683951,-16,30,12,11,6,1,-28,-5
1523210019683951,7,-5,-13,1,-5,-5,44,-10
1523210019693975,18,-13,10,0,-2,-8,-4,24
1523210019693975,-6,25,5,-2,0,3,-34,-34
1523210019704000,11,0,-3,-6,-7,0,17,15
1523210019704000,5,-32,-27,1,13,0,3,-28
1523210019717041,-12,48,2,-6,-5,-4,-5,6
1523210019717041,10,-20,0,7,1,4,-4,14
1523210019718038,12,13,4,-3,0,1,16,15
1523210019718038,8,20,2,0,2,2,-13,-12
1523210019740098,-11,-29,-1,2,-1,-1,-17,-2
1523210019740098,-9,-10,-1,-2,-2,-8,18,-2
1523210019741099,10,19,6,-5,-1,4,-16,-17
1523210019741099,-15,-34,-21,4,-1,-1,6,21
1523210019763396,-6,-9,11,1,-2,1,-1,-28
1523210019763396,9,34,-2,-5,-3,0,13,20
1523210019764393,-8,-44,-7,3,-2,-2,7,-5
1523210019764393,-14,13,-6,-11,-2,2,-6,-34
1523210019777197,1,50,6,0,-4,-2,-4,21
1523210019777197,1,-27,-6,-6,-6,-3,14,-30
1523210019778201,-17,-9,-1,4,5,4,-23,10
1523210019778201,-2,12,13,12,6,-3,7,-24
1523210019800258,9,11,10,1,-2,3,10,19
1523210019800258,14,0,-13,-7,-2,-3,-16,16
1523210019800258,33,-3,12,1,-1,-4,17,-33
1523210019800258,-69,-3,2,-8,-8,-5,-9,22
1523210019823318,-10,-24,-4,3,3,6,-1,-13
1523210019823318,-5,-1,6,7,3,1,9,16
1523210019823318,10,16,-24,-8,-5,-2,-28,0
1523210019823318,11,-2,13,4,-7,-6,-1,9
1523210019837593,16,-13,-14,-22,3,-1,15,22
1523210019837593,-21,38,-1,2,-3,2,-5,-33
1523210019838358,3,-27,-6,2,4,-4,-6,17
1523210019838358,4,0,6,4,1,1,-7,-12
1523210019859415,12,-23,-2,-2,-10,-7,4,12
1523210019859415,-30,12,5,0,-2,3,-12,15
1523210019860416,5,12,5,6,8,1,7,-40
1523210019860416,-10,36,1,-4,-3,-7,7,-17
1523210019883595,6,-56,8,0,-2,4,0,3
1523210019883595,12,-3,-5,-1,2,-4,-12,11
1523210019883595,-9,14,21,0,3,2,-11,3
1523210019883595,-6,-4,6,3,-1,2,-13,-24
1523210019897754,0,31,-16,-2,-9,-2,10,-16
1523210019897754,-5,-22,10,-1,8,3,17,12
1523210019898520,-1,8,-22,-18,-6,1,7,12
1523210019898520,-11,-29,-2,-4,2,-3,-13,-20
1523210019919613,13,15,4,8,-6,-7,-16,26
1523210019919613,33,13,4,4,-1,1,31,43
1523210019920576,-36,-17,-7,-2,9,4,1,-45
1523210019920576,10,22,-9,-8,-12,-8,-4,8
1523210019943636,-2,-30,-3,0,1,-6,-28,-10
1523210019943636,-18,-22,-6,-4,10,2,31,7
1523210019943636,-3,-5,-5,16,0,-1,2,-9
1523210019943636,8,21,8,-11,-5,6,-8,14
1523210019957673,-13,-29,-9,-5,2,7,-18,-3
1523210019957673,-2,-20,-13,-7,-12,-16,4,-38
1523210019957673,6,-18,0,1,-4,1,4,14
1523210019957673,20,14,-4,7,0,-3,3,28
1523210019980933,13,46,-3,1,1,1,-30,-63
1523210019980933,-4,-19,-8,-2,4,1,-3,17
1523210019981739,-5,-4,-7,1,-5,-2,4,-33
1523210019981739,-1,15,18,6,6,3,-6,4
1523210020002794,39,-17,-20,-14,-1,-2,22,3
1523210020002794,-53,-78,-6,-5,-6,-5,-23,-1
1523210020003797,-19,8,12,9,-3,-3,3,2
1523210020003797,38,-10,-8,-7,-1,1,-1,29
1523210020016836,-11,57,15,9,5,2,0,-12
1523210020016836,17,14,4,6,8,9,0,6
1523210020017835,-9,10,-4,-9,-2,-7,27,3
1523210020017835,1,-35,-1,6,2,4,-23,16
1523210020040132,-22,-5,9,-4,-1,1,31,24
1523210020040132,-2,40,1,-1,-8,-7,-25,-42
1523210020040939,17,-1,-15,-6,-7,-7,3,30
1523210020040939,0,-18,-2,1,-2,3,-7,-6
1523210020063190,-13,25,3,1,1,-3,25,8
1523210020063190,16,7,-14,-13,-1,5,-2,-9
1523210020063957,12,8,2,-2,2,-3,-12,9
1523210020063957,-18,-6,-12,-5,-5,-4,1,-4
1523210020076993,-12,-10,5,7,7,1,-6,1
1523210020076993,43,-5,-6,4,0,2,11,-17
1523210020077994,-24,-3,0,-10,-7,-2,-13,43
1523210020077994,2,3,3,-1,-8,-7,26,-16
1523210020100099,-10,1,-11,5,6,-2,-12,33
1523210020100099,-1,3,12,-3,-7,-1,-4,-52
1523210020100099,6,46,12,0,-2,2,-14,-5
1523210020100099,-13,-49,-35,-5,4,-4,-13,4
1523210020123156,12,-1,5,-1,7,5,25,17
1523210020123156,-8,4,15,6,-2,-1,-5,7
1523210020124157,5,-4,-22,-8,-3,-1,2,1
1523210020124157,-16,-9,14,6,-3,0,-2,5
1523210020137153,-15,-17,-10,-9,-3,-4,-19,-42
1523210020137153,-3,12,-5,-1,0,5,-26,36
1523210020138153,-11,-36,0,-11,-7,-1,39,-16
1523210020138153,-14,29,4,-1,-5,1,-6,-26
1523210020160213,-20,3,-6,-2,5,-5,-24,-21
1523210020160213,39,-4,-3,2,0,-1,12,11
1523210020160213,-42,-29,-4,5,-1,-4,-20,-22
1523210020160213,-20,11,-1,-14,1,1,6,-41
1523210020183514,14,-12,5,0,-11,-5,1,11
1523210020183514,-7,27,9,-4,1,-2,-9,-14
1523210020183514,14,-4,8,11,9,4,-6,8
1523210020183514,25,-21,9,-4,-3,4,3,33
1523210020197547,-17,35,3,2,4,1,9,-36
1523210020197547,-5,-29,-1,0,1,-3,6,22
1523210020198319,0,-27,-14,-11,-6,-4,-1,-39
1523210020198319,5,30,-2,6,0,4,-2,-4
1523210020219411,-23,-17,-1,-9,3,16,20,5
1523210020219411,-1,-1,0,-5,-4,-7,-13,11
1523210020220372,-1,24,4,0,-11,-7,-11,1
1523210020220372,11,15,1,-2,7,-1,-3,8
1523210020243589,3,-31,-19,3,1,-2,-13,-3
1523210020243589,-35,17,-7,-7,-2,-4,-11,-67
1523210020243589,8,-6,-1,-1,-1,3,17,21
1523210020243589,20,14,-4,0,-7,-10,-1,1
1523210020257516,19,14,4,3,-11,-11,-14,9
1523210020257516,-10,-24,8,8,6,6,-2,9
1523210020258474,51,58,7,1,11,3,27,26
1523210020258474,-47,-38,-17,-1,-1,-1,-10,-17
1523210020279530,9,-48,6,-5,-3,-1,12,18
1523210020279530,1,8,10,4,0,9,9,26
1523210020280531,13,12,4,-2,-3,-13,-47,-12
1523210020280531,12,-2,10,-5,0,-3,12,13
1523210020302592,-8,-8,-13,-8,-2,-2,-3,-5
1523210020302592,14,-9,2,10,3,-2,6,8
1523210020303593,5,23,-4,-4,1,3,1,22
1523210020303593,1,-8,9,3,-4,1,0,-3
1523210020317637,-20,6,3,-7,-8,-6,-30,-19
1523210020317637,-5,23,-10,-2,4,3,40,2
1523210020317637,0,-14,-1,-6,-6,0,7,-2
1523210020317637,29,8,6,12,3,0,4,35
1523210020339730,1,-20,-5,-2,7,0,5,-26
1523210020339730,-3,25,8,0,-2,-1,-25,15
1523210020340699,-17,-17,7,2,0,-4,19,-10
1523210020340699,-8,11,-6,-17,-11,1,-1,9
1523210020362989,-5,18,3,7,2,-2,1,0
1523210020362989,3,-5,7,6,-7,-5,-1,0
1523210020363753,-10,-23,11,-22,1,1,-8,8
1523210020363753,9,2,-45,40,-5,1,-10,-14
1523210020376828,13,-8,20,-9,-5,-4,12,9
1523210020376828,-62,-16,-28,-64,-12,-1,11,16
1523210020377790,14,-18,-30,61,4,-2,-22,-3
1523210020377790,24,2,13,-22,-1,-5,11,33
1523210020399902,7,38,0,4,-12,3,-22,-36
1523210020399902,6,-7,5,3,4,-15,30,52
1523210020400853,-6,4,-7,-15,2,5,-17,27
1523210020400853,3,3,-7,-10,5,1,3,-14
1523210020422914,-51,-23,-2,15,1,0,55,-20
1523210020422914,49,41,-14,-9,-4,-3,-5,18
1523210020422914,-22,-35,-12,2,-1,-1,-8,-32
1523210020422914,3,-3,6,6,4,-4,0,-2
1523210020437991,8,38,25,-9,-7,4,-33,0
1523210020437991,0,-18,-20,18,0,-2,9,-8
1523210020438954,-6,-1,-3,9,0,-7,6,-8
1523210020438954,3,-13,7,-22,-7,4,-9,-2
1523210020460050,6,-5,-21,5,4,0,-9,1
1523210020460050,-21,14,4,-3,-3,-2,5,-36
1523210020461012,-6,-9,-5,10,-2,-1,-7,15
1523210020461012,-10,2,16,1,3,-7,-5,-14
1523210020482071,3,32,2,-11,1,6,-21,1
1523210020482071,15,-30,-3,13,2,-4,5,-10
1523210020483074,-18,2,16,-12,3,2,-7,-49
1523210020483074,5,-15,-5,0,0,1,19,17
1523210020497343,10,5,1,-9,-6,-9,-11,12
1523210020497343,-21,2,1,11,-7,-7,-37,-47
1523210020498114,6,-5,13,-15,-5,-1,-3,19
1523210020498114,-11,-27,-6,2,3,-1,-17,-12
1523210020520170,30,-34,1,4,4,-2,0,30
1523210020520170,-1,4,-7,-13,-3,4,-6,-7
1523210020520170,-5,6,5,0,-1,6,20,1
1523210020520170,7,5,8,0,2,-8,-6,8
1523210020542232,-1,-10,-6,-15,-5,1,0,2
1523210020542232,-6,-18,-3,10,0,-2,-8,8
1523210020543231,15,8,7,-21,-6,-2,13,14
1523210020543231,-25,34,-5,16,0,-1,-9,-61
1523210020557268,9,-41,6,10,6,2,-8,-8
1523210020557268,-5,-15,-1,8,-2,-4,13,15
1523210020558271,13,11,-3,-18,-5,0,-11,9
1523210020558271,-1,-13,7,6,9,1,2,-10
1523210020580415,-32,18,-5,-6,-7,-6,6,-30
1523210020580415,14,24,1,3,-3,2,-13,-15
1523210020580415,-8,-7,2,3,1,-5,-5,-4
1523210020580415,21,-3,-2,-13,2,2,0,25
1523210020602387,2,41,-5,16,2,-1,20,12
1523210020602387,-10,-24,11,-7,0,1,1,-4
1523210020603392,-19,-2,-7,-9,-6,-4,-4,-3
1523210020603392,-24,-38,-10,-10,-9,-1,-10,10
1523210020616435,0,-11,1,-4,-4,-5,0,-20
1523210020616435,-1,7,0,-3,-1,6,-3,19
1523210020625448,31,15,1,15,17,3,17,-14
1523210020625448,-36,19,7,2,1,3,2,-41
1523210020639487,-38,-18,3,8,-4,-6,6,5
1523210020639487,16,12,-5,-12,-7,-2,2,-13
1523210020640489,3,5,-10,-8,-16,-1,-11,17
1523210020640489,19,-13,-21,-1,4,-1,-20,14
1523210020662783,24,20,-7,-4,-2,3,54,44
1523210020662783,-24,-3,3,-6,1,0,-11,-21
1523210020663550,-1,-18,-3,8,6,-3,-7,-6
1523210020663550,-6,17,2,-4,-6,-3,9,19
1523210020677590,11,-17,-5,2,-1,-4,-22,0
1523210020677590,20,42,-5,7,4,0,-9,15
1523210020677590,-32,-20,-3,-10,-6,-1,-8,-21
1523210020677590,-2,-27,1,5,-5,-7,25,6
1523210020700648,6,-20,-14,-16,-5,2,-15,2
1523210020700648,16,18,2,-1,-1,2,5,30
1523210020700648,-27,17,4,10,-1,-1,-14,-56
1523210020700648,-7,-14,6,8,3,-1,-4,18
1523210020722890,38,6,-3,0,1,1,-1,39
1523210020722890,-25,-31,-5,-8,-6,-7,-7,-53
1523210020722890,4,28,2,7,9,2,1,21
1523210020722890,50,30,8,0,0,1,9,-7
1523210020737747,-43,-31,-6,9,3,1,-3,2
1523210020737747,2,11,-1,5,1,-5,6,6
1523210020737747,0,-27,7,-4,0,-2,-13,16
1523210020737747,-5,-1,-5,-6,-4,3,12,-45
1523210020759806,-1,32,3,-1,1,-1,-14,-8
1523210020759806,-6,-24,-7,-13,-9,1,-6,7
1523210020760809,-4,-17,0,12,7,-1,13,-13
1523210020760809,-9,8,5,2,1,-3,-14,15
1523210020782869,4,-10,0,-6,-2,1,13,4
1523210020782869,0,39,3,6,2,-6,-25,0
1523210020782869,-2,-42,-4,-12,-12,-1,21,10
1523210020782869,34,15,0,0,3,2,-1,56
1523210020797140,-51,2,14,6,9,4,4,-53
1523210020797140,31,8,-5,6,1,-2,0,18
1523210020804928,5,-23,-10,-7,-6,-2,-3,25
1523210020804928,4,10,12,11,-4,-6,-5,4
1523210020819967,20,26,-3,-9,-4,-1,-12,-1
1523210020819967,-31,-88,-2,-1,2,0,-2,-13
1523210020820968,15,25,-2,6,-3,-5,9,16
1523210020820968,-24,51,-17,-24,-2,0,-18,-22
1523210020842064,10,-48,11,-6,-7,-4,-16,-2
1523210020842064,8,13,-9,10,7,5,30,4
1523210020843027,2,9,1,-11,-7,-1,-26,6
1523210020843027,-9,-46,-7,-1,1,-3,12,-10
1523210020865093,31,37,1,-6,-8,-4,-9,-13
1523210020865093,-18,27,7,-8,-4,1,2,5
1523210020866090,-2,-59,6,7,-1,7,-6,-37
1523210020866090,-15,2,-5,2,6,-6,12,60
1523210020880363,-11,-5,-10,2,-2,-2,-8,-41
1523210020880363,28,16,14,-3,2,-1,-1,-9
1523210020880363,21,14,-11,10,2,3,1,14
1523210020880363,7,4,5,-19,-6,1,-12,-12
1523210020902184,-14,-21,-5,8,1,-1,35,-7
1523210020902184,7,-14,-7,4,-5,-5,-14,22
1523210020903186,-19,31,0,-10,1,1,3,0
1523210020903186,-11,-14,11,11,-1,0,6,-39
1523210020916228,13,0,1,-1,3,-1,-6,6
1523210020916228,-32,9,7,15,12,2,-11,-24
1523210020925245,0,-7,-12,-10,-6,-6,7,16
1523210020925245,-30,-49,-1,-8,-5,3,-14,-34
1523210020940415,23,12,3,2,-4,-2,-10,42
1523210020940415,5,20,6,10,-6,0,3,4
1523210020940415,-15,-2,12,-2,4,-4,12,-8
1523210020940415,11,-5,-8,32,3,1,-6,9
1523210020962579,11,3,-4,-51,-6,8,-17,-5
1523210020962579,12,5,7,5,3,-2,11,20
1523210020963347,15,23,-2,9,1,-5,-16,19
1523210020963347,-8,2,-7,-7,-1,-5,2,-33
1523210020976616,-1,-25,-2,18,3,-1,1,23
1523210020976616,-15,-14,-4,-6,-7,-6,-4,-9
1523210020984405,26,27,-3,-5,-1,1,-4,19
1523210020984405,-13,-16,-6,-2,0,-2,17,-20
1523210020999451,16,-1,1,9,-1,-2,-4,20
1523210020999451,-41,-2,-3,-16,-1,5,7,2
1523210021000445,-13,-1,-3,7,1,-2,-19,-40
1523210021000445,45,23,-3,7,3,-5,7,60
1523210021022740,-33,5,-2,-14,-6,-4,-15,-33
1523210021022740,25,1,0,-5,-6,-1,17,-1
1523210021023506,2,-19,-3,-6,0,-1,-5,26
1523210021023506,-2,30,-5,-5,-3,-2,8,-24
1523210021036542,8,-20,-2,4,-8,-6,-3,8
1523210021036542,7,18,4,12,5,2,-23,-4
1523210021044602,-7,-28,3,-18,-1,-1,34,-4
1523210021044602,-7,3,-4,-3,-4,5,-1,-3
1523210021059643,2,12,-5,13,6,-3,-1,9
1523210021059643,-1,-7,0,-9,-8,-6,-12,-9
1523210021060605,-25,11,-13,-6,-7,2,-32,-41
1523210021060605,15,-18,4,1,-2,-6,14,15
1523210021082702,-23,25,-12,1,5,0,1,16
1523210021082702,11,-20,-12,-8,-4,-2,-11,-28
1523210021082702,11,-8,-7,7,1,-2,3,16
1523210021082702,-8,36,8,-5,-1,0,-22,-13
1523210021096937,2,-4,-9,-10,-9,-4,-3,10
1523210021096937,-12,-37,-4,5,2,-1,24,6
1523210021104722,7,10,-1,5,10,0,2,3
1523210021104722,0,18,15,-6,0,6,-8,0
1523210021119765,-26,-39,0,6,-7,-2,12,-16
1523210021119765,39,5,-2,-7,-1,-2,-11,31
1523210021120766,-33,-2,7,2,-9,3,11,-44
1523210021120766,32,-2,1,-3,10,-3,-1,18
1523210021141882,8,18,-4,1,1,1,-9,8
1523210021141882,11,15,-4,-7,-2,-3,9,32
1523210021142883,7,1,-3,6,0,-2,19,14
1523210021142883,-19,32,-8,-20,-10,2,-10,-37
1523210021165954,-4,-46,1,4,0,-1,1,-7
1523210021165954,-13,-14,-2,6,3,2,-19,-14
1523210021165954,0,20,6,-5,-4,-4,8,8
1523210021165954,-4,-32,-3,9,1,1,-1,19
1523210021180217,0,15,2,4,0,-7,10,-17
1523210021180217,-30,17,-8,-11,-6,3,5,-59
1523210021181033,13,-16,-7,-8,0,1,-10,-3
1523210021181033,4,-12,5,-4,-1,-2,1,4
1523210021202039,-47,7,1,8,4,0,6,-17
1523210021202039,32,-6,10,10,3,-2,-10,38
1523210021203043,-6,-51,-5,-15,-7,-6,-29,-39
1523210021203043,2,-17,1,-1,-7,3,25,5
1523210021226142,-7,60,4,0,2,2,-8,-5
1523210021226142,5,-23,-7,-4,-4,-8,-5,-13
1523210021226142,1,-6,-4,5,4,3,1,28
1523210021226142,-6,-40,-1,-2,-5,-7,-27,18
1523210021240144,-3,-23,5,-7,0,6,-9,-49
1523210021240144,-1,16,0,6,-2,1,32,0
1523210021240144,26,13,5,-1,-9,0,27,38
1523210021240144,-29,15,1,8,12,0,-14,-34
1523210021262443,-2,-4,-7,1,-7,-7,-10,24
1523210021262443,-15,-31,-4,-6,-3,-3,1,-6
1523210021263202,-1,4,6,1,1,-5,-9,-27
1523210021263202,6,31,4,4,3,5,9,6
1523210021285261,7,0,0,-1,-1,1,8,13
1523210021285261,-5,10,-1,5,0,2,-9,-10
1523210021286264,33,-4,-3,1,2,2,-7,42
1523210021286264,-44,-17,-9,-7,-10,-3,15,-11
1523210021299303,25,38,7,-4,2,2,-2,19
1523210021299303,-11,23,-1,3,7,3,19,-3
1523210021300303,40,-36,-5,1,-3,-6,-26,10
1523210021300303,-27,-5,-1,2,-2,-4,-36,-11
1523210021322595,0,-17,-16,-5,-1,6,44,-9
1523210021322595,2,-9,5,-15,-7,-1,6,-3
1523210021323363,-2,28,-6,10,4,2,0,16
1523210021323363,24,-7,-7,-5,-4,-7,-21,-21
1523210021345657,9,19,-3,-2,-4,-5,8,9
1523210021345657,-9,6,-4,-9,-5,5,-12,21
1523210021346423,-43,-23,-3,7,13,1,6,-36
1523210021346423,12,-19,8,0,-1,3,3,21
1523210021359460,9,-6,7,5,2,-4,-7,1
1523210021359460,2,25,-11,-16,-9,-5,-6,6
1523210021360461,-25,-30,11,-5,-13,-4,-8,-10
1523210021360461,-4,7,-4,-3,-1,1,26,-1
1523210021382528,20,2,1,8,14,1,-7,24
1523210021382528,8,-5,2,7,3,-3,-5,-17
1523210021383522,-43,19,10,-1,-3,-1,14,8
1523210021383522,8,-8,-4,-6,-5,3,2,-4
1523210021405581,-22,-4,3,0,-3,-11,-30,-14
1523210021405581,14,-34,3,6,5,-2,-20,17
1523210021406585,9,37,-2,-6,-2,-2,18,12
1523210021406585,12,-10,4,-2,-3,0,-20,23
1523210021419620,24,-6,-4,0,-1,2,19,-45
1523210021419620,-65,7,-4,1,2,-2,-1,-5
1523210021420624,-4,8,-6,3,-1,-1,-19,-1
1523210021420624,6,-2,4,-12,-13,-9,-1,5
1523210021442682,10,25,5,-3,1,4,1,1
1523210021442682,23,-9,7,10,5,0,-9,-5
1523210021442682,-6,12,1,6,11,3,9,-12
1523210021442682,12,-5,-8,-5,-1,-4,2,15
1523210021465747,-67,4,17,6,-13,-5,-4,-71
1523210021465747,25,23,-3,6,4,3,8,33
1523210021465747,7,-26,-21,-12,1,4,4,27
1523210021465747,-15,-14,13,-1,5,1,-3,-48
1523210021480014,26,-21,4,7,-7,-7,-6,58
1523210021480014,-9,40,-2,-6,-3,-2,-3,-21
1523210021480783,-9,3,11,-1,-3,-8,-3,-10
1523210021480783,-8,-6,-18,-4,-4,-3,-14,2
1523210021501838,0,-31,-10,-10,-2,2,16,12
1523210021501838,9,-17,9,12,20,9,6,-7
1523210021502839,-14,29,9,4,-2,0,-11,-23
1523210021502839,-1,17,1,3,2,0,15,46
1523210021526103,11,-6,-7,-4,-13,-8,-14,-39
1523210021526103,-24,-4,6,-5,-2,1,5,-1
1523210021526103,25,23,-10,2,6,-4,-4,-7
1523210021526103,7,8,-4,-5,-10,-7,-2,12
1523210021539938,-4,-17,-4,2,-11,1,-6,16
1523210021539938,41,-21,3,-1,17,13,-3,27
1523210021540942,-2,8,-4,1,14,2,13,-1
1523210021540942,-16,17,3,-7,-17,-6,-4,-9
1523210021562998,-6,-2,-33,-16,-4,-5,-20,6
1523210021562998,-1,-31,17,12,4,3,32,-7
1523210021562998,1,82,-17,-2,-10,-1,-19,-13
1523210021562998,2,-90,0,-6,0,-3,18,11
1523210021585059,9,-1,5,-1,0,-2,-12,-60
1523210021585059,18,8,-12,-7,-17,-6,5,50
1523210021586060,-34,-27,26,8,2,-1,-3,-69
1523210021586060,-34,25,-20,-6,2,5,4,-7
1523210021600100,69,28,-43,-2,4,-2,11,70
1523210021600100,-29,-35,23,8,0,-5,-11,-41
1523210021600100,16,5,0,-9,-8,-2,9,1
1523210021600100,-15,-11,-12,13,2,3,-17,-11
1523210021622157,-25,10,38,4,19,3,3,9
1523210021622157,-2,-5,-1,-12,-9,-3,9,-2
1523210021623158,-10,-12,17,0,-15,-4,-10,-10
1523210021623158,9,4,6,9,7,3,-3,-2
1523210021645458,-11,11,11,1,13,4,3,17
1523210021645458,39,0,3,4,0,1,-11,26
1523210021646220,-58,-15,16,-5,-4,-2,-17,-69
1523210021646220,17,-13,-63,-8,-4,-1,55,9
1523210021659258,-4,28,31,27,9,2,-1,-11
1523210021659258,-2,-27,-50,-28,-13,-7,-25,6
1523210021660257,53,-18,-30,-10,-9,-2,-1,33
1523210021660257,-91,32,31,11,1,-7,-13,-69
1523210021682330,-11,-27,-26,-10,-2,-1,-14,-3
1523210021682330,-29,12,31,16,2,0,10,-9
1523210021683319,25,23,0,-6,-5,0,-7,20
1523210021683319,60,-13,-43,-17,-10,-3,-9,25
1523210021705379,-37,-26,27,9,13,3,29,2
1523210021705379,-20,-16,-15,13,-12,-10,-18,-27
1523210021706382,-1,-42,-10,-35,0,3,15,19
1523210021706382,36,25,39,24,14,8,-1,20
1523210021719415,13,24,102,14,-2,4,-8,6
1523210021719415,-10,-29,-66,-58,-15,-8,-13,-12
1523210021720418,6,43,64,29,-8,-2,8,23
1523210021720418,-14,-31,5,-15,14,2,11,-10
1523210021742479,7,-25,9,15,-5,-5,-13,23
1523210021742479,52,35,-15,-17,-13,-4,-12,-5
1523210021743480,-46,20,-14,5,-1,2,10,-28
1523210021743480,-10,1,8,37,24,1,-27,-24
1523210021765546,-14,-37,-45,-28,-13,-1,24,27
1523210021765546,-11,21,11,-4,-7,-6,-13,-15
1523210021766541,16,-14,-7,4,2,0,-11,25
1523210021766541,28,9,24,33,7,3,1,21
1523210021779731,-6,9,-25,-23,-5,-4,-20,-23
1523210021779731,-28,16,24,23,-1,2,28,-9
1523210021787597,20,-32,18,9,16,10,9,16
1523210021787597,-39,12,-31,-10,11,0,-11,-6
1523210021801635,6,32,-52,-19,-15,-5,-15,-2
1523210021801635,-19,6,47,7,-5,-8,12,-11
1523210021809655,11,6,56,51,2,1,-6,6
1523210021809655,-20,-23,-17,-43,15,6,35,-8
1523210021825698,26,14,27,18,-2,3,-6,7
1523210021825698,7,30,-57,-49,-5,-3,-12,-3
1523210021826700,-9,-13,2,-5,-12,-8,5,8
1523210021826700,50,8,30,13,-10,3,4,23
1523210021838970,-45,-38,-12,18,23,3,16,-35
1523210021838970,17,17,43,43,13,5,-2,19
1523210021847769,-2,-25,46,-13,-7,-9,-7,4
1523210021847769,-11,-1,41,-13,-19,-5,-2,-24
1523210021862905,-21,20,-85,-46,-7,-9,-13,-45
1523210021862905,4,-34,14,14,8,5,12,-15
1523210021862905,-2,7,-24,0,13,6,-13,14
1523210021862905,4,25,-1,-13,-4,-4,-7,-6
1523210021885857,-14,-5,19,5,-13,-6,1,8
1523210021885857,-9,-16,-15,-3,-11,-9,-13,-7
1523210021886900,32,-41,-55,-25,-5,1,3,-18
1523210021886900,-41,57,38,28,7,0,-6,30
1523210021898899,33,-45,40,-8,1,-2,-4,52
1523210021898899,-26,8,-19,-5,0,-1,2,-14
1523210021906917,-1,1,-10,1,-1,-7,-5,-11
1523210021906917,22,4,-24,-5,-12,-7,-4,-8
1523210021921953,10,-28,-5,18,2,0,7,6
1523210021921953,4,11,45,8,9,4,-12,5
1523210021922956,-15,-16,-70,-45,-20,-10,4,20
1523210021922956,0,-15,-34,-2,-9,-8,-7,-29
1523210021946103,4,33,-6,2,3,0,-8,11
1523210021946103,3,-16,21,14,-5,3,6,14
1523210021946103,6,49,20,22,26,9,-3,4
1523210021946103,-15,-74,-20,-18,-12,-5,-18,0
1523210021959055,6,15,12,8,-5,-4,17,-13
1523210021959055,1,14,-41,-4,3,-1,-11,-1
1523210021968079,-15,-46,-21,-23,-22,-3,10,-5
1523210021968079,24,8,-1,-5,1,3,-8,4
1523210021982128,-12,-4,13,14,22,5,11,-8
1523210021982128,-14,-16,-16,-7,-1,0,-15,33
1523210021983116,0,11,9,20,3,-4,26,18
1523210021983116,-28,27,1,6,-13,-3,-6,-60
1523210022005174,0,-46,-18,-33,-11,-2,-15,2
1523210022005174,-24,-10,-49,-17,2,-1,-12,-20
1523210022006177,35,19,-14,13,1,-2,20,5
1523210022006177,24,6,21,11,-4,-1,1,34
1523210022019214,4,29,7,-26,4,6,2,2
1523210022019214,-7,-20,-28,8,7,-1,0,-19
1523210022027232,-12,30,-31,-37,-10,0,-7,-9
1523210022027232,6,-71,-2,19,26,4,13,5
1523210022042275,-51,44,67,46,-3,2,-21,-44
1523210022042275,24,-17,-55,-43,-12,0,17,22
1523210022043276,-7,-12,66,26,1,-10,-15,-18
1523210022043276,4,29,28,-28,-14,-4,6,22
1523210022065338,23,-19,-38,-3,-3,6,8,26
1523210022065338,-10,2,43,27,12,0,2,-61
1523210022066342,-21,27,0,-4,4,2,-10,-9
1523210022066342,6,-41,-30,-44,-22,-7,-7,10
1523210022088396,35,-14,41,27,15,0,3,-26
1523210022088396,-46,26,-40,-10,-6,5,24,9
1523210022088396,-23,1,49,9,-1,0,-7,-4
1523210022088396,-2,37,-22,26,13,1,-6,-9
1523210022102432,-9,-39,-71,-50,-23,-6,-1,-8
1523210022102432,20,-14,73,30,7,0,4,8
1523210022103438,3,-9,-74,-32,8,1,2,-14
1523210022103438,13,2,36,-3,-8,-1,-3,33
1523210022126728,-14,12,17,24,-8,-4,-10,5
1523210022126728,35,-10,16,9,4,3,-1,11
1523210022126728,-12,-12,-46,-20,1,-1,14,-10
1523210022126728,34,38,6,-3,4,-1,-16,37
1523210022148565,-10,-20,-27,-14,-8,-4,29,-35
1523210022148565,10,-2,52,6,-7,-2,-13,7
1523210022148565,28,31,48,34,6,-1,-18,29
1523210022148565,-32,-61,-87,-44,-9,-4,-4,-19
1523210022162648,-15,3,24,0,-2,-5,-11,-22
1523210022162648,-26,-3,13,5,-4,-1,-7,-3
1523210022162648,21,-18,-7,-2,5,4,9,-5
1523210022162648,18,74,21,29,3,2,-1,-1
1523210022185656,-6,1,-4,9,2,-1,-42,16
1523210022185656,26,-13,13,-36,-7,-4,22,1
1523210022186660,-30,-11,-4,-6,-6,2,7,34
1523210022186660,-37,-10,14,10,4,-4,-4,-38
1523210022207713,37,18,33,11,3,0,-2,18
1523210022207713,13,44,85,16,-3,-2,-3,2
1523210022208715,12,-37,-45,-3,-5,0,-15,18
1523210022208715,-8,-2,6,6,3,-3,16,21
1523210022222879,-16,2,-15,-10,-4,0,8,-7
1523210022222879,-9,8,-33,4,5,-3,0,-6
1523210022222879,12,0,0,5,-9,1,-8,3
1523210022222879,10,3,-41,-12,-9,3,3,18
1523210022246051,-12,-24,-5,4,17,-1,-5,-55
1523210022246051,2,13,51,21,2,1,-15,6
1523210022246051,-7,-12,-67,-55,-13,-6,6,-2
1523210022246051,-9,7,39,14,-1,10,27,-23
1523210022267873,22,74,-26,-18,8,0,3,29
1523210022267873,-12,-76,-30,-4,-6,-5,-35,0
1523210022268875,-22,-18,28,8,8,1,8,-30
1523210022268875,20,2,20,11,4,0,19,37
1523210022281953,17,26,-34,-16,-19,-4,6,22
1523210022281953,11,-1,-13,-3,2,2,3,4
1523210022282912,-40,-30,5,1,-5,-2,-20,-7
1523210022282912,1,23,-21,-1,-1,-7,2,-55
1523210022304972,-3,24,-9,4,-4,0,1,14
1523210022304972,-12,-7,-62,-4,2,-2,11,-4
1523210022305975,25,-21,14,-11,5,4,-9,6
1523210022305975,-61,-7,23,13,4,1,-2,-19
1523210022328270,15,-6,-28,-4,-7,-3,2,8
1523210022328270,3,10,6,-7,-6,0,-12,-18
1523210022329035,1,54,26,23,13,-2,28,5
1523210022329035,-6,-34,-14,-12,-3,-3,-16,9
1523210022342069,43,-28,4,-3,0,1,-3,-1
1523210022342069,-18,26,6,-8,-6,-7,-11,17
1523210022343072,4,16,-5,8,-2,0,-2,-13
1523210022343072,5,-1,11,-3,1,3,0,-7
1523210022365136,10,-20,12,5,1,-1,6,15
1523210022365136,1,4,6,1,3,5,4,-50
1523210022366135,-8,14,-13,1,-6,-4,-5,37
1523210022366135,21,-42,-21,-9,-1,-3,-11,-18
1523210022388192,-13,-9,19,3,-1,1,-2,32
1523210022388192,-8,-8,-15,-3,0,-4,-11,-37
1523210022389195,6,79,15,8,-4,-4,15,15
1523210022389195,-21,-35,-53,-17,-14,-9,-21,-43
1523210022410251,-11,-32,9,0,3,1,6,26
1523210022410251,15,8,-10,-8,2,5,-8,19
1523210022411253,-15,-27,12,11,4,-5,-5,-20
1523210022411253,29,23,47,9,-4,-3,5,44
1523210022425528,-29,24,-58,-8,-5,-8,-6,-64
1523210022425528,-1,-38,-26,-18,-9,-3,-7,10
1523210022427296,-9,-35,3,2,-4,-7,-19,-9
1523210022427296,5,4,28,6,6,5,6,8
1523210022448358,-45,-4,15,2,-2,-4,-12,-63
1523210022448358,34,34,-2,18,13,4,21,31
1523210022448358,58,-23,5,-5,-1,0,-6,-3
1523210022448358,-60,18,8,4,0,-1,1,-8
1523210022462625,16,-1,17,2,-4,1,4,24
1523210022462625,-5,2,9,2,-5,2,-6,12
1523210022463396,4,-14,-48,-32,-9,-1,20,-35
1523210022463396,22,12,-13,-14,-4,-8,-15,41
1523210022485452,-25,12,18,1,0,0,2,3
1523210022485452,-8,-53,-13,2,-3,-6,23,13
1523210022486453,-22,24,-1,17,1,-1,-13,-33
1523210022486453,22,16,29,-7,-5,0,-13,-16
1523210022507510,1,1,-1,0,13,7,11,43
1523210022507510,-10,-15,19,-3,0,6,24,-2
1523210022508511,-5,34,6,8,-4,-3,-8,22
1523210022508511,-40,-46,-21,-7,1,-2,-5,-29
1523210022522785,29,18,49,21,-1,2,2,-9
1523210022522785,-26,26,-36,-21,-11,-16,-27,23
1523210022523550,-4,-27,23,13,4,5,3,7
1523210022523550,15,20,7,9,-1,6,13,-8
1523210022545843,6,-31,11,-9,2,2,26,26
1523210022545843,39,16,-11,13,5,2,-4,6
1523210022546658,-67,-7,1,-4,-5,-4,-13,-43
1523210022546658,11,-5,1,7,4,4,-1,27
1523210022567670,0,-16,0,-16,-2,-3,-17,-3
1523210022567670,24,48,-1,6,-8,1,13,-1
1523210022568672,-12,-9,2,-3,-9,0,23,20
1523210022568672,51,-2,-2,15,16,-2,-6,6
1523210022582716,-93,-1,13,7,-6,-4,-12,-59
1523210022582716,-12,-8,-4,-7,11,4,7,-14
1523210022582716,34,-5,15,3,-2,1,7,38
1523210022582716,0,22,-15,-13,-12,-2,-8,14
1523210022605809,10,-26,-16,1,3,2,3,-11
1523210022605809,15,50,12,0,-2,-2,-10,11
1523210022605809,-18,-43,1,-1,2,0,-7,-24
1523210022605809,28,20,21,6,5,2,5,14
1523210022628064,13,3,-37,-14,-16,-10,-6,35
1523210022628064,-71,-31,-36,-13,-5,-4,-6,-94
1523210022628831,30,-5,18,14,9,0,-15,20
1523210022628831,-4,8,-12,-6,-10,-5,-1,-9
1523210022641866,14,-2,-7,-12,-2,6,2,18
1523210022641866,13,0,16,6,9,-2,-19,-15
1523210022650890,-10,-5,-20,-9,-8,-5,14,2
1523210022650890,-3,-13,-13,-12,-6,0,-2,3
1523210022665930,0,10,22,12,12,3,-2,-8
1523210022665930,29,32,46,13,-4,-1,14,25
1523210022666932,-24,-13,-46,-20,-8,-5,-19,-33
1523210022666932,-19,-22,21,8,6,3,5,7
1523210022687989,22,-4,-23,-10,-4,-5,-33,31
1523210022687989,-20,6,17,-3,-5,-3,33,-46
1523210022689994,13,3,1,5,1,1,-2,25
1523210022689994,-19,-9,-12,-4,-11,-4,2,-14
1523210022702026,4,-3,18,4,5,1,-6,-9
1523210022702026,39,-5,-56,-10,2,-2,-16,18
1523210022711051,-92,-28,18,-6,-7,-4,9,-31
1523210022711051,22,37,1,0,-3,0,-8,-2
1523210022726141,4,46,24,19,5,-3,14,-7
1523210022726141,3,-73,-20,-6,4,7,7,17
1523210022727092,45,16,22,3,6,3,-1,45
1523210022727092,3,-8,9,2,-3,3,-26,41
1523210022748194,-3,19,-28,-15,-9,-9,36,-51
1523210022748194,-21,-5,32,8,-5,-5,-9,3
1523210022749153,14,-33,-88,-35,-1,-1,-5,3
1523210022749153,-11,31,6,6,3,-2,-12,-25
1523210022762248,5,-3,3,4,-10,-4,-4,29
1523210022762248,-10,-12,2,-4,-4,0,4,9
1523210022771306,-2,-6,10,-4,-6,0,-13,-23
1523210022771306,16,14,-2,5,5,2,14,10
1523210022785247,-2,-8,-9,-12,6,4,-8,0
1523210022785247,-11,26,6,8,0,-2,10,-2
1523210022787253,14,13,2,4,-4,-3,-21,21
1523210022787253,-13,-39,1,-10,-8,-8,30,-20
1523210022808310,19,-12,19,8,-2,0,2,24
1523210022808310,27,38,-48,-5,7,-1,-19,-37
1523210022809311,-42,29,24,13,2,1,-11,6
1523210022809311,-4,-28,2,-2,-1,4,36,-10
1523210022821579,-26,-26,-61,-21,-1,-6,-11,-13
1523210022821579,16,-22,13,-3,-10,-3,0,42
1523210022830367,31,39,20,16,2,1,3,-7
1523210022830367,-24,-6,-5,-3,1,-3,-16,-20
1523210022845643,-6,3,-20,-5,1,-2,3,4
1523210022845643,-7,6,8,-11,-11,-2,-2,28
1523210022847419,8,-17,-45,-1,2,1,8,-18
1523210022847419,-22,-10,21,13,18,5,-26,-6
1523210022868471,29,-3,27,2,-1,0,20,14
1523210022868471,-20,-17,-28,-21,-9,-5,-31,21
1523210022869472,20,8,9,2,-10,-7,17,-22
1523210022869472,-5,-4,-13,-2,-9,-9,-11,-11
1523210022881510,-1,-13,37,14,-2,1,-16,-38
1523210022881510,-14,-22,-6,-6,5,3,-1,-15
1523210022890528,15,0,9,-4,5,4,4,19
1523210022890528,11,33,2,13,11,1,22,-1
1523210022905567,-1,-20,57,-1,-8,-3,-26,14
1523210022905567,-13,9,-31,-15,-17,-7,10,-18
1523210022906570,15,-21,15,8,15,2,3,-21
1523210022906570,-6,-39,-10,-4,-3,3,-11,19
1523210022928643,8,15,-14,-10,-7,-8,12,33
1523210022928643,-13,14,18,19,2,0,-4,-9
1523210022929636,18,6,8,1,1,-1,4,11
1523210022929636,30,12,-22,-15,-3,-1,-15,-10
1523210022941663,-50,-23,-38,3,-4,-4,-2,13
1523210022941663,22,15,5,2,-2,1,5,18
1523210022950686,-17,4,14,10,2,1,-6,-12
1523210022950686,10,11,16,3,10,8,15,14
1523210022965730,16,7,-35,-12,-6,-4,0,-14
1523210022965730,-50,-30,25,0,-4,-3,-8,-71
1523210022966729,-22,-51,-23,-20,-3,0,-12,-2
1523210022966729,-2,4,-40,-2,-4,-4,-13,4
1523210022987785,1,8,12,10,5,6,19,-5
1523210022987785,23,16,27,12,2,0,-1,62
1523210022989791,7,34,-4,-6,-7,-5,-11,-29
1523210022989791,-12,-46,-7,-12,-13,-8,6,-6
1523210023001831,-24,-7,2,11,8,6,1,-3
1523210023001831,59,9,14,6,4,-1,-4,-7
1523210023010846,-62,-33,-9,-2,-3,0,7,49
1523210023010846,-21,77,-16,-6,-8,-7,-2,-36
1523210023026097,10,-16,8,4,4,1,-9,-10
1523210023026097,-8,-34,4,17,10,3,16,-19
1523210023026889,32,24,9,-18,-6,1,-3,24
1523210023026889,16,31,6,-3,2,2,2,6
1523210023047954,-11,7,-18,-6,-11,-9,-29,-38
1523210023047954,-17,-16,-22,-5,-2,2,7,11
1523210023049950,9,45,20,14,3,1,10,-24
1523210023049950,-30,-65,18,6,4,-3,0,1
1523210023071099,11,-16,-10,-20,-8,1,-8,3
1523210023071099,5,21,-31,-9,-4,-1,5,25
1523210023072008,9,-18,6,5,5,1,-11,-16
1523210023072008,1,24,4,-8,-8,-6,17,23
1523210023085044,2,56,17,14,7,1,-11,18
1523210023085044,-28,-65,-26,-9,-10,-5,6,-35
1523210023087049,-9,11,-4,-8,-6,-2,-7,-7
1523210023087049,44,-15,10,19,17,7,9,-7
1523210023108144,1,12,-26,-8,-11,-2,-2,25
1523210023108144,-2,25,-10,-10,-3,1,3,8
1523210023109110,15,30,36,22,15,5,-17,14
1523210023109110,-13,-74,-77,-25,-13,-4,26,-14
1523210023130165,6,-9,-14,-5,0,-3,7,8
1523210023130165,-19,22,24,-5,-4,0,-24,-34
1523210023132169,19,8,-1,2,-3,-3,15,11
1523210023132169,45,19,10,17,7,7,2,51
1523210023145441,-67,-17,13,-5,-5,-5,-7,-88
1523210023145441,19,-14,-4,1,2,2,9,22
1523210023147213,6,28,-5,-4,-10,-8,-19,14
1523210023147213,-16,-20,11,-1,-4,-2,-7,-11
1523210023168266,32,37,-16,-11,3,4,8,21
1523210023168266,-34,-83,-4,7,3,-3,1,5
1523210023169268,1,26,10,1,-4,1,3,-25
1523210023169268,-22,7,-8,-12,-11,-2,-28,-2
1523210023191328,54,-8,12,13,7,0,9,47
1523210023191328,-50,19,19,6,10,1,10,-65
1523210023192330,1,-22,-17,-9,-2,-3,21,2
1523210023192330,25,-7,21,1,-10,-7,-9,23
1523210023204360,-75,-11,-6,-5,-10,-8,-26,-76
1523210023204360,16,65,1,-2,-2,-1,-7,22
1523210023211617,-9,-38,5,0,-4,-5,-2,-11
1523210023211617,13,14,17,2,1,-3,-10,-23
1523210023228574,-3,-21,11,3,-2,2,15,17
1523210023228574,9,-21,-12,-6,2,-2,-2,19
1523210023229432,-3,-13,-9,2,6,6,-23,-19
1523210023229432,16,24,3,-3,-4,-7,48,30
1523210023250483,6,2,13,4,2,4,4,-7
1523210023250483,-24,-13,-39,4,-8,-7,-22,-19
1523210023252490,4,-5,-1,-4,-8,-2,14,-34
1523210023252490,-16,2,8,-1,12,7,-10,14
1523210023264526,7,37,22,4,-5,1,-5,-18
1523210023264526,5,-37,28,-2,-5,2,12,13
1523210023271774,-8,-1,-46,-1,2,-5,-16,-3
1523210023271774,-3,42,18,-5,-6,3,-6,-12
1523210023287583,1,-41,0,3,10,3,12,-13
1523210023287583,9,28,4,-11,-4,3,-12,38
1523210023289587,-7,-5,-15,2,-7,-2,-18,3
1523210023289587,-4,-42,-11,-21,-8,-9,22,26
1523210023310879,32,13,20,1,2,-1,2,21
1523210023310879,18,30,-32,5,4,1,-8,8
1523210023312659,-12,27,22,9,-3,-8,3,-26
1523210023312659,-16,-17,4,3,5,3,-5,-13
1523210023324924,-2,-33,-30,15,-1,-4,-11,8
1523210023324924,1,4,86,14,3,5,13,-3
1523210023331703,-2,12,-71,-52,0,1,6,12
1523210023331703,-8,-17,5,8,-5,-4,-17,-14
1523210023347745,35,45,31,10,-1,2,10,42
1523210023347745,-49,-38,50,31,-1,-3,-9,-74
1523210023349747,33,20,9,-21,-8,-1,-3,33
1523210023349747,-23,-12,-10,-8,3,0,-14,-36
1523210023371039,24,38,37,8,5,1,14,5
1523210023371039,3,16,-64,-35,-15,-11,-1,30
1523210023371806,-11,-18,-36,5,3,-1,12,-16
1523210023371806,36,-30,16,6,6,6,-20,23
1523210023384843,-20,-3,-47,-29,-2,0,12,32
1523210023384843,-59,20,31,13,14,-1,-11,-86
1523210023391861,7,-13,-8,-19,-15,-4,3,35
1523210023391861,7,8,-6,8,-6,3,-6,9
1523210023407902,-5,-21,2,3,-1,-5,11,-7
1523210023407902,67,20,-14,-22,-3,-2,-4,23
1523210023409907,-59,-31,29,2,-3,-6,-3,8
1523210023409907,-16,36,15,11,-10,-9,-9,-32
1523210023430971,9,-20,18,5,5,6,-8,16
1523210023430971,-5,-6,-88,-23,6,-2,2,-29
1523210023431968,13,-39,32,15,9,6,3,18
1523210023431968,-12,35,7,-1,-2,-2,5,-27
1523210023444232,-3,-5,-6,-14,-18,-10,-26,17
1523210023444232,24,-19,10,15,-5,2,36,51
1523210023453021,3,24,14,-3,7,4,-14,-30
1523210023453021,-33,-34,-34,-20,-11,-13,-14,-15
1523210023468061,7,-8,6,0,8,-2,2,-13
1523210023468061,6,15,21,5,-12,-2,-11,11
1523210023469066,29,43,19,28,23,5,-3,-9
1523210023469066,-46,-50,-48,-22,6,5,13,18
1523210023490121,-6,-4,-8,-3,-3,-3,-17,-28
1523210023490121,43,12,18,2,-5,1,-1,47
1523210023492126,-18,1,-35,-22,-20,-9,-20,-37
1523210023492126,9,9,27,9,3,1,11,1
1523210023505160,-1,-1,8,16,3,1,5,35
1523210023505160,-25,-9,-12,-25,-5,-4,-17,-38
1523210023511415,5,18,26,16,-1,7,18,6
1523210023511415,-11,-24,-13,-8,1,-3,-13,0
1523210023528456,-6,-30,-8,-2,-6,-3,-7,-8
1523210023528456,8,54,18,26,7,4,12,21
1523210023529259,-26,-76,-42,-10,-1,-5,-9,-4
1523210023529259,12,38,10,4,-9,-1,-6,-11
1523210023550279,-3,-13,-59,-12,10,2,5,-22
1523210023550279,35,1,13,-1,8,4,1,4
1523210023552286,-50,19,10,7,-5,-3,1,21
1523210023552286,-2,5,47,19,-1,-1,-1,-4
1523210023564329,-7,-4,-34,-11,-10,-10,-4,1
1523210023564329,-14,-26,25,-9,0,1,7,-4
1523210023573340,22,-15,-29,-20,-4,-6,7,1
1523210023573340,5,14,14,13,-2,2,-2,-13
1523210023588381,4,26,8,-1,-1,3,-3,6
1523210023588381,9,-4,4,9,3,-3,-13,21
1523210023589384,2,-7,-20,12,-2,0,24,23
1523210023589384,-7,16,-23,-12,4,0,13,-19
1523210023610700,-2,-18,15,0,-1,-1,-5,-5
1523210023610700,-6,-21,-26,-11,-5,-1,0,-1
1523210023612449,6,-4,35,2,-7,-3,-6,-2
1523210023612449,0,-13,-16,3,4,0,-4,-7
1523210023624721,-5,12,11,-2,-5,2,5,-9
1523210023624721,-1,2,-6,1,1,1,-1,12
1523210023633501,22,17,14,7,9,4,-23,18
1523210023633501,29,25,-2,-5,0,-4,12,23
1523210023647544,-90,-48,-8,-11,-9,-4,-4,-56
1523210023647544,15,-7,-14,-1,-6,-6,1,37
1523210023649543,-3,0,16,1,-6,-2,-13,-13
1523210023649543,-5,16,-32,3,4,3,11,-6
1523210023670840,42,0,-2,-2,3,4,-7,24
1523210023670840,-30,13,0,4,-4,-9,-19,-22
1523210023672702,11,-6,36,17,2,2,20,14
1523210023672702,-14,-30,-57,-38,-6,3,-17,-12
1523210023683634,30,31,29,11,-3,-5,25,2
1523210023683634,6,12,-22,-2,3,4,1,6
1523210023693737,-13,-42,29,-7,1,0,-11,-28
1523210023693737,17,8,-8,10,-2,-4,3,7
1523210023707709,3,-23,-10,5,-2,1,-6,2
1523210023707709,2,-9,8,-3,5,4,7,1
1523210023709703,-5,2,0,5,9,-2,7,-4
1523210023709703,65,15,15,6,-5,-1,-17,2
1523210023730761,-66,51,3,-7,0,2,-8,-18
1523210023730761,-3,-16,-1,3,-9,-5,6,2
1523210023731762,2,-5,-8,-15,-9,-4,0,-5
1523210023731762,7,-24,8,6,6,2,4,4
1523210023744795,10,18,-1,-15,-8,-6,-8,26
1523210023744795,-3,23,14,2,11,4,-3,-17
1523210023752817,-1,-26,-21,-4,-2,0,-1,-1
1523210023752817,-9,20,18,13,0,-2,8,8
1523210023767866,15,-31,-15,-1,-8,0,7,38
1523210023767866,-8,-4,5,0,-4,-6,1,-43
1523210023769903,-8,6,-20,-13,0,-1,-16,14
1523210023769903,-8,1,23,-6,-5,5,-3,-17
1523210023790919,8,-16,1,2,8,-6,23,6
1523210023790919,6,-22,3,2,-1,0,-3,-9
1523210023791923,26,39,16,19,1,-2,15,38
1523210023791923,-34,5,4,-1,-1,0,-16,-43
1523210023803954,-7,-13,-29,-14,-5,-8,-12,-26
1523210023803954,1,-5,17,-4,-5,1,5,1
1523210023812978,-30,-38,-27,-3,0,0,4,-63
1523210023812978,-6,29,21,-6,-6,-7,-15,44
1523210023828253,18,18,-12,14,3,4,8,-15
1523210023828253,-55,-31,-29,-27,-1,-4,-2,-5
1523210023830026,38,14,29,16,-6,3,-21,35
1523210023830026,-19,-12,-58,-12,2,-5,27,-6
1523210023850077,-6,22,27,12,13,3,-23,-35
1523210023850077,33,6,-1,4,-7,-1,1,61
1523210023852081,-12,19,0,-9,-6,-3,-7,-33
1523210023852081,-12,-34,15,11,-7,5,3,17
1523210023864160,-1,-14,-71,-21,-7,-8,-7,14
1523210023864160,-15,-21,-10,-6,1,-2,-4,-29
1523210023873136,13,-1,6,10,-2,1,5,14
1523210023873136,16,7,14,16,14,5,16,-3
1523210023888177,3,28,34,5,2,6,15,18
1523210023888177,39,-17,-32,-5,-7,-1,0,3
1523210023889182,-11,11,-11,-9,-3,-2,-8,6
1523210023889182,-6,3,1,-1,-4,-7,-3,18
1523210023910474,-16,1,16,-14,-8,-1,-5,-44
1523210023910474,10,-14,1,9,0,-1,-2,13
1523210023912247,12,34,-19,2,24,6,6,15
1523210023912247,10,-8,-6,-7,0,-2,-31,-7
1523210023924509,-11,-28,28,6,-2,-1,12,6
1523210023924509,4,-4,-1,4,-12,-6,8,14
1523210023933297,-20,-14,-3,-13,-4,-3,0,-16
1523210023933297,-11,1,-16,-11,-6,-5,-8,25
1523210023948379,26,13,24,9,0,0,-18,15
1523210023948379,-16,12,14,5,5,1,9,-17
1523210023949340,-26,-28,5,-15,-12,-6,21,3
1523210023949340,4,-11,1,-5,-7,-2,-3,-14
1523210023970632,12,-20,16,21,16,4,3,22
1523210023970632,24,29,-19,-8,-3,-3,-23,-36
1523210023972402,-36,-8,-15,6,3,2,13,-26
1523210023972402,-6,24,-5,-20,-6,-4,1,-8
1523210023993458,20,-23,-5,1,-9,0,-14,40
1523210023993458,-41,-13,7,3,5,-2,23,-30
1523210023994459,21,20,14,13,1,2,5,-2
1523210023994459,-5,7,4,-5,-6,5,0,-23
1523210024007497,0,-54,-20,-2,20,2,0,12
1523210024007497,2,6,17,-4,-13,-7,-26,-30
1523210024009499,19,52,5,0,-13,2,4,8
1523210024009499,1,-55,-5,0,5,-1,1,24
1523210024030561,-29,37,2,-8,3,-4,-1,-79
1523210024030561,-7,3,20,5,-4,-3,-14,18
1523210024031560,24,12,-37,-1,6,7,-10,16
1523210024031560,-38,-6,10,10,10,-3,-17,-63
1523210024052616,7,-13,-20,-14,-23,-6,21,-11
1523210024052616,3,5,-10,-7,-11,-2,-7,28
1523210024054620,54,-5,2,8,12,0,1,-9
1523210024054620,-11,27,12,10,7,4,7,33
1523210024067661,-28,4,-17,-5,-1,-2,-7,-42
1523210024067661,-22,34,15,-6,-8,-5,-4,-10
1523210024069660,9,-39,-54,-24,-18,-6,2,30
1523210024069660,11,-56,17,18,6,-3,1,-25
1523210024090755,3,44,13,-1,-6,-1,-29,0
1523210024090755,12,0,-30,-2,-2,4,47,22
1523210024091718,-69,-10,31,-5,19,1,-10,-19
1523210024091718,15,24,17,11,9,4,-4,31
1523210024112775,19,19,-42,-6,-22,-8,-3,-7
1523210024112775,2,-27,23,11,15,7,0,43
1523210024114781,1,-7,14,13,0,-9,-2,-17
1523210024114781,-17,20,-3,-7,-21,-8,0,-48
1523210024127931,-16,-66,32,5,8,9,5,3
1523210024127931,18,20,14,-5,13,4,-5,25
1523210024133832,-30,2,-12,0,-5,0,20,-4
1523210024133832,-27,-10,-25,-12,-7,-2,-8,-29
1523210024150879,29,45,5,4,-8,2,4,11
1523210024150879,-6,-31,-1,3,4,-7,0,-4
1523210024151879,5,-18,-7,-6,-6,-4,-7,-1
1523210024151879,30,19,5,-2,-8,-2,-6,26
1523210024172987,-52,-25,-26,-4,18,5,11,-47
1523210024172987,36,-10,-7,5,6,1,-8,2
1523210024174940,-24,-3,18,3,-6,-1,-11,24
1523210024174940,-9,-17,-32,-19,-10,-5,6,-34
1523210024186972,7,20,3,-3,-1,-1,-10,41
1523210024186972,-26,-4,5,8,-1,0,6,-53
1523210024194225,13,-35,-17,-6,-4,-9,-1,-2
1523210024194225,9,28,2,3,9,3,-26,17
1523210024211077,2,-22,30,1,-3,0,34,38
1523210024211077,-13,20,-15,-7,-1,1,-18,-44
1523210024212042,11,15,17,9,1,5,4,10
1523210024212042,-3,1,0,0,9,-5,9,1
1523210024233094,55,-5,-9,0,-4,-3,-15,25
1523210024233094,-76,-8,20,4,-9,-6,-2,2
1523210024234099,21,20,1,-8,3,2,-8,1
1523210024234099,2,27,3,1,2,0,2,18
1523210024247138,-7,-16,-26,-2,-5,-4,1,-30
1523210024247138,21,0,0,2,4,4,3,25
1523210024254188,-10,10,6,7,6,-4,-22,-29
1523210024254188,-6,0,-6,-9,-13,-6,-7,10
1523210024270433,-2,35,14,6,-6,-5,-4,7
1523210024270433,15,-35,-16,-10,11,6,5,23
1523210024272198,-22,-18,-13,-5,-2,-2,-6,-42
1523210024272198,12,-23,-3,2,7,7,8,3
1523210024293490,-14,29,12,-3,-10,-8,-20,6
1523210024293490,-11,7,1,2,-7,-3,1,-34
1523210024294256,29,-14,11,-7,-9,-3,7,56
1523210024294256,-2,40,26,19,5,2,6,13
1523210024307293,-17,-17,-52,-26,-3,-4,-10,-9
1523210024307293,-8,9,-7,-7,-5,-4,-23,-59
1523210024314314,-8,-21,-1,0,0,0,11,-10
1523210024314314,10,-24,-3,-2,-5,1,12,9
1523210024330356,20,22,24,12,8,-1,-4,18
1523210024330356,41,15,1,7,-1,0,-1,36
1523210024332358,-7,-15,-11,-16,-12,0,-1,-14
1523210024332358,44,49,29,3,3,1,-14,22
1523210024353413,-45,-32,13,9,6,2,37,-12
1523210024353413,31,-41,-75,-43,-4,3,-9,21
1523210024354417,-15,1,19,12,1,-4,12,-12
1523210024354417,-2,-25,0,-3,-13,-5,-15,4
1523210024367453,13,23,22,2,4,4,-12,12
1523210024367453,-15,-8,3,10,-3,-3,15,2
1523210024374700,24,29,14,10,12,7,-17,22
1523210024374700,-32,-31,-21,0,-5,-15,9,-32
1523210024391517,-8,-10,-1,-14,-11,-3,-10,-6
1523210024391517,-21,-7,34,8,-1,3,-10,4
1523210024392519,28,-7,-30,-5,1,2,7,20
1523210024392519,-22,16,25,12,11,5,15,-42
1523210024412578,19,16,-41,1,-1,1,19,21
1523210024412578,-57,-43,3,-4,-2,-4,1,-3
1523210024414577,27,25,11,1,-6,0,-4,3
1523210024414577,26,-20,-4,-6,-3,3,-13,37
1523210024427854,-22,0,10,5,-1,-4,-3,-74
1523210024427854,16,10,-13,-9,-4,1,8,16
1523210024433626,-13,-6,10,13,7,-3,-14,-8
1523210024433626,13,-26,-17,1,12,5,14,-6
1523210024450672,11,32,-13,-17,-11,-3,-7,16
1523210024450672,20,22,31,6,-10,-8,-13,22
1523210024451674,-25,-17,-20,-10,-2,0,13,-25
1523210024451674,1,-14,-65,-26,-2,-2,-4,24
1523210024472966,-4,-16,28,3,1,4,-4,-6
1523210024472966,-8,19,6,6,-3,-3,11,1
1523210024474736,31,12,-15,-10,-6,-4,-3,4
1523210024474736,-44,0,10,0,-4,-2,1,2
1523210024486769,-3,2,-17,-5,12,4,-10,19
1523210024486769,12,-17,1,2,0,-1,6,-22
1523210024495797,-24,-13,11,-3,-5,-4,15,-8
1523210024495797,28,7,3,-4,-11,-4,-5,-23
1523210024511080,-26,-5,7,1,-7,-6,-12,-2
1523210024511080,4,28,14,-3,-5,-1,-21,25
1523210024511841,0,-3,-4,9,11,6,22,4
1523210024511841,19,-4,-23,9,-6,-4,9,8
1523210024532891,-40,16,-6,-14,0,3,-1,-34
1523210024532891,22,-9,-33,-8,-1,-2,-15,7
1523210024534898,-12,29,-26,4,16,8,-7,15
1523210024534898,19,-24,16,-1,-6,-4,1,4
1523210024546943,-27,-38,9,16,-6,-5,-5,-1
1523210024546943,-12,38,25,0,-4,-7,-20,-13
1523210024555952,2,2,5,-11,-8,0,8,-9
1523210024555952,-15,-19,-13,8,4,0,-1,1
1523210024571094,32,-5,-7,-8,-6,1,16,19
1523210024571094,-12,-20,3,-6,2,-3,-9,-41
1523210024571995,15,22,34,9,1,0,3,37
1523210024571995,-41,42,-1,-3,8,5,-6,-50
1523210024593289,1,-34,-2,4,5,1,7,0
1523210024593289,6,-7,-4,9,8,3,2,-8
1523210024595059,8,5,18,3,-3,-1,2,-2
1523210024595059,32,4,-39,-26,-11,-6,-14,35
1523210024606088,-36,-27,1,4,0,-3,-24,-49
1523210024606088,8,27,2,8,2,-2,5,13
1523210024615110,16,-6,12,5,-7,-1,1,-2
1523210024615110,-33,-25,-8,-8,0,-2,-10,4
1523210024630152,35,34,4,4,-1,-4,9,21
1523210024630152,-3,-25,17,4,2,0,2,15
1523210024632156,-2,-12,1,-7,-3,-1,-29,-57
1523210024632156,9,14,-8,5,-2,-3,30,24
1523210024653211,24,-4,-7,-4,-7,0,9,34
1523210024653211,-11,31,-2,-3,5,2,2,-1
1523210024654213,5,-3,-5,4,4,3,4,11
1523210024654213,-26,-37,9,-3,0,0,-18,-54
1523210024666244,-24,27,4,12,-1,-1,5,-6
1523210024666244,17,-21,-51,-30,-16,-4,3,6
1523210024675422,-6,34,-6,-3,0,-5,16,-1
1523210024675422,-1,-17,21,4,5,4,-5,6
1523210024690309,69,0,-6,-1,-5,-4,2,26
1523210024690309,-28,5,-1,8,-3,-3,-5,-4
1523210024692314,-49,-14,-15,-9,-12,-6,-2,-18
1523210024692314,12,-1,17,6,4,-1,-2,2
1523210024713373,6,-3,-30,-6,6,2,2,13
1523210024713373,11,0,8,7,5,2,0,-36
1523210024714373,5,14,6,-16,-16,-6,-21,-3
1523210024714373,5,3,6,1,-2,1,2,6
1523210024726641,-10,-25,10,-3,3,2,-1,-2
1523210024726641,-26,-28,0,2,2,0,5,13
1523210024735430,13,23,-22,2,-5,-5,-11,10
1523210024735430,7,19,19,6,-7,-2,9,-11
1523210024750469,22,34,40,4,-1,1,-6,16
1523210024750469,3,-25,-13,-4,14,7,-5,19
1523210024752474,-14,-30,-2,10,-4,-5,21,-19
1523210024752474,-8,3,2,-13,-4,2,-2,12
1523210024773593,-3,-3,10,4,4,0,-16,-3
1523210024773593,7,21,17,7,-4,0,19,7
1523210024774532,-8,-13,-7,-4,0,3,-8,-7
1523210024774532,28,3,-7,-3,-4,-1,-15,-4
1523210024786566,16,-8,-2,6,2,0,-9,2
1523210024786566,-68,0,-21,-13,-14,-3,43,-39
1523210024795593,-68,31,1,-6,-5,-10,-17,-10
1523210024795593,0,-22,-9,-10,7,0,-11,-5
1523210024810867,-11,-31,8,-13,5,1,-4,-4
1523210024810867,39,-43,-5,5,6,5,-7,26
1523210024811635,25,10,11,4,-6,-3,-1,16
1523210024811635,-13,56,26,5,-8,-2,4,-4
1523210024832687,-8,-11,-14,-5,-1,-1,-2,-2
1523210024832687,10,24,7,7,6,-1,-4,-3
1523210024834694,4,-10,3,-3,-1,0,-5,8
1523210024834694,-4,-16,1,-2,-3,1,18,-2
1523210024846728,-3,-11,0,-5,-2,-3,10,-3
1523210024846728,38,23,-1,-4,-10,-5,3,-7
1523210024855749,-14,-25,12,5,11,6,3,33
1523210024855749,1,21,26,19,7,1,-10,-2
1523210024871024,-47,-26,-71,-29,-9,-2,9,-35
1523210024871024,-6,-10,4,-2,0,-7,-18,-24
1523210024871791,8,-27,-6,3,0,-2,-4,4
1523210024871791,13,-20,-1,3,-3,-1,2,20
1523210024892846,-2,13,19,9,-2,1,-6,-4
1523210024892846,18,33,4,-2,1,2,-20,12
1523210024894856,14,-5,-27,-9,-3,1,14,-4
1523210024894856,12,9,7,7,-2,-2,15,-17
1523210024915908,-42,23,35,15,-1,-6,11,30
1523210024915908,-11,-6,-66,-27,1,-2,-15,-52
1523210024916914,-4,-39,16,2,2,0,-19,1
1523210024916914,0,-15,-9,-7,-2,0,4,6
1523210024930950,-5,-3,0,2,-4,-1,-4,-55
1523210024930950,0,12,32,20,5,-1,7,26
1523210024931951,-7,3,-3,-6,-6,-2,-4,-11
1523210024931951,-4,3,-31,-13,-3,-4,-8,-14
1523210024953008,28,10,14,3,-1,-2,-19,20
1523210024953008,-1,-26,-13,4,-2,7,26,49
1523210024954010,21,7,7,0,2,1,9,-98
1523210024954010,-22,64,26,4,-8,-8,5,95
1523210024976107,-10,-63,-28,-13,-8,-10,-17,-10
1523210024976107,-18,-24,28,-3,2,2,-5,4
1523210024977071,26,2,-16,-2,16,9,3,17
1523210024977071,16,18,26,22,16,7,-1,2
1523210024990341,3,37,-3,-2,-5,0,1,-2
1523210024990341,12,8,-1,-1,-13,-3,-13,-4
1523210024996135,28,-4,3,6,-10,-6,19,43
1523210024996135,-42,-38,-13,-9,-8,-5,3,-30
1523210025013170,23,62,-16,-11,3,2,-2,25
1523210025013170,-33,-24,1,-4,-6,-7,-1,-46
1523210025014169,-9,1,2,1,-2,-3,-16,15
1523210025014169,-12,-41,-5,2,6,1,-1,-15
1523210025035264,17,-27,-30,-6,2,-2,17,8
1523210025035264,25,51,0,0,-1,2,0,22
1523210025037231,-21,12,4,2,0,0,-6,-9
1523210025037231,2,-13,-5,-5,-5,-4,-9,-11
1523210025050265,2,1,23,5,2,4,-7,-6
1523210025050265,4,16,2,3,1,-2,8,3
1523210025052271,-15,-39,-23,-24,-12,-7,-27,3
1523210025052271,67,-26,-11,-2,-1,3,21,-3
1523210025073567,-12,27,8,-6,-6,-4,-15,8
1523210025073567,-38,26,8,4,2,-2,13,-9
1523210025074330,-11,-93,-34,-5,13,5,-17,4
1523210025074330,15,16,0,0,-5,-2,-5,-2
1523210025095396,7,-1,7,9,2,-1,20,-6
1523210025095396,28,50,9,0,-8,-1,-2,12
1523210025097391,5,38,26,5,-2,-6,-4,-7
1523210025097391,-17,-23,-10,-9,-2,0,-21,15
1523210025110463,9,-23,-11,3,1,4,29,-10
1523210025110463,1,42,-12,-7,7,-1,-10,12
1523210025116446,-24,-18,6,3,-4,-4,-7,-50
1523210025116446,-22,-18,-10,-6,-6,-5,-10,-18
1523210025132484,11,42,-8,4,-2,-1,-13,9
1523210025132484,-38,-73,-4,-3,5,1,15,-34
1523210025134490,2,30,2,5,1,0,-2,3
1523210025134490,-8,15,3,0,-4,-3,0,7
1523210025155547,1,-17,13,-1,-5,-3,-13,-3
1523210025155547,20,-41,-16,-2,-5,-5,2,-2
1523210025156550,9,9,0,1,-10,-2,11,17
1523210025156550,-69,70,28,13,15,7,12,-41
1523210025169799,-25,-47,-42,-7,7,1,-12,-9
1523210025169799,10,1,-1,-4,-6,-4,-28,32
1523210025176836,-12,-64,16,-1,-9,-2,13,-25
1523210025176836,40,9,-4,-9,-10,-1,-21,22
1523210025193645,1,19,11,12,15,5,30,-1
1523210025193645,0,-12,3,2,-4,2,-24,1
1523210025194653,21,26,19,-4,-3,-2,41,56
1523210025194653,-23,15,-22,-4,0,0,-7,-36
1523210025215706,11,-13,-46,-18,-9,-4,-24,-3
1523210025215706,-12,-19,14,-1,-1,-1,26,-1
1523210025216711,5,17,-3,-4,-3,-4,-6,24
1523210025216711,40,-23,2,3,6,0,10,6
1523210025229751,-22,-6,9,2,0,-3,-28,-5
1523210025229751,-10,24,-10,-10,-5,-1,29,-35
1523210025236760,44,11,1,2,2,0,-37,-35
1523210025236760,-35,-9,-50,-18,-6,-5,5,1
1523210025252804,20,8,17,-1,-11,-7,-1,6
1523210025252804,-20,-48,4,0,-2,2,-40,-37
1523210025254811,25,49,-5,9,18,7,40,10
1523210025254811,-26,-2,9,0,-5,-13,-30,3
1523210025276068,-2,-26,8,-8,-6,5,18,0
1523210025276068,8,7,-22,6,17,4,-21,19
1523210025276867,-4,11,4,0,-3,1,5,10
1523210025276867,6,-19,6,-4,-8,-1,2,-6
1523210025289903,-6,16,8,-6,-8,-1,7,6
1523210025289903,17,13,18,3,-2,1,-4,13
1523210025303942,-20,36,0,-1,8,-2,3,-23
1523210025303942,13,-23,-45,1,0,-1,3,38
1523210025312969,-17,-17,30,-8,-8,-3,-8,-21
1523210025312969,30,-2,9,6,15,1,3,25
1523210025314969,-47,-19,-20,-10,-11,-2,24,-13
1523210025314969,-8,10,8,-5,-5,-1,0,-28
1523210025335024,12,-2,12,6,1,0,4,-4
1523210025335024,0,9,-2,0,-3,-2,-11,12
1523210025337027,8,-31,-10,-4,1,1,-11,2
1523210025337027,-6,45,14,1,3,2,29,-2
1523210025350064,-1,-30,1,-6,-1,-4,-13,4
1523210025350064,-53,-26,3,-4,-7,-4,11,-25
1523210025356088,28,4,-11,6,-4,-2,-13,35
1523210025356088,-3,-9,4,-4,-6,0,5,-44
1523210025373358,-12,19,-6,3,8,-4,7,4
1523210025373358,27,-1,42,13,7,0,2,1
1523210025374362,-20,-30,-58,-17,-9,-1,-16,4
1523210025374362,1,2,15,1,-4,0,-10,5
1523210025395189,16,18,-13,13,10,2,11,12
1523210025395189,17,10,-3,-7,-8,-6,4,3
1523210025397187,-58,1,21,5,-2,-1,-13,-7
1523210025397187,-3,-39,4,-7,-2,-7,-2,-10
1523210025409219,15,22,-22,-5,-4,-1,-21,-15
1523210025409219,11,-13,-6,-4,-7,-1,14,24
1523210025418243,9,15,3,4,7,2,-7,-11
1523210025418243,-6,-10,-7,0,-1,0,-16,-15
1523210025433283,-12,-7,20,1,1,1,-1,13
1523210025433283,-1,-18,-24,2,7,6,18,-3
1523210025434286,5,42,16,-9,-6,-7,-1,-9
1523210025434286,11,-26,10,3,-3,-1,-6,11
1523210025455345,2,2,-11,-5,-9,-3,-5,-11
1523210025455345,-10,-13,3,-4,0,-1,-20,17
1523210025457347,-9,15,19,4,-4,-12,8,-41
1523210025457347,15,-6,-3,2,0,-2,1,6
1523210025469379,-14,2,4,3,1,1,4,19
1523210025469379,20,33,-8,-3,-3,-2,-16,-23
1523210025478409,-5,-38,-9,1,-4,-1,-2,25
1523210025478409,-14,3,15,1,2,1,0,2
1523210025493604,-6,29,-31,-2,11,1,2,-41
1523210025493604,3,-6,-5,-12,-9,-5,-5,-1
1523210025494447,1,-14,6,6,2,5,-4,2
1523210025494447,5,7,4,-2,4,1,27,4
1523210025515502,-5,-9,-5,6,0,4,-20,32
1523210025515502,-20,-10,-6,-5,-11,-4,35,-59
1523210025517509,-10,2,10,-4,-6,-4,-13,9
1523210025517509,-1,5,-45,-1,9,2,-11,-6
1523210025529544,9,9,23,0,6,1,3,-10
1523210025529544,19,-31,-7,-7,-6,-3,-12,26
1523210025538563,-51,10,3,6,-4,-3,-2,10
1523210025538563,23,-19,11,-5,-3,0,3,-33
1523210025552601,4,41,8,1,-5,-4,-2,29
1523210025552601,-41,-14,-46,-3,-2,1,7,-35
1523210025554606,27,-23,12,-5,1,2,-17,-18
1523210025554606,28,20,-7,3,0,-4,-11,46
1523210025575897,-38,-19,-1,-3,-1,0,24,-42
1523210025575897,26,38,14,3,-2,-4,-14,23
1523210025576665,2,-22,-1,0,2,2,-1,16
1523210025576665,-11,12,4,8,6,-1,6,0
1523210025588696,23,-25,23,5,6,2,1,7
1523210025588696,-20,7,-43,-12,-3,0,-4,-31
1523210025597720,-3,9,8,-2,-5,-2,2,-10
1523210025597720,2,-8,-3,-1,-11,-3,-12,4
1523210025612822,10,18,20,5,-2,-1,7,4
1523210025612822,-11,10,14,12,23,5,4,10
1523210025614766,20,-4,-11,-5,-2,-1,3,23
1523210025614766,-6,2,1,-5,-6,3,-17,-38
1523210025635823,-29,-20,-12,-6,-13,-10,14,12
1523210025635823,10,-1,10,5,-5,-2,1,26
1523210025636823,-2,2,5,3,0,0,-7,-3
1523210025636823,4,19,9,1,7,-1,12,44
1523210025648856,-10,-54,-12,-5,-2,-1,-13,-52
1523210025648856,-4,25,9,3,-3,-3,-1,16
1523210025657926,14,-11,5,-2,2,-2,-1,0
1523210025657926,-6,9,0,-4,-16,-2,6,0
1523210025673156,20,2,-11,4,25,4,-17,15
1523210025673156,12,12,4,-2,0,0,38,5
1523210025674925,-18,-18,-11,-2,-6,-3,-8,-19
1523210025674925,11,-7,-6,-2,-1,1,-1,27
1523210025695984,2,1,0,-5,-7,0,-11,-49
1523210025695984,-7,5,17,1,-4,-4,-5,12
1523210025696986,-6,43,-15,-10,-5,-3,-8,-8
1523210025696986,-22,-50,0,4,1,0,8,0
1523210025709251,16,0,9,7,7,2,-6,39
1523210025709251,0,4,-2,-8,0,-1,2,-28
1523210025718039,13,36,-2,1,-3,-1,-3,15
1523210025718039,-10,-31,-2,-5,-5,-2,14,-3
1523210025733080,50,11,-4,-2,-8,-7,-23,-4
1523210025733080,-46,-24,6,1,-7,5,-4,-12
1523210025734084,11,-26,7,3,13,1,29,13
1523210025734084,-11,7,-28,-7,7,2,-7,-7
1523210025755138,12,19,-7,-3,-4,1,8,-6
1523210025755138,15,-5,4,3,-5,-4,-10,34
1523210025757144,-40,-20,0,-3,-5,2,-17,-97
1523210025757144,8,7,14,3,3,-5,2,17
1523210025769411,-17,6,-10,-8,-5,-1,5,9
1523210025769411,14,-16,-38,-12,-6,-2,5,11
1523210025778202,-20,19,2,1,4,3,-4,19
1523210025778202,-18,-22,6,-5,-2,-4,-23,-49
1523210025800259,-4,2,-3,6,5,3,17,-6
1523210025800259,1,4,14,5,0,-2,-2,5
1523210025802264,35,10,-12,-8,-2,-2,4,17
1523210025802264,-21,0,2,-3,-3,0,-12,-8
1523210025815298,-24,-12,15,-1,-12,-7,-3,9
1523210025815298,6,-11,0,6,7,4,0,-14
1523210025817304,18,-33,4,5,12,0,14,51
1523210025817304,45,50,-20,-5,-6,-5,-21,-17
1523210025829339,-70,-26,-2,-1,-3,-2,16,8
1523210025829339,8,30,-2,8,1,-3,-6,12
1523210025838361,-6,-15,-4,-10,-8,2,-25,-33
1523210025838361,13,-2,4,-3,-1,-2,46,13
1523210025860418,36,-30,-5,-3,6,1,-14,1
1523210025860418,-71,-15,11,-3,7,-1,-5,-8
1523210025862429,1,6,-15,-3,-3,-1,3,2
1523210025862429,-8,8,12,4,-4,2,-11,-8
1523210025875697,16,21,-18,-1,0,-3,5,0
1523210025875697,1,-11,3,-2,-8,-5,2,0
1523210025877468,33,-3,8,6,4,4,0,8
1523210025877468,-21,-10,1,-5,0,-2,-14,-18
1523210025897517,28,60,2,-5,-7,0,11,18
1523210025897517,-12,-43,-2,-1,4,-3,0,-1
1523210025899522,-6,-26,-6,-5,-13,-7,4,25
1523210025899522,-3,-4,-2,6,17,5,-3,-31
1523210025912562,39,15,14,4,-3,2,-22,10
1523210025912562,-60,0,-7,-2,-4,-2,-17,-45
1523210025914562,8,24,-7,0,-4,2,20,10
1523210025914562,3,-7,-4,0,-6,-4,-6,28
1523210025935618,1,-13,0,-4,-1,-3,-1,-29
1523210025935618,-26,-7,8,-2,-5,-1,6,-5
1523210025936622,24,11,2,4,0,-5,-9,31
1523210025936622,-16,10,-12,-6,4,5,-13,4
1523210025957912,-42,-44,-4,-8,6,-2,12,-14
1523210025957912,35,8,-9,-1,-4,-4,-1,-4
1523210025959685,-11,-17,13,2,0,3,4,-9
1523210025959685,29,14,-1,3,-6,-4,1,29
1523210025972952,4,25,-7,-2,-6,-4,-30,20
1523210025972952,-14,-20,7,0,0,0,36,-36
1523210025974721,-10,8,-1,-5,0,-4,-4,2
1523210025974721,6,37,-5,-6,-2,-1,3,-8
1523210025995782,-29,-74,0,-2,-3,1,-5,11
1523210025995782,40,33,15,3,0,0,-13,15
1523210025996780,-7,52,-13,-1,4,-1,-8,-19
1523210025996780,-42,-32,-14,1,-2,-4,1,15
1523210026017839,-27,-17,8,5,9,-1,-2,-60
1523210026017839,81,11,11,-2,-4,1,-10,50
1523210026019842,-53,7,5,-1,-5,-1,12,-9
1523210026019842,27,16,21,1,-2,-2,-15,15
1523210026031873,10,-7,-7,-1,-11,0,15,9
1523210026031873,7,21,-16,-6,-3,1,10,16
1523210026038894,-5,12,4,6,7,-2,-12,-38
1523210026038894,-18,-36,-23,-2,5,0,3,-29
1523210026054935,-26,-34,-7,1,0,-4,-13,-39
1523210026054935,16,27,-5,-3,-4,2,12,6
1523210026056940,16,-13,-5,-7,-5,1,12,12
1523210026056940,2,14,5,-1,-3,-1,-3,15
1523210026077996,6,38,-2,-3,-2,1,34,-5
1523210026077996,42,-41,1,4,-2,-3,-37,18
1523210026080002,-20,18,-1,-7,0,3,12,-6
1523210026080002,-61,-14,-16,-9,-5,-5,0,-10
1523210026092033,-11,-24,3,-4,-15,-9,-13,13
1523210026092033,3,-25,0,11,28,4,-3,3
1523210026099053,22,-24,0,3,-2,-1,7,-5
1523210026099053,34,25,7,3,2,4,1,5
1523210026115099,0,31,-3,2,-5,-4,-14,16
1523210026115099,-24,-18,-7,-7,-8,4,-7,-6
1523210026117102,15,-7,1,-2,4,-6,2,-3
1523210026117102,-20,-19,16,13,3,-7,1,-3
1523210026138155,9,73,-33,-18,-14,-4,3,-7
1523210026138155,-48,-64,-18,-12,-14,-7,-5,-25
1523210026139159,0,-44,11,10,17,3,-12,17
1523210026139159,16,-11,-6,5,5,6,1,13
1523210026152195,15,8,20,10,6,0,7,9
1523210026152195,5,47,6,7,5,1,-26,-1
1523210026159447,-3,6,-16,-8,-13,-6,14,-10
1523210026159447,-8,-16,10,3,0,-1,1,-3
1523210026175490,-3,37,15,-3,-2,-2,-1,-2
1523210026175490,-10,-32,-4,-14,-14,-7,-9,-3
1523210026177263,8,-23,5,7,13,5,-17,12
1523210026177263,35,9,2,3,10,9,14,29
1523210026198316,-25,24,-12,-6,0,0,-10,-64
1523210026198316,-11,4,1,1,-8,-7,36,24
1523210026204332,-8,19,-3,0,-8,-1,0,7
1523210026204332,21,-28,-6,-11,-10,-5,-32,-19
1523210026212360,29,-12,9,8,3,0,5,45
1523210026212360,-10,11,-1,3,11,4,-9,-17
1523210026219615,-16,-13,6,1,-5,-4,3,-14
1523210026219615,19,27,-1,-6,-6,-3,14,20
1523210026235415,-28,-41,4,-2,-2,-1,-18,-55
1523210026235415,21,65,10,3,4,4,6,-18
1523210026237421,-7,-17,-14,1,1,-3,-2,6
1523210026237421,-30,-30,1,-12,-15,-6,-11,-21
1523210026258540,15,-13,3,13,17,4,8,30
1523210026258540,48,17,4,3,9,3,3,17
1523210026259478,-47,8,-12,-7,-7,-2,-5,-20
1523210026259478,23,8,4,3,-2,-4,-2,-6
1523210026271746,-21,-27,0,-4,-6,0,17,27
1523210026271746,11,17,0,-1,-3,-2,-15,-62
1523210026280534,34,32,0,-2,2,-2,-9,40
1523210026280534,5,-26,-7,-1,-2,-4,2,-12
1523210026295575,-26,19,-2,-7,1,1,8,-23
1523210026295575,-14,-19,4,-3,-1,0,1,-3
1523210026296577,8,-17,2,6,-5,0,-13,3
1523210026296577,2,39,-2,-8,-6,-1,0,19
1523210026317636,25,2,-5,3,-4,-4,1,15
1523210026317636,9,-16,13,-5,7,7,21,46
1523210026319638,-8,17,3,-9,-4,0,-11,-45
1523210026319638,25,-1,8,4,13,3,-2,42
1523210026332674,-5,4,2,-4,-10,-6,-2,-7
1523210026332674,-26,-22,-7,-5,-12,-6,-11,-2
1523210026339741,15,-4,-12,-16,-10,-2,2,8
1523210026339741,0,-1,-6,7,15,5,-10,-21
1523210026355745,-7,-21,-2,0,-2,2,14,21
1523210026355745,5,36,-3,1,-4,-7,-2,1
1523210026356806,10,-29,11,-1,-5,-2,9,2
1523210026356806,-17,8,-33,-3,4,3,7,-3
1523210026377797,-12,3,12,-2,-3,-4,-13,-38
1523210026377797,-12,-24,-8,-3,2,0,3,-1
1523210026379798,18,13,-2,-3,-4,1,0,-8
1523210026379798,-66,16,21,1,-5,-9,2,0
1523210026391830,12,-33,6,6,4,5,-10,7
1523210026391830,-2,3,-13,-10,0,0,-4,4
1523210026400855,9,31,10,10,6,-2,3,-3
1523210026400855,14,-21,9,-1,-6,1,14,7
1523210026415894,-6,13,-4,-2,-2,-5,-26,-39
1523210026415894,-6,-3,26,8,-4,0,8,3
1523210026416899,12,14,-23,0,2,-4,-20,17
1523210026416899,-8,-14,27,-5,-8,-4,4,-6
1523210026437952,2,-39,-17,-5,-5,1,6,34
1523210026437952,30,17,10,4,10,2,8,-25
1523210026439958,-30,-32,0,7,11,5,6,10
1523210026439958,-3,-3,-4,-2,-6,-3,-11,-2
1523210026452007,32,11,4,1,-2,0,-3,-5
1523210026452007,-31,-40,-15,-7,-1,-8,-6,8
1523210026461018,17,25,3,-3,-8,2,17,23
1523210026461018,-18,-9,-4,-1,0,-1,5,-19
1523210026476098,19,-3,4,0,4,5,24,41
1523210026476098,-5,30,-17,3,-4,-2,-16,-18
1523210026477060,-13,-8,1,-1,1,0,-8,-26
1523210026477060,-14,9,-7,0,2,2,16,-5
1523210026498119,-1,-13,0,-7,-4,-5,-7,16
1523210026498119,5,33,3,-4,-5,0,-4,13
1523210026499116,-19,-49,-11,0,6,1,-6,-33
1523210026499116,10,23,-6,1,0,0,15,41
1523210026511151,0,-10,-10,0,3,-1,-8,-3
1523210026511151,-23,39,2,0,-7,-3,-8,-20
1523210026520406,5,-51,-39,-14,-16,-4,-23,3
1523210026520406,42,3,7,11,22,1,26,7
1523210026535212,-52,6,8,-2,0,2,9,-11
1523210026535212,18,0,-3,-1,-9,-3,-2,7
1523210026537217,-3,8,23,-1,-8,0,-5,17
1523210026537217,17,-2,-9,-4,-1,-1,-5,32
1523210026558272,-18,-33,-9,5,0,-3,-13,-33
1523210026558272,34,52,4,0,3,2,7,25
1523210026559283,-25,-25,8,-2,3,1,8,-34
1523210026559283,10,7,5,-5,-9,-4,-23,-8
1523210026571543,13,44,-6,5,4,2,8,39
1523210026571543,-6,-56,-16,-5,-3,-4,1,16
1523210026580330,-3,13,-1,-5,-4,-7,7,-3
1523210026580330,17,25,-5,7,-1,3,-18,-10
1523210026595372,-47,0,-3,-1,0,0,12,-39
1523210026595372,-26,-29,-5,-3,-6,-4,-11,-5
1523210026597376,1,-8,-4,0,-4,-3,9,3
1523210026597376,26,33,-2,-4,-8,3,-14,3
1523210026618564,-1,-15,-3,5,13,3,14,-6
1523210026618564,-37,-10,-12,1,2,1,5,-10
1523210026619434,32,-9,3,-3,2,-4,-12,-2
1523210026619434,-13,-3,-5,-6,-13,0,13,-7
1523210026631467,1,-1,-11,-8,-10,-4,-13,11
1523210026631467,-8,-20,11,5,8,-5,-9,-24
1523210026640489,3,10,-4,2,-6,-3,7,35
1523210026640489,-7,0,-4,-7,-4,-2,-9,-23
1523210026655532,-3,7,6,-4,-4,-2,-8,10
1523210026655532,32,-29,-7,-1,-2,1,12,10
1523210026657619,-59,16,-3,-6,-1,-3,-10,-10
1523210026657619,-30,6,1,-7,1,0,2,-20
1523210026677594,27,13,-2,1,1,2,18,20
1523210026677594,-2,-16,8,-8,-7,-3,-13,-7
1523210026679596,-5,28,10,0,1,0,6,5
1523210026679596,-6,-11,-3,6,6,2,10,-11
1523210026691626,1,-21,-4,4,-7,-7,-17,-2
1523210026691626,3,15,-5,-6,2,2,-4,6
1523210026700651,18,-16,-3,10,7,0,11,1
1523210026700651,-14,17,8,-1,2,-2,-19,-22
1523210026715693,19,-7,-11,-8,-6,0,19,36
1523210026715693,-11,-7,-8,4,-5,0,0,-23
1523210026716696,8,10,-15,-8,-3,-1,-3,-12
1523210026716696,-25,-38,-11,4,-2,-5,-10,-11
1523210026737750,5,-20,2,-2,2,3,-3,14
1523210026737750,16,20,-5,1,-1,-1,-13,12
1523210026739755,20,71,0,0,-1,0,32,11
1523210026739755,-34,-61,-12,-1,-3,-8,0,-27
1523210026751787,43,-10,8,0,-3,0,-10,0
1523210026751787,-31,0,10,-2,-2,4,-5,-3
1523210026760815,-11,27,-1,9,8,-5,-27,-19
1523210026760815,2,-14,12,-6,-10,-4,-7,-25
1523210026775083,19,27,-6,4,1,-1,9,9
1523210026775083,-12,-27,3,2,6,0,0,-62
1523210026781867,9,-18,4,4,6,8,-8,20
1523210026781867,-6,53,7,-8,-2,-1,5,22
1523210026797909,-15,-21,2,3,-5,-4,-19,-28
1523210026797909,3,15,-5,-3,-7,-6,5,20
1523210026799954,-5,-16,-2,2,-3,0,26,1
1523210026799954,6,-4,-2,4,2,0,-15,-25
1523210026821091,-4,9,2,-2,4,-1,-4,16
1523210026821091,14,41,2,4,2,3,-14,16
1523210026821972,-13,-51,1,-2,-5,-7,3,-19
1523210026821972,35,2,-15,2,-4,-2,25,45
1523210026835008,-65,-6,4,-3,-1,-3,-13,-13
1523210026835008,5,13,-13,5,2,-3,-9,3
1523210026837019,30,-6,6,-3,-6,-1,-6,-12
1523210026837019,-29,-18,0,0,-2,0,1,32
1523210026858305,4,19,2,-1,-1,3,2,-22
1523210026858305,3,10,-2,-1,6,2,13,22
1523210026860078,9,12,-6,-1,-4,-1,-8,13
1523210026860078,5,1,-9,-4,-1,-2,-12,-1
1523210026880127,10,-54,-11,-9,-4,1,6,21
1523210026880127,-11,-5,14,4,0,-2,8,-4
1523210026882133,9,-14,10,-3,-2,1,-16,10
1523210026882133,-14,4,13,-7,1,-5,-5,-43
1523210026895167,-5,33,1,2,-11,-2,-11,6
1523210026895167,15,-36,-5,-13,-5,-6,-9,-1
1523210026897172,-20,-38,-9,1,1,5,-3,-19
1523210026897172,18,26,-5,7,13,0,13,67
1523210026918464,-9,-6,-2,-9,-4,-2,-23,-60
1523210026918464,5,-21,1,-11,-11,-6,2,11
1523210026919232,1,40,-4,1,-6,1,24,13
1523210026919232,27,10,-3,1,8,1,-27,-10
1523210026940523,-34,0,6,13,4,-7,9,15
1523210026940523,-17,-12,-4,-9,-5,2,5,-11
1523210026942292,1,-26,6,-1,2,-1,0,33
1523210026942292,-11,46,-3,-6,-12,-3,16,-47
1523210026954326,47,-4,-9,-4,4,-1,-13,15
1523210026954326,-71,-11,0,1,-1,1,15,-1
1523210026969600,-16,-17,-17,-4,2,-1,-5,26
1523210026969600,-17,-8,8,-3,-9,-3,-8,-56
1523210026978391,17,-2,0,7,17,0,3,13
1523210026978391,27,15,-9,-10,-14,-3,8,12
1523210026984443,7,2,1,-2,-3,-3,1,-5
1523210026984443,-4,-22,9,7,0,3,13,31
1523210027000451,-16,50,0,2,-7,-2,-6,-56
1523210027000451,13,-37,-4,3,11,4,-12,-7
1523210027002452,12,44,3,-2,-4,-6,5,-3
1523210027002452,15,-46,-9,-3,-4,-2,-22,-11
1523210027014485,11,5,11,-2,4,2,6,15
1523210027014485,3,-13,-3,3,2,-3,9,-2
1523210027021738,-31,32,11,1,-4,-4,-24,-62
1523210027021738,-8,-47,-10,-9,-6,-1,13,26
1523210027038588,2,-15,-2,-5,-1,-1,-11,10
1523210027038588,57,30,-2,-3,-9,-4,1,8
1523210027039551,-60,-15,-3,1,10,2,-12,1
1523210027039551,-2,-2,-2,-1,-1,0,4,-2
1523210027060615,-19,0,-2,-3,-5,0,4,-8
1523210027060615,23,-7,-1,-1,-2,-2,-19,25
1523210027061615,29,9,1,-1,-2,-2,-6,17
1523210027061615,-23,-12,0,-12,-5,3,-1,-40
1523210027074880,-1,10,1,-7,-2,-5,10,12
1523210027074880,-8,-3,8,9,-1,1,19,-9
1523210027081664,14,2,6,5,5,3,-19,3
1523210027081664,-3,3,6,7,14,8,-3,12
1523210027097707,26,4,-5,-5,-8,1,2,20
1523210027097707,-6,19,0,2,2,-1,-19,2
1523210027099714,-51,3,-6,-6,-12,-3,18,-41
1523210027099714,4,-3,-3,2,-1,1,4,15
1523210027121003,-1,7,-5,-5,-1,0,19,21
1523210027121003,-9,-20,4,1,-1,-1,-10,9
1523210027121770,21,2,-2,-1,-1,0,-4,-2
1523210027121770,13,14,-1,1,-1,-3,16,18
1523210027134805,-30,9,4,1,7,0,-41,-40
1523210027134805,52,22,-5,-2,-4,-2,33,2
1523210027141822,-23,-21,0,-8,-6,-1,5,10
1523210027141822,-5,-40,-1,-3,1,-2,0,-13
1523210027157921,16,31,-2,1,2,2,-6,26
1523210027157921,-22,-23,-3,0,1,1,4,-86
1523210027159872,15,7,9,4,6,1,-5,4
1523210027159872,17,6,0,0,-8,-1,-3,-7
1523210027180927,-45,-22,-5,1,-6,-8,-14,-2
1523210027180927,-13,19,4,3,1,0,8,8
1523210027181930,1,-18,-8,-8,-4,-1,-5,-2
1523210027181930,0,9,5,-1,2,1,11,-2
1523210027194970,20,-13,-6,-2,-4,-5,1,1
1523210027194970,-11,6,-4,-3,1,-1,9,-1
1523210027201982,11,37,0,7,3,2,-1,22
1523210027201982,-25,-44,-8,-2,-4,-9,-12,-31
1523210027218261,-14,-17,-3,-9,-12,0,8,-20
1523210027218261,-8,-10,-1,-7,5,-1,-21,21
1523210027220187,19,26,0,6,15,5,6,7
1523210027220187,-4,1,-7,1,-3,4,-7,-31
1523210027240324,45,-4,4,0,-4,-7,-6,-43
1523210027240324,-54,7,-1,-2,-6,-4,-10,14
1523210027242089,1,-6,2,-7,-6,-3,-10,-23
1523210027242089,-5,10,5,0,5,-1,-5,25
1523210027255126,55,-2,5,0,0,1,-3,8
1523210027255126,-5,38,-7,6,2,1,1,13
1523210027261141,8,-26,-11,-5,-3,0,3,-10
1523210027261141,3,-3,-9,-7,-9,-7,7,20
1523210027278197,2,11,1,7,3,5,-2,3
1523210027278197,6,-20,3,5,25,5,7,-9
1523210027279189,-7,3,4,-3,-8,-1,-1,5
1523210027279189,5,27,4,-6,-6,-4,-6,26
1523210027300245,-23,-43,-11,-5,-5,-1,8,-11
1523210027300245,3,0,-2,0,-2,0,-24,2
1523210027302250,24,12,1,0,0,1,-7,11
1523210027302250,12,28,-2,0,-1,0,-2,18
1523210027314280,-12,-11,5,-2,-4,-6,7,5
1523210027314280,23,-15,-4,6,-6,-2,-13,-10
1523210027323305,-17,-18,-2,-6,3,1,2,2
1523210027323305,-4,-1,-3,3,0,2,-7,-9
1523210027338516,-15,42,-12,-2,5,7,13,6
1523210027338516,45,-38,1,-5,-5,0,1,5
1523210027339347,-11,23,-3,4,-6,-9,-8,7
1523210027339347,-16,-22,7,-1,-3,-4,-5,-10
1523210027368539,0,-23,2,-3,-1,0,-1,-6
1523210027368539,20,30,7,1,10,3,12,62
1523210027369427,-16,-13,1,-5,-3,-1,-18,-52
1523210027369427,1,-10,-6,1,-1,-4,-2,20
1523210027374676,13,7,-13,-4,-2,0,18,9
1523210027374676,-27,-8,-11,-11,-16,-8,-21,-9
1523210027383466,-9,24,7,12,7,1,20,-9
1523210027383466,27,-25,-2,-2,-1,1,-7,35
1523210027397501,-23,-12,1,1,-3,1,-13,-1
1523210027397501,-19,13,3,3,5,-2,0,-23
1523210027399508,7,-19,-10,-3,-7,-5,26,3
1523210027399508,-3,-1,5,-2,-1,2,-9,-26
1523210027420799,2,11,2,4,4,0,-3,16
1523210027420799,-21,6,5,-7,-6,-3,-2,-9
1523210027422656,22,-15,-7,-4,-10,-8,-21,25
1523210027422656,50,44,6,7,10,4,26,-25
1523210027433599,-91,-13,2,-2,0,-2,-18,-44
1523210027433599,-10,-38,-10,-7,-2,3,11,-12
1523210027442626,3,-8,2,2,-1,-5,-2,15
1523210027442626,25,15,1,3,0,2,-15,15
1523210027457898,14,8,2,-5,-2,-3,9,-5
1523210027457898,-9,-1,3,6,-2,-1,-10,-7
1523210027459669,6,1,-1,-5,-4,1,4,5
1523210027459669,-23,-13,-5,2,3,0,2,-37
1523210027480724,27,30,-2,7,5,0,21,35
1523210027480724,-27,-24,-10,-1,-7,-8,-3,-43
1523210027481726,10,-2,3,4,3,1,-14,-3
1523210027481726,-22,25,-3,-1,-3,-6,-13,16
1523210027493764,0,-66,0,-6,-2,-2,-3,8
1523210027493764,3,11,3,-1,-5,1,2,2
1523210027502783,24,-1,12,-2,-2,0,8,13
1523210027502783,-59,12,-9,-6,-3,-3,2,-37
1523210027518039,25,-4,7,10,9,3,1,32
1523210027518039,40,3,-8,-8,-7,-3,2,11
1523210027519828,-50,7,-7,1,2,1,-13,-9
1523210027519828,15,-15,9,3,-4,-2,25,52
1523210027540883,-15,-30,0,-1,-7,-6,-21,-34
1523210027540883,12,43,-2,-2,0,-1,-4,9
1523210027541886,-5,-21,-10,4,7,0,2,-19
1523210027541886,9,-18,-11,-11,-6,-5,1,27
1523210027562943,-6,42,6,6,3,5,11,-11
1523210027562943,8,9,3,5,5,0,2,9
1523210027564948,-16,-12,-2,-7,-7,-3,-4,-27
1523210027564948,-3,6,-5,-1,0,1,-1,-2
1523210027577990,1,-17,-13,-9,-6,0,-7,7
1523210027577990,-52,-29,4,-8,-12,-5,-10,-39
1523210027579988,25,-1,3,4,15,4,8,27
1523210027579988,40,-1,11,3,-4,3,2,-14
1523210027600041,2,67,7,3,0,-4,-25,-7
1523210027600041,-2,-18,3,4,8,5,13,23
1523210027602045,-10,4,1,3,-6,-1,2,-9
1523210027602045,13,-19,-2,-2,-2,-3,-9,2
1523210027614077,-26,-24,-12,-9,-4,0,21,15
1523210027614077,-1,60,10,2,-1,-2,-12,-27
1523210027623101,22,-12,-4,-2,-4,-6,-9,10
1523210027623101,-38,-4,0,-3,0,-1,-6,-22
1523210027638377,8,-55,-2,0,-3,-1,12,1
1523210027638377,16,21,1,-1,6,2,-12,18
1523210027639393,-22,2,2,-4,-3,2,21,-11
1523210027639393,15,24,5,7,0,-5,-2,4
1523210027660210,1,-6,6,1,-1,-2,4,-14
1523210027660210,21,27,-14,-1,0,3,-3,25
1523210027662207,-22,-36,-4,-11,-14,-6,-2,-34
1523210027662207,-34,-15,-4,6,12,1,-5,-39
1523210027674473,9,16,7,8,11,4,-11,2
1523210027674473,31,13,-10,-3,-3,-1,23,20
1523210027683262,-11,2,-14,-6,-5,-5,-2,7
1523210027683262,1,-13,-3,-6,-11,-6,-6,4
1523210027698353,-17,-29,-5,-2,-2,-4,-20,-15
1523210027698353,23,23,4,2,2,1,14,12
1523210027699304,-25,-26,0,-2,1,1,-27,-17
1523210027699304,6,-2,7,0,1,0,29,-11
1523210027720596,-32,12,-6,-7,-7,-5,-11,16
1523210027720596,-14,-25,-4,2,-5,-4,-4,0
1523210027722364,32,3,0,6,2,0,5,40
1523210027722364,-55,-1,-8,-5,0,2,-4,-72
1523210027734398,0,32,12,-2,-2,-5,-12,-28
1523210027734398,-12,-57,0,2,-1,2,5,-3
1523210027743423,-3,20,0,-4,-2,-3,0,4
1523210027743423,26,46,6,2,2,3,-2,25
1523210027758494,-2,-35,-12,1,1,1,-14,7
1523210027758494,14,2,7,-3,-5,-4,13,-16
1523210027759468,-2,14,8,0,-1,3,0,21
1523210027759468,-6,-40,-7,3,2,-1,-13,10
1523210027780520,14,18,-7,-11,-6,-4,6,3
1523210027780520,-8,27,-1,2,0,1,-2,0
1523210027782526,4,-42,-6,-3,-5,-11,-2,-4
1523210027782526,4,5,-8,-6,-2,0,-2,10
1523210027802579,5,11,10,7,3,-1,0,-6
1523210027802579,17,-15,-4,-1,0,2,-17,30
1523210027804584,14,29,-3,-4,-1,-3,11,-53
1523210027804584,-97,-13,5,3,0,-1,-7,4
1523210027817858,35,-16,-7,-4,-1,-1,6,7
1523210027817858,-28,-34,6,-5,-1,-2,-19,-21
1523210027819623,12,15,4,2,0,1,0,9
1523210027819623,40,-3,0,-5,-10,-5,7,39
1523210027840680,6,31,3,-1,11,5,9,2
1523210027840680,-23,-21,-3,5,-4,-7,-3,0
1523210027841682,3,-15,9,1,5,1,-18,-24
1523210027841682,-31,5,-5,4,-4,-3,11,-2
1523210027862738,-1,15,-5,-11,-11,-5,10,10
1523210027862738,-3,3,-4,-4,-2,-4,-11,3
1523210027864744,15,4,-9,6,8,9,1,6
1523210027864744,32,36,-2,5,5,4,2,3
1523210027876783,-13,-37,0,3,-2,-1,-8,-5
1523210027876783,-17,1,5,0,3,-3,13,-33
1523210027883795,2,16,-5,1,-2,5,7,16
1523210027883795,13,6,8,-5,-3,-4,-24,-11
1523210027900841,0,15,3,-1,-6,2,45,3
1523210027900841,-2,-4,-5,-3,-1,-4,-13,-8
1523210027901844,55,-6,-11,-4,-5,0,-16,43
1523210027901844,-31,-9,9,-5,6,2,17,-35
1523210027923136,1,23,4,7,9,3,-6,14
1523210027923136,-12,4,-5,-6,-8,-3,-14,-10
1523210027924904,7,-5,-8,0,0,0,11,1
1523210027924904,5,-38,-7,-11,-11,-7,-4,-2
1523210027936940,12,-5,-6,2,-6,-4,-3,7
1523210027936940,5,3,4,4,10,4,7,7
1523210027944009,-13,28,2,-3,-2,-3,-11,-3
1523210027944009,31,-8,-7,-1,-5,-2,3,-21
1523210027960012,-13,14,1,1,2,2,13,-10
1523210027960012,-10,-16,4,-1,-2,-1,0,27
1523210027962003,-13,8,-1,-3,-3,-2,18,-21
1523210027962003,15,30,-7,-3,-3,1,-2,39
1523210027983059,-4,-5,5,-1,-1,-7,-27,-27
1523210027983059,-1,-46,-19,0,6,2,20,-5
1523210027984062,-18,-18,0,1,-4,0,0,-2
1523210027984062,14,-5,4,-5,8,-1,-16,25
1523210027997096,38,-4,-1,-3,-7,-4,-9,-3
1523210027997096,-18,10,-5,-6,-10,0,7,5
1523210028004115,-15,5,4,4,12,-2,-7,-9
1523210028004115,8,-6,2,2,0,3,-4,-15
1523210028020392,-24,-17,2,-6,-7,-4,6,16
1523210028020392,1,-13,1,-1,-2,-1,3,-8
1523210028022162,10,15,-4,-12,-13,-4,4,7
1523210028022162,-14,-6,4,3,5,3,-2,-14
1523210028043222,5,-14,-16,-2,-1,-5,8,20
1523210028043222,-1,9,9,-7,-3,-1,-4,3
1523210028044225,-34,-27,-6,-7,-2,-2,-5,-21
1523210028044225,24,2,-6,-1,2,1,-9,37
1523210028057474,-23,12,3,3,-5,-2,-9,-17
1523210028057474,11,-29,-1,7,2,-2,-1,7
1523210028064274,12,3,3,-7,1,-5,-24,-16
1523210028064274,-7,3,5,3,-2,3,49,21
1523210028080317,17,5,-14,-2,5,3,-6,29
1523210028080317,-1,5,-2,4,-3,-1,-12,-33
1523210028082323,-13,11,16,-6,0,4,13,6
1523210028082323,12,-4,-6,2,-4,-7,-19,-19
1523210028103378,-44,-6,11,-11,-6,-3,-12,1
1523210028103378,15,12,3,0,1,0,23,29
1523210028104380,-12,-26,-3,4,-1,0,-14,-39
1523210028104380,16,34,8,4,2,1,-22,1
1523210028117455,14,7,-8,-1,1,1,20,12
1523210028117455,-11,-7,-15,-11,-4,-3,-3,-10
1523210028124674,-5,-18,5,9,2,0,3,4
1523210028124674,-6,25,-6,-5,-6,-7,-12,-1
1523210028140476,13,-28,1,7,5,2,2,8
1523210028140476,-15,3,-8,-10,-6,-4,-13,-30
1523210028142483,-4,17,-1,-2,-8,-8,-15,26
1523210028142483,-29,-45,-10,-6,-4,-3,9,-7
1523210028162536,1,-5,3,3,6,2,3,-17
1523210028162536,7,13,5,1,1,1,10,9
1523210028164541,2,3,1,-3,1,0,-5,4
1523210028164541,2,1,-2,1,-3,-3,-4,0
1523210028176580,2,37,5,-2,-6,-3,14,-11
1523210028176580,4,-7,11,0,0,0,-10,20
1523210028185596,6,17,-4,3,0,-2,-3,-5
1523210028185596,5,-24,-4,-3,1,2,-8,-21
1523210028200636,10,-14,7,-3,-2,-1,0,2
1523210028200636,-72,24,-3,0,-5,-3,14,-11
1523210028201639,24,-13,2,-2,1,-3,-9,22
1523210028201639,2,-26,-8,0,-1,0,14,19
1523210028222930,-3,25,-6,-4,-5,-8,-34,-66
1523210028222930,14,0,1,3,-3,0,-15,-8
1523210028224700,7,-10,-18,-3,10,4,17,38
1523210028224700,-7,6,2,0,2,-4,-29,-2
1523210028237863,1,15,-4,-1,-1,2,28,-8
1523210028237863,4,25,6,4,-6,-6,7,6
1523210028243752,-15,-26,10,-1,0,0,-7,-7
1523210028243752,6,5,0,-3,-3,3,-3,-3
1523210028260816,10,-18,-12,-2,5,1,14,25
1523210028260816,5,41,-1,1,0,-2,-12,-41
1523210028261799,-2,-12,-11,4,-5,-3,11,2
1523210028261799,-1,-1,6,-9,-5,0,-30,-4
1523210028282854,6,19,2,-4,-1,-1,19,-11
1523210028282854,5,-87,-2,-4,7,3,-5,43
1523210028284860,-5,30,2,-2,-4,-4,-2,-6
1523210028284860,4,10,-11,3,-1,-2,17,-10
1523210028296891,-30,5,13,-1,-4,-4,-28,-26
1523210028296891,20,-5,-13,-5,-4,3,11,18
1523210028305917,-4,0,4,8,7,7,-12,-3
1523210028305917,12,35,11,1,2,-1,23,19
1523210028321036,-9,-44,-4,2,-3,-2,-32,3
1523210028321036,2,2,-1,-2,-1,0,13,-26
1523210028321959,-19,-1,2,-5,-2,-1,5,5
1523210028321959,-10,12,1,3,-1,-2,10,-12
1523210028343020,30,-3,-8,-4,-4,-3,-14,10
1523210028343020,-19,-8,-1,4,-2,-4,-14,-8
1523210028345021,17,3,-10,-1,2,0,10,18
1523210028345021,10,-22,2,-2,1,5,-12,-16
1523210028357144,-47,-10,3,-4,-4,-4,10,20
1523210028357144,16,12,-1,2,3,0,-5,6
1523210028365084,14,0,5,-8,-8,-2,6,33
1523210028365084,-5,18,4,7,9,4,-14,-21
1523210028380115,36,-13,-8,1,-2,1,14,-37
1523210028380115,-78,31,1,-8,-5,-7,-5,-14
1523210028382118,1,-43,-9,0,-8,-3,5,8
1523210028382118,-18,-4,-12,-6,0,0,-6,-23
1523210028403174,10,8,3,9,14,3,15,33
1523210028403174,7,-20,7,0,-2,-2,-7,-2
1523210028404176,-5,47,2,-4,-8,-3,5,-23
1523210028404176,-15,4,-3,0,-13,-7,-3,9
1523210028416449,3,-44,2,4,10,3,-22,-3
1523210028416449,42,19,0,-5,3,3,16,30
1523210028425234,-45,0,-3,4,0,0,-4,-71
1523210028425234,11,-11,-2,-7,-10,-7,12,22
1523210028440509,-5,7,-8,-7,-7,-4,-19,-18
1523210028440509,5,-12,1,11,8,3,1,-4
1523210028442279,13,20,-8,0,5,2,-19,0
1523210028442279,31,-4,4,0,1,-1,46,30
1523210028463531,-62,7,-20,-9,-8,-3,-8,-60
1523210028463531,-2,-7,-3,-2,-7,-5,-12,-3
1523210028464337,11,-19,5,-4,-4,-5,3,-1
1523210028464337,-1,17,-1,4,8,4,-10,-6
1523210028476377,0,-30,1,-5,-4,-2,-23,30
1523210028476377,25,39,3,7,-4,-2,12,-3
1523210028485394,-20,-29,-3,-5,-8,-3,17,-7
1523210028485394,-9,1,-4,1,9,1,-9,18
1523210028500434,8,-4,1,0,-3,1,3,-43
1523210028500434,-7,18,-5,-13,-5,-3,-28,-13
1523210028502439,-3,-12,-1,-1,1,-1,-3,8
1523210028502439,7,-11,3,0,-9,-5,-10,-19
1523210028523537,12,27,4,-3,-1,2,13,55
1523210028523537,15,-9,1,-1,0,-4,-23,-31
1523210028524497,-47,17,4,0,-4,-3,13,-12
1523210028524497,7,-39,-24,-6,-4,-2,-4,0
1523210028536529,11,32,0,2,11,2,-9,0
1523210028536529,-13,-33,-2,4,5,8,20,9
1523210028545552,27,18,4,-2,-10,-5,-9,53
1523210028545552,-26,-7,7,6,5,-1,-3,-42
1523210028560601,44,-1,2,-5,-13,-1,4,16
1523210028560601,-42,22,-9,-6,-8,-4,-3,-1
1523210028561597,17,-29,3,-4,-7,4,1,19
1523210028561597,-11,-17,2,10,20,2,-19,-9
1523210028582651,-9,61,1,1,1,-6,-25,-42
1523210028582651,21,-75,-2,-9,-7,4,48,38
1523210028584657,-41,9,0,-2,-2,-7,-24,-107
1523210028584657,21,-15,2,-8,-9,-5,-6,27
1523210028596688,-43,14,3,1,-3,1,-4,10
1523210028596688,11,64,-2,17,12,2,-9,3
1523210028605716,-1,-19,1,-11,-5,-4,5,12
1523210028605716,-26,-50,4,-10,-13,-5,1,-15
1523210028620988,15,-25,-6,0,1,3,14,7
1523210028620988,19,14,4,4,10,2,4,37
1523210028621756,9,-2,-14,5,4,2,-16,-1
1523210028621756,28,38,0,-3,-9,0,13,-9
1523210028642813,-23,-12,-2,3,-13,-7,-4,40
1523210028642813,10,1,-3,-7,5,2,-6,-7
1523210028644816,3,4,-9,1,7,1,2,-5
1523210028644816,8,25,-1,-7,-11,-3,-4,-7
1523210028657084,-5,-28,8,-9,-10,-7,-3,-2
1523210028657084,0,-25,9,6,0,1,-14,-11
1523210028665874,23,35,4,12,28,8,14,6
1523210028665874,-18,20,-4,-4,-5,-1,-7,19
1523210028679909,35,-4,-1,2,-2,0,10,-21
1523210028679909,-39,-3,4,-15,-16,-12,-7,9
1523210028681915,-9,-20,-8,-4,-4,1,17,-10
1523210028681915,-12,-34,1,3,4,0,-8,-27
1523210028702980,28,32,-3,5,6,1,-2,53
1523210028702980,-9,20,-11,0,-7,-5,-17,-53
1523210028704976,-1,-49,-7,-8,-10,-3,8,11
1523210028704976,11,4,-1,8,17,2,9,30
1523210028725031,-40,-12,-5,-3,3,3,-2,27
1523210028725031,-9,-14,-6,3,1,-1,0,-46
1523210028727037,7,36,14,1,-6,-2,-8,10
1523210028727037,-4,1,-6,-6,0,4,8,11
1523210028740305,-11,-20,3,2,1,-1,-5,-14
1523210028740305,1,-4,5,5,2,2,-6,-7
1523210028742085,4,17,-14,-2,1,-2,5,11
1523210028742085,22,-25,2,-2,-11,-2,14,16
1523210028762169,5,33,5,7,1,-2,-10,5
1523210028762169,-5,-13,6,-10,-3,-4,20,16
1523210028763130,2,-15,4,-1,2,-3,-21,-24
1523210028763130,-11,12,8,5,2,1,1,-6
1523210028785192,11,45,-14,0,-3,-2,8,-7
1523210028785192,-13,-69,-11,0,-2,-1,-12,3
1523210028785192,13,4,3,1,-5,-5,-8,26
1523210028785192,15,24,5,1,8,5,14,9
1523210028799226,-83,-44,8,1,5,-3,-1,-30
1523210028799226,15,41,-10,-5,-6,3,4,1
1523210028800230,-2,-1,1,3,-1,-2,-14,-13
1523210028800230,-18,11,-3,-5,-6,3,4,-3
1523210028822523,17,-9,-10,2,5,3,11,-4
1523210028822523,10,-23,2,-9,-2,-5,-8,3
1523210028823291,-11,7,1,-3,-5,-1,17,14
1523210028823291,12,15,-2,7,5,-7,-21,19
1523210028844350,15,7,1,-2,0,4,2,-58
1523210028844350,-39,26,-6,-7,-7,-8,4,-32
1523210028845351,6,-27,4,-2,-7,-2,-15,0
1523210028845351,-21,11,-6,0,1,0,-4,-11
1523210028859394,16,-42,-2,2,15,4,10,13
1523210028859394,5,-10,-2,5,0,-2,-12,11
1523210028860394,-1,18,-4,0,-4,-1,0,-14
1523210028860394,-14,2,-1,-7,-14,-5,6,9
1523210028882449,2,-21,-15,1,-2,0,2,4
1523210028882449,17,18,1,-1,8,3,27,4
1523210028883452,33,21,2,6,8,6,-19,-1
1523210028883452,-45,-56,-7,-2,-6,-3,11,-8
1523210028904742,30,30,6,3,-1,-2,7,15
1523210028904742,-28,8,5,0,-5,-1,-10,17
1523210028905508,12,16,-2,-8,-3,-4,-1,-55
1523210028905508,-7,-23,-4,1,1,-1,8,0
1523210028919782,-2,4,-3,-6,-8,-4,-12,2
1523210028919782,36,-11,-1,2,7,3,-3,16
1523210028920548,-33,0,0,2,3,-2,20,23
1523210028920548,14,2,-19,-5,-7,-2,-20,7
1523210028942611,-4,4,2,-2,-5,-4,2,2
1523210028942611,10,3,4,0,9,2,7,-1
1523210028942611,-11,-25,0,1,-2,-1,21,16
1523210028942611,-7,17,-1,0,5,-1,-7,-26
1523210028964902,17,6,1,-4,-8,-3,-7,12
1523210028964902,-3,4,3,5,-2,2,-2,-2
1523210028965671,-5,-23,-10,-9,-5,-1,-25,9
1523210028965671,5,-4,-2,-7,-1,-1,15,-9
1523210028979705,-21,-3,5,-5,-5,-1,-1,-43
1523210028979705,-20,25,-4,6,-1,-1,-4,0
1523210028980711,-31,-30,3,-9,-8,-6,-7,-12
1523210028980711,15,17,-12,2,-3,-1,-5,13
1523210029001765,5,3,2,-3,1,-2,-9,-18
1523210029001765,15,1,3,-2,-1,1,18,13
1523210029002768,11,-24,0,10,7,5,2,10
1523210029002768,9,93,-4,-5,-3,2,-6,-9
1523210029024829,-21,-90,-8,-10,-8,-12,-15,8
1523210029024829,-2,-11,3,2,-8,-10,-19,-12
1523210029025834,-4,-2,9,2,10,4,15,0
1523210029025834,10,-10,12,10,8,6,-8,-1
1523210029040103,19,78,-2,-5,1,6,39,29
1523210029040103,-12,-32,-6,-4,-9,-5,-24,-57
1523210029040870,14,8,-6,-6,-3,-1,-7,5
1523210029040870,-20,-28,-2,5,-3,-3,0,-4
1523210029061925,36,11,0,8,4,3,-5,54
1523210029061925,-53,16,0,-9,-8,-6,7,-10
1523210029062927,11,3,7,5,3,3,12,-8
1523210029062927,-3,-5,4,-3,-1,-3,-3,5
1523210029084986,7,-12,7,-1,0,-1,3,11
1523210029084986,10,15,-1,-1,2,1,0,-5
1523210029084986,12,1,-8,-2,-2,2,-7,23
1523210029084986,-23,-22,4,0,0,-3,-18,-10
1523210029100027,2,26,7,7,-1,0,-1,-5
1523210029100027,21,-18,-3,-11,-5,0,2,25
1523210029100027,-24,2,-9,-2,-5,-4,7,-70
1523210029100027,9,-17,8,3,6,2,7,4
1523210029122320,-32,18,-7,-3,-2,-1,-3,-42
1523210029122320,32,7,-1,2,0,0,-18,32
1523210029123088,-19,-4,-8,-3,-3,-2,4,-18
1523210029123088,5,-18,6,-3,-4,-5,-5,4
1523210029145147,-13,-4,-5,-2,-3,-2,-9,-3
1523210029145147,32,2,5,2,4,5,2,24
1523210029145147,-81,-11,11,0,1,-10,-14,-3
1523210029145147,1,64,-1,-2,1,5,18,-4
1523210029159195,-6,-56,1,-2,-3,-5,-10,-5
1523210029159195,22,-6,-7,-1,-3,2,13,6
1523210029160186,-39,-11,5,3,3,0,24,10
1523210029160186,11,10,-13,-10,-6,-6,-15,-3
1523210029182268,-10,39,0,-2,-1,4,14,14
1523210029182268,-5,-29,-10,-1,-4,-4,-11,-43
1523210029183287,47,25,-5,4,-3,-6,3,55
1523210029183287,-32,-61,1,-11,-9,-7,3,-25
1523210029204302,1,-1,3,-7,-7,4,12,-14
1523210029204302,-7,-1,5,13,34,9,-7,5
1523210029205305,51,27,1,-4,5,8,-3,36
1523210029205305,-13,18,1,2,-6,-5,-9,-5
1523210029219578,-3,-52,-2,-1,-9,-6,-7,-17
1523210029219578,-1,-6,2,-1,-11,-6,3,-17
1523210029227364,26,7,8,-2,-1,-1,-30,21
1523210029227364,7,46,-3,2,4,4,38,9
1523210029242409,-10,-66,-16,-8,-1,0,-9,-7
1523210029242409,24,25,-2,1,-5,-4,3,10
1523210029243411,-45,5,-2,1,-1,-3,-11,-24
1523210029243411,0,-21,3,4,0,1,-22,-36
1523210029264699,31,23,-7,-2,6,1,-6,30
1523210029264699,-39,10,0,2,-1,2,3,-37
1523210029265468,32,-30,-2,1,-4,1,5,4
1523210029265468,8,14,-1,1,-2,-2,2,18
1523210029278502,-10,6,4,-2,1,-3,6,12
1523210029278502,-8,-5,-8,-4,-8,-5,-14,-19
1523210029287759,15,41,3,0,-4,0,-14,13
1523210029287759,-7,-51,-10,2,8,3,20,17
1523210029302564,3,-8,13,6,5,-2,-3,-17
1523210029302564,-5,-26,6,-6,-6,-3,12,22
1523210029302564,-2,25,-2,-3,-7,-1,-4,-21
1523210029302564,-9,6,0,1,7,0,-12,-5
1523210029324626,13,5,5,0,1,-1,3,22
1523210029324626,8,-2,10,0,-7,-3,-14,-14
1523210029325634,12,-13,-3,-8,-3,-4,9,1
1523210029325634,-73,3,-1,-5,-9,-3,7,-33
1523210029339708,-19,-47,-7,-4,-4,-2,-9,-15
1523210029339708,4,47,-2,-2,4,0,0,17
1523210029347683,19,-9,-3,4,4,3,-11,-7
1523210029347683,12,-3,-2,-6,-4,-5,-11,8
1523210029362763,-7,22,-1,3,1,2,5,27
1523210029362763,2,-14,-8,-8,-7,-8,11,1
1523210029362763,-9,-29,-7,-2,1,-2,10,-1
1523210029362763,29,-11,10,5,1,2,-11,22
1523210029384783,-2,22,11,4,-1,3,-11,-28
1523210029384783,4,42,8,0,8,-3,-4,15
1523210029385786,-25,-70,-6,2,-1,-4,-1,-3
1523210029385786,20,11,-5,-2,-4,-1,-5,24
1523210029398821,2,-13,-5,4,-1,2,12,-39
1523210029398821,-8,7,-9,-8,-6,-1,19,6
1523210029406881,29,27,17,3,1,1,5,-7
1523210029406881,-11,-1,-12,-5,-7,-6,-12,-8
1523210029422906,-3,12,0,-7,2,1,-3,10
1523210029422906,-18,-45,-14,-4,2,3,4,2
1523210029422906,42,7,-2,1,3,0,-1,8
1523210029422906,-7,-15,-10,0,-6,-2,9,4
1523210029444944,-7,18,0,-4,-5,-3,-13,-18
1523210029444944,11,14,2,7,2,6,-1,20
1523210029445946,-8,15,-12,0,11,2,-5,1
1523210029445946,-10,-15,16,-2,-1,0,5,-21
1523210029459003,1,32,-1,-3,-1,-2,-8,8
1523210029459003,-7,-38,-1,-5,-9,-4,-4,-7
1523210029467002,0,14,-4,-3,-6,-1,4,48
1523210029467002,2,21,12,6,9,2,-26,-24
1523210029482040,6,-6,2,-5,-7,-9,11,15
1523210029482040,-29,-8,1,1,-2,-2,-1,-4
1523210029483043,-6,-35,-7,-7,-5,-4,9,8
1523210029483043,5,5,1,-6,-5,-1,-9,7
1523210029505104,44,18,5,4,6,1,-8,-1
1523210029505104,-45,1,-8,10,7,0,5,9
1523210029506116,-24,2,9,-5,-6,-4,-21,-21
1523210029506116,7,-19,-9,-9,-7,-2,12,-12
1523210029519375,3,-5,-7,3,1,1,1,33
1523210029519375,16,22,2,4,5,0,-12,-47
1523210029527160,-56,-5,5,1,8,-2,-4,-74
1523210029527160,9,-7,-6,5,-3,-4,-1,19
1523210029542205,18,-5,-13,-9,-13,-4,8,27
1523210029542205,3,20,3,-5,-2,4,-2,-7
1523210029543205,3,-21,-1,3,2,-3,-1,10
1523210029543205,8,-21,-19,-6,-3,-2,15,2
1523210029564260,-28,31,-10,0,6,2,-7,-22
1523210029564260,11,-47,-1,-5,-11,-5,-19,18
1523210029565263,5,27,-10,-3,-4,-1,28,-16
1523210029565263,-1,-2,9,1,5,-1,-11,12
1523210029580303,-6,-9,3,8,3,0,-2,2
1523210029580303,35,9,-6,-5,-4,-1,1,5
1523210029587363,-26,7,0,4,-1,1,10,13
1523210029587363,-3,22,8,0,-2,-5,-16,-30
1523210029602399,-4,-43,-1,-1,-2,-3,4,58
1523210029602399,-27,-20,-6,-8,-8,-5,-19,-70
1523210029603367,25,9,5,10,9,7,4,-2
1523210029603367,-8,23,-5,-5,5,8,16,28
1523210029624424,-12,-20,-2,0,1,-3,-16,-34
1523210029624424,0,-8,2,3,4,0,31,23
1523210029625425,18,28,0,-4,-11,-2,9,18
1523210029625425,-5,-10,3,-10,-4,0,-19,-13
1523210029647482,-2,8,-3,-5,-2,-2,22,-15
1523210029647482,22,1,-2,2,0,-5,-9,25
1523210029648483,-10,-6,-8,-1,3,0,-10,-20
1523210029648483,13,27,-6,-2,-3,-5,-3,2
1523210029662523,-2,15,2,-3,-6,-1,-12,-9
1523210029662523,-21,4,-6,10,10,4,13,4
1523210029662523,8,-10,12,-12,-4,1,3,47
1523210029662523,5,-25,9,4,3,2,-3,1
1523210029684581,-14,17,3,1,-4,-4,2,-42
1523210029684581,-18,-32,-3,-3,-2,-3,-19,-7
1523210029685582,11,1,-8,-1,-8,-2,-14,12
1523210029685582,8,-9,-1,2,6,1,27,1
1523210029707645,8,32,15,-2,0,4,23,1
1523210029707645,64,1,-7,-4,-1,-3,-12,29
1523210029708650,-74,-31,-8,1,0,-5,-18,-30
1523210029708650,3,10,-4,1,-8,-5,-4,2
1523210029722809,-11,-9,-5,-1,4,3,-6,4
1523210029722809,6,10,-7,0,9,5,0,-5
1523210029722809,17,-27,6,-9,-9,-4,3,7
1523210029722809,-3,12,3,3,-4,-6,-8,-3
1523210029744738,-5,-9,-5,0,-1,-3,-19,-7
1523210029744738,-8,-20,5,0,-11,-7,13,20
1523210029745742,-5,13,-5,-1,-2,2,-1,-68
1523210029745742,22,34,5,2,10,6,8,75
1523210029768037,-20,-14,5,-3,-5,-4,3,-83
1523210029768037,11,-5,7,7,2,-3,-7,10
1523210029768802,2,25,9,0,0,0,-8,30
1523210029768802,4,-24,-9,1,-4,-4,11,-14
1523210029781839,9,-15,-11,-3,-4,-4,-5,36
1523210029781839,-31,-10,4,-8,-3,-2,0,-18
1523210029782841,23,9,2,-5,-3,-3,1,-2
1523210029782841,10,4,0,-2,-2,1,7,3
1523210029804899,29,21,2,10,6,4,5,13
1523210029804899,-79,-11,-5,-8,0,-1,-25,-11
1523210029806139,9,-11,-10,-2,-3,-6,0,13
1523210029806139,-13,-8,-3,-1,-7,-2,-10,-12
1523210029827960,1,-24,2,-3,3,-1,-10,23
1523210029827960,11,31,1,4,6,5,21,-31
1523210029828963,6,10,-16,-7,-4,1,-15,-3
1523210029828963,-15,-18,-2,-1,-5,-1,13,-32
1523210029842030,5,-32,-9,-1,2,-3,-6,-20
1523210029842030,-11,6,6,-8,-10,0,-1,15
1523210029843001,-4,-7,7,0,5,-2,-3,-8
1523210029843001,3,9,-9,1,-3,1,-4,-10
1523210029865299,20,22,-7,-1,-2,1,-2,23
1523210029865299,0,-13,-3,-9,-4,-5,5,-36
1523210029865299,-7,19,-3,0,1,6,0,12
1523210029865299,4,-35,4,-1,1,-5,4,6
1523210029888356,-23,1,10,1,5,-1,2,-6
1523210029888356,32,51,-2,7,1,1,-4,20
1523210029889123,-59,-52,-5,-5,-10,-10,4,-8
1523210029889123,10,19,-1,0,-2,0,1,12
1523210029902158,-20,-24,-8,-1,-1,0,-9,-28
1523210029902158,-7,-35,3,2,-4,-4,2,3
1523210029903161,39,39,9,4,4,3,0,9
1523210029903161,-12,-2,-4,-2,3,1,-9,-5
1523210029925223,-17,3,1,-5,-7,3,12,9
1523210029925223,74,39,0,4,12,2,35,33
1523210029925223,-57,-37,-12,3,-6,-5,-10,-47
1523210029925223,-2,-33,0,-5,-2,-1,-21,4
1523210029948281,10,36,0,2,-4,1,12,-4
1523210029948281,3,-2,1,0,2,1,-18,20
1523210029948281,23,8,7,10,7,4,17,1
1523210029948281,-11,6,4,0,-4,-3,-5,-10
1523210029962318,3,-19,-3,-7,-5,-3,-6,3
1523210029962318,-18,-10,1,-7,-11,-6,-21,-1
1523210029963320,-1,-12,-6,3,1,-2,-6,-20
1523210029963320,-13,4,3,1,10,2,5,-30
1523210029984375,12,3,-4,3,4,4,1,20
1523210029984375,-23,6,-6,1,-3,-3,-6,-43
1523210029985379,14,13,-2,-10,-12,-3,-17,15
1523210029985379,14,-20,-9,-5,-3,1,19,9
1523210030008445,16,4,8,1,8,-3,-30,-13
1523210030008445,-71,0,-3,1,-1,0,25,6
1523210030008445,29,18,-5,1,1,1,3,31
1523210030008445,-21,-14,-8,4,-1,2,-8,-44
1523210030022713,14,-9,-1,-3,-6,-7,11,28
1523210030022713,17,35,3,-1,0,5,4,-1
1523210030023482,-18,-51,-7,-7,5,0,-1,15
1523210030023482,10,5,3,0,-2,-7,4,15
1523210030044536,-11,-6,-8,0,-5,-4,-17,-50
1523210030044536,6,-8,1,-3,-6,0,-4,-8
1523210030045538,8,18,2,-1,-3,-2,4,4
1523210030045538,8,6,-1,3,9,2,-10,7
1523210030068602,-20,-14,5,-3,-5,-4,12,14
1523210030068602,3,-21,-1,0,-4,-6,-12,8
1523210030068602,0,14,10,1,1,4,-2,-10
1523210030068602,-7,15,-6,-6,-7,-5,0,13
1523210030082638,-7,-8,6,4,5,1,11,-20
1523210030082638,7,4,-4,-12,-2,0,-7,42
1523210030082638,12,-4,-4,4,-2,-5,-30,-30
1523210030082638,44,2,0,-2,-3,2,49,-9
1523210030104696,-70,-3,1,7,0,2,-8,12
1523210030104696,17,-4,13,0,8,0,-4,1
1523210030105699,-7,10,-12,-2,-2,-4,9,-4
1523210030105699,1,0,5,-3,-7,-3,-24,-12
1523210030127757,27,-1,-4,-4,-3,-3,18,21
1523210030127757,13,4,-3,4,-2,0,-2,1
1523210030128760,-8,-10,-4,-5,-2,0,1,3
1523210030128760,-17,-3,1,2,6,6,-3,-17
1523210030141796,4,19,-5,-7,2,-2,-7,17
1523210030141796,-10,5,-7,-4,-9,-5,-2,-12
1523210030142797,9,-10,5,-2,-5,-3,1,-4
1523210030142797,-8,-3,-3,6,-3,1,-20,6
1523210030164857,-10,-11,-3,0,7,-2,9,11
1523210030164857,30,-8,-5,-7,-4,1,-5,12
1523210030165859,-4,27,6,1,-2,1,23,-3
1523210030165859,0,5,-4,0,-3,-3,-8,11
1523210030188152,48,-5,1,-2,-8,-2,-7,10
1523210030188152,-58,-5,-1,5,-3,-7,-28,11
1523210030188919,11,-13,1,-1,3,7,19,20
1523210030188919,-10,-1,-2,-4,0,-3,11,-10
1523210030201953,8,23,-1,-5,1,2,-8,-1
1523210030201953,16,-11,10,1,0,0,8,-23
1523210030202958,3,10,5,-3,-4,-5,-9,-2
1523210030202958,-12,-17,-1,1,-2,-2,-7,-3
1523210030225041,6,8,6,-1,0,0,-30,-4
1523210030225041,-8,1,-14,-2,-2,3,26,-1
1523210030225041,-11,7,6,2,2,-1,2,-15
1523210030225041,1,-26,-1,0,-3,0,-14,12
1523210030255331,0,11,2,2,2,-1,-3,13
1523210030255331,16,-12,3,-4,-5,2,13,2
1523210030256097,-50,22,-6,-7,-5,-3,-20,-71
1523210030256097,16,-12,2,1,-1,-4,5,21
1523210030261112,21,-7,-12,-2,3,5,-3,-15
1523210030261112,-8,-4,-1,3,4,-3,23,43
1523210030270136,8,1,0,-5,-8,-5,-3,-25
1523210030270136,-21,20,1,0,-1,1,-22,0
1523210030285176,8,-38,1,-6,-8,-4,11,-11
1523210030285176,12,19,-10,3,6,1,11,-13
1523210030285176,5,-5,-5,0,0,-1,9,21
1523210030285176,14,-17,0,1,3,0,1,6
1523210030308247,-13,13,5,0,-3,0,7,-4
1523210030308247,-3,5,-2,2,1,0,-21,-23
1523210030308247,-8,6,3,2,1,2,0,2
1523210030308247,0,6,-9,-14,-5,-2,1,9
1523210030321507,-18,-19,-7,6,-1,-4,-1,-4
1523210030321507,-5,-25,-1,-9,-10,-6,-15,12
1523210030329293,1,3,9,1,-4,-5,0,-26
1523210030329293,7,16,8,6,14,8,0,10
1523210030344372,-28,-3,1,0,5,-3,4,-19
1523210030344372,1,-22,13,-5,-6,-1,-11,-13
1523210030345335,40,8,-4,-6,-3,4,-17,62
1523210030345335,-43,-12,-6,-5,-8,-8,15,-63
1523210030367394,19,5,-4,-3,-5,-3,7,8
1523210030367394,-57,-18,-1,-1,0,-1,-6,-22
1523210030368397,4,-42,-4,-1,-1,-3,1,16
1523210030368397,29,21,-1,-5,-5,1,-8,-3
1523210030381431,-19,2,1,4,8,0,-7,-14
1523210030381431,3,11,0,-2,-3,-4,11,3
1523210030389455,-6,-3,-6,5,-1,0,-13,-1
1523210030389455,3,-11,-6,-1,0,-2,-2,-4
1523210030404490,13,-3,1,-3,-5,2,10,33
1523210030404490,14,14,-9,-3,5,2,-14,2
1523210030405495,2,4,3,3,0,-2,12,18
1523210030405495,-3,7,3,1,2,0,-12,-3
1523210030427554,0,38,-1,-1,-7,-1,-2,11
1523210030427554,-1,-28,-4,8,11,1,11,-51
1523210030428556,13,7,3,-4,3,3,-10,18
1523210030428556,-21,3,-4,-8,-11,-6,-1,-31
1523210030441597,22,4,-3,0,-4,0,27,1
1523210030441597,-5,-21,-4,4,0,-1,-6,2
1523210030449615,7,22,-10,-1,-1,-4,-1,2
1523210030449615,-21,-21,3,-3,-3,-4,-9,5
1523210030464703,-1,-24,-1,-3,6,4,-9,-7
1523210030464703,-5,33,8,9,2,4,-2,-24
1523210030465657,14,-19,-5,-5,0,-2,17,14
1523210030465657,4,45,1,5,0,-2,1,34
1523210030487714,-7,-30,-7,2,-4,0,3,8
1523210030487714,2,-8,3,-6,-5,-5,-17,-35
1523210030488716,-5,-3,-3,4,3,1,3,1
1523210030488716,-6,-3,14,1,3,0,5,-14
1523210030501751,-13,19,18,0,-5,-2,-9,-26
1523210030501751,10,12,-10,-9,-3,1,8,32
1523210030509774,-6,-1,1,6,10,4,1,-1
1523210030509774,33,-9,6,6,0,3,2,0
1523210030524819,-20,-4,-4,-3,1,-5,-4,19
1523210030524819,3,-2,-1,-6,-10,-1,0,1
1523210030525815,-22,24,-6,-1,-2,0,-34,-15
1523210030525815,29,-28,-13,0,3,-2,31,15
1523210030547873,-9,-28,-2,1,-8,-3,0,-21
1523210030547873,-4,-6,0,-2,0,-4,-5,18
1523210030548877,34,6,-7,0,-4,1,3,33
1523210030548877,-48,-9,-8,0,-4,-2,-8,-64
1523210030561912,15,34,-2,-3,0,2,16,-2
1523210030561912,4,-6,-2,-6,-4,-1,-6,15
1523210030570168,-5,-14,6,3,11,2,4,-34
1523210030570168,-10,20,1,-1,0,-2,-16,17
1523210030585207,-15,-42,2,-11,-2,1,-4,-7
1523210030585207,32,31,2,3,-4,-5,0,-2
1523210030585974,4,-30,-4,-6,-5,-1,3,-5
1523210030585974,-31,14,3,-4,2,4,8,33
1523210030608079,-7,15,-7,-1,-3,-5,-29,-38
1523210030608079,4,4,2,3,6,2,-8,12
1523210030609036,10,-7,-3,-3,-7,-1,35,31
1523210030609036,-9,-6,-5,2,-2,0,-4,-27
1523210030630093,5,8,-19,-4,-2,-3,-5,26
1523210030630093,-31,-15,6,-4,-4,-4,-8,-53
1523210030631094,-14,-2,1,1,-1,-3,-10,-14
1523210030631094,21,-7,5,3,2,3,-7,24
1523210030645135,14,31,-15,1,-3,2,11,14
1523210030645135,5,-27,-4,-5,-8,-10,-15,7
1523210030645135,-18,38,0,-3,1,2,19,-6
1523210030645135,18,-68,-2,2,8,-4,-25,-19
1523210030668192,-12,6,-5,-3,1,-1,-7,34
1523210030668192,-20,31,6,0,-1,0,10,-38
1523210030669354,4,-18,3,-4,-9,-5,7,36
1523210030669354,2,14,6,-6,-10,-3,-8,8
1523210030690251,2,-9,-12,-2,3,2,1,-10
1523210030690251,12,0,-4,-2,2,3,16,16
1523210030691254,-24,-2,-5,0,-2,1,-15,-67
1523210030691254,12,31,7,-7,-4,-5,-4,18
1523210030705353,-7,-35,1,-1,-6,-5,-9,1
1523210030705353,28,-1,-10,10,6,4,17,31
1523210030705353,12,26,5,5,12,2,-20,-43
1523210030705353,-29,-51,-8,-1,-3,-2,17,30
1523210030727351,-27,-4,7,-7,-7,-8,-3,-51
1523210030727351,3,16,0,-3,-4,-3,-25,28
1523210030728352,28,-1,-7,4,0,2,8,19
1523210030728352,7,19,-8,0,1,5,-6,15
1523210030750454,-23,-3,18,2,3,-1,6,-17
1523210030750454,17,-4,2,1,2,3,0,10
1523210030751414,-17,-9,-4,-2,-3,-1,1,-2
1523210030751414,27,44,-3,-1,-5,-3,0,2
1523210030764684,-9,-26,-3,5,0,-3,-8,3
1523210030764684,-21,0,2,1,-3,-2,3,-15
1523210030765453,18,-4,-18,-14,-8,-3,-13,50
1523210030765453,-20,-19,5,-4,-2,0,63,-16
1523210030788552,21,20,-1,5,5,3,3,11
1523210030788552,-6,-9,-13,0,-2,1,-15,8
1523210030788552,15,-35,18,4,9,-1,5,-7
1523210030788552,4,6,-6,-2,-6,-5,-26,-1
1523210030810571,7,19,3,-7,-5,-1,5,-7
1523210030810571,-1,2,-1,-6,-4,-3,-1,-2
1523210030811575,-10,-17,1,-3,-3,2,14,0
1523210030811575,-1,-11,1,-3,-2,-2,-20,-7
1523210030824617,32,7,4,8,4,0,22,7
1523210030824617,-20,-2,2,1,-1,2,-11,23
1523210030825612,-19,22,-4,-6,3,-2,-25,-51
1523210030825612,-7,12,-6,3,0,2,25,3
1523210030847671,6,-46,1,-6,-8,-3,-8,19
1523210030847671,-9,-11,3,4,4,5,10,-20
1523210030848673,-7,4,-1,3,1,-4,5,2
1523210030848673,-14,16,-5,-1,0,-2,-13,10
1523210030870967,11,21,-1,1,-2,-2,-9,-27
1523210030870967,7,-12,6,-6,-4,1,26,1
1523210030870967,-10,-10,-4,-1,-1,2,-4,-6
1523210030870967,-9,-20,-5,4,2,-2,-23,-1
1523210030884769,-24,24,20,-2,-1,-3,-3,10
1523210030884769,11,-17,-16,-10,-6,-5,-7,-1
1523210030885772,-1,21,6,7,0,1,7,4
1523210030885772,25,19,-2,-5,-4,0,-5,12
1523210030907836,-9,-29,-4,3,0,-4,-7,2
1523210030907836,-5,32,-6,-4,-2,1,-4,-14
1523210030908842,10,-28,2,3,-2,0,6,23
1523210030908842,10,4,4,3,14,6,2,-14
1523210030929892,-4,20,2,4,0,2,-4,24
1523210030929892,-17,-5,-13,-6,-4,-4,12,-24
1523210030930891,-7,-33,-6,-8,-8,-3,2,-6
1523210030930891,2,-5,5,-4,-4,-7,-7,8
1523210030944930,7,-25,-4,3,0,1,-18,12
1523210030944930,2,7,-2,4,2,-8,-8,3
1523210030945930,-5,-4,5,-2,1,6,26,18
1523210030945930,41,11,-5,-6,-3,0,6,15
1523210030967991,-34,6,-9,-8,-4,-4,-7,-49
1523210030967991,18,1,4,7,4,-2,-12,17
1523210030968994,-17,0,-1,5,-2,-4,-11,-10
1523210030968994,10,1,-1,-1,-1,-3,-19,-8
1523210030990056,13,-7,-17,-2,-2,1,17,11
1523210030990056,-9,-13,2,-2,-2,0,-9,-6
1523210030991075,45,21,-12,-3,-3,-3,11,28
1523210030991075,-68,-12,-2,5,4,3,-5,-24
1523210031005324,4,-11,6,1,2,8,-2,-9
1523210031005324,15,45,11,3,7,1,-2,35
1523210031005324,0,-54,-5,-5,-5,-8,-5,2
1523210031005324,-17,34,0,-4,-9,-5,6,-13
1523210031028150,-18,-60,-8,-1,-2,1,3,22
1523210031028150,31,2,0,-6,-3,-8,-4,-40
1523210031028150,5,23,3,8,5,2,-3,43
1523210031028150,-23,-1,-6,-8,-6,-4,7,-30
1523210031050443,45,25,1,-2,1,-1,-10,5
1523210031050443,-52,8,-1,-1,-6,-1,9,-5
1523210031051209,-7,-28,-4,2,1,-3,-22,-6
1523210031051209,8,-25,-2,-2,3,0,12,11
1523210031064246,35,40,14,2,-2,-1,-18,-29
1523210031064246,-38,-30,-16,-3,10,5,23,-5
1523210031065247,-30,21,-3,-3,-6,0,-10,-15
1523210031065247,19,-28,4,-1,-4,0,5,10
1523210031088529,-33,-22,7,-3,-4,-8,14,-17
1523210031088529,28,19,5,-8,-13,0,-13,-3
1523210031088529,-15,28,0,0,1,0,-2,-20
1523210031088529,23,-5,10,6,10,3,-11,18
1523210031110369,-28,14,0,4,-2,-2,11,-15
1523210031110369,-5,-56,-18,-7,-5,-3,-19,10
1523210031111372,8,8,2,-5,-3,3,27,44
1523210031111372,1,2,-5,-2,-4,-7,-23,-47
1523210031124418,-2,5,-8,-5,-1,3,20,9
1523210031124418,-16,-6,9,5,0,-2,-42,-24
1523210031125407,34,23,0,-2,2,0,31,11
1523210031125407,-55,-24,-6,-3,-6,-3,14,-19
1523210031148531,-14,23,-2,5,6,2,-6,9
1523210031148531,28,-19,4,-1,-1,1,10,14
1523210031148531,7,7,4,-2,-2,-3,-23,-7
1523210031148531,7,-5,7,3,0,-1,6,-9
1523210031170768,1,-19,-7,0,-3,-1,-3,10
1523210031170768,20,28,-16,3,7,-1,23,10
1523210031171529,0,13,5,5,-3,-6,-28,-41
1523210031171529,8,13,-11,-15,-10,1,4,28
1523210031183564,-25,-41,-3,-3,-2,-7,-8,-10
1523210031183564,17,19,4,4,2,0,-4,42
1523210031192631,-10,-18,4,3,-1,0,-1,-28
1523210031192631,15,64,-14,-2,-3,-2,7,11
1523210031207868,-3,-37,-14,-4,-7,-2,-9,-5
1523210031207868,-10,-18,4,-1,7,4,4,-18
1523210031208630,16,18,3,1,1,1,-2,22
1523210031208630,-60,-22,-2,-2,-5,-6,-13,-5
1523210031230688,24,36,4,-2,0,-1,3,-2
1523210031230688,-12,-8,5,-1,-5,-1,1,-9
1523210031230688,-11,-10,-15,1,15,2,-12,2
1523210031230688,17,-28,2,-6,-4,-3,-27,-16
1523210031243724,5,25,-7,2,1,4,23,-1
1523210031243724,-8,-2,-3,-4,-11,-5,17,-7
1523210031252853,-4,1,-1,-1,-9,-5,-24,-15
1523210031252853,9,14,0,6,8,4,3,10
1523210031267787,4,4,4,6,2,-2,-8,11
1523210031267787,-2,-2,2,-9,-7,-4,16,4
1523210031268789,-19,-38,0,2,3,2,18,-17
1523210031268789,19,0,-4,3,1,1,2,33
1523210031290903,2,-7,8,-5,-1,-6,-17,-9
1523210031290903,13,9,4,1,-5,1,1,13
1523210031290903,-18,2,-1,-2,-10,-2,9,4
1523210031290903,-14,-8,3,3,22,7,-9,-41
1523210031303921,14,7,-5,1,-2,2,28,16
1523210031303921,44,-11,2,2,3,5,-2,-1
1523210031312128,-88,9,-5,-11,-11,-6,7,4
1523210031312128,20,5,4,0,-7,-1,-9,-4
1523210031327946,2,5,-3,2,1,-1,-6,-6
1523210031327946,-1,28,7,1,2,1,-3,-17
1523210031328950,29,-44,-1,-1,2,0,3,22
1523210031328950,-13,8,-4,0,-8,-9,4,-53
1523210031350007,-20,25,-7,-4,-2,-1,-14,-10
1523210031350007,1,6,3,1,3,2,0,10
1523210031351007,9,7,1,-1,8,3,-16,-2
1523210031351007,8,-20,3,0,-4,-1,13,28
1523210031364279,14,17,7,-1,1,3,3,15
1523210031364279,-19,-35,7,-3,-4,-4,0,-7
1523210031372127,12,59,1,1,-4,-7,-18,-6
1523210031372127,7,-39,4,-8,-4,-4,-10,20
1523210031388342,3,-12,5,-1,-1,1,23,15
1523210031388342,-21,8,-10,4,4,0,7,-30
1523210031389113,31,-4,4,-1,-4,1,-1,-39
1523210031389113,-6,12,-6,-5,-4,-3,-7,17
1523210031410166,7,-10,1,2,1,-2,-13,28
1523210031410166,-25,3,-6,2,-1,0,-6,-20
1523210031411167,32,5,-5,0,-3,-1,-4,13
1523210031411167,4,3,-7,1,-6,-4,-3,-7
1523210031424205,-7,3,-9,-3,2,3,19,3
1523210031424205,16,4,-8,5,-3,-4,-21,4
1523210031432224,-17,-17,0,-5,1,1,21,1
1523210031432224,10,34,2,7,6,4,9,12
1523210031448501,-28,-41,-4,-6,-1,-3,-22,-25
1523210031448501,6,-4,-6,-1,-6,-3,-2,22
1523210031448501,0,14,-2,-5,-8,-2,-9,-6
1523210031448501,-5,-35,-6,-4,5,7,1,-15
1523210031470324,1,5,0,7,10,0,2,-23
1523210031470324,-14,23,3,-5,-5,-2,-2,2
1523210031471327,-11,-39,-6,-6,-4,-6,-17,-16
1523210031471327,33,24,-1,-1,-5,-3,4,28
1523210031484363,-69,-21,-10,-6,-11,-8,-8,-20
1523210031484363,40,-18,6,-2,4,7,-1,-2
1523210031492385,-54,5,1,2,4,-1,-8,31
1523210031492385,-10,11,2,9,0,0,8,-49
1523210031508429,20,15,-2,-9,-5,-2,-8,4
1523210031508429,-6,-17,-5,-4,0,1,-12,2
1523210031508429,1,-7,-3,3,0,0,30,0
1523210031508429,0,-4,-9,-11,-5,-4,6,13
1523210031530485,1,6,2,0,-3,-2,-13,-6
1523210031530485,-2,-10,4,2,1,-1,1,6
1523210031531488,10,36,2,-4,-6,-3,-3,-22
1523210031531488,-21,-9,-6,-4,-3,-4,1,-1
1523210031553584,11,-18,3,2,2,3,9,10
1523210031553584,1,-5,-2,0,-3,-7,-2,40
1523210031553584,4,-12,-3,-7,-7,-3,-1,-58
1523210031553584,6,24,12,9,7,4,-6,13
1523210031567583,6,19,2,0,7,1,-21,7
1523210031567583,-2,-1,-5,-1,-8,-3,13,-9
1523210031568584,11,-18,3,4,2,3,0,58
1523210031568584,-43,-6,6,-3,-4,-6,-9,-72
1523210031590649,28,-16,5,-6,-5,4,1,21
1523210031590649,-40,-6,-9,-6,5,-5,5,-62
1523210031591647,26,5,-3,-3,-2,-3,1,19
1523210031591647,19,-3,7,9,1,2,19,32
1523210031612704,28,38,-5,3,0,-5,-1,33
1523210031612704,-75,-38,-4,1,-3,-5,-9,-42
1523210031613706,-10,-1,6,1,4,0,-20,-7
1523210031613706,11,-46,-6,-4,-1,5,3,8
1523210031627744,-15,18,5,2,-1,-6,-12,-28
1523210031627744,67,-5,-6,-2,-5,-1,17,48
1523210031628746,-40,40,-7,2,1,0,-9,-22
1523210031628746,-8,-39,6,1,3,-3,-3,33
1523210031651002,5,31,-2,-11,-12,-3,11,-15
1523210031651002,-9,2,2,-6,0,4,-14,8
1523210031651002,21,-45,-7,1,4,3,-3,16
1523210031651002,10,40,1,-1,2,-1,16,5
1523210031672872,-5,7,0,4,0,1,10,-1
1523210031672872,10,21,-12,0,-2,0,2,-13
1523210031673872,-9,-18,4,-9,-2,-1,9,21
1523210031673872,11,16,-1,3,2,1,-29,-19
1523210031687136,-6,-35,-7,-7,-2,4,14,2
1523210031687136,-9,25,7,-2,-1,-3,5,3
1523210031695924,-3,3,-6,-1,-11,-10,0,-41
1523210031695924,-15,-10,-12,-10,-6,-3,-6,3
1523210031709962,37,-7,-4,7,3,3,8,0
1523210031709962,3,7,6,3,11,5,-12,49
1523210031711967,-18,-24,-7,-4,0,-3,6,-57
1523210031711967,-29,7,-2,-5,-4,-6,-8,-13
1523210031733025,1,-10,3,1,-4,-1,-21,-3
1523210031733025,3,13,7,0,3,2,14,12
1523210031735067,1,-17,-2,-2,1,0,11,-1
1523210031735067,21,9,2,6,-1,-1,2,20
1523210031746057,-14,19,7,-1,-3,-1,-11,15
