timestamp,emg1,emg2,emg3,emg4,emg5,emg6,emg7,emg8
1523208085452926,15,10,36,1,-11,-8,4,3
1523208085452926,4,1,38,-17,9,14,28,6
1523208085461953,-5,-5,-54,-12,6,-4,8,1
1523208085461953,1,35,32,27,-2,-2,-17,0
1523208085476992,0,-17,-81,-18,-12,4,-3,-1
1523208085476992,-2,10,45,-19,14,8,-22,2
1523208085479002,0,-21,-87,7,-7,-9,15,-5
1523208085479002,-3,-20,52,5,-11,-8,53,1
1523208085499047,-8,-3,3,1,5,7,-12,-2
1523208085499047,0,8,40,15,5,4,-1,4
1523208085501052,2,8,-31,-4,3,-3,4,1
1523208085501052,-2,4,-60,-10,-4,1,-23,-2
1523208085513084,14,48,109,10,4,8,-13,3
1523208085513084,-17,-50,-99,-35,-9,-5,33,-15
1523208085522108,0,-13,57,-5,2,-9,1,-1
1523208085522108,2,20,10,6,4,1,-20,2
1523208085537149,3,-4,33,14,-7,-2,1,1
1523208085537149,7,20,55,3,1,0,-14,3
1523208085538150,-7,-19,-93,-14,-5,-2,5,-3
1523208085538150,8,15,8,6,7,5,-23,12
1523208085559207,-19,-17,16,-27,-17,-3,34,-20
1523208085559207,0,1,34,7,3,-4,1,-4
1523208085561215,11,12,-60,-4,4,-1,20,1
1523208085561215,-3,16,28,13,2,-2,-7,-5
1523208085573246,-12,-35,-58,-24,-7,-2,-33,-7
1523208085573246,1,8,-37,2,0,4,-7,3
1523208085582268,3,15,53,2,1,3,2,-1
1523208085582268,8,18,35,18,4,1,-10,-2
1523208085596311,-6,-11,-71,-23,-9,-2,-9,0
1523208085596311,-5,1,20,31,-1,-3,-8,-4
1523208085598310,3,13,53,15,6,3,-6,5
1523208085598310,0,7,77,8,0,1,25,-5
1523208085619366,-4,-19,-106,-8,0,1,8,3
1523208085619366,-2,-1,-3,-8,2,-1,6,4
1523208085621372,-2,0,-24,-13,0,-1,-41,0
1523208085621372,17,7,-5,-3,-7,2,22,9
1523208085633404,-13,24,27,2,0,-4,2,-18
1523208085633404,3,12,96,17,5,-5,42,5
1523208085642428,-5,-15,-48,-38,-13,2,-29,2
1523208085642428,4,-3,-33,12,-6,-9,-37,1
1523208085657466,8,24,83,9,5,5,8,6
1523208085657466,-3,-10,-42,-6,-3,4,-32,1
1523208085658470,6,21,39,7,5,8,-27,-1
1523208085658470,-10,-3,-67,-15,-3,-8,59,-1
1523208085679540,-4,-14,44,18,-1,1,51,0
1523208085679540,19,-12,-39,-15,-3,-5,11,1
1523208085680530,-8,-15,6,6,-1,15,-43,33
1523208085680530,10,3,-9,13,7,1,5,38
1523208085692562,-13,55,73,2,10,-10,53,-30
1523208085692562,-10,-72,-35,-15,-7,-16,5,-14
1523208085701585,-20,40,-25,11,-4,-8,48,-21
1523208085701585,-4,-52,7,-2,-9,3,-97,-12
1523208085716624,-5,-16,-2,18,3,5,-5,27
1523208085716624,36,-21,8,-16,-7,12,-13,10
1523208085718630,11,-2,60,24,-4,-26,73,20
1523208085718630,-20,-45,-78,-61,-20,4,-10,-3
1523208085739920,21,40,75,53,21,7,-35,-16
1523208085739920,-21,-10,-102,9,26,41,-59,5
1523208085740688,7,-91,-35,-29,-7,-27,-5,12
1523208085740688,38,110,36,6,-6,-4,-30,-21
1523208085752719,-63,-6,-47,-29,-14,-5,66,3
1523208085752719,-9,-41,48,11,-7,-17,1,-27
1523208085761745,13,4,17,10,15,9,14,-33
1523208085761745,7,-55,1,-4,-3,-3,50,26
1523208085776790,39,10,-48,-12,-7,7,-65,7
1523208085776790,-9,118,66,27,1,-7,15,-1
1523208085778791,5,-4,-91,-51,-7,6,-3,-9
1523208085778791,-26,1,25,14,1,-6,15,-20
1523208085798843,12,-12,-6,0,-1,-10,-102,0
1523208085798843,-6,-34,8,9,-2,-12,31,14
1523208085806883,13,41,52,-1,-5,6,-13,-1
1523208085806883,-29,114,-11,0,-1,-6,-18,-19
1523208085814885,-8,-106,-78,-14,-3,1,9,-1
1523208085814885,5,-26,-3,-23,-7,-2,-42,6
1523208085821960,1,0,41,23,7,3,23,-11
1523208085821960,4,-9,7,5,9,5,12,6
1523208085836945,-2,10,-63,-24,-10,-6,-3,-3
1523208085836945,-12,-15,30,15,-7,-9,18,-11
1523208085839030,9,22,42,0,3,9,18,10
1523208085839030,-19,-10,10,23,9,4,-4,-19
1523208085859003,-1,-57,11,10,-8,12,-30,15
1523208085859003,62,4,-8,-14,-3,-17,75,28
1523208085861010,-39,-4,-7,8,-1,2,-55,-37
1523208085861010,-65,51,24,6,3,-12,5,-24
1523208085873275,23,-65,9,-1,2,5,-4,-2
1523208085873275,17,2,5,11,-1,4,-14,13
1523208085882064,1,13,13,13,3,8,-28,5
1523208085882064,6,50,5,-11,-4,-3,-31,-6
1523208085897103,49,-7,-73,2,4,32,-14,-5
1523208085897103,-57,-38,30,-5,-6,-35,19,22
1523208085898111,45,-24,-22,-2,-4,-4,6,13
1523208085898111,11,-48,0,2,0,4,3,8
1523208085919398,7,61,34,13,-2,-4,-10,-10
1523208085919398,7,38,-85,-47,-7,10,-31,-7
1523208085921168,-38,-16,57,9,0,-1,-9,-10
1523208085921168,4,37,-66,-14,-3,-7,26,-16
1523208085933201,-15,-70,17,-1,-2,-15,51,22
1523208085933201,9,21,14,3,5,16,-20,-4
1523208085942226,-19,-17,15,-7,-2,-7,44,4
1523208085942226,36,-30,-6,10,3,2,5,21
1523208085957268,13,-5,39,-10,2,-11,-18,-3
1523208085957268,-26,7,-58,-21,-5,5,-18,-25
1523208085958337,-16,2,-6,43,5,5,-7,17
1523208085958337,3,-39,42,-29,-4,-2,0,-10
1523208085979322,-4,127,1,-5,-7,-17,-16,-8
1523208085979322,-4,-63,41,1,4,10,-32,-10
1523208085981327,-4,-21,5,0,2,-5,32,1
1523208085981327,12,-34,18,14,4,0,34,-2
1523208085993363,0,2,4,-36,0,-4,15,32
1523208085993363,-2,17,21,21,-8,6,-13,-22
1523208086002385,-1,21,45,20,-5,-10,-21,-12
1523208086002385,-18,-43,-10,5,4,2,-19,-11
1523208086016421,-22,-24,52,-2,-2,-3,16,7
1523208086016421,-9,16,-7,-6,0,-4,0,-3
1523208086023654,18,-15,-37,-15,1,7,-18,6
1523208086023654,7,-44,-29,0,-2,2,0,11
1523208086039717,7,-48,42,25,2,-4,7,-6
1523208086039717,11,-10,-32,-22,-2,-2,14,37
1523208086040486,-52,58,-49,-25,-12,-12,-22,-41
1523208086040486,-9,94,-18,1,-5,-6,49,3
1523208086061541,-29,-99,17,6,2,-2,10,-18
1523208086061541,17,18,44,26,5,11,-6,23
1523208086063546,21,-6,9,-2,0,-2,7,7
1523208086063546,32,-20,-9,-8,-1,5,-11,13
1523208086084601,-23,127,-19,-4,-7,-8,-17,-8
1523208086084601,-8,-35,-27,-2,-1,-7,8,-22
1523208086085606,8,-11,3,-15,-3,5,-34,11
1523208086085606,-5,-46,23,8,1,1,-16,-14
1523208086099641,35,35,49,32,10,-1,13,33
1523208086099641,-20,-14,-14,11,-6,-4,-15,-13
1523208086100645,6,-15,-58,-94,-9,-1,8,-4
1523208086100645,45,-1,0,28,5,6,-13,8
1523208086112680,-32,49,-121,-58,-35,-23,-10,14
1523208086112680,-30,81,83,26,7,-5,-63,-29
1523208086121700,34,-70,28,21,13,-7,21,18
1523208086121700,34,20,-2,-14,-2,-1,17,-21
1523208086135738,-17,55,23,12,9,23,-42,-4
1523208086135738,-18,28,-12,-2,-7,-25,37,-6
1523208086142758,-5,-43,-80,-17,-8,-4,-64,-12
1523208086142758,-10,15,15,3,5,0,35,51
1523208086158803,7,-43,-1,22,3,2,-9,-27
1523208086158803,32,23,36,-3,-1,20,-19,10
1523208086160808,-24,-49,-37,-30,-9,-11,17,11
1523208086160808,0,-10,38,7,-7,-4,-31,9
1523208086173071,1,-32,5,-10,-6,-22,18,-17
1523208086173071,17,-19,10,17,3,7,11,12
1523208086189882,15,94,19,19,3,5,34,-4
1523208086189882,-31,-57,-27,-11,-5,0,-25,-24
1523208086196899,6,-9,12,9,5,4,20,6
1523208086196899,-2,-29,-53,-37,0,0,6,-5
1523208086198906,15,6,-7,110,1,0,6,2
1523208086198906,15,-25,18,-17,-8,-7,-6,27
1523208086219997,-36,67,12,19,5,2,-6,-68
1523208086219997,-22,20,6,-45,-6,-10,9,-11
1523208086220964,7,-25,7,1,7,11,-13,8
1523208086220964,-45,-18,-36,24,9,-2,8,3
1523208086242025,-7,-59,51,-30,-9,-4,11,-16
1523208086242025,-20,34,-11,17,0,3,-27,28
1523208086244030,23,15,12,-10,-5,-12,-15,-2
1523208086244030,-15,-9,31,-4,-4,-6,9,-13
1523208086257061,22,39,-16,-14,0,7,-27,20
1523208086257061,-16,-18,-77,-5,-4,-9,23,-10
1523208086259069,-20,-25,41,3,0,9,-14,-5
1523208086259069,25,-1,69,-7,-2,-4,10,-6
1523208086279119,57,-12,-106,-1,2,3,-33,49
1523208086279119,-72,-41,62,20,3,2,39,-37
1523208086281132,1,3,-5,-17,-1,3,32,5
1523208086281132,-1,71,-11,-13,-5,-1,-34,-13
1523208086302182,-1,-44,18,2,-1,1,23,4
1523208086302182,37,25,29,7,2,4,-6,6
1523208086303184,24,29,0,5,3,-1,15,13
1523208086303184,-54,-19,15,-15,-5,0,-12,-38
1523208086317220,78,-43,17,28,5,-2,40,11
1523208086317220,-31,-21,-60,-48,-4,2,20,29
1523208086318320,-40,120,50,4,-8,-4,-29,-70
1523208086318320,-28,-98,-128,-9,-1,-4,77,-1
1523208086339279,-7,11,31,-21,-2,-3,-16,-6
1523208086339279,55,57,30,19,-1,-9,-46,-7
1523208086341284,-6,-74,-20,0,13,20,21,28
1523208086341284,7,35,47,0,-1,-7,-20,6
1523208086362340,-29,-6,20,18,0,3,-26,-19
1523208086362340,18,-37,-60,-15,-6,-5,13,2
1523208086363342,-1,40,35,-3,-3,-15,-19,0
1523208086363342,19,-45,-17,10,0,-1,-48,23
1523208086376379,-6,-42,-40,-2,3,-1,21,33
1523208086376379,28,47,25,2,-9,0,-30,-2
1523208086383396,1,-40,13,-6,2,0,19,8
1523208086383396,7,24,73,28,1,5,-14,-6
1523208086399438,-33,59,-104,-59,-9,-6,-24,-8
1523208086399438,16,-68,26,16,4,-3,53,1
1523208086401445,-14,-1,30,9,-1,3,25,-22
1523208086401445,52,13,13,7,6,10,-14,34
1523208086422538,-25,18,30,4,-1,-8,13,8
1523208086422538,26,1,-25,2,0,-2,16,3
1523208086423502,-21,-7,-67,-8,-6,-5,-5,-50
1523208086423502,9,-1,-25,-12,-4,-1,-20,-7
1523208086435535,17,-23,25,16,4,4,4,-3
1523208086435535,-2,9,5,9,1,1,-7,14
1523208086444560,-12,96,65,-3,-1,-6,6,-28
1523208086444560,-35,-47,17,-12,-6,0,-32,-12
1523208086459601,-1,-6,46,5,1,-2,-3,-14
1523208086459601,6,-5,-8,9,5,5,21,7
1523208086460605,23,-25,-6,5,1,3,-6,42
1523208086460605,-24,28,-30,-1,0,1,2,-47
1523208086481658,-7,14,-4,-4,-7,-5,1,-4
1523208086481658,-4,30,-3,-3,-7,-8,-28,-21
1523208086483662,0,-28,-2,-17,-3,0,-33,14
1523208086483662,-6,-2,-12,-1,0,2,23,8
1523208086495695,-22,-35,-7,13,5,-3,51,-5
1523208086495695,16,20,15,0,0,-2,-29,-14
1523208086504718,-10,21,10,11,-3,0,-3,2
1523208086504718,-2,-28,-26,-21,0,-2,9,6
1523208086519758,16,20,-32,-25,-8,2,-22,-6
1523208086519758,-24,-17,14,14,3,4,9,-4
1523208086520761,6,-8,-32,4,0,-3,24,21
1523208086520761,-2,-8,11,14,-4,-10,-13,-37
1523208086541824,-1,100,58,8,-5,3,6,10
1523208086541824,-31,-104,-69,-43,-10,2,-8,-10
1523208086543828,21,2,2,8,18,9,-2,26
1523208086543828,-21,-11,-20,1,0,-7,25,-24
1523208086555854,-1,-15,26,19,4,2,-26,-6
1523208086555854,10,21,48,12,-18,-10,12,8
1523208086562872,-7,0,-35,-43,-19,-3,-6,-7
1523208086562872,-16,-6,4,15,17,5,-20,16
1523208086578916,39,-12,-16,11,20,6,6,-27
1523208086578916,19,6,30,14,0,11,39,24
1523208086580921,-30,-27,3,1,-2,-9,12,-3
1523208086580921,19,73,4,13,-9,-1,-17,27
1523208086601978,-18,-37,-94,-66,-25,-4,37,7
1523208086601978,-6,10,49,27,13,3,-21,5
1523208086602980,11,-30,-46,-15,-9,-5,4,-5
1523208086602980,3,37,-8,-20,-13,-4,29,0
1523208086616016,-15,-51,10,29,10,5,-64,-6
1523208086616016,20,21,-15,-6,2,1,29,-18
1523208086623033,-3,-43,38,57,5,-3,-13,-10
1523208086623033,38,41,-22,-27,-10,3,-17,37
1523208086639077,-43,39,46,1,-5,-2,43,-52
1523208086639077,-21,-42,-69,-32,11,-7,-11,-22
1523208086641081,13,-23,2,2,1,0,-1,12
1523208086641081,-15,7,34,46,12,3,-11,-6
1523208086662136,23,-10,42,-5,-4,5,15,22
1523208086662136,8,13,-7,2,-9,-10,-7,10
1523208086664158,8,17,57,44,20,10,19,-2
1523208086664158,-11,52,8,-46,0,8,-9,1
1523208086676183,-26,-76,-82,-25,-12,-14,-1,-52
1523208086676183,-61,12,57,23,6,-3,-21,0
1523208086683192,0,-23,-23,-28,-15,-7,-40,-24
1523208086683192,-28,11,33,20,1,-8,15,-15
1523208086699240,7,5,-5,5,4,7,15,-6
1523208086699240,24,2,-32,-23,-7,-1,13,11
1523208086701242,-23,34,5,0,-3,-5,-10,-25
1523208086701242,11,-19,-15,-4,2,0,23,8
1523208086722297,5,0,38,6,0,-2,0,21
1523208086722297,6,20,-36,-8,-3,0,-5,8
1523208086723316,-2,15,18,-11,1,6,6,19
1523208086723316,-13,-70,-7,1,-3,1,11,-11
1523208086735332,12,12,10,3,-2,-5,-12,18
1523208086735332,18,18,19,-2,0,-5,-6,3
1523208086744355,10,23,-9,-3,0,2,50,28
1523208086744355,3,25,22,8,-6,-7,-29,-34
1523208086759399,-4,8,14,12,3,1,-17,21
1523208086759399,-18,-43,26,5,-1,1,-5,-10
1523208086761403,2,-2,-5,-15,-6,-1,-38,0
1523208086761403,37,-19,4,5,6,-2,35,39
1523208086781489,-20,11,26,17,1,1,-9,-28
1523208086781489,16,31,-6,-13,-3,0,10,3
1523208086783459,-12,-14,-14,-9,-2,-1,2,57
1523208086783459,-9,10,-2,-2,-7,-2,-8,-89
1523208086795510,-48,-4,-7,-8,0,-10,-35,5
1523208086795510,52,3,-5,0,0,0,-20,-9
1523208086804515,-57,-31,33,7,1,-5,11,-6
1523208086804515,20,60,-26,-11,-1,-2,-44,39
1523208086819790,10,-1,-12,-4,-3,-1,17,5
1523208086819790,-14,-25,15,11,-1,1,-21,-1
1523208086821594,14,-6,12,5,2,1,9,4
1523208086821594,-2,-12,-12,-3,0,-1,-23,4
1523208086841618,5,1,-14,-14,-7,-4,16,-2
1523208086841618,8,6,16,12,3,5,0,16
1523208086843619,22,6,-32,-14,-3,2,-14,-13
1523208086843619,-25,-65,-11,-6,-1,-17,42,0
1523208086855650,17,7,-4,5,-2,-2,-4,18
1523208086855650,-9,-31,0,-9,0,5,-4,-18
1523208086864674,11,43,4,-6,-3,-3,-1,2
1523208086864674,6,-22,-12,-3,0,5,-13,8
1523208086879715,24,43,25,16,3,-2,4,32
1523208086879715,-8,-21,5,3,0,-6,-12,1
1523208086880719,-20,-14,4,-11,-7,0,14,-37
1523208086880719,16,-23,4,2,2,2,-2,30
1523208086901773,3,-4,-9,-2,1,3,2,-18
1523208086901773,-7,21,0,2,3,7,2,-22
1523208086903779,12,31,-8,1,-6,-8,-33,2
1523208086903779,-30,6,-14,-16,-5,-7,-1,-15
1523208086915812,28,-28,2,4,2,-3,-12,14
1523208086915812,-46,-14,3,-2,-3,4,21,-9
1523208086924835,1,52,-3,4,5,2,-10,-24
1523208086924835,4,-29,-20,4,-4,1,-2,21
1523208086939977,-17,4,-2,-20,-8,-1,-12,-37
1523208086939977,13,-28,-4,2,2,-3,-6,22
1523208086940880,20,-22,-4,5,3,3,16,-3
1523208086940880,-16,-3,9,6,1,-2,-10,-3
1523208086961934,-4,47,-9,1,0,-1,10,-11
1523208086961934,-26,-38,2,4,-3,-8,-23,3
1523208086963939,7,-42,-19,-23,-10,-4,-14,-1
1523208086963939,8,49,11,1,0,3,17,-6
1523208086975975,10,-23,-1,1,1,3,0,12
1523208086975975,11,39,4,-7,-1,-1,1,0
1523208086984028,0,-22,-6,6,2,0,-1,10
1523208086984028,1,4,4,-5,-3,8,8,0
1523208086999032,9,68,2,-3,-2,-6,-14,15
1523208086999032,-14,-22,-3,-1,-1,-1,1,18
1523208087001037,10,-6,-6,-9,0,0,36,4
1523208087001037,6,6,4,0,0,3,4,-11
1523208087022093,-5,-20,-32,-4,2,6,3,7
1523208087022093,10,15,5,1,-3,-1,1,-7
1523208087023096,11,-19,9,-4,-4,0,11,9
1523208087023096,-6,30,5,-1,-2,-6,0,-8
1523208087035128,-5,40,1,4,-2,1,19,12
1523208087035128,7,-6,1,-8,-6,-7,-9,-9
1523208087044152,-14,2,-11,-3,-4,-3,-9,1
1523208087044152,-4,-62,-5,4,4,2,0,-30
1523208087059198,13,-45,11,5,4,6,4,17
1523208087059198,-26,124,3,4,0,2,5,-25
1523208087061197,-43,-88,-22,-9,-5,-8,-9,-42
1523208087061197,5,37,-1,-2,1,-1,-37,8
1523208087082252,6,-33,-1,-3,-2,-2,-26,-11
1523208087082252,11,-18,-1,-1,0,-13,33,13
1523208087083256,24,40,19,15,5,5,2,6
1523208087083256,-23,-10,-12,-8,-4,-3,-7,18
1523208087095289,-16,-21,5,2,-1,0,-22,-33
1523208087095289,-5,-33,-6,-10,-4,-2,-3,3
1523208087104311,6,-16,9,10,0,-4,5,-2
1523208087104311,7,20,13,-6,-3,2,18,11
1523208087119359,-17,-31,-21,-3,-2,-2,8,0
1523208087119359,1,-5,17,-5,-1,2,-3,-12
1523208087121379,8,21,-15,-3,0,-3,0,30
1523208087121379,-15,-23,2,5,-1,2,-4,-15
1523208087141412,-5,-15,4,0,-2,-1,33,18
1523208087141412,6,-3,-9,1,0,2,-14,-16
1523208087143421,-17,-35,-3,0,0,4,10,-11
1523208087143421,4,15,0,4,0,-2,9,11
1523208087164706,17,102,30,-13,-9,-9,-10,-11
1523208087164706,-14,-70,-40,-2,1,0,-2,20
1523208087165474,-8,38,22,0,3,5,-28,24
1523208087165474,-3,-60,-2,0,-3,-7,13,-34
1523208087179511,5,-32,14,15,5,2,10,3
1523208087179511,-24,15,-6,-10,-2,3,-5,-7
1523208087180553,5,19,-21,-9,-7,-7,-16,-8
1523208087180553,14,-6,25,-1,0,1,-18,15
1523208087201610,2,36,-9,7,-2,2,27,17
1523208087201610,6,11,3,-11,-4,-4,-2,-35
1523208087203575,0,-9,0,2,0,-5,-14,6
1523208087203575,-20,-19,-37,-11,-3,-7,4,3
1523208087224631,18,0,9,-10,0,3,-6,27
1523208087224631,7,34,-4,4,0,6,0,8
1523208087225638,-2,-32,7,4,1,1,46,2
1523208087225638,16,-11,8,8,0,-5,-24,1
1523208087239906,-29,52,-20,-14,-4,-1,-7,-22
1523208087239906,10,-91,-4,5,1,-6,-17,1
1523208087240674,7,45,-9,-4,-2,0,-13,11
1523208087240674,9,-23,-15,-3,-1,4,-3,-3
1523208087261731,-7,-47,-3,3,0,-1,29,0
1523208087261731,16,82,10,3,-2,-4,-11,0
1523208087263737,4,-42,-7,-5,0,4,-12,-8
1523208087263737,8,11,-8,4,-1,1,27,7
1523208087284791,-24,3,-4,-13,-3,-6,-13,-7
1523208087284791,1,-44,-19,-1,-1,-1,9,13
1523208087285794,-3,6,-2,-3,-1,-2,9,-34
1523208087285794,1,-19,-6,-6,-3,4,20,10
1523208087306851,2,-4,5,9,5,2,-8,-13
1523208087306851,-1,10,18,2,-2,0,-2,4
1523208087308856,10,42,-28,-7,-5,-3,1,9
1523208087308856,-6,45,29,-2,-2,-3,-7,-19
1523208087322124,21,-80,-33,-10,-3,-7,-40,5
1523208087322124,-4,-34,-7,9,6,6,16,-10
1523208087323897,-12,76,9,5,1,7,6,-13
1523208087323897,-26,61,-3,-3,-4,-1,13,-29
1523208087343951,15,-69,9,-3,-6,-13,-22,15
1523208087343951,-18,48,-22,-6,-4,-3,-19,-18
1523208087345954,11,-59,0,7,4,-1,4,-3
1523208087345954,18,21,11,8,4,3,-12,14
1523208087358990,-21,-9,8,6,7,7,35,-4
1523208087358990,-12,56,4,-8,-13,-4,-15,-12
1523208087365239,-12,-27,-16,-19,-4,1,-7,21
1523208087365239,-11,-30,-9,-3,-1,-8,2,-39
1523208087382050,17,13,9,8,2,2,-14,3
1523208087382050,13,12,20,14,8,-1,24,19
1523208087383091,-3,-1,4,-5,-3,-5,-10,2
1523208087383091,3,3,-2,-7,-6,1,-5,12
1523208087404108,-3,-24,-33,-4,-3,0,-7,-2
1523208087404108,4,103,14,5,0,-1,-8,3
1523208087406114,-20,-62,-5,-6,-5,-7,6,-2
1523208087406114,0,-82,9,-7,1,-1,10,0
1523208087419329,-42,26,19,7,-2,-2,-12,-17
1523208087419329,8,-93,-6,0,1,1,11,17
1523208087426170,16,61,2,7,2,0,-19,3
1523208087426170,-1,39,9,-8,-5,-3,-15,17
1523208087442213,-10,-69,-13,-3,-4,-3,15,1
1523208087442213,1,-10,-23,-10,-2,4,8,-36
1523208087443213,-16,10,17,4,0,-7,13,-18
1523208087443213,18,-10,0,-6,-2,-1,-7,34
1523208087472475,-17,16,4,7,4,1,-20,-36
1523208087472475,19,-15,23,0,1,3,15,24
1523208087473292,7,6,-41,-3,-1,-2,-14,8
1523208087473292,-34,42,0,-1,-1,-2,-2,-61
1523208087478306,1,-14,22,0,-2,-6,14,13
1523208087478306,1,5,-4,-7,-2,-3,2,1
1523208087485324,12,-16,25,13,6,4,-24,-4
1523208087485324,-39,8,9,0,0,3,12,11
1523208087501404,40,22,-15,-6,0,9,-13,18
1523208087501404,-20,12,-1,4,0,-8,-7,10
1523208087503371,-32,6,6,-10,-2,-3,7,-22
1523208087503371,50,-20,0,1,1,-1,6,20
1523208087524428,-30,-20,11,7,1,6,1,-5
1523208087524428,8,67,-3,-2,1,4,32,26
1523208087526435,-15,-70,1,-10,-7,-2,15,-41
1523208087526435,13,19,-3,3,3,0,-21,11
1523208087538467,5,19,5,-7,-5,-6,-1,0
1523208087538467,-2,-73,-8,-6,-3,1,-12,-9
1523208087545483,8,-23,12,2,-2,2,-11,26
1523208087545483,-17,71,-23,0,-5,-9,17,-2
1523208087562528,-3,-82,-33,-3,1,0,-8,-8
1523208087562528,9,14,14,2,1,2,-10,10
1523208087563531,28,18,2,0,1,2,-5,8
1523208087563531,-6,-46,7,2,-4,-5,2,-8
1523208087584588,25,64,22,12,5,-1,39,-1
1523208087584588,-36,-45,-15,-16,-8,-5,-21,-26
1523208087585590,0,5,-3,-5,-5,-6,2,2
1523208087585590,9,-29,-8,1,-1,-3,-32,0
1523208087598624,18,36,6,-1,0,1,5,32
1523208087598624,-7,-32,1,4,1,-1,-6,-33
1523208087605644,-15,-9,-3,3,-2,-2,12,-7
1523208087605644,9,55,-4,-1,-1,3,-8,1
1523208087621686,-1,-6,5,-9,-5,-5,-2,-11
1523208087621686,12,15,-5,0,1,1,-3,10
1523208087623816,-9,-7,-8,3,3,-1,7,9
1523208087623816,26,-27,3,-7,-5,-7,-7,-4
1523208087644749,-31,29,-2,-5,-3,-1,-5,-14
1523208087644749,9,-30,-21,-2,-1,-2,-9,14
1523208087645751,17,36,-1,0,-2,1,-5,-36
1523208087645751,-39,-54,5,11,6,8,3,-29
1523208087657784,11,56,17,1,-5,-8,-17,15
1523208087657784,-6,-3,-2,-4,1,-2,22,-6
1523208087666807,8,-34,11,5,-3,-5,-12,13
1523208087666807,16,48,-26,-2,-4,0,-4,20
1523208087681884,-8,-37,9,-2,0,-2,3,-23
1523208087681884,-10,5,16,13,6,6,1,8
1523208087683851,-8,19,-4,-18,-4,-2,-10,-9
1523208087683851,-3,-39,-1,3,2,-5,-1,11
1523208087703905,4,64,-6,0,-1,-2,-4,5
1523208087703905,25,-5,-2,-1,0,2,3,-1
1523208087705913,-5,-13,-7,0,-3,-2,7,5
1523208087705913,5,14,12,-4,1,2,10,20
1523208087718177,17,-19,-6,-1,0,2,-2,0
1523208087718177,-13,-9,0,-1,-4,-7,-14,-46
1523208087726967,-33,61,0,-1,-2,-3,17,-19
1523208087726967,-8,-71,0,-10,-4,-3,-4,11
1523208087742048,23,2,-1,6,4,6,7,10
1523208087742048,13,16,9,3,0,-2,-9,41
1523208087743010,-23,2,-8,1,2,2,-7,-55
1523208087743010,47,23,4,-1,0,-4,7,-15
1523208087764088,-31,-16,2,-4,-3,-2,-29,-9
1523208087764088,2,-5,2,1,1,5,18,5
1523208087766071,11,11,0,-7,-3,1,0,50
1523208087766071,6,-44,-3,2,1,3,1,-4
1523208087779104,-30,9,-3,-2,-1,-1,-2,4
1523208087779104,14,32,-7,6,-5,-7,-24,-16
1523208087787126,16,-31,5,-1,0,1,18,22
1523208087787126,-14,16,-18,-8,1,2,-36,-18
1523208087802168,23,-16,-9,-3,-4,-5,19,6
1523208087802168,-13,0,16,8,6,2,31,26
1523208087803168,-10,17,9,1,4,0,-6,-6
1523208087803168,-30,20,7,4,-2,-2,-19,-7
1523208087824228,15,-1,-22,-9,-3,0,-6,27
1523208087824228,-5,-33,-10,-12,-12,-9,-9,-24
1523208087826233,37,38,8,9,5,0,-4,28
1523208087826233,-38,-25,-12,4,0,1,12,-44
1523208087838261,10,19,6,-2,-1,-6,-8,4
1523208087838261,-16,47,-8,-12,-4,-1,23,11
1523208087847287,-13,-38,-10,3,0,-1,-10,-3
1523208087847287,-3,-49,-3,-4,-1,0,3,11
1523208087861324,-14,-34,-12,-12,-4,-4,2,-13
1523208087861324,16,47,14,12,4,6,3,-9
1523208087863328,12,-9,-4,3,-5,0,-5,4
1523208087863328,40,51,-14,0,1,-2,29,36
1523208087884385,-38,26,10,-1,-3,-4,-12,-43
1523208087884385,-22,-61,0,-4,-1,-5,-12,-4
1523208087886391,11,-10,3,-4,1,8,-27,16
1523208087886391,8,14,12,1,0,-3,2,1
1523208087898423,20,6,-11,-3,-1,-2,2,25
1523208087898423,-1,-11,-5,1,-2,-3,-5,4
1523208087907449,-14,52,-9,3,0,-3,-9,-13
1523208087907449,2,-55,9,-7,-6,-4,-14,-15
1523208087921723,1,5,4,7,-1,0,0,-6
1523208087921723,-14,-18,-7,4,0,0,-13,-2
1523208087923488,4,-23,0,-14,-6,-3,7,-6
1523208087923488,7,37,-11,8,0,3,9,19
1523208087944545,-32,100,17,-6,-3,-4,-6,-36
1523208087944545,1,-105,10,-3,-3,-6,-31,-2
1523208087945548,-4,-5,-18,5,3,0,23,-10
1523208087945548,0,15,7,-3,0,0,23,-17
1523208087958590,20,-40,-5,7,3,6,-10,17
1523208087958590,2,39,5,0,1,0,-7,-2
1523208087966603,-3,-4,6,-2,-4,-7,-1,31
1523208087966603,-14,-41,0,-3,-3,1,-4,-42
1523208087981644,5,-6,-2,-1,-1,-3,5,4
1523208087981644,5,60,-1,-3,-4,-2,2,0
1523208087983648,0,-66,-12,-2,1,-1,-10,21
1523208087983648,2,-13,2,0,0,4,22,-13
1523208088004705,-7,8,-1,2,-1,-7,-21,5
1523208088004705,7,25,7,2,-1,-2,15,9
1523208088005707,-11,-15,1,-17,-9,-6,-19,-36
1523208088005707,0,-2,-8,-7,-4,-2,-9,27
1523208088017974,7,-31,5,9,9,10,13,-5
1523208088017974,-8,9,-17,-7,-4,2,32,-3
1523208088026765,0,17,8,3,-1,-2,-13,-6
1523208088026765,2,12,10,0,2,2,-4,27
1523208088041806,-31,-10,-3,-5,-6,-8,-15,-50
1523208088041806,-17,9,-12,-1,0,-5,-24,-10
1523208088043809,7,-65,2,1,-2,2,21,18
1523208088043809,2,36,-10,-5,-1,2,27,5
1523208088071881,28,-4,0,-5,1,5,4,36
1523208088071881,-16,-29,13,0,4,2,-22,-30
1523208088073893,-4,14,-5,-4,-8,-7,-9,-9
1523208088073893,-10,-6,15,10,7,0,10,12
1523208088086923,14,-24,3,6,-1,0,6,7
1523208088086923,8,-5,-15,-10,-6,-3,1,5
1523208088088926,-7,-14,7,8,4,5,14,5
1523208088088926,-12,19,-12,-10,-9,-12,-13,-17
1523208088101962,-25,-8,-8,-7,0,0,8,-5
1523208088101962,1,-61,-6,3,2,1,-9,5
1523208088109983,16,40,-7,6,3,2,-17,0
1523208088109983,6,1,4,1,-1,-3,4,-7
1523208088125032,-42,14,-9,-3,-3,-2,25,-21
1523208088125032,4,26,-9,-3,-6,-2,-6,3
1523208088127029,0,3,-4,-1,3,1,-15,-3
1523208088127029,-1,-18,-8,1,1,1,-19,-7
1523208088147087,15,-54,-4,3,-4,-3,-5,14
1523208088147087,10,16,0,-3,0,-2,-1,0
1523208088148085,-9,-3,6,3,-2,0,9,-12
1523208088148085,-5,68,-11,-3,-4,-5,-14,13
1523208088162122,4,-72,8,2,2,6,-7,5
1523208088162122,5,24,4,-5,-2,-2,22,-4
1523208088163125,16,39,1,8,4,1,16,6
1523208088163125,-12,-31,10,-6,-4,-1,-9,5
1523208088184180,1,22,-7,0,-1,0,-9,-7
1523208088184180,24,-34,2,-4,-2,1,-13,15
1523208088186186,-14,10,5,7,1,-5,20,29
1523208088186186,-11,-5,8,5,1,8,6,-26
1523208088207245,17,62,-5,-13,-9,-8,-10,1
1523208088207245,-10,-37,-5,-4,-1,-6,19,-5
1523208088208250,10,7,-9,-6,-4,-2,14,-9
1523208088208250,-13,-32,-5,-8,-2,0,-15,5
1523208088222397,-13,-28,-12,-4,0,-2,-11,16
1523208088222397,-2,12,-2,6,4,3,-11,0
1523208088223284,6,57,2,-8,-6,-2,7,-7
1523208088223284,-2,-39,-4,1,1,-2,5,21
1523208088244340,47,40,7,3,0,6,-1,0
1523208088244340,-56,36,9,-1,-2,-5,-3,-8
1523208088246346,-10,-36,3,-4,0,1,-8,-23
1523208088246346,-24,57,-6,-3,-3,-4,-16,5
1523208088266399,-13,-64,8,7,0,2,5,-10
1523208088266399,25,37,-3,-3,0,5,-1,12
1523208088268405,1,33,5,4,-1,-2,0,17
1523208088268405,-9,-4,5,-9,-3,-4,-16,-43
1523208088281439,13,-17,-6,-3,1,-1,16,35
1523208088281439,-19,-28,9,6,-1,0,6,2
1523208088288598,16,27,0,1,0,-2,-4,-14
1523208088288598,-20,19,-2,-3,0,-2,-4,-2
1523208088304504,4,-7,-1,8,4,1,-1,1
1523208088304504,14,-5,-19,-5,-6,-6,-20,-13
1523208088306506,3,-8,5,-5,-4,-2,4,4
1523208088306506,2,-28,-1,3,0,3,6,5
1523208088326559,-4,62,7,-1,-1,-3,38,0
1523208088326559,6,-44,-4,-3,-1,1,-3,2
1523208088328565,16,-5,-6,-4,-3,3,-6,-11
1523208088328565,2,14,-1,1,-3,-5,-11,37
1523208088349622,-29,-53,-11,-2,-2,-11,-18,-32
1523208088349622,26,43,9,3,3,3,5,18
1523208088350623,5,-64,-7,-3,1,2,13,16
1523208088350623,10,70,2,1,-1,-2,-12,-30
1523208088364751,6,21,4,0,-1,2,-1,22
1523208088364751,-23,-40,2,1,-1,-2,-14,-14
1523208088365663,-21,-14,-10,-3,-1,-4,-6,15
1523208088365663,17,-87,-14,7,4,3,5,7
1523208088386720,1,26,13,2,-1,-1,-7,-15
1523208088386720,6,59,-1,-9,-3,-1,6,15
1523208088388725,-15,-56,4,-3,-4,-1,4,-31
1523208088388725,-32,32,-2,-1,1,-2,23,17
1523208088400757,2,-33,-15,-2,-5,-2,-15,-18
1523208088400757,13,-15,-1,-8,-5,0,-5,2
1523208088407774,-2,-5,4,3,2,-1,-6,21
1523208088407774,17,11,-10,2,-2,0,1,-52
1523208088423818,3,21,-11,1,-2,-8,-3,7
1523208088423818,-24,-69,-16,-5,-1,1,13,3
1523208088425827,-12,37,1,-1,-1,-1,-4,-11
1523208088425827,9,-11,-2,-6,-2,-2,4,21
1523208088446879,42,37,3,1,2,5,5,6
1523208088446879,-50,-22,-6,2,1,-3,-5,-25
1523208088449103,-5,-1,-6,5,4,-1,24,5
1523208088449103,14,45,3,0,-1,1,-9,12
1523208088460915,-20,-46,-13,-9,-6,-3,-10,-19
1523208088460915,9,-8,12,-7,-7,-6,-10,-2
1523208088467937,6,13,-1,5,1,-1,-13,-14
1523208088467937,-8,-33,7,2,2,-2,-2,-1
1523208088485020,-11,3,1,-6,-4,1,4,-54
1523208088485020,4,32,-2,4,4,2,-26,-46
1523208088485985,-16,-31,-6,-5,-4,-3,3,8
1523208088485985,31,48,-6,-2,-2,-1,2,-1
1523208088507042,-5,8,14,3,-3,-3,5,23
1523208088507042,1,-26,2,5,0,-2,1,6
1523208088508042,-9,26,1,-4,-1,-3,-34,-22
1523208088508042,9,-37,-5,0,1,2,18,0
1523208088521077,27,11,0,1,1,3,7,10
1523208088521077,8,31,-2,4,1,1,16,14
1523208088528096,0,-25,5,-7,-3,-1,2,3
1523208088528096,-11,38,-15,9,1,1,-10,-1
1523208088544140,-13,-51,9,-8,-5,-9,-4,3
1523208088544140,6,-43,-4,2,1,-2,-9,-14
1523208088546144,6,10,-12,-1,-1,1,18,6
1523208088546144,15,-33,9,2,-1,0,12,10
1523208088574221,6,50,-2,-3,0,3,5,26
1523208088574221,-31,22,-6,3,0,-2,-2,-20
1523208088576222,4,-33,5,-4,-3,-1,-6,4
1523208088576222,-14,-34,0,1,-2,1,-24,-15
1523208088580233,-10,-3,-3,6,5,5,20,5
1523208088580233,25,16,4,-9,-6,-3,13,36
1523208088589259,-11,19,1,4,3,-1,-6,-13
1523208088589259,-12,-56,6,-4,-7,-5,2,5
1523208088604297,11,-51,2,1,2,9,-16,-3
1523208088604297,-28,117,-18,4,1,-10,55,-23
1523208088606303,-6,-3,4,-16,-9,-7,1,-6
1523208088606303,-7,-42,4,-2,0,5,-2,8
1523208088626356,-5,-15,-7,0,-1,-4,-8,16
1523208088626356,11,-39,9,1,3,5,-5,-2
1523208088628369,18,25,-4,3,0,0,-7,15
1523208088628369,-15,66,-1,-14,-5,-2,1,-32
1523208088649417,-3,-34,3,5,3,-1,-5,-8
1523208088649417,20,25,-1,-4,-4,0,-27,10
1523208088650420,-14,-44,-15,-6,-1,2,11,-6
1523208088650420,-2,28,5,-4,-2,-4,-7,-3
1523208088663459,1,4,2,-1,-1,-3,-13,38
1523208088663459,-15,-30,0,-8,-1,0,-2,-29
1523208088664457,-3,36,6,6,-1,-2,8,6
1523208088664457,39,-55,1,0,3,4,2,13
1523208088685515,-30,68,4,-7,-4,-4,-4,-15
1523208088685515,-14,-14,-2,1,-2,-2,-4,17
1523208088693549,-8,-76,-7,-2,1,-1,-13,-7
1523208088693549,3,16,4,-12,-4,-1,-5,-7
1523208088708574,12,-1,-13,5,3,-1,14,3
1523208088708574,36,-3,3,0,-2,3,5,-1
1523208088709577,-15,21,8,7,1,-2,-2,-13
1523208088709577,-16,27,-16,1,-3,-10,-27,-3
1523208088723614,-7,-39,-8,-7,-1,-1,5,6
1523208088723614,-3,13,11,0,-2,-3,8,-10
1523208088724619,-4,33,-4,1,1,-2,-3,-8
1523208088724619,5,-2,13,10,3,1,11,24
1523208088745675,10,10,-7,-3,0,4,-5,6
1523208088745675,8,-16,6,-10,-3,1,-6,14
1523208088746676,2,58,2,3,-1,-2,-12,2
1523208088746676,-3,-24,2,3,0,-1,8,6
1523208088768734,-32,-23,-22,-9,-6,-3,-4,-10
1523208088768734,12,-9,2,6,4,0,-2,-3
1523208088769740,0,1,3,6,5,0,19,0
1523208088769740,17,16,-4,-8,-5,-1,0,9
1523208088783776,16,30,9,0,-1,-6,-16,-7
1523208088783776,-2,17,4,-1,0,-1,27,8
1523208088784778,-7,-31,5,-8,-2,3,-3,0
1523208088784778,-19,-29,-11,4,2,2,7,-22
1523208088805847,9,2,1,4,2,3,2,-19
1523208088805847,12,14,3,-2,0,-1,-5,39
1523208088806834,3,1,-1,10,0,-2,-22,9
1523208088806834,-5,25,3,-5,-4,-2,-4,5
1523208088828893,-17,-27,-9,-8,-6,-5,23,-15
1523208088828893,8,23,-12,-2,1,0,15,32
1523208088829899,2,22,-10,-3,1,4,2,-17
1523208088829899,-19,-88,5,3,-1,-4,-2,-12
1523208088858975,17,44,-7,3,0,-5,-11,18
1523208088858975,-6,-30,4,-5,-5,-3,-17,-8
1523208088859980,3,-45,3,-2,-1,2,5,3
1523208088859980,23,68,-6,-2,2,-2,12,37
1523208088865994,-35,37,20,0,-1,-2,-13,-53
1523208088865994,-13,-114,-17,-5,-5,-1,-1,-11
1523208088866997,3,94,-19,-8,-8,-6,-12,6
1523208088866997,-22,-74,-9,-4,2,1,-27,-13
1523208088889165,30,-13,-1,3,3,2,14,23
1523208088889165,-6,16,0,-6,-3,3,0,-32
1523208088889165,15,-25,-1,-6,-3,-3,-2,26
1523208088889165,58,81,-3,0,-4,0,7,-24
1523208088903124,-50,-25,-1,1,2,-8,-21,-1
1523208088903124,12,1,5,0,-3,4,-9,31
1523208088904094,-12,-19,2,-4,-2,0,12,7
1523208088904094,51,4,7,5,4,1,15,-2
1523208088926158,-66,-29,-10,-3,-1,-1,2,-16
1523208088926158,2,22,-10,4,2,-1,9,6
1523208088927156,1,-22,3,-6,0,-2,-7,-21
1523208088927156,-37,-6,-14,-7,-8,-6,-20,1
1523208088948212,34,-23,-20,5,1,4,25,11
1523208088948212,-10,33,5,8,5,0,-9,-27
1523208088949214,-21,0,7,-6,-2,-4,32,-11
1523208088949214,-27,-26,9,-4,-1,-1,-7,-16
1523208088965256,22,28,22,13,5,1,-1,-2
1523208088965256,-3,-20,14,-9,-6,0,-15,1
1523208088966295,54,-14,-4,1,3,5,-31,-7
1523208088966295,-89,98,27,13,3,-12,14,4
1523208088986549,-2,-59,-12,-5,-5,-1,18,4
1523208088986549,20,50,9,2,2,-5,-23,17
1523208088987315,-12,-59,-14,5,-2,3,-12,-18
1523208088987315,23,-29,1,-6,-1,6,2,7
1523208089008375,5,74,12,-3,-4,-3,-24,-9
1523208089008375,-11,-29,-15,2,-1,-2,7,15
1523208089009374,1,-10,6,-15,-10,-4,1,-11
1523208089009374,10,-27,-17,5,0,-3,-3,14
1523208089023411,-2,48,0,-2,-1,0,-3,6
1523208089023411,-5,-11,2,-1,-1,-3,-22,-17
1523208089024414,1,47,-5,4,-1,-4,-23,-30
1523208089024414,-21,-66,-12,-7,-1,2,27,-14
1523208089046474,21,3,7,-2,-1,2,-6,14
1523208089046474,6,-8,-7,-1,-4,-6,-3,-12
1523208089046474,-64,-15,-13,-4,1,-2,3,22
1523208089046474,8,1,3,1,-1,0,-18,0
1523208089068766,16,-13,-12,-7,-3,-2,12,-8
1523208089068766,-14,39,2,2,3,2,12,3
1523208089069532,7,-58,8,-5,-3,1,10,-2
1523208089069532,11,64,1,-9,-7,-2,4,12
1523208089083571,-5,-27,-1,3,0,-1,-11,1
1523208089083571,5,-26,16,2,2,4,-4,-29
1523208089084573,17,63,-4,1,1,-3,12,35
1523208089084573,-18,-36,-17,-5,-1,-1,-10,-14
1523208089105629,5,-3,11,-7,-4,3,-22,-15
1523208089105629,12,-11,-9,3,0,-1,12,18
1523208089106631,32,-46,2,-1,-1,-5,-8,-4
1523208089106631,-54,17,14,6,4,-2,-3,-6
1523208089128691,-5,15,4,-5,-5,-1,7,9
1523208089128691,8,-54,-16,2,2,5,-34,8
1523208089129695,19,65,16,1,0,-2,11,9
1523208089129695,-8,-24,3,1,2,0,66,8
1523208089143736,-6,-66,-25,-2,-2,0,-3,-8
1523208089143736,0,13,16,0,0,0,-14,-7
1523208089144735,-5,45,-5,-6,-1,4,-4,9
1523208089144735,10,-30,6,-7,-6,-2,-20,5
1523208089165789,-10,12,-12,9,-1,-8,2,-8
1523208089165789,0,3,-9,-6,-1,2,13,24
1523208089166792,-22,-32,4,1,0,-2,1,-47
1523208089166792,33,30,6,10,2,3,-3,12
1523208089189088,1,-10,-9,-6,-3,1,-11,3
1523208089189088,18,19,-14,-5,-6,-7,7,-2
1523208089189853,-23,-15,-4,-2,-2,-2,11,2
1523208089189853,8,-7,-15,1,-1,1,-11,-16
1523208089203889,10,-21,7,1,0,-2,14,21
1523208089203889,-6,32,4,3,3,0,23,-3
1523208089204892,-14,-26,-17,-5,-2,1,-4,4
1523208089204892,9,-16,-2,1,0,0,-13,-16
1523208089226951,-11,-27,-4,-3,-4,-3,1,-29
1523208089226951,-14,-37,5,-8,-7,-5,5,-23
1523208089233976,22,124,-4,2,-1,0,-1,29
1523208089233976,-36,-54,0,0,-2,-8,-31,-52
1523208089249011,24,23,6,-7,0,2,19,11
1523208089249011,-23,19,-15,0,-3,-2,2,-3
1523208089249011,6,-19,-1,8,2,-2,-8,-4
1523208089249011,20,46,-1,4,0,1,-3,13
1523208089264246,8,7,6,-3,2,-1,8,6
1523208089264246,-47,-26,-5,-6,-2,0,7,-15
1523208089264246,8,-15,3,4,-2,0,0,1
1523208089264246,21,-5,-3,4,3,3,-2,30
1523208089294168,-21,-14,-3,-10,-4,2,24,-24
1523208089294168,17,13,6,-1,-2,-4,-17,-19
1523208089295134,3,-22,-16,1,-2,-1,3,16
1523208089295134,-16,19,2,-9,-6,-5,4,-8
1523208089308171,-10,-12,14,1,0,-1,-20,-14
1523208089308171,-3,-36,-8,-3,-1,-2,-1,21
1523208089309172,2,-1,2,2,2,4,-1,-3
1523208089309172,19,6,-3,7,2,3,13,1
1523208089323208,-9,35,-6,3,1,0,-10,-3
1523208089323208,0,9,-6,-7,-2,-2,-16,11
1523208089324211,-1,-22,-11,7,-4,-4,18,-16
1523208089324211,-39,38,6,-9,-3,-4,-15,-15
1523208089346268,-7,2,7,-2,-1,2,1,11
1523208089346268,14,-18,5,9,1,-4,-2,10
1523208089347271,13,2,4,-11,-5,-1,-14,8
1523208089347271,4,6,-13,0,-2,1,13,-30
1523208089368562,-10,27,-1,8,3,-2,-6,-9
1523208089368562,8,14,0,-2,-2,2,-3,-8
1523208089369329,2,-5,12,-16,-6,-5,-2,11
1523208089369329,21,18,4,7,4,0,-2,48
1523208089383367,3,8,11,-2,-2,-3,-19,-3
1523208089383367,-4,-31,-7,11,5,2,-7,-2
1523208089384370,8,7,22,7,7,3,6,15
1523208089384370,1,23,3,-13,-6,-4,-3,11
1523208089406428,-1,32,7,2,-4,-2,-23,-3
1523208089406428,-4,-30,-16,-12,0,-2,40,-7
1523208089406428,28,0,14,2,1,-1,-2,6
1523208089406428,-10,-32,23,-4,0,4,-4,-5
1523208089428486,-2,63,-35,-9,-7,0,5,-7
1523208089428486,1,-7,9,2,-2,-3,-4,18
1523208089429494,-16,-48,-26,1,-2,-5,-8,-33
1523208089429494,24,31,5,1,1,5,11,40
1523208089443529,-10,-52,0,8,5,0,-14,-23
1523208089443529,2,42,-26,-3,-3,-7,0,2
1523208089444531,-17,-12,-11,-4,-2,3,-27,-2
1523208089444531,1,-7,-10,0,-1,-3,5,13
1523208089466587,-2,-12,3,3,0,-3,6,9
1523208089466587,1,33,-4,2,2,1,-13,-14
1523208089466587,12,-20,4,1,1,2,-19,-13
1523208089466587,-2,2,2,-9,-5,-3,16,0
1523208089488882,28,18,8,1,5,-2,7,56
1523208089488882,-40,-41,3,5,-2,0,5,-60
1523208089489649,8,55,5,4,1,-2,2,-2
1523208089489649,-9,-66,4,-2,-4,-1,-17,-11
1523208089503687,13,-3,-11,-8,-4,1,-9,12
1523208089503687,22,63,38,10,4,-5,4,18
1523208089504692,-67,-99,-2,-9,-2,1,-9,-21
1523208089504692,-12,-17,2,1,-3,-4,14,-21
1523208089525792,-12,-10,-32,5,1,0,14,-33
1523208089525792,17,10,35,-4,-4,0,-24,2
1523208089526747,16,22,-3,8,0,-4,27,5
1523208089526747,-5,-17,10,-20,-7,-1,-33,-8
1523208089548851,13,-4,11,5,2,-2,11,15
1523208089548851,-35,12,-12,0,-1,2,-13,-39
1523208089549810,12,72,0,-2,-2,0,1,-4
1523208089549810,-47,-52,-26,5,2,-4,-6,5
1523208089563888,-2,-28,11,7,-2,-2,-12,-8
1523208089563888,13,-38,-13,-17,-8,2,0,30
1523208089564870,-13,-12,-18,-2,1,-1,-3,-3
1523208089564870,21,39,-4,5,-1,-2,3,4
1523208089586142,-16,-10,16,-1,2,1,0,-15
1523208089586142,-1,-12,-12,-3,-2,-4,2,12
1523208089586907,-2,-22,-7,-2,0,-2,-8,-2
1523208089586907,18,28,-14,2,0,-2,-3,-4
1523208089608968,-3,6,-7,-3,-3,-2,-11,-2
1523208089608968,14,-2,4,4,0,-6,16,29
1523208089608968,-20,-16,5,6,0,-3,3,15
1523208089608968,3,-16,-13,2,-2,-4,-9,-40
1523208089623003,3,-3,-1,1,0,0,29,4
1523208089623003,11,12,-5,-20,-8,1,-8,13
1523208089631026,-5,9,-5,5,0,-3,13,-16
1523208089631026,18,-9,18,6,3,1,10,28
1523208089646128,-6,-4,9,-3,-3,0,-13,-24
1523208089646128,5,-9,17,12,4,1,7,-13
1523208089647070,3,58,-38,-16,-5,-1,-2,13
1523208089647070,-4,-5,-4,-4,-3,-4,-16,-21
1523208089668126,-6,-57,-10,0,-5,-7,-4,0
1523208089668126,10,33,6,1,2,5,-3,11
1523208089669126,23,7,3,2,1,4,8,-7
1523208089669126,-7,102,9,-7,-5,-5,-12,-11
1523208089692242,-1,-73,-25,-1,6,1,31,24
1523208089692242,4,15,20,3,0,5,0,7
1523208089692242,-3,-37,0,-13,-8,-5,10,-32
1523208089692242,18,-9,-8,2,-2,1,4,25
1523208089706229,25,26,6,-9,-4,-1,-14,15
1523208089706229,-55,-12,-10,-3,0,0,23,-61
1523208089707229,-18,-29,28,16,4,0,-5,-11
1523208089707229,-11,24,-15,-4,-2,-3,-1,-3
1523208089728286,-4,-30,10,-6,-2,-2,-19,-17
1523208089728286,24,0,-10,7,1,0,-4,17
1523208089729288,-12,15,-7,-11,-5,-4,2,-17
1523208089729288,6,5,5,5,1,1,23,14
1523208089743324,-20,-7,6,1,-1,-2,-12,-28
1523208089743324,2,-32,1,-4,-3,-2,-8,4
1523208089751379,-13,84,6,-4,-8,-4,-2,9
1523208089751379,-1,-102,-8,4,5,2,-13,-5
1523208089766384,10,58,-3,4,3,7,-1,40
1523208089766384,5,-36,7,-1,0,-4,21,-16
1523208089767387,26,0,-5,-2,1,-1,-8,17
1523208089767387,-64,-27,-3,-5,-5,-2,-7,-25
1523208089788681,5,0,-6,-2,-1,-2,0,12
1523208089788681,-24,11,-15,2,-1,-4,-10,-15
1523208089789449,10,5,-17,-10,-2,-1,-12,6
1523208089789449,-5,11,9,-2,2,0,-5,-6
1523208089803563,-20,12,-9,-8,-5,-7,-2,-9
1523208089803563,8,-41,8,6,1,1,2,21
1523208089811505,-12,17,8,0,4,8,8,-26
1523208089811505,21,-21,-4,4,2,0,0,22
1523208089826544,26,14,29,7,-1,-1,7,-5
1523208089826544,-4,31,-8,-22,-10,-4,-6,-20
1523208089826544,-21,-5,18,14,4,-3,9,9
1523208089826544,52,-26,-14,-8,-4,-4,3,7
1523208089848841,-58,-35,12,-5,-1,-5,-13,-41
1523208089848841,9,21,-10,3,0,-2,11,25
1523208089849605,17,0,8,7,3,4,2,12
1523208089849605,10,-23,-1,-6,0,4,-3,-2
1523208089862642,13,55,6,5,1,2,4,21
1523208089862642,-3,-50,-18,10,4,0,-10,2
1523208089871799,-4,10,2,-11,-7,-4,-22,-10
1523208089871799,-7,42,2,4,3,-1,19,10
1523208089886770,21,-52,-22,-13,-7,-3,-6,44
1523208089886770,-25,-24,-15,-12,-6,-3,-2,-35
1523208089886770,0,36,10,7,4,2,-7,-24
1523208089886770,-14,29,-5,0,-1,-1,-3,-3
1523208089908763,2,-11,-3,-1,1,-3,12,-5
1523208089908763,9,32,-1,5,0,1,-21,8
1523208089909765,2,-68,16,8,5,1,1,19
1523208089909765,6,9,-25,-8,-1,2,-16,0
1523208089922803,-64,50,-13,0,-2,1,15,-33
1523208089922803,12,-41,2,-2,4,3,-3,13
1523208089930823,0,-32,-16,4,-5,-2,-3,-20
1523208089930823,-2,58,10,11,1,-4,2,8
1523208089946097,10,-23,11,6,0,2,-12,3
1523208089946097,-5,14,-6,-1,-1,-5,-8,-8
1523208089946865,-8,-49,-3,-2,3,1,4,17
1523208089946865,-1,-12,3,-2,-3,-1,2,-49
1523208089968925,-2,39,-9,-9,-5,-5,-4,-11
1523208089968925,7,22,-1,2,-1,-1,3,11
1523208089970062,-7,-19,1,-2,-2,-7,-5,-3
1523208089970062,1,-46,11,1,-3,2,-1,5
1523208089991984,22,25,-17,-1,1,1,-2,3
1523208089991984,-1,33,1,2,-1,-4,-9,28
1523208089992987,-9,-11,-2,-11,-7,-8,4,-70
1523208089992987,-11,52,14,-5,-3,-6,-9,-6
1523208090006031,-16,-63,-2,7,3,2,-2,-19
1523208090006031,-2,-21,-4,-12,-6,3,-3,9
1523208090007026,27,-7,-5,-5,-2,3,8,43
1523208090007026,-3,34,-4,0,2,-1,-2,-18
1523208090029082,9,-13,-2,-14,-4,-3,-6,-13
1523208090029082,0,30,-13,10,2,-3,2,5
1523208090029082,1,1,-6,6,2,0,-5,7
1523208090029082,2,-28,-2,-5,-2,3,5,3
1523208090052380,0,31,13,0,-2,-2,-2,13
1523208090052380,3,-24,8,-1,-4,-5,1,6
1523208090052380,-30,-12,-5,-8,-4,1,-16,-36
1523208090052380,-3,2,-6,6,2,-4,7,15
1523208090066184,23,4,3,5,3,0,8,26
1523208090066184,-9,14,2,-17,-7,-1,2,-27
1523208090067190,3,-16,2,10,3,1,-1,16
1523208090067190,13,46,-16,-5,-2,1,-15,8
1523208090088475,-4,-39,9,4,2,1,12,-1
1523208090088475,-25,6,18,-1,-3,-8,-1,-15
1523208090089246,21,-7,7,9,1,1,16,32
1523208090089246,-2,-8,-15,-8,-1,5,-2,-26
1523208090112304,2,-30,5,2,-2,-1,-15,12
1523208090112304,30,27,-10,2,0,0,17,15
1523208090113307,-24,15,-4,-7,-5,-4,-8,4
1523208090113307,2,29,2,-4,-2,-1,8,28
1523208090126341,-25,-20,-13,-9,-3,-2,1,-64
1523208090126341,18,-55,14,7,3,-1,-2,27
1523208090127345,2,46,-5,-4,0,1,-2,-1
1523208090127345,15,-29,-8,3,2,3,10,37
1523208090148636,21,32,-12,-6,-5,-1,-14,7
1523208090148636,-14,2,6,-3,1,4,4,-2
1523208090149402,10,0,5,4,2,1,-7,1
1523208090149402,-5,-3,19,4,-6,-9,-12,-22
1523208090171699,10,-25,-4,2,3,1,-1,28
1523208090171699,-5,41,-3,7,1,-1,8,-29
1523208090172467,-6,-28,-12,-11,-6,-3,-4,4
1523208090172467,9,-46,11,4,1,-3,10,6
1523208090186738,4,88,-2,-2,-3,1,-4,1
1523208090186738,-31,48,0,13,1,-5,2,-33
1523208090186738,0,-70,1,-4,-3,1,-2,9
1523208090186738,-20,28,-7,0,2,5,26,-31
1523208090208599,-3,-38,-24,-16,-9,-3,3,5
1523208090208599,30,23,-1,6,4,3,-14,9
1523208090209565,-13,-4,2,2,1,2,-17,14
1523208090209565,-5,-52,1,-6,-3,1,21,-3
1523208090231620,39,64,14,14,4,0,-2,19
1523208090231620,-31,-66,-16,-17,-6,-2,-6,-22
1523208090232624,17,43,6,11,1,-7,0,2
1523208090232624,-8,-23,13,-25,-7,1,-23,2
1523208090246661,-7,11,-3,-9,-5,-5,-2,-15
1523208090246661,32,-30,0,1,0,-3,-4,35
1523208090247666,-14,14,9,-2,2,2,1,-25
1523208090247666,-7,11,-2,7,-1,-6,-7,15
1523208090268954,-19,-25,3,2,1,2,20,-27
1523208090268954,-34,-56,5,1,-2,0,-4,-36
1523208090269723,7,56,8,-4,-5,-6,1,8
1523208090269723,-3,-13,-8,-4,1,0,-5,-2
1523208090291781,-2,-30,4,-4,-3,-3,-12,11
1523208090291781,20,58,-16,-1,0,-3,-1,33
1523208090292783,-9,-10,-8,5,0,-3,2,-17
1523208090292783,14,10,8,3,1,4,-10,3
1523208090305823,-12,-22,-14,-7,-4,-4,6,20
1523208090305823,15,-28,-2,3,2,4,-1,17
1523208090306821,2,72,-28,0,-2,-2,2,2
1523208090306821,-11,-79,-8,-9,-4,-6,-9,14
1523208090328879,2,55,8,5,3,2,-11,-47
1523208090328879,-20,-20,2,-2,-4,-5,-12,-34
1523208090329882,5,-31,-8,-2,-2,1,17,21
1523208090329882,7,18,5,7,-1,-2,-6,3
1523208090358959,-5,17,-3,-3,0,-1,-1,7
1523208090358959,2,-14,8,4,-2,-3,11,5
1523208090359963,-7,-12,13,-8,-2,2,-3,-10
1523208090359963,17,-13,5,9,2,-3,-1,-15
1523208090365977,-32,-16,0,-11,-5,0,-6,23
1523208090365977,-30,27,-12,-7,-5,-6,-3,-55
1523208090366981,7,-57,-4,-4,0,2,19,5
1523208090366981,27,-2,5,9,0,-4,-17,19
1523208090389046,-12,29,-4,-11,-6,-5,6,-45
1523208090389046,-2,-42,-10,-6,1,4,-4,14
1523208090389046,-2,62,-8,-5,-1,-2,-8,2
1523208090389046,-19,-47,-22,4,3,4,3,-6
1523208090412101,23,15,3,7,0,-5,1,7
1523208090412101,9,54,5,-5,-1,4,-16,17
1523208090412101,-11,-70,-3,0,0,-4,24,-13
1523208090412101,21,29,-5,-3,-6,-3,5,9
1523208090426137,8,28,-11,13,4,2,-6,2
1523208090426137,-6,-4,9,2,-1,-2,-2,-5
1523208090427144,3,-51,-10,-16,-7,0,-11,17
1523208090427144,-15,51,-1,7,3,-2,7,-19
1523208090449268,5,1,15,-4,-4,-6,-20,13
1523208090449268,7,-72,-3,8,3,6,23,15
1523208090449268,-17,81,-6,2,0,-5,-11,-42
1523208090449268,-10,-16,3,-12,-6,-1,11,2
1523208090472265,2,-42,7,1,-2,0,-19,-1
1523208090472265,17,49,-7,2,3,4,0,9
1523208090472265,-18,18,32,1,-3,-3,-1,6
1523208090472265,-8,-45,-11,0,0,-1,-10,-12
1523208090486298,-4,17,22,3,5,3,12,1
1523208090486298,24,38,-5,-3,-1,1,-6,19
1523208090487301,-27,-10,0,3,-4,-5,-1,-13
1523208090487301,-34,-21,-6,-15,-6,-6,-5,-6
1523208090508357,24,-49,-3,9,6,7,-2,13
1523208090508357,-5,90,-25,-11,0,-2,6,-13
1523208090509359,11,-67,3,7,4,1,-7,16
1523208090509359,4,43,3,1,2,3,-19,-1
1523208090531418,-25,-60,24,0,-3,-2,36,-61
1523208090531418,-7,48,14,-6,-4,-6,-13,-5
1523208090532421,4,-26,-24,-7,-7,-3,-15,11
1523208090532421,16,-2,6,3,2,1,-2,-7
1523208090546692,-1,47,-2,5,3,2,-9,20
1523208090546692,-6,-63,5,6,-2,-3,14,9
1523208090547497,3,11,-4,-4,1,2,2,-8
1523208090547497,18,-19,-21,-4,-4,-3,-2,22
1523208090568515,10,68,2,-11,-5,-3,-3,-28
1523208090568515,-51,-107,-9,3,1,0,-2,0
1523208090569518,24,-11,16,4,2,2,-16,22
1523208090569518,6,72,-3,6,3,-5,19,-10
1523208090591577,8,-19,-5,-5,-4,-2,-4,18
1523208090591577,-1,9,-14,-7,-7,-6,-17,-21
1523208090592580,9,-7,2,2,3,1,10,4
1523208090592580,18,-2,5,-2,-5,-1,-6,25
1523208090605619,-33,19,-14,1,-1,0,4,-47
1523208090605619,-17,2,0,2,-2,-4,11,-1
1523208090613640,5,-44,-14,-7,-1,3,-18,11
1523208090613640,8,31,1,6,-1,-5,-10,-35
1523208090628676,-5,-54,-16,-2,-3,-4,0,32
1523208090628676,28,-18,24,8,5,7,-2,15
1523208090636741,1,123,-23,-5,-8,-8,1,-29
1523208090636741,-47,-57,2,-6,-2,0,-7,-6
1523208090651972,9,-4,-17,-5,4,-1,-8,5
1523208090651972,-17,-40,2,1,-2,-2,-5,-17
1523208090652739,10,-12,-7,6,4,2,-5,23
1523208090652739,6,4,10,5,-1,3,33,3
1523208090673796,39,3,-41,-15,-6,-2,0,44
1523208090673796,-59,-4,4,1,-2,-4,13,-54
1523208090674798,-6,1,15,2,0,-2,-7,-32
1523208090674798,-11,49,6,-4,-4,-4,-8,18
1523208090688840,-4,-8,-30,-4,-4,-1,-2,-2
1523208090688840,24,28,9,-5,-1,0,-2,14
1523208090689841,-21,-12,2,0,0,1,9,-8
1523208090689841,-18,-31,4,5,5,1,-5,-7
1523208090711898,1,16,37,15,1,-2,1,10
1523208090711898,25,-33,-53,-34,-8,1,-4,12
1523208090712901,14,58,9,4,0,-1,8,-12
1523208090712901,5,-85,-5,-1,-1,0,0,6
1523208090724933,-10,53,-10,-3,1,4,-2,10
1523208090724933,-1,-22,-8,3,-5,-7,-26,15
1523208090733957,13,-42,19,-3,1,0,20,8
1523208090733957,-1,17,-29,-13,-4,1,-1,-17
1523208090749036,-5,-32,14,11,7,0,-11,0
1523208090749036,25,13,-5,6,-1,3,11,35
1523208090749036,-16,47,-4,-9,-5,-5,-8,-6
1523208090749036,30,13,5,11,4,0,-9,5
1523208090772062,-32,-63,-2,-18,-11,-5,-8,-16
1523208090772062,14,43,11,10,5,5,22,-2
1523208090773063,5,-17,11,9,4,-1,-4,2
1523208090773063,-18,34,10,-2,1,3,-1,-20
1523208090786130,-2,-46,26,2,-3,-3,2,-15
1523208090786130,0,84,-17,3,1,-1,2,-28
1523208090794118,0,-20,26,3,-2,-4,-3,14
1523208090794118,15,30,-17,-6,2,7,18,20
1523208090808155,-7,-36,14,5,-3,-10,19,21
1523208090808155,8,-11,30,3,0,5,-8,-7
1523208090809155,-9,11,11,4,1,-3,-32,-9
1523208090809155,-9,-5,39,20,4,-3,25,7
1523208090832217,-11,-3,-67,-39,-12,-2,-11,14
1523208090832217,15,-4,35,18,-1,0,-6,7
1523208090832217,5,34,-11,-7,-2,-2,22,8
1523208090832217,-3,11,1,1,-2,-4,-21,-29
1523208090845487,-10,27,15,14,5,0,10,-24
1523208090845487,-30,-39,14,-6,-5,-7,-15,-14
1523208090854319,11,-14,-31,0,-2,4,8,8
1523208090854319,5,24,18,-7,-1,-2,0,20
1523208090869315,14,-23,-6,6,2,0,3,-5
1523208090869315,7,49,-5,-6,4,3,-7,-1
1523208090869315,17,-40,3,1,-3,-3,8,41
1523208090869315,-26,5,-7,-9,-3,-2,-8,-64
1523208090891375,11,20,56,12,-1,0,-28,28
1523208090891375,-13,-48,-36,-15,-5,-3,43,-5
1523208090892377,-3,7,-24,-10,-4,-5,0,-6
1523208090892377,4,31,-6,-15,-6,-3,-11,18
1523208090914436,-12,-42,-17,-4,0,1,-2,-19
1523208090914436,6,77,12,4,0,-5,-24,1
1523208090915438,-5,-77,10,5,1,0,5,-9
1523208090915438,15,20,-23,-9,3,8,13,-5
1523208090928474,11,-6,-6,6,2,2,-5,7
1523208090928474,-6,9,-18,-19,-7,1,13,16
1523208090929476,-23,-3,19,1,-4,-6,-3,-25
1523208090929476,32,-46,21,8,-3,-1,-27,51
1523208090951535,-30,50,-31,-2,2,1,14,-61
1523208090951535,9,-54,12,18,6,-2,-5,-21
1523208090952538,-17,47,7,-10,-10,1,-6,0
1523208090952538,-10,-97,-29,-10,-4,-3,1,14
1523208090974594,12,48,-56,-20,-4,-2,-6,-10
1523208090974594,2,14,30,10,6,4,5,16
1523208090975597,8,21,-9,2,2,-1,-2,-8
1523208090975597,12,8,7,9,0,-1,-13,-8
1523208090988637,-11,-20,22,2,1,3,17,3
1523208090988637,10,-33,0,-2,-1,-1,-2,16
1523208090989636,9,37,-35,1,0,0,0,-5
1523208090989636,-12,-9,-8,-15,-11,-3,7,9
1523208091011697,14,15,35,5,-1,-5,-6,34
1523208091011697,-44,-48,-23,-12,-7,-7,-11,-76
1523208091012699,-9,6,6,1,0,1,-3,-4
1523208091012699,-11,35,27,15,4,0,-17,-8
1523208091034755,23,3,15,2,0,3,2,13
1523208091034755,7,2,-18,-15,-7,-4,-20,21
1523208091034755,22,1,-7,-2,1,-2,15,10
1523208091034755,-26,42,0,-2,-4,-8,-32,-34
1523208091049027,-51,-33,-7,18,5,-1,4,7
1523208091049027,6,-11,11,-8,-3,3,-2,15
1523208091049794,20,6,0,4,6,4,-6,7
1523208091049794,0,5,-9,-6,-1,0,5,-8
1523208091071859,15,27,30,-3,-5,-6,-3,-5
1523208091071859,16,-33,2,10,3,2,2,23
1523208091072857,-36,17,-7,-13,-4,-3,2,-30
1523208091072857,-34,35,-19,5,3,-4,4,-51
1523208091093912,14,-44,-3,1,4,0,0,3
1523208091093912,1,18,-3,-8,-3,-2,4,4
1523208091094916,18,-55,1,4,0,0,-16,11
1523208091094916,20,34,-5,6,2,0,11,18
1523208091108952,-9,16,0,-3,-2,-1,-24,-25
1523208091108952,-26,-12,-2,-3,3,-1,32,11
1523208091108952,-50,-23,-8,-8,-4,2,3,2
1523208091108952,2,0,21,-1,-3,-5,-6,8
1523208091132015,2,22,12,6,-2,-1,-3,-11
1523208091132015,10,-15,5,4,-1,-1,-12,2
1523208091133016,18,-5,-23,1,-1,1,4,14
1523208091133016,-31,-39,-1,-6,-2,-4,1,-40
1523208091154320,11,59,3,7,2,0,1,21
1523208091154320,-12,-43,-43,-9,-7,-2,-2,-25
1523208091155076,-17,-14,10,-7,-3,-9,-11,-56
1523208091155076,33,3,21,14,3,0,-7,36
1523208091169242,12,0,-2,-4,-1,6,25,28
1523208091169242,-17,57,36,-12,-5,-3,-8,-30
1523208091169242,26,-6,-2,1,1,-5,-4,33
1523208091169242,-7,-27,-5,6,3,3,-22,3
1523208091192176,24,13,21,5,1,-1,2,0
1523208091192176,-56,-49,-11,-1,-5,-3,26,5
1523208091192176,-17,82,-11,-8,-4,2,6,14
1523208091192176,-12,-97,-21,-8,-4,-7,-8,-37
1523208091214231,17,-24,14,2,1,2,-5,32
1523208091214231,36,92,-8,10,6,1,0,10
1523208091215235,-19,-60,6,-2,-4,-4,-7,3
1523208091215235,13,0,-6,-3,-3,2,21,39
1523208091228271,-16,-3,-14,-10,-4,-6,-3,-54
1523208091228271,-8,-31,8,2,3,-3,-16,7
1523208091229272,9,-11,15,0,0,-3,0,-9
1523208091229272,6,7,-28,-6,-1,0,13,24
1523208091252417,0,-32,-1,1,0,1,3,-4
1523208091252417,-4,11,23,1,-1,0,-12,-3
1523208091252417,2,10,-47,-12,-1,-5,-8,-3
1523208091252417,-13,-40,0,-1,-3,2,1,0
1523208091274392,6,-35,-2,2,0,1,17,13
1523208091274392,57,-2,2,-8,-5,-2,-3,32
1523208091275395,-82,53,0,-6,-4,-4,-28,-50
1523208091275395,20,-58,-6,-1,-3,-5,9,40
1523208091288439,-13,-30,-24,-2,3,1,9,-12
1523208091288439,30,2,15,9,3,-1,3,29
1523208091289433,79,16,-40,-2,-1,7,15,11
1523208091289433,-60,34,-1,-5,-4,-3,-5,11
1523208091311490,-22,-22,3,0,-2,0,-5,-1
1523208091311490,5,19,-16,13,4,0,-4,-15
1523208091312495,9,0,11,-2,-2,2,2,17
1523208091312495,-10,-7,14,6,-1,-4,1,-31
1523208091334552,7,-6,11,-10,-5,-2,-3,6
1523208091334552,-3,-7,-42,-11,-3,-2,-8,-12
1523208091335555,-3,30,14,12,4,0,1,-15
1523208091335555,3,-37,1,-7,0,1,-16,7
1523208091348832,-6,-8,-2,0,-2,-4,-5,-20
1523208091348832,13,24,-2,-5,-1,-2,5,56
1523208091349595,-39,39,5,7,1,-2,-7,-45
1523208091349595,-5,24,-9,0,2,-1,10,-16
1523208091371651,14,-40,-21,-7,0,-3,-22,8
1523208091371651,-2,-33,36,2,-2,2,-8,8
1523208091372655,24,-28,11,-3,0,4,18,28
1523208091372655,6,66,14,5,3,1,-1,-2
1523208091394712,-11,26,-11,0,-6,-8,-15,-16
1523208091394712,-16,-1,-8,-5,-6,-3,9,-25
1523208091394712,15,-16,45,2,1,1,-7,32
1523208091394712,21,-20,8,-5,-8,-3,-8,-47
1523208091408749,-36,7,-10,2,-2,2,14,17
1523208091408749,-4,19,21,4,-2,-5,-9,-21
1523208091409752,8,2,-31,-7,-3,-3,-11,17
1523208091409752,15,-24,-4,-5,0,3,27,35
1523208091431810,-7,4,3,3,1,1,-8,-10
1523208091431810,-7,-11,-15,2,3,-1,-12,-11
1523208091432815,-13,-7,-6,6,-2,-3,-4,-11
1523208091432815,-2,48,6,-3,-2,1,6,5
1523208091454071,-11,-36,-4,1,1,2,3,-9
1523208091454071,44,3,-21,-6,0,2,5,10
1523208091454872,-58,-40,6,0,-3,-3,-10,-45
1523208091454872,27,8,-22,-1,1,2,3,-13
1523208091469147,3,22,34,10,-2,-1,-11,7
1523208091469147,-8,-6,-17,-10,-9,-2,12,3
1523208091470023,24,-42,-24,-1,2,4,21,5
1523208091470023,-7,43,32,8,-1,-1,-4,8
1523208091491971,-12,-38,-60,-19,-2,-5,-2,-17
1523208091491971,15,18,25,15,6,4,-8,35
1523208091492977,3,-46,9,-12,-5,-10,-22,1
1523208091492977,-1,7,30,4,0,-2,13,18
1523208091514029,23,32,19,24,5,1,10,8
1523208091514029,-16,-10,-79,-65,-15,-6,-27,-15
1523208091515032,24,33,20,18,0,3,18,8
1523208091515032,-2,-51,-16,-4,1,-3,-11,-15
1523208091528067,-29,25,16,3,0,-4,-8,-8
1523208091528067,-12,-14,-13,6,3,0,9,-16
1523208091537092,21,10,19,6,3,7,-9,18
1523208091537092,2,-4,-28,-16,-10,-8,21,-6
1523208091552365,13,-12,12,8,0,2,0,19
1523208091552365,-31,30,6,4,5,6,7,-27
1523208091553133,10,-41,-5,-6,-3,-7,2,12
1523208091553133,-8,8,-7,13,6,4,-7,4
1523208091574187,26,27,-3,-11,-3,1,1,20
1523208091574187,-65,27,24,-6,-9,-9,-5,-28
1523208091576194,2,-17,8,15,6,2,-7,-30
1523208091576194,-1,-10,15,-4,-3,-3,-7,-4
1523208091588228,-3,9,-78,-26,-1,-1,19,5
1523208091588228,31,16,22,9,0,2,-14,3
1523208091597250,-42,-19,17,12,1,0,10,2
1523208091597250,-24,0,-36,-14,1,1,0,-28
1523208091611323,28,5,30,0,-4,-1,-8,33
1523208091611323,-4,-13,-1,11,1,2,-16,-16
1523208091613294,-9,-1,1,-12,-5,-8,3,-3
1523208091613294,8,-46,-2,-5,-1,6,-5,4
1523208091635410,-25,47,-2,-5,-5,-8,0,-21
1523208091635410,16,-19,34,1,0,-4,-9,2
1523208091636354,14,30,-8,-20,-9,-5,-13,14
1523208091636354,-17,-13,12,1,-2,-1,18,-8
1523208091648563,7,-64,-19,-4,0,0,-4,7
1523208091648563,16,66,22,15,2,-2,3,13
1523208091657411,-7,-23,-7,-18,-4,0,1,-43
1523208091657411,-36,0,9,5,-1,-4,-8,20
1523208091671471,-4,21,6,6,-1,4,-24,-13
1523208091671471,10,5,17,5,5,-1,17,3
1523208091673452,-9,13,-44,-29,-7,4,-1,26
1523208091673452,20,35,-7,4,0,-2,-7,-6
1523208091694510,-6,-38,56,8,-2,1,0,-2
1523208091694510,-9,-12,-42,-6,-5,0,-1,-5
1523208091696512,10,52,-2,14,0,-2,12,2
1523208091696512,-20,-14,9,-8,0,0,-10,-24
1523208091707542,-11,-42,-35,-21,-4,-6,-10,-14
1523208091707542,12,-32,-9,13,7,4,9,17
1523208091716567,12,23,-3,1,-1,0,-7,8
1523208091716567,27,46,14,14,2,2,9,18
1523208091731607,-6,6,-1,1,0,1,3,-7
1523208091731607,5,18,-19,-6,-6,-1,-2,4
1523208091733612,-20,-68,1,4,-2,-8,8,-9
1523208091733612,28,-19,5,2,-1,0,-16,11
1523208091754676,29,41,-26,3,-1,1,6,46
1523208091754676,-33,8,-17,-16,-9,-6,-1,-44
1523208091755672,-22,-36,26,12,5,1,-17,-24
1523208091755672,-13,14,-11,-9,-1,-6,-4,6
1523208091767712,16,-32,23,20,6,2,20,-1
1523208091767712,12,-50,6,-11,-7,-2,-11,15
1523208091776728,22,81,-36,4,0,1,5,-2
1523208091776728,-7,-19,4,-6,-1,-3,-3,-13
1523208091791769,-17,-2,11,3,-3,-5,-12,5
1523208091791769,14,-4,10,7,4,3,2,2
1523208091793772,-28,-18,6,0,2,1,14,-2
1523208091793772,18,26,-4,-5,-5,4,15,15
1523208091813825,4,22,-3,0,-1,-5,-25,-41
1523208091813825,-25,0,-30,1,0,-1,41,4
1523208091815831,12,-5,7,-7,-4,-3,-3,15
1523208091815831,13,-27,-8,5,3,4,-1,30
1523208091827863,-35,23,6,5,-1,-6,-8,-58
1523208091827863,0,8,27,-3,-1,-3,-16,-7
1523208091836885,21,-7,3,-6,0,2,19,8
1523208091836885,-37,-13,11,-8,-5,-2,2,0
1523208091852164,7,-29,-2,-10,-5,-7,-16,-12
1523208091852164,9,15,18,16,7,4,-8,-5
1523208091852955,10,-13,-2,5,0,0,9,14
1523208091852955,-6,38,18,-10,-4,3,-5,-3
1523208091873984,21,-26,-3,6,0,-5,1,13
1523208091873984,-26,5,58,-4,-2,0,-22,-8
1523208091875990,12,-20,-10,-6,-1,-2,8,-6
1523208091875990,-13,43,13,5,-2,-2,9,-72
1523208091897282,-1,-29,-6,-13,-6,0,-3,18
1523208091897282,-13,9,9,11,2,-5,9,-7
1523208091899083,17,7,8,3,5,3,-2,19
1523208091899083,5,-40,-30,-7,1,-1,-11,7
1523208091912086,-3,44,-2,-13,-6,1,15,9
1523208091912086,0,-44,-20,3,-2,-4,5,7
1523208091913095,-24,24,-21,-16,-6,-4,-8,0
1523208091913095,10,-12,-10,5,2,0,1,0
1523208091934147,44,0,19,1,0,4,13,15
1523208091934147,-21,-9,2,3,-3,-1,-10,5
1523208091936152,16,73,31,15,3,-1,11,8
1523208091936152,-29,-85,1,-4,-5,-6,-25,-33
1523208091957207,6,14,-20,-22,-2,-2,14,-8
1523208091957207,18,4,-66,-7,-1,-6,8,3
1523208091958209,-7,-23,31,11,0,2,-14,-10
1523208091958209,16,21,-5,19,1,-3,-16,19
1523208091972259,-28,5,20,-12,3,7,-6,-2
1523208091972259,1,-24,-56,-8,-5,-12,-20,-6
1523208091973249,2,-12,20,11,-2,0,55,33
1523208091973249,0,-22,16,9,0,1,-24,-19
1523208091994540,-3,63,-12,-2,4,1,-4,-19
1523208091994540,-4,-32,10,-12,-8,-4,-50,-9
1523208091996310,-14,-31,14,0,-3,-3,-10,0
1523208091996310,18,-9,-6,14,3,-3,24,22
1523208092016365,-62,5,30,7,5,1,6,-37
1523208092016365,33,-6,-10,-20,-3,3,8,8
1523208092018369,4,68,-35,1,-3,-4,-21,-15
1523208092018369,-21,-58,18,-16,-3,0,11,5
1523208092031406,3,-24,-2,11,-4,-6,-8,8
1523208092031406,-6,2,-8,-9,-1,-1,12,5
1523208092038423,2,-15,4,13,6,4,-12,-1
1523208092038423,32,32,-13,-24,-8,-3,1,15
1523208092054477,-10,-25,-22,0,-1,1,6,30
1523208092054477,0,10,29,2,-1,2,11,-11
1523208092055468,3,14,1,3,-1,-1,-10,0
1523208092055468,27,15,2,5,2,-3,-4,15
1523208092076523,-57,4,-24,-2,-5,-3,18,-40
1523208092076523,6,-2,4,6,1,1,8,10
1523208092078529,0,-23,-5,-16,-2,-2,-40,-22
1523208092078529,0,42,-14,-2,-6,-4,13,27
1523208092091563,16,-3,5,-5,-5,2,-8,20
1523208092091563,42,-21,-25,-9,-1,-3,9,12
1523208092098622,-49,-8,6,-3,-5,-6,-16,-28
1523208092098622,-7,9,9,3,2,1,4,1
1523208092114625,20,-19,-10,-11,-6,-6,-8,7
1523208092114625,-14,1,22,18,5,0,-2,4
1523208092115634,32,21,-7,0,-1,0,7,13
1523208092115634,-22,18,-13,-10,-3,-4,-5,-18
1523208092136839,10,-42,10,8,-2,-4,-2,13
1523208092136839,-11,-41,-33,-14,3,1,5,5
1523208092138689,17,-21,10,-4,-3,-1,1,-2
1523208092138689,-24,30,-19,8,1,-2,8,-15
1523208092151758,14,14,7,-2,-1,-2,-7,-1
1523208092151758,-2,9,-13,-4,2,0,4,4
1523208092157739,13,16,16,15,-1,-4,-9,-25
1523208092157739,16,-6,14,-14,-5,1,3,1
1523208092174784,-40,-70,-3,7,1,-6,-14,-14
1523208092174784,3,4,32,9,0,5,2,4
1523208092175788,12,33,-17,-19,-4,-2,5,39
1523208092175788,-1,-29,-8,-5,1,-1,-3,-9
1523208092197081,43,53,1,5,3,2,11,10
1523208092197081,-59,3,16,10,1,-1,2,-9
1523208092198848,-13,-43,-14,-8,1,1,3,9
1523208092198848,16,3,6,6,0,0,-3,-3
1523208092210882,14,37,-61,-19,-2,3,6,10
1523208092210882,-6,10,-16,-6,1,-4,-3,3
1523208092219904,9,-34,20,-6,-4,4,2,16
1523208092219904,-37,11,-26,-3,0,-3,-13,-21
1523208092234960,-1,-6,29,9,4,2,17,11
1523208092234960,18,28,35,8,-1,-1,1,-6
1523208092235946,-16,15,-28,-19,-6,-4,-6,1
1523208092235946,-26,19,-6,5,0,-2,-5,-55
1523208092257003,-15,-32,-34,-8,-1,1,-17,-19
1523208092257003,29,-13,24,8,-1,3,11,18
1523208092258008,9,-14,15,10,0,1,5,8
1523208092258008,8,22,-29,-2,0,-5,-12,25
1523208092271044,14,8,-7,-5,-3,1,-1,4
1523208092271044,7,-6,5,0,-4,-7,-6,-21
1523208092278058,-21,19,27,17,3,-2,-4,-23
1523208092278058,16,-9,-56,-17,-5,-3,2,11
1523208092294103,10,27,17,-3,-1,2,-11,14
1523208092294103,2,-17,1,1,1,2,-4,12
1523208092296107,-2,12,-2,10,2,-5,13,-49
1523208092296107,-2,-4,36,-2,-4,1,0,12
1523208092317162,4,-5,-1,-8,2,2,3,17
1523208092317162,-4,-13,0,8,2,3,-12,-15
1523208092318226,-44,34,-27,-11,-4,1,-7,26
1523208092318226,-48,-96,16,11,-5,-9,12,-17
1523208092331200,-17,51,11,-14,0,4,0,-12
1523208092331200,-8,-4,45,12,-2,-6,-8,-38
1523208092338226,19,-17,-50,-15,2,1,-3,3
1523208092338226,6,-31,33,5,0,2,-2,7
1523208092354275,-10,-1,21,3,-6,-4,2,-11
1523208092354275,11,27,-11,1,-1,0,7,28
1523208092356267,-18,33,16,-8,-1,2,-12,-29
1523208092356267,5,-56,-19,-11,-8,-6,11,13
1523208092376321,4,-17,0,14,1,-5,6,6
1523208092376321,2,50,-16,-8,-4,0,-8,-18
1523208092378325,16,-53,1,0,0,-1,11,20
1523208092378325,4,38,33,5,2,2,-19,18
1523208092390357,-10,11,1,0,-2,-3,-15,-13
1523208092390357,13,-17,-11,0,-3,0,43,5
1523208092399380,-1,4,28,5,-2,0,0,-2
1523208092399380,29,13,-31,-39,-9,-5,-15,8
1523208092414423,0,15,32,6,-1,-3,10,5
1523208092414423,2,-32,-56,-10,-2,0,-19,18
1523208092416426,-71,-16,12,10,5,-1,-2,-29
1523208092416426,6,29,-9,11,3,3,7,-1
1523208092436595,-4,-4,-15,-6,-3,-4,-14,3
1523208092436595,-28,-19,-21,-12,-1,1,-1,-11
1523208092438486,28,-33,-4,-3,-1,-3,-1,37
1523208092438486,0,42,7,11,6,4,-6,-11
1523208092450753,1,8,7,6,1,-2,13,-2
1523208092450753,3,28,33,3,4,1,-4,-8
1523208092459541,13,-21,-19,-8,-5,3,4,27
1523208092459541,-20,20,30,17,6,2,-7,-37
1523208092474581,43,3,26,-6,-4,-3,16,15
1523208092474581,-59,-39,5,4,-4,-7,-10,-49
1523208092475583,38,4,-28,-3,0,-3,6,36
1523208092475583,47,17,63,18,3,7,3,18
1523208092496875,-84,-25,-12,3,-4,-6,-6,11
1523208092496875,2,3,5,-7,-4,-1,0,-24
1523208092498651,-10,-3,-2,9,3,-2,-9,-20
1523208092498651,10,-15,-8,5,-2,-3,0,0
1523208092510677,18,21,-16,-11,-7,-2,-2,21
1523208092510677,4,-47,19,23,4,3,3,20
1523208092519701,15,19,-70,-36,-7,-5,-6,14
1523208092519701,-31,-7,3,-34,-6,-5,1,-49
1523208092534906,37,-1,-29,27,11,3,-2,1
1523208092534906,-56,22,18,-19,-14,-6,-9,-12
1523208092535743,23,1,1,-16,0,1,2,8
1523208092535743,-5,-9,2,17,2,-1,-1,13
1523208092556799,15,2,-46,-13,0,1,5,1
1523208092556799,16,6,-70,-32,-10,-4,-11,30
1523208092558806,-21,-9,29,14,-1,-2,-1,7
1523208092558806,3,-18,-26,-5,1,-1,-1,-14
1523208092570843,37,-17,59,8,-1,-4,-15,-5
1523208092570843,-2,-8,-77,-18,1,-1,13,67
1523208092579863,-33,-5,37,4,-4,-2,-3,-61
1523208092579863,-12,26,-15,-3,1,3,-5,-13
1523208092593934,-20,-41,-6,14,2,-2,17,-23
1523208092593934,16,-1,39,-12,-1,0,4,-5
1523208092601063,43,21,-52,-3,0,3,3,14
1523208092601063,-32,-25,-59,5,-1,-4,-6,24
1523208092616959,-19,-33,-21,-13,-6,-2,22,-23
1523208092616959,0,7,29,11,1,0,-6,-22
1523208092618201,10,-7,32,5,0,-3,-5,4
1523208092618201,5,36,-1,-5,-1,0,8,2
1523208092629996,81,16,-3,0,3,1,-38,14
1523208092629996,-37,15,17,7,-1,-3,26,-22
1523208092639018,-11,-62,29,9,-3,-2,-14,-32
1523208092639018,-18,13,-54,-18,-8,-7,0,27
1523208092654063,10,0,31,5,2,0,-14,4
1523208092654063,17,30,0,10,-1,0,-18,15
1523208092660074,0,13,32,23,12,6,54,40
1523208092660074,17,-33,-16,-28,-7,2,3,23
1523208092677120,10,29,64,14,3,4,-12,-20
1523208092677120,-53,2,-95,-13,1,-1,-1,-10
1523208092678122,-6,-13,18,3,2,-1,-17,-7
1523208092678122,-9,5,44,2,-7,-6,3,37
1523208092690153,-34,-35,-63,-8,6,7,8,2
1523208092690153,53,5,108,5,-4,-4,-12,-19
1523208092699290,3,56,19,-4,-3,-4,-7,-23
1523208092699290,-7,-54,-38,-6,-5,-3,2,-8
1523208092713218,-14,13,16,9,-4,-7,-9,-27
1523208092713218,14,-10,-19,-12,-4,-1,4,10
1523208092720236,1,54,-48,-1,-3,-3,-7,7
1523208092720236,-11,-44,41,19,6,2,-1,-29
1523208092736345,34,5,-19,-25,-12,-3,14,19
1523208092736345,-23,-20,-42,-29,-3,-5,-7,5
1523208092743336,2,3,10,6,-3,0,2,-12
1523208092743336,34,20,2,19,6,0,-18,2
1523208092750551,-23,-19,13,6,3,-1,14,-26
1523208092750551,-20,-14,15,2,-2,1,5,27
1523208092759339,24,19,22,3,-2,-3,-14,-20
1523208092759339,10,-11,-61,-32,-6,4,6,-9
1523208092773374,-54,-8,-2,7,6,4,-15,0
1523208092773374,34,30,25,24,5,-1,27,34
1523208092780394,-19,-27,51,-15,-7,-4,-7,-6
1523208092780394,4,-12,14,7,2,-2,-6,0
1523208092797441,15,22,51,-1,-6,-5,-2,-3
1523208092797441,-50,23,-73,-19,-6,0,-13,-17
1523208092798440,-59,-56,-22,3,2,-3,-6,-6
1523208092798440,23,1,13,10,-2,-5,3,-7
1523208092819613,-12,24,10,-9,0,3,4,20
1523208092819613,44,29,45,56,13,3,-4,-11
1523208092820507,16,-7,-28,-60,-17,-3,2,3
1523208092820507,-71,-4,56,24,8,1,-4,-6
1523208092834775,8,15,-19,0,3,2,3,-12
1523208092834775,38,-12,87,-3,-3,-5,-12,-18
1523208092835738,65,-38,-87,8,1,0,0,40
1523208092835738,-1,56,18,-4,-3,-3,-7,1
1523208092856596,-21,-38,-14,7,-2,-15,5,-42
1523208092856596,6,-53,22,-14,-6,-1,-2,-24
1523208092858603,15,-1,-10,11,6,5,2,15
1523208092858603,16,3,-20,-4,-1,0,3,3
1523208092879658,-8,28,27,15,2,3,-8,18
1523208092879658,-8,15,-22,5,5,3,-2,-4
1523208092880660,-14,-10,24,2,-3,-2,14,-20
1523208092880660,23,30,-2,-1,3,4,0,2
1523208092894939,-14,-13,-19,-12,-5,-1,-6,41
1523208092894939,-8,-10,-14,-6,-2,1,-8,-58
1523208092895698,-77,14,12,9,0,1,-10,-9
1523208092895698,25,43,34,19,7,-1,4,1
1523208092916755,-32,6,32,-9,-8,-4,-3,-6
1523208092916755,37,-105,-10,-19,-6,-1,-6,26
1523208092918761,3,12,-8,14,9,7,17,-12
1523208092918761,9,0,3,-4,-4,-5,-1,4
1523208092938814,0,14,-44,13,3,3,-9,-3
1523208092938814,47,46,44,16,1,-1,7,20
1523208092940819,-45,-21,-13,-11,-1,0,-16,-23
1523208092940819,9,-21,37,3,-2,-3,5,35
1523208092953865,8,-10,0,-28,-10,0,5,-54
1523208092953865,-57,34,-80,-10,-3,0,-4,18
1523208092960878,6,-5,26,6,1,-3,-6,30
1523208092960878,-23,9,-70,-13,-3,-1,0,0
1523208092976917,4,-26,9,0,1,-4,-4,7
1523208092976917,19,11,2,0,-2,0,1,-2
1523208092977920,20,2,-11,3,2,2,1,6
1523208092977920,-6,44,-32,4,1,4,-1,-19
1523208092999984,-9,-60,17,-5,1,-3,5,-18
1523208092999984,16,-14,-4,-4,-4,-2,10,35
1523208093000979,7,28,-38,-11,-8,-7,-6,-29
1523208093000979,20,-41,24,2,-1,1,-20,22
1523208093022036,32,29,-54,-18,-3,-1,28,-4
1523208093022036,-21,-13,10,-6,-3,-5,-4,10
1523208093023038,7,-23,37,5,-1,-2,-13,3
1523208093023038,1,6,-22,-5,1,-2,15,-18
1523208093037081,18,26,13,6,0,2,-11,19
1523208093037081,-13,1,-21,8,4,1,-3,-5
1523208093038079,4,4,2,-14,-9,-8,-6,1
1523208093038079,5,-18,-17,-2,-2,2,9,6
1523208093059135,-12,-14,-24,4,2,1,-6,10
1523208093059135,2,22,92,13,7,5,1,-33
1523208093061140,37,15,-36,1,2,1,-4,-4
1523208093061140,0,-46,1,-8,-6,-6,5,-27
1523208093073172,26,10,24,13,0,0,0,14
1523208093073172,-28,27,-21,-10,-4,-4,-20,-22
1523208093080190,19,6,55,4,1,1,39,20
1523208093080190,-8,12,-28,-15,2,5,13,7
1523208093097409,-23,-19,9,-4,-3,-1,-1,-2
1523208093097409,41,14,25,11,5,0,-5,3
1523208093098238,-25,18,17,7,4,11,-1,3
1523208093098238,-31,7,34,14,1,-4,-15,-43
1523208093119363,25,-12,44,-9,-3,-2,9,80
1523208093119363,-42,6,-3,-18,-8,-4,-13,-30
1523208093121310,64,-29,7,6,-1,-4,0,3
1523208093121310,-47,65,15,-8,-1,2,7,10
1523208093134333,19,-21,-20,-6,-4,0,-11,-4
1523208093134333,-20,0,0,6,-1,-1,0,-1
1523208093140351,-40,-50,9,-10,-2,-5,-8,-12
1523208093140351,39,-28,1,2,0,0,-5,12
1523208093156392,-9,84,-2,-1,-2,-1,4,-5
1523208093156392,17,17,3,-3,-5,-5,4,28
1523208093158399,-77,-78,-48,1,1,2,-2,-84
1523208093158399,-2,84,10,-3,2,0,-13,-32
1523208093179454,-5,-93,-23,-3,-1,-1,-7,-9
1523208093179454,-14,16,-9,3,1,1,9,-1
1523208093180460,53,35,70,5,-2,-1,-4,23
1523208093180460,-46,-66,-14,-10,-1,4,7,-1
1523208093193729,2,66,-9,-3,-4,1,-5,-9
1523208093193729,-3,-52,6,-5,-3,-6,-4,-15
1523208093200745,2,-26,16,8,5,0,0,14
1523208093200745,17,-26,-5,3,-2,-5,-5,5
1523208093216588,-21,-2,-41,-15,-1,-2,-2,-14
1523208093216588,9,-4,-21,-9,-2,2,3,24
1523208093218557,-18,37,-5,-4,-2,0,-6,-36
1523208093218557,-16,16,37,18,-4,-6,-3,-38
1523208093239615,-6,-11,-22,-17,-6,-2,-2,9
1523208093239615,1,0,22,11,2,-3,-4,-5
1523208093240616,2,5,-52,-11,-3,0,2,19
1523208093240616,35,9,-41,-5,0,5,1,16
1523208093253652,54,79,18,5,1,-1,-17,-8
1523208093253652,-48,-36,37,-2,-1,-8,16,-33
1523208093260672,-15,1,-74,1,-1,1,-3,21
1523208093260672,28,-59,-46,-5,1,2,2,17
1523208093276713,5,33,-29,1,2,-3,-5,1
1523208093276713,43,57,9,12,1,3,1,33
1523208093278719,-4,-42,-27,-42,-13,-10,-16,0
1523208093278719,4,-14,12,15,6,4,12,38
1523208093299773,-34,1,38,5,1,1,5,-21
1523208093299773,17,-12,-87,-3,0,0,-6,12
1523208093301781,-89,-2,55,12,2,-2,-4,-44
1523208093301781,13,29,20,-12,-10,-7,0,27
1523208093312810,22,-30,32,0,-2,-4,-4,-32
1523208093312810,5,-26,15,8,6,8,6,3
1523208093321832,17,73,-1,4,-3,2,7,-7
1523208093321832,-33,-57,-48,-16,-5,-12,-22,-38
1523208093336873,4,31,46,10,2,0,0,-8
1523208093336873,27,-43,-27,-3,0,3,1,1
1523208093338878,22,1,9,9,5,2,1,-1
1523208093338878,42,53,36,13,3,9,50,15
1523208093358932,-39,-24,-8,-8,-5,-3,-2,2
1523208093358932,8,-19,-17,3,-2,-5,-11,10
1523208093360936,14,65,10,-6,-4,-7,-15,8
1523208093360936,-16,-48,-7,-17,-4,-7,-6,-35
1523208093372967,-29,-14,-45,8,0,1,3,8
1523208093372967,-28,11,0,-4,-2,-2,-2,-25
1523208093381992,17,-15,-5,12,1,1,1,17
1523208093381992,-6,29,50,-5,-1,2,-8,-5
1523208093397267,-9,-32,14,-1,2,0,5,11
1523208093397267,-1,22,-1,-4,-1,0,-5,-5
1523208093399073,11,-12,36,1,-3,-3,6,13
1523208093399073,60,73,-22,-9,-6,-6,-9,17
1523208093419132,-18,-66,-4,9,2,-2,-2,6
1523208093419132,13,8,-15,-18,-4,1,10,6
1523208093421097,-35,4,31,5,2,2,3,-7
1523208093421097,2,15,-51,-17,-4,0,-16,-28
1523208093433164,5,-16,48,7,6,3,12,-4
1523208093433164,23,36,20,10,1,-1,2,7
1523208093442154,-2,4,-21,-10,-2,-4,-5,10
1523208093442154,-35,-85,17,13,0,-5,-4,-10
1523208093457193,3,5,-13,5,-1,-2,-2,24
1523208093457193,-26,34,-6,2,2,3,-6,0
1523208093458195,11,-56,-2,-2,-2,3,14,5
1523208093458195,36,27,57,3,-3,-4,-11,5
1523208093479251,-18,-34,-28,-8,-8,-6,-4,14
1523208093479251,25,72,62,3,3,1,9,20
1523208093481256,-20,-52,-32,1,2,-5,-23,-27
1523208093481256,-14,0,-18,6,2,0,7,6
1523208093493291,15,-22,-37,-15,-6,-1,0,3
1523208093493291,-41,-5,-12,-6,-5,-4,-5,-12
1523208093502311,-19,77,40,16,3,-3,-5,26
1523208093502311,-32,-113,6,-17,-7,-1,-3,-5
1523208093516349,18,47,-4,7,6,6,9,15
1523208093516349,-15,-76,24,4,2,-1,-3,-30
1523208093518354,52,67,5,1,-1,-3,1,10
1523208093518354,-21,-12,10,8,3,4,20,3
1523208093539411,10,11,-7,-2,-4,-1,-10,3
1523208093539411,6,-21,-24,-15,-8,-7,-8,4
1523208093540414,10,35,-8,-13,-4,0,2,-1
1523208093540414,-9,9,-12,-1,-1,-1,-7,0
1523208093553451,-23,7,15,15,8,0,-3,-88
1523208093553451,-15,-75,-10,-17,-8,-3,-3,9
1523208093561469,-1,-11,-12,2,2,1,8,-2
1523208093561469,4,86,-11,2,-2,-4,-15,14
1523208093576510,-3,-56,-21,-9,-5,2,11,0
1523208093576510,15,38,7,10,7,1,-1,-18
1523208093578515,-5,9,10,5,-3,2,4,12
1523208093578515,-26,-35,-7,-1,-2,-8,-5,1
1523208093599805,35,-6,23,0,1,1,6,5
1523208093599805,47,50,18,-12,-5,-5,-11,-10
1523208093600692,-34,-34,-16,-6,-5,-5,-2,-24
1523208093600692,24,51,1,11,2,-1,0,11
1523208093612611,-17,74,-17,-5,-1,0,-4,-17
1523208093612611,7,-68,-31,-2,-1,2,-3,12
1523208093621629,4,27,24,-2,2,1,-4,3
1523208093621629,13,-29,-24,-11,-1,4,0,-7
1523208093636672,4,7,-1,0,-3,-6,-9,3
1523208093636672,28,69,26,3,1,2,0,-6
1523208093638674,-62,-65,-6,1,1,-5,7,-28
1523208093638674,-3,61,27,5,3,2,0,25
1523208093659730,-25,-72,-35,-10,-5,-5,-9,-60
1523208093659730,-20,-39,21,5,-3,-2,0,4
1523208093660733,32,30,19,-9,3,6,5,7
1523208093660733,14,-19,-18,0,1,1,-2,9
1523208093672765,-22,19,-11,-9,-4,-1,0,32
1523208093672765,-5,-12,-14,3,-5,-6,-4,-5
1523208093687807,16,0,-51,-10,-5,-5,-1,14
1523208093687807,-14,-19,29,0,-4,-1,-1,-4
1523208093697067,22,32,-2,5,4,1,-2,16
1523208093697067,-10,-29,-27,-4,-4,-5,5,-8
1523208093698834,14,54,-3,-8,-10,-6,-4,14
1523208093698834,-26,-75,6,3,1,-3,-12,-54
1523208093718915,56,-8,28,1,-1,-1,0,15
1523208093718915,11,14,7,9,3,3,2,13
1523208093720893,-48,9,0,8,0,-3,-5,27
1523208093720893,-6,28,-55,-15,-2,-2,-16,-26
1523208093732931,2,-35,8,8,-1,-5,-2,15
1523208093732931,-8,4,26,-9,-2,1,9,-5
1523208093741950,27,-12,-54,-5,-3,2,-6,10
1523208093741950,2,-40,58,6,2,4,-8,14
1523208093756990,-18,30,18,2,1,-2,11,5
1523208093756990,-10,-35,-49,4,1,1,-2,12
1523208093757991,12,4,2,4,1,-3,-9,-16
1523208093757991,17,3,38,5,-1,5,15,35
1523208093779047,-64,40,-9,-21,-10,-7,-16,-32
1523208093779047,-19,4,-3,-2,-2,-5,-7,-35
1523208093781053,20,0,20,7,4,2,-4,-4
1523208093781053,-17,-52,-48,-4,-3,-5,-2,3
1523208093802155,31,6,-28,8,5,3,9,44
1523208093802155,2,4,16,-8,-1,-1,-4,13
1523208093803114,-24,-11,20,-6,-3,-4,4,-13
1523208093803114,42,32,12,9,8,3,3,13
1523208093817148,-24,0,-23,-2,-3,2,-6,-10
1523208093817148,-4,11,0,-5,-5,-4,11,-4
1523208093818266,5,-23,0,2,0,0,0,-11
1523208093818266,-13,17,44,6,2,1,-1,-66
1523208093839208,7,-28,-17,-7,-5,0,-23,-3
1523208093839208,44,17,18,4,4,4,20,42
1523208093841213,-38,30,28,7,4,4,5,-31
1523208093841213,-49,-19,-45,-12,-8,-8,0,18
1523208093862268,16,-8,33,13,2,-3,-9,6
1523208093862268,-6,-22,-65,-16,-6,-2,-6,-28
1523208093863271,35,24,-5,10,6,5,5,10
1523208093863271,10,6,23,-1,-2,-2,-4,22
1523208093877309,-15,55,-53,-1,0,0,7,-11
1523208093877309,-17,-53,4,7,2,1,-11,0
1523208093878310,16,-11,-23,-1,0,-2,1,-47
1523208093878310,-16,12,11,7,3,4,1,23
1523208093899602,-7,-30,10,2,-2,-6,-8,-9
1523208093899602,24,26,-16,-8,-7,-6,-4,2
1523208093901372,55,2,3,1,-1,-1,-6,30
1523208093901372,-5,24,68,-1,2,-2,7,-3
1523208093921425,5,3,19,2,2,1,2,-6
1523208093921425,-23,-22,-4,1,0,2,-12,10
1523208093923430,33,-23,-1,-10,-4,-3,4,11
1523208093923430,2,43,-18,5,2,1,4,-5
1523208093936469,4,-34,17,-8,-10,-5,3,-2
1523208093936469,2,27,-4,9,7,3,0,3
1523208093942483,-25,-43,-7,-17,-11,-8,-5,29
1523208093942483,-10,-42,-26,-1,1,2,0,-21
1523208093958524,28,28,9,0,-2,-1,1,-5
1523208093958524,-32,24,24,7,2,0,0,-28
1523208093966544,0,7,-17,-2,0,2,-3,12
1523208093966544,9,0,-28,-19,-8,-2,13,6
1523208093981585,7,-3,23,7,4,1,5,-16
1523208093981585,-59,16,-1,-2,2,-2,-9,4
1523208093983590,-5,-48,-8,5,5,6,18,-3
1523208093983590,9,-8,-2,0,-4,-4,-11,-6
1523208093996668,9,-9,-1,-11,-3,1,4,28
1523208093996668,10,-15,-2,1,-3,-2,1,15
1523208094002643,-43,-22,16,-14,-10,-3,-5,-46
1523208094002643,2,55,-1,8,1,-3,-1,-5
1523208094019689,-33,-48,-32,-20,-5,2,11,-1
1523208094019689,-10,44,19,2,-5,-10,-9,24
1523208094020698,-8,-9,33,-5,3,7,1,9
1523208094020698,11,-50,-51,-17,-7,-1,-15,0
1523208094041746,-8,54,-2,14,6,4,26,-24
1523208094041746,6,-7,12,-3,-2,-1,-3,-12
1523208094043751,7,-14,-15,-8,-6,-5,-2,-1
1523208094043751,61,58,18,6,1,-1,1,14
1523208094055789,-37,2,-23,-5,-4,-6,-12,10
1523208094055789,-2,-61,-3,5,2,6,7,-8
1523208094062801,12,0,-16,-5,-4,-9,3,46
1523208094062801,-15,59,-4,0,3,4,-4,-43
1523208094078882,-14,-114,1,-3,-6,-1,-6,-4
1523208094078882,1,16,8,2,3,3,-4,-6
1523208094080849,45,3,-4,4,-1,-6,-3,42
1523208094080849,-18,-6,27,10,2,1,1,-28
1523208094101924,14,35,-14,-5,-1,0,-7,14
1523208094101924,0,8,34,-3,-1,0,13,-39
1523208094102909,-13,11,-2,12,0,-5,-12,-17
1523208094102909,-3,-32,-23,-15,-6,-5,5,6
1523208094115948,13,55,43,6,4,0,-1,4
1523208094115948,72,-31,-26,-3,-4,-7,-3,37
1523208094122961,-50,24,56,7,-4,-3,-5,-25
1523208094122961,-16,-76,-84,-26,-5,-6,2,2
1523208094139004,-5,4,23,2,1,-4,-7,-39
1523208094139004,20,26,13,-10,-9,-4,-3,9
1523208094141010,7,58,-59,3,4,2,6,-3
1523208094141010,12,-36,17,19,6,3,0,17
1523208094162066,-15,-2,-9,-11,-1,1,-1,-24
1523208094162066,1,46,-26,4,1,0,-1,1
1523208094163069,-37,-50,1,-7,-3,-3,-5,-21
1523208094163069,0,-18,30,5,-2,-1,-1,7
1523208094176102,31,-2,-40,0,1,0,7,47
1523208094176102,-15,42,13,6,5,6,-13,-39
1523208094183356,0,-20,33,8,2,0,10,26
1523208094183356,-33,15,1,-14,-7,-5,-10,6
1523208094199398,-8,18,22,5,0,-2,0,1
1523208094199398,-10,-50,-16,-2,1,1,3,7
1523208094201171,36,28,7,2,1,3,-4,21
1523208094201171,-76,38,-14,-6,-4,-6,-9,-23
1523208094222225,1,-69,17,2,-1,0,3,-1
1523208094222225,-57,-21,-10,-5,-2,-2,-14,-32
1523208094223228,1,-53,-3,1,1,0,-1,-24
1523208094223228,39,54,25,5,-1,-1,7,14
1523208094244498,-17,49,-16,-10,-5,-2,-11,-6
1523208094244498,13,-47,-2,-1,0,-3,3,38
1523208094246288,-3,-14,-9,0,3,5,6,-5
1523208094246288,7,40,10,0,0,0,-4,0
1523208094259324,-16,-43,11,-2,-2,-4,-4,7
1523208094259324,19,36,-7,-7,-7,-7,-1,-6
1523208094261329,-12,-34,-21,-2,2,7,3,-5
1523208094261329,15,-18,9,-3,-3,-3,-2,16
1523208094282420,3,2,9,11,8,5,1,5
1523208094282420,5,-3,2,-18,-18,-12,-3,3
1523208094283386,-44,37,-7,5,6,3,-4,-4
1523208094283386,-14,-29,28,5,-2,-5,-4,26
1523208094295654,35,-16,-9,-5,0,3,11,-6
1523208094295654,7,18,7,11,3,-2,6,10
1523208094304444,-4,15,-1,-11,-6,-6,-8,-10
1523208094304444,18,-57,-9,-3,1,5,2,1
1523208094319489,-10,21,-24,1,-4,-2,-12,-2
1523208094319489,27,17,14,7,5,6,14,63
1523208094320488,34,12,-6,1,-5,-4,-9,-63
1523208094320488,-69,25,-7,8,-3,-7,-7,-9
1523208094341542,-53,-43,19,-8,-4,-3,-3,-17
1523208094341542,-21,-16,25,15,6,6,-3,-36
1523208094343548,16,49,-31,-8,0,0,4,9
1523208094343548,19,-43,-6,-2,-2,-3,-8,15
1523208094355581,20,-10,-38,2,-5,-6,-2,-1
1523208094355581,-31,22,46,-9,2,4,0,-8
1523208094364603,2,-56,8,7,1,-4,-1,10
1523208094364603,52,14,5,7,3,2,4,-12
1523208094379644,1,41,-34,-11,-2,0,1,24
1523208094379644,11,7,-6,-3,-2,4,5,-6
1523208094380645,38,9,4,-1,-2,-3,-10,-4
1523208094380645,-56,-35,8,1,-1,1,13,22
1523208094409722,16,21,20,7,2,-2,-7,-21
1523208094409722,-52,12,-26,-1,1,0,-2,14
1523208094410727,-1,-15,3,-2,-2,-2,-5,-16
1523208094410727,25,-9,-37,-6,0,4,2,7
1523208094415739,-2,-15,11,7,1,-6,-5,10
1523208094415739,28,51,-24,-14,-6,1,3,25
1523208094424765,-16,21,5,3,1,2,-2,8
1523208094424765,0,-31,10,2,-4,-6,-4,-13
1523208094438808,-12,7,-13,0,1,1,14,-1
1523208094438808,3,-85,-43,-4,-3,-6,-6,-18
1523208094440806,-2,26,19,1,-3,0,2,40
1523208094440806,31,8,-3,-3,1,3,-3,11
1523208094461907,-39,11,-6,5,2,4,-1,-9
1523208094461907,50,0,-13,5,3,2,1,6
1523208094463866,-12,-8,-4,-3,-4,-5,2,-47
1523208094463866,-15,56,-1,-6,-6,-2,0,-31
1523208094475899,-3,-87,15,-5,-7,-6,-8,-15
1523208094475899,12,14,-20,-6,0,2,2,-2
1523208094484156,-17,-20,-6,-7,-4,-5,-8,18
1523208094484156,17,43,22,11,6,4,2,-8
1523208094499961,21,19,-3,-7,-5,-1,-3,-8
1523208094499961,-12,-22,-20,6,0,-2,-11,-34
1523208094500966,4,-3,-13,-4,-4,-5,7,18
1523208094500966,1,-8,-1,-2,-3,-4,-13,18
1523208094522021,9,26,-25,2,3,0,11,-10
1523208094522021,-1,0,66,15,3,-1,-6,1
1523208094523025,-69,-36,2,-18,-8,-2,-3,-36
1523208094523025,27,27,-27,-2,1,1,2,1
1523208094535054,13,7,-11,-3,-7,-9,-9,15
1523208094535054,-20,25,22,10,7,3,-8,-9
1523208094544286,33,-13,-6,5,-5,-1,18,5
1523208094544286,-18,22,16,-18,-2,5,5,-10
1523208094559162,-4,-70,28,-7,-4,-4,-12,-12
1523208094559162,6,19,-7,1,-4,-4,5,6
1523208094561127,15,6,-31,-6,-1,-3,-9,24
1523208094561127,-63,-10,9,9,2,-1,-13,-96
1523208094582387,15,73,-41,-9,0,4,8,19
1523208094582387,-20,-58,11,3,-4,-11,-3,-34
1523208094583190,-8,27,-7,-5,1,0,-11,-9
1523208094583190,39,-7,9,4,-4,-3,-5,20
1523208094595454,-60,-10,28,1,0,3,-5,-7
1523208094595454,-19,3,-69,-17,-6,-4,-2,-11
1523208094604239,18,-27,19,6,1,-1,7,6
1523208094604239,15,7,-8,4,3,2,5,-6
1523208094619283,-4,-4,33,-1,-2,-3,-2,-18
1523208094619283,10,15,4,-1,-2,0,-6,49
1523208094621286,4,0,-16,1,-1,-2,-3,-22
1523208094621286,-54,-12,12,-2,-1,-1,-1,9
1523208094641339,-6,-23,17,0,-3,-3,3,19
1523208094641339,-31,-24,-11,-2,1,1,19,-30
1523208094643344,22,-16,81,-1,3,5,-5,11
1523208094643344,-10,-55,-61,0,-5,-5,-7,-24
1523208094664634,38,109,15,4,1,0,1,-7
1523208094664634,-9,-82,-25,-15,-8,-6,-15,1
1523208094666404,-2,30,30,10,3,5,-1,7
1523208094666404,-38,1,-10,-13,-4,-1,6,25
1523208094679440,-39,-14,12,13,5,0,-8,-29
1523208094679440,14,28,25,-4,-3,4,9,-7
1523208094680446,8,-17,-12,6,4,2,-1,-3
1523208094680446,20,10,8,1,3,1,-1,-4
1523208094701498,27,19,1,3,1,-1,-3,18
1523208094701498,10,-7,6,3,1,-1,1,27
1523208094703504,-30,15,-23,-10,-7,-5,-1,-26
1523208094703504,27,29,9,3,-1,1,5,26
1523208094724561,-45,-58,0,-10,-6,-4,-4,4
1523208094724561,19,73,-14,7,1,-3,-3,6
1523208094725562,-7,-17,-10,-1,0,4,4,13
1523208094725562,2,2,-6,-6,-4,-3,-4,-1
1523208094739599,32,-52,0,-1,1,2,5,25
1523208094739599,31,14,9,1,3,3,1,12
1523208094740602,-31,39,-8,6,2,-4,-6,-21
1523208094740602,22,-48,-7,2,-1,-2,2,2
1523208094762661,22,-5,3,1,-1,0,-1,38
1523208094762661,-13,27,-10,5,3,-2,4,-21
1523208094767674,4,31,7,0,1,5,4,7
1523208094767674,18,-28,0,-3,-1,-1,1,40
1523208094784718,42,47,21,-4,-3,0,1,4
1523208094784718,-9,4,12,9,5,3,1,-6
1523208094785722,-17,-38,-38,-4,-6,-5,-6,7
1523208094785722,51,-25,-7,-13,-1,2,4,-6
1523208094799933,9,38,7,4,1,3,-9,24
1523208094799933,-64,-6,-17,-3,-4,-3,5,-14
1523208094800762,-1,-58,-39,-7,0,-6,-1,-39
1523208094800762,21,-13,19,9,2,0,3,4
1523208094821818,14,84,-10,-6,-1,0,-2,-7
1523208094821818,4,-59,6,-2,-2,-2,-16,-16
1523208094823825,-5,-18,-15,9,3,0,1,36
1523208094823825,-47,-14,2,-13,-6,-3,-2,-28
1523208094844929,-14,13,-13,-1,3,1,-1,-32
1523208094844929,9,1,5,-8,-4,-3,-10,8
1523208094845881,11,2,14,-12,-4,-2,2,-52
1523208094845881,-16,-37,-32,2,2,-4,-2,-9
1523208094858917,44,5,42,4,-1,1,3,5
1523208094858917,-22,-11,-2,-2,0,1,4,-9
1523208094866059,54,85,-12,-3,-2,-2,-5,33
1523208094866059,-18,3,17,13,5,4,3,-36
1523208094882216,-12,-72,-19,-12,-12,-17,-15,-13
1523208094882216,15,30,3,-5,-3,1,13,6
1523208094884042,-13,-22,15,-18,-3,2,20,31
1523208094884042,-19,26,13,3,-4,-3,-6,11
1523208094904037,-18,-4,-45,-9,2,3,5,-4
1523208094904037,11,-28,23,8,1,-3,-5,20
1523208094906042,23,20,6,-7,-1,-2,-10,-18
1523208094906042,39,35,59,1,1,-1,2,7
1523208094919078,2,-61,-27,-3,-2,-2,0,5
1523208094919078,12,21,-4,-5,0,3,-4,16
1523208094925092,-8,39,50,10,4,1,1,-5
1523208094925092,-13,-63,-87,-14,-8,-7,-8,-14
1523208094942174,-6,-17,15,0,-2,0,1,-6
1523208094942174,5,49,9,-4,0,-2,-4,-4
1523208094943141,-10,-14,2,7,1,-3,3,-1
1523208094943141,-14,3,28,3,1,1,-5,-22
1523208094964435,-29,3,-10,-14,-8,-6,-1,-48
1523208094964435,-6,-10,-13,0,0,3,2,-10
1523208094966203,36,-14,-16,-3,-2,-2,-2,34
1523208094966203,3,77,-12,8,2,3,-7,18
1523208094978235,-28,-22,10,9,1,0,4,4
1523208094978235,20,-39,0,-2,-1,-3,-14,-12
1523208094985255,25,16,-29,3,1,6,-8,-4
1523208094985255,-28,3,-16,0,0,2,21,13
1523208095001295,17,29,36,0,3,1,-1,17
1523208095001295,-19,-55,-14,-3,-5,-6,-8,-20
1523208095003302,-36,2,12,5,2,0,-4,7
1523208095003302,31,6,-15,-8,-4,0,4,49
1523208095024355,4,16,-31,0,4,3,-2,0
1523208095024355,47,8,-15,-8,-5,-2,17,7
1523208095026361,-26,-31,-2,-4,-6,-4,-5,51
1523208095026361,-8,34,3,4,-1,-3,2,-7
1523208095038394,-4,14,34,-1,-2,0,1,-7
1523208095038394,-3,-51,-8,1,0,-4,-4,-6
1523208095045647,30,20,0,2,1,3,8,0
1523208095045647,8,5,35,-8,-4,-4,-7,-9
1523208095061458,-14,-75,-47,0,1,1,6,7
1523208095061458,-9,67,-26,-5,-2,4,7,27
1523208095063460,-11,-41,3,13,0,-4,-14,-68
1523208095063460,-8,4,27,-5,-4,-3,-2,-21
1523208095084514,26,13,4,5,-1,-2,-2,32
1523208095084514,85,24,-5,-1,1,0,1,2
1523208095085527,-44,-23,-19,-11,-5,-1,4,-6
1523208095085527,-27,-25,-31,0,-3,-2,-7,-8
1523208095098791,37,21,-3,3,1,-3,-18,13
1523208095098791,-9,-20,14,-5,0,5,20,-6
1523208095105572,16,37,11,-2,-4,-4,-3,4
1523208095105572,-2,-21,10,3,0,-1,0,-10
1523208095121615,-46,34,-2,-6,-3,-5,-10,-11
1523208095121615,-43,-68,-15,2,-1,-4,-10,-1
1523208095123620,-8,5,4,-4,-6,-7,-10,-53
1523208095123620,4,-5,7,-1,5,6,5,20
1523208095144913,32,0,-34,-5,-4,2,5,30
1523208095144913,7,43,47,0,-4,1,-6,-5
1523208095145678,-29,-30,-36,1,-4,-3,-6,32
1523208095145678,-26,3,-39,-9,-1,0,17,10
1523208095157711,-14,-12,20,7,4,3,0,-37
1523208095157711,-4,-5,-2,-7,-5,-3,-1,28
1523208095166734,29,25,-2,8,1,0,-1,-3
1523208095166734,-54,-10,4,5,-2,-6,-17,-15
1523208095182009,13,-29,1,2,0,0,1,11
1523208095182009,-31,-6,-7,3,3,-2,2,-13
1523208095183780,4,-4,-5,3,1,2,-6,-32
1523208095183780,32,32,21,-3,-6,-3,-10,-17
1523208095203832,-9,-27,11,3,2,1,9,-35
1523208095203832,-7,40,-4,-4,-1,-2,-11,-3
1523208095205839,49,15,21,3,6,1,8,8
1523208095205839,5,-29,-4,-3,-1,0,2,7
1523208095217877,3,9,23,5,0,1,-1,5
1523208095217877,-11,-42,-27,-3,-3,-3,-2,-3
1523208095226894,26,41,-6,-4,-1,-3,6,4
1523208095226894,7,1,15,2,2,2,-3,-19
1523208095241934,-2,-34,33,-4,-2,-3,3,-38
1523208095241934,-9,31,-6,0,-1,1,-3,-42
1523208095242937,-34,-75,31,-12,-6,-3,-3,15
1523208095242937,24,46,-15,5,4,0,-3,0
1523208095264228,13,12,-15,1,-2,2,1,49
1523208095264228,3,-10,-44,-12,-1,-2,7,-1
1523208095265999,-10,34,4,-10,-6,-2,-2,-12
1523208095265999,7,-7,7,0,-3,-4,-4,7
1523208095278030,-57,25,-1,9,5,0,1,0
1523208095278030,-5,-43,24,-12,-6,-2,-4,7
1523208095287054,-7,-8,10,1,5,1,3,-3
1523208095287054,37,50,-19,-1,-4,-8,-17,-8
1523208095302096,-12,-7,-6,-14,-5,2,22,7
1523208095302096,-4,37,14,6,0,-2,-9,-10
1523208095303098,-15,-33,-18,2,0,2,5,4
1523208095303098,10,-1,6,0,0,1,-3,14
1523208095324154,11,30,-13,-2,-4,-5,-12,-10
1523208095324154,16,-21,13,6,1,-2,-3,-6
1523208095326159,-78,-28,-18,-8,2,5,3,1
1523208095326159,28,56,3,3,2,3,10,14
1523208095338190,16,-33,-8,-4,1,2,-8,11
1523208095338190,-22,5,14,7,4,4,24,-2
1523208095347214,39,15,-3,0,-1,-2,-3,17
1523208095347214,-66,-57,76,-18,-8,-6,-2,-16
1523208095361252,7,26,0,10,2,-4,-10,16
1523208095361252,-17,21,13,1,-1,-4,-14,-57
1523208095363256,8,-8,8,-2,0,2,1,7
1523208095363256,8,-26,-30,14,7,5,16,-3
1523208095384312,15,69,14,-8,-8,-5,-5,-4
1523208095384312,-27,-63,5,-5,-2,-2,-5,15
1523208095386355,-5,-43,-22,6,1,-3,-5,-1
1523208095386355,-25,-22,-20,-4,-2,0,-6,-6
1523208095398560,-41,26,-22,2,-4,-6,-4,-9
1523208095398560,30,4,3,1,4,5,5,54
1523208095407375,-29,16,2,0,-1,-3,-10,-80
1523208095407375,18,-25,2,2,0,-4,-4,30
1523208095421410,22,52,-14,-13,-9,-3,2,-4
1523208095421410,-89,-53,34,-10,-5,-5,-9,20
1523208095423417,-3,-22,-30,2,0,-1,-1,31
1523208095423417,23,18,-11,-8,-5,-1,0,8
1523208095444707,-23,-53,8,7,6,-2,-1,-25
1523208095444707,66,59,-9,5,-1,1,-7,3
1523208095446512,-15,-11,21,-3,-4,-4,5,21
1523208095446512,-13,-59,-13,8,0,-1,12,1
1523208095457509,23,82,-5,-5,2,3,1,7
1523208095457509,-5,-43,-13,1,-1,-3,-2,-7
1523208095466531,15,-36,20,0,-2,0,-2,30
1523208095466531,11,28,-47,-6,2,1,-4,-13
1523208095480569,7,-34,-25,3,-1,0,6,9
1523208095480569,1,49,4,0,-5,-4,-4,14
1523208095496733,-5,-29,-33,-6,-4,-4,-6,-32
1523208095496733,-59,-6,40,4,1,-1,-1,2
1523208095504632,-10,10,4,4,0,-1,-2,-17
1523208095504632,6,23,-26,-5,-4,-5,-3,-9
1523208095505635,13,-17,-5,8,2,1,8,14
1523208095505635,46,65,0,-6,-3,1,0,-7
1523208095517669,-57,-100,-20,-5,-4,-1,-4,-24
1523208095517669,-5,53,8,8,3,1,2,19
1523208095526691,9,5,-54,-12,-5,-3,6,5
1523208095526691,25,7,3,-5,-2,-2,-5,45
1523208095541766,-10,-27,24,-1,-3,0,-1,-7
1523208095541766,4,38,9,3,2,0,3,6
1523208095543736,-14,-43,11,-3,-4,-2,-23,-1
1523208095543736,-2,25,-9,-7,-4,-4,3,-36
1523208095564904,34,-7,23,5,5,2,3,29
1523208095564904,70,-5,-28,-6,-1,2,-6,-10
1523208095565795,-43,41,-5,-5,-3,-4,15,-7
1523208095565795,7,10,-6,2,2,-1,-7,-11
1523208095577826,-7,-63,4,-3,-6,-4,-5,0
1523208095577826,27,24,14,1,-2,1,-2,-3
1523208095586850,10,39,10,9,4,2,4,19
1523208095586850,2,-40,16,4,5,2,-1,11
1523208095601891,-16,38,-8,-2,-4,-6,-9,-44
1523208095601891,-48,-92,-23,-2,-2,-4,7,10
1523208095602893,22,16,15,-12,-5,1,-9,44
1523208095602893,-4,-1,10,-4,-5,-8,-4,-37
1523208095623949,-36,32,-11,0,0,2,1,36
1523208095623949,-28,-5,3,5,0,-3,-9,-25
1523208095625956,-54,7,6,-12,-3,0,13,-16
1523208095625956,8,-62,-12,-5,-3,-1,-14,-11
1523208095647245,24,-22,8,1,5,1,21,-1
1523208095647245,-2,31,-14,10,3,1,0,-42
1523208095649054,26,64,5,0,0,-3,-12,-10
1523208095649054,-20,-14,-8,-5,-4,1,15,10
1523208095662052,22,-11,-20,4,3,-2,-2,-3
1523208095662052,-13,18,7,-2,-3,-1,-26,11
1523208095663203,26,27,19,6,-1,-3,-41,-14
1523208095663203,-8,-38,-5,2,2,-3,46,-6
1523208095684108,13,11,11,-5,-2,-2,-12,1
1523208095684108,6,-65,-4,-5,-4,1,9,-1
1523208095686116,22,13,10,9,4,3,2,1
1523208095686116,-17,22,-16,-1,-3,-1,-19,-24
1523208095707170,9,103,-29,-5,-1,-3,-2,34
1523208095707170,-24,-80,14,-8,-3,-3,1,8
1523208095708174,51,-23,22,7,2,3,5,7
1523208095708174,-60,76,-35,8,5,6,4,13
1523208095722209,-9,-33,-9,-12,-6,-6,3,-36
1523208095722209,14,-5,-4,-17,-6,0,0,12
1523208095723212,-2,41,12,3,-1,-4,9,5
1523208095723212,34,-29,52,9,1,1,-9,17
1523208095744504,5,56,-6,1,-2,2,-3,-17
1523208095744504,-22,-35,6,5,2,-3,0,-9
1523208095746274,-3,-28,-9,-7,-2,0,5,8
1523208095746274,16,53,16,-2,0,-1,-13,-59
1523208095766368,-3,-80,26,4,-2,0,-2,1
1523208095766368,23,103,18,9,0,-1,5,-7
1523208095768334,-75,-93,-2,-13,-7,-5,0,-5
1523208095768334,15,-18,-33,-14,-4,-2,-8,27
1523208095781368,2,-1,8,1,1,2,14,-24
1523208095781368,-33,2,-5,9,2,-1,14,15
1523208095795640,-4,54,-15,-7,-4,-2,-7,-4
1523208095795640,6,-76,-4,-10,-7,-2,-4,2
1523208095804428,-8,-20,-8,-8,0,-1,-4,4
1523208095804428,33,12,4,7,5,5,5,-8
1523208095805433,-3,24,2,3,4,7,22,56
1523208095805433,0,-1,-13,6,0,-5,-5,-13
1523208095826489,14,2,16,-11,-5,-2,-5,24
1523208095826489,1,-31,-17,3,0,-2,0,-15
1523208095828494,30,2,-17,-3,1,3,14,8
1523208095828494,5,26,7,3,1,3,3,12
1523208095841528,3,-11,5,1,-1,-3,-1,-18
1523208095841528,-2,26,0,-1,0,-3,-2,0
1523208095848586,-6,29,2,3,0,0,-3,-21
1523208095848586,-6,-75,-10,-6,-5,-4,-8,9
1523208095864824,-64,5,8,6,-1,-1,-4,-30
1523208095864824,5,13,-6,-4,-3,-3,-2,7
1523208095865592,17,-51,-3,1,0,2,-3,-19
1523208095865592,-5,26,1,6,0,0,-7,40
1523208095887649,20,-1,-15,-1,3,7,8,5
1523208095887649,2,16,1,0,-2,-9,-13,-4
1523208095892902,-9,2,-1,5,2,-1,-4,-9
1523208095892902,-9,0,-15,-2,-2,-1,-2,7
1523208095900684,17,-36,-5,-6,-1,-1,-2,16
1523208095900684,-14,44,13,0,-2,-2,4,-47
1523208095907703,8,-4,-10,-4,-6,-7,-9,-18
1523208095907703,2,8,-6,-6,-3,-1,4,6
1523208095924749,15,6,4,-6,-1,-5,-4,7
1523208095924749,-9,-23,-17,1,3,6,3,-3
1523208095925751,12,-1,1,2,2,0,-7,-3
1523208095925751,-15,17,-3,2,2,2,2,-19
1523208095947042,-14,-47,-5,-1,-1,-3,-8,3
1523208095947042,16,2,-14,-3,0,-1,-1,19
1523208095948936,-10,16,8,-6,-3,-2,0,-74
1523208095948936,-50,-10,-13,2,0,-1,-1,24
1523208095960843,9,42,0,-1,-1,0,-7,-11
1523208095960843,16,-75,1,-3,-2,-2,-7,-6
1523208095967864,-43,45,-5,3,-2,-5,10,22
1523208095967864,-31,-58,11,-2,0,3,2,-27
1523208095983905,-13,40,-27,-5,-6,-3,1,-1
1523208095983905,-17,-48,-6,-3,-2,3,2,2
1523208095985911,39,0,10,1,0,-3,-8,2
1523208095985911,27,36,-1,-5,-3,-7,-38,1
1523208096007008,-34,-22,-7,10,1,1,27,3
1523208096007008,2,12,4,-8,-3,-5,-9,4
1523208096007971,-5,-44,13,-10,-6,0,-8,9
1523208096007971,28,22,-4,2,3,1,7,-4
1523208096021007,21,15,11,8,5,2,6,13
1523208096021007,15,33,-13,-4,-1,-2,-4,-23
1523208096028059,-8,-85,-2,12,5,-1,-5,19
1523208096028059,33,85,6,-4,-5,-3,1,0
1523208096044301,-5,-32,12,-11,-6,-5,-16,-28
1523208096044301,24,-3,-3,7,2,4,15,15
1523208096046072,-8,23,4,0,1,0,0,3
1523208096046072,15,30,11,12,2,-1,4,0
1523208096067129,19,64,-3,-4,2,-1,0,6
1523208096067129,-40,-64,-11,-6,-6,-4,-8,7
1523208096068131,13,-15,6,1,-1,-1,-6,-17
1523208096068131,6,-23,-9,3,4,1,13,23
1523208096081164,10,22,13,4,0,1,-6,10
1523208096081164,2,31,-3,-1,-3,-3,-14,-6
1523208096088182,65,-7,-7,-2,-4,1,1,-7
1523208096088182,-83,-5,-1,-9,-4,-3,6,-5
1523208096104225,2,-44,10,10,1,-2,12,-17
1523208096104225,-5,23,-63,-23,-1,4,-4,2
1523208096106230,3,-18,17,-5,-4,-3,3,18
1523208096106230,24,-5,8,1,0,1,-1,2
1523208096127288,9,3,11,8,-1,-2,-10,2
1523208096127288,2,48,28,9,1,-1,6,12
1523208096128289,-21,9,-21,-11,-5,-2,4,-12
1523208096128289,3,-40,0,-10,-7,-5,-3,-28
1523208096140556,-2,30,5,-1,-1,1,-10,22
1523208096140556,-8,-7,2,3,0,-6,4,-8
1523208096149344,-15,-37,-15,-7,-1,1,1,34
1523208096149344,21,10,20,0,-3,-2,-7,-21
1523208096164620,-8,43,-13,3,1,-1,-16,-26
1523208096164620,-72,-55,-12,-5,-6,-5,8,-57
1523208096165388,-18,9,0,4,-1,-4,-6,-1
1523208096165388,22,-17,11,-1,0,0,7,9
1523208096187446,-17,-19,-20,-4,-2,-3,-18,14
1523208096187446,26,67,6,4,0,4,9,7
1523208096189569,-56,-36,-8,10,5,1,-7,-33
1523208096189569,-4,-38,-4,-15,-7,1,3,-16
1523208096200480,21,28,-14,-5,-5,-6,-13,12
1523208096200480,3,-39,13,5,1,-2,-5,3
1523208096209505,24,4,0,0,0,0,0,36
1523208096209505,25,4,-8,-5,-6,-4,-1,18
1523208096224545,-9,-31,-2,-3,-1,-2,8,5
1523208096224545,31,-6,47,6,1,3,-4,54
1523208096225547,60,65,-11,-9,0,1,8,-4
1523208096225547,-59,31,-13,2,1,-5,-8,0
1523208096246839,-4,-102,2,-12,-5,-2,1,3
1523208096246839,6,9,-6,3,1,2,7,33
1523208096248609,40,11,-5,10,3,1,-5,-10
1523208096248609,16,52,6,5,2,4,-2,-4
1523208096260642,-5,-31,-4,-16,-4,-1,12,7
1523208096260642,2,23,-4,2,-3,-3,-11,-2
1523208096275681,-21,-5,3,-3,2,4,7,-46
1523208096275681,-5,-20,-5,3,6,2,2,-9
1523208096284704,27,20,16,8,5,5,2,2
1523208096284704,-8,28,-18,-16,-7,-3,0,24
1523208096285707,32,-12,3,-6,-6,-4,-6,8
1523208096285707,-45,-26,6,4,3,-2,-7,-42
1523208096306804,44,6,14,9,2,1,3,-8
1523208096306804,0,15,11,-10,-2,2,-4,9
1523208096308770,-11,32,-12,2,-5,-7,-9,5
1523208096308770,5,-62,-21,-4,-2,1,0,19
1523208096320800,4,-16,-3,3,1,3,4,0
1523208096320800,3,30,-3,4,3,-4,-7,-25
1523208096329825,-69,-32,-10,-5,-1,-4,1,18
1523208096329825,18,35,-1,9,1,1,-4,-45
1523208096344901,-26,-8,-20,-7,-3,-3,1,-5
1523208096344901,39,-39,27,2,-1,-2,-8,-10
1523208096345867,-9,23,5,1,0,3,5,-7
1523208096345867,-10,-11,6,2,3,2,7,71
1523208096366925,45,44,-1,4,-2,-3,-2,-13
1523208096366925,-46,-36,7,-12,-3,-5,-8,-49
1523208096368928,1,11,-13,-8,-2,-1,1,-1
1523208096368928,4,-13,-2,-2,-2,-5,-4,-5
1523208096379959,-23,-33,-2,2,0,1,-4,-13
1523208096379959,12,15,3,3,-1,-3,-2,18
1523208096389217,-2,28,0,1,2,3,2,-1
1523208096389217,5,9,-11,-3,-2,0,8,3
1523208096404027,-17,-33,-3,-3,-4,-6,-3,5
1523208096404027,-2,-13,12,-1,-2,-2,2,-6
1523208096406028,-4,-15,-2,2,2,-2,-5,17
1523208096406028,39,34,11,15,3,-1,-1,3
1523208096427084,-67,19,-7,-19,-5,2,1,35
1523208096427084,-1,-32,-15,-2,-1,1,9,19
1523208096428086,-6,4,3,3,-3,-5,-8,-35
1523208096428086,-2,-42,-23,-12,-3,1,2,1
1523208096440158,40,38,8,6,1,-2,-1,-6
1523208096440158,-31,24,-10,5,3,2,-10,-18
1523208096449278,-54,-10,9,-4,-1,-2,6,-3
1523208096449278,8,-18,-13,-1,-1,-5,-2,-6
1523208096464417,5,-22,-9,-2,-2,2,-3,7
1523208096464417,8,74,-6,1,1,2,2,30
1523208096466188,38,-40,-15,-7,-5,-3,7,-18
1523208096466188,-12,-9,12,-9,-6,0,-6,-5
1523208096486246,-3,25,8,4,2,-1,3,-1
1523208096486246,14,-19,-3,3,0,-2,-3,0
1523208096488245,-48,-4,8,7,2,-1,0,1
1523208096488245,7,8,4,-4,-2,-3,-1,-10
1523208096500277,9,15,14,-1,0,-2,-1,6
1523208096500277,-7,-12,-8,-6,-6,-5,2,-12
1523208096509301,5,8,-4,-2,-1,1,-2,6
1523208096509301,-16,-64,-1,-1,2,0,0,9
1523208096524342,5,36,-11,9,4,2,0,-3
1523208096524342,4,-15,-4,5,-1,-5,-5,-12
1523208096526388,34,5,7,-3,-1,-2,4,46
1523208096526388,11,42,-4,1,-2,-1,0,-19
1523208096547424,-6,-29,11,-7,-4,-2,-3,9
1523208096547424,14,0,0,5,1,2,0,2
1523208096548405,-26,29,-4,-2,-2,-1,23,-4
1523208096548405,-14,-5,-4,-1,-3,-4,-7,4
1523208096569462,4,-6,-4,-2,-3,-1,-3,-9
1523208096569462,0,-15,1,-6,2,6,0,-24
1523208096570464,3,-22,-2,0,-3,-1,-10,-5
1523208096570464,29,46,6,3,2,-1,2,32
1523208096584506,-20,-22,5,-10,-6,-8,-6,-28
1523208096584506,-7,-25,1,-6,-5,0,5,13
1523208096585505,12,28,-11,4,6,8,-5,-9
1523208096585505,-29,-2,4,-1,-1,-5,5,1
1523208096606562,75,-27,-7,4,0,2,3,50
1523208096606562,-75,74,-3,-1,-4,-4,-11,-40
1523208096608567,-17,-69,2,-2,-1,-4,-6,-25
1523208096608567,12,2,0,3,0,2,5,2
1523208096629622,5,-3,4,-3,0,1,-3,-3
1523208096629622,8,-8,-2,-1,1,1,7,7
1523208096630665,13,39,3,-1,-3,-3,-20,5
1523208096630665,-10,-14,-3,-8,-6,-1,10,-24
1523208096644904,-16,11,-10,-4,-5,-6,-9,-32
1523208096644904,-1,-41,-2,-11,-5,0,0,7
1523208096645664,12,8,-2,-1,-1,-2,-9,5
1523208096645664,9,81,2,4,-2,-2,-7,-1
1523208096666722,-26,-49,4,-2,-1,0,2,2
1523208096666722,38,-14,-6,3,0,-2,1,14
1523208096668726,-6,-31,12,3,4,0,4,13
1523208096668726,18,-8,1,-5,-2,-1,-1,-22
1523208096689820,-56,82,-7,4,0,-1,2,-9
1523208096689820,32,-4,3,0,0,1,-3,-4
1523208096690783,4,-40,-3,6,2,3,3,10
1523208096690783,20,4,-2,-1,-1,2,-5,24
1523208096703818,-7,27,-4,7,2,2,7,-3
1523208096703818,-1,-60,-3,-16,-9,-6,-3,11
1523208096705823,-7,39,8,-1,-3,-5,-7,-21
1523208096705823,-20,-50,-12,-3,0,1,-5,6
1523208096726921,20,7,-11,2,-2,2,3,19
1523208096726921,-13,17,8,6,-1,-6,-23,-5
1523208096727882,19,-2,-7,1,0,3,26,-5
1523208096727882,-6,63,19,-8,-4,-4,-6,-13
1523208096749173,-16,-58,-12,0,1,-4,-32,5
1523208096749173,-9,-22,-1,-2,1,3,49,-18
1523208096750944,-18,-30,6,-9,-5,-7,-15,-11
1523208096750944,6,1,2,3,3,1,1,12
1523208096764228,1,4,3,7,4,2,5,-17
1523208096764228,15,11,-2,3,1,-2,-7,27
1523208096770031,11,70,10,3,1,0,11,-15
1523208096770031,-9,-18,-13,-9,-3,0,-3,14
1523208096787052,-46,-48,3,-12,-5,-12,-19,-43
1523208096787052,2,-35,-13,7,5,3,2,-5
1523208096788159,35,20,2,4,2,4,-2,46
1523208096788159,13,9,-1,2,-2,0,-6,-1
1523208096809099,17,4,8,5,1,1,4,14
1523208096809099,-3,15,3,-2,1,-1,-2,4
1523208096811104,-14,27,13,-13,-8,-4,-8,-11
1523208096811104,-25,-35,-18,1,1,0,-5,-9
1523208096823135,-13,-56,-18,-7,-7,-2,13,-10
1523208096823135,21,14,10,7,2,4,2,-1
1523208096830155,8,17,-4,0,2,4,-4,0
1523208096830155,29,-17,-8,0,2,-1,4,15
1523208096847401,-33,62,9,0,-3,-1,3,-20
1523208096847401,-4,-40,-15,2,2,2,-20,21
1523208096848201,-2,-22,-5,-4,1,-1,-6,-51
1523208096848201,8,24,11,7,7,7,2,-10
1523208096869259,18,6,0,-3,10,13,7,17
1523208096869259,-6,-11,17,-9,0,0,-11,11
1523208096871265,39,-4,-6,4,-1,0,15,-10
1523208096871265,-37,7,-5,-3,-9,-10,-9,-19
1523208096883295,8,-41,-3,-3,-9,-11,-7,15
1523208096883295,-7,54,10,7,-3,-4,10,-16
1523208096890549,11,-23,1,-6,-6,-8,-9,6
1523208096890549,-12,10,0,-3,-8,-8,-5,-5
1523208096906357,5,12,-3,-1,-1,-1,0,12
1523208096906357,32,0,-12,3,-1,-1,7,-9
1523208096908363,-62,44,-1,3,-3,-4,9,-10
1523208096908363,-9,-44,7,-8,-5,-4,-5,22
1523208096929661,3,0,-4,2,0,0,-1,-15
1523208096929661,12,9,18,-2,0,-1,1,6
1523208096931500,-21,13,-2,7,6,4,-1,13
1523208096931500,-17,-29,0,-9,-5,-2,2,-31
1523208096943694,-5,2,-7,-1,-3,-4,0,-53
1523208096943694,-18,-45,0,-6,-3,-2,-2,-12
1523208096950477,41,23,-17,1,1,-2,-1,22
1523208096950477,5,15,4,-2,-3,1,5,7
1523208096966518,24,-12,-1,1,1,-1,4,8
1523208096966518,-38,38,3,3,1,0,-3,-4
1523208096968522,-11,-51,2,-11,-7,-4,-1,4
1523208096968522,25,-17,-11,8,6,2,1,4
1523208096989631,-27,38,13,-4,-5,0,-1,-1
1523208096989631,7,4,-9,4,-3,-3,4,24
1523208096990580,3,-25,14,-3,-4,-5,-8,7
1523208096990580,-24,51,-5,6,3,6,15,-15
1523208097003614,-5,-36,15,-8,-2,-3,2,47
1523208097003614,-36,-1,-6,2,1,-3,-5,-95
1523208097010638,-8,-43,-1,-13,-6,0,-3,16
1523208097010638,24,52,-13,9,4,1,-2,12
1523208097026678,-3,-36,-9,-3,-4,-5,-13,9
1523208097026678,5,-4,7,-4,-4,-1,21,6
1523208097028683,-15,35,-17,-2,-4,-4,-14,-15
1523208097028683,-17,-86,6,-2,0,-1,-4,-14
1523208097048735,-5,59,-6,2,2,1,11,1
1523208097048735,25,-10,-17,-6,-3,-2,-2,5
1523208097050743,-17,-1,-10,-4,-2,1,-7,0
1523208097050743,15,13,2,0,0,-2,-4,51
1523208097063009,8,1,12,5,3,0,-13,-78
1523208097063009,-18,31,-17,-16,-6,-2,-5,23
1523208097071795,-25,-74,-7,-1,3,0,3,-47
1523208097071795,1,12,5,1,1,2,-5,1
1523208097086837,11,-47,-17,-7,1,7,6,18
1523208097086837,2,20,12,0,3,5,-1,-2
1523208097088841,11,60,3,1,4,5,-2,3
1523208097088841,-31,-86,1,3,3,2,-3,-11
1523208097108894,12,23,6,-9,-7,-4,-1,-5
1523208097108894,-7,-1,3,7,5,2,5,10
1523208097110900,8,-23,4,1,-2,-2,-2,16
1523208097110900,-25,20,5,8,2,-1,-2,-17
1523208097122932,9,37,0,-2,1,2,3,14
1523208097122932,35,-55,-12,-7,-2,1,-7,33
1523208097131955,-14,21,2,10,4,4,7,-31
1523208097131955,32,42,-6,-1,-1,-1,4,0
1523208097147231,-31,-27,9,-4,-2,1,1,9
1523208097147231,-3,-10,2,-1,-5,-2,-6,-18
1523208097149037,18,-23,-11,5,3,3,2,22
1523208097149037,3,49,-13,-14,-8,-5,0,-5
1523208097170064,5,2,-3,-1,-1,-2,-2,-1
1523208097170064,4,-1,16,-1,-1,-5,-14,9
1523208097171060,-6,37,11,4,0,-2,21,2
1523208097171060,20,-26,-15,-5,-5,-3,-2,-4
1523208097183093,-5,14,14,3,-2,-3,-2,5
1523208097183093,-20,37,-5,-3,-5,-5,-5,-19
1523208097192117,-17,-51,0,-2,0,-5,-14,-10
1523208097192117,-10,-32,1,-18,-6,-4,-14,-5
1523208097207156,33,-24,-11,5,2,2,27,75
1523208097207156,-56,-4,-15,-5,0,0,-2,-50
1523208097208160,3,73,8,-4,-4,-4,-5,19
1523208097208160,6,-54,2,3,0,-6,-5,-7
1523208097229216,21,20,-7,5,0,-3,-13,17
1523208097229216,-6,13,-14,-13,-8,-2,3,-16
1523208097231221,9,-35,1,1,-3,-1,-14,0
1523208097231221,-14,26,4,1,2,2,18,3
1523208097243487,5,2,-1,-12,-6,-7,-8,-23
1523208097243487,30,-3,10,-1,2,3,4,14
1523208097252275,-12,-25,-15,-5,-6,-8,-12,-59
1523208097252275,15,-2,15,6,2,2,-2,12
1523208097267319,-1,5,-4,0,-1,-1,-3,-13
1523208097267319,23,16,-6,2,-1,0,4,15
1523208097269321,-3,53,-14,-8,-1,2,4,28
1523208097269321,1,-18,1,-10,-7,-8,-9,9
1523208097289610,11,-22,-11,0,3,3,1,-22
1523208097289610,-17,3,-1,3,0,1,-4,4
1523208097291382,32,-43,-8,2,1,1,3,34
1523208097291382,-24,41,7,2,0,-2,-15,-23
1523208097302408,-1,-15,-9,1,0,3,-2,4
1523208097302408,11,15,4,-1,-7,-5,4,15
1523208097312484,-37,-19,-9,0,2,2,-1,0
1523208097312484,2,-14,2,3,0,0,-3,13
1523208097326473,-27,65,-10,0,-1,-4,-6,-59
1523208097326473,-29,-94,-5,-2,0,-2,-10,-9
1523208097328478,16,25,8,-1,-3,-6,0,-7
1523208097328478,-20,-32,5,-3,3,8,11,-33
1523208097349533,23,37,2,1,-2,-4,-16,15
1523208097349533,52,26,-8,8,0,-2,-1,1
1523208097350540,-37,14,15,-7,-6,-3,-7,-20
1523208097350540,7,-32,-7,-2,-4,-2,5,23
1523208097363594,-11,-20,6,-4,-6,-1,5,5
1523208097363594,27,15,0,4,4,2,-5,2
1523208097371592,4,36,-2,-4,-2,-2,5,11
1523208097371592,-1,-12,16,5,4,-1,-2,-3
1523208097386633,-25,-32,1,-1,1,2,-9,-2
1523208097386633,-3,-14,-2,3,3,1,17,49
1523208097388641,-18,13,-4,3,-3,-1,2,-6
1523208097388641,5,32,-11,4,5,4,3,22
1523208097408692,30,-6,-7,-10,-9,-10,-4,22
1523208097408692,-47,6,13,10,2,0,-8,-42
1523208097410697,12,-4,21,-5,-2,2,-16,3
1523208097410697,5,-6,-3,-6,-5,-5,15,-32
1523208097422730,-12,-31,-3,3,5,4,7,10
1523208097422730,9,35,-11,6,5,3,2,27
1523208097431789,-21,-10,-10,-6,-3,0,-5,-36
1523208097431789,14,-41,-13,-6,-5,-8,-20,-12
1523208097447030,-67,5,16,4,5,12,12,3
1523208097447030,31,50,-10,-3,2,2,15,4
1523208097448798,-69,-41,-1,1,1,2,-1,-6
1523208097448798,16,32,-6,-4,-6,-3,-5,74
1523208097468892,16,14,-2,8,3,-6,-5,-8
1523208097468892,-8,-30,11,2,-1,1,0,18
1523208097470857,17,-2,-29,-12,-6,3,8,4
1523208097470857,-14,0,-14,1,-1,-4,-2,-11
1523208097482892,-13,24,32,2,1,2,-2,-5
1523208097482892,0,-48,1,1,3,-1,-6,4
1523208097491914,34,-24,15,4,0,1,4,17
1523208097491914,-10,35,0,6,2,2,-3,-19
1523208097506953,36,22,-11,0,-3,-1,2,1
1523208097506953,-30,-17,-9,-9,-6,-8,-17,-31
1523208097507965,-6,12,-7,8,2,-3,8,-32
1523208097507965,23,-23,9,8,4,3,0,-14
1523208097529048,-26,-34,4,-8,-4,0,3,8
1523208097529048,-15,26,13,-8,-6,-1,0,4
1523208097531016,-2,-59,-2,4,1,-4,-19,-33
1523208097531016,2,38,11,-2,-5,-4,-2,8
1523208097551070,20,-15,8,6,4,0,0,-10
1523208097551070,9,2,-2,-3,-4,-1,0,-5
1523208097552072,20,44,1,3,2,-2,3,15
1523208097552072,-7,-29,4,-7,-3,-3,3,-11
1523208097566113,8,16,7,8,0,-5,9,4
1523208097566113,-6,-14,-13,-9,-3,1,-2,-24
1523208097567115,4,0,24,-2,-5,-6,-6,17
1523208097567115,-48,-25,-4,-3,2,3,7,-4
1523208097589170,5,-37,-22,1,0,1,-2,4
1523208097589170,-16,-2,12,0,0,1,4,-60
1523208097589170,35,26,-2,2,1,3,4,6
1523208097589170,52,45,8,-5,-6,2,-7,10
1523208097611249,-51,43,-15,4,-1,-2,6,-19
1523208097611249,-5,-57,-2,0,-5,-11,-13,17
1523208097612234,-4,-13,-35,-17,-6,-1,-3,-37
1523208097612234,6,-17,3,0,0,-6,-4,-10
1523208097626270,18,15,4,5,5,3,-3,14
1523208097626270,-1,24,3,1,-1,-2,-3,21
1523208097627272,21,16,6,7,-2,-2,6,26
1523208097627272,-29,-12,-1,-1,-2,0,-5,8
1523208097648565,0,-20,-12,-10,-7,-4,-3,-25
1523208097648565,-10,24,0,-1,-2,-3,-7,-5
1523208097649332,-5,-24,-5,-7,-1,1,-8,-25
1523208097649332,1,-15,-16,9,1,0,13,17
1523208097671390,5,26,-12,-8,-4,-1,-4,5
1523208097671390,-6,-30,8,-14,-8,-7,-4,-12
1523208097671390,0,26,24,8,6,1,3,27
1523208097671390,-3,0,2,-6,-8,-7,-8,-16
1523208097686430,20,-15,-4,3,2,3,3,2
1523208097686430,10,48,-4,-1,-4,-2,-2,24
1523208097686430,-51,-54,-6,8,2,-6,-9,-10
1523208097686430,-2,5,17,-3,3,5,7,24
1523208097708488,51,-37,-9,-13,-15,-18,-15,-19
1523208097708488,-12,23,-23,-5,1,11,12,24
1523208097709491,-8,13,2,-8,-6,-6,-6,-36
1523208097709491,-8,-34,0,-2,2,4,-3,-17
1523208097739806,3,-6,10,-1,1,2,-3,-7
1523208097739806,4,-12,-5,6,5,3,4,-3
1523208097739806,20,5,-5,1,2,4,6,24
1523208097739806,6,28,5,-4,-6,-7,-7,-7
1523208097746695,-36,45,-19,1,2,0,1,-10
1523208097746695,-12,-95,-4,-5,3,2,-2,-8
1523208097746695,40,21,6,0,6,10,2,23
1523208097746695,10,15,-1,4,8,7,1,37
1523208097768650,10,8,-19,6,3,6,5,18
1523208097768650,-13,69,6,-1,0,-2,-9,-8
1523208097769652,4,-89,-4,-12,-3,3,-3,5
1523208097769652,22,7,4,2,2,5,14,57
1523208097790707,-5,-10,16,3,4,4,-1,-5
1523208097790707,-18,39,-17,-3,-3,-4,-8,-17
1523208097791710,3,-22,-1,0,0,2,11,16
1523208097791710,-13,17,-11,-17,-6,0,-7,-19
1523208097805748,-36,-38,10,-7,-2,-2,4,1
1523208097805748,28,3,-3,4,-2,-3,0,-21
1523208097806750,-4,20,-3,13,1,-4,-3,30
1523208097806750,-18,-25,-10,-7,-3,-2,-2,-28
1523208097828807,18,32,-6,2,-1,-1,-1,-24
1523208097828807,6,-48,6,-5,-1,0,1,18
1523208097829812,-7,25,-5,1,-2,-6,-4,-6
1523208097829812,12,27,-10,3,-2,-4,-5,-14
1523208097850902,-9,-23,-1,-4,-4,-5,-12,22
1523208097850902,5,14,27,2,4,3,7,-37
1523208097851869,3,-29,10,-4,-7,-6,-4,50
1523208097851869,-13,59,19,13,1,-6,9,-49
1523208097865909,5,-44,-6,-4,0,-1,-6,27
1523208097865909,1,1,2,5,-4,-3,6,17
1523208097866911,1,57,3,-9,-4,-3,0,-3
1523208097866911,50,-62,-4,-1,0,-2,-9,-4
1523208097889005,-15,2,9,3,2,1,5,15
1523208097889005,13,74,-2,7,-1,-3,-10,6
1523208097890006,-17,-37,12,-5,3,-1,-5,-21
1523208097890006,-14,19,-2,4,-3,-4,-3,19
1523208097911269,-16,-35,5,-10,-6,-5,-1,-15
1523208097911269,4,-16,15,4,3,4,4,4
1523208097912031,-1,39,-3,8,2,4,4,-2
1523208097912031,-32,-37,-11,-14,-6,-8,-15,-13
1523208097926067,13,-4,6,5,4,4,6,0
1523208097926067,-22,18,-6,-5,-1,4,0,35
1523208097927071,-34,-67,-19,-10,-6,-9,-8,-58
1523208097927071,-4,45,6,7,0,-6,-16,-10
1523208097948360,5,-41,-7,-2,-3,2,26,-6
1523208097948360,10,5,-24,-8,-3,-8,-5,21
1523208097949131,-9,64,6,1,-1,-2,-7,9
1523208097949131,-19,-59,4,1,3,3,-1,-8
1523208097971186,16,9,-5,-9,-2,0,-3,7
1523208097971186,8,-21,1,-3,-2,3,12,-4
1523208097972226,4,30,-6,4,0,2,-7,7
1523208097972226,-5,-5,-19,-4,-5,-2,-5,2
1523208097986225,15,22,-5,4,0,-4,-3,11
1523208097986225,-37,-7,-3,-3,-5,-5,-7,-10
1523208097987232,1,3,9,6,0,0,5,-9
1523208097987232,-4,-19,3,0,-2,-2,0,10
1523208098008284,-10,45,7,1,-1,0,1,-45
1523208098008284,-12,14,5,7,-2,-7,-7,10
1523208098009287,1,-73,11,-4,-3,-2,-2,-11
1523208098009287,1,28,-15,-7,-4,-4,6,2
1523208098031582,13,-4,17,22,6,2,-7,19
1523208098031582,-6,-11,5,-1,-3,-2,2,-3
1523208098032349,4,-38,6,-8,-2,1,11,-5
1523208098032349,7,34,0,7,1,4,5,-5
1523208098046624,-12,-32,-7,-4,-4,-5,-3,20
1523208098046624,1,-23,-20,0,-1,-5,-14,-7
1523208098046624,-4,0,1,6,5,6,5,-2
1523208098046624,-11,-16,-7,3,-3,3,4,-15
1523208098068487,0,14,1,-16,-3,1,-2,13
1523208098068487,9,4,-4,5,1,-1,-4,-69
1523208098069448,11,62,-28,-9,-4,-1,-2,14
1523208098069448,28,-18,4,1,0,1,5,62
1523208098091505,-53,-39,0,9,1,-5,-11,-20
1523208098091505,16,-44,-17,-14,-2,-2,-3,-4
1523208098092510,32,54,4,6,3,1,12,22
1523208098092510,22,44,-20,2,3,5,0,-7
1523208098105579,-23,51,8,-8,-7,-5,-7,1
1523208098105579,8,-46,-5,-5,-3,-2,-4,-4
1523208098113799,7,-4,-1,-3,-2,-1,-1,8
1523208098113799,-14,-7,8,6,0,-1,-2,16
1523208098128607,0,-32,-22,-16,-8,-9,-13,-39
1523208098128607,8,22,3,10,4,3,10,14
1523208098129609,8,35,17,-3,-2,-3,-2,7
1523208098129609,-34,-50,4,-9,-3,1,-4,-13
1523208098150663,8,-6,-10,4,7,2,-2,-4
1523208098150663,7,14,-1,-1,-1,1,-1,16
1523208098151666,-20,-63,5,-2,-4,-4,-5,-17
1523208098151666,49,85,4,6,3,5,-4,-61
1523208098165705,-31,27,-14,-8,-6,-10,9,-6
1523208098165705,-4,-61,-3,-5,-2,0,-10,-4
1523208098173727,-4,5,-15,2,-5,-9,-6,5
1523208098173727,-7,8,-6,0,4,4,11,0
1523208098188804,14,-50,7,1,1,2,1,48
1523208098188804,44,29,15,0,-1,0,-1,-1
1523208098189802,-6,0,-15,-3,-6,-7,-5,7
1523208098189802,-3,14,11,0,-2,-3,-9,-2
1523208098210823,-11,-40,8,10,3,-2,-9,0
1523208098210823,6,24,-4,-17,-1,6,18,15
1523208098211825,1,3,8,-7,-8,-3,-9,-11
1523208098211825,-29,4,-13,-7,-6,-9,-7,-15
1523208098225864,24,-11,13,5,1,2,-2,-17
1523208098225864,-13,-4,11,2,-3,-2,-2,5
1523208098233892,7,12,1,-4,3,-3,-1,-20
1523208098233892,-3,-12,3,-9,-5,-3,1,21
1523208098248924,3,7,-4,-2,-1,-1,-2,7
1523208098248924,-33,11,-13,4,-3,-3,1,-67
1523208098248924,14,-17,11,5,2,4,6,6
1523208098248924,41,-22,2,-2,-2,1,-1,-3
1523208098270984,-15,89,6,-5,-3,-2,4,-10
1523208098270984,6,-32,7,5,2,-3,-16,28
1523208098271986,0,-25,-21,-1,1,6,-7,7
1523208098271986,-7,-40,-1,0,4,1,16,-17
1523208098285020,22,61,-8,-1,2,8,-8,13
1523208098285020,14,-11,6,0,-5,-5,7,-3
1523208098294044,-11,17,9,5,5,3,8,-7
1523208098294044,-38,-39,-10,-11,-6,-7,-12,-12
1523208098308081,9,-14,0,-4,-1,0,-2,19
1523208098308081,-5,22,-3,-3,1,2,5,14
1523208098309086,1,-31,8,6,3,3,2,33
1523208098309086,1,59,6,-5,0,2,15,6
1523208098331143,5,6,14,1,-5,-7,-4,-8
1523208098331143,-32,-41,3,-10,-5,-5,-6,-27
1523208098332150,23,9,1,9,5,5,4,9
1523208098332150,2,49,-18,8,4,0,-3,6
1523208098345421,-51,-53,-14,-14,-7,-3,-5,-16
1523208098345421,18,9,1,3,3,4,2,36
1523208098353201,-63,36,7,4,1,-5,-1,-31
1523208098353201,6,-41,10,-2,-5,-1,-4,44
1523208098368243,27,27,-3,10,3,0,-3,-32
1523208098368243,-25,-22,-10,-3,-1,-4,-1,3
1523208098369245,1,-30,2,-18,-9,2,1,-13
1523208098369245,7,-11,23,9,4,0,4,8
1523208098391540,5,-29,14,7,2,0,4,1
1523208098391540,21,52,-3,-6,-3,4,-3,17
1523208098392307,-24,1,-13,-8,-6,-4,-5,-6
1523208098392307,-12,-46,11,6,-2,-8,-10,-25
1523208098405341,-8,-9,-2,-5,0,1,-9,-27
1523208098405341,14,15,6,10,3,0,6,3
1523208098413596,3,45,-6,-4,-1,0,-1,8
1523208098413596,-21,-51,-8,-4,-5,-4,-12,-17
1523208098428402,11,-6,2,-2,0,2,9,10
1523208098428402,-3,-18,28,8,6,4,7,8
1523208098429403,15,71,-8,-9,-7,-6,-6,-1
1523208098429403,17,-66,-28,-16,-7,-2,-1,12
1523208098451462,-92,5,-8,2,0,-1,1,-39
1523208098451462,-2,-27,-5,4,1,-1,-5,12
1523208098451462,37,23,1,9,1,-1,6,26
1523208098451462,-16,33,-5,-7,-5,-6,-11,-32
1523208098474523,27,-42,3,-13,-6,4,10,26
1523208098474523,-37,14,-10,-1,-1,-6,-20,-46
1523208098475526,-14,-41,-13,3,2,-2,7,-4
1523208098475526,17,23,12,2,0,4,3,22
1523208098488602,23,-12,-10,-8,-5,-2,-5,11
1523208098488602,1,27,9,2,1,0,0,13
1523208098489563,15,-27,-17,-3,-2,0,-8,-25
1523208098489563,-66,-2,18,4,5,2,2,-16
1523208098511678,15,-19,-11,-1,-2,-1,-7,17
1523208098511678,23,25,-4,-3,-3,-6,4,20
1523208098511678,6,-20,12,-1,-5,-3,13,8
1523208098511678,3,-7,-19,0,0,5,2,5
1523208098534684,37,36,-6,11,4,-4,1,-2
1523208098534684,3,-33,-8,-22,-12,-5,-1,1
1523208098534684,5,20,5,10,6,5,1,25
1523208098534684,-5,-27,-5,-11,-6,-7,-7,-21
1523208098548722,25,47,2,-1,-4,-1,-1,19
1523208098548722,-27,-42,-13,4,-1,-1,-7,-32
1523208098549724,-8,-27,-4,-1,0,-4,-6,21
1523208098549724,35,41,11,-2,1,3,2,-46
1523208098570779,-8,-7,-3,1,-2,-7,1,15
1523208098570779,5,18,4,-3,1,3,8,-7
1523208098571782,-6,-7,-9,-3,-3,-2,-9,15
1523208098571782,4,19,3,6,-3,-7,0,5
1523208098593842,3,-24,16,11,5,6,0,-37
1523208098593842,6,15,-23,-12,-8,-3,-7,21
1523208098594845,46,39,-1,3,0,0,1,20
1523208098594845,-38,-62,-24,-11,-2,-3,-6,-29
1523208098616913,3,22,18,5,3,2,-2,3
1523208098616913,-7,-5,16,3,5,5,12,8
1523208098617905,27,12,8,-2,0,-1,-7,-16
1523208098617905,-23,33,11,5,2,2,-2,7
1523208098630940,27,-32,-13,-2,-1,-3,-1,4
1523208098630940,-25,34,5,-7,-3,0,3,-5
1523208098631945,-26,-53,-23,-8,-5,-4,-5,-25
1523208098631945,21,43,17,11,5,8,21,50
1523208098654002,-17,-3,6,-13,-5,-2,-5,-52
1523208098654002,14,-12,-2,1,-2,-4,-6,7
1523208098655003,-21,3,-11,-4,-2,-1,-2,-9
1523208098655003,-5,-14,-20,-4,-2,-1,-2,11
1523208098668039,2,12,-1,-1,-1,-6,0,17
1523208098668039,64,33,-2,12,6,7,4,6
1523208098669040,-48,-19,-3,-1,-1,0,-11,-70
1523208098669040,32,-16,10,-1,-5,-8,-4,-6
1523208098691334,-10,-7,-20,-6,3,6,8,38
1523208098691334,0,21,6,10,3,-3,-7,-38
1523208098692102,-27,-17,2,-2,1,2,8,14
1523208098692102,13,20,6,6,0,-2,0,14
1523208098714398,-12,26,2,-9,-8,-7,-7,1
1523208098714398,-30,-51,-17,-7,-5,-6,-3,-2
1523208098715167,26,-3,7,4,0,2,2,4
1523208098715167,-11,11,3,-11,-9,-12,-18,-38
1523208098728198,-10,70,14,15,8,9,5,-6
1523208098728198,-13,-51,-12,-2,-4,-1,-1,-12
1523208098729200,-13,-10,1,-9,-4,-5,0,7
1523208098729200,19,26,12,4,2,-3,-1,18
1523208098751259,78,2,-9,4,0,2,3,52
1523208098751259,-63,40,-6,6,7,6,5,33
1523208098752261,-3,-19,3,0,1,2,1,6
1523208098752261,-12,22,6,-10,-4,-2,-1,-14
1523208098774558,16,16,-8,-1,0,-1,0,1
1523208098774558,3,-36,1,-6,-5,-8,-6,8
1523208098775323,9,40,3,8,2,-1,4,16
1523208098775323,-10,-24,-8,5,6,10,4,16
1523208098788359,-20,-10,-2,-4,-5,-7,-10,-10
1523208098788359,12,7,6,6,1,3,5,-11
1523208098789360,-3,8,27,1,-3,-4,-4,-2
1523208098789360,11,2,-13,-1,2,5,3,0
1523208098811420,-8,18,5,1,1,-3,-11,4
1523208098811420,14,-3,10,1,2,-1,6,-15
1523208098812554,12,12,6,-2,-6,-5,-8,-8
1523208098812554,-22,-53,-13,-13,-6,-1,8,11
1523208098834480,-33,-9,-2,-1,-2,-7,-3,-34
1523208098834480,33,-11,-7,2,3,1,-7,28
1523208098835483,4,12,-4,-5,-2,-2,4,-12
1523208098835483,-3,2,3,10,3,2,0,0
1523208098848518,20,-21,10,-4,-3,-1,3,16
1523208098848518,28,49,-3,-5,-5,-7,-8,-11
1523208098849520,-47,-60,-17,1,1,0,7,-11
1523208098849520,14,20,-5,2,-4,-4,-17,22
1523208098870578,-33,-35,4,2,0,3,14,-19
1523208098870578,5,20,-6,1,-5,-5,-5,-2
1523208098871580,27,-23,-1,-8,-2,2,-5,27
1523208098871580,42,15,-7,3,3,0,6,-12
1523208098894640,-58,-46,-7,-9,-6,-5,-2,12
1523208098894640,1,29,-14,0,-1,2,-4,1
1523208098894640,-8,-38,-13,-4,-2,-4,6,5
1523208098894640,22,10,-2,-12,-8,-8,-18,9
1523208098908677,20,32,6,5,4,5,17,6
1523208098908677,-25,-44,8,-4,-5,-5,-26,-36
1523208098909682,-13,29,-38,0,-1,3,28,-17
1523208098909682,-22,-17,-2,0,0,-1,-10,18
1523208098930973,11,-26,-11,-5,-3,-4,5,-1
1523208098930973,-9,28,-1,3,2,4,0,18
1523208098931738,5,4,15,-1,-2,-2,-16,-23
1523208098931738,-1,6,-3,-4,-2,-1,6,-17
1523208098953797,-6,-8,-31,-10,-3,-6,-12,15
1523208098953797,3,-40,33,3,2,3,17,16
1523208098954800,-5,0,3,6,-1,-3,-17,-50
1523208098954800,34,35,19,7,0,0,8,14
1523208098968873,-87,-32,-7,-10,-7,-4,-12,-22
1523208098968873,-3,-27,-9,5,3,5,6,2
1523208098969847,7,-4,-2,-8,-3,-4,-5,-20
1523208098969847,-1,-16,2,1,0,0,-6,-8
1523208098990951,20,17,7,-1,-3,-4,-9,-10
1523208098990951,-13,12,-15,-4,-2,-5,2,-3
1523208098991899,-14,-16,5,-3,0,2,-2,52
1523208098991899,17,30,-15,-5,-4,-5,-4,0
1523208099014192,-40,-34,9,-5,0,1,3,-30
1523208099014192,-6,3,-10,-2,-2,-3,-14,-12
1523208099014962,34,-15,10,3,3,3,5,33
1523208099014962,-3,-13,4,-1,2,0,10,30
1523208099028997,43,68,-8,3,1,-3,-5,-26
1523208099028997,-74,12,-7,-6,-5,-5,-3,-9
1523208099028997,-14,-57,15,4,0,-2,-16,-8
1523208099028997,-5,-9,1,6,3,2,27,-5
1523208099051055,33,20,-12,3,2,0,-2,20
1523208099051055,19,-2,0,-2,1,3,12,-8
1523208099052058,6,38,-6,-4,-3,-2,-5,10
1523208099052058,-32,-11,-10,-4,-2,2,-8,-10
1523208099074118,19,14,16,9,6,3,-7,11
1523208099074118,5,-1,4,-5,-5,-6,1,-13
1523208099075121,-2,21,-1,-2,-2,1,4,9
1523208099075121,0,-33,2,0,-3,-1,-2,-10
1523208099088206,-2,19,-4,-2,0,1,-1,-19
1523208099088206,3,-41,-2,-3,-3,-4,-5,30
1523208099096410,22,31,4,7,2,3,1,0
1523208099096410,-2,1,-3,-4,-2,0,0,-4
1523208099111450,-17,-6,-14,3,-5,-9,-9,-9
1523208099111450,10,-12,12,-7,-1,0,5,12
1523208099112218,53,2,11,6,5,2,9,9
1523208099112218,-57,7,18,2,-2,-1,-6,-13
1523208099134277,-5,-50,-2,-7,-4,-1,-14,-5
1523208099134277,0,10,-11,-4,-1,-1,19,27
1523208099135279,-11,-7,-11,-2,-3,-7,0,-22
1523208099135279,-10,17,12,-1,4,3,7,16
1523208099148315,1,17,6,-7,-6,0,-6,-19
1523208099148315,-10,-1,3,8,2,0,5,-15
1523208099156336,-36,-34,7,-8,-2,2,-3,-6
1523208099156336,16,-10,-6,3,2,-1,1,-10
1523208099171613,7,42,26,11,5,1,11,18
1523208099171613,4,-14,-8,-5,-7,-6,-16,-25
1523208099171613,-11,29,-13,-7,-3,-2,0,4
1523208099171613,-3,-18,-11,-4,-2,-6,-11,-55
1523208099194672,8,-34,6,7,2,0,2,8
1523208099194672,77,39,-5,4,4,4,-2,17
1523208099195439,-60,-31,4,-8,-7,-6,-3,-46
1523208099195439,5,65,-7,-6,-2,3,9,-4
1523208099207472,28,-47,1,-5,-1,2,-3,28
1523208099207472,-27,7,-3,5,-4,-7,-11,-42
1523208099216495,19,11,-6,-3,1,3,15,32
1523208099216495,8,41,-3,3,1,2,-1,2
1523208099230769,6,-13,-18,-8,0,0,6,-2
1523208099230769,0,-3,-2,-3,0,4,1,36
1523208099231538,16,-3,-5,4,-1,-3,-11,-8
1523208099231538,-14,1,-7,-4,-4,-6,-8,-3
1523208099254605,-4,12,-2,3,0,0,1,5
1523208099254605,-33,-45,5,-2,0,0,-4,-35
1523208099254605,6,27,1,-2,-2,-3,-6,30
1523208099254605,1,-24,1,-4,-4,-2,2,-26
1523208099267631,26,36,-1,1,-3,-4,-2,7
1523208099267631,-70,-32,-11,-8,-4,-2,3,-2
1523208099276694,17,-15,6,1,0,2,-12,4
1523208099276694,-37,-14,-1,9,3,0,5,2
1523208099290693,3,-31,25,1,1,4,1,-2
1523208099290693,18,33,10,-5,-4,-6,8,-6
1523208099291695,-5,2,-12,0,1,-2,-3,6
1523208099291695,-5,-16,0,-3,-2,-4,-11,14
1523208099314755,-7,-3,-7,-4,-4,-1,16,13
1523208099314755,16,19,2,3,-2,-3,-15,-9
1523208099314755,-12,-5,-1,-10,-6,-3,5,-9
1523208099314755,3,-29,4,5,4,2,2,25
1523208099328028,8,45,-5,-5,-3,-3,6,-12
1523208099328028,22,8,11,1,0,0,-10,11
1523208099335851,-8,-27,-5,1,0,-3,11,-6
1523208099335851,91,25,9,3,0,0,-5,21
1523208099350851,-41,-31,-4,0,-4,-4,-6,-2
1523208099350851,-9,-26,-4,-7,0,0,-5,-28
1523208099351854,19,65,-5,-2,-4,-3,4,2
1523208099351854,0,-27,-1,0,3,2,1,-13
1523208099374925,1,-16,6,0,0,0,-7,10
1523208099374925,16,21,5,2,0,0,-8,11
1523208099374925,-17,-25,1,1,4,5,3,-5
1523208099374925,-25,-14,-3,-11,-4,0,-20,-16
1523208099387954,7,44,-6,8,1,-2,30,-18
1523208099387954,-3,-19,0,-3,-3,1,-1,53
1523208099396210,4,24,7,5,2,1,-4,-41
1523208099396210,-20,-9,-16,-12,-6,-4,3,14
1523208099411247,11,-68,-11,2,1,1,-15,-2
1523208099411247,60,9,-5,0,1,1,5,16
1523208099412015,0,20,1,4,-2,-3,-6,-19
1523208099412015,-22,41,-21,-3,0,0,0,-8
1523208099434072,5,-26,-1,2,5,1,-6,-4
1523208099434072,0,-34,0,-9,-4,0,16,-3
1523208099435075,14,11,-15,-4,-4,-3,-15,1
1523208099435075,4,-15,12,9,1,-2,2,-11
1523208099457135,-11,34,-6,0,-2,-1,0,21
1523208099457135,-12,-1,-8,-6,-7,-8,-22,-50
1523208099457135,-15,-12,3,3,1,-1,2,11
1523208099457135,-1,-8,13,-4,-1,-4,-1,16
1523208099471172,6,-15,-1,0,-3,-1,-1,10
1523208099471172,-65,9,13,5,1,-2,-4,-31
1523208099472175,-7,-16,-18,-14,-8,-6,1,4
1523208099472175,8,12,11,7,-2,-7,-7,-10
1523208099494471,-16,-18,-14,-13,-4,1,-4,6
1523208099494471,36,36,3,7,1,-1,0,12
1523208099495235,-42,-5,-11,8,3,0,5,-4
1523208099495235,-7,-8,-2,8,0,-3,-10,9
1523208099516292,-6,-32,-9,-14,-6,-3,5,-23
1523208099516292,26,17,-9,10,1,-1,4,55
1523208099517297,5,1,14,2,2,-2,-5,-10
1523208099517297,14,30,-6,4,0,-1,3,26
1523208099531332,-42,3,14,5,1,-6,5,-10
1523208099531332,-14,-67,-23,-4,-1,-1,2,0
1523208099531332,28,31,10,0,-1,-1,-8,20
1523208099531332,-13,-2,-2,-4,0,3,-1,-29
1523208099554395,14,-1,-3,4,1,2,0,11
1523208099554395,-10,17,2,-12,-5,-1,-2,-28
1523208099555397,52,-31,12,10,7,0,1,21
1523208099555397,-4,27,-31,-13,-8,-5,-2,0
1523208099576452,13,-3,0,6,5,3,-3,-13
1523208099576452,20,20,4,13,4,0,5,16
1523208099577455,-19,46,23,5,-2,2,-5,-14
1523208099577455,51,-53,5,-9,-1,-4,-3,-28
1523208099591491,-17,-11,-10,-23,-11,-8,-7,-16
1523208099591491,27,2,1,9,8,2,0,13
1523208099591491,-18,6,-1,-1,-2,-1,9,-16
1523208099591491,47,36,15,13,5,2,6,6
1523208099614553,-18,35,18,0,-2,-1,-6,-22
1523208099614553,-26,-45,-17,-10,-7,-5,0,3
1523208099615559,1,16,-5,-3,1,2,-1,17
1523208099615559,-54,-34,-1,-4,0,1,-14,-5
1523208099636850,9,-1,-4,3,-1,-3,7,-15
1523208099636850,8,76,1,-11,-5,-3,3,12
1523208099637615,-18,-84,-33,-11,-5,-2,-1,-11
1523208099637615,-26,-37,-11,-2,-2,0,3,4
1523208099659672,5,23,8,1,4,4,-7,30
1523208099659672,5,-18,8,-5,-1,0,-1,-21
1523208099659672,1,-2,10,-10,-6,0,2,18
1523208099659672,-2,56,-29,-3,-4,-4,0,2
1523208099674870,-10,-42,21,-4,-2,0,-5,1
1523208099674870,-9,-10,-2,7,2,3,2,8
1523208099674870,-3,-6,3,-6,-1,-1,-7,-37
1523208099674870,-21,-26,1,-3,-6,-3,-7,19
1523208099697008,12,49,-13,-4,-4,-4,9,7
1523208099697008,-9,-1,12,1,-1,-2,-2,-8
1523208099697776,35,10,-2,0,2,2,3,-2
1523208099697776,-19,-45,11,-10,-6,-2,0,22
1523208099710811,34,11,-20,-3,-2,-3,-4,5
1523208099710811,-13,-26,-19,-4,0,-2,-1,-8
1523208099711811,17,15,7,4,2,3,3,-2
1523208099711811,20,33,5,7,4,6,21,30
1523208099733871,-26,-7,-2,0,-4,-2,2,27
1523208099733871,-5,-1,0,4,3,-2,-5,-30
1523208099734872,-13,-13,-6,-7,-3,-4,-19,7
1523208099734872,-10,-9,3,-1,3,2,-10,-42
1523208099756931,-1,11,-7,-1,-3,-3,15,-7
1523208099756931,7,-7,12,-10,-4,2,3,9
1523208099757934,-10,18,-14,3,0,-5,-2,23
1523208099757934,75,-41,0,-15,-3,0,-6,-17
1523208099771204,-34,-7,13,8,5,1,-10,-9
1523208099771204,-5,59,19,3,2,2,10,6
1523208099771970,-10,-47,-6,-4,-4,-5,4,-41
1523208099771970,27,-3,-1,-2,-1,1,-3,-2
1523208099794266,6,-28,-13,-1,-1,-5,11,14
1523208099794266,20,75,5,10,8,5,0,23
1523208099795031,-18,-50,1,4,0,-2,4,3
1523208099795031,-14,-3,-7,-1,-2,3,3,-13
1523208099817092,-8,-18,0,0,-2,-6,1,-14
1523208099817092,10,3,-1,7,-2,-2,-5,16
1523208099817092,-8,30,2,-6,-3,-2,0,-5
1523208099817092,-31,-19,4,-1,-1,-4,-10,-4
1523208099831143,-1,-2,-17,2,1,4,-3,9
1523208099831143,-4,-31,-2,-3,-5,-5,-2,-8
1523208099832177,50,26,-1,5,-2,-3,-7,2
1523208099832177,-82,-10,-7,4,0,-4,1,1
1523208099854191,0,-7,18,8,3,4,-1,19
1523208099854191,35,26,-15,-14,-10,-6,1,-27
1523208099855194,-24,-62,-5,0,1,1,-2,13
1523208099855194,17,21,9,4,3,1,9,-4
1523208099877368,9,36,0,-8,-2,-3,0,4
1523208099877368,15,-64,-7,-9,-2,-1,-11,-44
1523208099877368,-44,18,9,2,-1,0,10,48
1523208099877368,-3,11,2,-9,-9,-9,-10,0
1523208099891289,3,-13,-13,-10,-3,-2,-8,-24
1523208099891289,-6,-24,-13,1,2,2,4,5
1523208099892328,3,60,-1,3,0,-1,-2,20
1523208099892328,-11,-44,-2,-1,-3,-4,3,-8
1523208099914351,-24,46,8,11,4,-2,-4,-14
1523208099914351,-71,-32,-10,-8,-5,-4,-7,-14
1523208099915356,39,-11,-7,6,-1,0,4,13
1523208099915356,-22,39,3,5,3,5,-2,21
1523208099936643,29,5,1,-4,-5,-3,15,-6
1523208099936643,-21,1,7,5,2,0,-11,9
1523208099937410,1,-7,-8,3,2,-1,-2,14
1523208099937410,17,-52,4,-3,-2,-1,5,17
1523208099950445,33,7,-12,3,-1,-1,-26,-34
1523208099950445,-22,68,8,2,1,0,24,9
1523208099958468,4,-13,1,-8,-4,-3,1,-11
1523208099958468,7,-25,-15,-2,-1,-1,-7,9
1523208099974744,42,-7,-4,0,-1,0,-13,-18
1523208099974744,-19,-11,-5,11,3,2,1,-8
1523208099974744,-64,2,-7,-15,-5,-3,-8,-16
1523208099974744,7,33,10,4,3,3,4,-6
1523208099996804,3,-10,6,11,3,-4,-18,7
1523208099996804,12,0,-9,-15,-10,-5,10,33
1523208099997573,21,-26,2,1,2,3,24,-24
1523208099997573,-8,12,24,4,3,0,-8,25
1523208100010606,-11,12,-11,-7,-4,0,9,-18
1523208100010606,9,-4,2,-6,-7,-4,-18,18
1523208100018632,-13,-15,-7,0,-1,-4,-6,-21
1523208100018632,18,1,-5,-4,-3,-2,6,-5
1523208100034669,-40,-18,7,-15,-4,2,0,17
1523208100034669,25,12,-3,-2,1,0,-5,-2
1523208100034669,-3,-6,5,-3,-5,-4,-8,-16
1523208100034669,19,24,-18,12,4,2,12,5
1523208100056728,-33,-16,0,-5,-4,-4,3,-10
1523208100056728,10,-28,0,0,0,-3,-5,1
1523208100057730,21,43,-2,2,2,2,-10,-45
1523208100057730,-12,-7,1,-3,-3,-2,-2,-14
