timestamp,emg1,emg2,emg3,emg4,emg5,emg6,emg7,emg8
1523182982510648,-3,24,-1,1,-15,0,2,-8
1523182982510648,11,-13,-12,28,9,2,10,16
1523182982527697,10,18,-9,5,9,15,-14,3
1523182982527697,-12,-8,-19,-1,-9,-14,-2,-11
1523182982528695,4,1,18,-6,-18,9,-2,-16
1523182982528695,0,1,5,25,21,0,-9,31
1523182982549751,-2,29,12,21,-18,-27,-20,-26
1523182982549751,-3,-25,-38,-23,14,8,12,29
1523182982555767,23,2,19,2,-12,1,-5,-20
1523182982555767,32,-10,22,6,6,3,18,12
1523182982563792,-3,-10,-21,-5,-2,-10,-25,-22
1523182982563792,-24,-4,6,-9,-16,-11,9,45
1523182982570806,13,9,-28,12,24,16,7,8
1523182982570806,0,1,-11,-21,-12,-1,-6,-34
1523182982586850,-9,-21,-24,-15,-9,-8,-7,1
1523182982586850,28,-24,-1,-9,-14,-3,1,-11
1523182982588854,-17,24,3,16,8,3,10,11
1523182982588854,15,-11,13,12,12,-4,-4,15
1523182982609911,4,-17,-17,-18,-20,1,4,-6
1523182982609911,2,12,-1,35,0,-3,-7,-2
1523182982610913,8,-54,-15,-66,-4,3,-4,22
1523182982610913,5,36,0,-1,-5,-1,-2,-8
1523182982623948,1,-23,5,-7,-2,-14,-2,3
1523182982623948,5,-23,9,5,-4,1,-7,-5
1523182982630974,-1,29,-6,19,24,18,12,-10
1523182982630974,-39,-8,-14,-38,-17,-5,-7,-15
1523182982647017,37,-8,8,31,2,-2,-16,41
1523182982647017,-11,16,-3,-2,-11,-3,1,-13
1523182982649017,-15,8,2,16,6,-9,-1,-2
1523182982649017,28,9,19,17,9,5,1,2
1523182982670074,-25,-13,-6,-49,-13,-3,3,-12
1523182982670074,-7,-2,-15,14,4,3,0,-25
1523182982671074,20,17,13,5,-1,-5,-4,1
1523182982671074,4,-19,-32,0,-1,-1,1,-3
1523182982684112,34,29,18,27,20,12,-4,3
1523182982684112,-24,-61,-1,-7,7,-3,8,13
1523182982691127,-18,-7,-54,-92,-42,-18,-9,2
1523182982691127,-6,4,29,34,-4,4,16,43
1523182982707170,25,19,9,44,3,-7,-1,55
1523182982707170,3,5,-27,14,13,-5,-9,-34
1523182982709178,-5,0,-2,-47,6,22,1,-21
1523182982709178,8,-1,-15,21,-8,-9,-6,9
1523182982730230,-23,21,1,10,-1,-5,-2,-9
1523182982730230,17,31,0,44,-1,-2,-3,0
1523182982731237,-17,-43,14,-36,-22,-22,-10,-24
1523182982731237,12,27,1,-28,31,21,9,-11
1523182982744269,-20,-28,5,2,-2,1,-1,-28
1523182982744269,-3,9,9,-1,-13,-1,-6,7
1523182982751288,5,7,16,54,21,1,5,10
1523182982751288,-31,-9,-37,-83,-44,-23,-6,-11
1523182982767330,3,18,-2,25,16,10,-5,-15
1523182982767330,4,8,16,-31,-6,8,12,5
1523182982769336,19,5,2,50,13,7,5,88
1523182982769336,19,-38,-3,-13,-16,-7,7,-58
1523182982789388,-12,3,-5,4,4,-3,-11,6
1523182982789388,-32,12,-5,-5,-9,-1,-3,-21
1523182982791394,-13,27,-17,-25,6,2,-5,-28
1523182982791394,6,19,-6,68,21,-2,3,37
1523182982804662,4,-19,12,-91,-40,-2,11,5
1523182982804662,18,9,-23,-14,6,-5,-2,-27
1523182982811449,-25,-19,9,29,-5,-2,-1,3
1523182982811449,-19,-12,-3,0,4,-6,-18,-14
1523182982827489,-5,-18,-21,14,12,-2,6,-13
1523182982827489,-12,10,0,8,-2,11,5,22
1523182982828491,44,12,7,-46,-9,7,3,-17
1523182982828491,9,8,24,67,21,1,-7,-19
1523182982849548,-16,-48,-35,2,-14,-11,-13,32
1523182982849548,-14,37,21,4,-15,-4,4,-14
1523182982851553,-23,-70,-22,31,6,-9,12,-4
1523182982851553,40,9,12,2,-4,0,3,2
1523182982863589,8,7,16,18,12,-4,-6,2
1523182982863589,7,-8,0,-1,-7,-11,-8,5
1523182982872611,1,28,14,-21,8,20,7,-16
1523182982872611,-8,2,-14,-15,-8,-2,3,22
1523182982887650,-29,-14,-15,-14,7,-2,5,-24
1523182982887650,11,-48,-20,-18,-4,-4,-4,-9
1523182982888652,-25,1,14,5,-19,-10,-3,-3
1523182982888652,35,13,35,20,16,-2,-11,-5
1523182982909943,0,16,6,-26,-4,10,8,-1
1523182982909943,-1,-17,-33,-5,18,7,-7,4
1523182982911712,-12,-7,-11,22,-18,-8,-6,-3
1523182982911712,-16,-2,-8,-28,-7,3,-4,17
1523182982923746,0,10,12,33,12,-14,-2,-11
1523182982923746,9,0,20,-2,8,14,2,-29
1523182982932772,22,6,-2,-1,-2,-2,4,-1
1523182982932772,-35,42,26,12,-16,1,-3,-1
1523182982946807,4,-21,-18,10,21,-2,1,-22
1523182982946807,-77,23,7,-10,-6,-8,-18,-49
1523182982948812,59,-5,1,-15,6,-1,14,-22
1523182982948812,-1,-19,3,10,-5,-1,-5,74
1523182982969868,-2,5,17,0,8,3,-4,-19
1523182982969868,3,-15,-16,-30,5,-2,-2,16
1523182982970872,-16,38,24,47,-17,-8,-1,-10
1523182982970872,-8,-8,-26,-78,-6,11,4,-30
1523182982982902,19,-23,4,-2,-1,0,10,37
1523182982982902,-12,4,6,11,-2,-5,-6,25
1523182982992928,-5,9,10,42,-4,-19,-12,7
1523182982992928,7,-18,-31,-43,22,15,3,-14
1523182983007608,-4,4,9,21,-14,6,2,6
1523182983007608,26,56,4,-17,5,1,2,9
1523182983009392,-23,-74,-5,26,-2,-4,-7,15
1523182983009392,1,-19,-1,-9,-13,-11,-15,-14
1523182983029439,-67,6,3,-17,7,13,7,-48
1523182983029439,17,27,20,4,1,5,3,44
1523182983031439,56,12,2,29,16,-1,-10,34
1523182983031439,-13,-33,-20,33,-15,-13,7,-10
1523182983043546,5,23,-10,-48,-3,-6,-10,-31
1523182983043546,16,-28,-3,-16,-29,-6,5,28
1523182983052571,-27,-64,-25,4,23,7,11,8
1523182983052571,-4,1,9,14,5,4,3,-12
1523182983067611,41,8,4,-3,-5,-6,-16,53
1523182983067611,-14,7,4,14,-10,-19,2,-12
1523182983068613,4,21,3,-20,18,28,6,3
1523182983068613,17,9,15,45,7,16,6,-2
1523182983089669,-14,2,-20,-24,-15,-8,3,-5
1523182983089669,5,-15,0,39,22,4,-8,-15
1523182983091674,-18,-6,-10,-68,-40,-24,-13,-19
1523182983091674,-19,21,31,26,16,4,13,49
1523182983103941,-12,16,10,34,8,4,-4,-1
1523182983103941,11,-13,-29,-26,-7,-6,-2,-29
1523182983112732,-33,-16,-7,42,12,-9,0,4
1523182983112732,40,18,7,-110,-18,9,7,24
1523182983127771,33,-46,8,34,-11,-13,10,8
1523182983127771,-11,-46,-19,-51,-3,3,-14,18
1523182983128774,6,59,4,8,7,-8,0,14
1523182983128774,8,20,-4,55,3,-2,-8,-5
1523182983149828,-3,-7,-1,-30,-15,-1,5,-15
1523182983149828,-7,6,-5,-3,-1,12,-2,-11
1523182983151834,32,4,7,-9,7,1,-10,-3
1523182983151834,-19,10,15,43,-12,-14,-8,-14
1523182983163868,-5,13,-8,-13,-17,-3,-4,7
1523182983163868,-18,-23,1,37,28,10,3,-22
1523182983172890,-7,11,-11,-61,-10,2,-4,-7
1523182983172890,-2,-5,-11,7,-12,-11,-4,-20
1523182983186926,-13,14,-6,40,3,-6,3,6
1523182983186926,40,-13,15,-44,16,16,6,0
1523182983188932,-10,47,7,27,-3,4,14,8
1523182983188932,35,-60,-23,-23,-2,-10,-16,-9
1523182983210114,-22,-1,-31,0,-12,-11,-17,-14
1523182983210114,5,8,40,29,-3,1,10,-14
1523182983210996,-6,-7,-26,-40,1,3,-12,-9
1523182983210996,-38,-8,11,9,2,-1,7,-17
1523182983223024,9,-15,-6,-16,0,0,-9,-11
1523182983223024,11,31,8,25,-6,-12,5,19
1523182983232048,-15,-24,1,-23,-1,13,0,-8
1523182983232048,-3,-23,-1,-4,7,1,4,9
1523182983247087,16,11,-6,3,10,11,2,-11
1523182983247087,-51,-46,-1,34,9,-6,2,-52
1523182983253341,30,28,3,-31,-8,-7,-6,1
1523182983253341,-56,-3,-25,-6,-4,-7,-4,-17
1523182983270149,20,31,15,-18,-6,-7,4,28
1523182983270149,24,-2,11,38,15,15,-2,7
1523182983271150,-16,-40,-29,-19,-5,-13,-7,-15
1523182983271150,-3,18,9,-2,0,2,5,4
1523182983292441,11,-1,1,-6,-1,2,-4,34
1523182983292441,-11,18,-5,-1,-22,-20,-11,-5
1523182983294218,-2,-8,21,27,18,10,6,6
1523182983294218,16,14,-1,-4,15,10,-1,-15
1523182983307485,-7,-30,-1,-3,-3,-3,0,-37
1523182983307485,43,13,-15,-25,-21,-4,0,57
1523182983309252,-13,-11,-6,17,-5,-6,4,-18
1523182983309252,-3,0,-3,11,-7,-9,-23,0
1523182983329306,7,17,15,-2,17,5,-1,-4
1523182983329306,-9,-43,-33,-26,-14,3,7,-4
1523182983331310,-8,30,12,32,-9,-1,4,-17
1523182983331310,19,17,-1,1,12,7,7,44
1523182983352601,-15,9,16,15,7,4,-4,-8
1523182983352601,6,37,-1,-13,1,-8,-5,-10
1523182983354371,0,-24,12,5,-6,-3,-6,-2
1523182983354371,-15,-3,-13,-2,-6,-6,0,-17
1523182983367407,9,-27,-5,-13,4,5,18,-16
1523182983367407,21,8,-3,-2,1,5,-5,32
1523182983369413,-2,37,12,8,9,7,-3,3
1523182983369413,-1,-34,-10,-6,-9,-14,-1,1
1523182983389465,8,22,15,8,-3,15,9,-4
1523182983389465,-16,5,-8,0,-25,-2,0,-10
1523182983391471,-10,-45,-6,-34,34,0,-7,2
1523182983391471,6,19,-13,-2,-12,-1,-6,-9
1523182983412573,-13,-22,-20,-24,-13,-8,-5,-2
1523182983412573,-19,14,13,16,20,5,7,-1
1523182983413556,13,21,-7,-4,-11,0,-8,-5
1523182983413556,-9,0,6,7,-12,-11,-6,-28
1523182983426563,-26,3,-4,25,12,20,24,-46
1523182983426563,-24,-9,-2,-32,-2,-8,-20,28
1523182983433584,-3,4,4,46,8,-7,-1,-10
1523182983433584,1,-36,-26,-43,-16,2,1,-13
1523182983449627,-28,14,-5,13,-7,-11,-24,3
1523182983449627,12,28,26,21,10,1,-3,-18
1523182983451632,-6,-42,-18,-2,-17,-8,3,2
1523182983451632,-3,2,-9,18,4,1,3,-4
1523182983472193,14,-17,-3,-9,16,13,-14,30
1523182983472193,21,6,3,-12,-6,-5,5,2
1523182983474236,-10,12,8,8,1,2,-8,8
1523182983474236,10,14,4,-18,-7,-13,-1,1
1523182983486266,6,15,6,15,-11,-9,7,32
1523182983486266,-7,-30,-19,23,17,10,17,5
1523182983493246,30,-13,-12,-57,-8,13,-6,-13
1523182983493246,-6,0,4,4,3,-8,-2,38
1523182983510292,20,23,4,-3,4,-12,-10,12
1523182983510292,-8,-10,-4,-7,-22,-13,-2,-24
1523182983511300,-9,-20,-42,17,14,9,5,-39
1523182983511300,-39,-16,26,19,15,13,21,43
1523182983532354,6,-10,28,-9,-1,-9,-10,-18
1523182983532354,10,-2,-1,3,-2,-8,8,59
1523182983534358,-15,15,16,10,-4,-2,1,-13
1523182983534358,20,21,-3,-24,1,4,-2,-23
1523182983546388,-23,-18,-2,61,-1,-4,-3,-15
1523182983546388,-28,-3,1,-41,-3,4,0,-3
1523182983553407,15,-3,3,-2,-6,-6,4,0
1523182983553407,8,58,10,-1,4,5,-7,47
1523182983569449,6,-91,-29,-14,-8,0,2,4
1523182983569449,9,12,6,-17,7,-5,-15,-50
1523182983571455,-6,29,2,10,-2,-14,-10,29
1523182983571455,13,-43,1,12,-10,13,0,-20
1523182983592512,-8,10,-8,-5,6,4,1,0
1523182983592512,-3,25,4,-53,-2,-1,-3,8
1523182983593519,11,-12,8,11,-15,-10,11,-2
1523182983593519,-2,22,-16,12,-6,-15,-13,-27
1523182983606548,-6,15,0,-1,3,9,6,-7
1523182983606548,8,-10,5,26,-5,0,12,16
1523182983613570,-5,-1,18,-21,9,3,-2,-4
1523182983613570,-9,-13,-3,11,-8,-2,-16,10
1523182983629619,49,4,-19,16,-1,-14,-6,23
1523182983629619,14,32,-21,-9,1,-5,-3,-19
1523182983631615,-65,-22,18,26,-3,20,4,-8
1523182983631615,23,1,6,-36,-1,-3,9,68
1523182983652671,-25,3,-6,1,-7,-4,-2,-74
1523182983652671,12,-13,1,37,1,-9,-7,8
1523182983653673,3,35,-32,-33,-12,-11,-1,-13
1523182983653673,-13,-39,-1,4,12,21,5,-17
1523182983666708,14,8,-6,-10,-1,1,6,68
1523182983666708,-18,-17,-7,-4,-20,-16,-5,-31
1523182983673727,3,11,15,11,11,11,-1,10
1523182983673727,-7,19,15,40,12,2,14,-19
1523182983689769,-8,-11,-3,-61,-11,-9,-11,13
1523182983689769,44,-22,-20,8,6,6,-5,-5
1523182983691774,-9,4,15,20,-2,-16,-4,-16
1523182983691774,7,-28,-20,-6,-34,-16,-19,12
1523182983712831,3,14,38,14,17,23,17,18
1523182983712831,-3,17,-2,-6,3,2,-4,-30
1523182983713833,5,-19,-12,-7,0,-5,-8,-22
1523182983713833,16,29,7,-7,5,-3,3,-4
1523182983726873,-21,-51,-20,1,1,-4,-1,-2
1523182983726873,-16,20,29,1,-5,4,-9,39
1523182983733887,51,5,3,-5,-6,-1,3,20
1523182983733887,-18,-9,-18,-13,5,2,-6,-25
1523182983756948,2,30,19,11,-3,-8,0,1
1523182983756948,-18,-16,1,57,9,3,1,-12
1523182983758954,28,6,-17,-84,-4,0,2,18
1523182983758954,-16,-3,-12,-18,-7,3,9,13
1523182983771987,16,20,24,26,-1,-1,-1,-3
1523182983771987,3,-22,-6,9,14,-2,2,-17
1523182983773994,-8,23,-2,16,-19,-10,-1,-7
1523182983773994,-28,-13,-2,4,7,3,-3,-47
1523182983786025,2,1,-10,-18,4,8,-14,-17
1523182983786025,-13,5,9,-21,-6,-1,-1,-18
1523182983795050,-1,-8,31,41,6,1,12,65
1523182983795050,7,20,9,-33,-11,-11,-1,-13
1523182983810094,-4,-6,-35,10,5,1,6,26
1523182983810094,-12,-13,7,5,-9,-4,0,-3
1523182983811098,-12,5,-11,21,9,5,-11,-30
1523182983811098,31,-21,-15,-21,-6,3,-5,8
1523182983832149,-31,23,22,-4,-6,-2,-3,-9
1523182983832149,8,-28,-22,-9,8,7,2,8
1523182983834155,6,-16,-5,14,8,-11,0,-7
1523182983834155,-3,-1,-10,-28,-2,13,1,14
1523182983846185,-3,10,-2,-25,-6,-12,-6,-11
1523182983846185,20,-4,-10,-5,-14,-8,-1,-2
1523182983855210,-72,15,19,19,7,20,2,7
1523182983855210,1,5,18,30,12,-10,15,5
1523182983870249,37,41,-3,2,2,-2,-8,2
1523182983870249,-35,-68,17,-15,-3,5,-10,6
1523182983871252,0,-30,-9,-5,-5,-8,-5,-20
1523182983871252,6,29,8,6,-4,-6,11,28
1523182983892309,-41,9,17,37,-2,0,25,15
1523182983892309,5,6,-18,-33,-1,5,-5,-11
1523182983894314,46,-51,-46,-70,-23,-11,-19,-15
1523182983894314,-13,-8,5,2,12,-5,-19,-36
1523182983906346,-9,22,-4,15,-19,-14,6,-2
1523182983906346,-2,-11,32,24,25,36,21,35
1523182983915369,-5,25,19,7,-1,4,4,21
1523182983915369,13,-2,-20,-12,-9,-16,-9,-1
1523182983929409,3,-33,0,-11,-8,-24,-14,-8
1523182983929409,5,41,-11,11,6,35,13,-15
1523182983931412,0,-16,-6,-19,-12,-3,-5,27
1523182983931412,-4,9,24,28,3,-7,-5,-5
1523182983959499,12,-21,-2,-13,13,19,7,-26
1523182983959499,-8,-27,-14,3,-13,-18,-8,-12
1523182983961492,-29,24,-27,-21,-2,0,0,-39
1523182983961492,-4,-28,-8,15,-7,-7,-6,10
1523182983965504,-3,-16,1,4,-10,1,-4,11
1523182983965504,-23,17,-5,-22,18,7,3,-1
1523182983974527,30,23,15,36,-11,-6,-6,-42
1523182983974527,-3,-1,8,-2,8,6,0,-10
1523182983989567,-16,-8,-9,9,-9,-12,-10,15
1523182983989567,22,4,9,-4,-6,-13,-9,-27
1523182983991572,-1,10,17,13,12,7,10,12
1523182983991572,-37,49,5,9,5,4,-9,-30
1523182984012630,-5,-109,-44,-14,-2,-2,-5,-10
1523182984012630,-2,27,18,2,-10,-18,-6,2
1523182984013631,-1,19,-10,-23,-3,4,5,23
1523182984013631,20,26,5,5,-1,9,8,-5
1523182984034688,-8,-3,3,-19,-4,2,-7,-25
1523182984034688,1,1,0,3,-6,-21,4,21
1523182984036693,10,-5,-1,11,5,15,10,14
1523182984036693,7,7,6,-4,9,4,-8,-25
1523182984049727,-33,23,-6,-17,0,-2,24,39
1523182984049727,8,3,-14,-9,-28,-21,-9,-19
1523182984051732,5,48,33,17,16,16,5,13
1523182984051732,4,-89,-27,-10,-5,1,0,-3
1523182984072788,0,15,4,-7,11,8,3,-6
1523182984072788,10,-5,-19,7,-10,-11,-4,-4
1523182984073790,-11,-25,22,-19,3,-11,-3,20
1523182984073790,-14,7,-3,18,0,4,2,-6
1523182984085823,18,15,14,-6,8,-2,-11,-24
1523182984085823,-36,20,-8,2,-15,-6,-4,-2
1523182984094848,25,-18,-26,2,-3,5,10,25
1523182984094848,-23,-7,16,-7,5,4,-7,-7
1523182984109889,-35,41,18,22,1,-4,5,30
1523182984109889,11,-12,-21,-57,-4,-5,-13,-9
1523182984110890,-13,-64,-29,26,-5,-18,-15,-18
1523182984110890,7,-2,-25,-17,-9,-10,1,20
1523182984131944,8,34,20,3,4,11,7,-2
1523182984131944,-3,1,5,9,10,2,-1,-7
1523182984133950,-1,23,6,2,2,-10,-13,4
1523182984133950,5,-9,0,9,-5,-9,9,2
1523182984145982,49,-27,5,-11,7,30,-11,-18
1523182984145982,0,22,12,37,-7,6,1,10
1523182984155008,-9,-6,-10,-44,-7,-7,-8,-6
1523182984155008,-1,-17,3,1,-3,-11,-11,-1
1523182984170046,8,-11,-9,-10,-10,-13,-7,4
1523182984170046,-21,-7,9,5,10,7,3,12
1523182984171048,-1,-1,-4,7,-4,-5,-10,-34
1523182984171048,-2,29,0,29,-4,-17,6,19
1523182984192104,-9,-12,-15,-20,18,34,7,5
1523182984192104,-4,4,2,-11,1,9,10,19
1523182984194110,7,21,5,-1,-7,-7,-8,-6
1523182984194110,-2,7,-4,1,-3,1,-5,-17
1523182984206141,-9,-44,-9,0,-15,-23,-10,-5
1523182984206141,-2,-11,-6,-1,10,10,6,0
1523182984215168,5,8,3,2,5,2,0,-20
1523182984215168,40,22,20,27,5,8,10,46
1523182984230205,-2,6,-12,-54,-9,-9,-8,-18
1523182984230205,-3,-18,-5,5,-1,-15,-19,-16
1523182984231208,15,-15,-9,-23,-25,0,11,34
1523182984231208,5,73,7,-1,12,28,-2,-8
1523182984252274,1,-46,0,24,0,-11,0,-5
1523182984252274,11,-15,-7,1,1,-6,-1,-7
1523182984254282,-9,4,-4,9,11,-4,1,-48
1523182984254282,14,-18,-1,-10,-2,-3,-11,68
1523182984275466,-8,43,7,-6,-12,-6,-2,-3
1523182984275466,7,13,3,21,-12,-13,-4,0
1523182984276328,-14,-22,-2,-13,3,8,5,12
1523182984276328,-12,-54,-9,-12,6,10,9,-25
1523182984290445,2,-21,-18,-8,1,-4,-4,-12
1523182984290445,0,-6,3,0,-7,-4,-4,16
1523182984291369,-5,43,-8,12,5,2,5,4
1523182984291369,-3,-11,-3,1,5,0,1,-20
1523182984312459,-30,23,9,6,0,1,-1,-1
1523182984312459,29,56,25,4,11,4,13,-4
1523182984313428,27,-34,-16,34,5,3,-19,46
1523182984313428,-34,-43,-38,-91,-34,-22,-6,-45
1523182984334484,33,9,-4,-2,1,18,-3,-10
1523182984334484,3,-10,-34,-1,6,9,10,64
1523182984336488,-27,37,32,17,5,-3,0,-12
1523182984336488,-5,-39,6,31,10,-4,-3,-9
1523182984349523,4,7,2,2,-11,-13,-7,-14
1523182984349523,-2,-5,-4,-17,-2,1,1,-17
1523182984351529,-1,6,-2,5,11,-2,-1,-5
1523182984351529,-1,29,6,3,-7,3,0,-9
1523182984372622,-18,8,3,14,6,1,2,-19
1523182984372622,20,-22,-8,-3,-8,16,-3,33
1523182984373587,-18,-31,-18,-36,-13,-9,6,29
1523182984373587,15,3,-1,-4,4,-1,-4,-21
1523182984394645,1,21,6,13,4,-8,-3,7
1523182984394645,-13,-11,9,17,2,-7,-3,-19
1523182984396650,-4,-2,9,-3,-3,3,-1,-14
1523182984396650,8,14,4,-2,4,0,2,15
1523182984409081,-3,3,-3,10,2,-7,1,11
1523182984409081,0,15,5,-15,-9,-3,-4,-50
1523182984415699,28,-15,18,-12,-17,5,23,93
1523182984415699,-30,20,-20,9,18,3,5,-34
1523182984432745,13,-48,-32,19,-1,5,-11,4
1523182984432745,-15,-21,3,-19,-6,-15,-10,-16
1523182984433746,-10,13,-8,-5,-4,0,-1,-24
1523182984433746,13,33,18,14,-2,6,-1,-29
1523182984455142,30,2,18,-11,-7,-6,16,55
1523182984455142,37,-2,5,25,11,6,-4,4
1523182984456807,0,12,9,-28,-1,4,-4,-32
1523182984456807,-2,-19,-12,-10,-6,-3,-1,34
1523182984468841,-18,32,11,8,4,-7,0,-38
1523182984468841,-10,-55,-7,-8,-18,-6,1,5
1523182984475859,-7,-5,-6,24,16,7,-3,-11
1523182984475859,-6,-28,-6,-1,-10,-6,-8,-6
1523182984492309,2,21,-16,-4,4,0,-2,7
1523182984492309,12,27,27,10,5,-3,1,4
1523182984493908,-46,18,-4,28,16,-17,-9,-39
1523182984493908,46,-57,-28,-37,-33,6,6,17
1523182984514963,-30,-29,4,3,2,8,-3,9
1523182984514963,-37,34,-6,-22,-2,1,11,28
1523182984515996,20,-25,3,23,0,5,-16,-46
1523182984515996,10,27,15,16,13,-10,-3,1
1523182984529036,17,4,17,2,0,10,14,-21
1523182984529036,-1,4,-6,-3,-5,-4,-18,2
1523182984536020,2,24,-31,-18,-7,-10,-1,5
1523182984536020,-12,29,17,25,2,-2,3,5
1523182984552468,25,-47,-4,-29,-11,-7,-19,-55
1523182984552468,-12,3,-4,17,8,0,14,76
1523182984554066,7,42,4,0,-11,4,6,25
1523182984554066,-8,-54,-18,-10,-7,-2,-5,-3
1523182984575546,-20,11,6,41,4,-1,-3,-4
1523182984575546,9,23,-7,-13,9,6,-7,-63
1523182984576127,13,-6,3,-17,-15,-10,-6,35
1523182984576127,-1,28,19,-8,2,-4,5,16
1523182984589588,-2,2,23,50,10,4,5,21
1523182984589588,-2,-25,-27,-88,-13,7,-3,-19
1523182984596180,-6,5,14,4,-4,-4,1,-3
1523182984596180,-10,-19,14,6,-1,-5,-6,-22
1523182984612222,-2,-2,-29,-27,-5,-19,-6,9
1523182984612222,9,24,13,24,7,11,8,4
1523182984614228,4,16,25,1,8,8,2,-27
1523182984614228,1,-61,-26,34,3,-1,-1,17
1523182984634280,-19,-44,-19,-89,-17,-8,-11,-10
1523182984634280,-15,26,-9,14,-16,-14,-3,-19
1523182984636285,-7,-61,-8,11,21,20,21,30
1523182984636285,-25,32,16,33,10,5,-4,-44
1523182984649355,-11,-13,-4,-18,-5,2,15,36
1523182984649355,-13,3,3,-5,-2,-20,-21,1
1523182984656737,-17,-5,6,-7,-3,3,0,-3
1523182984656737,6,20,12,0,4,5,11,-1
1523182984672426,28,19,-4,18,5,9,-7,-13
1523182984672426,-6,-16,5,-24,-3,-7,0,-9
1523182984673425,-9,5,-6,21,-2,-10,-3,0
1523182984673425,4,1,-11,-25,7,13,1,10
1523182984694482,-19,20,-7,0,-9,0,-1,0
1523182984694482,4,-10,-7,30,7,-4,-2,7
1523182984696445,4,-23,7,-11,-11,-10,-5,-21
1523182984696445,13,21,-9,-16,1,0,-3,23
1523182984708873,2,30,4,-3,-8,-15,-3,18
1523182984708873,-20,-56,-17,28,17,16,5,-18
1523182984717503,3,1,3,-8,0,8,6,-3
1523182984717503,9,12,-2,-16,4,4,3,-15
1523182984732582,-4,20,39,27,0,-2,0,26
1523182984732582,14,-26,-5,-15,-3,-4,4,-10
1523182984733544,13,-4,-15,-20,-7,-6,3,2
1523182984733544,-18,20,13,10,7,-7,-22,52
1523182984755009,26,12,-9,-4,-13,-4,-3,25
1523182984755009,0,18,22,22,5,11,8,-4
1523182984756606,18,21,8,6,6,5,-4,3
1523182984756606,-27,-71,-28,-2,-9,-5,3,-26
1523182984768639,-28,-6,-6,-2,4,-4,-4,14
1523182984768639,9,-16,-13,5,5,-8,-11,-9
1523182984777662,-14,3,0,-5,-19,-4,-5,-5
1523182984777662,1,27,20,-20,1,1,3,-17
1523182984792701,-1,4,-1,13,4,11,7,-41
1523182984792701,6,-12,10,-3,0,3,7,20
1523182984793704,-24,3,5,-5,8,-8,-10,1
1523182984793704,12,24,8,27,-9,-7,-2,-7
1523182984814760,2,-13,-28,-50,-3,1,7,8
1523182984814760,-13,37,13,9,-1,-1,-3,-13
1523182984816765,-9,-43,-16,1,8,8,6,-36
1523182984816765,-22,0,0,-5,-11,-4,-3,1
1523182984828798,9,52,3,15,10,1,-1,19
1523182984828798,0,-23,11,-28,-19,-13,-6,8
1523182984837822,5,-5,-14,8,0,2,-1,0
1523182984837822,-27,8,23,2,3,4,-4,23
1523182984853129,13,-17,-8,31,3,-2,2,-11
1523182984853129,-3,-4,1,-57,2,15,3,2
1523182984853872,8,-11,12,46,3,-10,3,-26
1523182984853872,29,12,-28,-45,-14,1,-3,5
1523182984875402,42,-21,3,8,-1,-4,-12,-19
1523182984875402,-1,-10,6,19,7,-10,-7,10
1523182984875924,-4,29,0,9,-9,-9,-1,-5
1523182984875924,11,3,3,2,22,19,6,-25
1523182984887953,16,-21,-1,-4,-3,-1,-4,6
1523182984887953,7,-9,-17,7,-2,-2,-1,-23
1523182984897026,1,-5,-8,-20,6,-5,-10,6
1523182984897026,-9,-2,-3,12,-26,-14,-2,-11
1523182984912017,-3,3,-15,-49,-1,-1,-9,-4
1523182984912017,-19,9,2,16,-3,8,6,-20
1523182984914026,16,-8,-11,-6,3,1,-4,28
1523182984914026,21,18,-5,7,8,3,3,18
1523182984935079,10,-38,-1,11,1,-2,-5,-5
1523182984935079,2,27,-1,10,-7,-5,-5,6
1523182984936083,-6,0,-8,-23,-19,-13,-4,5
1523182984936083,-12,5,6,6,23,10,3,-29
1523182984948150,-3,31,-5,6,-1,10,-1,20
1523182984948150,-8,-43,6,11,0,0,-5,-3
1523182984957367,33,-13,8,1,-7,-3,-6,6
1523182984957367,-42,17,0,4,3,-17,-4,-21
1523182984972219,-28,14,2,-6,-6,3,8,-13
1523182984972219,10,7,-5,-8,6,6,4,10
1523182984974220,-13,22,0,15,0,-4,-1,-17
1523182984974220,10,-52,-1,-6,-8,-6,-2,43
1523182984994237,-21,-13,-13,-3,-14,-7,-5,-19
1523182984994237,-1,-4,-2,15,-7,-7,0,-15
1523182984996242,-21,-17,0,-45,-4,8,-4,10
1523182984996242,15,3,-3,12,0,-5,-5,-34
1523182985008671,-15,11,9,-12,2,-3,4,14
1523182985008671,-2,34,-3,-5,2,3,2,4
1523182985017297,-11,-28,-15,8,-4,4,1,17
1523182985017297,-2,-29,-3,-2,-2,-1,-2,-6
1523182985032339,-10,7,14,-2,1,-5,-5,-29
1523182985032339,-3,3,9,6,-3,-8,8,2
1523182985034343,32,17,12,5,12,10,-8,2
1523182985034343,-11,7,-13,8,-4,3,3,28
1523182985055489,-2,3,7,-15,-2,-6,6,-25
1523182985055489,29,25,-2,3,-3,0,-15,-19
1523182985056403,-19,-31,-34,-24,-3,-5,0,4
1523182985056403,8,-30,3,-3,-5,-10,-3,18
1523182985068434,-8,1,-29,6,-19,-18,-5,-1
1523182985068434,12,12,18,15,25,37,11,-11
1523182985077460,-9,42,5,-30,0,1,5,15
1523182985077460,6,-18,4,7,-1,-2,-6,-13
1523182985092497,2,-16,-6,-26,-1,-1,-1,12
1523182985092497,-15,6,-1,21,-5,-15,-4,6
1523182985093501,12,17,0,1,-8,-7,9,-1
1523182985093501,-12,28,-4,-25,-9,10,-8,-6
1523182985114558,5,-50,4,34,6,6,-1,-8
1523182985114558,4,-14,-34,-33,-8,-9,-6,66
1523182985116562,9,-12,11,12,9,-3,-3,-21
1523182985116562,-16,32,5,-7,-12,-6,-3,-2
1523182985128594,4,6,12,10,5,13,15,31
1523182985128594,12,-23,-4,-3,-2,-5,-5,-2
1523182985143636,-8,7,-3,20,-1,-3,3,-35
1523182985143636,14,13,7,4,-3,6,22,75
1523182985153095,9,-3,-6,-2,2,3,-22,-20
1523182985153095,6,-2,-18,-12,1,-4,3,24
1523182985153661,-8,9,16,20,4,2,6,23
1523182985153661,18,14,-4,3,-8,-10,3,-26
1523182985174756,15,6,4,5,6,12,2,-7
1523182985174756,-8,-6,-28,-16,-4,-10,-2,6
1523182985176723,-19,-15,26,22,7,12,3,-44
1523182985176723,-8,-1,-1,-5,1,0,-8,-12
1523182985196778,-8,-26,-24,-9,-4,-18,-6,16
1523182985196778,9,12,25,2,-12,-4,-1,-6
1523182985198780,-49,-23,-8,-2,8,15,-5,-5
1523182985198780,9,8,-3,-6,-2,-6,4,-18
1523182985211820,-10,23,12,-2,9,14,-10,-16
1523182985211820,-25,15,12,24,-7,-5,1,-10
1523182985218833,1,-5,-24,5,3,-8,-5,14
1523182985218833,3,-23,-23,-19,-6,-8,-5,4
1523182985234877,-18,10,12,21,-12,-3,-7,-38
1523182985234877,-21,-8,-2,-15,3,3,3,4
1523182985235879,25,26,12,-1,-7,-7,-8,-7
1523182985235879,9,15,-3,4,2,-3,-2,-4
1523182985257330,-5,-10,-6,-4,0,-3,10,7
1523182985257330,-6,-40,5,-2,5,4,6,17
1523182985258942,7,-6,-4,-10,-9,1,5,6
1523182985258942,-5,0,-11,-2,9,6,-2,4
1523182985272013,-8,16,20,-1,-8,-7,0,-7
1523182985272013,4,-4,18,-6,-2,-1,-2,-34
1523182985273980,21,-4,-3,9,1,-10,-3,26
1523182985273980,-10,28,11,-9,-8,-5,-7,-6
1523182985295038,-5,-72,-16,-4,13,2,7,12
1523182985295038,-13,-1,-31,-3,-10,1,0,-16
1523182985296038,-17,1,-3,-13,-6,-1,-1,-6
1523182985296038,22,-15,3,7,3,-1,0,-3
1523182985317095,8,42,3,-5,-8,-10,-7,-5
1523182985317095,4,-5,25,1,2,-4,-2,-1
1523182985319101,-22,-34,-4,0,5,2,2,-3
1523182985319101,37,-19,1,-6,-6,2,2,-20
1523182985331132,31,-3,-6,24,4,-5,-1,-80
1523182985331132,-71,13,10,-32,5,3,1,83
1523182985339201,25,1,-15,-8,-7,-2,-2,4
1523182985339201,-19,-7,5,7,2,-7,14,-32
1523182985355618,-35,4,8,8,3,12,0,47
1523182985355618,25,30,-14,-9,-4,-6,-7,-46
1523182985357202,-3,-4,12,2,2,-1,-5,-2
1523182985357202,-23,-26,-14,-10,-6,-3,0,0
1523182985377256,-16,23,-2,1,2,2,5,-2
1523182985377256,29,-26,-2,1,-1,4,0,-1
1523182985379261,-6,19,3,11,-21,-14,-2,19
1523182985379261,-3,-12,-11,-15,25,20,-2,-3
1523182985391659,6,21,0,1,-10,-6,1,15
1523182985391659,-3,-11,7,6,4,4,-2,-6
1523182985398351,23,-14,-17,1,-14,-7,2,-14
1523182985398351,-11,-33,24,5,2,-3,-3,-5
1523182985422417,1,5,-9,-13,-4,-7,-2,22
1523182985422417,-1,12,-15,4,1,-1,-1,-8
1523182985423419,-33,-6,-7,-7,9,2,0,28
1523182985423419,-17,24,1,2,-6,-1,-4,9
1523182985437417,26,-23,-1,-4,7,3,-1,12
1523182985437417,-5,12,-2,9,-6,-5,-2,-33
1523182985439419,-8,17,5,-1,5,5,0,-25
1523182985439419,5,-35,-6,1,-5,-2,-23,42
1523182985451915,-11,-7,-3,-3,-2,-3,-8,-14
1523182985451915,6,5,-6,-6,-2,-3,0,-7
1523182985458470,8,20,8,4,-7,-4,-5,-15
1523182985458470,-14,55,1,13,10,5,8,-4
1523182985474934,20,-84,-10,-6,-4,-2,2,-8
1523182985474934,2,-26,-13,9,-15,-5,-4,9
1523182985476518,3,11,6,-23,-4,1,2,5
1523182985476518,-7,7,3,0,1,-8,-1,1
1523182985497614,-17,18,5,-4,-1,8,7,1
1523182985497614,-2,3,-6,7,8,3,2,-28
1523182985498576,18,-8,-1,2,10,-1,-6,-8
1523182985498576,6,2,0,17,-19,-1,2,-10
1523182985510650,-39,39,4,-36,-7,-6,-6,-20
1523182985510650,15,-34,-3,-5,2,-1,-4,-20
1523182985519632,24,12,-2,0,2,-3,4,-3
1523182985519632,-19,9,-8,-15,-3,-12,-6,11
1523182985534710,6,-7,-1,23,8,13,5,9
1523182985534710,-13,15,-7,-3,0,5,3,-1
1523182985536679,-3,-21,-2,-1,1,-1,0,-2
1523182985536679,14,11,-3,-10,-12,-6,-2,-10
1523182985558145,23,14,6,1,3,-2,5,-6
1523182985558145,-6,17,6,-3,-3,-5,-14,19
1523182985558739,7,-20,-9,9,3,-6,-1,12
1523182985558739,6,-5,8,-2,-12,1,9,15
1523182985572173,-8,23,10,9,8,7,-2,-8
1523182985572173,-11,14,-3,-18,-8,-4,7,-23
1523182985578797,-7,3,-10,5,0,-1,-12,3
1523182985578797,10,-42,-5,-24,-5,-6,-9,-25
1523182985594834,-15,-10,15,20,1,-4,7,30
1523182985594834,0,6,7,14,6,5,9,-48
1523182985596839,8,-10,-11,-13,-2,-3,2,66
1523182985596839,45,32,-4,2,-14,-3,-3,4
1523182985616892,-1,7,-12,-17,10,-2,1,0
1523182985616892,-5,-28,7,11,2,0,-11,-2
1523182985622909,-18,-44,-9,-8,-5,8,2,-41
1523182985622909,4,0,-7,9,18,14,5,-4
1523182985631972,-10,7,15,-7,-7,-8,-13,13
1523182985631972,2,-1,0,-2,-4,-12,1,33
1523182985637949,5,20,6,5,10,7,0,-27
1523182985637949,-15,-15,-12,-32,-4,8,11,32
1523182985655288,-11,7,13,4,-10,-10,-5,-10
1523182985655288,9,-14,-16,-10,-5,-2,9,34
1523182985657239,-35,-3,5,17,2,0,3,-24
1523182985657239,-10,23,21,19,12,0,-6,1
1523182985677094,12,13,-13,-14,-6,0,8,14
1523182985677094,-6,-33,-19,1,-4,-6,-16,11
1523182985679057,-1,6,0,-3,0,-5,3,14
1523182985679057,-15,-2,-2,-4,8,2,-4,-4
1523182985691520,2,-9,10,-2,-8,-4,-2,-12
1523182985691520,11,18,6,16,4,1,0,-7
1523182985700112,-6,-16,3,-2,-19,-9,-3,23
1523182985700112,12,5,-4,9,26,8,1,-5
1523182985715154,-6,1,-4,-5,-1,2,0,-10
1523182985715154,-4,11,11,-6,6,2,-3,1
1523182985716155,2,-13,9,0,3,6,-2,-12
1523182985716155,-8,-11,-1,-4,-25,-11,-3,-3
1523182985737212,6,4,-14,1,-2,-3,-4,-18
1523182985737212,-24,-3,-3,22,15,-1,-4,-37
1523182985739248,1,28,5,-57,-6,0,-3,6
1523182985739248,0,-23,-1,36,-6,-6,-2,-3
1523182985751691,-16,-5,-12,-36,-1,1,4,27
1523182985751691,2,7,-7,-10,-13,-6,-4,-3
1523182985760278,5,10,0,15,14,2,0,-18
1523182985760278,-11,13,5,8,-9,2,16,-24
1523182985774311,18,-29,-11,2,4,0,-14,17
1523182985774311,-8,9,18,8,1,5,-12,1
1523182985776320,7,-28,-6,11,0,-6,-12,0
1523182985776320,27,3,-3,-18,-4,-5,-12,2
1523182985797372,6,-10,-3,11,-16,-8,-2,0
1523182985797372,5,32,1,-11,19,4,8,8
1523182985799376,-10,-29,10,11,-5,4,0,-25
1523182985799376,-21,29,-12,-12,-2,-8,-3,33
1523182985811409,12,-28,-17,14,-1,-6,-3,-6
1523182985811409,-24,-17,-2,-14,-13,-1,2,1
1523182985819431,39,13,-4,1,8,3,1,-23
1523182985819431,-5,-4,5,1,9,15,3,-7
1523182985834471,-4,26,-2,0,-2,0,4,4
1523182985834471,-6,-38,-13,3,-18,-7,5,19
1523182985836476,-31,19,-1,-15,-5,-6,12,-22
1523182985836476,12,-16,-1,4,0,-6,-16,-8
1523182985857914,-1,-12,6,-4,13,2,-2,5
1523182985857914,0,3,6,2,-13,1,20,10
1523182985858536,4,10,2,-2,1,7,-4,-9
1523182985858536,-15,-1,12,-5,-5,-2,5,-7
1523182985870566,-4,14,7,6,4,2,2,-11
1523182985870566,4,-8,0,-2,1,-9,-4,-19
1523182985879591,-5,-1,-11,1,-7,-7,-4,31
1523182985879591,-9,4,-9,-2,-20,-9,5,23
1523182985894629,12,3,0,0,15,6,-13,-1
1523182985894629,1,-13,2,-15,3,4,-17,-45
1523182985896635,-15,-16,-10,4,-6,-6,1,35
1523182985896635,20,-17,5,1,1,-2,4,17
1523182985917692,-12,-25,-4,-4,-15,-6,5,27
1523182985917692,7,19,7,4,-1,1,-3,-19
1523182985918694,0,7,-5,6,6,-2,-4,-14
1523182985918694,-9,-8,-7,-8,-5,1,-5,-29
1523182985930725,-3,9,6,17,1,3,6,-7
1523182985930725,7,20,4,2,8,5,0,11
1523182985939749,16,11,-1,-13,-2,-5,6,-18
1523182985939749,-10,1,-4,14,8,-1,-9,-2
1523182985955205,6,41,13,3,-6,4,3,-14
1523182985955205,7,-64,-5,-13,0,8,8,26
1523182985956795,-12,-8,-4,17,-2,-2,-3,-1
1523182985956795,1,6,-6,5,7,-4,-9,-14
1523182985977895,5,-10,2,16,-8,-9,-8,-6
1523182985977895,-6,18,-2,-16,0,4,-1,-11
1523182985978854,-14,13,7,-5,-2,6,0,19
1523182985978854,7,6,1,-17,0,-3,5,8
1523182985991271,-32,-14,22,21,5,4,5,-1
1523182985991271,-4,-10,-7,-3,-4,-8,-12,19
1523182985999910,2,6,-1,-2,-4,1,-1,-7
1523182985999910,-6,-3,-5,8,1,4,-9,-9
1523182986014970,-19,-3,-6,-8,5,1,5,-2
1523182986014970,54,5,-7,9,-3,-2,3,-2
1523182986015952,3,8,-2,-11,-12,-6,-22,0
1523182986015952,-8,-2,9,7,9,-4,0,0
1523182986038076,1,-9,-31,10,1,11,0,-19
1523182986038076,-6,-22,15,-26,4,7,-1,57
1523182986039014,31,3,5,13,-9,-10,0,14
1523182986039014,-17,6,6,2,0,8,8,-14
1523182986051432,-10,19,-1,-16,-4,-7,-11,-31
1523182986051432,30,5,-20,-2,-4,-4,2,23
1523182986060075,9,-5,2,3,-2,-1,5,31
1523182986060075,-15,-12,6,15,-2,-6,2,-8
1523182986075110,38,39,5,-49,5,-5,-9,19
1523182986075110,-27,21,9,17,1,2,6,-18
1523182986076115,-22,-85,-13,-15,-8,-5,-12,1
1523182986076115,-2,-22,-27,-2,11,-1,-3,-10
1523182986097169,8,9,2,-8,-21,8,10,-17
1523182986097169,6,39,10,7,0,-2,-15,12
1523182986099175,-18,37,-4,-11,7,3,2,-3
1523182986099175,-5,-46,-10,-2,-7,-3,5,-31
1523182986120229,5,-27,-7,-10,-1,-9,-9,15
1523182986120229,-5,0,-3,0,0,-9,4,-13
1523182986121232,-6,22,15,13,13,26,12,-22
1523182986121232,9,-2,-9,2,-8,-5,1,42
1523182986134268,-7,-7,-11,-9,1,2,-1,-44
1523182986134268,-21,-22,1,2,-7,-11,3,1
1523182986136273,2,27,8,-12,-10,-8,-1,2
1523182986136273,7,22,-37,-2,0,5,-9,-7
1523182986157817,-8,1,25,7,2,-6,-2,20
1523182986157817,28,-37,-11,-4,-1,6,7,-6
1523182986159335,20,-20,-4,-1,-6,-8,-4,-17
1523182986159335,0,-17,3,-17,-4,-5,2,-1
1523182986179386,-3,-9,-17,9,-2,-2,7,3
1523182986179386,-10,3,-8,-3,2,2,-2,-18
1523182986181392,-3,11,16,2,-1,-4,-4,11
1523182986181392,-3,1,10,-1,-5,0,0,-2
1523182986194430,2,11,-8,-7,4,1,-8,-9
1523182986194430,-11,22,5,31,3,0,19,16
1523182986196433,17,-23,-25,-26,-1,0,-8,-10
1523182986196433,-20,-13,3,24,-5,-1,8,18
1523182986217487,22,-20,-10,-30,-5,-1,-4,-26
1523182986217487,-6,15,-1,5,-6,-4,-5,-37
1523182986218490,-1,14,1,-14,9,8,3,12
1523182986218490,11,10,16,14,-1,-6,-6,-18
1523182986240552,2,15,-5,24,3,9,-2,53
1523182986240552,-3,-26,2,-22,8,8,-1,-6
1523182986241553,-9,-12,1,6,-6,-8,-2,-8
1523182986241553,10,43,6,-25,-5,-1,-5,-11
1523182986255004,-14,-48,-6,5,-6,-11,2,2
1523182986255004,-7,7,-3,1,5,3,-3,7
1523182986260607,-11,7,-5,21,-6,0,1,-17
1523182986260607,3,2,4,-29,1,0,-9,4
1523182986277655,5,20,7,10,4,-3,2,14
1523182986277655,-48,5,-7,-26,-11,-5,-5,-6
1523182986278651,54,-9,11,20,0,7,8,-40
1523182986278651,16,13,-5,0,3,-1,-7,16
1523182986299707,-12,-25,7,19,-7,-9,-1,-14
1523182986299707,7,1,-6,-17,6,7,-5,11
1523182986301714,-29,-10,-12,-4,3,5,14,2
1523182986301714,1,-2,6,-6,0,0,1,2
1523182986313744,3,-10,4,2,-1,-1,-4,13
1523182986313744,6,35,-22,5,-7,-13,-9,-17
1523182986321163,-11,3,10,-4,-5,-10,2,-23
1523182986321163,31,-1,1,1,8,10,1,21
1523182986338308,-25,-25,-26,-14,-7,-4,0,23
1523182986338308,7,18,8,3,0,1,-1,-17
1523182986338812,-19,-1,-10,-11,2,-5,-8,11
1523182986338812,1,-47,44,17,6,-1,-4,10
1523182986359872,33,20,1,21,5,2,2,-15
1523182986359872,-2,3,-3,-35,-10,-2,-8,6
1523182986360869,-15,15,-1,-13,2,2,5,38
1523182986360869,2,-9,-11,0,-2,-4,8,-12
1523182986373942,-8,-15,1,13,-9,-8,-1,24
1523182986373942,45,-20,2,11,8,8,-1,6
1523182986380923,-17,22,5,5,7,-2,-2,4
1523182986380923,-11,21,-5,-8,-6,-6,-3,-7
1523182986396966,-3,8,5,-9,-2,0,4,-24
1523182986396966,7,-2,3,9,9,5,8,8
1523182986398971,9,-9,-11,-8,-13,7,-1,35
1523182986398971,-7,12,-6,-3,-4,-4,7,5
1523182986420026,8,54,3,-3,-1,7,4,-6
1523182986420026,-7,-68,-4,-1,-8,-14,-14,-25
1523182986421029,-2,-14,-12,-15,2,-6,-8,18
1523182986421029,-12,-3,-8,2,-7,-2,-2,1
1523182986434105,-6,5,6,-3,10,0,3,-5
1523182986434105,-3,4,1,9,-5,-2,1,-2
1523182986441081,-9,15,9,13,6,0,-6,-52
1523182986441081,-29,-3,-18,-14,-8,0,7,83
1523182986457125,13,-13,11,10,5,0,-8,-11
1523182986457125,-26,12,-22,-41,-9,-6,-2,-12
1523182986459131,16,-1,20,9,-7,-6,-7,3
1523182986459131,-23,-14,-7,-1,3,-1,-5,-56
1523182986480191,16,-16,-7,-6,-4,-2,-2,18
1523182986480191,1,21,5,12,-5,-6,1,16
1523182986481188,-12,-26,-17,5,10,5,4,-1
1523182986481188,9,18,18,-5,-2,1,-4,-42
1523182986494224,9,-6,-16,-8,-11,-4,3,59
1523182986494224,5,-25,8,-3,-6,-5,-14,2
1523182986501243,2,27,4,-3,-12,-9,-2,-7
1523182986501243,12,30,18,9,14,6,2,24
1523182986517284,-20,-37,-6,-8,7,0,-2,-30
1523182986517284,-10,11,-3,13,-6,-1,5,4
1523182986519314,1,-2,1,5,-4,-1,-7,4
1523182986519314,-50,5,-19,-9,-4,-5,1,-21
1523182986540535,73,27,16,-7,0,-5,-2,-15
1523182986540535,-15,-29,4,12,9,11,5,-35
1523182986541350,-8,-19,-20,3,0,-2,9,31
1523182986541350,4,-16,-5,-6,-11,-7,-5,-23
1523182986554768,-25,15,2,-7,-1,4,4,-18
1523182986554768,8,11,12,6,5,0,-4,4
1523182986561403,10,-1,-1,-3,0,-2,0,-7
1523182986561403,4,2,-1,4,3,2,2,-8
1523182986577449,-23,-4,-1,-5,-2,-1,8,-49
1523182986577449,-5,26,14,22,6,3,21,77
1523182986578449,-14,-12,1,-20,-2,-4,-6,0
1523182986578449,11,-57,-12,-22,-14,-14,-17,5
1523182986599508,-16,-1,-11,-5,-4,8,-2,-3
1523182986599508,2,4,-8,5,5,7,-1,-21
1523182986601508,2,1,21,14,1,-2,-2,-3
1523182986601508,2,19,7,6,0,0,5,-1
1523182986613541,-8,-20,7,0,-5,-11,-12,-12
1523182986613541,17,24,4,1,7,-5,-3,-21
1523182986622566,-9,11,0,-12,-18,-3,0,13
1523182986622566,18,-18,-13,-1,7,-3,-9,-2
1523182986637604,-17,4,3,21,-9,-3,1,21
1523182986637604,1,-20,-4,-25,4,8,1,-20
1523182986638609,-2,1,2,-1,8,2,0,-17
1523182986638609,-4,-2,3,4,-2,0,2,1
1523182986660666,0,12,-1,-2,5,0,-6,1
1523182986660666,-10,-1,-7,0,-8,-11,13,1
1523182986661668,-74,-12,-3,25,7,0,-14,16
1523182986661668,-4,-6,2,-29,-10,5,1,-30
1523182986673733,-7,9,-14,-3,10,0,2,-1
1523182986673733,7,-8,-7,-2,-6,-10,-3,22
1523182986682726,5,33,10,2,0,21,9,-2
1523182986682726,5,-4,-30,3,-2,-3,-4,14
1523182986696761,-13,-24,9,-6,-1,-3,-6,-23
1523182986696761,-4,27,-19,-6,-9,-4,-4,5
1523182986698767,22,21,-1,2,5,-8,1,0
1523182986698767,-1,-42,6,15,2,6,6,8
1523182986720305,8,18,-1,-24,-4,2,-5,6
1523182986720305,-7,3,-16,4,0,-4,-16,-11
1523182986721830,1,-14,-14,-8,-9,-8,5,25
1523182986721830,19,14,-5,1,-4,-5,-1,2
1523182986732858,1,-25,-4,8,-1,-11,-4,5
1523182986732858,1,-2,3,-1,3,20,10,7
1523182986742891,-7,-9,-4,-3,-4,1,-10,-55
1523182986742891,-6,19,8,12,15,3,-7,-28
1523182986757324,0,1,-2,-14,-8,0,16,19
1523182986757324,-15,0,15,17,-3,-5,-10,18
1523182986758927,41,-7,-30,-36,-4,-9,-11,-12
1523182986758927,-8,-22,4,-8,-2,-3,-1,11
1523182986779984,-7,6,0,8,4,8,0,-10
1523182986779984,-7,-22,2,0,-3,-3,8,13
1523182986780986,7,24,28,15,0,-1,7,9
1523182986780986,-19,-43,-38,-1,4,-2,-5,-15
1523182986793021,31,-27,-10,-5,1,0,1,18
1523182986793021,0,16,-5,2,-6,-7,-5,-7
1523182986802480,12,24,8,19,5,5,6,22
1523182986802480,2,6,0,-24,-4,2,0,-26
1523182986817081,-15,9,7,16,2,4,-3,-31
1523182986817081,-16,-21,-29,-16,-3,-7,-4,11
1523182986819087,-3,-33,-5,5,-10,-12,5,-28
1523182986819087,12,39,25,22,9,5,-1,14
1523182986840630,-20,4,-6,-18,-16,12,10,17
1523182986840630,16,6,18,13,1,3,3,8
1523182986841147,-21,-25,-9,-8,6,2,-4,-85
1523182986841147,1,18,-4,-4,-12,-10,13,102
1523182986853573,-3,-17,-5,8,6,-6,-10,5
1523182986853573,11,34,9,-10,0,4,-4,-22
1523182986862202,-8,-74,-8,-12,-7,-1,-3,5
1523182986862202,6,-11,-5,1,-4,-1,-4,-29
1523182986877249,6,43,10,4,1,-9,-6,5
1523182986877249,-5,-40,1,-4,-4,-6,-2,-6
1523182986879247,6,27,5,18,9,7,8,16
1523182986879247,9,5,3,-10,-4,0,-7,21
1523182986899302,-11,-2,-9,-12,-3,-2,-2,0
1523182986899302,13,-5,47,1,4,3,0,-6
1523182986901305,8,7,-12,5,-5,-6,-4,17
1523182986901305,-25,-4,4,13,5,0,10,-9
1523182986913339,36,17,5,0,3,6,-5,-17
1523182986913339,-2,26,-7,5,-7,-8,-5,-31
1523182986922362,-13,-32,-16,-12,-4,-7,-9,21
1523182986922362,6,13,5,-7,-8,4,12,3
1523182986937803,-17,-14,8,3,6,4,-15,-1
1523182986937803,-33,39,10,9,7,2,4,41
1523182986939667,7,-37,1,0,-3,-3,4,13
1523182986939667,2,-9,-11,-7,-11,-3,-6,-22
1523182986959466,-19,5,3,14,2,-3,0,-22
1523182986959466,13,-7,-2,-6,-2,-3,-2,-2
1523182986961466,-6,-1,-7,-9,2,-5,-1,6
1523182986961466,-5,-5,-5,-1,-6,1,-5,-4
1523182986973496,-4,-17,-8,7,-2,-2,-2,-8
1523182986973496,-8,-15,-11,-3,0,-4,2,23
1523182986982521,42,44,4,-5,11,8,1,3
1523182986982521,-1,0,6,12,-1,-1,1,-6
1523182986997562,-3,-15,-3,-21,1,-3,3,23
1523182986997562,4,9,-12,-7,-12,1,2,-47
1523182986998564,14,-22,-11,-6,-7,-4,-6,41
1523182986998564,-10,-31,17,14,10,1,-2,-7
1523182987021132,-4,2,1,-5,-9,-5,-8,-29
1523182987021132,-4,-20,-16,-2,-4,-6,-6,-1
1523182987025641,-21,29,15,0,3,-4,-9,29
1523182987025641,23,33,6,10,10,8,-2,-11
1523182987033656,-5,-14,-6,19,2,-10,8,-36
1523182987033656,3,6,-1,-40,-12,0,11,40
1523182987042686,3,-65,1,0,0,17,7,-16
1523182987042686,-3,57,-1,-12,-1,-3,-3,25
1523182987057723,-31,-82,-17,2,-3,-5,-2,13
1523182987057723,20,-8,-1,12,2,-7,-17,-30
1523182987058725,0,31,4,1,-3,-9,8,31
1523182987058725,22,21,14,-8,-3,6,5,-2
1523182987078778,3,7,-7,5,1,2,4,9
1523182987078778,-15,-12,-8,-5,-4,-5,-6,-30
1523182987087803,17,18,7,-1,1,-1,-2,-7
1523182987087803,-19,-6,1,17,5,-6,-4,-16
1523182987103134,14,21,-17,-16,-9,4,-9,-13
1523182987103134,10,-33,4,2,3,9,2,28
1523182987103845,-15,52,2,2,-2,-3,-7,-36
1523182987103845,4,-6,-10,-6,-5,-7,-4,-19
1523182987116879,13,49,11,-2,4,1,-1,7
1523182987116879,-12,-31,-7,2,1,2,8,21
1523182987118885,-3,14,-16,13,0,-10,-4,-28
1523182987118885,-9,-30,13,-23,-4,11,-11,0
1523182987139940,-5,20,5,-3,5,-2,3,33
1523182987139940,12,20,9,24,-6,-1,-4,-20
1523182987140950,-9,-15,-9,-33,5,2,-3,-35
1523182987140950,-28,-21,-16,-6,-14,-17,-9,45
1523182987161999,6,11,13,-3,1,4,-2,9
1523182987161999,-7,5,-23,2,-8,-6,-7,-31
1523182987164004,9,19,6,-2,-6,-4,-8,-16
1523182987164004,-6,-21,-8,5,3,3,2,-27
1523182987177095,2,-19,4,-4,-3,-2,-1,-18
1523182987177095,-3,1,-13,-9,2,-1,-5,17
1523182987179043,2,7,-2,23,-2,3,3,5
1523182987179043,-4,21,-3,-22,0,-1,6,-46
1523182987200100,12,-12,2,5,-4,-9,-13,32
1523182987200100,14,-7,3,-10,5,9,6,-14
1523182987201102,3,-3,-7,1,-3,-1,5,20
1523182987201102,1,2,5,21,-1,1,-2,1
1523182987222200,-4,-10,-5,-28,2,-1,4,-1
1523182987222200,-2,13,10,2,-14,-10,-7,-13
1523182987224165,-5,4,10,2,3,0,3,4
1523182987224165,23,10,-5,14,-2,-3,-2,12
1523182987236197,-3,-21,-22,-10,5,6,5,-23
1523182987236197,1,-13,3,19,8,11,9,28
1523182987243217,-14,-15,-1,7,-1,8,-7,-42
1523182987243217,5,13,7,-19,-10,-14,2,37
1523182987260259,-11,34,12,20,16,7,6,0
1523182987260259,-2,-1,8,-14,-2,-14,-4,-33
1523182987261271,-2,-21,-17,-7,-18,-4,7,33
1523182987261271,13,-14,-4,6,22,6,4,5
1523182987282357,-1,10,6,-2,-7,4,-3,2
1523182987282357,1,7,-3,4,2,-3,-2,18
1523182987284324,-13,-6,7,-17,-9,-8,-6,-4
1523182987284324,-13,2,-12,18,0,-2,1,-8
1523182987296395,1,12,-5,-13,-7,-3,4,26
1523182987296395,-22,-8,9,-27,7,5,-1,-19
1523182987303840,-20,-30,0,-1,-4,-5,3,-14
1523182987303840,-5,4,2,8,-5,2,-2,-6
1523182987320520,6,-11,18,12,2,0,0,-6
1523182987320520,-9,16,-14,-7,-1,-6,-8,6
1523182987321433,-3,14,17,-10,-1,3,18,23
1523182987321433,5,-24,-20,-9,-6,0,-6,-32
1523182987341475,-5,6,1,19,-3,-1,-5,-6
1523182987341475,-16,0,6,4,5,1,-14,20
1523182987349499,42,15,-1,-4,4,1,1,6
1523182987349499,-56,-20,12,6,0,-2,-2,-22
1523182987356897,0,18,-9,3,-1,-2,-5,10
1523182987356897,0,-44,-11,17,-9,-8,8,6
1523182987363575,17,13,-4,-10,2,5,-7,-12
1523182987363575,20,3,10,-3,0,6,-1,-8
1523182987379614,-30,28,4,-3,0,0,-2,-9
1523182987379614,13,-41,-15,8,-1,0,2,-7
1523182987381583,5,5,6,8,-3,-7,-4,25
1523182987381583,10,-12,-7,-4,2,-2,1,6
1523182987403038,-12,15,3,-5,-6,-6,-8,-30
1523182987403038,42,46,5,-2,-1,9,9,-3
1523182987404702,-21,-27,-3,3,11,-2,-12,-19
1523182987404702,14,-34,-36,-13,2,-3,-1,-6
1523182987416675,13,-23,17,8,-9,-6,-2,12
1523182987416675,-15,4,-3,-14,-4,-1,-1,-46
1523182987423694,19,12,-5,8,-4,-1,2,87
1523182987423694,-6,19,4,-2,-2,-2,-2,37
1523182987439776,3,-16,-8,2,2,3,6,-8
1523182987439776,3,35,12,-3,7,1,-8,-43
1523182987441741,-35,6,5,2,-7,2,4,2
1523182987441741,33,-31,-11,9,-13,-13,-3,5
1523182987461795,-10,-49,-15,-41,-4,-1,7,10
1523182987461795,-5,21,20,13,10,11,-12,-10
1523182987463801,7,-8,-9,4,3,-1,-5,8
1523182987463801,-39,-2,0,12,0,-2,2,-2
1523182987476835,-2,8,4,-8,-3,-2,-1,-25
1523182987476835,0,-3,9,9,7,-1,3,20
1523182987483854,11,3,-7,-3,-1,0,5,-18
1523182987483854,14,14,10,-13,-5,-3,-6,3
1523182987499901,10,-17,-5,3,0,-5,1,11
1523182987499901,-10,5,-13,-5,-7,-3,2,27
1523182987500902,-7,15,14,-5,3,0,-1,-26
1523182987500902,12,14,6,-10,-5,1,0,3
1523182987521997,-12,-48,-38,-5,-16,-5,1,14
1523182987521997,-4,-30,-16,-1,6,-7,-4,10
1523182987523960,-5,17,-11,8,-2,1,-3,-31
1523182987523960,-5,61,17,-22,3,-12,-16,-5
1523182987537371,0,-68,-24,-26,-6,3,14,-30
1523182987537371,11,6,8,4,6,15,-1,14
1523182987543011,-5,-13,0,-1,-13,-10,-3,-5
1523182987543011,-4,3,10,15,20,10,4,-32
1523182987559060,8,47,9,5,-13,-1,-5,18
1523182987559060,-8,-5,-4,3,2,-6,5,-15
1523182987567076,-5,-7,-5,-19,-4,-5,-7,-9
1523182987567076,11,2,-8,1,-1,10,6,2
1523182987582154,16,8,0,9,5,-9,-13,-24
1523182987582154,2,-13,-13,-14,-11,-1,7,41
1523182987584121,-6,11,11,16,5,0,-4,-6
1523182987584121,4,-7,-1,-12,-8,-2,9,1
1523182987596153,13,41,15,22,8,6,5,21
1523182987596153,-29,-20,-4,-2,-5,-4,-5,-5
1523182987605178,-4,27,-13,-7,-1,0,2,-6
1523182987605178,-27,-78,-15,-11,-14,-5,-3,2
1523182987620535,2,5,7,5,3,-1,-6,-16
1523182987620535,-5,13,10,-5,-6,0,5,7
1523182987621223,-2,-15,2,5,4,0,-2,-8
1523182987621223,13,30,0,11,3,2,17,9
1523182987642275,-18,30,0,-4,-4,-1,-7,15
1523182987642275,17,-30,-4,5,0,-5,0,-24
1523182987644283,1,-24,-9,-4,-3,-1,-7,17
1523182987644283,-7,8,17,1,-12,-4,-1,-13
1523182987656598,-3,22,12,10,26,9,5,14
1523182987656598,4,-29,-13,-10,-11,-12,2,-34
1523182987665336,2,-8,-21,-48,-2,0,-11,15
1523182987665336,3,13,-8,1,0,2,-3,18
1523182987679373,-3,-19,8,6,-3,-2,0,0
1523182987679373,-6,-17,25,22,5,3,-9,-16
1523182987681379,-7,-11,-2,-12,6,4,17,5
1523182987681379,-17,-11,-12,-8,-3,-2,-9,8
1523182987702880,-9,27,9,-7,1,0,-6,-22
1523182987702880,2,11,-9,-1,-1,-5,0,1
1523182987703440,0,-17,1,21,1,-4,-2,-3
1523182987703440,-19,10,0,-33,-5,2,-9,-12
1523182987715470,69,0,-6,3,-6,-6,4,-37
1523182987715470,17,30,7,-3,2,3,-12,60
1523182987724499,-2,-32,4,18,-3,-1,-1,-9
1523182987724499,4,-4,-5,-2,3,-1,5,-9
1523182987739863,-34,-2,-1,-12,-1,4,-7,-13
1523182987739863,9,-8,-5,3,-6,-7,9,26
1523182987741540,8,34,0,-6,-1,-6,-5,-20
1523182987741540,-8,-23,6,31,4,2,8,-19
1523182987762595,-2,-23,-16,-52,-4,1,-4,31
1523182987762595,-8,25,2,15,1,1,2,-37
1523182987763597,3,32,8,4,1,-2,3,27
1523182987763597,-2,-7,1,15,3,-5,-4,-6
1523182987775630,-11,-22,5,23,10,9,12,-66
1523182987775630,6,10,-9,-41,-4,-3,-5,59
1523182987784653,-11,-19,-7,0,-9,-5,0,11
1523182987784653,15,15,2,-4,1,1,-6,9
1523182987799695,6,13,17,25,1,-4,-2,4
1523182987799695,-12,15,-2,-9,1,0,-7,-39
1523182987801698,-4,-12,-9,4,-2,0,4,26
1523182987801698,21,-36,-1,6,-3,2,4,-1
1523182987822754,-18,-1,0,-16,-8,-8,-10,25
1523182987822754,-6,9,10,-7,-8,-5,-4,-41
1523182987823761,-8,-9,-6,-1,5,10,4,12
1523182987823761,-30,16,5,1,1,-1,1,-1
1523182987836188,-10,9,2,6,-6,-6,-1,9
1523182987836188,5,-28,-6,14,0,-8,-4,-16
1523182987844814,8,11,4,-14,-2,0,5,-58
1523182987844814,2,4,-10,-8,2,9,-17,28
1523182987859852,-2,3,-12,5,-3,-3,1,34
1523182987859852,-23,-41,-5,3,-5,-3,-3,3
1523182987860857,-3,-7,5,-1,1,-5,-5,-8
1523182987860857,15,12,3,9,1,-3,-3,-10
1523182987881946,-2,5,-11,-25,-9,-8,3,18
1523182987881946,-55,23,4,11,11,18,5,27
1523182987881946,67,23,-1,2,0,3,3,7
1523182987881946,-14,-21,6,3,-7,-8,-2,-19
1523182987904385,1,-9,-7,17,3,1,-5,-7
1523182987904385,0,16,-5,-26,-3,-5,1,-36
1523182987904975,-6,40,14,8,3,-3,-6,-12
1523182987904975,-24,-12,-16,-10,-9,-7,3,20
1523182987919010,-9,-34,-5,10,-3,-4,7,-4
1523182987919010,40,-12,-2,12,-5,5,-5,3
1523182987920014,-11,20,18,-8,4,4,-9,-20
1523182987920014,5,8,-18,-5,-3,-5,-1,-18
1523182987941070,-9,4,6,2,-7,-8,-5,9
1523182987941070,9,3,-5,11,8,-5,2,3
1523182987942071,-8,-9,12,11,13,9,0,-5
1523182987942071,-10,-15,4,-5,8,2,4,-28
1523182987964166,13,12,-1,-7,-4,4,-11,17
1523182987964166,-2,0,-1,-6,-16,-12,6,-2
1523182987965133,-11,-13,0,29,9,7,-3,-17
1523182987965133,14,38,-6,-16,5,4,-3,9
1523182987979170,-24,-83,-1,11,0,0,8,24
1523182987979170,19,22,18,-10,1,-7,-8,-22
1523182987980209,-16,-70,-24,-8,-7,-7,4,1
1523182987980209,35,32,13,0,-1,-3,-5,-3
1523182988002367,-18,34,-23,1,-2,-6,-2,-10
1523182988002367,-2,-21,-11,-6,0,7,0,-6
1523182988002367,-6,-11,11,6,-2,-6,7,9
1523182988002367,-3,7,3,5,0,8,3,-10
1523182988024333,24,11,-10,-10,4,-1,-2,-4
1523182988024333,2,-10,14,4,0,-3,0,-6
1523182988025294,-27,20,-3,0,1,5,5,7
1523182988025294,-19,-4,-1,-10,0,-1,6,27
1523182988039603,11,-4,1,5,-4,1,-7,-19
1523182988039603,-9,15,-24,-6,-3,-7,-3,-4
1523182988040340,24,28,11,5,0,5,-10,-51
1523182988040340,-40,-93,-5,7,1,-5,7,20
1523182988061391,6,32,13,15,10,7,10,11
1523182988061391,-9,-34,-32,-42,-6,-4,-4,-23
1523182988062392,8,-27,-19,2,-10,-5,-5,29
1523182988062392,49,31,3,7,-1,-4,3,12
1523182988084450,-14,12,8,-3,-6,1,0,0
1523182988084450,-11,-21,-6,25,16,4,-5,-10
1523182988084450,-22,-4,10,-35,-16,-6,5,33
1523182988084450,-5,26,17,-2,-1,2,-9,-20
1523182988099493,72,21,-5,-4,-7,-8,1,8
1523182988099493,-18,-56,-13,10,9,1,7,41
1523182988099493,-3,-20,8,0,-18,-7,3,-6
1523182988099493,8,28,5,20,0,6,0,13
1523182988121593,-30,-25,-4,-6,2,-2,-8,-38
1523182988121593,-1,12,-11,-12,-2,-3,0,23
1523182988122553,11,-3,-8,-3,10,-8,-13,-7
1523182988122553,-5,21,-4,-7,-18,-7,8,6
1523182988143608,-6,28,60,51,25,18,17,0
1523182988143608,6,-51,-36,-23,-12,-1,-21,3
1523182988144610,-13,-15,-11,-1,-10,-11,-21,8
1523182988144610,-2,6,10,15,11,0,2,-50
1523182988158649,-27,-4,0,-10,4,1,-13,9
1523182988158649,52,21,15,4,-14,-5,-1,-2
1523182988159649,8,38,9,6,11,8,8,15
1523182988159649,-8,-9,-18,-25,-5,-6,-12,-54
1523182988181746,18,-44,-27,-7,-12,-9,5,35
1523182988181746,-22,28,36,20,14,19,7,-10
1523182988182747,-4,-6,-29,3,-13,-9,-4,11
1523182988182747,13,-10,6,14,5,0,4,23
1523182988204838,-13,-10,-9,-58,-7,-10,-5,-19
1523182988204838,-9,101,29,27,-1,2,8,2
1523182988204838,-15,-101,-23,17,8,6,6,-4
1523182988204838,-26,6,-5,-23,-10,-3,-13,5
1523182988219297,-9,1,3,19,2,2,0,-38
1523182988219297,0,15,-3,-15,-8,-4,9,38
1523182988219811,17,39,-13,-7,3,-1,-5,-17
1523182988219811,-9,-12,3,0,-9,-16,-6,8
1523182988241870,-7,6,6,-3,-5,8,4,-36
1523182988241870,-29,-14,-20,-9,-2,10,-3,-55
1523182988241870,20,7,-1,11,5,1,-9,60
1523182988241870,-3,-37,-25,-44,-2,-6,1,2
1523182988263927,0,-14,-7,3,-8,-19,-13,2
1523182988263927,2,29,3,-25,-11,-3,4,11
1523182988264930,8,1,18,0,4,7,2,-37
1523182988264930,12,1,18,27,2,5,11,9
1523182988278968,1,-17,-16,-3,10,3,-8,22
1523182988278968,-29,-8,2,2,1,-4,-6,-42
1523182988279971,30,-1,0,-4,0,-1,-3,43
1523182988279971,2,32,0,-2,-5,-1,3,8
1523182988302428,-12,-64,-18,-7,-5,-3,-5,-16
1523182988302428,2,6,24,8,7,8,8,-8
1523182988302428,21,47,6,-9,-2,4,7,1
1523182988302428,-26,-28,-8,6,5,6,1,-5
1523182988324090,0,6,37,33,2,-4,-18,6
1523182988324090,4,-1,-13,-45,-4,-8,-9,-36
1523182988325090,-12,2,5,11,-6,-6,2,-23
1523182988325090,-6,4,3,2,3,-1,-6,-10
1523182988340132,3,7,-14,-1,-1,7,4,17
1523182988340132,27,26,3,30,0,-3,15,44
1523182988341133,-33,-25,2,-50,-3,4,-3,-34
1523182988341133,-13,-15,-3,20,3,0,3,5
1523182988361193,-2,53,-5,-9,-6,-1,4,-6
1523182988361193,-1,-64,-4,2,-12,-10,-4,16
1523182988362188,0,27,-5,-13,1,-5,5,-9
1523182988362188,-11,44,-10,7,-1,-5,-8,8
1523182988385353,31,-45,-31,-17,-7,1,5,-14
1523182988385353,-2,-21,-3,1,-7,-6,-17,-10
1523182988385353,-17,-7,-2,7,-2,-2,12,12
1523182988385353,-6,14,4,-1,5,5,-4,-1
1523182988399288,6,46,7,31,7,6,-1,24
1523182988399288,-1,-9,-13,-38,-7,-4,-3,-1
1523182988400289,-14,1,-10,-3,-4,-1,-8,-39
1523182988400289,43,-21,-21,11,8,0,-12,37
1523182988422381,10,46,1,-3,-23,-12,2,12
1523182988422381,-1,0,18,-10,14,18,9,-32
1523182988422381,-22,-6,-7,7,-13,-15,-21,8
1523182988422381,48,34,0,5,1,6,7,15
1523182988444410,-39,-59,-11,-22,-4,8,4,-42
1523182988444410,19,24,-9,13,6,-7,-2,29
1523182988444410,-18,43,43,13,4,4,5,-45
1523182988444410,-5,-57,-1,-6,0,0,-6,8
1523182988459446,6,-2,-5,6,0,-10,-13,42
1523182988459446,-21,11,-8,-16,-5,-9,10,63
1523182988459446,9,0,-8,-15,-8,5,2,-20
1523182988459446,-21,27,2,27,18,8,8,-15
1523182988481505,31,-8,10,-27,-7,-5,-12,-13
1523182988481505,-19,8,-15,18,5,2,-3,-4
1523182988482508,6,-1,-3,2,1,-11,-9,4
1523182988482508,-14,-11,-25,-36,-17,3,8,-2
1523182988504833,-7,12,8,-5,7,6,-1,-50
1523182988504833,33,26,-12,8,3,-2,0,0
1523182988504833,4,44,7,14,2,4,6,55
1523182988504833,-17,-23,3,-13,-3,-6,1,-27
1523182988519963,-32,-21,2,3,-16,-2,-6,-59
1523182988519963,7,-45,-18,14,16,10,11,66
1523182988519963,12,15,-2,11,-1,-2,1,-19
1523182988519963,-5,-32,3,-35,-4,-9,-3,18
1523182988541665,-21,42,-9,-2,6,4,4,18
1523182988541665,8,16,21,17,-5,-8,-6,2
1523182988542668,-28,-34,-23,-12,-4,0,-4,-6
1523182988542668,32,20,10,22,-9,-4,-11,-27
1523182988563759,-5,-19,7,-6,-9,-14,8,9
1523182988563759,-8,-21,12,11,9,14,-2,-45
1523182988564727,9,63,13,-15,10,10,17,46
1523182988564727,-3,-42,-17,-1,-14,-8,-4,-9
1523182988578765,6,-1,-1,15,5,-3,0,2
1523182988578765,-4,-35,-21,-19,-15,-11,-3,-11
1523182988586794,20,11,12,6,8,1,-3,-15
1523182988586794,-18,29,21,4,-5,0,-4,-28
1523182988602240,-22,-36,-1,-7,6,11,0,25
1523182988602240,-4,-6,15,0,-8,-9,-10,-32
1523182988602829,-10,6,16,-6,-6,-5,-2,-7
1523182988602829,-2,-75,-35,-6,2,2,-6,11
1523182988623889,12,20,-22,5,0,-1,-6,7
1523182988623889,-10,9,11,8,8,2,-6,-53
1523182988624886,54,-11,3,-9,1,7,3,5
1523182988624886,6,-5,12,12,10,7,5,20
1523182988639147,4,30,10,10,-8,-8,-1,2
1523182988639147,38,8,9,-6,-4,-13,0,18
1523182988646948,-31,38,-9,-27,-6,-2,-4,-10
1523182988646948,10,-44,6,1,3,4,-1,-38
1523182988661985,16,-26,-20,-17,-2,-1,10,81
1523182988661985,7,49,19,15,7,-2,-6,-9
1523182988661985,-29,-66,-14,11,-11,-13,13,11
1523182988661985,-6,25,-3,-1,-5,5,5,7
1523182988684044,-15,-45,27,-4,16,10,2,-30
1523182988684044,12,5,2,-2,-8,-6,0,58
1523182988685048,2,11,11,13,6,7,3,-23
1523182988685048,3,-2,-5,-15,-9,-3,-1,9
1523182988698082,-52,-10,-10,28,4,-7,4,-45
1523182988698082,54,2,-44,-13,-2,1,-8,24
1523182988706102,-12,-50,-23,-10,-3,1,-12,-15
1523182988706102,25,27,24,2,-1,-8,-7,-13
1523182988721542,5,28,9,-11,-9,-2,5,31
1523182988721542,-31,-13,-1,-31,-4,5,-2,-48
1523182988722144,-3,-7,-5,46,6,4,-4,1
1523182988722144,9,32,-1,-22,1,-5,1,-11
1523182988744211,14,-26,-19,-57,-12,-6,-13,-33
1523182988744211,-27,-4,35,82,-3,-11,-8,-15
1523182988752348,18,-9,-12,1,14,5,2,-1
1523182988752348,-19,-10,-19,18,2,-2,6,73
1523182988758242,8,29,3,-14,4,4,-6,-11
1523182988758242,-13,7,-4,-12,-2,0,3,1
1523182988766263,-18,-14,30,1,-4,-8,-9,-16
1523182988766263,-19,59,20,2,14,10,7,4
1523182988781335,4,2,-4,13,-1,0,3,15
1523182988781335,-16,-94,-26,-19,-5,1,-4,-9
1523182988782304,-7,-4,-18,-3,-16,-7,-6,-10
1523182988782304,-18,12,-19,-21,-3,-9,6,-63
1523182988804774,39,37,21,2,5,0,-16,73
1523182988804774,-7,40,10,16,8,6,10,-35
1523182988805365,13,-30,-22,-25,-6,-10,-9,15
1523182988805365,-28,-48,-13,0,-12,-5,24,10
1523182988827428,-2,17,-9,-8,-2,10,10,-14
1523182988827428,9,47,16,51,8,-4,-8,4
1523182988828429,-11,-15,-3,-38,-6,4,-4,18
1523182988828429,13,-26,3,1,-1,-12,-6,31
1523182988841464,-4,28,-6,0,-13,-12,-9,-46
1523182988841464,-7,-59,-10,-24,-2,18,17,22
1523182988842467,9,20,24,12,17,6,10,9
1523182988842467,-5,27,1,-21,-11,-7,-19,-20
1523182988864524,6,-20,17,-1,2,-6,5,-18
1523182988864524,-15,-9,7,-6,-2,-9,0,11
1523182988864524,-4,-30,-18,2,-17,-3,-1,-29
1523182988864524,10,20,5,0,9,14,3,12
1523182988878561,-23,5,-14,6,-4,-4,-16,26
1523182988878561,30,44,8,-4,-2,-2,-7,-26
1523182988886972,48,-13,22,3,3,-3,1,29
1523182988886972,-12,-4,7,-7,4,1,-2,-13
1523182988902005,29,1,-19,-17,-2,1,7,-49
1523182988902005,-46,8,-1,-33,-15,-8,4,62
1523182988902628,-23,24,-11,3,3,-2,-4,-2
1523182988902628,10,26,23,44,9,3,-7,-20
1523182988923683,-2,-44,-33,-65,-19,-10,6,11
1523182988923683,10,7,1,-7,3,0,-8,-24
1523182988924683,-18,-7,0,0,8,4,-11,-54
1523182988924683,8,27,-1,15,-2,-4,8,81
1523182988946746,-12,-10,14,58,14,-18,-8,-4
1523182988946746,4,-21,4,-5,9,35,19,-1
1523182988947744,-11,9,-35,-33,-12,-3,-17,-18
1523182988947744,-12,45,21,29,-6,-2,-4,-24
1523182988961785,16,-53,-4,7,6,0,4,19
1523182988961785,-8,-5,1,104,5,-17,-4,-32
1523182988961785,14,-3,24,-79,-16,0,-4,25
1523182988961785,6,-24,-21,7,-2,6,3,-60
1523182988984876,31,68,25,52,4,1,-16,94
1523182988984876,3,3,-9,4,1,-3,-8,15
1523182988984876,-14,-35,12,127,20,6,-2,-12
1523182988984876,6,-4,-6,-80,-18,-12,-15,-28
1523182989006944,-23,-6,-15,-39,-16,-3,14,-46
1523182989006944,18,33,10,-6,4,9,0,15
1523182989007904,-3,-38,-15,10,-7,-13,2,12
1523182989007904,1,0,2,77,19,-2,4,19
1523182989030000,-6,-23,-3,-39,-3,17,9,-2
1523182989030000,-8,18,-5,-44,-3,3,-4,-28
1523182989030967,6,46,4,16,-3,-8,12,30
1523182989030967,-19,-107,-13,5,-6,-11,-16,-17
1523182989044040,-6,3,15,4,-3,-3,6,-18
1523182989044040,-4,7,-11,-14,4,5,25,-68
1523182989045003,-2,4,-14,-59,0,3,-32,39
1523182989045003,11,27,23,21,3,3,-3,-6
1523182989068064,-4,13,15,105,20,-3,1,1
1523182989068064,-6,-39,-24,-57,-32,-12,-4,-15
1523182989068064,-34,14,-1,-2,7,6,18,-26
1523182989068064,61,23,0,-21,-4,2,-6,32
1523182989081100,7,-20,32,34,14,9,-6,-26
1523182989081100,-11,-20,5,15,3,-8,-12,18
1523182989082102,-10,-20,-12,25,-9,-7,5,-76
1523182989082102,-21,10,-11,-10,-8,-7,13,45
1523182989104565,23,55,-2,-21,-6,1,1,11
1523182989104565,-15,-53,-1,11,8,10,-2,11
1523182989105163,10,14,21,30,6,0,9,17
1523182989105163,-12,-1,-11,-75,-17,-3,-2,-34
1523182989127259,-11,2,5,36,6,-1,-5,-20
1523182989127259,8,33,0,-21,-17,-14,10,28
1523182989128225,6,-18,19,38,9,-1,3,-8
1523182989128225,-11,9,2,48,7,17,1,-11
1523182989142262,-9,-3,-22,-92,-17,-10,0,28
1523182989142262,2,9,-4,8,6,3,-15,-4
1523182989142262,-5,4,-18,12,2,-4,-4,-10
1523182989142262,10,1,7,-10,0,-1,-10,-16
1523182989164320,-16,-14,33,88,21,12,12,-30
1523182989164320,-12,15,-23,17,-12,-1,-4,3
1523182989164320,35,62,11,26,2,2,31,-61
1523182989164320,-19,-65,1,9,1,1,-20,92
1523182989187772,27,-26,-17,19,1,-4,-13,-34
1523182989187772,-32,-1,10,12,1,-10,-7,7
1523182989188384,-12,2,-22,-101,-21,-2,4,31
1523182989188384,4,29,20,43,3,0,8,-43
1523182989201907,-7,14,-12,-20,6,-4,4,42
1523182989201907,-5,-19,1,44,7,8,-7,23
1523182989202423,16,-21,-13,-61,-10,-3,-8,16
1523182989202423,-5,4,-9,-68,-5,-5,2,-22
1523182989224479,-4,12,-5,-7,-4,2,-2,18
1523182989224479,9,-27,-13,-9,-6,-10,-6,-35
1523182989224479,-37,-16,4,40,5,0,0,25
1523182989224479,-7,3,5,2,12,-2,-2,-51
1523182989247542,20,-8,-20,-27,-25,-9,11,4
1523182989247542,0,24,16,-25,6,5,-1,-20
1523182989248544,17,24,22,28,11,7,5,73
1523182989248544,-2,34,-15,5,-4,-1,-3,9
1523182989261578,-17,-23,-21,-40,-7,-1,-3,-27
1523182989261578,6,-4,-3,72,-1,-9,9,-1
1523182989262582,0,-22,-14,-69,-3,0,-20,-6
1523182989262582,-1,18,3,-8,-1,0,12,31
1523182989283637,35,18,14,22,8,2,-12,1
1523182989283637,42,3,5,-27,-7,-11,-3,29
1523182989284641,-12,-23,-7,-7,7,4,2,-33
1523182989284641,9,-1,10,51,-2,7,13,4
1523182989307702,-31,21,6,-18,3,5,-11,39
1523182989307702,21,-35,-16,-28,2,-1,2,8
1523182989308704,-3,-17,3,26,-10,-11,-6,-2
1523182989308704,-16,-17,30,20,3,-6,2,-3
1523182989321130,36,11,-13,-56,-13,-1,-18,38
1523182989321130,-6,28,23,7,7,2,1,-11
1523182989328757,-11,-7,-10,-5,-15,-6,-2,1
1523182989328757,2,-28,-22,-16,2,-2,-1,3
1523182989343839,-33,46,21,29,-17,-3,10,-40
1523182989343839,-14,-61,-20,-18,21,24,6,6
1523182989344800,3,-35,6,15,0,2,-4,-23
1523182989344800,13,1,-4,8,-1,-6,-6,8
1523182989368062,-21,-14,-3,-6,-5,-17,-11,-13
1523182989368062,5,48,11,-4,-10,-2,8,15
1523182989368062,-16,-18,-4,17,7,11,5,-39
1523182989368062,50,5,-6,-2,5,-2,-9,53
1523182989381933,-13,-2,8,18,2,1,10,27
1523182989381933,-8,4,-3,-7,-17,-13,-11,-27
1523182989381933,22,13,8,4,6,-5,-6,15
1523182989381933,-23,-5,-19,-27,-14,-9,-5,-43
1523182989404367,-12,-25,-11,12,3,8,8,-26
1523182989404367,5,14,4,-23,-2,-5,8,57
1523182989404960,5,46,1,-10,3,1,-7,-2
1523182989404960,-21,-49,-15,1,-7,-8,-5,-23
1523182989427057,0,2,0,19,2,-1,12,3
1523182989427057,-14,-5,-2,-14,7,9,-2,-41
1523182989428020,-5,39,27,26,8,-1,5,14
1523182989428020,-2,5,-10,33,3,0,-3,1
1523182989442059,0,-7,-23,-80,-14,-12,-7,-3
1523182989442059,-26,1,33,17,-7,0,-9,-4
1523182989442059,36,12,6,29,0,-6,-12,8
1523182989442059,-5,-8,-28,-19,-9,-4,-4,25
1523182989464118,-24,-18,2,-12,5,6,-12,-26
1523182989464118,9,12,-11,-15,-4,-4,-7,12
1523182989465120,-11,15,-9,-8,-10,-6,-2,-18
1523182989465120,0,-13,15,26,13,16,4,-36
1523182989487637,23,-20,-8,2,2,3,3,22
1523182989487637,-3,10,-22,-27,-1,-10,-2,2
1523182989488181,-7,-18,26,56,12,3,-1,11
1523182989488181,-26,54,18,11,-7,-2,-7,-28
1523182989502336,-16,-37,-30,-34,-12,-5,5,-47
1523182989502336,22,17,3,37,-2,-3,-11,8
1523182989502336,15,25,-1,1,-6,2,5,5
1523182989502336,-21,-51,-22,-18,8,-3,8,40
1523182989524277,8,-15,5,34,7,8,-1,4
1523182989524277,-24,10,-2,-19,-5,-2,1,-14
1523182989525281,-8,-21,-20,-25,-6,-4,1,1
1523182989525281,39,22,-13,-10,2,0,-7,-3
1523182989547348,-3,24,37,50,7,-9,5,-5
1523182989547348,10,-19,-37,-79,-15,7,-1,-3
1523182989548377,-30,4,3,13,3,5,-7,15
1523182989548377,17,7,-5,-32,-12,-4,0,3
1523182989560414,-13,14,8,31,9,-2,-8,-3
1523182989560414,6,-3,10,64,4,-3,6,-10
1523182989569439,-26,-21,-23,-52,-3,-2,3,8
1523182989569439,17,-56,14,-33,-10,-5,-14,-34
1523182989584437,4,-5,-33,3,-2,-2,13,63
1523182989584437,-3,-21,19,44,-1,-4,1,-12
1523182989585632,3,4,-21,-29,1,4,9,1
1523182989585632,-46,21,18,16,6,3,-5,-26
1523182989607499,24,-6,-1,-4,4,2,-1,-27
1523182989607499,-9,-13,-8,5,1,-11,-5,20
1523182989607499,-3,-39,-22,4,-19,-12,-2,9
1523182989607499,-6,9,12,1,-11,4,2,-15
1523182989620935,-7,22,15,4,23,4,-4,-15
1523182989620935,2,20,48,26,16,8,6,10
1523182989628555,13,-9,-22,-37,-28,-12,-7,-29
1523182989628555,-16,-1,7,26,2,1,6,10
1523182989643636,-12,6,-11,-37,-12,1,1,-13
1523182989643636,69,25,-1,11,11,1,21,8
1523182989644596,-18,-40,8,12,-1,-2,-11,-10
1523182989644596,-21,15,7,-16,13,5,-3,8
1523182989668052,5,-15,8,10,-25,-7,-7,-43
1523182989668052,-13,25,-11,-19,-2,-1,7,37
1523182989668052,17,27,12,8,4,4,0,-29
1523182989668052,0,-39,2,70,20,7,13,33
1523182989680693,4,14,9,-38,10,3,0,-30
1523182989680693,-28,-59,-50,-91,-35,-16,-20,-18
1523182989688716,7,21,9,29,5,8,6,10
1523182989688716,13,41,10,-8,2,-2,-6,-1
1523182989704862,5,8,10,22,3,1,3,17
1523182989704862,-14,-42,-20,12,21,-6,-5,-2
1523182989704862,-2,13,15,2,-11,-8,1,15
1523182989704862,14,3,5,-56,-19,-1,-1,-14
1523182989726817,-36,1,-14,-5,-3,-5,-8,-19
1523182989726817,-4,11,5,28,-7,2,1,30
1523182989727821,2,13,-9,-7,6,1,-5,-38
1523182989727821,3,2,-9,21,-2,1,-5,41
1523182989740853,-20,9,7,22,-7,-7,0,-11
1523182989740853,-11,-7,-9,2,1,-1,-6,37
1523182989748875,33,25,10,18,12,-3,18,37
1523182989748875,4,-9,-17,-22,-11,-6,1,-1
1523182989763916,0,23,-9,-3,-8,-5,-2,5
1523182989763916,18,51,-17,21,15,14,4,-21
1523182989764916,-12,-98,-22,0,-1,-1,-4,-6
1523182989764916,-14,20,5,-48,-9,-20,-8,-15
1523182989788158,15,-16,-23,-4,-22,-2,5,17
1523182989788158,-6,-3,15,15,1,27,8,-22
1523182989788158,-5,10,11,3,12,0,-6,-3
1523182989788158,0,-2,-14,16,-5,-4,-7,-38
1523182989801012,-14,-5,-5,-13,3,-6,1,30
1523182989801012,20,31,46,52,-11,-16,-25,-23
1523182989809035,-11,-10,-27,-63,-2,-3,0,3
1523182989809035,-1,-22,-15,34,-13,-1,-4,8
1523182989824074,15,27,49,46,24,15,1,13
1523182989824074,-20,-40,-19,-67,-21,-12,-1,-15
1523182989825113,17,-5,15,15,10,3,-17,-6
1523182989825113,-14,21,25,12,19,-2,4,7
1523182989847172,-4,-39,-56,-57,-32,-16,1,-2
1523182989847172,3,51,10,8,12,19,6,-8
1523182989848138,-17,-24,-24,0,-15,-11,-3,0
1523182989848138,10,3,20,-7,13,8,12,17
1523182989861221,3,-49,10,56,2,1,-6,5
1523182989861221,-18,-15,-3,-75,8,-10,-3,-9
1523182989869572,7,24,-18,-10,-23,9,6,2
1523182989869572,11,9,8,37,9,12,6,6
1523182989884574,-11,32,-11,-38,18,-3,-1,12
1523182989884574,-11,-25,-25,-32,-45,-37,-9,-20
1523182989885238,-2,14,9,-6,13,19,15,7
1523182989885238,1,-25,-30,-4,-3,7,-5,-32
1523182989907295,-2,-10,-2,17,5,3,7,-1
1523182989907295,20,-14,44,54,22,5,-7,13
1523182989908297,-61,17,5,-5,-10,-19,-7,-18
1523182989908297,8,20,-10,-21,-19,-12,-15,10
1523182989930483,-8,-2,14,13,15,18,3,-45
1523182989930483,-16,11,1,26,26,14,5,-27
1523182989930483,62,19,12,-8,-12,-6,-2,20
1523182989930483,-11,-25,-11,0,-3,-2,-2,-30
1523182989944394,6,10,22,17,-3,-7,-5,10
1523182989944394,5,-67,-17,8,-5,0,0,4
1523182989944394,-31,24,-15,-28,-7,-3,-12,-26
1523182989944394,-3,-13,0,-14,-1,-7,3,13
1523182989967959,23,-2,30,43,0,11,6,18
1523182989967959,5,31,13,0,11,6,5,22
1523182989968460,-12,-24,-49,-60,-23,-8,1,4
1523182989968460,5,30,1,-6,-15,-13,-2,8
1523182989989514,-10,-27,10,47,14,2,-8,11
1523182989989514,3,8,-10,-44,6,1,10,-22
1523182989990516,-21,-76,-16,-26,-10,-7,-8,7
1523182989990516,70,31,44,-11,7,9,5,23
1523182990004643,1,-6,-11,-6,-14,-6,-6,-3
1523182990004643,-11,25,1,70,9,-1,-4,-16
1523182990004643,-4,-59,-25,-50,-10,-2,0,-23
1523182990004643,-32,35,-25,14,-17,-5,5,1
1523182990027615,0,-37,8,14,23,6,-1,7
1523182990027615,9,-34,-31,-7,-19,-11,-1,-3
1523182990027615,2,49,27,24,9,-3,3,39
1523182990027615,-11,-9,11,-5,-7,-2,-3,6
1523182990050134,3,24,9,77,22,13,-7,-76
1523182990050134,-21,-24,-49,-101,-41,-2,5,22
1523182990050677,33,18,14,126,10,-2,-11,13
1523182990050677,-17,-2,-7,5,3,2,-9,-19
1523182990063711,6,23,12,-12,-7,-9,-19,-6
1523182990063711,9,2,21,18,3,-4,-3,2
1523182990064713,-15,-10,27,22,17,3,0,-16
1523182990064713,9,-10,-39,-41,-1,5,3,-2
1523182990087907,-18,-21,-3,-44,0,-2,12,-11
1523182990087907,-10,-14,-6,48,-7,-12,-13,5
1523182990087907,-5,47,4,-42,15,5,8,31
1523182990087907,-6,-20,-6,36,5,5,18,38
1523182990109837,55,15,12,-29,-11,-1,6,2
1523182990109837,-15,-3,29,13,5,0,-6,-34
1523182990110838,7,-5,2,50,1,-8,6,-19
1523182990110838,15,-23,3,-9,-2,-8,-16,-22
1523182990123871,16,17,-38,-26,-12,-5,7,48
1523182990123871,-1,39,1,11,7,0,-9,17
1523182990124873,-4,27,33,56,4,6,1,-13
1523182990124873,2,-4,4,14,12,2,-5,-11
1523182990146934,-32,-43,-43,-99,-25,-23,-4,2
1523182990146934,3,11,48,0,8,20,13,19
1523182990147934,-6,-4,0,37,14,6,-2,-57
1523182990147934,1,28,11,27,-3,-6,2,36
1523182990170403,8,20,16,33,13,1,-10,-13
1523182990170403,18,-12,12,49,-2,-12,9,28
1523182990170403,-10,5,-43,-96,-27,-2,3,3
1523182990170403,-6,-10,9,24,-2,0,-10,-20
1523182990184066,-21,-4,-12,10,-9,-6,-2,18
1523182990184066,8,18,10,17,8,9,2,-12
1523182990185033,-16,-8,15,32,1,-3,-19,42
1523182990185033,-26,25,-14,-30,0,-3,5,9
1523182990207092,10,-68,1,-16,-5,3,-1,-3
1523182990207092,0,-29,-17,-9,-16,-18,-6,-10
1523182990208095,7,24,33,56,22,14,0,-22
1523182990208095,-42,-49,-21,-58,-18,-5,-1,-9
1523182990230583,-9,52,3,33,1,4,1,26
1523182990230583,23,4,-19,-29,10,8,5,9
1523182990230583,16,-3,10,67,7,-6,0,-12
1523182990230583,-27,-33,43,-8,14,-3,-1,-18
1523182990244191,-14,19,-35,-49,-31,-10,-8,-16
1523182990244191,-16,-4,-28,15,11,13,-2,-20
1523182990245232,3,16,3,-4,0,-4,5,18
1523182990245232,16,38,1,70,7,1,5,24
1523182990267762,26,-29,-19,-41,-6,-10,-19,24
1523182990267762,-18,0,-7,-34,-14,-4,-8,-9
1523182990268255,37,-4,2,-6,-5,-3,1,-14
1523182990268255,-52,20,-5,-1,-5,2,-6,-48
1523182990289311,13,-22,5,31,10,5,14,18
1523182990289311,-5,30,-4,-19,-9,-10,3,-4
1523182990290313,9,-66,-1,-11,2,10,1,1
1523182990290313,26,1,-13,-10,-4,-2,-2,-13
1523182990304382,7,8,33,35,5,7,2,-18
1523182990304382,-62,-63,7,30,11,-9,-6,-7
1523182990305359,-10,8,-7,48,-14,-12,5,-26
1523182990305359,18,6,-16,-60,3,21,16,30
1523182990327450,-9,23,-11,-5,-3,-7,-6,-11
1523182990327450,-1,25,42,20,2,6,3,0
1523182990328635,15,-5,-16,-21,4,-8,-6,5
1523182990328635,-1,4,18,20,3,-5,-6,7
1523182990349472,-19,15,0,-3,-5,7,11,-103
1523182990349472,6,37,4,9,-4,-4,-1,39
1523182990350472,6,-28,12,-15,-1,0,-9,2
1523182990350472,-6,-42,-37,65,-2,-10,-12,-22
1523182990363508,-4,2,-26,-89,-16,-9,7,-4
1523182990363508,2,8,-5,31,-17,8,3,-31
1523182990364509,8,7,3,9,18,13,14,30
1523182990364509,28,16,31,71,16,3,2,8
1523182990387675,-9,-12,-24,-62,-5,-9,-11,10
1523182990387675,11,-11,14,-18,-11,-9,1,30
1523182990388577,-6,50,14,-2,-7,-2,1,22
1523182990388577,4,-31,-43,-39,-9,-17,-10,-23
1523182990418021,-26,-21,19,68,15,12,-2,3
1523182990418021,66,58,-8,-22,11,17,10,-55
1523182990418021,-35,-42,-16,-26,-3,3,-11,31
1523182990418021,-15,1,-5,-17,-5,-9,2,-15
1523182990423667,13,25,9,43,-4,-5,-4,34
1523182990423667,-12,-25,-20,0,1,-1,2,-24
1523182990424669,-2,60,19,3,1,1,-12,-46
1523182990424669,26,-49,-8,5,2,1,3,17
1523182990446770,-28,-11,-11,10,-1,-5,-6,13
1523182990446770,-9,-21,-21,-39,-7,-8,-12,-25
1523182990447731,-13,-5,-18,23,-6,-9,0,0
1523182990447731,8,16,26,-28,-3,2,-5,-16
1523182990470169,13,32,22,61,16,12,10,-8
1523182990470169,-3,-17,-19,-15,-12,-10,-9,-1
1523182990470793,-32,-3,-39,2,7,4,-3,-22
1523182990470793,6,-16,9,-21,-25,-6,3,-22
1523182990484096,-4,-9,15,5,8,9,15,-6
1523182990484096,-10,-1,-4,-31,-11,-6,-8,94
1523182990491850,-7,24,-14,-15,-11,-16,-17,21
1523182990491850,4,-20,2,7,5,-4,3,-21
1523182990506890,23,54,0,-1,10,24,-3,-6
1523182990506890,14,-38,-2,29,1,-4,9,48
1523182990507891,6,-9,6,-11,-4,-2,6,-37
1523182990507891,2,36,8,-3,-4,-1,-5,10
1523182990529989,6,8,12,17,1,-9,-11,12
1523182990529989,8,-19,10,16,16,1,-10,-21
1523182990531363,10,-1,8,14,-3,6,10,15
1523182990531363,-5,16,-9,-50,-30,-5,-7,-20
1523182990542985,1,-19,-17,14,12,-1,10,45
1523182990542985,-18,56,8,57,4,6,0,2
1523182990551045,54,-16,7,-59,-1,-10,-6,-5
1523182990551045,-34,38,16,35,12,11,5,-11
1523182990567466,-32,-76,5,-12,-18,-13,-15,4
1523182990567466,9,-15,2,-4,-2,-2,11,-79
1523182990568053,0,28,-5,-3,8,9,-7,97
1523182990568053,-19,0,-7,-2,0,1,-1,36
1523182990590109,16,17,6,-14,-2,-3,2,-11
1523182990590109,27,-10,-6,28,6,-6,-3,-9
1523182990590109,-20,-16,-7,-60,-10,1,13,-37
1523182990590109,19,-12,0,-8,9,7,5,-16
1523182990603554,-14,20,-6,56,-2,-11,-20,-8
1523182990603554,7,18,16,-88,-12,4,5,54
1523182990611165,-2,39,4,31,5,6,2,-41
1523182990611165,16,-91,-17,-8,0,-2,-4,43
1523182990627208,7,17,16,13,2,-4,-6,-63
1523182990627208,23,15,-42,-48,-8,-6,1,-1
1523182990628212,-5,3,16,21,-3,-4,-13,-27
1523182990628212,-6,27,-27,-10,-1,-5,8,24
1523182990649268,0,-18,9,-16,-2,9,6,-4
1523182990649268,-35,1,4,61,-10,-12,-21,-23
1523182990651318,3,-64,-3,-32,19,0,12,-2
1523182990651318,7,-7,6,60,25,19,-3,12
1523182990663304,6,5,-19,-91,-37,-6,0,18
1523182990663304,-11,26,23,3,10,-1,7,-4
1523182990671325,16,-15,-1,34,-18,-15,7,-33
1523182990671325,-43,26,-16,-15,10,3,-8,27
1523182990686761,5,5,12,6,8,0,13,27
1523182990686761,-5,-66,-13,-34,1,12,-2,5
1523182990694428,-2,-17,-20,13,-14,-11,-5,-20
1523182990694428,-26,21,30,-13,0,-3,-7,3
1523182990709428,74,26,-1,18,8,3,23,23
1523182990709428,3,-19,-7,15,-2,-1,5,-2
1523182990710429,-15,45,8,7,0,3,-11,18
1523182990710429,4,-29,-12,2,-15,-12,-6,-22
1523182990723465,-9,6,41,-26,11,11,3,1
1523182990723465,-13,-3,20,63,10,-4,2,4
1523182990731916,-7,-7,-31,-108,-17,-3,-7,-32
1523182990731916,26,37,14,34,7,-2,18,63
1523182990747530,4,-2,-3,20,-9,-6,10,18
1523182990747530,1,18,3,-15,4,3,-7,32
1523182990747530,-66,-26,24,44,2,3,0,-11
1523182990747530,-1,-27,-20,-12,-8,-1,-3,-3
1523182990770590,-25,-5,-21,-1,3,-4,5,1
1523182990770590,10,-15,-8,-3,6,2,-4,0
1523182990770590,16,34,2,27,-11,-5,20,32
1523182990770590,3,2,-6,-75,-7,5,-1,-30
1523182990783659,-28,0,-8,16,5,0,-2,32
1523182990783659,18,-1,4,-6,-5,-4,5,-21
1523182990791646,13,1,1,27,6,1,-13,1
1523182990791646,17,17,7,11,0,1,8,-42
1523182990806685,-9,-20,-16,-6,-4,-3,-27,17
1523182990806685,-40,6,-13,-6,-10,-11,-6,7
1523182990820722,42,-36,-5,-7,2,7,2,-3
1523182990820722,47,19,6,9,-6,-7,-10,34
1523182990830120,-49,23,7,19,2,-2,1,-22
1523182990830120,0,-11,14,-20,-10,-7,-29,-9
1523182990831751,-3,36,20,13,2,2,-5,14
1523182990831751,-19,-53,-17,4,6,-8,-10,-27
1523182990852992,8,-1,-16,-7,-2,-6,-12,-25
1523182990852992,1,36,-5,10,-7,-6,3,-2
1523182990853811,-21,-35,11,-2,-3,10,11,-2
1523182990853811,35,9,11,19,2,2,-12,9
1523182990867266,-7,-32,-24,-29,7,-5,-8,-19
1523182990867266,-15,24,6,-3,-7,-2,13,-17
1523182990873864,-13,-20,16,15,10,6,-8,18
1523182990873864,26,9,23,60,31,1,6,-11
1523182990889908,43,-10,-13,-57,-37,6,0,-22
1523182990889908,3,23,-9,41,14,6,-16,1
1523182990890909,-10,-32,-11,-51,0,-8,1,-20
1523182990890909,-52,-17,-3,-41,-4,-7,2,26
1523182990911966,5,10,27,31,8,-4,3,-1
1523182990911966,2,-31,4,-11,-5,10,10,-15
1523182990913972,19,46,-1,-18,-8,-6,-14,-1
1523182990913972,-34,-32,-2,29,0,6,8,-7
1523182990926002,6,2,-24,-18,-5,-6,-10,-24
1523182990926002,-1,-19,1,9,4,1,5,-18
1523182990935027,-5,5,5,24,10,-14,2,-5
1523182990935027,-3,18,-9,-49,-21,2,-11,-70
1523182990950066,-16,12,10,12,1,8,52,-30
1523182990950066,-1,-24,-11,-1,14,9,7,-45
1523182990952126,15,5,-1,-6,-5,2,-10,7
1523182990952126,-43,40,9,21,12,-9,-31,-61
1523182990972135,45,-5,3,28,14,-3,41,-5
1523182990972135,-21,-5,-22,-46,-23,4,21,50
1523182990974131,-3,-35,3,18,-11,-6,5,55
1523182990974131,-1,34,-10,-48,-13,9,13,-32
1523182990987246,-20,-32,-9,28,-2,-8,-26,-27
1523182990987246,6,11,-5,-17,4,-8,3,14
1523182990993181,-30,-20,6,33,6,5,22,-8
1523182990993181,20,23,-11,-50,-15,-6,-9,64
1523182991010226,-9,23,-14,4,3,-5,-14,18
1523182991010226,3,-52,32,-9,9,9,-8,-11
1523182991011228,-1,-3,-12,14,2,0,-9,-18
1523182991011228,7,-4,-9,-14,-13,-9,2,17
1523182991032286,0,0,-6,24,-2,5,-14,32
1523182991032286,-42,40,-11,-52,-30,-12,-9,35
1523182991034291,39,-13,-7,10,9,-3,-13,-63
1523182991034291,0,-12,-4,7,-30,-17,-8,32
1523182991046684,19,28,10,0,24,34,2,24
1523182991046684,-21,-42,-8,57,19,9,6,-19
1523182991053764,-8,22,0,-29,-19,-2,0,-34
1523182991053764,17,19,5,30,-7,-14,5,6
1523182991070422,-18,-20,-23,-36,6,1,-27,-22
1523182991070422,36,7,40,58,7,1,-3,-19
1523182991071393,-10,-6,1,-64,4,2,4,24
1523182991071393,-1,-2,11,67,12,5,15,17
1523182991099503,-19,5,18,-52,6,-22,-12,-20
1523182991099503,-47,-12,-17,19,-14,7,19,6
1523182991101470,26,45,-11,-19,-8,10,-2,48
1523182991101470,-3,-94,-6,24,3,5,1,-42
1523182991106483,-26,26,1,-5,-2,1,32,34
1523182991106483,48,-8,-14,-7,13,-16,-53,16
1523182991113501,9,26,12,47,1,-10,-5,5
1523182991113501,-4,27,-4,-88,-18,7,9,-33
1523182991129544,-15,13,5,28,31,-3,-21,16
1523182991129544,6,-7,1,-15,-28,-7,15,7
1523182991131549,5,7,-22,31,1,7,6,-20
1523182991131549,33,-9,-10,-28,9,2,-1,-4
1523182991152972,-19,-28,0,6,-38,-27,-9,-22
1523182991152972,8,38,-1,-15,6,7,2,-5
1523182991153607,-1,0,25,20,18,16,-6,0
1523182991153607,23,23,11,10,5,3,3,-11
1523182991167079,-1,-25,-1,42,-2,0,5,-5
1523182991167079,-1,12,-14,-56,2,-11,-19,-10
1523182991173661,-4,-18,-32,-9,-25,-8,5,49
1523182991173661,0,22,-4,3,5,2,-7,15
1523182991189705,3,-19,17,9,-1,4,-3,-2
1523182991189705,15,-1,23,35,-16,-13,30,10
1523182991191710,-20,-3,-16,-12,18,7,-3,8
1523182991191710,-11,1,-5,-36,24,15,-6,-57
1523182991211763,-1,-10,2,-11,-15,-2,-10,60
1523182991211763,19,-20,-20,6,4,-4,12,-37
1523182991213768,-27,1,11,-16,-10,-4,6,-25
1523182991213768,-12,-9,11,43,-4,-5,-14,80
1523182991226804,6,16,-1,-60,-7,-1,-2,-36
1523182991226804,-10,-1,-3,-3,12,8,-3,-17
1523182991234217,-7,-8,4,9,2,-7,0,-4
1523182991234217,-11,1,1,30,2,1,-4,-37
1523182991249864,-21,6,-14,-33,-23,-8,-3,5
1523182991249864,28,26,3,12,10,3,-15,-27
1523182991251868,9,-24,13,15,-4,-3,9,14
1523182991251868,-23,-19,-6,-31,3,3,10,-14
1523182991271924,1,-20,-2,2,2,0,-7,-11
1523182991271924,-16,12,1,-9,-19,-13,-7,6
1523182991273927,-7,7,5,6,7,-9,12,-23
1523182991273927,37,41,-1,4,-2,2,3,30
1523182991286963,14,-41,30,34,12,18,-9,0
1523182991286963,-20,-24,3,-24,-14,-3,5,53
1523182991301395,2,-14,-6,21,18,-7,-14,-17
1523182991301395,21,4,20,-2,-10,-18,0,22
1523182991310024,0,26,-13,2,0,5,1,-13
1523182991310024,0,2,-9,16,29,6,-6,-41
1523182991311025,5,26,0,-23,-47,2,7,52
1523182991311025,-5,-8,-3,29,10,5,5,-27
1523182991332082,3,-25,-15,-33,-8,-7,-4,25
1523182991332082,-11,13,-21,-22,-7,-12,-16,-7
1523182991334088,10,-15,-14,-3,16,5,0,18
1523182991334088,-6,27,9,-11,-2,1,0,-7
1523182991346119,13,-17,1,19,-3,-1,3,-3
1523182991346119,-10,15,-6,1,4,1,13,19
1523182991355150,9,-3,-3,5,1,-2,-12,4
1523182991355150,-27,-11,-5,-52,-19,-6,-8,-11
1523182991370248,16,57,3,20,-2,0,15,34
1523182991370248,-20,-56,-31,6,18,11,4,-6
1523182991371196,11,-25,0,-21,-9,-6,-3,-1
1523182991371196,4,6,1,15,1,-9,4,0
1523182991392242,-13,9,21,1,-8,2,-5,-22
1523182991392242,-6,1,16,2,5,-8,1,28
1523182991394249,45,-10,21,23,19,25,18,-21
1523182991394249,-42,-31,-34,-20,-32,-12,-19,12
1523182991406278,24,21,-10,1,3,-13,5,-19
1523182991406278,6,33,12,16,-5,4,-17,-13
1523182991415305,22,-34,-13,7,4,-6,-21,4
1523182991415305,-13,-23,29,40,1,0,-14,-52
1523182991430469,-13,-67,-28,-17,1,-5,-11,0
1523182991430469,-3,19,18,16,-8,-4,-6,-30
1523182991431352,-21,50,-27,-18,4,-8,12,-12
1523182991431352,9,0,-17,-19,-3,12,0,-10
1523182991452768,8,13,13,-2,10,-8,-9,-8
1523182991452768,-9,8,11,9,-17,6,-3,20
1523182991454411,9,47,-19,-12,-7,-2,-3,-19
1523182991454411,2,-81,-4,23,13,-8,5,15
1523182991466692,-1,-31,-18,-47,-17,-9,1,-12
1523182991466692,0,-3,6,19,10,3,9,-17
1523182991474465,-15,16,8,-17,-8,5,-11,-61
1523182991474465,21,82,11,9,13,9,9,100
1523182991489501,-3,-29,7,3,-3,3,-6,-66
1523182991489501,10,-19,-17,7,0,2,2,24
1523182991491506,-29,19,-11,-63,-13,-11,2,-60
1523182991491506,33,89,26,31,13,1,-23,36
1523182991512561,-48,-98,-44,6,-10,-1,0,15
1523182991512561,26,60,-13,-70,7,-8,-8,-2
1523182991514569,-8,-8,28,43,-7,1,15,11
1523182991514569,-11,8,-8,-18,-3,1,16,-7
1523182991525603,15,67,17,15,16,1,15,105
1523182991525603,-18,-52,-22,-17,-29,-3,-13,-24
1523182991534620,-8,-2,-2,17,15,6,3,6
1523182991534620,-10,-34,1,3,-3,-10,-16,60
1523182991549699,0,27,9,10,-1,2,-6,-24
1523182991549699,-6,-16,-15,-46,-11,-7,8,-24
1523182991551667,-13,-3,-7,-19,0,-11,-10,24
1523182991551667,11,-22,-10,19,-8,13,23,-32
1523182991571720,5,18,-13,-1,15,2,-26,-51
1523182991571720,31,-20,33,24,4,-12,-15,5
1523182991573724,-23,-4,-28,-4,-23,1,3,-44
1523182991573724,-20,-3,9,-40,9,5,16,-7
1523182991586145,44,57,11,17,-1,3,-5,6
1523182991586145,-24,-58,-19,2,1,-1,13,13
1523182991594784,-4,-10,-5,6,-2,-12,-23,-3
1523182991594784,-7,-11,-10,13,6,-4,-6,-54
1523182991609855,-1,19,0,-27,-14,6,10,0
1523182991609855,-4,39,34,36,17,5,5,21
1523182991611825,1,-35,-10,-29,-12,-4,-2,8
1523182991611825,0,-9,-6,31,7,-9,12,38
1523182991633008,-11,32,9,6,0,-1,6,-13
1523182991633008,8,7,10,-7,0,14,-11,4
1523182991633884,-8,-64,-14,7,3,5,7,45
1523182991633884,-21,16,15,4,-6,-6,7,27
1523182991645917,22,21,9,1,5,-1,-6,-39
1523182991645917,-9,-39,-9,6,-5,-1,9,25
1523182991654941,-1,18,12,12,23,-7,-26,-6
1523182991654941,-2,-7,-12,-21,-21,5,5,-3
1523182991669994,-32,-67,-26,17,6,6,11,14
1523182991669994,10,46,-5,-39,-11,1,-9,-31
1523182991670985,4,-9,-3,8,2,-4,7,74
1523182991670985,3,-6,-3,20,11,-11,-16,-77
1523182991692080,-35,28,-11,-58,-32,-1,6,12
1523182991692080,57,46,1,-25,-2,3,4,-10
1523182991694046,-9,-9,-7,-4,-22,-18,-5,21
1523182991694046,-8,-15,-18,46,20,1,-5,-49
1523182991706076,-8,-25,5,6,7,9,1,33
1523182991706076,-11,33,5,16,4,-1,-8,-30
1523182991715139,-11,6,20,0,3,-3,-2,-21
1523182991715139,18,19,-13,-21,-21,-2,8,-21
1523182991730140,19,-23,2,6,0,-4,29,14
1523182991730140,-25,-24,-9,-4,5,-11,5,-16
1523182991731287,-17,50,2,21,11,15,0,-34
1523182991731287,0,15,7,-8,-2,0,-2,-18
1523182991752613,29,26,-8,10,3,0,-15,36
1523182991752613,-32,0,-2,1,-1,0,-10,-47
1523182991754226,25,4,23,14,-4,-11,1,17
1523182991754226,-78,47,-4,-12,1,-1,-10,-28
1523182991774258,15,-83,0,6,4,12,19,12
1523182991774258,-25,-55,-9,18,-11,-9,-16,-4
1523182991776262,-6,-8,3,-20,8,7,-11,-35
1523182991776262,17,35,-3,-12,-2,-9,-11,9
1523182991789296,-18,-31,9,36,8,-7,-7,-37
1523182991789296,-11,71,17,-3,-4,1,2,18
1523182991791302,19,-47,-23,-9,-10,5,0,-4
1523182991791302,4,-10,-16,-17,-5,-1,33,-4
1523182991813363,17,7,31,-17,-13,-7,-25,-23
1523182991813363,-17,-1,18,27,26,11,4,13
1523182991814365,3,51,26,-8,-4,16,13,-30
1523182991814365,-21,-30,7,1,2,5,8,61
1523182991834417,-23,23,-29,-23,4,0,1,12
1523182991834417,-53,-6,-3,11,-6,-5,-15,-23
1523182991836422,12,-11,12,3,-11,-14,12,-30
1523182991836422,-2,-45,-15,11,0,4,-21,25
1523182991849888,3,29,-1,-11,-29,-9,-11,-2
1523182991849888,40,12,-2,18,6,0,18,1
1523182991851465,-40,-2,0,-2,2,4,10,18
1523182991851465,28,51,22,28,7,1,-5,-11
1523182991872518,-3,4,-14,-60,-4,-7,1,12
1523182991872518,11,-43,-13,7,-2,0,-5,-2
1523182991873521,-10,10,-24,3,2,-4,-13,-23
1523182991873521,21,-5,-4,-49,-8,1,-4,8
1523182991894612,-8,24,6,24,4,-6,-1,-11
1523182991894612,-26,-2,1,19,19,8,12,21
1523182991896584,21,18,-10,-57,-12,-2,-18,-18
1523182991896584,20,-56,-49,-56,-20,-15,-1,70
1523182991908650,-17,1,5,23,-15,1,1,2
1523182991908650,21,-14,2,-18,-1,-10,2,3
1523182991916638,1,11,7,35,-12,7,3,-11
1523182991916638,20,-39,-15,13,35,23,22,21
1523182991933019,-25,12,21,0,1,-14,0,-28
1523182991933019,24,22,-3,-10,-15,2,-4,60
1523182991934686,-11,-5,-14,12,10,-7,-3,8
1523182991934686,-31,-33,12,-14,-18,-11,2,40
1523182991954739,14,-21,-27,11,5,-1,-6,-25
1523182991954739,-1,10,23,19,15,-1,-2,-8
1523182991956744,2,-10,-10,-17,-7,2,21,49
1523182991956744,-22,-52,-13,-7,-9,3,-28,-74
1523182991969171,38,54,21,44,13,0,-6,2
1523182991969171,-21,-19,-8,5,-17,-5,-18,-8
1523182991975794,10,6,-17,-99,-8,-2,-1,5
1523182991975794,16,16,4,54,4,-1,-1,-22
1523182991991837,15,52,36,18,3,12,-2,-19
1523182991991837,17,-44,-14,10,1,7,13,-1
1523182991993841,-12,-41,6,24,17,-11,0,-1
1523182991993841,-2,8,10,-5,-21,4,-3,-10
1523182992015253,-8,30,-3,-17,4,-3,6,7
1523182992015253,-4,-60,-5,-9,4,0,4,-25
1523182992016901,-9,-4,1,21,-9,-10,-29,14
1523182992016901,5,9,19,9,5,-7,5,31
1523182992028974,-5,-16,-32,-12,-2,2,4,-60
1523182992028974,-32,72,14,3,-5,3,13,21
1523182992036342,97,-66,-34,-4,-4,-8,-11,57
1523182992036342,-49,-5,35,28,9,-5,-24,-41
1523182992053017,-13,-8,-56,-21,-15,-5,22,35
1523182992053017,-1,15,26,2,-5,1,-3,0
1523182992054006,3,38,24,33,13,11,4,-36
1523182992054006,50,11,9,-16,-1,2,13,15
1523182992082479,-21,-80,-18,-1,5,-5,-8,22
1523182992082479,2,-11,-18,-24,-10,-19,-18,-14
1523182992084081,-19,57,10,1,-5,1,8,7
1523182992084081,17,-17,-3,3,19,8,-4,-21
1523182992089095,-36,18,17,16,5,2,-7,-15
1523182992089095,30,-8,-31,-31,-23,-6,14,-22
1523182992096112,-16,-23,16,8,20,-1,-19,39
1523182992096112,-1,55,0,-2,-13,-8,4,10
1523182992112156,1,-38,4,-6,-6,-2,-5,16
1523182992112156,1,11,22,5,4,5,-10,7
1523182992114160,30,-9,-20,18,0,-8,3,34
1523182992114160,-22,13,-40,-50,-15,-7,-12,-11
1523182992135621,31,31,45,25,17,0,-10,-12
1523182992135621,-33,8,-19,-8,-6,0,2,-7
1523182992136220,13,21,28,19,5,-2,-12,-19
1523182992136220,-29,-59,-39,-6,-3,2,0,-29
1523182992149294,-15,-1,-15,2,6,5,-19,9
1523182992149294,18,56,33,-13,22,-1,2,17
1523182992156281,-16,8,9,-9,-23,15,17,-15
1523182992156281,14,-6,12,8,-5,-6,-5,-28
1523182992172315,-9,17,4,11,-18,-14,13,16
1523182992172315,11,-12,-11,-2,20,14,3,11
1523182992174320,-12,27,-2,8,9,-1,4,21
1523182992174320,40,43,30,13,8,3,1,-10
1523182992194413,-11,-50,-17,-38,-27,-12,10,-9
1523182992194413,-2,5,19,28,25,4,13,41
1523182992196385,-19,-26,-11,-16,-24,4,-5,-36
1523182992196385,-12,9,7,4,-4,-1,1,-1
1523182992209447,35,17,9,3,10,-3,15,15
1523182992209447,-18,-29,-34,-3,-15,-9,-15,-9
1523182992216864,-34,-5,16,0,11,0,4,-14
1523182992216864,15,-4,-25,-6,-4,-2,-5,-13
1523182992232474,-9,14,11,10,-2,1,1,-13
1523182992232474,14,6,-7,-10,-22,-3,2,-17
1523182992233478,-12,0,1,-4,14,3,-12,21
1523182992233478,-21,0,14,13,5,-1,-1,42
1523182992254576,3,-39,-28,-15,3,1,-2,12
1523182992254576,-1,5,-51,6,-18,-6,-10,-30
1523182992256539,-5,-5,-6,6,1,-2,2,-93
1523182992256539,16,29,18,3,1,4,23,52
1523182992268573,-12,15,-28,-4,7,5,-56,35
1523182992268573,12,13,37,7,-7,-5,6,-12
1523182992285002,-2,-29,-7,7,3,-3,-4,38
1523182992285002,0,-8,0,-35,-5,-2,-10,-45
1523182992292635,13,-2,23,20,15,9,24,46
1523182992292635,-2,-26,13,7,-6,7,-4,78
1523182992293638,8,-17,-18,1,-2,-3,-3,-2
1523182992293638,-5,18,20,14,3,-6,-24,-9
1523182992315032,-4,1,23,19,26,-5,7,-32
1523182992315032,15,3,-11,-38,-29,12,27,32
1523182992316699,-13,2,12,26,0,0,9,-16
1523182992316699,-10,-35,-9,-2,-17,-13,-10,-26
1523182992328731,-12,-28,-17,-18,23,-5,9,-7
1523182992328731,4,7,31,28,5,-2,-11,4
1523182992337758,-9,25,-2,-11,13,16,10,-12
1523182992337758,5,-12,-32,6,-17,-10,-13,20
1523182992352164,-21,52,11,-38,-17,1,5,30
1523182992352164,9,-30,-7,1,14,-8,13,-76
1523182992359813,12,-13,-8,4,-14,-10,-27,25
1523182992359813,7,-2,13,8,18,10,9,-18
1523182992374854,-46,-25,7,35,-2,4,5,15
1523182992374854,31,27,-20,-27,-10,-10,-5,50
1523182992375859,-2,-21,-7,-23,-3,-1,40,-11
1523182992375859,-27,21,24,17,3,9,-16,-27
1523182992387932,100,-9,0,-2,-14,2,-3,1
1523182992387932,-46,14,0,0,7,0,9,-83
1523182992396912,18,-6,3,-2,6,-3,4,37
1523182992396912,-28,-59,-22,-16,-8,-6,3,-28
1523182992411952,9,4,-11,10,-24,-6,-3,13
1523182992411952,-2,14,-2,-9,5,-4,1,8
1523182992413961,-14,-44,2,26,12,15,-13,-44
1523182992413961,8,27,-3,-51,21,14,20,-48
1523182992435407,20,1,-1,-1,-4,0,-32,54
1523182992435407,4,-15,6,7,3,4,3,-1
1523182992436016,-1,39,4,-8,-13,-15,5,-30
1523182992436016,2,-24,-18,7,-12,-8,-10,65
1523182992448050,-19,-23,17,11,-9,1,38,-41
1523182992448050,-1,24,-12,-14,6,0,-9,29
1523182992457071,4,30,-6,0,-5,-3,1,-8
1523182992457071,-8,-29,-4,8,12,-2,12,11
1523182992472112,-36,16,-24,-25,-11,3,-5,-34
1523182992472112,29,-17,-17,7,-4,1,-15,-17
1523182992474125,-15,38,16,-5,-5,-5,35,47
1523182992474125,43,-14,-9,-6,0,-5,1,14
1523182992494207,-6,-18,11,18,20,-7,-7,15
1523182992494207,-7,-3,16,-10,-19,3,1,-27
1523182992496176,4,-5,-20,-15,-12,-8,-23,37
1523182992496176,5,31,1,37,16,6,18,21
1523182992508243,-11,-26,-3,-73,-7,0,-12,-23
1523182992508243,-16,-22,13,31,20,-1,-5,-7
1523182992517455,0,7,5,-6,-10,-7,-12,-20
1523182992517455,10,37,5,3,6,7,2,19
1523182992532673,2,13,-31,11,-4,2,6,-19
1523182992532673,-20,-66,2,-7,-5,-7,-16,-9
1523182992533275,-2,6,-8,-16,-3,0,-9,-58
1523182992533275,-2,-5,33,9,-1,-6,3,43
1523182992554375,10,41,10,10,-2,2,-9,-45
1523182992554375,1,-3,-8,-4,0,-2,-8,-41
1523182992556336,23,-36,-2,4,2,2,8,106
1523182992556336,-6,23,-5,-10,-16,-4,0,-32
1523182992568794,3,-15,2,9,1,1,-4,-35
1523182992568794,-6,-22,-25,-8,-12,-8,8,33
1523182992577392,-12,2,16,0,11,-4,-11,-48
1523182992577392,3,10,1,-2,-22,-11,14,12
1523182992592433,10,-2,11,4,14,27,9,25
1523182992592433,-17,15,-1,25,10,1,-4,16
1523182992593435,-7,10,-28,-14,-9,2,6,-9
1523182992593435,9,-7,3,16,-1,-9,-28,-4
1523182992614496,-36,-21,-8,-10,-6,-14,-5,29
1523182992614496,1,27,-9,-11,-11,-6,-8,1
1523182992616496,1,2,2,14,10,6,-3,-28
1523182992616496,-54,-22,-8,-9,9,2,24,30
1523182992637556,12,1,9,16,3,-1,-14,-38
1523182992637556,-5,-21,8,-5,4,2,-2,1
1523182992638554,1,-10,5,-2,-13,-7,-9,2
1523182992638554,-11,31,-25,3,-4,5,13,-25
1523182992652592,7,-21,-3,3,11,-8,12,39
1523182992652592,-3,-31,13,-24,-21,-6,13,-9
1523182992653595,-10,-2,-18,-13,-5,-8,-11,-38
1523182992653595,14,6,7,-16,4,8,-6,-9
1523182992674653,7,22,1,13,-7,3,6,-4
1523182992674653,10,11,-9,5,-6,-13,0,30
1523182992676656,-4,28,0,-14,6,5,1,8
1523182992676656,1,-89,-14,-21,5,9,3,-79
1523182992688688,11,2,-5,-9,-4,-9,-19,32
1523182992688688,4,20,5,17,-2,-1,-6,-14
1523182992697751,-5,-2,5,-6,-9,-11,-3,10
1523182992697751,0,27,13,5,14,0,-18,-33
1523182992711749,5,-14,-11,8,-5,4,14,-19
1523182992711749,-6,0,-3,-5,-7,3,-9,17
1523182992713755,26,-16,-2,4,5,8,-2,-5
1523182992713755,-5,35,-5,4,-7,-2,-23,-27
1523182992735205,-33,28,-1,-9,8,0,9,-6
1523182992735205,-17,-74,29,3,2,-5,-15,9
1523182992736817,-16,-31,-24,-6,-15,-12,-7,3
1523182992736817,2,6,20,25,-4,1,-4,-7
1523182992756869,40,26,-12,12,4,-6,-4,-15
1523182992756869,16,58,-4,-30,13,13,12,-3
1523182992758875,-16,5,20,14,-8,0,15,-17
1523182992758875,-9,-40,7,2,0,1,-3,12
1523182992771910,31,0,0,14,2,-7,-17,-10
1523182992771910,5,14,-10,15,-9,-4,2,2
1523182992773915,-3,-12,-17,1,8,9,3,0
1523182992773915,12,18,-11,3,-11,-9,-4,19
1523182992794969,-18,-2,-4,-9,-6,-3,-1,3
1523182992794969,16,-19,-18,-1,8,-11,3,-16
1523182992795973,-4,18,-9,4,-8,11,6,36
1523182992795973,4,26,9,-13,1,7,7,30
1523182992817497,-13,-16,13,2,0,3,6,-19
1523182992817497,-3,-27,-10,9,3,-5,4,14
1523182992819034,18,-4,2,-32,0,-15,-14,-4
1523182992819034,0,2,-9,-19,-2,-2,5,7
1523182992832526,-1,8,2,-23,-18,0,9,-23
1523182992832526,25,30,-6,1,2,-1,-6,12
1523182992834074,2,-14,-2,18,2,-1,-1,15
1523182992834074,5,-4,20,-10,12,4,1,-53
1523182992855130,-15,-13,-27,-26,-24,-11,-22,37
1523182992855130,-23,3,1,6,2,1,-7,-6
1523182992856132,-1,-8,18,18,13,7,1,-4
1523182992856132,7,-12,-12,-5,-2,-1,-2,0
1523182992877191,-15,2,8,12,-2,-9,-8,-35
1523182992877191,-16,-12,0,-6,7,5,1,8
1523182992879194,11,8,3,-1,-4,0,0,22
1523182992879194,-13,5,-28,2,-11,-10,-3,11
1523182992891229,-6,-2,-7,-2,12,2,-2,-36
1523182992891229,10,7,0,0,-6,-1,-17,106
1523182992898246,-3,-6,7,3,-4,-4,0,-28
1523182992898246,22,41,10,40,0,0,4,5
1523182992915814,-51,-91,-26,-86,-15,0,1,-6
1523182992915814,15,4,-9,17,-2,-2,-19,-55
1523182992917315,3,16,-2,9,4,2,19,66
1523182992917315,19,-44,-12,-14,-5,-5,-9,23
1523182992937391,8,35,55,46,7,1,6,20
1523182992937391,-4,24,-1,3,14,3,15,-20
1523182992938352,-2,47,-6,-70,-20,-9,2,-28
1523182992938352,-36,-86,-14,-17,10,-1,-9,6
1523182992951787,6,20,8,31,13,6,4,-20
1523182992951787,2,3,-21,2,-13,2,7,17
1523182992958405,-1,23,8,44,2,-5,-15,-16
1523182992958405,-5,40,14,-2,-1,-2,14,4
1523182992974446,14,26,10,24,9,7,10,23
1523182992974446,-38,-97,-29,-22,-3,-4,-19,-39
1523182992976453,16,-20,-29,-99,-10,-5,-10,-40
1523182992976453,5,27,19,23,-14,-15,-2,27
1523182992997509,16,31,-3,2,9,14,35,16
1523182992997509,-13,-16,7,23,11,7,4,15
1523182992998511,-20,-18,15,26,3,5,-2,-11
1523182992998511,27,-4,-17,-37,-12,-13,-6,-2
1523182993011547,0,14,13,22,9,-7,-9,2
1523182993011547,10,28,4,-24,-10,-3,7,-8
1523182993018901,8,-35,-21,-17,9,4,-1,10
1523182993018901,-9,5,-2,6,-3,4,3,-2
1523182993035011,-10,6,-9,-8,-22,-8,-5,13
1523182993035011,0,-25,24,9,18,-9,-6,-23
1523182993036612,1,3,22,30,-5,6,-24,-53
1523182993036612,-28,23,0,2,8,16,17,7
1523182993057667,7,-3,-28,-27,-5,0,-20,-1
1523182993057667,7,25,26,8,-5,-6,-6,-43
1523182993058671,-41,41,-4,10,-7,-7,1,39
1523182993058671,-6,-87,-21,-26,-1,2,8,-5
1523182993071707,0,-6,11,39,-2,-10,-9,-29
1523182993071707,-19,11,-20,-19,3,11,0,-9
1523182993078724,-2,2,-9,-30,-4,-1,-5,14
1523182993078724,2,33,3,-14,-2,-6,-11,17
1523182993094767,-29,1,11,-7,-4,-4,-8,-16
1523182993094767,15,-7,-2,42,3,3,3,14
1523182993096772,38,10,36,12,4,0,6,24
1523182993096772,-3,2,2,11,0,-4,-1,-22
1523182993117248,18,1,-8,-17,4,-1,2,3
1523182993117248,-13,10,-16,-20,-14,0,-10,-17
1523182993118830,25,-23,-1,8,-14,-3,11,14
1523182993118830,-14,2,3,19,-10,-5,-12,-37
1523182993132270,7,14,-2,-21,11,10,16,53
1523182993132270,21,52,-1,11,3,-4,0,-13
1523182993137882,-28,-57,-24,19,8,-2,2,-9
1523182993137882,20,14,7,16,-19,-1,-10,-26
1523182993154927,-12,-18,10,-53,20,-12,-17,34
1523182993154927,-9,17,-22,-2,-18,0,7,-1
1523182993155929,-4,51,6,19,6,8,-2,-6
1523182993155929,28,-29,3,6,0,4,12,-39
1523182993176985,-4,-3,-11,7,-11,-6,-11,13
1523182993176985,20,-33,14,-16,-4,-7,4,20
1523182993178992,4,27,-3,-5,10,7,-10,-80
1523182993178992,-16,5,-10,15,9,4,-11,13
1523182993192029,-5,-10,8,-8,-7,0,1,-20
1523182993192029,4,-3,3,-11,0,-3,-5,0
1523182993198082,3,15,9,34,1,-6,-2,-33
1523182993198082,-5,26,13,-1,17,8,8,35
1523182993215609,-19,-72,-26,1,-14,-7,1,-6
1523182993215609,-5,-7,21,-1,-5,13,7,9
1523182993216089,8,13,7,-2,4,-3,14,24
1523182993216089,-18,-21,-30,-62,-11,-9,-1,-2
1523182993237189,11,6,20,36,-12,-1,-1,30
1523182993237189,6,13,-2,-6,15,4,10,34
1523182993239150,-4,-22,-8,17,1,-2,-8,-20
1523182993239150,11,13,5,2,5,3,9,49
1523182993251591,-49,0,-18,-3,10,1,13,-37
1523182993251591,66,4,-7,-9,-32,-7,-3,3
1523182993260226,-24,12,2,-7,14,2,1,-10
1523182993260226,-10,-10,-8,2,-5,-1,-1,13
1523182993274246,21,19,-2,1,1,-4,10,-6
1523182993274246,-38,29,0,9,3,9,-1,1
1523182993276249,12,-13,6,8,-14,-6,1,30
1523182993276249,3,-48,-13,-32,-2,-1,-12,-30
1523182993297344,-3,-71,-14,15,-10,2,-1,-35
1523182993297344,-8,0,-6,-14,-3,-10,-17,-3
1523182993299310,5,7,-8,10,-2,0,2,21
1523182993299310,-14,22,4,17,19,1,6,-11
1523182993310341,9,19,32,11,-4,2,-10,-13
1523182993310341,-9,6,1,12,-8,-1,-1,-2
1523182993319364,-6,-40,-16,-58,-1,-2,2,12
1523182993319364,8,20,38,45,4,-2,-10,-9
1523182993334821,11,9,-17,-16,-9,-8,-4,-12
1523182993334821,21,1,-7,-5,6,-2,6,-13
1523182993336410,-10,3,-10,-4,0,-2,1,16
1523182993336410,-30,-11,-3,-7,-9,4,-1,4
1523182993357503,-5,-3,-12,7,4,5,-5,-61
1523182993357503,-26,-25,-6,-26,-7,-1,11,55
1523182993358467,7,-22,-11,12,-1,-6,-1,4
1523182993358467,6,3,-9,2,-5,-8,-21,-48
1523182993370543,-3,14,9,9,-7,-3,-8,40
1523182993370543,-14,13,-6,0,13,1,-5,-58
1523182993379991,-4,-10,2,-14,-12,-5,-8,4
1523182993379991,-6,14,5,31,11,-2,10,52
1523182993394567,10,26,-11,-4,-9,0,2,9
1523182993394567,9,-68,2,-7,0,-3,-4,11
1523182993396570,-1,1,2,-14,0,-4,-3,-6
1523182993396570,6,27,13,-8,-2,2,-5,-23
1523182993417921,1,-5,-16,-9,4,0,5,16
1523182993417921,15,3,15,24,0,-1,2,6
1523182993418628,-31,-6,8,33,4,3,9,-49
1523182993418628,29,-11,-23,-56,-9,-6,0,32
1523182993430660,29,13,-18,-6,-5,2,1,3
1523182993430660,-19,-4,5,6,0,-6,-5,0
1523182993439683,12,-14,-4,-4,-1,0,-23,43
1523182993439683,-3,37,-3,3,-3,-7,-4,2
1523182993454724,6,-11,38,9,18,10,5,-16
1523182993454724,-5,37,-16,15,6,5,-13,-31
1523182993456728,-27,-49,-20,-9,-6,-5,4,103
1523182993456728,76,-30,13,42,9,1,4,-10
1523182993476783,-11,-23,-10,-60,-26,-14,-20,-64
1523182993476783,-5,18,21,9,27,19,11,57
1523182993478787,-2,55,2,-10,-2,1,10,-17
1523182993478787,-29,-46,-24,11,-16,6,-13,-47
1523182993490860,-13,-14,8,19,1,-3,11,25
1523182993490860,10,-7,-10,-43,-15,-5,50,-46
1523182993499844,28,58,6,1,4,7,-36,-37
1523182993499844,-20,-6,-17,-6,2,-1,-5,16
1523182993521903,-5,39,-16,-5,-9,-4,7,30
1523182993521903,7,3,10,20,8,-15,15,0
1523182993523908,5,2,29,11,23,18,25,-10
1523182993523908,-8,15,0,-9,-27,-2,4,-33
1523182993536944,-11,-11,-15,-7,4,15,11,0
1523182993536944,-12,5,9,10,-5,-8,-22,33
1523182993538947,-8,-74,-3,6,-9,-18,-7,-32
1523182993538947,1,7,11,-11,2,-2,-14,17
1523182993551480,3,29,9,16,-1,3,11,13
1523182993551480,5,41,-4,-8,9,2,-13,17
1523182993560004,-8,-50,-35,-9,-17,-2,-8,4
1523182993560004,-25,1,-3,-7,-3,-11,4,16
1523182993575044,-3,-3,13,12,0,-12,-21,-19
1523182993575044,6,10,-10,-17,-4,6,-13,8
1523182993576046,-8,7,3,0,-1,-3,-1,-45
1523182993576046,-3,6,-25,-7,-11,-16,-1,57
1523182993597105,3,-12,8,-6,6,9,-19,-29
1523182993597105,-9,4,5,-2,1,1,-3,-43
1523182993599144,0,10,11,-2,-1,2,8,-12
1523182993599144,10,3,7,1,-2,-3,6,35
1523182993611140,9,49,-8,-1,7,10,-15,-16
1523182993611140,-7,-35,15,4,0,-9,-10,0
1523182993620164,-12,-6,-30,-3,-12,-8,8,23
1523182993620164,13,3,26,-6,14,14,-7,-40
1523182993634598,-11,3,1,-6,8,3,26,-22
1523182993634598,-1,37,2,39,0,3,-4,-13
1523182993636206,-22,-58,-5,-69,-7,-2,15,5
1523182993636206,-9,-22,-14,17,-9,-12,-15,-22
1523182993657297,2,-13,-5,-6,-4,-7,6,46
1523182993657297,-6,7,-3,0,4,10,20,-16
1523182993659266,12,24,11,25,6,-1,2,8
1523182993659266,-15,-4,14,-23,-7,-2,13,24
1523182993680489,4,-5,11,27,4,5,-5,20
1523182993680489,-13,8,-31,-14,2,-1,-1,-26
1523182993681326,2,-66,-6,13,1,-2,-16,-23
1523182993681326,8,6,30,4,10,3,9,-3
1523182993694360,-7,-19,-19,-8,-2,-8,-11,-5
1523182993694360,8,-4,-16,-19,-12,-6,-11,20
1523182993700788,5,59,-3,10,4,3,4,-9
1523182993700788,-2,-18,24,35,10,15,7,21
1523182993717807,0,-11,-9,-16,-13,-8,-15,-21
1523182993717807,-15,-18,3,6,1,-2,1,6
1523182993718423,-2,50,11,-23,-1,3,-14,24
1523182993718423,0,9,-9,7,8,-8,-2,-23
1523182993747539,0,-6,-2,-10,0,2,-10,-82
1523182993747539,0,-23,11,7,-5,0,-9,35
1523182993748504,6,-4,5,13,-9,-6,-15,9
1523182993748504,-16,16,-15,-8,23,8,-1,-13
1523182993754522,4,-7,5,-6,-5,-3,-10,32
1523182993754522,-20,4,-1,-26,-3,-3,-5,-40
1523182993756526,-13,0,7,16,-8,-11,3,-22
1523182993756526,16,-25,-27,-8,-1,8,1,8
1523182993777584,4,7,0,-1,-5,-5,15,18
1523182993777584,6,-2,3,-4,2,-4,-1,33
1523182993779629,10,30,17,17,-1,9,-9,-6
1523182993779629,-11,-7,-3,1,-15,-11,3,-2
1523182993799677,15,26,8,6,6,0,17,116
1523182993799677,-6,-81,9,27,-2,0,2,-25
1523182993801646,-5,0,-11,-39,-7,-10,-3,-49
1523182993801646,1,22,-16,-3,2,1,9,-13
1523182993814946,-4,-16,8,0,-7,1,14,-21
1523182993814946,18,25,10,-18,1,0,-5,-46
1523182993820698,13,17,17,23,7,9,32,72
1523182993820698,-9,-6,-24,-17,-12,-7,-19,27
1523182993836782,6,-32,14,17,-3,-4,4,-32
1523182993836782,4,9,-28,-25,-14,-12,-19,36
1523182993838744,-19,-22,-21,-10,1,1,10,-49
1523182993838744,7,-38,0,0,2,2,-5,-12
1523182993859801,-7,54,-4,27,2,-4,-13,8
1523182993859801,-18,-37,5,2,-5,-4,6,-23
1523182993860803,4,34,21,19,1,13,0,-24
1523182993860803,3,7,-7,-9,5,3,4,10
1523182993873838,-10,-9,-24,-65,-14,-6,-1,-8
1523182993873838,-7,-11,-12,21,-1,-2,0,-23
1523182993881250,-35,32,-14,0,9,-7,-11,8
1523182993881250,-7,-69,-14,21,-11,-9,2,-27
1523182993896937,6,-33,1,-38,10,14,0,-59
1523182993896937,1,18,-21,-23,3,15,-10,69
1523182993898905,11,37,-3,1,2,2,-11,75
1523182993898905,34,18,25,33,4,-2,-7,12
1523182993919961,-45,-62,0,-6,-10,-13,-3,16
1523182993919961,3,-9,11,-14,-4,-7,0,-40
1523182993920963,16,-17,-2,38,-4,-4,5,4
1523182993920963,40,49,15,-19,-3,6,-20,86
1523182993934423,-8,1,17,48,5,-1,10,3
1523182993934423,10,27,-16,-69,-4,-14,-9,-21
1523182993941019,15,11,-17,-10,6,17,9,-15
1523182993941019,-25,63,7,5,-8,-6,14,-35
1523182993957091,-11,-1,-19,-1,6,1,-5,-12
1523182993957091,-22,-100,-13,31,-9,-13,4,-21
1523182993959102,6,6,-7,-43,7,11,-5,-76
1523182993959102,-3,14,8,1,8,16,-20,34
1523182993980514,9,38,6,12,1,-2,-10,11
1523182993980514,12,35,11,13,14,5,4,-44
1523182993981123,-10,-20,5,21,-11,-14,-1,7
1523182993981123,36,8,13,-4,0,8,16,42
1523182993994160,28,8,-3,8,8,-1,-15,-7
1523182993994160,-14,44,8,4,2,-2,-27,53
1523182994001407,-7,-7,25,-21,-15,-8,4,-28
1523182994001407,-49,35,-26,-17,-9,-9,-22,-92
1523182994024238,71,-62,-36,-9,-7,0,-12,40
1523182994024238,12,-14,-11,4,5,-3,16,2
1523182994026243,-1,3,7,15,2,-2,11,48
1523182994026243,3,14,22,-2,-1,2,10,10
1523182994039278,-11,64,20,12,0,-4,-2,-20
1523182994039278,-18,-13,-13,-18,-5,1,-5,-13
1523182994041290,-13,-87,-17,25,-5,-8,1,-55
1523182994041290,22,-32,-22,-33,-7,-11,-5,19
1523182994054319,-2,9,12,-1,3,15,-3,-33
1523182994054319,2,16,25,34,23,9,21,8
1523182994060332,5,19,8,34,-5,0,-16,46
1523182994060332,7,7,-9,-34,-2,-8,11,-36
1523182994077380,6,-53,-24,-17,-8,-10,-12,-62
1523182994077380,21,39,7,-5,-17,20,16,99
1523182994079595,-5,-64,-19,-24,11,-2,-16,-1
1523182994079595,-13,1,7,33,7,-6,11,2
1523182994100513,-20,40,12,8,-5,-10,4,5
1523182994100513,9,22,-12,-19,-8,5,7,-18
1523182994101442,5,-14,31,6,16,-1,4,4
1523182994101442,-23,-58,1,-1,-9,0,5,-15
1523182994114849,-17,-22,-6,-29,-11,-7,-18,18
1523182994114849,7,65,7,8,-6,-9,2,-7
1523182994120494,6,-41,-6,29,8,9,18,5
1523182994120494,-20,21,-6,-54,-7,0,-11,-62
1523182994137539,-12,28,-15,39,2,1,6,22
1523182994137539,4,-54,17,-44,-8,-7,-18,-91
1523182994138540,-6,119,0,-41,-15,-7,-1,31
1523182994138540,-16,-73,-14,41,24,12,4,-8
1523182994159598,-8,21,8,-9,-24,-4,8,21
1523182994159598,-18,10,-4,6,19,15,7,-10
1523182994161603,-6,27,5,-11,-12,-8,6,-40
1523182994161603,-8,14,-28,-13,-14,-6,37,-9
1523182994173639,8,19,11,1,20,3,-5,37
1523182994173639,9,-34,-24,24,-3,-2,4,28
1523182994182659,10,49,7,-5,6,-7,-15,-39
1523182994182659,-36,-60,-8,-17,-8,6,0,17
1523182994197698,2,-40,-17,2,7,1,-7,34
1523182994197698,-48,-28,-5,14,-6,0,-21,30
1523182994198701,36,7,8,-22,-6,-6,-10,9
1523182994198701,25,37,13,30,-8,-4,-7,65
1523182994219757,-20,2,-16,-1,11,1,3,-17
1523182994219757,-8,2,45,8,10,0,-6,-21
1523182994221762,2,-70,-5,35,-7,7,14,3
1523182994221762,2,17,6,-41,-5,-8,-11,-20
1523182994234189,-7,-1,-6,-16,7,2,9,-3
1523182994234189,41,28,-5,12,-6,0,26,7
1523182994242818,-21,4,-20,-17,4,-5,4,1
1523182994242818,6,2,29,20,-8,2,7,2
1523182994256891,-1,-34,-10,14,4,9,-10,3
1523182994256891,-11,43,-3,-24,-13,-7,-3,-46
1523182994258862,19,-34,0,3,11,-2,-36,44
1523182994258862,-27,14,-19,15,2,-9,-2,45
1523182994280320,12,-48,-4,-13,-14,-2,-8,-37
1523182994280320,2,7,12,-21,-7,-8,-9,19
1523182994280921,3,14,-9,-12,5,7,1,28
1523182994280921,-24,53,5,10,2,-7,-7,-16
1523182994301978,-25,-1,-2,-6,0,3,12,-35
1523182994301978,22,-28,9,6,6,-4,-20,43
1523182994303981,4,32,4,3,-5,1,3,-5
1523182994303981,10,-7,1,-35,0,11,-4,-27
1523182994317534,-10,-12,-14,-2,24,-7,1,-8
1523182994317534,-28,-27,-40,21,-28,-5,-2,-37
1523182994319022,-1,43,3,-51,-4,1,-6,23
1523182994319022,40,-25,13,19,13,0,-26,-76
1523182994340082,22,0,23,4,4,-6,2,51
1523182994340082,-22,-8,-17,-5,-13,-3,-19,-19
1523182994341079,-2,-15,15,26,12,10,-10,-15
1523182994341079,-26,43,1,-2,3,9,2,19
1523182994353114,37,-16,5,-4,-5,-7,5,-7
1523182994353114,4,4,2,36,2,-4,-29,83
1523182994362379,-12,-30,-17,-38,-19,-11,-1,-16
1523182994362379,2,35,26,11,-3,-4,6,3
1523182994377178,-9,-11,6,11,4,8,5,-37
1523182994377178,-34,-1,-18,17,-7,-8,36,-7
1523182994379183,40,21,-13,-49,-4,2,-17,-11
1523182994379183,7,-24,1,-5,13,8,-2,11
1523182994400617,-9,39,12,10,-10,-1,-9,-24
1523182994400617,21,3,8,-16,4,-5,10,-58
1523182994401242,-25,-44,3,27,7,8,12,-34
1523182994401242,5,27,13,-1,-7,-3,-19,-7
1523182994413644,3,31,3,-9,-14,-6,-13,55
1523182994413644,-4,-24,-18,-6,11,-12,12,7
1523182994422295,-23,22,15,20,-20,7,2,-43
1523182994422295,59,-3,-25,-4,1,4,-7,89
1523182994437336,-51,-53,-24,50,1,4,10,21
1523182994437336,4,11,17,-89,-8,-14,-23,-15
1523182994438339,-6,-6,-19,-2,-23,-21,-6,3
1523182994438339,1,-11,-5,15,24,19,38,-70
1523182994459429,-68,-15,4,-3,-2,6,-7,-39
1523182994459429,42,13,5,-1,8,7,5,22
1523182994461400,-1,25,-16,-2,-14,-20,8,13
1523182994461400,-38,2,20,7,-13,-15,3,-19
1523182994473431,47,-38,-3,-6,12,23,12,-13
1523182994473431,5,-33,-20,22,4,8,4,-28
1523182994482458,-13,-12,3,-18,-4,-3,-1,21
1523182994482458,-8,35,1,11,-18,-25,-7,7
1523182994498003,0,7,21,10,0,-2,-1,-31
1523182994498003,27,-40,-12,-17,1,13,-6,31
1523182994498498,9,0,-13,14,5,-1,0,11
1523182994498498,-2,-15,-17,-16,2,-3,2,12
1523182994519578,32,86,14,-5,-5,-12,8,-3
1523182994519578,-52,31,60,23,-6,3,-30,69
1523182994521560,-18,-59,-31,-16,5,2,-7,-15
1523182994521560,-2,25,0,-9,-1,3,0,-24
1523182994533988,17,16,-1,3,-1,3,3,4
1523182994533988,28,68,1,7,11,2,18,-12
1523182994542617,-36,-56,31,31,-6,6,8,18
1523182994542617,-21,-45,-14,-18,-12,-12,-20,-25
1523182994557654,1,20,-15,-19,-14,-18,-6,-15
1523182994557654,2,-1,-7,22,14,24,14,17
1523182994558657,9,57,15,25,3,6,7,20
1523182994558657,0,-24,-25,-2,5,2,8,-13
1523182994581048,-11,-15,-2,6,6,-7,-9,12
1523182994581048,-19,-18,14,-42,-31,-20,-6,-28
1523182994581719,8,8,-4,-6,-4,5,5,-36
1523182994581719,5,2,19,13,12,11,-5,26
1523182994593752,7,41,-16,-16,-13,-9,21,24
1523182994593752,-14,-40,-12,23,9,-2,-9,-90
1523182994602776,5,23,-7,-20,4,-1,-35,53
1523182994602776,-6,6,13,2,-13,-8,-1,16
1523182994617244,-15,-33,-11,-1,4,-1,-2,-20
1523182994617244,-5,25,-20,7,-4,-8,3,19
1523182994618820,5,-17,17,6,6,2,4,-16
1523182994618820,-5,-26,-14,15,8,7,-6,4
1523182994639915,-1,33,25,-9,-3,1,-1,32
1523182994639915,72,2,-20,-11,-11,-7,0,-8
1523182994640878,-21,-9,-23,8,9,-4,-4,-11
1523182994640878,11,11,1,-9,-5,-3,3,30
1523182994662375,4,-12,17,49,3,3,-2,-36
1523182994662375,-17,-24,-18,-77,-3,6,2,13
1523182994663939,17,23,-20,15,1,-4,26,-25
1523182994663939,15,-20,-1,5,-5,1,-2,9
1523182994677979,-5,1,-4,-13,-1,2,-6,6
1523182994677979,-25,37,11,24,9,4,-3,-58
1523182994678978,53,18,25,1,4,3,2,12
1523182994678978,-6,16,-7,-16,-4,-2,-8,-19
1523182994700460,-13,-26,-9,7,-11,-15,-15,9
1523182994700460,-10,9,5,0,11,17,5,-21
1523182994701040,-3,-34,-12,6,-1,-6,-5,34
1523182994701040,-24,24,35,10,-1,-3,3,-17
1523182994722132,38,18,16,13,6,2,-1,23
1523182994722132,-9,-25,-21,-25,-9,-15,-8,-13
1523182994724097,-8,13,-11,-31,0,-1,7,-42
1523182994724097,10,-59,-9,-10,-3,11,16,33
1523182994737132,-9,-34,-1,-6,0,-3,-4,4
1523182994737132,-3,34,12,35,3,0,10,6
1523182994739139,-11,-36,-13,8,-7,-4,-9,-7
1523182994739139,-54,-9,-10,4,-4,-2,0,-64
1523182994759190,12,15,24,-35,1,3,3,21
1523182994759190,-1,-6,5,32,2,-4,0,21
1523182994761197,2,38,19,4,5,3,6,-6
1523182994761197,-3,-25,-16,10,4,1,-9,5
1523182994782662,-1,1,-5,-7,-11,-2,-7,-16
1523182994782662,-29,-14,-4,-6,-7,-4,-12,47
1523182994784258,-31,17,-2,7,2,1,5,8
1523182994784258,38,-28,11,8,12,5,-2,-36
1523182994797353,-7,13,-5,-36,0,3,3,14
1523182994797353,21,18,11,0,-10,-7,2,35
1523182994803308,-15,-21,25,-5,-1,0,5,-13
1523182994803308,7,-2,-28,3,-11,-7,-4,-7
1523182994819352,0,4,-22,-10,5,2,5,57
1523182994819352,-16,-73,1,8,9,1,13,-34
1523182994821356,26,11,18,54,-18,-8,-11,19
1523182994821356,4,24,-13,-53,-11,-13,4,5
1523182994842411,-4,13,3,22,9,12,-4,-30
1523182994842411,6,18,-24,-22,-13,1,8,0
1523182994843414,-20,-19,-15,-27,7,5,3,-1
1523182994843414,2,-9,15,18,-2,-6,-2,-13
1523182994857452,-16,20,-15,-9,-11,-10,18,61
1523182994857452,3,-14,-9,11,0,4,3,36
1523182994863969,4,22,9,0,12,3,-6,-43
1523182994863969,18,34,5,-4,-19,-5,-3,15
1523182994880513,-47,-83,0,-4,5,-7,-6,-34
1523182994880513,-5,3,-7,23,2,1,-2,-25
1523182994881516,11,0,19,-9,7,6,-2,5
1523182994881516,2,14,0,-39,-2,-2,2,29
1523182994902617,-4,8,-8,27,-14,2,-1,-54
1523182994902617,30,20,12,33,7,7,-17,13
1523182994903575,-3,20,-6,-67,-3,1,-17,-34
1523182994903575,-12,-70,-4,21,8,-4,-3,26
1523182994916976,-24,-23,-17,-28,-15,-11,8,-48
1523182994916976,-3,3,-3,2,5,3,-6,-2
1523182994923629,5,26,-8,-2,1,-3,7,29
1523182994923629,4,63,-1,4,3,7,6,-42
1523182994939671,62,-39,0,-6,-3,0,-15,36
1523182994939671,-4,-5,15,-11,-6,-7,-2,0
1523182994941676,-30,-36,-20,25,-4,-7,-7,-29
1523182994941676,-5,0,-3,1,1,-1,6,21
1523182994962894,13,57,6,-7,-2,1,-20,-49
1523182994962894,8,-29,9,8,5,-3,1,-14
1523182994963736,-10,-9,-22,-14,-10,-2,14,41
1523182994963736,-5,-26,20,3,-3,-1,-16,-86
1523182994975767,-7,74,18,7,9,8,2,35
1523182994975767,-15,-62,-20,4,-7,-7,4,2
1523182994984796,-6,-18,-18,-11,-9,-11,-7,18
1523182994984796,-19,-22,3,11,1,5,15,-26
1523182994999870,-13,10,9,-4,7,-1,-23,6
1523182994999870,25,29,-2,1,-4,-5,-1,-6
1523182995000835,14,-11,0,7,-1,-2,7,12
1523182995000835,7,27,2,-4,-8,4,1,10
1523182995021894,20,-17,-7,12,1,-1,3,-7
1523182995021894,-8,1,13,20,4,1,-4,-23
1523182995023894,25,-2,-38,-74,-23,-4,4,-1
1523182995023894,-21,14,4,14,4,-2,-12,22
1523182995036933,11,-12,2,-4,3,1,15,15
1523182995036933,-6,43,1,4,1,-2,-9,-49
1523182995042981,39,-41,11,21,6,3,4,29
1523182995042981,2,7,-9,-9,0,0,15,59
1523182995059991,-30,-43,-17,4,-9,-4,2,-6
1523182995059991,7,20,13,-13,-5,-2,-6,-27
1523182995061996,16,22,6,43,10,7,11,34
1523182995061996,-3,-36,-12,-65,-12,-6,-9,-13
1523182995082461,0,4,8,-3,6,2,11,33
1523182995082461,4,17,-18,-10,-6,-1,-2,11
1523182995084057,-10,14,24,7,7,-2,-20,-28
1523182995084057,12,5,13,30,9,1,5,-8
1523182995096467,-5,-4,-15,-8,-34,-19,-6,-26
1523182995096467,-18,2,-4,-31,24,5,1,15
1523182995103104,-32,20,4,32,9,15,0,29
1523182995103104,-7,-5,-9,5,-5,3,0,15
1523182995119149,0,15,-7,2,-4,-5,-11,-14
1523182995119149,-3,-8,-2,-1,-9,-9,15,20
1523182995121152,-9,26,21,7,12,-12,-16,-14
1523182995121152,21,30,9,0,-5,6,1,1
1523182995142209,2,-32,-12,12,0,10,3,2
1523182995142209,-15,34,5,0,-3,-5,1,-7
1523182995144214,5,-49,-15,-3,-2,-1,-5,5
1523182995144214,-43,-12,11,12,7,-6,2,-60
1523182995156246,57,11,6,-9,3,0,-2,-3
1523182995156246,-31,-16,12,-9,-9,0,-5,25
1523182995165275,-1,32,-8,11,-9,-6,-4,-36
1523182995165275,2,10,-1,4,3,-4,-4,31
1523182995180585,-7,13,-12,-35,1,6,-4,-10
1523182995180585,2,-20,5,-4,-5,-1,-5,-14
1523182995181313,-2,-25,-8,-2,-13,-8,-4,28
1523182995181313,-21,-58,-9,12,2,-3,-10,-19
1523182995202425,-9,-3,-30,0,3,-3,4,4
1523182995202425,12,34,2,-11,-5,1,1,9
1523182995203372,-6,-14,-1,-5,2,1,5,-12
1523182995203372,12,18,0,2,-5,-2,5,-18
1523182995215832,9,4,5,2,-2,-8,11,88
1523182995215832,-3,5,-17,3,-5,0,0,-12
1523182995224468,-50,-13,-3,3,8,10,8,-9
1523182995224468,0,-11,-6,25,-7,-4,-3,26
1523182995239470,49,28,6,-33,9,8,-4,-47
1523182995239470,-26,-15,-26,-9,-12,-10,-6,-4
1523182995241473,7,27,22,-2,4,1,7,3
1523182995241473,-5,-52,-21,2,-2,0,18,-34
1523182995262933,-29,-24,-7,10,-7,-6,-30,13
1523182995262933,7,11,-7,4,11,5,-1,13
1523182995263532,32,-48,9,-9,-1,3,7,-75
1523182995263532,14,46,17,-9,-5,-1,-3,20
1523182995275564,-14,-15,8,-12,-6,-8,0,-26
1523182995275564,1,-9,1,9,2,3,3,3
1523182995284589,2,41,-1,6,-2,-10,-9,10
1523182995284589,12,43,-14,10,-2,9,4,-3
1523182995299664,-13,-15,16,3,2,5,9,-6
1523182995299664,-7,-27,-3,-7,8,2,-3,31
1523182995301633,2,-3,6,22,-1,-3,0,-20
1523182995301633,12,89,-2,-32,-1,-13,-13,19
1523182995321727,-31,-58,-13,-9,-3,-2,7,-2
1523182995321727,-6,11,20,19,5,13,4,-12
1523182995323691,-16,-40,-13,17,2,-2,-4,0
1523182995323691,-2,13,-10,-21,-5,-2,-8,8
1523182995335767,16,36,23,25,4,-4,1,18
1523182995335767,-37,5,9,6,-5,-2,6,-10
1523182995344747,42,15,3,-31,1,3,-1,35
1523182995344747,-14,-36,-5,41,8,-2,-11,8
1523182995359787,-8,4,0,-16,2,2,-8,-40
1523182995359787,23,-20,16,5,-16,-12,-3,5
1523182995360792,-16,32,-4,-4,-8,-3,9,-6
1523182995360792,-1,-44,-25,-19,8,12,1,40
1523182995382932,-17,2,-2,4,-6,-10,-4,-27
1523182995382932,28,14,-6,-6,6,-3,-2,4
1523182995383855,-15,-2,7,9,12,8,-5,-4
1523182995383855,15,20,-1,10,-19,-17,-2,-15
1523182995396212,-12,-44,-18,-19,1,22,12,13
1523182995396212,0,7,5,2,10,0,-4,-4
1523182995412316,11,-47,-12,3,-11,-8,0,-13
1523182995412316,-40,-45,0,4,5,2,-6,-10
1523182995419953,2,40,8,6,0,-5,-8,-57
1523182995419953,9,-11,-11,19,1,1,11,56
1523182995420960,36,20,7,-43,-18,4,1,24
1523182995420960,-74,16,-5,-2,4,-1,1,-25
1523182995442005,-7,7,17,31,-1,-2,-5,-28
1523182995442005,14,-21,-15,-26,-6,-6,-15,9
1523182995444011,-28,13,1,9,-1,-4,3,8
1523182995444011,19,-30,-4,-18,2,1,-16,-29
1523182995456079,-1,10,-1,3,-4,-1,12,25
1523182995456079,0,30,4,3,-1,-6,-2,-38
1523182995465072,-6,25,-14,-14,-4,5,-1,-1
1523182995465072,-15,-63,-9,-11,4,11,5,-52
1523182995480485,27,-14,16,14,2,-5,-3,41
1523182995480485,10,-8,-2,-10,-11,-12,-4,-8
1523182995481111,7,47,11,14,10,9,1,-6
1523182995481111,23,2,14,16,1,1,-3,-21
1523182995502168,-13,17,-17,-32,-1,-2,-2,-2
1523182995502168,25,-18,0,11,2,3,-5,14
1523182995504170,-13,-33,-16,-12,-1,-10,5,2
1523182995504170,16,22,10,10,-13,-17,-14,63
1523182995524224,3,16,-2,11,6,21,4,23
1523182995524224,0,-20,-22,-15,0,8,1,-21
1523182995526229,-84,-18,-3,8,0,-4,-16,-92
1523182995526229,14,-2,-13,-45,-10,-3,-7,50
1523182995539264,7,18,1,34,-1,-12,-1,-10
1523182995539264,-12,6,10,-2,3,3,-1,-30
1523182995541270,14,15,4,6,0,3,2,2
1523182995541270,-4,1,-7,-5,-1,-7,4,-21
1523182995562725,-7,-6,-19,-37,-3,-5,-4,2
1523182995562725,8,2,-16,-11,-8,1,14,33
1523182995563329,0,-83,-6,6,13,-6,-3,37
1523182995563329,30,-17,-6,6,-12,-5,-3,-11
1523182995584408,16,18,6,-24,-8,-1,1,-2
1523182995584408,-5,5,-2,4,6,-3,-6,19
1523182995586390,10,18,1,12,4,5,-2,7
1523182995586390,-1,7,10,20,5,1,8,18
1523182995599462,-8,-8,6,33,11,13,2,15
1523182995599462,-8,-1,-7,-9,-13,-10,3,18
1523182995601432,-2,0,2,11,-6,-6,-18,8
1523182995601432,6,4,25,22,14,0,2,18
1523182995622486,12,0,-14,-43,-20,-9,-6,3
1523182995622486,37,-26,2,24,4,-4,-15,0
1523182995623488,22,-3,-7,-10,-3,4,4,-20
1523182995623488,11,30,25,12,0,0,19,85
1523182995644545,-20,-12,5,-42,-8,-5,4,-4
1523182995644545,-14,23,-7,8,1,0,-2,8
1523182995646551,10,-27,-18,-1,-3,-5,7,44
1523182995646551,2,2,-3,17,3,6,-3,-29
1523182995659586,-7,-8,-12,-22,2,-4,-3,-8
1523182995659586,-23,16,11,-10,-2,4,5,-25
1523182995661627,-6,12,1,4,-1,2,6,-11
1523182995661627,-21,27,-1,2,2,-1,-1,-2
1523182995682036,9,15,32,-17,8,-5,2,9
1523182995682036,-14,-35,4,8,-5,4,-7,-39
1523182995689663,4,25,-6,-38,-14,-8,-1,11
1523182995689663,10,-47,-25,23,18,2,6,-22
1523182995704703,-9,3,-6,18,-4,7,-9,-32
1523182995704703,-3,3,-15,-3,7,-6,6,4
1523182995706709,26,-8,19,4,-5,6,2,26
1523182995706709,-13,55,15,-18,-5,-2,-18,-14
1523182995718742,10,-47,-7,16,-6,-7,3,26
1523182995718742,-31,12,-14,-20,1,-1,0,-11
1523182995725760,5,18,-12,-8,-2,-4,-1,-1
1523182995725760,-2,-21,-3,-4,-2,0,9,-25
1523182995741804,10,18,-1,43,14,2,-2,-1
1523182995741804,3,-20,6,-22,-7,3,-3,-7
1523182995743809,-17,-6,11,24,4,-5,-8,-18
1523182995743809,2,8,1,-36,-9,-2,0,-10
1523182995764862,-5,14,17,12,5,1,1,3
1523182995764862,14,1,4,1,4,5,9,10
1523182995765899,-13,0,-11,7,-8,-6,10,-27
1523182995765899,10,18,-2,-33,-6,-2,-5,19
1523182995778901,-5,-20,-8,7,5,5,1,4
1523182995778901,-11,-61,2,19,-1,-8,-11,-28
1523182995785924,-2,11,6,-14,-5,-1,0,7
1523182995785924,6,-19,-9,-4,-1,5,6,16
1523182995801965,-3,94,22,15,3,-2,3,1
1523182995801965,-9,-38,2,0,-2,-3,-3,-2
1523182995803967,-22,41,-3,22,5,9,8,51
1523182995803967,16,-58,-28,-44,-7,-4,-1,-20
1523182995825024,0,30,-11,23,2,-5,-8,-17
1523182995825024,2,23,49,3,6,-1,0,7
1523182995826027,4,10,-22,-72,-16,-7,-4,-21
1523182995826027,-26,21,6,42,3,-2,-1,-38
1523182995839062,9,-39,-9,4,3,0,4,42
1523182995839062,7,29,-5,-5,-6,0,5,-3
1523182995846596,-5,-40,4,19,6,-2,-7,3
1523182995846596,-1,25,6,-21,-4,3,-3,-17
1523182995862505,-6,-49,-4,-4,-1,-1,-1,-15
1523182995862505,-6,11,-11,14,-7,-4,-2,-5
1523182995864128,7,37,8,32,13,-2,-10,-21
1523182995864128,-14,-24,-32,-18,-13,-2,9,25
1523182995885183,-12,-35,-1,-24,-13,-9,0,1
1523182995885183,3,-3,-21,-13,5,12,-14,1
1523182995886188,5,3,23,25,1,-4,5,16
1523182995886188,6,19,0,2,14,10,-4,-12
1523182995899257,-26,-1,-11,0,-4,-4,5,-87
1523182995899257,-34,42,-9,-13,-9,-6,2,47
1523182995906247,31,-97,-7,-18,-1,-4,-16,-8
1523182995906247,2,6,22,35,-1,-8,-7,9
1523182995922283,-5,11,-13,-17,-9,2,0,-13
1523182995922283,4,14,23,12,7,7,2,-32
1523182995924287,-15,-22,-6,-19,-2,2,9,26
1523182995924287,7,-2,5,25,4,-1,6,20
1523182995944383,16,2,1,6,-5,-4,-8,3
1523182995944383,13,14,-2,5,-3,-4,1,-3
1523182995946346,-8,9,8,21,3,2,0,4
1523182995946346,42,-1,13,-28,-3,4,7,1
1523182995959381,-11,13,-14,17,3,2,4,-3
1523182995959381,11,10,4,-9,3,-1,3,23
1523182995965827,-3,-28,-22,19,-11,-6,-5,-15
1523182995965827,-11,2,28,42,11,2,-11,-17
1523182995982847,-3,9,-33,-71,-19,4,2,-62
1523182995982847,13,28,1,41,-8,-7,-8,81
1523182995983447,-12,-40,-20,-35,3,-1,-14,-39
1523182995983447,-15,7,-8,17,-3,-13,-4,3
1523182996004541,8,8,24,19,10,3,-7,53
1523182996004541,0,-47,7,9,5,1,1,-36
1523182996006506,5,55,-13,-44,-7,-1,-4,-4
1523182996006506,-23,4,-5,1,-14,-10,-1,-8
1523182996018540,2,-14,-3,4,6,5,2,-13
1523182996018540,8,-19,5,71,12,4,8,14
1523182996027564,-2,45,-26,-70,-19,-4,-2,8
1523182996027564,0,-18,0,-20,-5,1,8,-16
1523182996042602,-16,24,-2,3,-8,-11,-8,8
1523182996042602,1,-54,-5,17,0,-2,2,-15
1523182996043605,-19,-2,2,-51,0,2,-1,-21
1523182996043605,18,35,16,0,-3,0,-3,-3
1523182996065068,8,22,6,-13,-4,-2,7,1
1523182996065068,-23,4,3,2,11,6,-11,2
1523182996066667,20,0,23,50,7,1,-2,54
1523182996066667,-6,-28,-52,-54,-21,-6,-17,-14
1523182996079086,2,25,23,30,10,2,5,7
1523182996079086,-10,-55,-29,-43,-18,-1,11,19
1523182996087723,6,-2,46,61,10,3,3,-9
1523182996087723,-7,-7,20,89,21,5,-1,11
1523182996101766,11,-16,-26,-62,-20,-6,1,41
1523182996101766,-32,13,-1,1,2,5,-8,-76
1523182996103765,-26,9,-2,22,-1,-1,-2,18
1523182996103765,13,6,5,10,9,1,7,54
1523182996124861,-10,-19,20,25,5,-5,-13,-3
1523182996124861,10,36,3,-10,-3,-5,-3,-14
1523182996125825,-1,-1,-26,-69,-9,0,3,-5
1523182996125825,-6,16,16,18,10,4,1,-21
1523182996138858,-15,17,1,73,10,0,3,3
1523182996138858,-16,-46,-30,-43,-28,-10,-3,13
1523182996154900,31,9,20,62,6,1,9,-49
1523182996154900,-15,-24,-8,-25,-7,-4,-16,16
1523182996169940,3,-16,8,24,10,4,5,1
1523182996169940,18,34,10,10,2,2,2,-6
1523182996170954,2,-11,-16,20,0,2,14,14
1523182996170954,5,19,-1,43,-4,4,5,-1
1523182996185024,27,19,37,69,14,6,1,6
1523182996185024,-14,-33,-11,-29,-1,-2,-10,-35
1523182996185986,-6,-42,-22,-37,-10,-13,-13,-7
1523182996185986,6,44,6,-2,1,0,0,-14
1523182996198019,0,-21,-6,-12,-9,-1,-2,13
1523182996198019,9,-15,-6,43,8,-2,5,-4
1523182996207038,-16,36,2,-31,-4,1,-11,25
1523182996207038,8,-10,-8,-32,-1,-1,-7,-5
1523182996222082,3,27,24,5,9,0,1,-7
1523182996222082,20,26,47,92,20,6,38,15
1523182996224085,-21,-63,-69,-23,-38,-12,-34,-25
1523182996224085,-16,-31,-17,35,-6,-3,-14,-50
1523182996245640,-10,23,12,51,12,4,2,20
1523182996245640,9,-16,-8,-16,-16,-13,-1,23
1523182996247185,7,27,10,22,15,12,9,-8
1523182996247185,2,-19,25,40,6,4,-8,-28
1523182996258175,-7,23,-22,-28,-13,-5,-6,-16
1523182996258175,-18,2,-12,-11,1,-5,-15,0
1523182996267200,1,5,21,22,5,-3,12,4
1523182996267200,-29,-7,-8,-22,-1,1,1,12
1523182996282634,-36,-9,-1,19,-3,-6,-4,-18
1523182996282634,2,8,-7,-34,1,6,4,10
1523182996284246,-13,8,6,55,9,6,-2,-11
1523182996284246,15,9,4,-42,-9,-9,7,12
1523182996304299,13,25,3,-46,-8,-6,5,-4
1523182996304299,-8,-28,-14,-18,-6,5,-14,-15
1523182996306302,-5,-38,-8,46,0,-3,-8,-50
1523182996306302,-6,4,-8,-71,-1,8,-4,15
1523182996318337,39,-48,-23,-10,-5,-3,2,31
1523182996318337,17,71,18,-30,-1,-7,-2,-5
1523182996327359,18,15,54,61,21,7,7,29
1523182996327359,0,-19,-9,-13,-13,-7,-4,2
1523182996342401,-20,-11,-10,31,-2,-4,-2,-2
1523182996342401,-8,25,6,-37,4,2,-1,-20
1523182996343401,45,9,7,43,2,-3,0,2
1523182996343401,-20,4,-14,-88,-3,-2,5,-12
1523182996364893,-19,-35,-5,19,-1,4,-2,-8
1523182996364893,6,32,4,33,3,1,0,17
1523182996366464,7,-52,-11,-1,-4,-3,3,6
1523182996366464,6,-20,-19,-9,-4,-1,0,8
1523182996378870,14,14,10,27,1,2,-2,-13
1523182996378870,-53,-35,-21,-7,-12,-5,-3,-14
1523182996387519,-8,48,7,-29,2,1,22,32
1523182996387519,3,-11,10,60,2,4,8,7
1523182996402559,-13,-28,-28,-56,-7,-3,-25,-35
1523182996402559,16,10,4,5,-1,-3,8,45
1523182996403561,5,19,7,2,6,1,-9,10
1523182996403561,-17,-8,-2,36,1,-4,4,-3
1523182996424620,3,-6,-17,-40,-9,0,11,29
1523182996424620,61,43,9,-2,-8,-5,-10,-35
1523182996426624,-14,-21,6,8,2,4,-5,-37
1523182996426624,-1,-49,-29,19,-1,-3,6,31
1523182996438656,-16,-17,24,31,-1,-3,-4,14
1523182996438656,-2,-16,-16,-15,-4,-5,-7,-16
1523182996447718,3,33,30,32,11,7,10,9
1523182996447718,7,27,-32,-57,-20,7,-12,-32
1523182996463102,10,-14,-3,86,-3,-5,14,5
1523182996463102,-8,3,6,46,4,-1,-5,10
1523182996463724,-10,11,-13,-6,-6,-10,-12,1
1523182996463724,3,5,20,19,2,-1,6,11
1523182996484822,-3,1,-2,-32,5,2,-8,-98
1523182996484822,-13,-23,-12,-33,-5,4,13,-12
1523182996485780,-4,6,-4,-13,-2,-3,-6,24
1523182996485780,-3,-1,14,5,9,-1,-9,20
1523182996506870,25,15,4,-25,-6,-2,-9,-31
1523182996506870,1,4,3,24,5,0,0,-6
1523182996508841,-15,-63,-6,27,4,0,4,-43
1523182996508841,-8,47,5,-35,-7,-10,-15,21
1523182996521878,-26,-33,-6,14,7,6,2,17
1523182996521878,-1,-24,-17,-23,-11,-6,-6,-15
1523182996523881,35,22,4,-2,0,-1,4,44
1523182996523881,3,31,23,54,2,-7,1,-9
1523182996545453,7,-6,-8,49,20,13,7,22
1523182996545453,-14,5,1,-37,-13,-3,-25,-28
1523182996545940,19,-16,-4,33,-1,-3,5,0
1523182996545940,-1,-3,-32,-6,-15,-7,3,-22
1523182996566998,7,34,14,6,-1,-8,-5,30
1523182996566998,-4,14,18,-14,8,6,12,-33
1523182996569005,-35,-25,-48,5,-11,0,-7,-11
1523182996569005,12,12,16,28,10,2,11,18
1523182996582410,54,-16,-6,-31,-6,-4,-2,29
1523182996582410,-3,27,26,105,15,4,0,6
1523182996584041,-23,-31,-46,-30,-28,-10,-14,-32
1523182996584041,-5,-4,-1,57,5,5,10,46
1523182996605096,5,10,-2,-23,-4,2,6,13
1523182996605096,-31,-26,1,29,10,0,3,21
1523182996606100,-7,34,11,-26,0,-1,-9,-24
1523182996606100,-1,-16,2,3,3,-2,6,-10
1523182996627660,-20,-5,6,-21,-11,-8,0,4
1523182996627660,16,8,-7,-22,-7,1,-12,21
1523182996629162,-16,22,8,-4,-4,0,3,-13
1523182996629162,30,-40,2,18,4,1,8,16
1523182996642198,-16,0,-31,-76,-16,-3,7,-10
1523182996642198,0,-21,-14,32,-1,-1,3,25
1523182996644222,13,4,-7,-30,-9,-7,10,-5
1523182996644222,8,33,26,40,9,5,-15,6
1523182996665623,-8,1,-18,11,1,-3,-7,-14
1523182996665623,8,-43,14,-9,4,-5,-2,-13
1523182996666260,-27,-3,0,5,-3,-3,2,4
1523182996666260,-15,-4,-5,-17,-3,3,9,-21
1523182996687355,-5,-5,-15,-42,-3,0,-3,-7
1523182996687355,4,14,-2,-4,-1,1,11,-16
1523182996688317,13,11,17,6,9,3,-21,49
1523182996688317,-1,-5,-2,6,3,1,-2,-17
1523182996701403,-12,-4,19,22,2,2,-3,-3
1523182996701403,2,3,-25,17,-2,-4,-6,-42
1523182996708409,30,3,20,-20,-12,-8,6,32
1523182996708409,-28,2,-20,-16,-1,3,-8,4
1523182996724454,16,2,9,9,1,-1,-6,46
1523182996724454,-1,-15,14,62,6,-1,-1,-26
1523182996726419,-9,-19,-44,-72,-15,4,-14,17
1523182996726419,3,-7,-5,4,-3,-4,-7,-25
1523182996747480,0,4,12,19,1,3,3,-18
1523182996747480,24,7,5,4,-3,-3,13,31
1523182996748478,-57,6,3,12,10,1,8,9
1523182996748478,25,14,27,9,11,-3,2,-7
1523182996762020,-21,5,-13,19,1,0,-8,-1
1523182996762020,3,-37,-5,14,-11,0,-1,-2
1523182996768531,1,1,-18,1,-22,-4,-2,-36
1523182996768531,-10,-2,6,12,9,-1,-7,-39
1523182996784617,11,51,23,46,10,1,1,63
1523182996784617,16,3,-11,23,5,-4,-11,-1
1523182996786582,1,-34,8,-12,-2,-6,-8,-41
1523182996786582,-6,-12,-4,59,-9,-2,-9,-20
1523182996807634,-19,-2,-23,-91,-5,8,12,-21
1523182996807634,-2,-14,14,-36,-4,-1,-2,27
1523182996808639,-1,13,9,39,8,-4,-11,-6
1523182996808639,23,22,13,-22,-5,-13,-5,-5
1523182996821676,4,-5,16,18,-3,-1,11,6
1523182996821676,-7,-6,-16,-29,-3,4,-3,14
1523182996829191,3,-10,10,17,10,1,5,-13
1523182996829191,-13,-19,-17,-57,-7,0,3,-11
1523182996845219,-17,4,7,20,0,-1,-7,-26
1523182996845219,-8,47,6,-9,0,-3,3,-8
1523182996846740,33,-40,-13,-15,-1,1,8,17
1523182996846740,-14,-28,0,39,-9,-6,-4,1
1523182996866793,-1,-34,-22,-42,-5,-3,-5,-12
1523182996866793,-2,-3,25,91,9,5,-3,-2
1523182996868797,14,22,-3,-63,-7,-4,0,-36
1523182996868797,-9,13,9,18,4,9,26,-13
1523182996881223,22,-9,6,91,10,-6,-15,3
1523182996881223,-9,-17,-9,-61,-11,-2,18,-1
1523182996888852,-2,51,7,36,8,1,-11,-15
1523182996888852,-4,4,-4,-9,1,3,2,-50
1523182996903890,13,-37,-7,-43,-6,-4,0,56
1523182996903890,3,39,-1,-9,-13,-9,1,17
1523182996904893,-13,-59,20,3,11,16,6,-39
1523182996904893,-14,14,-3,76,5,-6,-16,-13
