timestamp,emg1,emg2,emg3,emg4,emg5,emg6,emg7,emg8
1523178670549767,-3,-7,-13,-39,-6,-2,-4,-2
1523178670549767,-6,5,13,49,3,-2,-3,-3
1523178670549767,-7,-17,-35,-60,-5,7,25,-2
1523178670549767,0,-4,23,75,4,-2,2,2
1523178670550765,4,11,-10,-27,0,1,-5,2
1523178670550765,0,18,-13,-38,-9,-6,-11,-1
1523178670555181,-8,-32,19,27,3,3,5,-4
1523178670555181,-8,-14,-18,-25,-8,-4,-1,-5
1523178670561151,4,7,4,17,2,1,9,1
1523178670561151,8,10,12,-8,0,-4,-6,0
1523178670579138,5,18,8,25,1,-1,-4,2
1523178670579138,-5,5,-32,-34,-2,-2,2,-1
1523178670581169,-9,-33,22,53,1,4,2,-3
1523178670581169,-1,-22,-3,-16,-2,-3,1,-1
1523178670592229,6,12,1,3,-3,-10,-23,0
1523178670592229,6,4,15,16,5,7,5,-1
1523178670598268,3,26,1,-4,-1,-3,4,3
1523178670598268,5,1,0,10,1,2,-4,1
1523178670614174,-11,-18,2,2,-2,5,14,3
1523178670614174,-3,-3,-6,-16,-4,-3,-4,-9
1523178670625014,-7,-11,-6,-15,-5,-3,-22,-10
1523178670625014,-4,-23,4,18,-2,2,1,-1
1523178670637306,6,20,8,-8,1,-7,-13,-1
1523178670637306,2,7,0,4,0,1,19,6
1523178670677099,2,2,-3,-3,-1,3,-11,2
1523178670677099,-1,-6,7,0,-1,-2,-5,-1
1523178670678100,-8,-8,-33,-4,-8,-3,-6,-4
1523178670678100,1,-6,6,2,1,-2,0,0
1523178670681365,0,-4,4,2,-1,-2,3,0
1523178670681365,0,4,3,10,1,-3,-1,-3
1523178670682113,4,1,3,-18,2,-1,-3,-3
1523178670682113,-4,-14,23,25,2,3,10,-3
1523178670689408,-2,7,-23,-24,-4,-1,-11,-3
1523178670689408,-3,-1,5,12,-1,2,27,0
1523178670696334,1,-9,10,24,3,-2,-12,-2
1523178670696334,-2,5,2,-7,-6,-4,-2,-1
1523178670703381,0,-18,-20,-62,-6,-5,3,-2
1523178670703381,6,16,8,0,3,-1,-4,0
1523178670718507,-6,-6,-2,37,-1,-3,-5,-1
1523178670718507,3,10,15,42,3,6,14,-1
1523178670726426,-6,-8,13,10,-2,0,2,-3
1523178670726426,-3,-2,-12,-6,-3,-7,-30,-2
1523178670749293,3,4,-13,-42,-2,18,56,10
1523178670749293,3,5,-8,-10,1,-4,-7,3
1523178670750295,4,8,10,43,1,1,6,2
1523178670750295,-3,3,-4,-50,-6,-8,-7,-3
1523178670764622,0,-14,36,67,5,2,-13,-1
1523178670764622,-3,-5,-50,-75,-8,-6,-10,-3
1523178670764622,-8,-17,-21,-2,-7,-6,0,-3
1523178670764622,2,-5,6,-23,-2,-3,4,-1
1523178670787649,-4,2,29,61,-1,-8,-23,-5
1523178670787649,-1,11,-11,-11,0,5,29,-1
1523178670787649,4,-10,19,35,3,-3,-3,1
1523178670787649,-8,-6,-10,-13,-3,-1,-22,-3
1523178670809713,5,8,-6,-26,-2,-1,6,1
1523178670809713,0,14,10,21,-2,3,-1,1
1523178670810455,-7,10,-6,-20,2,0,3,-1
1523178670810455,-5,-21,-9,-13,0,0,-8,-4
1523178670824539,-6,-20,-3,-21,-1,2,42,3
1523178670824539,5,3,3,9,3,-3,-17,-1
1523178670824539,4,20,29,31,1,-1,0,1
1523178670824539,-5,12,-65,-7,-9,1,-2,-1
1523178670847824,-5,0,-8,-32,-5,-13,-10,-4
1523178670847824,-4,-20,6,1,-4,-1,-9,-1
1523178670847824,6,27,5,7,3,2,1,0
1523178670847824,8,8,19,47,6,-3,-17,0
1523178670869877,-3,10,-12,-20,1,7,-10,3
1523178670869877,-7,-33,-6,-8,-2,-6,-4,-1
1523178670870614,-1,-5,-3,4,-2,-1,-4,-4
1523178670870614,9,13,15,5,1,1,7,2
1523178670883694,-10,-4,-5,-18,-1,-4,-12,-6
1523178670883694,3,21,5,11,0,3,3,5
1523178670884653,-2,-17,-5,-17,0,-4,-16,-5
1523178670884653,-2,1,3,2,1,6,27,3
1523178670907855,7,2,-16,-10,-6,1,-1,2
1523178670907855,-1,3,-2,11,-1,0,-1,0
1523178670907855,4,20,-16,-61,-4,-4,-6,-3
1523178670907855,-8,-13,30,41,1,6,15,-2
1523178670930041,-5,-44,-18,-26,-5,-4,-4,-8
1523178670930041,-8,-1,5,19,1,-7,-16,-5
1523178670930774,-4,-22,-10,3,-1,4,23,2
1523178670930774,5,4,6,-24,-1,-6,3,2
1523178670944084,11,29,14,21,3,-1,-10,2
1523178670944084,2,4,-5,-32,-2,-6,-1,-7
1523178670944813,1,-5,0,-7,-1,-1,-9,-1
1523178670944813,-24,-5,4,35,-1,-5,-3,-6
1523178670966869,1,7,-9,-6,-3,0,9,2
1523178670966869,9,-6,-12,-2,1,1,-3,2
1523178670967875,4,11,3,23,-1,-1,3,1
1523178670967875,-9,-32,-13,-35,-2,-1,-1,-1
1523178670990148,3,17,6,1,-2,-4,-7,0
1523178670990148,7,14,-13,-10,-1,8,22,2
1523178670990148,-8,25,2,18,0,0,-4,0
1523178670990148,-8,-56,-16,14,1,0,-4,-4
1523178671003968,-9,8,-1,-7,-4,-2,-4,-2
1523178671003968,-2,-5,15,-15,-1,-2,-8,-4
1523178671004970,0,-19,-4,7,0,-3,-9,-2
1523178671004970,12,28,6,14,0,-1,-1,4
1523178671027075,7,21,4,17,5,7,19,4
1523178671027075,-4,-23,2,10,4,0,-6,0
1523178671028030,-11,6,-10,-39,-16,-11,-2,-1
1523178671028030,-5,-56,-1,14,-2,0,2,-2
1523178671050109,4,8,10,-6,1,2,-26,-4
1523178671050109,6,24,7,6,-1,-3,-11,1
1523178671050109,2,9,4,9,1,-4,-2,-2
1523178671050109,5,9,-6,-14,0,0,11,3
1523178671064568,2,2,-5,-5,-3,4,14,-2
1523178671064568,-8,-6,5,28,0,1,2,2
1523178671065130,-5,-11,-5,-16,2,-1,9,-2
1523178671065130,5,3,-18,-33,-5,-1,-10,-1
1523178671087546,-4,20,11,12,4,-3,-10,-6
1523178671087546,-13,-49,-7,1,-7,-6,-8,-6
1523178671088191,-1,-15,14,22,3,0,-4,-3
1523178671088191,8,24,7,7,4,2,3,4
1523178671110356,-2,-17,-7,-9,0,2,6,2
1523178671110356,0,30,6,-19,-4,-7,-13,-5
1523178671110356,-1,-36,-3,13,0,4,23,3
1523178671110356,9,19,10,18,1,-2,3,-3
1523178671132339,-19,-21,-34,-60,-5,-2,-1,0
1523178671132339,7,30,10,27,-1,1,4,-2
1523178671133310,-1,2,-2,18,3,5,8,3
1523178671133310,-1,30,-7,-50,-6,-4,-9,-3
1523178671147695,-5,-51,23,55,1,-1,1,-3
1523178671147695,-7,-26,-10,-21,-1,-1,1,0
1523178671147695,0,6,-10,-8,-6,-3,-5,-2
1523178671147695,6,18,7,1,1,1,-4,-1
1523178671170431,7,12,-9,-6,-1,-5,-8,0
1523178671170431,-3,-3,14,15,0,-1,-5,0
1523178671170431,9,8,15,21,7,1,-11,0
1523178671170431,-12,-5,-58,-70,-7,5,8,3
1523178671183445,-2,-16,17,14,0,-6,-5,-6
1523178671183445,7,-1,-11,11,-1,2,12,6
1523178671191756,3,21,6,12,0,-2,-2,-3
1523178671191756,-20,-8,3,8,-1,-4,-6,-4
1523178671207827,3,7,-5,1,2,-4,-23,0
1523178671207827,-2,-19,-6,-16,-2,1,15,-1
1523178671207827,0,13,6,3,-4,-6,-6,0
1523178671207827,1,-28,2,9,0,4,8,0
1523178671229889,5,27,-2,-43,-2,0,1,-3
1523178671229889,0,1,6,32,1,-3,-5,-4
1523178671230569,7,11,-11,-20,-1,3,-7,2
1523178671230569,-6,3,20,27,1,0,-5,-4
1523178671243906,1,-7,-6,2,-2,-3,16,5
1523178671243906,4,21,-16,-37,-4,-4,-7,-2
1523178671251923,-12,-44,11,4,2,0,1,-3
1523178671251923,2,8,-12,14,-1,-4,-10,-6
1523178671267899,-3,-17,2,-22,-6,-5,-5,-3
1523178671267899,4,19,-6,8,3,1,-12,0
1523178671267899,-6,5,-4,-17,-4,0,-1,-1
1523178671267899,13,18,20,29,-2,-7,-7,1
1523178671289961,-3,26,4,11,-2,4,9,1
1523178671289961,-13,-59,-5,-21,-3,-2,5,-5
1523178671290731,-6,-12,-21,-20,-4,-4,-20,-7
1523178671290731,4,-8,7,-4,-1,-1,16,4
1523178671303989,15,30,4,22,1,-3,-22,2
1523178671303989,-6,30,11,10,2,4,17,5
1523178671312088,-13,-26,-31,-38,-5,-2,-9,-6
1523178671312088,6,5,11,8,-2,-2,-6,-1
1523178671327123,0,2,-2,30,-1,0,-5,2
1523178671327123,-12,0,-11,-42,-4,-5,-7,-7
1523178671327830,-1,-24,13,26,2,1,-4,0
1523178671327830,4,5,-5,-14,-2,-1,-2,-1
1523178671349886,1,-4,-8,2,3,2,0,1
1523178671349886,-12,-4,-3,-9,-2,-2,0,-2
1523178671350995,-3,12,19,6,-2,-8,-15,-5
1523178671350995,-8,-22,-3,4,0,9,14,4
1523178671364019,7,9,-11,1,-3,-9,-11,0
1523178671364019,3,18,-24,-32,-2,5,42,6
1523178671371217,-5,-26,8,16,3,2,-12,0
1523178671371217,-2,-17,15,29,0,-4,-9,-3
1523178671386983,6,3,-8,-22,-5,-5,-1,1
1523178671386983,9,41,12,11,0,-3,-27,3
1523178671387987,-10,0,-4,7,1,4,15,1
1523178671387987,-7,-50,-10,3,-1,3,27,-3
1523178671409042,-2,-5,0,-4,1,6,5,-3
1523178671409042,3,-6,5,-1,-1,-1,-3,-2
1523178671410045,11,24,-2,-4,-2,0,13,2
1523178671410045,-2,13,-4,-5,0,-2,-30,-2
1523178671423080,-4,1,17,2,2,0,8,-3
1523178671423080,2,-17,-24,-3,-2,-4,-8,-1
1523178671431101,-3,-8,-3,24,-1,2,11,-1
1523178671431101,-17,-37,-12,-58,-6,-7,3,-7
1523178671447146,2,0,3,20,1,-1,-3,-2
1523178671447146,11,13,15,-1,1,1,-18,3
1523178671448148,10,32,1,-10,0,1,15,2
1523178671448148,-6,3,-23,-6,-6,-3,9,-4
1523178671469203,-12,-30,2,5,-2,-1,1,-1
1523178671469203,-2,-21,3,6,2,-4,-7,-4
1523178671470204,7,29,-3,-30,-1,1,-2,1
1523178671470204,0,22,18,24,1,-2,-9,0
1523178671483241,-12,-31,-8,-27,-2,1,13,-6
1523178671483241,-2,0,-3,7,3,3,3,-1
1523178671491261,4,-9,3,-1,-1,0,-2,0
1523178671491261,13,42,0,4,4,0,-2,4
1523178671507315,-5,-3,-2,14,0,1,-5,0
1523178671507315,-15,-49,-6,4,-3,-3,-1,-5
1523178671508317,-4,-4,-3,-4,-2,-2,-6,-4
1523178671508317,6,8,2,22,1,2,2,2
1523178671529372,7,15,6,-29,-1,-3,9,2
1523178671529372,2,9,5,4,0,-2,18,-1
1523178671530371,-17,-20,-11,19,0,-4,-26,-10
1523178671530371,2,-13,4,-7,0,13,20,5
1523178671552434,4,-6,-21,-24,-4,-6,-10,-5
1523178671552434,-11,13,10,11,0,-8,-16,-2
1523178671552434,8,7,0,0,-4,2,21,4
1523178671552434,-5,8,-1,2,0,-6,-12,-2
1523178671567470,-2,-19,-2,2,1,0,-6,-3
1523178671567470,2,-6,-4,7,-1,-5,-14,-4
1523178671567470,5,-11,10,9,0,2,10,5
1523178671567470,-10,-5,-41,-49,-10,-7,-8,-7
1523178671589568,-7,15,14,8,-2,0,1,-1
1523178671589568,1,-10,10,34,2,3,6,-2
1523178671590535,-3,-15,-18,-71,3,0,3,1
1523178671590535,5,21,18,33,-2,-3,-13,-5
1523178671612803,-4,-14,-11,-18,-5,-3,2,-1
1523178671612803,6,15,4,1,-1,1,-3,1
1523178671612803,5,8,6,22,1,-4,-11,-2
1523178671612803,0,-1,1,-5,1,4,21,4
1523178671626893,-1,2,-7,-9,-2,1,-11,-2
1523178671626893,4,-18,-2,1,-3,3,14,2
1523178671627634,-20,0,-6,-4,-1,4,-3,-3
1523178671627634,-1,-13,4,4,3,-5,-19,-6
1523178671657867,0,-7,-1,15,-3,0,-8,-1
1523178671657867,8,9,-8,-18,0,5,43,10
1523178671658709,3,8,3,12,-1,-2,10,-2
1523178671658709,-4,4,2,-2,1,-4,-19,-2
1523178671672768,-3,-20,3,24,1,0,1,4
1523178671672768,5,17,-4,-24,-3,-2,-6,-4
1523178671673750,0,0,0,-9,-3,-4,-6,1
1523178671673750,-7,-9,0,10,-2,-1,2,-2
1523178671695020,1,-8,6,11,3,-5,-5,0
1523178671695020,-4,-12,-7,-29,-9,-5,-14,-3
1523178671695809,2,22,9,14,1,-1,3,0
1523178671695809,8,-8,4,10,-3,-4,-13,0
1523178671708843,2,33,-5,-24,3,9,14,4
1523178671708843,-32,-52,-7,-7,-6,3,-11,-9
1523178671716866,-1,-18,-13,-7,-3,-3,-7,-2
1523178671716866,11,18,8,2,2,-5,-8,1
1523178671731906,1,30,2,3,-1,-4,3,0
1523178671731906,5,12,6,11,1,-2,2,2
1523178671733909,-7,-16,-5,-2,-5,-10,-18,-4
1523178671733909,3,16,7,15,2,11,35,4
1523178671755207,-8,-23,-7,-6,-1,-1,-3,-1
1523178671755207,-8,-25,-14,-42,-6,-4,-16,-6
1523178671755971,-3,-12,2,13,-2,-3,-5,-2
1523178671755971,-6,-10,-2,-3,-2,-5,-9,-4
1523178671768045,1,12,8,11,1,-1,2,-1
1523178671768045,10,25,-4,6,1,-2,-5,-1
1523178671777191,0,0,0,-4,2,4,7,3
1523178671777191,-2,-16,-6,-9,-4,-3,-11,-4
1523178671792304,-2,-14,3,4,-3,0,2,0
1523178671792304,1,6,-7,9,0,-3,-8,-3
1523178671794069,7,15,-5,-4,0,-1,-4,-3
1523178671794069,-5,-2,-9,1,1,-2,1,-3
1523178671814172,2,0,1,-5,0,0,-8,0
1523178671814172,1,9,7,26,5,0,-10,-1
1523178671816133,-16,-1,-6,-6,-5,-1,0,-4
1523178671816133,-4,-3,-5,-9,-1,-2,-1,-1
1523178671828435,5,-9,-4,-15,-4,-10,-23,-4
1523178671828435,4,25,5,12,5,8,32,4
1523178671837191,4,-5,3,-4,-2,2,1,3
1523178671837191,0,0,5,8,-1,-5,-15,-5
1523178671852366,-8,-9,-4,-4,-1,-2,0,-1
1523178671852366,12,10,2,1,0,-5,-13,0
1523178671853228,-5,14,2,5,2,2,7,1
1523178671853228,-8,-27,2,-22,-8,-8,1,-5
1523178671875337,-3,-18,-3,8,-1,2,9,-1
1523178671875337,-3,-15,-2,-2,-1,1,-7,-1
1523178671876292,10,35,1,-2,1,-5,-1,1
1523178671876292,3,10,9,1,0,1,-17,2
1523178671888560,-3,15,4,25,0,7,27,-2
1523178671888560,-13,-34,-16,-46,-7,-6,2,-7
1523178671897352,3,-11,5,7,0,1,2,0
1523178671897352,3,3,-1,-1,3,4,-4,0
1523178671912429,3,16,1,-2,-4,-3,-2,-2
1523178671912429,0,15,4,14,1,0,-11,2
1523178671913400,6,9,5,33,1,1,2,-1
1523178671913400,0,12,-10,-59,-5,-2,2,1
1523178671934442,-9,-24,-7,7,0,-2,-3,-2
1523178671934442,-1,-5,-3,4,-2,-2,-4,0
1523178671936445,-1,-19,-4,-9,-4,-7,-4,0
1523178671936445,3,6,6,20,4,6,7,4
1523178671948476,2,27,3,-16,-5,-1,-4,-1
1523178671948476,-1,-3,0,1,0,-6,-12,-3
1523178671957501,-1,-21,1,-1,0,5,19,-2
1523178671957501,-2,7,3,15,-2,0,10,1
1523178671971538,-6,-13,-20,-7,-2,-9,-6,-4
1523178671971538,-4,1,3,-19,-2,7,10,2
1523178671973543,5,-4,0,-5,0,-2,-10,1
1523178671973543,12,20,3,44,3,2,7,5
1523178671994666,-19,-18,-8,-49,-5,-8,-19,-8
1523178671994666,1,-12,7,23,3,4,9,-1
1523178671996780,0,7,-5,-13,-1,-2,1,-1
1523178671996780,-2,-4,6,16,-1,-2,-17,-1
1523178672008671,4,-1,-19,-42,-2,0,12,0
1523178672008671,4,25,3,15,4,-3,0,3
1523178672017667,-8,-32,1,-11,-5,3,22,0
1523178672017667,-6,-14,1,0,1,-4,-4,-3
1523178672032703,-1,1,15,43,-1,0,-2,-2
1523178672032703,0,-4,-15,-59,-3,-1,-1,0
1523178672033706,4,25,2,6,-2,-7,-3,-3
1523178672033706,-4,-15,-9,-5,0,3,12,2
1523178672054834,11,12,4,11,0,5,-7,3
1523178672054834,-7,-3,3,20,0,6,26,0
1523178672055767,-3,15,-1,-10,-1,-5,-16,-2
1523178672055767,-5,-9,0,6,-5,-2,5,-4
1523178672077822,-5,-29,-9,-20,-2,-1,2,-1
1523178672077822,7,-10,1,17,-1,-6,-26,0
1523178672078834,8,26,9,13,4,7,18,4
1523178672078834,-5,3,-1,-31,-3,-1,3,1
1523178672091865,4,0,4,2,0,4,-12,-2
1523178672091865,-9,1,-8,5,-2,-3,-9,-6
1523178672093865,-2,-11,-3,-3,0,-1,-2,-2
1523178672093865,1,5,-4,-3,-3,-5,-12,-2
1523178672114921,3,14,12,14,1,-2,4,1
1523178672114921,6,-8,-2,-1,-2,-3,-4,2
1523178672115923,0,28,-2,2,0,2,-12,0
1523178672115923,-23,-8,-7,1,0,-3,-5,-9
1523178672137202,-9,-46,-2,-16,-5,-9,29,0
1523178672137202,1,-15,-8,6,1,10,-3,-1
1523178672138989,9,11,10,25,1,-1,-5,1
1523178672138989,8,10,-10,-42,-4,-2,-6,0
1523178672152067,-5,2,1,21,2,-3,3,-5
1523178672152067,-2,14,4,-3,-2,-5,0,-3
1523178672154026,-4,-11,4,0,-1,2,-6,-2
1523178672154026,5,7,-10,9,3,6,4,3
1523178672175131,1,8,1,0,-2,1,-13,0
1523178672175131,4,1,5,-1,-2,-4,-1,-2
1523178672181102,-1,1,-11,-11,0,1,10,3
1523178672181102,1,-23,7,9,-2,-4,-10,-3
1523178672197141,-9,2,-4,-2,0,3,5,-1
1523178672197141,-4,-10,3,0,-4,-3,-9,-3
1523178672199144,0,-2,-7,-4,0,-3,2,-3
1523178672199144,9,-3,3,5,3,-4,-13,1
1523178672212181,7,34,2,-4,1,5,12,4
1523178672212181,-9,-2,2,0,-1,-1,-2,-2
1523178672218201,-6,-30,-14,4,-4,-4,-16,-6
1523178672218201,2,4,-5,-15,-2,-1,8,2
1523178672242259,2,15,3,9,0,5,-2,2
1523178672242259,-9,-23,-4,-2,-4,-9,-4,-4
1523178672243263,-1,-4,1,-3,-1,4,-12,-1
1523178672243263,-5,-7,3,2,0,-1,9,-1
1523178672257301,9,21,-1,8,0,-7,0,0
1523178672257301,-4,-20,-3,-6,0,5,14,1
1523178672258306,1,-4,-4,-15,-7,-8,-9,-4
1523178672258306,-11,-16,3,0,0,0,5,0
1523178672271339,0,12,-3,12,1,1,5,-2
1523178672271339,7,5,2,-11,2,-3,-16,-1
1523178672278358,-3,-36,-12,-10,0,-4,-6,-3
1523178672278358,3,31,0,0,-3,3,1,2
1523178672294435,3,-10,-1,2,0,-4,-10,-3
1523178672294435,0,16,-7,6,0,0,-2,-4
1523178672296406,-2,3,0,-2,0,-4,9,4
1523178672296406,0,0,9,29,0,5,-12,-4
1523178672317510,-13,-46,-20,-46,-5,-2,-7,-4
1523178672317510,2,-3,1,4,-3,-1,4,-3
1523178672318467,-9,-16,3,-10,-2,-5,-10,-3
1523178672318467,7,31,3,13,-1,0,6,-3
1523178672331499,-6,-2,2,7,1,0,-8,-3
1523178672331499,-1,-12,-3,-7,-4,-6,-14,-3
1523178672338548,0,-5,8,7,0,1,3,0
1523178672338548,0,-7,-3,-15,-2,0,13,4
1523178672354594,3,12,5,6,-1,-1,-7,0
1523178672354594,2,26,0,-4,-1,-2,-1,2
1523178672356563,-3,-4,0,6,1,-1,-7,-3
1523178672356563,3,6,-7,-9,-2,-1,0,-3
1523178672376636,4,-5,6,-1,-3,-3,-8,2
1523178672376636,-18,-5,6,17,2,3,15,0
1523178672378626,-6,-17,1,3,-2,1,15,3
1523178672378626,0,-5,-15,-19,-4,-5,-5,-3
1523178672391679,3,13,-3,-10,-3,-7,-13,-7
1523178672391679,11,20,-1,23,3,5,-2,0
1523178672398674,-3,-1,-8,-31,-3,-1,2,0
1523178672398674,-6,-13,7,12,1,-1,0,-3
1523178672414716,5,10,-8,2,0,0,-1,2
1523178672414716,-9,-12,-3,-7,-3,-1,-7,-6
1523178672415721,0,10,4,8,2,0,-9,-1
1523178672415721,-4,-6,-9,-13,-6,-5,-10,-3
1523178672436780,2,0,4,11,1,0,2,2
1523178672436780,0,2,1,-7,1,1,9,-1
1523178672438785,3,-5,2,10,-2,0,5,0
1523178672438785,9,28,2,-2,2,-1,6,5
1523178672452050,-4,-9,8,8,2,7,10,0
1523178672452050,-22,-39,-10,-12,-5,-3,4,-2
1523178672458865,6,12,0,1,0,0,-2,-2
1523178672458865,1,-2,-3,-1,-2,-2,-22,-1
1523178672475123,2,28,10,14,0,-1,8,4
1523178672475123,15,9,-4,-13,1,10,37,8
1523178672475882,-10,-1,-2,6,2,2,-4,-4
1523178672475882,-4,-11,-2,-9,-5,-3,2,-2
1523178672496938,-1,-16,5,1,0,-3,-1,0
1523178672496938,4,9,0,7,0,-5,-32,-3
1523178672498945,3,21,-6,-16,-3,-3,4,1
1523178672498945,-3,-27,-1,-5,-2,3,8,-1
1523178672511224,-1,-6,-1,3,0,0,-8,-3
1523178672511224,-17,0,-15,-2,-2,-3,-2,0
1523178672519999,1,-8,7,5,-2,-2,-6,-1
1523178672519999,2,-8,-1,1,1,-3,2,1
1523178672535329,0,14,0,-5,0,-2,-6,0
1523178672535329,6,-12,-5,1,-1,-3,-2,-1
1523178672536041,-1,1,0,-5,-1,-1,-4,-2
1523178672536041,-4,1,0,-2,2,-1,-11,-1
1523178672557308,-2,-9,-4,3,0,2,16,-2
1523178672557308,4,11,2,-8,-2,-2,-11,-1
1523178672559105,-3,2,-1,-2,-1,-1,-6,-2
1523178672559105,8,11,1,5,3,-3,-11,-2
1523178672571135,-10,-18,-8,-4,-4,0,-2,2
1523178672571135,8,-9,21,8,-1,-4,-8,-2
1523178672580160,-23,-9,-22,4,-3,-1,-2,-5
1523178672580160,-1,-22,3,-11,0,1,0,-1
1523178672594201,5,13,-5,2,-2,-3,-6,-2
1523178672594201,6,34,9,2,3,2,2,-3
1523178672596200,2,-22,4,13,-2,-5,4,1
1523178672596200,-4,20,0,7,0,-2,4,0
1523178672617258,-1,-22,0,-8,2,1,-5,3
1523178672617258,3,24,-4,6,-1,-4,-6,1
1523178672618257,-2,-25,-6,-9,0,7,5,1
1523178672618257,-5,-6,-1,1,0,2,-6,0
1523178672630289,5,-1,4,-11,-3,-3,-3,-1
1523178672630289,1,4,-10,1,-4,-5,-7,-1
1523178672639313,2,13,3,-6,1,1,17,7
1523178672639313,0,-2,4,4,1,0,6,-2
1523178672654363,-9,-4,-5,5,1,4,2,-5
1523178672654363,-16,-7,0,-6,-5,-4,-8,-5
1523178672656358,7,5,-2,-6,-3,0,-4,-1
1523178672656358,1,-8,3,9,-2,-2,19,4
1523178672677414,-1,14,0,-3,0,-6,-22,0
1523178672677414,4,-3,-4,-8,-2,5,28,4
1523178672678417,-2,-3,-7,-4,1,-2,-3,-4
1523178672678417,-2,7,-6,-1,-3,-4,1,-1
1523178672690449,4,16,-3,0,-1,-2,-7,-1
1523178672690449,-13,-47,-1,-1,-1,-6,3,-4
1523178672699473,13,45,3,-3,0,3,-23,4
1523178672699473,-17,-36,5,6,3,8,26,-3
1523178672715516,0,-1,-10,-12,-7,-6,-5,-6
1523178672715516,7,22,5,-3,0,-5,-20,-5
1523178672717521,1,-23,6,17,1,-1,14,1
1523178672717521,-2,12,-16,-35,-7,-11,-4,0
1523178672737573,5,3,5,9,6,12,0,5
1523178672737573,-4,-11,2,3,1,10,29,0
1523178672738576,0,-9,1,9,-3,-5,-11,-3
1523178672738576,-3,3,-7,-20,-2,0,1,1
1523178672750608,-2,-11,5,6,-1,-7,11,-2
1523178672750608,-5,-15,-8,-3,0,1,-15,2
1523178672766651,-7,25,3,-5,-1,-1,-6,-3
1523178672766651,-5,-42,-7,11,-2,1,1,-6
1523178672774672,-1,-5,-3,-5,-2,-5,-8,-3
1523178672774672,7,8,6,5,0,0,1,5
1523178672775675,7,13,0,-6,-1,-4,-9,-2
1523178672775675,-5,8,6,7,1,6,1,0
1523178672797500,-2,-1,-8,-11,-5,-2,-9,-4
1523178672797500,0,1,-2,3,0,1,21,2
1523178672798462,-6,-21,-1,-9,-2,-3,0,-3
1523178672798462,14,15,-1,2,0,-2,-5,1
1523178672810577,-18,-8,3,9,1,2,-8,-1
1523178672810577,-1,-10,-2,-1,0,-1,5,-2
1523178672819516,4,0,-7,-12,-3,0,-7,0
1523178672819516,-8,-8,-7,7,0,8,17,-2
1523178672834565,4,6,1,-3,-4,-3,2,-5
1523178672834565,2,12,0,-9,-3,-5,-19,-2
1523178672836560,4,6,1,3,1,1,3,-1
1523178672836560,3,8,4,10,3,-1,-13,2
1523178672857658,-3,-5,-8,-4,-1,0,7,2
1523178672857658,-4,-11,-2,-5,-2,-2,-2,1
1523178672858623,0,14,2,2,0,-4,-20,-2
1523178672858623,8,-2,-1,0,-2,-4,7,0
1523178672871709,4,8,1,4,4,8,37,3
1523178672871709,-10,-13,-4,-5,-5,-4,13,0
1523178672879677,-1,-11,-3,-1,-2,-2,-15,-4
1523178672879677,-2,20,2,11,1,-4,-26,1
1523178672894792,1,-36,-10,-29,-3,0,14,1
1523178672894792,6,11,-1,6,0,1,-11,-3
1523178672896726,-7,9,2,0,-1,0,8,-1
1523178672896726,2,4,2,2,-2,-7,-14,-7
1523178672917781,-3,-5,1,10,-3,-2,10,5
1523178672917781,-3,2,-9,-6,-3,-2,-12,-1
1523178672923794,-5,-22,-1,-1,0,-3,-1,-2
1523178672923794,1,6,-3,-10,-4,-6,-21,-4
1523178672930848,2,35,4,5,1,-2,7,-4
1523178672930848,-3,-31,-8,-11,0,2,7,2
1523178672939844,-4,-6,6,7,-2,1,4,-2
1523178672939844,4,1,2,1,0,0,-2,-1
1523178672955144,-3,-17,-2,1,-1,-4,-4,2
1523178672955144,16,46,8,5,3,1,-5,1
1523178672955878,-10,-15,-7,-5,-2,-3,5,-3
1523178672955878,-3,-1,2,-4,-3,1,20,4
1523178672976933,6,11,3,23,3,4,-16,-1
1523178672976933,0,6,-9,-32,-3,-4,-1,-1
1523178672978939,2,-13,-5,2,0,0,-13,-2
1523178672978939,-3,-8,0,-6,-3,-5,13,-2
1523178672999999,-14,8,2,14,3,-1,-6,-1
1523178672999999,-2,-17,3,7,-3,-1,-5,-1
1523178673000998,4,15,-2,-9,0,-8,-25,0
1523178673000998,-1,-8,1,4,0,4,0,-1
1523178673015034,1,0,6,-4,1,0,9,2
1523178673015034,-4,8,3,4,0,0,-10,-3
1523178673016046,-8,5,-10,-10,-6,-6,-1,-5
1523178673016046,-17,-19,-6,0,0,-1,-7,-3
1523178673037174,2,-5,-1,-4,-2,1,10,1
1523178673037174,4,12,9,-5,0,0,-3,-1
1523178673043108,0,-2,3,5,-5,-1,8,-2
1523178673043108,1,9,-6,-5,0,0,-2,-1
1523178673059215,1,4,-2,-11,-4,-4,-15,-3
1523178673059215,-1,-1,4,12,2,-1,-11,-2
1523178673061160,-6,-17,-4,-3,-2,1,16,2
1523178673061160,-4,-13,-1,-3,-2,-5,-6,-3
1523178673074254,2,-1,-4,-7,-1,-5,-17,-4
1523178673074254,7,8,2,4,1,0,4,0
1523178673076201,2,4,-5,2,2,-4,-4,-1
1523178673076201,-7,7,-3,-4,-2,3,15,-1
1523178673097256,1,-8,4,10,0,6,3,3
1523178673097256,-2,-15,-8,-20,-3,-2,-14,-5
1523178673098258,-3,8,-1,10,1,4,20,-3
1523178673098258,1,-1,1,4,1,-3,-19,0
1523178673120314,-5,-20,-12,-8,-5,-5,-1,-4
1523178673120314,0,2,7,2,-2,-2,2,2
1523178673121318,7,13,2,-7,-2,8,11,5
1523178673121318,5,12,-4,-4,-1,-2,5,2
1523178673134353,-4,-6,4,15,-1,-2,-28,-9
1523178673134353,-12,7,-15,-24,-1,-4,3,1
1523178673140372,-3,-19,4,0,-1,1,15,1
1523178673140372,0,2,-2,5,-1,1,2,-2
1523178673157497,5,13,-2,-8,-4,-3,-3,-2
1523178673157497,-2,-7,1,12,0,-2,-19,2
1523178673158415,4,22,8,5,3,1,10,3
1523178673158415,-4,9,-7,-6,-1,-3,-26,-6
1523178673179538,-1,-10,3,0,-1,-1,14,0
1523178673179538,-2,3,-10,-5,-5,-2,-9,-7
1523178673181477,-4,-4,-3,-4,1,3,-1,-1
1523178673181477,0,-10,3,6,-4,-4,-8,-2
1523178673202533,-15,-10,-4,-6,-1,-3,-10,-6
1523178673202533,1,-11,-2,10,1,3,8,4
1523178673203534,6,2,-3,-5,-1,-5,-15,0
1523178673203534,8,16,3,-5,-1,4,30,1
1523178673216574,-1,21,0,-4,-1,3,-7,0
1523178673216574,-7,-22,-2,6,0,-1,17,1
1523178673223590,-6,-13,-4,-5,-3,-3,-21,-7
1523178673223590,0,4,-1,-5,-2,-4,1,0
1523178673239631,4,2,0,-3,1,-3,-4,-1
1523178673239631,-4,0,3,7,-1,5,11,1
1523178673241638,-2,-9,-4,-3,-1,-1,-1,-1
1523178673241638,-3,-2,4,-4,-2,-2,-10,-2
1523178673254693,8,3,1,-6,-5,-5,5,1
1523178673254693,8,14,1,1,-1,1,-4,-2
1523178673260982,-14,-16,-4,-2,-1,-1,11,4
1523178673260982,2,-2,-3,3,1,0,-2,0
1523178673277775,2,-7,0,2,0,-2,-6,2
1523178673277775,1,16,6,4,-1,-4,-4,-7
1523178673278736,-2,-2,-6,-9,-2,0,-1,-1
1523178673278736,-4,-25,3,0,-2,3,18,-3
1523178673299790,-3,-4,-12,-5,-2,-5,-12,-6
1523178673299790,8,13,8,5,0,-1,-1,3
1523178673300793,-3,-3,5,3,-1,-3,-7,-3
1523178673300793,3,-2,-6,-1,1,1,-6,3
1523178673313831,-3,9,1,-8,-6,-2,0,-1
1523178673313831,-7,-13,1,-2,-3,-2,5,-1
1523178673320845,1,-14,-1,0,-1,0,1,2
1523178673320845,-5,4,-3,4,-1,-3,-14,-1
1523178673337135,2,2,-3,-3,1,2,4,0
1523178673337135,-2,-24,1,3,0,-5,-10,-5
1523178673338894,13,30,-3,-8,-4,-1,5,1
1523178673338894,-14,4,0,-1,-3,-4,-19,-5
1523178673360208,-6,-21,-3,-2,-2,2,5,0
1523178673360208,-1,5,-2,15,2,-2,-2,1
1523178673360953,3,5,-5,-19,0,-2,-8,-3
1523178673360953,1,-8,-4,1,-2,-1,0,-4
1523178673374234,-1,8,2,2,1,-1,20,4
1523178673374234,-2,-4,-4,-1,0,4,2,3
1523178673381007,1,0,0,11,0,-4,-15,-5
1523178673381007,2,-11,2,-11,-5,0,0,0
1523178673397087,-11,-19,-3,-7,-1,-2,-6,-5
1523178673397087,-7,-1,-5,0,-2,-1,10,-2
1523178673399054,-3,-3,1,1,-3,-3,1,-3
1523178673399054,4,1,-4,-4,-1,-3,-7,1
1523178673419106,6,-1,-3,7,4,9,8,2
1523178673419106,1,3,-2,-3,-2,-8,-8,1
1523178673421112,-2,12,3,0,-1,2,0,-2
1523178673421112,-3,-11,-8,0,1,-1,2,0
1523178673434149,-1,7,4,2,0,1,-2,-1
1523178673434149,1,-3,-2,-6,-2,2,1,-2
1523178673440162,-1,-1,3,6,0,1,10,8
1523178673440162,7,17,2,4,3,-1,-5,-6
1523178673457259,-7,-18,-3,0,-2,-3,-3,-2
1523178673457259,0,-2,-9,-10,-5,-3,-2,-3
1523178673458266,7,-2,0,1,0,0,2,-1
1523178673458266,-21,-24,5,3,0,-2,-9,-1
1523178673479291,-3,13,-3,0,1,-4,8,1
1523178673479291,4,6,1,-1,0,2,4,0
1523178673481273,3,-6,3,4,0,-5,9,1
1523178673481273,2,4,-1,0,-1,0,-12,-1
1523178673493355,-1,-16,-6,-10,-3,5,6,-1
1523178673493355,-4,-1,4,5,1,1,2,-1
1523178673502329,0,11,-7,-7,-5,-4,-10,-5
1523178673502329,3,6,9,3,1,0,12,3
1523178673517419,1,-4,-1,-2,-3,-8,-16,-4
1523178673517419,0,-3,-3,-4,-1,-2,-4,-2
1523178673518370,1,8,3,6,3,1,-5,-3
1523178673518370,8,-3,-3,1,-1,0,-2,2
1523178673539427,-16,3,0,4,0,-2,-16,-6
1523178673539427,-4,-15,-6,-10,-4,1,12,-1
1523178673541432,-4,-8,-1,3,0,-4,-23,-1
1523178673541432,1,-4,1,-4,-4,2,11,-1
1523178673553872,7,29,1,0,1,-6,3,2
1523178673553872,-3,-10,4,3,1,2,-5,-5
1523178673562495,-4,-10,-5,-2,-1,-1,2,1
1523178673562495,6,6,-2,-2,2,-2,-2,1
1523178673577870,-2,-12,-4,-3,-2,2,16,1
1523178673577870,1,39,8,5,0,-3,-15,-2
1523178673579534,-4,-30,-18,-13,-5,1,16,-3
1523178673579534,-5,-16,-8,-3,-3,-2,-2,-1
1523178673599587,5,4,4,3,-1,-3,-2,0
1523178673599587,1,-10,0,3,1,0,-12,-1
1523178673601592,-4,3,3,1,1,4,-1,2
1523178673601592,2,18,-3,0,-2,-2,-6,-1
1523178673613627,1,-20,-1,-1,-2,1,10,-1
1523178673613627,0,6,-3,-4,-4,-4,-7,1
1523178673629667,-6,-9,2,-1,-3,1,-5,-4
1523178673629667,-4,-5,0,-5,-2,1,2,-1
1523178673636686,3,1,4,3,0,-4,-25,-3
1523178673636686,-1,4,-7,-8,-2,-4,0,-2
1523178673638691,-1,7,6,2,1,2,-2,-3
1523178673638691,-6,-7,-6,-8,-2,-6,-14,-5
1523178673660183,2,-2,-3,-2,-2,3,4,1
1523178673660183,-4,-27,-1,0,-1,-5,-7,-2
1523178673661950,-14,5,-1,-2,-3,-2,4,0
1523178673661950,3,11,2,2,-2,-1,9,-3
1523178673672783,2,22,2,1,3,-3,-26,-4
1523178673672783,0,-24,-7,-4,0,15,51,2
1523178673681806,-1,-7,-1,-2,-1,-4,-4,-1
1523178673681806,-3,8,-1,0,-1,2,12,5
1523178673696846,-3,-13,-2,-5,-3,-5,-11,-4
1523178673696846,4,11,2,5,1,-2,-1,-1
1523178673698851,1,6,-1,-2,-1,-1,-6,-3
1523178673698851,-3,-15,3,-2,-2,0,10,0
1523178673719988,-2,15,-4,-10,-6,-2,0,-3
1523178673719988,-7,-9,0,0,0,-9,-12,-2
1523178673721096,6,-8,-5,1,1,5,5,4
1523178673721096,-3,-12,2,4,2,3,-1,1
1523178673733954,5,5,-1,0,0,1,5,2
1523178673733954,-8,-3,0,-4,-6,-6,8,-2
1523178673742245,1,5,2,-4,-1,0,-4,-3
1523178673742245,-8,-13,-7,-2,0,-4,-7,-4
1523178673757385,-1,-3,1,4,0,-4,-10,0
1523178673757385,8,8,-4,-4,-1,3,10,1
1523178673759011,1,5,2,1,-1,-7,-11,3
1523178673759011,-1,16,-1,-3,-3,9,20,-1
1523178673779368,2,-18,-6,-2,-1,-1,-5,-1
1523178673779368,-3,-7,1,0,0,-4,-16,-1
1523178673781070,-7,12,-6,1,1,-1,3,-5
1523178673781070,3,-7,-7,-4,0,-3,-8,2
1523178673793499,-7,4,3,1,-4,-2,2,-3
1523178673793499,2,5,-1,-2,0,-1,-8,0
1523178673802125,1,-4,1,5,-2,1,4,-1
1523178673802125,2,-10,2,-3,-2,-7,-8,-1
1523178673817168,-3,13,3,-2,2,14,19,3
1523178673817168,-4,1,1,1,1,-3,-18,-6
1523178673819171,1,-4,0,0,-2,-3,-4,-5
1523178673819171,1,20,-1,3,0,-1,-15,0
1523178673840305,8,-7,0,2,-2,-3,9,1
1523178673840305,-2,-4,-7,0,-3,-3,-15,-3
1523178673841231,-8,-17,-1,-3,-1,1,13,0
1523178673841231,1,-1,-4,-2,0,-3,-16,-5
1523178673853262,-4,-8,1,5,0,-4,0,2
1523178673853262,6,15,-6,-1,3,7,12,6
1523178673862285,-2,-10,-6,-4,-4,-4,-2,-2
1523178673862285,-12,-13,1,1,0,0,5,-4
1523178673877324,-2,-6,-6,-3,-2,-12,-25,-4
1523178673877324,3,10,5,-1,4,7,28,4
1523178673878467,10,4,3,-5,-3,-2,-5,0
1523178673878467,-17,6,-5,0,-1,0,-1,-3
1523178673899389,1,-7,2,-4,-2,-1,14,2
1523178673899389,-3,-13,0,-2,-1,-2,-21,-3
1523178673901390,3,15,2,5,2,1,7,7
1523178673901390,3,-6,-2,-11,-2,2,-6,-13
1523178673922681,-1,11,0,1,-1,0,5,3
1523178673922681,-8,-17,-10,-4,-5,-8,-18,-5
1523178673923588,-4,-17,1,1,1,1,7,1
1523178673923588,7,11,1,-3,-3,-1,3,6
1523178673937721,-8,2,3,2,0,4,0,-2
1523178673937721,2,-2,1,-1,-1,0,-1,0
1523178673938488,4,-1,-3,-3,-4,-5,1,2
1523178673938488,6,-3,-1,1,0,3,-24,-3
1523178673959772,-14,1,-4,-3,0,0,22,1
1523178673959772,2,6,0,-1,-2,0,2,2
1523178673961548,-4,0,0,2,1,3,-7,-4
1523178673961548,7,-11,-5,0,-2,-2,14,1
1523178673982677,3,0,0,0,0,1,-5,0
1523178673982677,-7,-4,-3,-4,-3,-8,-10,-3
1523178673983608,1,10,5,2,2,3,4,-1
1523178673983608,-11,-19,0,-4,-4,-5,6,2
1523178673996641,3,-6,-3,4,-1,4,18,0
1523178673996641,-8,-2,6,4,2,0,-8,-4
1523178673998647,8,22,2,-2,0,-2,-9,-3
1523178673998647,5,9,2,4,-1,-3,7,5
1523178674019703,-17,-10,-1,-7,-3,0,-5,-5
1523178674019703,9,-6,-2,0,-1,0,-3,0
1523178674021767,-1,-1,1,-1,-2,0,5,3
1523178674021767,-6,17,0,4,1,-1,0,-2
1523178674041792,5,-11,-8,-6,0,-3,-11,-7
1523178674041792,-7,-29,-1,-2,-1,1,17,1
1523178674043767,4,11,-1,1,3,5,-2,-2
1523178674043767,-3,-2,-2,0,-1,-4,-2,3
1523178674056884,5,10,-1,-2,-3,1,6,4
1523178674056884,-1,12,-3,-6,-3,-2,-3,-2
1523178674063830,-6,-23,-8,-2,-1,-4,0,-4
1523178674063830,3,6,5,0,-2,-5,-12,-3
1523178674079862,2,9,-1,1,2,5,18,-2
1523178674079862,5,10,1,-1,-1,-4,-1,3
1523178674080873,-11,-7,-4,-1,-1,-1,-6,-4
1523178674080873,-1,8,-5,-2,-2,2,5,-3
1523178674102202,-7,-24,3,2,-1,-7,-26,-5
1523178674102202,4,18,2,5,0,2,1,-2
1523178674103928,15,30,0,-5,-2,-3,1,1
1523178674103928,-17,-25,0,2,0,-2,7,-4
1523178674116991,0,-16,-3,0,-3,-2,-2,2
1523178674116991,0,2,2,1,-1,-2,-5,-4
1523178674123109,-4,-5,-1,-4,-2,3,5,1
1523178674123109,7,10,-3,7,1,-6,-14,0
1523178674140279,-2,9,3,-3,1,8,14,4
1523178674140279,-5,7,1,2,1,1,-11,0
1523178674141029,-4,-28,-12,-10,-2,-2,-14,-7
1523178674141029,-10,-14,2,2,-1,-3,6,1
1523178674162253,8,3,0,4,2,0,-1,-1
1523178674162253,2,1,-1,-4,0,0,2,0
1523178674164087,2,18,5,0,-2,-1,2,0
1523178674164087,1,3,3,-3,0,3,10,2
1523178674185365,-6,-25,-5,-5,-4,-11,-20,-6
1523178674185365,-10,-24,-4,-2,-3,1,5,-2
1523178674186148,2,-1,1,7,-1,-5,-8,-2
1523178674186148,6,15,3,-3,1,-3,-24,-9
1523178674199475,2,13,4,1,0,2,40,8
1523178674199475,-5,-2,-8,-6,-3,-5,-11,-12
1523178674201187,-4,-1,1,-3,-2,-4,-5,-2
1523178674201187,-3,-11,-2,0,0,1,-7,-1
1523178674222243,4,6,-1,2,1,1,-3,1
1523178674222243,4,-1,-1,0,-2,-1,-11,0
1523178674223564,-3,7,-4,3,0,0,13,2
1523178674223564,-10,0,1,-4,-2,6,16,3
1523178674236281,5,-8,-9,0,-1,-6,-20,-6
1523178674236281,-1,10,7,0,-3,-1,5,1
1523178674243646,-4,-13,-11,-6,-1,1,-4,-3
1523178674243646,11,6,2,7,0,0,3,3
1523178674259727,-5,6,-4,-1,-1,-3,-4,-2
1523178674259727,-3,-13,-5,-2,-1,2,1,4
1523178674261346,0,-8,1,-9,-4,-2,-1,-2
1523178674261346,-4,-1,-3,-4,-1,-2,0,-1
1523178674282550,0,8,7,7,3,-1,-13,-3
1523178674282550,0,-13,-5,-13,-5,1,15,0
1523178674283440,-1,11,-1,-2,-2,-1,2,1
1523178674283440,-5,-17,-10,-4,0,0,1,1
1523178674296440,-4,-4,-2,0,-3,-3,-12,-5
1523178674296440,6,15,5,4,3,-3,-10,0
1523178674303587,-7,-23,-5,-2,-3,-4,-8,-4
1523178674303587,-1,8,-6,1,-2,0,11,-1
1523178674319608,-2,0,-1,-2,-1,1,-11,-2
1523178674319608,-5,-15,-2,-1,-2,-4,-11,-5
1523178674321506,6,4,-3,2,-1,0,7,2
1523178674321506,7,9,8,-3,-1,1,-8,0
1523178674342574,-3,-4,-5,-5,-2,-6,-9,-2
1523178674342574,1,6,1,3,0,0,14,3
1523178674343563,-3,-3,-1,-1,-2,-2,-13,-3
1523178674343563,-3,5,-4,0,-1,-1,1,-2
1523178674356710,-1,-2,1,-5,0,0,17,12
1523178674356710,4,2,-7,-6,-2,-1,-7,-11
1523178674363618,-6,9,3,2,1,-3,-11,-3
1523178674363618,1,1,4,1,1,0,4,-3
1523178674379661,1,-13,-3,-3,-4,-1,-15,-2
1523178674379661,0,-9,-1,-6,-4,-8,-15,2
1523178674381665,-16,4,-1,1,0,6,14,1
1523178674381665,7,3,4,-7,-4,-4,-18,2
1523178674402720,-1,-7,-6,4,2,3,11,-1
1523178674402720,-4,13,8,9,2,3,-4,1
1523178674403726,1,-1,-1,-6,-5,-3,1,-4
1523178674403726,2,-2,-7,-8,-3,-3,0,-1
1523178674415773,1,13,-2,0,-3,-5,-6,-4
1523178674415773,-3,-18,-10,2,0,3,11,-3
1523178674424780,0,-5,-3,-7,0,-2,11,4
1523178674424780,-2,0,2,0,0,-1,-1,-2
1523178674439922,3,-9,-2,-5,-1,0,-4,-2
1523178674439922,-2,11,-6,-2,-1,-3,2,2
1523178674441838,8,11,7,7,3,2,6,1
1523178674441838,-10,-19,-11,-3,0,-2,-18,-6
1523178674461878,4,11,-3,-4,-1,3,22,2
1523178674461878,-1,2,-5,2,1,1,27,4
1523178674463884,-2,-9,5,7,0,-3,-21,-3
1523178674463884,9,8,4,5,1,1,17,2
1523178674476010,0,7,-8,-11,-3,-3,-17,-5
1523178674476010,-1,-3,-4,-1,1,0,1,3
1523178674484939,-2,-10,2,-2,-3,-7,9,-5
1523178674484939,-4,0,-13,-1,1,6,12,-1
1523178674500070,-4,-14,3,3,-1,-1,-5,0
1523178674500070,5,17,0,2,0,-1,-8,-3
1523178674500985,-9,-3,-3,-4,-1,0,0,1
1523178674500985,1,-8,5,-3,-2,-5,-10,-1
1523178674522307,-4,-14,3,0,-4,-7,-3,-2
1523178674522307,-14,1,1,-2,-1,0,-6,1
1523178674524046,7,3,-2,6,0,2,-3,-3
1523178674524046,-3,4,3,2,1,3,11,7
1523178674536078,4,-5,-1,-5,-2,3,4,3
1523178674536078,3,5,5,1,-4,-5,-9,-1
1523178674545108,-1,-3,-2,0,0,0,-7,0
1523178674545108,3,-1,3,4,3,1,5,-1
1523178674560318,-11,-3,-2,-3,-2,1,-11,-3
1523178674560318,-4,5,-2,3,1,4,17,5
1523178674561147,-1,17,-6,-7,-3,-3,-10,-2
1523178674561147,-1,-39,-5,-5,-2,-3,-1,-3
1523178674582527,2,17,2,2,-1,-4,-11,-3
1523178674582527,6,-3,4,0,1,-1,-13,-2
1523178674583204,-9,-12,0,-2,-5,-6,1,-3
1523178674583204,0,15,1,0,-3,3,4,2
1523178674595234,0,-9,-1,1,0,-1,-2,1
1523178674595234,-8,-30,0,-9,-7,-6,-8,-7
1523178674604258,12,7,2,2,1,1,-4,2
1523178674604258,-2,20,0,0,-3,-8,-9,-3
1523178674619300,-6,4,-1,2,2,1,-1,-5
1523178674619300,4,5,1,-3,-1,3,22,2
1523178674621303,-2,-19,-6,-2,1,4,6,7
1523178674621303,0,4,0,4,-1,-4,-16,-16
1523178674642639,5,18,-5,-7,-2,0,1,1
1523178674642639,2,2,-1,1,2,-1,3,1
1523178674643363,-14,-3,1,-4,-5,-4,1,-6
1523178674643363,-4,-16,-4,2,0,-2,-13,0
1523178674656445,0,-5,0,3,0,-4,1,1
1523178674656445,2,4,4,2,-3,-2,-7,-5
1523178674664417,-13,-16,-6,-9,-1,-1,6,3
1523178674664417,9,2,-4,-7,-3,-1,-2,1
1523178674679461,1,21,4,2,1,-2,-3,-3
1523178674679461,-12,-41,-4,2,-1,-2,-18,-6
1523178674681466,5,17,-2,-5,-2,-2,0,-3
1523178674681466,0,9,-2,-3,-2,-2,-8,-1
1523178674702518,4,-2,4,2,1,4,1,0
1523178674702518,4,9,0,-3,-1,-2,-1,-3
1523178674703523,0,6,6,2,-1,-2,-9,-3
1523178674703523,-1,-4,-9,0,-1,1,8,3
1523178674715872,8,9,4,0,0,0,-8,1
1523178674715872,4,17,0,4,2,4,10,1
1523178674724577,-21,-13,-3,3,0,-5,-7,-4
1523178674724577,-7,-29,-7,-7,-3,-5,-4,-5
1523178674739874,2,0,-2,-2,1,-3,-7,1
1523178674739874,5,3,1,1,-3,1,20,0
1523178674741624,12,14,5,7,2,2,3,3
1523178674741624,-6,15,2,-3,0,3,8,-1
1523178674761727,-9,-31,-6,-5,-4,-3,-3,-4
1523178674761727,-2,4,-5,-8,-1,-4,-12,-4
1523178674763684,6,9,8,4,2,1,0,0
1523178674763684,2,5,2,8,3,-2,-1,2
1523178674775976,-3,-4,3,-4,-4,1,11,-1
1523178674775976,-1,5,-12,5,1,3,4,2
1523178674784741,3,-4,-1,-2,-2,1,-4,0
1523178674784741,4,6,1,3,1,1,6,3
1523178674800016,-20,-26,-4,-4,-2,-8,-28,-6
1523178674800016,1,3,3,-6,0,8,21,2
1523178674800782,7,-7,-7,2,-2,-5,4,1
1523178674800782,5,10,-1,-3,-2,1,-2,0
1523178674822886,1,15,-3,1,-4,1,-3,-1
1523178674822886,-8,-3,1,-4,-2,-7,-18,-2
1523178674823842,-1,-18,0,-2,1,1,-5,-2
1523178674823842,1,-8,2,-5,-2,-2,7,6
1523178674836157,0,0,0,-2,-2,-2,2,-12
1523178674836157,1,9,1,-1,-1,-5,-7,-1
1523178674844902,-1,2,-3,0,-1,1,3,-2
1523178674844902,-9,-4,-5,-7,-2,0,-5,-2
1523178674860211,-1,-18,0,5,2,3,13,5
1523178674860211,0,16,6,-3,0,-3,-12,1
1523178674860946,-7,-17,-10,-6,-3,5,20,-2
1523178674860946,0,-7,-2,-3,-4,-2,-4,-3
1523178674882307,4,6,-1,0,0,-1,1,0
1523178674882307,-24,-12,0,-1,0,-3,-11,-6
1523178674884002,11,15,-4,-2,-2,-3,-1,0
1523178674884002,1,0,5,2,-1,-3,-10,-5
1523178674905338,4,23,-3,1,0,5,18,1
1523178674905338,-5,-31,-4,0,-2,-4,-8,-3
1523178674906062,-7,-19,-7,-3,-3,-2,-3,-3
1523178674906062,-1,2,-1,0,2,6,19,4
1523178674920098,3,2,2,1,0,-1,-9,-1
1523178674920098,4,15,-5,-7,-3,-2,-1,-3
1523178674921103,-5,11,-2,6,0,-4,-4,-1
1523178674921103,0,-11,-3,-2,-3,-5,-9,-5
1523178674942426,-3,0,0,4,0,1,4,2
1523178674942426,4,-1,-5,-2,-4,-5,-6,1
1523178674943162,3,-17,-2,-1,-3,2,19,-3
1523178674943162,-14,8,2,4,1,-2,-19,-5
1523178674965352,-3,0,2,0,0,-1,5,0
1523178674965352,7,12,1,0,2,-1,5,0
1523178674966222,8,1,4,1,0,-4,-15,-2
1523178674966222,6,7,-8,-3,-1,3,12,7
1523178674979258,-6,-9,-2,-3,-5,-3,8,-2
1523178674979258,-1,-23,-3,-1,-1,-2,-12,-2
1523178674985272,-3,8,1,1,-1,1,7,1
1523178674985272,-2,-2,1,-2,2,-1,-11,-4
1523178675002317,2,14,-3,-2,1,-3,-7,1
1523178675002317,4,3,7,-2,-4,3,6,3
1523178675003319,-11,-8,-8,-4,-3,-3,-20,-7
1523178675003319,-5,-30,-6,1,-4,-8,-4,-4
1523178675025414,5,8,0,-1,1,1,6,4
1523178675025414,0,8,6,-2,0,1,-8,-1
1523178675026381,5,8,5,1,2,1,6,5
1523178675026381,8,14,2,1,1,0,6,0
1523178675039689,-2,-2,0,0,-3,-1,-1,-2
1523178675039689,-7,-13,-5,1,-1,3,11,0
1523178675045431,0,3,-4,-6,-3,-6,-18,-4
1523178675045431,-8,-7,-2,1,-2,0,4,-1
1523178675069499,-2,0,-2,1,3,-2,2,1
1523178675069499,-4,-14,0,5,-1,-2,1,-1
1523178675071501,-1,-7,-3,4,1,0,-6,-3
1523178675071501,5,12,-3,-6,-6,-7,2,-1
1523178675084802,-2,-5,1,1,-2,2,-9,-1
1523178675084802,-3,-2,-4,-3,-1,1,12,0
1523178675086542,-1,2,0,-2,2,-1,-8,1
1523178675086542,-1,-9,0,-4,-1,0,2,-3
1523178675099671,6,13,-3,-2,-2,-3,-2,2
1523178675099671,-11,-20,1,3,-1,-2,-3,-2
1523178675105869,1,1,-2,-4,-1,-1,0,-3
1523178675105869,-1,-9,2,2,-1,-1,5,-1
1523178675122814,-15,-2,-6,-9,-6,-2,-6,-2
1523178675122814,8,21,2,8,2,1,3,2
1523178675123638,-9,-21,1,-11,-5,0,-2,-3
1523178675123638,0,-15,-1,0,-3,-3,-3,-2
1523178675144694,1,-19,-2,1,1,-1,2,-3
1523178675144694,5,9,-5,-9,-4,-6,-8,0
1523178675145699,4,17,8,1,-1,4,7,3
1523178675145699,2,15,-6,-5,0,-1,-6,-1
1523178675158987,-1,-6,3,3,-2,-4,7,-1
1523178675158987,-4,-7,-6,-7,-4,-2,-10,-3
1523178675165993,-1,-3,-5,1,-1,2,12,0
1523178675165993,-1,5,5,1,-1,0,2,-1
1523178675182097,0,-5,-3,-1,1,0,-10,-2
1523178675182097,-2,-6,-4,-5,-1,-3,2,-2
1523178675183802,7,14,2,3,1,-3,-10,1
1523178675183802,-20,2,0,0,-1,1,6,-1
1523178675205063,-4,-27,-1,-3,-2,2,7,-3
1523178675205063,2,8,-2,6,-1,-2,0,-2
1523178675205857,3,-12,-4,3,2,2,8,4
1523178675205857,5,11,2,1,-1,-3,-12,-1
1523178675219190,6,5,-6,-2,0,-1,-2,2
1523178675219190,-10,2,-4,2,3,1,-12,-3
1523178675226180,-4,-3,-2,1,-5,-5,-4,-3
1523178675226180,0,-1,2,-3,0,-2,1,1
1523178675242217,-1,6,-1,-1,-1,-2,7,0
1523178675242217,5,-6,0,5,3,0,-8,0
1523178675243964,-1,3,-3,-1,0,-2,-6,0
1523178675243964,4,-1,-3,2,0,2,5,0
1523178675265338,0,2,-1,-8,-2,-2,-6,-2
1523178675265338,2,-1,3,-2,-2,0,4,0
1523178675266018,-1,14,1,7,4,1,-3,1
1523178675266018,-27,-55,-8,-5,-5,-9,-15,-5
1523178675279053,4,6,-6,-7,-4,-4,-17,-5
1523178675279053,5,-8,-2,1,1,9,39,3
1523178675293392,5,8,2,-2,0,1,17,5
1523178675293392,7,29,8,3,0,1,-2,-2
1523178675302115,-8,-10,-6,-5,-6,-6,-9,-3
1523178675302115,-2,-2,1,1,1,-2,-11,-2
1523178675304119,1,1,0,2,-1,-1,2,-2
1523178675304119,-1,-9,-4,-8,0,-7,3,1
1523178675325375,0,-4,4,4,-1,12,16,0
1523178675325375,6,18,-1,-2,-2,1,2,3
1523178675326180,-13,-2,-1,1,-2,-3,-9,-7
1523178675326180,-10,-26,-9,-1,-1,-1,-15,-4
1523178675339485,-4,-20,-3,-7,-2,-5,-8,-4
1523178675339485,0,-4,-9,-7,-2,-2,-1,15
1523178675345230,14,11,1,2,-1,-7,-22,5
1523178675345230,-11,18,3,-7,-3,0,0,-55
1523178675362276,-2,3,5,3,0,-1,-10,18
1523178675362276,-3,-9,-7,0,-2,0,7,-4
1523178675363276,-1,-3,0,-4,-1,-3,-10,12
1523178675363276,12,7,0,-1,0,1,4,16
1523178675384593,-1,11,7,6,3,-1,-10,-11
1523178675384593,-10,-14,-5,-9,-6,-5,-6,-4
1523178675386336,0,6,-2,-6,-2,3,4,-3
1523178675386336,3,-3,0,2,2,4,26,11
1523178675398697,-5,-13,-9,2,-1,1,0,-6
1523178675398697,1,-14,-5,-5,-4,-3,-12,2
1523178675407394,2,-5,2,17,0,-3,6,-8
1523178675407394,5,11,-1,-20,-2,7,-8,6
1523178675422685,2,16,8,6,-1,-3,-3,2
1523178675422685,-3,-13,11,18,2,0,-1,-2
1523178675423435,-2,-6,-19,-43,-5,0,7,-5
1523178675423435,14,-5,8,20,1,0,-7,11
1523178675444521,-5,32,-2,-3,-1,3,32,4
1523178675444521,-7,-6,5,-5,-4,-3,-19,-13
1523178675446498,-10,-49,0,15,0,0,7,1
1523178675446498,5,24,-8,-3,-1,-3,-2,1
1523178675458808,0,-12,3,-6,-2,-2,5,0
1523178675458808,4,28,2,25,1,-6,-3,-7
1523178675467554,-4,1,-13,-56,-1,4,1,0
1523178675467554,5,-2,3,10,1,-1,2,9
1523178675482834,-18,-28,-10,-5,-3,-2,2,-3
1523178675482834,3,10,-2,-2,-1,-2,-4,-2
1523178675484601,2,11,12,18,2,3,-5,-1
1523178675484601,-8,-7,0,-2,-3,-2,3,-2
1523178675504909,2,-5,0,3,3,1,-9,-5
1523178675504909,-4,-7,-6,-14,-6,-3,4,1
1523178675505656,2,8,-1,7,-3,-11,-27,-5
1523178675505656,-4,16,-2,-7,2,12,34,3
1523178675518688,2,-23,9,6,-3,-2,-3,-1
1523178675518688,3,-1,-12,-22,-3,-1,3,1
1523178675527715,6,25,3,15,-1,-4,-1,-1
1523178675527715,5,27,7,4,1,2,2,2
1523178675542022,-4,-2,-7,-3,-2,-1,-7,-3
1523178675542022,-5,-19,5,-4,3,3,2,-1
1523178675543757,4,7,8,4,-3,-3,-1,-6
1523178675543757,2,-15,-8,-12,-1,3,3,1
1523178675565119,4,2,-7,3,-1,-2,6,-1
1523178675565119,-7,-9,6,-5,0,0,9,-2
1523178675570981,-8,10,5,22,0,0,-1,-3
1523178675570981,-5,-37,-1,0,-3,-3,12,-1
1523178675577849,8,14,4,-7,0,-1,-15,0
1523178675577849,2,42,-4,9,3,0,1,5
1523178675587149,-10,-30,-9,-13,-2,-3,-1,-10
1523178675587149,4,-28,-1,3,0,-3,-10,-1
1523178675602157,-3,24,5,1,0,0,1,-2
1523178675602157,-3,-16,-1,10,3,1,-16,-4
1523178675603917,-1,-8,-9,-13,-7,2,16,7
1523178675603917,3,8,-1,-2,-2,-8,-5,-1
1523178675625245,6,-3,4,3,0,1,2,0
1523178675625245,-2,37,3,3,0,-2,-5,-3
1523178675625974,-9,-68,-10,-11,-5,-7,-8,-3
1523178675625974,0,11,4,2,-1,-1,-6,-6
1523178675638210,1,12,-3,9,5,1,8,4
1523178675638210,1,-6,-3,-17,-6,-3,-2,0
1523178675647031,-5,6,7,3,-3,0,-4,-1
1523178675647031,-10,-7,-15,3,0,-2,-1,-2
1523178675662073,5,6,-5,-1,-2,-4,-7,-2
1523178675662073,1,11,8,3,2,1,3,-3
1523178675664124,5,3,-5,4,2,4,10,3
1523178675664124,2,1,9,-7,-5,-5,-19,0
1523178675684369,1,0,-3,2,0,1,6,-1
1523178675684369,-29,-61,-9,1,-1,-1,-2,-5
1523178675686134,9,26,2,3,4,0,0,0
1523178675686134,-4,47,3,-1,-1,-2,-8,1
1523178675698441,-4,-30,-10,-5,-2,-3,-6,-4
1523178675698441,7,1,4,-3,-2,-5,-4,-3
1523178675707192,-8,-7,3,-2,2,3,6,0
1523178675707192,-6,23,-8,-7,-3,-6,-13,-3
1523178675722511,-3,-47,-6,-5,0,2,2,3
1523178675722511,10,13,1,1,1,-2,-11,2
1523178675723237,6,14,1,5,0,1,5,-2
1523178675723237,7,20,0,-2,-2,0,4,2
1523178675744310,-10,-11,2,-4,-1,-5,-18,-8
1523178675744310,-22,-11,-9,-5,-2,3,0,-3
1523178675746296,-4,-48,-4,0,-2,-5,-13,-4
1523178675746296,3,-10,-2,4,0,1,7,0
1523178675758624,10,36,6,-1,-2,1,-2,3
1523178675758624,8,6,3,-1,1,1,13,4
1523178675767351,2,27,-1,3,1,0,-9,2
1523178675767351,-12,-21,-15,-6,-3,-1,0,-4
1523178675782653,1,-11,-3,-2,0,-3,3,-1
1523178675782653,0,-16,-8,-9,-3,-2,4,5
1523178675783395,-7,1,-2,-1,-3,-3,-9,-12
1523178675783395,-12,-48,-4,0,2,-1,-8,-2
1523178675804715,4,35,1,-2,-1,0,-1,-1
1523178675804715,8,2,7,-4,-2,-2,2,2
1523178675806455,3,13,-5,4,1,1,11,4
1523178675806455,3,4,3,-1,0,4,7,-3
1523178675827557,0,5,-9,-2,-2,-3,7,1
1523178675827557,-11,-13,2,8,5,4,8,0
1523178675828515,-11,-16,0,-16,-7,3,-2,0
1523178675828515,-7,-8,-1,-2,-3,-4,-13,-9
1523178675849868,-2,-14,-3,0,-2,-2,14,-1
1523178675849868,14,26,5,3,2,1,1,0
1523178675851575,0,6,3,3,4,0,-2,3
1523178675851575,-5,-4,1,-8,-4,-4,1,1
1523178675864925,-5,-12,-1,-2,-3,-1,-9,-4
1523178675864925,4,10,-8,0,-2,-3,-4,-4
1523178675866612,-8,-14,0,1,-2,-1,-4,-2
1523178675866612,0,-12,1,3,0,-4,-12,0
1523178675887772,1,7,4,1,-1,3,20,-1
1523178675887772,7,18,-6,-6,-2,-1,-3,-5
1523178675888672,-8,-47,-5,1,-2,-1,-6,0
1523178675888672,-17,11,0,-3,-5,-7,-16,-5
1523178675901708,1,5,0,2,2,2,-4,2
1523178675901708,8,-9,-3,1,-2,2,13,1
1523178675903712,12,53,9,-4,0,1,-5,-2
1523178675903712,-9,-13,1,9,2,2,-1,-2
1523178675925046,-9,-30,-7,-20,-9,-8,-26,-8
1523178675925046,-5,12,2,5,0,-1,5,-1
1523178675925770,1,-1,3,2,0,-4,-3,-2
1523178675925770,7,-7,-10,2,2,-1,7,3
1523178675947876,0,8,3,-1,0,0,-5,3
1523178675947876,2,2,5,-3,-2,-7,-20,-1
1523178675948833,5,2,-3,-1,1,4,21,2
1523178675948833,-2,19,0,-2,-1,-2,-4,-1
1523178675961871,-11,-28,-12,2,0,-2,-1,-6
1523178675961871,-7,-30,-8,-8,-3,-2,-3,0
1523178675968961,8,12,2,1,0,-3,3,4
1523178675968961,8,-3,-1,-3,-3,-1,-1,0
1523178675985205,2,27,3,7,5,4,2,1
1523178675985205,-3,1,-4,-7,-8,-3,-6,-5
1523178675985932,1,-2,1,-4,-2,-1,-8,2
1523178675985932,14,5,6,6,4,6,16,6
1523178676007256,-18,-11,-8,-5,-3,-1,-11,19
1523178676007256,0,-15,1,7,2,-5,-8,-22
1523178676008992,5,22,-1,0,-1,-3,0,-19
1523178676008992,-8,-20,-4,-2,0,-5,3,6
1523178676021023,0,18,9,1,-3,-1,-1,-3
1523178676021023,7,5,1,6,1,6,17,25
1523178676028042,0,-2,-10,-11,-5,1,-3,2
1523178676028042,2,21,6,3,0,0,-5,-21
1523178676044086,-3,3,3,-1,-3,0,5,0
1523178676044086,-10,-27,-4,-2,-1,-1,-1,-4
1523178676046094,5,3,0,0,1,-4,-7,2
1523178676046094,5,-1,-1,-7,-1,5,25,10
1523178676067530,-2,-14,-8,-4,-2,-2,-1,-8
1523178676067530,-1,-8,-4,1,-4,-5,-15,-10
1523178676069183,-15,-17,-4,-3,0,0,0,-1
1523178676069183,4,2,1,5,1,0,-10,3
1523178676081555,6,-2,0,0,0,-1,6,-5
1523178676081555,1,19,0,-4,-4,-1,2,1
1523178676088588,-2,-5,-5,4,-2,0,9,3
1523178676088588,1,8,-1,2,3,5,2,2
1523178676105285,-1,-11,-3,6,2,-5,-2,-3
1523178676105285,-9,-8,-5,-9,-1,4,-7,-3
1523178676106250,-1,-26,1,0,-1,-5,5,1
1523178676106250,-1,10,-2,4,-1,-3,-23,-5
1523178676127340,2,-2,6,26,1,0,7,-2
1523178676127340,3,9,-23,-51,0,-3,-9,3
1523178676129311,-10,1,6,9,2,1,-8,-2
1523178676129311,4,7,14,16,-1,-1,10,0
1523178676141717,2,1,-4,-7,-4,1,4,1
1523178676141717,0,5,5,-1,-2,-6,0,-3
1523178676149741,5,2,-1,-1,-1,5,5,9
1523178676149741,-5,11,-5,-2,-4,-5,-10,0
1523178676164505,-6,-5,-3,10,-4,-2,2,-7
1523178676164505,-6,-43,-3,-4,3,2,-3,-2
1523178676164505,0,13,-7,-14,-4,-9,-13,-3
1523178676164505,1,-21,-2,8,0,0,-5,0
1523178676186812,15,34,22,8,5,2,-4,3
1523178676186812,-2,5,8,53,0,0,14,2
1523178676187467,-6,-21,-75,-95,-12,-6,-7,-5
1523178676187467,10,32,8,17,-4,-3,6,2
1523178676200875,-20,-14,-2,0,0,-2,-14,-6
1523178676200875,-3,-19,10,21,1,8,29,2
1523178676209770,-7,-20,16,28,6,3,-14,-1
1523178676209770,4,-14,-5,-15,-3,-1,-4,-2
1523178676224564,9,18,-8,-22,-4,-3,3,2
1523178676224564,2,26,-2,-12,0,-6,-23,-2
1523178676224564,0,6,9,6,-3,1,7,-1
1523178676224564,-2,-3,7,16,2,-2,4,-1
1523178676246892,-5,-26,-39,-60,-8,-5,-5,-1
1523178676246892,-8,7,4,11,2,4,-6,-3
1523178676247625,-5,-22,3,7,-4,-2,7,-3
1523178676247625,-2,7,10,21,6,-3,-19,-4
1523178676260705,10,4,9,0,1,0,10,8
1523178676260705,11,34,-7,-15,-3,-4,4,1
1523178676268948,-33,-19,-5,26,4,6,5,-3
1523178676268948,-7,-33,12,-4,-5,-1,6,-2
1523178676284022,4,4,20,25,-3,-2,-10,-2
1523178676284022,14,21,-34,-77,-10,-1,6,1
1523178676284725,9,32,22,17,6,0,-7,2
1523178676284725,-13,-29,-8,-6,-5,-4,0,-2
1523178676307145,-2,-16,-3,0,3,2,2,-3
1523178676307145,-5,6,21,41,-2,-5,-7,-1
1523178676307145,7,15,3,3,-1,4,7,0
1523178676307145,3,8,3,16,2,2,3,2
1523178676321128,3,27,-21,-46,-1,-1,2,-3
1523178676321128,-13,-25,-7,-11,2,0,-8,-8
1523178676328840,8,-14,-4,5,-2,-6,-9,-1
1523178676328840,7,19,-7,-4,1,1,-5,1
1523178676343885,-16,-16,20,37,1,2,7,-2
1523178676343885,9,6,7,18,6,-3,-7,-2
1523178676344885,-2,5,-5,-39,-9,-5,-4,0
1523178676344885,5,7,16,62,-1,4,2,0
1523178676367205,1,1,-40,-80,-2,-1,2,-3
1523178676367205,-13,-17,-3,9,-3,-1,6,1
1523178676374254,3,11,16,18,-3,-1,-6,-4
1523178676374254,-8,-12,-8,2,0,-1,-3,-2
1523178676381290,0,-1,1,10,0,-4,-8,1
1523178676381290,0,-6,-21,-15,0,-1,1,-2
1523178676389179,3,2,-3,-7,-4,3,21,2
1523178676389179,-3,3,-15,-28,-4,-5,-1,-1
1523178676404042,-1,-1,13,19,1,-3,2,-4
1523178676404042,3,1,2,9,-3,0,4,4
1523178676405044,8,8,11,16,4,0,-11,1
1523178676405044,-13,9,-36,-61,-6,-3,-7,-5
1523178676427105,-17,-20,7,32,1,-3,-12,-6
1523178676427105,-2,-14,4,-12,-1,-2,0,0
1523178676427105,4,12,0,3,4,0,1,0
1523178676427105,-2,-25,1,-13,0,-3,4,1
1523178676441440,7,1,15,37,1,3,-2,0
1523178676441440,1,4,-12,-31,-2,-4,-2,0
1523178676449499,2,8,22,22,4,0,3,1
1523178676449499,3,-8,-46,-24,-5,6,18,0
1523178676464490,-2,-7,-9,-9,-5,-1,-2,1
1523178676464490,-5,-7,12,22,1,-5,-15,-4
1523178676464490,1,4,-3,-11,-4,-2,13,0
1523178676464490,-3,-1,24,24,6,-3,-1,0
1523178676486553,0,7,-26,-28,-5,1,-7,-2
1523178676486553,9,5,5,7,2,-2,10,5
1523178676487263,-10,0,1,23,3,5,-14,2
1523178676487263,-22,-23,1,-29,-6,-2,17,-10
1523178676500572,4,-23,3,16,-3,-2,0,0
1523178676500572,9,25,3,-24,0,0,0,3
1523178676509578,4,9,-7,8,-3,-7,-8,0
1523178676509578,2,-7,12,3,0,2,-5,3
1523178676524569,0,16,-6,-3,1,1,-15,-3
1523178676524569,0,-2,5,6,-3,-2,4,-4
1523178676524569,-1,-8,-4,-1,1,-6,-21,-3
1523178676524569,6,20,-10,-14,-2,5,-2,0
1523178676546508,-14,-18,17,22,0,-1,4,1
1523178676546508,-5,-12,-16,7,-2,-4,-12,-5
1523178676547424,-4,-6,-7,-33,-2,-5,-2,-5
1523178676547424,6,4,9,14,4,-5,-11,2
1523178676560488,6,8,-5,-9,-5,-2,9,2
1523178676560488,-5,0,10,24,1,3,-1,-2
1523178676569581,1,0,-6,-15,-2,0,-13,2
1523178676569581,1,1,6,18,-1,5,29,3
1523178676592714,0,20,14,0,4,-2,-8,-3
1523178676592714,-6,-16,-18,-43,-8,2,10,-3
1523178676592714,-8,-24,2,11,1,3,18,-1
1523178676592714,5,-16,0,-5,-2,-8,-26,-2
1523178676606916,5,17,8,8,1,-1,19,3
1523178676606916,1,1,10,18,3,2,-1,-1
1523178676607582,6,20,3,2,-1,-4,-7,-2
1523178676607582,-3,-4,-9,-5,-3,1,-6,-2
1523178676620910,-10,-17,-16,-30,-1,-4,10,-4
1523178676620910,-8,-4,3,7,-4,-3,-25,-3
1523178676628639,-1,-2,5,14,-3,2,25,-1
1523178676628639,-6,-11,-9,-36,-2,-6,-28,-3
1523178676643681,8,8,4,5,-2,2,4,2
1523178676643681,-1,7,3,12,2,0,2,5
1523178676644683,2,5,1,3,0,2,-14,-2
1523178676644683,-5,5,-1,-1,1,-1,12,-1
1523178676667056,3,4,2,3,0,1,-9,0
1523178676667056,-8,4,0,0,-3,-2,11,-2
1523178676667056,-4,-28,-7,-10,-4,0,-2,-5
1523178676667056,-1,-14,1,5,2,0,-2,-2
1523178676690099,3,3,1,-15,-2,-2,-1,1
1523178676690099,8,18,14,23,3,3,-20,-1
1523178676690805,-1,5,-11,17,0,-2,-4,-2
1523178676690805,-3,-1,-14,-47,-7,-6,6,-4
1523178676704132,-3,-9,10,20,2,6,14,7
1523178676704132,-2,-18,-12,-5,-4,-6,-5,-2
1523178676704841,-5,-7,-5,-9,-1,0,7,2
1523178676704841,2,6,10,13,-2,-4,-20,-4
1523178676726900,6,15,-3,2,1,-1,-13,-2
1523178676726900,-4,-23,-5,-10,-2,-3,1,-2
1523178676726900,-12,2,2,10,4,5,-20,-2
1523178676726900,-13,-23,-10,-16,-1,-2,-9,-3
1523178676741272,-3,-11,-7,-6,-6,-7,-27,-9
1523178676741272,2,32,13,21,-2,2,11,1
1523178676749294,6,-17,-7,-32,-3,-7,-3,-3
1523178676749294,5,7,11,19,1,1,4,2
1523178676764227,-5,-8,-6,4,1,0,-7,-2
1523178676764227,0,-2,3,-6,0,-1,-1,-2
1523178676765003,-1,15,-1,4,-1,-4,12,3
1523178676765003,1,12,10,6,-3,-1,-4,-3
1523178676786158,-2,-11,-9,-5,0,-2,-1,-4
1523178676786158,1,2,6,12,0,-3,-3,0
1523178676787060,0,9,-3,-12,-4,0,4,0
1523178676787060,7,2,-5,-4,0,2,2,2
1523178676809214,2,17,11,7,-2,1,-2,-2
1523178676809214,-9,-38,-7,4,-2,-4,-14,-8
1523178676810120,-29,-15,-5,-37,-4,-3,4,-8
1523178676810120,8,7,-7,4,1,4,-2,2
1523178676824431,4,5,6,13,1,-2,-22,-3
1523178676824431,7,3,4,-1,2,3,26,7
1523178676825163,13,9,2,3,-1,-3,-20,-2
1523178676825163,-7,8,3,14,3,2,15,-1
1523178676846218,-6,-21,-10,-18,-5,-5,8,0
1523178676846218,0,14,-3,0,0,0,-3,0
1523178676847224,-3,-7,1,6,-3,-3,-10,-3
1523178676847224,-2,1,0,-2,1,-6,0,-1
1523178676870329,-3,-15,-8,4,-1,6,-4,-9
1523178676870329,0,0,-3,-12,-3,-1,13,0
1523178676870329,11,9,-1,6,1,-2,3,2
1523178676870329,6,19,3,8,-2,-3,-15,0
1523178676884320,-13,-2,2,-2,0,-3,-6,-1
1523178676884320,-4,-23,-23,-49,-4,-3,-8,-5
1523178676884320,-4,-4,13,12,-7,-1,2,0
1523178676884320,3,-8,-6,-1,8,1,1,-1
1523178676906636,14,29,19,16,5,3,11,7
1523178676906636,-16,-14,-3,5,2,2,1,-1
1523178676907381,-5,-22,-8,-23,-6,-9,-3,-7
1523178676907381,-9,-13,5,-2,-9,6,29,1
1523178676930441,6,1,-6,-5,-6,-3,-7,1
1523178676930441,9,23,9,7,10,4,8,5
1523178676930441,-1,-6,1,3,1,3,-1,-1
1523178676930441,1,5,-2,-5,-4,-7,-11,-3
1523178676943480,-2,4,-4,-5,-4,-4,8,-1
1523178676943480,0,2,-6,-4,-9,-6,-5,-5
1523178676944481,-4,-16,-2,13,3,-1,1,1
1523178676944481,-10,4,-4,-2,0,-3,1,-1
1523178676966785,0,13,-2,0,2,2,8,0
1523178676966785,-4,-44,-13,3,-3,1,-3,1
1523178676967545,10,15,0,0,0,1,2,2
1523178676967545,-2,-10,0,-3,-4,2,10,2
1523178676989848,-4,31,-2,-2,-2,-3,-6,-1
1523178676989848,-3,21,9,-2,-4,-7,-21,-4
1523178676990601,-1,-31,-9,-4,-3,0,10,-1
1523178676990601,7,4,-3,0,0,-2,-13,-1
1523178677003903,-6,-4,0,-3,0,0,21,4
1523178677003903,3,-3,-1,0,0,7,-23,-7
1523178677004639,-4,4,3,16,1,-2,-17,-2
1523178677004639,0,-3,-5,-23,-3,-5,-9,-3
1523178677026702,2,-19,4,10,0,-1,0,2
1523178677026702,17,55,6,4,-3,0,6,3
1523178677026702,3,13,6,5,5,0,8,0
1523178677026702,-34,-43,-5,9,2,0,-5,-5
1523178677050017,5,-17,-16,-8,-3,-1,-1,-3
1523178677050017,-11,6,5,29,-6,-2,4,-4
1523178677050764,3,-43,-20,-27,2,2,0,0
1523178677050764,13,38,-2,-13,-3,0,1,1
1523178677064095,-4,-16,7,0,3,-2,-10,-2
1523178677064095,1,16,-1,-6,-6,-15,-40,-8
1523178677064805,-2,16,-3,7,-1,4,25,1
1523178677064805,2,-15,1,6,-4,1,4,-1
1523178677087123,-1,-5,-11,-22,0,-2,-33,-6
1523178677087123,-1,-19,-1,5,5,0,-6,1
1523178677087123,1,19,5,-3,-3,-6,-2,-3
1523178677087123,-12,-28,-5,-2,-5,-5,0,-2
1523178677109922,-1,11,1,11,-3,-6,1,-2
1523178677109922,-2,-29,-1,-12,0,6,17,3
1523178677109922,2,19,4,7,2,-4,-19,-1
1523178677109922,10,21,11,40,1,3,13,3
1523178677124220,0,-4,-39,-70,-8,-9,-15,-5
1523178677124220,5,6,13,9,6,10,24,10
1523178677124959,-11,17,-2,7,0,2,-6,-2
1523178677124959,-6,-19,-4,6,0,-6,-15,-4
1523178677147129,-4,-27,20,35,-3,-2,9,2
1523178677147129,1,0,-1,-3,9,-3,-3,-3
1523178677147129,5,6,-8,18,-1,4,10,6
1523178677147129,4,3,-47,-76,-7,-3,-1,-1
1523178677177097,-5,10,8,7,3,4,1,0
1523178677177097,-6,-43,1,14,-6,-5,6,0
1523178677178098,3,29,27,9,3,-3,-1,-4
1523178677178098,6,9,24,12,5,0,3,2
1523178677184359,5,29,13,37,1,4,10,2
1523178677184359,-13,-35,-50,-39,-5,-2,-5,-4
1523178677185117,-6,-24,16,28,-2,-4,-9,-2
1523178677185117,12,24,16,8,0,7,4,1
1523178677206441,5,41,14,-1,-2,-6,-4,-2
1523178677206441,-7,-18,19,16,5,9,14,2
1523178677207181,-27,-51,-5,-8,-3,-7,-7,-7
1523178677207181,7,-9,-2,43,-1,5,25,2
1523178677228233,12,15,30,11,9,5,5,5
1523178677228233,2,43,-39,-36,-8,-5,-21,-2
1523178677236256,-3,-38,-7,-24,-11,0,13,0
1523178677236256,-1,4,18,18,8,0,4,1
1523178677244275,-1,-13,3,5,3,1,-8,-2
1523178677244275,3,39,36,79,6,2,5,5
1523178677244275,11,13,-43,-66,-7,0,2,2
1523178677244275,-8,-18,-1,-10,-3,-2,-14,-4
1523178677266584,-3,-7,-20,-7,-5,-1,5,-5
1523178677266584,4,2,25,1,3,-3,2,-3
1523178677267338,2,0,24,-4,5,2,7,2
1523178677267338,-1,22,-27,15,-9,-14,-30,-2
1523178677289650,-12,-24,-27,-74,-7,1,2,-3
1523178677289650,-6,-25,10,9,-2,-2,2,-2
1523178677290402,8,23,5,15,3,-1,-7,2
1523178677290402,6,-3,3,-12,-1,-7,-7,-2
1523178677304498,-11,-9,3,28,0,2,5,6
1523178677304498,-1,14,-15,-7,-5,-4,-1,-2
1523178677304498,-8,-3,-24,-55,-6,0,-2,-3
1523178677304498,0,1,6,-13,-3,1,2,-2
1523178677326514,-1,-8,-8,37,-1,-2,1,-2
1523178677326514,-6,-48,-4,-17,6,2,10,-2
1523178677327498,7,25,4,24,5,-3,8,3
1523178677327498,-3,-8,2,11,1,1,-11,-3
1523178677349803,2,-9,-3,-14,-2,5,25,2
1523178677349803,6,30,11,15,-3,-7,-16,1
1523178677350560,-2,-4,-33,-18,-6,-1,8,-5
1523178677350560,-13,-35,-9,-29,-8,0,-2,-4
1523178677363894,9,17,16,4,2,1,-6,0
1523178677363894,-3,24,-12,-4,3,0,2,0
1523178677371880,-6,-30,-20,33,5,-1,-6,-4
1523178677371880,0,5,9,23,-2,-3,-18,-4
1523178677386941,1,-20,-15,-15,-2,-5,-4,-2
1523178677386941,6,6,11,-14,-10,2,17,-2
1523178677387657,12,27,15,56,3,-1,1,1
1523178677387657,-16,12,-15,-35,4,-1,0,-1
1523178677409719,-2,-15,-9,-6,-12,-9,-10,-5
1523178677409719,0,-3,-2,-19,-2,0,7,-1
1523178677410720,-2,-1,23,31,1,0,-3,-1
1523178677410720,10,11,16,37,-1,2,4,3
1523178677423952,-7,2,34,8,5,4,0,-3
1523178677423952,-13,-30,-32,-15,-3,-1,-3,-2
1523178677432012,7,9,-63,-71,-8,-4,-5,-1
1523178677432012,-1,16,27,28,1,-3,-4,-2
1523178677447147,-4,5,13,18,-2,4,24,1
1523178677447147,-3,-39,12,41,-3,-1,-9,-2
1523178677447147,-4,-9,20,19,3,4,-2,1
1523178677447147,8,17,-17,-25,2,-2,4,1
1523178677469155,6,26,6,11,0,-2,-9,2
1523178677469155,-12,-8,24,40,7,0,11,-2
1523178677469876,0,-6,-22,13,-3,-7,-24,-4
1523178677469876,-4,-11,-41,-69,-12,2,23,-5
1523178677483154,3,-8,9,-7,-7,-5,-9,-1
1523178677483154,6,23,13,-15,11,3,-2,3
1523178677492160,-11,3,6,15,-4,-2,-3,7
1523178677492160,-2,-15,9,8,5,0,-2,-7
1523178677515297,-7,-9,-15,3,-3,-2,7,-10
1523178677515297,9,9,3,-44,-6,-2,-5,0
1523178677515297,7,17,30,-11,-1,-8,-15,-1
1523178677515297,1,-6,-29,-19,10,12,5,6
1523178677529073,-7,-18,-16,-30,-3,-2,-11,-1
1523178677529073,0,-4,23,37,-1,0,-13,-2
1523178677530076,-1,1,27,-13,-1,1,9,0
1523178677530076,-3,6,41,76,-5,2,15,0
1523178677543069,6,-9,-35,-23,1,-4,-14,4
1523178677543069,-8,-5,-25,-61,-13,-10,-4,-10
1523178677552135,-4,-4,21,92,5,4,3,-17
1523178677552135,0,1,-46,-90,-16,-14,-15,-1
1523178677566382,11,15,63,67,18,11,-21,1
1523178677566382,-11,0,-40,-19,-4,0,14,3
1523178677567138,1,0,17,-17,-4,1,12,1
1523178677567138,6,9,-3,74,6,6,1,-7
1523178677589386,-4,-20,-26,-33,-14,-8,19,21
1523178677589386,10,31,29,118,13,5,14,-15
1523178677589386,-7,-6,-88,-116,-10,-5,-9,-3
1523178677589386,-12,-45,26,36,1,-5,-6,4
1523178677603498,7,11,-7,53,-1,0,9,-1
1523178677603498,5,-3,-35,-90,-10,-2,-9,2
1523178677611254,5,24,53,94,4,-4,5,6
1523178677611254,-7,-17,3,-14,-4,-4,-1,-6
1523178677628295,-6,-22,-70,-55,-4,1,9,-7
1523178677628295,9,23,15,44,5,-1,-5,5
1523178677628295,-3,-15,-22,-34,0,2,-3,-3
1523178677628295,-3,1,63,30,2,-3,2,6
1523178677649686,-11,-1,-47,-22,-12,-5,-8,-10
1523178677649686,-3,-24,-22,-27,1,-6,-6,1
1523178677649686,7,-2,24,45,2,4,11,7
1523178677649686,4,13,-10,-92,-1,-4,-9,-1
1523178677663690,-4,4,31,58,4,4,12,-3
1523178677663690,8,29,-3,-34,-14,-2,-14,-4
1523178677671758,-18,-22,7,-5,10,-4,-17,-5
1523178677671758,1,-5,-12,21,4,0,-2,-1
1523178677686745,0,-8,5,-13,5,6,0,-5
1523178677686745,-9,-14,-1,-19,-1,-3,1,2
1523178677687453,2,19,21,23,-12,-1,-2,-3
1523178677687453,6,-1,10,8,0,1,3,3
1523178677708861,10,17,-59,-119,2,-4,-10,3
1523178677708861,-16,-33,23,47,1,-1,-3,1
1523178677709511,6,5,-14,-26,-5,-2,0,-3
1523178677709511,-5,-4,-4,10,-6,-5,-2,-3
1523178677732864,2,-12,28,9,-8,-8,-10,-4
1523178677732864,11,22,-1,73,9,8,6,3
1523178677732864,-1,-5,-17,-70,0,7,11,2
1523178677732864,2,8,-13,-1,-1,2,3,-1
1523178677746914,3,29,40,8,1,-1,2,0
1523178677746914,-14,-27,-41,-22,-2,0,2,-2
1523178677746914,-2,-1,16,15,-4,-3,4,-7
1523178677746914,3,-4,-8,33,2,7,15,15
1523178677768981,-12,-4,-17,-50,-9,-4,7,-14
1523178677768981,10,7,28,24,-1,0,-6,11
1523178677769672,4,1,-26,-16,2,1,4,-8
1523178677769672,0,23,-6,-9,-1,-5,11,-2
1523178677792735,-11,-16,13,46,4,-7,-24,-3
1523178677792735,-19,-50,-6,8,-3,0,9,-3
1523178677793737,6,13,-17,-26,-2,0,-5,2
1523178677793737,1,8,18,-16,4,0,-5,-1
1523178677807082,7,16,12,24,-6,1,0,2
1523178677807082,4,9,12,-28,1,-2,-5,-6
1523178677807082,3,4,19,33,2,0,-3,5
1523178677807082,-4,-8,-21,-9,2,0,-9,-6
1523178677829112,-5,-8,8,8,4,4,15,1
1523178677829112,2,11,6,-7,-6,-3,1,-1
1523178677829832,-4,-8,-1,3,-1,-2,8,1
1523178677829832,5,6,-10,-13,0,5,23,-1
1523178677851946,0,-5,6,26,1,-8,-7,-2
1523178677851946,3,-1,-11,-30,-2,-3,-14,-1
1523178677852895,-11,-4,2,4,-3,-4,-13,1
1523178677852895,2,-6,-7,-17,4,6,6,-3
1523178677866967,1,21,7,22,1,1,-4,-1
1523178677866967,-2,-10,15,26,0,-1,2,-2
1523178677866967,-5,-20,-12,-38,2,0,-2,3
1523178677866967,-2,-9,-14,-21,-1,-8,-21,-4
1523178677889279,-2,-8,7,9,4,-1,-6,0
1523178677889279,5,22,3,-20,-10,-5,-5,0
1523178677889992,2,-8,16,44,4,-1,-15,-2
1523178677889992,-8,-6,-5,-33,-8,-5,-7,7
1523178677912333,3,-3,-10,-6,4,8,8,2
1523178677912333,2,1,-8,-8,-1,-2,5,3
1523178677913053,-4,-4,0,5,-4,-1,-2,-16
1523178677913053,-1,3,0,12,-6,-7,-20,-2
1523178677926096,-5,1,2,5,0,1,5,-13
1523178677926096,13,11,5,3,-3,-4,-4,-1
1523178677927088,-17,5,-27,-1,-5,-7,13,4
1523178677927088,-3,2,-3,-14,-2,9,0,-4
1523178677949389,-12,-44,6,12,16,1,-6,2
1523178677949389,3,9,-2,19,-2,-3,2,-2
1523178677949389,7,3,-29,-48,-6,-1,-5,-3
1523178677949389,1,-3,7,21,-2,-5,11,-3
1523178677972514,3,-5,-11,-13,-7,-6,-22,0
1523178677972514,-4,6,11,9,3,2,8,-4
1523178677973213,2,-4,8,27,2,3,4,6
1523178677973213,-2,-2,-6,-24,-8,-7,-4,-4
1523178677986326,3,4,11,22,-2,2,-13,-2
1523178677986326,-2,-2,-51,-47,-2,-3,0,1
1523178677987249,1,4,36,35,0,-2,-15,-4
1523178677987249,-2,-13,-14,5,-2,-2,-1,-3
1523178678009355,-2,11,17,32,0,0,11,2
1523178678009355,-4,-7,7,-13,-9,-3,-21,-3
1523178678009355,5,2,-16,-39,5,4,14,3
1523178678009355,2,7,22,31,4,0,-1,-2
1523178678032609,-25,-23,-10,-25,-6,-9,-7,-2
1523178678032609,-1,-13,-2,13,-2,-2,14,0
1523178678033374,2,-7,-14,-19,-3,2,-6,3
1523178678033374,6,18,7,16,5,-1,-9,-2
1523178678046715,4,2,1,-16,-2,-2,3,1
1523178678046715,-3,1,8,37,2,0,-16,-2
1523178678047411,-1,12,-6,-15,-1,4,37,1
1523178678047411,-4,-10,-23,-21,0,0,-7,-2
1523178678069469,2,-10,-9,-3,-5,1,5,1
1523178678069469,2,2,16,15,4,0,-10,-2
1523178678070477,4,7,3,27,0,-1,-8,2
1523178678070477,-11,-9,-6,-58,-5,-2,-4,-2
1523178678092529,1,13,12,27,-2,-5,-3,-2
1523178678092529,-6,-21,-41,-48,0,-6,11,-2
1523178678092529,6,-1,13,1,-13,-2,-3,-1
1523178678092529,-7,5,12,26,8,3,6,3
1523178678106837,5,2,-6,-15,1,4,7,3
1523178678106837,-1,4,10,-3,2,0,6,-2
1523178678107570,-14,-8,-17,11,-5,-11,-15,-5
1523178678107570,2,-22,7,-2,-7,-6,-3,1
1523178678128827,10,15,-6,-16,-1,3,18,7
1523178678128827,0,19,14,26,3,3,-10,0
1523178678129632,2,-11,-10,-44,0,2,17,1
1523178678129632,1,1,13,38,-4,-3,-9,-2
1523178678152788,2,24,14,8,5,0,2,2
1523178678152788,-1,-12,-52,-20,-6,1,-9,-1
1523178678152788,-2,-14,-43,-51,-7,-3,-19,-5
1523178678152788,1,12,11,32,4,-2,0,-2
1523178678165979,0,3,-5,-15,-5,1,18,-1
1523178678165979,-10,13,34,34,5,3,-9,-5
1523178678174012,-1,-29,0,10,0,4,11,5
1523178678174012,1,0,-21,-24,-2,4,-2,-3
1523178678189069,-4,0,0,11,-5,-14,-25,-7
1523178678189069,1,14,5,-27,-2,1,10,-1
1523178678189792,-1,-21,28,29,-2,9,11,1
1523178678189792,-7,-5,-3,-9,8,2,9,0
1523178678212878,6,-1,-23,-55,-4,2,-5,0
1523178678212878,1,-4,2,7,-1,-3,-2,-2
1523178678212878,-9,5,16,7,3,2,17,-2
1523178678212878,4,7,4,14,-2,-5,-11,-3
1523178678226891,-3,-3,-7,9,0,-1,1,0
1523178678226891,3,5,5,-1,0,4,16,1
1523178678226891,5,6,0,-33,3,3,-1,-2
1523178678226891,-8,3,-14,-10,-1,1,-26,-3
1523178678249211,-5,-8,-14,-3,-9,-4,5,-4
1523178678249211,-7,-22,-3,-9,-6,-7,-11,-3
1523178678249953,6,8,32,40,3,-8,-17,-4
1523178678249953,5,0,-18,12,-3,-6,6,2
1523178678272271,6,8,21,-4,2,15,35,4
1523178678272271,4,9,-20,-15,2,2,8,4
1523178678273010,2,14,4,15,5,0,-10,-3
1523178678273010,1,-6,3,-3,-3,0,6,-3
1523178678286294,-18,-22,0,36,0,-4,-16,-5
1523178678286294,-2,-12,-13,-59,-1,-3,9,-1
1523178678294066,2,5,-1,11,1,-4,-10,1
1523178678294066,2,18,9,15,-3,-6,-13,0
1523178678309127,1,-24,8,-3,-1,4,-1,2
1523178678309127,-12,-4,12,23,2,7,-3,-2
1523178678310111,-4,14,-11,-32,-5,-10,-21,-5
1523178678310111,3,2,16,6,2,-2,4,1
1523178678332409,4,3,2,12,-1,0,15,-2
1523178678332409,7,-5,17,9,0,-1,-8,1
1523178678333171,-1,0,-2,5,-2,-2,7,0
1523178678333171,0,0,0,11,-8,-2,-7,-3
1523178678346483,-8,-8,-16,8,3,-2,1,-1
1523178678346483,0,-4,-17,-48,-9,-3,10,0
1523178678354476,2,4,8,21,3,2,-3,1
1523178678354476,-4,-8,-14,-21,-6,-1,23,2
1523178678369523,-3,-10,4,3,-1,-4,-26,-6
1523178678369523,-7,-7,-9,3,0,-2,13,-1
1523178678369523,-3,-3,-7,-3,-5,1,-19,-1
1523178678369523,3,6,4,10,0,0,4,0
1523178678392336,7,9,2,-18,1,4,16,1
1523178678392336,-13,-1,-3,13,0,2,-3,-2
1523178678393329,1,-3,11,1,-1,-5,2,0
1523178678393329,1,5,-2,6,3,-1,-10,0
1523178678405363,-3,-10,-1,-3,-1,2,-14,-2
1523178678405363,4,5,-4,-4,-3,-7,-27,-5
1523178678414426,-11,-14,-10,4,2,3,9,1
1523178678414426,3,14,26,15,1,-3,-7,-3
1523178678429616,-6,-10,-50,-40,-5,-5,-8,-1
1523178678429616,3,0,14,23,-1,-2,-8,-2
1523178678429616,2,-3,-6,-11,-3,-4,-10,-3
1523178678429616,-10,-21,-9,-16,-3,2,-3,-4
1523178678452729,-3,-10,18,26,2,-3,-2,1
1523178678452729,-2,-16,1,9,1,2,-12,-2
1523178678452729,1,10,-10,-10,-1,-2,13,-2
1523178678452729,0,0,-1,4,-3,5,16,1
1523178678465786,6,14,5,0,-1,0,-7,0
1523178678465786,8,19,-8,-6,1,0,2,2
1523178678474546,-22,-31,3,18,1,-2,-7,-4
1523178678474546,-1,-3,-2,19,0,-5,-18,-5
1523178678488870,-1,2,-36,-79,-7,-9,-10,-3
1523178678488870,1,3,7,-3,4,1,10,5
1523178678489585,11,10,15,5,-9,-4,-3,-1
1523178678489585,-3,4,-3,26,11,1,-9,2
1523178678512827,-5,12,8,18,4,4,12,0
1523178678512827,-4,-22,-5,-9,-8,-5,-5,-4
1523178678512827,0,-7,-1,0,-1,-3,16,3
1523178678512827,0,7,-7,-12,-3,-11,-51,-8
1523178678525682,8,14,14,6,-5,5,12,5
1523178678525682,-4,-4,-5,-8,0,-2,4,-2
1523178678533851,4,-7,9,11,1,0,-6,-1
1523178678533851,-12,-19,-4,11,-1,-4,7,-1
1523178678549008,1,-4,-14,-40,-3,-7,-9,-4
1523178678549008,3,13,11,12,-4,-4,-5,-3
1523178678549752,0,-3,-7,-7,0,-1,-1,2
1523178678549752,6,0,5,-6,-4,4,19,2
1523178678572075,-6,2,9,21,2,-7,-13,-7
1523178678572075,-14,-25,-6,1,0,-1,-7,0
1523178678572810,8,14,-1,1,-3,-7,2,-4
1523178678572810,0,5,-8,-36,-4,3,13,0
1523178678586116,-4,-7,21,19,1,2,3,1
1523178678586116,4,-1,-8,-12,-9,-5,11,-3
1523178678593863,8,36,-1,8,2,4,-5,3
1523178678593863,-6,-21,15,0,-3,0,17,2
1523178678608903,-31,-12,-12,-2,-3,1,2,-3
1523178678608903,3,-5,9,17,-1,-3,-11,-4
1523178678609904,0,-2,-6,19,4,-4,-16,-1
1523178678609904,4,-10,-16,-50,-7,2,13,2
1523178678632203,12,6,5,17,0,-7,-14,-2
1523178678632203,-2,18,4,-1,1,2,19,0
1523178678632967,-6,-16,-4,-5,-3,-2,-12,-4
1523178678632967,7,9,11,14,3,0,-3,-1
1523178678655300,2,15,-15,-12,-1,1,20,2
1523178678655300,-5,-4,4,13,-1,-1,0,-4
1523178678655300,-3,-6,1,-26,-2,0,7,2
1523178678655300,3,0,-8,17,3,-3,10,1
1523178678669285,9,17,2,-18,-2,1,-20,2
1523178678669285,13,22,8,7,2,4,5,4
1523178678670065,-13,-23,-5,-8,-1,0,2,-5
1523178678670065,-23,-20,-2,5,0,-2,-9,-4
1523178678692124,9,-1,1,16,-2,-4,1,-1
1523178678692124,5,17,-3,-11,-2,-6,-13,3
1523178678693130,7,10,17,9,7,11,7,3
1523178678693130,-9,-4,-16,-16,-5,-4,-17,-6
1523178678715236,2,-4,1,10,-3,-5,-5,0
1523178678715236,-3,-27,-8,-7,2,10,30,2
1523178678715236,0,21,-5,-5,-7,-4,-10,-3
1523178678715236,6,8,4,10,-1,0,-6,5
1523178678729492,-5,-8,-2,-6,-3,-2,-4,-4
1523178678729492,-6,-13,-8,-10,0,-4,-4,-4
1523178678729492,-4,-5,3,11,3,-1,-3,-1
1523178678729492,7,9,-6,-17,-9,-5,0,-1
1523178678752538,9,17,4,11,2,0,-15,2
1523178678752538,-14,12,6,9,1,1,0,2
1523178678753286,-1,-25,-17,-18,-4,-1,-1,-6
1523178678753286,-5,9,6,3,4,-1,3,-1
1523178678774607,-3,-26,5,31,0,-14,-29,-8
1523178678774607,-1,-11,-17,-43,-9,-1,4,4
1523178678775346,3,15,6,16,2,0,0,3
1523178678775346,3,8,1,0,2,3,-4,-2
1523178678789639,-2,-6,-9,0,-1,-3,0,-2
1523178678789639,0,17,7,11,1,0,-5,-5
1523178678789639,-2,-5,3,8,-1,-4,3,1
1523178678789639,2,-3,-4,-18,-3,2,1,0
1523178678812747,-4,-7,-4,3,0,0,4,1
1523178678812747,4,-5,-6,-11,-5,-5,-12,-1
1523178678812747,-12,-21,-8,-7,-2,0,6,-2
1523178678812747,-2,-2,-4,9,-1,0,-3,-5
1523178678834805,-4,-23,3,10,-1,0,5,-1
1523178678834805,5,5,-5,-14,-5,-5,5,0
1523178678835507,10,12,3,8,5,6,8,7
1523178678835507,0,11,3,-3,-3,-3,-20,-4
1523178678849542,-8,4,-3,-10,-4,4,20,-2
1523178678849542,0,-10,-1,17,2,-1,-11,-1
1523178678849542,-6,-7,-6,-20,-9,-7,-4,-6
1523178678849542,-2,0,0,7,3,0,2,3
1523178678872852,-1,2,1,-16,-1,-6,-3,-3
1523178678872852,3,7,13,14,1,3,-1,1
1523178678872852,9,28,-1,12,8,3,-3,-1
1523178678872852,-9,-12,-15,-21,-6,-1,4,1
1523178678902787,-9,-10,-5,-11,-2,1,9,-5
1523178678902787,-18,-26,3,14,2,-3,3,-3
1523178678902787,5,7,11,-1,-4,-3,-8,-1
1523178678902787,1,6,0,0,1,-2,8,-2
1523178678908700,3,25,7,2,0,0,10,2
1523178678908700,2,-16,-3,-4,-2,-2,-7,-1
1523178678909701,-5,-1,-4,-5,-1,3,-4,1
1523178678909701,1,-3,9,5,-1,-8,-12,0
1523178678931992,8,15,2,0,1,7,15,4
1523178678931992,7,22,-4,-5,1,0,-10,0
1523178678932768,-8,-17,-11,3,-2,-6,-5,-4
1523178678932768,-3,-16,-2,-2,-1,-2,7,-4
1523178678955154,-7,-25,1,12,-1,1,-15,-4
1523178678955154,12,22,-14,-27,-3,-2,4,-1
1523178678955154,-2,12,3,3,-5,-11,-10,-5
1523178678955154,-13,-33,-5,-20,1,6,9,1
1523178678969144,6,12,0,9,-2,-4,0,2
1523178678969144,4,-2,6,7,2,1,-13,-7
1523178678969869,8,23,3,0,-2,-1,18,4
1523178678969869,-5,-19,0,-3,-2,-1,-6,-4
1523178678991921,-3,7,-1,-6,-2,-4,5,-1
1523178678991921,-9,-14,-5,1,-2,-1,-5,-1
1523178678992926,-1,-4,-2,-3,-1,0,-1,-1
1523178678992926,-6,-10,6,19,1,-1,5,1
1523178679015256,0,-5,-2,-7,0,0,-19,0
1523178679015256,2,2,-6,5,1,-1,1,0
1523178679015256,-2,1,-2,-18,-3,-2,-10,-3
1523178679015256,5,2,1,5,-2,4,15,3
1523178679029347,2,6,-9,0,-1,-6,-28,-4
1523178679029347,1,12,5,-5,1,4,15,6
1523178679030026,-11,-20,-6,1,-2,1,13,-4
1523178679030026,0,-7,3,1,0,-3,-11,-5
1523178679052352,-1,3,-11,-6,-3,0,-10,-1
1523178679052352,-1,-2,4,9,-1,-1,-2,-3
1523178679053084,1,-15,-12,-13,1,-1,-12,1
1523178679053084,4,22,8,20,-2,5,24,1
1523178679074375,-5,-16,4,-16,0,2,8,2
1523178679074375,6,0,-7,-12,-3,-6,-7,-2
1523178679075143,-5,29,-7,4,-3,2,-6,-4
1523178679075143,-10,-20,-5,2,-1,-3,-5,-1
1523178679089431,0,-5,-3,-8,-3,-1,0,-2
1523178679089431,-8,-28,-8,1,-4,-2,1,-3
1523178679089431,4,-4,9,9,-1,-1,3,1
1523178679089431,12,20,-9,-21,-1,0,-12,1
1523178679112533,4,17,10,6,1,2,11,2
1523178679112533,-19,-6,-4,2,-3,-4,6,-3
1523178679113244,-1,-19,-1,2,1,2,-1,1
1523178679113244,6,13,6,16,0,-5,-29,-3
1523178679134572,-2,-1,-30,-28,-2,8,29,1
1523178679134572,0,-2,3,-6,-5,-1,-12,-3
1523178679136304,-1,-10,9,6,1,-1,-20,2
1523178679136304,2,22,-14,-9,2,-2,1,0
1523178679148599,-6,-22,12,14,1,-4,-7,-3
1523178679148599,6,8,7,35,3,-1,-4,1
1523178679157360,-15,-35,-33,-64,-7,-3,4,-8
1523178679157360,-3,15,7,9,-2,-2,1,0
1523178679179678,1,-4,15,16,-2,-3,-4,0
1523178679179678,6,8,5,-11,-5,1,7,2
1523178679181423,5,24,7,20,-2,-3,-1,1
1523178679181423,-2,-17,-3,-5,-2,-3,5,0
1523178679194461,-3,-5,6,6,1,-2,4,2
1523178679194461,-4,5,-9,-7,-2,0,-8,-1
1523178679196466,7,0,2,-5,0,-1,5,0
1523178679196466,0,10,-8,6,-1,-3,-6,-1
1523178679208497,1,-26,4,5,-4,-4,-2,-2
1523178679208497,-10,21,-11,-16,-1,-2,2,0
1523178679217521,-9,11,1,6,1,0,-3,-2
1523178679217521,3,-28,-2,-2,-2,-3,-2,-2
1523178679232629,0,5,-4,6,-3,2,2,1
1523178679232629,2,-3,-2,-4,2,0,0,-1
1523178679233567,-2,1,-1,-2,-2,-1,6,1
1523178679233567,2,18,9,0,0,4,5,2
1523178679254890,3,18,-3,-14,-3,-5,-11,-4
1523178679254890,-11,-24,6,-2,-1,1,-5,0
1523178679256623,2,0,-18,-2,-3,2,13,3
1523178679256623,0,-3,3,8,2,0,0,0
1523178679268931,-3,-14,10,8,2,0,-7,-4
1523178679268931,-3,-3,-6,-32,-1,-3,-3,-3
1523178679276678,6,9,7,10,-5,-11,-18,-6
1523178679276678,-4,-7,-4,5,0,3,6,0
1523178679291718,-3,8,-4,-20,3,0,2,-2
1523178679291718,-2,-12,9,23,1,-3,-6,-3
1523178679293722,1,-5,-1,-6,-1,-1,1,-1
1523178679293722,5,14,-4,-7,-5,-4,26,1
1523178679315040,3,2,0,1,3,9,-13,-1
1523178679315040,-14,-12,4,7,1,0,7,-2
1523178679315783,2,2,-3,-9,0,-1,0,0
1523178679315783,-3,-2,6,-10,-4,-1,-7,-3
1523178679328942,-1,-9,-4,9,0,-2,3,0
1523178679328942,6,15,-4,0,1,-2,-2,2
1523178679337137,-4,-4,0,-13,-3,1,-3,0
1523178679337137,2,0,-1,3,2,2,-1,-2
1523178679352166,1,-5,16,56,-5,-9,-12,-3
1523178679352166,-5,16,2,-31,1,7,22,1
1523178679353883,-11,-26,-13,-16,-2,-2,-8,-5
1523178679353883,4,-14,12,9,1,-5,-14,-1
1523178679374939,11,30,-8,-9,-3,2,4,3
1523178679374939,1,15,1,38,0,-3,-9,-7
1523178679375940,-20,-35,-5,6,1,1,1,-3
1523178679375940,-1,-15,-13,-45,-4,0,-2,-3
1523178679388238,0,11,6,3,1,-2,-4,1
1523178679388238,10,0,9,3,-2,-2,5,3
1523178679397219,6,20,3,0,2,0,1,-1
1523178679397219,-7,-9,-17,-10,-7,-4,-9,-4
1523178679412304,-2,-8,0,3,0,1,-3,-1
1523178679412304,2,-9,-7,-15,-2,-1,-11,-3
1523178679414045,-10,-11,2,7,-1,-3,-5,-5
1523178679414045,-6,-7,2,9,-1,-6,-15,-7
1523178679435274,-7,-32,-8,-17,-2,1,23,1
1523178679435274,13,16,-4,2,2,6,2,0
1523178679436107,4,-7,17,38,0,1,0,4
1523178679436107,5,23,-28,-45,-2,0,-2,2
1523178679457422,-17,0,-9,-18,-6,-5,-5,-5
1523178679457422,-1,-15,-10,-14,-1,-4,-5,-1
1523178679459162,5,-7,8,19,1,-1,3,2
1523178679459162,-6,13,15,20,2,3,0,-2
1523178679472447,2,22,-8,-12,1,2,10,1
1523178679472447,-10,-35,-5,3,-1,-3,-13,-2
1523178679473199,9,6,-4,-5,0,0,6,0
1523178679473199,-3,-2,1,4,2,-1,-4,1
1523178679495308,-2,-1,-1,-9,0,-2,4,-4
1523178679495308,0,11,10,15,0,-1,-14,0
1523178679496263,1,0,-10,-22,-5,-2,2,-1
1523178679496263,11,15,10,11,3,3,25,8
1523178679508294,-10,-21,-6,-8,-2,-1,-26,-3
1523178679508294,-14,-3,-6,-3,-4,-5,-5,-7
1523178679517320,3,9,-3,6,0,-3,2,-4
1523178679517320,-10,-29,2,3,0,2,11,1
1523178679532609,5,-2,-9,-4,-3,-8,-23,-2
1523178679532609,14,10,-1,-8,-4,-1,14,-1
1523178679533363,-15,17,9,-2,0,-1,-5,2
1523178679533363,-9,-15,-1,3,-4,3,6,-3
1523178679554660,6,15,-6,-2,0,-1,0,-4
1523178679554660,2,-22,-1,7,-1,-3,-9,-1
1523178679556423,9,23,-4,-3,1,2,10,4
1523178679556423,-4,4,9,-4,-3,-3,-13,-3
1523178679568729,-4,-23,6,8,2,3,11,4
1523178679568729,-4,16,-7,-9,-5,-1,2,-1
1523178679577476,1,-15,1,4,0,1,-1,-1
1523178679577476,-4,-14,-4,3,1,0,-4,-1
1523178679592519,-2,-14,1,-3,0,-2,1,-1
1523178679592519,3,17,-1,4,1,-2,3,3
1523178679594521,5,10,-4,3,1,-1,-9,3
1523178679594521,5,22,-18,-16,-4,1,-1,0
1523178679615582,-17,-22,-2,-4,-3,-3,1,-5
1523178679615582,-1,-10,0,4,1,-5,-6,0
1523178679617587,1,0,2,-6,-1,-3,-12,-4
1523178679617587,4,12,4,7,0,4,22,4
1523178679636674,9,26,0,-6,0,-1,-2,2
1523178679636674,-17,-21,4,-8,-7,-3,-12,-6
1523178679638639,2,21,2,-3,-1,2,2,-2
1523178679638639,-13,-43,-10,3,-1,0,-1,-7
1523178679652774,-1,-22,-3,-2,0,1,11,0
1523178679652774,11,12,2,7,1,0,-5,1
1523178679653680,-3,11,0,0,-1,-1,-2,0
1523178679653680,1,1,-4,-6,-1,-3,-11,-3
1523178679674736,-1,7,0,-1,1,2,-2,-1
1523178679674736,0,8,-3,0,1,1,5,-2
1523178679675737,-2,-12,-1,-8,-4,-4,7,-1
1523178679675737,3,1,-10,1,-1,2,-26,-3
1523178679705172,-8,-38,10,13,2,0,5,-2
1523178679705172,4,37,-10,-12,-3,0,3,2
1523178679705818,-9,-27,4,-2,0,-3,-1,-2
1523178679705818,6,-7,5,2,-1,-4,-3,4
1523178679711255,8,24,-4,-8,-4,-3,0,-1
1523178679711255,-8,-8,5,9,2,-4,-14,-1
1523178679719856,1,13,6,7,4,9,22,1
1523178679719856,7,1,-11,4,-2,-8,0,4
1523178679735195,5,21,8,-3,0,2,-7,0
1523178679735195,-10,-26,-3,3,0,-1,3,1
1523178679736901,-8,-29,-12,-11,-8,-8,-18,-10
1523178679736901,-2,20,5,2,-1,0,6,-1
1523178679757307,3,18,-14,4,3,2,3,2
1523178679757307,7,-21,2,6,0,0,0,1
1523178679758958,-2,15,2,-2,-1,-2,-6,-1
1523178679758958,-12,-20,9,4,-6,-7,-4,-6
1523178679772232,-1,9,-10,-9,-2,-1,-1,-3
1523178679772232,-1,-5,-3,-7,-1,-1,-4,-2
1523178679778326,4,-10,1,5,0,0,-3,3
1523178679778326,7,31,-2,-26,1,-3,-12,-2
1523178679795366,4,-5,9,28,-1,3,8,3
1523178679795366,-20,-15,-13,-2,-3,-1,7,-2
1523178679796058,-4,-24,-3,-1,0,-4,-12,-4
1523178679796058,-2,-5,3,-7,-1,-1,-5,0
1523178679817452,-2,1,7,-9,-2,-4,-10,0
1523178679817452,7,25,6,9,3,1,10,-2
1523178679818116,5,4,-14,-16,-3,-2,2,2
1523178679818116,2,12,2,6,1,4,10,0
1523178679831465,-7,-22,12,6,0,-3,-10,-3
1523178679831465,4,15,-2,17,-2,1,5,1
1523178679838474,-4,-10,-2,-24,-3,-3,12,-2
1523178679838474,4,6,4,11,0,6,6,2
1523178679855257,-10,-9,4,5,-3,-3,2,0
1523178679855257,3,4,11,8,0,-7,-8,-3
1523178679856217,4,2,-4,-7,-2,12,15,3
1523178679856217,0,-6,-4,24,-5,-6,-2,-1
1523178679877548,3,34,-2,-26,-1,-9,-13,-2
1523178679877548,6,-7,28,38,3,8,19,3
1523178679878277,-10,11,-19,-46,-3,-3,-11,-4
1523178679878277,-5,-30,-1,-26,-2,-1,-1,-5
1523178679891310,-3,4,-21,7,-1,-1,-2,-1
1523178679891310,3,2,2,-9,-3,-3,-6,0
1523178679898330,1,2,2,52,7,2,-5,-1
1523178679898330,-4,-11,-17,-40,-3,-1,11,-1
1523178679914700,6,13,5,-29,0,0,0,2
1523178679914700,-3,-11,-10,12,0,1,-3,0
1523178679916377,-5,-2,16,23,-4,-4,-15,-3
1523178679916377,-5,4,-5,1,2,-2,-5,0
1523178679937742,-5,-21,-9,-19,-2,11,9,-2
1523178679937742,3,8,-11,-19,-2,-4,8,3
1523178679938437,6,11,8,13,2,1,-7,1
1523178679938437,-6,7,-1,3,-1,-1,5,1
1523178679951768,3,-4,3,10,0,-1,8,-4
1523178679951768,3,-1,-12,-19,3,2,-1,-4
1523178679958496,-1,2,0,5,-8,-8,-6,0
1523178679958496,-11,-1,5,0,1,-1,-1,-4
1523178679974532,0,-25,10,42,1,-3,-2,-3
1523178679974532,-1,11,-11,-58,-5,0,12,1
1523178679976538,-4,-2,-1,1,1,-3,9,-3
1523178679976538,-3,-2,-2,15,0,-1,-7,-4
1523178679997829,-6,0,-7,-7,-5,-4,0,-1
1523178679997829,2,-11,17,23,2,-3,-16,-5
1523178679998597,13,-4,0,-4,-1,2,-1,2
1523178679998597,0,13,-12,-25,-2,1,6,5
1523178680012632,-6,24,5,23,-2,-1,-11,-3
1523178680012632,-8,-39,-8,-6,-5,-6,-14,-6
1523178680018942,0,7,-7,7,2,4,19,2
1523178680018942,-4,-33,10,16,-2,-4,-18,-8
1523178680034989,4,2,-5,-17,-2,-5,-4,1
1523178680034989,6,35,-13,-3,-4,2,-2,1
1523178680035695,-8,2,1,-1,2,-5,-16,-3
1523178680035695,-4,-18,6,20,3,4,6,-3
1523178680057079,-7,-3,-24,-47,-7,-3,-2,-3
1523178680057079,-2,-13,0,11,0,0,-1,-2
1523178680058755,10,-6,4,5,0,-2,-6,0
1523178680058755,7,34,-5,-25,-5,-5,-2,1
1523178680072067,-4,1,3,13,4,1,6,-1
1523178680072067,-12,-44,6,14,-3,-1,-10,-6
1523178680078845,-13,-15,-16,-25,0,-3,-11,-2
1523178680078845,10,17,-2,13,0,4,12,3
1523178680095119,6,5,6,4,0,-1,-3,3
1523178680095119,3,19,4,-5,-1,-1,-8,0
1523178680095856,-10,-11,-11,-11,-9,-2,-4,-6
1523178680095856,-4,-12,4,-5,-1,-3,-6,-2
1523178680117149,-1,-12,-1,5,-2,-2,10,-4
1523178680117149,3,8,5,3,1,-2,1,0
1523178680118917,4,26,16,5,0,-4,0,1
1523178680118917,-3,-11,-10,-2,0,-1,-8,-2
1523178680131247,-1,-19,-6,-3,-2,2,7,-4
1523178680131247,-13,-3,5,-9,-2,-4,-7,-3
1523178680139973,5,11,4,27,4,2,7,3
1523178680139973,1,-10,-13,-42,-3,-2,-1,-3
1523178680155306,1,0,7,6,4,-1,-3,1
1523178680155306,4,-5,-7,-9,-3,1,2,-1
1523178680156015,5,20,8,-4,-2,0,2,-1
1523178680156015,-2,6,7,26,4,1,0,1
1523178680177425,-7,-21,-14,-9,-4,-4,-7,-2
1523178680177425,0,-7,-9,-12,-3,-1,3,-2
1523178680179077,0,-3,3,2,2,-7,-24,-4
1523178680179077,-8,-2,11,11,1,5,1,1
1523178680191109,1,15,-6,-9,-6,-6,-2,-2
1523178680191109,3,5,-2,-1,-1,0,17,5
1523178680200130,6,-7,2,-2,-3,-3,-8,0
1523178680200130,4,11,-4,7,2,-1,-1,0
1523178680214448,-18,-1,2,4,3,-5,11,-4
1523178680214448,2,-2,1,-5,1,8,-17,3
1523178680216173,-3,-9,-7,-14,-3,2,13,-2
1523178680216173,5,-3,1,0,-4,-1,15,4
1523178680237543,11,-6,1,10,2,0,-3,2
1523178680237543,-1,26,3,-3,-1,-5,-2,-3
1523178680238235,-3,-5,-9,-11,-1,-5,-8,-5
1523178680238235,-10,-12,13,16,4,2,0,-1
1523178680251425,-1,0,-6,-18,-3,1,-7,-1
1523178680251425,-3,-16,-6,2,-1,-4,4,1
1523178680259326,5,6,1,2,2,5,-4,1
1523178680259326,7,21,-2,8,-1,-1,-4,-1
1523178680274330,1,-8,6,4,1,-4,2,1
1523178680274330,-3,10,-4,-2,0,-2,-7,-2
1523178680276335,-8,0,3,-1,-2,0,15,0
1523178680276335,-1,-23,-16,13,-5,-1,-7,-2
1523178680297423,-1,6,-10,-41,-2,5,7,0
1523178680297423,3,-16,1,3,-1,-3,6,-2
1523178680298392,-8,9,5,1,1,0,8,2
1523178680298392,-10,-2,-3,9,-3,-3,-6,-4
1523178680310459,8,-10,9,15,2,-2,-19,-1
1523178680310459,2,-21,-9,-7,0,-1,6,0
1523178680319448,-15,-6,5,12,-1,1,4,-4
1523178680319448,5,25,-6,-31,-4,-3,7,2
1523178680334523,3,13,9,10,2,9,10,1
1523178680334523,1,-4,-2,5,2,-1,-9,-2
1523178680336531,5,-7,-1,-2,0,-2,-7,1
1523178680336531,1,15,1,-8,-5,2,5,1
1523178680356582,-5,4,-6,8,0,-3,-13,-7
1523178680356582,1,-7,3,-1,-5,0,9,0
1523178680358552,4,18,-7,10,-3,0,3,1
1523178680358552,-7,-16,14,7,1,-6,-14,-6
1523178680370623,-5,-23,-6,-24,0,0,-7,-4
1523178680370623,-11,2,-30,-16,-7,-4,-2,-4
1523178680379606,1,-12,4,-10,-2,-5,-13,-2
1523178680379606,11,14,6,9,2,3,7,3
1523178680394683,4,7,31,84,4,-1,-2,2
1523178680394683,-6,-3,-4,-63,-2,4,-4,-2
1523178680396654,-10,-21,-53,-15,-5,1,-12,-6
1523178680396654,5,-5,10,30,0,-7,-5,1
1523178680416704,0,2,14,23,2,4,10,1
1523178680416704,-2,20,-4,0,0,-7,-13,-4
1523178680418710,-1,-24,6,-1,3,15,33,6
1523178680418710,2,-15,-14,-26,-5,2,13,1
1523178680430743,8,23,5,18,-3,-6,-13,4
1523178680430743,2,11,11,-4,3,4,3,3
1523178680439767,-8,-19,4,-5,-2,-6,-12,-9
1523178680439767,-3,-11,-10,-6,-1,0,-9,-4
1523178680454847,4,18,22,-19,2,2,6,2
1523178680454847,0,8,-25,40,-1,-7,-27,-4
1523178680455810,-1,-10,-8,-74,-5,2,15,4
1523178680455810,4,-1,3,17,-1,-5,-1,0
1523178680477346,-6,6,-20,-23,-6,-8,-17,-6
1523178680477346,4,9,91,111,9,3,5,3
1523178680478874,2,-23,-33,-5,3,-1,-1,-2
1523178680478874,-19,-25,-32,-24,-12,-8,-15,-7
1523178680490905,4,6,39,55,2,1,0,1
1523178680490905,-9,-16,-111,-76,-16,-6,3,-5
1523178680506351,14,24,50,21,6,2,-1,0
1523178680506351,0,15,11,32,2,1,-3,-2
1523178680515354,-3,-6,0,-26,-1,1,5,1
1523178680515354,6,3,57,58,12,2,5,1
1523178680515970,5,6,-37,19,-5,3,-7,3
1523178680515970,-4,28,-16,-66,-10,-9,-22,-5
1523178680537429,-14,-30,-2,0,1,3,7,-6
1523178680537429,0,-21,20,76,-1,-1,3,-1
1523178680538029,-1,1,21,62,2,-7,-6,0
1523178680538029,6,20,-24,-26,8,3,-11,-1
1523178680559102,-9,-18,-45,-46,-9,-6,-23,-4
1523178680559102,-4,-1,-31,-127,-8,2,20,0
1523178680567149,-4,-16,12,-1,-1,-4,-9,-3
1523178680567149,5,7,23,67,4,0,8,1
1523178680574126,-1,-27,12,30,1,-2,-2,0
1523178680574126,1,4,-11,-4,1,1,0,0
1523178680576130,1,-3,-5,-11,-7,-2,1,3
1523178680576130,5,6,29,-1,4,0,-2,-3
1523178680597187,-16,-5,-51,-37,-7,2,15,1
1523178680597187,-2,-8,9,37,-3,-4,0,0
1523178680599230,8,12,26,35,2,-3,9,0
1523178680599230,-2,-5,10,19,-1,-1,-15,-2
1523178680620249,0,-2,-12,-59,-2,-5,5,-1
1523178680620249,3,8,-8,26,3,5,-5,2
1523178680621252,0,26,-4,-29,-6,-3,7,-1
1523178680621252,-16,-26,-6,-3,1,0,1,-3
1523178680635287,7,18,8,7,-2,1,12,-3
1523178680635287,-3,-20,-20,-7,-4,-3,-14,-3
1523178680636291,-4,0,-7,-36,-1,-2,-4,-2
1523178680636291,5,1,-6,-9,1,4,9,3
1523178680657347,10,0,-15,-21,-2,-2,-2,2
1523178680657347,5,16,33,25,-3,-2,6,-2
1523178680658352,-28,-9,18,30,2,1,-5,-7
1523178680658352,3,-13,-34,-24,-2,-2,9,1
1523178680679692,5,16,53,62,13,3,-9,0
1523178680679692,6,-12,-67,-72,-3,-4,-13,1
1523178680681420,8,24,24,25,-1,-1,6,2
1523178680681420,-9,0,-15,49,-7,1,8,-1
1523178680694486,-20,-42,-5,-26,-4,-4,-16,-6
1523178680694486,-7,-19,34,5,-5,0,12,-1
1523178680700726,1,-3,-11,29,6,-1,-15,0
1523178680700726,4,9,7,-48,1,6,18,3
1523178680717673,11,23,6,33,-1,-1,-3,1
1523178680717673,-3,19,0,-2,0,-1,5,1
1523178680718511,-11,-38,-11,-9,-4,-3,8,-1
1523178680718511,4,-12,18,6,4,-2,-9,-3
1523178680739823,2,11,-20,9,-7,-5,11,0
1523178680739823,1,8,-1,-31,0,4,-6,0
1523178680741574,-8,6,-12,0,-3,-2,2,-3
1523178680741574,0,1,-10,-6,-4,-4,-5,-2
1523178680754605,0,11,6,-14,-3,0,-4,0
1523178680754605,0,-13,4,28,4,1,5,-3
1523178680760662,6,14,6,6,-4,-3,-12,-4
1523178680760662,-1,-4,7,12,0,5,25,5
1523178680777667,-1,-7,-8,-16,-4,0,-9,-4
1523178680777667,-2,7,20,7,3,-5,0,-3
1523178680778674,-7,8,14,12,3,0,-1,0
1523178680778674,-7,-6,-17,-28,-8,-6,-8,-5
1523178680800025,3,3,-8,-4,3,-2,1,1
1523178680800025,2,8,13,2,1,0,7,2
1523178680800727,-5,-1,-8,-13,1,1,3,-2
1523178680800727,-7,-16,20,55,-7,-3,-7,-4
1523178680814000,0,-2,-15,-31,10,3,-8,0
1523178680814000,-4,-15,-4,-45,-5,0,-6,-2
1523178680821075,28,31,11,42,4,4,0,2
1523178680821075,-33,-16,-43,-37,-7,-3,1,-1
1523178680845097,3,5,17,40,-1,-1,-5,-2
1523178680845097,0,9,3,13,-1,-3,0,0
1523178680845850,7,16,8,32,3,0,-2,0
1523178680845850,0,-18,-45,-61,-4,-3,-7,-3
1523178680860149,-13,-47,-8,15,-6,-4,5,-2
1523178680860149,2,2,10,5,1,6,-1,1
1523178680860889,0,4,43,1,6,2,1,2
1523178680860889,12,12,-21,25,-2,-8,-12,2
1523178680873923,-1,22,-11,-6,-8,-2,18,-1
1523178680873923,-11,-22,8,35,0,-6,-29,-6
1523178680881202,-10,-31,-21,-39,-12,1,20,-2
1523178680881202,4,8,71,51,17,1,-6,0
1523178680897230,9,19,-5,68,3,2,7,1
1523178680897230,-5,-11,-31,-65,-10,-2,0,2
1523178680898988,7,-5,7,23,1,-4,-11,0
1523178680898988,9,40,81,64,11,2,7,0
1523178680920286,-22,-17,-30,-5,-12,-8,-8,-13
1523178680920286,-2,-2,-17,13,-12,-6,20,0
1523178680921048,-10,-37,-12,29,2,5,1,1
1523178680921048,3,-35,16,-12,-4,0,2,-3
1523178680934359,12,20,29,10,11,6,-2,5
1523178680934359,-1,18,9,-9,2,-4,-5,-1
1523178680941104,5,4,-53,-65,-14,-10,-18,-5
1523178680941104,7,16,-2,-10,-1,3,9,12
1523178680957144,-7,0,12,-12,8,6,-7,-8
1523178680957144,-6,-7,-13,10,0,-3,0,-20
1523178680958148,-5,-8,-3,-15,2,1,7,0
1523178680958148,-4,1,-9,2,-5,-6,-14,-8
1523178680980225,9,5,-6,-1,-6,-6,-21,7
1523178680980225,7,25,8,-5,5,4,22,9
1523178680981209,-30,-15,3,3,-5,-4,-4,-8
1523178680981209,-1,-16,-22,-1,5,3,3,0
1523178680993458,5,1,-3,-47,-1,-1,3,5
1523178680993458,11,23,61,66,10,2,-5,1
1523178681002267,6,-15,-80,-27,-4,0,3,5
1523178681002267,0,11,-39,3,-16,-6,-5,-2
1523178681017594,-19,-3,22,72,0,3,9,-4
1523178681017594,-10,-47,-13,-46,4,1,-8,-5
1523178681018307,4,17,-12,-5,-2,-4,-11,1
1523178681018307,7,12,33,18,9,1,-7,-2
1523178681039629,5,1,-24,-45,-7,-1,13,-8
1523178681039629,-2,13,-26,17,-8,-3,-1,3
1523178681041370,0,3,36,20,1,-5,-35,-10
1523178681041370,-1,-4,0,-110,-2,0,6,0
1523178681055445,1,4,-40,48,-6,-3,1,3
1523178681055445,-8,-5,31,15,5,-2,-10,-1
1523178681062424,6,-15,30,59,8,2,7,-2
1523178681062424,-16,-14,-9,-4,0,-3,-4,-4
1523178681077685,3,-9,18,-33,-15,-5,0,0
1523178681077685,7,5,-18,-7,-8,-4,2,0
1523178681078466,-5,0,-6,-48,-15,1,9,5
1523178681078466,5,9,4,45,4,11,11,2
1523178681099809,-3,-7,-14,-49,22,6,-1,0
1523178681099809,-1,10,-1,61,5,-2,-5,-1
1523178681101527,-1,-30,14,-8,3,-4,3,-1
1523178681101527,-2,0,0,34,-13,-4,-2,-3
1523178681113807,-1,-8,-13,-67,-8,-1,-2,-2
1523178681113807,-2,3,-1,28,0,-3,-17,-2
1523178681122584,0,7,1,17,-2,-4,21,-1
1523178681122584,3,-1,13,20,4,11,6,6
1523178681137667,6,7,17,-18,-4,4,-2,8
1523178681137667,-2,4,-63,-23,10,5,-11,-8
1523178681138631,-10,1,-3,-39,-23,-20,10,-13
1523178681138631,-7,-18,-7,45,5,2,-8,3
1523178681159875,1,3,20,-22,2,-5,-12,-4
1523178681159875,-5,-7,10,-6,-6,6,18,5
1523178681160692,9,10,12,13,6,0,-16,-2
1523178681160692,1,-1,-30,-62,0,-7,-12,-7
1523178681173011,-3,5,27,83,1,5,22,0
1523178681173011,3,-2,5,-28,-5,-9,-18,-3
1523178681181886,-4,4,-17,0,6,7,2,5
1523178681181886,0,1,23,26,-1,-3,1,1
1523178681197034,0,-5,4,47,-7,-4,-11,-4
1523178681197034,-14,-10,-21,-109,-10,3,10,1
1523178681198786,0,-10,-26,-4,6,7,-1,3
1523178681198786,4,12,12,23,5,0,3,-1
1523178681220094,12,4,-1,-13,-1,-10,-9,-5
1523178681220094,-1,-1,15,76,-1,-7,2,-1
1523178681220845,-18,5,9,-40,-6,7,7,1
1523178681220845,-3,-14,-32,-49,-11,-8,-21,-7
1523178681233933,-1,1,-12,12,1,0,-6,2
1523178681233933,7,-2,16,13,-4,-6,-10,-1
1523178681241903,3,8,15,34,7,-3,-16,2
1523178681241903,-2,-7,-8,-36,-2,3,14,-1
1523178681256942,-2,3,-1,-10,-1,0,-9,-4
1523178681256942,-2,-7,0,3,-6,2,17,8
1523178681258946,5,5,34,29,15,7,-1,1
1523178681258946,1,6,-84,-57,1,-1,2,-1
1523178681280238,-8,-18,28,40,-4,-6,-15,-3
1523178681280238,3,10,14,0,2,4,1,-1
1523178681281006,-3,-9,-5,-31,-3,-3,-1,-3
1523178681281006,-1,0,24,110,3,-1,3,1
1523178681293278,1,-11,-20,-47,1,5,6,3
1523178681293278,1,11,-7,-9,7,1,-2,-1
1523178681302149,-5,-5,-25,-37,-6,-1,1,-4
1523178681302149,-4,-13,25,6,-1,-2,8,-2
1523178681317248,2,3,-9,27,0,-2,-11,2
1523178681317248,2,10,32,54,3,5,11,1
1523178681318106,13,10,-3,-8,9,3,-6,1
1523178681318106,-8,0,-29,-45,-4,-7,4,-1
1523178681339422,-7,2,4,10,0,2,3,-2
1523178681339422,6,3,-11,-29,-3,-5,3,0
1523178681341163,-1,-4,-11,2,-3,6,-10,-4
1523178681341163,1,-3,31,1,-2,-6,3,-2
1523178681353490,3,7,0,41,4,-2,4,3
1523178681353490,-4,0,-18,-18,-3,2,-1,0
1523178681362227,0,5,8,-2,-9,-7,-6,-4
1523178681362227,12,6,-11,-1,6,4,-1,1
1523178681377509,2,5,6,-5,0,1,13,2
1523178681377509,-2,-18,15,27,1,1,-4,-4
1523178681378264,-19,31,-1,24,-5,-6,1,-5
1523178681378264,-4,-36,1,-26,1,5,3,0
1523178681400569,-4,-19,-19,-6,4,-1,-6,-3
1523178681400569,11,18,-2,-2,-4,-4,-17,2
1523178681401325,15,49,20,12,1,-2,23,8
1523178681401325,-18,-46,-2,11,-4,6,-6,-4
1523178681413602,-13,-22,-26,-56,-14,-7,-5,-9
1523178681413602,-3,-15,12,22,0,-3,-1,-5
1523178681422381,8,0,-8,-4,1,-5,-5,3
1523178681422381,6,44,17,7,-3,4,21,1
1523178681437690,0,0,-8,-5,-3,0,-1,1
1523178681437690,-4,-11,2,-30,0,-1,9,-2
1523178681438428,-1,-15,-28,65,2,4,1,2
1523178681438428,1,12,12,-33,-7,-6,-3,-1
1523178681459674,-3,-6,6,-4,-2,0,0,-2
1523178681459674,-4,4,6,15,-4,-4,2,0
1523178681461488,4,-21,10,-36,6,3,-7,0
1523178681461488,7,24,-37,-52,-3,-4,-8,-2
1523178681482831,-11,14,12,18,3,1,10,-1
1523178681482831,-8,-20,-2,4,-1,-3,-16,-7
1523178681483544,-3,-26,-11,-8,-7,-3,9,-2
1523178681483544,7,-1,8,42,2,1,-3,2
1523178681496825,4,11,5,-17,-2,-2,-1,6
1523178681496825,-4,2,-20,-19,-4,4,1,0
1523178681498585,1,1,25,18,0,-1,-1,-2
1523178681498585,0,8,8,14,-2,-3,-1,-4
1523178681519909,-5,3,-24,-34,-2,-6,-10,-3
1523178681519909,1,-8,18,31,2,1,0,1
1523178681520641,-3,-9,-19,-41,-5,-3,1,-1
1523178681520641,-4,-10,24,8,0,-4,-12,-2
1523178681542776,4,4,0,26,0,0,2,0
1523178681542776,-2,13,-7,-16,-1,4,10,-1
1523178681543703,-9,-23,-7,-19,-4,-5,3,-7
1523178681543703,-2,-36,2,10,1,-4,-13,-7
1523178681556737,-15,4,-8,3,0,1,3,-1
1523178681556737,9,2,-10,-10,1,0,3,2
1523178681558742,5,26,8,-6,-5,-1,-1,3
1523178681558742,0,-1,12,42,2,-2,3,0
1523178681580057,1,-22,-45,-70,-8,0,-2,-5
1523178681580057,4,16,34,85,2,0,-5,2
1523178681580801,-3,-19,-18,-27,-3,2,-4,0
1523178681580801,-18,-15,-46,-72,-17,-11,-12,-5
1523178681602128,0,-3,28,36,3,-4,0,-1
1523178681602128,-3,-3,-7,-18,2,1,-4,3
1523178681603863,7,1,7,-5,-2,-1,-2,-1
1523178681603863,-1,21,32,47,-3,0,-1,0
1523178681617152,6,-10,-24,-8,7,2,8,1
1523178681617152,2,-3,-28,-53,-1,-4,3,-2
1523178681618903,-2,-16,4,35,1,2,7,0
1523178681618903,0,24,18,-7,1,4,0,2
1523178681638993,-2,-9,1,22,4,0,3,-2
1523178681638993,-4,-17,12,-5,0,4,-1,-2
1523178681645977,2,19,-15,-8,3,-4,-12,0
1523178681645977,-2,-4,-1,16,-1,-3,3,0
1523178681662354,10,2,22,-11,-10,-2,1,-1
1523178681662354,2,3,-13,5,8,-2,-19,-3
1523178681663277,-25,-2,-14,10,-4,-3,1,-3
1523178681663277,-1,-23,-6,28,3,0,-3,-2
1523178681676537,8,21,25,30,2,-1,-7,-1
1523178681676537,-1,-7,1,-19,-6,-4,2,-1
1523178681683463,8,12,-8,7,-1,-7,-15,-5
1523178681683463,-15,9,7,-21,0,1,11,-1
1523178681699492,-7,-52,-29,-25,-8,-8,-11,-6
1523178681699492,-5,-18,-2,-40,-6,-2,1,0
1523178681701120,5,0,21,46,-3,-1,-3,-1
1523178681701120,12,24,-1,8,8,2,-2,2
1523178681722574,-1,19,16,18,0,2,-3,-1
1523178681722574,-4,-1,14,17,-1,-1,3,-1
1523178681723181,0,-8,-40,-60,-6,-2,9,0
1523178681723181,4,0,18,12,-3,1,-7,0
1523178681736629,-2,8,-3,-23,0,-2,0,0
1523178681736629,-3,-8,-13,13,-4,-5,-12,-2
1523178681743595,-2,4,21,9,3,3,6,0
1523178681743595,-4,-14,-23,-62,-3,-3,-3,-2
1523178681759736,-1,0,19,90,2,5,6,0
1523178681759736,1,10,-10,-31,-4,-3,-4,-3
1523178681761282,2,-3,3,-19,-1,-2,-19,-5
1523178681761282,3,5,-11,-18,-6,-4,14,4
1523178681782682,4,2,17,11,3,6,0,0
1523178681782682,-21,3,-16,-10,-1,-2,-7,-1
1523178681783338,-3,-16,22,36,4,-4,-15,-4
1523178681783338,4,11,-12,2,-1,2,8,-2
1523178681796726,-2,0,-18,-32,0,1,8,3
1523178681796726,4,12,14,54,-4,-1,8,-1
1523178681803732,6,-11,12,-35,5,2,-11,1
1523178681803732,1,25,-8,61,2,0,-3,2
1523178681819788,-9,-16,9,-2,-5,-4,0,-2
1523178681819788,-1,-10,4,-15,-3,-5,-14,-6
1523178681821440,-3,5,-9,-4,-7,8,24,0
1523178681821440,4,-12,17,33,3,0,21,-2
1523178681842872,5,27,-2,-31,4,1,-6,0
1523178681842872,-2,-13,-15,18,-2,-4,-19,-2
1523178681843502,6,7,-7,-2,-6,-6,-2,-3
1523178681843502,-17,-10,-19,-46,-3,-2,-8,-1
1523178681856535,1,0,-4,1,0,0,3,3
1523178681856535,3,7,-4,-7,-2,-3,-5,-1
1523178681863780,-3,-6,-11,24,-1,-3,3,0
1523178681863780,2,-15,3,-8,-1,4,-8,0
1523178681879595,2,14,-4,-2,0,-6,-6,-4
1523178681879595,3,11,13,4,0,0,21,9
1523178681881649,-1,-14,-16,0,3,6,12,0
1523178681881649,-10,1,-15,-41,-6,-6,-11,-2
1523178681902850,0,-4,8,12,-2,-1,0,-6
1523178681902850,6,3,1,0,3,8,24,6
1523178681903659,-1,11,29,17,4,-1,-6,-1
1523178681903659,0,-14,-19,-6,-6,-5,-24,-4
1523178681917021,3,10,-1,1,-7,-4,-2,1
1523178681917021,-3,-6,-2,-14,-2,-4,-8,0
1523178681922710,3,12,1,27,6,8,7,3
1523178681922710,-20,-8,-10,0,-8,-2,-2,-6
1523178681939757,-2,-10,-2,-8,-3,-7,-27,-7
1523178681939757,7,2,-6,6,3,7,20,1
1523178681940758,2,5,13,2,0,-2,4,3
1523178681940758,14,9,6,-9,-1,2,-1,0
1523178681962115,-11,-4,-5,19,5,3,1,0
1523178681962115,-9,-2,3,-4,-1,0,25,-2
1523178681963820,-9,-10,-9,-19,-3,-2,-15,-4
1523178681963820,3,-6,19,6,1,0,-1,-2
1523178681976193,0,-29,-37,-27,-4,-2,3,1
1523178681976193,7,14,8,0,7,-1,8,4
1523178681984876,-18,-17,-2,7,-8,4,10,0
1523178681984876,10,21,1,3,3,2,-2,1
1523178682000220,-5,1,28,43,3,3,6,1
1523178682000220,-5,-17,-61,-72,-12,-13,-44,-10
1523178682000920,2,-5,-4,-7,-2,-4,15,3
1523178682000920,4,1,20,-6,2,-2,1,3
1523178682022298,1,14,-24,0,3,4,14,5
1523178682022298,4,5,11,12,-1,-1,-10,-3
1523178682023978,-9,-6,-2,-26,-1,-6,-5,-3
1523178682023978,-2,-17,-5,43,3,1,-16,-7
1523178682036322,6,13,-19,-31,-1,-2,2,2
1523178682036322,-3,-11,0,-34,-4,-1,6,0
1523178682045039,2,10,7,22,1,-1,-6,-1
1523178682045039,2,-3,11,-3,0,-5,-3,3
1523178682060214,1,-9,-3,10,-3,-7,-8,-4
1523178682060214,-4,-8,2,12,-3,14,15,-2
1523178682061080,6,13,15,22,1,-2,3,-2
1523178682061080,-12,-1,-29,-32,-3,-5,-8,0
1523178682082453,15,-3,18,-20,-7,-8,-18,-3
1523178682082453,4,-7,-9,-9,1,-1,-12,-1
1523178682083137,-8,-7,6,-14,-2,-2,4,-3
1523178682083137,-14,-24,5,51,-2,-9,-30,-9
1523178682096421,8,28,-1,-28,-6,-7,-10,0
1523178682096421,-9,-36,20,15,-2,9,28,4
1523178682104485,8,0,-21,-6,-8,-1,-19,-3
1523178682104485,-12,5,9,-7,-1,-4,-3,-8
1523178682120234,2,-4,40,62,4,0,6,2
1523178682120234,2,10,-44,-37,-5,-3,-12,-3
1523178682121237,-1,-6,-33,12,-3,-7,-11,0
1523178682121237,11,9,1,7,2,5,28,3
1523178682142646,-13,-4,14,21,-2,-1,-13,-2
1523178682142646,-2,15,29,-12,2,0,5,-3
1523178682143297,2,-10,-34,-3,-2,-1,-2,0
1523178682143297,8,4,6,1,3,7,15,5
1523178682155658,-5,-12,7,-10,0,-2,15,0
1523178682155658,-5,-13,-26,-18,3,5,-14,6
1523178682164450,7,23,19,2,3,-2,4,-1
1523178682164450,-6,-3,-3,-3,0,-2,-2,-2
1523178682179683,3,21,-2,-7,-1,2,8,-2
1523178682179683,-17,-25,-1,22,-5,-14,-9,-8
1523178682181397,2,-18,0,-15,-4,0,-11,-1
1523178682181397,8,16,-5,-6,-2,0,10,7
1523178682202754,2,2,-15,-17,2,9,29,3
1523178682202754,12,29,5,18,-4,-6,-17,-4
1523178682204459,-24,-28,1,2,1,2,14,-3
1523178682204459,4,-11,12,-25,2,2,-4,-3
1523178682215799,-4,4,-4,-3,-3,-2,-10,-1
1523178682215799,4,19,-30,-20,-1,-6,-3,-2
1523178682232535,-2,-24,22,4,-1,-3,2,0
1523178682232535,3,19,-1,3,0,0,-12,0
1523178682239554,-11,-22,6,10,2,1,-11,-2
1523178682239554,5,7,3,5,0,0,6,-1
1523178682241556,4,14,-6,-8,2,1,-14,-2
1523178682241556,-4,-16,4,-4,-7,-3,3,0
1523178682261898,2,1,-4,-2,-2,0,-1,-1
1523178682261898,10,17,8,-3,0,-5,-11,-3
1523178682263616,-29,-17,-18,-8,0,1,15,-2
1523178682263616,-11,-8,2,10,-1,-5,-10,-7
1523178682276003,-6,-8,-8,-13,-10,1,18,-2
1523178682276003,4,-4,22,24,4,-5,-25,-1
1523178682284673,17,33,10,-11,1,4,8,8
1523178682284673,-3,4,-12,-20,-1,4,14,0
1523178682299022,-10,-40,-22,-25,-5,-6,-9,-4
1523178682299022,-2,14,20,46,4,-4,4,0
1523178682306731,5,-4,-18,-39,1,5,-11,-3
1523178682306731,5,13,9,13,0,-2,2,0
1523178682322097,4,11,3,9,2,-3,-2,-2
1523178682322097,-7,-25,-3,-15,-5,1,4,-2
1523178682323781,4,14,1,10,4,-3,-3,-2
1523178682323781,12,-6,5,-2,-3,1,3,3
1523178682336133,-7,7,-10,18,2,1,-6,-3
1523178682336133,-8,-1,8,-2,2,-1,5,-1
1523178682344832,2,-4,-10,34,-7,0,6,-1
1523178682344832,3,-1,-7,-5,-3,-6,4,0
1523178682360159,11,9,-4,-51,-3,-3,-14,2
1523178682360159,-1,-12,11,22,-2,3,8,-2
1523178682360874,-3,29,26,47,3,-2,-1,2
1523178682360874,-9,-29,-65,-85,-7,1,31,-2
1523178682382254,-6,-28,-10,11,1,-6,-21,-3
1523178682382254,-2,6,5,3,-1,7,10,2
1523178682383936,9,6,21,-10,-8,-5,-11,0
1523178682383936,0,7,-9,4,5,-2,-12,0
1523178682395968,-6,3,13,9,2,2,5,1
1523178682395968,-5,-20,-8,0,0,0,1,-2
1523178682404993,3,1,-20,-19,-4,-3,9,-1
1523178682404993,-1,8,16,8,1,0,-11,-1
1523178682420310,1,10,-11,-9,-5,1,6,-2
1523178682420310,0,-11,1,14,3,0,-6,3
1523178682421035,2,-13,2,13,0,-7,-30,-5
1523178682421035,-11,2,12,-16,-6,-3,-1,-4
1523178682442436,0,3,-2,-18,1,2,11,2
1523178682442436,0,-4,-1,28,-3,-2,-4,-3
1523178682443094,0,-2,-24,-68,-5,-4,-6,-1
1523178682443094,8,2,22,35,4,-6,-1,-3
1523178682465311,-3,9,1,5,-1,5,1,3
1523178682465311,-6,9,-2,5,-1,-3,-1,-6
1523178682466158,-6,-25,2,-5,-3,-1,8,-2
1523178682466158,1,4,12,39,1,-2,-7,-1
1523178682480325,3,7,1,-46,-1,0,4,0
1523178682480325,-2,-3,-17,-7,-2,-3,-9,-2
1523178682481196,3,9,-10,17,-1,-2,-3,-1
1523178682481196,1,11,4,13,-1,2,-1,1
1523178682502437,-10,-19,2,16,-1,-9,-4,-4
1523178682502437,0,-2,-5,-13,-6,2,-7,0
1523178682508515,4,10,16,1,9,-1,0,-2
1523178682508515,-13,-15,-26,-15,-3,1,-9,-5
1523178682525361,3,2,1,18,-2,-2,16,1
1523178682525361,5,6,5,-7,-2,2,3,-2
1523178682526317,-10,-1,10,-1,-2,1,-6,-3
1523178682526317,0,-11,-28,-12,-2,2,-3,-1
1523178682539351,-2,-8,6,7,2,-2,-4,-5
1523178682539351,-4,-2,-30,8,-5,-3,5,0
1523178682546472,2,-3,13,8,0,-4,-9,-1
1523178682546472,4,19,-1,-10,2,4,7,6
1523178682562700,-16,-15,8,11,-4,-2,1,-15
1523178682562700,1,-6,1,12,-3,0,6,0
1523178682563414,2,5,17,-10,2,1,1,0
1523178682563414,5,10,-8,-22,-2,-2,-2,2
1523178682584802,0,1,-13,-7,-2,-1,-1,0
1523178682584802,-9,-19,-8,-51,-4,-8,-13,-4
1523178682586475,3,0,0,49,-1,6,23,0
1523178682586475,5,-8,32,40,-1,0,-3,-2
1523178682599706,9,35,66,111,15,5,2,6
1523178682599706,-6,-3,-58,-58,-2,-1,-23,-5
1523178682605525,-11,-35,-62,-88,-24,-18,-6,-5
1523178682605525,-7,-38,9,29,1,11,36,3
1523178682621881,4,10,-9,2,-3,-1,-12,-3
1523178682621881,5,13,46,58,8,1,7,1
1523178682623571,7,19,6,-2,4,-1,5,2
1523178682623571,5,11,0,-12,0,-3,-28,-5
1523178682644880,-3,-21,-17,-39,-4,0,-2,2
1523178682644880,2,13,14,2,-2,-2,8,0
1523178682645636,-9,1,-8,-8,-2,8,15,-1
1523178682645636,-7,-14,5,-9,-1,-2,1,0
1523178682658993,2,-4,-4,7,6,3,-11,0
1523178682658993,0,7,-1,-16,-6,-2,8,0
1523178682665686,-3,2,8,32,-6,-4,-23,-4
1523178682665686,-2,5,21,24,-1,-6,-10,-4
1523178682682794,-2,8,-57,-88,-10,0,14,1
1523178682682794,-3,-41,5,17,0,-6,-9,-3
1523178682683735,-5,4,9,-8,0,-1,3,-1
1523178682683735,-3,4,5,18,-1,2,-11,-2
1523178682705082,3,-8,13,-5,-2,-4,-13,-6
1523178682705082,7,23,-14,31,4,5,19,8
1523178682705792,2,-14,13,1,3,5,10,4
1523178682705792,-1,11,-14,-5,-8,-8,2,-4
1523178682719097,-7,0,-17,-73,-7,-5,-4,-2
1523178682719097,-1,-9,16,52,1,1,-3,-4
1523178682726154,-3,-1,5,26,4,1,9,-2
1523178682726154,2,-3,4,-4,1,-1,1,0
1523178682742204,2,-4,-10,-2,-2,-1,8,1
1523178682742204,2,12,-9,12,-2,-4,-5,-2
1523178682743894,4,15,6,-17,1,1,-4,0
1523178682743894,-9,-27,-13,-8,-1,-3,-3,-2
1523178682765243,-3,-12,6,17,-1,0,-4,0
1523178682765243,-1,-2,2,-23,-1,-1,-8,-2
1523178682765951,4,8,1,17,-2,-7,-12,-3
1523178682765951,8,11,1,10,3,-3,-10,2
1523178682787262,-3,-4,8,24,1,5,26,2
1523178682787262,-4,1,7,-15,-2,3,-6,-1
1523178682788009,-2,-2,-6,-10,-1,-6,0,-1
1523178682788009,-1,-4,-3,-11,-4,-1,-6,0
1523178682802312,1,3,5,29,3,-4,-3,0
1523178682802312,3,9,2,-28,-2,7,15,1
1523178682804051,-2,9,-18,-17,2,4,7,1
1523178682804051,-7,-12,-20,-46,-6,-1,9,-4
1523178682825324,1,5,22,26,2,-6,-19,-1
1523178682825324,3,-1,-37,-6,-1,-6,-2,2
1523178682826114,-1,0,8,15,2,9,23,0
1523178682826114,-4,-14,8,3,0,-1,-12,-3
1523178682839148,2,1,-25,-9,-5,-2,0,-2
1523178682839148,-4,5,23,2,2,-2,-12,-2
1523178682845433,-2,-10,26,35,4,-2,-12,1
1523178682845433,1,4,-45,-38,-1,0,-1,-2
1523178682862208,2,6,19,-12,-5,-3,3,-3
1523178682862208,0,14,-3,-10,-1,-1,8,3
1523178682863250,0,-22,-13,-9,-4,-5,-9,-3
1523178682863250,-7,11,21,34,6,7,10,2
1523178682885319,5,0,14,1,2,-3,-14,-1
1523178682885319,1,9,-12,-1,-1,4,14,0
1523178682886272,1,8,12,-2,-1,0,-4,-3
1523178682886272,7,4,7,4,-3,-8,-7,-2
1523178682899573,-6,-5,-7,13,0,2,2,2
1523178682899573,-4,-12,-1,-59,-6,-4,-9,-4
1523178682905324,-4,-20,-12,19,-3,-4,-8,-4
1523178682905324,0,-2,0,7,-1,-3,-8,-1
1523178682922367,3,6,-5,-3,-1,-3,-7,-2
1523178682922367,1,0,14,16,0,-1,-1,-3
1523178682923369,0,8,-10,-7,4,2,-3,3
1523178682923369,-1,-11,2,-1,-3,-2,5,-2
1523178682944693,3,-4,-5,-7,0,4,11,3
1523178682944693,-17,-3,20,22,3,-2,0,-3
1523178682946431,2,-3,-18,-31,-6,-3,2,-1
1523178682946431,0,3,-18,18,-2,-2,1,1
1523178682958795,6,11,10,26,-1,-2,-3,0
1523178682958795,-3,-12,-6,-5,-1,-2,1,1
1523178682967489,-7,11,23,6,-2,-1,2,1
1523178682967489,-3,-14,4,-20,4,1,-1,0
1523178682982824,-11,-10,-33,-5,-6,-6,-22,-7
1523178682982824,-1,-6,7,0,-1,-2,-18,-1
1523178682983530,2,-4,3,33,0,-1,-7,2
1523178682983530,4,19,-30,-52,-5,5,20,1
1523178683004873,-2,-5,-1,-10,-1,-1,-11,1
1523178683004873,0,1,5,10,1,0,-6,2
1523178683005589,1,-1,3,-1,-1,-4,-7,-3
1523178683005589,5,8,6,16,1,-3,-10,-1
1523178683018937,-14,-2,-34,-46,-3,1,7,-1
1523178683018937,5,-2,-1,7,-1,3,7,0
1523178683027647,-3,-7,-10,-11,-3,-7,8,2
1523178683027647,3,5,19,20,3,12,2,1
1523178683042712,2,6,8,9,0,-3,2,-1
1523178683042712,2,-6,-1,-6,0,3,10,-1
1523178683043693,-2,3,-6,-2,-3,-2,-6,-3
1523178683043693,-7,-4,0,-14,-3,-13,-26,-2
1523178683065020,-3,-20,1,-7,-5,2,17,-2
1523178683065020,-8,4,-13,29,-2,-1,-6,2
1523178683066751,-1,-2,-8,-55,-2,1,-4,-4
1523178683066751,0,0,6,26,-1,-4,-6,-1
1523178683078925,2,10,4,7,1,0,-4,1
1523178683078925,3,2,8,5,-1,-4,1,-3
1523178683087077,-2,-4,-8,-5,-4,-1,-5,-2
1523178683087077,-4,-10,-6,-9,-2,-1,10,0
1523178683102111,8,1,2,0,0,-2,3,1
1523178683102111,-14,-1,1,-10,-1,-1,-3,-3
1523178683103849,-2,-3,-3,0,0,-2,-4,0
1523178683103849,-1,-2,2,-3,-2,-2,5,0
1523178683125154,1,-2,7,10,0,-1,-9,0
1523178683125154,0,-9,-7,-15,-2,-2,-3,-2
1523178683125909,1,5,1,3,1,1,0,-1
1523178683125909,-3,3,4,7,1,-1,3,1
1523178683138175,2,-3,3,6,-1,-5,-8,-3
1523178683138175,0,3,-7,-27,-4,-5,0,-3
1523178683146964,-5,-13,-6,-1,-2,-6,-26,-3
1523178683146964,0,4,-4,5,0,3,14,-1
1523178683162005,3,12,0,0,-1,1,-17,-3
1523178683162005,-16,-20,-2,-2,-2,-7,-10,-4
1523178683164009,6,6,7,6,1,3,10,3
1523178683164009,-1,-9,4,0,-3,-5,-10,-1
1523178683185289,-4,4,0,-4,0,1,12,-1
1523178683185289,6,3,3,33,0,-3,1,-2
1523178683186069,3,5,-11,-44,-2,0,1,-1
1523178683186069,2,11,6,-5,-1,-2,0,0
1523178683198379,-13,-13,5,7,-3,-1,2,0
1523178683198379,3,4,9,3,-2,1,3,2
1523178683207122,-8,-18,7,27,-1,-5,-15,-5
1523178683207122,6,18,-10,-5,3,5,12,0
1523178683222167,-6,-8,-11,-27,-5,0,7,0
1523178683222167,-1,-27,-15,-42,-7,-2,4,-2
1523178683223167,1,-4,1,14,4,5,-9,-2
1523178683223167,-5,2,11,10,-2,-7,-7,-5
1523178683244458,4,10,8,20,3,2,0,1
1523178683244458,6,16,-5,-12,0,1,4,1
1523178683246227,9,4,3,2,-2,-1,1,1
1523178683246227,-19,-17,-5,1,-4,-2,-4,-3
1523178683258574,-3,-5,-7,-9,0,-3,-1,-2
1523178683258574,7,15,13,17,3,3,3,2
1523178683267286,-3,-7,0,10,0,-1,6,1
1523178683267286,-4,6,-8,-29,-2,-2,4,-4
1523178683282589,-8,-15,2,0,-4,-6,-14,-3
1523178683282589,3,-3,-1,5,0,1,24,1
1523178683283327,1,-3,0,12,-1,6,-1,5
1523178683283327,1,-9,-4,-3,0,-1,1,0
1523178683304503,2,9,4,4,0,-1,-5,-4
1523178683304503,2,2,-5,-8,-4,-8,-4,0
1523178683306387,-5,2,-11,-8,-2,8,15,1
1523178683306387,-2,-11,5,0,0,2,5,-1
1523178683318573,6,-4,-7,-5,0,-1,-12,0
1523178683318573,0,-7,2,6,1,0,-8,-3
1523178683327445,-9,9,-4,4,-5,-5,13,-2
1523178683327445,3,-5,2,-24,0,-1,-7,2
1523178683342557,-8,-15,-3,14,-1,1,10,-3
1523178683342557,3,-4,-6,-17,-3,-2,-12,-3
1523178683344509,2,10,-1,4,2,-2,4,-1
1523178683344509,-3,1,-4,8,-5,-3,-6,-1
1523178683364592,2,23,2,3,-2,-3,0,-1
1523178683364592,-8,-22,-3,-7,-1,0,-2,-1
1523178683366548,2,-2,-1,-9,-1,-3,0,-1
1523178683366548,3,13,-3,12,-2,-2,-4,-1
1523178683387757,0,-8,-1,-5,0,3,5,-1
1523178683387757,2,11,2,4,0,3,10,3
1523178683388608,-2,2,3,-7,-2,-3,-2,-1
1523178683388608,3,-20,-1,6,-1,0,-4,0
1523178683402694,5,5,3,-2,0,-4,5,4
1523178683402694,-19,-4,0,-2,3,9,2,1
1523178683403648,3,-4,-1,0,-1,-1,-5,-1
1523178683403648,2,9,1,4,0,-3,0,0
1523178683425019,2,-10,-14,-12,-4,-2,1,2
1523178683425019,4,12,2,7,0,-4,-5,-1
1523178683425705,-11,-22,-1,10,1,-4,-11,-3
1523178683425705,0,-4,-12,-20,-3,0,-8,-1
1523178683448982,-2,-3,6,7,3,6,16,1
1523178683448982,2,17,-8,-7,-5,-5,-8,-5
1523178683449769,-12,-5,7,0,-2,-3,2,-1
1523178683449769,2,-2,2,8,-1,0,-5,-2
1523178683461845,-1,-11,-2,-1,0,-3,-6,-3
1523178683461845,0,3,-4,-11,-5,-2,-2,0
1523178683463807,5,9,4,-1,1,1,3,-1
1523178683463807,1,-1,-1,13,1,-1,4,0
1523178683484898,1,7,-5,-22,-2,-1,-5,-2
1523178683484898,-14,9,5,11,1,-2,-8,-4
1523178683485863,2,-11,-9,-7,-2,-1,0,3
1523178683485863,-5,-9,2,1,-2,-1,7,-2
1523178683507155,0,-2,-3,-2,-1,0,0,0
1523178683507155,5,3,0,-5,-2,0,12,0
1523178683508924,-1,0,4,1,1,0,-7,-2
1523178683508924,-3,-10,-13,-7,-2,-5,-23,-1
1523178683521427,-1,-5,2,13,-1,0,-3,-4
1523178683521427,1,5,1,-13,-1,-1,5,1
1523178683528369,1,3,-6,3,-5,-4,7,-2
1523178683528369,4,10,5,6,0,-2,0,1
1523178683544393,-10,-12,-2,2,-1,1,-3,-3
1523178683544393,4,-11,-8,0,-2,-5,-9,-4
1523178683546022,-5,0,-14,-29,-1,-5,2,-4
1523178683546022,1,-4,10,8,1,4,0,1
1523178683567497,6,16,-6,0,-2,-2,1,-1
1523178683567497,-16,-17,15,27,4,-2,-8,-3
1523178683569086,7,8,-9,-17,0,-1,5,2
1523178683569086,-1,9,0,0,-2,-7,-12,-3
1523178683582152,1,-3,5,6,-3,3,20,0
1523178683582152,4,-9,-22,-13,-1,0,-3,2
1523178683588136,-4,4,13,4,0,2,-17,-3
1523178683588136,-6,-13,-2,6,0,0,7,-2
1523178683604505,-7,-20,-11,-5,-3,-6,-8,-4
1523178683604505,2,-4,-1,-17,-1,0,-3,0
1523178683606185,3,8,3,7,-2,1,4,0
1523178683606185,4,20,8,19,3,1,2,-2
1523178683627522,-4,-17,-3,-7,0,0,-6,0
1523178683627522,5,12,5,11,-2,0,1,-2
1523178683628242,2,-5,-11,5,2,-1,-2,-1
1523178683628242,-5,-1,13,-1,-4,-1,5,1
1523178683641565,-2,20,-9,-15,0,-4,-9,-3
1523178683641565,-4,-16,2,3,0,2,-6,-2
1523178683648578,0,-9,2,0,1,-2,3,-1
1523178683648578,3,2,-10,-23,-6,-10,-25,-4
1523178683664627,2,8,4,14,0,11,40,9
1523178683664627,-1,8,5,-6,-3,-2,-5,0
1523178683666346,2,-19,-5,10,-1,-3,-1,-2
1523178683666346,-15,-24,-3,10,2,1,-1,-5
1523178683687714,-1,15,-1,-37,-6,-11,-25,-6
1523178683687714,3,1,3,14,-1,0,1,1
1523178683688403,1,0,-2,-8,0,4,21,4
1523178683688403,10,7,-2,0,3,1,12,6
1523178683701748,-4,-12,1,10,0,-5,-4,-2
1523178683701748,-1,12,10,33,2,8,19,1
1523178683708758,-4,-5,-7,-14,-4,-5,-23,-4
1523178683708758,1,2,3,-14,-2,5,26,1
1523178683724860,-2,17,-6,-15,-3,-2,-4,1
1523178683724860,-4,-39,-15,-17,-4,-6,-14,-4
1523178683726505,-1,8,8,23,-4,-3,10,-1
1523178683726505,-5,9,15,18,3,8,-11,1
1523178683747798,3,-3,-10,-14,0,-2,-10,-2
1523178683747798,9,-5,-4,-6,0,-4,5,4
1523178683748564,-19,19,3,-1,-2,-14,-22,-7
1523178683748564,2,-6,-11,4,-1,14,18,3
1523178683761890,1,-5,0,-6,0,0,0,-1
1523178683761890,-5,6,-4,-7,1,-3,-11,-4
1523178683768915,3,5,-1,-11,0,-7,-8,0
1523178683768915,-7,-21,-2,6,0,-3,6,-4
1523178683784952,5,10,0,19,-2,-1,-4,2
1523178683784952,1,-2,10,-5,-3,-3,3,1
1523178683785662,0,12,-12,-12,-4,2,2,-2
1523178683785662,-2,4,-1,5,-2,-8,-18,-6
1523178683806984,-4,-31,-4,-11,-1,3,5,1
1523178683806984,3,19,0,-3,4,3,0,2
1523178683808725,0,-4,6,16,-1,3,8,1
1523178683808725,0,2,-7,-13,-1,-7,-9,-3
1523178683820954,-3,-6,5,0,-2,-2,3,-2
1523178683820954,1,-1,-5,6,-1,0,-3,1
1523178683829777,8,12,1,-3,2,3,-5,0
1523178683829777,2,5,-6,-5,1,-2,3,-1
1523178683845120,-11,-16,1,10,-1,-2,6,-5
1523178683845120,-7,-13,-7,-14,-2,1,7,1
1523178683845823,-1,-17,-4,-8,-5,0,-3,-3
1523178683845823,6,4,-7,7,-2,-3,0,1
1523178683867165,2,14,1,-10,-3,-3,-9,-3
1523178683867165,2,-1,-4,-3,0,0,-11,-1
1523178683868884,-2,-11,-2,-1,2,0,-12,0
1523178683868884,4,6,-3,-3,-2,-3,4,0
1523178683881235,-2,0,20,17,3,1,-13,0
1523178683881235,-4,3,-14,-7,2,6,22,0
1523178683889939,-7,-10,-7,1,-2,0,-7,-1
1523178683889939,-8,-14,-1,-21,-3,-4,-10,-3
1523178683904980,1,-5,-7,10,-1,-3,-11,-2
1523178683904980,0,8,3,2,1,2,5,0
1523178683905982,4,17,3,-1,-2,3,7,0
1523178683905982,-5,-13,2,-3,-1,-2,1,-1
1523178683927318,-1,-5,-5,-2,-1,1,-6,0
1523178683927318,4,11,9,7,1,-7,-17,-7
1523178683928041,-4,13,4,6,-2,0,3,0
1523178683928041,-7,-20,-21,-51,-1,-3,-2,-2
1523178683941389,0,-6,-10,-1,1,0,-2,1
1523178683941389,2,0,10,18,-1,-6,1,1
1523178683950097,7,4,6,7,2,1,-6,-1
1523178683950097,3,18,8,9,-1,0,3,1
1523178683965319,-1,1,-4,2,3,2,11,0
1523178683965319,2,-1,-5,-18,-8,-2,5,-1
1523178683966141,-3,-7,-4,4,1,-1,10,-1
1523178683966141,-10,-17,-2,10,-8,-1,3,-1
1523178683987508,-2,9,6,-35,0,-1,-10,-5
1523178683987508,-4,-3,3,11,-2,-3,0,-1
1523178683988203,0,-11,-4,-5,-1,1,-1,-1
1523178683988203,1,7,-1,0,-1,-1,-8,-3
1523178684001474,0,4,-1,7,0,1,4,0
1523178684001474,0,-2,-6,-7,-2,-4,-23,-4
1523178684009595,0,-6,-2,-10,0,4,10,2
1523178684009595,2,-7,4,3,0,0,0,3
1523178684024586,6,10,4,11,-1,-1,-2,1
1523178684024586,-21,5,-4,-5,-2,0,-4,-6
1523178684026303,-5,-27,-3,-4,-5,-3,-4,-2
1523178684026303,4,10,8,11,-1,-1,-9,-1
1523178684047682,6,13,-1,-1,-1,1,11,3
1523178684047682,3,-14,-1,3,1,-2,-6,1
1523178684048360,0,2,-5,-23,-3,-4,0,0
1523178684048360,-3,11,-1,14,3,0,0,-2
1523178684060664,-9,-7,8,-2,-4,-4,-10,-5
1523178684060664,2,-19,-5,11,3,0,1,1
1523178684069549,-2,3,-1,-12,-4,0,10,1
1523178684069549,6,-2,4,-3,0,3,17,4
1523178684084706,-4,3,1,12,0,-1,-3,-2
1523178684084706,2,5,1,-6,-2,-6,-16,-4
1523178684086461,-2,-12,10,21,3,-2,7,1
1523178684086461,-1,-10,-24,-40,-4,2,-11,1
1523178684107516,0,11,7,4,-2,-4,2,-1
1523178684107516,1,-6,-6,2,-1,-2,-4,-4
1523178684113843,1,5,1,11,-4,-8,-13,-3
1523178684113843,0,-4,6,19,2,1,0,-2
1523178684120692,-3,-15,-11,-13,-1,-2,-2,2
1523178684120692,0,10,5,0,-1,3,-1,1
1523178684129575,-1,0,-2,-2,1,0,-3,-1
1523178684129575,4,7,8,13,2,0,2,-2
1523178684144616,2,5,-11,-12,0,3,7,2
1523178684144616,-12,-10,-3,2,-4,3,14,-4
1523178684146658,1,-9,-1,-1,-1,1,-3,-1
1523178684146658,-4,-6,5,-6,-4,-2,4,-1
1523178684166773,6,11,-5,-3,1,-3,-11,-2
1523178684166773,9,13,0,-1,0,2,6,3
1523178684174698,-10,-19,-7,-12,-3,-1,-6,-3
1523178684174698,2,7,-1,8,2,-2,-3,-4
1523178684180890,-8,-9,6,14,-4,-2,9,0
1523178684180890,0,-4,-6,-18,-1,-2,-7,-1
1523178684189735,4,16,5,19,1,5,5,3
1523178684189735,-2,9,-1,-17,0,-5,-5,-2
1523178684204777,-7,-20,-4,3,-3,-1,-2,-3
1523178684204777,-2,-4,-3,-6,-1,3,15,1
1523178684205777,4,9,-3,6,1,0,-10,-2
1523178684205777,-1,0,2,-4,-1,1,4,0
1523178684227115,-1,1,-6,0,-3,-1,0,-1
1523178684227115,1,5,7,-1,-4,-6,-18,-5
1523178684228842,0,-11,-9,-9,0,-2,13,2
1523178684228842,-4,-6,5,7,0,5,5,-2
1523178684241205,2,6,-4,-9,0,-2,-12,-2
1523178684241205,1,6,0,0,-3,-1,-9,-3
1523178684249895,1,3,1,1,-2,-4,7,1
1523178684249895,1,6,-4,-5,-1,0,-28,-3
1523178684265239,-1,-19,6,40,1,-1,7,1
1523178684265239,-13,12,-17,-45,-4,-2,6,-4
1523178684265940,-1,-16,-3,-9,-3,-7,-16,-4
1523178684265940,-3,-1,-3,4,0,2,26,-2
1523178684287260,5,4,3,4,0,-4,-14,1
1523178684287260,-2,-16,4,6,1,4,22,2
1523178684288997,-2,4,2,-3,1,3,-2,-1
1523178684288997,2,3,-3,4,-3,-7,-4,-2
1523178684310300,-1,9,1,-10,-1,-4,-6,-1
1523178684310300,-9,-28,-3,2,-1,6,5,0
1523178684311059,2,16,2,-3,-1,-2,-11,-4
1523178684311059,-4,-17,-4,2,-2,-2,5,1
1523178684324396,1,-3,0,-5,0,0,1,-1
1523178684324396,8,7,5,5,-2,-6,-13,-1
1523178684331411,2,5,5,3,0,-3,-1,-1
1523178684331411,-1,0,-3,13,-1,4,0,1
1523178684347458,-1,8,-11,-19,-4,1,12,-4
1523178684347458,-2,-16,-4,6,-2,-12,-19,0
1523178684348158,-6,-11,7,7,1,19,53,1
1523178684348158,-1,-10,-18,-7,-1,-5,-16,-2
1523178684369487,5,17,11,10,0,1,-1,-2
1523178684369487,7,3,6,26,4,0,3,-3
1523178684371218,-20,-17,-22,-55,-5,-7,-12,-3
1523178684371218,2,11,11,38,0,-6,-9,-1
1523178684385307,-3,-15,-6,-16,-5,1,2,-4
1523178684385307,5,9,4,16,-2,-5,-6,-1
1523178684386259,10,11,6,-19,2,3,8,3
1523178684386259,-9,-9,-2,-13,-2,0,1,-2
1523178684407632,2,10,2,-1,1,-2,-8,-3
1523178684407632,-3,0,-3,-3,0,0,1,0
1523178684408316,-2,-9,-1,21,1,5,8,-1
1523178684408316,-1,3,-7,-26,-5,0,-4,0
1523178684429582,-2,-3,1,3,-1,2,6,0
1523178684429582,-1,-9,-5,-6,1,5,-3,-3
1523178684431377,1,4,1,13,-1,-3,-2,2
1523178684431377,3,0,-4,-9,-1,-1,1,-1
1523178684444414,3,2,6,7,0,-3,-4,2
1523178684444414,-7,3,6,7,0,-2,-7,-3
1523178684446418,-5,-2,-28,-7,1,-3,-12,-4
1523178684446418,-1,-7,9,-9,-10,-3,-2,-3
1523178684467707,1,-2,-2,8,0,0,8,3
1523178684467707,7,-1,1,-7,1,-1,-2,2
1523178684468477,5,19,11,30,1,-4,-14,-3
1523178684468477,-7,0,-1,-1,3,-1,-4,-2
1523178684489533,0,-26,-10,-13,-1,0,-2,-1
1523178684489533,4,24,-2,10,-2,3,0,-1
1523178684491539,-4,-15,-1,-12,-5,-4,6,1
1523178684491539,-6,-14,-6,-9,0,-2,3,-5
1523178684503677,-11,-4,6,-4,-1,-1,4,0
1523178684503677,2,3,-3,0,1,1,-1,0
1523178684510861,6,21,-5,2,0,-4,-10,0
1523178684510861,4,1,-1,-14,-3,-1,-1,1
1523178684527680,-2,-3,2,9,1,-1,-1,0
1523178684527680,2,0,3,-7,-1,1,7,1
1523178684528641,5,6,-8,19,-6,5,35,2
1523178684528641,-26,-12,-11,-32,-3,0,-14,-7
1523178684549902,2,-17,2,9,2,-1,-8,-3
1523178684549902,0,-4,-7,-14,-2,-4,-5,-1
1523178684550696,4,-3,10,13,-2,-3,-14,0
1523178684550696,7,12,-5,15,2,-1,5,1
1523178684563731,-1,7,-5,-10,0,-3,1,0
1523178684563731,-3,2,-6,4,0,1,1,2
1523178684570748,-4,-17,1,-8,0,-1,-9,-5
1523178684570748,-1,-9,-8,-1,-6,-2,2,-2
1523178684586997,-7,9,10,29,-2,-4,-12,-3
1523178684586997,1,-12,-8,-30,-1,0,10,1
1523178684588797,0,14,4,-1,1,-3,-12,-2
1523178684588797,5,2,7,2,4,-1,-1,1
1523178684610125,-1,-11,-6,-2,-2,0,0,-2
1523178684610125,-2,2,1,4,-2,-2,-2,-3
1523178684610859,3,6,10,-5,3,-4,22,6
1523178684610859,6,1,5,27,0,5,-3,0
1523178684624170,-19,-5,-36,-45,-4,2,-3,-2
1523178684624170,-4,-5,-2,-16,-6,-2,-2,-2
1523178684631200,0,-6,1,0,0,-8,-21,-6
1523178684631200,7,-2,8,20,1,2,3,1
1523178684647225,4,11,6,13,3,1,4,1
1523178684647225,-2,2,-3,-2,-2,-4,-5,-2
1523178684648956,-2,2,0,-2,-3,0,-8,2
1523178684648956,0,10,3,3,4,-2,15,-3
1523178684670015,-2,-21,-15,-20,-7,6,20,6
1523178684670015,1,5,0,2,-1,1,2,1
1523178684671013,-10,3,3,6,-2,-5,-4,-7
1523178684671013,-2,-19,-2,-27,0,5,-11,-3
1523178684684341,6,4,6,9,1,-5,-8,0
1523178684684341,3,4,3,12,-1,4,22,5
1523178684691324,0,-1,-3,0,2,0,-3,-2
1523178684691324,-1,16,0,-3,-1,-5,-11,1
1523178684707432,4,-12,7,-5,-1,-1,1,-1
1523178684707432,0,-13,-11,-9,-4,-6,-19,-7
1523178684709117,-12,1,2,-2,-1,5,-4,4
1523178684709117,-4,-7,-10,5,-5,-6,-9,-2
1523178684730224,-9,-3,3,-14,0,2,1,-4
1523178684730224,-3,-1,-7,9,-1,-4,-4,-6
1523178684731177,2,-23,-2,-10,-3,-4,-11,-6
1523178684731177,4,13,5,8,0,-1,11,4
1523178684744458,7,24,7,9,1,0,-1,0
1523178684744458,-5,1,-5,-5,1,-3,-14,-3
1523178684751279,0,4,-1,6,1,7,27,-1
1523178684751279,5,6,-5,-11,1,7,8,5
1523178684767542,6,5,-3,10,1,-5,-20,-3
1523178684767542,-21,-16,3,-16,-4,2,24,-1
1523178684768273,-2,-15,0,21,-1,-4,-10,-2
1523178684768273,0,3,-6,-36,-3,-2,-2,-4
1523178684790371,3,2,5,3,1,-2,3,-2
1523178684790371,9,6,3,17,2,-6,-10,3
1523178684791335,0,-3,-3,-1,-1,6,1,0
1523178684791335,-3,-1,5,4,-1,-3,0,-2
1523178684803443,3,1,-12,-13,-10,-7,-16,-2
1523178684803443,0,2,11,6,1,6,22,5
1523178684812389,-5,-7,-13,-14,-3,-5,-10,-5
1523178684812389,-4,-2,4,8,0,-2,-2,-1
1523178684827431,1,17,6,7,2,2,1,0
1523178684827431,-7,-14,-12,-11,-1,2,-3,-5
1523178684828432,0,-8,-3,-10,-3,-3,-6,-2
1523178684828432,3,14,2,11,2,0,-3,1
1523178684849741,-3,-9,-1,-1,-3,-3,5,-3
1523178684849741,3,1,1,-6,0,0,8,2
1523178684851494,-8,10,-8,6,0,2,3,0
1523178684851494,-5,-16,-5,-17,-3,-8,-8,-5
1523178684863811,-1,-10,7,9,1,-1,-2,-3
1523178684863811,8,-1,4,4,0,12,14,2
1523178684872552,5,5,0,-3,1,1,15,4
1523178684872552,-1,4,1,5,1,-2,-10,-2
1523178684886704,-4,1,-1,-3,3,2,-7,3
1523178684886704,0,-6,2,4,-2,-10,-28,-4
1523178684888595,3,2,7,-3,0,9,30,4
1523178684888595,1,12,-11,-1,-1,6,12,5
1523178684909899,-7,7,-5,-7,-5,-8,-7,-13
1523178684909899,-4,-11,-4,-6,-3,-5,-10,-3
1523178684910652,-2,1,1,-6,-2,-7,-20,-4
1523178684910652,-1,-4,-8,6,-1,-3,3,-2
1523178684923971,-3,-14,-2,3,0,3,21,1
1523178684923971,-17,8,12,-4,-4,-3,-7,-6
1523178684931992,-1,1,-21,-13,-2,-2,-8,1
1523178684931992,0,-14,-5,7,-3,-3,3,-1
1523178684947014,-2,3,-8,-8,-2,-6,-25,-4
1523178684947014,2,-13,7,6,1,10,48,2
1523178684948751,-7,-13,2,-13,-3,-5,-10,1
1523178684948751,-1,5,3,3,-1,0,-14,-2
1523178684969092,-3,21,4,5,1,-1,-2,-1
1523178684969092,-2,-6,-2,4,-1,-10,-21,-4
1523178684977094,-2,-31,-9,-11,-3,7,-1,-2
1523178684977094,2,11,4,4,-3,-4,7,0
1523178684983138,1,-6,0,-2,3,4,3,3
1523178684983138,4,9,-1,8,0,-2,-2,2
1523178684992132,2,14,5,4,1,-3,-3,-3
1523178684992132,-7,-20,0,-5,0,-4,-13,-3
1523178685008156,3,-4,4,-4,-3,3,21,4
1523178685008156,6,-3,-8,-2,-1,-1,-15,-2
1523178685008914,-12,11,7,11,-4,-7,-18,-1
1523178685008914,0,-9,-6,-37,-2,-2,-13,-4
1523178685030270,-1,-20,-5,10,0,2,24,6
1523178685030270,7,7,-4,0,0,0,-5,1
1523178685030971,3,18,12,2,-1,-2,-4,-1
1523178685030971,-3,14,-9,5,-1,-3,2,-5
1523178685043255,-5,-25,-8,-5,-2,-5,-20,-1
1523178685043255,3,2,-10,-11,-4,-3,-4,-1
1523178685052039,4,-4,15,8,-1,-3,-1,-2
1523178685052039,-1,7,5,38,2,3,1,-1
1523178685067341,-5,-7,-11,-68,-6,-2,17,-2
1523178685067341,-1,4,4,3,2,6,8,3
1523178685068070,4,-5,-7,5,0,1,-8,-1
1523178685068070,-3,-2,13,15,0,-1,10,1
1523178685090250,4,10,-2,7,-1,-3,-12,-2
1523178685090250,-3,0,2,5,1,1,-3,-2
1523178685091132,1,-7,-14,-24,-2,-12,-16,-6
1523178685091132,-11,-12,9,-2,0,10,26,3
1523178685103214,2,12,-1,13,-2,1,3,-2
1523178685103214,2,18,2,-11,-2,-1,-8,0
1523178685112187,-1,-20,-1,28,1,-3,-15,-4
1523178685112187,2,-9,-14,-30,0,1,-18,-3
1523178685127228,-9,-32,-7,-13,-3,-1,13,-1
1523178685127228,-5,-1,0,49,-1,-1,12,0
1523178685128230,6,17,-8,-77,-5,-3,-3,-1
1523178685128230,3,-2,4,17,-1,-3,-8,2
1523178685149587,-1,15,4,14,4,2,0,-1
1523178685149587,-1,-7,1,-6,-2,-7,-21,-4
1523178685151291,-1,2,1,11,-2,6,23,4
1523178685151291,-2,-9,-6,-9,-1,-3,16,-1
1523178685163611,1,14,9,6,-2,-1,-12,-2
1523178685163611,-5,-10,-3,-9,0,1,1,-1
1523178685172347,-3,-5,-15,0,-1,-3,-4,-2
1523178685172347,-4,-8,-1,-13,-8,-2,13,1
1523178685194407,5,6,5,36,1,-1,-6,0
1523178685194407,-1,3,3,-23,0,2,-7,4
1523178685195409,-4,-10,-8,-9,-4,-1,16,0
1523178685195409,2,-2,-1,7,0,-9,-31,-7
1523178685209564,-12,-10,5,-14,2,1,5,0
1523178685209564,5,14,-5,54,0,-1,5,-1
1523178685209564,-2,3,-3,-50,-4,-3,-2,-1
1523178685209564,2,-18,-10,-2,-4,-3,-5,-3
1523178685231790,0,-2,1,2,-1,-5,-16,-4
1523178685231790,-3,2,-2,-21,-1,-4,4,-2
1523178685232508,0,-2,3,21,2,1,-17,-3
1523178685232508,-2,7,6,9,1,2,6,1
1523178685246816,-3,-1,-4,-21,-1,-2,-6,1
1523178685246816,-1,-11,-15,-9,-1,-2,-9,-3
1523178685247547,1,11,11,24,-1,-2,-3,-3
1523178685247547,-4,-11,-1,-11,0,3,7,1
1523178685268862,3,2,2,32,-2,-3,-15,-1
1523178685268862,-4,-4,-5,-38,-4,-2,1,-2
1523178685269609,-1,8,5,12,1,-1,3,1
1523178685269609,-1,3,2,9,1,0,-1,0
1523178685291927,0,-10,-1,6,1,2,7,0
1523178685291927,4,-1,4,2,-1,0,2,-1
1523178685291927,-19,-18,-4,-2,0,1,4,-2
1523178685291927,4,1,-4,-1,-1,-3,-14,-1
1523178685307027,1,10,-3,-7,-3,-6,3,-2
1523178685307027,3,-6,2,-5,1,6,19,2
1523178685307027,5,10,6,9,2,-1,-13,-3
1523178685307027,-4,6,2,5,2,5,9,3
1523178685329038,-6,-19,0,0,-5,4,16,-3
1523178685329038,1,10,-5,-15,-1,-3,-1,2
1523178685329766,4,7,8,3,2,2,-16,0
1523178685329766,-4,-4,-11,-7,0,-2,3,-5
1523178685352069,-3,-10,-4,-3,-5,-7,-9,-4
1523178685352069,0,1,9,11,-1,-1,-20,0
1523178685352069,1,7,1,23,1,2,20,3
1523178685352069,-2,-7,-14,-55,-5,-4,-14,-1
1523178685367069,8,-2,11,10,1,-3,-3,0
1523178685367069,-15,0,-16,-3,0,-2,-5,-3
1523178685367069,2,6,5,1,-2,-5,-3,-2
1523178685367069,0,-5,-1,12,1,0,7,2
1523178685388923,4,2,-3,-11,0,3,-9,-1
1523178685388923,2,8,8,5,-2,-3,5,0
1523178685389926,0,-1,-3,-1,-2,2,6,1
1523178685389926,-2,-5,9,27,1,-3,-5,-5
1523178685411243,2,7,-16,-54,-2,5,25,2
1523178685411243,-1,-7,6,16,-1,-1,-5,1
1523178685411986,0,5,-3,0,-1,-2,5,0
1523178685411986,2,7,13,13,1,2,1,1
1523178685427071,-2,5,-13,-8,-1,-9,-22,-2
1523178685427071,-3,1,2,0,-1,4,6,-1
1523178685427071,-7,-26,-7,-8,-1,-3,4,-1
1523178685427071,4,8,4,11,2,4,7,1
1523178685449356,4,10,8,9,3,4,-11,0
1523178685449356,-4,-4,0,-6,-3,-8,-10,0
1523178685449356,2,6,-18,-13,-6,0,9,-1
1523178685449356,0,-11,-2,-1,1,0,-2,-3
1523178685471142,-8,-9,6,12,1,-2,-3,-3
1523178685471142,2,-19,-12,-5,-3,-3,-10,-4
1523178685472143,4,12,11,11,4,0,-10,-1
1523178685472143,0,6,-7,-4,-7,-3,-7,1
1523178685486232,-1,-1,-5,-11,-2,-1,0,1
1523178685486232,-4,-14,4,7,1,-2,1,-3
1523178685487183,2,3,2,4,1,4,10,0
1523178685487183,0,6,-4,-15,-1,-5,0,1
1523178685509515,-2,3,5,16,0,2,-3,-2
1523178685509515,5,-1,-4,8,2,-3,-18,1
1523178685509515,-20,-6,-14,-29,-7,-1,7,-2
1523178685509515,6,4,5,1,-1,-3,-9,-2
1523178685532384,1,1,4,14,-1,-1,11,3
1523178685532384,-4,-5,-5,-12,-3,-18,-18,-9
1523178685532384,5,-3,2,8,4,9,-13,4
1523178685532384,-8,-7,3,2,-1,9,23,1
1523178685546595,0,19,-6,0,-1,0,-15,-6
1523178685546595,-7,-4,9,4,-3,0,4,-6
1523178685547343,3,-16,-10,-8,-2,-10,-16,-5
1523178685547343,-3,-3,-4,-10,-4,-1,2,-2
1523178685569485,4,6,4,7,0,-1,-2,6
1523178685569485,-2,8,-4,-2,2,5,8,3
1523178685569485,-1,0,-2,2,-8,-6,-3,-3
1523178685569485,4,-1,2,6,3,0,-6,-2
1523178685591711,-10,-20,-25,-28,-8,-5,2,-5
1523178685591711,-12,4,0,-4,0,3,8,0
1523178685592465,4,3,13,20,1,0,-1,1
1523178685592465,1,2,-8,-23,-2,-5,-4,-2
1523178685606502,3,-5,9,17,1,1,0,0
