timestamp,emg1,emg2,emg3,emg4,emg5,emg6,emg7,emg8
1523055789141559,-9,0,21,-1,0,1,-5,-24
1523055789141559,6,2,-4,-1,-1,-2,-2,7
1523055789145567,-6,-3,-14,-3,-14,-5,-3,-12
1523055789145567,-3,-9,1,-3,6,4,12,4
1523055789147113,2,1,-16,6,-1,-1,-8,-2
1523055789147113,-11,-9,3,-7,-20,-10,-3,-20
1523055789149576,6,7,-4,1,11,11,-6,15
1523055789149576,4,-5,22,11,11,5,4,-4
1523055789151625,-1,5,-12,-6,-8,-6,0,1
1523055789151625,-2,-3,6,3,3,-1,-1,10
1523055789163114,-2,8,-2,-12,-14,-6,3,-11
1523055789163114,1,3,-1,0,6,-2,-8,1
1523055789176149,-1,-9,-34,2,10,-4,-3,5
1523055789176149,2,5,38,3,2,-8,-8,-6
1523055789181658,-4,-11,-24,-3,-7,1,5,5
1523055789181658,-3,8,28,2,2,1,-3,-7
1523055789190195,1,-4,-8,-3,-2,0,1,1
1523055789190195,1,4,-11,-5,-5,4,7,6
1523055789212288,-6,-7,-13,4,9,0,-5,-6
1523055789212288,-1,3,6,-1,-22,-10,-2,0
1523055789213243,-1,-11,-54,4,41,14,4,6
1523055789213243,6,25,83,12,7,2,2,1
1523055789259867,-2,-4,-67,29,11,2,-1,0
1523055789259867,2,9,81,-13,-7,-4,-4,-5
1523055789260870,-5,-11,-98,-20,-8,-2,-1,-3
1523055789260870,5,12,14,45,35,13,8,6
1523055789264415,-2,0,87,-15,-23,-11,-4,-1
1523055789264415,0,-7,-102,2,8,9,3,2
1523055789265382,-3,-1,46,0,-4,-5,-5,-3
1523055789265382,-1,-3,-29,-36,-10,-13,-7,-5
1523055789280421,-3,-6,-40,0,-14,-3,0,-3
1523055789280421,2,4,-18,5,9,6,5,4
1523055789281925,-3,-3,50,8,4,-4,-1,-3
1523055789281925,-6,-18,-112,-11,1,5,2,-1
1523055789286474,-1,7,72,-6,12,-4,-4,-1
1523055789286474,-3,-3,-4,-14,-10,0,-2,-2
1523055789301504,3,1,-33,9,7,5,1,1
1523055789301504,-4,-11,-11,-11,-21,-8,-3,-3
1523055789308997,4,6,-60,2,1,5,3,2
1523055789308997,-7,-11,29,1,-12,-12,-8,-8
1523055789333718,2,4,17,-9,7,4,2,1
1523055789333718,-2,1,29,10,-8,-3,-4,-2
1523055789334564,-1,-7,0,-11,-5,5,14,0
1523055789334564,0,-2,-54,3,5,1,9,-3
1523055789347267,0,13,108,13,-14,-11,-27,-4
1523055789347267,-1,-6,-8,-8,3,3,-9,-1
1523055789347600,-3,-4,1,10,15,7,4,-1
1523055789347600,0,2,5,-9,-2,-4,2,0
1523055789369820,1,-5,-25,5,-7,0,13,3
1523055789369820,1,7,45,10,-1,3,2,-1
1523055789370160,-3,-8,-12,-3,2,-5,-8,-4
1523055789370160,3,10,13,10,3,2,5,3
1523055789392252,-3,-14,-98,-24,-5,1,-3,-8
1523055789392252,1,11,102,10,-3,-8,-8,6
1523055789392721,0,-1,-8,-14,-10,-9,-28,-5
1523055789392721,-3,-9,-51,-1,9,5,-2,0
1523055789407197,-1,4,42,4,-5,-3,7,3
1523055789407197,-1,-1,-4,-7,-1,3,14,-1
1523055789407705,2,4,-22,-1,-7,-1,3,2
1523055789407705,-2,-7,-6,4,4,0,-7,0
1523055789429262,0,8,21,1,2,2,3,-2
1523055789429262,-1,-9,-65,2,-13,-4,-2,-1
1523055789430263,-1,0,9,-10,28,5,-1,-1
1523055789430263,-3,-1,47,-2,-21,-10,-8,-4
1523055789451874,0,-11,-64,-5,18,9,5,0
1523055789451874,-1,7,42,-4,-13,-7,-4,-1
1523055789452822,-2,-8,-108,-17,-7,2,1,0
1523055789452822,-3,7,100,-2,-13,-10,-1,-3
1523055789466911,-1,-2,-37,-3,12,4,-3,0
1523055789466911,-1,-3,-26,-4,2,3,2,-1
1523055789467864,2,2,16,7,-1,7,5,3
1523055789467864,-2,-4,-14,0,9,0,-8,-2
1523055789489422,1,0,3,-1,-19,-5,0,1
1523055789489422,1,-7,-58,-2,6,2,-5,-2
1523055789490496,-1,11,48,3,6,1,7,-1
1523055789490496,2,-2,-32,-17,-11,-3,0,1
1523055789512093,-3,-2,1,7,-4,-5,-6,-2
1523055789512093,1,-5,-32,-6,8,3,4,-1
1523055789512595,2,3,4,11,-14,-6,-1,-1
1523055789512595,0,0,-3,2,-1,2,-1,-1
1523055789527137,-2,-5,-12,4,25,7,2,-1
1523055789527137,-1,2,24,-3,-5,-5,-1,-1
1523055789527635,-3,1,29,1,-8,-11,-6,-4
1523055789527635,-1,-1,-18,-5,3,2,-2,-2
1523055789549690,2,0,4,12,2,5,7,2
1523055789549690,-2,1,5,5,-4,-3,-3,-2
1523055789550194,-6,-6,-11,-17,-8,-7,-5,-3
1523055789550194,2,-1,26,9,-4,-2,2,-1
1523055789572254,2,1,-6,0,6,6,3,5
1523055789572254,0,-4,-5,-2,2,-1,-3,-4
1523055789572753,-1,-2,-4,4,-1,0,-1,-3
1523055789572753,-3,-2,-14,-4,-3,-3,-1,0
1523055789586838,-1,0,-20,10,-11,-8,-3,-4
1523055789586838,-3,-2,52,-1,1,3,0,-1
1523055789594358,-1,-3,-3,6,4,-1,0,1
1523055789594358,-2,-3,-20,-3,21,6,-2,0
1523055789609517,0,3,12,5,-25,-6,-4,1
1523055789609517,-2,1,-18,-3,13,5,2,-1
1523055789610464,-3,-6,2,-6,-4,-2,-1,-1
1523055789610464,0,-3,-22,1,-8,-3,1,-1
1523055789632083,-2,-1,15,-4,8,0,-1,-2
1523055789632083,-1,5,11,4,-1,0,-2,-2
1523055789632522,2,0,10,-2,-2,2,1,1
1523055789632522,-1,-5,-22,4,-3,-2,-1,-1
1523055789646106,-1,-3,1,-10,-4,-5,-3,-1
1523055789646106,1,0,1,2,-3,-1,-1,-1
1523055789654616,1,-1,-6,5,9,5,3,0
1523055789654616,-1,0,0,-1,0,1,1,0
1523055789669348,1,1,5,-5,-5,-4,-3,-4
1523055789669348,-4,-2,1,1,-1,-3,-4,-1
1523055789670299,3,-3,-2,1,-3,0,1,2
1523055789670299,4,3,7,2,-1,-2,-1,-3
1523055789691902,-10,-1,12,-6,-3,-3,-1,-16
1523055789691902,-7,-4,-8,-4,-3,-1,-1,-14
1523055789692858,-2,-1,1,-2,-6,-3,-7,-1
1523055789692858,9,1,0,8,-1,-1,-2,21
1523055789706429,-15,-4,-8,-7,0,-3,-8,-19
1523055789706429,6,1,-1,-3,-8,0,14,2
1523055789714463,0,-3,-20,10,17,5,2,21
1523055789714463,-8,0,16,-6,-7,-5,-8,-23
1523055789729455,-1,-4,-7,-4,-7,-7,-1,0
1523055789729455,-2,-6,-3,-9,1,-1,-7,7
1523055789730484,3,2,8,8,-18,-1,6,2
1523055789730484,3,-6,-32,2,12,5,-2,10
1523055789752140,3,1,2,-14,-20,-15,-5,5
1523055789752140,-5,-4,0,11,16,13,6,-5
1523055789752599,-3,-5,-8,-5,-9,-11,-9,-7
1523055789752599,-2,5,2,-2,9,5,4,-5
1523055789766235,2,1,-13,0,-6,-4,-3,-3
1523055789766235,4,5,9,-8,-9,1,3,9
1523055789774736,-4,-7,0,2,-5,-3,-1,-9
1523055789774736,-5,-3,1,8,12,6,0,-3
1523055789789247,1,-1,-4,-2,6,2,0,5
1523055789789247,4,-4,-56,-5,6,8,1,4
1523055789790250,-6,-2,46,-2,-12,-13,-3,-7
1523055789790250,-2,-1,-29,-7,-5,-3,3,0
1523055789811855,6,7,112,7,7,3,-1,8
1523055789811855,-2,-2,-29,-25,-13,-11,-9,-6
1523055789812810,-1,8,68,51,30,13,1,-9
1523055789812810,-3,-12,-80,-31,-22,-8,-3,2
1523055789826395,3,5,86,35,31,19,9,3
1523055789826395,-1,-3,-95,-26,-11,-6,-7,-2
1523055789834414,2,8,115,13,10,5,1,3
1523055789834414,-1,1,-11,14,1,-1,0,1
1523055789849488,-1,-10,-120,1,-1,4,1,0
1523055789849488,-3,3,41,19,4,-2,-1,-1
1523055789850517,1,-2,-38,-21,-19,-5,0,1
1523055789850517,-4,-6,-8,1,6,0,-4,-5
1523055789872162,1,9,74,13,-2,-1,-2,1
1523055789872162,1,-5,-14,6,7,3,0,1
1523055789872662,0,0,-58,-17,-8,0,-3,-2
1523055789872662,-1,2,57,3,0,-5,10,-1
1523055789886246,4,-3,-35,-23,-20,-5,-18,1
1523055789886246,-2,7,29,30,4,-6,-7,-1
1523055789894723,1,-1,-19,-5,35,16,4,-3
1523055789894723,-1,-1,12,-8,-14,-6,-1,-3
1523055789909760,-6,-4,-9,-11,-5,-4,0,-9
1523055789909760,-2,1,57,1,-25,-16,3,-5
1523055789910262,-1,0,-39,-10,-5,1,18,22
1523055789910262,1,-1,20,5,8,8,-3,1
1523055789931880,0,-1,-16,-3,-8,-2,2,-1
1523055789931880,-2,-1,11,1,4,-4,-14,-10
1523055789932823,-2,-6,3,-8,-3,3,2,-6
1523055789932823,2,14,-50,2,4,2,3,3
1523055789946487,-5,-6,20,-10,-13,-8,-6,-3
1523055789946487,-1,-7,-71,-9,4,3,3,1
1523055789954506,-4,-4,57,0,-5,-5,-3,-6
1523055789954506,-3,-2,3,-4,-16,-6,-3,-2
1523055789969716,1,-1,-5,2,11,-1,-10,-2
1523055789969716,-2,-2,-9,-12,0,-2,3,1
1523055789970167,-3,-5,-52,-1,-13,-11,-14,-6
1523055789970167,-2,-5,20,5,7,1,-1,-3
1523055789991726,-3,-2,-23,6,5,-2,7,2
1523055789991726,-2,0,20,-13,-3,-5,-7,1
1523055789992726,-1,-4,-59,-12,-7,-5,-6,-4
1523055789992726,-2,-3,93,14,0,-2,-5,-3
1523055790006262,1,-4,-75,-7,1,-1,8,4
1523055790006262,0,8,55,10,6,6,-1,0
1523055790014322,1,0,-8,-5,-7,-1,-1,-5
1523055790014322,2,-3,-71,-3,-2,5,1,1
1523055790029380,-5,0,58,-14,-6,1,3,1
1523055790029380,2,-1,-11,-2,3,-3,1,0
1523055790030326,0,7,34,19,4,2,-3,-2
1523055790030326,-1,-7,-65,-13,5,3,1,2
1523055790051883,-1,5,14,2,-11,-6,-3,0
1523055790051883,-2,-4,-15,-4,-9,-4,-2,-1
1523055790052886,0,-3,13,7,5,4,1,0
1523055790052886,1,-2,-31,-1,-3,-4,9,1
1523055790074943,0,0,-5,-6,-1,-6,-16,-4
1523055790074943,-2,-3,3,0,-3,-1,3,0
1523055790075445,-1,0,-37,-12,-9,-7,-5,-1
1523055790075445,-2,3,35,6,-6,-1,-3,-3
1523055790089483,1,-7,-35,3,11,5,9,1
1523055790089483,3,15,52,13,-7,-6,-6,-1
1523055790089984,0,-3,-45,-9,3,-4,-5,-1
1523055790089984,-3,4,65,0,-10,-8,-6,-3
1523055790112042,1,-6,-41,-5,-2,2,1,2
1523055790112042,-2,-5,17,12,12,2,-3,-1
1523055790112546,-1,0,-18,-4,-2,0,4,-1
1523055790112546,-4,-4,11,-4,1,-4,-6,-2
1523055790135132,0,2,-2,-1,-4,2,2,-1
1523055790135132,1,-4,-13,0,-2,1,0,0
1523055790136108,-2,0,10,-2,-3,-6,-3,-3
1523055790136108,1,0,-2,-7,-9,-4,-1,-1
1523055790149653,-3,-4,-6,10,23,3,2,-1
1523055790149653,0,1,14,-1,9,6,1,1
1523055790150146,-1,-3,5,-1,0,-2,-2,-1
1523055790150146,-1,-1,-11,-7,-3,-2,-4,-1
1523055790172329,-2,0,-6,0,-5,-2,0,0
1523055790172329,-2,-1,-12,-2,-4,-1,-1,-1
1523055790172833,1,-6,-13,-2,5,0,-1,-3
1523055790172833,5,12,34,5,2,1,2,17
1523055790195390,-3,-2,1,0,-5,0,2,-17
1523055790195390,-5,-5,-8,0,4,1,0,-2
1523055790195893,2,-2,1,-4,-3,1,-1,3
1523055790195893,4,0,5,1,1,-1,13,14
1523055790209432,5,3,-1,0,-2,0,-17,8
1523055790209432,-20,-3,0,-5,-7,-2,-4,-49
1523055790210430,7,5,-5,5,8,6,-1,13
1523055790210430,-11,-8,-9,-5,-2,-3,-5,-26
1523055790240015,3,0,4,3,5,3,8,16
1523055790240015,1,-10,-15,-4,-7,-5,-3,7
1523055790241013,2,4,5,-2,-1,0,2,10
1523055790241013,-1,12,1,1,1,1,-3,-11
1523055790255053,-6,-21,-8,-6,-5,-6,-7,-13
1523055790255053,2,5,-2,-5,-19,-3,0,6
1523055790256554,-2,-2,10,10,33,12,9,-4
1523055790256554,0,-1,-6,-4,-15,-5,-8,7
1523055790277656,-2,14,4,1,0,-1,1,-8
1523055790277656,0,-16,-9,-6,-6,-1,1,7
1523055790278612,-4,-1,-5,-11,-4,-5,-4,-3
1523055790278612,-6,-13,-26,6,-10,-9,-7,-8
1523055790291145,2,14,14,2,-1,6,7,1
1523055790291145,4,-1,-51,-7,10,7,7,9
1523055790300171,-4,-2,40,-3,-16,-8,-4,-5
1523055790300171,-4,-1,58,2,8,2,-5,-4
1523055790314707,-1,-7,-47,-5,-3,-1,6,2
1523055790314707,0,0,14,-2,-2,-1,-6,3
1523055790321226,-7,-7,-43,-15,-5,-5,-6,-11
1523055790321226,6,4,60,25,9,8,1,4
1523055790337770,-1,6,96,-7,1,-8,-6,0
1523055790337770,2,-2,-72,-6,-1,-3,3,-1
1523055790339274,-1,-4,-45,-8,13,7,5,2
1523055790339274,4,0,-57,27,-1,6,4,7
1523055790351374,-6,-1,-19,-23,-11,-11,-6,-5
1523055790351374,1,-6,-30,10,-16,-5,0,2
1523055790360330,0,12,-10,9,1,-6,-4,-2
1523055790360330,-4,-7,-60,-22,-22,-13,4,-2
1523055790373915,-1,-2,5,12,25,13,-10,-1
1523055790373915,0,5,38,7,0,-3,-3,1
1523055790382890,1,-9,-51,-7,-15,0,10,-2
1523055790382890,0,5,63,0,9,-2,-23,0
1523055790397476,0,-1,22,3,-10,-6,6,-1
1523055790397476,-4,-5,-32,-14,-2,-1,-7,-1
1523055790399435,-2,2,76,2,17,5,0,-6
1523055790399435,-1,4,-7,-17,-2,3,7,-2
1523055790411466,-1,-5,-36,-4,-3,3,7,-4
1523055790411466,3,-2,48,10,11,4,-13,16
1523055790426504,-1,3,-49,-4,-14,-6,1,-5
1523055790426504,-4,3,94,-5,-2,-8,-12,-10
1523055790435088,-4,0,-7,-3,-7,-4,-2,-34
1523055790435088,1,4,-2,9,6,5,29,21
1523055790436531,0,-2,40,6,-15,-18,-28,30
1523055790436531,3,-9,-77,4,15,6,9,12
1523055790457636,3,9,-5,2,-3,6,10,-2
1523055790457636,-2,3,52,-8,-4,-5,-17,-31
1523055790459093,-2,1,-21,6,-4,1,8,-9
1523055790459093,-5,-7,-60,-9,8,3,-1,2
1523055790471126,0,-1,11,-2,-1,-2,10,-5
1523055790471126,-3,-8,15,6,-2,-1,1,-6
1523055790480148,2,0,12,10,-4,8,0,19
1523055790480148,1,5,2,0,16,2,-6,-4
1523055790495235,0,-4,-4,-2,-5,-2,1,8
1523055790495235,-3,-1,-15,-21,-5,-10,-9,-6
1523055790496695,-2,-4,13,2,2,11,3,-13
1523055790496695,-2,-1,-23,-2,-7,-4,11,-2
1523055790517796,-1,-1,27,5,-1,-3,-12,10
1523055790517796,0,1,-4,9,12,7,0,-1
1523055790519253,-3,4,14,-13,-18,-11,-2,-8
1523055790519253,-2,-3,20,0,9,3,2,-4
1523055790540307,2,-3,-30,6,-3,1,-4,9
1523055790540307,-1,-1,-46,-8,-11,-2,-5,-2
1523055790541811,-2,-2,7,13,14,0,4,-8
1523055790541811,-2,-5,6,-1,7,3,8,0
1523055790554847,-2,-1,9,-3,-20,-6,-15,2
1523055790554847,-1,1,-9,-3,6,1,6,0
1523055790556852,-4,-7,-39,-16,-7,-5,-12,-7
1523055790556852,0,2,15,8,-1,0,1,-2
1523055790577405,-2,-6,-30,-3,0,-2,0,2
1523055790577405,0,5,33,7,2,-1,-3,0
1523055790579411,0,-3,-9,-5,3,-1,-2,-3
1523055790579411,1,-5,-57,14,2,5,3,3
1523055790600178,-1,7,19,-11,-1,-2,1,1
1523055790600178,0,-5,-14,5,2,0,-1,2
1523055790602094,0,-4,10,0,-3,2,1,-2
1523055790602094,0,2,7,0,2,1,-7,-2
1523055790615216,-1,-6,-18,2,0,-5,-4,2
1523055790615216,-1,0,2,1,-11,-2,5,0
1523055790617156,-3,-6,-16,1,-3,-6,-3,-6
1523055790617156,-3,-1,-15,-11,-15,-2,10,-2
1523055790637566,-2,2,68,-4,3,-2,-9,-3
1523055790637566,0,0,-5,-12,-4,-11,-25,0
1523055790639070,2,0,-9,4,3,3,0,-2
1523055790639070,-3,-4,14,-2,-2,0,-5,-2
1523055790660241,1,4,-20,6,6,6,16,4
1523055790660241,-2,-5,4,3,0,-2,6,-2
1523055790661631,-3,-1,22,-3,-9,-2,-4,-2
1523055790661631,-2,-2,-1,-12,-4,-4,-2,-2
1523055790675168,0,-4,-23,5,4,1,-1,-1
1523055790675168,-1,-3,5,-3,-6,2,1,0
1523055790676673,-1,8,7,3,4,1,0,-1
1523055790676673,-1,-3,-6,-9,-4,-5,-4,-4
1523055790697765,0,-4,-6,1,-2,-4,-1,3
1523055790697765,2,7,8,2,-1,1,1,2
1523055790699232,-1,-3,-3,-4,-1,0,2,2
1523055790699232,-5,2,11,-3,-3,-4,-3,-22
1523055790720287,-3,-5,-13,2,1,-2,-13,0
1523055790720287,2,9,46,5,0,1,3,-7
1523055790721794,3,-3,-31,-4,0,1,1,25
1523055790721794,4,10,17,5,-6,-5,-4,-12
1523055790734520,-17,-17,-19,-5,1,2,3,-13
1523055790734520,0,-1,-2,-3,0,-3,3,2
1523055790741500,-2,1,3,8,-5,1,-7,-11
1523055790741500,1,6,18,0,-1,-1,3,0
1523055790757554,-1,-8,-35,-1,-2,0,-1,6
1523055790757554,-4,-16,-14,-8,7,-2,-2,2
1523055790759010,4,4,25,-5,-3,-8,-3,4
1523055790759010,1,6,-16,5,6,5,-4,10
1523055790780112,6,6,7,-1,2,0,3,-4
1523055790780112,-4,-1,-1,4,-9,1,-2,2
1523055790781569,-1,-11,-7,4,13,7,5,-2
1523055790781569,-1,10,45,-6,-26,-14,-9,1
1523055790794714,1,2,-10,2,22,13,0,4
1523055790794714,-3,1,2,-4,-8,-6,1,-5
1523055790801236,-7,-7,-24,-9,-13,-11,-5,-13
1523055790801236,0,-6,-9,-3,12,-3,1,6
1523055790817792,4,-1,-51,4,-14,2,6,6
1523055790817792,0,9,78,13,-1,-1,-4,-3
1523055790819233,-2,-1,21,-4,1,-5,0,-8
1523055790819233,-8,-34,-104,-33,4,5,-2,1
1523055790840290,-2,23,92,11,-23,-19,-10,-3
1523055790840290,-4,-7,-117,3,-7,0,-1,-8
1523055790841794,2,-7,-82,-3,45,27,7,6
1523055790841794,-1,-2,-14,-6,-13,-2,-1,4
1523055790854329,0,1,61,5,-5,-2,1,-2
1523055790854329,-1,0,-58,-13,-35,-14,-3,-1
1523055790861347,-2,5,63,-22,-12,-1,-1,-4
1523055790861347,2,-2,-90,17,20,9,0,4
1523055790877437,0,-13,-99,-12,13,0,0,0
1523055790877437,-5,3,61,-15,-10,-8,-9,-5
1523055790879396,0,-2,-34,11,8,9,9,0
1523055790879396,-1,-1,13,17,-11,4,14,1
1523055790900002,-2,-2,12,-1,13,0,-31,-4
1523055790900002,1,-9,-55,0,13,-2,1,3
1523055790901955,2,8,87,15,-6,-1,-1,-1
1523055790901955,-4,-3,21,-13,-14,-8,1,-3
1523055790914535,1,6,-16,-12,-17,-5,11,1
1523055790914535,1,-4,-6,15,22,10,1,2
1523055790921005,-4,2,16,-3,-13,-8,-10,-8
1523055790921005,-1,-6,-19,-3,1,-4,1,0
1523055790936545,0,1,15,2,-6,-4,2,1
1523055790936545,0,-1,23,2,11,4,-4,0
1523055790945070,-2,-2,-31,2,0,-4,1,-3
1523055790945070,1,11,33,-3,-14,-7,-1,-5
1523055790960110,-3,-12,-12,-3,2,1,-7,0
1523055790960110,2,0,-17,1,10,6,11,4
1523055790961612,1,3,27,-1,-6,-2,-3,2
1523055790961612,0,4,6,3,-4,-8,-8,-4
1523055790974757,-2,-5,6,-1,7,5,10,0
1523055790974757,0,-5,-44,-10,7,2,-1,-1
1523055790981332,-2,6,22,17,-9,-7,-3,0
1523055790981332,-1,-1,16,-7,-5,-3,-5,3
1523055790997839,1,-3,-39,-3,2,2,3,0
1523055790997839,-1,-3,17,-1,-9,-6,-5,-4
1523055790999324,-2,-2,-36,2,21,11,4,-1
1523055790999324,-2,-5,-6,5,2,0,-6,-1
1523055791020378,-2,0,41,0,-4,-5,-5,-4
1523055791020378,0,12,30,4,-6,2,0,-1
1523055791021883,-4,-13,-29,-6,-13,-8,-4,-1
1523055791021883,3,2,75,25,15,11,24,2
1523055791033972,-1,-4,-49,-24,-6,-7,-28,-4
1523055791033972,1,2,37,14,-13,-4,11,-1
1523055791042961,-3,-2,11,-6,-13,-3,-16,-2
1523055791042961,0,4,34,-12,0,-2,-6,0
1523055791057526,-3,-5,-30,5,1,-1,11,-1
1523055791057526,-4,-3,4,-7,-2,-4,-1,-2
1523055791059486,3,0,-37,-9,-16,-8,0,0
1523055791059486,-3,-5,-28,2,17,7,-2,-2
1523055791080086,-1,1,-35,-23,-12,-3,2,0
1523055791080086,-2,-4,28,11,7,-2,-5,0
1523055791081544,-1,-3,-14,-2,3,-4,4,0
1523055791081544,-3,-3,-20,-4,-9,-4,-11,-2
1523055791094074,2,0,-3,2,1,-2,7,0
1523055791094074,-2,-7,-29,0,-6,1,5,-1
1523055791102601,0,3,28,-3,3,1,-5,0
1523055791102601,1,6,14,-11,-11,-9,-6,-1
1523055791117690,-2,-1,3,14,-6,3,3,-1
1523055791117690,0,1,-4,-2,11,4,0,-1
1523055791119144,-3,-4,-4,-6,-8,-1,2,-2
1523055791119144,2,-3,-4,2,5,3,-2,1
1523055791140245,-2,-9,-49,0,2,-1,1,-1
1523055791140245,-2,8,87,4,-2,-1,-7,-4
1523055791141702,-2,-2,-22,-2,-1,1,1,-2
1523055791141702,0,-9,-39,-1,6,5,-3,0
1523055791153734,1,9,36,1,-4,-2,5,0
1523055791153734,-1,-3,-21,-2,9,4,-2,0
1523055791162760,-1,-3,3,-4,-1,-1,0,-2
1523055791162760,-3,-7,-10,5,-10,-6,-2,-2
1523055791177814,2,7,45,0,4,1,-1,0
1523055791177814,2,2,-25,0,-10,-3,-2,1
1523055791179303,0,2,5,4,5,-2,0,1
1523055791179303,-1,-4,-6,1,2,2,-1,-5
1523055791200359,-4,-3,6,4,-4,-3,-2,-4
1523055791200359,1,9,-17,-10,-2,-1,1,1
1523055791201863,2,1,12,-2,-6,-8,-3,6
1523055791201863,4,3,-2,2,-3,-1,-5,2
1523055791213943,-14,-10,-3,1,5,-1,-3,-17
1523055791213943,-7,3,5,-2,-1,0,3,-11
1523055791222919,-1,-3,-12,2,5,0,-8,-7
1523055791222919,-2,-12,-15,-5,-1,-4,-4,9
1523055791237458,19,19,32,5,2,3,4,11
1523055791237458,-17,0,-5,-6,-4,-6,-4,-21
1523055791239464,-6,-14,-17,-1,1,3,8,-4
1523055791239464,-5,-3,0,-3,-4,-3,-5,-7
1523055791260019,2,4,-3,1,-3,-2,2,12
1523055791260019,8,-3,-12,-5,6,1,-1,14
1523055791261522,2,0,1,-1,-10,-4,-1,-4
1523055791261522,-3,1,11,3,13,2,0,-1
1523055791274054,-2,-9,-18,3,-2,2,4,-4
1523055791274054,4,10,15,-6,0,0,-2,4
1523055791282577,-4,-3,-5,-3,3,-3,-5,-6
1523055791282577,-1,4,11,-7,-19,-4,4,0
1523055791297665,1,-2,-11,10,12,7,-8,8
1523055791297665,-7,-14,29,2,15,5,2,-7
1523055791299122,3,-2,-25,-3,-3,-1,3,-2
1523055791299122,-1,9,30,-5,-9,-11,-2,-3
1523055791320179,-3,-5,5,-8,-24,-9,-2,-3
1523055791320179,6,-2,-23,21,53,22,2,8
1523055791321684,-5,-4,5,-9,-7,-6,-3,-3
1523055791321684,1,3,33,13,4,4,-2,0
1523055791333761,-5,-2,-5,-13,-9,-7,-5,-6
1523055791333761,-2,-16,-90,-13,-13,-9,-4,-2
1523055791342739,1,20,122,41,8,-1,1,1
1523055791342739,-2,-7,-120,-24,-17,-1,-2,-3
1523055791357778,-2,-15,-99,-31,14,3,3,4
1523055791357778,6,24,120,32,-14,1,1,4
1523055791359282,-3,-7,-60,-21,-26,-13,-5,-3
1523055791359282,0,-6,-46,4,4,4,-2,-1
1523055791380338,2,17,101,6,-2,-7,-4,-6
1523055791380338,-3,-17,-113,-39,-12,-8,-3,1
1523055791381842,3,-3,-93,-11,21,10,3,6
1523055791381842,-4,11,127,5,-21,-22,-11,-9
1523055791393912,-1,-8,-53,19,6,23,9,3
1523055791393912,5,-5,-28,38,44,22,8,5
1523055791402900,1,8,26,-29,-23,-5,-4,-1
1523055791402900,-5,-9,-27,-13,3,-3,0,-2
1523055791416989,-2,0,-37,-4,-8,-7,-2,-2
1523055791416989,-4,1,68,-3,-26,-10,24,-1
1523055791423991,-2,-4,-49,9,9,5,-37,-4
1523055791423991,1,-1,-23,-9,6,2,6,-8
1523055791440044,-4,0,32,4,-9,-8,-8,8
1523055791440044,0,1,-39,-11,3,-1,2,2
1523055791441502,-1,-9,-8,3,-4,2,18,-1
1523055791441502,-6,-10,-81,-4,9,5,-2,-2
1523055791454035,-5,5,86,6,-8,-9,-13,-13
1523055791454035,0,-4,-21,-14,-16,-7,3,0
1523055791469073,1,1,10,7,13,2,-6,1
1523055791469073,-1,-8,-22,-3,5,4,-1,1
1523055791477645,0,7,-4,16,10,1,6,-1
1523055791477645,-5,-5,-38,-17,-9,-4,-12,-1
1523055791479102,1,8,82,6,-8,-2,2,-1
1523055791479102,0,-2,8,4,-1,3,3,1
1523055791500317,-1,-7,-29,-5,9,-2,3,-1
1523055791500317,0,-3,0,-9,-12,-10,-12,-2
1523055791501770,0,0,-20,-3,5,5,8,0
1523055791501770,-1,4,25,18,15,7,2,4
1523055791522861,-3,-6,-4,1,-9,-8,-5,-3
1523055791522861,-2,-1,11,-13,-11,-6,-11,-6
1523055791524332,-2,-4,-34,1,-10,-5,6,-1
1523055791524332,4,1,1,-1,4,3,1,4
1523055791537363,-3,-1,42,1,6,-1,-2,-5
1523055791537363,2,0,-7,4,-2,3,1,0
1523055791543881,-4,-10,-12,-6,6,-1,1,-1
1523055791543881,0,6,54,1,-2,1,0,1
1523055791559937,-1,-4,-14,11,6,4,1,-2
1523055791559937,-2,3,10,-29,-3,-3,-2,0
1523055791561931,-1,-4,0,0,4,4,6,3
1523055791561931,0,0,-38,-8,-9,-2,-2,-1
1523055791582535,-1,-5,2,-3,-8,0,2,-1
1523055791582535,-2,0,-17,10,7,2,-2,-1
1523055791583988,2,3,-7,4,1,4,0,1
1523055791583988,-1,-8,-47,-15,-2,2,2,0
1523055791597571,0,10,15,1,-9,-7,-4,-2
1523055791597571,-5,-10,73,-12,-16,-9,-7,-4
1523055791599028,2,12,-33,9,3,0,1,1
1523055791599028,-1,-1,-2,-4,2,1,0,0
1523055791620098,1,-2,-20,2,-7,-3,-2,0
1523055791620098,-1,8,36,4,5,1,-3,-3
1523055791621587,-4,-6,20,0,-4,-7,-4,-2
1523055791621587,1,4,-10,1,-9,-4,1,1
1523055791642785,-1,-2,-9,1,9,5,1,1
1523055791642785,0,-1,2,6,-2,0,-1,-1
1523055791644235,-2,-2,2,1,8,-4,-2,-1
1523055791644235,-4,-1,4,1,8,0,-3,-2
1523055791656828,1,-1,-8,-1,3,2,1,1
1523055791656828,-3,-11,-29,4,-6,-5,-10,-2
1523055791663834,1,8,11,-12,-12,-3,-1,-2
1523055791663834,-3,-6,6,11,16,-3,-7,-3
1523055791680329,-2,-7,-19,-8,-10,1,6,-1
1523055791680329,2,-1,-1,5,11,8,6,0
1523055791681835,-3,-4,-15,1,-5,-3,-4,1
1523055791681835,1,9,34,2,-7,-3,2,-2
1523055791702893,6,-18,-39,-10,-5,-5,-1,24
1523055791702893,-4,22,56,2,-8,-5,14,-19
1523055791704395,-5,-15,-27,-1,0,4,-14,4
1523055791704395,7,19,51,-3,-9,-5,-3,1
1523055791716984,-19,-19,-26,-22,-15,-7,-6,-27
1523055791716984,3,-14,-44,19,18,8,2,5
1523055791723989,14,13,50,-11,-19,-4,31,45
1523055791723989,-13,-7,-29,8,14,7,-20,-37
1523055791740036,7,7,22,4,8,0,-15,-3
1523055791740036,-4,-5,-6,-9,-22,-11,-5,0
1523055791741494,1,3,-10,-4,14,0,-1,-9
1523055791741494,1,-14,-29,-4,-5,-6,11,23
1523055791762596,4,2,9,2,4,7,14,11
1523055791762596,-10,1,-7,-3,-6,-9,-15,-18
1523055791764057,0,-6,12,8,18,5,2,-1
1523055791764057,1,-1,-6,-6,-22,-10,-9,2
1523055791777221,-1,9,15,5,21,15,2,-8
1523055791777221,3,-1,-8,1,-5,-1,5,16
1523055791783916,-1,-1,-21,-8,-14,-3,-1,-6
1523055791783916,-3,-4,11,1,7,3,-1,-10
1523055791799952,-2,-6,-58,-2,-14,-4,-5,0
1523055791799952,0,-5,-16,-18,-15,-7,-5,2
1523055791801904,-5,-5,6,31,0,2,-5,-16
1523055791801904,5,13,95,25,50,26,4,6
1523055791822507,0,-3,-38,-10,-6,-7,0,3
1523055791822507,3,-1,-23,5,-2,0,0,4
1523055791824465,0,6,52,3,-9,-6,-6,-12
1523055791824465,-1,-1,65,-14,-25,-6,2,3
1523055791836995,0,6,27,9,-5,-8,0,0
1523055791836995,5,8,11,29,46,19,4,2
1523055791844050,-7,-11,-93,-15,-6,-5,-6,-7
1523055791844050,1,-7,-113,-22,-10,-4,1,3
1523055791860059,-5,-5,17,-19,-5,-8,-4,-5
1523055791860059,-6,-6,-22,-7,-20,-8,-6,-4
1523055791861561,2,0,35,18,29,18,6,1
1523055791861561,0,-5,-7,-13,-21,-13,13,0
1523055791882672,0,12,-2,0,2,4,-27,-5
1523055791882672,1,-1,-17,1,8,-1,-5,0
1523055791884122,-4,-1,25,-5,-21,-9,-7,-5
1523055791884122,-1,-10,-67,-19,-3,-1,6,8
1523055791896208,-1,8,61,2,-10,-6,27,-5
1523055791896208,-3,-6,18,5,-4,-1,-17,-1
1523055791905295,-3,0,-11,-9,6,-7,-2,0
1523055791905295,2,-3,-71,-2,-2,-1,-5,0
1523055791920332,2,-2,-21,9,11,2,0,1
1523055791920332,-3,2,20,-10,-13,-3,2,-3
1523055791921837,-7,-7,-21,-10,-6,-2,3,-7
1523055791921837,-1,-3,9,12,-1,-1,-4,-1
1523055791942892,-1,6,-21,-2,11,5,-9,-4
1523055791942892,0,-6,64,6,-4,-1,11,2
1523055791944395,3,3,-12,-6,-4,1,-6,7
1523055791944395,-3,-4,-26,10,3,-3,-13,-2
1523055791957173,-4,-3,44,-19,-8,-4,1,-4
1523055791957173,-2,-2,-12,-2,8,-1,3,-2
1523055791963751,1,-1,-36,8,13,8,8,-1
1523055791963751,-5,0,58,2,-4,-3,1,-2
1523055791980794,2,-5,-40,-4,-3,0,-4,-1
1523055791980794,1,2,-15,-2,-8,-4,0,2
1523055791982243,1,1,9,-5,-8,-5,-2,-4
1523055791982243,-3,-1,20,11,5,-1,-3,-4
1523055792002799,2,-5,-32,-20,-4,1,5,3
1523055792002799,-2,5,-18,2,9,2,-1,0
1523055792004303,-2,-6,-5,-6,-6,-1,-4,-4
1523055792004303,-1,1,-8,-1,-8,-2,-3,-4
1523055792016385,0,-1,2,-2,-13,-1,3,2
1523055792016385,-1,-6,-47,-3,14,8,2,3
1523055792025358,-5,0,13,-7,-11,-13,-10,-7
1523055792025358,1,8,38,4,6,10,16,2
1523055792039952,-1,-8,-56,5,14,8,-10,1
1523055792039952,-3,-1,64,-8,-24,-13,-4,-6
1523055792041905,-1,-4,-46,-15,-8,-8,-5,-1
1523055792041905,1,2,61,10,-2,-5,-1,0
1523055792062507,-3,-4,9,4,-2,-6,1,-1
1523055792062507,1,2,-27,2,6,9,-1,1
1523055792064463,0,3,20,-4,-11,-6,-1,-1
1523055792064463,-1,-2,-16,-5,2,-2,-4,0
1523055792076534,-2,3,19,12,8,0,-2,-1
1523055792076534,-1,-6,-13,-8,-7,-3,-2,-1
1523055792085518,-1,-3,16,2,2,3,3,-1
1523055792085518,1,4,-23,19,-5,0,-5,1
1523055792100105,-1,-2,-20,15,26,7,2,0
1523055792100105,-1,-2,11,-6,-7,-4,-2,-2
1523055792101563,-2,3,3,2,0,2,-2,-3
1523055792101563,-2,-9,-29,-8,-6,-4,-5,-3
1523055792122665,-2,1,20,-2,-6,-3,0,0
1523055792122665,-1,0,-8,0,3,7,3,4
1523055792124123,-1,-6,-15,0,-4,0,-2,-1
1523055792124123,1,4,-68,12,8,-1,-3,-2
1523055792136152,-3,-3,62,-1,-9,2,13,-1
1523055792136152,0,1,-18,-9,-3,-7,-14,-1
1523055792145177,-2,-5,6,6,-5,-3,0,-1
1523055792145177,-3,-3,-20,-8,14,9,2,-3
1523055792160323,-1,-8,-46,-3,-16,-12,-5,-4
1523055792160323,2,2,30,15,15,9,10,2
1523055792161828,-1,4,10,-8,-18,-8,-2,-2
1523055792161828,-4,-1,25,-8,1,1,-4,-3
1523055792182532,-1,-4,-32,2,4,0,-1,2
1523055792182532,-2,-1,12,-12,-13,-7,-3,-1
1523055792184518,2,8,22,13,21,5,-2,-1
1523055792184518,-1,1,6,-12,-6,-5,-2,-3
1523055792196556,1,3,26,0,-1,0,-3,1
1523055792196556,-1,-9,-64,-5,-14,-9,-2,2
1523055792205046,-4,2,28,6,15,5,2,-13
1523055792205046,3,-8,9,3,6,3,4,8
1523055792220085,2,9,42,-7,-9,-6,2,1
1523055792220085,-9,-11,-50,-5,-2,-1,-10,-14
1523055792221588,12,6,2,-3,-24,-2,2,14
1523055792221588,-20,-1,19,-1,10,-2,3,-37
1523055792242760,3,-4,2,6,8,6,-16,3
1523055792242760,-4,6,-17,-12,-3,-7,27,-2
1523055792244213,-1,-8,4,-7,-13,-3,-15,13
1523055792244213,9,6,-7,0,1,-5,-21,0
1523055792256246,-8,-11,5,-1,2,-5,5,-5
1523055792256246,3,12,2,1,4,4,-8,3
1523055792265269,1,-1,-13,6,-1,0,13,3
1523055792265269,5,2,12,-4,-13,-1,6,10
1523055792280346,0,4,3,1,2,7,-1,-2
1523055792280346,0,-4,15,6,1,-2,2,-2
1523055792281814,-4,-3,-4,-5,19,6,2,-3
1523055792281814,-2,-1,2,-3,-31,-4,-1,2
1523055792302982,-1,1,2,3,16,8,4,-1
1523055792302982,2,-6,-50,3,2,1,-2,3
1523055792304486,-3,1,27,-8,3,-2,-4,-7
1523055792304486,-1,-1,-14,-5,-30,-7,-2,0
1523055792316518,-2,2,65,11,25,4,-2,-1
1523055792316518,-1,-8,-4,-1,-7,0,2,3
1523055792325043,-4,-11,-53,-5,8,-1,-8,-6
1523055792325043,4,0,-95,-6,2,0,6,7
1523055792340130,0,9,65,-6,-22,-12,-13,-10
1523055792340130,-5,-6,-34,-26,-3,0,-7,-12
1523055792341585,1,12,122,17,-11,-12,3,1
1523055792341585,3,-3,0,-4,8,10,15,17
1523055792362690,1,-5,-99,-2,-10,0,2,3
1523055792362690,3,7,48,-19,17,2,-6,0
1523055792364147,-8,-11,-108,-6,-14,-4,-7,-11
1523055792364147,-3,-6,-65,-13,-20,-3,-3,-5
1523055792376178,-3,-12,-93,13,1,-1,-1,2
1523055792376178,-3,2,42,-31,-27,-14,-11,-5
1523055792385201,1,-3,-22,1,4,4,2,1
1523055792385201,1,4,32,-2,-14,-10,13,0
1523055792399742,-6,-9,-30,-19,7,-2,-33,-6
1523055792399742,3,6,80,36,5,2,15,3
1523055792406308,0,-2,-22,-3,8,4,-15,-2
1523055792406308,-6,-5,56,6,-1,-8,-5,-4
1523055792422800,1,2,9,-10,-18,-6,13,5
1523055792422800,0,0,-32,16,7,2,6,-1
1523055792424306,0,8,66,6,3,2,-4,0
1523055792424306,-1,-9,2,-1,11,2,-4,-3
1523055792445862,1,1,7,11,-3,-2,5,3
1523055792445862,1,15,15,8,13,9,-3,3
1523055792447368,-2,-13,-62,-8,-2,0,8,-1
1523055792447368,-3,-3,25,5,8,-1,-12,-4
1523055792460403,0,-3,15,-5,0,3,7,-1
1523055792460403,-3,-12,-66,0,-18,-9,-8,-1
1523055792461905,1,8,6,-4,7,5,1,0
1523055792461905,0,-5,-16,4,5,2,-1,1
1523055792482516,-2,4,23,6,22,0,3,-1
1523055792482516,1,-4,-1,-4,-7,-4,-3,-2
1523055792483964,-3,-7,-34,3,-13,-1,2,-2
1523055792483964,-3,3,63,0,11,-1,-5,-3
1523055792505020,1,-6,-28,-5,-16,-5,-3,-2
1523055792505020,0,0,-46,-5,-5,-3,-1,0
1523055792506524,-2,4,31,8,3,-4,1,-2
1523055792506524,-2,-12,-33,-13,-8,-3,-4,-1
1523055792520067,0,2,-26,-13,-14,-3,1,-1
1523055792520067,-3,-3,39,21,24,4,-4,-2
1523055792521564,-2,-5,6,-5,3,-1,0,-4
1523055792521564,0,1,-56,3,5,5,3,1
1523055792542669,0,-2,17,3,-8,-3,11,0
1523055792542669,-2,10,90,-17,-7,-3,-18,-2
1523055792544127,-1,-2,-30,-11,-8,-5,-1,0
1523055792544127,-3,-2,-1,10,17,-1,-2,-1
1523055792565292,0,-4,-34,-7,-7,2,2,0
1523055792565292,0,-7,-25,4,-2,-2,6,1
1523055792566799,0,2,28,-7,-2,1,2,0
1523055792566799,3,8,0,-3,12,2,-4,1
1523055792579889,-2,0,7,4,1,-4,-2,-1
1523055792579889,-4,-9,-39,2,4,3,2,0
1523055792586352,1,3,-13,-17,-7,3,-2,0
1523055792586352,-2,-5,-38,8,2,1,0,0
1523055792602895,0,7,61,5,-3,-2,-3,-2
1523055792602895,3,-3,2,10,7,1,1,1
1523055792604397,0,-6,-113,-1,6,1,2,2
1523055792604397,3,23,127,15,-7,-3,-2,0
1523055792625118,-1,-5,-48,-1,1,-1,0,-1
1523055792625118,-3,-4,-68,-4,0,4,-3,0
1523055792626568,-3,-6,-27,1,0,-2,1,-2
1523055792626568,4,10,23,0,0,2,0,0
1523055792639651,-3,-8,-67,-4,-2,-3,-5,-4
1523055792639651,1,2,54,3,-8,-2,2,1
1523055792646170,-2,3,107,26,5,3,3,1
1523055792646170,0,2,7,-10,-8,-3,-1,-1
1523055792662713,-3,-2,-37,-14,-4,0,-1,-1
1523055792662713,-2,0,5,2,0,-7,-3,-3
1523055792664167,-2,-10,-10,3,-18,-1,-2,1
1523055792664167,-1,5,-10,-4,-3,-2,-1,-2
1523055792685222,-1,-3,-6,-5,-7,1,10,0
1523055792685222,1,0,-4,6,1,5,-10,0
1523055792686728,1,1,25,0,7,-7,-3,-1
1523055792686728,-2,-8,-38,-12,-8,-1,-2,-2
1523055792699762,-2,3,43,0,1,-7,-5,-1
1523055792699762,-3,-10,-35,-7,-3,2,7,-1
1523055792706326,5,25,74,1,1,0,-1,0
1523055792706326,-1,-7,-54,0,0,1,-2,0
1523055792722821,11,5,67,12,11,3,4,25
1523055792722821,-13,-5,6,-6,-8,-8,8,-20
1523055792724362,0,6,-30,-1,9,5,-12,-17
1523055792724362,3,-24,-33,-3,1,1,2,29
1523055792745170,-17,2,55,0,-7,-5,-6,-35
1523055792745170,-3,-3,-62,-7,-7,-6,7,-2
1523055792746612,15,7,6,17,48,15,2,26
1523055792746612,-11,-1,-45,-13,-18,-4,4,-17
1523055792767723,-9,-14,-6,-1,-9,-4,-30,-29
1523055792767723,-2,-1,-6,3,-8,1,4,20
1523055792769176,-4,-14,-14,-2,8,1,-2,-10
1523055792769176,9,14,38,1,-6,-5,7,22
1523055792782841,6,0,-10,0,6,4,13,12
1523055792782841,0,-3,7,-8,-14,-6,-12,-5
1523055792784301,-6,4,-6,-11,-15,-12,2,-5
1523055792784301,-2,-16,-15,6,-6,2,-3,-13
1523055792804979,0,8,-10,-1,3,4,4,-3
1523055792804979,1,0,7,-1,6,-4,-6,3
1523055792806936,2,-1,-26,0,-1,5,6,10
1523055792806936,-6,-4,0,-9,-12,-12,-11,-13
1523055792819470,-2,1,-8,5,1,8,0,1
1523055792819470,6,-2,-37,1,17,10,8,13
1523055792826522,-6,0,40,-10,-21,-12,-10,-9
1523055792826522,-4,3,50,1,-13,-4,-2,-16
1523055792842534,4,-13,-116,-4,17,2,9,14
1523055792842534,4,25,126,24,9,4,-1,2
1523055792844037,-8,-11,48,-17,-16,-5,-2,-10
1523055792844037,1,-8,-87,-2,10,3,-3,0
1523055792865219,-5,-2,103,22,-8,-13,-7,2
1523055792865219,-3,-10,-15,-14,-4,-4,-3,-8
1523055792866676,-4,-5,-99,-4,3,-3,-4,-3
1523055792866676,-4,0,5,-17,-6,0,-2,2
1523055792879748,3,2,-20,8,3,8,7,4
1523055792879748,-2,-10,-80,0,6,-2,-2,-6
1523055792886226,1,12,93,-16,-27,-10,1,4
1523055792886226,-2,-6,-50,-3,18,-1,-2,-2
1523055792902851,1,1,-54,-12,-26,-7,-2,-1
1523055792902851,0,13,115,12,-6,0,-4,-3
1523055792904356,0,-10,-87,11,26,1,15,1
1523055792904356,-1,4,45,9,15,18,-10,-1
1523055792925044,0,1,-4,-26,-20,-14,-7,-6
1523055792925044,3,3,-2,13,12,0,4,7
1523055792926498,0,-10,-44,-7,-3,2,2,3
1523055792926498,0,5,94,-1,-2,2,10,0
1523055792938641,1,10,-29,5,12,6,11,2
1523055792938641,-3,-4,54,-24,-10,-11,-32,-8
1523055792947665,2,5,25,25,-1,-2,-2,-5
1523055792947665,-2,-6,-49,-10,0,-3,-3,-1
1523055792962818,-3,-2,19,1,-4,-1,1,-10
1523055792962818,0,-1,-44,-6,1,4,15,11
1523055792964321,-3,-2,8,0,-2,1,-2,1
1523055792964321,0,1,6,9,-3,-6,0,-1
1523055792984931,-1,0,10,-1,4,0,-5,1
1523055792984931,-2,-2,-31,-2,-8,-1,-1,-8
1523055792986936,-2,-5,-12,0,19,12,-2,2
1523055792986936,0,-1,-41,11,8,2,3,-1
1523055792998996,-2,-2,61,-4,-18,-10,-6,-3
1523055792998996,-2,-8,-84,-17,-8,-3,-2,-3
1523055793007490,-2,4,53,3,-10,-5,-1,-2
1523055793007490,-1,-8,-10,-6,1,-4,-1,-2
1523055793022529,-2,-7,-10,7,5,4,-3,3
1523055793022529,1,3,-13,-16,-18,-7,3,-1
1523055793024033,-1,-8,-32,-2,13,9,1,-1
1523055793024033,-3,6,83,19,12,-7,-4,-4
1523055793045184,0,-2,-6,-3,6,4,-10,1
1523055793045184,0,-4,-6,4,-6,0,2,-1
1523055793046593,-4,4,-4,-10,-10,-5,-4,-2
1523055793046593,0,-3,-9,-3,-8,-2,2,1
1523055793058626,0,3,26,-1,6,1,4,2
1523055793058626,2,10,48,4,2,-1,-1,-1
1523055793067652,-1,-6,-20,-7,-7,-5,-5,-3
1523055793067652,-1,5,-10,-1,-2,4,3,1
1523055793081787,-1,-8,-32,-12,1,-2,2,2
1523055793081787,-2,0,15,13,3,1,-3,-4
1523055793090274,-1,-2,1,2,-8,-5,-1,0
1523055793090274,0,1,4,-8,-7,-3,-4,-1
1523055793105816,-1,0,-35,-7,-7,-9,-5,-1
1523055793105816,-2,-7,2,-2,3,4,5,1
1523055793107318,-2,-1,-5,6,1,1,-1,1
1523055793107318,-2,-4,-4,2,-8,-8,-4,-4
1523055793118851,1,1,8,-3,13,10,5,2
1523055793118851,-1,-5,3,10,-3,2,1,1
1523055793128375,0,1,6,-4,-3,-3,-3,0
1523055793128375,-1,-3,-25,-9,-10,-7,-5,-1
1523055793142912,-4,1,17,7,14,1,1,0
1523055793142912,0,-4,-41,-5,9,3,0,1
1523055793144471,-1,0,13,0,-2,0,-1,-5
1523055793144471,1,6,-7,-8,-1,5,1,-1
1523055793165068,-2,-7,17,6,-1,0,-1,-1
1523055793165068,1,-1,19,-7,-4,-3,0,0
1523055793167062,0,2,-28,4,4,-1,-1,-1
1523055793167062,-3,-3,10,-5,-1,-1,-3,-2
1523055793179098,1,4,12,-4,-11,-5,-2,-2
1523055793179098,-1,-4,-27,-4,4,2,-1,-3
1523055793187769,-3,-4,7,-7,-9,-7,-2,-1
1523055793187769,0,-3,-6,5,1,1,2,3
1523055793202809,-1,11,9,-2,-10,-5,-3,-2
1523055793202809,-1,3,18,4,0,-1,0,0
1523055793204315,-3,-6,-15,-3,6,3,-3,-1
1523055793204315,-2,0,6,0,-1,0,0,-3
1523055793225008,0,-5,-12,-6,0,-1,3,2
1523055793225008,6,0,-19,-1,-4,-4,0,13
1523055793227071,-5,-1,-12,1,-2,-1,1,-9
1523055793227071,3,10,23,2,5,2,4,5
1523055793238702,-31,-24,-17,-5,-8,-4,3,-53
1523055793238702,2,-6,-1,3,4,2,-24,-6
1523055793247630,9,4,-5,-5,-8,-9,-6,26
1523055793247630,5,6,3,-2,0,1,20,0
1523055793270227,-14,2,1,-1,0,-4,-20,-38
1523055793270227,-5,-6,-3,0,1,6,12,8
1523055793271693,1,-5,-4,-2,1,4,3,-4
1523055793271693,8,-2,-4,5,8,1,-1,17
1523055793285229,12,12,-2,1,-12,-8,1,26
1523055793285229,-9,1,2,-1,5,2,-1,-22
1523055793286767,0,-16,-30,-4,-9,-4,-1,2
1523055793286767,1,18,56,2,2,-2,-4,-1
1523055793298863,1,-16,-41,-3,16,9,1,2
1523055793298863,-3,5,17,-6,-14,-7,-1,1
1523055793307790,4,9,-3,2,12,10,11,5
1523055793307790,-9,-11,-8,8,-7,-2,-5,-11
1523055793322861,5,0,2,6,6,4,-3,12
1523055793322861,0,-3,-15,-11,-13,-11,-2,3
1523055793324356,0,-4,-75,-8,17,10,1,-6
1523055793324356,-10,-1,61,-4,-15,-12,-12,-16
1523055793345387,5,-1,-30,-14,-6,-1,2,15
1523055793345387,3,17,91,39,3,4,5,2
1523055793346977,-7,-7,-48,-17,-8,-5,0,-11
1523055793346977,-1,-23,-128,-17,4,5,-9,4
1523055793359015,7,22,116,35,8,-2,0,11
1523055793359015,-6,-14,-86,-24,-2,-6,-6,-11
1523055793367951,-2,-8,-43,-7,-10,-5,1,-2
1523055793367951,1,13,91,9,0,3,2,2
1523055793382086,3,-9,-125,-19,10,3,4,6
1523055793382086,0,0,-18,-1,-29,-3,2,-3
1523055793389006,-2,3,-8,7,15,-4,-7,-5
1523055793389006,-2,-12,-82,-18,-5,6,4,1
1523055793405144,3,-3,-73,2,8,-1,1,7
1523055793405144,-5,10,83,9,-21,-12,-4,-4
1523055793411564,0,2,-7,-2,-8,-4,-9,-3
1523055793411564,-3,2,-16,-6,-4,-1,16,-5
1523055793427701,-3,-7,-23,1,3,-3,-28,-3
1523055793427701,4,-1,-33,3,20,4,3,3
1523055793429112,-1,-3,41,8,-13,0,1,1
1523055793429112,1,6,31,14,8,2,-3,-4
1523055793442196,-1,-7,2,-7,-9,4,22,2
1523055793442196,1,4,-5,-10,1,0,-11,3
1523055793448664,-4,-3,57,9,-5,-2,2,-5
1523055793448664,-3,-1,-26,-10,-2,-4,-10,-11
1523055793465305,-1,-4,24,-1,-17,-10,4,12
1523055793465305,0,-4,6,4,17,8,0,-2
1523055793466712,-2,0,-34,2,-8,0,6,-3
1523055793466712,0,-3,-25,1,7,5,-2,4
1523055793487860,-3,5,98,12,-13,-6,-5,-9
1523055793487860,-1,6,-20,-2,3,-6,-3,-2
1523055793489272,-2,-5,-31,-2,2,1,-4,1
1523055793489272,-3,-4,13,4,-2,-7,-7,-3
1523055793502807,3,12,-10,-5,3,3,0,-2
1523055793502807,1,-7,-31,-3,-2,1,8,2
1523055793504313,0,4,36,-3,-11,-3,-2,0
1523055793504313,0,1,0,14,21,11,-2,3
1523055793524867,-3,-2,6,-12,-4,-2,6,-2
1523055793524867,-1,-5,-26,-7,-1,-2,-14,-1
1523055793526964,-1,2,30,6,-4,-6,-4,-2
1523055793526964,-1,-4,-25,-7,3,-2,0,2
1523055793547927,1,-4,-60,3,2,3,3,2
1523055793547927,-3,-5,15,-9,4,0,3,-7
1523055793549517,-2,-1,2,-9,-5,-3,-5,-3
1523055793549517,-3,-9,-63,3,-3,-5,-1,-2
1523055793562061,0,7,45,2,-3,-1,-5,-1
1523055793562061,-2,-10,-35,-6,1,5,5,1
1523055793568983,1,9,34,4,2,-1,-3,0
1523055793568983,-1,-8,-56,-9,-7,-7,-2,-2
1523055793585027,0,-1,23,-3,-5,-3,-6,-3
1523055793585027,0,0,11,2,1,3,5,0
1523055793586530,-2,1,20,1,0,-3,0,0
1523055793586530,-1,0,18,-2,-6,-3,-3,-1
1523055793607684,0,-7,-58,-4,-3,0,-5,0
1523055793607684,-5,4,84,2,-10,-8,-5,-6
1523055793609091,-3,-2,-14,6,21,1,1,-2
1523055793609091,3,-4,-4,8,-8,4,7,5
1523055793622219,0,7,32,-16,-10,0,12,0
1523055793622219,-1,-5,-33,-1,3,-1,-12,-1
1523055793628642,0,2,-2,-1,-7,-2,-1,-2
1523055793628642,-2,0,20,-6,-3,-5,-8,-2
1523055793645279,-1,-5,4,6,-1,0,3,-2
1523055793645279,0,1,-26,3,8,3,6,1
1523055793646691,0,-1,2,-6,-9,-3,-2,-2
1523055793646691,-1,1,16,-2,0,-3,2,-1
1523055793667773,-1,-4,-1,-2,-1,1,-4,-3
1523055793667773,-4,-1,-13,-6,3,-2,0,-2
1523055793669251,2,-3,-5,2,4,0,-4,1
1523055793669251,3,6,20,-2,-5,-3,2,16
1523055793682285,-9,-5,-5,-1,6,2,-1,-23
1523055793682285,-8,-2,-7,-2,-3,-3,-9,-14
1523055793688900,-6,-6,-9,1,2,7,6,-6
1523055793688900,2,1,11,0,-1,2,0,3
1523055793705367,14,4,-15,-3,-4,-6,-6,20
1523055793705367,-17,-2,-20,-5,-9,-8,11,-30
1523055793706879,-6,-15,2,2,6,5,-11,3
1523055793706879,-10,2,-7,0,6,-1,-6,-40
1523055793727907,-4,0,35,11,14,6,0,-12
1523055793727907,2,-7,-24,-17,-2,-4,-7,33
1523055793729459,-7,-3,-22,2,-38,-6,30,-15
1523055793729459,9,-3,35,6,21,3,-33,21
1523055793742040,-1,0,-26,-7,-11,-9,-1,-8
1523055793742040,4,-2,2,10,25,15,-5,2
1523055793749042,11,7,-4,-9,-6,-10,2,32
1523055793749042,-11,-3,-1,-5,-18,-5,11,-22
1523055793766008,-4,0,4,5,5,6,9,11
1523055793766008,4,-5,-16,-3,-4,-5,0,0
1523055793767541,-4,-3,-42,-3,2,7,-5,-5
1523055793767541,7,11,41,9,15,2,6,4
1523055793787659,-3,-5,-9,-9,1,-6,-11,2
1523055793787659,1,0,7,-2,-23,-17,2,-4
1523055793789070,1,-10,-22,-2,12,8,-4,-2
1523055793789070,0,13,15,6,10,10,0,3
1523055793802105,-1,-7,-78,-5,-4,0,2,1
1523055793802105,1,2,111,-26,-16,-6,-3,0
1523055793808717,-7,-6,-57,-4,3,-12,-11,-14
1523055793808717,-2,4,107,-10,-34,-11,4,2
1523055793825258,-1,-9,-64,-20,24,8,6,5
1523055793825258,7,9,-38,56,14,11,8,3
1523055793826672,-4,13,118,-31,-27,-12,-13,-6
1523055793826672,-2,-15,-128,-27,-15,-10,-2,-2
1523055793847819,0,6,12,20,7,-11,-7,-1
1523055793847819,-2,-10,-57,-9,-18,-2,-3,-3
1523055793849230,3,2,-34,8,7,5,5,2
1523055793849230,0,9,72,12,8,-5,-5,1
1523055793861360,-3,-10,0,-19,-27,-2,-1,-3
1523055793861360,-1,-14,-80,-23,21,3,2,1
1523055793870286,-5,25,118,27,-1,-4,-8,-7
1523055793870286,-3,-12,-128,-10,-13,-1,3,1
1523055793885327,-2,0,-28,6,14,8,6,-1
1523055793885327,-3,-5,-26,-4,-4,-5,-16,-2
1523055793886859,4,1,-19,-4,2,3,-6,2
1523055793886859,-5,-8,-3,-2,-6,-6,-9,-5
1523055793907515,-1,9,61,3,-5,-2,5,-2
1523055793907515,-1,3,26,17,8,8,11,3
1523055793909020,-1,-6,-33,-13,6,-3,1,0
1523055793909020,1,9,48,11,2,3,7,1
1523055793921551,-4,-11,5,2,-5,-1,-10,-5
1523055793921551,0,0,-3,-9,-4,-2,2,-2
1523055793930575,0,-6,-40,0,5,5,-1,1
1523055793930575,-2,-1,42,15,31,10,7,-1
1523055793945214,0,-5,4,-2,-12,-5,-6,-2
1523055793945214,1,4,6,-6,-6,-4,-6,1
1523055793946620,0,-3,10,8,10,-2,2,0
1523055793946620,-1,-7,-33,-1,1,1,3,1
1523055793967677,-2,0,-9,0,-5,-5,-4,-4
1523055793967677,-1,3,28,-1,0,-2,2,-4
1523055793969178,1,-2,-21,2,14,2,6,2
1523055793969178,-2,-6,-21,-8,-11,-9,-11,-3
1523055793981311,2,1,32,2,8,4,1,5
1523055793981311,1,4,13,11,3,2,13,1
1523055793990236,-3,-12,-12,-14,-7,-3,-15,-3
1523055793990236,1,16,37,-5,-7,-3,0,-2
1523055794005349,-2,-1,-6,-1,0,0,-2,-1
1523055794005349,-1,-4,-19,1,-2,-1,3,-1
1523055794006779,1,11,43,3,-2,4,4,1
1523055794006779,-4,-10,-19,-4,-3,-2,-5,-3
1523055794027586,0,4,4,8,-2,1,-2,0
1523055794027586,1,-1,-20,-6,0,3,1,0
1523055794029495,-3,-2,10,-3,-12,-5,0,-2
1523055794029495,0,-4,-28,3,4,2,-1,1
1523055794041527,1,7,29,-6,-12,-5,-2,0
1523055794041527,-1,-3,-23,2,-3,2,-3,-1
1523055794050050,-2,0,-4,7,9,1,3,-1
1523055794050050,0,1,14,-10,-14,-5,3,2
1523055794065181,0,-7,-35,9,15,5,1,-2
1523055794065181,-4,5,48,-6,-6,-5,-9,-5
1523055794066594,0,-6,-54,-12,-3,1,0,0
1523055794066594,0,-2,1,3,1,-2,2,0
1523055794087748,-4,-3,-4,5,-3,-3,-4,-3
1523055794087748,0,-3,1,-17,2,-1,-3,-2
1523055794089154,0,3,29,13,-5,3,0,-1
1523055794089154,-1,-2,4,1,12,2,-1,-3
1523055794101190,-2,-1,-19,-4,-6,-4,-4,-3
1523055794101190,0,2,23,6,8,1,3,1
1523055794110210,-1,2,-13,2,4,0,1,0
1523055794110210,-3,-10,-33,-2,-13,-3,1,-2
1523055794125342,0,3,36,6,13,6,4,2
1523055794125342,0,-2,-30,-6,-3,-2,1,2
1523055794126779,2,2,7,1,-2,-6,-1,0
1523055794126779,-3,-2,3,-6,-4,-1,-2,0
1523055794147892,0,0,0,-8,-5,-4,-2,-1
1523055794147892,-3,0,3,7,3,-1,-1,-1
1523055794149313,1,-2,9,-4,-4,1,1,0
1523055794149313,-2,-1,-17,-4,0,-2,-5,0
1523055794161439,0,-3,-7,3,-2,-5,-1,-1
1523055794161439,-1,4,9,-11,-15,-4,-5,-3
1523055794170369,-2,-1,22,11,11,0,1,-2
1523055794170369,-2,1,-1,0,-2,-5,-3,-2
1523055794185411,0,-6,-49,-7,-13,-4,-1,2
1523055794185411,-3,1,7,3,6,4,0,-3
1523055794186983,2,5,12,-4,-15,-7,-1,3
1523055794186983,0,-10,-17,-1,0,3,2,-8
1523055794207639,-5,3,46,-2,-5,-8,-9,-2
1523055794207639,-6,-17,-33,-5,-6,-3,-2,-13
1523055794209051,-8,11,19,8,6,3,31,-35
1523055794209051,2,-5,8,-1,0,3,-45,19
1523055794221170,-4,16,-17,-3,-4,-5,17,-39
1523055794221170,-14,-23,-7,-3,-3,-4,-5,7
1523055794230102,4,-13,-19,-6,5,6,-7,17
1523055794230102,4,3,-13,-1,-1,-8,15,0
1523055794245239,11,6,18,-9,-9,4,-4,21
1523055794245239,7,14,12,17,10,9,2,5
1523055794246647,-2,-11,-24,-6,-2,-1,7,5
1523055794246647,0,3,20,-8,-4,-11,-7,0
1523055794267703,-5,-7,4,9,12,6,1,0
1523055794267703,5,4,-8,-1,-2,-1,6,-1
1523055794269208,-3,-6,-5,-7,-12,-8,-17,0
1523055794269208,-3,-7,-29,1,8,4,6,-7
1523055794290359,-2,8,32,-13,-17,-8,-8,-7
1523055794290359,-1,-2,6,4,3,-3,-1,0
1523055794291768,1,-6,-40,-13,0,1,-3,4
1523055794291768,-2,20,87,18,-22,-11,-5,-11
1523055794303896,-4,-16,-55,2,15,10,7,3
1523055794303896,7,10,22,23,5,3,-3,8
1523055794312822,7,17,63,6,0,0,6,10
1523055794312822,-3,-11,-84,-22,2,1,9,-2
1523055794327862,0,2,-1,6,5,3,-3,5
1523055794327862,4,0,-47,-39,0,4,1,-2
1523055794329459,-7,-9,-34,10,-14,-10,-14,-11
1523055794329459,1,7,15,42,9,6,9,3
1523055794350026,-1,-7,-4,-4,0,2,-1,2
1523055794350026,-1,-14,-128,-17,23,16,3,0
1523055794351927,-1,9,97,-7,14,1,-4,-2
1523055794351927,-4,-6,-68,-8,-26,-14,-5,-4
1523055794364556,-1,-7,-81,-14,-8,-6,-5,0
1523055794364556,-2,7,68,40,-8,-12,-6,-5
1523055794371518,0,6,19,-5,-5,2,1,1
1523055794371518,0,-5,-5,3,19,9,4,-2
1523055794387625,-2,-11,-56,-6,0,-5,-3,2
1523055794387625,-6,6,68,-3,-17,-7,-2,-3
1523055794389025,-2,-2,-46,8,22,3,-7,-1
1523055794389025,-1,-4,-19,-19,-1,-1,-3,-1
1523055794409178,0,0,-23,1,1,1,2,2
1523055794409178,3,-2,-4,-7,-12,-4,-1,1
1523055794417606,-4,2,10,5,1,-2,1,-4
1523055794417606,0,-5,4,-7,-2,-1,2,-2
1523055794425121,-1,-5,33,1,-4,-3,-2,-1
1523055794425121,2,13,-7,-3,5,-2,-2,-3
1523055794426626,-2,-2,26,-1,-5,-1,7,2
1523055794426626,-4,-7,-26,1,0,2,4,5
1523055794447780,-3,3,59,3,-4,-8,-28,-3
1523055794447780,1,1,-14,4,-3,-2,3,1
1523055794449186,-2,-9,-73,-17,-4,3,-6,-5
1523055794449186,1,6,-13,-1,3,10,14,-1
1523055794470339,2,4,36,8,-1,2,8,3
1523055794470339,-2,-4,3,-1,5,0,-4,-2
1523055794471746,-1,-4,-63,-1,4,-2,-3,0
1523055794471746,-1,-3,53,-5,-8,-7,-3,-2
1523055794484278,-1,8,11,2,-2,-4,-2,-4
1523055794484278,-5,-25,-80,-16,7,1,0,-1
1523055794491487,1,7,11,8,-5,4,3,0
1523055794491487,0,4,30,4,9,-1,-3,-1
1523055794507514,0,-7,-75,-21,-4,-5,1,-1
1523055794507514,-3,3,98,13,-8,-9,-1,-4
1523055794509018,-1,-4,-24,-6,-4,3,0,0
1523055794509018,-2,-6,-48,-1,7,4,-1,-2
1523055794530169,3,8,46,2,3,1,6,2
1523055794530169,0,-1,-20,0,1,-1,-2,2
1523055794531577,0,1,-4,-11,-12,-10,-6,-2
1523055794531577,-4,-7,-38,-16,-2,0,-3,-3
1523055794544611,-1,-3,12,12,0,-2,1,0
1523055794544611,-3,2,4,-10,-8,-3,-6,-5
1523055794551273,-1,-10,-88,-9,7,4,-1,0
1523055794551273,1,16,92,-2,-7,-4,2,-3
1523055794567815,-3,-5,-6,-4,-4,-3,2,3
1523055794567815,1,-2,-2,7,9,4,-1,1
1523055794569346,-3,-6,-48,-9,-8,-4,-2,0
1523055794569346,-4,-2,-11,0,-5,-4,-7,-4
1523055794590374,-2,3,11,-5,-7,-8,-5,-5
1523055794590374,0,0,-8,-2,1,2,3,-1
1523055794591909,-2,0,29,14,2,-4,-1,-1
1523055794591909,-1,-8,-5,-5,-1,1,0,0
1523055794604510,0,3,-1,2,-11,-4,-4,-3
1523055794604510,-2,-7,-34,-4,3,-1,1,0
1523055794611482,-2,1,44,-1,-8,-6,-4,0
1523055794611482,-3,-2,18,14,-3,-2,-2,-2
1523055794627567,-1,-3,-10,-2,10,9,2,2
1523055794627567,-1,3,-6,-3,-8,-4,-3,-2
1523055794629496,-2,-8,11,3,4,3,2,1
1523055794629496,-1,-5,-10,-3,-3,-2,-1,-4
1523055794650034,-3,-2,1,4,3,0,0,1
1523055794650034,-1,2,-6,-1,-5,0,1,-3
1523055794651538,0,-2,14,3,2,-1,-2,3
1523055794651538,8,5,-14,-7,-6,-2,0,16
1523055794664675,-6,-6,-15,-3,12,5,3,-5
1523055794664675,-1,3,11,-2,-4,-4,-8,9
1523055794671591,-14,4,-1,9,10,1,-1,-42
1523055794671591,14,-18,-3,-1,0,8,3,40
1523055794687727,-4,12,7,-2,-10,-5,3,-10
1523055794687727,6,7,3,8,15,9,4,-12
1523055794689139,-8,-8,1,-6,2,0,-5,2
1523055794689139,-12,6,-8,-4,1,0,2,5
1523055794710794,4,-11,2,7,14,1,3,0
1523055794710794,3,-1,-14,-13,-20,-12,-5,19
1523055794712200,12,8,3,2,3,-1,2,11
1523055794712200,-7,-2,1,2,3,3,0,-23
1523055794724732,-2,-5,5,-5,-12,-5,-3,12
1523055794724732,-4,0,-7,5,7,5,4,-14
1523055794731348,0,-2,-17,-16,-13,-8,-7,0
1523055794731348,-1,5,6,10,7,4,5,-3
1523055794747892,-2,1,18,-1,14,1,0,-3
1523055794747892,1,0,17,3,-18,7,5,-1
1523055794749299,1,0,-18,-7,-3,-3,-1,0
1523055794749299,-2,-4,18,-6,-16,-13,-7,-9
1523055794770353,1,-2,-64,1,7,4,-2,-7
1523055794770353,-1,4,72,1,7,1,11,11
1523055794771885,1,-5,-6,-7,-11,-2,-2,10
1523055794771885,-4,-4,-76,-13,5,-1,-4,-13
1523055794784393,-3,1,104,8,-7,0,-8,-5
1523055794784393,-5,-8,-51,-12,-13,-9,-4,-4
1523055794791492,1,-1,-67,19,19,6,2,0
1523055794791492,0,8,59,-42,-11,-9,-11,-7
1523055794807551,0,5,67,27,4,1,0,0
1523055794807551,-3,-7,-61,-15,-10,-6,-2,-2
1523055794809470,1,-4,-51,-9,13,4,5,0
1523055794809470,-2,-2,-8,22,10,1,-4,-4
1523055794830116,-1,-9,-68,-11,-7,4,6,6
1523055794830116,3,17,120,27,18,1,0,-2
1523055794832017,-1,-5,58,-22,6,10,3,2
1523055794832017,-3,-2,-30,3,-5,-9,-1,-2
1523055794843652,-1,-7,-90,-51,-23,-1,-1,0
1523055794843652,-3,1,65,34,-11,-3,-7,-3
1523055794852573,0,-6,-95,3,-7,1,5,0
1523055794852573,-3,6,51,-12,-4,-2,8,-4
1523055794867614,-4,-14,-31,-3,-3,-7,1,-8
1523055794867614,-3,-13,-122,-13,5,-3,-23,-6
1523055794869118,5,13,80,15,-11,-5,0,17
1523055794869118,2,3,0,4,-4,1,-1,-5
1523055794890173,0,-1,-33,2,5,-5,-5,-4
1523055794890173,1,-2,-20,-4,9,8,5,-1
1523055794891678,-6,3,86,-2,-5,-5,-4,-8
1523055794891678,2,-13,-62,6,4,2,7,12
1523055794903800,0,8,17,16,7,2,6,7
1523055794903800,0,-2,-45,-8,3,-5,-7,-2
1523055794912734,-1,-3,36,-4,-16,-9,-11,-7
1523055794912734,-4,-8,-10,2,-3,-1,-2,-7
1523055794927863,-1,-1,-28,-2,-1,3,-2,-4
1523055794927863,-1,2,44,-4,1,-1,6,5
1523055794929278,-2,4,9,-3,-3,-6,2,-1
1523055794929278,-3,-1,-15,5,-1,4,-1,-3
1523055794950333,1,5,17,5,8,-1,-16,0
1523055794950333,-4,-6,-35,-28,-7,-11,-11,-7
1523055794951837,-3,-1,13,23,-6,-3,2,-4
1523055794951837,2,2,-13,3,21,11,4,2
1523055794963973,0,5,36,-16,-21,-5,6,-1
1523055794963973,-2,-3,-17,-8,0,2,6,0
1523055794972923,1,-2,-23,5,-6,-3,-8,-3
1523055794972923,-2,2,-11,-4,-7,1,2,-9
1523055794987937,0,-5,22,10,7,3,3,-8
1523055794987937,0,-8,-34,-5,-4,-8,1,40
1523055794989436,0,-3,-21,-4,-4,1,4,-1
1523055794989436,-1,5,15,4,-7,-8,-10,-7
1523055795009991,-3,-4,-4,-2,-3,-6,-6,-11
1523055795009991,0,2,-5,12,0,3,2,-15
1523055795011996,2,0,-28,-10,4,6,4,6
1523055795011996,0,2,19,4,7,-1,-4,1
1523055795032765,-3,0,9,1,-12,-4,-2,0
1523055795032765,-3,-6,-9,0,1,-2,2,-5
1523055795034057,-3,-3,-11,3,10,-1,-4,1
1523055795034057,1,1,2,-3,-6,-2,1,0
1523055795047591,3,3,-9,4,-6,-2,2,7
1523055795047591,0,-3,-1,3,-1,4,6,0
1523055795049096,2,3,8,-15,10,1,0,-7
1523055795049096,-3,-4,-1,8,1,1,-2,3
1523055795070152,-1,-1,21,6,-4,-1,-1,3
1523055795070152,-1,-5,-32,-8,-6,-1,2,-7
1523055795071655,2,2,-14,5,4,2,-3,-3
1523055795071655,2,-1,4,-8,-2,-6,-2,3
1523055795083688,0,-1,-11,-5,3,2,2,5
1523055795083688,-3,0,17,-4,-8,-2,-2,-10
1523055795092712,-3,-12,-16,2,-5,-6,0,-1
1523055795092712,0,7,-23,-2,-2,-3,-6,2
1523055795107964,-5,0,51,7,7,-4,-5,-4
1523055795107964,-4,-4,19,-7,4,-3,-6,-6
1523055795109256,-3,-7,-13,-4,-15,-2,2,-2
1523055795109256,1,-2,-8,-1,-9,0,1,3
1523055795130392,-2,2,-19,-6,7,-1,-2,-2
1523055795130392,1,3,36,-4,-10,-3,-2,-2
1523055795131816,0,9,17,15,17,-5,-4,0
1523055795131816,-2,-5,15,-2,9,8,1,-4
1523055795144055,-3,-2,-43,-2,-7,0,0,1
1523055795144055,2,-1,17,7,14,6,-3,2
1523055795152872,3,15,47,-4,-9,-6,-10,1
1523055795152872,-6,-7,-20,-3,-4,-5,-1,-8
1523055795167412,2,-2,-3,0,-3,-4,-2,3
1523055795167412,-6,0,-1,2,1,1,4,-3
1523055795169416,0,-5,-5,-4,-3,0,3,1
1523055795169416,6,7,38,6,0,-3,-1,20
1523055795190471,-3,4,9,-4,-1,3,8,-26
1523055795190471,0,-5,-22,0,-7,-5,-11,2
1523055795192110,-20,-17,-2,-4,-6,1,3,-29
1523055795192110,0,7,6,0,9,6,2,-16
1523055795204057,4,-3,-22,-6,-14,-4,-2,8
1523055795204057,-7,7,20,0,8,-5,-2,-2
1523055795213054,11,3,-27,-2,3,2,-3,20
1523055795213054,-22,-17,13,-1,-6,-7,5,-22
1523055795227760,9,9,3,3,11,11,7,1
1523055795227760,3,-5,6,-1,-12,-9,-6,9
1523055795229584,2,1,-26,-4,5,3,3,11
1523055795229584,2,-5,-1,1,-6,-5,-4,3
1523055795250134,-3,-6,-4,-8,-10,-6,-5,2
1523055795250134,2,2,5,10,12,10,7,-4
1523055795251636,-1,-1,-13,-5,-4,3,4,-5
1523055795251636,3,2,-8,-3,1,-7,-7,5
1523055795272801,-3,-3,-1,-2,0,-3,-6,3
1523055795272801,-4,-6,-28,-5,-11,2,2,-9
1523055795274196,2,5,57,8,9,-1,3,1
1523055795274196,-2,-3,-20,-8,-13,-12,-6,0
1523055795286960,0,-8,-62,-13,3,5,5,7
1523055795286960,-5,3,24,1,-9,-10,-5,-11
1523055795293979,-3,-5,-26,-24,-5,0,-4,-6
1523055795293979,2,-12,-77,-22,2,1,0,5
1523055795310024,-6,17,93,47,-10,-17,-11,-6
1523055795310024,0,-15,-61,-6,-4,-8,2,0
1523055795311990,1,-5,-44,-8,2,9,3,3
1523055795311990,1,10,15,-9,-9,-1,1,-2
1523055795332564,-2,-8,-91,-32,7,2,-3,0
1523055795332564,1,1,-65,9,22,8,1,-1
1523055795334478,-4,5,91,29,-15,-10,-10,-6
1523055795334478,4,5,14,8,6,1,0,2
1523055795355071,-3,-8,-56,-15,-3,2,-1,0
1523055795355071,0,3,53,4,-13,-6,1,-2
1523055795356536,-3,-9,-88,-25,-6,-11,-1,-1
1523055795356536,0,4,23,0,-8,6,-4,-1
1523055795370187,3,4,-35,18,60,24,8,4
1523055795370187,-1,-3,22,-11,-15,-5,-1,-3
1523055795371577,0,-1,-9,2,-18,-3,-1,2
1523055795371577,-4,-2,2,7,-8,-5,7,-2
1523055795392631,1,-3,37,-22,-14,-9,-11,3
1523055795392631,2,1,5,2,6,11,14,2
1523055795394137,-2,8,8,18,26,-1,-25,-3
1523055795394137,-3,-8,3,-4,-1,1,0,-2
1523055795407181,-4,-5,22,15,-12,-2,9,-3
1523055795407181,-4,0,-25,-27,-1,1,-8,-2
1523055795413795,-2,-1,-20,-6,-23,-8,5,-4
1523055795413795,0,5,53,17,10,4,-4,2
1523055795430338,-4,-10,-25,0,-5,-8,1,-5
1523055795430338,2,6,25,7,2,1,0,3
1523055795431737,-1,-8,-43,-13,1,0,3,-1
1523055795431737,-2,-1,11,0,-11,-9,-8,-5
1523055795452878,2,5,29,15,23,14,7,3
1523055795452878,-3,-6,-34,-1,-3,-5,-2,1
1523055795454328,-3,-3,-11,-9,-6,-2,-2,-2
1523055795454328,3,0,-15,7,-9,1,4,2
1523055795466831,-4,-2,52,-5,-6,-1,-5,-2
1523055795466831,1,-5,-38,3,6,8,6,2
1523055795473968,1,11,35,1,4,-3,1,0
1523055795473968,3,9,5,-9,-16,-10,-8,0
1523055795490010,-3,-7,-8,0,6,-2,-3,-1
1523055795490010,-1,-4,-25,1,1,-1,-2,-4
1523055795491993,2,4,56,10,2,0,4,1
1523055795491993,-6,-8,-22,-17,-2,-4,-5,-4
1523055795512951,1,2,-13,-7,-16,-6,-5,-1
1523055795512951,1,1,13,2,4,0,-1,0
1523055795514531,-2,-3,14,-2,1,0,0,-1
1523055795514531,-2,-2,-38,5,8,1,2,2
1523055795527147,-4,-10,-10,-4,-9,-8,-7,-5
1523055795527147,-1,5,13,-6,-14,-11,-4,-2
1523055795533670,0,-2,-8,2,5,6,3,-1
1523055795533670,1,1,-17,-1,9,4,3,1
1523055795550213,0,0,12,5,-13,-6,-1,0
1523055795550213,0,4,-8,-3,1,2,-3,-3
1523055795551717,-3,-3,32,4,2,-1,-5,-2
1523055795551717,0,-5,6,-1,2,-1,2,-1
1523055795572773,0,-1,-8,-4,-1,-7,-4,-1
1523055795572773,2,5,31,9,-14,2,3,1
1523055795574276,-2,-9,-66,-14,-4,-2,0,-1
1523055795574276,-1,-4,-24,-2,15,6,-1,-2
1523055795586808,-3,-1,2,-6,-5,-4,-2,-2
1523055795586808,-2,3,60,5,-16,-9,-6,-4
1523055795593935,-1,-8,-35,-1,15,10,3,1
1523055795593935,-1,-3,-12,-1,8,1,-2,1
1523055795610387,1,3,1,4,-3,3,1,0
1523055795610387,-1,-8,-23,-9,5,3,2,-1
1523055795611876,-2,-2,-8,3,-4,-4,-1,-1
1523055795611876,0,6,76,0,-3,-4,-2,-3
1523055795632432,-2,4,-13,1,4,0,0,0
1523055795632432,-3,-12,-25,-4,3,-1,0,-1
1523055795634437,1,3,31,3,-7,-5,-1,-1
1523055795634437,-2,-5,-29,9,2,4,-1,1
1523055795646512,0,2,19,-11,-8,-5,0,-1
1523055795646512,3,4,12,2,8,4,-1,0
1523055795654992,-2,0,0,2,-9,-4,2,0
1523055795654992,5,3,10,-1,-7,-2,1,16
1523055795670150,-7,-5,-11,-1,-7,-3,-3,-6
1523055795670150,-1,-2,-6,1,3,-3,-2,-4
1523055795671536,0,4,5,-2,-2,-3,7,-8
1523055795671536,8,-8,-21,1,6,4,-11,25
1523055795692705,3,8,31,-1,-7,-2,-3,24
1523055795692705,-15,-8,-16,1,12,8,14,-42
1523055795694095,7,7,0,7,10,8,-7,-1
1523055795694095,0,2,-7,-3,-3,-3,20,-2
1523055795707187,-4,-19,-11,-6,-9,-6,-35,-9
1523055795707187,4,10,2,-2,-3,-7,-6,5
1523055795713762,-3,2,5,1,-1,0,13,29
1523055795713762,-5,0,-4,5,6,4,-13,-23
1523055795730309,4,-7,-7,0,5,6,15,12
1523055795730309,-1,1,-6,-4,-4,-4,-9,-8
1523055795731696,-3,-4,-2,-4,-4,-5,-5,-11
1523055795731696,1,-3,-16,-3,-7,-1,1,3
1523055795752752,-3,10,23,8,7,1,5,-14
1523055795752752,0,0,-21,-3,4,-5,-9,6
1523055795754256,1,-1,14,-6,-10,-5,1,-1
1523055795754256,-4,-1,-1,-7,-33,-5,-1,-3
1523055795766789,1,3,-17,6,67,22,4,-9
1523055795766789,-5,-12,4,-7,-45,-16,-5,6
1523055795773927,0,1,0,16,41,6,-7,7
1523055795773927,-4,-5,-25,-12,-12,-9,1,-8
1523055795790356,1,13,-2,-11,-23,-8,0,-3
1523055795790356,2,-2,-31,12,5,2,0,11
1523055795791965,-6,-5,35,-9,-14,-3,-6,-13
1523055795791965,-4,-9,-48,-20,10,0,-2,-6
1523055795812912,3,-3,-12,17,-8,4,11,5
1523055795812912,5,18,107,31,29,6,0,6
1523055795814534,-5,-13,-42,-9,-19,-5,-3,-9
1523055795814534,2,3,43,10,15,0,1,-2
1523055795826510,0,12,66,19,-9,2,0,0
1523055795826510,0,-10,-96,-22,-15,-11,-3,0
1523055795835473,1,-15,-81,-1,23,25,10,3
1523055795835473,-12,13,80,11,-10,-20,-15,-11
1523055795850012,-1,-8,-117,-21,-13,-5,-2,-4
1523055795850012,0,-2,-38,5,5,7,1,3
1523055795851533,-1,0,-11,-25,-13,-11,-2,0
1523055795851533,0,-7,-85,5,5,2,2,-1
1523055795872571,0,-2,30,-1,-21,-1,23,1
1523055795872571,0,7,74,6,-3,-7,-35,-3
1523055795874074,-2,2,-24,2,-1,-8,-7,-3
1523055795874074,1,0,19,9,10,7,3,4
1523055795886221,-1,5,6,-3,-7,-8,6,2
1523055795886221,1,0,-14,-1,7,10,18,5
1523055795895130,-3,-12,-4,-8,-4,-3,-13,-6
1523055795895130,-1,4,24,6,1,2,-7,-11
1523055795910287,2,-12,-45,-12,-1,-3,4,8
1523055795910287,0,0,18,-4,0,-4,6,5
1523055795911674,0,11,48,6,-1,-3,-2,-5
1523055795911674,-2,-4,-1,-8,-9,-2,1,0
1523055795932728,-6,-7,-39,-4,4,1,-9,-5
1523055795932728,-4,-6,-23,-6,-3,-2,0,-1
1523055795934261,0,2,25,4,-3,-1,4,2
1523055795934261,1,0,-20,-10,-1,2,3,1
1523055795946376,-2,1,10,8,-1,-3,0,-3
1523055795946376,-2,-20,-55,-7,12,7,-8,2
1523055795955290,0,8,7,1,-10,-9,-2,-1
1523055795955290,-1,0,-2,-8,2,1,0,1
1523055795970365,-3,-4,6,-3,-8,-7,-11,-6
1523055795970365,-1,-4,-12,-6,6,2,9,0
1523055795971861,1,-3,-31,-1,-11,2,4,1
1523055795971861,-2,-4,-15,-4,4,-4,-3,-3
1523055795992889,0,3,31,-2,-7,-4,-4,-1
1523055795992889,-2,2,11,-3,-2,1,1,-2
1523055795994477,-2,-1,19,0,-2,-3,-5,-3
1523055795994477,-2,-1,29,2,0,1,2,0
1523055796006158,-5,-7,-16,-5,3,-5,-3,-2
1523055796006158,4,11,5,-4,-6,0,1,0
1523055796015084,1,-9,-28,-5,-3,0,2,0
1523055796015084,-4,4,64,20,-2,-4,-7,-4
1523055796030182,1,-1,2,2,-2,-1,-5,0
1523055796030182,1,6,22,-2,10,3,5,0
1523055796031685,-2,1,6,-3,-6,-4,3,0
1523055796031685,3,-7,-57,1,4,8,-11,3
1523055796052828,-1,8,5,-9,-3,-5,-2,-2
1523055796052828,-3,-1,54,8,-11,-7,-5,-4
1523055796054244,2,1,-49,3,7,5,6,0
1523055796054244,0,2,22,-2,-7,-4,4,0
1523055796066276,-2,-7,-39,-6,5,5,-1,-2
1523055796066276,1,3,21,-4,-8,-2,0,1
1523055796075299,0,4,20,-9,-8,-7,-9,-3
1523055796075299,-3,-7,-37,-3,-1,-1,3,-2
1523055796089840,-1,4,19,0,-3,-2,-1,-2
1523055796089840,1,-4,-32,0,13,10,7,0
1523055796091845,-3,3,23,6,-5,-1,-3,-1
1523055796091845,0,-4,-26,-8,5,1,-4,-1
1523055796112936,-1,-1,9,-1,-7,-3,-1,0
1523055796112936,-2,-5,-17,-1,-2,-7,-2,-2
1523055796114405,-2,1,33,7,15,4,-1,-2
1523055796114405,0,-4,-20,-4,-4,-3,2,-1
1523055796126500,0,2,5,-4,3,-1,-5,-2
1523055796126500,0,-1,6,-3,-19,-3,-2,-1
1523055796135461,-1,-3,-10,7,9,4,-1,2
1523055796135461,0,-2,4,1,4,-1,-1,-1
1523055796150001,0,-2,-4,-2,2,5,-4,-1
1523055796150001,0,3,15,-1,-4,-4,-4,-1
1523055796151505,-3,-3,-15,-6,-2,-3,0,-2
1523055796151505,0,6,17,1,-1,4,3,0
1523055796172647,-2,-2,8,6,4,-1,-5,0
1523055796172647,4,0,-15,-8,3,3,2,8
1523055796174063,-2,-3,-14,0,-7,-1,10,-3
1523055796174063,6,1,2,3,-3,-2,-18,13
1523055796186684,-7,-2,-1,-2,0,0,2,-10
1523055796186684,-16,1,7,0,-3,-3,2,-33
1523055796195119,10,-2,-4,-4,12,4,-5,8
1523055796195119,-14,-11,-11,5,-14,-11,-4,-17
1523055796210246,2,6,7,-12,3,0,2,-9
1523055796210246,0,-15,-4,10,-18,-2,19,7
1523055796211662,5,7,9,1,8,1,-17,8
1523055796211662,2,3,-3,-13,-10,-8,2,2
1523055796232719,7,19,17,11,27,14,-1,1
1523055796232719,-5,-10,-5,-9,-13,-14,-1,8
1523055796234224,-6,-4,-9,4,6,4,3,-5
1523055796234224,8,3,13,1,19,7,8,9
1523055796255414,-3,-2,0,-2,-13,-9,-7,-2
1523055796255414,0,1,-6,-6,4,2,6,0
1523055796256917,-4,1,11,2,-19,-2,2,-2
1523055796256917,-3,-14,-44,6,27,12,-2,-5
1523055796270138,3,16,44,3,-11,-3,8,3
1523055796270138,-1,-4,-4,-3,13,7,-7,0
1523055796271552,-3,-6,-52,-15,-34,-18,-5,-5
1523055796271552,-3,2,44,11,12,11,4,-2
1523055796292132,-5,-14,-38,-11,0,1,-3,0
1523055796292132,10,10,-8,27,14,3,-6,6
1523055796292609,-6,-5,-30,-33,-13,-10,-7,-10
1523055796292609,-3,-10,-98,-10,-2,1,7,-3
1523055796314667,-1,-13,-95,5,-21,-6,1,4
1523055796314667,2,19,46,13,30,4,-7,-1
1523055796315170,-6,-10,-69,-15,-9,-1,4,-4
1523055796315170,-1,-2,-50,11,12,-6,-2,-2
1523055796328705,1,6,50,23,3,-2,-3,4
1523055796328705,-1,-6,-100,-17,-11,-5,-3,-2
1523055796337225,-1,4,-22,14,13,5,0,0
1523055796337225,0,-1,41,-6,-19,-5,-3,-1
1523055796351952,-4,-4,65,17,4,5,0,-3
1523055796351952,-4,-4,16,-19,-22,-9,-3,-5
1523055796352869,4,-1,-27,27,54,23,7,5
1523055796352869,-2,8,55,18,-21,-8,-4,-3
1523055796374515,-1,-12,-54,-34,-28,-8,0,-1
1523055796374515,1,2,12,10,-2,0,-1,-4
1523055796375435,-1,-2,46,-9,-18,-7,13,2
1523055796375435,-1,4,-9,-5,-1,-2,-29,-3
1523055796388965,0,1,8,10,18,1,-2,-3
1523055796388965,-1,-6,-31,-8,-9,-7,-3,0
1523055796397072,5,10,6,10,5,4,1,3
1523055796397072,-3,3,26,-1,-4,4,16,3
1523055796412124,-5,-7,9,-5,2,-1,-18,-7
1523055796412124,0,3,-47,-9,-1,-2,3,-6
1523055796412530,2,2,45,3,-5,-1,9,17
1523055796412530,2,1,1,-7,-5,-2,3,-2
1523055796434673,-1,-7,-35,-10,0,-5,-3,-2
1523055796434673,-4,-2,-9,-2,1,3,-4,-2
1523055796435090,-2,5,50,0,-5,-9,-11,-8
1523055796435090,-3,-3,-21,-5,-8,-2,-3,-2
1523055796449629,3,1,-30,-8,1,1,7,3
1523055796449629,-4,-15,-10,6,7,12,0,0
1523055796450132,-2,4,55,18,19,-2,-5,-4
1523055796450132,-1,4,-31,-23,-10,1,-3,-1
1523055796472186,-2,-3,-11,0,2,-6,-4,-2
1523055796472186,-1,-2,-11,-13,-8,-3,0,2
1523055796472689,-4,-9,-28,1,-8,-6,-9,-3
1523055796472689,1,1,-32,2,5,4,6,-1
1523055796494331,1,4,69,5,-2,-1,0,0
1523055796494331,0,0,-18,-7,0,-5,-7,2
1523055796495249,-2,-6,-12,-2,-12,-3,-1,-5
1523055796495249,0,1,-7,-4,5,-1,1,0
1523055796509376,0,2,-6,-4,1,2,2,1
1523055796509376,1,-4,10,9,9,8,23,2
1523055796510289,-2,3,-6,-5,3,-4,-29,-6
1523055796510289,-1,-4,7,-3,-14,-4,4,1
1523055796531846,-1,-4,-24,2,11,3,-4,-4
1523055796531846,-1,0,13,-3,-8,-7,-7,-3
1523055796532849,-1,-6,-6,4,10,9,8,-2
1523055796532849,1,-1,20,2,3,1,2,3
1523055796554497,-5,-2,29,-26,-30,-14,-4,-2
1523055796554497,-2,2,7,5,22,1,-3,-2
1523055796555461,-2,-3,-7,0,-10,-2,7,0
1523055796555461,-1,-2,1,3,6,-3,-22,-14
1523055796569534,1,-4,-42,-4,0,0,12,17
1523055796569534,-1,-2,-10,-8,-6,1,-10,-1
1523055796570478,-1,4,28,-6,-9,-3,2,-3
1523055796570478,0,1,5,2,7,3,6,1
1523055796592139,-1,-2,-21,-3,1,-1,-6,-8
1523055796592139,0,1,-13,-8,-8,-1,-3,1
1523055796592639,-1,0,1,10,3,1,4,3
1523055796592639,-1,-8,-10,-10,-17,-5,5,0
1523055796614727,-2,1,-12,8,8,-1,-6,-3
1523055796614727,-2,4,8,-2,-1,-2,-3,0
1523055796615198,-1,-4,-7,4,9,6,-1,-3
1523055796615198,-2,3,20,-6,-6,-4,-3,0
1523055796628823,-3,-6,-26,-2,-8,-7,-3,-3
1523055796628823,2,1,35,21,17,13,1,-3
1523055796636844,-1,5,9,-14,-16,-7,-1,-2
1523055796636844,0,-1,-25,1,1,2,3,1
1523055796651795,-1,-2,14,1,3,0,1,0
1523055796651795,-1,-1,-27,-3,-3,-2,-2,-4
1523055796652798,0,-5,3,-1,-2,1,-4,-1
1523055796652798,-2,-1,-16,-1,4,-3,0,-1
1523055796674582,2,-1,-2,4,3,1,-1,-2
1523055796674582,2,4,39,-3,-8,-6,-5,14
1523055796675489,-9,-3,-24,-3,-8,-7,10,-14
1523055796675489,-6,-5,-10,-2,4,0,-15,-18
1523055796689553,-2,-7,7,4,12,4,1,7
1523055796689553,-1,4,-5,-2,-10,-2,0,-8
1523055796690030,8,8,-1,-11,-2,1,-3,7
1523055796690030,3,-10,3,7,-5,-4,3,-2
1523055796712140,-19,17,-3,-4,-9,-4,-4,-32
1523055796712140,0,-24,3,-6,-6,-6,-2,-3
1523055796712590,5,8,-14,-14,-19,-7,-6,14
1523055796712590,6,7,10,17,16,13,10,11
1523055796734648,6,-6,3,-1,2,0,3,17
1523055796734648,0,11,1,-10,-23,-10,-2,-5
1523055796735150,-2,-11,-12,-3,-13,-8,-5,-3
1523055796735150,-1,-2,14,5,29,9,2,4
1523055796748685,0,-1,4,8,2,2,5,2
1523055796748685,-2,5,5,-6,5,0,-1,-4
1523055796757212,-2,-10,-8,2,2,-3,-5,-4
1523055796757212,-7,-7,3,-14,-28,-23,-4,0
1523055796771748,4,15,23,4,9,5,0,-5
1523055796771748,0,-12,-3,0,-4,-2,1,4
1523055796772749,-1,7,7,4,5,3,-3,-4
1523055796772749,-4,1,-2,-8,0,3,0,-7
1523055796794394,-1,-11,-43,4,10,-3,-4,2
1523055796794394,-1,-4,-75,-12,-14,-3,0,7
1523055796795309,-2,9,108,32,14,1,-6,-3
1523055796795309,1,-3,-54,-8,-1,0,4,-2
1523055796808844,3,0,46,-15,-3,0,1,0
1523055796808844,-4,-7,-71,20,-8,6,0,-2
1523055796816867,-5,-3,-3,-6,5,2,4,-4
1523055796816867,5,14,85,52,8,6,2,4
1523055796831909,1,-1,93,-1,-26,-12,-6,0
1523055796831909,-6,-11,-79,-27,-14,-11,-6,-7
1523055796832909,-1,9,120,36,20,6,-1,-2
1523055796832909,0,-8,-85,-21,-2,4,2,3
1523055796854552,-2,-2,-47,3,-16,-7,-4,0
1523055796854552,-3,3,14,14,25,-6,-4,-3
1523055796855468,-1,-10,-72,-29,-24,1,3,2
1523055796855468,-3,2,17,-21,-17,-5,-3,-1
1523055796869004,-1,-1,-30,17,35,10,3,-1
1523055796869004,-2,2,38,-18,-19,-14,-3,-6
1523055796876612,-3,-12,-79,-12,-1,1,-7,-1
1523055796876612,0,4,19,0,0,-3,7,10
1523055796892136,2,0,-29,-17,-12,-4,-12,-3
1523055796892136,-1,2,74,18,14,7,-8,-4
1523055796892569,-1,-7,-30,-5,1,-6,0,-5
1523055796892569,2,15,-5,-6,-10,-3,6,-1
1523055796914625,-3,-11,-42,-13,5,5,4,1
1523055796914625,1,4,23,3,13,6,-2,0
1523055796915129,3,4,-4,-6,-10,-1,1,-1
1523055796915129,-1,-5,-4,4,-1,-3,-3,-3
1523055796937773,-3,-11,-50,2,3,2,0,-1
1523055796937773,2,10,110,-6,-3,0,-1,0
1523055796938189,-1,-7,-46,-12,-9,-4,-1,1
1523055796938189,0,0,-11,-2,5,4,-5,-2
1523055796952226,1,0,11,4,-2,1,2,0
1523055796952226,-1,-4,-36,2,7,4,5,3
1523055796952728,1,-1,5,8,8,-2,-1,4
1523055796952728,-1,2,20,-19,-4,-5,2,-3
1523055796974371,0,-9,-29,11,8,5,-11,-2
1523055796974371,-4,2,40,-4,-4,-7,-5,-5
1523055796975288,0,0,-14,-10,0,-1,0,0
1523055796975288,-4,-11,-57,6,-6,-6,-6,-4
1523055796988824,4,8,74,-7,10,7,8,0
1523055796988824,0,-3,-12,6,-6,-2,-2,2
1523055796996845,0,3,-20,2,7,4,-4,-2
1523055796996845,-4,-6,14,-3,-7,-5,-2,-3
1523055797011975,-2,-9,-71,-15,-24,-8,-2,-2
1523055797011975,-1,2,15,3,14,5,-3,-1
1523055797012966,-1,2,12,-3,2,4,4,-1
1523055797012966,0,-2,-5,-1,-6,0,-2,3
1523055797034535,-2,2,-5,-7,-7,-5,4,-2
1523055797034535,0,-5,-37,-2,1,-7,-21,-3
1523055797035461,-5,-12,-33,-6,-8,-6,10,-1
1523055797035461,-2,-1,19,-17,-23,-9,-19,-3
1523055797048984,0,8,36,26,25,4,10,1
1523055797048984,1,2,30,9,3,5,11,2
1523055797057005,2,7,20,0,3,-1,-4,3
1523055797057005,-5,-4,-9,-3,4,-1,4,-4
1523055797072047,0,0,6,-6,-16,-4,-5,-2
1523055797072047,-3,-11,-20,6,-3,-1,0,-2
1523055797072548,6,21,67,3,7,5,0,1
1523055797072548,0,-4,2,-3,2,-1,2,0
1523055797094663,-4,-3,-4,4,-4,-3,-7,-3
1523055797094663,0,-2,-23,2,10,2,1,1
1523055797095108,-2,-4,-9,-5,-2,3,3,-2
1523055797095108,0,3,-2,4,1,-7,-5,-4
1523055797108853,0,-2,22,1,0,-1,-3,0
1523055797108853,-1,0,-11,-1,0,1,4,2
1523055797116875,-3,-6,-1,-4,-8,-8,-8,-4
1523055797116875,0,0,-17,2,16,11,-1,0
1523055797131963,1,1,5,-5,4,-1,1,1
1523055797131963,1,2,8,3,-4,-2,0,-1
1523055797132962,-4,-3,-27,0,-6,-2,-5,-4
1523055797132962,-1,-3,22,10,21,4,2,0
1523055797154675,2,2,-3,-9,-6,-1,1,-2
1523055797154675,-1,-5,-26,-6,-2,-2,3,-1
1523055797155150,-3,-3,-8,2,11,0,-2,-2
1523055797155150,-1,-1,-4,-8,-17,-6,0,0
1523055797177844,-1,0,19,4,12,2,-1,-3
1523055797177844,-1,-3,-26,-4,-4,-1,-1,3
1523055797178346,-2,-6,-9,-7,-12,-4,1,-5
1523055797178346,7,2,12,9,1,0,3,27
1523055797191974,-4,2,-29,-7,-11,-1,2,-18
1523055797191974,-4,-8,23,-19,-10,-3,-9,-2
1523055797192935,-7,-4,-10,12,-14,-4,0,-19
1523055797192935,8,3,9,3,17,8,1,1
1523055797214441,-1,-9,-14,-14,-19,-12,0,28
1523055797214441,-2,15,-5,1,5,7,-2,-41
1523055797215446,-8,-21,-5,-8,-7,-7,-7,-10
1523055797215446,3,4,18,9,3,-1,-3,6
1523055797237725,8,1,-6,-3,-5,-4,0,11
1523055797237725,-4,0,6,-12,-5,-8,-4,0
1523055797238640,2,0,-5,7,9,-4,-4,2
1523055797238640,-6,-1,-14,-5,-6,4,0,-13
1523055797252202,-1,-4,5,3,-6,-3,-1,0
1523055797252202,3,10,37,-2,-2,-5,-2,10
1523055797252679,3,-2,-40,-5,-9,-3,-2,-5
1523055797252679,-2,4,18,6,14,0,4,2
1523055797274456,-5,-1,4,-1,-3,3,-5,-8
1523055797274456,2,-4,-15,-1,-5,2,4,1
1523055797275458,0,0,26,0,5,0,1,9
1523055797275458,-6,-8,-19,-13,-23,-13,-8,-12
1523055797297932,-3,-2,-4,5,17,17,0,-4
1523055797297932,0,0,5,9,13,0,4,3
1523055797298934,2,8,11,-3,0,-1,-2,6
1523055797298934,-4,-12,-69,-14,-3,-1,-2,-5
1523055797312061,-5,5,78,9,-32,-18,-10,-13
1523055797312061,0,-4,17,5,-10,-4,-1,7
1523055797312969,2,-7,-81,-14,6,5,4,8
1523055797312969,0,9,78,-3,-5,-5,-5,-8
1523055797334528,-5,0,4,-7,-4,-6,-3,-6
1523055797334528,-1,-7,-61,-4,0,2,2,3
1523055797335032,-2,2,75,-2,-9,-10,-5,-1
1523055797335032,-4,-3,11,13,2,6,0,-6
1523055797357675,1,1,-8,1,12,5,3,1
1523055797357675,4,-4,-70,-20,4,2,2,5
1523055797358637,-5,-1,6,1,-18,-4,-1,-4
1523055797358637,-1,-2,-47,-10,1,-1,3,1
1523055797372127,1,2,-15,5,15,4,-1,3
1523055797372127,-1,-5,-39,-2,6,1,-3,-1
1523055797372629,2,2,-30,3,-6,2,1,3
1523055797372629,0,5,73,8,-4,-1,-2,-4
1523055797394687,-3,-12,-66,-17,2,-1,2,-3
1523055797394687,-2,-3,-15,15,24,12,7,1
1523055797395190,2,4,22,-3,-3,0,-6,0
1523055797395190,-1,-1,1,0,6,-2,-12,-4
1523055797417809,4,-4,-25,-7,2,1,2,4
1523055797417809,0,8,22,3,-6,-1,-3,0
1523055797418250,1,2,29,3,-5,-5,1,-2
1523055797418250,-1,-10,-75,1,5,6,3,2
1523055797431788,-1,-2,18,-1,-4,-4,-3,-2
1523055797431788,-4,7,110,14,-9,-10,-3,-3
1523055797432789,-2,-5,-27,-11,8,0,0,-4
1523055797432789,1,3,1,13,-3,1,2,3
1523055797454439,0,0,-9,-6,-1,1,2,-2
1523055797454439,0,-6,-1,-1,-8,-2,-6,1
1523055797455437,2,4,-1,3,9,0,-1,1
1523055797455437,-1,-2,-41,-11,-5,-3,-2,-1
1523055797477908,-1,4,41,12,-10,1,3,-1
1523055797477908,2,0,-1,6,26,8,4,1
1523055797478412,-4,-5,-23,-2,0,2,-2,0
1523055797478412,-1,-3,-22,-20,-4,-8,4,0
1523055797492032,-5,-2,61,17,-4,-3,-4,-3
1523055797492032,0,0,-4,-12,-15,-1,0,-3
1523055797492973,1,2,-16,-3,14,2,-2,1
1523055797492973,-1,1,57,0,-13,-7,-2,-2
1523055797514537,-3,0,-16,-1,-10,-4,-6,-3
1523055797514537,-1,-4,-3,-9,-4,-1,-1,2
1523055797515511,-1,-3,-12,2,7,6,3,0
1523055797515511,-2,8,17,2,-12,-7,-3,-5
1523055797537653,0,-5,-24,-8,-1,-1,-9,-1
1523055797537653,-2,0,1,-6,-14,-10,0,-3
1523055797538571,-1,-3,-25,-2,8,-1,-7,1
1523055797538571,-3,-12,-10,-4,-2,3,-6,-3
1523055797552137,3,4,-15,1,7,0,2,1
1523055797552137,-1,4,28,19,0,3,-2,-1
1523055797552609,-2,-7,-16,-6,1,-1,4,-2
1523055797552609,0,-4,5,3,-5,2,2,2
1523055797574666,-1,-2,-31,-16,1,-2,-1,-1
1523055797574666,-3,5,82,12,-12,-10,-4,-4
1523055797575169,-1,1,-18,6,-1,3,2,0
1523055797575169,3,4,-18,5,15,11,5,3
1523055797597854,-1,-2,-7,-6,16,7,1,-2
1523055797597854,-1,-6,-40,-10,-6,-2,-2,-2
1523055797598355,-3,0,14,5,-2,-2,-3,-3
1523055797598355,0,8,60,-4,-11,-4,-2,-3
1523055797611980,-1,-1,-8,5,2,-1,-1,0
1523055797611980,1,-3,-30,3,2,2,0,1
1523055797612895,-2,3,27,-1,-8,-3,-2,-1
1523055797612895,-2,-7,-32,-5,1,-4,-1,-1
1523055797634540,-4,-3,-3,-1,-2,-4,-3,-3
1523055797634540,2,3,0,-5,-6,1,2,1
1523055797635486,0,-4,1,1,1,0,1,4
1523055797635486,-3,-3,-21,-5,1,-4,-3,-7
1523055797657734,0,1,20,1,1,-1,-1,-1
1523055797657734,2,-6,-27,-9,-17,-8,-5,7
1523055797658642,3,5,26,5,13,4,3,1
1523055797658642,1,-5,-16,1,1,-2,13,7
1523055797672179,-9,3,7,3,-4,1,-15,-21
1523055797672179,-2,-2,-32,-8,5,3,3,-12
1523055797672682,15,-2,13,-2,-4,-5,12,46
1523055797672682,-4,1,6,-5,-10,-7,-20,-24
1523055797694323,-11,-6,4,5,0,12,10,-29
1523055797694323,1,4,-20,-2,9,4,1,14
1523055797695241,0,-2,-3,-4,-12,-7,-10,3
1523055797695241,3,-4,-9,-2,11,2,6,18
1523055797717816,7,0,-13,-7,-32,-17,1,2
1523055797717816,-9,-4,22,13,32,15,-6,-9
1523055797718304,0,6,5,5,8,6,3,-9
1523055797718304,-2,-7,-23,-8,-8,-6,-6,3
1523055797731336,0,-5,-10,-6,-1,-2,-2,5
1523055797731336,0,1,1,-7,-12,-4,3,-4
1523055797739509,-4,-1,-6,2,1,1,-2,-8
1523055797739509,-1,11,19,7,16,6,1,-3
1523055797754454,-5,-19,-10,-2,-4,-6,-3,2
1523055797754454,5,15,2,-6,-1,1,-2,2
1523055797755482,-3,-3,-2,4,-10,-5,-4,-8
1523055797755482,-5,-8,-25,0,7,1,0,-6
1523055797777703,10,14,32,2,4,6,3,13
1523055797777703,-2,-12,-57,-4,3,-5,0,0
1523055797778653,-8,2,49,-4,-19,-10,-11,-18
1523055797778653,0,-4,-34,-11,-5,-4,-1,-2
1523055797791241,9,20,73,40,28,11,4,12
1523055797791241,-7,-13,34,-9,-21,-13,-3,-7
1523055797799727,-5,-3,-92,-13,6,4,2,-6
1523055797799727,0,-7,18,4,-6,-10,-7,2
1523055797814214,-3,-1,-26,-15,-8,-7,-3,2
1523055797814214,-1,3,67,12,12,6,-1,-2
1523055797815218,-4,-9,-84,-19,-10,-9,0,-5
1523055797815218,0,11,105,27,0,11,3,2
1523055797837824,-2,-10,-80,-3,-7,-2,-4,-2
1523055797837824,0,1,-24,5,3,1,3,0
1523055797838278,-2,-7,14,-18,-6,1,13,-2
1523055797838278,3,11,51,20,0,2,-12,0
1523055797851400,-1,-4,-8,-11,-3,-1,4,-1
1523055797851400,3,-5,-62,-13,-6,-5,-4,0
1523055797859422,1,15,92,20,8,4,-3,0
1523055797859422,-5,-6,-51,-6,-5,-1,2,-4
1523055797874460,-3,-1,13,-5,12,0,-1,2
1523055797874460,-4,-5,-36,-1,-6,1,-2,-2
1523055797875464,0,1,-37,-9,-6,1,-5,-1
1523055797875464,1,1,-9,-4,-1,-3,18,-3
1523055797897464,-4,-9,-17,1,9,-5,-28,-1
1523055797897464,1,4,16,-22,-2,2,5,7
1523055797898439,-3,-2,35,7,-7,-11,-14,-7
1523055797898439,1,-1,4,-7,3,2,5,2
1523055797911500,-4,-3,-39,0,-13,-1,6,-5
1523055797911500,-4,-6,-11,-11,15,2,-1,-4
1523055797919582,1,7,46,9,1,3,2,0
1523055797919582,-4,-6,-45,-14,-11,-6,-5,-4
1523055797934620,0,-2,-2,-5,-2,1,12,0
1523055797934620,-2,0,26,15,-4,-4,-17,-2
1523055797935035,-3,-8,-30,-14,7,-3,0,-4
1523055797935035,0,0,2,1,-17,-1,-7,-1
1523055797957811,4,4,4,0,5,4,6,4
1523055797957811,1,3,49,7,-4,-4,7,1
1523055797958231,-1,-7,-39,-3,4,2,-3,-2
1523055797958231,3,9,33,5,1,4,4,2
1523055797971352,-1,0,26,-4,-7,-5,1,-1
1523055797971352,0,-1,-37,-3,-8,-2,1,-2
1523055797979372,-1,-1,3,-3,-5,-1,-3,-2
1523055797979372,-2,-9,-28,4,22,9,0,0
1523055797994420,1,5,1,-5,-7,-3,1,1
1523055797994420,0,-2,-19,2,-2,-3,0,-1
1523055797995329,0,2,11,7,-3,1,1,3
1523055797995329,-2,2,-3,-7,-6,-4,-7,-3
1523055798017473,0,-2,-1,5,4,-1,0,0
1523055798017473,-3,-2,-6,-4,-3,-6,0,-3
1523055798018391,0,-8,-43,3,1,-1,-2,0
1523055798018391,0,4,46,0,-4,-2,-2,0
1523055798031427,0,2,9,7,16,3,-2,-1
1523055798031427,-1,-3,-3,-1,-17,-2,-1,0
1523055798039530,0,-1,11,-2,5,1,0,-2
1523055798039530,-3,-2,-23,-9,5,-4,-3,-1
1523055798054487,-1,-2,-26,-7,-9,-2,-1,-1
1523055798054487,1,7,68,13,-7,-3,-3,-1
1523055798055488,-1,3,8,-5,7,2,0,-2
1523055798055488,-2,-6,-31,-10,-20,-14,-2,-2
1523055798077632,2,2,18,2,-10,4,4,0
1523055798077632,-2,-5,-26,-5,13,2,0,1
1523055798078550,0,4,-4,-2,-10,-1,1,0
1523055798078550,-3,-8,-4,5,5,3,-2,-1
1523055798100108,4,17,-22,-4,2,-1,-3,-1
1523055798100108,-4,-6,58,4,-1,-8,-6,-7
1523055798101110,-2,-3,0,9,0,-2,-5,-1
1523055798101110,-1,-3,-32,-6,-1,4,5,1
1523055798114645,-2,-5,-23,-5,10,2,3,1
1523055798114645,0,1,6,2,0,2,0,0
1523055798115148,1,2,-6,-4,3,4,1,0
1523055798115148,-1,1,40,16,11,0,-4,-4
1523055798137707,1,-1,32,0,-9,0,-3,-2
1523055798137707,-2,-2,-30,-6,-1,-2,-1,-2
1523055798138211,-2,-4,-1,3,-1,-1,1,-1
1523055798138211,0,1,-14,-6,-2,-1,0,1
1523055798160340,-3,-3,11,2,0,-1,-2,-2
1523055798160340,1,0,-4,-2,-2,-1,-3,2
1523055798160770,0,2,-11,0,0,-1,-2,-4
1523055798160770,1,-3,-19,-6,-4,0,1,-7
1523055798174390,-6,-5,2,1,-1,-3,11,7
1523055798174390,12,10,-3,-1,1,3,-15,23
1523055798175308,-8,3,-19,-1,-5,-6,-5,-25
1523055798175308,8,-4,10,-1,1,-1,-2,37
1523055798197870,-8,-8,22,0,0,0,48,-26
1523055798197870,-7,8,-14,-6,-4,5,-42,-9
1523055798198370,1,-5,14,5,6,3,-4,-12
1523055798198370,-7,-4,6,-3,-3,-2,-8,12
1523055798220014,4,-1,-28,-2,-3,-3,2,1
1523055798220014,-8,-8,-8,1,0,2,9,10
1523055798220929,6,3,18,-3,6,1,4,6
1523055798220929,-11,-6,-11,3,-6,-2,-6,-19
1523055798234550,3,-10,-22,-14,3,-4,-7,39
1523055798234550,8,23,19,7,-14,-5,7,-31
1523055798235467,-11,-9,2,1,14,3,-7,2
1523055798235467,-1,0,-10,5,-8,-2,4,-11
1523055798257614,-4,-6,3,-11,-1,5,-17,-5
1523055798257614,-1,-10,-26,-1,-24,-15,9,0
1523055798258529,4,7,23,10,37,15,6,6
1523055798258529,3,5,-5,-10,-7,-7,-2,-7
1523055798280111,-4,-3,-6,-2,-13,-10,-18,-8
1523055798280111,-10,-19,-31,-12,0,-1,0,-4
1523055798281090,7,18,42,5,-28,-4,2,6
1523055798281090,-3,-4,-10,-4,-1,0,1,-6
1523055798294358,-4,2,0,0,10,4,-10,-2
1523055798294358,-1,-6,-34,-5,-6,-6,3,-2
1523055798295266,-2,-4,61,3,6,-5,-1,1
1523055798295266,0,-3,-28,-11,0,-4,-3,0
1523055798317552,7,7,-18,9,-6,1,0,0
1523055798317552,-1,-3,-9,8,21,3,4,-1
1523055798318457,-2,-9,-111,-19,-16,-9,-3,-2
1523055798318457,-1,14,107,1,5,8,-1,-5
1523055798340105,-1,-4,1,18,-4,-6,-8,-5
1523055798340105,1,-7,-60,-8,-3,2,6,1
1523055798341017,5,15,90,44,6,8,7,9
1523055798341017,-3,-8,-108,-40,-13,-11,-4,-4
1523055798354565,-3,2,16,11,7,2,-4,-5
1523055798354565,-1,0,8,10,9,3,0,0
1523055798355055,-5,-14,-104,-12,-5,-2,-3,0
1523055798355055,-1,2,66,7,-16,-2,1,-3
1523055798377842,0,0,7,-8,9,2,-4,-1
1523055798377842,-1,-1,-21,17,20,2,3,4
1523055798378247,-5,-7,90,-38,-27,-7,-3,-5
1523055798378247,1,2,-52,1,9,-6,-2,-2
1523055798407831,0,-7,-76,10,-9,10,0,-2
1523055798407831,-1,1,64,-11,8,4,21,2
1523055798408331,-2,-6,-46,0,5,-3,-13,-1
1523055798408331,1,3,19,7,-2,2,7,-8
1523055798414345,-2,-5,11,-23,-20,-19,-26,6
1523055798414345,2,-1,-22,-5,-2,-1,-1,-4
1523055798415349,-3,-5,18,10,-2,-1,1,-1
1523055798415349,-2,-8,-9,2,9,5,6,-2
1523055798437906,-1,3,-9,1,3,-2,1,-6
1523055798437906,1,0,24,0,1,2,-4,0
1523055798438408,-1,-3,-26,-3,-7,-1,4,-1
1523055798438408,-3,-3,26,12,3,-3,-11,-4
1523055798460236,-1,4,0,-3,0,-2,0,-4
1523055798460236,-3,-2,45,-5,2,-1,-7,0
1523055798461275,1,-1,-27,-1,6,-3,2,-3
1523055798461275,0,-5,-14,12,-9,2,-1,2
1523055798474461,-1,3,6,-5,13,5,2,-3
1523055798474461,1,7,-7,-6,-10,-1,-1,-3
1523055798475276,0,0,3,2,0,0,-2,0
1523055798475276,1,1,2,0,3,-1,-1,3
1523055798497839,1,-5,-21,-11,-7,-6,1,0
1523055798497839,-3,5,28,-3,-8,-2,-4,-6
1523055798498338,0,0,-10,9,-8,-4,-2,0
1523055798498338,3,3,-45,-3,2,2,2,1
1523055798519983,-3,0,46,-15,-8,-5,-7,-7
1523055798519983,-3,-12,-44,-6,4,4,5,2
1523055798520899,-1,-1,-18,-18,-14,-5,-2,-1
1523055798520899,-2,-3,-19,3,15,1,-5,1
1523055798534525,-2,-2,31,7,-3,0,1,-2
1523055798534525,1,-4,-42,5,2,2,-5,0
1523055798535467,-2,2,14,-1,0,1,4,-2
1523055798535467,3,3,-6,-17,-2,-2,0,-2
1523055798557705,-3,-8,-44,-4,-11,-6,0,-3
1523055798557705,0,4,51,21,22,5,1,0
1523055798558618,1,-2,-44,-7,-7,-1,2,2
1523055798558618,-1,-2,24,6,5,0,-1,1
1523055798580174,1,-1,-7,-2,-14,-10,-3,-1
1523055798580174,2,4,-4,3,-1,4,2,-1
1523055798580676,2,-4,-77,0,10,4,3,2
1523055798580676,-7,-9,34,3,-14,-9,-7,-5
1523055798594303,1,-2,-50,-12,6,5,4,2
1523055798594303,-4,0,26,-5,-18,-13,-11,-6
1523055798595214,2,-6,-37,-2,4,3,2,1
1523055798595214,-1,1,-15,-2,5,0,-1,0
1523055798625328,-1,-6,-26,-4,7,4,1,1
1523055798625328,-2,-6,-17,-3,-4,-4,-3,1
1523055798625797,-1,2,48,-1,-2,0,-2,-2
1523055798625797,-3,-2,-16,-7,-7,-4,0,-3
1523055798640361,-2,0,53,12,5,4,-3,4
1523055798640361,1,1,-17,-9,-1,3,2,-5
1523055798640836,-2,-1,26,-2,-9,-5,-2,1
1523055798640836,1,2,5,9,3,6,7,2
1523055798654461,-1,-2,-17,1,5,4,5,1
1523055798654461,2,6,32,3,-5,-1,-1,3
1523055798655465,-2,-4,-26,0,2,-1,-2,-2
1523055798655465,-2,1,22,-1,1,2,-2,-2
1523055798676962,-2,2,8,9,5,-1,0,-2
1523055798676962,1,-9,-19,-5,-9,-1,7,6
1523055798684479,14,14,18,0,-1,-4,-8,-12
1523055798684479,-2,-1,-21,-5,-2,-3,0,9
1523055798700079,2,3,25,1,2,-2,-1,-5
1523055798700079,-1,-6,-12,4,-5,-6,3,-7
1523055798700997,-10,-7,11,-1,5,1,-15,-8
1523055798700997,9,17,3,0,-2,2,3,29
1523055798713531,-7,-7,-12,-3,-3,-5,0,-31
1523055798713531,10,2,-11,-8,1,-2,-4,11
1523055798722139,-24,-6,53,6,-24,-12,4,-17
1523055798722139,-9,-20,-14,8,40,22,-1,-22
1523055798737596,-2,6,11,3,3,7,5,24
1523055798737596,12,18,6,-4,-4,-5,1,5
1523055798738653,6,0,-10,-9,-8,-10,-4,5
1523055798738653,0,8,8,5,-14,-4,-2,2
1523055798760244,3,4,8,2,2,-2,-6,-3
1523055798760244,-12,-20,-9,-10,-6,-8,-9,-10
1523055798761183,3,3,-4,1,21,8,1,2
1523055798761183,-2,-10,-23,-2,-20,-5,-1,-11
1523055798773691,0,6,11,0,-3,-2,-3,0
1523055798773691,-6,-5,-8,0,-3,0,-2,0
1523055798782214,-3,-3,6,-9,-10,-5,3,0
1523055798782214,1,-5,-32,3,12,0,-2,0
1523055798797753,1,-5,25,0,3,6,3,5
1523055798797753,-5,-2,-58,-12,-16,-5,-2,-6
1523055798798257,5,9,57,13,2,11,1,3
1523055798798257,-2,-12,-76,-4,14,-7,-3,1
1523055798819812,3,1,-36,-18,-9,0,5,0
1523055798819812,-11,-14,-68,-15,-14,-10,-5,-8
1523055798820816,-1,-1,36,30,2,-2,1,3
1523055798820816,1,4,1,-41,-18,-12,-6,-3
1523055798833940,3,-7,35,25,18,7,1,-1
1523055798833940,6,25,124,9,-10,-1,0,3
1523055798841961,-3,-8,-115,-10,-19,-7,-2,0
1523055798841961,2,2,-47,13,-6,6,6,0
1523055798856997,5,5,9,1,29,14,4,7
1523055798856997,-6,-7,-51,2,-3,-6,-1,-7
1523055798857954,0,1,-32,-5,-5,-5,1,3
1523055798857954,3,7,16,6,-6,4,4,1
1523055798880109,-2,-6,-64,-12,10,1,-3,-2
1523055798880109,-2,-1,-2,9,3,1,-2,2
1523055798881112,1,2,-10,29,28,8,1,1
1523055798881112,-8,-15,-55,-39,-23,-13,-7,-11
1523055798893738,-3,-4,-12,10,-22,-12,-6,-2
1523055798893738,3,10,29,6,8,11,26,4
1523055798902165,-1,-9,-39,-8,8,-2,-20,0
1523055798902165,1,5,52,14,8,1,0,0
1523055798917205,-4,-2,33,0,-13,-7,-10,-6
1523055798917205,0,-2,7,6,2,-3,-12,-1
1523055798917710,2,-2,-45,-16,-3,5,19,6
1523055798917710,-4,3,127,-1,0,0,-8,-3
1523055798940319,-3,0,-27,-14,-17,-12,-4,-13
1523055798940319,-1,-13,-61,4,12,9,11,11
1523055798940770,-1,7,27,-3,1,0,-7,-2
1523055798940770,0,3,30,9,-13,-10,-5,-3
1523055798953803,-1,-2,-26,-4,-3,2,2,-1
1523055798953803,-2,-3,15,-8,1,1,-6,-9
1523055798961916,-2,2,-10,-6,-10,-2,2,-2
1523055798961916,-2,-1,31,15,9,0,4,0
1523055798977868,-3,-4,8,-1,-7,-3,-4,2
1523055798977868,2,-2,-35,3,10,1,-7,-1
1523055798978370,1,1,48,-6,1,-2,1,8
1523055798978370,0,-2,-35,4,3,2,7,-7
1523055799000014,-3,-4,-26,-1,-7,-1,1,-2
1523055799000014,-2,0,24,2,1,2,-2,0
1523055799000929,0,-8,-20,-6,2,-3,-3,0
1523055799000929,5,7,-8,-1,-1,2,1,4
1523055799022570,-3,-1,-13,2,-9,-7,-1,0
1523055799022570,0,-2,19,-1,25,8,1,-2
1523055799023489,-2,-1,0,-4,-21,-6,-1,-5
1523055799023489,-2,-5,-29,-1,9,4,-2,1
1523055799037526,-1,0,-2,0,7,0,-1,-1
1523055799037526,-4,-5,-82,-14,-6,-5,-5,-4
1523055799038528,-6,2,100,1,-13,-9,-6,-8
1523055799038528,-1,-3,-21,-3,-5,-2,0,-1
1523055799060335,-1,2,9,1,-2,-3,10,3
1523055799060335,1,3,-5,-1,5,4,-9,2
1523055799061088,-2,-8,-13,2,8,0,2,-3
1523055799061088,-1,-7,-61,-4,-3,-2,-4,-1
1523055799082876,0,6,34,-3,3,-2,-4,-1
1523055799082876,0,4,13,2,-19,-7,2,-2
1523055799083811,-3,-3,-44,-9,5,2,3,-1
1523055799083811,-2,-1,-12,5,-6,-3,-4,1
1523055799097689,-1,-1,13,1,2,-2,-4,-1
1523055799097689,-1,-1,16,1,6,-2,-1,-3
1523055799098187,-1,-3,-14,1,7,5,0,3
1523055799098187,-2,-1,-22,-3,-1,-2,0,1
1523055799120246,-2,2,17,-6,-9,-6,-7,-4
1523055799120246,-1,-2,-3,9,12,7,2,0
1523055799121259,-1,0,9,-1,0,-1,-2,-2
1523055799121259,-1,2,-29,-4,-1,1,1,-2
1523055799142977,0,-4,-1,-2,-3,-2,-2,9
1523055799142977,-2,-2,8,-6,-11,-8,-3,-5
1523055799144309,-5,-10,-15,-2,5,8,3,-6
1523055799144309,-1,6,30,-2,0,-1,-2,-3
1523055799157934,2,-4,-10,2,0,3,-2,1
1523055799157934,9,1,-2,-7,-5,-5,-2,22
1523055799158348,-5,0,-6,-1,0,-3,-1,-3
1523055799158348,-11,-2,9,1,0,0,38,-17
1523055799179906,-2,7,-9,5,5,7,-39,-13
1523055799179906,-4,-15,6,-6,-6,-6,-7,-9
1523055799181910,4,3,-3,-2,-5,-3,1,13
1523055799181910,4,-1,12,0,-1,-3,-11,-2
1523055799202575,-9,-1,-11,0,3,3,17,5
1523055799202575,0,6,14,4,2,0,6,-6
1523055799204469,7,-2,-7,-7,-7,-9,-13,14
1523055799204469,2,3,10,2,6,4,8,-7
1523055799216543,-6,-3,-2,-2,0,-2,3,-2
1523055799216543,-1,0,-3,-4,-10,-1,-8,-5
1523055799225526,-3,-11,-15,6,4,-3,3,-4
1523055799225526,1,8,28,-9,5,2,-18,1
1523055799240681,-2,-8,-5,-1,-9,-6,0,-14
1523055799240681,0,1,-21,4,11,7,9,16
1523055799242070,4,12,25,-3,-2,9,9,-8
1523055799242070,-2,-11,-24,-4,-12,-8,-7,3
1523055799262666,1,6,14,-7,0,-7,-1,-4
1523055799262666,-4,-1,22,3,-5,5,3,-5
1523055799264128,0,-1,2,-2,-2,-3,-6,-5
1523055799264128,2,-5,-18,7,12,4,-6,8
1523055799276271,1,2,-3,-7,-10,-4,5,1
1523055799276271,3,4,12,12,9,3,2,0
1523055799285185,-5,-1,-3,-2,-3,-2,-6,-5
1523055799285185,-1,-14,-96,-39,-3,-5,0,2
1523055799300340,1,15,110,91,-11,-15,-4,1
1523055799300340,-1,-2,-59,-53,26,7,0,-1
1523055799301729,0,-3,-74,-4,-3,3,2,-3
1523055799301729,1,10,92,44,20,9,-2,0
1523055799322812,-2,-8,26,-7,-13,-7,-3,-2
1523055799322812,-2,-1,-55,-14,-15,-5,-3,-4
1523055799324289,-2,-9,-53,21,3,3,5,0
1523055799324289,-8,-4,50,-61,-22,-16,-6,-4
1523055799336823,5,-3,-87,-16,0,0,2,10
1523055799336823,-8,-14,-31,-6,3,-7,-13,-18
1523055799343954,1,22,72,62,7,-4,-6,-2
1523055799343954,1,-6,-128,-21,-5,4,2,2
1523055799360385,0,-6,-50,1,22,12,4,2
1523055799360385,-3,-14,-126,-33,-15,-9,-3,0
1523055799362003,-4,3,63,-14,-13,-8,-7,-4
1523055799362003,0,5,-4,26,0,0,3,0
1523055799382558,-2,1,2,-5,14,4,-9,-5
1523055799382558,0,-6,-23,17,-5,-1,-3,3
1523055799383948,3,12,44,-16,1,3,11,6
1523055799383948,-3,-1,51,21,-8,-6,-3,1
1523055799396984,-1,-15,-75,-37,-5,-1,-7,-4
1523055799396984,-2,7,71,22,-1,0,3,-3
1523055799404012,0,-2,-4,-10,-1,-2,-9,-1
1523055799404012,-4,-4,6,-9,-5,-5,4,-2
1523055799420044,3,1,-36,-6,-1,2,6,1
1523055799420044,-2,3,68,18,6,-1,-6,-2
1523055799422048,0,0,-25,-12,-11,-6,3,-1
1523055799422048,3,-6,-30,7,5,6,2,3
1523055799442719,2,-1,12,0,5,2,1,2
1523055799442719,0,8,24,21,-4,-6,-2,-1
1523055799444108,0,-11,-46,-29,-9,-1,3,1
1523055799444108,3,4,-2,9,-2,0,0,3
1523055799457186,1,0,14,-4,-6,0,0,2
1523055799457186,2,-1,-53,-10,3,1,6,0
1523055799463661,-1,-2,-1,6,15,3,-1,-3
1523055799463661,-3,-5,12,-1,-2,-2,-8,-2
1523055799480205,-4,4,8,-13,-16,-6,2,-4
1523055799480205,0,-2,-37,1,2,4,4,1
1523055799481739,1,-2,31,5,2,0,-5,-2
1523055799481739,0,-2,11,7,1,-3,-4,0
1523055799502867,-2,-6,-70,-12,0,7,3,-3
1523055799502867,-4,2,41,0,12,-2,-3,-4
1523055799504268,-1,-5,-26,-13,-17,-6,0,0
1523055799504268,0,-3,9,5,14,7,6,3
1523055799516911,4,1,-7,3,0,-5,-2,3
1523055799516911,0,5,16,-3,-13,-1,1,-2
1523055799523936,-2,-2,-1,6,18,4,-7,-4
1523055799523936,1,-2,-29,-3,-10,-6,-5,-1
1523055799540364,-2,0,19,3,6,2,3,0
1523055799540364,1,2,44,2,-8,-3,-1,1
1523055799541984,-3,-3,-16,-12,-6,-3,1,-2
1523055799541984,-2,-1,-32,2,11,-3,-4,-3
1523055799562425,-1,-5,-15,0,-1,0,0,0
1523055799562425,-4,-7,18,-15,-3,-4,-1,-3
1523055799564427,-2,7,4,0,-23,-4,-2,-2
1523055799564427,1,6,17,-1,2,-1,-4,-2
1523055799576488,-3,-3,8,-3,-1,-1,-3,-3
1523055799576488,1,-2,-8,-1,-4,-1,0,1
1523055799585483,-1,-3,-12,-1,5,-2,-3,-2
1523055799585483,-4,-2,4,-5,-11,-6,-8,-3
1523055799600138,0,0,0,0,3,2,3,1
1523055799600138,2,4,10,3,-1,3,0,1
1523055799601527,-2,-2,7,0,8,-2,-2,-1
1523055799601527,-1,0,8,3,-8,-4,-3,-2
1523055799622692,-1,-1,8,0,1,2,2,1
1523055799622692,3,-4,-7,5,-2,-3,-4,3
1523055799624088,-3,11,23,0,-3,-4,-2,-1
1523055799624088,2,-5,-12,-2,-4,6,4,3
1523055799636120,2,0,11,3,-2,-1,13,9
1523055799636120,-6,5,6,1,4,1,-15,-22
1523055799645143,12,-10,-2,-1,0,3,4,25
1523055799645143,-28,-16,-6,-7,-3,-8,-8,-37
1523055799660298,6,17,7,4,5,3,12,-17
1523055799660298,-9,-10,0,-3,-7,-9,-19,-4
1523055799661686,-10,-1,-17,1,0,0,-3,-27
1523055799661686,15,14,20,0,-1,3,-3,23
1523055799682743,-8,-18,-3,-5,-4,-3,-3,3
1523055799682743,3,5,-3,1,2,-1,0,12
1523055799684247,1,-2,-3,-2,14,3,-3,0
1523055799684247,2,-4,-8,1,0,-2,0,4
1523055799696309,0,15,16,-1,-4,-5,-7,-8
1523055799696309,1,-2,7,3,-7,-1,7,5
1523055799705303,-6,-11,-17,-10,-12,-13,-8,-1
1523055799705303,3,5,8,11,3,12,7,-3
1523055799720341,2,-4,-13,-5,0,2,-5,5
1523055799720341,-5,-8,-12,-7,-5,-4,6,-3
1523055799721952,-3,-5,-2,11,30,14,5,-4
1523055799721952,1,2,-15,-3,-7,-3,-1,2
1523055799742902,-3,-12,-9,-6,-19,-8,-3,2
1523055799742902,1,13,20,0,1,-3,2,2
1523055799744493,-5,-8,-27,-11,-19,-8,-8,-7
1523055799744493,1,-2,-3,-4,4,1,3,2
1523055799764962,1,8,51,14,16,1,-2,2
1523055799764962,-3,-7,-29,1,-13,-10,-2,-3
1523055799766966,4,6,19,-4,1,6,4,5
1523055799766966,0,-4,-81,-30,-3,0,-5,-3
1523055799780062,-3,9,85,25,5,-5,-6,-7
1523055799780062,0,-6,-77,-18,0,0,4,1
1523055799781567,3,-1,-83,-12,-1,2,3,4
1523055799781567,-5,1,69,2,-15,-4,1,-2
1523055799802737,-3,-10,-87,-14,-7,2,1,0
1523055799802737,0,0,-32,16,12,7,3,-2
1523055799804126,-7,-7,37,17,-15,-13,-6,-5
1523055799804126,1,5,32,-11,0,-3,-1,0
1523055799816268,-1,-3,-31,-5,10,2,1,1
1523055799816268,-3,-3,12,23,-5,-1,2,0
1523055799825182,2,8,39,2,-8,0,2,1
1523055799825182,1,2,7,14,-4,-2,0,2
1523055799840337,-3,-4,-16,-12,4,-3,-5,-3
1523055799840337,1,6,41,-15,-27,-9,-3,-2
1523055799841726,0,-1,-52,13,30,11,6,-3
1523055799841726,0,-1,-22,6,16,-1,-1,2
1523055799862781,-2,-7,-25,-10,-5,1,-5,-2
1523055799862781,3,2,14,-10,-8,0,4,1
1523055799864314,-6,-2,-7,-9,-13,-8,-6,-3
1523055799864314,-5,-5,23,1,-5,-2,-3,-3
1523055799876434,2,-5,-62,5,2,-3,-1,2
1523055799876434,0,-3,18,-5,6,4,-1,0
1523055799885368,1,0,23,6,-1,2,3,1
1523055799885368,-3,-4,-34,-1,-1,-6,-2,-3
1523055799900382,-3,-7,14,-1,-5,-1,-3,-1
1523055799900382,0,8,28,1,6,1,0,0
1523055799901893,-2,-4,-8,-10,1,-1,0,0
1523055799901893,-1,0,-17,0,0,3,1,-1
1523055799922551,-3,-8,-14,-6,-18,-8,-5,-3
1523055799922551,0,10,72,15,15,-1,-4,-2
1523055799924512,-2,-8,-57,-5,0,-5,0,-3
1523055799924512,0,5,43,-2,-18,-7,0,-2
1523055799936487,-1,1,4,4,8,6,0,-1
1523055799936487,-1,-5,-47,2,23,11,5,2
1523055799945502,0,0,53,23,-2,-6,-9,-4
1523055799945502,1,5,-1,-11,-12,-1,-1,1
1523055799960165,1,4,-14,-4,-4,-2,4,1
1523055799960165,-2,-3,-3,-8,-14,-9,-3,-2
1523055799962060,-1,0,-11,4,9,8,1,2
1523055799962060,-4,-8,-32,-6,3,-1,1,-3
1523055799982731,3,-1,-21,5,2,2,2,1
1523055799982731,-5,-4,15,-1,-6,-5,-3,-5
1523055799984120,2,5,22,-8,-3,-3,-1,1
1523055799984120,1,-2,-17,1,8,3,-1,0
1523055800005289,-4,-2,-24,-12,-7,-3,-1,-2
1523055800005289,0,3,9,5,-3,-1,-4,-3
1523055800006681,0,-3,6,-12,-7,1,2,1
1523055800006681,-3,-4,-20,10,-2,-1,-4,-4
1523055800019326,-2,0,56,11,15,1,-3,1
1523055800019326,-1,-6,-59,-22,-12,-3,2,2
1523055800027736,1,7,34,2,-6,-2,-1,0
1523055800027736,-4,-3,44,18,13,-4,-6,-3
1523055800042836,-3,0,-1,-2,-4,3,3,-4
1523055800042836,-3,-5,-10,-1,-2,1,1,0
1523055800044280,1,2,3,-13,-6,0,2,3
1523055800044280,0,4,7,5,2,-3,-4,-1
1523055800065371,-4,-11,-75,-11,2,-3,-5,-3
1523055800065371,-1,7,29,1,-3,0,0,0
1523055800066866,2,1,-3,-3,8,6,2,-1
1523055800066866,-1,-5,-2,-1,-9,-4,0,-1
1523055800080377,0,5,11,-5,-6,-5,-3,-1
1523055800080377,0,-6,-29,-2,7,6,1,1
1523055800081906,-3,-1,9,2,-3,-6,-4,-2
1523055800081906,-1,-3,-21,-2,5,2,0,-3
1523055800102544,0,2,27,-1,-12,-2,-2,-1
1523055800102544,-1,-5,0,12,10,5,0,0
1523055800104463,0,0,-13,-3,-4,1,2,1
1523055800104463,-3,-2,14,-1,4,-1,-3,-2
1523055800125113,0,2,9,-3,1,0,0,1
1523055800125113,0,-2,4,-3,-12,-6,-2,-3
1523055800127015,-2,-1,-17,-6,2,-3,-1,-2
1523055800127015,1,2,-15,-5,-1,3,2,2
1523055800139626,-2,0,26,6,-2,-2,0,-1
1523055800139626,-4,-5,9,-4,-6,-3,-2,-2
1523055800146051,-3,-2,-28,-1,6,0,-5,-4
1523055800146051,4,1,-2,0,-6,0,3,12
1523055800162597,0,2,25,3,3,-3,1,12
1523055800162597,-4,-6,-21,-5,-19,-3,0,-15
1523055800164100,-9,-9,-13,0,1,-5,-4,-2
1523055800164100,1,5,15,-8,-15,-7,-8,-14
1523055800185242,-8,-9,-16,3,4,5,0,-30
1523055800185242,14,10,5,9,23,4,8,32
1523055800186660,-22,-15,-11,-9,1,-8,-21,-34
1523055800186660,4,11,-15,3,-1,6,10,-15
1523055800199694,10,5,10,-7,1,-8,-3,33
1523055800199694,-6,-6,6,1,8,4,5,-8
1523055800206293,4,-1,-11,2,-9,4,4,13
1523055800206293,5,-6,-10,-4,9,0,-2,7
1523055800222841,-5,3,5,-9,-18,-7,-6,-17
1523055800222841,1,6,-3,1,-5,-3,-5,1
1523055800224259,7,-1,-13,-1,8,10,8,11
1523055800224259,-3,5,32,0,-10,1,-3,3
1523055800245316,-1,-3,-16,-1,-1,3,7,0
1523055800245316,-6,-10,-6,-6,-12,-13,-11,-8
1523055800246821,3,4,4,6,-2,1,3,4
1523055800246821,-4,-7,-14,1,3,2,0,-4
1523055800259443,1,3,-15,1,-1,4,0,-2
1523055800259443,-5,-8,-60,-18,5,2,-3,-4
1523055800266463,6,16,103,37,-4,-5,1,0
1523055800266463,0,-4,-37,2,10,0,-1,3
1523055800282503,0,-7,-97,-9,0,1,-3,0
1523055800282503,-10,3,80,-3,-20,-14,-10,-13
1523055800284430,0,-10,-124,-19,-12,-3,3,-1
1523055800284430,-2,0,10,0,16,10,3,4
1523055800304973,-2,10,127,22,-17,-7,-5,-3
1523055800304973,1,-6,-114,9,33,7,6,0
1523055800306979,3,7,68,-9,-11,1,4,4
1523055800306979,-3,0,-15,-14,-18,-14,-6,-2
1523055800319598,-2,-8,-45,-9,-23,-4,0,-4
1523055800319598,5,1,41,38,31,14,8,10
1523055800326529,-1,9,77,-16,-17,-13,-6,0
1523055800326529,-1,-14,-73,-17,-1,-3,-1,0
1523055800341662,2,0,-37,-8,14,1,0,-1
1523055800341662,-3,7,70,45,-23,-11,-11,-7
1523055800350094,-1,-8,-43,-25,11,3,5,-2
1523055800350094,-1,4,28,10,2,2,0,0
1523055800365225,-2,-9,-61,-23,-5,-5,-4,-1
1523055800365225,-1,-9,-62,-17,10,7,2,-2
1523055800366638,-7,1,24,1,-11,-10,-7,-6
1523055800366638,-4,-3,5,4,-21,-9,-2,-2
1523055800379675,1,3,27,12,21,10,2,2
1523055800379675,-3,-4,-19,-20,-8,3,3,4
1523055800386278,1,0,77,11,-2,-1,2,-2
1523055800386278,1,13,0,0,-1,1,10,-9
1523055800402734,-2,-3,5,1,2,-6,-23,8
1523055800402734,3,6,19,-6,-4,0,3,6
1523055800404238,-4,-14,-108,-10,1,3,-5,-7
1523055800404238,-3,-3,4,4,0,2,2,2
1523055800425295,0,3,41,17,10,5,7,-7
1523055800425295,1,7,19,-18,-10,-4,0,-4
1523055800426798,0,-1,-38,9,1,-2,2,4
1523055800426798,-2,-8,-5,-5,9,4,-1,0
1523055800439419,-3,-4,10,15,1,5,2,-3
1523055800439419,2,6,33,-11,-19,-9,-2,-1
1523055800446349,2,3,-22,9,20,7,2,-1
1523055800446349,-2,-1,-2,12,35,10,-1,0
1523055800462391,-3,-4,16,-11,-18,-10,-1,-1
1523055800462391,0,1,-7,-10,-8,-3,-2,-2
1523055800464426,0,3,5,-5,-15,-4,-1,-1
1523055800464426,-3,-1,-2,-1,-5,-6,-7,1
1523055800485034,-3,1,19,1,5,-2,-4,-4
1523055800485034,0,-1,-35,9,6,4,6,-2
1523055800486958,-3,-5,15,-10,-2,-5,-4,-3
1523055800486958,2,-1,51,2,-13,-4,-3,1
1523055800498991,1,4,-15,-5,4,-2,1,-2
1523055800498991,-2,-8,-22,0,-2,0,-3,-3
1523055800507513,-1,-6,-30,-8,7,0,-4,0
1523055800507513,1,7,-1,-1,1,0,-2,1
1523055800522639,2,0,-12,-1,-4,0,5,2
1523055800522639,-5,-6,9,-12,-4,-3,-7,-5
1523055800524058,2,2,-20,0,-5,3,0,1
1523055800524058,-1,-1,21,2,-3,-1,0,-1
1523055800545114,-2,-1,-7,1,19,9,5,-3
1523055800545114,-1,-1,0,8,6,1,-2,-1
1523055800546619,-1,-4,-15,-14,-6,-10,-3,0
1523055800546619,0,-4,-33,-2,-15,-6,1,1
1523055800558734,0,-2,21,-3,13,3,-2,-2
1523055800558734,-1,-1,-6,-5,-9,-3,-5,-2
1523055800567672,0,-2,-22,16,7,3,0,0
1523055800567672,-1,-1,27,-9,-9,-8,-5,-5
1523055800582799,0,-1,-8,-1,-5,-5,2,1
1523055800582799,-2,-8,-4,-3,-2,-2,-1,-4
1523055800584217,2,7,-21,1,0,3,2,-1
1523055800584217,-4,-7,-15,-4,-1,-2,-3,-1
1523055800605341,0,-2,-3,5,-3,4,-1,-3
1523055800605341,-1,-1,-4,-10,-2,-5,-1,-1
1523055800606777,0,-5,-6,4,-3,0,1,-1
1523055800606777,-3,-2,-9,-6,4,0,-1,-2
1523055800618895,-2,-2,0,-2,-9,-7,-3,0
1523055800618895,2,3,8,1,-1,0,-1,-4
1523055800627832,0,6,20,7,7,0,-1,4
1523055800627832,-3,-11,-14,0,3,4,2,-12
1523055800642873,1,0,0,-6,-15,-4,-1,16
1523055800642873,9,1,-7,5,7,3,15,5
1523055800644403,-14,13,37,3,2,-2,-20,-25
1523055800644403,-3,-12,-38,0,4,1,-8,-6
1523055800665023,-5,-2,13,-6,-11,-6,3,-12
1523055800665023,-2,0,-3,2,5,3,-5,2
1523055800666937,17,13,26,0,-2,0,18,25
1523055800666937,6,1,2,-7,-9,-9,-34,-12
1523055800678969,-19,-16,-35,5,11,3,16,-27
1523055800678969,-2,1,27,0,-9,-2,-4,11
1523055800687994,-2,-6,-10,-2,5,8,4,-4
1523055800687994,11,17,14,2,1,1,4,13
1523055800702766,11,2,14,-2,-5,-10,-12,10
1523055800702766,-11,-7,-29,-7,0,3,2,-6
1523055800704175,-5,-14,-19,-5,-11,-6,-3,3
1523055800704175,2,0,11,16,18,9,10,4
1523055800725308,-1,-4,-2,-13,-7,2,-6,-9
1523055800725308,1,21,28,8,6,4,4,-3
1523055800726736,0,-7,-22,-7,5,-5,-6,2
1523055800726736,-4,-7,-2,-11,-31,-10,2,6
1523055800738855,0,6,0,0,-5,-4,4,2
1523055800738855,-1,-4,1,5,17,20,2,-3
1523055800747791,-1,-5,5,8,18,-1,0,-1
1523055800747791,-4,5,1,-6,-10,-7,1,-2
1523055800762330,-2,-2,-36,-4,-1,-3,-6,-1
1523055800762330,0,-8,-2,-26,-29,-17,-12,-1
1523055800768935,0,4,32,4,-4,-2,-5,-3
1523055800768935,-10,-18,-108,-13,-10,-5,-1,-6
1523055800784978,8,16,103,24,17,6,-4,5
1523055800784978,-2,-1,82,-12,-22,-12,-2,-2
1523055800786898,-2,-1,7,9,14,14,9,-1
1523055800786898,0,0,-3,-7,-3,-7,2,4
1523055800799015,-1,-7,-70,-22,-18,7,6,5
1523055800799015,-3,-7,-22,23,28,-2,-9,-4
1523055800807952,1,14,22,-22,-11,-2,0,-4
1523055800807952,-1,0,75,25,8,3,3,0
1523055800822583,1,7,24,1,-4,4,3,3
1523055800822583,-3,-13,-110,-5,6,4,0,-2
1523055800823995,1,-2,4,-5,-15,-5,-4,1
1523055800823995,-5,2,39,4,6,4,1,-1
1523055800845050,-3,-4,-27,-4,-2,-7,-5,-1
1523055800845050,0,1,-58,-3,8,4,2,0
1523055800846554,4,3,-13,30,10,9,4,6
1523055800846554,-5,-3,-50,-11,-6,0,4,-5
1523055800858587,-3,-6,-54,2,13,0,-14,-8
1523055800858587,0,4,-12,3,-21,-12,-7,10
1523055800867751,-1,-14,-42,-11,-3,-3,5,4
1523055800867751,-1,16,56,2,-5,-4,-6,-4
1523055800882841,-2,1,35,-1,-3,-1,4,-4
1523055800882841,-1,-9,-31,-10,0,-3,-3,-4
1523055800884320,-1,-2,13,5,-1,1,-3,-3
1523055800884320,1,-5,-7,-15,4,2,4,1
1523055800905345,-1,-3,-31,-5,-7,-4,0,-2
1523055800905345,0,10,55,8,4,-2,-2,-3
1523055800906851,-7,-15,-32,-5,-12,-4,2,-4
1523055800906851,0,5,9,1,4,1,-3,1
1523055800918967,-1,-2,-5,-3,0,-1,-4,2
1523055800918967,0,0,35,6,-9,-5,-3,-2
1523055800927907,-3,-7,-10,-3,3,-3,-2,-6
1523055800927907,-3,-3,-18,1,2,2,1,-2
1523055800942530,2,0,24,4,8,1,-1,5
1523055800942530,-1,-2,0,-15,-16,0,5,-1
1523055800944489,-1,-1,-28,-6,-8,-9,-8,-7
1523055800944489,0,-5,-45,-1,23,8,2,2
1523055800965090,-4,1,64,27,-8,-8,-3,-1
1523055800965090,0,0,12,-1,9,-1,-2,-4
1523055800966508,1,4,-6,2,4,5,2,1
1523055800966508,-1,-8,-9,-10,-10,-5,-1,1
1523055800987655,0,-1,-50,-2,6,1,2,0
1523055800987655,1,0,13,-6,4,-2,-1,0
1523055800989070,-2,-3,-10,0,-6,-4,-3,-4
1523055800989070,2,8,7,3,-1,-3,-3,0
1523055801002689,1,0,1,-6,1,2,-1,-1
1523055801002689,-4,-10,16,6,-1,-1,-4,-6
1523055801004110,-2,3,2,-13,-9,-4,-2,0
1523055801004110,-1,-6,-41,2,-6,0,-1,0
1523055801025252,0,5,30,1,17,8,4,1
1523055801025252,0,-6,-18,-7,-9,3,1,2
1523055801026668,2,10,51,12,-11,-1,1,1
1523055801026668,1,-4,-37,-5,25,9,3,-1
1523055801047810,-3,-3,19,14,-4,-3,-5,-3
1523055801047810,0,8,15,-9,-5,-5,-1,-1
1523055801049258,-5,-14,-59,-8,0,-2,1,0
1523055801049258,0,4,54,3,-9,1,2,1
1523055801062766,-1,-7,-67,-19,-3,-2,-2,-1
1523055801062766,0,4,-15,-2,0,-2,0,0
1523055801064269,-5,-3,49,13,-5,-8,-7,-6
1523055801064269,2,0,35,10,1,-6,-3,0
1523055801085323,1,1,-10,1,1,6,3,-1
1523055801085323,0,2,-6,-15,-4,0,1,2
1523055801086858,-3,-5,-26,-4,5,1,1,-2
1523055801086858,-1,0,24,3,0,-3,-2,1
1523055801107735,-2,1,11,-3,-6,-4,-1,-2
1523055801107735,0,-1,-1,8,0,-2,0,-3
1523055801109148,1,2,-4,-2,8,2,-3,0
1523055801109148,-1,-3,-11,2,2,4,-1,0
1523055801122214,-1,-2,6,-5,-13,-8,0,0
1523055801122214,-1,1,-35,2,6,2,1,0
1523055801128699,-1,3,5,-8,-3,-5,-5,-2
1523055801128699,-1,-6,10,5,-6,-2,-8,-12
1523055801145245,2,3,-29,-6,-4,3,29,19
1523055801145245,-4,-7,17,12,14,6,5,6
1523055801146746,8,-3,-6,-8,-13,-16,-41,8
1523055801146746,-13,-1,-22,-6,-9,-6,-19,-33
1523055801167738,4,0,26,9,17,9,2,22
1523055801167738,10,-16,-59,-4,-6,-1,8,18
1523055801169590,-10,10,35,-2,4,10,101,6
1523055801169590,-3,17,13,8,8,7,-72,1
1523055801182244,-4,-35,-22,-5,-5,-6,-3,-6
1523055801182244,6,11,-11,-3,-10,-5,1,-5
1523055801188781,-21,-6,16,-2,-2,-5,-56,-37
1523055801188781,9,-1,-6,2,15,3,30,11
1523055801205434,-11,8,6,2,-8,-2,-10,-3
1523055801205434,14,9,40,10,32,13,8,22
1523055801206969,5,-14,-32,-1,2,-1,-1,6
1523055801206969,-7,1,-7,-6,-11,-8,17,-11
1523055801227494,5,5,2,-7,-16,-1,-10,-2
1523055801227494,-11,-14,-5,-1,1,-7,-4,-17
1523055801229390,7,22,21,4,-1,4,2,-4
1523055801229390,-2,-9,-18,-6,-10,-4,0,6
1523055801250052,2,1,2,-10,-27,-20,-8,-6
1523055801250052,-6,8,12,-4,-6,4,-3,-8
1523055801251503,0,-2,8,16,21,11,-7,7
1523055801251503,5,-9,-11,-10,-10,-2,16,10
1523055801265120,-7,-3,9,-1,-1,-8,-10,-14
1523055801265120,-4,-4,-83,-13,-8,-7,-4,-10
1523055801266622,-3,3,85,6,-9,-11,-12,0
1523055801266622,4,-4,-90,-13,-3,2,13,7
1523055801287726,-1,1,7,5,0,3,5,-8
1523055801287726,-5,-2,10,7,5,2,-10,-6
1523055801289183,3,-4,-31,-7,-2,-3,5,6
1523055801289183,0,8,109,-13,-12,-5,0,-2
1523055801301262,-2,-10,-95,0,23,7,-2,-4
1523055801301262,-2,12,116,22,-17,-5,-6,-1
1523055801310257,-3,-16,-128,-22,-19,0,2,-2
1523055801310257,3,15,-40,-6,-8,-11,3,1
1523055801325335,-2,5,73,4,24,12,-5,-2
1523055801325335,-3,0,38,-3,-13,-10,-5,-4
1523055801326803,0,-6,-26,4,10,5,2,0
1523055801326803,-5,-13,9,-12,-8,-1,1,0
1523055801347358,4,3,4,1,-14,-5,-2,2
1523055801347358,-5,-7,-37,-9,-6,-10,-5,-5
1523055801349361,-2,-8,-39,9,4,7,-2,-2
1523055801349361,-3,1,12,16,3,-6,2,0
1523055801361394,1,1,-71,-21,-25,-9,-9,0
1523055801361394,-1,5,25,23,40,16,-2,-2
1523055801370419,1,-12,-88,-37,-28,-12,-2,-2
1523055801370419,-1,-2,13,18,27,22,3,-9
1523055801385123,1,6,47,10,6,0,5,2
1523055801385123,-3,-12,-38,-26,-35,-19,0,14
1523055801386571,4,2,7,4,8,1,-2,6
1523055801386571,-1,2,55,4,-1,0,0,-2
1523055801407683,-6,-3,20,-3,-4,0,-3,-13
1523055801407683,1,3,-34,-9,6,4,1,-5
1523055801409131,-1,6,49,5,3,-2,-4,2
1523055801409131,-2,-9,-21,3,-3,-4,-1,-2
1523055801421213,-1,-1,-32,-2,5,0,2,2
1523055801421213,0,-1,10,3,-2,3,-1,2
1523055801430184,0,-2,7,2,-12,-5,1,-4
1523055801430184,0,-1,-16,-1,5,-1,0,2
1523055801445228,2,3,1,-1,4,-1,0,1
1523055801445228,-3,-5,-33,3,5,0,0,-1
1523055801446731,-1,-4,15,6,-1,0,-5,-5
1523055801446731,-1,2,-4,-6,4,0,0,5
1523055801467786,-1,0,27,6,5,1,-2,-2
1523055801467786,-1,-1,-54,14,19,11,5,-4
1523055801469291,-2,-1,25,-16,-2,-7,-5,-3
1523055801469291,-2,-11,-41,0,-8,-5,-1,2
1523055801481370,-2,-2,-21,-9,4,0,3,0
1523055801481370,2,3,14,0,-4,0,0,-1
1523055801490346,0,0,-23,5,7,4,0,1
1523055801490346,0,2,29,4,-6,-6,-7,0
1523055801504988,-2,-5,-1,-2,9,4,-1,-5
1523055801504988,-3,-1,-12,-9,-10,-6,-3,-2
1523055801506492,-2,-7,13,7,2,2,0,-1
1523055801506492,-1,0,-13,-9,-8,-3,-1,-3
1523055801527656,0,0,7,2,-4,-2,1,-1
1523055801527656,-4,-1,6,-2,-4,-7,-4,-4
1523055801529159,3,7,6,2,2,5,3,4
1523055801529159,-1,1,-6,0,2,3,0,-3
1523055801541237,1,3,-3,-2,-5,-2,0,2
1523055801541237,-2,-9,23,-1,-5,-2,-1,0
1523055801550213,1,12,-42,-6,7,4,1,-1
1523055801550213,-1,-3,18,0,-6,-2,-2,-1
1523055801565370,-3,-2,16,5,-11,-8,-8,-2
1523055801565370,0,-5,-26,-4,4,3,2,-2
1523055801566915,2,9,37,3,-3,1,3,2
1523055801566915,-1,-8,-69,-2,7,3,1,1
1523055801587477,-7,10,90,-3,-10,-16,-12,-8
1523055801587477,1,6,-38,-14,-12,-8,-3,-2
1523055801589431,-5,-16,0,8,6,1,0,-1
1523055801589431,0,0,-7,-6,-4,-2,1,0
1523055801601463,2,0,-21,-2,-4,-1,2,2
1523055801601463,-2,-2,4,0,-3,0,-3,-3
1523055801609988,-5,-6,6,-5,-5,-7,-2,-2
1523055801609988,2,14,17,0,-2,0,1,-1
1523055801625075,1,-9,-34,-3,1,6,3,8
1523055801625075,-3,-2,-5,4,6,3,9,-6
1523055801626531,8,8,42,1,3,-1,-15,9
1523055801626531,-6,-4,7,-2,-4,-2,-3,-9
1523055801647637,0,0,-6,9,11,7,4,-6
1523055801647637,18,10,-16,0,4,4,3,19
1523055801649090,-36,-16,24,-7,-8,-10,-16,-55
1523055801649090,-2,-13,-7,-2,-2,-5,6,14
1523055801661124,10,7,16,3,3,3,-12,23
1523055801661124,-17,-4,2,-2,-10,0,75,-14
1523055801670147,13,12,-15,0,4,-3,-79,-3
1523055801670147,4,-3,-3,-1,-4,-7,-3,-2
1523055801685238,-9,-11,-28,-11,-10,-4,1,-7
1523055801685238,7,-5,15,11,1,0,-3,23
1523055801686691,6,8,23,-2,-6,4,30,8
1523055801686691,-7,0,-9,-4,1,-2,-9,-17
1523055801707780,5,3,-8,-3,-27,-11,1,4
1523055801707780,-3,-1,9,19,84,27,-1,0
1523055801709257,-3,-1,-1,-6,-21,-9,17,4
1523055801709257,9,-3,-14,2,7,-4,-16,10
1523055801721331,-2,-7,-2,-11,-4,2,10,-1
1523055801721331,-5,-2,11,-7,-18,-4,-22,-17
1523055801730308,3,2,9,6,15,4,7,10
1523055801730308,-2,-6,-19,-1,3,3,9,1
1523055801745347,-5,-5,-29,-9,-9,-12,-7,-9
1523055801745347,-7,0,14,-2,-16,-16,-23,-12
1523055801746888,8,-2,-1,6,16,16,20,15
1523055801746888,-1,1,11,-3,-12,-5,1,-3
1523055801767454,-7,-9,-83,-18,9,6,-1,-12
1523055801767454,0,5,85,24,-16,-10,-21,0
1523055801769410,1,-3,-53,-18,-18,-10,11,3
1523055801769410,-3,-4,-13,20,28,15,3,-2
1523055801781457,-2,-7,-78,-30,2,3,-4,-1
1523055801781457,-1,2,60,-5,-36,-12,-7,-1
1523055801790467,-6,-10,-89,-3,21,2,3,-4
1523055801790467,0,9,65,-13,-28,-11,-4,-3
1523055801805060,0,-3,-39,-12,3,-1,-2,1
1523055801805060,-1,-7,-61,-21,-10,-3,-2,1
1523055801806509,-7,-7,-26,10,-2,-6,-3,-7
1523055801806509,0,-3,-18,-18,2,6,0,2
1523055801827602,-1,-2,2,29,2,-5,-1,-3
1523055801827602,4,5,-20,-18,-13,2,-4,1
1523055801829071,1,-4,-35,7,4,1,5,1
1523055801829071,-1,0,1,2,12,4,1,1
1523055801841157,-2,-12,-51,8,3,-1,-3,1
1523055801841157,0,22,69,-11,-8,-8,-16,-5
1523055801850126,2,-3,-20,-7,-9,0,3,3
1523055801850126,2,3,26,13,-8,1,-2,2
1523055801865243,-6,1,-8,-3,16,6,4,-12
1523055801865243,1,-15,-49,4,7,4,-1,4
1523055801866700,0,7,71,3,-13,-5,-1,-12
1523055801866700,1,-3,-29,-13,-1,-6,-12,17
1523055801887756,2,7,35,15,5,1,2,-2
1523055801887756,-3,-2,19,5,8,1,-5,-8
1523055801889262,-1,-1,4,-11,-22,-15,4,0
1523055801889262,-2,-6,-41,9,15,8,8,-8
1523055801910316,1,1,49,12,3,1,-3,5
1523055801910316,-2,0,-10,-10,-7,-5,-1,-1
1523055801911819,0,0,7,-7,2,4,1,0
1523055801911819,-1,0,-20,5,-3,-2,-3,-5
1523055801925354,-3,4,71,-12,-12,-5,-2,-1
1523055801925354,-3,-8,4,6,-5,1,-1,-6
1523055801926860,3,1,-24,6,14,8,5,8
1523055801926860,-3,0,10,-6,-13,-7,-1,-2
1523055801947462,2,6,58,6,6,3,4,-1
1523055801947462,2,5,-30,7,6,4,4,2
1523055801949445,-3,-8,7,-4,-3,-1,-3,3
1523055801949445,-1,3,24,6,-8,-2,-1,-3
1523055801969975,-2,-1,0,-2,-4,-3,0,-6
1523055801969975,0,0,-48,5,3,7,7,1
1523055801971479,-4,0,53,-5,-1,-7,-16,-1
1523055801971479,2,5,-4,-13,-8,-4,-2,-2
1523055801985170,-1,-3,-7,5,-6,-6,-2,1
1523055801985170,0,0,-10,-9,-2,-5,-5,-1
1523055801986626,2,-5,-64,3,8,5,5,0
1523055801986626,-2,2,37,-5,-9,0,3,-4
1523055802007730,-2,2,-1,0,2,2,-5,-1
1523055802007730,0,-2,-10,-5,1,-4,-2,-1
1523055802009188,-5,-17,-75,6,6,1,-1,-1
1523055802009188,0,13,81,3,-5,-5,-2,1
1523055802030293,1,1,-31,5,-6,0,5,1
1523055802030293,0,-3,-17,-12,-3,2,0,-2
1523055802031786,1,6,24,12,10,4,2,1
1523055802031786,-2,-14,-51,-21,-6,-5,-2,0
1523055802044283,-1,2,22,9,11,11,6,-2
1523055802044283,-1,-2,-10,1,-3,-7,-4,1
1523055802051422,-1,1,31,1,5,4,0,-2
1523055802051422,1,-3,-28,6,3,0,3,-1
1523055802067516,-1,-2,5,-1,3,-3,-7,-2
1523055802067516,-2,-3,26,4,2,-3,0,0
1523055802069518,0,3,3,-5,-7,-3,0,-1
1523055802069518,-3,-7,-31,-3,2,0,0,-2
1523055802090075,0,8,4,-2,0,-3,-2,1
1523055802090075,0,-2,-43,-6,-3,-2,-1,1
1523055802091529,-1,7,55,-7,-7,0,1,-1
1523055802091529,-1,-2,-22,-2,-3,0,0,-1
1523055802104624,1,-4,-21,0,-2,-3,-2,0
1523055802104624,-1,-1,9,-5,6,2,1,-1
1523055802111081,1,5,26,-2,-11,-4,-1,-1
1523055802111081,0,-3,-19,4,14,7,0,-1
1523055802127664,-3,0,-1,-3,-6,-3,-3,-1
1523055802127664,-3,-3,6,1,1,1,-1,0
1523055802129131,0,-5,-10,0,-2,-4,-1,0
1523055802129131,-1,0,-19,2,-4,-6,-2,-7
1523055802150390,3,3,37,1,3,4,0,6
1523055802150390,-6,-9,6,3,1,2,-1,-2
1523055802151857,0,6,1,-4,2,6,4,-14
1523055802151857,0,-7,1,-1,-7,-7,-7,11
1523055802164559,-6,-1,-10,-4,-9,-8,-7,-13
1523055802164559,-4,1,-4,1,0,1,-3,-3
1523055802171518,21,4,-13,-7,-3,-2,2,20
1523055802171518,-35,-5,33,8,3,0,22,-25
1523055802188112,3,9,2,1,6,2,-25,-23
1523055802188112,-3,-1,3,-5,-14,-5,-6,6
1523055802189569,7,11,-8,1,11,1,4,8
1523055802189569,4,-52,-23,-9,-18,-6,0,9
1523055802210188,-10,7,7,12,24,11,11,0
1523055802210188,-4,-1,0,-4,-8,-1,0,-13
1523055802211632,-3,10,-5,-4,0,-3,-7,-2
1523055802211632,4,4,-21,-3,-12,-8,-8,2
1523055802224661,4,-12,-2,-3,9,9,11,9
1523055802224661,11,13,11,2,4,6,2,11
1523055802231343,-9,-4,-11,-1,-11,-6,2,-11
1523055802231343,4,14,21,4,11,9,-1,1
1523055802247931,2,-9,-17,-1,7,0,-2,5
1523055802247931,-2,-5,-17,-3,-4,-11,-3,-2
1523055802249431,-7,-9,-11,-7,-14,-2,-7,-6
1523055802249431,3,10,29,4,25,11,1,-3
1523055802269988,7,22,70,24,-9,-9,-4,8
1523055802269988,2,-7,-30,-16,-2,1,8,3
1523055802271489,-6,-12,-35,1,-8,-2,-10,-8
1523055802271489,6,13,60,5,13,5,0,2
1523055802284635,-4,-13,-113,-20,-14,-1,4,0
1523055802284635,1,-4,-41,3,16,3,-3,-3
1523055802291158,-10,-6,127,21,-32,-26,-13,-10
1523055802291158,3,-2,-128,-23,6,3,-1,1
1523055802307707,-2,-11,-57,-32,-10,-7,0,2
1523055802307707,0,3,91,32,1,0,-3,-4
1523055802309158,-5,-9,-52,-30,-8,-3,1,-2
1523055802309158,1,2,-18,10,18,6,2,4
1523055802330284,0,-10,-117,-21,-23,-10,-2,0
1523055802330284,-1,8,64,16,-11,-4,-5,-7
1523055802331717,1,-1,-38,-5,1,-1,-2,2
1523055802331717,2,7,-10,27,16,13,3,-3
1523055802344360,-2,-5,-22,-23,0,-1,7,1
1523055802344360,-3,-4,5,-6,6,1,-8,-6
1523055802351439,1,4,39,22,20,5,4,4
1523055802351439,-2,-2,-31,-24,-33,-19,-20,2
1523055802367473,5,6,32,14,1,3,1,-3
1523055802367473,-1,-7,-52,6,9,5,13,4
1523055802368925,-7,5,46,-30,-22,-7,6,-15
1523055802368925,-1,-7,-57,-8,5,0,-9,-3
1523055802389982,0,5,58,11,2,-5,-8,-11
1523055802389982,-1,-4,-10,-12,-14,-7,7,9
1523055802391487,1,-7,-68,9,5,4,-8,26
1523055802391487,0,2,26,1,-1,-2,4,-8
1523055802404018,-5,-1,20,0,-8,-2,-3,-3
1523055802404018,-2,-3,-10,-5,6,0,-3,-13
1523055802412542,1,-4,-13,2,5,6,9,-2
1523055802412542,-5,-9,44,4,0,-10,-3,2
1523055802427581,0,11,22,2,-5,1,0,-4
1523055802427581,-2,-6,-38,-7,-2,0,-1,5
1523055802429086,0,6,39,6,4,5,1,-4
1523055802429086,2,2,28,-1,-2,2,5,-3
1523055802450201,0,-4,-19,2,6,-2,0,14
1523055802450201,0,-1,-22,-8,-7,-6,-4,2
1523055802451646,2,1,28,4,10,5,-1,-4
1523055802451646,-3,-2,-22,-5,-15,-3,-2,-6
1523055802463731,-7,7,106,21,-5,-11,-7,-6
1523055802463731,-2,-3,-20,-10,-13,-3,0,4
1523055802472703,2,-7,-72,5,24,10,4,-1
1523055802472703,0,2,16,-1,-6,-4,-4,-3
1523055802487781,1,-3,22,2,-1,1,-8,4
1523055802487781,-2,-2,18,-3,-6,-4,-3,-5
1523055802489246,-3,-1,13,0,0,-4,-6,-4
1523055802489246,-2,4,-10,-4,-5,-7,2,5
1523055802510304,-2,-5,-15,3,2,4,5,-1
1523055802510304,1,1,6,0,4,4,2,-1
1523055802511806,1,-3,-20,-4,4,3,27,1
1523055802511806,-2,0,36,10,-7,-12,-35,-2
1523055802523892,-1,-5,-19,-8,-2,0,2,-1
1523055802523892,2,3,6,4,4,0,-1,-2
1523055802532864,-3,-12,-22,4,6,0,-1,2
1523055802532864,1,12,10,-7,-7,1,12,1
1523055802547448,0,-4,-1,2,-4,-2,0,-2
1523055802547448,-2,-2,-32,-3,14,6,-3,-1
1523055802549410,-2,5,58,-1,-6,2,-1,-4
1523055802549410,0,2,-1,3,5,0,4,-1
1523055802570024,1,-8,-20,9,-5,0,1,2
1523055802570024,1,7,-13,-15,-4,-5,2,1
1523055802571466,-1,-5,-24,1,-9,-8,-8,0
1523055802571466,-3,-5,-8,1,7,7,4,-1
1523055802584000,1,1,-38,-11,-1,1,4,2
1523055802584000,-1,-1,21,9,2,-2,-2,-1
1523055802600041,-2,0,-9,-8,-9,-2,-7,-2
1523055802600041,2,0,14,-1,-3,-1,4,1
1523055802607611,-4,-9,-43,-5,6,1,1,-2
1523055802607611,-1,1,51,2,-5,-3,-2,-2
1523055802609066,0,2,-37,-11,-7,-1,-7,-1
1523055802609066,-3,-9,-3,6,4,5,5,2
1523055802630184,-2,-1,10,-5,-5,-3,-4,-4
1523055802630184,-3,0,30,-1,-8,-5,-1,-2
1523055802631626,3,2,17,12,6,4,-3,1
1523055802631626,-5,-6,-25,-11,-8,-9,-8,-4
1523055802643656,0,-2,13,-1,3,2,-3,-4
1523055802643656,1,-6,-24,-2,-8,-3,1,8
1523055802652682,-1,-3,-13,-2,2,-1,2,3
1523055802652682,5,3,19,5,-3,-1,-1,-6
1523055802667723,-3,0,8,-3,-4,-2,-1,1
1523055802667723,-11,-15,-29,-3,1,2,-6,-24
1523055802669226,14,9,12,-1,-1,0,2,20
1523055802669226,-16,4,-2,-4,5,0,-6,-21
1523055802690284,15,1,9,4,-15,-1,-3,12
1523055802690284,-3,-3,-4,-4,3,-4,13,22
1523055802691785,-16,-8,-13,9,-4,0,-10,-21
1523055802691785,20,-7,2,4,7,6,7,33
1523055802703864,-16,10,10,-8,-11,-16,-11,-10
1523055802703864,3,0,-8,2,1,17,18,-5
1523055802712842,2,5,-18,-9,-14,-18,-7,5
1523055802712842,-2,-2,5,3,17,5,5,4
1523055802727881,7,-5,-5,2,3,0,-2,5
1523055802727881,-2,-2,4,0,-22,-10,-17,2
1523055802729383,-7,-7,-4,-1,14,5,1,-10
1523055802729383,0,11,10,-6,-16,-1,-1,-7
1523055802749990,-3,-5,-8,-6,3,3,2,-3
1523055802749990,-2,-5,-22,5,3,-3,-6,-9
1523055802751946,1,0,1,-8,-17,-8,2,-2
1523055802751946,-5,-15,-44,-7,3,-1,-7,-5
1523055802763976,6,17,60,28,21,8,9,6
1523055802763976,0,4,-9,-2,7,-1,-4,-1
1523055802772501,3,2,18,15,16,12,2,0
1523055802772501,-6,-9,-22,-17,-25,-15,-4,-4
1523055802787589,-9,-13,-65,-31,-16,-6,-1,-7
1523055802787589,7,20,120,55,24,16,3,5
1523055802789112,-1,-9,-49,-15,10,3,-2,1
1523055802789112,3,-8,-123,0,20,14,9,1
1523055802810169,-11,9,102,22,-19,-15,-9,-16
1523055802810169,0,-10,-128,-22,-11,-5,-5,-2
1523055802811673,-1,-12,-105,-24,-31,-12,-2,2
1523055802811673,-5,5,100,33,15,5,-1,-4
1523055802832796,6,-6,-73,-21,4,8,4,5
1523055802832796,-4,-5,-41,-14,-5,-3,-1,-1
1523055802834336,-3,7,96,30,29,10,-1,-4
1523055802834336,3,4,-12,-20,-26,-6,-4,-3
1523055802847834,-3,-11,-12,10,9,1,1,-1
1523055802847834,-1,-1,-32,7,-1,-5,-2,0
1523055802849341,3,3,36,-38,-7,-3,1,1
1523055802849341,-2,0,1,3,-1,-5,-4,-3
1523055802870011,-1,-3,-6,2,-8,0,-3,-2
1523055802870011,3,4,51,26,17,8,2,4
1523055802871966,-1,12,24,-10,-12,-8,2,-3
1523055802871966,0,1,-19,-1,-2,0,-14,-2
1523055802892575,-2,-5,-62,-9,-10,-7,-3,-3
1523055802892575,-4,1,26,-14,-1,-1,-1,-6
1523055802894527,4,1,-13,21,8,7,2,5
1523055802894527,-5,0,31,-6,-13,-9,1,-7
1523055802907611,5,14,42,-2,15,11,15,-6
1523055802907611,-3,-16,-17,-7,0,-5,-16,11
1523055802909067,-1,1,12,0,-1,-7,-1,3
1523055802909067,-2,-8,-40,-6,-13,-5,2,-1
1523055802930190,-3,-4,21,10,8,-1,-5,-2
1523055802930190,-2,-1,2,-18,-8,-1,9,-7
1523055802931693,-2,10,-3,0,-12,-2,-5,-4
1523055802931693,0,-1,18,10,21,7,2,6
1523055802952755,-2,-4,1,0,-10,-4,2,-1
1523055802952755,0,1,2,-4,-6,-1,1,-4
1523055802954254,-3,-13,-59,-13,7,-1,-2,2
1523055802954254,3,15,53,18,-8,-10,-2,-2
1523055802966835,0,-3,-37,-10,-5,1,-2,-1
1523055802966835,0,2,-4,0,13,-2,-2,2
1523055802973856,-4,-7,-8,-2,-9,-1,-3,-2
1523055802973856,-2,-6,-41,-17,7,4,7,1
1523055802990351,0,5,10,6,-10,-5,-1,2
1523055802990351,-4,-5,4,-9,-13,-8,-11,-6
1523055802991854,-4,-2,-7,7,11,-2,-4,-7
1523055802991854,2,0,35,3,-9,1,4,2
1523055803012411,-3,-11,-75,-9,11,0,-2,-1
1523055803012411,0,4,15,-10,-9,-2,-2,-5
1523055803014416,-3,-1,14,11,1,8,2,-1
1523055803014416,-2,-1,-12,0,1,3,2,3
1523055803027012,1,-3,-31,17,7,4,0,5
1523055803027012,-2,-2,10,-5,-1,0,1,-5
1523055803033599,-2,-1,-4,-6,-12,-9,-5,-4
1523055803033599,-2,-3,-14,-4,-5,-4,-5,-2
1523055803050074,-2,-1,8,0,6,-3,-3,-1
1523055803050074,1,-1,-62,-8,2,8,4,2
1523055803051579,0,-1,24,6,-4,0,2,-1
1523055803051579,-2,0,-10,-20,-10,-5,-1,-3
1523055803072807,0,-3,20,3,16,2,0,2
1523055803072807,-2,-2,-6,-3,-3,-2,-3,-1
1523055803074245,3,-3,-31,0,4,4,1,3
1523055803074245,-3,2,2,1,-2,-1,0,-2
1523055803086829,0,8,46,-5,0,0,-3,-2
1523055803086829,-1,-6,-16,-6,-3,0,1,-1
1523055803093803,1,0,-6,0,0,-1,0,-1
1523055803093803,-3,1,9,8,-5,-6,-3,-3
1523055803110341,-2,-3,-7,-9,10,4,-2,-2
1523055803110341,-1,-1,-8,6,-6,-5,-1,-1
1523055803111849,-2,3,33,1,0,0,-2,-5
1523055803111849,-1,-8,-39,-3,6,-1,-3,2
1523055803132449,4,6,12,-7,-11,-2,2,15
1523055803132449,-6,-11,0,4,2,0,-3,-6
1523055803134408,-5,-4,-7,-3,1,-2,0,-6
1523055803134408,3,-2,-12,-4,1,1,0,0
1523055803146986,-10,5,30,0,-7,-8,-5,-14
1523055803146986,-1,-5,4,-4,2,1,-3,3
1523055803153994,-1,5,8,6,-7,-5,-3,-11
1523055803153994,1,5,-1,-6,-4,2,0,15
1523055803170054,0,-4,-8,2,3,2,4,3
1523055803170054,2,-5,10,2,2,-2,2,-1
1523055803171505,0,-1,-15,-9,-10,-4,-3,0
1523055803171505,0,1,18,1,-1,-3,2,-3
1523055803192614,-2,-1,-14,-3,-8,-1,-1,1
1523055803192614,0,8,-1,1,5,-2,-3,-1
1523055803194072,-3,-10,-10,-2,-9,4,-1,-2
1523055803194072,0,-2,8,6,17,10,3,-4
1523055803207154,-1,1,-17,-8,-15,-2,-1,-1
1523055803207154,4,8,23,6,9,8,4,-1
1523055803213664,-3,-13,-4,1,9,-1,-2,1
1523055803213664,0,0,-25,-2,-9,-5,-4,-2
1523055803230328,2,-3,31,-1,10,3,0,-3
1523055803230328,0,6,4,-7,-26,-10,-2,-5
1523055803231786,-1,-3,-8,-1,5,-1,-4,-3
1523055803231786,-2,1,0,13,34,6,2,-4
1523055803252392,-1,-7,22,-1,-3,-3,2,1
1523055803252392,0,-1,-8,0,-11,-6,-4,4
1523055803254347,0,2,0,-8,-7,-2,2,0
1523055803254347,-5,2,-46,-2,-17,-2,-5,-11
1523055803266932,-6,1,37,-9,1,1,-4,-6
1523055803266932,2,2,-1,2,2,-9,-5,4
1523055803273949,3,-4,-30,-1,2,5,6,9
1523055803273949,-1,-12,-63,-13,2,4,-1,-1
1523055803289991,1,1,16,-4,-16,-11,-4,-2
1523055803289991,-3,3,18,14,-4,5,0,-4
1523055803291975,-1,-1,-36,-4,-6,-2,-3,-2
1523055803291975,2,0,36,18,7,-1,2,1
1523055803312551,-2,-4,6,-6,-1,3,0,0
1523055803312551,-4,-6,-8,-13,-16,-13,-7,-6
1523055803314007,0,-2,-49,-5,23,2,2,1
1523055803314007,-2,-1,24,-10,-14,-5,0,-1
1523055803327040,3,15,62,70,-3,-4,-6,-3
1523055803327040,2,5,-105,-49,-5,-4,1,0
1523055803333556,0,-1,-32,-10,-3,3,-2,1
1523055803333556,-4,-5,-9,-3,-7,-8,-4,-4
1523055803357670,0,-9,-55,3,23,12,1,2
1523055803357670,-3,-2,15,-1,-5,1,4,-2
1523055803359124,-2,-3,24,16,-8,-5,-2,1
1523055803359124,4,15,68,-14,2,3,2,2
1523055803372712,-4,-13,-41,-12,-9,-8,-4,-3
1523055803372712,0,0,37,20,13,4,-1,1
1523055803374164,-3,-2,59,1,-3,-5,-3,-4
1523055803374164,-1,-2,-29,-8,-4,3,4,-1
1523055803386384,-2,-1,-66,-12,-6,-8,-2,-3
1523055803386384,-3,-1,30,6,0,0,-2,-2
1523055803395354,-1,-5,-17,2,4,2,3,0
1523055803395354,1,8,32,-1,-11,-6,-1,3
1523055803409932,1,-5,3,-6,4,6,3,0
1523055803409932,-2,-8,-46,10,19,8,0,-1
1523055803411900,0,5,4,-4,-6,-4,-3,-1
1523055803411900,-1,-3,29,-1,-11,-5,-4,-1
1523055803432663,-3,-10,-80,1,29,5,-1,-1
1523055803432663,-1,3,32,0,-18,-11,-3,-3
1523055803434121,-1,-7,-37,2,9,1,2,0
1523055803434121,1,4,26,-24,-2,4,1,0
1523055803446198,0,4,-21,-1,-14,-4,-1,-1
1523055803446198,0,-6,-32,-7,-11,-2,0,0
1523055803455174,0,4,53,9,20,8,2,1
1523055803455174,-6,-4,-49,1,-2,-3,6,-6
1523055803470339,3,4,9,-13,-5,-4,-15,0
1523055803470339,-2,-5,16,10,10,1,0,-2
1523055803471844,1,1,-5,-4,-13,-4,-3,1
1523055803471844,-1,-9,-18,33,14,6,2,-2
1523055803492461,-1,3,15,-18,-12,-6,-1,-6
1523055803492461,-1,-4,12,2,9,7,8,3
1523055803494404,0,-1,-10,-3,-3,-6,0,2
1523055803494404,0,-3,-17,2,-8,0,0,2
1523055803506107,-4,-3,-9,-6,-7,-5,-4,-4
1523055803506107,0,1,-8,6,-13,-1,-6,-1
1523055803515072,-1,-5,-38,-5,29,9,0,-2
1523055803515072,-4,1,29,-2,-19,-10,-6,-3
1523055803530170,1,-6,-13,0,-5,2,4,2
1523055803530170,1,10,17,-17,3,-3,-4,-3
1523055803531616,0,1,-3,-5,-13,-1,0,0
1523055803531616,-2,-14,-112,-13,-2,-4,-5,-1
1523055803552670,-1,5,70,20,1,5,5,1
1523055803552670,0,-5,-54,-5,3,-1,2,0
1523055803554174,-2,4,16,-2,-17,-9,-5,-4
1523055803554174,0,-2,-12,-4,13,1,-2,-1
1523055803566369,-1,-3,-13,1,1,2,0,-1
1523055803566369,-2,0,0,1,3,-3,-3,0
1523055803575337,0,2,7,-2,-6,1,1,2
1523055803575337,-2,2,30,-3,-8,-6,-2,-2
1523055803589943,-3,-5,-14,-9,3,0,-1,1
1523055803589943,0,0,-3,4,5,3,-2,-1
1523055803591879,-2,-8,-21,-2,-4,3,1,-1
1523055803591879,1,0,31,3,2,2,-1,1
1523055803612492,-3,-4,-16,-5,-8,-7,-2,-2
1523055803612492,-2,-2,-12,-8,1,2,-1,-1
1523055803614440,-3,-4,-1,1,-12,-8,-6,0
1523055803614440,0,0,12,2,-1,0,1,4
1523055803635045,-1,6,27,6,4,-1,1,-10
1523055803635045,8,4,25,0,-4,-1,2,16
1523055803636500,-6,-7,11,-1,-5,-5,4,-9
1523055803636500,1,17,12,6,3,-3,-16,-7
1523055803650094,-7,-15,-20,-10,-3,2,5,-7
1523055803650094,-5,1,19,-1,-5,-2,-9,-8
1523055803651539,-2,-5,6,0,-2,-5,-2,-2
1523055803651539,7,3,-9,2,1,-2,2,11
1523055803672661,-12,4,-9,-14,2,-11,-14,1
1523055803672661,-3,-8,-6,11,-11,3,6,-17
1523055803674099,-2,0,-8,-3,1,2,-2,-1
1523055803674099,0,1,1,-5,-1,2,2,3
1523055803686179,5,-1,-30,-5,-3,2,2,7
1523055803686179,-5,-8,26,-8,-2,-8,0,1
1523055803695155,2,2,-13,3,8,7,-4,0
1523055803695155,-5,-8,-25,5,-20,-3,1,-8
1523055803710195,5,13,48,2,-2,-2,-2,1
1523055803710195,1,-8,-27,-6,4,8,2,0
1523055803711700,3,8,11,1,-2,-2,2,3
1523055803711700,-4,-12,-2,-11,2,-3,-4,-4
1523055803732781,1,4,-15,8,3,6,2,0
1523055803732781,0,-7,7,3,5,2,4,4
1523055803734259,-1,2,12,-4,-13,-8,-2,-2
1523055803734259,-1,0,-22,-3,3,0,-1,-1
1523055803746341,1,-3,24,0,-9,-4,-5,-1
1523055803746341,-3,0,-25,-5,-8,-3,-2,-4
1523055803755314,2,1,50,17,13,8,2,2
1523055803755314,0,-7,-71,-10,-2,1,2,-2
1523055803770017,-1,-5,46,9,-3,-1,-1,-3
1523055803770017,4,5,-16,11,5,2,0,5
1523055803771968,-2,-7,-78,-39,-14,-2,3,0
1523055803771968,-3,4,62,27,-15,-12,-3,-4
1523055803792523,0,-5,-53,-10,5,5,4,3
1523055803792523,-1,1,1,4,2,2,0,2
1523055803794024,1,-4,-88,-20,-4,1,2,-1
1523055803794024,-5,1,29,1,5,-5,-10,-10
1523055803815133,0,-10,-53,5,-1,2,4,3
1523055803815133,-2,8,23,-40,-15,-10,-7,-4
1523055803816587,-2,-6,-25,5,-10,-9,-7,-3
1523055803816587,-2,-4,6,-10,11,6,4,6
1523055803830221,-1,-1,-41,15,5,-4,-1,0
1523055803830221,-1,2,-23,-9,-4,-6,-4,-3
1523055803831674,0,7,81,9,-3,-3,-2,-1
1523055803831674,-4,-5,1,0,9,3,-1,-2
1523055803852827,1,-6,-73,-21,2,1,-1,-2
1523055803852827,2,4,3,16,3,6,1,0
1523055803854306,0,2,24,14,0,-3,-3,0
1523055803854306,-1,-4,19,8,-10,-3,0,1
1523055803875453,0,5,-13,-15,7,3,1,-1
1523055803875453,0,-1,41,7,0,-1,3,1
1523055803876865,2,5,15,4,7,2,-2,-1
1523055803876865,1,-5,-34,-4,-1,2,2,2
1523055803890132,0,-3,9,-7,-15,-3,0,-2
1523055803890132,2,7,73,28,18,10,4,2
1523055803892104,-7,-6,-7,11,6,-4,-6,-6
1523055803892104,1,5,22,-6,-3,2,4,1
1523055803912682,0,3,41,-4,-9,-3,-3,-1
1523055803912682,1,-5,-54,-3,12,1,0,0
1523055803914605,1,-3,-27,1,-4,3,1,1
1523055803914605,2,5,24,-6,-2,-4,-2,-2
1523055803935175,-3,-6,3,3,3,1,0,-3
1523055803935175,-3,-6,-23,-5,-3,-9,-4,-1
1523055803936523,-1,3,17,-9,-3,0,-1,-1
1523055803936523,-1,-3,-22,1,4,-1,-2,-2
1523055803949757,0,-7,-33,-7,-4,2,-1,-2
1523055803949757,0,11,67,20,0,-3,-2,-1
1523055803956413,0,0,-9,-9,-9,-4,-3,-2
1523055803956413,-1,-6,-63,-7,-9,-1,0,-1
1523055803972882,0,8,39,15,33,6,2,1
1523055803972882,-2,-11,-62,-8,4,3,-3,-3
1523055803974314,0,3,30,5,-16,-8,-5,-3
1523055803974314,-1,-1,6,-9,-6,-5,-1,-1
1523055803994956,0,-9,-26,4,-5,-4,0,1
1523055803994956,0,8,45,16,0,3,1,0
1523055803996895,-2,-6,-21,-4,7,-1,1,-1
1523055803996895,-2,-4,-25,-9,1,1,-4,-3
1523055804009408,-2,3,15,-2,-10,-1,3,0
1523055804009408,-2,-7,-35,-6,9,-3,-3,-2
1523055804016488,-3,-3,8,1,-7,1,0,0
1523055804016488,1,6,23,-2,0,0,2,-2
1523055804032469,-1,-4,-10,-1,-6,-4,-5,0
1523055804032469,0,0,-6,-4,-6,-4,-6,-1
1523055804034475,-1,1,1,2,6,-1,-1,0
1523055804034475,1,-4,-41,-6,9,3,1,1
1523055804055116,-2,-4,-5,13,-4,-6,-4,-4
1523055804055116,-3,-2,11,-26,-19,-7,-2,-5
1523055804056533,1,0,1,-3,3,1,1,1
1523055804056533,-2,-7,-38,2,3,3,-2,-1
1523055804069649,4,8,26,-6,-15,2,6,5
1523055804069649,-1,-2,-13,6,14,3,-1,-1
1523055804076087,0,-11,-26,-3,-6,-1,-1,-2
1523055804076087,1,1,13,0,-5,-1,-3,-2
1523055804092629,-2,-3,-2,-5,1,-6,-6,-1
1523055804092629,0,-8,-39,-3,-7,-6,-5,-4
1523055804094133,8,14,46,2,-1,0,14,10
1523055804094133,-4,6,15,3,2,-8,-21,-8
