timestamp,emg1,emg2,emg3,emg4,emg5,emg6,emg7,emg8
1523147226445283,-2,1,-2,-2,-3,-3,-1,-2
1523147226445283,2,-3,1,1,1,2,1,2
1523147226447288,0,3,2,6,-1,-4,-2,3
1523147226447288,-1,0,-2,-1,-1,0,1,-1
1523147226459318,-1,0,-1,-3,0,-2,-1,-4
1523147226459318,-1,0,2,4,-2,-1,-1,-3
1523147226468344,-1,-1,1,1,-2,0,0,3
1523147226468344,-2,0,-9,-12,-4,-1,-1,-1
1523147226482390,-3,0,0,5,-1,0,-1,-2
1523147226482390,-1,1,-2,-4,-2,-2,-1,-2
1523147226489402,1,-1,-1,1,1,0,-1,-1
1523147226489402,0,-1,2,3,-3,-1,-2,0
1523147226505448,0,-3,0,0,0,-2,0,-1
1523147226505448,0,-2,-1,-13,-1,-1,-2,-1
1523147226507450,0,-1,-2,3,-1,-1,-2,-1
1523147226507450,0,1,-1,2,1,-3,-1,0
1523147226519483,1,2,3,1,0,2,0,2
1523147226519483,-1,-3,-5,-4,-1,0,0,-1
1523147226528503,-1,-1,-1,2,-1,0,-2,1
1523147226528503,-3,-2,-2,-2,-1,0,0,-2
1523147226542541,-4,-2,-4,-4,0,-3,-2,-2
1523147226542541,2,0,3,-1,-1,-2,-1,2
1523147226549558,-3,-2,-11,-7,-2,-2,1,-2
1523147226549558,-1,-1,-1,-2,-1,-2,-3,-3
1523147226565637,-1,-1,-2,0,-2,-2,-1,2
1523147226565637,-2,2,1,-2,-3,-2,-1,1
1523147226566610,1,0,-1,2,3,1,-1,-1
1523147226566610,-1,-1,-1,-3,-2,0,-1,-2
1523147226578686,-2,1,-1,-1,-2,-1,-2,0
1523147226578686,-1,-1,-2,-5,-1,-2,-1,-1
1523147226588668,-1,-1,1,2,-2,-2,0,0
1523147226588668,1,2,1,-6,-2,-2,1,-1
1523147226602706,0,0,-1,-1,0,1,-1,-3
1523147226602706,-1,-2,-3,2,-1,1,0,-1
1523147226608723,-2,-1,2,-3,-2,-1,-3,0
1523147226608723,-2,-2,2,3,2,0,1,1
1523147226625767,1,1,0,-5,-2,-3,-2,0
1523147226625767,-3,-2,-5,0,-1,-1,-2,0
1523147226626765,0,1,0,-2,-2,0,-2,-1
1523147226626765,-2,0,-3,0,-1,1,-1,-2
1523147226638802,1,-2,-3,-3,0,0,-1,-4
1523147226638802,-2,-1,-1,-1,-1,-3,-1,-2
1523147226647822,-3,0,2,-2,-1,-1,0,-2
1523147226647822,-2,-1,-1,0,-1,-1,-3,-2
1523147226661915,0,-3,-4,6,-2,0,-2,0
1523147226661915,1,4,2,-4,-2,0,-2,0
1523147226668935,0,-1,-1,-3,-2,-3,0,-2
1523147226668935,-1,0,-2,-1,-1,0,-1,-2
1523147226685922,1,-1,0,1,0,-3,-2,1
1523147226685922,0,0,1,5,0,-1,0,0
1523147226686926,-1,-5,1,-2,2,1,-1,-2
1523147226686926,-1,-1,-2,-8,-4,-3,-3,1
1523147226699015,-2,-2,4,2,0,-1,1,1
1523147226699015,-3,-3,-7,-6,-2,-2,0,-3
1523147226707984,-1,0,-1,1,1,-1,0,-1
1523147226707984,1,2,-4,2,-2,0,0,-1
1523147226722023,-2,0,-4,-3,-2,1,1,-1
1523147226722023,-3,-3,-1,1,0,-1,0,-1
1523147226729037,-2,-1,0,-1,-3,-1,-2,0
1523147226729037,0,0,-1,-2,-1,-2,-2,0
1523147226746139,-1,-1,-1,2,0,0,-1,-2
1523147226746139,0,0,-1,-8,-1,-2,-1,-1
1523147226747086,0,-1,0,4,-1,-1,-1,0
1523147226747086,-2,-4,-2,-1,0,-2,0,-2
1523147226759175,-2,0,0,-5,-2,-1,1,-2
1523147226759175,0,-2,2,5,-1,-1,0,0
1523147226768141,0,0,-2,0,-3,-2,-1,2
1523147226768141,0,-2,0,2,-1,1,0,0
1523147226782271,0,-1,0,-6,-2,-1,-2,1
1523147226782271,-3,0,1,4,-2,0,-1,1
1523147226789198,0,-1,-3,-10,-2,-3,-1,0
1523147226789198,-1,-4,-1,0,-2,-1,-2,-2
1523147226805240,-1,0,-1,0,0,-3,0,-1
1523147226805240,1,-2,-2,1,0,1,1,-1
1523147226807246,1,0,-3,-8,-2,1,-2,0
1523147226807246,0,1,2,4,0,-1,0,1
1523147226819340,1,2,0,1,-2,0,-1,1
1523147226819340,-1,-2,0,4,1,-3,1,-4
1523147226828302,-1,0,0,7,-1,-2,0,-1
1523147226828302,-1,1,1,-4,-2,-1,0,1
1523147226842395,0,-2,-2,-6,0,1,-2,-3
1523147226842395,-1,1,0,1,0,-1,-3,-1
1523147226849415,-1,-2,-1,3,1,-2,0,-3
1523147226849415,-3,-3,-2,-3,-1,-1,0,-1
1523147226865460,-1,0,-3,5,-1,-1,-1,0
1523147226865460,0,-2,-3,-14,-3,-1,0,-1
1523147226867408,-1,-1,1,3,0,-2,-2,-1
1523147226867408,2,1,2,-7,-1,0,-2,-2
1523147226879495,1,2,1,3,-3,-4,-1,0
1523147226879495,1,3,0,2,-1,-1,-1,0
1523147226888462,1,1,-1,0,-1,0,0,0
1523147226888462,-3,-2,0,5,-1,-2,-1,0
1523147226902561,0,1,5,0,0,-2,-1,-2
1523147226902561,-1,-3,-2,-2,0,0,-2,-1
1523147226909516,2,-1,-2,-5,-2,-3,1,-2
1523147226909516,0,5,2,2,0,0,-1,-1
1523147226925618,-2,0,-2,-3,-3,-2,-1,-1
1523147226925618,0,3,0,2,-2,-3,0,-1
1523147226926564,0,-2,0,-8,0,-2,0,-2
1523147226926564,-2,-1,0,-1,-1,-2,-2,0
1523147226939597,-1,-1,-1,-1,0,1,2,-1
1523147226939597,0,-2,-1,1,-2,-2,-3,1
1523147226948622,-2,1,0,3,-2,1,-1,0
1523147226948622,0,-2,-1,-3,1,-2,-2,-2
1523147226962707,-3,-3,-2,-2,-1,1,-2,-2
1523147226962707,0,1,1,0,-1,-3,0,-2
1523147226968732,-2,1,1,-3,-3,-1,-2,1
1523147226968732,1,0,-3,-1,-1,-1,1,-2
1523147226984780,1,-1,-2,1,-1,-1,-2,1
1523147226984780,0,0,0,0,1,1,0,-1
1523147226992738,-2,-2,-3,1,-1,-1,0,-3
1523147226992738,-1,-1,0,-2,-2,-2,-2,-1
1523147226998812,1,-1,-2,-3,0,-2,-1,-1
1523147226998812,-2,-3,-2,1,-3,0,0,0
1523147227007778,-1,-2,0,-5,-3,1,-2,-3
1523147227007778,0,1,-2,0,-2,0,0,0
1523147227021816,-2,-3,0,-1,0,0,0,0
1523147227021816,0,-1,0,0,-1,-2,-2,-2
1523147227028892,-2,0,-1,3,2,0,0,2
1523147227028892,-2,-2,-1,-1,-1,0,0,-2
1523147227045879,0,-1,-2,-2,-1,-1,0,-1
1523147227045879,-3,-1,1,-2,-1,-1,-1,-3
1523147227046884,0,1,-4,-4,-1,-1,-2,-1
1523147227046884,-1,-1,-1,-2,-2,-1,1,-1
1523147227058919,-1,0,-3,-1,0,-2,0,-2
1523147227058919,-3,-2,0,-2,-1,0,-2,0
1523147227067939,-1,0,0,-3,-1,-3,0,-2
1523147227067939,0,0,-2,-3,-1,-3,-2,-3
1523147227082036,1,0,-2,1,0,0,-2,-2
1523147227082036,1,-1,-1,-2,-2,0,0,-1
1523147227088996,0,-5,-4,-1,-2,-1,0,-3
1523147227088996,-2,-4,-2,1,-3,-1,-1,1
1523147227105042,-5,-2,0,-3,-1,0,-1,2
1523147227105042,0,-2,-2,4,1,1,1,-4
1523147227107043,-1,-2,0,-6,-2,-1,-1,0
1523147227107043,-1,-1,-2,1,-1,0,-1,-2
1523147227119137,-2,-1,-2,-1,-1,-1,-3,-3
1523147227119137,-2,-1,2,-2,-1,0,0,3
1523147227129102,-2,-1,0,6,-2,-1,0,0
1523147227129102,2,0,2,-1,0,0,-1,-2
1523147227142141,-3,-1,2,-2,-1,1,-1,0
1523147227142141,0,-1,-2,1,0,-1,0,0
1523147227150198,-1,0,1,1,-2,1,0,0
1523147227150198,-2,-3,-2,-3,0,-2,-2,0
1523147227165274,1,-1,-1,0,-1,-2,-2,-1
1523147227165274,-2,0,1,0,0,0,-2,0
1523147227171213,-3,-1,-1,-3,0,0,-2,-3
1523147227171213,0,0,-2,1,0,1,0,0
1523147227179473,1,1,2,-1,-2,1,0,2
1523147227179473,1,-2,-1,-1,-1,-4,-3,1
1523147227188654,0,-3,0,-2,-3,-2,1,0
1523147227188654,-2,-1,-1,0,-2,-2,-1,-1
1523147227202808,0,1,-2,0,-2,-3,0,-1
1523147227202808,-1,-1,-2,-5,0,-1,0,-1
1523147227208818,-2,-1,-1,-2,0,1,-2,0
1523147227208818,2,2,0,0,-1,-1,0,0
1523147227225164,-1,-2,-2,-3,-2,1,0,-2
1523147227225164,-2,0,-4,-4,-2,-3,-4,0
1523147227232178,2,1,1,4,0,0,-2,-2
1523147227232178,-2,0,0,-1,-1,-1,-1,-2
1523147227239197,0,-2,-4,-2,-2,-1,0,0
1523147227239197,1,0,-2,1,-3,-1,0,-1
1523147227247982,-2,-2,0,2,-2,-2,-2,1
1523147227247982,-1,-3,-2,-2,1,-1,0,1
1523147227270040,-1,-3,-1,-3,1,1,9,9
1523147227270040,-2,3,0,3,-2,-4,-14,-13
1523147227272045,-1,0,-2,0,-2,-2,0,0
1523147227272045,0,1,2,-1,0,0,-1,-4
1523147227285242,3,0,0,-4,-2,-1,10,9
1523147227285242,0,-1,-1,1,0,-1,-10,-3
1523147227292112,-2,1,1,0,-1,-1,-2,-10
1523147227292112,2,0,-1,1,-2,-3,-2,-1
1523147227299279,0,1,-1,-1,0,-2,-3,-4
1523147227299279,-1,-2,0,-5,-1,1,6,3
1523147227308141,1,-2,-2,0,-2,-3,0,2
1523147227308141,-4,-1,0,-1,-3,-2,0,3
1523147227322335,-1,2,-1,1,-1,-2,-3,-6
1523147227322335,-3,-1,-2,-2,-1,1,2,1
1523147227329353,0,-1,0,2,-1,-1,-2,0
1523147227329353,2,0,1,-2,-2,-1,3,0
1523147227344434,-2,0,-2,-1,-2,-3,-3,-2
1523147227344434,1,1,-1,-1,-3,-1,1,-1
1523147227351607,0,-1,-1,-1,-2,-2,0,2
1523147227351607,-1,-2,-2,-1,-1,0,-3,-2
1523147227367600,-3,0,3,-1,-2,-1,-3,-3
1523147227367600,1,-1,1,-1,0,-4,2,3
1523147227369504,-4,-1,-3,-3,0,1,0,0
1523147227369504,2,-1,-1,-1,-1,1,-2,1
1523147227382640,-1,0,-1,3,-1,-1,-2,-3
1523147227382640,0,-1,-1,-1,-2,-2,2,1
1523147227389591,-2,1,1,-1,-3,-2,-4,2
1523147227389591,0,1,-2,2,-1,0,-1,1
1523147227404595,0,2,0,-1,-1,-1,-3,-2
1523147227404595,-1,-2,0,-4,-1,-1,1,0
1523147227411713,-1,-2,-1,-4,0,-2,-2,1
1523147227411713,-1,2,1,-1,-2,1,0,-2
1523147227427655,0,-2,-2,-1,1,-1,-3,-1
1523147227427655,-2,-1,1,0,-1,0,-1,0
1523147227429663,0,2,-1,-1,-1,-1,1,0
1523147227429663,-4,-2,0,0,0,-1,-3,-1
1523147227442694,-1,-2,-1,-1,-1,-2,-3,-2
1523147227442694,2,1,-1,0,-1,-1,-1,1
1523147227448713,0,0,-1,-1,-2,1,3,1
1523147227448713,0,-1,-2,0,-3,-2,-5,-3
1523147227464755,-2,-1,-2,-2,0,-4,-1,0
1523147227464755,-2,0,-3,1,-1,0,-1,-1
1523147227471772,-2,-1,-1,-3,-1,1,0,-2
1523147227471772,1,-4,-3,-3,-1,-1,1,-1
1523147227487819,0,2,-1,-1,-3,0,-5,-2
1523147227487819,-1,-1,-1,-2,0,-3,0,1
1523147227489821,1,-1,0,0,-2,-4,-3,-2
1523147227489821,-4,1,0,0,1,-3,-1,-1
1523147227501852,1,1,1,-1,-1,-1,-1,1
1523147227501852,0,0,-1,-1,-1,-1,0,-2
1523147227508872,1,0,0,-1,-1,0,-2,-1
1523147227508872,-1,-1,0,-1,-6,-3,1,-2
1523147227524912,-2,-5,-2,-2,0,-1,-1,-4
1523147227524912,-1,-3,-1,-3,-1,-1,-1,1
1523147227531932,1,1,2,2,0,-2,-5,3
1523147227531932,0,0,-1,-2,-1,-1,-1,-2
1523147227548978,-2,-2,-1,-3,-1,1,1,0
1523147227548978,1,1,0,-1,-2,-1,0,-2
1523147227549991,0,1,0,-1,0,-1,0,-3
1523147227549991,-3,-1,0,-3,0,0,0,3
1523147227562013,0,2,-1,1,-1,-1,1,-1
1523147227562013,-1,-1,-2,-1,-2,2,-1,0
1523147227577056,0,0,0,-1,-2,-1,-2,-5
1523147227577056,0,1,-2,1,-1,-2,-2,-1
1523147227585082,-3,-2,-2,0,-1,1,-1,-1
1523147227585082,-3,-2,-1,1,-2,-2,-3,-1
1523147227592093,0,0,-1,-2,-1,0,1,2
1523147227592093,1,0,-1,1,-2,-1,0,0
1523147227608185,0,1,0,1,-1,-1,-1,-1
1523147227608185,1,-1,0,-2,0,0,-1,-2
1523147227609140,0,-1,-1,-2,0,-2,-2,-1
1523147227609140,1,0,-1,0,0,-4,-1,0
1523147227622222,1,-2,0,-2,-3,-1,0,-1
1523147227622222,0,-1,1,-2,1,-1,0,-1
1523147227629195,-1,0,-2,0,1,-1,-1,0
1523147227629195,1,-3,-2,-2,-2,0,-2,-3
1523147227645243,-2,0,-3,-1,0,-2,-3,-1
1523147227645243,-1,2,0,0,-2,-1,-4,-2
1523147227651302,0,0,-1,0,-3,-3,-1,1
1523147227651302,0,-2,0,-1,2,1,1,1
1523147227668352,-1,-1,-1,1,-1,-2,-2,2
1523147227668352,-1,2,1,1,-1,-1,-2,-1
1523147227669300,1,-1,-3,-2,-2,1,-1,-2
1523147227669300,-2,-2,0,0,-2,-1,-3,-1
1523147227682393,0,2,2,0,-2,-2,-1,2
1523147227682393,-2,-3,-2,-5,0,-3,-1,-1
1523147227689356,0,0,-1,0,-1,-1,-1,0
1523147227689356,1,1,-1,1,-1,-3,-1,0
1523147227704403,0,-1,1,-1,-2,0,-1,-4
1523147227704403,-2,0,-1,-1,-1,-3,-3,-1
1523147227711462,0,0,0,-2,-1,1,0,-1
1523147227711462,-2,2,0,-1,0,2,1,0
1523147227728467,-2,-1,-2,3,-2,-3,-2,-1
1523147227728467,0,-2,1,-3,0,0,0,0
1523147227729460,-1,-1,-3,1,-3,-4,-3,0
1523147227729460,-1,1,2,-1,0,-1,0,-1
1523147227742547,0,-3,1,-1,-2,-2,-1,2
1523147227742547,0,3,-2,1,-2,-3,0,-2
1523147227749558,-1,-2,5,0,1,1,-1,3
1523147227749558,-2,-1,-3,0,-4,-3,-2,-1
1523147227764608,2,1,-5,-1,-1,0,-2,-3
1523147227764608,-1,-2,-4,-2,-3,-1,-2,-1
1523147227771576,1,1,10,2,-1,-2,0,-2
1523147227771576,-2,-4,-21,-7,0,-2,-1,-2
1523147227787654,-1,-2,-1,0,-2,-2,2,3
1523147227787654,4,1,2,3,-2,0,-2,-5
1523147227789622,-3,1,-8,-8,-1,-2,-1,3
1523147227789622,2,0,6,1,1,-1,-1,-2
1523147227802703,0,2,2,1,0,0,-2,-1
1523147227802703,-1,0,-4,-2,-1,-2,0,-1
1523147227808724,-1,-3,-2,3,1,-1,-1,-1
1523147227808724,-2,0,2,1,-1,-1,-4,-2
1523147227824767,-2,-4,-3,-6,2,0,2,-2
1523147227824767,-2,0,1,1,-2,0,0,1
1523147227831786,-2,-1,-2,-1,-2,-1,-1,-3
1523147227831786,-3,-3,-1,-3,1,1,0,0
1523147227855800,-1,0,0,1,-2,-2,-2,-3
1523147227855800,-3,-1,0,-2,0,0,0,1
1523147227857802,-1,-1,-3,-3,-1,0,0,1
1523147227857802,0,-2,-1,-1,-4,-3,-1,-4
1523147227861862,0,2,1,0,0,-2,-2,0
1523147227861862,0,-2,-2,-3,-2,-1,0,0
1523147227870842,-12,2,-5,0,0,-1,-1,-1
1523147227870842,-2,0,1,-2,0,0,-3,-2
1523147227884926,-5,-5,2,1,-5,-3,-3,0
1523147227884926,-1,-2,-1,-4,0,-2,-3,-3
1523147227891942,2,-2,0,-2,0,0,0,-2
1523147227891942,-3,-1,3,1,-2,-1,0,0
1523147227907985,-2,3,-3,-3,0,0,-3,0
1523147227907985,3,-2,3,4,1,-3,1,2
1523147227909940,-3,-11,-1,-1,-1,-3,-1,-1
1523147227909940,-2,5,-5,-2,0,0,-2,-4
1523147227921975,1,-4,-1,-2,0,0,-2,-4
1523147227921975,-2,-7,-3,-4,0,-1,1,2
1523147227931001,2,4,2,-2,-1,0,0,-2
1523147227931001,-2,-1,-1,-1,-2,0,2,0
1523147227945086,-1,-1,-1,0,0,0,1,-1
1523147227945086,-1,3,0,2,0,-2,-2,1
1523147227952102,1,0,0,-2,-2,-1,-1,-1
1523147227952102,-1,-4,-1,-5,-2,-2,0,-1
1523147227968094,1,5,0,-1,-2,-2,-1,-1
1523147227968094,-2,2,0,0,-2,-1,0,1
1523147227970102,1,0,-1,-2,0,-1,-3,-2
1523147227970102,1,-3,0,0,-2,-1,1,2
1523147227981130,1,0,3,1,0,-2,0,-1
1523147227981130,-2,-1,-1,-2,0,-1,-2,-1
1523147227990151,0,-3,-1,-1,0,-1,1,0
1523147227990151,1,3,2,2,-1,-1,-4,0
1523147228005193,0,-1,-3,-2,0,0,-2,-1
1523147228005193,-2,2,-1,-2,-1,1,-1,-3
1523147228011208,1,-1,4,-2,0,-1,0,1
1523147228011208,-2,-1,-5,0,-1,-2,-2,-1
1523147228028255,-1,-1,0,-3,-2,-2,1,-3
1523147228028255,0,-2,0,1,0,0,0,-1
1523147228029257,-2,1,-2,0,-1,-2,-2,-2
1523147228029257,1,-3,-1,-3,-3,0,0,-2
1523147228041529,-3,1,-2,-2,-2,0,1,-1
1523147228041529,2,0,0,2,-1,-1,1,-1
1523147228050407,-1,0,-2,-1,-5,-2,1,-2
1523147228050407,-1,0,1,0,0,0,-1,-2
1523147228064386,1,-2,-2,-1,0,1,0,2
1523147228064386,-1,-4,-3,1,-1,-1,-2,0
1523147228071369,0,1,-2,-2,0,0,-1,-1
1523147228071369,-2,-1,3,0,-2,-2,1,0
1523147228087411,1,-1,0,1,-1,-1,-1,-1
1523147228087411,-2,0,1,-4,-1,-1,1,-1
1523147228089415,0,1,-1,1,-1,-1,-3,-1
1523147228089415,1,0,-1,0,-2,-1,1,1
1523147228101649,0,0,2,-1,1,-4,-1,0
1523147228101649,-1,0,1,0,-1,-1,-2,0
1523147228110472,0,2,-2,1,-1,2,2,-1
1523147228110472,2,-2,1,0,-2,-2,-4,0
1523147228124567,-3,-2,-3,0,-2,-1,1,-1
1523147228124567,-1,1,0,-1,-1,-3,-1,1
1523147228133534,1,-2,2,0,1,0,-2,-2
1523147228133534,-1,-1,0,-1,-1,0,-1,-3
1523147228147618,1,0,-1,-2,-2,-1,-2,-1
1523147228147618,-1,1,-1,-1,-2,-2,-2,3
1523147228154592,-1,1,-1,-1,-4,-1,-1,-2
1523147228154592,2,-2,-1,-2,0,-2,-1,1
1523147228161610,-10,1,-1,0,-3,-1,-1,-2
1523147228161610,2,2,1,-1,-1,-1,-3,-2
1523147228170641,-2,-2,0,-2,-2,-3,-1,0
1523147228170641,-3,0,-3,0,1,0,1,-1
1523147228184780,1,1,1,-1,1,-1,-3,-5
1523147228184780,-3,-2,-3,-2,-1,1,0,-1
1523147228191833,-2,-4,-2,-1,-3,-2,0,0
1523147228191833,0,0,-1,0,0,-1,0,-3
1523147228207791,3,-2,-1,-4,-2,1,-1,2
1523147228207791,-1,-2,-2,-2,0,-1,0,-2
1523147228213891,0,1,0,1,-2,-1,-2,-2
1523147228213891,-2,-3,0,0,1,-3,1,-1
1523147228221913,-1,-1,-2,-3,0,0,3,6
1523147228221913,1,4,-2,0,-4,-1,-3,-7
1523147228230793,1,0,0,-1,0,0,-1,2
1523147228230793,-3,-3,-3,-2,1,-1,1,0
1523147228244947,1,1,-1,0,-1,-2,-4,-8
1523147228244947,1,-1,-3,-1,-1,-1,1,3
1523147228251933,-2,-3,-1,-2,1,2,4,-5
1523147228251933,-2,2,1,0,-4,-2,-8,-10
1523147228266889,1,0,0,0,3,0,2,2
1523147228266889,-2,-2,1,-1,1,-1,0,0
1523147228273961,-1,-5,-17,-2,-3,-3,0,2
1523147228273961,-2,-5,2,-1,-1,0,-2,1
1523147228290004,-2,1,-2,-2,-4,-2,-3,-2
1523147228290004,1,-4,-6,0,-2,-1,0,-1
1523147228291957,0,1,8,-5,0,0,-6,-1
1523147228291957,1,0,0,-2,-1,-2,0,2
1523147228304993,0,-2,4,-1,-1,-1,2,-1
1523147228304993,-2,-8,-19,-2,-3,-1,-2,1
1523147228313017,1,6,13,4,-2,1,0,2
1523147228313017,-3,2,3,-2,0,-2,-2,-2
1523147228327053,0,-3,-4,4,-1,-1,-2,3
1523147228327053,1,1,0,-7,-1,-2,-2,-6
1523147228334122,-2,-1,-1,5,2,-1,-1,-1
1523147228334122,0,-2,-2,-2,-1,0,4,4
1523147228350170,-1,-1,1,-1,-1,0,-2,-2
1523147228350170,-2,0,3,-5,-3,-2,0,-1
1523147228352117,-3,-3,-2,-3,0,-2,-1,-1
1523147228352117,1,1,-1,5,0,-3,-4,-9
1523147228365205,0,0,-4,2,-1,-1,5,9
1523147228365205,0,2,5,-1,1,-2,-3,-7
1523147228379239,-2,-2,-5,-3,0,-1,2,6
1523147228379239,-1,0,-3,0,-2,1,-3,1
1523147228387221,3,1,0,-6,-3,0,-1,-2
1523147228387221,-1,-1,3,8,2,0,-1,3
1523147228394231,0,-2,-3,-15,-3,-2,-3,-1
1523147228394231,1,-1,1,5,1,-1,-1,-2
1523147228410418,-3,-3,1,3,1,0,-3,-2
1523147228410418,-1,0,7,12,3,2,0,-1
1523147228412368,-2,1,-6,-21,-9,-4,-2,-5
1523147228412368,-2,0,-3,-6,1,-2,0,1
1523147228424453,-2,2,2,-2,-1,-2,-2,-3
1523147228424453,0,-1,2,13,-4,-1,2,2
1523147228431469,-2,-1,-1,9,-1,0,-4,-2
1523147228431469,1,0,3,-2,-4,0,2,2
1523147228447461,-2,-3,-4,-16,-2,-1,-2,-4
1523147228447461,-2,1,0,4,1,-1,-1,1
1523147228454481,2,-1,-3,-7,-3,-1,1,-9
1523147228454481,-2,-2,-3,-5,-3,-3,-2,-3
1523147228470523,0,0,-8,10,-1,-1,0,-1
1523147228470523,-2,1,1,-10,-2,-3,-3,-2
1523147228472528,-1,-2,0,8,3,0,-1,1
1523147228472528,-2,1,-2,-2,-3,0,-1,0
1523147228484684,2,0,4,1,-3,1,0,-1
1523147228484684,-2,-3,-4,-4,0,-2,-1,-3
1523147228491700,-1,0,3,0,2,-2,1,7
1523147228491700,0,3,1,32,-2,-1,-3,0
1523147228507621,-3,-4,-4,-22,-4,-1,-6,0
1523147228507621,-1,0,0,-3,1,3,1,-3
1523147228513759,1,2,2,18,4,0,1,-1
1523147228513759,1,-1,-1,-15,-4,-4,-4,0
1523147228530806,-1,-4,-8,-45,-7,-4,1,-2
1523147228530806,2,3,2,19,-1,-2,-2,5
1523147228531743,-1,-2,-4,20,0,-4,-4,-1
1523147228531743,1,-1,2,-2,13,2,3,2
1523147228544844,3,5,-2,5,-8,-3,7,7
1523147228544844,2,0,1,-2,1,0,-15,-7
1523147228551860,-1,-2,-1,-9,-3,2,0,-8
1523147228551860,-2,-2,-5,-10,-2,0,2,7
1523147228567782,1,-2,1,14,5,-1,1,-3
1523147228567782,-3,1,-3,-4,-4,-1,1,6
1523147228573854,-2,0,-5,-30,-9,-4,-4,0
1523147228573854,1,-1,-1,0,-1,-3,-2,0
1523147228589896,-2,-1,6,44,8,1,0,-3
1523147228589896,4,3,4,-43,-2,2,4,2
1523147228596916,-4,-5,-9,-13,-4,-6,-7,-6
1523147228596916,-2,-2,-2,-7,-3,0,2,0
1523147228604937,-2,-1,1,12,3,-3,-4,-2
1523147228604937,-2,-6,3,-33,-1,-1,2,-3
1523147228611956,1,-1,-11,-2,-8,-4,-3,4
1523147228611956,-2,-1,-2,-6,-2,-2,2,2
1523147228626996,-2,-1,3,13,4,1,-12,-10
1523147228626996,2,-1,-3,16,0,0,1,0
1523147228634014,0,2,2,-12,-4,-2,0,2
1523147228634014,-2,-4,2,23,3,0,1,-5
1523147228650057,-1,-2,-7,-36,-9,-2,0,0
1523147228650057,-2,1,-1,24,-4,-2,1,-1
1523147228657058,-2,-7,-3,-6,2,3,1,-1
1523147228657058,7,-4,-5,-16,-4,-1,-3,-7
1523147228664094,-6,4,9,21,12,-1,-1,3
1523147228664094,0,-3,-5,-39,-10,-3,0,2
1523147228673064,0,5,4,24,8,0,1,-1
1523147228673064,-1,1,3,6,-1,1,-1,1
1523147228687097,-1,-3,-6,-12,-8,-2,1,-3
1523147228687097,0,1,-3,-5,-2,-1,0,4
1523147228694174,-1,2,3,-1,-2,0,-1,-7
1523147228694174,-3,0,1,6,2,1,-2,-1
1523147228733282,3,-1,9,10,7,3,1,2
1523147228733282,-2,-7,-18,-9,-17,-8,-4,-3
1523147228736230,1,4,4,7,10,0,0,-1
1523147228736230,0,2,-1,8,1,1,-1,4
1523147228746313,-1,-3,-1,11,1,-1,1,-1
1523147228746313,2,2,3,-27,-4,0,-1,-2
1523147228755332,-1,-4,-1,-6,-1,-2,-2,0
1523147228755332,-4,-3,-5,-15,-8,-4,2,1
1523147228770322,-2,-2,2,-1,-2,1,-1,-3
1523147228770322,-3,-3,-4,-8,1,-1,-1,-3
1523147228772326,1,-3,9,-1,-3,3,1,-4
1523147228772326,-4,2,-20,-6,-5,-6,-6,1
1523147228785414,2,3,-2,-9,-4,-2,1,-1
1523147228785414,-1,7,7,24,5,1,1,4
1523147228787364,0,-1,0,-2,2,1,0,3
1523147228787364,1,-1,4,-52,-13,-1,0,-2
1523147228799458,8,8,-2,-6,2,-3,-2,4
1523147228799458,2,2,-1,23,1,-4,-2,0
1523147228800399,1,5,6,11,0,1,-1,4
1523147228800399,4,12,10,25,2,2,3,6
1523147228814435,6,0,-2,13,-1,-1,-1,5
1523147228814435,-5,12,10,-17,-8,1,2,0
1523147228821507,5,4,8,12,2,2,-1,4
1523147228821507,2,8,-4,-14,5,-6,-7,3
1523147228837501,3,8,5,-6,-1,-2,1,1
1523147228837501,7,7,5,31,-8,-2,0,6
1523147228839509,0,13,2,2,-2,-5,0,2
1523147228839509,5,9,15,57,2,2,6,8
1523147228860622,3,9,-7,17,-5,-5,-10,0
1523147228860622,6,14,7,1,1,-3,0,6
1523147228861563,8,5,3,-16,-18,3,1,1
1523147228861563,-20,12,-8,-13,-4,-5,-4,2
1523147228874599,-1,11,0,-2,1,-1,2,6
1523147228874599,7,6,1,20,1,-1,-1,9
1523147228881674,6,10,10,5,2,0,1,4
1523147228881674,-3,7,3,-33,-7,-1,5,4
1523147228897719,10,13,1,-56,-20,-4,-4,2
1523147228897719,4,9,4,17,11,-1,-1,0
1523147228899664,6,11,4,-4,0,-3,-1,6
1523147228899664,11,8,11,55,0,3,0,2
1523147228920755,1,11,4,-12,4,-2,2,5
1523147228920755,5,2,1,-23,4,-3,-4,-2
1523147228921727,3,8,1,13,0,-2,-1,2
1523147228921727,4,5,8,45,11,3,0,-2
1523147228933815,-1,2,0,-61,-43,-3,0,-2
1523147228933815,8,10,-4,34,39,-5,-3,3
1523147228942828,-2,1,-1,19,-4,-4,-2,-2
1523147228942828,5,-2,5,-8,11,-2,-3,-6
1523147228957877,3,-2,0,14,-1,5,4,1
1523147228957877,-3,4,2,13,7,-1,0,1
1523147228963893,-5,-4,-8,-36,-16,-5,-4,-5
1523147228963893,-13,8,13,50,10,2,-2,-1
1523147228987900,-1,-3,-10,-5,-6,-3,0,-1
1523147228987900,-6,-10,-3,-10,-6,1,1,-6
1523147228989905,-3,-3,-4,10,6,-3,0,1
1523147228989905,8,-3,-1,-1,-7,0,-2,-1
1523147228993973,-3,-2,9,19,7,2,-1,-3
1523147228993973,-6,-5,-8,30,-10,-4,-3,-3
1523147229002939,1,-5,-6,14,-1,-1,-1,-1
1523147229002939,6,-4,-8,-19,-1,-3,-3,-1
1523147229018039,-2,-1,4,-7,3,1,-1,0
1523147229018039,2,-1,7,21,0,1,2,-2
1523147229019984,-5,-8,-7,-55,-3,0,-2,-3
1523147229019984,1,-4,-10,-33,-4,-3,-2,-3
1523147229040096,-4,1,1,27,10,-2,-1,0
1523147229040096,-3,-3,4,-5,-9,3,-1,-3
1523147229042043,-4,-4,1,17,5,-1,0,-4
1523147229042043,2,-6,-4,-58,-4,2,-2,-6
1523147229054078,-1,-2,-7,19,4,-4,-2,1
1523147229054078,-1,-3,0,5,-16,1,1,-1
1523147229063100,1,-3,-2,4,9,-4,-3,1
1523147229063100,-1,-4,-7,-53,-12,-5,-2,-4
1523147229078140,-2,-3,5,38,3,3,1,-1
1523147229078140,-1,-1,-4,10,-3,-1,-2,-3
1523147229079146,-2,-3,1,-12,-1,1,0,-3
1523147229079146,-2,-5,-5,-27,-5,-3,-2,-3
1523147229100259,-2,-3,-2,7,5,-3,-1,-4
1523147229100259,-6,-6,-4,-45,-7,-1,-1,-4
1523147229102204,-2,3,2,23,2,1,1,-3
1523147229102204,0,-3,0,19,-4,1,-1,1
1523147229114294,-3,-1,-4,-19,-2,-3,-3,-3
1523147229114294,-1,-2,0,-4,2,1,0,-1
1523147229123297,1,3,-2,5,-3,-1,0,2
1523147229123297,-1,-1,1,11,-1,-2,-1,-2
1523147229138350,0,-2,-3,-9,0,-2,-1,1
1523147229138350,-2,-2,3,-4,-3,-1,0,0
1523147229139301,-2,0,-6,17,2,-5,-1,-1
1523147229139301,0,0,-5,-29,-7,1,0,-1
1523147229160472,0,-1,-3,11,5,1,-1,0
1523147229160472,0,0,1,-5,-2,0,0,-2
1523147229162363,-4,-3,0,-9,-4,-1,-2,-1
1523147229162363,-3,-3,0,22,2,-3,-2,-3
1523147229174507,1,-1,1,-3,-1,-2,0,-1
1523147229174507,-2,-3,-2,-10,1,-1,1,0
1523147229183419,-2,0,-3,2,-5,-1,-1,-2
1523147229183419,1,2,4,5,6,1,-3,0
1523147229197566,1,-9,-6,-68,-14,-3,-2,-5
1523147229197566,1,4,0,23,2,-3,-1,2
1523147229199462,-1,0,3,0,1,0,-1,1
1523147229199462,-2,1,-1,14,-2,-1,0,-1
1523147229220519,1,1,10,44,8,1,2,1
1523147229220519,-1,-4,-24,-74,-23,-6,-6,-4
1523147229222525,1,-2,-2,10,1,-1,-2,-1
1523147229222525,2,0,2,13,1,-1,-3,0
1523147229234610,-3,1,1,34,1,0,-4,-2
1523147229234610,0,-1,2,-19,-2,0,1,1
1523147229243579,1,0,0,0,-2,0,1,-1
1523147229243579,0,-1,-1,-4,-5,-5,-3,-2
1523147229257726,0,3,1,10,0,-1,0,2
1523147229257726,-3,-3,0,11,1,0,0,-1
1523147229259621,1,-1,-5,-5,1,-1,0,-1
1523147229259621,-2,1,2,33,0,0,1,-2
1523147229280730,0,2,-2,-40,-6,-2,-4,-2
1523147229280730,-1,-3,1,7,2,-3,-2,-2
1523147229281681,0,-1,2,6,1,-3,-1,-5
1523147229281681,0,-3,-2,14,-3,-1,1,1
1523147229293815,-3,-4,-7,19,-6,-3,-1,-5
1523147229293815,-1,0,-2,0,0,1,-2,-3
1523147229302737,-3,-3,-3,-7,-5,-3,-3,-4
1523147229302737,-2,-3,-2,-1,2,-1,0,-2
1523147229317886,3,-3,-5,-7,-6,-1,-3,-3
1523147229317886,-5,-5,0,20,5,0,-1,-4
1523147229319782,-8,-8,-8,-40,-4,-3,-3,-6
1523147229319782,-4,-9,-5,-9,2,-2,-3,-3
1523147229339834,-7,-12,-8,-4,-2,-2,-1,-7
1523147229339834,-6,-7,-6,-1,0,0,-2,-4
1523147229341839,-6,-10,-5,0,-1,1,0,-4
1523147229341839,-4,-12,-9,-20,3,1,0,-5
1523147229354095,-6,-10,-5,3,3,2,2,-1
1523147229354095,-6,-10,1,-15,5,3,1,-4
1523147229362931,-5,-9,-3,10,5,2,1,-3
1523147229362931,-8,-10,-3,-1,1,1,-2,-4
1523147229378157,-6,-6,-2,13,1,1,0,-3
1523147229378157,-3,-8,-5,8,3,-2,-1,-4
1523147229379941,-2,-7,-1,-1,2,3,-1,-3
1523147229379941,-2,-4,0,1,1,1,1,-2
1523147229400181,-6,-8,-4,8,3,-1,0,-3
1523147229400181,-1,-4,-3,-13,-3,0,-1,-3
1523147229401999,-1,-6,-1,-8,-5,-3,-1,1
1523147229401999,-2,-4,-4,-2,-4,-1,0,-2
1523147229414186,-2,-4,-3,-12,-1,0,-1,1
1523147229414186,-1,-4,-1,36,2,2,1,1
1523147229423057,-11,2,-5,-26,-8,-2,-2,-1
1523147229423057,0,-3,-1,-9,-5,-2,-1,-1
1523147229438194,-1,-1,0,-5,4,0,0,1
1523147229438194,-1,2,0,3,-2,-3,-1,0
1523147229439203,2,-1,4,28,4,0,1,0
1523147229439203,0,4,1,-4,-1,-2,-1,-2
1523147229460253,-2,1,-1,12,3,-2,-1,1
1523147229460253,1,4,-3,-67,-10,-4,-2,0
1523147229462161,4,0,-2,14,2,1,0,4
1523147229462161,1,6,-1,-9,-5,-2,-1,0
1523147229474283,4,6,6,-2,4,-1,1,3
1523147229474283,1,4,4,20,1,2,0,2
1523147229483215,2,3,1,-3,0,-1,1,0
1523147229483215,4,1,-5,-11,-2,-4,-2,1
1523147229498361,2,5,3,7,-2,0,-1,1
1523147229498361,1,5,4,6,0,-1,2,3
1523147229499258,1,6,1,-11,-1,-2,-2,6
1523147229499258,1,4,7,18,-1,-1,0,2
1523147229520413,1,5,0,3,-2,-2,-1,2
1523147229520413,3,5,0,-5,-3,0,-1,0
1523147229522323,1,5,2,14,0,0,0,1
1523147229522323,3,7,3,6,-1,-1,0,2
1523147229534427,3,6,-1,-13,-7,-4,-1,3
1523147229534427,0,2,1,17,-1,-4,-4,1
1523147229543377,3,4,3,8,-1,1,1,1
1523147229543377,1,7,-2,-12,1,0,-1,3
1523147229558450,0,6,3,-11,-3,-2,-2,5
1523147229558450,3,8,5,15,0,-2,1,1
1523147229559420,2,7,0,-8,-4,-2,-1,3
1523147229559420,2,4,2,-3,-5,-4,-1,5
1523147229579726,5,7,5,11,1,-1,0,3
1523147229579726,2,6,3,-4,-1,-1,-1,1
1523147229580624,3,2,-1,-9,-3,-1,2,-1
1523147229580624,0,6,1,-2,-3,-1,0,2
1523147229602683,3,6,6,4,-1,0,0,2
1523147229602683,0,0,-6,9,-1,-1,-3,2
1523147229603684,3,4,2,15,-1,-1,1,0
1523147229603684,2,4,6,20,1,2,0,3
1523147229617723,3,2,0,-26,-4,0,-2,-2
1523147229617723,4,8,5,1,2,-2,0,2
1523147229617723,1,6,3,-1,-4,-3,0,4
1523147229617723,2,3,1,6,1,-2,1,-3
1523147229639886,2,5,-2,-8,-2,-1,0,-1
1523147229639886,3,3,3,-4,-2,-2,0,3
1523147229640784,0,2,0,0,4,-2,-2,-1
1523147229640784,2,5,0,-2,-2,-2,-3,2
1523147229662949,0,3,0,-14,-6,-4,-1,-2
1523147229662949,0,1,0,-5,-4,0,0,0
1523147229663844,0,2,3,0,0,-5,-4,0
1523147229663844,-5,2,-7,16,-5,-3,-4,-3
1523147229676981,-1,-1,3,18,0,0,0,-2
1523147229676981,-3,-1,-7,-39,-4,-1,-1,-4
1523147229677883,1,0,1,23,3,0,-1,-1
1523147229677883,-1,-2,2,-1,-3,-2,-2,-8
1523147229725007,-3,-7,-5,1,0,-3,-3,-6
1523147229725007,-2,-5,-1,17,1,-1,-2,-2
1523147229727012,0,-5,-3,-9,-2,-1,-1,-5
1523147229727012,-4,-8,-4,-19,-1,-1,0,-1
1523147229731130,-6,-8,-7,10,6,2,1,-4
1523147229731130,-3,-6,-10,-48,-11,-5,-2,-5
1523147229732026,-5,-8,-8,-13,-3,-1,-3,-4
1523147229732026,-5,-12,-5,3,1,1,-2,-4
1523147229734031,-4,-7,-3,-8,1,1,0,-2
1523147229734031,-5,-10,-4,12,4,2,-2,-5
1523147229737087,-7,-13,-7,-11,-2,0,-2,-8
1523147229737087,-5,-11,-5,2,-1,0,0,-5
1523147229752081,-5,-7,-3,-14,-2,-2,-3,-7
1523147229752081,-2,-3,-2,-1,-1,-3,1,-2
1523147229753082,-4,-3,-5,9,-3,-2,-3,-4
1523147229753082,-1,2,-3,-6,0,-4,-3,2
1523147229768122,0,1,0,1,-1,-3,1,1
1523147229768122,-1,0,1,6,-1,1,0,0
1523147229774238,1,-3,-2,2,-1,-1,0,0
1523147229774238,1,-1,0,0,-3,-2,1,1
1523147229799204,-2,-1,5,27,1,-1,-2,-1
1523147229799204,-1,-1,-9,-53,-5,-2,0,-1
1523147229799204,-3,-5,-7,-23,-7,-1,-3,-2
1523147229799204,-2,0,-5,-9,1,-1,0,-2
1523147229812349,0,-2,-2,3,-3,0,0,-1
1523147229812349,2,1,7,27,2,2,0,-2
1523147229813241,-3,0,1,-9,-2,-2,-2,0
1523147229813241,-2,-4,-2,-10,-1,2,0,-2
1523147229828280,-2,-1,1,-5,0,0,0,-2
1523147229828280,0,-1,1,19,-1,-3,-2,0
1523147229834296,0,-1,-2,-10,-1,1,-1,1
1523147229834296,0,1,3,5,-6,-2,0,-2
1523147229850339,-1,0,-3,-7,1,-3,-3,0
1523147229850339,-3,-1,-2,7,-2,8,1,-1
1523147229856456,0,4,1,5,-4,-5,-3,-2
1523147229856456,-1,-2,2,4,3,1,-1,0
1523147229872499,-2,-1,0,-3,-6,-3,0,-3
1523147229872499,-2,-1,-3,2,-1,-2,-1,-3
1523147229873415,2,7,8,6,5,1,2,2
1523147229873415,5,7,-5,-21,-11,-6,-3,3
1523147229888442,2,7,2,8,-1,1,2,4
1523147229888442,4,4,4,12,5,-1,-2,0
1523147229894532,1,6,4,12,-10,-3,0,0
1523147229894532,2,4,3,-1,11,3,-1,0
1523147229910501,4,8,1,9,0,1,-1,4
1523147229910501,1,8,5,14,-12,-7,-2,3
1523147229916617,1,4,0,4,13,3,4,4
1523147229916617,4,4,4,-10,-13,9,3,1
1523147229932665,5,14,4,-8,-23,-14,-5,3
1523147229932665,1,6,3,7,5,-2,-2,3
1523147229933561,1,4,1,2,-3,-3,-1,-1
1523147229933561,1,4,5,4,14,1,0,3
1523147229954724,0,0,-5,-8,10,5,2,4
1523147229954724,5,6,2,12,-28,-8,0,3
1523147229955619,1,5,2,-10,4,0,-2,2
1523147229955619,0,5,3,17,1,-3,1,2
1523147229970660,3,5,5,-18,-2,-1,0,2
1523147229970660,0,5,2,18,9,-2,-2,3
1523147229976782,2,3,0,14,-2,2,0,3
1523147229976782,2,6,2,16,-7,-6,0,2
1523147229991824,2,5,2,-18,2,0,-3,0
1523147229991824,1,3,2,-5,3,-3,1,2
1523147229998736,2,4,6,0,-4,-1,2,3
1523147229998736,-2,2,-2,-16,-12,-3,-1,-1
1523147230007758,-1,4,5,33,8,-1,0,3
1523147230007758,-2,-1,-9,-28,-4,-2,-3,0
1523147230013878,2,5,0,-3,-1,-2,-4,-1
1523147230013878,2,4,5,7,-2,-4,-3,0
1523147230030821,3,4,-3,-4,-3,-1,-2,-1
1523147230030821,2,4,5,6,2,1,0,0
1523147230036943,-2,1,-1,-29,-5,-1,1,-2
1523147230036943,0,-1,-4,7,-3,-4,-3,-4
1523147230051878,-1,-3,-2,-8,-5,-3,-2,-2
1523147230051878,-1,-2,1,21,5,2,1,-3
1523147230059001,-1,-2,1,11,3,-2,-2,-3
1523147230059001,-5,-5,-8,-45,-8,-3,-1,-3
1523147230067918,-3,-2,-5,17,1,-1,-2,-4
1523147230067918,-3,-5,-6,-24,-1,-1,-2,-5
1523147230074038,1,0,-1,5,-3,0,-1,0
1523147230074038,-2,-2,1,9,2,-1,0,0
1523147230090982,-3,-4,0,21,3,-4,-2,-3
1523147230090982,-1,-2,-1,-38,-12,2,2,1
1523147230096998,0,4,-10,-1,-18,-4,-3,1
1523147230096998,0,0,2,18,8,0,-3,-3
1523147230112036,-2,-3,-5,-12,-2,-1,-1,-2
1523147230112036,-1,1,2,18,6,-4,-2,-1
1523147230119056,-1,-5,0,2,2,-3,-2,-1
1523147230119056,-2,-2,-4,-11,-2,0,-1,0
1523147230128080,2,2,3,6,-13,1,3,2
1523147230128080,0,3,1,-3,2,0,-1,-2
1523147230134095,-2,-3,-1,0,0,1,-3,-1
1523147230134095,-2,0,0,0,6,-2,-1,0
1523147230150137,-3,-2,1,-16,1,2,0,0
1523147230150137,1,-1,-2,20,-6,0,0,1
1523147230156155,-3,-1,-2,-2,3,-1,-2,-2
1523147230156155,2,0,4,5,-3,-2,0,0
1523147230180348,0,-1,-1,-6,2,0,-3,-2
1523147230180348,-1,-1,-3,-11,-4,-1,2,2
1523147230180348,0,-1,5,8,3,-2,-2,-2
1523147230180348,1,0,1,11,-1,2,-1,1
1523147230202276,-3,-5,-3,-16,6,-2,-2,0
1523147230202276,-2,-2,-2,5,-5,0,-1,2
1523147230203280,0,-1,1,5,-1,-4,2,-1
1523147230203280,-1,-2,-2,-16,-6,-2,-2,-2
1523147230217316,-1,1,-1,5,2,-1,0,-2
1523147230217316,1,0,3,12,9,1,-1,-1
1523147230218320,-2,-2,-6,-11,-7,2,-1,0
1523147230218320,0,3,-2,-11,-12,-7,-4,-1
1523147230239576,-1,-4,1,4,1,1,0,1
1523147230239576,-1,3,0,-9,-1,-3,-2,-1
1523147230240376,-1,-3,0,4,3,-3,-1,-2
1523147230240376,-3,-3,-2,18,5,7,2,1
1523147230262640,4,3,0,4,-14,-3,1,1
1523147230262640,-3,-2,4,-4,8,0,-1,-2
1523147230263452,-2,-2,-6,-7,-1,-2,0,1
1523147230263452,0,-2,0,2,3,-2,-1,-1
1523147230277632,-4,-2,-3,-4,6,-1,-4,-4
1523147230277632,3,0,0,8,-11,-1,-1,-1
1523147230277632,-1,1,2,-4,4,-1,-1,0
1523147230277632,0,0,-2,-6,-2,-1,0,-1
1523147230299702,-2,-1,-2,8,-5,-1,0,0
1523147230299702,-1,-1,-3,0,9,1,2,-1
1523147230300537,2,2,0,-20,-4,0,-2,-1
1523147230300537,-2,-2,-3,12,-3,-1,-2,-1
1523147230322741,-1,-4,1,-4,4,2,0,0
1523147230322741,0,-3,-4,-10,-3,-3,-3,-1
1523147230322741,1,2,2,10,-7,-4,0,-1
1523147230322741,-1,-3,1,-9,14,4,0,-1
1523147230337767,2,2,-8,-21,-8,0,-3,-2
1523147230337767,-1,-2,2,1,-2,-2,-2,-1
1523147230337767,-2,-3,-3,5,-2,-1,-1,-1
1523147230337767,0,2,0,5,-2,-4,-2,-3
1523147230359857,1,2,6,11,3,-3,-1,1
1523147230359857,-1,-4,-5,-16,0,0,-1,-2
1523147230360698,-3,-3,-3,-3,1,-5,-3,-2
1523147230360698,1,1,-1,-6,-3,9,4,2
1523147230382757,-1,0,-2,-4,0,-2,-1,-2
1523147230382757,0,2,-1,5,-5,-1,-2,0
1523147230382757,-1,0,3,10,4,-5,-4,-4
1523147230382757,-1,-3,8,-8,4,0,0,-1
1523147230397797,0,1,-21,0,-20,-4,-2,-1
1523147230397797,1,2,-3,-22,5,-2,-1,1
1523147230397797,0,2,-1,7,3,4,-1,-1
1523147230397797,-2,-3,2,2,-4,-5,-2,-2
1523147230420018,-3,-4,1,10,3,2,0,0
1523147230420018,-1,3,1,10,-1,-3,0,-1
1523147230427042,-1,-3,-5,-28,-10,-2,0,1
1523147230427042,-4,1,-1,12,4,-5,-4,-1
1523147230442076,0,-4,-8,-9,0,5,1,1
1523147230442076,1,4,7,25,-4,-2,0,-3
1523147230442917,1,1,0,-25,1,3,0,0
1523147230442917,0,6,1,-2,-5,-6,-3,1
1523147230456955,-2,-11,4,6,16,-1,-2,-3
1523147230456955,-2,-7,-11,-2,-11,-1,-1,-3
1523147230465144,-3,-4,-4,-11,2,2,-1,-3
1523147230465144,-1,0,-5,4,0,0,0,0
1523147230480177,0,5,8,-6,-2,-5,-3,-3
1523147230480177,-2,-5,4,10,7,1,0,1
1523147230480177,0,-1,2,5,3,0,-1,0
1523147230480177,0,-3,-10,-29,-12,-4,-2,-2
1523147230502075,-1,3,5,12,-5,3,2,-2
1523147230502075,1,2,0,-5,-4,-2,-2,1
1523147230503076,-2,3,-1,-5,-2,0,1,0
1523147230503076,0,-4,-1,4,11,0,-2,-2
1523147230517113,-3,-8,-4,-10,-6,-4,-3,-2
1523147230517113,-3,-2,-6,6,-7,-2,-2,-1
1523147230518117,-3,-5,-2,-9,9,5,0,-3
1523147230518117,1,0,-4,1,-32,-10,-2,2
1523147230540263,-2,0,0,-4,11,1,-1,-1
1523147230540263,-2,-2,-5,-9,3,-4,-2,-1
1523147230540263,0,-2,-2,16,-10,0,-1,-1
1523147230540263,0,-2,-5,-8,8,2,1,-1
1523147230562369,1,1,1,4,-8,-4,0,-3
1523147230562369,-2,-2,-7,-14,0,0,-1,-5
1523147230563238,-1,-7,-1,1,-9,-5,-2,-1
1523147230563238,-3,0,4,10,0,0,-2,-1
1523147230576271,4,1,-3,-16,-1,1,0,5
1523147230576271,-1,0,2,8,3,2,-1,0
1523147230584295,0,12,8,1,-1,-1,-1,-1
1523147230584295,-2,-8,-2,6,15,-3,-1,-1
1523147230599470,-1,-3,3,18,-16,7,3,1
1523147230599470,0,-3,-1,10,9,-3,-3,0
1523147230600334,1,3,0,-8,-3,2,0,3
1523147230600334,1,3,6,3,6,-3,-1,-3
1523147230630552,-3,2,6,3,5,-2,-2,-3
1523147230630552,-2,-10,-8,-2,7,9,1,-1
1523147230631418,-2,-1,-12,-3,-21,-8,0,0
1523147230631418,-1,-1,-2,-9,3,1,-2,-2
1523147230636564,0,2,0,-1,-2,-5,0,-1
1523147230636564,-1,4,4,13,-4,4,1,0
1523147230644584,0,-3,-4,-18,1,-5,-2,-4
1523147230644584,-1,4,-1,-5,-3,3,2,1
1523147230659630,0,-2,-1,28,-1,-3,-2,0
1523147230659630,-2,-1,-3,-17,-1,-3,-5,1
1523147230660496,0,-2,1,5,5,3,-1,0
1523147230660496,0,1,4,10,-10,-5,-2,-1
1523147230682692,0,-2,-6,-2,20,1,-1,1
1523147230682692,0,-2,-3,10,-29,1,2,0
1523147230682692,0,-2,-6,-17,1,-7,-2,1
1523147230682692,-1,0,2,-4,-2,0,0,-1
1523147230696807,-3,-1,-4,-3,6,-3,-1,-1
1523147230696807,1,4,8,20,4,-5,-1,0
1523147230704829,-2,-4,-2,-16,-3,6,0,1
1523147230704829,-1,-7,-5,2,0,-2,-1,-1
1523147230719886,-3,0,-8,-19,-5,-6,-3,-1
1523147230719886,-2,0,0,-4,1,-2,-1,-3
1523147230720656,-2,2,9,20,-3,0,-1,-1
1523147230720656,0,2,-2,32,9,4,1,-1
1523147230742864,0,2,-6,-45,-12,-3,-3,-1
1523147230742864,2,0,5,-14,0,-2,1,1
1523147230742864,-1,1,2,21,10,1,1,-2
1523147230742864,-3,-1,5,0,-8,2,-1,0
1523147230756780,0,-1,-4,1,6,-2,1,1
1523147230756780,0,4,-1,-10,1,-4,-2,-2
1523147230764928,-1,-2,0,-5,-2,-1,1,-1
1523147230764928,-1,-4,-5,2,-7,-3,0,0
1523147230779957,-1,-5,5,9,6,3,-1,-2
1523147230779957,-2,-3,-11,-16,6,-2,-3,1
1523147230780816,1,-2,1,15,5,1,-1,-3
1523147230780816,0,-2,-3,-13,-3,-2,-2,-3
1523147230801875,-3,-2,-5,12,-4,-2,-2,-1
1523147230801875,-2,4,4,5,4,-3,-1,0
1523147230802876,-5,-3,-8,-32,-4,3,-1,-3
1523147230802876,0,1,1,-13,-11,-2,-1,-3
1523147230816912,0,-6,-7,-24,-2,0,-1,1
1523147230816912,1,0,4,8,-7,-3,-1,-1
1523147230824934,-3,-6,-8,9,-1,-3,-1,-2
1523147230824934,-1,-1,0,-4,4,0,-1,-2
1523147230840045,-2,2,4,-6,-5,-3,-4,-3
1523147230840045,-2,-4,-3,-21,2,3,-1,-4
1523147230840977,0,1,1,12,-13,2,0,2
1523147230840977,1,-5,-4,-5,6,-1,-1,4
1523147230862099,-1,3,4,8,-6,-3,1,-2
1523147230862099,0,-3,-10,-3,3,-1,-1,-1
1523147230863041,-1,2,5,4,2,-2,-1,-1
1523147230863041,-1,-5,-3,21,2,1,0,-3
1523147230877072,-2,-1,1,-27,-2,1,-1,-1
1523147230877072,0,0,3,7,-10,-1,0,-1
1523147230885094,0,-1,-6,-5,2,-5,-3,-1
1523147230885094,-2,0,-3,-30,-2,1,0,0
1523147230899206,-1,-1,6,20,6,-1,-1,-1
1523147230899206,-1,1,1,-5,2,1,1,0
1523147230907229,1,0,3,12,-1,-1,-3,-1
1523147230907229,-1,-3,-1,-4,0,-1,-2,-1
1523147230922264,1,-2,-7,7,-9,1,1,0
1523147230922264,-2,-2,0,-4,0,-1,-2,-1
1523147230923195,-1,-5,-1,5,0,-2,0,-2
1523147230923195,-1,1,-2,-12,2,-2,-3,1
1523147230945256,-1,-1,4,10,-2,-1,-3,0
1523147230945256,-1,-3,-6,-10,-5,-3,-1,-2
1523147230946258,0,-2,-3,12,4,0,0,-1
1523147230946258,-1,4,0,2,-3,-1,-1,-2
1523147230959359,1,1,1,6,0,-2,-1,0
1523147230959359,-3,-5,-1,21,2,1,-2,-2
1523147230960295,-1,2,0,-24,0,-4,-1,1
1523147230960295,0,0,1,11,-4,-3,1,-3
1523147230982435,-3,-3,-1,3,-3,2,1,-2
1523147230982435,0,-1,-3,8,-3,-3,-2,-2
1523147230983357,2,0,6,13,2,-1,0,-1
1523147230983357,-5,-4,-10,22,1,-1,-1,-2
1523147231005481,0,1,0,-33,3,0,-2,-2
1523147231005481,0,-3,-1,-10,-1,-1,-1,0
1523147231006416,0,-1,-2,10,-7,0,-1,0
1523147231006416,0,1,3,-10,0,-1,0,0
1523147231019497,-1,2,1,2,-8,-5,1,1
1523147231019497,-2,-11,-14,-20,3,3,0,0
1523147231020456,-2,0,-1,-3,-6,-4,-4,-4
1523147231020456,-1,-3,-2,6,-2,-1,-1,-2
1523147231042579,0,2,-1,-12,-1,-2,-1,2
1523147231042579,-1,-1,5,-4,-1,-2,0,-1
1523147231043517,-1,-1,-1,14,8,0,1,2
1523147231043517,0,-2,-3,2,-2,-2,0,-1
1523147231065650,-2,1,-1,-1,5,1,0,-2
1523147231065650,0,-2,0,-7,-11,0,-3,0
1523147231066576,-1,-1,-3,10,7,-1,-1,1
1523147231066576,0,0,1,-9,-6,-3,-1,0
1523147231079683,1,0,-3,12,-3,-2,-1,-1
1523147231079683,-2,-1,5,-7,5,1,2,-4
1523147231080616,1,2,2,-4,1,-2,-3,0
1523147231080616,-2,-1,-3,-23,-9,-2,-1,-1
1523147231102675,-3,-7,-3,6,-2,-6,-4,-1
1523147231102675,-1,1,-3,4,6,3,-2,1
1523147231102675,-2,-3,0,-7,-2,2,2,1
1523147231102675,0,-1,2,7,4,-3,-3,0
1523147231125801,0,0,3,12,-11,0,-2,-1
1523147231125801,1,5,-5,-34,-8,-6,-4,0
1523147231125801,-1,-5,-3,-1,5,-3,-2,-3
1523147231125801,-1,2,0,19,-8,3,2,0
1523147231139839,1,3,0,0,3,2,1,0
1523147231139839,0,-4,-2,-3,-4,-4,0,-2
1523147231140776,-1,-2,-3,-1,4,-1,0,-3
1523147231140776,-1,-2,-4,-9,-2,-4,-3,-1
1523147231161942,1,0,3,12,2,3,1,-2
1523147231161942,0,6,3,-1,3,-1,1,-2
1523147231162835,2,5,4,-7,-6,0,-2,0
1523147231162835,-2,-7,1,23,6,2,-1,-2
1523147231185895,-2,-5,-12,-36,-8,-4,-1,0
1523147231185895,0,-2,-7,0,6,1,0,0
1523147231186896,0,-1,2,6,-3,-3,0,-1
1523147231186896,1,4,4,0,-4,1,0,0
1523147231199972,0,-1,3,-4,-3,-5,-2,-3
1523147231199972,-2,-2,-2,-1,8,1,-1,-1
1523147231200937,-1,-2,-7,-14,-23,-3,0,-1
1523147231200937,-1,0,-1,-3,10,1,-1,-2
1523147231222036,-1,0,-1,-4,0,-2,0,-1
1523147231222036,-1,-6,-2,5,3,1,-3,-3
1523147231223000,-2,-1,-2,-8,-8,-1,0,-3
1523147231223000,-2,1,-2,-15,-7,-4,-1,0
1523147231245102,-1,-5,-5,18,4,5,0,-1
1523147231245102,1,2,0,-6,-5,-4,-2,1
1523147231246064,-3,-4,1,-7,4,-2,-2,-1
1523147231246064,1,0,-3,-1,1,0,-1,0
1523147231260151,-1,4,9,-2,-6,-3,0,-2
1523147231260151,-2,-2,-4,24,-4,-2,-1,1
1523147231260151,1,-1,-8,-4,20,6,-1,0
1523147231260151,-2,0,0,-13,-11,-3,-2,-2
1523147231282215,-2,0,1,26,10,1,-1,-1
1523147231282215,0,-2,-2,-7,-14,-6,-1,0
1523147231283153,0,3,4,-3,-3,-1,2,0
1523147231283153,2,-2,1,8,-4,2,1,0
1523147231305269,-4,-7,-10,-11,7,3,-1,-2
1523147231305269,0,-2,-4,-3,-3,-3,-2,-1
1523147231306215,0,0,8,11,0,-2,-1,-2
1523147231306215,-3,-5,-11,-21,3,-4,-1,0
1523147231320251,1,4,0,0,-3,-3,-2,2
1523147231320251,2,2,7,7,-2,-1,1,0
1523147231320251,-1,-4,1,-3,-3,-3,-2,-1
1523147231320251,-3,-2,-3,21,-9,-4,-1,-2
1523147231342366,0,-1,0,-10,10,6,1,1
1523147231342366,-2,2,3,-5,2,3,0,-1
1523147231343313,2,0,-1,5,-2,-2,-1,0
1523147231343313,-3,-5,-3,-19,-1,-1,-3,0
1523147231365374,2,3,0,10,-7,-3,0,-1
1523147231365374,-1,-5,6,21,1,-2,0,-1
1523147231366374,-1,5,0,-24,6,5,-1,0
1523147231366374,1,-6,2,9,-11,0,2,3
1523147231379477,-3,3,-5,-17,0,-2,-3,-3
1523147231379477,0,-10,-4,-2,-3,-1,-3,-2
1523147231380415,-1,10,4,3,1,-4,-2,-3
1523147231380415,1,2,11,1,10,3,-1,-2
1523147231402471,-3,-11,-11,8,-4,0,-2,-1
1523147231402471,-3,-8,-14,-18,-1,-5,-4,-1
1523147231403478,-1,1,-1,3,-4,1,-1,1
1523147231403478,2,5,6,-10,7,1,-2,-3
1523147231425536,2,-2,-6,14,-5,-4,-1,2
1523147231425536,-2,10,8,22,-7,-2,-1,1
1523147231426534,-3,-12,-5,17,-3,0,0,-1
1523147231426534,1,3,6,8,5,1,-1,2
1523147231439624,-3,-8,-6,3,-3,-3,-2,-3
1523147231439624,-2,-1,-7,13,3,0,1,-2
1523147231440572,-3,0,-4,-20,-6,-4,-1,-1
1523147231440572,0,4,5,10,5,0,1,-1
1523147231462670,-1,0,4,7,-5,3,4,3
1523147231462670,2,2,4,-24,-3,-1,-3,-2
1523147231462670,1,-2,-2,30,1,3,0,0
1523147231462670,-2,-3,-7,-34,-3,-6,-4,-2
1523147231485693,-2,-1,4,-9,2,-1,0,1
1523147231485693,0,2,6,0,1,0,0,-2
1523147231486695,-4,-6,-12,-3,-9,-6,-3,-2
1523147231486695,0,-1,-7,12,3,0,0,-2
1523147231498730,0,4,7,-1,12,-2,1,1
1523147231498730,-1,-6,-9,-30,-11,2,0,0
1523147231507755,0,-4,3,5,6,-1,-1,-2
1523147231507755,-1,1,-9,-2,0,1,-2,-1
1523147231521843,1,3,2,4,-1,-3,-2,1
1523147231521843,-1,0,2,3,1,-2,0,-1
1523147231522793,-1,-1,-3,-14,-3,-3,-2,-2
1523147231522793,0,-2,-3,-5,-7,-1,1,1
1523147231545855,-2,-1,2,24,1,-1,-1,-1
1523147231545855,-1,-2,-2,-10,-1,-1,-1,1
1523147231545855,-1,-3,-4,-7,-6,-2,-1,-2
1523147231545855,-2,1,1,5,0,-2,-2,-2
1523147231558889,0,1,-1,-10,1,-1,-5,-5
1523147231558889,-1,-2,0,12,0,3,3,0
1523147231566907,-1,0,-2,-6,-9,-6,-2,2
1523147231566907,-1,-9,0,14,5,0,-1,-1
1523147231582006,0,-2,-3,-29,-9,-5,-3,-1
1523147231582006,0,2,4,20,5,-1,-1,-1
1523147231582954,-1,1,3,-18,1,0,-1,-2
1523147231582954,-1,-1,-12,-6,-2,-1,-1,-2
1523147231605065,-1,-2,2,-4,-4,3,-1,1
1523147231605065,0,3,-2,-6,-5,-4,1,-1
1523147231606011,1,-4,-3,-3,-3,-1,-1,-2
1523147231606011,-5,-3,3,10,8,4,0,-1
1523147231619051,1,-1,-3,-21,-15,-6,1,1
1523147231619051,0,0,1,6,5,-1,-1,-1
1523147231627124,-2,-2,-2,2,-5,0,0,0
1523147231627124,0,3,3,-18,-2,-3,-2,-2
1523147231642168,2,-1,4,18,9,1,-1,-2
1523147231642168,-3,-2,-5,1,-2,1,0,0
1523147231643113,0,0,4,-9,-5,-3,0,-2
1523147231643113,-2,2,3,3,-1,-1,0,0
1523147231665234,-1,0,-3,18,1,0,1,-1
1523147231665234,0,-4,2,6,6,1,-2,-2
1523147231666176,-1,-4,-4,14,7,0,-2,1
1523147231666176,0,-1,-5,-11,-11,-5,-2,-2
1523147231679286,0,-2,-1,-5,-1,-2,0,-1
1523147231679286,0,1,2,6,2,0,-3,-3
1523147231687287,0,1,-5,5,-3,-2,-1,-1
1523147231687287,1,-1,0,3,4,3,1,0
1523147231702270,0,-1,-2,1,0,-3,-2,0
1523147231702270,1,1,-5,-21,-4,-3,-2,0
1523147231703271,-2,-4,2,-1,1,0,-2,-4
1523147231703271,-1,0,0,5,0,-2,-3,0
1523147231725385,-1,1,-2,-15,-4,-1,0,0
1523147231725385,-1,0,-3,-9,-4,-1,-1,-1
1523147231726336,1,-5,-12,16,4,3,1,1
1523147231726336,1,0,17,-29,-2,-1,-1,-2
1523147231739423,0,3,4,8,-3,2,-2,0
1523147231739423,-1,-9,4,6,2,2,1,0
1523147231747447,-2,-2,-8,-21,-5,-3,-2,1
1523147231747447,-1,-5,-9,33,2,-1,0,-1
1523147231762489,-2,-1,1,-15,-3,-2,-2,-3
1523147231762489,0,0,-1,12,1,1,0,0
1523147231763432,0,0,14,3,4,1,0,2
1523147231763432,-2,0,-31,-42,-21,-7,-4,-1
1523147231785496,-2,2,12,6,1,-1,0,-4
1523147231785496,-1,3,-6,6,-4,-2,-3,0
1523147231786493,1,2,-3,4,4,0,0,-1
1523147231786493,0,1,3,-16,-1,-1,-1,0
1523147231799527,4,-2,-1,-5,-2,0,-2,0
1523147231799527,-12,0,-4,-14,-8,-3,-2,-3
1523147231807593,0,1,5,9,2,2,0,1
1523147231807593,0,0,9,8,1,-2,-1,-1
1523147231822651,0,-3,-11,2,1,-2,-1,1
1523147231822651,2,0,5,-12,-2,3,1,1
1523147231822651,0,-5,-11,-17,-7,-3,-2,-2
1523147231822651,-2,0,-2,3,1,-3,0,1
1523147231845715,-2,-4,-5,8,0,-1,-1,-1
1523147231845715,0,1,2,14,-3,-3,-2,0
1523147231846654,-2,-1,-2,-33,-5,-1,0,-1
1523147231846654,1,1,2,5,1,0,-1,1
1523147231867713,-2,-4,-6,-11,-2,-2,-2,-3
1523147231867713,0,-1,1,-5,0,-1,-1,-1
1523147231868714,-1,1,-1,13,3,1,-3,-2
1523147231868714,-2,-2,2,18,2,1,2,0
1523147231882748,-2,1,-2,-17,-2,1,-2,-1
1523147231882748,1,0,-6,-13,-2,-2,-1,0
1523147231882748,-3,0,5,5,-2,-2,-1,-2
1523147231882748,-2,-3,-9,-4,1,-1,-1,-2
1523147231905839,-2,1,-2,7,-2,-2,-1,2
1523147231905839,3,1,6,14,5,-1,-1,0
1523147231905839,0,-2,-4,-27,-4,-3,-1,-2
1523147231905839,-2,-1,2,5,0,1,1,-2
1523147231927933,-2,-5,0,-5,1,0,1,-1
1523147231927933,-4,-3,-4,11,-2,-2,-2,0
1523147231928876,-1,0,2,-9,-1,-1,-1,1
1523147231928876,-2,0,1,12,2,2,1,2
1523147231941965,2,0,-1,0,-2,-3,-1,-1
1523147231941965,0,-1,1,-4,1,1,-1,-2
1523147231942911,0,1,-2,7,-1,0,1,-1
1523147231942911,-2,-1,-3,-13,-3,-2,-2,-2
1523147231965970,-1,-3,-1,3,-1,-2,-1,0
1523147231965970,0,-1,1,-7,0,-2,-3,0
1523147231965970,-2,1,1,17,1,-1,-1,0
1523147231965970,-3,-5,-7,3,1,-1,0,-2
1523147231988088,-3,0,-5,-20,-2,-1,-2,0
1523147231988088,-1,-1,2,-18,-2,0,-1,0
1523147231989031,-3,-2,-4,-12,-2,-2,-2,1
1523147231989031,0,-2,-3,2,-2,-2,-2,-2
1523147232002069,0,3,11,21,1,-1,-1,-3
1523147232002069,0,-1,-5,-3,-2,-1,1,-2
1523147232003069,3,-1,1,4,-2,2,0,-2
1523147232003069,-1,0,1,9,3,-1,-3,4
1523147232025190,-2,1,-3,-6,-3,-2,-2,-1
1523147232025190,-1,-1,5,7,1,1,0,-2
1523147232026130,-3,-3,-5,1,1,-1,-1,-2
1523147232026130,-1,-2,-2,-21,-2,-2,0,0
1523147232048253,-1,-4,-6,-14,1,0,-1,0
1523147232048253,-2,-4,-2,14,-2,-2,-1,-3
1523147232048253,-3,0,2,5,-5,-1,-2,0
1523147232048253,2,1,4,20,-1,0,-1,-1
1523147232062233,-2,1,-5,-31,-2,-1,-1,0
1523147232062233,-1,1,-10,-4,0,-2,0,-1
1523147232063232,0,-3,0,5,0,-1,0,-1
1523147232063232,-1,-1,-3,-5,-3,-1,-2,0
1523147232085348,1,-1,4,18,-1,1,1,0
1523147232085348,-1,-2,-2,-6,-4,-2,-1,-1
1523147232086289,2,-3,-7,-19,0,-3,1,1
1523147232086289,-3,-2,-5,-8,-4,-2,-1,0
1523147232108352,-2,4,3,11,0,0,-3,-2
1523147232108352,0,-2,-6,-8,1,0,-2,1
1523147232108352,3,-2,-3,-10,-3,-2,-3,-3
1523147232108352,2,-2,1,3,2,0,-1,-3
1523147232122450,1,-1,-2,4,-4,-2,1,0
1523147232122450,-4,1,3,18,0,-1,0,0
1523147232123390,-1,1,0,-6,-3,1,1,-1
1523147232123390,1,-2,-5,-17,-5,-2,-3,-4
1523147232145500,-2,0,-4,4,-1,-2,-2,1
1523147232145500,2,-1,3,2,1,-2,-1,0
1523147232146451,-3,0,5,16,1,-1,-1,-1
1523147232146451,-2,-1,-3,-7,-4,-2,-1,0
1523147232167659,-2,-4,5,9,-2,-1,2,-2
1523147232167659,-2,-3,-7,-20,-3,-1,-2,-2
1523147232168507,-4,0,5,23,2,-1,-2,1
1523147232168507,-3,0,-3,-7,-2,-2,-1,-2
1523147232182544,-1,-2,-2,3,0,-1,-2,-2
1523147232182544,-1,-1,3,17,1,-1,1,0
1523147232182544,5,-1,-5,-16,-4,-1,-1,-3
1523147232182544,-4,1,5,6,-2,0,-1,0
1523147232205850,-1,-1,-1,1,-1,-2,-3,1
1523147232205850,-1,1,-4,-9,-4,0,-1,0
1523147232206610,-2,-2,-4,21,3,1,-1,-1
1523147232206610,3,2,-1,-10,0,-2,-2,1
1523147232227911,-1,-1,4,2,0,1,0,1
1523147232227911,-1,0,-2,5,1,-2,-1,0
1523147232228668,-2,-1,-3,-9,-1,1,-1,-1
1523147232228668,0,0,-2,10,1,-1,1,1
1523147232242228,-1,-1,4,9,-2,-2,-3,1
1523147232242228,-1,3,1,-14,-4,-1,-1,-4
1523147232242992,-2,2,0,10,3,0,1,-1
1523147232242992,2,1,8,2,-1,1,-1,1
1523147232265162,-2,-6,-10,-4,-1,-2,-1,-4
1523147232265162,0,-7,-15,-1,-2,-1,-1,2
1523147232266057,-4,5,-4,-13,-1,-3,0,0
1523147232266057,-2,6,1,-3,-2,-1,-3,-4
1523147232295205,0,-18,-6,-6,1,0,-3,-4
1523147232295205,-1,2,3,8,1,-2,-2,1
1523147232296136,0,-4,-5,-3,-4,0,-1,0
1523147232296136,1,6,5,1,3,0,3,0
1523147232302210,1,5,0,-1,-1,-1,0,1
1523147232302210,-3,0,4,-8,-1,0,-2,-2
1523147232303156,2,-1,7,11,0,-2,-1,-2
1523147232303156,-2,-3,-4,-32,-5,0,0,-2
1523147232325272,0,6,0,-12,-3,-4,-1,1
1523147232325272,-1,-5,3,3,-1,-1,-1,-1
1523147232326216,-3,5,2,8,-1,0,-2,-3
1523147232326216,-2,-14,-4,21,1,-2,-4,0
1523147232348342,-2,-2,-2,-18,-2,0,0,-1
1523147232348342,-2,-1,-1,-1,-2,-2,-1,-1
1523147232348342,-2,-2,2,3,0,-2,-1,0
1523147232348342,-1,-2,-3,1,-2,-3,0,1
1523147232362375,-2,2,0,-1,0,-2,-1,0
1523147232362375,-1,0,-2,1,-2,-2,0,-1
1523147232363313,-1,-2,-1,-5,0,-1,0,1
1523147232363313,-2,-3,-5,-3,-1,-1,-2,0
1523147232385432,0,-3,-5,-1,-5,-2,-3,-3
1523147232385432,2,7,2,7,0,0,-1,0
1523147232386374,0,-6,-5,-17,-4,-3,0,-1
1523147232386374,3,0,2,10,1,2,0,1
1523147232407495,-2,-2,0,0,-1,-2,-2,-1
1523147232407495,-1,-3,-3,-8,-1,-1,-1,0
1523147232409469,-3,-3,1,-2,-3,-1,-2,-2
1523147232409469,3,1,3,10,1,-1,0,-2
1523147232421528,1,4,-3,-36,-5,-2,1,-2
1523147232421528,-1,-2,1,9,3,-1,-1,0
1523147232430494,0,0,-3,-25,-7,-2,-2,0
1523147232430494,-5,0,-1,17,4,-1,-2,-1
1523147232445597,-3,0,-2,9,0,1,-1,-2
1523147232445597,-2,-2,-2,-11,-4,1,-2,-3
1523147232446534,1,0,7,9,0,-2,0,1
1523147232446534,-4,0,-8,-9,-4,-2,0,-1
1523147232467651,1,-1,2,9,0,0,-1,0
1523147232467651,1,0,-3,-9,0,-1,-2,0
1523147232469596,-5,-3,-6,9,-1,-1,-1,-3
1523147232469596,1,0,4,-4,-2,-3,-1,-1
1523147232481692,2,1,4,11,2,2,0,2
1523147232481692,-2,0,2,4,-3,-3,-1,-1
1523147232490651,-1,1,-3,-1,0,0,-2,-2
1523147232490651,-1,-2,-1,-7,-1,-1,0,0
1523147232505694,-2,1,3,8,0,-2,0,0
1523147232505694,1,-2,-1,1,-3,0,-1,-1
1523147232506695,0,-4,-3,-4,-4,0,-2,-3
1523147232506695,0,-1,4,-5,-3,1,-2,0
1523147232528813,-1,-2,-1,8,3,0,0,-1
1523147232528813,-1,1,0,6,-1,0,1,3
1523147232530760,0,-3,-7,-21,-1,-4,-3,-2
1523147232530760,0,0,2,0,-2,-1,-1,-1
1523147232541848,-2,0,-1,16,-1,0,-2,0
1523147232541848,-1,-4,-5,-39,-5,-3,-2,-3
1523147232550813,-1,0,5,19,1,-1,-1,-3
1523147232550813,0,0,3,-4,-3,0,0,0
1523147232564909,-2,-3,-12,-6,-1,0,-2,-2
1523147232564909,6,1,1,7,-1,0,1,1
1523147232572876,-2,0,1,-8,-1,1,0,0
1523147232572876,-2,-2,-10,4,-3,-2,-3,-1
1523147232587968,1,1,6,7,-1,0,2,-1
1523147232587968,-2,-2,-8,-14,-1,-2,0,-1
1523147232589918,0,-2,-1,15,0,1,1,-2
1523147232589918,-4,-2,-5,-40,-7,-5,-4,-1
1523147232602002,0,1,2,15,1,2,-2,-1
1523147232602002,-3,-1,-4,-10,-5,-2,0,-1
1523147232610972,0,0,5,-5,-6,-4,0,1
1523147232610972,0,2,-1,10,3,2,2,-1
1523147232625009,0,2,9,2,-4,-3,-2,0
1523147232625009,-5,-7,-11,-3,-3,-2,-3,-4
1523147232627017,-2,2,-4,2,3,-1,-2,0
1523147232627017,1,0,6,15,-1,-1,0,0
1523147232647133,-3,-5,-17,-24,-1,-2,-1,-1
1523147232647133,-2,0,3,23,3,-2,-2,1
1523147232655092,-2,0,-1,2,-1,-1,-1,-1
1523147232655092,-2,2,8,-32,-5,-1,-1,-3
1523147232661166,-2,-2,-7,4,1,-1,0,-1
1523147232661166,-2,0,4,15,2,-3,0,1
1523147232670190,-2,-2,-8,-15,-3,-1,-1,-2
1523147232670190,-3,-4,12,20,0,-2,-1,-5
1523147232685235,0,0,-14,-8,-2,-2,-1,-1
1523147232685235,0,3,2,-4,-2,2,0,-1
1523147232687176,1,-3,-2,-5,7,1,-1,-1
1523147232687176,-2,-4,-19,18,3,-2,-3,0
1523147232708291,-2,-2,6,-16,-11,-4,-3,-2
1523147232708291,1,-1,3,-2,-1,0,-1,-2
1523147232709233,-1,2,5,-14,9,1,1,2
1523147232709233,0,1,-6,16,-11,-6,-2,-2
1523147232721326,-2,-1,1,3,4,-4,-6,1
1523147232721326,-1,-2,2,20,-4,4,0,0
1523147232730339,-2,-7,2,-1,0,-1,-2,-1
1523147232730339,-1,0,2,16,3,2,2,-1
1523147232745394,-3,-2,0,-16,-1,-3,-2,-2
1523147232745394,-4,-3,-7,-25,-3,2,1,-2
1523147232747336,1,1,-1,3,-1,-2,-1,0
1523147232747336,-2,-3,4,14,-7,2,0,-1
1523147232767453,-1,1,-5,34,18,0,-1,-1
1523147232767453,1,3,3,-44,-9,-2,1,2
1523147232769413,-1,-1,-3,17,3,-3,-1,-2
1523147232769413,0,-4,4,-7,-1,4,-1,-1
1523147232790510,-3,-2,1,-29,-3,2,-1,-2
1523147232790510,-1,0,4,6,11,-4,-1,-2
1523147232792458,-1,1,-3,12,-6,-1,-2,-1
1523147232792458,0,-3,5,-4,0,-1,-1,0
1523147232804548,-2,-1,3,6,-3,3,2,-1
1523147232804548,0,3,-11,-5,1,-4,-1,-1
1523147232811566,1,-2,-2,-2,-5,-2,-1,-2
1523147232811566,0,1,-3,-16,-7,0,0,0
1523147232827614,0,0,2,16,6,-2,-2,0
1523147232827614,-3,0,10,16,1,-7,-4,-4
1523147232829554,-2,-1,5,36,6,2,-1,-1
1523147232829554,0,0,-13,-53,-7,-2,-1,1
1523147232850670,-3,-1,4,8,-5,2,1,-2
1523147232850670,-2,-5,-1,3,-2,3,0,-1
1523147232852616,0,0,0,14,10,-2,-2,0
1523147232852616,-3,0,-2,5,0,-1,0,-2
1523147232865649,0,-1,2,-31,-14,-1,0,0
1523147232865649,-1,1,2,-9,-3,-2,-2,0
1523147232866653,-1,0,-2,14,-6,-3,0,0
1523147232866653,-3,3,-8,-3,6,0,-2,0
1523147232887768,2,-5,-8,-3,-2,-2,0,-3
1523147232887768,0,1,5,24,9,3,0,-2
1523147232889714,0,-2,-8,-45,-9,-2,0,-2
1523147232889714,-3,-4,-10,-3,-6,-1,-2,-2
1523147232910837,2,3,8,23,0,-3,-1,3
1523147232910837,-3,-4,2,-9,1,-2,-3,-1
1523147232911776,-2,-1,-11,-20,-6,-2,-3,-1
1523147232911776,0,-1,9,27,8,1,1,-1
1523147232925861,0,-1,-12,-17,3,-3,-3,-2
1523147232925861,0,0,0,-25,-3,-2,0,0
1523147232926813,-3,0,8,-8,-8,-1,1,-2
1523147232926813,2,-1,1,13,-3,-4,0,-1
1523147232947934,-1,-2,-1,13,8,4,1,0
1523147232947934,0,0,0,-26,-10,-1,-2,0
1523147232949875,-1,1,-3,11,1,-2,-1,2
1523147232949875,-1,-1,6,4,-1,-1,-1,-2
1523147232969992,0,1,0,-1,-1,0,-1,-3
1523147232969992,0,1,1,3,1,-2,0,1
1523147232971932,0,-2,-9,-8,-6,2,-2,0
1523147232971932,0,1,3,1,9,-1,-2,0
1523147232985027,-1,1,1,-7,-2,0,0,-1
1523147232985027,-2,-3,3,23,-1,1,0,-2
1523147232991043,0,-2,-8,-10,-8,0,1,0
1523147232991043,0,-2,-3,-2,5,0,0,0
1523147233008030,-1,1,17,22,-6,0,0,-1
1523147233008030,-1,-3,-25,-52,-3,-4,-2,-2
1523147233009031,-1,0,6,23,-1,-2,-1,-3
1523147233009031,-1,-1,3,-22,0,-1,-2,-4
1523147233030089,-2,-4,-2,8,3,0,0,2
1523147233030089,0,0,5,29,-5,-2,-3,-2
1523147233032094,-2,-1,-5,-22,5,0,-2,2
1523147233032094,0,2,-3,8,-8,-4,-4,0
1523147233045194,-1,0,-1,-2,-1,-2,-4,-3
1523147233045194,0,0,0,-9,5,0,0,-1
1523147233051201,-3,-2,-4,-8,-1,-1,0,1
1523147233051201,0,-2,1,11,-1,1,2,0
1523147233068250,-1,1,-10,-6,2,2,0,-1
1523147233068250,0,-1,-1,19,-3,-3,-1,-1
1523147233069191,1,1,4,-15,2,1,-1,0
1523147233069191,-5,-5,0,0,-1,0,0,-3
1523147233089305,0,1,-8,0,-16,-2,-2,-1
1523147233089305,-1,0,4,1,8,1,-1,-3
1523147233098270,-1,-5,-10,45,3,1,0,-2
1523147233098270,-2,-4,-10,-90,-15,-1,-2,-2
1523147233104345,-3,0,6,31,7,-5,-2,0
1523147233104345,0,0,1,10,2,4,2,0
1523147233113311,-1,-2,7,3,-2,-1,-1,-3
1523147233113311,-1,0,-5,7,3,0,-1,0
1523147233128415,-3,-3,1,-17,-7,-1,-1,-1
1523147233128415,-2,-1,-9,6,-1,1,2,0
1523147233130356,-3,-9,-13,-10,-8,-3,-1,0
1523147233130356,2,1,7,18,6,0,1,0
1523147233150412,-1,-2,-1,-19,-1,-4,-2,-3
1523147233150412,-2,0,-12,10,-9,-2,-2,-1
1523147233152413,1,5,10,6,6,1,0,-1
1523147233152413,0,-1,-4,-4,5,-1,-1,0
1523147233164510,1,-3,-1,-6,-2,0,-2,1
1523147233164510,-1,2,1,10,1,-3,-2,1
1523147233171523,-2,3,7,-10,-7,0,0,-1
1523147233171523,-2,0,-7,2,-2,-1,-3,-1
1523147233187566,0,2,12,12,9,1,0,-1
1523147233187566,0,-6,-4,-59,-9,-2,-1,-1
1523147233189511,-2,1,-1,-7,7,2,-1,-1
1523147233189511,-1,0,-2,18,4,-1,-1,-2
1523147233210632,-2,-3,-8,1,0,1,-1,-2
1523147233210632,-1,-2,7,34,-4,-1,1,-1
1523147233211573,-1,-2,3,-26,-6,-2,-2,-2
1523147233211573,-2,-3,-7,-13,1,0,0,0
1523147233224669,-1,3,-2,-4,-6,-5,-2,1
1523147233224669,-2,-5,-3,6,8,5,1,0
1523147233231675,0,2,2,3,0,-1,-2,-1
1523147233231675,-3,-1,2,16,-1,-2,-1,-1
1523147233247732,-1,-4,-7,-18,5,1,-1,-4
1523147233247732,0,0,3,12,-21,-5,-4,-4
1523147233249672,1,0,-3,-30,-8,-4,0,3
1523147233249672,-4,-2,-1,15,3,-1,-1,-1
1523147233270794,-1,0,1,-1,-8,-4,0,1
1523147233270794,-1,5,14,21,11,3,0,0
1523147233271735,-1,-6,-19,-25,-7,-1,-3,-2
1523147233271735,-2,2,-2,3,-5,-6,-2,-2
1523147233283811,-1,0,-4,-22,2,1,0,-1
1523147233283811,1,0,-2,-8,4,1,0,1
1523147233292842,1,0,9,9,0,1,0,-1
1523147233292842,-1,-1,-10,11,-3,-1,-2,2
1523147233308015,-1,-2,-2,0,-5,2,1,-1
1523147233308015,-2,-5,-2,3,1,0,-2,-2
1523147233310021,-1,0,-4,-2,-2,-1,0,2
1523147233310021,4,4,7,0,5,2,3,1
1523147233330138,-1,-1,-5,9,-4,-1,-1,-3
1523147233330138,-2,-1,-2,5,4,-2,-1,-2
1523147233332078,-3,-3,2,12,-1,-6,0,-4
1523147233332078,2,-2,-6,-7,8,5,1,2
1523147233344169,-3,-1,-3,27,-23,-2,-1,1
1523147233344169,0,2,-4,-21,-5,-4,-3,-2
1523147233353133,-3,-1,1,7,0,-1,-1,0
1523147233353133,-1,-1,2,7,2,-3,-4,-2
1523147233368318,-1,-2,2,-17,2,2,-1,-4
1523147233368318,-2,-4,-6,13,9,-1,-2,2
1523147233369252,0,1,2,21,-2,2,0,-1
1523147233369252,-2,-2,-6,-32,-5,-1,0,0
1523147233390367,1,0,0,-24,2,-1,-2,0
1523147233390367,0,3,8,-4,-9,-4,-1,-1
1523147233392314,-2,-3,0,11,4,0,1,-1
1523147233392314,0,-2,2,3,-4,-2,-2,-1
1523147233404414,-2,0,-4,-3,2,-1,2,-4
1523147233404414,0,3,6,6,1,-1,-2,-2
1523147233413369,-1,-2,-6,-17,-4,-4,-1,-1
1523147233413369,1,0,-2,7,-1,2,1,-1
1523147233428408,0,-1,8,3,5,0,-1,-1
1523147233428408,0,-4,-1,23,-2,-1,0,0
1523147233429412,0,5,7,-11,-1,0,-3,-1
1523147233429412,-2,-8,-5,13,-11,-3,-2,-2
1523147233450537,-2,-1,-8,-46,1,-4,-2,-1
1523147233450537,-2,0,-2,16,1,-1,2,-1
1523147233452473,1,1,-2,-3,-3,-2,-2,-2
1523147233452473,-3,1,6,10,-2,-1,-1,1
1523147233464504,0,-1,0,12,4,-2,-3,0
1523147233464504,-2,0,-7,-8,-2,-1,-2,0
1523147233473530,-3,-3,-6,-7,-2,-1,-2,-3
1523147233473530,-1,-2,3,-20,-4,1,-1,-4
1523147233487627,-2,1,-1,12,4,-2,-1,2
1523147233487627,0,-2,-9,-34,-8,-2,1,-1
1523147233489575,-1,-4,-2,17,1,1,1,-3
1523147233489575,0,2,1,-3,-1,-2,-3,0
1523147233510696,1,-1,-2,3,-2,0,2,-1
1523147233510696,0,0,2,-14,-4,-4,0,-2
1523147233511633,-1,-1,-6,-3,2,0,0,-3
1523147233511633,0,-1,3,-6,-4,-3,-1,-3
1523147233523661,-2,-4,1,-7,0,-3,-1,-1
1523147233523661,0,1,0,5,0,1,-2,0
1523147233532686,1,-1,4,12,-1,1,-1,-1
1523147233532686,1,0,-1,-7,3,-1,-1,2
1523147233547735,-1,-3,2,20,1,0,-2,-2
1523147233547735,0,-1,-3,-12,0,1,-1,-2
1523147233549732,0,2,7,22,4,-2,0,2
1523147233549732,-2,-5,-8,-33,-5,0,1,-2
1523147233570818,0,-1,3,28,1,3,0,-1
1523147233570818,-2,0,-4,-42,-6,-3,-1,0
1523147233571790,1,2,5,5,4,-2,-2,-1
1523147233571790,-1,-1,0,19,7,0,-1,-1
1523147233583882,-1,-2,-13,-41,-12,0,1,0
1523147233583882,-1,-1,0,17,6,2,1,-2
1523147233592849,2,-2,1,2,-3,0,0,-2
1523147233592849,-2,3,1,-13,-9,-6,-3,1
1523147233607948,-1,-1,1,10,6,0,-1,-2
1523147233607948,-2,0,-1,1,2,2,-1,-1
1523147233609892,-1,-1,-6,-13,-4,-1,0,-3
1523147233609892,0,1,5,20,13,-3,-3,-2
1523147233630010,-1,-5,-7,-7,-15,5,1,-2
1523147233630010,-2,-1,-2,1,2,-3,-2,1
1523147233631951,0,2,1,7,2,-2,0,1
1523147233631951,-1,1,0,-11,-7,-3,-1,-3
1523147233644048,-2,0,-1,-10,1,-1,-1,-1
1523147233644048,0,-3,0,17,4,-2,0,-1
1523147233653007,-2,-2,-5,10,-5,0,-2,-1
1523147233653007,-1,0,2,-16,-2,1,-1,-2
1523147233668107,-1,-4,0,-15,9,1,-3,-2
1523147233668107,-1,-2,-9,25,-5,1,-1,-2
1523147233669052,0,1,5,-3,4,-2,0,0
1523147233669052,-2,-1,-6,8,1,-1,0,-2
1523147233690175,-2,3,2,8,-7,-5,0,0
1523147233690175,0,-1,3,-7,-3,-1,-1,-2
1523147233692113,-2,-3,0,5,3,1,1,1
1523147233692113,-1,-2,-3,-5,-2,3,2,0
1523147233713235,-1,2,-1,4,3,-5,-3,-1
1523147233713235,-3,-2,1,2,-4,-3,0,1
1523147233714177,-2,0,4,-14,-7,-2,-3,-2
1523147233714177,0,0,1,15,1,-1,1,2
1523147233728272,-3,0,-6,-8,0,-3,-3,-2
1523147233728272,-1,-2,7,13,5,-3,-1,0
1523147233729209,-2,0,-5,-8,-12,-4,-2,-2
1523147233729209,0,-3,-2,-2,-1,-2,-2,0
1523147233750325,0,-1,3,16,5,0,2,0
1523147233750325,0,2,-5,-41,-9,-8,-4,1
1523147233752272,-2,-1,-3,-5,7,6,3,1
1523147233752272,0,1,5,7,1,2,0,-2
1523147233773370,0,-2,-4,7,1,-2,0,-1
1523147233773370,-2,-1,-3,4,-1,-1,-2,-1
1523147233774330,-1,-2,-2,0,-13,0,1,0
1523147233774330,0,1,-4,-15,-2,2,0,-1
1523147233788365,-1,0,6,26,1,-1,0,-1
1523147233788365,0,1,0,-16,-2,2,0,0
1523147233789370,-1,0,-7,0,2,-3,-2,-1
1523147233789370,-2,-3,2,10,8,-2,-3,-3
1523147233810490,-1,-1,-6,3,-8,-2,-3,1
1523147233810490,0,1,2,7,-3,-3,-2,-2
1523147233812446,-1,-1,1,0,2,-3,-2,-1
1523147233812446,0,-1,0,3,-4,-1,0,-2
1523147233832484,1,-3,-3,-20,4,0,-3,-1
1523147233832484,-2,-2,5,13,0,0,-3,0
1523147233834490,0,1,-2,-6,-2,-3,-2,1
1523147233834490,-2,-3,-2,3,0,0,0,0
1523147233847523,1,1,1,3,-3,-2,1,-1
1523147233847523,-2,0,-4,-32,-7,2,0,0
1523147233849530,-1,0,-4,2,3,-2,-2,-2
1523147233849530,-4,-4,-6,-4,-6,0,-3,-1
1523147233870651,0,-2,0,-3,-2,0,-1,-1
1523147233870651,2,0,-4,8,1,-3,-1,1
1523147233871589,-1,-3,5,0,2,-1,0,-3
1523147233871589,-1,0,-2,14,-2,-3,-2,-2
1523147233892709,-1,1,-2,-17,-4,-1,1,-1
1523147233892709,-2,-1,3,5,1,0,1,-1
1523147233894650,-3,-4,-7,-17,2,0,-3,-2
1523147233894650,0,0,0,5,-7,1,1,1
1523147233907683,0,-1,1,10,-6,-2,-1,-1
1523147233907683,-2,0,4,-9,2,1,-1,-2
1523147233913760,0,-1,-3,4,-3,-1,-1,-1
1523147233913760,0,0,-2,-6,1,-1,-2,0
1523147233930755,-2,-3,1,-4,2,-2,-2,-2
1523147233930755,-1,-1,0,2,-4,0,0,-3
1523147233932752,0,0,2,11,3,-2,-1,1
1523147233932752,-3,1,2,-27,-9,-4,-1,-2
1523147233952864,-1,-2,2,-8,3,-1,-1,-1
1523147233952864,0,-3,-1,9,-5,0,-2,-1
1523147233958880,-4,-1,-9,-12,-3,-1,-1,-1
1523147233958880,-1,0,1,15,4,0,-1,-1
1523147233966841,-1,1,-6,-26,-6,-5,-4,0
1523147233966841,-1,-1,0,3,5,1,-1,-2
1523147233973920,1,-1,0,1,-11,0,-1,-1
1523147233973920,-2,1,3,7,-3,-1,-2,-1
1523147233990905,-3,-3,-14,-8,-1,-2,-2,-3
1523147233990905,1,0,-6,-30,-2,-5,-3,-1
1523147233991909,-2,-1,8,-1,5,2,1,-1
1523147233991909,1,0,-5,4,-11,-6,0,-4
1523147234013030,-3,2,7,12,1,0,-1,0
1523147234013030,0,-5,-4,0,-1,0,1,1
1523147234014970,-1,-1,-1,5,6,-4,-3,-1
1523147234014970,-3,-2,-4,-2,0,3,-1,-1
1523147234027002,1,2,8,1,-1,-1,1,-2
1523147234027002,-2,-3,-3,1,-4,-1,0,-2
1523147234034083,1,1,0,-5,0,2,-1,-1
1523147234034083,-3,-2,-5,-4,3,-1,-3,-3
1523147234050123,0,-4,-5,-6,-4,1,-1,0
1523147234050123,-2,1,-3,15,1,1,1,0
1523147234052069,1,1,4,-7,-1,-2,-1,0
1523147234052069,0,-2,-1,-7,-3,-1,-2,-4
1523147234073195,-2,-1,4,19,2,-3,-4,1
1523147234073195,-1,0,-11,-11,-4,0,0,-1
1523147234074126,-4,-3,-4,-8,0,-4,-1,-2
1523147234074126,0,1,0,-5,3,0,-1,0
1523147234087232,-1,0,0,-4,-4,0,0,-1
1523147234087232,-1,-4,-9,16,1,-2,-2,-1
1523147234094249,-1,-2,2,6,-2,1,0,-1
1523147234094249,0,0,-2,-1,2,1,1,1
1523147234111291,-1,1,1,0,-8,-2,-2,-2
1523147234111291,-1,1,5,11,5,-1,-2,-1
1523147234112232,-3,0,-8,-15,-1,-2,-1,0
1523147234112232,-1,-2,4,-1,0,-2,0,-1
1523147234133344,-2,-6,-5,-3,5,1,0,-1
1523147234133344,2,2,-2,-27,-12,-5,-4,-1
1523147234134288,-2,-2,-1,10,5,3,1,-2
1523147234134288,1,2,13,10,2,-1,-2,0
1523147234147325,-1,-3,-12,-8,-5,-1,-2,-3
1523147234147325,-1,-1,1,-21,-5,0,-1,-2
1523147234154341,1,0,-7,8,0,-1,0,1
1523147234154341,-2,-3,-1,-7,-3,-2,-2,-1
1523147234170415,-2,1,3,11,2,1,1,-1
1523147234170415,0,-2,-1,-4,2,-2,0,1
1523147234172388,0,-1,4,3,-6,-3,-2,-2
1523147234172388,-2,-4,-5,14,5,0,-2,-3
1523147234193478,-2,0,-9,-13,-6,-1,-1,1
1523147234193478,-1,-1,1,12,-1,-1,1,-3
1523147234194447,0,-1,-2,-4,-1,0,-1,-1
1523147234194447,-1,-1,-5,5,-1,-4,-2,0
1523147234206693,0,0,5,-6,4,-1,1,0
1523147234206693,0,-1,1,-3,-4,-1,-1,1
1523147234215502,-4,-2,-3,5,-6,-3,-2,-1
1523147234215502,0,1,-1,-11,-5,-1,0,1
1523147234238740,-2,-1,10,19,7,2,0,-1
1523147234238740,-1,-2,-22,-22,-2,-1,-1,2
1523147234239746,0,-2,1,3,3,0,-1,-2
1523147234239746,-1,-3,-2,-6,-1,-1,0,-3
1523147234252741,2,-4,-3,-20,-9,-2,1,-2
1523147234252741,-2,1,8,22,5,0,0,-1
1523147234254607,-3,-1,-1,-13,-2,-1,-2,1
1523147234254607,-1,-2,-2,-17,7,1,0,0
1523147234266778,-1,-1,-3,5,-8,-2,-1,-2
1523147234266778,-3,-1,1,4,-7,-2,-1,-2
1523147234275662,0,0,-5,-11,1,1,-2,-3
1523147234275662,0,0,1,13,0,0,0,2
1523147234290843,-3,-3,-3,8,5,-3,-2,-3
1523147234290843,-2,0,2,-15,0,0,0,-1
1523147234291705,-2,-1,9,24,-5,-3,0,-2
1523147234291705,1,1,-4,2,-1,-2,-3,-1
1523147234312901,-2,-2,-5,-2,1,2,-1,-1
1523147234312901,1,-1,1,15,1,2,-1,-1
1523147234314769,0,1,0,-15,-9,-1,-1,-1
1523147234314769,1,0,-5,-6,2,-1,-1,2
1523147234326943,0,1,1,3,-6,-1,-1,-1
1523147234326943,-2,-1,2,3,4,-1,-2,-3
1523147234335823,2,-2,6,4,3,4,2,0
1523147234335823,-2,-3,-8,-7,-4,-1,-2,-1
1523147234350901,-2,0,3,1,2,2,-2,-2
1523147234350901,-1,1,-1,-10,-1,-3,-4,-3
1523147234351866,-1,-2,0,5,2,-1,1,-2
1523147234351866,-1,0,10,-8,-7,0,1,-2
1523147234373062,-1,1,-4,9,6,1,2,3
1523147234373062,1,1,4,11,0,0,-3,0
1523147234374928,-2,-1,-6,-5,-9,-2,-1,-2
1523147234374928,-1,-1,0,-20,-5,-3,-1,-4
1523147234387054,-1,1,-1,-9,-3,-2,0,0
1523147234387054,-2,-1,2,-7,3,1,2,-3
1523147234395982,-1,-1,-1,27,1,-2,-1,1
1523147234395982,-4,-1,-8,-9,-7,-4,-3,-2
1523147234410020,0,-1,-3,2,-2,-4,-2,0
1523147234410020,-1,0,-4,-16,1,2,-1,-1
1523147234412025,1,-1,2,8,1,0,-1,1
1523147234412025,-2,-1,-6,-4,-4,-3,-2,-1
1523147234433169,-1,-2,0,4,0,-1,-2,-1
1523147234433169,-1,-2,2,22,0,-2,-2,-1
1523147234434087,1,0,-12,-37,-2,0,-1,-2
1523147234434087,0,-2,1,10,7,3,0,0
1523147234446201,-1,0,3,-1,-8,-3,0,-2
1523147234446201,-2,-1,-1,7,0,-3,0,0
1523147234455224,-2,-1,-1,-3,-2,-4,-1,-1
1523147234455224,-1,-1,0,21,4,1,-1,-2
1523147234470183,1,-1,-8,-41,-8,0,0,1
1523147234470183,-2,0,3,41,2,-1,-2,0
1523147234472187,1,1,-6,-23,-3,-2,-1,1
1523147234472187,-3,-1,-2,3,-2,-1,0,-1
1523147234493335,0,-1,2,6,1,-3,-3,-1
1523147234493335,0,0,-1,-6,-2,1,1,-2
1523147234494244,-1,-1,7,4,-2,-3,-1,-1
1523147234494244,1,0,-2,5,2,2,1,0
1523147234515302,-1,0,1,-5,0,1,-1,-1
1523147234515302,-1,-2,-1,5,0,-1,0,-3
1523147234517307,2,1,-1,3,-6,-5,0,0
1523147234517307,-2,1,0,-29,-9,-2,-1,0
1523147234530342,-1,-2,0,10,3,-2,0,-2
1523147234530342,1,1,1,-5,-1,-3,-1,2
1523147234532347,0,0,0,6,4,4,1,1
1523147234532347,0,-1,3,11,1,1,2,-1
1523147234553401,-2,-1,-1,5,-2,-2,-1,-4
1523147234553401,-1,-1,-7,-35,-6,-1,-1,-1
1523147234554406,-3,-1,4,7,-2,1,-3,-3
1523147234554406,-1,-3,-10,-2,0,-4,-5,0
1523147234566438,0,2,1,14,3,0,-2,2
1523147234566438,-1,-2,-3,-5,2,1,0,-2
1523147234575460,-1,0,-2,-1,2,-2,-1,-2
1523147234575460,1,0,13,21,1,0,-1,-1
1523147234590585,-1,-2,-15,-47,-8,-2,-2,-3
1523147234590585,-2,-2,-2,-3,-2,-2,0,-1
1523147234592529,-1,1,-1,2,0,-1,-1,-2
1523147234592529,-3,1,2,16,1,-1,0,-2
1523147234612652,-2,-1,-3,-22,3,2,1,0
1523147234612652,-1,-2,-3,2,-5,-1,-1,1
1523147234614565,-1,-2,0,-7,-2,-1,-1,-1
1523147234614565,-1,1,-1,3,1,1,1,-1
1523147234626598,-2,-1,5,31,-2,-1,-1,-2
1523147234626598,-2,-2,-7,-31,-6,-1,-1,-2
1523147234635622,-1,-1,-1,8,-3,-2,-2,0
1523147234635622,-1,-4,-7,-16,2,-2,0,-1
1523147234650745,0,-1,4,15,4,1,-1,-2
1523147234650745,-2,0,0,3,-9,-3,-3,0
1523147234651663,-1,-2,2,5,-2,1,0,-2
1523147234651663,-1,-2,-5,-17,-2,-3,0,-3
1523147234672804,-1,-1,3,3,2,-1,1,0
1523147234672804,0,0,0,46,4,-3,-1,-2
1523147234674728,-2,-1,-6,-45,-6,-1,-1,-1
1523147234674728,-2,0,1,22,0,-2,-2,-2
1523147234694871,1,0,-1,-32,-5,-2,1,0
1523147234694871,-1,-3,-1,7,1,0,-2,-2
1523147234701884,-1,-3,-3,11,0,0,-1,-2
1523147234701884,0,0,-2,-2,-1,0,-2,-1
1523147234710848,-3,-1,1,4,-3,0,-1,-3
1523147234710848,0,0,1,-4,3,-1,0,0
1523147234711824,-2,0,-4,-13,-7,-3,-1,-1
1523147234711824,-2,-3,-6,-4,1,-3,-4,-3
1523147234732964,0,2,-2,13,1,0,0,2
1523147234732964,1,1,2,-10,0,0,1,-1
1523147234734887,0,1,1,11,3,0,-1,-2
1523147234734887,-3,-2,-3,-3,-4,-4,-1,-1
1523147234755036,-1,-3,1,3,-3,-1,-3,-3
1523147234755036,0,1,1,7,4,1,3,0
1523147234756943,-2,-2,-4,-17,-4,-1,-1,-2
1523147234756943,-1,-1,2,0,-3,1,0,1
1523147234770066,-3,-1,-5,-14,-4,-4,-1,0
1523147234770066,-1,-1,0,3,0,0,-1,0
1523147234771983,1,0,-1,12,2,-1,1,0
1523147234771983,0,1,4,8,1,-1,2,3
1523147234793132,0,-2,5,-5,1,-2,-1,0
1523147234793132,0,0,-12,4,-4,-3,0,1
1523147234795045,-1,-1,0,5,0,0,0,0
1523147234795045,-1,1,-3,-19,-7,0,0,-2
1523147234815100,-3,0,3,14,1,1,-2,-1
1523147234815100,-2,-2,-2,-14,-2,0,-1,-1
1523147234817105,-2,-1,-1,7,4,-1,-2,1
1523147234817105,0,-2,4,1,1,0,1,0
1523147234829228,1,1,-2,-7,-1,-1,-2,0
1523147234829228,0,-2,-2,-22,-3,0,0,-2
1523147234838161,-1,0,-2,14,4,0,0,0
1523147234838161,-1,-2,-6,-19,-4,-1,-1,1
1523147234853284,-2,-3,-3,6,1,-1,-3,1
1523147234853284,-2,0,1,7,-1,0,-2,-2
1523147234854205,-2,-1,2,3,-1,0,1,-3
1523147234854205,0,-2,0,-3,-2,-1,-1,-2
1523147234875351,-1,1,-1,7,-1,-1,1,0
1523147234875351,0,1,-5,-8,-3,-2,-1,0
1523147234877266,-3,-3,-4,-10,-4,-2,-2,-1
1523147234877266,-1,1,3,10,-2,-2,-2,-2
1523147234889383,0,-1,-5,17,5,-2,-1,-1
1523147234889383,0,-2,-1,-25,-2,-1,-1,-3
1523147234896524,-1,0,-3,1,0,-2,0,3
1523147234896524,-1,0,-1,6,-13,-4,0,1
1523147234920510,0,-3,2,10,5,0,0,-3
1523147234920510,-1,1,11,-18,-2,-2,-1,-2
1523147234922515,1,-2,-9,13,5,3,1,1
1523147234922515,-2,-2,-4,-3,-2,-1,-2,0
1523147234935623,-1,-1,-2,3,-3,1,1,-1
1523147234935623,-1,0,5,7,4,0,1,-1
1523147234936555,-3,-1,1,-10,-2,-3,-3,-2
1523147234936555,0,-2,0,3,4,2,0,-3
1523147234949660,0,1,1,23,-1,-4,-2,1
1523147234949660,-2,-1,-5,-44,-1,0,-1,-1
1523147234956679,-1,-2,2,0,-3,-1,-1,-1
1523147234956679,-1,-1,-3,-2,-2,-3,0,-5
1523147234972722,-1,-2,-1,-3,2,-2,-2,-3
1523147234972722,-3,-2,-1,6,-12,-1,1,0
1523147234974654,1,-1,0,0,4,-2,-2,-3
1523147234974654,1,-1,-3,-14,-15,0,0,1
1523147234995864,-2,-3,-4,-19,4,5,0,-2
1523147234995864,-2,-3,-6,-2,2,0,-2,-4
1523147234996807,-1,1,5,-4,0,-3,-1,-2
1523147234996807,-1,-1,-3,8,8,-2,-3,0
1523147235009906,-3,-3,-3,-10,-4,5,1,-2
1523147235009906,-1,-1,-3,16,-4,-2,-1,-1
1523147235016921,0,-2,2,-1,-1,-2,-3,-2
1523147235016921,-2,-2,-1,-2,10,-1,-1,-2
1523147235032964,-1,-3,-1,-10,-21,-4,0,-1
1523147235032964,2,3,7,13,9,-6,-3,1
1523147235034910,-2,0,2,3,-8,8,2,1
1523147235034910,-3,-5,-5,-2,1,0,-1,-1
1523147235055022,2,4,-3,-7,3,-5,-3,-2
1523147235055022,2,-4,0,11,0,6,1,1
1523147235056968,-2,-1,-6,-3,-3,-4,-2,-3
1523147235056968,-3,-9,-6,-3,4,0,-4,-2
1523147235070063,-1,2,-5,-10,-6,0,-1,1
1523147235070063,-1,7,1,2,-10,-2,-1,-2
1523147235077067,0,-8,0,0,1,-4,0,1
1523147235077067,-4,3,3,20,4,2,-2,-1
1523147235093129,-1,-3,1,-18,-6,-2,-2,-3
1523147235093129,1,2,-3,11,13,-2,-1,2
1523147235094065,-1,4,-2,-3,-5,-1,-1,-1
1523147235094065,0,3,-5,-7,-2,-2,-1,-2
1523147235115120,1,-2,2,6,1,-2,0,1
1523147235115120,-2,-3,-1,6,-3,-2,-2,0
1523147235117127,0,-3,-3,-6,2,2,-1,-1
1523147235117127,0,0,5,8,-1,-2,0,-3
1523147235130185,-3,0,3,-3,-5,-3,0,0
1523147235130185,-2,-4,-3,-7,3,5,0,0
1523147235136238,-4,0,-6,0,-2,-4,-4,-2
1523147235136238,1,1,4,-15,-1,2,0,1
1523147235153224,0,0,-5,-8,-4,-2,-1,1
1523147235153224,-3,-2,-3,11,2,-2,-1,-1
1523147235154225,0,-2,1,-14,-3,-2,-1,-2
1523147235154225,0,0,6,-3,-5,-2,-1,1
1523147235175348,1,2,-15,-1,0,1,-2,1
1523147235175348,-2,-3,-6,19,-4,-3,2,0
1523147235177287,-1,-2,2,7,5,0,-1,-1
1523147235177287,0,-1,-2,-11,6,-3,-1,0
1523147235189386,-2,-2,4,16,-10,-4,-2,-1
1523147235189386,-1,-1,-3,-33,-6,-1,-3,-1
1523147235198343,0,1,0,3,3,-1,1,-2
1523147235198343,0,0,-1,1,-5,0,-1,0
1523147235213382,-2,-7,4,7,8,1,-1,-3
1523147235213382,0,-2,6,0,-1,-2,-3,-4
1523147235214387,-1,1,-6,1,-6,-1,-1,2
1523147235214387,-2,2,-7,-4,13,-1,1,-2
1523147235235507,-1,-1,1,-5,-19,-4,0,-2
1523147235235507,-1,-4,0,14,1,-3,0,-1
1523147235237448,-2,-1,2,-21,-5,-1,-1,0
1523147235237448,0,-2,-4,17,-1,-3,-1,-2
1523147235249526,-1,1,-3,3,16,7,2,2
1523147235249526,-3,0,-2,-9,-3,-4,-2,-1
1523147235258503,1,-3,5,24,-6,-1,0,-1
1523147235258503,-3,-2,-8,-6,-5,-4,-3,0
1523147235272601,-2,-1,2,-6,13,-2,1,-1
1523147235272601,-1,1,5,-5,-14,-3,0,-2
1523147235274546,-1,-1,-8,12,8,0,-1,-1
1523147235274546,0,0,4,-8,-7,-2,-2,-3
1523147235295667,-1,-1,-2,-6,1,-1,-1,0
1523147235295667,-1,4,2,9,1,1,-1,-1
1523147235296604,-1,1,4,-5,11,-5,-3,-1
1523147235296604,1,0,1,-3,-19,4,1,2
1523147235308690,-2,-1,-13,13,-1,-4,0,0
1523147235308690,2,0,-7,-12,0,-1,-1,-2
1523147235317735,-1,-1,5,-5,-4,-4,-2,-1
1523147235317735,0,-2,-3,1,6,-2,0,-2
1523147235332846,0,2,6,4,-1,3,0,-1
1523147235332846,-1,-4,0,-5,0,-3,0,-1
1523147235334777,-1,-3,-9,11,-12,-4,-2,-2
1523147235334777,-1,-3,3,-20,1,1,-4,0
1523147235355873,-1,-1,1,4,-10,0,0,0
1523147235355873,0,-2,-4,-5,2,0,-2,-1
1523147235356838,0,-1,3,-6,2,1,2,-3
1523147235356838,-2,-2,4,15,-2,-3,0,-1
1523147235368934,-2,-3,-1,-11,9,-1,-2,0
1523147235368934,-2,-2,-1,5,-3,5,2,0
1523147235377894,0,-1,2,-6,-8,1,0,-2
1523147235377894,-3,0,-5,5,1,1,0,-2
1523147235392998,-1,-2,3,-9,-6,-5,-2,-3
1523147235392998,-3,-3,-8,-6,4,-2,-2,-2
1523147235394944,0,1,3,-4,0,1,0,2
1523147235394944,-2,-1,-2,10,1,-2,-1,1
1523147235414992,0,-4,-6,-16,-8,-1,0,-1
1523147235414992,-2,1,-1,2,2,0,-1,-1
1523147235416996,-2,-1,1,-5,-5,-3,-1,1
1523147235416996,-1,-4,-6,-9,-2,-3,-2,-5
1523147235429096,-1,-1,3,6,3,-2,-2,0
1523147235429096,2,2,4,10,-2,-1,0,2
1523147235446073,-1,-2,-8,-27,-4,-2,-1,-2
1523147235446073,0,0,6,12,1,1,1,-2
1523147235453142,1,2,-5,-23,-7,0,-2,0
1523147235453142,0,-3,-4,9,1,-3,0,-1
1523147235454095,-1,0,5,-16,-2,-1,-3,-1
1523147235454095,-1,-1,-3,-6,-1,2,0,-1
1523147235475220,-4,2,5,20,2,1,0,-2
1523147235475220,-2,-3,-4,-14,-1,-1,0,-1
1523147235477158,-2,-2,0,8,2,-1,-3,-2
1523147235477158,-1,1,-2,-6,-11,-3,-2,0
1523147235489251,1,-2,3,4,4,0,-3,-2
1523147235489251,-2,-4,7,2,-1,-2,-1,-1
1523147235498212,1,-1,-6,10,1,0,-1,0
1523147235498212,1,0,2,7,1,-2,-1,-1
1523147235513254,-1,0,-2,-15,-2,-2,0,0
1523147235513254,-2,0,-8,2,-6,-3,-4,-2
1523147235514258,0,-1,3,6,7,4,-1,-1
1523147235514258,-2,0,1,-19,-16,-6,-3,0
1523147235535378,0,2,0,11,-1,1,0,-1
1523147235535378,-1,-3,-2,7,3,0,-1,1
1523147235537317,-4,-2,-3,8,-1,-2,1,0
1523147235537317,0,0,12,0,13,5,0,-2
1523147235549409,-1,0,-10,-2,-5,-4,-3,0
1523147235549409,-1,2,0,5,-1,-1,-1,2
1523147235558374,-1,0,4,6,5,-1,-1,-2
1523147235558374,0,-2,-5,1,-10,-1,0,0
1523147235573412,-2,1,1,-29,-7,-4,1,1
1523147235573412,-1,-2,-1,1,5,1,-2,-4
1523147235574419,0,-2,-2,-2,2,-1,-1,1
1523147235574419,-1,-2,-5,-3,2,-4,-1,-1
1523147235595540,-3,-4,1,9,2,3,-1,-2
1523147235595540,1,-1,-9,-17,-6,-3,-2,-1
1523147235597480,1,3,4,27,-7,-1,0,-1
1523147235597480,-4,-3,-7,-20,10,1,-1,-2
1523147235625620,0,-2,-4,12,-15,-4,-1,0
1523147235625620,0,-1,7,-3,5,-2,3,0
1523147235626554,0,-4,-11,-5,-4,-2,-2,-2
1523147235626554,1,0,2,13,3,-1,-1,-3
1523147235632631,-2,-1,-4,8,6,-1,0,-2
1523147235632631,0,2,-5,-29,-1,2,-1,0
1523147235634575,-1,1,14,-1,2,-2,-1,1
1523147235634575,-1,-1,-5,0,-4,0,-1,0
1523147235655696,-1,-1,0,-2,3,-2,-1,-2
1523147235655696,-2,0,3,20,-2,-1,0,0
1523147235656636,-2,1,-2,0,-1,1,-2,1
1523147235656636,0,-1,-2,-21,9,2,-1,-1
1523147235677759,0,1,5,1,-7,0,0,-2
1523147235677759,-1,-3,-4,1,-7,-5,-2,-1
1523147235679696,-2,-1,-5,-8,2,-2,-1,-2
1523147235679696,-1,2,1,17,0,0,1,0
1523147235692800,-1,-4,-1,-2,6,-1,-1,-1
1523147235692800,0,1,1,1,-2,-1,-1,-3
1523147235694736,1,0,0,2,3,-1,-1,0
1523147235694736,0,-2,-15,-36,-18,-8,-3,-1
1523147235715829,-2,-2,4,-18,-5,6,2,-1
1523147235715829,-1,-1,-21,-20,-3,-2,-3,-3
1523147235716793,-1,0,-2,9,-1,-2,0,-2
1523147235716793,-1,1,10,21,-1,-2,-1,-2
1523147235737911,-2,-4,-4,-22,1,-4,-2,-2
1523147235737911,0,-1,1,0,-6,0,1,2
1523147235739858,-1,-2,2,1,2,2,-1,-1
1523147235739858,-3,-3,-4,6,-6,-4,-4,-1
1523147235752891,1,0,3,10,3,-3,-1,0
1523147235752891,-2,1,14,23,6,2,-1,-1
1523147235754899,0,-3,-14,-33,-7,-5,-5,-2
1523147235754899,-2,-4,-5,5,-2,2,2,-2
1523147235775019,4,0,1,6,2,-3,-1,0
1523147235775019,-3,-2,4,11,-1,-3,-2,-2
1523147235776957,-1,2,-14,-31,-10,1,1,1
1523147235776957,0,-1,2,6,6,0,-1,-1
1523147235798012,0,-1,-6,-9,2,0,-1,-4
1523147235798012,-1,-1,1,10,-9,-3,0,-2
1523147235800016,0,0,2,-7,6,5,-3,-1
1523147235800016,0,0,1,2,5,-1,-1,0
1523147235812113,0,-2,-4,2,-6,-2,0,0
1523147235812113,0,0,4,20,5,-1,1,1
1523147235819130,-1,0,11,-12,-6,-2,-1,-2
1523147235819130,0,-1,-9,-2,-2,-1,0,2
1523147235835177,-1,-2,7,10,-2,-2,-4,-3
1523147235835177,-2,2,-11,6,4,0,-3,-1
1523147235837114,-1,-3,-3,-5,-4,-3,2,-1
1523147235837114,-2,0,-2,-9,-4,1,-1,1
1523147235858246,-2,1,3,21,8,-2,-1,1
1523147235858246,0,-1,-1,-26,-9,1,-2,0
1523147235859173,-2,0,-1,-3,-4,-1,0,-1
1523147235859173,0,-1,7,15,5,-1,-1,-2
1523147235872208,-1,1,-6,-19,-16,-4,-2,0
1523147235872208,-2,-6,3,7,8,-1,1,-3
1523147235879226,0,0,-8,3,0,2,1,1
1523147235879226,0,-4,3,-11,-7,-5,-1,-1
1523147235903331,-3,-2,-1,-1,6,4,1,-1
1523147235903331,1,-3,-4,-3,0,-1,1,0
1523147235904295,0,4,1,2,-12,-4,-1,-1
1523147235904295,0,-1,4,17,4,0,-1,-1
1523147235918332,-4,-6,-23,-8,-4,-6,-4,-2
1523147235918332,-4,0,-7,-32,-5,2,1,1
1523147235919332,0,-3,-1,20,6,-3,-1,-1
1523147235919332,2,2,-1,-19,-4,-1,-1,-1
1523147235932428,1,3,6,19,0,-3,-2,-1
1523147235932428,0,0,6,5,7,2,0,0
1523147235939448,-3,-3,-5,5,-10,0,-2,-1
1523147235939448,-1,-1,4,3,0,-2,2,-1
1523147235955488,-1,-3,-6,10,2,-2,0,1
1523147235955488,1,1,0,-7,3,-4,-2,0
1523147235957434,0,1,-1,1,-5,-2,-3,-1
1523147235957434,-2,-2,1,-10,3,1,0,0
1523147235977553,-1,-5,-3,-17,-2,-2,-1,-3
1523147235977553,0,3,3,5,0,1,0,-1
1523147235979492,0,-4,0,7,4,-5,-2,-1
1523147235979492,0,-1,-6,11,-4,2,0,-2
1523147235992593,-1,1,7,-15,1,0,0,0
1523147235992593,-1,-1,2,1,-4,-3,-2,-2
1523147235998605,-2,-2,-2,-7,0,-1,-1,1
1523147235998605,-1,1,1,9,-2,2,0,-1
1523147236015650,0,-1,5,12,4,0,0,-1
1523147236015650,3,-1,0,-11,-8,1,0,-1
1523147236016595,0,4,8,6,-2,-3,1,0
1523147236016595,-3,-3,-6,-13,3,4,0,-3
1523147236037713,1,-3,2,6,5,-2,-1,-1
1523147236037713,-3,1,-6,-8,-12,-1,0,-1
1523147236039652,-2,-4,0,12,11,3,-2,-4
1523147236039652,-1,-3,-11,-49,-12,-7,-3,-3
1523147236052690,0,6,6,16,-12,2,1,1
1523147236052690,-1,-2,7,4,2,-2,-2,-1
1523147236058765,-2,-2,-22,11,-2,1,-1,-1
1523147236058765,-3,2,1,15,4,-2,0,1
1523147236075820,-3,-1,-2,-12,-3,-4,-3,-2
1523147236075820,1,0,-4,0,-3,0,-1,-1
1523147236076754,-1,-1,3,-9,-1,0,0,-2
1523147236076754,1,-1,0,4,5,-2,-1,-3
1523147236097869,0,-2,-2,-3,0,2,0,-1
1523147236097869,0,0,1,27,-1,-5,-1,-1
1523147236099814,-1,-1,2,-30,0,-1,-2,0
1523147236099814,-1,-1,-2,6,-4,-3,-3,-2
1523147236111916,-1,-2,3,4,6,3,1,-2
1523147236111916,-2,-2,-5,-16,-4,-2,-3,0
1523147236120873,0,-3,-6,18,-3,-3,1,-2
1523147236120873,-2,-1,0,0,2,3,-1,-1
1523147236135909,-2,-1,-7,-18,5,-2,-1,-2
1523147236135909,-1,-4,12,6,-3,0,-2,-1
1523147236136912,-1,-1,-23,-9,-3,0,0,2
1523147236136912,-1,-1,5,9,3,-3,0,3
1523147236157969,0,3,-5,3,3,0,1,-2
1523147236157969,-1,-5,-3,-24,-10,-4,0,-2
1523147236158970,-3,-2,6,8,7,-2,-3,-3
1523147236158970,2,2,4,18,-4,1,0,0
1523147236180027,0,1,-1,-34,-11,-2,-2,1
1523147236180027,-2,0,-2,7,2,-1,-1,-1
1523147236182031,-2,-4,6,-6,2,-1,-1,-1
1523147236182031,-1,-1,-10,6,-3,0,0,-1
1523147236195304,-3,-3,2,5,-4,-4,-1,-3
1523147236195304,0,3,-5,-17,6,2,0,-1
1523147236197071,1,0,7,12,-10,-2,1,0
1523147236197071,0,-1,-1,-14,2,-2,-3,-1
1523147236218127,3,-1,0,-5,-6,-6,-4,0
1523147236218127,-1,6,4,12,13,5,0,0
1523147236219132,-2,-3,-7,5,-13,4,2,0
1523147236219132,-3,-4,-6,-18,-5,-5,-1,0
1523147236232165,-5,-3,-7,-22,-7,-2,-3,-4
1523147236232165,-1,-3,1,3,1,-7,-2,0
1523147236240231,0,-1,1,-6,7,2,1,-4
1523147236240231,-1,0,2,12,-4,-4,-1,-1
1523147236255465,0,-1,-7,0,2,-1,-2,0
1523147236255465,-1,2,-6,10,-6,-3,-3,-3
1523147236257232,-1,-2,3,-10,9,2,0,-1
1523147236257232,-1,-5,-2,-2,-17,0,-2,-1
1523147236278505,-3,1,3,12,7,0,-2,0
1523147236278505,1,2,0,-2,-2,-2,-3,-2
1523147236279290,1,3,5,1,-2,-1,2,0
1523147236279290,-1,-2,4,-4,6,-1,-2,-3
1523147236291528,1,-2,-8,-1,-8,1,1,-1
1523147236291528,-3,-5,3,-8,7,-1,0,-1
1523147236300345,-2,2,-9,-20,-14,-1,-2,1
1523147236300345,-1,0,1,-6,2,-1,1,-1
1523147236315386,1,0,2,20,-3,2,3,0
1523147236315386,-1,-2,7,3,1,-3,-1,-1
1523147236317437,-1,1,-4,-4,-1,-3,-4,-1
1523147236317437,-2,-3,2,17,1,3,2,2
1523147236338449,0,3,-8,-20,-2,-2,0,1
1523147236338449,0,-1,-2,1,-1,0,0,-2
1523147236339452,2,-1,6,0,-7,1,1,0
1523147236339452,2,0,-3,3,3,-3,-2,-1
1523147236351531,-1,4,6,11,1,-2,1,2
1523147236351531,-2,-9,-11,-12,0,2,1,-1
1523147236360513,-2,1,7,25,-4,-4,-3,-1
1523147236360513,-1,3,-3,-10,12,2,2,-2
1523147236375549,-3,-1,-9,-8,-29,-8,-6,-2
1523147236375549,-1,2,-3,8,4,3,0,-2
1523147236376550,0,1,3,1,3,-3,0,1
1523147236376550,-3,-4,6,12,1,-1,-1,0
1523147236397715,1,3,5,2,12,-3,-1,-3
1523147236397715,-2,-1,0,-1,-7,3,-1,2
1523147236399611,-1,-4,-5,1,6,-3,-1,-3
1523147236399611,0,-1,-4,-18,-6,0,-2,-2
1523147236411757,-1,-2,3,30,12,7,3,1
1523147236411757,1,0,0,-1,-14,-7,-3,0
1523147236420667,0,0,0,3,9,0,1,2
1523147236420667,0,4,0,-12,-8,-3,-3,-3
1523147236435708,1,-4,-3,3,5,4,2,-1
1523147236435708,-3,2,-3,-6,-2,-3,0,0
1523147236436710,-1,-4,1,-6,-6,-4,-3,-1
1523147236436710,0,1,-3,-1,4,2,0,0
1523147236457883,-2,-3,2,8,-6,-3,-2,-3
1523147236457883,-4,-3,-6,-3,-2,1,-1,-2
1523147236459772,-1,-1,-4,-19,-2,3,1,1
1523147236459772,-2,0,-1,2,-6,-5,-3,-1
1523147236471913,0,0,2,-6,9,1,-2,-2
1523147236471913,-1,-5,-3,-11,-5,-3,-1,-2
1523147236480826,0,-2,-5,15,-3,-2,-2,-2
1523147236480826,0,-2,-16,-15,-9,-5,-2,-1
1523147236495866,-2,0,1,-6,-7,2,0,1
1523147236495866,2,2,1,6,5,-3,-2,-1
1523147236496871,-2,0,-5,-12,-2,0,0,0
1523147236496871,-4,-8,-4,-1,0,0,-1,-1
1523147236518036,-2,-3,-4,3,-2,1,-2,-1
1523147236518036,1,-1,-3,-1,-3,-2,-1,0
1523147236519930,-2,-1,7,9,4,-2,-1,-3
1523147236519930,0,2,6,8,-2,-1,0,0
1523147236532024,-1,-4,0,-16,5,0,-2,-3
1523147236532024,0,1,4,-3,-1,2,2,3
1523147236540986,-1,-2,3,-8,-5,-5,-3,-2
1523147236540986,-2,-1,-8,15,1,0,1,0
1523147236555137,-2,-2,3,0,-3,-4,-2,-1
1523147236555137,0,1,-2,-17,0,-2,-2,-2
1523147236557031,0,-3,-1,-10,11,2,0,-3
1523147236557031,1,1,7,3,-8,-6,-3,-1
1523147236578201,-1,0,2,7,4,3,3,2
1523147236578201,1,3,-5,0,-1,-1,-1,-1
1523147236579088,-2,-1,1,15,4,-2,-2,0
1523147236579088,-1,1,-11,-9,-10,-2,-1,-3
1523147236600254,0,-1,-1,-1,6,1,-2,-1
1523147236600254,-2,-1,-5,-3,-5,-3,-1,0
1523147236602149,-1,2,6,5,4,3,2,1
1523147236602149,1,-1,2,-6,12,2,2,0
1523147236615298,-3,-1,-3,-18,-19,-5,-1,1
1523147236615298,1,3,-1,19,1,-2,-1,0
1523147236617191,-1,-2,1,9,7,3,-1,1
1523147236617191,-1,-3,2,-23,-4,-1,-1,-2
1523147236638352,-1,0,1,17,-4,-5,-1,-1
1523147236638352,-3,1,1,2,2,-2,-2,0
1523147236639249,-2,-3,1,-31,-8,1,1,-3
1523147236639249,-2,-3,-9,-1,-5,-3,0,-1
1523147236660422,1,-2,-1,5,14,1,-1,-1
1523147236660422,-1,1,-5,-5,-27,-2,-1,-3
1523147236662310,0,-1,-5,4,-1,-6,-3,-1
1523147236662310,0,0,24,8,0,2,-1,0
1523147236675463,2,3,-13,-20,-6,-5,-3,1
1523147236675463,0,-4,-2,15,14,2,0,1
1523147236677351,0,1,-9,-11,-10,-1,1,0
1523147236677351,-2,-1,7,15,-2,-4,-1,2
1523147236698405,-4,0,3,27,2,0,2,-2
1523147236698405,-1,-2,-5,-43,-9,-2,0,-1
1523147236699407,1,-1,-1,31,12,4,2,-1
1523147236699407,0,-3,-5,-25,1,-1,-1,-3
1523147236720464,-2,-3,-3,-5,-5,-2,-2,-1
1523147236720464,0,-1,2,10,0,-2,-1,1
1523147236722546,-1,0,-2,-10,-4,-6,-2,-1
1523147236722546,-2,1,-3,12,5,3,0,0
1523147236735611,1,2,18,4,-7,0,0,0
1523147236735611,-2,2,-16,-6,5,1,1,0
1523147236741627,-2,-3,-1,-1,-12,-3,-1,1
1523147236741627,1,2,-5,-1,2,0,-2,-2
1523147236757689,1,-4,3,4,1,-3,-1,-1
1523147236757689,1,2,8,2,3,-2,-2,-3
1523147236759570,-2,-2,-5,1,-4,2,-1,-1
1523147236759570,-3,-2,-8,4,-2,0,-1,-1
1523147236780730,-3,0,-2,-10,4,-1,-3,-1
1523147236780730,0,-4,-1,0,2,0,0,-1
1523147236781731,-1,0,-3,-9,1,0,-2,-2
1523147236781731,-2,-3,2,14,-2,-1,-2,1
1523147236794777,3,0,-6,-4,2,-1,-1,-4
1523147236794777,0,-3,2,12,-3,-5,-2,1
1523147236801680,-1,3,6,-8,-5,1,1,0
1523147236801680,-2,-3,-17,1,9,3,-1,-1
1523147236817836,-2,2,-5,-4,-19,-4,-1,-1
1523147236817836,-2,-3,-3,3,17,4,0,1
1523147236819730,1,3,6,12,-2,1,0,0
1523147236819730,-2,0,4,-5,-1,-4,0,-2
1523147236840902,-4,-9,-8,-11,1,-2,-1,0
1523147236840902,-3,-2,2,9,0,0,-1,-3
1523147236841788,-2,-1,-8,-3,0,-4,-1,-2
1523147236841788,-1,1,6,6,0,-1,0,-3
1523147236854934,-1,1,-3,-7,-1,-2,-1,-3
1523147236854934,-2,0,4,-5,0,2,1,0
1523147236868860,-1,-3,-1,8,-1,-3,-3,-1
1523147236868860,1,0,1,-5,-7,0,-1,0
1523147236878002,-3,-2,-4,-26,9,0,-1,-1
1523147236878002,0,-3,-2,-4,-19,-4,-3,-2
1523147236879891,0,-1,19,-17,2,3,1,-1
1523147236879891,-2,-7,-14,20,2,-3,-2,-1
1523147236900944,0,1,-5,-10,1,4,0,0
1523147236900944,1,0,3,15,2,-2,-2,1
1523147236901950,-1,-3,-7,-5,-5,-4,-3,-1
1523147236901950,-2,0,7,-6,-6,-1,0,-2
1523147236915095,-1,-3,-1,-2,1,-1,0,-1
1523147236915095,0,2,7,13,-3,-2,-1,-1
1523147236922001,-1,-1,-16,-18,2,1,-1,-3
1523147236922001,1,0,3,0,2,1,-1,-1
1523147236938157,-1,-5,3,20,-3,2,-1,1
1523147236938157,-1,-4,-33,-38,-3,-4,-2,0
1523147236940048,0,-1,-4,23,-2,-4,-4,-2
1523147236940048,-1,2,1,-21,-9,-3,-1,-1
1523147236960222,0,1,4,5,5,3,1,-1
1523147236960222,0,-5,2,0,6,0,-1,0
1523147236962108,0,-3,0,-2,0,-1,1,1
1523147236962108,-1,-2,-8,-11,-1,-3,-2,1
1523147236975229,-2,0,5,4,-8,-3,0,0
1523147236975229,-3,-1,1,-4,-2,2,-1,-3
1523147236981271,0,1,-4,-8,0,-1,-1,-1
1523147236981271,-2,-2,1,6,-7,0,0,-1
1523147236998317,-2,0,0,7,3,-2,-1,-3
1523147236998317,0,0,-2,-12,-1,1,-1,0
1523147236999208,-1,0,3,8,-2,-1,-2,-1
1523147236999208,-1,-2,-2,-11,1,0,-3,-2
1523147237020375,0,-1,-3,9,-1,-2,0,-2
1523147237020375,-2,-1,8,10,3,-2,-2,-1
1523147237022269,-2,-5,-14,-2,-6,1,1,-1
1523147237022269,0,-2,10,-14,2,1,0,-1
1523147237035300,-1,2,-13,-16,-7,-5,-3,0
1523147237035300,-2,-2,0,12,4,3,2,-3
1523147237041431,-2,0,3,-4,-7,-5,-4,1
1523147237041431,0,1,3,0,3,0,-2,1
1523147237058402,-1,-1,0,4,-1,0,-1,0
1523147237058402,-1,-1,0,-6,1,-1,-2,-1
1523147237059368,-1,1,3,-17,-2,0,0,-2
1523147237059368,1,0,-7,-13,-3,-1,0,0
1523147237080536,-1,-2,-1,5,1,-3,-2,-2
1523147237080536,0,-2,-4,-13,-6,-1,-2,1
1523147237082426,-1,-2,3,10,2,-1,-1,-1
1523147237082426,-2,1,0,11,-1,-1,0,-1
1523147237094524,-1,-1,0,-9,-4,0,-1,-2
1523147237094524,0,0,-2,-8,-3,-3,-1,-1
1523147237103484,1,1,1,1,0,-3,-2,1
1523147237103484,-3,-12,-12,1,2,-2,-1,-1
1523147237117634,-1,0,11,5,0,1,0,4
1523147237117634,-3,4,-2,5,-1,1,0,-1
1523147237119528,-1,-1,5,-3,-3,-3,0,-1
1523147237119528,-1,2,-3,8,1,1,-1,0
1523147237140701,0,1,3,4,4,-3,-4,-3
1523147237140701,-1,-6,-1,-2,2,4,2,0
1523147237141585,-4,0,-7,-15,-7,-2,-2,-1
1523147237141585,0,5,9,14,-3,-4,0,0
1523147237153617,1,0,-3,5,1,-2,-1,2
1523147237153617,1,0,1,-10,-4,-3,0,-2
1523147237162642,-4,-2,1,6,8,2,-3,-1
1523147237162642,1,0,-9,-3,-5,-5,-2,0
1523147237177807,-1,2,3,0,0,-1,-2,-1
1523147237177807,0,-4,-6,-9,-2,-4,-2,0
1523147237179688,1,-5,1,14,0,0,-2,0
1523147237179688,0,-1,3,-9,-3,1,-1,-1
1523147237200856,0,-1,-3,0,-2,-4,-1,-2
1523147237200856,1,4,5,12,1,5,1,0
1523147237201747,-1,0,7,13,-1,-1,-1,0
1523147237201747,-3,0,-6,-17,-3,-1,-3,-1
1523147237213887,-2,-3,-2,-1,0,-1,0,-1
1523147237213887,-3,-4,-7,-2,-9,-2,-3,-3
1523147237222800,-1,-5,-1,-13,3,0,0,-2
1523147237222800,0,0,2,2,0,-3,-1,0
1523147237237952,0,-1,-1,-6,-4,-1,-1,-2
1523147237237952,-1,-3,-1,13,3,-2,-4,-4
1523147237239847,0,-1,-10,-14,-10,-2,-1,-2
1523147237239847,-1,0,3,-5,8,1,1,0
1523147237260904,-3,-1,-7,11,-7,-4,-2,0
1523147237260904,2,2,13,-4,9,3,1,-1
1523147237261905,-2,-3,-14,-26,-8,-2,-1,-1
1523147237261905,0,-3,0,9,0,0,-2,-1
1523147237274051,-1,-3,1,1,3,0,-1,0
1523147237274051,0,0,1,-11,0,-1,-2,-2
1523147237282962,-2,3,9,2,-3,2,0,1
1523147237282962,0,-4,-5,2,2,-1,-3,-3
1523147237298111,-2,-2,-2,-8,-2,1,-2,-2
1523147237298111,0,-3,-2,3,-3,-3,-2,1
1523147237299005,-1,0,2,2,2,-2,0,0
1523147237299005,-2,0,-4,-8,0,-2,-1,-2
1523147237320163,-1,3,-4,-20,-2,-1,0,-2
1523147237320163,-1,-4,-2,-4,-4,-2,0,2
1523147237322064,-2,0,0,5,0,1,-2,-2
1523147237322064,-1,-3,2,49,2,1,0,-5
1523147237334200,-2,-1,-7,-69,-5,0,-1,-1
1523147237334200,-4,-1,-4,2,-4,0,2,-2
1523147237343121,-1,-1,1,8,11,-4,-2,-3
1523147237343121,-1,-3,-6,-5,-10,0,0,2
1523147237358352,0,0,2,16,1,0,-1,-1
1523147237358352,-1,3,-2,9,-6,-5,-1,0
1523147237359162,1,3,2,-4,-1,0,-1,0
1523147237359162,-2,1,3,-3,3,-1,0,-1
1523147237380341,-1,-3,-4,6,0,0,0,-2
1523147237380341,-1,-1,2,0,7,1,0,-2
1523147237382226,-1,-1,-2,3,-13,-4,-1,0
1523147237382226,0,1,1,-11,3,-2,-2,0
1523147237394385,-3,-1,-1,8,-2,-1,-1,-1
1523147237394385,-2,0,7,2,1,-1,-2,0
1523147237403280,1,-3,-4,-3,2,0,0,1
1523147237403280,-1,-2,-4,-15,-9,0,-1,-2
1523147237418320,0,-1,-2,10,2,-2,-1,-1
1523147237418320,-2,1,-2,1,2,-1,-2,-2
1523147237419324,-1,0,0,2,-1,-2,-1,-2
1523147237419324,-1,-1,-3,-3,-4,-1,-3,1
1523147237440493,1,0,2,13,3,0,-1,1
1523147237440493,-1,0,3,-11,-8,0,1,-1
1523147237442386,1,-1,-7,21,3,0,-2,-2
1523147237442386,0,0,2,-25,-3,-3,2,-2
1523147237454518,0,-2,0,4,0,-1,-1,-2
1523147237454518,-3,0,-1,-1,-3,0,-2,-2
1523147237463441,-2,0,-1,0,1,-2,-1,0
1523147237463441,-1,0,11,7,1,-1,-1,-1
1523147237477585,-1,-1,-5,3,1,2,1,-1
1523147237477585,-1,-2,-6,-10,-5,-1,1,-1
1523147237479488,-2,3,-1,9,2,-1,-3,-2
1523147237479488,-2,-9,-1,-3,-3,1,0,-1
1523147237500641,-1,3,2,-7,-1,-2,-1,-1
1523147237500641,1,-2,-5,8,-1,-5,-3,1
1523147237501542,1,-2,-2,-13,1,4,3,-1
1523147237501542,-4,1,-2,2,0,-4,-2,0
1523147237522705,1,1,10,10,-1,-1,-1,0
1523147237522705,-1,-3,-19,-12,-4,-1,-2,-1
1523147237524604,-1,-1,2,-3,-1,-2,-1,-1
1523147237524604,1,1,-3,4,-1,-2,-2,-2
1523147237537740,-3,-3,-2,1,-1,1,-1,2
1523147237537740,-2,1,2,-12,-1,-3,-1,-1
1523147237539644,0,-1,-2,-16,-8,-1,0,-1
1523147237539644,1,2,1,3,2,0,1,1
1523147237567759,-2,-2,-9,-12,-6,-4,-1,-2
1523147237567759,0,1,-8,21,1,0,-1,0
1523147237569723,-1,0,-2,0,-3,-3,-3,-2
1523147237569723,-1,-3,-5,-7,-1,-2,-2,-2
1523147237582975,-1,1,4,-3,4,0,0,0
1523147237582975,-2,0,3,-9,1,1,-1,-1
1523147237584764,-3,-3,-5,-9,-1,-3,0,0
1523147237584764,1,0,0,7,-4,-1,-2,1
1523147237597947,0,-4,-2,0,0,-1,0,-3
1523147237597947,-2,-2,6,20,3,-1,-1,0
1523147237599804,1,0,4,-15,0,-1,-1,1
1523147237599804,-2,-3,-2,23,6,1,0,-1
1523147237620150,-1,-1,-3,-34,-7,-2,-2,1
1523147237620150,-1,0,3,10,0,-4,-2,1
1523147237622057,-1,-2,-1,-3,-2,-1,1,-2
1523147237622057,0,-2,-5,-11,-1,3,0,0
1523147237643177,-2,1,1,26,0,0,-1,0
1523147237643177,-2,-1,3,-5,1,1,0,-3
1523147237644114,0,-3,-4,8,-2,-3,-3,-2
1523147237644114,-1,-1,-1,-9,-2,0,1,-2
1523147237657150,1,-1,4,12,-1,-1,-1,-1
1523147237657150,-3,-1,-6,-14,-6,-3,-1,-2
1523147237664228,-1,1,0,0,-1,-1,-2,0
1523147237664228,-1,0,-2,-5,2,0,0,-1
1523147237680211,0,-1,-2,-7,3,1,-1,1
1523147237680211,-1,0,4,4,-4,-1,-2,-1
1523147237682219,-2,-1,1,24,3,0,0,0
1523147237682219,-2,1,0,-20,-7,-2,1,1
1523147237703320,-1,-1,-8,-19,-9,-2,-1,-1
1523147237703320,-1,1,10,12,3,1,-1,1
1523147237704276,-1,-2,-9,-7,0,-1,-2,-2
1523147237704276,-2,-1,6,14,-2,-4,-1,-3
1523147237717310,0,-1,2,3,3,2,1,-2
1523147237717310,1,1,-5,2,0,-6,-6,1
1523147237724387,-1,1,3,-1,0,2,0,-1
1523147237724387,1,-3,-4,2,2,0,-2,0
1523147237740434,-2,-1,-2,0,-5,-2,0,-1
1523147237740434,0,-1,-1,-6,-4,0,0,-2
1523147237742378,-1,-1,0,0,1,-1,-1,0
1523147237742378,-1,2,-4,2,-1,-2,-1,-1
1523147237762431,-2,-4,7,-2,1,1,-1,0
1523147237762431,-5,-3,-18,-9,-2,0,-2,-2
1523147237764434,-2,0,1,-2,-12,-6,-3,1
1523147237764434,0,-1,2,-4,2,-2,-1,0
1523147237777535,1,-1,2,22,7,-1,-2,-2
1523147237777535,1,-1,9,6,6,3,1,1
1523147237784489,1,1,-14,-13,-16,-5,-1,-1
1523147237784489,-2,-2,-2,11,5,2,-2,-3
1523147237800590,-2,-1,-7,-8,-3,-2,-2,-1
1523147237800590,-3,0,3,0,6,0,-1,-1
1523147237801534,-3,-3,-1,-1,6,2,0,0
1523147237801534,0,-1,1,-6,-6,-1,-3,2
1523147237822654,-1,0,3,14,6,-2,-2,-2
1523147237822654,1,0,-5,-23,-10,-1,2,0
1523147237824594,0,-1,3,19,2,0,-1,-2
1523147237824594,-2,-2,-17,-30,-7,-3,-1,-2
1523147237837692,-1,1,1,6,5,2,0,0
1523147237837692,0,-1,2,9,-3,-1,1,1
1523147237843704,-2,-1,-2,-7,5,0,-2,-2
1523147237843704,-1,0,8,16,-10,-2,-3,0
1523147237860754,-2,-1,-8,-1,-6,-5,-4,-5
1523147237860754,0,-1,-6,-15,-5,-2,-2,0
1523147237861693,0,-1,7,1,6,2,2,0
1523147237861693,-2,0,-10,-6,0,2,-2,-5
1523147237882808,-1,-1,0,1,-3,-1,1,0
1523147237882808,-1,1,4,8,-6,0,0,-2
1523147237884754,0,-1,-1,-5,8,-3,-4,0
1523147237884754,0,-2,-2,7,-6,0,2,-1
1523147237896846,1,-4,-4,-16,3,1,-2,1
1523147237896846,-1,-3,-16,17,-11,-5,-3,-2
1523147237903813,0,0,1,-24,-2,-1,1,-1
1523147237903813,-2,2,7,9,7,0,1,-1
1523147237920900,0,-2,-3,-1,5,-4,-2,2
1523147237920900,-1,-2,3,-15,-7,6,1,-1
1523147237921860,0,-1,-1,10,2,-4,-3,-1
1523147237921860,0,-1,-3,-6,0,-2,-4,0
1523147237942974,-2,0,-7,-8,-3,-2,1,-2
1523147237942974,0,-1,5,5,-4,-4,-1,1
1523147237944915,-1,-2,-3,-8,4,3,0,-2
1523147237944915,-1,0,6,0,0,-1,-1,0
1523147237957010,0,-3,-3,14,-5,-1,-1,-1
1523147237957010,-2,-1,3,-11,-2,-2,-2,-2
1523147237963967,-3,0,-4,13,-2,0,1,0
1523147237963967,-1,-1,3,1,1,-5,-1,1
1523147237980067,-1,-2,8,2,1,1,0,-5
1523147237980067,1,0,5,10,10,2,-1,-2
1523147237982013,-1,-2,-4,-7,-16,-2,-1,0
1523147237982013,-1,-4,-5,7,2,1,-2,-2
1523147238003133,-1,0,1,-16,-9,1,0,-2
1523147238003133,-1,0,-3,-14,5,-1,0,-1
1523147238004071,-3,-1,13,25,-1,-1,-1,-2
1523147238004071,-1,-1,-7,-18,-6,-7,-6,-3
1523147238016163,-1,1,-5,-5,4,3,3,3
1523147238016163,-1,-3,-2,24,0,-1,-2,-4
1523147238025188,-1,0,6,-25,-7,1,-3,1
1523147238025188,-4,-3,-5,36,0,0,0,-1
1523147238040234,1,-1,0,-22,-2,-3,-4,-2
1523147238040234,-2,-3,-1,-6,3,-3,-1,0
1523147238042174,-1,-2,-4,5,-2,-1,3,1
1523147238042174,0,-2,-2,-10,2,1,1,-2
1523147238063232,-3,0,-6,-12,-9,-1,-3,2
1523147238063232,-1,-3,-3,2,0,-1,-5,-3
1523147238064233,0,0,0,13,5,-1,-4,-1
1523147238064233,-2,0,-2,-22,5,-3,2,2
1523147238076335,-2,-1,2,33,2,8,3,-2
1523147238076335,-1,-1,7,-24,-10,-6,-2,-1
1523147238085340,-1,-1,-5,4,6,-1,0,0
1523147238085340,-1,-4,-2,-9,1,1,-2,0
1523147238100354,-1,-1,6,21,-3,-6,-1,-1
1523147238100354,0,3,-2,-24,1,-1,0,1
1523147238102337,-3,-2,-3,1,-6,-2,1,-2
1523147238102337,-1,1,5,4,0,0,1,-1
1523147238123454,-2,-3,1,0,3,-2,-2,0
1523147238123454,-1,-2,-3,13,-12,-3,-1,2
1523147238125428,0,0,-1,-24,4,3,2,-1
1523147238125428,0,0,-3,4,-7,-1,-1,-2
1523147238136484,1,-1,5,3,-1,-4,-1,0
1523147238136484,0,-4,-9,6,4,-1,0,-2
1523147238145448,-2,0,8,7,3,-1,-2,-1
1523147238145448,-3,-3,-16,-6,-8,0,-3,-2
1523147238160547,-1,-1,-3,-10,5,6,2,1
1523147238160547,-1,2,0,-18,-16,-2,-2,-1
1523147238161492,0,-3,-4,-2,6,-4,-3,-3
1523147238161492,-1,-1,2,-3,-10,2,3,1
1523147238182548,-2,2,-4,13,9,-3,-2,-2
1523147238182548,-1,2,0,16,12,2,2,1
1523147238184552,0,-1,0,-4,-12,-4,-2,0
1523147238184552,0,-1,4,-1,5,-3,-4,-2
1523147238196614,-2,-3,-2,-12,-13,0,1,0
1523147238196614,2,2,8,13,18,4,2,0
1523147238205632,-1,-6,-12,-14,-10,-2,1,-1
1523147238205632,1,1,8,-2,-1,0,-2,-2
1523147238220707,-1,1,-8,8,5,-6,-6,-2
1523147238220707,-1,-1,2,-26,-10,-3,-2,-2
1523147238221682,1,-1,3,4,-1,-2,0,-1
1523147238221682,1,2,2,8,4,1,2,0
1523147238242773,-2,-1,-4,-13,-5,-3,0,0
1523147238242773,-1,1,4,0,-8,0,-1,-1
1523147238244719,-3,-2,-7,9,1,1,-1,1
1523147238244719,-1,-1,2,-8,-1,-3,-1,1
1523147238256810,1,-2,0,-13,-2,-1,-2,-3
1523147238256810,0,-3,0,32,1,-1,0,2
1523147238265768,0,0,-18,-29,-10,-4,-3,-1
1523147238265768,-1,0,0,1,3,-1,-1,0
1523147238280856,-2,0,1,-12,-2,-2,0,0
1523147238280856,0,0,13,23,0,1,-3,-3
1523147238281819,0,0,-19,-1,2,0,-3,-1
1523147238281819,-2,-4,-7,-21,5,-4,-2,-1
1523147238302933,0,0,-4,-3,-2,1,2,-1
1523147238302933,-1,0,-3,-1,-2,-4,-2,-2
1523147238304874,-1,0,10,11,4,5,0,-2
1523147238304874,-1,-1,3,-2,-2,-2,-3,-2
1523147238316964,-1,-2,-2,8,-14,-3,0,-1
1523147238316964,-2,-2,-7,-1,7,0,-1,-3
1523147238325928,1,-1,3,-25,-1,-3,-3,1
1523147238325928,-1,-1,-3,13,-2,-1,-2,-1
1523147238340030,1,1,7,37,5,3,3,1
1523147238340030,-2,-2,-13,-63,-7,0,-3,0
1523147238341974,0,4,1,22,0,-1,-1,0
1523147238341974,0,-3,9,7,8,1,2,1
1523147238363086,0,-1,-6,-2,-9,-5,-4,-4
1523147238363086,-2,-2,5,2,4,1,1,-1
1523147238364030,-2,0,-1,13,1,-2,-2,-1
1523147238364030,0,-2,-3,-4,-4,0,-1,-1
1523147238377117,0,-1,0,-11,-1,-1,-3,-2
1523147238377117,-1,-2,-3,-1,4,1,0,-3
1523147238385146,-1,-5,-2,0,-2,1,-2,-2
1523147238385146,-2,1,2,-1,1,0,1,0
1523147238400181,-1,0,0,-2,1,-1,-1,0
1523147238400181,-4,-1,-8,13,5,-3,-3,0
1523147238400181,-1,-1,7,-7,1,5,2,-1
1523147238400181,0,-2,-1,-1,-14,-1,0,-1
1523147238422251,-1,-2,-4,-23,0,-6,-5,-2
1523147238422251,2,0,-3,6,-5,1,3,-1
1523147238423186,-2,-4,6,10,7,-1,1,-6
1523147238423186,0,-1,-6,-4,-1,0,-4,-2
1523147238444242,0,0,5,13,2,-1,-1,2
1523147238444242,0,-3,-1,-14,6,0,-1,2
1523147238445245,1,0,0,7,-5,-4,-3,0
1523147238445245,-1,-1,-4,0,-1,0,2,0
1523147238459349,-1,-2,-4,3,-2,-1,-1,-2
1523147238459349,-3,-3,-8,-3,1,-3,-4,-3
1523147238460288,3,3,3,-6,-1,0,2,1
1523147238460288,0,-2,-1,-5,-6,-3,-4,-3
1523147238482404,0,-4,-7,3,3,0,0,-1
1523147238482404,0,-3,1,-1,-3,1,1,2
1523147238483348,-2,2,4,-9,-1,-1,-1,0
1523147238483348,0,1,3,12,5,0,-1,-1
1523147238504467,-2,-4,0,-10,-1,-3,-1,-2
1523147238504467,-3,1,-13,-23,-14,-5,-4,0
1523147238505407,-1,-3,1,-11,2,-2,0,0
1523147238505407,0,0,-6,7,6,0,0,-2
1523147238519504,3,4,6,2,-10,-2,0,0
1523147238519504,1,0,2,1,3,-3,0,-2
1523147238520447,-3,0,0,5,0,0,-2,0
1523147238520447,-3,0,3,-8,0,-2,1,-1
1523147238542743,-1,-1,-4,0,-4,2,2,2
1523147238542743,-2,0,5,0,-3,-3,-2,-2
1523147238542743,0,1,-1,20,0,-1,-2,-2
1523147238542743,0,-2,-12,-30,1,-2,0,2
1523147238564808,-2,0,-4,-11,-10,1,-2,0
1523147238564808,-1,-3,1,9,1,-1,0,-1
1523147238565751,0,0,7,11,4,-1,-2,-1
1523147238565751,-2,-4,2,12,-2,1,-1,-2
1523147238579853,-3,-3,-4,-4,0,-6,-2,-1
1523147238579853,0,0,6,13,-3,4,-3,-1
1523147238580791,-2,0,-4,8,-1,-4,-2,-1
1523147238580791,-1,-3,-7,-1,-3,-1,0,2
1523147238601907,0,3,-2,-25,-3,-3,0,-1
1523147238601907,1,4,7,27,-2,-1,1,1
1523147238602852,0,-5,2,-13,-3,-1,0,-2
1523147238602852,1,1,-8,3,1,6,0,-1
1523147238624973,0,-1,5,13,1,1,-3,0
1523147238624973,-2,1,-5,-6,0,-3,-1,-1
1523147238625910,-1,1,3,5,-2,-2,-2,-1
1523147238625910,-3,0,14,4,-1,-1,0,-3
1523147238640008,-1,0,-11,-31,-5,3,1,0
1523147238640008,0,-2,5,54,0,-1,0,0
1523147238640952,-1,1,-8,-16,5,-2,-2,0
1523147238640952,0,0,7,10,-4,-4,-3,1
1523147238662008,0,0,4,-25,5,3,0,-1
1523147238662008,-1,-1,-3,6,-8,1,3,0
1523147238663009,-2,-2,2,4,-3,-1,-1,-2
1523147238663009,-2,0,-3,6,1,-5,-5,-2
1523147238685146,-1,-2,4,-1,3,0,0,-1
1523147238685146,-1,-1,-1,-12,-2,-3,-2,0
1523147238685146,0,-4,-13,4,-2,1,1,-1
1523147238685146,-2,-2,-11,-12,-6,-4,-2,-1
1523147238700169,0,1,3,17,7,-1,-1,1
1523147238700169,-1,-4,-6,-42,-7,-2,-3,-3
1523147238700169,-2,0,-2,-41,-6,-2,-2,-1
1523147238700169,1,-1,6,22,-1,-1,-2,-3
1523147238722231,-1,3,-1,-6,-1,0,-1,-1
1523147238722231,-1,-7,-5,-7,2,-3,-1,-2
1523147238723169,0,-4,-2,12,-2,0,-1,-2
1523147238723169,2,3,-1,-6,0,-2,0,-1
1523147238744225,-1,-2,1,16,0,-3,-2,-1
1523147238744225,-2,-1,-4,-5,2,1,0,-2
1523147238745228,0,-1,-2,-3,-4,-2,-1,-1
1523147238745228,0,-3,2,-12,-2,-2,-2,-1
1523147238759326,0,-2,-3,17,2,0,-2,-3
1523147238759326,-1,0,-1,-9,3,1,-1,1
1523147238760268,-1,-1,1,-12,-4,-2,-2,-1
1523147238760268,0,0,5,43,5,0,1,-1
1523147238782394,-2,-3,-9,-37,-5,-5,-3,-1
1523147238782394,-1,0,-7,-18,-4,-2,0,-1
1523147238783330,0,1,4,-12,1,-1,-1,-2
1523147238783330,-3,0,-5,-5,-3,0,1,-2
1523147238804578,-1,-3,5,25,0,-1,-1,0
1523147238804578,-1,0,2,2,-1,-1,-1,-4
1523147238805517,-1,0,1,0,-1,0,-1,-1
1523147238805517,-1,-1,-2,-48,-6,0,-1,-1
1523147238819614,-1,-5,-2,7,0,0,-2,2
1523147238819614,0,-2,-1,-7,0,1,-3,-4
1523147238820557,-2,-3,1,-14,0,1,0,-2
1523147238820557,0,-1,-10,-4,-2,-4,-1,1
1523147238842615,0,1,2,24,1,-1,-1,-3
1523147238842615,2,1,-3,-28,-3,-2,-3,-1
1523147238842615,-1,1,3,24,1,0,0,0
1523147238842615,-2,-2,-1,0,-1,1,1,0
1523147238864676,-3,-1,-1,16,1,-2,-1,-1
1523147238864676,-1,2,5,16,3,0,0,-2
1523147238865677,1,1,-6,1,-5,-3,-2,-1
1523147238865677,0,-5,0,-3,2,-1,-1,0
1523147238879774,-2,3,-1,-13,-3,0,1,-2
1523147238879774,-1,-7,0,9,0,-3,-2,-1
1523147238880718,-1,-4,-1,3,-2,-2,-3,-2
1523147238880718,-2,-1,-1,-7,-2,-1,-3,-1
1523147238901775,0,1,-2,-6,-1,0,3,2
1523147238901775,-1,-1,-3,-21,-5,0,1,2
1523147238902778,1,2,7,4,-1,1,-2,-1
1523147238902778,-1,-2,-10,8,-1,-3,-2,-2
1523147238924908,1,-1,2,-7,0,0,-4,-4
1523147238924908,0,1,0,13,0,0,2,-2
1523147238925844,-3,-2,-3,-8,-2,0,-2,-1
1523147238925844,-1,2,4,11,1,1,-2,1
1523147238938932,-2,-7,-3,-5,-4,-2,-2,0
1523147238938932,0,0,-5,12,3,2,-1,0
1523147238954979,1,0,0,8,-1,-1,1,-1
1523147238954979,0,1,4,-10,-5,1,-1,1
1523147238961933,-3,0,-14,-10,3,-5,-4,-1
1523147238961933,-2,0,3,19,-2,-1,-1,-2
1523147238962936,-2,-3,-2,20,2,-2,0,-1
1523147238962936,-1,-1,2,-21,-5,-1,-2,-4
1523147238985002,2,1,2,15,8,7,6,1
1523147238985002,0,1,3,0,-2,-3,-1,2
1523147238986002,-2,-2,-8,-3,0,-3,-3,-2
1523147238986002,-2,0,0,5,-1,0,-1,-2
1523147239000095,-3,-7,1,2,-6,-4,-4,-1
1523147239000095,-1,4,4,5,1,1,1,0
1523147239000095,0,-1,-4,6,-4,-3,-1,2
1523147239000095,-2,-2,-5,0,5,-1,-3,-3
1523147239022160,-2,1,9,15,-14,-4,-1,-1
1523147239022160,1,-1,-4,19,2,7,2,1
1523147239023096,-1,0,2,1,-3,-2,-1,-2
1523147239023096,1,2,-1,-5,3,0,1,0
1523147239045154,-1,-1,-1,2,4,0,0,-2
1523147239045154,-1,1,9,11,2,-7,-4,-1
1523147239045154,-3,-4,-18,-19,-1,0,-2,-1
1523147239045154,-1,1,0,5,-2,0,1,0
1523147239059266,0,-2,2,-14,1,1,0,-1
1523147239059266,-2,-2,-3,-21,-14,-5,-2,-1
1523147239067212,2,-2,-2,-23,8,-3,-1,-2
1523147239067212,-3,-1,0,-7,-1,-5,-2,-1
1523147239082313,0,1,-1,34,1,1,-1,-1
1523147239082313,0,-1,-2,-27,-2,0,0,-1
1523147239083256,-4,-4,-9,-31,-8,-1,-3,-2
1523147239083256,-1,-3,13,55,4,4,-1,-3
1523147239104311,0,2,-6,-40,-3,-5,-3,0
1523147239104311,0,1,-1,-4,-2,0,-2,1
1523147239105317,-1,2,10,6,1,0,2,2
1523147239105317,1,-4,3,-9,-2,-1,2,-1
1523147239119412,1,-1,3,35,3,2,1,-1
1523147239119412,-2,-1,-6,-25,0,-5,-5,-1
1523147239127506,0,2,-1,-35,-9,0,2,1
1523147239127506,-7,-9,-1,23,5,-3,-5,-4
1523147239142597,1,-1,3,11,1,-2,-1,-2
1523147239142597,-3,-3,-3,-33,-3,-1,-2,-4
1523147239142597,2,3,3,-27,-2,1,-1,1
1523147239142597,2,-1,4,-2,7,2,1,1
1523147239164604,-5,-3,-6,-9,-1,2,-1,-3
1523147239164604,0,-1,-6,48,1,-4,-2,2
1523147239165615,0,4,4,12,2,1,0,-1
1523147239165615,-2,-2,0,-1,-2,-2,-2,-2
1523147239179681,-1,0,-1,-26,-4,0,-1,0
1523147239179681,-2,-6,-7,30,1,-2,-1,0
1523147239187821,-3,-5,-2,-28,-5,-2,-2,-3
1523147239187821,0,2,-4,-4,-2,-2,0,-1
1523147239202825,0,0,5,3,-2,1,-2,1
1523147239202825,0,-3,-3,-2,3,2,-1,-1
1523147239202825,-3,1,-1,33,0,-3,-2,-1
1523147239202825,-2,0,-7,-30,-11,-1,-2,1
1523147239232784,-1,-2,-15,-26,-8,-5,-3,-2
1523147239232784,1,-2,4,5,5,0,-2,-1
1523147239233785,-3,-3,1,34,1,-1,-1,-2
1523147239233785,0,1,1,17,-4,0,-1,0
1523147239238932,-1,0,-6,5,3,-1,0,-1
1523147239238932,0,0,4,-18,7,0,0,0
1523147239246925,2,0,3,20,-4,-1,-3,0
1523147239246925,-2,-7,-1,0,-1,-2,-2,0
1523147239261861,0,0,3,26,-3,-1,-1,0
1523147239261861,0,1,-1,-12,-4,0,0,-3
1523147239262865,-1,7,5,-5,4,-1,-2,2
1523147239262865,-1,-1,-4,-7,-3,-1,2,1
1523147239285027,-2,-12,-12,-15,-4,-1,-1,-4
1523147239285027,0,4,-1,17,2,-4,-2,2
1523147239285926,0,-2,8,15,0,1,1,-1
1523147239285926,-2,3,-10,-33,-5,-3,-2,0
1523147239299065,-3,-8,-3,-5,-2,0,-1,-1
1523147239299065,-3,3,3,5,-1,0,2,-2
1523147239307085,1,2,-14,-27,-5,-2,1,0
1523147239307085,1,-11,1,7,6,-2,1,0
1523147239322129,0,6,8,9,-1,-3,-4,0
1523147239322129,-3,-9,-9,-3,-4,1,-1,-3
1523147239323023,0,3,4,50,3,-3,-3,-2
1523147239323023,0,1,2,-37,-3,-2,1,-3
1523147239345083,-2,-1,-2,9,7,-2,0,-1
1523147239345083,1,2,2,-6,-1,-1,-2,-1
1523147239345083,-2,-5,1,33,2,0,-1,1
1523147239345083,-2,-3,-10,-42,-15,-5,-2,-2
1523147239359231,1,4,3,-3,2,0,0,0
1523147239359231,-4,-4,1,14,2,-3,-1,-3
1523147239367144,-1,-5,-11,-75,-2,-3,-4,-2
1523147239367144,-2,6,6,26,-1,-2,-2,-2
1523147239382285,-2,-5,-19,-51,1,1,-2,0
1523147239382285,-2,-4,-1,11,-10,-2,1,-1
1523147239383183,-1,-5,-3,26,1,0,-1,-5
1523147239383183,1,1,-1,-17,0,1,2,2
1523147239404240,0,5,6,0,-1,-3,-1,1
1523147239404240,2,3,11,14,2,2,0,-2
1523147239405281,-2,-6,-9,0,-4,-2,-4,-4
1523147239405281,-1,6,0,-3,-1,-2,-2,2
1523147239428305,0,-6,3,-16,-7,1,1,1
1523147239428305,-1,0,0,20,-1,-1,-1,-4
1523147239428305,1,2,-1,-48,3,0,1,0
1523147239428305,-1,1,4,27,11,-2,-2,1
1523147239442415,-1,4,7,27,-4,-1,2,0
1523147239442415,-3,-2,-7,-20,-3,-3,-4,-2
1523147239443344,0,2,2,-15,-5,0,3,-2
1523147239443344,2,2,10,24,4,2,-2,-2
1523147239464468,-1,1,-2,-4,-7,-4,-1,0
1523147239464468,-2,-9,-12,-4,0,-2,-1,0
1523147239465405,-1,-1,6,32,4,1,1,-1
1523147239465405,1,-1,-4,0,-2,-1,-2,-3
1523147239487534,-2,1,19,7,2,3,0,2
1523147239487534,-2,-2,-17,-47,-4,-2,-4,-3
1523147239488488,-4,-4,-7,-5,-8,-5,-4,-2
1523147239488488,-1,-1,2,12,3,1,1,0
1523147239501662,1,0,-2,-7,-8,-2,-3,-2
1523147239501662,-2,-3,13,13,5,2,1,0
1523147239509655,-2,-3,-10,11,-2,-1,-1,-1
1523147239509655,-1,1,-5,-34,-7,-3,-2,-2
1523147239524653,-3,-4,-2,15,-2,0,0,-2
1523147239524653,-2,1,2,8,2,2,-1,1
1523147239525653,0,-3,5,25,9,1,1,0
1523147239525653,-2,-5,-7,-18,-10,-4,-1,-3
1523147239547757,-3,-2,-7,2,6,-3,-2,-2
1523147239547757,0,4,2,-12,-3,-1,1,2
1523147239548713,0,0,5,4,2,1,1,-1
1523147239548713,-1,-2,-5,6,3,4,2,2
1523147239561749,0,-2,-2,-6,-4,-3,-2,-1
1523147239561749,0,-1,1,-2,6,2,-2,1
1523147239562751,-2,1,2,2,2,-1,-3,-1
1523147239562751,-1,-3,-5,42,-6,-2,-1,-2
1523147239585337,-3,1,-6,-72,-3,-4,-2,-1
1523147239585337,2,2,7,-4,-1,-1,-1,-1
1523147239586100,-1,-1,1,15,0,-1,-2,-2
1523147239586100,0,0,1,7,2,-1,-2,1
1523147239608398,-3,-5,-9,-4,-6,1,-1,-2
1523147239608398,-1,-2,3,-27,-8,-1,2,0
1523147239608398,0,-3,-2,-32,-1,0,0,-1
1523147239608398,-2,0,0,22,9,-3,-3,-2
1523147239622196,3,3,2,23,1,-2,-1,1
1523147239622196,0,-1,-3,0,1,-2,-2,-2
1523147239623199,-1,0,-4,-23,-7,1,-1,-3
1523147239623199,-3,-4,-5,-36,-9,-1,-3,-2
1523147239645293,1,-2,5,28,4,-1,0,-2
1523147239645293,-1,2,-2,-23,-4,-3,-1,1
1523147239645293,-1,1,-2,15,-3,-3,-3,-1
1523147239645293,-1,-1,3,6,6,0,-2,2
1523147239668446,-3,-3,-5,-7,-2,-1,-2,-2
1523147239668446,0,0,1,8,-1,0,-1,0
1523147239668446,-2,2,7,-4,1,0,-1,0
1523147239668446,2,-3,4,-21,-10,0,-1,-3
1523147239682556,0,2,-28,0,-2,-5,-4,-1
1523147239682556,-1,1,-5,1,-5,-1,-1,1
1523147239683358,-1,-1,4,-5,2,0,-1,0
1523147239683358,-1,-10,-1,-10,-3,-1,0,-2
1523147239704580,-1,1,2,32,1,0,-1,2
1523147239704580,-1,-2,-4,-19,-4,0,0,-1
1523147239705418,-1,1,-4,2,-1,0,0,-1
1523147239705418,0,0,0,2,-1,1,0,0
1523147239727479,0,1,11,23,-5,-6,-3,-2
1523147239727479,-2,-1,-9,7,6,-5,-4,-2
1523147239728481,-1,3,4,22,-10,3,1,1
1523147239728481,0,0,-10,4,5,-3,1,2
1523147239742591,-1,-3,3,-23,-2,4,2,-1
1523147239742591,-1,2,1,35,2,-3,0,-1
1523147239742591,-2,-3,-5,-14,-2,-3,-3,-1
1523147239742591,0,0,2,2,-4,0,-1,-2
1523147239764644,0,-3,1,-24,2,1,0,-1
1523147239764644,-1,-2,6,40,1,-3,-2,-1
1523147239765577,0,-3,-22,3,1,1,2,1
1523147239765577,2,3,2,8,4,0,3,1
1523147239788714,-2,-1,6,-39,-10,2,1,1
1523147239788714,-2,1,3,26,10,-3,-4,-3
1523147239788714,0,-3,5,10,2,-2,-1,-1
1523147239788714,0,2,-2,-14,3,-2,-4,-1
1523147239802675,-1,-2,-2,8,3,0,1,-1
1523147239802675,-3,-5,-4,-21,-8,-1,-3,-5
1523147239802675,-3,-1,0,-2,-6,1,-1,-1
1523147239802675,-2,-2,-2,16,2,1,0,1
1523147239824810,-4,0,2,9,2,-1,0,-2
1523147239824810,-1,-2,-6,-38,-5,1,0,-1
1523147239825737,-2,-2,1,0,6,-5,-2,-3
1523147239825737,-1,2,5,1,-5,-1,-1,-2
1523147239847874,-3,-1,-8,12,4,0,-3,-2
1523147239847874,3,3,-3,-33,-10,0,2,-1
1523147239848799,-2,-3,2,-1,1,-2,1,-2
1523147239848799,-3,-2,3,5,-2,-1,-1,-4
1523147239861901,1,-2,1,8,6,0,1,-1
1523147239861901,-3,-1,-1,33,4,1,-1,1
1523147239862839,0,-1,4,-45,-7,-2,-4,-3
1523147239862839,0,-3,-7,1,-3,-1,-2,-2
1523147239884964,-2,-1,2,18,4,-1,1,-1
1523147239884964,-1,-4,-1,-6,-2,3,4,1
1523147239885898,0,-2,1,13,4,-1,-1,1
1523147239885898,-2,0,0,-2,0,-3,-4,1
1523147239908180,1,0,2,-22,0,3,-3,1
1523147239908180,-3,-2,-7,10,-3,-2,-2,-5
1523147239909111,-1,-2,-2,-9,-6,-2,1,0
1523147239909111,-2,-5,-4,-7,-3,-4,-1,-2
1523147239922218,-1,2,5,23,0,-1,0,-2
1523147239922218,0,1,-5,-49,-10,-1,0,0
1523147239923144,0,1,1,18,3,2,-2,0
1523147239923144,-2,0,-1,9,1,-1,1,-1
1523147239944202,-2,-2,3,-3,1,-4,-2,-3
1523147239944202,0,-3,-8,-14,-3,-2,-2,-3
1523147239945249,0,1,1,5,0,-3,-2,0
1523147239945249,-1,-1,0,-4,-2,1,0,1
1523147239968265,1,-2,7,16,1,-1,1,-1
1523147239968265,0,-1,-12,-10,0,0,1,0
1523147239968265,-3,-4,0,10,4,0,-1,-1
1523147239968265,-3,0,-7,-3,-5,-3,-3,-3
1523147239982467,0,0,-4,-18,-3,0,-3,-2
1523147239982467,2,1,10,36,3,-1,-3,-3
1523147239983401,0,-4,-1,-20,-2,3,3,0
1523147239983401,-1,1,-1,10,-8,-2,-1,2
1523147240004530,-3,-1,0,5,4,1,2,-1
1523147240004530,0,-1,4,2,-2,-3,-3,1
1523147240005459,0,-2,-7,-1,-1,-2,-3,-3
1523147240005459,-1,-1,0,0,4,0,0,-3
1523147240027518,-1,-1,-6,-14,-6,-2,0,0
1523147240027518,-4,0,0,7,4,2,2,2
1523147240028519,-2,1,3,3,-1,-1,-1,1
1523147240028519,1,-3,-2,-11,-4,-2,-2,-1
1523147240041626,1,-3,-5,-5,-5,-1,-1,-2
1523147240041626,-2,-1,3,-4,-2,0,0,-2
1523147240049576,-1,-2,1,10,2,0,-1,0
1523147240049576,-1,-1,-1,3,1,-1,-3,-1
1523147240065667,-2,-3,-8,-31,-5,-2,-3,-2
1523147240065667,0,-2,-3,-19,-3,1,1,1
1523147240065667,1,-1,4,1,1,1,0,1
1523147240065667,0,0,9,25,4,1,-1,-2
1523147240087759,0,1,-3,-3,-2,-3,-2,1
1523147240087759,0,-1,3,-1,3,-1,0,0
1523147240088678,-3,0,-3,5,-4,-3,-3,0
1523147240088678,-2,-1,-6,-63,-4,-4,-1,-1
1523147240101782,0,3,2,8,1,3,2,0
1523147240101782,-1,-4,-1,16,-1,0,0,-1
1523147240109738,-2,1,0,0,-1,-1,2,1
1523147240109738,0,4,5,-1,3,1,0,-2
1523147240124849,0,-4,4,94,-3,3,1,0
1523147240124849,-3,1,-15,-99,-8,-7,-5,-1
1523147240125778,3,0,3,5,0,-2,-1,-2
1523147240125778,-1,0,-1,17,-1,2,1,0
1523147240147837,-1,-2,-7,-44,-1,-3,-2,-1
1523147240147837,0,0,10,32,0,0,0,-1
1523147240148840,1,0,-5,-13,-6,-2,-3,-1
1523147240148840,0,-2,-4,4,1,-1,0,1
1523147240161951,0,0,5,3,0,-1,0,-2
1523147240161951,2,1,6,11,2,1,1,-1
1523147240169963,-4,-2,-13,-40,-9,-6,-4,-4
1523147240169963,0,-2,6,14,1,2,0,-1
1523147240184936,0,1,-12,9,-2,-3,-1,1
1523147240184936,-2,-3,-5,-21,-6,-3,-2,-3
1523147240185951,0,0,8,18,12,2,1,1
1523147240185951,1,2,-6,6,1,-2,2,2
1523147240208069,-1,1,2,-20,-2,-3,-2,-1
1523147240208069,-2,1,3,28,2,-1,-1,-1
1523147240208999,-3,-5,-5,-32,-9,0,-1,0
1523147240208999,0,-3,-5,-18,-4,0,-2,-2
1523147240230123,-3,1,-1,-14,-1,0,-1,-2
1523147240230123,-1,-2,1,30,4,2,2,-2
1523147240231057,-2,-3,1,20,-7,-3,0,-2
1523147240231057,-2,0,2,-34,0,-4,-2,1
1523147240245188,-2,-3,-6,-29,-9,-4,-2,-3
1523147240245188,0,-1,0,6,4,-1,-2,-3
1523147240245188,1,1,-4,25,5,0,1,0
1523147240245188,0,-3,6,1,-3,2,0,-1
1523147240268229,0,-2,-2,3,9,-2,-1,2
1523147240268229,-3,0,1,-1,-10,-1,-1,0
1523147240268229,-1,-1,-3,-27,0,-1,-3,-3
1523147240268229,-2,2,4,7,1,-2,0,0
1523147240281192,-1,-1,-1,24,2,3,-1,-4
1523147240281192,-2,-2,-4,-20,-1,-1,-1,2
1523147240289285,-1,-3,-3,3,-2,0,0,-2
1523147240289285,-2,-2,4,7,-7,-1,-1,-2
1523147240313356,-2,-2,-12,13,3,-4,-2,1
1523147240313356,0,-2,-2,17,4,3,0,0
1523147240313356,1,-1,0,6,-1,-2,-2,-2
1523147240313356,-2,-2,-5,2,-5,-4,-2,-2
1523147240328355,-2,0,9,0,-2,1,0,-3
1523147240328355,-1,-1,2,9,-2,-2,-2,0
1523147240328355,-1,-3,1,0,5,1,-1,-1
1523147240328355,2,0,-5,14,3,0,0,0
1523147240350444,-1,-4,-5,-27,-5,-2,-4,-3
1523147240350444,-1,0,-4,-3,-3,-2,-3,1
1523147240351378,-1,1,4,23,-1,-1,-1,-2
1523147240351378,-3,-3,-2,-14,-1,1,-1,-2
1523147240364486,-2,1,1,9,-1,-2,-1,3
1523147240364486,0,1,-5,-11,1,-1,1,-1
1523147240365417,-2,1,0,-15,-4,-1,-2,0
1523147240365417,-1,-3,-6,-12,-5,-1,-2,0
1523147240387546,-1,0,5,16,3,0,0,1
1523147240387546,-1,0,5,31,5,0,-2,-3
1523147240388491,-1,-3,5,-37,-15,0,1,-2
1523147240388491,-2,0,-9,-22,4,-2,-2,0
1523147240410538,0,1,4,21,0,-2,-2,0
1523147240410538,-2,-1,0,-4,-7,-3,-2,0
1523147240411543,-2,-1,-1,13,4,0,0,2
1523147240411543,0,0,4,7,-3,0,2,-1
1523147240424647,-2,0,0,-14,-2,-2,-1,-2
1523147240424647,-1,-2,-1,-16,1,-1,0,-3
1523147240425575,0,0,-2,18,-3,-3,-1,0
1523147240425575,0,1,-11,-6,0,-3,-2,-1
1523147240447705,-1,-2,0,-1,0,2,1,0
1523147240447705,0,2,-3,-21,-4,-3,0,-1
1523147240448636,-1,0,-2,-4,-1,-1,-1,-2
1523147240448636,-1,0,3,3,4,0,0,1
1523147240470768,-1,-2,3,3,-2,0,-2,-1
1523147240470768,-1,-4,4,25,5,1,-1,-2
1523147240470768,0,-1,-11,-60,-10,-3,-2,-2
1523147240470768,-2,-3,-4,2,1,0,0,1
1523147240484810,-2,0,-6,-26,-9,-3,0,-1
1523147240484810,0,-2,1,1,3,-2,-1,3
1523147240485735,-1,1,4,32,4,-2,-1,-2
1523147240485735,-2,-1,1,11,0,-1,0,0
1523147240507875,-1,1,1,-21,-3,0,1,-1
1523147240507875,-1,0,5,40,0,2,-2,0
1523147240508796,-3,1,-5,-41,0,-2,-3,0
1523147240508796,0,1,-6,-18,-8,-2,-3,1
1523147240529913,1,-3,-1,9,3,-2,-2,-1
1523147240529913,-2,-1,4,8,-2,-2,2,-3
1523147240530907,-2,0,-14,-13,-3,1,1,1
1523147240530907,-1,-2,6,21,5,2,1,-2
1523147240544953,2,0,-1,-9,-9,-1,-3,-2
1523147240544953,0,0,-6,-1,3,-1,-3,0
1523147240545897,0,0,4,-4,-3,0,-3,1
1523147240545897,-2,-1,4,22,-5,-3,-1,0
1523147240568014,1,-2,-5,18,4,-1,0,-1
1523147240568014,-1,0,4,-11,-5,-2,-1,0
1523147240568958,1,-2,3,34,2,0,1,-1
1523147240568958,-1,-2,-6,-7,-2,-1,-1,-1
1523147240590078,-1,-2,0,-10,1,1,-3,0
1523147240590078,-2,-3,-6,-5,-2,-2,-2,-3
1523147240591018,-1,-1,-2,-4,3,-2,-2,-2
1523147240591018,0,-2,4,5,0,1,1,-1
1523147240605118,-3,-2,-2,-1,-3,-2,-1,1
1523147240605118,-1,-1,-6,-9,0,1,-1,-3
1523147240605118,-3,0,3,29,0,-1,-2,-1
1523147240605118,-1,1,3,-7,2,0,2,0
1523147240628307,-4,-4,-7,-22,-5,-1,0,-1
1523147240628307,-1,-2,-2,3,-2,-3,-1,0
1523147240628307,-3,-1,0,9,-1,-3,-2,-1
1523147240628307,1,-3,5,-1,-1,3,0,-2
1523147240650377,0,-1,-11,-3,2,0,0,-1
1523147240650377,0,-1,-2,-12,-6,-4,1,-1
1523147240651318,-1,0,3,18,3,3,0,0
1523147240651318,-2,1,-9,-20,-6,-3,-3,-3
1523147240664412,-1,-2,2,18,3,0,-2,0
1523147240664412,-1,0,-5,-3,-3,-1,-2,-2
1523147240665355,0,-4,-1,-4,2,1,2,0
1523147240665355,-2,1,5,30,-2,-3,-1,-2
1523147240688413,1,2,-2,-28,-4,0,-1,0
1523147240688413,-3,-1,-3,2,-2,-1,-1,0
1523147240688413,-1,-2,1,10,1,-2,-1,-2
1523147240688413,-2,-1,1,6,1,-3,-1,0
1523147240710474,-1,-1,7,6,2,1,1,0
1523147240710474,-2,0,1,-13,-4,-1,-1,-1
1523147240711475,0,-1,-9,13,-1,-2,-2,-2
1523147240711475,0,-3,-5,-16,0,1,2,-1
1523147240724574,-1,4,3,-1,-3,-4,-3,-1
1523147240724574,1,0,8,-5,1,0,-1,1
1523147240725512,-1,-1,-23,-9,-3,-3,-1,1
1523147240725512,-1,0,1,-10,-3,-1,-3,1
1523147240747623,-2,-1,3,8,1,-1,0,-2
1523147240747623,-1,0,2,3,11,3,1,-1
1523147240748576,-1,-1,4,-12,-7,-2,-4,-2
1523147240748576,-2,-2,-5,-2,-2,-2,0,-1
1523147240770697,-1,-1,-3,2,-3,0,-1,-2
1523147240770697,2,0,0,12,0,-2,0,-1
1523147240771639,-1,-2,5,-23,8,3,2,2
1523147240771639,-1,-1,-4,13,-6,-4,0,-1
1523147240784732,0,0,5,-9,5,-1,0,1
1523147240784732,-2,-2,-3,-4,-2,-1,-5,-1
1523147240785676,-2,-3,-5,19,3,0,0,-1
1523147240785676,0,1,0,-15,-1,-1,-1,0
1523147240807796,-3,-1,-1,0,-3,-1,-1,-1
1523147240807796,-1,-2,-3,0,-1,0,-3,-1
1523147240808734,1,-1,-1,7,-3,-1,1,-2
1523147240808734,-3,0,-2,9,1,1,-2,0
1523147240830804,1,-1,0,7,-6,-4,1,-3
1523147240830804,-1,-2,-7,-19,-6,-1,1,-1
1523147240830804,-1,2,12,-5,0,-1,-3,-1
1523147240830804,-1,-3,-4,-3,0,1,2,-1
1523147240844900,-1,-3,0,7,-3,-4,-1,-2
1523147240844900,0,-1,-3,-39,-3,2,0,0
1523147240845833,1,1,4,-3,7,1,1,-2
1523147240845833,-1,2,-3,-6,-21,-3,-3,0
1523147240867955,-4,-7,-7,-6,3,0,-2,-1
1523147240867955,0,-2,4,13,-8,-8,-3,0
1523147240868893,-2,-2,-1,2,9,5,0,-1
1523147240868893,0,0,-3,-42,2,-1,-1,-1
1523147240898036,1,0,1,18,0,-1,-1,0
1523147240898036,-2,0,-3,-1,-1,-1,-1,-2
1523147240898975,-2,-1,0,-3,-8,-4,-1,-2
1523147240898975,2,-2,9,8,6,1,1,0
1523147240904992,-3,0,-28,-10,0,-2,-3,0
1523147240904992,-3,-1,-4,-7,0,1,-1,-1
1523147240904992,0,1,5,8,-12,-5,0,1
1523147240904992,0,-1,-1,5,3,2,-1,1
1523147240928116,-1,-2,9,34,5,-2,1,-2
1523147240928116,-2,-2,-10,-65,-4,0,-2,-1
1523147240929054,0,2,0,25,-3,-4,-2,0
1523147240929054,-3,1,1,-3,5,3,1,-1
1523147240950175,0,-1,4,10,5,1,-1,-1
1523147240950175,-1,1,2,26,-3,0,-1,1
1523147240951116,-3,-3,-1,-17,-5,-2,0,-1
1523147240951116,0,0,-2,4,2,-1,-2,-2
1523147240973235,1,-1,5,-6,0,-1,-1,1
1523147240973235,0,1,2,16,2,1,1,1
1523147240974175,0,-1,7,-8,1,1,-2,-2
1523147240974175,-1,-3,-13,4,-6,-2,-3,-1
1523147240988276,-2,-1,1,-1,-3,-3,-1,-1
1523147240988276,-1,-2,0,2,-1,-2,-1,-2
1523147240988276,-2,-1,-4,4,-1,0,0,-2
1523147240988276,-3,-4,-1,-9,2,0,-1,-3
1523147241010276,0,4,0,-20,-5,-1,1,-1
1523147241010276,-1,-3,1,18,0,1,-2,-2
1523147241011273,1,-1,1,9,7,1,0,2
1523147241011273,-1,0,-1,-5,-5,-3,-1,-2
1523147241024377,-2,0,1,3,-5,-1,0,-1
1523147241024377,-2,-1,0,4,2,0,0,-1
1523147241032335,-2,-4,-5,-18,-4,0,0,-2
1523147241032335,0,-2,6,32,2,-4,-1,-1
1523147241048371,0,-1,7,-5,-1,2,0,-1
1523147241048371,1,1,-4,-7,4,0,1,1
1523147241048371,1,0,0,6,-10,-1,-2,-1
1523147241048371,-1,-2,-5,-5,3,-3,-2,-1
1523147241070495,-1,2,4,11,0,0,-1,2
1523147241070495,-1,0,0,-6,-3,0,0,0
1523147241071433,-3,-6,-9,-13,-7,0,-1,-4
1523147241071433,-2,1,3,7,1,-1,0,0
1523147241084471,2,1,-1,-13,-2,-1,-1,2
1523147241084471,0,-2,-8,10,-3,-2,-2,-2
1523147241092492,-1,-4,2,4,0,0,0,-1
1523147241092492,-1,-1,-6,-23,-2,-2,-3,-2
1523147241107594,-2,-9,-7,18,-1,-3,-3,-6
1523147241107594,-1,1,8,9,4,1,1,-3
1523147241108532,-2,0,-7,-30,-7,-4,-4,0
1523147241108532,1,0,-6,-19,-6,1,0,1
1523147241130655,1,2,7,2,1,2,-1,-2
1523147241130655,-2,-2,0,-19,1,0,-1,-2
1523147241131597,-3,-1,-12,-68,1,-7,-6,-1
1523147241131597,-1,1,10,24,6,1,0,-1
1523147241143629,2,3,0,-11,1,0,0,1
1523147241143629,-1,-4,-5,-3,-9,-1,-1,-3
1523147241152649,0,0,3,32,4,2,3,-2
1523147241152649,0,-1,6,40,7,1,-2,-2
1523147241175709,-1,3,2,-88,-9,0,0,2
1523147241175709,-4,-6,-25,-42,-17,-8,-5,0
1523147241176775,-1,-3,2,30,2,-1,-1,-3
1523147241176775,-2,-2,-3,26,-1,-2,-2,-2
1523147241190965,-1,2,8,11,5,5,2,1
1523147241190965,-2,-4,-5,-25,-5,-3,-1,0
1523147241190965,-2,1,-3,16,3,-1,-1,-1
1523147241190965,1,1,4,3,-3,2,1,0
1523147241204003,0,1,-3,16,1,-4,-2,-3
1523147241204003,-1,0,5,8,3,-2,-1,1
1523147241212808,0,-1,1,6,1,-1,-1,0
1523147241212808,-1,-2,-1,-13,-2,-1,1,0
1523147241227074,-3,-4,-4,-13,-4,-1,-1,1
1523147241227074,2,1,4,22,0,-1,-1,0
1523147241234079,-1,1,-3,-1,-3,-3,-2,0
1523147241234079,0,1,-1,-30,-5,-3,0,1
1523147241250911,-1,1,-3,17,-1,-2,-2,0
1523147241250911,-2,1,7,10,0,3,1,-1
1523147241251913,0,-5,-6,15,2,-1,-2,-2
1523147241251913,-1,-2,-3,-16,-2,-2,-2,-1
1523147241264119,-2,-1,-10,-6,-9,-4,-2,1
1523147241264119,-1,5,11,28,8,0,-2,0
1523147241272970,0,-1,7,27,1,2,1,0
1523147241272970,-2,-2,-9,-75,-18,-1,0,-1
1523147241287150,-4,-2,-10,-13,4,-6,-4,-2
1523147241287150,-1,-1,2,4,0,1,-1,1
1523147241294164,0,3,1,4,0,1,2,-1
1523147241294164,0,-1,4,-4,3,0,-1,-1
1523147241310122,0,-3,3,29,-6,-2,-1,-3
1523147241310122,0,-3,-7,-19,1,-2,-2,-2
1523147241312073,0,-2,4,43,1,1,3,-3
1523147241312073,-2,0,-9,-13,2,-3,-2,1
1523147241333371,0,-3,-2,-17,-6,-1,-2,-1
1523147241333371,-1,-1,0,2,-1,-3,-1,0
1523147241335133,2,2,5,0,5,1,-1,0
1523147241335133,-1,-3,-1,22,-1,-1,-1,0
1523147241347369,0,0,-3,4,-1,2,1,0
1523147241347369,-2,-3,2,3,1,-1,-2,-2
1523147241354386,1,2,6,-25,-5,-3,1,-1
1523147241354386,-4,-3,-13,2,0,-3,-3,-5
1523147241370394,1,-3,2,0,-4,-1,1,3
1523147241370394,-1,0,4,14,2,2,1,-1
1523147241372234,-1,-2,-4,-17,-8,-1,-1,-1
1523147241372234,0,0,8,19,12,0,-1,0
1523147241393288,-1,-2,-1,-27,-16,-4,-4,-4
1523147241393288,-2,-1,-13,9,2,-1,-1,-2
1523147241394293,-1,-1,-5,-20,-5,-2,0,-1
1523147241394293,0,3,7,43,4,2,1,0
1523147241407434,0,-3,-3,-27,-2,1,1,-4
1523147241407434,2,-2,7,20,0,-1,-1,-1
1523147241414345,-2,-1,-3,-7,-2,-2,-4,0
1523147241414345,-2,-2,-7,4,-4,5,2,-2
1523147241430493,-4,-1,2,30,20,1,0,-2
1523147241430493,1,4,1,-9,-10,-3,-1,1
1523147241432394,0,-1,-1,-1,3,3,0,-1
1523147241432394,-1,-1,3,11,-6,-4,-3,0
1523147241452558,-4,-2,-8,-11,-5,-3,-1,-1
1523147241452558,-1,-2,1,-4,2,-1,-2,-2
1523147241454453,0,-2,4,-9,0,-1,0,0
1523147241454453,0,0,2,28,-2,0,-2,0
1523147241467586,-2,-1,-17,-38,-7,-1,0,0
1523147241467586,-3,-3,-3,3,1,-2,-1,0
1523147241474505,0,0,1,-1,0,-3,-1,0
1523147241474505,-2,-2,-2,-8,0,-3,0,0
1523147241490659,0,6,14,38,8,1,0,-1
1523147241490659,-2,-10,-7,-7,-9,-2,0,-1
1523147241491550,-1,-2,-7,-8,1,-2,-5,-3
1523147241491550,1,1,3,-11,-4,-4,-2,-1
1523147241512712,-1,-1,-2,15,-1,-2,-2,0
1523147241512712,-1,0,-11,-22,-2,1,1,0
1523147241514612,-2,1,11,32,-3,0,1,-1
1523147241514612,0,-4,-7,-47,-2,1,1,-1
1523147241527648,1,-1,-4,3,-1,-4,-1,0
1523147241527648,1,2,9,3,0,0,1,0
1523147241533762,-1,0,-15,11,-2,-4,-2,2
1523147241533762,-2,-2,-3,-32,-6,-1,-1,-3
1523147241550819,0,-1,7,24,5,1,-3,1
1523147241550819,-1,1,0,-3,-2,-4,-1,-3
1523147241551712,0,-2,1,2,-1,-3,-2,-2
1523147241551712,0,0,4,4,-4,0,-2,-1
1523147241572885,-1,0,-1,2,-1,0,2,0
1523147241572885,-1,1,2,17,7,1,-2,0
1523147241574772,-1,1,4,-10,-8,-2,-1,3
1523147241574772,-1,-1,-10,8,2,-2,-3,-2
1523147241586909,0,-2,-2,-12,-1,0,-1,0
1523147241586909,-2,0,2,9,1,-2,-3,-3
1523147241593930,-1,0,4,-7,0,0,0,-2
1523147241593930,0,-1,5,6,4,-5,-1,1
1523147241610873,-1,-4,-2,8,-6,2,-1,-3
1523147241610873,1,0,-1,-12,2,1,3,1
1523147241611872,-1,-1,-8,-2,0,-1,-3,0
1523147241611872,0,2,7,16,0,-5,-4,-2
1523147241633017,-2,-6,-8,0,-1,1,0,-2
1523147241633017,0,-1,-3,-18,-5,-4,-2,-1
1523147241634964,1,1,-1,-5,-1,-2,-1,0
1523147241634964,0,0,-6,-10,-3,1,2,2
1523147241647062,-1,1,2,12,1,-4,-2,-2
1523147241647062,0,-1,0,5,-2,0,-2,-2
1523147241654080,-3,-4,0,-10,-5,-3,-2,-2
1523147241654080,-1,-3,-2,-4,-2,0,-1,0
1523147241670133,0,-2,4,23,3,0,-3,1
1523147241670133,1,-1,-3,-32,-5,-1,-2,2
1523147241672032,-2,-1,-15,-21,1,4,2,0
1523147241672032,0,-3,-2,12,-4,-2,-2,-2
1523147241700205,-1,1,2,2,4,0,-1,0
1523147241700205,-1,-1,1,2,2,-2,-2,-3
1523147241702112,-1,-1,4,13,-3,-1,-2,-1
1523147241702112,-1,-1,-2,-35,-5,5,2,-1
1523147241707223,0,0,-8,-12,-4,-4,-2,-1
1523147241707223,-3,0,2,30,4,-2,0,-1
1523147241714250,-2,-1,-5,-32,-4,-3,-3,-3
1523147241714250,-3,-2,2,28,4,-1,0,-1
1523147241731189,1,-2,-1,-13,-1,-3,-1,-2
1523147241731189,0,0,-3,-2,-1,0,1,0
1523147241732192,1,0,5,4,1,0,1,0
1523147241732192,-2,-3,-4,-8,-6,-5,-3,-5
1523147241753359,-2,-1,-5,1,-4,0,0,3
1523147241753359,-2,2,1,-8,-5,0,1,-1
1523147241754249,-1,-3,-1,9,-1,-1,0,-1
1523147241754249,0,0,1,-9,3,-1,-1,-2
1523147241767390,0,-2,11,13,-1,-1,-1,-3
1523147241767390,-2,-2,-17,-17,0,0,-3,-2
1523147241774360,-3,0,-2,6,-5,-7,-3,1
1523147241774360,-3,-2,-7,-24,0,-1,-1,0
1523147241790454,-1,-2,0,-3,-1,-1,1,-3
1523147241790454,0,-1,9,29,4,4,1,0
1523147241792353,0,-1,-2,1,1,1,-2,-2
1523147241792353,-1,-1,-3,2,0,-2,-2,-1
1523147241813406,0,1,0,3,1,-1,-2,-1
1523147241813406,-1,-1,6,-4,-4,0,0,-1
1523147241814412,-1,0,-12,-9,-2,-2,-2,-1
1523147241814412,0,-1,3,26,2,-3,0,0
1523147241826549,-1,-1,-6,-39,-5,-1,0,-2
