timestamp,emg1,emg2,emg3,emg4,emg5,emg6,emg7,emg8
1523145151675541,-4,0,-1,3,14,-6,2,-7
1523145151675541,-3,1,-1,-9,-67,-23,-13,-45
1523145151677552,4,0,-1,3,13,29,4,20
1523145151677552,1,0,-1,-4,-2,-13,0,15
1523145151697603,0,-2,1,3,-8,12,-1,-2
1523145151697603,-1,-1,0,-3,20,7,-1,-8
1523145151704118,4,-1,1,4,23,-14,2,76
1523145151704118,-4,-2,-2,-3,-27,-7,-7,-43
1523145151711637,-1,0,0,-2,3,-7,-1,10
1523145151711637,-2,0,-2,2,7,4,-2,-13
1523145151720663,-2,-3,-5,-12,-44,-7,-5,7
1523145151720663,1,0,-1,2,4,0,4,3
1523145151735726,0,-2,-1,4,19,7,2,4
1523145151735726,-2,-3,-3,-9,3,0,-22,-29
1523145151737209,-5,-2,-2,-10,-20,-11,-6,-20
1523145151737209,2,0,2,13,43,1,7,13
1523145151758276,-1,-3,-2,-5,-2,2,-2,-10
1523145151758276,2,0,2,7,62,22,8,9
1523145151759772,-2,-1,-2,-6,-14,-3,-4,-16
1523145151759772,-2,-1,0,4,-5,-7,-3,-8
1523145151771807,-1,-3,-3,-9,5,3,1,8
1523145151771807,0,1,0,2,20,9,2,-4
1523145151780823,-4,-4,-3,-2,-6,-7,-4,-13
1523145151780823,1,0,1,-3,27,4,4,16
1523145151795498,1,-2,-4,21,-11,4,-8,11
1523145151795498,-1,5,9,-9,-37,-4,16,-51
1523145151797368,-1,1,4,-5,-12,-1,-3,-13
1523145151797368,0,-3,-4,-3,-9,-1,3,17
1523145151818182,-4,-2,-7,-6,-5,-14,-7,-12
1523145151818182,0,-2,-6,-56,-30,13,-7,7
1523145151820046,2,5,11,91,74,17,6,4
1523145151820046,-4,-4,-4,-52,-11,-2,4,-6
1523145151831712,5,3,11,22,13,5,4,3
1523145151831712,-3,-6,-7,6,9,-12,-4,13
1523145151841607,-4,-5,-11,-54,-45,-4,-2,-9
1523145151841607,1,3,7,8,28,11,-2,6
1523145151855367,-4,-5,-18,-7,-13,-12,-5,-7
1523145151855367,1,3,19,20,14,9,2,9
1523145151861860,3,7,18,50,28,6,2,-1
1523145151861860,-2,-5,-10,6,-56,-16,-8,-7
1523145151878703,1,0,4,-7,46,11,8,1
1523145151878703,-1,-3,-17,15,-27,-5,-4,-2
1523145151879705,-1,-3,-14,-71,13,-2,-2,0
1523145151879705,-2,-1,-3,24,-3,-3,0,1
1523145151891741,2,5,20,67,-1,-3,-4,-2
1523145151891741,-3,-6,-9,-22,-15,-7,-5,6
1523145151900760,4,3,20,49,33,7,4,3
1523145151900760,-3,-7,-21,-28,-10,-3,-5,-3
1523145151914799,-3,-4,-5,-39,-44,-14,-4,-4
1523145151914799,1,2,8,31,17,-1,-5,-3
1523145151922101,-3,-5,-23,-14,-18,-10,-3,-3
1523145151922101,2,7,44,19,34,11,5,1
1523145151938444,1,2,6,29,30,4,2,4
1523145151938444,0,-1,-5,-40,-22,4,14,12
1523145151939866,-6,-6,-13,-18,-11,-22,-25,-23
1523145151939866,-2,-5,-18,-31,-27,-5,-3,-2
1523145151952149,-3,3,-38,-40,2,-14,-4,-8
1523145151952149,2,2,40,107,53,29,14,19
1523145151960924,-1,1,49,-12,-21,-3,-3,-3
1523145151960924,1,1,-11,6,9,-1,-1,-3
1523145151974959,-5,-10,-10,-37,-28,-8,-8,-2
1523145151974959,-1,1,-57,-26,-20,-15,-9,-9
1523145151982003,-1,-3,-17,-22,-15,1,5,3
1523145151982003,2,16,41,69,8,2,-1,0
1523145151998021,14,17,20,9,34,13,8,4
1523145151998021,-5,-9,-59,-13,18,-4,-6,-5
1523145152000025,-14,-47,55,-5,1,3,1,-3
1523145152000025,-10,-10,-35,-29,-2,-4,-1,-1
1523145152011805,3,-3,-16,-37,-23,-4,-3,0
1523145152011805,8,22,-4,21,1,0,-1,0
1523145152020582,4,2,-23,-8,-11,-6,1,3
1523145152020582,-8,-3,7,22,7,-5,-3,-3
1523145152035376,5,31,22,-30,-11,7,3,4
1523145152035376,-6,-41,-44,-14,-6,-8,-7,-5
1523145152041637,1,17,39,24,-14,0,4,2
1523145152041637,5,-17,-13,-30,-9,1,-1,1
1523145152058180,-19,-18,-40,-24,-22,-7,-4,-8
1523145152058180,-7,-30,118,42,-3,-1,-4,-5
1523145152059684,-2,2,-76,-20,1,3,1,0
1523145152059684,1,0,-69,-19,-22,-1,0,0
1523145152082027,9,28,9,28,5,-2,-4,-1
1523145152082027,3,12,-66,-37,-15,-11,-1,2
1523145152086755,1,8,87,44,-65,4,0,0
1523145152086755,7,19,20,46,93,7,1,3
1523145152095059,-6,-18,-42,-53,-33,2,0,-2
1523145152095059,-5,-12,-6,19,-24,-9,-3,-3
1523145152102030,15,20,15,67,46,24,12,8
1523145152102030,-3,1,-39,-30,-35,-5,-2,0
1523145152118463,-8,-27,3,-32,-20,-19,-12,-8
1523145152118463,0,12,38,15,30,16,3,1
1523145152119905,-8,-4,-82,-25,7,-22,-10,-5
1523145152119905,-2,-10,15,18,11,-3,4,-2
1523145152140464,7,12,43,5,31,29,6,5
1523145152140464,-4,7,-19,-39,-28,-7,-8,-4
1523145152141965,0,-1,13,-28,-23,-30,-8,-5
1523145152141965,3,-1,19,64,25,41,12,2
1523145152155299,-4,-6,10,14,19,-2,-1,-1
1523145152155299,-1,2,-20,-29,0,4,0,-3
1523145152161788,-2,1,-29,-23,19,-9,1,0
1523145152161788,5,2,34,-11,-5,4,4,6
1523145152178319,-2,-1,13,17,-15,-3,-2,-2
1523145152178319,-2,0,19,-57,-62,-13,-13,0
1523145152179565,-4,-9,-30,2,-22,-23,-4,-4
1523145152179565,-5,0,-3,-26,-25,-25,-6,-17
1523145152200621,1,-3,4,16,13,47,14,8
1523145152200621,2,-1,2,33,26,12,6,11
1523145152202127,3,6,-1,-24,31,25,2,5
1523145152202127,-2,-4,-23,-24,-26,-19,-6,-1
1523145152214160,-5,-8,14,29,-30,-24,-7,-8
1523145152214160,-3,-1,6,10,65,-10,-3,-3
1523145152223183,-3,-4,-12,-22,-53,5,2,7
1523145152223183,3,5,13,-12,6,13,0,20
1523145152238221,-1,-2,-24,-50,-16,-12,0,0
1523145152238221,1,9,45,25,5,14,3,3
1523145152239727,-1,-3,-5,32,33,-3,-5,-8
1523145152239727,-5,-7,-10,-32,-49,-42,-17,3
1523145152260784,-2,0,0,24,14,-20,28,-1
1523145152260784,7,10,8,1,4,74,-3,1
1523145152262286,0,-1,-13,-35,-22,35,4,-3
1523145152262286,-2,-8,35,55,-5,9,-9,-6
1523145152274355,-2,-1,1,-49,4,-19,-11,1
1523145152274355,-4,-3,-47,-23,-45,-46,-1,-11
1523145152283343,-5,-2,-8,-38,-2,-5,-9,-1
1523145152283343,-1,0,-56,27,19,-4,2,2
1523145152298381,-1,-7,71,45,14,-4,-7,-4
1523145152298381,-3,-1,-4,-57,-60,-22,1,-8
1523145152299887,0,-2,-26,-27,6,2,-2,1
1523145152299887,4,7,-12,53,31,6,9,-3
1523145152320513,-4,-4,-32,2,-39,-6,-11,-7
1523145152320513,-2,-6,22,41,-1,-5,-1,-1
1523145152321945,-3,-4,-3,7,37,-7,0,-4
1523145152321945,-4,-7,32,-4,-13,3,1,-6
1523145152334607,2,5,-18,-30,3,6,-2,0
1523145152334607,4,4,-18,-51,-9,7,8,9
1523145152342998,-1,-1,-15,26,23,-1,1,-2
1523145152342998,-3,-2,17,-51,-49,-6,-4,-7
1523145152358042,-3,-9,-9,19,15,4,-9,-2
1523145152358042,1,7,10,27,22,-15,-1,-1
1523145152359546,-4,-3,11,-21,5,-1,0,-3
1523145152359546,5,2,7,35,10,12,3,1
1523145152380599,-1,-3,-15,-6,-10,-2,-4,0
1523145152380599,-2,-1,23,3,24,-7,-8,-7
1523145152382105,2,1,-12,7,-15,-14,1,-3
1523145152382105,-1,1,11,-13,-22,2,1,0
1523145152394254,-2,1,-13,7,12,-45,-1,-6
1523145152394254,2,0,8,10,11,94,6,5
1523145152403161,3,0,22,8,-24,-4,1,10
1523145152403161,0,2,-3,-21,42,0,-2,-2
1523145152418297,-5,-9,-14,-10,-66,-18,-13,-7
1523145152418297,-6,-3,-13,-10,8,-39,-10,-4
1523145152419705,0,2,5,13,6,-9,1,-14
1523145152419705,0,-2,3,-18,-16,32,8,0
1523145152440759,2,4,11,23,-2,2,7,10
1523145152440759,-1,-1,-5,7,-5,-22,0,1
1523145152442265,-2,-3,1,0,14,12,-2,4
1523145152442265,-3,-2,-3,-17,33,-20,-7,-4
1523145152454296,0,-4,-5,11,-20,1,-9,-8
1523145152454296,-5,-7,-10,-20,-9,-2,3,-3
1523145152463319,-6,-4,-8,-30,-64,2,-7,-19
1523145152463319,-2,-1,0,-1,7,1,5,9
1523145152478969,-1,1,1,25,63,15,10,15
1523145152478969,4,4,1,5,20,-16,-14,-7
1523145152480365,1,1,9,8,-9,-1,3,12
1523145152480365,0,-1,-5,-11,-11,-9,-6,-8
1523145152500535,-3,-5,-9,-14,-14,17,4,-4
1523145152500535,-2,0,1,21,91,13,22,-5
1523145152502456,-3,-4,1,7,39,-4,-55,1
1523145152502456,-4,-2,-5,-16,5,-5,6,2
1523145152514475,2,5,8,33,35,-2,16,4
1523145152514475,-1,-2,-5,-33,-18,-36,-1,-11
1523145152523480,-2,-2,1,-8,-65,31,22,-10
1523145152523480,9,0,-1,-11,-6,-11,3,41
1523145152538156,-8,-7,-17,-24,-59,2,-15,-40
1523145152538156,-6,-4,-4,5,-40,6,-16,1
1523145152539524,1,-2,2,11,9,-43,-1,41
1523145152539524,-7,-1,-3,-12,-24,-5,-4,-101
1523145152560697,1,1,1,-3,-20,-8,9,12
1523145152560697,0,-1,-4,6,3,-4,-11,6
1523145152562083,-2,-2,0,1,-8,-13,-2,-5
1523145152562083,1,2,4,13,11,18,-4,19
1523145152574115,5,1,1,7,34,-6,-10,7
1523145152574115,-1,1,4,3,58,-5,16,-9
1523145152583139,6,4,6,13,49,47,16,14
1523145152583139,0,-3,-5,-8,14,0,10,15
1523145152598178,-5,-2,-1,-11,7,15,0,-7
1523145152598178,1,-5,-9,-5,29,-20,-13,11
1523145152599685,-5,0,-2,-3,-61,-18,1,-27
1523145152599685,3,4,3,8,49,-6,3,2
1523145152620238,1,3,8,4,57,29,10,7
1523145152620238,3,0,-1,6,-11,14,1,2
1523145152626757,0,-5,-6,-7,-14,-19,-3,10
1523145152626757,-5,-3,-3,-3,-24,-5,5,7
1523145152634276,-6,0,6,8,13,-15,-41,-39
1523145152634276,-4,-2,2,9,-44,-17,-7,-36
1523145152643176,7,5,3,0,15,3,12,56
1523145152643176,-3,-5,-9,-10,-47,-5,6,4
1523145152657212,4,-1,-3,-9,-9,37,21,19
1523145152657212,-6,-3,-7,-10,-34,-8,-23,39
1523145152664232,-2,1,5,-8,-23,-25,13,-76
1523145152664232,-4,-1,6,39,68,3,-17,-5
1523145152680774,6,2,5,11,33,-3,9,-3
1523145152680774,2,3,3,-12,-3,9,20,8
1523145152682318,2,1,2,4,32,31,-3,11
1523145152682318,0,1,0,19,0,-36,-8,16
1523145152694311,1,1,8,13,27,19,-2,-31
1523145152694311,-1,-3,-4,4,-1,-2,1,13
1523145152703335,-7,-2,-1,13,77,-13,-16,-21
1523145152703335,0,-1,-3,-13,-10,28,5,-13
1523145152717874,-1,-2,-4,-11,-22,-8,-3,19
1523145152717874,-1,-2,-8,-4,-24,-46,-4,20
1523145152719879,-4,2,4,-7,-12,16,-2,-26
1523145152719879,0,-1,3,2,-3,42,16,-7
1523145152740939,-1,-2,-4,-9,-22,-15,3,28
1523145152740939,0,-1,-1,0,-11,8,-2,-3
1523145152742440,-2,-1,-1,11,22,-26,-12,-37
1523145152742440,-1,-3,-4,-34,-46,-22,-12,-3
1523145152754470,0,-1,-1,22,63,10,2,8
1523145152754470,-3,-2,-1,-11,-27,-7,-2,-15
1523145152762994,-2,-1,-4,6,9,-10,-1,-5
1523145152762994,-8,-3,-6,-19,-45,-19,-9,3
1523145152778034,0,-4,-5,-8,-29,-13,-8,0
1523145152778034,-2,0,4,10,14,35,2,-26
1523145152779539,5,0,-1,-1,-10,17,11,58
1523145152779539,-3,-6,-6,-3,-20,-5,-9,6
1523145152800593,-7,-3,-4,-14,9,-24,-10,-24
1523145152800593,2,4,-4,3,-41,11,11,-22
1523145152802098,4,3,9,2,43,4,4,12
1523145152802098,0,-1,-4,14,33,-20,0,36
1523145152814130,1,1,3,3,-11,-10,-5,5
1523145152814130,-1,-5,-6,7,21,51,8,44
1523145152823155,-10,0,-2,-14,-21,-7,-15,-85
1523145152823155,0,0,-4,-6,43,-25,-27,-34
1523145152838193,3,-3,-2,-6,-30,-20,22,22
1523145152838193,1,0,2,4,8,32,6,13
1523145152839698,0,-4,-4,-1,10,2,2,17
1523145152839698,-3,-1,4,4,-15,8,-11,-18
1523145152860754,-3,0,-1,-8,12,-37,-8,-20
1523145152860754,1,-1,1,-9,-5,-27,-12,6
1523145152862258,1,-1,-1,13,21,5,3,21
1523145152862258,0,2,3,11,-13,3,3,-21
1523145152874290,-1,0,-1,8,10,32,-1,23
1523145152874290,-2,0,7,6,-1,-31,2,-16
1523145152883313,-3,-4,-8,3,-28,6,-1,19
1523145152883313,-2,-1,-2,2,-16,-22,-14,-33
1523145152898356,5,1,0,-6,-28,34,7,4
1523145152898356,0,2,8,12,-18,-24,-3,6
1523145152899861,1,-3,-5,-1,-3,-2,7,2
1523145152899861,2,-1,-2,2,-1,34,15,43
1523145152920414,-8,-5,-6,0,-20,-19,-20,-28
1523145152920414,-6,-6,-11,-8,24,3,-8,-41
1523145152922420,2,2,6,-3,-24,-5,4,21
1523145152922420,-1,-2,-3,-3,-1,20,9,7
1523145152934450,-1,-1,1,-5,-15,7,-4,-8
1523145152934450,-1,0,-1,-2,14,-8,5,31
1523145152942974,-4,-1,1,1,-8,-29,-9,-16
1523145152942974,-3,-3,-2,-12,-1,-5,-9,-11
1523145152958519,-3,-1,-1,-3,-37,-7,30,2
1523145152958519,1,0,-2,6,-17,-28,-28,-11
1523145152959518,2,0,-4,7,33,-14,3,6
1523145152959518,4,5,9,-12,-76,11,1,-11
1523145152980574,-1,-1,-2,17,37,-4,14,49
1523145152980574,-3,-5,-3,-13,-19,14,0,0
1523145152982080,-6,-3,1,21,45,1,-14,-15
1523145152982080,-1,-3,-2,4,39,-2,-3,-21
1523145153003135,5,1,0,15,13,11,14,49
1523145153003135,1,-3,-5,-11,-1,-15,-2,-12
1523145153004639,0,0,2,-4,-15,-2,-6,10
1523145153004639,-4,-1,0,7,2,-3,9,-21
1523145153018176,0,-3,1,-6,26,2,-10,8
1523145153018176,-5,-4,-4,-4,12,-6,-10,-13
1523145153019681,-1,-1,-2,7,32,24,23,-32
1523145153019681,3,1,-2,2,31,-25,-9,47
1523145153040735,5,5,12,7,-6,30,15,19
1523145153040735,3,4,3,11,30,-27,1,8
1523145153042240,-4,-8,-11,-40,-74,-14,-16,-9
1523145153042240,-1,-2,-4,1,22,3,0,-10
1523145153063292,-6,-2,1,5,-14,-39,-13,-16
1523145153063292,1,-1,2,-2,-4,12,3,15
1523145153064799,-2,-1,-7,-4,-18,34,8,-9
1523145153064799,-2,-1,3,-8,-10,3,5,-2
1523145153078333,0,-1,-3,-4,-29,-8,-10,-1
1523145153078333,-2,-1,-2,9,-11,8,-10,-25
1523145153079839,6,2,-1,-2,1,5,21,24
1523145153079839,6,2,4,-3,-4,26,12,44
1523145153100394,-5,-3,-4,-6,21,-7,-17,-19
1523145153100394,-3,2,3,4,6,-22,3,-73
1523145153102397,-9,-4,-4,0,24,5,-23,-18
1523145153102397,2,-2,-4,-12,-30,-34,-11,-11
1523145153122953,4,2,5,4,37,32,9,17
1523145153122953,-2,-2,-4,-13,-56,-34,-1,-6
1523145153124958,2,2,1,2,-12,31,2,0
1523145153124958,-3,-2,-2,8,14,-17,2,1
1523145153137995,-9,-8,-16,-30,-56,-2,-19,-37
1523145153137995,-2,-3,0,7,38,9,11,28
1523145153139497,0,-3,0,-9,-8,-16,-10,-10
1523145153139497,-1,2,0,-12,-41,-16,-5,-5
1523145153160553,3,-1,-1,-11,-26,-52,-13,-9
1523145153160553,1,2,5,17,25,115,32,0
1523145153162057,1,-1,-1,6,20,-25,-9,113
1523145153162057,-7,1,1,-10,-16,4,6,-102
1523145153183114,-2,-3,-7,-15,-4,20,-16,-18
1523145153183114,2,0,0,4,-21,3,11,46
1523145153184618,2,2,1,5,-17,6,3,18
1523145153184618,-7,-7,-10,-6,-19,10,0,-10
1523145153197651,-4,0,1,8,7,1,-14,-42
1523145153197651,-1,-2,-3,-9,37,-30,-4,3
1523145153204170,0,2,4,0,15,59,24,-10
1523145153204170,1,-1,-2,13,59,-30,-14,48
1523145153220713,-3,1,0,6,7,49,45,-42
1523145153220713,2,-2,2,-5,-13,-26,-29,1
1523145153222217,0,0,-4,7,-5,-21,5,-5
1523145153222217,-5,1,1,6,21,4,-8,-7
1523145153243271,0,-2,0,-2,10,-12,-5,11
1523145153243271,0,1,-3,-1,25,9,3,0
1523145153244776,-2,-2,-2,2,-11,-13,-8,-25
1523145153244776,-1,-1,-3,-7,-42,5,4,25
1523145153257311,0,-3,-2,41,33,-16,-8,11
1523145153257311,-1,-1,2,-4,20,20,0,-29
1523145153264329,5,2,3,6,34,-9,5,10
1523145153264329,-1,-4,-4,-8,-66,-2,5,-6
1523145153280371,-4,-4,-6,-6,-22,-29,-30,54
1523145153280371,-2,-1,-2,-4,2,-5,3,-61
1523145153282376,1,-2,-3,-9,36,-2,3,0
1523145153282376,4,1,1,8,36,3,7,25
1523145153302931,0,2,3,-5,-2,-25,-1,-20
1523145153302931,0,-1,-5,-4,-11,24,7,31
1523145153304436,-1,-2,-4,-14,-29,-23,-9,-20
1523145153304436,-17,-2,-5,7,-18,-2,-19,-23
1523145153317469,-3,0,1,-9,-28,1,-6,-31
1523145153317469,3,0,-3,2,27,-22,-18,6
1523145153331507,-1,2,1,-6,-34,33,25,2
1523145153331507,8,-2,-1,4,39,30,10,41
1523145153340530,-6,0,2,-4,-38,-7,1,-20
1523145153340530,-6,-3,-2,-6,-28,-24,-18,-1
1523145153342035,-2,-5,-7,-10,-1,-29,-8,-12
1523145153342035,-3,-2,-1,-15,-21,-2,-10,8
1523145153363091,9,2,5,1,24,25,16,13
1523145153363091,1,1,1,3,-17,-7,-5,-2
1523145153364596,-3,-2,-2,-4,16,19,-7,-6
1523145153364596,7,2,4,18,90,18,18,24
1523145153377630,-3,-5,-5,-3,20,-13,-1,3
1523145153377630,1,4,7,2,-3,2,4,15
1523145153384146,-7,-2,0,16,-20,4,-12,-27
1523145153384146,0,-4,-5,-27,15,-9,-4,-25
1523145153400691,2,1,2,21,48,8,8,12
1523145153400691,-4,-5,-9,-9,-9,-1,6,26
1523145153402195,-6,-1,0,-1,9,-3,-11,-2
1523145153402195,4,2,-1,0,-6,-5,-6,-12
1523145153423255,1,-1,-3,-6,-4,-8,-4,10
1523145153423255,-4,-4,-7,-5,-54,-16,3,-9
1523145153424757,-4,1,4,-25,-9,34,5,2
1523145153424757,6,2,3,7,6,-13,-10,15
1523145153437290,-5,-5,-6,-19,-67,-3,2,-6
1523145153437290,-4,-2,-3,1,1,-12,6,-13
1523145153444306,1,-1,1,-1,11,-12,-12,9
1523145153444306,-5,-4,-3,-15,-63,19,-8,-38
1523145153460351,2,0,0,-10,15,-11,-8,-9
1523145153460351,0,-2,-1,-4,-43,-4,6,40
1523145153462354,2,-4,-10,5,0,-20,1,2
1523145153462354,1,3,5,-11,25,13,22,14
1523145153482909,1,2,5,17,6,29,-8,-4
1523145153482909,-4,-1,-3,-14,-19,1,-1,-16
1523145153484413,-4,-2,-4,-1,-2,-16,-10,-21
1523145153484413,-5,-3,-6,-9,-27,-17,-1,2
1523145153496465,4,1,0,1,43,-9,8,4
1523145153496465,2,3,5,22,73,19,8,24
1523145153505484,0,-1,0,-6,-42,4,0,-15
1523145153505484,-4,-1,1,-9,25,-3,-6,0
1523145153520523,0,-4,-5,-4,-12,-6,-8,3
1523145153520523,-1,-1,-5,-7,3,-14,-5,-18
1523145153522027,4,1,2,12,-2,-16,0,29
1523145153522027,0,-3,-2,1,-13,1,9,9
1523145153543084,1,1,2,0,17,68,7,-11
1523145153543084,4,-3,-2,-6,-8,-34,-11,47
1523145153544590,-12,-1,-2,-9,-17,-6,-21,-96
1523145153544590,3,2,-3,4,-9,-5,28,26
1523145153556623,4,0,-1,-9,-4,-7,-16,6
1523145153556623,-6,-5,-3,1,-17,-11,-15,-20
1523145153565646,3,2,4,13,7,-19,6,20
1523145153565646,2,0,1,10,33,20,6,1
1523145153581687,-1,1,-3,4,3,-3,12,17
1523145153581687,-5,-5,-6,-18,-61,-15,-17,-19
1523145153583691,-2,-1,-1,-10,19,-8,-6,5
1523145153583691,-1,-3,-4,17,-34,-39,-17,-32
1523145153603245,4,2,0,-11,-8,18,24,34
1523145153603245,-2,1,3,7,12,31,-4,-12
1523145153604753,4,1,1,-6,64,24,2,21
1523145153604753,-8,-4,-4,4,17,17,-10,-29
1523145153616780,-1,-3,-6,-17,-45,-25,-4,-5
1523145153616780,4,3,3,5,17,18,10,12
1523145153626306,-3,0,0,-15,-17,-8,8,-4
1523145153626306,0,-2,0,4,7,5,-18,-3
1523145153640345,-8,-7,-6,-1,-6,-51,-12,-6
1523145153640345,4,3,6,0,16,15,10,-7
1523145153642348,3,-4,-4,7,-10,-2,-2,15
1523145153642348,-3,1,1,10,-14,-10,-11,7
1523145153662905,-2,0,2,0,52,26,6,-8
1523145153662905,2,0,0,7,-3,-28,3,-4
1523145153664909,0,-4,-6,-3,-1,48,14,14
1523145153664909,0,-1,3,-7,-13,0,2,7
1523145153676940,-4,-2,-2,6,6,-2,-10,-17
1523145153676940,-3,-2,-7,-12,9,6,-3,12
1523145153685463,0,1,8,7,9,-26,4,-2
1523145153685463,4,3,5,-3,15,13,9,7
1523145153700502,0,-1,-3,-1,-13,4,2,7
1523145153700502,0,-1,0,15,5,-9,-5,-2
1523145153702007,-4,0,-6,8,11,-11,-9,-14
1523145153702007,0,-2,-17,-14,-29,-9,-2,10
1523145153723068,0,-1,15,0,22,15,0,-7
1523145153723068,1,8,8,-58,25,9,8,1
1523145153724569,-3,-5,6,6,-6,-7,-4,5
1523145153724569,2,-1,-8,17,34,8,0,0
1523145153736599,-2,-1,-6,17,-32,-13,-9,-6
1523145153736599,-3,-5,-8,-32,-15,13,4,-6
1523145153745624,0,7,-26,34,13,-3,-2,6
1523145153745624,-2,-10,42,-27,-14,-11,-2,-6
1523145153760663,2,6,11,17,-26,-8,-5,-4
1523145153760663,-6,-8,-7,6,23,7,2,-7
1523145153762167,-3,-6,-38,-10,-33,-8,-2,3
1523145153762167,-4,2,-4,-15,-21,-1,0,1
1523145153783222,-1,6,6,17,-26,-16,-2,-6
1523145153783222,2,-5,-4,13,27,7,2,-2
1523145153784727,0,-4,6,-20,-21,2,-3,3
1523145153784727,0,8,-1,1,10,0,0,-1
1523145153796759,0,0,-19,-6,10,5,1,0
1523145153796759,-4,-5,19,3,-6,-11,-3,-8
1523145153805789,-7,-16,12,1,-9,-8,-6,-1
1523145153805789,2,7,-9,17,-25,-2,-2,-3
1523145153819821,-2,2,-2,0,-14,-10,-7,-6
1523145153819821,-2,-11,-18,23,7,-5,-2,1
1523145153826842,4,4,6,-8,19,17,11,6
1523145153826842,-4,-5,20,15,11,13,2,-1
1523145153842883,-1,12,-19,-25,21,3,-7,-2
1523145153842883,5,0,-16,-10,-7,-10,1,-4
1523145153844887,4,-1,38,28,9,-1,-2,2
1523145153844887,-14,-24,-20,-32,5,-5,-5,-7
1523145153865441,-9,-18,1,3,16,-2,-3,0
1523145153865441,1,16,30,12,-46,-7,-10,-8
1523145153867447,7,6,-24,-32,-30,-13,0,1
1523145153867447,8,11,2,65,49,9,6,4
1523145153879980,-5,-8,-3,-43,-81,-23,-6,-4
1523145153879980,-4,-3,-2,-20,-60,25,-4,-7
1523145153887003,0,7,14,30,-4,1,7,3
1523145153887003,-1,-2,0,34,11,-7,-3,-2
1523145153903043,0,-7,-1,-33,-35,-1,5,2
1523145153903043,2,9,26,93,87,6,5,2
1523145153904547,-5,-5,-14,-26,-62,-18,-8,-4
1523145153904547,-1,-2,-12,-22,0,-10,-4,1
1523145153916579,3,-1,-5,-4,41,5,4,2
1523145153916579,3,3,-4,50,20,10,20,19
1523145153925602,0,5,0,-32,81,18,1,1
1523145153925602,0,-1,12,7,-7,-4,-3,2
1523145153939139,0,1,15,32,-57,-14,-14,-12
1523145153939139,-7,-7,-29,-59,-24,-15,-2,-1
1523145153948164,2,0,11,-12,62,2,0,-1
1523145153948164,4,4,-5,-22,-1,-1,1,1
1523145153963200,-1,-4,-4,5,11,-7,-4,1
1523145153963200,-5,-5,-3,-1,0,20,6,-4
1523145153964706,0,1,-6,3,-56,-19,-5,-2
1523145153964706,3,1,-3,-9,14,16,0,-6
1523145153985770,-3,-5,-4,13,26,2,6,13
1523145153985770,-9,-2,2,-15,-6,-18,-9,-12
1523145153987268,4,-2,-5,-5,-59,-15,-2,7
1523145153987268,-3,-2,-3,-2,-6,-8,-1,1
1523145153999801,2,-1,0,-5,17,8,-5,-2
1523145153999801,-4,-6,-16,-17,-36,-26,-12,-9
1523145154014341,-1,2,15,16,39,11,0,1
1523145154014341,2,-2,-1,-7,-23,0,14,1
1523145154022861,0,2,-1,6,31,77,21,5
1523145154022861,0,-2,-4,1,29,-12,-10,0
1523145154024865,-4,-4,-2,-4,-30,-12,-13,-9
1523145154024865,-2,-3,-7,0,40,-9,-13,-7
1523145154045421,-1,-1,-6,-19,-20,-22,-4,-25
1523145154045421,1,3,5,-2,5,5,2,14
1523145154047425,2,-2,-6,-20,-37,22,3,6
1523145154047425,-4,2,1,5,-23,11,1,-25
1523145154059959,-2,1,1,0,1,-26,-8,-8
1523145154059959,-2,-2,-5,6,-31,5,-15,-10
1523145154066477,-8,-5,-5,-2,-37,-24,-14,-10
1523145154066477,0,-2,-1,2,45,0,-5,-4
1523145154083024,2,-1,1,5,-2,2,15,11
1523145154083024,8,3,1,-5,-13,22,11,16
1523145154084527,0,1,0,3,53,-6,6,10
1523145154084527,-3,-4,-9,-14,-41,4,-12,-2
1523145154105583,-6,-2,4,5,12,-13,-11,-21
1523145154105583,-3,-2,-4,-1,42,-18,-5,0
1523145154107087,0,-1,4,23,10,33,2,2
1523145154107087,0,-2,2,-9,27,16,11,-4
1523145154119120,9,2,-3,-15,-30,12,4,27
1523145154119120,1,2,5,20,-12,-18,7,31
1523145154128141,-14,-7,-9,-23,-86,-36,-15,-69
1523145154128141,-5,-3,-6,2,-9,-27,-15,-3
1523145154143183,4,2,0,7,24,-4,3,8
1523145154143183,4,-4,0,-10,38,22,8,3
1523145154144685,6,3,3,12,38,9,7,25
1523145154144685,-6,-4,-7,-10,-12,12,5,-5
1523145154165741,-4,-2,-1,9,10,-16,-16,7
1523145154165741,-7,-5,-8,-39,-7,2,-8,-33
1523145154167246,12,0,3,4,24,13,9,15
1523145154167246,-3,0,-1,0,-5,16,16,35
1523145154179778,-9,-1,3,10,49,-12,-5,-15
1523145154179778,3,2,2,6,8,18,7,16
1523145154186796,2,2,-4,9,42,5,-9,-18
1523145154186796,-1,-1,1,-4,-36,-23,-12,3
1523145154202839,1,-6,-6,-15,-14,-8,-1,1
1523145154202839,-6,-2,0,5,-47,1,-8,-20
1523145154204846,-2,-4,-10,-12,-64,-28,5,34
1523145154204846,2,1,4,10,5,3,-5,-28
1523145154225400,-3,-2,-5,-4,-4,1,-6,-15
1523145154225400,-7,-5,-4,1,3,-24,-11,-13
1523145154227405,-1,-4,-1,0,9,11,6,12
1523145154227405,1,0,0,2,9,-6,2,17
1523145154239941,-9,-1,0,5,29,5,1,-6
1523145154239941,8,3,-1,-10,-6,-4,9,9
1523145154246959,-3,0,3,6,19,18,-1,-10
1523145154246959,-2,1,-4,-22,-3,-20,-2,4
1523145154263000,6,-1,2,42,45,7,-15,7
1523145154263000,-5,3,5,-22,-6,3,-1,-11
1523145154264505,-8,-4,-6,3,69,23,8,-10
1523145154264505,6,0,1,-3,9,-2,13,29
1523145154285559,-3,2,4,2,4,16,10,-19
1523145154285559,-2,-2,1,-1,13,-19,-12,8
1523145154287065,0,1,0,10,2,-6,-7,-20
1523145154287065,-1,-5,-6,10,-21,30,14,0
1523145154300098,1,2,0,-36,-45,-6,-8,2
1523145154300098,-2,-1,1,19,45,-1,1,-15
1523145154306618,-13,-5,-6,-6,-23,-5,-7,24
1523145154306618,10,-3,0,1,10,-3,-3,-12
1523145154323161,5,-1,1,-2,-34,-5,13,6
1523145154323161,-7,-2,-5,-8,-15,2,-7,-4
1523145154324664,-4,2,4,6,3,7,10,12
1523145154324664,8,2,-3,-8,13,-11,-4,10
1523145154345719,-19,-1,1,-6,-13,16,10,-24
1523145154345719,10,-3,-3,5,32,-17,-16,5
1523145154347223,-10,-2,-2,-8,-9,8,10,-12
1523145154347223,-6,-3,-2,13,-77,-23,-29,-8
1523145154359757,5,-3,-8,10,22,-4,0,3
1523145154359757,3,7,7,7,-1,5,35,16
1523145154366778,9,4,8,-7,-7,54,-5,13
1523145154366778,-12,-1,1,29,3,0,0,-5
1523145154383324,5,-2,-5,-14,13,-22,-5,18
1523145154383324,-5,-9,-11,-17,-68,-18,-42,-14
1523145154384828,-10,-6,-8,18,68,-5,16,-45
1523145154384828,11,8,10,-24,-1,19,-2,13
1523145154405883,0,0,0,-16,-17,4,1,11
1523145154405883,0,-2,-1,8,29,-15,-9,28
1523145154407384,-5,-7,-7,-3,20,-10,-7,-17
1523145154407384,-4,-3,-3,3,31,1,-19,-21
1523145154419919,3,-1,-2,2,3,-10,8,8
1523145154419919,1,1,3,-4,-12,4,11,-4
1523145154426937,3,2,3,15,65,6,-10,-17
1523145154426937,-20,-4,-2,-10,-9,2,6,-8
1523145154442978,10,-1,0,-17,-52,-4,-8,4
1523145154442978,7,5,5,16,25,-1,8,7
1523145154444483,10,0,2,2,-19,3,8,-6
1523145154444483,-10,-5,-10,-13,-7,-12,12,16
1523145154465542,-2,2,0,3,1,2,4,-4
1523145154465542,-3,-1,0,-4,13,13,-10,7
1523145154467545,0,-1,-4,-13,-56,-47,-11,-2
1523145154467545,1,0,1,14,14,-9,-5,-8
1523145154479578,-6,-5,-7,0,25,35,5,7
1523145154479578,-3,-1,0,-9,-25,-2,17,-12
1523145154488099,-1,1,0,-2,-18,4,-25,2
1523145154488099,-4,2,1,-4,-25,7,15,1
1523145154503140,-9,-3,-3,7,33,-5,-12,-25
1523145154503140,17,-1,-7,2,39,6,13,14
1523145154504643,-2,1,2,-6,-8,-2,4,16
1523145154504643,3,-2,-4,-21,-61,-11,-2,-5
1523145154525699,-10,-3,-4,5,-8,5,5,4
1523145154525699,-7,0,2,16,30,25,5,-20
1523145154527204,-1,1,0,-7,-5,-29,10,14
1523145154527204,6,2,3,-16,12,6,-14,8
1523145154539236,-12,0,1,19,2,1,-5,-6
1523145154539236,6,-3,-5,-12,-17,-14,-19,10
1523145154548259,1,1,2,-11,-54,-5,13,-41
1523145154548259,1,0,2,21,29,2,2,4
1523145154563298,2,0,-6,-17,-19,17,5,-4
1523145154563298,4,3,7,25,11,-2,-8,13
1523145154564802,-6,-1,-1,0,-2,6,-4,-5
1523145154564802,5,-2,-4,3,57,6,-1,2
1523145154585360,-4,0,0,-12,-29,-22,3,-9
1523145154585360,4,-5,-12,-17,-51,0,5,10
1523145154587369,4,4,8,10,6,-11,-10,34
1523145154587369,2,-3,-2,5,-1,-17,-6,2
1523145154599395,12,2,2,-3,15,6,-14,-48
1523145154599395,-33,-4,-3,-12,-23,-11,11,-18
1523145154608419,26,0,-1,1,3,5,-6,2
1523145154608419,-24,-1,0,9,-12,2,16,44
1523145154622961,2,-3,-2,-11,-19,-10,-15,51
1523145154622961,16,1,0,30,14,0,-10,-50
1523145154624462,-12,-4,-2,-6,13,-24,-2,11
1523145154624462,-5,1,-5,18,32,43,8,-69
1523145154645520,1,1,2,-9,-35,2,8,19
1523145154645520,-5,0,0,-31,22,0,4,13
1523145154647022,-2,-2,3,11,0,-33,-18,-17
1523145154647022,6,-2,-1,0,77,6,0,5
1523145154659053,-2,-4,-7,-14,-63,-16,13,14
1523145154659053,5,1,1,-22,-20,12,-4,5
1523145154668078,-12,-4,-7,15,16,3,10,9
1523145154668078,-3,-1,-3,-32,-94,-27,-16,-16
1523145154683119,-4,-1,5,17,43,-3,-4,-16
1523145154683119,4,-2,-5,-11,-31,-15,-2,14
1523145154684623,2,-2,-5,-8,-25,-11,-1,10
1523145154684623,6,-1,1,9,7,7,4,6
1523145154705678,9,3,2,15,20,9,-8,29
1523145154705678,-11,0,0,0,-24,-14,26,-28
1523145154707187,-2,1,3,-2,14,31,-3,-7
1523145154707187,0,-2,-9,-20,-12,-17,-6,10
1523145154719216,2,-5,16,39,17,-7,7,3
1523145154719216,4,5,4,-9,15,58,22,26
1523145154728238,-4,-4,-5,-8,-21,5,-7,-5
1523145154728238,0,-1,-6,-16,11,-7,-2,-9
1523145154743779,-6,-3,-10,-3,-53,-47,-28,-22
1523145154743779,-8,-3,-4,-15,18,-9,-14,-3
1523145154745283,-1,-3,-1,-5,-19,5,13,-7
1523145154745283,-1,-1,-2,-4,-38,4,-5,-2
1523145154765338,-5,0,-4,-11,-27,1,10,-8
1523145154765338,2,1,4,11,-7,-14,-9,4
1523145154767342,1,-5,-19,-14,-35,-16,-5,12
1523145154767342,2,3,7,7,2,-23,-10,-1
1523145154779375,-2,0,-4,0,21,14,7,5
1523145154779375,-5,-5,5,3,17,12,5,-20
1523145154788397,3,8,-17,-6,6,17,9,28
1523145154788397,5,-4,47,32,33,22,14,-6
1523145154802936,-4,0,-10,-8,7,4,-10,3
1523145154802936,-6,-3,-29,-7,25,-11,-17,-13
1523145154804442,-4,-9,3,6,3,-29,-22,-15
1523145154804442,10,15,3,30,58,26,25,8
1523145154825496,-5,-7,-3,1,29,-4,-3,-9
1523145154825496,-2,-5,5,-14,-23,-14,-12,0
1523145154827001,-9,-6,-10,-1,-2,-6,3,-20
1523145154827001,2,-3,0,-9,-36,-11,-1,1
1523145154848060,3,3,-4,-87,-38,-4,6,-2
1523145154848060,1,1,6,98,54,38,13,26
1523145154849564,-1,3,18,9,25,21,-3,-1
1523145154849564,-5,-4,-13,-31,-26,-17,-7,-29
1523145154862595,7,6,36,53,37,4,-1,-5
1523145154862595,-6,-7,-17,-87,-50,-20,-11,-4
1523145154869114,-5,3,4,31,11,10,20,25
1523145154869114,-7,-17,-36,32,3,-18,-11,-3
1523145154885656,5,14,38,-9,44,8,11,-5
1523145154885656,-1,-5,-17,-53,-22,14,-7,-4
1523145154887161,4,6,28,92,22,28,0,-3
1523145154887161,-7,-7,-55,-86,-29,-5,-10,-8
1523145154908216,1,-3,36,39,26,-2,0,5
1523145154908216,-1,-1,8,-7,-39,-22,-4,17
1523145154909721,0,-1,-26,-51,22,-17,-8,-19
1523145154909721,-2,1,19,28,-24,-9,2,13
1523145154930276,-6,-8,-35,-40,-32,10,-1,14
1523145154930276,-1,5,9,20,1,-7,-8,-33
1523145154932285,0,-5,6,-8,-22,1,7,2
1523145154932285,13,11,29,56,120,20,7,17
1523145154953338,-11,-8,-37,-42,-6,2,-5,-9
1523145154953338,1,0,2,55,-11,-1,-1,-5
1523145154954843,-2,-7,-26,-12,9,-7,-8,-5
1523145154954843,-1,0,51,19,-24,-6,-5,-5
1523145154967876,2,0,-3,-29,-31,0,10,4
1523145154967876,-4,-2,-6,30,18,-4,-7,14
1523145154969881,-1,-2,-5,-21,-16,-30,-15,-4
1523145154969881,-2,1,-12,-27,-27,2,-12,-32
1523145154982915,-1,-1,-5,7,-46,6,-6,-8
1523145154982915,-5,-3,-3,-7,-14,-10,2,-2
1523145154990436,1,-1,8,-18,13,12,9,13
1523145154990436,-8,-2,-14,20,33,-11,-4,-6
1523145155005480,-5,-11,-29,-48,-72,-16,-29,-10
1523145155005480,1,1,8,7,10,-13,-3,-9
1523145155006981,-2,-2,0,-6,-6,10,5,0
1523145155006981,6,1,1,-9,-13,0,19,58
1523145155028037,-3,5,2,52,66,11,10,-62
1523145155028037,0,-4,-1,-24,-15,16,14,-3
1523145155029540,-2,-1,-6,-30,-36,-3,-17,-5
1523145155029540,-2,-4,-11,-22,-17,-13,-9,9
1523145155041573,0,-3,0,25,30,-7,-1,19
1523145155041573,-1,3,7,3,51,-5,4,2
1523145155050597,4,1,1,-3,42,13,6,-4
1523145155050597,-5,-3,1,-26,6,22,-3,8
1523145155065636,5,-1,-3,42,36,-6,-4,-11
1523145155065636,-3,0,-4,-12,-26,5,6,-8
1523145155067142,-17,-3,1,-6,-17,-8,-2,46
1523145155067142,9,0,-5,-2,7,15,8,-41
1523145155088196,11,1,-1,-11,39,-9,4,6
1523145155088196,-8,-4,-4,3,16,26,-4,18
1523145155089699,-1,1,5,-6,14,6,8,-5
1523145155089699,-8,-4,-3,19,22,-13,-7,-1
1523145155102235,-5,-2,0,10,22,4,8,5
1523145155102235,6,0,-1,-6,-29,-21,-6,-2
1523145155109252,1,2,6,3,-17,-4,-4,-14
1523145155109252,-3,-3,-7,-12,13,-1,-10,23
1523145155126298,3,3,5,15,24,-6,-5,-48
1523145155126298,-6,4,8,6,8,-5,-1,8
1523145155127803,11,0,-4,-2,1,-11,4,3
1523145155127803,3,1,-3,-7,-18,49,14,6
1523145155147854,-3,-9,-9,-18,-63,-11,-8,18
1523145155147854,-9,-6,-10,-20,-28,-22,-10,29
1523145155149861,4,-2,1,-3,56,-23,-14,-53
1523145155149861,-5,4,1,-7,-42,3,7,-5
1523145155162394,-12,1,3,-1,-13,26,19,34
1523145155162394,13,1,2,2,6,6,-5,-22
1523145155169412,0,-2,-4,-11,-33,-6,3,23
1523145155169412,-6,-3,-7,-6,-16,-35,-11,-12
1523145155185456,-3,0,-6,-3,-44,-13,-8,7
1523145155185456,-4,-3,-1,1,29,-3,2,-17
1523145155187459,1,0,1,1,10,-3,-13,17
1523145155187459,3,-1,0,-10,-33,8,9,-4
1523145155208016,-5,4,7,30,16,5,-2,-5
1523145155208016,9,-1,-2,2,32,9,2,-4
1523145155209519,-5,-1,4,9,8,-5,-7,0
1523145155209519,-3,-7,-10,-2,-12,-10,7,-23
1523145155221551,9,-6,-6,-9,-31,-22,-7,73
1523145155221551,-3,9,15,-9,-58,7,-16,-95
1523145155230576,1,-1,-2,5,4,3,17,35
1523145155230576,-2,3,2,7,16,-6,4,8
1523145155245614,-2,-2,-5,-10,14,14,-2,-10
1523145155245614,0,-3,-5,-12,-4,-7,-7,16
1523145155247121,-5,-3,1,5,-88,-13,-21,-40
1523145155247121,4,-5,-6,-10,-28,-38,-1,-6
1523145155268177,-8,0,-2,3,36,-10,-2,-5
1523145155268177,-1,-1,4,0,14,26,19,15
1523145155269678,-1,3,-2,-13,5,23,11,3
1523145155269678,-1,1,3,25,62,11,-6,9
1523145155282215,5,-2,-1,9,13,-1,-7,-16
1523145155282215,-2,1,-1,10,18,-24,-3,15
1523145155289234,1,-1,-2,5,49,47,13,-8
1523145155289234,-2,-3,-6,-15,-38,-24,-13,11
1523145155305775,5,0,3,6,-4,-10,-4,-6
1523145155305775,-15,0,1,-14,16,1,3,-39
1523145155307280,16,-1,-1,-7,-26,26,17,-21
1523145155307280,-6,1,4,22,89,29,-9,-7
1523145155327834,3,1,3,6,23,9,24,6
1523145155327834,-6,-5,-8,4,-6,-31,2,19
1523145155329839,-7,-2,-2,-21,-64,-5,-20,-11
1523145155329839,5,1,6,0,6,13,12,4
1523145155342372,-6,-4,-5,-27,-39,2,5,1
1523145155342372,0,-3,-6,27,1,-8,-5,1
1523145155349389,0,1,2,-3,-12,-14,0,-1
1523145155349389,-7,-2,-5,-15,7,-29,-9,-1
1523145155365435,2,3,5,-8,-1,4,-1,20
1523145155365435,8,0,5,9,8,41,16,-24
1523145155366938,-5,1,2,18,22,6,0,23
1523145155366938,-2,-3,-1,-2,-9,-18,-11,2
1523145155387995,0,1,1,3,27,9,18,14
1523145155387995,7,-3,-8,-16,-11,-13,-21,-29
1523145155390000,-9,-3,-4,-10,12,-32,-11,15
1523145155390000,-8,-1,0,-9,-85,-14,-16,-59
1523145155401533,-10,-4,-8,-7,-16,7,-1,-15
1523145155401533,1,-4,-6,-13,-39,-8,3,46
1523145155410557,2,0,2,23,39,35,16,13
1523145155410557,-2,0,-6,-38,-44,-13,-16,-5
1523145155425596,-1,-2,-1,4,-9,-9,-13,-22
1523145155425596,-5,-4,-4,-1,9,0,-2,8
1523145155427098,4,0,-1,4,-21,-46,-7,-5
1523145155427098,8,3,7,10,16,19,8,9
1523145155448158,-2,0,0,-4,-37,10,3,-6
1523145155448158,-2,-2,-1,8,23,9,3,30
1523145155449660,-1,3,5,10,64,1,4,-11
1523145155449660,-5,-4,-7,-6,-63,-7,6,42
1523145155461690,8,-1,-4,-14,31,-9,-24,-74
1523145155461690,-3,-2,-2,16,13,17,7,10
1523145155470714,-9,-2,1,4,9,-6,-11,-1
1523145155470714,3,-3,-2,0,5,12,9,9
1523145155485765,0,1,1,16,19,10,11,18
1523145155485765,-5,1,0,-46,-6,-18,-11,-2
1523145155487258,1,-3,0,-4,24,12,1,-4
1523145155487258,5,2,1,18,46,4,-3,-10
1523145155508314,-6,-2,4,21,11,0,-2,11
1523145155508314,-4,2,4,2,-19,-9,1,-19
1523145155509818,8,-1,0,-14,-24,-20,-5,16
1523145155509818,-6,0,-3,-11,-25,-5,0,-21
1523145155521849,3,-1,-5,-14,1,3,-6,-6
1523145155521849,-12,-7,-5,10,-68,-19,-2,37
1523145155530873,2,-1,-3,-4,-23,-21,-23,-28
1523145155530873,6,-5,-11,-9,-28,10,10,5
1523145155545413,0,5,7,21,20,14,3,31
1523145155545413,9,1,2,-10,9,28,2,-15
1523145155547417,-12,-1,-3,-6,-17,-11,3,-10
1523145155547417,0,-2,-1,22,32,-1,-8,-27
1523145155567972,1,-2,-3,-20,-38,-29,-4,25
1523145155567972,7,2,2,14,14,15,10,-1
1523145155569976,-11,-3,-4,2,-9,13,1,-6
1523145155569976,5,0,1,-9,10,19,4,24
1523145155582009,-6,-5,-4,-10,-27,1,-6,-11
1523145155582009,-4,3,10,20,83,-15,-8,-1
1523145155590541,6,2,0,-7,-14,-12,11,10
1523145155590541,-5,0,4,18,18,2,-8,-21
1523145155605579,-14,-2,-7,-15,-21,-12,1,22
1523145155605579,14,-2,-2,11,43,11,-7,10
1523145155607078,4,-1,-1,7,-7,-2,12,-7
1523145155607078,-8,1,2,7,69,9,-10,-14
1523145155628133,6,2,-1,-13,-7,-12,-1,-3
1523145155628133,-9,-2,-5,-17,-40,-22,-1,-4
1523145155629637,-5,-5,-4,9,-4,-2,-5,29
1523145155629637,1,2,5,-5,-27,46,7,-30
1523145155641670,11,3,2,8,71,-1,-1,26
1523145155641670,-6,-5,-7,-11,-25,-11,-14,-19
1523145155650694,5,0,0,9,4,-9,1,11
1523145155650694,3,1,3,2,28,-20,1,18
1523145155665732,0,-4,-2,-7,-24,4,-1,-13
1523145155665732,-13,0,-1,-6,-49,-8,0,-11
1523145155667237,-4,-2,-1,-2,22,1,-13,-9
1523145155667237,2,-1,0,11,16,-20,-1,22
1523145155688295,1,2,5,4,-9,6,3,-42
1523145155688295,2,0,-5,-8,-10,2,-6,20
1523145155690299,0,-1,-3,-13,-17,-9,0,-23
1523145155690299,-5,-3,-5,2,-13,9,9,32
1523145155701833,-5,-4,-6,-8,8,2,4,6
1523145155701833,4,1,3,-2,0,14,-3,-22
1523145155710854,1,2,3,28,26,7,0,15
1523145155710854,-5,-3,3,-16,-22,-5,-9,-35
1523145155725398,-6,-4,-8,-5,15,-19,11,32
1523145155725398,-3,0,1,12,40,46,13,-20
1523145155727396,-6,0,-1,-12,-25,-4,-8,4
1523145155727396,10,-1,-1,5,-6,6,13,2
1523145155747969,-9,0,2,3,-1,-15,-13,-27
1523145155747969,4,-1,2,0,10,-3,5,20
1523145155749456,-5,-4,-3,-3,79,-2,-6,3
1523145155749456,-3,-1,-3,-2,-2,-10,-9,-45
1523145155761487,2,0,0,18,21,7,9,23
1523145155761487,0,-1,-4,-4,-56,3,11,30
1523145155771013,4,3,6,-21,4,17,0,-27
1523145155771013,-6,-6,-8,0,-12,-19,-6,44
1523145155785554,1,-2,-4,-29,-59,9,-12,-47
1523145155785554,3,0,3,51,74,-31,-10,10
1523145155787056,-2,-1,-6,-16,-16,12,-10,-32
1523145155787056,3,3,6,2,-10,-12,-2,16
1523145155808122,1,2,2,0,-7,-18,7,-9
1523145155808122,3,-1,-1,0,28,17,1,9
1523145155809626,4,-2,-3,-6,-29,16,19,27
1523145155809626,-8,-1,-1,5,15,10,-8,-14
1523145155830728,-2,-4,-4,0,-25,-23,-19,4
1523145155830728,-2,1,1,-17,-32,-18,11,0
1523145155831723,6,-1,-2,2,-20,-2,-8,-13
1523145155831723,2,2,-2,-12,10,5,14,30
1523145155845759,-2,1,1,0,-27,-18,-6,-8
1523145155845759,-3,-4,-6,-13,-48,6,-5,-12
1523145155846764,4,-4,-3,8,-10,-13,-7,-11
1523145155846764,-18,1,-3,-16,-1,-40,-15,-47
1523145155867825,10,-4,-1,8,-11,39,5,9
1523145155867825,6,3,6,4,55,20,23,4
1523145155869826,-1,0,-2,-8,-22,-4,-1,18
1523145155869826,4,-3,-4,1,5,1,-4,20
1523145155889878,-7,-3,-5,4,17,-7,8,5
1523145155889878,-9,-2,1,-4,-19,-26,-29,-18
1523145155891882,3,-1,2,11,3,20,9,8
1523145155891882,-6,1,-2,0,0,4,13,4
1523145155905427,-1,-2,0,3,29,7,-6,5
1523145155905427,4,-2,-5,-10,-19,-9,-7,-8
1523145155907429,-5,0,2,-5,11,-25,7,-14
1523145155907429,0,-1,4,6,18,9,-3,-11
1523145155927618,-6,-2,1,4,81,47,8,12
1523145155927618,0,0,-4,3,20,21,2,7
1523145155929622,-3,-4,-5,-5,-14,-1,1,1
1523145155929622,7,-2,4,1,-6,-15,1,3
1523145155950680,0,-1,-2,-3,-12,-5,2,33
1523145155950680,-9,-4,-4,-11,-9,-20,-16,-33
1523145155951683,-1,0,-2,1,3,-13,2,6
1523145155951683,6,-3,0,7,39,39,1,2
1523145155965718,2,1,0,2,-16,-17,2,9
1523145155965718,-14,0,-4,-20,-76,-7,-2,-24
1523145155966722,4,-5,-6,6,-3,-2,-4,35
1523145155966722,3,4,8,-10,-46,-16,-11,-54
1523145155987784,-14,-3,-1,-4,-5,2,-3,-22
1523145155987784,8,-2,-5,-8,-30,4,-6,22
1523145155989786,4,2,2,6,-8,-25,12,9
1523145155989786,7,0,0,3,46,22,-3,34
1523145156010357,5,1,0,0,8,6,-12,-27
1523145156010357,-14,-2,0,6,27,-25,0,-2
1523145156012407,-1,-1,5,13,30,44,2,3
1523145156012407,-1,-3,-9,-2,-9,-18,1,-17
1523145156024440,5,1,-2,-8,-30,-18,-9,-6
1523145156024440,0,0,1,12,53,10,2,7
1523145156031468,-7,-3,-5,-11,-17,7,-3,-13
1523145156031468,-2,-1,-4,5,-13,-29,-4,21
1523145156047500,2,0,2,4,-15,32,2,-17
1523145156047500,4,-1,-3,-5,-17,-15,-4,4
1523145156049504,-3,-4,-5,-13,-6,-20,-7,15
1523145156049504,-10,-4,-7,-24,-3,15,14,-20
1523145156070562,1,-2,0,11,19,16,-14,9
1523145156070562,0,-1,-3,-6,-6,-4,2,-1
1523145156071565,-16,0,2,-5,0,8,-4,-12
1523145156071565,27,-2,-3,1,-18,-12,-1,11
1523145156084624,-16,0,0,24,10,-4,1,-14
1523145156084624,15,1,4,3,66,25,5,8
1523145156091621,-13,3,4,-5,13,-5,0,-13
1523145156091621,-4,0,-1,1,-23,-16,-10,12
1523145156108177,-3,-1,-2,-2,16,22,11,-8
1523145156108177,-3,-3,-2,-2,-41,-33,-17,10
1523145156109681,3,-2,-2,0,-12,13,7,-31
1523145156109681,-3,0,1,10,-7,2,-2,20
1523145156130744,-15,-2,-3,-11,-35,-30,-5,17
1523145156130744,22,2,3,-2,13,26,14,-19
1523145156131748,1,1,1,12,25,-8,-26,-34
1523145156131748,-8,-5,-8,-23,-22,-25,-5,21
1523145156144782,-3,-1,0,-5,32,11,-5,-23
1523145156144782,-9,-6,-8,-4,-9,9,12,6
1523145156151806,-6,3,5,-6,-8,-2,13,-4
1523145156151806,-1,1,-1,4,14,14,0,1
1523145156167852,6,0,-2,-6,5,-12,9,-7
1523145156167852,-9,-3,-4,-9,-7,-24,-17,-18
1523145156169859,9,-1,4,7,-2,19,-1,1
1523145156169859,-12,-1,0,11,14,-2,4,-1
1523145156189910,3,-1,-2,-3,6,-1,8,15
1523145156189910,10,-5,-5,-5,3,-1,-1,35
1523145156191908,-19,-1,-4,15,15,-30,-4,-10
1523145156191908,12,5,6,-3,-14,28,9,-59
1523145156204950,6,-1,0,0,6,0,0,14
1523145156204950,-5,1,2,3,3,-12,-2,-3
1523145156210972,3,-1,1,4,-8,-9,-5,19
1523145156210972,-16,-2,-1,-14,-3,-12,2,12
1523145156228025,6,-4,-5,-1,-2,-2,-9,-7
1523145156228025,-8,3,5,6,1,-5,-5,-1
1523145156229028,6,-2,-2,-11,-34,-21,-4,-4
1523145156229028,-2,0,-1,0,-28,13,2,12
1523145156250075,-12,-3,-1,-2,6,-8,-5,-9
1523145156250075,9,-3,-3,7,-14,-2,-10,7
1523145156252079,3,0,-2,-5,-6,-2,2,-3
1523145156252079,-1,-6,-4,15,12,10,14,28
1523145156265113,-3,6,5,14,8,5,-22,-40
1523145156265113,-4,0,-2,-8,-27,1,6,4
1523145156271131,-6,-2,-5,-7,-3,21,4,-8
1523145156271131,12,-1,0,2,13,2,-7,21
1523145156288185,-7,-4,-7,-20,-66,-19,16,-1
1523145156288185,-1,-1,-5,32,19,-16,-5,-21
1523145156289178,8,1,4,-8,37,15,3,32
1523145156289178,-6,-1,1,2,-13,-3,-7,-41
1523145156310742,16,-4,-5,5,36,-9,-2,3
1523145156310742,-27,1,4,-20,-33,-1,1,-31
1523145156311932,17,-1,-6,-10,-25,-14,-2,20
1523145156311932,2,-2,-4,-13,7,-15,7,24
1523145156323968,2,0,1,14,13,-13,-15,-8
1523145156323968,0,-2,0,-10,-30,-6,-1,-7
1523145156332986,-9,-4,-1,2,3,15,0,2
1523145156332986,-2,0,-1,-9,-13,1,-5,-13
1523145156348036,1,-4,-6,-12,-12,0,18,40
1523145156348036,-9,-1,0,0,20,-5,-12,-29
1523145156349030,-1,-1,1,11,11,13,2,-7
1523145156349030,6,1,5,15,36,13,7,0
1523145156370084,-8,-2,-4,-13,-8,16,-12,8
1523145156370084,6,-1,-3,-6,-7,-8,7,22
1523145156372090,-13,-1,3,-5,-28,-24,-4,-17
1523145156372090,-1,-3,-3,6,-53,-12,-10,3
1523145156384130,3,1,3,-23,-25,-17,-11,-6
1523145156384130,7,1,-1,4,32,24,16,8
1523145156393145,-8,0,-2,-7,-5,-7,-5,-8
1523145156393145,-7,0,-2,-13,-26,-22,-15,-21
1523145156408192,-6,-1,6,33,21,-2,1,13
1523145156408192,-1,-3,-3,-17,-20,4,-4,-2
1523145156409696,6,-2,-5,6,-17,-22,-3,0
1523145156409696,-4,0,4,2,34,9,6,8
1523145156430262,0,-2,-3,-5,-14,-6,-9,-8
1523145156430262,4,1,-1,-3,17,12,0,-4
1523145156432269,-3,-3,-4,8,27,21,11,13
1523145156432269,-8,0,1,-6,-8,3,0,50
1523145156444297,14,3,3,2,11,2,17,-80
1523145156444297,-2,-3,0,12,30,-3,-8,28
1523145156453316,4,-1,-2,-14,21,-8,-13,-14
1523145156453316,-9,-4,-3,-11,-36,-2,-1,-5
1523145156468357,-3,-1,1,17,55,-4,4,30
1523145156468357,-16,0,-2,1,-6,6,0,-4
1523145156469360,14,1,5,12,38,31,16,-7
1523145156469360,5,-1,-2,-1,-11,-18,-14,-4
1523145156490416,-1,-1,-1,3,-5,0,2,21
1523145156490416,-8,-2,-1,1,-18,-10,0,-25
1523145156491418,0,-2,-4,-17,-36,2,-6,-14
1523145156491418,0,3,6,26,72,11,0,1
1523145156512487,-10,0,-2,-10,-3,2,3,7
1523145156512487,17,-1,-3,-30,-13,13,-15,-23
1523145156514493,-13,-3,-3,-5,19,20,9,12
1523145156514493,5,-3,-6,-4,14,-4,0,4
1523145156527530,-4,5,8,-8,-21,-14,-8,6
1523145156527530,5,0,-1,-5,-15,-15,8,39
1523145156529532,1,-2,0,7,5,-14,-8,-11
1523145156529532,-10,-2,-5,-3,-4,18,-3,-47
1523145156550595,3,-4,-6,-18,-18,-21,-2,30
1523145156550595,3,-2,-2,-1,-25,21,-1,-11
1523145156551593,-15,-4,-4,28,-2,-12,-11,0
1523145156551593,13,2,4,3,4,-11,5,-7
1523145156572649,0,3,5,-15,56,11,3,-2
1523145156572649,6,-3,3,16,51,-1,2,25
1523145156572649,-4,-1,0,-1,10,-7,1,-34
1523145156572649,3,-4,-8,-11,-18,-6,-20,12
1523145156586685,-13,-1,-3,14,-9,-5,9,-29
1523145156586685,9,0,-2,-2,-1,8,0,-1
1523145156587688,0,2,3,12,19,15,4,4
1523145156587688,-1,3,6,-7,-5,-2,17,30
1523145156609753,7,-4,-5,1,4,8,-8,-5
1523145156609753,-9,-1,0,10,-2,-3,6,-6
1523145156610756,7,2,-1,-13,-23,-19,-11,11
1523145156610756,-15,-1,0,10,-1,9,-2,8
1523145156631819,9,-3,-9,-8,-16,1,3,-40
1523145156631819,-4,-1,3,23,9,-10,-2,6
1523145156632820,4,-1,-3,-12,4,-19,-7,3
1523145156632820,-6,0,-2,7,19,15,-5,-6
1523145156646859,5,-3,-6,-17,-47,-9,4,26
1523145156646859,-3,1,4,14,30,-1,-14,-16
1523145156647862,-1,-2,-2,-14,-39,9,4,-2
1523145156647862,0,-4,-8,1,-1,-3,-17,-10
1523145156669917,-9,-5,-5,8,-9,-13,-5,10
1523145156669917,9,6,9,-16,-3,18,9,1
1523145156669917,-1,0,-4,-2,33,22,21,15
1523145156669917,-5,0,3,-17,-36,2,4,-4
1523145156691977,0,2,-1,5,9,-3,-11,3
1523145156691977,-7,-1,-2,-3,26,-14,-10,-33
1523145156692979,-15,-1,0,-6,-11,-11,-8,8
1523145156692979,11,0,-1,20,56,7,19,3
1523145156707523,8,1,3,1,-14,2,-2,-16
1523145156707523,-10,-2,-8,-2,-17,-16,-27,11
1523145156708024,-1,-4,-5,-6,-60,-20,-10,19
1523145156708024,-1,-3,-2,-3,3,17,7,-37
1523145156729826,6,2,6,10,36,17,6,22
1523145156729826,5,2,3,7,10,12,15,11
1523145156730829,-9,-3,-5,-2,2,1,9,-7
1523145156730829,8,-1,-1,-6,-13,-30,-18,-5
1523145156751886,-6,-2,-2,-6,12,14,9,12
1523145156751886,-6,-2,-4,-11,-36,1,4,-1
1523145156752888,12,-1,0,9,-6,-4,-11,-13
1523145156752888,-17,-1,-3,-3,-22,-13,2,-9
1523145156766929,0,-3,-4,4,-25,-6,-4,-22
1523145156766929,4,-2,-4,-13,-13,-13,1,38
1523145156767928,4,4,9,7,14,10,15,-43
1523145156767928,2,-1,-3,6,-11,-4,-13,14
1523145156789987,-1,-3,-2,-4,-59,-10,0,1
1523145156789987,-7,-6,-9,-1,-17,2,3,1
1523145156789987,6,1,4,2,17,16,-2,13
1523145156789987,4,-1,0,-11,-12,-14,8,3
1523145156811565,-10,1,0,-7,-26,25,-10,-11
1523145156811565,8,-2,-2,-6,-10,-9,2,-4
1523145156812678,-23,-3,-4,1,-21,-22,-7,9
1523145156812678,12,1,2,2,14,0,0,-22
1523145156826718,-4,-2,-3,-9,1,0,1,24
1523145156826718,-9,-1,-2,-3,-13,-12,-3,-21
1523145156827721,8,0,1,8,-17,4,-5,7
1523145156827721,-5,-2,0,1,33,0,3,21
1523145156849778,-6,-3,-1,-9,2,-1,-3,-15
1523145156849778,6,1,2,20,25,3,10,-10
1523145156850781,2,-3,-4,0,16,-4,3,14
1523145156850781,-4,-1,-5,-17,-14,8,-2,-5
1523145156871839,3,-1,1,7,-34,-6,5,3
1523145156871839,-4,-1,-1,-10,-6,-4,-2,-2
1523145156872840,-1,2,-1,14,58,-5,-5,-1
1523145156872840,5,-4,-6,-5,-16,2,-1,-11
1523145156886878,-13,-2,1,-1,-37,-21,-6,2
1523145156886878,-10,0,-3,-10,-15,-10,-19,-19
1523145156887879,11,1,3,23,53,12,2,-10
1523145156887879,-2,1,0,0,-18,-5,1,12
1523145156909953,-7,0,0,-12,22,14,2,-1
1523145156909953,-10,-2,1,14,5,4,9,18
1523145156910455,13,-4,-9,-14,-20,-15,-4,0
1523145156910455,-3,2,3,-3,-20,0,-8,40
1523145156931721,-3,-3,-6,9,47,7,1,-87
1523145156931721,-4,0,4,-3,45,28,3,0
1523145156932721,1,1,-2,-27,-3,13,-1,4
1523145156932721,-7,-2,-6,-6,-16,-18,-1,-7
1523145156946760,8,3,2,8,19,4,3,35
1523145156946760,-6,-7,-10,-13,-27,8,2,8
1523145156947762,12,1,2,-18,-16,2,1,-3
1523145156947762,-6,-1,-1,0,8,12,8,-9
1523145156969820,1,1,5,6,40,-19,-10,0
1523145156969820,-9,-4,-4,-7,-18,-12,-7,-11
1523145156970822,1,-5,-2,8,-85,-15,-22,-1
1523145156970822,-3,0,0,1,4,11,20,-3
1523145156991879,1,1,0,-5,-1,-1,10,22
1523145156991879,-2,-1,-2,7,-10,-21,-7,-25
1523145156992881,-10,-1,2,-13,-22,9,-5,6
1523145156992881,0,-2,-2,12,31,-14,-13,-23
1523145157007428,-3,-3,-3,-2,7,7,-1,17
1523145157007428,8,-1,-1,-3,19,29,17,26
1523145157007930,12,1,-2,12,4,-12,2,9
1523145157007930,-9,-3,-4,-20,21,10,-9,15
1523145157029505,-2,-2,-3,-26,-35,-19,-8,-14
1523145157029505,1,-1,1,10,19,-8,-3,-11
1523145157030509,-11,-1,-1,-8,-11,-7,-2,-7
1523145157030509,-4,-3,-1,-6,-21,13,14,26
1523145157052563,10,-4,-5,-8,-5,-6,-7,-14
1523145157052563,-2,1,2,11,22,-5,-16,-27
1523145157052563,-8,0,-3,1,12,7,13,27
1523145157052563,6,3,2,9,19,-15,-2,-7
1523145157067604,-6,0,0,9,5,11,4,72
1523145157067604,0,1,3,2,1,22,-1,-56
1523145157067604,-4,-2,-2,-15,22,-18,-11,1
1523145157067604,-7,-5,-7,-20,-15,1,-11,-39
1523145157089665,2,-2,-1,15,7,-9,-5,13
1523145157089665,10,-2,-3,-2,8,24,25,30
1523145157090666,-9,1,1,8,7,-7,4,-1
1523145157090666,9,1,2,-4,-7,-7,-10,-6
1523145157111727,-3,-1,-2,-6,28,-6,-6,-16
1523145157111727,0,3,2,14,36,-11,-10,6
1523145157112856,-2,-1,1,-4,15,-6,6,-20
1523145157112856,-6,-3,-9,2,-25,11,-15,-1
1523145157126894,4,2,5,0,-38,7,-3,-2
1523145157126894,15,0,0,-4,-3,-13,-6,3
1523145157127896,-14,-2,-2,-2,1,-2,1,17
1523145157127896,-1,0,1,4,6,17,7,-11
1523145157149956,4,0,1,13,7,-9,0,-20
1523145157149956,-15,-1,-4,-17,-8,21,29,25
1523145157150959,16,0,2,6,-3,-10,-9,-10
1523145157150959,-2,-2,0,0,0,-19,-7,21
1523145157172013,-5,2,0,1,40,3,-12,-47
1523145157172013,-5,-6,-5,-12,-67,-33,1,8
1523145157173018,-16,-2,0,2,-20,11,-19,-2
1523145157173018,9,2,2,10,51,7,7,-8
1523145157187056,0,0,1,0,6,9,6,11
1523145157187056,3,0,-5,-9,-7,-15,-11,7
1523145157188056,-4,0,-1,4,1,4,22,-6
1523145157188056,-3,-2,-1,-4,-13,-5,-15,12
1523145157209620,-1,2,0,5,-1,24,19,-52
1523145157209620,0,-3,-4,-14,-25,12,-8,-11
1523145157210624,0,-4,-3,24,23,8,10,32
1523145157210624,18,0,-3,7,-8,-5,3,7
1523145157231914,-16,-1,-1,4,7,-25,5,21
1523145157231914,10,4,7,2,4,19,0,-4
1523145157232916,-13,-2,0,2,-21,-14,-7,-19
1523145157232916,9,-3,-5,-4,-35,-13,-8,-9
1523145157246953,-8,-3,-5,-25,-53,-3,-11,7
1523145157246953,5,1,3,8,41,-21,-8,-9
1523145157247955,1,1,-3,-19,-1,7,-2,-4
1523145157247955,-15,1,4,7,10,15,14,-10
1523145157270013,7,-2,-3,-4,-3,0,-1,3
1523145157270013,0,-1,-2,-4,-3,-3,-11,31
1523145157270013,9,0,0,3,-6,7,7,-17
1523145157270013,-13,-1,0,1,21,-20,-13,-4
1523145157292071,9,0,-4,-4,7,4,-1,6
1523145157292071,-10,-2,-3,-1,-4,-1,-5,-26
1523145157293074,14,0,-1,0,-2,9,-8,8
1523145157293074,-11,1,-3,6,27,-1,12,-18
1523145157307618,-5,-2,6,-4,-44,1,-10,-4
1523145157307618,1,-2,-1,17,34,-1,-1,6
1523145157308120,9,1,-1,-7,-4,0,4,5
1523145157308120,-1,-1,0,3,0,-2,3,11
1523145157330187,-3,-4,-7,-11,14,-4,2,29
1523145157330187,-8,2,6,11,-13,-9,-1,-51
1523145157330187,-1,-4,-6,-21,-10,-9,-16,3
1523145157330187,-2,-2,-1,-2,-19,-1,8,1
1523145157352247,4,-1,-4,-1,11,-5,-15,2
1523145157352247,-15,-3,-1,8,16,3,5,8
1523145157353251,6,1,2,5,5,-12,-15,-10
1523145157353251,2,1,2,-9,52,-2,0,4
1523145157366286,-3,-2,-2,13,91,-4,-2,-7
1523145157366286,8,2,0,-4,-25,19,20,27
1523145157374303,5,0,0,0,24,9,3,-2
1523145157374303,-13,-5,-3,5,-37,-22,-10,-9
1523145157389344,5,3,4,-1,29,29,17,14
1523145157389344,-6,-2,-3,-6,-3,0,-1,-12
1523145157390346,-3,-1,1,4,10,8,-3,13
1523145157390346,6,-1,-1,1,9,-8,3,7
1523145157412429,-12,-2,-3,3,-60,-12,-26,-40
1523145157412429,9,-2,-1,-3,-14,-19,2,33
1523145157413428,-11,-2,-2,-11,5,5,5,-14
1523145157413428,3,-1,-1,-7,-7,9,3,8
1523145157426467,3,-2,-3,-1,-29,-16,-4,22
1523145157426467,-10,-1,-4,-2,-4,-7,-13,-51
1523145157434485,-1,-2,-7,3,11,-5,10,-17
1523145157434485,0,4,8,16,1,6,-14,-13
1523145157449524,-2,-1,-3,-2,34,-3,6,-9
1523145157449524,4,-3,0,-3,-17,11,3,45
1523145157450525,-9,-1,-1,-1,5,-6,-1,-25
1523145157450525,2,1,1,-9,14,4,-2,-4
1523145157472584,-3,-1,1,-13,-10,-19,8,9
1523145157472584,3,-1,-1,0,20,2,-9,-13
1523145157472584,-9,-1,-1,0,-9,-6,4,1
1523145157472584,4,-1,1,4,3,24,8,17
1523145157486630,-4,1,0,1,-32,-26,-3,12
1523145157486630,9,2,0,5,49,7,-2,6
1523145157494644,2,-1,-1,-6,-62,-13,-11,-1
1523145157494644,7,-3,-3,-2,-8,4,10,-10
1523145157510197,-22,-3,-4,4,14,13,3,17
1523145157510197,3,2,5,2,-25,-3,0,-59
1523145157510699,1,-4,-3,0,7,2,-6,10
1523145157510699,-4,-2,-5,0,-15,-19,-11,-1
1523145157531758,7,-1,1,3,-37,1,3,0
1523145157531758,-1,-3,-5,-8,-10,-2,6,35
1523145157532758,-2,3,4,6,42,13,3,-41
1523145157532758,-8,-1,-1,-12,-32,6,-8,-5
1523145157546794,13,-1,-1,2,13,12,-3,4
1523145157546794,-5,-2,-1,-2,-20,12,-2,7
1523145157554816,4,0,-1,-3,27,-15,-6,19
1523145157554816,-6,-1,-2,-1,-6,-6,-5,-14
1523145157569862,0,0,1,1,1,11,1,-22
1523145157569862,1,-1,-1,1,1,-18,3,27
1523145157570857,3,-5,-5,-5,-15,-8,-2,1
1523145157570857,-5,-1,-3,-4,4,14,-1,-6
1523145157591922,-5,0,1,-6,-29,2,-5,-21
1523145157591922,4,2,3,18,21,-17,0,-2
1523145157592919,-10,-3,-2,5,7,14,2,6
1523145157592919,3,-3,-5,-30,-14,-8,15,0
1523145157606970,-2,-2,2,20,25,-6,-4,7
1523145157606970,-11,-4,-7,-23,-9,3,-9,-17
1523145157614997,5,3,5,-10,-26,0,16,45
1523145157614997,-3,0,1,18,63,-2,-8,-18
1523145157630035,7,1,0,-4,22,4,-5,-1
1523145157630035,-1,1,0,0,4,16,8,-6
1523145157630035,-4,-1,-4,4,-13,-12,-12,-5
1523145157630035,-6,-1,0,1,-10,-2,24,40
1523145157652105,3,0,-2,-9,17,-4,6,-39
1523145157652105,2,1,1,-21,23,28,-23,3
1523145157653098,-13,0,-2,-11,-25,8,23,-6
1523145157653098,10,0,2,4,-13,-14,-30,9
1523145157666141,0,0,-2,1,-6,-21,-12,1
1523145157666141,1,0,0,-1,2,10,18,8
1523145157674154,3,-1,0,2,7,10,-13,-28
1523145157674154,1,-1,-5,-8,-21,-10,-5,-9
1523145157689193,-26,-4,-1,-2,-26,-2,3,1
1523145157689193,13,-5,-8,-3,-45,-28,-12,6
1523145157690196,-7,-3,0,0,11,-2,0,10
1523145157690196,3,0,2,8,16,11,9,-11
1523145157712263,5,-1,-1,-4,-21,2,-4,-2
1523145157712263,-9,0,4,4,-6,2,0,-7
1523145157713267,0,-3,-3,14,24,-31,-16,0
1523145157713267,-5,1,3,3,23,-19,11,-14
1523145157735328,-7,0,-3,2,-28,28,2,-1
1523145157735328,10,-1,-3,-15,-9,-10,2,3
1523145157736335,8,0,0,1,7,12,-13,12
1523145157736335,-25,-1,-1,-7,18,-7,-4,-7
1523145157749365,21,-2,-4,5,16,-15,-7,1
1523145157749365,-9,2,2,-7,-4,-19,-18,29
1523145157750367,-1,0,4,17,29,4,24,-21
1523145157750367,2,-2,-3,-1,-15,5,-24,-14
1523145157772428,-5,-1,-1,-13,-6,-8,3,-11
1523145157772428,1,-2,1,7,-8,-10,1,19
1523145157772428,-8,-2,-4,-7,-12,4,5,-14
1523145157772428,12,0,3,0,-18,-8,-8,-4
1523145157795493,8,-2,-4,-2,24,-1,-1,6
1523145157795493,-5,2,0,-6,7,-2,-1,-30
1523145157796490,-10,-1,1,16,5,28,33,45
1523145157796490,4,0,2,17,-19,-9,-1,-8
1523145157810031,1,1,1,-13,-10,12,-8,-3
1523145157810031,-5,-2,-5,24,61,-2,24,0
1523145157810534,-14,-3,-4,-21,2,-19,-11,3
1523145157810534,8,0,-2,-14,-41,-2,2,28
1523145157832201,-13,-2,-1,14,10,-1,5,-44
1523145157832201,5,0,-2,3,16,-3,-6,24
1523145157833201,0,2,0,-7,-7,1,-8,-18
1523145157833201,1,-1,-1,5,11,-13,4,13
1523145157855264,5,-1,-1,7,11,15,0,8
1523145157855264,-8,-2,-1,-24,-22,-3,6,-14
1523145157856264,7,-4,-9,-1,-13,0,-29,-12
1523145157856264,1,0,1,-11,-3,-6,-8,4
1523145157869298,-3,0,4,1,-31,-6,4,-2
1523145157869298,8,-1,-4,-8,-13,21,19,21
1523145157870301,-11,0,1,18,-6,-25,-16,-34
1523145157870301,2,-2,-4,-22,26,7,10,10
1523145157892364,3,0,2,-13,-24,6,-11,-3
1523145157892364,-19,-3,-1,7,1,-13,-18,-20
1523145157893361,14,-2,-3,-12,-53,-23,3,-4
1523145157893361,-1,-1,-2,-2,-3,16,-2,0
1523145157914960,0,-2,-4,-2,24,-2,3,17
1523145157914960,-8,0,0,-10,-2,7,-13,-31
1523145157915964,15,-2,-3,-16,-36,-9,1,3
1523145157915964,-12,0,-1,0,16,36,28,2
1523145157930006,5,1,-1,-11,-10,-14,1,18
1523145157930006,-3,-2,-1,10,3,-8,-3,17
1523145157945041,6,1,3,-3,26,-2,-1,-10
1523145157945041,-20,-5,-5,0,-9,-1,-1,6
1523145157952060,5,-2,-4,7,3,20,19,15
1523145157952060,0,-2,-1,-10,-14,-3,-6,0
1523145157953062,1,-1,-2,0,1,9,-10,-30
1523145157953062,2,0,-2,4,3,-8,-8,2
1523145157975121,-7,0,1,1,-4,-18,-5,-7
1523145157975121,2,-3,-1,8,1,-10,6,-6
1523145157976124,6,0,1,-13,1,19,8,40
1523145157976124,1,-4,-2,26,4,4,-5,-26
1523145157989158,-8,0,-4,-29,-12,-16,-10,1
1523145157989158,11,0,-1,0,-9,16,-1,13
1523145157990161,-24,0,3,17,17,-17,4,-26
1523145157990161,1,-3,-4,2,-14,-19,-9,-8
1523145158012224,-3,-3,-3,0,4,10,1,2
1523145158012224,5,3,2,0,-16,-19,-1,18
1523145158013226,-9,-2,-6,6,26,-7,-21,14
1523145158013226,2,3,2,5,1,16,8,-14
1523145158035406,7,-1,-1,8,17,-4,15,29
1523145158035406,1,1,-2,4,8,29,-3,-23
1523145158036408,-2,0,-2,-3,20,-5,-3,10
1523145158036408,1,0,1,-19,-48,-4,2,8
1523145158049440,3,0,-2,-7,-27,-13,-9,-16
1523145158049440,-6,-3,-2,-4,24,-8,6,-13
1523145158057462,0,-2,-4,4,8,3,1,7
1523145158057462,-3,1,0,-2,-16,4,-4,-10
1523145158072499,-6,0,2,3,25,11,6,1
1523145158072499,0,-6,-5,-14,-12,-4,-13,-5
1523145158072499,2,-5,-5,-6,-21,-3,2,-7
1523145158072499,5,1,0,-4,30,-1,1,1
1523145158095564,-8,-4,-2,5,-4,6,-3,11
1523145158095564,-4,3,5,22,22,28,29,-32
1523145158096566,13,1,6,4,2,0,-5,17
1523145158096566,0,-2,-6,-12,7,-9,-18,-5
1523145158110104,-6,0,1,-11,-15,-7,1,-17
1523145158110104,-3,-2,0,10,-6,-22,-12,29
1523145158110607,3,1,-3,-18,-29,4,18,0
1523145158110607,12,-1,1,15,-6,-12,4,13
1523145158132203,-9,-1,-3,-15,-22,-2,-17,-6
1523145158132203,0,-2,-4,-3,0,-2,11,-13
1523145158133204,-10,-2,1,-3,12,9,-12,-5
1523145158133204,8,0,1,-7,-17,-10,-5,-2
1523145158155263,7,-1,-1,17,18,-13,-14,13
1523145158155263,-23,-2,-4,-20,-49,3,3,-7
1523145158156268,6,-5,-4,-7,-41,-13,4,7
1523145158156268,-8,-1,-3,1,28,19,1,-29
1523145158169300,2,-3,-1,10,15,-23,3,6
1523145158169300,9,0,-1,15,-16,-11,-24,14
1523145158170302,-10,1,4,12,21,11,4,-18
1523145158170302,-10,-3,1,-5,-8,-5,-8,20
1523145158192360,14,-1,-6,5,5,1,-4,0
1523145158192360,-1,0,4,-3,4,-12,7,-1
1523145158193363,5,-1,2,8,18,20,19,7
1523145158193363,-3,-2,0,6,26,-2,0,34
1523145158215249,3,-1,0,3,7,5,-10,-61
1523145158215249,-1,-4,-5,1,9,-5,-2,-4
1523145158216252,-2,1,3,-5,-24,-14,-7,-3
1523145158216252,-2,-1,-1,8,8,3,4,-12
1523145158229286,-7,-2,-1,2,13,10,-7,9
1523145158229286,5,-3,-6,-13,-23,0,-3,-9
1523145158230289,-7,1,0,-9,-14,-19,0,14
1523145158230289,-12,-2,-2,17,-5,8,4,2
1523145158252350,13,2,3,-1,36,10,11,8
1523145158252350,3,0,1,0,-5,-20,-17,-1
1523145158253351,-8,0,-5,2,21,-4,-13,-17
1523145158253351,12,-1,-1,-10,34,36,10,-3
1523145158275408,-9,-1,-2,-3,1,13,0,7
1523145158275408,-2,0,3,4,8,-9,-7,-14
1523145158276412,-3,-4,-7,-6,-2,15,10,17
1523145158276412,0,1,-1,4,-2,-29,-24,3
1523145158289445,-5,-2,2,-2,-24,5,13,-4
1523145158289445,1,-1,0,-2,-3,-16,-3,3
1523145158297467,-3,-1,-2,-8,28,22,-4,-1
1523145158297467,-4,-5,-6,-19,-50,-3,-9,-12
1523145158312512,2,1,2,18,6,-20,14,4
1523145158312512,-11,-4,-4,-4,-1,1,-9,-5
1523145158313014,10,-2,2,4,44,4,14,56
1523145158313014,-9,-1,-1,-9,-26,12,-9,-46
1523145158335377,6,-1,-1,-10,-50,-4,0,2
1523145158335377,-4,-3,-3,1,11,2,2,-3
1523145158336381,1,0,1,4,-6,-3,3,11
1523145158336381,2,-1,-1,3,-5,-20,-9,-15
1523145158349414,-4,1,0,-2,56,33,7,29
1523145158349414,-6,1,0,9,20,-6,-8,-34
1523145158357435,7,-2,-5,-9,-27,8,-2,-16
1523145158357435,-8,0,1,6,-17,-26,5,11
1523145158372479,-1,-2,-1,-4,-68,-21,-11,-21
1523145158372479,1,0,-1,-5,25,25,12,14
1523145158372479,10,-2,-4,-7,-21,-8,-6,-21
1523145158372479,2,-1,-1,5,27,6,-9,2
1523145158395536,0,0,0,-5,-17,-11,-6,-9
1523145158395536,3,1,-1,0,-3,6,11,27
1523145158396539,-10,-1,2,4,-7,-9,-6,-1
1523145158396539,4,1,2,4,22,-15,4,10
1523145158409081,-13,-3,-4,-12,-23,12,-1,-26
1523145158409081,7,0,1,-14,-20,-19,-8,10
1523145158417140,-3,1,1,16,40,17,0,-20
1523145158417140,10,2,2,13,64,7,13,47
1523145158432180,2,2,3,1,40,-11,-2,4
1523145158432180,-7,-3,-2,6,-9,9,20,-23
1523145158433181,-11,-3,0,-5,5,-17,-17,4
1523145158433181,19,-3,-2,17,-1,2,4,-1
1523145158455240,-6,0,-5,-22,-1,3,0,-35
1523145158455240,-5,-1,0,3,-1,8,2,21
1523145158456242,3,-1,-2,9,5,-13,-8,-21
1523145158456242,-5,0,-3,-28,-47,-22,0,3
1523145158469278,-5,-5,-5,-12,-75,2,-3,-21
1523145158469278,10,1,1,2,36,17,2,0
1523145158477298,-9,-3,-5,-10,-18,7,-5,5
1523145158477298,-9,-5,-3,-9,-22,-7,-16,-31
1523145158492337,10,1,3,13,21,15,8,18
1523145158492337,-6,-1,-4,-11,-7,-5,0,15
1523145158493339,4,-2,-2,4,-20,0,5,-30
1523145158493339,-3,-2,-3,-3,9,6,5,2
1523145158515702,-5,-5,-3,-4,9,-8,-4,13
1523145158515702,-14,-1,4,1,3,-13,4,23
1523145158515702,23,0,1,9,30,0,-5,-4
1523145158515702,-12,-1,-1,-5,-33,13,22,-26
1523145158528737,5,-2,-6,-27,43,2,-6,3
1523145158528737,-13,-2,-5,25,9,-14,7,17
1523145158536758,0,-2,0,-11,-32,-2,-29,-12
1523145158536758,-3,-1,0,9,33,3,3,6
1523145158551797,2,-2,-5,0,8,-7,-4,18
1523145158551797,5,0,2,5,8,-3,7,-15
1523145158552800,-9,-4,-6,-6,-11,3,9,5
1523145158552800,3,3,4,0,23,25,6,1
1523145158574858,3,-1,-3,12,5,-2,3,8
1523145158574858,4,1,-2,-11,-8,-12,-20,-3
1523145158575860,-14,-1,-1,14,49,2,8,10
1523145158575860,17,0,3,-8,-15,-13,-5,12
1523145158588895,-9,-1,2,19,33,-9,-8,-17
1523145158588895,-5,-5,-3,-16,-52,-11,-13,-4
1523145158596919,6,0,1,-3,-6,20,14,6
1523145158596919,-1,-3,-8,-5,-14,-8,-4,12
1523145158612969,-7,4,9,5,-14,-2,-2,19
1523145158612969,7,-2,-2,25,24,-1,0,-8
1523145158613472,0,2,2,-5,-11,-6,6,-12
1523145158613472,-1,-1,-2,-7,-3,19,-10,-10
1523145158635034,0,-1,-1,8,-10,-12,9,-6
1523145158635034,-1,-4,-2,-11,-11,1,-12,-4
1523145158636040,-4,-1,-2,-4,-9,8,6,-18
1523145158636040,-7,-3,-5,-6,-22,-10,-11,-12
1523145158649073,-17,0,0,1,-11,-6,-11,-9
1523145158649073,29,4,3,-19,0,10,10,9
1523145158657094,-2,-2,0,1,7,-18,-2,11
1523145158657094,-4,-3,-3,-3,-9,2,9,4
1523145158672134,0,0,1,3,15,14,7,13
1523145158672134,-7,0,0,7,-12,-11,-14,-1
1523145158673137,3,-3,-4,-20,-35,-8,13,35
1523145158673137,-12,1,6,13,53,-7,-3,-36
1523145158695195,7,0,0,7,2,-12,3,13
1523145158695195,-2,-1,-3,-1,-5,30,1,-20
1523145158696200,-14,1,-1,7,13,-13,-15,4
1523145158696200,5,-2,2,-8,-27,-4,3,4
1523145158717890,6,-3,-3,-8,-70,-19,-8,-7
1523145158717890,-8,-3,-3,-10,-18,-5,-4,-21
1523145158718891,0,-2,-1,10,25,12,3,7
1523145158718891,-8,-1,-5,-11,-8,1,-11,-1
1523145158731926,-6,-4,-2,6,40,9,0,-10
1523145158731926,1,-1,0,-5,-1,-9,-8,-19
1523145158732926,-3,-1,2,9,-10,-7,1,16
1523145158732926,10,0,0,5,11,-9,12,-3
1523145158754986,-7,-2,-3,12,-1,9,-16,8
1523145158754986,-1,1,-1,6,47,12,17,10
1523145158755983,-6,-1,-2,-5,-2,2,-6,9
1523145158755983,5,0,0,-5,-17,-11,-3,-27
1523145158778043,7,0,3,21,23,-12,2,3
1523145158778043,-5,0,1,7,12,32,8,6
1523145158779043,-1,-3,-2,-12,-22,-7,-6,0
1523145158779043,-5,1,0,0,15,11,-4,15
1523145158792080,-1,-3,-5,-23,-28,8,5,-1
1523145158792080,2,-2,-1,5,11,-15,-12,-16
1523145158793080,1,-2,-2,-15,-24,-10,-3,-7
1523145158793080,-11,2,-1,3,-2,-8,-3,15
1523145158815783,3,-3,-5,-9,-19,-8,4,-10
1523145158815783,5,2,3,-1,24,15,-29,-12
1523145158815783,8,2,0,3,-14,22,33,59
1523145158815783,-11,-2,0,-11,-11,-28,-13,-38
1523145158837846,9,2,5,13,103,36,6,6
1523145158837846,2,-3,-4,-10,6,-19,-8,18
1523145158838848,-19,0,0,-9,10,1,-14,-42
1523145158838848,16,-1,-3,3,-9,-1,13,27
1523145158851883,-4,-1,-5,6,7,-1,13,-9
1523145158851883,0,-5,-6,-3,-25,4,4,15
1523145158852884,0,2,6,6,-4,2,-12,-24
1523145158852884,-4,0,1,12,24,8,9,6
1523145158874943,4,-1,-1,-11,-2,-9,-9,-8
1523145158874943,-4,-3,-5,13,-19,-24,0,-11
1523145158875943,-1,-1,-2,-2,-8,10,0,1
1523145158875943,0,-2,0,-9,5,30,0,-7
1523145158898008,-6,-3,-3,16,-19,-12,-4,23
1523145158898008,3,1,2,-14,-7,0,-6,-25
1523145158899018,-1,-2,-4,3,15,-6,4,-4
1523145158899018,-3,-1,1,-12,-1,0,3,-4
1523145158912553,11,0,1,12,-1,-6,-9,26
1523145158912553,-7,2,0,-11,-43,-12,2,5
1523145158913057,-3,-3,-6,-1,11,0,-4,-29
1523145158913057,13,-2,-2,-2,-3,12,4,19
1523145158936123,-16,-1,2,-1,-24,-14,-9,1
1523145158936123,3,0,0,-16,-35,2,9,-35
1523145158936123,10,4,4,28,51,-8,8,37
1523145158936123,-2,-4,-5,-6,-15,-11,-3,26
1523145158958183,-2,2,1,-4,-32,-5,-7,-47
1523145158958183,-5,-3,-2,-7,-4,10,9,21
1523145158958183,2,-2,-5,-14,-19,-1,3,-1
1523145158958183,-9,-1,1,-5,-3,16,-6,-6
1523145158972221,15,-1,-1,-1,14,8,8,17
1523145158972221,1,1,0,11,8,-18,-4,0
1523145158973225,-1,-2,-6,-7,-12,12,-7,-21
1523145158973225,-9,-1,3,14,27,-2,4,34
1523145158995285,-11,-2,-1,-16,-5,1,-17,-39
1523145158995285,6,0,-2,2,-4,4,14,-19
1523145158996284,-2,0,3,4,-2,-13,-3,19
1523145158996284,7,-3,-3,6,-18,-2,5,-24
1523145159018170,-16,-3,-6,-18,-25,0,-2,9
1523145159018170,1,-1,-2,5,3,-13,-14,0
1523145159018170,10,3,3,4,27,10,9,22
1523145159018170,-17,-1,0,-16,-40,4,-2,-45
1523145159032210,-2,-5,-2,14,4,-1,4,6
1523145159032210,7,-2,2,8,6,4,-4,8
1523145159033209,-7,-3,-2,-9,-15,-21,-6,-12
1523145159033209,9,-2,-4,8,10,12,-5,12
1523145159055266,-1,2,0,-5,67,5,10,13
1523145159055266,-16,-4,0,-2,25,-2,-16,0
1523145159056271,-5,-1,0,0,11,-15,-3,-17
1523145159056271,2,-1,0,22,-28,13,-2,-13
1523145159078329,7,2,2,7,32,8,6,22
1523145159078329,-3,-2,-2,-18,-16,5,-2,5
1523145159078329,-3,-3,-3,-2,-12,-5,-17,-14
1523145159078329,5,-5,-3,-7,49,-27,-1,16
1523145159092372,-11,-2,-2,-13,-49,-4,11,0
1523145159092372,2,2,1,-2,-36,7,-10,-22
1523145159093369,8,-1,-1,21,-20,-15,-15,-11
1523145159093369,1,-2,-3,-1,-7,4,3,6
1523145159115005,-2,-1,-5,-10,-8,3,1,17
1523145159115005,1,-1,4,9,13,-2,13,4
1523145159116000,-6,1,-1,-28,-31,-20,-5,4
1523145159116000,6,0,1,12,20,13,0,-2
1523145159138060,7,1,0,-2,48,7,-12,6
1523145159138060,-6,0,-4,-9,-11,5,2,-5
1523145159139061,0,-1,3,-1,-11,-2,8,2
1523145159139061,-5,0,0,1,7,-8,-6,2
1523145159152099,-18,-5,-4,-30,-55,6,0,6
1523145159152099,13,1,3,18,34,13,5,-8
1523145159153099,1,-3,0,9,0,-7,-6,-3
1523145159153099,-10,2,2,-22,17,7,-6,0
1523145159175158,-1,0,0,17,-35,-15,-5,-7
1523145159175158,-10,-3,-7,-18,-31,-11,2,12
1523145159176160,1,0,0,7,34,-13,-11,-4
1523145159176160,3,-2,-4,-6,-22,-16,13,-15
1523145159198219,-3,2,1,-1,-7,0,-6,-26
1523145159198219,3,-1,-1,3,4,-12,-20,14
1523145159198728,0,0,1,-5,25,15,9,10
1523145159198728,-6,-3,-2,1,11,-12,-8,-10
1523145159212264,10,-2,-5,-15,-12,-10,-13,2
1523145159212264,-13,0,5,16,15,14,2,-13
1523145159213266,14,2,0,-4,6,16,19,23
1523145159213266,-10,-2,0,13,70,-6,-9,1
1523145159235533,5,1,1,-6,21,20,11,-16
1523145159235533,-1,-5,-7,-1,-2,-12,-1,1
1523145159236534,-1,-1,-1,4,-38,-2,-16,21
1523145159236534,1,3,5,4,7,-4,15,-52
1523145159257587,-1,-2,-3,-9,9,-12,-2,28
1523145159257587,1,2,-3,-1,7,12,12,0
1523145159258590,-8,-3,0,-1,-7,3,-2,-16
1523145159258590,2,-2,-7,-9,2,5,-13,30
1523145159271626,0,0,4,5,8,1,0,-31
1523145159271626,2,-2,-2,-10,-11,4,3,-4
1523145159279644,-5,-4,-9,2,0,5,16,2
1523145159279644,-10,-1,-2,-18,-112,-28,-14,-1
1523145159295687,5,0,2,-1,6,26,13,2
1523145159295687,-4,1,0,3,9,-3,-5,2
1523145159295687,-2,-3,-4,-8,-27,-22,-11,2
1523145159295687,5,1,4,-9,-29,24,3,-5
1523145159317417,-12,-4,-5,8,5,-2,3,-28
1523145159317417,15,-2,-4,0,-14,-13,-14,34
1523145159318403,-11,-1,-3,-13,6,2,-11,-52
1523145159318403,-7,-1,-2,-5,-4,-17,-7,19
1523145159331440,4,-1,-2,-3,-26,-5,-4,-13
1523145159331440,-10,0,5,6,42,7,4,4
1523145159339458,7,-1,-1,-6,-5,-6,2,29
1523145159339458,6,-1,-3,7,13,0,-4,-21
1523145159355501,0,-1,-2,-3,-21,-28,1,18
1523145159355501,-1,-2,-2,-3,32,27,7,-1
1523145159356503,-6,0,3,11,45,27,7,-3
1523145159356503,2,-1,-2,1,-13,-8,-7,2
1523145159377563,-9,0,4,8,-3,-13,-6,-5
1523145159377563,14,-1,-4,-13,-49,-25,-10,-6
1523145159378566,-7,0,-1,-6,-70,-1,-1,-19
1523145159378566,-3,0,3,29,33,8,2,11
1523145159391599,6,0,4,3,-5,-20,-18,16
1523145159391599,-10,-1,-3,-2,8,5,-4,-32
1523145159400122,0,-1,0,-9,11,0,4,-15
1523145159400122,2,-3,-2,7,32,8,8,14
1523145159415199,4,1,-1,1,-4,14,8,7
1523145159415199,-5,1,2,7,6,-3,9,23
1523145159416201,2,-2,-1,-6,-4,-15,-19,0
1523145159416201,-1,-1,-5,-1,28,-15,-9,7
1523145159445279,-2,-2,-3,-10,27,4,12,-17
1523145159445279,2,-3,2,3,1,22,12,11
1523145159446281,-2,2,2,10,2,0,13,11
1523145159446281,4,0,-3,-15,-38,-1,-8,31
1523145159451297,-1,1,-1,4,9,6,-6,-65
1523145159451297,-4,-1,-2,-7,-11,-9,-7,8
1523145159459316,0,-3,-2,2,-11,-5,5,-2
1523145159459316,-13,0,3,8,-11,6,4,1
1523145159475360,3,-1,-6,-8,-17,-5,-7,40
1523145159475360,-3,-2,-1,1,-5,-6,-1,-49
1523145159477364,-8,-2,-4,-2,-6,-2,-1,34
1523145159477364,3,-1,-3,-17,6,27,11,-21
1523145159498418,2,1,2,15,-10,-1,8,13
1523145159498418,-6,1,0,-1,2,-12,-13,-2
1523145159499425,6,-3,-1,15,15,-16,-6,-22
1523145159499425,-1,1,2,1,18,-24,4,6
1523145159511457,2,0,1,-6,-49,10,3,13
1523145159511457,-3,2,0,28,43,-2,-4,13
1523145159520571,9,0,1,-23,24,3,8,-30
1523145159520571,2,-3,-5,-4,-35,-9,-23,23
1523145159535615,0,0,1,19,31,1,-6,-57
1523145159535615,3,-2,-2,-10,27,0,12,10
1523145159536615,1,1,1,12,4,-1,-5,-4
1523145159536615,-12,-1,-2,-13,2,4,5,20
1523145159557669,2,-4,-5,-18,0,-3,0,37
1523145159557669,-15,-3,-6,-3,-20,-12,-5,-21
1523145159559676,7,2,4,1,12,-2,-22,-13
1523145159559676,5,-1,3,7,2,24,22,-4
1523145159571706,-7,-2,-2,4,2,-12,-9,15
1523145159571706,1,0,-4,-15,-17,1,19,-2
1523145159580730,-5,0,-2,-4,-2,-11,-12,20
1523145159580730,7,-2,-1,28,12,-14,-12,-34
1523145159594767,6,-4,-6,-24,-2,25,5,7
1523145159594767,-8,2,6,11,6,24,0,4
1523145159596773,-2,-2,-5,-6,-23,-9,6,-3
1523145159596773,1,0,2,-9,7,-9,-15,-3
1523145159617623,-4,-2,-4,-2,5,-1,0,-10
1523145159617623,3,-3,-2,-7,-10,-5,-8,21
1523145159619628,0,-3,-6,-6,-18,-3,8,1
1523145159619628,-5,2,2,1,4,5,-3,-13
1523145159640685,1,3,1,6,-33,-13,9,-1
1523145159640685,3,-4,-6,-25,-5,2,-1,26
1523145159641687,-6,-1,-1,12,-40,4,-2,-14
1523145159641687,-5,-2,-1,-5,-6,-12,7,-28
1523145159655723,-1,1,1,-8,25,0,-8,11
1523145159655723,3,-4,-6,4,-21,-4,1,-1
1523145159656727,-9,0,-3,-11,6,2,-20,-20
1523145159656727,9,0,1,14,20,-10,3,18
1523145159677783,-4,-4,-4,3,14,-10,-4,-10
1523145159677783,-2,-1,1,7,-16,5,16,-10
1523145159679789,-3,0,2,8,38,34,7,2
1523145159679789,3,-1,-5,-10,-30,-20,0,28
1523145159700352,-6,-3,1,3,16,23,13,-10
1523145159700352,-1,-1,-5,-4,-9,-31,-28,17
1523145159702358,-5,-4,-2,9,26,5,-6,-18
1523145159702358,-3,0,-1,-11,-12,1,15,-9
1523145159715547,14,-1,1,10,-4,-9,-3,27
1523145159715547,-14,-2,-1,-9,-8,6,5,7
1523145159716557,-3,-4,-3,-15,-34,7,-1,-10
1523145159716557,-9,0,-3,-6,9,0,-10,-17
1523145159736606,5,0,1,-8,-1,-5,2,-2
1523145159736606,7,4,5,13,-24,-21,-25,7
1523145159745626,4,2,-3,-8,25,15,15,7
1523145159745626,-11,-2,-4,-7,-16,21,-5,-23
1523145159767684,13,2,3,10,-2,-13,-1,36
1523145159767684,-13,-1,-1,14,42,3,-11,-52
1523145159769689,5,1,1,0,-24,24,21,37
1523145159769689,4,-3,-6,-11,-24,-4,-15,42
1523145159774701,-11,-1,-2,-1,8,1,-8,-80
1523145159774701,-2,-3,2,-15,-25,-2,6,6
1523145159781720,8,-1,4,16,36,-12,-5,8
1523145159781720,-7,-5,-5,4,13,-9,0,5
1523145159797765,-11,0,-4,-10,-30,-6,2,-1
1523145159797765,19,1,-3,1,1,-6,-8,-1
1523145159799778,-11,-1,-1,-9,0,-3,4,-13
1523145159799778,5,1,3,6,-3,1,6,-7
1523145159820531,-4,-1,3,16,12,-24,-15,23
1523145159820531,-12,0,1,4,2,31,10,-19
1523145159821534,13,-2,-3,-4,3,7,1,41
1523145159821534,-5,0,-1,4,19,-3,-2,-28
1523145159834572,7,0,-1,-17,0,7,3,15
1523145159834572,1,-3,-3,-3,7,11,0,24
1523145159842589,-12,-1,-2,15,47,-11,-7,-35
1523145159842589,-5,0,-1,-15,-9,0,-1,0
1523145159857630,8,0,-1,20,33,-16,-6,-4
1523145159857630,3,-3,-2,5,11,-11,5,24
1523145159859635,-17,-2,-1,-34,-37,-5,0,-26
1523145159859635,15,-2,0,-1,-29,-3,0,-1
1523145159880694,-17,-3,-6,2,25,5,2,10
1523145159880694,5,-1,-2,-9,-9,-18,-17,-27
1523145159881695,-1,-1,2,7,25,17,15,-2
1523145159881695,1,2,8,13,44,6,5,9
1523145159894729,0,-2,-2,-12,-24,-4,-6,10
1523145159894729,4,-1,-6,-13,-3,3,13,10
1523145159901754,5,-1,-1,10,-16,-15,-19,-7
1523145159901754,-3,0,-2,-13,-5,-15,-7,-13
1523145159917550,-3,-2,0,8,10,7,10,9
1523145159917550,-1,-1,-2,15,11,35,7,-28
1523145159919558,-2,0,0,0,0,-7,-6,-3
1523145159919558,2,1,-2,29,14,-4,-5,-17
1523145159940614,-6,-1,-1,-5,5,-10,-11,-2
1523145159940614,-13,-1,-4,0,-33,-4,7,7
1523145159941616,16,1,1,-34,-21,-14,1,20
1523145159941616,-4,-2,-1,6,35,-2,11,15
1523145159954651,-5,-3,-7,-25,-35,0,-12,-9
1523145159954651,4,2,5,18,69,6,0,3
1523145159961671,0,-2,-4,5,-8,14,0,-7
1523145159961671,-2,-1,0,-11,-16,0,6,-3
1523145159977712,1,1,0,0,-23,20,7,13
1523145159977712,-6,0,-1,-21,0,-13,-10,-57
1523145159979717,-8,0,-1,3,-8,-25,-14,-1
1523145159979717,9,-5,-3,-2,0,0,-2,15
1523145160000783,-21,3,3,9,47,44,19,-5
1523145160000783,2,-2,0,2,0,-20,-3,18
1523145160002288,12,0,-1,-1,-11,-8,16,12
1523145160002288,-9,-2,-5,2,-9,2,-1,-13
1523145160014823,8,-2,-4,1,-18,12,3,14
1523145160014823,4,4,9,4,-24,-10,-3,-25
1523145160021844,-7,-2,-1,-13,2,-13,-3,-12
1523145160021844,0,-1,0,5,-12,2,-4,11
1523145160044914,-7,-4,-6,3,-14,-12,-1,17
1523145160044914,2,2,2,-1,-12,-21,-23,-26
1523145160051921,5,-1,0,12,36,1,0,2
1523145160051921,-4,1,2,-5,-4,10,-6,-6
1523145160059944,-1,-5,-8,26,-29,24,4,-10
1523145160059944,4,-4,-4,-12,-15,-5,4,2
1523145160061952,-7,2,5,18,-7,-12,3,-5
1523145160061952,-3,-3,-8,-10,32,-9,-6,8
1523145160074984,-6,0,1,-6,58,-7,1,-27
1523145160074984,2,-2,-4,11,3,32,1,27
1523145160082003,0,-1,-2,16,21,3,-8,-1
1523145160082003,-4,3,2,-10,-13,-7,2,-7
1523145160098053,7,0,-1,-7,-4,-23,-16,-12
1523145160098053,-5,-4,-3,-14,-34,-4,15,11
1523145160099554,-6,-1,-3,3,51,17,-2,5
1523145160099554,4,-1,2,-6,-15,3,-12,8
1523145160120687,10,3,2,-14,-18,-19,-10,-42
1523145160120687,-12,-2,-6,-2,-3,-1,1,25
1523145160122689,7,-1,-4,0,-21,4,2,-6
1523145160122689,3,1,1,1,3,2,9,0
1523145160133717,-14,-3,-3,-9,0,-16,-20,6
1523145160133717,-6,1,1,5,14,7,-2,-1
1523145160142739,1,-4,-5,-16,-46,26,5,12
1523145160142739,1,-1,-2,12,24,-1,2,-7
1523145160157781,6,0,2,8,13,8,12,14
1523145160157781,-7,-1,0,1,-2,-8,-2,-11
1523145160159785,-3,-1,-1,6,27,-24,-12,-3
1523145160159785,-2,0,4,-12,-30,-1,12,3
1523145160179838,-8,0,-1,-9,-21,30,1,1
1523145160179838,26,-3,-5,-4,4,1,-2,8
1523145160181842,-8,2,4,-6,-30,-20,-9,19
1523145160181842,-5,-1,-4,9,48,2,-4,-10
1523145160193874,1,1,3,8,29,4,30,-4
1523145160193874,-2,0,2,-14,-1,10,9,22
1523145160203419,2,0,-2,-10,-40,-14,-16,-8
1523145160203419,2,-3,-4,4,16,-7,0,6
1523145160217636,0,-3,-2,5,-38,11,-2,0
1523145160217636,5,1,-1,-17,-4,-33,-9,1
1523145160219626,-12,-1,-1,11,6,24,6,-4
1523145160219626,5,1,4,0,-3,-13,10,21
1523145160240681,-1,-2,-7,-14,-19,-19,-11,-23
1523145160240681,2,2,1,1,42,8,-13,-1
1523145160241683,-11,-1,1,7,-23,-8,2,17
1523145160241683,9,-3,-3,-10,-27,13,1,-12
1523145160253717,-3,-2,-3,-10,-2,-31,-17,15
1523145160253717,-6,-1,0,6,35,31,42,16
1523145160262739,-12,2,4,4,-11,-2,-22,-75
1523145160262739,-2,0,-2,9,-6,17,-5,4
1523145160277787,6,1,0,-11,-5,-14,6,-5
1523145160277787,-2,-2,-4,-18,-17,-14,3,11
1523145160279791,4,-5,-5,9,0,-2,-11,1
1523145160279791,1,-1,0,-7,29,26,17,4
1523145160300353,0,-2,-6,-3,-43,-4,-13,-4
1523145160300353,-6,0,3,19,3,9,5,13
1523145160302356,6,-1,-4,-13,9,5,9,-5
1523145160302356,-10,1,-1,0,-6,-10,-15,-22
1523145160314388,6,4,8,12,50,5,8,3
1523145160314388,0,-2,-3,1,-41,-3,-9,9
1523145160322813,3,-1,-4,-21,-11,-6,8,8
1523145160322813,6,0,-1,10,-23,-4,-5,20
1523145160337852,-9,-4,-4,2,-8,11,4,-29
1523145160337852,-1,-1,0,0,-25,-29,-17,-38
1523145160339858,-11,2,1,-7,6,18,8,47
1523145160339858,0,-1,-6,-19,-36,-3,-5,-47
1523145160359915,9,1,4,9,26,27,9,39
1523145160359915,3,2,0,8,-3,-19,-2,-2
1523145160361919,6,-6,-6,-15,-11,-25,7,-13
1523145160361919,-10,-1,3,14,57,43,-7,10
1523145160373950,-7,-4,-3,-2,-23,-20,-22,-8
1523145160373950,1,-3,-4,0,21,0,-6,-12
1523145160382979,-1,-1,0,-9,-20,6,3,7
1523145160382979,-9,-2,-1,-4,-17,-25,1,-12
1523145160398016,12,3,4,-7,-6,3,-1,-12
1523145160398016,-7,-1,-4,6,-1,17,5,11
1523145160399526,13,-1,0,0,4,7,9,1
1523145160399526,-9,-2,-3,-6,-26,-12,-9,6
1523145160420733,-2,-5,0,8,14,-13,0,26
1523145160420733,-17,-5,-8,-19,-30,8,4,-30
1523145160421737,5,0,-2,18,12,-12,-9,5
1523145160421737,7,1,0,-4,-1,0,7,-7
1523145160433770,-2,0,0,2,12,9,6,50
1523145160433770,1,0,1,1,-5,-26,-6,-54
1523145160442794,-8,-3,0,0,-38,-13,-5,15
1523145160442794,-5,-3,-5,-12,-17,-9,1,-36
1523145160457834,3,-1,0,-1,-14,-5,-7,1
1523145160457834,-11,1,0,-14,7,5,-4,15
1523145160459840,1,0,1,6,23,33,17,-2
1523145160459840,18,1,-2,2,-19,-22,-11,13
1523145160479896,-15,0,0,0,32,-8,8,-4
1523145160479896,4,-6,-5,-11,-16,1,-22,6
1523145160481898,-8,1,0,-1,-4,-10,-2,-3
1523145160481898,-7,-2,-3,4,0,-5,-15,0
1523145160493940,-3,-2,-5,-26,5,6,15,-29
1523145160493940,5,-2,2,31,25,-12,1,10
1523145160502968,-1,2,0,-6,51,23,4,12
1523145160502968,7,-4,-1,2,13,1,-9,40
1523145160517545,-9,2,3,10,5,6,-6,-42
1523145160517545,-1,-1,-2,0,6,1,1,7
1523145160519548,-1,-1,0,-5,-23,-14,4,-14
1523145160519548,4,0,1,6,42,-8,3,3
1523145160540609,-10,-3,-2,-5,-9,16,-5,-14
1523145160540609,4,0,1,-6,14,-1,8,29
1523145160541608,4,-2,-4,7,5,-2,3,-18
1523145160541608,-1,0,2,-14,-15,1,2,-3
1523145160562663,-1,-3,-4,14,-14,-22,-22,-10
1523145160562663,-5,0,-2,-19,-9,7,16,44
1523145160564669,1,-3,-4,26,17,-1,-4,-5
1523145160564669,-8,-1,0,-9,-30,8,-3,-52
1523145160577702,11,-2,-3,-10,1,-8,6,33
1523145160577702,-7,2,1,6,0,1,-20,-39
1523145160579707,11,0,3,1,55,4,9,36
1523145160579707,-12,0,0,11,31,-2,-2,-34
1523145160600774,6,1,1,2,5,8,7,2
1523145160600774,7,3,5,0,14,-10,4,3
1523145160602280,-6,2,3,-12,36,29,0,11
1523145160602280,-6,-4,-5,6,-5,-14,-11,10
1523145160622403,11,-2,-2,-6,-6,-15,-1,-2
1523145160622403,4,-1,-2,-8,-30,-11,-15,-8
1523145160624409,-9,-3,0,1,5,7,4,-17
1523145160624409,0,-2,-2,-12,1,8,16,50
1523145160637446,-10,-3,-2,14,-20,20,-8,-35
1523145160637446,-2,-2,-1,4,19,2,-5,38
1523145160639449,3,1,-1,-9,-39,-14,-10,-40
1523145160639449,-3,-2,-4,-1,-15,-8,18,6
1523145160660506,-7,-1,-4,-6,-2,3,-27,-16
1523145160660506,2,-2,-1,8,62,13,10,-5
1523145160661508,-1,-1,2,1,-29,-1,-1,10
1523145160661508,0,-2,0,-5,-18,-4,3,13
1523145160682569,4,0,-2,-4,-9,-7,9,9
1523145160682569,-11,-4,0,8,-11,4,-9,-31
1523145160684569,6,0,-3,-7,-7,-17,-3,36
1523145160684569,-14,-3,-1,-12,-6,8,0,-24
1523145160697602,11,1,0,-4,-26,-8,-7,6
1523145160697602,-9,-4,-9,-8,32,20,3,-1
1523145160704134,-4,-4,-4,-13,-39,-42,-15,-28
1523145160704134,2,3,2,-2,25,-9,2,15
1523145160720684,5,2,1,-14,3,8,-2,-12
1523145160720684,-4,0,1,9,-4,34,19,4
1523145160721686,-6,-3,-3,-2,-14,11,-1,-6
1523145160721686,2,-2,-2,4,2,5,-19,-17
1523145160742742,-3,-4,-3,-15,-18,-19,-3,-2
1523145160742742,5,2,3,5,0,-29,-4,2
1523145160744748,2,1,-1,5,-25,-4,-2,-5
1523145160744748,-6,-2,-3,4,-17,0,-3,4
1523145160756779,-5,-1,1,7,25,-2,3,13
1523145160756779,10,-1,-1,-22,-52,-21,-14,-1
1523145160763799,-2,2,3,4,13,-4,-2,-12
1523145160763799,0,1,-1,-2,8,16,-1,17
1523145160779841,-4,-1,-1,4,2,-10,4,9
1523145160779841,-6,-2,-4,-6,-34,6,-4,-11
1523145160781845,-1,0,-3,-15,17,0,-6,-25
1523145160781845,5,0,5,-2,-46,-13,3,-19
1523145160802911,-5,-1,-1,-4,40,0,2,13
1523145160802911,-1,-1,-3,-14,-101,-8,-18,-19
1523145160804415,4,-1,2,10,16,-3,0,13
1523145160804415,4,-1,-3,6,-13,3,8,4
1523145160817550,10,-1,-3,-19,-27,12,3,-20
1523145160817550,-18,-1,0,18,48,-9,10,55
1523145160823565,8,1,4,9,44,11,7,-46
1523145160823565,0,0,-3,-23,-38,0,-3,0
1523145160840619,-4,-1,2,20,20,-10,-7,21
1523145160840619,10,2,3,-3,29,8,4,-14
1523145160841614,-9,-2,-6,-3,-27,-2,1,13
1523145160841614,-6,-3,-4,3,37,-13,-9,12
1523145160862671,-1,-2,-1,-3,-17,5,16,-19
1523145160862671,-3,0,2,6,25,16,-15,-22
1523145160864678,0,-5,-5,4,-3,0,8,14
1523145160864678,4,0,1,-8,-27,-13,-13,-8
1523145160876706,-6,-1,-1,3,9,5,22,23
1523145160876706,-1,-1,-4,2,-2,-16,-10,-11
1523145160883726,-1,-3,-4,4,21,-1,-12,-7
1523145160883726,-3,0,1,-13,-17,7,20,30
1523145160900785,0,-3,-1,1,34,24,-7,-60
1523145160900785,7,-1,-1,2,-13,-3,11,-6
1523145160902782,2,-1,-1,-7,-1,-3,-3,58
1523145160902782,-4,0,-3,-3,5,-3,-10,-46
1523145160922391,-2,-1,-1,5,-13,-3,-2,7
1523145160922391,-3,-2,1,-2,-1,-2,22,11
1523145160924398,-9,-1,-4,-3,2,1,-6,1
1523145160924398,6,-3,0,4,-36,4,-1,17
1523145160937430,-4,-2,-1,-7,-28,-13,-5,10
1523145160937430,5,1,-1,-5,11,12,5,-7
1523145160943447,2,0,-1,-2,-27,-11,-22,-3
1523145160943447,-5,-2,-2,10,24,-8,4,-21
1523145160960494,-2,-2,-5,11,2,-11,-5,6
1523145160960494,4,1,3,-2,18,6,12,13
1523145160961496,-6,-2,-1,-10,6,-3,-6,-20
1523145160961496,2,0,3,26,35,-11,-7,-19
1523145160982552,-3,2,2,10,-13,4,16,0
1523145160982552,1,-2,-2,3,32,10,13,3
1523145160984557,10,-2,-1,-8,-16,-9,-15,5
1523145160984557,-4,-3,-2,-3,82,8,-7,-9
1523145160997589,-4,-2,-3,-2,1,-12,-18,12
1523145160997589,-2,-3,-4,-2,-17,-17,-7,-9
1523145161004115,2,2,6,9,14,4,5,2
1523145161004115,-4,-2,-5,2,0,8,1,-12
1523145161020709,23,1,-2,-12,-4,-1,-25,18
1523145161020709,-27,-1,-2,0,-1,4,-6,-24
1523145161021708,1,-1,-2,4,-11,-12,5,-5
1523145161021708,10,2,7,-10,85,2,4,46
1523145161042784,-3,-2,0,11,3,15,12,-25
1523145161042784,-1,-4,-4,-8,-36,-31,-15,-39
1523145161044781,0,-1,-2,-3,-15,21,9,10
1523145161044781,-1,-2,-5,-1,-10,-2,1,16
1523145161056811,-13,-4,-5,-7,-59,4,-9,1
1523145161056811,11,2,5,6,53,25,-6,13
1523145161065829,-8,1,1,-2,-11,-16,7,-14
1523145161065829,7,-3,-4,7,-23,19,6,3
1523145161079866,-4,-1,-2,-10,7,-27,-14,2
1523145161079866,1,-2,1,1,-38,-14,-3,2
1523145161081869,-4,0,-3,-4,-20,3,3,-30
1523145161081869,-14,1,0,12,-20,-7,8,-4
1523145161110477,5,-4,-2,-5,30,-4,-5,-9
1523145161110477,9,0,-1,-23,-24,18,4,6
1523145161111977,-6,-2,-2,-3,-5,7,-8,9
1523145161111977,-1,-1,-2,9,-37,-29,4,-10
1523145161115994,-2,-1,-2,10,20,37,12,0
1523145161115994,-1,-2,-5,1,-16,-2,-4,-3
1523145161125018,-4,-4,-2,-7,1,-3,0,-8
1523145161125018,5,-1,1,-7,-10,9,-6,19
1523145161140058,-21,1,2,-3,12,-19,0,10
1523145161140058,19,-4,-2,1,1,-13,-14,-16
1523145161142063,-8,-1,-1,4,35,32,10,3
1523145161142063,1,-2,-2,-1,8,5,-4,15
1523145161163122,12,2,1,4,16,-2,2,-26
1523145161163122,-13,-3,-1,3,-3,-14,3,8
1523145161164121,-2,0,1,8,20,-16,-9,-1
1523145161164121,5,0,-3,-21,-34,-4,0,15
1523145161176155,-10,2,4,-12,-12,0,-5,-5
1523145161176155,-3,0,2,26,19,-8,-2,-28
1523145161185177,3,-3,-3,0,-12,-5,7,15
1523145161185177,-5,2,3,-6,-3,32,0,-45
1523145161200725,-4,-3,-4,-8,-18,9,26,47
1523145161200725,8,1,0,11,28,28,-3,7
1523145161202232,4,-3,-2,-6,-7,-16,-7,0
1523145161202232,1,-3,-1,7,58,-23,-11,-6
1523145161222991,-10,-2,-3,-8,-35,-8,-8,-26
1523145161222991,-5,-1,-2,-6,-11,3,2,9
1523145161229009,-6,-2,0,2,-19,-3,-2,6
1523145161229009,9,-1,2,6,2,-11,8,0
1523145161236028,0,1,3,5,6,1,-3,4
1523145161236028,-2,-2,-4,-5,2,-11,-14,18
1523145161245051,-9,-2,-2,-4,24,-1,6,-54
1523145161245051,-5,-1,1,3,-17,-2,-25,-13
1523145161260096,1,-3,-2,-16,-6,-41,-1,2
1523145161260096,1,0,0,1,2,8,15,40
1523145161262096,7,0,-1,-1,9,22,7,19
1523145161262096,-13,-2,-5,-20,-67,19,-1,-6
1523145161283152,6,-1,-1,5,14,-16,-13,-6
1523145161283152,2,0,0,-9,0,-23,-11,4
1523145161284154,-13,-3,-3,-7,-14,-3,10,9
1523145161284154,17,-2,-4,-16,-58,-12,-3,1
1523145161296195,-1,-2,-4,8,32,7,-15,-3
1523145161296195,-4,0,-4,-13,-67,-3,21,-23
1523145161305717,11,2,6,17,31,6,-2,6
1523145161305717,-12,-2,-9,-27,-11,5,-5,24
1523145161321162,5,-1,-1,1,12,3,7,-45
1523145161321162,-4,-1,2,14,15,-14,-12,7
1523145161322166,-2,0,-1,2,4,-11,-4,9
1523145161322166,-5,-2,-2,1,-11,-2,7,-1
1523145161343220,4,-2,-4,-6,-57,-5,-7,11
1523145161343220,-6,-1,0,-10,-10,5,-3,-3
1523145161344224,-3,-2,-4,-8,-7,2,-7,-29
1523145161344224,2,-1,2,24,40,12,10,15
1523145161356259,-7,2,3,2,11,-3,12,13
1523145161356259,8,-7,-7,-5,-6,2,-7,-16
1523145161365278,0,0,-1,-1,8,-7,-16,13
1523145161365278,-16,1,2,4,15,3,17,-18
1523145161380330,16,-3,-8,1,-4,-2,-3,-20
1523145161380330,-15,2,3,-9,26,13,8,3
1523145161382331,5,-2,-4,-15,-31,13,-2,-3
1523145161382331,-2,-2,-3,-7,12,-17,1,-1
1523145161402893,-2,0,3,15,1,4,0,25
1523145161402893,5,-1,-2,-2,47,9,4,6
1523145161404895,-8,2,4,3,-10,-13,5,7
1523145161404895,1,1,-2,3,-29,1,0,-10
1523145161416434,-3,-2,-2,3,-12,-12,-11,6
1523145161416434,2,-3,-3,-14,-26,-11,-2,-5
1523145161425458,-2,2,-2,-2,-13,10,9,8
1523145161425458,3,0,1,8,15,-10,-14,-5
1523145161440498,-2,-2,-1,5,19,-12,-4,2
1523145161440498,-16,1,2,7,14,2,-2,-11
1523145161441499,9,-1,3,5,18,-16,-9,-10
1523145161441499,4,-2,-5,-2,-9,-4,2,11
1523145161462557,-12,0,0,1,28,37,0,1
1523145161462557,-1,-2,-2,3,15,16,13,48
1523145161464559,4,1,0,-8,-5,-4,-6,-62
1523145161464559,5,-1,0,3,-4,-7,-7,9
1523145161485619,-2,-1,2,0,-23,-3,-2,-1
1523145161485619,-13,-2,-4,-8,-30,-3,-10,13
1523145161486620,10,-2,-1,12,12,14,-2,-8
1523145161486620,-7,-2,1,4,15,8,7,-9
1523145161500164,2,-2,-2,-13,5,-1,-20,-6
1523145161500164,3,-1,-1,6,-1,-14,7,-8
1523145161506681,-3,-2,-3,-10,-10,4,11,16
1523145161506681,-8,3,4,16,93,11,-16,4
1523145161522341,11,-3,-4,4,-23,2,11,2
1523145161522341,0,1,4,27,58,0,-2,-18
1523145161524348,-4,-4,-5,-26,-56,-19,-12,8
1523145161524348,1,-2,-1,17,33,7,7,-25
1523145161545404,-5,1,1,3,6,6,11,3
1523145161545404,-5,-2,-3,-3,-20,-2,-2,28
1523145161547408,9,-2,-2,0,15,-2,12,-23
1523145161547408,-2,2,3,7,0,8,-24,-25
1523145161560441,-3,-3,-5,-11,-17,-16,-4,7
1523145161560441,3,-1,-1,-1,-27,-14,-6,-24
1523145161562448,-5,2,2,-15,27,-8,-5,43
1523145161562448,-5,-5,-3,-11,-5,3,9,33
1523145161582499,4,2,1,-1,-15,2,3,-38
1523145161582499,-7,-2,-5,-10,3,-7,-6,3
1523145161584506,-6,1,0,10,-20,-8,-9,-1
1523145161584506,11,0,-1,-6,-17,4,11,-16
1523145161605566,-5,1,4,-3,30,14,0,28
1523145161605566,-2,-1,-2,-2,-7,-10,14,-24
1523145161607070,4,-2,-3,11,0,14,-2,-2
1523145161607070,0,-3,-3,-15,-27,-11,3,16
1523145161620214,-7,-1,-4,-9,-1,-6,-11,-18
1523145161620214,5,1,1,28,5,-15,-22,-8
1523145161622210,-6,-4,-4,-1,4,16,8,7
1523145161622210,2,0,4,6,6,2,12,-3
1523145161643267,-1,0,2,-1,-6,-2,3,19
1523145161643267,5,0,-2,-6,4,1,-1,-8
1523145161644272,1,-1,-1,6,-23,-11,2,49
1523145161644272,6,0,-1,-12,-4,-10,-13,-69
1523145161665327,-12,0,0,-3,46,2,13,4
1523145161665327,9,-1,2,-5,-4,5,-6,-8
1523145161667332,-5,-1,1,1,27,31,19,18
1523145161667332,2,-1,-3,-4,-21,-6,0,18
1523145161680367,1,-1,-2,-1,-1,-7,-5,7
1523145161680367,-5,-1,-3,-14,-12,4,2,-21
1523145161686384,-1,-4,-4,22,17,-8,1,5
1523145161686384,-4,1,3,-4,-12,-1,-30,-15
1523145161701931,-1,-1,-4,-6,-19,-11,-4,-3
1523145161701931,-20,-4,-3,-5,-1,-1,-5,11
1523145161710454,10,0,-3,-9,-11,-12,-5,-26
1523145161710454,-6,0,-4,10,6,-4,13,49
1523145161725350,2,0,0,8,-11,15,-7,-29
1523145161725350,1,-3,0,-5,-17,-8,-5,6
1523145161727353,-19,0,-2,-13,5,26,-1,-26
1523145161727353,5,-3,-3,0,4,-16,10,26
1523145161739385,1,-3,-3,-2,-6,-1,-7,21
1523145161739385,-2,0,-1,0,-29,-5,-3,5
1523145161746404,-3,2,0,-4,19,-11,-14,-57
1523145161746404,-3,-2,2,-6,-19,-4,-4,11
1523145161762445,-4,-1,-4,5,-7,7,7,3
1523145161762445,6,2,0,-2,25,18,13,3
1523145161764451,4,-5,-5,-5,-14,-21,-10,-6
1523145161764451,-8,1,1,-9,37,23,1,3
1523145161785508,2,-2,-4,-7,-26,-21,-12,-15
1523145161785508,-13,-1,-3,-17,-14,-8,-5,-2
1523145161786510,10,-1,2,13,-2,1,-5,2
1523145161786510,-4,-2,-7,16,14,0,11,10
1523145161800070,-9,0,0,-14,-33,-12,2,-16
1523145161800070,11,1,4,15,16,13,8,15
1523145161806589,-7,0,-2,-8,-34,14,-2,5
1523145161806589,-20,-5,-6,-16,-65,-19,-7,-25
1523145161823347,20,1,1,23,37,11,-11,38
1523145161823347,-5,1,-3,-18,-25,-12,8,-61
1523145161824350,1,0,3,23,30,-6,7,23
1523145161824350,-4,-1,-1,5,2,23,-9,-2
1523145161845408,4,-1,-1,-7,-7,17,18,13
1523145161845408,6,-1,-1,0,4,-2,-18,-8
1523145161847411,0,-3,-2,3,5,-24,7,18
1523145161847411,6,1,3,-12,8,14,10,9
1523145161859443,-10,-2,-3,-7,-9,-15,-6,-19
1523145161859443,-3,-5,-6,-1,-15,-7,-6,1
1523145161866464,-3,-1,1,5,46,-2,6,-7
1523145161866464,7,-2,-10,-31,-111,-42,-11,0
1523145161882507,-8,-4,0,9,44,21,5,-3
1523145161882507,-5,1,0,4,9,8,-2,-14
1523145161884511,5,1,0,-7,-9,0,-1,28
1523145161884511,2,-2,-2,8,40,-2,2,-2
1523145161905577,2,1,3,-1,-2,1,16,-13
1523145161905577,-11,0,-2,2,-31,-22,-14,15
1523145161907078,2,-3,0,-2,3,6,-10,-10
1523145161907078,-3,0,2,7,9,13,3,1
1523145161919210,2,-2,-4,-4,-17,2,-2,-1
1523145161919210,2,0,0,13,37,12,16,16
1523145161926230,-4,2,2,-11,-21,-25,-16,8
1523145161926230,1,-1,2,9,35,7,-3,-12
1523145161942273,-3,-2,-4,2,10,9,-3,4
1523145161942273,5,-3,-4,-15,-43,-7,13,44
1523145161944278,-9,-1,-4,-11,-28,3,-14,-75
1523145161944278,-4,-3,0,24,7,-12,-22,-3
1523145161965335,-2,-1,2,-7,6,-2,3,1
1523145161965335,13,0,2,-3,6,11,7,11
1523145161967344,-18,0,-4,3,3,-21,6,26
1523145161967344,24,-1,-1,-14,-3,16,6,-8
1523145161979377,-7,0,3,8,10,2,-10,-17
1523145161979377,14,-2,0,14,58,8,6,16
1523145161986393,-18,-1,0,-26,-19,3,1,6
1523145161986393,-4,2,3,12,37,-13,-3,-14
1523145162002941,5,0,0,-4,69,13,10,13
1523145162002941,3,-2,-4,-20,-45,-12,-6,-21
1523145162004446,2,-1,-3,-12,4,33,4,-8
1523145162004446,-2,0,0,22,-5,6,3,34
1523145162025126,-1,-1,0,2,19,-10,-7,-38
1523145162025126,-12,-2,-3,-19,-62,-7,-6,-6
1523145162027131,7,-2,-4,4,24,4,5,0
1523145162027131,-3,-1,1,-2,-27,-18,-7,-17
1523145162039174,7,0,-2,-5,-30,-5,7,28
1523145162039174,-3,-1,0,8,11,1,-14,-15
1523145162048186,3,-3,-3,2,-14,11,-6,-21
1523145162048186,-3,1,2,10,26,-2,27,10
1523145162063230,-9,-1,-1,-30,-18,3,6,3
1523145162063230,3,-2,1,7,19,-11,-2,29
1523145162064229,-4,1,1,4,27,-5,-15,-39
1523145162064229,-7,-5,-5,-14,0,1,-3,-9
1523145162085286,3,-3,-5,-12,-9,-20,-6,-14
1523145162085286,-3,5,7,26,32,32,14,15
1523145162087292,6,0,0,-7,-9,-9,4,24
1523145162087292,-5,-1,-2,-11,-9,-3,-2,-11
1523145162099327,3,-1,-1,3,-24,2,-5,4
1523145162099327,-6,-1,-1,-7,-5,-15,-7,-28
1523145162108361,3,-2,-1,0,-13,-13,-7,15
1523145162108361,-9,-1,-4,7,-32,-2,-6,-25
1523145162123163,-3,-1,2,2,-6,-14,0,10
1523145162123163,11,-1,-4,1,7,9,2,26
1523145162124166,2,-1,0,8,-10,2,-1,-28
1523145162124166,-5,-1,-1,-6,-27,-7,0,7
1523145162145225,-2,-2,-2,-4,-9,-2,0,-4
1523145162145225,8,-2,-1,8,48,6,-1,2
1523145162151237,-4,-1,-2,1,1,-13,0,26
1523145162151237,4,-1,-1,4,-12,-4,-3,3
1523145162159260,-9,1,4,18,-18,-28,-9,-9
1523145162159260,1,-4,-4,-18,-5,20,-3,-31
1523145162168283,0,1,1,17,3,-2,8,4
1523145162168283,1,0,-3,7,5,7,-3,-14
1523145162183325,-4,-2,-6,0,-13,-2,4,35
1523145162183325,-1,-1,3,-9,-40,-23,-21,-32
1523145162184327,2,3,1,2,28,15,13,6
1523145162184327,0,-1,-1,-10,21,1,2,9
1523145162205393,4,0,-1,12,6,-15,-8,3
1523145162205393,-12,-2,-3,-3,-1,23,14,25
1523145162207397,4,1,-1,2,1,-8,0,1
1523145162207397,-2,0,-2,-7,-13,-14,-2,-5
1523145162218979,7,-2,1,20,42,2,-16,-14
1523145162218979,-3,1,0,-6,-30,9,5,-5
1523145162243048,-2,-2,-3,-17,-33,-11,-3,5
1523145162243048,-7,-5,-5,-6,34,-4,-5,13
1523145162244046,0,-3,-4,-7,-28,24,3,-4
1523145162244046,-12,1,-3,-12,-66,-28,0,-42
1523145162246050,-2,-3,1,2,10,4,1,25
1523145162246050,2,1,-1,-5,-2,-1,-8,-20
1523145162265106,1,-3,-5,-9,-7,-6,-4,1
1523145162265106,0,-1,-2,0,30,8,4,12
1523145162267107,4,1,-1,-4,-8,-4,-7,-7
1523145162267107,-6,-1,-3,-15,-44,-6,-4,6
1523145162279142,5,-3,-4,4,-11,3,5,-16
1523145162279142,5,-1,0,5,71,-2,-17,9
1523145162288163,-9,-1,0,-15,-36,3,-4,-7
1523145162288163,-6,-2,-1,6,15,-14,-10,9
1523145162303215,7,3,3,3,9,1,7,-10
1523145162303215,-2,-1,0,5,16,32,7,-6
1523145162304719,5,-3,-1,0,-3,-7,2,-1
1523145162304719,0,2,6,-1,13,-5,-1,-1
1523145162325042,-8,-2,-4,-23,-23,-2,-3,-3
1523145162325042,-4,-1,-1,12,49,-3,-1,-5
1523145162327047,-3,-3,-2,10,33,-12,-8,-7
1523145162327047,5,-1,-5,-19,-10,7,3,12
1523145162339080,-15,2,4,9,-5,4,17,-9
1523145162339080,11,2,6,1,3,-5,-28,-4
1523145162348102,-5,-3,-1,4,-8,-3,4,-7
1523145162348102,6,-4,-8,-7,-20,-9,1,36
1523145162363143,6,1,4,-19,45,18,-4,-32
1523145162363143,-1,-2,-5,-7,-35,-17,-1,0
1523145162364145,-9,0,1,-1,0,17,15,5
1523145162364145,3,-3,0,12,-7,1,-2,7
1523145162385199,0,0,-2,-8,-13,-3,7,20
1523145162385199,-1,-1,-4,1,-22,-15,-3,-13
1523145162387204,-1,-2,-5,-17,-84,-4,-4,4
1523145162387204,1,2,1,1,27,-1,4,-29
1523145162399242,-6,-3,-3,-6,-10,-7,-9,5
1523145162399242,-5,-2,-2,2,47,-6,5,-4
1523145162408282,3,-2,-2,17,14,4,-1,-2
1523145162408282,-1,1,4,13,11,7,5,6
1523145162422912,5,0,-1,-16,-23,-10,-1,-3
1523145162422912,-4,-6,-6,-8,-11,-2,9,17
1523145162423913,-1,0,-4,-5,-5,-3,-14,-25
1523145162423913,-3,0,-1,-5,20,1,8,3
1523145162444992,-2,-2,4,9,2,-4,-7,5
1523145162444992,-4,2,2,5,-3,5,21,9
1523145162446973,9,-4,-6,-7,20,1,3,6
1523145162446973,-6,-4,-1,-3,13,29,-5,8
1523145162468032,1,1,-1,5,16,-11,-11,-29
1523145162468032,-4,1,2,3,20,4,5,16
1523145162469033,-1,1,3,-2,-35,-16,-4,2
1523145162469033,0,1,-3,-2,-8,2,-5,-4
1523145162483070,-3,-3,-4,3,99,16,1,4
1523145162483070,-1,0,2,11,19,-3,3,-9
1523145162484073,1,0,0,8,69,-2,6,24
1523145162484073,-1,-1,1,7,-14,-17,-21,-46
1523145162505636,6,1,3,0,-37,1,4,11
1523145162505636,1,-1,-2,-3,-29,-7,5,2
1523145162507139,9,0,2,5,51,0,2,16
1523145162507139,-12,0,-2,2,9,1,8,-21
1523145162527839,-10,-1,-2,16,75,3,-26,-5
1523145162527839,8,-2,-7,-26,-33,2,-2,-6
1523145162529843,-3,-3,0,-1,-33,9,5,-12
1523145162529843,2,0,1,-3,-44,8,-1,9
1523145162542879,-2,-1,-4,-7,-20,0,3,-5
1523145162542879,-6,-4,1,-10,-16,-15,5,9
1523145162544882,-5,0,0,-1,-8,17,-11,1
1523145162544882,4,0,-1,3,17,-29,-2,-7
1523145162564935,-2,-1,4,-1,-23,6,8,4
1523145162564935,9,-2,-4,-1,-37,1,-11,7
1523145162566940,-22,-3,-2,9,40,-1,12,-11
1523145162566940,20,1,1,-22,-16,0,-4,-14
1523145162587997,-10,-4,-6,0,-16,-4,4,10
1523145162587997,-2,0,-2,-8,-12,3,-3,-4
1523145162589001,0,-2,-4,7,25,-10,-8,-11
1523145162589001,1,0,1,0,34,13,8,15
1523145162602547,-12,-2,-7,12,-24,-4,-5,-8
1523145162602547,6,1,6,-5,3,-12,0,8
1523145162609066,-2,-4,-6,-6,-26,-1,-6,-35
1523145162609066,-8,-4,-5,1,-2,-3,11,0
1523145162624855,6,2,2,-2,-14,10,2,38
1523145162624855,-8,0,-4,14,26,13,-7,-6
1523145162626860,6,0,-2,-37,-37,-5,8,15
1523145162626860,-9,-2,2,24,30,0,1,-31
1523145162647913,4,0,1,0,-15,-16,-4,-2
1523145162647913,-9,-3,-5,-3,-23,1,-10,-14
1523145162648916,8,1,3,-12,20,-6,-1,13
1523145162648916,0,1,-2,-3,12,17,3,-8
1523145162661953,-2,-3,-4,2,8,4,5,-18
1523145162661953,-13,2,0,6,3,-15,-9,-18
1523145162668973,11,-4,0,5,-3,8,-7,16
1523145162668973,-1,-2,-2,5,-10,-3,4,2
1523145162685012,1,0,1,8,20,-22,-6,9
1523145162685012,3,0,2,-20,45,5,3,-2
1523145162687017,-6,1,-2,2,22,12,4,-5
1523145162687017,0,1,2,0,1,-6,-9,13
1523145162708084,0,-3,-3,-12,-35,-8,-3,-4
1523145162708084,0,-5,-5,-5,-9,-1,-3,-9
1523145162709585,-7,-1,-1,-3,-25,2,0,0
1523145162709585,6,0,-3,4,-4,-10,-15,10
1523145162722710,6,3,0,-11,9,11,16,10
1523145162722710,-8,0,1,12,3,1,-4,-13
1523145162728728,1,1,2,7,-28,-6,-5,-33
1523145162728728,-5,-1,-4,-18,-1,-8,-5,12
1523145162745770,7,0,1,0,-5,-11,-2,2
1523145162745770,5,-1,-1,-1,-9,5,1,4
1523145162746773,-7,-2,-1,2,-14,-1,1,10
1523145162746773,-2,-2,-1,-3,-5,0,0,1
1523145162767831,-1,-2,-3,2,-2,12,1,5
1523145162767831,-3,-1,-3,13,-3,-3,9,0
1523145162769835,-2,0,-4,-1,-18,-23,-17,-10
1523145162769835,-4,-3,1,-7,18,1,-6,-2
1523145162781867,-3,-2,1,-9,4,21,15,12
1523145162781867,5,0,3,22,-3,10,1,-1
1523145162790890,-3,-3,-6,-20,53,-12,-6,7
1523145162790890,2,1,4,11,-8,-7,0,11
1523145162805436,-7,0,1,2,8,-1,8,-36
1523145162805436,2,-1,-2,-4,-19,1,1,29
1523145162806939,5,-1,0,-5,13,6,6,-2
1523145162806939,-2,-3,0,-14,-15,1,-6,-11
1523145162827505,-4,-1,-2,16,37,9,12,-7
1523145162827505,-5,1,2,-8,-12,-21,-7,-14
1523145162829509,-12,-1,-2,11,-18,15,17,14
1523145162829509,8,1,-3,-4,22,-8,2,7
1523145162842544,-1,-3,-4,2,-98,-14,-5,0
1523145162842544,1,-5,-4,2,12,3,-14,-4
1523145162849565,7,0,0,-16,-17,-2,7,26
1523145162849565,-8,0,2,5,-24,-2,-11,-37
1523145162865607,-8,-3,-1,1,9,1,-2,-6
1523145162865607,6,0,-1,-4,-3,-4,0,-1
1523145162866609,4,1,1,12,-2,1,0,31
1523145162866609,-1,-1,-5,-8,-33,14,3,-35
1523145162887666,-3,-2,-6,-1,-4,-17,-20,0
1523145162887666,-10,0,-2,-4,-11,-11,4,-5
1523145162893681,-10,-1,2,1,13,8,-1,-17
1523145162893681,7,-3,-5,-9,-7,10,6,14
1523145162902220,7,-2,-2,-19,-33,-2,-10,-14
1523145162902220,-4,3,0,-1,20,7,13,-11
1523145162909237,-1,2,1,21,15,-25,-20,6
1523145162909237,2,-3,-4,1,21,-2,1,20
1523145162925784,-2,1,6,-1,20,17,3,-13
1523145162925784,10,-1,1,22,31,3,6,5
1523145162926789,-2,1,0,-6,-13,-10,-5,-20
1523145162926789,-6,-3,-4,-3,12,-1,-4,3
1523145162947844,4,3,3,9,-3,9,14,33
1523145162947844,-7,-4,-3,-5,-15,-18,-16,-11
1523145162949850,-13,-3,0,-1,19,-3,-12,-29
1523145162949850,2,-2,-4,15,-20,-9,1,3
1523145162961882,-2,0,1,3,16,3,7,5
1523145162961882,-1,-3,-2,-9,-12,9,-8,-1
1523145162970905,0,-4,-6,-1,2,-6,-2,-2
1523145162970905,-6,-1,0,-2,-16,20,27,32
1523145162984944,3,-3,-4,-6,36,4,-8,2
1523145162984944,-4,1,1,19,1,-12,0,-2
1523145162986950,7,1,0,-14,-10,-6,-3,-4
1523145162986950,-4,-3,-4,-17,-61,-24,4,-8
1523145163008023,-2,-2,-3,-14,-27,10,-4,8
1523145163008023,-1,-4,-6,-7,-2,14,2,8
1523145163009524,7,-1,0,-13,-40,9,1,-18
1523145163009524,-9,1,5,7,27,-5,-7,2
1523145163021062,-4,-2,-3,9,33,-16,-8,38
1523145163021062,-2,3,5,-17,-19,13,6,-65
1523145163030083,8,-2,-4,5,9,2,-12,34
1523145163030083,4,-1,-3,-6,8,-1,7,-6
1523145163044129,-19,-3,-3,-3,-3,-19,-10,-22
1523145163044129,8,1,6,-6,0,-4,7,10
1523145163053145,-2,1,2,18,38,21,7,-12
1523145163053145,0,-1,-1,-11,5,2,-1,10
1523145163075206,4,0,0,19,0,-2,-3,-18
1523145163075206,-4,-2,-3,31,23,-2,-9,-9
1523145163077220,1,-2,-3,-9,-37,4,11,3
1523145163077220,4,5,3,0,26,17,14,20
1523145163098265,3,-1,-1,-9,-5,-11,-5,-8
1523145163098265,0,2,3,-26,-13,-14,-6,15
1523145163099267,-10,-3,-3,6,7,3,-3,-14
1523145163099267,-8,-5,-5,8,3,-9,-9,-3
1523145163105289,13,-2,-3,-13,-13,3,2,1
1523145163105289,-2,-2,-3,-3,8,13,2,3
1523145163107303,0,3,4,5,-6,-11,1,7
1523145163107303,-2,-3,-3,-12,-19,-1,-3,-5
1523145163127939,-8,0,1,1,4,-6,-8,-16
1523145163127939,-1,-4,-6,-9,15,-1,-5,19
1523145163128943,-8,0,-2,-9,1,13,2,-41
1523145163128943,11,-2,-1,16,-2,-5,0,13
1523145163140980,1,-2,-4,-18,-15,-5,4,8
1523145163140980,3,-1,0,45,20,-5,-2,-2
1523145163150001,-3,-2,2,-31,-13,9,-19,11
1523145163150001,-7,2,-1,-13,-23,-10,-4,-21
1523145163165038,7,1,-1,-4,-21,3,-4,-2
1523145163165038,1,2,3,9,12,-3,2,31
1523145163167042,2,-2,-3,12,-2,10,17,-11
1523145163167042,-10,-1,0,14,22,0,-5,-10
1523145163188098,-1,1,0,-1,24,16,-8,-16
1523145163188098,-1,2,0,-4,12,-12,2,16
1523145163189100,-10,-4,-4,11,0,-18,-1,5
1523145163189100,14,-1,2,0,0,-1,-5,-6
1523145163201641,-4,-4,-2,8,0,1,7,3
1523145163201641,4,3,3,-14,-6,0,-6,-16
1523145163210664,-7,-1,0,0,11,-1,7,-4
1523145163210664,1,-2,-4,7,20,5,-8,6
1523145163225207,6,-2,-2,-15,-44,14,-6,4
1523145163225207,-17,-4,-6,-1,-29,-4,-8,4
1523145163227212,12,2,2,8,0,-14,-4,-22
1523145163227212,-8,-3,-3,-17,-30,-3,-12,-13
1523145163248267,-6,2,3,16,7,3,29,-1
1523145163248267,-7,-1,-4,-28,-14,0,-8,0
1523145163249272,10,-2,-2,7,-20,-25,-13,20
1523145163249272,-6,-1,-3,-5,21,16,-3,-14
1523145163261302,-2,2,7,7,20,22,7,9
1523145163261302,-2,-3,-3,-3,-3,2,8,-7
1523145163270326,-6,-1,-3,-1,1,-3,-4,48
1523145163270326,4,0,-1,-11,-7,-11,-9,-59
1523145163285367,1,-1,-5,0,-12,-22,-5,17
1523145163285367,1,0,2,-8,12,2,3,-3
1523145163287371,6,0,-1,6,14,15,1,6
1523145163287371,2,0,4,3,5,-4,-3,23
1523145163307934,-11,-2,-2,-3,62,3,-2,-4
1523145163307934,3,-2,0,-4,-4,-4,4,-1
1523145163309439,-1,0,-4,-4,6,-11,-4,-5
1523145163309439,-2,0,0,-7,-20,13,17,8
1523145163322480,1,1,2,8,3,-9,-36,-5
1523145163322480,3,-1,-2,-2,-14,-1,-1,-1
1523145163330503,-9,-3,-1,1,-1,19,16,-2
1523145163330503,0,-2,-2,4,-4,-6,9,69
1523145163345542,3,3,0,3,-14,-20,-15,-99
1523145163345542,-2,-2,-4,-8,-9,2,4,18
1523145163346543,-2,0,0,-10,-16,14,9,19
1523145163346543,-1,3,3,26,24,-14,-12,-5
1523145163375627,0,-4,-6,-21,-44,-7,23,39
1523145163375627,7,-1,-2,16,2,1,-26,-20
1523145163376625,1,-1,-3,-2,-40,-19,-10,-24
1523145163376625,-4,-3,-4,-13,25,14,9,-11
1523145163390660,-12,-3,0,2,-5,-11,-12,11
1523145163390660,3,0,-1,-8,0,-16,-17,-26
1523145163391666,5,1,1,-3,29,-7,5,23
1523145163391666,-2,-2,-1,-1,-6,8,12,-3
1523145163405708,3,-1,1,6,19,49,13,23
1523145163405708,-3,-2,-4,-8,-1,-3,-14,-24
1523145163407213,-10,0,3,10,35,-10,-1,-24
1523145163407213,-7,-1,-1,2,-6,-15,6,9
1523145163427309,7,-1,-2,-9,8,-6,-4,-11
1523145163427309,-11,-4,-3,0,-4,4,6,-11
1523145163429313,4,-2,-1,-5,-5,-4,4,14
1523145163429313,-3,2,5,9,7,8,-9,-18
1523145163450373,-3,-3,-3,-2,-14,-12,3,27
1523145163450373,3,0,-2,9,35,-5,4,-1
1523145163452374,-4,-2,-2,-6,-20,-4,-6,-28
1523145163452374,2,1,5,4,52,5,9,16
1523145163465418,0,-3,-3,-7,9,9,6,23
1523145163465418,6,0,6,6,31,-10,5,-9
1523145163467416,4,-1,-6,-3,2,13,0,0
1523145163467416,-4,-1,0,-2,-31,-1,-7,-18
1523145163487472,4,2,4,-2,4,-15,4,3
1523145163487472,-6,-4,-5,1,-22,22,9,3
1523145163489475,1,-3,-2,7,30,4,-5,58
1523145163489475,-9,-1,-4,-6,-37,-10,-9,-59
1523145163510540,3,2,3,-19,-1,-7,-12,-8
1523145163510540,5,-1,-1,17,-13,-6,4,15
1523145163512045,3,2,1,-3,-1,2,8,-15
1523145163512045,-7,-4,-8,-2,11,-5,-19,6
1523145163525591,1,0,-1,2,-6,-2,-2,4
1523145163525591,3,-1,-1,-4,-5,-2,-4,-25
1523145163526594,-5,0,0,-8,-1,-2,8,-11
1523145163526594,3,-1,-2,7,-13,-1,13,20
1523145163547650,-4,-3,-3,3,14,-7,-21,-7
1523145163547650,-10,-2,-2,-10,-29,5,-2,19
1523145163549657,2,-1,-3,14,-1,-10,-13,-8
1523145163549657,2,-1,1,-17,-5,18,14,-3
1523145163570710,-1,-1,0,13,19,-9,1,13
1523145163570710,1,0,-3,-4,-10,-12,-6,9
1523145163571714,-10,-1,-4,-20,-19,-1,4,-23
1523145163571714,18,-1,-1,9,29,15,7,9
1523145163584752,-8,-2,-2,-6,-17,-17,-13,-9
1523145163584752,-13,-2,1,-15,-40,25,11,-7
1523145163591767,-1,-2,-3,15,-9,4,-7,-14
1523145163591767,4,-3,-5,-4,-5,-30,1,33
1523145163607818,1,0,2,10,-14,32,5,-3
1523145163607818,0,-1,-4,-18,1,-15,0,9
1523145163609825,2,-2,1,-3,-6,1,-8,3
1523145163609825,-8,-3,-4,-5,-5,-8,-14,-1
1523145163629881,8,1,-2,-8,1,-7,15,-16
1523145163629881,3,-1,-1,-3,17,-3,2,24
1523145163631889,-15,-1,1,24,14,6,-6,-13
1523145163631889,5,-1,-1,-14,14,-9,-9,-10
1523145163644921,-13,-4,-5,0,1,1,-7,-10
1523145163644921,4,1,1,-6,15,-8,5,14
1523145163651937,16,1,-2,8,-22,-28,-10,0
1523145163651937,-11,-1,-1,-5,-16,-7,-7,-19
1523145163667981,0,-4,0,5,1,3,1,-11
1523145163667981,-1,2,0,-4,-22,-12,-1,6
1523145163668983,-4,-1,2,0,41,11,10,28
1523145163668983,-4,-1,-6,0,-15,20,-4,4
1523145163690039,6,-1,0,-22,2,-6,-1,-9
1523145163690039,-3,0,2,14,25,-5,1,1
1523145163692044,2,-3,-2,-12,-11,2,6,16
1523145163692044,-7,1,1,16,51,-12,-10,-28
1523145163705082,2,0,0,-16,-33,-20,-10,8
1523145163705082,-19,-1,2,14,25,3,12,39
1523145163711602,21,1,-2,1,-11,28,8,-46
1523145163711602,-4,-1,5,2,-11,11,1,20
1523145163727709,-10,-2,-5,-6,-17,-7,-9,-23
1523145163727709,-3,-3,-3,9,-11,-11,-8,-18
1523145163729717,-7,-2,-1,-10,5,3,1,10
1523145163729717,2,-1,-2,2,8,-17,-19,-4
1523145163750769,0,1,0,-5,-8,-11,19,25
1523145163750769,0,-1,-2,-15,41,42,10,-41
1523145163751773,-9,-2,1,9,13,-5,-8,28
1523145163751773,11,0,-4,-6,-17,-7,-3,-15
1523145163764808,-5,-3,-2,6,17,-13,-7,13
1523145163764808,-1,0,1,-5,-13,-10,-10,-26
1523145163771825,1,-1,-2,-8,36,-5,-13,-1
1523145163771825,-13,-3,-4,-6,-30,9,14,-15
1523145163787869,-3,0,1,12,-3,-7,-4,44
1523145163787869,11,-1,-4,-19,-41,-2,-13,-57
1523145163789873,-2,-2,-2,-13,-10,-26,-2,7
1523145163789873,-14,-1,1,8,-7,-5,5,-1
1523145163810439,16,0,-2,5,3,9,9,1
1523145163810439,-16,0,-2,4,31,25,11,34
1523145163812445,6,0,-1,-14,-56,-17,-16,-15
1523145163812445,-1,0,-1,-8,19,-8,9,-1
1523145163824987,3,0,-1,6,0,5,-5,-6
1523145163824987,5,0,5,26,25,12,13,36
1523145163831005,-4,0,-2,-8,-30,3,-1,-46
1523145163831005,-2,-2,-3,0,7,-2,-5,25
1523145163848048,-6,-2,-5,-9,-15,-13,-7,-6
1523145163848048,9,-3,0,-4,-3,-11,1,-12
1523145163849049,-6,-2,-2,-2,11,4,-5,0
1523145163849049,7,-1,-1,-2,-13,5,-2,12
1523145163870108,1,2,0,13,-15,25,34,-30
1523145163870108,-7,-1,0,6,-7,-9,-37,15
1523145163872115,7,-5,-2,3,-6,-2,10,10
1523145163872115,-11,-2,-1,1,31,-14,-12,-16
1523145163884144,5,0,0,-8,-21,8,0,-7
1523145163884144,1,-4,-7,-15,-18,5,4,0
1523145163899185,-16,0,0,5,-5,19,19,28
1523145163899185,11,3,2,-5,-74,-21,-26,-24
1523145163908213,-8,-3,-2,-1,22,-8,5,3
1523145163908213,1,1,0,3,-11,20,4,-8
1523145163909726,-4,0,0,7,-6,3,-14,3
1523145163909726,6,-4,-2,-10,5,3,20,26
1523145163930007,-2,0,-2,21,12,-12,-11,-17
1523145163930007,-1,-4,-2,-4,23,8,5,4
1523145163932005,5,2,5,24,70,19,6,11
1523145163932005,-6,-2,-2,3,-30,-4,5,14
1523145163944063,-2,-1,-1,-3,12,-9,6,-34
1523145163944063,2,-2,-4,-7,-10,-11,-9,16
1523145163953068,-2,-1,0,2,19,27,16,-6
1523145163953068,0,0,2,7,18,1,-19,-15
1523145163968102,-1,-1,-2,-8,-3,2,0,-3
1523145163968102,0,2,4,10,-10,-5,16,26
1523145163969103,1,-3,-4,-12,-3,-38,-20,-5
1523145163969103,0,0,-2,-2,-8,6,6,14
1523145163990161,-29,-2,-1,8,-3,26,12,7
1523145163990161,20,-3,-3,-38,18,-7,-6,-4
1523145163992167,12,0,3,-4,-10,-11,-10,-1
1523145163992167,-14,-5,-6,-10,-3,10,17,-29
1523145164004208,-4,1,2,10,7,11,-7,0
1523145164004208,-6,0,-2,6,-30,-22,-5,-21
1523145164013233,-4,-1,0,-23,-30,-8,-1,20
1523145164013233,9,1,2,0,16,13,16,-6
1523145164028281,0,0,-1,-8,13,2,-1,13
1523145164028281,-3,-2,-5,5,-24,-1,-17,-17
1523145164029285,-5,1,2,9,-11,-5,10,-28
1523145164029285,1,0,2,17,-2,-6,-3,19
1523145164050342,-2,-1,-3,-11,-23,-6,-7,-1
1523145164050342,11,-3,-3,1,19,6,7,22
1523145164052347,1,4,4,0,-16,-7,-7,-5
1523145164052347,-5,-2,-1,-8,11,16,-3,-20
1523145164064384,8,-1,1,3,27,-6,6,20
1523145164064384,-6,-1,-2,-14,-21,-14,-11,0
1523145164073400,-17,-5,-3,6,24,-8,-15,-7
1523145164073400,8,1,0,6,2,10,4,50
1523145164087440,5,-1,-3,-11,-3,8,-8,-70
1523145164087440,-12,0,-2,6,-3,-13,-7,9
1523145164089448,4,-3,-4,-9,-21,-3,-6,18
1523145164089448,-1,2,4,4,26,-6,3,-19
1523145164110513,0,-1,3,4,49,9,-9,24
1523145164110513,-3,-2,-1,-4,-11,-3,12,-12
1523145164112018,-1,0,2,4,21,5,1,-12
1523145164112018,-6,-3,-1,18,39,25,-7,18
1523145164123553,-1,-3,-5,-33,-24,-22,0,7
1523145164123553,-8,-3,0,6,-15,-5,2,-19
1523145164132576,3,-2,-3,-3,6,2,-12,22
1523145164132576,-3,1,-1,-1,-16,-5,-14,-22
1523145164147615,3,2,1,-5,17,-1,14,-13
1523145164147615,4,0,2,8,37,-11,-8,19
1523145164149622,-19,-1,-4,-7,-11,-15,-9,-12
1523145164149622,9,-4,-6,-8,-12,-5,14,-21
1523145164170679,1,-2,-2,8,-17,2,-6,21
1523145164170679,-5,-1,-4,-11,-18,-1,7,-16
1523145164171689,1,0,3,7,17,0,1,-14
1523145164171689,-3,0,0,-12,7,-3,-8,2
1523145164183713,-1,-2,-1,-2,-95,-26,-7,27
1523145164183713,1,-1,0,15,64,0,-5,-1
1523145164192735,-3,-1,-6,-17,-23,-6,2,-31
1523145164192735,1,0,1,-6,-9,-7,-6,-9
1523145164208283,3,-3,-4,-1,-27,4,-15,4
1523145164208283,-4,2,4,14,-11,15,14,-9
1523145164210290,8,-1,0,1,-15,4,2,-4
1523145164210290,-5,-1,-4,-9,-2,-6,5,16
1523145164229850,-1,0,1,7,-22,-4,-11,14
1523145164229850,-3,0,0,-1,24,-10,4,1
1523145164231847,-6,-3,-1,-1,-6,-11,-17,-11
1523145164231847,14,1,1,6,21,22,13,-14
1523145164243888,-2,-3,-5,4,37,3,3,1
1523145164243888,1,2,2,4,-34,-2,0,9
1523145164252905,0,-1,-3,-9,-18,0,8,54
1523145164252905,-3,-1,0,2,10,-20,-26,-48
1523145164267945,-6,-6,-6,-20,29,19,-2,-14
1523145164267945,-4,0,0,6,-3,-1,-9,-6
1523145164268948,4,-1,-1,-12,-5,10,26,15
1523145164268948,-9,-1,1,-2,2,-11,3,6
1523145164290004,8,3,4,17,7,-5,-6,8
1523145164290004,-1,-4,-6,-3,2,8,-11,-17
1523145164292008,-7,-2,-4,-21,-29,3,2,-2
1523145164292008,3,-4,-3,12,1,-2,7,11
1523145164304043,-5,1,-2,-15,-11,-4,-3,1
1523145164304043,-2,1,3,10,-29,3,-9,-22
1523145164313069,14,0,1,14,25,-1,9,29
1523145164313069,9,-2,-5,-10,-5,0,1,3
1523145164327979,-6,-3,-1,16,3,9,-3,-21
1523145164327979,-2,0,-2,-34,-24,4,9,6
1523145164329984,-5,1,1,8,7,-4,-12,-38
1523145164329984,-11,-3,-4,-18,-50,1,0,-1
1523145164350039,13,-1,-2,23,16,-4,-9,4
1523145164350039,4,1,-3,8,-5,-1,8,24
1523145164352040,-6,0,2,-10,-58,-13,-6,-33
1523145164352040,-7,-3,-3,8,9,23,4,-4
1523145164373096,-2,-2,0,-6,32,-8,16,24
1523145164373096,1,2,-1,-7,-31,-5,-1,-26
1523145164374098,4,0,1,23,79,11,-9,16
1523145164374098,7,1,1,6,-21,-10,18,24
1523145164388137,-10,-1,2,-13,12,10,3,8
1523145164388137,-8,-2,-4,-5,20,-1,9,-5
1523145164389139,9,-3,-7,-4,-8,14,-3,-32
1523145164389139,-3,2,8,4,20,1,-6,3
1523145164410703,-4,-2,-6,-12,-46,-22,-10,-5
1523145164410703,-3,-1,-2,11,36,7,0,18
1523145164412205,-8,-4,-3,-2,4,1,21,-13
1523145164412205,-3,-3,-4,10,-4,-16,-33,-19
1523145164439827,3,2,4,-7,-16,1,1,-5
1523145164439827,3,0,-1,-8,-20,-1,-10,5
1523145164441834,-4,-4,-4,14,82,22,-2,13
1523145164441834,-1,0,-5,-6,6,4,16,20
1523145164447850,-7,-2,-3,1,-11,6,2,-7
1523145164447850,8,-2,0,-12,6,-12,-3,7
1523145164449854,0,0,2,3,9,10,-4,2
1523145164449854,-13,-5,-6,-19,-12,-17,-9,21
1523145164469911,18,3,7,25,46,6,-5,-66
1523145164469911,-10,-2,-3,-5,-15,4,1,-24
1523145164471914,11,-1,-1,1,-51,0,13,16
1523145164471914,-3,0,1,-7,3,6,2,4
1523145164492968,-3,-3,-5,-11,-20,-11,-3,24
1523145164492968,5,-2,1,3,4,1,6,19
1523145164493971,-15,0,-3,-6,-23,-14,-6,-20
1523145164493971,8,0,2,5,3,10,1,9
1523145164507515,1,-3,0,15,20,-12,-8,28
1523145164507515,-8,-2,-4,-19,-12,-18,-2,-9
1523145164514032,-3,-1,-2,-12,-24,2,-12,-41
1523145164514032,-10,-2,-1,-7,12,9,5,-4
1523145164530620,7,0,3,4,22,16,-2,24
1523145164530620,-1,-1,1,-2,-62,-5,7,-29
1523145164531624,-14,-2,1,-8,-11,-18,2,16
1523145164531624,5,-2,-3,3,8,-10,-9,-3
1523145164552681,-1,3,6,5,50,9,6,-14
1523145164552681,-12,-3,-2,35,25,7,-1,26
1523145164554684,21,-1,-2,-5,0,-13,-4,7
1523145164554684,-17,-3,-2,-5,-25,-6,-7,-35
1523145164566720,13,-1,-5,-12,-20,-7,3,19
1523145164566720,-2,-2,0,2,19,-6,-8,7
1523145164573739,-7,-1,-1,0,-7,-5,-1,21
1523145164573739,5,-3,-3,5,-22,-4,-12,-71
1523145164590780,-4,-2,0,-7,-16,7,-2,-7
1523145164590780,9,1,-2,-7,7,2,-4,9
1523145164591784,-8,-1,-2,-1,12,-6,-5,1
1523145164591784,7,-2,-2,-5,-15,-2,7,37
1523145164612849,-14,-1,-2,17,8,-2,-5,-23
1523145164612849,0,1,3,-3,36,1,3,-8
1523145164614854,1,1,-2,-10,-7,2,2,26
1523145164614854,4,-1,1,2,74,6,7,4
1523145164627433,-10,-2,-5,-4,-20,6,0,-21
1523145164627433,-3,-3,0,11,24,-10,4,30
1523145164634451,6,4,4,3,48,-3,-11,-29
1523145164634451,0,4,2,-9,-8,7,-19,-51
1523145164650494,1,1,0,-5,-14,-1,14,34
1523145164650494,6,-1,-3,-5,3,-15,0,41
1523145164651498,5,2,2,28,0,33,19,-34
1523145164651498,-13,-3,-1,-4,-22,-15,-25,20
1523145164672554,-3,-3,-4,-7,19,-10,-19,-19
1523145164672554,-2,-1,0,-13,-38,-1,6,-14
1523145164674558,-2,-3,-3,-1,-60,-22,4,8
1523145164674558,4,0,-1,9,-5,-8,-1,37
1523145164687592,-8,3,2,3,4,-10,2,-15
1523145164687592,3,-1,-1,-3,-16,0,0,8
1523145164694612,2,-1,-1,-3,16,-7,-9,0
1523145164694612,3,2,-3,-7,12,19,6,-3
1523145164710663,-7,-1,2,4,-3,-13,-13,-11
1523145164710663,4,-2,-4,-8,-14,-8,13,-1
1523145164712166,-16,-1,-1,-6,0,13,3,14
1523145164712166,6,-1,1,-5,-23,-9,3,10
1523145164733229,-6,-3,-3,1,15,25,6,14
1523145164733229,-12,-1,-1,3,1,15,-7,-39
1523145164734232,13,-5,-5,-9,-16,-12,-13,20
1523145164734232,-5,-2,-3,3,-3,-19,-12,-26
1523145164747271,-4,0,-2,-14,-34,-3,-4,-2
1523145164747271,10,1,5,9,2,8,12,28
1523145164754285,-6,0,2,0,10,1,-2,-11
1523145164754285,-9,-1,-1,-10,-25,10,12,2
1523145164770333,9,-3,-1,8,-17,-14,-11,-2
1523145164770333,-10,-4,-7,1,-17,3,-28,-4
1523145164772334,0,1,0,-22,26,-7,10,-13
1523145164772334,4,0,1,11,17,-2,1,8
1523145164792398,0,-2,-1,7,16,4,19,23
1523145164792398,2,3,0,1,-5,0,-11,-29
1523145164794394,-4,-1,1,7,37,11,-1,6
1523145164794394,0,-2,-6,-32,-39,-11,13,27
1523145164807431,-2,-2,0,-5,21,-1,-15,-33
1523145164807431,-1,-2,-3,-5,9,-4,-2,-43
1523145164813950,10,-2,-3,2,-13,-11,-8,11
1523145164813950,-5,2,2,7,5,-10,5,17
1523145164830033,7,-2,-3,-4,-15,-6,-3,18
1523145164830033,-3,-1,-2,-5,10,12,12,6
1523145164832038,-9,-4,-6,0,-32,-1,-12,1
1523145164832038,-7,-3,-4,1,1,-2,-5,-3
1523145164853094,12,1,1,-1,-6,2,3,-36
1523145164853094,6,-2,-2,-4,2,4,-1,27
1523145164854096,-13,-1,0,4,2,0,5,-2
1523145164854096,12,1,1,13,-1,7,3,0
1523145164866132,-4,-4,-1,-6,18,-2,2,6
1523145164866132,4,-5,-8,-21,-28,11,-6,2
1523145164875152,1,3,2,10,-3,-5,-3,-6
1523145164875152,-4,-1,-1,-7,-1,1,7,11
1523145164890192,-9,-1,-1,8,2,4,6,-19
1523145164890192,6,0,-2,-4,-5,-24,-28,-16
1523145164892202,-9,0,5,9,41,10,4,13
1523145164892202,-1,-1,-3,-14,-34,-7,13,27
1523145164913259,0,2,-4,-16,-22,2,-4,-59
1523145164913259,-13,0,0,9,18,-23,-9,8
1523145164914771,13,-2,0,14,6,15,19,12
1523145164914771,0,1,2,-6,0,6,-6,-15
1523145164926304,4,-3,-3,-7,-18,-1,0,29
1523145164926304,-5,1,0,-3,-5,3,-2,-5
1523145164935327,1,-5,-2,-9,-23,0,14,6
1523145164935327,-8,0,-3,20,19,7,-1,-35
1523145164950368,6,0,4,-12,-24,-10,-8,22
1523145164950368,-12,-3,-2,-3,-25,5,-12,-49
1523145164952372,5,1,0,-7,12,2,-2,-4
1523145164952372,-5,-1,-1,16,-10,5,19,59
1523145164972426,-13,-5,-6,4,0,-9,-13,-52
1523145164972426,5,0,3,-6,-3,-15,0,32
1523145164974432,-1,0,0,-7,-3,21,5,-23
1523145164974432,3,3,4,3,17,-11,-8,2
1523145164986467,5,-3,-3,14,8,-8,6,-9
1523145164986467,2,0,2,-7,48,21,-7,16
1523145164995486,-2,-4,-1,3,14,-1,12,-11
1523145164995486,0,-1,-1,14,11,-10,-45,12
1523145165010534,-8,2,-1,-15,1,33,21,15
1523145165010534,7,-3,-3,13,17,-20,-8,9
1523145165012041,-3,3,6,-6,-22,-14,-10,-40
1523145165012041,11,-1,0,7,6,13,21,0
1523145165032128,-18,0,-2,0,39,-19,-19,10
1523145165032128,5,0,0,-7,-16,-8,-1,19
1523145165040151,-3,-2,-4,-5,-11,-11,-8,-24
1523145165040151,-1,-2,0,3,-8,-13,13,-9
1523145165046177,3,0,-2,0,-31,11,-4,19
1523145165046177,-3,-1,-1,9,1,7,32,-6
1523145165055193,0,-3,-7,1,-19,22,4,33
1523145165055193,2,-1,-2,-20,4,-5,-23,-37
1523145165070230,-9,-2,2,3,5,-7,0,-2
1523145165070230,-2,-1,-1,-2,-5,-4,-4,-5
1523145165072235,-8,-1,-2,3,-3,-7,1,15
1523145165072235,7,-3,-3,11,-6,-2,-11,-3
1523145165093294,2,1,3,-3,-8,8,9,17
1523145165093294,-12,0,-2,-15,8,-7,4,-38
1523145165094296,13,-1,1,6,2,14,-2,28
1523145165094296,-5,-2,-2,-19,24,10,3,-9
1523145165106839,2,0,-1,4,-6,-13,-5,30
1523145165106839,-8,-3,-5,9,15,-9,19,-47
1523145165115862,-7,-3,-7,-6,-18,-5,-28,-18
1523145165115862,-4,0,2,-19,-33,-5,-13,14
1523145165130030,6,0,0,15,5,18,12,-11
1523145165130030,-2,-2,-3,-4,-3,10,2,40
1523145165132030,3,-1,-3,-2,-18,-17,3,-62
1523145165132030,8,-1,0,1,-2,-6,-16,-14
1523145165153086,-13,2,3,-25,-29,-5,14,17
1523145165153086,3,-2,-1,-4,4,28,2,5
1523145165154089,-1,-2,-5,-3,21,17,11,31
1523145165154089,-10,-2,-3,-2,0,-20,0,12
1523145165166122,11,1,5,-6,-14,-13,-10,-21
1523145165166122,4,-1,0,-4,-16,-4,1,-1
1523145165175145,-3,-1,-2,-7,-9,-17,-17,18
1523145165175145,-4,0,4,23,22,4,5,-25
1523145165190185,0,-3,-7,4,4,-9,-15,-11
1523145165190185,-1,3,5,24,6,6,-2,-25
1523145165192196,-4,-4,-1,-8,8,-18,3,31
1523145165192196,7,0,0,6,12,19,26,-27
1523145165213254,1,-1,1,7,70,14,0,8
1523145165213254,-2,-1,3,-3,-18,-14,-11,8
1523145165214761,1,-3,-4,-6,-4,6,-3,7
1523145165214761,1,1,0,-4,-58,-12,-10,13
1523145165226294,-19,-2,-3,1,-1,-8,-11,-29
1523145165226294,24,-1,-4,-25,-13,3,8,7
1523145165235318,-16,-1,1,11,5,-10,-9,1
1523145165235318,2,-2,-1,-1,44,-2,4,3
1523145165250360,7,-3,-4,-4,-14,6,-14,10
1523145165250360,-17,1,7,9,-19,2,-5,-25
1523145165252361,0,-2,-4,-11,-5,-12,-9,-3
1523145165252361,2,-1,-2,5,18,-1,10,24
1523145165273421,-2,1,2,21,-6,-10,7,-33
1523145165273421,0,-2,-1,-3,45,-1,-3,14
1523145165274422,11,-1,0,2,11,10,8,11
1523145165274422,-7,-3,-4,-20,-28,12,-5,-4
1523145165295479,1,-2,-3,0,-17,-7,11,5
1523145165295479,-2,-2,0,9,27,-18,-11,18
1523145165296479,-4,-2,3,-3,-50,-16,1,-24
1523145165296479,-4,-1,-2,-24,-21,18,3,-19
1523145165310533,4,0,-5,4,9,-3,-8,4
1523145165310533,-10,1,3,0,3,-9,6,9
1523145165312036,18,0,-1,-3,-5,2,-16,-4
1523145165312036,-2,1,3,0,0,-6,0,20
1523145165332598,-4,-4,-2,17,5,18,19,-5
1523145165332598,-15,-1,-4,8,7,-1,4,14
1523145165334602,-1,-1,1,-7,-22,-18,-16,2
1523145165334602,3,-4,-2,-18,36,-4,-8,-8
1523145165355657,7,0,0,-15,-9,-14,-3,23
1523145165355657,2,0,1,21,-17,2,-5,-27
1523145165356658,0,2,0,12,25,-11,6,7
1523145165356658,-6,-1,-6,1,-10,-2,-2,-15
1523145165370694,-3,-3,0,-6,-8,-2,6,26
1523145165370694,12,-1,0,-6,1,-9,-8,-3
1523145165371698,-7,-1,1,-13,-11,-14,-1,38
1523145165371698,-4,0,1,13,26,7,-3,-61
1523145165392754,-6,3,4,19,35,37,12,7
1523145165392754,12,-2,1,2,-50,-1,-1,11
1523145165394762,-13,-3,-3,2,-5,-10,-18,-41
1523145165394762,1,-3,-3,0,21,-7,4,58
1523145165415320,-6,-1,-2,-6,-31,-6,1,-36
1523145165415320,3,-3,-5,-21,-10,7,-3,-4
1523145165417325,0,0,1,3,-25,8,8,10
1523145165417325,-2,0,0,0,-29,-17,-23,-2
1523145165429814,-3,-4,-4,6,31,-7,-1,5
1523145165429814,0,-1,-1,6,21,12,10,13
1523145165436829,-2,-1,-2,-11,-44,-9,4,-10
1523145165436829,-3,-1,-3,-13,-8,8,0,11
1523145165452877,12,-1,-2,-6,-5,16,35,48
1523145165452877,-5,4,1,-3,-10,-21,-37,-56
1523145165454880,-1,-1,-1,5,12,9,4,23
1523145165454880,2,2,0,19,2,-5,4,-29
1523145165474932,0,-1,-1,-3,-36,-7,-8,-22
1523145165474932,-15,-4,-6,-17,2,13,7,36
1523145165476937,15,-2,-3,13,38,-2,5,-33
1523145165476937,-3,0,2,8,10,8,1,0
1523145165489973,1,0,2,0,3,-11,-12,10
1523145165489973,-4,-3,-3,-7,-19,-10,7,-23
1523145165495990,-14,-3,-2,-3,27,-11,-30,-1
1523145165495990,6,-6,-5,3,5,19,33,12
1523145165513036,-2,2,0,-50,-72,7,14,-2
1523145165513036,6,0,-2,17,1,-21,-23,4
1523145165514035,-4,-1,0,-4,8,-9,-1,-4
1523145165514035,-5,-1,-1,-8,-19,-17,-17,-13
1523145165534090,2,-3,-3,2,39,6,-5,-4
1523145165534090,-6,-2,-5,-8,-2,8,10,14
1523145165535091,8,2,2,-4,7,3,16,29
1523145165535091,0,2,0,7,0,38,8,-1
1523145165550132,-10,0,-2,1,12,-9,-14,-37
1523145165550132,6,0,-1,-6,-16,-7,-6,1
1523145165557153,-3,-1,0,-4,1,21,-9,-3
1523145165557153,-1,-1,1,-3,10,-23,10,7
1523145165572191,-1,-5,-4,-9,-23,-11,-12,9
1523145165572191,-6,-3,-2,0,-24,2,4,5
1523145165573194,0,2,3,1,8,-3,-9,-49
1523145165573194,-1,-1,1,9,-4,-11,-9,2
1523145165594251,0,-2,-2,-6,6,19,15,18
1523145165594251,3,-1,0,10,8,-20,-9,-12
1523145165595250,-3,-1,-3,7,19,10,23,-6
1523145165595250,-2,-3,-5,-19,-17,-4,-26,9
1523145165609297,-2,0,3,9,32,-21,-22,-30
1523145165609297,-9,-3,-3,-9,-9,11,19,27
1523145165617315,-10,-1,3,0,-10,12,10,18
1523145165617315,3,0,-3,-10,-12,11,3,-24
1523145165632357,-4,0,1,9,21,16,-9,10
1523145165632357,-2,-2,-2,-15,-9,8,1,-6
1523145165633355,-6,-4,-8,-1,-8,-10,3,9
1523145165633355,-4,-3,1,2,10,-12,-15,18
1523145165654412,3,0,-1,-6,54,6,0,-13
1523145165654412,9,2,-1,4,11,3,-2,-11
1523145165655413,-7,-2,-2,3,62,7,5,-11
1523145165655413,2,-2,-2,-5,-45,19,-3,-8
1523145165668447,3,0,2,-3,3,-4,10,25
1523145165668447,-3,-1,0,5,8,8,-12,1
1523145165677471,-2,-3,-7,1,-5,-21,-15,6
1523145165677471,0,2,2,-6,-10,-19,-6,-39
1523145165692512,-4,-2,-1,10,-29,3,3,12
1523145165692512,-7,-5,-1,20,-27,-1,-10,-11
1523145165692512,9,1,3,10,20,29,23,7
1523145165692512,-4,-2,-6,-4,19,-15,-14,-2
1523145165714571,-1,-1,-2,-7,-28,-13,2,38
1523145165714571,0,2,5,5,23,0,-4,-49
1523145165715573,-3,-3,-4,-7,-21,-2,5,-16
1523145165715573,-3,-2,-5,0,-12,-4,-1,14
1523145165728607,-3,-2,0,5,-7,-24,-10,-8
1523145165728607,7,1,1,-13,58,16,12,23
1523145165736627,5,1,2,9,-6,-14,-10,-21
1523145165736627,-8,-2,-2,5,14,3,12,4
1523145165751669,1,-2,-1,-20,-41,-12,-5,-1
1523145165751669,-4,-4,-2,10,1,-8,-20,-15
1523145165752673,0,0,-3,-18,-22,-7,-9,23
1523145165752673,-5,2,0,12,0,9,3,-57
1523145165774734,2,-2,-3,0,-38,-8,0,-7
1523145165774734,1,0,1,-14,-13,9,5,58
1523145165775733,-6,-1,-2,-7,-1,37,18,-42
1523145165775733,3,0,-4,-4,-2,-14,-12,27
1523145165788766,2,-2,-2,-4,-4,-8,-1,-20
1523145165788766,-1,-4,-3,8,-5,1,-6,30
1523145165796794,0,-1,-4,-20,-44,-8,-12,-19
1523145165796794,-3,2,4,27,40,-3,8,1
1523145165811831,1,3,-1,-12,-26,9,-4,-18
1523145165811831,0,-1,-2,2,-3,-5,15,30
1523145165812837,-1,-2,-2,4,8,-12,-12,8
1523145165812837,7,-2,-3,-10,10,8,-8,-8
1523145165834890,0,2,3,7,50,-8,-9,1
1523145165834890,-4,-2,-3,-9,-1,7,3,-10
1523145165834890,-5,-4,-1,-6,-10,1,-2,19
1523145165834890,-1,-2,-2,-2,-42,-5,5,-25
1523145165849931,-6,-3,-4,5,3,-11,-11,4
1523145165849931,1,-3,-3,-19,-23,-11,20,28
1523145165856951,0,0,-3,-14,-19,7,-6,-48
1523145165856951,-2,-1,3,8,49,3,1,31
1523145165871988,2,0,0,-3,-17,6,12,14
1523145165871988,-4,-3,-6,2,3,-15,-16,-33
1523145165872991,0,1,0,-7,-18,-21,5,22
1523145165872991,0,-1,-3,-11,-9,-16,-15,23
1523145165895050,4,0,0,13,-51,-6,-7,-50
1523145165895050,-1,1,-2,-6,11,28,21,36
1523145165895050,2,0,1,6,10,-11,-1,15
1523145165895050,-12,1,5,5,-20,2,-3,-50
1523145165909087,3,-3,-4,18,50,7,-4,28
1523145165909087,-7,-2,-1,1,-13,-11,-5,-36
1523145165917108,4,4,6,14,28,7,-1,27
1523145165917108,-10,-2,-4,-9,-11,4,9,24
1523145165932148,11,-4,-4,-3,10,-5,-4,-2
1523145165932148,-11,0,-2,13,19,-2,-18,-34
1523145165933150,4,-2,-2,6,1,1,4,-14
1523145165933150,2,0,3,-21,-14,4,6,31
1523145165954216,-8,-1,0,13,15,3,10,20
1523145165954216,10,1,2,-3,0,-11,-21,2
1523145165955210,9,1,-3,-7,-44,12,13,8
1523145165955210,-2,1,1,1,37,2,3,-19
1523145165969250,-5,-2,-5,-7,-2,-8,-17,-11
1523145165969250,-11,1,6,1,16,4,30,9
1523145165977276,-4,-2,-3,0,-23,-20,-34,-1
1523145165977276,10,-1,-2,16,57,-5,10,5
1523145165992309,-12,2,1,-9,-7,15,15,-2
1523145165992309,9,-1,-3,-18,-38,-20,-13,-30
1523145165993326,-3,-2,-1,1,20,12,5,-7
1523145165993326,1,-1,-1,-3,-64,2,-6,13
1523145166014367,3,-2,1,1,20,-1,8,0
1523145166014367,-3,-1,-1,2,6,3,-3,1
1523145166015369,-2,-1,-1,-8,1,-1,8,13
1523145166015369,-1,-4,-9,-8,18,-8,-4,-19
1523145166029407,2,3,7,1,-6,-8,0,15
1523145166029407,12,4,5,-23,-21,15,-9,-20
1523145166037431,-10,-3,-4,9,29,9,9,3
1523145166037431,-3,-2,0,6,9,4,-1,-16
1523145166052470,-5,2,2,-12,8,-15,-20,12
1523145166052470,5,-1,-2,7,-13,-5,5,-5
1523145166052470,-2,-1,0,-2,1,-7,-11,-2
1523145166052470,0,-4,-8,-14,-16,-9,8,24
1523145166074528,-5,-5,-5,-6,-19,-12,-15,-22
1523145166074528,-4,2,3,8,15,27,10,-9
1523145166075531,1,2,1,7,13,4,4,3
1523145166075531,7,1,1,-7,-21,-11,-4,17
1523145166088568,-2,-4,-4,-1,22,10,3,-25
1523145166088568,-6,-3,-3,3,8,-25,-9,4
1523145166097588,-7,0,2,2,-13,-8,-31,-79
1523145166097588,3,-1,1,-12,-8,9,23,18
1523145166112630,3,1,-1,22,38,28,-8,8
1523145166112630,-7,-5,-5,-16,10,-20,31,21
1523145166112630,3,1,2,-16,-60,3,-15,14
1523145166112630,-5,0,4,9,83,3,-14,12
1523145166134688,1,-2,-3,-3,-12,0,8,-15
1523145166134688,4,-1,0,17,-3,1,-4,17
1523145166135691,-2,1,-2,4,19,8,5,-41
1523145166135691,0,0,-3,-3,-18,-34,-15,-8
1523145166148729,-4,-1,-1,-6,-2,15,11,14
1523145166148729,-1,0,-3,3,11,-9,-23,-15
1523145166156755,0,-2,0,1,2,3,18,20
1523145166156755,1,-1,0,22,-1,12,8,0
1523145166171785,-2,-2,-4,-26,-49,-19,-15,-24
1523145166171785,-1,2,0,-19,-11,13,9,11
1523145166172788,1,-1,-3,-14,19,-9,5,40
1523145166172788,-4,0,0,-3,-21,40,-3,-17
1523145166194855,-8,-4,-4,15,-6,-4,23,27
1523145166194855,18,-1,-2,-33,-39,-8,-12,11
1523145166195851,-14,-1,-1,-2,35,-16,-19,-73
1523145166195851,4,3,1,10,15,2,9,3
1523145166217911,-4,-3,-4,-5,7,19,-2,-15
1523145166217911,-7,1,2,18,55,11,8,24
1523145166218913,4,1,2,2,11,-20,-3,23
1523145166218913,-2,-5,-5,-15,-19,-20,-8,-5
1523145166231947,-2,0,0,-5,-15,10,-11,-37
1523145166231947,2,-1,-1,10,11,10,17,-13
1523145166232949,0,-3,-3,2,-7,8,4,33
1523145166232949,-1,-1,4,-3,-14,0,13,21
1523145166255008,6,1,0,-3,41,-1,-5,2
1523145166255008,-2,0,-1,-1,-20,4,3,-6
1523145166255008,10,-2,-3,0,-13,0,-8,-4
1523145166255008,-11,2,2,18,30,-4,-7,-13
1523145166278071,-11,0,-2,-1,-9,13,15,8
1523145166278071,13,0,-2,3,-21,-13,-5,-8
1523145166279072,-2,-4,0,12,-2,11,0,22
1523145166279072,6,-2,-1,-13,-17,-6,5,11
1523145166292105,2,0,1,10,15,-13,-10,-23
1523145166292105,-12,-6,-7,-9,-45,22,3,-16
1523145166293109,2,2,2,-4,-4,-5,16,46
1523145166293109,-1,-1,-1,-10,-27,-14,-26,-50
1523145166314166,7,-1,0,3,41,-9,12,26
1523145166314166,-10,-3,-4,-22,-47,7,-7,-19
1523145166315167,3,2,1,7,20,1,13,-5
1523145166315167,-1,2,-1,-8,12,-2,-3,26
1523145166338229,5,-1,0,-6,-39,-12,-19,4
1523145166338229,-4,1,1,0,13,-14,3,-16
1523145166338229,-7,-3,-7,-3,5,3,-22,-2
1523145166338229,3,3,7,4,-11,-19,8,4
1523145166352265,-1,-1,-2,2,16,1,-5,5
1523145166352265,-7,-1,-1,3,15,8,5,-1
1523145166353281,-1,-2,-1,-2,1,-2,-5,25
1523145166353281,-5,-1,-5,-8,-24,7,-9,-59
1523145166375329,7,0,1,-3,0,-12,4,-1
1523145166375329,10,1,-1,17,31,-3,-12,4
