timestamp,emg1,emg2,emg3,emg4,emg5,emg6,emg7,emg8
1523149997822247,-2,-5,-19,32,-11,3,1,4
1523149997822247,0,-1,50,60,-3,-2,1,-1
1523149997823257,-3,-12,23,8,12,-1,-2,-1
1523149997823257,-1,2,4,37,2,-1,-3,-1
1523149997829266,7,8,49,30,3,-9,-9,4
1523149997829266,-3,-7,-22,-128,-4,12,12,2
1523149997831272,-1,-3,26,85,-12,-4,1,-5
1523149997831272,-4,-5,13,-39,-19,-19,-12,-9
1523149997852327,2,1,-20,7,20,-5,0,-3
1523149997852327,0,-1,25,45,1,-6,-6,-3
1523149997854333,6,7,25,-19,-31,6,-1,5
1523149997854333,-2,-4,-22,62,6,14,7,0
1523149997874389,4,3,-18,-81,5,9,0,6
1523149997874389,1,1,12,37,37,28,17,2
1523149997876398,-8,-11,-32,-49,13,-1,-10,-12
1523149997876398,3,3,19,15,-29,-22,-10,3
1523149997888429,-5,-13,-32,-23,-78,16,14,0
1523149997888429,3,3,3,35,60,0,5,3
1523149997897447,-1,0,20,-10,-10,-3,-2,-2
1523149997897447,-2,-2,-26,24,30,8,-2,-4
1523149997911487,-2,-4,25,-18,13,-18,-8,-4
1523149997911487,-4,-4,-31,-50,-53,-31,-13,-4
1523149997913491,2,2,-8,22,-8,3,7,0
1523149997913491,5,4,1,-12,38,12,7,3
1523149997934556,-2,-2,6,18,-5,3,-1,-2
1523149997934556,-8,-11,-16,-38,-15,12,-11,-6
1523149997935549,0,7,-5,31,23,17,12,3
1523149997935549,3,-3,-1,-5,2,2,7,4
1523149997947582,-2,8,9,-4,-14,-3,-1,-3
1523149997947582,-13,-17,-40,-23,-1,-23,-8,-9
1523149997956842,-7,-18,18,7,-9,-20,-14,1
1523149997956842,-2,2,-22,-14,-17,0,1,-17
1523149997971879,5,-10,-10,10,22,-4,0,1
1523149997971879,7,17,-3,5,-31,-4,2,3
1523149997973651,-1,-1,4,-6,18,-6,1,-1
1523149997973651,-3,-3,-33,-39,-7,7,0,3
1523149997994877,0,-1,28,18,19,9,0,-2
1523149997994877,-1,-5,-15,1,-12,-3,-1,2
1523149997995792,2,2,9,2,6,-4,0,-1
1523149997995792,6,21,10,9,-7,-6,-6,-1
1523149998007872,-4,8,-6,28,6,3,1,0
1523149998007872,-22,-25,-7,-39,-2,2,-6,-3
1523149998016766,0,-28,-7,-15,1,-9,-8,-7
1523149998016766,-2,2,12,8,-6,2,1,0
1523149998031814,10,13,0,0,7,2,1,0
1523149998031814,12,24,17,14,5,-3,-1,2
1523149998033820,-5,-21,3,-12,-4,-2,1,-2
1523149998033820,-8,-3,-6,-6,-10,3,-4,-2
1523149998054952,-2,-2,17,-4,7,2,-1,-3
1523149998054952,12,3,-80,-5,-10,-5,1,-1
1523149998055871,-9,16,58,7,2,-5,-4,-2
1523149998055871,-2,-10,-5,16,4,2,0,1
1523149998067906,-4,-9,-5,-36,-3,-3,0,0
1523149998067906,0,2,19,27,-16,-1,-3,-3
1523149998076931,6,5,-33,-34,14,2,4,4
1523149998076931,-1,-4,-9,15,2,3,-1,0
1523149998092197,-10,-1,25,11,-7,-10,-5,-3
1523149998092197,2,-1,7,-12,1,-2,-3,-1
1523149998092976,9,5,-7,15,0,3,4,3
1523149998092976,-4,-1,9,-1,-5,-2,-1,-2
1523149998114025,-2,-7,-31,-20,-2,-3,-4,-3
1523149998114025,2,3,27,17,5,3,2,1
1523149998116032,-3,5,-12,-32,-4,1,-1,-2
1523149998116032,-3,-2,0,12,-7,-10,-3,-1
1523149998129072,1,-2,30,32,11,13,2,0
1523149998129072,1,2,22,-17,5,2,2,0
1523149998137093,-3,3,-20,10,-13,-4,-4,-4
1523149998137093,1,-4,19,5,6,3,1,2
1523149998152126,-5,-7,-25,-20,-11,-7,0,-3
1523149998152126,-3,-2,-13,-9,4,-3,-3,-2
1523149998153130,2,5,-3,18,6,6,1,0
1523149998153130,1,-5,9,-6,-9,-4,-1,-1
1523149998174466,2,9,-9,23,-3,0,-1,0
1523149998174466,-1,0,19,-2,-3,-3,1,0
1523149998176190,0,2,0,1,-3,-4,-4,-2
1523149998176190,-3,-3,-5,-7,0,1,-2,-4
1523149998188461,-3,-2,-5,2,3,-1,0,-2
1523149998188461,4,-4,-38,-44,-6,-2,-2,-2
1523149998197247,-3,1,20,12,-4,-5,-2,-3
1523149998197247,-2,-1,-5,-7,-3,-1,0,1
1523149998212566,1,-1,-12,4,2,-1,-2,0
1523149998212566,-3,-1,8,7,5,2,2,2
1523149998213289,-1,-2,-8,2,-1,-1,2,0
1523149998213289,1,-3,-3,-12,0,4,-1,-2
1523149998234609,2,1,27,16,4,0,-2,0
1523149998234609,-3,-6,-32,8,-6,-5,-1,-3
1523149998236351,-1,2,2,0,-2,-3,-2,-1
1523149998236351,-3,-4,-3,-12,-11,-6,-3,-1
1523149998249386,-2,1,1,-4,7,2,3,1
1523149998249386,1,3,16,12,8,6,2,1
1523149998257409,0,2,6,-7,-3,-1,-1,-1
1523149998257409,-4,-7,-40,-13,-13,-6,-6,-5
1523149998272582,0,-3,22,-1,8,-6,-2,-2
1523149998272582,0,0,-12,5,5,-2,-3,-2
1523149998273452,1,0,-6,2,4,6,3,0
1523149998273452,0,1,10,27,10,8,6,2
1523149998294744,-2,-4,0,-35,-12,-2,2,1
1523149998294744,-3,0,-11,8,-8,-3,-5,-2
1523149998295517,-1,1,14,-1,2,-4,-1,-1
1523149998295517,0,2,12,40,2,-2,-2,-1
1523149998308545,-1,-4,-17,-17,-5,-5,-8,-6
1523149998308545,-2,-3,-6,1,-6,-5,7,3
1523149998316565,1,3,12,32,2,3,1,1
1523149998316565,0,-2,-13,-56,1,2,1,0
1523149998331611,0,-3,-4,12,3,2,-2,-1
1523149998331611,0,2,24,5,-8,-5,-7,-5
1523149998333610,0,-3,-20,0,-1,-1,-1,1
1523149998333610,-3,0,3,-29,3,-1,1,-1
1523149998354672,0,-1,15,5,-3,1,1,-1
1523149998354672,0,-4,-8,-4,-4,4,-3,0
1523149998355667,-2,-1,10,-7,-5,-3,0,-3
1523149998355667,-2,-5,-33,5,-3,-6,-4,-1
1523149998367980,-3,-1,-1,-9,-5,-5,-5,0
1523149998367980,-2,2,8,-5,1,0,-1,-1
1523149998376725,2,2,-7,21,8,5,2,1
1523149998376725,-1,0,13,-15,-4,1,-1,1
1523149998392044,-4,-5,-38,-8,-2,-4,-2,-2
1523149998392044,-1,1,11,-13,-5,-2,-2,0
1523149998393773,0,0,-4,-3,2,-2,-2,-2
1523149998393773,0,0,2,23,-5,0,-1,-1
1523149998414825,0,1,14,14,13,3,1,3
1523149998414825,0,-3,-26,7,6,2,-1,-2
1523149998415829,-1,-2,-2,-2,-4,-2,-1,-1
1523149998415829,-1,-2,9,-26,-5,-7,-5,-3
1523149998428076,-2,-1,-4,9,-9,-4,-1,-2
1523149998428076,-1,-1,3,7,4,-1,1,-1
1523149998436884,0,0,6,9,5,2,0,0
1523149998436884,-1,-1,-1,-22,-3,-2,-2,0
1523149998452128,-2,-3,-5,35,-10,-3,-1,-3
1523149998452128,0,-2,-25,-38,8,4,3,1
1523149998453930,-2,0,26,-20,-10,-3,-3,-3
1523149998453930,0,-1,-3,30,3,0,0,-1
1523149998475167,-1,3,10,-29,1,1,0,0
1523149998475167,-3,-5,-17,-50,-12,-7,-4,-3
1523149998475991,-1,-1,-3,18,-6,-1,-2,-1
1523149998475991,0,1,15,34,12,1,-1,1
1523149998488066,1,-1,-47,-20,-6,-1,1,-1
1523149998488066,-1,-1,13,22,2,1,2,0
1523149998497045,-2,-4,-2,-18,-3,-3,-3,-1
1523149998497045,0,1,5,-3,-2,-1,-2,-1
1523149998512326,1,1,7,-23,0,1,1,1
1523149998512326,-1,1,-7,34,-1,-1,-2,-1
1523149998513089,-5,-8,-6,-2,-2,-5,-2,-2
1523149998513089,-2,-1,4,18,-7,1,2,0
1523149998534396,-2,0,4,8,11,-3,-2,0
1523149998534396,1,1,0,-14,-5,-2,0,-1
1523149998536151,0,-1,-4,-2,9,3,1,0
1523149998536151,1,-2,-11,-7,-5,-2,-1,1
1523149998548184,-1,-1,15,-15,-4,0,2,0
1523149998548184,0,1,15,15,2,1,-2,-1
1523149998557210,1,0,-9,-2,1,2,0,0
1523149998557210,-1,-1,-1,-13,-1,-1,0,-1
1523149998572285,-2,-1,-15,9,-8,-7,-5,-2
1523149998572285,-1,1,5,21,-3,-5,-2,-2
1523149998573250,2,2,51,-11,3,4,4,2
1523149998573250,-1,-3,-44,6,0,-2,-2,-2
1523149998594348,-2,-4,-12,-3,-6,-3,-1,-2
1523149998594348,1,2,-14,-23,3,4,1,1
1523149998596309,-3,-9,12,6,-4,-5,-5,-3
1523149998596309,-2,-4,22,-15,0,1,1,0
1523149998608349,-1,2,-3,20,2,4,3,-1
1523149998608349,-1,-4,19,-1,-7,-5,-4,-2
1523149998617366,-2,3,-33,6,-4,-2,-2,-1
1523149998617366,0,0,6,-27,0,-2,-2,-4
1523149998632404,-2,-4,7,-6,-8,-6,-3,-4
1523149998632404,-1,0,2,0,7,3,0,0
1523149998633407,-1,-1,-13,0,-10,1,1,-2
1523149998633407,-2,-2,13,5,14,0,0,-1
1523149998654597,0,0,-8,-1,3,2,-2,1
1523149998654597,-1,-4,-4,1,1,2,1,0
1523149998655467,-3,0,-3,1,-3,-2,1,0
1523149998655467,-1,1,-12,8,-7,-4,-5,0
1523149998676763,-1,2,37,-5,-6,-1,-1,-2
1523149998676763,-4,-7,-5,-18,-8,-5,-3,-3
1523149998683539,-2,0,-14,3,1,-2,-2,-2
1523149998683539,-1,0,-12,-3,0,0,1,-1
1523149998691813,0,1,29,49,9,0,-1,0
1523149998691813,-1,-2,15,-17,-5,-3,-2,-2
1523149998693569,1,0,-13,-5,-6,-1,0,0
1523149998693569,0,-2,2,-6,5,1,1,-1
1523149998714622,-3,-4,-27,-11,-1,0,-3,-3
1523149998714622,-1,2,-2,16,6,4,2,0
1523149998715627,-1,-1,16,-7,-8,-7,-6,-5
1523149998715627,0,-2,-20,-3,-2,0,0,0
1523149998736932,0,-2,-5,4,3,4,3,2
1523149998736932,-1,2,7,-2,-2,-1,0,0
1523149998738691,-1,-7,-2,-5,-1,-3,-2,-3
1523149998738691,-1,-1,12,7,-5,-4,-3,-3
1523149998750972,0,0,2,-17,-5,-2,-2,1
1523149998750972,1,1,-11,7,2,0,0,1
1523149998759748,-2,0,8,-8,0,-1,-1,-1
1523149998759748,-2,-1,6,-4,-2,-5,-2,-2
1523149998774807,-2,-2,-18,-7,1,1,3,1
1523149998774807,-1,0,6,9,1,-1,-1,-3
1523149998775787,0,-1,-31,-11,0,-1,0,-1
1523149998775787,-1,2,29,-4,-2,-2,1,-3
1523149998796842,0,0,0,20,-1,-2,-1,1
1523149998796842,-2,0,-3,11,-2,1,-1,2
1523149998798848,-2,-2,-22,-35,1,1,4,2
1523149998798848,0,1,16,8,-1,2,0,1
1523149998810884,1,-1,0,-2,-4,-3,-2,-2
1523149998810884,0,-3,5,12,-2,-3,-2,-1
1523149998817898,0,1,-10,2,0,-3,-3,-2
1523149998817898,-2,1,6,-6,-3,1,1,1
1523149998833938,-2,-3,-1,-4,-4,-4,-2,-2
1523149998833938,1,-3,-10,-7,4,2,0,0
1523149998835946,0,3,14,6,4,3,0,2
1523149998835946,-1,-4,-19,-4,-4,-3,-4,-1
1523149998857000,-1,0,-12,-7,-3,-1,-1,-1
1523149998857000,-2,-3,1,-9,-5,-5,-2,-1
1523149998858003,-1,0,5,5,-1,-2,-2,-1
1523149998858003,-2,-1,6,13,6,5,3,-1
1523149998871040,-2,-3,-24,1,3,4,0,2
1523149998871040,-2,1,28,-35,-3,-4,-3,-3
1523149998878057,0,2,8,10,1,-1,0,-1
1523149998878057,-2,-3,-17,-8,1,1,0,0
1523149998894099,-2,-1,6,-1,-3,-4,-3,-2
1523149998894099,0,-3,-2,6,1,-1,-2,-3
1523149998896104,-2,-7,-13,4,-1,-1,-3,-1
1523149998896104,-1,0,-2,-7,-3,-3,-2,-3
1523149998917194,0,-2,-3,-7,-1,1,1,-3
1523149998917194,0,-1,-12,8,-2,1,0,0
1523149998918163,2,0,-19,-3,-3,-3,-3,-2
1523149998918163,-1,1,26,1,4,3,1,1
1523149998931231,-2,-2,17,-2,-3,-4,-4,-2
1523149998931231,-1,0,-7,-5,-4,-4,-1,-1
1523149998938219,-3,-1,5,5,4,4,4,2
1523149998938219,1,-2,-7,-2,-4,1,-1,-2
1523149998954494,0,0,3,-3,-3,-1,-1,-3
1523149998954494,-2,-3,-6,4,0,-1,1,-1
1523149998956265,0,0,-10,-4,-6,-4,-4,-2
1523149998956265,-1,-2,13,-1,-4,-5,-4,-1
1523149998977533,-1,-1,8,-1,4,2,1,2
1523149998977533,-1,-1,-8,4,3,2,0,2
1523149998978324,-2,0,-3,0,-2,-1,-1,-1
1523149998978324,-1,-2,-9,-2,-3,-2,-2,-1
1523149998990756,2,-1,10,-3,-5,-4,-2,-3
1523149998990756,-3,-1,1,-1,-2,-1,-2,-1
1523149998999651,0,-2,-3,0,2,1,1,-1
1523149998999651,-1,-1,-4,-3,-3,-3,-2,-1
1523149999013418,-1,-2,-5,-4,1,-1,-1,-1
1523149999013418,1,1,-1,4,3,3,2,0
1523149999014419,-2,-3,9,-3,-5,-1,-2,-3
1523149999014419,0,-3,-27,-1,-2,-2,0,-1
1523149999036767,-2,-1,-2,-5,-3,-1,0,-1
1523149999036767,-1,0,7,0,-5,-4,-3,-3
1523149999037482,0,1,-11,2,5,2,1,1
1523149999037482,0,-5,-32,-3,1,2,1,0
1523149999050740,-2,1,9,-2,-3,0,0,1
1523149999050740,-1,-2,-2,-1,-3,-2,-1,-4
1523149999058846,-2,0,1,-4,-4,-3,-1,-2
1523149999058846,-2,-1,4,2,-1,-1,-1,-1
1523149999074860,1,-3,-16,1,4,5,0,3
1523149999074860,-3,0,25,-1,-3,-3,-5,0
1523149999074860,0,-1,13,2,0,1,1,1
1523149999074860,0,2,-1,-1,-5,-4,1,-1
1523149999095931,-3,-6,-25,-7,-1,-2,-1,-3
1523149999095931,-1,0,-1,1,1,-1,1,-1
1523149999096639,-1,-2,-8,-1,-3,-4,-4,-1
1523149999096639,-1,5,29,4,2,1,-1,0
1523149999110958,0,2,6,1,1,3,2,2
1523149999110958,-1,-7,-73,-5,-2,0,0,-4
1523149999118960,-2,-2,6,-2,-2,-3,-3,-2
1523149999118960,1,1,9,-1,-4,-3,-2,-2
1523149999134028,0,-1,5,0,2,-2,0,-2
1523149999134028,0,-2,2,-2,2,1,-1,1
1523149999134742,-1,2,0,0,-2,-2,0,-2
1523149999134742,-2,-1,8,0,1,-1,-1,-1
1523149999155797,-3,-1,-14,-1,-2,-2,-4,-3
1523149999155797,-1,0,7,2,0,0,-1,1
1523149999156799,-3,-1,1,-3,-2,0,-3,-2
1523149999156799,-2,-4,-6,-2,-3,-4,-3,-1
1523149999171082,-1,0,-4,0,-4,-6,-3,-2
1523149999171082,0,2,3,1,5,6,4,1
1523149999179252,-1,-3,-4,0,3,3,1,0
1523149999179252,-1,0,3,2,0,0,-1,-1
1523149999194322,-2,-2,-3,-4,-5,-4,-2,-3
1523149999194322,1,0,0,6,-3,-4,-2,0
1523149999194900,0,-2,71,-1,-1,-2,-2,-3
1523149999194900,-1,0,-14,-8,-3,-3,-4,-2
1523149999216347,0,1,-8,9,0,-2,-1,-1
1523149999216347,0,2,15,-2,4,4,3,1
1523149999216958,-1,-2,-24,-1,0,1,1,1
1523149999216958,1,-2,-11,0,-2,-2,-4,-2
1523149999240018,0,1,40,2,2,-1,0,0
1523149999240018,0,0,-18,-2,-3,-3,-2,-1
1523149999240018,-1,1,-15,-4,1,0,-1,-1
1523149999240018,-1,-4,-7,0,0,1,2,0
1523149999254169,1,0,-12,-5,-7,-3,-4,-2
1523149999254169,-1,-3,-8,-2,0,-3,-2,-3
1523149999254169,1,-1,-16,3,2,3,5,2
1523149999254169,-1,1,12,2,0,1,0,0
1523149999276200,0,-1,-7,-2,1,0,-1,-4
1523149999276200,-2,-5,5,-3,-4,-3,-1,0
1523149999284165,-2,0,4,-4,-5,-7,-5,-3
1523149999284165,-1,-2,-14,-2,0,-2,0,0
1523149999299215,-1,-2,4,0,5,4,2,1
1523149999299215,-1,0,-9,0,-2,1,-2,0
1523149999300181,-1,-1,-12,-3,0,0,0,0
1523149999300181,-1,2,11,-4,-4,-1,0,-1
1523149999313216,-2,0,3,-1,-3,-2,-3,-1
1523149999313216,0,-1,-55,0,-1,-2,-1,-2
1523149999314220,-3,0,31,1,2,2,1,0
1523149999314220,-2,-1,12,-7,-2,-1,0,-2
1523149999336280,-1,-3,-20,-2,-4,-3,-3,-1
1523149999336280,0,2,21,-1,-2,-5,-2,-3
1523149999337279,1,-2,-12,-1,-3,0,0,0
1523149999337279,-3,1,-12,3,4,1,1,-1
1523149999350318,-1,-1,5,-1,5,5,3,3
1523149999350318,-3,-2,18,-3,-4,-3,-4,0
1523149999358382,1,1,8,0,-6,-3,-3,-4
1523149999358382,-1,-2,12,-2,-1,0,-2,-1
1523149999373375,-1,-1,-9,-1,-4,-3,-2,-3
1523149999373375,0,-2,7,1,1,0,1,-1
1523149999374377,-1,-2,-11,-2,0,0,-1,1
1523149999374377,0,2,17,1,1,1,0,-1
1523149999396443,-1,-3,-2,-4,-4,-4,-4,-1
1523149999396443,-2,-2,1,1,-1,-1,-2,-1
1523149999396443,-1,0,-37,-2,0,-2,-3,-1
1523149999396443,-2,-2,-17,-4,-1,-2,-2,-2
1523149999410729,0,0,16,1,-1,-1,1,-1
1523149999410729,-1,-1,18,-3,-3,-4,-4,-2
1523149999418497,1,-1,-5,2,4,0,0,0
1523149999418497,0,-1,-11,2,2,2,-1,1
1523149999433788,-1,-2,-7,-2,-1,0,1,-2
1523149999433788,-1,-1,0,-1,-1,-2,-1,-1
1523149999434538,0,0,5,0,-3,-1,-1,-1
1523149999434538,0,-6,-24,-3,-5,-3,-2,-2
1523149999456822,-2,-1,18,1,4,2,1,0
1523149999456822,-1,-2,-4,-1,-3,-2,-1,-2
1523149999456822,-2,-2,-3,-1,-2,0,-1,0
1523149999456822,-1,2,20,1,0,0,-3,-1
1523149999470981,-2,-3,-29,-5,-4,-3,-3,-2
1523149999470981,-1,0,20,-2,-2,-2,-2,-2
1523149999479003,0,-1,-9,0,-2,-3,-1,-2
1523149999479003,-2,-3,18,-2,0,0,0,-2
1523149999493954,-1,0,7,2,1,1,1,-1
1523149999493954,-2,0,-3,-1,0,1,0,-1
1523149999494699,-3,-2,2,-4,-3,-3,-1,-2
1523149999494699,-2,-2,-11,-1,-1,-3,-1,-2
1523149999516985,-3,-1,-12,-2,-2,-1,0,0
1523149999516985,0,0,9,0,-2,-2,-1,-2
1523149999517763,-2,0,-2,1,1,-1,-1,-1
1523149999517763,1,2,10,5,3,5,3,0
1523149999530843,-2,-4,-14,-6,-2,-2,-3,-3
1523149999530843,-2,-2,-5,-2,-3,-1,-3,-2
1523149999538873,0,1,16,-1,-1,-1,-3,0
1523149999538873,-2,0,-28,1,-1,-1,0,-1
1523149999553858,1,1,4,-2,-1,-2,0,1
1523149999553858,-1,-3,-2,-1,-1,-2,0,1
1523149999554861,0,-1,-6,-1,4,3,1,0
1523149999554861,0,-1,1,-1,-2,-5,-2,0
1523149999576917,-1,-3,0,-1,-2,-3,-4,-4
1523149999576917,0,-1,1,0,3,3,1,2
1523149999576917,-1,1,-24,-2,-3,-1,-1,-2
1523149999576917,-3,-5,-26,-6,-3,-3,-4,-3
1523149999599984,1,1,13,0,-3,-2,0,-1
1523149999599984,-1,0,1,-3,-1,-1,-2,-1
1523149999599984,-2,-3,11,-1,1,0,1,0
1523149999599984,-1,-1,-8,-1,-3,-2,-2,0
1523149999614018,0,-1,-12,-2,-3,-4,-2,-2
1523149999614018,-1,-1,12,-1,0,0,2,-1
1523149999614018,0,-1,-6,1,2,-1,0,0
1523149999614018,-2,-1,7,-1,1,3,4,1
1523149999636336,-1,-1,-3,-2,0,0,0,1
1523149999636336,-1,-1,-5,-3,-4,-2,-1,-1
1523149999637082,-1,-2,-6,-2,-4,-4,-4,-4
1523149999637082,0,-1,7,-2,-1,-3,-1,-2
1523149999659138,1,2,20,-1,-1,-2,1,-1
1523149999659138,0,1,-4,2,2,3,1,1
1523149999660139,-4,-3,-24,-3,0,0,0,0
1523149999660139,0,2,22,2,-2,-1,0,-1
1523149999674236,-1,-2,-17,2,-1,-1,0,-1
1523149999674236,-1,-1,-10,-2,-3,-5,-4,-3
1523149999674236,-1,0,28,0,-2,-1,-1,1
1523149999674236,0,-3,-39,-3,-3,-2,-3,-2
1523149999696240,0,0,5,1,0,1,1,0
1523149999696240,0,-1,-17,-1,1,0,-1,-2
1523149999697236,0,0,14,3,0,-1,2,0
1523149999697236,-1,0,9,0,-2,-1,-1,0
1523149999719549,-3,-1,-5,-4,-4,-4,-5,-2
1523149999719549,-1,0,-4,0,-3,-2,-4,-1
1523149999720299,0,2,-2,-1,2,2,0,-1
1523149999720299,-1,-1,6,-1,2,1,2,0
1523149999734417,-2,0,21,0,-2,0,-2,-1
1523149999734417,-1,-5,-16,-3,-1,-1,-1,0
1523149999734417,0,-1,6,-2,-4,-4,-5,-1
1523149999734417,-2,-2,2,-3,-2,-4,-3,-2
1523149999764417,0,-1,-2,1,3,1,0,0
1523149999764417,-1,0,2,0,1,2,2,0
1523149999765419,-2,-1,4,-2,-1,-2,-2,-1
1523149999765419,-2,-2,-9,-1,0,-2,-2,-3
1523149999779457,-2,-3,-23,-3,-2,-3,-2,-2
1523149999779457,0,0,4,0,3,1,2,-2
1523149999780458,-1,-1,-8,-1,1,0,0,0
1523149999780458,-1,-1,31,0,-3,-3,-3,-1
1523149999794792,0,-3,-49,-5,-2,-4,-3,-3
1523149999794792,-1,0,-4,0,0,0,0,0
1523149999794792,-1,-2,19,0,1,0,-1,-2
1523149999794792,1,1,-5,-1,0,0,0,0
1523149999816787,-1,-1,0,3,-2,1,0,-1
1523149999816787,-2,0,21,-1,-2,-4,-3,-2
1523149999816787,-1,-3,-25,-2,-2,0,0,-1
1523149999816787,1,0,-4,0,1,0,2,0
1523149999839617,-1,0,11,-1,-1,-2,-1,-1
1523149999839617,0,-1,-6,-1,-2,-2,-1,-2
1523149999840618,-1,0,-1,-4,-4,-4,-3,0
1523149999840618,-2,-1,32,0,-1,-3,-2,-2
1523149999853952,-2,-3,-17,2,4,6,4,1
1523149999853952,-2,0,4,0,2,3,0,0
1523149999854659,-1,0,3,-2,-1,-1,0,-2
1523149999854659,0,0,-15,-2,-3,-3,-2,-2
1523149999876951,-1,-2,-2,-3,-1,-2,0,0
1523149999876951,-2,1,60,4,-3,-2,-1,-2
1523149999876951,-1,0,-5,-3,-3,0,0,-2
1523149999876951,-3,-6,-24,-3,-1,-1,-1,-2
1523149999900020,-1,0,10,0,-1,0,-1,-1
1523149999900020,0,-2,-13,-1,-1,-1,-2,-2
1523149999900020,-2,-1,3,-1,-1,-2,-1,-2
1523149999900020,-2,0,0,0,-2,-2,-2,-3
1523149999913817,1,2,11,1,5,1,-1,1
1523149999913817,-3,-2,-18,2,2,5,3,2
1523149999914818,-3,-2,-8,-1,-2,-1,-2,-2
1523149999914818,1,1,-3,-2,-3,-1,0,0
1523149999936092,-1,-1,1,1,-3,-4,-3,-3
1523149999936092,-1,0,-6,0,-2,-2,-2,-1
1523149999936877,1,-2,4,-1,-2,-2,-3,-1
1523149999936877,0,1,2,1,1,1,1,2
1523149999960180,-1,-2,19,-1,0,1,1,1
1523149999960180,0,-4,-10,-5,-4,-3,-2,-1
1523149999960180,-2,-2,-7,0,1,-2,-1,-2
1523149999960180,-2,0,1,-2,-2,-3,0,-1
1523149999974273,0,2,-5,-1,0,0,1,-2
1523149999974273,0,-1,11,0,2,2,3,2
1523149999974980,-1,0,-38,-3,-3,-1,-1,-2
1523149999974980,0,-1,-2,-3,0,-1,-4,0
1523149999996032,-2,0,1,-2,-2,-2,-4,-2
1523149999996032,-1,-2,-17,-4,-3,-5,-1,-3
1523149999997037,1,0,4,2,1,0,0,0
1523149999997037,-1,0,4,0,-1,1,-1,-2
1523150000019310,-1,-2,-9,-2,-3,-2,-2,-1
1523150000019310,-1,1,-4,-3,-4,-5,-4,-2
1523150000020098,0,0,15,-3,-2,-3,-1,-1
1523150000020098,-1,-3,-15,4,3,5,4,2
1523150000034351,-2,-1,8,-1,-4,-3,-2,-2
1523150000034351,-2,-1,-15,0,-3,-2,-4,-3
1523150000034351,-3,-1,4,4,4,3,4,2
1523150000034351,0,-2,1,0,1,2,1,2
1523150000056455,-1,-2,15,-1,-1,-1,-1,0
1523150000056455,-2,0,-39,-3,-3,-3,-3,-2
1523150000057201,-1,-4,5,-3,-4,-4,-3,-1
1523150000057201,-1,1,19,-1,-2,-2,-3,-2
1523150000079254,1,1,5,2,2,0,2,0
1523150000079254,-2,-4,-1,-3,-2,0,0,0
1523150000080256,-2,-2,-4,-1,0,-1,-3,-2
1523150000080256,-1,1,-21,-1,2,1,0,-2
1523150000094337,-1,-3,-1,-5,-1,-1,-1,-1
1523150000094337,0,1,13,0,-2,-1,-1,-3
1523150000094337,-1,-4,-6,-2,-2,-1,-1,-2
1523150000094337,0,-1,0,-3,-2,-3,-3,-1
1523150000116581,-2,1,-2,3,5,1,2,1
1523150000116581,1,0,7,1,3,3,4,0
1523150000117357,0,0,1,-3,-3,-2,-2,-1
1523150000117357,-2,-3,3,-3,-7,-6,-5,-3
1523150000139667,-1,-1,-15,-2,0,-1,1,0
1523150000139667,0,2,19,-1,1,0,0,0
1523150000140418,-2,0,-1,-1,-2,-1,-1,-2
1523150000140418,-1,0,-2,1,1,1,1,0
1523150000153687,-1,-3,-9,-1,-2,1,0,-1
1523150000153687,-2,-2,13,-4,-3,-4,-2,0
1523150000154458,-1,-3,3,-3,-3,-4,-1,-2
1523150000154458,-1,-1,10,0,-1,-1,-2,0
1523150000176736,-2,-1,-5,1,-1,-2,-1,0
1523150000176736,-1,-3,-30,-6,-1,0,-2,-2
1523150000177517,1,0,11,1,1,0,-2,-1
1523150000177517,-1,-2,-1,-1,-1,-2,-3,-1
1523150000199823,-1,-1,-8,-1,-2,-2,-2,1
1523150000199823,0,-1,21,1,1,1,0,0
1523150000200577,-1,1,-3,1,-1,1,1,0
1523150000200577,-3,-5,-12,-3,-3,-2,0,-2
1523150000212612,0,0,2,-3,-2,1,0,-2
1523150000212612,-2,1,-5,2,-1,-1,0,1
1523150000221864,-1,1,-3,-1,1,1,-2,-1
1523150000221864,0,4,18,-1,-2,-2,-3,-2
1523150000236854,-2,-4,-1,-4,-2,-2,-1,-1
1523150000236854,1,-1,-12,-1,1,0,1,1
1523150000236854,0,1,29,3,0,0,1,-2
1523150000236854,-1,-5,-23,-3,-2,-2,-1,-1
1523150000259998,-1,-2,3,-1,0,0,-3,-1
1523150000259998,0,-2,-6,-1,1,-1,-2,-1
1523150000259998,0,0,-5,0,-2,-1,0,0
1523150000259998,0,0,16,0,2,3,2,-1
1523150000272771,-1,-1,2,-1,-3,-2,-1,-1
1523150000272771,1,-3,16,2,-4,-4,-4,-1
1523150000281793,-1,-1,-29,-2,1,1,-2,0
1523150000281793,-2,-3,-2,1,2,2,1,0
1523150000295831,1,0,-4,-5,-3,0,-2,-1
1523150000295831,-1,-1,6,-1,-1,-4,-2,-2
1523150000296832,-1,-2,-2,-3,-1,-1,0,1
1523150000296832,-1,-2,-19,0,1,0,-1,1
1523150000319117,0,2,16,-2,-2,-2,-2,-3
1523150000319117,-1,-2,-12,-2,0,-4,-1,-2
1523150000319895,-1,-1,7,-1,0,2,3,1
1523150000319895,0,1,-22,0,-2,-1,-2,-1
1523150000333182,-1,0,16,1,-1,-2,-3,-2
1523150000333182,-1,1,-8,-3,-3,-3,-3,-3
1523150000341206,-1,-1,-6,-2,-1,-1,-1,0
1523150000341206,0,2,23,1,-2,1,0,0
1523150000356263,-2,-2,-13,0,-2,-3,-2,0
1523150000356263,-1,-2,10,0,1,1,-1,-1
1523150000356996,-1,-1,-14,-2,-1,0,1,1
1523150000356996,0,-2,-17,-2,-2,-3,-2,-2
1523150000379051,1,3,-1,0,-2,-1,-1,-2
1523150000379051,-2,-2,-10,-2,-2,0,0,-1
1523150000380053,0,0,6,4,-3,-2,-1,-1
1523150000380053,-3,-4,-26,1,-1,-4,-3,-1
1523150000393382,-2,-5,7,-6,-1,0,-1,0
1523150000393382,0,-1,-4,2,1,1,1,0
1523150000401359,0,1,-2,-3,-2,0,-2,-2
1523150000401359,-1,1,10,0,-3,-3,-2,-1
1523150000416398,0,0,5,4,0,1,0,-2
1523150000416398,-1,-3,-32,-6,1,1,1,1
1523150000417153,-1,-1,23,1,-1,-2,-3,-2
1523150000417153,-2,0,12,-2,-4,-4,-1,-3
1523150000439486,0,-2,4,0,0,-2,-1,-1
1523150000439486,-2,0,-1,1,2,2,1,1
1523150000440216,1,-1,-10,-1,-1,-1,0,-1
1523150000440216,0,-1,-12,-1,-1,1,0,0
1523150000453529,0,2,19,0,-2,-1,-1,-1
1523150000453529,-3,-6,-21,-4,-5,-3,-3,-3
1523150000461561,-1,-2,1,-2,0,-1,-1,-2
1523150000461561,-1,1,4,0,-2,-3,-2,1
1523150000476548,-1,-3,-10,0,0,0,0,0
1523150000476548,-1,2,14,2,-1,0,2,0
1523150000477314,-3,-2,6,-1,-3,-3,-1,-3
1523150000477314,-1,0,2,-5,-1,-3,-1,-1
1523150000498697,-2,-1,-14,-2,1,-1,-1,-1
1523150000498697,-1,2,15,3,-1,-1,-1,0
1523150000499375,-2,-1,-20,-2,-1,-2,-2,-1
1523150000499375,0,-2,32,-1,-1,-2,-1,-2
1523150000513411,-1,-1,-8,1,1,-1,0,0
1523150000513411,1,-1,0,-4,-2,1,2,-1
1523150000521728,-2,-3,6,-3,-3,-1,0,-1
1523150000521728,0,2,21,1,0,0,0,-1
1523150000536678,-1,-8,-60,-8,-4,-5,-2,-4
1523150000536678,0,1,9,1,-2,-3,-3,-2
1523150000536678,-1,-1,12,-2,-1,1,-1,-3
1523150000536678,-1,-5,-15,0,-1,2,0,-2
1523150000558799,-2,0,13,1,2,1,-1,-2
1523150000558799,0,0,2,3,3,1,1,1
1523150000559536,1,-1,-13,-5,-5,-7,-4,-2
1523150000559536,0,-2,-11,-1,1,1,0,2
1523150000581676,-1,-1,2,-1,-2,-1,-1,1
1523150000581676,0,-4,3,-3,-2,-3,-3,0
1523150000582594,-1,1,23,2,1,2,2,1
1523150000582594,0,-1,-19,-1,-2,-1,-1,-1
1523150000596631,1,-1,2,0,-1,0,-2,-1
1523150000596631,0,-1,-4,-2,-2,-3,-2,-3
1523150000596631,-1,1,-5,-1,0,-1,0,1
1523150000596631,0,6,18,1,-3,-1,-1,-2
1523150000627011,-2,-8,-30,1,1,0,2,2
1523150000627011,-4,-6,7,-4,-4,-2,-3,-4
1523150000627714,0,-1,-14,-1,-1,0,-1,0
1523150000627714,0,-2,14,-3,1,2,0,-1
1523150000650009,2,6,18,5,0,0,-1,0
1523150000650009,0,2,-21,-1,0,-2,-3,-1
1523150000650009,-4,-4,8,-2,-4,-3,-3,-2
1523150000650009,-2,-1,-11,-2,0,-3,-1,-1
1523150000655789,0,0,4,-6,-2,-2,0,-3
1523150000655789,-2,0,-7,-1,3,3,1,0
1523150000656791,-2,1,16,4,2,1,0,0
1523150000656791,-1,0,-23,-1,0,1,-1,-1
1523150000678851,-2,0,32,-5,-3,-2,0,0
1523150000678851,0,1,12,-1,-7,-6,-3,-2
1523150000679852,0,0,-11,-1,1,-4,-2,-2
1523150000679852,0,-1,-2,3,4,3,0,1
1523150000702223,-1,1,-5,1,0,3,1,0
1523150000702223,0,0,3,3,0,2,1,0
1523150000702915,-4,-3,-13,-4,-3,-2,-4,-3
1523150000702915,0,-3,6,-1,-2,-2,-1,-1
1523150000715949,0,-1,-11,-1,-3,-4,-5,-1
1523150000715949,1,3,3,-1,1,0,0,0
1523150000716952,0,-3,45,-5,4,2,3,2
1523150000716952,-2,-2,1,35,-2,-1,-2,-2
1523150000739278,0,3,-5,-51,-3,-4,-2,0
1523150000739278,-2,-6,-14,-3,-4,-3,-1,-2
1523150000739278,0,1,2,2,1,-1,1,-2
1523150000739278,0,-1,-6,6,0,-1,1,-1
1523150000762073,-2,0,5,6,-2,-3,0,-2
1523150000762073,-3,-1,8,4,0,-1,-1,-1
1523150000763072,-2,-3,-65,-3,1,0,-1,1
1523150000763072,-3,0,-1,-13,-1,0,-1,0
1523150000776389,-1,-1,-5,11,-3,-1,-1,-2
1523150000776389,-2,-2,1,-11,-4,-5,-3,-2
1523150000777110,-1,-1,4,7,-1,-1,-3,-3
1523150000777110,-1,-2,-6,-6,1,1,1,-1
1523150000799403,-1,-1,3,5,3,2,0,1
1523150000799403,0,1,16,4,0,0,-1,-2
1523150000799403,-1,-4,-38,-4,-5,-3,-1,-1
1523150000799403,-1,0,15,-11,-1,-2,-1,-3
1523150000822495,-1,-1,-10,28,-1,-2,0,0
1523150000822495,0,-5,-13,-30,-4,-5,-1,-2
1523150000822495,-2,-3,-37,4,3,2,2,0
1523150000822495,0,0,-5,-8,0,1,1,0
1523150000836429,1,-2,5,15,2,0,-1,-1
1523150000836429,-1,1,0,23,-1,-1,-1,0
1523150000837279,-1,-1,-15,-47,-10,-7,-5,-3
1523150000837279,-3,-2,-1,8,1,0,1,0
1523150000859409,1,-1,17,4,3,2,0,-1
1523150000859409,0,-1,-17,-35,-4,-1,-1,1
1523150000859409,0,-1,14,13,0,2,-1,-1
1523150000859409,-3,0,2,-15,-6,-3,-1,-1
1523150000882652,-1,1,2,-4,-1,-2,0,-1
1523150000882652,0,1,-2,9,1,1,0,-1
1523150000882652,0,2,26,19,-3,-4,-2,0
1523150000882652,-1,-2,-12,-36,-5,-5,-2,-3
1523150000904738,-2,-2,-6,1,0,-2,-1,-2
1523150000904738,0,-1,8,8,5,2,4,1
1523150000905455,0,1,-16,-1,-2,1,-1,-2
1523150000905455,-1,-1,5,8,-2,-3,-4,-2
1523150000918733,-2,-2,12,-12,-6,-5,-4,-3
1523150000918733,-2,0,8,2,2,1,1,1
1523150000919490,0,2,11,10,7,8,5,4
1523150000919490,-1,-1,5,0,1,2,-1,0
1523150000942551,-5,-7,-44,-9,-7,-1,-3,-2
1523150000942551,1,0,1,5,-3,-2,-3,-3
1523150000942551,-2,-2,12,0,-2,-4,0,-2
1523150000942551,1,-1,5,14,0,-1,-2,-2
1523150000956858,2,1,-20,-27,1,1,2,1
1523150000956858,-4,-3,37,0,-2,-2,-3,-2
1523150000956858,-3,-2,-19,0,-1,-2,-1,-2
1523150000956858,-1,1,22,-1,-1,-1,-1,0
1523150000978648,-1,-1,-9,12,2,-1,0,-1
1523150000978648,-1,1,10,3,-2,-1,-3,-2
1523150000979649,-1,-1,7,7,-2,-2,0,-2
1523150000979649,-1,-1,14,-21,-1,1,0,0
1523150001001707,-1,-4,-11,-1,-2,0,0,0
1523150001001707,0,-1,-1,-6,0,1,0,-1
1523150001002711,-1,-3,-17,6,-1,-1,-3,-1
1523150001002711,-1,1,13,-7,1,-1,0,0
1523150001016901,0,0,6,44,2,-2,-3,-3
1523150001016901,0,-1,-3,-57,-8,-5,1,0
1523150001016901,0,-1,-27,5,-1,-3,-2,-1
1523150001016901,-1,-2,14,2,0,0,-2,-1
1523150001039064,-1,1,6,-6,2,0,2,-1
1523150001039064,-1,-1,-19,24,3,0,0,1
1523150001039810,2,3,31,-6,-1,-1,0,1
1523150001039810,0,-7,-47,-3,-2,-1,-1,0
1523150001061870,-1,1,52,-5,2,0,-1,-1
1523150001061870,0,-3,-16,13,0,-2,-2,-1
1523150001062873,-1,2,22,-13,-3,0,0,0
1523150001062873,0,-3,-31,6,-1,-3,-2,0
1523150001076176,1,2,9,0,1,2,0,-1
1523150001076176,-2,-1,-29,-3,-4,-1,-5,3
1523150001084204,-3,-2,25,0,1,0,6,-4
1523150001084204,1,-1,-8,11,2,1,3,1
1523150001099239,1,-1,-25,-13,-5,-2,1,1
1523150001099239,-1,0,14,3,-1,-2,-2,-1
1523150001099239,-2,-3,-7,-1,-1,-3,-4,0
1523150001099239,-2,-2,1,6,-1,-1,-1,-3
1523150001122333,-1,-4,-12,-6,0,0,0,-1
1523150001122333,1,-2,6,3,2,1,3,-4
1523150001123033,1,2,11,-2,-3,-1,-3,-2
1523150001123033,-3,-5,-69,-9,-3,-3,-2,-2
1523150001135367,-1,0,34,-3,-1,-1,-1,-1
1523150001135367,-2,2,16,8,-1,0,-1,-1
1523150001151104,0,1,-29,-1,1,0,-1,1
1523150001151104,-2,-2,5,-1,-3,-2,-2,1
1523150001159126,-2,-3,-2,-4,-3,-2,-3,-1
1523150001159126,-1,-2,-11,2,-1,-1,-1,-1
1523150001159126,2,0,1,0,2,2,1,0
1523150001159126,-1,0,22,1,1,3,1,2
1523150001183190,-3,-2,-29,-4,-2,-1,-1,-1
1523150001183190,-1,0,9,-6,1,1,1,-1
1523150001183190,0,-4,1,7,-1,0,-2,-1
1523150001183190,2,0,15,0,-1,-2,-2,-1
1523150001195224,-2,-5,-8,-6,-2,-3,-1,-4
1523150001195224,-2,-3,-19,1,0,-1,-1,0
1523150001204624,-1,2,-8,-6,-2,-3,-2,-3
1523150001204624,0,0,16,1,0,-2,-3,-3
1523150001218284,0,0,-8,1,3,2,1,2
1523150001218284,-1,-1,5,2,-3,-3,-2,-3
1523150001219287,0,-1,-1,-3,-2,-3,-3,-2
1523150001219287,-2,-1,4,4,4,2,3,-1
1523150001242743,0,0,6,0,0,2,-1,1
1523150001242743,0,-2,-13,2,0,0,1,-1
1523150001242743,0,-4,5,-5,-1,-2,-4,0
1523150001242743,0,0,1,-4,-7,-4,-3,-3
1523150001256385,1,0,-3,-1,0,-1,0,-2
1523150001256385,-1,-2,5,5,6,4,3,2
1523150001264433,-4,1,21,-1,-1,0,0,0
1523150001264433,-1,-1,8,-1,-1,-3,0,-1
1523150001278445,-2,-2,4,0,-2,-3,-4,-2
1523150001278445,-2,-1,-9,-1,-3,-1,-2,-2
1523150001279448,0,-2,0,-3,-2,-1,0,0
1523150001279448,-2,2,5,0,-1,-2,-3,-1
1523150001301505,0,0,4,3,-1,-3,0,-1
1523150001301505,-1,-3,-30,-3,2,2,2,0
1523150001303511,-1,-3,45,-2,-2,-1,0,-1
1523150001303511,-1,-1,-12,0,-2,0,-1,-3
1523150001315971,1,-1,-6,-2,-2,-2,0,-1
1523150001315971,0,-1,4,1,1,0,1,0
1523150001323738,0,-1,-22,-1,0,1,2,1
1523150001323738,-2,0,-5,-4,0,-2,0,0
1523150001339016,-2,-3,-21,-4,-2,-2,-3,-2
1523150001339016,0,-3,13,0,-6,-4,-4,-2
1523150001339608,0,1,2,1,0,0,0,0
1523150001339608,-2,-6,-17,-2,1,0,0,0
1523150001361669,1,2,12,4,2,1,0,1
1523150001361669,-1,-1,-43,-1,0,-1,1,-1
1523150001362671,-1,1,4,-4,-1,-1,-2,-2
1523150001362671,0,2,19,2,-3,0,0,-1
1523150001375943,-2,-4,-5,-7,-2,0,-1,-1
1523150001375943,0,0,9,8,-3,-4,-3,-1
1523150001384018,-2,-1,0,-2,-2,-1,-3,-2
1523150001384018,-1,0,-8,2,1,1,1,0
1523150001398772,1,-2,-7,-9,-3,-1,1,1
1523150001398772,-1,2,24,-2,-1,0,-1,-1
1523150001399769,-1,-3,-21,-2,-1,-2,0,0
1523150001399769,-1,-1,3,0,-5,-4,-5,-2
1523150001422064,0,3,17,0,-2,-2,-3,-2
1523150001422064,-2,-3,-16,-1,3,2,0,-1
1523150001422831,-1,-6,-5,0,1,4,3,2
1523150001422831,-1,2,16,-3,-2,-1,-2,0
1523150001436007,-2,-1,8,2,-2,-2,1,-1
1523150001436007,0,0,-5,-7,-5,-6,-4,-4
1523150001444175,-1,-4,-7,-1,-3,-3,-1,-1
1523150001444175,1,-2,-6,0,4,3,3,2
1523150001459222,-2,1,-15,-2,0,2,0,0
1523150001459222,-1,-1,14,3,-1,0,1,1
1523150001459929,-1,1,-20,-4,-1,-4,-2,-3
1523150001459929,0,-3,-8,-2,-3,-3,-2,-4
1523150001482212,-2,-1,6,0,0,-3,-2,-2
1523150001482212,2,0,-10,-3,-1,0,-2,0
1523150001482992,-3,-6,-21,-2,0,-2,-1,-2
1523150001482992,-2,-1,25,3,2,3,2,2
1523150001504318,-2,0,8,7,4,3,3,-1
1523150001504318,-2,-2,-5,-4,-2,-3,-1,-1
1523150001505049,1,1,9,-3,-4,-4,-6,-2
1523150001505049,-2,-4,-12,-2,-2,-4,-1,-3
1523150001519306,0,-2,-31,-3,-2,0,0,0
1523150001519306,-3,-2,39,0,-1,-1,-1,-1
1523150001519306,-2,2,2,3,0,2,1,1
1523150001519306,-1,-3,-40,-6,0,-2,-4,-2
1523150001542397,-2,0,8,0,-2,0,-2,-1
1523150001542397,-1,-1,-8,-1,-2,-1,-1,-1
1523150001543151,-4,-2,-21,-2,0,-2,-1,-3
1523150001543151,0,0,6,0,-1,-1,0,-1
1523150001564503,0,-2,0,0,0,-1,2,0
1523150001564503,2,3,7,3,2,1,-1,1
1523150001565209,-1,-5,-3,-6,-3,-2,-2,0
1523150001565209,0,-1,-1,-4,-4,-4,-4,-2
1523150001578250,0,0,4,1,2,0,0,-1
1523150001578250,0,0,1,2,2,4,3,0
1523150001579245,-1,1,17,1,0,0,0,-2
1523150001579245,-2,-2,-8,-1,-2,-2,0,-3
1523150001602308,-1,-2,-5,-4,-4,-2,-2,-2
1523150001602308,0,-1,11,-1,-2,-2,-2,-1
1523150001602308,-1,2,24,1,1,-1,-1,-1
1523150001602308,-2,-1,-29,0,2,1,-1,-1
1523150001624653,-1,-1,22,-1,-2,-3,-2,1
1523150001624653,-1,-3,-21,-1,-2,-1,0,-1
1523150001625374,0,-2,24,2,-1,1,1,-1
1523150001625374,0,0,4,-3,-2,-1,-1,1
1523150001639405,-2,0,-13,2,-2,-2,-1,-2
1523150001639405,0,-3,-4,-1,5,4,1,1
1523150001639405,0,-1,11,1,0,0,1,0
1523150001639405,-3,-2,4,-3,-4,-2,-1,-2
1523150001661469,-1,-2,-18,-3,-1,-1,-1,0
1523150001661469,0,0,8,-2,-4,-3,-2,-3
1523150001662467,-2,-1,-17,-1,-2,-3,-2,-1
1523150001662467,-1,-1,17,-1,-2,1,0,0
1523150001684574,-1,-1,8,-1,-1,-2,-1,0
1523150001684574,-1,0,-8,-1,0,-1,-1,-1
1523150001685528,0,2,7,-2,-1,0,-1,-2
1523150001685528,0,-3,-16,1,-1,-4,-2,1
1523150001698886,-2,-1,-43,-3,-1,-3,-3,-3
1523150001698886,-2,-3,-1,-1,-1,-1,-1,-1
1523150001699565,-2,1,5,1,0,0,-1,0
1523150001699565,-2,-2,27,-2,0,1,0,-2
1523150001721963,0,-1,-3,-1,0,1,0,-1
1523150001721963,-1,-1,7,-1,-2,-3,-2,-2
1523150001722626,1,-3,-26,0,-1,0,-1,0
1523150001722626,0,1,-2,0,-2,1,1,-1
1523150001744686,-1,-2,34,-1,-2,-3,-2,-1
1523150001744686,-2,3,6,-2,-7,-5,-3,-3
1523150001744686,1,-4,-13,-2,-1,-1,-1,1
1523150001744686,1,1,9,-1,2,2,1,1
1523150001759052,0,-1,3,1,2,5,3,2
1523150001759052,-1,0,-10,1,1,0,0,-1
1523150001759726,-3,0,-1,-3,-3,0,-2,-3
1523150001759726,-1,-2,-11,-2,-4,-3,-3,-2
1523150001781945,1,0,-3,-3,-5,-4,-5,-1
1523150001781945,1,-2,9,-2,-1,-3,-1,-2
1523150001782785,1,1,1,2,2,2,1,-1
1523150001782785,-1,-1,-35,-1,0,0,0,1
1523150001805031,-1,-1,34,2,-2,1,1,-1
1523150001805031,-2,-5,-22,-5,-5,-2,0,0
1523150001805031,1,0,-1,-4,-4,-4,-2,-1
1523150001805031,-2,-2,18,1,-3,-1,-1,-1
1523150001819240,0,-1,1,4,2,0,0,-1
1523150001819240,-1,0,0,-3,1,2,-1,-2
1523150001819885,-1,0,-7,0,1,1,2,0
1523150001819885,-1,-2,47,-3,-2,-3,-1,0
1523150001842279,-2,1,-8,-5,-6,-8,-11,-6
1523150001842279,1,1,8,2,0,1,4,6
1523150001842948,2,-1,-3,-2,-1,-1,-1,0
1523150001842948,-2,1,-3,3,0,2,2,-2
1523150001865004,-1,1,6,-1,-1,0,-1,-1
1523150001865004,-1,-2,-12,-1,-3,-2,-3,0
1523150001865004,-1,-2,-15,-1,-1,-3,-3,-1
1523150001865004,1,2,24,1,-1,-2,-2,0
1523150001879136,-3,-7,-35,-2,0,0,1,-1
1523150001879136,-1,1,22,-1,-1,2,0,-2
1523150001880044,-2,-1,-11,-1,-3,-1,0,-1
1523150001880044,-2,-1,-12,-1,1,-1,-1,-1
1523150001902429,0,1,-3,0,1,2,1,0
1523150001902429,-3,-2,-2,0,-1,-3,-3,-4
1523150001903106,-2,-2,10,-1,-4,-4,-4,-4
1523150001903106,1,1,-2,0,1,-1,1,0
1523150001924529,0,-4,-22,-4,1,0,1,0
1523150001924529,-2,-7,-23,-3,-3,-3,-3,-1
1523150001926169,-1,1,15,1,-1,-1,-2,0
1523150001926169,-2,-2,-15,-2,-1,0,2,-1
1523150001938433,0,0,3,2,1,0,1,2
1523150001938433,0,1,20,-3,-2,0,-1,0
1523150001947224,-2,-2,-23,-2,0,-3,0,-2
1523150001947224,1,-2,-5,-4,-3,-3,-3,-1
1523150001962441,-1,0,7,2,2,1,-1,-1
1523150001962441,-1,1,4,-3,0,-2,-2,0
1523150001963267,-2,-1,4,-1,-1,-1,1,-2
1523150001963267,0,-2,7,1,2,2,-1,0
1523150001984516,0,2,24,1,-2,0,0,-2
1523150001984516,-3,-5,-58,-4,-1,-3,-2,-4
1523150001986327,-2,-3,7,-3,-1,-1,0,2
1523150001986327,-1,-2,-8,0,-1,-2,-3,-1
1523150001998500,0,-1,-14,-2,-2,-1,1,-1
1523150001998500,-1,0,29,4,-1,0,2,0
1523150002014404,0,-2,-24,-1,-2,-3,0,-3
1523150002014404,-1,-4,22,-1,-4,-3,-3,-4
1523150002022504,-1,-1,-3,0,1,2,2,0
1523150002022504,-1,-2,29,-2,-1,-1,0,-1
1523150002023427,-1,-1,6,0,3,4,0,0
1523150002023427,-2,2,2,-1,-3,-1,0,-1
1523150002044484,-3,0,6,-2,-4,-2,-1,-2
1523150002044484,-1,-1,0,2,0,-1,-2,-2
1523150002045489,-1,-1,-9,-3,-3,-3,-1,0
1523150002045489,0,-2,-5,0,1,1,0,0
1523150002058587,-1,-1,4,1,0,1,0,0
1523150002058587,1,1,-9,-1,0,0,0,-1
1523150002066813,-1,-3,3,1,-2,-2,-2,-2
1523150002066813,-1,0,-24,1,1,1,2,0
1523150002082668,0,-1,-5,-3,-4,-6,-3,-2
1523150002082668,-1,0,22,1,-1,-1,-1,-2
1523150002083588,0,1,-10,-1,3,1,-1,1
1523150002083588,-2,-2,4,-2,-4,-3,1,-2
1523150002104937,0,0,12,-1,-4,-3,-1,0
1523150002104937,0,-2,-18,-3,-2,-1,-1,-1
1523150002105649,0,0,10,0,-2,-2,-1,-4
1523150002105649,-1,-1,-10,0,0,1,1,2
1523150002117679,0,-1,-9,0,0,-2,-2,-1
1523150002117679,0,-1,5,-2,-2,-1,0,1
1523150002126897,-1,-3,-1,-1,1,0,0,1
1523150002126897,0,0,-7,-1,-1,0,0,-1
1523150002142010,-3,-1,10,0,-2,-3,-1,-2
1523150002142010,-1,-1,-10,-1,0,0,-2,-1
1523150002143748,1,0,-4,-1,-1,-1,0,-2
1523150002143748,-1,0,-9,-1,-1,-3,-3,-2
1523150002164960,-2,-6,44,-3,-3,-1,-1,-2
1523150002164960,-3,-1,-13,0,-2,0,1,0
1523150002165808,0,0,-8,0,-1,-1,0,0
1523150002165808,-1,1,1,-1,-2,-1,-1,-2
1523150002177840,-2,-2,-5,1,2,2,1,-1
1523150002177840,-1,-1,-5,0,-1,0,0,-1
1523150002186862,-2,-1,18,-1,-2,-1,-2,-1
1523150002186862,-2,-1,-5,-1,1,-1,-2,0
1523150002202107,0,0,3,-3,-1,2,1,2
1523150002202107,0,-1,-8,-2,-1,-1,-2,-3
1523150002203908,-2,-3,30,-5,-3,-4,-4,0
1523150002203908,-1,-2,-7,0,-1,1,-3,-2
1523150002225029,1,0,-7,-2,-1,-2,0,-2
1523150002225029,1,0,-24,0,0,-2,-2,-1
1523150002225970,-1,0,-2,0,-2,-1,-2,-3
1523150002225970,-2,-1,12,-2,-3,-3,-4,-2
1523150002238274,1,-1,-14,1,0,-2,-2,-2
1523150002238274,0,0,11,3,3,2,3,3
1523150002247023,-1,-2,-13,-1,0,0,0,-1
1523150002247023,0,-3,0,-1,-2,-2,-1,0
1523150002262064,-4,2,-6,-1,-2,-1,-2,-2
1523150002262064,-1,-2,3,-3,0,-3,-4,-2
1523150002264067,-3,0,5,0,0,1,1,0
1523150002264067,-1,-2,-9,0,-1,0,-1,-2
1523150002292409,-1,-1,-5,-1,-4,-4,-4,-3
1523150002292409,-2,-2,-3,-1,0,-3,-3,-2
1523150002293146,0,2,26,3,2,2,1,2
1523150002293146,-2,-1,3,-5,-2,-1,-3,-2
1523150002298419,0,2,18,1,0,-1,-2,1
1523150002298419,-2,-2,-11,-2,0,1,0,0
1523150002307186,0,-3,-13,-1,-2,-1,-1,-3
1523150002307186,-2,0,1,-1,-1,1,0,-2
1523150002322521,-2,-3,-4,-1,-1,-2,0,-2
1523150002322521,1,0,7,0,-4,-3,-2,-1
1523150002323226,-1,-1,-10,0,-1,-3,-2,-2
1523150002323226,1,4,13,1,0,-1,1,0
1523150002344283,-2,-6,-62,-5,1,0,-2,-1
1523150002344283,-3,-1,81,1,0,-1,1,-1
1523150002346289,-2,-2,-48,-4,0,2,-1,0
1523150002346289,-1,-5,-13,-2,-1,-3,-2,-2
1523150002358612,0,0,6,-2,-1,-2,-1,-2
1523150002358612,-1,-1,-21,-1,-4,-3,-2,-1
1523150002367345,2,0,12,-1,-2,-1,-1,-2
1523150002367345,-2,-2,1,1,-1,-1,0,-1
1523150002382595,0,-1,-6,-3,-2,-3,-2,-1
1523150002382595,0,-1,0,-1,-1,0,0,-1
1523150002383386,-2,0,8,3,2,1,3,2
1523150002383386,0,-2,13,-1,-2,1,-1,0
1523150002404748,0,2,3,0,1,3,-1,-2
1523150002404748,-1,-2,-6,-1,0,-1,-1,-2
1523150002405447,0,-2,-2,-3,-4,-2,-4,-1
1523150002405447,0,-1,-10,-1,-2,-2,-1,-1
1523150002426625,-1,0,8,-1,-4,-3,-3,0
1523150002426625,0,-3,-17,-2,-1,0,0,-1
1523150002428505,-1,0,-5,0,1,0,-1,-1
1523150002428505,-1,0,2,-2,0,-1,1,-2
1523150002441818,1,1,0,0,0,2,1,0
1523150002441818,-1,-6,12,1,0,1,-3,-1
1523150002448792,-3,-2,38,-1,-3,-2,-2,-2
1523150002448792,1,1,-32,-3,-2,-3,-1,-2
1523150002464854,-2,-3,4,-2,-1,-2,-2,-2
1523150002464854,-2,0,-17,-1,0,0,-1,2
1523150002465604,0,-1,-15,0,-1,-1,-2,-1
1523150002465604,0,-1,-3,-4,-3,-2,-2,0
1523150002487666,-1,0,7,1,1,2,-1,-1
1523150002487666,1,0,-2,0,1,2,3,2
1523150002488666,0,-1,-9,-1,-2,-1,0,-2
1523150002488666,-1,-1,4,-1,-1,-1,-2,-1
1523150002501904,-4,-5,-11,-4,-4,-2,-4,-2
1523150002501904,-1,2,9,0,-3,-4,-4,-3
1523150002503704,-1,1,9,-2,0,-1,0,0
1523150002503704,0,0,8,2,1,1,-1,0
1523150002525013,0,1,-6,-2,1,-1,1,-1
1523150002525013,-2,-2,6,-5,-3,-4,1,-2
1523150002525765,-2,-5,-8,-4,-2,-4,-3,-1
1523150002525765,-3,-1,0,-2,-3,-2,-2,-3
1523150002547078,-2,-1,5,1,-1,1,2,0
1523150002547078,-1,3,-19,0,0,1,0,-1
1523150002548827,0,-2,-17,-1,0,1,0,1
1523150002548827,-3,-3,1,-1,-3,-4,-3,-2
1523150002561862,-1,-4,-6,-3,-2,0,0,0
1523150002561862,0,2,13,0,1,2,-1,-1
1523150002567877,0,-4,-36,-1,0,-1,-2,-2
1523150002567877,0,-1,22,-1,-1,1,-1,-1
1523150002583920,1,1,3,-1,-2,-1,-2,-2
1523150002583920,-2,-1,-14,-3,-3,-1,-1,-3
1523150002585925,-1,1,8,2,1,0,1,-2
1523150002585925,0,0,-7,1,3,0,-2,-1
1523150002607283,-1,-2,-7,1,0,-1,0,1
1523150002607283,-1,-1,2,1,-1,-2,-2,0
1523150002607985,-3,1,5,-1,-3,-1,-1,-1
1523150002607985,0,1,0,1,-1,-1,-2,-1
1523150002621249,-1,-1,3,-1,-2,-1,0,-1
1523150002621249,0,1,5,-1,-1,-2,-2,-2
1523150002628037,-3,-4,-11,-3,-4,-4,-3,-2
1523150002628037,0,-1,5,3,0,-1,0,1
1523150002644113,-2,-3,-8,-2,2,3,1,1
1523150002644113,-1,1,-1,-2,-1,0,1,-1
1523150002646084,-3,-4,-6,-1,-1,-1,-3,-2
1523150002646084,0,2,-5,0,0,-1,-1,0
1523150002667364,-3,-4,4,-3,-5,-5,-3,-2
1523150002667364,0,0,-3,-1,0,-1,-1,-2
1523150002668143,0,1,12,-1,1,0,1,1
1523150002668143,-3,0,-12,0,0,0,1,0
1523150002681424,-1,-3,-20,0,-1,0,1,0
1523150002681424,-2,-2,34,-2,-3,-2,0,-2
1523150002688197,0,0,20,1,-1,-1,-2,-1
1523150002688197,-1,-2,-18,-1,-2,-2,0,-1
1523150002704536,1,3,35,3,1,-2,-1,0
1523150002704536,-3,-10,-3,-7,-3,-1,-2,0
1523150002706244,1,0,-8,0,0,-1,-1,-1
1523150002706244,1,-3,-2,-3,0,0,-1,-2
1523150002727300,-1,2,15,3,-1,-1,0,-1
1523150002727300,0,1,-23,2,-1,-1,-3,1
1523150002728302,0,0,6,1,1,2,3,0
1523150002728302,-1,0,26,0,-2,0,-1,1
1523150002741606,0,-5,-20,-4,1,-2,-1,-1
1523150002741606,-1,-1,-22,-2,-1,-2,-3,0
1523150002748670,-2,0,-7,-5,-3,-4,-3,-3
1523150002748670,-2,-1,-6,-1,-1,1,1,-3
1523150002764477,-2,-1,-2,-2,1,-2,-1,1
1523150002764477,0,0,6,0,-1,1,0,0
1523150002766403,0,-1,1,1,-1,0,-1,0
1523150002766403,-1,-1,-3,-2,0,0,-1,-2
1523150002787578,-2,-1,4,-2,-1,-1,-2,-3
1523150002787578,-1,2,0,-1,-2,1,-2,-3
1523150002788465,-1,-2,-24,0,-3,-2,-1,1
1523150002788465,-2,-3,3,-1,-2,-2,-2,0
1523150002801693,0,-1,-8,-1,-3,-1,-1,0
1523150002801693,0,-1,-11,1,-1,-2,1,-1
1523150002808783,-2,-1,10,-3,-2,-2,-3,-3
1523150002808783,0,-1,-4,-1,1,0,1,2
1523150002824871,-2,0,4,-1,-2,-1,-2,-1
1523150002824871,-1,-2,-4,0,0,-1,0,1
1523150002825563,0,0,4,1,3,0,1,1
1523150002825563,-3,-4,-15,-3,-2,0,-2,-1
1523150002846920,0,0,10,-1,-3,-3,0,-1
1523150002846920,-2,-2,-10,-1,-1,-1,-2,-2
1523150002848623,-2,1,5,-2,-2,-3,-1,-3
1523150002848623,0,-1,-8,-3,-1,-2,-1,-2
1523150002861658,-1,-1,-7,-1,-2,-2,-2,0
1523150002861658,-1,1,25,0,0,-2,-1,0
1523150002868717,1,-5,-18,0,-1,1,-1,0
1523150002868717,-1,1,-35,2,3,2,1,0
1523150002884870,0,-1,10,-3,-2,-1,-1,-2
1523150002884870,-2,-3,-8,-2,-2,-1,-2,-3
1523150002885723,-2,0,-5,-1,0,0,1,0
1523150002885723,0,0,23,-1,-4,-4,-1,-2
1523150002907037,-1,-1,-22,-2,-1,0,-1,1
1523150002907037,-1,-1,3,-2,-4,-3,0,0
1523150002908783,1,0,14,0,-2,-2,0,0
1523150002908783,-2,-5,-26,-6,-4,-4,-4,-3
1523150002921077,0,2,44,1,1,0,0,0
1523150002921077,-2,-3,-22,-2,-1,-1,-1,-1
1523150002929838,-1,-1,-17,0,-1,0,0,0
1523150002929838,1,2,28,2,0,-1,0,1
1523150002943878,-2,-3,-21,-3,-1,-2,0,-2
1523150002943878,0,-1,-2,-1,-1,0,-2,-2
1523150002945881,-1,-2,3,0,-2,0,-1,-2
1523150002945881,0,1,-20,-3,-2,-1,-2,-2
1523150002966939,-3,-5,-11,-5,-4,-3,-5,-3
1523150002966939,-1,2,0,3,4,4,2,3
1523150002968941,-1,-1,-5,-4,2,1,1,0
1523150002968941,1,0,19,-2,1,1,0,0
1523150002981235,-1,1,6,0,-3,-1,-2,-2
1523150002981235,0,-2,-19,-2,-5,-6,-4,-3
1523150002990000,-2,-2,12,-2,-1,-3,-6,-3
1523150002990000,-3,-1,3,0,2,0,0,1
1523150003004304,0,0,-2,1,0,0,0,0
1523150003004304,0,1,6,0,-2,0,2,-1
1523150003006041,0,-4,-29,-3,-2,-2,-1,-4
1523150003006041,-1,-1,30,-1,-3,-3,-2,-1
1523150003027099,0,1,-5,2,0,1,1,0
1523150003027099,-2,-1,-2,-1,-1,0,-1,-1
1523150003028104,-1,1,9,-1,-1,1,0,-1
1523150003028104,0,-2,-13,-1,-1,-1,-2,-3
1523150003041275,-1,1,23,2,-2,1,-1,-2
1523150003041275,-2,-1,-36,-3,-1,-1,0,1
1523150003049158,-2,0,13,1,-3,-1,-3,-1
1523150003049158,-1,-2,2,-1,-2,-1,1,0
1523150003064458,0,-3,-24,-1,1,0,-1,-2
1523150003064458,1,1,28,-2,-1,-1,-2,-1
1523150003066202,1,0,7,0,1,0,-1,0
1523150003066202,-1,-2,-10,0,0,0,0,0
1523150003087520,0,0,2,-2,-2,-1,-3,-2
1523150003087520,0,-3,6,-1,-4,-3,-4,-2
1523150003088260,-1,0,10,-2,-2,-1,-2,-2
1523150003088260,-3,2,17,-2,-1,-1,0,-2
1523150003100558,-1,-2,-8,2,2,3,4,0
1523150003100558,1,-1,-1,1,2,2,-1,1
1523150003109416,0,-1,3,-3,-3,-2,-3,0
1523150003109416,-1,-2,-30,-2,-2,-3,-4,-2
1523150003125448,-2,-2,4,-2,-1,-3,-2,-3
1523150003125448,-1,-1,0,-1,-1,-1,-2,-1
1523150003126364,-2,-1,-4,0,-1,-2,1,0
1523150003126364,0,1,4,-2,-1,0,-3,-2
1523150003146414,0,-3,0,0,0,-2,-2,0
1523150003146414,-1,-5,-6,-2,-1,-1,-1,-2
1523150003148420,-2,-1,-2,-2,0,-1,-1,0
1523150003148420,-1,1,8,0,-1,-1,-1,-1
1523150003160453,0,0,9,0,-1,-2,0,-1
1523150003160453,-2,-5,-38,-3,-2,-1,0,-1
1523150003169477,-1,-1,4,-1,-2,-2,-1,-1
1523150003169477,0,-2,0,0,0,0,0,1
1523150003184943,-1,2,-52,0,-1,-1,-1,-1
1523150003184943,-4,-3,73,-1,-2,-2,0,-2
1523150003186572,1,0,-18,1,0,0,0,-2
1523150003186572,0,-1,32,1,-2,0,-1,2
1523150003206873,-3,-7,-49,-10,-7,-3,-3,-1
1523150003206873,-1,3,-2,0,-2,-2,-3,-1
1523150003214595,0,-2,6,2,3,1,2,1
1523150003214595,-1,0,-30,1,0,0,-1,-1
1523150003221013,-1,-4,65,-2,0,2,-1,0
1523150003221013,-1,1,10,1,-1,-2,-1,-1
1523150003229637,-4,0,5,-6,-2,0,-2,-3
1523150003229637,-1,-4,-23,-1,-4,-4,0,-1
1523150003244706,-1,0,8,-1,-2,-2,-1,-1
1523150003244706,-1,-1,-19,-1,2,0,0,-1
1523150003245956,0,1,10,2,0,-2,1,0
1523150003245956,-1,-3,-5,-3,-3,0,0,-1
1523150003265732,-2,-1,-13,-2,-2,-2,-1,-2
1523150003265732,-3,-3,7,-1,-2,-1,0,-1
1523150003274757,0,1,-10,0,-1,1,-2,-1
1523150003274757,0,0,-1,0,1,-1,-1,-1
1523150003281156,1,1,-6,2,2,2,1,1
1523150003281156,0,-3,-28,-3,0,-2,-2,-1
1523150003289798,0,1,12,-3,-3,-2,-3,-1
1523150003289798,-1,-3,0,-4,-3,-3,-2,0
1523150003304225,0,1,9,2,2,-1,-1,0
1523150003304225,1,4,6,-2,-2,-1,-3,-2
1523150003305839,0,-3,-17,-1,0,0,0,0
1523150003305839,-2,0,19,0,1,2,1,0
1523150003326895,-1,1,12,1,1,1,0,0
1523150003326895,-1,-1,-4,-1,-1,0,-1,0
1523150003328899,-2,-2,-9,-4,-4,-3,-3,-3
1523150003328899,1,0,-19,0,-2,-1,-3,-1
1523150003349163,0,0,25,0,-1,0,-1,2
1523150003349163,0,-1,-38,-1,-3,0,-1,0
1523150003350961,-2,-3,19,0,2,2,-1,-4
1523150003350961,0,-2,-10,-1,1,-1,2,0
1523150003365082,0,-2,-8,-1,-1,1,0,0
1523150003365082,0,-2,8,-2,-1,-2,-2,-1
1523150003366000,0,0,9,1,0,-3,1,-1
1523150003366000,-2,0,-14,-1,-1,-1,-3,-1
1523150003387445,-1,0,14,-2,-3,-2,-1,-1
1523150003387445,-1,0,18,-1,-1,-4,-1,-1
1523150003388059,-2,-1,-19,-1,-1,-1,-1,0
1523150003388059,-1,-1,19,0,-1,-1,-1,-2
1523150003409272,0,-1,-17,-2,0,-2,0,-1
1523150003409272,-1,1,7,-1,0,0,-2,-1
1523150003411118,-1,-2,10,-1,-4,-4,-3,-1
1523150003411118,-2,-2,-14,-4,-5,-4,-2,-3
1523150003424554,-2,-2,7,2,2,1,0,-2
1523150003424554,0,-2,5,3,4,3,2,2
1523150003426159,-2,-2,-3,-2,1,-1,-2,-2
1523150003426159,-2,0,16,0,-1,-1,-2,-2
1523150003454584,-3,-1,-12,-3,-2,-2,-1,-3
1523150003454584,0,-4,2,-2,-1,-1,-2,-3
1523150003456241,0,-2,-10,-2,0,0,2,1
1523150003456241,-1,1,7,0,-2,-1,0,-1
1523150003469618,0,-4,-17,-1,-2,-4,-3,1
1523150003469618,-2,0,-31,-4,0,-1,0,1
1523150003471280,-3,0,4,0,-2,0,-2,-1
1523150003471280,0,-2,5,-2,-1,-2,0,-2
1523150003484488,0,-2,-13,0,-1,0,2,0
1523150003484488,-1,1,8,2,-2,-2,0,-1
1523150003486320,0,-2,-5,-2,-2,-2,-2,0
1523150003486320,-2,0,-7,-1,2,1,-2,1
1523150003507533,-1,0,14,-3,-2,-1,0,-1
1523150003507533,0,-1,6,1,-3,-1,0,-3
1523150003508378,-2,-1,5,-4,-3,-1,0,-4
1523150003508378,-2,-1,-3,1,2,1,0,1
1523150003529775,0,0,-1,0,0,1,0,-1
1523150003529775,0,-1,-16,4,-1,1,0,0
1523150003535596,0,0,3,-3,-3,-2,-2,0
1523150003535596,0,-1,1,-4,-5,-4,-4,-3
1523150003543472,-1,0,-7,-2,-3,-3,-3,-2
1523150003543472,-2,-1,3,-3,1,-1,1,1
1523150003550884,0,3,6,5,4,4,3,1
1523150003550884,-1,-4,-16,-4,-2,-1,1,-1
1523150003566785,-1,0,17,0,-3,1,-2,-2
1523150003566785,-3,-1,21,-2,-5,-2,-4,-2
1523150003568538,0,-2,2,-1,-3,-2,-2,1
1523150003568538,0,-1,-2,0,0,-2,-1,-2
1523150003590083,0,-4,-27,-1,0,-1,0,-2
1523150003590083,-1,3,3,-2,0,-1,-2,-1
1523150003590597,-1,-2,-3,0,-1,-2,-2,-1
1523150003590597,-1,-1,-1,-2,-2,-1,-2,0
1523150003603978,-2,0,8,1,4,0,1,-2
1523150003603978,-2,-3,-9,-4,-2,0,0,-3
1523150003610650,-1,0,-12,0,-1,-2,1,-2
1523150003610650,-1,0,1,-1,-2,-2,0,-2
1523150003626694,0,-1,-3,-2,-1,-2,-1,-1
1523150003626694,0,-1,-10,-2,1,-2,-2,-1
1523150003628698,-2,-4,-7,-1,1,2,2,0
1523150003628698,-1,1,37,2,1,1,0,0
1523150003650010,1,0,-3,-1,-3,-1,0,0
1523150003650010,1,0,12,-2,-2,-1,-1,-1
1523150003650758,-1,-5,-43,-2,-3,-5,-3,-1
1523150003650758,-1,-1,32,0,0,0,-2,-4
1523150003664165,-1,-2,-43,1,1,2,-1,0
1523150003664165,-1,-1,6,0,0,0,1,1
1523150003678883,-1,0,8,0,-1,-1,0,-1
1523150003678883,-1,-2,-14,-3,-3,-1,-2,-1
1523150003687246,-2,-1,6,0,-2,-5,-4,-1
1523150003687246,0,-3,-10,-2,-2,-3,-3,-1
1523150003688859,0,1,6,-1,2,2,1,1
1523150003688859,-1,1,-9,0,1,2,1,1
1523150003708982,-2,-2,12,0,-2,0,-1,0
1523150003708982,-2,1,-9,0,-2,-1,-1,-1
1523150003710916,-1,-1,-1,-2,-3,-4,-1,-3
1523150003710916,-1,-3,6,-1,-1,-3,-4,-4
1523150003724328,-1,-1,5,-1,1,2,1,0
1523150003724328,0,-1,0,2,0,2,1,-1
1523150003731315,-1,1,13,0,-1,0,-2,-3
1523150003731315,-2,-5,-34,-3,-3,0,1,0
1523150003747363,-1,-1,8,0,-2,-1,-1,-1
1523150003747363,-2,-3,7,-1,-1,-4,-1,-2
1523150003749020,-1,-1,-3,-3,-1,-2,-2,-1
1523150003749020,1,0,-10,-1,0,-1,0,-1
1523150003770074,0,1,31,0,-1,-2,-1,-1
1523150003770074,-1,-1,-12,0,0,-1,0,-1
1523150003771078,-1,-1,3,-1,-2,-2,-1,-1
1523150003771078,-1,0,2,-1,-1,-2,-1,-2
1523150003784467,0,-1,-15,-2,0,1,-2,0
1523150003784467,-2,-4,13,1,3,2,1,-1
1523150003791353,-1,0,2,-1,0,2,-1,0
1523150003791353,-1,-1,-6,0,-3,-2,-2,-2
1523150003807543,-2,-1,1,-2,-3,-3,-2,-3
1523150003807543,0,-2,-8,-1,-3,-4,-2,-1
1523150003808176,-2,-1,1,3,1,1,2,0
1523150003808176,-1,0,-9,1,2,2,-1,2
1523150003829569,-2,-5,-7,-3,-1,-1,-2,-2
1523150003829569,0,0,-1,0,-2,-1,-1,-2
1523150003831238,-1,-2,-3,-3,-3,-4,-2,-3
1523150003831238,1,-1,6,1,-2,-3,0,0
1523150003843270,0,1,2,1,0,0,1,0
1523150003843270,-2,0,-10,1,3,2,2,1
1523150003852294,1,-2,10,-1,0,0,1,0
1523150003852294,0,-1,-5,0,-1,1,-2,0
1523150003867629,-1,-2,-6,-3,-2,-2,-2,-2
1523150003867629,-1,0,4,-4,-2,-3,-2,0
1523150003868337,0,0,2,0,0,0,0,0
1523150003868337,0,1,1,0,-2,0,0,0
1523150003889743,-1,-1,-1,-2,-2,-2,1,0
1523150003889743,1,1,2,-2,-1,-1,-1,0
1523150003895801,-2,0,-6,0,0,-1,-1,-1
1523150003895801,-1,-1,19,-1,1,0,0,0
1523150003903755,-1,-1,-9,2,0,1,-1,0
1523150003903755,-2,-1,-6,-2,-2,-3,-1,-2
1523150003912453,0,-1,7,-2,-3,-2,-3,1
1523150003912453,-1,-3,-5,-1,-1,-1,-2,-3
1523150003926491,1,1,-5,0,2,1,0,-1
1523150003926491,-1,1,5,1,2,1,0,0
1523150003928497,-3,-3,-13,-2,-3,0,0,-2
1523150003928497,0,0,0,-1,-1,-3,0,-1
1523150003957710,0,-1,0,-1,-2,-2,0,0
1523150003957710,-1,-2,-6,-2,-4,-4,-2,-2
1523150003958576,-2,0,4,-1,0,-3,-2,-2
1523150003958576,-1,-1,-4,-1,1,1,1,2
1523150003962898,-3,-3,7,0,0,-4,-1,-1
1523150003962898,-2,-3,-11,-1,-1,1,-1,-1
1523150003971961,0,-2,0,-1,-2,-2,-1,-1
1523150003971961,-1,1,19,0,0,-2,-1,-1
1523150003986985,0,-4,-47,-3,-3,-1,-2,-1
1523150003986985,0,0,-6,-1,0,1,0,1
1523150003988657,0,-2,-1,-1,-1,-1,-1,-3
1523150003988657,-3,-2,-5,-1,-3,-3,-2,-2
1523150004009732,-1,1,18,-1,-1,-2,-1,-1
1523150004009732,-2,0,-1,1,0,0,-2,-1
1523150004010714,-1,0,-8,0,1,2,1,1
1523150004010714,-1,1,-3,-2,0,0,0,-1
1523150004023853,0,-1,-4,-2,-2,-1,-1,-1
1523150004023853,0,-2,11,-2,-2,-4,-3,-2
1523150004032081,-1,1,2,0,-3,-1,-3,-1
1523150004032081,-2,-2,11,-3,-2,-3,-3,-2
1523150004047192,-2,-1,2,0,-2,0,-1,-1
1523150004047192,0,-1,0,0,-1,-1,2,-1
1523150004048817,-1,0,2,-2,-1,-2,-2,0
1523150004048817,0,0,1,0,-1,0,-2,-2
1523150004070223,-2,-5,-20,0,3,4,2,1
1523150004070223,1,1,2,0,-1,0,0,-1
1523150004070876,-1,-1,-4,0,2,0,1,-1
1523150004070876,0,0,18,-2,-1,0,-3,-1
1523150004082907,-1,-1,-3,-4,-5,-6,-5,-2
1523150004082907,-2,0,-2,0,-2,-3,0,-1
1523150004091931,-1,-3,-5,0,-1,-2,-1,-1
1523150004091931,-1,-2,-14,2,0,-1,-4,0
1523150004107317,-2,3,16,2,0,4,7,-2
1523150004107317,-1,-1,4,-4,-2,-4,-7,-2
1523150004107975,1,1,2,1,0,1,2,-1
1523150004107975,0,-2,-15,-1,-1,0,-1,0
1523150004129489,-1,0,4,1,-3,-1,-3,-2
1523150004129489,1,-1,-6,-1,-3,0,2,-3
1523150004131035,-1,-2,2,-1,0,-1,0,-1
1523150004131035,-1,-2,-9,-3,-2,-1,-1,0
1523150004143068,0,-3,3,0,-4,-5,-2,-1
1523150004143068,-2,0,6,1,-1,-3,0,0
1523150004152091,1,-2,1,1,5,10,1,-1
1523150004152091,-1,-4,-11,0,3,4,5,1
1523150004167374,-2,-2,3,-4,-4,-7,-4,-4
1523150004167374,-2,-3,-14,-3,-13,-10,-7,-2
1523150004168134,0,0,11,0,1,-4,2,-1
1523150004168134,-1,-2,2,3,14,12,-2,0
1523150004189527,3,0,-11,-2,2,8,3,1
1523150004189527,-1,-2,-5,-1,-1,-4,-3,0
1523150004191195,-3,-3,0,-6,-15,-13,-6,-4
1523150004191195,-2,2,4,-2,-8,-3,-4,-2
1523150004203576,0,0,9,2,11,-1,-3,1
1523150004203576,-1,0,-1,-1,0,8,2,0
1523150004212252,-1,0,-9,-3,-4,-5,-4,-3
1523150004212252,0,-4,-9,-2,-3,-6,1,-2
1523150004227290,-1,0,7,-1,-3,-1,-1,-1
1523150004227290,1,-3,-19,-1,4,6,0,0
1523150004228325,-2,1,27,1,1,-1,0,-2
1523150004228325,-2,-3,-27,-3,-3,-6,-4,0
1523150004249609,-2,1,10,0,-2,2,1,0
1523150004249609,-1,-1,2,-1,3,0,2,-1
1523150004251354,0,0,-4,0,0,0,-2,-1
1523150004251354,0,0,5,-1,-4,0,1,-1
1523150004263556,-1,0,-3,-1,-2,-5,-1,0
1523150004263556,-2,-1,2,-1,0,0,-2,0
1523150004272410,-3,-5,-13,-2,-1,4,1,-2
1523150004272410,0,1,15,-2,-4,-6,-1,-3
1523150004287527,-1,-2,1,-1,-1,-1,1,0
1523150004287527,-1,0,3,-1,-1,-1,-2,-1
1523150004288453,-2,1,0,-1,0,1,-2,1
1523150004288453,-2,1,9,1,-2,-1,-1,-1
1523150004309543,-2,-6,-23,-4,-3,-1,-2,-3
1523150004309543,-1,2,0,1,-1,-1,2,-3
1523150004311517,-1,-5,-45,-4,1,-2,0,0
1523150004311517,-1,0,7,-2,-3,-1,-2,-1
1523150004332571,-3,-4,-3,0,-3,-4,-3,-2
1523150004332571,0,-1,-4,-1,1,10,1,0
1523150004333574,1,-1,18,1,-1,-2,-1,-1
1523150004333574,-1,-1,-1,1,1,-2,0,0
1523150004346728,0,1,0,-1,-2,-1,-3,-1
1523150004346728,-2,-2,0,-2,-2,-6,-2,0
1523150004348615,-2,-1,10,1,-3,1,-3,1
1523150004348615,-1,-2,-19,-1,-2,1,0,0
1523150004369811,-2,2,27,0,-4,-5,-4,-3
1523150004369811,-2,-2,-11,1,3,0,3,0
1523150004370673,0,0,3,1,3,3,1,2
1523150004370673,-2,-2,-11,-1,-2,-3,-2,-3
1523150004391731,0,-1,-6,-2,-1,0,0,1
1523150004391731,-1,1,13,-1,-3,-2,-3,-3
1523150004393733,-2,-1,-5,-2,-4,-5,-3,-2
1523150004393733,-1,0,-3,-1,-1,-2,0,0
1523150004407072,0,1,-11,-1,-1,-1,-1,-1
1523150004407072,-1,-2,4,-1,-2,-1,-3,-2
1523150004408775,-2,1,-35,0,1,-1,-1,-1
1523150004408775,-2,1,4,2,4,7,2,2
1523150004430132,0,-1,-9,-1,4,4,2,0
1523150004430132,0,-1,8,-3,-3,-6,-2,1
1523150004430833,-2,-2,2,-3,-5,-4,-4,-3
1523150004430833,0,2,19,0,-4,-4,-3,-3
1523150004452194,0,0,2,-1,-1,-1,0,-1
1523150004452194,1,-1,1,0,0,0,0,-1
1523150004453893,0,1,-5,0,0,-1,-1,-1
1523150004453893,-3,-4,5,-5,-3,-4,-2,-3
1523150004465927,-1,1,-24,1,-1,0,0,0
1523150004465927,-1,-1,22,0,0,-3,-2,-1
1523150004481275,-2,-1,0,0,0,0,-2,0
1523150004481275,1,1,0,0,-1,-1,-3,1
1523150004490176,-2,-3,-9,2,1,2,0,-1
1523150004490176,-1,-2,-40,-2,0,0,0,0
1523150004490992,-1,-2,-1,1,-1,2,1,-1
1523150004490992,0,1,0,-3,-1,-1,-2,-1
1523150004512374,0,-3,7,-1,-2,-4,-3,0
1523150004512374,-2,0,6,0,1,2,2,-2
1523150004513054,-1,-2,-6,-1,0,-2,0,2
1523150004513054,-2,0,7,-1,-4,-4,-2,-1
1523150004526087,0,-1,2,0,-4,-3,-3,-2
1523150004526087,0,-1,10,-1,0,-3,-3,0
1523150004533366,0,1,-7,0,2,3,1,-1
1523150004533366,-2,-1,-3,-1,0,-2,1,-1
1523150004549408,-1,-1,11,-2,-2,-1,-1,-1
1523150004549408,-2,-4,-29,-1,-3,-1,-1,-2
1523150004551156,-1,-2,40,-3,-2,-2,0,-2
1523150004551156,-1,-2,-2,-1,-2,-2,0,2
1523150004572538,-2,-2,9,-1,0,-1,0,-2
1523150004572538,1,0,-11,-1,1,-1,-2,1
1523150004573212,1,0,1,0,1,0,-1,0
1523150004573212,0,-4,-10,0,1,2,0,-2
1523150004586578,0,0,3,-1,-2,0,0,-1
1523150004586578,1,1,4,-1,-2,-2,-2,-2
1523150004593266,0,-2,10,-1,-2,-3,-1,-1
1523150004593266,-2,-2,-8,0,3,-1,1,-2
1523150004609309,-1,0,2,2,2,3,2,0
1523150004609309,-1,-2,-12,-1,-3,-1,0,-1
1523150004611314,-2,-1,1,-4,-7,-4,-2,-1
1523150004611314,0,-1,-21,-2,1,-2,-2,0
1523150004631675,-2,-1,19,-1,0,-2,0,0
1523150004631675,-1,1,4,-1,0,-2,-1,0
1523150004633371,0,-2,-27,1,1,1,1,0
1523150004633371,0,0,16,-1,-1,0,0,0
1523150004646711,0,-1,-2,-1,-2,-1,-2,1
1523150004646711,-1,-2,6,-2,0,-1,-2,-2
1523150004653733,2,-1,-8,-1,0,-1,0,-3
1523150004653733,-1,-2,-3,-2,-3,-1,-1,-3
1523150004669611,-1,-2,-5,-1,-1,-1,-2,-2
1523150004669611,-2,0,5,1,-3,-2,0,0
1523150004671528,-2,-1,0,-1,-2,0,-2,0
1523150004671528,-1,0,-6,-1,-1,-2,-1,1
1523150004691528,-2,-2,2,-2,-3,-4,-1,-2
1523150004691528,1,1,11,3,2,2,2,1
1523150004693531,0,-3,-39,-2,-2,0,-2,-3
1523150004693531,-1,0,-8,0,-1,1,0,-1
1523150004706941,-1,-2,6,0,-1,-1,-2,-1
1523150004706941,-2,0,-7,-2,-2,-2,-1,-2
1523150004713813,-2,0,29,2,-1,-4,-1,0
1523150004713813,-2,-2,-4,-2,-5,-3,-1,-2
1523150004730014,-1,1,-3,-2,0,-1,0,-1
1523150004730014,0,-4,-4,0,2,0,-1,1
1523150004730632,-2,-3,-15,-2,-1,2,0,0
1523150004730632,-2,0,3,-4,-4,-3,-4,-3
1523150004751686,-1,2,8,2,-1,-2,-1,-2
1523150004751686,0,-2,1,0,-1,0,2,-1
1523150004753693,0,2,7,-1,0,0,0,-2
1523150004753693,-2,0,10,1,-1,1,0,0
1523150004766952,-1,-3,-17,-2,1,0,0,-1
1523150004766952,0,1,-4,0,-2,-1,-2,0
1523150004773131,0,0,3,0,-1,-4,-3,-2
1523150004773131,-1,-1,0,-1,0,0,-1,-1
1523150004790162,-1,0,-5,-2,-3,-3,-1,-1
1523150004790162,-1,0,-1,-1,-2,-1,0,0
1523150004791793,-1,0,10,0,0,0,-2,-1
1523150004791793,-1,-1,-8,1,1,1,1,-1
1523150004812214,-1,-1,-26,-3,-2,-2,-1,-3
1523150004812214,-2,-3,2,-2,-1,-1,-3,-2
1523150004813852,-2,0,3,-2,-1,0,1,0
1523150004813852,1,0,-1,-1,-1,-4,-3,-1
1523150004825884,-1,-2,-7,0,2,2,0,1
1523150004825884,-1,0,3,-1,-2,0,0,-1
1523150004834909,1,0,8,-2,-3,-3,-2,-2
1523150004834909,1,-1,16,1,-1,-1,0,-2
1523150004848945,1,0,11,-3,-2,-4,-2,-2
1523150004848945,0,1,-1,-2,-1,-1,-1,-1
1523150004850950,-3,-1,1,0,0,1,0,-1
1523150004850950,-1,3,-11,-2,-1,-1,-1,-1
1523150004872369,-1,-9,5,-2,-3,-3,-2,0
1523150004872369,-2,-2,-3,-4,-3,-4,-1,-4
1523150004873010,1,0,0,0,1,0,1,1
1523150004873010,1,0,-3,1,2,2,1,1
1523150004886353,1,0,-3,-4,0,0,-1,1
1523150004886353,-1,1,6,22,1,-2,-2,1
1523150004894377,0,-1,4,-15,0,0,0,-1
1523150004894377,-1,-3,-16,-37,-3,0,-1,0
1523150004909105,0,0,6,40,-3,0,0,0
1523150004909105,-6,-5,2,-20,-3,-7,-6,-2
1523150004911112,1,4,-1,19,-4,-5,3,-1
1523150004911112,-3,-13,-19,-3,1,6,0,-1
1523150004932500,-2,-1,13,12,9,6,0,0
1523150004932500,-1,-13,17,11,-2,-6,-6,-2
1523150004934186,1,-3,-2,14,0,-4,2,1
1523150004934186,2,-1,12,17,-1,-4,-1,-1
1523150004946224,-4,15,-8,-20,-6,-4,-4,-4
1523150004946224,-1,1,-10,-4,0,6,0,-1
1523150004954583,-1,-8,6,-7,-2,-5,-1,0
1523150004954583,-3,-7,20,-3,0,8,0,-1
1523150004969265,1,4,2,-13,0,-1,2,-1
1523150004969265,1,7,-11,-3,0,-2,1,0
1523150004971271,-5,-10,0,-4,-2,-1,-4,-3
1523150004971271,0,6,-11,6,-1,-6,1,0
1523150004992326,-2,-5,15,-3,-1,-5,-2,0
1523150004992326,0,-1,3,-1,1,0,4,-1
1523150004993328,0,4,-4,-4,1,2,-1,0
1523150004993328,-3,-2,-10,5,1,-1,-3,-1
1523150005005738,-2,-4,-3,-6,-1,1,0,-1
1523150005005738,0,-1,-19,-9,-4,-4,-1,-2
1523150005014387,-3,-1,-5,-5,-2,-1,-7,-2
1523150005014387,-1,1,-11,4,0,-6,0,0
1523150005029425,1,0,11,-4,2,5,0,2
1523150005029425,-1,1,-1,-3,-1,-3,-2,-1
1523150005031543,1,2,-4,1,-1,2,-2,-2
1523150005031543,-2,-2,2,0,-5,-5,0,-2
1523150005052608,-1,-3,0,-5,-2,-3,-1,-3
1523150005052608,-2,-4,-17,-3,0,2,0,1
1523150005053490,-3,0,-1,-1,-1,-2,-2,-2
1523150005053490,0,1,4,0,1,1,1,-1
1523150005066545,0,-3,-7,-3,-2,0,-1,-1
1523150005066545,-1,1,25,2,1,0,0,0
1523150005074547,-1,-2,-14,-4,-3,-2,-2,-2
1523150005074547,-1,-2,-10,-1,-1,-4,-2,-1
1523150005089585,-2,-4,-10,-3,-1,-5,-1,-2
1523150005089585,1,3,17,2,-3,2,-2,-2
1523150005090587,1,-2,-9,-4,1,0,1,1
1523150005090587,-5,-6,3,1,-2,2,-2,-3
1523150005111643,-2,-2,-9,-3,-3,-4,-3,-2
1523150005111643,-1,0,-5,-2,0,0,0,0
1523150005113649,-1,3,3,0,-1,-2,-1,0
1523150005113649,-1,0,-1,-1,-3,-3,-2,-3
1523150005125683,1,-1,0,-1,0,1,-1,-1
1523150005125683,-1,-4,-13,0,1,2,2,1
1523150005134706,-3,-5,2,0,1,2,-1,0
1523150005134706,-1,-1,9,-1,-1,0,0,0
1523150005149747,-1,-2,0,-5,-5,-3,1,-1
1523150005149747,0,0,-1,0,-2,0,-3,-2
1523150005150749,-2,-1,-12,1,2,1,1,0
1523150005150749,1,1,8,3,2,4,1,2
1523150005171803,-2,-1,0,0,0,-2,-2,-1
1523150005171803,-1,-6,-18,-5,-2,-2,-2,0
1523150005173809,1,1,12,-2,-3,1,-1,-2
1523150005173809,-1,-1,-7,-1,-1,-8,-2,-1
1523150005185841,-2,-2,4,0,1,4,-1,-1
1523150005185841,-1,-1,0,0,-3,-4,0,0
1523150005194865,-3,-1,-3,-1,-2,-1,-2,-2
1523150005194865,0,0,7,-1,-3,-2,-1,-2
1523150005208902,0,-1,-3,-3,-2,-3,-1,0
1523150005208902,0,-2,-30,-2,-2,0,-3,-2
1523150005210908,1,1,5,2,4,0,3,0
1523150005210908,-1,-1,-5,-1,0,8,1,1
1523150005231964,-2,0,23,4,-1,0,2,0
1523150005231964,-3,-3,-38,-5,-5,-2,-3,-2
1523150005232966,-1,-1,0,-2,-4,-4,-3,0
1523150005232966,-2,-1,-5,-2,-3,-2,-2,-1
1523150005254023,1,-1,0,-2,-1,-3,-1,0
1523150005254023,-2,0,10,1,0,0,1,1
1523150005256028,0,-2,15,1,3,1,1,-1
1523150005256028,-2,0,-12,0,0,-2,0,-1
1523150005269062,-1,-4,3,0,-1,1,-1,0
1523150005269062,-1,0,13,0,0,-4,-2,-1
1523150005271068,-2,-3,-10,-4,-4,3,-2,-4
1523150005271068,-2,0,12,-2,0,-4,-2,-1
1523150005292124,1,0,-15,1,2,-2,1,1
1523150005292124,-1,0,11,1,2,1,2,0
1523150005293127,-1,0,1,-1,0,-1,-1,-1
1523150005293127,-1,1,-1,-2,-2,-1,-1,-1
1523150005314184,-1,-2,-12,-2,-3,-3,-3,-1
1523150005314184,1,-1,7,-1,0,-1,1,-1
1523150005316189,0,1,3,-2,-2,-3,0,0
1523150005316189,0,-4,-14,0,-1,0,-2,-1
1523150005329222,-2,-1,-18,-1,-1,-2,-1,-1
1523150005329222,-1,-1,23,1,-2,0,0,0
1523150005331229,0,0,-2,0,-1,-2,-2,0
1523150005331229,0,-1,-5,-1,0,-2,-1,0
1523150005352284,-2,-2,-7,-2,-1,1,-1,-1
1523150005352284,-1,-1,3,-2,0,-2,-1,-3
1523150005353287,-2,-2,-6,-2,-3,-1,-1,-1
1523150005353287,-1,-1,2,2,1,1,0,0
1523150005374343,-2,-1,1,0,-1,-3,-1,-2
1523150005374343,-2,0,1,0,-1,-3,-2,-1
1523150005376349,-1,-3,-4,-1,-2,-3,-3,-2
1523150005376349,-1,0,-4,-1,-1,-1,-2,0
1523150005389383,-1,0,4,2,1,3,2,-1
1523150005389383,-4,-3,-37,0,2,3,0,0
1523150005391388,-1,-3,0,-1,-2,-3,2,-1
1523150005391388,-2,2,-2,-3,-3,-4,-3,-3
1523150005411440,-2,2,-7,-3,-2,-3,-3,-2
1523150005411440,0,0,32,-3,-3,-2,-2,-1
1523150005413446,-1,-4,-35,1,0,0,0,2
1523150005413446,-2,-2,-2,-1,-4,-4,-3,-1
1523150005434501,-2,-1,6,0,0,-1,-2,-1
1523150005434501,0,2,4,1,3,3,3,1
1523150005435505,0,-1,3,-1,0,2,0,-1
1523150005435505,-1,0,10,-1,-2,-2,-1,-3
1523150005448539,-1,-4,-9,-2,-5,-3,-3,0
1523150005448539,0,0,2,-3,-3,-4,-2,-1
1523150005455557,0,1,0,-1,0,1,-1,0
1523150005455557,-3,-5,-19,-3,1,0,-2,0
1523150005471602,0,0,7,1,-1,-2,-1,-3
1523150005471602,-1,-1,-3,1,0,-1,-1,-1
1523150005473607,-1,-2,5,-3,-2,-3,0,-1
1523150005473607,0,-4,-1,-2,0,0,-2,-1
1523150005494663,0,0,17,-2,3,3,1,-1
1523150005494663,-4,-7,-25,-2,0,-2,-2,-1
1523150005495665,-1,1,-47,-4,-3,-2,-4,-1
1523150005495665,-1,-1,16,-1,-3,-3,-3,0
1523150005508700,-1,0,2,0,0,-1,-1,-1
1523150005508700,0,1,10,0,0,1,2,-1
1523150005515719,-1,-2,8,0,0,-2,-1,-1
1523150005515719,0,-1,-6,-1,0,0,1,0
1523150005531761,-1,-2,-17,-3,-2,-1,-3,-1
1523150005531761,-1,-4,-9,-1,-1,-1,-2,-2
1523150005533767,-1,-1,13,-1,0,-1,-1,-2
1523150005533767,0,2,1,0,-2,1,1,-1
1523150005554480,-1,-2,-21,-2,0,0,-1,1
1523150005554480,-1,2,28,0,-1,-1,-1,0
1523150005556485,-1,-1,5,0,-1,1,0,-2
1523150005556485,-1,-2,1,1,-1,-1,0,0
1523150005569021,-1,-3,-14,0,-2,-2,0,-2
1523150005569021,0,-1,-4,-2,0,1,0,1
1523150005575534,-2,0,8,0,-3,-3,-1,-1
1523150005575534,-2,0,-3,0,-1,0,1,-2
1523150005592077,-1,-1,6,2,2,2,1,1
1523150005592077,-1,-1,0,-2,-2,-2,-3,-2
1523150005593584,-1,0,7,-1,-1,-1,-1,-2
1523150005593584,-2,0,5,0,-1,-2,-3,-3
1523150005613634,-2,-3,-8,-1,-3,-1,2,0
1523150005613634,-1,-1,0,0,-3,-1,-2,0
1523150005622157,0,-1,0,-2,0,0,0,0
1523150005622157,-2,-2,-10,-1,0,-1,-3,-1
1523150005628675,0,2,27,-1,0,-1,-2,-1
1523150005628675,-1,-2,-33,-4,-3,-2,-1,-1
1523150005635693,-1,-2,1,-2,-2,-4,-3,-2
1523150005635693,-1,0,6,1,0,-2,0,-1
1523150005652236,-1,-2,-7,1,2,3,0,0
1523150005652236,1,1,3,2,-2,1,1,1
1523150005653741,0,-1,5,0,-4,-2,-3,-3
1523150005653741,0,-2,-5,-3,-2,-2,0,-2
1523150005674295,-1,0,5,-3,-3,-5,-4,0
1523150005674295,-2,0,2,-3,-2,-3,-4,-3
1523150005676300,-1,0,2,3,2,4,2,1
1523150005676300,2,-1,1,1,3,1,0,1
1523150005688838,-1,-2,-4,-3,-5,-1,-1,-2
1523150005688838,0,-1,6,-1,-1,-1,-2,-1
1523150005695920,-2,0,-6,-1,-1,-2,-2,0
1523150005695920,0,0,-2,-1,-1,-2,-2,-1
1523150005712399,-3,0,0,-2,0,-2,-1,-1
1523150005712399,-1,0,-1,-2,-2,-2,0,-2
1523150005713902,0,-2,2,1,-2,0,-1,1
1523150005713902,-1,-2,-2,-1,-1,1,-2,0
1523150005734961,1,0,0,0,-1,-2,-3,-1
1523150005734961,-1,-2,1,-1,-1,0,-3,0
1523150005736462,-1,0,-4,-1,0,0,-1,-1
1523150005736462,0,0,14,-1,0,2,2,0
1523150005748545,-1,-2,-6,-2,-2,1,-2,-2
1523150005748545,-2,-1,-1,0,-1,-1,0,-2
1523150005757519,0,-1,3,-1,-1,-2,-3,0
1523150005757519,-2,-1,-6,-1,-1,-2,0,0
1523150005772561,-2,-1,2,-1,-2,0,-1,-1
1523150005772561,-1,0,10,-2,-2,-1,0,0
1523150005773564,0,-1,-2,-3,-3,-2,-1,-1
1523150005773564,1,1,3,2,0,-1,-1,-4
1523150005794753,-2,-4,21,2,0,0,4,2
1523150005794753,-1,-2,0,0,0,1,0,0
1523150005796122,-3,-1,-4,-2,-2,-2,-2,-2
1523150005796122,-1,-1,8,-2,-2,-2,-3,-1
1523150005808159,1,3,-22,0,-3,-3,-1,0
1523150005808159,-3,-2,14,0,-2,-1,-3,-2
1523150005817182,-1,-2,0,1,1,-1,1,0
1523150005817182,0,-1,-7,0,-1,-2,1,-1
1523150005832402,0,-1,-7,0,0,-2,-4,-1
1523150005832402,0,0,-11,-2,0,1,1,0
1523150005833724,-1,-3,-6,-2,-1,-2,-3,-2
1523150005833724,-1,-1,-2,-1,-1,-3,-3,-1
1523150005854949,-1,-2,-7,-1,0,-2,-1,0
1523150005854949,-2,1,-8,0,-1,-1,-1,-1
1523150005856283,-1,-1,24,-1,0,-1,0,-1
1523150005856283,-3,-4,-35,-2,-1,3,0,1
1523150005868318,0,-1,7,-1,-3,-1,0,-1
1523150005868318,0,-3,-3,1,-2,-2,0,-1
1523150005877337,-2,0,-1,-1,-1,-1,0,0
1523150005877337,-1,0,-9,0,1,-1,-2,-2
1523150005899899,-1,1,18,-1,0,1,-4,-2
1523150005899899,-1,-2,-2,-3,-2,-4,-1,-2
1523150005901402,1,1,7,0,-2,-3,-1,-1
1523150005901402,-2,-5,-45,-2,-1,-1,-2,-1
1523150005914938,-1,-1,0,1,2,3,2,0
1523150005914938,0,0,0,-2,-1,2,-1,-1
1523150005916442,-1,-1,4,0,0,-2,-2,-3
1523150005916442,-2,-1,14,-1,-3,-2,-1,-1
1523150005928703,-2,-2,-5,-1,-2,-2,0,0
1523150005928703,-1,0,-6,-1,-2,-2,-1,-2
1523150005937498,0,-1,-11,-2,-2,-1,-1,-1
1523150005937498,0,0,14,-1,0,0,-1,-2
1523150005952037,-1,-2,-10,-2,0,-1,0,-2
1523150005952037,-2,1,6,1,0,0,0,-1
1523150005953550,-3,-1,-4,1,-2,0,2,-1
1523150005953550,1,0,7,0,-2,0,1,0
1523150005974598,0,0,15,0,1,-1,-1,0
1523150005974598,-2,-4,-14,-2,-1,-1,-1,0
1523150005976100,-2,-2,-7,-3,0,-1,0,-2
1523150005976100,0,0,5,0,-1,-1,0,0
1523150005988133,0,-2,-7,-2,-3,-2,-3,-2
1523150005988133,1,0,3,0,-1,-1,-3,1
1523150006004680,-1,0,-6,-1,1,1,-2,1
1523150006004680,0,-1,12,1,-1,-1,-2,-2
1523150006012440,-4,-1,-13,-6,-3,-2,-2,-3
1523150006012440,0,-2,0,-1,-3,-3,-1,-3
1523150006013700,0,0,-1,3,-2,0,-2,-1
1523150006013700,0,-1,4,-5,1,1,-3,0
1523150006034757,0,-2,-6,-4,-2,0,0,-2
1523150006034757,-1,-1,4,-1,-3,-2,-2,-1
1523150006036289,-1,-4,-11,-5,1,3,2,0
1523150006036289,0,1,7,10,2,4,4,1
1523150006048290,0,-1,-1,0,-1,1,0,-1
1523150006048290,-2,-1,-7,10,-1,-1,-1,-1
1523150006057192,-1,-1,16,-7,-2,-2,0,-1
1523150006057192,-1,-2,-13,-1,-4,-3,-3,-2
1523150006072617,-2,-1,17,0,-2,-1,0,0
1523150006072617,1,2,1,2,-1,0,2,0
1523150006073735,-2,-5,10,-1,1,-3,-2,-2
1523150006073735,-4,-2,-1,-6,-4,-3,-2,-2
1523150006095153,0,-1,-5,0,-1,-4,-2,-2
1523150006095153,0,0,3,-1,1,1,2,-1
1523150006096294,1,1,-2,0,-3,-1,3,-1
1523150006096294,0,-2,-22,-5,-2,-2,-1,0
1523150006108327,-2,-2,25,4,3,3,0,-1
1523150006108327,0,0,6,-2,2,1,-2,0
1523150006117352,-2,-2,-16,-2,-2,-3,-2,-2
1523150006117352,0,1,-17,-2,-2,-2,-2,0
1523150006131956,-1,-1,2,-1,-3,-4,-3,-2
1523150006131956,-2,-3,5,-6,-1,-1,-3,0
1523150006133894,0,1,7,1,-3,-4,-4,-1
1523150006133894,-2,-3,7,2,0,0,1,0
1523150006155003,-1,1,-43,1,4,5,5,5
1523150006155003,-1,-2,0,-2,-2,-1,2,0
1523150006155956,-2,1,-23,-1,-3,-3,-3,-1
1523150006155956,1,0,28,-2,-4,-5,-5,-2
1523150006177560,-1,0,-1,-3,-2,-2,-1,-3
1523150006177560,-1,-1,-17,-1,0,-1,-1,-1
1523150006178515,1,-1,-10,1,1,0,0,0
1523150006178515,-3,-4,17,-2,-4,-3,-2,-3
1523150006192055,0,0,-6,0,-1,-1,-3,-2
1523150006192055,-1,0,-9,-1,0,-1,-1,0
1523150006193554,-1,-2,7,2,3,3,1,0
1523150006193554,-2,2,-17,-1,1,1,1,0
1523150006214614,-1,-3,-6,-3,-4,-4,-4,-2
1523150006214614,-1,0,0,-3,-4,-3,-4,-4
1523150006216113,0,3,13,2,1,1,0,1
1523150006216113,0,-1,-9,-2,0,1,0,-1
1523150006237172,-1,0,-2,-3,0,-1,0,0
1523150006237172,-1,-1,-1,-2,-2,-3,-2,0
1523150006238673,-2,-1,-9,-1,-3,-4,-3,-1
1523150006238673,1,-2,-2,1,1,-1,-1,-1
1523150006252211,1,-1,5,2,1,0,1,0
1523150006252211,-1,0,10,-3,1,-1,-1,0
1523150006253713,-1,-5,-19,-3,-2,-1,-1,-2
1523150006253713,-1,-1,4,-1,-1,-2,-1,0
1523150006274769,-1,-2,7,-2,-3,-1,-2,-2
1523150006274769,-1,-1,-5,-1,0,-1,-1,-1
1523150006276274,-2,0,-1,-2,-3,-4,-3,-1
1523150006276274,-2,1,3,0,1,0,0,0
1523150006297334,-1,-1,-5,2,1,2,2,2
1523150006297334,-2,0,5,-2,-2,-1,0,-2
1523150006298834,-1,-3,-6,-3,-2,-1,-3,-3
1523150006298834,-2,-1,8,-2,-2,-2,0,-2
1523150006312605,-1,0,-3,-1,-1,-1,-1,0
1523150006312605,-2,-1,-2,0,-3,-1,-1,-1
1523150006313873,0,0,8,1,1,4,3,-2
1523150006313873,0,0,-11,-1,0,1,1,2
1523150006334674,-2,-2,12,-4,-4,-1,-4,-2
1523150006334674,-1,-2,-15,-2,-1,-1,-4,-1
1523150006336436,-1,2,22,0,-1,-3,-3,-2
1523150006336436,0,-2,-3,0,1,0,0,0
1523150006356990,-2,0,0,0,-1,-2,-1,-1
1523150006356990,-3,-2,0,-1,-1,-2,0,-2
1523150006358492,0,-3,-8,-1,-1,-1,0,0
1523150006358492,0,1,1,0,-1,0,0,0
1523150006371526,-1,0,2,0,3,2,2,0
1523150006371526,0,0,1,-2,-3,-1,0,0
1523150006378760,-2,-1,-5,-2,-1,-1,-3,-2
1523150006378760,-1,-2,6,-1,-1,-2,-3,0
1523150006394828,-1,-2,-10,-2,0,-2,-2,-4
1523150006394828,0,-1,4,0,0,-1,0,0
1523150006396092,0,0,0,-1,1,-2,0,0
1523150006396092,-2,-1,-2,-1,-3,-1,-2,-3
1523150006424667,0,0,1,1,-1,0,-2,1
1523150006424667,0,-3,-10,0,-1,1,1,1
1523150006426173,0,0,18,-1,-2,0,0,1
1523150006426173,-2,-1,-3,0,-3,-3,-2,-3
1523150006431189,1,1,-12,-3,-4,-5,-2,-2
1523150006431189,0,-1,-6,-1,-1,-1,-3,-3
1523150006438737,0,-1,0,0,0,0,0,-1
1523150006438737,-2,-3,-14,-3,-2,-1,-2,0
1523150006454781,0,0,3,1,1,0,1,0
1523150006454781,-3,-1,-2,-1,0,3,1,2
1523150006456046,-1,1,-4,-1,-2,-3,-3,-1
1523150006456046,0,0,1,0,-1,-3,0,-2
1523150006477104,-2,-2,-4,-2,-3,-3,-3,-2
1523150006477104,-1,-1,0,-2,0,-3,-1,-2
1523150006478606,0,-1,-6,2,2,1,0,-1
1523150006478606,-1,1,9,-1,0,-1,-1,-1
1523150006491641,1,-2,-11,0,-1,-1,-1,0
1523150006491641,-1,0,15,0,0,0,-1,-1
1523150006498161,-2,-2,-2,-2,-1,-2,0,-1
1523150006498161,0,0,3,-1,-1,-3,-2,-3
1523150006514704,-2,-2,-8,0,1,-1,-1,-1
1523150006514704,0,-2,-10,1,0,1,0,1
1523150006516210,-2,-2,-6,-2,0,-2,-2,2
1523150006516210,-1,-1,3,0,-2,2,1,-2
1523150006537457,-1,-1,10,-1,-3,-4,-2,0
1523150006537457,-2,-3,-37,-4,-2,-4,-3,-3
1523150006538767,-2,-1,5,-1,-2,1,1,-1
1523150006538767,-1,-1,-11,1,0,0,2,0
1523150006551806,-2,1,15,-2,-3,-1,-1,-2
1523150006551806,-1,-3,1,-3,-4,-3,-3,-2
1523150006558364,1,-2,-5,-3,0,0,-1,-2
1523150006558364,-1,0,-5,1,2,4,1,2
1523150006574360,-1,-2,3,1,1,1,0,0
1523150006574360,-2,0,10,-2,-1,-1,-1,1
1523150006576365,-2,0,-1,-1,-5,-3,-1,0
1523150006576365,0,-2,-2,-1,-3,-3,-3,0
1523150006596922,-1,-3,-2,0,2,3,0,0
1523150006596922,0,1,7,1,0,0,2,0
1523150006598927,-1,0,-8,-3,-4,-4,-3,-1
1523150006598927,-5,-1,4,-3,-2,-2,-4,-1
1523150006611459,1,-1,-6,0,0,1,1,1
1523150006611459,-1,0,7,1,0,0,-1,-1
1523150006618718,-1,-2,-10,-2,-2,0,-3,-2
1523150006618718,0,0,1,-2,-1,-2,-1,0
1523150006634520,-3,-1,-5,-6,-5,-7,-5,-3
1523150006634520,-1,-1,-1,0,1,-2,0,-3
1523150006636027,1,2,10,4,3,4,4,0
1523150006636027,-2,-4,-26,-3,-2,0,1,-2
1523150006657083,-2,0,22,0,-4,-2,-3,-1
1523150006657083,1,0,2,-2,-2,-2,-2,-1
1523150006658585,-3,-1,12,0,-1,-2,-2,-2
1523150006658585,0,0,-30,-2,2,-2,0,-1
1523150006671866,0,-3,-6,0,0,0,1,0
1523150006671866,0,-2,0,-4,-3,-2,-1,-1
1523150006678766,0,-1,3,3,2,2,3,-1
1523150006678766,-2,-1,8,-1,0,-1,-1,-1
1523150006694686,-1,-3,-5,-1,-5,-3,-3,-1
1523150006694686,-1,-1,-9,-1,-1,-1,0,1
1523150006696186,-2,0,-4,-4,-1,-3,-1,-1
1523150006696186,-2,0,5,-1,-3,-2,-3,-2
1523150006717240,-1,-2,0,1,3,1,3,-1
1523150006717240,1,0,10,2,1,3,2,1
1523150006718746,-2,0,-7,-2,-3,-2,0,-1
1523150006718746,1,-1,9,-2,-2,-2,-3,-3
1523150006731337,-1,2,3,-1,-3,-4,-1,-3
1523150006731337,-3,-3,-18,0,0,0,-1,-3
1523150006739807,0,-2,15,0,1,0,-2,0
1523150006739807,0,2,13,1,1,2,1,0
1523150006754954,0,-5,-12,-5,-2,-2,-3,0
1523150006754954,-1,-2,-2,-1,0,-1,-2,-1
1523150006756345,0,-1,-11,-1,-1,-2,-1,-1
1523150006756345,-2,-2,9,-1,-4,-2,-2,0
1523150006777415,-2,0,3,-1,-1,-1,0,-2
1523150006777415,0,-1,3,1,0,-1,0,-1
1523150006778905,-2,-1,-5,0,1,2,1,0
1523150006778905,-2,-2,2,0,2,1,-1,1
1523150006790936,-3,-2,-9,-3,-1,0,-1,-2
1523150006790936,-1,0,5,-3,-2,-5,-3,-2
1523150006799961,-1,-3,-14,-3,0,-1,-1,-1
1523150006799961,2,0,9,2,0,-1,1,1
1523150006814698,0,-1,-4,-1,-1,0,-1,-1
1523150006814698,-4,-2,4,-2,-3,-3,-2,-3
1523150006816005,0,-6,-3,0,0,-2,0,-1
1523150006816005,-1,-2,-1,-1,0,-3,-1,0
1523150006837062,-1,2,11,2,-1,-3,-2,-3
1523150006837062,-1,2,-1,-2,-1,0,-1,0
1523150006838565,-3,-2,-14,-3,1,1,2,1
1523150006838565,2,2,-11,0,-4,0,-1,-2
1523150006850805,2,1,23,1,1,-2,0,2
1523150006850805,-2,9,1,0,2,2,1,2
1523150006859620,-1,-2,5,-1,-4,-4,-5,-4
1523150006859620,-4,-5,-7,-3,-2,-2,-1,-3
1523150006874709,0,-5,-12,-1,0,0,-1,-2
1523150006874709,3,-1,1,2,0,0,1,1
1523150006876165,1,2,5,0,-2,-1,-1,1
1523150006876165,1,4,-3,-2,0,-2,-11,1
1523150006897220,0,-1,-5,-2,-2,-3,11,0
1523150006897220,-2,-6,1,-2,-2,-3,-2,-3
1523150006898725,-2,2,-3,0,1,2,1,0
1523150006898725,-1,-3,-3,-2,-1,0,0,-1
1523150006910985,-2,3,12,-1,-2,-1,-3,0
1523150006910985,-6,-7,-21,-1,0,-1,-3,-2
1523150006919781,-3,-2,20,-2,-4,-2,-1,-3
1523150006919781,-1,-2,2,-3,-2,-3,1,-3
1523150006933715,-1,2,-3,1,0,-2,-3,-1
1523150006933715,3,1,-1,0,0,-1,1,4
1523150006942470,-1,0,18,3,0,-1,-3,2
1523150006942470,-3,-6,4,-7,-2,-2,-1,-2
1523150006957012,-3,-2,-10,-4,-2,-1,-2,-1
1523150006957012,1,0,9,-2,-1,-1,-2,-1
1523150006958514,3,-1,-16,-2,-3,-3,-3,-3
1523150006958514,-4,0,7,2,1,-1,4,0
1523150006979569,-4,2,-13,0,2,2,-1,-2
1523150006979569,8,0,5,2,1,1,-1,2
1523150006981073,0,1,-6,-2,1,2,1,-1
1523150006981073,-2,0,23,0,-3,-1,0,0
1523150006994611,-4,-5,2,-7,-5,-6,-6,-3
1523150006994611,-5,-4,-8,-2,-2,-3,-1,-2
1523150006996115,2,1,-8,-2,-1,-1,0,1
1523150006996115,2,0,-2,0,0,-1,0,-1
1523150007017415,-2,0,-7,2,1,3,0,0
1523150007017415,-2,-3,-5,-2,1,1,1,-2
1523150007018674,2,0,2,-1,-2,-2,-5,-3
1523150007018674,-1,-2,-9,0,1,-2,-1,-2
1523150007030705,0,-2,1,-2,-1,-1,-2,1
1523150007030705,-3,0,-1,0,-2,-2,-2,-3
1523150007039731,-3,-4,-9,0,2,2,1,2
1523150007039731,0,1,-1,-1,1,1,-2,-2
1523150007054950,2,1,0,-1,-3,-2,-4,-1
1523150007054950,-5,-3,-6,-5,-2,-4,-3,-2
1523150007056342,-3,-1,-17,-1,-1,-3,0,-2
1523150007056342,2,1,16,1,2,2,1,0
1523150007077096,0,-2,-7,-2,-1,-1,-1,-1
1523150007077096,0,1,-2,-1,-1,-2,0,-1
1523150007078902,-3,-1,-1,-3,-5,-2,-3,-1
1523150007078902,-2,0,-6,-1,-3,-3,1,-1
1523150007090933,0,-3,-5,0,1,0,-1,0
1523150007090933,0,0,8,2,-1,0,0,-1
1523150007099959,-1,1,0,-1,-1,-2,0,-1
1523150007099959,-1,-1,-2,-1,-2,-2,0,1
1523150007114556,-1,-1,-3,1,4,1,1,1
1523150007114556,0,0,-2,1,2,3,2,1
1523150007116003,-1,-2,19,-1,-2,-1,0,0
1523150007116003,-1,-1,-8,-4,-5,-1,-3,-1
1523150007137059,0,-2,-3,-3,-4,-6,-3,-2
1523150007137059,0,0,1,1,0,0,-1,-1
1523150007138561,0,-1,-4,1,0,0,0,-1
1523150007138561,-2,-2,-3,0,-2,-1,-1,-2
1523150007159617,3,0,-9,-2,0,1,-1,-1
1523150007159617,-2,-3,11,-3,-5,-4,-2,-2
1523150007161121,0,0,-2,-2,-3,-3,-3,-1
1523150007161121,-3,-2,-6,0,3,1,-1,1
1523150007174656,-2,-1,1,1,0,2,1,1
1523150007174656,-1,-1,-5,0,-1,0,-1,-2
1523150007176160,-1,-2,-7,-1,-2,-2,-1,-2
1523150007176160,0,-2,3,-1,-3,-3,0,-1
1523150007197215,0,-1,-2,2,2,0,-1,0
1523150007197215,0,0,-1,-2,0,-2,-2,0
1523150007198723,0,-2,0,-2,-2,-2,-2,-1
1523150007198723,-1,-3,-10,-2,-1,-2,-2,-3
1523150007220149,-2,-1,4,1,4,3,4,-1
1523150007220149,-1,0,-4,-1,-1,0,-1,-2
1523150007221282,-1,-2,1,-1,-2,-2,-5,-2
1523150007221282,1,0,4,-2,-2,-2,-3,0
1523150007234134,-2,-2,-22,-2,0,-2,1,0
1523150007234134,-1,1,23,2,5,5,2,1
1523150007240832,-1,-1,-4,1,1,0,-1,0
1523150007240832,1,-1,-4,1,-3,-1,-1,-1
1523150007257377,-3,-1,6,-3,-7,-6,-4,-3
1523150007257377,-1,0,-5,-2,-2,-3,-2,-2
1523150007259383,-1,0,-2,0,3,3,2,0
1523150007259383,-2,0,-6,-1,-2,-1,-1,-2
1523150007287566,-4,-1,3,0,-1,-3,-3,-1
1523150007287566,0,-1,-3,-1,-2,-2,-1,1
1523150007288461,1,0,2,-2,1,1,0,0
1523150007288461,-2,-1,0,1,-2,-2,0,-1
1523150007293974,0,-4,-11,-1,-2,-2,-3,-2
1523150007293974,-2,-2,-4,-1,-1,0,1,-2
1523150007300897,-2,-2,-4,-1,0,-1,0,1
1523150007300897,-1,0,0,-2,0,0,-2,-1
1523150007317556,-1,0,2,0,-1,-2,-4,-1
1523150007317556,-1,-1,-1,-1,-4,-4,-2,0
1523150007319184,-1,-2,-9,0,0,-2,0,-1
1523150007319184,-1,-1,-12,-1,1,0,2,-1
1523150007339600,-1,2,31,-1,-3,-1,0,-1
1523150007339600,-2,-2,2,0,-2,-2,-1,0
1523150007341099,-2,-1,2,0,0,1,1,0
1523150007341099,0,-2,-6,-1,-2,-3,-1,0
1523150007354635,1,-1,2,-2,-3,-3,-3,-2
1523150007354635,0,0,-2,1,0,0,-1,0
1523150007361046,0,0,1,-2,-3,-3,-3,-2
1523150007361046,0,2,13,-1,1,-1,-1,-1
1523150007377195,-2,-5,-21,-4,-1,-3,0,-1
1523150007377195,-2,-2,-1,-3,-3,-5,-5,-2
1523150007378700,0,0,3,1,3,2,1,1
1523150007378700,1,0,1,3,3,4,1,0
1523150007399963,-1,-1,-7,-2,0,2,1,1
1523150007399963,-2,-3,-7,-5,-4,0,-2,-1
1523150007401260,-2,-1,-1,-2,-5,-6,-3,-2
1523150007401260,-2,-1,-1,-1,-3,-3,-2,-2
1523150007414024,0,0,2,2,2,3,1,0
1523150007414024,1,-1,-14,1,0,0,0,0
1523150007421053,-3,1,28,-3,-5,-1,-1,-2
1523150007421053,0,-4,-8,-1,-4,-3,-2,-1
1523150007437566,0,0,-2,0,0,-2,0,-3
1523150007437566,-2,-2,1,-1,2,-1,0,-3
1523150007438883,-1,-3,-14,0,2,2,0,0
1523150007438883,0,-1,0,-1,-1,-1,0,-1
1523150007460094,-1,0,7,-1,-3,-3,-2,-2
1523150007460094,1,-2,-5,-3,-1,-2,-2,-3
1523150007461421,-2,-2,-3,0,0,-1,1,-1
1523150007461421,-1,0,4,1,2,3,0,1
1523150007473952,-1,-2,-5,0,0,0,-1,-1
1523150007473952,-1,-2,4,-2,-2,-2,-2,-3
1523150007480972,1,-2,-5,-4,-6,-4,-4,-3
1523150007480972,-2,-2,1,0,1,1,2,0
1523150007497016,-1,0,8,0,0,2,1,2
1523150007497016,-1,-2,-6,0,-2,-1,0,1
1523150007498518,-3,-1,-3,-2,-2,-4,-2,-4
1523150007498518,5,-1,-5,0,-1,1,-1,0
1523150007519959,-1,0,0,0,0,0,0,0
1523150007519959,-2,-1,3,0,-1,1,-1,-1
1523150007521678,-2,-1,-7,0,0,2,2,2
1523150007521678,0,1,-2,-2,-4,-4,-2,0
1523150007534991,-1,-1,-3,-2,-2,-2,-3,-2
1523150007534991,0,-1,-6,-3,-3,-3,-2,-1
1523150007540630,-1,-1,-13,-2,-1,-2,-2,-3
1523150007540630,-3,0,18,1,4,2,2,0
1523150007556172,-1,-1,-4,1,0,3,1,2
1523150007556172,-1,0,-5,0,-1,-1,0,-1
1523150007565236,1,-1,1,0,-2,-1,-2,-2
1523150007565236,-2,-2,-5,-4,-4,-3,-2,-2
1523150007579733,-1,-2,-5,-1,-3,-3,-3,-1
1523150007579733,-2,0,6,0,1,0,0,1
1523150007581243,-1,-1,2,1,0,1,2,2
1523150007581243,-1,-3,-6,-1,-1,1,-2,-1
1523150007594152,-2,-2,-1,-2,-1,-4,-2,-2
1523150007594152,-1,2,5,-1,-1,-1,-2,0
1523150007600790,-1,-4,-3,-1,-1,-4,-1,-2
1523150007600790,-1,0,-12,-1,1,0,-1,-2
1523150007617333,-1,1,8,-3,-1,1,0,1
1523150007617333,-1,-1,2,1,-2,-1,1,0
1523150007618839,-1,-1,0,-2,-3,-1,-3,-2
1523150007618839,0,-1,-2,0,-1,-2,-1,-1
1523150007639394,-1,-2,7,0,-1,0,0,-2
1523150007639394,-1,-4,-9,-3,-1,-2,0,-1
1523150007641549,-1,-1,-9,-2,-2,-1,-4,1
1523150007641549,-1,2,27,0,-1,-1,1,1
1523150007653933,-1,1,-3,2,3,1,1,1
1523150007653933,-2,-2,1,-1,2,1,2,0
1523150007669975,-1,-1,-3,-2,-2,-1,-1,-3
1523150007669975,-2,-1,-9,-3,-2,-4,-2,0
1523150007677607,-1,-1,1,-2,-4,-3,-1,-3
1523150007677607,0,1,5,0,-3,-2,0,-1
1523150007678504,-1,-2,3,0,1,0,0,1
1523150007678504,-5,-4,-14,0,-1,0,-2,-1
1523150007699908,0,0,-4,-1,-2,-2,-1,0
1523150007699908,-1,-2,-8,-4,-1,-1,-3,-3
1523150007701714,-2,2,11,1,1,1,1,-2
1523150007701714,1,-1,-4,-1,0,1,-1,0
1523150007713469,-2,-1,-10,-3,-2,-3,-2,-2
1523150007713469,-2,-3,3,-1,-3,-4,-5,-2
1523150007722114,1,0,-15,1,4,3,2,1
1523150007722114,-3,-3,0,0,-1,0,0,-1
1523150007737154,-1,-3,-6,-3,-1,-1,0,0
1523150007737154,-1,1,2,-2,-1,-2,-2,-2
1523150007738657,-1,-1,1,-2,-4,-6,-3,-1
1523150007738657,-2,-1,6,0,0,0,1,-3
1523150007759713,-3,-3,-7,0,1,0,2,-1
1523150007759713,0,0,1,1,2,2,2,-1
1523150007761218,-1,-2,1,0,0,0,0,-2
1523150007761218,0,1,-3,-3,-5,-4,-3,-2
1523150007773249,0,-2,0,-3,-3,-4,-2,-2
1523150007773249,-3,0,0,2,2,3,3,2
1523150007782275,-1,0,-2,0,2,1,1,1
1523150007782275,-1,0,-2,-1,-1,-3,-1,-2
1523150007796811,-1,0,6,-2,-3,-2,-5,-3
1523150007796811,0,-3,-15,-1,-2,-2,-2,-2
1523150007798850,-1,0,6,0,-1,-1,0,0
1523150007798850,-2,-2,-5,-1,-1,-2,-1,-1
1523150007820032,0,-1,-1,0,0,-1,0,0
1523150007820032,0,-1,4,-1,-1,0,0,-1
1523150007821715,0,-1,-19,1,-1,-1,-2,-1
1523150007821715,-2,-2,36,0,0,-1,-1,-2
1523150007833700,-1,0,2,-3,0,-1,-1,0
1523150007833700,0,-1,0,-1,-2,-1,-2,-1
1523150007842434,-6,0,4,-2,-3,-2,0,-2
1523150007842434,9,-1,-21,-3,-1,-2,-1,2
1523150007856971,-1,-1,-3,0,1,2,1,0
1523150007856971,-2,0,5,0,0,1,1,0
1523150007858477,-1,0,4,-3,-3,-3,0,0
1523150007858477,-4,0,-9,-4,-5,-4,-5,-4
1523150007879731,0,-1,0,-1,-1,-3,-4,-2
1523150007879731,-2,-3,-7,4,4,3,1,3
1523150007881749,0,0,6,-1,-1,0,-1,-1
1523150007881749,-2,-2,-4,-1,-2,1,1,-1
1523150007893446,1,0,-5,-3,-4,-2,-2,-2
1523150007893446,-1,0,-2,-2,-3,-4,-3,-2
1523150007902093,-1,0,7,-1,4,4,0,2
1523150007902093,0,-1,-7,1,0,2,0,1
1523150007917757,-1,0,-9,0,0,0,-1,1
1523150007917757,-1,-2,22,-1,-3,-3,-3,-3
1523150007918996,0,-2,3,0,-2,-2,-3,-2
1523150007918996,0,0,-7,-1,0,-2,-2,-1
1523150007939491,-1,-1,1,1,0,1,-2,0
1523150007939491,0,-1,-11,2,2,2,1,1
1523150007940996,-2,-2,1,-5,-2,-4,-3,-3
1523150007940996,-3,-2,2,1,0,1,1,0
1523150007953376,-2,0,-1,-3,-3,-1,0,0
1523150007953376,0,-1,-5,-3,-4,-4,-4,-4
1523150007962052,0,1,11,1,0,0,0,1
1523150007962052,-1,-4,-26,-2,2,0,2,-2
1523150007977091,-1,-2,-1,0,-1,-2,0,-2
1523150007977091,-1,-1,0,0,1,2,0,1
1523150007978599,2,-3,-4,-2,-1,0,-1,-1
1523150007978599,-2,0,8,-1,-1,-3,-3,-1
1523150007999827,-1,-1,-6,-1,-1,0,2,0
1523150007999827,0,0,-1,-2,-1,-3,-2,-2
1523150008001547,-1,-2,-1,0,0,-1,1,-1
1523150008001547,0,0,1,1,0,0,-2,-1
1523150008013868,-1,-4,-2,-1,-1,-1,-2,-2
1523150008013868,2,-1,-7,-2,-2,-2,-1,-1
1523150008022062,0,-1,-4,1,0,-1,-2,-1
1523150008022062,-2,-1,1,0,1,-1,1,0
1523150008036907,-4,0,9,-2,0,-1,-1,-1
1523150008036907,0,-1,-13,-3,-3,-2,0,-2
1523150008037060,-3,0,2,0,-4,-4,-3,-3
1523150008037060,-2,1,8,-1,0,0,-1,0
1523150008059119,-1,-3,-14,1,-1,1,2,1
1523150008059119,-3,-1,-3,0,-3,-3,0,-1
1523150008059623,0,-1,-3,-2,-3,-3,-2,-2
1523150008059623,0,0,20,0,-2,-1,-2,-1
1523150008081937,-2,-3,-7,-1,-1,-2,-1,-1
1523150008081937,0,0,-1,0,1,0,0,-1
1523150008082085,-2,-1,11,0,-2,-2,-2,-3
1523150008082085,-1,1,1,-1,0,0,-2,-1
1523150008096667,-1,0,4,0,0,0,-1,-1
1523150008096667,-3,-3,-3,-1,-1,-1,-2,0
1523150008097126,1,-1,-6,-3,-2,-2,-1,0
1523150008097126,-1,-3,-9,-2,-1,-4,-2,-2
1523150008119508,1,0,-5,-1,-2,-3,-2,-1
1523150008119508,0,0,10,1,1,0,-1,0
1523150008120189,-3,-2,-6,0,-1,0,-1,-1
1523150008120189,-1,0,-2,1,0,0,0,0
1523150008141562,0,-2,-3,-1,-3,-2,0,-2
1523150008141562,-2,0,7,-1,0,-2,0,0
1523150008142249,-2,-2,-8,-2,0,-1,1,0
1523150008142249,-1,0,0,0,-1,-1,1,0
1523150008156282,0,0,4,-2,1,0,1,0
1523150008156282,0,-2,0,-1,-2,-1,-2,-1
1523150008157286,-1,0,-4,-3,-2,-1,-4,-1
1523150008157286,-1,-2,-10,-1,-5,-4,-3,-2
1523150008179044,0,-3,-10,0,1,1,-2,-1
1523150008179044,0,-1,-3,-1,2,2,0,-1
1523150008179546,0,0,7,0,-1,-1,0,-1
1523150008179546,-1,1,5,-1,-1,-1,-2,-1
1523150008201603,-2,-2,-4,-5,-2,-3,-2,-1
1523150008201603,-1,-1,-1,-1,-1,0,0,-2
1523150008202106,1,-1,-7,-1,0,-2,-1,-1
1523150008202106,-1,-3,-1,-2,-1,-3,-1,0
1523150008216819,0,2,12,2,0,0,1,-1
1523150008216819,-2,0,-2,0,0,1,0,-1
1523150008217143,-1,-3,-14,-2,1,-1,0,-1
1523150008217143,0,-1,9,-1,0,-1,-1,0
1523150008238702,0,-1,-2,-2,-3,-1,-2,-2
1523150008238702,0,-1,-3,-1,-2,-1,-3,-1
1523150008239705,-1,0,10,-2,-3,-2,0,-1
1523150008239705,2,-2,-4,-3,-1,-3,-1,-4
1523150008261800,1,1,2,2,5,3,3,2
1523150008261800,-1,0,3,-2,-1,-1,2,1
1523150008262265,-1,-3,-12,-1,-1,-1,-1,-1
1523150008262265,-2,0,-8,-3,-5,-4,-3,-1
1523150008276440,-1,0,9,-1,-5,-7,-5,-2
1523150008276440,0,1,7,0,1,1,2,0
1523150008276939,1,-1,-16,1,1,2,1,0
1523150008276939,-1,-3,8,-1,-1,-1,0,-1
1523150008299065,-2,-2,-4,-3,-3,-2,-3,-2
1523150008299065,-1,0,4,-2,-2,-4,-3,-1
1523150008299502,2,1,-2,2,3,3,1,0
1523150008299502,-1,-2,-1,1,-1,1,-2,0
1523150008321645,-2,-1,14,-2,-2,0,-1,-1
1523150008321645,1,-1,-14,-3,-2,-2,-2,-1
1523150008322059,0,2,31,1,-3,-2,-2,-1
1523150008322059,0,-1,-12,-1,-1,0,-1,-1
1523150008336674,0,1,0,1,0,2,-1,1
1523150008336674,-7,-3,0,-3,-3,-3,-1,-3
1523150008337100,7,-1,-5,-4,-3,-2,-2,1
1523150008337100,-1,-1,-2,0,3,0,-1,-2
1523150008358658,-1,-2,0,0,0,1,1,1
1523150008358658,-2,0,-2,-2,0,1,-1,-2
1523150008366728,-3,-2,-2,-3,-1,-1,-2,-2
1523150008366728,-2,2,0,-4,-3,-2,-2,0
1523150008381292,0,-3,-10,-3,0,-3,-2,-2
1523150008381292,-1,-1,10,1,-1,-1,-2,-2
1523150008382220,-3,-1,-2,0,1,1,1,-1
1523150008382220,-1,-1,4,-1,-2,-1,0,-1
1523150008397766,-2,0,-3,-1,-2,-3,-1,-2
1523150008397766,0,-2,-5,0,1,-2,1,1
1523150008398765,-1,-1,4,-2,0,-1,0,-1
1523150008398765,-1,-4,-17,-2,0,2,-1,0
1523150008418817,0,0,24,0,0,-1,-1,-2
1523150008418817,-2,-2,-5,0,-1,-1,-3,-1
1523150008419823,-2,-1,-4,2,0,-1,0,-1
1523150008419823,-2,-1,-3,-2,-1,1,0,-1
1523150008441473,0,-2,-9,-3,-2,-2,-3,-3
1523150008441473,1,-1,-3,-3,-3,-3,-2,-2
1523150008442382,-3,2,8,0,0,-2,-3,-1
1523150008442382,-2,-5,-16,0,0,2,0,-1
1523150008456416,-1,-1,-4,-2,0,-1,1,1
1523150008456416,1,-1,-2,0,0,-1,0,-2
1523150008456919,0,-2,-3,-2,-2,-1,0,0
1523150008456919,-3,0,4,-3,-3,-4,-5,-3
1523150008478978,-3,-1,-3,0,1,0,2,-1
1523150008478978,1,2,-2,0,1,1,0,1
1523150008479478,-3,-3,-8,-4,-1,-2,-3,-1
1523150008479478,-1,-1,3,-1,2,0,-1,-1
1523150008501537,-1,-1,-10,-1,-1,1,-3,-2
1523150008501537,0,0,0,-1,-3,-3,0,-2
1523150008509060,-2,-2,-1,-3,-3,-2,-1,-2
1523150008509060,-1,0,7,1,1,-2,-2,-1
1523150008516651,0,0,-4,1,4,5,1,0
1523150008516651,-1,-2,-14,-1,0,2,-2,1
1523150008517080,-1,-1,10,-1,-2,-1,-2,-1
1523150008517080,-1,-1,-6,-2,-4,-4,-1,0
1523150008538637,0,-1,4,0,-2,-3,-4,-1
1523150008538637,-1,-1,-1,-1,-1,-1,-4,-1
1523150008539639,0,0,-3,0,1,-2,0,-3
1523150008539639,-3,-2,3,1,0,1,1,1
1523150008561740,0,0,-1,0,1,3,2,0
1523150008561740,-3,-2,2,-1,-2,-1,-1,-2
1523150008562199,-1,-2,-8,1,-2,2,0,0
1523150008562199,0,0,8,-1,-1,-2,0,-2
1523150008576307,-3,-3,-13,-2,-3,-3,-2,-3
1523150008576307,-2,-2,1,-3,-2,0,-2,-1
1523150008577240,-1,1,3,0,0,1,1,0
1523150008577240,0,0,-5,0,-2,-1,-2,-2
1523150008599319,-1,-1,1,0,-1,0,0,-1
1523150008599319,1,-2,3,0,2,1,1,0
1523150008599799,-2,-2,-4,-1,-1,1,-1,-1
1523150008599799,-1,-1,0,-3,-1,-1,-3,-1
1523150008621419,0,0,1,-2,-2,-3,-2,-1
1523150008621419,-2,0,3,0,0,-1,-2,-3
1523150008622362,-1,-2,-2,-1,0,-1,0,0
1523150008622362,1,0,-15,0,1,0,-2,-1
1523150008636467,-3,-2,24,-2,-4,-5,-2,-2
1523150008636467,-3,-2,-2,0,0,-1,1,0
1523150008636899,-1,0,1,0,1,2,0,0
1523150008636899,-1,-1,0,0,-1,0,0,-1
1523150008659030,1,-1,-4,-3,-1,-1,-1,-1
1523150008659030,0,-1,2,-1,-3,1,0,-2
1523150008659457,-3,1,1,-1,-2,-3,0,-2
1523150008659457,-1,-1,0,0,0,1,1,1
1523150008681591,0,-2,-3,1,0,1,0,1
1523150008681591,0,-1,1,-3,-4,-4,-3,-2
1523150008682017,-1,-3,-22,-4,-2,-3,-4,-1
1523150008682017,-1,0,19,2,1,1,1,-1
1523150008695621,-2,0,-2,-3,-2,-1,1,2
1523150008695621,-2,-1,-1,-2,-1,-1,-3,-1
1523150008704144,-2,0,-17,-1,1,-1,0,1
1523150008704144,0,-2,2,-2,-1,0,-2,-1
1523150008719219,-1,-1,-3,1,-1,0,0,0
1523150008719219,-1,0,3,0,-1,-2,-3,-3
1523150008719687,-1,-3,-5,-2,-2,-2,-2,0
1523150008719687,1,-1,-1,0,0,-1,0,-1
1523150008741744,1,1,1,0,1,2,0,-1
1523150008741744,-2,-3,-7,-2,-1,0,1,0
1523150008742244,-2,-1,8,0,-3,-4,-2,0
1523150008742244,-2,-2,-1,-2,-1,-2,-1,1
1523150008755782,-2,-2,-4,-1,-1,-1,0,-1
1523150008755782,-1,-1,0,-2,-2,-1,1,-2
1523150008763883,1,-1,5,-1,1,1,-3,-1
1523150008763883,0,-2,0,-1,0,1,2,0
1523150008778842,-1,-2,-5,-1,-1,-1,-1,-2
1523150008778842,-2,0,-2,-1,-1,-4,-3,-2
1523150008779846,-2,-1,4,-1,1,1,-1,-2
1523150008779846,0,0,-7,0,0,0,-1,-1
1523150008801402,-1,-1,-1,-2,-3,-4,-2,-2
1523150008801402,0,-2,-1,0,-1,0,-2,0
1523150008802405,-1,0,1,0,0,0,1,-1
1523150008802405,-2,-1,-6,-4,-2,-1,-2,-1
1523150008815939,-2,-1,1,-1,-3,-1,-2,-1
1523150008815939,-1,-2,-1,0,0,0,0,-1
1523150008824042,0,-1,-8,-1,0,-1,-1,-1
1523150008824042,-2,0,8,0,-3,-4,-1,-3
1523150008839002,0,0,-10,0,2,0,0,-1
1523150008839002,-1,-1,10,-1,0,-1,-2,0
1523150008839502,-2,-2,-2,-1,-2,0,-1,0
1523150008839502,-2,-1,-2,-2,-2,-3,-1,-2
1523150008861632,-1,-3,-7,-2,-1,-3,-3,-2
1523150008861632,-1,-1,-2,0,2,0,3,1
1523150008862063,0,-1,5,0,1,2,3,-1
1523150008862063,0,-1,-5,-3,-3,-1,-4,-1
1523150008875783,-2,0,3,0,0,-2,-3,0
1523150008875783,-1,-1,-2,-1,-3,-1,-1,-1
1523150008884268,0,-1,6,-2,-2,0,-2,-1
1523150008884268,1,-1,-3,3,1,1,2,1
1523150008898844,-1,-1,-1,-2,-2,0,0,-3
1523150008898844,0,1,-7,-4,-2,-3,-2,-3
1523150008899773,0,-1,-2,0,-2,-2,1,-2
1523150008899773,0,-1,0,1,1,-1,0,-1
1523150008921873,0,-2,-7,-1,-3,-3,0,1
1523150008921873,-2,0,17,1,-2,-2,-1,-1
1523150008922837,0,-2,-8,1,4,4,3,1
1523150008922837,-2,-1,17,-1,-1,1,1,1
1523150008935939,-2,0,-4,-2,-1,-2,-2,-1
1523150008935939,-1,-2,-6,-3,-4,-3,-3,-1
1523150008951411,0,0,-5,-2,-1,-2,-1,0
1523150008951411,0,-3,7,-1,0,-1,0,1
1523150008959002,0,0,4,1,0,1,0,0
1523150008959002,0,-2,-4,-2,-1,0,-3,-1
1523150008959933,-3,-1,4,1,-1,-1,-1,0
1523150008959933,0,-2,-12,-1,-1,-1,-1,-3
1523150008981699,0,-2,6,-1,2,2,1,1
1523150008981699,-1,-1,-6,-2,1,1,0,-2
1523150008982130,0,-2,-2,-2,-4,-2,-2,-1
1523150008982130,-2,3,11,-3,-4,-4,-4,-2
1523150008995718,-3,-3,-17,0,-1,0,-3,-2
1523150008995718,-1,-1,-1,3,3,3,2,1
1523150009004224,-1,-1,7,0,-1,0,0,-2
1523150009004224,-2,-3,-11,-3,-4,-3,-1,0
1523150009018754,1,0,8,1,-2,-3,-3,-2
1523150009018754,-1,-1,-12,-1,-1,0,-1,-2
1523150009019729,-1,-2,16,-2,-3,-4,-5,-4
1523150009019729,0,2,5,2,4,2,2,-1
1523150009041787,-1,-2,-7,-3,-3,-1,-2,-1
1523150009041787,-1,-2,-19,-1,-3,-2,0,1
1523150009042289,0,0,11,-1,0,-2,-2,0
1523150009042289,1,-2,-10,0,0,-1,-1,0
1523150009064880,-2,0,7,-4,-2,0,1,-2
1523150009064880,0,-2,-3,-3,-5,-5,-5,-1
1523150009065351,-2,0,-8,-3,-3,-3,-2,-2
1523150009065351,0,0,-3,3,7,5,2,2
1523150009079096,0,-1,-6,1,1,0,0,1
1523150009079096,-1,0,10,-3,-3,-1,-1,0
1523150009079596,-2,0,-2,-1,-4,-4,-3,-2
1523150009079596,-1,-2,-11,-3,-2,-1,-1,-1
1523150009101237,-2,-1,3,0,1,-1,-2,1
1523150009101237,1,0,5,2,0,0,-1,-1
1523150009102155,-2,-3,-1,-1,-4,-4,-4,0
1523150009102155,-1,-1,-3,-1,0,-2,-1,-4
1523150009124764,0,-3,-8,1,1,3,1,2
1523150009124764,-1,-1,3,-2,-1,0,1,-1
1523150009125217,-2,1,-6,-2,-3,0,-1,0
1523150009125217,-1,-4,-1,-3,-5,-3,-2,-3
1523150009138758,0,1,1,-2,-1,-2,0,-1
1523150009138758,0,0,1,0,1,1,1,-1
1523150009139761,0,-2,-5,-1,-1,1,0,-1
1523150009139761,0,1,1,-4,-4,-3,-3,-2
1523150009161316,-2,-1,-9,-1,-1,0,-2,-1
1523150009161316,0,-1,13,1,2,1,1,-1
1523150009162320,0,-2,-4,-1,-2,-2,-1,-2
1523150009162320,-4,-2,-2,-1,-1,-2,-2,-2
1523150009184454,0,-1,-2,1,4,2,3,0
1523150009184454,-1,0,-1,-1,0,1,0,-1
1523150009185377,-2,-3,-3,-4,-2,-3,-2,-1
1523150009185377,-1,-1,-1,1,-1,-2,-3,0
1523150009199416,0,0,4,-2,-1,-3,-3,-2
1523150009199416,-1,0,-3,0,-1,-2,-1,1
1523150009199917,-2,-2,3,0,-1,-1,0,0
1523150009199917,-2,-4,-13,-4,-4,-2,-2,-1
1523150009229690,-1,0,12,-2,-3,-2,-2,-2
1523150009229690,-1,1,-1,-1,1,-1,-1,0
1523150009230501,-1,-4,0,0,3,3,2,-1
1523150009230501,-1,0,-1,1,0,-2,2,-1
1523150009244783,-1,0,3,0,-2,-1,-1,-2
1523150009244783,-2,-4,-6,-5,-6,-4,-5,-3
1523150009245538,1,0,1,1,1,0,0,-1
1523150009245538,0,0,-4,3,6,5,3,3
1523150009259075,-1,-1,4,-2,-2,-1,-3,-1
1523150009259075,-2,-2,-1,0,-2,-2,0,-1
1523150009259577,-2,1,-5,-3,-4,-2,-2,-1
1523150009259577,-1,0,2,-2,-4,-3,-4,-4
1523150009281658,-1,0,-4,0,-1,-2,0,-1
1523150009281658,-1,-2,-11,1,3,1,1,-1
1523150009282415,1,0,8,0,1,2,0,1
1523150009282415,-2,-3,-2,-3,-2,-2,1,-2
1523150009304477,-1,-1,5,-2,-3,-3,-3,-1
1523150009304477,-1,-2,-2,0,-3,-1,-1,-1
1523150009305474,0,-1,-7,-2,1,0,-1,0
1523150009305474,0,0,1,1,-1,0,-2,0
1523150009319015,-1,-1,-2,-2,-2,-2,-1,-1
1523150009319015,-1,-3,-3,1,1,1,-1,-1
1523150009319513,1,1,21,1,-1,1,2,1
1523150009319513,-1,-5,-17,-3,-3,-3,-3,-1
1523150009341819,0,2,9,0,-2,-2,-2,-2
1523150009341819,-1,-2,2,-1,-2,-3,-3,0
1523150009342075,-2,1,-6,-1,2,0,-1,-2
1523150009342075,0,1,3,-1,0,1,0,1
1523150009364791,-2,-3,-1,-2,-1,0,1,-1
1523150009364791,-1,-1,-5,-2,-3,-2,-2,0
1523150009365134,0,-1,-4,0,-1,-3,-2,-3
1523150009365134,0,2,14,0,0,1,-1,-1
1523150009378670,-1,-5,-22,-1,0,1,2,-1
1523150009378670,0,1,5,-2,-2,-1,0,-2
1523150009379675,-1,-2,-10,-1,-4,-4,-3,-1
1523150009379675,-1,0,6,0,-2,-1,-1,-1
1523150009401888,-1,0,4,-3,-2,-1,-1,0
1523150009401888,0,-3,-14,2,3,2,0,0
1523150009402233,-1,-1,5,0,0,2,1,-2
1523150009402233,-2,-1,-5,-2,-2,0,-3,-1
1523150009424791,1,0,3,2,0,0,-2,-1
1523150009424791,-2,-2,-7,-2,-2,-3,0,0
1523150009425296,-1,-2,-7,-3,-1,-2,-3,-1
1523150009425296,-1,0,8,0,0,-1,-3,-1
1523150009438829,-1,-1,-1,0,2,2,-1,-3
1523150009438829,-1,0,-12,-1,0,1,0,-1
1523150009439831,-1,1,15,-1,-2,-2,-1,-1
1523150009439831,-1,0,3,-1,-2,-2,1,-1
1523150009461393,0,-3,-18,-4,-3,-3,-2,2
1523150009461393,-1,1,10,-1,0,-1,0,0
1523150009462393,-2,-3,-17,0,-1,-1,-1,1
1523150009462393,-1,-1,-4,0,2,-3,1,-2
1523150009484952,-1,2,-4,2,1,2,1,1
1523150009484952,-1,0,5,-1,-3,0,0,-1
1523150009485455,-1,0,-6,-2,-2,-2,-2,0
1523150009485455,0,-2,-4,-2,-4,-1,-1,-2
1523150009507219,-1,0,-5,0,-2,-3,-2,-1
1523150009507219,-1,-1,7,-1,-1,0,0,-3
1523150009508018,0,-1,-3,0,1,0,3,0
1523150009508018,-2,-1,-3,-1,-2,0,-1,0
1523150009521550,-1,-2,4,0,-2,-2,-1,-1
1523150009521550,-2,-2,-1,-2,-3,-1,-3,-2
1523150009522050,0,1,1,-2,-1,0,-5,-2
1523150009522050,1,0,1,-2,0,-1,-2,-2
1523150009544853,-1,-1,-2,-3,-2,0,-1,0
1523150009544853,-1,-3,-1,1,3,0,0,0
1523150009545113,-2,1,6,0,-3,0,1,0
1523150009545113,2,-2,-13,-1,1,0,-1,-1
1523150009559291,-2,-1,26,-1,-3,-3,-3,-2
1523150009559291,0,-2,-10,-3,-4,-5,-3,-3
1523150009559653,-2,-1,-4,0,-3,-5,-3,-1
1523150009559653,0,-1,-5,0,2,2,1,-1
1523150009581922,-1,0,17,0,1,0,1,-1
1523150009581922,-1,0,-3,1,3,2,0,1
1523150009582211,-1,-1,-1,-2,-2,-1,-1,0
1523150009582211,-2,0,0,-1,-4,-2,-4,1
1523150009604771,-1,-3,-12,-2,-2,-2,0,-1
1523150009604771,1,-3,7,-1,-2,-3,-1,-1
1523150009605272,-2,0,-1,-1,-1,-2,-2,-1
1523150009605272,-1,1,-6,0,0,0,0,-2
1523150009618812,-3,1,12,3,3,4,0,2
1523150009618812,-2,-1,4,0,3,2,-1,1
1523150009619811,1,-2,-5,1,1,0,-2,-1
1523150009619811,-1,-1,4,-2,-3,-3,-3,-3
1523150009641621,-1,-1,-16,-3,-5,-5,-3,-2
1523150009641621,-2,-1,-10,0,-1,-1,0,-1
1523150009642375,-1,-2,4,-1,0,-1,1,-2
1523150009642375,-1,-2,-3,-3,-1,-1,0,0
1523150009664951,-1,1,2,0,1,0,-2,-1
1523150009664951,-1,-1,-7,1,1,1,0,-1
1523150009665435,-1,-3,1,-3,-3,-1,0,-1
1523150009665435,-2,-5,-10,-2,-2,-4,-1,-1
1523150009678467,1,0,-3,-1,1,0,1,-1
1523150009678467,-1,1,5,-1,-2,-1,0,0
1523150009686742,-1,-4,-7,1,-1,1,-1,-1
1523150009686742,-2,0,5,-1,1,2,1,0
1523150009701777,1,0,-1,0,0,1,-1,-1
1523150009701777,-2,0,-1,-5,-2,0,-3,-1
1523150009702031,-1,-2,-5,-1,-1,-1,0,-1
1523150009702031,-2,-1,-9,-3,-4,-3,-4,-2
1523150009724843,-2,-1,5,1,0,-2,-2,-1
1523150009724843,0,0,13,1,1,1,2,-1
1523150009725593,-1,-1,-6,1,2,3,2,1
1523150009725593,-1,-1,4,-1,-1,0,-2,0
1523150009738126,0,0,1,-1,-2,-2,-1,-1
1523150009738126,-1,-5,-22,-4,-7,-6,-6,-4
1523150009754172,-1,0,2,-1,1,-1,0,-2
1523150009754172,-1,-2,4,2,3,2,1,1
1523150009761188,-1,-1,-3,-2,-3,-2,-5,-3
1523150009761188,-1,-1,11,1,-2,0,-1,0
1523150009762189,0,-3,-17,-2,0,-1,0,-1
1523150009762189,0,-1,3,-2,-3,0,0,0
1523150009784969,-3,-1,-6,-1,-1,-3,0,0
1523150009784969,0,0,1,1,1,-2,0,-1
1523150009785327,-1,0,7,1,0,0,0,-1
1523150009785327,-2,-4,-8,-3,0,1,0,-2
1523150009798598,-2,0,-1,-2,-1,0,0,-2
1523150009798598,-1,1,-7,-2,-2,-2,-4,1
1523150009806561,-2,0,18,-2,-4,-5,-3,-2
1523150009806561,1,-1,18,1,-1,-3,-1,-1
1523150009821425,-1,0,-4,2,2,0,-1,0
1523150009821425,-2,0,1,2,2,4,3,0
1523150009822425,-2,-2,-6,-4,-3,0,-1,-2
1523150009822425,-2,-1,-4,-2,-4,-4,-3,-1
1523150009844737,-2,-4,-2,-2,-2,0,-1,-1
1523150009844737,0,0,8,0,2,2,2,-1
1523150009845496,-1,0,-4,-2,-2,-1,-2,0
1523150009845496,1,2,13,-1,-3,-4,-1,0
1523150009858737,-1,-6,-31,-3,0,-2,0,-1
1523150009858737,-1,-1,4,1,-1,-1,-2,0
1523150009866753,-2,0,-9,1,1,0,1,-1
1523150009866753,-1,0,8,-1,-1,-2,-2,-2
1523150009881582,1,1,0,0,0,0,0,-1
1523150009881582,0,0,-17,-2,-1,-1,0,-1
1523150009882086,-2,-2,-5,-1,-1,-2,1,0
1523150009882086,-1,-1,-5,-1,-1,0,-2,-1
1523150009904681,0,-1,7,-2,-1,2,1,0
1523150009904681,-1,-4,-6,-2,-1,0,1,-1
1523150009905145,1,1,10,0,1,-1,-1,-1
1523150009905145,-2,-2,-11,-1,-2,0,1,-2
1523150009918407,0,0,-1,0,-1,-2,-1,1
1523150009918407,-2,-1,2,-4,-4,-5,-3,-1
1523150009926452,0,0,14,1,0,-2,-2,-2
1523150009926452,-1,0,0,2,3,2,1,1
1523150009941491,-2,-1,-1,-1,-1,-2,-1,-1
1523150009941491,-1,0,7,-1,-4,-3,-2,-1
1523150009942250,-1,-1,-7,0,-3,-3,-3,-4
1523150009942250,0,-2,-3,-1,1,0,0,0
1523150009964966,-1,0,4,1,-2,-1,-1,-2
1523150009964966,-1,-2,-9,-3,0,0,0,-1
1523150009965306,-3,0,0,-2,-2,-3,-3,-2
1523150009965306,-1,-1,-4,0,-2,-1,0,-2
1523150009987058,0,0,5,0,0,1,0,1
1523150009987058,-2,-4,-12,-2,-2,-1,-3,0
1523150009987869,-1,1,0,-2,-1,-1,1,0
1523150009987869,-2,0,-5,-1,-1,-1,-1,-2
1523150010001649,-3,-3,7,-3,-2,-3,0,-3
1523150010001649,-2,0,4,2,0,0,-3,-1
1523150010002405,1,-3,-8,-1,2,1,0,0
1523150010002405,-1,-1,8,0,-1,-2,-1,-1
1523150010031985,-1,-1,-8,-3,-2,-1,-2,-2
1523150010031985,0,0,3,1,0,2,2,0
1523150010032984,-2,-3,-2,-1,-4,-2,-2,-1
1523150010032984,0,-2,-6,-1,-2,-2,-2,-1
1523150010047233,1,0,1,-2,-4,-4,-4,-2
1523150010047233,-1,1,3,-3,-1,-4,-4,-3
1523150010048028,0,0,-3,3,3,4,3,2
1523150010048028,-2,0,-2,0,0,1,1,1
1523150010062160,-1,-2,-5,-1,0,-1,0,0
1523150010062160,-2,-2,-1,-3,-4,-2,0,-1
1523150010062566,-1,-2,-1,-2,-3,-3,-3,-2
1523150010062566,-1,1,-7,1,1,-3,0,-2
1523150010084861,-1,1,-7,2,4,1,1,0
1523150010084861,1,-2,3,0,-1,0,-3,0
1523150010085627,-2,-1,12,-1,-1,-1,-1,-1
1523150010085627,-1,-3,-8,-1,-1,1,-1,-1
1523150010107183,-1,-1,0,-3,-2,-2,-3,-2
1523150010107183,0,1,-6,-1,-2,-1,-1,-2
1523150010107688,-1,-1,-4,-1,-2,0,-1,-1
1523150010107688,-2,0,6,0,0,0,-1,0
1523150010121221,-1,-1,2,0,-2,-1,-1,0
1523150010121221,-1,-2,1,-1,0,1,-1,-1
1523150010122223,1,-2,-5,-4,-3,-1,0,-1
1523150010122223,1,-1,-5,-1,-2,-2,-3,-4
1523150010144783,-1,-1,5,1,-1,0,-2,-1
1523150010144783,-1,-1,-2,0,0,0,1,0
1523150010145284,-2,1,1,0,3,0,0,1
1523150010145284,-2,-2,-11,-1,0,-1,1,0
1523150010166896,-1,-1,-3,-3,-1,0,0,-1
1523150010166896,-1,0,13,-2,-4,-4,-4,-4
1523150010167843,-1,-1,-7,0,0,-2,0,-1
1523150010167843,-2,-1,-10,-2,-3,-2,-3,-1
1523150010181883,0,-1,20,1,1,1,-2,-2
1523150010181883,-1,1,0,0,0,-1,0,0
1523150010182383,-3,-2,-5,-2,-1,-1,-2,-2
1523150010182383,0,-1,6,-1,-2,1,0,0
1523150010204441,-3,-2,-8,-2,-2,-3,-2,-2
1523150010204441,0,1,11,-1,-1,-2,-2,-3
1523150010205444,0,-3,-12,0,1,-2,-1,-3
1523150010205444,-1,-1,5,-2,1,0,0,0
1523150010227503,-1,-2,-8,-1,1,2,2,0
1523150010227503,0,-1,3,-1,-1,0,0,0
1523150010228006,-2,0,-10,-3,-5,-2,-1,0
1523150010228006,-1,-3,3,-1,-2,-2,-3,-1
1523150010241937,0,-1,2,-2,-2,-3,-3,-1
1523150010241937,-1,-2,-9,1,1,1,1,0
1523150010242042,-1,1,-2,0,-1,2,-1,-1
1523150010242042,0,0,-10,-1,0,-2,0,-2
1523150010265125,-2,-1,21,0,-3,-2,-2,-2
1523150010265125,-1,-3,-12,-3,-4,-2,-2,-1
1523150010265125,-2,-1,3,-1,-2,-2,-3,-3
1523150010265125,-1,0,6,-2,0,-1,-1,0
1523150010287663,1,0,-10,0,2,1,1,-1
1523150010287663,0,-1,4,-2,3,1,2,-1
1523150010287663,1,-2,-6,1,-2,-2,1,-2
1523150010287663,-2,-1,-3,0,0,-3,-2,-2
1523150010301832,0,0,0,0,0,1,1,0
1523150010301832,-2,-1,-2,-1,0,0,-2,-1
1523150010302202,-1,2,6,-1,-3,-1,-2,0
1523150010302202,-1,-1,-2,-3,-3,-4,-2,-1
1523150010325120,-1,-1,-9,-4,-4,-4,-4,-3
1523150010325120,-2,0,-2,0,-1,-2,0,0
1523150010325263,0,2,14,-1,2,1,0,0
1523150010325263,-1,-3,2,0,1,4,2,0
1523150010347715,-2,-1,-5,-1,-2,-1,0,-3
1523150010347715,-2,0,-1,-4,-5,-4,-5,-2
1523150010347824,0,-1,-13,-4,-3,-5,-2,-3
1523150010347824,0,-1,11,2,2,2,3,0
1523150010361543,-1,1,-12,0,-1,0,1,0
1523150010361543,-1,-3,3,-1,-2,-1,-2,-2
1523150010362690,1,-2,0,-1,0,-4,-1,-2
1523150010362690,0,0,0,-1,-1,-2,-2,-1
1523150010385090,0,-1,-5,-1,0,0,-1,2
1523150010385090,-2,-3,-3,1,1,-2,-2,-1
1523150010385425,-4,-1,0,1,0,2,1,0
1523150010385425,-2,-1,3,-1,2,0,2,0
1523150010407482,-1,-2,-4,0,1,0,0,-1
1523150010407482,-2,-1,-6,-2,-3,-3,-2,-1
1523150010407983,0,-1,5,-3,-3,0,-2,0
1523150010407983,-1,0,-6,-2,-4,-3,-2,-2
1523150010421518,-2,-2,1,-1,1,-1,1,-1
1523150010421518,-1,0,0,-1,3,2,1,0
1523150010422736,-1,-2,9,-1,-2,-3,-2,-2
1523150010422736,-2,-1,-1,-3,-3,-3,-3,-1
1523150010444984,0,-2,1,0,3,1,0,0
1523150010444984,-1,-1,13,1,1,2,0,1
1523150010445583,0,-2,-8,-2,-1,-1,0,-1
1523150010445583,-2,-1,-5,-2,-5,-2,-2,-3
1523150010467140,-1,1,7,0,-2,-4,-2,-1
1523150010467140,-2,-2,-10,0,1,-1,1,-1
1523150010467643,-1,1,6,1,1,1,0,2
1523150010467643,-1,1,3,-1,-3,-2,-1,-1
1523150010481949,-2,-3,-7,-2,-2,-2,-2,-2
1523150010481949,0,-1,0,2,-1,-1,-2,0
1523150010482182,-2,1,5,-1,-2,0,-1,-1
1523150010482182,-1,-5,-15,-2,1,1,0,-3
1523150010504740,-1,-2,-6,-5,-2,-2,0,-2
1523150010504740,-1,0,3,-1,-2,-3,-3,-3
1523150010505242,-1,-2,-15,0,3,1,1,0
1523150010505242,-2,0,21,2,0,1,3,0
1523150010527301,-1,-2,-2,-3,-2,-2,-2,-1
1523150010527301,-1,-1,-8,-4,-3,-5,-4,-2
1523150010527805,0,-1,-4,-2,0,-1,-1,-1
1523150010527805,-1,-1,1,0,0,2,-2,-1
1523150010541726,-1,-1,-3,0,0,-1,0,0
1523150010541726,0,0,4,-2,-1,-3,-1,0
1523150010542340,-1,-2,-12,-2,-2,-3,-2,-2
1523150010542340,1,1,-4,1,-1,-2,-1,1
1523150010565097,-1,-1,7,0,-2,-1,0,0
1523150010565097,0,-1,-5,-1,-3,-1,-1,-3
1523150010565402,-1,-3,-6,1,4,2,3,2
1523150010565402,1,-2,-7,-2,1,2,1,0
1523150010586962,-2,-1,4,-1,-2,-1,-3,-2
1523150010586962,-1,0,-3,-5,-2,-3,1,-1
1523150010587961,-2,-2,4,-2,-5,-5,-4,-2
1523150010587961,-1,-1,-2,0,0,-2,-3,0
1523150010600996,0,2,-9,1,4,2,2,2
1523150010600996,-3,-4,-14,0,0,1,0,-1
1523150010609093,1,0,6,-2,-1,-2,0,-1
1523150010609093,-1,-1,-2,-4,-4,-4,-1,-1
1523150010624559,-3,-1,2,-1,-1,-1,-1,-3
1523150010624559,0,-1,3,2,-2,-1,0,-2
1523150010625561,-1,0,2,-1,1,-1,1,-2
1523150010625561,-1,-2,-17,-1,-1,-2,-1,-1
1523150010647518,0,-1,30,-2,0,-3,-1,-1
1523150010647518,0,-2,-11,0,0,0,1,-1
1523150010647622,0,-1,9,-1,-1,0,0,-1
1523150010647622,0,-1,-1,-1,-2,-4,-2,-2
1523150010661064,0,-1,-7,-1,-2,-3,-2,-1
1523150010661064,0,-1,2,-2,0,-2,1,0
1523150010669197,0,-1,3,-1,-1,-1,-2,-2
1523150010669197,-1,1,1,-1,-3,-2,-3,-1
1523150010685113,-2,0,-3,-1,-2,0,1,-1
1523150010685113,-2,-2,-4,0,3,4,2,1
1523150010686347,-1,1,-6,1,-1,1,0,-1
1523150010686347,-2,-1,1,-2,-2,-1,0,-1
1523150010707278,0,-3,-17,-2,-1,0,0,0
1523150010707278,-2,1,13,-1,-3,-2,-3,-2
1523150010707784,0,-4,-2,-2,-4,-3,-1,0
1523150010707784,-1,-2,3,-2,-1,-3,-4,-2
1523150010720815,-1,-1,-6,0,-3,-1,-2,-2
1523150010720815,-1,0,-2,1,3,1,-1,0
1523150010729338,-2,-2,-3,3,3,3,2,1
1523150010729338,-2,0,-8,1,0,2,2,-1
1523150010744968,-3,-1,7,-2,-3,-2,-2,-1
1523150010744968,0,-2,-3,-1,-5,-2,-2,-1
1523150010745380,-2,2,10,1,-1,-1,-2,-2
1523150010745380,0,-4,-14,-1,0,-1,0,0
1523150010767706,-3,-2,-3,-1,-2,-1,-3,-3
1523150010767706,-1,-1,-4,-1,0,1,0,-1
1523150010767941,0,0,4,0,0,-1,0,0
1523150010767941,-1,0,7,0,1,-1,0,-1
1523150010781477,-1,-1,-5,-2,-2,0,-2,0
1523150010781477,-1,-1,3,-3,-2,-5,-4,-2
1523150010788997,-1,-1,-6,-4,-4,-3,-3,-2
1523150010788997,-1,-2,-8,-1,-1,0,-2,-2
1523150010804726,-2,-2,5,3,0,1,0,0
1523150010804726,0,-1,-5,1,3,3,3,1
1523150010805540,-1,0,-3,-2,0,0,-2,-1
1523150010805540,-2,0,-4,-3,-2,-2,-2,0
1523150010827338,0,-1,-4,-1,-4,-4,-3,-3
1523150010827338,-2,0,2,-1,-1,-1,1,0
1523150010827598,-2,-2,-10,-1,0,-1,0,-1
1523150010827598,-1,1,10,-1,1,1,-1,1
1523150010841041,-1,1,3,-1,1,-1,0,0
1523150010841041,-3,-4,-6,-4,-4,-4,-3,0
1523150010848757,-1,0,-1,-2,-2,-4,-2,-2
1523150010848757,-1,0,1,-2,-1,-1,-4,-1
1523150010864634,-1,0,3,-1,1,0,0,1
1523150010864634,0,0,6,2,0,-1,-1,-1
1523150010865134,-1,-1,-12,0,0,-1,0,-2
1523150010865134,0,-1,11,0,-1,1,0,-2
1523150010887192,-1,-2,-7,0,-1,-2,-1,-4
1523150010887192,0,1,1,-2,-3,-3,-3,-3
1523150010887696,-3,0,0,1,-1,-2,-3,-1
1523150010887696,-1,-1,0,0,0,-1,1,0
1523150010901231,0,-1,-8,-1,0,-1,0,-1
1523150010901231,-2,-1,-7,-2,0,2,0,-2
1523150010909082,1,0,11,0,-1,-2,-2,-1
1523150010909082,-3,-1,-9,-1,-1,-3,-2,0
1523150010924792,-1,0,-6,-1,1,1,0,0
1523150010924792,0,-1,11,1,0,0,2,-1
1523150010925295,0,-1,4,-1,-3,-3,0,-1
1523150010925295,-2,-4,-29,0,-2,-3,-2,-2
1523150010947475,0,0,13,0,-3,-2,-2,-2
1523150010947475,-1,1,-1,0,0,0,-1,-1
1523150010949167,-1,-4,-2,-2,-2,1,1,-2
1523150010949167,-1,3,18,-2,-1,0,0,-1
1523150010969776,-3,-7,-29,-4,-2,-1,-1,-1
1523150010969776,-1,-1,-4,-2,-2,-2,-1,0
1523150010971156,-1,-2,-5,-1,0,1,-2,-1
1523150010971156,-1,0,30,0,-1,-1,0,-2
1523150010983189,-2,-1,-4,-1,-1,0,-2,-1
1523150010983189,-2,-1,0,0,-3,-3,-2,-1
1523150010992212,-1,-1,-11,-1,-1,0,0,1
1523150010992212,-1,0,-2,0,1,1,0,0
1523150011007435,1,-1,3,-2,-1,-1,-1,0
1523150011007435,0,-4,-21,-2,-3,-2,-1,0
1523150011008757,0,1,10,-2,-3,-4,-4,-2
1523150011008757,-1,-1,-2,-1,-1,0,0,-2
1523150011030054,1,1,1,1,1,2,1,1
1523150011030054,-3,1,-2,-1,0,3,1,3
1523150011031555,-2,-2,-4,-3,-1,0,1,-1
1523150011031555,-1,-1,-6,-3,-3,-2,-2,-3
1523150011043515,-1,0,5,-3,-2,-2,-3,-2
1523150011043515,-1,-2,2,1,0,-3,-2,-2
1523150011052373,-1,-3,-6,-3,0,-1,-2,-3
1523150011052373,-1,-2,4,1,2,2,0,1
1523150011067004,-1,-1,0,-1,0,-2,-2,0
1523150011067004,-1,1,-2,-1,-1,-3,-4,-3
1523150011068417,-3,-2,5,0,-2,-1,1,0
1523150011068417,0,-4,-15,-1,-2,-2,-1,-1
1523150011089974,-1,1,-2,1,-1,0,-1,0
1523150011089974,0,-1,1,-3,0,-1,-1,-2
1523150011090975,-1,0,0,0,-1,0,0,0
1523150011090975,-1,-3,-5,-2,1,1,0,0
1523150011103508,-2,0,7,-1,-3,-1,-1,-1
1523150011103508,-3,-1,16,1,-1,0,-3,-2
1523150011112033,0,0,-1,1,0,0,-1,-1
1523150011112033,0,-1,-3,-3,-3,-3,-2,-1
1523150011127150,-1,-1,-3,-1,0,-5,-3,-1
1523150011127150,0,-1,-1,1,2,4,3,1
1523150011128576,-1,-2,-11,-1,1,1,0,-1
1523150011128576,0,2,29,0,-4,-1,0,-1
1523150011149631,-2,-5,-22,-4,-2,-2,-2,-3
1523150011149631,-1,0,7,-1,-3,-3,-4,-1
1523150011151642,-1,-2,-18,-1,-1,-2,0,-1
1523150011151642,0,0,-4,0,-2,-5,-3,-2
1523150011172275,-1,1,6,1,-1,0,0,-1
1523150011172275,0,-2,-3,-1,3,3,3,1
1523150011173696,-2,0,5,0,0,2,0,-1
1523150011173696,-2,-1,-3,0,0,1,-2,0
1523150011187231,-3,0,7,-3,-4,-2,-1,-3
1523150011187231,-2,1,-3,-2,-3,-4,-3,-1
1523150011188738,0,-1,-9,-1,-2,-3,-2,0
1523150011188738,-1,-1,25,-1,1,-1,1,-1
1523150011209949,0,-1,-6,1,2,-2,0,1
1523150011209949,-2,-3,-6,-1,0,0,-2,-1
1523150011211300,0,0,4,0,1,1,0,-1
1523150011211300,0,-1,-11,0,0,1,0,-1
1523150011223878,-2,0,-2,0,0,0,0,-2
1523150011223878,-1,-1,1,-4,-4,-5,-3,-1
1523150011230849,-2,-1,3,1,0,0,0,0
1523150011230849,-1,-1,-6,-1,2,3,1,2
1523150011247096,-1,-2,-14,-2,-1,-1,0,0
1523150011247096,-1,0,12,-4,-3,-4,-2,0
1523150011248899,-2,-2,8,-3,-2,-4,-5,-2
1523150011248899,-2,-4,-31,-2,2,1,1,-1
1523150011269451,1,0,19,-2,0,-1,0,-1
1523150011269451,1,-1,-6,1,-2,-1,0,-2
1523150011270955,-2,-2,-5,-4,-2,-4,-2,-3
1523150011270955,-1,1,-1,0,-1,-2,-3,-2
1523150011283990,-1,-2,7,1,-1,-2,-3,-2
1523150011283990,0,-3,-7,0,-2,-2,-1,-2
1523150011290750,1,3,14,1,0,0,1,-1
1523150011290750,-1,-4,-18,-1,-2,-1,0,-1
1523150011307306,-1,1,-5,-2,-2,-2,-1,0
1523150011307306,0,-2,-1,-1,-1,0,-2,0
1523150011308555,-2,-1,-2,0,0,0,1,1
1523150011308555,-3,-1,10,-3,-2,-1,-3,1
1523150011329612,0,-5,-16,-1,-1,-1,0,0
1523150011329612,-1,-1,-5,-2,-1,-1,-2,-2
1523150011331116,-1,-1,6,-3,-4,-2,-4,-1
1523150011331116,-1,-1,3,0,1,0,0,-2
1523150011344149,0,1,9,-1,-1,0,-1,-2
1523150011344149,-2,-3,-18,-2,-1,-2,0,-3
1523150011350914,1,-1,-4,0,-1,-1,-1,-1
1523150011350914,-1,-1,0,0,0,-1,-2,0
1523150011367468,-2,-2,2,-1,-1,-1,0,0
1523150011367468,-1,0,2,-1,-1,0,1,1
1523150011368715,-1,-2,-6,-1,1,-1,0,0
1523150011368715,-3,-2,20,0,-2,0,0,-2
1523150011390020,0,0,-6,-1,2,1,-1,-1
1523150011390020,-1,-1,2,1,-2,-2,-2,0
1523150011391276,-1,-2,-1,-2,-2,-3,-2,0
1523150011391276,-1,-1,-7,-1,-3,-3,-2,-3
1523150011403807,-1,0,-13,0,-1,-3,-4,-1
1523150011403807,0,0,6,2,2,2,1,1
1523150011410867,-1,-2,-4,0,-2,-1,0,-2
1523150011410867,1,-2,-3,-3,-3,-4,-3,-3
1523150011427370,1,-4,-9,-1,2,0,-2,-1
1523150011427370,-2,0,2,-1,2,1,2,1
1523150011428875,0,-2,-2,-1,-3,-1,-1,0
1523150011428875,-3,0,2,-2,-4,0,-1,-2
1523150011450098,-2,-1,5,-1,-2,-2,-1,-2
1523150011450098,0,-2,-3,-1,0,1,-1,-1
1523150011451437,0,0,8,0,-1,2,-1,1
1523150011451437,1,0,-1,-2,-3,-5,-3,-1
1523150011463467,-3,-2,-10,-2,-3,-3,-1,-3
1523150011463467,-1,1,13,3,4,4,1,0
1523150011471989,-1,0,-10,0,2,1,1,0
1523150011471989,-1,1,-9,-1,-1,0,-2,-1
1523150011487030,-1,-1,17,0,-3,-1,0,0
1523150011487030,0,0,1,-2,-4,-2,-1,-2
1523150011488534,-2,-7,-17,-3,-3,-2,-3,-3
1523150011488534,1,-1,-4,-1,2,0,1,0
1523150011509592,-1,-1,0,-1,0,1,2,0
1523150011509592,-1,-2,0,0,-2,-2,-3,-2
1523150011511095,0,1,8,-1,-2,-2,-3,-2
1523150011511095,-2,-2,-4,-2,-2,-3,0,-1
1523150011523205,-1,0,-1,-2,-2,-1,-3,0
1523150011523205,0,-2,-3,1,0,0,1,1
1523150011532151,-2,0,-5,-1,0,0,-1,-2
1523150011532151,-1,-2,4,-1,-1,-2,-3,-2
1523150011547266,1,-1,1,1,-1,-1,-3,0
1523150011547266,-2,0,-8,-1,-2,-1,-2,-3
1523150011548693,-2,-1,0,-2,-2,-1,-1,1
1523150011548693,-1,0,-5,0,-1,1,2,0
1523150011569749,-1,0,11,-1,-1,1,2,-1
1523150011569749,-2,-3,-11,-3,-1,-2,-2,-3
1523150011571253,0,0,1,-1,-3,-3,-1,-2
1523150011571253,0,-2,2,-2,-1,-2,-1,-2
1523150011583354,1,-2,-6,-1,-1,-2,-2,0
1523150011583354,-1,1,7,0,-1,-2,-1,-1
1523150011592309,-3,-5,-11,-1,0,0,-2,-1
1523150011592309,-1,1,1,-1,-1,-2,0,0
1523150011607417,-2,0,-9,0,1,1,-1,-3
1523150011607417,-2,0,12,-1,-5,-2,-1,-1
1523150011608854,0,0,1,-2,-1,-3,-2,1
1523150011608854,-1,-1,-2,-1,0,0,-1,0
1523150011629944,0,-1,-7,0,2,1,0,-1
1523150011629944,0,0,-3,0,1,0,-1,-2
1523150011631481,-1,0,4,-2,-3,0,-1,-1
1523150011631481,-2,-2,-4,-4,-4,-3,-1,-1
1523150011643447,0,0,9,-1,-2,-1,-3,0
1523150011643447,-1,-2,-2,-1,1,-2,-1,0
1523150011652469,-1,-3,-32,-2,-2,-2,0,-1
1523150011652469,-1,-1,24,0,-2,-3,-3,-1
1523150011667100,-3,-1,-2,-1,-2,-1,-1,-1
1523150011667100,0,-2,3,1,2,3,2,-1
1523150011668513,-2,1,3,1,-2,1,2,-2
1523150011668513,-1,-1,-12,-2,0,0,-1,-1
1523150011689647,-1,-2,-1,-2,-4,-4,-4,-2
1523150011689647,0,0,-7,0,-2,-2,-2,0
1523150011691075,1,0,13,-1,-3,-1,-1,-2
1523150011691075,-2,0,-9,2,2,3,3,1
1523150011703105,-2,-2,5,-1,0,-1,-1,0
1523150011703105,0,-2,-11,-1,-1,-2,-2,-2
1523150011712129,-1,-1,1,1,1,0,1,1
1523150011712129,-2,0,19,0,-4,-2,-2,-3
1523150011727239,-1,1,-12,-4,-2,-1,-1,0
1523150011727239,-3,-5,-4,-4,-2,-4,-4,-3
1523150011728672,-3,1,6,1,1,0,-2,-1
1523150011728672,0,-1,-5,-2,0,2,0,0
1523150011749861,-2,0,-3,0,0,0,1,-1
1523150011749861,0,0,-1,-2,-3,-2,-4,-1
1523150011751277,-2,0,3,-1,-1,-4,-4,-2
1523150011751277,-1,-1,-9,-1,1,1,2,0
1523150011763398,-1,-1,4,-1,-3,-1,0,-1
1523150011763398,-2,0,-7,-2,-3,-1,0,0
1523150011772332,-2,-1,5,1,1,0,0,-1
1523150011772332,0,-1,-5,-1,0,1,0,0
1523150011786872,-1,0,1,0,-2,0,0,-1
1523150011786872,-2,-2,-10,0,-3,-2,-1,-1
1523150011788879,-2,-1,13,-3,-4,-2,-3,-3
1523150011788879,-2,-2,-2,-1,-3,-1,-5,-1
1523150011809486,0,0,3,2,4,2,1,1
1523150011809486,-2,-5,-24,-2,1,0,-1,-1
1523150011810936,0,-2,13,-1,0,0,-2,0
1523150011810936,-2,0,-9,-1,-1,-1,-2,0
1523150011823467,0,-3,4,-1,-1,-1,-1,-1
1523150011823467,-2,0,3,-1,0,1,0,-1
1523150011831992,0,-2,-12,-1,-1,-1,0,-1
1523150011831992,-1,0,-1,-2,0,-1,-1,-2
1523150011847124,-3,-2,-1,-2,-1,-1,-1,0
1523150011847124,1,2,4,0,1,-1,-1,0
1523150011848536,-1,0,-2,0,2,-1,0,-1
1523150011848536,-2,-1,-1,-1,-2,-1,-2,-2
1523150011869590,-3,-1,-7,-1,-1,-1,1,2
1523150011869590,-1,0,-2,0,-2,-1,-1,-2
1523150011871095,-1,-1,25,-1,-1,-1,0,-1
1523150011871095,-1,0,-6,-2,-2,-2,-2,-1
1523150011892226,-1,0,6,-2,-2,0,-3,-2
1523150011892226,-1,-4,-17,0,-3,0,0,0
1523150011893655,-2,0,0,-2,0,1,-2,-1
1523150011893655,-2,-1,-5,-2,-1,-2,-1,-1
1523150011907263,-1,-3,1,-2,-4,-4,-2,-2
1523150011907263,-1,-1,5,0,2,1,2,-1
1523150011908695,-1,-1,-12,0,-1,0,2,1
1523150011908695,-1,-1,0,-2,-3,-3,-1,-1
1523150011929825,-2,-1,-9,1,1,-2,-1,-1
1523150011929825,-1,0,5,-3,0,-1,-2,-1
1523150011931256,1,-2,-5,0,-2,-1,-2,0
1523150011931256,-1,-1,2,-1,1,-1,0,-1
1523150011952311,-2,0,-2,0,0,0,0,0
1523150011952311,-1,-1,1,0,0,0,-2,-1
1523150011953817,-1,-2,9,-2,-3,-1,0,-2
1523150011953817,0,-1,6,0,-1,0,-1,1
1523150011966921,-2,-3,-9,-1,0,-1,0,-2
1523150011966921,-1,0,3,-2,-3,-1,-1,-3
1523150011973498,-1,-1,-10,1,2,2,0,-1
1523150011973498,-2,-1,-12,-1,-2,-3,-2,-2
1523150011989593,-2,-1,24,1,0,0,-3,-1
1523150011989593,-1,-1,0,-1,0,-1,1,2
1523150011991049,0,-2,-8,-1,-3,-4,-3,0
1523150011991049,-2,-2,-3,-2,-1,0,-2,-4
1523150012012180,0,-2,-1,-3,0,0,0,0
1523150012012180,0,-1,3,0,-2,-1,-1,0
1523150012014109,0,3,3,-1,-2,0,0,-2
1523150012014109,-1,-5,-11,0,-1,-2,-3,-2
1523150012026643,-1,-1,-3,-1,-2,-1,-2,-4
1523150012026643,-1,0,7,-2,-2,-2,-2,0
1523150012033241,-1,-2,-4,-2,-1,1,1,0
1523150012033241,0,-2,0,0,-1,-2,-1,-2
1523150012049759,0,-1,-4,0,-1,-2,-1,-2
1523150012049759,-2,-1,-5,0,0,1,0,-1
1523150012051210,-1,-2,0,-1,-2,-2,-3,0
1523150012051210,-1,2,8,1,0,-2,-1,-1
1523150012072334,-1,-3,-6,0,1,1,1,-1
1523150012072334,-1,2,6,0,0,0,-1,-2
1523150012073771,-1,-2,-13,-2,-2,-2,-1,-2
1523150012073771,-2,-1,3,0,-3,0,0,-2
1523150012086304,-1,0,2,-2,-2,-3,-4,0
1523150012086304,-2,-2,-1,0,2,-1,0,1
1523150012093395,-1,-2,-8,0,2,1,0,0
1523150012093395,-3,-1,5,-2,-3,1,-1,0
1523150012109938,-2,-1,-7,-1,-1,-2,-2,-3
1523150012109938,0,-2,-6,0,1,1,0,0
1523150012111372,-1,1,23,-2,-3,-1,-4,-1
1523150012111372,2,-3,-5,0,0,1,1,0
1523150012132152,0,1,-14,-2,-2,-2,0,-1
1523150012132152,-1,-1,22,-2,-2,-1,-3,-1
1523150012133568,-1,-1,0,0,2,-1,0,-1
1523150012133568,-1,0,2,-1,-3,-1,-1,-1
1523150012146635,-2,-3,0,-2,-3,-3,-3,0
1523150012146635,0,-1,-7,-1,-2,-1,-3,-3
1523150012153121,-2,-1,-1,0,1,1,1,0
1523150012153121,-1,-4,-9,-1,-2,0,-1,-3
1523150012169664,0,0,-8,1,1,0,2,0
1523150012169664,-3,-2,20,-2,-3,0,0,0
1523150012171169,-2,-1,-8,-2,-5,-2,-3,-3
1523150012171169,1,-1,1,-2,-3,-1,0,-1
1523150012192103,-2,-1,10,-1,-3,-2,-4,0
1523150012192103,0,-5,-35,0,0,-1,0,-2
1523150012194151,-1,-1,3,-1,0,1,2,0
1523150012194151,-1,-1,3,-1,0,0,-1,0
1523150012206982,-1,1,-6,-2,-3,0,-1,1
1523150012206982,-1,2,22,-3,-5,-5,-3,-1
1523150012213721,0,-1,-7,0,2,1,0,-1
1523150012213721,-2,-2,-24,0,4,3,3,-1
1523150012230011,-1,-1,25,0,0,-2,-1,-1
1523150012230011,0,-1,-6,-2,-2,-2,-2,-2
1523150012231208,-1,-2,-5,-2,-4,-5,-5,-2
1523150012231208,0,1,4,1,0,-1,-1,1
1523150012252797,0,-2,-14,1,2,3,2,2
1523150012252797,0,-1,0,0,-2,1,0,0
1523150012254269,0,-1,2,-1,-4,-1,-1,-2
1523150012254269,-2,2,17,-2,-1,-3,-4,-1
1523150012266861,-4,-5,-32,-1,-3,-4,-3,-2
1523150012266861,-3,0,2,0,0,-4,0,-2
1523150012281168,-1,-1,-6,0,3,3,2,0
1523150012281168,0,-1,7,-1,-2,1,0,0
1523150012290200,-1,0,3,-3,-3,-2,-1,-3
1523150012290200,-2,-2,-5,-1,-1,-2,-1,0
1523150012291369,1,-1,-18,0,-1,-3,-2,2
1523150012291369,-2,-4,16,-2,-3,-3,-3,-2
1523150012312406,0,1,4,-1,0,1,0,0
1523150012312406,-1,-2,-11,-1,-1,0,-2,0
1523150012313564,-3,-1,3,-2,-3,-3,-1,-1
1523150012313564,-1,-1,-9,1,1,1,1,2
1523150012326721,0,-1,0,0,0,0,-2,0
1523150012326721,-1,-3,-1,-2,-3,-1,-3,-2
1523150012333663,-1,-3,-5,-1,0,1,0,-1
1523150012333663,0,-1,-3,-3,-2,-1,0,-2
1523150012349973,-1,-1,3,-2,-1,0,-2,-3
1523150012349973,0,1,-6,1,2,0,0,-2
1523150012351166,0,2,14,2,2,3,0,0
1523150012351166,-3,-4,-16,-2,-3,-2,-2,0
1523150012372557,0,0,0,-1,0,0,-1,0
1523150012372557,-2,-1,14,-1,-4,-4,-2,-3
1523150012373724,0,-1,1,-2,-3,-5,-4,-3
1523150012373724,-2,-1,-1,1,0,-4,-2,1
1523150012385758,1,-1,1,1,0,0,0,1
1523150012385758,-1,-1,-2,-1,2,0,1,1
1523150012394781,-2,-4,-5,-1,0,1,1,-2
1523150012394781,-1,-1,-2,0,0,0,-1,-1
1523150012409901,-2,-3,1,-3,-5,-2,-1,-3
1523150012409901,-1,0,5,-2,-2,-1,0,-2
1523150012411600,-1,1,1,-2,-3,-3,-3,0
1523150012411600,0,0,-12,-2,-1,-4,-3,-2
1523150012432412,-1,0,4,1,2,2,1,1
1523150012432412,0,-2,-29,0,2,3,0,3
1523150012433884,-2,1,19,-1,-2,-3,-2,-1
1523150012433884,-1,-1,3,-2,-2,-3,-2,-2
1523150012446083,-1,-1,-4,-2,0,-2,-2,-1
1523150012446083,0,0,4,-1,-2,-1,-1,-1
1523150012454940,-2,-3,-10,-3,-4,-3,-2,-2
1523150012454940,-1,1,0,2,2,3,3,0
1523150012469479,0,-1,9,-1,3,2,1,1
1523150012469479,-2,0,1,-2,-2,-2,-2,-1
1523150012471513,-1,-2,0,-2,-2,-3,-4,-1
1523150012471513,-2,0,1,-3,-2,-2,-2,-2
1523150012492037,-1,-2,-5,0,-2,0,-2,-1
1523150012492037,-1,-1,-1,-1,0,-2,-2,-1
1523150012493542,0,0,-5,0,-2,-3,-1,-1
1523150012493542,0,-1,-4,1,0,1,1,-1
1523150012505670,-1,0,19,1,-1,1,-1,0
1523150012505670,-1,-3,-20,-2,-4,-2,-1,-2
1523150012514600,-2,-2,7,-2,-1,0,-2,-1
1523150012514600,-1,1,9,-1,2,1,2,1
1523150012529802,-2,-1,-14,-4,-3,-1,-1,-3
1523150012529802,-1,-1,8,0,-1,-2,0,-1
1523150012531308,-1,-2,-8,-1,0,0,0,-1
1523150012531308,1,-2,-7,0,0,-1,-2,-2
1523150012559980,-2,0,11,0,1,-1,1,0
1523150012559980,1,0,2,-4,-3,-3,-2,0
1523150012561386,-1,-2,-1,-2,1,1,1,0
1523150012561386,-1,-1,2,0,0,0,1,-2
1523150012565897,-3,-2,-8,0,-1,-1,-2,-2
1523150012565897,-1,-1,-7,1,-1,1,-1,-1
1523150012574421,-1,0,-6,-1,-1,-1,-2,-2
1523150012574421,-1,1,4,-1,-1,-3,-2,1
1523150012589779,0,-3,-5,0,0,1,1,-1
1523150012589779,-2,-2,5,-2,0,-1,-2,-1
1523150012591061,-1,-1,-1,-1,-1,0,0,0
1523150012591061,-1,-2,2,-2,-3,-3,-3,-2
1523150012612119,-1,0,-5,1,-1,-2,0,-1
1523150012612119,-1,0,5,2,1,1,1,0
1523150012613622,-1,0,-6,-2,-2,-1,-1,-3
1523150012613622,-3,-2,2,-2,-2,-1,-1,-1
1523150012625912,-1,0,-2,-2,-2,-2,-1,-1
1523150012625912,-1,0,-4,1,1,0,0,-3
1523150012634677,1,-3,-1,2,1,2,-1,1
1523150012634677,0,-2,-9,-3,-2,0,-1,-1
1523150012650007,-1,-1,2,-3,-4,-3,-4,-2
1523150012650007,-1,0,2,-3,0,-2,-3,-2
1523150012651008,-2,-1,-2,-3,0,0,1,-2
1523150012651008,0,0,1,0,-1,1,-2,-1
1523150012672062,-1,-2,-4,-2,1,0,0,0
1523150012672062,-2,0,2,-2,-2,-3,-1,0
1523150012673566,-1,-1,-3,-2,-4,-5,-4,-1
1523150012673566,0,0,4,-1,-2,-1,0,0
1523150012685643,-1,-1,-13,2,2,1,1,-1
1523150012685643,0,-2,-2,1,-1,1,1,1
1523150012694626,-1,0,0,1,-1,-1,-1,0
1523150012694626,0,1,3,0,-2,0,-1,0
1523150012709663,0,-3,-10,-3,-2,-1,-3,-1
1523150012709663,0,-2,6,-3,-3,0,-1,-1
1523150012711167,0,-1,-3,-1,-1,0,-2,0
1523150012711167,-1,-2,-14,-2,-1,0,-3,-1
1523150012732221,-1,-1,24,-1,0,-2,-3,-3
1523150012732221,0,-1,-3,-2,-1,-1,1,-2
1523150012733727,0,0,-3,0,0,0,1,-1
1523150012733727,0,-1,1,-1,-1,-3,-2,0
1523150012745758,-2,-2,-2,-1,-2,-2,-1,0
1523150012745758,-2,-1,-4,0,1,-1,-2,0
1523150012754782,-2,0,2,0,-1,0,0,0
1523150012754782,-1,-1,2,0,-1,1,0,0
1523150012769562,-2,-1,-6,0,-3,-4,-1,-2
1523150012769562,0,0,1,1,-1,0,-2,-1
1523150012771067,-1,-2,-4,-2,-1,-1,-2,-3
1523150012771067,-3,-1,3,-3,-1,-4,-1,-3
1523150012792123,-2,-3,-4,-1,2,0,0,-2
1523150012792123,-1,-1,-4,0,0,0,1,0
1523150012793626,0,0,8,1,0,0,-1,1
1523150012793626,-2,-4,-19,-3,-2,-1,-2,-3
1523150012814681,-2,1,4,-1,-3,-4,-2,0
1523150012814681,-2,0,-8,0,0,-1,-2,-1
1523150012816184,-1,-2,15,-1,0,0,0,1
1523150012816184,-1,1,8,0,-2,-1,0,0
1523150012828964,0,0,-3,-1,-1,-1,-2,0
1523150012828964,-2,-2,1,-1,-2,-1,0,-1
1523150012837242,-1,-1,-13,-2,-1,-1,-2,-1
1523150012837242,-2,1,6,0,-1,-2,0,-1
1523150012852283,-1,-1,-1,0,-1,0,-1,-2
1523150012852283,-2,-1,0,-1,-1,-2,0,-1
1523150012853785,0,-1,-1,-2,-2,-3,0,-1
1523150012853785,-2,-1,-5,-1,0,-1,0,0
1523150012874574,0,1,12,-1,-2,-1,-2,1
1523150012874574,0,0,-15,0,0,-1,0,0
1523150012876344,-2,-1,17,-2,1,0,0,-1
1523150012876344,-2,-2,-8,-2,0,-2,0,-1
1523150012888467,1,-1,-6,-2,2,1,1,-1
1523150012888467,1,-1,5,-2,-3,-3,-4,-2
1523150012897402,-1,0,2,-1,-3,-4,-2,-2
1523150012897402,1,-4,-15,0,0,2,1,0
1523150012911939,0,-1,2,-1,0,-1,-1,0
1523150012911939,0,-2,-1,-2,-1,-2,-1,-2
1523150012913445,-1,-1,-12,0,-2,-2,0,0
1523150012913445,-1,-1,7,0,-1,-2,-3,-3
1523150012934697,0,0,-7,-1,-1,-1,-2,-1
1523150012934697,-3,-1,3,1,0,1,0,-1
1523150012936006,0,-1,-7,-1,-2,-1,-1,0
1523150012936006,-1,-1,3,-3,-2,-2,-1,0
1523150012949040,0,-2,1,0,-2,-3,0,-3
1523150012949040,0,-2,2,1,0,-1,-2,-1
1523150012955824,0,-1,-5,-1,-1,1,0,-1
1523150012955824,-1,-1,3,-1,-1,2,0,-2
1523150012972553,-2,-2,-1,-2,-2,-2,-2,-3
1523150012972553,-1,-1,-2,-2,-2,-3,-2,-1
1523150012973919,-1,-2,-10,0,0,0,0,-1
1523150012973919,-1,1,12,1,1,-1,0,1
1523150012994741,-3,-6,-22,-3,-2,-1,0,-1
1523150012994741,-2,-1,5,-2,-4,-2,-3,-1
1523150012995979,-2,-1,-5,-1,-2,-1,0,-3
1523150012995979,1,0,-4,-2,-2,-2,-2,-1
1523150013009013,-2,2,3,0,0,-1,-3,0
1523150013009013,-2,-1,3,-1,0,2,2,2
1523150013016207,-1,-5,-19,-1,1,0,-1,-1
1523150013016207,-1,-2,6,-2,1,0,0,-1
1523150013032074,0,0,0,-2,-4,-2,0,-1
1523150013032074,-1,0,4,-3,-4,-4,-1,-1
1523150013033578,-1,0,-21,-2,0,-1,-2,-2
1523150013033578,0,-1,10,3,1,0,-1,2
1523150013054894,0,-1,-4,0,1,0,0,1
1523150013054894,0,-2,0,0,-2,-3,-1,-4
1523150013056138,-2,-1,-2,-3,-4,-1,-1,-2
1523150013056138,0,0,1,-1,0,-2,-4,-2
1523150013068671,-2,-2,-14,1,1,0,1,0
1523150013068671,-1,1,2,0,1,2,2,-1
1523150013075730,-2,-2,4,0,0,-2,-1,0
1523150013075730,-2,-1,-6,-2,-4,-2,-1,-3
1523150013092270,-2,0,4,0,-2,-1,-1,0
1523150013092270,-1,-1,-1,-1,0,-1,-2,-1
1523150013093739,0,0,1,1,2,1,2,1
1523150013093739,-2,-1,-6,-1,0,0,-1,0
1523150013115294,-1,-1,2,0,-3,-5,-2,1
1523150013115294,0,-3,-11,-3,-3,-1,-1,-1
1523150013116800,0,0,12,-1,-3,-1,-1,-3
1523150013116800,-2,-1,-3,-1,1,-1,0,0
1523150013129333,-1,-2,-6,-1,-1,0,0,-3
1523150013129333,-1,-1,5,1,-1,0,-1,0
