timestamp,emg1,emg2,emg3,emg4,emg5,emg6,emg7,emg8
1523135241819889,-1,0,1,0,0,0,1,1
1523135241819889,-3,2,1,-1,-3,-1,-2,1
1523135241825952,-4,-1,-2,-3,1,0,-2,-3
1523135241825952,0,-1,-2,2,-2,-2,-1,-2
1523135241825952,-3,-2,0,-2,-2,-2,-2,-1
1523135241825952,0,-2,-2,-4,0,-1,-1,0
1523135241827908,-2,-2,0,-1,-2,0,-1,-3
1523135241827908,-1,1,0,3,0,-2,-1,2
1523135241839003,-1,0,0,-5,-2,-2,-3,-3
1523135241839003,-2,-1,-3,-2,-1,-3,-1,-4
1523135241849969,3,-3,1,0,-4,-2,0,-2
1523135241849969,-4,0,1,-5,0,-2,0,-1
1523135241853980,1,0,-5,-1,-1,1,0,0
1523135241853980,-3,1,2,4,1,1,-2,-2
1523135241870022,0,0,-4,-6,-1,-2,-1,1
1523135241870022,-2,-1,0,5,-2,0,-2,1
1523135241877041,-3,-4,-2,0,0,-1,-2,1
1523135241877041,-2,-1,1,0,-1,0,1,1
1523135241885063,-1,1,0,1,-1,-4,-2,0
1523135241885063,-1,-1,-5,-4,-1,-3,1,-2
1523135241899207,-1,-2,-3,-4,0,0,0,-2
1523135241899207,-2,-2,-2,1,-4,2,-2,-1
1523135241908370,1,2,0,3,1,1,-2,-2
1523135241908370,-3,-1,0,-1,-2,-3,-2,3
1523135241946227,-3,-1,-1,0,2,0,1,-1
1523135241946227,0,2,-2,0,-1,3,-2,-2
1523135241947227,0,-1,0,-1,0,-3,0,-1
1523135241947227,0,-2,-1,0,-2,-5,-1,0
1523135241947227,2,2,-1,-1,-4,-1,-2,-3
1523135241947227,-2,-2,2,-1,0,-1,0,0
1523135241951414,0,1,-1,2,1,0,-1,1
1523135241951414,1,-1,1,-1,-4,-3,-1,-2
1523135241958546,-1,3,-3,-3,2,-1,0,-3
1523135241958546,-3,0,1,2,0,-2,-1,-2
1523135241967280,-1,1,-1,-4,-3,0,0,-8
1523135241967280,-2,-2,2,-2,2,-1,-1,-2
1523135241973545,0,0,-3,-3,0,-2,-2,1
1523135241973545,-1,0,0,-2,-1,-3,0,0
1523135241998363,-1,0,-3,-3,-1,-1,1,0
1523135241998363,-2,2,-6,1,-3,-1,0,-3
1523135241998363,1,-2,4,1,-6,0,-3,2
1523135241998363,-5,2,-1,-5,-1,2,1,-2
1523135242011438,-1,-2,1,1,-3,-1,-2,0
1523135242011438,-3,1,-3,-4,-3,1,0,-1
1523135242018642,-2,1,0,2,1,-1,-1,-3
1523135242018642,1,-5,-1,2,1,-6,-3,0
1523135242027444,-2,-4,-3,-3,-1,0,-2,0
1523135242027444,3,3,0,4,3,2,2,-4
1523135242033674,0,-3,0,2,-2,-1,-1,2
1523135242033674,0,-1,-1,-2,1,-1,-2,1
1523135242049602,-1,-2,-1,0,-1,1,-1,-1
1523135242049602,0,-5,-1,2,0,-1,0,-4
1523135242056556,-4,-3,-5,-2,-3,-1,-1,-1
1523135242056556,4,2,-3,-3,0,2,1,-1
1523135242071602,-1,0,2,-3,0,0,0,1
1523135242071602,-2,-4,2,0,-2,-1,-4,1
1523135242078615,3,1,2,-3,0,-1,-1,0
1523135242078615,2,0,-2,-1,-1,-1,0,-2
1523135242087599,1,-3,-2,-12,-2,2,0,0
1523135242087599,-3,-2,1,-4,0,-1,2,-3
1523135242093840,-1,-2,-1,-4,2,-3,0,-5
1523135242093840,-4,-1,-1,3,-1,1,-1,-1
1523135242109697,-2,1,0,4,0,-1,0,-1
1523135242109697,0,1,0,-3,-2,0,-3,4
1523135242115983,-1,-1,-2,0,0,-2,0,-1
1523135242115983,-1,0,0,-2,-2,-3,-1,0
1523135242130716,-3,1,-3,3,-2,-2,0,-3
1523135242130716,-3,2,-3,-3,1,0,-3,-4
1523135242139028,-4,-2,-3,-5,-2,-3,1,2
1523135242139028,-1,-4,-2,-3,-2,-3,-5,-4
1523135242146759,-1,0,2,-2,0,0,-2,2
1523135242146759,-3,-2,-6,5,-2,-1,-2,-1
1523135242153775,0,-1,0,-6,-2,2,3,-4
1523135242153775,-2,0,0,-2,-2,-3,1,-2
1523135242169843,0,-1,-1,-1,0,-1,-2,-4
1523135242169843,-1,-4,0,-1,0,-2,-1,-1
1523135242176147,-2,-2,1,3,-2,1,-2,2
1523135242176147,-1,-2,-3,-1,0,-1,1,0
1523135242191190,-1,-4,1,3,2,0,-1,-3
1523135242191190,1,-1,0,-5,-1,-1,-1,-1
1523135242199028,-2,-3,-5,-1,2,0,-4,-1
1523135242199028,-3,0,2,3,-1,0,-1,-2
1523135242207176,-1,1,-4,-3,-2,-2,0,0
1523135242207176,1,1,0,-4,0,-1,-1,0
1523135242212935,-1,0,-1,2,-3,4,0,-1
1523135242212935,0,-1,0,-7,-2,1,-2,0
1523135242229978,-1,1,1,6,1,-2,0,-3
1523135242229978,-3,0,0,2,-3,0,-4,2
1523135242236000,-4,2,0,-1,-1,-2,0,-4
1523135242236000,1,-4,1,0,-1,-1,-1,0
1523135242251354,1,-2,1,-4,-2,-2,-2,-1
1523135242251354,-1,-2,-4,-6,-1,1,2,-1
1523135242258305,0,-1,-1,3,1,0,-2,0
1523135242258305,0,2,1,1,-1,-1,-3,-1
1523135242275373,-1,0,-1,-2,-3,-4,-3,0
1523135242275373,-5,-1,0,-5,-2,0,1,-2
1523135242276109,2,1,2,-7,-1,1,-3,-2
1523135242276109,-1,-2,-5,-2,-3,0,-2,-2
1523135242290142,0,-1,1,2,3,-1,-1,1
1523135242290142,1,2,1,-2,-1,-1,2,-1
1523135242296153,-3,-1,2,3,-2,-1,2,0
1523135242296153,0,-1,1,-7,-3,1,2,0
1523135242319459,-4,-3,-1,0,-2,-3,-3,-3
1523135242319459,2,-4,-4,-1,2,-1,2,-2
1523135242320220,-2,-2,-2,0,-1,-1,-2,-1
1523135242320220,-5,-1,0,1,0,-2,1,3
1523135242327236,-2,-2,-1,-6,-2,0,0,0
1523135242327236,-1,-1,0,0,-1,0,-2,-2
1523135242341531,-1,-4,1,1,-1,-1,-3,-4
1523135242341531,-4,-2,-4,-2,0,2,1,-3
1523135242349343,1,4,-4,-1,-2,-1,-2,0
1523135242349343,-2,-2,3,4,2,-3,-1,2
1523135242356313,3,2,-2,3,-3,0,-2,-2
1523135242356313,-2,-2,-3,-9,0,-2,-2,0
1523135242371353,-1,-1,-2,0,0,2,-3,-4
1523135242371353,0,0,-6,0,0,-2,0,-4
1523135242378427,-4,-1,1,1,0,-2,1,0
1523135242378427,0,-2,1,3,-2,1,-3,-2
1523135242387398,1,-1,-2,4,0,-1,1,-1
1523135242387398,0,0,3,-11,0,0,-2,-3
1523135242400431,2,1,-1,1,-3,-2,-2,1
1523135242400431,-1,-2,-2,0,-1,1,0,-4
1523135242409454,0,2,2,1,-3,-4,-1,1
1523135242409454,-2,2,-1,3,-1,-3,1,1
1523135242415504,-2,3,0,-3,1,-2,-1,0
1523135242415504,0,-3,-1,-1,-1,-3,-3,-2
1523135242430736,1,-4,-2,-2,-3,0,-1,-2
1523135242430736,0,-3,-4,0,0,-1,-1,-1
1523135242438757,-1,-3,1,-1,-1,-1,-1,-1
1523135242438757,3,1,0,2,-3,-3,-1,-1
1523135242447556,-1,0,2,-3,2,1,0,-3
1523135242447556,-2,-1,1,-1,-1,-3,1,1
1523135242460818,-1,0,-4,-5,-2,-2,-2,-2
1523135242460818,-3,0,-3,2,2,0,-1,-1
1523135242469637,0,0,-2,-2,-2,-3,-3,-3
1523135242469637,2,-2,0,3,-1,-1,-2,1
1523135242475866,0,-1,-2,-1,-1,1,0,-1
1523135242475866,1,1,0,-2,0,-1,-3,-1
1523135242491149,-3,1,-4,-2,1,-1,-1,0
1523135242491149,1,-2,-4,-1,-2,2,-1,-1
1523135242498135,1,-1,-1,-3,-3,0,-2,0
1523135242498135,0,-2,0,3,0,-2,0,-2
1523135242507040,-1,-2,0,-3,-1,1,1,-1
1523135242507040,1,-3,0,0,2,-2,0,-2
1523135242521192,-4,-2,2,0,-2,-3,-1,1
1523135242521192,2,2,-4,-3,-1,-1,-2,-4
1523135242530066,-2,-1,-1,-5,0,0,0,0
1523135242530066,-3,3,1,1,-5,-1,-3,-2
1523135242536224,3,-6,-1,-1,0,-2,0,1
1523135242536224,0,-1,0,0,1,-4,-3,-1
1523135242551121,-2,-2,-4,-2,-1,-1,0,-3
1523135242551121,-4,1,-1,2,-1,1,-2,0
1523135242558283,0,0,-5,-7,0,0,-1,0
1523135242558283,-2,-3,-4,-3,0,2,0,-2
1523135242567165,0,-1,1,1,0,0,1,0
1523135242567165,-1,-3,0,1,-1,0,-2,-1
1523135242581265,-3,-4,-1,0,0,2,2,0
1523135242581265,1,-3,0,-3,-1,1,-1,-3
1523135242590321,1,-1,0,1,-3,-2,-3,0
1523135242590321,-5,-1,-3,-5,1,-3,1,-1
1523135242596243,-2,3,1,1,-1,-3,0,-4
1523135242596243,0,2,-1,1,-3,0,-1,2
1523135242611280,-5,-2,0,1,-1,0,-1,-1
1523135242611280,-3,-3,-1,-2,-2,1,-2,-4
1523135242618417,-1,-1,-4,-3,0,-3,0,-3
1523135242618417,0,-1,-4,0,-1,-1,-2,1
1523135242627325,-1,-1,-1,0,0,-1,-1,-1
1523135242627325,-1,1,-6,-4,1,-2,-2,2
1523135242641362,0,-1,-2,-1,-2,0,-1,0
1523135242641362,-3,-4,2,3,-2,-3,2,0
1523135242649438,1,-2,0,-3,-3,-2,0,-1
1523135242649438,2,1,0,0,-2,-1,-3,-2
1523135242655400,-2,-5,-1,-1,0,1,0,1
1523135242655400,-2,0,-4,-3,0,-3,-2,0
1523135242670479,3,-4,-4,-5,-1,-1,-3,0
1523135242670479,-1,1,-2,-2,-1,0,-2,-5
1523135242678460,-4,1,1,1,-2,-2,-2,-2
1523135242678460,-2,0,5,-2,-2,2,0,0
1523135242687487,-2,-1,-3,-1,1,-3,-2,-1
1523135242687487,4,-2,0,-3,-2,-2,-1,0
1523135242700519,-1,0,-2,-1,-2,1,-3,1
1523135242700519,-1,0,0,0,0,-2,0,2
1523135242709543,-2,1,-1,-1,-1,-1,-1,3
1523135242709543,-1,1,2,0,-2,-1,-1,2
1523135242715560,0,0,-4,-4,1,-1,-2,-4
1523135242715560,-2,-1,-2,1,-1,-2,0,0
1523135242730598,-2,0,-4,-1,3,-1,-3,1
1523135242730598,0,-3,3,-3,-2,-1,-1,1
1523135242738671,0,1,-3,-2,-1,0,-1,-2
1523135242738671,-3,-1,-2,-4,1,0,-1,-2
1523135242747644,0,-2,-1,2,-1,-4,2,-2
1523135242747644,0,-3,-1,-2,2,-1,2,-2
1523135242760717,1,0,0,-1,-1,-1,0,-1
1523135242760717,0,1,-4,-5,-1,0,-4,1
1523135242769703,-3,-1,-1,2,-1,0,0,0
1523135242769703,0,-2,-3,2,-1,-1,-1,0
1523135242775719,-1,-1,2,3,0,-1,-1,-3
1523135242775719,1,-5,1,-2,2,1,-1,-3
1523135242790966,-1,-1,-1,-1,1,-2,1,-3
1523135242790966,-3,-3,-2,-2,-3,-1,-3,2
1523135242798835,0,-2,-4,-4,-3,0,-3,1
1523135242798835,-3,-3,6,2,1,-1,0,0
1523135242807833,1,-1,-5,-2,0,0,-1,-2
1523135242807833,-2,2,1,0,-1,-3,-2,-3
1523135242821047,-1,-1,-4,0,-1,-3,-1,0
1523135242821047,1,0,0,-1,-2,-1,0,-4
1523135242829864,-2,-2,4,-2,0,-1,2,-2
1523135242829864,-2,-4,-6,-5,-3,1,3,2
1523135242836090,-3,1,0,1,1,-3,1,-1
1523135242836090,1,0,-1,0,-1,1,1,-1
1523135242851126,-1,0,2,0,-3,-1,-1,2
1523135242851126,0,0,-2,-4,2,1,-3,3
1523135242858940,0,-1,1,0,-3,0,0,-3
1523135242858940,-1,-1,-4,0,-4,-1,-3,-3
1523135242867000,-2,1,-2,-2,3,2,3,-1
1523135242867000,-3,1,3,0,0,0,2,0
1523135242881113,-3,-1,3,-1,1,-2,-1,-2
1523135242881113,0,-2,-7,0,-4,-1,-1,-2
1523135242890024,-1,0,-2,-9,-6,0,-4,2
1523135242890024,-1,0,2,4,1,1,-1,-5
1523135242896042,0,-1,-1,-1,2,0,-4,-1
1523135242896042,0,-1,2,-2,-2,-2,1,4
1523135242911081,-1,-2,-3,1,-1,-2,-2,-3
1523135242911081,-2,-1,1,0,1,0,-2,-3
1523135242918154,0,-2,-1,0,-1,0,1,0
1523135242918154,-3,1,0,2,0,-3,-2,0
1523135242933194,0,-2,0,3,-1,-1,-1,-1
1523135242933194,1,-1,-1,-3,-3,-2,-2,-1
1523135242941209,2,-2,-5,-4,-1,-1,0,-1
1523135242941209,0,0,1,-1,0,0,0,-1
1523135242956259,1,-3,1,0,1,-1,0,-3
1523135242956259,0,-2,-2,-1,-1,-2,-1,2
1523135242957204,-1,1,-1,0,-2,0,2,0
1523135242957204,1,-3,1,-3,-6,-2,0,-2
1523135242971238,0,0,-1,0,-1,0,-1,0
1523135242971238,0,-2,-1,-5,0,1,1,-4
1523135242978261,-2,-4,-4,3,-1,2,-1,1
1523135242978261,-1,5,-4,-4,1,-2,-1,-4
1523135242993359,-1,-1,1,1,-2,-1,0,1
1523135242993359,1,0,-2,1,-1,-2,-1,1
1523135243000373,-1,2,0,-2,-1,0,-2,-5
1523135243000373,0,0,-3,0,2,-1,1,-2
1523135243016416,-3,-1,1,-2,-2,-1,-3,-1
1523135243016416,1,-2,-1,1,0,-4,2,1
1523135243017362,-3,-2,0,-1,-1,-3,0,0
1523135243017362,-2,-1,-4,1,0,-2,0,-3
1523135243030453,-1,-1,-1,-1,-3,0,1,-2
1523135243030453,-2,-3,1,-3,-2,-1,-3,1
1523135243038472,2,1,-1,1,2,-3,-1,-1
1523135243038472,-1,-1,-1,-5,0,-1,-2,1
1523135243053514,0,3,-2,0,1,1,-1,-2
1523135243053514,-3,0,0,-1,-2,3,2,-2
1523135243060538,0,-4,-1,-3,-2,-5,-3,-1
1523135243060538,-5,0,-2,-4,0,0,-1,-2
1523135243076581,-3,0,-1,-3,-1,-2,-3,-3
1523135243076581,-5,3,-1,5,0,0,-1,-2
1523135243077522,-2,0,-2,-3,-4,0,0,-2
1523135243077522,0,0,0,1,-2,1,0,2
1523135243090613,-1,-1,-2,-1,-1,-3,-3,-2
1523135243090613,-2,-2,-2,-4,0,0,-3,-3
1523135243106660,-1,0,2,-2,-2,-2,1,0
1523135243106660,-1,-2,-1,2,0,1,1,-2
1523135243113675,-1,-3,-1,0,-3,0,-1,2
1523135243113675,-2,-1,-2,0,-3,-1,-3,1
1523135243120693,-7,0,1,0,-1,-1,-1,-2
1523135243120693,-5,-1,0,-1,-2,-2,0,-1
1523135243136735,0,-1,-1,0,-1,0,0,0
1523135243136735,-3,0,-1,1,-2,-3,-1,-2
1523135243137681,4,-4,-1,-1,0,-1,-1,1
1523135243137681,-3,0,0,-1,1,-4,-3,-1
1523135243150773,0,-1,-1,-5,-2,2,-1,-4
1523135243150773,1,-2,0,-1,-1,-2,-3,-2
1523135243158737,1,-2,0,-1,-3,-1,1,-1
1523135243158737,-1,-2,-2,0,-3,1,-1,-2
1523135243173779,-1,-1,-2,-3,-1,-3,-2,-1
1523135243173779,3,1,1,2,-2,-3,0,1
1523135243180850,0,-2,1,-1,0,0,-2,0
1523135243180850,3,1,-4,1,-3,-2,0,0
1523135243196839,-1,-2,-1,4,-2,-3,-1,1
1523135243196839,-3,0,-5,-6,-3,-2,-1,-1
1523135243196839,-2,0,-2,-3,-3,-1,-1,0
1523135243196839,-3,-1,3,-2,2,1,-1,2
1523135243210876,0,0,1,3,2,-2,0,0
1523135243210876,-3,-2,0,-2,1,-3,-1,0
1523135243217896,-3,0,-2,-1,-4,-2,0,-3
1523135243217896,-2,-5,-2,-5,1,0,-2,-2
1523135243232936,1,-1,-2,-1,-1,0,-2,0
1523135243232936,2,-1,-5,-1,0,-2,-2,-1
1523135243240959,0,0,0,3,3,1,0,0
1523135243240959,2,-2,1,1,0,0,-3,1
1523135243257023,-4,-2,1,-3,-1,-3,-2,0
1523135243257023,-4,-1,-1,-5,1,1,0,0
1523135243257023,-1,-1,-2,-1,-4,0,-2,-2
1523135243257023,0,-2,0,-2,-2,-3,1,-3
1523135243271036,0,-2,-1,-1,-2,-2,-2,-1
1523135243271036,2,-5,0,3,-1,-1,2,-2
1523135243278055,-4,-1,-1,1,-1,-3,0,-3
1523135243278055,1,1,-1,-5,-1,-2,0,1
1523135243293325,-1,0,-3,-1,1,-1,-1,-1
1523135243293325,-1,2,0,-1,-2,-1,1,-2
1523135243301120,-2,1,0,0,-1,1,-2,2
1523135243301120,-2,-1,-1,1,-5,-3,-2,1
1523135243316327,-2,0,-2,-1,-2,-1,-1,-1
1523135243316327,1,1,2,-1,-1,2,1,1
1523135243324408,-2,-1,-3,-1,-2,2,-3,-1
1523135243324408,2,-4,-3,-2,-2,0,-1,1
1523135243339443,0,-1,-4,1,-2,-1,-1,0
1523135243339443,0,-1,1,-3,2,0,-2,-1
1523135243340251,-1,0,-3,-1,-1,-2,2,0
1523135243340251,0,0,1,1,2,-1,-1,-3
1523135243353480,-2,-3,-3,-6,-2,0,2,0
1523135243353480,0,2,-4,3,0,-3,-3,-3
1523135243360467,-1,-2,0,-3,1,0,-2,-1
1523135243360467,-1,-1,1,-2,1,-2,-1,-2
1523135243376317,3,-2,-1,-1,-2,1,-1,-2
1523135243376317,-1,0,0,1,-3,-1,-1,-4
1523135243384338,-1,1,2,-4,-1,-4,-1,-1
1523135243384338,-5,1,-2,0,-1,-1,1,-2
1523135243399391,-2,0,3,3,1,-1,-1,-3
1523135243399391,-1,-2,-4,-10,-3,-2,0,1
1523135243399391,0,1,-2,1,-1,-2,-1,0
1523135243399391,2,0,1,-1,-3,0,-2,-3
1523135243413537,-1,0,0,-3,-1,2,-1,-1
1523135243413537,-1,-1,-5,2,1,-3,-2,0
1523135243420553,0,0,4,-1,2,1,-2,-3
1523135243420553,0,2,-4,-5,-5,-1,0,2
1523135243435595,1,1,-1,3,0,-2,-1,-4
1523135243435595,-2,-1,-3,0,-1,2,1,-2
1523135243443620,-3,-3,-3,5,0,0,1,-4
1523135243443620,-2,-2,-2,-3,1,2,-1,1
1523135243458659,2,0,-1,-7,-2,1,0,0
1523135243458659,-2,-1,1,-6,-2,-3,-2,-2
1523135243459538,2,-2,-3,3,-1,1,2,3
1523135243459538,-4,-1,3,-2,1,-1,0,-2
1523135243473697,-3,1,-5,-4,1,-3,0,-1
1523135243473697,-2,2,2,4,1,0,-1,0
1523135243480714,-1,-4,-2,-6,-1,-4,-4,-2
1523135243480714,-1,-1,-3,5,-2,0,-1,-2
1523135243495634,-1,-2,-1,-20,-2,-3,-2,1
1523135243495634,-3,2,1,6,-2,2,0,-3
1523135243503776,0,1,3,1,1,-1,3,-1
1523135243503776,-2,0,-5,-3,-4,0,-2,0
1523135243518814,-3,0,-2,3,1,-2,-1,0
1523135243518814,-2,-3,-2,-2,-1,0,-2,-1
1523135243519699,0,0,-3,-4,-3,-1,-2,-2
1523135243519699,1,1,2,-2,4,1,0,-2
1523135243533766,-4,1,-3,2,-5,-1,3,-3
1523135243533766,0,-1,0,-4,1,-1,-3,0
1523135243540877,-3,-2,-1,3,2,-1,0,2
1523135243540877,2,-4,0,-2,0,-2,-2,-4
1523135243555917,-1,-2,-1,6,3,-1,1,-1
1523135243555917,1,-3,2,-1,-1,-4,0,1
1523135243563937,0,2,-1,-4,-5,1,-3,-3
1523135243563937,-1,-2,-1,1,-1,-1,1,-2
1523135243578856,-3,-5,-1,2,-1,0,-2,-2
1523135243578856,-2,-6,1,0,-1,-1,-2,-1
1523135243579859,0,-3,-3,-3,2,1,-1,-2
1523135243579859,1,-2,-1,0,0,0,-3,1
1523135243593017,0,4,1,-2,1,-2,-1,0
1523135243593017,0,-2,-1,-1,-3,-2,0,-2
1523135243601033,1,0,-2,-3,-2,1,1,-1
1523135243601033,-5,2,-1,2,-1,-1,0,2
1523135243616075,-1,-3,-3,-11,1,1,-4,-6
1523135243616075,1,1,-1,0,-2,-1,0,1
1523135243624099,-3,-5,-3,0,2,-1,-2,-2
1523135243624099,-2,0,-2,2,-3,-2,2,1
1523135243639143,0,-1,2,-3,-3,-2,-1,2
1523135243639143,-4,2,-3,-1,-1,-1,-2,2
1523135243640018,2,-3,2,2,1,-1,3,1
1523135243640018,-4,-4,-1,-4,-3,-1,-3,-2
1523135243653171,-1,-1,1,4,-2,-2,-2,-1
1523135243653171,-1,2,-2,-1,1,-1,-1,-1
1523135243661074,0,1,1,-2,-3,-2,-3,2
1523135243661074,0,-1,-1,-4,0,-2,-2,-3
1523135243676238,0,0,1,2,0,-1,1,0
1523135243676238,-1,-1,-1,1,1,2,1,0
1523135243684135,-1,3,-1,-2,-2,-1,-4,-3
1523135243684135,1,-2,0,-3,-2,-1,-1,1
1523135243699294,1,-2,0,4,-4,-1,0,-1
1523135243699294,-1,-3,0,-5,2,-1,-1,-3
1523135243706316,0,-2,-5,-8,-5,0,-1,-2
1523135243706316,0,0,-3,2,-1,-3,-1,2
1523135243713331,-1,0,-1,3,-1,-1,2,3
1523135243713331,1,-2,1,-2,-1,1,-3,-4
1523135243721244,0,0,-3,1,0,-3,-1,-2
1523135243721244,-4,-2,-3,0,2,2,-3,-2
1523135243736273,-4,-1,-2,0,-1,-1,-2,0
1523135243736273,3,2,-5,2,1,-1,2,0
1523135243744295,-1,0,2,0,0,-1,-1,-3
1523135243744295,3,-1,-1,-1,0,-1,-1,-1
1523135243759395,-1,-1,1,-1,-3,0,-3,0
1523135243759395,0,-2,-2,0,-2,-1,-3,3
1523135243760340,1,-3,-1,-1,-2,0,-1,1
1523135243760340,-3,-3,4,-4,-1,-2,0,-2
1523135243773496,0,-1,-1,-3,2,-1,1,-4
1523135243773496,-6,-2,-2,2,-4,0,0,-2
1523135243780513,-4,-1,0,-2,-2,-3,-1,1
1523135243780513,-1,0,-3,-2,0,-1,0,-2
1523135243795433,3,1,-1,0,-1,-4,-2,0
1523135243795433,-2,-2,-1,-2,-1,-1,-2,-1
1523135243804454,-2,1,1,3,0,-4,-2,0
1523135243804454,-1,-1,0,-1,0,1,0,-3
1523135243819496,0,-2,-1,-2,0,0,1,-3
1523135243819496,3,1,-3,-7,-1,-1,1,0
1523135243819496,1,-1,-3,-4,-1,-1,0,2
1523135243819496,0,2,0,-1,-2,-3,0,-1
1523135243833652,-3,-3,-4,-2,0,-2,-5,0
1523135243833652,-1,1,-4,-6,-2,0,-2,-2
1523135243840673,0,0,-1,1,-2,-2,-1,-4
1523135243840673,2,2,-1,1,1,-1,-3,-1
1523135243855681,-2,0,-1,-1,0,-2,-1,-2
1523135243855681,0,-2,0,1,-1,-3,-2,-1
1523135243863702,-7,0,-1,-1,2,2,-1,-2
1523135243863702,-3,-2,-3,-5,-4,2,-2,-1
1523135243878655,-2,1,0,3,1,2,-1,0
1523135243878655,-1,-1,1,-2,-2,-2,-1,-1
1523135243879658,0,-2,0,3,-2,-4,-2,1
1523135243879658,-1,1,-2,0,-2,-3,1,-1
1523135243892782,1,0,-1,0,-3,1,-2,-3
1523135243892782,-1,1,0,-2,3,-2,-1,1
1523135243900712,-3,-2,-1,-5,-2,1,-1,-3
1523135243900712,3,-1,0,0,-1,0,-1,1
1523135243915852,-1,0,-1,-6,-2,0,-3,0
1523135243915852,-3,-1,-1,1,-1,-3,-2,-3
1523135243923863,-2,1,0,-3,-2,-1,0,-2
1523135243923863,-2,-1,-1,0,0,-2,0,-1
1523135243938864,-4,0,-1,2,1,0,2,-2
1523135243938864,2,-3,-1,-2,-3,-1,1,0
1523135243939818,1,-1,0,1,-2,2,-2,-1
1523135243939818,3,4,-4,-4,-2,-3,-2,-3
1523135243952943,1,0,2,2,-3,-4,1,-3
1523135243952943,-1,0,-1,-1,0,-1,-1,1
1523135243960874,-3,-3,1,0,-2,0,0,-1
1523135243960874,-1,-2,0,-1,-2,-3,-4,-1
1523135243976009,-4,-3,-6,-3,-1,-2,-1,-1
1523135243976009,-1,1,0,0,0,-2,1,2
1523135243984023,2,-3,-4,3,3,-1,-4,0
1523135243984023,-1,-1,0,-4,-1,0,-1,0
1523135243999065,-2,0,-1,-1,-2,-1,-1,1
1523135243999065,-2,-5,-2,-6,-3,2,-2,-3
1523135243999977,0,-1,-3,0,1,-4,-2,0
1523135243999977,-2,-4,-1,2,2,1,3,1
1523135244013102,-1,-2,2,-1,0,1,1,0
1523135244013102,-2,2,0,4,-4,-2,-1,-2
1523135244021125,-4,1,-3,-5,-3,-2,-1,0
1523135244021125,-1,-3,-7,2,0,-2,-2,0
1523135244036161,2,-1,-2,2,0,-2,0,0
1523135244036161,-1,-1,0,-4,-1,-1,-3,-5
1523135244044094,-2,-3,-3,-2,0,-1,5,0
1523135244044094,-1,-3,0,0,-3,0,-3,-3
1523135244059231,0,-1,1,-1,0,-3,-2,0
1523135244059231,1,-2,1,-3,-1,-3,1,-1
1523135244060135,-2,1,1,2,-2,-2,-3,1
1523135244060135,-1,1,0,-3,2,2,1,-1
1523135244073262,-1,0,0,-2,-2,1,-1,-1
1523135244073262,-5,0,-1,-1,-1,0,0,1
1523135244081215,0,-3,3,0,-2,1,2,-2
1523135244081215,-1,-2,0,1,-2,0,-2,-1
1523135244096242,-2,-4,-2,-2,0,-3,-3,0
1523135244096242,0,-5,0,3,1,-3,-2,-2
1523135244104343,2,-2,-4,-7,-3,0,-1,-1
1523135244104343,-2,2,-5,0,-2,1,0,1
1523135244119385,0,2,4,-6,1,-1,-2,-2
1523135244119385,1,-3,-3,3,-3,0,0,-1
1523135244119385,-3,2,-4,-1,2,-2,-1,-2
1523135244119385,1,-6,2,1,-1,-1,-2,-2
1523135244133423,1,1,2,5,-2,0,-1,0
1523135244133423,-3,-1,-2,-6,-1,-1,1,0
1523135244140446,0,-1,1,5,-1,-2,-2,0
1523135244140446,-1,0,0,1,2,-6,0,-2
1523135244155486,-1,-3,-6,-4,-3,1,1,-2
1523135244155486,1,1,1,5,0,-2,0,-2
1523135244164415,1,-4,-1,-3,0,-1,-2,-2
1523135244164415,-2,2,4,1,-1,0,0,-3
1523135244179496,1,0,-3,-7,-1,-2,1,0
1523135244179496,-1,0,2,8,1,1,-1,1
1523135244179496,0,-2,-1,-17,-5,0,-3,1
1523135244179496,-2,3,-2,2,0,1,0,1
1523135244193532,0,-3,-2,2,1,-2,-2,-4
1523135244193532,2,0,-5,-28,-8,0,-3,-2
1523135244200551,-1,-2,1,8,2,-2,1,-4
1523135244200551,0,0,-2,2,0,4,-1,1
1523135244215686,0,-3,-1,-9,0,0,-2,-2
1523135244215686,1,2,2,20,-1,-2,0,-2
1523135244223706,1,-1,-4,-7,-3,-2,-4,-3
1523135244223706,1,-1,-5,-9,-4,-5,-1,2
1523135244238691,-4,1,2,-2,2,4,-2,-1
1523135244238691,3,-7,-3,4,2,-2,-1,-4
1523135244246764,-1,4,1,-2,0,-1,-1,-3
1523135244246764,-4,-3,2,-1,-2,0,-1,-3
1523135244253715,-3,-1,-2,14,-2,-4,0,-1
1523135244253715,-3,3,-7,-7,0,2,2,-1
1523135244260712,-1,-1,0,-1,1,2,0,1
1523135244260712,0,-4,-8,-3,-8,-3,-3,-2
1523135244275848,-4,-2,-2,9,1,0,-1,1
1523135244275848,-4,0,0,-6,1,0,-3,2
1523135244283773,1,3,-2,-2,2,1,-1,-1
1523135244283773,-3,2,0,-4,2,0,1,-3
1523135244298814,1,-1,0,-4,-5,-2,-4,-3
1523135244298814,-5,-3,2,2,-2,1,-1,-2
1523135244306915,-2,-2,2,3,2,-1,2,1
1523135244306915,1,-2,5,-4,-4,-4,-2,0
1523135244321875,-2,0,-4,-4,-8,-5,-4,-3
1523135244321875,-1,0,1,-2,3,-3,1,0
1523135244321875,-4,0,-1,9,-4,1,2,-2
1523135244321875,0,-1,-1,11,4,0,-1,0
1523135244336004,0,-2,-5,-34,-6,-2,-1,2
1523135244336004,3,-2,4,14,-1,-1,-2,-2
1523135244343932,-2,-2,-4,-7,0,0,-2,-1
1523135244343932,-1,-2,5,15,2,-1,-1,-2
1523135244358067,2,2,-1,-21,1,4,3,-1
1523135244358067,-3,-2,-4,4,1,-4,0,-3
1523135244366996,0,-2,3,5,-1,1,0,0
1523135244366996,0,-1,-1,-9,-2,-1,2,-1
1523135244381121,-5,-1,2,2,2,-1,1,-4
1523135244381121,1,1,-2,-3,-5,0,-2,1
1523135244382033,-3,-1,4,13,1,-3,-3,-3
1523135244382033,-5,-2,-7,-26,-1,0,0,-2
1523135244396168,1,-1,-3,19,-5,-1,3,0
1523135244396168,-2,-2,-2,-9,3,-1,-2,-3
1523135244404182,-2,-2,-2,9,0,-2,0,1
1523135244404182,-1,-3,-5,-4,-9,-4,-5,-4
1523135244418130,-3,0,3,12,5,-2,0,0
1523135244418130,-2,2,-5,-10,-2,-1,-1,-3
1523135244426246,-1,0,-1,-12,-3,0,-1,-3
1523135244426246,-3,-2,0,1,4,-1,-1,-2
1523135244441289,0,-3,-2,7,-2,-1,-2,0
1523135244441289,-3,0,1,-16,-5,-2,-1,-3
1523135244442194,-1,-2,-3,2,0,0,-3,3
1523135244442194,1,-1,5,9,5,1,0,1
1523135244455318,-6,-1,0,-3,-2,-1,0,-4
1523135244455318,1,-3,3,16,-1,1,2,0
1523135244464343,-1,-2,-1,-4,0,1,1,-1
1523135244464343,-1,1,1,-1,0,-1,-1,0
1523135244478291,1,-1,2,7,2,-2,-3,1
1523135244478291,-3,0,-2,3,-2,-1,-3,-1
1523135244486398,-4,-5,-4,-18,-4,-3,-2,-1
1523135244486398,0,1,1,15,-1,-1,0,2
1523135244501553,1,-1,-1,-5,-1,-2,-1,-4
1523135244501553,-1,0,-5,-7,3,5,-1,0
1523135244502469,1,-4,1,-1,-18,-6,-1,1
1523135244502469,1,-3,-8,-24,5,-3,-2,-1
1523135244515593,-1,1,-4,2,0,-3,-1,0
1523135244515593,-2,0,-3,-1,-2,-2,1,0
1523135244523614,1,3,7,20,7,2,2,-2
1523135244523614,-4,-4,-13,-33,-14,-5,-2,-2
1523135244538659,-2,-1,0,2,-2,0,1,0
1523135244538659,-3,-4,-1,1,3,-3,-2,0
1523135244546680,-2,4,-3,-2,1,0,-2,0
1523135244546680,-5,0,4,7,-1,0,0,0
1523135244561627,1,0,0,-1,2,1,-3,-2
1523135244561627,-2,1,-1,-9,-6,-2,-2,-1
1523135244562688,-1,-2,-4,-4,-1,0,-3,-5
1523135244562688,-2,0,0,11,1,-1,0,-3
1523135244575756,-2,-4,-2,-6,-1,2,2,0
1523135244575756,2,0,4,3,-3,0,1,2
1523135244583685,-2,-2,-6,-5,0,-5,-3,-3
1523135244583685,3,4,5,6,0,2,-2,-1
1523135244598739,-2,0,-1,8,-1,-2,-4,-2
1523135244598739,-1,-1,-3,-12,-4,-3,-1,-2
1523135244606841,-2,-1,-1,-3,2,2,1,1
1523135244606841,-3,-1,-5,3,-5,-3,0,-1
1523135244621876,1,-4,0,-1,2,1,-1,-2
1523135244621876,1,-1,-1,7,0,0,0,-3
1523135244621876,-1,-2,-2,5,-2,-4,-1,-3
1523135244621876,-4,0,3,-10,-1,-1,1,0
1523135244635915,-1,1,2,0,-2,1,2,-2
1523135244635915,-4,0,-1,2,1,-1,-3,-3
1523135244643844,-1,1,-1,-1,0,-1,1,1
1523135244643844,0,1,1,-1,-1,-3,-2,-2
1523135244657975,-2,0,-2,1,2,-1,-1,1
1523135244657975,0,-2,-4,-4,-1,1,-4,1
1523135244666909,-2,0,4,-1,-2,-3,2,-2
1523135244666909,-2,-4,-6,3,-1,2,-1,1
1523135244681947,-2,3,0,-5,-1,-1,-1,-2
1523135244681947,0,-2,-3,-1,0,0,0,-1
1523135244681947,-2,4,-3,1,1,-2,-4,-1
1523135244681947,-1,-3,0,-17,3,-2,0,-1
1523135244696071,-1,-4,-5,3,-2,-2,-1,-3
1523135244696071,-1,-4,3,8,1,2,0,-1
1523135244704100,0,-2,0,-7,-3,0,1,-2
1523135244704100,-1,1,2,4,0,0,-2,0
1523135244718133,0,3,-3,-2,1,-2,-3,-1
1523135244718133,-3,-2,-2,-13,-3,-6,1,1
1523135244726153,0,-3,-2,-3,-2,3,-2,0
1523135244726153,1,2,1,11,5,3,1,-3
1523135244741198,0,-1,-3,-11,-4,-5,-4,0
1523135244741198,-3,-2,1,17,3,-1,-2,-2
1523135244742108,-3,1,-7,-39,-7,-3,-1,-1
1523135244742108,1,-4,0,8,-2,1,-3,-1
1523135244756217,-3,-4,2,4,2,3,4,1
1523135244756217,0,0,-4,-12,-2,-1,0,1
1523135244771278,3,-3,-3,13,3,0,-2,-2
1523135244771278,-3,2,1,5,-2,-1,-1,1
1523135244778241,-2,-1,-2,-10,-4,-6,2,0
1523135244778241,-1,-3,4,12,-1,-1,-2,0
1523135244786224,0,-2,4,5,4,1,-2,-1
1523135244786224,1,0,-3,-1,-1,0,-1,-1
1523135244801357,-2,0,-1,-9,1,0,-1,0
1523135244801357,-1,1,-3,9,0,-3,0,0
1523135244802267,-1,-3,2,1,-5,-2,-3,-3
1523135244802267,0,-1,2,-7,-1,0,0,-3
1523135244815337,-1,-1,-3,0,-1,-1,-3,1
1523135244815337,3,1,0,-10,1,1,-3,-1
1523135244824413,-2,1,1,3,0,-1,-1,1
1523135244824413,-2,1,-2,1,-2,1,-1,-2
1523135244838456,-1,2,1,5,-3,-3,-1,-2
1523135244838456,0,1,-3,-22,-4,-4,-1,-3
1523135244846475,1,0,-3,10,2,1,0,-2
1523135244846475,-2,-5,-4,-5,-1,-3,-1,3
1523135244861425,-3,-1,2,6,0,1,1,-2
1523135244861425,0,1,0,2,0,1,2,-1
1523135244862428,-2,0,-2,-7,-2,-3,-1,-2
1523135244862428,-1,-1,-2,13,0,-5,0,-5
1523135244875556,2,-2,0,-25,-1,-1,-1,0
1523135244875556,-2,-1,-2,22,-3,0,-2,-3
1523135244884486,0,-4,-5,-7,-2,-3,0,1
1523135244884486,-1,3,1,4,2,2,1,0
1523135244898612,3,-2,7,1,7,1,-1,-1
1523135244898612,-2,-5,-22,-70,-17,-6,-5,-2
1523135244906639,-4,1,1,24,-1,1,3,-2
1523135244906639,0,-1,-1,-22,-3,-2,-4,-3
1523135244921678,1,-1,1,10,4,-1,2,0
1523135244921678,-1,-1,8,29,8,1,2,-1
1523135244922587,-1,-1,-10,-62,-11,-6,-3,1
1523135244922587,-1,2,0,-15,0,0,2,-3
1523135244935715,-1,3,-1,7,-1,-1,-2,-2
1523135244935715,0,-1,0,-3,2,-1,0,-1
1523135244943645,-4,-3,2,14,-3,-5,-2,1
1523135244943645,2,-1,1,8,-2,-3,-3,0
1523135244958737,-1,-1,-2,-10,-4,1,1,-2
1523135244958737,1,-1,3,1,-2,0,-1,1
1523135244966704,0,-1,-1,4,1,0,0,-3
1523135244966704,-2,-5,-6,-10,-2,1,0,-2
1523135244981838,-2,-2,-3,16,-4,-4,-2,0
1523135244981838,0,-1,3,-4,4,-3,-1,-2
1523135244982747,1,0,0,8,2,3,4,3
1523135244982747,-1,-1,2,1,-3,-5,-3,1
1523135244995870,-1,0,-6,1,-1,-2,1,-5
1523135244995870,-6,0,-2,4,-7,-2,0,-1
1523135245003891,0,-1,1,7,4,3,-3,-2
1523135245003891,1,1,-6,-1,-2,0,1,1
1523135245017934,-1,-4,2,3,1,-3,-4,-4
1523135245017934,-3,1,-5,-17,-4,0,-2,-1
1523135245026864,-2,-3,3,13,2,0,1,-2
1523135245026864,-1,5,0,1,-2,-2,1,1
1523135245040994,-1,-4,-3,-2,-4,3,-3,0
1523135245040994,-1,-2,4,12,2,0,-1,-1
1523135245049012,2,1,2,2,1,-1,-2,-4
1523135245049012,-3,0,-1,-17,-1,-2,0,-1
1523135245056030,0,0,0,4,1,-1,-1,2
1523135245056030,1,-2,1,-4,-5,0,1,-3
1523135245064051,0,-2,-2,0,-3,-2,-3,-3
1523135245064051,0,0,0,5,-1,-3,-1,-2
1523135245087113,-3,-1,-5,-6,-2,-3,0,2
1523135245087113,2,2,2,3,2,1,1,-2
1523135245088028,-3,-3,-10,-4,-3,0,-1,1
1523135245088028,0,-4,1,7,0,-3,-1,-2
1523135245101151,0,-1,1,-4,0,0,-2,-2
1523135245101151,-3,1,-2,-7,-3,-4,0,2
1523135245102064,1,2,-2,-1,-2,-3,0,0
1523135245102064,1,-1,-3,4,-1,-2,-1,-1
1523135245116101,-2,6,-1,-2,2,2,-4,-2
1523135245116101,-1,-1,0,4,-5,-2,-2,0
1523135245123214,-1,-1,-1,-1,3,1,-1,0
1523135245123214,-4,-5,-2,1,-2,0,-1,-3
1523135245138414,-1,-1,0,1,-2,-2,1,-2
1523135245138414,-1,0,-5,-2,-2,-1,-2,1
1523135245146431,2,1,2,-5,1,-1,-2,-1
1523135245146431,-3,-1,0,7,-1,-2,-1,-2
1523135245161474,-3,-3,0,-2,-1,-1,1,1
1523135245161474,0,-2,-2,-3,5,-1,-1,0
1523135245162386,-2,-3,1,-5,-8,-2,-3,-4
1523135245162386,2,1,0,-4,4,-1,0,-2
1523135245175502,0,-1,-3,-3,-3,-1,2,1
1523135245175502,0,-3,1,3,3,3,-1,-2
1523135245184450,-3,2,-4,-5,-2,-2,0,1
1523135245184450,0,3,2,2,0,4,-2,-2
1523135245198561,-1,0,-2,-5,-3,-1,-1,-1
1523135245198561,0,-6,1,7,-2,-2,-1,1
1523135245206596,0,-2,-3,-11,0,0,-1,-1
1523135245206596,0,3,-2,1,-2,-1,-1,3
1523135245220621,1,-1,-6,3,-2,2,-1,0
1523135245220621,0,0,1,-4,2,0,0,-4
1523135245228643,-2,0,-2,0,-2,-2,-3,1
1523135245228643,-1,-3,-2,-1,-5,0,-2,-2
1523135245244805,-1,1,-1,-8,3,1,-1,0
1523135245244805,-4,0,0,15,2,-2,-1,-3
1523135245245606,-3,-2,-2,-6,0,2,1,0
1523135245245606,-1,0,2,3,0,1,-3,-2
1523135245258815,0,0,0,-2,-5,-4,-1,-1
1523135245258815,3,1,-1,4,0,-1,-2,-1
1523135245266661,-2,-2,-2,-9,-3,-1,-1,-4
1523135245266661,0,-3,-7,-12,-1,-1,-3,1
1523135245280747,-2,0,4,2,-2,2,-1,-1
1523135245280747,-1,0,1,15,-4,-3,0,-1
1523135245288767,-1,-1,-3,-6,-2,-4,0,-2
1523135245288767,-2,-1,2,5,0,1,2,1
1523135245304809,-3,-3,-4,7,-4,-2,-4,-4
1523135245304809,0,1,1,-9,3,-2,0,2
1523135245305767,1,-1,3,4,3,-1,-1,-1
1523135245305767,0,-2,0,-1,-3,1,-1,-1
1523135245318801,-2,-3,-3,-7,1,-3,-1,-2
1523135245318801,-4,-2,0,-1,1,-1,0,-2
1523135245326826,3,-2,-3,5,-10,0,-1,1
1523135245326826,-2,-3,-2,-9,4,0,1,-3
1523135245340895,0,1,0,7,2,0,1,-3
1523135245340895,1,-4,-8,-26,-4,-1,0,-3
1523135245348922,-1,0,-1,5,1,0,-2,-2
1523135245348922,-3,-1,-1,5,0,-3,-2,-1
1523135245364965,0,0,0,5,-3,-1,-1,1
1523135245364965,-2,-2,2,-4,4,1,-1,0
1523135245364965,-1,1,-4,-10,-2,2,1,-4
1523135245364965,-2,0,0,10,-1,-2,-1,1
1523135245377969,1,0,-4,-14,-5,-3,-2,-2
1523135245377969,-2,0,-5,3,-4,-1,-1,-2
1523135245387002,-3,-3,-1,-2,1,-1,-2,-1
1523135245387002,-3,0,2,2,-2,-1,1,-2
1523135245401062,1,-2,-2,-4,1,-2,-1,-1
1523135245401062,-3,0,-1,-4,-6,-1,-2,-2
1523135245409044,-1,-2,-1,9,0,-2,-2,-2
1523135245409044,-4,-3,-2,-3,-1,-1,2,-1
1523135245424127,0,1,1,-1,0,-3,1,2
1523135245424127,1,-2,-5,-14,-2,2,-1,-3
1523135245425083,-2,0,-3,1,1,-2,0,2
1523135245425083,3,1,3,5,-1,-1,-2,-2
1523135245438165,-1,-4,1,2,0,1,-3,-1
1523135245438165,-4,1,-2,-8,0,-1,-3,1
1523135245446181,-3,-2,3,6,-2,-3,-1,1
1523135245446181,-3,-3,-10,-7,1,-2,-1,-1
1523135245461185,-1,0,0,8,2,2,0,1
1523135245461185,-3,0,-3,1,-4,-3,0,-1
1523135245469243,-1,1,4,3,3,2,-3,1
1523135245469243,-1,1,0,-1,0,-3,0,-2
1523135245484283,-3,-2,-7,6,-6,-5,-1,-2
1523135245484283,1,-1,2,2,3,-2,0,0
1523135245485244,2,0,-2,-13,-5,-2,-1,-1
1523135245485244,-2,-1,2,14,-1,1,-3,-1
1523135245498435,-3,0,-2,-12,2,-2,1,1
1523135245498435,-2,1,-1,10,1,-2,-1,2
1523135245514444,-1,-3,-4,3,-5,-4,1,-3
1523135245514444,-3,-2,-3,-3,0,0,-3,-3
1523135245520504,-3,-2,-4,-4,-1,-2,0,-2
1523135245520504,2,-1,-4,-3,-3,-1,1,-2
1523135245529484,1,-2,4,0,0,1,-1,0
1523135245529484,-1,-2,-3,-7,-1,-2,-1,-2
1523135245544523,-1,-1,0,4,-5,-3,-3,-5
1523135245544523,-4,-1,-3,13,-3,-2,-1,0
1523135245545523,1,-1,0,-10,0,-2,1,0
1523135245545523,-1,2,-1,2,-2,0,1,0
1523135245558607,-1,0,1,-7,1,-1,-1,-1
1523135245558607,-1,-1,0,1,1,0,3,-1
1523135245566582,-1,2,-1,6,1,0,-2,0
1523135245566582,1,-2,-2,-4,-1,-1,-3,-1
1523135245580654,-1,-4,2,0,3,0,-3,0
1523135245580654,0,3,-1,-5,-3,-3,-1,-1
1523135245588686,-4,0,-1,-5,-2,0,0,-2
1523135245588686,2,1,0,-3,0,0,2,-1
1523135245603719,-1,0,4,-2,2,-1,0,-3
1523135245603719,-1,-5,0,-3,1,1,-1,-3
1523135245612701,-3,-1,-1,6,0,-1,-2,2
1523135245612701,-2,2,-1,-8,0,-4,-3,0
1523135245618721,-3,-4,-4,-4,-2,-1,-1,-2
1523135245618721,-1,-1,5,0,-1,-1,-3,2
1523135245627742,-1,-3,-1,0,5,-1,0,-2
1523135245627742,-1,-1,-1,0,-4,3,1,-1
1523135245640898,0,0,-4,-12,4,0,-1,-1
1523135245640898,-1,-1,-4,-4,-8,-5,-2,-4
1523135245649871,-2,-1,3,3,-9,-2,0,-2
1523135245649871,0,-7,-2,0,4,-1,-1,1
1523135245662947,1,0,2,1,-1,0,-2,0
1523135245662947,-3,-1,0,-3,2,1,0,0
1523135245671929,-1,2,-2,-8,0,-1,-2,-1
1523135245671929,-2,0,-1,9,-8,-3,-1,-3
1523135245677951,-6,0,-2,-17,0,0,-1,-2
1523135245677951,2,-3,-3,7,2,0,0,-2
1523135245686969,-2,0,-4,9,-1,-4,-2,0
1523135245686969,3,1,1,-5,0,-4,-3,0
1523135245701010,-1,1,-9,-2,-2,0,-1,-1
1523135245701010,0,2,3,0,-3,-1,2,-1
1523135245710033,-1,-1,-2,-14,1,-2,-2,-4
1523135245710033,-4,0,-2,-3,-2,-2,-1,-1
1523135245723111,-1,-3,1,7,-3,-1,0,-2
1523135245723111,1,2,-4,-6,-2,-3,-1,-1
1523135245732207,1,-1,1,3,1,0,-2,0
1523135245732207,1,-3,3,1,1,1,0,-1
1523135245738259,-1,-1,-2,-20,-3,-1,2,-1
1523135245738259,-3,-2,1,1,1,0,-1,-3
1523135245747247,0,-2,-1,2,1,-1,-1,0
1523135245747247,-3,-1,-1,-6,-3,1,0,-2
1523135245761284,-2,-3,2,2,3,2,-1,1
1523135245761284,-1,3,-3,25,-7,-2,-2,-1
1523135245769349,0,-3,1,-11,-2,1,1,-1
1523135245769349,-2,0,-7,-9,3,-1,-1,-1
1523135245783372,-2,-2,3,9,2,1,2,0
1523135245783372,-1,1,0,-5,1,3,-2,-1
1523135245792416,-2,-1,0,1,1,-2,0,1
1523135245792416,2,-1,0,1,-2,-2,-1,3
1523135245807442,-1,2,-3,2,-3,-3,-3,-3
1523135245807442,0,-5,0,-5,-1,0,-1,1
1523135245808410,3,0,-3,-4,-4,-2,1,-1
1523135245808410,-4,1,-2,-3,3,-1,0,0
1523135245820471,-1,0,1,5,-3,-4,-2,-1
1523135245820471,-1,-4,-3,-1,0,0,-3,-2
1523135245829488,-2,1,-3,4,2,-1,0,-3
1523135245829488,-2,-1,-1,-11,-6,-3,-3,-4
1523135245843503,1,0,0,7,1,0,-2,2
1523135245843503,2,-1,0,-9,2,2,1,1
1523135245852527,0,0,6,11,3,-1,-1,0
1523135245852527,-2,-1,-1,1,-4,-3,1,-3
1523135245858592,2,-2,-5,-4,-1,2,-2,2
1523135245858592,-4,-1,1,-7,0,-1,-1,-3
1523135245867570,-1,-3,-4,0,-4,1,1,-2
1523135245867570,0,-2,-2,10,-1,0,-1,-3
1523135245880645,1,-2,3,-2,-2,-1,-3,-1
1523135245880645,-3,0,-3,-3,1,-3,-3,-2
1523135245889629,-1,-1,0,1,-2,0,0,0
1523135245889629,0,-3,-1,-2,1,1,-2,-3
1523135245903712,-1,-2,-3,1,-2,-1,1,-1
1523135245903712,0,-2,0,-1,-6,-3,-3,2
1523135245912694,-1,-3,0,10,-1,0,0,-2
1523135245912694,1,-7,-5,-29,-5,-2,0,-1
1523135245918714,-3,-1,-1,7,5,-1,-1,-2
1523135245918714,-3,0,3,2,-3,1,0,-2
1523135245927728,-5,1,0,-2,1,-1,-3,1
1523135245927728,1,0,1,10,2,-2,-1,0
1523135245940791,-1,-3,-1,0,-4,-2,-2,-4
1523135245940791,1,-2,-1,-12,1,-1,-3,-2
1523135245949787,0,-2,-2,-4,-3,0,-1,-3
1523135245949787,-4,-1,-3,0,-2,-1,-1,1
1523135245963822,-1,0,0,1,-2,-3,0,1
1523135245963822,1,1,-4,-2,1,-3,-2,-1
1523135245971897,-1,-3,-2,-5,0,-2,-1,-3
1523135245971897,0,0,1,-1,-1,3,1,-1
1523135245977860,2,-1,0,-6,-3,-1,-3,0
1523135245977860,-3,-4,-4,0,0,2,2,-3
1523135245986887,1,2,-2,-4,-1,-2,-1,0
1523135245986887,-1,-2,-2,4,-3,1,-2,-1
1523135246000965,-1,-1,-1,1,-1,0,1,-2
1523135246000965,-2,-3,-1,-3,1,1,-2,1
1523135246009946,-2,-1,0,1,0,-2,-2,-4
1523135246009946,-1,2,1,-3,2,1,0,-2
1523135246024017,-2,0,0,8,-4,0,0,-2
1523135246024017,0,-2,-5,-15,0,-1,-1,0
1523135246032049,-3,-1,-3,-3,-2,-2,-3,1
1523135246032049,3,0,-1,2,-1,-2,0,0
1523135246038322,-1,0,-4,-12,-2,-2,-1,-2
1523135246038322,1,2,1,10,-1,-1,0,0
1523135246047207,-2,0,1,-6,0,-4,0,3
1523135246047207,-2,-1,-6,-22,0,-1,0,-2
1523135246061111,-2,-2,-2,7,0,-2,-3,-4
1523135246061111,-2,-2,-11,-3,-1,-4,-1,-4
1523135246070111,-2,-4,-1,-6,-2,3,-3,-3
1523135246070111,-3,0,1,6,1,-1,-2,2
1523135246083362,0,1,-3,-7,-2,0,1,0
1523135246083362,-3,-4,3,-3,-2,0,-1,-2
1523135246092177,-1,-2,-1,3,3,-4,-3,-1
1523135246092177,1,0,2,5,-1,3,1,-2
1523135246098475,0,0,-3,-2,-7,-1,0,-1
1523135246098475,0,3,2,16,3,-1,-1,-1
1523135246107239,0,-3,-5,-2,0,2,-1,-2
1523135246107239,-2,-3,2,0,-8,-6,-1,0
1523135246121489,-1,-2,0,3,5,-1,1,0
1523135246121489,0,2,-2,-7,-3,-2,0,-1
1523135246130268,0,1,-1,4,1,2,-2,-3
1523135246130268,0,-1,-4,4,2,-3,-2,1
1523135246143300,-2,1,-4,-8,-4,-1,-2,-2
1523135246143300,2,-1,0,0,1,-2,0,2
1523135246152339,-1,-1,-2,4,-4,-3,-3,0
1523135246152339,0,0,3,4,0,0,-2,-4
1523135246158472,-3,-2,-1,-8,-3,-3,-2,0
1523135246158472,-3,-4,-4,5,-1,2,-1,-2
1523135246167379,3,-1,-1,-12,-1,-1,0,2
1523135246167379,-1,-1,1,15,0,-3,-4,-1
1523135246180429,-1,-5,-5,-21,-1,1,2,1
1523135246180429,-2,-1,1,0,0,-1,1,-5
1523135246189467,-3,-1,0,-2,-3,1,0,0
1523135246189467,0,-4,-6,-3,-5,-2,-4,-2
1523135246203503,-1,1,2,1,-4,-4,-4,-2
1523135246203503,-1,0,5,16,7,3,1,1
1523135246212488,0,-1,-3,-10,-6,1,3,2
1523135246212488,-1,1,0,4,5,2,2,0
1523135246227527,-2,1,0,8,1,-1,0,-1
1523135246227527,-1,-5,2,-5,-2,-6,-3,0
1523135246228527,-2,0,1,26,2,2,-2,-2
1523135246228527,1,-5,-5,-10,-3,-3,-1,-1
1523135246240604,0,1,2,1,0,-1,-2,0
1523135246240604,1,-3,-4,-7,-2,1,0,0
1523135246249593,-1,1,0,-3,-1,-2,0,-3
1523135246249593,0,-3,2,-8,-3,-1,-2,0
1523135246263651,-4,-1,-3,4,1,-1,-3,-1
1523135246263651,-2,1,0,-2,-4,-1,-2,0
1523135246272645,0,-4,-4,4,1,-3,-3,-1
1523135246272645,-4,2,-2,-9,-2,0,3,-4
1523135246286716,0,-2,-3,-11,2,-3,0,-1
1523135246286716,0,0,0,-13,-2,-2,-2,-2
1523135246288724,-1,1,-2,1,-3,-4,-1,-2
1523135246288724,-2,-3,6,12,1,-1,-1,-1
1523135246300760,1,-2,-3,-3,-2,1,-2,-1
1523135246300760,-1,-1,-6,9,-3,-4,-3,-1
1523135246309744,1,-1,2,-7,-2,-1,-3,-3
1523135246309744,2,3,1,-2,-2,1,1,2
1523135246323780,-1,-3,2,0,-2,-2,-1,0
1523135246323780,0,-1,-4,-16,-4,-2,-1,3
1523135246331832,-1,-1,-1,-6,1,-3,0,-2
1523135246331832,-3,2,-4,1,-1,-3,-1,-2
1523135246346884,-2,-2,-2,-5,0,0,-1,-1
1523135246346884,-2,-1,4,0,0,2,-1,-1
1523135246348847,1,-2,-1,-5,-3,1,0,1
1523135246348847,4,0,3,14,0,3,-2,-1
1523135246360879,-1,-2,-2,15,-1,-2,1,1
1523135246360879,-1,-2,1,-11,-2,0,0,0
1523135246369930,-1,1,1,5,1,2,-1,-2
1523135246369930,-1,-3,-1,-3,2,0,-2,1
1523135246382978,-3,3,-4,8,-5,-1,-5,0
1523135246382978,0,0,-3,7,-1,-2,-2,-4
1523135246391961,0,-1,-4,-11,-4,-1,2,1
1523135246391961,-3,3,-3,-1,2,-3,-2,-1
1523135246407049,-3,4,7,-5,2,2,0,-2
1523135246407049,1,0,-2,8,0,-2,-1,0
1523135246409011,-1,-3,0,-7,-2,0,-2,-5
1523135246409011,-2,-4,-1,2,0,-1,-1,-2
1523135246421073,2,-1,3,6,4,1,3,0
1523135246421073,-1,-2,-3,-7,-4,-2,-2,-2
1523135246437081,-2,-2,-2,4,0,-4,-2,0
1523135246437081,1,-2,2,-2,0,0,1,0
1523135246443104,0,-4,-2,-4,0,-1,-1,-2
1523135246443104,-1,0,3,3,-5,0,-2,-1
1523135246452125,-4,-1,-2,-19,2,0,4,0
1523135246452125,-2,0,-2,-9,-2,-1,-1,-4
1523135246467265,2,0,-1,2,-4,-5,-3,-1
1523135246467265,0,-2,-4,-1,2,-1,-3,-4
1523135246469275,-3,0,0,-2,-3,1,0,1
1523135246469275,-1,-1,-9,5,-2,-2,-2,-4
1523135246480342,-2,0,0,-1,1,-1,-1,-1
1523135246480342,-1,-2,-1,10,3,1,-1,-3
1523135246489368,3,0,0,-2,0,0,1,-1
1523135246489368,0,-1,0,-5,0,-4,2,7
1523135246503396,-1,-2,-4,-3,-5,0,-1,-3
1523135246503396,1,-1,0,-2,1,0,1,2
1523135246512386,-2,3,1,7,4,0,1,0
1523135246512386,-1,-3,-3,-8,-3,2,-3,-3
1523135246527426,0,-2,1,9,2,-2,0,-2
1523135246527426,-1,-1,1,-2,2,2,-1,1
1523135246528429,0,-5,-3,-7,-3,-1,0,-2
1523135246528429,-1,2,1,4,4,-1,-5,-1
1523135246540506,1,0,-2,-6,-3,1,2,0
1523135246540506,-1,-4,-3,-13,1,-1,-1,0
1523135246549484,1,-2,1,14,0,-4,-3,-3
1523135246549484,-1,-5,-2,-8,-2,1,2,-4
1523135246563552,-4,0,-2,3,-3,-3,-2,-1
1523135246563552,-3,0,0,2,0,-2,-2,0
1523135246572549,-3,-3,1,-2,-3,-1,0,1
1523135246572549,-1,1,1,4,0,1,-2,-1
1523135246587598,3,0,-2,-24,-5,1,0,1
1523135246587598,-1,-1,-1,18,-2,-4,-1,-1
1523135246588594,-2,0,0,-2,2,0,-4,-2
1523135246588594,0,3,2,-9,1,-1,1,-2
1523135246600620,2,-2,-1,11,-3,-2,2,-3
1523135246600620,-2,-4,-10,-16,-4,-1,-3,2
1523135246609645,0,1,-2,12,0,-3,-1,-3
1523135246609645,-4,-4,0,-21,-3,-2,1,-3
1523135246623681,0,2,2,7,9,1,-3,-1
1523135246623681,-1,-1,-2,0,-13,-1,1,-3
1523135246632706,-1,-2,-4,-6,4,-2,-2,-1
1523135246632706,-1,-3,-3,12,-3,0,-3,0
1523135246646773,1,0,2,0,0,-3,-1,-3
1523135246646773,1,-4,-1,-14,4,1,1,0
1523135246648754,-2,1,-2,10,-2,-1,-2,-2
1523135246648754,-1,0,-1,1,-3,-5,0,1
1523135246660820,-3,0,-3,6,-2,3,-1,-2
1523135246660820,-2,1,2,4,4,-1,-1,5
1523135246669805,1,-1,-1,-15,-3,-1,-4,-2
1523135246669805,-3,-3,-2,23,0,-3,1,1
1523135246683843,-2,-3,-1,-13,0,0,1,0
1523135246683843,2,2,-2,3,-1,-1,0,-2
1523135246691863,-3,0,0,-2,-1,0,1,1
1523135246691863,-1,2,1,6,2,-1,0,-3
1523135246707191,-1,-3,-2,-16,1,-2,0,0
1523135246707191,-4,-1,2,5,-2,-1,1,-6
1523135246708910,3,1,3,-3,1,1,0,0
1523135246708910,1,-2,-8,13,-4,-2,-4,1
1523135246721227,-3,-2,-5,-17,-2,1,-1,0
1523135246721227,2,-1,1,-2,0,-1,-1,1
1523135246729970,1,-3,0,1,-2,-2,1,0
1523135246729970,-2,1,3,-9,2,-1,-3,1
1523135246743004,-2,2,2,14,0,-1,1,-2
1523135246743004,-1,0,-2,-1,4,0,-3,0
1523135246752241,-1,-1,-2,6,-6,1,1,-1
1523135246752241,0,0,-1,12,3,1,1,1
1523135246767067,0,-2,-2,-25,-5,0,-2,-1
1523135246767067,-2,1,4,4,-1,-2,-2,-4
1523135246769071,-1,1,2,-2,5,0,-1,1
1523135246769071,-3,-5,-2,-15,-6,2,1,0
1523135246781310,2,1,0,17,-3,-4,-3,-4
1523135246781310,-1,1,1,-3,-1,0,0,0
1523135246790127,1,-1,0,1,-2,-1,-2,0
1523135246790127,0,1,-6,-6,-1,1,-1,-1
1523135246803163,-1,-1,0,6,-2,-1,-4,4
1523135246803163,0,-4,-2,-10,-3,-2,0,-2
1523135246812192,-4,1,-2,11,0,-1,3,-1
1523135246812192,0,-2,0,-11,1,0,0,-2
1523135246827253,-1,0,-2,5,-7,-4,-1,-2
1523135246827253,-1,-3,0,6,0,-1,0,0
1523135246828228,1,-2,-3,-6,-4,2,-1,0
1523135246828228,0,-1,4,-1,-1,-2,-1,-4
1523135246841265,0,-3,-2,-1,1,-2,-1,-1
1523135246841265,-3,0,1,-5,0,1,2,0
1523135246849312,-3,-4,-4,1,1,-2,-7,-2
1523135246849312,-4,0,-6,-36,-7,-5,-3,0
1523135246863349,-1,-2,2,9,2,0,-1,-3
1523135246863349,-3,0,4,-4,-4,-3,-2,-4
1523135246872390,-1,-2,-3,2,0,-3,0,1
1523135246872390,3,2,-3,4,-3,0,-2,0
1523135246887419,-2,0,5,-3,5,1,0,-1
1523135246887419,1,-1,-6,0,-2,-2,1,-2
1523135246888388,-3,1,-5,-11,-5,-3,-1,-1
1523135246888388,-1,-2,2,10,-2,-3,-4,0
1523135246900417,-1,-2,-2,-12,1,0,-2,0
1523135246900417,3,1,-1,8,2,4,-1,-2
1523135246909442,2,2,1,4,-1,1,0,-3
1523135246909442,-2,-2,-4,-23,-4,-5,1,-2
1523135246923530,1,-2,-3,11,2,0,-2,0
1523135246923530,-1,-2,0,2,-1,-3,-2,0
1523135246932505,-3,-3,0,-8,-5,-2,-1,0
1523135246932505,-2,-2,2,9,1,1,0,-1
1523135246947543,0,4,0,-21,-1,-2,-2,-1
1523135246947543,-2,-2,0,1,-2,-3,-1,-1
1523135246948552,-2,-1,-3,7,-3,0,-1,-2
1523135246948552,1,-2,7,-9,0,1,-1,-2
1523135246961622,-1,-2,-2,0,-2,-2,0,-1
1523135246961622,0,2,0,-1,-2,1,-2,-1
1523135246969602,0,-1,-4,-9,1,-1,-1,0
1523135246969602,-1,1,2,4,2,-3,-3,0
1523135246992664,-4,0,-5,3,-2,1,3,-5
1523135246992664,1,-3,-2,-12,-1,2,-1,-1
1523135246993672,2,0,1,11,1,1,-2,-3
1523135246993672,1,0,2,4,-3,-3,1,1
1523135247006744,-1,-3,0,9,-1,-1,-1,1
1523135247006744,-1,-3,-2,5,-2,-1,-1,-3
1523135247008709,0,0,0,-1,0,-3,1,-3
1523135247008709,-2,-3,-3,1,6,3,-1,-2
1523135247020768,1,1,-2,-3,-1,-1,0,-2
1523135247020768,-3,0,1,15,-2,0,0,-1
1523135247029767,1,1,-4,-36,-2,-3,-4,1
1523135247029767,-4,-2,-7,16,-4,-1,-3,-1
1523135247043803,-1,-2,2,-6,-4,0,1,2
1523135247043803,-2,-2,-7,-6,1,-1,-2,-1
1523135247052824,-2,-2,-1,12,0,-2,-4,1
1523135247052824,-2,0,3,4,0,-2,-1,-3
1523135247066863,-2,0,2,0,-1,0,3,-1
1523135247066863,-1,0,1,-1,0,-1,-4,-1
1523135247072920,-4,-2,-2,-9,-5,-2,-1,1
1523135247072920,2,0,2,-3,0,2,0,-3
1523135247080929,0,-3,-2,8,-2,-2,-1,1
1523135247080929,-1,-1,1,-3,0,0,2,-1
1523135247089927,1,-1,1,7,0,-2,1,-3
1523135247089927,1,-4,-4,-7,-5,-2,-2,2
1523135247102987,-2,-1,-4,-8,0,-1,1,-2
1523135247102987,1,-1,1,1,-2,-1,-2,-2
1523135247111988,2,-4,-2,-9,-1,-1,-2,-1
1523135247111988,-1,-1,-3,-1,0,2,0,0
1523135247127031,0,-1,2,4,4,-1,0,-1
1523135247127031,-2,0,-1,6,-2,-2,-1,-1
1523135247133067,-4,-2,-2,5,-4,1,0,-2
1523135247133067,1,-1,1,-6,0,1,1,-2
1523135247150082,3,-1,-3,-3,1,-1,-3,-1
1523135247150082,-2,1,-6,-7,-5,-1,-1,-1
1523135247151086,-1,0,0,-2,0,1,0,-3
1523135247151086,0,-5,-5,-10,-2,-3,0,0
1523135247163160,-2,-1,0,7,0,1,0,-1
1523135247163160,-1,1,1,-9,0,3,0,0
1523135247172145,-3,0,0,1,-2,-1,-2,-1
1523135247172145,-1,-2,-1,7,0,-1,-1,-1
1523135247186212,-1,-1,0,-3,1,3,1,0
1523135247186212,0,-1,-2,-3,-3,-5,2,1
1523135247193201,3,0,2,3,-2,1,-1,0
1523135247193201,-2,2,0,-7,-2,0,-2,0
1523135247209239,-2,-2,-7,-11,-4,-5,-5,-3
1523135247209239,-1,0,1,4,1,1,3,0
1523135247211246,-2,1,-5,5,-3,-3,-1,-2
1523135247211246,-1,2,0,-9,-1,-1,1,-3
1523135247223321,2,-1,-2,6,0,-4,-5,-4
1523135247223321,-1,-1,-5,-12,1,-1,-2,-1
1523135247232307,1,0,-4,-10,2,1,-1,-3
1523135247232307,0,-1,-1,13,2,1,-1,2
1523135247246368,-2,1,-1,-3,-4,-1,-1,0
1523135247246368,-2,-3,0,-3,-1,0,-2,-2
1523135247253392,1,0,1,-7,0,0,-1,-3
1523135247253392,-4,2,-2,-5,-3,-2,0,-1
1523135247269434,1,-4,-2,11,-1,2,-2,2
1523135247269434,-2,-2,2,4,2,-2,-1,-4
1523135247271421,-3,-1,-1,-3,-4,-3,1,1
1523135247271421,2,-1,3,1,2,-1,-2,-1
1523135247283449,0,-4,1,1,0,-4,1,0
1523135247283449,-1,0,0,8,1,0,1,1
1523135247292461,-3,-1,0,-10,-2,0,-2,-3
1523135247292461,4,3,3,15,0,-2,-1,0
1523135247306545,-4,-1,1,-8,-3,-1,0,-2
1523135247306545,-1,-1,3,-2,-1,-2,-4,-1
1523135247313752,0,2,1,-2,3,2,-2,0
1523135247313752,0,-2,-3,1,-2,-1,-1,-3
1523135247329802,-2,-2,-6,-8,0,-3,0,1
1523135247329802,0,-1,-1,2,-2,0,-3,-1
1523135247331568,-3,-2,-2,9,0,-5,0,0
1523135247331568,-1,-2,-6,-8,-6,-1,0,-1
1523135247343598,-1,0,0,4,-2,0,-1,-2
1523135247343598,1,3,-3,-6,-3,-5,-1,1
1523135247352620,-3,-4,-1,7,1,-3,-2,-1
1523135247352620,-1,-2,-4,-6,-2,-1,-1,0
1523135247366662,0,-1,2,2,2,1,1,2
1523135247366662,-1,-1,-6,-8,-9,-5,-3,0
1523135247373947,-2,-5,1,3,-1,1,1,-2
1523135247373947,-3,1,-5,-8,0,-1,0,-1
1523135247389977,0,0,5,7,0,5,0,0
1523135247389977,-1,-2,-1,1,-1,2,1,0
1523135247391726,-1,2,-1,4,-2,0,-2,-2
1523135247391726,-3,-1,0,-2,-2,-3,-4,-1
1523135247404006,-3,2,1,-4,0,-2,-1,-3
1523135247404006,-2,-2,0,1,2,0,2,2
1523135247412785,0,-4,-1,-9,-2,-1,-2,-2
1523135247412785,-1,0,0,2,-2,-3,0,-4
1523135247426821,1,1,0,-3,-3,-1,-4,-3
1523135247426821,0,-1,1,8,2,1,-2,-3
1523135247434032,-4,-4,-1,3,1,-3,0,0
1523135247434032,-1,-2,0,1,-1,-1,-1,0
1523135247449880,-1,1,-1,-3,0,1,0,1
1523135247449880,0,-1,-1,-9,-3,-4,-3,-2
1523135247450886,3,3,-3,3,0,1,-3,3
1523135247450886,-1,-2,0,2,0,0,-1,0
1523135247464004,0,-4,0,2,-2,-6,1,-2
1523135247464004,-4,-1,-4,-8,-2,1,-3,-3
1523135247472193,-3,-1,0,5,-3,-1,0,0
1523135247472193,-1,-5,2,0,3,2,-1,1
1523135247486011,-2,3,-4,2,-2,-3,1,1
1523135247486011,1,0,3,-1,0,-1,-2,2
1523135247492994,3,0,1,4,0,0,-1,-2
1523135247492994,-2,0,1,-13,-4,-2,0,-1
1523135247510048,-1,-2,-1,2,2,-1,0,1
1523135247510048,-2,-2,-3,-4,2,-2,0,-2
1523135247511052,1,-2,-2,-3,0,1,0,1
1523135247511052,-3,-1,-3,4,0,3,0,-1
1523135247523120,1,-1,-5,-20,-4,-3,-4,0
1523135247523120,-4,-1,0,6,2,0,-1,-4
1523135247532099,3,-1,0,-4,-1,1,1,-1
1523135247532099,1,1,-2,3,1,-2,-3,-1
1523135247546166,-4,-3,2,3,-1,-1,0,0
1523135247546166,0,-3,-1,0,2,-1,-1,-3
1523135247553185,-2,-4,-4,-8,-3,-5,-2,1
1523135247553185,-1,-2,1,0,0,-3,-2,-1
1523135247569231,-2,0,-1,1,1,5,2,-3
1523135247569231,-2,-1,-5,-16,-1,-2,2,0
1523135247571206,-1,1,-1,-9,-1,0,-1,-3
1523135247571206,0,-2,3,-2,-2,-1,3,-2
1523135247592264,-5,0,-2,-1,-1,-4,-2,0
1523135247592264,0,-3,0,0,0,1,2,-3
1523135247593263,-1,-4,0,2,-1,-1,-2,0
1523135247593263,-2,-1,-2,-2,-3,-3,-3,-1
1523135247606351,1,-6,1,-9,0,-1,-4,-2
1523135247606351,1,0,0,-13,-5,-1,-2,2
1523135247613346,-1,-3,-2,0,0,-3,0,-2
1523135247613346,-1,-2,2,7,-2,-1,0,0
1523135247629399,-3,-1,-2,6,1,1,-3,-2
1523135247629399,1,0,-2,-10,-4,-2,-4,-1
1523135247631368,0,-4,1,3,2,1,-2,-4
1523135247631368,1,-1,-4,-23,-2,1,-1,-3
1523135247643398,-2,2,-1,6,1,-3,0,0
1523135247643398,0,-1,-2,12,-2,0,3,2
1523135247652438,-3,0,-2,2,-1,-3,-1,1
1523135247652438,-1,-3,2,7,2,1,1,-2
1523135247666461,0,1,-2,-6,-1,-2,-1,-3
1523135247666461,-2,1,-1,5,1,-1,-2,-3
1523135247673509,2,3,-1,-4,-2,-1,-5,0
1523135247673509,-6,-2,-4,-2,-1,-3,-1,-2
1523135247689552,-2,-4,1,4,-6,0,2,2
1523135247689552,0,-2,4,8,2,-1,0,-4
1523135247691525,-2,-1,1,2,-2,-2,-1,0
1523135247691525,0,-1,-1,-2,2,-3,-3,-1
1523135247703599,0,-1,-2,-10,-1,-2,-1,-1
1523135247703599,-4,-2,-4,3,-1,-1,-2,1
1523135247712584,-3,-3,0,-4,-2,1,-1,-1
1523135247712584,1,0,-1,6,2,0,-3,-1
1523135247726647,-1,2,-1,2,-2,-2,1,-1
1523135247726647,-1,-1,2,-2,-1,2,1,0
1523135247733655,-2,1,-3,-11,-3,-2,-1,-4
1523135247733655,-3,-4,-1,3,-3,-2,-2,2
1523135247749707,-1,1,-5,-2,-1,0,0,1
1523135247749707,3,-1,-1,-1,2,-2,-3,-2
1523135247751682,-2,-1,0,-4,1,-2,-1,-2
1523135247751682,0,-1,-2,-1,-2,-1,1,0
1523135247763714,1,-2,1,1,1,0,-2,0
1523135247763714,-2,1,-3,-6,-4,-1,0,0
1523135247772740,0,0,0,6,-1,1,-2,-1
1523135247772740,-1,-2,-1,0,-1,2,2,-2
1523135247786810,-1,-4,0,-2,1,-1,-2,-2
1523135247786810,-1,-3,4,5,0,0,-1,-3
1523135247792793,-2,3,-9,-3,-2,-1,1,-1
1523135247792793,-4,1,2,-3,-1,0,-2,-1
1523135247809841,1,-2,0,-5,-5,-1,-4,1
1523135247809841,1,-1,-1,5,-3,-3,1,-1
1523135247810840,-2,-1,2,-1,1,-1,2,-2
1523135247810840,1,-2,0,-5,1,1,-3,0
1523135247822917,-5,-1,-4,-1,-1,-1,1,-1
1523135247822917,-3,0,-3,3,-4,-1,-2,-4
1523135247831895,-2,-2,-1,-11,1,-1,-1,1
1523135247831895,1,-1,0,9,1,0,0,-1
1523135247846938,-1,0,2,5,0,0,-2,-4
1523135247846938,-5,0,-2,-17,-2,-1,-2,1
1523135247853004,-1,0,0,6,0,-1,-1,-1
1523135247853004,-3,-1,1,0,-2,1,1,2
1523135247870051,1,-3,-2,-5,1,-2,0,1
1523135247870051,-1,1,1,1,0,-3,-1,1
1523135247871000,-3,-3,3,1,-4,-2,-1,1
1523135247871000,-2,-1,-4,-8,0,-5,-1,-4
1523135247883083,-3,1,0,-2,-2,-1,-1,-4
1523135247883083,0,-1,-2,-1,-3,-1,-2,1
1523135247892060,-1,-1,1,1,-1,-2,-1,1
1523135247892060,-1,0,-1,2,-1,0,1,-1
1523135247906149,0,-2,6,4,2,0,0,0
1523135247906149,0,1,1,1,2,-1,-2,-3
1523135247913162,-2,-2,-2,0,0,1,-4,0
1523135247913162,-1,-2,-5,-15,-5,-1,-1,-2
1523135247929206,3,-2,-4,-1,-3,-2,-1,1
1523135247929206,-1,-3,0,1,-1,-1,-2,-2
1523135247931162,0,3,1,5,2,1,-1,0
1523135247931162,0,-2,1,-6,-2,-1,0,0
1523135247943243,-4,1,-5,-6,-2,-1,-1,-2
1523135247943243,1,-2,-2,-3,-3,-2,2,2
1523135247952218,0,-1,-1,-7,0,-5,0,1
1523135247952218,0,0,0,4,-1,-2,0,-2
1523135247966301,-2,-4,0,-2,1,2,-1,-1
1523135247966301,-2,-4,-1,-1,-2,0,-2,0
1523135247973328,-1,-1,-4,-3,1,0,2,-1
1523135247973328,-2,2,0,4,0,-2,-4,0
1523135247989370,1,-2,2,-3,-2,0,0,0
1523135247989370,-3,1,-2,1,0,-1,-2,-2
1523135247991321,2,0,0,-1,-2,-2,-2,0
1523135247991321,1,-4,-1,3,-2,2,-5,1
1523135248003405,-1,1,-2,-1,-1,-2,1,-2
1523135248003405,2,2,0,-1,-1,-4,-3,-1
1523135248012376,-1,-4,0,1,-2,0,-1,-4
1523135248012376,0,0,-5,-6,1,-3,1,-1
1523135248026461,-4,-2,-3,-1,0,-1,-1,0
1523135248026461,1,-2,-2,-1,-1,1,-1,-1
1523135248033482,-1,-2,1,-2,-2,0,-1,-1
1523135248033482,-1,-3,0,6,-2,0,-1,-2
1523135248049480,1,-1,-2,1,1,-3,-2,-5
1523135248049480,-6,0,-4,-3,1,-1,2,-1
1523135248055545,1,-2,0,2,-1,-3,0,-2
1523135248055545,-2,2,0,0,-1,-1,2,1
1523135248072535,0,-3,0,0,-1,-2,0,2
1523135248072535,3,-4,-3,0,0,0,-1,-4
1523135248073539,-4,-2,0,1,-1,0,0,-3
1523135248073539,-1,0,-3,4,-2,-2,-2,3
1523135248086625,-6,-1,-3,-3,-4,-2,-4,-1
1523135248086625,-2,-2,1,-1,1,1,-1,1
1523135248093625,0,1,0,-2,1,1,2,-3
1523135248093625,-1,-3,1,0,0,-1,1,1
1523135248108634,1,-2,-2,-1,0,0,-2,0
1523135248108634,-1,0,0,0,0,1,1,1
1523135248115701,0,-4,-5,-1,-2,-1,-1,3
1523135248115701,-1,0,-4,-6,-2,-3,0,-3
1523135248131744,1,0,0,2,0,1,0,-2
1523135248131744,-2,0,3,-1,0,-2,-1,0
1523135248133701,-1,-2,0,-2,-2,-5,-3,0
1523135248133701,2,-1,-3,-2,1,1,-3,0
1523135248146781,-2,0,-1,4,-3,-2,1,0
1523135248146781,-2,-2,-3,-1,-1,-2,-2,0
1523135248153754,0,-4,-2,-15,1,1,2,0
1523135248153754,-3,0,-1,1,-3,-1,-2,-1
1523135248168840,3,2,2,2,2,-1,0,-4
1523135248168840,-2,-1,1,3,-2,-3,1,0
1523135248175814,1,1,1,3,-2,1,-3,-2
1523135248175814,-3,-2,-4,-4,0,0,-2,-1
1523135248191856,-1,-3,-1,-1,-3,-2,0,-1
1523135248191856,-1,-2,-1,2,-1,-3,-2,-2
1523135248193863,-3,-4,-3,-3,0,-1,3,-5
1523135248193863,-1,0,2,-1,1,0,-1,-3
1523135248206897,0,0,0,2,-3,-3,-2,1
1523135248206897,-1,0,-3,-3,-3,-1,-3,-1
1523135248212960,-3,-2,3,2,0,2,1,0
1523135248212960,-1,-1,-2,1,-4,-2,0,1
1523135248229002,-2,0,-2,-4,2,-2,-1,-2
1523135248229002,0,-1,-3,-10,-1,-1,2,-1
1523135248236021,1,0,-8,-1,1,-2,-2,1
1523135248236021,1,-4,3,0,-1,1,1,-2
1523135248252068,1,0,-3,2,2,1,-3,-2
1523135248252068,-1,-3,-1,-1,-2,1,-2,-2
1523135248254019,2,0,0,-5,0,-2,-1,1
1523135248254019,2,0,-2,-5,-1,-3,0,-1
1523135248266101,-1,-2,-2,1,-2,0,2,4
1523135248266101,-1,-1,-1,4,-1,0,3,0
1523135248273126,1,1,2,-6,-3,-2,-2,-1
1523135248273126,-1,2,4,3,0,0,-1,0
1523135248289168,-3,-1,1,-3,0,0,0,-3
1523135248289168,0,-4,-3,-2,1,-2,0,-2
1523135248296180,-4,0,-2,0,-3,-1,-2,-2
1523135248296180,2,-3,-1,-2,-2,-1,-2,-1
1523135248312224,-2,0,-1,-1,-2,-2,0,-1
1523135248312224,0,-1,-3,2,4,0,2,1
1523135248314178,0,-1,4,8,-1,-2,-2,0
1523135248314178,0,-4,1,-2,2,1,-2,-3
1523135248326261,-1,-1,-1,2,-2,-2,-2,0
1523135248326261,-3,-3,-4,-14,-5,-2,-5,-1
1523135248333280,-1,-3,2,1,0,0,0,0
1523135248333280,-5,0,-1,3,-2,-2,0,-1
1523135248349323,1,0,0,-4,-2,0,-1,-2
1523135248349323,0,3,0,2,-1,-1,-1,2
1523135248355341,-3,-2,-4,-2,1,-3,-1,-1
1523135248355341,-2,-1,0,0,-1,-2,1,0
1523135248372386,-1,-3,-1,3,-3,-1,1,-1
1523135248372386,-3,-4,-4,-22,-6,-4,-3,1
1523135248373336,-2,3,0,10,-2,2,0,0
1523135248373336,0,-4,-2,-4,0,1,2,2
1523135248386424,-1,2,1,0,0,-2,1,0
1523135248386424,2,-2,-4,4,2,1,2,-1
1523135248393444,-2,-1,-1,-6,-2,-2,0,-1
1523135248393444,-2,-1,0,0,-2,-1,-4,-5
1523135248409432,-1,-4,3,-2,1,-1,-1,0
1523135248409432,-3,2,3,7,0,-3,-1,1
1523135248415496,1,1,0,-3,3,-2,0,-2
1523135248415496,0,0,-2,2,-1,-2,-1,1
1523135248432525,-4,-3,-3,-4,-1,-1,-2,-2
1523135248432525,2,2,5,7,-1,1,0,0
1523135248433497,-1,-3,-2,-3,-2,0,-2,0
1523135248433497,2,2,1,-2,-5,-3,-4,-1
1523135248446580,1,1,-3,-3,2,-3,-2,-4
1523135248446580,-3,1,-1,3,-4,-1,-1,-1
1523135248453600,1,-1,0,1,0,1,-1,-3
1523135248453600,3,-2,1,3,-2,-1,1,-1
1523135248468594,-3,-1,-6,-17,0,2,1,-1
1523135248468594,0,-1,0,4,1,0,-2,-4
1523135248475652,-2,0,-3,-2,-4,-5,-1,0
1523135248475652,-3,-1,2,6,1,3,0,2
1523135248492656,0,0,-1,1,-2,-3,-3,-1
1523135248492656,0,0,-1,-6,1,-1,2,-2
1523135248493658,-4,-2,-3,-1,-2,-2,-1,-2
1523135248493658,-2,-2,-3,-8,0,-3,1,1
1523135248506691,0,-2,0,2,1,1,1,1
1523135248506691,1,-1,1,-2,-3,1,-3,-1
1523135248513833,0,0,0,2,-1,-2,-1,-2
1523135248513833,-1,-1,-3,0,2,0,-1,1
1523135248528957,-1,0,0,1,0,0,-2,-1
1523135248528957,-3,-2,-3,-1,-2,-2,-2,-1
1523135248535976,3,0,-1,1,-2,1,0,-2
1523135248535976,-1,-2,1,0,-2,0,-3,-1
1523135248552023,-2,-3,1,3,2,-1,0,2
1523135248552023,-2,-1,-3,-2,-8,-2,1,-1
1523135248553816,0,0,-5,1,1,0,-2,-2
1523135248553816,-3,-1,-3,-4,0,-3,-1,-1
1523135248566056,1,-1,1,1,1,-4,-2,-2
1523135248566056,1,0,-5,1,6,1,1,1
1523135248574873,0,-1,1,2,-1,-2,-2,1
1523135248574873,-1,0,-2,-4,-4,0,1,-4
1523135248589058,-3,-2,0,-6,-4,-2,0,0
1523135248589058,0,-1,1,3,0,0,-3,-1
1523135248595928,-4,-1,5,-2,-2,1,-1,1
1523135248595928,1,-1,-3,-4,2,-2,1,0
1523135248612028,1,-1,-1,-4,-4,-1,0,0
1523135248612028,3,0,0,-1,1,-1,0,-3
1523135248613977,1,-4,1,8,1,0,-1,1
1523135248613977,-3,-2,0,-9,-1,-1,0,-2
1523135248626065,-3,-1,-6,-3,-6,-2,-1,-5
1523135248626065,-2,-1,1,6,-1,0,-2,2
1523135248635032,-1,-1,-2,-4,1,-4,-1,0
1523135248635032,2,0,1,7,-1,-4,0,-3
1523135248649126,1,0,-2,-1,0,-2,-1,1
1523135248649126,-2,-1,-1,-4,-1,-3,1,-1
1523135248656152,-2,-3,-5,1,0,0,0,0
1523135248656152,0,-2,-2,-2,1,1,-2,-2
1523135248672195,-1,2,1,-4,-2,0,-1,-2
1523135248672195,0,1,0,4,4,-1,-3,-2
1523135248674196,0,-1,1,-6,-2,-2,-3,-3
1523135248674196,-1,-4,0,8,0,1,8,3
1523135248686167,1,-4,0,-9,1,-1,-17,-4
1523135248686167,0,0,-2,8,-2,1,5,1
1523135248695192,0,-1,-5,-6,-2,-5,-13,-4
1523135248695192,-4,2,-6,-16,-2,0,-2,3
1523135248709283,0,0,1,-1,-2,-2,1,-2
1523135248709283,-3,-1,-1,17,1,-1,2,-1
1523135248716250,-1,-1,0,-12,-1,-2,3,1
1523135248716250,1,1,-4,-9,-2,-4,-2,-5
1523135248732345,-1,-1,5,17,-1,3,3,3
1523135248732345,1,0,-2,-17,-2,-2,-1,-1
1523135248733293,-3,-1,-3,-8,-3,1,5,0
1523135248733293,-3,1,3,10,0,-2,-3,0
1523135248745384,1,1,-2,-24,2,1,1,-2
1523135248745384,-1,-3,0,15,-9,-3,-3,-2
1523135248754356,0,1,-3,1,1,-2,0,-2
1523135248754356,0,-2,-2,-4,-3,-1,-3,0
1523135248769389,-3,2,-2,3,-1,-3,0,-2
1523135248769389,-1,-4,-1,-6,2,-1,-1,-4
1523135248775411,-4,1,-1,1,-1,-1,-1,1
1523135248775411,1,-3,-4,-8,-2,-3,-5,0
1523135248792479,-1,1,0,2,-2,0,2,-1
1523135248792479,-1,-1,-1,-5,0,1,-1,-3
1523135248793457,-3,-2,4,11,-3,0,1,-1
1523135248793457,-4,3,1,3,2,-1,-1,-1
1523135248805544,1,-1,0,-2,-3,-2,0,-1
1523135248805544,2,-1,3,4,-2,-3,-6,-1
1523135248814511,-1,-2,-4,-24,-3,-1,0,1
1523135248814511,0,-1,0,4,0,-2,-2,-4
1523135248828603,-3,0,-2,7,-2,3,3,3
1523135248828603,-2,-3,-5,-3,-1,-4,-3,2
1523135248835624,2,1,-1,-3,-2,0,-2,1
1523135248835624,0,-2,-3,4,1,0,1,3
1523135248859684,1,-5,-2,17,1,-3,-1,-1
1523135248859684,-1,-1,-3,-39,-4,0,1,3
1523135248861637,-4,-1,-6,17,1,-1,-3,-4
1523135248861637,1,-1,1,3,-2,2,-1,1
1523135248865700,0,-1,-1,7,-1,-2,3,0
1523135248865700,-1,-1,-3,-2,1,0,0,-2
1523135248874670,-1,-1,0,-3,1,0,-1,-2
1523135248874670,-1,1,4,-2,-2,2,0,-5
1523135248888766,-2,0,-2,-2,0,-2,-1,3
1523135248888766,0,-1,0,0,-2,0,1,-2
1523135248895781,0,0,0,-3,0,0,1,-1
1523135248895781,-1,-1,2,-4,1,-2,-3,-2
1523135248911822,-1,-2,-3,-6,0,-1,-3,-3
1523135248911822,2,-1,1,6,2,1,-2,-2
1523135248913777,1,-1,0,2,1,0,2,3
1523135248913777,-3,3,-1,-2,-2,-1,0,-3
1523135248934890,0,-1,-2,-5,0,0,0,-1
1523135248934890,-2,-3,0,-1,1,-2,-2,-2
1523135248935832,-1,-3,1,4,0,0,-1,1
1523135248935832,0,-1,-1,1,-1,-2,-4,-1
1523135248948921,1,0,0,-5,1,1,-2,-3
1523135248948921,-4,0,1,3,2,-2,0,-2
1523135248955945,2,-2,1,0,-4,-2,0,-3
1523135248955945,-1,-4,0,-10,-2,-3,1,2
1523135248971928,0,-3,-3,-1,-1,1,-3,1
1523135248971928,-2,1,4,0,-1,1,0,0
1523135248978001,-2,0,1,1,0,0,1,-4
1523135248978001,1,-1,-4,0,-2,-2,-1,-3
1523135248986022,0,-1,-1,3,-1,-2,-2,-2
1523135248986022,-1,2,-3,-2,1,0,-1,-1
1523135248994993,-2,-4,0,-2,-2,-1,1,-1
1523135248994993,-1,0,-2,2,-1,-1,0,0
1523135249009082,-1,-1,-1,-6,-1,-1,0,0
1523135249009082,-2,-1,1,-1,-2,-1,-3,1
1523135249016103,1,2,-3,-1,0,0,1,-2
1523135249016103,-1,-2,-1,1,-1,2,-1,-1
1523135249031140,-2,-5,-5,2,-2,-2,-1,-1
1523135249031140,1,0,-3,-4,0,-2,-3,-1
1523135249038164,-1,2,-1,-5,1,-2,-2,0
1523135249038164,-2,1,1,-1,1,-1,-1,2
1523135249054205,-4,-4,-3,0,-2,0,1,1
1523135249054205,1,1,-2,-2,-1,0,0,-2
1523135249056153,1,-5,2,0,0,-3,-3,0
1523135249056153,-3,-2,-4,-5,1,-1,-3,-2
1523135249069248,0,3,3,0,-1,-2,3,1
1523135249069248,0,0,-3,3,0,0,-3,-3
1523135249076205,-1,-1,-1,-9,-1,-1,-3,2
1523135249076205,-2,-2,-2,5,-4,-2,-1,-4
1523135249091246,-2,0,3,-4,-1,-1,0,-2
1523135249091246,-2,0,-4,1,-2,2,1,-1
1523135249098321,4,-2,-2,-1,-2,-2,0,-3
1523135249098321,2,0,1,-1,1,-2,-1,-3
1523135249114361,-1,0,-2,-3,-1,1,-3,-2
1523135249114361,-2,-2,0,2,-1,-3,0,1
1523135249116314,-3,-1,-1,7,-2,-1,-2,-3
1523135249116314,-1,1,-1,-3,-2,1,2,0
1523135249129354,-1,-1,-3,4,-1,-3,-4,-1
1523135249129354,1,-1,0,-4,2,0,1,0
1523135249135422,-4,-2,-2,-5,0,0,0,-3
1523135249135422,-1,-3,0,4,0,-3,0,-2
1523135249151465,-2,-2,-1,-7,0,1,-1,-3
1523135249151465,0,-2,-3,-3,-2,-1,0,1
1523135249158427,-3,2,2,5,-2,0,0,-1
1523135249158427,1,-3,-4,1,0,0,-1,-3
1523135249174469,0,-5,1,4,1,-1,-2,-4
1523135249174469,-1,0,1,-7,-3,-2,0,1
1523135249176477,1,2,-3,-5,-2,-1,1,0
1523135249176477,-2,-2,1,-2,1,4,-2,-1
1523135249188563,-1,0,-4,-2,0,-1,-1,0
1523135249188563,2,-4,0,2,-3,-2,-2,-1
1523135249195578,-1,0,0,-4,0,0,1,2
1523135249195578,-1,0,-2,-2,-3,-2,-1,1
1523135249211620,0,0,-2,2,-2,-3,0,1
1523135249211620,-3,-2,0,0,0,0,-3,-5
1523135249218638,-1,-1,-6,-3,-2,-1,-4,-1
1523135249218638,-3,-2,0,0,-1,0,1,0
1523135249234686,0,0,-2,-6,-3,-1,2,-1
1523135249234686,0,0,0,-4,1,4,1,0
1523135249236634,0,-3,0,3,0,-3,-1,0
1523135249236634,1,-1,-2,0,-1,-2,-1,-2
1523135249248719,0,-1,-1,-1,-2,-3,-2,-3
1523135249248719,-2,-2,0,-3,-1,-1,-2,-1
1523135249255738,1,-4,1,2,-1,0,-2,-2
1523135249255738,-1,-3,2,-2,1,0,0,0
1523135249271784,-2,-1,0,-3,1,0,-2,1
1523135249271784,1,-1,-4,1,0,-2,0,0
1523135249277798,1,0,-3,-2,-1,1,1,0
1523135249277798,0,0,-1,-2,-2,-1,-2,-1
1523135249294841,-2,0,-1,-7,0,1,0,0
1523135249294841,0,-3,-1,-1,-2,-4,-1,-3
1523135249295789,1,-3,-1,1,1,-1,-1,1
1523135249295789,0,0,-1,-2,0,0,-1,-2
1523135249308881,1,-5,0,0,-1,-1,2,1
1523135249308881,-6,0,0,0,1,3,-1,-3
1523135249315900,-4,-6,1,-2,-2,-1,-3,-1
1523135249315900,2,-2,-3,-4,-1,-3,-1,1
1523135249331885,1,-1,3,1,0,-1,-1,0
1523135249331885,1,-4,-7,-10,-3,-2,0,-3
1523135249337958,-2,0,1,1,-6,-4,-1,-1
1523135249337958,-1,2,-1,2,5,2,-2,0
1523135249355009,-4,-4,-1,1,0,-1,-2,-3
1523135249355009,2,-2,-3,-3,5,2,0,1
1523135249355950,2,-1,-4,-3,-16,-7,-2,-2
1523135249355950,-2,-3,-1,-5,0,-3,2,-2
1523135249369046,-3,-1,-1,3,0,0,-2,0
1523135249369046,2,0,-1,4,0,0,-2,-1
1523135249376058,1,-1,1,5,2,0,0,1
1523135249376058,-4,0,0,-10,-2,0,1,0
1523135249391045,0,-3,-1,1,0,0,-3,0
1523135249391045,1,1,2,0,-5,-1,1,0
1523135249398118,-2,0,-3,-3,3,-1,-2,1
1523135249398118,0,-1,-4,5,-2,-1,1,-2
1523135249415109,-1,0,-3,6,1,-1,0,-1
1523135249415109,-4,-3,0,-3,0,-1,0,1
1523135249416112,2,-2,0,-2,-1,-3,-2,-1
1523135249416112,-1,0,0,1,1,0,-5,-1
1523135249429200,-1,0,-2,-5,-1,0,3,0
1523135249429200,-4,-3,-5,2,-2,-2,-2,1
1523135249436185,-2,0,-2,1,1,0,-4,-2
1523135249436185,-1,-4,-2,-2,-3,-2,-4,0
1523135249451262,1,1,-2,-1,-3,-1,0,-2
1523135249451262,-3,2,0,3,1,0,0,1
1523135249458261,0,1,-1,-2,3,5,1,0
1523135249458261,-2,0,-2,1,-2,-4,-5,-1
1523135249474266,-2,1,-1,-4,-3,-1,-3,1
1523135249474266,1,-2,0,-1,-3,-4,0,-1
1523135249476270,0,1,-1,-2,-2,3,-1,-4
1523135249476270,-1,-3,-1,2,-3,-1,2,1
1523135249489305,-2,0,1,0,-1,-1,-2,-1
1523135249489305,0,-1,-2,2,-2,-4,-1,-1
1523135249495377,-1,-5,-5,-1,2,0,3,-1
1523135249495377,-3,0,1,-1,-3,-1,0,-2
1523135249511417,2,-5,-4,0,3,0,1,-2
1523135249511417,-1,0,-1,-1,-2,-2,-3,-1
1523135249518436,-3,-2,1,-1,2,-4,0,0
1523135249518436,4,1,-2,1,0,0,-1,-1
1523135249534489,-4,-1,-1,-2,-4,-2,-1,2
1523135249534489,-2,2,0,-1,-1,1,0,0
1523135249536430,-1,-1,-4,-1,-1,-4,1,-1
1523135249536430,1,-3,1,0,1,0,-1,-2
1523135249548519,1,-1,1,0,-1,-1,-1,-4
1523135249548519,1,-3,-1,-2,-1,-3,-3,2
1523135249557487,-5,1,2,2,1,2,-1,1
1523135249557487,-1,-1,-6,-5,-2,-1,-1,1
1523135249571582,1,0,-2,-2,-1,-4,-3,-3
1523135249571582,-3,0,1,-3,-2,-3,-1,-2
1523135249578599,-1,-1,-3,-2,-2,-2,-1,2
1523135249578599,-1,0,0,0,-2,1,1,-1
1523135249594642,0,-3,1,-2,1,0,0,0
1523135249594642,0,2,0,3,-1,-2,0,-2
1523135249596592,0,0,2,-3,-1,-3,0,0
1523135249596592,-2,0,-4,1,-1,-1,-1,-1
1523135249608655,4,1,-1,1,-4,0,1,2
1523135249608655,1,0,-2,0,-1,0,-1,-3
1523135249617646,-1,0,2,0,-2,0,-1,-1
1523135249617646,-1,-2,1,-4,-1,-3,1,-3
1523135249631740,-2,0,-1,-2,-2,0,-2,-1
1523135249631740,-2,-2,-2,-4,-1,0,-3,1
1523135249638701,-2,-3,0,-1,-2,-2,-2,-3
1523135249638701,-2,-3,-1,1,0,-1,-2,2
1523135249654804,-1,-3,1,0,-3,-2,-2,-1
1523135249654804,-1,-3,-2,0,-2,0,1,-2
1523135249655750,1,0,-1,2,1,1,-1,-1
1523135249655750,0,2,0,1,-1,1,-2,-1
1523135249668787,-1,1,-3,-1,4,-1,1,0
1523135249668787,2,-3,-1,-1,-3,0,-2,0
1523135249676802,-2,-1,-2,-3,1,1,1,0
1523135249676802,-1,-1,0,-3,-3,-1,-1,1
1523135249691843,-2,-2,-4,-2,0,1,-2,0
1523135249691843,-4,0,1,-1,1,-3,-1,-4
1523135249697916,0,0,0,-1,0,-1,0,0
1523135249697916,-3,-2,-3,2,-2,-1,2,-1
1523135249714905,-2,0,0,2,-2,-3,-3,-1
1523135249714905,0,-1,0,-2,0,2,1,1
1523135249715909,-1,-1,-1,1,-3,1,0,1
1523135249715909,1,-2,-2,3,0,-1,-3,2
1523135249727996,-2,0,1,-3,-1,-1,1,-3
1523135249727996,-1,-3,-7,0,0,-1,-2,0
1523135249736965,0,-3,-1,-2,-1,-1,-1,-1
1523135249736965,-2,-1,2,-5,-1,-2,0,-2
1523135249751055,-1,-1,-1,-2,-3,-1,-1,-1
1523135249751055,1,-1,0,-2,1,-1,-1,2
1523135249766095,-2,-1,1,-2,-1,0,-3,-2
1523135249766095,1,-2,-3,-2,1,-2,-1,1
1523135249775064,3,-3,0,-2,-2,0,-1,-1
1523135249775064,-1,0,-1,-1,-4,0,-1,-1
1523135249776070,-1,0,-1,1,-1,-1,-3,-1
1523135249776070,2,-2,0,0,0,-1,-1,-3
1523135249788161,-2,-3,1,-2,-2,-1,1,0
1523135249788161,1,1,-1,0,-2,-3,0,-5
1523135249797125,0,2,2,-1,1,2,2,0
1523135249797125,0,-1,-2,-2,1,-2,0,-1
1523135249811215,-3,-1,2,-5,-1,-1,-1,0
1523135249811215,-2,1,0,1,-2,-2,-2,-1
1523135249818236,3,-1,-1,1,-1,-3,-3,-1
1523135249818236,-4,4,-1,-6,-1,0,-2,2
1523135249834281,-1,-3,-2,2,0,-2,-1,-3
1523135249834281,0,-1,0,-4,0,1,0,0
1523135249836230,-3,0,0,-1,1,-4,-1,-3
1523135249836230,-3,-1,0,-1,1,-2,0,0
1523135249848313,0,1,-3,-2,0,0,-1,-2
1523135249848313,-4,-2,0,0,2,0,-2,-1
1523135249857284,2,0,-2,-4,-1,0,1,2
1523135249857284,2,-2,-1,-1,2,1,-2,-5
1523135249871500,-1,0,-1,-2,2,1,-1,0
1523135249871500,1,-1,1,-1,-5,-2,-1,-2
1523135249878515,-3,-2,-2,-1,-1,-1,-1,-1
1523135249878515,-2,-5,-1,2,-2,-2,-1,-1
1523135249893556,-2,1,-1,0,-1,-2,-2,0
1523135249893556,0,-3,0,-3,0,3,-1,-1
1523135249900581,2,-1,-1,-1,-2,1,-3,-2
1523135249900581,-2,0,0,-2,-1,-1,-3,0
1523135249908590,1,-1,-2,-1,0,0,-1,-1
1523135249908590,-4,-1,-3,-6,-2,-1,-3,0
1523135249917563,-2,0,-3,-1,-2,-1,0,-1
1523135249917563,-2,-1,1,0,-2,-2,-1,-1
1523135249931655,0,-3,-3,-3,-1,0,-1,1
1523135249931655,1,-2,1,1,-3,-2,-2,-2
1523135249938664,-2,-3,0,-2,-1,-2,-2,0
1523135249938664,-1,2,-2,-1,-1,0,1,1
1523135249953724,-2,-1,1,1,1,-1,-2,1
1523135249953724,-1,0,2,1,-1,-4,1,-2
1523135249960734,-2,1,-5,0,2,-1,-2,-3
1523135249960734,-1,-3,2,-1,-1,0,1,-1
1523135249976771,-3,-3,1,3,-1,-1,-2,-3
1523135249976771,0,0,-2,-1,0,0,1,2
1523135249978724,2,-1,4,3,-2,-4,-2,-1
1523135249978724,-1,-1,0,-2,1,3,2,1
1523135249991817,-4,-2,-7,2,0,-4,-4,-3
1523135249991817,1,3,-6,-7,-1,-3,-1,-2
1523135249998778,-4,-4,0,-3,-3,-3,1,0
1523135249998778,1,1,2,1,0,0,0,0
1523135250012815,0,2,-3,0,-1,-1,1,-1
1523135250012815,-2,-2,2,-2,-1,-3,-3,-1
1523135250020898,-1,-2,-7,-3,-1,0,2,0
1523135250020898,0,0,-2,-2,-4,-1,-2,-2
1523135250036883,0,-2,0,0,-3,0,0,-1
1523135250036883,-4,-1,0,0,1,-1,-2,-4
1523135250036883,2,-2,1,2,0,0,-1,-2
1523135250036883,1,-4,-2,-1,-1,-1,-1,-1
1523135250051958,2,0,-3,-1,0,-2,1,-3
1523135250051958,0,-3,1,2,-2,-2,-1,0
1523135250057934,-1,1,0,-1,-1,0,-3,-2
1523135250057934,-2,-2,-3,0,0,0,-1,-2
1523135250072975,-1,1,2,-5,-1,-2,-1,1
1523135250072975,-1,-2,0,1,1,2,0,2
1523135250081054,-4,-1,0,-2,0,0,0,-3
1523135250081054,0,-1,0,0,-1,0,-1,1
1523135250096095,-2,-1,-2,-9,-3,0,0,0
1523135250096095,-4,-3,-1,1,0,-1,0,-2
1523135250097039,-2,-3,-2,-1,1,-5,0,2
1523135250097039,-2,-1,-1,-2,-1,-3,-3,0
1523135250112079,1,-6,1,-1,1,1,1,1
1523135250112079,3,0,-1,-4,-2,1,-1,-3
1523135250118154,0,-1,-2,-3,-4,1,0,1
1523135250118154,-1,1,-1,-2,-2,-5,-2,-5
1523135250133194,-1,0,-1,-1,0,1,-3,1
1523135250133194,2,2,-3,-3,-1,0,3,0
1523135250141202,0,2,2,1,1,1,2,-2
1523135250141202,-1,-2,0,0,2,-3,-2,-1
1523135250164276,-1,3,-3,1,-1,-2,-3,-1
1523135250164276,1,-4,-1,-1,1,-1,-3,-3
1523135250164276,-2,-1,-1,-2,-2,-1,-1,-3
1523135250164276,-2,1,0,-2,-1,2,-1,0
1523135250172241,-3,-6,2,1,0,-3,-2,-2
1523135250172241,-3,0,-3,3,-2,-1,-1,2
1523135250178311,0,0,-2,-4,-1,-3,-3,-2
1523135250178311,4,-5,-3,-2,0,1,0,-4
1523135250193340,0,-2,-1,-1,-1,0,2,-1
1523135250193340,-2,-2,-1,3,-1,-3,-1,2
1523135250200372,-3,-2,2,0,0,0,-1,-1
1523135250200372,0,2,-2,-1,-3,-2,-3,-2
1523135250216405,1,2,-2,-3,0,2,0,0
1523135250216405,0,-2,-1,-2,3,0,-2,-3
1523135250217361,0,2,-5,-2,-1,1,-3,-2
1523135250217361,-2,-1,0,-1,-2,-1,0,0
1523135250232400,-3,1,0,-2,0,1,2,-4
1523135250232400,-2,1,-1,-3,-3,-2,3,0
1523135250238457,-3,2,0,0,-3,0,-1,1
1523135250238457,-1,-2,1,2,-2,-4,-1,0
1523135250253505,1,0,0,-3,-2,2,-3,-1
1523135250253505,-1,2,0,0,0,1,0,0
1523135250260525,-1,-1,0,-2,-2,-2,-2,0
1523135250260525,-1,0,-2,-1,0,1,1,-1
1523135250276568,2,-3,-3,-4,-1,-5,-2,-3
1523135250276568,-1,-2,2,-1,-2,2,0,-1
1523135250277520,-3,2,-4,2,1,0,-1,-1
1523135250277520,0,-1,-3,-3,0,-2,-1,-1
1523135250292562,1,-1,1,-1,-2,-2,-3,0
1523135250292562,2,1,-1,-4,-1,-1,-4,-2
1523135250298624,-3,0,2,-3,5,-1,3,0
1523135250298624,-2,-3,-2,9,-5,-1,-1,0
1523135250321677,-3,0,-32,-2,-2,-4,0,-2
1523135250321677,0,-1,-4,5,-1,0,1,0
1523135250322639,0,-3,-2,-10,-2,-1,-2,-1
1523135250322639,-1,0,3,-7,-3,0,-2,-6
1523135250336725,-1,1,1,6,0,0,0,1
1523135250336725,-3,-4,-2,-2,-1,-2,-2,0
1523135250337680,-1,-2,1,3,0,-1,0,-1
1523135250337680,0,-1,-8,-2,0,1,1,1
1523135250351764,-2,0,4,-7,-2,-1,-1,0
1523135250351764,-1,-2,0,1,-1,-3,-1,1
1523135250357842,-1,1,7,-2,-4,0,-2,0
1523135250357842,0,2,1,2,0,-1,-3,0
1523135250372957,-1,-1,4,2,-1,-1,-2,-1
1523135250372957,0,4,-5,-3,3,1,0,-1
1523135250381027,-2,0,-5,2,-1,1,-2,-1
1523135250381027,-2,-1,0,10,1,-3,-1,-2
1523135250396020,-2,-3,3,-10,-2,2,-1,0
1523135250396020,0,0,1,3,-1,-2,-2,-2
1523135250397023,1,-3,-5,-7,0,-2,-2,-3
1523135250397023,3,-3,-1,-2,0,-2,-1,-5
1523135250412067,-2,-2,6,5,-2,1,0,0
1523135250412067,0,-3,-1,-3,-2,-2,0,1
1523135250418129,-1,-2,1,5,0,1,1,-2
1523135250418129,-5,-3,0,-8,-3,-1,0,0
1523135250433164,0,-1,1,-2,0,0,-2,-1
1523135250433164,2,1,1,0,-1,-2,-1,0
1523135250441138,1,0,-2,0,0,-3,-2,0
1523135250441138,0,2,0,-1,-4,-4,-2,0
1523135250456179,-1,-2,0,3,-1,-3,-1,-3
1523135250456179,-3,-2,-1,-1,-1,1,-2,-4
1523135250457184,-2,-3,3,2,2,-1,0,-1
1523135250457184,-2,1,1,2,0,-1,-1,0
1523135250472222,-2,-2,-3,-11,-4,-1,-3,-3
1523135250472222,-2,-1,0,2,0,2,-2,0
1523135250478285,1,-2,-1,-2,-2,-3,-2,-4
1523135250478285,0,1,-2,-1,3,3,0,2
1523135250493323,2,0,-2,2,0,-1,-1,-1
1523135250493323,-3,-3,0,-4,-2,0,-1,-4
1523135250500344,-1,-1,-2,-4,1,-1,-2,1
1523135250500344,-2,-2,-4,-3,1,-2,-2,0
1523135250516390,1,-2,1,11,-2,0,1,2
1523135250516390,-2,0,-4,-13,0,1,1,-2
1523135250517345,0,-1,1,4,-3,-2,0,-3
1523135250517345,-1,0,2,1,-1,-2,-4,-4
1523135250532384,-4,0,3,0,2,1,0,-2
1523135250532384,-1,1,-1,6,-1,-1,-2,-1
1523135250538401,0,-2,-1,0,-1,-2,0,-1
1523135250538401,-3,0,-3,-5,-2,-1,1,1
1523135250553500,0,0,1,1,1,-2,1,-1
1523135250553500,0,1,0,1,-1,-3,1,0
1523135250560502,2,2,1,1,-3,-1,-1,0
1523135250560502,2,-3,-3,0,-1,0,0,-3
1523135250576547,3,0,0,-8,-1,-1,-1,-2
1523135250576547,-3,1,1,1,0,-2,2,0
1523135250577505,-2,-2,-4,-1,-4,0,0,-1
1523135250577505,-2,0,1,5,-3,1,-1,-3
1523135250592542,-3,-1,1,-14,-3,-4,-2,-1
1523135250592542,1,-1,-6,10,-2,-2,-1,-2
1523135250598568,-3,1,0,0,2,0,0,0
1523135250598568,-1,-4,3,2,1,2,-2,-1
1523135250613646,-1,-3,0,4,0,-3,1,-2
1523135250613646,-3,-2,0,-8,2,-1,-2,-3
1523135250620670,1,-2,0,-1,-3,-2,-2,0
1523135250620670,-2,-1,1,0,0,1,2,0
1523135250636705,-1,0,-2,-3,-4,-2,-4,2
1523135250636705,-2,-2,-3,-2,-2,0,0,-2
1523135250637663,-1,0,1,-1,-1,0,1,-2
1523135250637663,0,-1,-1,-7,-1,-2,0,-1
1523135250652701,4,3,-2,5,-1,-1,-1,0
1523135250652701,-1,-2,0,-1,-2,0,0,-1
1523135250658717,-2,0,-4,-4,-2,-1,-3,0
1523135250658717,-1,3,0,-5,0,-1,0,-4
1523135250672757,-1,-1,-1,-3,1,0,-3,-3
1523135250672757,-1,0,-2,-1,-3,-2,-1,3
1523135250680823,-3,-1,-2,2,-2,0,-1,1
1523135250680823,1,2,1,-4,1,-1,-2,1
1523135250696818,-5,-9,-8,2,1,0,2,-2
1523135250696818,0,-3,3,-3,-3,0,-1,-1
1523135250696818,1,0,-3,0,0,1,-1,-1
1523135250696818,2,0,-2,-7,-2,-5,-1,-3
1523135250711858,0,1,-2,-1,1,2,-1,3
1523135250711858,0,0,5,-3,0,0,-3,-3
1523135250717926,-1,-2,-1,1,-1,-2,-1,-1
1523135250717926,-4,-6,-4,0,2,-1,1,0
1523135250733035,-1,2,0,-1,-4,1,1,-1
1523135250733035,1,-2,-2,-1,-1,-1,0,-2
1523135250740983,0,-1,0,1,0,0,-3,2
1523135250740983,-2,0,2,-3,0,-1,1,-1
1523135250755976,0,1,0,1,0,0,1,1
1523135250755976,-1,4,-2,3,-1,0,-1,1
1523135250756982,-2,-3,-3,-9,0,-1,-2,-2
1523135250756982,3,0,0,-3,-4,-2,3,2
1523135250772019,0,0,3,3,-2,-1,-4,-6
1523135250772019,0,0,-1,-2,0,-3,-1,-2
1523135250778081,0,-2,-3,0,0,-2,2,-1
1523135250778081,-3,-1,-4,-2,2,0,-2,1
1523135250793124,-1,0,-2,-3,-1,-1,0,0
1523135250793124,-4,-6,-2,-7,0,-1,0,-3
1523135250801145,-1,0,-8,-5,1,-1,0,-3
1523135250801145,-2,1,0,3,-1,1,1,-3
1523135250816186,-1,-3,-1,0,0,-1,-2,1
1523135250816186,-1,-1,-5,-4,-3,-4,-2,-1
1523135250817141,-1,-4,8,-2,-4,-2,2,0
1523135250817141,1,-2,-9,-2,-3,-3,-1,-3
1523135250832181,0,2,-2,0,2,-2,1,1
1523135250832181,-2,-2,2,1,-1,-2,-3,2
1523135250838199,3,1,0,-2,0,0,-3,-2
1523135250838199,2,1,-3,0,-2,0,-1,-3
1523135250853286,-1,0,2,-2,-3,-1,1,0
1523135250853286,-2,-2,-2,1,-2,-2,-2,0
1523135250861261,-4,-2,0,4,-1,-4,-2,-2
1523135250861261,0,0,1,-2,0,2,-3,2
1523135250876298,-4,-4,-2,1,-2,-1,0,-3
1523135250876298,-2,1,0,0,-3,1,0,0
1523135250883366,1,-1,1,-4,-3,-2,-2,2
1523135250883366,-2,-2,2,3,-1,1,-2,-1
1523135250899356,-1,-1,-4,-5,0,-4,0,-3
1523135250899356,-1,2,0,1,1,1,-1,0
1523135250899356,-3,1,5,3,-2,-3,-1,-2
1523135250899356,0,-1,0,-1,2,-1,0,0
1523135250913442,-1,-3,4,3,-1,1,-1,2
1523135250913442,2,1,5,2,1,-2,-1,-2
1523135250920467,-1,-3,-6,-3,3,0,0,-3
1523135250920467,-1,-2,1,-1,-4,-1,-1,1
1523135250935508,-2,-1,-3,-5,0,-2,-2,-3
1523135250935508,2,-4,-4,-5,-1,-2,2,-3
1523135250943523,-5,-4,-2,-3,0,1,-1,-2
1523135250943523,0,-2,-1,0,0,-4,-2,-3
1523135250958565,0,0,-2,2,-1,1,-2,-2
1523135250958565,0,-4,-1,1,-6,0,0,-3
1523135250959518,-2,2,-2,-3,-2,0,-2,-2
1523135250959518,-1,-3,-3,-1,-1,-1,-2,-1
1523135250973558,-1,0,-1,1,1,-1,0,3
1523135250973558,-1,-2,-1,-2,-2,-1,0,-2
1523135250980619,-2,0,-2,-2,-1,1,-1,-1
1523135250980619,-3,0,-2,-1,-3,-1,0,2
1523135250995612,-2,-2,-5,-4,0,-1,-1,-2
1523135250995612,-1,0,6,1,1,2,2,0
1523135251003682,2,1,-2,-2,-3,-2,2,1
1523135251003682,0,-1,-2,1,-3,0,-2,-1
1523135251018724,-1,-3,0,0,-1,-2,-2,-2
1523135251018724,-3,0,-3,-5,-1,0,1,1
1523135251019681,-2,1,1,0,-1,1,0,-3
1523135251019681,1,-3,-1,-2,2,-3,-3,2
1523135251033714,-4,-1,-2,2,-2,-2,-1,1
1523135251033714,-1,1,-2,-2,1,0,0,2
1523135251040782,1,-1,0,1,-2,-1,0,0
1523135251040782,-4,-2,-2,-4,-1,2,-4,-5
1523135251055776,1,1,2,2,1,-1,-4,-4
1523135251055776,-2,-3,-3,-7,-1,-3,-5,1
1523135251062791,-1,-4,-2,0,-1,2,-1,1
1523135251062791,0,2,-1,-1,1,0,1,0
1523135251078837,4,-1,3,-1,1,0,2,-3
1523135251078837,2,0,-2,2,0,-1,-1,2
1523135251079842,-2,-2,-1,-2,-2,-4,-1,-1
1523135251079842,-2,0,-9,-1,-4,-3,0,-2
1523135251092922,-3,2,5,3,-1,1,-1,0
1523135251092922,-2,-6,-1,1,1,-2,0,-2
1523135251100942,1,0,-3,0,3,-3,-2,-3
1523135251100942,-1,-1,0,-1,-2,-3,-1,-2
1523135251115980,-1,-1,-3,-6,-1,-1,-3,-3
1523135251115980,-3,-3,-4,-3,-5,-1,-3,0
1523135251122952,-2,-1,3,1,1,1,-1,-1
1523135251122952,0,-1,-1,-2,0,-1,2,-5
1523135251138994,-2,-2,-4,2,-1,1,0,-1
1523135251138994,0,-1,0,-1,0,-1,-3,-1
1523135251140004,0,-1,-3,-2,-2,-2,0,-1
1523135251140004,1,2,-1,-1,0,-1,0,0
1523135251153086,-1,1,-1,-2,-4,-2,-1,-2
1523135251153086,-2,0,-4,2,0,-1,0,0
1523135251161100,1,-1,-1,0,1,2,-1,0
1523135251161100,-2,-2,1,-1,1,0,-3,1
1523135251176140,1,-3,-2,-2,-4,-4,-3,1
1523135251176140,-1,2,-2,-1,1,-1,-2,-4
1523135251183165,0,1,-4,-4,-2,-1,1,-3
1523135251183165,0,-3,-2,0,0,2,0,-3
1523135251199201,0,-1,-2,-4,-2,-2,-2,-2
1523135251199201,0,-1,-2,-5,0,-3,0,-3
1523135251200157,-1,-3,1,1,-2,-4,-1,4
1523135251200157,-3,1,-4,1,-2,-2,-4,-3
1523135251213241,-1,2,-1,-1,1,3,8,15
1523135251213241,-1,2,0,3,0,-2,-17,-18
1523135251221222,1,1,1,0,-1,0,1,1
1523135251221222,-1,-2,-1,-2,-2,-1,0,2
1523135251235303,0,-4,0,2,-2,-4,-3,-6
1523135251235303,-2,-3,-6,-2,0,2,6,5
1523135251243321,-3,-4,1,-1,-1,-1,-1,-3
1523135251243321,-1,-1,-3,-3,-2,-3,-3,-2
1523135251259314,-1,-1,-3,-3,-2,-3,2,0
1523135251259314,-5,2,3,2,-2,1,0,2
1523135251259314,-3,-1,-3,0,0,2,-3,-5
1523135251259314,-2,-2,1,2,-1,-2,2,3
1523135251274354,0,-1,-2,-5,0,0,-4,-1
1523135251274354,0,0,-3,0,0,-6,-1,1
1523135251280421,1,0,-3,-3,0,-2,0,-1
1523135251280421,1,-1,1,-2,-1,0,0,3
1523135251295457,-2,-1,0,0,-1,1,-2,-6
1523135251295457,2,-2,2,2,-5,0,1,0
1523135251303486,-3,-1,-2,1,1,-3,1,-1
1523135251303486,-2,-1,-1,0,-1,-4,0,-1
1523135251318526,0,-1,-3,-3,-2,-2,-3,-6
1523135251318526,1,-2,1,-5,0,0,1,2
1523135251319475,2,-1,2,2,-3,-2,-3,-2
1523135251319475,3,-2,-3,-2,-2,1,1,1
1523135251333564,-1,-1,1,-1,-1,-2,1,2
1523135251333564,0,-5,0,1,1,-2,-1,-1
1523135251340577,0,1,-8,-5,-6,0,-3,1
1523135251340577,-4,2,-1,-1,-1,-1,-1,-3
1523135251355574,-1,0,0,-1,-1,0,-1,-1
1523135251355574,1,1,-2,0,-1,0,-2,5
1523135251363639,-1,-1,0,2,-3,-3,1,-2
1523135251363639,0,-3,2,1,0,-1,2,-2
1523135251378631,-2,0,0,-4,0,0,1,-2
1523135251378631,-1,2,-2,-5,-4,-1,-3,-5
1523135251379637,-2,-2,-2,0,0,-1,-1,-1
1523135251379637,-1,2,1,-1,-1,0,0,-3
1523135251393672,-1,1,1,2,2,-2,-4,0
1523135251393672,-2,0,-4,-5,-1,-4,0,-1
1523135251400745,2,1,-2,-1,0,-2,1,3
1523135251400745,-2,-1,0,-3,-4,0,-2,0
1523135251415789,-2,-3,-2,-2,0,-3,-2,-3
1523135251415789,-1,-3,0,2,-1,2,-1,-3
1523135251423755,-4,-1,-3,-5,-3,-1,-5,1
1523135251423755,-1,1,-1,0,-1,-3,-1,-1
1523135251438797,-1,4,-1,1,-2,0,0,0
1523135251438797,-2,-2,2,2,0,1,-1,-3
1523135251439800,-2,-4,-2,-1,0,-2,-1,-1
1523135251439800,-1,-2,-3,-2,-4,-1,-2,-1
1523135251452881,-3,-1,-2,-3,-3,-1,-1,-2
1523135251452881,0,1,1,-1,0,0,2,0
1523135251460897,-3,0,2,-1,-2,0,-3,-4
1523135251460897,-3,0,1,-3,2,-2,-1,-1
1523135251475940,-3,-1,-3,0,-2,-1,-2,-2
1523135251475940,1,0,-2,-4,-1,-2,1,0
1523135251482958,1,1,-7,-2,-2,0,-3,-2
1523135251482958,-1,0,7,6,0,1,0,-1
1523135251498959,-2,-2,-3,-4,-3,-1,0,3
1523135251498959,-1,0,-4,-7,-1,-1,0,-3
1523135251499958,0,-4,4,1,0,-2,-1,1
1523135251499958,1,0,-3,0,-2,-1,-2,-4
1523135251513030,1,-1,0,2,0,-1,0,0
1523135251513030,-3,-1,-1,-4,-2,1,0,5
1523135251521017,1,-2,-3,4,1,0,1,-2
1523135251521017,0,-1,0,-3,-2,-2,0,0
1523135251536099,0,-4,-3,-1,-3,0,-2,-1
1523135251536099,0,-1,-2,-2,-1,-3,-2,0
1523135251543101,-2,-1,3,0,0,-3,1,0
1523135251543101,-3,-1,-5,-2,0,0,-6,-1
1523135251559144,0,3,-1,0,-1,1,-1,-3
1523135251559144,-1,-4,3,1,-2,-1,1,2
1523135251560115,1,3,3,-3,0,-2,-2,-1
1523135251560115,-1,1,-3,-1,-2,-2,1,0
1523135251573151,-1,-4,-1,2,1,1,0,-2
1523135251573151,-1,-3,-6,-1,-2,-3,-2,-1
1523135251581171,0,-3,2,0,-3,-2,1,-2
1523135251581171,-2,-2,-2,-2,1,-2,0,0
1523135251596217,0,2,1,-4,-1,-1,0,0
1523135251596217,-2,-1,-3,3,0,-2,1,-2
1523135251603236,-3,-3,-3,-5,-1,0,-1,-1
1523135251603236,0,-4,-2,-3,0,0,0,-1
1523135251619336,-2,-1,-2,-4,1,-1,-3,-1
1523135251619336,-1,-1,-2,0,-2,0,-1,-4
1523135251626355,2,1,2,1,0,0,0,2
1523135251626355,1,0,-1,0,1,-1,-3,-2
1523135251633373,-1,-1,0,0,-1,1,-1,1
1523135251633373,1,-1,-5,-7,-2,-3,-3,-4
1523135251640393,-2,-1,-4,-3,-1,0,-2,0
1523135251640393,-2,-1,2,-1,-2,0,1,-1
1523135251655371,1,0,-2,0,0,-4,-1,-1
1523135251655371,-2,-1,2,0,-2,-1,-1,-2
1523135251663454,-2,0,-7,-5,-1,-1,0,-1
1523135251663454,2,-2,-2,-5,-2,-2,0,-2
1523135251679434,-1,-1,1,3,-1,1,0,-1
1523135251679434,-2,0,-3,-3,-1,-3,-1,0
1523135251679434,-1,-3,0,-3,0,0,-2,-1
1523135251679434,-2,-1,-2,3,-2,0,-1,1
1523135251693533,-4,2,3,3,-1,-2,-3,1
1523135251693533,1,0,2,3,1,1,0,-2
1523135251708574,-1,2,2,0,-3,0,-1,-1
1523135251708574,0,-2,-3,-6,-2,-1,-1,1
1523135251715597,-4,0,0,-2,-2,-3,-2,-5
1523135251715597,-2,-2,0,3,-2,0,-2,-3
1523135251723614,-2,1,-3,1,0,0,2,-4
1523135251723614,-3,0,-1,0,-1,0,0,-3
1523135251738591,-1,-5,-3,-4,-1,-3,0,3
1523135251738591,0,-3,-2,2,0,-2,-1,-1
1523135251739593,-4,-1,-2,1,-1,-1,-1,-3
1523135251739593,-1,-1,1,-1,-2,-3,-1,-2
1523135251753640,1,1,-4,-4,0,-2,1,-1
1523135251753640,-2,0,-4,1,-1,-1,-3,1
1523135251760713,3,-2,-1,-3,1,3,0,-1
1523135251760713,-2,1,-1,0,-2,-3,-4,3
1523135251775752,2,-2,-1,-2,0,0,-2,-3
1523135251775752,-3,0,2,-3,-2,-1,-1,-3
1523135251783709,0,-1,1,3,-4,-1,-2,-1
1523135251783709,0,-2,0,0,0,1,0,-1
1523135251798751,2,2,-5,-2,-1,-2,-3,-1
1523135251798751,-1,-1,-4,-1,0,-1,-1,1
1523135251806839,-1,-2,-1,0,-1,-1,-1,0
1523135251806839,0,0,-2,1,-3,-3,-1,-2
1523135251812851,-1,-4,2,-2,0,1,1,-2
1523135251812851,1,0,-6,-5,3,1,-1,0
1523135251820812,0,-4,1,5,-1,-4,-3,-1
1523135251820812,-1,-1,-4,1,1,-1,1,-3
1523135251835917,-2,0,-3,-8,-1,-3,-1,-3
1523135251835917,0,0,-4,-3,0,-2,0,-1
1523135251842931,-2,-1,-1,-2,-3,-1,-2,1
1523135251842931,-1,-3,1,-2,0,2,1,-1
1523135251857970,0,0,2,4,-2,0,-3,-1
1523135251857970,-2,-3,2,1,-2,0,-2,1
1523135251866934,-2,-1,-1,-7,1,-1,-2,-4
1523135251866934,1,1,4,1,2,-3,-1,0
1523135251881973,-2,-1,0,3,-1,0,-1,3
1523135251881973,-1,1,-3,0,1,1,0,0
1523135251881973,-1,1,-1,-1,-1,-1,0,0
1523135251881973,-2,-2,-1,-2,-1,2,0,-5
1523135251896073,-2,-1,-2,1,-3,-2,-2,-2
1523135251896073,2,-2,0,-1,-1,-5,0,-2
1523135251903095,0,-2,0,1,-2,-1,-4,-1
1523135251903095,-2,0,-2,-2,-2,3,1,1
1523135251918136,1,-1,-3,4,-2,-1,0,-2
1523135251918136,0,-2,-2,-2,0,-1,0,-1
1523135251926156,-3,0,0,3,0,-3,-1,0
1523135251926156,-2,0,-1,-3,-3,-3,-4,-2
1523135251941193,-1,0,0,1,-1,-2,-1,-4
1523135251941193,-5,0,0,0,0,-2,1,1
1523135251942134,0,-1,-1,-3,1,2,2,-3
1523135251942134,-2,-2,1,-3,-1,-4,-2,0
1523135251956168,0,-1,1,-4,0,0,0,0
1523135251956168,-1,0,-1,-2,-2,-2,0,-2
1523135251963251,-3,2,3,-1,0,-1,2,0
1523135251963251,0,-1,-1,0,-1,-3,0,0
1523135251987255,1,-2,-1,2,0,-1,-2,-4
1523135251987255,2,-2,4,-2,-2,1,0,-1
1523135251988254,2,-3,-2,2,-1,-1,-2,-1
1523135251988254,-1,-3,-5,-2,-3,0,-3,1
1523135252001357,-2,-2,3,1,1,1,1,-1
1523135252001357,-2,-1,0,-1,0,-1,-2,-2
1523135252002294,-4,-1,-2,-3,1,-3,-1,-2
1523135252002294,1,0,0,2,0,-1,-1,0
1523135252015394,-5,1,-2,-3,-1,-2,-2,-1
1523135252015394,-2,0,-2,-1,-3,1,-2,-3
1523135252023411,1,1,0,-5,0,-3,2,2
1523135252023411,-1,-3,1,-2,-1,0,0,0
1523135252038391,1,-3,-8,-5,-2,-1,-1,-1
1523135252038391,1,0,1,1,-1,0,-2,-3
1523135252046472,-4,-1,-6,0,4,-1,-1,-2
1523135252046472,1,1,-1,-1,0,-1,-2,-3
1523135252061513,0,1,-1,-1,0,-1,-3,0
1523135252061513,-2,0,6,-3,2,0,1,0
1523135252062457,2,-1,1,-1,-5,-1,-1,0
1523135252062457,1,-3,-6,-4,-1,-1,-1,-3
1523135252075550,-3,-1,0,1,-1,-3,1,2
1523135252075550,-4,1,-1,-1,0,-2,-3,-1
1523135252083572,0,1,0,-3,-4,0,1,-1
1523135252083572,-1,-1,2,0,1,1,-3,-2
1523135252098552,-3,-2,-3,-6,-2,-2,1,2
1523135252098552,-2,-1,2,5,-2,-2,-1,-3
1523135252106632,1,0,-1,-5,-1,-3,-1,-1
1523135252106632,-1,2,-3,0,-1,1,1,0
1523135252121611,0,-1,-2,-1,0,1,0,-1
1523135252121611,2,-4,-2,-2,1,-1,-1,3
1523135252122613,1,-1,1,0,0,-1,-2,-2
1523135252122613,-5,-2,-4,-6,-2,-1,-5,-4
1523135252135714,3,-3,1,0,1,-1,3,-1
1523135252135714,0,3,-4,-3,-4,0,0,0
1523135252143667,-2,-2,1,1,-1,-2,-4,-1
1523135252143667,0,1,-1,-1,-1,-3,2,0
1523135252158706,0,-1,1,1,0,0,-4,-4
1523135252158706,-2,-6,-2,3,-1,0,2,-2
1523135252166797,1,-1,-4,-3,0,-2,-2,-1
1523135252166797,-1,-2,2,1,1,1,-2,1
1523135252181821,-2,-2,-4,-3,-1,0,-1,-1
1523135252181821,0,-2,1,0,2,-1,1,-2
1523135252181821,-1,-3,-2,-2,-2,1,0,0
1523135252181821,-1,-1,-1,-2,-1,-3,-1,0
1523135252195871,0,1,1,-3,-3,2,-2,-1
1523135252195871,-3,2,-2,-3,-3,-2,-3,-2
1523135252202893,0,3,3,3,0,-1,-1,-1
1523135252202893,-5,-2,-2,-1,-1,-2,-1,-1
1523135252217933,0,1,3,0,0,2,2,-1
1523135252217933,1,2,-4,-1,-3,-3,-1,0
1523135252226887,-1,-2,0,-2,-2,-1,-3,0
1523135252226887,-1,-2,3,3,0,-1,-1,-2
1523135252241930,-2,-4,-5,-5,-2,-2,-5,-3
1523135252241930,-1,-2,1,-2,-1,1,-1,2
1523135252241930,0,-1,-2,-1,0,0,0,3
1523135252241930,-2,1,0,2,-1,-2,1,2
1523135252255967,0,-2,-1,-1,-2,-2,2,1
1523135252255967,0,-2,0,-3,-1,0,-3,-5
1523135252263048,-4,-3,2,2,-2,-1,-1,-3
1523135252263048,-1,-1,-1,-2,1,0,-3,-3
1523135252278089,-1,2,0,1,-1,-1,1,2
1523135252278089,2,1,-2,0,0,-1,0,2
1523135252286115,1,-3,1,1,0,-3,0,-3
1523135252286115,0,-1,-3,0,-2,-2,1,-3
1523135252301160,0,1,0,1,-1,-2,-4,0
1523135252301160,-2,-1,-1,0,0,-1,-4,-2
1523135252302090,0,1,-4,-2,0,2,0,-2
1523135252302090,0,-1,-1,-1,-1,-1,3,2
1523135252316148,2,-2,-3,-1,-2,0,1,0
1523135252316148,-2,1,-2,-3,-1,-3,-1,-3
1523135252323208,-4,0,-1,-2,-2,-5,-2,-1
1523135252323208,0,1,0,-4,2,-1,-1,0
1523135252338187,-4,1,0,0,-1,1,0,-4
1523135252338187,2,-4,-1,0,-2,-1,-2,-1
1523135252346270,-2,-3,-2,-2,-2,-1,0,-4
1523135252346270,1,-2,1,1,-1,1,1,-1
1523135252361247,-5,-3,3,-1,-2,-1,2,4
1523135252361247,-3,1,-3,-4,0,-3,-2,-3
1523135252362251,0,-3,-2,-2,0,0,-1,-1
1523135252362251,1,-4,2,-2,-4,-2,-3,-1
1523135252376287,0,0,-2,-2,2,-1,-1,-2
1523135252376287,-1,-1,-4,0,-4,-1,-1,0
1523135252383368,-4,3,-1,0,-1,2,-1,1
1523135252383368,-1,-2,-4,-2,-3,0,-1,-2
1523135252398413,4,-1,1,2,-1,-4,-2,-2
1523135252398413,-1,-2,-6,-13,0,-1,-2,0
1523135252406430,2,1,6,1,1,0,3,1
1523135252406430,-2,2,0,1,2,-1,-3,-2
1523135252421415,2,-3,-5,-1,-2,0,-2,-4
1523135252421415,-1,-2,-1,0,0,0,3,1
1523135252422411,2,0,-3,-2,-2,-3,-3,-1
1523135252422411,0,-4,-3,-3,-1,1,-1,-1
1523135252435512,-4,3,1,-2,0,-2,-2,0
1523135252435512,0,-1,3,2,-1,1,-1,-1
1523135252443466,0,-2,-2,0,-2,0,0,2
1523135252443466,-2,-2,-2,3,0,-1,-4,-2
1523135252458569,2,1,-2,1,-1,2,1,-3
1523135252458569,-4,1,1,1,-3,0,-2,0
1523135252466595,2,-1,-3,-1,-2,-3,-3,3
1523135252466595,1,-1,-1,-4,0,-1,2,2
1523135252481630,-2,-3,0,-3,-2,-6,-3,-3
1523135252481630,1,1,-1,0,1,-2,0,0
1523135252482568,-3,-2,-1,-4,0,-1,-3,-4
1523135252482568,-2,-1,-2,-2,-1,-3,-4,-1
1523135252495668,0,-1,-5,-9,1,0,-2,-1
1523135252495668,-1,-1,1,4,2,0,2,-4
1523135252503624,-4,-4,-2,-1,-2,-1,-1,-3
1523135252503624,2,1,-1,0,-2,0,2,0
1523135252518695,-2,-2,0,-2,-1,-1,-4,2
1523135252518695,-3,-2,0,-1,-1,-3,-6,-2
1523135252526685,-1,2,-3,-1,-1,2,0,0
1523135252526685,-1,-2,1,1,-1,-3,1,-1
1523135252541790,-1,2,-5,1,-2,-3,-3,-2
1523135252541790,3,-3,0,-3,0,-2,0,1
1523135252542730,1,0,1,1,-1,-1,-2,-3
1523135252542730,-4,0,-1,-1,-2,0,-1,-2
1523135252555829,-5,-1,0,-2,1,-3,2,-2
1523135252555829,-3,-3,-3,-1,-2,0,-1,-1
1523135252563786,-2,-4,-5,-2,1,-1,0,-2
1523135252563786,-1,0,-1,0,-1,-1,0,0
1523135252577887,-2,-4,1,-3,-1,-1,-1,-1
1523135252577887,0,-1,0,-1,-1,0,-3,-1
1523135252586846,-4,1,1,-3,-1,-3,1,1
1523135252586846,0,-3,-3,-2,-2,1,-1,-1
1523135252601888,-2,-5,-3,2,-1,-1,1,1
1523135252601888,0,5,-3,-1,-4,-1,-1,-2
1523135252601888,-2,1,-3,-6,-1,0,-2,0
1523135252601888,0,-4,-1,-3,0,-3,0,-1
1523135252615992,2,3,1,2,-2,2,2,-1
1523135252615992,2,1,-2,-1,1,-2,1,1
1523135252623006,-3,-1,-1,1,-2,-2,-1,0
1523135252623006,-1,2,-5,3,-2,-3,-4,-2
1523135252637985,-3,-2,-2,-3,0,-2,-3,-1
1523135252637985,-4,0,-1,0,-2,-1,1,2
1523135252646068,-1,-3,-1,0,-1,-1,-1,-4
1523135252646068,-1,-6,0,-3,-1,1,2,1
1523135252661044,0,1,0,1,0,-2,-1,0
1523135252661044,2,0,0,4,1,0,1,-1
1523135252662046,-1,2,-6,-6,-4,0,1,1
1523135252662046,1,-2,1,-4,-2,-3,-6,-4
1523135252676147,-4,-2,-2,-1,0,2,0,-2
1523135252676147,-4,1,3,0,-1,0,-2,-3
1523135252683167,2,0,-2,2,1,-1,1,3
1523135252683167,-8,1,0,0,0,2,0,-1
1523135252698207,8,3,-5,-1,-7,-2,-2,2
1523135252698207,-1,-3,-3,-3,0,0,-1,-2
1523135252706227,-1,-2,1,0,1,-2,0,-3
1523135252706227,-3,0,-2,-1,-1,-1,4,1
1523135252721206,-1,-3,-5,-6,-1,-3,-4,-2
1523135252721206,-2,0,0,1,-4,-1,1,1
1523135252722206,1,-4,2,2,2,0,0,1
1523135252722206,3,-1,-2,0,-2,-2,-2,0
1523135252736243,-4,-1,-3,-2,1,0,-1,1
1523135252736243,-1,-1,10,2,1,1,-1,-2
1523135252743327,1,1,3,3,-1,3,-1,-3
1523135252743327,-2,2,-4,2,-1,0,0,1
1523135252758366,-1,-2,-6,-11,-3,-1,-2,-3
1523135252758366,-1,-2,1,1,-1,-2,-1,1
1523135252766387,-1,0,-4,1,-3,-2,-2,-3
1523135252766387,1,-2,5,1,-1,-2,0,-3
1523135252780362,-2,-2,1,1,-2,-2,-1,-1
1523135252780362,1,1,-5,-5,-1,0,0,-3
1523135252789384,-3,-2,-6,-5,-1,2,0,2
1523135252789384,1,-1,-4,-5,0,2,1,-3
1523135252795465,-2,-1,8,5,-1,0,1,-2
1523135252795465,-3,-2,-2,0,-2,-3,-2,1
1523135252803425,-2,0,2,2,-3,-1,-4,-1
1523135252803425,-2,0,0,-3,0,0,-2,3
1523135252818531,-1,-4,-1,2,1,-1,0,0
1523135252818531,-3,-2,0,-2,-3,0,0,3
1523135252826547,2,4,12,-1,1,-1,0,-2
1523135252826547,-6,-3,-10,-7,2,0,-1,0
1523135252840522,1,4,3,-3,1,0,0,1
1523135252840522,1,-1,-7,-3,-1,-2,-2,-2
1523135252848611,1,-1,-1,-1,-1,-1,0,0
1523135252848611,-2,-2,1,-2,-3,-3,-1,-1
1523135252863647,-2,1,0,1,1,0,0,-1
1523135252863647,1,-1,-2,0,0,1,0,-8
1523135252864586,-2,0,-3,-4,-1,-2,-5,-1
1523135252864586,2,-1,-7,2,1,-4,5,-2
1523135252878685,-3,-1,-2,0,-2,0,-7,-3
1523135252878685,-1,-2,-2,0,0,-2,1,3
1523135252886647,-5,1,-3,0,0,0,-1,-2
1523135252886647,1,0,0,1,0,1,-2,-3
1523135252900750,-1,-2,8,5,-1,-2,2,0
1523135252900750,-2,-4,-8,-2,0,-1,-1,-2
1523135252908767,0,-4,-1,2,-1,0,-3,-2
1523135252908767,-1,2,3,-10,-1,1,-1,1
1523135252923807,2,-1,4,13,-1,-2,-1,1
1523135252923807,0,2,1,0,0,1,-3,-4
1523135252924745,-2,-2,-4,-4,1,-3,1,-4
1523135252924745,2,-1,1,4,-1,1,-2,-2
1523135252937782,0,1,-6,-6,-2,-2,-1,-2
1523135252937782,-2,0,-3,-1,1,0,-1,0
1523135252946802,0,-1,0,-2,-2,-2,-1,0
1523135252946802,0,0,-2,0,1,-1,-3,-1
1523135252961029,0,-3,-3,2,2,2,1,-6
1523135252961029,0,-2,-6,-14,-3,0,1,5
1523135252969055,-1,1,8,9,-2,-1,1,-2
1523135252969055,1,-1,-1,2,0,-1,1,2
1523135252984095,-4,0,-8,-8,-1,-1,-3,-3
1523135252984095,0,1,8,0,-3,-4,-1,1
1523135252985030,-5,-3,-10,-6,1,1,0,-1
1523135252985030,-4,-5,5,0,-3,-4,-1,-2
1523135252998133,-1,4,2,2,0,-1,-1,5
1523135252998133,-1,-3,1,-1,0,0,2,-1
1523135253006149,0,-1,-2,-1,-2,-2,-1,0
1523135253006149,-2,-2,1,3,0,0,-1,-3
1523135253021127,-1,-4,-17,-17,-2,-2,0,-4
1523135253021127,0,1,4,1,-2,-1,0,1
1523135253029209,-3,-2,-3,-2,-2,0,-2,-1
1523135253029209,0,-1,1,1,-1,-2,-3,-3
1523135253044187,0,1,-2,-2,0,0,0,-2
1523135253044187,-1,0,1,5,1,0,3,3
1523135253044187,4,-2,-4,-5,-1,-2,-4,1
1523135253044187,-1,-3,-2,1,-3,-1,-2,-3
1523135253058287,-1,2,2,0,1,2,0,2
1523135253058287,1,-3,2,1,-2,-1,-2,-2
1523135253066244,-1,-3,-7,-6,-1,-4,-3,-7
1523135253066244,-3,1,4,-1,1,0,-1,1
1523135253081284,1,-2,1,-4,-2,-2,-1,0
1523135253081284,-4,-3,-11,0,-2,-2,-2,-2
1523135253088306,-1,-2,5,4,1,-1,3,-1
1523135253088306,-3,-1,-4,-1,-2,-1,3,-2
1523135253104345,-2,-2,2,-1,-2,-3,-2,-1
1523135253104345,-1,0,-2,-2,1,1,-1,-2
1523135253104345,-1,-2,-4,-1,-1,-2,-3,-2
1523135253104345,-1,-3,-6,-6,-2,0,-1,0
1523135253118453,-3,0,5,5,-1,-2,-1,-1
1523135253118453,-3,-5,0,-1,0,1,-1,-4
1523135253125452,-4,-1,0,1,0,-3,0,0
1523135253125452,2,1,0,-3,-2,-2,-1,-2
1523135253140492,-4,-1,-1,1,-1,-2,-5,3
1523135253140492,0,1,-3,-4,-1,-2,-3,-5
1523135253149465,1,-2,0,-2,-4,1,-1,1
1523135253149465,-1,-2,-2,4,-1,-1,-2,0
1523135253163554,-5,-2,-2,1,-3,-1,1,-2
1523135253163554,-2,2,0,0,-2,-1,0,-2
1523135253164508,-1,-2,0,3,1,-1,1,1
1523135253164508,1,0,2,-7,-3,-2,-3,-2
1523135253178591,1,-3,-1,-1,-1,1,0,-3
1523135253178591,-3,-3,-1,3,0,-1,-2,3
1523135253185618,2,0,-1,-1,-3,-4,-1,-3
1523135253185618,-4,0,-1,1,0,2,0,0
1523135253200657,1,-1,1,0,0,-4,-2,-1
1523135253200657,-3,-4,-2,-5,-2,-1,-1,-1
1523135253208674,3,-2,0,1,-1,1,0,0
1523135253208674,0,1,-1,-2,2,0,-1,-3
1523135253223714,0,-3,2,2,-1,3,-1,-5
1523135253223714,-2,-1,-2,-2,0,0,-2,-1
1523135253224666,-3,0,-4,-2,0,-3,-2,-3
1523135253224666,1,-1,-2,-3,-3,-1,-1,0
1523135253238703,-4,0,0,1,0,-1,0,-3
1523135253238703,-3,-2,1,-1,-2,-2,-1,0
1523135253245774,-3,2,-2,-1,-3,0,1,0
1523135253245774,0,-1,0,0,0,-5,-1,-4
1523135253260769,1,-7,-3,1,-2,0,-3,-1
1523135253260769,0,0,0,-3,-1,-1,2,1
1523135253268839,0,-3,-2,-1,-1,-1,-4,-2
1523135253268839,-4,-2,2,2,-3,-1,-4,0
1523135253283878,-1,3,-1,-3,-1,-2,-1,2
1523135253283878,0,-5,-2,2,1,-1,3,1
1523135253284828,0,-1,-1,-5,-1,1,-3,-3
1523135253284828,-2,-1,1,-1,0,0,-1,-1
1523135253297913,1,0,-3,6,-4,-1,0,-3
1523135253297913,-1,1,-2,-2,0,0,-3,-3
1523135253305933,-3,-2,7,-3,-2,0,0,-2
1523135253305933,-1,-1,-10,-9,-2,-1,-2,1
1523135253320926,-2,0,2,2,-1,-1,0,-1
1523135253320926,-2,-2,-3,-2,-2,-1,1,1
1523135253328991,1,-1,0,3,-3,-5,-1,-2
1523135253328991,0,0,1,0,1,-1,2,-1
1523135253344034,2,-1,-2,-4,-1,-1,0,1
1523135253344034,0,-3,-1,0,0,-1,-2,-4
1523135253344986,-3,-2,-2,-1,0,3,-2,-3
1523135253344986,0,-1,0,0,-3,-3,-2,1
1523135253358198,-3,-1,-3,-3,0,1,2,1
1523135253358198,0,-1,-1,-1,1,-1,-4,0
1523135253366182,-2,1,-3,-2,1,2,2,3
1523135253366182,-7,1,-1,0,0,0,-3,-1
1523135253381212,2,-4,-2,-4,-1,1,-2,1
1523135253381212,4,-1,-1,-1,-2,-2,-3,-1
1523135253389276,-1,3,0,-2,0,-3,1,1
1523135253389276,3,-3,-2,-2,-1,-1,0,2
1523135253404269,-1,-1,1,-3,1,-1,-1,-1
1523135253404269,-4,-4,1,0,-2,-1,0,-1
1523135253404269,3,4,0,-1,-1,-3,-4,-3
1523135253404269,-2,-5,-1,2,0,-1,-2,0
1523135253418364,0,2,-2,-3,1,-3,-2,-2
1523135253418364,-2,1,-2,0,0,-2,-3,-4
1523135253425375,-2,-3,-4,-3,-1,-2,2,0
1523135253425375,0,-6,0,1,-1,0,1,-3
1523135253440420,-5,0,-1,-4,0,-1,0,3
1523135253440420,-5,2,-2,-7,-3,0,-1,-1
1523135253449388,-1,-2,-1,0,-1,-1,1,-2
1523135253449388,-1,4,1,-1,-2,0,0,-3
1523135253463475,1,0,-2,-1,0,0,1,0
1523135253463475,5,3,0,0,-1,1,-6,-3
1523135253464431,2,-1,-5,0,-2,-3,0,2
1523135253464431,7,-1,-2,-2,0,0,0,0
1523135253478519,2,-2,2,1,0,0,1,0
1523135253478519,0,1,2,-2,-1,-3,0,-2
1523135253485546,-1,1,-5,1,-3,-1,-1,-1
1523135253485546,1,-2,-2,0,-1,-2,0,-1
1523135253500581,3,1,-2,1,-4,1,1,-1
1523135253500581,-1,-5,2,0,0,-2,-3,2
1523135253508599,-3,-1,2,-1,1,-3,1,-3
1523135253508599,-3,2,-2,-2,-1,-4,-2,1
1523135253523637,-2,-2,0,0,0,0,-2,-1
1523135253523637,0,1,-1,-3,-2,0,-2,1
1523135253524593,0,-4,0,0,2,0,-1,0
1523135253524593,-3,2,-1,0,-2,-2,-1,-4
1523135253538650,-1,-7,1,-2,-1,-2,-1,0
1523135253538650,-10,-2,-3,-1,-4,-3,4,0
1523135253545695,-1,0,2,0,-2,0,-4,-1
1523135253545695,0,-2,0,0,0,-2,2,1
1523135253560737,-5,-1,-3,-2,2,0,-4,-2
1523135253560737,0,-3,-1,1,0,1,1,-2
1523135253568762,-4,-4,-2,-3,1,1,-1,3
1523135253568762,-3,0,0,2,-1,2,-3,-2
1523135253583812,2,-1,2,0,-1,-3,-2,0
1523135253583812,1,-1,0,-1,1,-1,-2,-1
1523135253584752,-1,1,0,1,-1,1,-3,-3
1523135253584752,-1,2,1,-7,-5,0,-1,-6
1523135253598788,-1,0,-9,-2,1,-4,1,-2
1523135253598788,4,1,5,0,-2,-1,1,0
1523135253605853,-2,-3,-2,-2,1,0,2,-1
1523135253605853,0,-1,0,-1,0,2,0,3
1523135253620847,-2,1,-2,-2,-5,-3,-2,-3
1523135253620847,0,-2,-7,-1,-1,-1,-2,-2
1523135253628919,3,2,1,2,-1,0,-2,-1
1523135253628919,-6,1,1,3,2,-1,0,2
1523135253643957,3,0,3,-3,-5,-1,-4,-7
1523135253643957,6,1,-5,3,-1,0,-1,-1
1523135253644911,-2,-4,-1,0,-2,-2,0,0
1523135253644911,-4,-1,0,-2,2,0,-1,-2
1523135253657991,-4,2,0,5,-1,-2,-2,-1
1523135253657991,-4,-2,1,-1,0,1,0,-1
1523135253666013,-4,-1,-8,-1,-2,-2,-2,-1
1523135253666013,-1,-3,-1,-3,0,-1,-2,-2
1523135253681060,-1,0,0,-1,1,1,3,1
1523135253681060,-1,-2,-1,1,-1,-1,-3,0
1523135253689079,-4,2,-1,-2,-1,1,0,-1
1523135253689079,-1,-2,-3,-2,0,-3,-2,-1
1523135253703064,3,-5,4,2,0,-1,0,1
1523135253703064,-2,1,-5,-6,-2,-4,-2,-2
1523135253711137,0,0,1,0,-2,-1,1,-1
1523135253711137,0,-2,-3,0,-4,0,-2,0
1523135253718159,-3,0,-4,-2,0,-1,1,3
1523135253718159,-1,2,0,0,0,-2,-2,0
1523135253726124,0,-3,2,-4,-2,-3,1,0
1523135253726124,0,-2,0,-1,0,-3,-3,-4
1523135253741164,0,-1,-6,-4,-2,-2,2,3
1523135253741164,0,-3,-2,0,-1,0,1,1
1523135253749254,-2,-3,0,-1,0,-1,-1,-4
1523135253749254,1,-1,-1,-3,-2,-1,-1,-1
1523135253763271,0,0,-1,-2,2,0,2,4
1523135253763271,-2,0,-5,-2,-1,-2,-8,-6
1523135253771247,2,0,3,-2,-1,1,-1,0
1523135253771247,2,-2,-1,2,-1,-1,0,0
1523135253786400,-2,1,-2,-4,0,-1,-1,-3
1523135253786400,-2,-2,-2,-2,0,3,0,-1
1523135253787399,1,0,0,0,-3,0,-1,3
1523135253787399,-3,0,0,1,0,-2,0,-2
1523135253800486,1,-2,-1,3,0,-2,-1,1
1523135253800486,-2,-2,5,-1,2,-3,2,-4
1523135253809456,-1,1,0,2,0,2,9,14
1523135253809456,-1,-1,-2,0,-1,-3,-19,-24
1523135253823545,-1,0,0,-1,-2,-3,3,0
1523135253823545,-2,-2,0,1,-2,0,-1,0
1523135253831568,-1,-3,1,-3,0,-2,-3,-1
1523135253831568,-3,2,-2,0,1,0,3,8
1523135253854579,-1,0,0,1,-3,0,0,4
1523135253854579,0,0,-4,-1,-2,-3,-3,-7
1523135253855580,-1,-1,-3,-1,-1,-3,0,-3
1523135253855580,3,0,-2,-2,-1,-1,6,6
1523135253860644,-2,-5,-1,-1,-2,-2,-8,-8
1523135253860644,0,-1,-4,-3,-1,1,7,6
1523135253868668,-3,0,-3,-5,0,0,-7,-6
1523135253868668,1,-3,6,3,-1,-2,-1,1
1523135253883713,-1,-1,-9,-3,0,-1,1,-2
1523135253883713,1,-2,0,0,-2,-2,0,-1
1523135253891727,-1,-1,0,2,-1,-2,-2,-4
1523135253891727,-2,0,-4,-6,-2,2,-1,-3
1523135253906767,-3,-4,4,-1,-1,0,0,-3
1523135253906767,-1,-1,-3,-2,-2,-5,-2,2
1523135253906767,-1,0,4,1,-2,-1,-5,0
1523135253906767,-3,-3,-6,-2,-3,0,6,3
1523135253920804,-2,3,-4,-2,0,1,-2,-4
1523135253920804,-1,-1,3,1,-1,0,1,-1
1523135253928825,2,-4,-3,-1,0,0,0,-2
1523135253928825,0,0,0,-1,-1,0,-3,2
1523135253943814,-1,-2,2,0,1,0,-2,-3
1523135253943814,0,-1,-2,-1,-1,1,3,10
1523135253951890,0,1,-2,1,2,0,-5,-3
1523135253951890,0,2,2,-1,1,0,0,-2
1523135253966898,-3,2,-2,-4,0,-2,-2,-4
1523135253966898,1,-3,0,-3,-2,-2,-4,2
1523135253966898,1,-2,-2,0,0,-1,2,0
1523135253966898,-1,-6,-1,-3,-2,-2,2,0
1523135253980966,-4,-4,0,2,-2,0,-3,1
1523135253980966,-3,0,-1,0,1,-1,-1,-4
1523135253988985,-3,2,-2,0,-2,-2,-2,-1
1523135253988985,2,1,-4,0,0,-1,0,1
1523135254002972,2,-1,4,1,-2,-1,1,-2
1523135254002972,1,0,-10,0,0,-2,-1,-4
1523135254011043,0,0,-1,-3,1,-3,-2,0
1523135254011043,0,2,-1,-1,1,0,0,0
1523135254026035,-1,4,0,-2,-3,0,0,0
1523135254026035,2,-1,5,0,1,2,2,-4
1523135254027035,-2,1,-2,-5,-5,-2,-1,-2
1523135254027035,-1,-4,-1,-3,-3,-1,0,-2
1523135254041124,0,1,-3,-1,0,-1,-5,0
1523135254041124,-2,1,2,-2,-1,0,-2,-4
1523135254049148,-3,-3,-2,2,-1,0,0,-2
1523135254049148,-1,-1,2,1,-1,0,1,2
1523135254063185,-3,-2,-2,-1,-1,0,-1,-5
1523135254063185,-3,1,-1,0,-1,-3,-2,-2
1523135254071204,-4,-2,-2,0,-1,-3,-2,0
1523135254071204,-1,2,-2,1,0,-1,-4,0
1523135254086197,-2,-3,0,0,1,-1,-3,2
1523135254086197,-2,3,0,0,-2,-1,-1,1
1523135254087199,-1,-3,-1,-4,1,0,2,0
1523135254087199,-1,-3,0,-6,-1,-1,-2,-2
1523135254101232,-2,0,0,-2,-1,-3,-4,-2
1523135254101232,-1,-4,-5,-2,-1,-1,0,-2
1523135254109306,0,1,-1,-1,-3,-1,-2,-3
1523135254109306,-3,2,-3,2,1,2,2,0
1523135254123333,1,-3,1,-2,0,-1,2,0
1523135254123333,0,0,-2,-1,-2,-3,-2,-2
1523135254131356,2,0,-4,0,0,-1,-2,-2
1523135254131356,-3,-2,0,1,-3,-2,1,-2
1523135254146355,0,0,-2,-2,-1,-1,-3,1
1523135254146355,-2,-2,2,0,1,-1,-3,1
1523135254147362,-1,-2,0,1,-1,-2,-3,0
1523135254147362,1,-1,-1,-9,-2,-1,-1,-1
1523135254160441,1,-2,-1,3,3,0,0,1
1523135254160441,0,-6,-1,0,-2,0,1,-2
1523135254168464,-1,1,-2,-3,-2,-2,0,-1
1523135254168464,-2,-4,-1,0,-3,-1,-3,-1
1523135254183506,-1,1,-1,-1,-2,1,1,1
1523135254183506,0,0,-3,2,9,1,-2,-1
1523135254191526,-1,-1,-1,-9,-13,-2,1,-2
1523135254191526,-1,0,-1,1,1,1,2,0
1523135254206562,0,-1,2,4,0,1,2,0
1523135254206562,1,-3,2,0,-2,-2,-4,2
1523135254207516,-2,-2,2,3,5,3,2,-4
1523135254207516,0,-2,-2,1,-2,-2,-3,0
1523135254220553,0,0,-1,1,-2,-2,-2,-1
1523135254220553,-1,2,-3,-15,-2,-3,-1,-2
1523135254228620,0,-2,-1,7,2,0,1,-1
1523135254228620,0,1,1,1,-4,0,-4,1
1523135254243671,-1,-4,-3,1,-1,-1,-1,0
1523135254243671,-2,2,0,5,-3,2,0,1
1523135254251694,-2,2,-2,-7,-1,-3,-1,2
1523135254251694,0,-3,1,3,0,-1,1,-4
1523135254266734,1,-1,-3,-1,1,0,0,-3
1523135254266734,0,1,0,1,-2,2,-1,1
1523135254266734,-3,-1,-1,-1,2,-3,-2,-3
1523135254266734,0,0,-1,2,2,0,1,2
1523135254280761,-1,1,-2,-5,-5,-5,-2,-1
1523135254280761,-1,0,-1,-3,-5,-3,1,-4
1523135254288780,-2,-4,2,12,0,2,-1,-2
1523135254288780,-1,0,-3,-18,-4,-2,-1,-2
1523135254302769,2,0,0,0,-1,1,-1,-3
1523135254302769,0,-1,-5,11,-1,0,4,1
1523135254311844,-4,1,-2,3,1,0,-2,-2
1523135254311844,-1,-5,-2,-5,0,3,0,-1
1523135254325994,0,0,-3,5,0,-2,1,0
1523135254325994,1,-1,2,8,0,0,-3,-4
1523135254326952,0,-1,-6,-38,-4,0,-2,0
1523135254326952,-1,-1,2,5,-1,-2,-1,-3
1523135254341033,-4,0,-1,-1,1,-1,-2,-1
1523135254341033,-6,0,1,11,3,-2,1,-1
1523135254349057,3,-1,-1,-11,-2,-1,-1,0
1523135254349057,0,-3,-2,3,-2,-5,-4,0
1523135254363100,1,0,-4,-13,-11,-3,-1,0
1523135254363100,-1,-4,0,1,0,0,-1,-3
1523135254371197,1,-1,2,5,2,1,2,0
1523135254371197,-3,-3,-5,7,-1,-3,-3,-1
1523135254386192,-1,0,0,-5,-4,-4,-2,0
1523135254386192,-2,-3,-2,-10,-1,1,0,-1
1523135254387187,2,2,0,11,3,0,-2,-1
1523135254387187,4,1,0,-2,1,-2,-1,-2
1523135254401225,-3,0,-1,6,2,0,-1,0
1523135254401225,1,-2,4,-5,-4,-2,-2,-4
1523135254409294,-5,-5,-8,-2,-1,-3,-1,-1
1523135254409294,1,1,-1,0,2,0,5,-3
1523135254423332,-2,-2,1,8,0,-1,-3,1
1523135254423332,-2,2,6,3,2,-3,-2,0
1523135254432348,-4,0,-3,-3,-4,-3,1,-1
1523135254432348,-4,0,-5,-6,-2,1,0,-1
1523135254445391,-2,-2,1,-3,3,1,0,-4
1523135254445391,1,-2,-4,5,-4,0,0,-1
1523135254454379,2,-2,-1,7,0,-1,0,1
1523135254454379,-3,1,1,1,0,-2,-2,-1
1523135254460429,-4,2,0,-10,1,-2,0,-3
1523135254460429,0,-2,-3,4,0,1,1,-2
1523135254469404,0,-2,3,5,-1,-1,-2,-2
1523135254469404,0,-1,-5,-1,-4,-7,-2,0
1523135254483498,0,-1,0,4,-1,3,-2,-2
1523135254483498,-3,1,-1,-11,0,-2,-1,1
1523135254492465,-1,-1,2,8,-3,0,1,-3
1523135254492465,-2,-3,-1,-7,-3,0,-2,-1
1523135254505551,0,-2,-2,1,3,-5,1,-1
1523135254505551,-3,-1,-1,-11,-7,2,0,1
1523135254514531,1,-1,2,0,0,0,1,-2
1523135254514531,-2,-1,1,3,2,-2,-1,-3
1523135254520544,-2,0,1,-2,-1,-3,-2,-1
1523135254520544,0,0,1,11,4,0,-3,2
1523135254529565,-1,-4,-5,-25,-7,-3,-3,-2
1523135254529565,1,1,2,10,-2,2,-2,0
1523135254543627,0,-5,-2,6,-1,0,0,-1
1523135254543627,0,-2,-3,-11,-2,0,-1,0
1523135254552626,0,3,1,3,3,-1,-3,-1
1523135254552626,-2,-4,-4,6,-4,-2,0,-2
1523135254565714,0,0,-2,-2,0,2,0,-1
1523135254565714,0,-1,-3,1,-2,-3,-1,-2
1523135254574687,-1,-2,-2,3,-1,-1,0,2
1523135254574687,2,1,3,-1,5,-2,0,1
1523135254580756,2,-4,-3,-5,-6,-2,0,-2
1523135254580756,0,0,-1,-8,5,-1,0,-1
1523135254589728,0,-1,-2,4,-4,2,-2,1
1523135254589728,-3,3,-2,-1,1,-3,-2,1
1523135254602759,-1,0,0,-15,1,-2,0,0
1523135254602759,0,-1,-1,3,-6,-3,-1,-1
1523135254611833,1,-1,1,2,-1,1,-3,-2
1523135254611833,-3,-2,3,6,-1,2,2,-1
1523135254625871,-1,0,-5,-4,2,-1,1,3
1523135254625871,-3,0,4,-2,-2,-3,1,1
1523135254634850,-1,-3,-1,-5,-2,-1,1,0
1523135254634850,1,-1,-2,3,-2,-1,-3,-1
1523135254640909,0,-3,3,13,2,1,1,-1
1523135254640909,-3,0,-1,-4,1,1,0,-2
1523135254649887,-5,0,-1,1,3,-3,-1,-1
1523135254649887,3,-1,-5,-18,-8,1,1,-2
1523135254663040,-1,0,-2,-3,-1,-1,-1,-2
1523135254663040,-1,-5,-2,-1,-1,-1,-3,0
1523135254671946,-2,0,2,-1,3,-1,2,-2
1523135254671946,-2,-1,-1,2,2,-1,2,2
1523135254685984,0,-1,5,6,1,1,0,-3
1523135254685984,-2,-4,-9,-25,-28,-10,-4,1
1523135254695004,-2,0,0,10,5,0,-1,-1
1523135254695004,-1,0,3,-4,0,-3,-2,-3
1523135254710044,-3,-4,-10,-21,-5,1,0,-3
1523135254710044,-2,-1,1,2,8,0,-2,0
1523135254711050,0,0,-1,11,-6,2,2,0
1523135254711050,-2,-1,-1,8,-1,-2,-4,0
1523135254723127,1,-1,1,7,5,-2,-3,-3
1523135254723127,-1,-1,-3,5,1,1,1,-4
1523135254732105,-1,-3,-1,-10,-2,-3,-3,-5
1523135254732105,1,0,0,2,7,5,2,1
1523135254746140,-2,0,-3,-18,-11,0,2,-2
1523135254746140,-2,-1,0,1,5,-1,-1,0
1523135254761180,0,0,-4,-6,0,-2,0,-2
1523135254761180,-2,-3,3,2,-5,-2,-3,-4
1523135254769219,-4,-4,1,-8,6,-2,-4,-1
1523135254769219,1,0,-2,8,-2,2,1,-2
1523135254771208,-3,-1,1,-14,-6,-3,-2,-2
1523135254771208,-2,-3,1,-3,3,-1,-2,0
1523135254783295,-2,-1,-3,11,-8,-6,-3,0
1523135254783295,2,-2,-1,-1,5,0,0,-1
1523135254792265,-2,-1,-2,9,2,0,0,0
1523135254792265,0,-3,-3,-25,-6,-3,1,-1
1523135254805346,-2,-2,-1,11,-1,1,-2,-2
1523135254805346,1,-1,1,2,0,-1,-4,-2
1523135254814361,-1,2,-3,-3,-3,-3,-1,0
1523135254814361,0,1,1,-5,6,1,-1,0
1523135254829414,2,0,2,6,-5,4,1,0
1523135254829414,0,1,0,-17,2,-2,0,-3
1523135254831368,-3,-3,-3,7,1,-1,-3,-1
1523135254831368,-1,0,0,0,0,-1,-3,1
1523135254843447,2,0,-3,4,0,-1,-1,-2
1523135254843447,-1,0,0,3,-2,2,-1,1
1523135254852424,3,-2,-1,-3,-3,0,1,0
1523135254852424,-3,-2,0,4,0,1,-4,2
1523135254865511,-2,-2,-3,-15,-1,-4,-3,-1
1523135254865511,-1,-3,1,3,-3,-3,1,2
1523135254874482,-4,-3,0,-6,-2,-1,-2,-3
1523135254874482,-2,-1,-1,4,-5,-3,0,-4
1523135254889570,-1,-1,-2,3,1,0,0,1
1523135254889570,-4,-2,0,-2,2,-1,-1,-2
1523135254891529,2,0,-1,-3,3,-1,0,4
1523135254891529,1,1,-1,-2,-2,-1,-2,-2
1523135254903559,-3,2,2,0,0,1,1,-2
1523135254903559,-1,-1,-9,-1,0,-2,-2,-1
1523135254912584,-2,2,-1,1,-1,3,0,-1
1523135254912584,-3,1,-8,-11,-2,-1,-2,-3
1523135254925666,-3,0,4,1,1,-1,0,-2
1523135254925666,1,-3,1,3,0,0,-2,-2
1523135254934643,2,-1,0,-4,-3,-1,-1,1
1523135254934643,-3,-1,-1,6,-2,1,-1,-2
1523135254949735,0,-1,-1,-5,-1,2,-1,1
1523135254949735,1,-1,-4,-12,-4,0,-1,-2
1523135254951688,-1,-3,2,11,2,0,-2,2
1523135254951688,0,-1,0,-5,1,-3,-1,-2
1523135254963722,-1,-1,-1,8,-2,-3,-1,-3
1523135254963722,-1,1,-2,-4,-3,-2,-1,1
1523135254971792,2,0,-3,-3,-1,-5,-2,0
1523135254971792,0,0,-2,-7,0,1,3,4
1523135254985781,-1,-2,2,3,3,1,0,-2
1523135254985781,-2,0,-2,-1,-8,-4,-1,0
1523135254994803,-1,1,1,3,0,-2,-3,-4
1523135254994803,-2,-3,-1,0,0,-1,2,0
1523135255009894,2,1,-3,-2,-1,-1,-1,-1
1523135255009894,0,-3,2,1,1,1,0,-1
1523135255010847,-2,-1,0,-3,-2,-1,0,0
1523135255010847,2,-3,2,2,0,-1,-1,-3
1523135255022927,-3,-2,-6,-7,-3,0,-1,0
1523135255022927,1,-2,-2,12,0,-1,-1,-1
1523135255039925,0,-1,-2,-17,-2,-4,-2,-5
1523135255039925,-1,-2,0,4,-2,0,1,2
1523135255045999,0,-2,0,-1,-2,0,0,-1
1523135255045999,-2,-2,1,1,2,-1,0,-2
1523135255054966,-3,-2,-2,2,-1,2,-1,3
1523135255054966,-1,-3,-3,-6,0,-3,0,-4
1523135255070002,1,0,-1,-3,-3,-3,-2,0
1523135255070002,-1,1,-3,-1,-1,-2,-2,-1
1523135255071007,0,-2,-3,-2,0,0,-2,-4
1523135255071007,-3,-3,-2,0,-2,-1,0,1
1523135255083089,-4,1,-2,1,-1,-2,-2,-2
1523135255083089,-1,-1,1,0,1,0,-1,-2
1523135255092061,-1,-1,-1,-1,-6,-3,0,1
1523135255092061,1,0,-2,0,-2,2,-3,0
1523135255106099,-1,-2,1,1,1,-1,-1,-3
1523135255106099,-2,-1,-3,0,-2,1,0,-4
1523135255115121,-2,-2,-2,-1,1,-2,0,0
1523135255115121,-2,-1,0,-1,0,0,-2,0
1523135255129210,-2,-1,1,0,-3,-4,-3,-2
1523135255129210,-2,0,1,-2,-1,-1,1,2
1523135255131168,1,1,0,3,0,1,0,-2
1523135255131168,0,-2,-2,-3,-1,1,-2,-4
1523135255143248,0,-2,-4,-3,-3,-2,-2,-2
1523135255143248,1,0,-2,-5,-2,-3,-1,1
1523135255160242,-4,1,0,-2,-1,0,-3,0
1523135255160242,0,1,-1,0,-2,-1,-3,0
1523135255165312,-1,-4,-1,-3,0,1,1,0
1523135255165312,1,0,-1,1,-2,-1,-1,1
1523135255174334,-3,-2,-1,0,-3,0,0,0
1523135255174334,-2,-1,-1,0,-2,-6,-4,-2
1523135255189370,-1,-2,-2,-3,0,-2,0,-2
1523135255189370,0,0,-2,-3,3,6,0,-2
1523135255191327,1,-2,-1,0,-1,-1,-1,-2
1523135255191327,-2,1,0,-1,-1,-2,-3,-1
1523135255203360,0,0,2,-2,-2,-4,0,0
1523135255203360,0,-3,0,-3,-4,-4,-1,-6
1523135255212384,0,1,-1,-1,-1,0,-1,-2
1523135255212384,1,0,0,3,-1,-2,1,-2
1523135255225414,-1,1,-2,-1,0,0,0,0
1523135255225414,-2,-1,-3,-1,0,-2,-2,0
1523135255234443,1,0,0,-3,-2,0,-1,-2
1523135255234443,-1,1,2,-1,-2,-2,0,-1
1523135255249535,1,3,0,0,0,1,2,1
1523135255249535,-4,-1,-1,0,-2,-1,0,-3
1523135255251485,4,-5,-2,2,-1,0,-1,-1
1523135255251485,-3,0,-3,-1,-1,0,1,-2
1523135255263568,-3,-2,2,-1,-3,0,-1,0
1523135255263568,-1,3,1,-1,0,0,-1,0
1523135255272542,1,-1,0,1,1,1,0,-2
1523135255272542,1,-4,-2,-3,-2,-3,0,-3
1523135255285578,-1,-2,-2,-1,-1,0,-2,-1
1523135255285578,2,-2,-2,-5,-3,-2,-2,1
1523135255294601,-3,-1,0,0,-2,-1,0,1
1523135255294601,-1,1,-2,0,-1,1,-2,-1
1523135255316711,-1,-2,-4,1,-2,-2,-2,-4
1523135255316711,-3,-1,-1,-3,-2,-2,-2,-2
1523135255318664,1,-2,-1,-1,-1,-1,2,-1
1523135255318664,-3,-3,0,0,1,1,1,3
1523135255323676,1,0,-3,1,-2,0,-1,1
1523135255323676,-2,1,0,0,-1,-3,-2,-2
1523135255332703,-2,-1,1,-3,-3,-1,-1,0
1523135255332703,-2,-1,-2,0,-6,-2,-2,1
1523135255345786,0,0,0,-3,0,1,-2,-1
1523135255345786,-1,-2,-2,2,1,0,3,-1
1523135255354763,-4,-1,-2,1,-2,-6,-2,0
1523135255354763,-4,-3,-2,-2,-1,1,-1,-3
1523135255369802,-2,0,1,-2,-1,-2,1,-1
1523135255369802,1,-3,0,-2,0,1,-1,0
1523135255370802,-3,-2,-1,0,-1,-1,-1,-1
1523135255370802,1,0,1,-4,-1,-4,0,0
1523135255382890,-1,-3,-1,-2,0,0,0,2
1523135255382890,-2,-1,-2,-2,-3,-1,-1,0
1523135255391858,-1,-2,-2,1,1,2,0,2
1523135255391858,0,1,1,0,-2,-4,0,-4
1523135255405946,0,1,0,1,-1,-1,-1,-2
1523135255405946,-3,-2,-2,-2,-1,-2,0,-4
1523135255414923,1,-1,-1,-4,-2,-1,-1,0
1523135255414923,-2,-4,-1,-2,-1,3,-2,-4
1523135255437028,1,-2,1,-1,0,0,0,-2
1523135255437028,1,-1,0,-1,0,-2,2,1
1523135255438984,-2,4,-2,-1,0,-1,-1,-3
1523135255438984,1,-1,-3,-1,3,0,-3,1
1523135255443043,-2,-1,-1,0,-2,1,-4,1
1523135255443043,-1,-3,-3,0,-1,0,0,-1
1523135255452018,-1,-3,-1,0,-2,-4,-2,-3
1523135255452018,-3,2,-3,0,0,-1,3,2
1523135255466110,-1,-1,0,-3,-1,-2,-1,0
1523135255466110,-3,-1,0,-2,1,-2,-4,1
1523135255475082,0,0,0,1,-4,0,0,-3
1523135255475082,-2,-3,0,-1,-3,0,-1,0
1523135255489169,-1,-3,-1,-1,-2,-4,-1,-2
1523135255489169,0,-1,-3,0,0,-2,0,0
1523135255491127,-3,-1,1,-2,2,0,2,0
1523135255491127,0,-1,0,3,-1,-1,-1,2
1523135255503203,0,0,-1,-2,-2,-1,0,-1
1523135255503203,-2,-1,-2,-2,-3,0,-3,-4
1523135255512180,0,1,-3,-1,1,0,-3,-1
1523135255512180,-3,1,-2,-3,-1,0,0,1
1523135255526215,-2,1,-1,0,-3,-3,-1,-3
1523135255526215,-1,-2,2,0,-2,0,-2,1
1523135255534241,-4,-1,-2,-1,2,-2,0,-1
1523135255534241,1,1,-2,-1,-1,-2,0,-1
1523135255549333,-2,-2,-4,-3,-1,1,-2,-3
1523135255549333,0,-3,-1,1,-2,-3,1,-2
1523135255551292,-1,0,2,-1,-1,2,-1,1
1523135255551292,2,2,-4,0,-3,-2,-2,-1
1523135255563372,-1,-4,0,-1,1,-2,-2,0
1523135255563372,-1,-2,0,-1,-4,1,-3,-1
1523135255572338,0,-5,-1,-1,-1,0,0,-1
1523135255572338,-1,-1,-2,-4,-1,-2,-2,-2
1523135255585375,2,1,-1,-1,1,0,2,2
1523135255585375,-2,0,-1,1,2,1,1,0
1523135255594396,1,0,-1,-2,-3,-2,-1,0
1523135255594396,0,-2,0,-1,0,0,-3,-2
1523135255609439,-1,1,-1,1,1,0,-1,-2
1523135255609439,1,-1,-2,1,-4,-2,-1,0
1523135255615506,-1,-1,-2,-3,-2,-2,0,-3
1523135255615506,0,-4,1,-1,-4,1,-3,-2
1523135255632497,-1,-2,-1,0,0,-1,1,-2
1523135255632497,0,0,-2,1,1,1,0,2
1523135255633501,-3,2,1,1,-1,-2,-4,-1
1523135255633501,3,0,-1,-2,-2,-2,-1,-2
1523135255645581,0,0,-2,-1,-1,0,-2,-2
1523135255645581,-3,-3,-1,-2,0,0,0,-2
1523135255654559,0,-1,-8,-4,2,-2,-2,2
1523135255654559,-1,-1,3,0,2,0,0,-3
1523135255668598,0,-1,-1,2,1,-2,-4,-1
1523135255668598,0,0,-1,-7,-1,-1,0,-1
1523135255675661,0,-2,2,0,0,-3,-2,-2
1523135255675661,0,-2,0,2,-1,0,0,-3
1523135255691657,-4,0,0,-5,-2,1,1,1
1523135255691657,1,1,-1,1,0,-1,0,-2
1523135255693663,1,-1,-1,-1,-2,-2,-2,-1
1523135255693663,-1,0,0,-4,1,-1,-1,1
1523135255705891,-1,-3,-1,1,0,0,0,-2
1523135255705891,-2,-2,-2,-2,0,-2,-1,0
1523135255714864,-1,0,-1,-5,-2,-1,2,-1
1523135255714864,0,0,0,2,1,-2,-2,0
1523135255728948,0,-1,1,-2,-3,0,0,1
1523135255728948,-1,-1,-1,0,-3,-1,-1,-2
1523135255735920,-2,-4,-1,-1,-1,-1,-2,-1
1523135255735920,-2,-2,-2,0,-1,-1,1,-2
1523135255751963,0,0,-1,-3,0,-1,-1,1
1523135255751963,2,1,0,1,-2,-3,-2,1
1523135255753969,-1,-2,1,2,-2,0,-1,-1
1523135255753969,-3,-5,0,0,0,-1,-1,-1
1523135255766055,0,-1,0,-1,0,2,-2,-2
1523135255766055,-4,0,-1,-3,-2,-3,1,2
1523135255775023,-2,-1,-5,-2,0,1,1,-1
1523135255775023,-3,-1,-3,-3,-2,-2,-4,-1
1523135255789110,0,0,-1,-1,0,-2,-1,0
1523135255789110,0,-1,-3,-1,-2,-2,-1,-3
1523135255796134,-5,1,-3,0,0,1,-1,-3
1523135255796134,-2,0,3,6,-3,-1,0,-1
1523135255812176,-1,-2,-2,-3,-1,-1,0,-2
1523135255812176,-1,-1,-1,0,2,2,-1,-2
1523135255814129,-1,0,2,-3,1,-2,-2,-2
1523135255814129,2,-2,-3,-5,-2,-1,-1,1
1523135255826161,-3,-1,-1,-3,0,-1,0,-1
1523135255826161,0,-2,2,0,-2,0,-3,-4
1523135255835185,0,-1,-2,-1,0,1,0,-1
1523135255835185,0,1,-2,-2,-2,-3,-1,-1
1523135255849275,-1,1,-1,1,-2,-3,-1,-1
1523135255849275,0,-3,-3,-3,0,-3,-5,-3
1523135255856238,-1,-3,2,0,-2,1,-1,-1
1523135255856238,1,-1,-2,0,-3,4,2,-2
1523135255872334,0,-1,-2,-2,-1,0,-2,-2
1523135255872334,-3,1,-1,-2,-2,0,0,1
1523135255874288,0,0,-3,-2,-2,-2,-4,-2
1523135255874288,-3,0,0,-2,-3,-3,-1,0
1523135255885316,0,-1,-1,0,0,-1,0,-2
1523135255885316,-1,-2,1,-2,-1,0,-1,1
1523135255894385,3,0,-1,0,0,-2,1,0
1523135255894385,-2,-1,0,-3,0,0,0,-1
1523135255909414,-3,-3,-2,2,-2,-3,0,-2
1523135255909414,-1,1,0,-3,0,-2,-2,-1
1523135255915449,-2,-1,1,-1,-4,-2,-2,-3
1523135255915449,-2,-2,-2,-1,0,-1,-1,0
1523135255932511,0,1,-1,-2,-1,-2,-2,0
1523135255932511,-1,-2,0,0,0,-2,-2,-1
1523135255933446,1,0,-5,0,-1,-2,-1,-1
1523135255933446,-3,1,0,1,0,1,-1,-1
1523135255945526,-2,-1,-1,-1,-2,-1,-3,-3
1523135255945526,-2,-3,-3,0,-1,0,1,0
1523135255954499,2,1,0,0,0,0,0,0
1523135255954499,0,3,-3,-1,1,-2,-2,-2
1523135255968536,-2,-1,-4,-2,-1,-2,0,1
1523135255968536,-1,-2,-4,2,0,1,2,-2
1523135255975604,-4,-8,-31,-8,-1,-2,-2,-1
1523135255975604,-2,1,4,4,-1,0,-2,-1
1523135255992601,-1,-3,-4,0,-4,-4,-2,-1
1523135255992601,0,1,-1,-6,0,0,-1,-1
1523135255993604,-5,-3,-1,3,1,0,0,1
1523135255993604,0,-8,-2,-2,3,-1,0,-1
1523135256005687,-1,2,-2,-2,0,-3,-1,0
1523135256005687,2,3,0,0,-3,-2,-4,-4
1523135256014660,-2,2,6,-1,-3,-1,-2,-1
1523135256014660,1,-2,-3,-3,1,0,-1,2
1523135256028752,0,-2,6,1,-2,0,-1,-2
1523135256028752,-2,-2,-2,0,1,1,0,0
1523135256035718,0,2,6,-1,-2,0,-1,-3
1523135256035718,0,0,-2,-3,-3,-2,-1,-3
1523135256051759,2,1,-3,0,2,0,1,-1
1523135256051759,-2,0,3,-2,-1,-2,-2,3
1523135256053764,-1,-3,5,0,0,-1,0,1
1523135256053764,-1,-4,-1,-4,-1,-2,0,-1
1523135256065851,-2,-1,2,-1,-1,0,0,0
1523135256065851,-1,-1,0,0,-2,-2,-1,-2
1523135256074822,-1,0,5,0,-1,0,-3,1
1523135256074822,1,-1,-2,-1,-3,-3,-1,3
1523135256088905,-2,-3,-2,0,2,0,-3,-2
1523135256088905,-3,-3,-1,0,-2,-1,0,0
1523135256095930,1,-2,-2,-2,-3,0,0,-5
1523135256095930,-2,-2,1,-2,1,-3,0,-2
1523135256112015,-1,1,-1,-2,0,2,0,0
1523135256112015,2,0,-1,0,-1,-4,1,-1
1523135256113925,0,0,3,-2,-2,0,-2,1
1523135256113925,-3,1,0,0,-1,0,0,-3
1523135256126009,-1,-3,4,-2,0,1,-1,-1
1523135256126009,-2,-2,0,-2,-2,2,-1,-2
1523135256134983,1,-3,1,0,2,-1,0,-2
1523135256134983,-2,-1,-6,-8,-3,0,-3,-1
1523135256149072,-1,1,-1,0,-4,0,-2,1
1523135256149072,-1,-3,-2,-1,0,0,-3,1
1523135256156084,1,3,-1,-2,0,-2,2,-2
1523135256156084,-1,0,-1,2,2,2,2,0
1523135256172126,2,-2,1,-1,-2,-1,-1,-2
1523135256172126,-1,1,-3,-2,-2,-3,-1,-3
1523135256174088,0,0,0,-1,-2,-3,-3,-1
1523135256174088,0,0,-1,-2,-1,-2,0,-2
1523135256186163,2,-3,-3,0,1,-6,0,-1
1523135256186163,-1,2,-1,2,0,0,-3,-3
1523135256195142,-1,-3,-1,0,-1,0,-1,2
1523135256195142,0,2,-1,-1,0,1,-1,-1
1523135256209178,-3,-1,-2,0,2,2,-1,-1
1523135256209178,-1,-3,0,-2,-1,-1,-1,-2
1523135256216228,-3,1,0,0,0,-2,-1,1
1523135256216228,2,-4,-3,1,-1,-1,0,-2
1523135256232291,-1,1,3,0,-1,-1,0,-2
1523135256232291,1,-1,-3,-5,-1,-1,0,-1
1523135256233246,-2,0,-2,-1,-1,0,-1,0
1523135256233246,-1,-5,0,-4,-1,-2,-3,-1
1523135256246276,-3,-1,0,-2,0,0,-1,-2
1523135256246276,0,-2,-5,0,-2,-3,-1,-2
1523135256254423,-1,-1,-1,-3,0,-2,-1,-2
1523135256254423,0,4,1,-4,-1,4,-1,0
1523135256268465,-1,-2,-3,1,0,-1,-2,-1
1523135256268465,-3,0,-5,1,1,-1,-1,0
1523135256275529,-2,-2,0,0,0,-2,-1,-2
1523135256275529,-1,-1,0,2,1,-1,-1,-1
1523135256292525,2,2,-3,-2,-3,1,1,0
1523135256292525,0,-1,0,0,0,0,-2,0
1523135256293531,-2,-2,-1,-1,0,-2,-2,-1
1523135256293531,0,-1,2,0,-2,1,0,-1
1523135256305613,2,0,0,-3,0,-2,-3,1
1523135256305613,-3,0,-1,-1,-2,0,-2,-2
1523135256314586,1,0,-1,-1,-1,-2,-2,-4
1523135256314586,-3,0,0,-2,-2,-3,-1,-1
1523135256328678,-1,-2,-2,-3,-2,-1,-1,0
1523135256328678,-3,2,2,-3,0,-1,-1,-1
1523135256335644,-2,-1,-1,0,-2,1,-1,3
1523135256335644,-3,1,1,0,-2,-3,-2,-1
1523135256351686,-6,0,0,2,-1,1,-1,-4
1523135256351686,1,1,1,-1,3,0,2,-3
1523135256358702,-2,-2,-1,0,0,0,-1,0
1523135256358702,1,-3,-1,1,-1,2,1,-2
1523135256365775,-1,3,-1,-3,0,-1,-1,0
1523135256365775,1,-2,1,-2,0,2,-2,-3
1523135256374746,1,2,-1,-2,-1,-1,-1,-2
1523135256374746,1,-4,-6,1,0,-2,-2,1
1523135256388832,-2,-3,-2,1,-2,-1,-2,-3
1523135256388832,1,-6,0,0,-1,-1,0,-1
1523135256395853,-1,0,-3,-4,-2,-1,-1,-2
1523135256395853,-3,-1,-2,1,-1,-2,-2,0
1523135256411898,0,-1,-3,-1,-2,-1,1,2
1523135256411898,-2,-3,-3,-4,-1,-2,-3,-1
1523135256413850,-2,-2,0,0,-3,0,-2,-4
1523135256413850,0,2,-1,-2,1,-1,0,0
1523135256425934,1,0,1,0,1,-2,0,-2
1523135256425934,1,1,-1,-1,-1,-1,0,0
1523135256434906,2,2,-1,0,-2,2,-2,1
1523135256434906,-2,0,-1,-1,-2,0,-2,1
1523135256448999,0,-2,0,-3,-1,-2,0,2
1523135256448999,-3,0,1,1,-2,-2,-1,0
1523135256456014,-2,-4,-1,-2,2,0,3,-3
1523135256456014,-3,-3,-1,-1,-3,0,-2,1
1523135256472056,-1,-4,-4,-1,-1,-2,-3,-1
1523135256472056,0,-4,2,0,-1,0,0,-2
1523135256474009,-1,-3,-1,0,-2,-1,0,0
1523135256474009,1,-2,0,0,1,1,0,-2
1523135256486094,-3,-3,-1,-2,-1,-4,-1,-3
1523135256486094,3,2,-2,0,-5,-3,-2,-1
1523135256495065,-2,-1,0,0,-3,-2,-2,-2
1523135256495065,-2,-2,0,0,0,-1,2,-1
1523135256509152,1,-1,0,2,0,1,0,-1
1523135256509152,-4,-1,-1,-3,0,-2,-3,-1
1523135256516160,-4,-1,3,-1,-2,-2,0,2
1523135256516160,1,1,-3,-1,-2,-3,-2,1
1523135256531215,0,-1,-1,-2,3,0,0,1
1523135256531215,0,2,-3,-1,-2,-1,-1,0
1523135256538227,-1,-2,-3,-3,1,1,0,0
1523135256538227,-1,0,-1,-1,-3,0,-2,-3
1523135256546199,-1,-1,1,-1,0,-2,-2,-2
1523135256546199,0,-2,0,1,1,-1,0,1
1523135256554275,0,-1,-2,-3,-1,1,-2,-1
1523135256554275,0,0,-1,-2,0,0,-1,-4
1523135256569306,0,-1,-3,-2,-4,-2,-2,-3
1523135256569306,-2,-1,-1,1,-2,-1,-3,0
1523135256575326,-1,2,0,0,0,-2,-2,0
1523135256575326,-1,-3,0,2,0,-1,-2,0
1523135256591371,-1,-1,-2,-2,0,0,0,0
1523135256591371,-2,-2,-1,0,-2,0,-1,1
1523135256598396,2,1,0,0,3,0,2,0
1523135256598396,0,-2,-2,-4,-1,-4,-2,0
1523135256614438,-3,-1,-2,-2,-2,0,0,-2
1523135256614438,0,0,0,0,-1,-2,-2,0
1523135256616387,-3,-1,0,1,-2,-2,-2,-3
1523135256616387,1,-2,-2,-1,0,0,-2,0
1523135256629476,0,-2,1,0,-3,0,1,0
1523135256629476,-3,-2,-1,-1,1,3,1,0
1523135256635440,2,2,-1,-3,-5,-2,-2,-3
1523135256635440,-1,-2,0,1,1,-5,-1,0
1523135256651487,-1,0,0,2,-1,-2,-2,-1
1523135256651487,-2,-4,-5,-11,-2,-2,0,0
1523135256658499,-1,-1,0,0,-1,-2,0,0
1523135256658499,1,0,-1,-2,-1,0,-1,0
1523135256674541,-5,-1,-2,-2,-2,-1,-2,0
1523135256674541,1,3,0,4,-2,1,-1,-5
1523135256676548,-1,-4,-2,-1,-1,-2,-2,0
1523135256676548,-1,1,-2,-3,-2,0,1,-1
1523135256688632,1,0,2,0,-2,1,-2,-1
1523135256688632,-1,-1,-1,-1,-3,-1,-2,0
1523135256695653,-3,-3,-1,-2,2,2,-1,1
1523135256695653,0,0,3,1,0,1,0,0
1523135256711692,-1,0,0,-1,-5,-2,1,0
1523135256711692,1,2,1,0,-1,0,0,0
1523135256718658,-3,0,0,-1,0,0,-1,-1
1523135256718658,0,-1,-3,-1,-3,-1,2,-1
1523135256734704,-1,1,-1,-2,0,-1,-2,0
1523135256734704,-1,-2,-1,-3,-2,-1,-1,-3
1523135256736711,-2,0,0,1,-2,0,0,0
1523135256736711,-3,-2,-3,-1,-1,0,1,-1
1523135256748794,1,-1,0,0,-2,-3,1,1
1523135256748794,-2,0,-1,-6,-2,-1,0,1
1523135256755806,0,-1,-2,1,-1,-2,0,-2
1523135256755806,-3,-2,1,-4,-3,0,0,1
1523135256771828,0,-2,-3,-1,1,1,0,-2
1523135256771828,-1,-1,1,-1,2,-1,0,0
1523135256777868,1,0,-3,-1,-1,-1,-2,-3
1523135256777868,0,2,-1,-2,-1,-3,-1,0
1523135256794919,0,-3,-1,1,1,0,2,-1
1523135256794919,-1,-1,-2,1,0,-1,0,-1
1523135256795871,2,-1,1,-2,-3,-3,-1,0
1523135256795871,0,0,-1,1,-1,-1,-2,-3
1523135256808948,0,0,0,-5,-1,-1,-1,-2
1523135256808948,-4,-1,-1,-1,-1,-1,-1,0
1523135256815971,2,1,-1,0,-1,-3,0,-2
1523135256815971,0,-2,-1,1,-2,-4,-3,-1
1523135256831015,-2,2,-1,-1,-1,-1,-2,-1
1523135256831015,-1,-2,-3,0,1,1,-2,3
1523135256838025,-1,0,-1,-1,-1,0,0,-1
1523135256838025,-2,-1,-2,0,-3,1,-2,-2
1523135256855075,-1,-4,0,-3,-2,1,-1,0
1523135256855075,0,1,1,1,0,-3,0,-1
1523135256857027,0,0,-1,-2,-1,-2,0,-3
1523135256857027,-1,3,0,-2,1,-2,-2,-2
1523135256869064,0,-1,0,1,-3,-3,-1,1
1523135256869064,0,-4,-1,0,-1,-1,-1,-7
1523135256876125,0,0,0,1,2,-1,0,0
1523135256876125,0,-1,0,0,0,-2,0,2
1523135256891233,-2,2,-4,-3,1,-3,-1,-1
1523135256891233,0,2,0,-2,0,-2,-2,0
1523135256898137,0,-4,0,-1,-3,2,0,-1
1523135256898137,2,-1,-2,0,-2,-3,-4,1
1523135256915183,2,1,0,0,0,2,-1,2
1523135256915183,0,-3,-2,-1,0,-1,0,0
1523135256916187,-3,1,0,-2,-1,0,-2,1
1523135256916187,-1,-1,-2,1,-1,-1,-1,0
1523135256929218,1,-2,-2,-3,-4,-3,0,-2
1523135256929218,0,-3,0,-2,-1,-3,2,0
1523135256936237,-1,1,-1,1,-1,-1,-1,0
1523135256936237,-2,-3,0,0,0,1,0,-2
1523135256951278,-3,-3,-1,2,-1,-3,-5,-1
1523135256951278,0,-1,-2,-1,-3,-1,0,1
1523135256958407,0,-4,0,1,-3,-1,-3,-4
1523135256958407,-1,3,0,-3,-2,-1,-2,-2
1523135256974457,0,-2,-2,0,2,0,-1,-2
1523135256974457,2,1,-2,1,-2,-1,0,0
1523135256976344,-3,0,-1,-3,-1,-3,-3,-1
1523135256976344,-1,-1,0,-2,1,0,-1,-3
1523135256989378,0,-2,-1,-3,0,0,-1,-3
1523135256989378,-3,-1,-2,2,-2,-2,-2,0
1523135256995396,2,-1,-2,-2,2,-2,-3,1
1523135256995396,1,1,1,1,0,0,0,-2
1523135257011559,-1,2,-3,-4,-3,-1,-2,-4
1523135257011559,-1,-1,0,-2,1,3,-1,-1
1523135257018568,2,-2,-1,-1,-1,-2,0,1
1523135257018568,-3,-3,1,0,-1,1,-1,-1
1523135257034500,0,-2,-1,-3,-1,0,-1,0
1523135257034500,-1,2,-2,0,0,-1,-3,-1
1523135257036506,-3,-2,-1,1,1,0,0,-1
1523135257036506,2,-2,1,-3,-1,-1,1,-1
1523135257048655,-1,-1,-2,1,0,1,0,-1
1523135257048655,-1,-3,-1,-3,-2,-1,-2,0
1523135257055669,-1,0,1,0,-1,0,-2,1
1523135257055669,-3,-3,-1,0,1,-3,0,-2
1523135257071712,0,-2,-1,-1,-1,-1,-1,-1
1523135257071712,1,1,-1,1,0,-2,-2,-3
1523135257078698,-3,1,0,-1,-2,-1,1,-2
1523135257078698,-2,0,-1,1,0,0,-2,-2
1523135257094783,-2,-2,-4,-2,0,-2,0,-1
1523135257094783,0,-2,0,-5,1,0,-1,2
1523135257100677,0,2,-1,4,-2,-3,-1,-2
1523135257100677,0,-1,-3,-4,-3,-2,0,0
1523135257108695,-2,0,-2,3,1,-1,-2,0
1523135257108695,-2,2,-1,-2,-1,-2,0,1
1523135257117720,-1,-1,-2,-2,-2,2,1,-2
1523135257117720,-1,0,0,-3,1,2,0,-2
1523135257131848,0,0,-1,-1,-2,-1,-2,1
1523135257131848,-2,-4,0,0,-2,2,0,-3
1523135257137864,1,-2,-2,-2,-2,-2,-1,1
1523135257137864,0,0,-2,0,0,-5,-1,-3
1523135257154874,-3,1,2,0,-1,1,3,-2
1523135257154874,1,0,-1,-1,1,-2,-2,-3
1523135257155821,1,0,0,-2,-4,2,-1,-2
1523135257155821,2,0,0,-2,1,-3,-1,2
1523135257167856,0,-1,-2,0,0,1,-3,0
1523135257167856,1,-1,-2,1,-1,-4,-3,-3
1523135257182897,-1,-4,-2,0,0,-1,-1,1
1523135257182897,1,1,0,1,-3,-1,0,-2
1523135257191922,0,1,2,0,1,-4,-1,-2
1523135257191922,-2,-1,-1,1,0,2,-1,-1
1523135257197998,-1,-2,-2,-3,-3,-1,0,2
1523135257197998,0,-5,-1,-2,0,-2,0,2
1523135257214989,-3,-1,1,-3,-3,-1,0,-2
1523135257214989,-2,-1,-1,0,0,1,0,0
1523135257215982,-3,1,0,0,-2,-1,-1,-3
1523135257215982,-2,-3,-2,3,-2,1,1,-1
1523135257228073,-2,-3,0,-1,-3,0,0,1
1523135257228073,-1,-1,-1,-3,0,-4,0,-1
1523135257237039,-2,1,-1,1,2,0,-1,-1
1523135257237039,-3,0,1,-1,0,0,-1,-1
1523135257251078,2,-1,-1,1,1,-2,-2,-1
1523135257251078,-1,0,-2,1,0,-1,1,-2
1523135257260101,0,-5,-1,-4,0,-4,-1,-4
1523135257260101,-1,-2,1,-1,-2,-2,1,-2
1523135257274141,0,-3,0,-2,-1,-1,-4,0
1523135257274141,-2,0,0,-2,0,-1,-1,1
1523135257276144,-1,0,-2,-2,-2,-4,-2,-1
1523135257276144,-2,-1,-1,0,-1,-2,-3,-3
1523135257288228,2,2,-3,-1,2,0,-3,-1
1523135257288228,-2,-2,0,3,3,2,2,-3
1523135257297199,0,-4,-3,-2,0,-1,-3,0
1523135257297199,-1,2,-2,-3,-3,-1,-2,0
1523135257311293,-2,-2,0,1,-2,-2,-2,-3
1523135257311293,0,-1,-2,-1,-5,-2,-1,-2
