timestamp,emg1,emg2,emg3,emg4,emg5,emg6,emg7,emg8
1523144914714401,1,5,1,2,-7,-1,1,2
1523144914714401,-2,-1,-3,-5,-2,-9,-5,-5
1523144914729440,-3,-12,-13,1,-2,2,-1,-5
1523144914729440,0,2,0,1,1,3,-1,-2
1523144914730944,3,4,2,0,-1,10,3,10
1523144914730944,-2,-1,8,-3,5,0,-1,-6
1523144914751498,-1,2,-10,-3,-4,-7,-4,-2
1523144914751498,-7,-9,-14,1,-1,-9,-6,-8
1523144914753505,-2,1,31,8,2,7,1,1
1523144914753505,4,4,-20,-14,-14,-6,1,11
1523144914765537,1,3,17,8,-2,0,2,10
1523144914765537,0,-7,-9,-5,4,2,-1,5
1523144914774560,-5,-1,-19,-6,-4,-15,-10,-23
1523144914774560,1,2,-10,8,0,-11,-8,-20
1523144914789099,4,0,58,5,11,13,22,43
1523144914789099,6,9,16,3,-15,20,8,2
1523144914791104,-2,-3,-31,-7,1,4,1,5
1523144914791104,-5,-1,-9,-3,2,-1,-9,-19
1523144914811662,-7,-10,-47,-15,-8,-15,-14,-27
1523144914811662,-1,-2,33,9,14,-4,3,10
1523144914813163,5,6,37,11,1,1,4,3
1523144914813163,-2,-1,-17,-7,-6,1,-1,3
1523144914825195,-1,0,-17,-5,-3,-5,-4,-8
1523144914825195,0,-5,-12,-5,0,5,0,2
1523144914834218,-1,-4,-13,-5,-14,-9,-3,-7
1523144914834218,-3,-1,9,2,10,2,0,2
1523144914849259,1,4,12,5,-3,-2,-2,1
1523144914849259,-1,-1,-11,-10,-8,-7,-3,-7
1523144914850763,-1,-3,-10,-1,2,15,3,3
1523144914850763,-4,-4,8,0,-1,0,0,1
1523144914871320,-4,-5,-14,-1,-6,-3,-5,-4
1523144914871320,0,3,15,5,0,-3,-2,2
1523144914871826,1,1,-16,-2,8,0,0,7
1523144914871826,-3,-9,-2,-6,-5,5,1,3
1523144914893376,1,10,26,9,12,1,-3,-9
1523144914893376,-2,-7,-22,-6,-8,-8,-1,0
1523144914894379,-2,-3,0,1,-10,-2,-2,-2
1523144914894379,0,1,1,-3,0,-2,0,-3
1523144914908422,-2,-4,-5,-13,-6,-4,-4,-2
1523144914908422,-3,1,-12,12,5,2,1,0
1523144914909419,-1,-1,4,1,-5,-6,-1,-5
1523144914909419,1,-2,-12,-2,-4,0,0,8
1523144914930976,-1,1,-13,-4,1,1,-3,-4
1523144914930976,-2,1,23,-4,-1,0,-1,0
1523144914931979,-2,-5,-17,-5,2,-7,-1,-7
1523144914931979,-1,3,12,2,1,0,-1,-1
1523144914953538,-4,-6,-13,1,1,6,-1,1
1523144914953538,0,-1,-13,-6,-4,-1,-3,-2
1523144914954539,1,0,10,2,3,-6,-1,0
1523144914954539,0,-2,8,-4,-3,-1,0,-1
1523144914968576,-2,-2,5,-4,-5,-3,0,-2
1523144914968576,-1,-2,-2,7,2,-4,-3,-2
1523144914969579,1,1,8,-2,-11,0,0,-1
1523144914969579,1,1,-2,2,31,3,2,1
1523144914991137,-1,-2,-8,-5,-21,1,2,-1
1523144914991137,-3,-2,-2,-11,12,1,-2,-3
1523144914991640,-1,-1,-4,17,0,-2,0,2
1523144914991640,-2,-2,-3,5,-6,-4,-1,2
1523144915013696,-5,-6,-4,-8,-7,-6,0,0
1523144915013696,-5,-1,0,-5,1,-6,-13,-16
1523144915014211,6,2,4,1,3,8,6,12
1523144915014211,2,4,7,-11,-3,2,-7,-12
1523144915028736,-3,-2,-1,4,1,-2,-1,2
1523144915028736,-2,-1,-5,1,-14,-9,-1,1
1523144915029237,-12,-10,-11,-11,-10,-11,-15,-20
1523144915029237,2,0,5,4,4,5,7,9
1523144915050795,4,3,0,1,4,7,1,0
1523144915050795,0,0,-5,-4,-5,-1,0,-1
1523144915051802,1,1,5,-1,8,-2,0,2
1523144915051802,0,4,-3,-4,-10,-3,1,0
1523144915073355,0,-3,0,3,2,-6,-5,-6
1523144915073355,1,3,-1,0,-1,2,3,3
1523144915074358,-2,-3,-2,2,4,2,-1,2
1523144915074358,0,2,0,-2,-9,-3,-5,-4
1523144915088395,3,13,4,-3,1,1,0,-8
1523144915088395,-3,-14,-1,2,4,1,3,7
1523144915089398,0,7,8,-6,-1,-2,-1,-6
1523144915089398,0,-2,-5,-2,-5,-2,-1,3
1523144915110955,3,5,5,4,7,1,-1,2
1523144915110955,-3,4,-6,-5,-3,0,-3,-10
1523144915111958,-2,-4,-4,-2,-3,-11,-7,-10
1523144915111958,0,-8,4,7,-1,15,18,27
1523144915133517,0,1,3,-2,2,-3,0,2
1523144915133517,0,-1,-3,-1,4,4,-1,2
1523144915134518,-3,-3,-6,-3,-4,2,-3,-1
1523144915134518,-1,0,-1,-1,-10,-10,-10,-18
1523144915148556,-1,-2,0,1,-3,0,1,9
1523144915148556,1,1,0,-3,-3,-7,3,3
1523144915149559,-1,-5,-3,0,2,-1,1,4
1523144915149559,-1,0,1,-4,-8,-3,-2,-5
1523144915171115,-3,-4,-1,1,1,1,-2,-3
1523144915171115,-3,-2,0,1,5,2,-2,-9
1523144915171617,2,3,1,-4,-3,-4,3,4
1523144915171617,-2,-3,-2,0,-8,-9,-1,-1
1523144915193676,-5,-8,-7,-5,-2,11,-3,-8
1523144915193676,3,5,2,5,4,-10,1,2
1523144915194176,0,-5,-5,2,4,21,3,2
1523144915194176,-2,0,7,1,-1,-7,-3,0
1523144915208715,1,-3,-1,-3,-4,-9,-2,-2
1523144915208715,-2,-4,1,-4,-7,-6,0,0
1523144915209217,1,3,1,-1,7,10,0,-2
1523144915209217,-2,-1,-1,-2,0,0,-4,-14
1523144915231276,-1,-8,-2,-2,-6,-7,-2,5
1523144915231276,0,-1,12,-5,-3,-1,-1,2
1523144915231777,-1,0,-9,-5,-1,-3,-2,-3
1523144915231777,0,4,-16,5,7,-1,-2,-1
1523144915253336,-4,-9,-29,-5,0,-3,-2,-15
1523144915253336,4,17,49,13,-1,1,-2,-3
1523144915254337,-9,-23,-18,-8,-8,-18,-8,-16
1523144915254337,2,-3,-66,-14,2,20,19,62
1523144915267871,5,7,13,8,7,4,1,1
1523144915267871,0,-5,4,-8,0,4,-2,-17
1523144915275894,2,12,47,23,4,7,5,22
1523144915275894,-7,-9,4,-19,-14,-15,-13,-31
1523144915290934,0,-2,-24,-3,-1,-3,-2,5
1523144915290934,-1,-3,2,-1,2,16,1,2
1523144915291938,-1,0,-19,-11,-17,-15,-5,-10
1523144915291938,0,0,36,6,32,0,-3,-8
1523144915313500,-1,4,9,8,-11,-3,0,4
1523144915313500,-4,-2,-13,-7,-12,-7,-4,-4
1523144915314497,1,2,-30,-10,4,4,2,4
1523144915314497,-2,-13,-16,16,-3,-7,-2,-5
1523144915330041,0,7,15,-14,-13,6,-2,-3
1523144915330041,-2,-1,-32,3,5,-4,-5,-5
1523144915331042,-3,-14,-12,-3,-3,-7,8,17
1523144915331042,2,10,20,3,7,20,1,-5
1523144915351095,-3,-11,1,-2,6,-3,-2,-7
1523144915351095,1,0,18,4,-3,5,-1,3
1523144915351596,1,9,29,2,1,-6,-3,-2
1523144915351596,2,1,16,-2,-12,-11,-2,-5
1523144915373654,-1,-2,-7,3,5,4,0,1
1523144915373654,-4,-4,-25,-9,-1,-3,-2,4
1523144915374155,1,2,-6,-1,1,4,3,-7
1523144915374155,-3,0,39,6,-2,0,-3,-2
1523144915388693,0,-1,-4,-4,-4,-2,-2,-1
1523144915388693,0,-4,-12,2,4,-2,0,5
1523144915389195,1,-1,0,-5,-2,2,-3,-12
1523144915389195,1,0,-10,0,-6,-3,-4,2
1523144915410754,1,4,8,0,3,-6,1,-3
1523144915410754,-4,-4,-1,5,0,5,-1,-3
1523144915411755,0,-3,0,-1,6,3,1,7
1523144915411755,0,0,-6,-3,-4,0,-1,-7
1523144915433313,1,2,2,-3,-6,2,-4,-2
1523144915433313,1,-1,-6,-6,-9,-8,-3,-2
1523144915434317,-3,0,-1,7,-8,-1,-3,-5
1523144915434317,-1,-4,-5,-4,-3,2,0,-1
1523144915448354,-1,-1,2,1,6,6,-1,-2
1523144915448354,0,-2,-7,-4,0,2,1,3
1523144915449368,-2,-1,5,-3,-4,-5,-4,-1
1523144915449368,-1,0,-3,-1,0,-4,-3,-4
1523144915470914,-3,-2,-3,1,2,-8,-1,0
1523144915470914,-2,1,3,0,-4,0,1,1
1523144915471916,0,0,0,0,2,0,-2,-1
1523144915471916,-2,-1,-3,-1,-7,-1,2,-3
1523144915493974,-4,-4,-6,-4,-4,-2,-8,-6
1523144915493974,5,4,-2,2,2,2,6,7
1523144915494977,2,1,2,-1,-1,0,0,-2
1523144915494977,0,1,-1,-4,24,6,3,4
1523144915508011,6,2,-1,11,-1,-8,-9,-4
1523144915508011,-3,-3,-6,14,33,2,5,1
1523144915516032,2,7,11,2,-17,-4,-8,-4
1523144915516032,2,-1,-1,-3,0,8,5,7
1523144915531075,-2,4,5,-3,3,7,4,2
1523144915531075,3,0,-15,-3,-1,-4,-2,2
1523144915532074,-5,-12,-9,0,5,1,-1,-2
1523144915532074,-9,-4,-4,-3,-6,-9,-9,-13
1523144915553640,0,0,3,0,1,-3,1,3
1523144915553640,-3,-1,-1,-6,-14,-5,-3,-3
1523144915554636,1,2,-2,-3,4,1,0,2
1523144915554636,0,1,-1,-2,-11,-6,-2,-3
1523144915567671,0,0,-1,-1,1,3,1,-1
1523144915567671,-2,-1,0,-2,0,-3,-2,-1
1523144915576194,-3,-2,-4,-1,-2,1,-1,-1
1523144915576194,0,4,3,1,-1,-2,-4,-1
1523144915591233,-1,-6,-7,0,-2,-4,-2,-13
1523144915591233,-5,-9,-1,-5,-6,-4,-2,7
1523144915591735,0,4,0,-1,4,4,1,2
1523144915591735,2,3,-1,0,-5,-5,1,14
1523144915613792,-5,-2,-4,-5,-4,-8,-1,-2
1523144915613792,-1,-2,4,1,-4,-12,-8,-32
1523144915614296,-2,-8,-5,0,12,38,13,16
1523144915614296,0,-2,-3,-1,-2,-8,-1,-2
1523144915627830,0,-2,1,-4,-3,5,1,6
1523144915627830,0,1,1,7,6,-7,-5,-3
1523144915636854,-3,0,-2,-3,-2,-16,-7,-9
1523144915636854,-3,-1,0,1,-3,7,-1,-6
1523144915650894,-1,-1,0,-1,-3,-4,1,2
1523144915650894,-1,0,-1,-4,-8,-1,0,5
1523144915651895,1,0,0,0,1,-7,-2,0
1523144915651895,-2,-5,-6,-1,-3,-3,-1,-4
1523144915673453,-4,-3,-6,-2,0,-2,-1,3
1523144915673453,1,2,6,-2,-7,2,1,7
1523144915674455,0,2,1,3,-2,-10,-1,-4
1523144915674455,-1,-3,-7,0,10,12,0,-2
1523144915687994,0,-2,17,2,-2,0,0,-4
1523144915687994,-3,-9,-11,-4,-3,-3,-1,5
1523144915696012,-2,0,0,-3,0,2,-1,-1
1523144915696012,-1,-1,-7,-2,-3,-7,-1,-4
1523144915711051,1,5,3,1,-2,4,-1,3
1523144915711051,0,-3,1,-10,8,0,-1,-4
1523144915712055,1,0,2,13,-18,-14,-4,-6
1523144915712055,-3,-2,-6,-11,-17,5,-2,3
1523144915733612,-2,-1,-7,0,9,-2,-2,-9
1523144915733612,-1,3,-2,4,-2,-3,-4,-12
1523144915734113,1,-4,-18,-12,-4,-3,3,0
1523144915734113,1,4,38,5,5,0,9,12
1523144915747650,-3,-6,-6,1,-5,-14,-3,-3
1523144915747650,-6,-8,-13,-17,-9,11,-1,7
1523144915756171,1,15,37,23,11,-4,-12,-33
1523144915756171,-6,-26,-50,-12,1,3,-5,-10
1523144915771212,6,8,25,2,3,-4,7,-4
1523144915771212,3,0,-12,1,-8,-9,11,37
1523144915771713,-4,-7,-25,-24,-10,1,-5,0
1523144915771713,-2,6,24,15,-5,-9,-10,-28
1523144915793270,-2,-2,-29,0,7,9,6,28
1523144915793270,1,1,-25,-5,-9,3,-6,-13
1523144915794274,0,-3,10,-4,-5,-10,-3,-4
1523144915794274,-2,-3,-6,-6,7,4,-3,-7
1523144915807809,-3,-5,-10,-1,-8,-10,-7,-14
1523144915807809,2,1,9,6,9,32,6,7
1523144915815830,-2,-1,-5,-1,0,-5,0,9
1523144915815830,1,-2,1,-1,-2,-8,-4,-7
1523144915830871,2,2,-10,-2,-4,-10,1,11
1523144915830871,0,1,6,3,5,-5,-2,-8
1523144915831874,-2,-5,3,-1,-1,5,0,-4
1523144915831874,-2,-3,-5,-1,1,1,2,12
1523144915853434,-1,-1,6,-1,-2,2,-1,-3
1523144915853434,0,2,-1,-3,-11,-6,-4,-10
1523144915854436,0,2,-5,1,7,1,4,12
1523144915854436,0,2,1,1,-2,-6,1,7
1523144915876493,-1,-2,4,-4,-3,9,-1,0
1523144915876493,0,0,3,-1,2,-3,-4,-9
1523144915877495,0,-2,-5,-4,0,-1,1,3
1523144915877495,1,0,0,7,-1,-5,-3,-7
1523144915891031,0,-2,-3,-2,0,-2,2,8
1523144915891031,-2,-2,3,0,2,7,1,4
1523144915892033,-1,0,0,-2,-4,-4,-3,-2
1523144915892033,-1,2,-3,-4,-3,-2,-2,0
1523144915913590,-1,0,4,-5,1,2,-4,-8
1523144915913590,0,-2,9,4,-2,-14,-1,-4
1523144915914593,-2,-4,-8,0,0,2,1,4
1523144915914593,-1,-2,0,-2,0,4,-2,-2
1523144915936652,-1,-3,-1,-4,-3,-1,-1,0
1523144915936652,1,3,2,3,-3,-4,-2,-2
1523144915937654,-3,-3,-9,-5,1,-3,-4,-5
1523144915937654,2,1,-1,2,-19,-4,-1,2
1523144915951191,-2,-1,0,-8,8,1,-2,-4
1523144915951191,0,-5,1,9,0,2,0,0
1523144915951697,0,-1,1,-4,-9,2,2,-1
1523144915951697,-2,-1,0,-1,6,4,0,3
1523144915973750,-1,-1,4,3,-3,3,0,0
1523144915973750,-2,1,-1,-7,-3,-4,-3,-5
1523144915974254,-1,-2,-3,2,4,-6,-2,1
1523144915974254,1,1,-2,-2,-7,-9,-2,0
1523144915996811,0,0,0,4,8,12,0,-2
1523144915996811,-4,-2,3,0,0,-5,2,3
1523144915997814,-1,-1,1,2,1,10,0,-3
1523144915997814,2,2,-3,-5,-8,-5,1,5
1523144916010851,-4,0,-2,2,11,-6,-4,-7
1523144916010851,-3,-5,-3,-4,-3,-4,-9,-7
1523144916011853,5,4,4,-1,-6,2,8,12
1523144916011853,-6,-3,-2,11,8,4,3,-2
1523144916033413,0,0,1,-4,-6,0,0,-2
1523144916033413,2,1,0,-7,21,1,-8,-9
1523144916034414,2,1,0,0,4,-3,1,4
1523144916034414,-2,-2,-2,-9,-6,-12,-15,-13
1523144916056973,-2,-2,3,6,-3,3,11,14
1523144916056973,-2,1,0,-2,5,1,-3,-14
1523144916057478,-3,-1,1,-3,-1,-5,-12,-9
1523144916057478,6,7,6,0,7,5,7,10
1523144916071010,-3,-6,-6,-5,-3,-4,-5,-5
1523144916071010,0,-1,2,3,-7,-2,4,10
1523144916072012,-1,-1,-2,1,4,0,2,-4
1523144916072012,-3,1,-5,-3,-1,3,-4,-2
1523144916093570,1,1,-1,2,-6,-10,-4,-8
1523144916093570,-2,-4,-7,1,-5,5,7,8
1523144916094572,-2,1,0,1,4,2,-2,-9
1523144916094572,0,-4,-11,-1,3,-3,2,13
1523144916116633,-2,0,10,-2,-4,1,-2,-5
1523144916116633,1,2,4,1,-7,-9,-3,-4
1523144916117637,-3,2,2,-1,3,5,-2,5
1523144916117637,-2,-12,-14,-2,-4,-1,-5,-31
1523144916131170,1,-2,4,-2,-2,7,13,30
1523144916131170,-1,0,-4,-1,-10,-1,-1,-3
1523144916131671,1,3,4,1,3,-3,-1,3
1523144916131671,-2,4,1,-5,4,-4,-5,-15
1523144916153240,-2,-1,-1,1,-6,-18,-8,-10
1523144916153240,-4,-2,2,0,3,11,5,7
1523144916154232,-1,-5,-8,0,5,17,1,-2
1523144916154232,-1,-3,1,0,2,0,0,10
1523144916176792,-1,0,-9,-5,-5,-6,-7,-16
1523144916176792,0,2,1,-2,-7,-13,2,16
1523144916177293,-1,-5,-3,3,-3,-6,2,2
1523144916177293,1,1,2,0,-2,4,3,3
1523144916199351,-3,1,-6,-2,1,1,-2,0
1523144916199351,-1,3,1,-1,-2,-2,-4,-12
1523144916199853,-2,-3,-1,-3,-5,-2,-2,-6
1523144916199853,0,3,6,-1,-1,2,0,8
1523144916213388,0,-2,-9,1,4,2,1,-2
1523144916213388,-1,-2,-2,-3,-1,-4,-4,3
1523144916214392,-4,-4,-4,-4,-8,-14,-3,-7
1523144916214392,2,2,10,-1,1,13,3,11
1523144916236952,1,-3,-11,2,-3,4,-4,-7
1523144916236952,-1,-1,3,-5,-4,-5,1,1
1523144916237452,0,2,-9,-1,-7,-4,-2,0
1523144916237452,-2,-1,14,0,4,-2,-2,3
1523144916250489,-1,-5,26,-2,-3,6,-4,-3
1523144916250489,0,-3,-6,0,-5,-14,-7,-17
1523144916258510,2,15,23,4,-1,21,15,38
1523144916258510,-9,-18,-31,-11,-1,-4,-4,-7
1523144916273548,-1,1,9,9,-2,-7,-5,-12
1523144916273548,-1,2,24,-4,-6,-3,-5,-19
1523144916274551,0,-3,-22,-3,8,0,7,45
1523144916274551,3,11,67,19,3,9,2,-3
1523144916296610,-4,-4,-26,-14,-7,-11,-4,3
1523144916296610,-4,-5,-6,-5,3,-2,-5,-15
1523144916297613,-2,-6,-6,2,0,-4,-7,-28
1523144916297613,-1,-3,-19,-12,-21,-2,3,10
1523144916311156,2,1,-5,-2,5,1,-1,-1
1523144916311156,1,2,14,1,-2,5,3,6
1523144916311652,-4,-9,-59,-11,-4,-11,-6,-13
1523144916311652,2,7,83,27,12,-2,-3,2
1523144916333708,-1,1,3,4,0,12,1,-4
1523144916333708,4,5,-32,-1,4,3,3,11
1523144916334211,-3,-13,9,-4,-9,-18,-8,-7
1523144916334211,-6,-7,-39,-8,6,2,-3,-15
1523144916356772,2,-2,-83,-8,3,22,3,15
1523144916356772,0,0,44,6,-6,-5,-2,-5
1523144916357271,0,2,-27,3,5,4,1,-11
1523144916357271,3,4,21,1,-5,-12,5,27
1523144916370807,0,-3,-3,-1,-2,-18,-1,0
1523144916370807,1,-1,-21,-4,6,19,0,-5
1523144916371811,-1,-1,10,1,-3,-3,-7,-16
1523144916371811,0,-6,-33,-6,2,-4,0,-4
1523144916393368,-2,1,19,0,-3,-1,-1,-4
1523144916393368,0,-4,-15,3,-4,-2,-1,10
1523144916394370,1,2,22,0,-1,0,-5,-10
1523144916394370,1,-2,-20,-5,0,-2,-1,1
1523144916416929,1,2,21,3,1,-2,0,3
1523144916416929,-2,0,-1,3,8,5,0,-5
1523144916417936,-1,-2,4,-3,0,1,0,2
1523144916417936,-3,-1,-16,-5,-6,-3,-2,-7
1523144916431471,-3,-4,3,-2,-6,-7,-1,-3
1523144916431471,-2,-2,-5,-2,-2,-3,1,5
1523144916432473,-1,0,6,1,11,2,1,0
1523144916432473,0,0,-13,-3,-6,-5,-2,0
1523144916453528,-2,3,9,2,-1,-3,-2,-8
1523144916453528,-5,-8,-6,0,6,3,3,7
1523144916454530,5,4,6,-4,-13,6,-5,-6
1523144916454530,-3,-7,-6,3,7,-3,-2,-6
1523144916476591,-1,1,3,-1,8,1,0,3
1523144916476591,3,4,-1,0,-14,-3,2,6
1523144916477593,-5,-2,1,0,11,-4,0,-4
1523144916477593,0,-1,-14,-6,4,0,-10,-9
1523144916490126,10,5,12,3,-11,9,7,6
1523144916490126,-3,-1,-3,-1,2,-4,-2,-1
1523144916498647,-3,-2,2,-2,-13,-3,0,-3
1523144916498647,-2,-2,-6,-2,6,2,2,-2
1523144916513687,-4,-4,2,-14,-5,-4,-3,-2
1523144916513687,-1,-1,0,20,5,-4,2,0
1523144916514195,0,2,5,-4,-3,4,-1,2
1523144916514195,-1,6,1,0,-2,2,1,0
1523144916536748,-2,-5,-3,-3,0,-5,-5,0
1523144916536748,-1,0,-3,-9,-2,-3,-6,-11
1523144916537752,-4,-7,7,1,-2,-9,-3,-10
1523144916537752,1,1,-4,0,-6,-9,7,37
1523144916550285,0,3,-4,4,11,20,-1,-6
1523144916550285,-3,-6,-5,-3,-3,-3,-6,-6
1523144916565829,-2,0,1,2,-1,-8,-2,-3
1523144916565829,3,1,-3,-11,-8,7,-5,-15
1523144916573353,1,2,8,7,-3,-9,-1,-3
1523144916573353,-10,-7,-4,-4,5,-4,5,8
1523144916574351,2,2,-2,-3,0,3,3,0
1523144916574351,1,1,-2,1,-3,10,3,-2
1523144916596909,0,3,2,1,1,-7,-2,-3
1523144916596909,2,2,-9,-6,5,6,-3,-3
1523144916597411,-4,-6,4,-5,-10,-14,-4,-1
1523144916597411,-2,-10,-8,0,-13,6,-3,-8
1523144916610447,-2,-7,-1,0,3,-6,-1,2
1523144916610447,0,4,5,-4,16,-2,1,-2
1523144916618468,0,2,-7,2,-2,16,4,17
1523144916618468,-1,1,-3,-1,0,-4,-1,-3
1523144916633507,-3,-6,-1,-6,-14,-3,-5,-8
1523144916633507,4,2,-3,-3,-11,-11,1,8
1523144916634511,1,2,4,5,7,8,-2,-8
1523144916634511,-2,-2,-4,-1,5,-1,-1,-6
1523144916656568,-2,-2,-2,-1,-2,-2,0,2
1523144916656568,-3,-6,-2,-1,-9,-3,-1,-5
1523144916657571,0,0,3,2,0,-2,3,11
1523144916657571,-1,2,1,-2,0,-2,-2,-6
1523144916670604,-2,-1,-4,-1,2,-4,1,1
1523144916670604,0,0,2,1,-2,22,-1,-1
1523144916678627,-1,-9,-15,-2,-1,-5,-5,-8
1523144916678627,-1,5,11,-1,5,-7,-2,1
1523144916693666,-2,-7,0,-1,-4,-10,-2,-1
1523144916693666,-2,3,5,-2,-9,-1,-3,-11
1523144916694169,2,0,-1,0,4,12,-1,-2
1523144916694169,-1,2,-2,-2,-1,-2,4,13
1523144916716728,0,-3,-6,1,3,2,-1,2
1523144916716728,-2,-3,1,-1,-4,-7,-4,-1
1523144916717229,-3,1,11,0,-6,-12,-7,-14
1523144916717229,0,0,-5,2,-2,-5,-4,0
1523144916730264,-1,-2,2,-3,-1,4,2,-1
1523144916730264,1,-4,-14,-3,1,0,6,7
1523144916738786,-1,6,8,-4,-3,-9,-2,-4
1523144916738786,-6,-13,-5,10,1,-2,-5,-9
1523144916753326,-2,-3,-40,-15,-7,7,-5,-7
1523144916753326,5,13,56,14,1,-4,-3,-2
1523144916754328,-1,-9,-35,-4,-8,-5,3,3
1523144916754328,-2,1,-1,3,4,-3,-2,-7
1523144916776888,-3,-1,39,-1,-1,-3,2,-6
1523144916776888,-1,0,-12,-6,4,19,2,9
1523144916777390,0,-1,-39,-6,-2,-11,0,-4
1523144916777390,3,8,46,13,3,0,1,0
1523144916799448,-5,-5,-13,1,-7,-12,-3,-4
1523144916799448,1,-1,-27,-2,11,-8,-1,4
1523144916799955,1,2,24,-3,3,2,0,0
1523144916799955,-5,-7,-31,-11,-8,6,-3,-1
1523144916813485,1,2,-3,14,6,3,2,0
1523144916813485,-5,-2,31,1,-10,-7,-8,-5
1523144916814488,1,-3,-20,-6,-6,1,7,4
1523144916814488,-1,-2,-6,-8,-3,-8,2,5
1523144916837049,1,5,17,0,7,15,1,-1
1523144916837049,-4,-19,-30,-4,-3,-2,-2,-8
1523144916837550,1,5,17,1,-5,-8,0,7
1523144916837550,-1,-5,32,-3,-1,2,-2,-9
1523144916859108,4,5,-15,1,-5,-4,0,11
1523144916859108,0,-2,-13,-2,-4,-10,-2,-8
1523144916860110,-3,-1,16,2,3,7,-2,-2
1523144916860110,-1,-2,-14,-9,0,-3,1,2
1523144916873647,-1,-2,-5,2,0,-2,-3,0
1523144916873647,0,-3,-5,-7,-1,2,-1,-1
1523144916874147,0,2,29,4,1,-5,-2,0
1523144916874147,-1,-2,-31,-3,-5,-6,-1,-2
1523144916896706,1,0,-2,-1,4,7,1,-2
1523144916896706,1,5,10,-1,-1,-4,2,5
1523144916897710,-6,-8,-33,0,3,4,-1,-4
1523144916897710,-2,-4,-28,-5,-4,-2,-2,-3
1523144916919270,0,-2,38,3,-4,-10,-1,2
1523144916919270,0,1,-11,0,-6,0,-1,1
1523144916919770,-2,0,-1,0,7,8,0,0
1523144916919770,1,2,1,-1,6,-2,-1,-8
1523144916933805,0,0,-5,-6,-29,-10,0,3
1523144916933805,0,0,1,6,25,19,4,2
1523144916934313,-2,-4,4,-3,-10,-10,-3,-4
1523144916934313,0,0,6,-2,-5,-3,-1,-2
1523144916956866,0,0,-3,-8,2,10,0,-4
1523144916956866,-1,-2,-1,-1,-13,-14,-3,-1
1523144916957368,-1,2,6,2,8,4,0,-2
1523144916957368,0,-3,2,-1,2,14,2,13
1523144916979427,-2,-2,-4,1,5,-5,-5,-5
1523144916979427,-1,-2,-4,-2,-5,-2,-1,-3
1523144916979928,-2,-1,1,0,1,-3,-3,-5
1523144916979928,0,-1,2,0,-9,-5,-2,-1
1523144916993464,-2,2,-1,2,2,2,4,3
1523144916993464,-5,-4,-4,-4,-4,-3,-5,-5
1523144916994466,2,1,1,0,6,-5,2,3
1523144916994466,-6,-3,1,2,-6,-1,-9,-11
1523144917016527,4,5,-2,2,6,19,10,10
1523144917016527,-1,-3,-8,-2,4,-4,-3,-3
1523144917017530,0,-1,4,-5,0,6,-1,1
1523144917017530,-9,-4,-2,-8,-2,-14,-17,-15
1523144917039085,11,2,2,11,5,-4,5,3
1523144917039085,-9,0,-2,-2,-15,4,0,-3
1523144917040089,4,-1,-1,-1,-7,-4,0,-1
1523144917040089,-42,-2,4,2,6,1,-2,-14
1523144917053623,0,-4,-6,-9,-5,-9,-6,-5
1523144917053623,6,-1,4,3,2,0,-3,0
1523144917054126,1,0,0,1,1,1,-3,-23
1523144917054126,13,7,5,-1,-3,5,18,51
1523144917076685,0,-4,3,-3,2,-2,-4,-7
1523144917076685,0,-6,-6,-3,-2,-4,1,2
1523144917078189,-4,5,3,-5,-5,-6,-4,-5
1523144917078189,6,-8,-15,7,2,9,-3,-18
1523144917099249,-6,0,1,-1,5,-3,0,2
1523144917099249,3,5,7,-2,0,-1,0,5
1523144917100249,-12,-5,-9,-4,-9,-11,-15,-15
1523144917100249,8,-6,2,-4,-3,-5,-5,-40
1523144917113283,0,-2,-4,1,5,10,21,86
1523144917113283,-2,0,4,-1,-11,12,-3,-12
1523144917114286,3,4,1,0,1,-2,1,11
1523144917114286,4,4,4,-2,1,1,-4,-7
1523144917136846,-9,-7,-12,-2,-5,-14,-11,-32
1523144917136846,1,2,-1,0,-1,-8,3,0
1523144917137348,0,-9,-11,-2,0,2,7,28
1523144917137348,2,-5,3,0,-1,-1,1,0
1523144917159405,-1,5,2,3,7,5,-7,-18
1523144917159405,-2,3,1,-2,4,-8,-2,2
1523144917159909,0,-4,2,-1,-12,-2,-2,-8
1523144917159909,1,1,-1,2,9,1,3,6
1523144917173444,-8,-2,0,-8,-7,-8,-5,-13
1523144917173444,0,-4,-3,6,13,2,4,2
1523144917174446,-3,-5,-12,-2,12,-4,-3,1
1523144917174446,4,6,16,3,-8,-1,4,8
1523144917196504,2,2,8,-1,-4,-12,-3,-7
1523144917196504,-2,-2,7,-1,3,9,0,-1
1523144917197508,0,3,-2,-7,-9,2,0,4
1523144917197508,1,5,15,10,2,-2,1,5
1523144917219568,-4,-12,-36,-1,4,-5,-6,-13
1523144917219568,-2,1,2,-4,-18,-16,-5,-5
1523144917220068,2,5,26,4,-1,-2,3,-9
1523144917220068,2,1,7,-8,4,26,8,20
1523144917233608,-1,5,5,-1,-2,-12,-6,-8
1523144917233608,-4,-10,-55,-6,-2,5,0,1
1523144917234607,-3,-3,-16,3,-1,-6,-6,-1
1523144917234607,4,5,13,-5,-3,-4,-5,-8
1523144917256665,-1,-7,-26,-5,-6,4,3,6
1523144917256665,-3,-4,-9,-3,5,-3,0,2
1523144917257667,-5,-3,-37,-5,-4,4,-5,-18
1523144917257667,0,5,74,15,8,-10,-4,-9
1523144917279226,4,0,-5,-1,2,1,10,31
1523144917279226,-2,0,0,-6,-19,13,4,-1
1523144917280227,-1,-2,-4,2,44,6,0,3
1523144917280227,-1,-4,-38,4,-1,3,-1,-1
1523144917293261,-3,2,28,0,-9,2,-7,-22
1523144917293261,1,1,16,-1,12,-4,-1,3
1523144917294264,1,1,17,2,-16,-9,-2,6
1523144917294264,-2,-2,-29,-4,2,4,-1,-2
1523144917316827,-1,-4,-8,2,8,-3,0,-5
1523144917316827,0,6,46,3,-4,-8,-4,0
1523144917317326,2,-1,9,-1,-4,15,2,2
1523144917317326,-3,-8,-25,-5,-6,-13,0,2
1523144917339384,2,4,-1,-4,-2,0,-1,1
1523144917339384,2,0,7,-1,-2,-2,-2,-6
1523144917339886,1,1,1,-3,-10,-9,5,19
1523144917339886,-2,-4,-1,3,4,0,1,-1
1523144917353422,-5,-2,-7,2,4,8,-3,-8
1523144917353422,0,-3,-6,1,3,-1,-1,-4
1523144917354425,1,1,9,-1,-5,-8,-1,-3
1523144917354425,-4,-4,-24,-12,-15,-15,-4,-1
1523144917376483,-2,-2,4,1,5,7,-1,-6
1523144917376483,-2,-2,1,2,4,4,0,2
1523144917377486,-1,-2,13,2,-4,0,1,-1
1523144917377486,-2,-5,17,0,-4,-3,1,2
1523144917399044,-1,4,4,0,-1,-2,-4,-5
1523144917399044,-2,-5,-4,0,-2,-1,-1,2
1523144917400048,-1,-1,-22,-1,-2,4,2,2
1523144917400048,1,-3,-11,-5,-1,-4,-3,-2
1523144917413083,0,-2,12,-2,-4,-3,-2,-7
1523144917413083,-1,2,-14,-4,1,-2,0,3
1523144917421104,0,0,1,3,20,-4,-1,-3
1523144917421104,1,2,-6,-10,-5,13,0,3
1523144917436644,-1,0,2,10,-7,-8,-1,-2
1523144917436644,-2,1,-7,-4,-3,-7,-2,1
1523144917437646,-1,-4,1,0,-5,9,0,-3
1523144917437646,1,1,-1,-3,-12,-7,0,0
1523144917459204,-2,-3,-7,-14,-9,-2,-1,-2
1523144917459204,2,-2,6,4,2,5,0,-1
1523144917460206,-3,-2,1,-1,-5,-4,-4,-3
1523144917460206,-5,-3,-4,-3,6,-2,-1,-5
1523144917472739,-2,-1,-2,-3,-6,-2,-4,-2
1523144917472739,8,4,-2,2,2,-2,8,13
1523144917481261,-1,-3,-3,-2,-6,1,-3,-6
1523144917481261,0,-4,-11,-5,-10,-8,-2,4
1523144917496802,-4,-3,0,-3,-8,-5,0,0
1523144917496802,5,0,0,-2,6,7,0,-13
1523144917497304,12,5,4,-4,-15,-6,-2,3
1523144917497304,-11,3,-1,2,8,4,1,1
1523144917519366,-1,-3,-3,-3,-5,-6,-4,-1
1523144917519366,-9,-18,-16,-7,-12,-5,-4,-5
1523144917519865,6,3,3,8,22,5,-3,-7
1523144917519865,4,-2,-5,-1,-3,-13,-3,2
1523144917532899,7,7,6,1,8,4,5,9
1523144917532899,-8,3,-1,0,0,-5,-4,-6
1523144917540921,-6,-8,-9,-1,-7,1,3,-10
1523144917540921,2,6,7,1,2,2,2,7
1523144917556463,0,-3,-3,1,5,0,0,1
1523144917556463,2,0,-5,0,-2,5,-2,2
1523144917557466,-7,1,2,-6,-6,-4,-2,-1
1523144917557466,2,-7,-7,4,6,3,-4,-4
1523144917579522,0,1,3,-2,-6,-1,0,-9
1523144917579522,-3,-6,-6,1,-2,-9,-3,-11
1523144917580024,-4,5,2,-1,-3,4,-2,-2
1523144917580024,5,-8,-10,1,3,-7,7,11
1523144917593059,-5,0,2,0,2,16,3,2
1523144917593059,4,6,1,-1,2,-1,-1,5
1523144917601083,0,4,3,-1,-2,-3,-3,-9
1523144917601083,-3,-6,-8,1,-4,-12,-4,-7
1523144917616120,0,-5,3,-1,-4,-2,-3,-1
1523144917616120,2,2,-1,-2,-2,-6,-1,-3
1523144917617126,0,-1,-1,0,6,9,4,3
1523144917617126,2,4,-4,-5,-8,5,1,12
1523144917639183,1,7,1,0,0,-13,-3,-5
1523144917639183,-13,-15,-17,3,2,1,-3,1
1523144917640184,-2,-4,0,0,2,-1,1,3
1523144917640184,0,4,3,1,0,-2,-2,-7
1523144917652719,-1,1,0,0,3,3,-2,-5
1523144917652719,-3,1,4,-5,-7,-10,-1,2
1523144917661240,-5,-10,-10,2,-6,0,-1,-1
1523144917661240,1,4,5,3,8,17,5,16
1523144917676280,-2,0,0,-2,1,-3,-1,-1
1523144917676280,0,1,-2,-3,-3,-7,-3,-4
1523144917676783,-3,-2,-8,-6,-7,-7,-4,-1
1523144917676783,-6,2,6,7,14,0,0,-2
1523144917699344,0,-4,-5,-1,-3,24,1,1
1523144917699344,-2,1,0,1,4,-2,-2,-1
1523144917699850,-5,-6,1,-3,-11,-6,-8,-9
1523144917699850,-1,0,-2,-2,1,5,1,12
1523144917712877,-1,-8,-24,-10,2,-11,5,7
1523144917712877,0,4,16,12,-5,-1,-3,-4
1523144917720900,-2,-1,-29,-5,9,3,-1,4
1523144917720900,-2,0,30,-3,-7,-12,-11,-33
1523144917735442,-1,8,15,-1,0,-5,-8,-28
1523144917735442,2,2,65,11,-15,0,11,30
1523144917744466,3,0,-3,-1,16,17,16,36
1523144917744466,-1,-9,-62,-13,-3,-3,-4,-5
1523144917759502,3,6,69,6,1,-2,-1,-7
1523144917759502,-5,5,-21,-7,5,-5,-7,-20
1523144917761006,-4,-4,2,2,3,-7,-3,-6
1523144917761006,-3,-5,-16,-12,-15,2,2,0
1523144917781561,-3,-6,-26,-3,6,-15,-4,4
1523144917781561,2,1,13,-8,-12,2,-2,-2
1523144917783568,-3,-3,8,4,-10,-9,1,3
1523144917783568,-1,3,-11,0,39,15,1,-3
1523144917795600,0,5,13,4,-6,-4,-2,-2
1523144917795600,0,-8,-22,1,3,4,2,4
1523144917804121,-2,-2,-18,-7,-12,-10,-3,-7
1523144917804121,-2,-1,23,0,-14,-4,-1,-4
1523144917819161,-1,0,-9,3,3,0,1,8
1523144917819161,0,-5,-18,-9,7,16,1,-1
1523144917820666,2,5,18,-1,-7,-9,0,-3
1523144917820666,1,2,0,1,-6,1,-4,-1
1523144917841739,-3,-4,-6,-7,2,-1,-1,5
1523144917841739,5,-1,-16,2,-6,-5,-2,-3
1523144917843228,-4,-3,6,2,3,2,-3,-8
1523144917843228,-4,3,12,-2,-9,-10,-2,0
1523144917855258,-1,-4,-22,-4,-5,2,-1,0
1523144917855258,-2,-2,0,-5,4,-3,-2,-2
1523144917864282,4,-1,1,-1,-3,3,-1,0
1523144917864282,1,1,9,4,2,-3,-1,0
1523144917879321,-3,-2,-7,-4,-5,-1,-2,-1
1523144917879321,-1,-6,-12,-3,1,-1,0,0
1523144917880825,-3,-5,2,0,-1,4,0,-2
1523144917880825,-3,-2,-6,-1,-2,-5,-3,-12
1523144917901882,-3,-4,-3,-2,-4,-6,-6,-7
1523144917901882,-1,3,2,12,1,-6,5,11
1523144917903387,0,0,-2,-2,-6,21,1,3
1523144917903387,1,-1,2,5,2,-8,0,-5
1523144917915417,1,-1,-3,-1,5,11,2,1
1523144917915417,-3,0,0,-1,5,-1,-3,-9
1523144917924442,-2,0,-2,-1,-4,-11,-4,-3
1523144917924442,-1,-4,-1,1,-6,-5,-2,2
1523144917939482,0,-4,-4,-3,-5,-5,-3,-4
1523144917939482,-5,0,-2,-5,-7,-4,-1,1
1523144917940987,0,1,-2,0,4,-4,-1,0
1523144917940987,0,3,7,0,-2,0,-1,-1
1523144917961541,0,-4,-3,0,-1,-2,1,3
1523144917961541,2,-3,-2,-4,4,3,0,-1
1523144917963545,-1,2,3,1,5,-4,-4,-7
1523144917963545,1,0,-6,-5,-11,1,5,10
1523144917976079,-11,-7,-10,-3,-9,-9,-9,-14
1523144917976079,8,2,4,3,1,8,7,12
1523144917983100,-2,-1,-1,-8,0,0,0,-4
1523144917983100,3,3,6,2,-4,-4,-7,-6
1523144917999144,-4,-1,-6,-1,-4,-2,-3,-1
1523144917999144,-1,0,4,-7,-3,-6,-3,1
1523144918001149,-4,0,-3,0,-12,-7,0,-6
1523144918001149,6,2,12,13,48,20,8,7
1523144918021719,0,0,-2,-6,-14,-1,0,2
1523144918021719,-6,-3,-9,-9,-9,-9,-7,-7
1523144918023204,2,6,2,-7,-6,-7,1,2
1523144918023204,-5,-3,-7,0,-5,-5,-2,-4
1523144918036238,1,-1,4,4,6,3,1,1
1523144918036238,-2,-6,-4,-3,1,-2,-3,-2
1523144918042757,-1,-4,-8,1,0,-4,-5,-10
1523144918042757,-2,5,8,-3,-7,14,2,1
1523144918059304,2,-5,-4,1,9,1,4,15
1523144918059304,-4,1,3,-3,-9,1,0,-5
1523144918060807,1,0,3,4,7,-2,-3,3
1523144918060807,-6,-8,-9,-3,-14,-11,-5,-11
1523144918081861,3,4,3,-2,0,4,-1,0
1523144918081861,-2,-2,-3,-2,5,-5,-7,-10
1523144918083368,-2,-4,0,-2,-3,-16,-8,-10
1523144918083368,0,-1,-1,-1,-9,10,5,13
1523144918095902,4,3,3,7,22,28,20,27
1523144918095902,-2,2,-5,-2,2,-3,-3,-4
1523144918102920,0,0,-5,-1,1,-3,-4,-1
1523144918102920,-4,-15,-9,-6,-12,-10,-12,-20
1523144918119461,-10,-8,-1,0,-3,-16,-5,-9
1523144918119461,1,6,2,-1,0,-2,1,3
1523144918120966,-2,9,14,3,3,21,-1,-5
1523144918120966,1,-12,-17,1,-4,-8,-1,0
1523144918141520,3,1,0,-5,-6,2,1,4
1523144918141520,-1,-2,-4,-3,-1,-4,1,-3
1523144918143524,-2,-5,-4,-3,-3,-4,-1,3
1523144918143524,-2,4,3,-2,0,-3,-2,3
1523144918156057,0,1,-9,0,-6,-14,-7,-9
1523144918156057,1,2,7,-2,9,18,-1,0
1523144918163075,-1,-5,-3,4,-2,-2,3,7
1523144918163075,-1,1,2,-5,1,1,2,-6
1523144918179122,-2,-2,-26,-2,4,-1,-3,-4
1523144918179122,0,3,24,7,-18,-2,0,-2
1523144918180626,3,3,29,-3,20,3,3,6
1523144918180626,-2,-5,-8,-5,-9,-12,-5,-7
1523144918201680,-7,-6,-24,-10,-8,-3,-6,0
1523144918201680,5,3,28,5,26,8,5,-2
1523144918203184,-2,-2,10,9,-8,1,-3,-3
1523144918203184,-3,-3,-15,-19,-6,-13,-2,18
1523144918216222,0,-3,-35,4,-9,-4,-4,-18
1523144918216222,-4,-3,-32,-10,-8,-1,-4,-2
1523144918222744,-1,-5,-32,-3,9,-2,-2,-1
1523144918222744,-1,1,-24,-9,-1,4,1,-7
1523144918239279,-7,-14,-33,-15,-10,-3,-8,-4
1523144918239279,4,13,78,27,11,-9,7,4
1523144918240783,0,-1,-38,4,7,29,4,-2
1523144918240783,-3,0,-17,-4,-6,-3,-1,1
1523144918261841,2,-2,-21,-12,1,-5,-2,1
1523144918261841,-3,-6,-33,-5,-8,-13,-4,-4
1523144918263343,-4,0,21,-3,-9,-11,-4,3
1523144918263343,1,3,26,16,5,1,-2,-17
1523144918275376,2,7,25,5,13,14,4,7
1523144918275376,0,-9,-41,-9,-10,-5,-3,-1
1523144918284401,0,-4,14,2,-9,-7,-1,7
1523144918284401,-6,0,3,1,8,12,-5,-21
1523144918299441,3,4,21,1,-8,-12,7,27
1523144918299441,-2,-6,-17,0,4,-3,-5,-6
1523144918300944,2,0,4,6,-1,9,1,3
1523144918300944,0,2,18,0,-4,-9,-3,0
1523144918321499,-9,2,14,4,9,-1,-3,-17
1523144918321499,-3,-4,-1,-4,4,16,0,6
1523144918323504,0,-1,8,0,-4,-11,0,-1
1523144918323504,2,0,-11,-7,-5,-3,-1,5
1523144918335536,3,3,27,7,-1,3,0,-5
1523144918335536,-5,-6,-21,-10,-8,-9,-1,1
1523144918344559,-4,-6,-25,-6,-1,-1,-2,-7
1523144918344559,3,3,35,4,1,4,3,7
1523144918359599,0,-3,5,-2,-3,-8,-4,0
1523144918359599,0,0,2,0,-13,3,-1,-3
1523144918361103,0,1,0,-2,6,-3,-1,-1
1523144918361103,-3,-1,-11,-1,1,-6,-1,3
1523144918381661,2,0,12,4,-4,4,-3,3
1523144918381661,0,2,-3,7,15,-6,-1,-6
1523144918383667,-1,-3,-16,-10,-10,3,0,4
1523144918383667,-3,-2,-1,4,2,-3,-2,4
1523144918395198,0,0,0,1,3,3,0,-9
1523144918395198,-3,-8,-9,-6,1,14,-1,-1
1523144918404219,1,3,5,2,0,-4,-1,1
1523144918404219,1,2,19,1,-7,-6,0,0
1523144918419259,-1,-2,-2,1,-2,-1,-1,-5
1523144918419259,-3,-1,-3,-3,0,-4,-1,0
1523144918420763,-1,2,-3,-7,0,-7,-2,-2
1523144918420763,0,-9,-16,-1,-6,0,-1,2
1523144918441818,-1,3,12,-1,-2,5,0,-3
1523144918441818,0,2,2,2,6,2,2,0
1523144918443323,0,-1,-3,-2,-5,10,1,-1
1523144918443323,1,4,-2,0,-2,-2,1,1
1523144918455354,0,-2,2,0,-1,-10,-2,-3
1523144918455354,-4,-2,-1,-2,-9,-5,-2,-2
1523144918464377,-2,-1,-3,-8,-11,-5,-4,-7
1523144918464377,-1,0,-1,1,30,-4,-2,0
1523144918479416,2,-3,-1,17,-2,11,1,7
1523144918479416,7,4,3,-5,-1,6,8,11
1523144918480926,-11,-8,-3,8,14,-3,-13,-20
1523144918480926,6,13,0,-8,-6,6,14,13
1523144918501979,-13,-16,-18,-5,-11,-23,-16,-18
1523144918501979,10,9,8,4,-1,3,3,4
1523144918503484,-3,-2,0,-3,-3,-2,5,4
1523144918503484,0,-1,-2,1,0,-4,-19,-12
1523144918515514,0,4,3,-3,6,1,8,7
1523144918515514,-2,-4,0,-2,-4,0,2,3
1523144918524537,0,-3,0,-4,-4,-6,3,2
1523144918524537,-1,0,2,2,-5,3,0,-3
1523144918539076,4,3,-2,-4,-3,-1,2,4
1523144918539076,-8,-4,-1,-1,1,-2,-11,-8
1523144918540580,3,1,4,-1,-3,-7,0,1
1523144918540580,-1,9,9,-1,-1,8,2,3
1523144918561648,-2,-10,-13,-3,7,10,-2,-1
1523144918561648,-4,1,12,-4,-10,-12,-7,-15
1523144918563643,1,6,0,1,0,-3,1,4
1523144918563643,-1,-9,-3,0,-5,-3,2,5
1523144918575173,0,11,9,-5,-4,-4,-4,-8
1523144918575173,-6,-6,-9,1,0,-8,-6,-19
1523144918584199,0,-3,-1,-2,-2,9,7,29
1523144918584199,0,0,0,-3,1,-4,-3,-3
1523144918599241,2,2,2,-1,-2,2,-1,-3
1523144918599241,0,-1,-6,-3,-9,-7,-2,0
1523144918600747,-4,-3,1,-1,-1,-6,-6,-12
1523144918600747,-5,-6,-10,2,2,8,0,0
1523144918621798,0,-2,-6,2,13,10,3,0
1523144918621798,-1,-3,1,-4,-7,-6,-2,2
1523144918623302,2,2,4,-3,4,7,1,-2
1523144918623302,-1,-7,-16,2,-7,-4,-3,-1
1523144918635335,3,2,6,3,-4,-1,-2,-4
1523144918635335,2,1,-4,-2,3,-9,2,6
1523144918644357,-2,0,5,0,-5,-4,-2,-4
1523144918644357,-2,-7,-5,-4,-3,-5,-1,-4
1523144918659396,-2,-1,4,-1,-3,2,-1,-1
1523144918659396,1,-1,-14,1,3,7,0,3
1523144918660901,1,-2,18,1,-5,-3,-4,-4
1523144918660901,-2,1,-12,-3,-7,-9,0,-8
1523144918681958,1,-1,17,0,0,-4,5,19
1523144918681958,-5,2,-2,-7,-3,8,-4,-4
1523144918683463,5,7,-2,10,6,-5,4,5
1523144918683463,-2,-6,16,4,7,11,-5,-15
1523144918704017,-1,-2,-36,-11,-4,3,-4,-12
1523144918704017,0,3,72,16,-2,0,9,16
1523144918706022,-2,-4,-19,-14,-11,-13,-6,-10
1523144918706022,-1,0,-7,-6,-3,-5,0,2
1523144918719055,5,9,89,25,0,-6,-3,-3
1523144918719055,2,2,19,-5,-3,-1,0,0
1523144918721061,-4,-5,-20,3,11,-7,-2,-1
1523144918721061,-1,-5,-13,-2,-4,13,1,4
1523144918741617,-1,0,-41,-11,-6,8,-1,2
1523144918741617,-4,-8,-27,-8,3,-1,-5,-14
1523144918743120,-1,-4,21,-1,-9,-7,-2,5
1523144918743120,1,0,-23,-7,-9,-10,1,13
1523144918764179,0,-2,36,-5,4,12,2,-4
1523144918764179,2,5,-5,16,2,-6,-5,1
1523144918766183,-5,-7,-36,-13,-3,3,-2,-6
1523144918766183,-5,-8,-16,-3,1,-6,-5,-5
1523144918779216,0,3,15,2,-2,-11,-2,1
1523144918779216,-2,-5,-14,-11,-2,-3,0,2
1523144918780719,1,-3,-29,2,-2,17,2,-1
1523144918780719,1,5,25,7,9,0,0,1
1523144918801788,-1,2,-1,1,2,-11,-1,0
1523144918801788,-3,-6,-32,-7,-7,-5,-5,-2
1523144918803291,-3,-8,-52,-7,-4,-12,-3,-6
1523144918803291,4,9,53,7,-2,8,-4,0
1523144918824344,-1,-5,9,-3,10,32,4,2
1523144918824344,0,-1,-3,0,-1,-3,-2,2
1523144918825851,-2,-2,-36,-2,-4,-7,-2,-1
1523144918825851,-2,2,44,4,-4,-8,0,-2
1523144918838382,-4,-4,-37,-8,-11,-20,-7,-5
1523144918838382,-1,-2,-11,2,-1,-1,-2,-2
1523144918845415,0,-2,35,1,2,13,2,-2
1523144918845415,-1,2,-23,-2,3,-1,4,-1
1523144918861944,-2,-7,-18,-4,-8,-10,-6,-1
1523144918861944,-4,0,0,-1,2,13,7,-8
1523144918863450,3,3,9,-2,1,-6,-4,11
1523144918863450,-2,-3,-10,-5,-1,-7,1,3
1523144918884004,0,3,17,7,2,-5,0,-2
1523144918884004,-2,-6,-35,-11,-15,-10,-2,-2
1523144918886010,0,2,35,8,13,21,4,-5
1523144918886010,0,-2,-17,-2,3,5,-1,0
1523144918898543,1,3,-16,-2,-7,-17,-1,2
1523144918898543,-2,-1,-14,-4,-3,7,-3,2
1523144918905560,-3,-3,10,-1,-1,-6,-2,-3
1523144918905560,1,2,-1,-5,-1,-4,-4,0
1523144918921602,0,-4,-25,1,2,-2,-2,-3
1523144918921602,0,3,15,1,-2,-7,-2,-1
1523144918923107,-2,-7,10,1,-2,6,2,-3
1523144918923107,-1,0,-4,-2,-2,1,0,-1
1523144918944163,-4,-4,-4,-5,-1,-8,-1,-5
1523144918944163,-2,0,-6,0,1,6,-1,2
1523144918945667,-1,5,5,-3,-1,-3,-4,-2
1523144918945667,-3,-5,-11,1,-1,2,0,2
1523144918958702,-2,1,-7,-5,-4,-5,-2,-2
1523144918958702,2,-3,4,1,7,0,2,1
1523144918965725,0,1,0,-1,-7,-2,2,-1
1523144918965725,-8,-7,-3,-15,-23,-10,-7,-9
1523144918981765,6,1,-2,19,24,9,12,20
1523144918981765,-14,-6,-6,-5,-12,-9,-30,-39
1523144918983272,6,0,6,-2,-3,-3,6,10
1523144918983272,-3,-4,-6,0,2,0,0,-5
1523144919004324,0,-2,0,-9,-12,0,3,8
1523144919004324,-1,2,1,-1,4,-2,6,7
1523144919005828,0,6,8,6,6,7,-2,-8
1523144919005828,2,3,-2,-4,-10,-11,-4,-1
1523144919018383,-7,-9,-14,-2,-1,-3,-1,-6
1523144919018383,3,-1,9,4,10,5,7,9
1523144919025379,-4,2,-2,-5,-3,3,-4,-6
1523144919025379,4,-7,-2,6,9,3,3,4
1523144919041422,-2,6,6,-6,-10,-5,-3,-5
1523144919041422,4,2,-1,2,4,-4,2,4
1523144919043432,-3,-2,-6,-5,-4,-2,-1,3
1523144919043432,-7,-10,6,3,8,-2,-3,-9
1523144919063981,-1,-1,-6,-1,0,-6,-5,-1
1523144919063981,1,-4,2,-2,-1,6,4,5
1523144919065990,4,4,1,-3,-6,2,0,5
1523144919065990,2,1,-5,4,5,-9,-3,-15
1523144919078023,-3,-2,-3,-4,-4,4,0,12
1523144919078023,3,6,4,3,8,9,4,4
1523144919087043,-1,-1,1,0,-1,-10,-3,-2
1523144919087043,-2,-5,-11,-5,2,-4,-2,-2
1523144919101585,-3,-2,15,-2,-7,-6,-5,-13
1523144919101585,-1,-2,-7,3,1,2,1,4
1523144919103589,-1,-3,0,1,4,-1,-1,-1
1523144919103589,2,4,-1,-1,-1,-1,-1,6
1523144919124146,0,2,30,-2,-5,-3,0,-7
1523144919124146,2,4,-3,6,5,14,1,3
1523144919125647,-3,-7,-6,-3,-4,-10,-4,-9
1523144919125647,-2,3,1,-3,-7,5,0,1
1523144919138685,-1,-6,-24,-2,12,4,0,0
1523144919138685,-3,-2,-30,-4,-7,-13,-1,-4
1523144919145201,0,1,1,4,-4,-8,1,0
1523144919145201,-2,2,-5,1,10,14,-1,-1
1523144919161743,-2,-4,-11,-5,-6,-6,-1,-9
1523144919161743,1,-6,-18,-15,-8,-3,-1,12
1523144919163248,-4,-6,9,6,6,-4,-3,-4
1523144919163248,-2,3,-1,2,-6,0,-2,-9
1523144919184304,2,7,21,2,-1,6,-2,9
1523144919184304,0,-3,4,-4,-3,-8,8,8
1523144919185806,-2,-1,-14,-2,1,4,0,2
1523144919185806,5,5,16,-2,-4,-1,0,8
1523144919197837,-4,-1,11,-2,-7,-7,-7,-20
1523144919197837,-2,2,9,6,-9,-10,-6,-7
1523144919206863,-3,-9,-80,-13,11,17,6,0
1523144919206863,-5,-8,-27,-13,-13,-10,-4,-5
1523144919221902,1,4,9,20,21,23,3,5
1523144919221902,-1,2,8,-10,0,-12,-2,1
1523144919223408,-5,-8,-19,-2,0,2,-4,-10
1523144919223408,2,5,18,5,5,-1,-3,5
1523144919244463,-1,-3,-4,-11,-24,-12,1,1
1523144919244463,0,-6,-7,7,5,4,-3,-4
1523144919245968,3,7,20,3,4,-3,-2,-1
1523144919245968,0,1,-1,-5,-7,-18,2,3
1523144919257999,-3,-9,-8,-7,9,29,1,2
1523144919257999,-3,-2,9,1,-5,-4,-2,-10
1523144919267024,0,2,57,-1,-9,4,-1,2
1523144919267024,2,2,6,6,-4,3,1,3
1523144919281562,2,1,-26,0,6,-12,-2,-2
1523144919281562,-1,0,0,-1,9,18,1,-5
1523144919283566,-1,-1,-21,-6,-12,-11,-4,1
1523144919283566,0,1,19,5,6,-3,-3,0
1523144919304125,-2,-3,-17,-1,-1,-1,-2,-7
1523144919304125,-1,-4,-15,-9,-8,-2,-3,-1
1523144919305625,0,4,28,6,-3,-10,-4,-1
1523144919305625,-2,-2,8,-2,-1,11,-2,-4
1523144919318160,0,-1,-7,6,3,-6,0,-9
1523144919318160,2,0,2,-1,-3,1,4,15
1523144919326684,0,-1,3,0,3,1,-3,-4
1523144919326684,0,2,-7,-8,-3,-3,0,0
1523144919341723,-2,-3,-1,2,-3,8,0,-3
1523144919341723,-3,-1,11,3,-3,-8,-5,-8
1523144919343228,0,1,7,2,-6,-4,0,0
1523144919343228,0,-3,-19,5,16,7,2,1
1523144919364282,-2,1,-6,-15,-21,-12,-1,1
1523144919364282,-2,1,16,2,-3,-4,-2,-4
1523144919365786,0,3,0,2,0,-1,1,1
1523144919365786,-2,-2,-12,1,-1,3,1,-2
1523144919377816,-1,-1,-4,-2,6,0,-1,1
1523144919377816,0,0,1,-2,3,1,-1,-2
1523144919386842,1,-1,2,-1,-13,-1,-2,0
1523144919386842,-2,-4,1,-1,0,-3,-3,0
1523144919401881,-1,-1,-10,-4,-3,-11,-2,0
1523144919401881,-1,-1,5,1,6,6,1,-5
1523144919403385,-1,0,-7,-3,10,0,-1,-1
1523144919403385,0,-7,-4,1,-8,6,1,2
1523144919424441,-2,-1,-1,-4,-1,-5,-1,0
1523144919424441,-4,-2,-4,-6,-6,-11,-8,-10
1523144919425947,2,1,0,3,-4,-1,2,4
1523144919425947,3,2,0,-2,5,-3,2,0
1523144919437977,3,3,6,0,-1,7,0,1
1523144919437977,7,3,3,5,3,7,2,6
1523144919447001,-1,-2,-2,-7,-2,-6,-7,-2
1523144919447001,7,6,5,4,-1,2,7,13
1523144919461540,-8,-3,-2,0,-2,-4,-4,-14
1523144919461540,6,3,2,1,2,3,1,4
1523144919463545,-3,-2,3,-2,-1,-1,0,-3
1523144919463545,-2,-2,-3,-2,0,-4,-1,-3
1523144919484099,2,0,2,-1,4,1,1,4
1523144919484099,-9,-3,-4,-2,-5,-9,-6,-6
1523144919486105,-2,-2,-1,0,3,3,1,-1
1523144919486105,-5,-3,-1,-2,-2,3,-3,-3
1523144919498139,0,1,-2,-1,1,1,-1,0
1523144919498139,-1,0,-7,-1,-4,-5,-2,-1
1523144919506662,2,-2,-5,0,-2,-1,2,2
1523144919506662,-4,7,10,-2,0,-1,-5,-5
1523144919521702,0,-5,-8,-2,1,-1,-4,0
1523144919521702,-2,-11,-4,3,-5,-12,-2,-17
1523144919523205,0,5,-1,-3,0,13,8,11
1523144919523205,-1,-3,-4,-1,3,3,-1,-3
1523144919544260,-1,9,7,-2,-1,-7,-1,2
1523144919544260,-4,0,-11,-5,0,-1,-3,-9
1523144919545764,-4,-14,-5,-1,-15,-7,-5,-12
1523144919545764,-3,-1,1,-2,4,8,2,10
1523144919566823,-1,-6,2,-1,1,-2,2,1
1523144919566823,0,2,0,-4,-3,-11,-1,3
1523144919568326,0,4,-1,-5,0,-14,-2,-4
1523144919568326,3,-6,-5,9,3,6,-4,-7
1523144919580856,-2,-1,0,-3,-3,-8,-2,0
1523144919580856,0,-2,-9,1,1,0,-1,4
1523144919587875,1,4,11,-3,-5,4,0,0
1523144919587875,-2,3,-15,-2,-1,-3,-1,-2
1523144919604420,-3,-9,-10,-1,2,0,-1,-1
1523144919604420,-2,-1,3,-3,-3,-3,0,2
1523144919605924,0,-1,-5,1,2,1,-3,-3
1523144919605924,-5,-8,0,-4,-9,-9,-2,-4
1523144919626479,1,2,-5,0,-3,-2,2,4
1523144919626479,0,2,2,-4,5,14,1,-2
1523144919628483,-2,-1,5,5,7,-12,-4,-5
1523144919628483,-1,0,4,-5,-3,12,0,4
1523144919641017,1,0,-1,2,-2,2,1,-2
1523144919641017,0,-3,-3,-4,-4,-2,0,7
1523144919648035,-1,-2,-26,-3,1,9,1,-4
1523144919648035,-1,1,-4,1,-3,-20,-5,-7
1523144919664078,-2,-1,1,-2,-6,2,0,-4
1523144919664078,0,6,21,4,-2,-2,1,1
1523144919666086,-6,-12,-36,-6,3,-5,-4,-12
1523144919666086,0,1,78,7,2,9,2,22
1523144919686640,-1,-7,3,-2,3,2,6,8
1523144919686640,2,6,4,5,-1,3,2,2
1523144919688144,-2,-3,-21,-7,-6,-8,-7,-6
1523144919688144,-3,0,18,3,-2,-7,-4,-24
1523144919701680,1,-3,4,-6,-1,-2,5,20
1523144919701680,-2,3,10,2,-13,8,0,-2
1523144919703183,-1,1,6,2,27,-4,0,-6
1523144919703183,-3,-4,-51,-6,1,1,-3,-9
1523144919724239,1,0,4,-1,-11,4,-5,-8
1523144919724239,2,-2,-11,-2,16,-2,2,3
1523144919725744,-1,0,12,-2,-7,-2,0,7
1523144919725744,1,2,-1,1,-9,-18,-2,-2
1523144919746802,-1,0,-7,-2,7,3,-2,-7
1523144919746802,-2,-7,-8,-4,-5,1,-2,-3
1523144919748307,2,9,50,9,-8,-7,-1,2
1523144919748307,-3,-16,-34,-10,8,3,1,3
1523144919761840,-2,-1,20,4,-9,-6,-3,-5
1523144919761840,-1,-2,-7,6,9,8,1,0
1523144919763346,0,3,4,-5,1,4,2,2
1523144919763346,1,3,-14,-7,-19,6,1,0
1523144919784404,-3,-2,-6,1,7,1,-5,-2
1523144919784404,-5,-5,-14,-8,-6,-13,-7,-5
1523144919785904,0,-3,1,2,-5,-10,-1,2
1523144919785904,-1,2,6,0,2,8,1,-2
1523144919806458,1,6,33,4,7,3,-1,-5
1523144919806458,-1,0,-10,-4,0,2,0,-1
1523144919808464,-1,-4,-13,0,-3,5,-2,-1
1523144919808464,-1,-3,-2,-3,-8,-7,-4,-1
1523144919820997,-1,0,-21,-3,-3,-6,0,0
1523144919820997,-1,-1,-4,-2,-4,-4,0,1
1523144919828015,1,7,29,0,1,14,0,1
1523144919828015,-3,-9,-22,1,6,-3,-1,-2
1523144919844057,-3,-2,-10,-9,-8,-6,-3,-4
1523144919844057,-2,-1,-6,6,5,5,-2,-8
1523144919846064,1,-1,-3,-1,-1,-8,-1,7
1523144919846064,3,4,1,-1,-9,3,3,0
1523144919866620,-1,-5,-10,-1,4,2,-1,-1
1523144919866620,-1,-2,13,-1,-2,-5,-3,-2
1523144919868122,-3,-3,-10,-2,-2,-2,-1,-3
1523144919868122,-4,0,-6,-5,-2,-9,-2,-1
1523144919881157,-1,1,2,7,1,-4,-1,-2
1523144919881157,1,0,-4,-2,-1,5,2,1
1523144919887677,-1,-5,-6,-3,-2,4,0,-1
1523144919887677,1,-1,2,1,2,0,-1,1
1523144919904219,0,0,-10,-2,-2,-1,-3,-4
1523144919904219,-1,0,7,-2,-1,-8,-1,0
1523144919905722,-2,1,1,1,-2,1,1,-1
1523144919905722,1,1,6,1,1,-3,-3,-1
1523144919926779,-2,0,-2,-3,0,-2,0,-2
1523144919926779,-1,-4,1,-3,-5,2,0,-3
1523144919928284,-1,-1,-3,1,2,-3,1,2
1523144919928284,-2,0,-6,-2,-1,-3,-4,-3
1523144919940314,1,3,-2,-1,2,4,3,3
1523144919940314,-2,-2,-1,-2,-4,-4,0,-1
1523144919949343,-4,-2,-5,-5,-9,-1,-7,-6
1523144919949343,5,6,6,1,24,2,5,7
1523144919964377,-4,-3,-3,0,-9,-1,-2,-5
1523144919964377,-2,-4,3,-2,0,1,-2,-1
1523144919965883,5,2,0,2,-12,-2,4,9
1523144919965883,-2,-1,1,1,18,5,0,0
1523144919986939,3,1,-1,0,-1,-6,-15,-7
1523144919986939,-1,0,-3,-2,-2,-1,2,1
1523144919988443,-4,-4,-1,-2,5,1,-1,-7
1523144919988443,1,-1,-1,-3,-13,-3,2,3
1523144920000976,-3,-2,-4,-2,0,1,4,2
1523144920000976,-2,-3,3,0,-2,3,-5,-5
1523144920007997,1,1,0,-2,-4,-3,0,2
1523144920007997,-2,0,-1,6,0,-5,0,-2
1523144920024036,-1,6,-3,-6,0,8,-2,-2
1523144920024036,-2,-11,-8,1,-4,-13,-2,0
1523144920026042,-2,0,4,-1,5,14,1,0
1523144920026042,0,3,0,0,-1,-4,0,-2
1523144920046595,-2,-4,-6,-3,-3,-7,-3,-2
1523144920046595,5,30,28,-3,-2,-2,-2,-9
1523144920048603,-6,-25,-15,1,3,15,1,-1
1523144920048603,-6,-7,9,-5,-11,-6,-1,12
1523144920060136,2,9,9,-1,-4,-12,2,0
1523144920060136,0,-3,-15,-2,3,7,-3,1
1523144920069157,4,18,-5,-6,-2,-19,-7,-9
1523144920069157,-7,-9,3,-6,-7,16,-4,-5
1523144920084197,-1,-9,-2,4,-6,-6,-4,-8
1523144920084197,-1,0,3,7,21,8,4,1
1523144920085701,0,0,-7,-13,-9,-4,1,15
1523144920085701,-1,0,-4,5,-13,0,-1,2
1523144920106760,-2,-1,-8,-4,5,-1,0,2
1523144920106760,-2,-7,9,-3,-8,-7,-7,-13
1523144920108260,0,-1,-3,2,7,-1,0,-1
1523144920108260,0,-2,-13,-3,-1,-12,-2,0
1523144920120293,-2,-1,13,2,-6,0,0,-2
1523144920120293,-2,-3,-21,-2,-5,-8,-2,2
1523144920129317,-1,1,32,8,4,2,-2,-6
1523144920129317,1,2,-20,-8,-6,-4,0,0
1523144920144359,-3,-9,-25,-4,-2,-6,0,-1
1523144920144359,0,-3,22,3,0,9,0,1
1523144920145866,4,9,43,11,-1,-1,2,9
1523144920145866,0,0,-25,3,12,-2,-4,-10
1523144920166917,-2,-6,-27,-4,0,-1,0,-3
1523144920166917,-3,-4,6,-4,-6,-4,-2,-7
1523144920168421,2,5,19,-3,-4,-11,-4,-6
1523144920168421,-1,-5,-11,-8,-5,-3,1,16
1523144920180453,1,3,-1,14,4,0,1,1
1523144920180453,2,1,-11,1,-1,0,-1,-1
1523144920189477,-4,-5,-29,-7,1,9,-3,-5
1523144920189477,-1,0,15,-3,-1,0,-3,-15
1523144920204016,-2,-4,-19,-10,-4,4,0,7
1523144920204016,0,0,-4,1,1,-2,2,6
1523144920206020,-4,-5,-1,-1,-3,-2,-4,-8
1523144920206020,-2,-3,-22,-1,-3,-5,-3,-5
1523144920226578,2,3,35,3,-2,-7,-2,2
1523144920226578,-2,-3,9,-1,-1,6,-2,1
1523144920228582,-2,-5,-9,-1,-1,-2,6,11
1523144920228582,0,0,-7,5,7,8,-1,-4
1523144920249138,0,7,44,3,2,-2,-2,-3
1523144920249138,-2,-6,-8,-6,-7,-4,-5,-1
1523144920250641,-2,-5,-37,-8,-3,-5,-4,-10
1523144920250641,0,1,30,-2,-11,-4,1,3
1523144920264177,2,1,19,7,12,17,4,3
1523144920264177,-1,-2,-25,-3,-4,-1,0,0
1523144920265687,-4,-4,-27,-1,3,-1,-1,-2
1523144920265687,-1,3,28,1,2,-1,-2,-9
1523144920286737,-1,-2,-13,-4,-5,0,-3,-1
1523144920286737,1,-2,8,3,-2,-5,2,6
1523144920288240,0,-2,-12,1,-2,0,1,-4
1523144920288240,0,1,14,1,0,-4,-1,1
1523144920300273,0,-1,-4,-4,-1,1,-1,-2
1523144920300273,-2,-6,-6,-1,2,2,1,2
1523144920309296,-1,1,14,1,-3,-5,0,-1
1523144920309296,-2,-5,-29,-5,-3,-1,-2,0
1523144920324335,-3,-2,16,-2,0,3,0,-1
1523144920324335,1,5,3,7,1,-2,-1,0
1523144920325841,-2,-1,4,-2,-3,1,0,-2
1523144920325841,1,-1,-4,-4,-7,-7,-3,-1
1523144920346894,-1,-6,-21,-3,-1,-8,-2,-4
1523144920346894,-3,0,6,2,6,21,2,1
1523144920348401,0,-1,-1,-2,-4,-4,-1,0
1523144920348401,-1,-2,-4,0,-3,-6,-2,-3
1523144920360434,-1,-1,3,-1,-9,-15,-2,-2
1523144920360434,1,0,-7,-6,2,15,2,1
1523144920369458,1,0,3,3,8,1,0,0
1523144920369458,-1,-2,4,-2,-1,2,0,-2
1523144920384497,-3,-3,-11,-3,-4,-4,-1,0
1523144920384497,-1,-2,-5,-6,-8,-13,-1,2
1523144920386001,-1,-3,0,-1,-1,5,-1,0
1523144920386001,-1,3,3,0,3,-1,-1,-1
1523144920406553,-3,-3,-5,-3,-1,2,-2,-5
1523144920406553,-1,2,-1,5,-5,-8,0,6
1523144920408560,-1,-4,-6,-4,-2,3,-1,-3
1523144920408560,1,2,5,2,-8,3,-3,-1
1523144920429117,-1,-2,-11,0,4,5,0,0
1523144920429117,-2,-2,0,-3,-2,-4,-1,-5
1523144920430621,-2,0,-4,-7,-13,-12,-5,-4
1523144920430621,5,5,6,6,6,9,10,12
1523144920444154,5,10,6,3,9,9,2,-1
1523144920444154,-5,-10,-6,-6,7,6,-10,-16
1523144920445659,1,-6,-5,4,-7,-6,0,6
1523144920445659,0,-2,-1,-10,-5,-2,0,-1
1523144920466718,-2,0,-2,7,-1,-3,4,6
1523144920466718,-4,-4,-3,-6,-6,-8,6,0
1523144920468220,-3,4,0,2,4,1,-2,-5
1523144920468220,2,-5,-4,-2,0,-3,-3,-4
1523144920480251,1,-2,-2,0,1,-1,-2,-1
1523144920480251,5,1,-1,-2,-8,-6,-1,2
1523144920489276,-8,-4,-2,1,2,1,-1,-3
1523144920489276,-2,-1,1,3,2,-3,-2,-3
1523144920504316,-1,-2,-3,-5,-7,1,-2,-1
1523144920504316,-1,1,0,-1,0,-4,-4,-2
1523144920505819,5,2,2,2,4,0,1,2
1523144920505819,-1,-3,-5,-5,-3,1,-2,-3
1523144920526875,-1,0,5,4,1,3,-2,-4
1523144920526875,1,6,-4,0,0,-4,-2,4
1523144920528379,-8,-16,0,1,0,-7,-4,-11
1523144920528379,-4,-1,-2,-3,-4,-4,-3,-5
1523144920548935,0,-2,-7,-4,-3,-1,5,6
1523144920548935,3,5,3,0,1,2,4,1
1523144920550939,2,9,-1,-2,-9,-15,-1,1
1523144920550939,-4,-9,-4,1,9,25,-7,-26
1523144920564477,-3,-4,-3,-5,-5,-1,-3,8
1523144920564477,0,-1,8,3,9,-3,4,9
1523144920565984,1,3,-3,-4,-1,-6,-2,-3
1523144920565984,-1,3,0,3,-4,-17,-2,0
1523144920594055,0,-2,-19,-5,-5,-20,-5,3
1523144920594055,-2,-2,24,4,7,14,0,-3
1523144920596059,1,-1,2,2,1,13,0,3
1523144920596059,1,1,5,0,0,-7,-2,5
1523144920609094,-2,-4,4,-5,-7,7,1,-5
1523144920609094,-2,-2,-15,-2,-9,-21,-4,-5
1523144920610597,2,3,-15,-4,3,3,1,2
1523144920610597,-5,-8,-14,-5,2,0,0,4
1523144920624134,-4,-1,-3,-1,-4,-1,-5,-9
1523144920624134,-1,-1,-28,-3,-4,0,-4,-13
1523144920625639,-1,-2,25,2,3,6,5,19
1523144920625639,-5,-8,-60,-8,-3,-6,-1,-4
1523144920646694,4,4,46,4,-8,-2,2,14
1523144920646694,-3,-4,-11,-4,-4,3,-4,-6
1523144920648200,-4,0,9,-9,0,-5,-3,-13
1523144920648200,1,5,6,11,2,-6,2,15
1523144920669254,-3,-6,-15,-3,6,9,4,5
1523144920669254,-2,-6,-6,-12,-17,-1,-4,-4
1523144920670759,1,5,39,21,15,7,-3,-5
1523144920670759,2,2,23,-4,-3,2,-3,-6
1523144920684293,1,0,-9,-2,10,-11,-3,-1
1523144920684293,-1,-4,4,-1,-6,-4,1,5
1523144920685797,-4,-6,-37,-12,-14,-6,-2,-6
1523144920685797,1,7,32,10,-1,2,0,0
1523144920706852,1,2,9,2,1,5,-3,-6
1523144920706852,-3,2,-10,-10,-3,-12,-4,-1
1523144920708357,0,-8,-12,7,0,0,0,2
1523144920708357,-4,-9,-6,-5,-3,-5,-1,-3
1523144920729415,-1,0,9,0,-3,0,-3,-6
1523144920729415,-1,-3,0,0,5,0,1,3
1523144920730919,1,2,-14,-5,-3,2,-1,-1
1523144920730919,-1,2,23,5,6,-10,-2,0
1523144920743450,-3,1,18,1,0,22,1,-4
1523144920743450,2,1,3,0,-8,10,4,5
1523144920750472,1,1,6,-5,0,3,-2,-2
1523144920750472,0,-6,-24,-10,-4,-1,-1,-1
1523144920767014,-3,0,-29,1,-5,-14,-3,-6
1523144920767014,1,2,4,7,7,-2,-2,-1
1523144920768519,-1,-3,-10,-7,-2,3,0,-5
1523144920768519,-1,0,5,-3,-6,-2,-2,-11
1523144920789073,0,-1,2,-6,1,1,-1,8
1523144920789073,1,2,1,8,4,1,1,3
1523144920791078,-1,1,-5,0,-5,-11,-2,-4
1523144920791078,-2,-5,-27,-7,-4,0,1,0
1523144920803611,0,2,25,4,4,1,-1,-5
1523144920803611,-2,-3,1,0,-4,-8,-3,-6
1523144920810128,1,0,7,-3,0,1,0,6
1523144920810128,0,7,26,7,2,5,-1,0
1523144920826673,-2,-6,-27,-6,-2,-4,-2,-2
1523144920826673,-2,-2,0,-3,1,-4,2,6
1523144920828177,-1,-1,-3,-3,0,-1,-1,-5
1523144920828177,0,-1,-1,-1,1,2,1,1
1523144920849233,-3,-4,-13,-4,1,13,-3,-8
1523144920849233,0,1,8,-3,-1,-11,-2,-2
1523144920850736,-2,-1,7,2,-8,4,-1,-1
1523144920850736,0,8,62,9,4,-4,0,2
1523144920863772,-2,-4,-25,-4,2,-6,0,-3
1523144920863772,-1,-2,-3,-1,3,7,-1,-2
1523144920877808,-2,-2,-4,-4,-2,-2,-3,2
1523144920877808,-2,0,1,-1,-2,-1,-3,1
1523144920886832,-1,0,-9,0,-5,-8,-4,-11
1523144920886832,-3,-1,2,-3,-7,1,0,2
1523144920888337,0,-2,-8,0,-3,-3,-1,-2
1523144920888337,1,1,-16,-2,17,6,-1,-1
1523144920908894,-2,-1,-4,2,0,-7,-3,0
1523144920908894,-3,-3,-7,-8,-17,-1,0,-3
1523144920915408,-1,0,2,-7,12,2,-1,-2
1523144920915408,1,-1,-10,5,-11,2,0,0
1523144920923430,2,0,5,1,4,-3,0,-1
1523144920923430,0,-1,4,-1,6,7,-2,-2
1523144920930450,-1,-1,2,1,-5,-9,0,0
1523144920930450,-2,-4,-9,-8,-3,6,0,2
1523144920946491,-2,-1,-2,-2,-2,0,-1,-2
1523144920946491,-2,0,0,3,7,-3,-1,0
1523144920948502,0,1,-1,-3,-7,-7,-5,-3
1523144920948502,2,0,-10,-2,-3,-7,3,2
1523144920969052,-4,-1,0,-1,-1,5,-3,-4
1523144920969052,9,-3,1,-1,8,8,9,14
1523144920971056,-21,-1,1,3,-1,3,-1,-5
1523144920971056,-3,-3,-7,-3,-4,-15,-12,-18
1523144920983589,16,4,5,4,-4,3,-1,11
1523144920983589,-22,-5,-2,-1,-6,-9,-7,-12
1523144920990110,12,-2,-2,2,4,0,6,8
1523144920990110,-5,-5,-8,-5,-4,1,7,7
1523144921006650,-1,0,1,-7,-3,3,3,0
1523144921006650,4,-3,-4,10,10,-4,-9,-9
1523144921008155,2,1,0,1,22,0,5,8
1523144921008155,-6,-1,-4,-6,-8,-2,-2,-5
1523144921029215,1,0,0,-1,1,4,-1,-1
1523144921029215,1,0,-1,-2,-11,-4,-1,-2
1523144921030723,-2,3,-7,-2,-4,-11,-5,-1
1523144921030723,5,-10,3,5,0,4,1,5
1523144921043749,-7,-2,-2,-3,-3,-9,-2,2
1523144921043749,-1,2,-1,1,-2,-2,-3,-2
1523144921050268,7,12,11,2,-7,0,-9,-41
1523144921050268,-3,-6,-9,-4,3,2,22,65
1523144921066814,-7,-17,-7,0,-11,-10,-4,-5
1523144921066814,-4,-1,1,-4,3,-3,-5,-16
1523144921068320,3,1,-5,1,4,13,4,15
1523144921068320,2,12,4,-3,-3,6,-5,-17
1523144921089485,-7,-5,-9,1,3,-2,0,-4
1523144921089485,3,-3,6,0,-1,0,1,4
1523144921090991,-3,-5,-13,-7,-9,-6,-6,-5
1523144921090991,0,0,-7,-2,-1,-9,-2,-11
1523144921103020,-1,1,-3,5,5,11,1,6
1523144921103020,3,0,-9,14,-1,-1,0,-4
1523144921112043,0,-4,-12,-8,-11,1,3,7
1523144921112043,-1,1,31,7,1,1,-3,-3
1523144921126583,-1,-1,-5,-13,-8,-7,-4,-9
1523144921126583,0,1,-4,-8,-2,0,-1,0
1523144921128087,1,-1,3,12,4,2,3,3
1523144921128087,-3,-8,10,-7,-1,-9,-4,-7
1523144921149144,-1,5,12,2,0,5,-4,-13
1523144921149144,0,2,18,-1,-8,-6,6,25
1523144921150647,-6,-11,-17,-4,2,7,1,6
1523144921150647,2,3,-1,1,8,8,-5,-13
1523144921162682,1,0,-8,0,1,-3,1,2
1523144921162682,-2,-4,-9,-9,-4,-12,-3,-3
1523144921171704,0,-2,5,0,-15,-15,-1,-2
1523144921171704,1,4,9,6,0,23,-1,-2
1523144921186744,-1,1,18,-2,3,-8,3,2
1523144921186744,1,0,-7,1,4,1,0,-1
1523144921188249,-5,0,19,0,0,-5,-4,-1
1523144921188249,-5,-7,-28,-4,-8,-3,-5,-9
1523144921209303,1,0,-22,0,1,-1,-1,-4
1523144921209303,1,1,23,0,3,1,0,13
1523144921210810,0,-1,-24,-4,-6,-6,1,1
1523144921210810,1,3,7,0,3,3,-2,-3
1523144921222839,-3,-1,-7,-12,-8,-9,-2,-4
1523144921222839,1,-1,-20,10,11,10,-2,-6
1523144921231866,-1,-3,32,-5,-8,5,-4,1
1523144921231866,-2,-3,-27,-6,-15,-12,-1,0
1523144921246904,2,1,6,7,3,3,2,3
1523144921246904,-2,1,-9,-6,-2,-3,-2,-4
1523144921248407,-2,-2,12,1,0,-7,-2,-6
1523144921248407,1,-1,1,1,-3,3,-2,-4
1523144921268962,0,1,26,2,-5,-3,1,7
1523144921268962,-2,-1,14,-1,4,19,3,-1
1523144921270967,-5,-6,-16,-9,2,0,-5,-11
1523144921270967,1,6,17,6,-2,-10,-2,8
1523144921282999,-3,-8,-30,-5,-5,-5,-1,0
1523144921282999,-1,-2,-4,-3,-7,-7,1,1
1523144921292022,0,2,4,1,5,12,3,2
1523144921292022,-1,-1,-19,-5,0,-9,-2,-7
1523144921306564,0,4,1,1,0,0,0,2
1523144921306564,-3,-4,-6,-4,-5,-7,-4,-6
1523144921308568,1,3,14,3,0,-2,-1,-8
1523144921308568,0,-4,-22,-4,3,1,1,3
1523144921329124,0,-1,4,1,2,-5,-3,-4
1523144921329124,-1,-1,0,-3,-6,-5,-2,-5
1523144921331131,-2,-5,-33,-4,4,10,1,5
1523144921331131,2,5,50,4,0,-8,1,-1
1523144921342658,-4,-2,8,1,2,-4,-2,1
1523144921342658,-1,-5,-10,-1,-3,10,-1,-3
1523144921351682,1,-2,-12,-2,-2,-5,-1,5
1523144921351682,-2,-2,-2,3,9,1,-1,-3
1523144921366724,1,-1,-24,-7,-3,-5,0,0
1523144921366724,-2,0,-3,-1,3,1,-1,0
1523144921368227,-1,-2,0,-3,-14,-15,-1,0
1523144921368227,-2,-5,-6,-5,-5,2,-2,-1
1523144921389282,1,3,13,-1,0,4,-2,-1
1523144921389282,-1,-1,-10,2,-4,-13,-4,-2
1523144921390787,0,1,1,4,9,6,1,2
1523144921390787,2,-1,-4,-3,-1,-1,-1,-3
1523144921402818,-2,-1,13,3,1,1,1,-1
1523144921402818,-1,-1,2,-1,-3,-3,0,-2
1523144921411841,-1,1,-5,-2,-2,-2,-3,1
1523144921411841,-1,-3,-10,-3,-2,-2,-2,0
1523144921426881,-1,1,0,-2,0,-5,0,-1
1523144921426881,-1,-1,8,4,-16,5,0,-2
1523144921428390,0,0,7,1,19,2,-2,0
1523144921428390,0,0,-12,-3,-14,-10,0,2
1523144921448941,-5,-5,-1,2,19,11,-3,-8
1523144921448941,3,1,0,-7,1,5,2,4
1523144921450946,-4,-3,-4,0,-9,1,-2,0
1523144921450946,-3,-4,-3,-4,-9,-2,-2,-4
1523144921462978,-1,-2,-7,-9,-14,-13,2,8
1523144921462978,6,6,4,1,10,7,0,-4
1523144921472003,3,1,5,-1,2,15,4,8
1523144921472003,-2,0,2,-1,-10,-3,-2,-3
1523144921486541,-10,-8,-6,-2,-10,-5,-13,-18
1523144921486541,1,0,-4,-6,2,-8,1,4
1523144921488545,3,0,5,1,2,-2,3,5
1523144921488545,1,-4,-2,-1,0,-8,-6,-3
1523144921509103,3,3,-3,4,0,17,10,8
1523144921509103,-3,2,-7,-5,1,-2,-2,-2
1523144921511107,-5,-11,19,2,-10,-10,-3,-3
1523144921511107,-4,0,-7,-2,12,5,1,-3
1523144921532165,3,2,-4,0,-2,3,-3,-2
1523144921532165,-1,1,-4,-2,-8,-13,-2,-1
1523144921533166,0,3,0,-1,-7,-11,-2,-3
1523144921533166,1,1,2,1,2,31,5,3
1523144921546701,2,1,0,0,8,-3,0,1
1523144921546701,-5,5,5,-3,0,-4,-3,-3
1523144921548208,-1,-8,-14,8,2,-11,-2,-1
1523144921548208,-3,-4,3,0,-4,-10,-2,0
1523144921569268,0,2,-3,-2,0,0,-4,-11
1523144921569268,-4,-8,-9,-1,0,-5,-2,-8
1523144921570765,3,5,0,-4,-3,7,6,25
1523144921570765,2,1,2,0,8,4,0,-2
1523144921591820,-2,0,-5,2,-5,-5,-2,0
1523144921591820,-6,-7,-9,-2,4,-1,-6,-8
1523144921593328,-2,-3,-13,1,-8,-2,-10,-24
1523144921593328,0,2,-4,2,-3,3,9,21
1523144921606862,6,5,22,4,6,-1,9,11
1523144921606862,-3,-9,3,-4,-7,-6,-5,-3
1523144921608371,-3,4,-31,-11,0,12,0,2
1523144921608371,1,3,14,1,-3,-6,-9,-14
1523144921628920,-7,-8,-41,-7,-9,-3,-4,-6
1523144921628920,4,5,28,5,0,-5,3,11
1523144921630926,-1,4,56,7,-11,-8,-3,-15
1523144921630926,-2,-2,-8,2,25,7,1,6
1523144921651982,-1,-1,-1,-2,-4,-2,2,2
1523144921651982,0,-6,-39,-2,3,6,-2,-2
1523144921653485,-2,1,-9,-8,-1,-7,-4,-3
1523144921653485,-2,-1,18,4,-16,-16,-3,-9
1523144921666019,-1,-7,6,0,0,1,-1,14
1523144921666019,-1,-1,-69,-4,6,4,0,-2
1523144921673036,3,0,47,13,5,4,0,-2
1523144921673036,-1,-1,-21,-11,-2,-5,-1,1
1523144921689080,-1,-4,6,-1,-6,-1,-6,-7
1523144921689080,-1,-3,-22,-6,-14,-23,-1,-7
1523144921690584,-3,-2,-6,0,3,37,6,17
1523144921690584,1,-2,-21,-3,7,5,0,-2
1523144921711640,0,6,36,4,-1,-4,-2,-2
1523144921711640,-2,1,20,1,1,6,0,3
1523144921717658,-1,-1,-16,-4,-5,-21,-3,-7
1523144921717658,-4,-5,-34,-5,2,-3,-3,-4
1523144921726180,-2,0,13,2,-7,1,0,0
1523144921726180,1,1,17,-4,-2,7,1,-1
1523144921732696,-4,-2,-12,0,0,-8,0,-4
1523144921732696,-2,-5,-45,-8,3,8,-3,-1
1523144921749240,2,4,11,2,2,-9,-1,-1
1523144921749240,0,4,14,-1,-1,9,-2,-2
1523144921750744,-2,-5,-21,-8,4,3,-1,-6
1523144921750744,-2,-6,-1,-6,-13,-7,1,13
1523144921771801,-2,-5,-44,-6,-8,-7,-1,-5
1523144921771801,2,8,82,10,8,9,-2,0
1523144921773305,-1,-3,-7,-2,-7,-16,-4,-14
1523144921773305,0,1,20,0,7,16,1,-3
1523144921785838,-2,-1,-11,2,2,3,2,5
1523144921785838,1,-3,-14,-5,-5,-5,-1,5
1523144921792862,-1,2,20,4,-4,-9,-2,-1
1523144921792862,1,2,26,6,-1,-5,1,-6
1523144921809399,0,-4,-5,-6,-2,2,-1,-2
1523144921809399,-2,-5,-7,3,8,0,-3,-1
1523144921810907,1,-1,-9,-5,-4,-7,-3,1
1523144921810907,-1,-1,-5,0,-6,-7,-1,-3
1523144921831960,1,2,-1,2,-5,12,0,1
1523144921831960,0,-2,-1,1,-1,-5,-1,0
1523144921833464,0,2,2,-5,1,1,-2,3
1523144921833464,-2,0,4,-1,-9,-20,-2,-1
1523144921845997,-1,-3,-5,0,5,11,-1,-2
1523144921845997,-2,-3,-1,-1,4,6,1,-2
1523144921853015,-2,-4,-13,5,-3,-4,1,1
1523144921853015,-1,1,8,1,0,-2,0,-4
1523144921869059,-1,-2,4,0,-2,-1,3,0
1523144921869059,-2,-2,-3,-7,-17,-3,-3,-3
1523144921871063,5,3,6,7,4,-3,3,7
1523144921871063,0,0,5,-3,-1,-5,0,4
1523144921891618,-6,-5,-1,-6,-2,-25,-11,-12
1523144921891618,-5,-6,-16,-31,-7,25,3,2
1523144921893625,3,-2,-4,0,-1,-5,3,7
1523144921893625,4,7,16,20,12,10,-6,-10
1523144921906156,-23,-8,-6,-12,-3,-16,-21,-24
1523144921906156,8,1,-4,2,0,-16,7,12
1523144921913176,-17,-7,-7,-32,-15,-11,-16,-20
1523144921913176,11,1,10,0,5,43,11,17
1523144921929721,2,2,3,-1,-1,-6,2,1
1523144921929721,2,1,3,5,9,-6,-3,-5
1523144921930728,5,-1,-6,5,-11,6,4,5
1523144921930728,-3,0,3,0,4,-12,-2,-2
1523144921951779,3,-2,-3,1,7,7,2,2
1523144921951779,-1,2,2,-3,-12,1,-1,-1
1523144921953283,6,4,-1,-3,-2,-2,3,3
1523144921953283,-7,-9,-6,5,-6,-6,-4,-10
1523144921965816,1,-1,5,-5,-3,10,0,4
1523144921965816,1,3,-2,5,3,-20,-1,1
1523144921972836,-3,-2,-4,2,15,25,0,1
1523144921972836,-6,-2,5,-9,-8,-5,-7,-5
1523144921989379,2,-1,-2,4,5,-3,3,5
1523144921989379,-2,-1,4,7,-1,-5,-3,-1
1523144921995399,1,4,3,4,1,-3,5,5
1523144921995399,-5,0,-2,-4,0,8,-5,-7
1523144922011939,3,-2,-1,3,-2,2,-1,-8
1523144922011939,-3,-1,2,3,-1,-7,-2,4
1523144922013446,0,-3,-6,-3,0,5,5,16
1523144922013446,2,1,-6,-3,0,-6,5,6
1523144922025474,1,-2,10,2,2,2,-1,-2
1523144922025474,-4,-3,-5,0,-5,-6,-7,-13
1523144922034498,-2,-1,1,1,7,10,-1,-9
1523144922034498,-1,-2,-6,-3,-8,-10,-3,0
1523144922049039,3,6,-2,1,0,-1,-1,4
1523144922049039,-2,0,-12,0,-4,-4,0,-4
1523144922051043,-1,-12,-15,-8,4,4,-3,1
1523144922051043,3,14,25,26,7,-1,-2,-4
1523144922071597,-1,-4,-18,-12,-10,-7,-1,0
1523144922071597,-3,-8,-22,-8,-1,0,-2,-3
1523144922073603,0,6,20,7,-2,-4,-3,-4
1523144922073603,-5,-9,-20,-17,0,-4,-5,-6
1523144922085139,-1,-9,-44,-8,-1,-6,0,-12
1523144922085139,4,11,39,18,-3,21,11,24
1523144922094157,-5,-7,-43,-8,5,-2,-5,-2
1523144922094157,-2,-3,-2,-11,-9,-17,-2,-2
1523144922109200,4,12,36,6,1,-4,4,9
1523144922109200,-9,-18,-39,-11,5,5,-8,-18
1523144922110703,1,5,14,-1,-11,-7,-8,-9
1523144922110703,-1,-3,11,7,-1,-10,-2,1
1523144922131757,1,2,-21,-13,-3,-2,10,20
1523144922131757,-4,-6,-13,1,-9,-3,-1,-3
1523144922133261,4,15,76,23,18,2,3,-1
1523144922133261,0,-7,-22,0,-3,4,-5,-13
1523144922145298,-1,-1,1,1,-4,0,0,2
1523144922145298,0,1,11,-2,4,-3,-1,-1
1523144922154317,-4,-5,-21,-6,-4,-11,-3,-7
1523144922154317,0,-2,-2,-8,-7,-14,-3,3
1523144922169357,1,4,24,7,-3,7,0,0
1523144922169357,-1,-3,-5,4,5,1,1,2
1523144922170863,-3,-3,-31,-3,-2,0,-3,-4
1523144922170863,3,6,30,3,1,4,6,6
1523144922191416,-1,-1,-8,0,2,9,-2,-2
1523144922191416,-3,0,0,1,1,2,-2,-7
1523144922193425,-1,-3,-10,-4,-3,-8,0,2
1523144922193425,0,0,-2,-2,-5,-2,1,2
1523144922205456,0,0,-31,-3,0,5,-5,-5
1523144922205456,-2,-6,46,4,-2,-10,-5,-2
1523144922214481,3,1,18,5,2,6,7,4
1523144922214481,0,-1,-14,-4,4,5,0,0
1523144922229018,1,-3,-9,-3,-5,-9,-5,-9
1523144922229018,-3,-1,1,-6,-1,-5,-1,6
1523144922231024,-1,-2,-19,-4,0,3,-3,-4
1523144922231024,-1,-1,8,-7,-8,-1,-1,-8
1523144922251576,0,0,14,8,6,5,3,5
1523144922251576,2,3,-19,0,-6,-6,1,-4
1523144922253081,-1,-3,0,-2,-2,-1,-4,-2
1523144922253081,0,2,-9,-5,-2,-8,-2,-5
1523144922265112,0,-2,8,6,-3,-7,-3,-1
1523144922265112,1,-1,-2,2,3,17,2,1
1523144922274137,-4,1,-3,0,7,-2,-1,-1
1523144922274137,-3,-6,-15,-8,-10,0,-1,0
1523144922289177,1,-2,4,10,3,-2,1,1
1523144922289177,0,4,2,3,1,-3,-3,-1
1523144922290681,-3,-3,-25,-5,-7,-2,-3,0
1523144922290681,-1,2,36,4,5,-1,-2,1
1523144922311740,-2,-4,-11,-7,-1,-3,-1,0
1523144922311740,2,5,-5,5,1,12,1,-3
1523144922313245,1,-2,0,-4,-4,0,0,-1
1523144922313245,-3,-6,-16,1,-1,-6,-1,2
1523144922325274,-1,1,7,6,0,-4,-3,0
1523144922325274,-1,-2,-10,-7,0,-7,-1,-3
1523144922334297,-3,-4,-1,-6,-3,6,0,1
1523144922334297,-1,0,-5,8,8,2,-2,-6
1523144922349336,2,2,7,-4,-6,21,3,11
1523144922349336,2,1,-4,-1,-7,-7,-3,0
1523144922350840,1,-1,8,10,1,-10,0,0
1523144922350840,-2,-1,-8,-6,-2,-3,-1,-3
1523144922371396,-4,-2,3,-6,3,-7,-7,-9
1523144922371396,0,0,1,-5,-6,-5,-2,-10
1523144922373401,1,-1,-3,10,-4,11,12,26
1523144922373401,0,-3,-4,1,26,3,-1,-3
1523144922385433,0,-2,0,5,-5,-6,4,-1
1523144922385433,-5,-1,2,-15,-4,-6,-6,-14
1523144922394456,4,3,2,-2,-10,-9,-11,-14
1523144922394456,4,2,-3,2,-10,9,14,23
1523144922409497,-8,-3,0,-14,6,-7,1,4
1523144922409497,-17,-12,-5,6,-5,-15,-26,-33
1523144922411002,6,2,3,3,-1,3,-7,-6
1523144922411002,-2,-4,-6,-15,-6,-4,6,7
1523144922431556,9,5,2,12,-1,3,13,16
1523144922431556,3,4,-5,4,8,20,6,9
1523144922433061,-7,-1,14,-3,-1,-11,-6,-11
1523144922433061,-4,-6,-9,0,1,-5,-8,-8
1523144922454115,0,-1,1,-6,-7,-2,-3,-5
1523144922454115,4,4,4,3,2,-5,7,10
1523144922455620,-2,-4,-14,-3,1,-4,-2,-1
1523144922455620,-1,-3,4,2,-7,2,-2,-1
1523144922469156,-3,4,3,-1,5,3,-2,-7
1523144922469156,1,-1,-3,-3,-4,-4,0,-2
1523144922470660,1,-5,-13,-4,2,2,0,1
1523144922470660,-2,1,-13,-5,-7,-1,0,-2
1523144922491718,-4,-3,1,7,1,-2,-3,-1
1523144922491718,-1,-4,12,-4,1,-5,-1,3
1523144922493219,0,2,1,3,-2,4,2,-1
1523144922493219,-1,-4,-16,-5,-1,-1,-4,-9
1523144922514277,-1,-4,-16,-10,-2,3,-8,-11
1523144922514277,-1,6,35,1,-3,0,1,9
1523144922515780,-1,-3,2,3,10,6,-2,-22
1523144922515780,-4,0,-21,-2,-1,-3,13,30
1523144922527811,-2,-1,23,0,1,9,-4,-5
1523144922527811,4,2,-5,-7,-7,-9,0,-2
1523144922536836,-5,-4,-14,-10,-14,-7,-8,-13
1523144922536836,3,6,9,20,-2,4,-2,4
1523144922551875,-4,-5,-8,-13,4,-4,-1,-2
1523144922551875,-2,-6,-42,4,1,13,1,1
1523144922553382,-1,5,32,-11,-11,-9,-4,0
1523144922553382,-3,-7,1,-3,-4,-4,-5,-9
1523144922574436,0,2,-4,6,-6,-3,2,7
1523144922574436,2,0,17,-2,0,-8,-1,1
1523144922575939,-1,3,-7,-7,-3,-10,-2,6
1523144922575939,-3,-4,-17,-4,9,13,5,-7
1523144922588473,1,-4,26,8,5,3,-4,0
1523144922588473,2,0,-7,-1,3,-6,2,7
1523144922595491,-1,-2,-19,-3,1,-1,7,16
1523144922595491,0,-1,10,-1,5,1,-6,-8
1523144922611537,-4,-3,-16,-3,-5,3,-6,-17
1523144922611537,-2,-4,-12,-2,-4,-15,-2,-1
1523144922613543,5,3,15,4,8,7,6,20
1523144922613543,2,1,-5,-2,-3,4,0,-1
1523144922634095,-1,0,-2,-6,-6,-13,-1,-1
1523144922634095,-1,0,18,2,4,8,1,-3
1523144922636100,-5,-2,-8,-1,-1,-2,-6,-13
1523144922636100,1,1,-1,-2,-4,1,-4,-6
1523144922648635,0,-2,-7,-1,1,-9,-3,-2
1523144922648635,-1,-1,-4,2,0,-3,0,1
1523144922655152,1,3,-3,2,-7,3,0,-2
1523144922655152,2,1,-3,-2,7,-4,-3,0
1523144922671695,-4,-10,20,7,-5,13,-1,1
1523144922671695,3,7,3,-9,-6,0,0,0
1523144922673199,-3,-5,-5,-3,2,0,0,2
1523144922673199,-3,-1,5,5,-4,-7,-4,-3
1523144922694257,1,4,-4,4,13,5,-2,-7
1523144922694257,1,-2,1,2,3,3,0,10
1523144922695759,-1,-1,-1,-4,-5,1,-1,-11
1523144922695759,0,0,6,-8,-8,-5,-1,12
1523144922708294,0,-2,-7,-9,-5,-2,2,2
1523144922708294,-2,-3,4,8,0,5,2,-3
1523144922715310,-1,-3,-16,-3,9,-3,-3,-5
1523144922715310,-1,-1,23,0,-5,4,-3,-7
1523144922731854,2,2,-13,2,-5,-6,-1,2
1523144922731854,-2,-3,13,-1,0,-3,-2,-1
1523144922733358,-2,-6,-11,-4,-4,-2,0,-2
1523144922733358,-3,-4,-10,-1,0,-4,-2,-7
1523144922754415,3,5,20,-2,-3,-6,-2,3
1523144922754415,1,1,-15,3,-3,5,5,5
1523144922755921,-1,-8,1,3,5,-2,-1,0
1523144922755921,-3,-2,-4,0,0,-10,-3,-6
1523144922768453,-3,-5,-15,-2,2,21,3,1
1523144922768453,-4,-1,-9,-6,0,-4,-3,-10
1523144922775471,-2,1,14,4,4,1,0,4
1523144922775471,0,0,14,-2,-18,-3,-3,0
1523144922791514,-1,0,-2,-7,-2,-15,1,7
1523144922791514,-1,-2,-4,7,4,9,-1,3
1523144922793519,-1,-1,-1,9,2,1,1,-2
1523144922793519,-2,-2,-1,-4,-4,-6,-5,-6
1523144922814073,-3,-2,1,1,-5,-8,-2,-1
1523144922814073,1,-1,-5,-4,-3,17,1,1
1523144922816078,1,5,5,0,-8,-10,-2,1
1523144922816078,-2,-2,-6,0,9,3,-1,-1
1523144922828611,0,-1,2,-6,-1,-3,-1,-3
1523144922828611,-1,-2,0,1,1,9,2,0
1523144922835130,-3,-1,-3,0,-3,-5,-1,-3
1523144922835130,3,1,2,2,1,7,0,0
1523144922851673,-1,-1,-8,-3,-4,-4,-4,-3
1523144922851673,-1,3,0,-1,-2,-14,-5,-6
1523144922853680,-3,-11,-6,0,-1,2,2,2
1523144922853680,0,3,-2,-3,1,-4,-2,-4
1523144922874235,-2,2,0,-1,0,-9,-5,-17
1523144922874235,-2,-2,-5,-2,-6,-4,0,10
1523144922875738,3,1,-1,-5,-8,1,5,13
1523144922875738,-3,-9,6,0,7,-7,-2,-1
1523144922888772,-2,-5,-4,1,-5,7,-1,-11
1523144922888772,-2,-1,-2,-5,2,-5,-5,-14
1523144922895294,-2,5,0,1,0,-6,-3,-3
1523144922895294,0,4,-3,-5,-1,7,3,1
1523144922911833,-4,-11,-3,2,-3,10,-2,-9
1523144922911833,4,0,-4,-4,4,-4,3,6
1523144922913343,0,0,0,-5,-24,-6,-3,7
1523144922913343,-6,-2,-4,6,17,-10,7,5
1523144922934393,-3,3,0,-5,-20,0,-8,-10
1523144922934393,-6,-6,-4,0,16,-3,-8,-14
1523144922935898,4,0,0,-1,2,12,-6,-6
1523144922935898,1,-1,-2,-1,-6,-6,-3,-2
1523144922947933,1,1,2,0,-1,-10,8,17
1523144922947933,-1,-1,-2,1,-1,-9,1,5
1523144922956953,-1,1,1,-2,-1,2,-5,-6
1523144922956953,-2,-3,-1,-6,-7,-1,-5,-3
1523144922971495,1,-2,-3,10,6,4,4,7
1523144922971495,1,8,10,-6,-9,1,0,4
1523144922973501,-3,-7,-12,0,10,-5,-1,-4
1523144922973501,-1,-1,5,-4,-8,5,-2,-8
1523144922994051,1,8,7,-8,0,-9,-2,8
1523144922994051,-3,-6,-5,7,5,1,-3,-3
1523144922996060,-5,-6,-11,-1,-1,-2,-3,-16
1523144922996060,1,-2,4,4,1,-3,4,17
1523144923008090,0,-1,-14,-5,2,-1,2,4
1523144923008090,-1,6,4,1,-12,-10,-3,-1
1523144923016612,0,-5,4,-1,12,7,-2,-35
1523144923016612,-1,-5,-33,-4,-4,13,-2,0
1523144923031654,4,7,6,11,9,-1,6,17
1523144923031654,-2,-8,-29,-10,-10,-11,-1,8
1523144923033156,-8,-5,-52,-5,-1,-10,-4,-6
1523144923033156,2,6,48,10,-5,-15,-12,-27
1523144923054211,0,-4,-9,15,9,15,2,3
1523144923054211,-2,-2,-14,-18,-16,-9,7,7
1523144923055716,3,4,22,23,15,9,3,14
1523144923055716,0,2,-27,-14,-1,14,1,4
1523144923067800,-4,-2,0,-13,8,-19,-7,-11
1523144923067800,-5,-3,-1,13,5,18,-7,-13
1523144923076825,1,0,12,-13,-11,-1,-1,-8
1523144923076825,4,4,30,13,-2,-5,11,47
1523144923091863,-2,-8,-17,0,-14,-10,-2,-7
1523144923091863,-5,-2,-16,-7,7,3,-2,-10
1523144923093371,0,-2,20,-4,-12,-8,-4,-3
1523144923093371,-2,0,11,2,0,-5,-5,-17
1523144923114423,-1,0,10,-7,-1,23,1,-3
1523144923114423,1,0,40,10,7,-9,1,5
1523144923115928,-1,5,-1,-4,-9,2,-4,8
1523144923115928,-4,-7,-12,-2,-5,-19,0,-8
1523144923127960,-2,-4,-9,-6,11,32,0,-3
1523144923127960,3,4,1,0,3,7,0,4
1523144923136984,-3,-1,-3,-2,-4,4,5,13
1523144923136984,-2,-1,-4,-1,-10,-10,-3,-10
1523144923151522,-1,-1,-2,-2,-3,-20,-3,1
1523144923151522,-1,-2,0,1,-4,-1,-6,-13
1523144923153528,0,-4,3,-7,2,4,8,5
1523144923153528,-2,-1,-13,-1,1,0,-1,3
1523144923174084,-1,-1,-10,-1,-7,-11,-5,-13
1523144923174084,-2,-7,16,-4,-3,1,0,2
1523144923176087,-1,2,14,4,3,-4,0,7
1523144923176087,1,3,-14,-7,-4,4,-4,-7
1523144923187619,-2,-1,5,3,-7,0,0,0
1523144923187619,1,-6,-9,-6,-2,-8,0,0
1523144923197146,0,2,17,14,10,17,4,8
1523144923197146,1,2,-2,-7,1,1,-6,-5
1523144923211683,-2,-2,-13,-6,-5,-9,-5,-12
1523144923211683,1,3,-11,7,-1,4,6,16
1523144923213187,-2,-1,-7,-6,-4,-9,-3,-7
1523144923213187,-2,0,-1,0,-10,7,-1,-1
1523144923234242,-1,-5,-6,0,-2,-11,-2,-1
1523144923234242,-2,0,-14,-3,-1,-1,-4,-9
1523144923235746,3,3,25,4,-5,-2,-2,2
1523144923235746,-3,-4,4,-1,4,-8,2,4
1523144923247779,1,4,-6,-2,0,14,1,3
1523144923247779,-2,-10,-2,4,-7,0,0,-5
1523144923256801,1,6,11,-5,4,-5,-1,-1
1523144923256801,-1,-5,-30,-5,-4,-1,-2,-2
1523144923271841,-1,5,20,0,-2,-6,1,1
1523144923271841,1,0,-2,9,3,4,0,1
1523144923273346,-2,-2,-22,-8,-1,0,-1,-2
1523144923273346,-2,-3,-10,0,2,-2,-2,-4
1523144923294403,-2,1,9,-4,-2,-10,-5,-11
1523144923294403,-1,-1,4,-6,-3,22,2,-5
1523144923295907,-1,-5,-20,-4,-4,-6,7,15
1523144923295907,0,2,12,5,-5,1,-1,-4
1523144923307940,0,-2,-3,-2,4,0,-2,2
1523144923307940,0,3,-2,-10,-12,-7,-7,-12
1523144923316962,-2,-5,-5,8,8,-1,-2,-6
1523144923316962,0,0,4,-5,4,5,2,2
1523144923331514,0,-1,3,1,-8,-8,-2,-1
1523144923331514,-1,-1,2,5,11,1,0,3
1523144923333505,-3,-1,-4,-7,-7,-10,-3,-1
1523144923333505,-1,0,8,7,3,4,1,0
1523144923354063,-3,-4,-3,-6,-2,-5,-2,1
1523144923354063,3,3,3,-1,11,-1,2,3
1523144923356065,-1,-1,-3,-7,-8,-1,-1,0
1523144923356065,-1,-4,1,2,3,3,2,-4
1523144923368098,-1,-3,4,-1,0,4,-3,-1
1523144923368098,1,0,-5,4,11,-6,6,8
1523144923377124,-4,-6,2,-3,-6,1,2,1
1523144923377124,-3,-1,-4,-13,-4,-8,-9,-7
1523144923391662,0,6,-2,15,-1,-6,-8,-7
1523144923391662,3,-3,6,-2,-10,0,3,9
1523144923393169,3,3,-4,-1,7,9,0,-3
1523144923393169,-2,0,2,-4,-5,-2,-5,-4
1523144923414221,0,-3,-3,-9,3,1,2,3
1523144923414221,-5,0,-2,9,-13,-6,-5,-9
1523144923415726,3,2,5,10,11,-4,1,4
1523144923415726,-2,-6,-3,-5,-29,-7,0,2
1523144923437282,-1,3,1,2,35,18,5,-2
1523144923437282,1,-5,-7,-4,-5,-5,3,8
1523144923442796,-1,1,6,-4,-7,-5,-3,-5
1523144923442796,0,0,-3,6,7,-6,-1,1
1523144923451822,-3,-3,-2,-1,-7,2,1,2
1523144923451822,-4,-7,-2,-5,1,1,-7,-15
1523144923453326,-2,0,-15,-4,-5,-10,-2,8
1523144923453326,1,2,7,-2,1,-2,-1,-2
1523144923474381,-2,-4,-5,0,-3,17,4,4
1523144923474381,-4,-8,-11,-1,4,-2,-6,-10
1523144923475885,1,3,12,3,-4,-5,-9,-11
1523144923475885,1,2,-10,-3,-2,-3,9,18
1523144923496946,1,5,0,5,-6,-6,2,8
1523144923496946,1,9,36,-3,-1,-8,-2,-2
1523144923498447,-4,-6,14,11,-8,16,-1,1
1523144923498447,-7,-5,-12,1,0,-6,-3,-7
1523144923510979,0,-3,48,-1,-5,-3,1,9
1523144923510979,2,4,-18,-2,4,44,5,0
1523144923517997,0,6,8,-8,-3,-3,-3,-9
1523144923517997,-1,-7,1,4,9,1,-5,-7
1523144923534041,-6,-10,-43,-4,-14,-23,-8,-13
1523144923534041,-2,2,8,-4,-11,-17,0,11
1523144923536045,3,5,23,1,-6,5,1,1
1523144923536045,-1,0,-4,2,23,16,0,-5
1523144923556601,-3,-9,-32,-10,-16,-10,-5,0
1523144923556601,-1,-1,-15,2,21,-7,-3,-5
1523144923558105,-2,-2,-28,-15,-5,-2,-2,-5
1523144923558105,2,-3,6,16,11,-19,4,11
1523144923570137,0,-1,3,0,8,16,4,7
1523144923570137,-2,3,-5,8,-1,-1,-4,-6
1523144923579163,-4,-5,2,3,2,0,-4,-15
1523144923579163,2,0,-1,-6,-3,8,4,3
1523144923594199,1,-1,9,1,2,-17,-2,-3
1523144923594199,-2,-2,-8,-12,-13,-9,0,6
1523144923595705,-1,0,-10,-3,-4,-1,-3,-3
1523144923595705,-1,-1,10,2,0,7,-2,-4
1523144923616760,0,2,6,-1,-1,0,0,0
1523144923616760,-1,-3,6,-10,-13,-11,-2,1
1523144923618264,-1,-5,-25,8,12,-5,2,1
1523144923618264,0,3,2,-12,-7,4,-4,-2
1523144923630797,0,1,5,1,3,-1,-1,1
1523144923630797,-1,-4,-10,-2,-7,-3,-3,-5
1523144923637816,-1,-1,-8,0,2,-5,1,2
1523144923637816,1,3,-9,-5,2,11,4,-1
1523144923654362,-5,-6,0,-2,-6,-8,-7,-13
1523144923654362,1,3,-6,1,-3,15,1,9
1523144923655870,-2,-5,-16,-5,1,2,-4,-8
1523144923655870,1,1,14,6,-4,-15,7,9
1523144923676418,-1,4,-15,1,1,-10,-4,-4
1523144923676418,1,1,9,-1,4,-1,1,-3
1523144923678430,-2,-2,-13,-4,-4,8,1,-1
1523144923678430,-4,3,11,7,-3,2,-4,-5
1523144923691461,-2,-3,4,-7,-2,4,0,0
1523144923691461,-1,-3,-12,-2,-3,-5,-3,-5
1523144923697977,1,1,14,-2,-5,-16,-2,3
1523144923697977,-2,-3,-12,-4,-2,1,-3,-6
1523144923714536,-2,0,4,-8,-6,1,0,5
1523144923714536,-3,-3,7,14,1,-12,-3,-4
1523144923716025,-1,-2,-8,-7,-6,0,-1,2
1523144923716025,-1,-3,14,-1,-4,12,-1,-2
1523144923736581,3,6,15,3,6,9,4,2
1523144923736581,-1,-2,-2,-5,0,-4,-2,-7
1523144923738084,-2,-1,4,3,0,-10,0,4
1523144923738084,-2,-6,-21,-3,-5,7,-1,2
1523144923751122,0,-3,-41,1,5,3,-1,-3
1523144923751122,4,9,91,4,-4,2,2,-2
1523144923757634,-3,-3,-4,-2,0,-7,-2,-1
1523144923757634,-1,-4,-3,-5,-5,-10,-7,-7
1523144923774185,0,-4,-9,-2,-3,1,0,3
1523144923774185,0,0,-26,-7,-3,-4,0,3
1523144923775684,1,2,7,-1,-3,-5,2,-2
1523144923775684,-1,4,6,-9,2,4,-3,0
1523144923796238,-2,-1,6,19,6,-2,1,-4
1523144923796238,-1,-3,-19,-3,3,5,-1,-2
1523144923796739,0,0,14,-1,-2,-1,-1,-1
1523144923796739,0,0,-19,-6,-8,-11,-3,-2
1523144923810274,1,-1,13,0,-11,-3,2,4
1523144923810274,-2,0,-2,1,10,7,0,-1
1523144923818296,-1,-1,-4,0,2,-4,1,2
1523144923818296,-1,1,3,0,7,0,-2,-1
1523144923833336,-2,-4,3,-7,-12,4,-2,-3
1523144923833336,-2,-2,-4,3,-3,-4,-1,1
1523144923834340,0,-2,-6,-6,-1,1,-1,-2
1523144923834340,-2,-1,0,9,0,-4,-1,-2
1523144923855899,3,3,13,-4,0,-10,-3,1
1523144923855899,-1,-1,-12,-4,1,3,1,-2
1523144923856905,-4,-4,-2,-1,4,10,-1,-1
1523144923856905,-1,-1,2,-1,-7,-8,-2,1
1523144923870435,-9,-5,-7,-5,1,0,-5,-12
1523144923870435,1,-2,-7,-2,-1,-4,0,2
1523144923878456,-2,-3,-1,2,3,1,-1,0
1523144923878456,-13,-8,-7,-8,-21,-12,-6,-12
1523144923893495,9,7,10,4,8,11,9,13
1523144923893495,0,-4,-9,-5,-11,-18,-17,-10
1523144923894499,2,-3,5,2,-16,3,2,4
1523144923894499,-5,-3,-5,-2,6,5,-2,-3
1523144923916059,-1,1,0,8,9,6,7,-3
1523144923916059,-1,2,3,0,-7,2,6,9
1523144923917060,0,0,0,2,-4,0,1,4
1523144923917060,3,2,3,9,4,-1,-1,4
1523144923930595,-5,-9,-5,-5,-2,-5,-6,-8
1523144923930595,0,0,-4,-11,-16,-7,0,2
1523144923938620,-4,-5,-8,-3,-5,-4,-5,-9
1523144923938620,3,5,-8,-3,6,13,3,3
1523144923953657,2,7,37,7,5,-5,-5,4
1523144923953657,-2,-2,10,-3,1,1,-3,-15
1523144923954158,-1,5,4,5,-2,-4,1,8
1523144923954158,-5,-19,-43,-10,-2,-9,-7,-16
1523144923976216,6,11,84,16,-1,2,3,24
1523144923976216,-1,2,-18,-8,4,1,3,3
1523144923976719,1,3,9,2,5,18,-2,-9
1523144923976719,3,3,-16,-1,3,-2,5,8
1523144923998276,-5,-3,47,-14,-7,1,-6,-12
1523144923998276,1,0,-15,6,-9,-18,0,2
1523144923999280,-4,-10,-41,2,27,22,-8,-20
1523144923999280,0,7,8,5,0,3,7,23
1523144924013322,-3,-4,-13,-14,-14,-18,-11,-15
1523144924013322,-2,-4,-17,-6,-4,14,-4,-17
1523144924014319,1,1,-2,6,29,-15,13,51
1523144924014319,1,-2,-5,-15,-20,-9,-5,-11
1523144924035876,-4,-4,-17,4,-4,15,-1,-7
1523144924035876,2,6,9,23,13,0,1,1
1523144924036879,0,0,5,-8,-10,-7,-8,-17
1523144924036879,0,0,16,0,5,-4,-2,-2
1523144924058438,-5,-10,-49,-10,-9,-24,-3,6
1523144924058438,0,5,20,7,1,18,2,-7
1523144924059439,1,3,6,-5,-7,-4,-1,-10
1523144924059439,-1,2,7,3,5,-4,0,5
1523144924073477,2,-1,-31,-6,-11,-9,-2,-10
1523144924073477,-4,-3,-7,-3,10,13,4,14
1523144924074476,-3,-7,6,-8,-15,-11,-1,-2
1523144924074476,3,3,14,-3,0,30,0,-4
1523144924096035,-2,-4,-27,6,4,-2,-4,-5
1523144924096035,-2,-5,6,-5,0,-8,-2,-1
1523144924096541,0,3,4,0,-4,-19,0,7
1523144924096541,-1,-3,11,0,-1,0,-3,-13
1523144924110574,1,3,-16,-6,-4,6,2,3
1523144924110574,0,-3,3,2,3,-7,0,3
1523144924118598,-1,-3,-12,-7,-7,3,-4,-10
1523144924118598,1,1,11,3,0,-7,-2,3
1523144924133635,-2,0,-10,-4,5,2,2,0
1523144924133635,-3,-4,-3,-5,-4,-6,0,2
1523144924134137,-1,0,0,-2,-7,0,1,4
1523144924134137,0,-6,-20,-4,9,5,1,-5
1523144924156195,-2,2,31,12,4,2,2,11
1523144924156195,-1,-4,-18,-10,-7,-7,-4,-8
1523144924156700,0,2,6,-5,1,3,-2,-3
1523144924156700,-3,1,4,11,0,-6,-3,-1
1523144924170256,-1,-3,-15,-8,-7,-6,-3,-18
1523144924170256,-2,-1,0,1,1,15,4,15
1523144924178756,0,2,5,-3,-5,-7,0,-3
1523144924178756,1,2,-14,-3,4,0,-5,-3
1523144924193293,1,-1,-2,4,9,5,1,0
1523144924193293,-3,-1,8,-1,-5,-8,-3,-7
1523144924194297,-4,-3,-41,-5,0,2,-3,-6
1523144924194297,1,6,34,10,-2,-3,-1,-4
1523144924215855,-1,-3,-16,-8,-6,-11,-2,-1
1523144924215855,-2,-6,-1,-5,-5,-9,-3,0
1523144924216856,0,1,12,2,9,3,-1,-5
1523144924216856,-2,-3,1,-1,1,-9,-1,-6
1523144924230392,-1,-4,-8,-4,-3,4,2,9
1523144924230392,-4,0,10,1,8,9,1,-4
1523144924238415,2,-1,4,2,2,0,-1,0
1523144924238415,-1,-1,2,-4,-2,-4,-2,-1
1523144924253455,0,0,6,0,-3,2,-1,2
1523144924253455,0,-1,-16,-9,-7,-12,-3,-1
1523144924254457,-2,-3,9,12,1,-1,-1,-5
1523144924254457,-2,1,2,-3,-2,17,0,3
1523144924276014,-1,-2,-15,-4,5,-1,-2,-4
1523144924276014,0,0,-7,-1,-2,3,-3,-1
1523144924277017,1,1,17,-3,-2,-7,0,3
1523144924277017,-1,-5,-17,0,-6,-14,2,1
1523144924299076,-4,0,7,0,1,7,0,-2
1523144924299076,0,0,-2,-2,2,-6,-2,-2
1523144924300078,-1,1,0,1,-4,11,-1,-9
1523144924300078,-2,-2,-7,-6,-7,-9,-1,5
1523144924313619,-2,0,7,0,-4,-7,-2,-2
1523144924313619,-1,-3,-6,-3,7,0,-3,1
1523144924314120,-1,0,6,1,-6,-7,-1,-1
1523144924314120,-3,0,-3,-11,2,1,-2,-4
1523144924336173,-1,-2,-4,6,-3,-7,-1,-1
1523144924336173,0,-1,1,3,-3,5,0,-2
1523144924336676,-1,-5,-2,-6,0,0,1,1
1523144924336676,-2,0,11,2,1,5,0,-2
1523144924359237,0,0,-6,-9,-1,-1,-1,2
1523144924359237,-1,1,3,3,-10,-11,-2,-2
1523144924360238,-2,-2,-9,1,2,4,0,0
1523144924360238,0,-1,1,-8,-12,11,0,2
1523144924373275,-1,-1,-7,-1,0,3,0,-5
1523144924373275,-3,-1,-2,-3,-14,-6,-2,1
1523144924374275,2,3,-1,-1,10,16,4,7
1523144924374275,0,1,3,4,-2,-5,1,-2
1523144924395832,-3,-6,-7,-5,10,1,-7,-8
1523144924395832,2,3,4,11,5,6,3,15
1523144924396836,-5,-3,-4,4,-1,-3,-8,-19
1523144924396836,3,0,-1,-1,0,-5,11,13
1523144924419395,-6,-1,-3,2,-6,-2,-12,-18
1523144924419395,-4,-4,7,-8,-3,-14,-6,-4
1523144924419898,7,1,3,3,-10,1,6,20
1523144924419898,-4,2,0,-1,21,4,-2,-6
1523144924433432,-1,-1,2,11,-7,0,4,2
1523144924433432,-1,1,-2,-6,9,3,3,-1
1523144924434436,-3,-3,-7,-5,-8,-6,-2,-4
1523144924434436,0,-5,-3,-3,-9,-4,-1,-2
1523144924455995,3,6,4,-7,6,-1,1,5
1523144924455995,3,-2,-11,4,5,3,-2,-3
1523144924457000,-2,3,17,-2,-4,-5,-2,0
1523144924457000,-2,-4,4,8,-2,-4,-8,-3
1523144924479558,3,0,-20,-4,0,1,2,-1
1523144924479558,3,11,33,5,1,2,3,6
1523144924480061,-5,-16,-63,-16,-5,-6,-4,-3
1523144924480061,0,2,40,16,0,-4,-2,-6
1523144924493595,3,4,33,9,1,-3,1,1
1523144924493595,2,-5,-4,-14,-7,2,3,13
1523144924494095,-3,1,-49,-19,-1,-10,-5,-1
1523144924494095,1,1,51,-3,3,17,-5,-22
1523144924516153,-2,-6,-17,7,23,9,11,31
1523144924516153,-3,-5,-10,16,1,-8,0,-11
1523144924516654,2,1,-4,-1,-2,-8,-5,-4
1523144924516654,-4,-2,-64,-14,-10,-4,-1,7
1523144924539215,-2,0,-11,-2,3,8,-2,-13
1523144924539215,-3,-5,17,0,-2,-5,-7,-14
1523144924539724,1,1,21,3,8,-2,1,21
1523144924539724,0,-3,-27,2,-2,-14,-2,-8
1523144924553251,-2,-5,-25,-10,-16,24,3,5
1523144924553251,-2,-1,-15,1,5,-8,1,4
1523144924554255,-2,-1,18,4,-1,-2,-5,-17
1523144924554255,3,3,-2,-2,1,-4,-1,4
1523144924575812,-2,2,10,-5,-6,-2,-2,-1
1523144924575812,-1,-8,-1,-5,-3,0,-5,-23
1523144924576815,1,6,24,10,6,9,3,3
1523144924576815,-5,-5,-11,-4,-4,-11,-1,5
1523144924599375,-3,-1,-1,-5,-6,-9,-2,1
1523144924599375,1,5,2,4,-6,5,1,0
1523144924599876,-3,-1,-5,2,9,8,2,-2
1523144924599876,-4,-6,-10,-4,5,7,0,3
1523144924613414,0,2,9,-1,-3,-12,-3,-11
1523144924613414,-1,3,-10,-6,-6,5,0,4
1523144924614416,-1,1,18,-1,-9,-15,-6,-1
1523144924614416,-3,-4,-3,2,3,2,1,0
1523144924635972,1,-2,-4,-5,-9,-6,-3,-1
1523144924635972,-1,1,15,-3,1,-5,-2,0
1523144924636975,-1,0,4,-2,4,14,0,-1
1523144924636975,0,-2,-9,9,1,-10,-2,-1
1523144924659036,1,3,10,-5,-5,-2,-1,-4
1523144924659036,-4,-11,-28,-5,-3,-3,-1,3
1523144924660037,-2,-4,-5,-1,8,-3,0,3
1523144924660037,0,4,26,1,-20,1,1,0
1523144924673575,1,7,29,7,-1,-5,1,1
1523144924673575,1,0,-9,-2,2,1,-2,-4
1523144924674577,-2,-3,-7,0,-2,-2,0,-4
1523144924674577,-3,-6,-18,-7,-1,-11,-10,-15
1523144924696131,-1,1,11,10,2,10,1,-8
1523144924696131,3,2,7,-3,5,11,12,34
1523144924696634,-1,1,1,3,-6,-2,-1,-5
1523144924696634,-2,-2,-9,-7,-1,-3,-4,-2
1523144924719192,-2,-1,-7,2,-6,-11,-6,-9
1523144924719192,-3,-2,-3,-4,2,-1,-6,-10
1523144924719695,-4,-6,-38,-5,-9,-11,0,1
1523144924719695,2,7,48,6,6,8,3,4
1523144924733732,-1,-4,-12,-5,0,11,-1,0
1523144924733732,0,-1,-7,1,8,-15,1,-2
1523144924734233,1,1,-9,-10,-7,12,0,-1
1523144924734233,-3,-5,-15,7,-17,-10,-3,-3
1523144924756294,-1,-5,-9,-3,11,-3,0,3
1523144924756294,-5,-3,-6,-6,-3,-1,-2,-4
1523144924756795,1,1,20,8,-1,-4,-2,-4
1523144924756795,-2,-1,-11,-8,6,2,0,-8
1523144924779357,1,0,-1,-8,-17,-6,1,14
1523144924779357,-3,-8,-16,1,6,13,-2,-8
1523144924779859,-1,0,8,-1,-4,4,1,-3
1523144924779859,2,2,2,-1,8,4,2,0
1523144924793391,0,-3,-16,-2,4,-5,-2,0
1523144924793391,-1,2,10,-4,-10,-7,-4,-6
1523144924794395,-1,0,7,1,0,-4,-1,1
1523144924794395,-1,0,-3,2,3,10,2,6
1523144924815951,-2,-4,-2,-4,-2,-9,-1,-2
1523144924815951,-2,-1,3,1,-13,-7,-1,0
1523144924816957,1,2,8,-1,-1,-9,1,-2
1523144924816957,0,-1,-8,-1,11,15,1,2
1523144924839016,0,-1,3,-3,-5,-3,-1,-1
1523144924839016,-3,0,1,1,7,0,-3,-5
1523144924840014,-2,-2,-5,-7,-1,-4,1,1
1523144924840014,-1,-3,9,3,-2,-9,-2,1
1523144924853554,1,-1,2,30,6,4,-1,-1
1523144924853554,2,1,1,0,-8,-5,-1,-1
1523144924854553,-1,-4,-8,-6,-7,-7,-1,-2
1523144924854553,0,3,-1,-5,4,-7,-2,6
1523144924876113,-2,-3,-1,-8,-9,-1,-4,-4
1523144924876113,1,6,7,1,2,11,5,4
1523144924877115,0,-7,-8,2,-9,5,8,8
1523144924877115,-15,-9,-8,-6,7,-12,-23,-28
1523144924899175,2,-5,-7,-7,4,-11,16,21
1523144924899175,-2,0,-2,-5,1,18,-5,-16
1523144924900174,0,2,10,9,12,1,-4,-1
1523144924900174,5,4,1,2,-29,-11,14,16
1523144924913711,-5,-4,-4,-4,8,2,-5,-7
1523144924913711,2,0,3,7,0,-1,0,1
1523144924914213,3,1,5,-1,11,26,3,2
1523144924914213,1,-1,-10,-12,-19,-8,6,5
1523144924935769,-3,1,3,0,-3,-5,-3,-3
1523144924935769,1,4,10,-8,-11,-11,1,5
1523144924936772,-5,-13,-17,-3,-1,-9,-8,-14
1523144924936772,1,6,7,7,1,0,-1,7
1523144924959333,1,-5,-19,-6,4,3,0,-1
1523144924959333,-3,-4,6,3,3,-2,-7,-9
1523144924959837,0,7,36,3,0,-4,-2,0
1523144924959837,-2,-4,-16,-9,3,6,4,0
1523144924972869,-2,3,-6,3,2,-1,-7,-15
1523144924972869,4,-3,62,9,3,-7,0,-4
1523144924980889,-2,-1,-19,4,-6,1,8,24
1523144924980889,4,0,11,19,5,7,0,1
1523144924995929,0,2,-38,-11,-7,-12,-8,-11
1523144924995929,-5,-7,-18,-11,0,-2,-2,-5
1523144924996934,5,16,98,26,4,14,-1,-4
1523144924996934,0,-1,-10,-2,16,12,5,-8
1523144925018991,-3,-8,-16,1,-11,-8,1,8
1523144925018991,0,2,9,1,-9,-8,1,12
1523144925019993,-6,-14,-45,-11,23,-8,-6,-20
1523144925019993,1,5,28,-7,-3,5,0,15
1523144925033028,3,1,26,3,-1,-6,0,-2
1523144925033028,-4,-4,-36,-4,-3,13,3,-4
1523144925041051,-1,-1,-14,-12,-17,-3,-1,9
1523144925041051,-1,3,-7,4,1,-15,-12,-24
1523144925056090,-2,-3,-1,-11,0,4,0,4
1523144925056090,-5,-8,-13,-1,-7,-12,0,2
1523144925056592,1,-1,-28,-1,-1,8,1,6
1523144925056592,-1,-3,-8,-2,6,3,0,-3
1523144925079153,1,2,12,-2,-6,-4,-1,3
1523144925079153,0,2,-24,1,-1,17,1,2
1523144925080154,-3,-1,-8,-4,-1,-1,-2,-14
1523144925080154,0,-1,10,-7,-11,-8,-1,12
1523144925092691,-1,3,19,10,3,1,1,-5
1523144925092691,-1,-2,-9,-3,-1,-12,-5,-3
1523144925101208,-1,-2,-14,-7,-4,-4,2,0
1523144925101208,0,2,2,-3,6,16,3,2
1523144925115748,-2,-4,-5,-3,-2,-5,-4,-4
1523144925115748,-3,-6,-7,-2,8,4,-5,-4
1523144925116752,1,1,9,-1,-11,-3,3,-1
1523144925116752,-1,-3,-10,-3,2,-1,-1,-2
1523144925139311,0,1,39,0,0,1,-2,-2
1523144925139311,1,-4,-21,-6,-2,-8,-2,2
1523144925139812,-3,-3,1,4,-4,-9,-5,-3
1523144925139812,-2,-2,-6,0,-12,-7,-3,-4
1523144925152846,-1,2,0,0,10,0,0,-1
1523144925152846,0,2,-1,-3,-4,10,4,2
1523144925160869,-2,-2,-6,4,5,4,-3,-3
1523144925160869,-1,-5,-6,-5,-2,-8,-4,-8
1523144925175913,-2,-1,-16,-4,-5,-2,-1,8
1523144925175913,1,1,11,-3,-2,-9,-5,-2
1523144925176915,-1,5,5,-5,0,-7,-4,-7
1523144925176915,-2,-3,0,1,-4,-4,2,6
1523144925198469,0,-2,-5,7,-8,11,-3,-5
1523144925198469,-2,0,-3,-3,19,5,4,-2
1523144925199471,-2,-2,-14,-4,-2,-3,-5,3
1523144925199471,1,1,24,1,-4,-7,1,0
1523144925213008,-2,-2,-10,-4,1,0,-3,-4
1523144925213008,0,3,-1,0,5,7,2,-1
1523144925221029,0,1,-3,0,-1,-4,-2,-1
1523144925221029,-4,-11,-21,-3,-6,-7,-4,-3
1523144925236069,-2,1,3,-6,-6,-8,0,-1
1523144925236069,1,2,3,4,-9,-12,-1,2
1523144925236570,-1,-2,5,-5,5,13,2,-3
1523144925236570,-3,-2,-10,-5,3,10,1,2
1523144925258632,-1,0,0,-5,-4,4,-1,2
1523144925258632,-1,-2,1,6,-2,-12,-8,-9
1523144925259633,-2,-4,-7,-2,-15,-7,-1,1
1523144925259633,1,1,0,1,4,2,2,7
1523144925273168,-1,-1,0,2,8,4,0,-1
1523144925273168,-3,-1,-3,-6,-9,-7,-3,-2
1523144925280689,1,3,5,-1,-8,-13,-3,-3
1523144925280689,-1,-2,-1,0,-2,1,-1,-4
1523144925296229,-2,-3,0,-2,7,13,3,-1
1523144925296229,0,0,-3,4,6,1,1,0
1523144925296730,-1,-1,3,-3,0,-2,1,0
1523144925296730,0,1,1,2,2,-4,-3,-1
1523144925318288,1,1,-4,-7,-12,-4,-1,-1
1523144925318288,-1,-2,-2,2,9,3,0,0
1523144925319291,-1,-1,3,0,9,1,1,0
1523144925319291,-3,-1,-8,4,-15,-10,-4,-4
1523144925341849,1,2,1,-13,2,0,2,-1
1523144925341849,1,0,1,8,-1,2,1,2
1523144925342351,-5,-2,0,0,-6,-8,-3,-6
1523144925342351,3,3,-3,-11,-15,-7,-2,4
1523144925355890,-3,-1,1,15,17,5,6,1
1523144925355890,3,1,3,-3,-15,2,-8,-4
1523144925356891,5,3,0,-4,4,6,12,18
1523144925356891,-2,-2,-1,-1,-7,-7,-10,-15
1523144925386472,5,1,2,2,3,-6,0,9
1523144925386472,-5,-3,-3,-3,-1,-2,12,5
1523144925387471,-8,-7,-4,-1,-14,-10,-23,-23
1523144925387471,2,1,3,-2,13,8,13,9
1523144925401510,-3,-2,-12,-3,-16,-7,-4,-3
1523144925401510,1,-3,16,3,13,0,2,5
1523144925402512,3,1,1,-3,-1,11,6,5
1523144925402512,-6,-3,-4,3,1,-1,-2,-4
1523144925416047,-2,-1,-4,-4,4,1,-4,-5
1523144925416047,-1,0,-3,-3,-13,-4,-2,1
1523144925416550,-4,-11,-9,0,-2,-6,-3,-4
1523144925416550,2,5,4,-1,10,2,-1,0
1523144925438616,-4,-6,-6,-5,-3,2,0,-1
1523144925438616,-1,-4,-10,2,-3,-5,-4,-4
1523144925439112,1,2,4,2,3,-2,0,2
1523144925439112,-4,-2,-1,4,3,-2,-4,-18
1523144925461672,4,4,18,6,1,6,3,8
1523144925461672,-1,5,-29,-21,-10,-4,3,14
1523144925462674,1,2,15,10,8,-3,-3,-4
1523144925462674,-5,-4,-48,-4,-4,-5,6,9
1523144925476208,5,4,55,1,-2,2,-5,-12
1523144925476208,-4,-5,-4,10,4,5,-5,-11
1523144925476712,0,4,-75,-6,-16,-4,1,4
1523144925476712,1,6,72,8,-11,-7,-7,-4
1523144925498266,-4,-8,-50,-5,0,-17,-2,-3
1523144925498266,-2,-2,29,-1,0,2,2,1
1523144925499270,-2,-6,-42,-11,4,8,0,-4
1523144925499270,-2,-5,-7,1,2,4,-4,-5
1523144925521828,-2,3,-7,6,-2,5,4,-3
1523144925521828,3,2,13,-2,-14,-32,-2,1
1523144925522330,3,3,11,-1,5,21,8,12
1523144925522330,-2,-9,-31,-8,0,-2,4,13
1523144925535868,1,4,32,10,1,-1,-5,2
1523144925535868,-7,-4,-19,-5,1,-2,-10,-24
1523144925536870,-4,-7,23,-1,-13,-22,-2,-10
1523144925536870,3,5,-7,-5,-1,19,0,11
1523144925558429,-2,1,0,1,22,3,4,-2
1523144925558429,2,-2,-1,-1,-18,11,2,-6
1523144925559430,-3,0,18,3,-2,-16,-7,-5
1523144925559430,-1,-1,9,1,1,0,-1,-3
1523144925581488,-2,-5,-20,-6,-16,-15,-3,0
1523144925581488,1,2,-2,0,20,2,-1,4
1523144925582491,-1,-1,14,-4,-10,5,1,-3
1523144925582491,0,0,2,0,-3,-7,-1,0
1523144925596028,-1,-6,9,1,-1,-9,-4,2
1523144925596028,-3,-3,-2,-3,0,16,0,-3
1523144925597029,-2,-3,-4,-8,-1,-2,-2,0
1523144925597029,-1,0,11,18,4,-7,-1,0
1523144925618587,-1,0,-12,-7,-11,2,-2,-4
1523144925618587,0,1,-1,1,6,1,-1,3
1523144925619088,1,0,-5,-1,0,-8,-3,0
1523144925619088,-5,-11,-15,-9,-2,1,-1,-13
1523144925641647,0,-1,10,-2,3,12,3,11
1523144925641647,0,0,-5,-5,-5,-6,0,1
1523144925642651,0,4,-2,7,4,2,0,1
1523144925642651,-1,0,-2,-1,0,-5,-1,-7
1523144925656185,0,0,3,-1,-4,5,-3,-7
1523144925656185,-2,-4,-3,-2,1,1,1,14
1523144925656687,2,-3,11,0,-2,-6,0,-1
1523144925656687,0,0,3,-1,5,15,2,2
1523144925678249,-1,1,-8,-2,-2,-12,-2,-2
1523144925678249,-1,1,1,-1,6,-6,-2,-4
1523144925679250,-2,-1,-14,-2,-5,16,-1,-2
1523144925679250,3,7,35,3,0,-6,1,6
1523144925701807,-3,-6,-12,-6,0,5,-2,-4
1523144925701807,-2,1,0,0,-3,-1,-1,-6
1523144925702310,-3,-4,-12,-1,-2,-11,-2,0
1523144925702310,-2,0,-18,-10,8,2,-1,-1
1523144925715846,0,1,8,18,-8,-7,-3,-3
1523144925715846,-2,-6,-9,-5,2,13,0,-1
1523144925716853,1,8,39,2,-3,-5,0,0
1523144925716853,2,-1,-16,-6,-1,5,0,3
1523144925738405,-5,-10,-14,-8,2,-9,-3,-6
1523144925738405,-1,1,-3,1,-7,7,1,5
1523144925739424,-2,-2,-5,2,2,1,0,-1
1523144925739424,-2,1,-1,-10,-5,-8,-2,-4
1523144925761467,0,-4,-5,8,-1,6,-1,1
1523144925761467,-3,-5,-7,-5,-1,-6,-3,-6
1523144925762470,1,2,9,-4,-3,-3,0,-5
1523144925762470,-1,-1,2,0,-6,-10,0,2
1523144925776006,-4,0,-8,-8,-2,-2,-1,-3
1523144925776006,1,4,7,6,-2,16,0,0
1523144925777009,0,-6,-1,-2,3,-8,1,1
1523144925777009,-2,-7,-6,1,-1,13,-4,-6
1523144925798565,1,0,-6,-4,-5,-12,-2,-2
1523144925798565,-1,-1,-1,-4,-2,-1,1,4
1523144925799067,-2,-2,0,6,11,10,-2,-1
1523144925799067,0,-2,-6,-4,-8,-1,-1,-2
1523144925821629,0,1,-2,-3,4,-2,-1,-2
1523144925821629,-2,1,0,1,2,-12,0,-4
1523144925822631,-1,0,-5,-3,3,4,-1,1
1523144925822631,-3,-3,-2,-3,-5,-10,0,-1
1523144925836166,0,1,3,2,1,16,1,2
1523144925836166,1,-1,0,-2,-5,-12,-3,-1
1523144925836668,-1,-2,-2,-3,-11,6,-1,1
1523144925836668,-1,-2,-2,5,8,-3,0,-2
1523144925858725,-2,-1,-4,-10,-9,-2,2,3
1523144925858725,-3,-5,-4,0,3,-11,-6,-10
1523144925859228,3,0,2,-3,-8,2,1,8
1523144925859228,-5,-2,1,3,-10,-6,-2,-8
1523144925881786,6,0,-4,-7,-13,5,-3,6
1523144925881786,-6,-3,0,8,18,10,8,2
1523144925882288,-2,-1,-2,-7,1,-15,-21,-15
1523144925882288,7,7,3,2,18,14,10,10
1523144925895326,1,0,-1,7,-18,-4,14,12
1523144925895326,-12,-9,-15,-19,-17,-11,-31,-30
1523144925903844,4,-3,1,4,1,-4,10,11
1523144925903844,-2,-2,-3,-5,-1,0,-1,-1
1523144925918386,-2,-1,11,2,16,3,3,1
1523144925918386,3,8,10,2,-6,-6,7,5
1523144925919390,-7,-12,-20,-1,3,3,0,-6
1523144925919390,-1,3,1,-5,-15,-10,-6,-1
1523144925941946,-4,-3,-16,-4,2,-1,-3,-5
1523144925941946,2,1,-6,4,2,0,4,3
1523144925943456,0,-4,-3,-1,-1,2,-3,-6
1523144925943456,2,-6,-21,-8,-3,-4,-3,2
1523144925955483,-4,-3,0,-8,-1,-1,-7,0
1523144925955483,4,8,11,9,0,6,3,-1
1523144925963507,1,0,11,-6,-1,-5,4,11
1523144925963507,-2,0,-9,1,-1,-3,0,-1
1523144925978548,-5,-3,20,14,-1,-15,-3,-6
1523144925978548,4,1,12,-4,-7,-4,-5,0
1523144925979547,-2,-3,-14,-3,7,33,3,-5
1523144925979547,-3,1,33,18,-3,1,2,1
1523144926001608,0,3,57,0,21,-1,-5,-4
1523144926001608,1,-2,-4,-10,-9,-15,0,5
1523144926002609,-4,3,4,7,5,-6,-5,-12
1523144926002609,0,-7,-18,1,12,12,5,8
1523144926015142,0,-2,-34,-13,-4,6,3,7
1523144926015142,-1,4,6,0,-10,-5,0,-2
1523144926023664,1,-4,10,-3,-5,-11,-3,-2
1523144926023664,-3,-6,-20,-5,-4,0,-2,0
1523144926038704,-2,2,0,17,0,-13,-5,-13
1523144926038704,0,-3,-25,-11,8,26,0,3
1523144926039206,0,8,-2,0,-5,-14,0,-6
1523144926039206,0,1,23,2,4,5,1,25
1523144926061776,3,-4,-33,-6,-9,-8,1,-10
1523144926061776,0,-6,4,2,-6,-13,-2,2
1523144926062772,1,3,5,8,-3,14,4,10
1523144926062772,-1,-4,4,-6,-4,-17,-8,-12
1523144926075302,0,-1,-3,-4,-5,10,-3,-2
1523144926075302,1,0,-1,3,8,5,3,1
1523144926083323,-2,-1,1,-2,0,-12,0,-6
1523144926083323,-1,-1,4,-4,-1,-1,-4,-7
1523144926098363,-1,5,-4,-7,-4,-12,-3,3
1523144926098363,-3,-7,-20,5,-7,-5,-1,-4
1523144926099366,-2,-5,23,3,7,7,-1,1
1523144926099366,0,3,-9,-7,-5,-12,-2,-7
1523144926120927,-1,-2,-3,8,8,30,1,-4
1523144926120927,1,4,10,-1,-5,-12,1,6
1523144926128443,-1,-3,-16,-13,-1,-11,-1,2
1523144926128443,0,-4,-6,14,-2,-2,-1,-4
1523144926135462,-3,-6,0,-9,-7,-5,-3,-3
1523144926135462,-1,-6,-8,5,10,5,3,1
1523144926143487,3,5,-2,-7,-13,-4,-4,2
1523144926143487,-1,3,5,-3,-6,-2,-3,-15
1523144926158525,0,1,-3,-8,4,-2,1,13
1523144926158525,-1,0,0,5,-7,1,-1,2
1523144926159527,-3,-4,-6,2,0,4,-4,-4
1523144926159527,-2,-1,-11,-2,7,4,1,-14
1523144926189106,-2,0,2,-1,-11,-7,0,8
1523144926189106,-2,2,-13,-10,2,-10,-1,-3
1523144926190108,-1,-3,9,7,7,23,5,3
1523144926190108,-3,-3,-16,-6,-4,2,-4,-2
1523144926195121,-2,-4,-2,-1,-1,-5,-2,-6
1523144926195121,0,-1,-7,0,6,-4,-1,0
1523144926203646,-2,0,-11,-6,-15,-11,-3,-4
1523144926203646,-1,-1,9,6,0,2,0,1
1523144926218683,-2,-1,-1,-6,6,-3,0,-3
1523144926218683,-2,-3,5,-1,-3,2,0,-2
1523144926219185,-2,0,14,0,-4,-2,0,1
1523144926219185,-1,1,5,-1,-2,3,0,5
1523144926241746,1,0,-2,-4,0,-10,-6,-4
1523144926241746,-3,-1,-2,1,-2,3,-1,-2
1523144926242247,-1,-9,-14,-7,-1,-2,0,-1
1523144926242247,0,1,-7,-4,-6,0,0,-2
1523144926264305,-1,-1,-3,-1,0,4,-1,2
1523144926264305,0,1,4,1,7,-2,-1,-3
1523144926264807,-3,-7,0,-3,-6,-16,-3,-1
1523144926264807,-2,0,-2,-2,-14,4,0,2
1523144926278343,-1,-5,-6,-2,0,25,1,-2
1523144926278343,0,2,12,1,11,7,-1,-4
1523144926279346,0,4,-4,-2,9,-5,2,6
1523144926279346,0,0,-7,-3,-7,-13,-3,0
1523144926301405,0,1,22,4,-13,-6,-2,-1
1523144926301405,-3,-4,2,-6,-10,-10,-1,-3
1523144926302406,-1,-3,-8,4,0,5,-1,-3
1523144926302406,-1,0,9,-2,9,3,1,0
1523144926323966,2,1,0,9,3,-7,-1,-1
1523144926323966,-1,-3,2,-3,-3,-9,-1,0
1523144926324966,-1,1,0,-6,-6,0,-1,-2
1523144926324966,-4,-5,-11,-1,3,-1,-3,1
1523144926338503,-3,-3,-9,-5,-6,-3,-2,-5
1523144926338503,1,1,9,1,-10,-15,-1,0
1523144926339504,-1,1,-6,9,16,8,2,0
1523144926339504,-1,-5,-5,-9,-13,10,0,-3
1523144926362068,-2,0,-3,5,12,1,-1,-2
1523144926362068,0,-1,-6,-4,2,1,-3,-4
1523144926362571,-2,4,7,-3,-21,-17,-2,8
1523144926362571,0,0,6,3,2,-3,1,1
1523144926384125,-1,-3,-9,-9,2,7,-1,-5
1523144926384125,-3,-3,2,-5,-15,3,2,2
1523144926385127,-2,-3,-2,19,39,6,2,-3
1523144926385127,-4,-4,0,-8,-15,-14,-8,-5
1523144926398661,7,5,-2,0,11,-5,4,6
1523144926398661,-1,-1,-3,-3,-9,-2,-2,-2
1523144926399164,-4,-4,-2,-11,-8,4,-4,-6
1523144926399164,-2,-1,1,8,3,-1,0,-3
1523144926421729,4,3,1,-4,17,19,3,1
1523144926421729,2,0,-1,-4,3,-8,0,4
1523144926422726,4,2,4,0,-13,-2,5,-2
1523144926422726,-1,2,0,-2,-4,-11,-4,2
1523144926444289,-5,-2,-5,-3,-6,-10,-4,-3
1523144926444289,-3,2,15,3,4,9,-1,0
1523144926445288,1,3,1,2,-2,-3,-4,-1
1523144926445288,-1,-7,-14,-6,-4,-5,-3,-7
1523144926458323,-5,-9,-4,-6,-10,-2,1,0
1523144926458323,2,7,9,13,6,15,3,2
1523144926459324,-2,-11,-32,-14,-9,-10,-3,-5
1523144926459324,1,10,20,6,10,-1,-3,-4
1523144926481883,-2,-8,46,-8,-11,-13,-5,-4
1523144926481883,-4,-5,-62,-7,0,6,3,-6
1523144926482385,-2,-4,59,8,3,4,1,13
1523144926482385,7,11,23,-4,2,3,4,9
1523144926503945,-5,-2,-52,-4,-2,-9,-3,-7
1523144926503945,-5,-8,16,15,0,-8,-2,-7
1523144926504944,2,6,5,-1,0,15,0,2
1523144926504944,-4,-9,-25,-3,1,4,1,-6
1523144926518482,1,4,25,7,-9,-8,-4,5
1523144926518482,1,-4,-15,-8,21,-9,-2,-1
1523144926519483,-2,-3,-32,-4,-8,-3,-3,-4
1523144926519483,2,5,20,3,-7,-6,-1,3
1523144926541545,3,4,-5,-7,-9,8,1,-2
1523144926541545,-5,-9,-9,9,8,-6,-1,-1
1523144926542548,2,5,32,-9,-17,0,-5,-9
1523144926542548,-3,-4,-14,-8,2,4,2,8
1523144926564102,-3,-2,-5,16,3,-9,0,-2
1523144926564102,3,-1,-2,-12,7,22,2,4
1523144926565105,-1,6,16,13,1,-2,0,6
1523144926565105,0,-2,-9,-4,-5,-2,-5,-8
1523144926578643,0,0,-4,-2,-2,-6,2,1
1523144926578643,2,4,9,1,-7,-2,-4,2
1523144926579646,-1,0,-27,-7,0,-10,-3,-13
1523144926579646,-1,-2,0,7,2,-15,-3,4
1523144926601703,-1,-1,-21,-8,6,33,6,12
1523144926601703,2,2,33,5,-16,-9,-1,-2
1523144926602204,-2,-2,-12,-2,19,-1,-3,-6
1523144926602204,-1,-10,-24,-3,9,-4,-1,0
1523144926624265,-2,-1,-6,1,-3,-2,-3,-5
1523144926624265,-1,4,8,-7,-14,0,-2,-2
1523144926624764,2,-5,-23,-3,-2,-6,2,3
1523144926624764,-3,-8,-5,14,6,5,0,-3
1523144926638300,-1,1,14,-4,-8,-16,-6,-3
1523144926638300,-1,-1,-9,-3,1,19,2,1
1523144926639303,-1,4,-2,-5,16,-1,0,-2
1523144926639303,-1,5,12,8,-17,7,3,-3
1523144926661865,-2,-5,-21,-7,-4,-6,-2,-7
1523144926661865,-2,0,-11,-3,-9,-11,-3,-4
1523144926663368,-3,-5,0,-4,-2,-1,2,11
1523144926663368,-1,2,0,-3,4,3,0,-3
1523144926684423,1,-2,-18,7,8,6,-1,0
1523144926684423,-1,-4,13,-3,1,-12,-5,-7
1523144926685927,-1,-2,-7,-4,-18,-3,-2,1
1523144926685927,0,-1,12,-7,9,12,4,2
1523144926697958,-2,0,14,-2,-8,-4,-1,1
1523144926697958,4,6,-10,13,2,1,0,2
1523144926706985,0,-4,-15,-3,0,-6,-3,-4
1523144926706985,-3,-3,-15,-10,-12,2,-4,-4
1523144926721521,0,-3,5,0,19,-4,0,-4
1523144926721521,-5,-9,-17,-9,-5,7,-2,-4
1523144926723526,2,4,56,14,-1,-1,3,3
1523144926723526,0,1,-7,-6,8,12,1,3
1523144926744082,-1,-3,2,-5,-13,-3,-3,-5
1523144926744082,-1,-4,-15,-2,-8,-7,-2,0
1523144926745585,-2,2,-12,-1,1,-5,-3,-7
1523144926745585,-1,-4,-2,-5,-8,-5,-3,-1
1523144926758118,-1,4,39,10,12,-11,0,1
1523144926758118,0,0,2,-7,-1,10,1,1
1523144926767143,-1,-4,-14,-6,-8,-2,-3,-5
1523144926767143,0,1,0,-6,-3,-11,-2,0
1523144926781682,-2,-3,-10,9,-1,1,0,0
1523144926781682,0,0,13,-10,-11,-8,-3,-2
1523144926783187,1,1,12,1,9,13,2,3
1523144926783187,1,4,13,3,-1,-5,1,0
1523144926804242,-2,-4,-14,-4,-6,0,0,-4
1523144926804242,0,-1,4,-4,1,1,0,3
1523144926805746,0,-2,-11,-1,3,8,-2,-5
1523144926805746,-3,2,16,5,-4,-10,-2,-1
1523144926817778,-3,-2,-5,0,-1,-4,-1,-1
1523144926817778,-1,2,3,1,6,12,0,2
1523144926826805,-1,-2,-9,-7,-9,-12,-2,-4
1523144926826805,0,-2,0,5,7,4,2,1
1523144926841840,-1,0,-3,1,-5,-1,-3,-2
1523144926841840,-1,-2,1,1,3,-9,-3,-1
1523144926843350,-3,-3,-5,1,-2,-1,-2,-1
1523144926843350,-2,-6,-2,-9,-4,2,0,-1
1523144926863900,0,3,3,8,-6,-1,1,0
1523144926863900,-1,-2,-3,-3,2,0,0,0
1523144926865907,-1,-1,-3,4,-9,-2,-4,-2
1523144926865907,2,1,-1,2,15,0,-3,-1
1523144926877940,1,-1,-4,-11,-13,1,0,-2
1523144926877940,0,-3,-3,-6,-1,-4,0,-1
1523144926886965,-1,0,-4,-9,-11,-6,-3,-3
1523144926886965,-4,-5,-2,4,-9,-3,-2,-5
1523144926901502,4,4,4,5,5,6,2,1
1523144926901502,-4,0,0,-4,-2,-7,-8,-21
1523144926903507,0,-2,-5,-9,-11,-3,6,17
1523144926903507,1,-1,-3,4,-3,-9,-1,-4
1523144926924061,2,-3,-1,-2,4,16,3,6
1523144926924061,0,0,4,5,2,-5,0,0
1523144926926069,-7,-4,-6,1,-14,-2,-11,-20
1523144926926069,5,2,1,9,29,-4,-1,5
1523144926937597,-3,-2,-1,-4,-13,-7,-1,-7
1523144926937597,-3,-4,-6,-4,1,-6,0,4
1523144926946620,1,-2,2,5,1,5,2,-1
1523144926946620,-2,0,-1,-4,-7,-5,-2,2
1523144926961661,-1,-3,-2,5,7,-1,-5,-2
1523144926961661,2,4,-3,-6,-2,-5,-1,3
1523144926963164,0,-2,1,1,5,-11,2,1
1523144926963164,-7,-18,-26,4,2,22,0,-8
1523144926984220,5,8,12,-11,-1,-4,-2,0
1523144926984220,-3,-1,1,0,-9,0,0,3
1523144926985725,0,5,6,11,6,-5,-3,-2
1523144926985725,3,8,1,-6,-12,11,0,4
1523144926997756,-11,-28,-25,-1,-4,-5,-7,-9
1523144926997756,4,16,57,16,7,-1,1,13
1523144927006779,1,0,-16,-1,7,10,1,-4
1523144927006779,0,2,-2,-15,-4,-12,3,4
1523144927021820,0,2,-3,-5,-10,-7,-5,-1
1523144927021820,-4,-9,-42,-1,-7,1,-1,-11
1523144927023328,3,6,24,-4,3,-6,-1,1
1523144927023328,-3,-1,8,-1,20,41,4,-4
1523144927044381,0,1,-3,-10,-10,-13,0,0
1523144927044381,-2,-5,-21,-1,2,-10,-2,0
1523144927045884,-1,0,-10,-7,-7,9,-2,-6
1523144927045884,-3,-3,-8,-2,-12,-23,-5,-5
1523144927057920,0,2,14,0,5,11,3,2
1523144927057920,0,-1,10,2,2,5,0,1
1523144927066943,-1,0,-8,-2,-5,-10,2,9
1523144927066943,0,2,-5,-1,-2,-3,-3,-2
1523144927081982,-8,-8,9,3,-2,1,-1,-6
1523144927081982,0,-4,5,-4,-2,0,0,6
1523144927083486,-1,-2,4,-4,6,-2,-3,-4
1523144927083486,1,1,-9,-6,-12,-7,-2,-1
1523144927104038,-1,4,-1,12,3,-8,-3,-1
1523144927104038,0,-3,-2,-6,2,2,0,-3
1523144927106044,-3,-6,-12,-11,-15,0,0,-2
1523144927106044,0,2,6,6,-9,-10,0,2
1523144927118076,0,3,5,-5,12,10,1,2
1523144927118076,-2,-9,-11,0,5,6,-2,-8
1523144927127102,-3,0,16,6,-10,-6,-1,5
1523144927127102,0,-1,3,-4,12,-2,2,0
1523144927141639,2,-1,3,-1,1,-2,-2,-1
1523144927141639,0,4,-10,-1,3,2,0,-2
1523144927143147,1,-3,0,-5,11,2,-1,2
1523144927143147,-1,-5,-13,3,0,-4,-5,-12
1523144927164207,-2,0,6,0,-2,-7,-4,2
1523144927164207,2,4,7,-5,-9,-1,6,-3
1523144927165704,-1,-2,-23,3,-3,-1,1,-4
1523144927165704,-4,0,27,2,4,6,-3,3
1523144927186759,1,-2,-14,-7,2,-1,-1,-2
1523144927186759,-2,-1,-2,1,-2,-1,-5,-1
1523144927188262,-4,-3,-3,-2,6,-11,0,-3
1523144927188262,-2,-6,-6,-5,-20,15,2,-3
1523144927201800,0,2,-7,0,3,-4,0,6
1523144927201800,-1,3,5,1,-12,-6,0,4
1523144927203305,-2,0,16,3,15,-3,-3,-1
1523144927203305,-2,-7,-25,-4,-1,-10,-4,-3
1523144927224359,2,7,25,4,2,12,2,-6
1523144927224359,-2,-7,-19,-7,-1,3,-1,3
1523144927225866,1,5,19,6,0,8,1,6
1523144927225866,-2,-5,-29,4,3,-10,-3,-1
1523144927246919,-3,-1,30,-1,-10,-1,-1,-3
1523144927246919,1,-1,-1,-3,-9,-1,-2,-6
1523144927248425,0,0,-20,4,2,2,0,2
1523144927248425,-2,4,31,-3,-14,1,-1,1
1523144927261457,-2,-1,-20,-2,0,-10,-1,3
1523144927261457,-4,-4,5,-9,3,-6,-2,-4
1523144927263463,-2,-4,-14,0,-8,17,-1,-5
1523144927263463,2,3,8,3,1,-11,-1,-3
1523144927284019,-1,0,-8,-10,-20,1,1,1
1523144927284019,-2,-4,18,5,5,-14,-1,0
1523144927286023,2,0,-17,-10,0,8,0,-2
1523144927286023,-1,2,8,5,6,-2,1,2
1523144927306577,1,2,-4,1,5,1,-3,-3
1523144927306577,-4,-6,-21,-3,3,1,-2,0
1523144927308082,0,0,14,5,0,-6,-1,0
1523144927308082,0,2,-16,-8,0,1,-1,1
1523144927329137,-1,-5,4,-2,9,-2,0,0
1523144927329137,-1,-1,-7,-1,-16,-7,-2,-1
1523144927330643,0,-5,5,1,3,1,-3,-3
1523144927330643,-2,3,9,3,3,10,1,0
1523144927344679,-1,2,-18,-1,-1,0,1,-2
1523144927344679,0,1,8,0,5,0,-1,1
1523144927346184,-3,-5,-5,-7,-3,-4,0,-3
1523144927346184,-2,-5,1,1,-5,-9,0,-1
1523144927366738,0,2,-6,3,-7,1,1,-2
1523144927366738,0,3,10,3,5,1,0,1
1523144927368243,-2,0,0,0,4,15,1,-4
1523144927368243,-2,-1,1,-3,-9,-9,-2,-1
1523144927380775,0,-3,-5,1,27,-1,-4,-5
1523144927380775,-2,0,-5,-3,-24,4,0,0
1523144927387795,0,0,-2,-2,-7,-12,-8,-2
1523144927387795,1,2,3,-2,2,6,4,5
1523144927404339,-2,-4,-7,2,1,-3,0,1
1523144927404339,3,4,1,-5,0,-1,-3,-2
1523144927405846,0,-2,1,0,-4,-4,6,6
1523144927405846,-7,-6,-2,-4,-3,-2,-8,-12
1523144927426900,-8,-5,-8,6,-5,-7,-18,-18
1523144927426900,1,1,3,3,1,0,0,7
1523144927428402,5,3,3,4,4,4,10,11
1523144927428402,1,3,-1,-9,-3,-5,-3,-2
1523144927440939,-5,-5,-6,3,5,-1,5,5
1523144927440939,-5,-4,-2,-5,-2,20,-3,-6
1523144927447955,-6,-4,-5,-5,-8,-18,-7,-8
1523144927447955,2,1,1,0,15,8,4,4
1523144927463998,0,1,-1,-6,-4,-3,-1,0
1523144927463998,1,-1,2,0,5,-4,-2,-2
1523144927466003,1,2,0,2,-4,-8,1,-4
1523144927466003,2,-3,-4,0,-4,4,1,0
1523144927486556,-5,-25,-4,-11,-12,-5,-2,-1
1523144927486556,-2,2,9,2,7,-4,0,-1
1523144927488563,0,5,19,1,-7,-2,-2,-4
1523144927488563,-2,-8,-42,-5,1,-6,-2,1
1523144927501096,4,15,6,-2,-7,4,1,-2
1523144927501096,-6,-16,-38,-5,-8,-3,0,-4
1523144927508115,-2,-3,-18,2,18,-5,3,15
1523144927508115,2,6,44,18,-3,-4,1,5
1523144927524158,1,1,-28,-24,0,6,1,3
1523144927524158,0,1,-15,3,12,-4,-2,-6
1523144927526165,1,5,42,24,-14,16,-3,-12
1523144927526165,-2,-7,-13,-10,-7,-16,-7,2
1523144927546717,-1,2,8,3,-3,-13,-4,-6
1523144927546717,3,5,12,-2,1,11,8,13
1523144927548221,-5,-9,-22,-22,-4,1,-3,-6
1523144927548221,2,2,-2,10,20,4,4,2
1523144927560754,0,5,27,7,-11,-10,0,2
1523144927560754,-2,0,9,-6,-6,-4,-5,-7
1523144927567773,2,0,-2,1,11,10,-1,-5
1523144927567773,-1,1,-9,-6,-3,1,1,2
1523144927584819,0,-1,-25,1,2,3,0,-2
1523144927584819,-2,-5,-4,3,-2,-9,-3,-1
1523144927586323,1,2,25,-1,-3,-8,-2,-10
1523144927586323,-2,-1,3,-4,0,3,-1,1
1523144927606877,0,1,-5,-3,-1,3,3,5
1523144927606877,-2,-4,22,11,-6,8,1,0
1523144927608382,-3,-2,-15,-10,-5,-18,-4,-4
1523144927608382,0,2,-3,4,-6,-13,-3,-4
1523144927620922,0,2,6,1,8,29,5,2
1523144927620922,-1,-2,-10,-2,0,-14,-3,0
1523144927627934,-4,-4,-10,-7,-5,-6,-2,-3
1523144927627934,0,-1,9,0,-2,-3,0,4
1523144927644478,-4,-2,-6,-2,-4,0,-1,-1
1523144927644478,-1,4,24,2,6,-2,-1,-2
1523144927645982,-1,-5,-27,-5,-10,-1,-2,2
1523144927645982,1,4,19,0,12,18,1,-17
1523144927666536,2,-5,-13,-6,-5,-9,0,7
1523144927666536,1,5,17,1,4,4,1,7
1523144927668541,-1,-1,-5,1,2,-2,-4,1
1523144927668541,-4,-3,-4,-9,-24,-12,-3,-5
1523144927680075,1,4,-3,2,0,-12,-3,-3
1523144927680075,-3,-8,-21,-7,-1,15,1,-4
1523144927689097,-1,5,3,9,10,11,2,0
1523144927689097,-2,-10,10,2,-2,3,-2,-2
1523144927704138,0,1,13,1,-3,-6,-1,-5
1523144927704138,2,3,-7,-4,-12,-22,-3,9
1523144927705640,0,0,3,10,12,20,2,-2
1523144927705640,-2,-3,-10,-9,-9,2,-3,-1
1523144927726697,-3,-5,21,5,-1,-9,-2,1
1523144927726697,1,1,1,4,1,-6,-1,-7
1523144927728200,1,-1,-6,-10,-5,-9,-3,-1
1523144927728200,-1,0,-19,-2,1,8,-2,0
1523144927740235,1,0,30,16,5,-7,1,-2
1523144927740235,-1,1,-12,-4,-1,19,0,-6
1523144927749257,-2,-4,4,0,6,4,2,3
1523144927749257,0,3,-12,-3,-3,-16,0,1
1523144927764297,-3,-1,-20,-7,-4,2,-1,-2
1523144927764297,0,1,16,6,11,2,1,0
1523144927765800,1,-1,-9,-11,-19,-9,-4,0
1523144927765800,-1,-1,6,1,-15,-5,-2,-2
1523144927786857,-1,-7,-13,9,20,1,-1,-1
1523144927786857,0,-2,0,-3,3,6,-1,-1
1523144927788364,0,-3,-7,-2,5,-5,-1,-1
1523144927788364,-1,3,0,-9,-1,11,1,-2
1523144927800393,-1,-1,-2,-3,-10,-3,-1,2
1523144927800393,-2,-2,-12,1,2,-6,-4,-5
1523144927809419,-3,-2,-12,-4,-9,-4,-3,-1
1523144927809419,1,3,15,2,6,-4,-1,-1
1523144927823958,1,-2,-5,-6,2,14,-1,1
1523144927823958,-1,-2,-4,13,-6,-12,-1,-7
1523144927825962,-2,0,-4,-2,11,3,2,10
1523144927825962,-2,-1,-2,-1,-3,4,-1,0
1523144927854037,-1,-1,9,-4,-9,-3,-1,-1
1523144927854037,0,-4,-2,-9,-10,-10,-4,-2
1523144927856041,0,1,1,0,2,-2,-1,-4
1523144927856041,0,1,-2,3,-6,-5,-2,0
1523144927860552,1,3,0,2,20,9,2,1
1523144927860552,-3,-1,-8,-4,5,7,0,3
1523144927869576,-2,-2,3,0,-12,-13,0,-2
1523144927869576,0,-3,0,-5,5,0,0,0
1523144927884115,-2,-1,-6,-8,-20,-13,-4,-1
1523144927884115,0,0,2,5,11,-10,-1,-1
1523144927885620,-2,-1,-3,-7,-16,5,-1,-3
1523144927885620,-2,0,0,2,9,1,0,0
1523144927906676,3,4,1,2,-4,3,1,1
1523144927906676,-1,0,-2,-4,4,2,2,2
1523144927908180,-2,-4,3,-3,-2,-7,-8,-5
1523144927908180,3,0,-2,-5,-9,4,2,3
1523144927920715,-3,-3,-4,-3,-11,5,6,11
1523144927920715,-11,-5,-5,2,14,-13,-31,-35
1523144927929234,8,2,3,-5,-19,-4,0,12
1523144927929234,-1,1,4,-3,2,6,3,1
1523144927944275,-5,-4,-6,-3,0,3,1,-1
1523144927944275,-1,-2,-3,-15,-34,-9,-1,-4
1523144927945783,1,1,5,17,54,13,7,1
1523144927945783,-5,-5,-7,2,-13,-14,-12,-7
1523144927966835,1,1,-1,-2,-7,6,2,2
1523144927966835,-2,-2,-1,1,-2,2,3,3
1523144927968338,-1,-1,0,-2,-4,-5,-3,-7
1523144927968338,1,0,-1,-1,0,-1,2,6
1523144927980371,0,4,2,2,3,-8,-7,-8
1523144927980371,0,-10,-23,-5,-5,5,4,7
1523144927989394,-3,-1,17,3,-2,-1,-2,-8
1523144927989394,0,4,-5,-2,0,-1,1,3
1523144928004449,-3,-7,-8,-7,-4,-2,-5,-5
1523144928004449,1,3,8,12,0,-1,3,3
1523144928005943,1,-5,-57,-8,-6,6,3,-10
1523144928005943,2,10,18,2,7,12,5,20
1523144928026497,3,4,15,5,7,-4,-5,-14
1523144928026497,0,-2,-23,-8,-3,-3,6,8
1523144928028499,-3,-2,6,-9,-7,-13,-7,-12
1523144928028499,0,-3,14,7,6,1,-3,-3
1523144928040038,-1,3,29,22,0,2,3,-5
1523144928040038,1,0,39,-7,-2,11,-1,-1
1523144928049555,-6,-5,4,-3,-10,2,-6,0
1523144928049555,1,0,-18,-8,4,-11,-3,-3
1523144928064095,-5,-6,2,-5,-13,2,-2,7
1523144928064095,-2,-3,-2,-2,-2,-7,-4,-14
1523144928066101,1,4,6,3,12,6,3,12
1523144928066101,-3,-6,-7,-4,-14,-5,-3,-14
1523144928086655,0,-3,-19,0,0,-11,-2,0
1523144928086655,0,2,-10,-10,-7,-3,4,19
1523144928088159,0,-3,-2,13,5,23,-1,-4
1523144928088159,-3,0,-3,-1,8,15,0,-7
1523144928100190,-2,-6,-5,-3,0,-15,-3,-3
1523144928100190,-1,0,1,0,-9,7,-1,-6
1523144928109219,1,1,6,-2,4,-6,3,6
1523144928109219,-2,-5,-1,5,6,3,-2,-2
1523144928124256,-2,1,-9,-13,5,5,-1,0
1523144928124256,0,4,0,0,-4,-11,1,5
1523144928125763,-2,-1,16,2,-10,-10,1,-2
1523144928125763,-4,-7,-11,0,2,-4,-1,-1
1523144928146813,0,3,-8,-8,-2,-6,-3,-2
1523144928146813,0,-4,-1,6,6,1,0,2
1523144928148318,-3,-3,-6,0,-3,-1,-1,0
1523144928148318,-1,-1,-12,-2,-2,-5,-4,-6
1523144928169374,0,-3,-2,-6,-1,6,2,-1
1523144928169374,1,4,12,-3,2,1,0,6
1523144928170878,-1,-2,-3,4,-4,-10,-3,-3
1523144928170878,-2,-4,-13,-5,-7,5,-3,-1
1523144928184414,-1,-5,-3,-1,6,-8,-1,-9
1523144928184414,-1,3,2,7,3,16,1,11
1523144928185918,-2,1,-2,-20,-23,16,-1,-15
1523144928185918,-2,-10,15,7,15,-15,1,8
1523144928206471,0,1,1,-4,-2,0,-4,-4
1523144928206471,-1,0,-22,-5,0,-13,-5,-7
1523144928208479,-4,-2,18,5,3,-12,-3,2
1523144928208479,1,2,-9,-2,-4,8,-1,-4
1523144928229032,-3,-6,3,7,-2,3,1,1
1523144928229032,1,-3,-2,1,2,-3,0,-2
1523144928230537,-1,-3,-15,-1,0,2,0,2
1523144928230537,2,1,-4,1,0,-11,-1,-3
1523144928244075,2,2,1,-1,-5,-8,-2,5
1523144928244075,-1,-2,-3,-3,0,5,1,-4
1523144928246079,-1,-3,-3,-1,13,-2,0,0
1523144928246079,-2,1,14,-3,-5,-3,-2,0
1523144928266653,0,1,-2,7,-5,1,1,0
1523144928266653,-1,-1,6,5,-1,8,0,-6
1523144928268138,1,-1,-3,3,5,-6,1,1
1523144928268138,-1,-2,-2,-1,14,3,3,4
1523144928289192,-2,2,0,-9,-12,-6,-3,-2
1523144928289192,1,2,15,1,-2,3,0,-3
1523144928290697,2,1,-5,3,3,-12,-1,-1
1523144928290697,0,3,-6,-2,-5,-3,-1,-3
1523144928303732,0,0,1,5,3,2,-1,1
1523144928303732,-3,-3,-6,-5,-1,-12,-2,-3
1523144928310248,1,2,1,-5,-10,8,0,0
1523144928310248,-3,-3,-1,2,4,6,0,-5
1523144928326793,0,-4,-8,-7,-5,-1,-2,1
1523144928326793,-3,-3,-2,0,2,-1,-1,0
1523144928328297,-2,-2,0,-2,-5,-2,0,2
1523144928328297,0,2,0,-1,-12,-3,0,-1
1523144928349352,0,-3,-2,2,11,4,-1,-1
1523144928349352,-2,-1,-2,1,-8,-13,-2,-1
1523144928350857,-2,-2,-2,-3,13,-6,-2,0
1523144928350857,-3,-1,5,-7,-26,-9,-4,-4
1523144928363389,2,-2,-1,2,-2,7,-2,2
1523144928363389,3,2,0,-11,9,31,5,2
1523144928370418,-4,-4,-3,-2,-6,-4,-3,-3
1523144928370418,4,0,4,1,0,0,0,4
1523144928386451,-4,0,-5,-1,1,-19,-4,3
1523144928386451,-7,-2,-6,2,-19,-16,-15,-24
1523144928388460,7,5,5,7,23,10,8,19
1523144928388460,-8,-7,-6,-7,-9,-3,-14,-19
1523144928409016,3,2,0,4,7,8,4,4
1523144928409016,1,-1,-2,3,4,-3,-1,5
1523144928410516,-3,0,1,-7,-9,-6,-3,-4
1523144928410516,-3,-2,1,4,-3,-11,-2,0
1523144928423554,-3,-2,-6,-14,-31,1,-1,-1
1523144928423554,-2,-6,-8,2,14,-5,-1,0
1523144928430569,-4,-1,2,-2,-13,-4,-2,-3
1523144928430569,4,11,-5,0,0,3,5,7
1523144928446612,-5,-12,1,4,9,2,-2,-5
1523144928446612,1,1,2,-5,0,-6,1,-4
1523144928448117,-1,4,49,7,-4,6,-2,1
1523144928448117,-3,-2,-47,-16,-4,-4,1,-1
1523144928469172,1,16,50,0,5,-2,-5,-5
1523144928469172,-6,-20,30,9,-2,-3,-8,-27
1523144928470675,0,-5,-95,-16,-1,5,4,14
1523144928470675,9,21,111,34,9,2,21,34
1523144928483710,-3,-1,-28,-9,0,40,2,-6
1523144928483710,-2,-3,-59,-13,-12,-19,-2,11
1523144928490227,1,6,64,-8,19,-6,-14,-35
1523144928490227,-7,-13,-43,5,-2,-9,-6,-10
1523144928506773,0,1,-19,0,-10,-4,4,8
1523144928506773,0,4,10,-2,-1,8,-3,-9
1523144928508282,-3,-7,-22,3,-4,-4,1,2
1523144928508282,-2,-3,-11,-11,-5,-22,-4,-1
1523144928529332,0,-4,15,1,10,8,5,-3
1523144928529332,1,3,-11,-1,3,12,-1,11
1523144928530836,1,1,-12,-5,-8,1,2,0
1523144928530836,-3,-5,14,0,0,-3,0,-3
1523144928543369,-1,-4,-17,-5,5,-16,-6,-3
1523144928543369,1,-7,6,-2,-8,8,4,0
1523144928550388,1,7,16,4,-1,-2,-1,7
1523144928550388,-2,0,6,-5,2,12,-4,-13
1523144928566434,-1,-4,-20,1,-1,-14,-1,-5
1523144928566434,-2,5,4,-2,-2,-8,0,4
1523144928568436,-3,-4,-25,-3,-13,2,-3,-6
1523144928568436,0,-2,1,2,8,-2,-4,-5
1523144928589493,0,-1,1,-2,-1,21,0,4
1523144928589493,1,6,13,2,-3,-5,6,9
1523144928590999,-5,-9,-24,-4,-3,-2,-4,-8
1523144928590999,-3,-4,-23,-6,-5,0,-1,3
1523144928603529,1,-8,8,-1,9,-2,2,1
1523144928603529,1,6,22,2,-1,0,1,0
1523144928610547,0,-2,-5,4,-11,-8,0,1
1523144928610547,-4,-2,-13,-10,7,0,-3,-5
1523144928626591,1,4,8,0,-2,-18,-3,-3
1523144928626591,-3,-4,-13,2,-4,3,1,2
1523144928628096,2,1,7,-3,-5,-4,1,1
1523144928628096,2,-2,-17,0,3,2,-1,0
1523144928649150,-6,-2,-16,5,-7,0,-5,-15
1523144928649150,2,2,11,-5,-3,-8,2,12
1523144928650655,-3,-7,-5,5,-1,-2,1,14
1523144928650655,0,-7,-17,0,15,9,-5,-11
1523144928662687,-4,2,-3,-7,-9,-10,-5,-2
1523144928662687,0,5,5,0,12,2,0,-2
1523144928671710,2,0,2,1,-11,3,5,17
1523144928671710,-1,0,15,-1,-7,1,-1,-2
1523144928686752,-1,0,1,0,-2,-12,-3,-2
1523144928686752,-1,-6,-8,0,4,-10,-3,-8
1523144928688255,0,-2,-15,-5,16,27,-1,-6
1523144928688255,-2,-6,3,2,-7,3,1,3
1523144928709311,0,2,-14,0,-1,1,-2,0
1523144928709311,0,-2,-9,-5,-11,-9,-4,-2
1523144928710815,-2,-3,3,-2,-1,-17,-2,-7
1523144928710815,-1,1,-4,7,16,11,1,4
1523144928731871,-1,-1,5,-7,-19,-6,1,1
1523144928731871,-1,-2,-21,1,5,8,-4,1
1523144928733376,1,1,15,2,5,-13,0,-4
1523144928733376,-2,1,5,0,-1,21,-1,-4
1523144928746409,-3,-4,-7,-3,1,-8,-1,-2
1523144928746409,2,3,-7,-2,-6,-3,0,9
1523144928748418,0,0,1,2,3,-5,-1,-8
1523144928748418,1,1,5,-2,-7,-9,-1,1
1523144928768971,-2,-4,8,0,0,9,2,2
1523144928768971,-1,-5,-29,-8,-3,-1,-1,-9
1523144928770974,-1,2,33,6,-14,3,-3,-3
1523144928770974,-1,0,-5,-2,-7,-7,-1,-3
1523144928783008,0,-1,-12,-8,2,-1,2,-1
1523144928783008,-2,-1,-3,3,2,7,-2,-1
1523144928792030,-1,-1,21,-2,-5,-7,0,-3
1523144928792030,-1,-3,1,-3,-5,-6,-2,-2
1523144928806572,3,1,13,6,5,0,-1,2
1523144928806572,-4,-2,-5,-1,0,-9,1,-1
1523144928808076,0,-1,3,1,8,22,1,1
1523144928808076,-1,0,-3,-7,-18,-1,-4,-3
1523144928829131,-2,1,5,3,10,-3,-2,0
1523144928829131,-2,-2,9,3,4,3,0,1
1523144928830635,0,-1,-17,-5,-3,-5,-2,-1
1523144928830635,4,3,10,3,-4,13,3,1
1523144928842668,-3,-5,-8,-4,-5,6,8,3
1523144928842668,-3,-2,12,3,-8,-5,-6,-11
1523144928851690,9,2,-1,2,18,-4,8,24
1523144928851690,-14,-8,-10,-4,-10,-12,-10,-26
1523144928866730,-2,0,1,0,-8,-12,-18,-9
1523144928866730,3,3,3,4,8,7,7,8
1523144928868234,-4,-5,-8,-2,-2,3,3,4
1523144928868234,-2,-4,-2,-7,-12,-10,1,-1
1523144928889292,4,4,5,0,2,3,0,-2
1523144928889292,-4,-3,2,-4,-8,1,-3,-4
1523144928890798,-1,-2,-7,-5,-3,-6,-2,-3
1523144928890798,0,1,3,-6,-1,-1,4,7
1523144928902826,-5,1,-4,-4,-9,-5,-8,-13
1523144928902826,1,-4,0,5,7,9,-1,-16
1523144928911849,0,-4,-2,-3,-3,-1,9,41
1523144928911849,-2,-4,-7,-3,-2,-6,-5,-7
1523144928926889,1,-6,6,6,11,1,0,2
1523144928926889,4,12,48,-2,-2,2,1,-1
1523144928928394,-9,-6,-16,-4,-3,-4,-12,-27
1523144928928394,-4,-6,-28,3,4,-9,-1,3
1523144928949450,-1,-7,-33,-6,2,11,4,4
1523144928949450,-1,4,85,3,3,-8,-3,10
1523144928950954,-5,-6,-14,-9,-19,-12,-10,-21
1523144928950954,10,17,41,16,9,6,3,0
1523144928971508,1,0,-14,-4,9,4,12,3
1523144928971508,-2,-5,-30,-1,22,16,-5,1
1523144928973514,-2,2,-18,-6,-13,-10,0,0
1523144928973514,-2,-8,32,-1,-1,-2,-4,-6
1523144928986549,0,2,1,3,0,-5,2,1
1523144928986549,-3,-5,-18,-9,-6,-13,-7,-4
1523144928988053,4,7,11,4,-1,-4,2,-4
1523144928988053,-2,-3,-22,-7,-6,-3,-3,2
1523144929009109,-3,-4,-10,5,6,3,1,-2
1523144929009109,-4,0,10,0,0,10,2,4
1523144929010613,0,-1,59,7,6,-2,-5,-14
1523144929010613,-1,-2,-19,-6,3,6,3,13
1523144929022647,1,5,12,6,-4,-6,-1,-4
1523144929022647,-1,-7,-50,-7,-10,-7,3,3
1523144929031669,-2,3,-11,3,-2,12,-2,-11
1523144929031669,0,-2,19,2,17,-7,2,1
1523144929046708,0,-3,6,-5,-3,0,-4,-3
1523144929046708,-1,1,-18,-8,-8,-11,-2,-5
1523144929048214,-3,1,6,4,0,0,-2,-4
1523144929048214,2,2,-7,0,-1,2,1,8
1523144929069268,-3,-2,-8,-6,-11,7,0,3
1523144929069268,-1,0,-2,5,-3,-3,0,-3
1523144929070773,-3,-2,-13,-6,1,0,-3,1
1523144929070773,-5,-7,-24,-10,1,1,-3,-3
1523144929091829,3,10,73,8,-1,-8,-1,2
1523144929091829,-1,0,-9,0,-6,-2,1,1
1523144929093333,-1,0,-10,2,8,0,-4,-1
1523144929093333,-1,0,4,0,1,5,1,-2
1523144929106868,-4,-13,-15,-4,-11,3,-4,-1
1523144929106868,2,3,-4,4,-1,-8,0,1
1523144929108377,-5,-7,-15,-6,-1,17,1,-6
1523144929108377,3,4,4,3,-7,-9,0,4
1523144929128927,-2,1,-4,-7,5,-2,-3,-3
1523144929128927,0,-2,-6,-2,-3,-3,1,5
1523144929130936,-1,-3,-7,6,-9,-5,0,-2
1523144929130936,3,4,4,1,-1,1,-2,-9
1523144929151486,-2,2,-5,-2,-2,-2,-2,-6
1523144929151486,-4,-6,-15,1,3,-5,-2,-2
1523144929153492,3,-2,2,-3,2,-5,-1,1
1523144929153492,0,2,3,4,-2,4,6,9
1523144929166529,2,5,-5,0,-9,-7,-2,-1
1523144929166529,-2,-3,6,2,4,8,-2,-7
1523144929168534,-1,-3,7,-5,3,-3,-5,-9
1523144929168534,-5,-7,-21,-3,-2,-6,-5,-1
1523144929189089,-1,-2,1,4,4,7,2,1
1523144929189089,-1,6,1,-3,-6,-2,-2,-1
1523144929191092,1,-3,-11,-4,-8,-10,-1,4
1523144929191092,1,3,1,-2,-6,-11,-2,-4
1523144929211647,-1,0,-6,-5,8,31,2,3
1523144929211647,-2,-2,4,14,5,-3,-2,0
1523144929213152,0,3,2,-4,0,-3,-2,3
1523144929213152,-1,-1,-4,-4,-7,-4,0,2
1523144929226185,-1,0,6,-1,-1,-11,-4,-2
1523144929226185,0,-4,-3,-7,-12,-2,-2,-2
1523144929232704,-2,-1,-10,1,3,1,-1,-5
1523144929232704,-2,-1,-1,-3,0,-8,-5,-2
1523144929249247,2,-1,-17,-5,-7,-6,2,7
1523144929249247,1,2,6,-1,0,8,0,-2
1523144929250752,-2,-3,-16,0,6,0,0,0
1523144929250752,-3,-2,33,-1,4,6,-2,-3
1523144929271809,-3,-3,-7,6,5,-5,-2,2
1523144929271809,1,2,-7,-10,-6,-4,-1,-1
1523144929273314,0,3,0,1,-2,1,-1,0
1523144929273314,2,-1,-1,-1,1,6,-1,-2
1523144929285845,1,-3,-10,1,1,-5,-2,-1
1523144929285845,-13,-5,-1,-4,-2,-4,-4,1
1523144929292865,0,1,8,0,-4,1,1,-5
1523144929292865,0,1,-6,2,2,1,1,3
1523144929308907,1,0,2,-2,-2,-7,-4,0
1523144929308907,5,-1,-2,-3,2,16,1,-1
1523144929310911,-5,0,4,-4,2,-1,-1,4
1523144929310911,1,2,-4,1,-7,-3,2,3
1523144929331966,-13,-10,-4,-4,-2,-15,-8,-12
1523144929331966,-2,-4,-3,-13,-12,-14,-6,0
1523144929333472,1,1,0,6,-3,25,3,2
1523144929333472,-3,-4,-6,-9,-4,1,-10,-10
1523144929345505,2,1,2,-6,-11,-2,15,17
1523144929345505,-2,-1,0,12,7,-2,-12,-23
1523144929354528,2,2,4,-4,-8,-7,6,10
1523144929354528,2,-1,-3,2,3,-6,-10,6
1523144929369069,-2,-1,1,4,2,0,-15,-26
1523144929369069,-1,-3,-6,-6,-3,-3,9,9
1523144929371072,3,2,1,0,3,-5,1,1
1523144929371072,-1,0,-1,4,2,4,3,0
1523144929391626,2,4,4,-2,5,-2,2,7
1523144929391626,-2,-7,5,2,-2,-1,2,-4
1523144929393130,-4,-9,-4,-1,2,-4,-8,-15
1523144929393130,-3,4,5,0,4,-3,3,9
1523144929406164,-2,-8,-18,-5,-11,0,-3,-7
1523144929406164,0,5,2,-2,1,0,0,4
1523144929412683,-3,-5,9,1,4,0,-4,-13
1523144929412683,2,1,-18,-3,-3,7,13,13
1523144929429228,-1,-4,2,-1,-3,-5,-3,-9
1523144929429228,0,-1,2,0,0,-1,-1,3
1523144929430733,2,5,41,5,2,-4,-7,-5
1523144929430733,-3,-1,-19,-2,1,2,-3,-17
1523144929451791,-2,-2,-13,-3,-8,4,2,2
1523144929451791,0,-3,0,-2,6,-6,0,-4
1523144929453292,6,19,53,18,-6,-15,0,12
1523144929453292,-3,-13,-41,-14,11,-6,-4,-9
1523144929465323,3,5,55,12,1,39,9,9
1523144929465323,-4,-10,-64,-13,-3,-4,0,0
1523144929474350,2,1,-27,-14,-12,-8,-1,-7
1523144929474350,-1,1,15,2,3,1,-5,-5
1523144929488888,-2,-2,-5,-11,-15,-19,-5,-8
1523144929488888,2,1,-9,-2,8,4,8,8
1523144929490893,-14,-7,15,2,6,3,-3,-17
1523144929490893,-4,-2,14,3,-8,9,-1,-2
1523144929511947,7,2,-19,0,9,-5,5,24
1523144929511947,0,9,24,1,-12,0,-3,-5
1523144929513451,-4,-10,-45,-11,-2,-13,-3,2
1523144929513451,1,4,17,4,-7,-9,-4,-2
1523144929525482,-6,-7,-3,1,14,9,-4,-2
1523144929525482,-1,4,29,2,-4,-13,-5,-6
1523144929534506,3,3,-19,-3,-14,6,4,14
1523144929534506,-2,-3,0,-5,6,10,3,9
1523144929549045,-2,-3,-1,6,6,3,-2,-8
1523144929549045,-2,-2,-24,-8,-9,-8,-4,-4
1523144929550549,-1,-3,-2,-3,7,2,3,14
1523144929550549,3,0,12,8,1,2,-1,-4
1523144929571608,0,2,-13,-2,1,-14,-3,-1
1523144929571608,0,-3,1,-2,-3,-1,-3,-3
1523144929573111,0,-2,-1,-2,5,1,-2,0
1523144929573111,1,-1,-4,0,-10,1,0,-1
1523144929585141,-2,1,-7,-1,4,-4,0,-1
1523144929585141,-4,-9,-24,-2,-2,1,-2,-1
1523144929594166,5,8,2,8,1,-1,1,-1
1523144929594166,-1,-6,0,-3,0,-7,-2,-1
1523144929609205,-5,-6,9,0,-4,-3,-3,-6
1523144929609205,1,1,-12,-4,-4,-4,0,2
1523144929610709,-3,-11,-24,-1,-4,-1,-5,-6
1523144929610709,3,5,22,4,-2,2,3,-4
1523144929631765,1,1,-4,-7,-1,20,3,4
1523144929631765,-3,-3,7,3,-2,-5,-2,0
1523144929633270,-2,-1,-1,-6,6,3,-8,-21
1523144929633270,2,1,-14,1,0,-4,3,-2
1523144929645302,1,-2,-2,-2,-13,-8,6,18
1523144929645302,2,3,14,4,2,3,-1,1
1523144929654325,-4,-2,-3,-5,-3,-1,-2,-5
1523144929654325,-8,-7,-6,-6,-5,-15,-10,-18
1523144929669365,-2,0,-13,-8,-2,-12,-2,-2
1523144929669365,-2,4,33,6,1,19,4,-6
1523144929670869,1,2,4,4,3,-1,0,6
1523144929670869,0,-10,-11,-4,-1,-5,-2,6
1523144929691429,1,1,3,-3,-15,-24,-3,0
1523144929691429,-2,-5,-25,3,9,15,-1,-4
1523144929693428,0,-5,-5,-6,-7,5,2,0
1523144929693428,1,3,18,-1,0,-2,0,11
1523144929705462,-4,-2,-6,0,5,-7,-5,-5
1523144929705462,2,0,8,2,0,-2,-2,-2
1523144929714485,-1,-2,-2,-1,-1,-4,0,2
1523144929714485,-2,-2,-27,-2,-3,-5,0,0
1523144929729024,0,4,31,9,7,1,-2,-9
1523144929729024,5,5,18,-5,-10,-4,2,3
1523144929731029,-1,-7,-12,4,22,2,-2,-1
1523144929731029,-3,-2,5,-6,-11,-2,0,10
1523144929751583,-1,-1,-3,13,14,7,0,-4
1523144929751583,-2,-1,4,-3,4,-3,0,1
1523144929753088,-2,-4,3,-5,-12,-4,0,2
1523144929753088,0,4,-6,2,9,-9,-4,-10
1523144929765120,-2,0,2,-6,-7,7,0,-2
1523144929765120,0,-1,-10,1,-3,8,1,4
1523144929774144,-3,-3,-6,0,3,0,0,-4
1523144929774144,-4,-4,1,0,1,14,-1,-2
1523144929789183,0,1,-5,-5,-6,-10,-1,1
1523144929789183,0,1,4,1,1,-8,-2,1
1523144929790691,0,3,-3,-4,-4,2,0,3
1523144929790691,-3,-2,2,-1,0,-1,0,-1
1523144929812245,0,0,3,0,-2,-5,-2,0
1523144929812245,-2,-2,-5,-2,2,10,-1,-2
1523144929813749,-1,-1,1,1,6,-5,1,-2
1523144929813749,2,1,3,-4,-13,0,2,7
1523144929825281,-1,-1,-3,17,22,5,0,-8
1523144929825281,-2,-3,0,-1,0,2,-3,-3
1523144929834304,3,1,0,-3,5,5,9,17
1523144929834304,7,4,7,5,11,12,12,13
1523144929849344,-7,-6,-9,-10,-18,-20,-19,-22
1523144929849344,3,1,2,4,-4,4,-3,17
1523144929850848,-6,-2,-3,-1,-2,6,-19,-47
1523144929850848,7,4,1,-1,2,-2,9,14
1523144929871906,-5,-1,-3,0,2,7,11,7
1523144929871906,-4,-3,-1,-3,-4,-15,3,5
1523144929873409,-3,-1,-2,-7,-16,-18,0,6
1523144929873409,-1,-2,1,2,-1,11,-1,-6
1523144929885439,0,-3,-2,-8,-1,0,2,2
1523144929885439,0,-1,0,4,-6,-13,-3,-6
1523144929894464,1,2,-5,1,2,5,1,7
1523144929894464,-6,1,-1,-5,-8,-8,-9,-8
1523144929908504,5,5,-8,-4,-2,6,-1,4
1523144929908504,-6,-21,-9,2,3,-5,-3,-6
1523144929915018,9,32,48,3,-6,1,1,7
