timestamp,emg1,emg2,emg3,emg4,emg5,emg6,emg7,emg8
1523055320757051,-8,-8,-7,-14,0,0,23,0
1523055320757051,1,5,1,15,17,1,-8,7
1523055320757542,-1,0,-2,-11,7,-3,-10,-2
1523055320757542,6,6,5,24,7,2,1,-4
1523055320758543,-3,-6,-1,-20,-17,-3,-4,-3
1523055320758543,-1,2,1,3,-4,-3,6,1
1523055320762045,-3,-16,-5,-7,-1,1,-2,-1
1523055320762045,-4,4,-2,0,1,-2,-3,-2
1523055320768060,4,-1,2,8,2,0,1,-1
1523055320768060,1,3,-4,-22,-4,-1,-2,-2
1523055320778087,1,6,-2,3,-11,-3,2,1
1523055320778087,-13,-16,-2,-5,-10,-2,3,0
1523055320785106,12,6,2,27,3,-3,1,-2
1523055320785106,-4,-9,-2,-6,3,4,-1,-3
1523055320799143,-1,-2,-3,-6,1,-1,16,4
1523055320799143,1,-4,-1,-14,-5,-5,-44,-3
1523055320807166,-2,1,-4,-2,1,1,9,-2
1523055320807166,1,-2,2,6,0,-1,-1,8
1523055320813180,1,12,-1,7,3,1,-2,-6
1523055320813180,-4,-5,-5,-5,-1,-1,16,-1
1523055320828221,-4,-2,2,-1,3,1,-12,-4
1523055320828221,-1,-1,0,-7,-10,-4,7,-7
1523055320875345,-3,9,2,-1,-1,0,-1,3
1523055320875345,4,9,2,-1,-2,2,3,2
1523055320875847,-4,-4,-3,-2,-2,-1,-3,0
1523055320875847,-3,1,0,-3,1,0,1,-4
1523055320876883,-4,-1,-2,1,1,0,0,-2
1523055320876883,-2,-11,0,-1,-5,-4,-3,2
1523055320877353,1,11,2,-2,-3,-1,9,0
1523055320877353,-1,2,-1,-1,-1,-2,-7,9
1523055320888382,0,-7,-4,0,1,5,8,-10
1523055320888382,-2,-2,-3,-2,1,-2,-2,-4
1523055320895902,-1,-2,-2,-3,-1,-6,0,-2
1523055320895902,-2,-10,-3,-2,0,-4,-10,0
1523055320904423,3,7,0,0,-3,0,1,2
1523055320904423,-7,-6,-3,-2,2,0,-1,-12
1523055320919023,-4,-7,-1,0,-1,-1,-1,3
1523055320919023,3,9,3,4,0,0,7,-4
1523055320925481,1,-7,-5,-6,-2,-6,-10,3
1523055320925481,2,2,-1,0,0,1,2,2
1523055320932999,-14,-6,-2,0,0,1,-4,-2
1523055320932999,-4,-1,-1,0,0,2,7,-4
1523055320948039,5,3,2,-1,-1,-1,1,4
1523055320948039,0,-1,-5,0,-3,-1,0,-2
1523055320955559,2,0,0,0,0,-3,-7,1
1523055320955559,0,2,0,-2,-2,-2,4,3
1523055320964584,-1,-7,0,4,1,3,-1,-9
1523055320964584,-2,9,3,0,-2,-1,13,-3
1523055320978120,5,1,-2,-2,1,-2,-28,-5
1523055320978120,-6,1,-1,0,-5,-5,7,7
1523055320987144,-8,-11,-2,2,-2,-3,4,0
1523055320987144,-1,-4,0,-1,3,3,-10,-3
1523055320993196,-3,-7,-3,1,-2,0,2,-3
1523055320993196,1,-1,-2,-3,-2,-3,9,-7
1523055321008199,2,7,-1,-1,2,-3,-26,1
1523055321008199,-2,-6,-2,-1,-2,-1,6,5
1523055321015721,2,1,1,-2,-1,-3,-5,-5
1523055321015721,0,-7,-2,-1,0,2,22,1
1523055321024745,-6,-13,-4,-3,-1,-1,-20,-4
1523055321024745,7,8,3,0,0,3,12,3
1523055321038279,4,15,2,0,-1,4,13,0
1523055321038279,4,0,0,-1,2,-1,-21,-1
1523055321047305,1,3,-1,-2,-3,0,6,0
1523055321047305,-4,-9,-3,-3,-3,-5,-12,-1
1523055321053319,-4,-5,-1,-2,0,2,29,-2
1523055321053319,3,6,1,2,6,-2,-40,1
1523055321068359,-1,1,1,2,-5,2,-4,7
1523055321068359,-1,1,-3,-6,-3,-4,-4,-4
1523055321075881,1,-4,-3,3,7,2,7,4
1523055321075881,0,0,2,0,-13,0,2,-8
1523055321084923,0,8,0,-1,5,-1,6,-5
1523055321084923,-7,-16,-3,3,1,-1,0,-8
1523055321097938,9,6,-4,0,3,-3,-17,13
1523055321097938,-5,-21,-8,-7,17,4,-11,-9
1523055321107463,-1,7,2,-47,-63,-10,23,-5
1523055321107463,4,5,1,36,18,2,-6,27
1523055321113032,-8,-5,-2,-9,4,0,7,-14
1523055321113032,-5,3,-6,-3,2,0,5,-1
1523055321128019,0,-1,7,18,-4,1,0,-10
1523055321128019,3,-5,1,8,-11,-7,29,-15
1523055321135538,7,9,4,-32,-5,4,-42,17
1523055321135538,-3,-19,-1,40,-5,2,-15,-3
1523055321144563,-4,-7,-9,10,34,4,-4,-13
1523055321144563,-4,8,2,-20,-22,-2,30,6
1523055321158100,-8,-28,-6,24,12,-4,-6,7
1523055321158100,-1,0,1,-3,16,6,17,1
1523055321167123,-1,0,2,-19,-22,-3,-7,0
1523055321167123,-2,10,-2,18,12,0,-13,-6
1523055321173139,3,6,-1,-2,-4,-1,12,-10
1523055321173139,-2,-1,-4,-14,-10,-5,-13,-2
1523055321188180,-2,-19,-7,16,23,0,11,9
1523055321188180,1,5,0,-14,-1,-1,-13,9
1523055321195702,1,19,5,-9,-14,-1,6,-10
1523055321195702,-7,16,2,10,7,-1,4,0
1523055321204727,-4,-37,-14,-3,-1,-4,8,3
1523055321204727,-5,-9,-1,-19,-8,-5,-43,-4
1523055321218261,-7,-9,-1,11,-3,-4,-6,-9
1523055321218261,1,6,0,-10,-7,-4,19,3
1523055321227285,-7,3,-2,22,25,3,1,-4
1523055321227285,6,8,5,-29,-27,-1,2,6
1523055321233331,-24,-12,-3,8,4,-2,4,-5
1523055321233331,-4,6,-3,-18,2,-2,-2,-7
1523055321248338,1,1,3,6,-6,-3,21,8
1523055321248338,6,-1,-1,2,8,-1,-8,-4
1523055321255859,5,9,6,2,-4,2,12,-3
1523055321255859,6,0,-2,-10,-7,-1,-8,8
1523055321264882,-6,6,-1,9,19,3,-1,-2
1523055321264882,-1,-6,-2,-22,-30,-5,-4,-1
1523055321277955,4,-1,-2,1,1,1,8,-7
1523055321277955,3,1,-4,-1,-3,0,6,4
1523055321286941,4,8,2,1,5,0,-16,-4
1523055321286941,-3,-7,0,2,13,2,-1,-10
1523055321293477,3,-6,-5,2,-3,-6,-10,0
1523055321293477,-1,7,-1,0,-3,-2,-4,-8
1523055321308055,-4,-16,-3,-18,-2,1,-3,5
1523055321308055,1,9,3,15,2,2,38,-2
1523055321315573,17,8,-4,-3,-3,-7,-51,-15
1523055321315573,3,6,4,2,-3,-2,0,20
1523055321324541,-4,-7,-2,-10,-2,-2,-19,-6
1523055321324541,-9,-9,-5,2,12,-1,8,-3
1523055321347101,-3,-2,-2,5,3,8,29,4
1523055321347101,4,4,2,-13,-14,-2,-5,-3
1523055321348639,4,4,1,3,-5,-3,-1,-6
1523055321348639,-5,-6,-7,12,18,0,-15,7
1523055321353151,-4,-16,0,0,-7,-5,-9,-6
1523055321353151,1,-3,4,0,-5,-1,-1,-5
1523055321368157,-2,10,1,-4,-3,0,6,5
1523055321368157,0,-4,-4,3,2,-4,-17,-4
1523055321375679,2,12,1,-8,8,2,-5,11
1523055321375679,-4,-17,-5,-3,-3,-3,-5,-11
1523055321384702,2,4,4,1,-7,-4,-20,-4
1523055321384702,1,13,1,-2,1,-2,2,3
1523055321414781,-5,-23,-5,-5,-3,0,2,-9
1523055321414781,-7,-7,-2,3,-3,-5,-3,1
1523055321416285,3,10,2,2,1,5,15,-2
1523055321416285,-9,-9,-4,-6,0,-6,-36,-22
1523055321421298,3,-1,0,-2,-6,-5,6,23
1523055321421298,1,-3,1,10,6,10,21,-6
1523055321428318,-14,-8,-7,-7,-4,-6,-13,-13
1523055321428318,13,2,-1,-4,-2,1,10,7
1523055321435837,-1,12,1,1,-3,-3,4,-12
1523055321435837,-8,-6,-9,-7,1,-9,-12,-8
1523055321444862,6,4,0,-2,-2,-2,-1,9
1523055321444862,-7,-1,0,-1,-1,2,11,-4
1523055321458398,0,-9,1,0,0,-1,6,8
1523055321458398,2,1,-1,-2,0,1,3,3
1523055321467423,-5,-6,0,-1,0,-1,-6,-6
1523055321467423,-1,0,1,0,0,0,-7,2
1523055321481543,-1,0,1,-3,0,0,-9,1
1523055321481543,-1,2,2,2,0,1,-7,-6
1523055321488026,0,5,-3,-1,-2,-4,17,6
1523055321488026,-3,-16,-3,-1,2,-3,-4,11
1523055321495546,4,7,2,6,1,11,14,-12
1523055321495546,-5,3,1,-1,-3,-3,15,0
1523055321504571,10,-13,-7,0,-1,-3,-18,-1
1523055321504571,-1,2,2,-1,-2,1,2,1
1523055321518105,-12,1,-3,-3,4,-3,12,-7
1523055321518105,4,0,-1,2,-1,-6,-11,-7
1523055321527131,-1,6,3,-1,-10,3,13,12
1523055321527131,0,-8,-1,4,3,3,-7,2
1523055321541167,3,4,-1,-5,-1,-3,-7,-10
1523055321541167,-1,-8,-2,5,16,6,-5,13
1523055321548240,-6,-6,-2,-8,-13,-4,0,-8
1523055321548240,-2,2,1,-2,-1,1,1,-4
1523055321555706,1,11,2,-6,9,-4,-12,-3
1523055321555706,-2,-5,-4,-12,-14,-4,14,2
1523055321564731,-1,-3,-6,22,24,3,-8,6
1523055321564731,-3,-3,-1,-42,-21,1,6,-10
1523055321578267,-6,-9,-4,31,-15,-8,-15,0
1523055321578267,3,8,3,-20,19,8,-41,1
1523055321587293,-4,1,0,14,15,0,8,-8
1523055321587293,8,7,2,-43,-52,-11,-8,16
1523055321601328,-2,-4,0,-13,13,2,16,7
1523055321601328,-5,-2,1,43,-4,-2,-10,-13
1523055321608346,1,5,4,-18,-2,1,18,-11
1523055321608346,8,15,2,-3,-28,-5,-9,19
1523055321615866,0,-7,-9,-12,2,-3,-11,1
1523055321615866,-6,-19,-7,5,9,6,24,1
1523055321624896,-3,-4,-4,8,15,4,5,-12
1523055321624896,-8,1,3,17,4,-4,-4,-15
1523055321638428,14,8,3,-27,-21,-1,8,10
1523055321638428,1,5,1,18,2,-6,5,-5
1523055321646950,1,9,2,-12,-12,0,-18,2
1523055321646950,-7,-19,-3,29,16,2,20,0
1523055321661544,-8,5,0,5,-1,1,2,3
1523055321661544,13,10,-2,-33,-6,-3,4,-5
1523055321668006,2,4,0,-9,-14,-2,-11,5
1523055321668006,-3,-2,-4,-4,10,-3,2,-8
1523055321675525,-1,1,1,5,7,3,-13,-8
1523055321675525,-8,-10,-2,11,2,-6,-16,-5
1523055321684550,-2,-23,-6,-18,-18,2,27,4
1523055321684550,5,11,5,37,19,-2,-44,5
1523055321698086,1,1,-2,5,4,0,8,10
1523055321698086,0,0,-1,-10,-14,-1,-1,-3
1523055321707109,-4,0,-2,18,13,-5,-11,-6
1523055321707109,-6,-2,1,-7,16,6,3,-17
1523055321721146,-8,-5,1,-19,-28,-9,-8,8
1523055321721146,13,5,4,5,6,1,9,15
1523055321728171,-3,6,-1,-3,-1,-2,5,-3
1523055321728171,-3,-21,-8,-1,12,5,15,-7
1523055321735686,-10,-11,0,5,4,-1,0,-4
1523055321735686,6,2,0,-19,-18,-1,19,-7
1523055321744709,-6,-3,4,-1,-1,-3,-3,7
1523055321744709,0,2,-7,-5,-1,-2,-9,5
1523055321758245,7,7,0,-1,4,0,-4,-2
1523055321758245,-7,8,-2,15,1,-2,4,-2
1523055321767269,1,-26,-5,10,1,0,3,0
1523055321767269,-2,6,0,-26,9,2,7,-5
1523055321781306,-10,-7,0,-5,-27,-1,15,-4
1523055321781306,5,-1,-1,-3,0,-6,-34,0
1523055321788325,1,14,4,0,1,-1,-5,6
1523055321788325,-4,-1,-2,15,10,-1,-8,-5
1523055321795845,-1,-4,-5,-11,13,-1,0,-4
1523055321795845,-4,-3,4,19,-3,1,-2,-2
1523055321810383,-2,2,-1,-17,-11,0,-1,1
1523055321810383,-1,5,0,1,-7,-4,1,3
1523055321818405,5,4,-2,-7,-1,2,7,-3
1523055321818405,-6,-9,-2,-9,0,2,6,0
1523055321827429,-3,4,1,4,4,0,-1,-5
1523055321827429,18,19,0,5,-1,0,-5,2
1523055321841501,-2,-4,2,5,2,-1,-9,-6
1523055321841501,-8,-5,-1,-6,0,2,18,-4
1523055321847984,5,14,2,-1,-3,4,3,-6
1523055321847984,7,-9,-1,-4,-4,-3,17,17
1523055321879569,-3,10,-2,9,3,1,1,0
1523055321879569,-6,-22,-8,-14,-5,-4,3,-9
1523055321881073,-2,8,1,-6,-5,-8,-19,-11
1523055321881073,-9,1,-1,4,-2,1,10,-11
1523055321888092,4,-4,0,6,1,-2,2,3
1523055321888092,3,4,2,-7,-2,0,-4,10
1523055321888592,-2,-2,1,0,-1,2,1,-4
1523055321888592,-6,-9,-2,4,2,1,-5,-12
1523055321901126,-8,-16,-5,1,0,-5,-9,-9
1523055321901126,2,11,0,-7,-6,-3,-12,7
1523055321908198,5,-5,-2,0,-1,-2,8,17
1523055321908198,1,6,0,3,2,5,7,-7
1523055321923720,-7,-16,-7,-6,-2,-5,-8,-14
1523055321923720,3,10,2,-1,-1,1,10,3
1523055321930705,4,-13,-4,-3,-4,-4,-7,3
1523055321930705,-7,-3,-1,-1,0,-2,0,3
1523055321947247,-4,4,4,3,4,4,-11,-1
1523055321947247,13,1,-4,-3,-4,-5,-3,-8
1523055321948752,3,9,0,-1,-1,4,34,13
1523055321948752,-3,-8,0,-2,-1,-4,-18,-3
1523055321961285,1,-11,-4,-1,-2,0,9,6
1523055321961285,-8,0,-1,-1,1,-1,-12,-8
1523055321968303,-2,3,0,-2,-1,-1,-5,-5
1523055321968303,2,1,0,-1,-1,-1,5,-3
1523055321983845,1,5,2,2,2,-2,2,3
1523055321983845,-7,-5,-2,0,1,2,7,-2
1523055321990881,0,-15,-6,1,-2,0,-6,-7
1523055321990881,-2,-3,1,1,-1,-1,0,-2
1523055322006908,3,0,-1,0,1,-2,1,1
1523055322006908,-3,4,-1,-4,1,0,-7,1
1523055322008912,-5,2,-2,-11,-9,-1,-10,-12
1523055322008912,-4,-5,-4,-7,-6,-11,-26,13
1523055322021445,9,5,3,12,6,9,36,6
1523055322021445,-1,17,1,-14,-5,-1,4,3
1523055322027962,-5,-20,-6,9,5,-1,-13,-7
1523055322027962,-3,-10,0,-9,-8,-2,33,-8
1523055322044060,-2,5,1,29,9,-5,-49,-4
1523055322044060,0,-1,1,-50,-1,3,-12,-6
1523055322050577,1,6,4,24,-14,-5,2,1
1523055322050577,-3,2,-7,-35,2,1,4,0
1523055322067068,-1,-2,1,15,14,4,8,1
1523055322067068,-5,-10,-1,47,-2,0,14,-6
1523055322068572,-2,2,-6,3,24,-1,-16,1
1523055322068572,2,-12,2,-7,-17,0,9,5
1523055322081607,1,0,-7,-11,1,-2,0,0
1523055322081607,-1,-4,1,-8,11,-2,2,-1
1523055322088124,-2,4,-1,-9,-8,1,16,-2
1523055322088124,0,3,-2,51,30,6,-9,-3
1523055322103718,11,12,1,-31,-14,-7,-15,0
1523055322103718,-4,2,3,12,-2,0,31,4
1523055322110684,-3,-2,-1,-11,4,-6,-51,-19
1523055322110684,-9,-22,-12,16,11,0,6,8
1523055322127226,-2,9,3,-27,-20,-4,-5,-3
1523055322127226,-2,-1,-3,6,-10,-2,-2,-2
1523055322128731,4,3,2,8,10,2,17,7
1523055322128731,-3,8,4,-16,-16,-2,1,-8
1523055322141265,-1,-4,-3,6,0,0,5,0
1523055322141265,-5,-12,-5,5,7,-3,-11,-1
1523055322148283,5,4,0,-28,-10,-2,2,-3
1523055322148283,3,17,3,19,0,-1,-19,1
1523055322163825,-10,-20,-3,2,-8,-5,-7,-9
1523055322163825,-3,-3,-4,-14,-4,6,41,12
1523055322170843,-5,-5,-6,24,19,0,-26,5
1523055322170843,11,-1,2,-34,-33,-2,2,-8
1523055322186887,0,9,2,-13,-13,-2,2,-3
1523055322186887,-2,3,-1,7,4,0,-15,-4
1523055322188892,1,-1,2,8,1,1,7,1
1523055322188892,-3,6,-3,-26,-1,-2,5,-1
1523055322201480,-7,-15,-5,21,6,-2,-3,-6
1523055322201480,1,-3,0,-11,-8,0,-19,-1
1523055322207943,-5,15,4,-2,-1,0,13,-3
1523055322207943,7,-19,-2,8,5,0,-2,7
1523055322223985,-6,-9,-6,4,10,-3,-17,-4
1523055322223985,3,3,-2,-19,-18,-7,-16,-10
1523055322230503,-1,16,2,6,-4,3,10,18
1523055322230503,-13,-20,-6,-3,-1,-2,11,2
1523055322247045,7,0,3,6,4,4,14,-2
1523055322247045,4,-6,-2,15,8,0,-4,1
1523055322248551,-4,2,-4,-39,-19,-6,7,-12
1523055322248551,-8,-16,-2,34,1,-2,-13,-14
1523055322261585,0,7,-1,-16,-5,1,9,13
1523055322261585,-2,0,1,2,5,-1,-14,-5
1523055322268101,2,3,1,-2,-1,-1,12,0
1523055322268101,0,3,-4,-4,9,1,-2,2
1523055322283644,-9,-9,-5,10,5,0,-1,-2
1523055322283644,-8,-7,0,-5,-7,-2,2,0
1523055322290663,3,-9,-1,-11,-13,-4,-25,-1
1523055322290663,5,12,4,18,1,-3,-6,-6
1523055322307208,-1,9,3,1,-2,4,6,4
1523055322307208,-10,-3,-2,5,7,-1,-1,-1
1523055322308711,-2,-23,-8,-15,-2,0,5,2
1523055322308711,-2,2,1,-4,-5,-2,-7,-7
1523055322345309,1,15,2,-3,-2,-1,12,-7
1523055322345309,-7,-13,0,-1,2,0,-13,3
1523055322347815,3,4,0,3,0,0,-1,3
1523055322347815,-3,6,0,-5,0,-1,3,-2
1523055322366865,-4,-3,-2,-7,-3,-2,2,-4
1523055322366865,4,3,-1,0,-2,-6,-5,0
1523055322368370,-6,-13,1,12,2,6,18,0
1523055322368370,6,12,2,-2,3,5,-17,5
1523055322373884,22,12,-1,-3,0,1,12,15
1523055322373884,6,4,-1,2,-4,-4,-4,-8
1523055322374887,-11,-22,-5,5,-1,-1,3,1
1523055322374887,15,9,0,-4,3,2,4,-3
1523055322381402,9,-5,-1,-3,0,-1,7,4
1523055322381402,17,13,7,1,2,9,14,-3
1523055322387921,-9,3,-2,-5,-6,-8,-7,-10
1523055322387921,-4,-12,-3,-5,-4,-7,-26,4
1523055322403963,-6,10,0,-1,-1,-2,-7,-4
1523055322403963,1,-18,-9,-2,3,-1,5,7
1523055322410482,-2,-2,-1,1,0,1,3,0
1523055322410482,-6,4,-1,-2,-2,-2,10,-2
1523055322427025,-8,-6,1,-2,-4,-4,-9,-5
1523055322427025,-11,7,1,0,-3,-1,-8,1
1523055322428530,8,-15,-4,-1,0,-3,-4,-5
1523055322428530,-5,5,-1,0,2,-2,-4,1
1523055322440561,-6,-22,-5,-2,0,1,-4,-17
1523055322440561,1,5,-1,0,-5,-7,0,12
1523055322449586,9,23,5,5,3,8,16,9
1523055322449586,1,-16,-4,-3,-3,-7,-39,-16
1523055322464123,-8,-6,0,-1,0,-2,-2,4
1523055322464123,-8,-23,-10,-7,-3,-3,7,-9
1523055322470640,1,18,3,12,4,-4,-25,-5
1523055322470640,-9,-7,1,-1,-9,0,18,-5
1523055322487184,3,13,-2,-5,7,3,-2,-2
1523055322487184,6,9,-3,6,-4,-1,-11,9
1523055322488689,-4,3,-4,-28,-19,-7,0,4
1523055322488689,-8,-18,-8,14,17,3,3,-1
1523055322500722,-2,3,2,-4,-4,-1,-2,-7
1523055322500722,-5,-13,6,20,5,1,12,-3
1523055322509746,4,13,2,7,-1,-2,-7,0
1523055322509746,6,3,-1,-2,22,3,9,-2
1523055322523816,-4,-3,1,23,-1,-4,-6,6
1523055322523816,2,2,0,-29,-44,-4,6,2
1523055322530802,7,8,-3,15,17,5,23,-11
1523055322530802,-5,6,1,-24,-21,-9,-18,8
1523055322546843,1,0,-1,29,21,5,9,8
1523055322546843,-5,-19,-4,-19,-1,-2,-7,-10
1523055322548848,-5,-7,0,37,7,0,-2,-2
1523055322548848,4,18,1,-26,-6,1,11,0
1523055322560880,-12,-8,-8,-19,15,3,-2,-6
1523055322560880,-3,7,7,14,-40,-8,-5,-12
1523055322569905,-4,-20,-6,-14,-1,-1,-16,10
1523055322569905,-5,2,-3,7,10,2,12,-4
1523055322583998,8,19,-1,-11,-9,-2,-36,3
1523055322583998,5,-4,-4,9,23,3,8,-2
1523055322590501,-1,-10,-3,-19,-7,-4,-6,-2
1523055322590501,6,26,5,8,-7,1,10,2
1523055322607046,-16,-44,-4,-7,-15,-2,9,-5
1523055322607046,-2,-3,-9,-5,13,-1,4,-4
1523055322608549,1,-14,0,3,0,-5,-15,2
1523055322608549,-2,-1,1,13,4,3,22,4
1523055322620582,8,16,4,-33,-33,-7,-17,-14
1523055322620582,2,-2,-6,-12,10,4,16,16
1523055322629606,1,8,3,11,5,-1,1,7
1523055322629606,-2,2,-2,-3,-2,1,1,-10
1523055322643644,-5,-13,-8,4,5,-2,4,-5
1523055322643644,3,-10,-1,6,7,-1,-17,-3
1523055322650662,3,5,-1,-13,-5,-2,4,-7
1523055322650662,-3,0,2,10,-4,-2,-4,0
1523055322667206,0,-12,-4,-1,-3,-4,-2,-2
1523055322667206,-4,12,2,11,5,-2,-20,4
1523055322668710,-4,-16,-7,-12,12,2,4,5
1523055322668710,1,-6,2,-20,-27,-5,-3,-4
1523055322680742,5,11,2,8,-5,3,13,7
1523055322680742,1,2,-1,8,8,-1,1,-12
1523055322689766,-1,14,1,0,3,-2,-11,-1
1523055322689766,-4,-16,-5,10,8,-2,14,-3
1523055322703802,-5,11,3,-6,-4,1,6,-2
1523055322703802,0,-15,-3,-4,3,0,3,15
1523055322710878,-4,-7,-2,-7,-5,-1,-1,-8
1523055322710878,-1,-3,-1,-14,10,0,-6,1
1523055322726362,-3,-3,0,6,-24,-1,14,-5
1523055322726362,2,1,-2,6,10,0,-3,-7
1523055322733382,-3,23,3,-14,-5,-1,-2,1
1523055322733382,4,-17,-7,2,-4,-2,-7,-3
1523055322740901,-8,-16,-4,3,14,-6,-12,-6
1523055322740901,-1,8,-1,-23,-20,-1,-2,7
1523055322749927,-3,-4,1,10,-4,-5,1,8
1523055322749927,-2,8,4,4,0,3,13,-5
1523055322763964,5,-7,-5,4,4,-2,-3,5
1523055322763964,1,11,3,1,-2,1,-4,-6
1523055322770482,2,-11,-4,-28,-7,-1,27,-1
1523055322770482,-4,7,-2,8,-1,-5,-32,-1
1523055322786524,-5,-9,-3,-8,2,1,7,-2
1523055322786524,0,-3,-1,1,8,-1,-7,8
1523055322793041,-8,4,2,-3,-4,-2,10,-7
1523055322793041,-1,-2,-5,1,1,0,0,4
1523055322824623,-1,4,-2,-8,2,-1,-3,-4
1523055322824623,-2,12,5,0,-15,-5,-2,-7
1523055322826128,-4,-4,-1,12,0,0,-14,-8
1523055322826128,-7,-20,-7,1,-3,-2,13,13
1523055322831141,4,14,1,3,9,2,-8,6
1523055322831141,0,-5,1,-3,1,0,-4,-10
1523055322832145,-15,7,0,4,-7,-1,-20,-6
1523055322832145,13,18,1,-1,0,1,18,-26
1523055322847183,3,-20,-2,-2,-4,-6,-14,19
1523055322847183,6,10,1,2,8,7,-5,12
1523055322853201,-1,-16,-3,-5,-7,0,2,-12
1523055322853201,-2,5,1,-5,0,-7,-26,-5
1523055322869744,5,19,4,3,-4,-5,12,-8
1523055322869744,-13,-13,-1,3,3,-1,6,-12
1523055322871248,10,3,-2,4,3,1,5,9
1523055322871248,-6,-1,-1,-4,-4,-1,-2,3
1523055322883782,0,-4,0,-1,-3,-1,-2,-9
1523055322883782,-2,0,-1,-1,-1,-2,-3,7
1523055322890799,0,11,1,2,2,-1,0,-9
1523055322890799,3,-10,-1,-1,1,4,2,10
1523055322906343,-9,4,-1,2,0,-2,-15,-20
1523055322906343,-5,-6,-2,-3,3,1,11,1
1523055322913359,-5,-26,-4,-1,-3,-5,-9,-1
1523055322913359,2,16,3,3,1,-2,-1,4
1523055322929460,3,9,-1,-3,-1,2,8,10
1523055322929460,-8,-17,-4,-3,1,0,-4,-11
1523055322930907,-4,3,1,2,-6,-3,-3,0
1523055322930907,8,-3,-3,-1,-1,1,1,14
1523055322958014,-1,3,2,-2,4,2,4,-7
1523055322958014,1,21,3,1,-1,-1,12,6
1523055322968507,-6,-26,-10,-1,0,-1,-10,-2
1523055322968507,-1,2,4,2,1,-1,-9,-15
1523055322974030,-7,-6,0,-2,-3,1,8,-4
1523055322974030,-1,0,-4,-1,2,-1,5,1
1523055322974523,12,19,4,4,-1,0,11,10
1523055322974523,-12,-14,-4,0,-4,3,-4,-1
1523055322989562,4,-11,-3,2,-1,1,9,3
1523055322989562,1,-9,-3,-5,-4,-2,-32,-11
1523055322991067,0,8,0,13,9,0,4,0
1523055322991067,1,11,2,-13,-4,-7,-27,-7
1523055323003601,3,-20,-5,8,0,-3,18,36
1523055323003601,16,14,-9,-23,-1,2,8,-2
1523055323010620,-1,-12,4,-18,-28,-5,-9,-18
1523055323010620,-4,-1,-3,11,1,1,6,-10
1523055323026161,-5,-2,-1,-9,9,0,-9,-12
1523055323026161,-7,11,6,19,-13,-4,0,8
1523055323033233,1,-39,-14,-15,1,5,22,6
1523055323033233,-3,-12,1,14,-10,-5,-17,-9
1523055323049722,3,18,3,-8,3,1,-2,0
1523055323049722,-5,-8,-1,-5,-4,-5,-3,1
1523055323051226,5,32,6,2,11,7,1,1
1523055323051226,-11,-6,-4,9,3,0,24,2
1523055323063760,5,-5,-6,0,1,-2,-10,3
1523055323063760,-5,-6,3,6,6,2,-12,-6
1523055323070781,15,18,2,-4,-3,-6,-3,1
1523055323070781,10,-25,-7,-11,0,3,5,4
1523055323086321,-1,11,1,0,-8,1,-5,-5
1523055323086321,-5,-11,-1,-1,-5,-3,5,-9
1523055323093339,-3,-13,-1,1,2,0,2,3
1523055323093339,-2,12,3,-10,-10,-1,12,15
1523055323109382,3,-6,0,7,-1,-3,-31,-3
1523055323109382,3,1,2,-6,0,2,2,-5
1523055323111388,-7,-4,0,-1,-3,-2,-9,-3
1523055323111388,-1,3,1,1,1,0,1,0
1523055323123921,-16,-4,-2,-2,-4,0,12,-15
1523055323123921,13,-1,-7,2,7,1,-5,20
1523055323130475,-6,17,0,-2,1,-1,-5,-3
1523055323130475,-1,-24,-4,11,2,-1,-5,-1
1523055323146481,-2,4,2,-15,-7,0,10,2
1523055323146481,-5,1,-3,6,4,-1,16,-6
1523055323152999,-1,4,3,-3,-5,0,-13,-6
1523055323152999,-8,-7,-4,-7,1,-3,1,5
1523055323169541,4,0,0,21,7,-2,-2,4
1523055323169541,-3,7,4,16,-1,1,12,-9
1523055323171046,1,-3,-1,0,2,-5,-11,-6
1523055323171046,-4,13,0,21,24,6,7,7
1523055323184080,-4,-29,-4,-27,-36,-5,12,-17
1523055323184080,2,4,0,2,4,-3,-8,8
1523055323190597,1,13,-1,8,7,-1,1,17
1523055323190597,3,-16,-4,-14,-4,0,-10,-12
1523055323206140,-1,9,1,6,2,-2,-4,1
1523055323206140,4,-12,0,-5,-5,-2,0,-9
1523055323213159,-5,-8,-20,-17,-3,1,-9,-2
1523055323213159,-1,-3,26,-3,-10,-3,0,1
1523055323229701,-3,10,-11,-6,4,0,2,0
1523055323229701,-8,-4,-3,-14,-7,-2,-14,-13
1523055323231205,0,-19,-2,19,11,0,3,2
1523055323231205,3,10,-12,-15,-11,-1,-1,-6
1523055323243738,-4,-11,4,1,0,-4,-4,11
1523055323243738,-11,2,-20,2,2,-2,-6,0
1523055323250757,-2,5,44,11,-1,0,2,0
1523055323250757,2,-11,-18,-6,-6,-3,10,-6
1523055323266298,-1,1,3,5,2,-2,-15,-1
1523055323266298,0,-1,-4,-6,2,0,1,4
1523055323273371,3,10,-3,0,-2,-1,4,-4
1523055323273371,-15,-7,-1,-5,-2,-1,9,-4
1523055323289362,6,-12,2,5,5,-2,-4,10
1523055323289362,7,-9,-8,-9,-2,-2,-1,-4
1523055323291367,0,0,-1,0,-3,0,5,-4
1523055323291367,-4,17,10,3,1,-1,-9,1
1523055323303901,5,-1,-11,-5,2,1,-1,-5
1523055323303901,-20,0,9,2,1,1,-1,-4
1523055323310418,16,-7,-6,-2,-8,-2,2,9
1523055323310418,-20,0,-8,-3,3,-3,-5,-2
1523055323326461,0,-9,2,-1,-1,2,0,-2
1523055323326461,-2,6,8,-1,-2,-1,6,3
1523055323332976,2,3,-5,0,-1,2,0,-1
1523055323332976,4,-31,-12,-3,1,-2,-8,2
1523055323349522,-4,15,3,-2,-3,2,10,0
1523055323349522,4,-1,3,1,-3,-4,-7,-4
1523055323351030,-6,6,-6,-3,0,-1,5,-7
1523055323351030,10,1,3,-3,-4,-4,-2,7
1523055323363056,-13,-14,-5,-1,-2,-4,-8,-17
1523055323363056,10,2,3,-2,-3,-5,1,17
1523055323372081,-14,-13,-6,0,3,6,0,-20
1523055323372081,3,8,4,-2,-2,-1,-5,-2
1523055323386619,0,4,-2,-4,-2,-3,1,9
1523055323386619,-6,-2,3,4,-1,-1,0,-9
1523055323393136,7,4,-4,-3,0,-4,-5,12
1523055323393136,3,12,4,2,1,1,5,4
1523055323409682,1,7,-4,1,2,1,1,-5
1523055323409682,-3,-36,-10,-7,-5,-4,2,-11
1523055323411240,-5,-6,-2,0,-3,-1,0,-3
1523055323411240,0,5,-6,-2,-2,-2,-12,16
1523055323423272,4,6,10,1,2,-1,-1,-11
1523055323423272,1,8,1,0,-1,1,3,5
1523055323432241,2,-6,-3,0,1,-3,-1,-5
1523055323432241,-1,3,-2,-4,-2,-1,-1,-9
1523055323446334,-5,-13,-5,7,-2,0,9,2
1523055323446334,0,-4,-2,1,3,3,10,1
1523055323453299,-7,2,-1,-16,-11,-5,-26,-16
1523055323453299,5,-6,-5,23,20,6,-1,1
1523055323469339,-2,7,7,-30,-34,-9,4,-9
1523055323469339,2,23,5,20,11,-1,-2,-7
1523055323471344,1,-20,-4,21,5,1,10,33
1523055323471344,-4,-6,0,-21,-19,-4,7,-2
1523055323483378,3,-3,-1,8,12,4,-14,5
1523055323483378,2,-3,-5,17,46,10,-6,4
1523055323492403,12,21,8,-10,-36,-5,23,-12
1523055323492403,-2,16,7,-10,-7,-7,-34,-27
1523055323506492,1,-28,-10,10,14,-1,-14,22
1523055323506492,-13,-5,2,-23,-25,-6,-5,5
1523055323512956,-9,-16,-7,27,38,4,0,-10
1523055323512956,4,17,2,-12,-6,0,2,0
1523055323529500,-20,4,1,-19,-12,-2,4,-13
1523055323529500,8,4,-6,9,-1,1,-2,1
1523055323531004,-2,-11,-5,-10,-5,-4,-24,-1
1523055323531004,-7,-3,1,-4,-5,0,9,-7
1523055323543036,6,7,1,9,5,-1,1,6
1523055323543036,-1,1,-1,-2,-5,-3,-17,-7
1523055323552060,3,16,4,-6,-6,-1,11,-10
1523055323552060,-7,-9,-2,2,-1,-1,3,13
1523055323567100,3,4,-3,24,26,6,2,15
1523055323567100,-11,-11,2,-31,-35,-5,4,-4
1523055323573117,10,18,-1,-5,-8,-4,2,-10
1523055323573117,-7,-16,-2,12,11,-2,-39,-2
1523055323588659,1,0,0,-3,-3,-1,6,-3
1523055323588659,-6,-1,0,1,2,-1,9,-5
1523055323589660,-4,-5,-11,-6,4,-2,-6,8
1523055323589660,3,2,24,9,-7,-1,16,1
1523055323611218,-3,1,-7,-3,1,1,-3,-3
1523055323611218,3,-4,-2,-1,-4,-1,-8,-2
1523055323612273,-6,-9,-1,-2,-1,1,-3,1
1523055323612273,2,-3,-5,-2,3,-1,6,4
1523055323627294,1,7,3,-2,-6,-2,1,-5
1523055323627294,5,4,-4,1,1,0,-7,-1
1523055323633277,-9,-20,-7,1,5,2,-1,4
1523055323633277,-3,15,-1,20,1,-1,5,-9
1523055323648351,-15,-5,0,-18,-13,-7,-2,-10
1523055323648351,-3,-14,-1,30,-7,3,0,0
1523055323655837,-9,2,-1,-2,2,-3,-8,19
1523055323655837,3,-11,-8,-4,9,3,7,-4
1523055323671377,13,14,0,-1,2,-2,-10,-4
1523055323671377,-4,-22,-9,-4,3,-1,-1,-6
1523055323672395,-4,-1,13,-10,6,2,8,-8
1523055323672395,1,-3,-6,-12,-17,-4,2,4
1523055323687420,3,4,4,17,5,1,-9,-5
1523055323687420,-6,15,0,-34,-10,-2,9,-7
1523055323692934,3,-23,-4,12,3,0,-5,13
1523055323692934,3,15,-3,-7,-2,-2,1,0
1523055323708009,3,-1,1,-3,-2,2,3,1
1523055323708009,3,12,0,-1,4,-1,-9,-5
1523055323715495,-5,8,-5,2,-1,-1,5,-4
1523055323715495,-4,-7,4,-7,4,-2,-8,2
1523055323731539,4,0,-3,-6,-7,-4,7,1
1523055323731539,-5,5,1,10,5,-1,6,-4
1523055323732039,6,3,5,7,-5,-5,-26,-4
1523055323732039,-1,4,-7,0,2,0,13,15
1523055323747078,4,-4,1,1,-1,0,1,-7
1523055323747078,-5,-6,-2,-7,-1,-1,-4,-7
1523055323753095,-5,15,0,0,-5,0,11,-2
1523055323753095,-1,-29,-8,0,0,-1,-9,-14
1523055323768134,-1,2,3,-3,-4,-2,-15,3
1523055323768134,5,3,2,2,4,3,10,7
1523055323775711,2,11,0,-6,-2,0,4,-7
1523055323775711,0,4,-1,-4,-6,1,1,0
1523055323791197,0,-11,-1,2,-1,-1,1,0
1523055323791197,-9,1,1,0,-1,-5,-9,-13
1523055323792200,1,-1,0,-3,-4,-3,3,15
1523055323792200,9,-3,-2,-1,1,1,16,0
1523055323807238,-3,-10,-7,-4,2,-2,-28,-7
1523055323807238,9,16,-1,3,-4,-1,4,16
1523055323813254,-9,-8,4,-4,-2,3,6,-9
1523055323813254,-1,3,3,7,2,-1,-7,2
1523055323828294,4,10,-1,-6,-4,1,22,7
1523055323828294,-8,-13,-4,5,3,0,1,2
1523055323835816,-6,-10,-3,-8,-6,-7,-29,-20
1523055323835816,-4,-1,1,-1,0,-1,5,-5
1523055323851357,-6,4,-2,3,1,0,1,9
1523055323851357,3,0,2,-5,-4,0,-3,-3
1523055323851858,3,3,-5,-5,-1,-1,-4,-5
1523055323851858,-9,-4,0,-2,-4,-2,-4,-7
1523055323867399,-6,-1,-1,0,-1,-5,1,3
1523055323867399,4,-1,-6,-5,-8,0,0,0
1523055323873416,1,10,6,-1,-1,-2,6,-4
1523055323873416,-2,-6,-7,-2,-2,-2,-5,7
1523055323887953,-2,-5,0,2,2,4,0,-6
1523055323887953,2,-1,-1,-1,-3,-1,32,1
1523055323895472,2,5,-2,0,0,-2,-32,3
1523055323895472,2,4,-3,-2,0,-2,1,5
1523055323911517,0,-2,0,-1,-2,0,2,-5
1523055323911517,-1,-6,-1,0,3,0,-1,-2
1523055323912018,-2,-3,-3,-10,-1,1,8,-4
1523055323912018,3,9,2,18,9,1,1,2
1523055323927059,0,6,-1,6,-5,-2,4,2
1523055323927059,-7,-28,-1,4,-4,-3,-17,-6
1523055323933074,6,3,-4,-11,6,3,15,4
1523055323933074,4,-3,-1,-4,-18,-3,5,-2
1523055323948113,-4,4,4,32,6,-2,-8,-13
1523055323948113,1,-2,-15,-70,11,-1,-10,8
1523055323955667,0,-7,3,63,25,3,8,9
1523055323955667,-10,-8,10,-55,-56,-11,5,-12
1523055323971174,-4,1,-10,-22,-3,-2,-8,-16
1523055323971174,1,-6,2,-6,15,2,23,20
1523055323972177,-4,8,-3,37,18,2,-40,-3
1523055323972177,0,-3,-9,0,22,6,1,-3
1523055323987219,-3,1,7,8,-5,-1,7,12
1523055323987219,4,0,-9,-17,0,-1,-9,-13
1523055323993234,-3,-14,1,-16,-9,-1,18,-1
1523055323993234,1,18,3,24,2,-1,-8,1
1523055324008330,-5,-11,-3,-20,-6,-4,-2,-4
1523055324008330,8,9,2,30,4,0,-3,11
1523055324015794,-1,-1,1,-18,-19,-4,2,-3
1523055324015794,7,8,-2,3,8,2,5,3
1523055324031388,-8,-7,2,-4,10,3,9,-5
1523055324031388,-3,5,-6,4,-11,-7,-11,-6
1523055324032352,-1,2,0,-2,-14,-3,8,2
1523055324032352,1,-7,-5,-17,9,2,-5,-7
1523055324047377,3,16,1,-2,1,0,13,9
1523055324047377,-2,7,10,26,-8,2,-8,-4
1523055324053393,3,-11,-8,-25,-8,-2,-3,-6
1523055324053393,-6,2,-5,11,15,2,6,-3
1523055324067933,5,-1,-3,0,-1,-3,-3,13
1523055324067933,-4,-4,6,1,-9,-2,-16,-9
1523055324075451,6,13,-1,-12,5,0,6,2
1523055324075451,-6,-6,-5,2,0,-1,-1,8
1523055324091496,3,-9,-5,-2,-4,-3,-2,-10
1523055324091496,1,8,2,-3,5,1,-10,-1
1523055324091997,-10,-5,1,-3,9,4,12,-2
1523055324091997,3,-1,4,-4,-15,-5,-10,-4
1523055324107039,-11,-13,-6,-19,-19,-1,-1,2
1523055324107039,-9,3,-3,13,7,-2,32,14
1523055324113052,-5,1,5,-17,-7,-5,-23,-22
1523055324113052,5,3,-3,0,9,-1,-21,19
1523055324128091,3,-13,-7,14,10,1,0,10
1523055324128091,-10,-11,2,-2,1,0,0,-9
1523055324135613,25,17,-2,-28,-19,-2,9,5
1523055324135613,-7,-3,3,14,5,1,7,-11
1523055324151210,-7,-28,-8,11,1,-3,-2,-2
1523055324151210,0,2,-2,-2,0,-2,-7,-3
1523055324152210,2,-7,-4,7,11,-1,3,2
1523055324152210,5,15,1,3,-7,-3,-2,-4
1523055324167197,-1,4,5,-6,2,2,3,-4
1523055324167197,3,7,0,1,-8,-2,-4,0
1523055324173267,-4,-13,0,6,-1,-3,-3,4
1523055324173267,-1,6,-2,-7,-2,-2,3,2
1523055324188255,-2,-9,0,-2,-1,1,-2,-5
1523055324188255,2,3,-1,-3,-4,-3,1,-9
1523055324195773,-12,-20,-3,15,2,-1,0,2
1523055324195773,0,0,-1,15,-4,-1,-5,-10
1523055324211313,11,11,1,4,2,0,-1,7
1523055324211313,8,9,6,-4,-7,-1,-9,-4
1523055324212316,-7,-19,-6,-8,-5,0,5,8
1523055324212316,-4,-12,-7,-3,9,1,2,5
1523055324227356,-3,-1,-5,-4,-2,-3,-7,-14
1523055324227356,3,1,0,-1,-5,0,-4,4
1523055324232870,-5,7,0,1,12,-1,-5,-3
1523055324232870,-4,-6,5,1,-13,-2,4,-12
1523055324247910,-6,11,4,1,-18,-1,2,12
1523055324247910,-7,-24,-7,3,6,-1,-4,3
1523055324255433,-8,-24,-12,-2,2,0,17,-9
1523055324255433,3,9,1,-6,6,-2,-12,2
1523055324271529,0,9,3,-6,1,-2,2,-1
1523055324271529,-4,8,1,5,-2,0,0,-6
1523055324271976,5,14,0,1,-4,2,6,6
1523055324271976,-3,-8,-1,-4,-1,-1,-1,-2
1523055324287016,-1,5,0,2,5,0,-3,-2
1523055324287016,-5,-10,1,-1,0,-2,1,-1
1523055324293031,11,14,2,0,-5,-3,-9,-1
1523055324293031,4,5,-5,-6,-3,-1,1,0
1523055324308071,4,7,-2,-3,3,-2,-4,-1
1523055324308071,-4,-18,-3,-3,-2,-2,-3,-1
1523055324315590,-6,1,-1,-4,-9,-2,-3,-3
1523055324315590,8,3,2,2,1,0,6,8
1523055324331133,-3,-5,-1,-4,0,-2,-2,-7
1523055324331133,-20,-23,-8,-1,-2,-3,-11,-15
1523055324332135,-1,-2,-5,-6,-4,-4,-5,-2
1523055324332135,-5,-9,-3,-1,4,1,5,0
1523055324347175,1,2,2,-1,4,0,0,3
1523055324347175,4,6,3,1,-2,-2,0,8
1523055324353194,-1,19,3,0,-4,2,-4,-8
1523055324353194,4,-8,-10,-4,-1,-2,-5,-7
1523055324368232,5,-6,3,-1,-2,-3,-2,0
1523055324368232,2,17,1,-2,3,0,1,-1
1523055324375752,-5,-19,-2,2,-2,-2,1,7
1523055324375752,1,11,1,-1,-1,-2,-4,-9
1523055324391349,-5,-15,-4,-2,1,-3,-7,-3
1523055324391349,5,8,4,0,0,3,4,-1
1523055324392296,-8,-1,1,-3,-1,-1,-1,-3
1523055324392296,-4,-10,-4,-1,-1,-2,-1,4
1523055324407395,-1,-3,0,-5,-3,1,3,-3
1523055324407395,2,7,0,2,-1,-1,-5,1
1523055324413414,1,8,0,0,1,0,-5,-5
1523055324413414,-9,-10,-3,-4,-4,-2,18,-8
1523055324427986,3,6,0,-1,1,-4,-35,6
1523055324427986,4,1,-4,0,-3,0,8,0
1523055324435472,-3,0,2,-1,-1,-3,-13,-2
1523055324435472,-2,0,0,-2,2,-1,-3,2
1523055324451514,-2,1,-2,0,-2,-1,9,-4
1523055324451514,-6,-14,-3,-7,-3,1,-4,-3
1523055324452015,3,7,3,16,1,-1,5,0
1523055324452015,-7,-6,4,-5,-4,0,-6,-1
1523055324467057,5,10,1,6,7,0,4,0
1523055324467057,-1,14,-2,4,2,-2,-6,-3
1523055324473073,-4,-23,-3,38,11,2,9,4
1523055324473073,-3,10,1,-17,1,-1,-4,-6
1523055324488113,21,17,8,-11,-25,-3,6,8
1523055324488113,-3,-19,-6,20,15,2,2,-4
1523055324495631,-7,-20,-7,-27,-4,-1,3,1
1523055324495631,4,23,-8,23,20,-1,-7,2
1523055324511230,-10,-30,0,-31,16,1,-1,-6
1523055324511230,5,8,7,1,-30,-8,2,2
1523055324512177,3,7,5,-10,-18,-5,-7,-4
1523055324512177,-1,-1,-4,-4,6,4,3,14
1523055324527216,-4,-12,-10,9,-12,-3,5,7
1523055324527216,6,4,3,23,31,8,-3,-4
1523055324533231,-3,10,-5,-36,-24,-5,-2,-2
1523055324533231,1,1,1,-3,-17,-5,2,-7
1523055324548271,-6,-4,-2,8,15,2,0,-4
1523055324548271,-1,3,1,-17,-3,-2,-6,-1
1523055324555826,2,-4,-3,9,-6,1,5,-2
1523055324555826,-2,2,4,-5,2,0,-6,0
1523055324571432,-15,5,-4,-3,-2,-3,-2,1
1523055324571432,12,-16,-4,-7,-7,-4,-1,-3
1523055324571901,1,5,-3,-7,5,1,15,-3
1523055324571901,-3,-10,-1,3,-5,-5,-39,-3
1523055324586944,-4,2,1,8,1,1,8,-5
1523055324586944,-3,12,2,-7,-7,-1,3,1
1523055324593009,0,0,0,9,7,0,-6,4
1523055324593009,-9,-35,-7,-7,3,5,9,-2
1523055324607995,6,17,0,16,-8,0,-2,-5
1523055324607995,5,-3,-2,-11,-6,-1,-5,0
1523055324615515,3,10,6,-8,2,2,-2,-8
1523055324615515,-3,-26,-4,27,11,-1,4,22
1523055324630555,5,9,7,-3,-15,-1,3,-4
1523055324630555,-8,1,-3,2,3,2,23,-2
1523055324638077,0,9,-1,-17,-9,-7,-36,-11
1523055324638077,-3,-18,0,23,2,0,-5,-10
1523055324653617,-6,-13,-9,-7,8,-1,1,4
1523055324653617,-3,5,1,-10,-7,-1,2,-3
1523055324654620,12,0,2,14,1,3,29,-3
1523055324654620,4,12,-1,-14,-4,-5,-2,12
1523055324668155,0,-25,-6,-2,-3,-3,-13,7
1523055324668155,-6,-5,-1,0,5,2,-2,-13
1523055324675732,0,3,-4,-9,4,-3,-10,-3
1523055324675732,1,7,1,-5,-16,-1,19,-9
1523055324690772,2,-6,1,8,7,2,7,11
1523055324690772,-1,16,2,3,-5,-3,-12,-2
1523055324698238,-9,-24,-4,8,12,5,7,4
1523055324698238,-2,-9,-1,-11,-6,-2,-1,-8
1523055324707314,-8,11,2,-21,2,-1,-1,-7
1523055324707314,-2,-19,-6,0,-2,-1,-8,2
1523055324713329,1,-3,0,10,2,-3,0,7
1523055324713329,-4,7,1,-11,-3,0,2,-4
1523055324728315,-1,6,-4,-16,14,3,-2,-6
1523055324728315,-1,4,10,29,-20,-2,25,0
1523055324735836,-2,6,-7,-13,-8,-9,-60,3
1523055324735836,1,-6,-5,-2,7,2,7,-6
1523055324750877,1,2,2,9,5,1,2,-9
1523055324750877,3,-1,-3,-16,3,1,4,-1
1523055324757896,-7,5,3,20,3,5,47,12
1523055324757896,6,6,1,-6,-6,-9,-52,22
1523055324773938,2,10,0,5,-4,-4,-12,-31
1523055324773938,-12,-14,-6,-6,1,-1,1,15
1523055324774440,-8,-4,5,3,2,1,8,-8
1523055324774440,12,15,-1,-4,-4,1,14,-9
1523055324787974,-20,-18,-7,-4,-9,-4,4,3
1523055324787974,-2,-5,2,-7,2,-4,-17,-6
1523055324795495,2,6,-2,-2,1,-1,6,4
1523055324795495,-7,8,-1,1,-1,-1,6,-11
1523055324810534,8,-5,3,4,-6,0,0,15
1523055324810534,-2,12,-5,-5,1,-1,-10,-13
1523055324818054,-13,-47,-10,0,-2,-4,-7,0
1523055324818054,6,12,1,-5,-1,3,9,1
1523055324834097,1,13,1,1,-4,-2,1,-2
1523055324834097,-6,-22,-6,-4,4,1,0,8
1523055324834599,11,1,2,-1,1,3,1,1
1523055324834599,1,3,-2,-3,0,3,27,-15
1523055324848136,3,7,-2,2,-3,-6,-41,6
1523055324848136,6,12,8,2,3,0,0,14
1523055324855709,-9,-20,-8,-9,-5,-1,-1,-10
1523055324855709,0,6,0,-1,0,-1,4,0
1523055324870733,0,-9,0,4,0,3,10,0
1523055324870733,-1,0,-3,-4,-1,-1,7,-7
1523055324878215,2,5,2,-1,-2,-2,-17,-1
1523055324878215,-4,2,2,1,-1,-1,1,4
1523055324893795,4,9,0,0,0,1,6,-10
1523055324893795,-5,-7,-1,0,-1,-2,-13,6
1523055324894787,7,29,4,0,0,-1,14,8
1523055324894787,-6,-31,-3,2,1,-1,-6,-8
1523055324908296,-7,-17,-5,-3,-1,0,0,-3
1523055324908296,6,18,-2,-8,0,-1,5,-1
1523055324915814,1,14,-1,10,5,2,2,0
1523055324915814,-4,-10,-1,-6,-16,-6,-8,-4
1523055324930856,2,5,2,-2,-3,-5,-24,-6
1523055324930856,5,-15,-5,45,24,4,0,0
1523055324937875,-8,2,1,-54,-32,-5,4,2
1523055324937875,-10,-3,-4,-5,12,1,1,1
1523055324953916,1,-3,2,46,-1,-2,16,3
1523055324953916,7,7,1,-22,-24,-2,4,0
1523055324954418,-5,-3,-5,22,2,-3,-22,-1
1523055324954418,10,6,8,-23,6,1,-3,5
1523055324967953,-6,9,1,0,10,3,1,-6
1523055324967953,-12,-33,-10,-2,1,-5,-16,-17
1523055324975474,9,6,3,7,0,2,30,7
1523055324975474,2,10,0,3,-6,-8,-33,10
1523055324990513,-4,-22,-12,-25,1,-1,8,9
1523055324990513,11,35,5,-1,-11,-1,-1,-7
1523055324998033,-10,-16,-4,-22,1,1,-3,-9
1523055324998033,-2,0,-3,17,2,-1,2,-7
1523055325013576,-2,-5,3,5,1,1,8,4
1523055325013576,-5,0,-1,-7,-1,-4,-6,8
1523055325014632,-2,-15,-9,5,0,-2,-6,-8
1523055325014632,0,-3,-3,3,3,4,6,2
1523055325028115,3,3,2,-3,-6,-1,1,-2
1523055325028115,-9,17,3,5,-3,-1,3,-7
1523055325035634,3,-45,-8,2,5,-1,-1,7
1523055325035634,6,-6,0,0,-5,-3,-5,6
1523055325050674,2,2,-2,-32,-14,-1,4,-4
1523055325050674,-5,1,-2,4,1,-3,-5,0
1523055325058194,-3,19,3,-2,6,-1,-2,-5
1523055325058194,-4,2,2,19,8,3,7,-6
1523055325073791,-3,0,-3,-15,-14,-3,2,2
1523055325073791,3,0,-2,-11,-3,-1,6,4
1523055325074792,-3,8,2,5,2,-3,-19,-9
1523055325074792,-8,-17,-8,-16,-7,-2,7,-3
1523055325088308,11,28,6,18,11,1,2,2
1523055325088308,-9,-14,-5,26,13,0,-3,-3
1523055325095794,-3,10,-2,-39,-19,0,13,0
1523055325095794,13,-2,4,6,-16,-5,-13,9
1523055325110835,-4,2,-4,6,10,1,0,-2
1523055325110835,-3,-9,-5,-16,-2,0,-4,-7
1523055325118353,4,3,6,18,14,2,6,17
1523055325118353,0,17,4,5,3,1,-10,-12
1523055325133896,-8,-22,-9,-13,-9,0,10,-1
1523055325133896,2,-9,-1,8,9,1,9,-5
1523055325134397,1,20,2,7,-16,-7,-25,2
1523055325134397,-11,-10,-4,-18,-3,1,12,-4
1523055325147932,0,-7,2,21,4,0,-7,-6
1523055325147932,-2,-3,-6,-21,-8,-1,8,10
1523055325155454,3,5,2,10,9,2,3,-1
1523055325155454,3,2,-1,-2,-1,-2,3,-2
1523055325170493,6,13,1,0,1,-2,-5,-6
1523055325170493,-5,-18,-1,-2,1,-1,-7,-2
1523055325178012,-17,-1,-2,-1,-5,-1,2,-11
1523055325178012,-2,-1,-3,3,2,-1,-3,2
1523055325194056,3,20,7,-2,-2,-1,-1,1
1523055325194056,4,-9,0,-8,-8,-1,-3,1
1523055325194558,2,9,-3,-4,2,0,1,3
1523055325194558,-6,-21,-7,-4,-2,-2,2,-8
1523055325232194,4,2,6,34,10,-1,1,3
1523055325232194,14,6,1,-18,-12,-2,-4,7
1523055325233662,1,-8,2,14,9,3,1,-7
1523055325233662,-3,10,-2,-21,-4,1,2,3
1523055325254729,-2,-7,-3,-1,-5,-2,-3,-3
1523055325254729,0,-11,-5,1,4,-1,-4,-5
1523055325256277,0,1,-1,2,2,-1,2,-1
1523055325256277,8,2,1,-5,-2,1,-1,-2
1523055325276774,-10,-7,-4,-9,0,-1,-1,2
1523055325276774,-9,-3,-1,1,-2,-3,-1,-2
1523055325278780,3,2,-3,-3,-2,-1,0,-4
1523055325278780,-3,2,2,9,0,-1,0,-1
1523055325284796,-2,-8,-3,-8,-3,-2,-2,-1
1523055325284796,-2,12,4,0,-1,1,3,1
1523055325286303,-4,-14,-5,1,0,-1,-4,-3
1523055325286303,5,0,1,7,0,-2,0,0
1523055325290813,-6,-1,-6,-10,-3,1,-1,1
1523055325290813,5,10,4,0,-4,-2,1,-4
1523055325298332,-2,-4,1,1,0,1,6,4
1523055325298332,-5,-2,0,5,2,0,2,0
1523055325313875,-6,-10,-3,-8,-1,-1,-7,-6
1523055325313875,-1,10,1,1,-2,2,22,12
1523055325314376,9,-6,-3,1,-2,-2,-10,-6
1523055325314376,-1,-3,3,5,5,4,6,0
1523055325336434,-2,2,0,-8,-4,-3,-4,1
1523055325336434,-9,-19,-10,-3,-2,-5,-5,-15
1523055325336936,-5,10,7,-3,-3,-3,-4,-1
1523055325336936,-7,-13,-6,-3,-3,-2,1,6
1523055325350472,4,1,1,-1,-1,0,4,-2
1523055325350472,0,12,-3,-2,1,-1,-6,4
1523055325357991,6,7,5,1,-3,-3,-8,-12
1523055325357991,-3,-5,-2,-1,-3,-1,2,-1
1523055325374033,-10,-13,-2,-2,-3,-1,-14,-3
1523055325374033,-4,-5,3,1,0,-1,19,-2
1523055325374536,4,14,-1,-2,-2,-2,-20,9
1523055325374536,-1,10,3,1,2,0,3,-8
1523055325388073,3,-13,-9,-7,3,0,2,-1
1523055325388073,3,-4,3,11,-10,2,-1,3
1523055325395591,-5,-3,-4,-3,10,1,9,-3
1523055325395591,-2,4,1,11,-1,-3,-4,1
1523055325412137,-9,-15,1,5,-8,-3,5,-2
1523055325412137,2,11,0,-24,6,-2,-27,-18
1523055325418151,4,-1,-3,23,-7,-4,15,14
1523055325418151,3,3,-1,7,0,-2,-4,8
1523055325433746,1,1,3,-14,-12,-1,1,-4
1523055325433746,0,14,-3,-11,13,2,-6,1
1523055325434697,-6,-14,-6,-13,-6,-2,-2,-15
1523055325434697,-4,-17,0,15,-7,-3,16,-12
1523055325448231,6,17,1,-4,4,0,-10,24
1523055325448231,-1,-9,-5,15,-2,1,15,-3
1523055325455752,0,6,-5,-40,2,0,-12,-1
1523055325455752,-3,1,-1,1,-3,-1,4,-3
1523055325470848,2,5,4,18,11,2,3,-10
1523055325470848,8,-6,-8,-31,-28,-7,-3,1
1523055325478313,-8,-4,1,15,7,2,6,1
1523055325478313,-8,-13,-6,-3,-3,-3,-11,-4
1523055325493854,7,11,0,1,0,-3,5,1
1523055325493854,0,6,4,6,9,0,-5,7
1523055325494857,-5,-20,-1,13,0,3,9,-9
1523055325494857,-9,4,-1,-11,2,1,-5,-7
1523055325509897,1,24,0,-14,2,-6,-10,15
1523055325509897,1,-39,-9,10,-4,-7,-20,-1
1523055325515411,-10,10,6,2,-11,-1,4,-13
1523055325515411,7,-9,-4,-7,4,0,0,0
1523055325530483,-7,-8,-4,1,2,3,10,-11
1523055325530483,1,12,4,12,3,-1,-3,1
1523055325537970,8,0,-1,-1,5,-1,7,8
1523055325537970,-11,-2,-2,-17,1,0,-5,-1
1523055325553066,0,-12,-5,-3,-11,-6,-5,-7
1523055325553066,1,14,6,8,2,1,-1,4
1523055325561533,-5,-16,-9,-11,-1,1,-3,-3
1523055325561533,-7,-12,-6,-4,-1,-1,-2,-5
1523055325568050,2,5,0,-2,0,0,-3,4
1523055325568050,-7,5,6,-4,-1,-1,-3,-10
1523055325575569,-17,-23,-6,0,4,0,6,0
1523055325575569,15,19,2,22,4,1,16,-10
1523055325590663,5,-7,-5,-15,-8,-9,-37,23
1523055325590663,4,6,2,-10,11,4,3,9
1523055325598184,-2,3,8,23,-10,0,1,-12
1523055325598184,-2,-2,-5,-10,4,0,-7,-2
1523055325613170,0,-9,0,-8,-6,2,19,-18
1523055325613170,-4,17,0,10,6,-1,-9,3
1523055325621193,-17,-5,-2,7,10,-2,-10,5
1523055325621193,7,-30,-6,-16,-16,-3,-2,0
1523055325628211,-4,-2,-1,5,-2,2,6,-6
1523055325628211,-7,-6,-4,-11,-4,-1,0,-1
1523055325635730,5,10,0,3,4,-1,2,6
1523055325635730,-6,7,7,17,-8,-2,-4,4
1523055325650771,0,12,2,-8,3,1,2,0
1523055325650771,2,-8,-3,0,-2,-1,1,-8
1523055325658292,6,-3,0,4,-1,-1,-5,-5
1523055325658292,2,8,-2,-6,2,-1,0,15
1523055325673378,4,-3,-4,5,4,0,-6,-12
1523055325673378,2,5,2,-13,-8,-1,5,3
1523055325681410,0,0,-1,0,-3,-3,21,5
1523055325681410,3,-5,-1,-10,1,-4,-38,-4
1523055325711932,-12,-1,3,11,7,0,7,-10
1523055325711932,1,-16,-3,0,-15,-3,-1,0
1523055325713438,5,10,2,-3,4,1,3,7
1523055325713438,-3,7,-1,-7,-8,0,12,-7
1523055325734493,-4,2,2,7,3,-2,-19,-5
1523055325734493,8,24,1,3,2,0,1,-2
1523055325735997,-6,-16,-7,-13,-8,-3,-10,-1
1523055325735997,-1,11,2,4,3,1,11,16
1523055325756586,-3,-3,-4,-3,-2,0,5,0
1523055325756586,-4,-12,-3,-2,-3,-2,0,-4
1523055325763068,7,11,1,-3,-2,0,-5,-6
1523055325763068,-2,14,-5,-1,6,2,-4,-9
1523055325779113,-7,-19,2,-2,-8,0,19,-4
1523055325779113,5,4,-2,1,1,-4,-34,9
1523055325787135,27,19,-1,-4,-1,-2,-13,-11
1523055325787135,1,3,-2,-2,0,1,0,0
1523055325793706,-2,-6,-5,-3,-2,-1,4,2
1523055325793706,-4,-6,-1,5,0,-2,10,-8
1523055325794653,-7,-5,-1,-3,-4,-2,-4,2
1523055325794653,3,10,2,0,1,0,-4,3
1523055325802175,9,0,-1,3,1,2,5,-2
1523055325802175,-8,-15,0,-1,3,0,1,-3
1523055325802676,-2,1,-5,-5,-4,-2,-9,3
1523055325802676,-7,-25,-2,-1,1,1,9,-5
1523055325816211,-6,5,-2,0,-1,-4,-10,-8
1523055325816211,0,3,-1,-2,-3,-4,-3,-7
1523055325817215,-4,-9,-6,-7,-5,-3,-1,1
1523055325817215,1,-14,-3,1,0,-2,-2,-1
1523055325830750,8,4,1,-1,0,-1,-3,0
1523055325830750,-6,2,0,0,-1,2,7,12
1523055325838303,-8,-2,1,-1,-3,0,12,4
1523055325838303,-2,-9,-8,-2,0,-1,-7,0
1523055325853309,3,8,0,-3,-2,-2,5,3
1523055325853309,-8,-14,-5,0,-1,-2,1,-13
1523055325861330,-2,-2,2,0,2,1,8,-4
1523055325861330,-9,4,3,-1,-4,-6,-6,-3
1523055325876403,-1,-11,-7,-2,-2,-2,2,1
1523055325876403,-22,-7,5,1,0,0,4,1
1523055325876873,13,6,-2,-1,0,1,-3,1
1523055325876873,-2,-6,-2,-2,-2,-2,-3,-5
1523055325890407,-8,-14,-5,3,0,1,-3,-1
1523055325890407,4,-2,-4,0,1,1,-1,0
1523055325897927,4,15,2,9,7,1,-6,-1
1523055325897927,-7,-13,5,6,2,0,-7,-10
1523055325913004,2,4,-4,5,9,-1,7,-1
1523055325913004,-2,3,8,-7,-8,1,3,15
1523055325921516,-8,-6,-2,4,-8,-2,15,-2
1523055325921516,15,18,-2,29,23,2,-3,7
1523055325936532,-4,4,10,-17,-29,-5,-13,1
1523055325936532,-4,-25,-13,-4,16,1,-6,-14
1523055325937033,-7,-13,-5,-10,17,3,3,-1
1523055325937033,-6,15,5,28,-5,1,8,-12
1523055325950567,4,12,-1,-4,-2,0,5,7
1523055325950567,3,-1,-4,-19,-6,-4,-19,-3
1523055325958146,0,-3,1,13,0,-1,-4,-2
1523055325958146,-1,5,-2,-21,1,2,3,4
1523055325973183,-5,-6,-3,1,0,-1,-5,-4
1523055325973183,5,11,1,3,-8,-2,11,1
1523055325981206,-1,0,-5,-10,-3,-2,-1,-3
1523055325981206,-3,-16,-2,-9,-2,-4,-38,-3
1523055325996190,-7,-21,-3,7,-2,0,11,-1
1523055325996190,6,8,2,-5,-3,0,8,-1
1523055325997193,-1,-9,0,-2,2,-4,-8,-2
1523055325997193,3,16,4,-9,-11,0,16,-4
1523055326010729,3,4,-4,-6,3,0,-9,0
1523055326010729,-3,-17,-4,13,8,0,-5,10
1523055326018248,2,15,5,-3,-4,0,-1,6
1523055326018248,-6,-5,-1,-7,-7,1,10,-1
1523055326033288,-6,7,3,2,6,-1,3,-4
1523055326033288,6,-10,-8,-2,-1,-6,-15,-7
1523055326041310,2,20,5,3,0,1,-3,-3
1523055326041310,-14,-31,-7,-15,-6,-2,5,4
1523055326056386,1,-5,0,9,6,1,2,0
1523055326056386,-2,22,-1,1,-10,0,-7,-6
1523055326057353,-11,-26,-6,-17,-4,-1,20,-4
1523055326057353,4,12,-2,2,6,-3,-36,6
1523055326070889,5,-5,-1,-12,0,1,6,1
1523055326070889,-1,-4,0,-11,-13,0,8,-4
1523055326077941,-8,-5,0,11,0,-3,-7,-6
1523055326077941,5,-2,-5,-10,0,0,12,-3
1523055326092985,2,3,3,-2,-3,-2,-7,2
1523055326092985,3,13,2,-3,-1,-3,1,0
1523055326101470,-12,-13,-6,11,4,2,-8,-3
1523055326101470,21,14,2,3,-6,-3,7,0
1523055326116510,3,3,-1,7,0,-1,-10,-6
1523055326116510,-10,-15,-4,-6,-2,2,11,2
1523055326117011,1,0,2,-4,-3,-2,1,-5
1523055326117011,-3,7,2,26,22,-1,-23,-4
1523055326130548,-6,-4,0,-3,-20,-2,7,6
1523055326130548,8,12,-1,0,0,0,9,7
1523055326138068,6,-5,-1,-1,-1,0,7,7
1523055326138068,-6,9,2,-10,-3,1,9,-5
1523055326153106,-1,-1,-7,12,12,-1,-9,-7
1523055326153106,-4,-6,9,-5,-6,-1,4,1
1523055326161129,-4,6,1,-21,-8,-4,-16,0
1523055326161129,-6,-17,-9,20,-4,0,9,-3
1523055326176169,7,23,2,-10,-7,-3,-5,4
1523055326176169,-11,-13,-9,1,14,-1,-3,-8
1523055326177172,6,-5,5,2,-7,-1,-5,-1
1523055326177172,-1,11,3,-10,-19,-2,4,5
1523055326214809,7,-12,-6,-11,-4,-1,3,-10
1523055326214809,-3,4,-1,5,3,1,-3,-4
1523055326216778,1,-4,-2,0,6,-1,-5,5
1523055326216778,5,-2,6,-2,2,2,22,3
1523055326236831,-4,4,0,-7,-6,-5,-39,-9
1523055326236831,-4,-10,-2,16,8,-1,-3,0
1523055326238835,-2,-1,-9,-13,-6,-2,4,0
1523055326238835,-1,-4,-2,-8,-3,-3,-1,2
1523055326259389,5,10,4,-4,9,3,10,-1
1523055326259389,-1,-2,-2,-8,-8,-2,-4,-6
1523055326260894,-1,-2,-1,-5,-13,-3,-6,-4
1523055326260894,-2,-1,-1,-9,-1,-1,0,-4
1523055326281951,-1,4,0,8,8,1,8,2
1523055326281951,3,6,-2,2,1,-2,-3,6
1523055326283455,1,-4,-2,-10,-8,-2,1,-3
1523055326283455,-5,3,1,9,4,-2,-5,-4
1523055326303062,-5,-12,-4,-2,-1,-2,3,-3
1523055326303062,-1,-7,0,14,4,1,2,-6
1523055326313534,0,-3,-2,0,2,2,-10,-1
1523055326313534,2,15,2,-6,-4,0,18,5
1523055326318551,-10,-34,-9,3,2,-4,-36,5
1523055326318551,3,2,0,-3,-4,1,6,-4
1523055326319584,3,30,4,6,2,-1,-1,0
1523055326319584,-6,-33,-7,-9,-2,1,1,-7
1523055326342164,-3,5,1,3,-1,2,28,3
1523055326342164,-22,-8,-4,-6,-2,-4,-23,-2
1523055326343615,1,-12,-2,0,0,-2,4,5
1523055326343615,3,11,2,1,2,2,-4,-1
1523055326364669,-2,-1,2,0,-1,0,8,3
1523055326364669,2,0,-1,2,1,2,4,-6
1523055326370744,5,3,1,2,2,0,4,11
1523055326370744,-4,-6,-2,-6,-4,-1,-2,5
1523055326385727,5,6,1,0,-3,1,6,16
1523055326385727,1,14,-2,-2,-1,0,-1,-24
1523055326394749,-7,-8,-3,2,-3,-1,6,9
1523055326394749,25,-11,-2,-4,-1,-2,-17,11
1523055326416810,2,-35,-9,-2,1,-2,4,1
1523055326416810,8,23,7,2,4,2,8,12
1523055326418815,-11,-11,-4,0,-4,0,1,-11
1523055326418815,-2,0,1,0,2,1,5,5
1523055326424330,-1,10,5,-2,-4,-1,0,-8
1523055326424330,-1,-21,-1,-3,-4,-4,-5,3
1523055326425333,8,5,1,0,3,-1,-3,-8
1523055326425333,-5,4,0,-8,2,1,6,-7
1523055326431403,-8,3,-2,4,6,-2,0,1
1523055326431403,5,14,1,-27,-35,-9,2,7
1523055326432351,-7,-7,-2,12,27,5,1,6
1523055326432351,-11,-22,4,3,-55,-15,-22,-31
1523055326438920,-3,32,-2,-11,36,6,-4,-7
1523055326438920,11,-6,3,56,-19,-5,8,19
1523055326439869,2,7,3,-44,-43,-7,-5,-13
1523055326439869,-16,-5,-10,-18,44,8,6,12
1523055326453407,3,-20,4,56,-10,0,1,-8
1523055326453407,-2,14,7,-51,-29,-4,4,-2
1523055326461486,-3,-18,-9,15,17,3,-3,-10
1523055326461486,-6,-5,-7,-5,2,-5,-10,8
1523055326475501,2,14,-1,-3,10,0,15,8
1523055326475501,-4,-16,-3,5,24,1,-34,-14
1523055326483989,12,18,3,4,-18,-5,0,2
1523055326483989,-5,-10,-6,-17,-4,-4,0,-14
1523055326490506,2,16,-2,-14,-7,2,-2,2
1523055326490506,-1,-16,0,4,2,1,15,9
1523055326498026,20,27,5,-1,-2,-3,-18,-13
1523055326498026,2,-16,-5,7,6,0,-3,2
1523055326513066,-2,0,3,-8,-11,-1,3,0
1523055326513066,-11,-3,-2,19,13,2,-1,-16
1523055326521587,-13,-25,-6,-16,-1,-3,-3,6
1523055326521587,10,37,6,-2,-15,-1,14,-2
1523055326535625,-14,-47,-10,3,-7,-5,-16,-1
1523055326535625,13,7,-3,-10,13,0,-2,-11
1523055326543645,-8,8,-6,8,7,-3,-2,10
1523055326543645,3,18,5,12,-2,0,4,0
1523055326550666,11,1,0,-19,-12,0,9,-17
1523055326550666,-4,-2,-3,1,8,-5,-38,24
1523055326558218,-2,-17,0,2,2,4,6,-7
1523055326558218,-1,0,3,17,-1,-3,1,2
1523055326573278,-8,-1,-3,-12,0,-2,-1,-9
1523055326573278,2,5,-2,-8,5,3,12,2
1523055326581299,-7,-17,0,12,-2,-1,-3,1
1523055326581299,-4,10,2,2,3,0,-6,-9
1523055326595784,4,0,0,-5,4,2,1,2
1523055326595784,-7,-1,-4,14,10,1,-5,-2
1523055326603862,-3,-17,-6,-43,-41,-9,-4,-1
1523055326603862,1,13,0,6,11,3,5,-4
1523055326618848,-6,-6,1,0,-1,2,24,6
1523055326618848,2,5,0,3,4,-5,-31,-1
1523055326619348,-4,1,0,24,29,4,-5,-12
1523055326619348,-5,-7,1,-2,-6,-3,-7,4
1523055326633386,2,16,3,12,-23,-4,2,-2
1523055326633386,-4,-25,-9,-10,-2,1,23,7
1523055326641407,-11,9,2,13,25,6,2,-10
1523055326641407,-3,0,-1,-25,-21,-3,-7,6
1523055326655478,-8,-22,-7,6,14,-1,2,-2
1523055326655478,6,14,2,-45,-6,-3,-17,-8
1523055326663967,-6,-3,0,21,-11,-6,1,8
1523055326663967,2,-22,-5,7,11,4,2,-4
1523055326679008,-4,23,3,13,4,-3,-11,-7
1523055326679008,-3,-9,-6,-27,-17,-3,11,1
1523055326679509,7,1,2,-2,14,0,1,1
1523055326679509,-6,13,4,-7,-20,-5,-6,-2
1523055326693097,7,-25,-7,0,9,1,1,1
1523055326693097,-5,-6,0,-2,-10,-2,-6,-4
1523055326701569,2,-1,-9,-29,-4,-1,1,6
1523055326701569,0,-19,2,13,-5,0,3,-4
1523055326715605,2,18,4,5,3,-3,-11,9
1523055326715605,-7,1,-1,10,15,3,14,-8
1523055326723626,11,-4,2,-16,-18,-2,-1,2
1523055326723626,3,12,-5,-2,3,-1,-3,0
1523055326738698,-3,-13,-8,-18,-11,-1,-5,-1
1523055326738698,4,12,7,20,6,2,-1,-2
1523055326739668,-4,-7,3,13,4,-1,1,-1
1523055326739668,-3,-4,-6,8,14,0,-1,-1
1523055326753205,8,5,2,-14,-3,0,-5,1
1523055326753205,-33,-9,-2,5,-5,-3,29,-5
1523055326761245,17,17,1,6,0,-4,-36,-6
1523055326761245,0,-7,-2,1,7,2,3,-7
1523055326775783,-11,-30,-10,-5,-1,-1,4,10
1523055326775783,7,9,3,9,-1,0,-9,-1
1523055326783804,2,11,1,-7,-7,1,10,-7
1523055326783804,-3,8,5,-3,4,-2,-1,-7
1523055326798846,9,-9,-1,1,-5,-4,-23,10
1523055326798846,5,1,0,0,1,1,5,-3
1523055326799848,-15,-16,-2,5,-2,-4,5,2
1523055326799848,13,12,1,-3,2,-3,-12,3
1523055326813384,5,3,4,-4,-5,2,7,-13
1523055326813384,-3,1,-5,-1,-3,-5,-8,-8
1523055326821405,7,1,-2,0,4,3,6,2
1523055326821405,-7,3,-3,-1,-3,-4,8,4
1523055326851986,3,-2,-2,-9,-6,-7,-47,-8
1523055326851986,-8,-9,0,6,2,2,4,0
1523055326853491,20,20,-2,0,-2,0,1,-5
1523055326853491,-6,-9,-1,-5,-3,1,3,-12
1523055326859005,-11,2,0,1,-2,-2,20,14
1523055326859005,6,3,-1,1,-3,-2,0,7
1523055326859506,-16,-6,-6,-4,2,-2,-7,-14
1523055326859506,3,-10,-3,-3,-3,0,4,16
1523055326873041,2,14,5,1,0,2,39,-12
1523055326873041,2,-5,-4,-1,-4,-4,-57,-6
1523055326881565,-6,-5,2,1,2,4,0,17
1523055326881565,-5,-4,-5,5,3,0,1,-25
1523055326895642,-4,4,1,-10,-12,-3,-1,-4
1523055326895642,6,-3,8,6,1,3,20,41
1523055326903677,4,16,-8,-4,6,1,2,-11
1523055326903677,-2,-23,-6,-17,-8,-3,-10,9
1523055326918664,0,1,10,32,-9,-1,-2,-14
1523055326918664,3,22,0,4,3,2,20,-11
1523055326919668,-6,-19,-4,-13,10,0,3,13
1523055326919668,-1,14,11,11,-31,-12,-15,-7
1523055326933201,2,-14,-12,-10,1,1,0,11
1523055326933201,-2,-9,-7,1,24,1,-1,-10
1523055326941223,0,14,4,20,28,5,13,-1
1523055326941223,3,2,13,-14,-59,-16,0,1
1523055326955763,2,-14,-11,33,25,3,-5,-21
1523055326955763,-1,-1,2,-48,-29,-2,4,9
1523055326963783,-3,-10,-8,6,28,3,-8,-6
1523055326963783,1,-1,-4,8,19,5,2,16
1523055326978881,-2,25,12,-6,-15,-4,-8,-5
1523055326978881,-6,-26,-9,1,7,3,15,-9
1523055326979859,-1,6,3,12,-17,-2,-2,0
1523055326979859,-3,7,-4,-3,1,0,2,-3
1523055326993362,2,-8,-5,-26,1,-4,-10,-9
1523055326993362,7,13,-1,20,8,0,-6,2
1523055327001384,-15,-25,0,-4,-21,-3,7,2
1523055327001384,-1,-4,0,0,13,5,9,0
1523055327015923,-6,9,-5,-5,10,2,1,-4
1523055327015923,2,17,3,0,-11,-4,-2,0
1523055327023974,-2,-15,-2,-4,-17,-5,3,3
1523055327023974,-2,3,-7,-6,19,5,8,9
1523055327039033,0,2,1,-11,-4,-1,-5,5
1523055327039033,-1,-6,-2,6,-8,-3,-4,-13
1523055327039486,-6,-1,2,-3,-2,-2,-5,-4
1523055327039486,2,2,-3,4,14,2,6,-2
1523055327053022,0,13,4,-14,-5,-1,-7,11
1523055327053022,-2,-9,-4,25,6,4,11,0
1523055327061561,-9,2,1,-16,-19,-4,13,-9
1523055327061561,12,-15,-7,6,6,-4,-13,10
1523055327075614,-3,10,1,6,2,0,-4,3
1523055327075614,4,3,-2,-13,3,-1,-1,-3
1523055327083604,-7,-3,3,1,5,1,3,-17
1523055327083604,-11,-9,-1,-8,-4,2,15,27
1523055327098642,3,-1,-4,10,-2,-4,-6,6
1523055327098642,-2,-12,-2,4,-7,-4,-4,-20
1523055327099644,5,24,2,-4,-15,-2,-13,9
1523055327099644,-2,-9,-4,-13,6,-1,3,-7
1523055327113182,-7,-17,-1,-8,2,-3,-15,2
1523055327113182,-2,18,4,3,-7,-2,5,-9
1523055327121260,3,-1,-1,-9,15,-1,-5,12
1523055327121260,-3,-9,-3,3,-25,-4,3,-10
1523055327135741,-3,-9,-3,-7,-2,4,17,-1
1523055327135741,-4,-6,1,1,-1,-4,-15,-7
1523055327143764,6,5,-2,-28,1,-1,17,-4
1523055327143764,15,8,3,39,8,0,-24,12
1523055327158802,-2,-15,-3,19,13,2,13,-7
1523055327158802,-7,1,5,-1,-18,-5,-14,3
1523055327159805,5,2,1,11,-1,-1,5,1
1523055327159805,3,18,-2,-5,12,2,-1,1
1523055327173340,-2,5,4,-2,-6,0,-4,-3
1523055327173340,-4,-23,-11,-26,-1,-3,4,-3
1523055327181363,1,2,0,14,1,0,-12,3
1523055327181363,-7,18,2,-15,-10,-2,15,-18
1523055327195902,-11,-19,-10,-5,10,0,-9,9
1523055327195902,15,4,1,-20,-17,0,22,15
1523055327203956,-5,-14,-7,-3,-13,-5,-32,-14
1523055327203956,2,2,-3,-10,2,0,3,0
1523055327218985,-1,7,0,17,16,0,3,-9
1523055327218985,-3,-9,-1,-10,-7,-1,0,4
1523055327219468,-7,7,0,5,-1,0,5,-2
1523055327219468,-6,-27,-7,-13,-6,-4,-8,-9
1523055327233038,3,12,3,7,0,-3,-1,4
1523055327233038,3,-21,-4,-7,2,0,-1,0
1523055327241530,5,8,3,14,3,1,1,13
1523055327241530,-4,3,3,-9,8,0,-9,-9
1523055327255614,-7,14,2,-14,-10,-1,0,0
1523055327255614,-8,-34,-10,20,5,-2,-2,-3
1523055327264090,-5,-2,-1,-1,-2,0,0,-5
1523055327264090,1,-3,-4,0,4,2,5,4
1523055327278622,16,24,6,-12,-17,-4,-15,-2
1523055327278622,-6,0,-3,12,10,2,-9,-7
1523055327279625,3,-9,-5,-8,-6,-5,4,1
1523055327279625,-8,3,1,5,2,-2,-4,-11
1523055327293159,0,2,0,-8,-4,1,3,9
1523055327293159,2,6,-2,2,6,0,3,5
1523055327301182,-4,-10,-4,0,-2,0,-6,-1
1523055327301182,0,6,2,0,2,3,0,-3
1523055327315721,-4,-10,-1,1,0,2,12,0
1523055327315721,2,11,0,-2,4,-2,-7,0
1523055327323775,1,7,5,2,1,3,4,3
1523055327323775,-3,-14,-4,4,2,-5,-9,-3
1523055327354383,0,10,-1,-2,-2,0,12,-13
1523055327354383,5,1,3,-1,-1,-3,-18,-16
1523055327355826,2,-3,-3,0,-3,-4,-4,7
1523055327355826,2,-3,0,-3,-1,1,1,6
1523055327376883,-5,-9,2,0,-6,-3,16,-5
1523055327376883,-11,8,-1,-4,0,-5,-30,1
1523055327378388,20,-3,-8,-4,-4,-3,6,-12
1523055327378388,7,5,2,0,-2,0,3,5
1523055327384405,-3,-12,-3,-2,-1,-2,-13,7
1523055327384405,-5,3,-1,4,3,2,13,-4
1523055327385906,-1,2,2,0,-1,-2,-4,0
1523055327385906,-9,-15,-4,-5,-2,-2,-11,-12
1523055327398945,1,-7,-1,3,-3,-2,2,8
1523055327398945,4,11,3,-11,-7,-1,8,3
1523055327399446,-4,5,1,-8,4,3,20,-6
1523055327399446,-3,-1,-4,12,7,-4,-48,-6
1523055327413032,-2,-5,-3,-19,-24,-6,-12,-4
1523055327413032,0,-9,-6,58,36,3,1,12
1523055327421502,-3,12,19,-10,-24,-7,2,-9
1523055327421502,-7,-2,-8,-43,3,3,21,-8
1523055327435538,0,-12,-1,57,16,-1,-6,-1
1523055327435538,-6,7,-8,-28,21,5,-2,9
1523055327444061,3,-8,-3,9,6,-1,-2,-5
1523055327444061,3,-10,2,22,-21,-7,7,6
1523055327458100,-1,15,0,-21,7,0,-4,-8
1523055327458100,10,-10,-6,-15,-8,0,6,-5
1523055327466621,-14,-30,-9,24,14,1,-4,6
1523055327466621,3,15,7,-26,-15,-1,3,17
1523055327473141,4,10,-4,-14,-3,1,2,2
1523055327473141,5,2,-1,17,-2,0,16,-14
1523055327481161,-8,8,2,-25,-3,-3,-18,-9
1523055327481161,-1,-7,-4,12,-5,-1,-10,-1
1523055327495757,2,5,4,-6,-3,-2,3,0
1523055327495757,3,6,1,-2,-3,3,15,2
1523055327503754,-13,-14,-6,-3,-2,2,5,4
1523055327503754,0,11,-1,8,10,1,8,0
1523055327518260,-1,1,-1,2,1,-2,-1,-6
1523055327518260,-10,-7,4,-9,-16,-4,-3,-4
1523055327526281,4,15,-3,-3,-3,-1,-6,21
1523055327526281,-7,-20,-4,10,7,1,-5,-8
1523055327533301,0,-2,-2,-6,7,0,-2,-4
1523055327533301,-2,1,-1,-22,-24,-6,-7,-2
1523055327541321,-1,-2,0,-11,-4,0,-3,-18
1523055327541321,12,8,1,8,-3,2,7,28
1523055327555860,0,8,0,6,4,0,17,-8
1523055327555860,-9,-11,-2,8,4,-4,-41,-16
1523055327563881,-1,-12,-8,-12,6,1,9,9
1523055327563881,-9,0,1,-12,-2,-2,-8,-12
1523055327577917,1,-26,-3,-6,-12,-1,5,2
1523055327577917,-1,20,1,3,2,1,12,5
1523055327586441,-2,-6,-2,6,0,-1,-11,-11
1523055327586441,11,17,4,3,4,1,1,-7
1523055327601983,-2,3,2,-3,-4,0,-5,15
1523055327601983,-6,-14,-1,5,2,2,6,-1
1523055327602986,4,5,-4,-14,-7,-3,-5,-2
1523055327602986,-3,3,-8,-17,5,-3,7,2
1523055327615517,-3,-13,-1,29,-9,-2,-6,-11
1523055327615517,1,7,0,-19,-14,-2,2,12
1523055327624041,1,-27,-5,3,-1,1,15,-3
1523055327624041,2,18,7,-24,8,-1,-18,-8
1523055327638077,-4,-3,-6,-15,-9,-4,7,-2
1523055327638077,-5,-28,-11,18,12,-2,1,0
1523055327646098,-1,10,8,-6,-11,1,-7,-5
1523055327646098,-2,-2,1,38,8,-2,6,2
1523055327662143,2,-2,0,-19,-15,-2,-18,7
1523055327662143,6,-5,-1,-4,-5,0,12,0
1523055327662645,-1,9,-3,10,11,0,-6,0
1523055327662645,-8,-18,-2,-11,-5,2,5,-19
1523055327675678,1,20,1,-2,5,-1,-13,0
1523055327675678,8,6,1,-10,-3,-1,-2,21
1523055327683701,-7,16,-2,-4,-2,-4,-5,-8
1523055327683701,-3,-23,-5,29,9,3,1,1
1523055327714280,-7,-6,2,-2,2,0,4,-2
1523055327714280,-9,-2,-5,-36,-15,-4,14,-11
1523055327716287,13,-2,-1,34,7,-4,-14,7
1523055327716287,-3,8,1,-19,-5,0,8,1
1523055327736340,-4,-5,-5,23,17,4,-4,-3
1523055327736340,3,13,6,3,-15,-2,3,-3
1523055327742923,-1,-15,1,6,-9,-1,8,16
1523055327742923,4,6,-4,18,10,1,-5,2
1523055327767488,-8,-4,-4,-43,-15,-5,-3,-4
1523055327767488,-3,-8,6,16,-11,-3,0,-5
1523055327769996,-4,7,-1,13,-2,-3,-11,-3
1523055327769996,-1,-3,-1,4,7,2,-4,-3
1523055327789548,-1,4,0,-18,-13,-3,3,-8
1523055327789548,0,15,1,0,7,-1,-1,1
1523055327791052,-1,-6,-1,-4,1,0,0,6
1523055327791052,-9,-12,-3,-1,-4,-1,15,-8
1523055327811606,13,25,3,7,3,-3,-31,2
1523055327811606,-6,-28,-6,-3,-1,-1,-17,-7
1523055327818123,-5,-15,-4,-10,3,0,3,-1
1523055327818123,4,25,0,-3,-7,-3,-5,-1
1523055327842186,-28,-22,-1,-1,-1,-4,7,-9
1523055327842186,6,2,0,4,1,-3,-3,-3
1523055327843692,-10,-13,0,-3,5,2,-1,-2
1523055327843692,-3,-6,-6,-6,-12,-3,1,0
1523055327865247,12,9,2,9,1,1,3,9
1523055327865247,0,6,0,1,8,1,-1,5
1523055327867754,2,8,2,-3,-5,-4,1,-2
1523055327867754,2,5,1,-3,-5,0,1,-3
1523055327886804,-2,-20,0,1,3,-2,4,7
1523055327886804,-9,13,1,1,3,2,-3,-11
1523055327888810,9,4,-4,-6,-5,1,-3,5
1523055327888810,1,1,1,-3,-1,2,6,-1
1523055327908864,4,2,-3,2,7,1,-6,3
1523055327908864,-16,-3,1,4,5,3,2,-7
1523055327916887,0,-19,-13,-3,-5,-5,-4,-7
1523055327916887,-8,-10,0,-4,-1,-1,10,2
1523055327917889,1,4,-1,3,0,0,-22,-9
1523055327917889,8,8,4,-1,-1,-1,2,11
1523055327918391,-5,7,-1,-5,1,3,7,-1
1523055327918391,-1,-8,0,-4,-2,-4,-9,-1
1523055327923907,3,0,-1,1,-1,-3,9,-8
1523055327923907,-2,-17,-6,2,1,-2,-7,3
1523055327931979,-1,10,3,-3,-3,-4,-5,-6
1523055327931979,-1,-18,-1,-3,-6,-3,1,2
1523055327932928,4,22,1,2,5,2,7,1
1523055327932928,-2,-2,-4,-2,-2,0,-3,-10
1523055327933430,-1,-15,-3,1,0,1,8,16
1523055327933430,5,18,5,0,-1,1,-7,-2
1523055327937995,-4,-11,-5,-7,0,-2,3,-10
1523055327937995,4,7,2,2,5,1,-2,0
1523055327946966,-1,4,2,1,-20,-3,0,-9
1523055327946966,0,1,4,47,19,1,-4,6
1523055327960501,-3,-17,-8,-66,-15,-1,12,2
1523055327960501,1,-12,2,34,-2,0,2,0
1523055327969527,-4,12,4,-12,9,1,-3,-7
1523055327969527,-2,-9,-6,-32,-45,-12,-1,0
1523055327975577,3,-4,3,23,22,4,2,-1
1523055327975577,1,-16,-5,14,18,1,-5,6
1523055327984566,-5,9,-6,-22,1,-1,-3,-8
1523055327984566,-8,6,3,-8,-10,-2,-1,9
1523055327998148,13,10,0,15,5,2,-2,-8
1523055327998148,2,2,-1,-11,-3,-2,-2,6
1523055328007175,-6,-6,7,2,5,-2,11,-4
1523055328007175,-1,-3,-4,-13,2,-4,-33,-10
1523055328020762,5,3,-3,36,-13,-4,8,3
1523055328020762,-16,-6,4,-21,-6,1,10,-1
1523055328029733,4,-2,-6,-2,5,0,-10,-2
1523055328029733,-1,12,1,-15,-4,-2,2,-15
1523055328035803,-5,-14,-4,9,5,0,9,15
1523055328035803,8,21,6,8,-3,-2,-13,7
1523055328044806,7,8,-2,4,4,0,8,-3
1523055328044806,-5,-27,-14,-20,-10,-2,-2,-4
1523055328058310,-5,4,-2,-3,7,-1,-3,-13
1523055328058310,4,12,3,-5,-14,-2,4,2
1523055328067334,-5,0,1,3,-1,0,3,9
1523055328067334,10,0,-4,11,14,3,6,1
1523055328080870,-13,-23,-6,11,7,-2,-9,-4
1523055328080870,5,-2,0,-9,-9,-2,7,-7
1523055328089895,1,5,2,9,2,0,-4,-8
1523055328089895,-8,-4,0,1,7,2,-2,4
1523055328095409,-5,6,-3,-16,-1,-1,4,-1
1523055328095409,-3,-15,-1,3,-16,-5,-1,-8
1523055328104432,6,12,2,-6,-1,-2,-11,1
1523055328104432,1,4,2,13,9,1,7,1
1523055328118021,0,-11,-2,3,-3,-2,-4,1
1523055328118021,0,9,-4,-14,11,1,-5,-1
1523055328126993,-4,-5,-3,-14,-18,-1,7,-3
1523055328126993,-4,-16,-4,27,14,1,-9,3
1523055328140581,3,11,10,6,-29,-5,-3,-8
1523055328140581,2,0,0,17,19,3,0,-6
1523055328149554,-5,1,-3,-21,-16,-1,10,31
1523055328149554,-4,-17,-6,-1,10,0,-2,-8
1523055328155569,3,0,-1,-12,0,1,12,1
1523055328155569,-2,4,-2,-9,-2,-3,-27,-21
1523055328164593,-2,4,2,12,2,-1,-11,-2
1523055328164593,-2,-13,-1,-6,1,-2,0,2
1523055328178127,-3,3,1,-9,-8,-3,-6,0
1523055328178127,5,9,-1,8,-7,-3,16,0
1523055328187152,-6,-15,-7,-7,2,1,5,-2
1523055328187152,7,26,4,-17,-1,2,-1,6
1523055328200689,-8,-15,1,11,2,1,3,0
1523055328200689,-5,2,-1,-11,1,1,-1,2
1523055328209711,3,7,-1,2,1,-1,-7,-11
1523055328209711,-3,-20,-3,5,-1,-2,3,0
1523055328215729,-2,3,-3,-20,-1,-1,-5,-2
1523055328215729,3,6,1,-5,-5,-1,0,6
1523055328224752,-1,-19,-1,19,7,1,-4,-5
1523055328224752,-4,22,5,-13,-6,0,-2,-12
1523055328238288,-9,-15,-8,13,5,1,15,17
1523055328238288,0,1,-4,-14,-18,-5,-10,0
1523055328247311,-14,-26,-3,10,9,2,13,-11
1523055328247311,11,20,4,-1,-7,-4,-18,0
1523055328260849,-6,-17,-3,1,4,0,-13,-1
1523055328260849,-3,-14,-2,-5,1,2,3,-10
1523055328269873,0,11,-1,2,-2,-2,7,12
1523055328269873,6,6,1,4,-7,0,10,15
1523055328275425,0,15,1,-2,-4,-3,16,-24
1523055328275425,-4,-8,2,-3,4,-1,-21,18
1523055328284411,3,-13,-2,1,2,-2,-14,-13
1523055328284411,2,11,-4,-3,-4,-3,3,-5
1523055328298002,7,14,4,-7,-3,-1,-1,3
1523055328298002,-6,6,1,3,6,2,16,-2
1523055328306970,-1,-6,-1,3,-3,-4,-11,-6
1523055328306970,6,13,3,0,-2,2,2,13
1523055328320560,-17,-29,-10,-5,-4,-5,-12,-5
1523055328320560,4,26,6,4,2,-3,-2,-4
1523055328329532,-4,-16,-1,-3,-1,1,-4,6
1523055328329532,-6,-16,-6,2,2,6,15,-16
1523055328335602,-13,6,5,-6,-4,-4,-4,8
1523055328335602,-6,-16,-5,-1,1,3,0,-7
1523055328344572,5,23,2,-5,-5,-4,-2,5
1523055328344572,-3,-7,-1,0,0,-1,3,2
1523055328358108,5,-9,0,0,-1,0,-4,11
1523055328358108,7,12,3,3,0,4,28,2
1523055328367131,-2,16,0,-3,-3,-8,-40,-16
1523055328367131,-11,-29,-9,-3,-3,-5,-6,-7
1523055328397268,14,26,3,0,0,-1,-3,4
1523055328397268,-3,-21,-6,-4,1,-1,1,-1
1523055328398776,-5,-1,-2,1,-2,1,3,-11
1523055328398776,3,15,2,0,-2,0,13,9
1523055328404290,5,4,0,-4,-1,-2,-12,23
1523055328404290,-4,-19,-6,0,1,-3,-13,-9
1523055328406295,1,0,2,0,2,-1,7,-9
1523055328406295,-3,6,2,-10,-11,-5,-12,-9
1523055328418328,-2,-14,-8,5,7,3,11,-6
1523055328418328,2,17,1,6,0,0,5,8
1523055328427419,2,-7,4,38,13,2,1,2
1523055328427419,-5,-9,-7,-64,-28,-3,3,1
1523055328440456,4,5,11,30,4,-3,-6,-8
1523055328440456,-7,0,-2,-51,5,3,-7,3
1523055328449482,5,9,1,6,-25,-3,24,3
1523055328449482,-7,-32,-9,1,8,-2,-9,-4
1523055328455551,-7,3,-5,-6,15,5,-11,-23
1523055328455551,14,-11,0,52,17,1,8,13
1523055328464520,-10,-17,-1,-34,11,3,4,14
1523055328464520,0,3,-4,22,0,-1,-2,-9
1523055328478058,3,3,-3,-16,-7,-2,-2,-1
1523055328478058,0,15,2,13,7,0,2,4
1523055328487081,-5,-22,-2,-3,-2,0,-1,-2
1523055328487081,8,18,2,6,1,-3,-3,1
1523055328500618,-9,-26,0,-1,-6,-2,-1,-19
1523055328500618,3,7,1,-4,-6,-5,-25,4
1523055328509641,8,10,-2,-2,-5,-2,3,5
1523055328509641,-7,-8,-3,-4,3,-1,-4,-11
1523055328524680,10,22,5,4,4,2,15,9
1523055328524680,-13,-37,-9,-6,-12,-5,3,-9
1523055328526186,5,10,-1,-13,-4,1,-8,2
1523055328526186,-9,2,5,18,-1,-2,4,-1
1523055328538216,-3,-7,-6,-6,-2,0,2,3
1523055328538216,-13,-1,-1,-10,-6,-3,-8,-2
1523055328547240,13,1,1,9,2,0,-1,6
1523055328547240,-4,-2,1,8,9,1,4,-2
1523055328560776,1,1,-3,-2,-2,-1,-6,7
1523055328560776,10,3,0,-8,-7,-3,-7,-12
1523055328569855,-10,13,-2,5,8,2,19,-10
1523055328569855,-7,-18,-7,-1,0,-4,-32,8
1523055328584339,13,20,4,-13,-6,-2,-6,-2
1523055328584339,-9,-6,-1,12,2,0,14,-3
1523055328586344,1,-21,-9,-10,-3,-4,-23,-6
1523055328586344,-21,6,5,-2,0,2,4,1
1523055328597874,11,0,-3,8,4,-4,-1,-2
1523055328597874,18,13,4,-10,-14,-3,2,-5
1523055328607400,-24,-35,-7,0,3,-1,6,-5
1523055328607400,-6,10,4,18,0,0,-1,14
1523055328620435,-16,-17,-4,-16,-8,-1,-6,0
1523055328620435,2,6,-4,1,4,4,9,-3
1523055328629459,-3,17,8,1,0,2,-4,-6
1523055328629459,13,8,2,1,8,-4,-2,-4
1523055328644499,-1,-11,-4,13,2,1,2,5
1523055328644499,4,-19,-8,-13,-10,-4,16,1
1523055328646004,-4,-4,-5,-1,-1,-2,-20,7
1523055328646004,7,-3,-1,0,5,0,-4,0
1523055328658035,3,4,3,12,4,2,-1,-2
1523055328658035,-14,2,-4,-29,-14,-4,-3,-6
1523055328667060,5,-15,-3,-8,-8,-3,6,2
1523055328667060,9,10,5,-1,-2,-1,4,-1
1523055328680653,-6,-13,-4,0,-2,-4,-4,1
1523055328680653,1,10,0,11,7,0,-9,-3
1523055328689620,1,14,-3,-3,1,-2,8,-7
1523055328689620,-10,-10,-2,-8,-7,-1,-1,5
1523055328704660,14,-18,-3,-1,1,-1,-2,-11
1523055328704660,2,21,9,-10,-14,-2,-2,-1
1523055328706386,2,31,5,-1,1,1,-2,11
1523055328706386,-7,-55,-16,-5,-5,-4,5,-10
1523055328718196,8,20,4,-2,3,2,-5,-2
1523055328718196,-14,-16,-3,8,4,-2,12,-5
1523055328727219,4,1,7,1,-1,-3,-9,7
1523055328727219,3,1,-1,-1,1,0,5,-1
1523055328740756,-11,-11,-5,-7,-3,0,3,7
1523055328740756,6,9,2,7,2,2,-4,3
1523055328749781,-11,-7,-4,-3,-3,-1,6,-5
1523055328749781,-7,-10,-9,0,1,0,-4,-7
1523055328764927,8,14,3,-6,-5,-2,5,-1
1523055328764927,-5,-5,-3,4,8,3,-10,2
1523055328766325,3,-15,0,0,-2,-1,0,-3
1523055328766325,1,15,8,1,-2,-2,-3,-1
1523055328778358,-6,9,-2,-2,-2,-3,0,0
1523055328778358,4,-15,-3,-1,4,3,5,21
1523055328786880,-2,7,-1,1,-2,-3,-11,-16
1523055328786880,-1,5,1,1,-1,1,2,-11
1523055328800415,-14,0,1,-3,-4,-1,-3,-3
1523055328800415,13,2,-3,1,1,-5,-2,2
1523055328810116,-4,-14,-3,-4,-4,-2,-4,-6
1523055328810116,2,20,2,-1,-2,3,1,7
1523055328824486,-1,-24,-9,-3,-1,-3,16,-2
1523055328824486,0,1,1,0,0,-6,-18,-10
1523055328826679,5,11,-1,-1,1,0,8,12
1523055328826679,0,-22,-6,0,0,-1,0,-5
1523055328838046,-3,2,-3,0,-3,-1,3,9
1523055328838046,-12,-23,-8,-5,-1,0,1,-3
1523055328847040,0,-9,-2,1,-2,-3,-8,-17
1523055328847040,4,23,9,3,2,-1,5,7
1523055328861156,2,9,1,1,1,1,-6,7
1523055328861156,-5,-11,-1,2,1,-1,-1,-6
1523055328869600,-2,9,1,-2,-3,-1,-4,-2
1523055328869600,7,5,-2,-1,0,0,-1,-3
1523055328884877,-4,-3,-3,9,8,3,0,-11
1523055328884877,-8,-3,-1,-23,-8,-3,-12,-2
1523055328886144,5,-18,-2,8,-15,-4,5,20
1523055328886144,-3,18,-5,25,23,3,0,-17
1523055328898174,9,-6,8,-28,-5,0,-7,9
1523055328898174,3,17,-10,22,24,6,26,-3
1523055328907316,-5,-12,13,20,-33,-6,-13,-15
1523055328907316,2,15,-4,-17,-7,-2,-3,7
1523055328921123,3,-9,-15,-22,25,5,1,5
1523055328921123,2,3,12,42,0,-1,-2,-5
1523055328929377,0,-3,-6,-23,20,4,3,1
1523055328929377,-3,17,4,-15,-17,-5,-5,1
1523055328944653,-7,-21,-3,17,-14,-4,-2,-5
1523055328944653,9,-2,-7,-21,6,1,-4,9
1523055328945920,8,10,-2,21,13,4,6,-1
1523055328945920,-1,-10,3,-22,-10,-2,-7,-7
1523055328958454,-13,-9,-7,-6,-8,-4,-7,-4
1523055328958454,-3,5,4,2,-8,-3,-3,-3
1523055328966978,0,-12,-1,9,11,5,12,-6
1523055328966978,-2,3,2,-2,1,-1,-14,5
1523055328980513,22,0,0,6,-3,-1,-4,-3
1523055328980513,-14,4,-1,6,-4,-2,-2,2
1523055328989536,-3,-8,-7,-21,-6,-2,11,11
1523055328989536,-1,-14,-1,9,-1,-1,-2,-13
1523055329004602,-10,18,6,9,1,-2,-5,-4
1523055329004602,-1,11,-2,-8,-4,1,-1,-3
1523055329006373,1,-16,-9,-1,7,1,-2,4
1523055329006373,2,-2,5,-10,-12,-3,5,6
1523055329018910,-14,-12,2,8,-2,-3,-10,-11
1523055329018910,5,9,2,-9,-4,0,1,0
1523055329026928,-13,22,-2,1,2,0,6,1
1523055329026928,-15,-32,-5,-2,3,-2,-18,-7
1523055329040830,6,25,6,-1,-7,-2,10,3
1523055329040830,-3,-20,-3,-4,-3,-2,0,0
1523055329049487,2,3,2,-3,0,0,-11,0
1523055329049487,2,11,0,3,3,1,16,4
1523055329064534,-5,1,-3,-15,-7,-3,-1,-8
1523055329064534,-5,-15,-1,21,8,-1,-11,-3
1523055329066031,1,5,4,-37,-14,-4,-5,1
1523055329066031,5,-5,-5,15,-12,-3,4,-3
1523055329078564,-3,10,2,-2,2,-2,-4,3
1523055329078564,-1,-13,-7,-1,3,-2,-2,-7
1523055329087086,7,18,5,18,16,4,6,-1
1523055329087086,-4,-24,-7,16,7,-1,8,11
1523055329100874,-1,3,4,-10,-7,3,-11,1
1523055329100874,-1,-2,-1,-27,-18,-3,19,-12
1523055329110167,-3,8,-5,-10,0,-3,-16,4
1523055329110167,-15,-19,-4,-2,-8,-1,1,-6
1523055329124913,-5,-7,0,15,2,-3,4,-1
1523055329124913,10,1,-2,-4,5,1,4,9
1523055329126191,5,12,1,3,-3,-2,-3,-8
1523055329126191,6,-7,-2,-13,-2,-1,-1,4
1523055329138223,-11,-15,-2,5,12,0,-4,-6
1523055329138223,-2,17,11,10,-23,-2,-10,-7
1523055329147480,-4,-6,-11,-6,-3,-4,-1,-6
1523055329147480,11,18,0,-2,4,1,-1,5
1523055329161038,-2,-6,-2,5,1,0,3,-5
1523055329161038,-9,-2,-2,-15,5,0,-10,5
1523055329169807,3,-4,-1,-10,-7,-2,-4,2
1523055329169807,1,15,2,-12,-18,-2,5,-6
1523055329184921,0,7,-3,4,-3,-1,-1,2
1523055329184921,-3,-11,-6,-3,2,0,13,0
1523055329185849,-4,5,4,-2,5,-3,-36,-5
1523055329185849,-12,-3,1,19,11,1,-3,-5
1523055329198060,5,-9,-3,-8,-6,-1,11,3
1523055329198060,-3,15,2,-9,-2,-1,-11,-2
1523055329207405,2,-35,-6,13,0,1,12,1
1523055329207405,0,4,4,0,4,0,-1,2
1523055329221045,4,9,2,-7,-7,-2,-5,-1
1523055329221045,-3,-1,-3,4,5,1,4,1
1523055329230197,-5,-9,-5,-3,-4,-3,4,-2
1523055329230197,11,5,2,0,4,-2,-6,0
1523055329244740,-3,7,0,3,1,-1,5,-7
1523055329244740,2,-2,4,-1,-1,1,-3,6
1523055329246556,-2,4,0,4,-3,2,3,-7
1523055329246556,6,-20,-9,-4,0,0,2,7
1523055329258041,3,21,10,-4,-2,-1,-5,2
1523055329258041,-1,-3,-2,0,-2,-3,-4,-4
1523055329267066,-2,-7,-1,2,1,0,6,6
1523055329267066,-7,7,3,-1,5,4,26,-5
1523055329280648,7,3,-3,-1,-3,-9,-34,-21
1523055329280648,5,-14,-8,-2,-4,-3,5,2
1523055329289673,4,11,1,-2,-2,-2,5,10
1523055329289673,-1,0,0,-3,-1,1,3,-2
1523055329304211,-3,0,-2,-1,-2,-2,4,4
1523055329304211,-17,-18,-5,1,1,0,-7,-10
1523055329310801,25,18,-1,-1,-3,0,2,-8
1523055329310801,13,0,2,1,1,-3,-8,-3
1523055329318251,-9,-6,-4,-2,-3,0,5,1
1523055329318251,0,20,4,0,0,0,-1,0
1523055329327279,-10,-10,-2,-3,-1,-3,-10,1
1523055329327279,0,27,3,-1,0,-2,-13,0
1523055329341055,-7,-30,-11,-2,0,1,15,-6
1523055329341055,2,-4,-1,-1,-1,0,-1,11
1523055329349832,-3,7,3,1,1,1,6,4
1523055329349832,1,-2,-2,-1,1,2,-5,-9
1523055329363909,2,4,1,1,-1,1,7,0
1523055329363909,-9,-20,-7,-5,-2,-5,-2,4
1523055329370995,0,10,4,4,1,2,3,-4
1523055329370995,-1,-11,-4,-12,5,-1,-8,2
1523055329378169,-6,-8,-3,44,21,5,8,-1
1523055329378169,4,0,2,-38,-32,-9,-4,-4
1523055329386932,-7,-3,-4,-18,10,2,-2,-5
1523055329386932,-2,-7,1,-8,-24,-6,8,8
1523055329401205,2,3,3,11,32,5,-7,5
1523055329401205,2,12,4,48,-8,-2,0,-6
1523055329410032,-2,-17,-1,-35,-40,-8,-7,-2
1523055329410032,-4,-3,-5,12,16,1,-11,-10
1523055329424061,-3,-4,-4,-25,0,0,0,3
1523055329424061,6,31,9,41,29,3,-9,-1
1523055329431094,-18,-68,-14,-44,-13,2,10,-10
1523055329431094,24,19,1,25,0,-3,19,9
1523055329438124,3,17,1,-15,-21,-6,-25,14
1523055329438124,-17,-28,-11,-7,15,2,9,-9
1523055329447515,10,27,5,27,6,0,-4,-1
1523055329447515,-8,-3,1,-13,-1,2,-1,-17
1523055329461064,-2,-10,-3,-7,-9,-1,5,4
1523055329461064,15,5,2,-15,-4,-2,-1,14
1523055329469455,-11,-18,-4,15,5,-1,5,-4
1523055329469455,-21,1,0,-3,3,0,-16,-7
1523055329484226,31,19,4,-6,-11,-3,3,-4
1523055329484226,-6,-8,-4,-5,-5,0,-4,-4
1523055329498148,4,11,9,23,10,3,10,9
1523055329498148,-21,-16,-4,-3,-1,-6,-8,-3
1523055329507291,-12,-27,-12,-5,-6,-3,3,5
1523055329507291,5,2,4,-13,2,1,21,-6
1523055329508559,-4,32,6,7,2,-7,-40,-8
1523055329508559,12,-18,-10,-2,-4,0,5,1
1523055329520841,-11,-3,0,-2,-2,-1,2,-2
1523055329520841,4,-3,0,1,3,1,0,0
1523055329529614,-19,7,-1,9,5,0,4,-3
1523055329529614,2,-8,-3,-20,-18,-5,-7,-2
1523055329544247,-8,10,1,-2,0,0,-7,-10
1523055329544247,8,-4,-5,2,3,0,-8,11
1523055329550901,3,5,0,-2,-3,-2,3,2
1523055329550901,11,9,1,-8,7,2,-4,7
1523055329566969,-10,-28,-3,0,-12,0,12,-4
1523055329566969,-8,9,3,0,9,3,5,-12
1523055329568719,6,6,3,23,3,-4,-33,9
1523055329568719,-23,-21,-4,0,-6,-2,8,-6
1523055329580750,-14,25,10,-8,-8,0,4,1
1523055329580750,-2,-23,-6,11,6,0,-10,-4
1523055329589774,1,3,-1,-9,-8,2,21,-2
1523055329589774,-3,7,3,7,9,-1,-4,3
1523055329603864,5,4,3,-3,2,0,-9,3
1523055329603864,-20,5,-2,11,4,2,3,-5
1523055329610830,0,-9,-7,-20,-9,-1,16,-3
1523055329610830,0,11,2,4,-1,1,-18,4
1523055329634908,2,10,0,12,6,-1,2,5
1523055329634908,-4,-10,0,-27,-17,-5,-8,-5
1523055329635897,12,15,1,0,5,1,6,5
1523055329635897,5,-5,-1,1,1,0,3,-2
1523055329641072,-3,-19,-5,3,-7,-1,0,-5
1523055329641072,9,10,2,1,0,1,0,3
1523055329650058,-3,-9,-1,10,4,-3,-14,-6
1523055329650058,4,10,1,-10,1,-1,7,-5
1523055329679745,8,-1,-2,2,-4,-2,2,9
1523055329679745,-16,-13,-2,-4,-7,-3,-18,-6
1523055329681017,6,17,4,2,2,1,22,4
1523055329681017,13,-14,-6,3,5,0,-15,5
1523055329701767,-12,-2,-1,0,7,1,-2,-9
1523055329701767,2,4,-6,-22,-19,-6,0,-8
1523055329709594,-9,-21,1,24,4,4,4,18
1523055329709594,5,23,2,-1,4,1,5,-3
1523055329732155,-2,5,1,-22,-10,-4,-5,-5
1523055329732155,-1,-36,-11,10,5,-2,-6,-2
1523055329733659,5,15,2,4,6,0,-4,-4
1523055329733659,-5,-8,4,-9,-8,0,-5,3
1523055329754867,4,1,-2,-3,3,4,25,-1
1523055329754867,10,19,2,-2,2,-2,-21,7
1523055329756217,-12,-8,-3,-4,-1,-3,-5,-17
1523055329756217,3,-3,-3,7,5,2,6,5
1523055329776499,1,-4,-3,-7,0,0,2,2
1523055329776499,-2,2,-3,-1,-3,1,5,-2
1523055329783290,1,-6,-1,-4,-1,-3,-6,-4
1523055329783290,-7,11,3,-2,-6,-2,-1,-10
1523055329798330,-21,-41,-9,-1,-1,-1,-7,-4
1523055329798330,5,18,5,1,1,-2,3,6
1523055329807855,8,6,1,-4,-3,0,-4,3
1523055329807855,6,-6,-1,-1,-3,-4,4,-6
1523055329829919,-19,-6,-7,3,-1,-2,-8,-2
1523055329829919,-3,-25,-5,-2,0,0,-1,-1
1523055329830915,-3,4,0,-7,0,1,7,-3
1523055329830915,-8,-17,-3,0,-4,-2,-2,2
1523055329851972,35,22,1,3,0,-3,-9,-5
1523055329851972,-5,12,4,-4,-4,-1,5,1
1523055329854028,2,-10,-8,-1,-1,-2,0,6
1523055329854028,7,9,-1,0,-5,-5,-3,-1
1523055329859219,9,-3,2,-1,3,0,-7,-1
1523055329859219,-8,-1,-5,0,-4,-5,-5,-14
1523055329859492,-12,-10,-1,-3,1,1,2,6
1523055329859492,8,6,-1,4,1,-1,-1,-13
1523055329867013,-7,-10,-3,-3,-2,0,-3,-4
1523055329867013,0,15,0,-6,-4,-6,-2,-1
1523055329868518,-2,-6,-1,-3,1,3,-5,0
1523055329868518,-11,0,-1,-1,-1,-2,0,5
1523055329873758,-4,5,2,0,2,2,1,-1
1523055329873758,6,-13,-1,1,-1,1,6,7
1523055329875057,5,16,0,-4,-3,-1,0,3
1523055329875057,-18,-31,-8,-2,-1,1,-3,-2
1523055329881069,8,13,9,3,-1,0,16,5
1523055329881069,3,12,1,-3,0,-2,-34,2
1523055329889366,2,-14,-5,-7,2,0,14,-10
1523055329889366,2,8,0,22,9,0,-19,11
1523055329904140,0,6,7,10,-17,-3,-2,-6
1523055329904140,-2,4,0,-2,1,3,10,-1
1523055329911221,-4,-19,-13,-33,24,0,-2,-9
1523055329911221,1,8,10,17,-44,-8,3,-1
1523055329926965,0,-12,-4,-6,14,-1,-9,-3
1523055329926965,4,8,0,-16,1,2,3,-16
1523055329928468,-6,23,4,60,3,-3,10,16
1523055329928468,-14,-59,-25,-44,-4,-4,-6,3
1523055329941020,7,7,2,4,9,-1,-10,34
1523055329941020,-7,-4,6,21,-2,3,9,-23
1523055329949817,9,5,-1,-13,16,4,-10,-4
1523055329949817,-17,-9,-1,2,1,1,20,-13
1523055329964084,-4,8,-3,-2,-11,-7,-23,-10
1523055329964084,-3,-11,-7,-6,11,0,-5,11
1523055329970874,-6,-14,4,2,-18,-6,-2,-9
1523055329970874,7,10,4,-1,-1,-1,11,3
1523055329987170,16,10,-10,-15,-2,0,0,-2
1523055329987170,-8,3,9,9,6,1,8,9
1523055329988420,-2,13,3,-5,-16,-1,-6,-3
1523055329988420,-2,-19,-8,-6,3,1,17,-2
1523055330000452,2,-4,-2,2,7,-2,-33,-17
1523055330000452,14,11,5,5,-5,-2,4,18
1523055330009476,-18,-28,-5,-8,-10,-5,6,-4
1523055330009476,4,27,5,2,13,4,-2,2
1523055330024016,-11,4,-1,3,-2,2,15,-8
1523055330024016,4,-7,-2,-4,-7,-2,1,-4
1523055330038253,1,-7,-5,-7,-5,0,-11,-2
1523055330038253,3,15,-1,0,5,-2,-2,-3
1523055330047078,8,1,1,-1,-3,-2,5,3
1523055330047078,3,4,-3,-4,-3,-3,-3,-1
1523055330048581,3,-3,-5,5,8,0,2,1
1523055330048581,2,-10,1,10,-1,3,1,9
1523055330061185,-4,3,0,-18,-12,-2,10,-8
1523055330061185,-1,-7,-6,6,7,-1,-23,-2
1523055330069638,-13,4,2,9,-8,-1,1,-15
1523055330069638,15,31,7,1,9,1,-2,4
1523055330083674,-12,-20,-9,-5,-3,-2,2,1
1523055330083674,1,-26,-5,-6,3,3,17,2
1523055330090692,0,9,3,-22,-14,-7,-25,-7
1523055330090692,7,6,-5,2,-1,0,-1,6
1523055330107482,0,-7,9,3,-4,1,19,3
1523055330107482,-5,5,-2,-7,-3,-2,-13,2
1523055330109080,9,-1,5,29,5,1,4,-3
1523055330109080,-9,-3,1,3,4,-2,-5,-3
1523055330121082,-1,3,-1,-9,-1,-1,-3,-6
1523055330121082,-5,-3,-2,-8,-6,0,16,0
1523055330129797,4,7,-3,9,9,0,-3,5
1523055330129797,2,8,6,-19,-12,-3,-11,-8
1523055330143833,-17,1,-3,25,16,4,8,3
1523055330143833,-8,-29,-9,-16,-15,-1,12,-7
1523055330151074,-1,13,0,-4,-1,-7,-22,3
1523055330151074,5,-10,-2,3,5,0,2,11
1523055330167395,-6,1,0,-3,3,-1,-12,-25
1523055330167395,3,12,4,15,0,1,11,16
1523055330168401,3,-14,-1,-10,-5,3,15,10
1523055330168401,-3,8,4,-4,-1,2,14,-11
1523055330180931,-12,-7,-3,7,-2,-8,-46,-2
1523055330180931,16,4,0,5,-1,0,-3,-14
1523055330189457,11,0,-4,-12,-8,-1,8,-2
1523055330189457,-5,-1,0,-9,3,-2,-1,6
1523055330219033,4,13,6,0,-12,1,13,7
1523055330219033,6,3,-2,5,7,-2,-8,-4
1523055330225551,1,7,0,12,3,1,1,5
1523055330225551,1,-11,-3,-21,-15,-3,-2,-2
1523055330240589,-2,5,-5,-7,3,-1,4,-1
1523055330240589,-2,6,-1,-8,-1,-1,-4,3
1523055330251119,-8,-13,1,13,-14,-4,6,-8
1523055330251119,-14,-23,-9,-7,6,2,-7,-7
1523055330256189,1,-2,3,17,0,-1,5,-1
1523055330256189,1,26,0,-17,-4,-3,-1,5
1523055330257189,-11,-27,-10,-14,3,0,-3,-9
1523055330257189,-2,12,3,9,1,-2,-6,-7
1523055330263685,6,-11,-1,-5,-4,0,4,8
1523055330263685,-1,11,3,8,0,-3,-1,-2
1523055330270672,4,-1,-3,-8,-1,-1,-3,-3
1523055330270672,-13,-1,0,7,1,0,-2,0
1523055330286264,-4,-11,-6,-10,-1,-1,2,-2
1523055330286264,-4,-2,2,3,0,-1,1,-2
1523055330293285,1,10,7,-5,0,1,2,-7
1523055330293285,-5,9,0,0,-1,-1,-2,13
1523055330324316,3,-2,0,-2,1,-1,0,-4
1523055330324316,-11,-13,-6,2,-1,-3,-17,-8
1523055330326638,-7,3,-1,-10,-5,-7,-9,-6
1523055330326638,18,7,1,7,2,0,3,9
1523055330347876,-30,-1,0,0,3,3,5,0
1523055330347876,18,-7,-4,-5,-6,-4,-2,-10
1523055330350384,7,9,4,0,2,3,4,22
1523055330350384,-9,3,-3,-4,-7,-9,-20,-47
1523055330368933,1,4,-6,-2,-3,-3,-1,13
1523055330368933,-14,-48,-10,-2,2,1,1,6
1523055330375846,1,9,5,-2,-2,-1,-1,-4
1523055330375846,11,-3,-3,4,1,2,7,15
1523055330390745,13,9,4,-3,0,1,3,-7
1523055330390745,-13,18,3,2,1,-1,-2,-4
1523055330400166,14,-24,-8,-3,-2,-1,2,0
1523055330400166,-12,2,0,2,0,0,0,0
1523055330407407,10,4,-1,-2,-2,0,-4,-4
1523055330407407,-5,1,1,-2,-1,1,13,8
1523055330408037,-8,-9,-7,0,0,-1,-9,-7
1523055330408037,1,-2,-2,-7,0,1,0,0
1523055330408538,1,-5,-6,13,33,6,6,3
1523055330408538,-2,8,14,-13,-69,-13,-6,-1
1523055330414556,-5,-2,-10,-21,27,5,5,-2
1523055330414556,-3,-6,7,45,-1,-1,-2,-1
1523055330429593,7,21,-2,-54,-5,1,-5,-5
1523055330429593,-23,-39,-11,33,9,-2,-3,-13
1523055330431098,42,19,6,1,-14,-2,22,15
1523055330431098,-19,-2,-9,-26,22,2,-22,18
1523055330444272,0,-58,-15,25,-13,-4,7,-6
1523055330444272,7,42,3,-19,14,4,-2,-8
1523055330450707,-11,-17,-1,2,1,0,-3,0
1523055330450707,9,18,3,1,-7,-4,0,-13
1523055330466819,4,13,10,2,-8,-2,18,9
1523055330466819,-7,4,-4,-13,-1,-2,-20,0
1523055330473258,-7,-21,-5,7,-3,-5,-9,-10
1523055330473258,11,-2,0,-6,-3,4,9,1
1523055330490010,-6,2,5,5,-7,0,2,4
1523055330490010,0,-18,-5,2,7,1,7,-2
1523055330491514,-5,19,5,7,5,2,12,4
1523055330491514,0,-9,-5,-4,-12,-4,-7,-2
1523055330503547,6,16,-3,-12,-4,-5,-27,-3
1523055330503547,11,5,1,9,11,4,11,5
1523055330510565,-13,-11,-8,-7,-11,-5,-11,-13
1523055330510565,10,-12,-2,-5,-3,-2,10,-7
1523055330526889,-13,3,1,4,2,0,-1,4
1523055330526889,17,7,-2,-2,7,1,-1,18
1523055330533126,-30,-5,-1,-2,-7,-1,-1,-10
1523055330533126,2,-5,-1,-2,-3,-1,3,-6
1523055330549865,-6,-12,-5,2,2,-4,-1,3
1523055330549865,4,7,3,5,3,1,-2,-4
1523055330551174,2,15,3,-8,-3,1,7,-2
1523055330551174,-8,-8,-5,-7,0,-3,-19,-9
1523055330563707,-6,-14,1,2,-4,-2,-2,4
1523055330563707,3,25,1,4,1,-1,7,11
1523055330570759,-16,-3,0,3,-2,1,-6,-6
1523055330570759,-8,-3,-3,-16,1,1,12,-3
1523055330586303,5,-4,1,9,-2,1,10,-14
1523055330586303,6,-3,2,4,2,-1,-24,-13
1523055330593499,0,18,-1,-9,-3,-4,4,30
1523055330593499,-6,-38,-8,-2,-4,0,5,-4
1523055330609363,-3,-1,-2,-7,0,0,3,-3
1523055330609363,-7,-5,-2,-6,7,8,11,-2
1523055330610868,12,8,6,27,16,-1,-9,-8
1523055330610868,-19,14,6,-22,-49,-11,1,-3
1523055330624406,-6,-13,-4,10,9,-1,-6,2
1523055330624406,-9,-18,-9,-15,0,-4,0,-3
1523055330630664,12,14,-4,-8,-3,2,-11,-4
1523055330630664,0,0,-1,10,12,2,31,0
1523055330647276,6,9,2,-14,-7,-5,-51,4
1523055330647276,-8,20,8,27,-2,-1,8,0
1523055330655044,-3,-46,-11,-2,-2,-3,4,0
1523055330655044,7,13,0,-3,6,0,-1,4
1523055330669918,-7,0,1,-19,-3,2,12,-4
1523055330669918,-1,7,6,9,-1,-2,0,0
1523055330670841,-6,-30,-9,-7,3,-2,-6,-3
1523055330670841,-1,6,0,-26,-22,-3,-7,1
1523055330683876,-5,-4,-6,8,1,-2,1,-14
1523055330683876,4,5,0,-11,3,0,19,15
1523055330690894,5,25,0,-1,7,1,-13,8
1523055330690894,-1,-6,-1,21,10,2,-6,-4
1523055330706436,-7,-5,2,-4,-7,0,11,-5
1523055330706436,-2,3,-2,-4,-3,1,12,-10
1523055330712960,7,-4,4,4,-3,-3,0,4
1523055330712960,-13,-8,-6,-14,17,1,-5,-4
1523055330730001,2,16,8,28,-6,-1,-2,0
1523055330730001,-3,-11,-8,-28,-25,-7,-1,0
1523055330731003,4,3,2,-7,1,1,4,1
1523055330731003,13,19,4,6,6,0,-12,2
1523055330744037,0,-7,-3,10,5,1,13,-2
1523055330744037,-10,-15,-7,1,6,-1,-7,-2
1523055330750770,-12,5,5,-2,-9,-2,1,-13
1523055330750770,17,10,3,6,-2,1,1,18
1523055330766843,-3,-1,-7,-2,0,-3,1,-5
1523055330766843,-6,-11,-2,9,3,1,-7,1
1523055330773114,-3,8,3,-7,-8,0,-4,-4
1523055330773114,3,24,4,15,6,-1,7,-3
1523055330789658,10,6,0,-18,-3,-3,-5,11
1523055330789658,-19,-25,-3,-2,2,0,-8,-4
1523055330791164,9,18,2,6,-1,1,27,2
1523055330791164,17,2,-2,3,-2,-8,-45,-9
1523055330828294,-27,-2,-2,-4,-2,0,1,0
1523055330828294,4,-3,2,2,0,-2,-3,-7
1523055330830266,-5,-8,-3,1,-5,-3,1,11
1523055330830266,12,-3,0,1,6,6,17,14
1523055330849636,0,-9,0,-5,0,-2,-1,-11
1523055330849636,0,0,-2,2,0,2,-4,-7
1523055330851322,-4,-9,-3,-8,-4,-3,-6,3
1523055330851322,-9,-11,-1,5,0,-1,5,4
1523055330872380,9,1,0,3,1,1,3,-20
1523055330872380,9,1,-7,-6,-4,-3,-1,17
1523055330873380,-5,-5,4,1,0,-1,-4,9
1523055330873380,-6,2,-3,0,-3,-5,-9,-2
1523055330893690,5,1,-2,-1,1,3,14,-7
1523055330893690,15,7,-1,-4,-2,-3,-3,0
1523055330902970,-5,-21,2,3,2,3,-6,-15
1523055330902970,-4,16,4,5,2,-1,7,4
1523055330903462,7,-9,-7,-10,-6,-2,-6,13
1523055330903462,-3,3,1,1,5,0,1,-12
1523055330909476,-2,-6,1,-4,1,-1,-6,-5
1523055330909476,-5,-5,-1,2,-1,2,19,-4
1523055330916673,-8,6,2,8,10,-5,-42,-2
1523055330916673,2,12,-3,-42,-34,-6,8,1
1523055330916997,1,-15,-11,10,24,0,0,-5
1523055330916997,-7,-8,3,1,-6,-1,-16,-12
1523055330923013,3,6,-8,4,21,2,8,12
1523055330923013,-5,-18,3,-50,-55,-9,2,-2
1523055330932038,4,24,-4,34,18,2,-10,-4
1523055330932038,0,-32,-3,-27,-17,-4,10,1
1523055330946574,4,10,3,14,10,-1,3,7
1523055330946574,-17,-24,-8,-5,20,0,-9,-3
1523055330953125,-3,2,-3,-9,5,1,17,2
1523055330953125,-12,-9,-8,-29,-51,-10,-13,-6
1523055330969637,24,12,6,3,-1,-1,-1,-11
1523055330969637,-23,-8,4,35,17,3,-4,5
1523055330971141,5,3,-1,-3,-1,0,6,-2
1523055330971141,-5,2,-1,16,24,3,1,-4
1523055330983205,6,-13,-3,-24,-27,-6,2,26
1523055330983205,0,-9,-4,10,13,1,-1,-12
1523055330992196,-8,-5,0,-1,-12,1,-2,-3
1523055330992196,-1,17,2,4,8,2,12,-2
1523055331006232,-12,-1,-1,-14,-4,-1,-14,-7
1523055331006232,14,21,4,26,10,1,-4,-1
1523055331013253,-29,-35,-7,-11,-11,-3,3,6
1523055331013253,3,9,-3,-4,0,-1,20,-2
1523055331029295,-2,-3,-3,15,14,1,-28,2
1523055331029295,7,22,7,39,16,2,-2,-8
1523055331031300,9,23,5,-59,-46,-8,-8,4
1523055331031300,6,-14,-4,38,17,0,5,2
1523055331043331,-4,4,-3,-4,-3,0,10,4
1523055331043331,-4,-13,-3,1,12,2,20,-1
1523055331052356,2,22,4,6,2,-2,-28,-13
1523055331052356,7,7,-2,1,7,1,-2,7
1523055331066447,-23,-12,-5,1,-8,-3,14,-3
1523055331066447,10,0,1,-21,-5,-2,-14,-5
1523055331072910,13,13,2,10,3,-1,6,1
1523055331072910,-16,-21,-3,-19,-4,-2,-10,-5
1523055331089513,6,3,1,16,3,3,12,-6
1523055331089513,-1,11,1,-19,-17,-5,-4,1
1523055331090961,-6,-1,-3,-9,-3,-6,-18,0
1523055331090961,14,14,5,19,5,3,-6,-2
1523055331102991,-8,-23,-7,-20,-7,-1,16,2
1523055331102991,-1,-16,-6,1,-6,-2,5,13
1523055331112016,-5,2,2,4,6,0,3,-10
1523055331112016,10,6,-2,-22,5,0,-8,2
1523055331126554,-7,0,2,26,-3,-1,9,-4
1523055331126554,9,-4,-5,-34,-16,-2,-6,1
1523055331133072,-7,-8,-2,11,4,-1,-2,0
1523055331133072,-7,-13,-5,-19,5,0,1,-2
1523055331149614,1,2,4,-20,-20,-3,-11,-14
1523055331149614,-8,-12,4,30,1,-1,4,15
1523055331151121,7,5,1,10,12,3,12,9
1523055331151121,-4,-3,-4,-12,-10,-1,-3,-11
1523055331163209,6,8,0,-4,9,1,14,-17
1523055331163209,-6,-20,-1,17,9,-9,-51,-10
1523055331172213,11,11,0,5,-3,3,8,38
1523055331172213,-6,-12,-1,10,10,1,2,0
1523055331201306,4,14,3,-13,-11,-1,3,-3
1523055331201306,0,15,-4,-28,7,3,8,-7
1523055331209774,-5,-18,-5,45,6,-3,-1,-20
1523055331209774,0,6,1,-19,-9,-2,-11,4
1523055331231834,2,-7,1,8,1,0,-5,4
1523055331231834,-1,16,-2,1,8,1,7,-4
1523055331233339,-3,-7,-1,-5,-5,-2,-10,-10
1523055331233339,1,3,1,-12,-2,0,5,16
1523055331254394,9,9,2,7,-9,1,-2,2
1523055331254394,-1,1,-3,5,3,2,25,3
1523055331255899,-3,-6,-2,-25,-19,-10,-34,-7
1523055331255899,-7,-10,2,30,4,-1,2,-6
1523055331276453,-7,2,-1,-16,3,0,-4,2
1523055331276453,25,21,3,-3,2,1,-1,4
1523055331283003,2,-15,-4,-2,1,2,10,-7
1523055331283003,-4,3,-5,10,5,-3,-2,-1
1523055331298011,-5,-11,2,-15,-11,-6,-18,4
1523055331298011,-2,-4,1,9,2,1,2,-4
1523055331308057,1,1,0,-9,5,1,16,0
1523055331308057,-3,-5,-4,-3,-8,-5,-14,-1
1523055331329594,5,-1,-3,-2,2,-1,6,2
1523055331329594,-4,-5,-2,5,1,1,1,11
1523055331331104,0,0,-1,-14,-5,-1,-3,-8
1523055331331104,-4,9,-1,6,0,-3,5,0
1523055331352383,-8,-25,-6,3,0,-1,-4,-2
1523055331352383,-3,0,3,-1,-3,-2,-7,-23
1523055331353658,3,10,2,-2,-4,-1,9,21
1523055331353658,-25,-3,-3,-2,-3,-3,-2,-2
1523055331374272,-1,-17,-3,-1,2,2,4,2
1523055331374272,-1,5,-5,-1,0,1,-7,-3
1523055331380732,3,1,0,2,0,4,15,-11
1523055331380732,5,8,3,4,-1,-2,-4,0
1523055331396271,-4,-5,-8,-7,-2,-5,-7,-7
1523055331396271,-6,-3,3,2,-4,-2,1,10
1523055331404794,-5,-1,5,3,1,0,-2,-12
1523055331404794,-9,6,-5,-3,-1,-5,-6,-3
1523055331411773,21,14,-2,0,0,0,-1,4
1523055331411773,9,0,-3,-1,-1,2,3,8
1523055331413778,-1,-15,-5,-7,-4,-3,-4,2
1523055331413778,1,-9,3,0,1,1,2,-2
1523055331418792,-15,-3,0,1,-1,-3,-4,-1
1523055331418792,6,-3,-1,1,-1,-4,-5,-10
1523055331419823,7,5,1,-2,0,-1,-9,-5
1523055331419823,0,10,1,1,-2,-1,4,-4
1523055331426813,-10,-26,-9,1,3,1,9,6
1523055331426813,-5,-8,0,-7,-6,0,8,-10
1523055331427816,-3,10,-2,17,6,-4,-36,15
1523055331427816,8,-5,-3,-6,0,2,2,-2
1523055331433830,0,16,9,50,14,2,0,-2
1523055331433830,-6,1,1,-8,6,3,1,0
1523055331434833,-3,-20,3,4,-26,-4,12,-8
1523055331434833,2,4,-4,-28,7,2,5,-1
1523055331448872,-1,13,-4,8,12,-1,-8,8
1523055331448872,-11,-27,-11,-36,-34,-9,-2,-6
1523055331455891,7,12,3,18,9,1,4,0
1523055331455891,15,6,12,20,-7,-2,0,-3
1523055331471986,-6,-27,-14,-17,36,6,-1,-2
1523055331471986,9,42,7,-4,-26,-5,-5,-2
1523055331473490,5,-23,-8,-25,-4,-5,3,-1
1523055331473490,2,-2,-2,1,-3,0,-4,14
1523055331486470,5,2,2,1,-6,-2,14,-3
1523055331486470,-4,1,-1,11,20,1,-31,-8
1523055331492988,1,9,-1,-3,-7,0,8,6
1523055331492988,-1,-6,-2,5,2,0,-5,-15
1523055331509033,-3,-1,0,-9,-7,0,6,13
1523055331509033,0,-4,-1,13,1,-1,0,2
1523055331515549,-13,-4,0,-11,-1,-2,5,-2
1523055331515549,-9,-14,-5,9,8,1,4,1
1523055331532146,10,17,3,-19,-15,-3,-2,-4
1523055331532146,-9,-17,-4,-10,-11,-6,-18,-10
1523055331533597,-1,-2,-2,11,10,-1,-2,1
1523055331533597,7,17,1,-12,-7,-2,1,1
1523055331546131,-8,1,1,-1,-7,-1,6,-2
1523055331546131,-2,-19,-7,10,14,1,-1,-6
1523055331553150,-4,4,0,-7,4,2,4,6
1523055331553150,4,-2,0,-4,-5,-1,-11,1
1523055331568690,2,5,3,4,-8,-2,-3,-1
1523055331568690,-9,-1,-2,-3,15,3,6,-3
1523055331575710,12,12,0,12,-14,-2,5,-9
1523055331575710,-8,-21,-6,-23,-5,-3,-7,9
1523055331592254,-5,-4,1,35,4,-1,-6,-2
1523055331592254,-1,-2,-3,-21,4,-2,2,3
1523055331593758,-2,3,0,-3,-5,-1,3,-5
1523055331593758,19,8,8,39,9,1,6,-3
1523055331606290,1,4,-4,-37,-35,-8,-8,-4
1523055331606290,-4,-6,0,27,15,1,-8,6
1523055331613308,-6,-6,-2,-18,6,-1,-3,-4
1523055331613308,-3,6,2,1,3,1,0,-1
1523055331628850,-1,-9,-4,6,4,-1,-5,-4
1523055331628850,0,6,-3,-5,-1,2,20,2
1523055331635870,4,23,1,7,-6,0,2,8
1523055331635870,-2,-26,-7,1,-14,-6,-6,0
1523055331651965,-3,4,0,-7,5,1,4,2
1523055331651965,-2,3,1,-5,-8,-2,4,1
1523055331653415,-10,-8,-4,1,20,5,1,-8
1523055331653415,7,6,0,-9,-16,-3,-1,-7
1523055331666451,-7,6,5,0,-3,-2,-4,-2
1523055331666451,-9,-16,-7,-16,-7,-2,6,-6
1523055331673023,7,3,5,8,6,-3,-8,7
1523055331673023,-9,6,2,6,6,4,-1,-7
1523055331689038,3,6,-3,-10,-5,-3,-7,-4
1523055331689038,0,-13,1,39,4,-1,0,2
1523055331695581,-4,0,-3,-5,-3,0,-3,-4
1523055331695581,-8,13,-1,-26,11,2,-3,-2
1523055331727667,1,-8,3,-16,-23,-5,5,-3
1523055331727667,1,6,-1,9,5,-1,-3,-8
1523055331730120,-2,-8,-4,-6,-7,-2,4,27
1523055331730120,-8,-27,-9,12,16,-1,-9,-6
1523055331749671,5,19,4,-4,2,1,-3,-9
1523055331749671,-3,-1,2,-29,-10,-3,7,3
1523055331751213,-1,-2,-1,20,4,1,-2,-8
1523055331751213,3,5,1,2,-18,-3,9,0
1523055331770727,-3,-1,-3,-1,5,-5,-21,-4
1523055331770727,-4,5,0,-2,-6,-1,-2,7
1523055331779752,-10,-29,-9,-14,4,0,3,-7
1523055331779752,-1,9,1,3,1,1,3,7
1523055331801810,-4,-5,0,4,-1,2,1,-15
1523055331801810,1,11,1,-5,2,-2,0,18
1523055331803827,11,13,-1,-6,-4,-4,-7,-4
1523055331803827,-7,-13,-1,-14,-5,-2,-3,-6
1523055331825374,-2,-13,-3,-3,-4,-1,-1,-1
1523055331825374,-1,20,5,7,4,1,-1,-1
1523055331826878,-4,-6,-1,-4,-4,-1,-2,-3
1523055331826878,-3,-21,-3,1,-1,-2,-7,-2
1523055331831389,2,27,3,-2,7,1,7,7
1523055331831389,-1,-26,-8,4,-3,-1,-1,0
1523055331831892,0,2,2,-3,-7,-1,0,-4
1523055331831892,-4,22,3,-4,0,-4,-11,-15
1523055331838908,-4,-24,-8,1,3,-3,-6,5
1523055331838908,-5,-11,-7,-2,-9,-4,-6,-8
1523055331839410,2,8,2,-4,2,1,2,-3
1523055331839410,0,13,3,2,1,1,2,1
1523055331845426,-4,-23,0,5,-1,-2,2,2
1523055331845426,4,7,4,3,-2,1,-2,0
1523055331854451,5,11,-1,-7,1,1,1,0
1523055331854451,10,-8,-8,-6,-7,-6,-9,-2
1523055331868990,2,5,0,3,2,2,3,1
1523055331868990,-2,-10,0,0,2,0,3,0
1523055331875562,0,3,0,-3,-2,-3,0,-4
1523055331875562,4,3,3,6,-2,2,2,12
1523055331892553,-3,-9,-2,-2,2,1,16,-8
1523055331892553,-5,12,2,3,0,-3,-4,2
1523055331894057,0,-21,-3,-1,-2,-1,-10,3
1523055331894057,-9,12,1,0,2,0,1,-7
1523055331905587,5,-9,-6,-5,1,-1,6,5
1523055331905587,2,10,3,-4,1,1,4,-2
1523055331914611,-5,2,3,24,-5,-4,-4,-8
1523055331914611,-5,-10,-9,31,22,5,6,2
1523055331928649,2,12,8,-21,-2,3,-8,1
1523055331928649,-2,-23,-5,-3,-16,-5,2,-10
1523055331935722,0,8,-2,-41,6,-2,-6,6
1523055331935722,-3,-20,2,30,5,0,-1,-5
1523055331951765,0,30,-9,19,14,1,4,4
1523055331951765,3,-7,8,2,-3,1,5,2
1523055331953771,2,1,5,26,-8,-7,-24,1
1523055331953771,-6,-10,-8,-12,21,2,-1,-16
1523055331965783,-25,-8,-7,-28,-13,-5,-3,0
1523055331965783,35,18,0,-6,7,2,11,15
1523055331974825,-23,-17,-3,2,-6,2,11,-5
1523055331974825,9,20,12,7,-7,-3,-5,2
1523055331988861,-4,13,0,19,-1,-1,-1,-8
1523055331988861,-18,-43,-13,-18,-7,-2,-9,-9
1523055331995826,5,19,3,3,4,-3,5,-1
1523055331995826,5,8,1,-9,-10,0,-13,-3
1523055332011869,4,-3,-2,-11,-3,1,34,3
1523055332011869,1,12,1,10,8,-4,-27,7
1523055332013374,2,-6,4,-1,1,1,3,0
1523055332013374,-9,-4,-2,-28,-15,-1,3,-3
1523055332025906,3,-10,0,30,5,-3,-10,-12
1523055332025906,2,8,-1,2,-1,1,4,10
1523055332034429,-3,-7,-6,-15,-4,-2,-6,-13
1523055332034429,-6,-11,-5,2,-2,0,10,7
1523055332049022,-1,-14,3,5,-2,-1,-10,-5
1523055332049022,8,-5,-3,4,8,0,-11,-6
1523055332055485,-7,9,-1,-4,-12,0,8,-4
1523055332055485,7,-1,-4,-7,-7,-3,-5,4
1523055332072030,-1,-12,-2,0,7,-3,-9,2
1523055332072030,11,11,0,3,5,1,4,-10
1523055332073535,-15,6,-3,-27,-2,1,7,-12
1523055332073535,6,-18,-5,24,-3,-5,10,19
1523055332085566,0,11,4,3,-14,-3,-10,6
1523055332085566,-12,-20,-7,-18,-1,0,5,-12
1523055332094589,3,0,-2,8,6,-1,-5,-10
1523055332094589,-5,3,5,4,-11,-1,12,6
1523055332108628,9,13,1,-12,10,3,-3,3
1523055332108628,-10,2,-2,1,-2,-3,0,-4
1523055332115646,2,-3,-1,24,2,3,-3,-1
1523055332115646,-9,-25,-5,-24,-17,-5,-6,-5
1523055332132190,4,6,0,14,8,0,-3,5
1523055332132190,-5,7,0,9,3,0,-4,-1
1523055332133693,0,-26,-9,-32,-13,-3,3,-1
1523055332133693,0,12,2,19,15,1,-3,2
1523055332145726,9,13,10,7,-7,-2,-12,-5
1523055332145726,-7,-22,-11,1,12,-1,1,-7
1523055332154803,-2,2,8,14,-13,-4,-6,-1
1523055332154803,-3,3,-5,13,5,2,30,9
1523055332168840,4,7,-1,-28,-4,-4,-45,-5
1523055332168840,1,15,1,-4,-6,-3,4,0
1523055332175806,-3,-25,-5,12,15,3,2,-1
1523055332175806,-7,0,-1,-18,-8,-1,-10,-19
1523055332191348,7,4,-5,-2,1,1,17,15
1523055332191348,-3,-4,5,34,7,4,4,10
1523055332197866,0,2,-3,-21,1,-2,-12,-5
1523055332197866,-3,2,4,-29,-21,-5,3,-9
1523055332229448,-2,9,-2,4,4,1,6,-6
1523055332229448,-4,-22,-1,-4,-7,-1,-6,4
1523055332230952,6,28,-2,-6,6,-1,7,6
1523055332230952,-1,-3,0,2,4,-2,-11,1
1523055332252009,2,1,1,-1,-5,-4,6,-2
1523055332252009,3,34,5,-16,-3,-2,-1,0
1523055332253514,-15,-66,-13,-6,0,-2,0,-2
1523055332253514,9,17,-3,-13,-2,-2,-6,-1
1523055332274066,-7,-13,-4,-16,-6,-3,-4,-5
1523055332274066,-13,7,1,2,-1,-1,5,-7
1523055332280584,-3,-3,-4,4,5,-2,-3,3
1523055332280584,5,5,3,-2,0,0,-9,-6
1523055332295626,-9,-18,-3,-8,-5,-1,9,10
1523055332295626,-9,8,-5,1,1,-2,-3,-12
1523055332304705,28,-8,-1,-2,-8,-4,0,12
1523055332304705,-13,-5,-3,-9,2,1,-4,-4
1523055332327748,-5,-2,0,7,3,1,20,-7
1523055332327748,6,11,1,-1,-5,-6,-15,1
1523055332330217,-4,20,3,1,-1,2,2,-1
1523055332330217,2,5,-2,2,2,0,-2,3
1523055332333761,-14,-73,-15,-2,-1,0,4,-4
1523055332333761,-1,-9,-1,0,-6,-2,0,-3
1523055332334763,7,10,4,2,-1,0,-1,5
1523055332334763,0,-10,0,0,2,2,-1,-5
1523055332356787,0,25,3,1,-7,-2,-8,10
1523055332356787,2,2,-2,-6,-2,3,4,-3
1523055332358829,-3,5,1,-1,-1,0,-5,0
1523055332358829,-9,10,0,3,0,-1,0,-2
1523055332378847,-2,-24,-3,0,-2,-1,-6,-5
1523055332378847,-3,16,0,-1,-1,-1,1,5
1523055332386867,-5,-24,-11,-2,-2,-3,4,-4
1523055332386867,7,10,-3,-2,0,0,-6,4
1523055332387871,-3,0,2,3,2,1,-2,-4
1523055332387871,2,4,6,1,-1,1,5,0
1523055332394388,-9,9,2,1,-2,-2,-7,-1
1523055332394388,-4,-13,-10,-5,0,-3,-3,-3
1523055332395391,7,10,6,-1,0,0,-3,3
1523055332395391,1,-2,-2,-1,0,4,11,1
1523055332395892,-2,18,3,5,0,0,-1,0
1523055332395892,-10,-38,-5,-1,-1,-2,-4,-8
1523055332409428,4,3,-5,1,-2,-1,0,-3
1523055332409428,5,5,4,-1,-2,-1,-1,5
1523055332415595,-1,1,-1,0,3,2,19,2
1523055332415595,5,12,3,-2,-8,-5,-32,-1
1523055332430483,-3,8,3,-2,-5,0,-9,-7
1523055332430483,-5,-16,-5,-1,0,-3,-2,-1
1523055332438057,1,8,1,3,3,1,12,1
1523055332438057,-4,-22,-4,-3,0,-1,-5,-6
1523055332454047,-4,1,-7,-8,-1,-4,7,11
1523055332454047,3,0,0,9,8,0,-6,0
1523055332454548,0,12,4,-39,-27,-2,-3,-4
1523055332454548,-3,5,4,-10,-1,-4,7,0
1523055332469589,-8,-25,-15,-23,1,-5,-11,-12
1523055332469589,7,10,0,-18,13,3,6,2
1523055332475733,-7,8,4,-10,-30,-10,-10,2
1523055332475733,16,-20,-7,-75,-17,-2,4,-17
1523055332490645,3,42,11,64,2,0,8,4
1523055332490645,-6,-34,-11,-16,-3,-9,6,20
1523055332498164,7,-10,-8,-1,-4,-1,-7,-2
1523055332498164,-6,-7,-3,6,6,3,-2,-6
1523055332513705,1,-1,1,15,19,4,13,1
1523055332513705,2,8,8,-15,-27,-2,2,-10
1523055332514741,-7,-23,-10,17,5,-1,-15,-5
1523055332514741,0,14,5,22,2,-1,15,11
1523055332529747,-18,-15,-3,-1,-2,0,-3,-10
1523055332529747,-11,-9,2,21,2,1,-8,-5
1523055332535763,9,-1,-1,0,11,-2,3,4
1523055332535763,2,30,1,5,-10,0,8,8
1523055332550804,-4,-16,-4,-9,2,-1,0,-6
1523055332550804,2,2,0,-6,-5,-6,-41,-12
1523055332558324,-10,-10,0,17,6,3,6,-1
1523055332558324,7,-13,-10,-10,10,-1,3,9
1523055332573864,7,17,12,13,-15,-3,2,5
1523055332573864,-9,-11,-8,-6,-5,1,13,-2
1523055332574366,-4,8,-2,2,8,1,1,-5
1523055332574366,4,3,3,18,5,0,-27,1
1523055332589407,6,8,2,-17,2,1,3,-1
1523055332589407,-4,-7,1,-5,-3,-1,-9,-6
1523055332595423,-1,2,0,13,8,1,-1,-3
1523055332595423,-7,-2,0,1,-1,-1,8,1
1523055332610461,4,17,-1,-15,-11,-1,-4,-6
1523055332610461,1,-8,-4,8,5,2,4,14
1523055332617983,5,22,0,-18,-11,-1,3,0
1523055332617983,-6,-14,0,2,3,2,3,-7
1523055332634024,-3,-15,-2,6,1,0,-8,0
1523055332634024,7,13,-1,14,-4,-2,9,-5
1523055332634525,-12,-19,-7,-9,0,-2,1,-1
1523055332634525,3,12,0,9,7,0,-5,2
1523055332649566,-11,-1,-2,-25,8,2,-1,-8
1523055332649566,5,7,0,-13,-14,-2,6,-3
1523055332655638,3,-18,-2,13,-4,-3,-4,-12
1523055332655638,13,-2,1,9,-5,2,8,22
1523055332670623,5,2,2,6,4,-2,1,4
1523055332670623,-7,2,-1,15,12,3,12,-7
1523055332678143,11,19,6,-19,-2,-1,-2,2
1523055332678143,-24,-29,-8,3,-1,-3,-1,-18
1523055332693719,3,-20,-2,7,-7,-5,-21,5
1523055332693719,6,6,5,-10,-3,0,5,3
1523055332694725,-3,4,2,6,11,1,-3,2
1523055332694725,2,4,0,20,-2,2,1,1
1523055332709727,0,11,0,-20,-3,0,25,-6
1523055332709727,-2,2,0,-9,-18,-6,-21,1
1523055332715775,-6,-21,-6,17,11,2,-2,0
1523055332715775,-1,18,5,-2,-1,1,-2,-1
1523055332730783,-4,-14,3,21,-7,-1,4,0
1523055332730783,0,7,-2,3,10,1,-2,-7
1523055332738301,3,5,-1,-5,-3,-3,-6,1
1523055332738301,5,20,2,-8,1,-3,5,11
1523055332769386,-5,-47,-11,-14,-3,-1,-10,-4
1523055332769386,9,13,2,5,4,0,2,-1
1523055332770890,-6,-13,0,2,1,0,6,1
1523055332770890,2,21,4,0,5,0,-10,-6
1523055332791946,-2,8,-7,-7,-3,-3,-4,-1
1523055332791946,-3,-25,-8,-1,-4,-3,-1,1
1523055332793483,-16,10,4,-3,0,1,5,-4
1523055332793483,-11,-9,-2,-1,-1,-1,3,-7
1523055332814040,13,20,4,-4,-6,-3,-4,5
1523055332814040,-6,-3,1,2,4,2,0,-3
1523055332831050,7,17,1,-1,-2,0,-1,-4
1523055332831050,9,-27,-2,-3,-5,-4,9,4
1523055332831559,-10,-14,-9,-2,1,-1,-8,-4
1523055332831559,15,-3,1,-2,-3,-2,2,-3
1523055332832555,5,12,5,-1,-3,0,-8,-3
1523055332832555,8,9,0,0,-5,-1,7,-2
1523055332836688,-31,-8,-5,-2,7,3,6,5
1523055332836688,-3,11,3,3,3,0,-7,-4
1523055332837066,-12,-9,-2,-2,-2,-1,7,5
1523055332837066,23,13,-1,-1,-2,-2,-4,0
1523055332850601,-43,-30,-6,-2,1,1,0,-13
1523055332850601,-36,-17,-3,-2,1,-1,-6,0
1523055332858273,-9,2,-3,1,-2,-3,-4,8
1523055332858273,10,-4,-1,-1,0,3,3,-11
1523055332873748,18,23,6,-1,-3,-5,-7,7
1523055332873748,0,26,0,-2,5,8,10,-5
1523055332874750,3,-48,-10,-1,-5,-6,-6,-3
1523055332874750,-12,-2,2,1,-2,-2,-4,17
1523055332889791,23,37,6,-3,-3,-1,14,-2
1523055332889791,-5,-6,0,1,0,-2,-8,-1
1523055332895843,4,-6,-4,-4,-5,-4,-5,-14
1523055332895843,-10,-10,-2,0,-1,0,-2,5
1523055332911229,10,14,4,-1,0,0,20,-1
1523055332911229,9,-4,-4,-3,-3,-9,-35,-4
1523055332917902,-6,-11,2,0,1,-1,-8,-13
1523055332917902,-13,-8,-5,-13,-3,-1,19,1
1523055332933945,13,11,4,1,4,3,-11,16
1523055332933945,0,-11,-2,42,11,4,11,-6
1523055332934963,9,11,5,-37,-10,-2,-2,1
1523055332934963,-9,-5,-2,-21,-17,-5,-5,-11
1523055332949486,5,-1,4,12,10,-2,-10,-6
1523055332949486,3,1,4,-37,-46,-8,9,6
1523055332955501,2,8,-4,22,35,7,-2,2
1523055332955501,-2,-5,-1,39,4,-1,-4,-7
1523055332970598,1,-8,-5,-29,-21,-3,-5,0
1523055332970598,3,3,2,-22,8,-1,0,1
1523055332978116,1,35,0,27,14,3,4,-8
1523055332978116,-10,-49,-11,-16,-6,-5,-5,9
1523055332993603,0,20,4,29,8,2,-4,-3
1523055332993603,0,4,-1,-6,3,0,1,-3
1523055332994606,-4,-25,-4,-34,-24,-3,2,1
1523055332994606,3,25,6,29,21,4,-6,-7
1523055333009647,-3,-15,-7,1,-6,-2,-1,-9
1523055333009647,9,-8,-5,-12,-4,-5,-11,5
1523055333015661,4,20,6,9,1,-1,1,7
1523055333015661,-8,-26,-5,-3,-1,-1,-11,-11
1523055333030704,3,-8,-4,-22,2,1,-1,3
1523055333030704,-1,23,5,-1,-12,-1,12,5
1523055333038223,-11,-24,-5,4,-1,-4,3,-4
1523055333038223,5,-17,-7,6,-13,-4,-8,-5
1523055333053803,4,19,0,-5,-1,-2,-7,-6
1523055333053803,-4,-7,-5,10,17,1,5,-2
1523055333054770,5,14,2,-5,-5,-2,-5,14
1523055333054770,-12,9,4,-13,5,0,7,-5
1523055333069840,29,-10,1,5,-7,-2,-2,7
1523055333069840,-6,17,0,9,4,1,1,-4
1523055333075821,-13,-37,-6,4,-3,0,-2,2
1523055333075821,1,13,1,-17,-7,-2,21,-3
1523055333090360,-6,-3,-2,6,2,-5,-41,-15
1523055333090360,7,19,3,-8,0,2,16,21
1523055333097895,-13,-42,-9,10,1,-3,-15,-7
1523055333097895,11,16,-1,-1,5,4,15,0
1523055333112923,-11,3,3,5,2,-3,-6,0
1523055333112923,0,-23,-7,-20,-8,-1,6,-8
1523055333120440,5,7,-3,14,9,0,0,4
1523055333120440,-7,15,3,-23,-25,-4,-8,-9
1523055333129466,-6,-29,-7,-10,-13,-4,7,12
1523055333129466,-13,-5,-1,-7,10,3,-12,-3
1523055333135483,15,2,-3,-6,3,2,8,-3
1523055333135483,3,15,3,14,7,0,-9,-5
1523055333150521,-8,1,-1,-2,10,4,0,-1
1523055333150521,-1,-9,3,-2,-13,-3,11,1
1523055333158040,-4,24,8,-17,-19,-8,-35,-17
1523055333158040,14,2,-3,2,8,-2,5,28
1523055333173082,-1,-1,-3,-2,5,3,0,-3
1523055333173082,5,-1,-1,13,13,-1,-10,-3
1523055333180655,-4,-1,3,12,-2,1,9,-5
1523055333180655,-2,2,-4,-6,-3,-1,-9,-7
1523055333189626,2,1,-1,-11,0,0,8,-1
1523055333189626,-5,-3,-2,6,-8,-2,0,-2
1523055333195642,19,14,-2,-16,-7,-3,3,9
1523055333195642,-13,-20,-6,7,14,2,-4,-5
1523055333210681,1,-1,3,20,-11,-3,7,-5
1523055333210681,-1,0,0,-19,2,1,6,5
1523055333218201,-10,-16,-4,-17,-9,-4,-9,-6
1523055333218201,-1,4,-3,0,7,0,-4,5
1523055333249320,-1,-2,0,-5,-5,-2,0,-6
1523055333249320,3,-4,-1,15,9,0,-6,-6
1523055333251288,7,24,5,10,4,2,8,7
1523055333251288,-16,-35,-4,1,1,1,-1,-3
1523055333271398,10,5,-4,-5,0,-2,2,2
1523055333271398,-1,7,-2,-1,-1,0,1,0
1523055333278361,-21,-22,-7,1,-8,-3,3,-5
1523055333278361,23,10,7,0,-5,-4,-10,-6
1523055333292901,-9,-10,-4,-1,1,1,9,6
1523055333292901,-8,-7,-5,1,2,-3,-9,-10
1523055333301924,20,41,8,8,1,3,11,7
1523055333301924,-1,7,1,-3,-1,-2,-3,-4
1523055333324485,-7,-26,-2,-4,0,-1,-6,-4
1523055333324485,0,4,0,2,-3,1,2,-4
1523055333325988,-6,0,-1,-4,1,0,-2,1
1523055333325988,-9,-19,-3,0,-2,-1,1,3
1523055333347545,13,18,4,-3,4,-1,1,8
1523055333347545,-52,-32,-8,2,-3,-2,-13,-15
1523055333350053,3,8,0,-3,1,0,-5,-6
1523055333350053,-7,0,1,0,2,2,1,-3
1523055333354065,-4,1,-3,-5,-3,-2,7,12
1523055333354065,17,9,2,5,-1,1,13,0
1523055333354565,2,-8,-2,-1,1,-6,-36,5
1523055333354565,1,13,2,-1,-2,1,1,-4
1523055333377163,-9,11,3,0,-3,-2,2,-3
1523055333377163,-5,-33,-8,2,1,2,4,1
1523055333378632,2,3,4,-4,1,-1,1,-10
1523055333378632,5,1,-4,-1,-1,-4,-1,3
1523055333398179,3,15,3,3,3,4,0,-5
1523055333398179,3,-8,-4,-1,-2,-5,-4,9
1523055333407204,-4,-12,3,1,1,4,13,3
1523055333407204,-7,27,1,-1,-2,-2,-5,-2
1523055333414223,2,-3,-5,-1,-2,-3,0,-4
1523055333414223,1,8,5,0,-3,-1,4,5
1523055333416227,-1,-15,-2,0,4,0,-2,-1
1523055333416227,0,14,1,-1,-3,0,-4,-2
1523055333421297,-9,-3,-3,-1,1,-1,-4,-9
1523055333421297,10,6,2,2,-8,-4,-7,-12
1523055333422301,4,23,0,-3,-3,-4,-1,15
1523055333422301,-6,-10,-1,-4,-4,1,7,6
1523055333436282,-9,-22,-3,-5,-1,-3,-16,-11
1523055333436282,3,0,-1,3,8,-1,-5,-6
1523055333437283,1,4,-3,-32,-32,-6,11,-2
1523055333437283,-12,-28,-4,42,13,1,-9,-8
1523055333450819,8,12,0,-4,14,4,21,0
1523055333450819,9,7,0,-30,-15,-6,-11,24
1523055333466416,-2,-6,-9,11,-3,-2,-2,-10
1523055333466416,-1,13,5,-19,-4,2,5,-3
1523055333472933,-11,-11,-3,-41,-27,-6,-2,-8
1523055333472933,5,3,0,61,44,5,-3,-2
1523055333480901,0,-32,-6,-4,-26,-5,2,1
1523055333480901,3,11,-3,-5,4,-4,-2,3
1523055333496441,1,10,2,7,9,0,-5,-3
1523055333496441,0,13,3,-23,-1,1,-2,3
1523055333496945,-12,-1,-2,7,11,-1,-4,-4
1523055333496945,1,-21,-1,2,-7,-3,1,-1
1523055333510478,1,16,2,5,0,-1,-8,-2
1523055333510478,-2,-12,-8,-25,-17,-4,10,6
1523055333518057,1,18,8,20,7,2,2,-1
1523055333518057,-4,-3,-3,-15,-4,0,-5,-14
1523055333533038,7,2,-2,-5,1,1,10,10
1523055333533038,-9,4,-4,8,-2,-2,-7,-2
1523055333540558,-9,-17,-3,-1,10,3,14,4
1523055333540558,10,-13,-4,-14,-8,-6,-10,6
1523055333556099,-29,-4,3,23,1,-1,4,-7
1523055333556099,10,-6,-3,-11,-12,-5,-6,-14
1523055333557103,11,24,1,1,5,1,8,10
1523055333557103,-9,-6,-1,2,6,-1,-2,4
1523055333570638,2,-19,-5,8,2,-1,-5,-8
1523055333570638,-4,4,0,0,-6,-2,8,-1
1523055333578159,-8,-4,1,-9,2,-3,-28,-11
1523055333578159,-12,-11,-3,6,5,1,7,0
1523055333593199,7,3,0,-3,-10,-1,-7,0
1523055333593199,-2,2,-3,-19,-12,-1,-5,-1
1523055333600719,3,-6,1,15,8,1,27,2
1523055333600719,-5,12,-1,-7,-5,-6,-32,-11
1523055333616260,-6,-11,0,4,8,2,-1,13
1523055333616260,12,10,1,-21,-6,2,3,-8
1523055333617262,-9,-24,-5,3,7,1,4,1
1523055333617262,6,7,12,28,-27,-4,5,5
1523055333630798,0,27,-3,-9,2,1,0,-6
1523055333630798,-17,-20,-6,14,13,1,-4,-5
1523055333638318,-1,15,4,0,5,2,-8,-3
1523055333638318,2,-9,-3,-7,6,2,3,0
1523055333652858,0,-9,0,8,-3,0,-3,2
1523055333652858,12,15,7,-11,-6,-2,-2,1
1523055333660879,-10,-2,-2,-1,-12,-2,-3,-3
1523055333660879,7,3,-9,1,8,1,18,2
1523055333676420,0,4,1,6,-4,-7,-33,-11
1523055333676420,-10,-29,-10,5,10,0,1,8
1523055333676922,2,3,3,-18,-7,-2,-1,-1
1523055333676922,-5,8,-1,7,6,2,2,-6
1523055333690457,7,8,-1,6,-13,1,8,8
1523055333690457,2,0,5,10,0,-3,-6,-7
1523055333698031,6,16,3,5,8,1,-5,-1
1523055333698031,-8,-21,-6,-39,-5,0,8,-4
1523055333713054,7,2,-3,-4,5,-2,1,8
1523055333713054,-11,0,6,28,-2,-2,-4,-3
1523055333720539,14,-5,-5,-15,-6,-3,7,3
1523055333720539,7,9,1,7,11,-1,-7,-5
1523055333752167,-5,10,2,-5,-2,-3,0,-6
1523055333752167,-5,-17,-8,-13,0,-2,1,6
1523055333753680,22,11,-2,10,1,0,-3,2
1523055333753680,-16,-7,1,3,-6,-2,-5,-5
1523055333774681,25,0,-3,0,4,0,0,-1
1523055333774681,0,0,-2,-11,-8,1,3,-8
1523055333776222,1,-2,2,-2,-6,-2,-3,-1
1523055333776222,7,16,1,-2,-2,0,-2,4
1523055333796241,-7,-3,-2,1,0,0,4,0
1523055333796241,-6,-2,-2,5,3,-2,-1,-7
1523055333803258,-3,1,-2,-9,1,2,-2,10
1523055333803258,7,-18,-11,-4,-4,-2,-3,-2
1523055333826821,-11,-17,-3,2,2,-1,0,-8
1523055333826821,9,10,1,-4,-5,-3,16,3
1523055333828826,-11,-17,-1,3,1,-6,-43,-8
1523055333828826,3,13,6,-2,0,2,5,1
1523055333834341,2,19,0,-7,-2,1,3,2
1523055333834341,-24,-34,-8,-1,-5,-2,0,-5
1523055333835846,13,11,1,-2,0,1,12,0
1523055333835846,-5,4,-2,-1,-3,-1,1,3
1523055333841416,-5,-19,-2,-3,-6,-3,-14,-20
1523055333841416,5,20,7,6,1,0,-1,0
1523055333842361,-5,0,-2,3,6,2,9,10
1523055333842361,1,12,1,-6,-5,2,1,-5
1523055333871940,-6,-31,-5,0,-4,-3,2,-1
1523055333871940,18,16,2,2,1,-2,-5,3
1523055333873444,3,-19,-6,-4,-1,-2,-3,-22
1523055333873444,5,12,3,4,1,-1,7,19
1523055333878959,-7,4,-4,-7,-3,1,26,6
1523055333878959,-7,1,-1,1,-2,-6,-56,-17
1523055333879464,-16,0,1,-2,-1,0,6,2
1523055333879464,2,-6,-4,-4,-1,-1,0,-6
1523055333892997,9,28,5,-2,-3,-2,-6,0
1523055333892997,-6,-5,-6,-3,-1,1,18,-1
1523055333900518,-9,-29,-6,-1,0,-1,0,5
1523055333900518,-3,-12,-1,-2,-2,-1,-10,-6
1523055333916559,-2,-4,1,-3,-1,-2,0,4
1523055333916559,3,24,2,5,6,1,7,2
1523055333917061,-8,-3,0,-13,-21,-4,-1,-6
1523055333917061,-4,0,-1,-2,8,-2,-1,-4
1523055333930631,2,-15,-3,28,20,-1,-8,7
1523055333930631,-7,3,4,-20,-7,0,1,0
1523055333938117,-1,17,0,22,-19,-6,-2,-9
1523055333938117,-5,-4,-1,-20,-6,1,-5,-5
1523055333953158,3,15,1,-9,10,7,5,-2
1523055333953158,4,-22,-10,42,14,-5,5,11
1523055333960678,6,4,9,-30,-2,-3,-2,-3
1523055333960678,-4,23,8,7,-2,-1,5,2
1523055333976219,-21,-43,-15,-24,8,3,-6,1
1523055333976219,12,-3,-4,13,7,3,11,1
1523055333977222,1,18,8,17,1,2,3,-1
1523055333977222,5,-10,-1,-6,-3,-2,-5,-10
1523055333990757,-14,5,2,-4,-2,-2,2,14
1523055333990757,-18,1,-4,-12,-8,-1,-3,-3
1523055333998276,-2,-7,-3,2,2,-1,2,-3
1523055333998276,-1,-2,-2,1,0,-3,1,4
1523055334013340,-4,-12,-2,1,-12,-4,-5,-5
1523055334013340,0,-7,-1,-15,-15,-2,-4,-4
1523055334020845,-1,19,-2,-4,9,4,-3,0
1523055334020845,-7,-24,-4,15,4,-1,3,0
1523055334035876,11,24,6,-3,-12,-4,-1,-4
1523055334035876,-6,1,0,-5,-4,-2,-4,-5
1523055334043898,3,-11,-8,-5,7,1,5,3
1523055334043898,0,-9,-5,-21,-5,-2,17,4
1523055334050469,2,3,5,59,4,-3,-44,-15
1523055334050469,8,6,1,-44,-23,-3,4,1
1523055334057990,-6,-8,-6,10,4,-1,1,10
1523055334057990,10,2,2,-5,-2,0,-1,2
1523055334072977,-1,18,0,-23,-4,-1,10,-3
1523055334072977,-6,-27,-5,13,8,-3,-14,-17
1523055334080495,-6,12,-4,-6,3,1,-3,12
1523055334080495,18,-6,-3,-8,9,3,1,8
1523055334095538,2,24,13,-3,-26,-3,13,-6
1523055334095538,-8,-20,-7,7,5,0,1,-1
1523055334103613,1,3,-4,-28,-2,-2,1,-13
1523055334103613,-16,11,3,43,17,0,-8,-5
1523055334110577,6,-20,-6,-47,-33,-7,8,14
1523055334110577,1,17,4,-3,-2,-2,-4,-1
1523055334118095,-4,-20,-5,0,5,2,11,-7
1523055334118095,-9,3,-2,19,5,-7,-39,5
1523055334133135,-3,11,1,-10,1,4,2,2
1523055334133135,3,5,0,-3,1,3,15,7
1523055334140655,-9,-26,-6,15,9,0,-7,-5
1523055334140655,1,7,-1,-27,-27,-8,0,-8
1523055334155696,5,-3,0,-8,-5,-2,4,-11
1523055334155696,-11,0,-3,6,8,2,3,15
1523055334163783,-3,-5,-2,4,1,-1,-10,-8
1523055334163783,-10,4,3,8,6,2,-1,-8
1523055334170735,5,-6,-4,1,5,-1,-6,2
1523055334170735,-4,-4,-4,-9,-2,-1,8,1
1523055334178256,1,3,3,14,1,-1,-3,-2
1523055334178256,-3,-5,2,-28,-9,-2,-1,4
1523055334193315,-4,14,1,8,3,-2,3,-4
1523055334193315,-7,-30,-5,15,6,-1,-7,-8
1523055334200815,14,8,1,-15,-14,-2,0,3
1523055334200815,-4,9,-3,7,4,1,-1,-6
1523055334231900,8,-26,-5,7,8,0,1,-3
1523055334231900,6,9,0,-4,10,1,2,-2
1523055334233402,4,1,2,23,-12,-4,-16,6
1523055334233402,3,-9,-4,-12,-8,0,8,5
1523055334253956,-7,14,-3,8,15,2,2,-13
1523055334253956,-12,-42,-10,-5,-19,-7,-6,4
1523055334260474,0,0,1,-4,5,0,9,-4
1523055334260474,1,11,3,6,1,2,1,1
1523055334275514,-13,-29,-14,0,-2,-3,1,-8
1523055334275514,4,26,8,-5,6,-1,-10,-6
1523055334284538,-2,20,4,-8,0,-1,6,12
1523055334284538,-4,-48,-10,10,-3,-4,-2,0
1523055334307654,2,10,1,-5,1,5,2,4
1523055334307654,0,22,4,3,-6,0,3,-4
1523055334310106,4,-11,-4,-5,-3,-4,-2,-7
1523055334310106,-1,19,-1,1,0,-1,-1,-2
1523055334329658,-7,-11,1,2,1,-2,-2,4
1523055334329658,8,3,-1,-1,-2,2,-2,3
1523055334331163,-1,26,8,1,-1,-1,14,2
1523055334331163,-3,-28,-11,-6,0,-4,-19,-12
1523055334351215,3,8,1,1,-1,1,1,17
1523055334351215,-2,-7,-2,2,1,-2,-4,-6
1523055334359238,-19,1,1,-2,5,2,4,-3
1523055334359238,-2,-13,-8,-1,-1,1,5,-3
1523055334360241,-3,6,0,1,-4,-5,-7,-9
1523055334360241,20,21,5,1,-1,0,3,28
1523055334361243,-12,-33,-9,-1,0,0,-12,-19
1523055334361243,6,15,3,-7,-7,-1,2,1
1523055334366757,-15,-8,-5,1,2,0,-2,-1
1523055334366757,5,6,3,1,-2,-5,-1,4
1523055334368797,-1,-6,-4,-2,1,0,0,-6
1523055334368797,2,6,2,1,-3,-3,-8,-5
1523055334373274,3,24,2,0,4,2,6,7
1523055334373274,-16,-65,-14,-6,-5,-5,0,-9
1523055334380794,10,14,0,-2,-6,-1,-3,5
1523055334380794,-10,4,-1,0,0,-1,0,1
1523055334395835,1,-25,-10,-4,-2,-2,-3,-8
1523055334395835,1,34,7,2,3,1,-3,-4
1523055334403892,-5,-5,-2,-5,-5,-1,-1,1
1523055334403892,1,-10,-5,3,-1,1,9,3
1523055334418897,1,2,5,4,-2,-2,-7,-3
1523055334418897,0,7,1,-8,-2,2,1,2
1523055334419399,2,1,-3,5,4,1,-3,-4
1523055334419399,-7,10,6,-11,-7,1,-2,-2
1523055334432987,13,-8,-9,1,10,-1,20,11
1523055334432987,-1,0,4,42,15,-1,-22,-6
1523055334440453,0,15,1,-53,-36,-8,-2,-4
1523055334440453,-9,-23,-9,-7,11,1,0,-3
1523055334455548,-9,-4,3,13,2,5,4,-9
1523055334455548,34,20,0,3,-24,-7,4,2
1523055334464017,-5,-2,-6,55,45,7,-6,1
1523055334464017,9,11,10,-30,-26,-5,1,8
1523055334478555,-3,-25,-9,-17,0,-1,-7,-7
1523055334478555,-3,21,8,13,22,5,3,-1
1523055334479559,-2,16,9,-8,-39,-9,-3,0
1523055334479559,-7,-11,-5,8,16,2,19,2
1523055334493094,1,12,3,4,1,-8,-33,10
1523055334493094,2,16,2,-16,-4,1,-7,-3
1523055334500670,-6,-29,-6,-5,7,2,4,-8
1523055334500670,-5,11,0,15,2,1,3,-10
1523055334515654,0,8,1,-4,-11,-1,4,6
1523055334515654,-20,-44,-11,-13,-7,-2,3,-5
1523055334523730,11,4,0,1,7,-1,-3,-1
1523055334523730,9,33,8,6,-3,-2,-3,0
1523055334538714,-15,-68,-16,-2,-1,-4,-2,-9
1523055334538714,2,21,1,-13,-9,-2,3,-1
1523055334539717,-2,-14,1,-3,15,3,3,3
1523055334539717,1,16,2,-5,-27,-4,-7,-6
1523055334553253,8,14,2,9,7,-1,9,-5
1523055334553253,-11,-5,-2,-2,2,0,-7,7
1523055334560775,-2,-28,-10,-7,2,-1,0,-4
1523055334560775,-17,-6,2,-11,2,0,-2,9
1523055334575813,-9,19,4,0,-1,2,6,-15
1523055334575813,-3,-26,-6,-1,-3,0,14,2
1523055334583834,0,23,3,-3,-2,-3,-17,-5
1523055334583834,8,-19,-9,17,10,-1,0,2
1523055334598875,-1,6,4,-2,-6,1,3,-1
1523055334598875,-11,3,-2,-8,-1,0,-2,-6
1523055334599376,-1,-9,-3,-34,-9,1,9,4
1523055334599376,5,0,6,38,5,-4,-4,-6
1523055334612968,1,17,0,-21,-2,-5,-10,-8
1523055334612968,6,-7,-3,14,4,3,12,22
1523055334620937,0,3,-5,-8,-9,-1,3,-2
1523055334620937,5,-2,-3,-14,7,1,-9,-5
1523055334635472,2,-2,3,-21,-26,-5,-4,0
1523055334635472,-2,4,0,-2,4,-2,-9,-15
1523055334643994,1,5,0,15,1,-3,1,-2
1523055334643994,5,11,0,-14,13,5,0,17
1523055334658533,15,7,1,17,4,1,1,4
1523055334658533,-1,-14,-5,-23,-33,-6,-1,-6
1523055334659536,-1,-20,-6,12,1,-2,-1,-5
1523055334659536,1,2,-2,-22,-5,0,-3,3
1523055334673128,4,-10,-5,5,9,1,17,4
1523055334673128,-1,-2,3,-2,0,-4,-19,-7
1523055334680592,6,22,1,14,4,1,2,2
1523055334680592,0,20,9,6,2,-1,3,-5
1523055334695632,-13,-34,-6,-2,-4,-1,4,-1
1523055334695632,1,-10,-5,3,6,3,1,-1
1523055334703655,-1,1,3,-1,-3,-2,-5,2
1523055334703655,2,2,0,1,-2,-2,0,1
1523055334718695,-7,24,3,2,4,-1,-10,0
1523055334718695,4,-28,-7,-8,4,-1,5,-8
1523055334719698,-5,-1,-3,-14,-11,-3,-5,0
1523055334719698,2,-8,-1,14,-1,-3,1,0
1523055334756796,-3,7,2,-5,2,0,-5,-1
1523055334756796,2,18,2,8,-3,0,0,0
1523055334758800,0,-12,-1,19,13,1,1,1
1523055334758800,1,2,3,-12,-21,-2,-3,-3
1523055334763814,-3,-15,-5,6,3,1,-1,1
1523055334763814,-9,-5,-2,-6,2,1,1,-6
1523055334764816,17,14,5,1,1,0,1,8
1523055334764816,-8,-14,-6,0,2,-1,-5,-6
1523055334778891,0,11,2,2,1,0,-5,0
1523055334778891,0,8,3,-2,-4,1,3,7
1523055334779356,-8,-20,-3,2,-1,1,0,-6
1523055334779356,7,-4,-1,4,6,-1,-3,-2
1523055334792890,-1,5,2,-3,-8,-2,11,8
1523055334792890,-10,1,2,5,6,0,-12,-10
1523055334800914,-6,4,1,-7,-5,-5,-1,-3
1523055334800914,-7,10,-3,-1,1,2,0,2
1523055334815451,9,-35,-9,1,-2,-1,-5,-3
1523055334815451,1,26,3,-4,2,-1,6,-2
1523055334824016,-9,-13,0,3,-2,-1,0,3
1523055334824016,0,-3,-3,-3,-3,0,-3,-1
1523055334839013,0,9,5,2,-1,-1,16,0
1523055334839013,0,-4,-2,2,4,0,-25,-6
1523055334839516,-4,5,-1,-7,-5,-4,-9,-7
1523055334839516,-5,-31,-8,2,3,-1,-1,-2
1523055334853087,-2,7,1,-3,2,2,0,2
1523055334853087,5,-11,-4,-2,-6,-2,8,5
1523055334860572,1,15,1,0,-2,0,2,3
1523055334860572,-7,-36,-8,-1,2,2,4,-3
1523055334875611,-1,8,-2,-2,-2,-3,-14,0
1523055334875611,-4,-8,1,1,1,1,3,-11
1523055334883632,-3,21,2,0,1,0,-5,-8
1523055334883632,13,-13,-7,-1,-3,-3,9,18
1523055334898727,6,3,-1,-2,-5,-5,-21,-14
1523055334898727,0,-1,-2,-3,-3,-4,7,-3
1523055334899732,-4,4,-1,-1,-2,-2,0,17
1523055334899732,-4,-10,-3,0,-1,0,-2,-11
1523055334913211,-5,6,2,0,3,2,22,2
1523055334913211,1,-5,1,0,-1,-4,-24,-5
1523055334920731,1,-5,-3,-1,-3,0,3,-6
1523055334920731,-2,25,3,-10,0,-2,-3,-1
1523055334935805,4,5,2,12,-1,0,1,-1
1523055334935805,-10,-18,-10,-25,-11,-2,9,5
1523055334943342,1,-13,-6,-20,24,7,0,0
1523055334943342,1,10,16,6,-66,-14,-3,-6
1523055334958833,-8,-5,-12,8,35,2,-8,-2
1523055334958833,6,29,11,32,11,4,7,3
1523055334959334,5,-28,-6,-30,-47,-9,-6,-10
1523055334959334,-9,-8,-13,0,16,3,11,-3
1523055334972871,-1,4,1,-27,-7,-2,-17,16
1523055334972871,2,0,0,9,-15,-4,12,1
1523055334980391,-9,26,7,10,20,2,-32,-16
1523055334980391,-3,-30,-9,-6,11,2,-1,-4
1523055334995430,-12,-11,-2,12,-10,-1,6,-10
1523055334995430,3,21,4,-9,10,2,-5,8
1523055335004009,-4,-39,-7,9,-4,-2,12,2
1523055335004009,-3,23,3,-8,-1,-1,-4,-2
1523055335017992,-4,-4,0,1,1,-1,-9,0
1523055335017992,1,-2,-2,0,1,2,4,-5
1523055335026512,2,26,8,-3,-16,-5,10,0
1523055335026512,-3,-2,-5,9,22,3,-13,-10
1523055335033087,11,-38,-11,-6,-7,-1,15,28
1523055335033087,-7,9,7,3,-6,-2,-13,-9
1523055335040549,-7,-6,-5,2,8,0,3,4
1523055335040549,22,13,9,4,10,-1,0,-1
1523055335055590,2,6,6,-14,-16,-2,-1,-7
1523055335055590,-11,-33,-13,-24,-13,-4,3,-1
1523055335063645,2,-13,-5,19,11,2,14,6
1523055335063645,-2,16,4,4,4,-2,-27,1
1523055335078199,-2,9,3,2,-4,0,-4,-4
1523055335078199,9,2,-5,1,8,1,8,-1
1523055335086220,10,3,0,-16,-5,-1,-3,2
1523055335086220,-5,-5,-2,20,1,1,10,16
1523055335093239,8,16,5,4,-7,-3,-6,-12
1523055335093239,-3,8,2,-4,2,-1,-4,2
1523055335100759,-10,-13,-6,-1,2,1,2,-19
1523055335100759,1,-9,-8,-15,-6,-3,2,15
1523055335115799,-7,-14,3,18,6,2,-4,4
1523055335115799,13,23,5,15,9,3,0,-7
1523055335123821,5,23,3,-17,-7,-1,23,0
1523055335123821,-12,3,3,14,-2,-8,-49,-16
1523055335137858,10,0,-1,-19,-2,-3,4,-2
1523055335137858,-2,12,2,-1,-3,0,4,2
1523055335146380,-11,-41,-11,9,14,1,3,5
1523055335146380,0,1,0,-7,6,3,11,6
1523055335161421,-17,11,2,-13,-24,-6,-13,-17
1523055335161421,16,14,3,8,3,-2,-6,9
1523055335161922,1,6,-4,-2,-2,-1,-11,8
1523055335161922,-11,-20,-7,-20,-6,0,11,-14
1523055335175458,-5,-2,-2,2,7,2,-5,-5
1523055335175458,-9,-9,-3,14,15,0,0,10
1523055335183980,-3,4,9,-9,-40,-6,-6,-3
1523055335183980,9,27,6,4,8,2,5,-4
1523055335198018,1,-5,-4,5,5,1,1,-1
1523055335198018,-11,-17,-7,-16,-11,-3,-2,-5
1523055335206540,-20,3,1,24,14,1,22,-7
1523055335206540,3,-5,-2,-3,-8,-7,-41,3
1523055335221128,12,14,0,-16,-11,-3,5,6
1523055335221128,-9,-19,-6,-12,0,0,5,-8
1523055335222132,-3,-1,-1,16,7,2,-11,-1
1523055335222132,-8,2,-11,0,2,4,21,-7
1523055335235724,-10,-28,-5,-5,1,-2,-3,4
1523055335235724,8,5,26,-4,-1,2,-4,-1
1523055335243241,9,24,-2,6,-7,0,-3,3
1523055335243241,0,-4,-1,-1,5,1,10,-3
1523055335258231,-4,-8,-11,-2,2,-1,-4,7
1523055335258231,12,-16,-13,-4,-3,-2,3,-3
1523055335266302,-9,4,10,-1,3,-1,-11,-14
1523055335266302,-36,-21,-4,-10,-3,1,11,11
1523055335281289,-4,7,2,7,3,1,-1,-4
1523055335281289,12,-2,-2,-2,-8,-3,0,0
1523055335282292,0,-3,-2,-2,9,2,-6,-1
1523055335282292,13,-11,-6,-2,-6,-2,4,3
1523055335295826,6,11,3,-6,-1,-1,3,-5
1523055335295826,-21,-15,-2,3,1,0,-1,-3
1523055335303908,3,9,-6,-6,-1,0,-2,5
1523055335303908,17,14,5,-2,-5,-1,-9,-5
1523055335317885,-9,8,4,10,3,0,18,-3
1523055335317885,-4,-12,-13,-4,-1,-5,-13,-3
1523055335326409,8,11,3,0,1,2,4,13
1523055335326409,1,-12,5,1,0,3,11,-4
1523055335341448,7,0,-5,-2,3,0,-3,2
1523055335341448,-4,9,-1,-1,-4,-1,4,-7
1523055335341951,15,-14,-5,-6,-1,-4,-10,18
1523055335341951,-15,3,2,-4,-3,-8,0,-14
1523055335370580,0,-7,-6,1,-2,1,-11,-12
1523055335370580,-12,-1,4,2,-2,-4,-5,-8
1523055335379549,2,-10,-4,-2,-3,-5,-12,-2
1523055335379549,4,3,3,-1,0,0,10,4
1523055335402109,3,5,-2,3,-1,1,4,9
1523055335402109,3,-2,-4,-2,-2,-1,-6,5
1523055335403616,2,17,3,-2,1,0,5,-7
1523055335403616,5,3,-5,-5,-1,1,0,3
1523055335409629,-11,-30,-5,-7,-3,-5,-7,-10
1523055335409629,2,18,2,0,0,1,3,6
1523055335411135,-9,-1,0,-2,-1,-2,-7,-6
1523055335411135,-3,3,2,3,3,5,16,1
1523055335415700,3,20,4,-6,-8,-5,-19,0
1523055335415700,-7,-24,-9,-4,5,2,7,-8
1523055335423727,2,-2,-1,3,-7,-2,7,-3
1523055335423727,-1,-5,-3,-15,-11,-6,-25,1
1523055335438205,-2,12,-1,20,18,5,13,-6
1523055335438205,4,3,6,-3,-8,0,2,17
1523055335446227,-6,-14,-9,0,-11,-5,-6,-11
1523055335446227,2,5,6,6,1,1,11,-9
1523055335461268,-8,-10,2,3,-13,-3,-5,8
1523055335461268,5,-1,-5,3,16,0,-4,-1
1523055335462271,-6,-6,0,26,19,5,-1,2
1523055335462271,-7,-11,0,-11,-20,-7,22,0
1523055335475805,14,1,-5,5,6,-4,-39,-4
1523055335475805,3,12,4,-7,-2,1,4,0
1523055335483827,1,-1,-3,3,14,2,2,4
1523055335483827,-4,-15,-4,5,7,-1,0,1
1523055335498366,-9,3,-4,-15,-6,-2,6,-5
1523055335498366,5,2,-7,1,-4,0,5,-4
1523055335506388,-6,5,21,-12,-7,-3,-12,5
1523055335506388,10,7,0,7,4,1,-6,4
1523055335521428,-2,-14,-1,-12,-5,-1,7,-1
1523055335521428,-4,17,4,3,-3,1,-4,-2
1523055335522560,-20,-26,-19,-5,-4,-1,1,-12
1523055335522560,6,-7,-3,0,-2,-4,29,5
1523055335535690,10,26,7,0,10,-1,-43,19
1523055335535690,-3,-14,-8,-2,-9,-3,6,-6
1523055335542984,4,-3,1,-8,-6,-3,2,1
1523055335542984,-7,20,2,4,9,1,6,-5
1523055335558527,-14,-49,-15,-11,-10,-2,15,-7
1523055335558527,-3,13,1,7,7,0,-4,2
1523055335566288,14,12,1,-12,-4,-1,-3,2
1523055335566288,7,-9,-2,-1,2,-2,-19,-13
1523055335581599,-5,9,2,0,7,1,16,12
1523055335581599,-5,-11,-4,-5,-19,-5,-10,0
1523055335582089,-3,-2,4,-7,-7,-3,0,-9
1523055335582089,6,1,-5,3,3,-2,-8,6
1523055335595881,1,16,5,2,-2,1,4,-7
1523055335595881,-7,-4,-4,5,17,3,4,-2
1523055335603897,4,-8,-3,7,-20,-2,24,1
1523055335603897,-2,19,4,-16,-2,-2,-27,5
1523055335617995,-3,5,-1,-8,-8,-2,4,-4
1523055335617995,-5,-30,-12,10,5,-3,-18,-4
1523055335626554,13,16,1,5,1,2,6,-1
1523055335626554,-7,-4,-2,2,0,0,-6,-3
1523055335641405,5,5,4,-4,-1,2,12,-7
1523055335641405,4,1,-1,23,5,0,13,12
1523055335642059,-7,-6,0,1,3,-1,-10,9
1523055335642059,3,4,4,-32,-17,-2,3,-11
1523055335655772,1,-7,-5,-3,-1,-2,-1,2
1523055335655772,-10,-1,4,3,-6,-6,-6,-12
1523055335664117,-3,2,-2,-14,6,-1,-3,0
1523055335664117,-4,0,2,17,-1,2,1,2
1523055335677946,-4,-21,-6,-2,3,2,7,-14
1523055335677946,14,20,6,2,0,-2,-2,16
1523055335686842,-1,3,-8,-22,14,-1,-1,-4
1523055335686842,-4,-1,-2,-16,-30,-6,-6,-5
1523055335701499,2,1,7,22,3,0,7,0
1523055335701499,-4,4,-1,-19,-2,1,3,-5
1523055335702002,0,6,2,32,11,3,-9,-2
1523055335702002,-3,-4,-7,-8,7,0,6,4
1523055335715592,-5,-7,0,0,-7,-8,-13,-12
1523055335715592,-18,2,3,-4,2,0,1,3
1523055335723558,3,-14,0,-13,-8,-3,-4,7
1523055335723558,-9,-8,-6,-6,-3,2,3,-5
1523055335753640,14,5,2,16,8,1,-1,3
1523055335753640,-10,10,2,-8,-5,-2,-6,-8
1523055335760657,2,-12,-8,12,-6,-2,2,1
1523055335760657,-5,-24,-4,4,3,-1,10,6
1523055335775698,3,21,7,-20,-12,-4,-23,-8
1523055335775698,9,-7,-3,9,2,-2,1,-4
1523055335784723,-6,-9,-8,-13,-3,0,5,6
1523055335784723,0,8,3,24,18,2,-10,3
1523055335807782,2,6,2,-12,-7,0,19,6
1523055335807782,2,3,3,-12,-10,1,0,-7
1523055335809286,-9,-13,1,3,-1,-4,-17,-5
1523055335809286,-3,9,1,2,4,-1,0,-3
1523055335829340,-4,-5,0,-5,2,-1,-6,-3
1523055335829340,-15,-9,-7,-11,-7,-2,14,4
1523055335830845,3,2,0,-2,-1,1,-7,3
1523055335830845,2,29,2,3,1,-5,-7,-6
1523055335851398,-5,-15,-4,2,-4,0,6,-1
1523055335851398,0,-13,-3,-4,-1,-1,-7,-1
1523055335857916,-3,3,-3,0,1,2,8,-8
1523055335857916,4,1,0,2,-1,-2,-5,-3
1523055335872994,-8,-19,-1,4,1,-2,3,14
