timestamp,emg1,emg2,emg3,emg4,emg5,emg6,emg7,emg8
1523067035878074,-4,-6,1,-2,-6,-6,-3,-3
1523067035878074,-2,-4,-12,-1,-2,-1,3,2
1523067035879056,0,-1,-3,0,-4,-1,-4,-4
1523067035879056,-1,2,-1,1,3,2,0,-1
1523067035879553,-1,1,6,-1,-1,0,1,-1
1523067035879553,-1,0,1,-3,-6,0,-3,0
1523067035880559,0,-1,1,-1,-5,-4,-2,2
1523067035880559,-2,-6,-11,0,-1,-2,-1,3
1523067035885570,0,-1,-3,0,12,10,4,-1
1523067035885570,0,0,3,-28,-13,-3,-1,1
1523067035891087,-3,-3,-5,-9,-5,1,-1,-2
1523067035891087,1,-3,-1,11,1,-6,-4,-2
1523067035899608,-2,-3,-25,8,-5,-3,-4,-1
1523067035899608,1,2,9,-44,-2,0,-1,-2
1523067035914652,1,4,8,-8,-7,-4,4,0
1523067035914652,-3,-9,-11,7,-2,-2,-8,-4
1523067035922172,0,0,2,8,0,-3,-3,-1
1523067035922172,-2,-4,-7,20,10,3,0,-4
1523067035946238,-1,-2,-6,3,5,1,2,1
1523067035946238,0,1,6,-5,-1,-1,2,-3
1523067035946737,0,0,2,0,-2,0,-1,0
1523067035946737,0,-1,-1,3,-4,-4,-4,-2
1523067035983829,-1,-3,-1,-2,-4,-3,-2,-1
1523067035983829,0,-1,-3,-1,0,-10,-2,-1
1523067035984331,0,2,19,3,-1,13,0,0
1523067035984331,-2,-2,-16,-12,-6,-4,0,1
1523067035985336,0,-1,4,3,10,5,-2,0
1523067035985336,-2,0,-5,-1,-4,-1,10,-1
1523067035988344,-1,-4,-10,0,2,-5,-12,-3
1523067035988344,4,0,18,5,-5,-8,32,0
1523067035996865,25,2,-26,2,-1,6,1,6
1523067035996865,7,-1,13,-8,-6,-3,-5,-15
1523067036004891,-1,-5,-22,-2,1,1,3,-2
1523067036004891,-2,7,26,3,2,1,-12,-3
1523067036010928,1,-6,-25,2,-6,-8,-3,-1
1523067036010928,7,-2,-3,1,4,7,7,6
1523067036027449,1,-3,3,-4,-4,-5,-3,25
1523067036027449,0,0,3,0,0,1,-12,-25
1523067036033469,-5,-1,9,1,-1,-1,-1,-3
1523067036033469,-5,-1,-1,1,-3,1,-7,2
1523067036056531,-8,0,5,-7,-2,-4,-6,4
1523067036056531,1,-3,-28,0,1,-3,2,8
1523067036057525,-14,4,33,-7,-4,-15,-25,-9
1523067036057525,-13,-5,-33,-23,-4,-6,32,-22
1523067036071572,23,-3,0,-3,0,-4,-85,23
1523067036071572,-23,5,22,29,2,9,103,-9
1523067036072565,-18,-16,-11,2,-4,-1,27,-8
1523067036072565,2,29,50,-28,-5,-11,-24,3
1523067036094171,2,3,-4,24,8,17,73,19
1523067036094171,29,-6,-54,-14,-7,-9,0,3
1523067036095126,-64,-15,-3,-4,-2,-4,-36,-37
1523067036095126,15,9,6,6,2,6,-32,3
1523067036116728,-3,-1,-2,-6,-3,-4,15,-33
1523067036116728,-5,-7,15,0,1,-3,-67,9
1523067036117190,11,0,4,-8,-6,-2,38,-4
1523067036117190,-3,-7,-19,6,1,4,-18,0
1523067036131737,-9,9,16,5,6,0,-4,-11
1523067036131737,6,-1,-11,2,7,10,-30,1
1523067036132230,9,6,12,-6,-2,-3,21,6
1523067036132230,-7,-7,-15,4,-5,12,6,11
1523067036154285,11,2,13,1,-5,-2,-17,1
1523067036154285,-12,-8,2,-10,7,-7,-33,-16
1523067036154785,10,0,-15,-4,-3,3,-7,7
1523067036154785,-4,-3,8,11,2,-1,15,3
1523067036176844,-6,-3,-6,-6,-7,-11,26,-5
1523067036176844,-2,0,0,-7,-2,3,7,2
1523067036177351,6,1,6,2,4,-4,-28,2
1523067036177351,3,-7,-7,7,1,0,-4,6
1523067036191427,-8,-3,-9,-7,-4,0,24,-10
1523067036191427,-3,-8,-3,-6,-6,-3,0,4
1523067036192385,11,5,1,3,0,1,-21,10
1523067036192385,-3,-4,-3,5,2,2,27,-3
1523067036213990,-4,-8,2,-4,1,-5,-30,-7
1523067036213990,-1,3,8,-2,-4,2,21,2
1523067036214946,4,5,2,0,1,1,22,3
1523067036214946,-1,-10,-10,0,-2,-11,-13,-4
1523067036236502,-3,2,5,-3,-3,-1,0,-6
1523067036236502,2,2,-3,3,-1,-5,0,4
1523067036244073,1,0,6,-2,5,13,-13,0
1523067036244073,-3,3,7,1,1,0,2,-1
1523067036251543,1,-1,-11,-1,0,-1,-22,4
1523067036251543,-2,-1,-1,-6,-9,1,10,1
1523067036252544,2,2,-9,-1,-3,-6,2,3
1523067036252544,-4,0,1,1,1,-5,-15,0
1523067036274153,-1,-2,0,-3,0,3,3,1
1523067036274153,-3,-1,-3,-1,1,-5,-5,-18
1523067036275104,2,2,5,-1,-5,0,-15,7
1523067036275104,-1,-6,-1,2,11,2,10,-8
1523067036296709,-3,-3,-9,-4,-3,-6,-4,4
1523067036296709,1,1,3,-3,-2,-2,-3,7
1523067036297166,2,1,-2,2,-3,1,7,1
1523067036297166,0,-2,-3,1,4,2,-6,-1
1523067036311751,-3,-1,-6,-2,-2,-2,3,-4
1523067036311751,-1,0,6,-1,-2,7,-8,3
1523067036312204,0,-2,-9,-2,-3,-2,3,-4
1523067036312204,-2,0,7,-1,-6,-5,-6,1
1523067036334271,-1,-2,-4,-2,-2,-6,5,-6
1523067036334271,1,-1,-1,0,-2,-3,-8,-3
1523067036334764,2,4,3,1,4,4,0,3
1523067036334764,2,-2,3,0,-2,-1,3,5
1523067036356361,-4,-6,-14,-1,2,2,1,-13
1523067036356361,-3,8,22,-3,-6,-5,-12,-3
1523067036357323,3,4,19,4,3,-1,3,4
1523067036357323,-8,-19,-18,-3,-4,-3,-4,-4
1523067036371862,1,4,5,2,-5,1,3,2
1523067036371862,2,-3,-12,-1,-6,-8,-8,3
1523067036372363,0,2,7,-2,9,5,3,-3
1523067036372363,-1,4,2,-1,-3,-1,3,1
1523067036394067,-2,-5,-5,-1,0,0,-1,-1
1523067036394067,-2,1,6,-1,0,-4,-5,-1
1523067036395029,-1,-6,-11,1,-1,-3,-1,-1
1523067036395029,1,2,-1,-2,-3,0,-2,-1
1523067036424764,-2,-1,2,-3,-3,-5,1,-1
1523067036424764,3,3,-6,0,1,-2,-3,0
1523067036425721,-2,-1,-8,1,-6,-2,2,1
1523067036425721,0,-4,-6,5,2,2,0,-4
1523067036431763,5,12,6,0,6,1,4,1
1523067036431763,-6,-11,-8,-3,-3,-1,-2,2
1523067036432239,0,-6,-8,-5,-5,-6,-12,-2
1523067036432239,-2,5,10,-1,-7,-8,6,-1
1523067036453797,8,21,38,7,8,7,19,3
1523067036453797,-8,-25,-60,-7,-1,1,-18,-13
1523067036454799,-2,2,31,-1,0,-4,-3,-2
1523067036454799,0,3,23,-2,-3,-3,-5,-3
1523067036476463,-3,-14,-49,0,-4,-1,-3,-3
1523067036476463,2,4,15,7,6,5,5,2
1523067036477429,0,0,-13,-6,-1,0,-9,0
1523067036477429,-5,-7,-2,-10,-8,-3,11,-2
1523067036491466,-1,-4,12,-1,-3,-1,-5,-4
1523067036491466,0,0,2,3,2,1,-16,5
1523067036492468,3,-18,-51,4,4,-2,-38,0
1523067036492468,-7,27,73,0,0,7,11,2
1523067036514061,-7,-7,-17,-3,-1,-1,-6,-1
1523067036514061,5,-2,2,-4,-3,-4,9,18
1523067036515026,3,11,3,-2,-5,-4,3,12
1523067036515026,1,-5,-24,5,6,6,30,-93
1523067036536589,-13,-11,-1,-19,-6,-12,-44,-2
1523067036536589,-4,3,17,23,6,6,-29,3
1523067036537592,-5,-3,11,-34,-8,1,36,-3
1523067036537592,63,6,-27,-5,-9,-17,22,51
1523067036551128,-62,-1,14,23,2,22,68,-25
1523067036551128,-26,2,-20,-29,0,-8,-34,-27
1523067036558683,-5,8,25,27,4,23,112,2
1523067036558683,32,-16,-43,-24,1,-7,-53,13
1523067036574252,22,10,6,-12,-8,-5,-11,18
1523067036574252,5,1,9,11,-2,1,37,-11
1523067036574686,-5,12,-14,-4,-4,-11,-55,-1
1523067036574686,-28,-23,12,5,-1,-4,-13,3
1523067036596789,-2,-13,-8,1,5,6,-16,-5
1523067036596789,14,0,21,2,7,21,32,-6
1523067036597245,26,8,0,-6,-10,-46,-102,-8
1523067036597245,-26,0,-16,4,6,50,84,34
1523067036610825,-7,6,-18,-13,-3,-12,-82,-46
1523067036610825,18,-8,1,4,-3,1,42,37
1523067036618307,-3,-28,45,3,8,13,42,-12
1523067036618307,-75,12,-62,5,2,-9,-95,-38
1523067036633887,-15,34,40,-1,-5,-7,10,-3
1523067036633887,-15,3,-9,-6,-1,4,50,-28
1523067036634846,27,0,11,8,2,16,85,49
1523067036634846,7,-19,2,-8,-7,-17,-4,7
1523067036656440,-25,-5,-2,3,1,-8,-25,3
1523067036656440,-3,6,1,-7,-7,-13,-49,47
1523067036657406,-16,-1,-27,-2,-2,0,-17,-24
1523067036657406,16,10,17,7,-2,-19,-30,-70
1523067036670944,22,-12,-10,-4,9,1,-36,91
1523067036670944,-3,7,5,16,8,13,64,-59
1523067036678499,0,-8,-8,-12,-6,-5,-49,2
1523067036678499,9,-8,0,-7,-14,-13,-32,5
1523067036694052,7,-6,5,-6,-9,-8,14,-13
1523067036694052,-1,-14,-15,-4,0,-9,-27,39
1523067036695006,4,16,9,11,5,7,16,-1
1523067036695006,-18,0,-15,-18,-3,-2,9,-1
1523067036716566,20,5,37,21,3,6,19,9
1523067036716566,6,3,-5,-7,-5,-3,-3,13
1523067036717566,-1,-4,-21,5,3,-4,-9,-32
1523067036717566,-30,-5,8,6,3,3,-5,22
1523067036731103,18,-3,-17,-4,-6,-1,17,0
1523067036731103,0,4,40,-1,0,-4,-23,-21
1523067036738621,61,-4,-24,-4,-4,-9,-16,7
1523067036738621,-32,2,3,4,1,13,4,5
1523067036755668,3,-2,-4,-1,0,0,28,-13
1523067036755668,4,-4,-6,-9,-5,-4,-19,0
1523067036756169,12,0,-4,3,-5,-14,-65,-1
1523067036756169,39,6,12,2,1,1,28,46
1523067036776728,-64,-3,-6,-3,-1,-2,17,-70
1523067036776728,-3,-4,-10,-2,-2,-3,-25,2
1523067036777224,2,-2,-2,0,-3,4,6,32
1523067036777224,9,0,5,3,4,0,-1,-5
1523067036790760,14,-2,-8,-3,-6,1,4,26
1523067036790760,3,7,3,0,-9,-13,-20,-27
1523067036798279,-47,-5,-22,-8,3,5,14,-2
1523067036798279,4,0,8,1,-2,-4,-6,-1
1523067036813820,21,-3,-9,-2,-1,-1,5,3
1523067036813820,0,3,-6,-1,-1,1,4,-3
1523067036814823,-13,-9,5,1,-1,1,1,-13
1523067036814823,8,10,47,-2,-2,-2,11,1
1523067036836384,16,-15,-53,-1,2,0,-5,7
1523067036836384,-3,-1,-2,1,2,3,5,7
1523067036837384,-18,1,6,-1,-5,1,7,-12
1523067036837384,10,0,-6,1,1,-2,-18,1
1523067036850926,2,-1,24,0,-4,-2,6,-1
1523067036850926,-8,-3,-35,-2,0,1,12,-3
1523067036858442,-5,2,5,-2,0,0,2,-3
1523067036858442,16,3,3,3,1,2,4,12
1523067036873985,-20,-6,-7,-1,0,8,5,-10
1523067036873985,8,1,12,-3,1,-3,-5,0
1523067036874985,-4,-2,-1,-1,-1,-3,-13,12
1523067036874985,0,-4,-14,-1,-4,-3,12,-3
1523067036896545,9,1,3,1,-3,2,-1,0
1523067036896545,1,-3,7,-3,5,2,6,3
1523067036897548,-10,-1,2,0,-1,-3,9,-9
1523067036897548,0,-4,-5,0,0,-5,-11,-6
1523067036919107,8,-2,-4,-1,-2,-5,1,8
1523067036919107,-4,-4,0,-4,-3,7,6,-6
1523067036920106,-1,3,-2,-2,-1,1,2,-3
1523067036920106,2,-3,-17,-1,-1,2,9,-6
1523067036934143,27,6,17,0,-1,-3,3,39
1523067036934143,-63,-13,-8,-2,-3,-9,-24,-62
1523067036934645,-10,-5,-3,-3,-1,-3,-1,3
1523067036934645,1,-1,-6,-1,-2,0,1,-15
1523067036956702,-1,-1,-3,1,4,-1,-18,-4
1523067036956702,18,3,0,-2,-3,-14,-4,25
1523067036957204,2,-4,-2,-1,-5,16,0,-11
1523067036957204,-9,1,-1,3,15,3,0,-1
1523067036979265,6,-1,1,-2,-4,-4,1,-2
1523067036979265,37,6,-16,0,-3,-6,-23,10
1523067036979763,-24,2,10,-2,-5,-2,4,-26
1523067036979763,6,1,-1,-6,-5,-7,-24,13
1523067037002324,-1,-5,-21,-2,-2,-8,-11,-19
1523067037002324,86,11,17,5,3,29,58,12
1523067037002825,-63,-4,6,1,4,-1,17,-1
1523067037002825,-4,-2,-5,-1,-2,4,23,4
1523067037016863,4,-3,10,-4,0,-7,-9,-25
1523067037016863,-1,0,0,-1,-3,-1,-15,14
1523067037017369,25,2,0,1,3,-2,-5,-11
1523067037017369,-2,4,-11,-2,-3,1,17,-11
1523067037038967,-22,-7,-10,-2,-4,-3,-28,8
1523067037038967,-41,-3,4,-2,-5,-18,-28,-3
1523067037039925,38,-7,27,2,2,10,23,14
1523067037039925,-25,7,23,0,1,-11,-12,8
1523067037062488,6,-3,-30,-9,-5,2,13,-6
1523067037062488,-3,10,-25,-10,-7,-23,-40,-15
1523067037062986,-8,-24,12,9,6,-3,19,-9
1523067037062986,56,16,26,1,-2,8,59,61
1523067037076067,26,2,24,7,5,7,8,1
1523067037076067,-26,-29,-53,-10,-6,-16,-76,-32
1523067037084049,-16,4,-5,-5,-5,-13,-21,16
1523067037084049,18,17,11,4,3,-2,52,22
1523067037099131,3,4,18,2,4,2,-37,7
1523067037099131,-3,-7,-10,-17,-5,-2,-43,20
1523067037100085,28,-4,-12,11,-13,-19,-20,-20
1523067037100085,-1,-17,29,-2,2,-1,-128,-12
1523067037122147,-3,19,-11,1,5,15,39,16
1523067037122147,-16,-6,41,1,-8,0,63,-4
1523067037123150,-11,2,-24,-10,4,10,-8,6
1523067037123150,-10,-3,2,-8,-9,-2,42,-26
1523067037136187,-7,-7,-28,1,-5,-17,-39,-19
1523067037136187,12,4,66,5,4,5,40,20
1523067037144249,24,11,-4,0,0,18,11,6
1523067037144249,-5,-9,-24,0,2,-5,-30,-9
1523067037159277,-12,-4,4,-8,-5,-8,29,-8
1523067037159277,-5,-6,-23,12,10,7,1,2
1523067037159744,19,19,15,-4,3,-2,-30,5
1523067037159744,-12,-11,-7,2,-4,1,25,-14
1523067037182355,1,-7,-3,-4,-6,-3,15,2
1523067037182355,-9,10,9,-6,-6,3,41,11
1523067037183313,2,-6,-5,3,0,-4,-34,1
1523067037183313,-2,4,-19,-1,1,9,27,0
1523067037195885,-9,-10,8,1,2,0,0,-2
1523067037195885,-5,-2,-6,4,2,7,22,3
1523067037204397,-8,4,-4,-6,4,-3,-4,14
1523067037204397,-7,-10,-24,-2,-8,-14,-33,-31
1523067037218905,5,7,20,-2,-4,8,3,-2
1523067037218905,0,-5,-6,9,11,19,-1,1
1523067037219904,-6,4,11,-5,-2,-4,7,-2
1523067037219904,2,-4,-9,-4,-1,2,-9,2
1523067037242468,-5,-3,11,-1,-2,-4,-1,0
1523067037242468,-5,4,-2,-1,-1,-4,-8,0
1523067037242966,-7,-6,-14,3,0,2,12,1
1523067037242966,-8,-3,1,-1,-1,-1,-11,19
1523067037255999,-7,-3,-6,-3,-8,0,14,-34
1523067037255999,1,2,10,7,9,1,-7,16
1523067037264019,5,1,-2,0,-4,0,14,-10
1523067037264019,-3,-9,-10,-3,2,-6,-33,-10
1523067037279060,-7,-7,-9,-4,-7,-2,-7,20
1523067037279060,24,7,0,1,-1,7,19,14
1523067037280062,-36,-2,0,-1,-2,2,14,-13
1523067037280062,-6,0,-1,-3,-3,4,0,-2
1523067037302121,2,2,-2,1,5,-6,-1,10
1523067037302121,-4,-3,0,-3,-7,-4,-2,-16
1523067037303124,7,0,0,-2,2,-2,-5,6
1523067037303124,0,0,3,2,-3,-5,0,-2
1523067037324923,-10,-14,-18,-2,4,5,-16,-7
1523067037324923,0,8,10,-1,-3,-5,-12,-2
1523067037325920,3,-3,-2,-1,-10,-7,35,-1
1523067037325920,-22,-3,-1,0,7,7,-18,20
1523067037339465,24,10,8,-2,-5,-4,32,-2
1523067037339465,-15,-16,-22,-3,1,-3,-28,-21
1523067037340269,-5,-3,1,-7,-3,-15,-26,3
1523067037340269,-4,-13,-11,4,3,0,20,7
1523067037362410,0,8,8,1,2,9,14,-18
1523067037362410,-5,-1,-3,-3,-6,-5,-6,7
1523067037363327,5,-1,-4,-2,2,0,-11,-5
1523067037363327,8,8,3,0,-3,-12,-10,-8
1523067037375873,-7,-5,2,-1,-3,1,-8,9
1523067037375873,4,5,-10,-3,-1,-3,4,-1
1523067037383955,-7,-6,-3,1,1,-2,-14,-23
1523067037383955,27,10,8,1,0,10,60,-1
1523067037399048,-15,-2,-7,-1,1,-7,-17,-6
1523067037399048,5,10,21,-2,-2,3,22,2
1523067037399998,1,-2,-2,0,0,1,0,15
1523067037399998,5,-7,-8,1,-2,2,-5,-5
1523067037422559,7,0,4,3,0,-3,-13,-2
1523067037422559,-9,-2,3,0,-1,-4,-5,-9
1523067037423059,3,-3,-24,-4,1,2,17,31
1523067037423059,-13,-2,19,0,-3,-6,-52,-50
1523067037444659,-1,4,0,1,3,-1,5,16
1523067037444659,-3,-7,3,-3,-4,-3,-9,1
1523067037445624,1,0,-6,0,1,4,0,1
1523067037445624,-8,-2,-4,0,-3,-2,-2,2
1523067037459159,1,6,3,-3,0,-10,11,13
1523067037459159,-2,-10,-13,-2,-1,9,-3,-30
1523067037459664,2,3,22,-1,-2,-5,-5,-11
1523067037459664,-1,-5,-10,-2,0,0,1,19
1523067037482266,-19,-6,-2,0,7,4,-12,-22
1523067037482266,1,5,-1,2,0,-6,16,18
1523067037483219,-3,-6,-3,-5,-4,-11,-12,-9
1523067037483219,1,-4,-6,-1,1,5,-28,-3
1523067037504819,-6,-5,-3,0,-2,-4,-5,12
1523067037504819,1,9,1,-6,-7,-18,-47,-4
1523067037505780,0,-12,-2,5,4,15,20,4
1523067037505780,-5,10,-7,-5,-4,-10,-23,-8
1523067037519323,14,-2,9,1,-1,4,16,1
1523067037519323,-7,4,-1,2,1,-2,-13,7
1523067037519823,1,3,6,-5,-3,6,17,-35
1523067037519823,-8,-4,-4,0,-1,4,19,11
1523067037542382,36,-3,-6,-4,-3,0,-23,-21
1523067037542382,-69,14,1,4,5,9,71,11
1523067037542884,-32,7,-2,-2,1,10,-33,8
1523067037542884,21,-4,5,4,0,-19,19,6
1523067037564959,8,17,25,-2,-1,21,81,-79
1523067037564959,6,-11,-71,-5,1,-1,-62,15
1523067037565443,44,-1,33,-2,-2,2,87,14
1523067037565443,13,-32,5,-4,-9,-24,-1,-64
1523067037579984,-55,-19,29,-2,-4,-16,-100,24
1523067037579984,8,7,4,-6,-10,-33,14,0
1523067037586997,8,-16,18,15,11,37,113,-26
1523067037586997,4,-2,-8,-7,-4,3,-64,29
1523067037602536,89,28,32,-5,-5,-7,-52,35
1523067037602536,-69,-35,-27,1,4,27,48,-25
1523067037603038,-11,-4,-41,-11,-7,-17,-128,34
1523067037603038,11,21,47,9,2,8,99,9
1523067037624094,24,-2,-52,-4,-1,-4,26,-14
1523067037624094,-43,-12,1,-5,-2,-2,-35,-29
1523067037631661,3,11,3,-2,-9,-14,-23,-6
1523067037631661,-24,-4,-9,3,8,12,-4,6
1523067037639182,-13,-3,-16,6,3,-8,-10,28
1523067037639182,39,5,14,1,-2,12,7,4
1523067037639635,0,2,-1,0,2,-10,-24,5
1523067037639635,-9,3,-11,-5,2,-5,-8,-4
1523067037661742,-26,-5,-14,-3,-8,-5,51,-1
1523067037661742,29,1,22,2,2,-2,29,14
1523067037662202,-9,0,-1,-1,3,-2,-41,-7
1523067037662202,7,6,-16,-1,-1,6,-13,8
1523067037684863,-12,-9,-5,0,1,7,21,-1
1523067037684863,18,-1,12,0,-5,4,2,4
1523067037685363,4,2,-15,-7,-6,-9,-12,-1
1523067037685363,-4,0,-5,-1,1,3,0,-4
1523067037699515,-19,-5,-2,-2,-5,0,-24,1
1523067037699515,18,1,13,2,2,-4,-9,0
1523067037700476,-4,0,-10,0,3,-4,-2,-1
1523067037700476,-9,-2,-1,-5,-4,-7,-19,-5
1523067037721569,-12,-4,4,1,1,3,28,3
1523067037721569,24,3,0,-2,-5,3,2,23
1523067037722537,-1,-1,-8,2,6,-7,15,-16
1523067037722537,-8,0,-1,4,-4,3,-17,-1
1523067037744630,-3,-4,-7,-5,1,2,8,10
1523067037744630,8,1,5,1,-8,-9,-23,-11
1523067037745600,-6,-9,-7,1,1,-3,-10,-10
1523067037745600,-9,2,-2,-1,-1,13,44,-4
1523067037759255,-5,2,5,0,5,4,-10,4
1523067037759255,5,-8,-16,-3,-3,-4,12,4
1523067037759738,14,10,17,4,-4,0,-2,23
1523067037759738,17,3,-5,-3,-2,-3,14,-50
1523067037781795,-7,-8,0,-1,-2,-2,-19,3
1523067037781795,-2,-5,-12,-5,4,12,35,-2
1523067037782301,-4,8,16,-3,-6,-7,-1,-25
1523067037782301,3,-8,-4,0,2,1,-5,24
1523067037804896,-1,-3,-14,0,0,-3,-4,-10
1523067037804896,-4,2,20,1,1,-3,-17,-31
1523067037805359,7,3,-7,-3,-4,0,14,20
1523067037805359,-3,3,1,-1,0,-4,-10,24
1523067037818896,-6,0,11,0,-5,0,8,-24
1523067037818896,3,-4,-10,1,5,0,-9,23
1523067037819899,-4,0,0,0,-1,1,7,-9
1523067037819899,-4,1,-5,-4,-6,-1,2,4
1523067037842457,0,0,-4,2,2,-1,1,18
1523067037842457,10,3,8,-3,-2,-15,-6,14
1523067037842962,-12,-5,-3,-1,-3,18,7,-24
1523067037842962,-3,-2,-4,1,2,-3,-10,2
1523067037865017,2,3,4,-1,-3,-5,-6,4
1523067037865017,3,6,10,0,-2,-4,6,-7
1523067037865522,-5,-9,-14,-3,-5,-7,-1,4
1523067037865522,27,4,3,1,7,6,7,14
1523067037879093,-5,-1,-3,-2,-1,-3,11,-23
1523067037879093,3,3,7,-3,-7,-5,-2,-3
1523067037880057,-5,-8,-10,-1,-2,-8,-8,6
1523067037880057,3,-3,-16,-3,0,3,-2,-3
1523067037901615,-3,7,16,5,-1,-4,-7,4
1523067037901615,0,-1,-4,1,-6,5,2,-5
1523067037909171,2,-7,-21,-2,7,1,-5,-1
1523067037909171,-10,-1,2,1,-2,-2,-10,8
1523067037924710,-2,-6,-13,-4,0,1,-10,7
1523067037924710,4,-2,-1,0,-1,1,10,3
1523067037925681,-12,-6,5,-4,-4,-4,5,8
1523067037925681,-10,-6,-2,-2,-2,-5,-14,-23
1523067037939218,-3,-1,-5,-2,0,-2,-9,7
1523067037939218,8,2,-3,-1,6,6,2,-5
1523067037939716,2,0,3,-1,-2,-1,10,13
1523067037939716,-6,-1,9,-3,-3,-2,9,10
1523067037961775,-1,-4,-11,0,-3,-4,-15,-28
1523067037961775,-6,-5,-2,1,5,-5,-2,13
1523067037962277,0,7,2,-1,-1,14,13,-23
1523067037962277,-1,-2,2,1,-3,-4,-13,-2
1523067037984837,10,2,-6,0,6,1,10,16
1523067037984837,-3,2,8,-2,-3,-1,13,4
1523067037985840,-2,-8,-4,-4,-3,-8,-9,-6
1523067037985840,2,4,4,1,-4,1,9,1
1523067037999375,4,1,0,0,2,1,5,5
1523067037999375,-3,-5,-8,0,3,-2,-11,-12
1523067037999877,0,2,11,-1,-2,-5,-2,4
1523067037999877,-4,-1,3,-4,-5,-2,-3,-8
1523067038022449,-6,-3,-2,0,-2,0,3,3
1523067038022449,-5,-4,-1,1,-2,1,-18,-7
1523067038022941,1,-1,0,0,-2,3,6,1
1523067038022941,-5,-3,-4,-1,-1,-5,-2,0
1523067038044996,-7,-1,1,-1,-2,0,0,-4
1523067038044996,12,10,3,-1,-1,-6,-34,-1
1523067038045501,-1,-20,0,2,3,16,65,30
1523067038045501,0,-8,5,2,1,-3,-36,-21
1523067038058567,-10,-2,-1,-3,-4,1,-20,4
1523067038058567,27,7,9,-3,-2,12,50,-6
1523067038066554,-9,-49,8,9,4,-20,-43,44
1523067038066554,-5,2,-2,9,9,30,-28,-21
1523067038081632,9,23,7,-7,-3,-11,6,-45
1523067038081632,17,7,-5,-6,-1,22,2,99
1523067038082596,35,56,-29,0,3,20,30,-4
1523067038082596,-12,-31,56,1,-9,-45,-57,-28
1523067038104700,-3,10,-17,4,5,37,56,-45
1523067038104700,-106,-20,-4,-3,-7,-24,-114,-25
1523067038105658,28,7,-54,-8,-3,-2,16,9
1523067038105658,24,16,8,-13,-13,-18,-48,27
1523067038118191,-33,0,-9,2,2,-1,83,-9
1523067038118191,11,-14,1,1,2,12,55,-32
1523067038126750,-12,2,26,0,-1,5,-42,3
1523067038126750,-27,5,-17,0,3,0,57,-39
1523067038141753,17,-14,1,0,-4,-15,-83,39
1523067038141753,3,-5,2,6,7,-1,1,-14
1523067038142258,-12,-4,13,-2,0,-4,18,-22
1523067038142258,9,10,-23,-5,1,-4,43,31
1523067038164849,15,-5,12,-2,-9,10,20,17
1523067038164849,4,1,-10,3,3,-6,-15,-16
1523067038165817,-1,7,6,-3,0,-6,-9,-9
1523067038165817,18,4,-2,-1,0,9,20,7
1523067038178388,-20,-13,-8,-3,0,-10,-27,-3
1523067038178388,10,1,-5,-4,-8,-8,0,-1
1523067038186410,-21,-4,2,-2,-3,-9,-10,-19
1523067038186410,2,0,-6,-4,-3,4,17,3
1523067038201412,5,-6,4,-2,-1,-8,-19,8
1523067038201412,1,3,-5,1,2,1,17,-5
1523067038202418,2,1,10,2,4,-2,-8,-7
1523067038202418,-10,-4,-8,-1,-1,4,-5,1
1523067038224975,5,-1,-3,-4,-2,-7,-20,9
1523067038224975,3,-1,5,-3,-10,-6,17,-8
1523067038225480,-3,2,1,0,-3,-6,-5,-9
1523067038225480,-3,-3,-6,5,10,24,13,10
1523067038238559,-4,-5,-1,2,9,-1,-4,2
1523067038238559,9,0,-2,-4,-2,-5,6,18
1523067038246581,-8,-2,3,-1,-3,-11,-12,-54
1523067038246581,-4,-5,-8,-6,-10,-8,-4,13
1523067038262575,2,1,6,0,-1,-3,14,-21
1523067038262575,-1,-1,2,-1,-4,-2,-17,8
1523067038270096,2,-1,-7,-3,-5,5,28,14
1523067038270096,-3,-4,-8,0,3,-4,4,-3
1523067038284635,0,0,2,2,-1,12,24,12
1523067038284635,1,-2,-3,-1,3,0,5,-4
1523067038285640,-3,0,7,-2,-4,-1,-15,0
1523067038285640,-1,-1,-15,-1,1,-1,16,-7
1523067038298670,3,-1,12,-5,-8,-11,-9,10
1523067038298670,-4,-1,-7,-1,0,1,1,-13
1523067038306692,3,3,3,1,-2,-7,-10,0
1523067038306692,0,3,-1,-3,-4,6,-9,1
1523067038322374,-19,-2,-3,0,0,-4,-4,6
1523067038322374,1,0,2,0,0,1,-2,-7
1523067038323236,-2,-3,-8,-2,-3,-6,-14,9
1523067038323236,11,6,34,-2,3,-2,6,4
1523067038344921,-15,-5,-8,2,3,5,-8,-1
1523067038344921,3,-5,-1,-2,-1,0,12,26
1523067038345837,-5,8,-6,-2,-7,-5,-8,-22
1523067038345837,-1,-7,-7,1,-1,-2,-33,-4
1523067038367355,8,2,5,2,4,5,4,-2
1523067038367355,1,-2,3,0,-5,-6,-7,25
1523067038368356,1,-7,-6,0,5,3,5,-13
1523067038368356,-2,3,2,-2,-4,-1,12,16
1523067038382068,13,-5,-5,-3,-4,-10,-18,-4
1523067038382068,-33,-1,-13,1,1,-6,-29,-10
1523067038382937,31,3,14,-2,-5,7,19,0
1523067038382937,-8,-11,-25,-3,4,7,15,-6
1523067038405015,-1,0,-1,-2,-3,-9,-46,-12
1523067038405015,10,-1,-4,1,3,6,32,6
1523067038405496,-4,1,18,0,1,-2,-16,-14
1523067038405496,8,5,1,-1,-3,-7,-1,2
1523067038427581,-42,-12,-9,-2,0,3,-1,4
1523067038427581,6,4,24,0,-2,-1,-5,-12
1523067038428056,-12,-3,-6,-4,-1,-9,-15,-14
1523067038428056,14,5,0,4,-1,6,13,14
1523067038441592,4,-12,-10,-1,0,0,18,-6
1523067038441592,-3,-3,-4,-3,-1,-6,-35,-19
1523067038442645,-7,4,-2,-1,-2,-2,1,14
1523067038442645,-8,1,1,-1,-3,-4,-20,-8
1523067038464790,8,5,0,0,1,2,19,4
1523067038464790,-2,-4,-1,0,2,-2,-12,-12
1523067038466659,5,-5,-14,0,-3,-1,-5,14
1523067038466659,-8,2,13,-2,-1,-2,4,7
1523067038487348,10,-4,-6,-1,-3,-3,-3,13
1523067038487348,3,1,0,2,0,4,19,-26
1523067038488718,-10,-2,-2,-3,2,-10,-28,0
1523067038488718,-7,-6,-10,1,3,9,43,5
1523067038500751,16,9,7,-2,-7,-8,-6,11
1523067038500751,-13,4,1,1,-2,1,-15,-11
1523067038509774,21,2,-7,1,0,5,-10,9
1523067038509774,-50,-10,16,-1,1,-5,-23,-18
1523067038524944,8,4,5,3,1,-1,5,-10
1523067038524944,-2,-4,-9,-8,-4,-3,-7,0
1523067038526318,8,-11,11,2,2,4,31,12
1523067038526318,30,0,20,4,-1,-6,17,10
1523067038547508,0,4,-36,-7,-2,-5,-42,-30
1523067038547508,4,3,11,1,0,17,53,39
1523067038548877,-41,-5,-9,-6,-4,-15,45,-53
1523067038548877,7,-5,-19,-1,-3,0,20,-8
1523067038563051,53,-20,63,1,-2,-20,-20,23
1523067038563051,31,20,-37,-8,-4,-2,-49,-1
1523067038568429,-3,-4,52,7,3,-15,-62,7
1523067038568429,26,15,-82,-13,-11,-4,-62,-20
1523067038585026,26,-10,26,14,14,33,26,30
1523067038585026,-19,2,8,-2,-1,1,-75,3
1523067038586499,-6,-1,32,3,-2,3,86,17
1523067038586499,-1,-6,-23,-10,-5,-12,-78,0
1523067038607584,11,15,9,-7,-10,-4,50,8
1523067038607584,10,12,13,4,5,25,59,8
1523067038609175,-3,0,-9,-2,-3,3,-26,28
1523067038609175,1,-6,6,-3,-2,-12,-23,-20
1523067038621139,-16,8,-4,0,6,9,16,10
1523067038621139,-30,-23,-4,-3,-4,-18,17,-5
1523067038629644,15,-2,-25,-5,-1,1,-25,-3
1523067038629644,0,-1,15,1,-4,3,-2,-16
1523067038644818,-32,0,-8,1,-5,-30,-22,-34
1523067038644818,25,-3,-21,0,-2,15,2,2
1523067038646688,1,5,-12,3,8,5,-5,-7
1523067038646688,-19,-5,6,4,6,2,-8,26
1523067038667245,-10,4,-6,-3,-8,5,31,-3
1523067038667245,-4,-14,4,-7,-5,-19,-12,-25
1523067038668748,-5,-15,-20,-6,-2,2,1,12
1523067038668748,-7,0,5,4,-4,-2,8,-7
1523067038680911,-4,10,6,-4,-1,-3,-24,-10
1523067038680911,9,-5,8,-3,0,-3,11,10
1523067038689804,-9,-5,-14,-3,-5,2,-28,-12
1523067038689804,5,5,16,3,6,1,22,1
1523067038704976,-12,-1,-15,-3,-2,2,-20,-4
1523067038704976,-6,1,-3,1,-2,-10,-7,-6
1523067038706348,5,4,0,2,0,5,-6,8
1523067038706348,-6,-2,4,-1,-2,0,13,-4
1523067038727519,-7,-4,-13,1,10,6,-4,6
1523067038727519,-2,-1,2,-4,-6,1,-7,8
1523067038728908,0,2,1,0,-2,-10,2,-21
1523067038728908,0,-2,-3,-5,-8,5,12,10
1523067038741571,-6,-3,-8,0,1,-6,-6,-5
1523067038741571,3,-2,2,-1,6,-9,-7,-8
1523067038749965,0,3,-2,2,3,12,5,6
1523067038749965,-5,-3,3,1,-5,-3,3,-7
1523067038765047,1,-2,-1,-1,6,7,20,9
1523067038765047,-5,-4,-10,-1,-2,-1,15,-25
1523067038766509,1,-1,1,-3,-2,-1,2,11
1523067038766509,-4,-1,8,-2,1,-4,-7,-29
1523067038787190,-12,-4,-2,-1,-8,-2,4,-10
1523067038787190,8,3,-2,1,-3,-1,9,7
1523067038789067,-1,1,-5,0,-5,-4,-3,1
1523067038789067,9,4,16,2,3,0,15,41
1523067038801771,-12,-7,-17,-3,-4,-2,-10,-91
1523067038801771,-5,-4,0,2,6,9,-6,7
1523067038808692,3,7,8,-2,-6,0,7,6
1523067038808692,-4,-13,-8,-2,0,-4,0,-3
1523067038824826,9,-1,-3,-2,-3,2,0,34
1523067038824826,-1,0,5,0,-2,-9,8,-12
1523067038826203,-5,-7,-13,-1,-1,0,-13,-18
1523067038826203,7,5,5,1,4,4,-5,15
1523067038847393,-1,-3,-5,-4,-4,-1,8,-2
1523067038847393,-4,-1,-13,-2,-1,-2,1,-1
1523067038848764,0,-2,-4,-3,0,-2,-6,15
1523067038848764,-4,1,7,-1,-2,-1,7,-9
1523067038860926,2,3,-2,0,-3,-2,-9,34
1523067038860926,9,5,17,1,1,-4,14,-18
1523067038869819,-6,-11,-14,-4,2,-1,-36,-2
1523067038869819,1,4,-1,-2,-9,4,20,1
1523067038884990,-5,-5,-5,-2,2,4,-9,4
1523067038884990,2,-2,3,1,-3,-3,-17,5
1523067038886363,20,2,0,-1,-1,-5,9,-8
1523067038886363,-3,-4,-11,0,0,0,12,-1
1523067038907540,2,1,6,0,-1,-2,-18,27
1523067038907540,-8,0,0,-2,0,0,2,-21
1523067038908923,1,-2,3,-2,-3,-4,-2,6
1523067038908923,-5,1,1,1,0,0,-9,-1
1523067038921085,2,-1,-3,-1,-1,0,0,0
1523067038921085,-11,-2,3,1,0,-4,-5,3
1523067038929979,-4,1,-8,-1,-3,-1,19,-5
1523067038929979,4,4,11,-1,1,5,0,2
1523067038945018,-2,5,7,-1,-2,-3,-17,14
1523067038945018,0,-1,-7,-1,-5,-2,-5,1
1523067038946655,-2,1,-4,-1,3,1,-3,9
1523067038946655,-9,-6,11,2,0,0,21,-4
1523067038967079,2,1,-3,-2,-2,-1,-5,-8
1523067038967079,-1,-5,2,0,2,1,-4,5
1523067038969148,6,4,4,-1,-2,1,10,14
1523067038969148,-29,-4,-8,-2,-2,-4,-6,-7
1523067038981167,1,0,-2,-4,-3,-6,-4,-7
1523067038981167,9,-2,-8,-1,1,-1,-1,6
1523067038989639,-40,-5,6,-1,-1,10,47,-6
1523067038989639,8,-7,-18,-2,-2,-7,-8,4
1523067039004810,-3,-5,3,2,1,2,3,-7
1523067039004810,-5,3,2,-1,-1,-1,-13,-3
1523067039006183,6,0,-2,0,-1,-2,-10,-4
1523067039006183,1,0,2,-4,-2,-5,-1,-7
1523067039027375,-1,1,-7,0,-5,7,-2,2
1523067039027375,9,1,13,3,6,6,9,16
1523067039028744,3,13,-12,-7,-2,-4,-13,-38
1523067039028744,2,-3,5,0,0,-1,4,0
1523067039040905,-1,-19,-7,-2,-5,-12,-24,-3
1523067039040905,-4,0,2,-3,-6,-2,3,-2
1523067039049798,2,-1,-4,-1,0,2,-5,10
1523067039049798,9,-5,5,1,3,4,6,-2
1523067039064969,-44,3,-10,-4,-4,-13,-11,-24
1523067039064969,11,-9,-9,-3,-2,7,12,44
1523067039066342,24,-12,14,6,3,2,11,9
1523067039066342,6,2,-10,-1,2,-8,-24,3
1523067039087515,38,7,22,0,0,23,21,-38
1523067039087515,-11,8,-113,-6,-8,-26,8,21
1523067039088903,-63,-25,86,10,3,-4,20,-73
1523067039088903,22,-6,-2,4,6,17,-58,41
1523067039101068,28,-7,-11,8,9,-2,-11,57
1523067039101068,14,-1,66,-2,-1,19,95,2
1523067039109957,-29,-12,-43,-4,-7,15,48,-45
1523067039109957,13,22,-10,4,5,0,10,0
1523067039124997,-30,-9,-2,-5,-3,4,39,21
1523067039124997,17,7,-14,2,3,-5,-82,-40
1523067039126631,-6,2,5,-7,-10,-26,-11,15
1523067039126631,-21,1,10,-6,-8,4,52,-46
1523067039147557,17,-2,-19,-4,-3,-2,7,7
1523067039147557,-12,-1,21,-5,-3,-12,-28,-18
1523067039149062,-3,6,-11,5,5,18,-8,33
1523067039149062,3,-2,-22,-2,1,-6,-8,-11
1523067039161168,8,3,10,0,0,-5,-9,-3
1523067039161168,-11,-7,5,-1,-7,-3,6,-6
1523067039170118,12,1,-11,-4,2,-14,-41,19
1523067039170118,6,-3,9,-7,-10,10,16,19
1523067039184760,-23,-5,6,1,5,-11,-2,-26
1523067039184760,-1,-2,8,9,19,17,32,-7
1523067039186163,29,12,-12,-1,7,1,-42,14
1523067039186163,-13,-5,0,-5,-7,-17,0,-4
1523067039207319,4,10,0,-8,-30,0,7,-2
1523067039207319,-8,-3,-4,-1,12,-6,-23,-7
1523067039208721,13,0,-3,1,-5,-11,0,16
1523067039208721,-6,-2,-6,0,1,9,-4,-7
1523067039220859,-13,-3,-2,-2,-2,-3,-12,-6
1523067039220859,9,-2,8,-1,-9,-5,-6,7
1523067039229779,1,1,-3,-1,-4,-1,5,4
1523067039229779,-4,-2,3,1,13,-1,-9,-4
1523067039244341,5,3,0,0,-6,-10,-13,-3
1523067039244341,-4,-2,6,0,0,11,-8,0
1523067039250939,7,-1,-16,-4,5,-1,-5,0
1523067039250939,-4,-5,-7,-4,-4,-5,-7,-4
1523067039268880,1,3,9,2,4,2,2,5
1523067039268880,-2,-2,4,2,4,-5,0,18
1523067039270387,-1,-2,-6,-1,-4,1,3,-28
1523067039270387,-3,-3,13,-3,-3,-12,6,4
1523067039288936,-3,16,-30,-2,3,6,-9,-5
1523067039288936,-9,-19,-3,-5,-8,2,19,-13
1523067039297458,6,2,4,0,3,33,74,25
1523067039297458,0,-3,-32,-29,-3,-4,-12,-2
1523067039304976,-1,2,18,2,2,-6,-13,-9
1523067039304976,-8,4,42,40,-2,-5,-30,-18
1523067039306482,6,-1,-10,-4,2,17,4,26
1523067039306482,-9,-6,-16,1,-1,3,28,-4
1523067039327536,-11,6,3,-25,-3,0,10,-4
1523067039327536,1,-5,-19,-12,-3,-6,-10,-4
1523067039329145,-3,-1,12,5,-4,-17,-8,-15
1523067039329145,-1,2,-1,0,-1,6,-16,12
1523067039349598,5,-6,-12,5,7,-6,-4,8
1523067039349598,-13,-7,21,-1,2,1,-1,-49
1523067039351101,6,12,11,-8,-18,-21,-34,5
1523067039351101,-1,-2,3,2,-5,-19,3,-8
1523067039364242,-1,-7,-13,6,10,10,1,10
1523067039364242,-20,-6,-2,-9,-14,-6,-27,6
1523067039371166,11,-2,-18,-2,15,11,-23,1
1523067039371166,-2,-7,52,6,-6,-5,-10,-14
1523067039387302,-5,-7,-31,1,-3,-3,5,11
1523067039387302,22,14,-11,-8,-4,-2,1,16
1523067039389200,14,-3,1,-2,-7,-10,-24,-6
1523067039389200,-6,-3,6,10,2,6,0,2
1523067039409816,11,1,16,5,5,-2,6,1
1523067039409816,3,-22,-18,-12,-4,-3,-8,5
1523067039411261,-8,6,-7,1,-3,-5,-7,-6
1523067039411261,6,10,-1,10,6,3,10,4
1523067039424901,-7,-15,3,-1,1,2,0,-6
1523067039424901,-3,13,-17,-4,-2,4,8,-1
1523067039426302,-15,-6,50,-3,-7,-9,-4,-15
1523067039426302,14,3,-74,-7,-3,0,-5,-1
1523067039447462,-10,0,11,-2,-7,-1,-13,-5
1523067039447462,3,4,-12,-3,0,-2,7,4
1523067039448863,0,-8,-11,0,-1,-3,-20,4
1523067039448863,8,9,14,-1,-2,-1,-11,-1
1523067039469963,6,-3,-2,0,-4,-5,6,-7
1523067039469963,-4,-12,-19,1,7,2,1,7
1523067039471447,23,16,14,3,5,11,-4,8
1523067039471447,-45,-8,13,-1,-1,6,26,17
1523067039483953,-2,-1,0,-1,-2,-5,-8,-6
1523067039483953,-6,-2,-4,2,4,-11,-24,1
1523067039491077,6,-4,-11,-2,-4,10,-5,17
1523067039491077,6,-5,0,1,5,-5,-28,-17
1523067039507521,22,3,5,-2,-4,1,35,22
1523067039507521,4,14,6,-1,1,1,9,-1
1523067039509131,-2,-15,-14,-1,0,-11,7,5
1523067039509131,-11,-23,66,2,1,3,-20,3
1523067039529678,-64,-7,-45,-5,0,0,13,-12
1523067039529678,25,7,29,-1,-5,4,7,0
1523067039531580,-33,-2,-8,-1,-1,-4,22,8
1523067039531580,38,-4,-12,5,2,7,22,8
1523067039544221,-9,28,57,3,-2,-3,-20,-17
1523067039544221,-12,-22,9,-2,-1,-2,-23,0
1523067039551131,-8,-5,-13,2,5,11,12,5
1523067039551131,12,23,-1,-7,-4,0,0,-34
1523067039574800,18,-6,-6,1,4,0,-16,-2
1523067039574800,2,7,-14,0,-3,-5,22,51
1523067039576200,108,18,-15,-2,4,3,-17,-30
1523067039576200,8,-4,8,6,3,9,28,-18
1523067039589841,69,7,-1,5,14,26,33,10
1523067039589841,-24,-6,-20,-8,-7,-6,-29,-42
1523067039591238,47,4,-7,0,-4,-10,-6,20
1523067039591238,27,-3,-4,-3,-1,-7,-8,17
1523067039603376,-20,-18,1,11,-3,-2,9,-35
1523067039603376,35,2,-4,-4,-7,-9,-35,12
1523067039612296,-44,-15,3,-20,5,10,17,1
1523067039612296,-22,4,-7,10,2,1,-2,-3
1523067039627440,12,-15,-1,-20,-12,-12,-19,1
1523067039627440,26,2,-4,11,6,2,2,2
1523067039628839,-56,-8,1,-12,-17,-36,3,-22
1523067039628839,3,1,-7,13,-10,9,-23,3
1523067039649896,-19,0,-1,-3,12,6,-17,9
1523067039649896,-18,-11,2,-33,-5,10,24,-5
1523067039651403,25,11,2,22,13,0,-15,32
1523067039651403,0,-11,-40,-14,-8,-16,8,-32
1523067039663537,-12,4,19,27,-3,-5,-2,12
1523067039663537,3,13,-2,-3,-2,3,3,-7
1523067039672455,-19,-9,-3,-18,-6,-5,-2,6
1523067039672455,13,0,7,7,-3,-7,-15,10
1523067039687494,22,-6,-20,-9,1,4,4,9
1523067039687494,-2,1,4,1,3,-3,-2,2
1523067039689104,1,1,5,1,-2,0,-6,-16
1523067039689104,-14,2,4,-3,-5,-9,-2,5
1523067039709658,92,8,-1,-5,-2,-15,0,-10
1523067039709658,-85,-4,10,3,7,14,28,-7
1523067039711618,-16,-3,2,15,1,11,1,-16
1523067039711618,-1,1,-11,-10,1,2,-5,2
1523067039723591,1,0,2,-11,-4,-12,-7,9
1523067039723591,15,-2,-4,10,-5,-7,-2,-7
1523067039732615,2,-5,-12,-3,-2,8,-1,-4
1523067039732615,-13,9,13,-7,-5,-9,-2,14
1523067039747258,-31,-7,-2,0,1,1,-3,-26
1523067039747258,6,-1,-2,3,-7,-7,-46,-5
1523067039749160,-2,2,-3,1,4,3,8,-3
1523067039749160,1,0,1,-6,3,-11,-28,-13
1523067039769715,-6,0,2,4,-4,11,20,23
1523067039769715,16,2,-9,-4,-5,-3,5,-19
1523067039771217,-4,-8,0,-6,-3,-10,-16,-4
1523067039771217,-3,-2,0,3,4,-1,3,6
1523067039783250,-19,-3,-9,-1,-6,-1,-10,0
1523067039783250,8,-4,-2,0,12,6,10,6
1523067039792275,1,7,3,1,-7,-9,-5,2
1523067039792275,-11,-20,-22,-4,-2,-9,5,0
1523067039807314,3,2,3,3,1,11,-9,-18
1523067039807314,-5,-1,5,0,-1,-4,16,13
1523067039808818,-12,-1,-2,3,1,0,-7,-9
1523067039808818,1,2,-2,-4,-1,2,-4,-3
1523067039829979,6,6,-9,-4,-4,-7,-19,18
1523067039829979,-10,-9,22,7,5,4,15,-3
1523067039831380,1,0,-1,-2,-1,2,7,0
1523067039831380,-36,0,1,-2,-2,2,1,-14
1523067039843511,-23,-6,1,-3,-3,-4,-14,-37
1523067039843511,15,11,0,-6,-11,-8,-2,0
1523067039852435,-4,-2,7,1,-1,-5,14,0
1523067039852435,10,1,5,2,8,14,9,11
1523067039867488,-7,2,-2,-1,0,-2,3,2
1523067039867488,0,-10,-13,-1,2,-1,0,-6
1523067039869007,-2,-3,4,-6,-10,-8,-11,-5
1523067039869007,10,2,-3,-4,-8,-8,-2,5
1523067039889633,-10,-4,4,0,6,0,5,4
1523067039889633,8,8,0,-1,0,3,0,9
1523067039891642,16,0,-6,-2,-3,-4,-20,-16
1523067039891642,7,-1,0,-2,0,4,13,1
1523067039903614,-9,-4,-5,-7,-8,-16,-9,3
1523067039903614,-8,-4,-6,5,2,16,4,-3
1523067039912668,0,-1,6,1,3,1,5,0
1523067039912668,1,2,-2,-1,3,0,-17,2
1523067039927736,-6,0,4,-2,-4,-4,-3,3
1523067039927736,37,4,-6,0,-1,-7,7,17
1523067039929138,-14,-10,-12,-9,-2,1,5,-16
1523067039929138,-1,-4,-9,-2,-12,0,-4,-1
1523067039950193,5,5,20,6,10,4,8,16
1523067039950193,16,5,17,-3,-2,-2,36,-15
1523067039952198,-76,-21,-36,-1,-1,3,9,-10
1523067039952198,4,-1,4,-2,-2,-10,-20,1
1523067039963229,5,1,-3,-1,-2,4,5,-1
1523067039963229,-9,-4,-9,-3,-1,-8,-8,-4
1523067039972254,10,7,17,3,-3,-4,-6,4
1523067039972254,2,6,7,1,3,3,26,9
1523067039987477,-38,-9,-4,0,-1,-2,-31,-14
1523067039987477,-9,0,-7,-1,0,-1,-21,-11
1523067039988947,20,1,-1,-1,-1,-1,6,8
1523067039988947,-10,-3,-5,1,0,2,17,6
1523067040009611,11,2,11,-1,-2,-18,-91,1
1523067040009611,5,2,-5,-3,-1,18,76,28
1523067040011617,10,1,5,3,3,7,-2,-6
1523067040011617,-5,-9,-19,2,2,-1,-30,-8
1523067040023655,12,2,36,-3,-6,-17,-41,-9
1523067040023655,72,-1,-3,1,-1,-2,-31,10
1523067040032564,49,4,11,-4,0,5,42,32
1523067040032564,14,-7,-11,-2,0,-11,-49,10
1523067040047208,9,-9,-73,-5,-1,31,87,-8
1523067040047208,31,4,13,8,6,15,5,59
1523067040049110,-7,-9,5,-3,2,-7,-37,-5
1523067040049110,-41,8,0,-9,-5,-3,-3,-27
1523067040069807,14,6,-8,-2,-8,-25,8,2
1523067040069807,-25,-4,-4,7,9,44,77,16
1523067040071317,-29,12,7,-5,-10,-26,-41,-26
1523067040071317,26,-10,-4,1,4,19,-71,28
1523067040083467,-13,-15,-2,-2,-6,-16,87,-23
1523067040083467,-12,22,14,-6,-8,-22,-55,-40
1523067040092387,38,-11,-4,-2,-3,-4,15,26
1523067040092387,2,0,2,-6,-2,-3,8,-71
1523067040107483,-3,5,40,11,6,15,9,36
1523067040107483,1,-11,-33,-4,-7,-14,-44,-17
1523067040108932,4,3,10,0,5,15,9,-11
1523067040108932,7,10,14,-5,-7,-25,17,17
1523067040129988,8,1,2,-6,2,15,-51,8
1523067040129988,-35,-11,3,-4,-7,-30,-29,-26
1523067040131492,-5,2,0,9,9,28,-13,9
1523067040131492,-12,-5,2,4,-5,3,43,5
1523067040143628,-3,1,-4,-2,8,-1,-10,-1
1523067040143628,-22,-8,-4,-7,-15,-21,-23,-14
1523067040152547,-11,-1,-14,2,5,-6,12,-5
1523067040152547,7,4,10,5,1,7,14,14
1523067040166687,7,0,-7,-4,-13,13,62,-7
1523067040166687,-5,-5,-4,-5,7,-3,-35,-19
1523067040173632,2,1,-5,-5,-4,-6,-8,-5
1523067040173632,-1,-3,0,6,2,1,1,12
1523067040189750,-9,-3,-3,2,1,7,49,7
1523067040189750,-16,-4,-1,-2,-4,-6,9,3
1523067040191151,0,-1,-3,-2,-12,-3,2,-6
1523067040191151,-6,-1,3,-1,6,-6,-10,0
1523067040203709,-2,-3,-8,2,0,-9,-12,-2
1523067040203709,4,1,-3,5,-4,10,4,29
1523067040212734,-5,-4,-1,-14,-3,-7,9,-43
1523067040212734,-17,-1,2,2,-1,-3,-9,1
1523067040226867,-6,2,1,2,1,1,-26,-22
1523067040226867,1,-2,2,-1,1,-3,6,0
1523067040233263,-5,-1,-8,1,-7,-1,-11,49
1523067040233263,-5,1,-4,-2,0,9,5,-105
1523067040249835,3,-1,0,-8,-3,-5,-3,26
1523067040249835,-10,0,2,1,-3,-4,12,-10
1523067040251310,-8,-7,-10,1,-6,-4,-8,5
1523067040251310,6,5,47,2,9,1,30,41
1523067040272522,-26,-2,-62,-4,3,0,-22,-15
1523067040272522,4,0,-1,-5,-5,-6,-14,-8
1523067040274105,-31,1,11,2,-6,1,15,23
1523067040274105,34,1,-13,-3,-4,2,5,5
1523067040286662,1,2,11,0,-3,-12,-43,3
1523067040286662,-38,-8,-2,-3,5,10,22,23
1523067040293671,26,7,-8,0,2,-1,55,-8
1523067040293671,5,1,4,-4,-4,3,-6,11
1523067040309769,1,9,6,-2,-1,-6,-20,-16
1523067040309769,2,-4,-8,1,6,0,-14,-7
1523067040311271,17,-5,-7,4,2,-3,-30,-6
1523067040311271,-39,1,10,2,2,-2,8,-17
1523067040332326,-3,-5,13,-4,-10,1,7,11
1523067040332326,8,-3,-3,-2,2,-2,-2,-25
1523067040333830,-26,-2,-6,-3,-5,-6,-18,23
1523067040333830,-6,-8,-12,0,-2,-12,23,-11
1523067040346895,2,1,1,2,2,11,-43,-4
1523067040346895,-11,3,5,2,1,-3,-2,-13
1523067040353487,-55,-5,3,-4,2,-3,-8,-2
1523067040353487,21,-3,-14,-3,-3,-4,4,20
1523067040369928,3,-3,9,2,-2,-2,20,-3
1523067040369928,38,1,-3,-1,1,2,1,8
1523067040371431,6,4,9,-1,3,2,-2,-11
1523067040371431,-11,-9,-45,-4,-4,0,-13,2
1523067040392513,32,-9,4,-2,-5,-6,4,-5
1523067040392513,30,7,11,-1,-7,-7,-4,12
1523067040393991,-22,2,-5,4,8,7,-8,-22
1523067040393991,25,2,14,2,5,4,-5,-9
1523067040406626,-9,2,1,-2,-6,-2,4,1
1523067040406626,6,-13,-22,-5,-3,-3,3,-6
1523067040413633,-17,10,24,-1,-3,-5,-4,9
1523067040413633,-3,-4,-4,-3,-9,0,-7,-6
1523067040429690,17,-1,-3,4,10,-2,7,5
1523067040429690,-90,-11,4,-5,-3,-27,-5,-20
1523067040431591,10,-7,-14,-4,-2,31,-2,0
1523067040431591,49,2,2,-2,2,20,5,19
1523067040452248,-33,-2,0,2,0,-13,1,-9
1523067040452248,1,-3,-1,0,0,7,-4,6
1523067040453649,30,9,11,-2,-5,-27,-8,-8
1523067040453649,-43,-2,-7,-2,-2,-1,-8,1
1523067040466847,4,0,-1,0,1,18,9,11
1523067040466847,8,4,1,0,1,-10,-1,-1
1523067040473351,17,-7,-7,-1,-1,3,-3,-7
1523067040473351,3,-6,1,-2,-2,-7,-3,4
1523067040489896,3,6,-5,-2,-2,-5,1,-3
1523067040489896,3,-6,4,0,-4,4,-5,-3
1523067040491400,-29,-6,-6,4,7,-1,1,-9
1523067040491400,8,0,-3,-1,-2,-5,-6,7
1523067040513959,-7,-6,20,-3,-6,-2,-2,-10
1523067040513959,-6,0,-11,0,3,8,3,-4
1523067040515465,15,-1,-10,-2,-1,0,0,1
1523067040515465,-15,-4,-5,4,-3,-7,-1,0
1523067040526096,39,8,14,-7,0,-2,0,6
1523067040526096,62,-7,-10,-2,-5,3,6,21
1523067040535045,24,11,12,6,3,-5,-4,-6
1523067040535045,8,-18,-8,-11,-4,-12,-65,5
1523067040550055,-11,-1,-5,3,-1,5,-11,1
1523067040550055,23,11,16,5,4,9,32,9
1523067040551567,2,-7,-15,-2,2,3,7,-6
1523067040551567,-16,7,10,-1,-4,-9,4,-34
1523067040572219,-11,-24,-14,-3,-1,-3,8,18
1523067040572219,-18,-9,-14,-4,-3,-12,-38,3
1523067040574121,-59,-6,-55,-3,-5,-23,-58,-41
1523067040574121,-44,-3,-22,-3,-2,3,31,-10
1523067040586152,9,9,18,-1,1,-1,-1,36
1523067040586152,1,16,6,3,2,2,-49,-6
1523067040595175,-53,-17,22,-1,-4,-19,-97,35
1523067040595175,-3,6,-17,-2,-5,-11,-46,59
1523067040609821,31,-15,-12,-5,-3,-7,3,-33
1523067040609821,-41,11,4,1,5,7,-41,15
1523067040611219,66,12,-4,-1,4,25,-35,27
1523067040611219,-11,-17,23,-9,-11,-3,54,-19
1523067040632274,-22,6,-2,1,0,-10,-82,5
1523067040632274,36,-2,7,-4,-5,-13,54,-28
1523067040633783,-54,-5,5,2,4,10,46,-10
1523067040633783,13,16,8,4,4,6,-29,13
1523067040645918,-3,-10,-15,-3,0,-8,18,-33
1523067040645918,-13,-2,3,-3,-1,16,100,-4
1523067040654835,27,3,2,-4,-8,-12,34,5
1523067040654835,10,-1,3,1,0,9,-1,-5
1523067040669968,-21,5,5,8,7,9,31,-4
1523067040669968,4,-1,-4,-3,-11,-6,-37,-3
1523067040671379,44,-3,9,-1,10,2,13,11
1523067040671379,41,9,-1,-2,0,0,7,5
1523067040692496,11,4,-2,-2,-6,-7,-11,-8
1523067040692496,-10,-2,-5,1,-1,2,-11,0
1523067040693939,16,-5,-3,-4,-11,-5,26,-9
1523067040693939,7,-2,2,2,3,2,1,-10
1523067040706073,-5,15,-6,-3,2,-7,7,5
1523067040706073,-4,-10,3,-1,-3,13,-1,2
1523067040714996,5,2,2,-5,-3,0,26,-8
1523067040714996,-5,2,3,1,1,-4,0,-2
1523067040729640,-3,-3,-5,2,2,0,0,15
1523067040729640,-11,-4,-1,-1,2,-13,-52,-15
1523067040731539,11,0,7,-2,7,17,73,-5
1523067040731539,-26,2,-1,-1,-2,-1,12,3
1523067040752200,3,0,6,-7,-15,-3,-2,-6
1523067040752200,3,-7,-16,-3,7,-2,-12,-2
1523067040753599,2,0,-5,0,-10,-6,-12,3
1523067040753599,4,2,6,2,8,-1,3,-5
1523067040765636,-3,-2,2,3,-1,9,18,-2
1523067040765636,-3,-2,-5,-5,2,-3,-1,0
1523067040775289,2,1,-2,0,-5,-6,-17,-4
1523067040775289,-1,-2,4,1,2,-12,9,-6
1523067040791430,-2,-4,-4,-4,-6,15,-17,5
1523067040791430,-2,0,-1,-1,2,-4,17,9
1523067040792702,10,0,-1,-3,-2,-11,-82,-15
1523067040792702,-11,-3,-6,0,-4,4,23,14
1523067040812475,-9,-8,-6,-8,2,-5,17,-21
1523067040812475,-11,-3,-1,-6,-10,-16,-21,-5
1523067040813757,21,6,8,6,2,11,1,4
1523067040813757,5,-2,-8,0,6,7,-10,2
1523067040826013,-2,-1,-4,5,6,4,12,5
1523067040826013,2,0,-2,-4,-4,-2,6,-2
1523067040834814,-20,-4,-6,-6,-5,-5,-1,-5
1523067040834814,8,0,1,1,-1,0,5,0
1523067040850062,4,-3,-2,-1,5,3,5,0
1523067040850062,5,2,10,-1,-3,-5,-2,4
1523067040851358,-10,-7,-5,1,4,-1,7,-31
1523067040851358,4,2,-2,-4,-8,-6,-10,21
1523067040872414,-9,1,-1,1,-2,-7,-19,-29
1523067040872414,-2,3,9,2,3,0,-2,4
1523067040873917,1,0,-6,-1,0,9,13,11
1523067040873917,-1,-7,-6,-2,2,4,-4,-1
1523067040886156,18,5,7,-3,-8,-8,-11,2
1523067040886156,-6,0,-2,1,0,1,-10,-5
1523067040895158,5,-5,-6,0,1,-2,11,3
1523067040895158,-3,3,11,-1,-3,-2,-10,-11
1523067040910050,14,6,3,1,2,3,1,11
1523067040910050,-17,-6,-23,-3,-3,1,8,-10
1523067040911674,-4,-1,4,0,-3,-4,5,6
1523067040911674,6,-2,-12,0,0,1,5,-6
1523067040932572,-2,0,2,3,3,0,5,3
1523067040932572,3,-5,1,-7,-3,2,1,-1
1523067040933575,-1,-3,-4,-1,-3,-5,9,0
1523067040933575,-2,-2,-9,0,3,3,2,-6
1523067040946176,-12,-7,-5,-6,-4,-6,-2,2
1523067040946176,12,4,5,4,1,1,5,-2
1523067040962654,-1,2,2,1,1,1,0,6
1523067040962654,-1,-1,4,-2,-4,-6,-6,-9
1523067040969783,-4,1,-6,0,-2,-2,5,8
1523067040969783,-33,-6,2,-2,-4,-2,-4,-22
1523067040971676,8,-1,0,-1,2,-2,2,15
1523067040971676,-3,-2,3,0,0,0,-7,-32
1523067040992477,-8,-3,-11,-4,-2,0,-3,-4
1523067040992477,10,5,8,5,3,3,6,5
1523067040993866,-4,-1,2,8,-1,-4,-7,1
1523067040993866,-5,2,8,-5,-2,-3,6,7
1523067041006013,3,-7,-6,-3,-2,0,-1,3
1523067041006013,4,1,-4,-6,-1,0,-16,4
1523067041014924,-10,-2,1,-2,-1,0,4,-25
1523067041014924,10,2,-6,1,3,1,-9,3
1523067041029962,-7,2,10,-8,-7,-7,-18,-11
1523067041029962,-18,-2,6,7,2,9,27,17
1523067041031468,39,-5,-7,-2,-1,-6,-22,14
1523067041031468,-47,-7,9,2,3,12,36,2
1523067041052478,24,-7,-5,-4,-2,-4,-22,-6
1523067041052478,-6,3,-15,7,3,5,22,-8
1523067041053888,28,19,38,-7,-6,-5,22,16
1523067041053888,37,-2,-14,1,2,15,-3,20
1523067041076152,-38,-4,32,5,4,14,14,-30
1523067041076152,6,32,28,-10,-9,-10,-55,0
1523067041078095,-5,-7,-36,1,3,12,70,-14
1523067041078095,13,-11,33,-15,-2,-31,-125,28
1523067041089184,-22,8,19,38,10,26,52,38
1523067041089184,23,-3,14,-6,-1,-10,-24,-22
1523067041096143,20,17,1,-4,-3,-1,-86,34
1523067041096143,-46,5,-21,-19,-9,10,97,-97
1523067041112248,54,-14,-16,-1,4,-3,71,72
1523067041112248,-10,-9,23,24,3,0,-63,-1
1523067041113661,-2,-3,-22,-4,-3,-8,8,-36
1523067041113661,-8,-22,-24,0,-6,-16,-46,30
1523067041125783,30,20,1,-9,2,12,18,26
1523067041125783,1,-14,-24,-1,2,3,19,-24
1523067041134719,-14,2,24,-2,-6,-11,21,-7
1523067041134719,0,9,13,-4,-13,-19,-28,-2
1523067041148253,-26,-6,-10,-4,2,-11,-57,-41
1523067041148253,11,-6,-17,4,-31,23,37,27
1523067041157278,-25,-7,-8,12,73,18,-2,-2
1523067041157278,12,0,1,1,-7,-3,29,6
1523067041172403,-5,-8,-20,-11,-8,-19,-27,-12
1523067041172403,-1,-4,3,-5,-10,-12,22,-1
1523067041173821,5,2,5,2,-13,9,8,12
1523067041173821,6,3,-5,2,-1,-1,-17,-5
1523067041185943,1,-3,6,-7,-7,-10,0,-12
1523067041185943,-3,-3,-22,-5,9,-4,1,-15
1523067041194876,-19,-7,-1,-1,-14,-4,-18,-9
1523067041194876,9,-3,-7,4,11,-1,-3,8
1523067041209002,-15,5,1,0,-6,-4,-20,-9
1523067041209002,3,-8,-9,-8,2,-1,25,7
1523067041215934,-6,-3,-3,-3,-5,-1,0,2
1523067041215934,4,5,6,6,3,0,24,6
1523067041239583,7,-1,-4,-2,-5,10,-16,-4
1523067041239583,1,3,4,2,18,10,-17,2
1523067041241501,0,-7,2,-5,-17,-4,11,0
1523067041241501,1,-1,-5,-1,6,6,9,-3
1523067041255068,-6,-2,-5,-3,-3,-12,-2,-11
1523067041255068,4,-4,-5,-6,2,-9,-7,2
1523067041256543,-8,-2,-11,-3,-15,-7,-26,-6
1523067041256543,6,1,10,0,0,0,5,12
1523067041269162,4,2,-4,1,1,1,13,28
1523067041269162,-3,1,5,2,1,3,23,-45
1523067041276145,-9,-5,-4,-7,-5,-6,-34,-6
1523067041276145,1,0,-4,-2,-3,2,8,1
1523067041292226,0,-7,-1,2,3,2,10,-3
1523067041292226,-2,6,2,-2,2,-21,-10,25
1523067041293641,-2,1,4,1,-4,11,17,-2
1523067041293641,1,-2,-8,2,2,0,-19,-10
1523067041314696,-4,7,9,-1,3,-1,-21,-5
1523067041314696,6,-13,-10,-3,-7,-4,13,4
1523067041316203,5,5,4,1,7,-1,3,-5
1523067041316203,2,3,8,-1,-10,1,-1,4
1523067041329822,-9,-8,-14,-2,8,-1,2,-9
1523067041329822,3,4,6,2,-1,0,2,5
1523067041331240,-4,-9,-11,-4,-5,0,7,0
1523067041331240,-5,-1,9,0,-1,4,-7,11
1523067041352384,0,-2,7,-2,-2,-3,17,-8
1523067041352384,7,-5,-10,-3,-1,3,4,6
1523067041353800,-16,3,12,0,-8,-10,-15,-3
1523067041353800,-20,-2,-8,1,4,-6,13,1
1523067041374947,1,1,0,1,1,11,-2,-8
1523067041374947,4,9,7,0,-2,-7,-1,6
1523067041376361,-3,-21,-19,-2,1,13,11,10
1523067041376361,7,7,1,-1,-2,-4,-5,-4
1523067041388979,-4,8,13,0,-6,-11,-7,-2
1523067041388979,-7,-4,-12,-2,0,1,-2,-2
1523067041396131,4,-2,-8,-2,4,0,-1,-2
1523067041396131,12,-2,-9,0,1,-5,-2,-8
1523067041412173,14,-3,-9,0,-2,4,0,-1
1523067041412173,0,3,-2,0,0,-1,12,7
1523067041414091,0,2,11,0,-3,-8,-15,-16
1523067041414091,2,-6,-9,-1,1,4,0,-8
1523067041434732,-11,1,3,-7,-13,-12,-16,-32
1523067041434732,-1,-1,-7,1,15,12,16,2
1523067041436150,4,1,-3,0,-4,1,15,12
1523067041436150,0,1,3,-1,1,4,8,9
1523067041449272,3,-4,-4,-3,-4,-3,-9,-13
1523067041449272,-15,-2,-8,-4,-5,-2,-7,-1
1523067041455786,-2,-6,-5,-3,-2,-3,4,-1
1523067041455786,4,4,7,1,-2,0,4,-16
1523067041472328,17,1,-5,0,3,-1,-14,10
1523067041472328,-38,-7,2,1,-2,-9,39,-2
1523067041473749,1,7,3,0,-2,12,10,4
1523067041473749,-4,-1,-5,0,1,-1,-5,-1
1523067041494887,-1,-5,-9,-3,4,0,-3,7
1523067041494887,10,4,10,1,-3,-4,-8,-8
1523067041496309,1,5,4,-1,-6,-5,9,5
1523067041496309,-15,-4,-1,-2,-1,-2,1,-25
1523067041509342,-4,-2,-5,0,-4,-3,17,8
1523067041509342,6,-7,1,-3,3,2,-18,3
1523067041515946,8,1,0,-3,-3,-7,-9,-1
1523067041515946,0,-2,-7,-2,-3,3,-2,-8
1523067041532446,-22,-8,0,1,-1,-12,-53,0
1523067041532446,31,-6,-4,1,-1,21,25,-21
1523067041533935,-6,3,18,4,7,12,52,-3
1523067041533935,47,-4,-40,0,0,-5,-36,6
1523067041554978,-48,4,18,-1,2,2,0,15
1523067041554978,9,-5,-9,-4,-8,-19,-20,8
1523067041556471,-69,-5,17,3,1,5,-41,-95
1523067041556471,9,-12,-22,3,2,-8,-57,23
1523067041569088,31,15,28,0,-1,23,81,26
1523067041569088,-76,4,0,-1,-2,-3,-51,-21
1523067041576099,34,-17,-19,1,-1,-32,-72,34
1523067041576099,-6,11,24,-8,-7,4,-45,32
1523067041592149,-18,-2,-48,-5,-7,-19,-49,-89
1523067041592149,32,10,11,5,6,23,56,92
1523067041594096,3,10,-4,-3,-3,-16,-44,-13
1523067041594096,-16,-12,35,0,-5,5,4,4
1523067041614624,30,-1,-10,1,4,3,17,21
1523067041614624,75,0,-6,-6,-7,-13,-70,8
1523067041616129,16,4,32,0,-3,-11,-16,3
1523067041616129,4,-2,-21,3,2,1,76,-12
1523067041628660,-2,-1,11,3,1,5,-2,7
1523067041628660,-7,-3,3,0,-4,2,28,-15
1523067041637185,25,10,10,0,7,8,33,66
1523067041637185,-16,-9,-3,-4,0,9,30,-28
1523067041652306,4,-9,-3,-2,-2,0,-2,8
1523067041652306,-7,1,3,-6,-9,-18,-8,-21
1523067041653728,-1,-5,-21,2,-2,14,19,12
1523067041653728,-5,4,11,8,17,-1,-3,5
1523067041674871,-1,-4,-7,-5,-5,3,9,17
1523067041674871,-11,-6,-11,-4,-6,-7,-1,-25
1523067041676288,-12,-4,-12,-6,-12,2,24,5
1523067041676288,4,5,-1,-1,-5,-2,-3,-21
1523067041688402,-6,-1,7,0,2,2,17,1
1523067041688402,-7,-1,3,0,7,2,-16,1
1523067041697344,2,-5,-10,1,8,3,21,-2
1523067041697344,-10,5,8,-5,-11,-10,-12,-9
1523067041712470,3,-2,-7,-6,-17,-27,-33,4
1523067041712470,1,1,-4,-1,1,8,17,41
1523067041713889,-7,-5,-9,0,-19,8,-3,-43
1523067041713889,0,2,3,3,26,2,7,43
1523067041734953,16,-4,-2,-2,-1,3,-7,-31
1523067041734953,3,5,2,-1,-3,-7,-3,13
1523067041736474,1,-4,-7,-1,4,-1,17,-2
1523067041736474,-7,8,20,-5,-22,-8,-2,-5
1523067041749983,5,-2,-4,0,4,-10,-11,0
1523067041749983,-8,-6,1,-2,0,6,19,-8
1523067041757504,-1,-2,-9,-2,3,7,7,9
1523067041757504,11,3,-6,0,-1,-3,17,-9
1523067041772542,-7,-4,-3,0,8,1,4,15
1523067041772542,-4,5,10,0,-8,0,-7,-24
1523067041774137,-7,-3,-2,-3,-1,-11,-14,-16
1523067041774137,-1,5,-3,2,-1,1,5,10
1523067041795188,-5,-4,-3,-1,-3,4,9,-7
1523067041795188,-9,-3,-9,1,4,1,-11,-17
1523067041796608,-3,3,13,-3,-1,-10,2,15
1523067041796608,1,-4,-6,-2,-3,0,-2,-2
1523067041808638,-3,0,-4,0,-3,5,0,-2
1523067041808638,-1,-4,2,-4,-1,-4,2,-6
1523067041817164,1,3,-1,-1,-4,-7,-5,5
1523067041817164,-5,-3,-4,2,2,8,9,-6
1523067041832291,-6,0,6,2,4,-15,-1,-1
1523067041832291,-1,-5,-12,-4,2,13,-1,0
1523067041833706,1,1,11,-2,-1,-1,0,0
1523067041833706,3,3,5,-2,-7,-5,1,-24
1523067041854845,-15,3,0,2,0,1,1,4
1523067041854845,-3,-7,-4,-1,1,-9,-5,-6
1523067041856267,-19,-4,-7,3,4,2,-2,-4
1523067041856267,8,-4,-12,-1,-7,-1,0,6
1523067041868382,9,4,14,-2,-1,2,21,14
1523067041868382,6,5,-1,-2,-3,-4,2,-12
1523067041877323,-4,-7,-16,-7,-3,-3,-2,-20
1523067041877323,-65,-5,3,1,-3,-8,0,3
1523067041892451,18,-2,-9,4,0,10,-2,14
1523067041892451,-22,-5,2,4,13,2,-23,-42
1523067041893867,7,1,-1,-2,4,3,9,7
1523067041893867,0,-3,-4,-3,-8,-12,7,0
1523067041914922,5,0,-9,-6,-3,7,-6,-14
1523067041914922,9,2,8,4,-1,-3,2,28
1523067041916426,-2,4,1,0,-1,3,2,-10
1523067041916426,47,-5,-4,-5,2,-4,-1,1
1523067041928547,31,6,5,1,-3,-5,10,-22
1523067041928547,20,2,-4,3,1,-1,0,4
1523067041937482,-3,-1,4,-2,-1,0,-7,5
1523067041937482,0,-6,-3,-2,-3,4,9,9
1523067041952524,14,1,-4,-3,-1,-6,-9,-1
1523067041952524,-2,3,2,-1,-8,-4,23,15
1523067041954026,7,0,3,4,6,0,-6,-6
1523067041954026,-7,-1,-5,-3,1,4,-15,-35
1523067041974670,-17,-3,3,-1,2,4,-4,2
1523067041974670,-4,-2,-9,-6,-8,-12,-16,-5
1523067041976586,-4,0,-2,-3,-6,-3,0,8
1523067041976586,-3,4,31,3,1,3,-4,5
1523067041988617,-7,-14,-11,-2,0,-2,-5,-3
1523067041988617,-21,9,12,-1,0,3,3,-6
1523067041997142,-3,-14,-7,-1,-1,-2,-7,5
1523067041997142,-1,4,-2,1,1,4,-14,3
1523067042012272,-7,-1,0,-2,-3,0,20,0
1523067042012272,-1,0,2,-6,-4,-3,-4,1
1523067042013686,4,-6,8,2,1,-3,-2,1
1523067042013686,13,0,-11,0,-1,-3,0,6
1523067042035325,-29,5,3,-2,-6,-16,-62,-6
1523067042035325,-16,-25,-6,3,2,3,-7,-14
1523067042036748,84,8,1,4,6,29,71,31
1523067042036748,63,16,3,-4,-1,2,28,-17
1523067042058897,-9,-11,-1,-8,-1,-9,-74,0
1523067042058897,19,7,-18,-17,-2,12,92,3
1523067042060310,-4,-8,18,24,-1,-10,-20,15
1523067042060310,-9,-13,-7,0,1,13,-34,-10
1523067042072843,5,21,-20,-1,8,46,127,28
1523067042072843,4,1,22,-8,-8,-33,-54,-11
1523067042074348,-11,10,-10,-15,-3,-8,-106,-36
1523067042074348,16,13,-35,-1,-2,3,83,-20
1523067042094979,3,-2,9,4,-1,-9,-44,-4
1523067042094979,-8,-13,-27,4,-5,-20,-2,47
1523067042096408,-29,-5,12,-8,-8,-30,36,-25
1523067042096408,-6,7,-6,4,5,17,-9,49
1523067042108520,14,-33,28,-5,-5,21,33,12
1523067042108520,31,15,-18,2,1,4,-41,-29
1523067042117509,-24,-30,-45,-7,-11,-78,-123,-18
1523067042117509,-27,4,14,7,11,54,108,-29
1523067042131640,-6,-2,-20,-8,-13,-12,-40,6
1523067042131640,24,-2,46,10,8,2,-13,35
1523067042138649,-7,-3,-35,-2,-4,6,55,-16
1523067042138649,-16,-7,-4,-1,2,-14,-58,13
1523067042154691,-2,1,1,5,-1,1,20,-25
1523067042154691,-14,3,10,-4,2,6,27,33
1523067042156111,11,14,-4,0,7,20,16,-41
1523067042156111,-37,-20,7,-6,-19,-27,-99,-12
1523067042177252,3,1,-2,3,6,-3,10,18
1523067042177252,0,1,-8,-3,-11,-7,1,-10
1523067042179196,-9,4,13,-1,4,24,32,34
1523067042179196,10,-6,-10,-1,2,-10,9,16
1523067042191791,-2,6,8,-3,-9,-18,-19,-15
1523067042191791,-6,-6,-14,6,7,8,-8,-17
1523067042198364,-1,4,7,-1,-1,13,24,17
1523067042198364,-3,0,12,-9,-10,-15,-22,-2
1523067042214955,2,3,-8,4,11,0,-42,-3
1523067042214955,-7,0,3,2,2,2,18,-15
1523067042216446,11,0,4,-4,-3,-1,-22,8
1523067042216446,2,4,3,-3,-1,-11,-19,6
1523067042237468,-3,-3,-3,2,-7,-14,5,-1
1523067042237468,-1,-2,-3,1,-5,9,-3,-22
1523067042238972,-2,3,4,2,11,5,12,2
1523067042238972,-3,-6,-7,-5,-2,-8,-9,4
1523067042251590,2,1,-1,0,-2,-1,15,-3
1523067042251590,-20,-2,4,0,-3,3,-10,-7
1523067042258524,1,2,-11,0,-4,9,8,12
1523067042258524,-6,-2,7,0,3,-1,0,0
1523067042274800,2,2,-7,-4,0,1,9,-2
1523067042274800,0,-8,-20,-6,-3,-8,-2,-2
1523067042276208,-8,3,11,-2,-4,0,9,7
1523067042276208,-8,-3,-15,-2,-3,-6,-6,-34
1523067042297266,4,1,-1,1,4,-3,-17,-3
1523067042297266,5,-1,-2,0,1,2,-2,1
1523067042298769,1,7,23,2,1,3,5,-2
1523067042298769,-2,-18,-6,-3,-2,-2,3,11
1523067042311844,-7,-4,-19,-2,-1,-5,-10,-9
1523067042311844,-1,2,4,1,-6,2,1,-7
1523067042318407,-2,-1,-2,-1,7,8,6,19
1523067042318407,11,-3,-1,3,-1,-9,-10,-8
1523067042334953,-1,4,16,1,-1,13,73,19
1523067042334953,-6,-6,-11,-1,3,1,-10,-4
1523067042336368,-1,3,3,-1,-7,-5,-9,-2
1523067042336368,-1,2,1,-1,-1,3,24,14
1523067042357468,-8,-6,-3,0,3,-5,-34,-13
1523067042357468,2,3,11,-1,2,2,6,-1
1523067042358930,1,-2,-8,-3,-8,-3,3,4
1523067042358930,-3,8,-1,0,1,-2,-7,2
1523067042371552,-2,-12,-1,-1,0,-1,-13,0
1523067042371552,3,2,19,-2,2,0,-3,2
1523067042378569,-4,-7,-13,-4,-5,-13,-16,5
1523067042378569,-3,0,9,5,2,9,2,-8
1523067042395051,-5,2,2,-3,-8,-3,-5,-6
1523067042395051,13,1,0,-1,3,3,5,15
1523067042396529,-4,0,5,0,2,1,5,0
1523067042396529,2,-4,-3,-2,-9,-6,-8,14
1523067042417167,-2,4,0,0,7,-2,2,-1
1523067042417167,0,-4,-6,-2,-5,-4,-8,2
1523067042419089,13,1,1,-2,0,6,16,1
1523067042419089,-8,7,-7,-3,-4,-6,-5,4
1523067042431711,7,-11,-11,2,-2,1,-3,2
1523067042431711,-13,1,1,0,-2,-3,-4,-5
1523067042438226,14,3,5,1,0,-8,-29,-2
1523067042438226,-4,-8,-8,-6,4,1,17,-3
1523067042454766,25,5,6,-1,-5,-2,5,-2
1523067042454766,-42,2,-3,0,0,-1,1,21
1523067042456188,-48,-19,-10,-2,-4,0,-8,-46
1523067042456188,5,-1,-3,2,4,0,-6,1
1523067042477339,-2,3,-2,-1,1,-2,-1,-2
1523067042477339,0,-2,-11,-1,-4,-4,-8,4
1523067042478749,8,6,10,0,0,7,-3,10
1523067042478749,1,3,6,-1,0,-1,1,-4
1523067042491818,-15,-10,-18,-2,-1,1,2,-4
1523067042491818,8,9,15,1,1,0,-1,-9
1523067042498386,-31,-8,-9,-1,-2,-7,-36,2
1523067042498386,8,5,5,-1,-2,-4,-5,-1
1523067042514848,12,0,2,1,-2,-5,-6,13
1523067042514848,-6,-1,-1,3,-1,3,7,-45
1523067042516349,52,0,-2,-8,-3,6,25,17
1523067042516349,-58,-3,-3,-3,-3,-6,-4,1
1523067042537405,0,-1,4,0,-2,-3,-5,-9
1523067042537405,21,-8,-8,0,0,1,-24,19
1523067042538909,-61,5,9,1,0,-1,2,-4
1523067042538909,8,-5,-16,-6,-4,-3,-9,-17
1523067042551534,4,3,9,-1,1,2,24,4
1523067042551534,5,5,21,-2,-3,-21,-64,14
1523067042558547,-8,1,-19,-1,2,11,12,-47
1523067042558547,41,-10,29,4,-1,-11,-22,27
1523067042575033,-42,-17,1,2,3,-2,-38,-28
1523067042575033,20,-2,22,0,1,9,9,9
1523067042576595,-11,-17,-41,-8,-4,2,8,38
1523067042576595,17,15,16,-1,1,-1,-20,-6
1523067042597064,41,1,-17,-2,-4,-16,11,38
1523067042597064,-73,-12,0,-3,-9,-36,72,-73
1523067042599070,40,-10,2,6,0,-2,-28,-16
1523067042599070,27,15,-9,3,5,7,-50,-13
1523067042611687,16,5,-15,-8,-6,4,8,27
1523067042611687,-42,-12,-26,-6,-6,-7,3,-1
1523067042618646,-10,9,-6,-6,-4,-22,-43,-17
1523067042618646,-27,-1,12,0,-3,-5,-18,-22
1523067042634753,0,11,3,4,-1,-8,-58,-11
1523067042634753,8,-14,-29,4,10,24,19,22
1523067042636167,56,23,42,-8,-4,-2,0,36
1523067042636167,-43,-13,-12,0,-2,-8,-9,-20
1523067042657308,-13,-3,-8,-1,-1,15,40,-5
1523067042657308,21,9,6,1,7,35,67,8
1523067042658726,-20,-12,-10,1,4,6,16,22
1523067042658726,8,-3,-7,-5,-10,-10,26,25
1523067042670759,-1,5,14,-2,4,3,-28,-11
1523067042670759,11,-6,12,-1,10,6,-16,2
1523067042679788,3,0,-8,5,-1,7,-1,-5
1523067042679788,7,3,22,3,7,11,67,10
1523067042694908,-19,-9,-13,-5,-8,-6,6,-26
1523067042694908,28,10,-6,-1,-2,-6,-48,-5
1523067042696328,-8,-1,-5,-2,-5,-10,-14,-12
1523067042696328,-2,-6,1,-2,-4,-7,19,3
1523067042717471,5,2,10,1,-2,-3,0,13
1523067042717471,7,1,-14,-1,2,6,9,9
1523067042718889,-4,1,9,5,9,2,21,-3
1523067042718889,0,-9,-9,-3,-14,-1,-4,4
1523067042730919,-2,3,9,0,12,5,10,-4
1523067042730919,3,-3,-13,-2,-10,-1,-22,-9
1523067042739944,-7,-3,2,1,5,1,13,-6
1523067042739944,14,-1,-7,-2,-2,6,-10,14
1523067042755009,-8,4,8,-1,-3,-12,5,-12
1523067042755009,0,-5,-6,-5,-6,-9,-15,-15
1523067042756570,4,-1,-2,1,3,4,-14,-3
1523067042756570,0,-1,-7,3,3,0,7,2
1523067042778627,-5,-2,4,-3,-4,-1,4,-18
1523067042778627,3,-2,-3,0,-2,-4,6,11
1523067042780052,0,2,6,-1,1,1,9,-8
1523067042780052,-2,-4,-9,2,5,3,-3,9
1523067042791118,-4,-2,-1,0,1,3,9,2
1523067042791118,6,5,1,-3,-8,-15,-10,-6
1523067042800106,4,-2,0,-3,-2,9,-5,6
1523067042800106,-52,-4,-5,-2,1,-2,22,4
1523067042814643,3,2,-18,-4,-7,0,-6,-2
1523067042814643,0,-9,15,-3,-2,-12,-4,0
1523067042816148,0,2,1,4,-2,-3,8,2
1523067042816148,13,7,-1,-1,0,0,-6,3
1523067042837290,-5,-9,0,-1,1,1,-3,-6
1523067042837290,-3,1,-7,-1,-2,1,-8,4
1523067042838705,0,8,6,-2,-4,-6,4,-3
1523067042838705,16,0,1,-1,-6,2,-13,-8
1523067042850826,-7,3,29,1,14,5,1,7
1523067042850826,9,2,-44,0,0,0,-3,1
1523067042859900,4,-3,7,0,-2,-5,4,-4
1523067042859900,0,0,-2,-2,0,-2,-7,-38
1523067042874988,1,-14,-18,-3,-8,-4,0,7
1523067042874988,2,13,38,3,2,3,-4,2
1523067042876446,-1,-17,-3,-1,-5,-6,19,3
1523067042876446,4,3,-15,0,8,13,0,5
1523067042896498,19,0,13,2,1,-2,-3,13
1523067042896498,-1,-6,-22,-2,0,2,0,-6
1523067042905048,9,7,-3,-3,-7,-12,-9,4
1523067042905048,12,-6,-1,-4,-4,-9,-5,3
1523067042911124,-4,4,7,3,1,7,8,26
1523067042911124,0,2,9,0,0,-2,2,-21
1523067042920064,-4,-2,-2,-4,-5,-5,-33,13
1523067042920064,-2,-7,-9,-2,-2,0,-2,-32
1523067042934687,-5,0,-1,2,8,6,3,-2
1523067042934687,2,-3,-8,-2,-1,-2,3,10
1523067042936103,-6,-4,-4,-3,-7,-2,0,-5
1523067042936103,-5,2,7,-4,1,-4,1,9
1523067042957247,-4,-5,-8,0,-7,-7,11,-9
1523067042957247,-3,1,8,-1,3,4,2,-3
1523067042959164,5,-8,-11,-2,1,1,12,12
1523067042959164,6,3,5,-1,-1,-6,-5,5
1523067042970781,-2,-1,-1,-3,-6,-6,-3,-11
1523067042970781,9,0,0,1,2,3,-21,0
1523067042979721,-13,3,-6,2,5,3,32,1
1523067042979721,5,2,13,0,0,3,-4,7
1523067042994847,-15,-2,-2,-5,-5,-4,-7,-36
1523067042994847,7,-6,-14,-3,-5,-6,-3,-7
1523067042996264,31,2,28,2,1,-2,-20,-5
1523067042996264,-27,-10,-11,-2,0,3,2,-1
1523067043017405,25,9,-6,-5,-4,-2,-3,0
1523067043017405,1,-4,15,0,-1,-2,4,11
1523067043018825,2,-2,-12,1,0,1,1,-20
1523067043018825,3,3,-6,0,0,-3,11,7
1523067043030885,16,-8,18,0,-2,-2,14,20
1523067043030885,-32,-1,-6,-3,-3,-10,-26,-2
1523067043039880,-9,-12,-13,-2,-1,3,32,-24
1523067043039880,39,5,7,0,-1,7,58,33
1523067043054978,1,17,-5,-1,-1,10,6,9
1523067043054978,9,-14,0,2,1,4,32,-28
1523067043056423,-13,16,-4,-2,6,41,26,2
1523067043056423,-17,-16,9,0,-4,-25,-18,-6
1523067043078482,-16,-6,-11,2,4,41,104,-34
1523067043078482,-18,12,17,-6,-9,-34,-95,8
1523067043080489,-4,10,-33,-5,3,12,69,11
1523067043080489,-9,-7,-10,-2,-3,-24,-40,-24
1523067043099624,-11,1,22,-2,-3,-26,-72,-44
1523067043099624,14,-3,-18,1,15,81,127,51
1523067043101545,-62,-1,8,-2,-2,-10,-72,16
1523067043101545,-62,-7,5,-1,-15,-61,-52,-16
1523067043114159,18,-4,-17,3,2,6,7,-21
1523067043114159,4,14,24,-4,-4,-23,-82,21
1523067043121102,-2,-28,-45,-9,-9,-27,-20,-7
1523067043121102,-9,9,3,0,-5,39,35,29
1523067043137226,22,1,-15,2,20,-25,13,1
1523067043137226,6,0,18,-5,-10,-4,23,-15
1523067043138643,12,6,23,7,10,-1,11,7
1523067043138643,33,-7,-4,-3,-10,-18,-83,19
1523067043159781,-68,-10,-31,-5,0,29,68,-81
1523067043159781,-5,9,58,1,-3,-5,-6,6
1523067043161203,32,-1,11,-2,-2,-12,55,12
1523067043161203,24,12,9,-7,-11,-8,42,-17
1523067043182347,5,1,2,2,5,-1,-64,42
1523067043182347,-7,-10,-21,0,6,0,18,-1
1523067043183764,-8,-2,2,-5,-26,-13,-44,-12
1523067043183764,17,4,-5,2,27,27,18,-7
1523067043197384,4,-6,-11,-6,-7,-7,-51,28
1523067043197384,-8,1,-6,-1,-12,-19,-13,-14
1523067043198801,10,-1,-6,-4,1,-26,-43,7
1523067043198801,-1,0,-7,4,1,26,8,9
1523067043219860,-6,-5,7,1,-8,-9,-13,11
1523067043219860,0,-1,4,-1,-4,-3,8,-7
1523067043221364,-1,-2,0,3,16,12,-3,-1
1523067043221364,-3,-1,-1,-4,-1,6,18,-7
1523067043233986,-4,-2,-2,0,-1,-16,-17,8
1523067043233986,9,-3,-17,-2,2,4,0,16
1523067043240999,4,3,-3,5,-2,8,1,-29
1523067043240999,-7,-1,-10,2,5,8,-1,-5
1523067043257459,-16,5,17,-7,-22,-19,-9,18
1523067043257459,5,-6,-24,-7,-5,-2,-14,37
1523067043258962,0,6,15,6,14,12,58,-25
1523067043258962,-2,-6,-8,1,4,4,-4,76
1523067043279516,15,2,-2,-1,-8,6,-4,-90
1523067043279516,-51,-10,-6,0,14,2,-46,4
1523067043281523,-1,4,4,-3,-11,-1,-5,-16
1523067043281523,3,-7,-6,-2,-4,-5,-6,-14
1523067043294144,5,4,6,-1,0,-4,10,54
1523067043294144,9,4,0,-3,-8,-7,-4,-14
1523067043301124,2,-8,-9,-3,-1,-9,-28,-3
1523067043301124,-2,-3,-16,-1,3,-1,4,-13
1523067043317202,-1,0,11,-2,0,-4,-17,24
1523067043317202,3,-3,-9,5,-3,1,18,-42
1523067043318622,-7,2,13,-1,1,-3,-13,21
1523067043318622,8,5,33,-1,-2,2,10,-12
1523067043339764,-4,-11,-40,-2,1,-2,-12,14
1523067043339764,10,-3,-1,1,0,1,19,-2
1523067043341182,-5,2,7,3,-6,1,-25,10
1523067043341182,-18,3,7,-6,2,2,-13,-26
1523067043354276,17,-6,19,-2,-2,-7,-22,9
1523067043354276,-5,2,-19,2,4,3,45,4
1523067043360815,-7,-4,4,-6,-3,-7,-8,-16
1523067043360815,2,-1,-8,1,0,5,-25,-10
1523067043378783,1,-7,-2,0,1,8,10,35
1523067043378783,13,4,8,-1,0,-1,12,-8
1523067043380285,5,-5,-12,-2,-10,-5,-2,13
1523067043380285,-3,-2,4,2,15,-2,2,-6
1523067043399838,0,3,2,-3,-4,-7,8,7
1523067043399838,4,5,4,-1,-1,-6,-20,-1
1523067043401368,-1,-9,-1,-2,-2,-1,1,1
1523067043401368,6,-3,-15,-2,-13,-1,20,4
1523067043414375,-4,3,2,1,8,1,7,-7
1523067043414375,-5,-5,-5,-1,1,-4,-23,-11
1523067043420987,-1,0,0,-2,-2,-3,-10,9
1523067043420987,26,4,0,0,-4,-3,21,-20
1523067043437458,-11,1,4,0,0,5,-1,-18
1523067043437458,-5,-2,-11,0,-3,-2,-10,18
1523067043438941,8,0,1,-1,4,6,17,3
1523067043438941,9,-1,-6,-1,1,1,15,-1
1523067043459997,8,3,-2,1,1,-6,-14,17
1523067043459997,5,2,10,1,1,-2,-9,-14
1523067043462004,29,5,-13,-3,-6,8,3,2
1523067043462004,-10,4,-2,-2,5,-6,-14,2
1523067043474121,-5,-13,4,2,-2,-6,-16,-4
1523067043474121,-6,-5,-2,-2,0,3,8,0
1523067043481053,6,-1,1,-3,-3,-11,-19,13
1523067043481053,-10,4,4,0,-8,-2,-8,-5
1523067043497178,-31,-4,-15,-2,3,3,4,4
1523067043497178,13,1,12,2,0,-2,5,-10
1523067043499162,-15,-2,0,-1,1,1,-13,2
1523067043499162,-14,-2,6,-4,-4,-4,-21,2
1523067043519722,-4,-4,-1,0,-2,1,3,-10
1523067043519722,-8,-1,-6,-2,-1,4,10,4
1523067043521226,3,-11,4,2,3,4,22,-7
1523067043521226,12,-6,4,2,0,7,12,47
1523067043534763,-59,13,-13,-6,-5,-13,-27,-5
1523067043534763,28,-7,-6,0,0,4,13,-16
1523067043542280,-33,7,8,-2,-2,-7,3,14
1523067043542280,-19,-3,12,4,4,18,30,-9
1523067043557406,31,-8,-1,5,5,30,105,18
1523067043557406,-8,-13,27,-7,-3,-2,-26,12
1523067043558825,33,12,-66,-9,-6,-23,33,6
1523067043558825,4,1,29,8,4,25,90,-65
1523067043579880,-56,-6,-4,-6,-5,-18,-123,24
1523067043579880,-11,7,16,2,0,18,111,-27
1523067043581411,84,2,-7,-3,-7,-4,57,48
1523067043581411,-80,-7,-11,-3,-12,-82,-127,-14
1523067043593509,23,0,-5,1,6,39,21,22
1523067043593509,17,14,31,2,5,41,59,30
1523067043602442,-87,-21,-2,-4,-2,-22,-112,-104
1523067043602442,36,-6,-5,-5,-6,-20,-19,12
1523067043617482,-2,-7,3,1,-4,-20,-17,-21
1523067043617482,-28,-4,-35,-4,-6,-47,-87,-10
1523067043619011,8,11,22,9,8,31,33,20
1523067043619011,17,-1,5,-7,-7,4,10,20
1523067043639622,5,1,-27,1,-9,5,-13,-42
1523067043639622,11,-5,-13,-2,12,0,4,10
1523067043641574,-37,-2,14,-1,-3,-10,-32,-14
1523067043641574,7,1,-15,-2,0,3,4,-1
1523067043653297,22,3,11,-6,-17,-14,35,13
1523067043653297,-3,0,-16,5,1,-5,-46,16
1523067043662349,-2,0,9,4,18,18,17,-18
1523067043662349,-3,-2,-6,-3,-5,5,15,0
1523067043677448,14,-1,6,0,11,0,13,-2
1523067043677448,-1,-7,-5,-2,-8,-2,0,-5
1523067043678890,-3,-6,2,-1,-6,-16,-20,-3
1523067043678890,7,3,1,0,4,30,21,9
1523067043699951,7,-1,-3,-7,-3,-14,-1,-12
1523067043699951,-2,0,-8,-1,-1,-8,-26,-11
1523067043701452,1,-3,4,1,-7,-8,-5,9
1523067043701452,-4,-12,-9,-9,-2,-3,-21,-5
1523067043713483,5,-5,3,10,3,2,5,3
1523067043713483,-3,5,-7,-14,-4,-5,-10,-5
1523067043722622,1,0,6,4,2,11,14,9
1523067043722622,5,4,-7,-1,-2,1,-3,-1
1523067043737162,8,7,10,1,-1,-4,-9,0
1523067043737162,-2,-4,-7,-5,-5,-3,-3,-16
1523067043738665,12,-1,0,-1,0,1,-11,-1
1523067043738665,-5,-7,-22,-1,-6,-1,-4,-6
1523067043759758,-20,6,33,-1,6,-1,6,-19
1523067043759758,-3,1,-20,4,4,-5,-31,4
1523067043761225,4,2,5,-3,0,8,15,8
1523067043761225,4,2,-11,3,1,-5,-14,-7
1523067043773343,11,-6,11,-2,-6,-3,-1,23
1523067043773343,7,3,3,1,-2,0,4,-13
1523067043782282,-17,-1,2,-2,-2,-7,-1,3
1523067043782282,4,-6,-2,2,6,18,-7,2
1523067043797402,2,2,-5,0,2,-8,0,-6
1523067043797402,-3,5,0,1,-4,-2,4,1
1523067043798826,6,-15,-11,-3,-2,0,-2,1
1523067043798826,-1,6,4,-5,-4,-6,7,4
1523067043819915,6,1,-4,-1,0,3,-8,-4
1523067043819915,5,-7,-9,2,-1,-4,-8,12
1523067043821419,-36,4,17,-3,-7,-4,-11,-1
1523067043821419,9,1,-6,-2,3,-3,-8,14
1523067043833621,-8,-5,-3,-1,-1,3,-2,-38
1523067043833621,-1,-4,-3,-2,-4,-4,1,3
1523067043842665,6,5,-2,-1,1,1,-2,3
1523067043842665,11,3,3,2,-4,-4,-2,0
1523067043857206,5,7,3,-1,-2,-4,-1,1
1523067043857206,-1,4,7,2,1,2,5,-1
1523067043859153,4,-9,-10,-2,-2,-1,2,-6
1523067043859153,-3,-8,6,1,-6,-6,-1,-5
1523067043879685,-3,0,-14,-4,0,-3,3,24
1523067043879685,-1,0,6,1,-2,-1,-2,-25
1523067043881182,4,1,4,1,0,3,-6,18
1523067043881182,-21,-1,-1,-2,-1,-4,-6,-8
1523067043893295,14,1,-6,0,-3,3,4,15
1523067043893295,-11,-5,5,-3,-3,-1,0,-9
1523067043902238,10,0,-5,2,1,1,-11,-9
1523067043902238,-22,8,2,0,0,-15,0,-6
1523067043917366,-15,-4,4,-3,-6,11,-8,-37
1523067043917366,1,-3,4,3,10,2,3,9
1523067043918784,8,3,-13,-4,-6,-1,13,-8
1523067043918784,7,1,-4,-3,-3,-3,-23,-2
1523067043939865,11,2,6,-1,-2,-13,-32,-1
1523067043939865,5,1,-3,2,1,0,0,20
1523067043941343,6,-6,-8,-1,-4,-1,-1,6
1523067043941343,-4,8,2,-3,1,2,3,-3
1523067043953462,0,-16,-3,1,1,-2,2,2
1523067043953462,-1,-1,0,1,1,1,-10,12
1523067043962401,11,2,4,2,1,-1,3,-3
1523067043962401,13,4,-7,-1,-2,8,10,44
1523067043977472,-6,-3,-9,-2,-1,0,-2,-23
1523067043977472,3,4,0,-2,-4,0,10,0
1523067043978946,-13,-3,10,0,0,-3,-27,-7
1523067043978946,-34,-11,4,1,1,1,-3,0
1523067044000025,0,2,-11,-4,-2,-6,11,-1
1523067044000025,-7,-2,-4,1,0,0,-12,-6
1523067044001502,-9,-1,-3,-4,-5,4,30,18
1523067044001502,-10,-3,3,-2,-1,-1,5,-6
1523067044014070,47,-11,-8,-2,-1,-2,1,42
1523067044014070,-87,-11,18,-3,-4,1,20,-14
1523067044022191,9,1,-10,-2,-2,-2,-12,-30
1523067044022191,8,12,0,1,0,-6,-14,-21
1523067044037323,-11,3,11,4,4,-5,-39,-20
1523067044037323,12,14,-9,-2,-4,9,68,10
1523067044038736,-8,3,67,2,0,6,-35,10
1523067044038736,52,-13,-69,-9,-8,-37,-67,19
1523067044059808,11,29,11,4,9,36,-62,19
1523067044059808,26,-15,-18,-2,-3,6,9,33
1523067044061295,-38,-13,15,0,1,0,34,-89
1523067044061295,-14,12,33,5,1,-2,-3,29
1523067044082434,3,18,-6,-8,-10,-16,99,-24
1523067044082434,14,-9,24,7,7,-6,-86,-27
1523067044083857,-7,-7,-79,-6,-7,-16,59,7
1523067044083857,3,-4,40,4,6,33,9,-1
1523067044097425,-9,-9,-2,6,3,3,32,14
1523067044097425,-23,-5,8,2,1,8,26,-21
1523067044098921,19,9,-26,-9,-9,-32,-42,-1
1523067044098921,5,1,33,4,7,7,-2,-23
1523067044119978,1,-4,-24,-9,-8,-23,-6,21
1523067044119978,27,8,-13,-2,-4,-7,-21,-24
1523067044121481,2,-1,35,1,0,0,-48,25
1523067044121481,-3,-10,-15,-1,0,14,39,-1
1523067044142516,2,-9,13,2,1,4,-7,-14
1523067044142516,-3,0,-15,-7,-10,-1,12,4
1523067044144014,4,0,-9,2,15,11,29,15
1523067044144014,-18,-5,-5,-2,-12,-10,-1,-10
1523067044156103,-12,-9,-13,-1,6,-5,43,5
1523067044156103,6,2,-1,-8,-17,-8,18,4
1523067044165093,-6,2,-2,4,18,19,7,-8
1523067044165093,0,-4,-11,-5,-6,-9,3,-24
1523067044179611,-4,-6,1,4,3,0,-29,-2
1523067044179611,1,-3,3,-1,-8,-14,0,5
1523067044181614,9,0,1,0,4,9,5,33
1523067044181614,6,-3,-5,-2,2,-2,12,-5
1523067044202253,6,-1,0,-1,-3,-5,-19,-6
1523067044202253,-1,-3,-9,0,2,7,0,7
1523067044203674,-8,8,7,-1,-11,-9,-17,-5
1523067044203674,-1,-1,-1,0,3,-1,-10,-6
1523067044216795,-7,5,-2,-3,-5,-4,-7,-5
1523067044216795,11,-2,-2,-5,0,3,-17,-1
1523067044223311,-4,0,3,8,2,4,-9,-7
1523067044223311,-2,-7,-19,1,5,4,12,20
1523067044241360,-2,8,29,-8,-14,-3,7,-8
1523067044241360,3,0,-5,-1,5,-6,4,-3
1523067044242779,-6,-3,-5,1,3,-2,-9,-29
1523067044242779,-1,0,0,-5,-5,2,-5,26
1523067044262331,-19,-3,-26,0,2,-2,-7,-38
1523067044262331,5,-4,11,1,-1,-6,-12,14
1523067044263835,-5,3,7,0,-5,3,-1,15
1523067044263835,24,3,-4,1,-2,-5,-14,-13
1523067044276868,-10,-5,-7,-2,0,-1,-13,15
1523067044276868,-24,4,7,-1,-5,-4,24,-20
1523067044283472,25,-1,-4,1,6,4,16,10
1523067044283472,-2,-2,-3,-2,1,-4,4,-11
1523067044299931,-2,-4,-3,-2,-1,4,3,6
1523067044299931,0,2,-4,-1,-3,-3,-8,-5
1523067044301434,-3,-3,-2,-3,-7,-12,-36,1
1523067044301434,-2,-8,-13,1,-3,4,2,22
1523067044322488,0,12,16,1,4,1,2,-23
1523067044322488,0,-14,0,4,5,0,-3,6
1523067044324081,1,-4,-8,-6,-6,1,-3,13
1523067044324081,-4,8,5,-4,-2,-3,5,-4
1523067044336610,-3,-9,-8,-1,-4,-4,-2,5
1523067044336610,9,0,-7,0,3,-2,-11,11
1523067044343643,-6,-3,0,0,0,1,30,-5
1523067044343643,-5,-1,-1,-2,-3,-3,10,-17
1523067044361094,13,-2,-1,-3,-5,-2,-1,21
1523067044361094,-19,5,-10,2,6,-14,5,-8
1523067044362596,-19,3,26,1,-2,14,-4,-1
1523067044362596,-4,-5,-8,1,2,-2,2,-10
1523067044382232,-1,-2,-3,-1,-8,-2,-2,25
1523067044382232,3,2,12,-2,3,-5,-11,-26
1523067044383653,5,-4,-19,-1,-2,-3,10,15
1523067044383653,-11,-2,3,-2,0,2,-3,-26
1523067044396688,-2,-1,4,-1,-5,0,-7,-1
1523067044396688,14,2,-2,-1,1,4,-23,19
1523067044403444,-8,-5,-3,-4,-3,-7,-19,-8
1523067044403444,-1,4,2,-1,-2,6,15,4
1523067044419907,4,-7,-6,0,3,1,20,8
1523067044419907,-1,4,-2,-5,-8,-5,-5,4
1523067044421410,4,-1,-5,-1,-3,-4,-12,0
1523067044421410,5,3,10,3,6,2,-1,-3
1523067044442478,-7,2,-2,-4,0,0,18,-8
1523067044442478,-2,-2,-12,1,4,7,12,-4
1523067044443970,3,-3,13,-3,-5,-1,4,2
1523067044443970,-12,-1,-1,-1,3,1,-2,-2
1523067044456583,-3,-2,-1,0,2,-4,-9,-30
1523067044456583,-13,-3,-5,-6,-8,-4,-9,8
1523067044463601,11,-1,-12,1,1,-1,13,4
1523067044463601,-15,-21,2,3,-2,-5,-20,1
1523067044479563,-6,-3,-4,-3,-2,-2,8,13
1523067044479563,26,-1,2,-3,-5,0,9,19
1523067044481569,15,2,-4,-1,-2,1,-22,-5
1523067044481569,2,1,0,-2,0,-4,-5,-1
1523067044502209,11,-4,1,4,4,2,3,30
1523067044502209,18,8,7,-4,-7,-10,-46,-101
1523067044503628,-2,-9,-4,0,-2,-3,11,-2
1523067044503628,-1,10,-20,-7,-4,0,-1,13
1523067044516664,35,9,8,3,2,-3,-23,-8
1523067044516664,-5,-1,-4,-4,-1,-1,-1,25
1523067044523265,-17,-3,-4,1,3,0,0,-10
1523067044523265,0,6,10,-2,-4,-2,-4,-6
1523067044539808,15,-18,-7,-5,-2,-1,-6,-5
1523067044539808,14,-4,3,5,4,4,14,63
1523067044541229,-83,13,-14,-7,-5,-5,-6,-20
1523067044541229,53,-22,5,1,0,1,11,19
1523067044569806,-37,0,7,3,4,13,31,-12
1523067044569806,-69,-17,-16,-3,1,8,-11,-58
1523067044570806,0,-6,-1,-3,-3,-6,23,16
1523067044570806,99,32,10,-6,-7,-8,-60,-6
1523067044584847,3,-57,-16,-2,-1,-8,-69,25
1523067044584847,-99,-5,38,4,2,-9,22,-3
1523067044585348,-5,8,-35,-3,0,16,8,-2
1523067044585348,-52,-16,3,4,2,3,20,-43
1523067044598972,28,22,-4,-3,-4,0,33,8
1523067044598972,24,-9,44,1,1,16,49,100
1523067044599885,25,3,-4,1,0,-4,28,-20
1523067044599885,-33,18,-33,-3,-1,9,72,9
1523067044621526,28,5,2,0,1,14,42,16
1523067044621526,12,1,-10,-3,-1,-5,-25,-49
1523067044622445,4,8,15,-5,-3,-8,44,-11
1523067044622445,18,-7,-14,5,8,10,13,-15
1523067044644003,-2,9,-15,-3,0,-13,-31,-6
1523067044644003,28,2,-18,-4,-5,-3,-5,-16
1523067044645008,14,-14,10,-2,-17,-9,-36,17
1523067044645008,-4,-3,5,0,4,-8,-1,28
1523067044659132,-27,2,1,-1,-24,-1,-35,-45
1523067044659132,20,4,-5,3,39,1,-13,23
1523067044660044,-35,-2,12,10,-4,-3,-15,-16
1523067044660044,-24,-19,-3,-8,-12,-13,-33,-1
1523067044681751,-17,10,8,6,0,1,7,8
1523067044681751,10,2,-11,-9,-12,-1,8,-10
1523067044682180,35,1,1,-1,7,-3,-8,25
1523067044682180,-12,1,1,1,0,4,2,-29
1523067044704094,-13,-2,-1,-12,-7,-4,2,-4
1523067044704094,25,1,-15,-4,-9,-7,-1,-10
1523067044705006,11,-6,-4,4,14,5,-4,34
1523067044705006,-33,-2,33,3,-13,-6,-19,-20
1523067044719167,-12,-5,-35,2,14,3,22,3
1523067044719167,-4,3,4,-2,-12,-8,-50,-10
1523067044720112,7,5,4,3,7,0,-6,-5
1523067044720112,11,-5,-9,-11,-6,-3,0,10
1523067044743228,7,2,14,2,6,3,1,-1
1523067044743228,-6,-4,-6,4,-5,4,26,-8
1523067044743641,7,-1,11,-4,-8,-6,-12,-6
1523067044743641,3,3,1,0,0,-6,-10,3
1523067044764266,-59,-10,-11,-1,4,-1,6,-16
1523067044764266,15,21,7,-1,-6,-3,1,3
1523067044764695,11,-7,9,-3,-5,-2,-13,-13
1523067044764695,-21,-5,-12,1,6,2,2,-27
1523067044778869,30,7,11,0,-3,-5,-11,8
1523067044778869,-4,-3,-2,2,2,3,-1,-1
1523067044779872,-6,-1,-5,-2,0,2,1,4
1523067044779872,15,5,-3,2,2,0,0,-7
1523067044801430,-25,-6,10,-2,-2,-6,-6,0
1523067044801430,7,-7,-11,-1,-2,-2,9,-9
1523067044802431,10,-5,-14,-6,-1,0,-12,-14
1523067044802431,1,-1,7,0,3,0,-1,49
1523067044824989,16,6,-1,-4,-3,-3,0,-6
1523067044824989,14,-2,1,2,1,-2,12,31
1523067044825492,-13,-1,-1,2,-2,1,-6,-10
1523067044825492,-8,-3,-9,-2,-3,-4,-2,-13
1523067044839115,2,3,-14,0,-1,-4,-4,1
1523067044839115,3,-3,11,1,0,2,2,3
1523067044840030,5,-14,-6,-1,3,4,4,11
1523067044840030,-9,-5,-5,-3,0,-1,-6,-18
1523067044861589,13,14,4,-3,-4,-4,-1,-10
1523067044861589,-1,3,-4,3,3,2,-6,-5
1523067044862090,2,3,-8,-5,-9,-6,-2,-2
1523067044862090,6,1,22,0,8,2,5,14
1523067044884649,-11,-6,4,3,1,3,-4,2
1523067044884649,4,4,-8,-2,-9,-3,-1,-19
1523067044885731,0,1,10,2,7,2,0,10
1523067044885731,4,0,-20,-2,-3,-2,0,13
1523067044899340,2,-1,-4,-2,-2,0,-3,-9
1523067044899340,-3,2,11,-3,-1,1,-1,5
1523067044899847,3,3,-4,-1,0,-3,-1,-6
1523067044899847,8,3,6,-3,-5,-7,-2,16
1523067044921490,-1,-13,2,5,5,7,10,-9
1523067044921490,-7,-3,-1,1,4,0,0,-12
1523067044922405,-3,1,-1,-1,-4,-3,-1,-7
1523067044922405,-10,1,3,0,-1,-1,1,1
1523067044944465,9,5,11,-3,-2,-4,-4,2
1523067044944465,21,-6,-15,-3,-2,-2,4,7
1523067044945465,-3,3,-4,-2,-2,1,4,-6
1523067044945465,-24,-4,7,0,1,-1,-5,-11
1523067044959089,22,7,6,2,0,0,1,1
1523067044959089,-5,-15,5,1,2,4,2,-1
1523067044960008,4,-4,-11,-2,-1,0,-3,8
1523067044960008,5,-1,-7,0,-2,-1,1,14
1523067044981633,-11,-1,1,-4,-2,-6,-10,-67
1523067044981633,-17,-1,-3,-4,-4,-5,-3,-5
1523067044982584,-8,4,3,1,0,-1,3,12
1523067044982584,5,-2,-2,-2,-1,1,-3,4
1523067045004208,-14,-7,-17,-2,0,3,1,15
1523067045004208,5,23,14,3,-1,2,-3,15
1523067045004623,37,-12,-10,1,3,2,7,-24
1523067045004623,21,7,18,-1,-2,-4,-11,0
1523067045019247,21,0,-12,-1,1,0,13,18
1523067045019247,18,-14,-16,-1,1,3,-20,87
1523067045019663,-34,-12,8,-2,-3,-6,3,12
1523067045019663,6,-3,-7,1,-1,-8,-25,-17
1523067045041776,-36,-14,14,-1,-4,7,59,4
1523067045041776,-17,0,-18,-1,0,0,14,-17
1523067045042223,8,17,36,-5,-7,-18,-25,8
1523067045042223,-30,-15,-32,2,4,9,14,1
1523067045065286,-16,-7,0,-9,-10,-32,-75,-4
1523067045065286,-4,4,-14,4,3,16,49,-80
1523067045066290,-34,-9,14,-2,-4,-7,1,-7
1523067045066290,52,11,-15,0,-2,3,-14,-68
1523067045078821,-55,2,27,1,5,19,-37,11
1523067045078821,-8,-4,-2,-9,-9,-32,-101,24
1523067045079826,25,14,-32,-2,3,24,95,23
1523067045079826,0,-10,26,7,5,1,-11,26
1523067045101882,2,4,-6,0,-4,-12,-23,-43
1523067045101882,33,0,7,-1,-1,-3,-20,4
1523067045102386,-18,6,-25,-3,2,3,-72,7
1523067045102386,-12,4,-4,-9,-7,-4,11,4
1523067045124530,20,1,-1,2,4,7,4,41
1523067045124530,-19,1,11,1,1,0,40,-22
1523067045125446,16,-6,-10,0,-4,-12,-62,-21
1523067045125446,-18,1,12,0,1,1,15,-10
1523067045138562,33,2,-7,2,-8,-12,0,19
1523067045138562,-2,-2,-5,0,8,20,27,-6
1523067045146501,3,-7,10,-3,6,-2,21,5
1523067045146501,9,-3,-7,0,-3,4,4,14
1523067045161543,-6,3,-2,-5,-7,-9,8,-1
1523067045161543,3,-4,-14,-1,-5,-6,-2,-11
1523067045162577,4,1,26,8,3,8,14,7
1523067045162577,-10,5,-8,-4,-3,-2,4,6
1523067045184189,14,3,-2,-3,3,1,15,15
1523067045184189,-5,-5,4,0,-4,-4,9,-27
1523067045185103,-4,1,-2,1,4,0,-16,-9
1523067045185103,-8,0,-5,-2,-2,-6,6,4
1523067045199224,9,-9,-2,1,-2,2,14,13
1523067045199224,13,0,-7,4,5,-11,-5,1
1523067045200148,-8,-1,-1,-2,-6,11,14,2
1523067045200148,4,0,4,1,3,-1,4,21
1523067045221754,2,1,3,1,2,10,6,-2
1523067045221754,-22,-1,-3,-5,-5,-3,0,-22
1523067045222201,5,-4,-6,-2,0,-7,0,19
1523067045222201,-4,0,1,-1,-7,-2,6,-2
1523067045244263,12,-1,-6,-4,-2,-6,-4,-2
1523067045244263,6,0,8,-1,-2,-2,-12,8
1523067045244765,4,-5,-5,-1,1,-1,3,-7
1523067045244765,2,8,8,-2,1,4,-2,12
1523067045258884,13,-18,-20,-4,-6,-8,8,-9
1523067045258884,28,6,6,3,-1,6,0,1
1523067045259804,2,1,1,-2,-2,1,9,-1
1523067045259804,1,-9,-5,-3,-2,-6,-23,8
1523067045281445,0,6,4,0,-2,1,-1,-29
1523067045281445,6,1,2,-3,-2,-2,0,14
1523067045282363,6,10,-6,0,4,-2,6,5
1523067045282363,15,-2,-7,0,-1,-3,-5,-63
1523067045304005,-6,-4,-7,-1,4,5,-1,9
1523067045304005,2,-1,0,-2,-6,0,2,19
1523067045304923,0,8,0,-2,-2,-5,-2,0
1523067045304923,-35,-4,2,-1,1,-1,0,-18
1523067045319045,1,-1,-11,-3,-1,-1,-3,15
1523067045319045,-7,1,7,1,-1,0,6,-19
1523067045319964,-11,-2,6,0,-3,-5,-4,-14
1523067045319964,7,15,16,0,-3,-1,0,-7
1523067045341603,-20,-28,-20,-1,3,2,4,-16
1523067045341603,-15,4,1,-1,0,-2,-3,14
1523067045342551,8,-6,-8,-1,-5,-4,2,-26
1523067045342551,6,1,-6,2,0,8,-9,22
1523067045364165,1,14,11,1,5,1,0,-5
1523067045364165,-1,-8,-3,-6,0,0,3,20
1523067045365096,-5,-3,-2,-2,-3,-7,-9,-23
1523067045365096,-17,-7,-5,-2,-5,-1,8,-1
1523067045379205,-10,4,-2,-2,-4,1,1,0
1523067045379205,7,-6,1,-1,-1,-5,5,7
1523067045379791,11,-1,-5,-2,-5,0,-18,4
1523067045379791,-8,-9,-8,1,9,3,-3,22
1523067045401350,10,9,21,3,4,1,-3,9
1523067045401350,8,4,-2,-1,-1,-1,6,-4
1523067045402350,-10,-6,-5,-1,-4,3,4,-4
1523067045402350,15,-1,2,-1,-3,-1,-2,-7
1523067045423991,-22,-3,-5,-3,-3,-2,2,18
1523067045423991,-24,5,8,0,-2,-2,-10,-36
1523067045424911,18,-3,-1,-1,1,1,3,1
1523067045424911,2,-4,-7,1,2,2,11,15
1523067045439038,13,4,5,3,0,1,-11,-12
1523067045439038,-20,-5,-6,-1,-2,-1,-14,-4
1523067045439952,25,0,-7,0,-3,1,15,11
1523067045439952,-25,-5,30,-2,-3,-5,-4,39
1523067045461509,6,4,0,0,-2,-2,21,5
1523067045461509,17,-11,-9,-1,1,1,-7,44
1523067045462511,-2,4,6,0,2,1,-5,-9
1523067045462511,10,6,-10,-6,-7,-5,7,8
1523067045484066,13,-3,-1,-1,2,0,-1,12
1523067045484066,-7,-9,-8,4,3,1,0,-1
1523067045484571,-5,7,15,1,-2,-5,6,9
1523067045484571,-14,3,-12,-5,-4,-5,-5,-8
1523067045499269,-35,-7,-4,-3,-2,-11,-45,-28
1523067045499269,-34,6,3,-5,-6,-11,-6,-24
1523067045499774,21,-3,-4,6,4,16,14,53
1523067045499774,18,3,0,-1,-1,-3,18,-24
1523067045521831,-1,2,0,0,-3,-16,0,-5
1523067045521831,20,-14,9,-2,-5,-9,-31,18
1523067045522334,-28,-4,-2,-3,-1,-4,-14,9
1523067045522334,38,0,-8,-4,-3,4,3,6
1523067045543891,12,-7,1,3,1,-7,17,2
1523067045543891,4,2,2,-1,-2,-10,-36,-60
1523067045544893,-100,-11,-1,-6,-9,-22,-54,-47
1523067045544893,67,0,9,13,13,20,-51,54
1523067045558511,-45,-2,8,-3,-5,1,-49,-31
1523067045558511,1,-21,-39,-7,-11,-22,23,-27
1523067045566451,10,14,19,10,11,20,-29,43
1523067045566451,-61,-12,8,-6,-8,-33,-32,-29
1523067045581576,27,26,-1,-3,-3,-4,-49,-3
1523067045581576,7,-10,-18,6,9,15,75,64
1523067045582579,-11,-10,-10,-7,-5,-14,-78,-40
1523067045582579,-10,-2,-14,-6,-6,-3,92,-18
1523067045604133,20,-4,22,4,2,9,25,8
1523067045604133,-6,-13,-33,-3,0,-7,-34,-16
1523067045605075,47,19,15,5,1,4,35,14
1523067045605075,-60,-11,-50,-9,0,5,-21,-36
1523067045628619,-2,0,30,-2,-7,-10,0,-11
1523067045628619,-4,24,12,4,3,19,19,25
1523067045630623,39,-11,-13,-1,1,4,56,-11
1523067045630623,-21,6,2,-3,-7,-22,-35,16
1523067045634131,7,6,0,3,3,21,19,-8
1523067045634131,-10,1,7,-1,5,3,-7,8
1523067045642738,3,5,0,0,-1,1,23,-5
1523067045642738,-13,-3,17,2,-1,-3,12,1
1523067045656776,-3,0,-16,-6,-10,-5,-40,5
1523067045656776,10,-11,5,2,-3,9,8,-1
1523067045657192,6,-11,-1,1,1,-4,3,5
1523067045657192,19,6,3,-1,5,5,-8,11
1523067045672231,-33,-10,-7,1,1,-1,4,-32
1523067045672231,-1,8,7,-2,0,-4,-24,-4
1523067045678265,-11,-4,0,-4,-4,-3,15,-16
1523067045678265,10,-4,-3,2,-1,10,7,16
1523067045693290,4,-2,-7,-3,3,4,0,3
1523067045693290,-3,5,11,-3,-2,-1,-2,-5
1523067045700893,-8,-3,2,-3,-3,-11,9,-1
1523067045700893,6,-1,-4,0,6,14,-6,-14
1523067045716432,9,0,-3,0,2,-1,21,13
1523067045716432,-2,1,3,5,4,2,14,-9
1523067045717353,9,3,3,-3,-8,-11,-8,9
1523067045717353,6,-4,-5,-1,-3,3,30,-9
1523067045732457,-3,-13,-18,-1,-7,-2,9,13
1523067045732457,-6,3,7,-1,11,6,6,-28
1523067045738558,-31,-5,-8,-2,0,0,-21,-14
1523067045738558,6,-3,5,2,-2,-5,15,-14
1523067045753595,-1,2,1,-2,-4,-1,6,13
1523067045753595,7,5,9,1,-4,-3,17,76
1523067045761034,19,-4,-22,-10,-8,-2,-5,-90
1523067045761034,-14,6,0,-7,-18,-6,-46,-20
1523067045776597,4,-6,-5,3,14,7,16,9
1523067045776597,6,3,3,-6,-8,-6,-9,8
1523067045777579,6,-2,-2,3,2,0,9,15
1523067045777579,0,-6,1,2,1,-3,-8,4
1523067045792634,9,2,-11,0,-5,-3,21,0
1523067045792634,-3,4,22,-1,-4,-4,-9,-15
1523067045798632,-19,-7,-15,-5,-4,0,-3,-5
1523067045798632,4,-2,0,2,3,3,22,-11
1523067045813674,-1,6,4,0,-2,-3,-14,8
1523067045813674,-1,-7,-5,-2,1,1,0,-15
1523067045820776,-4,4,5,0,-4,-1,-3,13
1523067045820776,12,-2,4,1,6,0,-12,-8
1523067045836787,33,-5,-2,-4,-4,-2,4,23
1523067045836787,-38,1,-4,-3,-9,0,-8,-20
1523067045837235,1,-4,2,1,4,3,6,15
1523067045837235,3,-3,-9,-1,-5,-19,-8,4
1523067045852275,1,3,15,4,8,19,5,2
1523067045852275,23,-5,-6,-2,-1,-5,13,1
1523067045858379,5,3,1,-1,1,1,2,17
1523067045858379,-11,-4,0,0,0,0,11,4
1523067045873426,-7,4,-5,-3,-6,-11,-20,-6
1523067045873426,-3,-6,0,-2,3,1,-4,-10
1523067045880939,-4,1,5,0,-3,1,-9,3
1523067045880939,6,1,-3,0,1,2,34,6
1523067045896395,-5,1,8,-1,1,-1,9,0
1523067045896395,1,-3,-19,-2,-7,1,-12,-2
1523067045897396,5,-1,-1,-3,6,-6,-7,8
1523067045897396,-2,-1,3,4,0,5,-4,19
1523067045912436,5,-5,-9,-1,1,-2,7,-8
1523067045912436,-2,6,8,1,-3,0,-11,-31
1523067045918537,-10,-10,-16,-4,-6,1,4,8
1523067045918537,29,8,13,-2,-4,-6,-8,24
1523067045933493,8,-4,-1,2,4,-3,3,-5
1523067045933493,-39,-3,-11,-1,-2,-4,-3,12
1523067045941078,1,1,6,1,-2,-1,1,5
1523067045941078,-11,-4,-3,0,6,3,-15,-14
1523067045955770,1,0,-3,-3,-5,-4,11,-2
1523067045955770,20,4,2,-2,-2,-2,-1,-2
1523067045963283,-7,-3,-2,1,4,-1,-8,-8
1523067045963283,-4,0,2,0,0,3,-5,-1
1523067045972220,-9,-4,4,-3,-6,-9,-7,19
1523067045972220,19,-3,-5,-1,-3,0,16,9
1523067045978238,-49,4,11,0,0,11,-20,-8
1523067045978238,19,-5,4,-2,-6,-9,-14,1
1523067045993279,9,-16,-11,0,6,16,47,-53
1523067045993279,-37,7,6,-3,-2,-10,-16,-2
1523067046000885,6,0,2,-2,-1,-5,1,8
1523067046000885,6,3,-2,-2,-2,-4,-21,-8
1523067046017428,-10,4,-7,-2,-2,1,10,1
1523067046017428,6,1,-6,-2,-3,-10,-34,-1
1523067046023439,31,-1,8,4,4,22,72,-29
1523067046023439,-9,-13,-23,-3,1,-4,-42,-1
1523067046032379,-67,-23,2,1,0,2,26,16
1523067046032379,6,-3,10,1,3,19,63,-72
1523067046038481,9,-1,-17,-5,-6,-18,-15,-6
1523067046038481,-32,-14,15,5,1,-11,9,11
1523067046053437,30,9,-9,-2,-1,8,63,6
1523067046053437,-3,-4,3,-6,-3,-15,-41,-39
1523067046061087,-6,1,-7,1,2,-3,-42,6
1523067046061087,26,10,1,-1,-1,-4,-20,-16
1523067046075720,37,0,-12,-10,-9,-27,-64,-7
1523067046075720,-36,23,-12,-2,-3,-7,63,27
1523067046083145,-2,3,28,-3,-2,16,10,-6
1523067046083145,-3,15,-3,-2,1,3,-41,-13
1523067046092670,-15,3,-3,1,-2,-6,-43,21
1523067046092670,44,-5,-28,-5,-5,-7,-15,12
1523067046098270,-8,-3,-22,-3,-1,-7,-10,-1
1523067046098270,-5,-11,27,-3,1,12,-17,16
1523067046113311,-24,6,-1,4,4,2,-26,-38
1523067046113311,-20,-11,6,3,0,-5,-89,-11
1523067046120831,-6,-3,1,3,2,-3,34,6
1523067046120831,3,-7,-16,-5,-9,-14,-1,13
1523067046135870,5,1,7,-1,3,18,9,13
1523067046135870,-1,-3,12,6,17,2,-19,8
1523067046143305,-19,-13,-5,0,4,-3,-13,22
1523067046143305,-4,13,1,-5,-14,-1,23,-20
1523067046158933,9,-14,4,-4,-5,-8,-3,39
1523067046158933,10,-4,-10,4,6,11,19,-21
1523067046159850,8,-2,-1,-5,-5,-2,-1,14
1523067046159850,-12,-1,-12,0,8,-5,4,-8
1523067046173484,-3,3,7,-3,-8,-13,-13,1
1523067046173484,15,-5,5,0,-2,2,0,27
1523067046180991,18,-1,-12,2,-8,-9,-8,-8
1523067046180991,5,9,9,1,9,7,26,-1
1523067046196030,4,4,1,0,4,-2,3,-15
1523067046196030,16,0,2,3,-1,13,9,27
1523067046203548,3,5,7,-7,0,-4,1,-11
1523067046203548,-8,-4,-10,7,2,10,18,4
1523067046219095,-2,4,13,3,-1,-3,21,17
1523067046219095,49,9,-5,-2,0,-7,-30,-45
1523067046220010,-17,-7,4,-4,-16,0,-11,17
1523067046220010,-25,-10,-5,3,16,6,31,-6
1523067046233546,-1,-1,-5,0,4,2,-9,-8
1523067046233546,5,-3,7,-3,-7,-4,22,48
1523067046241129,8,4,4,1,-10,-3,6,-30
1523067046241129,-2,-4,0,-2,5,0,-14,1
1523067046255689,-7,-3,-10,-2,-5,-6,-4,-10
1523067046255689,-12,-2,3,-6,-5,2,5,10
1523067046263625,5,6,-6,2,6,5,8,-4
1523067046263625,-1,-2,-8,-2,-5,0,9,3
1523067046279252,-2,2,0,-1,5,2,-4,1
1523067046279252,7,-1,1,-3,-8,-2,-4,21
1523067046279670,-10,0,-3,0,4,-6,-5,-10
1523067046279670,10,1,1,-4,-9,-4,-1,-2
1523067046293204,1,-4,0,2,1,1,-14,-15
1523067046293204,-13,-5,-1,-2,-1,2,12,-3
1523067046300725,-3,-1,-3,1,4,-10,8,22
1523067046300725,9,4,0,-3,-4,8,-11,-13
1523067046315852,-5,1,-1,-1,-1,-2,-3,16
1523067046315852,-14,-10,0,0,1,1,3,-4
1523067046323369,8,-13,12,1,3,0,6,12
1523067046323369,-1,-2,-1,-3,-5,-3,5,2
1523067046338967,12,0,-6,-4,-4,-3,-5,-5
1523067046338967,2,4,-1,0,-2,-1,0,-7
1523067046339878,0,1,5,1,1,5,7,-5
1523067046339878,-6,1,0,-4,-5,-5,-11,2
1523067046353498,-6,-3,-6,0,-2,5,-5,-31
1523067046353498,-7,4,2,0,3,-4,-8,5
1523067046360932,6,-2,-5,-2,-5,-2,-5,-2
1523067046360932,-26,-3,0,-3,-9,-5,7,-3
1523067046376000,3,1,-6,0,6,-2,0,6
1523067046376000,0,-6,-3,-1,-3,1,-1,-24
1523067046383494,13,7,2,1,3,1,-4,-4
1523067046383494,0,-4,5,0,0,-1,6,12
1523067046399119,11,2,1,-4,-8,-5,-10,-8
1523067046399119,-6,-1,1,3,1,-2,7,5
1523067046400038,9,-1,-9,-3,2,9,-8,3
1523067046400038,0,-2,-3,-1,-4,3,12,-6
1523067046413621,-10,0,4,0,0,0,-9,15
1523067046413621,-10,-6,-4,-2,0,5,5,12
1523067046421122,17,-1,-8,-3,-3,-7,18,8
1523067046421122,13,-1,-7,-1,3,-3,-5,-3
1523067046435867,-14,5,9,-1,-7,0,0,-30
1523067046435867,-1,-1,-1,-2,3,-4,5,11
1523067046443297,-42,-8,-2,-2,-3,0,-6,-57
1523067046443297,12,-5,-5,1,3,4,2,-17
1523067046458921,10,5,-3,-1,-2,-3,0,11
1523067046458921,-6,-3,3,0,-3,-1,0,3
1523067046459838,15,5,3,-2,-2,-2,-3,21
1523067046459838,-33,-1,3,0,1,0,2,-25
1523067046473460,-16,-5,-9,-3,2,1,-9,-6
1523067046473460,14,-13,3,-1,-3,-3,-6,-3
1523067046480895,-5,1,9,3,-2,0,5,11
1523067046480895,-13,0,-13,-2,1,1,3,-30
1523067046496020,24,6,9,0,-2,-3,4,13
1523067046496020,13,4,-8,-3,-4,-9,-29,16
1523067046503537,12,-3,3,-4,0,-5,-47,-6
1523067046503537,101,-4,12,1,-2,4,23,58
1523067046527018,35,4,-2,-1,1,-8,-21,-11
1523067046527018,26,10,-1,-3,-2,-9,-52,-20
1523067046528026,1,3,-1,2,1,16,41,27
1523067046528026,23,-2,-4,-3,-5,-26,-35,4
1523067046541179,-49,-18,8,4,4,5,-13,-13
1523067046541179,4,13,-3,-4,-3,-3,41,-1
1523067046549201,-9,-6,-4,6,3,1,-72,30
1523067046549201,-15,9,0,-1,0,18,63,0
1523067046564241,-24,-11,-4,-5,-4,-34,-96,5
1523067046564241,10,-11,3,6,8,55,114,14
1523067046564743,-5,-1,-5,-5,-5,-22,-92,-26
1523067046564743,-9,-4,-9,2,2,14,88,7
1523067046587386,20,9,4,-1,-2,-18,13,-5
1523067046587386,-1,20,12,-1,2,32,56,16
1523067046587806,-9,1,1,-7,-6,-9,-15,-51
1523067046587806,-28,-19,-18,-6,-6,-32,-101,-3
1523067046600841,31,11,-22,7,7,12,95,45
1523067046600841,-13,8,31,-4,-7,-28,-68,-33
1523067046608888,-4,-12,-47,1,4,5,39,14
1523067046608888,9,25,50,-4,-5,-13,-13,-1
1523067046623985,17,3,1,2,-7,30,26,30
1523067046623985,-11,-6,0,0,-3,-12,-17,-4
1523067046624904,7,6,0,0,8,3,13,0
1523067046624904,-9,-7,-8,1,-1,-4,-41,0
1523067046647464,6,-14,1,-4,0,4,-5,6
1523067046647464,2,-4,-12,7,-6,-11,-10,7
1523067046647965,-24,-3,-1,11,-4,12,86,38
1523067046647965,-9,7,10,-29,-5,-6,-19,-56
1523067046661135,-18,0,4,-5,5,13,9,-5
1523067046661135,-13,-5,-16,-7,-2,-13,-22,-8
1523067046669235,2,-1,6,3,4,-7,-12,-6
1523067046669235,-4,2,-1,17,0,3,14,17
1523067046684276,-14,-6,-3,2,-6,0,2,-15
1523067046684276,-1,-4,2,-4,8,-3,-9,-9
1523067046684694,15,3,3,-15,0,3,14,9
1523067046684694,7,-4,0,24,9,11,7,15
1523067046707337,-13,3,1,-44,-9,-13,-16,-23
1523067046707337,-1,-13,-44,5,-6,-6,-29,34
1523067046708258,1,13,57,3,-2,-8,58,-58
1523067046708258,-2,-6,-16,9,2,14,-27,-2
1523067046720933,-5,-8,-16,2,7,-1,-4,8
1523067046720933,-3,2,9,-5,-3,-3,5,-16
1523067046729371,-8,-7,-16,-9,-5,-5,-14,6
1523067046729371,-7,-3,2,0,0,-1,-15,6
1523067046745415,-25,0,-7,8,-8,-3,8,-6
1523067046745415,-1,0,4,-4,12,5,14,-1
1523067046746444,17,2,0,0,-11,-5,-16,27
1523067046746444,-13,-3,-11,-2,6,2,14,-24
1523067046767473,1,-3,-6,2,0,4,-6,1
1523067046767473,-3,0,4,-7,-3,-5,-8,-2
1523067046767976,-6,1,-6,5,0,4,-11,-3
1523067046767976,-2,-1,10,-9,-5,-3,0,9
1523067046781140,5,-2,4,3,1,0,4,-9
1523067046781140,-5,-8,-9,0,0,0,4,-7
1523067046789252,13,3,-3,-2,-3,-4,-6,22
1523067046789252,-10,0,-2,-7,-5,-3,2,1
1523067046804254,-5,-2,-6,8,4,5,45,-9
1523067046804254,10,6,18,3,-4,-2,-1,-1
1523067046804704,-17,-7,-24,-4,1,2,-12,-1
1523067046804704,-3,0,2,-1,-3,0,4,8
1523067046827323,3,-2,-3,0,0,-1,-4,-20
1523067046827323,-2,-2,-5,-3,-3,-7,-20,-2
1523067046827822,2,2,4,1,-3,-3,-2,-28
1523067046827822,19,2,-4,-3,-5,2,9,1
1523067046840946,-2,-7,3,6,3,-10,-15,3
1523067046840946,1,2,-2,-4,0,15,12,5
1523067046848879,2,-2,5,-1,-3,-5,-9,4
1523067046848879,-3,0,-2,-2,-1,-4,-14,-21
1523067046864003,3,4,1,-2,-6,-4,-7,5
1523067046864003,-2,-2,7,0,-1,-7,1,-1
1523067046864921,-3,-8,2,2,2,0,-15,-2
1523067046864921,-2,-4,-21,-3,2,6,12,8
1523067046887498,-2,-1,-1,-3,-1,2,3,0
1523067046887498,11,1,-6,0,-1,-2,-1,-5
1523067046887981,-8,5,0,-4,-3,-4,-4,-21
1523067046887981,-3,-7,7,0,0,-2,-1,9
1523067046909676,0,4,6,-2,-2,-7,-31,-12
1523067046909676,8,-1,-6,-1,-2,-4,18,3
1523067046910679,-9,-1,-6,1,3,3,0,2
1523067046910679,-9,-17,15,3,-1,-3,-2,6
1523067046925215,5,2,-4,0,-1,-9,-1,0
1523067046925215,-1,0,-4,-1,-2,5,-9,1
1523067046926220,12,-1,-1,-4,-1,-4,-2,20
1523067046926220,5,4,-5,-5,-3,-7,3,-20
1523067046947360,-8,-1,-4,2,-8,1,-1,5
1523067046947360,-19,-3,-5,3,7,5,-7,26
1523067046948278,22,-2,7,0,1,10,28,20
1523067046948278,-32,4,-2,-3,0,-6,-21,-13
1523067046969835,16,2,8,0,-2,9,33,6
1523067046969835,-11,-2,-3,-1,-4,-10,-28,-12
1523067046970335,13,3,-6,-2,2,6,13,28
1523067046970335,-25,-18,9,3,-2,-3,-35,9
1523067046984372,13,0,1,1,5,24,81,15
1523067046984372,-48,2,-7,-1,-1,3,28,-16
1523067046984875,12,-18,-5,-1,0,4,-3,-7
1523067046984875,8,12,-1,-2,-4,-1,-5,-2
1523067047007435,-5,3,6,-4,-3,-20,-82,4
1523067047007435,-1,26,-5,-2,-1,-3,5,-7
1523067047007937,-27,-23,-7,2,0,20,46,-44
1523067047007937,9,13,-3,-4,0,-1,-7,-13
1523067047029996,36,-4,-4,-3,-1,-17,-33,35
1523067047029996,-76,-10,-8,-4,-3,2,69,-25
1523067047030496,27,17,-12,5,5,-5,-66,30
1523067047030496,31,19,20,-8,-8,-8,54,-14
1523067047044031,-51,-7,-16,-5,-10,-72,-80,-71
1523067047044031,60,-1,27,11,9,35,28,20
1523067047045042,-59,-9,-43,-4,-5,-17,-82,6
1523067047045042,-29,-12,0,1,3,10,3,19
1523067047067093,13,6,4,2,-1,5,16,-9
1523067047067093,5,-5,-16,-1,0,-12,-83,-39
1523067047068096,-18,14,36,1,1,4,31,-16
1523067047068096,53,-6,-23,-2,0,-12,-39,9
1523067047089736,-13,-6,-7,-1,-4,5,-15,-6
1523067047089736,-5,-19,23,1,1,-9,-50,15
1523067047090656,-26,4,16,-2,1,4,12,3
1523067047090656,-11,-3,-14,-2,1,-5,-13,-5
1523067047104257,-4,-2,6,1,-11,42,99,3
1523067047104257,17,-5,-6,-4,3,-11,-14,15
1523067047104693,23,1,3,1,4,-4,8,-6
1523067047104693,-14,1,-5,8,11,5,35,-2
1523067047127254,2,-10,-3,-1,-5,9,-43,1
1523067047127254,14,2,-6,-13,-6,-17,-16,-7
1523067047128279,5,6,6,-24,-50,-47,-15,-9
1523067047128279,8,2,0,22,23,51,25,4
1523067047149815,-2,0,4,15,23,15,0,20
1523067047149815,-1,10,9,-25,-6,2,8,-32
1523067047150315,12,-13,-6,7,5,-4,11,-10
1523067047150315,-7,-12,-7,-14,-23,-21,-13,12
1523067047163934,5,6,1,12,-7,-4,-1,-4
1523067047163934,6,3,-2,15,0,-12,19,45
1523067047164854,3,-4,-12,-17,-1,18,1,-37
1523067047164854,-3,-3,5,13,4,-4,-5,19
1523067047187482,-3,-4,24,-23,3,1,-3,-14
1523067047187482,-43,-5,-22,-6,-6,-15,-13,-21
1523067047187914,7,1,-8,21,-22,-3,-17,9
1523067047187914,2,0,-4,-18,40,9,3,11
1523067047210979,4,1,2,0,2,3,18,7
1523067047210979,-3,-4,0,14,-11,6,3,2
1523067047212980,7,-2,3,-14,10,-7,-2,0
1523067047212980,-3,1,-1,1,-19,-3,8,-9
1523067047224013,-21,2,-4,-3,6,2,-5,3
1523067047224013,22,0,1,1,1,2,6,-2
1523067047225058,-6,-3,-2,11,5,5,7,-1
1523067047225058,9,-1,-3,-7,-10,-9,-8,1
1523067047247157,-2,-2,-11,-8,-2,-1,-4,-5
1523067047247157,10,-4,1,7,-1,-1,4,8
1523067047248075,-5,2,8,1,10,5,1,-30
1523067047248075,-5,0,-5,-8,-10,-8,4,-4
1523067047269717,5,3,2,10,4,2,-14,13
1523067047269717,0,0,-8,-7,-2,-6,2,-16
1523067047270720,7,-3,0,-3,3,10,8,14
1523067047270720,-6,7,6,1,-8,-4,3,8
1523067047284256,2,-1,-11,2,-2,-3,-1,-6
1523067047284256,22,4,8,-1,-1,0,-2,9
1523067047284673,-1,2,-1,-5,-1,-6,6,2
1523067047284673,-15,-8,-4,3,-10,-1,-10,3
1523067047307317,-1,-2,-1,-1,17,12,21,3
1523067047307317,5,-2,4,-2,-2,1,1,0
1523067047308256,-1,-1,-3,0,-4,-2,-3,8
1523067047308256,-2,-6,-3,-2,0,1,1,-8
1523067047329813,24,5,5,-2,-12,-10,-3,1
1523067047329813,-8,-5,-1,1,4,7,-6,-4
1523067047330796,20,-1,-6,1,4,-3,-6,9
1523067047330796,-6,2,2,-7,-4,0,-3,-56
1523067047344331,-3,-5,-4,-3,-7,-1,5,5
1523067047344331,0,-1,5,2,-5,-2,0,-8
1523067047345333,-8,4,-4,0,12,9,3,2
1523067047345333,-2,0,7,0,-2,0,-1,10
1523067047367457,14,-2,-7,-2,-1,-3,-4,7
1523067047367457,-10,-2,10,-2,-10,2,12,1
1523067047367893,13,1,2,-4,2,-11,-13,1
1523067047367893,3,3,-1,2,1,0,-11,-1
1523067047389953,-10,-7,-8,-1,3,6,15,-4
1523067047389953,15,0,-3,0,-4,-5,-6,9
1523067047390453,3,0,2,-2,-2,-2,-6,14
1523067047390453,1,-7,5,-1,-2,-4,-2,-12
1523067047404077,-9,1,-3,-1,-3,-2,-9,-6
1523067047404077,16,-5,-9,-2,3,3,8,33
1523067047405078,-5,2,3,0,-1,0,13,-3
1523067047405078,-2,-1,-7,-1,0,0,7,7
1523067047427051,-1,3,7,-2,-5,-9,-28,-10
1523067047427051,-25,-19,-14,0,4,2,-4,-5
1523067047428054,-11,-6,-3,-1,0,3,14,1
1523067047428054,-8,0,-2,-3,-4,-4,-5,7
1523067047449722,19,4,8,0,-1,-1,-6,0
1523067047449722,-17,4,0,6,7,2,14,-8
1523067047451225,-21,-1,-7,-27,-9,-10,-13,-7
1523067047451225,35,7,0,8,0,2,-5,0
1523067047463478,-6,-3,-3,0,0,-5,-33,30
1523067047463478,25,4,0,8,-1,-4,-5,-2
1523067047472407,-6,4,29,-8,-4,-4,-14,-22
1523067047472407,-10,-9,-11,-3,-1,0,0,2
1523067047487476,-2,1,-2,-1,-1,8,5,6
1523067047487476,27,3,-2,-2,-1,3,40,7
1523067047488953,-6,-2,-8,9,-2,-16,-71,-12
1523067047488953,-6,-16,12,3,4,24,43,5
1523067047509509,0,-4,-1,0,-1,-11,6,-7
1523067047509509,-24,-6,-12,-7,-8,-42,-70,-24
1523067047511512,10,6,11,6,3,29,29,-7
1523067047511512,-17,-11,14,-1,-5,-21,-8,8
1523067047523626,10,-5,6,-3,-2,-7,-53,-12
1523067047523626,-8,-8,12,-4,0,-5,-25,-8
1523067047532569,-6,-9,3,10,-6,2,37,12
1523067047532569,13,10,-15,-6,9,30,85,7
1523067047547330,-22,5,17,-2,-4,-6,-33,-6
1523067047547330,-4,-12,28,-5,8,7,-13,34
1523067047548743,-3,17,5,10,9,10,45,-40
1523067047548743,5,-4,-5,-4,-13,-23,-1,-26
1523067047569808,19,4,-19,2,1,4,-57,33
1523067047569808,-11,6,-6,-2,-5,18,-12,-4
1523067047571301,5,-5,-14,-2,-3,-15,7,10
1523067047571301,-4,9,25,-4,-8,-14,-70,18
1523067047583413,-31,-3,-28,-7,-4,-3,34,-22
1523067047583413,-11,4,3,-2,0,-19,-85,-59
1523067047592357,67,-3,-10,1,3,19,-27,20
1523067047592357,-50,0,-2,2,4,-11,-8,-3
1523067047607461,0,-3,6,-1,-12,4,13,2
1523067047607461,8,-2,-18,5,27,20,43,16
1523067047608902,-3,-16,10,-4,-10,-16,-25,-7
1523067047608902,9,11,-10,-13,-15,-8,-2,-3
1523067047629955,-6,-9,-2,22,-2,-13,8,-20
1523067047629955,4,9,-1,-22,-4,28,9,-1
1523067047631489,-15,4,0,-4,16,20,89,17
1523067047631489,11,3,-8,7,11,4,-10,31
1523067047643494,18,-18,-20,-9,-4,-22,13,-31
1523067047643494,2,-6,-7,6,-37,5,22,5
1523067047652517,-4,4,5,9,21,-8,-34,9
1523067047652517,0,-8,-10,6,-3,1,-17,4
1523067047666636,16,4,6,-13,-15,3,41,5
1523067047666636,3,6,13,-11,13,-5,-16,1
1523067047673586,-11,-3,-12,-4,-20,-3,4,6
1523067047673586,-4,-7,-9,27,7,-3,-18,-22
1523067047689702,-30,-2,2,-4,12,5,-9,-51
1523067047689702,16,2,-11,0,-6,4,28,8
1523067047691120,-18,-2,16,-18,-20,-12,-27,6
1523067047691120,12,0,-8,-2,13,3,16,-6
1523067047703709,-8,-2,13,-2,4,11,9,15
1523067047703709,-6,5,8,3,4,0,14,4
1523067047712175,1,-14,13,9,-14,-2,9,-12
1523067047712175,2,-3,-49,-4,24,9,1,3
1523067047726713,11,5,-4,-15,-4,6,15,9
1523067047726713,-31,-10,-5,10,5,-5,7,-3
1523067047733325,-1,2,1,-1,0,-9,-13,1
1523067047733325,-1,-2,12,-16,-24,-5,-14,-6
1523067047749775,-2,0,-14,6,1,0,7,9
1523067047749775,7,-1,-6,-3,-1,-3,6,-14
1523067047751280,-8,-6,-14,-2,2,0,4,-3
1523067047751280,5,7,18,-4,-7,-2,-21,1
1523067047763397,-20,-7,5,5,2,12,18,0
1523067047763397,4,3,3,1,11,-1,1,17
1523067047772336,-4,-1,-19,-5,-3,-2,-4,-8
1523067047772336,9,3,7,-3,-13,-13,-14,-5
1523067047787429,4,1,1,-2,-2,5,20,11
1523067047787429,1,2,9,-1,-2,-2,-4,-1
1523067047788879,-7,-2,-9,3,8,6,1,3
1523067047788879,1,-2,-3,-4,0,3,0,-5
1523067047809935,2,9,12,-1,-4,-10,-14,1
1523067047809935,-6,-19,-16,-3,-13,-6,14,-2
1523067047811441,15,6,-6,2,4,-6,-13,-4
1523067047811441,-34,0,7,0,-11,-1,30,1
1523067047832494,2,-6,-5,-1,8,14,31,26
1523067047832494,2,6,7,-2,3,-10,-19,-46
1523067047833998,-8,4,1,-3,-3,-5,-13,3
1523067047833998,6,-12,-8,-5,-8,1,2,-2
1523067047846615,-3,0,-2,2,3,-4,-12,7
1523067047846615,-5,1,-8,-1,-4,2,11,-10
1523067047853604,28,3,2,1,1,0,7,5
1523067047853604,-3,2,1,1,4,5,-2,-2
1523067047869680,-12,3,-2,-3,1,-2,6,-8
1523067047869680,20,4,-4,-4,-10,-2,-5,21
1523067047871605,-32,-5,3,0,0,-1,-12,-53
1523067047871605,10,1,-7,-2,-2,-14,-2,13
1523067047899888,3,-2,-4,3,5,15,1,1
1523067047899888,3,3,0,-1,-6,-2,2,-1
1523067047901308,9,2,-4,-1,-4,-9,-41,8
1523067047901308,3,5,13,3,17,17,68,-5
1523067047907408,-7,3,-6,-6,-4,-13,-19,-34
1523067047907408,-12,-18,-9,-2,-2,-11,-5,10
1523067047908828,4,-2,-12,0,-3,4,-4,17
1523067047908828,-2,-1,9,3,6,-1,-18,-11
1523067047929912,6,4,3,7,0,1,15,10
1523067047929912,-5,3,-1,1,1,7,-3,-1
1523067047931390,-5,1,-6,-1,6,-2,10,3
1523067047931390,4,-11,6,-5,-3,-4,-15,-8
1523067047952473,0,-5,3,-2,-4,-4,-7,0
1523067047952473,0,0,-6,-3,-3,1,-3,11
1523067047953949,-8,-1,1,1,8,2,8,-2
1523067047953949,-20,-3,8,0,-1,4,-13,6
1523067047966624,14,-7,1,1,0,-1,0,5
1523067047966624,7,7,8,4,-2,-4,-23,-1
1523067047973642,18,3,-5,-4,-6,-7,9,41
1523067047973642,-42,-3,18,7,10,24,27,-7
1523067047989835,-6,-16,4,-5,-5,0,1,-7
1523067047989835,1,3,-1,1,2,11,41,3
1523067047991245,-10,4,0,-2,-6,-7,-39,-4
1523067047991245,10,0,-3,-5,-11,-24,24,-28
1523067048012391,20,-6,-19,-3,0,3,-81,-6
1523067048012391,-21,8,4,-2,1,17,86,9
1523067048013806,13,-19,10,5,2,0,68,7
1523067048013806,31,-11,-8,-2,-5,-13,-25,25
1523067048026839,-69,9,21,0,4,7,26,-28
1523067048026839,-44,-20,-24,-3,-8,-26,-49,-47
1523067048033441,9,3,14,5,5,21,-6,8
1523067048033441,12,5,-4,-1,-3,0,-86,6
1523067048049903,5,6,-19,-4,-5,-16,-38,1
1523067048049903,22,1,12,4,2,2,8,9
1523067048051406,-33,-5,-1,-7,-9,-26,-80,-38
1523067048051406,22,13,8,7,11,62,2,21
1523067048072463,-8,-22,-8,-7,-1,4,35,17
1523067048072463,13,26,39,2,2,2,-20,-33
1523067048073967,-12,-28,-68,-10,-9,-13,15,-19
1523067048073967,3,9,6,0,-2,-15,-1,-10
1523067048085998,22,2,-5,-3,-1,-8,-21,37
1523067048085998,-7,-4,-13,-1,-1,0,-1,0
1523067048095043,-9,-4,15,-2,-2,-2,11,-1
1523067048095043,3,3,-14,-7,-10,-30,-9,-8
1523067048109562,-5,-2,-4,3,-1,14,33,9
1523067048109562,18,-3,-1,2,-2,-6,-9,17
1523067048111566,15,10,13,10,26,19,2,5
1523067048111566,0,-5,-22,-7,-13,-1,26,40
1523067048132206,8,5,11,-2,4,-2,36,-46
1523067048132206,-4,-12,-6,-6,-11,-19,-68,-1
1523067048133624,-5,5,5,0,2,5,21,-11
1523067048133624,-11,3,-7,-2,-29,-4,-6,11
1523067048146158,6,-6,5,-12,53,6,18,6
1523067048146158,8,-6,-18,1,-2,10,9,-2
1523067048154680,-7,-3,-8,-3,-6,-8,-1,-3
1523067048154680,2,3,6,2,5,-11,6,-12
1523067048177383,2,3,-4,22,-25,-9,-24,-6
1523067048177383,-4,3,4,-26,1,-2,-2,9
1523067048178805,-23,-8,-11,-6,3,-1,0,4
1523067048178805,11,4,11,3,-15,-3,13,-22
1523067048192341,7,2,6,5,11,13,-2,1
1523067048192341,-1,1,-5,14,10,2,7,6
1523067048193844,-5,2,-5,-3,-17,-4,20,7
1523067048193844,0,-4,-8,-11,-1,-3,11,-2
1523067048205958,-8,7,11,7,-6,-7,-1,-2
1523067048205958,2,-17,-22,-6,-5,0,-13,2
1523067048214900,18,10,20,-1,-3,0,5,14
1523067048214900,-10,-8,-16,-4,5,-5,-15,-9
1523067048229961,5,2,-7,-5,-5,-3,-12,2
1523067048229961,-2,1,14,6,5,8,18,8
1523067048231472,5,1,-7,-3,0,3,-9,-3
1523067048231472,-10,-8,-10,4,15,1,-15,-8
1523067048252543,-1,2,14,-5,-17,-8,-5,-6
1523067048252543,10,6,5,-4,-4,-4,-13,7
1523067048254004,-5,4,6,3,-3,0,-6,-22
1523067048254004,24,-18,-23,-1,8,1,1,0
1523067048266537,-26,1,-2,-8,-13,-9,-2,6
1523067048266537,5,6,8,3,-1,-2,-2,-19
1523067048273609,6,-18,0,4,3,2,-6,7
1523067048273609,-4,-1,4,-3,2,1,-4,-1
1523067048289681,2,-1,-12,-1,-5,-1,12,-29
1523067048289681,-6,-1,5,1,0,-5,3,7
1523067048291604,-3,0,-9,0,1,5,8,1
1523067048291604,-10,-1,16,-2,-4,-2,-30,-12
1523067048312244,1,-6,1,-2,-1,-8,-3,7
1523067048312244,-5,0,-12,3,2,-1,3,4
1523067048313663,10,7,21,4,3,4,14,6
1523067048313663,-6,1,-3,1,7,6,8,7
1523067048325695,5,0,0,-4,-1,0,-1,5
1523067048325695,-9,-3,-8,-6,-14,-11,-2,0
1523067048334717,20,0,-7,0,8,-2,-30,-10
1523067048334717,1,4,13,-2,-2,0,19,17
1523067048349760,-13,0,0,2,1,6,14,5
1523067048349760,-7,0,-12,-2,-3,-1,-2,-38
1523067048351263,-10,-14,-5,-3,-7,-3,8,6
1523067048351263,0,5,1,1,3,-1,3,1
1523067048372406,20,3,0,-1,-3,-6,-7,4
1523067048372406,2,-4,10,-2,0,-1,0,14
1523067048373822,-11,-8,-15,-3,-2,-1,0,-6
1523067048373822,-3,-4,-5,1,4,-16,-10,-13
1523067048385943,-4,9,1,-1,-3,13,2,3
1523067048385943,19,-5,0,2,-5,6,17,19
1523067048394879,-2,1,-9,-2,11,-2,-30,-11
1523067048394879,-6,-2,-7,-2,-4,-5,1,-7
1523067048409933,5,1,7,-4,-2,-11,-13,12
1523067048409933,4,0,-3,-2,-2,-2,6,9
1523067048411449,2,3,5,-1,-7,2,13,4
1523067048411449,-4,4,4,1,6,5,-5,4
1523067048432479,2,-5,-13,-2,-3,-2,-4,-20
1523067048432479,-1,1,4,-3,0,-1,-7,-4
1523067048433983,3,1,7,-1,-9,-7,1,9
1523067048433983,-45,-4,6,-1,-2,-4,-20,-37
1523067048454623,6,-1,-8,-1,0,-1,-3,3
1523067048454623,-9,-6,-2,3,6,4,7,1
1523067048456583,-3,8,1,-4,-5,-2,-5,-5
1523067048456583,21,6,2,-3,-10,0,10,18
1523067048469642,2,-1,-2,-3,5,2,-2,0
1523067048469642,-9,-2,-3,-3,0,-5,-12,-10
1523067048471584,5,6,-3,-1,-3,2,23,9
1523067048471584,6,-5,1,0,3,2,-2,-5
1523067048492139,-5,4,-6,-5,-9,-10,-5,-4
1523067048492139,6,-3,10,5,7,4,-1,11
1523067048493640,-6,-2,9,0,1,0,-6,-2
1523067048493640,5,2,-7,-3,-4,-3,19,9
1523067048505760,15,1,-1,0,1,11,12,32
1523067048505760,-2,5,6,-1,-4,-6,-27,-22
1523067048514697,-2,-3,3,0,-1,7,73,4
1523067048514697,34,4,-7,-3,-2,-2,-9,-1
1523067048529822,-61,-24,8,5,1,-2,-13,-10
1523067048529822,6,7,3,0,-2,-4,0,14
1523067048531241,21,2,-5,-7,-8,-5,10,-17
1523067048531241,-7,5,3,5,3,-1,-41,38
1523067048553891,31,-12,-2,-7,-10,-17,-17,-63
1523067048553891,-51,1,-5,1,4,15,-55,-29
1523067048555306,30,3,-9,-2,-6,-19,75,12
1523067048555306,-66,2,-17,-8,-8,-35,-50,-88
1523067048574916,10,5,46,12,12,45,77,5
1523067048574916,-40,-40,30,2,0,4,-31,15
1523067048576418,61,15,-1,2,-3,-11,-37,27
1523067048576418,15,1,-10,3,6,28,5,5
1523067048589953,-25,-1,-18,-5,-6,-20,-80,-18
1523067048589953,31,12,-5,-6,-9,-27,39,-39
1523067048591458,-60,-25,-12,1,5,20,-54,-26
1523067048591458,14,-6,13,-2,-7,-8,-7,32
1523067048612512,6,12,-5,-4,-1,-16,36,37
1523067048612512,11,0,-14,1,5,15,-55,42
1523067048614044,-6,4,4,-2,0,-3,-21,-12
1523067048614044,3,0,-15,-2,-4,5,44,-15
1523067048626049,-5,1,-7,-2,0,2,-9,2
1523067048626049,0,6,2,-3,6,7,31,9
1523067048635073,-11,4,6,4,-1,-1,-4,0
1523067048635073,18,-9,7,1,7,10,-8,16
1523067048649196,-15,0,-2,-2,-8,-23,-15,-4
1523067048649196,22,-4,-23,1,-7,19,57,7
1523067048656129,-9,10,52,-1,21,2,-37,1
1523067048656129,-6,-14,-23,1,-4,-5,31,3
1523067048672257,13,0,-1,0,-3,-10,-56,0
1523067048672257,-3,-5,-17,-21,-12,-19,-9,-21
1523067048673677,-15,0,3,1,-11,8,17,2
1523067048673677,5,2,1,1,9,9,12,17
1523067048685791,1,-3,-10,3,-3,0,14,-19
1523067048685791,7,3,4,21,8,-5,-6,1
1523067048695736,-14,-7,-13,-22,0,6,-52,11
1523067048695736,5,2,10,-7,-5,-2,14,-5
1523067048708800,8,-1,-16,10,1,7,1,4
1523067048708800,3,7,19,8,-2,-6,3,4
1523067048715871,16,-2,-18,-9,-6,8,19,12
1523067048715871,-53,-6,-5,-4,10,-3,-9,-3
1523067048732407,-9,-11,2,-4,-4,0,14,-1
1523067048732407,1,2,-11,-3,-1,-5,29,4
1523067048733837,0,0,-14,8,0,-5,-7,-4
1523067048733837,2,-7,11,-1,-3,11,-2,-1
1523067048754956,5,13,-6,-6,-7,-1,9,16
1523067048754956,-3,-2,-3,-4,4,-3,25,-8
1523067048756397,-13,-3,-5,2,-6,-14,-49,-12
1523067048756397,11,3,-5,-2,-6,2,2,-25
1523067048769013,-2,6,12,1,9,2,-7,-19
1523067048769013,14,-8,-10,-4,-4,-2,11,3
1523067048775950,4,-4,-9,0,0,-3,7,15
1523067048775950,1,7,5,4,0,-2,-19,-7
1523067048791991,6,-3,3,-2,-2,-2,5,11
1523067048791991,9,-10,-3,-5,-2,3,-9,-4
1523067048794017,-6,-5,-4,2,-2,-5,9,12
1523067048794017,24,4,14,4,-1,-3,-6,8
1523067048815052,-33,-3,2,-4,-2,-4,7,9
1523067048815052,21,4,-11,-1,3,4,-9,9
1523067048816586,-3,-4,-5,3,-1,-5,-3,-5
1523067048816586,3,0,2,1,-1,-2,13,0
1523067048829644,18,-2,3,-2,2,1,-4,-1
1523067048829644,-14,7,6,-1,-4,-5,-9,-2
1523067048831097,-4,-1,12,0,-7,-3,-2,-8
1523067048831097,-8,-7,-6,-3,12,7,28,23
1523067048852236,8,4,4,0,0,3,-8,18
1523067048852236,-11,1,-8,-2,-4,0,-8,-3
1523067048853656,0,0,1,2,-2,-12,-8,-11
1523067048853656,-8,-6,-9,-2,-4,8,1,2
1523067048874711,23,4,-4,-3,-3,0,1,12
1523067048874711,2,9,-2,2,9,6,24,8
1523067048876216,-10,0,-5,-5,-7,-9,-50,-19
1523067048876216,2,2,8,-3,-4,-9,-9,-5
1523067048889836,-6,-7,-5,-1,2,-1,4,-11
1523067048889836,13,6,1,-2,-7,1,-8,-2
1523067048891256,-29,-12,-2,0,5,3,22,-2
1523067048891256,-3,1,3,-1,-2,-6,-1,2
1523067048912395,-16,-7,-16,-3,-12,0,6,-16
1523067048912395,8,-4,6,-2,7,-3,-6,2
1523067048913816,-6,-3,-9,-3,0,4,13,-1
1523067048913816,2,3,8,5,0,-2,-4,12
1523067048934935,5,-3,3,-2,-3,0,-1,7
1523067048934935,-13,-4,-6,2,5,-1,-24,-6
1523067048936376,3,0,-4,-2,-2,1,13,-2
1523067048936376,2,1,-4,-5,-5,-3,-8,-18
1523067048948994,0,-4,-2,-2,-1,-2,-5,-7
1523067048948994,-12,-2,6,0,-4,-2,-8,3
1523067048956013,12,4,2,3,6,4,3,5
1523067048956013,-1,-6,0,0,-3,-4,-3,-1
1523067048972472,-5,-2,6,0,0,-5,-1,0
1523067048972472,-17,-8,-4,-3,-4,6,2,-8
1523067048973978,30,2,-2,1,0,-2,13,5
1523067048973978,-18,1,-4,3,1,-1,-6,-7
1523067048995031,-1,-4,-9,-2,2,-4,-7,-5
1523067048995031,10,-1,11,-1,-4,-1,21,2
1523067048996536,-31,11,-1,-2,-1,-3,-16,6
1523067048996536,6,-2,-10,-4,-4,-7,-10,-13
1523067049009154,9,5,3,0,0,-2,1,24
1523067049009154,13,1,-9,0,3,11,33,-3
1523067049016088,19,1,1,-4,-5,0,11,-3
1523067049016088,-3,1,3,-1,-2,-6,-21,-5
1523067049032216,-7,-1,-2,3,5,8,31,5
1523067049032216,2,3,-8,-4,-4,-19,-36,2
1523067049033634,-29,-6,6,-1,-1,-7,-34,-17
1523067049033634,26,9,-10,-4,-1,6,-12,3
1523067049054775,20,-7,-2,4,6,17,67,12
1523067049054775,11,10,10,-1,-3,-2,-57,-31
1523067049056195,-19,0,-12,-1,-4,-9,20,17
1523067049056195,56,-2,-4,-2,-3,-17,-65,-69
1523067049069306,-54,-15,5,2,5,23,30,-21
1523067049069306,-13,-2,-1,1,2,3,-81,2
1523067049075771,34,-6,18,-1,-2,-2,67,-1
1523067049075771,-58,-7,-12,-7,-9,-23,-79,11
1523067049092388,21,7,-2,-3,-1,-2,23,33
1523067049092388,-31,-11,-3,-7,-9,-21,-37,-3
1523067049093807,4,-5,-12,2,-2,3,4,-2
1523067049093807,-6,-12,3,3,6,50,127,11
1523067049114862,-2,7,14,0,0,-4,-96,-25
1523067049114862,-22,-12,-20,-3,-2,14,-9,26
1523067049116367,18,9,-2,-5,-8,-21,-36,1
1523067049116367,-8,-3,3,3,-1,-11,17,-2
1523067049128484,-2,1,-24,1,3,0,-8,-8
1523067049128484,29,6,11,1,4,5,35,-2
1523067049137424,-3,-4,-7,-4,-7,-4,-19,-9
1523067049137424,-7,2,4,2,-3,-2,-10,25
1523067049152463,2,-2,2,2,2,2,-1,-18
1523067049152463,-21,-3,-2,0,-2,-13,-2,7
1523067049153967,1,-1,-1,1,6,13,10,-7
1523067049153967,-6,1,6,0,7,6,22,18
1523067049174524,13,12,4,-10,-18,-18,-41,40
1523067049174524,-12,-19,-28,0,0,1,39,-30
1523067049176528,10,-5,12,2,6,12,4,9
1523067049176528,12,9,5,-3,-8,-9,-12,4
1523067049188606,12,0,-10,-3,-6,-20,1,-5
1523067049188606,-25,-2,7,9,6,3,11,-1
1523067049197583,-2,0,-5,2,0,-8,-5,-7
1523067049197583,0,-3,6,-18,-2,5,-24,0
1523067049212204,-1,-4,-18,6,-7,-8,4,-23
1523067049212204,8,-3,-2,-5,-1,0,20,2
1523067049213626,-1,12,16,10,0,-1,-17,-1
1523067049213626,-8,0,4,-7,-1,-6,14,9
1523067049234764,-5,-8,-14,-5,2,6,-15,-15
1523067049234764,12,8,27,7,6,-1,-12,-1
1523067049236187,-8,-5,-12,-2,1,2,22,-6
1523067049236187,9,1,-2,-9,-8,-6,-17,-5
1523067049248299,-2,-8,-3,2,0,5,10,9
1523067049248299,10,4,-3,3,9,-5,11,27
1523067049257244,-5,-7,0,-2,-6,-2,-22,-5
1523067049257244,-7,-1,-3,6,-3,-3,32,3
1523067049272369,-11,-5,-1,-3,7,-3,-49,-48
1523067049272369,7,10,0,-9,-14,-2,7,3
1523067049273786,-3,0,-7,-3,2,8,2,7
1523067049273786,18,-1,-2,2,-3,2,10,-15
1523067049294924,1,4,10,2,1,-16,2,14
1523067049294924,3,-1,-6,-2,-4,12,5,-9
1523067049296346,-3,-5,-6,-7,0,1,3,3
1523067049296346,2,3,0,6,4,-2,-31,4
1523067049308377,2,3,5,0,-9,-4,0,1
1523067049308377,1,1,-4,-5,2,-8,-8,-12
1523067049317402,3,-1,1,1,-2,-3,-16,9
1523067049317402,-10,-10,-15,0,3,2,-3,-16
1523067049332442,3,-1,11,-1,-2,1,-12,-4
1523067049332442,-1,-2,-3,-4,-4,-2,4,11
1523067049334028,-2,0,-4,0,5,4,0,-8
1523067049334028,-4,-4,-4,3,2,-2,5,2
1523067049354590,0,4,5,-8,-6,-4,3,4
1523067049354590,1,-1,1,-2,-5,-3,-1,-4
1523067049356504,-3,-3,3,2,0,4,21,18
1523067049356504,-8,-6,-1,5,7,2,-8,-6
1523067049368582,1,0,2,2,5,2,-1,6
1523067049368582,30,-1,-3,-1,-1,0,11,27
1523067049377575,-4,4,0,-10,-10,-6,-11,-23
1523067049377575,-4,0,-4,-2,-10,-8,-3,1
1523067049392100,-15,-1,-4,2,15,6,13,-2
1523067049392100,5,4,15,2,-2,-2,-14,14
1523067049393606,2,-2,-7,-4,-3,-2,-10,-2
1523067049393606,1,-3,-6,2,1,-7,12,7
1523067049414660,4,-5,4,-4,-6,11,-4,-3
1523067049414660,-10,2,-1,-3,0,-2,1,-12
1523067049416165,-2,-2,1,0,3,1,-2,0
1523067049416165,-13,-1,-10,-1,0,-2,-8,16
1523067049428278,0,-1,-7,-2,-4,-14,-21,-19
1523067049428278,-11,-4,-3,-2,-1,4,-3,-8
1523067049437221,-2,-4,2,-2,-4,-5,-15,-3
1523067049437221,6,0,0,-1,0,-1,-3,3
1523067049452344,2,-1,2,-1,-5,0,5,6
1523067049452344,34,7,3,0,1,3,21,-3
1523067049453765,-5,-4,1,1,6,1,-12,-29
1523067049453765,5,4,4,-4,-5,-3,-8,15
1523067049474825,-3,0,-11,-2,0,0,12,0
1523067049474825,-3,-10,0,-1,-5,-8,-7,-26
1523067049476324,3,-2,1,0,1,3,8,12
1523067049476324,-5,-1,0,0,3,7,5,1
1523067049488459,5,2,-3,-1,-1,0,-7,1
1523067049488459,-16,-7,-3,-2,-4,-9,2,1
1523067049497381,21,-1,-7,0,-1,-8,-28,-3
1523067049497381,-8,-15,-1,0,2,5,9,13
1523067049512422,3,1,21,-1,-1,-7,-21,0
1523067049512422,-12,2,-2,3,3,12,34,9
1523067049513960,-4,4,9,-1,-2,-2,-19,-5
1523067049513960,-12,-17,-15,-5,-7,-40,-46,-38
1523067049534981,13,-2,-19,0,4,16,-10,3
1523067049534981,-60,16,-9,-7,-7,-24,-46,-8
1523067049536485,6,-10,8,5,2,-4,-33,-11
1523067049536485,-10,-7,4,-1,-2,-13,-4,-13
1523067049548599,-11,2,8,2,2,9,64,38
1523067049548599,27,8,-6,-2,-3,-16,-2,-10
1523067049557540,-7,-5,-38,0,-1,2,-16,-27
1523067049557540,67,19,77,0,-6,-6,-33,27
1523067049572166,-43,-16,-52,-7,0,-7,-1,-8
1523067049572166,37,9,8,-3,-6,-15,27,-21
1523067049573584,-7,1,-1,4,9,43,23,40
1523067049573584,20,11,-13,-3,2,27,-32,29
1523067049594861,-20,-12,19,-7,-11,-40,36,-40
1523067049594861,1,-28,-28,0,1,17,76,27
1523067049596279,-11,5,-5,-8,-6,-22,-50,-5
1523067049596279,-22,9,-5,-4,-3,10,2,-10
1523067049608313,23,7,4,4,2,-9,-74,16
1523067049608313,-4,-14,15,1,1,8,-7,2
1523067049617336,-4,-2,-16,2,2,-3,38,-20
1523067049617336,-20,-22,10,-2,-2,-13,13,-7
1523067049632518,12,4,-3,-3,-11,4,36,-11
1523067049632518,10,-2,7,2,8,9,-41,3
1523067049633993,15,1,5,-4,-5,2,20,15
1523067049633993,3,6,-15,-2,5,1,7,12
1523067049654633,10,-2,-3,2,-1,13,44,-11
1523067049654633,-32,-5,7,-2,3,7,-14,3
1523067049656552,3,-2,2,-4,-12,-12,22,-46
1523067049656552,-8,6,-12,4,12,9,-8,29
1523067049668613,5,-4,17,1,-4,3,-10,-30
1523067049668613,0,7,-2,7,5,3,0,17
1523067049677611,-14,-1,1,-10,-2,-7,-1,7
1523067049677611,2,2,-7,-1,-8,-11,0,-14
1523067049691647,-24,0,4,0,3,7,21,-8
1523067049691647,8,-2,-4,6,-6,5,-31,-1
1523067049698248,-3,1,-6,-6,2,-7,-3,12
1523067049698248,-7,-1,15,5,-4,7,37,-12
1523067049714792,5,1,-4,-15,-1,6,-28,21
1523067049714792,-14,-5,-15,-4,4,-4,-10,-18
1523067049716212,0,1,15,6,-2,4,21,17
1523067049716212,17,2,-13,1,2,8,3,-15
1523067049737350,-2,-2,-5,1,2,1,-20,10
1523067049737350,4,-1,4,3,-12,-32,-22,-2
1523067049738772,-4,-12,-1,-2,4,15,40,2
1523067049738772,6,-2,-10,-1,6,4,6,-18
1523067049751501,-4,-3,-2,3,2,-2,-15,3
1523067049751501,2,2,3,-6,-5,-5,0,25
1523067049758439,2,2,4,-3,-13,-10,-3,8
1523067049758439,-6,-1,-1,1,1,9,10,-15
1523067049774482,7,-2,-2,5,7,0,8,10
1523067049774482,-8,1,-3,-7,-3,-1,-18,-17
1523067049776487,-3,5,1,0,-6,-10,-11,16
1523067049776487,-7,-4,-11,-3,-2,-1,4,-1
1523067049797128,3,10,-5,-2,0,-4,-20,-6
1523067049797128,15,-7,-1,-5,1,9,23,-5
1523067049799048,5,0,2,2,3,-2,-17,-4
1523067049799048,-30,-4,-5,-1,-3,-3,-2,9
1523067049811634,-3,8,-1,2,0,-5,-15,-23
1523067049811634,0,-4,-6,-2,-2,6,23,-1
1523067049818628,2,6,2,-1,1,-3,-8,9
1523067049818628,-20,0,2,-1,-3,-3,0,-31
1523067049834723,-2,-4,0,-4,1,-8,-3,-1
1523067049834723,-7,1,2,0,-1,5,2,-3
1523067049840658,8,2,1,2,4,1,9,-1
1523067049840658,-6,-4,-4,-2,-1,-3,-12,-2
1523067049857204,4,-2,5,2,0,3,-2,4
1523067049857204,-4,3,2,-2,-5,-7,-6,-10
1523067049858704,-16,-3,1,-3,2,8,4,-4
1523067049858704,9,-4,-3,-4,-5,-7,2,8
1523067049871827,2,0,1,2,-2,3,-5,2
1523067049871827,-6,-4,0,6,11,10,6,0
1523067049878344,-8,-1,-5,0,-1,3,-4,-3
1523067049878344,8,2,-2,0,1,0,-4,9
1523067049894800,9,-1,7,-7,-10,-11,-9,4
1523067049894800,5,2,0,-4,-10,-5,10,6
1523067049896304,0,-11,-9,1,6,-3,-5,1
1523067049896304,-1,6,13,0,-5,0,11,-4
1523067049917423,-12,-16,-11,-3,2,-2,-5,-6
1523067049917423,10,2,2,-3,-2,0,-3,-4
1523067049918864,-8,-2,-1,-1,-3,0,2,-1
1523067049918864,17,-1,-5,0,-2,-2,3,5
1523067049931500,-11,2,-2,0,1,3,-6,7
1523067049931500,-7,-4,1,0,1,0,-11,-12
1523067049938600,4,-4,-6,0,-3,-3,4,12
1523067049938600,-4,12,1,-6,-2,-1,-2,-20
1523067049954643,6,0,-4,1,2,2,-3,7
1523067049954643,-8,-4,-15,-1,4,0,-16,-10
1523067049956569,4,4,9,-1,-10,-6,-7,-4
1523067049956569,-19,-6,-2,1,-1,3,-3,8
1523067049977207,7,-2,0,-2,-2,-5,-5,-11
1523067049977207,-25,5,4,2,2,0,-11,-3
1523067049978625,0,-5,2,-1,1,0,19,16
1523067049978625,6,-1,-7,0,-2,-1,1,13
1523067049991781,8,1,-4,-1,-3,1,14,-3
1523067049991781,-16,4,25,0,-2,-3,-15,7
1523067049998385,-5,-6,-21,-1,1,5,8,-10
1523067049998385,12,2,21,2,1,-1,-11,8
1523067050014925,23,-8,7,2,1,5,41,12
1523067050014925,-56,-3,-2,-3,-1,-1,15,17
1523067050016345,-1,13,1,-5,-4,-10,-53,-24
1523067050016345,-30,-9,-11,-2,1,-20,-39,-11
1523067050037447,2,9,12,6,1,4,-28,9
1523067050037447,24,-6,-9,-8,-8,-4,8,4
1523067050038906,1,1,-9,1,2,-3,58,-34
1523067050038906,-58,13,4,-9,-8,-17,9,8
1523067050051539,22,2,-3,3,-1,2,75,26
1523067050051539,-45,-21,-15,-1,-1,1,-19,-3
1523067050058457,-9,11,16,0,0,-5,-97,3
1523067050058457,40,15,11,1,1,6,76,24
1523067050074502,0,7,-13,-1,0,3,25,22
1523067050074502,3,-27,-37,-10,-7,-1,40,-6
1523067050076505,12,8,10,2,2,0,9,13
1523067050076505,5,-4,6,3,2,-3,-38,-10
1523067050097061,-17,3,11,-4,-4,2,4,-30
1523067050097061,33,2,-3,4,2,-4,7,-8
1523067050099100,-7,-5,9,-2,-2,-7,-13,-11
1523067050099100,14,-7,-4,1,-1,15,10,0
1523067050119820,-15,3,0,-2,-2,-7,-19,-13
1523067050119820,13,6,-1,-1,-3,-14,-25,-2
1523067050121256,12,-5,10,-3,-1,1,5,8
1523067050121256,3,-5,-5,3,3,11,33,27
1523067050134876,8,-3,-1,1,1,-4,-35,26
1523067050134876,9,6,18,-2,1,-6,-28,-1
1523067050136296,10,0,6,8,8,22,38,69
1523067050136296,0,-19,-30,-6,-4,4,-44,-115
1523067050157354,-15,-12,3,-10,-9,-10,-55,16
1523067050157354,14,16,12,10,1,-5,-7,2
1523067050158856,-10,-17,-10,-11,-7,-32,-8,12
1523067050158856,19,6,-5,6,-10,6,-4,50
1523067050170979,4,6,-6,14,-2,5,18,-16
1523067050170979,5,6,10,-23,11,10,16,-35
1523067050179913,-11,-10,-18,9,-5,-2,-26,-32
1523067050179913,2,5,26,-16,-7,-3,3,-5
1523067050195452,-4,-6,-16,-1,-4,-4,3,-22
1523067050195452,-1,-15,-5,7,-1,4,13,17
1523067050196973,18,8,12,13,-4,3,2,-5
1523067050196973,-3,-7,-17,-1,6,-5,-13,-5
1523067050217510,-8,2,7,-5,4,0,-6,-6
1523067050217510,18,3,6,-5,-5,3,0,14
1523067050219098,7,-1,-16,-8,1,1,42,-10
1523067050219098,-23,-13,-11,-1,-5,-20,-51,-43
1523067050231060,11,-1,10,4,3,11,22,21
1523067050231060,-4,1,-6,5,7,6,-15,-18
1523067050239834,1,-3,-3,-6,-1,3,7,-1
1523067050239834,5,-2,0,0,-3,-10,12,11
1523067050256378,-2,-3,-4,-3,-2,-5,-47,-21
1523067050256378,-10,2,-5,1,-3,2,20,-9
1523067050257884,-10,2,4,-4,-4,2,-7,9
1523067050257884,9,5,17,6,6,6,1,-2
1523067050277487,-13,-15,-18,-5,0,-2,-7,-7
1523067050277487,3,-10,-2,-1,-6,-2,3,7
1523067050278939,-13,-3,-15,-3,2,0,-1,-9
1523067050278939,3,5,10,1,4,6,10,9
1523067050292475,14,4,10,-6,-6,-14,6,5
1523067050292475,3,5,-6,5,1,15,2,-4
1523067050299995,14,-5,-5,-2,1,2,2,-2
1523067050299995,-21,-6,-7,0,-2,-2,-5,-21
1523067050314618,-3,3,1,-2,-1,1,4,2
1523067050314618,0,0,-9,-2,-3,-9,-13,5
1523067050316538,-5,-1,6,0,-3,-1,-6,-5
1523067050316538,3,-1,-6,2,3,8,14,-1
1523067050337180,-7,-10,-14,-4,-3,-6,-2,-8
1523067050337180,-2,9,16,2,-3,-4,-1,-1
1523067050339132,-7,-5,-4,-1,1,4,5,-29
1523067050339132,15,4,-5,-3,-4,-5,1,18
1523067050351161,-8,-1,2,2,1,0,5,7
1523067050351161,4,0,-1,-1,-5,-5,-33,-18
1523067050359794,-9,-3,11,-2,-5,-1,13,-1
1523067050359794,-3,-7,-19,2,14,4,8,12
1523067050374914,1,3,-3,-4,-4,-2,-34,-10
1523067050374914,-1,2,6,0,0,3,33,12
1523067050376336,-3,3,-6,0,1,0,-10,-3
1523067050376336,-3,-7,3,-2,-3,-2,-13,-8
1523067050397914,6,8,-1,3,0,2,11,3
1523067050397914,-35,-9,-25,-3,0,-4,-1,-2
1523067050399397,-2,2,0,-2,-1,-3,-6,4
1523067050399397,5,3,1,-3,-5,-2,9,9
1523067050411014,-6,3,5,0,-1,0,-8,-24
1523067050411014,6,-5,-2,3,3,4,8,4
1523067050419952,7,5,3,-2,4,-2,1,24
1523067050419952,-22,4,3,-3,-7,1,-3,-2
1523067050434573,1,-2,2,0,-2,2,12,4
1523067050434573,9,1,2,0,6,0,-8,1
1523067050436558,-10,-3,-5,1,0,0,-3,8
1523067050436558,10,5,6,0,-1,0,20,-15
1523067050457050,8,-4,-4,-3,-1,0,-17,3
1523067050457050,6,1,8,-3,-5,-4,-15,5
1523067050459055,-7,0,-1,3,-1,1,60,-11
1523067050459055,3,0,-11,-3,-2,-6,-19,4
1523067050471086,6,9,0,0,1,3,15,-7
1523067050471086,43,10,1,-2,-3,-7,3,-2
1523067050479612,-24,-8,-10,-7,-3,-3,-23,-3
1523067050479612,1,-2,1,-2,-1,0,-10,6
1523067050494733,2,-7,-13,-2,-2,-4,19,-3
1523067050494733,-1,4,3,0,-2,-3,-32,1
1523067050496155,6,2,1,0,-2,0,-22,-7
1523067050496155,10,-7,-7,1,1,6,23,26
1523067050517295,-39,-11,4,-4,-1,-9,-24,1
1523067050517295,-10,4,-6,-2,-3,4,-6,0
1523067050518714,9,-8,7,2,2,4,16,-10
1523067050518714,-8,-5,-4,0,-6,-1,-63,14
1523067050530829,7,2,1,-6,-3,-3,28,-19
1523067050530829,-10,-1,6,18,26,9,-41,13
1523067050539776,-15,-4,-1,1,-10,-2,-50,-3
1523067050539776,11,-4,1,-22,-4,-2,74,-9
1523067050554906,3,-3,-29,17,22,7,11,14
1523067050554906,-5,7,12,-6,-22,-23,-62,-18
1523067050556314,3,-11,-26,2,11,19,6,-4
1523067050556314,-17,0,76,3,-8,-13,-37,-20
1523067050577408,-6,2,-38,-10,-3,-9,-65,19
1523067050577408,-10,-10,-19,-4,0,2,81,-13
1523067050578873,13,7,12,-1,-13,-4,3,14
1523067050578873,51,14,0,6,2,-1,-15,26
1523067050590908,-44,-20,4,-2,12,13,78,-51
1523067050590908,2,-7,2,2,0,2,-4,3
1523067050599931,-5,-3,37,-7,-8,-21,-19,-6
1523067050599931,-2,-10,-62,-2,-5,-3,-38,-10
1523067050614053,7,10,31,6,-1,-4,-20,-7
1523067050614053,0,-8,-12,-4,-5,4,36,8
1523067050621077,6,1,-6,-5,0,-2,-4,42
1523067050621077,-28,-7,-6,1,7,-11,15,-50
1523067050637529,22,-4,-2,5,-30,-15,-23,89
1523067050637529,-7,5,26,-9,-3,19,24,-64
1523067050639033,3,3,-10,4,45,8,-27,0
1523067050639033,-5,-6,-5,1,-2,-4,2,7
1523067050659678,1,1,-7,-8,-12,-3,-2,27
1523067050659678,4,-3,-4,0,-12,-5,24,1
1523067050661125,-9,11,4,0,-14,-10,9,-9
1523067050661125,7,-1,-3,-1,2,12,10,-1
1523067050674708,6,6,21,-3,1,-2,-5,-22
1523067050674708,0,-2,-5,-6,-2,-10,-35,14
1523067050680729,-3,12,28,18,-2,5,17,-3
1523067050680729,-6,-3,-3,-14,-1,2,-1,-24
1523067050697189,-1,-3,-1,-16,-2,13,3,0
1523067050697189,39,0,2,5,7,4,31,26
1523067050698694,-10,3,-3,-4,-6,-5,10,12
1523067050698694,-2,-7,-12,14,-6,-6,5,14
1523067050719749,-5,-3,8,4,5,7,-27,-45
1523067050719749,-7,3,-5,-6,6,1,-6,6
1523067050721252,7,-4,-7,-8,-7,-2,13,-1
