timestamp,emg1,emg2,emg3,emg4,emg5,emg6,emg7,emg8
1523144494596519,10,4,-9,5,0,-4,-23,0
1523144494596519,-9,-1,9,-5,-3,2,17,15
1523144494611057,8,-5,4,1,4,1,-2,3
1523144494611057,-4,0,-7,-11,-10,-5,3,10
1523144494613063,-19,-6,14,3,0,-4,-13,-16
1523144494613063,7,1,-37,-8,0,-4,-4,-9
1523144494633623,2,6,2,6,-4,-5,-9,-4
1523144494633623,0,2,-4,-11,-2,3,7,7
1523144494635122,-2,0,4,1,3,0,6,-1
1523144494635122,6,3,5,7,-6,-2,-8,8
1523144494647659,-19,-5,1,-4,2,0,3,-61
1523144494647659,-14,-9,-6,-8,-4,-3,6,4
1523144494656185,27,11,-11,4,-2,-3,-8,-3
1523144494656185,-4,-2,13,1,0,-2,-1,-3
1523144494671218,4,0,-8,-5,-2,-2,-1,14
1523144494671218,-21,0,2,-2,3,-1,0,2
1523144494672722,3,-1,1,6,-2,0,-2,-1
1523144494672722,-10,2,0,-1,2,1,0,-1
1523144494693778,5,-8,10,-4,1,-2,1,12
1523144494693778,3,-13,5,-1,-2,2,2,-2
1523144494695281,-4,-2,-11,0,-1,-1,-2,12
1523144494695281,5,2,3,2,1,-1,-4,-1
1523144494707313,-3,-1,-2,2,-1,-2,-2,1
1523144494707313,6,1,-6,-4,-2,-2,5,-1
1523144494716337,4,-2,4,-2,-5,-5,5,-11
1523144494716337,-4,1,-13,-4,-2,-1,-5,1
1523144494731378,-2,3,-1,2,1,4,4,-14
1523144494731378,3,-1,-4,0,2,2,2,0
1523144494732886,-9,0,11,-1,-4,-1,-5,1
1523144494732886,-4,-5,-18,0,-2,-3,-3,-3
1523144494753938,8,3,2,-2,-1,-4,-2,7
1523144494753938,2,-3,-3,-3,-1,-1,1,-4
1523144494755442,-16,-4,-4,2,0,4,5,-2
1523144494755442,2,-2,3,2,2,3,0,1
1523144494775997,3,1,8,-2,1,0,0,8
1523144494775997,-8,3,-3,-4,-4,0,0,-6
1523144494778001,0,-5,-5,2,1,1,0,6
1523144494778001,0,0,14,-3,-2,-3,-4,-6
1523144494791036,-2,-1,-9,0,-1,0,3,-1
1523144494791036,-3,1,-2,-3,-3,-1,-2,-3
1523144494792540,6,-4,-9,0,0,-1,-4,-16
1523144494792540,-8,0,9,-3,-2,-1,-1,2
1523144494814100,-1,-4,-11,-4,-3,-4,-1,2
1523144494814100,-15,1,4,0,-3,-1,-4,-10
1523144494815606,-3,1,3,2,3,0,0,10
1523144494815606,-3,-9,-11,0,3,1,-1,0
1523144494836156,0,-5,2,0,-2,1,2,-9
1523144494836156,2,1,1,0,1,-1,0,10
1523144494837660,7,1,-10,-7,-6,-7,-6,-3
1523144494837660,-7,-15,18,2,0,2,1,-7
1523144494850694,4,7,34,4,1,0,-4,0
1523144494850694,6,-6,-58,-1,-2,0,-4,11
1523144494857213,-6,1,0,-1,-1,0,-1,13
1523144494857213,13,5,17,-3,-5,-3,-7,-6
1523144494873756,0,-2,-19,-6,-2,0,0,2
1523144494873756,-4,-4,28,2,2,3,4,-4
1523144494875260,-9,2,-6,-1,-1,-1,-5,-8
1523144494875260,12,21,-18,-3,-1,-4,-22,13
1523144494896316,11,-4,3,-1,-2,0,22,-6
1523144494896316,-15,12,0,-3,-2,-8,4,3
1523144494897823,-17,-13,0,-1,-1,-4,-61,-7
1523144494897823,10,2,2,1,1,8,42,8
1523144494910356,10,6,6,1,-1,0,8,4
1523144494910356,-7,-1,-24,-3,-1,0,51,0
1523144494917376,15,7,18,1,-3,-1,-33,4
1523144494917376,-9,4,-3,0,-1,-8,-36,-11
1523144494933415,-5,-3,-25,0,1,-6,-97,-6
1523144494933415,0,5,7,0,1,13,88,1
1523144494935424,24,6,-7,-2,0,12,95,36
1523144494935424,-11,-10,8,-3,-3,-2,-19,15
1523144494955975,1,3,-2,-2,-3,-4,-30,11
1523144494955975,1,-4,7,0,0,1,-26,-6
1523144494957982,8,1,-9,-3,-4,-3,-15,7
1523144494957982,0,-2,-1,-1,-3,-4,7,-4
1523144494970515,-12,-8,-7,3,2,-3,14,-8
1523144494970515,1,-5,5,-1,2,3,-25,10
1523144494977531,6,-3,-12,-3,-1,0,17,-9
1523144494977531,21,-2,0,-3,-3,-5,-8,9
1523144494993581,-23,-3,5,-2,-3,1,11,-9
1523144494993581,1,-6,2,1,-1,-5,-12,-6
1523144494995079,-9,-6,0,0,-1,-2,2,-10
1523144494995079,-5,0,0,-1,-1,-2,-13,-10
1523144495016137,3,3,-15,-2,1,-1,26,8
1523144495016137,1,-13,19,1,1,-3,-27,-3
1523144495017641,-7,-3,5,0,-1,-3,-36,-13
1523144495017641,0,-5,-8,-1,-2,-5,-4,-12
1523144495030675,-10,1,-4,2,3,11,75,24
1523144495030675,-2,-2,6,-8,-5,-2,10,-17
1523144495037191,-8,-5,0,1,-1,-5,-6,-11
1523144495037191,-1,-2,2,1,0,1,-5,-2
1523144495053734,0,-2,0,-3,-2,-4,-27,-2
1523144495053734,6,3,-2,2,-2,-1,-18,6
1523144495055239,-8,-3,-10,-4,-3,-3,-2,-6
1523144495055239,-6,4,17,2,2,0,8,-5
1523144495076294,3,3,35,2,2,0,-8,-4
1523144495076294,-6,-12,-65,-1,-1,-1,-14,1
1523144495077799,2,3,18,-1,-1,-4,2,9
1523144495077799,-8,-1,8,-1,0,3,4,-1
1523144495090333,-2,-4,2,0,-3,-8,-23,-4
1523144495090333,12,8,5,0,-4,-1,-1,-1
1523144495097356,-7,1,-9,-2,1,-1,8,5
1523144495097356,-5,-11,-11,-3,-1,0,-3,-4
1523144495113898,7,0,-7,-3,-2,2,5,-3
1523144495113898,-8,5,10,1,-2,-3,-14,4
1523144495115402,0,-3,-3,1,2,-1,7,-6
1523144495115402,-8,-24,-18,1,1,4,13,0
1523144495135955,6,11,39,-5,-5,-2,-1,-4
1523144495135955,4,-1,3,0,-3,-5,-13,1
1523144495137959,-2,-3,2,-2,0,-3,5,-3
1523144495137959,-1,0,-3,0,0,3,1,-4
1523144495150493,-3,-4,-19,5,7,4,6,1
1523144495150493,7,0,12,-3,-4,-6,-7,0
1523144495157514,2,7,18,2,-2,-1,0,-2
1523144495157514,2,-3,3,-4,-1,-1,5,1
1523144495173554,-3,-4,-10,-4,-5,-2,5,-7
1523144495173554,-3,1,8,0,2,0,-8,-2
1523144495175058,-1,0,1,1,0,0,2,0
1523144495175058,-4,7,-1,0,-2,-1,1,-10
1523144495196113,-7,-12,-17,-1,-1,1,1,-17
1523144495196113,-11,-4,4,0,0,0,-5,-3
1523144495198121,-2,3,4,-1,-2,2,2,-3
1523144495198121,-3,-18,10,3,1,1,4,13
1523144495210655,8,5,-14,-3,-4,-3,1,20
1523144495210655,-5,-5,-7,-1,-2,-3,-5,-32
1523144495217171,-1,-5,-6,1,-1,-3,-1,8
1523144495217171,-3,9,-5,2,1,1,5,-3
1523144495233714,3,-6,0,-1,-2,-2,1,4
1523144495233714,5,3,3,0,-1,0,-1,11
1523144495235218,-5,-5,-11,-4,-3,-2,-3,-10
1523144495235218,4,7,4,-3,-4,-4,2,2
1523144495256274,-4,1,-2,-1,-1,-1,1,2
1523144495256274,6,13,-4,-2,-2,-3,-2,3
1523144495257778,-6,-16,-6,-1,3,3,1,-6
1523144495257778,-4,1,-9,1,1,2,3,0
1523144495269810,-4,-4,-16,-1,-2,-1,-2,-4
1523144495269810,-6,0,4,0,-1,0,-1,-5
1523144495278833,-1,11,5,-1,-1,-3,-3,17
1523144495278833,13,4,-6,-2,-3,-1,3,-2
1523144495293875,-3,-6,1,-2,-3,0,-3,2
1523144495293875,1,-4,-3,1,6,-2,6,-2
1523144495295382,-8,-5,4,1,10,2,-1,0
1523144495295382,-3,0,-8,-2,-6,-1,0,-12
1523144495316434,1,11,28,-2,-5,-3,-4,-7
1523144495316434,5,-5,-25,-5,-5,-4,2,13
1523144495317940,5,-5,-4,3,-3,3,-6,-9
1523144495317940,-10,-2,3,1,3,3,1,-1
1523144495329971,4,2,0,-2,-1,-6,-6,-5
1523144495329971,8,-10,3,-2,-7,-2,-7,6
1523144495338995,-3,0,4,-1,-6,-6,-2,-8
1523144495338995,-20,-3,-12,-2,1,0,1,-10
1523144495353532,2,-8,-2,2,3,-1,-5,-6
1523144495353532,-18,-2,11,2,2,-7,-8,7
1523144495355538,1,-1,-15,-3,0,9,19,-2
1523144495355538,6,4,6,-2,-4,-3,-4,-2
1523144495376093,-6,1,-6,0,-3,-2,6,-4
1523144495376093,5,1,9,-5,0,3,1,2
1523144495377597,-7,0,10,-2,2,-1,6,-1
1523144495377597,-3,2,0,5,-4,-6,-22,3
1523144495389629,8,-1,-10,-1,9,3,3,1
1523144495389629,10,-3,9,6,-2,0,-2,12
1523144495398656,-12,8,-4,-7,-5,-5,7,-4
1523144495398656,7,3,0,-5,2,0,11,3
1523144495413694,-1,-3,11,2,-3,-1,-4,-5
1523144495413694,-1,7,-25,-2,2,7,-28,2
1523144495415201,-7,-23,-23,3,-2,-1,56,1
1523144495415201,-18,9,31,-3,-3,-7,-17,-21
1523144495436254,-3,4,-1,0,-3,-7,-53,-3
1523144495436254,-4,-14,4,-1,3,16,76,-8
1523144495437757,13,-4,2,-1,-4,-9,-70,44
1523144495437757,4,-2,-14,-3,-2,-3,42,5
1523144495449789,-12,-2,12,-5,-3,0,-34,-1
1523144495449789,23,7,1,-2,-2,-10,-56,-23
1523144495464835,6,-3,-2,3,2,5,83,19
1523144495464835,-4,-1,3,-2,-1,1,-21,-3
1523144495473852,2,-7,-7,-2,0,-1,-1,6
1523144495473852,4,0,0,-1,-2,-10,-33,1
1523144495475357,-9,-3,-1,-1,-5,-4,-78,-8
1523144495475357,8,5,-3,0,-1,4,69,8
1523144495496413,-4,1,-16,-1,0,7,34,7
1523144495496413,-17,-1,7,0,-2,5,6,-11
1523144495497919,6,-3,-3,0,-1,3,-16,-18
1523144495497919,-21,-6,-1,-2,-2,-3,-29,5
1523144495509951,19,0,-14,1,-1,-6,0,-3
1523144495509951,-6,-1,1,-2,-3,-1,6,5
1523144495518974,-4,8,9,1,1,3,-22,-16
1523144495518974,8,-3,-12,4,5,3,-9,6
1523144495533511,-2,1,3,-3,-2,2,12,-2
1523144495533511,-2,-2,-2,-4,-4,-1,34,3
1523144495535517,6,2,-4,-1,-3,-1,3,-8
1523144495535517,-1,-9,-1,0,-3,-2,-7,5
1523144495556075,-1,-2,1,0,-2,-2,-15,7
1523144495556075,-1,-2,-5,-2,-3,-6,-8,0
1523144495558078,-1,3,-4,0,0,0,-1,1
1523144495558078,4,-6,-13,-5,-1,-1,-3,15
1523144495569608,4,5,21,2,2,3,10,-2
1523144495569608,-2,1,0,2,0,-1,-1,4
1523144495578631,-4,-5,-2,-2,2,-4,-12,-14
1523144495578631,8,3,3,-1,0,-3,-17,-4
1523144495593671,-8,0,-25,-4,-4,-3,-3,-4
1523144495593671,-5,-2,0,0,0,1,21,-8
1523144495595176,-8,5,29,-1,0,0,-2,2
1523144495595176,19,-5,-47,-4,1,-3,-5,10
1523144495616234,1,-6,2,-2,-5,-3,-1,-17
1523144495616234,-22,-2,7,9,-9,-6,-9,-8
1523144495617736,0,8,-8,-16,9,3,6,-3
1523144495617736,-1,1,6,7,3,3,3,-4
1523144495629772,0,2,3,-2,0,3,18,13
1523144495629772,10,15,-15,-3,-3,-2,-10,2
1523144495638793,0,-13,9,5,-14,-8,0,-8
1523144495638793,-3,-1,2,-3,4,6,9,7
1523144495653832,-6,-6,-14,1,1,1,7,-25
1523144495653832,4,8,23,-4,2,-1,-8,-1
1523144495655337,-4,-3,-15,1,-2,-3,-5,0
1523144495655337,3,2,15,-7,-7,-5,14,-5
1523144495676391,-3,-2,-3,3,4,0,-2,7
1523144495676391,-7,-7,-8,-5,1,2,1,-1
1523144495677896,1,5,-7,3,1,-1,6,-9
1523144495677896,-16,-16,2,3,-3,-4,-11,-3
1523144495697951,21,0,4,-3,-2,-4,2,0
1523144495697951,2,-2,1,-1,4,3,-4,-3
1523144495698959,6,-5,-9,-1,-1,1,4,1
1523144495698959,-4,6,5,1,0,0,-8,-8
1523144495712989,-11,-4,-11,-3,-2,1,1,3
1523144495712989,3,-6,5,-2,0,-4,-5,4
1523144495713993,3,0,1,-1,-3,-2,1,5
1523144495713993,2,1,-6,-2,0,2,-2,8
1523144495735550,-8,0,7,0,0,0,2,-9
1523144495735550,-1,-11,10,-2,-1,-1,0,3
1523144495736552,-2,-6,-37,-4,0,2,0,0
1523144495736552,-3,-2,9,3,-5,-4,-5,-12
1523144495758112,-2,-2,-3,-8,1,-2,-7,16
1523144495758112,-10,-1,-10,3,5,2,0,-3
1523144495758611,28,7,19,0,2,-2,2,-5
1523144495758611,-29,6,-12,-4,-9,-7,-5,-5
1523144495773149,-5,-1,1,5,-3,-4,1,13
1523144495773149,2,4,-6,14,2,1,2,0
1523144495773652,-9,-11,-10,-8,7,3,-1,-4
1523144495773652,8,12,8,-2,-3,1,3,-26
1523144495795710,2,1,10,-2,-2,0,0,2
1523144495795710,-3,-3,-13,-6,-4,-4,-2,-4
1523144495796217,-5,4,-5,4,-7,-3,-1,-9
1523144495796217,1,3,3,-1,4,-2,-6,19
1523144495817770,2,-2,4,0,0,2,9,-3
1523144495817770,9,-12,4,-4,1,1,1,-6
1523144495818771,-6,1,8,-1,-5,-6,0,-6
1523144495818771,2,-5,-2,1,2,-2,-8,4
1523144495832808,1,3,-4,1,1,3,8,-2
1523144495832808,-7,1,-12,0,0,-1,-1,3
1523144495833811,0,-3,13,-4,-4,-4,-1,6
1523144495833811,4,-1,0,-1,0,-1,-6,-2
1523144495855387,-8,-3,-12,-1,0,-4,6,-1
1523144495855387,6,3,1,-4,-3,-5,-3,-15
1523144495856375,-6,13,-1,2,2,7,-7,2
1523144495856375,13,-10,-1,1,-2,-1,0,-7
1523144495877931,-1,4,-9,-3,0,-2,-3,10
1523144495877931,-3,1,2,-5,-4,-4,2,4
1523144495878931,8,8,5,-4,-1,-10,-11,-3
1523144495878931,-8,-3,-4,3,2,5,2,-4
1523144495892971,-3,-6,8,2,-3,-10,-83,-2
1523144495892971,8,-3,2,-1,-1,7,86,24
1523144495893972,-3,-7,0,4,0,-1,-27,-7
1523144495893972,4,0,-1,-3,-1,4,14,1
1523144495915532,-8,1,17,-2,-2,-9,-22,-4
1523144495915532,-5,-9,-25,-4,-2,-7,-126,-21
1523144495916533,-3,-22,0,1,-1,9,104,26
1523144495916533,-2,6,-5,-4,-2,-4,1,-11
1523144495938088,5,5,12,1,0,7,7,2
1523144495938088,1,8,12,0,0,3,31,-5
1523144495938591,-32,2,-23,-4,-6,-10,-52,4
1523144495938591,20,3,-9,-2,-1,-2,-8,5
1523144495953127,-8,-20,7,-3,-4,-2,36,-5
1523144495953127,0,3,-10,0,-1,-6,-7,-17
1523144495953629,7,6,3,0,0,2,-26,-7
1523144495953629,-7,3,10,2,2,10,76,12
1523144495975687,-6,2,-16,-4,-3,0,-6,-6
1523144495975687,5,-1,3,-2,-3,-6,-50,3
1523144495976190,-21,-29,4,3,4,2,3,-26
1523144495976190,-6,1,6,-2,-4,-7,-34,-22
1523144495998750,-12,0,-11,0,1,2,24,-1
1523144495998750,-10,-13,-3,0,2,3,13,11
1523144495999251,5,12,18,-3,-3,-2,7,2
1523144495999251,1,-18,-8,-2,-3,-2,-2,8
1523144496012789,-13,2,14,-1,1,3,-9,-3
1523144496012789,-1,0,-14,-4,-3,-2,7,1
1523144496013793,6,11,5,3,1,-3,-37,2
1523144496013793,-6,-10,-6,0,0,0,52,2
1523144496035354,14,4,-7,1,0,7,55,7
1523144496035354,6,-3,10,0,-2,1,3,3
1523144496036350,4,1,-8,-3,-2,-5,-27,5
1523144496036350,-2,5,0,-2,-1,-1,38,1
1523144496057908,5,-8,-19,-2,0,-5,-12,-8
1523144496057908,4,8,6,-4,-5,-4,11,8
1523144496065427,-1,-1,-8,-1,-2,-4,2,-7
1523144496065427,-5,2,18,1,2,-2,-51,-3
1523144496072948,4,-1,-7,0,0,0,6,2
1523144496072948,-10,-1,6,2,0,-2,-4,4
1523144496073951,2,-6,-1,-3,-3,-1,6,0
1523144496073951,1,0,-4,0,-2,-1,-29,1
1523144496095508,0,4,12,4,5,2,-5,-1
1523144496095508,-12,1,-8,-2,1,2,-3,0
1523144496096511,11,3,12,1,-5,0,10,-1
1523144496096511,0,0,-3,-9,-1,-3,-9,2
1523144496118067,6,-4,-6,4,2,0,-7,-4
1523144496118067,-25,-4,-1,0,-5,-3,0,-1
1523144496118570,3,0,-4,1,0,3,12,10
1523144496118570,-2,-1,-2,-3,-3,-5,-25,-13
1523144496133108,2,0,-7,-5,-11,-5,-12,-13
1523144496133108,5,1,5,2,15,6,7,-9
1523144496133609,0,4,-8,-1,1,4,6,7
1523144496133609,-2,-5,4,-2,-3,-6,-16,17
1523144496155667,-2,-3,-8,-4,-5,-6,1,-8
1523144496155667,4,1,3,1,-4,0,4,-2
1523144496156170,-10,-5,-1,-2,0,-2,4,-4
1523144496156170,2,7,-3,3,3,0,-12,4
1523144496178227,0,0,1,-3,-5,-8,-11,-7
1523144496178227,-13,-8,2,-1,-4,-4,-6,-1
1523144496178730,-1,0,2,1,7,2,2,-6
1523144496178730,-4,-3,-17,0,-1,2,-4,3
1523144496192767,-3,2,15,-5,-3,-8,0,5
1523144496192767,6,5,3,-2,-5,-1,-2,4
1523144496193771,1,-3,-6,-1,2,0,0,-3
1523144496193771,-1,-2,-3,-2,0,0,-3,-3
1523144496215328,-7,4,-9,0,2,0,-2,-4
1523144496215328,7,4,2,-1,-2,-2,2,-5
1523144496216329,7,-1,0,-2,-4,-1,2,3
1523144496216329,-9,-5,-3,1,1,-4,-2,-26
1523144496237886,4,1,-3,0,2,3,1,2
1523144496237886,5,7,-1,-4,-3,-4,-4,5
1523144496238890,3,-7,-4,-3,-2,-3,-2,-2
1523144496238890,1,12,-13,-2,-3,0,-2,-12
1523144496252426,-5,-8,12,-2,1,4,-1,10
1523144496252426,4,8,2,2,-1,4,8,-1
1523144496260449,4,-3,-18,-2,-1,-2,1,3
1523144496260449,2,2,6,1,-3,-4,-13,1
1523144496275487,-4,-8,2,1,3,4,5,16
1523144496275487,-3,-3,-7,-5,-1,-1,-2,-12
1523144496276487,-4,7,0,0,-1,-2,-7,-21
1523144496276487,-2,-8,3,3,0,2,1,9
1523144496298046,4,0,-7,2,3,2,-1,-4
1523144496298046,2,-4,4,1,0,-1,-1,17
1523144496298548,1,-2,2,-2,-2,-1,0,-5
1523144496298548,-6,-4,-11,-2,-3,-3,-2,8
1523144496312585,-4,4,1,2,1,1,-5,1
1523144496312585,9,-2,-2,-1,0,2,0,-4
1523144496320609,1,-1,-14,-3,-2,4,3,-2
1523144496320609,1,-3,2,-2,0,-1,-1,7
1523144496335145,-3,-2,-9,-3,-2,-9,-15,-3
1523144496335145,16,1,9,2,-1,2,-3,-17
1523144496343168,-5,-4,0,0,-2,-3,-2,1
1523144496343168,-4,-4,10,0,-1,0,-2,10
1523144496358207,3,6,-8,-3,-3,-2,-12,-8
1523144496358207,-5,-11,-8,-4,-1,-4,-6,0
1523144496358708,-3,12,-5,-1,-3,-2,-5,6
1523144496358708,3,1,2,-2,-2,-2,1,-13
1523144496372243,8,3,-2,-2,-5,-3,-15,10
1523144496372243,-25,-6,1,1,2,-5,-11,3
1523144496380765,14,1,-16,0,2,4,35,12
1523144496380765,-2,0,-10,-2,-3,-3,-7,-6
1523144496395307,3,-4,9,3,0,7,57,8
1523144496395307,-4,1,1,-3,-3,-7,-42,-4
1523144496396312,21,2,5,-2,0,-10,-68,6
1523144496396312,-3,-15,6,1,2,11,44,4
1523144496417868,-1,0,-1,-3,-3,-10,-103,-18
1523144496417868,3,3,-8,3,5,11,96,14
1523144496418869,-14,-5,8,1,-1,2,3,-13
1523144496418869,22,-6,1,-2,-1,-15,-95,-11
1523144496432155,15,2,3,0,2,8,24,20
1523144496432155,-39,5,5,-2,-2,-7,-104,-6
1523144496440674,-8,6,4,1,2,11,95,16
1523144496440674,-5,-5,4,1,-1,10,44,6
1523144496455212,13,4,-4,0,0,-4,-20,-15
1523144496455212,6,-9,-11,-4,-2,-6,-16,-5
1523144496456217,-6,3,10,1,0,1,-21,-1
1523144496456217,-6,-1,1,-1,-2,-6,-19,-6
1523144496478274,-14,0,7,0,0,0,15,-11
1523144496478274,8,-6,-17,-1,-1,0,25,6
1523144496478783,-7,-5,7,-1,-2,1,-15,-18
1523144496478783,1,6,-3,-4,-3,0,22,11
1523144496492315,-4,-1,-10,1,3,0,8,-4
1523144496492315,6,-2,9,-2,-1,1,1,-5
1523144496500333,-9,-4,0,0,-4,-16,-98,-5
1523144496500333,6,6,4,2,3,9,74,17
1523144496515374,-9,-4,-17,-1,1,8,103,-5
1523144496515374,4,-4,0,-2,-1,-4,-13,-8
1523144496516376,4,1,1,-3,-3,-2,-12,-1
1523144496516376,-10,-13,8,-1,-3,-6,-28,-6
1523144496537932,-8,-1,4,-1,-4,-5,-44,1
1523144496537932,13,8,-8,-2,-2,-2,22,0
1523144496538936,-6,-7,-4,-4,-4,-4,17,-8
1523144496538936,-2,9,0,3,1,2,-29,-18
1523144496552472,0,-13,0,-2,-2,-2,21,7
1523144496552472,-2,-6,2,1,-1,2,-7,-1
1523144496560495,-1,3,11,-1,-5,-7,-5,3
1523144496560495,-1,0,-12,-1,3,1,-2,5
1523144496575536,-4,-2,3,0,-1,4,-12,0
1523144496575536,2,3,-4,-1,0,0,11,8
1523144496576536,-7,-7,-2,0,-1,-1,6,-15
1523144496576536,-1,-1,-3,-4,-4,-4,14,2
1523144496598093,1,-2,-10,-2,-4,-2,-8,-4
1523144496598093,4,3,18,-1,2,1,-2,12
1523144496598594,7,1,-5,1,2,2,17,7
1523144496598594,-23,-6,1,0,-3,-4,-23,-30
1523144496621154,0,-6,-7,0,-9,-1,-10,10
1523144496621154,-2,3,5,0,11,3,11,-15
1523144496622157,-4,-2,-2,-2,0,0,1,8
1523144496622157,30,7,-5,-1,-1,-4,-8,3
1523144496635696,-6,-1,-5,-2,-2,-4,-20,-5
1523144496635696,1,-1,6,1,-7,6,18,15
1523144496636194,-7,-18,3,3,4,-4,-20,-3
1523144496636194,-4,4,-2,-4,-3,-4,1,-1
1523144496658252,0,5,5,1,-1,-4,-8,-1
1523144496658252,2,-6,-6,-3,-4,3,19,-6
1523144496658753,-11,-8,-8,0,1,1,14,-3
1523144496658753,-6,3,1,-1,-3,-1,-10,-3
1523144496681314,0,-1,3,-2,0,-2,7,5
1523144496681314,-6,4,-6,-1,-5,-4,-18,-7
1523144496681816,0,7,0,-1,-4,-3,7,-3
1523144496681816,-5,-10,-6,0,1,-1,4,1
1523144496695856,-4,0,-1,-3,-1,-2,-1,-7
1523144496695856,1,-2,-4,1,0,-6,-14,-8
1523144496696358,6,6,-14,-1,1,1,8,11
1523144496696358,-9,1,26,1,-1,-2,-15,-9
1523144496717913,20,0,-12,-4,1,1,-6,-6
1523144496717913,-5,-8,18,-1,-5,-5,10,-2
1523144496718917,1,-2,-36,-1,0,2,-10,1
1523144496718917,-4,5,-4,-4,-2,-5,-5,-1
1523144496740973,-9,-3,-11,-2,-1,-5,-3,-3
1523144496740973,-9,-31,16,2,5,6,12,12
1523144496741977,9,4,14,-3,-1,0,-3,-27
1523144496741977,-3,-4,-8,-3,-5,2,3,2
1523144496755513,3,11,11,0,2,-1,-4,15
1523144496755513,19,-2,-23,-3,-2,-2,-4,6
1523144496756013,-30,-2,4,-1,-4,5,16,7
1523144496756013,1,-5,-6,-2,-1,-4,-11,-12
1523144496778076,-7,1,8,0,-1,-1,-3,-21
1523144496778076,-8,9,-9,-2,0,-3,-2,-1
1523144496779076,16,2,5,0,0,-1,4,6
1523144496779076,-3,3,-7,-1,0,-2,8,0
1523144496801133,-5,-7,-4,-1,0,2,1,6
1523144496801133,-5,4,-7,-3,-6,-7,-15,5
1523144496802136,0,5,0,-1,1,3,2,-18
1523144496802136,6,12,-4,1,0,2,0,10
1523144496815671,-1,-6,14,1,3,-2,-3,-2
1523144496815671,-1,2,-8,-3,-4,-4,-6,-5
1523144496816174,2,-3,-1,0,-4,-6,-1,5
1523144496816174,3,5,-9,-3,3,7,12,5
1523144496838232,-5,4,9,1,-2,1,14,-8
1523144496838232,7,9,-4,-2,-1,-2,-5,3
1523144496838733,-19,-10,5,-2,-2,0,-8,1
1523144496838733,2,-1,-3,-1,0,1,-1,-5
1523144496861799,1,-2,-6,-3,-2,-5,-8,-5
1523144496861799,-8,-5,-1,2,1,8,19,-6
1523144496862800,33,1,-2,0,1,-5,-20,-3
1523144496862800,-3,-7,4,-1,-1,0,-4,-1
1523144496875331,-12,0,2,0,-2,-3,6,-10
1523144496875331,6,-1,-4,1,0,-5,-30,-4
1523144496876335,-4,1,8,-1,0,0,-18,3
1523144496876335,-4,5,-8,-2,-2,5,42,0
1523144496898395,9,-6,-8,-1,2,5,-3,-1
1523144496898395,-21,-2,7,-3,-6,-11,-70,-17
1523144496899396,-11,-1,-2,2,-1,-2,17,-7
1523144496899396,5,-2,-9,-1,0,11,85,28
1523144496920952,-8,-7,12,-3,-5,-10,-4,-8
1523144496920952,-8,3,8,2,0,-6,-80,-2
1523144496921955,-1,-18,4,2,4,15,95,24
1523144496921955,-4,-13,9,-3,-8,-27,-125,-54
1523144496935491,18,-4,-21,-2,2,12,54,-5
1523144496935491,12,12,22,1,-1,13,124,29
1523144496936492,-8,-3,-11,-3,-4,-1,-35,-11
1523144496936492,5,0,-7,-2,0,0,-45,9
1523144496958051,-6,0,2,-3,-3,-5,-34,-7
1523144496958051,7,0,-12,-2,-2,-8,-33,-12
1523144496959053,-14,0,10,0,-1,-4,-17,1
1523144496959053,22,5,-4,2,2,4,35,27
1523144496981113,-2,1,1,-2,-2,-1,-23,5
1523144496981113,-3,-1,-12,-5,-2,4,14,-9
1523144496982116,2,6,-5,-3,-4,-6,9,5
1523144496982116,-8,-5,9,-2,1,-6,-24,-3
1523144496995652,-8,-2,-6,3,-2,-4,-18,9
1523144496995652,-9,-15,11,2,0,5,43,-1
1523144496996155,9,1,-17,-6,-4,-7,-42,1
1523144496996155,-9,3,22,1,-1,4,38,-14
1523144497018210,1,-4,-26,-2,0,0,10,27
1523144497018210,3,1,-16,-3,2,-2,11,1
1523144497018715,4,7,13,0,0,-2,6,-2
1523144497018715,-5,-2,-1,-1,-2,-2,-2,3
1523144497041275,4,10,17,0,-1,0,21,-5
1523144497041275,0,-1,-8,-4,-4,-7,-31,-9
1523144497041773,-4,-1,-4,0,-4,-5,-15,-7
1523144497041773,-5,0,-8,2,1,-1,6,4
1523144497055312,-2,4,2,-2,-1,0,-21,-5
1523144497055312,7,1,-5,-1,-1,2,8,-2
1523144497056311,-5,-2,-1,-1,2,2,3,-2
1523144497056311,-2,1,13,1,-1,-2,-4,-1
1523144497077872,0,-3,-20,0,0,-1,-6,2
1523144497077872,-2,0,22,3,1,2,-7,14
1523144497078874,8,2,-11,-2,-3,1,17,57
1523144497078874,-17,-1,-3,2,0,-3,-26,-100
1523144497100931,-2,-11,0,-5,-5,-3,8,39
1523144497100931,-1,1,-6,-1,-1,0,2,6
1523144497101935,-1,-1,2,-1,4,3,-6,45
1523144497101935,9,-6,-8,-2,-4,-1,3,16
1523144497115469,-14,-1,11,2,-2,-4,9,-54
1523144497115469,1,-7,-13,-2,0,-2,-24,-33
1523144497116472,-11,4,13,-3,-2,-3,-3,6
1523144497116472,-1,-6,-6,-1,-3,1,2,74
1523144497138030,-4,1,-2,-1,1,-1,14,-19
1523144497138030,3,2,0,-1,-3,-3,-2,-21
1523144497138531,2,-4,-8,0,-2,-1,-2,-18
1523144497138531,-1,3,-1,-1,1,2,-4,11
1523144497161093,-1,-15,12,0,-1,5,-2,23
1523144497161093,2,-2,-6,0,-1,1,10,-2
1523144497162100,1,-2,0,-1,-2,-3,-1,-34
1523144497162100,1,3,-7,-4,-2,-2,6,10
1523144497175630,4,7,0,-1,0,0,-10,-5
1523144497175630,-1,-5,-4,-1,4,-1,7,5
1523144497176132,-1,-7,-3,-2,-2,-1,0,-13
1523144497176132,-1,-7,-4,1,3,-2,-4,-3
1523144497198190,4,7,10,0,-1,-3,-9,2
1523144497198190,-7,-3,-8,-1,-3,-2,1,-3
1523144497198692,3,3,-2,0,-2,0,-4,-9
1523144497198692,-2,-3,-2,-3,-2,-1,-4,-7
1523144497221251,-4,-6,-2,0,1,-1,-7,-2
1523144497221251,-15,4,4,-2,-1,5,10,13
1523144497222255,5,0,10,-1,-2,-1,-2,-16
1523144497222255,-4,-5,-3,0,-3,-7,-1,-6
1523144497234789,1,1,-2,-1,-3,0,-10,-1
1523144497234789,-4,-7,-7,-2,-1,0,0,-1
1523144497242811,3,16,0,0,1,0,-2,-6
1523144497242811,-2,1,1,-2,-4,-4,-1,-3
1523144497257851,-2,-1,-1,-1,-2,-3,-3,5
1523144497257851,9,-4,-7,-2,0,-3,1,-1
1523144497258852,2,1,3,2,2,0,-1,-3
1523144497258852,8,6,0,-1,-2,0,-3,9
1523144497280909,-4,-6,-3,-1,-1,1,1,3
1523144497280909,-8,2,-4,-1,-3,0,1,4
1523144497281913,2,-2,0,-1,-2,0,-1,-6
1523144497281913,-6,1,7,1,1,4,-6,0
1523144497294951,29,1,-24,-3,0,-4,0,-1
1523144497294951,2,6,1,-2,-3,-4,-3,9
1523144497302968,-13,-3,2,-1,-2,-3,-3,-18
1523144497302968,5,-1,2,0,2,8,13,3
1523144497318007,-13,3,5,0,-4,0,13,-3
1523144497318007,6,-4,-4,4,5,-1,-14,-1
1523144497318510,11,-2,-10,-1,-1,-2,15,2
1523144497318510,-2,4,-1,-2,-3,-1,-1,-16
1523144497341070,4,-3,-5,-3,-1,-3,-6,-3
1523144497341070,2,-1,15,-2,-2,-7,-15,2
1523144497342072,-3,-25,5,-2,2,9,1,7
1523144497342072,-19,-9,1,2,0,-2,-2,-2
1523144497354607,-11,3,-3,-2,-3,-1,-6,6
1523144497354607,-2,6,-8,-4,-4,-6,-17,-17
1523144497363129,-14,-10,-6,-4,-3,-4,8,19
1523144497363129,6,0,-7,-1,-2,-5,19,-9
1523144497378169,-6,-3,8,0,0,2,-33,-2
1523144497378169,-7,-17,-3,-1,0,-4,54,-1
1523144497378673,1,14,-7,-1,-2,-3,-60,-13
1523144497378673,-2,-2,-12,-3,-3,-2,-45,1
1523144497401232,-10,4,12,5,4,9,94,10
1523144497401232,23,20,4,-4,-5,0,-45,-2
1523144497401732,2,-5,13,-4,-8,-19,-51,-8
1523144497401732,-1,11,-59,-2,2,9,57,7
1523144497414766,1,-8,-10,0,2,3,8,-16
1523144497414766,0,0,-3,-1,-2,-2,-54,37
1523144497422787,2,12,4,0,-1,-2,52,-4
1523144497422787,11,-16,14,-2,-3,5,40,18
1523144497437829,8,2,1,-5,-5,-10,-66,-4
1523144497437829,-15,-15,-16,0,0,4,2,0
1523144497438831,-14,-23,15,3,2,6,-21,10
1523144497438831,23,-2,23,0,1,-1,-28,14
1523144497461393,-9,2,-4,0,-1,4,39,-1
1523144497461393,-6,-1,6,-1,-2,-6,-20,-11
1523144497461897,26,-11,-11,-1,3,9,8,3
1523144497461897,-15,-4,2,0,-1,-6,-4,-13
1523144497474927,8,0,-2,-1,-2,0,-31,4
1523144497474927,-3,-3,-2,1,-1,-1,-3,-7
1523144497482948,-1,3,-3,-1,-1,0,32,2
1523144497482948,-1,1,-3,-3,1,-1,-12,-4
1523144497497988,-3,-4,2,-4,-5,-14,-42,-13
1523144497497988,1,5,1,4,8,17,89,21
1523144497498990,-10,1,-10,4,7,7,37,-7
1523144497498990,-1,-1,18,-3,-1,-5,-57,-9
1523144497521049,-12,0,-18,-3,-3,-1,30,2
1523144497521049,1,1,9,-4,-6,-9,-25,-12
1523144497522051,2,-1,-9,-4,-6,3,9,8
1523144497522051,8,0,2,1,0,-3,-42,1
1523144497534585,1,-2,9,1,4,5,17,-2
1523144497534585,-4,-6,-21,-2,-1,0,5,-5
1523144497543110,1,10,24,1,0,-5,-33,-7
1523144497543110,-12,-11,-4,-2,-2,-6,-8,-9
1523144497558157,1,-2,0,-2,-3,-2,-8,3
1523144497558157,0,-10,11,2,0,0,1,-4
1523144497558652,-9,6,-9,-3,1,-1,-13,-5
1523144497558652,1,2,2,0,-3,2,26,1
1523144497581210,3,0,2,0,-1,-5,-20,-4
1523144497581210,-2,0,11,0,-4,1,7,-1
1523144497582212,-6,0,-12,-1,2,-2,3,0
1523144497582212,-1,-4,-3,-1,-2,-2,-2,4
1523144497603768,-2,-5,-4,1,7,3,12,-29
1523144497603768,-6,5,3,-2,-3,-3,-9,-3
1523144497604270,0,2,-4,-2,0,-1,-5,-27
1523144497604270,-4,0,-3,-1,-4,-3,-2,22
1523144497617806,-1,2,0,1,-3,2,-2,13
1523144497617806,24,4,7,-4,2,1,11,89
1523144497618809,-16,-5,-17,0,-4,2,16,-95
1523144497618809,-14,-3,10,-1,-1,-8,-26,-38
1523144497641381,-3,1,-3,0,-2,-4,-6,5
1523144497641381,9,1,-14,-1,-6,-6,-6,17
1523144497641874,-5,4,9,0,1,6,21,50
1523144497641874,2,4,-8,0,3,5,19,2
1523144497663430,0,-3,2,-3,-5,-2,-9,-7
1523144497663430,3,3,6,0,2,1,1,-21
1523144497664431,3,1,-6,-2,0,-5,-12,8
1523144497664431,-1,5,-8,-2,-3,-2,5,-13
1523144497677968,3,3,0,-1,3,2,-7,2
1523144497677968,-14,-3,8,0,-1,4,7,-17
1523144497678991,12,-3,-2,-1,-3,-4,-11,-12
1523144497678991,0,0,-1,-1,-1,-3,2,28
1523144497701028,5,-1,0,-1,0,-3,-3,-10
1523144497701028,-8,-1,-7,0,1,0,-7,-24
1523144497702031,-2,-5,-4,1,1,3,-10,12
1523144497702031,7,1,8,-2,0,0,-3,-4
1523144497723589,-2,-1,-2,-3,-2,-1,-5,12
1523144497723589,-10,-1,-2,-1,-3,-3,-1,-27
1523144497724591,3,0,-1,2,-2,-1,2,22
1523144497724591,2,-4,0,1,0,0,3,-1
1523144497738128,-4,-2,-2,-1,1,1,-1,1
1523144497738128,-7,-16,3,-4,-3,-1,3,-12
1523144497738629,4,-1,1,-2,-3,-4,-6,1
1523144497738629,-3,-2,-4,0,2,-5,-9,-9
1523144497761192,0,0,3,-1,-3,2,7,-2
1523144497761192,-4,3,-16,-3,-1,0,0,1
1523144497762193,21,-11,16,-4,-8,-5,-7,-6
1523144497762193,-8,1,9,0,-1,-2,1,-7
1523144497783748,7,-3,-9,1,2,-1,-13,10
1523144497783748,-18,0,-2,-3,0,3,13,-9
1523144497784752,0,4,-2,-3,-6,-2,-6,-5
1523144497784752,1,1,0,1,2,7,14,2
1523144497797788,-3,-4,1,0,1,-1,0,4
1523144497797788,13,1,3,0,-1,-3,-1,-2
1523144497798790,-6,-3,-2,0,-3,-3,2,6
1523144497798790,4,3,-4,-2,-2,-5,-13,19
1523144497821347,-10,-5,1,0,0,3,10,-9
1523144497821347,-26,-5,-1,1,3,1,-4,-5
1523144497821849,-2,-1,-10,-4,0,-2,-9,11
1523144497821849,6,-1,-3,-1,-5,-3,1,14
1523144497843405,-4,5,4,0,1,-2,7,-9
1523144497843405,2,-2,5,1,-2,-2,-9,5
1523144497844416,-5,-17,3,0,2,2,1,-33
1523144497844416,-9,-2,-5,-4,-2,0,4,10
1523144497857948,8,4,1,-2,-3,-4,-16,11
1523144497857948,-5,-2,1,-1,-2,-3,-16,0
1523144497858949,-12,0,-14,-1,2,6,24,10
1523144497858949,7,-10,12,1,1,6,-28,-7
1523144497881008,-4,-4,-8,1,0,1,27,-8
1523144497881008,12,2,1,-1,-2,-6,0,24
1523144497882010,-6,-9,11,0,-3,-15,-100,4
1523144497882010,-2,-4,-6,0,1,12,59,-9
1523144497903567,3,5,-3,-2,-1,3,-2,5
1523144497903567,7,-4,3,0,-2,-4,-60,-6
1523144497904571,-1,-1,-9,-3,-3,-1,30,0
1523144497904571,-25,0,0,0,-1,-3,0,-10
1523144497918108,12,3,12,-3,2,10,62,25
1523144497918108,12,6,-33,-3,-6,-20,-95,-26
1523144497918607,-9,-19,34,3,2,3,58,20
1523144497918607,2,1,-12,-6,-2,9,80,7
1523144497941167,-7,-1,1,-1,-4,-9,-19,-27
1523144497941167,5,4,8,2,2,5,14,-1
1523144497942170,37,9,-18,-3,-1,5,-27,2
1523144497942170,-27,0,1,2,-1,-6,-17,-17
1523144497963729,-32,-12,0,-1,-3,-13,-43,-16
1523144497963729,12,4,1,-1,2,8,32,14
1523144497964228,-9,5,-7,-2,-1,-6,-3,-3
1523144497964228,2,-3,1,-3,-1,-3,-28,-33
1523144497977264,4,3,-4,-1,1,1,-15,16
1523144497977264,-10,-1,-2,0,0,0,17,-20
1523144497985286,8,9,-1,2,-1,3,22,20
1523144497985286,-4,0,0,1,2,-1,-13,16
1523144498000325,2,-1,1,-2,-3,-13,-82,-13
1523144498000325,7,3,5,3,2,23,127,41
1523144498001328,-11,-2,-5,-5,0,0,19,-44
1523144498001328,9,-2,-7,-1,-1,-8,-25,-1
1523144498023885,4,-1,-2,-1,-3,4,3,7
1523144498023885,-9,-1,-2,-3,-5,-7,-26,-12
1523144498024388,9,11,3,0,2,-1,-13,8
1523144498024388,-7,-11,-13,0,4,3,4,-7
1523144498037925,0,-1,16,-1,-3,1,11,14
1523144498037925,4,1,2,-1,0,-1,3,-10
1523144498038929,-13,-5,-10,-4,-4,-3,2,-3
1523144498038929,7,2,-1,-4,-3,-9,-17,-4
1523144498060486,2,-3,-3,3,4,4,6,8
1523144498060486,0,-4,-4,-4,-2,-2,3,0
1523144498061488,-4,10,3,0,3,3,-15,-18
1523144498061488,4,1,1,2,-2,-2,-15,13
1523144498083545,5,1,-4,-1,-2,-1,10,-2
1523144498083545,5,0,0,-3,-3,0,6,-4
1523144498084550,-19,-2,-8,-2,-4,-5,-10,-20
1523144498084550,3,2,6,1,0,0,-3,-46
1523144498097582,-3,2,-3,-1,1,0,10,9
1523144498097582,-6,-5,-5,-5,-3,-9,-14,-22
1523144498105604,10,2,3,0,0,-3,0,19
1523144498105604,-1,1,3,2,-5,-5,-6,15
1523144498120644,1,-5,-6,-1,1,-1,9,2
1523144498120644,0,0,-2,0,5,1,-10,4
1523144498121150,-8,-10,12,0,0,3,9,27
1523144498121150,2,3,3,-2,-3,2,-1,-36
1523144498143706,-3,0,-10,-2,-2,-2,0,19
1523144498143706,0,11,-1,-4,-5,-5,-2,-13
1523144498144710,-1,1,-4,1,-1,-1,-2,-11
1523144498144710,-6,-4,-9,-1,3,1,-1,24
1523144498157244,2,1,7,-2,-2,-2,-6,-17
1523144498157244,-2,-1,-2,-2,-1,0,-3,-9
1523144498165764,-8,-1,-7,-1,-3,-1,-6,14
1523144498165764,6,4,0,-2,-3,4,7,0
1523144498181306,-2,-1,-7,-3,0,-2,0,-14
1523144498181306,-9,-4,2,0,-2,0,-4,7
1523144498181807,-7,1,-1,1,0,-1,3,13
1523144498181807,-4,-3,0,-1,-1,-2,-6,13
1523144498210384,-3,1,2,2,-1,-3,-5,-8
1523144498210384,0,-4,-1,3,3,6,5,15
1523144498218904,5,0,-3,0,-1,-2,-6,-10
1523144498218904,2,2,1,-5,-6,-5,12,3
1523144498220411,-4,-3,-4,-1,3,4,2,6
1523144498220411,2,4,13,1,-3,-4,-7,-5
1523144498225423,-1,-3,-9,-3,-1,-1,-2,-8
1523144498225423,5,-3,0,0,0,-2,-4,19
1523144498240967,-4,-4,-4,-1,-2,1,0,-16
1523144498240967,1,2,4,0,-3,0,-1,-5
1523144498241966,3,0,-1,0,3,0,2,-1
1523144498241966,-3,-6,-3,-1,1,0,-6,4
1523144498263526,2,-1,-2,-1,-1,-1,-1,-11
1523144498263526,-4,-4,3,-1,-2,-2,0,2
1523144498264533,-16,0,-5,1,-2,-4,-15,3
1523144498264533,16,2,1,-1,0,-3,-8,-3
1523144498286086,-1,-4,-1,-2,-2,-1,-5,-3
1523144498286086,2,-11,0,1,0,-1,4,-7
1523144498287089,-11,-7,4,0,-4,-3,0,0
1523144498287089,-5,2,4,-1,0,0,-2,-5
1523144498301124,9,4,4,0,-1,1,1,22
1523144498301124,5,10,-5,-2,-2,-1,0,-4
1523144498302128,5,3,-12,1,-1,-2,-11,-28
1523144498302128,-7,-3,14,1,-1,-1,-2,1
1523144498323684,2,6,-5,-1,-4,-7,-14,-5
1523144498323684,-1,-4,-2,-1,0,0,10,12
1523144498324185,3,-2,0,-3,0,-2,0,3
1523144498324185,-4,-2,-9,0,2,5,1,-13
1523144498337221,32,6,-5,-1,-2,0,-2,-8
1523144498337221,-5,-9,3,0,2,0,11,11
1523144498345744,-11,1,-1,-3,-4,2,25,-13
1523144498345744,3,-5,6,-1,-3,-5,-35,1
1523144498361289,2,-1,-2,-2,-1,0,50,4
1523144498361289,-1,-15,-1,0,-1,1,-19,-4
1523144498361787,8,-7,13,0,1,0,31,15
1523144498361787,5,12,-11,-6,-3,-2,-3,8
1523144498383844,-19,0,4,0,1,8,62,-4
1523144498383844,3,-4,1,-2,-1,-4,-21,-10
1523144498384347,-1,5,-5,0,-1,-8,-74,4
1523144498384347,8,0,-5,2,2,8,59,-4
1523144498397382,-21,-12,11,-1,-2,-8,-44,4
1523144498397382,-6,3,-5,-2,-1,-5,5,-12
1523144498405405,9,-2,3,-3,0,10,1,0
1523144498405405,-22,-9,-4,-4,-3,-10,-26,-24
1523144498421446,7,-5,-6,0,-1,-2,14,-11
1523144498421446,-11,-9,-3,-5,-4,-4,11,6
1523144498421949,30,24,-7,3,1,4,-11,35
1523144498421949,-22,-1,8,2,2,2,10,-6
1523144498444010,1,-2,-13,-3,-2,-3,-20,8
1523144498444010,-21,1,2,-1,-2,-6,-37,-23
1523144498444509,4,0,-3,-2,-1,4,40,-5
1523144498444509,3,-4,-6,-4,-5,-1,3,11
1523144498457040,-6,-4,2,0,2,-2,-30,2
1523144498457040,-5,4,-2,4,3,6,16,6
1523144498465563,-2,-2,5,-1,-2,-6,13,-2
1523144498465563,3,-5,-8,1,0,-4,-12,-4
1523144498481103,-9,0,5,-5,-7,-6,-16,-7
1523144498481103,15,6,-3,-1,0,2,-41,6
1523144498482107,-14,-9,-2,3,5,3,8,-9
1523144498482107,3,2,2,1,1,-3,-18,4
1523144498503666,-3,-1,-4,-2,1,4,5,0
1523144498503666,4,-2,-6,-4,-3,-4,2,0
1523144498504673,0,4,0,-4,-4,-7,-16,-8
1523144498504673,8,-1,-7,2,0,3,4,4
1523144498526223,-2,-2,2,-2,0,-3,-7,-3
1523144498526223,-3,1,4,-2,-1,0,11,-1
1523144498527228,-1,-4,-1,-3,-2,-5,-10,-6
1523144498527228,0,-2,-3,0,1,1,17,6
1523144498541284,-4,1,2,3,-1,1,0,-5
1523144498541284,4,-6,-12,-1,0,-1,-2,-2
1523144498541765,-16,-4,-2,-1,-1,0,9,1
1523144498541765,-2,-21,9,-2,-2,-1,-3,17
1523144498563829,-1,2,3,2,0,0,-12,-25
1523144498563829,2,4,2,0,2,3,10,9
1523144498564326,2,-6,1,-2,-3,-3,-5,4
1523144498564326,-4,4,-2,-1,0,-4,-5,-13
1523144498586384,-2,-6,1,-4,-5,-3,-5,11
1523144498586384,-2,0,-8,0,-4,0,9,-17
1523144498586885,14,8,5,1,2,3,8,43
1523144498586885,4,2,-4,-3,-1,-2,-8,60
1523144498600926,-19,-7,-9,-2,0,-1,-9,-90
1523144498600926,2,4,8,-1,-1,-2,-3,49
1523144498601927,-4,-11,-8,-2,-1,-3,-7,-5
1523144498601927,9,1,-1,0,0,2,5,15
1523144498623994,15,3,1,-1,-2,-1,14,53
1523144498623994,-2,-4,-3,-3,-2,-2,11,-7
1523144498625486,-25,-1,3,-2,-3,-8,-33,-63
1523144498625486,0,2,11,3,3,1,3,-18
1523144498646054,-3,-5,-25,-1,0,-3,1,26
1523144498646054,2,13,26,1,-5,-3,1,-23
1523144498648049,5,-1,-3,0,5,4,14,3
1523144498648049,-13,-1,-7,-2,-1,-2,-6,-32
1523144498660081,1,-1,6,1,0,-1,-3,25
1523144498660081,-2,-8,-12,-3,2,-2,6,16
1523144498668603,-3,-2,-3,-1,-7,-1,0,-6
1523144498668603,0,3,-2,-1,0,-3,-4,-18
1523144498683642,4,3,5,1,2,-1,-2,15
1523144498683642,-4,-2,-5,0,0,1,3,-4
1523144498685146,8,0,6,2,1,2,-8,4
1523144498685146,-2,6,-25,-3,-4,-2,-1,-5
1523144498706210,2,-3,25,-1,-3,-2,3,7
1523144498706210,-7,-1,-1,0,1,0,-4,-18
1523144498707706,2,-2,-4,-2,-1,0,3,11
1523144498707706,-10,3,-2,-1,-1,0,-1,-1
1523144498719740,3,0,-6,0,2,1,-1,-9
1523144498719740,0,-2,-3,-1,-2,0,-2,-3
1523144498728763,1,1,0,-3,-3,-1,4,6
1523144498728763,-2,-4,3,0,0,0,-1,0
1523144498743802,1,1,-1,-3,-4,-1,-4,-7
1523144498743802,-1,-6,0,3,5,3,-1,8
1523144498745309,2,-2,-4,-3,-5,-1,1,-1
1523144498745309,0,2,11,-1,-1,-2,-1,-6
1523144498766363,0,4,-4,-2,-3,-4,-3,1
1523144498766363,2,0,-9,-1,1,3,6,2
1523144498767868,2,-3,9,-2,-1,-1,0,8
1523144498767868,1,-2,0,-1,-2,-2,-4,-6
1523144498779902,-1,0,-2,-3,-2,-2,0,5
1523144498779902,-2,-2,-4,-1,-1,-2,-1,0
1523144498788924,-5,2,-3,-1,0,-1,0,-22
1523144498788924,2,-3,-8,0,2,1,-7,4
1523144498803461,-7,-7,13,-2,-1,0,2,-3
1523144498803461,4,-1,-5,-3,-6,-7,-5,-4
1523144498805468,-6,-3,-3,2,4,0,1,-1
1523144498805468,6,12,-4,-4,-1,-2,0,-1
1523144498833540,-5,-1,-9,-1,-1,-1,-6,-13
1523144498833540,-4,-4,3,-1,1,1,-5,-3
1523144498835046,3,-3,1,-4,-4,-6,-4,1
1523144498835046,-4,-7,1,-1,-3,1,2,-2
1523144498840560,1,0,-2,0,0,0,0,-2
1523144498840560,-1,-1,4,0,-3,-4,-15,0
1523144498847079,5,4,-6,1,3,3,26,13
1523144498847079,0,-10,3,-2,-3,-2,-4,-22
1523144498863625,-11,10,-7,-1,0,0,-2,-2
1523144498863625,-12,-3,-3,-1,-2,-1,7,-1
1523144498865627,5,-2,0,0,1,-1,-25,-7
1523144498865627,-1,-10,-1,0,0,-1,-11,8
1523144498886183,10,-3,8,-1,0,2,66,18
1523144498886183,0,6,-1,0,-3,-3,-8,-38
1523144498887685,-7,-7,-1,1,-1,-10,-52,-4
1523144498887685,-16,-3,12,6,4,9,-17,21
1523144498900720,9,-2,-21,-2,-3,-2,60,-23
1523144498900720,2,4,21,2,3,1,-16,19
1523144498907238,24,16,-20,-7,-4,-1,67,33
1523144498907238,-8,-9,13,-7,-8,-13,-30,-8
1523144498923789,20,-5,-21,-5,-6,-10,-54,-12
1523144498923789,-26,7,-12,-5,-1,-1,-10,22
1523144498925286,21,6,6,0,0,3,-13,-33
1523144498925286,1,1,-6,1,2,5,23,22
1523144498946342,11,-6,4,-3,-1,-1,41,13
1523144498946342,-9,-4,-9,-4,-5,-9,-35,-42
1523144498947846,-21,-13,-1,-2,-4,-5,16,-9
1523144498947846,-1,4,-4,-2,-2,-4,-13,-16
1523144498960383,-6,-2,10,8,7,6,-43,10
1523144498960383,13,-1,8,1,2,8,39,13
1523144498967398,-14,-6,-3,0,-4,-6,-17,-1
1523144498967398,2,0,-2,1,0,0,2,-12
1523144498983440,-7,3,-6,-1,-3,-5,-25,8
1523144498983440,2,-5,-1,-2,-1,-4,-16,0
1523144498985445,13,-2,0,1,3,5,10,-2
1523144498985445,12,0,-5,-2,-8,-10,1,2
1523144499006502,-14,2,5,1,4,2,-26,-5
1523144499006502,4,-2,-3,4,8,13,32,9
1523144499008006,-8,-8,0,-2,-5,-2,-7,-6
1523144499008006,2,5,1,0,3,6,9,-1
1523144499020037,-7,-6,3,-4,-9,-6,-8,-8
1523144499020037,3,2,-6,0,-1,-4,4,-3
1523144499029062,-6,4,-2,2,0,3,-2,3
1523144499029062,-2,-5,-5,-1,-1,-1,0,-2
1523144499043603,-9,-3,-2,2,1,3,5,-1
1523144499043603,6,-6,-7,-2,-5,-3,-9,-1
1523144499045608,-7,2,17,-3,1,1,-13,-2
1523144499045608,0,3,-2,-6,-3,-4,16,2
1523144499066162,-1,-2,4,5,2,-1,-10,-5
1523144499066162,0,-5,-10,-1,-2,-3,3,2
1523144499067665,-5,0,-5,2,-5,0,3,1
1523144499067665,1,-1,3,1,9,4,7,-1
1523144499079696,-5,-1,-5,-3,1,2,-3,3
1523144499079696,1,-1,3,0,-6,-6,-1,8
1523144499088720,-6,-2,-1,-2,-3,1,3,-1
1523144499088720,0,1,-4,-1,-5,-5,-8,-27
1523144499103763,-1,-2,-3,-2,0,-1,-8,12
1523144499103763,-3,1,2,0,-2,0,3,14
1523144499105264,6,-1,1,-1,2,2,4,27
1523144499105264,-9,-7,-11,-2,-5,-7,-4,-41
1523144499126320,4,7,7,0,-3,-4,-10,0
1523144499126320,-3,-6,-3,0,6,5,10,-5
1523144499127829,13,4,0,1,2,0,0,25
1523144499127829,-23,-5,-4,-1,1,1,3,-29
1523144499139868,1,0,3,-4,-6,-4,-3,-1
1523144499139868,8,0,2,-1,-7,-2,-3,9
1523144499148882,-5,-5,-8,1,8,3,-1,-19
1523144499148882,7,4,3,-3,-6,-3,3,19
1523144499163920,-7,-3,-1,1,3,1,-7,-33
1523144499163920,0,-4,-4,1,-2,-1,0,7
1523144499165426,-9,-1,0,-7,-2,-2,-3,1
1523144499165426,5,0,-3,0,-2,1,2,24
1523144499185980,-10,-1,-3,-1,-1,0,1,26
1523144499185980,30,3,-1,-3,-3,-5,-8,-14
1523144499187983,-6,-3,-2,3,-2,0,-3,-9
1523144499187983,1,1,2,-1,0,0,-3,1
1523144499200016,-3,0,2,-1,0,3,4,8
1523144499200016,-7,-1,-7,-2,-2,-4,-2,-8
1523144499208539,-3,-4,-3,-1,-1,-3,-5,2
1523144499208539,3,2,4,2,2,2,1,18
1523144499223586,1,-4,-6,-2,-1,0,0,6
1523144499223586,-9,1,4,-2,2,1,-1,-9
1523144499225586,-1,-1,-3,-2,-5,-1,-1,-11
1523144499225586,0,1,-1,-1,-4,-3,-2,8
1523144499246140,1,-1,-2,0,1,2,6,8
1523144499246140,-9,-3,-2,-2,1,8,11,-12
1523144499247644,-21,-2,0,-1,-1,-4,-2,0
1523144499247644,4,-4,-3,1,3,1,-1,2
1523144499260179,-7,0,0,-5,-9,-8,3,-6
1523144499260179,25,-2,-5,-3,1,0,-4,-3
1523144499268700,-1,-2,-5,1,0,1,-11,-23
1523144499268700,-2,-1,8,-4,-3,-2,9,22
1523144499283739,-10,-5,-6,-3,0,-1,-3,-17
1523144499283739,-5,1,-1,0,-2,-5,-8,3
1523144499285244,4,2,2,1,-1,2,2,3
1523144499285244,3,-4,-11,-1,0,-1,-2,-4
1523144499306302,4,4,10,-1,2,2,-3,-2
1523144499306302,-7,-2,3,-1,-2,-2,-2,3
1523144499307802,3,3,0,-2,-3,1,5,-2
1523144499307802,1,-1,-2,-1,1,-2,-3,-5
1523144499319835,3,-1,-2,0,-1,0,0,10
1523144499319835,-9,-3,-1,-1,-3,-2,0,-14
1523144499328860,4,0,1,0,-4,-4,-3,0
1523144499328860,-12,1,2,0,0,1,6,1
1523144499343901,7,-2,-9,0,2,-1,-9,-2
1523144499343901,4,0,1,0,1,-2,0,9
1523144499345411,-25,-3,-7,-6,-7,-3,3,-12
1523144499345411,-5,-10,-4,2,0,-3,-8,6
1523144499365958,-1,7,-1,-1,-4,-5,-15,-13
1523144499365958,-2,-26,10,3,1,3,35,16
1523144499367965,5,5,-1,0,4,-3,-45,5
1523144499367965,5,3,-7,-1,-4,2,56,-6
1523144499379997,-8,-5,-6,-5,-2,-2,-54,-16
1523144499379997,-6,-6,-1,-2,-3,-12,12,1
1523144499395036,36,6,-5,1,5,19,107,21
1523144499395036,-25,-12,0,-4,-6,-19,-110,2
1523144499403560,-2,-10,-8,-1,-1,-1,56,-2
1523144499403560,3,14,3,0,3,3,-27,-7
1523144499405564,-1,-3,1,-1,-1,3,81,3
1523144499405564,4,-9,8,1,0,2,-12,-3
1523144499426122,-7,-6,-6,0,-2,-6,-52,-5
1523144499426122,0,9,8,-2,0,3,-9,-23
1523144499427627,-1,2,6,4,3,-3,-35,2
1523144499427627,16,6,-19,-2,-2,3,34,1
1523144499448679,-4,0,12,1,-1,-3,-69,-6
1523144499448679,1,-1,-17,-2,-1,-2,49,1
1523144499450183,-2,-6,0,-2,-4,-3,-20,-9
1523144499450183,-7,-3,-1,-2,2,1,1,-7
1523144499463717,12,-2,-4,-1,0,0,-6,6
1523144499463717,-7,2,2,-1,0,3,22,7
1523144499465222,1,0,2,-4,-6,-7,-16,-1
1523144499465222,-1,4,-3,-3,-4,-6,-59,-12
1523144499486278,-4,1,0,-1,-1,3,71,9
1523144499486278,-7,-6,-3,0,0,-1,-19,-1
1523144499487782,-7,-2,-4,0,1,-3,-31,-4
1523144499487782,8,6,5,-5,-3,-4,-43,-5
1523144499508837,6,2,-3,0,5,10,101,7
1523144499508837,-8,-2,-3,-4,-4,-6,-29,-2
1523144499510345,-7,-6,-4,-3,-4,0,-16,-4
1523144499510345,-3,1,-6,1,-1,-1,6,-4
1523144499523879,2,1,17,0,-2,-2,-4,1
1523144499523879,0,0,-8,-3,-1,-2,-17,6
1523144499525382,-3,0,2,0,-3,-2,1,-3
1523144499525382,6,4,-2,-3,2,2,33,4
1523144499545941,1,-4,-6,-1,-2,0,-10,-2
1523144499545941,-3,-2,-7,0,-1,-1,3,3
1523144499547942,-1,2,8,-2,0,-6,-24,-4
1523144499547942,3,2,10,2,0,4,25,11
1523144499569000,-2,-1,-2,5,0,1,-7,-3
1523144499569000,-7,2,-2,-5,3,-1,-18,-25
1523144499570502,2,-8,-6,6,0,-1,-3,3
1523144499570502,1,4,5,-2,-3,0,14,4
1523144499583540,-5,0,-3,-4,-5,-3,-2,1
1523144499583540,-1,-6,-3,2,4,0,-4,11
1523144499585542,0,-3,0,-2,-1,3,-2,24
1523144499585542,-6,-2,-4,-3,-2,-2,17,-55
1523144499606097,2,2,1,0,-2,-2,-13,11
1523144499606097,-3,2,-1,-1,-3,1,-1,-16
1523144499607601,-8,-1,-3,-2,-2,-3,-7,3
1523144499607601,5,-5,4,5,2,0,6,-2
1523144499628656,-9,0,-12,-1,3,-1,0,-12
1523144499628656,2,3,11,2,-1,-2,-10,9
1523144499630161,2,-2,-4,-1,-2,0,4,2
1523144499630161,9,7,4,-2,-4,-1,13,17
1523144499642193,-2,-4,-3,-1,-3,-2,-18,-12
1523144499642193,9,-2,1,-2,0,-2,-7,-3
1523144499651218,3,0,0,2,3,0,-2,-13
1523144499651218,-6,-4,-4,0,1,3,-4,7
1523144499666258,2,-1,0,-3,-2,-2,-8,9
1523144499666258,-2,1,1,-1,-3,0,3,13
1523144499667761,-1,0,7,-4,-6,-7,-6,-14
1523144499667761,1,-3,-13,-1,1,0,0,16
1523144499688818,-7,-1,4,1,4,0,2,-3
1523144499688818,2,-3,-8,-3,-5,-2,-3,-1
1523144499690321,-1,1,1,-2,2,1,1,-14
1523144499690321,-5,-2,2,1,-2,-1,-1,9
1523144499702857,6,-1,0,-3,-1,-3,-2,-1
1523144499702857,-1,0,-4,1,0,2,2,8
1523144499709880,-6,-2,-2,0,-1,-2,-6,-28
1523144499709880,5,3,2,1,-2,-2,4,6
1523144499725917,-2,-1,-3,0,-1,0,-3,-7
1523144499725917,0,2,0,-4,-4,-4,-2,3
1523144499727923,1,-2,-7,-2,-3,-4,-2,7
1523144499727923,-23,-4,0,-2,1,0,-2,-11
1523144499748480,4,-2,-3,-1,2,-1,4,-1
1523144499748480,0,-1,6,1,2,1,-3,5
1523144499750480,5,0,-6,-4,-4,-3,-5,3
1523144499750480,-2,1,0,0,-1,1,0,-3
1523144499763022,8,-4,-5,-2,-1,1,3,18
1523144499763022,-9,-3,-3,2,1,0,-4,-21
1523144499770033,-2,1,0,0,3,5,4,1
1523144499770033,1,-1,0,-2,-2,-2,-3,7
1523144499786077,-5,0,-4,0,-2,-1,0,-3
1523144499786077,5,0,1,-2,-4,-3,-2,7
1523144499787580,-3,-1,1,0,1,-3,-2,0
1523144499787580,2,-3,1,-3,-1,-1,-3,-1
1523144499808636,-8,-1,-3,1,0,1,1,-5
1523144499808636,24,-2,-2,0,-1,2,0,1
1523144499810143,-4,-4,-3,-1,0,-2,-10,3
1523144499810143,5,3,-3,-2,-2,-2,-3,5
1523144499823173,-4,0,2,-1,-2,-3,0,-11
1523144499823173,-10,2,4,0,-1,-3,-4,-1
1523144499829692,6,-1,-7,-1,-1,2,5,2
1523144499829692,5,-4,2,3,1,1,3,-5
1523144499846236,-16,-3,1,-2,-3,-3,-3,-34
1523144499846236,-6,0,0,-1,-2,-4,3,-2
1523144499847741,1,0,-3,-2,-1,0,-9,2
1523144499847741,-4,-1,0,-2,-1,-2,0,0
1523144499868295,3,-4,4,-2,0,-6,-23,2
1523144499868295,-3,3,-3,0,-1,1,10,-3
1523144499874812,-7,0,-5,-4,-5,1,10,-15
1523144499874812,0,-9,0,1,1,-2,-12,-12
1523144499882833,2,6,6,0,-1,5,14,5
1523144499882833,-8,-9,0,-3,-5,-10,-50,-10
1523144499889854,9,4,-3,-3,-4,-10,-26,7
1523144499889854,-24,1,-2,1,-1,-14,5,-23
1523144499906397,-2,-4,-4,-2,0,4,-89,-12
1523144499906397,-2,-4,-2,0,2,23,73,24
1523144499907904,1,2,4,2,2,7,24,-5
1523144499907904,-5,-3,-7,-4,-3,-5,-46,1
1523144499928957,3,3,1,0,-1,-8,5,10
1523144499928957,-11,1,-8,-2,-2,-18,-107,-33
1523144499930461,25,0,3,5,7,26,102,43
1523144499930461,5,5,-5,-1,-1,9,63,-6
1523144499942492,-5,-6,8,-2,-4,-9,-19,-4
1523144499942492,5,0,-7,-1,0,2,-15,9
1523144499951516,-9,2,2,2,0,-3,11,-7
1523144499951516,0,1,-4,-1,-3,-2,-20,16
1523144499966055,14,-3,2,-2,0,-1,13,9
1523144499966055,-6,3,5,2,1,8,49,2
1523144499968060,-11,-7,-3,-5,-7,-17,-51,-10
1523144499968060,8,-3,-2,-2,-3,1,4,14
1523144499988615,-9,1,-2,1,1,1,27,-8
1523144499988615,5,1,-2,2,2,-5,-16,-3
1523144499990118,-3,-1,0,1,0,0,-10,3
1523144499990118,-2,-1,2,0,3,9,3,9
1523144500002150,-3,1,-17,-6,-8,-2,16,2
1523144500002150,0,2,13,-4,-3,-4,14,-2
1523144500011175,-3,-3,-5,1,4,-1,-29,-6
1523144500011175,-11,-4,1,0,-1,1,7,12
1523144500026218,3,-1,-7,-2,-3,-2,-2,-22
1523144500026218,-3,-3,-3,-4,-4,-3,-7,-6
1523144500027724,-6,-3,-5,-2,-1,-5,-15,3
1523144500027724,-6,3,0,0,3,-2,-20,6
1523144500048778,4,5,5,2,0,5,11,17
1523144500048778,3,-10,-11,-3,-4,-2,7,-1
1523144500050280,-5,2,8,-3,-6,-6,-10,-4
1523144500050280,-8,-1,-1,-1,-1,-4,-6,-8
1523144500062310,6,-4,-4,1,3,9,16,36
1523144500062310,-1,5,3,-1,-2,-3,7,14
1523144500071335,-26,-15,-3,1,-2,-6,-32,-79
1523144500071335,32,3,1,-3,-2,-2,-2,5
1523144500085872,-4,3,-2,3,1,0,2,2
1523144500085872,6,-3,-3,-1,4,3,1,29
1523144500087879,-7,-1,-1,-4,-2,0,10,19
1523144500087879,-1,-8,-21,-4,-5,-3,-6,-16
1523144500108936,-2,1,22,-1,-3,-3,-4,0
1523144500108936,-2,1,-2,3,0,2,5,-6
1523144500110444,10,2,-1,-2,2,-1,-1,19
1523144500110444,-6,0,0,0,1,1,-1,-8
1523144500122517,-4,0,3,-3,-5,-5,-2,3
1523144500122517,-6,-2,-7,-1,-1,0,1,-15
1523144500131496,0,-3,-1,-2,-2,-3,-5,-3
1523144500131496,-1,0,5,0,-4,0,-5,0
1523144500146034,-1,-2,-11,2,2,1,2,-5
1523144500146034,-5,1,16,-1,-1,-1,-2,-14
1523144500147538,0,2,-5,0,-2,-2,-3,9
1523144500147538,4,-3,-1,-2,1,0,0,0
1523144500168594,-2,-1,-3,-2,-2,-4,0,-10
1523144500168594,-3,-3,-5,1,0,-2,-2,-6
1523144500170097,3,-4,-14,0,2,2,0,10
1523144500170097,-15,1,25,1,-1,-1,3,0
1523144500182129,1,6,0,0,0,0,-3,-16
1523144500182129,-1,-8,-4,0,1,-5,-4,20
1523144500191153,-1,1,-2,-4,-1,1,-1,-27
1523144500191153,1,1,3,1,-3,-2,-3,3
1523144500206197,-23,-1,5,-2,-1,-5,-3,-6
1523144500206197,3,1,-2,0,0,0,2,3
1523144500207697,1,-2,-1,0,-2,-1,-1,6
1523144500207697,6,0,-3,-1,-2,-2,-1,-3
1523144500228754,5,-2,2,0,1,1,1,3
1523144500228754,-1,0,-11,-3,-3,-2,-1,-1
1523144500230258,-3,-1,-6,0,-2,-1,-4,5
1523144500230258,-2,0,8,1,2,2,1,-22
1523144500242293,3,-3,-5,0,0,-2,-3,6
1523144500242293,-1,-1,-10,-2,-1,-1,-1,-3
1523144500251315,8,7,24,-2,-3,-3,-1,5
1523144500251315,4,-1,-9,-2,-3,-1,-1,15
1523144500266353,-7,-8,-8,0,1,-1,-4,-3
1523144500266353,1,-1,-2,1,-1,2,2,-8
1523144500267859,-1,1,2,-1,0,-1,-1,-5
1523144500267859,-4,-2,-3,-1,-1,-1,-1,4
1523144500288415,3,1,0,-2,-2,-2,-1,-2
1523144500288415,-2,2,0,-3,-5,-4,-3,-5
1523144500290421,0,-2,-1,1,-1,-2,-2,4
1523144500290421,-2,1,0,2,3,1,6,-4
1523144500302454,4,-2,-8,-3,-2,1,1,1
1523144500302454,-2,1,4,-5,-3,-4,-2,-5
1523144500311476,-2,1,4,-1,2,-1,0,3
1523144500311476,2,-3,-11,0,2,1,-1,5
1523144500326014,0,-3,-2,0,-1,-4,-1,2
1523144500326014,-4,3,8,-1,-1,1,2,1
1523144500328019,-15,-1,-2,-3,-3,-3,0,-6
1523144500328019,0,3,-3,-3,-4,-3,-5,-4
1523144500348572,-4,-1,-1,-4,-1,-3,-2,4
1523144500348572,-1,0,0,-1,0,-1,-3,-4
1523144500350077,-4,-4,-18,1,-1,0,7,2
1523144500350077,-3,-3,14,1,1,1,-2,-4
1523144500362111,2,7,-6,1,0,-1,-10,-2
1523144500362111,2,9,-8,-2,1,2,5,-2
1523144500371133,6,5,-13,-4,-5,-8,20,-1
1523144500371133,3,-2,-4,1,1,5,13,-3
1523144500386175,-18,-2,0,-2,-1,-2,-21,-4
1523144500386175,-1,-3,-6,-2,-1,-9,-50,-9
1523144500387676,4,-12,12,3,1,7,71,11
1523144500387676,11,1,-7,-6,-3,4,7,4
1523144500408734,0,-5,14,3,3,13,47,1
1523144500408734,1,-1,-5,-2,-3,-8,-34,4
1523144500410240,-7,-6,8,1,-1,-5,-66,3
1523144500410240,1,3,5,0,0,-13,-62,1
1523144500431292,-1,-4,-13,1,1,11,82,12
1523144500431292,-3,-1,18,0,-1,-2,49,4
1523144500432797,-1,-4,-7,-3,-2,3,-24,-8
1523144500432797,3,3,23,2,1,6,6,8
1523144500446332,4,5,-43,-7,-8,-23,-89,-21
1523144500446332,-13,-21,-1,5,0,-17,-13,-13
1523144500447837,3,8,3,-1,0,24,15,10
1523144500447837,-11,-16,7,0,-3,-8,-27,-16
1523144500468892,12,3,2,-1,-2,-2,8,0
1523144500468892,1,3,3,1,1,9,3,-11
1523144500470397,-4,-7,-9,0,-2,-10,-25,-6
1523144500470397,2,-3,-3,-3,0,1,13,0
1523144500491454,3,-2,13,0,0,2,-9,5
1523144500491454,-2,2,-2,-4,-3,1,7,5
1523144500492958,-3,1,2,0,1,-7,-16,-4
1523144500492958,1,1,-15,-1,-1,2,20,1
1523144500505993,-5,-5,0,0,-1,-4,3,-3
1523144500505993,-3,-2,-2,-3,-3,-3,-58,-4
1523144500507997,14,11,9,2,2,7,76,10
1523144500507997,-10,-3,-11,-1,-2,-3,-2,-6
1523144500528551,-3,-7,6,0,1,2,-9,-1
1523144500528551,0,-2,4,-1,-2,0,-19,0
1523144500530056,-2,0,0,-3,-4,-6,9,1
1523144500530056,-1,-4,-13,-1,-2,-4,3,1
1523144500551113,0,2,5,1,-2,3,-2,-2
1523144500551113,4,2,-6,0,7,6,13,4
1523144500552617,-6,-4,-2,-3,-1,-8,-14,-5
1523144500552617,-1,1,-2,-1,-1,0,4,-7
1523144500565652,1,-2,-14,-3,1,0,2,4
1523144500565652,-1,5,31,-2,-3,-3,14,0
1523144500572170,-1,-9,-14,-2,-3,-4,-16,-8
1523144500572170,-3,0,8,2,0,0,0,-3
1523144500588712,-2,-1,-1,0,0,-1,-10,-2
1523144500588712,2,-2,-6,1,1,4,19,17
1523144500590217,-18,1,1,-3,-1,-4,-17,-26
1523144500590217,14,1,-5,-5,-10,-3,4,-5
1523144500611273,-3,-1,5,1,4,-2,-2,-6
1523144500611273,-2,-2,-5,3,3,9,22,-2
1523144500612776,5,0,4,0,-1,-1,-12,11
1523144500612776,-25,-3,-10,-2,1,1,-1,2
1523144500625812,2,-1,10,-3,-8,-4,-2,6
1523144500625812,-2,-4,-11,-2,0,2,7,-17
1523144500632329,6,-2,-4,1,4,2,-9,0
1523144500632329,4,6,3,-2,-3,-4,2,4
1523144500648872,3,-2,0,-1,0,-2,-1,34
1523144500648872,-5,-2,-7,-1,0,1,3,-52
1523144500650378,1,-3,2,0,-3,-6,-8,14
1523144500650378,-10,-13,8,-1,1,0,-3,1
1523144500671433,1,2,4,-2,-3,0,6,1
1523144500671433,4,0,-16,-1,-2,-2,4,16
1523144500672938,-6,11,-3,2,0,2,-1,-8
1523144500672938,3,3,15,-2,-2,-3,-5,5
1523144500685468,-4,2,-12,-5,-4,-3,3,-28
1523144500685468,0,-5,1,0,-2,-2,-7,5
1523144500692488,-2,-1,-4,-1,-2,-1,-5,-4
1523144500692488,-5,-2,-2,1,2,1,7,2
1523144500708535,1,-3,-2,0,2,1,-2,-7
1523144500708535,-5,5,0,-2,-3,-4,0,3
1523144500710536,0,-4,2,-2,-1,-2,0,3
1523144500710536,2,0,-9,1,2,-1,-1,-1
1523144500731089,-1,-6,1,3,3,3,-2,-5
1523144500731089,-1,-1,5,-1,-5,-3,1,6
1523144500732594,3,0,-2,-4,-4,-4,-7,8
1523144500732594,1,-1,7,-3,-1,-3,-2,-3
1523144500745628,-4,0,-5,1,1,1,-2,-3
1523144500745628,-2,-5,-7,-2,2,4,3,8
1523144500752146,1,0,5,0,-2,-4,-6,-16
1523144500752146,-3,5,-9,-2,-4,-4,-4,5
1523144500768692,-2,-1,12,1,-1,0,-3,3
1523144500768692,-13,0,12,-3,-4,-5,-4,1
1523144500770195,-2,-3,-4,0,1,0,-4,-1
1523144500770195,-6,-5,-10,-1,1,2,2,-21
1523144500791249,-1,-1,3,2,1,-1,-2,-7
1523144500791249,0,1,-3,1,-2,-3,-2,6
1523144500792756,-12,-5,1,-1,1,4,-2,2
1523144500792756,0,4,-3,-3,-3,-4,-4,-20
1523144500805291,-8,-14,10,3,3,6,13,-1
1523144500805291,6,-2,-4,0,-2,-4,-6,10
1523144500812306,5,5,-3,-2,-3,-2,0,-2
1523144500812306,6,4,-1,-2,-3,3,9,12
1523144500828849,-2,-3,-6,-2,-2,-2,-5,-1
1523144500828849,2,0,-5,-3,-1,-1,1,0
1523144500830355,10,-10,5,1,1,-4,-4,-4
1523144500830355,-8,-4,-1,0,1,3,6,5
1523144500851412,2,3,-2,-2,-4,-5,-2,-2
1523144500851412,-4,3,-1,-2,-1,4,7,2
1523144500852916,18,5,-17,-3,-3,-4,-24,-5
1523144500852916,-1,0,6,0,0,-5,6,0
1523144500865448,-3,1,-7,-2,-3,1,29,-2
1523144500865448,-2,-15,1,1,0,-2,-9,-1
1523144500872468,-9,4,-3,-2,-1,-7,-14,-6
1523144500872468,2,-5,-16,0,-1,9,6,2
1523144500888509,6,3,4,-3,0,-5,-18,-4
1523144500888509,1,1,-6,-3,0,0,7,4
1523144500890514,-10,-12,8,2,0,6,10,-3
1523144500890514,9,-3,-4,-1,-4,-14,3,6
1523144500911072,-4,3,1,-2,-1,3,39,18
1523144500911072,2,-2,-3,-5,-1,1,-29,-1
1523144500913077,-9,1,2,-1,2,-6,-32,-6
1523144500913077,3,0,-2,-3,-3,-2,19,-3
1523144500924606,0,-3,-2,-1,-2,-6,-85,-7
1523144500924606,-3,-2,2,2,1,0,74,3
1523144500933630,0,0,0,-2,-2,-1,-6,3
1523144500933630,-3,0,-1,2,1,-1,-19,-1
1523144500948671,2,0,-2,-3,-2,-3,-9,0
1523144500948671,-1,-1,-2,-1,-1,0,-11,-7
1523144500950174,0,-1,-2,-2,-2,2,16,1
1523144500950174,-2,0,1,0,0,1,-11,-1
1523144500971232,-2,0,0,-1,-1,0,21,-1
1523144500971232,3,3,-5,-2,-1,-3,-7,-2
1523144500972733,-2,-1,-2,-2,-2,2,10,0
1523144500972733,0,-1,2,0,-1,-1,6,0
1523144500984765,1,-1,-10,-3,-2,-1,8,-3
1523144500984765,-4,-4,10,2,3,-3,-39,-11
1523144500993789,2,-1,-3,-3,-7,-20,-83,-5
1523144500993789,17,5,0,2,5,22,82,31
1523144501008831,-27,-6,-7,-1,1,-4,-43,-10
1523144501008831,3,2,2,0,-3,1,-7,-2
1523144501010334,-5,-4,-9,-2,-4,-5,1,-4
1523144501010334,-17,-6,8,-3,-5,-13,-44,0
1523144501031389,17,6,7,1,-1,3,-3,1
1523144501031389,-5,-2,-8,1,2,2,21,0
1523144501032895,1,1,4,2,3,5,22,4
1523144501032895,-8,-4,-11,-2,0,-5,-23,-10
1523144501044925,2,0,1,-3,-4,0,24,0
1523144501044925,-4,-3,-5,-3,-5,-6,-9,-4
1523144501059969,3,2,15,0,-1,0,10,3
1523144501059969,-2,-4,-10,-3,-4,1,-7,-7
1523144501068991,0,-2,-2,0,-1,-5,-16,-4
1523144501068991,5,2,1,1,4,0,9,2
1523144501070494,1,4,1,0,-3,0,17,3
1523144501070494,-4,-6,-3,0,3,-2,-14,-8
1523144501091050,2,0,4,0,-4,-2,1,1
1523144501091050,-3,-1,-6,-1,1,-2,-7,1
1523144501093055,2,-2,-3,-1,0,8,23,1
1523144501093055,-1,1,5,-1,1,-3,-23,2
1523144501104584,0,-6,-16,-3,-2,-4,3,1
1523144501104584,1,1,10,-2,-4,-1,-1,-2
1523144501113608,-10,-5,-15,1,8,4,5,12
1523144501113608,21,8,9,-2,-4,-5,-8,-6
1523144501128651,-3,-6,-3,-1,-1,0,4,11
1523144501128651,-1,1,-3,-5,-7,-3,-11,-34
1523144501130153,-4,-1,3,0,3,2,13,15
1523144501130153,-6,-3,-9,-3,-1,-3,-9,-9
1523144501151209,-3,1,0,-1,-1,0,0,3
1523144501151209,5,-2,0,0,0,-3,-5,18
1523144501152712,7,1,1,-1,-3,4,9,-17
1523144501152712,-19,-1,-3,0,0,1,1,-4
1523144501164744,6,-4,6,0,-2,-1,-3,-5
1523144501164744,-2,-3,-16,-2,0,0,6,6
1523144501173768,1,-1,1,-1,-2,0,-4,4
1523144501173768,0,-2,-6,-1,-2,-1,-2,2
1523144501188810,-3,3,17,-1,1,0,8,-13
1523144501188810,4,-4,3,-1,-3,1,-9,0
1523144501190317,-1,-1,-8,-3,-4,-3,3,-2
1523144501190317,0,-1,1,0,2,0,-3,-7
1523144501211369,0,-3,-9,2,0,1,2,-1
1523144501211369,1,2,-1,-1,0,0,-1,-1
1523144501212873,-3,-3,5,-2,0,-2,-1,-4
1523144501212873,-8,-1,-4,0,1,1,-1,3
1523144501224905,24,-2,-2,-1,0,-4,-2,-3
1523144501224905,-4,0,0,-3,-2,-2,-2,11
1523144501241449,-5,0,-3,-1,-5,-3,-3,-17
1523144501241449,0,0,-3,-2,-5,-5,-1,-4
1523144501248468,-7,2,12,2,5,4,0,-2
1523144501248468,-1,-1,-3,2,4,3,2,5
1523144501250472,1,-3,-5,-4,-2,-3,0,7
1523144501250472,-1,2,6,-1,-3,-2,-2,-10
1523144501271036,-5,0,-5,-2,-1,-2,-5,1
1523144501271036,-6,-3,0,-3,-4,-1,-5,1
1523144501273033,-3,0,1,0,-2,-2,-1,-3
1523144501273033,3,-2,-2,1,0,2,5,2
1523144501284564,0,1,-1,-5,-3,0,-1,-1
1523144501284564,-11,-1,5,1,0,-1,9,-6
1523144501294092,-1,-12,-4,-1,0,-1,4,5
1523144501294092,3,0,1,-1,-2,0,-4,2
1523144501309129,-11,-1,-6,-1,-1,-3,-7,1
1523144501309129,28,4,7,-2,-4,0,9,5
1523144501311134,-4,1,2,1,-1,-5,-3,-9
1523144501311134,-3,-1,3,-1,-1,-4,8,17
1523144501331188,2,2,-7,0,0,4,-11,-3
1523144501331188,-10,-8,-14,0,-1,-7,-33,-9
1523144501332692,4,8,16,-4,-3,-1,23,2
1523144501332692,-2,-26,2,0,0,0,0,-3
1523144501353748,-3,0,-6,-1,-1,-5,-41,-2
1523144501353748,3,0,-5,-3,-3,2,89,20
1523144501355253,-8,3,0,0,1,3,9,-4
1523144501355253,0,0,-17,-4,-3,-8,-65,0
1523144501368788,0,2,7,-3,-2,-8,0,-10
1523144501368788,-4,-5,7,2,2,-1,-29,1
1523144501370291,3,1,-4,1,1,9,25,6
1523144501370291,-12,5,0,-2,-2,0,30,0
1523144501391349,-6,-6,-6,-5,-4,3,20,0
1523144501391349,3,4,1,-2,-2,-4,-56,-7
1523144501392851,1,0,-4,1,0,-5,50,9
1523144501392851,-6,1,1,2,2,-1,19,-7
1523144501413907,3,-1,4,0,-2,-12,-85,-11
1523144501413907,-7,0,-1,-1,1,7,66,7
1523144501415412,4,-1,2,-5,-3,-4,-42,-4
1523144501415412,1,3,-1,-3,-4,-3,15,13
1523144501428948,-4,-2,-3,1,-1,-5,-31,-10
1523144501428948,5,0,-6,-2,-2,1,-43,-6
1523144501430452,-16,-3,-9,4,3,3,15,5
1523144501430452,9,1,17,-1,-2,-2,-22,-5
1523144501451008,-1,9,-8,-2,-3,-7,17,-1
1523144501451008,-12,-4,-1,1,0,-2,-17,-12
1523144501452510,2,-5,-11,-4,-3,-3,-36,-9
1523144501452510,4,3,1,1,2,-1,-13,-6
1523144501473566,-12,-7,-3,-1,-2,12,24,-2
1523144501473566,28,4,4,1,0,-1,18,-5
1523144501475071,-2,3,0,-3,-3,-1,-10,-5
1523144501475071,-5,-1,-5,-4,-2,-4,-66,-10
1523144501488108,5,0,-3,3,8,16,92,25
1523144501488108,-9,-1,-2,-2,-3,0,23,-2
1523144501494623,1,-2,2,-3,-3,-3,-29,-2
1523144501494623,0,1,-7,1,1,5,-3,-1
1523144501511170,-2,0,11,-2,-2,-4,-23,-5
1523144501511170,-6,-3,-4,-1,-1,-5,-15,-7
1523144501512672,0,0,-1,0,0,4,21,2
1523144501512672,3,2,18,-1,-3,-6,0,-3
1523144501533727,-1,-8,-40,1,4,12,5,4
1523144501533727,-3,7,22,1,-2,-6,-6,-6
1523144501535231,0,-8,-7,-2,-1,-5,-49,-12
1523144501535231,0,-2,-3,-1,-1,0,58,3
1523144501547763,1,-2,0,0,-1,-5,-15,2
1523144501547763,-6,0,0,-1,2,1,-10,-1
1523144501556286,3,0,-20,0,-2,-2,-7,0
1523144501556286,-3,-7,17,-3,0,1,1,-13
1523144501571326,7,3,4,-3,-5,-6,19,20
1523144501571326,-24,-13,-12,-2,-3,-3,-9,-24
1523144501572830,-9,-3,-2,-2,-1,-3,7,4
1523144501572830,30,3,2,-1,0,2,-1,-2
1523144501593887,2,5,5,0,2,4,19,10
1523144501593887,0,0,-3,1,1,2,-17,19
1523144501595392,4,2,3,0,-1,-1,-7,-22
1523144501595392,-11,5,5,1,-3,-2,-6,22
1523144501607926,-9,-10,1,-5,-7,-13,-16,-27
1523144501607926,9,1,2,3,2,3,6,64
1523144501614943,-3,-3,0,1,4,4,3,-61
1523144501614943,-11,1,-1,-4,-6,-4,12,-11
1523144501630986,-1,6,11,2,2,1,-12,-1
1523144501630986,-6,-7,-19,-4,-2,-3,-5,-3
1523144501632989,8,6,20,0,-2,-8,-15,57
1523144501632989,0,-3,-12,1,2,2,-23,0
1523144501653578,-1,-4,0,-1,-1,4,53,-7
1523144501653578,0,-3,-17,-2,-3,-2,-3,-7
1523144501655592,3,5,19,2,0,-1,1,6
1523144501655592,-3,0,-8,-1,-3,-2,-14,-14
1523144501667112,0,-3,1,-1,-3,2,-6,8
1523144501667112,1,0,0,-1,0,0,-14,-20
1523144501676136,-4,-4,-9,1,1,1,15,-1
1523144501676136,-5,-2,-6,-1,3,3,-3,9
1523144501691180,1,-1,0,-3,-3,-2,-12,2
1523144501691180,-2,3,8,-1,-4,-3,7,-10
1523144501692683,-6,-5,-5,-1,-2,0,-16,-4
1523144501692683,0,-1,-10,-1,-2,-8,18,11
1523144501713736,-1,-2,0,-1,0,-1,-10,-23
1523144501713736,-5,0,3,-3,-2,-3,-6,-14
1523144501715241,-2,-5,-1,1,1,2,6,17
1523144501715241,1,0,2,-1,-1,0,3,-2
1523144501727773,-5,-5,-7,-2,-2,-3,-5,0
1523144501727773,0,2,6,-1,-1,-3,4,-6
1523144501734793,0,2,-3,-1,-2,-2,0,-1
1523144501734793,0,-5,-1,1,2,4,6,3
1523144501751336,4,1,-8,-4,-2,-4,-7,13
1523144501751336,-2,-2,2,-2,-2,-1,-7,-34
1523144501752840,4,-5,-5,0,0,1,2,16
1523144501752840,-2,4,-12,0,0,5,-2,-5
1523144501773398,-5,-6,0,0,0,-4,-4,10
1523144501773398,1,-7,0,0,-3,-5,-2,4
1523144501775403,-18,0,-2,-3,-4,-2,-5,-14
1523144501775403,23,0,2,-1,-1,0,3,11
1523144501787932,-4,1,2,0,-1,1,-2,-15
1523144501787932,8,5,-1,1,0,1,-7,2
1523144501794952,-20,-8,-5,-2,-3,-3,-2,-8
1523144501794952,-5,-1,-2,-1,-1,10,36,7
1523144501810994,6,3,8,-1,-1,-2,-5,0
1523144501810994,-1,-1,-2,-2,-2,3,12,0
1523144501813000,9,2,-1,0,-2,2,-1,3
1523144501813000,-1,-5,0,1,-1,-3,-11,15
1523144501833554,0,6,-3,-1,-3,-1,0,-5
1523144501833554,-7,-7,-5,-1,1,-2,-3,1
1523144501835060,4,7,12,-1,0,0,8,2
1523144501835060,-6,-5,-10,-1,0,-2,-9,-11
1523144501847090,-1,5,-3,1,3,0,1,0
1523144501847090,-4,-10,-4,0,-1,-4,-18,6
1523144501856118,5,-3,-4,-1,-2,-3,10,-1
1523144501856118,2,-2,0,-2,-3,-3,-5,-13
1523144501871157,-12,-2,6,0,-4,-2,-5,-8
1523144501871157,4,10,10,-10,1,-2,-2,-4
1523144501872660,2,1,-13,-12,-8,-5,-5,-1
1523144501872660,-1,-9,29,23,16,7,23,-4
1523144501894216,1,0,-33,-9,5,-7,-98,-1
1523144501894216,5,6,6,0,2,15,58,9
1523144501895720,-8,17,-9,-4,-4,-3,-25,5
1523144501895720,-18,-14,1,-10,-11,3,36,-17
1523144501907252,-1,0,9,4,-1,-13,-76,-11
1523144501907252,-3,2,-5,7,2,14,81,12
1523144501916276,8,5,-11,-5,-6,-3,-83,-4
1523144501916276,-2,4,3,-3,-3,-8,-31,7
1523144501931316,-2,-6,-6,0,0,2,39,-8
1523144501931316,2,0,-14,-5,-7,-23,-56,-12
1523144501932820,3,-14,8,6,5,17,67,11
1523144501932820,2,4,1,-3,-2,-11,-71,-1
1523144501953874,-35,-13,1,-1,-1,6,-3,1
1523144501953874,16,2,2,0,-2,-5,-25,0
1523144501955380,1,-1,3,2,2,-5,-27,-7
1523144501955380,2,5,-12,-5,-4,-2,12,-5
1523144501967412,4,6,8,-3,-5,0,24,4
1523144501967412,-8,-7,-4,3,0,-2,6,-1
1523144501976436,-4,-5,3,2,1,-3,-2,-3
1523144501976436,0,0,-7,-4,-2,1,12,-4
1523144501991478,8,2,5,5,-1,3,30,4
1523144501991478,-7,-4,5,1,0,1,-36,-1
1523144501992979,4,-4,-2,0,0,-1,4,-2
1523144501992979,-10,4,3,-2,1,-3,16,-2
1523144502013535,21,-5,-1,0,0,7,28,28
1523144502013535,-5,-3,-2,-3,-2,-4,-9,-2
1523144502015040,-4,-4,0,-1,-1,1,13,2
1523144502015040,-2,2,-8,-4,-3,-4,-10,-6
1523144502027572,-1,1,4,0,-1,-2,7,4
1523144502027572,-3,-4,-6,-2,-2,3,7,3
1523144502036096,-14,-1,-1,1,2,3,-4,-3
1523144502036096,4,-3,2,-3,-4,-2,-21,-4
1523144502051135,5,2,3,-2,-1,2,16,-6
1523144502051135,2,0,-5,-3,-4,-5,-13,8
1523144502053142,-10,-8,-3,1,-2,-6,-2,-7
1523144502053142,1,0,-11,0,0,2,-1,2
1523144502074195,1,-3,12,-2,-2,-6,-22,-6
1523144502074195,-2,0,1,0,-3,2,38,2
1523144502075702,14,3,6,2,4,2,3,11
1523144502075702,-4,-3,-5,0,1,1,-2,-6
1523144502087235,1,-5,-3,-2,-3,-1,19,5
1523144502087235,-4,-2,-3,-3,0,-2,-23,-6
1523144502096254,5,3,6,-3,-5,-1,3,1
1523144502096254,-4,-5,-1,-1,-1,0,8,12
1523144502111294,-5,-1,-8,0,1,-2,-4,-9
1523144502111294,-5,-3,4,-1,-3,-1,-11,-26
1523144502112798,5,-4,-11,-2,1,0,3,1
1523144502112798,-2,2,2,-2,-1,-1,-3,-2
1523144502133854,2,1,1,-2,-3,-3,2,7
1523144502133854,1,0,-6,0,0,1,-7,5
1523144502135363,-3,-2,13,0,2,0,3,-19
1523144502135363,-11,0,-4,-1,-1,-2,-30,2
1523144502147398,19,1,1,1,-3,1,19,-2
1523144502147398,-2,-1,-2,0,-1,-2,7,5
1523144502156417,-5,0,2,1,-1,-4,-5,-5
1523144502156417,4,4,13,0,-3,-2,-8,-6
1523144502170960,-29,-11,-8,-1,1,0,-9,-7
1523144502170960,4,7,0,-1,0,0,-10,7
1523144502172958,4,-2,-2,-3,-2,-3,1,4
1523144502172958,6,-2,3,0,0,1,4,3
1523144502193514,0,0,-4,-1,0,1,0,-8
1523144502193514,0,0,-2,-3,-5,-3,-4,3
1523144502195017,0,7,3,-1,-1,0,3,7
1523144502195017,-4,-3,-7,-3,-2,-5,0,7
1523144502207553,-7,-3,-3,-1,-1,-2,0,-33
1523144502207553,-2,-3,-1,0,3,0,-4,7
1523144502216073,2,1,-1,-4,-4,-5,2,-11
1523144502216073,-2,-3,-16,-2,-1,0,0,4
1523144502231115,0,5,9,0,1,-2,-2,6
1523144502231115,-6,-15,3,-1,0,-1,-8,-13
1523144502232617,0,-5,-10,-1,-4,-1,8,1
1523144502232617,-1,-1,-3,-1,0,-1,3,-9
1523144502253675,-1,2,1,-1,-1,-3,-2,4
1523144502253675,0,1,4,2,0,3,-1,-2
1523144502255179,-1,-5,2,-4,-3,-2,-4,2
1523144502255179,-5,-1,1,-1,-2,-1,1,-2
1523144502267210,1,-6,-2,-2,-2,-2,-2,2
1523144502267210,7,3,0,0,2,1,-2,2
1523144502276233,-20,2,2,1,0,0,-2,-1
1523144502276233,2,0,4,0,-2,1,2,-12
1523144502291274,4,-8,-24,-1,-2,-1,-4,21
1523144502291274,0,8,24,-2,-4,-4,0,-2
1523144502292777,2,-3,-5,-3,-2,-4,-3,-2
1523144502292777,0,3,-5,-2,3,0,1,-7
1523144502313832,-2,-2,-4,2,1,1,2,5
1523144502313832,-7,-12,-12,0,1,-1,-3,-11
1523144502315338,4,3,2,0,-1,1,2,3
1523144502315338,-3,-5,6,-1,-3,-3,-1,2
1523144502336393,1,2,1,-1,0,4,9,-1
1523144502336393,-8,2,-4,-2,-3,-5,-10,-3
1523144502337899,11,0,1,-1,-1,0,-4,5
1523144502337899,-1,-3,-8,-2,-2,-1,19,2
1523144502350932,0,-2,5,-1,-1,0,-7,-3
1523144502350932,0,2,0,0,0,-2,2,-7
1523144502352938,-21,-5,-6,0,0,-1,-11,3
1523144502352938,-3,-1,-1,-2,-3,-4,-9,-24
1523144502373494,0,1,1,-2,-3,-2,-2,-2
1523144502373494,3,-1,-5,0,0,0,-2,-1
1523144502375499,6,3,-5,0,2,-2,-18,5
1523144502375499,0,-2,3,-3,-1,3,32,6
1523144502396052,-8,0,-3,-3,-2,-2,-32,-4
1523144502396052,7,-5,-7,-2,-2,0,23,-1
1523144502397557,1,-6,-6,-2,-2,-3,43,0
1523144502397557,3,0,0,1,0,-8,-34,-3
1523144502411092,-21,-1,7,-1,-1,-3,2,-1
1523144502411092,4,0,-7,-3,0,3,17,4
1523144502412595,-2,-4,-11,-2,-3,0,-71,4
1523144502412595,2,5,10,2,1,6,74,9
1523144502433653,7,-5,5,-3,-4,-10,-34,-4
1523144502433653,-12,2,4,-2,-1,0,-35,-7
1523144502435157,3,4,11,1,-4,-10,6,-17
1523144502435157,2,5,-8,2,1,5,-51,5
1523144502456216,-6,-14,-20,-4,-2,1,-11,-3
1523144502456216,-6,-3,-1,1,-2,-2,-27,-4
1523144502457716,2,2,5,0,1,-4,-31,-6
1523144502457716,3,3,15,-1,0,1,-10,2
1523144502470250,7,11,20,4,1,15,127,19
1523144502470250,6,-1,0,-2,-4,-15,-50,-5
1523144502477268,-19,1,58,0,-2,2,-43,-8
1523144502477268,-6,-36,-97,-2,-1,-11,-15,-5
1523144502493812,-3,9,53,-4,0,3,-21,-9
1523144502493812,1,3,2,0,-1,0,11,5
1523144502495316,-3,5,-6,2,3,0,15,-14
1523144502495316,2,4,20,-5,-5,-1,35,3
1523144502515873,5,-6,-15,0,-3,-9,-30,-4
1523144502515873,-4,-4,-9,-1,-1,2,9,3
1523144502517876,1,-5,-20,-3,-4,-2,25,-5
1523144502517876,-5,0,5,-1,0,1,-21,-4
1523144502530410,7,4,-23,0,-1,-12,-41,-9
1523144502530410,-2,0,15,-2,2,7,40,9
1523144502537430,0,-6,-19,-1,2,-1,24,9
1523144502537430,-1,3,10,-3,-3,0,-4,1
1523144502553971,-2,3,9,1,-2,-1,-6,-2
1523144502553971,-5,1,-13,0,1,-2,2,1
1523144502555477,4,-5,-5,-5,1,7,24,3
1523144502555477,-4,1,5,4,-5,-4,-22,-4
1523144502576033,1,-1,-1,-2,0,4,15,4
1523144502576033,6,-2,-4,-3,-5,-2,-1,-2
1523144502577535,-14,-3,-15,-1,1,-2,1,1
1523144502577535,4,7,19,0,0,-2,-7,1
1523144502590570,-1,-6,-21,1,-5,-6,-4,-5
1523144502590570,1,-4,12,-15,-1,1,7,0
1523144502597088,6,0,0,3,5,2,6,3
1523144502597088,-5,-4,2,2,-1,-1,1,-3
1523144502613632,-3,-3,-1,-4,-2,0,0,0
1523144502613632,-2,1,-5,3,-2,-2,-6,-9
1523144502615136,2,0,1,-2,-5,-4,-26,-1
1523144502615136,-4,-2,-2,3,6,1,22,2
1523144502636193,6,4,-3,-4,-6,-6,-5,5
1523144502636193,-6,-3,-1,3,3,7,5,4
1523144502637696,2,1,0,0,3,6,9,-10
1523144502637696,16,1,-2,-2,-3,-1,-16,-2
1523144502650729,-3,1,0,-3,2,-1,4,-1
1523144502650729,-1,7,8,1,-1,-2,-3,0
1523144502657251,1,-3,-4,0,-1,-1,8,-1
1523144502657251,1,2,-4,-6,-3,0,-8,-12
1523144502673795,-25,-11,-16,1,1,2,0,-5
1523144502673795,4,-1,7,-1,-2,-2,-2,-1
1523144502675294,1,-2,4,-1,-3,-2,0,1
1523144502675294,-1,-1,-29,-3,0,2,4,3
1523144502696350,4,0,4,1,-3,-1,-7,-9
1523144502696350,-4,5,-1,1,0,-3,-4,-3
1523144502697856,-3,-9,-2,0,-1,3,12,3
1523144502697856,-3,0,8,-3,-5,-3,-1,3
1523144502710387,1,1,-1,1,1,1,-1,-4
1523144502710387,-2,-3,-13,0,-1,0,2,6
1523144502717407,4,2,4,-1,-2,-2,-5,-1
1523144502717407,-6,-2,6,1,-2,0,-7,-3
1523144502733952,11,1,-5,-1,0,2,6,17
1523144502733952,-3,-3,6,0,-3,-5,-9,-11
1523144502735455,0,0,-19,-3,-3,-2,-3,3
1523144502735455,-8,-3,10,-1,0,-2,1,-2
1523144502756009,0,-4,1,0,0,1,-1,6
1523144502756009,0,-1,-4,1,2,2,-7,2
1523144502758015,2,5,1,1,-1,-3,3,-3
1523144502758015,0,-3,-2,-1,0,1,0,4
1523144502770549,3,2,4,-2,-3,-5,-5,-12
1523144502770549,-7,-1,-5,-1,0,1,4,0
1523144502777065,2,-1,-3,-2,-3,-3,-1,5
1523144502777065,0,4,6,-2,0,1,-1,0
1523144502793609,3,-4,-18,0,2,2,3,-4
1523144502793609,-1,2,23,0,-2,1,-5,-2
1523144502795114,-2,-1,4,1,-2,-4,-8,0
1523144502795114,-3,-5,7,-2,0,0,5,1
1523144502816170,-4,3,1,-2,-5,-9,-6,-4
1523144502816170,-2,-5,-12,0,-1,-2,11,2
1523144502817674,-13,4,-5,1,-1,4,13,-5
1523144502817674,21,3,20,0,-2,-1,-8,-12
1523144502829706,-4,-3,-2,0,0,0,-3,2
1523144502829706,-2,-2,-7,-1,-3,-4,-1,-3
1523144502838729,-1,-5,4,-4,-5,-5,-4,-1
1523144502838729,-7,-6,-12,0,0,-4,8,3
1523144502853770,4,2,5,1,2,3,0,-1
1523144502853770,-5,0,-2,-1,0,-2,-3,-2
1523144502855273,6,0,-17,-3,-2,2,0,2
1523144502855273,-5,-2,11,-1,-2,-2,-5,-2
1523144502876330,6,2,1,-1,-2,-4,-3,1
1523144502876330,-2,-2,-4,0,-1,-2,-1,-3
1523144502877835,-2,1,-3,3,3,2,-1,-4
1523144502877835,-7,-3,4,3,1,3,9,2
1523144502889865,-6,2,-6,-1,-2,1,-30,-2
1523144502889865,-1,-3,7,-3,-3,0,44,-3
1523144502898895,3,-1,3,-2,-2,1,21,4
1523144502898895,0,-4,-10,-1,0,4,-35,-4
1523144502913430,-5,-19,7,2,4,8,58,5
1523144502913430,1,-1,6,-2,-3,-3,-46,-1
1523144502915434,-1,2,-2,-1,0,-5,7,-5
1523144502915434,-3,-2,-8,0,-1,-1,-10,10
1523144502936489,-1,9,15,-1,-1,-3,-50,-16
1523144502936489,4,-1,-16,4,5,11,33,10
1523144502938004,3,7,10,-3,-2,-5,-14,7
1523144502938004,-1,-1,-17,-3,-3,-4,-7,2
1523144502949525,1,-14,-1,-1,-1,0,15,1
1523144502949525,2,-8,10,-2,-1,-11,-99,-6
1523144502959049,5,9,4,4,8,22,89,11
1523144502959049,0,1,-10,1,0,-1,-4,-2
1523144502973592,4,2,-10,-2,0,-2,-4,-3
1523144502973592,-24,-15,6,-3,-8,-6,-13,-6
1523144502975092,-2,-1,12,-4,-4,-8,-26,-9
1523144502975092,-4,3,14,-3,-2,5,30,9
1523144502996149,0,0,-10,0,-1,7,9,6
1523144502996149,0,0,-19,-1,-1,-3,-7,-2
1523144503002219,-6,-10,19,1,1,4,-6,-2
1523144503002219,-23,-3,-4,-2,-2,-5,-24,6
1523144503009686,5,5,3,0,0,-4,-9,-9
1523144503009686,3,9,-27,-1,0,2,26,5
1523144503018708,-3,-16,-2,-5,-5,-9,-33,-7
1523144503018708,-4,5,10,-1,1,-2,-1,-10
1523144503033749,-6,-1,-10,-3,-3,-6,1,-6
1523144503033749,5,2,6,-1,-1,3,5,5
1523144503035253,-2,-8,-5,2,-1,-1,3,2
1523144503035253,4,-2,-9,-4,-3,1,6,-3
1523144503056354,-5,4,10,-1,0,-3,-2,7
1523144503056354,7,1,0,-6,-4,-3,16,-5
1523144503057815,0,-2,-27,-2,-5,-7,-20,-5
1523144503057815,2,-1,12,1,-2,0,9,2
1523144503069901,-6,-3,-3,-6,0,1,-3,2
1523144503069901,0,3,0,8,1,1,4,-2
1523144503078869,0,-1,-11,-5,-3,0,-6,-1
1523144503078869,1,0,0,6,3,-3,-6,-4
1523144503093408,-1,1,13,5,0,-2,2,1
1523144503093408,-2,-6,-7,13,1,-1,6,-1
1523144503095413,-1,6,8,-32,-1,-1,-8,-2
1523144503095413,-1,3,-7,0,-1,-2,3,-2
1523144503115969,22,-7,-11,1,1,-1,-2,-3
1523144503115969,-4,-3,9,5,0,-1,8,1
1523144503117972,2,8,0,10,-7,-5,-6,5
1523144503117972,9,3,-1,-3,5,-3,-4,2
1523144503130006,-7,-2,-8,-3,1,7,7,1
1523144503130006,4,1,0,-5,-3,-6,-5,0
1523144503139027,0,-6,-2,5,1,2,-4,-6
1523144503139027,-5,-2,-3,-5,-5,0,8,1
1523144503153567,-4,-1,3,2,-3,-3,-4,3
1523144503153567,0,-7,-2,-9,-5,-3,4,-2
1523144503155574,-8,-2,-2,4,-1,3,-1,3
1523144503155574,6,0,1,2,3,-1,7,12
1523144503176130,-6,0,-5,-2,-3,-4,-14,8
1523144503176130,-2,1,-4,-5,-1,0,3,-1
1523144503177631,-1,-3,-11,1,-2,-2,0,6
1523144503177631,0,-2,-3,0,0,1,-2,-22
1523144503189663,-5,-4,-9,-4,-3,-3,-2,2
1523144503189663,-3,3,15,-1,-1,0,0,1
1523144503198687,0,-4,-7,6,2,-3,-5,-1
1523144503198687,0,2,1,-4,-7,-2,0,7
1523144503213728,-3,4,5,-4,-3,-4,1,-4
1523144503213728,-3,-1,-8,-3,-1,-3,-3,-6
1523144503215232,9,-3,6,4,4,0,1,-1
1523144503215232,-6,-2,-6,-2,-4,-3,-2,-8
1523144503236328,0,1,2,0,-3,-1,1,-4
1523144503236328,4,3,-2,-1,2,1,1,7
1523144503237850,-2,1,5,0,2,-1,-1,-7
1523144503237850,-1,-8,-6,-2,-4,-3,-3,-3
1523144503258851,1,-3,-1,0,2,0,1,0
1523144503258851,1,3,-1,-2,-2,-1,0,1
1523144503260354,-4,2,6,-2,-6,-5,-5,-2
1523144503260354,-1,-5,-13,0,1,-2,-3,-3
1523144503273889,-1,-1,-2,2,3,7,-7,19
1523144503273889,-7,-5,2,-2,-3,1,-1,-13
1523144503275393,-1,3,-7,-4,-1,-5,-1,-6
1523144503275393,0,0,8,-3,-3,-3,-1,1
1523144503295947,-4,-7,-6,0,-2,-2,-2,0
1523144503295947,1,0,-8,-2,2,2,2,3
1523144503297951,-13,2,7,0,-2,1,-4,-2
1523144503297951,8,-1,-5,0,-2,-4,-5,-4
1523144503318506,-2,0,-14,-2,-3,-1,4,-8
1523144503318506,-2,-1,3,1,3,3,-1,-3
1523144503320511,-3,-7,-3,1,2,2,2,-2
1523144503320511,-1,6,-2,-3,-2,-2,-3,-2
1523144503333554,-3,-2,6,-2,-5,-5,-7,4
1523144503333554,6,2,-2,-2,-2,-2,2,3
1523144503335552,4,-4,-5,-2,0,-2,1,4
1523144503335552,-1,1,-9,-3,1,4,-1,5
1523144503356106,1,-10,27,3,1,-3,-2,-13
1523144503356106,-2,-1,-4,0,-1,-5,-11,2
1523144503357614,2,1,3,-1,1,1,-30,-17
1523144503357614,-4,-4,1,2,-1,2,33,13
1523144503378668,-9,-1,-15,-1,-3,-2,-11,-11
1523144503378668,5,3,21,-2,0,-1,3,-3
1523144503380172,-9,-5,-1,-2,-1,-5,-19,4
1523144503380172,30,-1,4,1,2,3,-11,-7
1523144503393204,-4,-1,-7,-2,1,-1,3,-1
1523144503393204,-2,-3,-6,1,-2,3,33,6
1523144503399725,5,3,4,0,-2,-3,-8,-3
1523144503399725,-13,-12,4,0,-3,-3,-28,-13
1523144503416266,-4,-2,-10,0,-4,-11,-87,1
1523144503416266,5,11,4,-3,-3,2,61,13
1523144503417772,0,-2,0,-4,-2,-1,-35,4
1523144503417772,-6,2,0,-2,0,4,38,-25
1523144503438828,8,7,38,3,-1,-5,-54,1
1523144503438828,-5,-15,-25,-5,-4,-4,-75,-1
1523144503440333,-15,3,-4,-1,-3,0,88,-18
1523144503440333,-2,4,3,-1,1,1,-53,20
1523144503452863,-12,2,-3,-4,-2,2,60,-4
1523144503452863,-4,0,0,-2,-1,-6,-28,-7
1523144503459881,2,-1,4,2,0,-2,-19,5
1523144503459881,-4,-3,-1,0,-2,-7,-25,-4
1523144503476428,-3,3,-8,-1,-2,1,19,-3
1523144503476428,-5,-5,-3,-2,-1,-2,24,1
1523144503477931,5,-2,-7,-2,-2,1,-5,3
1523144503477931,-10,1,3,-1,-3,-5,5,2
1523144503498484,4,0,-9,-3,1,1,10,2
1523144503498484,1,0,-1,0,-2,0,-12,-3
1523144503500490,2,-4,-3,-1,-1,-1,-26,-3
1523144503500490,1,0,-1,3,0,4,23,1
1523144503513028,8,7,7,-1,0,2,12,0
1523144503513028,-13,-6,-1,-2,-2,-6,-15,-9
1523144503520043,-1,-5,-7,-1,0,7,13,0
1523144503520043,-7,0,0,-4,-4,-8,1,-11
1523144503536089,13,-6,-8,2,3,1,-20,-9
1523144503536089,-5,-2,-7,3,4,5,36,12
1523144503537589,1,3,6,0,0,1,-17,7
1523144503537589,-1,-1,-8,-2,-2,-6,-29,-6
1523144503558645,-2,-2,0,0,1,2,40,5
1523144503558645,1,0,-8,-1,-3,1,14,-2
1523144503560149,3,0,13,-2,-2,-6,-13,-28
1523144503560149,0,-1,2,-3,-1,1,-1,13
1523144503573185,-6,-2,-12,-3,-4,-3,-2,2
1523144503573185,3,4,16,9,0,-2,-23,6
1523144503579701,-1,1,-3,-2,2,3,20,7
1523144503579701,-3,-1,0,0,0,-1,-8,-7
1523144503596244,-2,2,3,-3,1,2,9,-4
1523144503596244,5,1,-4,0,-1,0,-1,3
1523144503597748,5,2,-3,-2,-4,-4,-6,15
1523144503597748,-3,-4,-5,-2,0,-1,14,1
1523144503618811,-1,-1,-3,4,-1,-4,-4,-9
1523144503618811,-4,-8,-5,-5,-1,-2,-8,-30
1523144503620313,-5,2,-2,-1,-2,-2,-4,0
1523144503620313,4,0,-4,-2,0,1,0,24
1523144503632851,-20,-7,5,-1,0,5,15,-3
1523144503632851,3,2,-16,-6,-4,-6,-40,-5
1523144503639868,1,2,31,2,-2,0,24,10
1523144503639868,-6,0,4,-1,-3,-1,4,-23
1523144503656409,-3,-3,-6,-4,-2,-5,-8,11
1523144503656409,-1,-3,-1,0,1,3,-2,-2
1523144503657909,1,-1,-4,1,-1,0,0,-1
1523144503657909,-1,3,7,0,0,-3,-3,11
1523144503678465,-5,-8,2,0,3,2,8,-9
1523144503678465,-1,4,1,-4,-6,1,2,-5
1523144503680468,1,-1,-8,1,4,0,3,7
1523144503680468,6,-3,-2,0,3,3,3,0
1523144503693003,1,2,-3,-6,-5,-3,-11,-16
1523144503693003,2,0,2,-1,-4,-3,2,12
1523144503700022,-1,-5,-7,-3,-6,-5,-2,-4
1523144503700022,0,0,-3,0,-2,-2,-6,-4
1523144503716066,-7,1,-1,0,1,0,0,7
1523144503716066,-5,0,4,1,2,-1,1,5
1523144503718070,-2,-5,-9,0,2,1,-2,-11
1523144503718070,3,-1,-2,-3,-3,-2,0,-5
1523144503738624,-1,1,-3,-3,-5,-1,1,9
1523144503738624,1,-1,8,-2,-4,-2,-2,-13
1523144503740131,1,-2,-13,-1,2,0,-1,1
1523144503740131,-6,1,7,-1,1,1,2,3
1523144503761184,6,-1,-6,0,-2,-1,0,6
1523144503761184,-2,-3,0,1,4,-1,-5,-17
1523144503762688,-5,-3,-11,-3,-1,4,0,-2
1523144503762688,0,-3,-3,-2,-5,-2,8,-3
1523144503776224,5,5,1,-1,-3,-1,-6,1
1523144503776224,3,-6,-4,-1,2,-1,3,7
1523144503777729,-3,-1,2,-1,-4,-3,-7,-1
1523144503777729,2,4,7,1,3,-3,-3,4
1523144503798785,-1,-1,-12,-4,-5,-1,-5,-16
1523144503798785,-2,-2,-2,-3,-2,-1,12,8
1523144503800289,-6,1,0,0,-1,-3,-4,-1
1523144503800289,0,0,-2,1,0,4,3,2
1523144503812321,-11,0,1,-1,-1,-6,-1,1
1523144503812321,3,1,2,1,-1,2,-3,0
1523144503821343,-2,-2,-3,-2,-1,3,13,-1
1523144503821343,0,-1,-2,-3,-1,-1,-5,-5
1523144503836383,-3,-7,-1,0,0,-1,-9,0
1523144503836383,-4,-2,-4,-4,-2,-1,22,-2
1523144503837893,3,1,4,-2,-2,-2,-6,1
1523144503837893,-1,-3,-10,0,0,-1,-20,-5
1523144503858443,12,0,1,1,1,4,11,12
1523144503858443,-10,0,3,-1,-1,-2,-33,-10
1523144503860448,3,-1,0,-1,-2,-5,23,1
1523144503860448,-9,-5,-12,-3,-2,0,4,-7
1523144503872480,8,1,16,0,-2,-4,-41,3
1523144503872480,-2,8,2,0,4,4,8,2
1523144503881505,0,0,-22,0,0,-4,-2,9
1523144503881505,-18,-18,9,1,-1,-2,13,-21
1523144503896043,-1,-6,-7,-1,0,4,1,3
1523144503896043,-3,1,2,-1,-3,-11,-50,-8
1523144503897547,1,1,3,-1,1,5,-28,11
1523144503897547,5,13,-5,-2,-3,-2,15,1
1523144503918602,1,-6,-7,1,2,-1,49,0
1523144503918602,4,-15,10,1,1,7,9,8
1523144503920109,-6,-13,1,-3,-5,-15,-93,-20
1523144503920109,3,1,-1,0,0,7,74,5
1523144503932493,1,3,7,-1,1,4,26,-6
1523144503932493,5,6,-15,-4,-2,-1,5,3
1523144503941516,-2,0,5,-2,0,-1,-24,-10
1523144503941516,8,0,-2,-1,-1,-1,-111,6
1523144503956058,-1,3,5,1,0,2,79,5
1523144503956058,-16,-1,0,-1,0,2,25,-7
1523144503958063,-2,2,-4,-1,-1,0,26,-4
1523144503958063,-1,-4,-9,-1,-1,-3,-25,-2
1523144503978617,4,6,14,-2,1,-1,-1,-1
1523144503978617,-12,-13,-9,-1,0,-8,-28,-5
1523144503980623,4,7,15,-2,0,4,30,2
1523144503980623,-1,-3,-8,-3,-1,1,27,1
1523144503992151,0,0,-1,3,-2,-9,-87,-11
1523144503992151,15,6,-12,-1,-1,6,69,16
1523144504001176,-7,-4,-2,-1,-4,-7,-29,-1
1523144504001176,1,-1,4,2,5,7,49,0
1523144504016217,-4,-2,-5,-1,0,0,-30,-6
1523144504016217,0,-1,4,-1,-2,-2,-16,5
1523144504017720,-1,1,-6,-2,-4,0,10,-20
1523144504017720,-2,1,1,0,-3,-6,-20,2
1523144504038776,-7,-6,-6,0,1,2,15,-1
1523144504038776,1,1,0,-3,1,-2,-11,-2
1523144504040281,2,-1,0,-2,-3,-2,17,13
1523144504040281,1,0,0,-2,-5,-5,-8,-1
1523144504052311,-4,0,-4,-2,-2,-5,-29,-4
1523144504052311,5,-2,0,1,1,7,29,18
1523144504061337,0,-1,-3,3,6,5,10,-14
1523144504061337,-7,-1,-2,-1,-2,-3,-5,9
1523144504075876,1,2,-10,-3,-5,-1,-8,-32
1523144504075876,1,-1,7,-3,-7,-9,-18,8
1523144504077880,-1,-2,-7,-1,4,2,10,3
1523144504077880,7,1,3,0,4,3,7,23
1523144504098937,2,-3,-6,-3,-3,-4,4,-22
1523144504098937,-21,-4,-1,1,0,-2,-16,-18
1523144504100442,8,0,0,-3,-5,-4,8,2
1523144504100442,1,-1,2,-1,-4,-6,-3,1
1523144504112471,1,0,-2,-2,-1,0,9,23
1523144504112471,0,2,2,1,-1,-2,-13,-34
1523144504121495,-5,-8,3,3,2,2,1,6
1523144504121495,-1,1,-4,-3,-1,1,1,-3
1523144504136035,-2,2,0,-2,-2,-2,2,1
1523144504136035,-6,1,-3,-3,-1,1,3,7
1523144504137540,-3,0,-1,0,-2,-3,-1,-3
1523144504137540,0,-3,8,-1,-1,-1,7,7
1523144504158596,-5,-3,0,-1,0,0,-2,0
1523144504158596,1,0,1,0,0,0,-10,5
1523144504160099,6,1,-5,-2,-2,-1,3,4
1523144504160099,-6,0,3,0,-3,0,-3,-8
1523144504181157,2,3,-1,2,5,2,-1,7
1523144504181157,5,0,-6,1,0,0,-1,-3
1523144504182658,-1,-4,0,-3,-4,-3,3,2
1523144504182658,-1,-1,-2,-2,0,-2,-7,-11
1523144504196194,-5,-3,-2,1,-1,5,8,5
1523144504196194,9,2,2,-2,-2,-4,-9,0
1523144504197699,1,1,1,0,-1,1,6,-3
1523144504197699,-6,0,-2,-1,-1,-1,-6,-4
1523144504218757,0,-3,-4,-1,-1,-2,-4,-2
1523144504218757,1,-4,5,0,3,0,3,2
1523144504220258,-10,1,0,-1,-3,-3,-6,-15
1523144504220258,22,-7,-22,-1,0,-3,-4,-12
1523144504241315,-4,1,17,-2,-2,-5,0,4
1523144504241315,2,3,0,0,0,1,0,-1
1523144504242819,-1,-3,-8,0,1,-1,-1,4
1523144504242819,-5,1,8,0,-1,-1,-1,-5
1523144504255353,0,-2,-7,-3,-2,-3,-2,0
1523144504255353,1,-2,-2,-2,-3,-2,0,4
1523144504262371,-3,-1,-1,1,4,5,1,7
1523144504262371,-9,-2,-2,0,-1,0,-1,-2
1523144504278414,3,-1,-1,-3,-5,-3,-4,5
1523144504278414,-4,1,-2,-1,-2,-3,-4,5
1523144504280418,0,-1,-1,0,-3,5,11,3
1523144504280418,-5,-2,0,-1,1,0,-8,-12
1523144504301476,6,3,1,-3,-2,-1,-2,-2
1523144504301476,0,-2,-2,0,-3,-3,-5,0
1523144504302979,1,2,7,1,3,0,15,1
1523144504302979,2,-6,-3,-1,-2,0,-3,1
1523144504316013,-12,-4,0,-2,-1,-2,-1,-2
1523144504316013,0,-2,-6,-1,-1,-2,-5,-5
1523144504317519,1,1,-2,-4,-4,0,13,0
1523144504317519,0,5,4,0,1,-3,-3,5
1523144504338575,-2,-5,-8,0,0,1,1,1
1523144504338575,-1,1,2,-1,-3,-1,0,-1
1523144504340082,-5,1,-1,-1,-4,-4,-9,2
1523144504340082,16,0,-5,-2,-1,1,1,-23
1523144504361134,-2,-1,-4,-1,-1,-1,1,1
1523144504361134,-1,1,-4,-1,1,0,-2,0
1523144504362639,3,-3,0,-2,0,1,-5,1
1523144504362639,-9,-4,-2,-2,-1,-4,-8,9
1523144504375673,-1,-2,-4,1,-2,-2,16,-1
1523144504375673,3,-1,2,-1,-2,2,-2,-3
1523144504382193,-3,0,-2,-1,-1,-3,-20,-1
1523144504382193,-8,2,3,-3,-2,-7,-40,-3
1523144504398735,5,-17,6,1,0,3,18,-2
1523144504398735,2,-2,-6,-2,0,-6,-14,-3
1523144504400238,-11,2,-2,-2,-4,1,21,-4
1523144504400238,-5,-7,-12,0,-2,-13,-119,-9
1523144504421293,-7,14,11,0,0,11,78,9
1523144504421293,2,-9,-9,-2,0,9,92,7
1523144504422803,8,17,-11,-5,-3,-5,-8,1
1523144504422803,-4,-3,2,2,-2,-9,-29,-9
1523144504435334,-3,7,-3,2,2,3,-24,8
1523144504435334,3,3,-12,-1,-2,-4,-28,-2
1523144504442350,1,-2,13,0,-1,-3,39,24
1523144504442350,-13,2,-9,-2,-1,8,66,5
1523144504458893,8,6,-2,1,-2,-6,-22,-6
1523144504458893,-3,9,-2,0,0,-2,-64,-7
1523144504460397,-14,-4,6,-1,0,-1,51,-4
1523144504460397,1,-1,-3,-1,0,1,9,0
1523144504480967,10,-2,2,-1,-1,-4,-15,2
1523144504480967,3,-1,2,1,1,3,7,7
1523144504482959,-10,-5,-3,0,-4,-9,-50,-5
1523144504482959,0,2,-11,-1,-1,6,40,-14
1523144504494990,-5,-14,1,0,1,0,-3,-4
1523144504494990,-11,-10,3,-1,-4,-6,-8,3
1523144504504014,2,-4,-2,0,0,4,3,-14
1523144504504014,13,11,10,1,4,9,35,21
1523144504518552,1,-2,-9,-2,-2,-7,-21,-4
1523144504518552,-3,-4,1,-4,-1,-3,-9,-2
1523144504520561,-2,-11,1,-1,-3,-1,-5,-7
1523144504520561,-1,-1,-4,-2,-5,-3,0,5
1523144504548635,-7,3,11,-2,-1,-4,-21,-4
1523144504548635,4,2,1,1,0,3,11,1
1523144504550136,-7,-8,1,-2,-3,-3,-17,-9
1523144504550136,-3,0,0,0,1,1,8,7
1523144504555651,22,-3,-9,-4,-1,-1,1,-4
1523144504555651,-6,-2,-2,-2,0,2,11,-5
1523144504569691,6,1,0,-1,-1,-2,-28,0
1523144504569691,-2,-2,3,-4,-7,-5,1,-4
1523144504578713,-13,-8,-1,1,-1,-3,1,0
1523144504578713,2,0,-3,3,1,1,-2,-5
1523144504580216,4,-1,-4,-2,-1,1,-9,-1
1523144504580216,-5,-2,8,2,0,1,13,3
1523144504601273,-1,2,-7,-3,-2,-1,-9,-4
1523144504601273,-7,-2,5,-3,-3,-2,-2,1
1523144504602776,0,1,0,-1,-3,-2,-5,-1
1523144504602776,-2,-2,-2,-3,-1,-2,6,-3
1523144504615310,-3,-1,-4,-1,0,0,-5,0
1523144504615310,-2,-2,-3,-1,-3,-3,-3,-4
1523144504622330,1,-2,-1,-1,-1,-1,1,-3
1523144504622330,3,-1,6,-2,-2,-3,-10,-3
1523144504638873,-6,1,-19,-3,-5,0,-3,-1
1523144504638873,0,-2,15,0,6,0,6,16
1523144504640381,5,-4,1,0,-1,-2,-8,-12
1523144504640381,-10,-3,-3,0,1,-1,0,0
1523144504660932,-2,1,-3,0,-1,1,0,-1
1523144504660932,-11,-1,4,-2,-5,0,-2,0
1523144504662936,25,2,-7,0,-1,-1,1,0
1523144504662936,-4,-11,11,2,2,-3,-5,-5
1523144504674972,-4,-9,-4,1,0,4,3,11
1523144504674972,-2,2,-2,-2,-5,-4,-11,0
1523144504683993,-10,4,0,-3,-1,-1,-2,-40
1523144504683993,0,2,-2,-3,-5,-3,2,5
1523144504698532,0,1,3,-2,-3,-5,-6,-7
1523144504698532,12,-5,-7,3,6,1,2,4
1523144504700537,-6,-1,1,0,3,1,-7,10
1523144504700537,2,1,0,-2,-2,2,7,-6
1523144504720589,-4,-4,-8,-4,-4,-3,-1,-2
1523144504720589,-1,0,0,-3,-6,-5,-8,-8
1523144504721091,-3,0,0,0,-1,-1,-2,11
1523144504721091,2,0,3,0,2,6,9,3
1523144504743651,-6,1,5,-1,0,-3,-8,-20
1523144504743651,-1,-1,-5,-2,-3,1,9,-8
1523144504744654,-3,-1,-3,1,4,2,3,4
1523144504744654,-13,-4,-8,0,-3,-2,-3,6
1523144504758194,1,3,6,-3,-6,-4,-6,-1
1523144504758194,-2,0,4,0,-1,1,3,-6
1523144504758695,1,0,-2,-1,-3,-3,-1,6
1523144504758695,-7,-8,-10,0,0,1,5,-8
1523144504780756,1,6,17,0,0,-1,1,5
1523144504780756,6,-2,-5,-1,-2,0,1,-3
1523144504781254,-17,-3,3,1,1,-1,-2,5
1523144504781254,6,-2,-13,-3,0,-2,-2,-5
1523144504803811,2,3,-1,-2,-4,-4,-2,-2
1523144504803811,-1,-4,-3,0,1,3,0,-3
1523144504804314,0,-3,-4,-1,2,1,0,5
1523144504804314,2,3,5,-2,-3,-2,-5,0
1523144504817852,-5,-2,-1,2,0,3,-1,1
1523144504817852,21,0,0,0,1,-2,0,7
1523144504818856,-8,-3,-3,-2,0,1,-2,-19
1523144504818856,0,3,4,0,-2,0,1,0
1523144504840917,2,-7,-1,0,3,0,0,2
1523144504840917,-12,1,-2,0,0,-2,-4,-3
1523144504841414,1,0,2,-1,-2,0,1,7
1523144504841414,5,-4,2,-2,-1,-1,0,0
1523144504862972,-4,0,1,0,0,-1,-2,-3
1523144504862972,6,10,-9,-2,0,0,2,-2
1523144504863973,-2,-2,-2,-2,-3,-3,3,-25
1523144504863973,-4,4,2,-2,-3,1,-13,2
1523144504878009,-1,2,-1,-3,-2,1,14,6
1523144504878009,-9,-4,-11,-3,-2,-3,4,-4
1523144504878511,0,0,-3,1,0,-1,-9,8
1523144504878511,27,0,7,1,1,-2,21,-3
1523144504900568,-4,-1,-7,0,0,1,-13,-5
1523144504900568,-6,-4,1,-1,-3,-8,-24,-1
1523144504901071,3,-1,-1,-2,-2,-2,20,10
1523144504901071,-14,-2,-12,-1,0,-3,-23,-28
1523144504923630,-2,-3,18,0,2,-1,-2,-4
1523144504923630,-9,-4,-10,-4,-4,1,13,10
1523144504924633,5,5,-13,-3,-4,-23,-128,-5
1523144504924633,-15,-1,19,4,9,27,120,39
1523144504938169,3,5,-2,-2,-4,-8,-78,-6
1523144504938169,-6,-5,-1,0,-3,-5,-69,-16
1523144504938672,6,3,7,-1,-2,-6,-83,8
1523144504938672,9,5,-12,0,2,18,45,10
1523144504960729,-15,-6,-6,-5,-3,-11,-72,4
1523144504960729,15,-20,9,0,0,4,20,-9
1523144504961232,-11,-25,3,1,-2,-2,-31,8
1523144504961232,-6,-6,-1,-3,-6,-13,-2,-12
1523144504982789,-1,-1,-6,1,2,11,76,4
1523144504982789,-5,6,3,-1,-1,-10,-118,-11
1523144504983792,1,3,1,2,3,12,97,6
1523144504983792,-3,3,2,-1,-4,-12,-56,-4
1523144504997828,9,-17,-19,-2,-3,1,-12,-3
1523144504997828,1,5,0,-2,-2,3,23,8
1523144504998832,-2,0,-2,-3,-2,4,59,-8
1523144504998832,-2,3,-7,-1,0,-4,-49,2
1523144505020391,-13,7,-9,-3,-2,-4,22,-1
1523144505020391,22,1,-1,3,1,2,41,2
1523144505021395,2,2,0,2,2,5,18,7
1523144505021395,1,-5,-2,-4,-3,-10,-34,-10
1523144505042951,0,12,5,0,-1,-1,2,-8
1523144505042951,-8,-4,1,-1,1,2,23,6
1523144505043951,-2,-1,-1,1,2,2,0,0
1523144505043951,7,1,-4,-3,-3,-6,-20,-4
1523144505057989,2,-2,4,-1,-5,-2,-4,-2
1523144505057989,-13,-3,-11,-1,-3,-1,8,-3
1523144505058991,7,6,18,0,-1,0,4,-2
1523144505058991,-4,-5,-4,4,5,4,2,18
1523144505080549,-5,-3,0,0,0,1,1,-12
1523144505080549,-6,-2,0,-3,-4,-4,3,-4
1523144505081049,-2,0,-4,-2,-2,-1,3,2
1523144505081049,1,5,4,-2,-2,-2,-7,-9
1523144505103108,2,-7,5,2,2,-2,6,18
1523144505103108,-3,5,-1,-2,-2,-1,8,-12
1523144505103610,-6,-1,-6,-4,-6,-4,-8,-7
1523144505103610,16,-1,0,1,0,-2,-6,-4
1523144505118147,2,-5,-5,1,4,5,5,7
1523144505118147,-7,-2,4,-2,-2,3,12,2
1523144505118650,4,-1,-5,-1,3,2,6,4
1523144505118650,-7,-5,-2,1,-3,-3,-6,0
1523144505140207,2,6,0,-2,-1,-5,3,-3
1523144505140207,-1,-2,0,0,-3,-2,1,18
1523144505141227,-4,1,-2,-1,-4,-2,-14,-25
1523144505141227,4,-2,-2,0,4,-1,11,3
1523144505162767,-21,-3,0,0,1,4,6,-14
1523144505162767,1,4,6,-2,-1,-5,-10,14
1523144505163770,-2,-5,-5,0,-1,6,14,16
1523144505163770,8,7,5,-4,-5,-6,-19,-11
1523144505177806,1,-13,-1,2,2,-1,0,-3
1523144505177806,-4,-2,-2,-1,-1,-1,7,-4
1523144505178809,1,1,-3,-3,-2,-3,2,-1
1523144505178809,-18,-1,2,-2,-2,-2,-2,-8
1523144505200369,1,2,2,-1,-3,0,2,4
1523144505200369,1,-6,-8,0,5,3,1,15
1523144505201371,1,0,6,-1,-2,0,-4,-16
1523144505201371,-10,-6,-7,-1,-2,1,1,-1
1523144505222931,5,3,-3,-4,-5,-2,1,4
1523144505222931,-3,-6,2,1,0,-2,-6,-1
1523144505223931,-1,2,0,-1,0,-2,1,8
1523144505223931,-2,-3,-2,-2,0,0,0,-1
1523144505237969,1,1,-1,-2,-2,-4,-7,-1
1523144505237969,1,2,-3,-2,-3,0,-1,-13
1523144505238969,0,-2,-1,-1,-1,-1,1,2
1523144505238969,-1,-3,-1,0,-4,-2,-4,-4
1523144505260526,9,8,-5,1,5,-1,-9,2
1523144505260526,-6,-4,4,-2,-2,-4,2,-10
1523144505261028,0,1,3,0,-1,-2,0,3
1523144505261028,2,-3,-7,-1,2,0,-3,5
1523144505283088,-1,2,13,0,1,0,1,-2
1523144505283088,0,2,-10,-1,1,2,0,-2
1523144505283591,-2,-2,9,-3,-2,-2,-4,-2
1523144505283591,-2,-3,-6,-2,-4,-2,-1,2
1523144505298127,-12,-1,1,-3,-5,-3,2,0
1523144505298127,3,1,-2,2,2,0,-2,-8
1523144505298628,-3,-2,-1,0,-2,0,9,1
1523144505298628,1,-3,-3,-1,2,1,-1,2
1523144505320686,-13,-4,-2,-1,-2,-1,1,-6
1523144505320686,-2,-1,1,1,1,2,-3,9
1523144505321189,5,1,-8,-1,-2,-4,-1,13
1523144505321189,-4,3,3,-1,-2,0,2,-7
1523144505342745,2,-13,1,2,0,0,-13,-18
1523144505342745,0,-2,-1,-1,-3,2,8,-2
1523144505343748,-1,-5,-3,-1,4,-2,-37,1
1523144505343748,1,1,4,0,-2,1,49,2
1523144505357789,6,1,-8,-2,-2,-3,-7,6
1523144505357789,-2,7,10,-2,-2,-2,-24,-7
1523144505358789,-4,-3,-3,2,1,3,16,-3
1523144505358789,4,-5,-10,-2,-2,-4,-11,-1
1523144505380348,6,8,-1,-3,-3,-2,3,3
1523144505380348,-5,2,0,-2,-3,-6,-52,-7
1523144505381367,-17,-5,-7,0,0,4,65,-3
1523144505381367,7,-20,6,0,1,0,-6,-7
1523144505402907,-3,-1,-4,-1,-3,-8,-26,-2
1523144505402907,2,3,-4,-3,1,11,83,0
1523144505403908,-2,-13,7,1,-3,-15,-128,-5
1523144505403908,-8,4,-9,-1,0,9,100,5
1523144505417945,-4,-3,6,-4,-3,-3,-60,2
1523144505417945,-2,-8,5,1,-2,-4,-80,-6
1523144505418948,11,7,-8,-3,-5,-9,-46,3
1523144505418948,-3,-6,-10,0,-2,-2,83,-19
1523144505440508,8,-8,20,4,5,15,9,12
1523144505440508,-7,-1,-10,-4,-4,-2,61,1
1523144505441508,6,2,-6,-1,-2,-3,-54,23
1523144505441508,-11,1,-9,-6,-7,-14,-83,-15
1523144505463067,16,13,15,0,1,-3,17,0
1523144505463067,-7,-18,1,-1,0,2,-5,-7
1523144505463569,3,-4,-2,-1,1,0,16,-6
1523144505463569,-3,3,5,0,-1,-11,-84,2
1523144505478106,-3,3,-15,0,0,15,72,3
1523144505478106,5,-2,-5,0,-3,-4,3,2
1523144505478608,0,4,7,0,1,5,5,-6
1523144505478608,3,-2,-4,-1,-1,2,-1,9
1523144505500666,-2,-1,-10,-1,-3,-10,-16,-9
1523144505500666,2,7,8,1,-1,-2,-9,-1
1523144505501168,-2,-2,-4,1,0,10,31,-5
1523144505501168,-1,8,14,4,5,1,-34,-3
1523144505522726,-1,-6,-17,-5,-4,-2,-17,3
1523144505522726,-1,-5,-5,-2,-3,-1,22,-6
1523144505523728,-6,-1,3,0,3,2,32,-3
1523144505523728,2,4,4,-3,-4,1,-11,7
1523144505537262,-15,-7,-5,-2,-5,-7,-5,-6
1523144505537262,1,5,-5,1,-1,-3,-4,2
1523144505545284,-2,-1,-3,-3,-4,-7,-26,-16
1523144505545284,-3,-1,1,4,7,9,57,8
1523144505560326,-3,1,-6,-2,-1,-1,-3,-1
1523144505560326,-2,2,2,-1,0,-1,-8,0
1523144505561329,0,-1,-1,-2,-4,-4,3,-5
1523144505561329,-3,-5,2,-4,-4,-5,-39,-1
1523144505582887,3,-2,2,0,1,-1,10,0
1523144505582887,-3,-3,-6,4,5,2,-1,0
1523144505583888,3,5,3,2,-1,3,23,-7
1523144505583888,-1,-1,2,-4,0,-1,-17,1
1523144505597924,2,0,1,1,0,1,12,1
1523144505597924,0,2,4,-2,1,-6,-9,-1
1523144505598928,-5,-7,-6,-3,-2,-1,12,0
1523144505598928,-2,-1,-19,-2,-6,-4,-9,-1
1523144505620484,0,-2,1,1,2,1,-8,-2
1523144505620484,-5,3,2,-1,-3,-2,-6,-2
1523144505621489,0,-3,-12,0,1,-2,16,1
1523144505621489,-1,2,12,-3,-3,-1,-12,2
1523144505643047,0,1,-2,-3,-7,-4,1,-2
1523144505643047,-1,0,-2,1,7,0,-17,0
1523144505644049,0,1,1,1,3,6,54,7
1523144505644049,1,-4,-2,-1,0,0,-15,0
1523144505658085,-4,0,-5,-2,-3,0,-6,-2
1523144505658085,19,-2,-1,-5,-6,-1,0,-2
1523144505658588,-2,1,0,-3,-5,-5,-14,0
1523144505658588,1,1,1,0,3,-4,-7,1
1523144505680644,2,3,-1,-1,1,0,13,0
1523144505680644,-2,-4,-5,-1,-4,-3,0,3
1523144505681146,-2,0,-1,-1,-1,2,-6,8
1523144505681146,-1,2,-3,-1,-5,-3,-2,-20
1523144505703206,-2,-2,2,-1,2,-2,-7,-2
1523144505703206,-3,5,6,0,-3,-3,-3,-3
1523144505703707,11,1,3,1,1,2,2,8
1523144505703707,-2,1,-1,-1,1,2,8,8
1523144505717243,-2,-3,-3,0,2,0,-7,-2
1523144505717243,-4,-4,-5,-1,-3,4,4,-2
1523144505725766,1,0,1,-1,0,-1,-2,-3
1523144505725766,-1,-1,1,-1,-2,-5,-23,-2
1523144505740303,2,-1,-2,0,0,1,21,3
1523144505740303,-12,0,6,-3,-2,-2,1,3
1523144505741307,-1,1,-7,-2,-2,-1,-3,-6
1523144505741307,2,-9,-8,-1,-2,0,-5,1
1523144505762864,-3,0,4,-2,0,-2,-10,-4
1523144505762864,-8,-1,-6,1,-1,0,-1,-9
1523144505763868,-2,-1,0,1,1,1,-3,-1
1523144505763868,0,6,12,-1,0,-3,4,2
1523144505777404,-4,-1,1,0,-3,-5,-7,-1
1523144505777404,5,0,3,0,4,3,11,1
1523144505785427,-3,-1,-12,-4,-2,-1,-4,-4
1523144505785427,0,-3,7,3,3,4,1,1
1523144505800464,-1,-2,-4,0,1,0,-5,-2
1523144505800464,-1,5,7,-3,-5,-2,2,3
1523144505801466,-4,-4,0,-2,-3,-2,1,-3
1523144505801466,-3,1,-6,-2,-2,-2,-2,3
1523144505823023,2,-4,-3,-1,-2,-1,-2,-2
1523144505823023,0,-4,-4,1,0,-3,-3,3
1523144505823525,-8,-2,4,-2,-3,-5,-27,-7
1523144505823525,-1,0,0,4,1,4,13,0
1523144505837061,3,-1,-1,-1,2,1,-8,0
1523144505837061,0,-2,-3,-5,-1,-2,-4,1
1523144505845585,-4,1,-1,-2,-5,-1,32,6
1523144505845585,-1,-16,4,-2,-4,-3,-12,-2
1523144505860632,-9,-7,1,1,0,-3,0,-3
1523144505860632,-1,0,-5,-1,2,1,-9,-2
1523144505861125,4,3,5,1,-2,-3,-13,-3
1523144505861125,-2,-2,-12,-2,-3,-2,17,1
1523144505883184,3,7,-2,-3,-4,-1,0,0
1523144505883184,-1,-10,11,4,0,2,-1,3
1523144505883688,7,1,3,-2,-1,-2,12,0
1523144505883688,3,5,-4,0,-1,2,70,17
1523144505897318,3,-11,0,-1,0,-6,-51,-24
1523144505897318,-16,-5,-11,1,-2,1,52,-3
1523144505905340,-5,-5,6,-1,4,4,-2,-1
1523144505905340,0,13,1,-4,-2,2,-8,0
1523144505920378,4,6,1,2,0,7,20,8
1523144505920378,2,0,-13,-3,-2,-16,-56,-13
1523144505921382,-3,-9,-12,0,1,3,41,5
1523144505921382,-5,-4,-3,-2,-2,-3,-17,-6
1523144505942941,1,5,7,0,0,3,37,9
1523144505942941,0,-4,-5,-3,-2,-7,-74,-11
1523144505943942,-7,-1,-1,-3,-3,-3,-40,-5
1523144505943942,2,2,-3,0,1,4,-37,-6
1523144505958981,-18,-5,-5,-3,-5,-6,40,-3
1523144505958981,17,4,0,1,1,-1,-32,7
1523144505965500,0,10,-10,-2,-4,-3,40,-4
1523144505965500,-2,-13,17,2,1,-1,4,-11
1523144505980544,-16,1,-5,-1,1,0,-54,17
1523144505980544,-9,-8,12,-4,0,3,44,-7
1523144505981040,-2,3,-2,0,-1,-3,-13,-2
1523144505981040,5,-1,2,0,1,-5,-27,-6
1523144506003101,18,4,-11,-2,0,-1,2,8
1523144506003101,-1,5,-4,-2,-3,0,19,-3
1523144506003600,2,-1,7,2,5,0,-31,-1
1523144506003600,-1,1,-7,-5,-3,4,11,2
1523144506017136,10,-8,0,0,3,-1,20,16
1523144506017136,-4,4,0,0,-1,3,7,5
1523144506025659,-6,-7,-9,-6,-6,-12,6,-2
1523144506025659,3,4,9,-2,-3,-3,-27,-6
1523144506040699,-1,1,-4,2,0,10,15,-3
1523144506040699,1,0,1,0,5,3,6,1
1523144506041202,4,3,1,0,0,2,-7,-3
1523144506041202,-7,-3,-9,-2,-4,-9,-12,4
1523144506062757,0,0,4,-1,-4,-6,-10,-7
1523144506062757,-3,-2,-2,-1,-1,-1,4,-1
1523144506063760,-3,-6,1,1,1,-1,-21,0
1523144506063760,-2,0,-6,-2,-1,-3,-13,-1
1523144506086321,-3,-1,5,1,0,-2,8,-9
1523144506086321,3,-6,-8,-3,-10,-1,4,3
1523144506086826,1,-1,0,1,10,1,3,0
1523144506086826,-3,-3,-5,-2,1,-3,0,-4
1523144506100358,-2,0,-9,-4,-13,-14,6,-5
1523144506100358,-10,1,19,-2,-21,2,1,2
1523144506101360,9,-2,-2,4,41,16,-2,0
1523144506101360,1,-1,-1,2,-3,5,18,4
1523144506122924,-1,-1,-2,-4,-3,-7,-15,-5
1523144506122924,-4,1,7,-3,-2,-4,9,0
1523144506123921,-3,-7,-5,-3,-19,-4,4,-2
1523144506123921,0,0,-2,-1,1,-4,-1,-2
1523144506145979,-1,1,5,0,5,2,-3,-10
1523144506145979,3,2,-5,-3,-6,-7,-14,-4
1523144506146983,2,-3,13,-2,-4,1,3,-3
1523144506146983,1,0,-11,0,5,-2,0,0
1523144506160518,10,-5,-3,-2,-6,-2,-10,-5
1523144506160518,11,13,-15,-2,8,0,9,-1
1523144506161019,-12,1,0,-3,-10,-6,-5,1
1523144506161019,4,7,-2,-3,-6,-2,3,-4
1523144506183580,0,-1,5,-1,0,-4,-5,-1
1523144506183580,-4,-5,-9,-1,9,2,4,0
1523144506184582,-3,-4,-4,-1,-8,6,5,-1
1523144506184582,-3,3,-1,1,4,3,0,1
1523144506206149,-1,11,-12,-4,-2,0,-7,-1
1523144506206149,2,-1,-3,-1,1,-4,-6,-1
1523144506207142,-10,-2,-3,-3,-10,-7,-7,0
1523144506207142,-2,-7,3,-2,0,0,0,-9
1523144506220679,-5,-3,-2,0,2,1,-2,0
1523144506220679,3,-3,1,-2,1,0,2,-2
1523144506221682,0,1,1,-1,-5,-2,1,0
1523144506221682,2,1,-19,-3,0,-1,0,-1
1523144506242738,-1,2,19,2,-2,-1,-3,0
1523144506242738,-7,-2,-2,-1,0,0,0,0
1523144506243740,10,4,9,-1,-1,0,-2,-4
1523144506243740,-5,-7,-4,-1,-4,-1,-1,1
1523144506266300,-2,-4,-5,-3,-2,-1,-3,1
1523144506266300,2,-3,-1,2,-1,0,0,-1
1523144506266800,-1,-4,1,1,4,-1,4,0
1523144506266800,4,-3,1,-2,-3,-3,-8,-2
1523144506280339,-2,-5,-1,0,1,4,4,0
1523144506280339,2,4,4,-1,2,-1,0,1
1523144506281345,-22,-15,-4,-2,-5,-4,0,0
1523144506281345,-6,2,10,0,-4,-4,0,2
1523144506310918,1,1,-7,-2,1,-1,-6,-11
1523144506310918,1,5,-12,-2,3,2,-2,-1
1523144506311924,-4,5,8,0,-3,-1,2,0
1523144506311924,-3,-2,-2,-2,-2,0,0,1
1523144506325960,-1,0,5,-1,2,1,-4,0
1523144506325960,-6,-13,1,0,0,1,4,-1
1523144506326961,4,0,-9,-1,0,-2,-10,-3
1523144506326961,-1,0,2,0,0,-1,-6,-3
1523144506340504,2,0,-1,0,-3,-5,-6,-5
1523144506340504,0,-1,4,-2,-1,0,2,1
1523144506341500,2,4,2,-3,-1,-2,-4,-2
1523144506341500,0,-6,0,-2,-2,-4,-9,-2
1523144506363056,-3,-4,-10,-1,-1,5,15,4
1523144506363056,-15,-3,5,0,0,3,-5,-1
1523144506363559,5,0,-3,-2,-3,-4,5,-1
1523144506363559,0,6,0,0,-1,-2,-42,-5
1523144506386119,2,3,-2,-2,-1,1,59,4
1523144506386119,0,-2,-5,0,-1,-4,-8,-4
1523144506387120,3,3,-7,-1,-2,1,13,4
1523144506387120,-8,-29,20,4,2,6,15,13
1523144506400657,-4,-1,-19,-3,-3,-13,-63,-10
1523144506400657,5,-4,21,3,2,15,1,3
1523144506401160,2,0,-3,-1,0,-4,-11,-2
1523144506401160,8,6,0,-4,-2,3,60,6
1523144506423217,-5,-5,-3,-2,0,-5,-91,-7
1523144506423217,-2,-6,-7,0,-2,0,50,3
1523144506423719,18,-5,1,1,2,8,-1,-8
1523144506423719,7,7,8,-1,-3,-18,-109,-18
1523144506446278,-2,-7,1,-2,3,18,97,22
1523144506446278,3,5,-9,-4,-2,15,-35,1
1523144506446780,-3,-8,-5,-1,-2,-7,-53,-3
1523144506446780,-22,0,-5,-2,-3,0,1,3
1523144506460317,9,7,4,4,2,-3,13,0
1523144506460317,-22,-11,0,-3,-2,-13,-25,-5
1523144506461318,-9,3,-3,0,2,11,24,1
1523144506461318,15,3,-10,0,1,-6,64,4
1523144506482878,-9,5,17,-2,-1,11,9,-2
1523144506482878,-1,-2,-3,0,-4,-9,-36,-4
1523144506483879,-7,-4,-7,-4,-3,-11,-8,-6
1523144506483879,-8,4,-10,-5,-5,0,44,5
1523144506506438,0,-6,-5,5,1,-5,-34,-5
1523144506506438,8,8,16,-2,6,3,8,-1
1523144506506940,0,0,-3,-2,2,3,-1,0
1523144506506940,0,5,1,-1,-1,4,-15,-6
1523144506520477,-1,-3,6,-3,-8,-10,-8,-4
1523144506520477,-1,0,1,-1,-2,-8,-80,-16
1523144506521481,7,9,-2,3,5,5,87,29
1523144506521481,18,-10,2,-4,-8,8,34,-3
1523144506543035,-1,3,0,0,13,-3,-25,-6
1523144506543035,1,2,-2,-5,-7,-6,25,1
1523144506543537,-4,-2,2,-3,-7,-11,-69,-15
1523144506543537,-7,0,-4,1,-1,0,-9,-2
1523144506566097,3,-4,-1,0,0,4,7,1
1523144506566097,7,3,6,1,1,-6,-5,0
1523144506566598,-4,-7,-6,-4,-3,0,0,-2
1523144506566598,-4,10,-7,-2,-1,2,-5,10
1523144506580636,-3,-3,-3,-3,-5,-4,-7,-2
1523144506580636,-2,1,1,-2,3,-2,11,2
1523144506581140,-3,-3,-1,-2,-3,0,-2,0
1523144506581140,-1,2,0,-1,0,-6,-8,-7
1523144506603197,0,-2,-3,0,2,3,-8,0
1523144506603197,4,2,-7,2,-1,1,20,1
1523144506603699,-3,-8,-13,-1,-1,-10,-11,-4
1523144506603699,-1,-1,20,-2,2,3,-15,-4
1523144506626284,-1,-3,-10,-1,-3,1,5,2
1523144506626284,-1,0,1,-3,-5,-2,9,2
1523144506626786,-3,2,7,2,3,0,-2,-3
1523144506626786,-13,-6,-17,2,-1,-13,-18,-3
1523144506639820,25,3,11,-3,-1,5,3,0
1523144506639820,1,1,-5,-2,-18,1,9,1
1523144506647844,0,1,3,3,15,2,-9,-3
1523144506647844,1,-2,-4,-1,2,1,-5,-1
1523144506662882,-7,-2,-1,-1,1,-4,-28,-5
1523144506662882,-2,-7,-9,-3,1,1,11,0
1523144506663885,1,0,2,-5,-11,-1,-12,-2
1523144506663885,-4,-1,0,0,-3,2,-2,-1
1523144506686446,-6,-3,-7,-2,4,-1,-1,-2
1523144506686446,-2,1,3,0,1,-1,-2,-6
1523144506686949,-4,-4,-6,-3,-6,-1,3,-1
1523144506686949,-2,0,-2,-1,1,-5,-11,-1
1523144506699981,-5,-4,14,1,-2,2,7,0
1523144506699981,-4,-18,-10,3,4,-1,3,0
1523144506708003,-3,5,3,-1,-3,2,3,-1
1523144506708003,-2,-1,-7,1,5,3,-4,0
1523144506723041,-6,0,-2,-3,-8,-7,0,1
1523144506723041,10,1,-5,0,2,1,1,-2
1523144506723543,-3,2,-1,-1,-3,-1,-4,-3
1523144506723543,1,-6,-7,-1,-1,4,3,-1
1523144506746104,-2,2,0,-1,-1,-3,4,-1
1523144506746104,7,13,-7,0,0,-1,-1,0
1523144506747106,0,-8,1,-3,-4,-3,-3,0
1523144506747106,-7,6,-3,-1,-3,-2,-1,-2
1523144506760142,0,-2,3,1,0,0,5,2
1523144506760142,-3,7,-2,-3,-4,-4,-6,3
1523144506768161,5,5,2,-1,-2,-1,-1,0
1523144506768161,-6,-18,3,1,1,0,6,-1
1523144506783203,-3,0,-4,-2,-5,-4,-6,-1
1523144506783203,0,-1,3,-1,1,3,5,1
1523144506783703,-1,-3,-7,-1,2,1,1,1
1523144506783703,3,1,0,-1,1,0,-3,0
1523144506806265,-1,-2,0,-2,-4,-2,1,-3
1523144506806265,-9,-6,6,0,3,1,-1,-4
1523144506806766,8,6,3,-3,-5,-4,-1,-2
1523144506806766,2,-3,-20,-2,-1,-1,-8,-3
1523144506819802,1,-1,-6,1,1,0,-2,0
1523144506819802,-10,-5,-5,0,-2,-1,-2,-2
1523144506827821,3,7,-4,0,-2,2,12,-9
1523144506827821,6,2,0,-1,0,2,-4,2
1523144506842862,7,1,0,-2,-3,-4,3,-2
1523144506842862,-3,-6,-2,0,0,0,-3,-1
1523144506843864,-1,-1,0,-1,-1,-2,-2,-1
1523144506843864,-2,-5,5,-1,-4,-4,-4,0
1523144506866424,-5,12,-5,-2,0,1,5,1
1523144506866424,5,-5,-14,0,0,0,-9,-1
1523144506866926,4,3,8,-2,-3,-1,3,2
1523144506866926,-1,1,-1,1,0,-2,-4,-4
1523144506880461,-1,1,-3,-3,-2,-3,-3,-2
1523144506880461,5,1,0,0,-2,1,-23,-1
1523144506887983,-8,-1,-10,-2,1,-5,24,-2
1523144506887983,-13,-1,6,0,0,7,8,1
1523144506903022,10,-3,-1,-1,0,-6,-4,-1
1523144506903022,-4,-2,-4,-2,-2,0,3,1
1523144506904027,-3,-1,4,1,-2,-2,-7,-2
1523144506904027,2,-2,0,-2,-4,-8,-37,5
1523144506926083,-23,-13,2,2,2,5,7,-7
1523144506926083,-3,-2,-8,-1,2,5,25,-3
1523144506927086,-2,-2,3,1,2,-2,-21,-6
1523144506927086,2,6,0,-2,-1,3,43,-6
1523144506948646,20,-4,-8,-4,-4,-6,-30,-4
1523144506948646,7,1,3,0,-3,-11,-96,-3
1523144506949645,0,10,-4,2,2,10,39,11
1523144506949645,36,0,1,-1,-1,5,64,8
1523144506962680,-48,-1,-8,-2,-2,-4,-25,-2
1523144506962680,-15,-3,9,-3,-3,-12,-53,-16
1523144506963683,15,-3,-25,-3,-3,-6,11,-1
1523144506963683,2,-7,21,1,0,-7,-25,-3
1523144506986242,-22,0,0,0,1,12,9,4
1523144506986242,0,-1,2,2,1,0,39,0
1523144506987248,-25,-6,-1,-8,-2,-3,-29,-5
1523144506987248,30,6,-1,2,-8,-2,4,16
1523144506999783,4,-2,-3,4,13,1,3,-22
1523144506999783,-8,0,-3,-3,1,0,1,3
1523144507007800,4,-8,0,-4,-5,-12,-19,-6
1523144507007800,-14,-2,-4,-5,-38,-22,-4,-9
1523144507022839,-4,-3,2,2,23,17,-31,6
1523144507022839,-1,6,1,9,30,17,86,11
1523144507023844,-4,-4,10,0,-2,9,8,3
1523144507023844,-11,-2,-14,-4,0,-4,-24,-10
1523144507046404,-4,-2,1,-6,-27,-17,29,1
1523144507046404,7,4,4,-4,-1,-3,15,5
1523144507046905,-6,-14,-13,-2,-9,4,-33,-5
1523144507046905,-9,3,15,3,24,18,2,-3
1523144507068463,3,-1,-2,-2,-3,-4,-10,3
1523144507068463,1,2,2,-5,-5,0,21,15
1523144507069467,1,-3,0,-1,-8,-13,-2,4
1523144507069467,0,-2,-9,3,4,2,-26,-8
1523144507083000,9,-5,-2,-1,3,5,31,7
1523144507083000,7,7,-5,-1,-8,-11,-16,-4
1523144507083501,-7,6,5,0,-1,-2,-11,0
1523144507083501,-12,-6,-11,-2,2,1,7,-1
1523144507106062,7,1,0,0,3,-10,-13,1
1523144507106062,-7,-2,-5,-2,-15,2,-9,-3
1523144507107065,25,4,3,4,14,7,5,4
1523144507107065,-7,-1,2,-2,7,1,-8,-2
1523144507128621,8,3,2,-2,-10,-6,4,0
1523144507128621,-4,-6,-1,-1,-9,-5,-11,-4
1523144507129623,-7,-5,0,1,5,5,9,2
1523144507129623,-4,-1,3,-3,-2,-7,-10,-3
1523144507143160,2,-2,-1,-2,-2,0,-4,-1
1523144507143160,-1,-4,-7,-2,1,0,10,-2
1523144507143661,-2,-1,11,-1,-4,-5,-11,-1
1523144507143661,2,2,-6,-2,-1,-2,0,-1
1523144507166225,0,0,6,2,4,2,4,-2
1523144507166225,1,-4,-1,1,4,3,0,1
1523144507166723,-4,-2,3,-1,-5,-5,-3,-1
1523144507166723,-15,-2,-7,-3,-5,0,-5,0
1523144507188782,-2,-3,6,2,0,3,7,-1
1523144507188782,7,-2,1,-3,-3,-5,-7,-4
1523144507189284,1,-1,-3,-3,-3,-2,-3,-2
1523144507189284,-17,1,0,3,8,-2,1,1
1523144507202819,4,-5,-5,2,0,3,-1,2
1523144507202819,-1,-2,1,0,-1,-2,1,-4
1523144507203822,-2,4,0,-2,-4,1,-7,1
1523144507203822,7,-4,1,-1,-1,1,0,-2
1523144507225881,4,0,-2,-6,-7,-6,-1,0
1523144507225881,0,5,-5,-1,-2,-6,-5,-4
1523144507226883,-2,-5,-3,0,0,-2,1,-4
1523144507226883,2,-1,4,-1,0,-2,-3,0
1523144507248943,0,0,-4,0,-8,-7,-3,-2
1523144507248943,-5,0,1,1,6,3,1,0
1523144507249444,21,0,0,3,4,6,0,4
1523144507249444,-3,-2,-11,0,0,0,-1,-2
1523144507262980,-3,-6,-3,-2,-2,-3,-2,0
1523144507262980,2,-2,0,-5,-5,-5,-2,0
1523144507263481,-13,0,-1,-1,1,-1,0,-3
1523144507263481,-4,-1,0,1,1,1,-1,2
1523144507286041,5,2,-2,-3,-4,-2,-2,-1
1523144507286041,-5,-2,0,-2,-3,1,1,-1
1523144507287048,-9,-6,-3,0,6,0,0,-2
1523144507287048,3,2,0,0,-5,-2,-1,-2
1523144507308606,-1,4,0,-2,-3,-2,-2,-2
1523144507308606,-5,-4,-1,1,-2,-2,-1,0
1523144507309602,-2,1,-17,1,0,-3,1,-1
1523144507309602,3,-2,18,-2,2,1,0,-3
1523144507323139,-12,1,7,1,-1,-2,-1,15
1523144507323139,9,-3,-13,-1,-3,-2,-4,-5
1523144507323641,-5,2,15,1,-2,-4,-1,0
1523144507323641,9,2,-2,0,-1,-4,-3,-3
1523144507346200,-25,-12,-1,0,7,11,14,1
1523144507346200,0,2,6,1,0,0,0,2
1523144507346702,-9,0,-9,-3,-5,-3,-24,-12
1523144507346702,13,14,-6,-3,-1,5,24,0
1523144507368759,9,3,0,-2,-2,-3,-4,-5
1523144507368759,1,-1,-6,-3,-1,-3,-3,-1
1523144507369265,9,-1,1,-3,-1,1,7,-1
1523144507369265,-5,4,-18,-1,-2,-5,-20,3
1523144507382801,-8,0,-5,1,-2,-1,4,-4
1523144507382801,7,4,11,-2,1,0,-4,0
1523144507383800,2,0,5,-1,-1,-4,-2,-4
1523144507383800,9,-7,-5,-5,-3,-10,-84,19
1523144507406363,1,-5,-1,2,4,8,89,5
1523144507406363,-13,-6,0,-2,-5,-8,-61,-10
1523144507406870,5,5,2,3,2,3,40,15
1523144507406870,-9,-24,12,-1,-1,3,12,-17
1523144507428420,15,8,-3,-3,0,-3,-102,1
1523144507428420,0,2,-3,-1,0,5,66,8
1523144507429422,-4,-2,-8,-3,-4,-7,-46,9
1523144507429422,-3,0,3,-1,0,1,6,1
1523144507442957,-4,1,-5,-3,-2,-4,-46,-2
1523144507442957,38,-4,-3,-2,-1,-2,44,11
1523144507443960,-23,2,10,-2,-3,-8,-65,2
1523144507443960,-5,-3,-12,-2,0,-3,23,1
1523144507466022,-3,-2,1,-2,-1,-3,-3,-6
1523144507466022,-10,1,0,0,1,2,-32,3
1523144507467022,5,0,-5,-3,-3,-1,34,-4
1523144507467022,1,1,1,2,-1,0,-5,-3
1523144507488586,6,-3,6,-2,-2,-1,45,22
1523144507488586,-5,-4,-10,0,0,3,7,-1
1523144507489584,0,-1,11,-1,-3,-1,-14,-10
1523144507489584,-12,-3,-3,-1,-3,-1,26,-2
1523144507503119,15,4,-4,-1,-1,-7,-63,-1
1523144507503119,-7,-2,-2,2,4,10,84,9
1523144507503621,-4,-4,0,-3,-3,1,-2,-3
1523144507503621,-2,6,2,0,0,-8,-24,2
1523144507526179,-3,-8,-4,1,5,5,8,-12
1523144507526179,-5,-3,-4,-2,-4,-9,-48,-9
1523144507526681,-4,-2,-5,1,2,5,25,-2
1523144507526681,5,-4,1,-3,-3,1,9,-6
1523144507548742,0,2,1,0,-2,-7,1,-5
1523144507548742,-12,-2,1,0,1,-1,-11,-8
1523144507549240,6,1,-3,-1,-1,3,-7,-2
1523144507549240,1,-1,4,-2,-1,0,-8,-1
1523144507562777,0,-4,-16,-4,-5,-1,21,-5
1523144507562777,-4,4,21,-1,-1,-5,-25,-6
1523144507563780,2,-2,-6,2,0,1,8,1
1523144507563780,0,3,-1,-1,0,-1,4,3
1523144507586340,-6,-2,-2,1,0,2,12,-7
1523144507586340,0,-3,-7,-1,-3,-3,-6,-1
1523144507586842,1,-1,-1,-3,4,-1,4,-2
1523144507586842,-3,-3,-3,1,-1,0,10,-5
1523144507608398,-4,0,5,-1,-2,-5,3,-2
1523144507608398,0,-1,-7,-2,-6,4,-11,-4
1523144507610405,1,0,0,3,5,3,10,2
1523144507610405,-6,-2,-2,-1,-1,-1,-4,0
1523144507622435,10,2,6,-3,-4,-4,-1,4
1523144507622435,-6,-4,-4,-2,-3,-4,-8,-21
1523144507630459,-7,-6,-6,0,1,-3,2,-2
1523144507630459,2,2,-1,-2,-1,1,0,1
1523144507646000,-1,3,-6,2,0,-1,1,-2
1523144507646000,5,-2,11,-2,-1,-1,0,-1
1523144507648004,-14,-2,-2,0,-4,-1,-2,3
1523144507648004,2,-1,-2,1,-2,-1,3,11
1523144507668561,-8,-4,-3,0,-1,-3,-3,-8
1523144507668561,5,0,-2,0,3,6,-2,-1
1523144507670566,3,0,3,-2,-3,-2,-1,-1
1523144507670566,1,-3,0,2,2,1,5,6
1523144507682094,-17,2,-9,0,0,-1,-14,2
1523144507682094,10,-4,12,-3,-4,-5,-2,-1
1523144507691118,1,-2,-8,-1,-1,-4,-2,-3
1523144507691118,-6,-1,-1,-1,0,-1,0,-5
1523144507706160,-6,-2,-3,-2,1,2,5,-5
1523144507706160,-7,2,-1,1,2,-2,-6,1
1523144507707662,2,-1,-3,-1,-3,0,0,0
1523144507707662,3,-1,-3,1,-2,-1,0,-5
1523144507728721,3,-1,2,-3,-3,-1,3,6
1523144507728721,-6,1,-3,-1,-2,-3,-5,-2
1523144507730221,-2,-2,1,1,0,0,3,0
1523144507730221,-2,0,-4,-1,0,0,0,-4
1523144507742254,5,1,4,-3,0,2,3,-2
1523144507742254,-2,4,4,-3,-2,-3,-2,14
1523144507751279,-6,-3,-7,-3,-4,-1,-4,-6
1523144507751279,21,-1,2,1,-1,0,-3,-6
1523144507766319,5,0,2,0,-1,1,4,2
1523144507766319,-2,-3,-8,1,2,-1,-1,5
1523144507767827,6,0,-1,0,-1,-1,1,-4
1523144507767827,-3,-2,-3,-5,-6,-2,-3,2
1523144507788880,3,1,4,-1,-3,-3,0,-2
1523144507788880,2,-4,-9,-2,-2,-2,-3,2
1523144507790384,-2,1,1,2,1,3,1,-1
1523144507790384,-7,0,-10,1,0,0,2,-1
1523144507802416,4,-3,8,-3,-5,-2,-3,-1
1523144507802416,-12,-3,-4,-1,-3,-2,-3,-4
1523144507811440,4,-1,0,-1,1,-1,-1,13
1523144507811440,-2,3,1,0,4,1,3,17
1523144507825976,-5,-1,-6,1,2,0,1,-13
1523144507825976,-1,-3,-6,-1,-2,-4,-4,1
1523144507827982,2,0,1,-5,-4,0,4,0
1523144507827982,0,-1,0,-1,-5,-2,0,-5
1523144507848540,-1,-5,-1,0,1,-1,-1,1
1523144507848540,-4,-3,-6,-1,2,-1,14,-2
1523144507850543,4,3,-2,-1,-1,-2,0,-12
1523144507850543,-4,-2,5,-2,-2,-2,-1,-6
1523144507862074,-3,-2,0,0,-1,2,-2,-5
1523144507862074,2,1,0,-2,-1,-6,-73,-7
1523144507871097,-1,-2,0,-1,2,11,73,7
1523144507871097,-10,-3,6,2,3,4,2,-2
1523144507886145,3,4,1,2,1,5,8,5
1523144507886145,7,-10,-1,-2,-5,-7,-44,-6
1523144507887645,-20,1,-2,-4,-5,-8,3,-7
1523144507887645,4,-1,-2,0,-2,3,23,-6
1523144507908697,-10,-2,-1,-2,0,-7,-62,7
1523144507908697,27,12,-3,0,0,5,42,-10
1523144507910202,-2,-11,-13,0,0,-3,6,-8
1523144507910202,-4,-3,22,-1,-2,-1,-3,12
1523144507922234,2,1,-12,-3,-6,-9,-47,-18
1523144507922234,-3,4,3,2,3,11,81,13
1523144507931256,5,2,-10,-4,-5,-15,-70,-1
1523144507931256,-2,7,-19,-1,3,4,37,7
1523144507946296,5,4,5,-1,-2,1,68,8
1523144507946296,-16,-2,-2,-2,-3,-3,-29,-4
1523144507947814,5,6,0,1,0,0,-6,-1
1523144507947814,-2,-3,0,-2,-1,-6,-35,-8
1523144507968857,0,-2,-4,-2,-1,-7,-28,-5
1523144507968857,3,-1,-3,1,0,6,24,-6
1523144507970365,0,3,6,-1,-1,-1,-4,9
1523144507970365,-3,0,-1,-1,-3,-10,-21,-11
1523144507998936,6,-4,-13,1,0,2,6,11
1523144507998936,-8,3,18,0,1,-2,-2,-18
1523144508000441,-4,-7,1,-2,-3,-4,-23,-14
1523144508000441,-5,-3,-4,-1,-4,-5,-14,-4
1523144508005457,4,-1,3,2,2,6,48,-8
1523144508005457,-6,-8,-7,-1,6,3,-17,9
1523144508012472,5,6,-15,-3,-1,-3,-13,-1
1523144508012472,-4,2,14,1,-3,-1,-3,-10
1523144508028519,-4,-3,-3,-4,-5,-2,3,1
1523144508028519,-8,0,-1,-4,-7,-7,-8,-7
1523144508030524,3,-1,-3,-1,0,-3,-25,-5
1523144508030524,2,-2,-3,0,3,5,36,9
1523144508051078,10,-1,3,0,0,0,-7,-1
1523144508051078,-3,-14,-1,-1,-1,-2,-4,3
1523144508053083,-3,0,10,-1,-2,-2,7,6
1523144508053083,2,-1,-4,-5,-4,-5,-12,-3
1523144508066116,-8,-4,4,-1,2,1,5,-2
1523144508066116,-4,0,-16,1,4,-4,2,-1
1523144508067621,0,-2,12,0,-2,-1,6,-11
1523144508067621,-6,-1,0,1,1,-1,-9,-4
1523144508088678,0,3,-4,0,0,1,-1,9
1523144508088678,-5,1,1,-6,-2,2,-1,-6
1523144508090181,-4,-6,-11,0,2,3,5,2
1523144508090181,1,-1,-4,1,1,0,-7,0
1523144508111235,4,3,7,-3,-7,-4,-1,1
1523144508111235,1,1,1,3,1,-3,2,2
1523144508112741,-1,-6,3,1,-1,3,7,10
1523144508112741,-1,2,-1,-3,-1,0,-3,-6
1523144508125273,-7,-8,-6,-1,0,-1,-1,-3
1523144508125273,-4,-1,1,-4,-6,-5,-1,-2
1523144508132294,-12,4,8,-2,-4,0,8,-2
1523144508132294,0,-4,-12,-3,0,0,-5,0
1523144508148835,-8,0,12,0,1,-1,-4,-3
1523144508148835,2,4,4,1,0,1,3,7
1523144508150341,-3,-7,3,-1,-2,0,0,2
1523144508150341,1,-2,-4,-1,-5,-2,-4,-1
1523144508170895,-3,-1,-4,0,1,0,-1,-3
1523144508170895,-4,-1,-2,0,1,-1,-1,0
1523144508172902,12,0,-3,0,-2,-2,-2,0
1523144508172902,-4,-1,5,-1,1,1,-1,-6
1523144508185433,1,-6,-11,-2,-1,-3,-4,-3
1523144508185433,2,2,1,-3,-8,-1,-1,4
1523144508199971,0,-3,-2,3,10,3,2,0
1523144508199971,1,0,2,0,-1,-3,-4,6
1523144508208497,3,-4,-7,-3,-4,-3,0,-3
1523144508208497,2,4,6,1,0,-2,0,6
1523144508210501,-1,-2,-3,-2,-2,0,1,-6
1523144508210501,-3,2,-1,-3,-4,-1,-2,0
1523144508231057,-13,-5,-2,1,0,0,0,1
1523144508231057,22,-1,1,-1,1,1,-1,-7
1523144508232560,3,3,-13,-3,-1,-1,-3,6
1523144508232560,-1,-5,-2,-2,-1,-3,-4,-2
1523144508245594,-3,3,3,-1,-4,-4,-1,-3
1523144508245594,-7,0,-2,-1,2,1,-1,-1
1523144508252111,-4,-2,-3,-1,-3,-1,-2,6
1523144508252111,5,4,6,0,0,-2,-2,0
1523144508267655,-9,-3,-6,-1,-2,0,0,-1
1523144508267655,-10,-4,-10,-1,-2,-1,-3,-7
1523144508276175,-4,1,7,1,1,-2,-4,-26
1523144508276175,-5,0,-4,0,0,2,10,2
1523144508291215,2,-1,1,1,0,0,-1,1
1523144508291215,-5,-1,-4,-3,-3,-2,-1,2
1523144508292719,-2,-5,-1,-4,-3,-2,-1,2
1523144508292719,-1,-1,-1,0,0,-1,-3,-11
1523144508305252,-3,1,4,-1,2,-2,-5,-1
1523144508305252,-5,-4,-2,1,-3,1,4,1
1523144508312270,1,1,-4,1,0,-2,0,13
1523144508312270,3,-2,1,1,0,1,0,-1
1523144508328816,-2,-1,-7,-4,-4,-1,-1,1
1523144508328816,-2,0,3,-1,-3,-2,-4,0
1523144508330322,3,-4,3,-1,-3,-2,6,-9
1523144508330322,-6,-1,-1,2,-1,1,-2,2
1523144508350874,1,4,-3,-1,-1,-1,-1,-1
1523144508350874,-4,1,0,0,-1,-2,-2,-2
1523144508352882,-6,0,0,2,0,1,1,-3
1523144508352882,7,-9,-10,-3,-4,-3,-3,0
1523144508365421,4,1,16,-1,0,-4,-3,7
1523144508365421,-2,1,-4,0,-3,0,2,-5
1523144508372432,-3,1,-6,-1,-1,-2,3,3
1523144508372432,-7,3,10,0,2,0,0,-4
1523144508388473,-4,-8,4,1,0,1,0,4
1523144508388473,-6,-3,-9,-1,2,0,-3,1
1523144508390478,-3,-2,2,-3,-3,-4,-39,-4
1523144508390478,0,-14,3,-1,-1,5,19,13
1523144508411036,10,0,-4,0,0,0,23,-6
1523144508411036,-23,-18,14,0,1,0,1,1
1523144508412538,12,4,-7,-1,-1,-5,-14,-16
1523144508412538,5,5,-6,-5,-4,-5,1,-2
1523144508425573,3,3,1,-1,-1,3,-19,-5
1523144508425573,0,-11,-5,0,-1,-9,-88,-11
1523144508432590,1,2,5,0,0,14,79,15
1523144508432590,-10,-2,-4,-2,-4,-16,-107,-16
1523144508448635,-10,-7,-8,1,0,12,116,12
1523144508448635,9,10,7,-3,-4,-8,-34,3
1523144508450141,-3,-5,-1,-1,-3,1,-35,-6
1523144508450141,0,0,-6,0,-1,0,25,5
1523144508471193,-6,1,0,-1,-1,-5,-22,-31
1523144508471193,-1,3,-7,-1,-2,5,32,9
1523144508472698,-6,-5,14,3,2,1,-15,3
1523144508472698,-4,-5,-7,-2,-2,-3,-13,-11
1523144508484730,9,2,-4,-2,-2,-3,-36,5
1523144508484730,8,2,-4,-2,-1,0,63,0
1523144508493754,0,3,-5,-2,-4,-5,-8,-12
1523144508493754,2,-1,2,0,1,1,-11,1
1523144508508793,-2,-1,-2,0,-1,0,-17,1
1523144508508793,-1,2,2,0,-1,0,6,1
1523144508510298,-3,-2,-2,-1,0,2,-22,-2
1523144508510298,0,0,0,-1,-1,1,30,18
1523144508531355,-17,-3,1,0,-3,-4,-37,4
1523144508531355,1,-1,-2,2,3,7,58,-26
1523144508532862,1,-1,-3,-2,-4,-4,4,17
1523144508532862,-2,-1,3,-1,-2,-8,-62,-9
1523144508544890,3,2,0,2,1,7,90,25
1523144508544890,-2,-4,-6,0,-1,-6,-30,0
1523144508553917,-2,-6,1,3,1,2,8,-4
1523144508553917,-4,1,-1,1,1,0,8,-1
1523144508568452,0,0,-4,-4,-5,-5,-43,-26
1523144508568452,4,2,0,-1,-1,-4,-3,3
1523144508570463,-8,-1,-1,0,0,-1,16,1
1523144508570463,-1,0,-2,0,-1,2,19,0
1523144508591014,4,-2,2,-1,4,-7,-27,-1
1523144508591014,1,-3,-8,-1,-3,2,6,3
1523144508593019,-7,1,-1,-2,0,-4,-11,-1
1523144508593019,2,-1,-3,1,2,2,13,1
1523144508605051,1,-1,4,-1,-2,-3,-7,-5
1523144508605051,-5,-2,-2,-2,-3,-2,-10,3
1523144508614074,2,-2,-5,-2,-2,-2,-6,0
1523144508614074,0,0,-1,-1,2,2,15,-5
1523144508628613,-12,-1,-3,0,0,2,0,0
1523144508628613,7,2,4,-1,-2,-3,-16,-6
1523144508630117,-2,0,2,0,-1,-1,8,2
1523144508630117,0,-8,-7,0,2,4,13,-6
1523144508651172,-4,0,-3,-3,1,-2,-14,-1
1523144508651172,-2,0,3,-1,-2,1,-4,2
1523144508652679,2,-2,-3,-3,-3,-4,1,-3
1523144508652679,-2,1,1,-3,-5,-3,2,-1
1523144508664709,4,0,2,-1,-2,-3,-10,-2
1523144508664709,-2,-2,-8,0,2,0,-7,4
1523144508673734,2,-1,-1,1,3,1,4,0
1523144508673734,-3,0,1,-2,-2,0,1,0
1523144508688773,2,1,-2,-3,-4,-2,-3,-3
1523144508688773,0,-4,-4,-1,0,-3,0,1
1523144508690277,-4,0,10,0,-1,-1,-3,-1
1523144508690277,0,0,-4,-1,-4,-1,3,0
1523144508711333,2,-2,-3,2,1,3,-1,-1
1523144508711333,-1,0,3,-1,1,-1,-2,0
1523144508712837,0,2,-9,-2,-3,-1,-2,-2
1523144508712837,-1,-4,1,1,-2,-1,4,-1
1523144508733394,-2,-1,0,-1,1,-3,-3,0
1523144508733394,2,-2,-8,-1,1,2,0,-2
1523144508735399,-1,2,4,-2,-1,-1,0,-8
1523144508735399,11,-3,-8,-2,-2,0,1,7
1523144508748434,-2,6,4,-3,-5,-4,-7,-1
1523144508748434,-3,0,0,-1,0,0,0,1
1523144508749940,1,-1,-2,0,0,1,1,-2
1523144508749940,-4,5,7,-3,-3,-1,3,-3
1523144508770994,2,-8,-8,0,2,0,-3,0
1523144508770994,0,0,2,-1,1,1,1,1
1523144508772495,-5,0,2,-1,-2,-1,-1,0
1523144508772495,-4,0,-5,-2,-2,-1,0,-4
1523144508785028,2,-3,-2,-3,-1,1,2,15
1523144508785028,-5,1,4,-2,-3,-1,-3,-16
1523144508793552,-3,-3,-6,-1,1,-1,-6,-5
1523144508793552,-3,-1,0,0,3,0,2,1
1523144508808593,2,1,1,-2,-3,-2,0,-3
1523144508808593,-1,-3,-1,-1,-3,-2,-1,24
1523144508810097,0,1,1,0,3,1,-5,-23
1523144508810097,0,-3,-5,-1,1,-1,5,-2
1523144508831151,-3,-2,0,0,-1,-3,3,-4
1523144508831151,8,0,-9,-1,-2,0,6,31
1523144508832658,-2,2,0,1,-2,-2,-1,20
1523144508832658,-16,-1,5,-3,-2,-6,-13,-64
1523144508844687,0,-3,-13,-4,1,0,-2,3
1523144508844687,-6,-2,-1,0,0,-1,-3,-18
1523144508853712,3,-2,-1,1,-1,-1,2,34
1523144508853712,2,6,4,2,0,2,7,17
1523144508868753,-9,-17,6,1,1,0,-8,-13
1523144508868753,2,1,4,-1,-2,0,1,-1
1523144508870259,-3,-6,2,1,1,1,3,-5
1523144508870259,13,1,-7,-5,-4,-1,-2,5
1523144508891311,0,9,-2,2,-2,-5,-31,-31
1523144508891311,-3,2,3,-4,-1,2,66,10
1523144508892816,-8,-4,-6,-5,-3,-2,-6,-9
1523144508892816,22,-1,4,3,1,-1,-7,8
1523144508913371,1,3,-2,0,1,0,-16,17
1523144508913371,0,-3,2,2,1,-3,-30,-5
1523144508915376,4,2,-2,-1,-1,1,42,-10
1523144508915376,-15,-2,-4,-6,-5,-9,-63,8
1523144508928913,0,-16,8,5,0,3,3,1
1523144508928913,-7,-2,-2,1,4,12,81,8
1523144508930418,11,2,-5,-5,-3,-8,-59,9
1523144508930418,-7,0,2,3,4,9,41,11
1523144508950971,-1,2,-6,-6,-8,-13,-49,-4
1523144508950971,-2,4,-3,1,-2,-6,-32,-19
1523144508952976,-2,0,-7,-2,-1,0,2,0
1523144508952976,-7,-4,14,0,-3,-14,-63,-9
1523144508973530,4,6,2,-1,2,12,47,7
1523144508973530,4,-5,-8,-1,0,-2,15,2
1523144508975034,6,7,7,0,-2,3,61,-3
1523144508975034,-19,-4,-8,-3,-3,-6,-35,1
1523144508988574,-5,2,-3,1,2,3,-1,-1
1523144508988574,0,0,17,1,1,2,39,3
1523144508990076,-6,-6,-6,-2,1,2,-14,-11
1523144508990076,6,2,-3,-2,-1,2,41,8
1523144509011132,12,-3,-9,-6,-6,-5,-25,-2
1523144509011132,-9,-4,-7,-2,-3,-1,-3,14
1523144509012636,-1,-1,6,0,-3,-6,-30,-15
1523144509012636,4,-2,-4,-2,0,6,6,3
1523144509033690,3,4,-2,2,4,8,87,20
1523144509033690,-4,-4,-3,-6,-5,-11,-64,-12
1523144509035198,-3,-2,-1,-2,-1,3,19,11
1523144509035198,-2,-4,-6,-3,0,-1,9,2
1523144509048230,0,2,5,-2,-5,-8,-29,-34
1523144509048230,-8,2,1,0,-2,0,-15,4
1523144509054746,-5,-5,-6,0,1,2,2,0
1523144509054746,3,0,-2,0,-3,1,8,2
1523144509078811,-4,-3,1,-1,0,-1,-5,4
1523144509078811,0,0,-1,-3,-3,-3,-5,-13
1523144509080319,-3,-2,-3,-1,0,-5,-17,-3
1523144509080319,1,0,-2,-2,-2,-3,4,2
1523144509093851,-2,0,-3,-1,0,-3,13,15
1523144509093851,-4,0,-1,0,-1,1,-20,-22
1523144509095355,3,-2,0,-1,0,-3,-10,12
1523144509095355,4,1,0,2,2,4,15,-2
1523144509107889,-10,-3,-2,-7,-2,0,-3,-55
1523144509107889,-2,-1,-1,5,1,-1,-21,-23
1523144509114910,1,0,3,-1,0,0,3,15
1523144509114910,5,-1,-6,-1,-1,0,4,77
1523144509130982,1,1,-2,-2,-3,-1,-7,-41
1523144509130982,-6,-1,1,-3,-2,-3,-16,-13
1523144509132991,-10,-5,-2,-1,-1,-3,1,6
1523144509132991,-3,-1,5,2,2,-2,-1,-40
1523144509154048,-9,-1,2,1,0,-2,-1,49
1523144509154048,12,0,-5,-2,1,1,-1,26
1523144509155549,-3,-2,-5,-1,-4,-3,1,-11
1523144509155549,2,-1,2,-1,0,2,1,0
1523144509168082,-4,-3,-7,0,0,0,6,15
1523144509168082,-2,0,7,0,0,-3,-10,-13
1523144509174599,0,1,-2,-2,-2,-3,-11,1
1523144509174599,-1,-1,-2,-2,-4,-2,0,-17
1523144509191143,0,-1,-3,-1,0,1,-2,0
1523144509191143,0,-3,-5,2,3,3,1,9
1523144509192647,5,7,7,5,4,0,-2,-7
1523144509192647,-5,-9,-10,-1,0,0,1,-15
1523144509213701,1,0,-1,-4,-2,-3,0,6
1523144509213701,0,1,0,-2,-4,-3,-4,6
1523144509215206,-15,-2,1,-1,0,-1,-2,1
1523144509215206,16,1,2,-1,-1,-2,6,-10
1523144509227740,-1,-3,-3,0,-2,0,-2,8
1523144509227740,-2,0,5,0,-2,-2,-5,0
1523144509234759,-4,-4,-15,-3,-2,1,-2,-10
1523144509234759,2,3,8,0,-1,1,6,11
1523144509251302,6,0,2,0,-4,-2,-1,-5
1523144509251302,-3,-2,-3,-3,-1,-1,-3,-11
1523144509252813,3,0,5,-2,-2,-1,0,-2
1523144509252813,-4,2,-9,0,1,-2,0,-2
1523144509273863,0,-1,9,0,0,-2,-3,3
1523144509273863,-1,2,-14,0,3,2,2,1
1523144509275366,3,-1,16,0,-4,-2,-2,-2
1523144509275366,-10,-3,-8,-1,-3,-2,-3,-9
1523144509287902,22,1,-4,-1,-2,-2,-9,-2
1523144509287902,-3,0,0,0,-3,-1,7,2
1523144509294919,-1,-3,-8,-2,-2,0,0,-5
1523144509294919,-2,0,9,1,1,1,0,-5
1523144509310962,-8,-4,-9,-2,0,0,-3,2
1523144509310962,8,-3,1,-2,1,0,2,7
1523144509312967,2,0,-6,-2,-3,-3,-9,-5
1523144509312967,-9,0,5,0,-2,-2,1,-4
1523144509333520,-4,-3,-6,-3,0,0,-1,3
1523144509333520,-2,0,-2,-1,-1,-2,-6,-3
1523144509335531,-3,-4,-3,1,0,0,-15,3
1523144509335531,1,1,-5,0,0,1,21,-3
1523144509348061,-8,-5,8,-2,-2,-1,7,3
1523144509348061,5,-1,-2,-1,-1,-1,-18,-4
1523144509355080,21,0,-3,0,1,1,11,-3
1523144509355080,-8,-4,3,-1,0,-6,-43,-10
1523144509371122,-11,2,-3,0,1,5,35,4
1523144509371122,-3,-6,0,-3,-3,0,4,1
1523144509372626,1,-1,1,-3,-4,-8,-72,1
1523144509372626,2,-3,-9,-2,0,-3,21,9
1523144509393682,-2,5,8,1,-1,6,34,-7
1523144509393682,-8,-2,-5,-2,-4,-10,-74,-7
1523144509395186,-5,-3,-2,2,1,2,6,6
1523144509395186,5,9,-6,-1,0,15,77,20
1523144509407217,22,-13,4,1,0,-8,-54,2
1523144509407217,1,1,1,-3,-1,2,7,7
1523144509416241,-15,0,-4,-3,-3,-8,-38,-44
1523144509416241,-11,-1,-1,0,0,-8,-65,0
1523144509431282,-9,5,-1,3,3,9,106,9
1523144509431282,1,-2,-1,0,0,3,-15,-10
1523144509432789,-4,-2,3,-2,-1,-1,-5,5
1523144509432789,0,-7,-1,-1,-1,2,21,23
1523144509453840,-5,2,-1,0,-2,-7,-40,-23
1523144509453840,-22,-5,1,-2,-2,-4,-15,11
1523144509455345,1,3,-2,0,1,2,49,-16
1523144509455345,-1,-2,2,-1,-1,-3,-16,20
1523144509467377,4,3,-2,0,0,-6,-38,-7
1523144509467377,-1,2,-1,0,-1,1,28,-30
1523144509476401,-6,-9,-8,-3,-2,-1,16,13
1523144509476401,-1,-2,1,0,-1,-1,-13,-18
1523144509490940,-1,-1,-3,0,0,-1,-3,32
1523144509490940,1,1,2,1,0,2,23,19
1523144509492944,-1,0,1,-3,-1,2,17,10
1523144509492944,1,-3,-1,-4,-3,-4,-5,2
1523144509513500,-5,1,-3,0,-1,-1,-19,-16
1523144509513500,-1,-1,-1,-1,1,1,-2,-9
1523144509515505,-1,-1,1,-1,-2,0,3,4
1523144509515505,0,-2,-1,-1,-2,-4,0,-11
1523144509527537,-2,0,-1,2,3,1,-10,5
1523144509527537,3,-1,-3,-1,-2,-5,9,-8
1523144509542078,2,-1,1,1,-2,1,2,8
1523144509542078,-6,-2,0,-1,-1,-1,0,1
1523144509551101,20,2,0,-1,-3,-3,-8,-12
1523144509551101,3,-2,-2,0,0,-1,-1,7
1523144509552605,2,2,-1,-1,0,0,12,2
1523144509552605,-3,-2,0,0,0,-1,-4,-14
1523144509573660,-8,-1,-1,-10,-5,-3,-9,0
1523144509573660,1,-1,-5,-3,-5,-1,7,6
1523144509575166,4,2,0,1,3,-1,-1,5
1523144509575166,0,-2,-3,7,6,3,5,-3
1523144509587196,-10,-4,0,2,-2,-3,-5,-14
1523144509587196,2,0,1,-2,3,0,7,-2
1523144509603740,-6,1,0,-2,-5,-3,-3,-9
1523144509603740,-1,-4,-2,-3,-1,-3,-7,0
1523144509611260,2,-4,-6,-3,-3,-3,-2,-2
1523144509611260,-1,1,0,1,-2,-1,4,-1
1523144509612766,-2,-5,-9,-1,-1,2,1,1
1523144509612766,1,6,8,-1,-3,-2,-1,-4
1523144509633819,-3,0,-2,-1,-1,-1,-5,-12
1523144509633819,3,-3,0,2,0,-2,1,0
1523144509635326,1,1,5,1,0,4,5,4
1523144509635326,-6,-5,-12,-4,-2,0,2,-15
1523144509647356,-1,-2,-1,0,-1,0,0,7
1523144509647356,0,5,4,0,0,-4,-1,7
1523144509663901,-1,-7,-9,-2,0,0,3,5
1523144509663901,3,-1,5,-3,-5,-4,-4,-13
1523144509670921,-8,-2,-7,-3,-2,-4,-12,-19
1523144509670921,1,0,-2,-2,1,3,-1,1
1523144509672925,2,1,1,0,-1,-1,1,-2
1523144509672925,-1,-4,-13,1,0,1,-3,15
1523144509693479,-2,4,12,-5,0,0,-1,7
1523144509693479,6,-7,-1,6,-1,0,1,4
1523144509695484,-1,1,-1,-1,-2,-1,2,6
1523144509695484,-3,0,-1,-3,-2,-7,-9,-18
1523144509707515,-6,-3,-3,1,-1,-1,0,0
1523144509707515,14,1,-3,-3,-1,-1,-1,-2
1523144509716540,-5,-4,1,1,1,0,-1,1
1523144509716540,-1,2,1,-1,-1,-1,-1,-4
1523144509731081,2,-1,1,-1,-1,-2,-1,7
1523144509731081,-5,-1,1,-3,-2,1,0,2
1523144509732586,3,-3,-3,-1,-2,-1,-3,-3
1523144509732586,1,0,2,-2,-1,-1,1,-1
1523144509753683,-5,-2,-6,1,-1,-1,0,3
1523144509753683,-4,-1,0,-2,0,2,5,10
1523144509755188,1,3,3,1,-1,0,2,-5
1523144509755188,-3,-2,-1,-1,1,2,-1,4
1523144509767219,0,-1,-2,-2,-2,2,-1,7
1523144509767219,-4,1,-1,-1,-3,-3,-1,-9
1523144509776244,0,1,0,0,1,-1,-4,-5
1523144509776244,-1,-3,-8,0,-1,1,1,3
1523144509791284,8,0,2,-1,-4,-2,-2,1
1523144509791284,-16,-2,-3,-2,-1,-5,-5,-3
1523144509792788,-1,-1,1,1,-2,0,8,-2
1523144509792788,2,0,-2,0,-1,-2,-3,3
1523144509813845,-4,-3,-5,0,-1,-1,0,-18
1523144509813845,-5,-1,0,-3,-1,-6,-4,11
1523144509815347,-4,0,-3,-1,-1,-3,-4,-4
