timestamp,emg1,emg2,emg3,emg4,emg5,emg6,emg7,emg8
1523146905265499,-18,-21,-13,-8,-5,-2,0,4
1523146905265499,-16,-41,38,8,9,7,0,-42
1523146905281040,40,-52,-48,-13,-6,-3,-1,77
1523146905281040,-87,40,13,8,4,-2,-7,-17
1523146905282044,30,-13,-17,-2,-6,-4,0,-26
1523146905282044,-22,-28,-4,-10,-5,-3,-6,27
1523146905305106,15,-32,-20,27,17,14,14,-13
1523146905305106,-2,-16,-27,-11,-3,-3,-1,-27
1523146905307110,-9,23,-4,6,0,-2,1,27
1523146905307110,19,-1,-4,-10,-6,-6,-11,76
1523146905312124,-5,28,27,3,9,4,4,-40
1523146905312124,13,-4,-14,4,-7,1,5,33
1523146905320150,18,38,4,10,18,3,5,27
1523146905320150,-20,-17,4,-18,-31,-8,-6,-31
1523146905343206,-4,12,1,-2,4,0,-2,-5
1523146905343206,10,-8,5,-5,10,-3,-3,0
1523146905344711,-8,-11,7,4,1,-3,-2,-3
1523146905344711,1,7,1,-9,-16,-3,-1,-7
1523146905345713,-4,-3,15,1,1,1,0,3
1523146905345713,4,27,7,4,11,4,2,-26
1523146905374792,-7,-15,4,12,10,6,8,-1
1523146905374792,10,27,-2,-11,-12,-3,0,-1
1523146905375793,13,8,2,-4,12,2,7,-3
1523146905375793,18,-18,-4,9,23,-21,-9,-14
1523146905381812,-17,15,5,-7,-54,-5,-5,-28
1523146905381812,-1,6,6,-5,24,14,0,5
1523146905382315,13,18,-8,8,1,-2,9,6
1523146905382315,-28,-15,5,17,-5,-4,-2,-13
1523146905385822,24,1,-7,-1,-17,3,1,21
1523146905385822,6,5,4,-7,16,1,2,-11
1523146905401362,-9,2,6,-25,-9,-5,-2,-5
1523146905401362,-5,-7,-13,14,3,0,0,-6
1523146905401865,8,12,10,-6,1,-9,-5,-2
1523146905401865,1,-3,-2,0,-20,-2,0,-11
1523146905416406,-6,5,8,7,26,7,4,-8
1523146905416406,13,-4,-1,-5,-35,-3,1,12
1523146905416902,5,5,-6,1,8,1,-1,6
1523146905416902,1,17,1,-2,2,1,-2,-6
1523146905431944,-20,-31,-3,5,7,2,-1,-1
1523146905431944,-25,-1,4,-4,6,-8,-9,-7
1523146905437982,2,1,3,12,-6,3,14,24
1523146905437982,10,-10,-6,-4,-1,10,3,-7
1523146905454509,-14,12,4,4,6,-6,-5,-51
1523146905454509,36,46,-16,-3,-3,-3,3,68
1523146905460664,-4,-23,-7,-8,-8,0,-8,-6
1523146905460664,-18,-14,6,-2,6,-1,-1,-6
1523146905476563,6,19,6,4,6,-7,1,-8
1523146905476563,-6,-21,-10,1,-7,0,0,-21
1523146905477065,-8,20,13,-4,-10,-2,-6,-10
1523146905477065,16,11,-8,8,22,3,4,7
1523146905492104,-9,-15,-7,-2,-26,-9,-8,-5
1523146905492104,0,-1,-1,-19,11,7,4,-2
1523146905498254,1,10,2,11,-7,-5,-2,4
1523146905498254,-7,-7,7,-9,-8,-1,0,-11
1523146905514666,1,-5,-2,7,4,-1,0,14
1523146905514666,-6,-10,4,2,6,2,-1,-4
1523146905520682,4,3,2,-2,-3,0,0,-1
1523146905520682,2,-2,6,-3,2,5,2,-1
1523146905536221,5,13,-8,-10,-19,-2,-2,8
1523146905536221,0,0,2,2,-1,-4,-1,-3
1523146905537225,-18,-13,-12,-9,3,-1,-6,-18
1523146905537225,0,-1,-1,4,-11,-1,1,-5
1523146905552281,3,10,8,3,7,0,2,14
1523146905552281,-10,-25,-10,6,-1,4,0,-15
1523146905558568,-2,-11,2,-8,0,-3,-4,0
1523146905558568,-20,10,-21,-13,-17,-5,-5,-9
1523146905573319,3,-20,1,3,12,-3,2,15
1523146905573319,-13,-8,8,-1,-6,-3,-4,-11
1523146905581138,17,7,-2,5,13,5,4,-1
1523146905581138,-30,-19,-17,-17,-6,4,2,30
1523146905596387,8,-4,17,18,-18,-7,-9,-14
1523146905596387,14,9,-6,-15,-7,-2,1,2
1523146905596883,-19,-1,-4,-3,-2,0,-2,-7
1523146905596883,14,7,14,-2,-4,-2,0,-6
1523146905611926,0,17,1,-5,5,3,1,5
1523146905611926,-6,0,-1,9,-1,-3,-1,0
1523146905617940,-35,-24,16,1,-8,-5,-7,-16
1523146905617940,26,32,6,3,6,4,3,-4
1523146905633483,-1,2,4,-1,4,0,-1,-3
1523146905633483,-12,29,-5,0,6,-3,-1,-14
1523146905640793,0,-43,5,-8,-5,-3,-2,-5
1523146905640793,-5,-17,-15,9,0,1,4,15
1523146905656540,19,14,2,-5,1,-3,-7,-17
1523146905656540,63,29,-4,2,-3,0,0,35
1523146905657045,45,54,-6,2,7,11,14,34
1523146905657045,6,4,8,1,-4,-5,-4,0
1523146905679105,-39,-33,-32,4,1,-2,-1,19
1523146905679105,19,-3,9,-7,-4,-2,3,19
1523146905679607,8,17,-28,20,7,8,1,-27
1523146905679607,55,19,-15,-32,-8,-8,-3,27
1523146905694644,7,1,32,-16,-3,-4,-3,3
1523146905694644,11,9,10,8,-2,-1,-7,-81
1523146905701161,-71,12,27,-15,-6,-3,7,108
1523146905701161,53,18,-11,10,2,5,-10,-117
1523146905716201,-63,-26,-92,-26,-18,-17,-14,11
1523146905716201,-50,5,33,26,20,14,2,-66
1523146905717202,95,73,14,6,-7,-8,2,48
1523146905717202,16,22,12,-28,-15,-15,-32,-15
1523146905732245,88,-22,39,50,10,15,29,103
1523146905732245,-20,13,-94,-8,-5,-7,-7,14
1523146905738535,-13,-47,-37,-8,0,-5,-13,-95
1523146905738535,66,-28,20,6,-4,-4,5,84
1523146905754803,-25,52,19,9,11,6,2,-18
1523146905754803,6,-61,-22,-7,-6,-1,8,40
1523146905761008,-20,23,13,23,9,4,0,-26
1523146905761008,12,-8,-15,-6,1,8,21,32
1523146905776361,-30,4,19,-6,7,-2,-14,2
1523146905776361,-35,-15,1,-5,-8,-10,-15,-57
1523146905776862,-16,-27,-19,-11,0,1,-4,1
1523146905776862,-45,-19,17,15,6,-1,2,-33
1523146905791901,7,-9,4,-1,2,5,6,-16
1523146905791901,-10,22,29,2,3,-1,0,5
1523146905798214,20,-5,5,7,1,2,2,-3
1523146905798214,-32,-8,-12,-3,-7,2,2,-7
1523146905814463,11,24,5,-5,8,-3,2,-16
1523146905814463,1,-19,-5,-10,-18,-6,-2,32
1523146905820591,-8,-9,2,2,-7,-4,-9,-25
1523146905820591,-28,-9,-6,10,16,-1,2,12
1523146905837525,-16,-5,-15,-11,0,-1,-4,-34
1523146905837525,5,-3,10,3,0,6,6,4
1523146905838525,2,-11,7,-5,1,-3,0,5
1523146905838525,-8,15,11,8,4,-2,-2,-6
1523146905852062,-20,-14,-21,11,-2,-1,-9,-30
1523146905852062,-5,-10,-1,-8,-9,-4,-6,-6
1523146905858078,9,8,6,-3,-1,-3,1,8
1523146905858078,39,53,-5,1,14,10,6,2
1523146905874622,29,-1,19,-1,-3,-10,-4,-19
1523146905874622,20,3,1,-5,-11,8,6,23
1523146905880638,-3,3,1,2,-4,-12,-5,1
1523146905880638,-33,-6,-1,17,10,2,-3,-18
1523146905896471,-13,-14,-17,-14,-4,6,4,-11
1523146905896471,25,81,4,-13,5,-4,-6,-14
1523146905897183,20,-27,11,4,1,4,6,33
1523146905897183,-19,-20,-9,-3,-2,-1,-3,-8
1523146905912223,-6,6,4,0,9,0,0,-7
1523146905912223,-15,-15,4,3,-3,-6,-2,7
1523146905918237,-8,5,-13,-14,-8,1,0,-20
1523146905918237,-17,-11,-6,-2,-4,-4,1,5
1523146905934781,-1,2,5,-6,-3,-1,-1,0
1523146905934781,-9,-12,21,5,10,0,0,1
1523146905940796,-3,-5,-47,-16,-14,-4,-6,-11
1523146905940796,-18,-20,-5,-2,-4,-2,-4,-4
1523146905955538,13,11,7,0,0,0,0,1
1523146905955538,-4,-19,-3,1,-4,-3,1,8
1523146905963650,-8,3,10,-2,3,1,-4,-10
1523146905963650,-8,-2,6,-4,-7,-2,1,0
1523146905971884,0,-1,-15,-3,-3,-3,0,0
1523146905971884,-5,-10,1,5,0,2,2,5
1523146905978646,4,2,2,-3,3,-2,-3,-8
1523146905978646,-1,-2,-2,-10,-3,-2,-2,-1
1523146905994440,8,1,15,15,0,-3,-4,0
1523146905994440,-6,-8,-1,-5,-9,1,1,2
1523146906000456,-32,-15,-3,-4,3,-2,-4,-13
1523146906000456,-2,-10,-3,7,7,-1,1,-1
1523146906016007,-6,-1,-7,-22,-27,-6,-5,0
1523146906016007,1,-6,0,0,7,-1,-2,1
1523146906023293,9,9,7,-3,-10,0,0,-8
1523146906023293,6,-3,-8,6,3,0,-1,7
1523146906032043,-4,-5,-12,-7,-4,-2,-4,-4
1523146906032043,-5,-3,-2,-1,0,-5,0,6
1523146906038059,3,5,7,10,3,4,5,-3
1523146906038059,4,-6,1,-15,-7,1,2,4
1523146906053210,-11,2,-9,4,-5,-3,-2,1
1523146906053210,9,-3,-8,-1,4,-2,-2,-13
1523146906060901,-3,-4,7,8,-2,-1,-6,-5
1523146906060901,-2,0,-10,4,9,0,1,1
1523146906075954,10,0,-1,-7,13,4,5,7
1523146906075954,-17,-2,3,6,-33,-5,-5,-5
1523146906083186,15,8,-2,-4,-2,-3,1,14
1523146906083186,15,3,-3,-3,-1,0,-4,-15
1523146906092202,-8,6,12,5,9,-4,-5,-5
1523146906092202,-12,-12,-7,-14,-1,-1,-3,0
1523146906098514,7,3,3,5,2,5,3,-10
1523146906098514,-21,-4,7,7,-6,1,3,1
1523146906113314,-35,-38,-6,-9,-14,-4,2,14
1523146906113314,-21,13,4,4,8,-1,-2,-8
1523146906120941,3,-6,-11,-14,1,-1,-1,3
1523146906120941,-10,-1,27,1,-5,-2,-3,-5
1523146906135822,5,-2,-18,11,-4,6,1,-11
1523146906135822,7,-61,-8,-11,5,-1,-1,7
1523146906143097,-17,-1,13,-3,-7,-3,-4,-8
1523146906143097,-4,2,-16,-4,-2,0,-1,14
1523146906159228,0,11,5,-9,-1,0,-1,-1
1523146906159228,25,12,2,8,1,0,1,1
1523146906159640,16,10,-2,4,13,3,4,-12
1523146906159640,-30,-14,3,-4,-8,-2,0,9
1523146906173174,-53,19,-9,0,-7,-9,-11,-26
1523146906173174,-61,62,22,-5,3,-6,-8,-14
1523146906181026,-31,44,24,0,-3,-1,0,-12
1523146906181026,-14,-2,-5,3,1,0,0,-27
1523146906204258,-38,-34,21,-6,-1,1,-2,-9
1523146906204258,41,5,-23,-4,5,0,-6,-10
1523146906205262,-50,-40,8,3,-3,1,5,26
1523146906205262,-72,34,11,0,-6,-6,3,106
1523146906226650,28,-13,-16,-12,-5,-4,-11,-50
1523146906226650,83,-26,9,3,2,2,-2,1
1523146906226819,100,36,-2,4,-5,-6,-3,67
1523146906226819,63,-14,-35,-4,5,6,0,-64
1523146906240360,45,5,23,18,9,8,14,39
1523146906240360,-16,38,-11,-2,-8,-8,-4,-48
1523146906249271,-21,-26,-11,-15,-14,-14,-19,-8
1523146906249271,6,-25,-20,-9,-2,-2,5,40
1523146906263809,-13,-6,-3,4,-6,-6,-2,34
1523146906263809,-47,-15,20,7,3,4,0,-46
1523146906264312,-40,-47,-35,-15,-8,-8,-5,-36
1523146906264312,-30,-26,4,7,0,-2,-2,-21
1523146906286370,49,1,-14,-9,0,0,2,-13
1523146906286370,-28,-16,-4,-2,2,2,-1,1
1523146906286871,-17,-14,-4,5,-2,0,-2,2
1523146906286871,51,19,-7,-3,-1,1,-2,7
1523146906301414,-8,-5,6,8,1,0,5,12
1523146906301414,4,-25,-19,-1,3,2,0,-8
1523146906301915,38,31,4,-3,12,6,12,9
1523146906301915,-7,8,10,-10,-15,-3,-5,-28
1523146906323469,14,11,-5,21,11,1,-1,-2
1523146906323469,-2,0,7,7,-4,0,5,29
1523146906324471,-7,-2,-6,-18,-3,0,-2,-8
1523146906324471,-3,-5,7,-2,3,-2,0,10
1523146906346027,-9,9,-7,-15,6,-1,-8,-16
1523146906346027,13,6,-3,8,-3,-6,2,34
1523146906347030,-12,-8,-7,-4,3,12,9,-1
1523146906347030,7,0,4,7,-2,-1,-6,-35
1523146906361122,20,17,13,5,-1,0,3,9
1523146906361122,3,-2,-15,-3,14,1,0,13
1523146906362127,-9,-6,3,3,-10,-2,-5,-8
1523146906362127,5,3,-3,-6,3,-4,-5,-16
1523146906384148,-3,4,2,-3,-3,-2,1,3
1523146906384148,2,-7,-2,-5,-4,-1,-2,26
1523146906391161,1,2,-7,6,7,-6,-3,-13
1523146906391161,8,7,-1,7,-12,3,1,8
1523146906406205,-8,-1,10,3,0,3,3,3
1523146906406205,2,-4,1,-5,1,-1,1,-6
1523146906407206,9,6,2,4,1,0,2,17
1523146906407206,-13,-3,-7,-6,-9,-8,-6,-14
1523146906421244,9,4,-3,-3,3,-1,2,-4
1523146906421244,-1,5,2,-5,-10,5,0,15
1523146906422246,13,-2,2,0,4,2,0,-6
1523146906422246,-49,-9,-1,0,3,-5,-1,2
1523146906443804,-1,3,-3,-3,-2,-1,-3,-1
1523146906443804,-1,-3,-1,8,0,0,4,0
1523146906444811,-2,1,-2,-9,-12,-3,-4,-6
1523146906444811,18,1,-5,6,10,0,0,-6
1523146906466400,-2,-7,-5,-9,-4,-3,-3,-3
1523146906466400,-4,9,2,-1,0,-1,0,7
1523146906466868,2,-5,2,1,-2,0,-1,-7
1523146906466868,10,1,2,0,-1,-1,0,1
1523146906480904,-4,-3,-3,-1,-2,-3,-2,0
1523146906480904,0,-4,-2,-4,0,-1,1,2
1523146906488929,-1,1,-2,3,0,1,0,-4
1523146906488929,5,2,4,0,0,-1,-1,-1
1523146906511987,-1,4,-3,-3,-4,0,-2,2
1523146906511987,-2,-5,-3,-3,-2,-1,-3,-3
1523146906512490,2,3,-2,1,1,-4,-2,-3
1523146906512490,3,-1,0,-1,-1,-1,0,0
1523146906527032,2,2,-1,-7,-4,-1,-2,-1
1523146906527032,-2,-4,1,-1,1,-3,0,0
1523146906527529,-2,-3,-4,4,3,2,2,0
1523146906527529,6,5,8,-11,-5,0,-2,-1
1523146906540804,-15,-5,2,-4,-4,-2,-4,-1
1523146906540804,0,-1,-4,7,0,-2,-3,-1
1523146906548838,-2,-2,-18,3,-4,-2,0,-1
1523146906548838,3,1,8,-3,1,0,0,-2
1523146906563813,-8,-3,1,-1,-1,0,-1,-3
1523146906563813,-3,-1,9,8,1,0,3,5
1523146906564305,-2,-3,3,-5,-2,-2,-4,-3
1523146906564305,2,-3,-6,-2,-1,1,1,-1
1523146906586866,3,-1,-8,1,4,1,2,0
1523146906586866,-1,0,8,-1,7,0,-3,-3
1523146906587864,4,-1,8,-1,-28,-2,-1,-2
1523146906587864,0,0,-5,4,5,-1,0,-1
1523146906600482,4,0,2,-2,-3,-4,-2,-3
1523146906600482,-2,-2,-2,-3,2,0,-2,-2
1523146906609096,-1,0,-3,5,15,3,0,0
1523146906609096,2,-2,5,0,-2,-1,-3,0
1523146906624042,3,1,3,9,-1,2,1,1
1523146906624042,0,-1,-8,-12,-2,-2,-1,-1
1523146906624544,0,-3,-3,-1,-1,-1,-3,-1
1523146906624544,3,-2,-6,11,3,7,3,1
1523146906647115,1,4,7,-4,-6,-10,-4,-2
1523146906647115,0,-1,-6,-16,-7,-3,0,0
1523146906647608,5,-1,6,11,11,0,-3,0
1523146906647608,-13,-8,4,-8,-2,-2,-1,-2
1523146906660695,-34,-10,-19,8,7,4,-1,-1
1523146906660695,6,9,2,-13,-5,-2,-1,-1
1523146906668663,1,-1,1,10,-25,-8,-3,-2
1523146906668663,11,-11,-13,-7,0,-4,-1,2
1523146906683832,5,10,8,-11,-5,1,2,1
1523146906683832,-8,11,-2,6,9,0,0,-4
1523146906684326,15,-8,-2,-3,8,-1,0,-6
1523146906684326,-8,-17,27,-8,-7,-5,-4,5
1523146906706942,-21,53,13,-8,-10,-9,-4,-5
1523146906706942,13,85,31,1,-4,-1,-6,-22
1523146906707890,75,-17,-8,-5,-2,-1,9,94
1523146906707890,8,49,6,-11,-10,-3,-6,-25
1523146906720928,-16,-98,-54,17,18,11,2,-30
1523146906720928,-85,-70,-21,-10,-16,-14,-14,-4
1523146906728958,62,112,31,6,13,9,4,-60
1523146906728958,-47,14,-5,-6,-6,-7,-7,5
1523146906743599,16,-30,12,-7,-7,-2,-5,-22
1523146906743599,119,29,2,13,3,5,8,5
1523146906744595,19,-56,3,-18,-7,-10,2,79
1523146906744595,-29,-52,-38,8,10,1,-5,-15
1523146906766153,-21,-19,-26,8,6,8,6,-30
1523146906766153,15,-56,6,0,-1,0,1,56
1523146906767157,-34,-18,17,-2,6,1,-1,-41
1523146906767157,27,50,36,-4,-1,-1,-1,13
1523146906780816,10,1,15,-2,-6,-6,1,28
1523146906780816,-26,-15,0,1,1,2,1,-10
1523146906788881,-63,-80,-27,-2,1,1,0,-11
1523146906788881,-10,-14,-7,2,-1,-4,-7,-30
1523146906803909,14,9,0,-5,-2,-2,-7,7
1523146906803909,-8,-11,-10,-2,-2,0,3,-4
1523146906804373,-20,25,-3,-4,0,-2,-5,-33
1523146906804373,21,14,-14,4,2,4,7,15
1523146906826432,18,27,16,-2,-3,-4,-4,-3
1523146906826432,-4,0,-23,1,2,0,2,0
1523146906826934,-9,13,9,1,3,-1,-4,-6
1523146906826934,6,-17,0,5,-19,-1,-4,-5
1523146906849494,-1,0,-6,-6,9,0,3,25
1523146906849494,-11,-7,-1,8,2,-4,2,-13
1523146906850502,-12,5,-8,0,-5,11,-2,-8
1523146906850502,8,-10,-2,1,5,-3,1,7
1523146906863767,7,18,13,2,-2,-3,2,1
1523146906863767,-3,8,-10,-9,-5,-2,-3,2
1523146906864534,-7,11,1,1,0,-7,-6,-13
1523146906864534,6,-2,-2,3,8,2,-1,1
1523146906886092,5,6,-3,-14,-21,-6,-5,5
1523146906886092,-2,-1,6,7,8,-6,-4,-9
1523146906887095,-11,-10,-12,-5,0,2,3,3
1523146906887095,1,-6,-6,3,6,1,0,-3
1523146906909394,3,5,-1,8,-1,-1,0,3
1523146906909394,-1,0,1,-10,-3,7,5,2
1523146906910155,-5,1,-2,2,3,-4,-3,-6
1523146906910155,7,0,-2,-1,2,-4,1,3
1523146906923691,-4,2,3,-8,-13,-2,-2,-2
1523146906923691,-1,2,1,3,-1,3,2,1
1523146906924711,-3,2,-4,-2,1,-1,-2,-2
1523146906924711,-2,-1,5,-6,-6,-4,2,-1
1523146906946310,4,1,-4,2,9,3,1,4
1523146906946310,-4,-3,0,-1,-1,0,-6,-9
1523146906947254,-4,1,-1,3,0,-1,3,0
1523146906947254,-1,-6,-3,1,-3,-1,-1,0
1523146906969328,-2,6,-3,-5,-4,-3,-3,-3
1523146906969328,-1,2,-1,-2,2,-1,-3,0
1523146906969813,2,5,4,-1,-4,-4,-5,-5
1523146906969813,0,1,-4,-9,-21,-3,-1,0
1523146906983853,2,-10,-17,8,10,5,3,4
1523146906983853,-2,-2,-1,1,-5,-2,-2,-4
1523146906984353,-2,-1,-9,-3,0,-2,0,0
1523146906984353,0,-2,-3,4,10,5,4,1
1523146907006919,0,5,14,1,-4,-6,-4,0
1523146907006919,-2,-2,-2,10,1,-1,-1,-3
1523146907007918,-2,-4,-5,-6,-4,1,-2,0
1523146907007918,1,-1,-5,2,10,0,1,0
1523146907029475,1,-1,3,-2,4,2,0,-1
1523146907029475,-1,2,-2,-3,-2,0,0,1
1523146907030476,-3,3,6,-2,-6,-6,-4,-6
1523146907030476,1,-3,-12,-5,3,2,0,0
1523146907044011,-1,-4,3,4,2,1,0,4
1523146907044011,0,1,1,-3,-14,-5,-3,-2
1523146907044513,3,-4,-11,-4,-4,0,1,-1
1523146907044513,-4,1,5,12,11,-2,0,-1
1523146907067576,-1,-2,-7,-19,-2,1,-2,-6
1523146907067576,0,-4,-2,4,-15,-3,-1,0
1523146907068075,0,0,4,-7,1,-2,1,-1
1523146907068075,-1,-4,4,2,-1,2,1,-1
1523146907089635,3,9,6,-1,3,-3,-1,1
1523146907089635,-4,-1,1,-2,9,0,-2,-3
1523146907090134,-8,-6,-6,-3,-9,0,-4,-4
1523146907090134,6,0,4,-3,-5,-5,-3,1
1523146907103669,-16,1,0,2,3,-4,-4,-6
1523146907103669,0,-1,-1,-11,-9,-2,0,2
1523146907104676,1,3,8,-4,4,1,0,-1
1523146907104676,1,2,-2,-11,-2,-1,-1,-1
1523146907126733,2,-1,-5,6,-9,-1,0,-1
1523146907126733,1,0,0,3,4,-6,-3,-2
1523146907127736,-5,2,1,5,-3,0,-1,-3
1523146907127736,1,-8,-2,-4,-5,0,0,-2
1523146907149292,-10,-3,-5,-9,-3,1,2,1
1523146907149292,-2,-4,-10,-4,7,3,2,-1
1523146907150295,2,3,8,3,-4,-4,-3,0
1523146907150295,0,-5,-7,1,-1,-1,-2,0
1523146907163830,-4,15,-3,-4,-2,-1,-4,-5
1523146907163830,3,-3,-1,-6,7,1,1,-1
1523146907164885,-4,-3,-14,-4,1,2,1,0
1523146907164885,-6,3,1,11,-2,-7,-6,-2
1523146907187133,7,-5,0,-12,-8,1,0,0
1523146907187133,5,32,4,-3,-2,2,-1,1
1523146907188122,3,-52,-22,14,10,7,5,-1
1523146907188122,38,0,0,-6,0,-1,1,11
1523146907209451,-16,7,-27,3,-2,-7,-4,-8
1523146907209451,-5,-61,-10,2,-1,-1,-2,-2
1523146907209953,-16,23,13,4,2,-1,-2,6
1523146907209953,10,93,10,0,4,9,5,-13
1523146907224118,22,-6,-11,1,-3,-4,0,14
1523146907224118,10,34,3,1,0,1,3,-17
1523146907224492,-42,-23,-19,-13,-5,-11,-12,-43
1523146907224492,-32,-9,6,-6,-10,-8,-1,36
1523146907246549,-21,-73,-6,-3,-4,-5,-8,-13
1523146907246549,8,62,-3,0,-3,-4,-7,-24
1523146907247051,35,-24,-15,5,4,5,-1,-91
1523146907247051,-50,-55,-24,-12,-7,-9,-3,80
1523146907269708,19,3,10,-2,-2,-5,-6,-24
1523146907269708,-35,-75,-15,-3,0,2,-1,-37
1523146907270112,21,80,34,-14,-7,-6,-4,-2
1523146907270112,22,-20,9,9,3,4,-1,11
1523146907283148,-16,-53,5,4,4,2,1,-1
1523146907283148,8,1,-6,-3,-1,-3,-3,27
1523146907291265,7,30,13,-5,-5,-2,4,26
1523146907291265,-1,40,1,11,15,5,4,-25
1523146907306235,8,13,11,-6,-5,0,2,16
1523146907306235,-3,18,13,3,4,1,3,5
1523146907307213,1,-37,-5,2,2,2,5,35
1523146907307213,-32,-23,-18,-8,-7,-6,-10,-47
1523146907329494,13,36,5,5,6,4,1,-14
1523146907329494,-7,4,0,-5,-6,-4,1,7
1523146907330400,6,22,-5,9,4,4,1,23
1523146907330400,9,9,6,1,-4,0,1,-19
1523146907344463,-2,27,5,6,6,0,0,3
1523146907344463,-1,-15,4,2,9,-3,0,12
1523146907344940,-3,-13,-11,-7,-24,1,2,15
1523146907344940,3,-6,35,11,0,-6,1,-20
1523146907366020,-6,-5,-26,-20,4,4,-1,6
1523146907366020,9,22,12,20,14,2,0,5
1523146907366998,-5,0,-2,2,-13,-16,-6,6
1523146907366998,-5,-7,-15,-21,-2,26,4,-12
1523146907389655,4,18,15,15,11,-2,-1,3
1523146907389655,10,10,13,-19,-30,-4,-3,8
1523146907390058,-23,3,-9,0,10,-1,-2,4
1523146907390058,4,-12,-4,0,-4,-8,-4,-21
1523146907403690,0,3,8,5,3,0,1,2
1523146907403690,4,-1,-14,8,4,4,-1,1
1523146907404599,2,-1,12,5,-2,-1,-1,5
1523146907404599,4,12,-10,-7,-3,-4,-2,0
1523146907426252,-4,6,1,3,1,4,3,0
1523146907426252,-3,-2,-10,-4,2,-4,0,-1
1523146907427158,-3,5,1,-1,-5,-1,-1,1
1523146907427158,2,-5,-6,7,7,-2,-3,-6
1523146907449217,-1,7,-5,-6,-10,-2,-1,0
1523146907449217,-4,-7,3,1,-2,0,2,8
1523146907450219,-1,-6,-3,-8,12,1,0,-1
1523146907450219,7,0,5,-1,-8,-6,-2,-2
1523146907463330,0,17,-5,-2,-9,-1,2,9
1523146907463330,-17,-80,-14,-5,3,4,0,-15
1523146907471375,10,51,7,1,-2,2,-1,1
1523146907471375,2,-14,-4,-5,-12,-4,-2,1
1523146907486914,1,-8,-16,5,0,0,3,3
1523146907486914,0,20,2,-3,-2,-3,-1,2
1523146907487820,0,1,2,0,6,0,-2,1
1523146907487820,0,-12,-8,-4,-4,-1,-1,-1
1523146907509475,-5,1,5,3,-1,-2,-1,-3
1523146907509475,-2,9,-3,0,0,1,0,1
1523146907510380,-6,-20,-6,2,2,-1,-1,-1
1523146907510380,1,13,1,-4,-1,-3,0,1
1523146907522913,-2,-9,4,10,6,0,-2,-3
1523146907522913,0,10,3,-8,-7,0,-1,-1
1523146907531477,2,-5,4,2,0,0,0,2
1523146907531477,0,-2,-1,-1,-1,-2,2,-1
1523146907547080,1,7,4,2,-3,-3,-2,-1
1523146907547080,-2,-2,-2,-7,0,-2,-3,1
1523146907547480,-2,-10,-9,-2,-5,-1,0,1
1523146907547480,0,1,6,6,6,1,-1,0
1523146907569635,-3,2,-3,-14,-14,-4,-2,-1
1523146907569635,3,8,2,2,0,-4,-1,0
1523146907570037,-2,-10,-2,-7,5,3,1,-2
1523146907570037,1,1,-8,8,3,3,-2,-1
1523146907592199,-1,1,3,7,1,0,1,0
1523146907592199,-5,2,-2,-8,-12,-2,0,-2
1523146907592704,-1,-4,-5,4,2,-1,0,-3
1523146907592704,-2,-1,3,-4,-3,-4,-2,-1
1523146907606767,0,-3,2,-5,-5,-1,-1,-2
1523146907606767,1,3,-4,8,12,2,-1,-1
1523146907607744,3,-5,-10,4,-6,-5,-3,-2
1523146907607744,-2,0,0,2,6,-1,-1,-1
1523146907629802,0,-3,2,-5,0,4,0,0
1523146907629802,-1,2,1,1,-1,-2,-2,-1
1523146907630304,-4,-4,1,-4,4,-2,-1,-1
1523146907630304,-4,-10,-6,-6,-3,1,-1,-1
1523146907643339,5,19,-4,0,3,-3,-2,-3
1523146907643339,-1,-13,-2,12,1,1,1,3
1523146907651361,-1,-3,12,-16,0,1,-1,-3
1523146907651361,4,-7,4,4,-8,-3,-1,2
1523146907666901,-7,29,1,-4,0,-1,-2,-1
1523146907666901,4,-3,8,-7,-1,0,-1,0
1523146907667904,0,-3,-13,4,0,0,0,-2
1523146907667904,11,80,8,2,1,0,1,2
1523146907689462,1,36,14,-9,-2,-3,-3,-14
1523146907689462,-43,-18,0,-9,-8,-7,-1,34
1523146907690463,-15,-9,2,4,0,2,-4,-31
1523146907690463,22,21,7,-7,-2,-3,-3,8
1523146907703096,-18,-44,-7,7,3,1,-1,-68
1523146907703096,18,8,-25,10,1,3,4,31
1523146907711520,14,-3,3,-3,0,0,6,-1
1523146907711520,-58,-54,-22,4,0,-3,-1,59
1523146907726157,17,-23,-5,-4,-2,2,-12,-89
1523146907726157,20,-20,-15,-1,-2,-5,-4,10
1523146907727062,-62,80,8,0,0,1,-2,-64
1523146907727062,61,19,14,-7,-2,-2,0,29
1523146907749623,-9,14,-6,4,0,-1,5,16
1523146907749623,11,-15,3,1,-1,0,-21,-104
1523146907750124,65,3,5,-12,-10,-9,3,124
1523146907750124,-48,34,14,0,-3,0,-9,-99
1523146907773184,-2,-35,-57,-1,-8,-8,-5,24
1523146907773184,0,66,30,-2,0,1,5,-10
1523146907774187,-2,-35,-57,-1,-8,-8,-5,24
1523146907774187,0,66,30,-2,0,1,5,-10
1523146907774688,-32,-102,1,0,0,-2,3,58
1523146907774688,12,-23,-16,-3,-1,-1,1,-18
1523146907780253,-1,1,3,7,1,0,1,0
1523146907780253,-5,2,-2,-8,-12,-2,0,-2
1523146907780704,-1,-4,-5,4,2,-1,0,-3
1523146907780704,-2,-1,3,-4,-3,-4,-2,-1
1523146907786317,1,-61,-24,18,11,8,9,47
1523146907786317,-8,26,12,0,3,-2,0,-7
1523146907787222,9,26,-11,6,4,1,-4,-26
1523146907787222,8,-16,-1,6,5,4,7,21
1523146907809880,20,4,18,-12,-9,-3,2,23
1523146907809880,-17,-8,-2,3,-2,-4,-3,-22
1523146907810784,-27,-7,8,2,-3,-6,-6,-6
1523146907810784,16,-22,-8,-7,-7,-3,-5,-20
1523146907831839,0,19,14,-6,2,-1,-2,-3
1523146907831839,7,0,4,2,-7,-3,2,23
1523146907833345,12,13,-12,8,5,0,-1,-14
1523146907833345,-19,-9,-15,-18,-10,0,1,-1
1523146907846456,0,0,15,19,-6,-9,-7,12
1523146907846456,0,-4,-10,-12,1,5,7,20
1523146907846882,2,-6,-2,23,5,-5,-3,-22
1523146907846882,-3,-4,7,-3,28,8,2,-6
1523146907869539,-15,10,-2,-24,-12,1,-2,10
1523146907869539,-4,-17,-12,-2,8,8,-3,-14
1523146907870442,12,11,11,-4,-8,-5,-6,-11
1523146907870442,4,-1,-3,0,-8,-7,0,7
1523146907891094,-1,8,8,-3,-5,-9,-1,10
1523146907891094,-10,-1,4,0,-7,-3,-3,0
1523146907899020,5,-4,-9,-8,4,-1,-1,-10
1523146907899020,-4,-5,1,6,0,0,1,1
1523146907906538,-4,-2,6,-4,-2,1,0,-1
1523146907906538,1,-4,-8,0,-1,-3,0,0
1523146907907040,3,6,2,0,3,2,-2,-4
1523146907907040,-4,-2,0,-7,0,-3,-4,-8
1523146907929658,-1,-7,-34,23,8,4,3,0
1523146907929658,2,3,4,0,3,0,-1,1
1523146907930103,5,9,-4,-8,-7,-2,0,-3
1523146907930103,4,2,0,6,-3,-2,-2,1
1523146907952160,-20,-2,8,-14,-7,1,-4,-1
1523146907952160,-32,-46,-8,-5,0,-4,-3,-9
1523146907952662,2,1,-2,0,3,1,1,0
1523146907952662,0,-16,0,-3,-11,-8,-5,-7
1523146907966199,2,12,8,-4,8,2,-2,3
1523146907966199,9,14,7,-2,-9,-3,0,4
1523146907967200,-5,-25,-8,-3,-5,2,-2,-9
1523146907967200,-1,24,0,2,-2,0,0,3
1523146907989261,4,-3,5,-5,-3,-3,0,0
1523146907989261,-1,9,5,6,5,-2,-1,0
1523146907991304,1,-3,-1,-5,-2,1,-1,-6
1523146907991304,1,0,-2,2,-3,-3,-1,2
1523146908011924,2,2,5,2,3,3,4,0
1523146908011924,5,2,-12,-6,-5,-2,-1,-1
1523146908013324,-3,1,-4,-6,-3,-1,-1,-1
1523146908013324,-2,-5,1,6,3,2,-1,-1
1523146908025452,2,5,7,2,-2,-4,-2,-2
1523146908025452,5,7,2,-3,-3,-2,0,4
1523146908034379,0,5,-3,-2,-1,-1,1,1
1523146908034379,-9,-10,-6,-11,0,-1,-2,-4
1523146908049419,1,-6,10,-2,-1,-3,-2,-4
1523146908049419,5,6,-11,-1,-1,0,0,2
1523146908050923,-1,0,3,2,-2,-2,-1,-3
1523146908050923,-2,-9,0,-5,-4,-2,-1,-1
1523146908071981,0,4,0,-5,-3,-1,0,3
1523146908071981,3,5,8,9,4,0,-2,-1
1523146908073484,-4,-1,5,0,-4,-1,0,-4
1523146908073484,1,1,-1,-7,-5,-1,1,1
1523146908085611,3,1,-2,0,-3,-3,-3,-3
1523146908085611,-1,-1,-2,-3,-4,-2,-2,0
1523146908094539,0,-2,-2,-1,0,2,1,0
1523146908094539,-1,-1,-4,4,7,1,-1,0
1523146908109080,0,3,6,6,3,-1,-3,-2
1523146908109080,1,3,2,-16,-20,-7,-2,-2
1523146908115595,-1,-5,-9,4,2,-2,-2,0
1523146908115595,-11,-5,-4,-3,-2,-1,-2,-5
1523146908132139,0,-1,4,2,10,0,2,1
1523146908132139,2,6,12,6,4,1,0,2
1523146908133644,-1,-4,-2,-6,-7,-1,0,-3
1523146908133644,8,0,-9,6,2,2,-1,1
1523146908145711,-41,-19,-12,-5,-6,-2,-4,-4
1523146908145711,4,-6,1,1,1,-2,0,1
1523146908162219,16,31,4,-3,-6,0,-1,2
1523146908162219,-15,32,20,-3,-1,2,1,-6
1523146908169336,-17,-18,-9,-5,-11,-12,-6,17
1523146908169336,-61,-14,-1,0,4,4,3,-55
1523146908171243,15,-4,18,-1,4,0,-2,-3
1523146908171243,-30,-87,-51,-1,-13,-14,-12,2
1523146908191894,-37,62,8,-2,-5,-7,-8,-47
1523146908191894,-22,-83,-22,0,9,12,22,101
1523146908193803,-24,25,8,-10,-12,-11,-9,-31
1523146908193803,-14,-18,5,19,14,17,16,-14
1523146908205835,-52,-75,-21,-9,-13,-17,-15,63
1523146908205835,107,-10,19,3,7,3,-1,-63
1523146908214859,-26,38,-18,5,2,-5,-12,-64
1523146908214859,-15,-69,-51,-4,-4,6,8,59
1523146908229497,72,51,-45,16,13,15,18,2
1523146908229497,-42,36,32,5,1,-1,-3,-24
1523146908230903,56,-69,6,5,4,8,10,60
1523146908230903,28,94,54,7,6,-2,-13,-72
1523146908251958,49,-24,-3,11,13,17,-4,-64
1523146908251958,-80,-18,-23,-11,-19,-18,-17,-54
1523146908253463,-28,-6,1,8,7,5,3,2
1523146908253463,66,48,32,-8,-2,-5,5,23
1523146908265496,-21,1,-14,21,-1,-2,-3,-39
1523146908265496,14,4,-7,-1,1,1,-7,-35
1523146908274519,-20,1,2,1,-2,-1,5,18
1523146908274519,3,10,6,-2,-4,-27,-7,3
1523146908289561,7,-3,27,1,-9,13,9,9
1523146908289561,8,8,-8,-1,-8,3,7,37
1523146908291063,-2,-6,-22,-29,-19,-12,-6,24
1523146908291063,-8,-23,-8,15,2,-4,-7,-22
1523146908312165,11,-11,18,-19,4,-31,-13,2
1523146908312165,5,10,-10,3,-23,9,9,31
1523146908313623,3,-7,7,-1,9,-4,-6,-24
1523146908313623,-2,3,6,-6,15,40,5,-6
1523146908325801,-2,0,11,-12,39,15,6,13
1523146908325801,18,13,-6,-10,-15,2,0,15
1523146908334681,-2,-5,-10,2,-17,-24,-5,-8
1523146908334681,-13,-13,-6,-7,-2,-1,-3,0
1523146908349218,8,2,2,-8,-19,-11,-5,12
1523146908349218,14,3,-15,-3,7,-7,-5,2
1523146908351226,0,-13,8,5,8,7,6,-3
1523146908351226,-7,-2,-5,-1,-6,-13,-1,9
1523146908372277,9,2,5,4,-3,13,6,-5
1523146908372277,7,6,11,-8,12,-13,-5,-5
1523146908373782,-6,-7,-2,-5,-14,1,0,2
1523146908373782,0,1,2,3,7,9,2,0
1523146908386818,0,0,5,-4,-13,-8,-1,0
1523146908386818,-34,-33,-10,-1,-12,-1,-8,-4
1523146908394839,7,1,0,3,13,2,-2,3
1523146908394839,-2,-8,-7,-5,-11,-6,-1,-2
1523146908409814,-1,-2,-1,-7,-7,-2,1,0
1523146908409814,8,9,12,9,8,-3,-5,8
1523146908411169,-8,-5,-13,-3,6,12,7,-5
1523146908411169,-3,-2,3,-13,-15,-11,-4,-4
1523146908431725,1,0,0,1,0,1,0,2
1523146908431725,8,8,7,-4,5,1,-3,4
1523146908433731,2,1,1,1,-5,-5,-2,-4
1523146908433731,2,1,3,3,4,7,5,1
1523146908454285,1,3,4,-2,-1,-2,-1,6
1523146908454285,6,3,-9,6,11,3,-1,-3
1523146908455789,1,-1,-1,-7,-18,1,-1,-1
1523146908455789,-3,-2,-13,2,3,-6,-3,0
1523146908469824,3,-3,0,1,3,2,1,-3
1523146908469824,6,5,4,2,2,4,2,1
1523146908471329,-4,-6,-1,1,18,0,-1,2
1523146908471329,-3,-7,-6,7,-1,5,0,1
1523146908492124,2,0,1,-6,-6,-2,3,3
1523146908492124,2,4,-12,3,5,-2,-1,-3
1523146908493953,0,1,10,7,2,1,-1,0
1523146908493953,0,-2,5,-17,-11,-5,-3,-1
1523146908505890,0,-7,-10,2,0,-3,-3,0
1523146908505890,2,2,10,-1,0,2,1,0
1523146908514766,0,-1,-3,2,-5,0,0,-1
1523146908514766,-1,1,1,-6,-2,-6,-2,-3
1523146908531026,-1,0,-2,-3,-13,-4,0,0
1523146908531026,1,0,-4,-3,3,-1,-2,1
1523146908532284,0,1,12,-7,-15,-5,-5,-2
1523146908532284,-2,-4,-20,-9,9,2,1,-2
1523146908551836,-2,1,2,3,0,-2,-1,1
1523146908551836,2,-2,-7,-8,-10,-2,-1,1
1523146908553338,0,-2,-4,-1,1,3,2,-1
1523146908553338,-4,3,26,-13,-11,-7,-4,-1
1523146908565372,0,-3,-3,19,14,7,1,-2
1523146908565372,-2,-2,2,-7,-12,-2,-2,0
1523146908574394,-2,1,-18,-17,-1,-3,-3,1
1523146908574394,0,-9,-20,2,-8,-2,0,0
1523146908589680,-2,1,5,-13,-42,-27,-8,-5
1523146908589680,2,3,13,23,66,39,7,1
1523146908590938,-3,-3,-2,-13,-25,-5,-3,-2
1523146908590938,2,2,-2,4,3,3,-1,-1
1523146908612236,4,-5,-2,-9,-3,0,-1,-3
1523146908612236,2,-4,-13,10,-14,-15,-5,1
1523146908613499,10,5,5,0,5,1,0,1
1523146908613499,-12,-4,3,8,6,8,5,1
1523146908625530,-19,37,-19,-2,-5,-5,-8,-8
1523146908625530,-8,-1,8,-1,-8,-10,-2,0
1523146908634556,17,-2,-4,8,12,6,2,-1
1523146908634556,3,5,1,2,-9,-6,0,2
1523146908649598,1,22,8,-11,5,5,2,1
1523146908649598,2,29,-6,2,2,-1,3,1
1523146908651099,-8,25,-7,-4,-6,-3,-6,-8
1523146908651099,39,-28,-21,22,12,5,8,5
1523146908672153,33,-18,-2,-4,7,8,3,6
1523146908672153,-12,45,26,-13,-16,-12,-6,-6
1523146908673658,40,-37,-34,-5,-5,-7,-6,-4
1523146908673658,-13,3,6,13,1,-2,-7,-18
1523146908701733,-42,-79,-18,-16,-3,-2,-5,-38
1523146908701733,76,94,3,-8,-13,-8,-5,7
1523146908703737,40,-57,-11,13,16,16,15,-2
1523146908703737,64,110,30,5,7,2,1,-7
1523146908709885,82,98,19,3,5,8,8,-12
1523146908709885,-7,1,-34,11,10,8,13,43
1523146908711259,-13,-7,61,-18,-10,-5,-1,-15
1523146908711259,4,5,-3,-2,-5,-3,-13,-22
1523146908732315,-60,-20,17,14,8,3,-2,0
1523146908732315,58,-115,-15,-3,-1,-1,8,22
1523146908733843,58,127,19,11,9,9,3,-40
1523146908733843,-20,-81,-27,-13,-16,-15,-11,3
1523146908754376,-52,-94,-23,-12,-2,-7,-12,-10
1523146908754376,-31,-45,-34,-1,-3,-1,2,41
1523146908756380,-49,14,-3,0,-2,-4,-11,-28
1523146908756380,13,-17,-1,7,3,1,2,0
1523146908768911,29,38,4,-7,1,5,7,14
1523146908768911,-24,-7,8,-7,-9,-5,-7,-27
1523146908775672,-39,-54,-9,12,4,0,3,37
1523146908775672,-58,13,11,-8,-2,0,-2,-26
1523146908791972,25,4,0,0,-2,-4,0,20
1523146908791972,-20,-4,6,-1,-1,-2,-4,-27
1523146908793478,-26,-7,-16,-6,-2,-3,0,17
1523146908793478,-4,-1,29,-1,2,3,6,30
1523146908814573,-8,-18,-16,4,7,0,1,-17
1523146908814573,8,3,14,11,-12,-15,-8,-10
1523146908816041,-1,-4,-4,-5,-4,-12,-6,4
1523146908816041,-2,-1,-8,1,6,-6,-4,1
1523146908828814,5,-2,0,-9,1,13,5,15
1523146908828814,-20,7,9,19,-3,3,2,-21
1523146908835589,-3,-8,-8,-10,3,-7,-7,11
1523146908835589,-18,-7,-6,-5,-28,-10,-5,-4
1523146908852133,-1,12,17,8,2,6,3,10
1523146908852133,-24,-7,-11,-14,-1,-9,-6,-8
1523146908853637,-8,-15,-1,2,-9,-2,-4,-16
1523146908853637,8,1,2,2,6,-2,-4,2
1523146908874192,7,7,-2,-5,-2,-7,-5,8
1523146908874192,6,1,-1,-13,-6,5,3,-8
1523146908876196,-8,-13,-3,5,11,6,4,8
1523146908876196,-6,-1,1,4,7,5,3,3
1523146908888228,-36,-4,2,-3,-10,-7,-5,-2
1523146908888228,-4,-3,2,-7,4,1,-3,-7
1523146908897254,-5,2,-5,3,1,7,7,5
1523146908897254,-3,1,1,-1,0,-1,-2,2
1523146908911792,11,20,-2,1,-1,0,2,-3
1523146908911792,22,-47,0,-5,-6,-8,-10,-6
1523146908913799,-5,59,9,-4,-1,0,-2,3
1523146908913799,8,-26,-6,-8,-6,3,3,2
1523146908934354,4,1,0,8,3,-6,-2,2
1523146908934354,-2,14,-1,-1,3,2,-4,-5
1523146908935860,3,2,5,0,-7,-1,-1,5
1523146908935860,-4,1,-5,-4,3,-2,1,0
1523146908947888,-2,-3,-2,3,-1,-1,-2,-4
1523146908947888,-3,7,-2,-11,-5,0,0,-5
1523146908956913,-1,-25,-2,3,2,0,-1,-3
1523146908956913,-2,11,0,-3,-2,0,0,1
1523146908971952,-3,-15,-9,-9,-4,-1,-3,-2
1523146908971952,-28,-3,3,-1,-3,-3,-4,-6
1523146908973456,-14,-15,-5,2,0,-1,0,0
1523146908973456,4,9,0,-5,1,1,0,0
1523146908994513,7,-3,-20,12,5,2,2,0
1523146908994513,-4,1,-1,-4,-1,1,4,-1
1523146908996019,1,3,0,1,-2,-3,-4,-1
1523146908996019,-7,-1,-3,-9,-3,-1,-1,0
1523146909009050,-6,-7,2,-2,-2,-2,-1,-2
1523146909009050,15,71,15,-6,-2,-1,0,-2
1523146909015568,2,-36,-16,7,-1,-2,-3,1
1523146909015568,-3,34,11,-10,-7,0,0,0
1523146909032113,-25,-4,-1,1,4,-3,-4,-5
1523146909032113,-1,-5,6,1,-3,-4,-7,-3
1523146909033618,3,-3,7,-4,0,7,4,-1
1523146909033618,-3,-9,-7,-3,-1,1,6,1
1523146909054672,8,-2,4,-4,-3,-3,-2,0
1523146909054672,-7,-5,-5,-7,0,-3,-1,-2
1523146909056176,-2,-8,-8,1,0,-5,-7,-3
1523146909056176,-2,-16,-10,-1,-4,-1,-2,0
1523146909068710,4,3,1,-6,-4,-2,-1,1
1523146909068710,-1,-12,-7,15,10,2,1,1
1523146909075727,3,2,0,-12,1,1,4,2
1523146909075727,3,4,10,5,-3,-2,-3,-1
1523146909091772,3,-1,-1,-10,-4,-3,-3,-1
1523146909091772,-4,-8,3,2,-6,-1,-1,-2
1523146909093274,-1,1,-2,4,2,0,-1,-1
1523146909093274,-1,-3,-5,6,3,0,0,0
1523146909114332,0,5,8,-3,-3,-1,0,0
1523146909114332,-1,-10,-8,1,1,2,1,3
1523146909115838,-1,1,3,0,-5,-1,0,-1
1523146909115838,-14,-7,-3,-5,5,-2,-3,-3
1523146909128870,2,-6,-7,8,0,0,0,-1
1523146909128870,0,-2,5,-3,-1,2,2,-2
1523146909135386,-3,-8,-19,10,3,1,1,-2
1523146909135386,6,1,-1,-5,-6,0,0,1
1523146909151930,-60,27,0,-4,-5,-3,-7,-10
1523146909151930,12,-24,-6,1,2,-1,-1,0
1523146909153435,38,55,11,-3,-4,0,-1,7
1523146909153435,-7,6,5,-7,-4,-4,-5,-6
1523146909174492,-9,0,5,3,5,3,5,-1
1523146909174492,-4,4,-4,-1,1,2,0,-1
1523146909176000,22,-27,-1,3,1,0,4,9
1523146909176000,30,89,-4,1,-1,-4,-7,10
1523146909188035,37,-29,-2,-6,-4,-3,-2,5
1523146909188035,-44,-29,15,-4,-1,-1,-1,40
1523146909197050,19,27,17,-10,-4,-3,-2,-18
1523146909197050,22,-22,-5,6,1,-1,-10,-71
1523146909212103,60,55,-8,-4,-4,-2,12,103
1523146909212103,2,-73,4,-9,-7,-5,-12,-39
1523146909213595,-48,11,-5,-8,-8,-13,-2,86
1523146909213595,-56,-88,-13,-5,0,4,0,-22
1523146909234149,10,60,-20,-15,-16,-14,-18,-20
1523146909234149,10,21,12,6,0,-5,-3,-16
1523146909236156,-33,-69,18,-17,-6,-3,-5,-54
1523146909236156,-66,-83,-13,-3,-5,-3,9,35
1523146909257213,-19,-22,-20,28,12,6,0,-30
1523146909257213,-46,-1,-9,-4,-2,-4,-1,-3
1523146909258716,-2,-5,-20,5,0,-1,-4,-11
1523146909258716,28,27,-8,1,-1,-4,-1,6
1523146909271751,8,-50,18,-3,3,6,7,-18
1523146909271751,-27,13,-7,-5,-6,-4,-4,3
1523146909273756,-9,13,7,1,3,1,-6,-50
1523146909273756,20,-5,8,-11,1,1,-1,23
1523146909294310,1,5,3,3,2,-2,0,-3
1523146909294310,42,32,-5,-7,-2,1,3,3
1523146909295813,9,-4,1,10,16,5,4,16
1523146909295813,3,19,-17,-11,-10,-8,-1,11
1523146909307846,-3,-18,1,7,10,14,5,-8
1523146909307846,3,4,-11,-16,4,-8,-6,-8
1523146909316875,-2,-5,4,5,-13,-11,2,-5
1523146909316875,6,17,4,5,12,9,-2,0
1523146909331912,-10,-7,7,1,23,14,5,-17
1523146909331912,13,-4,-5,-13,-29,1,-3,4
1523146909333415,-11,8,-14,11,21,2,3,-4
1523146909333415,12,9,-3,12,0,-7,-3,-5
1523146909354471,-1,-9,-2,-15,-22,-6,-4,-2
1523146909354471,10,15,-5,18,10,4,6,10
1523146909355976,1,-10,1,-13,-12,-1,-5,-1
1523146909355976,11,8,4,6,7,-1,1,1
1523146909368006,-8,-8,-2,-13,-22,-9,-6,-7
1523146909368006,-15,1,-3,1,2,3,1,-10
1523146909377030,7,-3,7,7,-4,2,-2,-10
1523146909377030,5,-2,1,-1,5,4,2,1
1523146909392070,-3,4,4,1,-2,-10,-3,4
1523146909392070,21,2,-2,-6,-11,-2,1,5
1523146909393574,10,1,-3,2,1,7,6,7
1523146909393574,-31,5,9,9,5,-1,-2,0
1523146909414630,7,-5,-4,-12,-5,-2,-5,-7
1523146909414630,0,-3,-9,7,1,-6,-2,-4
1523146909416135,21,7,-1,-3,2,4,-1,7
1523146909416135,-11,-4,-2,-12,-6,0,0,-3
1523146909428166,-7,-3,-8,7,6,2,2,-3
1523146909428166,-1,0,7,-2,4,2,-1,-3
1523146909437189,7,3,-5,1,-10,-7,-4,5
1523146909437189,6,3,1,-4,-6,3,3,-2
1523146909451736,-8,-2,7,9,8,-2,-1,-2
1523146909451736,3,0,-2,-8,6,-3,-1,-2
1523146909453734,-14,-5,-2,-6,-21,-4,-6,-3
1523146909453734,7,1,3,7,-5,0,0,2
1523146909474289,-4,-6,-2,-5,3,-1,-4,-4
1523146909474289,6,4,-3,7,10,3,4,1
1523146909475792,-8,2,3,1,4,1,0,-1
1523146909475792,4,-1,-5,-11,-4,-3,-4,0
1523146909487826,4,1,3,3,-5,-2,-1,0
1523146909487826,-1,2,0,8,5,0,1,-1
1523146909496853,-4,-9,-26,0,2,3,-1,-1
1523146909496853,2,-4,-5,-11,-6,-1,0,-1
1523146909519408,-3,1,1,15,4,-3,-2,-4
1523146909519408,-1,-1,-6,-7,-3,-1,1,-1
1523146909520913,-6,-4,1,-3,3,-2,-2,0
1523146909520913,15,5,3,1,1,-5,-3,0
1523146909534449,-3,2,-1,2,10,3,2,-1
1523146909534449,0,-2,0,-18,-13,0,-3,-2
1523146909535953,-1,-1,4,-1,1,-1,0,2
1523146909535953,4,2,4,4,1,1,2,0
1523146909547985,-6,-6,-14,-1,-8,-4,-4,-2
1523146909547985,3,-5,5,25,16,3,0,2
1523146909563026,13,5,-2,-14,-3,0,-1,2
1523146909563026,-4,-1,-5,-5,-5,1,2,-2
1523146909572049,2,-1,3,-2,2,0,1,-1
1523146909572049,0,6,2,4,-8,0,0,0
1523146909573554,-4,0,0,-9,3,-3,-1,-4
1523146909573554,0,-5,1,9,0,-3,-2,-1
1523146909594609,-2,0,2,-8,-1,-3,-3,-3
1523146909594609,-2,-1,-4,0,2,-2,-1,1
1523146909596113,-4,1,6,3,-4,-6,-5,-3
1523146909596113,-3,-1,0,2,2,3,0,-2
1523146909608144,-2,-1,2,-10,-2,3,4,1
1523146909608144,0,-3,-9,2,0,-2,-3,-3
1523146909617174,-4,1,15,-6,10,1,1,-2
1523146909617174,-4,-1,-4,-3,-9,-6,-3,-3
1523146909632212,-11,-9,8,7,-2,0,1,1
1523146909632212,14,21,-13,-6,-3,1,-2,-1
1523146909633716,-26,-46,1,-8,-7,-7,-6,-9
1523146909633716,6,34,-5,-2,1,1,-2,1
1523146909654269,10,48,11,-2,-1,-1,1,2
1523146909654269,-10,-50,-4,0,1,0,0,-5
1523146909656274,6,30,2,-3,-5,-2,0,-1
1523146909656274,-2,-7,-4,-4,5,3,1,8
1523146909667804,35,-20,-1,6,3,5,2,-21
1523146909667804,-30,-13,8,2,1,2,2,26
1523146909676827,24,-27,-6,5,-1,2,1,-6
1523146909676827,24,15,45,-8,-6,-5,-4,-11
1523146909691870,-55,16,-43,0,2,4,1,-3
1523146909691870,10,4,-2,-9,-10,-12,-7,-14
1523146909693371,22,69,6,12,9,5,1,-39
1523146909693371,8,-57,-3,2,2,2,8,64
1523146909714428,29,59,41,-2,-1,0,2,-1
1523146909714428,3,58,51,-11,-1,1,-2,12
1523146909715932,-33,-4,-2,-3,-7,-5,-4,-28
1523146909715932,30,0,-51,-8,-2,-2,-4,-9
1523146909736991,25,-2,0,5,-4,-6,-5,14
1523146909736991,-7,1,-21,2,-3,-3,-4,-2
1523146909738491,43,57,21,5,0,1,-3,-12
1523146909738491,-19,57,6,9,5,1,5,10
1523146909751025,-20,-61,10,-17,-11,-6,-1,21
1523146909751025,-3,20,-14,-1,-2,-3,-5,-34
1523146909758045,3,-10,-8,-12,-4,0,2,21
1523146909758045,-25,-6,-19,7,-1,-3,-6,-18
1523146909774587,-1,-16,-2,4,1,-1,-4,1
1523146909774587,-4,3,1,3,1,5,10,5
1523146909776091,-58,-26,-19,-6,-2,-3,-4,20
1523146909776091,-3,-13,6,-1,-2,-1,-5,-34
1523146909797147,5,12,2,8,3,-1,-4,-7
1523146909797147,13,-9,-8,-12,0,0,2,8
1523146909798653,7,-14,0,3,0,2,2,19
1523146909798653,-22,-17,-11,-6,-7,1,1,-12
1523146909810707,4,-13,-12,14,14,1,2,-6
1523146909810707,3,-2,0,-13,-27,-4,-1,1
1523146909819708,-9,-18,-10,12,9,-3,-4,7
1523146909819708,-19,0,9,8,-18,3,4,-5
1523146909834276,-4,2,-3,-2,17,5,-1,-7
1523146909834276,2,-10,0,2,-18,-4,-4,7
1523146909836251,-13,1,4,-2,3,-2,-2,-6
1523146909836251,11,-7,-7,-5,0,-1,-2,-1
1523146909856808,-4,-5,3,-6,-15,-1,5,7
1523146909856808,3,-2,4,15,21,3,1,-2
1523146909858313,1,-16,-11,-15,-15,-3,-3,-10
1523146909858313,2,35,0,0,14,-4,-5,0
1523146909870343,-8,-41,-5,-6,-14,-7,-8,-7
1523146909870343,-3,-5,-2,3,6,5,5,0
1523146909879367,11,14,9,2,-4,1,2,17
1523146909879367,-50,-21,6,-5,6,1,2,4
1523146909894407,-14,11,-7,17,7,-10,-8,-11
1523146909894407,36,-14,-5,-15,-16,0,-1,-1
1523146909895911,6,-3,3,3,-3,0,3,10
1523146909895911,2,-12,-4,-3,-4,-1,0,-5
1523146909916975,3,7,2,-6,1,0,-4,-1
1523146909916975,-17,10,14,-1,13,-3,-4,-1
1523146909918471,3,-8,-10,-3,-8,-4,0,3
1523146909918471,6,-3,8,9,12,4,0,-1
1523146909930502,-6,-3,-3,-3,-11,-2,-1,-1
1523146909930502,-1,1,-3,2,9,-1,-3,-4
1523146909939532,-5,-3,1,1,4,-2,-1,-3
1523146909939532,8,-6,1,-9,-12,-2,-1,-2
1523146909954567,-3,-2,-25,-9,-1,0,0,0
1523146909954567,-10,-2,9,17,3,1,-1,-8
1523146909956072,2,-1,-3,-21,-3,1,1,0
1523146909956072,0,0,-7,5,-7,-5,-2,-1
1523146909977126,-4,-1,-6,-8,-4,0,-1,1
1523146909977126,-4,-4,-8,-5,4,-3,1,-4
1523146909978630,-1,-2,-4,4,5,2,1,2
1523146909978630,6,1,11,3,1,-4,-1,-3
1523146909990665,0,-2,-8,-15,-12,-4,-1,-1
1523146909990665,-5,-6,-3,8,1,1,-2,0
1523146909999691,-7,-4,1,8,3,0,-2,-3
1523146909999691,5,3,-1,-5,-3,1,1,-2
1523146910014226,-1,0,3,-3,12,-2,-2,-1
1523146910014226,-7,-2,-3,1,-8,-2,-2,0
1523146910016233,-12,-8,-2,5,5,3,-1,-4
1523146910016233,2,-1,3,-10,-1,-3,-2,0
1523146910036786,-14,-5,-10,-2,-6,-1,1,1
1523146910036786,1,1,5,11,4,1,-2,-9
1523146910038289,2,-1,-3,-19,-3,-8,-5,1
1523146910038289,-4,-6,-6,1,-8,6,2,0
1523146910050320,1,2,13,2,3,-1,0,-1
1523146910050320,-5,-3,9,-17,-13,-3,-2,-2
1523146910059347,9,1,2,18,8,0,2,-1
1523146910059347,6,1,4,8,-3,-3,-5,-1
1523146910074385,6,2,-3,-9,-2,0,-2,-2
1523146910074385,-4,0,-4,-1,-2,2,5,0
1523146910075890,5,-1,-2,-1,-3,2,4,0
1523146910075890,-11,-6,7,-10,-4,-6,-4,-4
1523146910096944,-2,-1,7,14,-2,0,-2,-1
1523146910096944,1,-1,-12,-11,3,1,-2,0
1523146910098451,-3,-1,0,2,-3,-1,0,0
1523146910098451,0,-1,-3,-6,-4,-3,-1,-2
1523146910111488,-5,-7,-6,7,-3,2,-3,-2
1523146910111488,3,-1,-12,-4,2,-2,2,3
1523146910118004,0,3,6,2,-7,-3,-4,-2
1523146910118004,0,5,14,-3,-1,-2,-4,-2
1523146910134547,-3,-8,4,6,4,3,2,1
1523146910134547,2,-8,-11,-8,-4,-2,-2,-3
1523146910136552,0,-5,-8,-4,-2,-5,-4,-2
1523146910136552,6,0,-4,7,5,-1,1,0
1523146910157107,-2,4,6,-6,-5,-1,1,-1
1523146910157107,0,0,-2,5,1,0,1,0
1523146910158610,8,5,-1,6,1,1,1,2
1523146910158610,-2,-8,-11,2,4,1,1,-2
1523146910170644,11,8,-12,-10,-10,-7,-5,-3
1523146910170644,4,41,14,11,7,8,6,3
1523146910179665,-3,-13,-16,-14,-11,-7,-7,-2
1523146910179665,20,74,-22,18,9,3,7,10
1523146910194710,-45,6,14,-1,1,0,-1,-2
1523146910194710,8,-13,-11,-1,1,-4,1,-1
1523146910196213,-47,-9,31,-18,-13,-8,-10,-3
1523146910196213,19,39,10,3,4,6,-1,-19
1523146910216766,84,-32,-76,10,-1,1,1,18
1523146910216766,-48,-79,5,-5,-5,-8,-8,-3
1523146910218771,21,-3,29,15,4,3,15,72
1523146910218771,4,15,12,-60,-11,-11,-11,-27
1523146910231304,-80,-12,26,11,3,1,-5,-48
1523146910231304,21,26,4,-3,0,1,-4,-51
1523146910239325,-20,-60,-34,1,-1,-1,5,71
1523146910239325,-17,-55,4,5,3,-2,-9,-54
1523146910254365,2,33,7,-11,-7,-2,0,12
1523146910254365,2,21,-6,-4,1,0,1,-21
1523146910255868,-37,2,0,7,2,2,-2,-44
1523146910255868,2,-17,-9,6,-1,1,4,23
1523146910276924,-16,3,15,-11,-2,-2,-4,-15
1523146910276924,-4,-15,-10,10,-1,0,1,26
1523146910278432,44,38,-4,0,2,-1,-5,-26
1523146910278432,4,-23,-1,6,-3,1,1,24
1523146910290460,39,-4,1,-3,-1,1,1,10
1523146910290460,-24,23,6,-10,-2,-2,-2,0
1523146910299485,5,-5,-1,5,1,4,-2,-15
1523146910299485,-1,-3,-6,12,8,-3,7,13
1523146910314527,-3,1,7,-2,-6,-19,-5,3
1523146910314527,15,9,4,-17,35,55,11,16
1523146910316029,-3,7,-19,-11,-5,-15,-12,-17
1523146910316029,-9,-17,-2,4,19,15,0,6
1523146910337084,13,14,21,12,-9,-10,2,6
1523146910337084,1,-14,-22,-12,-10,-25,-7,3
1523146910338589,13,5,-3,0,-15,5,2,-11
1523146910338589,-7,6,5,1,3,-3,-3,4
1523146910350620,0,-4,-2,-1,11,4,3,3
1523146910350620,1,1,1,-2,-14,-12,-5,3
1523146910359663,-6,3,-3,4,5,2,-2,-13
1523146910359663,-5,-4,-2,-6,-14,-11,1,3
1523146910374184,-3,3,3,0,4,4,-2,4
1523146910374184,6,-7,-4,10,-5,-4,0,4
1523146910376189,12,10,-2,-3,-4,-3,-3,-3
1523146910376189,-11,-6,-1,2,-3,3,-1,2
1523146910396744,2,-5,-5,-10,-9,4,4,2
1523146910396744,4,5,3,4,1,-5,-3,1
1523146910398750,5,1,4,6,12,2,4,-2
1523146910398750,0,-2,-5,-4,-7,-9,-4,5
1523146910410780,-6,-2,-3,8,8,8,1,-3
1523146910410780,3,4,1,-3,-11,-4,0,2
1523146910419804,-1,3,2,-1,1,2,0,-4
1523146910419804,1,-6,-1,5,5,-2,-4,2
1523146910433842,1,2,-3,-10,-4,1,0,-3
1523146910433842,6,-3,3,0,-2,-2,0,2
1523146910440363,5,-2,1,4,5,0,1,-7
1523146910440363,9,6,6,-10,-14,-1,0,2
1523146910456903,-15,-5,-1,3,7,-1,-4,-1
1523146910456903,4,2,2,6,-5,-8,-4,0
1523146910458408,-2,2,-2,-6,-5,0,0,0
1523146910458408,5,2,8,-8,0,-1,1,-1
1523146910470438,-13,-3,11,13,-2,-2,-2,-3
1523146910470438,1,-11,-12,-15,-6,-5,-2,-1
1523146910479463,-3,-8,-3,-1,2,2,3,-3
1523146910479463,-8,-3,5,-3,-21,-6,-4,1
1523146910494512,2,1,-4,-3,5,0,0,-1
1523146910494512,-8,1,-5,-7,-4,3,0,-5
1523146910496006,2,7,12,10,6,-4,-1,1
1523146910496006,2,-6,-6,1,6,1,-1,-1
1523146910517063,7,0,-4,-7,-5,0,1,2
1523146910517063,1,0,0,1,-8,-2,-1,1
1523146910518567,1,2,-2,7,5,1,1,-3
1523146910518567,-9,-5,-11,4,9,0,-1,-2
1523146910530599,3,-1,2,-10,-15,-7,-4,-2
1523146910530599,-5,-2,-1,3,3,3,3,3
1523146910539623,-1,1,2,-10,-4,-1,2,-1
1523146910539623,-3,-4,-11,14,8,1,2,-2
1523146910554162,5,3,4,-6,-8,-2,-1,0
1523146910554162,-1,-1,1,-14,-14,-7,-5,-5
1523146910556168,-1,-2,-3,0,2,0,-1,-1
1523146910556168,1,1,0,-5,-1,-1,-1,1
1523146910576722,-2,-5,-9,-2,8,3,3,0
1523146910576722,1,3,3,15,11,-4,-3,0
1523146910578728,-4,0,1,-3,-12,-2,-2,-1
1523146910578728,18,4,0,3,3,2,1,1
1523146910599288,-10,-7,-4,1,1,-1,-3,-5
1523146910599288,0,0,-2,-5,-1,-2,0,0
1523146910601289,11,-2,-12,1,1,1,-1,0
1523146910601289,7,8,4,5,-1,1,1,0
1523146910614324,-19,-27,-3,-9,-4,-5,-5,-3
1523146910614324,4,17,2,11,5,1,1,1
1523146910615830,-6,-36,-13,-8,0,-2,-1,-2
1523146910615830,-16,-9,-4,-12,-15,-4,-4,-4
1523146910636881,10,9,-10,10,4,2,2,1
1523146910636881,-3,-5,5,-3,5,-1,-1,2
1523146910638386,-8,-6,-4,7,-1,2,1,-1
1523146910638386,0,-8,-11,2,3,-1,1,1
1523146910659442,4,1,-2,0,-4,0,-2,0
1523146910659442,3,-1,7,4,2,-1,-2,-2
1523146910660948,-2,9,3,-5,-8,-3,0,1
1523146910660948,3,-4,-9,-9,-4,0,-1,-2
1523146910674482,-45,-3,4,0,2,-1,-2,-5
1523146910674482,63,-54,-3,5,3,5,5,9
1523146910675985,-32,57,-33,13,7,2,-2,-5
1523146910675985,34,19,10,-2,1,0,0,-9
1523146910697043,-50,-68,-3,-10,-7,-7,-14,-89
1523146910697043,24,19,-17,-4,-7,-1,8,61
1523146910698547,-1,-59,10,1,10,7,6,-26
1523146910698547,-64,65,4,-22,-15,-17,-15,-11
1523146910719606,66,-18,-12,14,6,7,9,90
1523146910719606,-128,-89,-35,-42,-22,-14,-14,7
1523146910721108,62,11,16,3,2,3,-4,-51
1523146910721108,57,-17,-19,7,5,7,-15,-80
1523146910734642,-34,46,11,0,4,3,40,81
1523146910734642,39,72,51,22,13,7,-4,-80
1523146910736147,-44,-20,-27,-20,-12,-16,-22,-60
1523146910736147,28,-33,-10,5,4,1,-6,-98
1523146910756704,31,73,-7,-10,0,11,-18,-103
1523146910756704,-92,14,71,25,5,2,19,42
1523146910758710,9,28,0,-21,-12,-10,-3,-13
1523146910758710,4,-17,3,7,4,3,7,22
1523146910779260,28,33,27,-4,2,4,-8,-5
1523146910779260,17,10,-71,3,3,-1,5,5
1523146910780765,-6,-10,37,13,-2,0,-6,7
1523146910780765,-16,2,1,-3,-4,-2,6,59
1523146910793303,-6,-26,19,16,-8,-14,-11,14
1523146910793303,15,-7,-23,-21,-4,-16,-14,-30
1523146910802322,1,-3,3,1,3,11,13,59
1523146910802322,-12,-12,-14,-8,21,23,13,18
1523146910816868,5,2,-7,3,-11,-9,-3,-4
1523146910816868,28,2,-7,3,-9,-4,-6,-11
1523146910818872,13,21,1,-6,-20,-9,-6,14
1523146910818872,-19,0,20,21,4,-6,5,20
1523146910839422,12,-15,-7,-1,13,-5,-1,-14
1523146910839422,-6,2,-5,-31,-30,-23,-15,-8
1523146910840927,6,-5,0,4,23,29,13,18
1523146910840927,-16,-15,-19,-11,-9,-4,-2,3
1523146910852957,2,-2,7,-6,-20,1,1,12
1523146910852957,18,1,-3,15,11,0,-2,-8
1523146910861982,-9,4,2,3,-6,-13,-4,2
1523146910861982,2,-6,9,-6,-4,-2,1,14
1523146910877026,2,-2,-14,-8,-1,-3,-4,-15
1523146910877026,5,8,19,15,2,7,3,0
1523146910878528,4,-5,-3,-3,1,-3,-1,5
1523146910878528,-5,0,3,1,-7,-3,0,3
1523146910899581,-8,-6,-5,2,23,5,0,11
1523146910899581,-15,-5,-3,0,-10,-3,-5,-26
1523146910901085,9,-1,-1,-6,-8,0,1,8
1523146910901085,-2,1,5,8,2,-9,-4,0
1523146910913117,7,-3,-6,-12,-11,-4,1,9
1523146910913117,7,-1,-2,-3,14,8,3,-3
1523146910922141,-19,3,3,13,14,-5,-4,1
1523146910922141,6,2,6,-10,-20,-3,6,38
1523146910936682,-1,-12,-16,-10,-8,0,-3,-15
1523146910936682,11,5,3,9,17,3,-2,0
1523146910938686,0,2,2,-10,-9,-5,2,8
1523146910938686,-5,-6,1,17,-2,-1,-4,-10
1523146910959742,-4,-2,-14,-8,3,3,1,0
1523146910959742,7,1,-1,-8,-1,3,2,8
1523146910961246,0,-2,-2,6,-6,-5,-5,-8
1523146910961246,-2,4,10,2,-1,1,-1,-2
1523146910973277,4,2,1,-4,2,-1,-1,2
1523146910973277,-1,-3,-4,3,-10,0,-1,-3
1523146910984307,2,-2,18,6,-8,-8,-1,0
1523146910984307,-8,-2,1,-4,11,7,-1,-4
1523146910996839,6,2,0,-1,-12,-8,0,-1
1523146910996839,3,0,-3,-10,-7,-1,0,3
1523146910998344,-6,-3,5,-2,5,6,2,0
1523146910998344,3,3,-6,4,0,-4,-2,-2
1523146911019400,1,-6,1,0,1,4,-3,0
1523146911019400,-2,1,11,-3,-2,4,1,0
1523146911020905,1,0,-15,-11,-4,-3,-1,0
1523146911020905,-4,-3,3,1,0,-3,-3,-4
1523146911033937,1,-3,-20,9,5,3,4,1
1523146911033937,-3,-2,-1,8,-1,0,0,-1
1523146911040459,3,0,-4,-13,2,-2,1,-2
1523146911040459,-4,-4,-7,-11,0,-1,-2,-4
1523146911057000,-3,1,12,-7,-15,-7,-3,1
1523146911057000,-1,-2,-6,13,13,2,0,-1
1523146911058506,-2,-1,-8,-16,-30,-5,-3,-3
1523146911058506,-1,-3,-3,4,3,-6,-4,-2
1523146911079560,0,-1,1,-3,7,6,2,1
1523146911079560,-1,2,3,6,0,1,-2,-3
1523146911081064,2,-2,-11,6,10,4,0,-2
1523146911081064,-1,-2,4,-9,-7,-7,-2,1
1523146911093096,-1,1,3,-1,-2,0,-1,-2
1523146911093096,-2,-2,-4,2,-2,2,2,-1
1523146911102123,-2,-1,5,2,13,-1,0,1
1523146911102123,-2,2,4,-9,-13,-4,-2,-3
1523146911117160,0,1,7,5,1,-2,-3,-3
1523146911117160,1,-4,-11,-7,25,3,4,3
1523146911118665,0,-4,1,-13,-27,-6,-2,-1
1523146911118665,12,2,-10,-10,0,0,-1,1
1523146911139220,-43,-9,6,13,0,-5,-4,-6
1523146911139220,4,1,-2,-4,3,1,1,1
1523146911141225,-1,-1,-2,-6,5,-1,-1,-2
1523146911141225,-1,1,-6,22,8,3,2,0
1523146911153256,14,-7,-8,-9,0,3,1,-18
1523146911153256,-38,-15,-7,-19,-20,-12,-4,12
1523146911162280,-17,-10,23,5,8,3,-5,-49
1523146911162280,21,18,0,-1,-5,0,7,21
1523146911176819,13,15,8,8,9,1,-1,-29
1523146911176819,13,47,-7,-10,-18,-3,13,55
1523146911178323,48,-29,0,17,18,12,-11,-100
1523146911178323,-57,-19,7,6,7,3,24,85
1523146911199379,-37,-7,-4,-21,-13,-11,-17,-86
1523146911199379,-2,12,-5,-6,-9,-9,-29,-35
1523146911200883,-38,-1,-16,7,-2,-6,22,58
1523146911200883,25,87,72,8,15,14,8,59
1523146911212915,7,-24,-65,15,-14,-13,-16,-102
1523146911212915,-51,-29,-9,0,-10,-6,-7,-58
1523146911227958,-36,62,-7,0,2,-4,-11,-44
1523146911227958,-72,-42,42,23,1,2,-5,-40
1523146911236978,33,56,-13,-34,-4,-3,15,96
1523146911236978,10,-43,26,5,18,10,0,-10
1523146911238482,-59,-79,-38,7,-9,-6,-10,-7
1523146911238482,26,-14,-8,-18,-12,-9,-8,-27
1523146911259580,10,4,22,5,3,6,1,31
1523146911259580,20,-9,-3,4,-2,1,2,5
1523146911261044,-5,15,40,-11,9,8,6,23
1523146911261044,23,-16,-34,-18,-17,-7,-9,-18
1523146911273195,-10,-19,5,4,8,-2,1,34
1523146911273195,5,10,-7,6,4,2,2,-11
1523146911282222,24,12,17,-18,-22,-7,-2,39
1523146911282222,6,-1,-19,15,-1,-12,-16,-37
1523146911297264,17,6,12,-2,8,6,5,12
1523146911297264,7,7,17,21,0,-22,3,7
1523146911298761,9,-1,-15,-17,-8,8,-5,9
1523146911298761,9,-13,-22,-10,-57,-24,-12,-23
1523146911319315,-5,-4,-14,-5,27,30,17,11
1523146911319315,4,0,12,3,-2,4,2,9
1523146911320822,5,-2,-14,2,-10,-20,1,13
1523146911320822,-9,-8,-23,-30,-3,4,-11,-48
1523146911333377,14,4,34,37,0,-6,-2,20
1523146911333377,0,4,-11,-10,10,2,-3,-2
1523146911342380,23,15,7,19,7,9,4,8
1523146911342380,-12,-6,-15,-3,19,1,-12,-63
1523146911356413,4,-11,5,-9,-10,-11,0,26
1523146911356413,14,3,-2,-11,-35,9,4,6
1523146911362933,7,-2,-3,13,11,-5,0,3
1523146911362933,7,0,3,-2,18,18,3,6
1523146911379477,-18,-7,-6,-7,-16,-4,-5,-9
1523146911379477,3,0,-14,-15,4,-3,-5,-1
1523146911380983,9,4,-2,7,2,3,-1,5
1523146911380983,-3,1,-24,-1,-9,-7,5,19
1523146911393014,3,-2,-2,5,4,2,-3,-9
1523146911393014,5,5,17,-1,15,1,-2,3
1523146911402036,18,0,-11,-18,-23,-5,0,2
1523146911402036,4,-3,-5,6,16,5,4,4
1523146911415578,-6,-2,3,-3,-12,-6,-2,7
1523146911415578,4,-2,-8,-6,-1,-4,-6,-14
1523146911424596,6,0,4,-1,4,-1,1,10
1523146911424596,3,-4,0,12,17,-3,1,8
1523146911439225,-6,-6,-15,-22,-7,2,-5,-9
1523146911439225,-3,1,4,7,-7,-3,4,4
1523146911441231,0,4,-3,-2,5,2,-1,2
1523146911441231,-2,-8,3,2,-7,-1,1,7
1523146911453263,-1,1,-1,-9,-9,-10,-4,-8
1523146911453263,-4,-2,-4,1,6,5,3,-3
1523146911462289,-5,-4,-1,2,1,-3,-1,2
1523146911462289,7,2,-2,-1,-3,0,-1,-1
1523146911476326,2,-1,-1,8,17,-1,-1,4
1523146911476326,-2,-2,-2,1,-7,3,1,1
1523146911483344,-1,1,-2,5,4,0,0,-1
1523146911483344,4,2,1,-14,-11,-1,-1,4
1523146911506908,-1,-1,4,1,2,3,1,-3
1523146911506908,-2,-2,-8,-5,1,1,0,0
1523146911508412,-1,-4,-48,8,3,-2,-3,-1
1523146911508412,-1,1,9,4,1,-2,-2,1
1523146911512924,-6,-4,-2,-6,-11,-3,-1,2
1523146911512924,4,-3,-10,-2,1,0,1,-6
1523146911521948,-5,4,23,-2,-3,-3,-3,-1
1523146911521948,7,2,-3,2,1,2,1,4
1523146911536986,-5,0,3,-8,-5,-6,-5,0
1523146911536986,1,2,-5,-1,2,4,0,-1
1523146911538491,6,-1,11,-4,5,5,0,1
1523146911538491,-11,0,-2,5,-7,-4,-2,-1
1523146911559545,11,3,6,6,8,-1,-2,-1
1523146911559545,-22,-13,1,-5,-3,-3,-3,0
1523146911561052,0,1,1,-4,-2,-3,-1,-3
1523146911561052,3,0,-2,-5,3,1,2,-2
1523146911582106,0,-4,-6,-2,-1,-4,-5,-3
1523146911582106,-3,0,0,6,2,2,1,0
1523146911583612,-2,-2,-5,-16,-13,-3,-1,-3
1523146911583612,-4,-1,3,-2,2,0,0,3
1523146911597146,-4,2,-2,4,-1,1,3,-1
1523146911597146,4,-4,-2,2,4,-1,-1,-1
1523146911598651,1,0,4,6,5,-2,-2,1
1523146911598651,3,-2,-4,-7,-6,4,3,-2
1523146911619207,-4,2,2,4,-6,-3,-3,-1
1523146911619207,2,1,-2,-5,5,-4,-1,-1
1523146911621210,-1,-3,5,15,0,0,-1,-1
1523146911621210,-2,-3,-9,-12,-6,-2,-2,-1
1523146911641767,-2,-4,-6,2,5,2,0,0
1523146911641767,-4,-1,0,1,8,1,3,-2
1523146911643770,-1,3,4,-7,-19,-4,-3,0
1523146911643770,34,-3,-16,8,8,1,0,0
1523146911656806,2,-7,-11,2,0,3,1,2
1523146911656806,11,-1,8,10,3,3,1,-8
1523146911658810,-3,30,-4,-7,2,-4,1,38
1523146911658810,30,47,8,-2,-2,0,-5,-57
1523146911679366,-67,-81,-13,4,1,-3,3,39
1523146911679366,25,-17,-3,6,-1,1,0,-13
1523146911681371,50,32,-2,-10,-4,1,6,52
1523146911681371,26,-27,2,10,8,5,-5,-47
1523146911701926,-55,29,8,-1,-3,-5,0,32
1523146911701926,-28,-1,7,-4,-7,2,-4,-56
1523146911703430,26,-8,54,12,8,4,9,13
1523146911703430,-24,23,-24,-12,-3,-7,-15,-62
1523146911716463,87,22,-9,2,0,0,2,21
1523146911716463,2,36,55,-31,-18,-8,-2,16
1523146911722982,-13,-28,-18,21,15,6,-2,-87
1523146911722982,-48,-20,5,-2,-7,-3,6,31
1523146911739526,-20,7,40,11,-1,0,1,-21
1523146911739526,-8,15,-39,-3,-4,-3,-3,-3
1523146911741030,-10,12,-20,-11,-4,-4,-6,-9
1523146911741030,-2,-8,6,-3,0,-1,5,40
1523146911762084,1,-17,-5,-5,-2,1,-4,-27
1523146911762084,-4,-11,-9,6,3,0,0,17
1523146911763590,-18,6,3,-3,-2,-3,0,8
1523146911763590,-7,-17,-27,0,-2,-3,-2,6
1523146911775624,16,9,0,-8,-4,-5,-5,-16
1523146911775624,0,-1,-3,6,0,2,4,19
1523146911784645,-12,-17,-12,-3,7,2,-7,-18
1523146911784645,-5,3,29,-4,-25,-3,2,19
1523146911799185,10,-1,-5,-6,-1,-14,-2,-5
1523146911799185,-11,-6,-8,-8,14,23,6,11
1523146911801189,-9,-8,2,18,10,-3,-6,-13
1523146911801189,1,-7,-2,-7,-7,-2,0,18
1523146911821744,13,12,3,23,12,-19,-9,-7
1523146911821744,-10,-8,-16,-11,-22,10,2,0
1523146911823749,-12,-12,-5,-14,6,2,-1,-3
1523146911823749,-4,-2,-1,-1,1,-4,-6,-2
1523146911835781,3,1,-12,-15,-8,1,3,-10
1523146911835781,8,2,11,1,-11,-22,-11,-1
1523146911844804,-5,-12,-24,-6,0,4,1,3
1523146911844804,-9,-2,14,10,1,-1,1,11
1523146911859847,0,5,-15,-8,-1,11,1,-2
1523146911859847,-5,-10,-3,1,-5,-10,-3,-7
1523146911861351,1,-3,-11,-15,-16,-6,-3,2
1523146911861351,0,-2,-4,-5,19,13,8,6
1523146911881904,1,4,21,12,6,5,0,-6
1523146911881904,0,1,-27,10,13,1,0,9
1523146911883408,-4,-4,1,-7,-26,-12,-4,-5
1523146911883408,0,-1,-5,-1,4,3,0,6
1523146911896443,19,7,2,-3,-1,4,0,-1
1523146911896443,1,1,6,3,12,-2,-2,2
1523146911902961,-4,-2,6,2,-10,-3,-5,-13
1523146911902961,1,1,-2,2,1,-3,-1,7
1523146911919505,-4,3,-6,-1,-7,4,0,0
1523146911919505,20,0,2,-5,1,-4,-2,-2
1523146911921008,-1,2,0,7,8,1,-2,3
1523146911921008,2,-1,9,0,-6,-2,-2,2
1523146911942071,-32,-11,-5,-4,-4,-2,-4,-9
1523146911942071,-1,3,3,3,-9,-5,-1,0
1523146911943568,-6,-5,-3,-29,7,4,0,2
1523146911943568,-32,-9,8,0,-16,-11,-6,-4
1523146911956103,8,1,6,10,3,3,-1,-1
1523146911956103,-5,-5,-4,-11,4,-1,-2,0
1523146911963120,-6,-4,-2,-9,-24,-4,0,1
1523146911963120,4,0,3,9,15,-1,-1,1
1523146911979663,6,-1,-21,-25,-5,1,1,-4
1523146911979663,1,1,22,11,-5,-3,-2,-2
1523146911981168,11,8,11,7,15,2,1,1
1523146911981168,8,4,5,-9,-12,-5,-1,0
1523146912001724,-1,-7,-17,4,0,2,0,-1
1523146912001724,19,0,-22,10,4,3,2,5
1523146912003728,14,19,-3,-4,6,0,0,1
1523146912003728,12,-2,-1,6,1,0,1,0
1523146912016262,-26,-12,0,0,0,0,2,0
1523146912016262,-15,-22,14,-12,-4,-1,1,-2
1523146912023279,-17,5,12,-2,10,-2,-3,-4
1523146912023279,-30,-62,-30,-15,8,-1,-2,11
1523146912039325,33,31,14,-9,-38,-2,-1,0
1523146912039325,32,1,5,4,3,-1,-1,-2
1523146912040827,-3,-3,5,7,2,3,3,2
1523146912040827,-3,2,-6,-6,-4,-1,0,0
1523146912062385,-4,8,9,-1,7,-2,-5,-8
1523146912062385,-6,-4,-14,0,-9,-3,-2,5
1523146912063888,3,-9,-10,1,-6,-2,-3,-6
1523146912063888,-5,17,1,6,6,2,3,-5
1523146912075419,1,-7,-8,-7,-5,-6,-5,1
1523146912075419,-13,14,3,11,-2,-1,-3,-10
1523146912084443,1,-16,0,-4,5,0,1,3
1523146912084443,6,12,1,3,0,-1,0,2
1523146912099482,8,-3,-1,-4,2,3,4,1
1523146912099482,-18,-6,-1,0,9,-1,-1,-2
1523146912100987,-3,4,0,4,-19,-7,-6,1
1523146912100987,6,6,20,0,-3,-1,-3,-5
1523146912122045,2,-3,-7,6,9,0,-1,1
1523146912122045,-10,-3,-1,-4,-1,0,0,-1
1523146912123547,-24,-9,-4,8,6,-2,-1,-2
1523146912123547,28,27,-2,-4,-2,-3,-3,-5
1523146912135580,-3,7,11,7,-1,-1,-1,-6
1523146912135580,-8,8,12,-20,7,-1,2,10
1523146912144603,4,-9,-15,2,-13,0,-1,-6
1523146912144603,-26,26,-5,0,10,1,0,4
1523146912159642,-6,-49,1,-1,-13,-5,-3,-6
1523146912159642,2,13,-1,-15,-18,-6,-5,-4
1523146912161148,-7,2,6,15,16,-1,1,0
1523146912161148,6,6,-4,-2,-3,-1,1,0
1523146912181702,-7,6,-9,-5,2,5,2,6
1523146912181702,-10,-1,-4,-3,-1,0,-4,-12
1523146912183707,12,-14,-9,13,5,1,1,-2
1523146912183707,-4,-19,-6,-3,-5,-2,-2,-3
1523146912195739,-2,0,5,-4,14,-4,-3,1
1523146912195739,-3,-12,-20,9,-5,-3,-1,8
1523146912204762,-2,2,2,8,14,13,9,-1
1523146912204762,-8,-27,-17,-10,-12,-8,-11,-19
1523146912219326,-45,-57,14,-8,-1,-1,1,20
1523146912219326,-48,9,8,4,3,2,-1,-26
1523146912221307,-59,-42,-11,1,-2,1,-1,-10
1523146912221307,52,32,-8,-11,-4,-1,5,56
1523146912241862,-75,-79,-28,-7,-4,-3,-17,-109
1523146912241862,36,52,7,15,6,5,15,97
1523146912243366,16,-24,-11,-22,-11,-9,-7,-48
1523146912243366,-10,-33,19,7,4,-1,-5,-20
1523146912255398,-4,99,-29,-15,-15,-15,-10,32
1523146912255398,-38,-4,-19,7,2,-1,-10,-40
1523146912264422,-22,77,15,-1,1,1,8,47
1523146912264422,-33,-6,-19,20,15,10,12,61
1523146912280465,37,42,-6,-4,-6,-3,-6,-25
1523146912280465,5,-33,-39,-3,-1,-3,-6,-21
1523146912280966,-38,16,-9,7,0,-4,-6,10
1523146912280966,25,47,2,-29,-12,-3,-3,-50
1523146912309541,-10,-8,8,21,10,6,10,31
1523146912309541,2,1,15,-4,2,-2,3,-13
1523146912311046,60,-8,6,-7,-8,3,2,-6
1523146912311046,-15,-5,-3,3,-4,0,1,-7
1523146912315560,8,10,1,-1,3,0,-3,6
1523146912315560,26,-11,11,-7,-7,-6,-6,-12
1523146912324582,7,-4,5,-3,5,-1,-2,0
1523146912324582,13,-7,12,12,-2,0,-2,6
1523146912339123,20,11,17,-28,0,0,8,20
1523146912339123,-4,-10,4,13,6,-6,-5,-11
1523146912345638,-4,0,2,-1,-16,-4,-2,4
1523146912345638,-6,-5,-11,-8,5,-5,-2,-12
1523146912362182,9,2,9,0,-5,3,2,-13
1523146912362182,9,2,3,-10,-3,-15,-1,1
1523146912363686,17,-8,-8,14,37,12,0,0
1523146912363686,-6,-3,12,-2,-22,-2,-8,-5
1523146912375717,0,-9,-7,-4,5,2,-1,-7
1523146912375717,9,7,4,-1,-38,-7,0,9
1523146912384741,-1,-1,0,-9,-14,-17,-7,3
1523146912384741,-3,-10,-3,-3,-2,-2,-1,-17
1523146912398781,6,3,7,21,19,-4,-6,5
1523146912398781,1,-7,2,-7,4,14,2,0
1523146912405797,13,7,13,13,3,0,4,4
1523146912405797,-24,-3,-4,-6,2,-5,-8,-2
1523146912421844,-6,-4,-6,1,-12,-4,-1,-12
1523146912421844,-5,-8,-3,-7,11,0,-1,-9
1523146912423344,10,3,3,-1,-4,4,0,-1
1523146912423344,13,-1,0,-7,-18,-1,4,11
1523146912435377,8,2,-4,2,3,1,5,9
1523146912435377,-4,-1,8,4,1,1,0,-2
1523146912444401,-1,-1,-3,5,20,-4,-3,3
1523146912444401,-16,-8,-1,-3,-2,4,3,-11
1523146912458938,-16,3,0,12,4,-2,-3,-3
1523146912458938,7,2,-8,-15,-2,-3,-5,-4
1523146912465458,10,1,-2,-17,-15,0,-1,-1
1523146912465458,-8,-3,12,16,18,2,-1,-5
1523146912482000,0,19,12,-5,5,3,2,0
1523146912482000,-51,-61,-17,1,-8,-5,-4,-2
1523146912483506,6,39,2,-7,-5,-1,2,3
1523146912483506,-2,-43,-7,-2,2,0,-2,-8
1523146912504562,14,-3,-6,-6,-3,0,-1,5
1523146912504562,1,6,7,9,16,1,-1,-1
1523146912506066,-2,-1,-9,-8,-26,-1,-1,-6
1523146912506066,-1,10,12,-14,-20,-8,-5,-4
1523146912518600,9,-3,-1,3,-4,1,2,7
1523146912518600,10,5,2,1,1,3,0,3
1523146912525618,-8,-17,-10,-3,6,-2,-2,-3
1523146912525618,11,16,-7,0,4,1,2,0
1523146912542159,1,-8,6,-1,-5,-8,-5,0
1523146912542159,7,15,-1,0,-13,2,2,2
1523146912543666,-3,-7,9,-5,-5,-3,-4,-1
1523146912543666,1,-1,-4,0,4,0,0,-6
1523146912564220,6,5,-4,1,2,1,0,1
1523146912564220,5,6,-3,0,-1,-1,2,0
1523146912566225,-2,-8,1,-1,6,-5,-5,-2
1523146912566225,-1,-1,3,18,11,9,2,0
1523146912579259,-2,-8,-6,-16,-27,-3,0,3
1523146912579259,6,7,3,-2,3,-1,2,3
1523146912581265,-3,-6,-5,-5,-3,-4,-3,-2
1523146912581265,1,8,-4,4,6,2,0,1
1523146912601819,3,-1,1,7,1,-3,-3,-1
1523146912601819,0,-1,-2,-8,-8,-3,-1,-1
1523146912603825,14,0,7,12,18,3,2,1
1523146912603825,-49,-11,-2,-11,-29,-8,-5,-7
1523146912624381,1,-1,2,3,3,3,1,1
1523146912624381,4,1,-3,-5,-8,-4,-5,0
1523146912625884,-1,-2,4,8,7,0,-3,-3
1523146912625884,21,2,-15,4,11,0,2,3
1523146912639420,-9,-2,-4,-3,2,3,3,-1
1523146912639420,-7,1,5,4,-13,-1,-2,-3
1523146912640924,-4,0,-2,-13,2,-6,-3,-5
1523146912640924,10,1,-1,8,14,4,0,0
1523146912661980,2,2,11,3,-11,-2,-2,1
1523146912661980,14,-2,-19,8,25,4,0,1
1523146912663485,-10,-1,2,-7,-33,-7,-3,-1
1523146912663485,2,-6,0,-1,5,-4,0,-2
1523146912684538,3,-2,8,0,3,2,0,1
1523146912684538,14,9,20,-1,10,5,4,6
1523146912686045,26,-4,-3,10,2,2,0,-2
1523146912686045,-15,16,14,-9,-4,-7,-5,-3
1523146912698075,-29,-67,-24,8,7,3,1,-10
1523146912698075,41,42,14,-3,-8,-3,-2,-13
1523146912707102,-47,-76,-37,-2,-1,0,12,88
1523146912707102,-26,-31,4,-15,-5,-6,-10,-37
1523146912722138,-18,60,8,9,10,6,6,-2
1523146912722138,-55,-70,-25,-22,-17,-15,-21,-37
1523146912723644,10,-25,-6,3,2,5,5,-20
1523146912723644,32,-10,-20,9,8,4,-4,-46
1523146912744201,-90,-75,-21,15,10,5,18,95
1523146912744201,-71,1,18,-6,-7,-5,-13,-73
1523146912746204,-21,99,-6,-5,-7,-1,-3,-20
1523146912746204,-41,37,6,2,0,-5,-16,-93
1523146912758234,-38,33,-63,-21,-14,-15,-11,-14
1523146912758234,-2,64,29,19,10,9,16,52
1523146912767259,-60,-44,10,-19,-5,-9,-22,-46
1523146912767259,26,35,-10,4,-3,4,17,53
1523146912781799,-6,-9,66,-16,-2,-2,-10,-57
1523146912781799,8,-2,-16,5,-1,0,2,3
1523146912783804,49,32,8,-9,-4,-1,-5,-22
1523146912783804,-79,-37,-9,6,0,0,7,34
1523146912804360,61,19,26,9,-2,-8,-11,-35
1523146912804360,18,-27,-24,-30,-3,-2,-3,-7
1523146912806364,23,-6,14,30,13,7,5,29
1523146912806364,35,2,7,-23,-17,-8,-3,13
1523146912817896,28,11,-6,10,12,2,7,9
1523146912817896,-6,-10,-5,1,-8,-6,-6,8
1523146912826918,2,-5,-21,-8,20,16,13,8
1523146912826918,10,9,17,12,27,0,1,22
1523146912841961,19,12,-7,-33,-43,-14,-12,-18
1523146912841961,20,3,2,50,23,-10,-3,11
1523146912843463,0,4,7,-13,-35,1,4,-8
1523146912843463,9,-2,1,-7,0,-7,-4,-6
1523146912864521,22,-5,-10,-11,14,12,1,-1
1523146912864521,18,-1,12,22,-7,4,4,6
1523146912866023,5,4,4,-20,-3,-4,0,-2
1523146912866023,0,-7,-8,-17,7,3,2,7
1523146912878055,13,-2,-5,27,4,-3,-2,2
1523146912878055,-17,2,-1,13,13,2,-1,6
1523146912894600,-4,-1,-5,-20,-25,-5,-9,-37
1523146912894600,30,7,-22,0,-6,-2,3,20
1523146912902117,0,3,16,14,23,2,0,-3
1523146912902117,0,-9,1,-43,10,9,5,1
1523146912903622,5,-3,2,70,31,-7,-5,-2
1523146912903622,20,-2,-7,-67,-63,-11,-7,1
1523146912924678,-23,-1,3,11,14,2,0,-1
1523146912924678,-35,-10,-7,6,-12,-5,-2,-7
1523146912926183,24,-25,-10,-24,37,5,2,0
1523146912926183,39,63,-15,45,37,6,1,0
1523146912939718,18,21,7,11,-52,-9,4,33
1523146912939718,-39,9,-1,-19,7,4,3,-28
1523146912947239,-12,-3,-4,-17,0,-2,-13,-62
1523146912947239,-16,3,7,10,-16,-6,6,78
1523146912961778,21,58,10,-1,19,6,-4,-12
1523146912961778,34,3,-54,-3,50,3,3,7
1523146912963783,14,-4,13,0,-83,-10,1,7
1523146912963783,5,-14,8,17,26,5,-3,-29
1523146912984341,5,-13,-7,-15,-29,-3,1,0
1523146912984341,14,-14,7,-23,-13,0,1,13
1523146912985843,-9,18,5,32,31,2,-1,9
1523146912985843,-2,-16,-3,2,9,1,-1,-8
1523146912998374,4,-25,-15,-4,6,-2,-3,0
1523146912998374,4,6,7,-26,-26,-1,-3,-6
1523146913006898,1,1,-9,-6,11,1,3,12
1523146913006898,-6,-4,15,26,-2,-5,-1,-2
1523146913021987,-4,-12,-17,-14,-16,-2,-2,-12
1523146913021987,7,1,6,17,17,0,-3,2
1523146913023442,-8,5,6,-2,19,3,2,12
1523146913023442,-7,-15,-1,-30,-60,-4,-3,-7
1523146913044504,4,1,5,15,29,2,0,-7
1523146913044504,13,3,12,7,-11,-6,-3,6
1523146913046001,-9,-6,-3,-25,-23,-4,-2,6
1523146913046001,-9,-4,4,12,28,6,-1,-12
1523146913058080,4,-7,-10,-23,-12,1,-2,-3
1523146913058080,5,1,9,10,-10,2,5,7
1523146913067058,-6,1,-3,11,-5,-1,3,3
1523146913067058,-10,-2,-7,-14,-7,-5,-5,-7
1523146913082096,1,-5,9,1,-4,-1,-2,-6
1523146913082096,8,1,-6,-14,-8,-3,0,6
1523146913083603,-11,7,8,10,20,1,-1,-4
1523146913083603,3,-9,-20,-9,-23,-6,-4,-4
1523146913104657,-4,-6,0,-13,-12,-4,-3,1
1523146913104657,-4,0,4,9,-7,-1,-2,-3
1523146913106163,2,1,-2,-2,-11,-4,0,3
1523146913106163,-1,-2,9,-1,16,3,0,-1
1523146913118239,0,-4,-16,-1,10,-1,-1,-1
1523146913118239,-1,-3,0,-4,0,1,0,-3
1523146913127218,-5,1,6,-18,-22,-8,-7,2
1523146913127218,22,0,0,3,-4,-1,1,0
1523146913142260,4,-15,-24,0,17,4,2,-1
1523146913142260,23,6,5,12,14,0,1,1
1523146913144263,3,-1,-6,-9,-17,-1,-2,1
1523146913144263,4,3,7,6,23,4,2,-4
1523146913164317,-7,-4,11,1,-22,-9,-4,-1
1523146913164317,-1,-1,-5,-2,-3,-3,0,0
1523146913165819,0,-9,-21,13,14,5,3,3
1523146913165819,-31,-5,1,5,2,-1,-4,-6
1523146913177852,18,9,11,-5,0,-1,2,2
1523146913177852,-5,-11,-1,1,-8,0,1,-1
1523146913186879,-11,32,2,-12,-1,-4,-5,-6
1523146913186879,2,-4,2,5,7,4,3,3
1523146913201918,-41,39,-2,-6,2,-5,-7,-7
1523146913201918,-22,-31,-1,-3,-11,-4,-5,0
1523146913203422,38,37,-6,1,5,-1,-1,0
1523146913203422,16,-42,-1,2,-1,1,-1,6
1523146913224689,-22,102,20,-7,-4,0,-3,-32
1523146913224689,-41,-90,10,-1,-4,0,5,70
1523146913225981,17,50,3,0,1,-3,0,-27
1523146913225981,-36,57,0,-1,-6,-5,1,58
1523146913238015,72,24,-14,-6,3,2,2,4
1523146913238015,-9,83,3,-7,-11,-11,-11,37
1523146913247036,-15,-26,3,-1,2,-1,-6,-32
1523146913247036,30,-14,0,-10,-10,-6,-8,-7
1523146913261122,25,-16,7,8,11,3,4,-14
1523146913261122,70,22,-47,3,-5,1,0,2
1523146913268148,-17,-20,-1,-7,-6,3,6,12
1523146913268148,-28,6,-4,-13,-10,-12,-10,-6
1523146913284635,-1,-73,-15,4,0,-1,-4,11
1523146913284635,-21,-31,-8,1,0,5,7,-14
1523146913286140,52,63,22,2,0,-5,-5,3
1523146913286140,-11,-35,8,6,4,6,4,-16
1523146913307195,-15,-36,-10,-2,-5,-3,-4,4
1523146913307195,9,23,8,-4,-1,1,0,-23
1523146913308738,-48,2,4,-2,-1,-3,0,13
1523146913308738,-24,-9,5,-3,-2,-1,1,-7
1523146913321282,-6,-4,2,-1,0,-6,-6,19
1523146913321282,11,4,1,8,11,5,-4,-22
1523146913328252,-6,-45,-14,-1,-15,0,3,2
1523146913328252,15,-7,-3,-4,13,-1,1,-6
1523146913344297,-9,-22,2,1,-12,-7,-2,3
1523146913344297,-6,13,-3,-7,-23,-13,-12,-27
1523146913346300,-2,-28,6,10,15,7,4,8
1523146913346300,4,8,-20,-4,1,4,5,-1
1523146913358331,-13,19,18,-5,-16,-10,-2,-6
1523146913358331,4,-6,4,12,12,4,-1,-18
1523146913366857,-8,-20,-4,3,22,24,2,14
1523146913366857,-6,3,-9,-8,-22,-6,-5,-16
1523146913381393,6,-14,-7,-8,15,11,2,-3
1523146913381393,-6,0,19,2,-4,-15,-4,-2
1523146913387956,3,-20,-19,-1,8,-2,2,7
1523146913387956,8,10,8,4,-4,0,0,-5
1523146913404500,-6,-7,-9,5,-4,0,2,0
1523146913404500,-7,0,5,-5,-9,-2,-2,-3
1523146913405964,-1,2,-3,-5,-1,-7,-3,-5
1523146913405964,7,0,13,24,26,3,0,-5
1523146913418493,-3,-5,2,-12,-22,-9,2,8
1523146913418493,0,1,-14,-4,11,8,5,-3
1523146913427015,-15,-14,-2,-14,-6,-4,-3,-6
1523146913427015,9,6,1,0,-14,-6,-5,-4
1523146913449583,-16,-19,2,7,21,5,-5,-6
1523146913449583,22,8,1,2,4,7,6,1
1523146913451079,0,-13,1,-8,-19,-9,-3,-1
1523146913451079,1,6,-2,2,9,-1,-2,1
1523146913464614,1,4,2,7,7,6,3,2
1523146913464614,-3,-5,-2,-17,-15,-2,0,-9
1523146913466120,-11,-7,-3,12,-1,-7,-3,1
1523146913466120,13,1,-5,5,24,6,1,0
1523146913487178,2,3,3,-13,-27,-5,-4,2
1523146913487178,-11,-8,-2,4,3,0,-1,-5
1523146913488728,4,1,-5,1,3,-3,-1,1
1523146913488728,-2,-2,-3,-5,-13,-2,-1,-3
1523146913502215,-5,-3,-5,-6,5,5,0,-2
1523146913502215,-7,-5,4,16,11,-1,0,-2
1523146913503718,3,1,-6,-3,-15,-5,-1,1
1523146913503718,1,0,6,-10,-3,1,-1,-4
1523146913524318,-2,-1,-3,-6,1,-3,0,-2
1523146913524318,1,4,7,-1,-8,-2,-2,-1
1523146913525778,2,-3,-5,5,5,-1,-1,1
1523146913525778,-4,-5,-10,4,18,5,1,-1
1523146913546834,-1,-2,1,5,-24,-4,-1,-4
1523146913546834,-4,-3,-4,-21,-12,-5,-4,-3
1523146913548342,-1,11,0,0,6,0,1,0
1523146913548342,2,-2,0,4,-9,-3,-1,0
1523146913561992,-1,-2,-8,1,17,5,2,1
1523146913561992,0,-1,-13,-4,-10,0,1,-1
1523146913563493,-2,-5,-6,11,18,0,-3,0
1523146913563493,5,3,13,-8,-19,-3,-1,0
1523146913584548,-2,-2,2,19,23,2,3,0
1523146913584548,-5,-4,-6,-21,-22,-4,-2,-4
1523146913586057,1,0,3,-6,-1,-2,-3,-2
1523146913586057,-2,2,-5,1,2,2,-1,-2
1523146913607107,22,-16,5,3,1,-5,-3,0
1523146913607107,-9,-3,-5,20,16,3,2,1
1523146913608613,-3,-7,-3,-24,-12,0,1,0
1523146913608613,-4,-2,2,5,-3,-3,-2,-5
1523146913621196,44,15,-6,-2,4,3,1,6
1523146913621196,-34,-13,2,4,-1,-1,-4,-18
1523146913628164,7,-2,2,0,-6,-3,-1,3
1523146913628164,-3,0,-9,-26,-8,-2,-1,2
1523146913644707,-4,7,6,-3,2,2,3,1
1523146913644707,3,-47,-3,-2,3,-3,-6,-1
1523146913646212,3,11,4,6,-4,-3,-1,-3
1523146913646212,-1,-4,-3,15,0,0,1,-2
1523146913666815,-20,-26,-6,-25,-6,-7,-5,-7
1523146913666815,0,20,-4,-5,-7,-5,-2,-4
1523146913668773,-10,-24,1,-2,-5,-1,-1,1
1523146913668773,-37,-35,-33,11,1,3,0,-3
1523146913681308,0,-3,10,17,4,1,-1,-1
1523146913681308,-4,-16,-7,-3,0,-3,-5,0
1523146913688324,-7,11,26,-12,-5,1,0,5
1523146913688324,30,50,-3,-1,0,-4,-9,-39
1523146913705924,-8,40,-9,-4,-4,-5,4,58
1523146913705924,13,0,19,-7,-1,-1,3,18
1523146913707378,-33,14,1,14,3,-1,-4,-25
1523146913707378,-2,-61,-5,-30,-17,-10,-9,2
1523146913726931,-11,51,16,12,5,4,2,-26
1523146913726931,20,-36,-2,9,6,4,9,-10
1523146913728432,-23,25,0,-3,-6,-2,7,38
1523146913728432,-41,45,26,2,-1,-2,1,-11
1523146913741465,53,-12,2,-11,0,-6,-7,-32
1523146913741465,-79,-44,-48,-4,-3,-6,-9,-12
1523146913747985,-12,-31,1,8,0,1,10,71
1523146913747985,50,15,-7,20,8,10,9,-8
1523146913764585,-122,-44,-23,-46,-10,-7,-6,28
1523146913764585,-12,58,44,30,13,4,-2,-30
1523146913766033,48,-50,-65,2,0,5,-4,-52
1523146913766033,37,-35,7,-7,-7,-6,1,35
1523146913787205,-4,20,-5,11,4,3,1,5
1523146913787205,36,34,6,-9,0,2,1,-4
1523146913788706,7,13,9,-11,-4,-5,-1,24
1523146913788706,-21,12,8,-2,1,3,3,-6
1523146913800747,-25,-42,-17,4,-2,2,-3,-32
1523146913800747,17,11,12,0,-2,-2,-1,8
1523146913809763,20,12,15,8,0,-7,-11,-42
1523146913809763,10,-6,-13,-3,-1,-4,-4,14
1523146913824359,17,0,2,16,2,11,12,11
1523146913824359,7,14,-13,-23,4,0,7,19
1523146913825806,2,18,6,1,-31,-15,-10,-4
1523146913825806,-17,-8,3,16,69,6,2,-19
1523146913846422,13,-2,-7,-22,-30,29,0,6
1523146913846422,4,7,0,11,24,1,3,-5
1523146913846862,-1,-11,9,-14,-33,-4,-5,-18
1523146913846862,-3,-2,-5,-16,-21,-7,-4,16
1523146913868919,23,2,6,3,27,7,7,-21
1523146913868919,9,5,0,10,10,-1,0,11
1523146913869422,-19,-8,-9,-27,-16,-4,-7,-8
1523146913869422,-1,2,3,19,-11,-9,-9,-4
1523146913883959,15,7,-3,-7,-14,-12,-8,2
1523146913883959,4,-2,-8,-2,1,3,-2,3
1523146913884461,-1,5,9,-1,2,-2,5,9
1523146913884461,-7,-1,-3,-15,-5,5,4,-6
1523146913906066,4,-7,3,14,10,-9,-4,-5
1523146913906066,7,1,2,-7,-21,-4,-2,8
1523146913907022,-2,-1,-4,10,16,0,-3,-14
1523146913907022,5,4,7,2,2,6,1,3
1523146913928578,-19,-6,-5,5,-4,-6,-1,-3
1523146913928578,-2,-1,1,-3,-4,-8,-8,-2
1523146913929582,4,4,1,3,20,16,8,2
1523146913929582,-3,1,0,-2,-14,-7,-3,0
1523146913943656,6,1,0,-2,3,-5,-1,4
1523146913943656,-1,-4,-1,-18,-17,0,-5,-5
1523146913944621,-1,-4,-8,29,17,-4,-2,-6
1523146913944621,-2,-2,-2,-6,-1,-3,-1,3
1523146913966227,4,-2,-4,-5,-2,-4,-6,-6
1523146913966227,6,3,3,6,-7,1,-1,-1
1523146913967181,2,-1,-5,-6,6,1,-1,0
1523146913967181,-5,-2,-4,4,4,1,2,1
1523146913988809,10,7,14,8,-4,-7,-2,0
1523146913988809,-17,-10,-1,-4,-1,0,-1,-5
1523146913989745,1,2,2,2,8,-3,-1,2
1523146913989745,-3,-1,-2,-4,-15,-1,-1,-2
1523146914005283,2,-1,-4,-3,6,-2,0,-1
1523146914005283,4,1,6,0,0,0,2,2
1523146914005785,10,-1,6,2,-2,-1,-1,-3
1523146914005785,-5,-1,-10,2,1,3,3,1
1523146914026364,1,-1,-2,9,-4,-4,-3,-4
1523146914026364,3,8,-2,-2,-5,-4,1,-1
1523146914026840,-3,-6,-3,-5,4,0,-1,-1
1523146914026840,0,0,3,-10,-10,2,1,-1
1523146914040423,-3,4,4,8,9,-8,-8,-3
1523146914040423,3,-1,-4,9,-19,1,3,3
1523146914048932,-9,0,4,-1,-5,-1,-1,-6
1523146914048932,1,1,-6,-13,-1,-4,0,1
1523146914063939,-2,-9,-1,-1,1,-4,-3,-2
1523146914063939,-3,-4,-8,-6,6,-1,-4,-4
1523146914064441,0,0,-4,12,10,5,2,1
1523146914064441,-5,1,-6,-17,-24,-6,0,0
1523146914086497,1,2,0,-9,-2,0,1,-2
1523146914086497,3,-6,-16,7,10,0,-1,3
1523146914087000,-17,-5,-4,-21,-21,-9,-6,-4
1523146914087000,-3,-2,5,13,9,3,1,-2
1523146914100536,2,-1,0,-1,0,1,1,3
1523146914100536,0,2,3,-11,-3,-4,-1,-3
1523146914108605,2,2,6,4,10,1,2,0
1523146914108605,-1,-2,3,6,1,0,-2,0
1523146914123599,-4,0,-6,-24,-16,-4,2,-1
1523146914123599,0,1,0,2,9,1,0,0
1523146914124600,23,6,-1,0,3,1,-1,0
1523146914124600,-8,-4,-5,-5,-4,-5,-3,-1
1523146914146159,1,0,4,16,8,0,-1,-1
1523146914146159,-2,0,-5,-6,-6,-1,-4,1
1523146914147161,4,1,3,0,0,3,3,0
1523146914147161,4,-1,0,11,3,-1,-2,1
1523146914160696,5,2,-1,0,-4,-1,0,-1
1523146914160696,-3,-1,6,4,0,-4,-5,-5
1523146914168752,-11,-1,1,-10,-11,-3,2,-2
1523146914168752,1,-7,-17,0,4,2,1,1
1523146914183758,17,37,3,8,1,-1,0,1
1523146914183758,-22,-21,-6,-22,-5,-3,-2,-5
1523146914184807,-31,43,-5,2,5,0,-2,-3
1523146914184807,31,64,25,-1,1,-1,-3,0
1523146914206329,3,-30,-11,-2,-4,-1,1,8
1523146914206329,-6,-7,3,9,4,0,3,1
1523146914207106,-33,9,-2,7,6,5,1,-42
1523146914207106,26,0,-9,-13,-7,-4,5,101
1523146914220864,44,-20,-22,3,1,-4,-3,-15
1523146914220864,-59,-19,-1,1,-4,-7,-11,-5
1523146914228456,52,8,4,-4,2,-2,-8,-45
1523146914228456,-25,-109,-50,-9,-7,-5,-1,2
1523146914243494,-61,56,23,-2,-5,1,1,36
1523146914243494,65,31,12,-1,-4,-4,-1,-18
1523146914244498,3,11,3,2,3,1,6,36
1523146914244498,8,-43,0,-4,-1,2,2,2
1523146914266056,47,23,-1,-4,0,-3,-4,19
1523146914266056,-7,-62,-17,-5,-8,-7,-13,-59
1523146914267059,-33,-6,10,-1,5,5,6,30
1523146914267059,49,64,38,10,14,12,4,-36
1523146914288863,-19,-18,-2,11,-2,0,3,6
1523146914288863,16,26,-14,-10,3,0,5,27
1523146914289619,42,0,6,11,5,8,9,34
1523146914289619,-70,-19,-3,-2,-4,-4,-5,-28
1523146914303944,-40,-21,-4,-5,-2,-2,-10,-56
1523146914303944,15,-1,6,2,1,-1,-3,14
1523146914304446,0,-23,-17,-18,-14,-15,-8,-2
1523146914304446,14,32,23,34,13,7,5,-8
1523146914326295,-2,-9,17,-9,-22,-2,0,6
1523146914326295,-6,26,19,10,4,3,8,3
1523146914326798,6,-12,-10,-10,-1,0,-2,7
1523146914326798,-3,11,10,4,23,-9,-9,-5
1523146914349038,3,-16,-6,-2,-39,-11,-4,-11
1523146914349038,6,-3,-2,-4,36,20,6,14
1523146914349356,0,0,-4,8,-8,-3,0,-5
1523146914349356,-13,-11,2,-24,17,16,-3,-17
1523146914363896,-5,-5,-2,26,19,7,0,-10
1523146914363896,3,14,3,-5,-10,-14,-2,5
1523146914364398,-10,-16,-14,-11,-13,4,1,-2
1523146914364398,1,12,7,2,-4,-12,-6,-11
1523146914386532,8,1,-11,0,3,0,1,5
1523146914386532,-7,2,1,1,-16,1,1,8
1523146914386957,1,-13,-5,0,19,-3,-7,-9
1523146914386957,-3,-6,-10,-13,-22,-7,-2,-2
1523146914408711,3,-2,-1,-8,-1,0,0,-5
1523146914408711,-10,-3,-4,-3,-12,-4,-3,-4
1523146914409517,2,-8,4,-2,-2,-4,-5,-6
1523146914409517,6,8,-4,3,4,0,5,-2
1523146914423553,5,-1,4,-7,-1,-3,-1,3
1523146914423553,9,10,1,2,1,5,0,1
1523146914424557,-11,-4,-1,4,-4,-2,-4,-1
1523146914424557,-10,-15,-10,-6,-7,-6,-7,-6
1523146914446310,3,15,13,0,-1,-1,-1,-5
1523146914446310,1,-7,-5,-2,0,-4,-2,3
1523146914447317,-2,-5,-1,-7,-6,-3,-2,-2
1523146914447317,14,14,0,3,-6,-3,-1,-3
1523146914469059,-3,-9,-13,-12,5,1,3,-1
1523146914469059,-5,-1,-2,3,-5,-1,0,-3
1523146914469399,-2,0,-4,0,2,-1,-2,-3
1523146914469399,-5,-5,1,1,-4,-2,0,-2
1523146914483675,-2,-7,-15,-14,-1,-2,-5,0
1523146914483675,-2,5,3,2,0,2,2,1
1523146914484845,0,-4,2,3,6,-4,-3,-2
1523146914484845,1,5,8,0,-12,-4,-3,-2
1523146914506424,-4,-9,-8,-21,2,3,0,-1
1523146914506424,-3,1,7,12,5,-3,-3,-1
1523146914507239,-3,-1,-2,-7,-3,-2,-1,-1
1523146914507239,0,1,-2,0,-9,1,-1,3
1523146914528796,-8,-3,1,3,11,1,-1,-7
1523146914528796,-1,-4,-3,-2,-7,-2,-2,-2
1523146914529828,-5,-2,-1,-22,-2,-2,-3,2
1523146914529828,0,-4,-15,13,0,-2,0,1
1523146914543835,-3,-2,-7,1,4,1,0,3
1523146914543835,-40,-11,-9,0,-4,1,-1,-7
1523146914544337,5,2,17,15,1,-4,-1,-2
1523146914544337,3,-2,-25,-23,-4,-2,-2,-4
1523146914566256,-2,-3,-2,0,-1,1,0,4
1523146914566256,7,1,3,6,9,3,-1,2
1523146914567101,3,-1,-5,-5,-6,-1,-1,0
1523146914567101,-17,-2,12,10,3,0,0,-4
1523146914588817,10,-2,-2,6,14,-1,-1,0
1523146914588817,5,-1,-9,-26,-9,0,0,1
1523146914589661,0,-2,1,13,3,3,1,1
1523146914589661,5,-2,5,-3,-1,-1,-2,1
1523146914604020,-3,-3,0,6,2,-2,-1,-3
1523146914604020,4,1,6,-11,-12,-2,1,0
1523146914604381,0,0,0,12,6,-7,-2,-1
1523146914604381,1,1,0,8,6,1,0,-2
1523146914626440,-1,-4,-4,-21,-3,-3,-2,-2
1523146914626440,-5,0,-8,-6,-6,0,1,0
1523146914626942,5,-3,-1,-6,-8,-5,-3,-2
1523146914626942,2,-2,-4,19,17,2,0,-1
1523146914648869,4,2,2,-3,-22,-1,-3,1
1523146914648869,9,-4,9,10,11,4,6,0
1523146914649821,-26,-33,-12,5,-6,-1,-2,-3
1523146914649821,6,0,-5,-30,-8,-5,-1,-1
1523146914663996,8,0,-5,15,5,-1,-1,1
1523146914663996,7,-1,3,3,7,-6,-4,2
1523146914664469,-4,-1,-20,3,-11,6,2,0
1523146914664469,-6,-1,4,3,3,0,-2,-2
1523146914686184,-4,-7,4,5,4,1,1,-1
1523146914686184,3,4,-10,3,-3,-1,0,0
1523146914687030,6,5,-9,-14,8,-1,0,-1
1523146914687030,-5,1,-4,2,-6,-1,0,-2
1523146914709588,22,26,0,-6,-10,-5,-3,-1
1523146914709588,36,37,6,10,3,0,1,5
1523146914710091,1,-45,-3,-9,-3,1,4,2
1523146914710091,88,-52,-6,-5,-10,-2,0,5
1523146914723626,-63,-35,20,-12,-2,-4,-8,-22
1523146914723626,24,69,19,-10,-9,-7,-5,4
1523146914724630,-12,-38,3,8,11,11,9,-5
1523146914724630,2,67,22,-4,-6,-4,-2,21
1523146914746187,37,88,15,-2,-2,-7,-5,-30
1523146914746187,-15,-3,50,6,-1,1,2,25
1523146914747294,28,38,-49,22,16,4,-3,-21
1523146914747294,-57,-110,-44,-20,-19,-6,-3,2
1523146914769748,69,57,25,15,8,7,8,34
1523146914769748,-52,14,-33,-23,-13,-10,-12,-6
1523146914770250,14,-7,22,2,-7,-3,-5,-5
1523146914770250,-33,-73,-4,-8,-2,-4,-3,-4
1523146914783285,2,-83,-50,4,3,0,0,-4
1523146914783285,0,-41,-4,-2,8,6,7,-4
1523146914791466,-18,16,2,-14,0,-2,4,20
1523146914791466,-12,25,5,12,0,1,-1,-14
1523146914806505,-41,-37,19,10,3,1,2,6
1523146914806505,-3,-17,6,10,3,-2,-4,-8
1523146914806849,-1,5,1,-25,-6,-1,-4,-6
1523146914806849,18,33,10,-13,-7,-4,1,-3
1523146914836928,-20,3,25,-7,-5,-6,-5,-3
1523146914836928,4,-9,-1,47,12,3,1,-18
1523146914837430,4,26,19,-29,-11,-22,-6,0
1523146914837430,-2,15,-38,23,-1,17,5,-3
1523146914843637,-10,-11,-9,-6,16,18,9,11
1523146914843637,-8,-17,-14,-21,-33,-16,-5,-3
1523146914844642,-13,-10,-12,11,33,7,-1,2
1523146914844642,3,22,18,-4,-3,-1,-4,-6
1523146914866198,-3,-4,-10,-18,-6,6,5,2
1523146914866198,2,-8,-3,11,15,1,-1,-4
1523146914866700,5,12,17,13,-2,-4,-3,-4
1523146914866700,-2,16,7,-5,3,-14,-5,0
1523146914888923,-5,1,-13,11,-1,-4,-6,-6
1523146914888923,1,-15,-17,-23,-5,0,0,1
1523146914889260,9,4,10,1,-9,2,2,6
1523146914889260,-16,10,16,17,19,3,3,-3
1523146914903570,-11,-12,4,-3,-10,-10,-9,-12
1523146914903570,4,-8,-9,4,9,9,6,-1
1523146914904575,-7,-1,-7,5,-12,-6,-6,2
1523146914904575,4,20,-3,-10,0,3,-3,-4
1523146914926338,20,-83,-22,-6,-4,-8,-2,-3
1523146914926338,-26,24,-1,-11,-6,-4,-7,-4
1523146914926840,2,8,-1,-7,-7,-1,2,4
1523146914926840,-9,-2,13,-14,-11,-3,-5,-16
1523146914949035,15,22,-2,18,10,2,2,4
1523146914949035,7,-14,-5,3,4,2,2,-1
1523146914949401,-10,-17,1,-7,-9,-1,1,-3
1523146914949401,-6,8,5,-9,-1,1,0,-1
1523146914963543,-33,-28,-8,12,1,-1,0,-1
1523146914963543,12,17,-16,6,2,3,2,1
1523146914964440,-4,16,3,-12,-1,-3,-3,-2
1523146914964440,4,-8,-11,14,-2,-4,1,5
1523146914986355,-4,12,2,-3,-7,-1,-2,-1
1523146914986355,1,-17,-9,0,2,3,2,3
1523146914987349,-1,-1,5,8,2,-3,-3,-4
1523146914987349,1,1,-5,0,1,3,2,3
1523146915009025,-4,11,2,12,5,-3,-1,0
1523146915009025,-5,-6,-7,-21,-4,-3,-3,-4
1523146915009467,1,3,2,-3,-17,-6,-5,-3
1523146915009467,2,-4,0,9,16,9,2,3
1523146915023162,-3,20,-7,-24,-11,2,3,2
1523146915023162,-1,-7,4,1,1,-1,-1,-1
1523146915031525,-4,-6,0,5,3,0,-3,-2
1523146915031525,2,0,-1,-6,-7,-4,-2,0
1523146915046565,-2,7,3,-1,-1,-3,-2,0
1523146915046565,0,-3,8,3,5,-1,-2,-2
1523146915047068,-5,-4,-3,-4,-4,-1,1,1
1523146915047068,-2,3,10,6,-12,-4,0,1
1523146915068783,1,9,5,-3,6,-2,-3,-2
1523146915068783,-2,-6,-2,-8,-8,0,0,0
1523146915069628,0,2,-10,-14,1,2,0,-1
1523146915069628,1,3,7,17,4,-3,-3,-1
1523146915083321,-3,1,-4,0,-6,-2,-4,-1
1523146915083321,2,-4,3,-3,0,0,-2,-4
1523146915098863,1,-2,-5,-1,-1,0,2,0
1523146915098863,-3,4,6,-13,-5,-5,-5,-3
1523146915114748,1,1,-1,-8,-3,0,0,0
1523146915114748,-3,0,-11,9,11,-3,-3,-5
1523146915115250,2,5,30,-6,-19,-2,-1,-2
1523146915115250,-15,-7,0,8,2,1,1,0
1523146915129286,1,8,-3,4,4,0,2,1
1523146915129286,-2,-2,0,-3,9,-3,-1,1
1523146915130289,-3,0,2,6,-17,-5,-2,-1
1523146915130289,3,-2,-11,-8,0,-2,-1,-1
1523146915142822,0,-8,-10,10,5,4,2,2
1523146915142822,-3,-7,4,-5,-6,1,0,0
1523146915151347,1,1,-6,6,6,-3,-2,-1
1523146915151347,1,-1,-7,-3,0,-3,-1,0
1523146915166478,-10,-1,2,-1,-4,-2,-1,-3
1523146915166478,15,1,-5,-1,-6,-2,-2,1
1523146915166888,-21,-9,-3,3,7,1,2,0
1523146915166888,9,19,1,-6,-4,-1,-4,-4
1523146915189604,3,5,-1,-1,3,2,0,-2
1523146915189604,-25,-68,-15,-3,-6,0,0,-2
1523146915190449,-1,12,4,12,10,4,-1,-1
1523146915190449,-1,-34,-9,5,4,4,5,6
1523146915203142,-28,51,13,-19,-13,-13,-10,-14
1523146915203142,77,33,10,-1,-5,0,1,1
1523146915211505,4,-69,-30,-4,-2,-6,-9,-15
1523146915211505,-58,54,44,-7,-5,-3,3,27
1523146915226043,-10,38,8,-8,-1,2,2,0
1523146915226043,-48,26,37,36,-2,-4,-4,-6
1523146915227047,16,-14,-11,-26,-4,-8,-11,-50
1523146915227047,54,3,-46,16,5,2,6,19
1523146915248763,-33,-69,-33,-30,-22,-16,-8,35
1523146915248763,-15,18,-21,-28,-5,-1,-5,-16
1523146915249607,27,4,-20,22,15,7,5,-7
1523146915249607,-6,33,70,-28,-17,-11,-10,-14
1523146915272225,21,32,-6,9,5,0,-2,-7
1523146915272225,-6,-4,-17,-31,-6,2,4,4
1523146915272668,-23,61,27,48,10,0,-4,13
1523146915272668,80,-55,-79,21,17,13,9,5
1523146915286362,-37,-5,30,8,4,-2,3,11
1523146915286362,-36,-5,13,-18,-15,-12,-20,-39
1523146915286706,16,1,-14,11,3,5,3,12
1523146915286706,-10,9,-9,-13,-1,0,-2,0
1523146915308873,55,0,-6,14,4,5,4,-6
1523146915308873,4,-13,-19,15,6,3,7,26
1523146915309265,-17,0,13,-2,0,-1,1,5
1523146915309265,-7,-20,-15,-21,-23,-5,-4,-17
1523146915322966,11,-5,-20,-9,-3,2,0,3
1523146915322966,6,2,4,3,4,-3,-4,-5
1523146915331482,-3,4,16,1,13,5,8,10
1523146915331482,-11,13,11,-10,-13,-9,-4,-8
1523146915346520,5,-6,13,4,3,3,0,-8
1523146915346520,6,5,-5,6,-16,3,0,7
1523146915346865,12,3,-11,-2,-49,-30,-10,0
1523146915346865,-12,-13,11,22,69,38,7,0
1523146915369023,-1,-3,0,22,-5,-8,-3,-11
1523146915369023,13,-4,3,2,15,1,1,3
1523146915369426,-2,-1,-11,-29,-27,5,-1,10
1523146915369426,-15,-1,4,-4,-16,-18,-4,-12
1523146915392488,6,-4,1,-13,-4,2,3,1
1523146915392488,1,8,-8,-3,6,3,1,0
1523146915392488,-6,-3,-3,6,7,-1,3,5
1523146915392488,0,4,6,8,-7,-12,-8,-7
1523146915406495,9,-1,4,-13,-2,11,3,-6
1523146915406495,7,-1,-19,-4,-3,-11,-2,6
1523146915406954,-5,-3,-6,-21,-2,1,-2,-3
1523146915406954,-3,-3,13,-4,-5,0,-6,-4
1523146915428671,2,-3,-9,7,15,8,6,2
1523146915428671,-3,-1,2,-2,6,-3,1,-1
1523146915429515,-40,-15,-1,-24,-7,-1,-3,-7
1523146915429515,-5,-3,-7,12,3,-1,0,-3
1523146915452073,4,-2,1,-4,-11,-9,-5,-6
1523146915452073,-7,2,6,-5,1,4,0,2
1523146915452576,6,-3,2,2,16,6,3,1
1523146915452576,-2,-14,-28,1,-7,-3,0,1
1523146915466269,-3,-2,2,3,5,-1,-2,-1
1523146915466269,8,-8,-1,7,-7,1,0,1
1523146915467115,9,7,11,13,14,-3,-1,3
1523146915467115,-3,3,7,-1,-9,-2,-1,-3
1523146915488836,5,1,-4,-14,-1,0,0,-1
1523146915488836,2,-4,-3,0,1,-1,-1,1
1523146915489675,3,3,1,-5,-3,-1,0,-2
1523146915489675,-7,0,-4,-4,-1,-3,-1,-2
1523146915511896,-1,-4,-1,-1,2,-1,-3,-3
1523146915511896,-2,1,2,-7,-3,1,1,3
1523146915512736,1,-2,3,-1,-1,0,0,0
1523146915512736,2,-4,-10,-6,-1,-1,0,-1
1523146915525977,1,-2,-1,-3,-3,-1,-2,0
1523146915525977,-1,0,4,11,3,0,0,-1
1523146915526979,4,0,-2,-8,0,2,1,2
1523146915526979,-2,0,10,3,1,0,0,-1
1523146915548700,-11,-6,-1,7,-5,-5,-3,-3
1523146915548700,-8,10,7,7,-1,-5,-3,-4
1523146915549540,-15,-13,-12,7,4,5,3,0
1523146915549540,3,4,7,4,-3,2,1,0
1523146915572206,-16,-8,-1,8,0,-5,-6,-3
1523146915572206,-1,-8,-10,-7,-6,1,1,0
1523146915572600,6,1,-3,-4,0,-2,-2,-1
1523146915572600,-5,2,21,4,-1,-2,-2,-3
1523146915586292,7,6,6,14,9,1,0,-1
1523146915586292,3,0,12,-8,-14,-2,1,1
1523146915587171,3,3,2,-2,-1,-4,-2,2
1523146915587171,-1,-3,-7,-8,-1,1,-2,-4
1523146915608696,6,2,-2,-9,4,2,3,0
1523146915608696,0,0,7,24,-18,-5,-3,-2
1523146915609699,4,3,0,3,0,-4,0,1
1523146915609699,-2,-9,-8,0,6,2,2,1
1523146915631916,2,1,2,-12,-14,-6,-4,-2
1523146915631916,0,1,6,-4,19,2,-1,0
1523146915632811,1,5,7,-3,-1,0,0,0
1523146915632811,0,2,-7,-8,-6,-2,-3,-2
1523146915654318,1,-3,-5,3,8,2,1,1
1523146915654318,22,-1,-3,-1,6,2,1,1
1523146915655321,-6,45,13,-5,-6,-6,-5,-4
1523146915655321,-17,-61,-4,2,0,-4,-3,-4
1523146915669486,5,18,8,2,2,2,3,0
1523146915669486,14,-25,-4,-14,-7,-4,-5,-1
1523146915669858,0,9,-7,4,5,4,3,-1
1523146915669858,-26,-5,-44,-9,-13,-11,-7,3
1523146915691952,-22,30,11,-15,-8,-8,-9,-20
1523146915691952,44,-18,-1,2,6,6,1,3
1523146915692922,-30,-71,-29,-10,-7,-5,-3,10
1523146915692922,28,106,22,2,5,5,5,14
1523146915706490,-24,-36,29,-9,-8,-3,-7,-46
1523146915706490,-27,-23,-29,16,8,3,4,13
1523146915706958,-69,-14,19,-7,-4,-4,-6,-1
1523146915706958,-35,-15,14,-4,-8,-6,-3,14
1523146915728527,57,-18,-28,18,6,1,1,37
1523146915728527,7,32,44,7,1,3,0,-40
1523146915729518,-22,-6,-26,-15,-1,1,-1,-13
1523146915729518,8,-39,1,5,4,-1,-4,-37
1523146915752186,-35,-32,-39,3,-6,-8,-6,-19
1523146915752186,1,-27,3,9,3,1,2,43
1523146915752579,31,-8,-6,-5,6,3,2,-4
1523146915752579,44,14,20,-12,-6,-3,-5,-14
1523146915765853,3,-6,-16,0,0,2,1,-7
1523146915765853,-68,-13,-17,17,8,-2,-1,-11
1523146915773845,5,15,10,-17,-9,-2,-5,-7
1523146915773845,7,-6,-26,-16,5,4,3,-1
1523146915789001,9,28,12,3,13,1,1,19
1523146915789001,-26,23,-14,-13,-7,-2,0,0
1523146915789386,39,7,31,39,10,2,3,11
1523146915789386,7,16,-16,22,6,3,2,3
1523146915812104,-7,-10,2,16,14,6,2,9
1523146915812104,5,-3,5,-10,3,-3,-4,-14
1523146915813022,21,-1,1,0,-7,-2,2,-5
1523146915813022,2,-4,15,-13,-8,-6,-3,-2
1523146915825982,6,4,3,15,-4,4,4,7
1523146915825982,2,10,-8,7,12,0,-4,-2
1523146915826986,2,7,-6,-4,1,2,2,3
1523146915826986,1,9,22,12,-12,-2,2,6
1523146915849044,1,-9,-38,-22,-4,-4,-2,7
1523146915849044,-1,11,23,-28,-3,2,5,-2
1523146915849545,4,-4,7,19,12,1,-1,-4
1523146915849545,-2,-9,-11,17,-6,-1,-1,6
1523146915872107,-4,0,13,0,-3,-8,-5,-9
1523146915872107,15,6,4,-9,-1,-4,-4,1
1523146915872608,0,6,-7,-14,-2,-1,0,-5
1523146915872608,-5,-5,-19,3,-5,-2,-5,-5
1523146915886385,5,-1,-5,9,5,1,2,3
1523146915886385,-2,0,-16,12,0,-2,0,1
1523146915887145,3,4,-6,-18,-10,3,2,4
1523146915887145,-6,-3,10,-11,-5,-5,-3,-4
1523146915908702,3,-4,-17,-3,-7,0,-1,0
1523146915908702,3,3,19,8,-4,-4,0,5
1523146915916466,0,-3,-3,6,-2,-2,-4,-5
1523146915916466,2,0,4,-4,6,2,1,1
1523146915932264,6,3,10,-2,-8,0,0,0
1523146915932264,-16,-3,-12,-16,-9,-1,-2,-5
1523146915932767,22,9,-5,9,5,-1,2,5
1523146915932767,4,6,13,-2,11,3,1,0
1523146915946380,-6,0,3,-11,-24,-5,-4,-4
1523146915946380,0,-1,-14,1,-5,0,0,-4
1523146915953947,-3,-4,3,-17,1,-3,-1,-1
1523146915953947,-3,-5,3,-8,9,0,-2,1
1523146915968885,1,1,2,9,3,0,0,-1
1523146915968885,5,1,8,-2,-2,0,0,-1
1523146915969647,-3,-1,-4,-6,-19,-4,-4,2
1523146915969647,-4,-5,-13,-15,-2,-2,-1,0
1523146915991735,-3,-2,2,9,13,6,3,-1
1523146915991735,-2,-1,-7,5,-12,-4,-2,-1
1523146915992708,-4,-1,2,6,10,-2,0,-1
1523146915992708,-7,-4,-10,4,-3,-1,0,-5
1523146916005741,2,4,10,-5,7,-1,0,1
1523146916005741,1,0,2,-11,-20,-4,-1,-1
1523146916013947,1,-6,-19,-4,0,2,0,-2
1523146916013947,-1,-2,-11,9,-7,-2,0,1
1523146916029041,-2,6,0,-19,7,-4,-3,-2
1523146916029041,-1,1,-1,1,-4,-2,-2,-3
1523146916029807,-2,3,13,3,-4,-3,-3,1
1523146916029807,-4,-3,-10,-21,-6,-2,-1,0
1523146916052102,2,1,5,8,2,0,0,0
1523146916052102,-3,-3,-12,-7,19,4,0,1
1523146916052366,1,3,13,2,-29,-5,-2,-1
1523146916052366,0,-1,6,6,15,2,-1,0
1523146916065464,-2,-2,0,-2,-4,1,0,1
1523146916065464,7,3,4,-1,-3,-1,1,2
1523146916073923,-3,-5,-18,-6,8,0,-1,-4
1523146916073923,-2,-1,-2,-3,-4,-1,-1,-2
1523146916088706,-4,-6,-3,1,-4,-1,-2,1
1523146916088706,-4,-6,-9,7,3,-1,-2,-1
1523146916089465,-2,0,5,3,4,-1,-1,-3
1523146916089465,1,-4,-12,5,-1,-1,-1,-1
1523146916112025,-2,2,6,-15,-14,-4,-1,-3
1523146916112025,-1,1,2,7,1,-4,-3,-2
1523146916113026,-3,-2,12,19,3,-1,-1,1
1523146916113026,0,0,3,-9,-3,-1,0,-1
1523146916125561,-25,-8,3,-2,-5,0,-1,-3
1523146916125561,21,-2,-4,-4,0,0,-2,-1
1523146916133581,-3,-2,-4,5,6,1,0,-1
1523146916133581,-23,9,3,1,-3,-2,-1,-5
1523146916148622,12,8,11,5,0,0,-2,-1
1523146916148622,-48,6,1,-25,-11,-7,-6,-7
1523146916149624,-3,-31,-8,-6,2,-4,-6,-4
1523146916149624,-3,-25,15,4,2,2,4,4
1523146916171925,-49,-1,-13,-2,-6,-8,-6,-2
1523146916171925,67,-14,1,-4,-5,-2,1,12
1523146916172687,-57,1,18,0,4,4,-3,-54
1523146916172687,67,52,10,13,5,7,14,66
1523146916185720,-10,-78,-31,7,-1,-1,-5,-31
1523146916185720,62,27,4,-6,-7,-7,-3,12
1523146916193742,38,-89,-36,9,1,-3,-8,-8
1523146916193742,27,0,-6,-7,-1,-1,-6,-33
1523146916208783,-35,24,31,-6,2,-4,1,26
1523146916208783,-2,4,29,-18,-8,-6,-13,-54
1523146916209284,23,-12,19,14,2,2,6,68
1523146916209284,-25,-49,-27,-5,1,1,0,-6
1523146916231843,32,-21,0,2,-4,-3,-6,-9
1523146916231843,-49,-2,3,-12,-1,0,-2,-23
1523146916232930,-10,24,-15,-15,1,2,1,16
1523146916232930,-27,2,20,12,-3,-3,-4,-9
1523146916245466,37,36,28,13,-1,-2,1,3
1523146916245466,-25,3,-5,1,-2,-1,2,17
1523146916253728,-54,-26,-29,10,3,-2,-1,-13
1523146916253728,-1,-2,-20,-36,-8,-5,-5,-1
1523146916268763,31,18,-11,12,1,0,-1,-6
1523146916268763,-38,-4,-17,13,7,5,3,10
1523146916269530,26,35,3,-6,-4,-4,-6,-14
1523146916269530,-27,8,5,-1,-7,-9,-8,-14
1523146916291588,-9,1,24,-6,5,3,4,7
1523146916291588,1,-10,-15,12,7,-2,2,16
1523146916292592,3,23,9,4,4,5,6,8
1523146916292592,6,0,5,3,-11,1,-3,-6
1523146916314148,7,10,6,-13,-4,2,4,2
1523146916314148,8,-5,-6,17,3,3,4,6
1523146916315151,13,18,-5,-33,-6,-11,-7,-7
1523146916315151,-6,3,-5,15,15,-2,-4,-9
1523146916328688,4,3,-18,7,1,-2,-1,6
1523146916328688,-11,-6,-3,-3,-1,10,2,-8
1523146916329862,-6,9,6,2,1,2,3,-1
1523146916329862,-4,-4,-5,-22,-20,-12,-5,1
1523146916352250,-4,2,-9,20,35,0,-2,-3
1523146916352250,6,-2,-4,-15,-22,-2,4,4
1523146916352752,4,11,9,-1,22,19,0,-3
1523146916352752,1,4,9,-4,0,1,2,2
1523146916374545,1,0,-12,-9,-13,-2,2,-3
1523146916374545,-3,-1,-6,-2,1,-7,-4,-1
1523146916375312,6,7,0,9,1,-2,1,3
1523146916375312,-8,1,4,-10,-12,-2,-4,-4
1523146916389064,-7,-4,-9,5,0,0,-1,0
1523146916389064,-3,-2,-3,-8,3,0,0,4
1523146916389349,2,5,10,7,1,-8,0,1
1523146916389349,-5,-5,-14,-5,-3,-2,-1,-7
1523146916412150,-1,1,2,-14,-12,-4,-4,-4
1523146916412150,1,-1,0,6,-5,1,0,0
1523146916413039,2,2,-8,-5,3,5,1,-3
1523146916413039,0,11,25,7,4,-2,-2,-1
1523146916434705,-13,-10,-8,-9,-6,0,1,-1
1523146916434705,1,-3,-3,2,-1,-1,-1,-3
1523146916434971,0,5,17,-9,-9,-6,0,0
1523146916434971,-2,-2,17,8,4,-2,-5,0
1523146916449068,1,1,6,-9,-8,1,0,0
1523146916449068,-2,-1,-2,-2,7,-1,-2,-3
1523146916449509,-1,-4,-37,-9,-10,-5,0,-2
1523146916449509,0,-2,-10,1,1,2,-1,1
1523146916472279,-4,1,4,4,-4,-2,-3,-2
1523146916472279,-2,-3,17,26,4,-4,-4,-3
1523146916472570,-1,-1,-13,-27,-15,-4,-2,-4
1523146916472570,0,-1,-4,-13,4,1,1,-2
1523146916494753,-2,-2,2,5,-7,1,-1,0
1523146916494753,-3,1,9,6,6,-1,0,1
1523146916495130,-1,-1,-9,-10,-6,0,0,1
1523146916495130,-2,-6,-7,8,-1,-2,-2,0
1523146916508667,2,1,0,-16,1,2,-1,0
1523146916508667,-3,-2,-16,11,1,0,-1,-2
1523146916509864,0,3,16,17,1,-3,-4,-1
1523146916509864,3,-4,-23,1,0,2,3,1
1523146916532013,5,0,-7,0,4,0,-1,-3
1523146916532013,0,1,8,-11,-8,-1,-1,-1
1523146916532512,-2,0,-3,3,0,-3,-3,-2
1523146916532512,-1,-1,1,7,1,-2,-2,-1
1523146916554754,-2,-7,-8,-12,-2,1,-1,-1
1523146916554754,1,1,-1,-10,0,-2,-1,0
1523146916556075,-1,2,11,-1,-5,-1,-2,-3
1523146916556075,-3,3,9,-1,1,-2,-1,0
1523146916577173,-1,-2,-12,3,0,-1,0,0
1523146916577173,-19,-4,-8,-12,-4,-2,-4,-3
1523146916577632,0,0,7,1,5,-1,-2,2
1523146916577632,-1,-1,8,6,0,0,1,0
1523146916591669,11,2,-2,-8,0,2,5,1
1523146916591669,-3,-2,0,3,-1,-2,-2,-4
1523146916592673,-2,4,9,1,0,-1,-1,-1
1523146916592673,-2,-4,-35,14,-7,-1,-2,-3
1523146916614768,4,3,-1,-3,-2,-3,-1,-1
1523146916614768,5,-3,-12,3,-2,-3,-1,-1
1523146916615231,0,-3,-3,5,1,1,1,0
1523146916615231,-2,0,-3,-25,5,1,1,0
1523146916628965,-4,1,26,11,-12,-4,-4,-2
1523146916628965,5,0,2,-10,1,0,1,-1
1523146916629811,-5,0,-18,-12,-5,-2,-1,-2
1523146916629811,1,3,8,3,1,-1,-1,-1
1523146916652022,-9,-5,-15,2,3,-2,-1,-1
1523146916652022,-4,-7,8,-9,1,1,-1,-2
1523146916653333,4,3,13,18,1,-3,-2,0
1523146916653333,5,-2,-1,-16,-6,2,-1,-2
1523146916674389,-3,-25,-32,14,15,3,3,5
1523146916674389,-4,-1,1,-12,1,2,1,-1
1523146916675893,1,-6,5,6,-2,-5,-5,-4
1523146916675893,-15,-20,-16,3,0,0,0,-6
1523146916688088,5,-62,15,-25,-11,-10,-8,-1
1523146916688088,-42,10,1,1,0,-1,1,-6
1523146916696949,-39,-33,-7,10,-1,0,-4,-33
1523146916696949,66,-36,-20,4,-8,-9,-1,75
1523146916712146,-25,17,6,-22,-6,-4,-8,-49
1523146916712146,14,-52,-30,18,9,7,10,8
1523146916713493,-58,18,25,-11,-12,-7,1,83
1523146916713493,-54,4,-7,1,3,-2,-7,-49
1523146916734750,-23,-48,-29,14,12,11,2,-53
1523146916734750,-11,34,14,6,-7,-9,-6,51
1523146916736349,74,-59,-52,-4,1,5,-5,-60
1523146916736349,32,53,69,22,-10,-10,1,66
1523146916748304,-26,49,14,4,-2,-3,-2,-9
1523146916748304,90,48,9,2,5,2,1,-25
1523146916756810,-4,-15,-6,-6,-3,-1,3,1
1523146916756810,10,8,-19,0,7,8,4,-1
1523146916779529,61,22,-16,-1,-5,-2,6,48
1523146916779529,-14,13,-41,-36,-4,-1,-4,-3
1523146916780874,-3,35,1,-14,-5,-2,-4,-7
1523146916780874,-8,-15,-8,-2,5,2,-2,-38
1523146916794411,-7,14,-13,-18,-3,-1,5,43
1523146916794411,-11,-36,10,42,-3,-3,-2,-19
1523146916795916,-6,-3,19,-14,4,-4,-1,-2
1523146916795916,-23,11,-2,-10,-3,2,1,-33
1523146916807973,6,-8,26,7,5,0,-3,2
1523146916807973,-14,11,14,8,-3,-3,-1,-2
1523146916816969,24,12,4,4,9,-1,-6,1
1523146916816969,5,0,23,19,-11,2,6,-4
1523146916832168,-1,18,-9,-3,8,-2,1,-10
1523146916832168,4,-16,-12,-14,0,0,0,4
1523146916833514,-12,15,4,30,-1,-3,-3,-11
1523146916833514,-4,-17,-17,-38,-13,-22,-6,-8
1523146916854679,2,-6,2,13,56,38,6,8
1523146916854679,-8,-2,7,-5,-8,-5,-5,-5
1523146916856233,4,-3,4,-18,24,4,6,11
1523146916856233,-11,-1,-7,0,-55,0,-3,-7
1523146916868264,7,7,1,-6,-16,-18,-8,2
1523146916868264,4,-7,2,5,6,0,-3,-3
1523146916877131,2,10,9,-7,-8,-5,-1,-2
1523146916877131,-5,-1,-10,-11,13,2,2,-3
1523146916892170,-5,4,4,11,-8,-7,-2,-5
1523146916892170,-2,-10,-6,-23,-2,6,1,-1
1523146916893674,-5,-5,-3,6,-21,-5,0,1
1523146916893674,-3,-1,2,5,16,8,-1,-3
1523146916914387,0,-5,-10,-19,-22,-6,-1,3
1523146916914387,-5,-2,-9,-1,10,-5,-2,-5
1523146916916323,2,3,-19,-14,-1,-1,-1,-4
1523146916916323,-3,0,5,11,12,6,2,0
1523146916928348,7,0,4,8,-11,-4,-3,-2
1523146916928348,1,-3,3,-8,-6,0,-3,-2
1523146916936789,0,3,-2,15,1,-2,-3,-4
1523146916936789,0,0,6,-7,6,4,-1,2
1523146916951987,-7,-6,-4,10,-3,-2,2,2
1523146916951987,14,4,3,2,-3,0,2,-3
1523146916953332,0,2,6,-3,-7,2,1,1
1523146916953332,-2,-2,2,-1,8,-4,-4,-3
1523146916974417,1,1,-10,6,-3,-2,-1,1
1523146916974417,0,-2,-2,-3,-3,-1,-2,0
1523146916975893,2,4,18,26,3,3,0,0
1523146916975893,-2,-4,-11,-15,-5,-9,-5,-2
1523146916988088,-2,0,13,-4,-3,-7,2,-4
1523146916988088,-2,-4,-6,2,16,31,8,3
1523146916996949,-1,-3,-9,-17,-8,-3,-2,1
1523146916996949,-4,-2,-17,-7,8,2,0,-1
1523146917011989,-1,0,2,6,-7,-11,-3,-1
1523146917011989,-5,-2,5,-1,-12,-9,-3,-2
1523146917013493,1,-1,-7,-9,3,5,2,2
1523146917013493,5,0,-3,2,-7,-4,-1,-2
1523146917034227,-1,3,4,-4,1,1,-3,0
1523146917034227,-7,-3,12,4,-5,-8,-3,0
1523146917042248,-1,-2,-7,-4,4,4,2,1
1523146917042248,0,-1,4,5,-1,-5,-1,0
1523146917048323,-2,-3,-9,-8,-4,1,-1,-2
1523146917048323,-5,1,0,-7,-1,-2,-5,-2
1523146917056786,0,-3,-37,3,-2,-5,1,0
1523146917056786,-1,3,17,7,-1,-3,-2,0
1523146917071985,-2,0,2,-2,4,2,-1,0
1523146917071985,-2,-2,-12,-3,0,-5,-1,-2
1523146917073330,0,0,9,-6,-19,-5,-1,0
1523146917073330,-1,-2,10,21,14,6,1,0
1523146917094386,-3,-5,-27,-41,4,-3,-3,-2
1523146917094386,-6,-5,-8,-9,-6,-1,1,-1
1523146917095892,-1,-3,1,10,20,2,1,1
1523146917095892,10,3,-3,-12,-12,0,1,3
1523146917107924,-12,0,9,5,-8,-4,-3,-1
1523146917107924,-12,11,14,-7,-3,-6,-3,-4
1523146917116946,2,-4,2,16,5,-3,-4,-2
1523146917116946,32,4,-10,4,4,3,2,4
1523146917132144,0,-12,14,5,-4,-2,-6,-5
1523146917132144,18,16,0,7,-3,-3,-1,1
1523146917133491,-1,53,14,-9,-6,-1,-2,-5
1523146917133491,-24,11,-5,-6,-1,-3,-4,-2
1523146917154698,27,44,24,13,-2,0,2,1
1523146917154698,-5,-41,6,-3,-1,0,-4,-14
1523146917156051,-48,-13,30,-36,-27,-21,-17,-18
1523146917156051,-12,-17,-38,14,4,2,2,-2
1523146917168241,-33,-28,-63,26,20,15,2,-57
1523146917168241,15,41,-8,3,-2,-3,7,59
1523146917183123,22,-53,0,-1,6,9,7,-2
1523146917183123,-10,-51,-26,38,6,1,-2,-13
1523146917191144,10,2,43,-5,-3,-1,-3,4
1523146917191144,14,-47,-31,-38,-5,-2,-7,-58
1523146917198162,-30,-11,-31,1,0,-3,2,47
1523146917198162,53,9,11,-35,-9,-5,-6,-20
1523146917214412,-5,-6,11,-26,-12,-3,-3,-37
1523146917214412,-18,-42,-85,-8,19,12,8,36
1523146917216307,36,87,-32,72,7,-1,-1,18
1523146917216307,13,35,69,-8,-3,1,2,1
1523146917236974,-8,-43,-21,-11,-10,-9,-3,-9
1523146917236974,-21,-13,23,-28,-10,-6,-6,-11
1523146917238819,4,-34,-27,-6,7,14,9,-11
1523146917238819,-15,24,11,8,6,3,7,16
1523146917251515,8,12,-8,-32,-8,-3,-2,9
1523146917251515,9,20,19,35,3,-3,-3,-1
1523146917257871,11,-13,22,14,6,5,-2,12
1523146917257871,-6,15,-1,-30,-4,-2,-2,-9
1523146917274416,7,-5,-25,-6,0,4,5,30
1523146917274416,-13,10,16,24,-7,-4,-3,-4
1523146917275920,-8,-7,22,-22,-6,-12,-8,-21
1523146917275920,-18,-22,-16,-12,0,9,3,3
1523146917297133,-10,9,19,39,16,-3,-4,9
1523146917297133,5,2,-3,6,-8,-7,-1,0
1523146917298484,6,8,-1,-1,-25,-13,-1,-9
1523146917298484,-5,-4,12,-1,39,27,2,3
1523146917311170,1,0,-4,-1,-13,0,3,18
1523146917311170,6,26,19,27,13,0,0,-8
1523146917318189,5,-12,2,-22,-3,-4,-1,-2
1523146917318189,-10,-16,-2,10,-11,-17,-10,0
1523146917335128,-6,10,24,8,0,-2,0,3
1523146917335128,-9,-3,-6,-17,-24,3,-2,-2
1523146917336737,-6,-4,-2,-16,-6,0,0,-13
1523146917336737,0,-2,-11,5,5,0,2,5
1523146917357160,8,8,6,15,16,0,-3,7
1523146917357160,2,2,-22,-14,-12,-8,0,0
1523146917358639,-3,-5,-1,12,5,8,3,4
1523146917358639,-8,2,-11,-7,-14,-10,-6,-16
1523146917370828,2,-1,5,1,-1,4,4,9
1523146917370828,-1,5,17,14,1,-4,-3,-1
1523146917379695,-2,-6,-8,-8,5,5,2,-4
1523146917379695,-10,-3,-2,10,1,1,-2,2
1523146917394234,-3,3,-15,-25,-6,-4,0,1
1523146917394234,5,-2,19,-3,-17,-1,-3,-5
1523146917396297,5,-7,-19,21,14,1,0,-1
1523146917396297,-11,1,11,-15,-17,-12,-2,1
1523146917416950,-47,-22,-18,11,8,3,-2,1
1523146917416950,0,4,1,4,6,3,-1,-4
1523146917418824,12,-1,12,-13,-18,-1,0,1
1523146917418824,-12,-1,-40,-5,4,-1,-1,-2
1523146917431494,14,5,12,9,-12,-5,-6,-2
1523146917431494,-11,-10,1,7,11,-7,-4,-3
1523146917437849,-8,2,-17,-18,0,7,-2,-4
1523146917437849,27,22,17,23,-2,-2,2,6
1523146917454395,-2,-7,-27,-5,6,7,7,6
1523146917454395,-1,1,-5,3,2,1,5,1
1523146917455898,6,5,15,-8,1,1,-3,-2
1523146917455898,5,3,23,-29,-15,-10,-10,-1
1523146917477111,6,7,13,16,4,-6,-16,-3
1523146917477111,4,8,-1,5,4,8,16,1
1523146917478460,-4,7,13,-6,-1,10,5,2
1523146917478460,-2,1,15,-2,-3,0,-2,-2
1523146917491172,1,1,5,-9,-11,-18,-12,-6
1523146917491172,-20,-12,3,-7,3,3,-8,-2
1523146917498323,0,6,16,-7,-1,-4,1,-4
1523146917498323,-19,-24,-45,3,2,0,2,-1
1523146917514392,8,0,3,5,-5,-1,-1,2
1523146917514392,7,8,4,-15,0,2,-1,1
1523146917516322,-6,-4,-11,-2,3,2,3,1
1523146917516322,10,-6,-7,2,-3,-4,-5,-1
1523146917536956,6,-1,-11,-7,-3,3,6,0
1523146917536956,-5,2,-5,5,0,-3,-6,-3
1523146917538808,-2,-4,14,4,0,0,-1,-1
1523146917538808,-4,-4,13,9,5,1,1,0
1523146917550488,4,4,12,4,0,7,5,1
1523146917550488,4,0,3,-11,-3,-4,-7,-4
1523146917559354,-3,-5,6,23,-2,-9,-4,1
1523146917559354,-2,-4,0,-7,-2,0,1,1
1523146917582071,-5,6,8,-2,-2,1,0,-2
1523146917582071,0,4,1,-17,-5,-5,-6,-2
1523146917583418,-2,-2,-6,0,0,-6,-6,-3
1523146917583418,-1,7,9,-2,-4,-4,-2,-1
1523146917597112,-25,-4,2,8,-6,-1,1,0
1523146917597112,4,-15,-10,21,6,2,3,3
1523146917598458,2,2,-14,-6,10,0,-1,-4
1523146917598458,-3,0,10,7,-10,-3,0,0
1523146917611992,0,0,-12,-37,-6,-1,-2,-3
1523146917611992,-2,4,11,15,0,-2,-2,0
1523146917618167,-2,2,-6,-29,-3,2,0,0
1523146917618167,3,-12,-17,17,8,0,0,2
1523146917634700,10,2,-4,12,0,-2,-1,-1
1523146917634700,-3,0,-2,-18,-3,0,2,1
1523146917636058,0,-3,-12,9,2,0,-2,-2
1523146917636058,3,6,-16,-20,-2,1,-2,-1
1523146917657114,-3,-22,-29,7,1,2,1,-1
1523146917657114,-3,16,51,14,-2,-4,-4,-2
1523146917658618,19,9,-3,-30,-3,1,4,3
1523146917658618,-48,7,14,14,-2,-7,-7,-8
1523146917671309,-15,-21,-18,25,12,12,10,4
1523146917671309,49,21,-4,15,3,-1,3,10
1523146917685849,-57,-77,-84,-16,5,1,-4,-11
1523146917685849,7,-6,-42,12,10,10,8,-5
1523146917694370,-36,13,38,-8,-1,-3,-5,-18
1523146917694370,-13,-57,-74,13,14,13,8,-20
1523146917695716,-17,-25,4,16,-6,-11,-6,17
1523146917695716,17,50,54,-17,-5,-2,0,14
1523146917716931,-6,-12,-8,-5,-8,-8,-11,-16
1523146917716931,36,32,-2,-6,-10,-6,-5,-7
1523146917718825,-23,-4,-38,-2,-12,-10,-14,-35
1523146917718825,24,64,12,22,-3,-11,-6,17
1523146917730808,-20,-51,30,-34,-9,-7,-5,5
1523146917730808,2,10,-39,13,7,1,4,11
1523146917739332,31,42,93,-14,-16,-13,-4,1
1523146917739332,8,-31,26,13,-3,6,-1,-2
1523146917753368,-20,22,25,2,3,3,3,1
1523146917753368,-17,-28,-13,1,5,0,1,4
1523146917761892,22,4,18,-1,4,1,2,8
1523146917761892,-20,-29,-39,20,5,5,2,-14
1523146917777091,20,5,-4,-4,2,-1,-1,1
1523146917777091,-15,1,29,-24,-13,-4,-6,-1
1523146917778436,19,22,20,22,6,4,3,1
1523146917778436,4,-14,7,-17,-3,-1,5,-3
1523146917790469,28,3,-11,4,12,11,8,8
1523146917790469,-11,-15,13,-2,-8,-5,2,4
1523146917799492,15,14,6,-11,-11,-2,-2,0
1523146917799492,-11,-15,-11,9,15,-9,-5,-1
1523146917814698,2,4,4,-26,-15,3,-1,-5
1523146917814698,0,6,15,13,-35,-11,-6,-3
1523146917816037,-12,-8,-4,2,27,-2,-1,1
1523146917816037,10,-7,-1,-17,4,7,2,-1
1523146917837174,11,14,5,13,21,-21,-9,-5
1523146917837174,0,8,10,-23,-6,31,12,-3
1523146917838597,1,0,-18,20,-10,-6,0,3
1523146917838597,-2,-8,-10,-7,-4,-4,0,1
1523146917850812,21,21,-5,-8,5,-3,-1,4
1523146917850812,-20,-6,-3,-12,0,-11,-8,1
1523146917859338,-3,-5,-6,12,-7,6,2,0
1523146917859338,5,-4,28,2,12,1,1,-4
1523146917874376,5,3,-9,9,-10,3,-1,2
1523146917874376,-1,4,11,-8,-2,-8,-7,1
1523146917875881,-5,0,-6,-3,4,3,1,-3
1523146917875881,1,-5,-7,-25,-31,-14,-7,-4
1523146917896936,10,10,-4,4,-5,9,3,4
1523146917896936,-4,-15,-13,17,10,1,2,1
1523146917898440,11,10,20,14,15,3,3,2
1523146917898440,-27,-11,-13,-8,-4,0,-1,-4
1523146917910631,1,1,-8,4,-2,-4,-2,3
1523146917910631,-2,1,-4,-5,3,-2,-4,-9
1523146917919497,-17,-3,-1,-10,-14,1,-3,-2
1523146917919497,8,-1,-7,-6,-7,-4,-1,-1
1523146917934676,19,8,-2,1,-2,2,4,2
1523146917934676,-10,10,12,-3,10,-2,-1,-4
1523146917936041,10,-71,-31,15,6,-1,-1,-1
1523146917936041,-25,-8,1,-7,-1,1,-3,2
1523146917957095,-20,1,-2,-9,-7,-4,-3,-11
1523146917957095,14,-4,-6,-25,-5,-4,-5,-15
1523146917958601,-6,15,8,35,4,-3,-1,0
1523146917958601,16,1,-10,-8,3,-1,0,7
1523146917970790,8,-12,-10,-3,12,2,0,2
1523146917970790,-29,7,12,-4,-19,-14,-5,-3
1523146917979657,7,10,-5,-19,-2,10,5,2
1523146917979657,7,-2,4,7,3,5,-1,-3
1523146917993693,-7,5,-1,6,-11,-8,-1,2
1523146917993693,15,4,0,14,10,-3,1,7
1523146918000711,-4,14,2,1,0,0,-2,-10
1523146918000711,10,7,26,-22,-24,-4,1,3
1523146918016755,-6,6,-18,15,-1,2,0,0
1523146918016755,17,29,18,4,11,3,-1,3
1523146918018804,-27,-10,-3,-10,-12,-1,-1,-1
1523146918018804,1,-4,-10,1,9,1,-2,-6
1523146918030851,2,5,-13,-17,-20,-10,-6,-3
1523146918030851,-2,-5,-2,3,3,1,3,2
1523146918039315,9,19,17,-13,-6,-2,-1,0
1523146918039315,-4,2,0,4,7,1,-1,-4
1523146918054597,3,-5,0,2,2,-2,-2,1
1523146918054597,-2,-11,-9,-4,-4,-1,-1,2
1523146918055859,-1,2,2,5,5,-1,1,1
1523146918055859,0,-6,-8,-6,-10,-3,-1,-4
1523146918077151,2,-5,3,3,0,2,1,0
1523146918077151,-6,-3,-2,-2,2,-2,-4,0
1523146918078418,-2,3,4,-17,4,-3,-2,-4
1523146918078418,-1,2,-13,7,-8,0,2,-1
1523146918099681,-1,-3,2,2,9,-1,-2,-2
1523146918099681,-5,-3,2,-11,-7,0,0,-4
1523146918101217,3,3,-3,-5,-3,-3,-4,0
1523146918101217,1,-4,-6,2,8,3,2,-3
1523146918114514,1,0,14,-3,-10,-3,-4,-4
1523146918114514,-6,-6,-7,9,2,-2,-2,0
1523146918116019,3,1,-6,-6,-9,-5,-3,1
1523146918116019,-3,-3,3,-11,-11,1,-1,-1
1523146918137255,-1,3,7,5,0,-1,0,-2
1523146918137255,-1,-6,-8,1,6,2,2,1
1523146918138579,1,-12,-16,3,3,3,4,5
1523146918138579,-6,8,8,13,-3,-4,-6,-2
1523146918150853,0,-2,5,-5,3,-4,-2,-2
1523146918150853,5,-5,-16,10,-1,-1,-3,1
1523146918159636,-15,-20,-3,-13,-2,0,2,1
1523146918159636,-33,-2,-3,-13,4,0,-2,-3
1523146918174466,12,52,6,13,-1,0,-1,0
1523146918174466,3,-46,-19,-3,0,-6,-7,-9
1523146918175970,-29,8,10,4,-2,-4,-9,-35
1523146918175970,-41,-17,-66,19,1,1,7,61
1523146918197138,-16,3,28,-15,0,0,-2,-21
1523146918197138,7,0,3,-10,1,4,2,3
1523146918198529,-36,-67,-23,6,-11,-8,-7,-11
1523146918198529,18,-12,46,-13,-5,-12,-4,-10
1523146918219734,-11,7,2,6,-8,-5,-8,-1
1523146918219734,16,-5,-6,-4,-1,-5,-10,-36
1523146918221090,-26,-70,30,-14,-4,0,6,35
1523146918221090,20,60,8,6,11,3,-2,-36
1523146918233623,101,-33,3,5,1,5,6,76
1523146918233623,-42,40,28,-3,-1,0,-2,-38
1523146918240641,25,5,-24,-65,-9,2,-2,-34
1523146918240641,-43,-29,15,26,10,4,6,48
1523146918256716,-93,-32,-18,-5,-3,-1,-7,-43
1523146918256716,70,3,-20,28,9,10,13,35
1523146918258692,-52,36,4,-15,4,3,2,21
1523146918258692,-5,-32,-2,4,6,1,-9,-80
1523146918279779,-68,-23,-23,-23,-9,-10,7,49
1523146918279779,5,6,18,22,4,2,-7,6
1523146918281352,51,48,3,3,8,-1,0,1
1523146918281352,39,7,-8,-4,-1,-10,-7,8
1523146918292781,8,3,2,-3,5,5,1,-23
1523146918292781,1,5,-8,25,5,4,5,7
1523146918301804,24,5,-11,-17,-26,-28,-8,10
1523146918301804,-7,8,-11,-6,34,49,13,-1
1523146918317003,16,-1,-9,-16,-2,-13,-9,-7
1523146918317003,-24,-9,14,16,26,1,2,13
1523146918318348,8,14,-11,8,-25,-11,-1,-3
1523146918318348,12,3,7,11,-18,-20,-5,2
1523146918339567,15,7,-5,-8,-32,-6,-5,-15
1523146918339567,-6,3,0,-14,2,3,-6,-1
1523146918340909,5,10,-36,-11,28,6,3,-3
1523146918340909,20,0,-3,-8,-4,-15,-2,0
1523146918353305,-17,-21,-14,3,22,21,2,-4
1523146918353305,-19,-1,-17,-20,-22,-15,2,-4
1523146918362172,29,17,52,35,-4,-3,-1,7
1523146918362172,-1,-5,6,10,19,13,7,9
1523146918377210,5,9,-2,-21,-6,-2,-1,-7
1523146918377210,17,4,5,-19,-11,-12,0,11
1523146918378214,-44,-7,-6,35,3,12,1,-11
1523146918378214,3,1,4,-19,-14,-8,-4,-3
1523146918399771,2,6,8,-6,-11,-4,2,-3
1523146918399771,-23,-8,-3,10,-7,-1,-4,3
1523146918401350,60,19,-4,42,21,5,1,13
1523146918401350,-32,-3,-7,21,-21,-6,0,2
1523146918413810,8,-5,-9,-6,3,-2,-2,-9
1523146918413810,11,5,25,-38,-19,-11,-2,7
1523146918428005,9,1,-4,4,4,11,4,-3
1523146918428005,5,5,2,8,2,-4,-2,2
1523146918436026,8,-2,-8,2,1,-4,-5,-10
1523146918436026,-7,-2,-14,-12,-14,0,-2,-3
1523146918444391,-9,3,5,-7,6,-1,1,2
1523146918444391,14,2,2,-22,1,-6,-4,-5
1523146918459432,3,-2,-4,18,8,5,4,1
1523146918459432,-10,-1,-2,-1,-23,-6,-3,-6
1523146918460935,-51,-8,10,-30,-5,5,-3,-5
1523146918460935,9,-10,-38,14,5,-1,-3,-1
1523146918472967,2,0,-3,19,13,3,2,0
1523146918472967,12,-12,-2,-37,2,8,4,2
1523146918481991,9,5,9,-13,-9,-7,-3,1
1523146918481991,-3,-1,8,24,8,-3,-3,-3
1523146918497030,7,0,7,5,0,9,4,3
1523146918497030,-9,1,4,2,10,1,-1,-3
1523146918498536,10,-2,-4,-10,-1,3,-1,-2
1523146918498536,-4,-4,-5,-17,-18,-7,-5,-4
1523146918519700,1,3,3,-3,-9,-10,-2,-6
1523146918519700,2,2,-2,22,7,-5,1,5
1523146918521095,-4,-4,-6,19,35,18,2,-4
1523146918521095,10,6,-2,-11,-12,-2,-2,-6
1523146918533127,1,0,-3,-10,-12,-7,-6,1
1523146918533127,-3,3,11,2,-13,-6,-2,-2
1523146918542151,11,2,2,8,-10,-6,1,3
1523146918542151,2,-2,3,-17,8,2,0,-1
1523146918556690,-1,1,5,21,12,5,5,0
1523146918556690,6,-9,-44,-15,-17,1,0,1
1523146918558694,1,0,7,8,0,-3,-4,1
1523146918558694,2,-2,2,0,1,-1,0,0
1523146918579491,-3,-1,6,8,-11,-5,-2,-4
1523146918579491,-3,2,-27,32,22,0,-3,-3
1523146918581386,2,4,1,-5,-7,-4,-1,-1
1523146918581386,-4,-12,-27,-6,-14,1,5,2
1523146918593787,13,1,-2,-51,1,2,-2,3
1523146918593787,-1,6,40,11,17,1,-1,-6
1523146918600910,0,-1,3,0,-9,-6,-4,-3
1523146918600910,-5,3,4,-12,-10,-3,-3,0
1523146918616849,18,7,-2,-13,1,1,3,6
1523146918616849,11,-1,2,14,1,2,-2,-1
1523146918618903,4,2,-2,-7,-1,-6,-2,-1
1523146918618903,4,4,13,11,-11,-3,-1,-1
1523146918639564,2,-1,-11,19,13,9,4,2
1523146918639564,8,22,11,-23,-10,-7,-5,-2
1523146918640914,-2,-8,-13,17,4,3,3,2
1523146918640914,-4,-3,-7,-12,1,-2,-3,0
1523146918653715,-19,-32,-9,16,0,2,4,-1
1523146918653715,-42,24,-11,-3,10,6,4,2
1523146918660733,11,-67,-14,27,1,-1,-1,-7
1523146918660733,-6,-22,-2,-17,-4,-4,-4,3
1523146918677284,-108,-43,-10,22,-13,-15,-17,-21
1523146918677284,-20,-32,-17,9,12,12,4,-17
1523146918678281,31,62,23,-16,-5,-2,-5,-6
1523146918678281,105,-19,-2,-3,1,-1,11,73
1523146918706624,81,85,20,0,-2,-6,-1,12
1523146918706624,-20,-74,-2,-11,2,1,-5,-27
1523146918708630,-18,-9,-1,-11,-13,-11,-12,-6
1523146918708630,-23,25,-9,-11,-9,-1,-2,-11
1523146918713385,28,24,-8,2,6,0,-1,2
1523146918713385,-16,-36,19,-13,-10,-3,4,44
1523146918722166,24,49,3,-11,-2,-6,-6,-16
1523146918722166,-38,-21,8,19,-2,-6,-11,-26
1523146918736951,24,38,31,-67,-17,-5,-2,-16
1523146918736951,-40,2,-26,-2,-7,-7,-6,-8
1523146918738828,1,-25,12,9,7,6,7,11
1523146918738828,53,3,-38,-7,-4,-4,-6,-15
1523146918759477,-38,9,27,11,-4,-5,-6,-16
1523146918759477,7,6,-10,-4,-3,-3,-1,-5
1523146918761355,5,-6,-13,-15,-7,-1,0,-13
1523146918761355,-8,19,14,2,7,1,3,34
1523146918773304,22,-20,-12,9,4,4,4,-1
1523146918773304,20,19,3,-14,-6,-1,1,6
1523146918781823,-18,-17,-9,12,8,7,6,14
1523146918781823,-32,8,4,7,0,1,-1,-24
1523146918797071,2,-26,-15,21,5,-1,2,13
1523146918797071,10,13,13,-18,-4,-6,-5,-7
1523146918798368,-18,10,-1,7,5,20,6,0
1523146918798368,2,-4,11,-16,6,-18,-4,-9
1523146918819424,-4,-14,1,2,0,15,1,5
1523146918819424,9,14,-9,7,34,8,0,-11
1523146918821428,10,1,7,-14,-38,-5,2,7
1523146918821428,-7,0,-3,2,3,3,2,-5
1523146918833199,-17,-18,-4,2,1,-10,-5,-4
1523146918833199,6,4,-8,17,-8,-11,-7,2
1523146918841984,-11,-9,-27,-23,-6,-1,-3,-1
1523146918841984,-1,0,18,2,8,4,0,-4
1523146918856053,-4,2,-5,3,-11,-8,-1,10
1523146918856053,16,0,0,6,2,9,5,0
1523146918863040,0,0,3,-4,-3,-6,-1,6
1523146918863040,-18,0,0,4,-4,1,-1,-16
1523146918879643,-14,-16,3,0,3,6,1,1
1523146918879643,-46,19,-2,-31,-6,1,-1,-2
1523146918881089,0,0,-1,11,-4,-8,-5,5
1523146918881089,-15,-1,0,-13,-13,-3,-3,-6
1523146918893124,13,-6,-7,2,5,12,3,1
1523146918893124,13,1,14,6,-1,-1,-1,4
1523146918909696,-12,-3,-1,14,7,-8,-4,-5
1523146918909696,4,2,-7,0,2,4,-1,-4
1523146918916418,-3,-1,-1,-17,-8,-7,-2,-2
1523146918916418,16,3,22,0,-9,-7,-2,0
1523146918923200,1,-1,-5,3,12,2,1,-1
1523146918923200,-4,-3,2,-11,-7,5,-2,-11
1523146918939244,4,-4,-14,-3,-2,-6,-1,2
1523146918939244,8,-1,-8,11,3,-1,-1,0
1523146918940747,10,-2,2,-2,5,-1,-4,-2
1523146918940747,-5,6,8,-5,9,7,1,2
1523146918953386,-3,-3,-13,3,-4,-2,-1,-2
1523146918953386,13,1,-5,0,-17,-11,-5,0
1523146918962367,-9,1,3,1,12,4,0,0
1523146918962367,2,3,-8,-3,-2,-3,-3,-3
1523146918977080,8,-2,-6,4,10,4,0,0
1523146918977080,9,-4,2,4,-6,2,0,1
1523146918978347,1,-3,4,-10,-10,-6,-1,-2
1523146918978347,-3,-1,-4,3,3,-3,-1,-1
1523146919000143,4,1,5,5,-4,-3,-1,1
1523146919000143,-16,-2,-2,1,0,2,0,-2
1523146919001409,0,9,10,4,1,-3,1,-3
1523146919001409,6,-2,-5,0,-1,0,-1,1
1523146919012971,-4,-3,-1,-1,-3,-3,-4,-2
1523146919012971,3,-7,-17,5,5,3,2,0
1523146919021963,3,5,0,-5,-2,3,0,0
1523146919021963,-38,-18,1,-7,-7,-1,0,-7
1523146919036555,-3,1,7,11,9,-1,-1,-2
1523146919036555,4,1,3,-14,1,-1,-2,-2
1523146919043018,9,-1,-13,-8,-12,-4,-1,0
1523146919043018,-4,-4,8,11,-1,-5,-2,-3
1523146919059681,-3,0,5,7,-2,2,0,-4
1523146919059681,0,-1,-9,-10,-2,-1,-1,-3
1523146919061068,9,4,-1,3,2,-5,-3,-1
1523146919061068,-10,0,4,5,-2,-1,-2,3
1523146919073100,12,7,9,-18,-4,-3,-3,-5
1523146919073100,5,4,6,7,-1,-2,-1,1
1523146919082123,-24,-7,64,-11,5,5,1,-2
1523146919082123,7,-24,-3,-8,-2,-1,1,2
1523146919096160,-2,-4,-29,3,0,-4,-2,-2
1523146919096160,9,-5,4,-22,-5,-1,2,1
1523146919103415,-11,1,0,-3,0,-1,-2,-3
1523146919103415,22,74,19,1,-2,-1,1,2
1523146919119738,-1,-31,-26,-14,4,2,2,1
1523146919119738,4,1,13,-3,-5,-1,-3,1
1523146919121364,-3,-3,-14,-1,-2,-2,-2,-1
1523146919121364,-2,-3,-12,5,1,1,1,1
1523146919142027,2,11,-3,3,0,0,-2,-2
1523146919142027,-6,-10,-12,11,4,1,0,0
1523146919143287,3,7,13,0,-7,-6,-3,-1
1523146919143287,6,-13,-17,9,-2,-2,-1,-3
1523146919156321,-14,-3,27,0,-3,-1,-1,1
1523146919156321,13,3,0,-6,-3,-1,-1,1
1523146919162876,-27,6,-6,-5,2,0,-2,-9
1523146919162876,36,-1,-39,2,7,6,4,-1
1523146919179382,-10,32,25,13,2,-2,1,8
1523146919179382,41,-64,-21,5,0,-3,-5,-12
1523146919180887,-27,26,-24,12,1,-3,-1,-11
1523146919180887,14,-40,30,-18,-7,-3,-1,43
1523146919201999,42,45,-25,-1,0,1,1,-7
1523146919201999,5,47,-4,39,8,6,7,-7
1523146919203447,-26,-19,1,-6,-4,-3,-2,-20
1523146919203447,22,-27,15,4,2,1,1,23
1523146919216983,35,59,7,-16,-3,1,4,5
1523146919216983,5,-53,23,-6,-2,-1,-1,1
1523146919218487,45,-55,-24,2,2,2,0,-28
1523146919218487,-42,11,-7,-1,-4,-4,0,28
1523146919238597,-36,-43,4,-4,-3,-3,-5,-58
1523146919238597,-61,-34,-24,-38,-7,-7,-10,-3
1523146919247062,-2,0,-3,15,-3,-4,0,27
1523146919247062,39,17,17,2,4,3,0,-7
1523146919261846,-19,-33,-24,12,-3,-1,-2,-13
1523146919261846,-24,20,6,-2,-7,-8,-4,14
1523146919263755,-15,24,-58,18,2,1,-5,-21
1523146919263755,-5,19,-21,-20,-4,0,1,-8
1523146919276359,15,-32,-43,-16,-5,-6,-1,31
1523146919276359,-25,-2,-19,6,-4,-1,-2,-23
1523146919284663,24,-22,-11,-18,-1,2,6,32
1523146919284663,-18,25,46,4,-1,-3,-5,-20
1523146919299437,2,-4,-8,-1,1,1,-2,-15
1523146919299437,36,25,16,-9,-1,1,2,9
1523146919301404,15,11,12,-9,-1,-2,1,10
1523146919301404,-9,-14,-23,28,3,3,2,-6
1523146919322261,-14,-8,31,-7,-3,-6,-1,13
1523146919322261,4,12,-17,-2,10,-2,-2,0
1523146919323265,5,0,16,-2,-25,-6,-4,-5
1523146919323265,-11,-11,-6,3,-6,1,0,-11
1523146919335910,0,-2,12,10,20,-14,-9,1
1523146919335910,12,13,-7,-2,-15,-3,-2,-3
1523146919344322,7,4,19,5,6,2,1,7
1523146919344322,0,-13,-35,-9,16,11,-3,-11
1523146919359361,-4,4,26,0,-26,6,4,9
1523146919359361,-3,1,4,0,6,-3,2,4
1523146919360866,2,-9,-3,-10,-2,-7,-3,4
1523146919360866,-5,-10,-9,23,11,-5,-3,-11
1523146919382162,-6,-24,-25,10,-1,-8,-6,0
1523146919382162,-19,6,34,15,-5,-5,3,-10
1523146919383425,3,-16,-19,17,2,10,3,-7
1523146919383425,5,10,8,1,1,-2,4,-5
1523146919396200,-5,-13,2,-10,5,8,6,6
1523146919396200,2,17,40,-17,-9,-5,-7,-2
1523146919402977,-1,7,12,-2,9,-2,-1,-1
1523146919402977,-4,2,4,-16,-10,-5,-5,-7
1523146919419740,0,1,0,11,0,-3,-4,2
1523146919419740,8,3,-19,6,-5,5,3,4
1523146919421254,-34,-15,-4,7,4,-2,-2,-4
1523146919421254,1,7,18,-3,-4,-2,-5,-5
1523146919441821,0,-3,-4,-13,-2,6,3,5
1523146919441821,12,15,-6,9,9,2,1,1
1523146919443588,7,10,8,-5,-2,-3,-4,-2
1523146919443588,1,-9,9,-10,-2,0,0,-3
1523146919455617,-6,9,8,13,3,0,0,-3
1523146919455617,-5,-9,-12,-36,-9,-1,1,0
1523146919464642,11,1,-5,-2,3,-1,-5,1
1523146919464642,-2,-1,-9,-3,-5,-5,-2,-4
1523146919479268,1,0,-12,-8,3,4,1,1
1523146919479268,-3,-9,-5,19,8,2,1,0
1523146919481388,1,3,19,-11,-9,-4,-3,-2
1523146919481388,-4,-3,-12,-7,-1,0,0,-4
1523146919502284,2,3,2,-10,-7,-5,-4,-1
1523146919502284,-2,1,8,9,1,1,-3,-1
1523146919503911,4,4,-3,-6,4,3,1,3
1523146919503911,0,2,2,2,-4,-3,-1,0
1523146919515519,1,2,1,0,-1,-2,0,-1
1523146919515519,1,-6,-1,-12,-1,0,0,0
1523146919524301,0,1,-7,12,5,0,1,-1
1523146919524301,-4,1,1,5,3,2,-1,-2
1523146919539341,-3,-2,2,-9,-5,-2,-1,-2
1523146919539341,-2,-5,-6,5,9,2,2,1
1523146919541344,1,3,0,-8,-18,-2,-3,0
1523146919541344,-2,-1,-1,-3,-5,0,5,2
1523146919561900,-2,-1,-1,9,4,0,0,-1
1523146919561900,1,2,20,2,-2,-6,-7,-2
1523146919563936,4,-1,-9,-3,1,-2,-2,1
1523146919563936,-1,-3,-3,-1,-9,-3,-2,-3
1523146919576557,0,0,-6,-7,-5,0,-1,1
1523146919576557,-3,-3,9,3,8,1,0,1
1523146919583489,-2,1,-1,-5,-3,-2,-1,-2
1523146919583489,-1,-12,-20,11,8,1,-2,0
1523146919599763,-1,3,18,3,-5,-1,-1,0
1523146919599763,1,3,-3,-1,-5,-1,0,-1
1523146919601035,-12,-8,-3,-8,-2,-1,2,0
1523146919601035,-1,-2,1,2,9,3,-1,-2
1523146919622091,4,0,-6,-4,-1,-2,-2,-1
1523146919622091,-13,2,-8,-5,-4,-1,-3,-3
1523146919623595,7,-3,-5,5,2,1,1,1
1523146919623595,-24,-3,0,-15,-5,-3,-2,-6
1523146919635868,0,-2,1,10,2,-3,-2,-3
1523146919635868,1,-1,-5,-11,3,1,0,-1
1523146919644650,2,2,6,17,-3,-1,0,-2
1523146919644650,5,8,2,-18,-13,-8,-2,1
1523146919659434,2,1,-4,-13,-3,0,-3,-1
1523146919659434,-2,-7,-17,-5,-2,1,2,0
1523146919661193,2,0,5,22,18,3,0,0
1523146919661193,5,6,18,8,-11,-4,-3,3
1523146919682260,-3,4,15,-25,-6,-4,-2,-2
1523146919682260,2,-7,-8,28,7,0,0,0
1523146919683252,-1,6,9,-11,4,1,-2,-2
1523146919683252,9,-3,1,9,0,0,-2,-3
1523146919695872,-26,5,-8,-12,8,4,3,2
1523146919695872,51,-11,2,-14,-15,-7,-4,3
1523146919704809,-10,19,0,-2,2,-1,0,-2
1523146919704809,-1,0,-15,0,11,4,4,-5
1523146919719639,9,-24,-20,-6,-4,0,-1,2
1523146919719639,23,-72,-23,10,-1,-1,1,3
1523146919720899,1,-66,-22,-21,3,8,8,-10
1523146919720899,47,18,-27,21,10,8,6,-2
1523146919742149,27,54,33,-22,-21,-21,-22,3
1523146919742149,31,61,8,-12,-17,-8,-6,9
1523146919743457,-28,-81,-23,-7,2,1,3,-7
1523146919743457,1,90,14,21,16,10,9,-14
1523146919755573,-34,-32,-40,-7,-6,-5,-11,-21
1523146919755573,-54,-3,-43,13,1,-5,-12,8
1523146919764598,-33,-39,11,-24,-10,1,12,52
1523146919764598,73,54,8,-27,-16,-7,4,36
1523146919779696,119,17,27,9,1,-11,-10,-20
1523146919779696,13,93,80,-70,-18,-7,-5,29
1523146919781340,46,9,-6,34,1,-9,-17,-40
1523146919781340,44,-22,8,-17,-1,1,4,18
1523146919801893,-50,-20,-43,16,3,4,18,52
1523146919801893,-19,-23,6,76,18,5,-2,-57
1523146919803847,34,39,-9,-32,9,0,-5,-14
1523146919803847,-38,-38,-14,-29,-28,-10,-8,7
1523146919815794,-30,18,16,35,4,9,5,-29
1523146919815794,-5,-6,1,-8,11,6,5,-4
1523146919832276,-35,31,34,38,3,-30,-12,-2
1523146919832276,-36,-23,-8,36,-19,27,3,-32
1523146919839296,-1,-9,-11,-46,20,-1,2,19
1523146919839296,-17,-16,-12,11,-9,0,4,9
1523146919841356,1,7,-24,-8,-9,24,11,5
1523146919841356,-16,-9,4,-62,-33,-31,-13,-3
1523146919861855,10,1,23,42,39,29,15,4
1523146919861855,-9,-9,0,-21,-47,-46,-21,-1
1523146919863860,2,26,4,24,75,32,5,-11
1523146919863860,-17,-14,22,27,26,13,-7,-7
1523146919875892,-15,-2,-5,3,-23,13,14,6
1523146919875892,-9,-6,-20,0,8,3,-5,-21
1523146919884416,5,12,3,-11,-30,-23,-8,9
1523146919884416,-18,-21,11,-12,-8,-5,3,0
1523146919898872,-5,0,11,9,17,-9,-10,-12
1523146919898872,2,10,11,-6,0,2,-3,-3
1523146919905693,6,14,14,-4,-33,-24,-4,1
1523146919905693,-3,-18,-4,20,52,28,5,1
1523146919921799,8,16,-8,-22,-29,-17,-14,-23
1523146919921799,12,-2,4,21,20,20,19,30
1523146919923744,-4,6,-3,-15,-28,0,0,4
1523146919923744,-7,39,0,-9,2,-17,-11,-44
1523146919935836,53,1,-15,-9,-2,1,8,16
1523146919935836,-41,-63,-4,16,8,7,4,1
1523146919944297,36,24,-1,-14,2,2,-6,-8
1523146919944297,-9,-1,-7,-3,-13,-8,-2,12
1523146919958836,6,13,8,8,-1,0,-1,-16
1523146919958836,-4,9,3,3,8,4,0,-7
1523146919965549,-10,-9,5,9,-8,-3,0,8
1523146919965549,-12,-18,-3,-7,-4,-7,-5,-12
1523146919981896,-25,-23,10,10,-6,0,-1,6
1523146919981896,6,-1,-17,-3,-4,-1,0,-3
1523146919983401,-15,-3,-2,34,2,1,-2,-4
1523146919983401,-2,-3,-5,5,7,-4,0,7
1523146919995447,-19,-8,-2,-23,-17,-3,-3,4
1523146919995447,9,19,6,-1,-5,2,0,2
1523146920004457,7,9,6,-11,-4,-2,-1,-7
1523146920004457,-9,-17,1,4,-9,-10,-3,4
1523146920018996,-10,-7,-20,-17,13,11,2,2
1523146920018996,-1,1,-35,13,1,0,0,-14
1523146920025513,-8,-4,-19,-48,-7,-1,-2,2
1523146920025513,-2,-5,3,11,5,-5,-4,3
1523146920042056,-13,-4,-8,-18,-19,-11,-3,-7
1523146920042056,6,8,8,10,17,2,1,-1
1523146920043561,-5,-4,3,-9,3,-1,-1,1
1523146920043561,-2,-1,-7,8,-11,-2,0,2
1523146920055592,-2,0,1,4,2,-11,-1,-8
1523146920055592,1,3,8,-13,17,27,9,4
1523146920064617,-2,-4,-5,16,-1,-3,1,1
1523146920064617,-3,-6,-3,-22,3,2,0,-2
1523146920079716,-7,-7,-18,27,-4,-7,-5,0
1523146920079716,2,3,11,-31,-21,-14,-5,-2
1523146920081341,-4,-2,-4,2,5,4,-1,-1
1523146920081341,-1,1,-1,1,-9,-1,-2,1
1523146920109265,-3,-4,5,9,14,2,0,0
1523146920109265,2,-1,-13,-19,-2,-5,-1,1
1523146920110739,3,4,6,-1,-4,0,-2,-2
1523146920110739,-4,-5,-2,-11,-9,-5,-5,-1
1523146920124275,9,2,2,22,6,2,0,2
1523146920124275,2,2,-1,-6,-8,0,1,-5
1523146920130792,-2,-2,1,1,6,-2,-2,0
1523146920130792,0,-3,-4,7,9,0,2,2
1523146920138815,0,6,18,-9,-4,-1,-1,-2
1523146920138815,-2,1,0,-3,-11,-3,-4,-2
1523146920145332,0,-5,-15,11,0,2,1,-1
1523146920145332,1,0,2,-8,-6,-2,-2,0
