timestamp,emg1,emg2,emg3,emg4,emg5,emg6,emg7,emg8
1523144344117057,2,-6,3,3,0,9,-35,-4
1523144344117057,-6,12,50,-1,3,8,30,8
1523144344117559,-1,12,24,-1,0,1,-7,-6
1523144344117559,-8,-32,1,-5,-4,-4,-8,-4
1523144344131096,6,2,-28,-2,-3,-5,-15,-1
1523144344131096,-3,-1,22,3,-1,-2,29,4
1523144344132098,0,13,-10,-1,0,-1,6,0
1523144344132098,2,4,-59,-11,-7,-6,2,-2
1523144344153656,0,1,102,10,1,-1,9,0
1523144344153656,-3,-11,-42,-8,-1,3,-20,-3
1523144344154660,-4,3,-10,-2,-2,-7,-2,-6
1523144344154660,0,7,19,1,-2,-1,4,4
1523144344176716,9,15,-49,2,2,-1,-13,-1
1523144344176716,-9,-28,-4,-15,-6,0,-3,0
1523144344177719,-2,-2,15,-3,1,4,22,2
1523144344177719,-1,0,-24,3,0,-2,-1,-5
1523144344190753,0,-1,-9,6,2,-1,7,0
1523144344190753,2,14,-3,-8,-4,-9,1,2
1523144344198776,-6,-30,-17,2,1,3,-34,-2
1523144344198776,1,16,23,0,-2,0,-16,-3
1523144344213816,-2,-15,-60,-6,2,1,42,4
1523144344213816,1,0,48,9,-2,-6,-15,-3
1523144344214316,1,7,-7,-10,-2,4,9,2
1523144344214316,-1,-3,-16,3,1,-2,-8,-2
1523144344236878,0,3,6,-3,-4,-4,-12,-3
1523144344236878,3,7,-7,5,3,4,4,0
1523144344237882,-3,2,-21,-1,-4,-6,-21,-4
1523144344237882,-5,-23,4,-4,-2,0,33,2
1523144344250413,1,0,-8,-5,-2,2,9,1
1523144344250413,-2,-8,6,3,0,1,-5,-1
1523144344258935,1,3,22,3,1,3,7,3
1523144344258935,1,2,-49,-8,-5,-5,-3,-3
1523144344273977,2,2,4,3,1,2,-9,1
1523144344273977,-5,-2,-22,-5,-4,-1,-2,-1
1523144344274979,1,3,-3,2,0,-3,-17,-5
1523144344274979,1,-2,9,2,0,-1,0,3
1523144344297036,0,3,-11,3,-2,1,3,1
1523144344297036,-2,-10,-10,-4,-1,-2,-22,-2
1523144344297539,7,3,4,1,1,0,17,1
1523144344297539,1,7,-54,-1,0,-1,7,-3
1523144344310573,-2,20,63,-11,-4,-15,-40,-13
1523144344310573,7,-11,1,7,4,17,22,4
1523144344318596,-6,-10,-10,2,-3,-1,8,0
1523144344318596,1,-7,17,-7,1,-4,-2,-3
1523144344333636,-3,6,-3,25,1,-2,-8,1
1523144344333636,5,-5,-44,-16,-4,-5,-7,7
1523144344334637,5,2,8,-22,-4,2,16,-8
1523144344334637,2,19,66,13,3,4,10,2
1523144344356696,-7,-12,9,-25,-3,0,-7,2
1523144344356696,-11,-1,6,35,3,-3,-8,-15
1523144344357698,9,0,18,-2,-4,-6,9,29
1523144344357698,3,-5,-9,-2,-6,-2,-25,-6
1523144344370734,20,-1,4,19,3,1,37,9
1523144344370734,60,-3,2,-6,1,-4,-17,-11
1523144344378755,-38,8,-19,-6,6,3,-8,-3
1523144344378755,1,-5,-2,8,3,3,0,-7
1523144344393793,-12,5,2,-13,-5,5,19,2
1523144344393793,25,-1,2,-9,-7,-7,-8,3
1523144344394295,9,2,-13,15,0,-2,7,-6
1523144344394295,-6,3,-1,1,0,2,4,4
1523144344416855,5,-8,0,-14,-1,4,-9,5
1523144344416855,-20,14,17,8,1,-2,5,-5
1523144344417859,3,-4,-2,-5,-4,-3,-6,-6
1523144344417859,-27,-3,15,6,4,2,4,7
1523144344430391,-7,-8,-26,-9,-2,0,-9,-2
1523144344430391,-16,4,1,-6,0,-3,-4,5
1523144344438915,3,-26,-28,6,0,1,5,-1
1523144344438915,21,3,7,-7,-3,-5,-5,-2
1523144344453955,-8,-1,-6,-1,1,-3,-6,-4
1523144344453955,22,0,9,-2,1,8,24,5
1523144344454518,-69,1,4,-9,-2,1,-4,-11
1523144344454518,15,-2,-4,-1,-2,1,-8,-4
1523144344477015,13,-10,-12,-4,-3,-2,-4,-4
1523144344477015,-24,0,-9,2,-3,-6,-8,0
1523144344477516,15,-1,-7,3,-1,0,-6,1
1523144344477516,1,-2,-36,-9,-5,-5,-1,-1
1523144344490553,-18,-4,36,9,1,-3,-2,-4
1523144344490553,-4,2,39,-6,1,-2,-7,0
1523144344498573,13,-16,-67,-11,-6,-5,3,-3
1523144344498573,-7,14,26,0,-2,-1,-3,-2
1523144344513612,8,-2,4,4,3,3,4,0
1523144344513612,-17,-7,-3,1,-4,-3,1,0
1523144344514615,14,4,19,1,-1,1,5,1
1523144344514615,-4,-2,-1,-2,0,-2,-4,-1
1523144344537179,-4,-2,-11,4,1,4,0,-2
1523144344537179,-7,2,8,-4,-1,-2,-4,1
1523144344537680,2,2,16,3,3,2,13,3
1523144344537680,0,-7,-17,-8,-5,-9,-8,-5
1523144344559235,3,1,0,-2,-1,0,1,0
1523144344559235,-7,-4,-29,-2,-2,-4,-21,-3
1523144344560237,10,2,11,2,2,5,23,2
1523144344560237,-6,-5,-3,-1,-1,-6,-10,-4
1523144344573777,4,3,16,-4,-4,-4,-31,1
1523144344573777,-8,-5,-9,-3,-1,6,53,4
1523144344574777,2,1,10,1,-4,-7,-27,-4
1523144344574777,-1,0,5,0,1,2,6,0
1523144344596833,-3,-2,-14,4,3,1,4,0
1523144344596833,-2,-1,-5,-4,-6,-6,-27,-5
1523144344597837,4,7,17,1,2,-1,6,-4
1523144344597837,-4,-6,-1,1,0,2,10,-5
1523144344619394,6,13,26,-1,0,-3,2,-2
1523144344619394,-9,-12,-32,-5,0,-1,1,-1
1523144344619898,-1,1,2,-2,-2,-1,0,0
1523144344619898,11,-1,23,0,-2,-2,-12,-3
1523144344633933,-6,3,-14,-3,-4,-7,7,-1
1523144344633933,2,11,7,4,1,0,5,-2
1523144344634435,0,-15,-2,5,7,3,-37,-1
1523144344634435,-1,5,8,-1,0,10,29,8
1523144344656993,-2,-11,-7,-12,-7,-6,1,-4
1523144344656993,1,6,-4,0,-4,-6,-11,-1
1523144344657496,-1,-4,-9,2,-1,-3,-9,-4
1523144344657496,2,2,-5,4,4,2,18,3
1523144344679554,0,-6,-18,6,5,6,6,0
1523144344679554,-6,-1,-22,-4,-5,-4,-10,-4
1523144344680055,-1,3,18,-4,-3,-4,12,-1
1523144344680055,-2,-10,-18,-5,-4,-5,-34,-3
1523144344693592,-3,4,-7,-1,1,7,41,4
1523144344693592,-4,-16,-28,-2,1,2,5,-2
1523144344694595,-1,-6,2,-4,-5,3,-3,1
1523144344694595,1,18,45,3,-1,-6,-1,2
1523144344717153,-6,-42,-75,-6,-2,-4,-17,-6
1523144344717153,4,13,18,5,3,2,-1,0
1523144344717655,1,6,6,-4,-5,-3,13,-1
1523144344717655,-10,-15,0,-5,-2,-3,-14,-2
1523144344739719,3,12,18,2,2,-1,6,0
1523144344739719,-1,-1,-43,6,8,12,11,5
1523144344740218,-2,-2,24,0,-2,2,1,-3
1523144344740218,-3,-4,-39,-11,-8,-11,-2,-4
1523144344753754,0,-5,18,2,2,7,-2,0
1523144344753754,-1,5,-6,2,0,0,-12,0
1523144344754758,-1,-23,-7,0,2,-2,24,5
1523144344754758,1,26,-23,-8,-5,11,21,-1
1523144344776814,-3,-2,19,-1,-1,-2,4,0
1523144344776814,-1,-12,31,-3,-3,-11,-31,-2
1523144344777815,4,15,-7,-1,-3,-2,5,1
1523144344777815,-1,-9,18,4,2,-3,-5,1
1523144344799373,0,15,33,-4,-7,-12,-19,-4
1523144344799373,-5,-12,-8,3,3,6,24,-1
1523144344799875,-2,2,-4,-2,-2,-5,-27,-7
1523144344799875,2,-1,32,3,1,2,-6,4
1523144344813411,-6,2,-15,-3,-5,-7,-21,-6
1523144344813411,-4,-5,33,-8,-3,-2,4,0
1523144344814419,1,13,13,1,0,0,-3,-3
1523144344814419,-4,-14,-46,-1,0,-2,2,-3
1523144344836976,0,-1,-8,1,0,5,41,1
1523144344836976,-1,-1,-1,-2,0,9,18,1
1523144344837481,0,6,-21,-5,-4,-2,2,1
1523144344837481,-2,-16,4,4,5,4,-7,1
1523144344859532,1,4,7,1,-1,-2,-7,-1
1523144344859532,2,11,1,-1,-2,1,3,1
1523144344860035,-6,-9,10,-8,-7,-8,-5,-6
1523144344860035,2,-3,-17,4,3,-1,-16,-2
1523144344873069,-2,-8,-8,0,2,4,11,5
1523144344873069,-2,2,16,-2,-4,-6,-5,-2
1523144344882101,0,-1,-32,-2,-2,0,-7,-1
1523144344882101,-6,-4,5,1,-5,-11,-16,-5
1523144344896632,3,0,1,-1,2,5,-3,1
1523144344896632,7,1,2,-3,-3,-3,12,2
1523144344898637,1,0,5,5,4,7,-3,1
1523144344898637,1,2,-4,-1,1,-3,-13,-7
1523144344919194,0,5,6,-2,-3,-6,-18,-3
1523144344919194,-9,-2,-2,-1,-3,0,-5,-4
1523144344921201,13,3,-3,2,1,-4,-4,1
1523144344921201,3,-6,3,-2,0,-1,14,-4
1523144344933232,-6,-11,-5,3,2,-2,-27,-1
1523144344933232,0,1,3,-3,-5,-7,-13,-4
1523144344941753,-5,-6,2,-1,-4,-20,-27,-3
1523144344941753,-1,6,-3,-1,0,3,11,3
1523144344956794,2,9,-4,-1,2,-3,-1,-6
1523144344956794,-3,-12,0,-2,-1,-3,7,-2
1523144344958297,-1,-3,2,-1,-2,5,-5,0
1523144344958297,2,1,-3,-1,-4,-2,4,1
1523144344979353,-3,-1,28,-2,-4,-4,-10,-2
1523144344979353,-2,3,-85,-3,-3,-7,-7,-2
1523144344981372,-2,-1,18,9,9,9,22,1
1523144344981372,-4,-3,-20,-5,-4,0,5,0
1523144344992889,1,1,-4,-4,-2,3,11,3
1523144344992889,-8,-18,20,-3,1,4,-2,1
1523144345001913,-3,2,-6,-2,-2,0,16,0
1523144345001913,-7,-4,3,1,1,2,-2,1
1523144345016952,0,-1,-1,3,0,-5,-10,-4
1523144345016952,2,-8,-16,-4,-3,-4,7,1
1523144345018458,-2,-2,7,0,1,11,12,2
1523144345018458,0,4,15,5,-2,9,21,2
1523144345039513,-9,11,5,-8,-1,-1,-6,2
1523144345039513,1,-4,21,4,1,-3,-5,-1
1523144345041017,3,2,-1,-1,0,11,19,4
1523144345041017,-2,-1,-41,-1,0,0,-9,-10
1523144345053049,-6,-4,3,0,-2,4,5,0
1523144345053049,5,7,11,2,0,-2,0,-1
1523144345062073,-2,-1,-7,-1,-2,0,4,1
1523144345062073,-1,1,12,-3,-4,-5,-6,1
1523144345077112,1,-3,-17,1,-2,-4,-6,-2
1523144345077112,-1,5,0,-2,2,8,-8,1
1523144345078617,-3,-7,16,-1,-3,-8,-27,-9
1523144345078617,1,-4,10,1,3,3,20,4
1523144345099172,-1,-12,-51,-4,-4,-3,0,-1
1523144345099172,3,5,15,-1,-3,-5,0,-1
1523144345101176,0,8,-6,0,-1,-4,-10,-2
1523144345101176,-2,0,5,-1,0,-2,-4,0
1523144345113207,1,1,7,-2,-1,-1,2,0
1523144345113207,-4,0,0,1,-1,-2,-7,-3
1523144345122236,-1,-5,-12,-1,-2,-4,-5,-1
1523144345122236,0,0,10,-1,-2,-3,7,0
1523144345136775,3,0,-6,1,0,6,17,2
1523144345136775,-1,-1,14,-1,0,0,-4,1
1523144345138777,-1,3,1,-3,-3,-4,-3,-3
1523144345138777,0,1,-3,-6,-5,-3,-16,0
1523144345159331,-1,-3,1,1,1,-1,-4,-3
1523144345159331,-2,-1,6,-2,0,2,5,2
1523144345160835,-3,-7,-11,0,-1,-1,-4,-1
1523144345160835,-1,1,0,0,1,-2,-4,-2
1523144345172866,1,3,5,-2,-3,-5,-10,-4
1523144345172866,-2,-10,-10,-2,-2,-6,10,0
1523144345181891,1,4,-3,1,4,0,8,2
1523144345181891,-1,2,4,-4,-6,-4,-19,-4
1523144345196937,1,0,-8,1,1,2,8,2
1523144345196937,-3,-3,3,0,-5,-5,-11,-3
1523144345198435,-4,-3,19,-1,1,-1,4,-1
1523144345198435,0,9,1,3,2,0,4,0
1523144345219497,-7,-20,-31,-2,-3,-5,-9,-6
1523144345219497,4,10,6,2,0,1,2,1
1523144345220995,-2,-15,-14,-3,-3,-3,-2,0
1523144345220995,7,17,15,5,3,3,6,3
1523144345233026,0,1,11,-4,-5,0,-18,0
1523144345233026,-4,3,-1,-3,-1,2,32,-1
1523144345242051,-1,-4,-8,0,1,-3,-6,-2
1523144345242051,1,-10,5,7,1,12,34,10
1523144345257090,-1,-2,-4,0,-2,-2,5,0
1523144345257090,2,-1,-5,1,1,1,-14,0
1523144345258596,0,18,21,-4,-4,-4,-6,-3
1523144345258596,-7,-9,-19,-5,-3,-12,-14,-6
1523144345279150,-5,2,20,-2,-4,-9,-14,-4
1523144345279150,5,0,20,7,4,6,1,-2
1523144345281155,2,0,-34,-6,-2,2,4,3
1523144345281155,-4,-3,-6,-4,-4,-5,-13,-2
1523144345301709,7,23,14,5,2,3,1,2
1523144345301709,-14,-45,-63,-7,-4,-3,-15,-5
1523144345303716,2,11,26,1,-2,0,4,1
1523144345303716,-3,-9,-7,-2,0,-1,3,-1
1523144345316749,1,0,-24,0,2,2,2,1
1523144345316749,5,32,6,4,-7,-2,-5,0
1523144345318254,-5,-15,-14,-7,-2,-10,-22,-9
1523144345318254,0,-3,-8,-1,2,5,6,3
1523144345339313,-1,-1,28,5,1,12,4,0
1523144345339313,0,10,3,-5,-3,-2,6,1
1523144345341316,-9,-35,-49,-9,-5,-7,-9,-4
1523144345341316,1,20,25,0,-4,-10,-10,-5
1523144345352847,-2,-16,-19,-2,0,-3,1,-3
1523144345352847,-2,6,28,0,-3,-7,-20,-3
1523144345361870,1,12,19,6,-2,2,6,0
1523144345361870,-3,-14,-14,-1,6,9,3,0
1523144345375906,-2,-10,-15,-3,-3,-2,18,1
1523144345375906,-5,1,28,-6,-3,-9,-20,-9
1523144345384431,-3,-10,-19,2,2,10,21,6
1523144345384431,2,-7,21,0,-2,-9,-9,-1
1523144345399471,-1,15,6,-4,-1,3,5,2
1523144345399471,-2,-9,-22,-2,-1,0,-2,-3
1523144345400975,-2,6,6,0,-2,-3,3,-3
1523144345400975,-2,-4,2,-2,-2,-2,0,1
1523144345413006,-1,-7,-8,-1,-1,-2,7,0
1523144345413006,-2,-1,-1,-2,3,1,4,2
1523144345422030,2,6,4,3,2,4,5,1
1523144345422030,-2,0,-16,-3,-4,-2,0,-2
1523144345437072,-1,-1,13,-1,-1,-15,-23,-3
1523144345437072,0,0,-2,1,-1,7,18,-1
1523144345438578,0,7,28,15,1,1,4,2
1523144345438578,-1,-3,-25,-15,-4,3,-4,-1
1523144345459630,-7,-3,19,-1,-3,-11,-11,-5
1523144345459630,3,-8,-30,3,2,3,12,6
1523144345461136,-4,-22,-28,1,1,-9,-13,-4
1523144345461136,3,1,7,1,-3,-7,-4,-3
1523144345473167,-9,11,2,-4,0,-5,-13,0
1523144345473167,3,-1,9,11,-1,-5,-12,-1
1523144345482189,-19,-27,11,2,3,7,13,-10
1523144345482189,-3,6,-2,-16,-7,-7,-7,-2
1523144345496736,-1,-6,-10,-4,-2,1,-12,-3
1523144345496736,-1,5,5,-4,-1,-3,-5,0
1523144345498232,6,9,-3,9,0,-1,-5,1
1523144345498232,-1,-11,8,4,0,5,20,4
1523144345519289,2,-4,3,10,0,1,-1,1
1523144345519289,0,2,19,-14,5,9,14,-2
1523144345521297,5,4,-8,-7,-6,-1,6,3
1523144345521297,-3,-2,-3,7,4,2,8,0
1523144345541849,1,0,-13,-10,-7,-2,2,1
1523144345541849,1,8,12,6,-5,-4,-1,-1
1523144345543355,-5,1,-5,-11,-1,-3,4,0
1523144345543355,7,3,-7,-2,-1,-1,-4,-7
1523144345556387,-1,-6,13,10,1,2,7,0
1523144345556387,-6,-3,-30,0,2,5,3,-1
1523144345562905,1,6,-11,-17,-4,-5,1,-2
1523144345562905,-2,3,2,8,-1,-2,-3,0
1523144345579449,2,1,0,-1,2,4,-12,-2
1523144345579449,0,-1,11,-1,-3,-7,-15,-1
1523144345580953,5,7,-8,-6,-3,6,15,5
1523144345580953,-3,-5,-6,3,0,-4,-7,-3
1523144345602012,-1,0,-8,-3,1,2,5,-3
1523144345602012,0,0,8,0,-3,-8,-27,-1
1523144345603515,0,0,3,9,2,-3,-6,2
1523144345603515,-1,1,-12,-1,-3,-2,-7,2
1523144345616056,-4,-1,-8,-8,-4,3,24,-1
1523144345616056,-10,-8,-13,1,1,2,-17,-2
1523144345623066,14,-20,-41,-6,-3,-3,-7,-7
1523144345623066,-5,0,0,-3,-1,1,-2,-2
1523144345639107,3,0,5,2,-2,-3,0,0
1523144345639107,0,-7,-2,-1,0,-2,5,-1
1523144345641114,-8,11,6,0,-1,0,-12,-3
1523144345641114,0,0,8,-1,-1,-3,-10,-4
1523144345661667,3,-7,-6,0,1,2,16,2
1523144345661667,-2,-6,-6,-6,-4,-10,-20,-4
1523144345663673,2,11,26,1,1,4,27,3
1523144345663673,1,1,2,4,2,4,0,-1
1523144345676207,-1,-2,8,-4,-1,-2,-7,-2
1523144345676207,-3,0,-7,-4,-4,-5,7,-1
1523144345682725,-2,-7,5,0,-1,2,-9,-1
1523144345682725,-2,-5,-1,-1,0,0,-8,-3
1523144345699269,0,2,-1,0,-1,-2,0,-2
1523144345699269,-1,-7,-4,-3,-3,0,8,-1
1523144345701273,0,6,20,2,-1,-5,-17,-6
1523144345701273,0,11,14,-5,-5,-4,-5,-1
1523144345721828,-5,-15,-38,0,2,1,2,-2
1523144345721828,0,3,19,-2,-2,0,3,-1
1523144345723332,-2,6,-12,-2,-3,-1,-6,0
1523144345723332,0,-6,-33,5,1,-1,7,1
1523144345736368,-5,-15,37,-8,-5,-5,-16,-6
1523144345736368,4,-5,-12,8,4,6,9,2
1523144345742883,2,20,13,-4,-5,-5,-5,-2
1523144345742883,-17,-11,-13,0,-2,0,3,0
1523144345759428,0,-2,-16,0,-5,-5,2,-2
1523144345759428,1,1,-13,-3,1,4,11,4
1523144345760932,-1,-5,18,7,4,4,-4,2
1523144345760932,4,5,-20,2,1,3,14,0
1523144345781990,-4,13,-20,1,-1,-1,-9,-3
1523144345781990,0,2,-4,-1,1,1,-1,1
1523144345783494,-2,-7,-6,-3,-4,-10,-9,-2
1523144345783494,-3,4,33,4,3,9,6,11
1523144345795525,-1,-17,-23,-2,-1,-1,5,-1
1523144345795525,2,22,26,0,-2,-2,-7,-3
1523144345804548,-2,-6,-4,-8,-3,-5,-3,-2
1523144345804548,-1,-3,8,-2,-4,-15,-31,-5
1523144345819591,-1,11,25,1,3,6,8,-4
1523144345819591,-4,-11,-32,-1,-2,-3,1,2
1523144345821092,-5,-2,9,3,2,4,-3,-3
1523144345821092,1,1,-24,-10,-7,-13,-11,-5
1523144345841647,-2,-7,56,-7,1,-2,-7,3
1523144345841647,-9,-3,2,1,1,-4,2,-3
1523144345843651,13,7,23,-3,0,2,7,0
1523144345843651,-3,-8,-15,-3,0,0,-10,-9
1523144345855683,6,8,-5,7,2,-6,-4,3
1523144345855683,-2,2,-18,-6,-5,2,5,0
1523144345864707,-7,-20,-10,2,1,-1,-4,1
1523144345864707,3,1,-9,-7,-5,-4,-8,-6
1523144345879249,5,3,-17,1,-2,1,35,4
1523144345879249,1,0,44,-8,-6,-1,-2,-1
1523144345881253,-5,-2,-49,1,-2,-4,-11,-2
1523144345881253,4,5,7,0,2,3,3,0
1523144345901808,-4,-5,-5,1,0,0,-3,-1
1523144345901808,2,6,34,-1,0,1,1,-2
1523144345903312,-3,1,-38,-4,-4,-3,1,0
1523144345903312,-2,4,17,2,3,2,9,0
1523144345915342,-4,-18,-16,1,0,1,-7,-1
1523144345915342,2,8,15,-3,-5,-1,8,0
1523144345924367,-1,7,7,0,-5,-5,-11,-1
1523144345924367,-5,-16,22,-6,-4,-3,2,-1
1523144345939406,2,14,-4,5,4,3,13,5
1523144345939406,0,-12,-23,3,1,0,-5,0
1523144345940911,-4,6,14,-5,-3,-12,-19,-7
1523144345940911,0,2,-32,1,-1,1,8,4
1523144345961968,-1,-3,-7,-3,-1,12,-16,0
1523144345961968,-4,-10,3,-1,-1,-5,3,-3
1523144345963471,-4,-4,14,-2,-2,0,-11,-1
1523144345963471,1,5,10,2,0,3,-4,-3
1523144345975502,3,4,5,-3,-4,-3,2,-2
1523144345975502,0,-4,-20,0,1,11,25,5
1523144345984526,1,-12,9,1,1,5,14,3
1523144345984526,1,-2,10,-4,-4,-13,-3,-1
1523144345999565,-2,-3,-2,0,-1,3,5,-2
1523144345999565,-5,-17,-3,2,1,2,-2,-1
1523144346001071,2,0,11,-1,1,3,18,0
1523144346001071,3,5,-26,-1,0,2,0,1
1523144346021626,-3,-8,20,-7,-7,-10,-17,-1
1523144346021626,-2,6,20,6,2,-3,-3,-3
1523144346023631,-10,-1,-13,-2,-5,-4,-8,-1
1523144346023631,4,2,9,9,6,5,4,1
1523144346035664,-6,-12,-20,-15,-7,1,2,-1
1523144346035664,3,3,-32,13,-4,-3,-4,1
1523144346044686,-5,-1,7,-20,2,3,6,0
1523144346044686,0,2,-12,-10,-8,-6,-1,-2
1523144346059226,-2,-2,-19,6,1,-10,-15,-4
1523144346059226,-2,3,59,-4,1,4,26,3
1523144346060730,3,11,-30,13,3,7,-6,1
1523144346060730,-2,-12,29,-1,-1,1,1,-9
1523144346081787,4,4,27,-4,-1,-3,-3,-4
1523144346081787,-1,-3,-55,-4,0,-4,-9,-1
1523144346083291,3,-2,-10,3,-2,-4,5,-1
1523144346083291,-3,-8,1,-2,2,2,-3,1
1523144346095323,-3,7,28,2,-4,-6,-13,-3
1523144346095323,1,-2,-4,-6,-2,-3,-5,-7
1523144346104346,3,2,9,-5,0,-3,-24,0
1523144346104346,-7,0,5,2,3,6,10,-3
1523144346119389,-1,3,-8,3,2,5,22,2
1523144346119389,0,3,-8,-4,-2,-2,-12,-4
1523144346120890,0,-10,2,0,-3,-2,6,-1
1523144346120890,0,2,9,0,-3,-5,-18,0
1523144346141944,3,6,9,2,-1,-4,1,5
1523144346141944,0,-1,7,-4,1,-3,-16,-2
1523144346143450,-3,-2,12,4,1,9,34,2
1523144346143450,-1,-4,-7,2,0,3,6,2
1523144346155481,-1,4,-10,-3,-3,-4,-4,-4
1523144346155481,-1,-3,2,-5,-3,-6,-9,-2
1523144346164510,-1,-2,19,0,1,-3,-5,-2
1523144346164510,-1,2,0,2,1,2,1,-1
1523144346179546,0,-8,-28,-1,1,2,-10,-1
1523144346179546,-1,4,-18,-3,-4,-9,-1,-3
1523144346181054,3,13,52,2,2,1,-4,-1
1523144346181054,-7,-16,-10,-6,-1,-2,-3,-6
1523144346202106,2,2,2,2,2,2,8,2
1523144346202106,-3,-1,-9,-3,-2,-6,-12,-2
1523144346203615,1,-2,4,-1,-4,-5,-16,-3
1523144346203615,2,2,-10,-1,-2,-2,11,2
1523144346215642,-2,5,21,3,0,2,-5,-2
1523144346215642,-2,-6,-14,-6,-6,0,-4,-1
1523144346224667,2,11,6,3,3,3,-1,-3
1523144346224667,-3,-7,-5,2,2,2,-1,1
1523144346239206,-6,-16,-40,-6,-3,-4,-1,-3
1523144346239206,4,0,16,1,1,2,-11,-1
1523144346241210,1,14,-27,-1,-6,-4,21,1
1523144346241210,0,-17,-42,-4,-5,-6,-8,0
1523144346261766,-4,-3,11,-2,-4,-3,-16,-6
1523144346261766,-5,-10,-18,2,0,-7,-15,-3
1523144346263269,0,15,8,-5,-3,3,34,0
1523144346263269,2,5,32,3,1,0,-14,2
1523144346275301,8,2,-17,-1,-1,0,7,-1
1523144346275301,-2,-10,-16,1,1,2,1,-1
1523144346284328,-2,-8,8,4,2,3,-22,1
1523144346284328,5,25,-3,-4,-1,1,-7,-2
1523144346299367,-1,10,24,6,1,0,7,-2
1523144346299367,0,-12,50,-4,-5,-2,-5,-2
1523144346300869,-3,-12,-41,-1,3,1,-1,0
1523144346300869,8,5,-7,0,-1,2,4,-1
1523144346321925,1,17,19,5,9,4,1,3
1523144346321925,-4,-8,15,0,0,5,19,0
1523144346323429,1,-7,-33,-3,-6,-4,-4,-3
1523144346323429,-5,1,-4,-8,-8,-8,13,-1
1523144346335462,-7,-15,27,2,2,2,2,6
1523144346335462,2,18,-3,0,2,2,2,0
1523144346344485,-1,-2,-1,0,-1,-1,-5,-5
1523144346344485,-1,-1,-17,3,3,2,0,1
1523144346358522,-5,0,-1,-9,-10,-9,-1,-5
1523144346358522,-3,2,-12,2,1,0,16,0
1523144346365540,1,-5,21,-6,-5,-7,-22,-4
1523144346365540,3,21,10,3,2,5,17,0
1523144346382090,-9,-34,-45,-9,-8,-6,-11,-8
1523144346382090,1,11,-24,-3,-5,-12,-23,-5
1523144346383592,-1,-13,49,6,5,4,22,5
1523144346383592,-2,-9,-52,-2,-2,-4,-12,-1
1523144346395621,-3,2,-11,-2,-3,1,22,0
1523144346395621,1,9,17,-4,-6,1,-17,-4
1523144346404645,0,-4,17,3,6,4,5,1
1523144346404645,-7,-12,47,-3,-4,-8,-4,-2
1523144346418685,1,11,-4,1,-3,-6,-27,-5
1523144346418685,1,-4,-9,-1,-1,2,27,2
1523144346425701,-1,13,-10,-2,-3,-3,-20,-5
1523144346425701,-5,-17,5,-1,-1,-4,-4,0
1523144346441743,1,6,-19,2,0,1,-17,-2
1523144346441743,3,-7,22,0,3,2,8,1
1523144346443248,4,-1,-1,0,-1,-2,-11,-5
1523144346443248,-1,-3,-14,0,1,9,-12,0
1523144346464304,3,12,14,-1,-2,-6,-4,-1
1523144346464304,-6,-13,-1,1,-1,-3,-5,-1
1523144346466309,-9,-17,-45,-5,-3,-1,1,-1
1523144346466309,-13,5,-3,-1,-6,-8,-13,-3
1523144346478845,16,-15,36,29,11,13,31,9
1523144346478845,-5,-1,-19,-24,0,10,5,1
1523144346485360,-3,4,-10,-9,-9,-10,-4,-9
1523144346485360,-2,-9,-2,18,3,-2,-20,-3
1523144346501906,1,4,-3,-5,1,0,-4,5
1523144346501906,2,0,-12,-10,-2,-1,-8,-1
1523144346503912,7,5,-5,2,0,-2,8,3
1523144346503912,-4,-2,8,-13,0,7,6,0
1523144346524464,-4,4,-13,6,1,-3,-4,-6
1523144346524464,2,8,39,18,3,-5,-4,-3
1523144346525968,-9,12,-37,-14,-2,4,1,5
1523144346525968,2,-6,-8,-15,-9,-7,11,-5
1523144346538501,-6,-20,-15,-10,0,0,7,0
1523144346538501,-9,7,4,8,-1,1,1,-1
1523144346545520,22,-1,0,11,5,-1,-6,-2
1523144346545520,-3,-2,15,-8,-3,1,6,-1
1523144346562063,-6,-9,-12,-21,-5,-2,-1,-2
1523144346562063,-3,4,6,1,-4,-4,-3,3
1523144346563567,-15,-20,-12,7,0,-8,-23,-6
1523144346563567,14,11,36,8,4,2,3,-1
1523144346584121,-8,-5,-14,-7,-2,0,-6,-3
1523144346584121,2,-1,3,2,1,0,1,-1
1523144346586131,-5,-3,8,0,0,3,-11,-2
1523144346586131,-3,0,20,-3,-1,-4,2,3
1523144346598664,-3,7,-2,1,-2,0,1,-1
1523144346598664,1,-9,-29,2,-2,-5,-5,-3
1523144346605679,-6,-1,15,1,2,3,15,3
1523144346605679,-3,0,-10,-1,-2,-1,2,-1
1523144346621723,4,2,6,2,-3,-5,0,-1
1523144346621723,0,-8,-11,-4,-1,2,-7,-1
1523144346623227,2,2,-14,-5,-3,-5,-13,-3
1523144346623227,0,-10,25,3,1,6,-3,-2
1523144346644284,2,6,20,1,-1,-2,-4,-1
1523144346644284,1,4,3,-1,-1,-2,4,-1
1523144346645788,-6,-6,-14,-1,-4,-3,4,-1
1523144346645788,1,0,-1,4,3,1,-1,-2
1523144346658822,0,5,1,-3,-3,2,9,1
1523144346658822,0,4,7,-1,1,-6,-4,-1
1523144346665340,0,-1,-27,0,0,5,6,0
1523144346665340,-1,-2,-3,-3,-3,-4,0,0
1523144346681882,0,6,16,-4,-3,-1,0,-2
1523144346681882,-1,-4,-12,0,-2,-1,3,-1
1523144346683386,-1,-5,11,1,0,-4,-16,-1
1523144346683386,3,-1,-28,-2,-1,2,34,1
1523144346704441,0,-1,-32,1,1,1,-8,-3
1523144346704441,0,-1,15,0,-1,1,0,1
1523144346705947,-4,0,-16,-2,-2,-1,0,0
1523144346705947,-2,-2,-4,0,-1,-2,-10,-2
1523144346717984,-3,-7,-5,1,-1,-1,-4,-2
1523144346717984,1,1,-12,-2,-1,0,4,-1
1523144346727007,-1,-3,21,-1,-1,-3,-4,0
1523144346727007,-5,-5,-8,2,0,-4,-5,-4
1523144346742043,1,0,-5,0,-2,-9,-23,-2
1523144346742043,0,2,1,0,1,3,40,1
1523144346743547,-3,-3,31,0,-1,-2,-13,1
1523144346743547,1,1,-1,-2,-2,-1,-2,-2
1523144346771621,1,-2,13,-1,0,1,-5,9
1523144346771621,-1,0,30,2,1,-4,-16,0
1523144346773627,-3,-13,-43,-4,-5,-1,7,-36
1523144346773627,1,1,12,0,2,-1,-8,11
1523144346779145,-7,6,11,-3,-6,-4,7,-5
1523144346779145,8,-8,-29,4,3,3,2,12
1523144346787164,-5,6,33,0,0,5,19,7
1523144346787164,-4,-18,-12,-1,1,-4,-21,-10
1523144346802208,-1,5,-4,3,2,5,16,4
1523144346802208,-8,-16,-12,-8,-7,-2,-8,-16
1523144346803706,6,4,17,-5,0,-7,-23,2
1523144346803706,3,21,-6,-1,-4,-6,-9,-2
1523144346824263,-4,-10,17,1,0,-2,-6,-2
1523144346824263,2,-2,-6,2,3,9,10,1
1523144346825766,0,-2,5,-3,-2,-5,9,2
1523144346825766,-5,-3,20,2,-3,2,1,0
1523144346838300,2,-3,36,1,3,7,6,-3
1523144346838300,-9,4,-35,-5,-4,-3,-6,-3
1523144346847323,-7,2,-20,-4,-4,1,1,4
1523144346847323,27,9,15,-1,3,1,5,-1
1523144346861864,-6,-20,9,-5,0,1,7,-6
1523144346861864,-5,0,3,-2,-6,-7,-1,-2
1523144346863365,6,3,-6,4,5,9,-6,9
1523144346863365,-3,3,-14,0,1,0,11,-4
1523144346884421,0,4,-46,-10,-5,-9,-26,-6
1523144346884421,1,-13,-18,-1,2,6,15,1
1523144346885931,3,13,15,1,-3,-2,25,1
1523144346885931,-5,-12,6,2,-1,-2,3,-3
1523144346897962,-2,-6,-11,4,3,1,7,0
1523144346897962,2,14,35,-7,-6,-3,-17,-1
1523144346906981,0,-10,-9,2,-1,1,-2,-2
1523144346906981,-5,-2,-36,0,1,2,5,0
1523144346922521,-4,-3,47,2,-5,-7,0,-1
1523144346922521,0,-3,-44,-5,-2,-6,-17,-7
1523144346924032,0,-6,13,-2,-4,-8,-3,-1
1523144346924032,-2,3,-8,-1,1,3,5,2
1523144346944581,2,3,-13,0,2,-1,-2,2
1523144346944581,-1,0,9,4,1,-2,-16,-4
1523144346946085,-6,-2,20,-5,-2,-5,-9,2
1523144346946085,-3,-12,-51,-2,-4,2,35,0
1523144346958119,3,9,-17,0,-1,2,-5,2
1523144346958119,-1,-4,11,1,-1,-5,-2,-2
1523144346973157,-1,3,-4,3,4,0,7,2
1523144346973157,0,1,29,-1,-1,-1,-16,2
1523144346981683,3,1,-32,-3,-2,-4,-8,-6
1523144346981683,1,6,9,-2,-3,-2,14,0
1523144346983687,-12,-6,-16,11,-2,-6,-21,-7
1523144346983687,5,-4,21,-17,3,9,18,0
1523144347004244,-4,-4,-6,1,-4,-7,-16,-11
1523144347004244,7,9,-4,14,2,-10,-9,-1
1523144347005744,-4,0,3,-25,-10,4,-6,2
1523144347005744,-6,1,-23,5,5,6,5,1
1523144347017776,4,2,-9,6,-3,-2,5,-2
1523144347017776,-3,3,10,-14,-2,-5,-5,-4
1523144347027301,1,-1,34,20,3,0,17,0
1523144347027301,-3,-2,-17,-11,-5,-6,-15,-2
1523144347042342,2,6,8,-9,0,4,2,3
1523144347042342,0,1,-6,5,-1,-3,-6,2
1523144347044347,3,0,-4,-6,-1,1,13,1
1523144347044347,-4,-1,4,2,0,-8,-27,-1
1523144347064401,-6,-7,7,-3,-3,-1,16,0
1523144347064401,-1,-2,-3,4,1,4,2,1
1523144347065917,3,1,-11,8,7,5,1,-1
1523144347065917,-5,-3,23,-26,-14,-16,-24,-9
1523144347077936,-4,-7,-38,0,-2,3,-10,2
1523144347077936,-3,-9,23,-5,-3,-1,0,1
1523144347086962,-11,-22,-14,-1,2,-1,-3,-2
1523144347086962,15,5,18,18,3,1,5,1
1523144347102001,1,10,7,-5,0,2,4,1
1523144347102001,-5,-16,-15,-2,0,5,4,-2
1523144347103508,0,-1,0,0,-1,-5,-19,-7
1523144347103508,-4,-1,-15,1,-2,-5,1,0
1523144347124560,-2,-6,-5,0,0,1,-12,-2
1523144347124560,1,4,1,5,5,6,20,7
1523144347126066,6,5,3,-6,-3,-5,-18,-4
1523144347126066,-3,-3,-2,2,-3,-2,5,1
1523144347138096,-4,-1,1,-2,-4,-4,-3,-1
1523144347138096,-2,2,7,0,-1,-8,-15,-3
1523144347147120,-3,-6,-29,-6,1,7,20,2
1523144347147120,-4,1,17,2,1,-1,1,0
1523144347161659,-3,-3,-28,4,3,1,7,0
1523144347161659,-4,-7,-21,-6,-3,-4,-13,-3
1523144347163665,5,3,2,-3,-4,0,9,1
1523144347163665,-4,-3,0,6,3,2,-5,-5
1523144347184221,1,3,13,0,-2,-2,10,2
1523144347184221,1,0,-3,-3,0,3,-6,-6
1523144347186227,3,-2,-19,-2,-1,-1,4,0
1523144347186227,-3,2,5,4,1,-4,-4,-1
1523144347197755,3,3,7,-1,0,2,1,0
1523144347197755,-4,-8,26,-1,0,0,2,0
1523144347207280,-2,-2,-6,-3,-2,-6,-2,-4
1523144347207280,0,5,-13,2,-2,2,2,1
1523144347221819,-2,9,35,-3,-4,-4,-4,-3
1523144347221819,0,4,-4,0,-1,1,-2,-1
1523144347223323,0,5,35,0,1,1,-1,-1
1523144347223323,-3,-7,-6,-1,-1,1,-3,-1
1523144347244378,0,-2,-24,-3,-2,-4,-4,-2
1523144347244378,-3,-9,2,-2,-2,-1,2,-2
1523144347245883,-1,-5,-6,1,3,-1,8,20
1523144347245883,0,1,-6,-2,-4,1,1,-26
1523144347257917,-2,-4,18,-1,0,-2,2,6
1523144347257917,-2,3,7,2,1,2,-3,-3
1523144347266939,0,-6,13,-4,-6,-6,-17,-4
1523144347266939,-1,14,-32,-5,-5,-9,-9,7
1523144347281978,0,-9,-12,0,0,1,4,-4
1523144347281978,-1,-6,9,2,4,3,24,3
1523144347283483,0,8,-21,0,0,-1,-12,1
1523144347283483,2,-11,53,0,-3,-5,7,4
1523144347304540,-15,-1,5,-5,-4,-3,-7,-7
1523144347304540,3,7,5,-2,-1,-3,-18,2
1523144347306044,-1,1,-18,0,1,-3,-11,-9
1523144347306044,-3,-8,-27,3,2,9,7,3
1523144347318078,5,1,66,4,1,-1,8,3
1523144347318078,-4,-14,-52,-7,-5,-2,-46,-7
1523144347327101,1,9,-5,-3,-2,-1,21,-8
1523144347327101,-2,-9,-3,0,2,1,-4,0
1523144347341637,-4,2,9,2,3,8,8,7
1523144347341637,0,5,0,-2,-2,-6,-15,-7
1523144347343643,2,-1,9,2,-3,2,1,-3
1523144347343643,-3,-3,-6,-4,-3,-3,-5,3
1523144347364198,2,4,-20,1,0,-6,-4,-1
1523144347364198,-2,-14,-9,2,0,-2,14,0
1523144347366203,0,14,-13,-2,-1,-4,7,2
1523144347366203,-2,-14,14,-3,-1,-7,8,7
1523144347386761,6,6,-3,3,1,2,-27,-4
1523144347386761,-2,10,11,-4,-7,-2,10,-2
1523144347388764,0,-4,19,5,0,2,-1,-1
1523144347388764,-4,-7,-5,2,0,-7,-21,-7
1523144347401302,4,1,-16,-4,-1,3,46,8
1523144347401302,-2,-4,-27,-3,-1,-1,7,-1
1523144347407815,-3,-2,4,-2,-2,-1,-28,-6
1523144347407815,0,7,7,1,0,6,14,2
1523144347424359,-3,-3,-7,-1,-2,-4,-3,-6
1523144347424359,1,4,18,3,0,4,19,2
1523144347425862,-4,-9,-36,-4,-2,-2,5,-1
1523144347425862,-2,3,10,-2,-1,-1,-12,-4
1523144347446917,-1,-6,-4,1,0,0,3,-3
1523144347446917,-2,2,-1,-2,-2,-3,-1,1
1523144347448422,2,3,14,-1,-4,-7,-3,-1
1523144347448422,-5,-1,24,-2,-4,-2,-5,-7
1523144347460957,-2,2,-22,-1,-1,8,3,0
1523144347460957,1,-2,15,1,1,4,5,1
1523144347467980,-3,3,-24,0,1,3,-5,-5
1523144347467980,-4,-5,6,0,-2,0,-2,4
1523144347484524,0,-4,-3,-3,-6,-17,-29,-2
1523144347484524,-2,-16,-54,-1,4,8,16,3
1523144347486023,0,3,19,-1,-5,-7,-11,1
1523144347486023,2,5,31,-3,-1,3,-2,2
1523144347507078,-1,-4,-38,-9,-2,-12,-20,-7
1523144347507078,0,15,26,8,2,7,1,6
1523144347508582,1,-14,-23,-2,-2,0,1,-2
1523144347508582,0,4,8,12,4,10,-1,2
1523144347521126,-6,-1,14,-6,2,2,37,-1
1523144347521126,13,-13,30,-24,-1,-2,-8,2
1523144347528135,-8,-2,7,16,-2,1,3,-9
1523144347528135,-1,5,-28,-12,-2,-5,-1,-6
1523144347544179,1,-5,8,-8,-6,3,8,6
1523144347544179,-8,8,-17,-8,-10,-13,-16,-6
1523144347546182,-3,-5,0,3,6,9,19,1
1523144347546182,8,4,1,13,5,-3,0,-3
1523144347566736,-2,-12,-10,1,1,-2,-3,6
1523144347566736,5,11,-10,-15,-9,-5,-6,0
1523144347568743,-1,-7,37,-23,-4,-2,-6,2
1523144347568743,-3,0,-43,6,-1,-2,7,-1
1523144347581278,0,13,76,9,4,2,-8,-2
1523144347581278,-2,-2,-24,13,5,-1,-1,-2
1523144347587796,1,-1,23,2,-2,-9,-16,0
1523144347587796,-2,4,5,-7,-4,-2,5,3
1523144347604343,3,1,-23,0,-1,0,-9,-6
1523144347604343,-2,-7,2,4,1,-2,-12,-2
1523144347605844,-2,19,20,-4,-2,-1,3,0
1523144347605844,-2,-6,-24,-2,-3,-6,4,-2
1523144347626897,0,-3,-11,2,4,13,4,-1
1523144347626897,-1,0,5,3,2,-5,-5,-3
1523144347628401,0,-6,-24,-7,-4,1,8,0
1523144347628401,-3,-1,17,-6,-13,-1,-8,-1
1523144347640432,-1,-7,-13,4,6,-5,-4,-2
1523144347640432,-1,6,14,7,5,5,4,-1
1523144347649457,-2,-11,-19,-5,-6,-3,1,0
1523144347649457,-2,-1,-17,-5,-1,-5,-6,-2
1523144347664496,-2,-6,21,4,-1,2,1,0
1523144347664496,-3,-2,-5,-3,-4,-4,-10,-5
1523144347666001,0,0,10,5,6,2,2,-1
1523144347666001,-2,-6,-2,-3,-7,2,11,-3
1523144347687562,0,5,-29,-5,-12,-7,-21,-2
1523144347687562,-1,4,34,7,13,8,29,-3
1523144347689063,0,4,6,1,-2,6,-3,0
1523144347689063,1,-2,-5,2,3,1,-3,4
1523144347700602,0,0,-6,-5,6,2,-5,11
1523144347700602,-5,-12,-3,-5,-10,-7,4,-38
1523144347709617,2,8,19,-2,-4,-9,-18,13
1523144347709617,0,-4,-35,-1,-4,-8,-21,-6
1523144347724155,5,4,23,5,5,10,42,13
1523144347724155,-4,-9,-27,-7,-3,-6,17,13
1523144347726161,-3,-7,-30,-2,-1,-1,2,-8
1523144347726161,0,3,-1,-3,0,-5,-17,-2
1523144347746716,-2,-7,-1,-5,-7,-5,-5,-5
1523144347746716,-2,3,4,5,-1,0,-20,-2
1523144347748219,1,0,3,1,2,2,7,4
1523144347748219,-3,-10,6,1,0,6,10,5
1523144347761756,0,5,-18,-6,-8,-10,-8,-10
1523144347761756,0,-1,-41,-1,-3,1,8,3
1523144347767803,-4,-18,-10,0,0,-1,-7,-5
1523144347767803,0,5,44,0,5,1,-6,-1
1523144347784327,-2,1,-18,-2,-4,-6,-15,-8
1523144347784327,0,-1,11,1,-3,-1,5,8
1523144347785820,2,0,-14,0,1,1,-19,-1
1523144347785820,-4,-1,6,-2,0,2,36,3
1523144347806876,-5,-10,-10,0,0,3,7,-4
1523144347806876,2,10,9,-2,-5,-2,-7,5
1523144347808380,1,-2,15,-1,1,-1,-5,-4
1523144347808380,2,6,3,0,3,5,14,-5
1523144347821917,-3,-7,-18,-4,-3,-6,-11,-1
1523144347821917,-4,-5,1,1,0,0,-12,2
1523144347827935,0,12,13,2,-1,5,18,1
1523144347827935,-3,-12,-9,-4,-3,-8,-15,-6
1523144347844475,0,-3,12,0,1,-3,-39,-3
1523144347844475,-1,13,-9,-2,-2,7,60,10
1523144347845980,-5,-16,10,-4,-2,-3,-1,-2
1523144347845980,-1,-2,-6,1,-1,-4,-5,1
1523144347867037,0,-4,-20,1,-1,-1,-5,-6
1523144347867037,1,-8,24,-1,0,-1,-9,-3
1523144347868540,2,17,11,1,-2,0,3,-3
1523144347868540,-1,3,-13,1,-1,0,2,1
1523144347880571,-1,2,47,0,1,0,26,2
1523144347880571,0,1,24,1,-3,-4,-34,-4
1523144347889596,-2,-8,-11,-1,-3,-2,10,2
1523144347889596,0,-10,-9,-4,0,2,-11,-3
1523144347904137,2,5,7,-2,-2,2,2,-1
1523144347904137,0,1,2,1,0,3,15,3
1523144347906140,-3,-7,-12,-2,-1,-1,-9,-7
1523144347906140,1,16,17,-2,0,-3,3,-1
1523144347926696,-9,-21,-14,2,-3,2,-3,-1
1523144347926696,2,3,-2,-4,-3,-10,-14,-4
1523144347928700,-4,-2,-18,0,0,5,0,-2
1523144347928700,6,-1,-9,-4,-3,-6,-4,-2
1523144347940232,2,3,-1,15,-1,-11,-25,-7
1523144347940232,-2,-5,5,0,7,5,-1,0
1523144347949257,2,-14,-6,-28,-7,-8,0,1
1523144347949257,0,-8,-23,14,0,4,2,5
1523144347964295,2,-2,14,-16,1,0,-6,8
1523144347964295,-18,1,43,0,-5,-3,-4,-30
1523144347965799,17,20,-3,9,-2,-5,-4,1
1523144347965799,-14,-23,-50,-7,0,8,0,-5
1523144347986854,5,19,-25,-5,-3,1,14,-2
1523144347986854,-6,-9,19,5,0,3,-6,9
1523144347988360,17,15,1,3,4,6,15,-2
1523144347988360,-3,-17,-22,-1,-8,-5,-10,-3
1523144348000396,-7,-1,23,1,2,-1,6,1
1523144348000396,3,3,15,-5,-1,-1,-8,2
1523144348009415,-9,3,-4,6,1,-5,-3,-5
1523144348009415,4,-4,18,3,4,-4,-4,5
1523144348024458,-2,0,-12,-4,0,2,4,-4
1523144348024458,6,0,-17,-2,-3,-5,-8,-2
1523144348025960,-7,-11,0,2,0,9,24,5
1523144348025960,0,12,16,-8,-5,-3,9,-4
1523144348047014,3,1,3,-1,-1,3,11,5
1523144348047014,-1,-2,-26,0,3,3,-1,5
1523144348048519,-7,-2,-6,2,1,0,-19,-2
1523144348048519,-1,8,16,-6,-3,-6,-8,0
1523144348060550,3,-2,-10,-1,-3,0,-8,-6
1523144348060550,7,-6,-18,3,1,1,-3,2
1523144348069576,-7,-2,10,-4,-3,-5,-4,-2
1523144348069576,2,5,6,0,-1,0,-3,-1
1523144348084121,-2,-7,-13,2,0,-3,2,-3
1523144348084121,3,6,5,-2,-3,-3,-11,-1
1523144348086119,-2,-3,0,-1,2,1,6,0
1523144348086119,0,4,8,-3,-2,1,-2,0
1523144348107175,-3,0,-4,2,2,1,-7,-1
1523144348107175,-2,-3,-24,0,1,1,-10,0
1523144348108679,-2,-4,-30,0,-3,-3,20,-1
1523144348108679,-4,-6,7,0,2,5,2,0
1523144348120711,-2,6,1,-1,0,0,6,2
1523144348120711,-1,-9,-2,-2,-4,-5,3,-1
1523144348129734,-3,-1,13,-1,-2,-2,-9,-1
1523144348129734,2,0,6,-1,-1,1,-1,1
1523144348144272,-1,8,-6,3,0,-3,2,-1
1523144348144272,-2,4,-5,-3,0,0,1,0
1523144348145778,-2,-6,12,-3,-13,-2,-4,-2
1523144348145778,0,5,55,2,11,0,-5,1
1523144348166837,-1,-5,-6,-3,0,0,-18,-3
1523144348166837,-1,-1,-23,1,0,-2,44,4
1523144348168338,-4,-6,-1,-4,-3,-5,-4,-1
1523144348168338,1,3,0,0,-2,0,-22,-2
1523144348180372,-1,-5,-7,0,-2,1,2,0
1523144348180372,-1,0,-3,-1,-3,-2,-12,-3
1523144348189394,-6,-10,-22,-1,1,2,0,-1
1523144348189394,2,9,13,1,6,3,6,0
1523144348204437,-2,-6,9,-4,-1,-5,-4,-4
1523144348204437,1,10,-6,-4,-5,-2,23,3
1523144348205939,-5,-19,-2,-8,-4,-5,-16,-5
1523144348205939,-4,-4,-26,1,-4,-4,4,-3
1523144348226995,-2,-11,-10,0,0,4,8,0
1523144348226995,-3,-1,87,-2,-2,-1,-18,-3
1523144348228499,1,-3,-52,1,2,3,12,0
1523144348228499,-2,9,-25,-2,-1,2,13,1
1523144348240530,0,-8,-3,-4,-4,2,10,1
1523144348240530,5,10,7,0,1,0,19,4
1523144348249554,2,16,19,1,3,-1,-17,-1
1523144348249554,-4,-4,-2,-2,-2,1,17,-3
1523144348264595,-1,4,-15,-3,-1,-3,-2,-3
1523144348264595,-1,-10,-32,4,2,-3,-22,0
1523144348266099,5,11,10,-4,-3,-5,16,-3
1523144348266099,-1,3,-20,4,0,-1,-2,1
1523144348286655,-3,-5,25,0,-3,-5,-3,0
1523144348286655,4,-8,-74,-5,0,5,0,10
1523144348288659,-2,14,-4,3,4,6,-15,-1
1523144348288659,4,-16,23,-4,-3,-8,-14,-16
1523144348309212,8,16,-5,0,-3,3,11,-11
1523144348309212,-6,4,-1,4,0,-2,-13,1
1523144348311217,1,-1,15,0,1,-2,-3,4
1523144348311217,2,-10,5,-5,-1,-4,-15,15
1523144348323751,-9,4,21,-1,-1,-1,7,-1
1523144348323751,5,9,-4,-3,-4,-17,-4,-5
1523144348330268,-1,3,18,9,9,20,23,20
1523144348330268,4,17,13,-1,-5,-3,4,-4
1523144348346827,-6,-12,-29,-4,-4,-8,-16,-3
1523144348346827,-3,-7,44,0,1,3,0,-2
1523144348348316,0,1,32,6,3,-1,-9,-5
1523144348348316,-6,-2,-61,-6,-5,-1,-11,-3
1523144348369375,1,-1,-13,4,7,7,4,1
1523144348369375,1,-3,0,-8,-4,-4,-16,1
1523144348370878,-7,3,32,-3,1,-1,10,-7
1523144348370878,-2,-11,16,1,-2,0,-3,-2
1523144348383912,3,-2,-20,-3,-3,-6,-2,6
1523144348383912,-4,-5,-55,-3,-1,-1,-7,-9
1523144348390432,0,-8,-18,0,-2,-9,-5,-1
1523144348390432,-4,2,0,0,2,11,-1,1
1523144348406973,-4,5,15,-1,0,-3,-12,0
1523144348406973,11,7,74,3,-1,11,24,2
1523144348408478,-5,-16,-35,-4,-4,-5,-8,-5
1523144348408478,-3,-3,-20,0,-1,0,5,2
1523144348429533,1,0,-3,1,0,-2,-5,-4
1523144348429533,-11,-7,19,1,2,-1,-22,-10
1523144348431037,-3,-4,-43,-3,-4,-4,18,3
1523144348431037,3,1,50,-3,-8,-13,-11,-1
1523144348443570,-5,-5,4,0,4,-1,-10,-3
1523144348443570,-2,-2,-13,-1,-1,7,40,-4
1523144348458110,-1,-5,-31,-3,-1,-1,-14,-3
1523144348458110,-4,1,-4,-2,-4,-9,-1,1
1523144348466637,-1,-4,11,-5,-4,-2,4,-2
1523144348466637,-3,4,-9,10,-1,-6,-9,-1
1523144348468637,-1,-7,1,-5,-5,-6,-15,-3
1523144348468637,-4,-4,10,3,4,9,17,0
1523144348489695,-3,-9,-3,-1,0,-1,-12,1
1523144348489695,1,0,-13,3,0,-1,-4,-1
1523144348491197,-3,0,17,0,-1,-5,4,-5
1523144348491197,-8,2,-28,-7,-3,-5,-17,-2
1523144348503729,23,8,33,8,4,5,5,1
1523144348503729,-13,-9,-18,-19,-14,-12,-12,-4
1523144348510749,8,3,4,-11,-2,3,2,0
1523144348510749,4,11,20,12,-1,2,0,-2
1523144348526792,-5,-5,-12,7,17,7,13,1
1523144348526792,3,12,32,-8,-7,0,-3,3
1523144348528296,-4,-25,-47,-3,3,-5,-6,-5
1523144348528296,-4,4,74,-4,-3,0,-1,-1
1523144348549352,-2,-4,4,-1,-11,-1,27,2
1523144348549352,2,1,-14,10,9,3,-7,0
1523144348550856,3,3,50,-2,-8,-6,-7,-2
1523144348550856,-7,-9,-54,-2,2,-1,-1,-2
1523144348562888,-4,3,-27,1,-4,-5,3,-2
1523144348562888,-4,-7,25,-4,2,-3,-10,1
1523144348571912,-12,-2,8,3,3,19,22,0
1523144348571912,15,-8,5,1,3,2,6,-4
1523144348586952,-2,4,10,-4,-1,-2,-9,-2
1523144348586952,0,-7,-36,-2,-1,3,9,0
1523144348588456,-6,10,14,4,-1,-3,-14,-3
1523144348588456,-5,-10,-6,-2,-2,-7,-4,-2
1523144348609511,-5,-1,-16,-8,-6,4,-2,-2
1523144348609511,-5,-9,-7,1,2,-1,-3,-1
1523144348611016,9,19,41,4,0,-4,3,1
1523144348611016,-1,-2,-67,-6,-5,0,0,-1
1523144348623047,0,3,10,-4,-3,-8,-9,-1
1523144348623047,-6,-5,-29,1,1,-3,-10,-1
1523144348632073,2,2,4,0,1,2,14,0
1523144348632073,1,2,3,0,1,6,18,1
1523144348646610,-5,-4,-4,1,-2,-2,-13,-4
1523144348646610,2,0,12,-1,0,1,1,-1
1523144348648616,0,-2,-21,-4,-3,-7,-21,-2
1523144348648616,2,-1,7,-2,-3,-4,5,0
1523144348669170,0,-5,-12,0,0,1,6,0
1523144348669170,0,0,23,-1,0,1,-13,-1
1523144348671175,1,1,-6,0,1,-1,-4,-1
1523144348671175,-5,-4,6,1,-1,-3,1,1
1523144348683208,0,-4,-17,-6,-4,-5,-2,-3
1523144348683208,2,-3,-15,1,-1,-2,-7,-2
1523144348692233,-2,-3,0,0,-1,-6,-15,-3
1523144348692233,1,5,34,-1,-1,-3,12,-1
1523144348706772,-1,11,-18,-2,-3,-3,0,1
1523144348706772,2,-10,-22,-1,3,3,7,0
1523144348708277,-3,0,-3,1,0,1,-1,0
1523144348708277,2,12,1,2,0,2,-11,-1
1523144348729331,-2,-11,14,-8,-5,-6,-2,-2
1523144348729331,-2,6,-8,0,-1,0,-3,-2
1523144348730835,-5,-11,31,-1,0,-1,-2,-3
1523144348730835,-1,-2,-53,-7,-4,-4,9,2
1523144348742866,2,-6,35,4,2,4,1,7
1523144348742866,0,5,-16,-2,0,-2,-2,-2
1523144348751891,-9,-8,-8,1,-1,-2,-12,7
1523144348751891,15,-10,6,-1,-1,-4,-7,-6
1523144348766931,-1,6,-30,-1,-3,-2,0,-1
1523144348766931,-9,-6,27,-4,-2,-2,-9,-4
1523144348768435,2,17,9,4,0,-2,7,3
1523144348768435,-4,11,0,-1,-2,-4,-13,-2
1523144348789490,-4,-7,3,0,0,0,-5,-2
1523144348789490,1,2,-26,-3,-6,-7,0,1
1523144348790995,5,-3,11,-1,2,4,26,1
1523144348790995,-7,0,6,-4,-4,0,-10,-2
1523144348803025,4,5,26,-1,-1,-14,-11,-3
1523144348803025,-4,-1,0,0,-1,4,11,0
1523144348812050,4,-8,-25,10,10,11,7,3
1523144348812050,-5,2,1,-1,4,1,-12,-1
1523144348827090,-8,-36,-38,-6,-6,-1,32,3
1523144348827090,4,11,38,-3,-2,-4,0,2
1523144348828598,0,6,-14,-5,-6,-6,-12,-1
1523144348828598,-1,-6,22,7,7,12,7,6
1523144348849653,1,6,-69,1,1,4,-7,-3
1523144348849653,0,-5,23,-2,-3,-2,-1,-1
1523144348851154,0,1,9,-4,-3,-5,0,-5
1523144348851154,-9,-17,-41,4,-1,-5,-3,-2
1523144348863186,4,19,73,0,3,10,10,5
1523144348863186,-3,-9,-11,0,3,3,0,-3
1523144348872210,2,11,-36,-1,-2,-8,-12,-3
1523144348872210,-3,-15,34,-3,-3,-5,14,-2
1523144348886748,1,10,5,-1,-2,-2,-14,-4
1523144348886748,2,2,-18,0,-2,-1,-3,2
1523144348888253,0,5,15,-3,0,-8,-38,-7
1523144348888253,5,6,-4,-1,1,16,21,7
1523144348909310,-5,0,10,-1,0,-4,-6,-5
1523144348909310,1,-5,-14,-1,2,-2,-5,-2
1523144348910816,-1,-8,-5,-3,-4,-3,-1,-2
1523144348910816,2,5,-10,-3,-2,-6,-14,-5
1523144348922846,-2,-3,20,-3,1,-4,1,0
1523144348922846,-1,4,-17,1,1,-1,2,0
1523144348932372,-5,-7,20,-2,-2,3,4,-4
1523144348932372,0,4,12,-3,-2,-3,-5,-2
1523144348946910,0,-9,-8,-1,-3,2,-9,-1
1523144348946910,-1,-2,-7,1,-1,-5,4,0
1523144348948414,-16,-5,5,-3,-5,-2,4,-2
1523144348948414,-6,4,-2,2,1,-2,-3,-1
1523144348969471,3,-3,-16,-1,2,-1,-8,-12
1523144348969471,3,3,-1,-1,-1,-2,-4,-1
1523144348970976,-3,-5,-18,-2,-1,4,21,2
1523144348970976,0,3,32,-1,-1,1,-20,-1
1523144348983005,-3,3,-20,1,1,-2,0,-1
1523144348983005,-2,-15,7,-1,0,4,3,0
1523144348992029,5,6,-7,-4,0,1,13,0
1523144348992029,-7,1,-1,7,-1,-7,-6,-4
1523144349007070,4,2,12,-1,0,1,-3,3
1523144349007070,0,11,-21,-3,-1,2,-6,0
1523144349008574,1,-3,-17,-2,-4,-3,-1,0
1523144349008574,-10,-12,-19,-2,-2,0,13,-5
1523144349029628,22,7,-3,-1,-3,-2,-17,-4
1523144349029628,-4,1,0,1,1,0,3,-6
1523144349031135,11,-1,-11,-3,-2,-3,7,-5
1523144349031135,-26,1,35,-5,-2,-7,-16,3
1523144349043165,-10,-5,-26,9,6,3,13,2
1523144349043165,-4,-2,19,-9,-3,5,8,3
1523144349052189,23,-1,6,3,1,4,-11,2
1523144349052189,12,1,-42,-8,-4,0,6,0
1523144349066733,-10,-13,14,0,-3,-2,3,3
1523144349066733,-1,-9,16,6,1,-2,1,1
1523144349068735,-6,13,10,6,5,3,4,5
1523144349068735,1,-24,-6,-8,-4,-2,2,-1
1523144349089294,-6,-3,-8,0,0,1,14,-1
1523144349089294,1,1,-10,-1,-3,1,-2,1
1523144349090793,-5,-2,5,-1,-4,-6,1,-2
1523144349090793,6,8,0,4,2,-3,7,6
1523144349102825,-8,-3,3,-2,0,6,-7,-1
1523144349102825,-3,-1,23,-1,-2,-8,-4,-7
1523144349111855,-7,2,-3,-3,0,1,2,-2
1523144349111855,9,-1,-3,1,-2,-2,-22,-6
1523144349126889,3,-2,1,-3,-2,-3,31,0
1523144349126889,0,3,-12,-1,-3,-1,-3,0
1523144349128395,-1,-7,3,-1,-3,-2,-4,-7
1523144349128395,0,5,-45,-1,-3,-7,-22,-2
1523144349149450,-2,-12,14,-1,-1,-2,-1,-1
1523144349149450,3,10,14,2,2,3,5,0
1523144349150953,-9,-31,-36,-5,-1,5,3,1
1523144349150953,2,4,8,-1,0,0,6,2
1523144349162985,-2,4,3,-1,-3,-4,-11,2
1523144349162985,-2,-2,-14,-2,-4,-5,6,1
1523144349172010,0,0,4,-1,-3,-3,-5,1
1523144349172010,1,3,3,0,0,5,14,1
1523144349186046,-1,3,-1,-1,-2,-4,-15,-4
1523144349186046,0,-4,-4,2,3,2,4,-1
1523144349193064,-1,2,-18,0,-3,-3,-1,1
1523144349193064,2,-4,22,-2,-1,3,13,-4
1523144349209107,-3,3,-1,-6,-5,-7,-14,0
1523144349209107,1,13,14,1,1,-1,3,-1
1523144349211111,-5,-6,0,2,3,2,-5,-1
1523144349211111,-4,-6,-3,-3,-3,-3,2,-3
1523144349223145,0,-5,4,3,-5,-6,-12,-3
1523144349223145,-2,-11,17,-5,-3,-5,-17,-2
1523144349232167,-3,-3,-36,2,3,6,12,0
1523144349232167,2,-3,-8,-4,-1,-4,-44,-2
1523144349246208,7,10,-18,2,1,13,42,4
1523144349246208,-6,-9,35,-1,-3,-4,-17,-3
1523144349253223,3,9,21,-2,-1,-3,5,13
1523144349253223,-8,-4,4,1,0,-1,-7,-10
1523144349269267,10,3,18,1,4,-2,-20,-7
1523144349269267,9,-4,-26,-1,4,7,30,6
1523144349270772,-15,1,-6,-3,-1,2,-11,-7
1523144349270772,13,15,5,-1,-2,-2,18,11
1523144349291828,-8,1,-7,-11,-9,-4,-4,-5
1523144349291828,-7,-8,-4,6,1,-3,-4,-5
1523144349293332,8,2,8,-2,-4,-6,-13,-8
1523144349293332,-11,-14,-48,7,8,7,16,1
1523144349306366,-2,-5,10,-6,-3,-4,-5,-3
1523144349306366,6,11,-47,-6,-7,-4,20,4
1523144349312887,-4,-24,-1,-5,-6,-5,-5,-3
1523144349312887,1,5,2,8,4,3,-9,-1
1523144349329432,-4,-2,27,4,4,6,1,6
1523144349329432,-3,-1,-36,-1,0,1,-2,8
1523144349330931,1,9,-23,1,1,0,-1,-3
1523144349330931,1,12,-12,-9,-5,4,24,-4
1523144349351986,-10,-25,35,1,3,2,-5,1
1523144349351986,3,-6,-11,3,0,-1,-13,-3
1523144349353491,-17,14,21,-8,-6,-8,5,-4
1523144349353491,3,-12,-13,-4,0,-1,-8,3
1523144349366028,-17,0,-40,-3,-1,2,-15,-8
1523144349366028,13,4,3,-2,-6,-4,-8,-2
1523144349373043,8,-19,6,6,7,4,13,6
1523144349373043,-4,5,18,-1,0,-3,4,-1
1523144349389085,-6,13,33,1,-2,-8,-2,0
1523144349389085,-5,3,-11,-3,-1,-1,-6,-5
1523144349391091,6,-2,-43,-1,-3,-4,-10,-1
1523144349391091,-2,6,86,-3,-5,-3,-4,-3
1523144349412148,9,3,-4,-2,-1,-1,14,1
1523144349412148,-10,-7,17,2,4,9,12,0
1523144349413652,14,3,-32,3,2,2,-6,4
1523144349413652,1,-2,-14,-10,-7,-2,-5,-6
1523144349426191,-9,-7,2,2,1,0,13,7
1523144349426191,-3,-1,5,-4,-5,-4,-11,1
1523144349433203,-6,-3,25,2,-3,3,6,-1
1523144349433203,3,-10,-7,5,4,0,2,-1
1523144349449245,6,6,-4,1,1,-1,-24,4
1523144349449245,-2,0,-7,-1,-3,-1,-1,-4
1523144349450750,-3,4,30,-3,-3,-2,-3,-4
1523144349450750,-2,7,-12,-1,-4,-4,2,1
1523144349471806,3,1,-15,0,-3,-7,-15,-5
1523144349471806,-6,-3,17,-2,3,4,6,0
1523144349473313,4,5,11,-1,1,-4,-5,0
1523144349473313,-10,-10,9,22,3,3,4,3
1523144349485345,22,-4,3,-31,-9,-6,-1,-6
1523144349485345,-2,0,1,5,5,3,-10,-3
1523144349494368,-6,2,14,0,-2,2,4,-3
1523144349494368,1,-18,-6,-4,-1,-2,-4,1
1523144349509906,-3,5,1,11,0,-1,-9,-3
1523144349509906,0,-7,-4,-4,-5,-3,14,1
1523144349511411,0,0,14,-4,4,3,3,-1
1523144349511411,2,5,-11,8,2,-2,-2,1
1523144349531965,-6,6,-5,6,-1,2,0,1
1523144349531965,14,3,-7,-1,-3,-5,-10,-7
1523144349533471,-7,-1,20,-20,-4,0,3,2
1523144349533471,0,0,-10,-4,-5,-3,-2,-1
1523144349545516,-3,3,-10,3,2,-1,7,-3
1523144349545516,-3,7,5,-1,-2,-5,-1,-2
1523144349554538,0,0,-19,-3,-3,-6,-12,-1
1523144349554538,2,-5,23,-5,1,7,12,1
1523144349569065,-4,-7,15,-1,0,3,6,1
1523144349569065,-8,-8,-15,5,-3,-6,-9,-2
1523144349571071,6,-1,8,2,-1,-1,0,-8
1523144349571071,-1,8,-5,-9,-2,-2,0,0
1523144349591627,4,4,-4,9,1,-1,-4,-1
1523144349591627,-13,-4,6,-6,-4,-10,-5,-3
1523144349593631,12,1,-1,0,-2,-2,2,1
1523144349593631,-2,1,-8,-1,0,10,-6,0
1523144349605662,2,-5,-14,-1,5,3,21,1
1523144349605662,-3,0,-9,-4,0,0,-5,3
1523144349614687,-5,-2,-9,1,-1,5,1,-1
1523144349614687,-4,-2,-1,1,-1,-4,-13,-4
1523144349629225,-2,-5,9,-4,-4,-8,-7,-3
1523144349629225,1,2,-28,-2,1,1,1,1
1523144349630728,-3,5,11,6,0,-2,-2,2
1523144349630728,3,-5,2,-2,-2,-6,3,1
1523144349651787,-6,-3,-15,-7,-2,2,-3,-2
1523144349651787,-2,-13,-2,1,0,0,0,-2
1523144349653289,-6,-4,-4,0,-2,0,-6,-1
1523144349653289,-2,0,-10,-4,-1,-3,-1,0
1523144349665823,-2,0,-6,1,2,1,-12,-1
1523144349665823,-1,-5,11,1,1,1,-3,-2
1523144349674348,-5,-5,-6,0,1,4,6,-1
1523144349674348,1,2,2,-4,0,1,2,0
1523144349689389,1,6,-4,0,-4,-6,-8,-2
1523144349689389,-1,-5,9,-1,-1,0,-4,-2
1523144349690892,-2,0,-13,-4,-3,-8,-6,-3
1523144349690892,3,7,6,-1,-1,-5,-5,-2
1523144349711946,-3,-11,-4,-3,0,0,-2,1
1523144349711946,4,-2,-55,-2,-2,-3,-3,-5
1523144349713449,1,14,16,-6,-3,-5,-8,0
1523144349713449,-6,-8,68,3,-1,-4,-30,-5
1523144349725485,-1,-13,-45,-1,1,5,49,4
1523144349725485,2,23,6,2,-1,2,-4,-6
1523144349734507,-6,-7,8,0,2,1,-2,-3
1523144349734507,-5,-18,-24,-7,-3,-5,-16,-5
1523144349749544,4,16,9,2,-3,-2,-6,-5
1523144349749544,-9,-3,44,1,0,0,6,2
1523144349751051,3,12,-50,0,0,-2,1,3
1523144349751051,11,16,49,1,-2,-4,11,-3
1523144349771612,-8,-20,-11,-9,-5,-5,-10,-6
1523144349771612,-2,-7,0,-1,1,1,-6,0
1523144349773610,-6,-12,5,-4,2,1,-4,-3
1523144349773610,-1,2,-29,3,0,3,21,4
1523144349785642,9,0,3,8,2,4,5,4
1523144349785642,-7,-18,18,-4,0,-3,-24,2
1523144349794664,-8,-10,-19,1,-1,4,31,9
1523144349794664,-5,15,-12,2,2,-3,-1,-17
1523144349809212,-2,-16,1,0,-3,-2,-2,-2
1523144349809212,0,3,-9,1,3,3,-9,3
1523144349811210,-6,-9,34,-2,-4,-2,-6,1
1523144349811210,6,-3,-54,-2,1,4,15,12
1523144349831765,-6,-14,-11,-4,-3,-3,-12,9
1523144349831765,-4,6,1,-4,-3,-1,12,-26
1523144349833269,1,-1,15,-1,-5,-6,-10,-23
1523144349833269,12,-3,-34,6,5,11,6,2
1523144349845802,-10,0,28,1,-2,-2,-10,8
1523144349845802,2,6,-13,-1,-3,-8,-12,3
1523144349854327,14,0,27,1,2,4,14,23
1523144349854327,-9,-6,-52,-10,-6,-8,-9,-9
1523144349869364,12,12,3,1,-2,-7,-6,-6
1523144349869364,-10,-11,31,-4,-4,-7,1,-3
1523144349870868,-3,26,-43,7,2,1,-7,-6
1523144349870868,-4,-8,8,-2,-1,-1,3,4
1523144349891930,-5,-4,5,-4,2,3,4,0
1523144349891930,3,15,14,-1,-1,0,10,2
1523144349893430,-2,-18,10,0,0,2,0,-1
1523144349893430,-4,3,-11,-3,-5,-3,0,0
1523144349905464,-3,9,-34,1,2,0,12,-2
1523144349905464,10,7,42,-4,1,5,7,-4
1523144349914485,-1,3,-8,-1,0,4,2,17
1523144349914485,-5,-9,4,-3,-1,-1,-4,3
1523144349929522,6,11,2,-1,-3,-2,-4,3
1523144349929522,-3,-24,-22,2,2,7,2,8
1523144349931040,-9,-14,11,1,1,-1,-4,-24
1523144349931040,4,10,26,2,-4,-4,-3,-1
1523144349952084,-3,12,23,-1,-1,2,-4,-1
1523144349952084,10,-8,-30,-4,-2,-3,11,-3
1523144349953589,-1,3,14,-4,-3,-5,-16,1
1523144349953589,11,0,11,6,0,0,0,-1
1523144349965620,-7,-9,-12,-4,0,-4,-5,-12
1523144349965620,0,4,-22,11,-1,-1,3,9
1523144349974645,0,9,17,1,-3,-2,-1,-3
1523144349974645,-7,-10,15,10,-1,5,11,-1
1523144349989181,-5,0,-4,-37,-4,-3,-15,-9
1523144349989181,-2,7,2,2,-2,-4,1,-12
1523144349991188,0,1,-19,3,-2,-8,-8,17
1523144349991188,-8,-1,6,31,7,12,9,-24
1523144350011751,1,3,11,-29,1,5,0,5
1523144350011751,-3,0,2,6,-7,-1,1,2
1523144350013255,1,-4,-26,-4,-2,-7,-5,-7
1523144350013255,-2,2,-12,-11,-3,-9,-15,7
1523144350025780,2,1,19,19,1,1,1,2
1523144350025780,4,15,-29,0,0,-4,-6,-2
1523144350034303,-2,-9,33,-11,-4,-1,-1,-5
1523144350034303,1,-1,2,-5,-5,-3,-2,2
1523144350049343,1,16,-9,8,-1,-3,-5,8
1523144350049343,-7,12,16,-13,1,-3,2,5
1523144350050847,0,-3,-5,10,1,5,3,-3
1523144350050847,-4,-9,-28,-12,0,0,1,-1
1523144350071903,2,-2,3,2,-4,-3,0,-5
1523144350071903,3,-15,3,1,-2,-3,-4,1
1523144350073407,-3,-4,-14,1,3,1,1,-1
1523144350073407,1,8,20,2,-1,-3,-3,7
1523144350085443,-5,-7,-23,3,0,-2,4,-19
1523144350085443,-2,-5,0,-8,-2,5,8,1
1523144350094469,13,2,-4,-2,-2,-1,17,-3
1523144350094469,-19,-2,30,-6,-1,-1,-4,6
1523144350108501,5,-8,-8,16,3,1,-3,-1
1523144350108501,-1,-3,4,-1,3,1,-1,-1
1523144350115520,2,4,-5,-10,-5,-7,-9,-6
1523144350115520,-1,-1,6,-1,-1,-3,0,0
1523144350132062,-5,-6,1,2,0,-1,-2,1
1523144350132062,0,4,-10,-5,1,-4,-6,-2
1523144350133568,-2,-7,-11,2,-2,-1,-2,13
1523144350133568,1,6,7,-5,-2,-2,-2,-10
1523144350145598,-5,-3,-4,1,0,-1,-7,1
1523144350145598,1,3,1,0,-1,-4,-14,0
1523144350154625,-6,-26,20,6,1,0,2,2
1523144350154625,1,-3,-5,-7,0,-2,-1,0
1523144350168662,2,5,3,1,0,1,-3,-4
1523144350168662,-4,-12,10,0,-4,-5,-8,6
1523144350175678,-1,16,-7,-4,0,-1,-1,-4
1523144350175678,-2,-22,1,-5,-1,-2,0,0
1523144350191722,1,6,4,3,2,1,1,5
1523144350191722,1,-2,-10,1,-1,-2,3,-2
1523144350193226,-2,5,-11,-3,-4,-3,-8,-6
1523144350193226,5,0,-3,0,1,1,1,4
1523144350214283,-5,-3,-8,0,-4,-4,1,0
1523144350214283,-2,-3,7,-1,5,7,12,-1
1523144350216288,2,6,-6,-3,-3,-7,-7,-5
1523144350216288,1,-6,-20,7,0,-2,-4,-3
1523144350228820,-8,-22,21,-1,-2,-2,-6,-2
1523144350228820,-1,14,-24,-2,1,1,20,-3
1523144350235338,-3,-9,-7,-5,-3,-3,-12,-5
1523144350235338,0,21,0,6,3,1,0,0
1523144350251882,3,4,63,-5,-5,-5,-3,-3
1523144350251882,-5,-8,-30,-3,-4,-3,-6,-8
1523144350253386,3,-3,-15,4,1,1,-11,-1
1523144350253386,-1,-6,11,-1,5,3,11,4
1523144350274443,1,15,-16,-2,-3,-5,-8,2
1523144350274443,19,-13,9,-8,-4,-2,-5,-15
1523144350275947,-14,-3,41,-3,-4,-4,3,-5
1523144350275947,2,1,-11,0,-1,0,-3,3
1523144350288478,7,5,-36,10,3,6,3,-1
1523144350288478,-16,-28,1,-5,-2,1,5,-6
1523144350295501,9,20,-7,4,2,4,10,3
1523144350295501,-12,-10,6,-1,-5,-9,-14,-5
1523144350312041,12,0,-26,0,4,4,9,-8
1523144350312041,-7,-9,46,2,-4,-2,-2,10
1523144350313546,-3,-7,0,-3,0,2,0,-12
1523144350313546,-9,16,-13,-6,-6,-6,4,-2
1523144350334101,-4,2,0,-3,0,-2,-14,7
1523144350334101,4,-25,20,3,-1,-2,-11,-34
1523144350336106,-34,-10,-36,-2,2,7,12,18
1523144350336106,12,-1,-6,-2,-1,1,-4,-7
1523144350348640,-2,-1,1,-3,-2,-5,2,1
1523144350348640,10,25,8,4,3,1,3,-7
1523144350355659,-3,8,3,-2,-4,-3,-12,3
1523144350355659,8,-16,-13,-3,-5,-3,-3,5
1523144350371701,-31,-9,-6,3,1,1,4,5
1523144350371701,-7,6,-21,-4,-3,-3,-8,7
1523144350373707,30,11,63,-3,-3,-1,5,4
1523144350373707,1,2,-38,-3,0,0,1,13
1523144350394261,-4,-10,35,4,1,2,3,-11
1523144350394261,-9,2,-8,-8,-5,-5,-3,19
1523144350395766,-1,1,-7,-1,-1,-5,-2,-8
1523144350395766,2,-7,-33,-1,-2,-2,4,2
1523144350408799,2,3,5,-7,-3,-3,-1,-1
1523144350408799,1,8,-6,7,6,11,14,3
1523144350415317,2,-10,-1,-2,1,2,-2,-2
1523144350415317,-2,2,-4,-7,-5,-4,-3,-9
1523144350431863,3,14,0,-2,-3,1,9,-1
1523144350431863,-1,-4,0,0,0,-2,-6,4
1523144350433365,3,-2,-12,0,-2,-4,-7,0
1523144350433365,-7,5,26,-2,0,-2,1,-10
1523144350454421,23,-1,1,2,-1,1,8,-1
1523144350454421,3,8,-3,-4,-3,-5,-8,5
1523144350455925,5,3,3,0,-3,1,4,-2
1523144350455925,-4,6,-5,-7,-4,-14,-16,-16
1523144350467957,-2,4,15,5,-1,-1,-1,2
1523144350467957,7,-14,-27,-1,-1,-2,-6,-9
1523144350476981,-1,-2,10,2,-3,-4,-3,-3
1523144350476981,-4,-3,-17,-6,-1,2,0,7
1523144350492020,-2,-6,-1,13,0,2,0,7
1523144350492020,6,-3,9,4,2,0,-1,1
1523144350493525,-27,-3,-13,-4,0,0,3,-2
1523144350493525,4,-4,19,-1,-3,1,-7,4
1523144350514082,-7,-10,-8,-1,1,-1,-4,-4
1523144350514082,-1,-1,-6,-1,-4,-1,4,1
1523144350516085,9,7,-7,5,1,-1,-2,0
1523144350516085,-5,-4,21,2,0,2,7,-1
1523144350528116,-2,-4,-20,-9,-1,0,-4,-6
1523144350528116,-12,9,5,2,3,-1,-2,6
1523144350537141,19,-16,0,-5,-1,-1,0,-2
1523144350537141,-6,2,0,1,-1,1,4,-11
1523144350551678,-6,5,13,-5,-1,-5,-18,-1
1523144350551678,11,3,9,1,3,2,1,0
1523144350553684,-5,3,7,2,1,2,3,-4
1523144350553684,1,-11,-23,-10,-3,-3,-3,-1
1523144350574239,-1,-10,-11,1,-1,-1,7,1
1523144350574239,-9,7,10,0,-2,-1,1,1
1523144350575743,1,7,-6,1,1,1,-6,-3
1523144350575743,1,-9,11,3,0,0,-1,2
1523144350587775,-2,3,-11,-8,-5,-2,0,-5
1523144350587775,-13,-8,-7,0,0,-1,-6,2
1523144350596799,0,2,-7,0,0,3,13,3
1523144350596799,-2,1,4,-1,0,3,4,3
1523144350611842,1,0,-8,-4,-2,-2,6,0
1523144350611842,-1,1,-5,-3,-5,-5,-20,-10
1523144350613343,5,-8,-15,1,2,4,0,-1
1523144350613343,2,8,20,0,0,-1,-3,1
1523144350634401,-11,-3,5,-2,-1,-2,1,0
1523144350634401,0,-11,-3,-2,-1,-4,1,9
1523144350635904,-7,0,-18,-3,-3,-8,-13,-13
1523144350635904,1,-4,6,1,0,2,2,-2
1523144350647940,6,4,-3,-2,-1,-3,-6,0
1523144350647940,-2,-1,-12,-4,-3,-2,2,1
1523144350656960,-3,-1,12,-2,0,-1,-4,2
1523144350656960,-2,2,5,3,2,2,6,0
1523144350671999,2,-2,-10,-2,-3,-2,-2,-3
1523144350671999,-4,7,7,0,0,1,4,6
1523144350673506,-4,-6,-9,-1,-2,-3,0,-2
1523144350673506,2,4,-9,2,-1,-3,-8,-4
1523144350694561,-4,-8,21,-2,-1,-3,2,1
1523144350694561,3,-6,-26,-3,-1,4,19,0
1523144350696067,8,6,27,2,0,3,1,0
1523144350696067,-20,7,8,-3,-1,-4,-4,-9
1523144350708096,0,-10,-34,-3,1,1,-5,-2
1523144350708096,1,6,40,1,0,-3,-7,-5
1523144350717120,-1,-11,-25,-5,-2,-1,7,0
1523144350717120,-3,-15,32,1,-1,0,-4,4
1523144350732163,2,0,-11,7,3,2,0,4
1523144350732163,-1,0,-13,-5,-2,-2,-1,1
1523144350733664,1,10,12,3,1,1,-6,-17
1523144350733664,2,4,-25,5,4,2,-3,0
1523144350754219,-14,-32,6,-3,-1,-4,0,-1
1523144350754219,26,18,-9,-3,-5,0,-3,-4
1523144350755722,-5,11,-7,6,-1,0,2,5
1523144350755722,2,-3,11,-5,-4,-6,0,-1
1523144350767754,8,5,-21,1,2,3,-7,-3
1523144350767754,-18,-12,36,-9,-8,-9,-2,3
1523144350777279,24,20,10,3,-1,1,-5,-12
1523144350777279,-36,-24,-8,-1,-1,0,1,10
1523144350791817,0,10,22,-1,-1,6,8,-5
1523144350791817,-8,-16,-18,-3,-1,-3,-7,-17
1523144350793324,-1,0,-21,-5,-6,-11,-11,29
1523144350793324,8,7,8,1,-1,-3,-5,-17
1523144350814380,-19,-5,-1,1,1,1,1,2
1523144350814380,39,6,1,-2,-1,-2,-3,-10
1523144350815898,-20,-13,3,1,-1,0,0,-11
1523144350815898,4,2,-14,-8,-3,0,-5,-14
1523144350827916,5,31,36,10,-1,-3,3,1
1523144350827916,-8,-31,-46,0,3,5,2,-2
1523144350836943,-12,-18,18,0,1,-1,1,2
1523144350836943,7,-3,-20,0,2,2,-2,10
1523144350851979,8,8,-13,-3,4,6,7,2
1523144350851979,-11,9,26,4,-4,0,0,12
1523144350853491,1,-3,-5,10,4,1,-5,14
1523144350853491,4,3,-34,-6,0,0,11,-5
1523144350874037,13,-11,-19,0,-4,-5,-20,1
1523144350874037,-8,3,-5,3,1,5,18,5
1523144350876043,-8,-20,-23,-12,-3,-1,-6,-17
1523144350876043,7,20,54,5,0,-3,-4,4
1523144350888074,4,-7,-44,-12,-2,-7,-5,-1
1523144350888074,-1,11,10,5,3,1,-1,5
1523144350897102,-7,3,-6,-7,-4,-2,0,-10
1523144350897102,4,-7,12,1,0,1,-3,16
1523144350911637,-10,4,15,-4,-2,-3,1,-16
1523144350911637,-7,7,-1,0,1,1,-7,-2
1523144350913642,-5,-3,-9,-2,2,3,16,4
1523144350913642,0,1,-5,3,0,0,-1,-6
1523144350934197,-7,-10,22,1,-2,4,5,2
1523144350934197,-10,0,-6,1,-1,-4,-6,0
1523144350936202,3,-2,-5,-8,-2,-3,-1,-1
1523144350936202,3,-1,-22,-6,-4,-3,-6,-2
1523144350948247,-12,3,12,1,0,-2,6,4
1523144350948247,-4,-2,0,-1,-1,-2,7,-2
1523144350956773,1,-16,21,-1,-1,0,-11,0
1523144350956773,-1,5,17,2,-2,-3,1,-5
1523144350971308,1,0,-27,-6,-5,-10,-21,0
1523144350971308,-1,-1,0,0,1,8,15,-7
1523144350971810,-3,-15,0,0,-2,-3,-6,4
1523144350971810,0,-2,-7,-1,2,2,8,-5
1523144350993870,4,0,17,0,0,-5,-11,-5
1523144350993870,5,-3,-14,0,-1,-3,-5,3
1523144350994371,-1,3,-8,-11,-6,-4,-6,3
1523144350994371,-6,-3,0,8,-1,-1,0,-11
1523144351015928,-1,-5,-13,-5,-4,-2,2,-4
1523144351015928,-7,7,1,2,-1,-6,-14,-7
1523144351016930,1,-7,-20,-7,0,4,5,5
1523144351016930,6,0,-8,-2,-1,-2,9,9
1523144351030464,2,6,13,0,-2,1,5,3
1523144351030464,-2,3,2,1,2,-3,-8,4
1523144351038486,-2,11,6,3,1,0,3,-2
1523144351038486,-2,-6,7,-9,-3,-1,2,1
1523144351053527,-3,-25,-6,2,0,0,0,1
1523144351053527,4,-1,-10,-4,-2,-4,-5,0
1523144351054530,-7,4,8,4,1,-3,-2,6
1523144351054530,6,-15,-10,0,-1,-2,-6,4
1523144351076087,4,12,0,-3,-1,7,21,-12
1523144351076087,-3,-3,8,-3,-1,-1,-6,-1
1523144351077088,1,0,-9,5,-3,-1,3,-5
1523144351077088,0,4,1,-3,-3,-3,-8,4
1523144351090626,3,3,8,1,3,1,-4,13
1523144351090626,-8,-6,-8,-3,0,1,-8,-21
1523144351098650,3,6,1,-1,0,1,2,-5
1523144351098650,-4,8,0,-1,-1,0,-5,-3
1523144351113690,0,-6,-5,-7,-4,-2,-9,-1
1523144351113690,-10,5,17,-4,-3,1,4,1
1523144351114691,2,1,2,1,-2,-5,-6,-2
1523144351114691,2,4,-17,1,0,0,-5,-3
1523144351136250,-7,-1,2,0,0,2,11,4
1523144351136250,4,3,7,0,-1,-3,-2,13
1523144351137250,-2,-16,-19,-3,-3,-3,-3,-4
1523144351137250,-1,6,17,1,0,-4,-5,-1
1523144351151286,-3,0,-2,1,2,5,18,-3
1523144351151286,7,-4,-16,-4,-1,1,3,-1
1523144351151789,2,4,4,0,0,1,3,-9
1523144351151789,-1,0,-4,-2,-2,1,0,1
1523144351173847,-3,-7,-8,-3,-4,-8,-15,-3
1523144351173847,2,-1,2,2,2,1,2,0
1523144351174349,-1,-3,3,1,0,-1,-1,3
1523144351174349,-1,3,3,-3,-1,-1,-1,-2
1523144351196407,2,-5,-11,-4,-4,-9,-10,-3
1523144351196407,1,-2,-5,-1,-1,-1,0,2
1523144351196907,3,13,-4,4,5,2,0,-3
1523144351196907,-8,-23,12,-1,-2,1,3,8
1523144351211448,7,24,22,3,2,3,1,4
1523144351211448,-12,-10,-27,-8,-6,-7,-7,-26
1523144351211950,1,10,-6,4,0,-1,3,6
1523144351211950,0,-5,3,-4,0,-2,1,-3
1523144351233509,-2,4,-8,4,-4,0,-5,-2
1523144351233509,10,29,17,4,0,-1,2,18
1523144351234510,-8,-26,34,-8,-4,-1,-4,-4
1523144351234510,-6,1,-46,-6,-5,-5,-7,-11
1523144351256068,29,-14,-1,4,7,9,7,7
1523144351256068,-12,19,6,-7,-2,-8,-10,-2
1523144351257071,4,11,-8,1,1,6,11,0
1523144351257071,-4,-4,-13,1,-2,-2,0,3
1523144351271104,-5,-8,21,-1,-5,-3,12,8
1523144351271104,-1,-35,-13,2,0,3,3,7
1523144351272108,7,16,29,-4,-4,-9,-31,-2
1523144351272108,4,14,-13,-5,-6,-2,35,-6
1523144351293665,-9,16,31,-6,3,-1,-7,6
1523144351293665,-1,-3,-1,-4,-2,-1,2,-2
1523144351294669,6,1,-6,5,1,2,0,11
1523144351294669,13,9,2,-3,-2,-3,-12,-3
1523144351316225,-7,-4,12,-6,-7,-9,-11,-39
1523144351316225,5,-11,-24,1,3,9,6,-11
1523144351316727,-28,-24,2,-1,-1,-3,-2,5
1523144351316727,-2,0,12,0,3,0,-5,-1
1523144351331268,-6,-6,-22,6,0,-2,2,2
1523144351331268,-7,-6,25,-4,-6,-5,-11,-3
1523144351332270,-3,4,-25,-1,3,2,9,-7
1523144351332270,-11,-6,-4,-1,1,4,-1,-7
1523144351353826,-6,-1,-5,-5,-8,-11,-11,4
1523144351353826,3,-6,10,10,-1,1,1,14
1523144351354327,-5,4,-11,-1,-1,3,1,1
1523144351354327,-1,1,-13,-7,-4,-1,-4,2
1523144351376385,2,7,2,4,-1,-4,-3,0
1523144351376385,-2,-4,0,-4,2,2,5,1
1523144351376889,33,-19,22,-3,-5,-7,-2,-8
1523144351376889,1,-14,13,12,5,0,-8,-2
1523144351390426,-4,4,-8,-10,-8,-4,-4,1
1523144351390426,3,3,1,0,1,2,-1,-3
1523144351398947,-17,-16,-10,1,2,4,7,1
1523144351398947,0,13,4,-1,0,-1,-4,-4
1523144351413486,0,-15,-11,6,6,13,9,3
1523144351413486,4,6,19,-3,-4,-1,6,5
1523144351414489,8,7,-13,-9,-5,-4,-3,-13
1523144351414489,-10,12,29,4,1,3,7,12
1523144351436044,-12,-34,-46,-7,-1,-5,-10,-6
1523144351436044,-3,-9,-39,-2,-1,-4,-4,-6
1523144351437048,3,16,4,2,0,-4,-4,-7
1523144351437048,0,-9,-5,-5,-2,3,0,-2
1523144351450585,-10,10,16,-1,2,-3,-6,2
1523144351450585,-5,1,-6,-2,-1,-4,-9,2
1523144351458603,-3,-3,-7,4,4,2,2,2
1523144351458603,3,0,-1,2,0,-2,-9,-3
1523144351473645,0,9,2,10,-1,-4,1,4
1523144351473645,5,-20,-10,-29,2,5,4,-4
1523144351474648,0,6,12,16,-4,0,-2,4
1523144351474648,-2,0,3,-6,-3,-4,-4,0
1523144351496208,5,6,1,5,0,-2,-3,-2
1523144351496208,-3,-4,0,13,-2,-5,-2,-2
1523144351496710,-6,0,-13,-31,-6,-9,-7,-3
1523144351496710,0,-10,-12,1,4,8,16,3
1523144351510243,3,-4,3,1,-8,-8,0,20
1523144351510243,-8,10,3,4,6,6,6,-10
1523144351518764,-13,-5,34,-3,-9,-16,-23,-6
1523144351518764,-10,-2,-34,-2,4,6,-1,-1
1523144351533804,11,4,-2,-3,4,8,6,-6
1523144351533804,-3,8,2,-7,-7,-6,-4,3
1523144351534307,12,-6,-7,4,-1,-5,-5,2
1523144351534307,-5,-4,37,2,-2,-7,-7,-2
1523144351556368,-4,14,-11,-5,0,0,-2,-8
1523144351556368,0,-4,-30,1,0,-1,0,4
1523144351556866,0,-1,2,5,6,7,6,-3
1523144351556866,7,1,3,2,-1,-3,-4,-1
1523144351570406,3,15,-2,-21,-2,-3,-10,-2
1523144351570406,11,-8,-5,5,-4,-4,-1,-4
1523144351578924,-4,4,-16,-7,0,3,7,3
1523144351578924,5,1,1,4,1,2,5,-2
1523144351593467,-4,-3,13,4,-1,-5,-7,-6
1523144351593467,1,3,7,1,-2,-2,-1,-4
1523144351594468,-12,-1,-7,1,0,-1,7,13
1523144351594468,31,-4,13,-9,-6,-9,-8,-3
1523144351616024,-2,-4,-23,-7,1,6,20,-6
1523144351616024,-4,0,7,-2,-1,-2,-10,-2
1523144351617028,-4,0,-2,3,1,2,0,-2
1523144351617028,-8,-1,-6,3,0,1,0,2
1523144351630564,-3,-6,-1,1,2,1,2,2
1523144351630564,-1,-4,10,3,-1,0,7,-1
1523144351638584,-1,3,-2,-3,-2,-2,4,-1
1523144351638584,-3,-2,-9,-3,-3,0,9,-1
1523144351653623,0,-2,3,2,1,3,-3,-5
1523144351653623,-5,-6,-8,1,-2,-1,-3,-1
1523144351654626,3,4,18,1,-1,2,0,-4
1523144351654626,-4,7,5,-4,-4,-4,-4,-1
1523144351676184,1,-9,-29,-4,-2,-1,-2,-2
1523144351676184,-3,4,9,2,1,-1,-1,-1
1523144351677185,1,1,-1,0,4,3,0,-1
1523144351677185,-1,-2,-25,-3,-2,-2,-2,-4
1523144351690221,3,16,8,2,-2,-1,-4,-11
1523144351690221,-3,-10,5,-4,-1,-1,-1,6
1523144351698747,-6,-8,3,-5,-5,-4,-3,-19
1523144351698747,-2,4,-32,1,2,0,-1,4
1523144351713786,3,5,14,-1,-4,-8,-11,-6
1523144351713786,-16,-15,4,-4,-3,-1,2,1
1523144351714790,30,7,-11,0,0,-3,-1,3
1523144351714790,-18,-5,15,-5,-5,-7,0,-2
1523144351736343,-7,-13,1,-3,2,2,-3,0
1523144351736343,5,-1,7,-8,-6,-4,-5,-7
1523144351736845,5,8,1,1,1,5,2,-1
1523144351736845,4,-8,4,-2,-2,-1,-6,-7
1523144351750381,-13,-15,3,3,1,1,3,14
1523144351750381,12,-2,-2,6,6,3,2,-2
1523144351758403,-8,7,-2,-4,-5,-6,-3,-3
1523144351758403,13,1,-6,-9,-1,0,-2,-5
1523144351773443,2,-14,12,4,5,4,5,0
1523144351773443,-10,-14,-9,2,-1,1,-2,-3
1523144351774446,-13,14,4,-2,-2,-3,-1,7
1523144351774446,71,-1,6,-1,-4,-5,-6,21
1523144351796003,-72,20,6,-2,-5,-3,-1,-11
1523144351796003,3,6,4,2,0,0,2,6
1523144351797007,-4,-6,46,2,3,5,3,-7
1523144351797007,-27,-41,-53,-2,-3,-1,-2,29
1523144351810550,20,-1,5,-5,-3,-1,-5,-17
1523144351810550,19,18,9,3,2,0,-2,-23
1523144351818566,-1,0,-21,8,5,4,6,21
1523144351818566,-25,6,-16,-4,1,1,-1,-34
1523144351833604,13,8,8,3,1,-2,0,24
1523144351833604,-28,4,11,-6,-1,0,3,13
1523144351834605,5,-32,-75,-7,-3,1,0,20
1523144351834605,5,17,21,5,6,8,6,-44
1523144351856162,-24,-25,-26,1,0,-1,0,14
1523144351856162,13,13,32,-2,-3,-3,-5,-4
1523144351857165,3,18,12,5,0,-3,-3,-2
1523144351857165,-18,-14,-3,-9,-6,-5,-2,28
1523144351879232,-23,-6,-8,1,-2,1,0,-10
1523144351879232,4,4,13,-2,-1,-6,-5,1
1523144351880227,-4,-3,-4,-4,-3,-3,-2,-1
1523144351880227,-5,-4,17,5,1,0,-2,-6
1523144351893762,5,2,-7,-4,-1,-1,1,-21
1523144351893762,12,-11,10,0,-1,2,2,17
1523144351894264,32,-16,-57,0,1,3,3,-7
1523144351894264,-86,9,27,3,0,1,-2,-12
1523144351916322,19,-11,1,-3,-1,-1,-1,-4
1523144351916322,31,0,-46,2,-1,-4,-2,-5
1523144351916835,-30,5,15,-14,-5,-4,-4,-8
1523144351916835,16,3,6,2,-3,-5,-3,4
1523144351930361,9,-8,-12,-1,1,1,0,7
1523144351930361,-15,3,4,1,-2,0,-1,-4
1523144351938882,-1,-5,6,1,-3,-3,-3,-5
1523144351938882,4,1,6,-3,-4,-3,-1,4
1523144351953435,-13,2,15,1,-2,-5,0,0
1523144351953435,4,7,-12,0,1,-2,-3,-23
1523144351954427,0,-2,4,1,1,0,3,-2
1523144351954427,-5,-4,-5,0,1,-1,-12,3
1523144351975980,11,9,1,1,-1,-2,-1,-2
1523144351975980,-6,-5,6,-3,-3,-1,0,5
1523144351976984,-8,-4,9,-1,-2,-5,-11,-4
1523144351976984,10,13,7,7,8,8,14,-6
1523144351990522,13,-10,2,-3,-2,-1,-12,3
1523144351990522,-4,2,-14,-1,-2,-1,1,1
1523144351998541,-3,0,24,-1,-3,-3,-1,-10
1523144351998541,10,-3,-44,-3,-3,-3,-11,-1
1523144352013582,12,4,1,-2,-6,0,19,1
1523144352013582,-15,-6,-5,-5,-10,-9,-18,-4
1523144352014583,-11,-8,10,2,5,8,-17,-8
1523144352014583,25,-1,12,2,-2,-3,9,1
1523144352044171,0,7,-3,7,1,3,-7,0
1523144352044171,-15,-8,-32,-34,-22,-21,-21,-17
1523144352045168,2,0,5,6,-3,3,-3,-4
1523144352045168,-10,-3,2,-12,-21,-25,-19,-10
1523144352050680,23,5,4,8,15,17,15,6
1523144352050680,4,0,6,15,7,6,4,10
1523144352058707,-3,2,-6,-10,3,6,13,7
1523144352058707,3,-5,7,6,-2,-2,-13,-2
1523144352073741,-2,-1,-6,-9,-15,-16,-20,-15
1523144352073741,-6,-4,6,-5,5,7,11,4
1523144352074243,20,-1,-16,1,-1,-3,6,5
1523144352074243,-6,2,2,5,4,8,5,4
1523144352096301,6,9,14,-10,-8,-7,-9,-1
1523144352096301,2,5,49,12,6,5,4,2
1523144352096804,3,5,-78,2,-1,-4,-3,0
1523144352096804,12,-1,14,-8,-3,-2,0,0
1523144352119363,-17,2,3,2,2,1,-1,1
1523144352119363,-4,-2,-3,0,-4,-5,4,-1
1523144352120365,17,4,25,-3,-3,-3,2,-1
1523144352120365,-1,3,-1,6,5,2,4,3
1523144352133399,10,-4,-17,-10,1,4,4,4
1523144352133399,-3,1,-6,2,-4,-5,0,3
1523144352134403,25,4,27,2,1,1,3,2
1523144352134403,9,-6,-26,-1,4,3,5,3
1523144352155962,13,1,12,0,-4,-6,-6,-3
1523144352155962,-17,-3,-17,0,0,-1,-1,1
1523144352156962,2,0,2,-2,-3,-2,-2,0
1523144352156962,-9,-1,25,-1,-3,-1,3,1
1523144352179525,2,0,0,3,1,-1,2,0
1523144352179525,17,4,-13,3,5,4,4,2
1523144352180026,-29,-6,-4,2,0,-2,1,0
1523144352180026,-6,0,-1,-14,-1,0,1,-1
1523144352193564,-12,-6,-7,0,-4,-4,-2,0
1523144352193564,2,-2,-4,2,3,4,-1,-2
1523144352194569,-16,-4,-8,3,-3,-4,-2,-2
1523144352194569,-5,6,1,2,-2,-1,-2,-2
1523144352216120,17,11,30,1,1,-4,-3,-3
1523144352216120,-15,-29,-29,-6,-2,-1,0,-1
1523144352217123,-5,2,37,-1,1,0,0,0
1523144352217123,10,8,-2,2,0,1,-1,2
1523144352239181,-8,-1,-21,-2,-3,-3,-1,-1
1523144352239181,5,10,14,2,3,3,1,-2
1523144352240185,-1,2,-27,1,-4,-2,-4,1
1523144352240185,-10,-30,8,2,0,0,1,0
1523144352253722,-3,16,8,5,-1,2,0,0
1523144352253722,7,17,-7,0,-1,-3,-3,0
1523144352254223,-7,-19,10,-6,-6,-7,-5,-6
1523144352254223,1,27,-22,-8,-8,-9,-10,-3
1523144352276279,-16,-37,-4,2,3,3,2,-3
1523144352276279,21,14,8,-2,2,2,2,5
1523144352276784,-10,0,2,-2,5,6,4,-1
1523144352276784,-4,-10,-7,3,-1,-1,-1,-1
1523144352299341,-20,0,46,-5,-4,-6,-4,0
1523144352299341,8,18,-13,-9,-5,-1,-1,-3
1523144352300344,10,2,9,2,2,3,1,-1
1523144352300344,13,0,18,8,3,4,5,-3
1523144352321907,-18,-10,-21,-6,4,7,6,8
1523144352321907,-7,-21,-3,10,6,6,5,1
1523144352322905,-4,16,-3,-6,-9,-11,-7,0
1523144352322905,17,36,25,12,5,2,1,1
1523144352335941,-1,-37,-3,-5,0,-1,4,-6
1523144352335941,0,19,6,-4,-5,0,-12,0
1523144352336942,-6,-25,-24,3,0,-4,-10,-3
1523144352336942,7,4,-29,-6,-1,1,13,1
1523144352359501,12,8,11,5,0,3,14,3
1523144352359501,-4,-9,5,1,-1,1,-1,-1
1523144352360004,-8,1,10,-2,-2,1,-3,-2
1523144352360004,-7,-5,-6,-14,-4,-7,-10,-1
1523144352373539,6,6,17,-3,-7,-20,-45,-6
1523144352373539,-3,-6,9,6,4,19,65,9
1523144352374542,10,-15,11,2,-1,-4,-10,5
1523144352374542,-7,3,21,10,2,4,-2,3
1523144352396098,0,-1,-50,0,1,-2,-25,-1
1523144352396098,-3,-7,-2,-3,-2,-8,-13,-7
1523144352397103,4,14,5,1,-1,0,2,-2
1523144352397103,-10,-21,1,-7,-1,0,3,-2
1523144352419160,2,2,-12,-2,-3,0,9,-2
1523144352419160,-3,9,37,8,-1,-6,-19,-2
1523144352420163,-4,3,-34,-10,2,4,11,0
1523144352420163,-6,-17,-13,-3,-5,-5,-12,-4
1523144352433700,3,7,-8,8,4,12,20,3
1523144352433700,-5,-10,1,-5,-4,-7,-9,-4
1523144352434200,-2,3,10,1,-1,-2,-3,-2
1523144352434200,0,-1,0,-1,1,8,15,2
1523144352456314,4,6,-11,-1,-3,-4,8,0
1523144352456314,2,-16,-22,-9,-1,0,-6,-3
1523144352456760,2,2,6,-4,-4,-6,0,4
1523144352456760,-6,3,-6,0,4,7,3,0
1523144352479320,4,16,2,-3,-3,-1,0,-4
1523144352479320,-5,-1,-39,-3,-5,-3,-12,-5
1523144352480325,0,5,5,-1,-3,-9,-16,-16
1523144352480325,0,-5,3,3,3,14,13,2
1523144352493413,4,5,0,-9,-13,-14,-28,-7
1523144352493413,-3,8,5,7,17,9,13,1
1523144352494362,-13,-7,-3,-3,-7,-2,4,0
1523144352494362,14,-5,-29,-3,-5,-9,-14,-8
1523144352516419,-1,-1,10,5,-3,3,2,-2
1523144352516419,-13,-5,-16,-19,-13,-14,-16,-2
1523144352516921,-7,-26,5,14,6,8,4,4
1523144352516921,4,3,-3,-9,-1,-3,-1,1
1523144352539481,-36,-5,16,5,3,3,14,4
1523144352539481,-15,-8,-11,-4,1,-2,-8,-3
1523144352539982,9,10,-5,-3,-1,-5,1,-8
1523144352539982,18,4,12,4,-3,-3,-10,-1
1523144352553521,7,-7,-5,3,4,0,6,-4
1523144352553521,-5,4,-6,-5,-4,-3,2,3
1523144352554523,-5,2,2,3,1,1,-2,1
1523144352554523,-2,2,5,-6,-5,-6,-4,0
1523144352576080,-16,1,-7,-1,-1,2,1,0
1523144352576080,10,-4,11,1,-3,-3,-2,-6
1523144352577082,17,8,-33,-1,0,3,5,1
1523144352577082,-6,-16,21,-1,-1,-8,-8,-2
1523144352599140,8,1,-2,-1,2,3,6,-2
1523144352599140,3,4,-2,1,-2,-2,-8,0
1523144352600143,-2,4,10,-3,-5,-3,-2,1
1523144352600143,-12,-1,-6,0,-2,1,2,2
1523144352613695,9,-1,-12,-4,-1,-4,1,-2
1523144352613695,8,4,11,4,2,0,-9,0
1523144352614682,-1,-5,5,-6,-1,4,23,-1
1523144352614682,-2,4,-1,1,0,-3,-9,-2
1523144352636244,4,0,-9,-4,-2,0,3,0
1523144352636244,12,3,20,3,-2,-2,5,0
1523144352637243,-13,1,-56,-3,-1,-4,-15,-2
1523144352637243,4,-6,-8,-4,-1,4,14,1
1523144352659303,1,-4,-3,-3,1,0,-1,1
1523144352659303,-6,-1,7,-1,-3,-4,1,0
1523144352660302,3,-3,7,-3,-2,-3,-5,-1
1523144352660302,-7,11,2,5,1,0,1,0
1523144352673838,0,-9,-14,-5,-3,-1,-8,-1
1523144352673838,1,-4,8,2,-2,2,5,-3
1523144352674340,-2,2,37,-3,-2,0,0,2
1523144352674340,-3,8,-17,0,1,-2,-4,-1
1523144352696399,4,11,15,-5,-3,-8,-7,-2
1523144352696399,-3,-10,15,2,1,0,3,1
1523144352696908,-3,-17,-21,-3,1,2,-2,0
1523144352696908,-1,7,10,-5,-5,-5,-4,-4
1523144352719459,2,-1,13,-1,0,2,-3,0
1523144352719459,1,15,3,0,1,-1,2,-1
1523144352719962,-5,-18,-4,-2,1,2,3,3
1523144352719962,1,-12,9,-1,-2,-1,0,-4
1523144352732997,6,2,-23,0,1,0,-4,-2
1523144352732997,-6,-17,-6,-4,-5,-1,-2,0
1523144352741017,0,5,39,3,-1,2,1,0
1523144352741017,-11,17,-41,-11,-7,-12,-11,-4
1523144352756060,-1,-8,38,6,4,5,3,-1
1523144352756060,3,9,-25,1,0,1,2,-4
1523144352757064,-6,-36,5,1,-4,-1,-7,3
1523144352757064,-14,3,27,-8,-8,-6,-5,-4
1523144352779117,9,42,-7,0,2,-4,-1,3
1523144352779117,-7,-29,4,7,-4,-3,-5,-7
1523144352780126,-8,3,3,-5,-1,-3,1,-2
1523144352780126,13,-13,-23,6,3,5,1,12
1523144352793154,-11,-16,4,-1,-1,0,-2,-3
1523144352793154,-15,3,0,-1,-2,-2,3,5
1523144352801679,40,28,-24,-2,-1,-3,-2,-3
1523144352801679,-14,-16,6,4,-3,-2,-3,-7
1523144352816217,-8,-6,-3,-2,-2,0,1,-2
1523144352816217,-18,-3,-10,1,-1,2,-1,1
1523144352816718,24,-8,1,-4,-2,-2,-2,-3
1523144352816718,-6,-2,19,4,3,5,5,0
1523144352839280,5,-14,-20,0,0,2,4,3
1523144352839280,7,28,13,-6,-3,-3,-3,-1
1523144352840282,-15,12,0,-1,0,-2,-1,0
1523144352840282,7,-7,-6,0,3,1,4,-2
1523144352853319,-4,-7,-10,-2,-3,-1,-3,-2
1523144352853319,7,-11,-2,-6,-2,-4,-5,-3
1523144352861337,-6,-2,-11,1,-1,1,-1,0
1523144352861337,-1,10,49,5,-2,0,9,0
1523144352876378,-5,-19,-58,-4,3,8,-1,1
1523144352876378,2,6,-5,-14,-4,-3,-4,-1
1523144352877380,-3,-13,16,10,2,-11,-17,-4
1523144352877380,-12,7,-7,-3,0,16,36,11
1523144352899438,11,6,20,1,-3,-4,1,-4
1523144352899438,6,1,2,1,2,-1,0,1
1523144352899940,-20,-15,-20,-2,0,-1,0,-2
1523144352899940,5,10,29,2,-1,-5,-23,-4
1523144352912998,2,2,-8,-5,-2,-2,-6,-7
1523144352912998,-3,15,-12,1,-2,1,2,-2
1523144352921019,17,14,14,-1,-3,0,4,-3
1523144352921019,-10,-5,-20,-1,-2,-9,-14,-5
1523144352936061,4,1,14,-2,-2,-1,7,2
1523144352936061,6,10,-5,-7,-1,-3,0,-2
1523144352937062,-27,-4,-3,3,2,7,7,3
1523144352937062,11,-6,-7,-2,-2,-9,-16,-5
1523144352959123,-3,4,-6,-4,-1,1,-1,1
1523144352959123,2,-9,-9,3,-6,-4,-2,1
1523144352960122,-10,8,11,-3,0,4,6,-4
1523144352960122,0,-8,-20,-3,1,0,9,4
1523144352973157,-7,-2,5,-3,-8,-15,-20,-7
1523144352973157,-3,-3,18,10,10,14,22,1
1523144352981179,-6,1,-14,-9,-7,-5,1,4
1523144352981179,32,2,-3,-6,1,-5,-12,-5
1523144352996222,-2,4,5,4,-3,-5,-7,-1
1523144352996222,0,-27,-2,-1,-5,-9,-7,-2
1523144352996722,4,7,1,1,-2,-2,-2,-4
1523144352996722,-9,-3,-7,1,2,4,7,2
1523144353019286,-3,1,5,2,3,0,0,5
1523144353019286,3,-1,-5,-8,0,0,-3,-1
1523144353020285,3,3,5,-1,-4,-5,-7,-4
1523144353020285,8,1,-13,-8,-2,-3,-1,-3
1523144353041841,-6,-10,-3,-1,-2,-4,-6,-3
1523144353041841,-2,0,9,4,0,-2,-3,-1
1523144353042844,6,0,-4,-4,0,5,10,2
1523144353042844,-4,1,-1,2,0,1,-3,-3
1523144353056379,1,1,10,3,-2,-2,2,-2
1523144353056379,-27,-4,-18,-5,3,2,-3,4
1523144353056881,38,8,8,-1,-3,-5,-9,-6
1523144353056881,-12,-1,9,4,0,5,-7,-4
1523144353079447,-2,-13,-20,-4,4,6,9,-3
1523144353079447,-12,-14,14,3,0,-3,0,1
1523144353079943,-7,4,0,0,-1,-4,-7,-1
1523144353079943,-7,1,-2,1,2,-1,1,-1
1523144353102000,3,0,2,-1,-3,-3,1,-1
1523144353102000,-1,3,-8,-3,-3,-6,-25,-5
1523144353102502,15,2,3,2,2,1,0,-3
1523144353102502,-1,-7,-20,-3,-1,2,6,0
1523144353116037,-14,0,-4,-3,2,1,2,1
1523144353116037,18,3,25,0,0,-3,-4,-4
1523144353117041,-17,-7,-20,-6,-4,-2,4,4
1523144353117041,-2,4,8,-3,-3,-4,-3,-1
1523144353139100,3,-3,-1,-2,2,2,-3,-1
1523144353139100,1,8,2,3,1,4,8,0
1523144353140103,-15,-13,1,0,0,3,1,1
1523144353140103,17,-1,-19,-1,-1,0,2,-1
1523144353161662,-3,2,25,-3,-4,1,2,0
1523144353161662,11,7,12,-3,-4,-5,1,-1
1523144353162665,-28,5,-13,-1,1,0,1,-2
1523144353162665,-9,-15,-16,-3,-1,-3,-4,0
1523144353176198,8,10,3,1,0,0,2,2
1523144353176198,2,3,-4,-1,1,3,1,-1
1523144353176700,1,6,14,-3,-3,-2,-2,-4
1523144353176700,-13,-4,1,1,-1,-2,0,-1
1523144353199261,7,23,4,3,0,-1,-2,1
1523144353199261,-1,-31,-22,-4,0,-2,-1,-3
1523144353200264,0,0,30,-3,5,5,6,0
1523144353200264,2,16,-7,-3,-8,-10,-7,-2
1523144353221819,-8,-38,-8,-3,7,15,11,4
1523144353221819,-7,13,24,1,-2,1,0,1
1523144353222821,22,-7,-67,-3,-3,-4,-4,-1
1523144353222821,3,17,10,-2,-3,-3,-2,-4
1523144353236357,-7,-26,7,-1,-5,-4,-4,-3
1523144353236357,0,-10,-53,2,6,6,7,1
1523144353236860,-12,6,-27,-9,-3,0,-3,4
1523144353236860,25,33,33,-3,-4,-5,-2,-3
1523144353259420,-3,-44,-13,8,6,6,4,2
1523144353259420,-3,-13,-14,2,-1,-3,-2,-1
1523144353259921,-8,-2,7,3,-2,-3,-1,0
1523144353259921,12,-16,-7,-11,-5,-7,-9,-6
1523144353281978,1,33,24,1,0,-4,-10,-3
1523144353281978,7,14,7,2,-2,-1,5,0
1523144353282481,1,-7,6,2,5,15,11,1
1523144353282481,-20,-11,-2,1,0,3,4,4
1523144353296016,-4,-7,-18,-5,-4,-6,-3,-12
1523144353296016,-4,0,4,1,2,2,-5,3
1523144353297019,0,10,0,5,-1,-5,-8,-1
1523144353297019,-14,-3,39,2,5,7,6,1
1523144353319581,1,-2,-21,-3,-1,0,6,2
1523144353319581,-3,-5,1,-5,-5,-11,-12,-4
1523144353320082,-12,9,18,-2,-2,-1,10,-1
1523144353320082,22,-27,22,6,-1,3,-6,-1
1523144353341640,8,33,7,-5,-6,-8,-14,3
1523144353341640,-2,6,20,-4,-5,-5,-3,-6
1523144353342641,-7,-5,-6,6,1,-6,-4,5
1523144353342641,3,-2,-18,9,-3,-10,-20,-7
1523144353356176,-7,11,-24,-13,-3,-1,3,-1
1523144353356176,-3,-11,8,4,0,2,-2,-2
1523144353357179,1,-6,23,1,0,0,-2,-1
1523144353357179,-12,-4,-4,1,-2,-4,-5,-1
1523144353379237,4,0,13,6,-2,-4,1,-2
1523144353379237,-2,-6,-44,-17,-2,2,4,1
1523144353380241,-1,-9,36,11,-2,-6,-8,-2
1523144353380241,-3,-1,1,11,9,8,11,3
1523144353401797,3,3,-35,-5,-4,-3,-1,-2
1523144353401797,-6,-2,-57,-31,-9,-1,1,-1
1523144353402800,8,7,11,-1,-2,-1,-3,0
1523144353402800,-8,-12,-12,-6,-1,3,20,1
1523144353416337,0,9,9,10,2,-3,-3,1
1523144353416337,-1,-6,-9,-1,-2,-1,4,-5
1523144353416840,1,-6,-15,-6,-3,-4,-16,-4
1523144353416840,-7,-4,-34,-1,0,-1,4,2
1523144353439400,-2,-4,13,-5,0,1,3,0
1523144353439400,2,7,21,4,-7,-14,-24,-7
1523144353439900,1,4,-3,-7,-4,-8,-4,1
1523144353439900,-5,-31,9,-2,5,13,8,3
1523144353461957,-7,-6,-3,-8,-8,-6,-7,-6
1523144353461957,1,10,3,9,-1,-5,-4,1
1523144353462459,2,1,-30,-13,4,18,13,-3
1523144353462459,-6,6,-8,-9,-8,-19,-10,-7
1523144353475996,-1,-8,5,4,-1,5,3,1
1523144353475996,-2,-4,13,6,2,5,13,5
1523144353476999,-4,-3,-5,-6,-5,-7,-9,-4
1523144353476999,-2,-1,-10,-4,-1,0,3,-1
1523144353499559,0,-10,10,3,1,-3,-9,-2
1523144353499559,-8,-4,-2,-2,-1,-2,0,1
1523144353500061,1,2,13,6,3,1,11,-1
1523144353500061,-5,5,47,-3,0,0,-8,0
1523144353521618,-8,-6,-53,-2,-2,-5,-4,-2
1523144353521618,3,2,16,6,4,4,-6,0
1523144353522622,-5,-2,-7,-3,-3,-6,-6,0
1523144353522622,8,-1,9,10,2,-2,1,-4
1523144353536158,-29,-11,30,-22,-2,1,10,3
1523144353536158,3,-9,3,9,3,2,7,3
1523144353537159,-1,-1,8,7,-3,-2,-3,0
1523144353537159,-11,10,-42,-15,-5,-4,4,2
1523144353559217,29,11,12,10,6,0,5,-5
1523144353559217,-1,-6,-25,-11,-2,0,1,-4
1523144353560239,4,-6,16,14,0,-4,3,-2
1523144353560239,-5,-5,0,-3,2,8,10,13
1523144353581776,12,4,-6,-5,-3,-1,9,0
1523144353581776,2,5,20,0,-1,0,-2,0
1523144353582779,-8,1,-8,1,0,-1,-2,0
1523144353582779,32,-2,-8,-5,-1,-4,-8,-5
1523144353595312,-1,7,-2,11,1,5,-2,-1
1523144353595312,-8,-1,9,-5,-4,-3,-10,-3
1523144353603834,3,-2,-15,-10,0,1,6,1
1523144353603834,-14,-2,-22,4,-3,-1,-7,-4
1523144353619376,2,4,36,-2,-5,-4,-6,-1
1523144353619376,5,4,-7,1,-1,2,2,-3
1523144353619879,-8,-4,-1,0,0,1,-1,0
1523144353619879,-4,2,7,1,3,3,2,-2
1523144353641939,1,4,-16,2,0,-1,-2,2
1523144353641939,-4,-2,2,0,-2,-1,4,0
1523144353642438,-2,1,9,-4,-2,-2,-2,-2
1523144353642438,-3,1,11,0,-1,0,-4,-2
1523144353655476,-2,-3,-41,-5,-4,-2,-3,-1
1523144353655476,7,25,4,5,1,1,0,0
1523144353663497,-1,-13,6,-3,0,1,-2,-3
1523144353663497,-4,-2,-17,5,0,0,-2,-1
1523144353679537,-5,12,50,-14,-4,-3,-1,1
1523144353679537,3,7,-19,8,5,-2,-1,0
1523144353680040,4,6,-2,-8,-4,-4,-3,-2
1523144353680040,-9,3,6,1,1,2,2,-1
1523144353701596,2,11,0,0,0,-2,2,-3
1523144353701596,-3,-8,33,0,-2,-3,-3,-1
1523144353702599,-11,-5,-21,2,2,4,4,2
1523144353702599,8,-3,6,-6,-3,-4,-6,-1
1523144353715633,-4,0,-8,-3,-6,-6,-7,-5
1523144353715633,-2,2,27,5,1,-1,-1,-2
1523144353723654,-11,-29,-6,2,1,0,1,0
1523144353723654,0,18,12,-1,-4,-5,-12,-3
1523144353739196,-11,-26,-3,-5,1,2,-2,-3
1523144353739196,11,12,-7,-5,-6,-7,-6,6
1523144353740198,5,-12,-32,-3,1,1,-2,-1
1523144353740198,2,20,4,1,1,3,7,3
1523144353761756,0,-4,3,5,2,-3,-6,0
1523144353761756,-4,1,-26,-6,-2,0,-1,-2
1523144353762762,3,2,14,-11,-6,-6,-11,-2
1523144353762762,-9,-11,-9,3,1,5,10,-1
1523144353775296,4,13,-12,-1,-1,-4,-6,-2
1523144353775296,3,9,-9,5,3,9,30,6
1523144353783819,1,-7,10,-4,4,5,-1,-1
1523144353783819,-6,-9,7,2,0,-4,-4,-1
1523144353799359,5,1,5,5,2,3,6,2
1523144353799359,-6,-4,-9,-4,-4,-7,-39,-10
1523144353800360,9,20,14,2,-4,-5,5,-1
1523144353800360,-6,-11,-11,-6,-1,4,2,2
1523144353821917,1,-6,-21,-4,2,0,-1,1
1523144353821917,12,24,11,2,-3,-6,-6,-5
1523144353822417,-6,-8,-9,2,0,-1,2,-3
1523144353822417,-6,-9,5,-5,-7,-5,-20,-6
1523144353835454,1,-10,-2,3,0,-2,-1,0
1523144353835454,-2,1,-20,2,0,5,15,0
1523144353843491,1,7,16,-3,-3,-4,-20,-6
1523144353843491,5,11,-1,-5,-4,-7,-2,-3
1523144353859517,-6,-8,-9,2,-6,-10,-17,-4
1523144353859517,-2,-8,18,-7,3,5,11,3
1523144353860017,-14,-42,-11,10,8,6,11,-1
1523144353860017,3,18,-7,0,-1,-3,-1,-1
1523144353881574,-2,-9,-2,1,-2,-1,-5,0
1523144353881574,-15,-24,10,10,1,3,-2,2
1523144353882577,10,22,-3,-13,-5,-6,2,-2
1523144353882577,-3,-8,-25,-3,2,0,-3,0
1523144353904143,-8,-20,17,3,3,6,10,0
1523144353904143,0,-2,-30,0,-5,-8,4,-6
1523144353906141,-5,-9,16,1,-1,-2,-6,-2
1523144353906141,-2,-3,-10,-4,-4,8,15,0
1523144353918174,4,13,0,-1,1,1,-3,2
1523144353918174,-3,-21,-8,-4,1,-1,-3,1
1523144353927198,3,15,8,1,-1,0,4,2
1523144353927198,1,-3,-1,-3,2,1,-8,-9
1523144353941743,-1,-1,-5,-1,-2,0,25,3
1523144353941743,-13,6,8,-5,-6,-4,-19,0
1523144353943240,3,-4,-8,18,10,10,13,7
1523144353943240,-4,-22,-3,-2,-6,-3,3,4
1523144353964303,3,9,-2,2,-2,0,-9,-6
1523144353964303,-3,-12,3,-9,1,-2,-4,-3
1523144353965800,4,18,-7,3,-9,-10,-10,-3
1523144353965800,6,-4,-1,0,1,-1,13,-1
1523144353977837,-2,7,-8,-5,-2,-1,-9,0
1523144353977837,-1,-3,-3,4,1,5,10,4
1523144353986857,4,-3,4,-8,-3,-7,-8,-3
1523144353986857,-1,7,-12,5,7,5,6,1
1523144354001895,1,16,-9,-4,-2,-2,0,-1
1523144354001895,3,-1,10,-3,-4,-4,-1,-7
1523144354003399,0,8,-31,-5,1,3,9,2
1523144354003399,-3,-1,10,-6,-7,-4,-11,-6
1523144354024456,-11,-2,-1,2,0,-3,-2,-2
1523144354024456,5,-3,-2,-3,-7,-8,-14,-3
1523144354025959,-3,3,15,3,1,4,27,0
1523144354025959,19,-2,0,3,2,3,4,0
1523144354038013,-21,-14,-9,-1,-1,-1,-3,-2
1523144354038013,7,-6,-7,-6,-3,-2,5,-3
1523144354047036,4,1,43,2,-5,-7,-13,-1
1523144354047036,-2,16,-51,-4,1,-5,-5,1
1523144354061574,-3,-12,14,3,4,5,13,3
1523144354061574,3,4,8,-7,0,-2,-1,0
1523144354063581,-3,5,21,0,-1,0,8,-4
1523144354063581,-7,0,-11,0,1,0,-1,0
1523144354084135,5,-19,21,3,0,-3,-9,0
1523144354084135,-1,-3,-4,1,1,5,15,3
1523144354086139,-2,-1,-11,-4,-2,0,-6,0
1523144354086139,-1,-8,23,0,-4,0,-3,0
1523144354098171,18,0,-20,-3,-2,-3,-1,-3
1523144354098171,-9,0,8,2,-2,-2,-5,1
1523144354107206,14,1,0,-4,0,-2,-8,3
1523144354107206,-2,-2,12,0,-3,-4,0,-1
1523144354121736,0,8,1,1,-4,-2,-6,-2
1523144354121736,-4,-2,-14,1,-1,1,-3,-2
1523144354123239,-3,-1,-8,-5,-1,-1,-6,-1
1523144354123239,-6,4,21,0,-1,-1,-4,0
1523144354144297,3,-4,1,1,1,2,0,-1
1523144354144297,4,3,4,6,3,2,0,-1
1523144354146305,-2,9,-8,1,0,0,0,-1
1523144354146305,-4,-17,14,-1,-2,-5,-5,-2
1523144354158834,-4,9,-9,-3,-2,-1,2,-1
1523144354158834,2,-1,-8,0,-2,-5,-4,-3
1523144354165353,-10,-17,17,-5,-4,-4,-8,-5
1523144354165353,4,17,5,3,2,1,-1,2
1523144354181895,0,-18,-46,0,0,2,1,0
1523144354181895,-7,-12,3,-5,1,0,1,-2
1523144354183400,3,9,-2,5,4,4,-1,1
1523144354183400,-3,-1,-15,2,-2,-4,0,0
1523144354204455,1,16,17,-2,-2,-6,-2,-2
1523144354204455,4,1,-8,3,2,4,2,0
1523144354205959,-12,-12,-14,-4,-3,-3,-6,-3
1523144354205959,1,-5,-4,-4,-4,-3,1,-2
1523144354217993,-1,27,29,0,-3,-2,-5,0
1523144354217993,-5,-16,-18,-1,-3,-2,-1,-2
1523144354227015,-6,2,17,-3,1,2,1,1
1523144354227015,20,3,7,4,4,2,4,-2
1523144354241553,0,-1,-17,-2,-2,-5,-7,-1
1523144354241553,-5,-11,-3,-1,2,0,-2,-4
1523144354243559,5,21,-9,-9,-11,-10,-13,-5
1523144354243559,-23,-36,-7,-1,2,4,-3,5
1523144354264616,3,-3,15,0,1,2,9,1
1523144354264616,2,-9,43,-1,-1,-1,-1,2
1523144354266120,14,6,-51,-2,0,2,3,1
1523144354266120,-6,-2,-3,2,-3,-4,-5,-2
1523144354278150,-1,-8,-13,0,3,3,8,0
1523144354278150,-6,-3,22,-1,-2,-5,-11,-1
1523144354287175,-2,10,45,-2,-5,-3,0,-4
1523144354287175,-5,-13,-35,-4,-5,-9,0,-2
1523144354301713,-1,1,-4,-4,3,4,-2,-1
1523144354301713,2,-10,-16,-1,-1,-4,-7,-2
1523144354303719,-1,13,12,2,-2,-1,5,2
1523144354303719,-10,-41,-20,-5,-2,-4,-2,-7
1523144354323270,4,21,-52,1,-4,-5,-6,0
1523144354323270,-13,-23,90,-12,-9,-13,-12,-6
1523144354331794,-2,-1,-23,11,9,7,1,0
1523144354331794,1,23,-2,6,2,0,-6,3
1523144354337810,-6,-9,12,-3,-6,-6,-10,-6
1523144354337810,5,18,-27,5,2,5,3,1
1523144354354354,-3,-11,-14,-4,-4,-10,-12,-2
1523144354354354,-8,-8,58,-1,1,9,12,-2
1523144354361878,0,6,10,3,1,-3,5,0
1523144354361878,-5,-5,-8,4,1,4,9,1
1523144354363378,-2,1,-5,-3,-3,-3,1,0
1523144354363378,5,12,-20,-4,-1,3,5,-1
1523144354384433,-4,-1,56,-4,-3,-5,-7,-5
1523144354384433,0,11,-34,-1,0,-1,4,1
1523144354385938,3,-16,-40,-2,-2,-5,-16,-3
1523144354385938,5,12,25,-4,-5,-6,-11,-1
1523144354397970,-2,-3,8,1,-1,6,10,3
1523144354397970,5,1,-33,-1,-2,3,0,-2
1523144354406993,-6,-11,-3,0,-2,-3,-4,-1
1523144354406993,2,12,3,-2,-2,-2,-10,0
1523144354422033,0,-18,-3,-2,-1,-6,-16,0
1523144354422033,0,10,-17,1,2,5,7,-3
1523144354423538,-4,5,-1,-6,-2,4,8,-3
1523144354423538,-10,0,5,1,-1,-5,-7,-6
1523144354444092,-11,-16,0,-1,-3,-6,-6,-4
1523144354444092,35,1,9,-7,-1,2,8,-2
1523144354446098,-3,-2,4,25,4,2,-3,-1
1523144354446098,-1,-9,-3,-35,-6,1,11,3
1523144354458137,-4,0,4,-9,4,2,-8,-2
1523144354458137,-12,5,-11,-3,-3,-4,0,1
1523144354467155,-5,-10,29,-1,0,2,3,1
1523144354467155,7,12,-7,9,0,-3,-10,-1
1523144354481694,-2,4,-8,4,-2,1,-7,2
1523144354481694,-8,-4,-43,-1,-1,-2,-5,-1
1523144354483698,21,-11,23,-8,2,-4,-1,-1
1523144354483698,-7,11,2,1,-4,-5,-1,-4
1523144354504253,2,-1,2,0,-4,0,15,0
1523144354504253,-3,7,9,4,1,5,6,-1
1523144354505757,-3,11,-18,-7,-5,-7,-7,-3
1523144354505757,-7,-11,18,4,3,2,6,0
1523144354517793,4,-2,-2,4,2,2,-1,-4
1523144354517793,-7,0,9,1,0,-1,-3,2
1523144354526814,-6,3,-14,-4,-4,0,9,1
1523144354526814,-3,-11,-8,2,-3,-3,-7,0
1523144354542354,-8,2,17,1,1,0,-11,1
1523144354542354,-6,-3,-11,0,0,-1,7,1
1523144354543859,6,-6,-2,-6,1,1,3,-2
1523144354543859,3,-1,-5,5,0,1,6,1
1523144354564413,8,0,-13,-1,-2,-3,1,-1
1523144354564413,-4,4,5,-3,-2,5,17,0
1523144354565917,-18,-7,-7,-1,1,0,-7,-2
1523144354565917,6,7,-5,2,-1,-1,0,-1
1523144354577948,-2,-1,2,-3,-4,-9,-5,-3
1523144354577948,18,0,-5,-2,-3,-6,-16,-13
1523144354586975,-16,-3,-9,-3,0,2,8,4
1523144354586975,-5,3,18,1,1,2,-4,-3
1523144354602013,4,-6,-16,-3,-3,-1,1,0
1523144354602013,-16,-6,-3,3,0,-2,-6,-4
1523144354603518,4,-5,-9,2,-2,0,-2,-2
1523144354603518,8,16,-27,-2,-3,-3,-5,-1
1523144354624071,-4,-3,36,4,0,2,7,0
1523144354624071,-2,-3,1,-2,0,-4,-8,2
1523144354626077,3,-14,-29,-4,-2,-1,1,-1
1523144354626077,-3,9,10,-1,1,0,2,-1
1523144354638108,-4,-1,-8,-1,-3,0,-1,0
1523144354638108,1,0,1,0,0,-3,-7,0
1523144354647138,1,2,14,-3,-3,-1,-6,-2
1523144354647138,1,-8,-7,2,2,0,0,-1
1523144354661674,2,-4,-15,-2,0,0,3,-1
1523144354661674,0,5,25,-2,-3,-5,-5,1
1523144354663676,-2,5,12,0,-1,0,1,1
1523144354663676,0,-9,-64,-2,-3,-2,-2,0
1523144354684231,-1,-4,60,-2,-2,0,2,-2
1523144354684231,-4,-6,-39,-3,0,0,1,2
1523144354685736,4,29,-3,-2,-1,-2,-5,-4
1523144354685736,-6,-31,29,1,-1,1,1,0
1523144354697769,5,5,-10,-2,-2,-1,-3,-2
1523144354697769,-3,-1,-10,0,1,1,1,1
1523144354706793,5,13,8,1,-1,0,-2,1
1523144354706793,3,12,23,-1,-5,-8,-10,-6
1523144354721831,-1,-17,-35,3,3,7,8,4
1523144354721831,1,1,26,-2,-4,-4,-4,0
1523144354723337,0,-12,-25,3,2,4,2,1
1523144354723337,1,11,45,-5,-8,-9,-7,-2
1523144354744392,1,5,-69,4,4,3,4,3
1523144354744392,-20,-14,55,-5,-1,1,-2,-3
1523144354745896,8,6,0,-2,-3,-3,-3,-4
1523144354745896,5,10,-36,-5,-3,1,2,-2
1523144354757936,-6,8,0,-4,-8,-7,-6,-4
1523144354757936,-2,-3,1,3,6,7,5,8
1523144354766953,-1,-4,-14,1,0,2,2,0
1523144354766953,-4,-3,32,2,2,5,5,2
1523144354781991,3,12,-22,-6,-2,-3,-4,1
1523144354781991,4,0,-20,-1,-2,-2,-4,-2
1523144354783496,-8,-36,0,-4,1,-1,6,0
1523144354783496,3,17,-9,5,-2,-5,-5,-1
1523144354804050,-3,-18,8,-5,-2,-2,2,-2
1523144354804050,-3,3,-4,-2,-3,-3,-6,-2
1523144354806056,3,13,13,-4,-3,-4,0,1
1523144354806056,-3,-16,-23,-4,0,-1,-1,-2
1523144354818087,4,1,11,-1,-1,-2,-3,-1
1523144354818087,3,3,-8,1,-2,-3,-2,-2
1523144354827122,-5,-14,13,5,2,2,0,-1
1523144354827122,-2,0,-15,-5,-2,-2,-2,-1
1523144354841149,-2,20,24,5,1,3,1,-1
1523144354841149,4,7,32,2,3,2,3,0
1523144354848167,12,-8,-17,-6,-1,2,5,-1
1523144354848167,-14,-49,-21,2,6,8,8,2
1523144354864214,2,4,-13,3,0,-3,-3,-2
1523144354864214,5,10,-3,-5,-3,-4,-1,-2
1523144354865718,-13,-25,-1,1,-1,0,3,-2
1523144354865718,5,15,-1,2,3,4,6,0
1523144354878248,-4,-3,14,-4,-4,-4,-2,-2
1523144354878248,4,-2,-26,3,1,-5,-14,-3
1523144354886770,1,5,6,-4,-3,-2,0,-2
1523144354886770,-4,12,23,-4,-2,-2,-5,-4
1523144354909332,-9,-10,-22,-2,0,0,1,-1
1523144354909332,2,2,-4,-1,-4,-8,-10,-3
1523144354910835,2,5,5,1,0,0,-2,2
1523144354910835,2,-2,16,0,-3,-5,-13,-2
1523144354924874,2,-4,-7,0,2,7,7,0
1523144354924874,-3,9,27,-1,-3,0,4,-1
1523144354930387,-6,-7,-1,-2,-2,-6,-3,-3
1523144354930387,-1,1,-14,2,1,4,7,-1
1523144354947434,-2,2,1,-2,-2,-8,-11,-2
1523144354947434,-1,-9,-15,-1,-2,-1,6,2
1523144354948938,-9,5,10,0,-1,-2,0,0
1523144354948938,2,2,2,-2,-1,-2,-2,1
1523144354961472,10,-1,-1,-3,-4,-1,-6,-5
1523144354961472,-7,-3,4,1,-1,0,0,0
1523144354967990,0,6,-1,-1,0,-3,-11,0
1523144354967990,-2,-4,-7,-3,-2,-6,-6,0
1523144354984529,-5,-5,7,-1,-1,-1,6,0
1523144354984529,1,-2,-15,1,0,5,3,0
1523144354986035,9,-4,-14,-4,-4,-3,0,-2
1523144354986035,9,3,-2,-1,-1,-3,-2,-1
1523144355007092,-5,-6,-3,0,1,-1,-1,0
1523144355007092,5,-4,-3,-1,-1,2,1,-1
1523144355008594,24,4,21,1,-1,-1,-5,-2
1523144355008594,-18,4,-1,-2,-4,-2,-2,1
1523144355021129,11,3,2,-1,1,-3,-3,-2
1523144355021129,8,-6,-4,0,1,4,5,1
1523144355028146,-16,0,18,3,1,0,-1,1
1523144355028146,-3,-15,-14,-4,-4,-3,-3,-4
1523144355044190,-22,-4,8,2,1,3,5,2
1523144355044190,56,2,-7,-6,-5,-4,-2,-4
1523144355046196,-36,6,-7,0,1,-1,4,-1
1523144355046196,7,1,-5,-1,-1,1,2,-1
1523144355066751,-3,-12,-15,-2,-5,-1,-4,0
1523144355066751,-11,-3,5,-1,-1,-2,-1,-2
1523144355068254,15,0,-14,4,-1,0,1,-2
1523144355068254,-3,11,22,-6,-4,-2,-3,-2
1523144355081289,-4,-10,-42,-1,1,0,3,1
1523144355081289,-2,-2,-5,-2,-1,0,0,-2
1523144355087805,1,4,19,-3,-3,-5,-6,-2
1523144355087805,-15,-1,3,4,3,4,11,1
1523144355104353,9,10,20,1,-3,2,0,-1
1523144355104353,-20,-21,-15,-1,-1,2,11,2
1523144355105855,-19,1,-6,-1,2,8,5,-4
1523144355105855,19,-5,-12,-4,-3,-5,-3,2
1523144355126911,13,-7,14,0,0,-2,-1,-5
1523144355126911,-17,4,-6,0,-1,-5,-3,-1
1523144355128415,2,-4,3,-2,-3,-7,-17,-4
1523144355128415,6,2,4,0,-1,2,10,-1
1523144355140955,-5,-9,-3,-1,0,0,-1,-2
1523144355140955,-17,5,4,-1,-1,-1,-4,0
1523144355147965,10,-1,-5,-2,-2,-2,-3,0
1523144355147965,-4,0,0,-1,0,-1,-4,-2
1523144355164508,-11,-1,9,0,-1,-2,-1,1
1523144355164508,7,7,-23,-2,-1,-2,-7,-1
1523144355166014,-8,-18,-22,-4,-3,5,19,0
1523144355166014,0,-6,-1,2,1,1,-3,-2
1523144355187069,-1,4,9,-2,-3,-2,-3,-1
1523144355187069,-5,-4,3,2,0,-2,-5,0
1523144355188573,3,15,10,1,0,0,-2,3
1523144355188573,-4,2,10,-2,-2,-8,-7,-1
1523144355200606,2,2,8,-3,0,2,6,0
1523144355200606,-12,-2,0,-1,0,-1,-5,-3
1523144355209657,-4,-13,-29,0,0,-3,-2,-1
1523144355209657,3,-4,7,-1,0,0,-2,-2
1523144355224169,-2,3,-21,0,-2,-4,-9,0
1523144355224169,0,-6,-17,6,4,4,8,0
1523144355225672,2,12,24,-3,-2,-4,-3,-3
1523144355225672,1,11,-1,4,2,2,0,2
1523144355246728,-4,-3,5,6,-4,-3,-3,1
1523144355246728,-3,-14,9,-6,-5,1,-1,-5
1523144355248233,1,-14,-4,0,1,-3,-2,0
1523144355248233,0,10,-44,4,2,1,-3,0
1523144355260766,3,12,-2,-4,-6,-7,-4,-6
1523144355260766,3,-14,4,12,7,10,8,5
1523144355269290,2,2,-15,-2,0,2,-2,1
1523144355269290,1,13,56,-5,-5,-6,0,-3
1523144355284332,16,2,-25,1,1,0,-4,-5
1523144355284332,-5,-5,-4,-5,1,3,4,2
1523144355285833,-1,10,3,-1,-4,-3,-5,-3
1523144355285833,2,10,7,-9,-4,2,7,-4
1523144355306888,-12,-18,-47,-7,1,0,3,-1
1523144355306888,2,23,31,-5,-5,-5,-19,-3
1523144355308396,-6,-8,-16,1,-3,-2,-3,0
1523144355308396,4,10,-9,-3,-1,-2,-5,2
1523144355320453,-5,-7,18,-3,0,-3,5,2
1523144355320453,7,16,10,-2,-1,1,4,1
1523144355329450,-1,-2,1,-5,-1,-2,-3,-2
1523144355329450,-6,-23,-28,6,-1,-3,-9,-5
1523144355344489,-2,2,46,1,3,4,7,4
1523144355344489,-5,-10,-23,-7,-5,-8,-7,-4
1523144355345995,5,11,1,4,3,0,-1,3
1523144355345995,-4,-13,5,4,3,3,6,1
1523144355374067,-4,8,15,5,2,5,8,1
1523144355374067,5,-14,-9,-2,-2,-2,2,-4
1523144355376073,-8,-17,-24,-5,-5,-3,-3,2
1523144355376073,-11,-2,-5,4,3,7,12,2
1523144355380584,17,-8,17,0,-6,-11,-17,-5
1523144355380584,-5,2,-5,-2,-3,3,9,2
1523144355389609,-6,-28,6,2,3,3,1,-2
1523144355389609,0,-6,-3,-4,-2,-2,-6,-1
1523144355404150,-4,9,-4,-6,-4,-5,0,-3
1523144355404150,-4,7,10,3,-2,-3,-4,-3
1523144355406153,4,3,9,1,1,1,5,1
1523144355406153,-6,-14,-9,-2,-2,-3,-6,-2
1523144355426709,-4,-5,-5,-2,1,3,-5,-1
1523144355426709,1,8,5,-3,-4,-3,0,2
1523144355428212,-1,5,-2,-4,-2,-1,1,-1
1523144355428212,1,2,1,-1,1,-6,-4,4
1523144355440252,-5,-2,-4,-1,-2,1,-7,-1
1523144355440252,-1,-6,14,3,2,-3,-21,-2
1523144355449268,0,6,-3,-2,-3,1,6,1
1523144355449268,-5,-8,14,1,-1,-2,-4,-5
1523144355464813,-8,-23,-39,-2,2,3,6,1
1523144355464813,-6,4,6,0,-3,-6,-3,0
1523144355466313,4,-5,14,-3,-1,-4,-9,-4
1523144355466313,0,5,-4,1,-1,7,7,-1
1523144355486868,16,3,-3,2,1,0,1,-2
1523144355486868,2,1,-8,-1,-1,2,3,1
1523144355488372,0,-8,2,-2,0,0,12,1
1523144355488372,10,3,-10,-3,-3,-9,-9,-3
1523144355500405,-6,8,12,-3,-2,1,5,4
1523144355500405,0,-3,-22,-1,1,-6,-1,-2
1523144355509427,2,14,9,2,-1,3,8,1
1523144355509427,-5,-4,13,1,-2,-6,-14,-1
1523144355524474,13,9,2,-4,-2,1,3,0
1523144355524474,-3,7,-50,2,4,1,5,2
1523144355525973,-35,-2,18,-1,-2,-2,-4,-1
1523144355525973,-17,-8,-16,-4,-2,-3,-1,-4
1523144355547028,-10,-22,8,0,0,-3,-10,-5
1523144355547028,2,3,-1,-1,0,-2,1,-2
1523144355548532,-13,0,-10,1,1,-2,-6,-4
1523144355548532,4,3,-20,-1,-2,0,-1,-1
1523144355560566,-6,4,2,-8,-4,-2,1,2
1523144355560566,-8,-8,11,-1,-2,-2,1,-4
1523144355569589,2,0,-3,0,0,-6,-13,-6
1523144355569589,8,0,3,-1,-1,7,14,3
1523144355584128,-2,8,11,6,8,5,12,3
1523144355584128,-12,-4,-2,-8,-7,-1,-1,0
1523144355586130,18,5,8,-3,-3,-2,-4,-5
1523144355586130,3,2,-7,2,4,2,-2,-1
1523144355606695,-6,1,0,0,-4,-3,3,-1
1523144355606695,-7,-5,9,-1,1,2,6,1
1523144355608692,-1,-8,3,2,-1,-8,-13,-1
1523144355608692,-4,0,4,-2,1,5,16,2
1523144355620223,-2,-3,-4,2,-2,-4,-12,-4
1523144355620223,-4,-8,5,2,1,8,10,-4
1523144355629253,15,13,7,-8,-5,-3,-2,0
1523144355629253,5,-5,-3,-1,-1,-4,-7,-3
1523144355643814,-9,3,-16,-2,-2,-4,-3,-3
1523144355643814,1,-6,-20,-1,2,-4,-7,-2
1523144355650333,6,13,5,3,1,3,6,4
1523144355650333,-2,-2,-11,-2,0,-1,0,0
1523144355666880,-1,-3,12,-2,-2,0,-5,-2
1523144355666880,2,-4,5,-2,-3,-3,-1,-2
1523144355668380,-8,-1,-11,-2,1,2,2,0
1523144355668380,0,-1,12,-1,-1,-3,-5,-3
1523144355680414,-2,1,0,1,-3,-1,-3,0
1523144355680414,2,4,10,-2,0,-2,-5,-2
1523144355689435,1,0,-25,1,0,0,3,0
1523144355689435,-3,-19,19,-6,-4,-4,-2,-2
1523144355704484,-9,8,11,-1,0,-2,1,-1
1523144355704484,15,2,-17,0,1,1,-5,1
1523144355705979,0,-8,3,1,-1,0,-1,-2
1523144355705979,-1,4,9,0,-2,-1,0,-2
1523144355727036,-3,-4,-12,-1,-1,-2,-1,-2
1523144355727036,-3,3,3,-2,-3,-2,1,1
1523144355728540,10,4,-14,0,0,-1,0,-1
1523144355728540,-1,-5,-5,-2,-1,-1,-4,-2
1523144355740572,-2,-7,1,-3,-2,-1,-3,5
1523144355740572,1,9,10,0,1,-5,-7,0
1523144355749597,0,-12,-9,-4,-2,1,0,-2
1523144355749597,3,19,-3,3,-2,-5,-2,-1
1523144355764134,3,-2,-27,3,4,4,3,1
1523144355764134,-1,1,27,1,-1,-2,-2,-2
1523144355766139,-9,-10,-8,0,0,-3,-3,0
1523144355766139,2,0,-6,-1,-2,0,0,0
1523144355786695,3,6,-15,1,1,-1,-2,0
1523144355786695,-1,11,-3,5,0,0,1,-1
1523144355788199,2,7,3,-5,-2,-6,-5,-4
1523144355788199,2,0,9,0,2,3,3,1
1523144355800232,-1,-13,-11,1,-3,-5,-6,-6
1523144355800232,9,33,-31,-7,-2,2,4,6
1523144355809255,-23,-28,6,-1,-6,-7,-3,-5
1523144355809255,-7,-14,-9,2,-1,-1,0,-2
1523144355823794,2,7,27,-6,-4,-6,-5,-3
1523144355823794,-5,-9,23,5,0,4,3,-1
1523144355830310,3,11,-8,-7,-1,1,1,0
1523144355830310,-1,-3,-8,-1,-1,-3,-3,2
1523144355846855,4,-19,-13,-1,-1,0,-10,-10
1523144355846855,-6,-13,-3,-6,-6,-11,-23,-8
1523144355848359,10,3,0,4,5,11,24,7
1523144355848359,-15,-8,8,-5,-5,-6,-13,-1
1523144355869419,6,10,18,6,8,7,8,3
1523144355869419,-6,-21,-43,-7,-3,-5,-2,-2
1523144355870920,6,12,8,0,1,-2,-8,-3
1523144355870920,3,15,0,-4,-4,-4,1,-4
1523144355883453,-14,-17,-5,-2,-7,-8,-8,-7
1523144355883453,-1,-10,-3,2,3,7,7,0
1523144355890471,-1,5,20,-1,-3,-2,-2,1
1523144355890471,4,6,-11,1,4,1,-5,-1
1523144355907015,-8,-10,30,-1,0,0,2,3
1523144355907015,-8,5,-14,1,-3,-4,-2,2
1523144355908521,16,3,21,-7,-2,1,-2,-3
1523144355908521,0,-1,-1,-1,-1,-3,-5,-2
1523144355929076,0,11,-13,-2,-2,0,11,1
1523144355929076,-7,-4,17,-3,-3,-4,7,-4
1523144355931079,-3,-3,12,4,1,-2,-12,1
1523144355931079,-3,-2,-17,-12,-2,-3,0,-3
1523144355943614,2,7,6,-3,-1,-2,-5,-3
1523144355943614,2,-7,8,-1,0,1,11,0
1523144355950631,0,9,-4,4,-1,-2,-3,-1
1523144355950631,7,-4,-24,4,4,12,13,3
1523144355966677,-1,2,-14,-4,-1,2,3,1
1523144355966677,3,-1,42,-5,-4,-4,-3,-5
1523144355968178,2,10,-28,3,-2,-1,-11,1
1523144355968178,-10,-13,4,-5,-3,-6,-1,-3
1523144355989234,8,14,33,5,7,8,9,4
1523144355989234,11,8,-23,5,4,0,-8,0
1523144355990739,-9,-4,4,2,3,3,10,2
1523144355990739,19,-4,-18,-13,-4,-1,-5,-4
1523144356003781,10,3,-10,7,0,-3,-5,-4
1523144356003781,-7,-6,32,6,-4,-2,-6,-3
1523144356010792,-2,-9,-37,-6,0,1,4,-1
1523144356010792,-3,5,-3,0,0,-4,-2,-2
1523144356026834,-3,-1,-1,-6,-1,-3,-3,1
1523144356026834,1,-5,-3,-9,-2,1,1,1
1523144356028339,-3,-2,14,9,3,0,1,-2
1523144356028339,-1,1,7,4,0,1,5,6
1523144356049395,0,-4,-7,1,6,8,3,-1
1523144356049395,-6,0,-13,-1,-2,2,1,1
1523144356050898,0,-1,12,-12,-6,-6,-1,-3
1523144356050898,-11,-14,-8,12,3,5,14,5
1523144356063431,3,6,-25,-14,-5,-7,-11,-3
1523144356063431,-3,9,16,2,-5,0,-5,2
1523144356070452,18,-9,7,-3,-2,1,12,-1
1523144356070452,14,21,1,3,3,1,-7,-3
1523144356086993,-4,-5,-4,-8,-5,-2,9,3
1523144356086993,1,-12,9,5,0,1,-3,1
1523144356088499,-3,10,12,-9,-2,3,-1,1
1523144356088499,-5,-15,-14,4,-2,-1,-4,-3
1523144356109554,9,-2,-5,6,-4,-6,-6,-3
1523144356109554,8,-5,-2,-9,0,-6,-16,0
1523144356111058,4,0,-4,0,-2,0,3,-6
1523144356111058,10,4,5,-1,0,-3,-5,-2
1523144356123592,-16,-6,0,1,-1,0,3,0
1523144356123592,12,-2,-7,3,1,-1,6,-3
1523144356130615,-7,-6,-15,-13,-1,-1,-7,-1
1523144356130615,-6,1,14,1,-3,-2,-9,-2
1523144356146653,-7,-7,8,4,-2,-5,-3,0
1523144356146653,-1,9,-13,-4,0,-4,-5,-1
1523144356148158,-9,-12,-1,-4,-4,-5,-1,-6
1523144356148158,0,9,12,2,4,1,4,3
1523144356169212,-7,-11,-2,-12,-2,-1,-4,-2
1523144356169212,-5,-1,-17,8,1,1,2,-3
1523144356170722,-10,1,13,5,1,-1,-5,0
1523144356170722,-12,-8,-13,-16,-7,-4,-8,-5
1523144356182749,0,3,-4,19,1,3,-5,-1
1523144356182749,-3,10,16,-5,2,2,7,2
1523144356191773,-9,-9,-10,-1,-1,0,-1,0
1523144356191773,-1,-8,17,4,1,4,8,1
1523144356206821,0,4,-22,-8,-3,-2,2,-1
1523144356206821,-3,-5,26,-4,-3,-2,-4,-5
1523144356208316,-3,5,-15,-1,-2,1,11,-1
1523144356208316,-1,2,-7,-6,-1,-2,1,-2
1523144356229373,-2,-10,-17,-3,2,0,-4,-4
1523144356229373,-17,-11,-13,-6,0,4,4,0
1523144356230880,-1,9,9,-3,-4,-6,-9,-1
1523144356230880,-3,0,20,0,1,-4,-9,-3
1523144356242909,-4,-7,12,0,-1,3,14,8
1523144356242909,-1,2,-51,1,-5,-6,-4,6
1523144356251935,-6,-22,-13,-1,3,3,-2,-31
1523144356251935,4,7,0,0,-2,-5,-4,9
1523144356266989,-8,-3,11,-4,-5,-6,-11,-8
1523144356266989,-5,-13,-10,-3,-2,0,4,5
1523144356268476,3,3,27,3,-3,-2,-4,1
1523144356268476,-2,3,-15,6,3,3,6,-3
1523144356289534,6,12,3,-5,3,4,10,5
1523144356289534,-2,-15,4,0,1,0,-5,-6
1523144356291046,-1,14,-11,-3,-6,-5,-3,1
1523144356291046,-9,-28,-4,7,4,7,7,-1
1523144356303068,3,13,12,-3,-5,-6,0,3
1523144356303068,4,21,19,5,2,2,-8,-7
1523144356312096,-8,-20,5,-5,-1,2,-3,3
1523144356312096,7,16,-12,-4,-6,-7,-11,3
1523144356326632,-6,-9,-1,-4,-8,-6,-3,-8
1523144356326632,2,-14,14,8,9,9,18,3
1523144356328636,-4,8,-12,-3,-4,-6,-10,2
1523144356328636,15,-10,-4,-3,-4,-1,-13,-4
1523144356349193,2,7,14,-4,-3,-6,-7,-5
1523144356349193,-4,-4,-9,-10,-4,-2,-3,-6
1523144356351196,3,8,2,2,-5,-14,-9,1
1523144356351196,-9,-21,-30,7,11,11,13,3
1523144356362727,-1,8,-5,-2,-4,-3,-6,-4
1523144356362727,8,20,22,-3,-5,-6,7,0
1523144356371751,0,-12,-20,2,1,-3,-14,3
1523144356371751,-4,10,29,-8,-8,-7,6,-6
1523144356386793,-5,-16,-41,2,2,0,-3,3
1523144356386793,0,13,34,2,3,5,6,-5
1523144356388296,2,0,12,0,-1,-8,-10,-3
1523144356388296,-3,7,9,1,-6,-1,8,-2
1523144356409361,0,-1,-1,3,5,4,4,2
1523144356409361,-5,-9,-13,-5,-7,-7,-8,-4
1523144356410859,0,1,18,4,2,2,-2,1
1523144356410859,-3,10,14,-6,-6,-7,3,-3
1523144356422890,10,13,-9,0,1,1,-2,0
1523144356422890,1,2,-6,5,5,3,0,1
1523144356431912,0,4,8,4,3,15,24,7
1523144356431912,-3,0,-16,-4,-1,-4,-7,0
1523144356446951,-3,-3,-3,-2,-1,7,7,1
1523144356446951,3,5,3,1,-1,-3,-7,-4
1523144356448457,-7,-16,-11,-2,0,0,8,4
1523144356448457,8,8,-2,4,2,3,-4,1
1523144356469511,14,1,11,1,1,-2,-1,-5
1523144356469511,-8,-12,-11,-5,-4,4,8,0
1523144356471017,2,-2,-13,3,5,5,6,0
1523144356471017,-5,-3,-5,-1,-4,-2,1,-2
1523144356483046,-14,-7,34,-1,-4,-5,-21,-5
1523144356483046,3,-5,-40,-9,-3,-3,2,3
1523144356492070,1,1,5,4,2,1,-4,-1
1523144356492070,4,1,4,0,0,-3,3,0
1523144356506613,-12,-8,5,1,3,6,13,1
1523144356506613,22,-7,3,0,-4,-3,1,-4
1523144356508616,3,6,-7,-8,-4,-7,-16,-1
1523144356508616,5,20,-1,11,8,7,8,12
1523144356529172,-2,-8,-9,-13,-8,-7,-9,0
1523144356529172,-13,-17,-41,-5,-1,-4,-2,-4
1523144356531176,-1,10,3,-2,-2,4,10,4
1523144356531176,0,1,13,1,-3,-6,-10,-6
1523144356542707,-2,-3,-14,10,2,0,0,-2
1523144356542707,-2,-2,-5,-9,-4,-4,-7,0
1523144356552232,-5,-2,-3,0,-1,-1,2,1
1523144356552232,-5,-2,-8,-11,-4,-2,-6,-8
1523144356566771,3,-3,-3,-4,2,-1,0,0
1523144356566771,-16,-3,27,9,-5,-10,-22,-7
1523144356568274,2,0,5,10,3,6,15,2
1523144356568274,-4,-1,-6,-20,-2,-1,3,0
1523144356589341,-1,-10,6,4,0,-3,-8,-1
1523144356589341,-1,13,9,-4,-1,-1,2,3
1523144356590835,-4,-19,-22,1,-2,-3,-7,-3
1523144356590835,-7,-24,22,9,2,3,16,0
1523144356602867,-9,6,1,-7,0,0,-2,2
1523144356602867,4,-4,-4,1,-1,0,-3,-3
1523144356611891,6,11,37,7,-2,-3,-16,-4
1523144356611891,-14,-4,-32,-13,-4,0,2,-3
1523144356626935,1,-2,0,-3,-2,-1,1,0
1523144356626935,-10,-1,6,3,0,2,8,6
1523144356628435,7,1,2,0,0,-3,-7,-1
1523144356628435,9,1,1,-3,-2,-8,-17,-4
1523144356649490,-4,7,5,4,-1,1,5,-1
1523144356649490,-2,-1,2,4,1,2,4,1
1523144356650996,-7,-4,-3,-6,-1,-2,-2,-1
1523144356650996,-1,-1,-9,5,-3,-4,-13,-2
1523144356663027,3,-8,-11,-2,-1,-2,-2,-2
1523144356663027,2,-9,11,-1,0,-1,-2,0
1523144356672051,-4,8,2,-4,-1,-1,-2,0
1523144356672051,-4,-6,56,6,1,2,1,0
1523144356686589,1,-3,-4,-2,2,1,3,0
1523144356686589,3,1,-16,-3,3,3,4,-1
1523144356688594,-1,5,23,-2,-3,0,4,1
1523144356688594,-3,-11,13,5,1,2,2,-2
1523144356709153,2,2,-5,0,-4,-5,-5,-2
1523144356709153,2,15,-1,1,-1,0,2,0
1523144356710656,0,-1,-20,-1,0,2,5,-1
1523144356710656,4,2,-9,-2,1,0,-5,-2
1523144356723185,-5,-6,17,2,0,-2,3,-3
1523144356723185,2,23,-42,-7,-7,-8,-5,-3
1523144356731710,0,-12,-38,-3,3,4,1,-1
1523144356731710,-3,-24,-11,-7,-4,-3,0,6
1523144356746251,2,21,20,3,-8,-14,-10,-5
1523144356746251,-8,-15,47,4,6,8,3,0
1523144356752764,5,24,-10,-4,-5,-7,-5,-1
1523144356752764,-16,-45,-4,-3,-3,-3,-4,-7
1523144356769309,-4,19,-51,-4,-3,-4,-9,-1
1523144356769309,-1,-7,25,14,5,5,10,5
1523144356770813,-3,-6,-7,-4,-1,-1,0,-1
1523144356770813,6,19,-49,1,-3,-3,-2,0
1523144356791871,5,11,52,-3,-1,-3,-4,-6
1523144356791871,-6,-22,-8,-5,-3,-4,-3,-4
1523144356793377,0,-9,-26,3,4,2,-8,0
1523144356793377,-2,10,25,5,3,5,8,0
1523144356805909,-1,-12,-6,-6,-5,-2,0,0
1523144356805909,5,9,-15,-6,0,-3,-13,1
1523144356812925,2,4,15,-1,0,6,21,1
1523144356812925,-5,-17,-7,-24,-7,-10,-10,-5
1523144356829468,2,1,-4,14,6,9,6,-2
1523144356829468,1,1,25,1,0,-3,-10,0
1523144356830973,-10,-21,-32,-3,-4,-5,-8,-6
1523144356830973,9,40,8,5,3,11,28,4
1523144356852028,-5,-34,-22,-3,-1,0,0,-2
1523144356852028,-7,-18,-15,-11,-5,-4,-10,-4
1523144356853533,2,17,19,3,-3,-7,-13,0
1523144356853533,15,12,14,6,2,0,-6,4
1523144356866067,-5,3,-17,-26,-12,-8,-5,-4
1523144356866067,-1,-3,1,14,10,12,15,6
1523144356873089,-1,-20,-46,-4,-1,-2,-4,1
1523144356873089,-7,6,81,7,-3,-9,-13,-6
1523144356889132,-1,-13,-16,13,4,1,6,5
1523144356889132,6,15,-14,-10,-2,2,11,-1
1523144356891132,-5,-9,23,-3,-2,1,7,-3
1523144356891132,-3,-2,-23,1,1,0,-10,-1
1523144356911690,0,-8,24,4,3,3,-1,2
1523144356911690,-5,5,-6,0,-6,-7,-9,-7
1523144356913194,-2,-7,-1,-2,0,3,13,-1
1523144356913194,-3,-3,-12,-1,-3,-2,-8,-3
1523144356926228,4,5,11,1,4,-2,-6,2
1523144356926228,3,5,-22,-3,-2,-2,4,-2
1523144356933246,-1,-1,9,7,-2,-6,-3,2
1523144356933246,2,16,-7,-1,-2,1,8,0
1523144356949289,-3,4,40,-6,-1,-3,-15,-2
1523144356949289,-1,-3,-34,5,1,4,3,1
1523144356950792,-1,2,21,-8,-11,-16,-17,-3
1523144356950792,-1,4,-1,13,5,-4,0,1
1523144356971855,-3,9,-4,8,5,0,3,-5
1523144356971855,0,-5,-3,-22,-2,7,16,1
1523144356973352,1,0,21,-4,-13,-7,-15,-2
1523144356973352,-5,-26,-15,12,13,8,18,-2
1523144356986387,0,4,-5,-3,-4,0,-5,-3
1523144356986387,-6,-8,6,1,-5,-12,-23,-4
1523144356994408,-1,8,10,-2,3,7,13,2
1523144356994408,-1,2,-3,-1,-5,-4,-9,-4
1523144357009447,3,1,-24,-1,3,3,17,3
1523144357009447,-14,0,14,-2,-6,-10,-9,-6
1523144357010952,2,4,0,-1,1,-3,-9,-1
1523144357010952,-7,-12,-10,-11,-4,-4,-6,-4
1523144357032008,-1,-6,-12,7,1,-7,-5,-1
1523144357032008,2,20,34,-5,-4,0,2,1
1523144357033514,-5,-19,2,5,4,4,7,0
1523144357033514,3,15,5,-5,-4,-4,-5,-1
1523144357046047,-10,-3,-23,-2,-3,1,8,11
1523144357046047,13,-1,6,3,0,1,1,-1
1523144357053064,0,0,-8,-1,2,-3,-7,-2
1523144357053064,-2,-2,-12,-11,-2,0,-15,-1
1523144357069111,-1,-1,21,-5,-4,0,6,-1
1523144357069111,-2,-3,12,6,3,0,-2,1
1523144357071112,0,-1,-17,-2,2,0,3,-1
1523144357071112,-3,-4,-3,-1,-4,-3,-5,-1
1523144357091675,-7,-5,-13,2,1,3,12,0
1523144357091675,-2,-7,-9,-3,-3,-2,6,1
1523144357093672,2,0,6,1,2,2,-9,-3
1523144357093672,-5,0,-9,0,0,6,12,0
1523144357105212,3,-1,6,-3,-1,-2,-8,-4
1523144357105212,-4,-11,-8,0,-1,-3,-1,-3
1523144357114227,-2,4,-6,-5,-3,-3,4,0
1523144357114227,-9,-8,-6,2,2,1,4,0
1523144357129270,9,7,3,2,-1,0,0,-2
1523144357129270,-5,-18,-10,4,1,-1,-12,-2
1523144357130770,4,1,-17,-4,-1,-1,3,1
1523144357130770,2,7,0,-1,-5,-8,-8,-1
1523144357151828,0,-8,-1,-2,-2,-2,-3,-3
1523144357151828,-2,0,-13,-4,-3,-2,-3,-1
1523144357153333,-1,2,-2,3,3,6,1,-1
1523144357153333,3,2,-8,-4,-3,1,1,-1
1523144357165364,-6,-12,3,10,3,4,-5,1
1523144357165364,1,6,4,-19,-5,-1,1,-2
1523144357174389,-3,-2,4,-7,-3,-8,-4,-4
1523144357174389,2,0,-6,-3,-3,-3,-1,-2
1523144357189426,-2,9,-10,-2,-4,-4,-5,-3
1523144357189426,-2,-18,19,10,0,-1,0,0
1523144357190935,-3,-6,57,1,3,5,5,2
1523144357190935,-2,2,-44,-10,-6,-5,-7,-2
1523144357211986,2,-2,-14,-5,-2,-2,-8,-2
1523144357211986,0,3,9,7,0,-5,-2,-3
1523144357213491,-2,9,-18,3,1,3,0,0
1523144357213491,2,6,14,1,-2,-1,-1,0
1523144357225522,0,-5,-10,-4,0,6,5,1
1523144357225522,-3,-5,-6,2,0,1,-5,0
1523144357234548,9,-2,-31,4,-1,1,4,0
1523144357234548,-2,25,39,-3,-2,-5,-3,-1
1523144357249587,-4,-12,-8,5,3,4,2,1
1523144357249587,-5,-7,44,-7,-4,-8,-13,-5
1523144357251091,3,20,-26,4,1,-3,-3,-1
1523144357251091,-6,-36,-23,-13,3,6,-3,0
1523144357271654,-10,12,2,-9,-6,-7,-7,-2
1523144357271654,1,9,70,8,-2,-4,-8,-3
1523144357273149,0,6,-65,-4,0,2,4,-2
1523144357273149,4,2,29,6,-2,-5,-4,-3
1523144357285682,-4,4,-1,-2,-1,0,0,2
1523144357285682,6,16,-9,-1,2,3,1,3
1523144357294206,-5,-4,30,-8,-6,-4,-6,-4
1523144357294206,-9,-13,-16,-4,-5,-7,-9,-6
1523144357316769,8,-4,8,0,6,9,15,5
1523144357316769,-6,-18,-27,0,-3,-1,-3,-5
1523144357318773,0,5,25,4,0,-7,-15,0
1523144357318773,-4,-14,-40,-15,-9,-4,11,-3
1523144357331807,-2,9,14,6,0,-5,-6,-3
1523144357331807,1,3,-32,1,2,5,13,0
1523144357333311,-11,-4,7,1,0,-4,-11,-3
1523144357333311,7,-8,7,3,0,-2,-2,1
1523144357345343,2,-2,-40,2,3,2,2,1
1523144357345343,0,19,7,-1,0,1,5,0
1523144357360382,-4,-19,33,-4,-3,-2,2,-1
1523144357360382,2,21,-54,-6,1,2,-2,2
1523144357369407,-3,-24,12,-2,0,0,2,-3
1523144357369407,6,12,-7,4,-3,-2,1,2
1523144357370910,-2,-9,4,-4,-1,0,0,1
1523144357370910,5,16,17,1,2,3,1,2
1523144357391965,-7,-16,-6,-8,-6,-4,-16,-3
1523144357391965,-6,-15,-12,-7,-5,-1,-2,-5
1523144357393471,1,3,-20,-4,0,1,8,0
1523144357393471,-4,-9,5,8,-1,0,-1,-1
1523144357405502,3,5,8,-3,-2,-4,4,-2
1523144357405502,-1,-1,-3,-1,2,2,0,0
1523144357414526,0,-4,2,-2,-3,-1,-1,-1
1523144357414526,-5,-9,18,6,1,-1,-5,-1
1523144357429065,1,1,3,0,0,-3,5,0
1523144357429065,1,3,-11,-11,-4,1,3,1
1523144357431072,1,-4,-6,0,-1,3,3,0
1523144357431072,-6,-15,15,6,1,-3,-3,0
1523144357451625,0,5,-6,-4,-2,-8,-12,-5
1523144357451625,-2,-6,-26,4,5,15,32,4
1523144357453633,1,12,5,2,-1,-3,-7,-2
1523144357453633,-4,-3,7,-6,-2,-2,3,-2
1523144357465662,2,8,12,4,0,0,-2,-1
1523144357465662,0,-6,-39,-4,-1,-10,-15,-3
1523144357474184,-2,0,-4,-1,-1,8,16,-1
1523144357474184,-8,-5,12,14,5,5,7,2
1523144357490228,28,-1,0,-14,-7,-1,6,-1
1523144357490228,-9,0,25,3,0,-2,-18,1
1523144357491732,10,-10,-20,-4,-1,0,6,-1
1523144357491732,2,14,-8,7,0,0,-6,-3
1523144357511784,-5,5,21,-3,0,6,10,2
1523144357511784,-1,2,-6,0,0,-9,-17,1
1523144357513289,-5,-2,0,-3,-2,-5,-6,-2
1523144357513289,4,11,58,2,-1,1,4,2
1523144357525321,-2,-3,-42,-5,0,-2,-5,-5
1523144357525321,2,3,7,1,-1,-1,-2,0
1523144357534346,-14,-3,18,-1,-1,-2,-4,-1
1523144357534346,2,8,8,3,0,-3,-13,0
1523144357549385,2,-14,-1,-2,-5,-3,-1,2
1523144357549385,1,-21,2,-9,-2,-4,0,-3
1523144357550890,-2,-1,-2,6,5,2,3,3
1523144357550890,2,-16,-32,-1,1,-2,-2,-1
1523144357571946,-12,10,32,4,-1,-2,-3,3
1523144357571946,-1,9,-1,4,-2,5,10,-1
1523144357573451,1,-5,-21,-8,-4,-4,-6,0
1523144357573451,4,-5,-5,0,0,-4,-5,0
1523144357594505,-7,2,-7,4,4,5,16,1
1523144357594505,19,0,31,1,1,2,-1,-2
1523144357596011,-6,2,-33,2,-1,0,-4,-2
1523144357596011,-5,-5,-22,-7,-1,-2,-2,-1
1523144357609045,-9,-13,11,-3,-5,-6,-9,5
1523144357609045,-2,5,-1,-5,-3,-6,-5,-1
1523144357611049,4,-4,6,2,-1,1,-2,-3
1523144357611049,-3,1,-10,4,1,-1,6,1
1523144357631605,-2,11,15,-15,-1,-2,-10,-2
1523144357631605,-4,-25,-31,2,-2,-2,3,-2
1523144357633612,-6,5,25,0,0,0,-1,2
1523144357633612,-1,1,-3,-3,-1,-1,5,-1
1523144357645640,0,5,7,13,2,0,-2,-5
1523144357645640,-5,1,-10,-6,-3,-5,-7,-2
1523144357654664,4,-4,1,-5,-1,-1,3,-3
1523144357654664,1,-7,1,-2,-2,3,5,-1
1523144357669230,9,10,19,1,-1,1,-2,-3
1523144357669230,0,8,-53,-3,-2,-3,-5,-1
1523144357670735,-8,-28,8,1,-1,1,-2,-1
1523144357670735,4,6,-3,-2,1,0,4,2
1523144357691790,-3,4,-13,-1,-1,-5,-11,-2
1523144357691790,-4,-1,19,0,0,1,4,-1
1523144357693295,0,5,7,2,-1,-4,-2,-2
1523144357693295,1,0,-34,-3,1,9,5,1
1523144357705334,-2,-7,-2,6,0,-1,1,-1
1523144357705334,7,-3,20,-1,-4,-7,-14,-5
1523144357714351,0,-1,-74,-7,2,2,2,1
1523144357714351,-1,7,22,-3,-8,-10,-12,-4
1523144357728389,-6,-15,5,6,8,10,10,3
1523144357728389,-4,9,-17,4,3,5,4,2
1523144357735410,3,7,23,4,-7,-7,-6,-3
1523144357735410,-3,2,-5,-2,-3,-7,-5,-5
1523144357751950,-16,-5,-39,-4,-2,-2,-10,-7
1523144357751950,-2,-6,-7,5,1,8,16,4
1523144357753456,-6,-10,37,-7,-5,-3,-7,-2
1523144357753456,-2,-5,-18,-2,-1,-1,1,-1
1523144357774509,-7,-8,19,0,-3,-3,-3,-5
1523144357774509,-7,-7,-7,-12,-3,-5,-8,-4
1523144357776014,5,16,-8,-2,-1,-4,-10,-2
1523144357776014,-6,5,18,0,1,3,7,0
1523144357788550,3,-3,-18,-3,-3,-6,-5,1
1523144357788550,-2,-2,16,0,1,8,18,-1
1523144357795567,5,5,-6,-4,-3,-5,1,1
1523144357795567,5,9,14,-4,-1,-1,-4,-2
1523144357811611,3,-4,-15,11,3,3,6,1
1523144357811611,0,5,10,-3,-4,-5,-4,-1
1523144357813614,-3,8,-6,-4,-4,-1,4,0
1523144357813614,0,10,7,-3,-5,-1,-4,-3
1523144357834169,3,3,13,-3,1,0,-1,3
1523144357834169,5,4,-48,4,7,9,13,6
1523144357835674,-4,-4,40,-1,3,7,6,-2
1523144357835674,14,17,8,-2,-3,-11,-8,-2
1523144357848710,0,-17,-1,-1,-3,10,12,0
1523144357848710,-3,2,-12,-12,-3,-5,-6,-2
1523144357855233,-6,-16,-13,0,-1,-4,3,-3
1523144357855233,-4,-10,6,5,6,8,2,0
1523144357871778,3,11,-2,-8,-6,-11,-8,-5
1523144357871778,0,6,14,5,-1,-2,-5,-2
1523144357873274,-3,-18,0,-8,-3,-1,0,-1
1523144357873274,-4,-14,-12,-4,-1,3,-1,0
1523144357894329,-2,0,31,3,-2,-4,-1,1
1523144357894329,10,14,9,-8,-4,-7,-8,-3
1523144357895833,-5,5,2,1,-3,-9,-10,-4
1523144357895833,-4,-16,-26,-4,-1,-1,0,-1
1523144357908868,-1,-12,-5,-5,-2,-1,-5,-4
1523144357908868,-5,7,30,-2,-4,-6,-13,-4
1523144357915385,0,2,-11,6,-2,-10,-18,-3
1523144357915385,1,8,11,3,2,8,7,0
1523144357931929,0,6,-21,-10,-3,-3,-2,3
1523144357931929,1,-8,-2,4,1,2,0,0
1523144357933434,3,-1,1,6,0,4,0,-1
1523144357933434,-5,2,-5,-6,-4,-5,-7,-2
1523144357954490,-2,5,3,-1,-5,-8,-10,-3
1523144357954490,-5,-10,33,3,1,-11,-20,1
1523144357956003,-6,1,-42,-2,5,15,31,4
1523144357956003,-10,-9,11,4,-2,3,-3,-2
1523144357968527,12,-6,2,-5,-3,4,-11,4
1523144357968527,-4,-5,2,1,-4,-5,-7,-1
1523144357975548,7,14,9,0,1,3,5,-1
1523144357975548,2,-11,5,-4,-5,-3,-1,2
1523144357991588,-8,-6,-9,1,5,4,12,-1
1523144357991588,2,12,-2,6,7,1,6,0
1523144357993595,2,-4,-4,-2,-4,-2,-17,4
1523144357993595,8,34,-23,-5,-2,-8,3,0
1523144358014150,-10,0,14,3,-2,6,5,0
1523144358014150,21,2,-24,-5,-2,0,6,-4
1523144358015651,-3,4,24,2,3,-1,-4,-4
1523144358015651,-1,-1,-1,1,-3,-4,-7,-4
1523144358028186,1,11,-17,-2,-4,-9,-7,-1
1523144358028186,-13,-6,-5,-1,-4,-1,-4,-5
1523144358037211,0,-2,23,-1,-3,-2,-4,0
1523144358037211,-3,-12,-3,4,2,-1,-9,-3
1523144358051750,5,0,-12,-2,4,13,40,3
1523144358051750,-6,-3,12,-2,-3,-5,-6,-3
1523144358053254,2,14,-8,-2,2,4,1,-5
1523144358053254,-11,-14,34,4,0,-5,20,9
1523144358074809,-1,-1,-46,-2,2,-2,-2,2
1523144358074809,4,-8,-18,4,3,5,6,6
1523144358075813,0,0,17,0,0,1,-1,-3
1523144358075813,-8,-22,1,-3,-4,-3,-6,-1
1523144358087853,-1,4,-4,-1,-3,-3,-14,-6
1523144358087853,-5,-3,23,2,-3,1,11,-1
1523144358096869,-2,-9,-14,-2,-1,-7,0,1
1523144358096869,0,-10,-16,-13,1,8,0,-1
1523144358111916,-4,-10,5,-1,0,2,13,1
1523144358111916,-5,-4,-3,0,-1,3,1,-1
1523144358113413,-6,-9,-3,1,-4,-6,-2,-2
1523144358113413,-2,9,6,5,2,0,3,-1
1523144358134470,3,5,9,-3,-3,-8,-10,-5
1523144358134470,-4,5,-30,-1,0,0,-4,-5
1523144358135977,1,-15,8,-3,-4,-2,2,4
1523144358135977,-1,1,-10,0,-1,-1,-1,-3
1523144358148005,0,3,8,1,-1,-4,-11,-3
1523144358148005,2,8,-6,2,0,-1,4,1
1523144358157030,-7,-7,15,-4,0,-8,-24,-4
1523144358157030,5,7,-7,-6,-3,-1,-1,-3
1523144358172069,2,12,15,0,-1,-2,-9,-1
1523144358172069,-7,-16,5,5,3,2,0,1
1523144358173573,5,14,-19,-4,-2,0,-2,-1
1523144358173573,1,0,-2,1,0,-3,-6,-1
1523144358194128,5,14,13,6,3,3,-1,1
1523144358194128,-3,-6,13,-7,-3,-3,-1,0
1523144358196132,3,10,-33,2,-2,1,2,-1
1523144358196132,-6,-18,5,0,1,1,0,-3
1523144358208164,-8,-16,-32,-8,-5,-8,-4,-5
1523144358208164,0,4,-19,-2,1,2,0,1
1523144358217189,-4,-16,25,1,-3,-1,-5,-2
1523144358217189,1,11,4,-1,-5,-6,-4,-4
1523144358231727,-3,-6,16,0,3,6,0,2
1523144358231727,1,3,-1,-6,0,-3,-8,1
1523144358233232,8,1,11,-4,-1,-3,4,0
1523144358233232,-3,-9,10,0,-3,-4,-2,-2
1523144358254288,-5,-3,-17,-2,-4,-4,-21,-4
1523144358254288,-14,-34,18,-10,-8,-9,2,-6
1523144358255791,-1,11,25,2,2,0,-2,3
1523144358255791,-1,-10,-16,4,3,1,1,0
1523144358267824,-4,-16,-13,-1,5,6,2,6
1523144358267824,-2,6,41,-5,-4,-4,-5,-3
1523144358276848,-3,-12,-27,-5,-3,3,0,-2
1523144358276848,0,1,-7,2,2,3,-2,3
1523144358291889,-2,0,-10,-3,-5,-3,11,-6
1523144358291889,2,7,-15,-1,0,0,-5,-1
1523144358293392,-7,-22,-9,0,-1,-1,3,-4
1523144358293392,3,17,-12,0,-3,-2,-10,-4
1523144358314450,1,0,-12,1,1,-3,-4,1
1523144358314450,2,14,-2,-3,-3,3,6,0
1523144358315953,-3,1,9,5,1,3,8,0
1523144358315953,1,17,-8,-6,-8,-7,-7,-6
1523144358327985,3,-1,13,1,-2,-9,-18,-1
1523144358327985,2,-21,3,5,-1,2,7,2
1523144358337009,2,2,-23,0,-1,-7,-8,2
1523144358337009,-9,11,3,-9,-4,-2,-2,0
1523144358352048,20,-16,18,-4,-5,-5,-3,-7
1523144358352048,0,8,-13,4,3,9,14,4
1523144358353552,3,5,6,0,0,0,7,1
1523144358353552,-14,-4,19,-2,-3,-4,-19,-5
1523144358374106,-5,9,-6,-1,0,7,15,-1
1523144358374106,3,8,23,3,1,-4,-6,-1
1523144358376112,1,0,1,-1,-1,0,3,-1
1523144358376112,0,-9,4,4,5,4,13,4
1523144358388144,-9,1,13,0,-1,-6,-9,0
1523144358388144,0,6,-7,0,-1,0,-9,-2
1523144358397167,-7,-4,6,-2,-1,-2,-3,-1
1523144358397167,10,-6,-12,4,8,10,14,6
1523144358411707,-4,7,12,3,-1,1,1,-2
1523144358411707,5,2,-26,-5,-1,-5,4,0
1523144358413211,-4,-4,7,-1,-3,1,-5,-2
1523144358413211,2,0,9,2,0,4,16,-1
1523144358434266,-1,0,1,-2,-3,-2,6,1
1523144358434266,-4,-1,-10,-2,-1,-3,-4,-2
1523144358435771,-6,-4,-5,-1,-1,3,5,-3
1523144358435771,4,-7,1,-7,-4,-7,-9,-6
1523144358447802,-6,0,-8,-2,3,3,1,0
1523144358447802,-2,0,4,0,-2,-2,-3,-1
1523144358456825,-4,-17,-15,-2,-4,-6,-9,-3
1523144358456825,-2,-1,15,1,2,3,-4,1
1523144358470866,1,2,-12,3,-3,-2,5,1
1523144358470866,-2,0,13,3,-3,-2,-7,-2
1523144358477883,-3,-7,-11,2,7,8,0,-4
1523144358477883,-5,-16,24,5,0,3,13,2
1523144358494429,10,10,-10,-12,-6,-9,-11,-3
1523144358494429,-5,-6,-5,11,5,1,6,-1
1523144358495932,9,7,14,-7,0,4,-2,-1
1523144358495932,0,-3,-60,-10,-7,-3,-5,-7
1523144358507965,-4,9,20,6,1,2,-2,1
1523144358507965,-3,-17,-12,-6,-2,-2,3,-7
1523144358516987,5,18,14,5,1,-2,0,0
1523144358516987,-6,0,2,-9,-6,-7,-6,-6
1523144358532025,-2,-5,-9,-5,-5,-2,-9,-13
1523144358532025,5,18,14,-2,-5,-3,-8,-2
1523144358533531,-3,-7,-10,0,-1,-2,10,3
1523144358533531,2,-24,-31,0,1,-2,-4,-2
1523144358554084,-16,6,-5,1,0,-2,6,10
1523144358554084,-23,-40,-5,-1,1,7,10,-9
1523144358556089,1,20,-6,1,-1,-3,-1,-4
1523144358556089,-6,6,9,2,-4,-5,-12,1
1523144358568122,3,-9,-13,1,-5,-4,-6,-11
1523144358568122,-6,5,-13,-16,0,1,4,7
1523144358577148,-2,-1,5,7,1,-2,-3,4
1523144358577148,-4,-5,-12,3,3,-1,4,-2
1523144358591185,-5,-5,7,7,4,4,5,12
1523144358591185,4,8,18,2,0,1,-1,7
1523144358597704,-2,0,9,-1,0,4,8,-6
1523144358597704,7,12,13,-3,0,0,-3,2
1523144358614246,1,-9,-4,2,0,1,0,0
1523144358614246,-1,0,-11,-1,-4,-5,2,-2
1523144358615749,19,1,-12,-3,-1,-3,-8,-5
1523144358615749,1,-1,2,-1,-1,0,0,2
1523144358636806,-6,-8,-9,-4,-4,-3,0,-1
1523144358636806,6,0,-1,1,-2,-3,-5,-3
1523144358638309,-6,8,1,-1,1,-2,1,7
1523144358638309,-1,-3,-4,-1,-1,-3,-1,0
1523144358651344,1,-5,5,-2,-1,1,-3,-2
1523144358651344,3,14,4,18,-1,0,-3,0
1523144358657862,-5,-14,-2,-13,-4,-7,-21,-4
1523144358657862,0,4,-35,-2,-1,7,36,3
1523144358674405,1,14,12,-1,0,-5,-1,-3
1523144358674405,-2,-5,-8,5,3,2,-5,0
1523144358675916,-2,-2,8,-1,-3,0,1,1
1523144358675916,1,1,27,-2,0,-4,-13,-3
1523144358695962,-1,5,10,-3,-2,0,-1,3
1523144358695962,1,1,-13,-5,0,-1,2,0
1523144358704486,-2,-1,-10,3,1,-2,-1,0
1523144358704486,-6,1,46,-3,-1,2,-5,-2
1523144358711002,-3,-23,-34,-1,-1,-2,2,-1
1523144358711002,3,10,-6,-4,0,-1,-8,-1
1523144358718022,-9,-21,10,-5,-3,-4,5,-1
1523144358718022,-1,0,-18,6,0,-6,-13,-1
1523144358734064,5,10,29,-2,-1,1,0,-1
1523144358734064,-5,-12,23,1,0,0,-1,-1
1523144358736070,-5,-8,-52,1,-1,-2,-2,0
1523144358736070,6,14,51,-2,-3,-2,-1,2
1523144358756627,-6,-5,-15,-2,0,-1,-2,-4
1523144358756627,3,0,-36,-6,-4,-4,-2,-1
1523144358758630,0,5,-4,-3,0,0,3,-1
1523144358758630,-2,-3,-31,-3,0,0,-3,-3
1523144358771165,-5,-3,44,4,-4,-4,-2,-4
1523144358771165,-1,-2,17,-5,-3,-3,-2,-2
1523144358777679,2,12,-30,7,0,0,-1,0
1523144358777679,-5,-10,15,1,4,4,8,2
1523144358794226,2,6,-1,15,2,0,-10,-2
1523144358794226,-7,-14,-22,-24,-8,-9,-9,-3
1523144358795730,7,3,3,2,-1,0,-1,1
1523144358795730,-3,6,27,1,1,2,3,-3
1523144358816785,7,0,11,3,-1,-4,-5,0
1523144358816785,-5,11,7,8,2,-1,-5,-1
1523144358818791,-9,-27,-47,-9,-2,6,20,-1
1523144358818791,-2,-5,-16,-2,-4,-4,-4,-2
1523144358831321,3,-6,7,-6,0,-3,-5,-1
1523144358831321,5,22,24,3,-1,-1,-7,-4
1523144358837839,-1,-2,18,-2,-1,-2,-2,2
1523144358837839,0,-10,-21,10,1,1,-1,0
1523144358854885,-4,2,-9,-10,-3,-1,0,-1
1523144358854885,1,-8,25,-2,-1,-1,2,1
1523144358856388,3,12,10,-2,3,3,2,0
1523144358856388,-5,-2,-12,1,-3,-6,-10,-5
1523144358877468,-1,-6,-26,-7,0,-4,-11,-1
1523144358877468,-2,-3,5,1,-3,6,15,0
1523144358878973,-9,-16,-39,-4,-3,-6,-7,-1
1523144358878973,-14,0,12,4,-4,-4,-2,-1
1523144358891005,-4,-19,-16,-9,0,-1,1,-2
1523144358891005,3,4,5,1,1,-2,-1,0
1523144358898024,-4,9,28,-1,-4,-2,-5,-3
1523144358898024,1,11,20,10,0,1,-1,1
1523144358914069,-2,-1,-22,-6,-5,2,3,0
1523144358914069,0,-1,14,4,-1,-1,-2,-1
1523144358916069,1,7,4,-4,0,0,-1,-1
1523144358916069,6,-1,-12,-5,2,-3,-14,-4
1523144358936625,0,-2,31,18,4,6,10,1
1523144358936625,-6,-7,-27,-12,-2,-3,1,-1
1523144358938631,3,15,16,2,-1,1,2,-1
1523144358938631,0,-15,-17,-1,1,4,-1,1
1523144358951164,3,11,16,0,-3,-6,-8,-4
1523144358951164,-2,-3,-11,5,1,-2,-3,1
1523144358958183,8,6,-2,-2,-4,-4,-6,-3
1523144358958183,3,2,-12,-9,-3,-2,0,-3
1523144358974226,-6,3,-5,0,3,3,10,1
1523144358974226,3,-8,-15,1,0,-2,-8,-2
1523144358980244,-4,6,8,0,0,1,5,-5
1523144358980244,0,5,-19,2,0,-1,-5,1
1523144358996788,-7,-19,-2,-4,-10,-1,7,1
1523144358996788,-2,-5,6,5,6,-1,-7,3
1523144358998293,3,2,9,7,7,7,11,2
1523144358998293,1,17,-10,-6,-3,-7,-4,-2
1523144359010322,-5,15,-5,-7,-3,-1,3,1
1523144359010322,-5,-25,-5,-3,-4,-2,-2,-9
1523144359019348,-6,-3,8,-3,-8,-7,-11,0
1523144359019348,-1,-5,-2,1,6,5,10,-9
1523144359034384,6,15,0,0,1,-5,-9,0
1523144359034384,-3,2,-3,3,6,9,2,-9
1523144359035891,1,-2,-28,5,0,-4,-2,0
1523144359035891,-11,-20,-3,-3,-2,0,3,0
1523144359056945,-20,1,-16,-6,-4,1,4,0
1523144359056945,59,-3,-9,-1,-2,0,-9,1
1523144359058450,-4,-17,13,0,-2,-2,-2,-1
1523144359058450,6,-4,14,-1,-4,2,5,2
1523144359070481,-10,0,11,2,8,1,-3,-2
1523144359070481,7,15,-10,1,-8,-8,0,4
1523144359079507,-20,8,11,0,0,-4,-12,-5
1523144359079507,9,0,-12,-10,-5,0,0,5
1523144359094043,24,-18,-1,-6,-4,-9,-3,0
1523144359094043,-20,11,5,-5,-3,0,0,-5
1523144359096050,10,-3,-1,5,1,-10,-9,3
1523144359096050,-4,8,-1,-9,-2,2,1,-3
1523144359116608,-3,-12,0,2,4,8,8,-1
1523144359116608,-14,-3,1,-1,1,-3,6,2
1523144359118609,-7,-12,3,-3,-7,-1,-2,-2
1523144359118609,-3,-2,0,1,2,-3,-8,1
1523144359130641,26,7,25,2,1,2,9,-1
1523144359130641,-20,-9,-34,-2,-2,0,-5,0
1523144359139666,7,1,12,-10,-1,1,-7,-2
1523144359139666,-4,2,6,1,0,-1,5,-2
1523144359154212,-4,-8,-4,-1,-3,-5,-6,-3
1523144359154212,-2,6,21,12,0,1,4,1
1523144359156210,7,0,-8,-13,-1,2,3,0
1523144359156210,-6,3,-11,-7,-7,-6,-6,2
1523144359176766,-9,-2,-5,5,1,2,4,-1
1523144359176766,4,-5,3,-4,-1,2,2,1
1523144359178268,1,8,0,5,2,2,1,-1
1523144359178268,-1,-9,3,3,1,-3,-5,0
1523144359190304,3,9,-6,4,2,2,-2,-1
1523144359190304,3,2,12,-3,-3,-4,-9,-2
1523144359199326,-8,-6,-28,-9,-5,-4,3,-2
1523144359199326,-2,-14,8,2,-2,-3,-2,-2
1523144359214376,1,7,-8,-2,-5,-5,-9,0
1523144359214376,-5,9,-9,-3,-2,-8,-1,-3
1523144359215871,0,-3,25,6,6,22,8,3
1523144359215871,3,-1,-47,2,-2,-10,-18,-2
1523144359236924,-5,-2,6,2,1,3,3,-1
1523144359236924,-5,-2,-17,-7,-6,-7,-3,-2
1523144359238437,10,18,70,13,8,2,6,3
1523144359238437,-3,0,-46,-1,-5,-4,-6,-7
1523144359250461,-4,9,-20,3,3,6,5,6
