timestamp,emg1,emg2,emg3,emg4,emg5,emg6,emg7,emg8
1523144762223571,-5,-8,-1,-5,-15,-7,-15,-18
1523144762223571,4,1,-1,-3,1,-5,5,17
1523144762231083,-3,0,-11,9,-79,-26,-9,-19
1523144762231083,0,-4,8,10,-1,-6,2,3
1523144762246630,-3,3,-5,-12,29,20,5,-11
1523144762246630,-3,0,-3,14,-46,-14,-4,9
1523144762247630,-4,0,3,-7,39,-7,-3,-11
1523144762247630,-3,2,3,-2,-12,1,-4,9
1523144762261167,7,4,-2,-6,20,-12,-2,-28
1523144762261167,-11,-4,3,-15,-33,6,-2,-4
1523144762268684,0,-7,-9,31,66,8,5,18
1523144762268684,1,2,4,-9,19,-12,4,-7
1523144762283722,0,0,2,11,41,7,-6,-6
1523144762283722,-1,2,-8,-14,-65,4,-7,-8
1523144762291244,2,2,9,16,-29,1,7,17
1523144762291244,-3,-1,-22,-13,3,-8,-2,-7
1523144762306786,-4,-2,8,-4,-62,-10,1,-1
1523144762306786,-2,-2,2,25,28,9,-6,-5
1523144762307286,3,0,-6,-31,-8,-18,-8,5
1523144762307286,2,-1,1,5,-2,-4,2,17
1523144762320826,-37,-9,-10,21,28,13,4,-50
1523144762320826,12,0,-3,4,25,-7,-2,19
1523144762328846,-6,-7,-6,-19,-40,9,-1,-28
1523144762328846,6,3,6,10,59,-4,4,18
1523144762343383,11,-1,8,-1,5,1,-4,8
1523144762343383,0,0,0,-7,-73,-13,-6,-2
1523144762350906,-7,-5,-3,-4,40,0,0,-12
1523144762350906,6,0,-2,9,66,8,-1,-2
1523144762366946,2,2,-1,-2,-19,-2,0,10
1523144762366946,5,-4,-1,-14,-6,22,3,-13
1523144762367447,9,6,6,22,50,-10,9,23
1523144762367447,-22,-6,-5,-5,-71,28,-7,-25
1523144762381491,6,-1,2,-18,16,-3,1,0
1523144762381491,-2,-2,1,7,62,-19,-4,19
1523144762388505,3,-1,-7,-16,-93,-7,3,-3
1523144762388505,-6,12,11,-8,22,-13,-10,-85
1523144762412068,8,0,-6,-20,44,12,2,35
1523144762412068,-12,2,4,48,-27,6,6,-41
1523144762412575,35,11,4,-5,76,-19,-5,45
1523144762412575,-24,-11,-7,-23,-39,53,15,-8
1523144762434127,53,12,1,-12,-60,-26,1,46
1523144762434127,-29,-16,-22,-69,-52,-13,-7,-47
1523144762435128,-7,-1,-19,-6,-19,4,-5,42
1523144762435128,-2,2,11,-5,20,-8,4,-18
1523144762448666,6,4,20,32,116,-8,4,12
1523144762448666,-1,0,8,-45,-2,-4,-15,-6
1523144762456686,-3,-8,4,1,6,20,0,-21
1523144762456686,-2,-5,-59,6,-115,-2,0,30
1523144762471725,-11,-10,28,53,16,6,3,-10
1523144762471725,4,2,27,4,25,-18,-12,-7
1523144762472728,-5,-4,-8,19,-29,5,11,13
1523144762472728,11,15,27,48,92,-6,6,20
1523144762494285,-9,-16,-60,-45,-12,-18,-7,-9
1523144762494285,-4,-2,8,12,-43,10,-1,6
1523144762495289,-4,6,11,32,-86,-9,-4,-23
1523144762495289,1,-9,-7,-12,-33,-8,-10,-4
1523144762508822,8,4,-10,14,-81,13,13,8
1523144762508822,-3,7,-7,30,39,1,11,12
1523144762516847,-13,-10,-13,-46,-27,-11,-6,-29
1523144762516847,1,-2,14,-5,-1,-28,-1,11
1523144762531883,-17,1,0,-1,-16,19,-20,-28
1523144762531883,9,-1,-12,4,1,18,7,-20
1523144762532386,-2,1,13,-6,37,-5,-7,2
1523144762532386,-4,-7,-6,11,56,-4,4,10
1523144762554443,-4,2,14,-13,-34,-16,-5,-2
1523144762554443,8,-1,2,3,47,6,14,44
1523144762554947,-8,-5,-10,3,48,12,-4,-19
1523144762554947,5,0,12,-13,-23,-16,-6,9
1523144762568482,-7,-5,-9,-6,25,6,-1,-18
1523144762568482,2,-1,-12,7,-14,-16,-10,19
1523144762577004,-1,6,7,-1,-12,40,28,-36
1523144762577004,1,-7,-25,-33,11,-9,0,34
1523144762591545,2,1,47,82,97,16,10,3
1523144762591545,-3,2,4,-22,5,-9,-9,-13
1523144762592547,-4,-1,-8,-20,-19,16,-2,-39
1523144762592547,3,-6,-11,-5,-27,-4,-2,-2
1523144762614103,-3,1,-18,10,34,2,9,14
1523144762614103,9,13,25,-10,14,7,9,-7
1523144762615106,-11,-3,-23,3,44,-16,-7,27
1523144762615106,-1,-4,49,9,33,13,3,4
1523144762628647,-6,-3,-1,-48,-66,-8,-15,-11
1523144762628647,-1,-3,-8,18,8,0,-1,-4
1523144762636697,-8,-3,0,-16,-20,-14,-8,2
1523144762636697,5,5,-14,-19,-54,3,-8,4
1523144762651745,-16,-4,-10,-4,13,-7,8,-4
1523144762651745,2,-1,11,35,-11,7,1,27
1523144762652706,1,1,0,-10,50,-12,-18,-39
1523144762652706,-12,-7,-4,9,-45,-16,-4,4
1523144762674298,10,-1,-1,-12,-51,33,10,15
1523144762674298,-15,-1,-28,-22,16,-11,2,4
1523144762675265,0,-11,3,9,18,2,-11,1
1523144762675265,8,8,12,33,20,7,-7,-7
1523144762688801,-2,-4,-17,-23,15,-1,17,-13
1523144762688801,-2,-6,-3,-7,-73,-19,-12,7
1523144762696824,4,2,9,16,-4,-7,2,5
1523144762696824,-1,1,7,-14,25,11,15,10
1523144762711863,4,3,-3,9,-20,-12,-8,6
1523144762711863,4,-5,-8,-2,15,13,0,-13
1523144762712366,-3,-1,1,-2,22,-13,-10,-54
1523144762712366,-5,0,-8,-32,38,-13,5,22
1523144762734436,-1,5,6,43,-13,-3,0,26
1523144762734436,-3,-6,-10,-26,-74,17,-1,-18
1523144762734931,2,-2,-8,8,-20,1,1,29
1523144762734931,1,8,8,5,8,6,0,-14
1523144762757518,-5,-3,0,-39,4,-22,-17,-16
1523144762757518,5,-4,1,50,43,10,1,-2
1523144762757992,-4,2,1,-5,-26,-9,9,46
1523144762757992,-3,-5,-21,6,-14,-2,-12,-22
1523144762772024,-2,2,2,-14,6,1,1,-2
1523144762772024,-5,0,11,-7,12,8,-2,-6
1523144762772531,3,-1,2,-7,-17,-16,-2,-8
1523144762772531,3,-2,-4,27,93,4,3,-1
1523144762794084,-6,-7,-8,-25,-76,-1,-5,39
1523144762794084,-11,-2,-10,-5,-1,-4,-11,0
1523144762795086,7,5,16,4,6,7,7,-2
1523144762795086,4,0,-6,-33,-80,-2,4,24
1523144762817644,3,0,-3,6,25,-2,0,-3
1523144762817644,-4,-1,-4,-9,52,-9,1,2
1523144762818152,-3,-3,-4,5,25,-1,-2,3
1523144762818152,-1,-4,6,11,-13,-11,-7,-15
1523144762831688,-2,0,-5,-12,2,-17,-3,-7
1523144762831688,0,0,1,0,10,-4,3,-2
1523144762832684,3,-1,7,39,37,18,3,1
1523144762832684,-4,-4,0,11,86,-1,0,-28
1523144762855246,-10,-6,-12,-34,-90,50,-1,-12
1523144762855246,9,1,3,4,84,-7,0,3
1523144762855752,2,2,1,-3,-50,-38,1,22
1523144762855752,-8,-2,6,1,10,28,6,18
1523144762877819,1,-2,-5,-7,11,-13,-9,-43
1523144762877819,-1,2,0,10,28,1,1,-23
1523144762878310,-19,-4,-3,-8,9,-4,0,2
1523144762878310,2,1,-3,2,-13,-8,-7,-9
1523144762891846,9,5,7,8,51,-15,-1,7
1523144762891846,7,2,-4,-10,-63,-16,3,5
1523144762892350,-6,-10,-3,17,51,18,-2,-6
1523144762892350,-1,0,-1,-20,-84,1,2,-8
1523144762914910,3,8,10,44,90,9,6,10
1523144762914910,-3,-8,-9,-38,19,-11,-14,-10
1523144762915908,-10,-6,-6,7,-34,4,0,0
1523144762915908,7,1,-3,-29,-65,-26,-9,5
1523144762937673,-1,-2,2,31,91,-6,-3,-9
1523144762937673,-9,-4,-3,-11,-45,-1,-5,4
1523144762938471,19,9,10,5,40,-12,0,-1
1523144762938471,1,-5,-5,-10,55,36,-2,-1
1523144762952004,-13,-7,-8,-12,-32,-10,-9,-2
1523144762952004,-19,-5,1,-11,-54,10,6,-29
1523144762952513,-3,-5,-12,-4,43,15,3,26
1523144762952513,0,-3,-7,-34,-55,-7,-4,5
1523144762974301,7,10,-39,5,76,-6,-6,-5
1523144762974301,-2,-8,33,-16,-96,6,-4,2
1523144762975074,4,6,8,19,70,-8,-5,-18
1523144762975074,-9,-9,-5,21,58,1,14,27
1523144762997626,7,7,-64,-14,-97,-7,-3,2
1523144762997626,0,-13,59,23,10,1,-6,-4
1523144762998126,1,3,-4,1,50,-16,-3,-12
1523144762998126,-2,-2,6,-10,-23,22,1,-11
1523144763011665,4,9,-10,-26,-20,-5,4,11
1523144763011665,10,7,-15,58,88,-1,5,10
1523144763012664,-9,-8,5,-24,-88,-11,-3,-6
1523144763012664,-3,4,-5,9,9,2,-8,-39
1523144763034266,-4,-8,23,9,3,-12,-6,-2
1523144763034266,-2,3,-18,-25,-9,5,7,9
1523144763035225,26,17,15,14,-22,7,9,23
1523144763035225,-14,1,-15,-7,-24,-17,-4,-8
1523144763058792,-4,-9,24,8,16,27,1,-6
1523144763058792,-5,-1,-14,-3,-40,-9,-8,-5
1523144763059791,-1,5,-11,-24,-115,-29,-23,-20
1523144763059791,11,2,6,2,80,-16,0,12
1523144763073326,-5,1,38,43,37,28,18,12
1523144763073326,17,7,-9,17,2,1,8,12
1523144763073833,-12,-6,-7,-27,-15,8,-11,-21
1523144763073833,-3,0,12,16,-6,0,1,-3
1523144763094382,-7,-10,2,-52,-67,-28,-7,-10
1523144763094382,3,5,-15,16,50,11,4,16
1523144763094883,-4,-1,20,1,-2,21,0,-20
1523144763094883,0,-14,-5,-7,3,-30,-3,8
1523144763117481,3,10,-34,4,-61,-8,1,6
1523144763117481,-8,-16,24,-14,56,-4,-2,4
1523144763118447,-5,0,-22,-5,-43,1,-8,-23
1523144763118447,5,5,28,37,-14,-7,5,8
1523144763131983,-3,-13,3,-18,55,40,4,-5
1523144763131983,2,6,-27,13,-62,-2,3,33
1523144763132484,-11,-7,-17,-33,-58,-25,-6,-41
1523144763132484,7,9,10,30,76,22,14,31
1523144763154045,2,8,27,12,4,-15,-2,-1
1523144763154045,2,-2,-7,-14,3,1,3,15
1523144763155043,2,-1,2,-11,27,-14,-5,22
1523144763155043,-7,-2,-19,0,-58,27,-9,-14
1523144763177602,-5,-6,-3,-21,-8,0,-3,-35
1523144763177602,8,8,21,2,-25,-11,0,-4
1523144763178103,-9,-5,-13,-7,-40,-10,7,0
1523144763178103,1,-2,-8,-10,-12,-3,-6,12
1523144763191689,8,-2,3,19,-77,-8,-5,9
1523144763191689,-23,-13,-32,-44,-49,-10,-3,-5
1523144763192642,19,2,8,35,91,16,7,41
1523144763192642,-4,4,6,-8,40,13,-4,-48
1523144763214244,-22,-6,8,7,1,-4,1,10
1523144763214244,13,1,-15,-22,-33,-9,4,14
1523144763215201,-9,-1,8,-2,-6,23,-8,-13
1523144763215201,-1,-7,-10,-14,-23,5,0,4
1523144763237762,-4,-1,-1,-13,-27,-7,-8,3
1523144763237762,1,7,4,2,47,6,-7,-42
1523144763238265,3,-4,0,24,57,13,19,31
1523144763238265,1,-2,-7,-9,11,-22,-9,-9
1523144763251800,0,3,10,-30,-13,4,2,12
1523144763251800,-3,1,-3,13,0,-6,-12,-12
1523144763252301,2,2,6,-15,-63,-12,-2,-2
1523144763252301,0,3,-12,0,5,5,6,3
1523144763274393,7,-6,10,9,111,-11,-3,-18
1523144763274393,-6,-10,-9,-10,-25,7,1,2
1523144763274862,-2,-2,-4,3,36,-3,-14,-8
1523144763274862,-1,-3,-12,-21,-52,7,8,-1
1523144763297422,-8,-2,4,36,52,17,7,41
1523144763297422,4,7,-1,-12,-4,-4,-1,-27
1523144763298422,-4,-1,-9,-15,-3,9,1,8
1523144763298422,-2,-6,2,2,-28,-9,-5,-12
1523144763311959,2,-3,-6,-11,-35,-11,-3,-16
1523144763311959,-4,0,8,24,43,-1,1,9
1523144763312462,1,3,8,3,43,-12,-2,-1
1523144763312462,-10,-2,-4,0,-45,-2,-4,-1
1523144763334051,9,1,-7,-35,-65,-10,3,-4
1523144763334051,-4,-5,-5,-12,-3,9,-5,3
1523144763335022,-9,-5,-4,7,7,7,3,-4
1523144763335022,4,2,5,20,33,-8,-2,21
1523144763357581,-1,1,1,18,52,-19,-6,13
1523144763357581,-2,-9,-5,-7,1,7,-4,-30
1523144763358082,6,4,0,0,-25,24,10,5
1523144763358082,4,0,1,-9,-22,-16,4,19
1523144763371116,-6,-1,0,-2,-15,-5,-7,16
1523144763371116,6,6,5,9,43,-15,-4,-47
1523144763379139,-17,-10,-14,-30,-71,-32,-7,13
1523144763379139,18,3,9,55,113,10,-1,1
1523144763394680,-1,2,8,21,61,4,-4,-6
1523144763394680,4,-3,-7,-27,-59,13,11,33
1523144763401752,-13,-5,2,45,48,-12,14,-1
1523144763401752,-18,2,-6,-62,-56,-43,-3,-82
1523144763418746,-2,-1,6,40,21,4,-12,-36
1523144763418746,26,8,8,12,86,-3,10,76
1523144763419749,6,-2,1,22,63,-5,16,-5
1523144763419749,4,-10,-22,-78,-67,25,-7,69
1523144763432285,-17,-11,-18,-67,-84,10,-3,-57
1523144763432285,-1,3,14,64,60,23,0,-8
1523144763439344,3,-6,-5,14,-33,-33,-18,12
1523144763439344,2,3,20,98,-3,30,5,1
1523144763454384,0,-3,-25,-49,-93,-5,-2,-7
1523144763454384,-9,-11,-5,-58,-35,-41,-20,-2
1523144763454848,11,23,8,-31,-85,46,13,1
1523144763454848,-16,-14,5,80,54,-13,6,13
1523144763477401,1,-2,32,2,84,-2,-1,4
1523144763477401,-14,6,-79,-27,-50,3,-6,-24
1523144763478403,7,-31,48,-25,65,-9,-1,28
1523144763478403,-6,23,-43,-97,-42,-6,-22,-39
1523144763490986,-11,-14,49,119,28,3,18,13
1523144763490986,2,12,7,-25,-56,9,15,37
1523144763498964,-7,-3,-32,-31,-65,-10,-16,-19
1523144763498964,3,-1,-3,2,-12,5,-2,0
1523144763514499,2,-1,-16,-23,65,-3,-6,-15
1523144763514499,-7,-4,2,41,6,-19,-11,-17
1523144763515001,5,7,4,-20,-10,22,10,21
1523144763515001,3,1,25,34,13,-32,-4,-33
1523144763537595,5,6,-25,-38,-59,6,3,19
1523144763537595,-1,-9,21,54,86,20,12,56
1523144763538068,-7,1,-18,-13,17,-11,-27,-79
1523144763538068,-5,-8,3,-37,-21,-4,7,5
1523144763551100,9,4,-2,42,9,-3,5,40
1523144763551100,-7,-4,6,-48,59,-4,-4,-38
1523144763559118,-4,-3,-6,1,-44,50,-1,-16
1523144763559118,4,7,4,-25,-13,7,13,23
1523144763574191,5,-2,-12,16,-22,17,-1,5
1523144763574191,-6,0,-1,-40,-37,6,0,-7
1523144763574663,-4,-14,-20,-2,29,-25,-14,18
1523144763574663,-2,13,2,39,30,6,-11,-85
1523144763597255,5,-3,26,-79,-88,-3,1,33
1523144763597255,2,3,21,58,71,7,8,-4
1523144763598254,-8,6,-36,-3,-9,4,-3,-21
1523144763598254,0,-12,29,7,-10,7,-3,10
1523144763611292,16,12,-39,-37,-7,-29,12,46
1523144763611292,-5,0,11,-7,-94,0,-4,-58
1523144763619314,1,4,-2,-49,54,-15,2,4
1523144763619314,2,-3,0,80,97,-14,0,40
1523144763634382,-15,-11,-1,-5,46,7,-10,-73
1523144763634382,2,6,-5,-65,-120,-3,8,36
1523144763634888,5,2,1,5,1,11,-2,7
1523144763634888,20,-8,-7,-19,-31,-7,20,75
1523144763657494,-66,-6,-8,-6,41,12,-35,-59
1523144763657494,8,1,-3,20,16,-8,-1,15
1523144763658456,5,2,20,36,10,-21,4,35
1523144763658456,-16,-2,-10,-56,-74,12,-13,1
1523144763680048,11,3,6,39,13,-5,6,1
1523144763680048,-10,-8,-3,-38,-15,-9,-12,-16
1523144763680521,3,-3,3,8,53,-7,7,23
1523144763680521,-3,2,9,43,95,16,2,-21
1523144763693550,12,-1,-3,5,31,-2,8,23
1523144763693550,-13,-12,-6,16,-43,7,-7,3
1523144763702578,8,6,10,-1,-39,11,12,7
1523144763702578,-6,-2,-10,-3,28,-17,-11,-28
1523144763719118,10,0,1,-30,-34,31,6,24
1523144763719118,15,5,12,28,29,-7,1,-49
1523144763720623,-23,-3,-2,11,5,-8,-7,-14
1523144763720623,10,-2,0,-30,-24,-2,-1,6
1523144763741221,11,8,-2,3,-2,-11,10,31
1523144763741221,-2,0,-22,-23,58,18,5,15
1523144763742682,2,-15,27,19,-30,5,-10,-28
1523144763742682,-4,3,-6,5,-7,-1,-4,-6
1523144763753756,7,5,11,-25,-12,-21,0,8
1523144763753756,6,4,1,52,82,-1,1,4
1523144763762734,-4,0,-18,-46,-35,-20,-6,-4
1523144763762734,-6,-6,-1,-4,-18,31,7,-10
1523144763777275,-1,5,1,6,-33,-16,-5,-21
1523144763777275,-2,-6,-2,4,5,-8,-7,29
1523144763779279,-4,3,1,-17,-55,6,-1,-2
1523144763779279,-6,-8,7,8,33,-9,2,21
1523144763799832,3,0,-7,-21,4,-3,-10,-19
1523144763799832,1,-1,2,0,-52,-4,-7,27
1523144763801336,-2,2,13,45,106,15,31,-3
1523144763801336,-1,-4,-18,-40,-106,10,-8,-2
1523144763813369,-4,-7,-7,9,-5,-14,0,-5
1523144763813369,2,0,2,7,55,-9,-3,4
1523144763822392,1,5,-9,-16,-40,24,0,4
1523144763822392,-1,3,7,5,61,-19,4,-13
1523144763837432,-1,0,-1,24,-15,6,-1,3
1523144763837432,-6,-6,-4,-28,-81,-11,-2,-17
1523144763838936,8,5,8,32,80,-7,1,-2
1523144763838936,-2,-2,-2,-24,29,-1,-2,6
1523144763859998,-4,-3,-6,-1,-7,-5,-5,-7
1523144763859998,1,3,4,5,5,-7,-2,-20
1523144763861496,6,-4,-8,-19,-47,-18,0,23
1523144763861496,-5,-1,-10,-30,-53,8,-6,-6
1523144763874030,1,-1,-1,12,-54,0,-2,-25
1523144763874030,-3,-7,-6,-7,-9,4,-5,16
1523144763882552,-7,0,-4,-7,-9,-3,-21,-20
1523144763882552,22,-1,-4,-26,-10,11,28,12
1523144763897760,21,4,-3,-12,-40,-24,-3,20
1523144763897760,-14,4,6,2,15,-15,-1,4
1523144763899096,12,-3,-2,3,-88,4,-24,-2
1523144763899096,-6,4,0,37,23,-10,-4,-11
1523144763919860,0,-2,-4,-55,-15,8,5,27
1523144763919860,-12,-4,2,38,86,-4,6,-4
1523144763921656,-35,-6,-15,-60,-64,-15,1,0
1523144763921656,-19,-4,6,-25,84,13,0,8
1523144763933828,8,2,8,64,92,3,-4,-8
1523144763933828,8,11,7,-28,-57,-19,-10,-17
1523144763942712,5,-8,-10,11,84,-5,7,2
1523144763942712,-20,2,13,7,-2,6,1,29
1523144763957298,-16,-17,-15,7,22,4,-11,-32
1523144763957298,-3,-5,-24,-91,-39,-18,-5,11
1523144763959257,19,14,53,94,126,53,20,6
1523144763959257,9,3,-35,-42,-117,10,-1,-13
1523144763979829,-9,-1,30,-2,22,3,3,2
1523144763979829,1,14,-30,28,5,-17,2,-24
1523144763981817,0,-18,28,-53,6,13,1,9
1523144763981817,-7,-1,-8,16,6,-8,-23,-5
1523144763993353,4,14,-12,16,-62,20,-4,-28
1523144763993353,25,-5,5,-48,0,24,25,66
1523144764002873,-26,-1,-15,-14,-49,-19,-7,-19
1523144764002873,-1,-2,3,29,22,-20,0,1
1523144764017428,7,-3,0,-26,-1,-11,-17,-7
1523144764017428,0,-3,9,31,10,-1,-8,-36
1523144764018917,-7,1,-13,37,-74,-24,-4,2
1523144764018917,9,-3,2,-29,-59,13,8,11
1523144764040006,-15,-1,-7,28,50,0,3,1
1523144764040006,-6,-6,8,9,4,10,-7,2
1523144764041476,-11,-6,-22,22,-37,-9,-2,-19
1523144764041476,12,9,17,46,40,-19,0,13
1523144764053537,1,-3,29,-22,-43,3,1,-2
1523144764053537,-10,-15,49,61,-7,16,1,12
1523144764062531,7,16,-31,-52,-90,-5,5,-14
1523144764062531,-2,-6,26,-28,21,-18,-17,-20
1523144764077572,1,6,-6,-34,-54,-17,2,-1
1523144764077572,4,7,-90,24,55,24,11,15
1523144764079076,12,-20,108,-15,24,1,9,13
1523144764079076,1,12,2,-1,-54,-6,11,4
1523144764100136,-7,-4,-37,-7,5,25,-6,-15
1523144764100136,-4,1,-14,-14,1,-18,-21,-30
1523144764101639,2,6,-42,-10,-17,-3,-1,3
1523144764101639,-8,-1,-13,24,51,0,4,-30
1523144764113786,-5,-7,16,61,43,-18,5,-16
1523144764113786,9,4,15,-9,-85,1,7,-1
1523144764122802,-9,3,-18,11,36,2,-6,18
1523144764122802,1,-11,3,-13,-42,-21,-23,3
1523144764137369,-13,2,-5,-13,-9,-3,2,-46
1523144764137369,4,1,18,6,-42,4,-10,-2
1523144764138850,16,4,-2,-4,-5,0,20,68
1523144764138850,-1,-4,-15,-12,46,20,0,-29
1523144764159899,8,-3,-6,-23,-12,21,6,34
1523144764159899,-3,-1,7,-22,9,-11,-2,7
1523144764161403,-9,-10,-12,0,19,-6,-21,-40
1523144764161403,7,5,-11,-33,-16,7,6,18
1523144764173438,7,6,21,-8,-5,-20,2,14
1523144764173438,-8,-6,21,33,73,5,-1,-7
1523144764182458,0,-3,-19,-18,23,10,2,-1
1523144764182458,-7,-6,-8,11,10,-10,-1,10
1523144764197613,2,5,-31,-1,-4,21,-4,-4
1523144764197613,-2,-4,31,12,74,12,7,-9
1523144764199003,1,-4,-10,-39,13,-14,-3,10
1523144764199003,-8,-1,-5,44,-58,7,-2,-21
1523144764220176,-9,-1,7,-24,24,10,5,-11
1523144764220176,3,0,-16,12,-29,-17,-4,5
1523144764221564,-6,3,-36,14,20,-6,-5,-18
1523144764221564,0,-5,34,-40,-62,20,2,-1
1523144764233709,9,-1,19,17,42,9,10,25
1523144764233709,-3,-1,16,-18,-21,0,8,14
1523144764242620,2,3,9,20,13,-10,-10,-44
1523144764242620,-3,0,-30,22,-38,-31,-14,3
1523144764256771,-3,-4,-13,32,11,9,3,4
1523144764256771,4,6,13,0,-12,-2,3,0
1523144764263759,-7,-4,-5,19,-85,-4,-10,-3
1523144764263759,4,4,-8,-51,39,7,9,18
1523144764280220,-1,-2,3,-3,-84,-33,-10,18
1523144764280220,-4,-3,-11,-2,-14,11,4,-55
1523144764282224,0,3,1,-19,-5,-2,-5,-3
1523144764282224,-7,-8,-10,10,5,-5,-6,20
1523144764302277,3,-2,13,43,55,-1,2,-59
1523144764302277,-19,5,-11,-7,-68,10,-6,21
1523144764304284,9,-5,-3,-14,24,5,-1,-2
1523144764304284,4,1,10,41,40,-7,9,0
1523144764317368,3,-9,-15,-41,56,-4,-1,36
1523144764317368,-3,-7,-4,3,44,9,-3,-12
1523144764319326,1,4,9,5,2,12,4,-12
1523144764319326,-1,-1,7,54,71,-25,-8,-3
1523144764339927,0,-1,-7,-7,-25,13,3,0
1523144764339927,1,2,-3,1,-4,-5,1,15
1523144764341382,-3,2,8,3,44,2,2,3
1523144764341382,3,0,-1,-14,-17,-14,2,-13
1523144764353464,10,1,-6,-11,-2,-12,-4,10
1523144764353464,-19,-5,-4,-20,16,14,1,28
1523144764362438,-31,1,1,1,-8,0,-3,-12
1523144764362438,5,2,0,-20,42,3,5,5
1523144764377478,-6,-3,-6,-1,-17,-9,-12,-32
1523144764377478,20,-7,-10,-49,-83,1,-4,6
1523144764378982,11,8,-2,-9,-33,0,-10,-17
1523144764378982,-16,-12,-10,-29,-40,8,3,4
1523144764400076,3,9,8,4,48,-12,13,9
1523144764400076,48,0,-3,-12,99,6,-3,4
1523144764401543,-4,-6,0,17,1,12,-2,3
1523144764401543,-2,0,0,5,7,-5,-16,-31
1523144764413614,13,1,-8,-63,-72,-5,17,47
1523144764413614,-5,8,2,12,73,-21,3,9
1523144764422597,-16,-8,-2,25,123,14,13,16
1523144764422597,19,12,-5,27,-15,17,2,-6
1523144764436636,-26,-24,0,-102,-96,-27,-15,-14
1523144764436636,-5,2,25,30,73,46,21,24
1523144764443655,12,0,29,-23,28,4,-10,2
1523144764443655,-7,-7,-67,-89,-5,-7,7,10
1523144764461201,8,20,62,82,-30,13,1,6
1523144764461201,-13,-17,-26,-15,-103,-17,-13,-32
1523144764466213,22,28,-43,-32,23,-28,11,14
1523144764466213,-7,-32,83,2,39,29,-6,-17
1523144764473786,-1,14,-17,25,13,10,-1,-1
1523144764473786,-6,0,-9,-14,-36,-27,-8,-8
1523144764482759,-2,2,-17,-21,-55,-13,-3,13
1523144764482759,4,7,-19,13,7,-32,-20,7
1523144764496834,-5,-3,-12,-37,-26,2,-13,-73
1523144764496834,9,3,18,33,-40,14,6,4
1523144764503857,-21,-4,-1,-4,-15,-6,3,-4
1523144764503857,-2,5,4,12,-21,12,11,10
1523144764519897,-5,-17,1,49,36,-3,-18,9
1523144764519897,2,6,-15,-23,23,-10,-5,-13
1523144764521360,9,-6,19,46,17,9,6,-19
1523144764521360,-1,2,1,-19,-52,-4,4,8
1523144764533428,0,5,-22,14,41,17,16,25
1523144764533428,-15,-15,-20,-4,-29,-32,-16,-32
1523144764542421,4,-1,10,-52,-24,4,-6,20
1523144764542421,-6,0,-2,6,37,-18,-9,-46
1523144764556956,13,1,-16,-14,-19,7,3,39
1523144764556956,-20,0,-6,-70,-8,-13,-17,-56
1523144764563523,9,-17,64,102,57,18,10,35
1523144764563523,11,13,-3,0,-39,1,8,16
1523144764580018,-10,-2,-36,-38,-25,-31,-10,-33
1523144764580018,5,2,-4,8,71,11,16,55
1523144764581524,-10,-3,-18,-21,-83,-41,-28,-99
1523144764581524,-4,-4,-6,-4,27,14,0,10
1523144764602625,-4,-8,17,-23,-1,2,1,3
1523144764602625,0,12,-20,17,-24,8,6,5
1523144764604082,14,-2,6,-22,27,21,22,74
1523144764604082,-12,5,7,35,0,-6,-3,-17
1523144764617650,-3,-5,-4,-3,65,9,0,-11
1523144764617650,-3,2,-12,-1,-43,-15,-18,-20
1523144764619121,-1,-7,19,-40,26,-5,5,-10
1523144764619121,1,-3,16,-6,-18,36,11,2
1523144764639718,0,4,6,-53,14,0,2,28
1523144764639718,2,-1,5,8,-52,14,5,33
1523144764641681,-2,7,-7,-1,-71,-24,-11,-46
1523144764641681,-18,-17,-24,-25,-9,-13,-12,3
1523144764662286,12,8,11,1,-22,-9,8,-11
1523144764662286,-6,-3,-9,18,18,-9,-4,4
1523144764664241,7,-2,13,-8,8,12,-2,-13
1523144764664241,-7,3,0,-42,-85,-1,1,6
1523144764677279,-9,-4,-12,35,82,7,11,1
1523144764677279,5,-1,16,0,43,5,2,-12
1523144764683839,2,2,-22,12,11,2,7,19
1523144764683839,17,4,8,33,7,-12,-7,-7
1523144764699837,-19,-3,3,12,-25,18,-6,11
1523144764699837,-3,-5,11,14,-19,-5,6,12
1523144764701339,-15,0,-12,-18,18,-17,-18,-66
1523144764701339,6,-7,-3,13,47,43,13,28
1523144764722436,3,1,-4,14,5,-44,-6,-14
1523144764722436,-15,-6,15,-15,-53,23,-15,-34
1523144764723899,9,-7,-23,-39,7,0,3,34
1523144764723899,1,7,9,-7,6,-3,0,-13
1523144764737580,2,-4,0,61,-5,-14,-9,-7
1523144764737580,0,3,14,-3,61,8,4,-1
1523144764739038,1,-3,-49,-47,36,5,-2,-4
1523144764739038,0,1,68,67,94,4,6,1
1523144764760091,-3,-11,-18,-4,-27,6,-6,21
1523144764760091,0,-2,-7,-63,-18,13,2,-9
1523144764761595,0,7,11,27,-84,4,6,39
1523144764761595,3,-1,-37,-57,-30,-20,6,-5
1523144764782199,0,2,17,50,120,27,-2,-1
1523144764782199,0,-3,-1,4,-56,-2,5,-35
1523144764784155,-1,-7,-5,1,7,-9,-11,2
1523144764784155,-15,0,-5,22,6,-9,0,24
1523144764796690,4,2,7,-34,-118,2,2,-35
1523144764796690,2,-1,-5,12,18,4,3,26
1523144764803746,1,-1,1,8,-26,-5,2,9
1523144764803746,-2,-2,-4,0,9,-9,-8,-17
1523144764819803,2,0,-5,-19,6,16,2,11
1523144764819803,0,-3,-4,11,16,-12,-3,2
1523144764821759,-4,0,7,26,6,2,2,3
1523144764821759,1,-2,-7,-3,28,6,-7,0
1523144764842312,-5,-5,-12,-27,-6,-7,0,6
1523144764842312,-2,2,5,7,-51,-16,-5,2
1523144764843815,3,-3,7,12,-1,20,5,16
1523144764843815,-26,-2,-14,-17,18,-7,-1,-24
1523144764856850,-5,-3,5,27,49,-5,3,9
1523144764856850,24,1,7,6,66,9,0,9
1523144764863403,-4,0,-7,-29,-29,-9,-5,20
1523144764863403,8,8,4,9,8,2,-18,-19
1523144764879948,3,-8,4,5,13,19,31,56
1523144764879948,-17,7,5,31,46,-22,-9,-44
1523144764881414,-35,-12,-10,-54,67,2,2,-33
1523144764881414,30,12,2,26,0,29,10,38
1523144764902508,19,-4,-1,-21,37,0,-10,14
1523144764902508,-20,-4,-13,-11,-77,7,-2,30
1523144764903979,12,8,-7,10,-16,-5,-14,-65
1523144764903979,-20,-9,-22,-26,-34,-28,-4,0
1523144764916007,0,-2,63,23,92,11,1,8
1523144764916007,7,13,8,-24,-70,-8,6,11
1523144764925030,5,5,37,47,-3,-1,-6,3
1523144764925030,-14,-3,-32,-33,-5,-12,-5,-8
1523144764940118,-2,-4,5,-72,-121,-41,-12,-20
1523144764940118,-3,-3,18,21,28,-5,1,-10
1523144764941574,-4,2,11,-3,-58,25,15,24
1523144764941574,0,-9,-16,-29,-84,3,13,-40
1523144764962667,-9,7,-14,-3,27,-14,-25,-4
1523144764962667,4,-9,-14,-43,-39,-16,-4,14
1523144764964134,3,6,1,89,-4,17,19,20
1523144764964134,18,3,4,4,-88,-15,-4,35
1523144764976166,-9,0,-14,14,-8,2,4,-19
1523144764976166,-25,-22,-7,-24,17,3,-14,-20
1523144764985190,8,0,-12,2,18,-4,16,27
1523144764985190,-1,-4,-7,6,44,-5,-6,14
1523144764999765,7,8,-9,17,44,-1,8,-26
1523144764999765,3,0,16,7,40,-24,0,5
1523144765001735,-13,-15,-37,-44,-11,14,-16,-17
1523144765001735,5,-3,-6,9,57,36,15,11
1523144765022327,-3,-1,-2,-35,-63,-20,-11,4
1523144765022327,4,11,15,26,35,34,0,-49
1523144765024293,15,9,-9,42,3,-17,11,38
1523144765024293,3,-9,1,-30,-53,-31,-11,23
1523144765035826,-16,-3,-28,-29,-23,0,-20,-71
1523144765035826,1,2,7,46,23,6,7,-16
1523144765044952,4,-4,19,6,28,3,3,44
1523144765044952,1,12,-3,18,39,6,15,-17
1523144765059996,0,-9,8,-6,-53,4,0,20
1523144765059996,1,0,12,-20,-56,10,3,-4
1523144765061497,-6,-6,5,17,41,-11,-20,-26
1523144765061497,-15,0,27,-28,-58,-32,-1,2
1523144765082552,3,6,-18,31,57,19,14,33
1523144765082552,0,-5,-22,-19,52,-11,-2,-39
1523144765084058,1,1,24,-15,-12,-1,-7,3
1523144765084058,3,-1,-30,-9,-41,-9,-7,-13
1523144765096090,-7,1,25,-8,-34,2,6,-8
1523144765096090,0,4,-4,70,69,-12,2,11
1523144765105115,3,4,-12,-51,-49,2,7,-9
1523144765105115,-6,-5,-13,68,40,10,-18,-16
1523144765120151,4,2,15,-50,1,19,4,8
1523144765120151,1,-5,-14,52,96,-33,2,33
1523144765121705,-5,-4,-6,-53,-86,35,3,-24
1523144765121705,7,-3,6,-9,52,-21,-40,-23
1523144765142249,-14,-4,-14,50,-50,47,21,-25
1523144765142249,10,3,5,-22,-30,-9,-11,18
1523144765144215,-1,-9,-8,-2,85,-26,-4,7
1523144765144215,8,3,10,-35,7,-1,5,27
1523144765156247,-2,1,-1,30,47,-27,-5,6
1523144765156247,-6,-8,-26,-61,-111,-8,-15,-69
1523144765164770,-2,0,31,108,83,13,4,12
1523144765164770,-1,-1,23,20,5,24,14,-25
1523144765179378,2,0,-18,-48,17,-14,-5,-4
1523144765179378,5,4,23,27,-16,27,16,34
1523144765186327,-8,-4,-24,-31,24,-15,-6,8
1523144765186327,-11,-4,-4,-3,-4,-8,-2,-31
1523144765202437,2,-6,1,23,22,-19,-3,29
1523144765202437,-7,-4,-28,-49,-78,23,-5,-14
1523144765203874,0,-2,-7,-37,59,1,-8,-16
1523144765203874,10,5,19,48,115,29,15,38
1523144765215975,-1,-2,1,-18,-71,-10,-4,-8
1523144765215975,2,3,-16,6,38,-4,3,6
1523144765224931,0,4,1,-17,-76,-21,-8,-28
1523144765224931,-9,-6,4,-21,-48,11,6,4
1523144765240039,6,-6,19,30,16,4,-2,1
1523144765240039,-2,-1,5,14,31,-13,-13,42
1523144765241475,-1,2,-8,-12,53,14,2,-28
1523144765241475,-4,-1,-6,-7,-4,2,1,19
1523144765262531,6,7,-4,25,73,-8,-3,-5
1523144765262531,-8,-9,0,-25,-26,13,-1,27
1523144765264036,9,1,4,49,-25,-11,-2,-23
1523144765264036,0,1,-3,-43,-24,-6,1,0
1523144765276067,-5,-2,-8,-43,-71,7,3,13
1523144765276067,-5,-3,7,23,42,6,8,-7
1523144765285091,4,5,-5,-7,-31,0,8,30
1523144765285091,0,-3,-4,-32,12,-3,-21,-41
1523144765300138,-3,2,-12,5,-47,3,0,7
1523144765300138,7,1,15,-17,10,-2,11,0
1523144765301636,-8,1,1,34,-14,-23,-13,-13
1523144765301636,-2,-15,-2,8,23,2,3,12
1523144765322690,4,-1,-3,2,-24,-7,4,3
1523144765322690,4,-1,0,-8,8,18,5,16
1523144765324198,-2,5,-3,-5,-50,-4,-3,21
1523144765324198,-7,3,-3,-8,-108,-14,-3,-58
1523144765336225,-3,-5,-10,-1,-31,-17,-18,2
1523144765336225,-1,2,0,-2,-45,-25,-2,-3
1523144765345252,-7,-7,-7,-38,-53,-7,-3,-5
1523144765345252,4,5,3,7,17,-4,-7,2
1523144765359858,4,0,3,-4,-20,9,13,4
1523144765359858,-2,-2,-7,-5,61,-7,-1,-6
1523144765361293,2,-8,1,-8,11,31,1,13
1523144765361293,-1,-1,-2,-4,-2,-13,5,4
1523144765382350,-4,1,-3,8,48,0,-5,-47
1523144765382350,-16,0,2,20,51,10,0,29
1523144765383853,18,4,4,-8,-16,-1,0,-4
1523144765383853,-8,-5,-1,27,4,-1,3,21
1523144765395887,18,10,8,5,35,2,4,9
1523144765395887,-20,-11,-16,-43,-84,18,-14,-18
1523144765404909,31,8,3,-10,-27,-3,3,26
1523144765404909,-12,-2,2,32,55,0,-6,-15
1523144765419950,21,-1,-5,31,-19,-7,-4,-23
1523144765419950,-18,-2,-11,-6,74,7,9,-11
1523144765421455,22,1,20,-15,32,2,8,64
1523144765421455,-9,9,-13,50,25,33,-8,-94
1523144765442511,2,-7,-17,-47,-101,-27,-15,24
1523144765442511,13,-3,-2,25,103,11,17,51
1523144765444014,-21,-5,-20,-22,-12,2,-32,-88
1523144765444014,13,2,9,-60,31,-6,23,77
1523144765456099,-2,9,33,59,47,5,4,10
1523144765456099,12,-2,7,1,-34,-2,-2,-14
1523144765465069,-17,-1,-31,-19,74,-22,1,-5
1523144765465069,2,-4,-13,-5,-74,-13,-9,-3
1523144765479182,-15,-7,20,-39,-49,-1,-12,-6
1523144765479182,9,2,-7,-9,-93,-33,-2,3
1523144765486193,-16,-7,-7,16,-59,-1,-4,-20
1523144765486193,5,6,9,-24,5,2,0,14
1523144765502668,-6,4,-12,6,4,-13,0,0
1523144765502668,-3,-2,-4,-43,-109,-3,-6,-6
1523144765504174,-2,-8,2,-65,-66,3,-11,-27
1523144765504174,-2,-5,-8,23,-12,6,27,19
1523144765516706,-15,-8,-14,-53,-37,-2,6,53
1523144765516706,1,3,-1,-4,95,3,-11,-71
1523144765525229,-8,-2,-3,-5,-30,-7,-2,8
1523144765525229,2,3,-5,-8,25,2,-7,-2
1523144765539333,-7,-12,-15,29,35,6,6,5
1523144765539333,3,-8,9,6,-28,-21,-12,2
1523144765546284,-8,-9,4,-20,-39,10,9,4
1523144765546284,-3,1,28,23,26,-7,-18,-27
1523144765562397,12,20,-17,-12,20,22,26,65
1523144765562397,3,-9,-4,-30,-30,5,7,24
1523144765563832,-5,-2,-1,52,3,10,0,29
1523144765563832,-12,-6,-22,-46,-4,-29,-20,-70
1523144765584957,-1,-3,8,-14,25,-27,-7,-16
1523144765584957,4,8,60,59,63,52,9,9
1523144765586393,1,0,-7,-14,64,0,5,8
1523144765586393,-8,-6,14,-18,-1,10,-1,37
1523144765599439,1,1,-17,65,72,8,-11,-53
1523144765599439,10,10,-30,3,24,-11,4,21
1523144765605945,-8,-1,1,24,-81,-18,-12,-20
1523144765605945,1,-12,21,40,-6,22,7,20
1523144765622557,-5,6,7,-18,21,-9,-6,-33
1523144765622557,5,0,2,-15,7,8,7,21
1523144765623993,-2,4,25,75,54,1,3,3
1523144765623993,8,2,-11,-38,-93,-32,-10,10
1523144765645117,-9,-10,-5,70,23,1,-6,-8
1523144765645117,1,8,0,-19,-37,-10,-1,-14
1523144765646552,21,5,-15,-27,45,24,6,32
1523144765646552,-10,-1,0,-10,28,8,-8,-59
1523144765659086,-1,-16,3,-3,-21,-2,-5,16
1523144765659086,1,15,-2,19,-1,6,2,-20
1523144765667609,2,-2,7,7,71,-15,1,3
1523144765667609,4,-5,-12,-1,-38,4,6,30
1523144765682647,-4,4,6,-15,7,9,-5,-13
1523144765682647,-8,-9,-24,-32,-23,-13,-11,-23
1523144765684154,-7,-3,-3,3,-7,-10,0,-2
1523144765684154,6,5,26,55,79,8,6,32
1523144765705207,8,1,-7,-52,-18,10,6,17
1523144765705207,-19,-14,-1,-1,-41,-16,-9,-9
1523144765706714,0,2,14,-31,-4,-13,0,-14
1523144765706714,-9,1,-15,32,4,0,0,-5
1523144765718743,5,5,11,14,14,20,0,17
1523144765718743,3,-8,-16,3,-2,-15,0,4
1523144765727770,-6,-3,-6,-1,-48,17,3,-5
1523144765727770,1,0,-16,-29,-83,-23,-1,3
1523144765742358,-4,-5,-10,-50,43,3,-6,-23
1523144765742358,-1,0,17,33,-51,-2,-2,-8
1523144765743859,-8,-3,-17,28,34,-15,1,-1
1523144765743859,8,5,-20,-80,-9,16,7,15
1523144765764915,-8,-9,52,25,51,4,-1,-9
1523144765764915,1,-7,-5,-28,-5,-12,-5,2
1523144765766420,2,6,9,-7,46,4,4,6
1523144765766420,1,-5,-18,-2,-55,-3,-4,19
1523144765779490,1,-2,-28,-19,-11,-16,-2,23
1523144765779490,-7,1,6,40,30,11,-11,-39
1523144765785976,-2,0,8,2,-7,10,-2,-4
1523144765785976,4,3,5,14,35,-3,8,20
1523144765802519,2,2,-7,-14,-44,8,-3,0
1523144765802519,3,-3,-5,-17,-48,-14,-1,8
1523144765804020,-5,-1,-1,22,74,3,-2,-10
1523144765804020,-2,3,8,25,13,-6,-2,-3
1523144765825074,-3,-2,-15,-18,-85,-10,-8,-42
1523144765825074,6,7,-9,8,50,-16,1,6
1523144765826580,-10,-16,41,-23,24,25,7,2
1523144765826580,7,-1,-1,21,72,10,5,6
1523144765839185,-4,1,17,10,4,-2,0,-10
1523144765839185,1,0,-31,2,22,3,-5,-6
1523144765846200,0,-5,-18,-14,-26,-16,-1,-2
1523144765846200,-4,-2,14,6,31,-5,-6,-3
1523144765862673,-4,0,-17,-7,0,1,0,-7
1523144765862673,3,-7,15,-3,1,1,3,35
1523144765864182,-7,3,-3,-2,-11,-5,-1,-84
1523144765864182,-4,-5,-2,7,-28,2,-7,-12
1523144765884801,1,5,-7,-8,12,14,9,-1
1523144765884801,5,4,11,44,-25,-9,9,38
1523144765886741,8,-2,-31,-7,22,3,-2,8
1523144765886741,-1,3,7,-9,-26,-7,0,-4
1523144765899340,-11,-13,6,2,1,0,-3,-4
1523144765899340,-6,-1,6,-2,13,-4,-5,-20
1523144765906289,1,0,-21,-23,-109,-12,-5,12
1523144765906289,3,1,-8,-8,34,-6,-2,11
1523144765922404,2,-1,0,5,-7,3,3,-2
1523144765922404,3,2,2,-27,13,11,3,24
1523144765923838,-4,1,1,29,36,-14,-6,10
1523144765923838,8,1,5,-37,61,11,1,37
1523144765944961,-14,-1,-27,-20,-25,9,-18,-72
1523144765944961,-9,0,16,-19,-72,-2,1,11
1523144765946398,0,-3,0,5,34,18,7,-1
1523144765946398,11,3,2,-7,-20,-12,4,17
1523144765959465,1,-1,-17,28,-31,-22,-5,21
1523144765959465,2,2,-5,-16,62,12,6,-42
1523144765965950,0,1,1,-14,-50,-16,-12,18
1523144765965950,-2,-9,-5,2,42,-3,-4,-19
1523144765982564,1,5,-3,8,-27,-9,0,4
1523144765982564,-2,-11,15,2,3,7,-1,-2
1523144765983998,2,-2,22,12,-9,-5,8,18
1523144765983998,-2,6,-10,6,0,2,1,-18
1523144766005127,-4,-1,4,-9,28,3,4,5
1523144766005127,-7,-1,-28,-26,-9,-13,-7,4
1523144766006558,3,1,3,57,20,4,-4,-8
1523144766006558,-4,0,-28,-14,-98,-7,-5,-29
1523144766018659,6,-3,40,18,118,1,10,29
1523144766018659,6,6,-3,-8,-19,13,1,-7
1523144766027614,2,0,-9,-24,-13,-8,2,6
1523144766027614,-10,-6,-4,22,-68,3,-3,-16
1523144766042653,-1,-3,-6,-29,-4,1,-6,-30
1523144766042653,3,11,-27,15,-51,-12,-4,-3
1523144766044157,2,-10,0,-44,0,12,7,11
1523144766044157,-5,-1,73,73,42,21,7,19
1523144766066219,4,4,-18,-42,-70,-2,4,5
1523144766066219,-4,-8,3,14,6,-5,-4,-5
1523144766069225,-2,9,-37,-34,-20,-19,-10,-13
1523144766069225,-4,-7,-10,6,-3,-12,-4,-5
1523144766079752,3,-3,21,22,28,-1,-2,6
1523144766079752,2,6,-15,-9,9,-14,-7,-9
1523144766087773,0,-4,6,17,-7,10,8,29
1523144766087773,1,3,4,4,-3,16,13,-61
1523144766102380,-2,3,0,26,18,3,1,12
1523144766102380,2,0,1,18,24,17,5,10
1523144766103816,-6,5,4,-24,-93,-12,-4,-7
1523144766103816,4,-9,-4,-14,-3,-28,-5,24
1523144766124874,3,-3,-12,39,66,23,4,1
1523144766124874,-6,-11,8,-5,-7,23,-1,-11
1523144766126377,0,-6,1,30,36,-10,2,-2
1523144766126377,-8,10,-12,-30,1,1,0,7
1523144766138480,-1,-6,-17,-10,-58,-16,-11,-1
1523144766138480,-1,-7,-6,-3,16,-13,-2,5
1523144766147433,-3,-3,8,15,29,0,-3,-14
1523144766147433,0,-4,-25,-56,-25,-6,-12,-30
1523144766162585,0,0,14,10,90,-1,11,38
1523144766162585,2,6,18,9,13,18,12,10
1523144766163976,5,9,-15,-28,-12,0,-3,-9
1523144766163976,-15,-13,-12,-11,57,2,0,-6
1523144766185127,-2,-10,28,-28,-23,-5,-4,-6
1523144766185127,-2,-4,-10,-9,-59,-18,-8,-5
1523144766186537,-2,5,10,18,20,-2,3,-20
1523144766186537,4,4,1,9,-32,-12,-1,28
1523144766198674,4,0,-10,-28,29,16,3,-2
1523144766198674,-2,0,-6,15,-28,-1,0,-6
1523144766207592,-1,-2,-8,-5,7,-12,-5,7
1523144766207592,2,4,27,69,-4,9,-2,-17
1523144766222692,-3,-2,-8,-4,-57,-6,2,11
1523144766222692,1,-4,2,-14,74,0,7,10
1523144766224137,-7,-2,-4,-42,-76,2,-15,-6
1523144766224137,9,6,15,49,105,21,7,19
1523144766245191,-1,-1,-11,7,53,-14,-4,-11
1523144766245191,-1,-7,-11,-8,1,2,-4,-7
1523144766246709,-4,-2,17,15,24,13,4,4
1523144766246709,-1,-5,-7,-20,4,-1,-3,5
1523144766258830,-1,3,3,-10,-14,-13,-10,-15
1523144766258830,-2,4,18,28,-16,-6,-1,4
1523144766267753,1,0,-16,-7,-49,-3,-1,-3
1523144766267753,-1,-7,-5,-24,-7,14,4,3
1523144766282516,-1,0,1,6,-23,9,0,-5
1523144766282516,-3,-2,-4,1,-37,-16,-4,9
1523144766284400,-2,-1,1,7,33,8,4,-5
1523144766284400,3,7,12,17,3,-10,-3,14
1523144766304850,-3,-2,-12,-7,-35,-15,3,-3
1523144766304850,-2,-5,-5,-11,-11,18,-3,-9
1523144766306355,2,-1,9,18,52,7,2,2
1523144766306355,-2,-2,-12,-26,-6,-7,-2,-3
1523144766318951,-2,2,0,-5,-11,-5,-3,-2
1523144766318951,0,-2,2,2,22,-8,-3,-1
1523144766327411,-1,-4,1,-7,-37,-4,1,0
1523144766327411,-1,-1,-8,-19,-19,-4,1,8
1523144766341950,0,1,-3,16,0,-11,-3,-3
1523144766341950,-3,0,2,-12,17,8,0,-1
1523144766348467,-1,0,-5,-1,-11,2,0,-5
1523144766348467,-1,2,0,-10,5,-1,-8,-17
1523144766365216,6,0,3,8,-12,9,1,15
1523144766365216,-3,-2,0,27,86,-11,4,0
1523144766366515,-6,-6,-6,-25,-38,20,-1,-35
1523144766366515,3,-4,-4,10,-32,-14,-4,12
1523144766378772,-7,4,-1,-9,-70,6,1,9
1523144766378772,-1,-3,-8,-3,-16,5,-2,-20
1523144766387571,-1,3,-5,-7,-33,-8,3,11
1523144766387571,-6,-8,2,56,37,9,-4,7
1523144766402799,-8,18,5,11,-44,-26,2,-9
1523144766402799,4,-16,-20,-31,-49,20,-12,2
1523144766404115,-25,-5,-16,-16,19,-13,7,12
1523144766404115,4,-2,50,14,38,5,6,12
1523144766424669,-2,4,-95,-35,-27,10,-9,-27
1523144766424669,-5,-19,108,36,-12,-2,2,12
1523144766426675,14,12,-37,-1,-30,2,0,-5
1523144766426675,7,-2,8,5,86,17,5,7
1523144766438932,-10,-3,17,10,94,-7,-3,10
1523144766438932,5,9,-42,-38,54,-15,-4,0
1523144766447730,-1,-7,3,-6,53,22,-4,1
1523144766447730,-1,-1,-16,-5,39,-16,-1,-17
1523144766462770,10,5,11,7,9,4,3,-8
1523144766462770,-1,5,-6,3,3,-7,-3,5
1523144766463773,0,0,32,25,38,-13,0,18
1523144766463773,-2,2,-27,-26,-62,-1,-6,-7
1523144766485055,-8,-17,13,-20,-28,-7,-5,-23
1523144766485055,-5,4,0,31,27,3,-3,-15
1523144766486890,6,0,-4,3,-33,2,-4,9
1523144766486890,8,4,-8,-8,44,10,1,-10
1523144766498948,-6,-8,-1,-17,-59,-6,5,7
1523144766498948,-9,-6,-12,-6,10,6,5,9
1523144766507390,7,2,13,38,8,-7,-6,-9
1523144766507390,1,-5,-12,-40,-48,8,-6,8
1523144766522028,11,-1,19,-2,14,-14,-4,31
1523144766522028,-3,6,-17,-5,-42,-4,3,-32
1523144766528671,-1,-2,10,41,47,-11,-1,8
1523144766528671,1,0,-13,-24,-61,-7,6,-2
1523144766545220,3,4,11,22,65,10,0,8
1523144766545220,6,-8,-5,-32,-26,-7,-2,6
1523144766546494,-2,-1,8,-10,16,11,2,0
1523144766546494,-5,2,0,-2,-62,-10,-9,-9
1523144766567772,2,-5,-3,11,29,11,5,-2
1523144766567772,-1,7,-6,-26,-24,-3,1,9
1523144766569284,4,0,11,14,67,14,3,-2
1523144766569284,-9,5,-52,-9,-17,-9,-5,-3
1523144766581809,-2,-18,58,15,1,-2,-5,-10
1523144766581809,4,10,2,-49,31,23,5,4
1523144766588606,-9,-4,2,-1,-3,-8,-10,-6
1523144766588606,4,-4,-39,-3,25,-4,0,-2
1523144766604647,-4,0,28,-8,0,-6,-4,-4
1523144766604647,2,0,2,13,-13,17,2,3
1523144766606654,-1,-5,-21,-42,-42,-13,-4,-1
1523144766606654,-5,-2,-1,-7,78,1,0,-8
1523144766627798,5,8,14,58,2,13,-2,3
1523144766627798,-3,-2,-1,0,-1,-22,-5,-12
1523144766629217,1,-1,1,-8,-14,0,0,-1
1523144766629217,-3,-6,3,-20,-43,-12,-3,-1
1523144766640746,-9,-5,-15,8,-3,-9,1,0
1523144766640746,4,9,-16,-7,17,19,5,-1
1523144766650269,0,0,-4,-12,-14,5,-2,0
1523144766650269,12,10,11,7,-31,-8,0,2
1523144766665007,-21,-17,-7,10,28,-2,-2,-10
1523144766665007,-6,-7,-1,15,5,-10,0,5
1523144766666910,1,-2,-1,0,19,-4,0,-5
1523144766666910,-1,3,-13,-21,-54,-9,-5,2
1523144766687576,7,3,19,3,-6,6,2,-3
1523144766687576,-5,-1,-7,-10,5,-9,-8,-2
1523144766688872,-3,-7,-8,-5,16,-3,1,3
1523144766688872,-4,-3,13,29,23,-1,5,-1
1523144766702135,4,5,-30,-22,-26,23,1,-2
1523144766702135,1,-3,5,7,-21,-18,-6,0
1523144766708925,3,2,6,9,11,-8,-3,-1
1523144766708925,-9,-4,10,-13,-32,9,3,-1
1523144766724970,2,0,-18,-31,-52,-11,-3,-3
1523144766724970,2,2,15,51,55,6,3,-1
1523144766726473,-3,-2,-18,-9,-14,2,6,2
1523144766726473,-5,0,24,4,-1,-5,0,-3
1523144766747528,3,0,-5,-1,-11,-1,-7,-1
1523144766747528,2,3,0,1,36,-1,1,-1
1523144766749034,1,0,-3,-1,-21,-10,13,7
1523144766749034,-2,-4,7,3,33,14,-10,-9
1523144766761774,-1,-3,-16,-4,-34,0,-3,-2
1523144766761774,-6,-4,-13,-37,-25,-22,-6,-5
1523144766768806,-2,0,4,38,-20,15,1,2
1523144766768806,0,2,17,-1,7,12,6,-2
1523144766785128,-2,-2,-12,-3,-24,-16,-8,-4
1523144766785128,1,5,-4,20,-27,24,4,7
1523144766786634,-3,0,4,-16,-25,3,-5,-4
1523144766786634,4,-3,-3,4,7,-27,-2,26
1523144766807192,5,-6,-16,-30,-56,6,-3,-36
1523144766807192,-26,0,-4,-8,-84,-15,-4,5
1523144766809192,7,5,8,3,17,-18,-9,-51
1523144766809192,17,-1,7,20,88,1,1,52
1523144766821957,14,5,0,-3,42,3,14,-42
1523144766821957,0,-14,-10,-26,-62,15,-2,14
1523144766828471,-23,1,4,-8,50,0,21,43
1523144766828471,-6,-7,-4,9,49,14,-16,-18
1523144766845001,-1,2,-1,12,57,-18,-3,-50
1523144766845001,47,18,16,29,73,4,14,13
1523144766846797,-34,-16,-16,-52,-126,-6,-16,-13
1523144766846797,10,2,14,57,82,34,30,37
1523144766867348,-6,7,-4,-13,-25,3,-1,49
1523144766867348,-2,0,2,11,35,9,-3,-24
1523144766869373,10,-3,0,-4,53,-1,-7,-3
1523144766869373,-8,1,8,-19,-54,-26,-12,-17
1523144766881114,-10,-7,29,-16,-19,6,-4,6
1523144766881114,-5,3,0,-9,-15,-11,-3,-8
1523144766889907,12,0,15,12,7,3,-3,7
1523144766889907,-15,-5,-12,-26,-74,-8,-4,-27
1523144766905179,-4,8,-22,-14,12,-1,-4,8
1523144766905179,-1,-10,-42,-43,-66,-20,-21,-25
1523144766906453,13,5,68,54,38,16,17,39
1523144766906453,3,14,36,-40,-76,13,21,13
1523144766927508,-18,-14,-15,57,35,6,7,9
1523144766927508,-7,-11,-23,-22,-18,-24,-15,-13
1523144766929012,-5,-5,-31,-44,-33,1,-14,-28
1523144766929012,7,15,1,-27,-24,15,10,-8
1523144766941044,5,2,5,-87,-76,-3,-9,23
1523144766941044,-14,-5,6,36,18,6,8,-1
1523144766950069,1,0,-27,-35,-24,-9,-6,-12
1523144766950069,-7,-16,-4,-2,-12,-23,-9,-1
1523144766965107,-4,0,3,18,41,11,5,4
1523144766965107,-1,3,0,-1,-4,-12,-19,-14
1523144766966612,1,-2,6,9,-7,-6,3,-2
1523144766966612,2,-7,-17,-6,-28,10,6,-13
1523144766986664,0,3,3,36,101,13,7,0
1523144766986664,4,2,17,-6,-22,1,5,23
1523144766995188,2,0,-15,22,22,-12,-3,-1
1523144766995188,-8,5,-1,14,-9,-12,-22,-15
1523144767001430,-1,-11,2,-11,-14,-3,-7,-30
1523144767001430,10,6,13,12,24,-7,20,45
1523144767010002,4,-4,-23,-11,-12,43,19,9
1523144767010002,-18,1,-12,15,38,-8,-13,-24
1523144767024812,-1,3,9,47,60,-1,0,50
1523144767024812,3,-1,4,0,56,-7,-10,-89
1523144767026821,-11,0,-5,-8,-10,-30,-6,-1
1523144767026821,10,0,-3,-19,-46,-8,7,29
1523144767047598,3,2,-2,2,15,-14,-5,-16
1523144767047598,-5,-8,-4,1,-40,7,4,33
1523144767049426,0,1,8,14,22,-6,-7,3
1523144767049426,4,-6,-3,2,40,1,-2,-24
1523144767061134,10,-1,-8,-39,-100,-6,-1,12
1523144767061134,-6,-1,10,26,48,16,11,17
1523144767069933,1,1,-6,-9,-35,0,-2,-9
1523144767069933,-2,-8,3,27,-8,-7,-15,-8
1523144767084594,0,-2,-3,9,-11,-5,7,11
1523144767084594,-6,1,-4,-18,-5,15,4,2
1523144767090988,-5,2,10,20,1,3,-3,-18
1523144767090988,12,-3,-14,-15,-2,-6,2,49
1523144767107533,-28,1,-2,11,28,-17,-13,-67
1523144767107533,-1,-3,2,-23,41,2,-11,-24
1523144767109036,2,-7,3,53,2,-7,1,14
1523144767109036,9,5,-13,-21,-18,10,10,10
1523144767121300,5,0,18,24,44,12,2,8
1523144767121300,-5,-2,-25,-8,5,-3,-5,4
1523144767130093,-1,2,11,-30,10,-4,-9,-31
1523144767130093,-14,-6,10,-18,-83,-2,-5,-16
1523144767145132,2,-2,-14,-29,-21,12,5,2
1523144767145132,0,-2,-2,9,-78,12,-4,-4
1523144767146638,9,6,-8,-10,-27,-3,-1,22
1523144767146638,-12,-6,-5,-20,-26,-4,0,9
1523144767167422,3,2,2,-4,-24,-4,2,3
1523144767167422,8,-4,-3,19,28,-10,8,9
1523144767169197,-2,-3,-5,-5,-18,4,-1,-21
1523144767169197,-8,0,4,21,22,-5,-7,-6
1523144767181452,11,3,-5,-16,-4,7,0,-2
1523144767181452,-6,-5,3,2,2,3,-1,11
1523144767190254,9,0,3,5,57,-14,1,15
1523144767190254,0,-1,-1,12,90,15,0,-16
1523144767204791,6,-4,-5,2,5,-12,5,16
1523144767204791,-33,-7,0,6,-64,5,-2,5
1523144767206797,-2,-1,-3,-7,-1,4,0,-13
1523144767206797,1,0,6,-2,-10,-11,-4,-5
1523144767227582,7,0,-23,-12,23,13,5,17
1523144767227582,2,-1,30,5,-8,-5,0,3
1523144767228855,-7,-3,3,5,-10,20,-2,-5
1523144767228855,1,0,-11,15,14,-2,1,-13
1523144767240888,1,0,4,-6,-21,5,3,36
1523144767240888,-2,1,-2,8,31,-13,-9,-29
1523144767249911,-3,-3,-5,-8,-24,4,-7,-5
1523144767249911,9,-4,1,24,51,-5,6,-6
1523144767264951,-7,3,4,9,-1,0,1,17
1523144767264951,3,2,-3,1,-9,9,0,0
1523144767266456,4,-5,0,-2,29,-5,-3,14
1523144767266456,-7,-2,-6,-14,-39,0,-5,3
1523144767287737,-3,-1,-1,-19,-7,-15,-4,-43
1523144767287737,13,2,5,16,82,12,5,13
1523144767289173,-9,-6,-7,-12,10,6,2,3
1523144767289173,5,2,0,-1,-11,-8,1,1
1523144767301081,-8,-4,-1,-3,4,12,-4,-4
1523144767301081,5,1,2,-11,-6,-11,-2,-8
1523144767309843,2,0,-4,4,29,1,5,14
1523144767309843,-1,1,1,-4,-1,-2,0,-13
1523144767324909,10,-2,-1,2,-13,-10,-4,1
1523144767324909,-19,-4,-7,-17,7,7,2,15
1523144767326417,4,0,2,7,-8,3,3,-14
1523144767326417,-15,-3,-1,-3,-21,3,2,1
1523144767347752,7,4,2,3,-30,-3,2,6
1523144767347752,10,0,-8,-8,-30,-11,-5,30
1523144767349039,-7,4,4,1,9,-9,-7,-40
1523144767349039,-7,-10,-5,-5,29,14,-1,-8
1523144767361294,17,2,-3,3,15,-9,-7,8
1523144767361294,0,-9,-12,-1,-56,-9,-11,-24
1523144767370093,-24,-5,-2,9,-4,-15,-3,-14
1523144767370093,1,-1,-5,-37,-21,3,1,7
1523144767385345,-4,2,1,1,20,5,-4,-47
1523144767385345,17,1,3,-8,-4,7,7,19
1523144767386925,-3,0,-7,46,2,-21,-10,-30
1523144767386925,5,4,-6,9,-47,7,-5,-5
1523144767407407,-6,1,9,-12,-3,3,9,41
1523144767407407,1,-1,10,-14,-45,-21,0,-10
1523144767408911,-3,-7,-15,-14,18,28,-3,-6
1523144767408911,7,13,6,39,45,-5,2,7
1523144767430197,-4,-8,-22,-12,-51,4,-3,-14
1523144767430197,-4,-4,37,7,60,-3,0,-9
1523144767431971,8,-4,8,-17,10,-8,-3,21
1523144767431971,-5,1,-9,23,-20,7,-1,-18
1523144767443734,-3,-4,13,30,72,23,5,5
1523144767443734,-3,4,-24,-55,-31,-13,-2,-7
1523144767452527,8,1,7,24,1,-7,3,16
1523144767452527,-3,-4,4,-9,-9,5,-4,-16
1523144767467774,-15,-9,-14,-48,-79,-1,-16,-19
1523144767467774,2,0,4,67,81,6,21,40
1523144767469072,15,4,-15,-52,22,21,7,18
1523144767469072,-6,-1,24,-2,6,-4,-10,-9
1523144767489626,-19,-17,-25,3,-46,-28,-20,-43
1523144767489626,-1,3,-19,20,58,4,5,19
1523144767491631,5,-9,3,1,-79,-6,8,8
1523144767491631,5,4,10,1,19,13,-3,-1
1523144767504665,-4,-1,3,24,-4,1,-1,2
1523144767504665,-7,2,-9,-28,-74,-11,-14,-41
1523144767511407,-2,-2,8,7,-12,-17,-3,0
1523144767511407,-3,-2,-22,-29,-1,-14,3,18
1523144767527451,7,-1,28,40,42,0,11,40
1523144767527451,-12,0,-20,-8,-44,3,-11,-81
1523144767529430,3,3,5,-8,11,2,1,16
1523144767529430,-7,-4,7,-1,26,-9,-5,-9
1523144767550287,6,5,-13,-33,-66,-14,1,26
1523144767550287,15,6,11,52,46,9,8,39
1523144767551893,-1,-4,6,-7,34,21,-2,-37
1523144767551893,-18,-5,-8,19,-21,-22,-6,-23
1523144767564548,-5,4,-3,11,32,1,5,-5
1523144767564548,7,0,17,-4,26,19,2,17
1523144767571453,-2,-2,-16,2,2,-13,-11,3
1523144767571453,13,-8,-1,-14,1,-10,-1,47
1523144767587385,-17,-3,-20,8,68,11,-3,-44
1523144767587385,3,-2,29,0,-45,-8,3,24
1523144767588889,-1,-3,9,-3,-16,-3,-2,9
1523144767588889,-3,-1,-13,-33,-86,-7,4,7
1523144767609945,6,5,8,18,25,5,0,16
1523144767609945,2,0,-15,-12,10,-7,-7,-30
1523144767611450,3,2,-2,8,-42,-21,4,36
1523144767611450,1,-1,3,6,45,-8,-9,-28
1523144767623482,8,1,0,-28,-15,6,1,-4
1523144767623482,-12,-6,-6,10,-23,-9,4,2
1523144767632506,2,2,10,-7,-16,4,-2,11
1523144767632506,-8,-10,-20,-9,-4,41,1,-18
1523144767647750,-1,-1,10,-4,-24,-21,-6,15
1523144767647750,0,-4,-9,-19,-44,5,-6,-18
1523144767649278,-2,5,-1,6,91,-6,4,26
1523144767649278,-1,-1,-10,-1,-33,-5,2,-31
1523144767670299,7,2,32,16,7,3,1,2
1523144767670299,4,3,-12,-17,-9,7,2,3
1523144767671817,-9,-5,-7,-16,-12,0,-3,10
1523144767671817,-2,2,-19,27,17,-9,-5,-44
1523144767684372,2,-2,-1,-15,-26,-1,10,33
1523144767684372,7,2,24,34,116,-2,-8,14
1523144767691390,-9,4,-7,-33,13,6,1,-45
1523144767691390,-5,-5,-3,-12,21,-15,8,33
1523144767707205,-2,2,-1,6,71,61,4,-19
1523144767707205,-4,-3,-6,4,-14,-11,-4,12
1523144767709210,1,2,-2,6,-15,-2,-7,-14
1523144767709210,6,-1,4,-10,-10,-9,-4,14
1523144767730031,-13,-5,4,7,-13,-4,-1,-20
1523144767730031,1,-3,-4,-20,-23,4,-1,-2
1523144767731537,0,1,-4,5,-12,-4,1,-4
1523144767731537,5,5,3,-5,-80,-10,-1,10
1523144767744094,9,1,10,47,78,-5,1,12
1523144767744094,-13,-8,-10,-11,11,-5,-4,-14
1523144767751316,1,4,7,-14,-51,11,3,-30
1523144767751316,-1,1,5,13,22,8,6,41
1523144767767695,5,-4,-23,-21,-31,-10,-3,29
1523144767767695,-7,5,9,-15,-56,-14,-8,-8
1523144767769138,1,-7,4,24,72,13,5,20
1523144767769138,0,-2,7,-19,-6,2,-2,-3
1523144767789944,-2,1,-7,-14,0,3,0,-12
1523144767789944,2,-1,-12,-11,-35,-8,8,21
1523144767791450,-1,3,-6,0,-44,-9,-6,-3
1523144767791450,-6,0,12,8,45,-4,-8,-3
1523144767804568,-4,-4,-5,-36,-107,-21,-6,-20
1523144767804568,-2,0,1,29,51,5,-4,4
1523144767811185,0,-2,0,3,-56,-5,-1,-29
1523144767811185,-2,-1,2,-1,17,-5,-3,-8
1523144767827545,2,4,1,-16,-5,-6,3,5
1523144767827545,-3,-1,3,-4,-2,8,5,-3
1523144767829049,-4,-3,-8,-16,-41,-13,-4,10
1523144767829049,-3,-2,-6,-8,-15,0,4,-5
1523144767850010,0,-1,-4,5,-9,-13,-7,8
1523144767850010,0,-3,-3,-6,-4,2,-3,-12
1523144767851888,-6,-3,-2,6,32,0,0,3
1523144767851888,2,1,1,7,-7,3,3,8
1523144767864548,-4,-2,4,0,19,7,2,0
1523144767864548,2,-1,-4,-5,-4,1,-2,-5
1523144767871296,-1,1,0,3,10,-4,-3,-4
1523144767871296,1,-1,-8,-1,24,6,-1,-3
1523144767887657,3,3,6,3,-34,-18,8,14
1523144767887657,-2,-5,-2,-4,21,12,-2,-12
1523144767889162,-1,-1,-10,-13,9,14,2,3
1523144767889162,8,4,1,0,-15,-2,-5,-2
1523144767910227,-4,0,-7,8,12,-10,-7,-19
1523144767910227,-7,-1,-1,-12,19,-2,0,0
1523144767911720,-7,-8,-5,-35,-81,-13,-9,-5
1523144767911720,5,3,2,78,97,24,0,-17
1523144767924428,7,3,-9,-29,26,8,0,6
1523144767924428,13,15,17,12,68,5,17,51
1523144767931347,1,-8,8,34,90,-10,2,-5
1523144767931347,-10,-9,15,-37,-53,36,4,-7
1523144767947492,-10,-7,-11,-5,-4,-8,-9,-29
1523144767947492,2,-2,-7,-2,-96,-27,-16,-3
1523144767949347,-4,2,-10,-11,-41,10,0,-12
1523144767949347,5,2,0,-39,7,-20,5,6
1523144767970052,3,1,19,45,79,11,-5,-12
1523144767970052,-4,-7,-18,11,-27,28,9,-4
1523144767971881,4,4,-9,-37,-2,-9,1,15
1523144767971881,-4,-4,20,9,21,-4,-3,-6
1523144767983581,-1,1,10,14,-11,3,-2,-2
1523144767983581,-2,10,-3,3,-68,-13,-2,-4
1523144767992435,0,-14,44,0,-28,2,6,7
1523144767992435,2,5,-24,-2,0,-6,6,7
1523144768007476,0,3,-7,38,43,-6,6,17
1523144768007476,-5,-5,-1,-50,3,7,-5,-24
1523144768008980,0,4,-32,-10,45,-8,-14,-12
1523144768008980,3,-1,15,-66,-124,-22,1,12
1523144768030211,2,6,7,27,43,43,24,35
1523144768030211,-4,-4,13,11,-33,-8,-3,-8
1523144768031539,-4,-2,-15,-5,43,1,-6,11
1523144768031539,-4,-7,-13,-1,-18,-24,-19,-68
1523144768043597,-7,-9,-11,10,17,10,8,17
1523144768043597,2,3,9,20,87,21,10,4
1523144768052594,2,1,1,31,58,-11,5,6
1523144768052594,-7,-8,12,20,22,15,-3,4
1523144768067720,0,-4,-6,-17,-81,-26,-12,-21
1523144768067720,-1,-7,-21,-12,-13,-4,-6,12
1523144768069141,-8,3,22,25,-31,-12,-3,-1
1523144768069141,6,2,-9,3,20,1,2,2
1523144768089695,-1,2,2,-20,-6,6,-3,-8
1523144768089695,-2,2,-8,-9,0,-10,-6,-3
1523144768091699,-3,-14,-9,13,-24,-16,1,27
1523144768091699,5,4,23,3,5,45,8,19
1523144768103929,-5,-5,-12,-20,-22,14,-3,-5
1523144768103929,-5,-5,-12,10,-66,-35,-4,-13
1523144768112881,5,6,-10,-26,41,22,4,-14
1523144768112881,-3,-3,-8,13,37,0,2,24
1523144768127524,-12,-7,0,-8,25,-5,-7,-20
1523144768127524,8,-2,-5,-9,6,9,-7,-18
1523144768128798,-3,1,4,20,43,2,5,25
1523144768128798,1,-3,-6,-12,-24,-14,-9,-5
1523144768150087,4,3,2,-7,-25,-10,-1,15
1523144768150087,7,-2,1,0,49,2,7,9
1523144768151358,-8,0,5,-3,-46,11,-10,-9
1523144768151358,-7,-1,-5,13,5,-17,-5,-9
1523144768163782,15,0,-6,-9,-41,-4,13,25
1523144768163782,-7,1,13,14,16,9,0,2
1523144768172309,8,-1,0,0,-15,-1,3,-5
1523144768172309,-7,-3,-18,-28,-47,-10,-7,-13
1523144768186847,-6,-4,-4,18,65,-5,-7,-41
1523144768186847,1,1,11,-5,90,-5,10,45
1523144768193599,1,7,-1,-17,-22,8,-2,-23
1523144768193599,-1,-5,7,25,74,13,2,21
1523144768210128,-2,-4,-1,-10,-4,3,-8,-12
1523144768210128,-3,1,5,-15,-95,-11,-6,-15
1523144768211413,-6,0,-2,11,61,13,1,-30
1523144768211413,5,4,-6,6,-2,-5,9,18
1523144768223920,-1,-2,-2,-14,-18,-20,-5,-18
1523144768223920,0,3,1,25,72,25,3,-14
1523144768232733,8,-4,-4,-25,-104,-16,0,-4
1523144768232733,-5,2,3,2,36,6,6,11
1523144768247498,1,1,3,-6,-10,-6,-5,-10
1523144768247498,0,-5,-5,8,30,4,-6,-1
1523144768249425,-2,2,-8,-14,-47,-16,5,12
1523144768249425,3,-1,3,3,6,-13,-1,-3
1523144768270168,-1,-2,-5,-1,-12,-4,-4,21
1523144768270168,-13,-5,-4,-14,1,4,-3,-28
1523144768271604,7,1,13,12,16,-1,-9,5
1523144768271604,1,6,14,12,-15,-19,-1,-7
1523144768283863,-3,-6,-22,-17,-38,-2,2,19
1523144768283863,-1,0,1,9,-24,-13,-1,-4
1523144768292662,-3,-3,-3,8,16,15,0,4
1523144768292662,2,7,-2,0,19,4,-4,-1
1523144768307470,-3,-4,6,-16,-55,-18,-6,-7
1523144768307470,-3,-2,-12,-16,-75,2,-3,-1
1523144768308973,0,0,-4,7,15,-8,-2,0
1523144768308973,1,-1,5,9,15,3,-4,13
1523144768330255,-3,4,3,-3,5,11,7,-6
1523144768330255,0,-5,-9,-16,25,12,4,5
1523144768331533,-5,-4,3,6,-48,-3,-4,-2
1523144768331533,-2,-2,-5,-1,-16,14,-1,-3
1523144768343803,1,-1,5,25,66,-10,-6,-9
1523144768343803,-2,-3,-2,-32,-16,8,-4,-5
1523144768352616,1,-1,1,29,16,1,7,8
1523144768352616,-6,-6,-9,-9,-15,0,1,-1
1523144768367722,7,3,1,5,4,-5,-6,1
1523144768367722,-12,-2,1,12,43,-19,2,-1
1523144768369160,8,-5,-2,-7,21,11,-7,-25
1523144768369160,4,2,-2,-8,-8,5,5,-5
1523144768390275,21,10,7,9,61,4,-4,-4
1523144768390275,-10,-4,0,10,-54,-14,1,9
1523144768391721,-8,1,-2,-2,-53,-2,1,0
1523144768391721,13,9,10,-12,20,4,5,-11
1523144768412323,-7,-3,0,27,-15,-17,2,10
1523144768412323,-1,-8,-7,6,-37,29,-4,-7
1523144768414400,27,9,-11,-3,15,1,1,6
1523144768414400,-30,-17,-9,-2,25,17,12,27
1523144768426813,-4,5,-9,-13,-46,-1,7,10
1523144768426813,9,1,41,11,9,-14,-8,-7
1523144768433331,-3,-3,-15,7,58,-1,-9,-4
1523144768433331,0,-5,-3,-4,-33,-5,-5,-4
1523144768449875,-4,-7,-12,-12,17,6,4,-2
1523144768449875,-3,7,-1,-8,2,-13,-5,0
1523144768451889,-6,-2,-5,-2,-17,-11,-1,-3
1523144768451889,2,4,0,7,4,-16,-5,-7
1523144768472436,-7,-2,-7,-48,-30,-11,1,0
1523144768472436,5,-5,-15,9,1,-14,-5,-9
1523144768473940,-8,1,24,39,103,40,18,11
1523144768473940,0,5,-14,2,-89,-19,-12,-40
1523144768486703,3,-8,-7,-12,-43,-8,-3,8
1523144768486703,13,10,11,1,-13,2,6,6
1523144768493722,-4,-4,4,-11,-40,-19,-1,11
1523144768493722,-4,-8,-18,-9,3,-2,-12,-11
1523144768510035,-9,2,12,8,82,6,1,-20
1523144768510035,9,-4,-7,25,25,25,11,47
1523144768511623,-6,9,4,-9,-23,-8,-7,-4
1523144768511623,-2,-14,-5,-12,15,10,-6,-7
1523144768532658,-11,-9,-28,-36,-120,-36,-16,-8
1523144768532658,0,-2,19,-17,20,10,-2,-8
1523144768533959,0,-2,2,3,47,-15,1,3
1523144768533959,0,6,5,6,-7,1,-8,-3
1523144768546199,-5,-3,7,15,28,15,4,11
1523144768546199,6,1,-12,-17,-8,-7,2,3
1523144768555014,-3,1,-5,-14,-65,-11,-3,-44
1523144768555014,-4,-1,7,9,16,9,10,-6
1523144768570054,6,1,6,24,92,12,6,17
1523144768570054,1,3,-3,-15,-103,-10,1,-1
1523144768571559,1,-4,-3,19,51,6,-3,1
1523144768571559,9,1,-14,-14,-26,0,3,13
1523144768592777,-3,2,18,-5,-35,10,-2,-5
1523144768592777,-13,-5,-16,18,87,-6,-2,-30
1523144768594186,-2,-3,1,-30,-50,-12,-6,15
1523144768594186,-6,-3,7,9,4,-1,7,10
1523144768606215,3,-1,-10,3,3,13,0,0
1523144768606215,1,0,15,-4,7,1,2,15
1523144768615239,-11,-4,-22,10,39,-4,-11,-14
1523144768615239,-7,-6,1,10,23,-1,-1,10
1523144768629983,8,4,1,-9,2,-5,2,-4
1523144768629983,-5,-4,-15,6,11,0,-2,-14
1523144768631909,-8,1,10,3,-55,-14,-7,-1
1523144768631909,10,1,-6,0,-12,-1,6,24
1523144768652552,0,1,-2,-9,-65,-6,-2,-3
1523144768652552,-4,-2,1,3,53,12,3,5
1523144768654377,4,1,1,-6,-33,7,-4,-8
1523144768654377,3,2,-8,-16,32,-15,-6,-12
1523144768666876,-4,-1,6,23,-2,4,-1,16
1523144768666876,-8,1,7,0,29,16,-6,-39
1523144768673395,0,0,-13,-26,-43,-22,2,5
1523144768673395,-1,-1,15,20,19,20,16,46
1523144768689937,-4,-1,-1,-2,16,-5,-11,-24
1523144768689937,3,-1,-7,-5,-18,-23,-4,15
1523144768691443,4,-2,-15,-8,16,25,5,3
1523144768691443,-4,4,17,9,1,-9,-2,-16
1523144768712497,3,-4,-5,13,59,11,0,9
1523144768712497,-8,-4,1,-8,-66,-26,-7,15
1523144768718740,-1,0,2,1,36,3,3,0
1523144768718740,2,2,-8,-15,-8,6,-5,-15
1523144768726762,0,5,16,17,46,2,2,-5
1523144768726762,0,-4,-14,6,43,-6,-4,-12
1523144768733780,3,0,9,5,31,-4,4,12
1523144768733780,2,-1,-5,-4,-22,-5,-1,4
1523144768750159,-3,-2,1,3,52,24,2,-14
1523144768750159,-3,-2,-17,-15,-23,8,-6,-14
1523144768751829,-2,-2,21,-7,-26,-13,-3,1
1523144768751829,0,0,-2,38,45,1,1,-12
1523144768772657,-1,-1,1,-11,-28,-11,4,17
1523144768772657,2,1,-6,1,-12,10,3,-6
1523144768774162,1,-6,6,-20,12,20,3,7
1523144768774162,-1,3,1,-13,-22,-10,-7,-2
1523144768786922,-3,-1,-4,-10,-31,-11,-2,-8
1523144768786922,0,-3,-4,4,-88,-34,-5,5
1523144768793932,-1,1,-1,11,18,30,7,7
1523144768793932,-5,-3,-7,0,-3,7,-1,-15
1523144768810025,-2,0,4,-6,-18,-11,-5,-9
1523144768810025,-4,-1,5,12,26,1,-2,-2
1523144768811531,2,-1,-1,7,80,-16,-1,0
1523144768811531,0,-3,-5,-8,-26,-10,-3,14
1523144768832756,3,-2,-6,-6,-3,-6,-3,-8
1523144768832756,-8,-2,2,-4,15,12,-1,-2
1523144768834090,4,2,-2,11,30,2,4,8
1523144768834090,-1,-3,-4,-14,-52,-14,-7,-2
1523144768846898,2,-4,-2,-4,-10,-5,0,6
1523144768846898,-1,1,0,1,13,6,-5,-6
1523144768853691,-3,0,-1,-6,-32,-1,7,2
1523144768853691,6,3,-2,0,41,-6,-8,-6
1523144768869963,-14,-7,-3,-4,-55,15,5,-2
1523144768869963,6,-3,3,-3,86,4,6,15
1523144768871741,-18,-8,-5,46,-15,-6,-10,-4
1523144768871741,5,-1,-8,-33,-79,10,2,-2
1523144768892795,11,2,0,-9,-52,-22,3,49
1523144768892795,-8,0,0,4,4,-1,-17,-61
1523144768894345,3,2,0,-17,-1,-4,6,3
1523144768894345,-10,-4,-5,20,111,31,23,31
1523144768905831,-2,-1,-23,-17,-20,-15,-19,-26
1523144768905831,-2,-6,15,11,-75,10,9,21
1523144768914858,5,4,-12,-14,-58,-7,-10,-4
1523144768914858,0,4,-20,6,-2,-22,-11,-9
1523144768930120,-6,-4,27,-9,-17,9,-2,-48
1523144768930120,0,-3,7,-9,-32,-9,2,8
1523144768931398,0,1,-36,-15,5,1,-6,-14
1523144768931398,-1,0,18,1,-7,-5,2,15
1523144768952454,-2,-6,-25,6,38,3,6,2
1523144768952454,4,8,6,7,24,-5,2,2
1523144768954458,-5,-4,15,23,-7,3,-10,-6
1523144768954458,-3,-3,-8,-16,-57,-8,0,-12
1523144768965990,2,7,12,41,24,-7,-5,-12
1523144768965990,2,-2,-11,-25,17,31,3,3
1523144768975015,12,13,11,-12,-65,8,24,51
1523144768975015,-5,-5,3,9,-3,-13,-13,-19
1523144768990280,-3,-7,-8,-12,-32,-3,-6,5
1523144768990280,-8,-9,-14,-30,-92,-19,-4,0
1523144768997574,2,8,15,1,-8,11,8,5
1523144768997574,3,-5,3,-21,-54,-20,-9,-15
1523144769012160,-1,5,-9,26,67,21,5,16
1523144769012160,-5,-6,-3,-4,-36,-41,-9,-9
1523144769014119,-3,-9,30,-25,33,23,-3,-5
1523144769014119,1,1,-4,11,4,0,2,12
1523144769026150,-8,1,-14,-17,3,-9,-7,-59
1523144769026150,4,10,0,14,19,28,13,56
1523144769035175,-8,-11,-11,-1,25,-12,-19,-53
1523144769035175,-8,0,6,-1,13,4,-5,-9
1523144769050214,8,-1,5,13,47,4,-2,6
1523144769050214,14,5,-4,5,-3,9,34,47
1523144769051935,-6,-1,12,15,15,-16,7,13
1523144769051935,0,0,-4,-20,56,27,-12,-54
1523144769072273,-6,-2,1,12,39,-1,-4,-8
1523144769072273,-1,-2,-3,-22,-7,-16,-12,-21
1523144769074360,4,1,-3,-14,-38,-10,-2,14
1523144769074360,-3,-1,-12,-6,-62,1,4,8
1523144769086042,-2,-2,0,-10,-63,2,-1,1
1523144769086042,9,-3,6,10,88,-13,-3,10
1523144769095431,-16,-5,-15,-22,-35,1,-4,-25
1523144769095431,4,4,-1,9,18,1,0,11
1523144769109873,5,2,-6,-3,-9,-13,4,15
1523144769109873,-8,1,10,5,9,-3,-6,-11
1523144769111378,5,-6,-21,4,4,-3,-5,-4
1523144769111378,-1,0,11,8,15,-16,8,43
1523144769132660,-6,-3,-2,22,6,21,-12,-28
1523144769132660,-2,2,-5,-29,14,-1,3,-34
1523144769134438,5,3,5,21,20,0,4,11
1523144769134438,1,-4,0,8,40,0,4,3
1523144769146096,5,-1,7,-28,-9,-5,9,38
1523144769146096,-9,0,8,52,85,12,-13,-29
1523144769154993,1,-10,-8,-13,-8,-4,2,19
1523144769154993,2,0,-7,-13,-38,-12,-2,-4
1523144769170033,0,4,16,-4,5,2,1,-10
1523144769170033,1,2,9,-11,2,-11,-2,-9
1523144769171538,1,-3,-4,27,-50,8,-3,0
1523144769171538,0,-2,3,17,19,-1,4,5
1523144769192782,-3,1,-14,-17,-53,-6,-7,-14
1523144769192782,-6,-2,0,-5,-98,-2,3,-14
1523144769194154,4,1,5,7,52,10,4,13
1523144769194154,2,-3,1,-10,-17,-10,-4,-8
1523144769206129,1,3,-19,22,25,3,1,4
1523144769206129,2,-4,2,-25,19,9,-3,-3
1523144769215154,-5,-1,3,4,-1,-4,-2,-9
1523144769215154,1,0,6,7,41,7,6,30
1523144769229922,0,-2,1,-19,-19,-8,-4,-4
1523144769229922,3,0,-9,25,40,-1,-3,12
1523144769231843,0,-2,-5,-9,14,-19,-2,-9
1523144769231843,1,0,5,-3,2,15,-5,7
1523144769252490,0,-4,6,-7,5,4,3,7
1523144769252490,-2,-7,-14,-18,-32,-2,-2,-4
1523144769253757,-2,1,7,0,20,4,-4,-10
1523144769253757,-1,1,-3,-10,-21,-5,2,-13
1523144769266405,-1,-1,1,3,-5,-4,-3,5
1523144769266405,-1,-5,-6,10,-23,-2,-2,-2
1523144769274812,1,4,8,-12,39,-4,3,4
1523144769274812,-2,0,-13,-14,-39,8,0,-10
1523144769290077,-3,-4,26,22,34,16,3,0
1523144769290077,3,5,-3,-6,-19,-2,3,10
1523144769291356,-2,-2,-15,-12,-2,-4,-2,-4
1523144769291356,-3,-3,0,-6,2,-12,-5,-11
1523144769312412,0,-3,2,14,6,-5,0,7
1523144769312412,-2,0,9,4,14,9,-3,-3
1523144769313917,-3,-3,-7,-4,-15,-2,-2,-4
1523144769313917,-3,-1,3,10,14,-2,-2,-13
1523144769325947,-1,-1,-9,-18,-20,-9,2,8
1523144769325947,-2,-1,3,3,-18,-6,0,4
1523144769334973,0,-1,-4,-4,-8,-9,-2,-5
1523144769334973,-3,-2,-3,3,-1,10,-1,-1
1523144769350238,-2,-2,-2,-9,8,-3,-1,0
1523144769350238,1,-2,-10,-6,-32,0,-5,1
1523144769351746,2,-1,1,2,41,10,1,-3
1523144769351746,-9,-7,0,4,5,-11,-1,-4
1523144769372573,8,0,5,4,84,4,-2,6
1523144769372573,-9,-2,-2,-5,-60,-6,-1,-7
1523144769378821,0,1,0,8,16,13,-4,-4
1523144769378821,7,3,5,4,3,-3,5,-1
1523144769402786,8,3,2,-1,14,-3,2,5
1523144769402786,-10,-2,-3,-5,40,-4,4,13
1523144769404156,-1,-3,-4,18,22,-4,-10,-9
1523144769404156,0,0,-10,-2,0,10,-2,1
1523144769409904,-1,4,3,-3,-38,2,8,1
1523144769409904,7,1,9,13,92,14,7,-1
1523144769411882,0,-5,6,1,-64,-10,0,7
1523144769411882,-6,-2,-9,8,32,-3,-6,-11
1523144769432462,-4,-2,-1,-6,42,15,5,2
1523144769432462,-1,-6,-12,-3,-14,-17,-13,-4
1523144769434342,-4,1,-1,-24,-14,2,0,-1
1523144769434342,-4,-5,-4,-35,-26,3,-2,0
1523144769454792,-3,5,18,71,20,8,0,-5
1523144769454792,1,3,1,38,31,-7,-7,-10
1523144769456796,-2,5,-26,-55,-88,-15,0,21
1523144769456796,-5,-18,4,-24,15,-6,-14,-36
1523144769469547,5,1,13,52,24,14,15,31
1523144769469547,-2,-7,7,-53,-93,-22,-1,13
1523144769476075,6,15,31,65,88,40,11,-7
1523144769476075,-8,-9,-22,25,-32,-15,-10,-6
1523144769492616,-9,-9,4,-37,-33,-4,-16,-36
1523144769492616,6,9,-1,27,-65,-5,4,13
1523144769493894,4,4,16,-38,51,35,18,14
1523144769493894,4,17,-8,-13,-95,15,5,15
1523144769514951,-6,-10,-5,-15,-30,-19,-12,-17
1523144769514951,0,-5,-8,-15,24,-1,-2,-4
1523144769516455,-7,-8,-13,-15,-32,-31,-19,-13
1523144769516455,-1,1,9,25,68,5,-2,-8
1523144769528529,-1,3,-2,-27,-56,-5,7,11
1523144769528529,7,5,3,-2,50,14,-3,0
1523144769537511,0,-5,-18,8,-4,-14,-5,-21
1523144769537511,4,1,16,7,7,4,11,36
1523144769552756,-6,-1,-10,-9,7,-19,-12,-16
1523144769552756,-6,-1,-14,-18,-38,20,1,-15
1523144769554054,-4,-10,2,9,-20,3,-4,-12
1523144769554054,-6,4,12,52,37,6,-4,-11
1523144769575336,3,-2,-12,-20,-37,-16,0,4
1523144769575336,-1,0,-2,12,12,0,0,9
1523144769581355,-2,-2,-5,-13,-46,-10,-5,-16
1523144769581355,2,-5,-2,-10,30,-1,5,14
1523144769588648,7,1,0,-16,12,19,15,53
1523144769588648,0,0,-6,-1,-26,6,-4,-12
1523144769597439,-3,-1,10,0,-17,-22,-8,0
1523144769597439,1,2,-1,-4,25,-3,-2,-4
1523144769612689,-6,-4,-7,-10,31,5,-1,-15
1523144769612689,2,-3,-1,-4,-21,-6,-5,5
1523144769613983,-6,0,-5,1,-2,-4,0,5
1523144769613983,4,1,-4,-8,-35,-8,-4,-24
1523144769634962,1,-4,-5,-29,44,10,2,30
1523144769634962,0,10,-12,9,36,15,0,-19
1523144769636278,-3,-8,20,-4,-31,9,2,4
1523144769636278,-3,-2,11,-2,-8,-4,-2,-13
1523144769648877,-3,-2,-12,-21,-33,-11,-5,6
1523144769648877,1,3,-17,-14,14,-7,-2,-12
1523144769657835,2,5,16,-10,-22,-14,0,10
1523144769657835,-1,2,-5,1,2,7,-7,-15
1523144769672374,-5,-4,-6,-2,-80,-15,-2,-13
1523144769672374,-3,-1,2,-6,60,8,0,0
1523144769673878,11,4,-10,20,54,15,12,6
1523144769673878,-7,-3,7,9,-70,-15,-2,14
1523144769694934,-3,2,-15,3,-10,0,-6,-21
1523144769694934,-4,-6,6,-6,11,-20,-5,-2
1523144769696438,-4,-1,-2,1,-43,14,1,-1
1523144769696438,-1,-5,-12,-22,-1,1,-1,0
1523144769708621,-3,0,-8,10,-4,-2,-2,-3
1523144769708621,-1,-1,-2,-7,35,1,2,0
1523144769717495,-3,-5,5,15,0,-20,-3,9
1523144769717495,5,6,12,-26,77,12,6,0
1523144769732661,1,1,-2,11,-46,-3,-4,-9
1523144769732661,-2,-7,-1,-2,-18,-9,-2,-3
1523144769734038,-4,-1,-15,4,-6,8,-5,-2
1523144769734038,-4,-2,0,-18,-58,5,3,0
1523144769755094,0,-3,9,11,102,15,-5,-15
1523144769755094,5,2,-12,-8,-76,-17,5,27
1523144769756599,-1,-5,-3,5,-2,-12,-4,-7
1523144769756599,-1,-2,3,-4,10,1,0,-3
1523144769769283,1,1,7,36,-5,5,-3,-8
1523144769769283,-4,-2,3,2,-39,-6,-3,-6
1523144769776150,-1,2,-4,-10,-15,-10,4,17
1523144769776150,6,-1,-12,7,64,-6,-6,-2
1523144769792340,-3,-3,7,-9,34,-2,-3,-12
1523144769792340,-1,-1,11,6,-5,-3,2,9
1523144769794198,3,6,3,12,60,-1,1,-4
1523144769794198,2,1,-4,4,25,3,4,1
1523144769814900,-3,-1,2,-4,-34,-8,-8,-3
1523144769814900,0,0,10,20,67,-2,-5,-13
1523144769816870,5,-4,-5,-12,25,25,12,30
1523144769816870,-8,-2,-8,0,-29,-9,-3,0
1523144769829442,4,-1,2,-1,-8,-2,-2,-8
1523144769829442,1,-5,4,3,4,1,-1,0
1523144769836347,-1,-7,-12,-2,-65,-11,-6,-7
1523144769836347,7,2,8,16,5,3,11,29
1523144769852505,-30,-7,-12,-10,-83,-3,-3,-44
1523144769852505,11,0,1,-3,40,6,5,8
1523144769853857,18,7,-13,5,58,-20,-6,25
1523144769853857,-27,-11,12,-59,-128,1,11,54
1523144769874485,13,0,-41,-21,-24,1,-20,-75
1523144769874485,8,-2,5,0,-67,16,17,23
1523144769874913,-23,-20,-12,22,53,7,1,-1
1523144769874913,6,11,-27,7,28,-38,-10,-10
1523144769897006,-11,-17,40,35,90,38,11,48
1523144769897006,7,22,-63,-2,-14,15,-2,-22
1523144769897474,13,-15,5,-7,-1,-34,-8,-5
1523144769897474,-3,-10,64,6,25,20,-6,-30
1523144769912042,1,6,-26,-2,17,-17,2,11
1523144769912042,13,-1,8,-18,-37,-11,7,20
1523144769912513,-6,13,-35,34,40,0,-2,-15
1523144769912513,-10,-4,-26,-19,-14,-14,-8,-10
1523144769934219,20,8,45,49,67,10,3,10
1523144769934219,-8,-6,20,38,-6,-3,-3,8
1523144769935073,-24,-1,-2,-39,7,2,-6,-33
1523144769935073,6,-1,3,10,3,5,-2,3
1523144769956778,12,10,-24,3,-5,-3,2,15
1523144769956778,-9,-12,52,11,0,-12,-11,-20
1523144769957633,3,7,19,10,53,26,17,22
1523144769957633,6,0,-9,13,21,21,-4,-30
1523144769971671,-2,5,-6,-26,10,-22,-8,-7
1523144769971671,-20,-10,-41,-48,-47,-29,-9,-1
1523144769972674,6,0,10,-81,-85,39,4,-13
1523144769972674,11,7,27,45,81,7,20,29
1523144769994229,-4,6,-17,25,-110,-3,11,30
1523144769994229,-3,-2,10,1,-12,0,-16,-38
1523144769995233,-15,-5,-2,-3,6,-12,-11,-21
1523144769995233,7,-2,-33,-26,-58,-3,-3,4
1523144770016791,-2,-4,15,-9,3,-8,1,-3
1523144770016791,-22,-4,4,15,57,14,15,4
1523144770017843,-5,7,1,13,-27,-19,-14,-24
1523144770017843,12,3,3,7,22,-8,5,29
1523144770031980,-9,-3,6,-13,12,-3,1,-14
1523144770031980,12,12,-42,-1,11,30,2,26
1523144770032331,7,-8,47,8,0,-10,-6,-10
1523144770032331,-14,-11,-31,2,-26,12,-3,1
1523144770054395,3,7,5,-58,-85,-32,-4,7
1523144770054395,12,-2,9,-6,54,-9,-5,-1
1523144770054892,-10,8,5,45,75,5,6,2
1523144770054892,-1,1,7,16,-51,-17,-27,-33
1523144770076643,9,-7,-1,-14,-8,5,1,9
1523144770076643,-8,-3,-11,10,3,-4,2,10
1523144770077647,-2,1,-3,11,-18,-13,1,-4
1523144770077647,18,0,7,-7,24,-5,0,9
1523144770091830,-24,0,-5,4,82,7,-2,-3
1523144770091830,8,-9,16,4,-9,-15,-10,-16
1523144770092687,-2,-4,-14,-22,1,19,2,14
1523144770092687,1,3,5,10,-26,0,7,2
1523144770114393,7,-4,16,13,38,4,-3,6
1523144770114393,2,2,12,16,30,9,5,0
1523144770114745,-2,1,-12,-25,-61,-5,1,12
1523144770114745,-11,-3,-29,-26,-32,-11,-12,-26
1523144770137306,1,-11,-12,18,11,-12,-5,-1
1523144770137306,-8,4,14,-40,-73,-18,-9,-14
1523144770138308,6,-2,-17,26,45,2,-5,-2
1523144770138308,-9,4,15,2,-48,-12,1,-12
1523144770151845,-1,-5,9,-8,-56,19,6,10
1523144770151845,1,5,-9,6,35,0,3,16
1523144770152347,19,-3,1,-6,11,-20,-6,7
1523144770152347,-26,-6,-18,-6,-7,-3,-6,-28
1523144770174481,0,-1,4,7,-40,4,-1,-5
1523144770174481,-1,-2,5,4,4,-1,2,-3
1523144770174906,10,7,5,-23,28,19,10,40
1523144770174906,-1,-5,9,32,48,-5,1,-13
1523144770196463,-3,5,-21,-18,-27,-12,-3,-10
1523144770196463,-4,-4,-1,-33,-33,17,0,-5
1523144770203983,-4,-5,-1,20,-18,-12,-9,-20
1523144770203983,1,8,7,20,34,1,1,12
1523144770212003,-8,-6,-13,-6,26,5,4,-4
1523144770212003,-3,3,-14,-7,19,15,-4,0
1523144770212506,-4,-2,12,1,-12,-23,-7,-12
1523144770212506,6,-9,2,-3,-22,6,5,5
1523144770234209,5,4,-2,-9,69,4,-1,5
1523144770234209,2,-3,0,3,-26,-11,-4,-12
1523144770235065,-2,-5,-14,-7,-41,24,11,21
1523144770235065,2,2,-2,15,73,-6,-3,1
1523144770257676,1,0,-1,-11,-29,-9,-1,3
1523144770257676,-6,0,13,11,36,5,-1,-4
1523144770258126,0,-1,-6,4,-7,-11,-6,-20
1523144770258126,7,4,5,-25,25,6,3,5
1523144770271665,-10,-6,2,29,27,-9,-17,-12
1523144770271665,8,-2,-5,-17,-10,-1,6,3
1523144770272666,-6,-1,6,49,10,3,0,2
1523144770272666,8,4,-6,-23,-7,-12,1,5
1523144770294370,-10,-1,-3,1,-2,22,0,-5
1523144770294370,-6,-6,1,22,15,18,-4,-10
1523144770295302,1,-3,-6,-24,-41,-7,0,0
1523144770295302,-2,-3,-3,-6,29,3,-8,-6
1523144770317432,4,6,-3,11,53,-18,2,9
1523144770317432,3,-11,-1,-17,3,27,-2,0
1523144770318287,-14,0,0,-14,40,17,0,1
1523144770318287,11,-5,-4,0,15,10,4,10
1523144770331971,-1,-1,-1,0,-12,-1,1,0
1523144770331971,-11,4,0,29,2,-27,-5,-27
1523144770332324,9,-4,-11,-34,-59,-9,3,12
1523144770332324,-24,-7,-7,-24,-19,2,-12,-8
1523144770354383,30,19,6,31,-50,-3,6,27
1523144770354383,5,-5,5,-7,-12,16,9,-3
1523144770354885,-7,-1,-4,5,87,-1,-3,4
1523144770354885,-6,-12,7,-4,40,-5,-3,-23
1523144770377092,12,-2,-16,-2,-2,-13,8,34
1523144770377092,0,4,25,9,61,18,3,10
1523144770384523,-2,-2,-11,2,-16,7,-3,-29
1523144770384523,-12,-3,5,-2,-46,-13,0,3
1523144770391983,-8,-6,7,-24,-26,-14,-7,-20
1523144770391983,-7,-5,2,6,11,-14,1,15
1523144770392484,-2,-3,0,-28,-77,-32,-10,-18
1523144770392484,12,14,10,76,-34,7,17,61
1523144770414269,-5,-13,21,-35,-13,35,3,-13
1523144770414269,-10,-2,-23,-8,-10,-19,-4,-5
1523144770415076,3,0,-4,-2,-12,-9,-9,-8
1523144770415076,2,3,-13,-26,16,-4,-15,-22
1523144770436601,-6,6,-10,-28,-6,-36,6,12
1523144770436601,-4,2,-5,-7,-97,16,-11,-25
1523144770437604,21,0,3,11,127,31,27,68
1523144770437604,-6,5,20,-10,-30,19,5,-27
1523144770451641,3,-5,-6,36,-39,2,-5,-8
1523144770451641,-5,2,1,-24,108,-16,-6,-13
1523144770452643,-5,-4,-22,-29,-124,-43,-19,-22
1523144770452643,-3,-6,-3,4,22,29,4,2
1523144770475470,-4,0,8,-4,24,4,1,-18
1523144770475470,6,-1,-15,10,-23,-16,-4,23
1523144770478178,-3,6,-14,25,-3,-8,-2,-18
1523144770478178,3,-5,19,-8,14,-9,0,3
1523144770490735,-8,-6,-7,4,15,16,-4,-22
1523144770490735,7,2,0,3,5,-3,11,38
1523144770491513,4,2,-3,-7,-4,-1,-5,-21
1523144770491513,-22,-6,-5,-6,-23,15,-5,-10
1523144770505050,4,-1,-7,-19,-14,-8,9,49
1523144770505050,-6,0,-5,3,40,-4,3,-8
1523144770511067,18,6,24,33,4,6,1,-18
1523144770511067,-7,2,-38,-19,27,-10,-10,-24
1523144770526336,-13,-11,17,20,9,8,-4,-7
1523144770526336,0,-4,-4,-16,-19,-4,10,30
1523144770533857,-11,1,-5,2,-74,23,3,-30
1523144770533857,6,0,-1,-14,22,5,-1,6
1523144770549368,-2,0,-7,-6,40,4,-5,-28
1523144770549368,-3,-2,-3,0,-26,-19,-7,2
1523144770550363,-1,0,2,-1,11,-5,5,8
1523144770550363,-7,3,-5,-15,-34,-11,-6,-22
1523144770563912,11,0,1,16,-4,-6,1,14
1523144770563912,-1,-2,-4,7,-14,4,3,2
1523144770579247,4,0,4,-18,15,-1,-4,9
1523144770579247,7,-1,0,8,-8,2,-6,1
1523144770586384,-15,1,13,-20,-79,-13,-13,-15
1523144770586384,1,4,-9,-11,-27,-11,-2,-1
1523144770593884,-10,-5,-3,-15,11,1,-1,-3
1523144770593884,4,-3,2,10,-82,-7,6,23
1523144770609326,1,-4,-20,-23,-13,-7,-9,-8
1523144770609326,-4,-3,33,1,1,1,-4,5
1523144770610384,1,-8,1,-8,-11,9,-3,9
1523144770610384,-6,6,-12,9,93,12,2,-16
1523144770623591,6,2,4,23,68,13,10,21
1523144770623591,3,3,8,0,1,1,0,-2
1523144770631410,-8,-3,-5,-8,5,-6,-4,-5
1523144770631410,21,0,-1,4,9,-21,-1,15
1523144770646434,-9,-3,-10,14,-23,4,-1,-6
1523144770646434,-10,0,-5,18,45,3,-5,-22
1523144770662197,-7,-4,-4,7,-42,-2,-6,1
1523144770662197,7,1,13,21,41,7,6,6
1523144770670489,0,0,-1,-17,-26,-8,-2,-4
1523144770670489,-5,-2,-29,-11,-46,-9,-8,-18
1523144770671492,4,-4,29,3,31,13,5,24
1523144770671492,-4,-5,-7,2,-10,-1,2,4
1523144770685028,1,0,-1,9,19,-21,-6,-1
1523144770685028,-2,-2,-16,-9,1,16,-3,-13
1523144770691043,-7,-5,15,2,30,6,-5,-6
1523144770691043,-3,-1,0,-13,-29,5,7,3
1523144770706084,4,0,1,-19,59,-4,10,42
1523144770706084,3,1,-19,16,33,10,-2,-11
1523144770713837,-1,0,7,-7,-43,-14,-1,9
1523144770713837,-4,-8,-2,-6,-9,-3,-6,-9
1523144770729352,-4,0,-1,-4,2,7,-4,-26
1523144770729352,4,0,9,12,25,-5,3,9
1523144770730148,-2,0,-7,18,20,1,0,-1
1523144770730148,-1,0,-1,-11,-25,-6,-8,-2
1523144770745187,1,2,-1,7,22,9,1,-2
1523144770745187,-4,-3,5,2,-31,-12,-1,1
1523144770751202,0,0,-2,-2,9,21,-2,-13
1523144770751202,2,2,-4,-4,8,-8,3,2
1523144770766243,3,-2,-3,-4,-54,3,-1,-6
1523144770766243,0,-4,9,1,8,1,1,-2
1523144770773932,8,3,-10,-8,-2,-9,-1,1
1523144770773932,1,-3,-10,-15,-75,-7,-2,3
1523144770789529,-5,-2,5,-1,21,18,-1,-5
1523144770789529,-10,-4,1,-1,4,-3,-5,-2
1523144770789807,9,6,-3,5,-14,-11,2,1
1523144770789807,-8,0,2,4,11,1,1,-3
1523144770803341,-14,0,0,-5,-17,-11,-6,-12
1523144770803341,-14,-7,-3,-9,-29,5,8,11
1523144770811075,12,3,-3,2,-3,-8,-4,20
1523144770811075,-10,1,3,-1,14,-4,-2,-58
1523144770825903,13,1,-2,-4,3,5,1,2
1523144770825903,0,2,2,1,9,1,-1,6
1523144770833647,-1,-1,-4,-1,6,0,2,-15
1523144770833647,9,4,1,-4,-4,-8,-9,5
1523144770849436,18,3,4,5,59,-5,0,0
1523144770849436,-13,-2,2,11,32,13,5,6
1523144770849722,-1,-7,-6,-7,0,-8,4,0
1523144770849722,7,2,-6,0,-13,8,-1,13
1523144770866974,-7,0,-6,24,58,-34,-11,-12
1523144770866974,12,3,15,-34,-69,14,4,9
1523144770871490,-17,-3,-19,7,-69,-9,-14,-21
1523144770871490,-2,-7,13,-22,19,5,5,14
1523144770886119,-6,-4,13,32,70,-4,7,-4
1523144770886119,12,6,-20,18,8,-11,-18,-6
1523144770893618,-3,11,-23,-9,-90,-11,7,3
1523144770893618,0,-15,71,41,77,37,10,21
1523144770909309,5,15,-7,-29,-88,6,4,5
1523144770909309,-6,-13,20,-35,-66,-45,-30,-30
1523144770910092,-13,-8,34,54,89,13,-17,-54
1523144770910092,17,12,-38,11,-10,-18,25,64
1523144770924894,0,-1,13,-26,13,42,15,17
1523144770924894,5,11,-10,-16,1,7,2,-3
1523144770931118,-14,-8,-6,-10,27,-16,-15,-21
1523144770931118,-4,-5,0,19,20,-39,-21,-19
1523144770946142,-2,5,-1,-13,-4,24,6,5
1523144770946142,1,-5,-16,41,-22,11,4,0
1523144770953665,2,-3,-2,-4,30,3,6,17
1523144770953665,-3,4,5,-1,18,4,9,-1
1523144770969206,-9,-5,-10,7,-8,-1,-11,-6
1523144770969206,5,-3,0,16,39,14,-3,-14
1523144770970209,6,-6,1,-11,17,2,5,8
1523144770970209,-20,2,-13,-10,-40,-4,-2,4
1523144770984747,6,-9,-9,-28,-31,-24,-14,-18
1523144770984747,3,10,27,2,36,12,9,-5
1523144770991434,-13,-4,-10,43,-17,11,5,-2
1523144770991434,0,-1,-14,-52,-7,-4,6,11
1523144771006303,-3,0,0,-5,-65,17,-3,2
1523144771006303,5,1,-5,16,71,-18,-6,-5
1523144771013323,22,5,-8,-25,-53,3,4,8
1523144771013323,7,-9,-3,5,1,-11,-17,-21
1523144771029560,-11,-5,-5,7,-45,-19,-5,-12
1523144771029560,-1,0,1,-2,17,-12,7,13
1523144771029867,-17,3,2,-15,30,5,4,6
1523144771029867,1,-7,-5,21,16,13,6,3
1523144771045407,7,0,2,-13,6,-11,1,23
1523144771045407,1,-1,-13,-14,-19,20,-2,-18
1523144771051148,4,-2,14,15,-9,-4,1,13
1523144771051148,-10,3,-9,-33,-5,0,-7,-3
1523144771066464,-9,-4,-23,5,-8,-28,-4,-13
1523144771066464,0,-2,11,-5,-22,16,6,19
1523144771073483,-1,-4,-5,-17,-33,5,-5,-3
1523144771073483,3,2,1,-15,60,10,-2,26
1523144771089238,-2,-4,-8,6,-33,0,-7,-28
1523144771089238,1,-5,-6,-4,11,-17,3,-21
1523144771090027,2,11,-5,2,19,-10,0,7
1523144771090027,-3,-3,-9,19,-36,4,-5,-16
1523144771105067,-9,-14,13,2,-57,17,-5,-4
1523144771105067,-3,-3,3,-4,-25,-21,2,19
1523144771111308,4,2,17,-6,30,8,9,7
1523144771111308,-3,-2,-18,21,5,-9,-4,-14
1523144771126122,5,5,5,-6,-3,-7,0,10
1523144771126122,-16,-2,-4,-13,-10,7,7,21
1523144771133856,5,-5,-5,-9,-5,-14,-8,-27
1523144771133856,-3,4,2,-23,-85,-12,-7,-3
1523144771149465,-1,-2,-16,-2,9,-1,0,8
1523144771149465,8,3,4,9,16,-1,-7,-6
1523144771150325,-6,0,-5,-12,-1,-14,-1,18
1523144771150325,-1,1,4,1,-6,18,-3,-18
1523144771164801,-2,-1,0,-2,28,-9,-7,-4
1523144771164801,4,-1,-5,4,-17,-16,2,-32
1523144771171094,-3,-2,-4,13,4,1,-2,11
1523144771171094,6,0,3,0,46,6,1,-9
1523144771186132,-5,-3,0,-9,-35,-11,10,15
1523144771186132,3,-4,-3,-3,-10,17,-5,7
1523144771193654,-2,-1,0,-45,-17,-3,-4,-8
1523144771193654,0,1,-16,11,-31,-3,-1,-6
1523144771209195,0,1,14,15,47,0,3,10
1523144771209195,-1,-1,1,-10,-17,-7,-6,-1
1523144771210297,-3,-3,9,3,10,1,2,-8
1523144771210297,-2,-6,-9,-10,-31,7,5,16
1523144771225237,4,4,3,3,13,-8,-7,-15
1523144771225237,0,1,-9,-3,3,-2,0,3
1523144771231252,-5,-1,-7,11,-56,2,3,9
1523144771231252,1,0,9,-11,-9,-10,-4,-12
1523144771246067,1,3,-1,-2,23,41,3,-4
1523144771246067,-2,-1,-3,-4,-10,-18,0,7
1523144771253588,10,0,-1,9,27,7,0,-1
1523144771253588,1,-2,1,9,16,-3,-11,-6
1523144771269247,2,-4,-3,-7,-27,2,6,1
1523144771269247,6,-3,3,4,15,4,-1,18
1523144771270131,-13,0,1,-2,60,10,9,-3
1523144771270131,-3,-4,0,-1,-9,-5,-1,-10
1523144771285220,-2,0,-2,5,-7,-10,-4,1
1523144771285220,-6,-6,-13,-16,-42,6,-10,0
1523144771290968,5,4,7,20,71,-5,-2,0
1523144771290968,-16,-8,-9,-16,-58,0,-5,4
1523144771305931,6,5,3,6,20,-12,2,-33
1523144771305931,-8,-1,4,3,40,1,0,-9
1523144771313885,2,-6,-1,40,-26,7,-1,-1
1523144771313885,-2,8,4,-1,21,-3,13,46
1523144771329561,5,4,0,-3,-80,-14,-9,-27
1523144771329561,-13,-9,-12,1,13,5,8,-24
1523144771329842,-2,0,-4,-13,15,18,6,18
1523144771329842,-5,-2,7,9,47,-17,12,16
1523144771344881,-10,-8,-7,16,-16,11,-15,-12
1523144771344881,-2,2,-14,-10,-61,-13,1,-19
1523144771351127,3,3,-1,-18,-13,-14,-6,17
1523144771351127,13,1,7,22,60,8,19,11
1523144771374185,-3,-6,9,-11,18,13,-2,11
1523144771374185,-6,-2,-12,-10,-12,-10,-10,-4
1523144771374962,-3,-3,-10,-5,-16,10,-6,-22
1523144771374962,8,-1,40,-12,-35,-22,-10,-7
1523144771397043,-10,-5,-10,-12,25,2,8,7
1523144771397043,7,-2,-7,-19,10,-7,-12,1
1523144771397375,3,5,14,35,17,17,4,2
1523144771397375,-6,1,-22,1,-59,-14,-20,-26
1523144771419696,-1,1,7,-26,-10,-10,-1,13
1523144771419696,9,1,21,21,-6,-15,2,3
1523144771420700,9,2,-12,-37,-57,20,8,1
1523144771420700,-12,-3,5,13,71,3,-2,-30
1523144771434465,-4,-8,-14,-21,58,2,-9,-3
1523144771434465,14,10,7,87,49,19,17,29
1523144771435237,-2,-6,4,-11,-6,-21,-12,2
1523144771435237,-14,-4,-22,-10,-24,12,10,-32
1523144771456794,-6,-1,-4,-14,-32,-4,-6,-9
1523144771456794,-5,-1,-2,-10,24,3,-3,2
1523144771457877,-6,-1,4,5,7,1,-2,-6
1523144771457877,30,-8,18,-4,-14,-10,-4,20
1523144771479857,-33,1,2,16,67,-8,1,-8
1523144771479857,-3,3,7,-5,-7,28,14,6
1523144771480859,-10,-7,-6,5,13,2,-7,-6
1523144771480859,10,2,-24,-25,-26,-1,-1,19
1523144771495082,24,9,7,31,14,-1,4,26
1523144771495082,-3,0,2,-8,-29,-10,-7,-24
1523144771495586,-11,0,-4,-16,-18,-4,-5,-31
1523144771495586,5,0,0,2,-10,11,-3,9
1523144771516643,-3,-3,-6,-17,-73,11,9,0
1523144771516643,0,-1,-6,-13,-40,-13,-14,-9
1523144771517645,7,-2,-3,-2,50,-13,6,18
1523144771517645,-10,0,-4,-7,-46,-13,-5,2
1523144771539934,18,-1,0,8,20,26,9,4
1523144771539934,-8,2,-3,-2,2,-8,-3,5
1523144771540708,-11,-2,-13,0,1,-2,-10,-24
1523144771540708,6,-6,0,7,17,-12,-3,-12
1523144771554243,0,2,10,13,23,-5,14,48
1523144771554243,9,1,9,10,9,28,4,0
1523144771555410,-16,-4,-6,-4,-6,-10,4,12
1523144771555410,2,4,-9,2,34,-11,4,-11
1523144771576925,7,-3,-3,-6,10,19,-5,2
1523144771576925,-14,-10,-5,-7,1,-4,-1,-1
1523144771577804,8,-3,-1,-17,-6,5,-4,24
1523144771577804,-8,1,-6,10,17,-6,-8,-43
1523144771599863,-4,-7,0,1,96,0,6,14
1523144771599863,3,2,18,-6,32,9,9,20
1523144771600865,-6,3,-2,-4,-12,-3,-4,-14
1523144771600865,-5,-3,-8,-7,-67,-1,-11,-9
1523144771614494,6,0,-10,0,-6,-10,-4,3
1523144771614494,-5,1,-4,-16,-22,-8,-1,1
1523144771614903,-3,-4,6,26,5,-10,-2,-20
1523144771614903,2,2,0,0,14,15,5,2
1523144771636531,6,1,-12,0,-28,-21,-11,-23
1523144771636531,-20,-7,-1,-9,-25,-13,-5,2
1523144771637534,17,1,5,0,-11,-8,0,-4
1523144771637534,-27,2,3,2,18,6,5,7
1523144771660260,9,-1,1,3,-21,0,-6,-8
1523144771660260,-16,-2,-7,0,2,-12,-8,-20
1523144771660593,5,-3,-2,-5,-11,-1,9,5
1523144771660593,3,1,-5,-14,16,-12,-1,32
1523144771674395,-5,-1,3,5,-63,14,3,6
1523144771674395,7,-4,-8,-5,-39,-6,-8,-6
1523144771674898,1,0,5,-4,-15,-13,4,16
1523144771674898,11,1,4,1,-2,5,-1,1
1523144771696969,-8,4,9,9,37,15,2,-16
1523144771696969,6,-3,-4,-8,15,-4,-3,1
1523144771697739,-2,-2,-6,-16,-7,0,-6,-5
1523144771697739,0,-1,4,22,8,-2,1,0
1523144771719798,-2,-4,-5,-13,30,-14,-8,-10
1523144771719798,-8,0,-4,-17,-86,-11,-3,-3
1523144771721011,6,0,2,4,31,7,5,12
1523144771721011,1,-5,-3,-4,27,8,-1,3
1523144771734532,-21,-3,-1,-6,-81,-19,-6,-18
1523144771734532,20,-1,-5,-2,26,9,1,4
1523144771734838,-15,2,2,3,-1,2,-2,-6
1523144771734838,-9,-3,-3,-2,-22,5,-1,1
1523144771757008,14,1,-2,4,14,-1,4,4
1523144771757008,3,0,6,13,45,-4,4,6
1523144771757397,11,4,4,-1,-27,-5,-7,-3
1523144771757397,1,2,3,9,27,3,-4,-7
1523144771780184,-25,0,-5,-4,4,-8,0,-9
1523144771780184,28,11,14,17,58,5,1,6
1523144771780459,7,2,0,-11,-53,-2,3,14
1523144771780459,16,2,-1,1,4,-14,-11,-9
1523144771794205,14,8,11,26,51,-8,3,27
1523144771794205,-87,-33,-17,-9,91,3,9,-13
1523144771794999,55,16,6,24,59,17,3,13
1523144771794999,-54,-22,-9,-19,37,3,-6,-8
1523144771816780,2,-4,-2,25,11,-24,-11,-13
1523144771816780,28,11,-4,-44,-64,28,12,52
1523144771817557,16,17,15,19,77,-2,0,-5
1523144771817557,-23,-13,-8,13,13,9,5,-1
1523144771840118,19,0,5,-7,72,2,1,-14
1523144771840118,-20,-12,-22,-17,-43,6,-6,-8
1523144771840619,-22,-7,24,9,-7,-12,-7,-11
1523144771840619,29,15,-1,7,-3,-8,-1,-3
1523144771853655,-22,-6,-19,-23,16,13,-8,-16
1523144771853655,27,10,9,15,8,-6,21,54
1523144771861878,-17,-20,3,-19,-9,9,-4,-10
1523144771861878,8,2,11,13,14,-10,1,2
1523144771876791,-2,2,-29,-21,-32,-1,-8,-8
1523144771876791,5,3,2,7,32,-7,-5,-14
1523144771877844,-8,-3,-20,3,-4,-4,-4,-7
1523144771877844,3,2,-1,-11,-30,-6,-2,0
1523144771899994,-2,-5,9,22,-2,14,13,30
1523144771899994,12,5,3,5,51,7,-8,-29
1523144771900779,-16,-4,1,1,50,1,8,19
1523144771900779,4,0,-19,-21,-58,-3,-6,-10
1523144771913540,-2,2,8,-29,-55,-1,-6,1
1523144771913540,-1,-5,-10,10,11,-20,-17,-29
1523144771922061,-16,-8,-5,-12,-71,3,0,-2
1523144771922061,10,6,2,-5,-14,10,22,31
1523144771936877,12,2,2,-20,11,11,1,-7
1523144771936877,0,-5,11,3,-38,-15,-10,-14
1523144771937377,-10,-3,-15,5,74,-8,-4,-18
1523144771937377,-3,-4,-1,-22,-98,-4,-11,-9
1523144771960162,3,0,12,3,-3,-2,9,20
1523144771960162,-1,3,-20,5,23,-21,-21,-38
1523144771960994,-16,-4,0,-12,-6,10,-3,-6
1523144771960994,7,-4,-2,10,49,7,9,13
1523144771973700,-1,-7,1,-2,-13,3,7,26
1523144771973700,-4,16,31,13,46,-6,-4,-13
1523144771982030,-1,-7,-35,-27,-106,-17,-16,-25
1523144771982030,2,7,29,19,68,18,5,0
1523144771996761,0,-4,-12,34,12,-9,0,11
1523144771996761,6,-5,-11,4,-21,20,9,3
1523144772004054,-2,-1,5,-20,-20,-17,-5,8
1523144772004054,-15,-4,-24,8,-19,-16,-9,-18
1523144772019651,17,-2,18,4,34,28,-4,-17
1523144772019651,-35,0,-3,-1,1,0,3,6
1523144772020653,13,3,8,24,57,-2,5,2
1523144772020653,-2,-4,-9,-20,-81,-17,-7,-8
1523144772033881,-4,8,2,-6,-30,3,-4,3
1523144772033881,10,-12,-7,-5,-25,-8,9,37
1523144772041933,-7,-8,0,-3,-3,1,1,-6
1523144772041933,0,0,3,-14,28,-5,-9,-3
1523144772056974,-7,4,1,-1,-12,-20,-8,-30
1523144772056974,3,-1,-5,-7,-52,-2,-6,1
1523144772057750,7,5,12,28,100,30,14,16
1523144772057750,0,-2,-4,-11,-13,10,-2,-8
1523144772080036,4,-3,-4,-14,-71,-18,-5,-16
1523144772080036,4,-1,-12,-3,-7,-2,-5,8
1523144772080813,5,-4,-20,0,21,-14,-7,-11
1523144772080813,-8,1,34,10,-4,3,1,-1
1523144772093711,-6,5,-19,-13,41,18,4,2
1523144772093711,12,-7,13,7,-11,18,1,-10
1523144772101734,-1,4,1,3,-21,-8,-2,-7
1523144772101734,4,-2,-1,7,79,6,3,4
1523144772117102,-6,-9,-6,-4,-9,-32,7,46
1523144772117102,-3,10,3,-1,-36,-4,1,-6
1523144772117545,-6,-7,-3,3,-12,24,0,-2
1523144772117545,8,-1,-7,-12,49,18,-7,-7
1523144772140208,-5,-2,2,7,-21,-28,-6,-19
1523144772140208,4,-1,10,-2,15,21,4,14
1523144772140608,-14,-2,-8,1,8,-17,4,10
1523144772140608,-4,0,-12,-16,-103,-5,-7,-5
1523144772153640,-2,-3,-1,8,8,8,-3,-6
1523144772153640,-1,-3,-8,-13,1,-14,-3,4
1523144772161895,-8,1,-3,2,-23,-3,-5,-8
1523144772161895,6,1,0,13,38,-2,2,6
1523144772176713,-9,-4,8,-3,1,2,-4,-13
1523144772176713,1,-3,-4,-19,-21,-15,-2,-12
1523144772177481,9,0,2,3,-4,23,15,31
1523144772177481,-5,-4,-9,2,-10,-14,-15,-22
1523144772200255,-1,-4,-2,-11,-24,14,2,-6
1523144772200255,1,4,-1,15,-24,-4,2,16
1523144772200542,0,-1,-6,-9,-39,-8,-3,-9
1523144772200542,1,0,4,-28,-8,-7,1,4
1523144772222736,-2,-2,0,4,4,-3,-7,-9
1523144772222736,-1,-5,1,4,16,5,-5,-13
1523144772223102,4,4,4,-8,-23,0,-1,6
1523144772223102,-2,0,4,29,38,2,3,3
1523144772236679,-4,1,-5,-12,-46,-17,-7,-16
1523144772236679,-4,2,7,17,38,10,9,13
1523144772237818,9,-1,-1,-4,46,8,1,2
1523144772237818,-8,-1,-3,12,49,10,2,-6
1523144772259741,-3,-3,0,-8,0,6,-2,0
1523144772259741,0,2,0,4,13,-8,-3,-7
1523144772260743,2,-2,3,0,5,-8,-3,-4
1523144772260743,-5,-3,-3,-5,-2,-5,1,3
1523144772282506,0,0,1,9,20,-4,3,7
1523144772282506,6,2,1,-6,-17,2,0,-10
1523144772283302,-6,-6,-4,-8,-9,-21,-9,-19
1523144772283302,6,1,6,20,64,-3,10,22
1523144772296838,3,-3,-5,1,-7,13,-6,10
1523144772296838,-7,7,6,12,38,3,-9,-49
1523144772297340,-5,5,10,7,2,-13,18,71
1523144772297340,-5,-3,-13,-41,-61,-7,-21,-37
1523144772319900,5,1,-4,6,-31,-14,2,-1
1523144772319900,-6,0,1,-2,14,19,6,10
1523144772320902,-4,0,0,3,-11,3,-17,-16
1523144772320902,4,-1,-4,-12,50,4,7,11
1523144772342685,-3,1,1,13,89,12,6,-2
1523144772342685,2,-7,-6,-22,-27,-10,-11,-11
1523144772343463,-1,-1,2,3,-35,-11,1,-9
1523144772343463,-2,0,-16,4,-6,27,3,5
1523144772357081,0,1,16,2,11,-25,6,8
1523144772357081,3,1,3,12,18,17,10,18
1523144772357500,-7,-6,-1,-13,2,7,-5,-14
1523144772357500,5,1,-10,5,24,-10,-2,-2
1523144772380231,-4,-3,15,6,-21,2,-6,-12
1523144772380231,-7,-3,-32,-15,-16,-9,-2,4
1523144772380561,-1,-1,16,-7,-21,-5,-3,-13
1523144772380561,2,-8,10,-25,-31,-9,-1,-5
1523144772402620,6,11,4,13,3,13,17,49
1523144772402620,0,5,11,-7,-7,-12,-4,-9
1523144772403123,-2,-5,-23,-5,11,11,-7,-20
1523144772403123,-8,-5,-5,50,-11,-22,-15,-7
1523144772416882,-1,-3,8,8,88,12,10,-5
1523144772416882,5,-7,-2,-22,-80,-14,6,46
1523144772417856,2,6,-5,40,61,20,7,-7
1523144772417856,-2,4,6,-43,-89,-12,2,-6
1523144772440128,-8,-9,-20,-23,-27,-18,-11,-15
1523144772440128,0,-1,9,43,49,-4,2,1
1523144772440954,-3,-4,-6,-15,-21,26,4,-27
1523144772440954,4,6,11,15,14,-8,-2,11
1523144772462686,-3,-3,-6,-13,-50,22,-3,-10
1523144772462686,13,2,15,-14,-2,-5,-3,-2
1523144772462999,-10,-4,-8,-13,-17,-10,10,31
1523144772462999,-4,9,11,21,9,-3,-1,-3
1523144772476568,-17,-10,-4,-8,10,4,-9,-26
1523144772476568,2,-4,-7,-1,77,-1,-6,-7
1523144772477571,7,6,-3,-12,-86,-10,-6,3
1523144772477571,-4,-9,-10,11,24,-2,3,1
1523144772500141,15,6,4,8,-3,-3,9,22
1523144772500141,-12,1,10,-10,28,10,1,8
1523144772500632,3,-1,1,16,49,-16,-4,11
1523144772500632,-5,-1,-2,-4,-14,22,-1,-24
1523144772522415,2,-1,-9,1,4,3,-3,-6
1523144772522415,6,-3,5,-12,1,-13,-4,-6
1523144772523193,-15,-1,5,3,7,-4,1,5
1523144772523193,5,-2,-3,-8,-17,3,-1,8
1523144772536407,-3,-4,-5,-3,16,-18,-11,-19
1523144772536407,-2,-3,-5,1,-34,14,-1,-4
1523144772537411,2,-4,-5,-8,-22,-13,-6,-8
1523144772537411,2,2,17,1,76,14,1,10
1523144772559970,5,0,-10,-19,-54,-14,-4,-12
1523144772559970,-3,0,-11,1,1,-10,1,17
1523144772560472,0,-4,-1,-42,-51,-3,-7,-18
1523144772560472,-1,-4,-14,-3,30,2,5,8
1523144772582731,-5,4,12,8,8,6,0,3
1523144772582731,-12,-8,-11,-15,-22,-8,-13,-33
1523144772583032,2,1,-8,-32,-14,1,-1,-19
1523144772583032,10,5,3,12,-65,-17,-1,30
1523144772605267,0,5,-3,-2,-14,-4,4,8
1523144772605267,-1,-4,-7,0,2,7,2,-11
1523144772605593,3,0,5,3,27,-7,-8,-8
1523144772605593,-6,-3,-14,-2,-50,-18,-1,-9
1523144772619631,0,-6,0,-20,-14,4,-5,0
1523144772619631,-11,1,4,11,-17,-16,0,-2
1523144772620633,10,-2,1,20,22,8,-1,2
1523144772620633,-3,1,8,-14,81,3,1,-4
1523144772642411,-4,-2,-7,-10,-43,1,-1,0
1523144772642411,2,-5,-3,1,28,3,1,3
1523144772643192,-5,-3,-5,14,59,1,-2,-2
1523144772643192,-2,0,6,28,-29,8,2,-3
1523144772656953,-4,-1,-1,-2,18,-2,0,0
1523144772656953,1,0,4,10,18,-6,-5,-10
1523144772657228,6,3,-2,-10,-13,9,17,8
1523144772657228,2,-7,-8,-7,25,17,3,8
1523144772680015,0,0,4,9,15,15,-2,-11
1523144772680015,-1,-1,-4,20,45,-3,1,-1
1523144772681913,-1,-1,8,10,8,-14,-5,11
1523144772681913,-3,-1,0,-9,23,-5,-2,-7
1523144772702349,-1,-3,-15,-9,-16,-15,-5,-2
1523144772702349,-2,0,4,0,2,10,-2,-8
1523144772703853,-2,0,1,-14,-80,8,0,-2
1523144772703853,-1,-4,-4,-7,20,10,5,-1
1523144772716407,1,2,0,13,51,-4,0,1
1523144772716407,2,0,-2,-9,-31,-8,0,4
1523144772724909,-3,-3,-2,-3,-10,1,-3,-2
1523144772724909,5,3,-1,8,-15,-12,-3,-1
1523144772740175,-3,-2,-3,-17,-67,11,-5,-7
1523144772740175,-5,-17,-16,-17,-36,2,1,1
1523144772741455,8,12,16,33,103,25,8,5
1523144772741455,2,-3,0,5,35,16,4,0
1523144772762509,-14,-3,2,5,64,-2,1,4
1523144772762509,20,11,6,6,-47,-7,-4,-6
1523144772764014,-13,-9,-7,21,-9,-12,-7,1
1523144772764014,-2,-3,-2,7,4,-12,-6,-7
1523144772776304,12,8,0,-40,-96,-18,-4,-16
1523144772776304,-1,3,7,26,47,-9,-5,33
1523144772784828,-8,-2,-1,-6,84,-4,17,8
1523144772784828,-1,-4,-5,16,21,32,-1,13
1523144772799561,-13,-3,-5,2,6,9,2,1
1523144772799561,3,4,1,-1,4,-18,-15,-18
1523144772806388,8,3,10,25,34,-5,-2,-5
1523144772806388,-2,4,-1,-16,-12,-23,4,5
1523144772822642,-10,-12,-18,-29,-48,33,-6,-11
1523144772822642,-3,-3,-3,8,78,8,4,-4
1523144772823932,-3,1,-28,-18,-24,-9,-7,-3
1523144772823932,-1,-7,21,14,17,-4,9,1
1523144772835964,5,0,-24,14,12,5,-5,-1
1523144772835964,-5,-7,56,-42,-127,-17,0,-5
1523144772844988,-1,2,-2,11,-24,19,8,29
1523144772844988,-2,-5,-66,-42,-65,-27,-10,-4
1523144772859609,-1,5,10,15,93,-16,-13,-22
1523144772859609,-7,-13,7,-37,-43,-15,2,-4
1523144772866043,9,14,14,-13,-44,27,3,10
1523144772866043,-5,-3,12,-15,-4,-4,-1,-22
1523144772882684,4,8,-4,19,-3,-17,8,26
1523144772882684,-5,-2,-51,-3,74,6,-2,-10
1523144772884317,-6,-12,11,-27,-29,-37,-24,-28
1523144772884317,-1,4,25,35,-2,8,-5,-16
1523144772896124,3,-6,-6,-21,-20,0,9,24
1523144772896124,0,7,1,9,3,23,10,-1
1523144772905147,-5,-9,-3,22,-47,-10,-3,-8
1523144772905147,3,3,-7,1,-14,24,3,9
1523144772919185,0,-3,19,30,67,-10,-7,-15
1523144772919185,4,1,2,6,-2,6,6,-1
1523144772926383,-4,-5,-13,1,6,-14,2,8
1523144772926383,-10,-2,0,-26,-43,5,-8,-16
1523144772942880,5,-1,12,5,22,-10,12,24
1523144772942880,-2,5,-8,6,-14,20,-4,-8
1523144772944479,1,-3,-8,-15,28,-24,-10,-27
1523144772944479,9,3,10,6,60,8,14,47
1523144772956283,2,0,8,22,54,2,-4,-12
1523144772956283,-4,0,-6,-5,-39,10,1,2
1523144772965325,-5,-2,5,-2,39,-7,-4,-15
1523144772965325,-4,-2,0,-4,-6,19,-1,-2
1523144772979408,-6,-6,-12,-17,-58,0,0,-2
1523144772979408,6,4,0,16,14,-16,-7,-12
1523144772985863,-11,-7,-5,-17,-3,-10,-9,-14
1523144772985863,1,0,3,-22,-1,3,17,48
1523144773002407,-2,0,-4,28,-24,-13,-3,-9
1523144773002407,4,-2,-1,-21,5,10,3,1
1523144773003911,-9,-2,-11,-6,-24,-12,2,3
1523144773003911,7,3,0,6,-20,-2,-1,-1
1523144773016170,9,1,24,6,67,11,6,-7
1523144773016170,-9,-9,-4,6,0,15,-6,3
1523144773024966,9,6,-6,2,26,-1,-1,1
1523144773024966,2,5,9,13,-29,-6,3,7
1523144773047757,-2,-3,-10,-3,44,19,2,3
1523144773047757,-3,-1,-13,-5,-34,3,3,3
1523144773049262,2,2,8,-16,-17,5,1,-3
1523144773049262,-6,-2,-2,6,-67,-18,-21,-29
1523144773062566,-1,4,-1,-2,-51,-5,6,4
1523144773062566,-2,7,2,38,22,-12,4,11
1523144773064070,4,-2,-1,-13,6,40,9,9
1523144773064070,-1,-1,-11,-19,-26,-20,-12,-17
1523144773084624,-2,-1,-4,0,7,8,-7,8
1523144773084624,-11,-4,-5,-7,3,6,1,-7
1523144773086632,0,-4,-1,4,-19,-13,2,13
1523144773086632,-4,0,-4,1,22,-4,-5,-26
1523144773099902,-2,-1,-5,-7,-16,-9,0,-3
1523144773099902,2,3,8,7,19,-10,0,18
1523144773101725,-4,-2,-10,-11,-19,7,-9,-19
1523144773101725,-3,-1,5,10,29,-6,8,14
1523144773122741,2,2,-1,3,-16,1,0,-3
1523144773122741,-3,-4,-1,-11,25,14,-2,-9
1523144773123730,-2,0,6,-3,4,11,2,4
1523144773123730,1,2,1,5,0,-11,-1,-9
1523144773144786,-4,-3,-8,-7,2,-13,-3,-8
1523144773144786,3,-1,-1,-3,14,0,-1,8
1523144773146289,-2,1,-3,1,-8,4,6,3
1523144773146289,0,-8,-10,-13,42,-6,-8,-17
1523144773159825,-1,0,8,-3,-24,8,-9,-19
1523144773159825,-8,3,-2,-14,-71,-11,4,12
1523144773161897,3,-3,-3,15,-7,-10,-5,1
1523144773161897,0,7,5,5,-8,9,3,0
1523144773182619,-2,-8,-2,-13,-14,0,-4,-9
1523144773182619,-4,3,1,-7,33,-11,-5,2
1523144773183889,2,-2,7,30,17,-1,1,-9
1523144773183889,0,0,-4,-22,-12,-11,-2,4
1523144773204968,-3,-4,-3,12,62,0,3,8
1523144773204968,4,-1,1,17,8,4,3,6
1523144773206474,-3,-2,5,-1,27,5,-2,-2
1523144773206474,-5,-4,-6,-11,-15,-2,-5,-9
1523144773220011,0,0,-1,-16,-33,-4,-1,4
1523144773220011,1,-1,-3,15,63,-6,-1,-12
1523144773221515,-1,-3,0,-7,23,5,-4,-5
1523144773221515,0,-7,16,16,34,15,20,32
1523144773242652,0,5,6,-9,-41,-9,-8,-3
1523144773242652,-1,-1,-1,1,63,-6,-7,-12
1523144773244075,-3,-5,-11,0,-9,0,2,7
1523144773244075,0,3,-3,9,-16,-1,-11,-13
1523144773265166,0,-2,3,0,38,9,7,4
1523144773265166,-2,-6,-15,-10,-15,-10,-2,-4
1523144773266635,3,2,12,-7,-13,-3,-3,3
1523144773266635,1,-3,-10,-3,7,5,0,-4
1523144773279391,-12,-7,-5,-7,-26,-5,-3,-3
1523144773279391,8,0,-5,-17,-62,-2,-2,-7
1523144773286186,17,5,3,6,-2,-9,-6,13
1523144773286186,-19,-8,2,6,97,2,-1,-7
1523144773302230,0,-4,-12,4,-31,-12,-17,-44
1523144773302230,0,1,2,5,-40,-5,18,29
1523144773303738,2,6,7,-7,-10,-10,-7,-19
1523144773303738,16,6,-4,-21,-71,-1,1,53
1523144773325291,-5,0,-6,-2,-47,12,-7,-89
1523144773325291,14,3,8,15,52,-8,-5,26
1523144773326918,-36,-6,4,0,-25,-10,6,-13
1523144773326918,9,-5,3,1,1,8,2,26
1523144773338885,2,5,1,6,6,-17,6,32
1523144773338885,-4,2,-14,-19,-12,12,-4,-35
1523144773347850,3,-10,0,-22,-42,6,-9,-27
1523144773347850,1,10,-23,23,-59,-39,-7,-4
1523144773362614,-6,-19,38,9,17,32,11,32
1523144773362614,2,7,4,-9,9,13,0,7
1523144773363893,0,-3,-4,-5,21,6,1,9
1523144773363893,-10,-6,-21,-20,-10,-1,-8,-25
1523144773384950,10,10,-5,41,96,0,4,10
1523144773384950,-7,-7,1,2,-86,-7,-2,-26
1523144773386454,3,3,-6,6,3,3,10,38
1523144773386454,-3,-2,7,-7,-20,5,-5,-16
1523144773398673,0,5,2,-3,7,-10,-1,4
1523144773398673,-7,-7,-4,-9,-5,-8,-7,-10
1523144773413711,6,4,12,2,72,12,3,6
1523144773413711,1,-2,1,-5,21,7,8,13
1523144773422692,-2,-1,-8,-5,-15,-13,-3,8
1523144773422692,-6,-2,-2,4,-7,-4,-2,-14
1523144773424054,6,2,1,30,73,8,15,25
1523144773424054,-9,-8,3,-18,-33,8,-7,-29
1523144773445205,-2,5,-18,-13,-37,0,2,-2
1523144773445205,-6,-17,5,6,28,-8,-11,-15
1523144773446799,3,9,6,-6,-50,-27,-4,-10
1523144773446799,5,1,8,6,43,14,21,10
1523144773458819,1,-1,-11,-3,-4,-1,-11,1
1523144773458819,5,3,7,3,34,3,1,5
1523144773467670,4,-2,-5,-19,-13,3,-9,-40
1523144773467670,13,5,5,31,10,-12,7,19
1523144773482395,-10,-1,-1,-3,-35,-1,-1,12
1523144773482395,2,1,-9,-2,-13,-2,-3,-17
1523144773484213,4,-1,2,8,90,5,-3,7
1523144773484213,-10,-6,-7,-12,-37,-10,-19,-76
1523144773504953,6,2,8,22,68,7,15,31
1523144773504953,3,1,0,-7,-2,6,9,20
1523144773506272,-5,1,-20,1,-21,1,-5,3
1523144773506272,-3,-6,13,-18,-75,-1,-2,-5
1523144773519308,-7,-5,13,-9,-12,-2,-10,-12
1523144773519308,-7,2,4,13,0,4,-2,-6
1523144773525888,2,-4,-9,-2,-47,-5,5,23
1523144773525888,-6,-2,-10,6,44,-12,-3,0
1523144773542604,2,-1,-2,-31,-15,-20,-10,-4
1523144773542604,-2,2,10,22,14,15,6,17
1523144773543922,-6,-2,-15,-5,-31,-5,-4,-15
1523144773543922,-1,3,9,-1,35,7,3,14
1523144773565236,1,-6,-6,5,16,-10,5,27
1523144773565236,-2,4,-3,-23,11,-9,-8,0
1523144773566829,-3,-7,1,0,57,5,-2,5
1523144773566829,1,-1,1,25,96,0,0,-10
1523144773579462,-1,-4,-5,-26,-31,21,1,6
1523144773579462,5,4,-9,-3,-4,-14,-5,4
1523144773585794,-3,-5,7,-1,-18,-1,-2,-2
1523144773585794,-5,4,11,19,14,-5,1,11
1523144773602338,-2,0,-6,-6,-5,4,0,-11
1523144773602338,0,-5,-12,2,-13,7,4,7
1523144773603842,-3,-1,-4,-7,-17,-17,-6,3
1523144773603842,-4,-1,-1,-34,-41,1,-4,-22
1523144773625616,1,-1,-9,20,-59,-13,-5,-9
1523144773625616,-6,-1,4,-18,42,8,7,-11
1523144773626938,-1,2,1,-21,-92,4,1,-1
1523144773626938,2,-3,-10,-9,-38,-13,-8,4
1523144773638652,4,-3,-5,-15,-21,5,0,26
1523144773638652,-3,-5,-7,-9,-26,-10,-5,-33
1523144773647492,-5,0,-5,3,9,-15,-10,-31
1523144773647492,1,0,2,25,9,-5,0,19
1523144773662669,-3,-4,1,-25,62,1,8,-1
1523144773662669,-3,-2,1,8,-29,16,-10,-4
1523144773664036,2,1,3,12,29,8,10,16
1523144773664036,-1,-3,-13,-14,34,7,6,16
1523144773685103,4,3,7,7,38,-4,-6,-12
1523144773685103,-1,-3,-4,6,-2,5,0,11
1523144773686596,-2,-4,0,-1,-8,6,1,-11
1523144773686596,-1,1,-5,1,19,8,-4,-3
1523144773698814,-1,-2,-2,-6,-39,-12,-4,-4
1523144773698814,-5,-1,8,4,5,-9,-1,-8
1523144773707652,-2,-2,0,3,-5,2,2,24
1523144773707652,1,1,-10,-15,-9,9,4,5
1523144773722691,0,2,0,15,9,0,-2,-11
1523144773722691,-1,-3,-5,-14,-29,-11,-1,3
1523144773723693,1,-2,0,2,62,2,-1,-4
1523144773723693,-2,-4,-4,-24,-93,-15,-8,-4
1523144773744935,-6,2,1,10,37,1,3,-9
1523144773744935,3,-3,-3,-10,-33,1,1,12
1523144773746855,2,6,4,13,70,-12,-6,0
1523144773746855,-7,-7,-2,-2,-19,15,2,-6
1523144773758472,9,0,4,5,19,16,0,8
1523144773758472,8,3,1,2,14,-8,1,18
1523144773767311,1,-4,-3,-2,-31,-20,-8,-20
1523144773767311,-43,-7,-3,-3,12,9,-3,-19
1523144773782541,-4,2,0,0,-7,-14,2,-26
1523144773782541,-1,-4,-3,-1,28,19,-1,-31
1523144773783854,5,-8,-8,-11,-43,18,0,-1
1523144773783854,-2,4,6,9,13,7,6,24
1523144773805096,8,7,2,-7,-45,-17,3,10
1523144773805096,-3,-7,1,27,80,-10,0,9
1523144773806414,-2,1,-3,4,-25,-23,-6,-10
1523144773806414,22,0,-2,0,-21,10,3,-4
1523144773818447,1,3,-1,-8,-19,-6,-7,-2
1523144773818447,-7,-2,0,-10,-4,-18,-1,-7
1523144773827471,5,4,3,2,-6,12,8,15
1523144773827471,0,-6,7,1,-15,-14,-9,-8
1523144773842511,-2,4,4,19,36,7,5,3
1523144773842511,-8,2,-41,-23,0,-7,-17,-20
1523144773844016,-2,-10,53,33,79,11,-1,-5
1523144773844016,0,10,5,-10,11,-2,-6,-6
1523144773865184,-4,-7,-20,9,-35,-9,-5,-17
1523144773865184,10,8,6,-49,5,19,22,47
1523144773866575,-7,2,-4,-13,-20,2,-8,-5
1523144773866575,1,-19,11,21,8,4,-5,-8
1523144773878792,0,0,5,-36,39,4,4,7
1523144773878792,-10,-4,10,22,-9,-18,-21,-24
1523144773887632,0,1,-57,-83,-109,-19,-1,9
1523144773887632,1,3,4,69,9,13,-1,-20
1523144773901670,7,3,16,-12,82,28,20,58
1523144773901670,8,0,-18,-7,-27,3,2,-39
1523144773908868,-32,-8,-5,-19,-54,-9,-9,-34
1523144773908868,9,1,3,23,41,-23,-14,-17
1523144773924915,6,0,-12,-35,56,2,12,24
1523144773924915,-1,1,12,-7,-88,-8,-1,8
1523144773926844,8,-1,6,40,-1,17,3,5
1523144773926844,-2,2,-4,-31,3,3,0,-2
1523144773938816,-12,-3,-12,5,9,-17,-11,-22
1523144773938816,12,-3,13,-2,27,9,1,-2
1523144773947854,-8,1,-4,6,-2,0,9,31
1523144773947854,17,6,-9,-21,-18,-15,10,22
1523144773962519,12,-3,5,20,-50,-6,-13,-17
1523144773962519,-31,-6,-22,-3,1,-7,-14,-19
1523144773964343,11,-4,-3,1,15,0,19,32
1523144773964343,1,11,10,-11,18,-2,6,7
1523144773984890,0,-9,7,17,52,1,-9,-7
1523144773984890,-1,3,5,5,-73,15,-3,-8
1523144773986394,-3,-2,-6,-2,51,-13,-2,-28
1523144773986394,5,-4,-14,-23,-63,4,-5,4
1523144773998608,-31,-3,-8,6,-30,-2,2,13
1523144773998608,7,0,1,16,11,-16,-5,-1
1523144774007450,9,0,22,3,-48,5,-3,2
1523144774007450,-1,3,-9,-14,-18,-10,10,29
1523144774022044,-8,-1,2,6,-29,-10,-10,-25
1523144774022044,2,4,1,10,13,-10,10,33
1523144774028688,-4,-1,-4,-20,-3,9,-9,-5
1523144774028688,-7,-4,-5,8,28,-14,-7,-38
1523144774045193,11,-3,-5,-1,-46,3,1,22
1523144774045193,8,1,16,9,86,11,12,24
1523144774046554,7,2,-18,20,7,17,-1,16
1523144774046554,-19,-2,2,-7,-14,16,-11,-78
1523144774058768,2,-3,9,6,-4,-5,3,3
1523144774058768,1,-3,-7,-7,-25,-13,-5,0
1523144774073626,-9,-2,-11,-9,-31,-21,-14,-19
1523144774073626,1,2,0,25,12,-4,6,35
1523144774082694,6,2,2,-16,-48,18,5,-4
1523144774082694,3,-3,2,11,19,0,-1,-22
1523144774084155,-4,1,7,1,83,6,1,-2
1523144774084155,-1,-1,0,6,-21,-8,-6,-8
1523144774104891,3,-1,-10,-7,44,-5,0,-6
1523144774104891,-6,-1,-1,-11,-25,6,0,-13
1523144774106212,2,1,15,11,15,-16,-4,-11
1523144774106212,5,-6,-14,-14,-5,-8,0,13
1523144774127454,-7,1,9,8,19,19,4,9
1523144774127454,3,1,-2,8,7,4,4,10
1523144774129346,-4,-1,-3,-9,-34,-7,0,3
1523144774129346,1,-2,3,26,-14,0,-2,-16
1523144774142310,-4,0,-3,-6,-20,-14,-11,-11
1523144774142310,-2,-2,-3,3,3,-7,-3,2
1523144774143813,0,1,2,-4,-13,4,2,-10
1523144774143813,0,-3,4,-1,28,16,6,44
1523144774165107,0,1,-8,2,-28,0,-3,-25
1523144774165107,-1,-1,3,6,36,4,5,9
1523144774166615,1,-2,-7,-6,-2,1,-2,5
1523144774166615,-1,-2,0,-5,92,-10,-1,-13
1523144774187353,-1,0,3,-3,-48,16,3,-4
1523144774187353,-2,-4,-12,-12,7,5,-2,9
1523144774189174,4,1,-7,7,-7,25,2,0
1523144774189174,1,-4,13,-20,1,-17,1,-2
1523144774202895,-4,0,-1,14,4,0,-1,5
1523144774202895,-1,2,9,-14,-75,2,2,12
1523144774204214,0,-3,-10,-5,-13,-9,-4,-10
1523144774204214,2,0,-8,-4,-27,-1,-5,0
1523144774224953,-7,-5,-11,-7,12,-8,-5,-11
1523144774224953,3,1,11,10,11,-3,-2,-2
1523144774226805,-4,-2,-5,-8,2,-10,0,3
1523144774226805,-1,-3,-1,-5,-3,2,-2,7
1523144774247562,4,3,2,3,-10,-6,0,-12
1523144774247562,-7,-3,-5,16,6,-7,1,0
1523144774248881,4,0,5,-3,53,25,10,24
1523144774248881,1,2,1,0,-5,-3,-7,-22
1523144774270123,-11,-5,-8,-11,16,-10,-11,-13
1523144774270123,4,0,7,2,-7,-13,3,4
1523144774271443,7,3,2,2,4,-15,15,45
1523144774271443,2,-2,-3,5,-2,14,-3,-1
1523144774284979,-5,2,2,-1,2,-8,-1,0
1523144774284979,-3,-7,-5,-8,-11,-4,-12,-19
1523144774286482,-1,1,1,2,-2,-15,-8,-17
1523144774286482,4,6,2,-2,5,-7,4,18
1523144774307539,2,-4,0,16,10,0,1,-2
1523144774307539,-16,-9,-9,-25,8,7,7,23
1523144774309230,6,3,0,5,20,23,1,-34
1523144774309230,-13,-3,-8,-8,-91,-3,-1,-10
1523144774321760,6,-3,1,-1,-12,2,-2,11
1523144774321760,9,3,0,-8,52,-3,-4,-4
1523144774328778,-12,-10,-6,5,5,1,-6,-14
1523144774328778,21,11,5,-20,-23,-7,-10,-1
1523144774345137,-8,-9,-11,8,68,0,10,8
1523144774345137,9,6,14,30,-71,11,23,50
1523144774346642,0,6,9,-17,1,-17,-9,-26
1523144774346642,-2,1,-12,2,92,26,7,3
1523144774367464,2,-2,9,-9,-57,-7,6,13
1523144774367464,5,2,-2,17,32,17,-9,-14
1523144774368966,-8,1,-4,7,-1,-19,-7,0
1523144774368966,-14,-12,-16,-1,-43,-3,-6,-2
1523144774382000,1,4,2,-14,-34,2,-2,-3
1523144774382000,-6,-2,-4,-6,-4,-10,-2,-9
1523144774396039,0,0,-7,-4,-25,9,1,11
1523144774396039,-4,-1,4,2,32,-6,-2,-1
1523144774405201,-1,5,4,8,22,-4,-1,0
1523144774405201,3,-2,-7,-20,-15,-5,-7,-11
1523144774406569,-6,-1,2,-20,-88,-9,-5,-14
1523144774406569,-1,3,-2,71,59,8,8,-3
1523144774427762,4,4,26,-25,-39,18,2,19
1523144774427762,2,2,14,-16,42,-3,11,24
1523144774429353,-4,-1,-22,-15,-51,-8,-9,1
1523144774429353,-11,-12,-18,-61,-18,-12,-11,-27
1523144774441359,7,2,19,83,27,-15,9,17
1523144774441359,0,9,-3,-11,21,51,4,-6
1523144774449950,-3,-9,23,5,-32,-17,-10,-15
1523144774449950,-3,5,-6,-17,37,-9,-6,1
1523144774465195,-5,-4,-14,-15,16,-13,2,-40
1523144774465195,-4,-7,-11,-10,-16,-22,-11,-6
1523144774466494,-2,5,0,12,48,4,7,13
1523144774466494,15,4,-12,4,-2,9,5,10
1523144774487767,-9,0,14,-18,15,6,-3,-5
1523144774487767,5,4,0,21,8,-16,-4,2
1523144774489054,4,-5,-4,1,13,8,-8,2
1523144774489054,-34,-4,3,-3,9,13,7,-54
1523144774501089,17,4,-9,3,-10,6,10,45
1523144774501089,9,0,-1,-28,64,20,-9,-21
1523144774510110,-20,-5,-1,30,20,-1,4,14
1523144774510110,4,-4,16,-10,-21,-22,-12,7
1523144774525163,-5,-10,-8,-16,11,15,-9,-12
1523144774525163,-6,-1,-3,9,-9,-2,2,-14
1523144774526672,10,0,-1,1,43,4,7,-1
1523144774526672,-6,1,12,20,6,3,-6,4
1523144774547747,-5,-3,-12,-52,-97,-10,-15,-59
1523144774547747,7,-4,-6,34,10,-10,10,45
1523144774549399,5,5,9,1,47,2,4,-4
1523144774549399,2,-2,-10,35,1,4,8,16
1523144774560993,-3,-4,-13,-2,22,-10,-12,-16
1523144774560993,-8,-1,18,2,-25,-11,-7,-10
1523144774569785,7,2,-9,3,-13,-9,7,-5
1523144774569785,2,-3,-2,-11,1,21,2,29
1523144774585101,0,5,-1,-2,20,9,2,7
1523144774585101,-5,-6,-8,5,-2,-9,-2,-17
1523144774586605,-6,-2,13,0,-3,4,-5,-2
1523144774586605,5,1,6,5,-2,-17,-6,7
1523144774607754,3,2,-11,13,54,3,8,18
1523144774607754,-8,-9,-1,-35,-83,6,-5,-6
1523144774609164,-5,-4,-10,-3,13,-4,-5,-7
1523144774609164,0,0,3,-14,-48,3,4,-1
1523144774621196,5,2,-1,18,38,-5,-1,4
1523144774621196,-13,-3,-10,-15,-56,-16,-2,-9
1523144774629796,5,1,4,-5,10,16,9,-25
1523144774629796,2,-2,3,23,18,-1,-8,-4
1523144774645044,-9,3,-2,-10,-20,3,1,11
1523144774645044,8,4,-1,13,76,-19,1,1
1523144774646876,-2,-2,-8,0,-25,22,0,1
1523144774646876,-1,0,7,-8,12,11,6,5
1523144774667398,-2,-5,-9,10,33,-5,-6,-8
1523144774667398,-6,-5,2,-7,14,5,-10,-10
1523144774668901,-2,0,-3,-16,-35,-20,0,-3
1523144774668901,2,1,-1,8,48,2,9,8
1523144774681416,0,1,-7,-1,-2,-1,4,20
1523144774681416,-2,-1,2,1,-11,1,-1,-9
1523144774690224,0,-5,-2,-4,12,-6,-4,3
1523144774690224,-2,-2,4,-8,9,-6,-7,-4
1523144774704994,-2,-10,-5,-20,-51,2,-3,-9
1523144774704994,-2,1,-16,1,12,-2,3,6
1523144774706770,1,1,8,10,-12,-2,1,4
1523144774706770,3,0,-1,-9,12,2,-3,1
1523144774727824,-5,0,2,11,-4,-4,-3,-5
1523144774727824,4,-1,-3,-2,-18,12,-7,-14
1523144774729379,-3,-1,-2,-3,11,-4,4,15
1523144774729379,4,-1,1,-14,-40,-2,1,6
1523144774741082,-4,0,-1,0,-2,-11,-4,-14
1523144774741082,-9,-2,1,-1,-11,-10,-2,5
1523144774749883,-2,-1,-4,-11,-51,-11,-11,-14
1523144774749883,-23,-4,-4,-6,-35,1,-2,-14
1523144774765149,9,2,4,-1,-4,-3,6,-5
1523144774765149,1,-6,-4,2,26,9,1,20
1523144774766428,28,2,-1,7,13,13,-5,5
1523144774766428,-37,-5,-6,-8,-17,2,5,-15
1523144774787484,37,1,5,6,6,-9,-2,12
1523144774787484,-16,-1,3,0,-8,-20,-3,-14
1523144774788988,0,-3,-2,8,52,20,6,13
1523144774788988,2,-5,-3,-6,34,-5,-9,-14
1523144774801020,-2,3,4,-3,11,1,7,19
1523144774801020,3,2,0,-19,-7,11,-5,-14
1523144774810044,9,1,-12,6,-37,0,0,6
1523144774810044,-6,-2,8,9,44,-1,-1,2
1523144774824445,-14,-2,-1,7,-19,-12,-10,-12
1523144774824445,18,10,3,-21,-46,5,1,10
1523144774831103,-21,-3,-12,-10,13,-10,-6,-18
1523144774831103,23,11,23,8,-16,-6,4,9
1523144774847629,-19,-13,-14,-9,-29,1,1,11
1523144774847629,-7,2,6,7,11,0,1,-8
1523144774849464,-9,0,-1,-18,-80,-26,-4,-2
1523144774849464,6,-7,-9,3,-22,-6,-5,-2
1523144774861181,6,12,6,-3,12,14,0,-17
1523144774861181,7,0,-22,-9,-27,-7,1,11
1523144774869979,-2,-4,22,28,61,6,13,7
1523144774869979,-1,5,-7,-4,-3,-1,1,2
1523144774884017,1,0,2,-3,3,4,-5,-6
1523144774884017,9,2,-16,7,-4,-7,-13,-27
1523144774891343,-16,-12,13,-2,-17,-8,-1,0
1523144774891343,17,6,-15,17,18,2,-1,10
1523144774907580,-7,-7,8,-45,-38,2,-1,9
1523144774907580,-7,2,2,16,34,-5,6,2
1523144774909362,1,-4,-15,1,25,16,-4,-2
1523144774909362,0,-6,0,-28,-38,-10,0,-3
1523144774921162,-8,4,0,24,39,8,-2,-8
1523144774921162,-1,2,-12,1,-60,-9,-8,-11
1523144774930410,2,-8,13,16,32,3,3,-2
1523144774930410,2,2,3,-14,7,7,12,33
1523144774944233,3,-4,-16,-13,-38,-12,-4,-11
1523144774944233,-4,-4,5,1,9,39,26,41
1523144774951022,-1,1,-10,-15,-4,28,-14,-19
1523144774951022,-4,-1,-2,-11,-4,-16,-8,-37
1523144774967569,5,0,5,-9,-33,-23,5,39
1523144774967569,-12,-6,2,24,19,2,-1,-15
1523144774969071,2,2,-11,-17,-20,-1,-1,-4
1523144774969071,17,-9,-7,-10,-27,5,-4,5
1523144774981102,-26,5,-9,-2,23,9,-1,-22
1523144774981102,11,-12,9,-3,14,-7,-5,3
1523144774990126,-8,6,4,-6,18,-9,4,4
1523144774990126,0,-1,-7,-1,-16,-20,-17,2
1523144775004394,7,0,7,7,20,9,2,2
1523144775004394,-12,-1,6,20,22,-7,-10,-23
1523144775010960,2,1,-8,16,-21,-3,9,19
1523144775010960,-7,0,1,-47,6,9,4,-10
1523144775027571,16,-1,12,56,51,14,5,19
1523144775027571,-4,-4,-5,-14,18,-8,-7,-12
1523144775029010,-17,2,1,-9,-65,-6,-7,2
1523144775029010,4,2,4,8,-26,-20,0,8
1523144775050071,-5,-12,-18,0,4,16,-4,-16
1523144775050071,1,1,18,-18,-52,-15,-10,-8
1523144775051568,3,-3,-4,1,-9,-17,-6,-8
1523144775051568,2,4,15,4,7,20,21,33
1523144775064604,-7,0,-7,-10,-2,-14,-8,-13
1523144775064604,-4,4,-25,11,9,-4,3,10
1523144775071120,10,-6,13,-15,20,1,-13,-29
1523144775071120,-8,-2,-3,14,1,0,-1,6
1523144775087673,8,-2,-4,-14,-68,-13,-5,-7
1523144775087673,5,4,2,6,33,26,26,22
1523144775089168,-9,1,0,8,19,3,-3,-9
1523144775089168,-1,-2,-10,-5,-64,9,-4,-8
1523144775109954,-2,-3,16,5,65,-11,-6,0
1523144775109954,4,0,-15,-1,-71,-16,-8,-1
1523144775111838,-13,-3,11,4,30,5,1,12
1523144775111838,-6,3,2,2,15,-11,-8,-43
1523144775124966,6,2,-10,-5,41,-3,1,4
1523144775124966,-2,-5,3,-15,-17,22,9,-1
1523144775126874,9,-1,-6,-4,8,0,3,0
1523144775126874,-21,2,0,61,57,-5,-2,16
1523144775147323,-1,-3,8,21,37,3,-10,-19
1523144775147323,-6,0,18,-10,45,-16,-3,-5
1523144775148828,2,9,-4,-5,-42,3,6,12
1523144775148828,11,-5,-5,0,1,-7,-2,-6
1523144775170113,-10,1,0,-10,-15,-7,-10,-1
1523144775170113,6,2,11,4,18,17,6,4
1523144775171387,-4,-3,-17,-16,18,1,2,4
1523144775171387,-4,1,18,0,-2,2,-2,-7
1523144775184423,-6,1,3,5,-29,-5,0,4
1523144775184423,-4,-5,-10,-8,-23,2,-9,-10
1523144775191144,6,3,-7,-7,25,-10,-3,-2
1523144775191144,1,-1,-9,-14,-1,-8,-1,-1
1523144775207739,-1,-3,-10,9,10,2,3,1
1523144775207739,9,1,7,-6,-21,-12,1,4
1523144775209246,-18,5,4,21,-4,-5,6,1
1523144775209246,2,-3,-3,12,-11,7,-7,2
1523144775230110,-2,-4,2,-33,-9,19,7,-3
1523144775230110,4,0,-3,27,25,-10,-7,-4
1523144775231805,7,-5,0,-5,-4,-13,-1,6
1523144775231805,-3,-6,-8,-32,-40,-3,-1,-8
1523144775244611,-3,4,7,1,-54,-1,-7,-14
1523144775244611,-4,-2,-11,-13,-13,-8,-1,2
1523144775251125,6,-1,-13,-16,-76,-6,2,17
1523144775251125,-2,1,5,3,40,6,1,-2
1523144775267722,4,0,-21,-2,2,1,1,5
1523144775267722,-8,-1,23,7,8,-12,-8,-6
1523144775269173,1,1,0,2,20,-11,-4,-3
1523144775269173,6,0,-2,0,-4,40,7,3
1523144775289784,-8,-4,-8,-16,-46,-13,-1,1
1523144775289784,-4,-2,2,17,94,18,7,-2
1523144775291866,3,-5,1,8,16,25,-3,0
1523144775291866,4,-2,-8,-28,-17,-6,3,5
1523144775304265,-10,-1,0,13,-21,-9,-2,-5
1523144775304265,2,0,-1,3,11,1,0,-1
1523144775311419,0,-1,1,4,19,-6,0,3
1523144775311419,2,3,0,-1,5,-6,-5,-2
1523144775327325,10,1,5,7,19,3,3,5
1523144775327325,-14,-2,-6,-19,-34,-18,-6,-3
1523144775328830,1,-7,-11,-23,-82,-1,-5,-7
1523144775328830,-33,-1,-5,8,-32,-6,1,-6
1523144775349888,25,1,2,-5,-22,-12,-10,-5
1523144775349888,-2,0,-3,7,50,5,0,-2
1523144775351391,21,-4,2,-13,-64,1,-5,24
1523144775351391,-27,-7,-9,-18,-12,0,-3,-3
1523144775364158,-2,-1,1,1,50,29,10,14
1523144775364158,11,5,5,7,-19,13,2,-18
1523144775371181,1,-3,-4,4,23,-26,-13,-6
1523144775371181,22,4,-1,9,-2,-1,7,20
1523144775387226,-7,-2,6,46,89,-16,2,0
1523144775387226,4,-1,0,27,67,65,2,2
1523144775389226,-4,1,6,3,127,8,5,1
1523144775389226,8,-3,7,10,-80,-30,-4,14
1523144775409782,-8,11,22,-46,-27,8,-1,-11
1523144775409782,-7,-18,4,-7,23,-35,-6,-2
1523144775411285,-11,4,-1,16,-29,12,-1,-26
1523144775411285,2,-2,-2,-1,0,22,10,3
1523144775423526,-1,-2,-22,6,-31,-15,-14,-4
1523144775423526,-3,3,-56,-36,-104,-38,-11,-8
1523144775432494,2,-3,30,-31,24,38,17,4
1523144775432494,4,5,22,1,-15,-23,-6,13
1523144775447571,-2,-4,-38,43,51,32,13,5
1523144775447571,0,0,17,9,13,-6,-13,-8
1523144775449040,-11,-7,-31,-25,48,-21,-15,-28
1523144775449040,0,1,14,-11,33,-2,-3,-10
1523144775470095,3,5,15,54,-29,-14,6,27
1523144775470095,2,2,18,-27,69,73,15,2
1523144775471602,5,11,11,47,-46,-6,6,0
1523144775471602,-6,-9,-21,-18,-34,-1,-7,5
1523144775483631,21,-7,-9,-37,-43,-30,-10,-12
1523144775483631,-34,0,16,4,-27,-8,6,10
1523144775492654,3,6,2,-43,-22,-8,-8,4
1523144775492654,5,-2,11,106,22,12,11,-3
1523144775507244,-17,-14,-19,-31,-66,13,-7,-20
1523144775507244,16,-4,8,-4,-91,-43,-9,0
1523144775509198,-4,-3,-17,2,83,40,9,-12
1523144775509198,-1,6,4,-18,16,-11,7,12
1523144775529802,14,4,19,26,99,18,-1,-4
1523144775529802,-5,2,-1,35,-15,-14,-2,-8
1523144775531260,-4,7,1,4,-37,-5,0,4
1523144775531260,16,-3,-17,-23,-24,-19,-3,-6
1523144775543341,-9,-1,9,-29,24,33,9,8
1523144775543341,-13,-5,-20,-42,-75,-21,-21,-11
1523144775552313,-3,1,8,34,-3,6,6,2
1523144775552313,3,5,-8,-19,-22,2,2,16
1523144775567355,1,0,23,-19,-9,-22,0,-8
1523144775567355,-3,-4,-31,-12,16,15,2,8
1523144775568856,5,-4,-1,6,4,-20,-7,-2
1523144775568856,-6,-9,2,-7,52,-1,-12,-26
1523144775589463,-6,3,-13,-13,-65,-12,4,19
1523144775589463,4,3,28,28,78,14,8,14
1523144775597435,-2,1,-1,-9,4,-13,-2,-3
1523144775597435,4,-2,-17,0,13,-3,-1,-17
1523144775603500,-14,-7,0,-10,-9,20,7,8
1523144775603500,24,4,2,16,9,-8,3,-6
1523144775612472,-30,-2,2,8,-26,12,2,-1
1523144775612472,-6,1,3,4,79,-11,-3,-2
1523144775628062,-4,-3,-4,-23,-37,-14,-18,-27
1523144775628062,-1,-2,-4,-11,4,7,5,16
1523144775629518,11,1,2,-1,-53,0,2,-9
1523144775629518,-7,-3,2,8,-59,-1,-1,3
1523144775650074,0,7,10,19,17,-11,-10,-11
1523144775650074,10,-3,-21,5,9,-5,-2,-3
1523144775656090,0,-4,16,-12,13,-11,-3,2
1523144775656090,-11,-5,-11,-8,-11,4,-4,-5
1523144775663661,10,5,-2,3,48,19,11,18
1523144775663661,-6,-2,10,6,-40,-19,-13,-22
1523144775672637,7,-3,-20,-10,-35,-21,2,24
1523144775672637,3,6,-15,-12,22,20,-1,-17
1523144775687672,-4,-6,5,-5,2,-15,-2,8
1523144775687672,-7,-3,-6,35,25,-2,3,-5
1523144775689180,1,0,13,13,-29,21,-8,-7
1523144775689180,-5,-1,-4,-14,3,-10,-6,-7
1523144775709784,-1,-4,-10,-17,30,-3,2,9
1523144775709784,2,3,1,-22,-3,-9,-3,4
1523144775711237,-3,-6,-14,-20,-13,-19,-1,5
1523144775711237,2,1,16,24,-22,9,-3,2
1523144775723768,-10,-1,-3,-30,-33,-3,1,-8
1523144775723768,4,2,8,-2,11,8,3,3
1523144775732291,-3,-1,-5,3,39,-2,-3,-5
1523144775732291,-1,-3,-3,-7,-17,8,-2,-2
1523144775747379,4,-4,-3,11,-14,0,0,2
1523144775747379,0,3,-1,-14,-37,4,2,-5
1523144775748835,-1,1,0,3,7,-5,0,-2
1523144775748835,5,-2,3,16,27,4,3,4
1523144775769943,-6,2,4,0,-13,-1,-4,-6
1523144775769943,0,0,-5,-3,1,-1,2,6
1523144775771396,2,-1,4,8,8,-1,-7,2
1523144775771396,-7,-1,2,-8,25,-6,-1,-24
1523144775783430,12,-3,-6,-7,-46,-2,0,4
1523144775783430,-2,4,2,-2,-58,-4,4,3
1523144775792455,-25,-5,-7,-2,2,4,-5,-13
1523144775792455,2,1,0,-4,17,6,4,23
1523144775807539,1,1,4,15,32,-11,-4,-6
1523144775807539,2,-2,-3,6,-11,5,1,-5
1523144775808997,5,-5,-4,-20,-11,-6,-1,3
1523144775808997,0,2,4,14,68,9,-2,-3
1523144775830089,-2,-4,-1,6,39,7,3,3
1523144775830089,17,6,4,-11,-15,-21,-2,-9
1523144775831556,-11,0,-2,3,42,8,-1,1
1523144775831556,-9,-3,-7,28,-41,0,1,-5
1523144775843591,-6,-1,6,0,-46,10,4,-6
1523144775843591,1,-6,12,-4,-8,1,7,34
1523144775852612,-2,-1,-14,3,-6,5,-6,-17
1523144775852612,9,4,12,-10,29,-21,-6,-10
1523144775866649,-3,-7,-31,7,40,10,3,14
1523144775866649,-12,1,-12,-5,20,17,-1,-12
1523144775873709,13,13,39,1,-59,-28,5,14
1523144775873709,-2,-10,-4,-1,9,-4,4,1
1523144775889759,-8,16,19,-11,-18,8,-15,-30
1523144775889759,-2,-17,37,12,60,22,11,11
1523144775891216,10,11,-37,-2,8,3,2,9
1523144775891216,8,6,30,-21,-89,-7,0,13
1523144775903749,-9,-2,-18,-14,-41,-25,-7,-14
1523144775903749,-4,-4,-8,15,29,-15,-11,-9
1523144775912773,3,-4,0,1,37,1,2,19
1523144775912773,-2,2,3,27,-9,10,-2,1
1523144775926857,-5,-8,-17,-20,-82,-24,-16,-25
1523144775926857,-2,1,-1,22,84,19,4,2
1523144775933328,2,-2,3,1,-25,-6,6,18
1523144775933328,0,-1,-14,-19,15,-22,-8,-10
1523144775949910,-12,-9,9,9,20,41,4,-3
1523144775949910,-4,1,-14,-8,-35,-22,-14,-27
1523144775951375,1,-9,-1,3,29,1,6,16
1523144775951375,14,4,1,-18,-24,32,13,4
1523144775972482,-3,3,5,32,-14,-22,5,9
1523144775972482,-3,5,-4,-13,-25,-7,-8,-3
1523144775973935,-3,-15,-1,-11,-9,-12,-18,-47
1523144775973935,-2,-3,17,8,45,12,10,28
1523144775986968,10,5,-2,-11,16,12,5,18
1523144775986968,-3,-4,-24,-45,-55,-8,-3,-30
1523144775993537,4,9,12,30,56,4,1,2
1523144775993537,4,-4,-21,-1,-48,-2,8,19
1523144776010034,-1,-1,6,19,91,17,4,-8
1523144776010034,-7,-1,-6,-18,-15,3,2,5
1523144776011538,9,4,2,5,10,21,10,5
1523144776011538,-3,-5,-16,-31,-46,-4,-10,-13
1523144776032592,-1,-3,-2,0,-78,-33,-6,-10
1523144776032592,4,4,-1,-1,-24,1,-9,-13
1523144776034100,0,-4,0,10,91,6,17,27
1523144776034100,-2,2,-9,-23,13,-11,-11,-16
1523144776046794,3,-11,2,3,7,-13,-2,13
1523144776046794,-5,2,21,26,73,0,-2,-14
1523144776053797,-8,0,-5,-8,-50,-1,-8,-4
1523144776053797,-7,-1,25,18,25,-30,-7,-4
1523144776069851,7,2,-25,-38,6,17,-1,-16
1523144776069851,-18,-8,18,14,-32,-1,5,27
1523144776071308,3,-3,-4,-5,0,-6,1,-6
1523144776071308,2,-3,-19,-13,-1,6,-5,-16
1523144776092411,-16,0,9,28,20,-12,4,6
1523144776092411,16,5,3,-4,-21,3,10,27
1523144776093867,5,-2,-6,-5,-41,8,-3,-7
1523144776093867,-28,-5,-1,-6,12,1,-12,2
1523144776107543,3,-3,2,-8,-17,-11,-5,-7
1523144776107543,6,-1,-15,-12,-13,-11,6,27
1523144776108998,-2,-1,-1,-7,-8,-6,-7,-42
1523144776108998,6,1,-27,-7,-13,14,1,5
1523144776129781,-6,-3,18,8,25,-4,-1,2
1523144776129781,-5,-3,10,6,52,5,-8,-15
1523144776131731,2,-3,2,-2,10,13,2,41
1523144776131731,-2,1,-4,-1,-2,19,-2,-22
1523144776152384,7,3,-8,-17,-27,-21,2,13
1523144776152384,-6,0,-7,-16,12,0,-5,-19
1523144776153784,-3,0,-19,35,-30,-13,-11,-11
1523144776153784,-7,-10,9,-4,-30,-17,-2,-7
1523144776166819,3,8,14,-6,-16,8,1,2
1523144776166819,2,1,-37,22,-4,2,-1,5
1523144776173521,-6,-4,22,-17,-46,-11,0,-3
1523144776173521,1,-3,2,-9,26,-12,-3,-2
1523144776190068,-2,1,-4,-6,-14,3,-1,-6
1523144776190068,2,-5,-10,-18,-6,2,2,8
1523144776191387,-6,1,-14,-14,-23,1,-4,-14
1523144776191387,1,-1,-4,16,9,3,5,11
1523144776212624,0,1,15,-12,-10,-11,-3,3
1523144776212624,0,3,0,-1,-25,-6,-8,-10
1523144776213945,-4,-1,3,-5,22,-2,-1,-4
1523144776213945,7,-3,3,-3,4,-3,8,24
1523144776227013,4,3,-11,9,-2,7,11,10
1523144776227013,0,-2,1,-3,3,4,-3,2
1523144776233496,-4,0,0,6,7,-13,-5,-7
1523144776233496,-3,1,-1,3,-10,-11,-11,-3
1523144776250041,-1,-2,-6,5,32,3,-3,-26
1523144776250041,0,1,4,3,-30,-3,1,9
1523144776251546,1,-2,-4,-16,-60,1,-2,1
1523144776251546,0,6,14,11,17,-9,5,3
1523144776280223,0,-1,-2,8,10,18,-4,3
1523144776280223,4,4,6,-13,-54,-9,2,-1
1523144776281623,3,0,-3,6,82,4,-2,0
1523144776281623,-5,-6,-16,-20,-54,-16,-12,-12
1523144776287021,-8,-2,2,-10,-17,-18,-9,-13
1523144776287021,1,-1,7,42,73,26,8,13
1523144776293567,7,6,6,15,23,-5,10,11
1523144776293567,5,1,2,21,11,11,6,5
1523144776310113,-3,-2,3,-17,39,-2,-7,-10
1523144776310113,-5,-7,-9,-6,-6,-25,-6,-10
1523144776311430,3,5,8,5,-22,12,8,14
1523144776311430,-3,-2,-1,8,34,1,-1,-11
1523144776332485,0,-4,-4,15,-1,20,3,7
1523144776332485,-5,-1,-5,-11,11,-8,-3,-9
1523144776333991,7,0,6,-1,20,5,-5,-6
1523144776333991,-6,-3,-5,-11,-19,-8,-7,-9
1523144776346708,-4,-5,-8,-6,-36,3,6,13
1523144776346708,-13,-6,-2,-23,-26,3,3,0
1523144776353542,10,1,9,31,71,11,-1,-7
1523144776353542,-11,-1,-7,-3,-5,8,5,12
1523144776370122,-1,-2,-9,9,71,-1,-9,-16
1523144776370122,0,2,12,17,-18,1,10,2
1523144776371591,-12,-5,-6,-24,-6,-16,-14,-8
1523144776371591,6,5,2,2,37,1,1,-2
1523144776392655,3,6,-20,-2,-40,17,13,11
1523144776392655,-6,-7,17,-5,21,-6,-5,-6
1523144776394339,3,1,0,4,-37,-1,5,5
1523144776394339,2,-2,-1,-3,33,6,3,10
1523144776406218,-6,-3,-16,19,-60,12,1,0
1523144776406218,5,6,-22,-10,44,6,-3,-1
1523144776415217,-11,-4,22,-9,-24,-41,-15,-19
1523144776415217,-6,-12,5,-5,-84,0,-9,-19
1523144776429930,1,-3,-4,-2,-49,-26,1,6
1523144776429930,-5,-5,6,-41,-40,-12,-5,-2
1523144776431248,1,4,-21,32,-7,22,11,-1
1523144776431248,6,8,2,-13,1,-9,2,6
1523144776452491,-1,1,13,-17,25,26,4,5
1523144776452491,0,0,-14,-15,-36,-30,-15,-19
1523144776453809,-4,-9,-10,-3,-8,2,0,13
1523144776453809,3,1,-15,-2,-23,-4,5,-10
1523144776465841,3,3,21,4,-12,-5,-6,5
1523144776465841,3,0,2,5,-43,-1,6,4
1523144776474865,-10,-6,-9,-48,19,14,0,-8
1523144776474865,5,3,-4,-1,38,13,5,18
1523144776490096,-3,-2,15,7,32,-30,-14,-16
1523144776490096,1,-6,-15,-46,-41,3,5,8
1523144776491409,-4,-7,6,67,-13,7,-6,-15
1523144776491409,-4,0,12,-8,19,3,-9,-11
1523144776512680,0,-6,-2,-12,28,-22,0,0
1523144776512680,2,3,-8,25,24,20,4,6
1523144776514020,0,4,30,-11,8,0,-9,-2
1523144776514020,-5,-3,-12,1,6,-14,-12,-47
1523144776526226,8,-4,-2,13,23,15,18,45
1523144776526226,14,11,7,11,32,4,16,16
1523144776535076,-3,-5,-24,-3,2,-8,-12,-12
1523144776535076,-12,-1,8,48,38,-3,2,-5
1523144776549616,-6,-5,-9,-18,-34,11,-11,-31
1523144776549616,8,2,-1,-38,24,12,2,8
1523144776551620,-3,0,-6,-27,-59,-6,3,-1
1523144776551620,1,-3,-1,11,12,-4,-9,-8
1523144776580108,1,5,-3,-18,0,-13,-3,0
1523144776580108,-9,-5,13,52,10,0,-4,-2
1523144776581421,5,-5,-13,-4,22,7,5,3
1523144776581421,-10,1,-2,-9,-12,-7,-10,-5
1523144776586059,3,0,-14,-18,-6,-14,-1,9
1523144776586059,-3,2,14,-2,53,-13,-1,20
1523144776594957,-8,-3,7,11,-21,-6,-5,-33
1523144776594957,4,0,-26,1,-26,21,8,4
1523144776610841,6,7,30,9,32,6,8,29
1523144776610841,-4,-2,-4,9,3,-1,-10,-18
1523144776612233,-7,-2,-6,-11,-56,-12,0,3
1523144776612233,1,2,-3,-15,-26,-14,-1,-1
1523144776632289,-7,0,11,39,31,29,-2,-20
1523144776632289,-2,-6,-6,10,30,1,-5,-8
1523144776633791,3,4,-9,-21,2,-18,3,17
1523144776633791,3,-5,6,-4,28,3,-3,12
1523144776646013,-6,-5,-13,-29,-54,2,6,1
1523144776646013,1,-1,-7,-10,-71,-17,-9,-8
1523144776654847,-5,2,3,7,89,6,5,-5
1523144776654847,3,-1,5,12,60,2,0,-4
1523144776670073,6,0,1,-3,-35,-4,1,41
1523144776670073,-10,-6,-11,-17,26,4,-3,-24
1523144776671392,2,-2,4,3,0,1,0,5
1523144776671392,-2,-2,-2,-36,-86,-2,-6,-6
1523144776692364,-2,-2,-7,17,9,-25,-4,-11
1523144776692364,-1,-1,6,17,5,22,2,-1
1523144776694351,2,-3,-5,-15,-4,0,-2,2
1523144776694351,4,-1,3,7,16,2,6,14
1523144776705892,-4,-1,0,9,1,-14,-8,-23
1523144776705892,-3,1,-11,-1,-28,-8,-5,-1
1523144776715236,-1,-4,11,-9,6,0,-2,2
1523144776715236,2,-2,0,6,3,17,12,17
1523144776729774,-2,-3,-8,-10,7,-12,-5,-13
1523144776729774,2,4,9,7,69,-8,-2,1
1523144776731278,-9,-4,-17,-25,-115,-11,-9,-1
1523144776731278,3,1,-3,5,28,5,1,-2
1523144776752519,4,2,0,-5,33,1,0,3
1523144776752519,1,-2,-2,-9,-33,-20,0,0
1523144776753838,3,2,-3,16,14,9,0,1
1523144776753838,-5,-1,7,-2,-10,-4,-2,-2
1523144776766104,-6,-7,-7,6,-18,10,-1,-19
1523144776766104,3,0,5,-6,-16,2,0,4
1523144776775127,2,3,1,-3,16,-16,1,1
1523144776775127,-5,-4,-3,4,-17,27,3,2
1523144776790166,1,0,5,3,-2,-6,-1,5
1523144776790166,-1,-3,-2,3,-2,7,2,3
1523144776791840,3,1,4,9,79,14,5,3
