timestamp,emg1,emg2,emg3,emg4,emg5,emg6,emg7,emg8
1523066672616954,1,4,1,4,2,-1,0,1
1523066672616954,-1,-2,1,1,-2,-2,-4,1
1523066672627098,-1,-1,-7,2,1,-1,-2,0
1523066672627098,-1,-5,-22,-6,-1,-2,-5,-4
1523066672627098,4,11,63,-5,-7,2,14,3
1523066672627098,-8,4,-13,-1,3,-2,-3,-2
1523066672629151,-1,1,-10,5,2,-3,-10,-3
1523066672629151,2,-6,-5,4,-1,7,20,-1
1523066672629151,-2,-8,-14,-7,-4,-3,-8,-2
1523066672629151,-3,-4,-10,-12,-9,0,-2,-2
1523066672644023,1,6,4,7,5,-1,-8,-6
1523066672644023,4,4,13,-1,-3,-2,-9,2
1523066672652044,-14,-7,-19,-9,-3,1,-4,2
1523066672652044,9,-1,11,4,-3,-5,-5,-4
1523066672660065,-2,-3,-12,-6,-2,-3,-11,0
1523066672660065,-3,-1,-13,5,4,9,3,-6
1523066672674323,3,3,31,5,1,-4,-7,-3
1523066672674323,-7,4,24,-3,-2,-2,-7,-2
1523066672721482,2,0,-6,5,4,-4,-12,-6
1523066672721482,0,-3,-8,-16,-11,-7,-6,-1
1523066672722237,-8,-9,-2,2,4,6,3,-2
1523066672722237,14,15,1,0,1,4,25,2
1523066672723232,-4,-1,7,-3,0,-1,-2,-1
1523066672723232,1,5,-9,9,4,-3,-3,-1
1523066672726551,-3,-6,-2,-4,-4,-3,0,0
1523066672726551,0,-1,21,-10,-3,-4,-8,-6
1523066672733287,-4,-3,-10,0,-4,-5,-8,10
1523066672733287,-2,1,13,4,2,-1,1,-5
1523066672742300,3,4,-30,9,4,2,9,-4
1523066672742300,2,-8,-6,-1,-3,0,-4,4
1523066672748544,-14,-9,-9,-16,-12,-4,6,-16
1523066672748544,-8,0,10,3,1,-5,-5,-2
1523066672763666,4,-5,-8,-1,3,-3,-18,-4
1523066672763666,-8,7,-1,1,-2,-2,-1,5
1523066672771575,8,6,-1,3,3,4,5,6
1523066672771575,-7,-6,-11,-3,-2,6,4,-9
1523066672802721,1,7,20,0,1,-4,-1,-2
1523066672802721,0,-8,-16,-10,-7,-6,-12,1
1523066672804450,-3,0,14,1,1,3,-7,-4
1523066672804450,-1,-4,-9,4,1,1,0,0
1523066672816485,-3,7,-6,0,0,3,-2,-3
1523066672816485,0,-7,29,-2,-3,0,-4,-3
1523066672824510,1,8,5,4,3,-4,2,-4
1523066672824510,3,-5,-12,-19,-14,-3,0,12
1523066672839775,-1,-3,-8,3,2,-1,0,-1
1523066672839775,-9,1,-3,12,4,-1,1,-9
1523066672846721,2,-11,-15,-9,-5,0,-10,-2
1523066672846721,5,6,6,6,6,0,-1,5
1523066672869921,-6,5,13,-2,-5,-4,-3,-5
1523066672869921,-4,-3,0,-4,0,2,-6,-4
1523066672871632,3,0,-2,-1,-5,-4,4,-3
1523066672871632,-1,-1,5,1,0,1,-2,2
1523066672885665,2,-6,-7,-6,-3,-3,-9,5
1523066672885665,0,3,-5,7,5,0,5,-5
1523066672886669,0,0,-4,-4,-2,4,8,3
1523066672886669,3,1,12,-2,-2,-1,11,-1
1523066672898928,-2,-2,15,-1,-3,-4,-4,-2
1523066672898928,-7,-6,-10,-2,0,-2,-11,-5
1523066672907725,6,4,8,2,-1,-4,-6,-1
1523066672907725,-11,-12,-46,-4,3,2,-6,-1
1523066672922884,7,3,33,0,-4,2,14,2
1523066672922884,-7,-2,-7,-3,-2,-3,-7,0
1523066672923768,0,1,-2,-1,0,-7,-11,-4
1523066672923768,1,-10,-35,-2,2,2,5,-11
1523066672945084,-8,8,31,-1,1,-2,-3,-6
1523066672945084,12,-1,-15,-6,-2,0,4,13
1523066672946831,5,8,6,8,2,-5,-3,8
1523066672946831,3,-3,15,0,-5,-2,-8,-9
1523066672966885,-3,-5,-10,-2,-1,-1,11,8
1523066672966885,-5,-1,-3,1,0,6,9,-16
1523066672968889,-2,-13,-6,-1,0,-2,-12,2
1523066672968889,3,11,21,6,3,2,-8,1
1523066672981993,4,-9,-20,-10,-7,-3,-20,-6
1523066672981993,1,-4,-2,0,-1,-6,2,4
1523066672988946,4,-5,-2,-2,-3,1,17,4
1523066672988946,-15,3,2,-4,-3,-2,-16,1
1523066673004992,15,2,-28,-4,-7,-7,-13,-7
1523066673004992,-3,-9,-29,-4,-4,-4,1,1
1523066673005988,-2,10,40,2,-2,0,-6,-9
1523066673005988,2,-8,-26,-3,-3,-3,9,-1
1523066673027304,-2,0,4,-1,0,1,4,-1
1523066673027304,-2,3,7,2,1,-4,-7,2
1523066673029051,-2,-1,-23,-3,2,6,16,7
1523066673029051,2,3,15,0,-3,-2,9,-4
1523066673041289,-2,0,-6,-4,0,1,1,1
1523066673041289,-4,-1,6,-3,-2,-2,-9,-16
1523066673050104,-3,-5,-12,-1,-4,-1,-3,2
1523066673050104,7,4,12,-2,4,5,-1,19
1523066673065149,-8,-7,-14,0,-2,-3,1,-22
1523066673065149,3,9,38,9,7,5,3,2
1523066673066145,-3,-6,-27,-7,-8,-2,-5,4
1523066673066145,-1,9,39,1,-2,-3,-3,-6
1523066673087511,1,-3,-16,13,10,2,7,8
1523066673087511,-4,-5,-33,-30,-16,5,6,7
1523066673089206,2,-4,25,8,8,-4,-14,-19
1523066673089206,-8,7,26,-4,-8,-3,-5,8
1523066673110571,2,5,16,-4,-3,-6,-2,2
1523066673110571,-10,-7,-10,6,6,4,3,-8
1523066673111266,7,-9,-30,2,0,-7,1,10
1523066673111266,6,25,21,10,1,-4,-8,-11
1523066673123504,-17,-11,15,-10,-2,3,4,-1
1523066673123504,0,-5,-8,-3,-6,-5,-11,-10
1523066673132320,0,2,-4,-9,-2,7,19,4
1523066673132320,5,-3,-17,8,15,-2,-6,-3
1523066673146360,1,-8,-23,5,-4,-2,-8,1
1523066673146360,2,3,8,-1,-5,-4,-11,1
1523066673155383,-7,-1,2,-15,-9,-2,3,-8
1523066673155383,0,-10,-18,-4,-1,6,6,-4
1523066673169422,-6,0,4,-1,-3,-6,-11,1
1523066673169422,1,-3,1,2,0,5,14,5
1523066673177442,8,8,2,9,3,0,-9,-1
1523066673177442,-15,-11,-11,-3,-1,1,13,4
1523066673191798,4,-1,-3,-8,-4,-4,-13,-7
1523066673191798,2,9,-2,5,4,4,14,-5
1523066673198725,-3,-2,10,-3,-4,-4,-20,-3
1523066673198725,2,1,15,-4,-4,-2,8,-5
1523066673214871,-15,-6,-2,-1,-1,0,1,14
1523066673214871,19,0,13,2,1,-7,-4,3
1523066673216546,-11,-7,-11,-1,1,4,4,-6
1523066673216546,-4,-11,-13,-4,-3,-1,-4,-8
1523066673236599,3,5,-8,7,3,2,1,2
1523066673236599,2,0,13,-2,-1,-8,-9,13
1523066673246624,3,10,12,1,4,5,4,-13
1523066673246624,-2,-7,-7,4,-6,-5,-6,5
1523066673247628,3,0,-9,-4,1,6,9,2
1523066673247628,-4,-3,-9,-2,-3,-2,-1,1
1523066673248631,-2,2,8,7,4,-1,-1,-1
1523066673248631,-2,-3,-4,-6,-4,0,2,-7
1523066673251909,6,7,17,1,0,2,7,1
1523066673251909,-4,-1,-9,-10,-7,-7,-15,0
1523066673252640,-9,-4,4,0,-1,-1,6,1
1523066673252640,3,-5,-15,-2,0,-4,-12,-13
1523066673265712,2,-4,-21,0,1,4,29,17
1523066673265712,3,15,91,1,-7,-8,-21,1
1523066673273893,-12,-1,-11,-4,-5,-2,2,3
1523066673273893,5,-4,-13,1,-1,1,-2,2
1523066673282722,-2,-2,-2,0,-1,-2,-13,-14
1523066673282722,-4,5,-3,7,4,1,17,-11
1523066673297060,-13,-23,-16,-9,-5,-3,-4,1
1523066673297060,15,7,7,0,0,-3,-5,-2
1523066673304118,-15,-4,3,-5,-5,2,1,1
1523066673304118,0,-7,-20,7,2,-1,-8,4
1523066673311088,-2,6,4,-4,-2,6,1,-6
1523066673311088,-1,-9,1,1,1,-1,2,11
1523066673325837,-1,-11,-28,-17,-10,-4,-4,-2
1523066673325837,-2,3,-30,3,4,2,10,-10
1523066673333856,12,12,60,15,7,1,-4,1
1523066673333856,-10,-1,-18,-11,-6,-5,8,-3
1523066673343126,3,1,0,4,0,1,2,-8
1523066673343126,-6,-9,-35,3,4,1,7,2
1523066673356925,3,0,24,-9,-2,-2,-7,18
1523066673356925,2,4,-10,-7,-7,0,3,-2
1523066673379006,1,-4,5,3,3,-4,-13,-3
1523066673379006,-7,-11,-18,-12,-4,5,3,-3
1523066673385994,2,-4,-20,7,1,0,-2,-12
1523066673385994,-5,10,14,-4,-1,-3,-5,2
1523066673402038,0,3,14,-6,-4,-4,1,-3
1523066673402038,-1,-2,4,10,7,-5,-30,-7
1523066673404043,2,-1,-23,-26,-14,7,30,4
1523066673404043,-4,-9,-8,0,5,-1,-2,11
1523066673426101,1,9,7,5,0,-1,2,-2
1523066673426101,0,0,-1,-1,-5,-8,-19,-6
1523066673427104,1,0,-15,5,3,5,11,7
1523066673427104,-3,-5,-1,0,-5,1,1,-9
1523066673438134,4,5,8,-2,-2,-2,-3,2
1523066673438134,-5,-5,-19,3,3,-2,-2,3
1523066673447159,0,-1,0,4,-1,-10,-21,-7
1523066673447159,6,6,9,-3,2,1,4,-2
1523066673461196,-4,-3,-7,4,1,4,14,2
1523066673461196,1,0,9,6,2,4,5,0
1523066673468214,-4,-5,-10,-11,-3,-8,-4,-4
1523066673468214,2,-2,-4,1,-1,0,0,0
1523066673485258,0,3,21,-1,0,-3,-6,-2
1523066673485258,0,3,2,-1,-2,0,-2,-1
1523066673486268,0,3,-2,4,1,3,17,2
1523066673486268,-5,-6,5,-1,1,-2,-11,-2
1523066673507317,0,6,26,0,-2,-4,-4,2
1523066673507317,4,-4,-2,-5,0,5,3,-3
1523066673509328,-9,5,9,0,0,-5,-11,-3
1523066673509328,6,-7,-8,2,1,0,-5,1
1523066673521355,-5,-4,-8,-2,-1,-7,-12,-7
1523066673521355,-1,-1,3,-9,-4,9,29,6
1523066673530378,-4,-2,0,2,1,-8,-15,-2
1523066673530378,-5,-4,0,2,1,-3,-2,-4
1523066673544415,-1,0,-1,-2,-2,-8,-21,-5
1523066673544415,0,1,-4,-4,-6,-8,-23,-7
1523066673546421,5,2,-18,0,2,5,24,8
1523066673546421,-3,-2,11,1,-3,3,6,0
1523066673567477,-2,-8,-16,-6,-8,-7,-13,-14
1523066673567477,-2,2,6,1,4,0,17,20
1523066673568480,1,-17,-29,-2,-3,-4,-27,-17
1523066673568480,0,17,35,3,-5,-6,-21,-2
1523066673589541,-4,-6,-7,-2,2,6,22,-2
1523066673589541,-7,-10,-17,-2,-2,-1,-7,-8
1523066673591541,15,5,26,3,0,3,12,13
1523066673591541,-16,-10,-14,-1,-2,-1,1,-4
1523066673604575,5,-1,-5,0,-2,-1,-6,-3
1523066673604575,-3,1,4,-4,-3,-2,3,3
1523066673611603,-9,0,-13,2,2,-5,-10,-4
1523066673611603,7,-8,-12,-8,-7,0,6,-1
1523066673627642,1,7,23,1,6,1,4,-3
1523066673627642,-2,-11,-17,8,3,1,3,-1
1523066673628642,-2,-2,4,-15,-8,-6,-12,11
1523066673628642,9,17,10,17,8,7,8,2
1523066673650703,-7,1,28,-12,-9,-2,0,2
1523066673650703,10,1,0,3,0,-2,-1,-10
1523066673651706,-16,-6,-6,-1,1,-1,3,-8
1523066673651706,-16,-5,-15,2,0,-3,1,-1
1523066673652705,7,-11,-46,4,2,-2,2,22
1523066673652705,-10,21,96,8,0,-2,3,-10
1523066673656716,1,-3,-24,-14,-8,6,-10,-9
1523066673656716,-1,-7,-5,-7,-3,-5,-7,-1
1523066673663906,-10,6,6,9,0,8,25,-4
1523066673663906,7,-4,-11,-14,-2,-9,-3,6
1523066673670753,2,6,3,13,5,2,0,0
1523066673670753,1,-1,6,-6,-2,-3,4,4
1523066673685793,-3,-5,-18,-3,-3,-1,-16,-5
1523066673685793,-1,2,-14,4,-1,-1,-1,-1
1523066673694126,2,1,8,1,-2,-1,-6,-8
1523066673694126,0,-4,-16,-7,1,8,21,9
1523066673709269,3,2,4,8,3,-2,-6,2
1523066673709269,-1,0,-13,-5,-4,-1,-14,-4
1523066673716875,6,-6,-6,-6,-5,-3,5,-3
1523066673716875,-13,-3,-6,6,-1,-10,-19,-8
1523066673731916,5,0,-15,-7,1,12,36,1
1523066673731916,-1,-4,-20,-1,-1,-1,-10,9
1523066673731916,-10,-6,-13,5,4,-1,-5,-3
1523066673731916,11,7,35,2,-1,-3,-3,3
1523066673746287,-5,5,-1,-2,-1,0,-9,-14
1523066673746287,-6,-10,-9,-10,-4,-3,-5,2
1523066673754317,2,-1,-6,3,2,-2,-2,5
1523066673754317,-2,-3,-3,-6,-3,-3,-3,-1
1523066673768012,4,3,-9,7,3,-1,-7,-4
1523066673768012,-4,1,24,-2,0,7,16,0
1523066673777375,8,3,9,-1,-3,-1,-4,2
1523066673777375,2,5,-9,0,0,3,1,-5
1523066673792411,-4,-3,0,-3,-5,-3,-9,-7
1523066673792411,0,-1,-8,-1,-3,-4,11,6
1523066673792411,0,6,11,5,4,2,-3,4
1523066673792411,3,-2,-7,-4,-6,0,4,5
1523066673806113,4,-2,7,-9,-4,-6,-7,5
1523066673806113,1,-1,-26,2,1,4,3,-8
1523066673813131,-8,2,26,5,2,9,15,-8
1523066673813131,-2,-8,-1,0,0,-2,-9,-5
1523066673828171,-7,-4,5,5,3,-4,2,12
1523066673828171,1,2,-5,-13,-9,-6,-5,-15
1523066673837530,-4,-6,-8,1,-4,4,2,1
1523066673837530,8,2,-9,5,3,4,-3,0
1523066673851375,2,-1,33,-7,-4,-4,-5,-1
1523066673851375,-13,-10,-25,-5,-5,-3,5,-2
1523066673852236,-1,17,5,1,0,-3,4,-1
1523066673852236,-5,-4,-3,-5,-5,-4,-3,-7
1523066673890714,2,-5,-22,5,8,3,-4,3
1523066673890714,1,7,42,1,-1,-3,-7,2
1523066673892356,-4,-6,-14,0,-1,-6,-2,-8
1523066673892356,-4,-1,-21,2,-1,0,3,-6
1523066673912681,2,3,30,-1,-2,1,2,16
1523066673912681,1,-7,-13,0,3,0,-3,-11
1523066673914401,-1,5,8,3,1,-3,-10,-4
1523066673914401,0,0,-8,-6,-4,-4,0,-2
1523066673934454,4,-7,-8,-13,-9,-4,-12,-8
1523066673934454,-10,-11,0,-3,-4,2,-6,3
1523066673936461,3,4,-5,3,5,4,30,8
1523066673936461,-8,-6,7,12,9,1,-20,-12
1523066673956547,10,16,-11,-7,-6,-2,24,7
1523066673956547,5,0,-8,-4,-1,-3,-24,-1
1523066673964536,3,-6,-4,0,1,-3,-8,-4
1523066673964536,-21,-12,-11,9,4,0,-2,-2
1523066673987596,1,7,42,-6,-4,-4,-16,-4
1523066673987596,1,-2,-9,1,0,1,8,0
1523066673988598,-6,-5,0,-1,-2,-4,-15,-2
1523066673988598,19,2,-2,-4,-1,5,18,9
1523066674010657,-7,-7,-22,2,-2,-3,-10,-8
1523066674010657,-1,3,7,1,0,0,-2,-6
1523066674011660,-5,2,13,-1,-3,-7,-8,1
1523066674011660,4,-14,-38,-11,-2,5,9,6
1523066674031713,-5,10,18,4,0,-1,1,-10
1523066674031713,2,-4,-12,1,-2,-5,-7,-2
1523066674038733,-1,-7,-11,-2,0,7,13,1
1523066674038733,-4,5,14,3,0,-4,-8,-7
1523066674053772,-3,-12,-22,0,0,0,4,8
1523066674053772,4,5,2,-1,-2,-2,-11,-8
1523066674063799,-6,-4,3,0,1,1,17,10
1523066674063799,0,0,10,-4,-4,2,14,-7
1523066674084854,-4,-11,-14,-1,0,-3,-8,-7
1523066674084854,0,3,7,0,1,-5,8,7
1523066674086859,1,-1,-1,0,0,5,2,5
1523066674086859,-1,3,2,-4,0,0,-2,2
1523066674106916,1,0,16,2,-2,1,0,-7
1523066674106916,-6,-3,-9,4,4,8,17,-2
1523066674108921,-1,-7,-5,-3,-4,-8,-25,4
1523066674108921,13,1,-1,-2,-4,0,9,7
1523066674128975,0,1,-5,-1,1,-3,-8,-6
1523066674128975,8,3,-22,2,1,2,-2,11
1523066674135990,-1,3,0,0,-6,-3,-19,-15
1523066674135990,-3,0,2,-3,-1,-7,-11,-5
1523066674151032,-3,-3,-9,0,0,-2,4,2
1523066674151032,-1,3,11,-1,1,1,2,-2
1523066674160058,-5,-8,-33,-1,2,-1,4,-8
1523066674160058,-1,8,37,-6,-7,-3,-6,16
1523066674183119,1,1,-4,8,-1,1,1,2
1523066674183119,-8,6,3,-14,-10,-2,-5,-11
1523066674186126,8,0,0,13,8,1,2,-3
1523066674186126,-2,-2,-22,-13,-5,-1,-7,-2
1523066674205178,-4,-4,-15,4,5,1,1,3
1523066674205178,3,3,15,-1,-5,-1,-3,2
1523066674206179,-3,-4,6,-4,-3,-4,4,-6
1523066674206179,1,5,8,-1,-3,0,1,0
1523066674227235,-6,1,-14,-4,-3,-4,-6,1
1523066674227235,-15,-8,-12,5,2,-4,-9,-7
1523066674233249,13,2,17,-3,-3,4,-15,11
1523066674233249,-1,-6,3,4,2,-1,1,-7
1523066674258316,2,-5,-19,0,-2,-1,-1,-6
1523066674258316,6,5,35,-6,-2,3,0,6
1523066674259322,-14,-3,4,0,-4,-9,-2,1
1523066674259322,-3,0,-16,-2,-1,-4,2,0
1523066674280461,6,-2,1,-9,-5,0,-5,1
1523066674280461,0,-5,3,6,-2,-7,-11,-9
1523066674283387,-1,-3,-14,-10,-1,3,8,0
1523066674283387,-6,2,1,11,4,-3,-4,4
1523066674301437,1,-3,-8,-2,-1,5,4,-12
1523066674301437,1,-16,0,-3,1,3,3,8
1523066674308525,1,21,18,-2,-2,-3,8,-6
1523066674308525,2,-6,-8,1,-2,-4,-26,3
1523066674323490,-10,-5,-2,3,4,11,7,1
1523066674323490,1,-3,-13,-1,-2,-1,8,2
1523066674332515,-1,-7,1,-9,-7,-7,-21,-2
1523066674332515,0,0,4,3,1,-2,6,-2
1523066674354573,0,-2,-3,-2,-3,-3,2,2
1523066674354573,2,2,12,-1,0,-3,-1,-2
1523066674356577,-22,-6,-8,1,-1,1,0,-11
1523066674356577,13,-2,8,1,4,1,5,-1
1523066674377813,5,3,4,-3,-5,-4,-4,13
1523066674377813,-1,5,-1,-5,0,5,6,-6
1523066674378779,0,-7,-15,-1,-3,-3,1,1
1523066674378779,-3,1,9,2,-1,0,-5,-6
1523066674398694,-3,-5,-6,-1,2,3,16,-5
1523066674398694,0,0,-5,0,2,-2,-4,7
1523066674406714,1,-2,13,-7,-6,-1,-4,-6
1523066674406714,-3,-5,-5,-3,-6,-2,3,8
1523066674429895,6,5,-3,-7,-3,-3,-3,-10
1523066674429895,-2,6,-15,4,3,0,-6,1
1523066674431780,0,-11,-16,-4,-3,0,16,3
1523066674431780,-4,4,7,-4,0,-2,-6,-10
1523066674459857,-1,-8,-8,5,1,-1,-12,10
1523066674459857,2,5,-8,-1,-2,0,-4,-7
1523066674461860,4,2,8,-3,-2,2,6,-4
1523066674461860,3,-2,3,2,3,0,16,-2
1523066674474893,-5,5,0,0,-4,0,-14,3
1523066674474893,-2,-5,-21,-8,-1,-2,1,-3
1523066674476899,-2,-3,18,0,-1,-2,-7,5
1523066674476899,-3,0,-11,1,1,7,8,-7
1523066674496958,-6,2,11,-3,0,-8,-12,-4
1523066674496958,2,-4,18,3,3,5,17,6
1523066674503013,4,6,-9,5,4,-1,-5,-2
1523066674503013,-2,-3,-3,-13,-9,-1,-17,1
1523066674518043,-6,-7,1,5,5,2,7,-4
1523066674518043,-4,-3,-25,-6,-9,-5,-8,2
1523066674535051,4,5,21,7,3,1,18,-2
1523066674535051,-4,1,-7,-4,2,1,-3,1
1523066674550093,2,2,15,8,3,-5,-2,-1
1523066674550093,5,-10,-18,-12,-8,0,-4,-4
1523066674551095,-11,-4,-7,10,6,-6,-6,1
1523066674551095,-2,-2,-6,-13,-13,1,-6,-3
1523066674572150,0,-2,-6,-2,0,-4,-1,-4
1523066674572150,-3,4,38,8,7,9,20,3
1523066674574157,5,4,-3,1,3,-6,-12,-2
1523066674574157,-11,-5,5,-8,-6,-1,-4,-5
1523066674595212,4,-11,-15,-6,-5,-5,1,-1
1523066674595212,-6,13,9,8,1,-2,-3,6
1523066674596226,1,-3,0,-5,-4,1,-3,2
1523066674596226,-8,-1,-3,3,3,-1,6,-3
1523066674616268,-1,-2,6,-4,-1,0,-8,-4
1523066674616268,-3,-10,-29,8,2,-1,4,-1
1523066674626295,0,2,18,-11,-4,2,-3,2
1523066674626295,4,2,-1,4,2,-6,-1,0
1523066674647648,-4,0,0,-1,-4,-5,-8,-5
1523066674647648,2,2,7,4,3,8,7,3
1523066674649152,-1,-4,-17,-2,-4,3,-1,-4
1523066674649152,3,1,10,2,0,-8,-7,3
1523066674670209,1,4,1,-1,-1,-6,-14,6
1523066674670209,-4,-3,3,3,0,2,10,-6
1523066674671713,1,1,-7,-5,-4,-4,-12,-3
1523066674671713,0,-2,-2,3,3,0,4,-3
1523066674692767,-4,4,2,1,-1,-1,4,-1
1523066674692767,-1,-4,1,-3,-1,-1,-6,-2
1523066674694276,2,-3,-14,-3,-4,-2,-2,0
1523066674694276,6,6,12,5,-3,-2,-13,-1
1523066674714326,1,6,1,-1,2,5,24,-5
1523066674714326,-16,-12,-7,-4,0,3,1,-5
1523066674721845,4,7,7,0,0,2,7,9
1523066674721845,1,0,-7,1,-2,-1,-12,-3
1523066674744906,-4,-19,-28,-2,-1,-1,0,0
1523066674744906,4,11,45,-1,-5,-3,11,-3
1523066674746412,-1,-4,-19,-5,-3,-5,-14,-9
1523066674746412,-2,4,14,1,0,-2,6,2
1523066674767467,-2,-6,-2,-3,-2,1,1,0
1523066674767467,2,-9,-27,1,2,-4,-8,2
1523066674768970,-3,6,20,0,-4,-2,0,-1
1523066674768970,-1,-2,-7,1,0,-4,0,-5
1523066674790038,1,-5,-12,-15,-7,1,0,-1
1523066674790038,-4,0,-27,-4,-3,-6,-10,-3
1523066674791531,-3,6,59,14,3,3,8,1
1523066674791531,8,11,-26,-5,4,3,2,-13
1523066674811593,6,2,23,15,3,-5,-10,13
1523066674811593,-14,5,3,-17,-13,-6,0,19
1523066674820107,18,-5,-32,-4,0,1,5,-5
1523066674820107,-9,-6,15,15,6,-3,-15,-9
1523066674827637,-2,-2,-38,-2,10,22,36,-11
1523066674827637,7,5,32,-6,-7,-4,0,1
1523066674829131,-12,-8,-1,3,0,-5,-3,5
1523066674829131,5,1,-7,-11,-9,-3,6,2
1523066674834143,-4,-7,-1,4,2,-7,-20,-6
1523066674834143,0,-2,-1,1,2,1,11,-5
1523066674835156,-4,-3,-4,5,3,1,-3,-3
1523066674835156,-1,-10,-14,-9,-5,2,15,8
1523066674842873,-6,13,33,-6,-6,-7,-15,-1
1523066674842873,8,7,2,12,8,2,-10,-12
1523066674844171,6,-8,1,-15,-9,-2,-2,2
1523066674844171,-5,-6,-12,4,6,-3,-4,2
1523066674865007,1,0,12,-1,-3,5,13,8
1523066674865007,-3,-13,-20,-1,2,-6,-9,2
1523066674866506,-7,3,-21,-4,-6,-3,-5,-11
1523066674866506,-2,0,6,-2,1,2,0,-3
1523066674887560,3,-4,0,-1,-3,-5,-4,4
1523066674887560,-3,-1,-4,-1,-1,-2,-7,-7
1523066674889067,0,-3,-9,-3,1,5,13,-2
1523066674889067,-6,-4,-1,-3,-3,1,4,-3
1523066674894579,-5,-4,-3,1,2,0,-3,0
1523066674894579,8,14,8,5,4,-3,-3,4
1523066674895081,-2,-6,-13,-4,-4,-5,-10,1
1523066674895081,-2,4,11,-3,-4,-1,-7,-5
1523066674902941,-1,-4,-13,1,0,2,7,-2
1523066674902941,0,-6,0,4,0,-2,-4,-5
1523066674904106,-6,3,17,2,2,-1,5,-1
1523066674904106,5,-2,-15,1,-1,-4,-5,2
1523066674909532,0,6,32,-6,-4,9,22,1
1523066674909532,-2,-9,-33,-3,-3,-1,-5,-1
1523066674910666,4,5,-4,4,4,0,-1,0
1523066674910666,-8,-6,7,12,7,2,2,-2
1523066674917047,-2,-1,-19,-20,-13,-9,-13,-20
1523066674917047,-4,0,33,-5,-6,-4,-5,6
1523066674917550,8,-13,0,1,0,0,-1,9
1523066674917550,-3,4,-8,-1,-5,-2,-1,6
1523066674925069,-3,4,-9,3,-1,-4,-10,-6
1523066674925069,3,-3,9,-3,-2,0,3,-6
1523066674926574,-7,-18,-37,-4,-1,-4,-11,-11
1523066674926574,5,11,41,2,3,6,13,3
1523066674947630,-5,0,-4,-2,0,3,24,6
1523066674947630,-2,-8,-4,-4,-5,-10,-24,-6
1523066674949136,1,2,-10,2,5,11,23,4
1523066674949136,-1,-10,-10,0,-5,-2,-9,-1
1523066674969187,0,6,12,-2,0,-3,-11,0
1523066674969187,-2,-6,-17,5,4,3,5,-4
1523066674976516,-1,16,31,0,0,-2,1,0
1523066674976516,-2,-7,-13,-7,-3,-7,0,-2
1523066674991249,3,1,6,4,4,-2,-14,1
1523066674991249,1,-6,-19,-16,-8,0,4,-4
1523066675000269,-2,4,5,1,1,-2,-10,4
1523066675000269,-3,0,7,-5,-3,4,9,4
1523066675023371,1,-10,-26,15,4,-7,-12,-2
1523066675023371,-5,12,38,-7,-8,0,-5,-6
1523066675025870,5,-2,-3,-10,-3,-7,-1,-5
1523066675025870,-9,-9,-8,-1,0,2,0,5
1523066675044923,-2,-1,0,1,-1,0,0,-5
1523066675044923,2,2,-3,13,4,-3,-9,-4
1523066675046892,9,-5,-9,-14,-9,-1,-11,2
1523066675046892,-17,7,4,-3,2,2,9,4
1523066675066947,6,-1,-10,6,7,4,2,-1
1523066675066947,-8,0,-7,-1,1,-1,-3,0
1523066675073500,1,2,23,0,-4,-2,2,1
1523066675073500,3,-4,-8,-2,-2,-3,-10,-7
1523066675097528,-6,-4,8,-5,-6,-4,-6,1
1523066675097528,6,4,3,10,8,1,9,3
1523066675099033,-9,-13,-34,-10,-9,-4,-6,9
1523066675099033,5,4,34,3,-3,-2,13,-16
1523066675120815,-4,1,2,-4,-2,2,-8,-3
1523066675120815,0,-11,-28,3,4,0,0,-2
1523066675123098,1,9,27,0,-7,0,-1,-1
1523066675123098,0,-9,-28,-7,-2,-4,-9,1
1523066675142902,1,3,5,0,1,-2,3,2
1523066675142902,1,-7,-18,-4,-3,-1,2,0
1523066675144653,-9,-5,-7,7,5,0,0,-7
1523066675144653,-2,4,1,-3,-4,-3,-9,-1
1523066675164206,8,-5,-2,0,1,9,15,-6
1523066675164206,-2,-3,-10,-1,0,1,-5,10
1523066675171224,-1,3,-2,-3,-1,1,9,-2
1523066675171224,2,-3,3,-2,-1,-4,-8,-1
1523066675195288,-3,2,-1,-2,-4,-7,-8,-8
1523066675195288,-4,-3,1,-4,-4,-2,-5,-8
1523066675196793,-7,-3,-1,5,4,-1,3,-1
1523066675196793,5,0,-8,-1,4,7,15,11
1523066675217347,6,7,4,-3,-6,-2,-4,-2
1523066675217347,-3,-1,12,-1,5,-1,6,-1
1523066675219351,-4,-3,-6,1,-1,4,13,-6
1523066675219351,2,1,1,1,-3,-8,-13,-6
1523066675239908,-10,-8,0,-4,-1,-3,2,2
1523066675239908,7,1,2,-3,-5,0,-4,-3
1523066675241911,-5,-5,0,2,2,-2,-8,-1
1523066675241911,10,12,-15,-1,0,1,4,-4
1523066675262969,-9,3,12,-2,-2,-6,-14,0
1523066675262969,-4,-3,-12,1,0,-5,-7,-2
1523066675268482,6,2,-8,-3,0,-2,-3,10
1523066675268482,-17,-3,4,7,2,8,4,-2
1523066675293051,3,-6,-6,-7,-8,-3,-5,-1
1523066675293051,-8,4,18,0,1,4,11,-3
1523066675294709,-2,-4,-41,-2,4,3,2,-15
1523066675294709,6,8,61,2,-8,-7,-10,20
1523066675315106,-7,-15,-22,-7,4,-4,-3,-5
1523066675315106,6,10,11,5,0,3,5,0
1523066675316610,3,4,3,4,6,3,2,4
1523066675316610,-8,-24,-61,-14,-5,-4,-5,-12
1523066675322627,-4,18,64,6,-6,-5,1,-3
1523066675322627,1,-10,-31,4,-2,-1,-5,0
1523066675324131,-5,-8,-19,-8,-1,-7,-15,-6
1523066675324131,-1,3,14,11,11,5,0,3
1523066675329551,14,5,3,0,4,1,7,7
1523066675329551,-10,-4,10,6,4,11,18,4
1523066675330148,12,17,-3,-6,-4,-4,2,-6
1523066675330148,-26,-25,-28,-18,-13,-4,-3,-5
1523066675337164,4,-4,-9,0,-1,-4,-7,-7
1523066675337164,-1,2,14,3,0,-6,-8,2
1523066675337667,-7,-3,15,0,-4,-1,2,7
1523066675337667,8,7,-5,0,3,-1,-4,-6
1523066675345187,3,-2,-20,0,-1,0,-3,6
1523066675345187,-3,0,1,-7,-3,-3,-2,-12
1523066675346690,-12,-2,12,3,-2,-3,-13,-3
1523066675346690,10,2,13,2,2,4,12,16
1523066675351747,-4,-4,-21,-1,-3,-2,-19,4
1523066675351747,2,-5,-3,0,1,0,4,-1
1523066675352747,-7,-2,1,-9,-3,8,20,-10
1523066675352747,3,-4,-6,3,2,2,5,-5
1523066675359481,-5,3,30,-1,2,-1,-1,0
1523066675359481,-1,0,2,1,-4,-8,-12,1
1523066675368517,-2,-4,3,-5,-3,-6,-1,-3
1523066675368517,3,-7,-10,2,0,-1,-7,5
1523066675369754,1,18,-1,2,6,8,23,-3
1523066675369754,3,4,14,-5,-5,-4,-6,-2
1523066675370756,-2,-3,0,7,4,0,-7,-6
1523066675370756,0,-2,-10,-9,-4,-3,-2,1
1523066675374770,-2,-6,-6,-1,-4,-3,-7,5
1523066675374770,0,3,-6,-2,0,0,-2,-6
1523066675375270,-2,-1,8,-2,0,-5,-8,-6
1523066675375270,3,-2,-6,1,3,0,0,10
1523066675382786,1,-4,-11,-8,-8,8,19,-3
1523066675382786,-1,-5,-4,-8,-6,-5,-4,1
1523066675384326,-1,-8,-12,4,2,-1,-4,-1
1523066675384326,2,10,0,2,1,2,3,-13
1523066675389530,-4,-8,-11,1,-4,-1,9,7
1523066675389530,5,-4,-10,-3,-2,-3,-18,7
1523066675390306,4,12,17,2,-2,-2,0,-2
1523066675390306,-13,-1,11,-1,-5,-9,-9,-10
1523066675396996,15,3,-16,0,3,1,6,-10
1523066675396996,2,-1,2,-4,3,0,-4,1
1523066675397827,-3,0,1,-2,-5,-5,-8,19
1523066675397827,-2,-12,-18,-2,-1,0,4,-1
1523066675405408,1,3,15,-2,0,-2,-6,-3
1523066675405408,0,-5,7,3,2,-1,13,-2
1523066675406853,6,2,-17,-8,-12,-1,-10,-1
1523066675406853,-1,-8,1,-4,3,0,13,-2
1523066675411362,-12,-13,-13,-1,-2,-6,-29,-4
1523066675411362,4,7,6,6,9,2,23,-13
1523066675419384,-10,-14,-19,-4,-3,3,-8,11
1523066675419384,8,16,6,5,-1,-3,5,4
1523066675433923,2,-1,-6,-3,-2,-2,-4,-3
1523066675433923,-5,-1,-3,-3,-6,1,1,-2
1523066675442446,5,2,8,9,6,0,14,-6
1523066675442446,-7,-11,-11,-9,-4,1,-4,-10
1523066675456831,-1,4,11,1,3,-6,-4,14
1523066675456831,-3,-6,-16,-4,-5,3,-5,8
1523066675465006,-2,-2,2,2,0,1,7,-12
1523066675465006,3,0,2,0,-5,-4,-11,-1
1523066675471021,-6,-3,-17,4,3,1,6,-4
1523066675471021,-10,1,39,-10,-8,-7,-5,0
1523066675480046,11,4,-4,2,4,8,-8,4
1523066675480046,2,6,26,5,0,-2,-5,-4
1523066675494229,-4,-10,-2,-3,-2,-1,1,-3
1523066675494229,-3,-7,-19,-9,-7,-2,-3,3
1523066675502605,-3,-1,3,-1,0,-6,-9,0
1523066675502605,3,5,5,0,0,4,-6,0
1523066675516178,-3,-2,0,-2,-5,1,2,2
1523066675516178,1,-1,-20,5,5,-2,-4,-4
1523066675525768,-1,-1,21,8,2,-7,-11,-7
1523066675525768,0,-1,-4,-18,-8,-2,0,4
1523066675531185,-4,2,10,0,-1,-2,-1,-3
1523066675531185,-2,-4,-8,2,2,2,-10,-2
1523066675540773,-7,7,-1,0,-3,-4,1,-3
1523066675540773,-1,-4,-1,10,2,-3,-7,2
1523066675570285,1,0,1,-11,-3,5,5,-2
1523066675570285,-1,2,-3,-5,-3,-3,-6,8
1523066675571791,-3,-5,-6,-6,-3,-3,4,-9
1523066675571791,0,1,2,1,1,-9,-2,-5
1523066675591341,3,0,2,5,4,15,-3,8
1523066675591341,0,0,-1,1,0,2,13,6
1523066675600366,-13,1,-3,-5,-3,-4,4,-3
1523066675600366,13,-4,-7,-1,-3,2,12,-1
1523066675623815,1,-6,-3,2,-4,-11,-14,-10
1523066675623815,-7,-1,22,-1,0,5,9,-1
1523066675626263,2,1,-12,-1,-3,-1,-10,7
1523066675626263,2,-2,6,-3,-5,-6,-6,-5
1523066675645733,-6,8,14,4,2,1,-7,2
1523066675645733,4,-7,-9,-1,0,-1,8,-6
1523066675646991,-3,-7,1,-6,-4,-9,-1,-12
1523066675646991,-6,1,3,0,3,14,24,22
1523066675667082,8,-2,-19,-1,-1,-6,-14,-2
1523066675667082,3,9,24,5,1,1,-5,-3
1523066675673786,-19,-9,-5,-6,-1,3,3,-6
1523066675673786,-1,-1,-17,0,2,0,6,-6
1523066675688601,-2,-5,10,1,-2,1,10,3
1523066675688601,1,3,-40,-4,1,-2,-3,1
1523066675697626,5,0,24,3,0,2,0,0
1523066675697626,-1,9,13,7,4,2,-12,0
1523066675720691,-5,-8,-23,-13,-6,-4,5,-6
1523066675720691,0,5,22,9,3,-2,-5,1
1523066675722884,3,-13,-18,-12,-5,2,4,13
1523066675722884,-1,4,-15,9,3,-4,-11,-11
1523066675743247,-5,12,37,-6,-4,0,1,-6
1523066675743247,2,-6,-37,1,-3,-1,-5,-9
1523066675744619,2,7,56,5,4,-2,-1,4
1523066675744619,-3,-13,-9,-16,-12,-2,11,25
1523066675749767,4,13,-4,10,9,2,-4,-15
1523066675749767,-5,-2,-13,-4,-2,7,-1,13
1523066675750266,4,-6,-14,-3,-5,-12,-27,-19
1523066675750266,-2,14,16,3,2,-4,-3,-15
1523066675773037,-6,-8,-3,-9,-8,-1,11,6
1523066675773037,3,-3,2,5,1,-4,-3,0
1523066675774688,1,0,-8,1,1,5,-1,3
1523066675774688,-9,-7,2,0,-2,-3,-10,-8
1523066675793880,3,2,-8,1,2,-8,3,-1
1523066675793880,2,0,6,-7,-7,-4,-3,-5
1523066675803908,-2,-2,0,-1,-2,2,5,16
1523066675803908,-4,2,-5,-1,0,-3,-6,-7
1523066675825357,2,3,30,0,2,5,1,1
1523066675825357,-7,-10,-18,-5,-5,-10,-14,-18
1523066675826469,0,4,-12,3,2,9,32,9
1523066675826469,-6,-7,0,-9,-4,-2,-19,1
1523066675847524,12,-4,4,10,4,5,6,0
1523066675847524,3,2,18,-3,-3,1,2,1
1523066675849028,2,1,-10,-4,-1,-4,-5,-2
1523066675849028,-3,-3,3,5,2,2,12,-5
1523066675870084,-11,-11,-15,-2,-2,-6,-17,-4
1523066675870084,2,6,15,3,3,-1,2,4
1523066675876603,-1,-4,-11,-4,-7,-1,6,-1
1523066675876603,-5,-3,-8,0,4,2,-12,-9
1523066675891641,-3,-8,-16,-10,-11,-6,-1,3
1523066675891641,4,6,8,5,1,5,5,-5
1523066675900164,0,0,9,-2,0,-3,4,-1
1523066675900164,-8,-3,-25,-1,1,2,-2,6
1523066675923225,4,8,34,3,-2,0,20,0
1523066675923225,-4,-3,-10,-7,-1,-1,-15,3
1523066675925732,-2,-11,-3,2,-3,-7,4,4
1523066675925732,5,6,-16,-2,1,0,-4,-3
1523066675945680,-7,-2,-5,-2,0,5,9,-5
1523066675945680,-6,-3,19,2,-2,-5,-8,-2
1523066675946787,7,3,-10,-3,2,2,-4,-7
1523066675946787,4,-1,15,-1,-3,0,6,7
1523066675966878,-5,1,-9,2,1,0,0,8
1523066675966878,0,0,-3,-3,-2,-4,-5,-14
1523066675973858,-7,-2,-13,2,0,1,-9,-4
1523066675973858,-2,0,42,-7,-6,-2,0,1
1523066675997422,-1,-10,-28,-3,-3,-8,-17,-10
1523066675997422,-1,-3,12,-2,0,-1,7,4
1523066675999428,-3,-3,-24,6,2,0,-3,12
1523066675999428,-4,3,14,-4,-4,-5,-17,-10
1523066676020986,-2,-4,17,0,2,2,15,-1
1523066676020986,-3,-3,-16,-7,-4,-1,4,0
1523066676022491,-1,2,3,12,11,1,3,-8
1523066676022491,4,-5,-15,-7,-10,-1,-5,14
1523066676043043,2,2,-7,-6,-6,-4,-4,4
1523066676043043,-3,-5,-6,4,1,-1,5,-6
1523066676044738,0,4,2,-6,0,1,-6,-7
1523066676044738,-2,-6,-7,2,-4,0,13,-5
1523066676063599,-4,1,-13,0,0,-1,-1,0
1523066676063599,8,-1,8,1,-1,0,-4,6
1523066676072624,-1,0,4,-2,-3,-5,-13,-3
1523066676072624,-4,-11,-30,6,6,4,19,-9
1523066676095181,6,13,30,-9,-10,10,-9,9
1523066676095181,2,-3,-20,-2,1,-4,-1,1
1523066676096686,-9,1,29,7,4,0,-2,-4
1523066676096686,-7,-1,-1,0,0,-1,3,0
1523066676117743,11,-6,-19,-4,-1,-6,-10,-6
1523066676117743,8,21,-1,-1,0,-4,-9,5
1523066676119249,5,-6,-15,-5,-4,3,2,-6
1523066676119249,-3,2,16,15,12,-2,-13,-3
1523066676140681,-8,-7,-9,-13,-7,-5,-1,-2
1523066676140681,-2,-3,0,-4,-3,-6,-2,2
1523066676146317,1,2,-10,1,-3,-3,-1,3
1523066676146317,-1,1,-4,0,3,1,6,-6
1523066676161359,-4,-7,-7,2,-2,-3,-5,0
1523066676161359,-5,-4,8,-6,-6,1,1,-3
1523066676170565,0,2,5,1,0,2,0,-3
1523066676170565,6,3,3,-9,-10,-1,1,8
1523066676193110,-2,1,7,11,11,-1,-9,3
1523066676193110,-5,-14,-22,-15,-11,-2,3,-6
1523066676194480,-4,-2,5,0,0,-3,2,-8
1523066676194480,1,-1,-6,-3,-3,-6,-12,-2
1523066676215002,-3,-1,-13,4,2,-3,1,5
1523066676215002,0,-3,-11,5,4,2,-3,-3
1523066676216505,-5,-6,-8,-12,-6,-1,10,2
1523066676216505,4,5,15,-6,-1,2,5,-1
1523066676237060,-5,-11,-8,1,3,4,-8,-5
1523066676237060,-3,1,-4,7,2,0,1,-3
1523066676245082,0,0,5,-6,-6,-7,-21,-2
1523066676245082,-2,1,-9,-2,-2,-1,24,-2
1523066676267641,-5,-5,4,4,1,-3,-19,-4
1523066676267641,-2,2,13,-2,-4,-7,5,5
1523066676269146,9,3,-1,3,3,7,-9,-5
1523066676269146,-8,-4,2,-4,-6,-8,-13,2
1523066676290565,-3,-2,-2,-1,-1,-7,-16,-15
1523066676290565,2,-2,7,2,6,16,39,22
1523066676292242,-3,9,4,-6,-7,-13,-19,-8
1523066676292242,-9,-9,-6,1,5,6,-8,-8
1523066676312810,-6,5,-18,-2,1,0,1,-5
1523066676312810,1,5,39,-2,-3,-4,6,34
1523066676314318,-3,6,29,0,-1,-3,-2,-2
1523066676314318,16,-4,-17,-2,-1,-1,-13,-10
1523066676334944,-12,-5,0,1,-1,-1,9,-9
1523066676334944,-4,-7,-14,-3,-3,-2,-7,-20
1523066676341888,3,-1,1,4,0,6,12,16
1523066676341888,2,8,12,-4,-2,-10,-9,-2
1523066676349910,7,5,13,8,3,1,6,3
1523066676349910,-10,-16,-29,-17,-6,-7,-6,-3
1523066676350374,7,7,5,11,4,2,5,3
1523066676350374,-9,-20,-18,-23,-13,-7,-8,-1
1523066676372934,3,6,6,-5,1,7,12,-3
1523066676372934,-2,0,-17,-4,1,1,-6,-9
1523066676374708,-7,-18,-42,1,-2,-5,2,-5
1523066676374708,1,36,66,25,13,16,10,16
1523066676379952,12,-17,5,-22,-20,-15,-8,6
1523066676379952,8,7,-9,2,4,0,-3,-16
1523066676381456,-11,-2,-4,2,2,-8,-9,-5
1523066676381456,-2,-8,-15,-1,1,4,-1,4
1523066676386972,7,8,-13,-2,-3,0,7,2
1523066676386972,-15,1,42,3,-2,-2,-17,-8
1523066676388048,6,-5,-11,-5,-1,-4,-13,1
1523066676388048,1,1,-5,1,-4,-2,-5,-5
1523066676402056,1,4,2,5,9,3,16,3
1523066676402056,2,-6,-5,0,-3,0,-1,0
1523066676402512,-5,5,3,-2,-1,0,1,-2
1523066676402512,-3,-5,6,5,1,-3,-9,1
1523066676417442,-1,-1,-5,-12,-4,-2,-10,1
1523066676417442,-3,-1,-18,6,-2,0,18,-2
1523066676425777,-4,-10,-22,-2,5,0,-14,3
1523066676425777,7,8,22,-3,-6,-3,-1,0
1523066676447617,-3,3,-2,1,-3,-7,1,-7
1523066676447617,-1,1,10,-1,1,3,-20,-1
1523066676449127,3,5,-10,-3,-1,3,11,-4
1523066676449127,-17,-15,-25,-1,-3,-2,15,-3
1523066676469174,6,-3,-1,6,0,0,-11,-2
1523066676469174,1,0,2,1,0,1,-5,0
1523066676477698,1,-5,10,-11,-8,-3,9,12
1523066676477698,2,1,-8,-4,2,-3,-1,-4
1523066676491638,-5,0,7,5,-1,-1,-11,-1
1523066676491638,3,3,-6,2,2,4,17,-7
1523066676500260,2,-3,1,4,1,1,-10,-2
1523066676500260,1,-2,10,-10,-10,-3,-4,-3
1523066676523318,-14,-8,-19,0,-6,-4,-3,-2
1523066676523318,4,1,3,6,5,-1,-11,-5
1523066676525826,-7,6,-5,-6,2,9,38,3
1523066676525826,5,-6,-14,4,-1,-3,-6,-4
1523066676545755,1,2,3,2,0,-1,-3,13
1523066676545755,-6,0,18,-2,-3,-2,-5,-5
1523066676546881,-5,-10,3,-2,-3,-2,-7,-7
1523066676546881,9,5,-18,2,2,-1,4,6
1523066676567334,-6,0,-10,-1,2,2,12,-14
1523066676567334,-3,-5,6,-4,0,-3,6,8
1523066676573952,1,1,6,0,3,1,-3,-4
1523066676573952,0,-1,-4,-3,-1,-4,-6,-6
1523066676597514,-13,-9,-26,-4,-3,-2,-6,10
1523066676597514,15,13,25,7,2,3,7,1
1523066676599020,-7,-7,-2,-11,-12,-4,-1,-1
1523066676599020,-7,-4,4,3,3,-7,-23,-4
1523066676620578,-1,-6,3,0,-1,5,20,4
1523066676620578,-5,-3,-20,-3,0,-1,-3,-6
1523066676622842,-2,5,22,2,-2,-5,-15,-3
1523066676622842,1,-7,-26,-3,-3,-2,-2,-12
1523066676643137,5,9,29,5,5,2,0,3
1523066676643137,2,-6,-15,-2,-4,-4,5,9
1523066676644700,-8,0,8,4,4,0,1,-2
1523066676644700,-1,-3,-12,-3,1,-2,-4,0
1523066676664695,3,-6,-16,-1,6,2,-8,-9
1523066676664695,1,11,24,7,0,-2,-9,-2
1523066676671216,6,4,5,4,-1,0,8,4
1523066676671216,-6,-1,9,-4,-7,-2,-5,-5
1523066676695276,-2,-11,-18,-5,-2,2,8,-11
1523066676695276,1,-2,-19,-2,4,1,0,18
1523066676696786,3,2,31,-4,-5,-2,-4,0
1523066676696786,-2,-1,-2,18,10,6,13,4
1523066676717561,2,1,-3,-21,-8,-4,-9,1
1523066676717561,-4,2,25,1,0,0,-3,-11
1523066676719340,-3,0,-1,2,-1,-7,-11,-8
1523066676719340,-3,1,3,-9,1,10,45,10
1523066676739945,17,7,6,13,3,-5,-29,-5
1523066676739945,-7,-6,-11,0,0,2,18,-3
1523066676747491,-1,-9,-28,-6,-3,4,24,8
1523066676747491,-1,0,8,-1,-5,-6,-9,0
1523066676754509,-7,1,10,-1,-1,-1,-4,-3
1523066676754509,-4,-4,-7,-6,-1,-1,-6,-7
1523066676755708,3,1,3,2,-2,-3,-7,-2
1523066676755708,-1,-2,-7,-5,-4,1,-1,-2
1523066676777617,-3,1,9,1,1,-2,8,1
1523066676777617,-2,-1,-7,-3,0,2,3,1
1523066676779081,-4,-8,-15,-4,-2,-8,-16,-8
1523066676779081,0,-1,5,-5,0,0,-6,1
1523066676799639,-4,-3,4,2,-3,-1,-16,5
1523066676799639,-3,-4,-6,-4,-7,-15,-9,-8
1523066676807913,10,6,1,-1,11,28,21,12
1523066676807913,-3,-4,-2,-1,-3,-5,-18,-3
1523066676829971,-1,-1,5,3,0,-9,-12,-6
1523066676829971,-7,-6,-12,-6,-11,-24,-34,-12
1523066676831477,-7,-5,-3,-3,-5,-1,8,-7
1523066676831477,5,8,10,3,5,8,5,11
1523066676836991,-5,1,-1,-1,-5,-3,16,-2
1523066676836991,1,-5,-2,-1,-2,1,-12,-1
1523066676838212,-4,-5,-19,-5,-4,-14,-11,-19
1523066676838212,1,7,35,1,0,-3,-4,0
1523066676845512,-8,-2,-23,-3,0,0,8,6
1523066676845512,6,7,17,0,2,-1,-10,-12
1523066676846520,2,3,-7,-3,1,3,1,5
1523066676846520,2,2,1,1,-3,1,7,5
1523066676852386,-5,-8,2,2,2,2,1,11
1523066676852386,1,-7,-25,-1,-2,-1,7,2
1523066676852533,4,12,30,6,7,3,0,-8
1523066676852533,-5,-1,-4,-8,-7,-4,-8,-10
1523066676860052,4,1,-11,13,5,-3,5,-4
1523066676860052,-4,-12,-26,-21,-1,5,10,7
1523066676861320,-1,4,37,-10,-12,-2,-4,1
1523066676861320,-2,5,-16,12,7,-6,-4,-5
1523066676867395,3,6,20,-4,-12,2,-7,0
1523066676867395,0,-9,-22,10,16,15,35,3
1523066676867573,6,-7,-23,-18,-17,-14,-17,3
1523066676867573,-13,-11,9,2,0,-9,-11,-6
1523066676874526,0,-3,-2,17,19,16,38,12
1523066676874526,8,7,4,-28,-25,-11,-20,-7
1523066676875152,-22,-8,-3,9,14,3,14,-6
1523066676875152,6,-7,-20,-8,-7,-1,-6,11
1523066676882671,-2,-3,2,7,-1,-10,-32,-3
1523066676882671,-6,-4,-11,6,3,-5,-11,-7
1523066676884229,7,6,6,-3,1,12,35,8
1523066676884229,-1,4,11,-2,-4,-2,-6,-13
1523066676889876,-11,-9,-22,-6,1,-3,-4,-3
1523066676889876,4,8,30,6,5,12,5,10
1523066676890192,3,-2,-13,3,-6,-8,-15,0
1523066676890192,0,-6,-47,-4,2,-2,-3,-5
1523066676896709,6,8,53,-11,-2,14,12,-1
1523066676896709,-5,0,6,0,-4,-9,-19,-6
1523066676897746,-4,-3,-15,8,6,2,-2,0
1523066676897746,4,-2,-5,-4,5,7,9,4
1523066676905231,-1,0,3,-7,-7,-6,-2,-5
1523066676905231,-4,0,-14,7,1,-1,1,-3
1523066676906736,3,1,9,11,3,-3,-9,-5
1523066676906736,-3,-5,11,-17,-13,-6,-7,11
1523066676912249,-2,-3,-2,-8,-2,0,16,-8
1523066676912249,0,7,12,5,0,-2,-12,0
1523066676912752,5,-10,-23,1,-5,-10,-20,-3
1523066676912752,1,4,11,4,3,12,51,9
1523066676919270,3,2,-9,0,0,-3,-10,-6
1523066676919270,-4,-9,-10,-9,-3,-2,6,1
1523066676920272,-3,6,17,-1,-2,-5,-12,-8
1523066676920272,-2,-4,-7,2,0,-6,-14,-4
1523066676928295,3,0,0,1,3,-2,6,-3
1523066676928295,0,-3,-9,-3,6,14,8,13
1523066676929294,2,5,4,3,1,0,-1,2
1523066676929294,-6,-4,-9,-17,-8,-11,-20,-12
1523066676933806,-2,-2,0,3,1,6,25,0
1523066676933806,0,5,7,5,-1,-2,13,-7
1523066676942833,-3,-10,-26,-8,-3,2,-1,3
1523066676942833,5,-3,8,3,2,4,14,3
1523066676956366,-3,1,-17,-4,-5,-2,-7,0
1523066676956366,-3,2,15,-3,-8,-8,-11,-4
1523066676965391,4,-7,4,1,9,8,28,7
1523066676965391,-1,9,-12,0,1,-1,-18,-12
1523066676979428,-8,-5,1,0,-3,-6,-11,2
1523066676979428,10,5,5,7,4,-1,-1,11
1523066676986387,-3,-8,-7,-6,-3,-6,-12,-6
1523066676986387,-1,-9,-9,-4,-1,-1,10,12
1523066676993852,-1,1,-4,-8,-2,2,-8,-10
1523066676993852,-1,4,11,10,0,-6,-11,-7
1523066677002876,-3,-5,-28,-10,-8,-2,-2,-2
1523066677002876,-2,2,35,8,4,6,9,-1
1523066677031465,-6,2,-5,0,-2,-5,-17,0
1523066677031465,3,-12,1,1,-2,-2,-2,1
1523066677039976,-2,-2,-3,-16,-11,-1,-12,0
1523066677039976,0,2,-3,21,8,4,32,-3
1523066677063043,0,8,21,-15,-6,-1,1,5
1523066677063043,-8,-15,-48,-12,-7,-4,-1,-3
1523066677065585,0,9,64,13,3,-1,1,0
1523066677065585,-4,-4,-14,-1,-3,-5,-15,-4
1523066677085122,8,6,-5,5,4,3,6,-2
1523066677085122,-3,5,12,0,1,2,-11,-5
1523066677087251,-4,-8,-23,-4,-6,-4,-8,-1
1523066677087251,-7,-4,-20,-13,-3,1,-6,-16
1523066677108046,5,-1,37,5,-1,-6,15,17
1523066677108046,3,4,-18,1,1,2,-2,7
1523066677109159,2,13,16,-5,-6,-1,4,-5
1523066677109159,-1,-2,9,0,-3,-5,-14,-7
1523066677128936,-9,-14,-24,1,3,-1,-5,-10
1523066677128936,-2,-1,9,-9,-5,-1,-2,-2
1523066677138101,-2,-1,-7,11,6,2,14,5
1523066677138101,2,1,-4,-4,-5,-2,-6,1
1523066677160061,1,0,-14,-4,-5,-4,-14,-4
1523066677160061,-3,6,7,2,-1,-2,17,-2
1523066677162096,0,-8,-22,-4,-1,-1,-6,0
1523066677162096,-9,5,22,-3,-3,0,-7,-1
1523066677183111,14,-5,-21,3,0,-1,-2,-2
1523066677183111,-3,2,14,-4,-3,1,15,-7
1523066677185620,-4,-6,-8,0,1,-8,-14,-1
1523066677185620,-2,0,0,1,3,4,7,8
1523066677205589,-3,-3,1,-1,1,6,0,-2
1523066677205589,-3,-1,2,1,0,-7,-11,-4
1523066677207246,0,4,2,-4,-1,2,19,3
1523066677207246,2,-3,-7,-2,-4,-5,-34,-5
1523066677226226,1,-5,6,-2,-3,-4,-3,-1
1523066677226226,-2,2,-6,-5,-7,-6,-6,-9
1523066677235047,-5,-1,2,-1,2,2,-1,3
1523066677235047,-2,-4,-6,-1,1,1,-4,-3
1523066677257496,-4,-7,-37,-6,-6,-6,-3,-1
1523066677257496,16,6,11,3,2,-1,-1,4
1523066677259538,-19,-7,19,4,-2,0,1,-1
1523066677259538,-2,0,-6,-2,1,-3,5,-4
1523066677280801,5,10,7,-3,-1,3,-6,5
1523066677280801,-4,-8,-11,-1,0,1,-3,-1
1523066677282910,9,3,3,2,0,0,-1,-4
1523066677282910,-2,-10,-13,-1,-1,-2,0,3
1523066677302771,-4,0,7,1,0,-3,5,-3
1523066677302771,-6,-4,-7,-2,-1,-2,-5,-1
1523066677304118,2,14,31,11,13,5,2,-1
1523066677304118,-4,-11,-19,-20,-17,-3,2,1
1523066677323655,-3,-8,-23,-3,0,-3,2,-7
1523066677323655,-4,8,42,9,4,6,12,6
1523066677333276,10,-4,-47,-7,-10,-7,-8,5
1523066677333276,-10,-6,37,-11,-5,2,7,-6
1523066677355592,-4,12,-6,16,10,0,-6,-4
1523066677355592,-3,-18,-25,-2,0,-4,-27,-10
1523066677356736,-20,-19,-20,1,-1,-2,8,6
1523066677356736,17,21,-7,7,12,6,9,12
1523066677378156,5,-1,4,-22,-7,2,-5,6
1523066677378156,-18,-1,6,9,10,-4,-4,-6
1523066677379288,8,11,-16,-7,-10,-4,-2,-11
1523066677379288,-12,-11,7,15,6,-5,-4,-11
1523066677400214,-1,-7,15,-7,-9,-3,-2,-3
1523066677400214,1,-1,-7,1,3,2,4,-1
1523066677406755,-2,-8,-2,1,3,-3,-8,4
1523066677406755,0,4,-8,-13,-10,2,9,14
1523066677421788,0,3,15,11,3,-3,-6,-7
1523066677421788,-2,-9,-20,-8,-6,-1,2,3
1523066677435937,3,12,36,15,2,-2,-15,-11
1523066677435937,8,4,10,-15,-5,-1,9,3
1523066677452482,-3,-10,-10,5,5,8,3,3
1523066677452482,-12,-1,-12,-11,-6,-2,22,-1
1523066677454641,-3,-12,-10,-1,2,-5,4,-1
1523066677454641,6,9,33,10,3,-6,-52,-6
1523066677475450,0,6,-8,-9,-7,-5,27,4
1523066677475450,5,-1,-2,0,-4,0,-4,-4
1523066677477226,4,5,12,-6,-2,5,4,-1
1523066677477226,-1,-5,-18,8,1,-4,3,-2
1523066677497972,-8,-8,-5,-3,-7,-4,-10,-5
1523066677497972,10,10,10,-2,3,2,-1,1
1523066677499108,3,-1,-11,-5,-3,-1,3,6
1523066677499108,-4,-6,-7,5,6,0,-9,-8
1523066677518658,-3,-2,-1,1,0,0,-2,-5
1523066677518658,-3,-7,-14,-13,-5,-1,8,12
1523066677527682,4,3,8,-2,0,1,-6,-2
1523066677527682,-4,-2,-12,3,4,1,0,-4
1523066677550609,-4,-2,1,-1,-1,-7,-17,-5
1523066677550609,-2,-9,-4,1,0,9,24,-1
1523066677551751,0,5,2,-1,1,-2,-15,2
1523066677551751,0,0,-3,-1,-2,10,28,-3
1523066677572803,-5,3,5,1,1,0,-1,1
1523066677572803,1,-5,-9,-2,-6,-6,-14,-1
1523066677574306,0,-3,7,-3,-2,-6,-9,-3
1523066677574306,3,9,6,5,2,2,12,-6
1523066677595361,5,1,-3,-8,-3,-4,-5,-5
1523066677595361,-12,-12,-11,-2,-3,2,1,8
1523066677596865,4,6,30,-3,-4,3,7,11
1523066677596865,-3,-7,-24,0,-1,-8,-21,-3
1523066677617319,-2,0,14,7,4,1,3,-3
1523066677617319,5,3,-2,-3,1,-1,-20,-16
1523066677625442,-5,-5,-20,0,2,11,35,4
1523066677625442,-2,-8,-7,-10,-9,-1,7,9
1523066677647742,0,2,0,1,0,-3,-7,-4
1523066677647742,4,8,16,13,3,-6,-11,0
1523066677649679,-8,-10,-14,-10,-4,-3,-12,-1
1523066677649679,8,4,6,4,4,0,-1,1
1523066677670060,-8,-6,6,3,-3,-1,5,-2
1523066677670060,-1,-2,-34,-4,-5,-3,4,-6
1523066677671565,5,12,32,16,3,-3,-9,-6
1523066677671565,-4,-14,-39,-22,-10,-1,4,1
1523066677692314,1,18,29,9,5,-4,-11,-1
1523066677692314,1,-12,-26,-2,-4,0,8,1
1523066677699203,-6,-1,-9,-5,-5,-3,-9,-4
1523066677699203,2,1,0,7,3,-2,-7,1
1523066677713682,0,-4,-13,-6,-4,-1,-16,1
1523066677713682,4,7,16,3,2,9,22,11
1523066677723202,-4,-7,-13,-2,-1,-6,-8,-16
1523066677723202,-1,2,3,3,3,-4,-6,0
1523066677745220,-1,-8,-13,-15,-9,6,10,1
1523066677745220,8,3,19,2,-2,-6,-12,-3
1523066677746729,-1,-6,-12,2,1,-1,1,-3
1523066677746729,0,3,-1,2,-1,-3,-6,-4
1523066677768177,-3,-3,16,11,3,3,8,8
1523066677768177,4,-4,-28,-17,-10,-7,-6,0
1523066677769284,-12,6,35,-2,-3,2,6,-3
1523066677769284,4,-3,18,4,-2,-5,1,-2
1523066677789889,0,-1,-13,4,1,1,1,-1
1523066677789889,-3,0,5,4,2,0,-5,-8
1523066677796360,1,-3,-20,-2,0,-1,4,-2
1523066677796360,-6,2,8,0,0,-2,-13,0
1523066677811396,1,-9,-4,-4,0,-1,-6,1
1523066677811396,1,18,25,2,2,2,6,1
1523066677820650,2,-8,-18,-7,-1,1,17,3
1523066677820650,-4,4,20,3,-3,4,-5,-2
1523066677843483,0,0,-6,-9,-4,-1,13,-7
1523066677843483,-7,-1,0,1,-2,-3,-13,-8
1523066677844985,-1,-2,-3,-1,-1,-2,-10,4
1523066677844985,-2,-4,-4,-3,-4,-3,6,-3
1523066677866898,5,0,-15,2,3,7,12,6
1523066677866898,-6,-3,23,-3,-5,-10,-17,-9
1523066677868548,3,-1,-15,2,4,4,10,-1
1523066677868548,-2,-7,-16,-2,0,-3,-2,-5
1523066677886537,0,2,11,-3,-4,-7,-14,0
1523066677886537,0,-1,-4,3,5,2,7,9
1523066677895404,-1,-2,3,1,-3,-3,-7,-4
1523066677895404,-3,-4,-8,-11,-7,0,5,-3
1523066677918083,-2,3,-2,-3,0,-1,0,-5
1523066677918083,-4,-3,2,2,-1,1,0,0
1523066677919540,6,-1,-16,-7,2,-4,-4,0
1523066677919540,-8,7,13,5,3,0,6,3
1523066677939554,3,-10,-2,-5,-4,-3,-5,3
1523066677939554,1,-4,2,13,6,-3,0,-7
1523066677947575,6,-7,-21,-14,-6,2,-5,-1
1523066677947575,-25,-1,9,-4,2,-11,-28,-17
1523066677970135,-4,-3,-15,13,3,13,34,15
1523066677970135,-4,1,6,-20,-15,0,19,12
1523066677971642,7,16,62,24,10,-2,-14,1
1523066677971642,13,-5,-22,18,16,12,14,-8
1523066677991583,-5,-7,-13,-24,-14,-11,4,-3
1523066677991583,-2,-5,-35,21,12,-6,-22,-3
1523066678000718,-2,12,25,-28,-19,10,17,4
1523066678000718,2,-13,-15,-4,0,-2,-1,3
1523066678001993,3,10,1,36,21,-3,-17,-12
1523066678001993,2,-3,4,-32,-21,5,40,6
1523066678008188,-7,-7,-12,2,-2,-9,-16,-5
1523066678008188,1,7,9,4,4,4,-2,6
1523066678014899,2,0,-4,-4,-5,-6,-13,2
1523066678014899,-4,-3,-5,-1,-1,-6,-23,-7
1523066678015032,-5,-1,-1,5,0,-2,-3,-2
1523066678015032,6,2,11,-4,-2,2,11,5
1523066678022945,-4,-8,-10,-8,0,2,-9,-4
1523066678022945,-2,-5,12,4,2,4,-12,-1
1523066678023554,-19,1,11,-3,-3,-1,10,-5
1523066678023554,32,3,-21,-5,-7,-8,-20,7
1523066678029068,-4,-3,-8,-7,-6,-2,-5,-5
1523066678029068,-5,-3,9,1,1,-2,-3,-7
1523066678030651,-1,-6,-6,10,6,-2,4,7
1523066678030651,-7,1,1,-7,-4,-2,8,0
1523066678037401,-1,4,9,3,-1,0,-3,3
1523066678037401,4,1,-3,1,-1,8,8,0
1523066678037592,1,-5,-32,-6,0,-3,-2,-3
1523066678037592,-6,6,17,1,1,-2,7,1
1523066678045112,0,-4,-5,-9,-4,-3,-2,-2
1523066678045112,-8,3,24,3,3,1,1,-4
1523066678046615,7,-6,-22,3,2,-6,-19,-1
1523066678046615,-3,0,12,9,3,12,30,6
1523066678051629,-3,-10,-23,-17,-10,-3,5,-8
1523066678051629,2,11,35,9,7,3,-4,8
1523066678052630,0,-4,-12,-1,-1,-2,-12,-2
1523066678052630,-6,-7,0,-1,-4,-1,0,-5
1523066678059679,-3,9,26,0,-5,-6,-6,-1
1523066678059679,10,-5,-6,0,0,0,-4,-1
1523066678068173,-7,1,-14,-8,-6,-3,14,0
1523066678068173,-6,-5,-11,-6,-9,-8,-18,2
1523066678069389,-2,-3,15,-1,-1,-1,7,-13
1523066678069389,-10,-6,-24,-5,-3,-7,9,-2
1523066678070679,19,17,42,12,4,-3,-20,6
1523066678070679,-5,-9,-25,-13,-13,5,4,-5
1523066678074904,2,-3,6,-3,0,-2,-3,8
1523066678074904,2,3,-1,5,4,0,-6,-3
1523066678075200,-5,-9,-14,-1,-3,-2,5,-4
1523066678075200,-3,0,5,3,6,0,0,-1
1523066678082713,-3,3,12,-5,-4,-7,-13,-10
1523066678082713,3,-4,-15,-6,-1,5,9,1
1523066678084215,-4,4,23,13,7,-1,0,-4
1523066678084215,1,-6,6,-12,-6,-6,-3,-2
1523066678089228,0,3,-13,3,-2,8,6,11
1523066678089228,-2,-2,-1,-2,-2,-6,-6,2
1523066678090231,-4,-7,-14,-8,0,1,5,-4
1523066678090231,0,3,-13,10,11,2,-7,-5
1523066678112718,-4,-2,22,1,-1,-5,-5,2
1523066678112718,-3,-4,-13,-1,-2,1,4,-1
1523066678114223,1,4,2,-3,0,3,-7,-1
1523066678114223,-3,-8,-21,-4,0,3,14,-3
1523066678134276,-2,-1,7,-1,1,-6,0,5
1523066678134276,3,9,18,-5,-6,-1,3,-2
1523066678142801,-1,-9,-15,-6,-3,-3,-7,-5
1523066678142801,-1,-1,11,5,4,-3,3,7
1523066678157337,2,0,-8,-20,-14,1,-4,-5
1523066678157337,2,-2,1,0,1,2,-1,-2
1523066678165361,-6,-5,-8,-1,-2,-1,4,-2
1523066678165361,0,6,21,1,-4,-9,-15,-4
1523066678187812,-2,-1,-10,5,4,-1,2,2
1523066678187812,-1,-3,-13,2,2,-3,-9,-5
1523066678189724,7,2,16,-11,-6,3,8,3
1523066678189724,1,2,-6,3,-3,-4,-10,0
1523066678210521,-5,-1,7,6,8,7,12,-2
1523066678210521,-6,-4,-1,-3,-2,-3,-9,-5
1523066678211483,0,1,-9,1,1,-1,7,4
1523066678211483,-1,0,8,-5,-3,4,26,3
1523066678232422,1,2,-3,4,0,-4,-39,-5
1523066678232422,-1,0,-6,-3,-1,-1,12,-2
1523066678239063,-1,-2,-7,-2,2,3,16,-7
1523066678239063,-1,-2,5,-3,-4,-7,-14,0
1523066678254220,5,-2,-12,-1,2,2,16,-4
1523066678254220,-7,-4,-1,-1,-2,-5,-20,13
1523066678263581,0,3,-14,3,4,2,-2,-2
1523066678263581,-3,-3,25,1,1,3,13,1
1523066678285318,10,1,-3,5,6,2,4,0
1523066678285318,-17,-10,-1,-7,-8,-14,-16,-11
1523066678286646,3,2,13,0,-3,1,5,4
1523066678286646,5,-1,-30,-5,-1,0,-5,-8
1523066678308087,-15,-5,6,2,0,-8,-12,5
1523066678308087,13,10,-3,0,0,4,10,3
1523066678309203,-9,-8,-6,0,-1,-5,-13,-6
1523066678309203,3,3,-3,7,9,5,8,2
1523066678328755,-5,-7,4,-12,-10,-2,4,0
1523066678328755,4,8,-15,2,4,0,0,-4
1523066678345236,-12,-18,-35,-13,-8,-5,-6,-4
1523066678345236,2,5,22,0,1,-7,-19,2
1523066678360129,-1,4,15,31,17,1,5,-3
1523066678360129,3,-13,-30,-30,-17,-4,2,7
1523066678361780,3,5,34,1,-2,-5,-3,-5
1523066678361780,-1,0,6,12,6,3,-11,2
1523066678381512,1,-4,-30,-32,-22,-4,5,7
1523066678381512,2,10,34,11,3,-6,-17,-3
1523066678390357,13,0,-10,5,6,14,29,1
1523066678390357,-29,-17,-8,4,-8,-8,-55,-10
1523066678412415,15,13,5,-20,-5,8,32,10
1523066678412415,-2,-14,-30,4,8,4,5,4
1523066678413918,-3,4,19,-10,-8,-5,-19,-1
1523066678413918,-6,2,-1,11,-2,0,2,-4
1523066678434975,17,-7,-12,2,1,0,-2,-5
1523066678434975,-5,-1,1,3,-1,-7,-10,-9
1523066678437110,0,4,-13,-2,-3,-2,-1,5
1523066678437110,1,-2,23,-3,1,0,2,0
1523066678457335,-9,7,1,1,-3,-6,-12,-3
1523066678457335,4,-2,-3,-3,0,6,26,1
1523066678465054,-5,-5,-3,8,3,0,-6,-8
1523066678465054,2,0,-9,-15,-7,-4,12,7
1523066678487614,-1,1,-3,-6,-5,-7,-24,2
1523066678487614,-3,4,14,7,1,1,6,-3
1523066678489120,-2,-4,-16,0,3,3,6,-5
1523066678489120,0,4,16,-5,-2,0,8,-3
1523066678510530,-5,-9,-10,9,6,-1,-8,-8
1523066678510530,-2,3,30,1,-1,-1,-10,-2
1523066678511681,-7,-5,-6,-2,-4,-1,-7,-1
1523066678511681,16,6,-12,-5,0,1,14,7
1523066678532523,-15,-6,-1,5,4,-2,-4,0
1523066678532523,1,4,12,2,3,4,-4,-4
1523066678538754,0,0,10,-3,0,-3,6,2
1523066678538754,1,1,-2,-2,-5,-4,-6,-1
1523066678553939,-1,-4,-8,-4,-5,-4,4,-6
1523066678553939,-2,-2,-5,0,-1,-3,2,-2
1523066678563316,1,-2,10,4,1,6,7,2
1523066678563316,1,-2,-16,-8,-2,1,-7,16
1523066678584874,0,-3,-3,-3,0,3,4,-6
1523066678584874,-1,1,6,9,3,1,-4,-7
1523066678586882,-2,0,10,-9,-9,-6,1,-4
1523066678586882,-2,2,3,-1,-1,0,-14,-13
1523066678607777,-2,-2,-2,5,1,2,32,11
1523066678607777,-2,-8,-7,-8,-5,-4,-16,-1
1523066678609633,-3,-6,-21,2,0,-6,-10,-3
1523066678609633,1,6,-10,-3,0,-5,13,1
1523066678629491,-6,-6,12,-4,-3,-5,-9,-9
1523066678629491,2,1,-10,4,5,0,3,-1
1523066678636257,7,0,-1,6,7,9,8,2
1523066678636257,-11,-7,-6,-2,0,1,-1,2
1523066678651050,0,0,0,-3,-4,-4,-7,-5
1523066678651050,0,4,-1,-1,1,0,-5,2
1523066678660075,-1,-5,-1,-4,-6,-8,-14,-2
1523066678660075,2,-3,-11,7,3,-4,-4,-3
1523066678683485,0,7,24,6,6,10,10,0
1523066678683485,0,2,4,-9,-6,3,8,-2
1523066678685641,-7,-11,-15,-10,-3,-7,-10,1
1523066678685641,0,5,2,9,3,-6,-4,-15
1523066678705549,3,-1,6,-4,-5,0,1,10
1523066678705549,4,4,0,9,3,-2,-14,9
1523066678707236,0,3,-1,1,0,-2,11,-6
1523066678707236,-2,-8,-20,-24,-12,0,-2,-1
1523066678727096,-3,-1,3,4,2,-1,-15,-11
1523066678727096,-2,-1,13,-5,-4,-6,5,-5
1523066678733776,2,4,-4,4,9,6,-15,14
1523066678733776,-1,-6,-1,3,-2,-2,-1,0
1523066678758195,2,0,-9,-2,3,1,2,-1
1523066678758195,-11,-3,-1,4,-3,-8,-9,-7
1523066678759339,-1,2,11,-6,-6,-3,-8,0
1523066678759339,2,1,-2,-4,-3,-1,5,-5
1523066678780438,4,3,-7,8,2,-1,-16,3
1523066678780438,-1,-3,-11,-4,2,7,8,3
1523066678781397,-4,1,4,1,2,-2,8,-7
1523066678781397,-14,-8,-22,-2,-3,3,6,-1
1523066678802712,19,3,37,1,-4,-9,-18,-4
1523066678802712,-3,-4,-10,-3,-1,3,-14,-4
1523066678808775,-4,-2,-1,0,-4,6,18,7
1523066678808775,9,2,3,-3,-2,3,7,-4
1523066678824130,-23,-6,-15,-1,2,-2,-7,-6
1523066678824130,8,3,2,-2,2,8,32,9
1523066678832652,3,1,0,-2,-4,-6,-15,0
1523066678832652,3,-2,1,3,5,5,3,-6
1523066678855209,-12,-6,0,-3,-3,-14,-15,-10
1523066678855209,3,2,-3,-2,-4,0,-2,2
1523066678856715,-9,-14,-26,0,2,0,2,-2
1523066678856715,3,7,35,1,-1,-2,-3,3
1523066678877080,0,-8,-30,-4,-4,0,12,-1
1523066678877080,-2,8,21,-1,-6,-5,-4,0
1523066678885290,3,0,-18,-4,-2,2,10,3
1523066678885290,1,-9,-2,2,3,0,-21,-8
1523066678907648,2,4,2,-4,-7,0,2,7
1523066678907648,-2,-1,11,3,-3,-10,-5,-5
1523066678909353,-4,3,10,-1,0,-2,-5,-8
1523066678909353,-8,-7,-2,1,0,3,7,-1
1523066678930039,4,6,-22,-2,5,7,9,10
1523066678930039,-5,-10,6,-1,-10,-5,-3,-4
1523066678931413,0,6,4,-11,-4,-7,-12,-4
1523066678931413,-5,-3,1,-1,0,-3,2,-1
1523066678952469,-1,-3,22,0,-6,-3,1,-8
1523066678952469,0,-4,-20,-6,-4,0,8,4
1523066678954649,6,0,5,2,7,1,-3,-1
1523066678954649,-19,-11,-35,4,-4,-1,7,5
1523066678974154,19,12,7,2,4,2,1,1
1523066678974154,8,7,25,-4,-8,-10,-24,-8
1523066678983552,-11,-9,-7,5,3,2,15,3
1523066678983552,0,5,13,-13,-1,11,5,-5
1523066679005108,-8,-4,-10,3,4,4,17,5
1523066679005108,6,-9,-30,0,-3,0,2,2
1523066679006613,-2,4,-4,-4,-8,-2,-27,-3
1523066679006613,3,6,7,2,-2,-5,9,0
1523066679027668,-9,-3,1,2,4,1,-5,-10
1523066679027668,-7,-7,-6,-16,-11,-2,6,-8
1523066679029174,3,-6,-2,6,2,-2,-8,4
1523066679029174,3,1,1,-2,0,-4,-4,2
1523066679049843,-3,1,1,1,1,-3,7,-11
1523066679049843,1,-3,-17,-8,-4,6,3,12
1523066679056247,0,3,11,3,7,2,-2,0
1523066679056247,-2,-5,-12,5,-6,-7,-1,-6
1523066679071285,0,-8,-15,-6,-6,-3,-10,-2
1523066679071285,-2,6,-2,4,13,12,9,-2
1523066679080311,-3,3,36,-2,-8,-3,10,-1
1523066679080311,5,1,-5,-4,-4,-9,-20,1
1523066679103657,-3,-6,-6,-1,5,-1,2,10
1523066679103657,-3,-3,-22,7,7,4,7,-6
1523066679105876,-2,-10,-16,-3,-4,-2,-8,-2
1523066679105876,6,5,0,-1,-2,0,8,10
1523066679125241,-4,-3,-3,0,-2,5,0,-7
1523066679125241,-8,-1,11,-2,-1,-2,-5,1
1523066679127096,1,-3,-3,-2,-2,-4,-4,-2
1523066679127096,-5,-2,-5,-1,-6,-3,-11,-6
1523066679147139,6,-1,-7,0,2,-1,-3,1
1523066679147139,-11,-4,18,-5,-4,-2,-14,-3
1523066679153639,4,4,31,2,0,-1,7,-1
1523066679153639,-2,2,-6,2,1,0,0,-1
1523066679168664,-1,0,8,0,-6,-8,-12,9
1523066679168664,2,-10,-30,2,3,2,12,-6
1523066679177567,-2,-1,-9,0,-5,-1,1,-6
1523066679177567,-4,-1,6,-1,4,-1,-14,1
1523066679200621,0,1,6,-3,-3,5,29,-4
1523066679200621,1,-7,-22,3,5,-4,-11,8
1523066679201819,0,19,30,5,10,0,15,8
1523066679201819,1,-7,7,-4,-8,-5,-10,-9
1523066679223381,-4,-2,-17,-8,-4,-4,-2,-9
1523066679223381,-7,1,16,2,0,-4,-9,-4
1523066679225884,9,-5,-14,0,1,3,5,0
1523066679225884,-7,-5,-4,0,4,1,-6,-2
1523066679252958,3,-3,11,4,3,-4,1,2
1523066679252958,-1,-2,-10,-4,-3,1,-5,-1
1523066679254620,-7,7,23,-2,-4,-3,-8,-12
1523066679254620,5,-4,-22,-2,0,2,17,17
1523066679275013,0,-5,-13,2,0,-2,-17,3
1523066679275013,-4,-4,12,-1,3,-1,0,-8
1523066679276518,-3,-4,-28,6,2,2,-6,-8
1523066679276518,1,6,29,-2,-2,-4,2,3
1523066679297150,-5,3,11,-3,-4,0,-3,-4
1523066679297150,1,-4,-13,-2,-1,-4,2,4
1523066679304592,0,-2,-4,-9,-7,-5,-14,-2
1523066679304592,1,5,9,5,2,2,8,-7
1523066679327654,-4,-10,2,-1,3,4,9,5
1523066679327654,2,1,-14,5,4,0,-4,0
1523066679329157,-2,-5,-13,-11,-15,-8,-4,1
1523066679329157,-1,1,11,4,1,0,-4,-5
1523066679350385,-3,-4,-15,-14,-7,-1,-5,-4
1523066679350385,0,6,6,11,6,1,1,-4
1523066679351719,-3,-4,-9,-7,-2,-2,6,3
1523066679351719,3,-4,0,0,2,2,5,0
1523066679371270,-6,0,-19,4,4,-1,1,-1
1523066679371270,5,5,30,1,-3,-5,-23,2
1523066679380352,0,-5,-4,-2,-2,2,-1,-5
1523066679380352,0,5,3,-11,-8,-2,-3,-4
1523066679403018,0,-4,9,4,0,-2,-10,-3
1523066679403018,1,-2,-14,-7,-2,1,6,3
1523066679404616,-1,5,22,5,2,-2,-1,4
1523066679404616,0,-8,-14,-1,0,-1,-5,-5
1523066679424739,2,2,0,-4,-10,-2,-4,-3
1523066679424739,-3,5,9,-2,6,0,3,1
1523066679432489,-3,-14,-8,2,0,0,0,-3
1523066679432489,-2,-4,-14,-5,-2,2,3,-2
1523066679455051,3,3,11,1,1,-3,4,3
1523066679455051,-1,-1,-3,-2,-2,2,3,-4
1523066679456555,-3,-2,-9,0,-2,0,-8,0
1523066679456555,-3,0,-1,-2,-5,-10,-17,-6
1523066679477107,-2,3,-2,2,1,2,10,3
1523066679477107,1,-5,-13,-1,2,17,27,-1
1523066679485128,-3,-2,7,1,2,-7,5,2
1523066679485128,-2,-1,-5,-1,1,4,-8,-1
1523066679508014,0,-4,-7,1,2,-6,-11,-10
1523066679508014,-5,-4,-13,-6,-6,-9,-3,8
1523066679509194,-2,4,33,-3,-8,-5,7,5
1523066679509194,11,0,19,4,2,5,-4,-6
1523066679530995,-11,2,-11,-1,-2,-5,-13,15
1523066679530995,0,2,8,-2,-4,-2,9,-8
1523066679532254,6,9,-7,4,3,5,-7,0
1523066679532254,-6,-3,-4,-5,-5,-11,-10,-7
1523066679552623,-3,-18,-15,-8,-1,5,16,-3
1523066679552623,3,11,19,12,6,-3,-11,3
1523066679554313,-3,7,5,-3,0,4,-2,-1
1523066679554313,-6,-19,-39,-11,-2,-1,5,-2
1523066679573864,2,6,22,11,5,3,-6,-5
1523066679573864,0,-8,-35,-13,-8,-7,-6,3
1523066679583392,-2,-3,1,-14,1,1,-3,-7
1523066679583392,-4,2,-4,9,-12,-4,12,2
1523066679604948,5,3,14,4,3,-4,-12,4
1523066679604948,4,-2,-9,6,1,1,-5,-2
1523066679606453,-5,-4,5,7,8,6,-6,2
1523066679606453,-10,-9,-2,-11,-6,-7,-10,-13
1523066679627512,9,1,-18,-15,-2,9,21,-3
1523066679627512,-5,3,9,17,4,-3,-5,0
1523066679629012,2,0,-13,-8,-6,-2,-3,-9
1523066679629012,-6,-1,-5,10,9,0,9,13
1523066679656385,2,2,-10,-13,-4,-1,13,12
1523066679656385,1,0,13,9,8,-6,-29,-12
1523066679666614,0,-6,-17,-9,-6,12,38,0
1523066679666614,4,4,-1,6,5,-2,7,4
1523066679679416,-4,-1,0,10,5,-5,-3,-9
1523066679679416,-2,0,12,-8,-3,0,-11,4
1523066679680149,-4,-1,-28,2,2,-6,-5,0
1523066679680149,6,3,42,-3,-4,1,2,-3
1523066679695057,-6,-8,0,7,-4,-7,0,-3
1523066679695057,1,17,31,-16,-8,-4,10,5
1523066679696566,-2,-14,-38,6,0,-3,-12,-5
1523066679696566,4,11,29,4,7,8,14,4
1523066679710132,-4,0,9,-3,-3,-2,-11,-6
1523066679710132,-7,-6,1,-1,-1,0,7,-8
1523066679711601,0,-5,-17,-7,-6,-3,2,4
1523066679711601,0,0,-14,2,0,-2,2,3
1523066679724423,0,7,3,-7,-6,-2,-19,-5
1523066679724423,-2,-10,-11,-1,-4,-4,-9,-5
1523066679731456,3,6,9,5,2,1,26,15
1523066679731456,1,-5,-18,-5,-1,-3,-17,-5
1523066679748025,0,5,15,6,5,9,14,-4
1523066679748025,-2,-3,-7,-6,-6,-4,-4,-4
1523066679749204,3,1,2,-2,-5,-5,-16,0
1523066679749204,0,5,4,-1,0,0,-3,6
1523066679762736,0,-6,-24,4,5,7,2,-5
1523066679762736,1,0,-7,-7,-4,2,14,5
1523066679763240,-6,5,35,6,1,-5,-20,-1
1523066679763240,-3,-13,-38,-15,-10,0,3,-6
1523066679776773,2,6,4,1,1,-5,-20,4
1523066679776773,-6,-6,-3,-1,-6,-2,7,-5
1523066679777777,-1,-6,-28,2,3,-2,-7,-5
1523066679777777,-1,10,12,1,-2,-1,-3,-1
1523066679792972,-6,-4,5,-2,-5,1,14,-5
1523066679792972,14,0,11,-2,0,-1,1,3
1523066679794320,2,5,-10,0,-2,0,1,-1
1523066679794320,-1,0,-8,1,6,5,17,2
1523066679808179,0,-7,12,-9,-14,-7,-13,-1
1523066679808179,-2,1,-11,1,1,-1,-2,-3
1523066679809362,-2,-6,-11,3,6,-4,-8,-1
1523066679809362,0,-3,-2,-6,-2,3,-5,-6
1523066679821630,-3,4,-7,1,2,-2,5,8
1523066679821630,-4,-1,-17,0,0,-7,-7,-6
1523066679830444,1,-11,-16,-2,0,11,15,3
1523066679830444,-2,4,15,4,-2,-2,-7,-7
1523066679845017,-3,-13,-21,-2,5,2,4,-2
1523066679845017,-1,6,1,-8,-7,1,3,3
1523066679846966,-4,-3,-2,3,-1,-5,-9,-8
1523066679846966,3,5,12,5,0,-1,6,4
1523066679858792,-3,3,-19,-7,-3,-4,-4,-4
1523066679858792,-2,-3,38,13,7,1,-1,-8
1523066679867516,4,6,23,-13,-7,-3,-6,5
1523066679867516,-1,-1,4,0,3,4,4,8
1523066679882755,-9,3,-11,-3,-7,-6,-19,-8
1523066679882755,11,-8,-8,-7,-5,-3,-13,0
1523066679883558,-6,4,-22,3,2,5,18,-8
1523066679883558,5,0,32,6,5,-2,-7,-2
1523066679897283,-2,-7,-11,-4,-5,-3,-3,-1
1523066679897283,-6,1,0,3,8,-1,2,-1
1523066679897465,-1,-4,8,6,0,-5,-18,-1
1523066679897465,-2,-4,-25,-10,-7,-1,-5,3
1523066679913051,4,7,32,-24,-17,1,7,0
1523066679913051,-6,-12,-17,7,5,0,-1,0
1523066679914008,3,14,9,-1,-4,-4,-9,-5
1523066679914008,-3,-9,-17,-12,6,4,5,0
1523066679935063,-1,2,32,7,0,-7,-17,-1
1523066679935063,-2,-8,-16,-1,1,10,29,6
1523066679936566,-4,1,17,-1,-4,-2,2,-4
1523066679936566,-1,4,-8,5,-4,-6,-17,-4
1523066679950417,2,-9,-19,-1,3,-3,-1,-4
1523066679950417,-4,3,5,-14,-7,6,1,3
1523066679951605,-3,0,6,12,6,-3,9,-3
1523066679951605,-1,-10,-18,-4,-3,0,-1,3
1523066679965364,1,1,-7,6,2,-4,-5,-1
1523066679965364,-6,0,3,2,-7,-8,-25,-7
1523066679966649,0,-5,-5,-6,0,-3,18,4
1523066679966649,-1,0,-3,-3,-1,5,4,1
1523066679980183,3,3,5,4,5,8,5,3
1523066679980183,-4,-1,4,1,2,-7,-5,-6
1523066679981687,-2,-8,-3,-7,4,8,-9,-6
1523066679981687,-2,4,-8,-1,1,-1,14,7
1523066679993718,-2,-7,4,5,1,-10,-13,-1
1523066679993718,5,3,-2,-6,2,6,32,0
1523066680001240,-1,-1,15,-5,-5,-5,-17,-7
1523066680001240,-6,-4,1,6,6,2,2,6
1523066680008761,-4,2,-11,5,8,11,26,-1
1523066680008761,17,-1,-15,-4,-3,-8,-20,10
1523066680017781,4,4,-28,-6,-2,0,7,-3
1523066680017781,-1,1,43,3,1,-4,9,-6
1523066680032623,4,5,-2,0,-1,-1,0,7
1523066680032623,-6,-10,-6,-1,-2,-1,0,1
1523066680034328,11,17,16,-3,3,4,5,2
1523066680034328,-9,-7,-23,-4,-9,-2,-12,-8
1523066680047485,1,6,32,9,5,1,0,6
1523066680047485,-1,3,-10,1,11,4,1,1
1523066680049368,-3,-15,-9,-14,-10,-3,-3,2
1523066680049368,2,13,11,9,0,-5,-12,-5
1523066680062951,6,11,-8,7,9,8,5,0
1523066680062951,-10,-23,-75,-20,-15,-1,3,3
1523066680063908,1,17,93,11,-2,-9,-6,-1
1523066680063908,-3,-4,-23,13,7,1,-10,-11
1523066680069421,-1,-12,-14,-17,-15,-5,22,18
1523066680069421,5,27,40,13,8,10,-16,-12
1523066680070573,-1,-19,-31,9,2,9,11,18
1523066680070573,-1,4,2,-1,-8,-6,-2,-8
1523066680086785,5,10,12,14,2,-4,-15,-21
1523066680086785,-29,-21,-2,-17,-19,-7,-2,3
1523066680086969,0,-4,-8,1,-1,-4,-15,-7
1523066680086969,7,2,9,-10,-3,2,8,15
1523066680087970,-6,-5,-6,-5,-4,1,-3,-6
1523066680087970,10,8,28,4,-3,-2,9,8
1523066680093018,-4,-7,-17,1,-3,3,-3,-2
1523066680093018,2,0,-6,4,-2,-3,-10,-4
1523066680093484,0,-6,-25,-15,-14,-8,-7,-7
1523066680093484,1,12,36,8,-3,7,36,2
1523066680093988,-4,-8,-9,3,0,2,-12,3
1523066680093988,-2,-7,-16,-14,-14,-9,-6,7
1523066680099764,-1,2,13,0,2,3,-2,1
1523066680099764,-2,-7,-17,0,-9,-6,-15,-8
1523066680100004,-7,4,-16,-7,-7,-7,-2,-5
1523066680100004,-2,-7,-4,-10,-4,2,2,-7
1523066680107523,-2,-7,-9,2,0,2,-4,4
1523066680107523,1,-1,9,5,8,-2,-9,-3
1523066680109621,-2,-5,0,-5,-8,-5,-5,-1
1523066680109621,-2,1,4,2,0,6,8,-3
1523066680114825,-4,-4,-6,1,4,0,1,-2
1523066680114825,-2,-3,-3,0,4,1,-5,-1
1523066680115047,-3,-3,-2,-7,-4,-3,-3,-3
1523066680115047,-2,-4,-6,6,7,1,0,1
1523066680122764,-11,1,-4,0,-3,0,2,-1
1523066680122764,18,-4,4,-6,-9,-9,-3,1
1523066680123065,-3,5,-4,5,5,-3,-28,4
1523066680123065,6,4,3,-6,1,13,36,8
1523066680129649,-4,-3,-5,3,0,0,-8,-2
1523066680129649,-1,2,9,-3,-1,0,-8,-8
1523066680130081,-2,-8,-15,-6,-3,-4,3,-5
1523066680130081,-1,0,4,-6,-2,-4,-26,2
1523066680137167,6,4,-5,5,5,-1,8,-5
1523066680137167,-7,-8,-1,0,3,-1,-17,-3
1523066680137669,-1,0,3,-12,-13,-4,13,1
1523066680137669,9,10,-16,2,-1,-3,8,-6
1523066680145189,-1,-7,-13,1,-1,-4,-19,-8
1523066680145189,-4,6,10,-3,-5,0,3,9
1523066680146696,-3,-6,22,-3,4,0,2,-2
1523066680146696,-7,-6,-7,-3,0,-2,-6,-1
1523066680152396,2,1,1,4,0,-1,-5,-2
1523066680152396,1,-2,-22,-10,-5,1,6,1
1523066680152726,0,8,24,10,4,-1,1,-1
1523066680152726,-5,-6,-6,2,1,-2,-6,-1
1523066680159539,2,1,-4,0,1,-4,2,-7
1523066680159539,-12,-18,-9,14,7,-5,7,4
1523066680160229,3,9,30,-35,-22,4,4,1
1523066680160229,-1,4,32,5,2,-3,-6,-5
1523066680168057,-3,2,-7,16,6,-3,-5,-2
1523066680168057,-2,2,5,-6,4,4,-6,1
1523066680169253,4,3,11,3,3,1,3,0
1523066680169253,-7,-3,-9,-13,-15,-6,-1,-3
1523066680174535,1,1,14,-12,-11,-1,1,-1
1523066680174535,-7,-10,-22,3,2,-9,-14,-17
1523066680175270,-1,-4,2,11,12,15,35,14
1523066680175270,2,-2,-4,-1,-5,-3,-12,2
1523066680182985,-1,-7,3,-5,-1,-1,-2,2
1523066680182985,-1,6,-1,-9,-10,-7,-6,-7
1523066680183292,-3,-6,-32,6,4,-6,-9,-9
1523066680183292,1,0,0,2,3,2,4,0
1523066680189619,0,-1,1,-7,-1,0,2,5
1523066680189619,-1,4,15,4,1,-1,-6,-2
1523066680190310,2,-2,-22,2,-1,5,17,2
1523066680190310,-2,-4,11,3,1,-4,-7,2
1523066680197328,-4,-3,-2,-6,-7,0,-3,-3
1523066680197328,6,6,0,1,4,6,12,8
1523066680197829,2,-1,-12,5,1,-3,-1,-1
1523066680197829,-12,-7,-12,-4,-6,-14,-8,-9
1523066680205654,-1,6,27,1,2,10,18,1
1523066680205654,4,-3,-7,-1,-3,-7,-3,10
1523066680206852,6,8,4,5,6,11,-6,-10
1523066680206852,-5,-12,-22,-1,-1,1,5,1
1523066680227409,0,7,14,-2,-6,-6,-6,1
1523066680227409,-5,7,7,2,-3,-6,-9,-3
1523066680228913,-1,-11,-24,0,2,1,-11,-1
1523066680228913,5,5,3,-3,-1,4,3,4
1523066680249968,-19,-4,-4,-2,-2,-3,6,19
1523066680249968,1,-4,1,0,-4,3,1,-2
1523066680252058,-11,-6,-23,5,6,-1,7,-2
1523066680252058,16,23,88,2,-6,-10,-30,-15
1523066680272329,2,-2,-31,3,7,4,2,-5
1523066680272329,-6,0,-17,-11,-11,-1,5,-1
1523066680279157,-4,-7,-9,-3,-3,-8,-11,-3
1523066680279157,-5,-3,-22,-18,-5,0,15,3
1523066680303113,2,-2,13,30,7,1,-4,-2
1523066680303113,-2,5,15,-31,-10,-4,-3,-4
1523066680305315,2,-11,-23,5,5,6,2,2
1523066680305315,-4,0,3,5,-4,1,3,0
1523066680309440,-5,-16,-5,-18,-11,-15,-17,-1
1523066680309440,3,8,-29,22,10,9,24,-16
1523066680310127,4,1,6,-18,-3,1,2,-3
1523066680310127,-9,3,-2,13,21,4,-24,7
1523066680317284,4,-9,-23,-24,-9,6,38,16
1523066680317284,-5,0,22,23,10,-7,-27,-3
1523066680317651,-2,6,-9,-24,-16,-11,-1,-9
1523066680317651,0,-3,-7,12,6,7,15,-11
1523066680325433,5,7,15,12,11,-2,-6,-7
1523066680325433,-6,-8,-7,-10,0,0,-3,2
1523066680326671,-3,-4,-1,0,0,-2,-1,1
1523066680326671,2,5,5,-4,-4,-1,-9,4
1523066680332503,-2,-4,-9,-12,-5,0,2,-1
1523066680332503,3,-3,10,16,14,-3,-5,-4
1523066680332503,-2,7,16,-9,-7,6,18,0
1523066680332503,-12,-17,-38,-11,-9,-9,-26,0
1523066680346774,5,12,19,-3,-1,-1,13,3
1523066680346774,11,7,3,10,7,8,26,2
1523066680362087,-6,-10,6,-2,-7,-8,-12,1
1523066680362087,3,4,-5,1,5,3,9,3
1523066680369918,-5,2,10,2,-5,-7,-26,-13
1523066680369918,-3,-9,-17,-7,-5,0,-14,-5
1523066680370108,-4,0,5,4,0,-4,0,-6
1523066680370108,10,1,5,-1,-2,1,16,12
1523066680385652,-11,-8,-9,6,0,-1,-10,-2
1523066680385652,3,12,17,-15,-11,-3,8,1
1523066680391390,-2,2,-1,6,-2,-6,-30,-1
1523066680391390,2,-6,-19,8,6,10,13,-3
1523066680406523,4,6,28,-3,-4,0,-3,-3
1523066680406523,3,2,31,5,-1,-1,2,3
1523066680414029,-5,-4,-16,-7,-4,-5,-5,-4
1523066680414029,-4,-10,-9,-4,-2,-4,14,-3
1523066680429536,-6,1,-11,1,6,2,-20,-2
1523066680429536,10,1,19,3,-6,0,-5,-3
1523066680430268,1,-1,3,7,-2,-4,-1,7
1523066680430268,7,8,6,-12,-7,2,3,4
1523066680445311,-3,-5,-2,1,-4,-1,-2,-8
1523066680445311,-5,-12,-26,-7,1,-3,-12,12
1523066680451575,4,17,15,14,7,1,-2,-6
1523066680451575,-8,-11,8,-5,-5,-3,-9,-7
1523066680466381,1,-3,-6,-3,-8,-7,-7,-10
1523066680466381,-7,3,-25,-3,-1,2,7,14
1523066680473883,7,2,16,7,1,5,21,10
1523066680473883,-5,3,23,3,-1,2,-2,-4
1523066680489425,5,0,-17,-8,0,-2,1,-4
1523066680489425,-6,-7,-4,-4,-5,-6,-15,-7
1523066680490505,-2,-1,-11,-1,-4,-5,-3,-1
1523066680490505,2,-1,6,8,9,2,1,-3
1523066680504970,1,-1,-5,9,5,-2,0,3
1523066680504970,-2,-2,-13,-30,-19,3,4,-2
1523066680510983,-5,-8,5,1,2,-3,-7,1
1523066680510983,1,-6,-8,2,2,-8,-7,-3
1523066680542065,-1,-1,17,-4,-11,-1,5,2
1523066680542065,-14,-4,-32,3,17,1,5,-5
1523066680549141,21,12,45,-16,-11,4,-7,2
1523066680549141,-10,-9,8,3,1,-1,-10,-1
1523066680564124,2,6,-12,22,11,4,-6,-4
1523066680564124,2,-13,-20,-26,-18,-4,4,0
1523066680572647,11,17,13,9,8,-7,-2,2
1523066680572647,-19,-9,-26,7,6,1,2,-3
1523066680595209,0,-2,-5,-13,-10,-4,0,-1
1523066680595209,1,-3,5,23,15,8,-8,-5
1523066680596712,-2,10,-4,-13,-7,-2,0,-2
1523066680596712,2,-9,-23,6,-2,0,8,0
1523066680617958,-3,-2,15,-6,-1,-1,1,3
1523066680617958,1,1,22,8,1,0,13,1
1523066680619272,-8,-1,-15,13,13,0,-1,-2
1523066680619272,-3,-1,-26,3,-3,-6,-7,-6
1523066680640632,1,-3,-15,-36,-23,-8,7,-1
1523066680640632,5,7,11,9,-3,-10,-16,-3
1523066680646596,-12,-10,-12,4,7,10,27,3
1523066680646596,21,14,15,4,-3,-7,-14,-2
1523066680661382,-15,-16,-17,-16,-1,5,12,2
1523066680661382,-4,7,-1,1,0,1,3,-4
1523066680670407,-2,-6,-11,5,-3,-7,0,4
1523066680670407,5,0,5,-9,0,7,-13,-1
1523066680692363,5,6,-2,4,-1,-5,-15,0
1523066680692363,-1,-4,-1,6,3,0,0,1
1523066680694372,-5,-12,-4,-11,-7,1,-2,-4
1523066680694372,-3,0,-3,-6,-3,1,5,0
1523066680715102,4,4,-1,1,3,-2,10,2
1523066680715102,-4,0,8,1,-1,-8,-18,-11
1523066680716792,-1,-14,-33,2,2,8,19,2
1523066680716792,3,10,32,-8,-8,4,-4,6
1523066680737046,1,-1,-2,2,2,-3,0,-9
1523066680737046,1,5,5,-1,0,12,47,8
1523066680744258,-2,-10,-42,-4,0,5,-9,0
1523066680744258,-9,25,58,-2,-3,-4,7,-1
1523066680768010,13,-13,-17,5,-1,0,-12,-7
1523066680768010,-13,-16,-3,-11,-13,-11,-9,6
1523066680769323,-2,8,-21,-7,-3,-2,-12,-20
1523066680769323,-2,-2,46,2,1,2,20,7
1523066680796445,2,11,20,1,4,-3,-20,6
1523066680796445,1,-4,-5,4,5,0,-3,-6
1523066680807079,-4,-4,-3,1,-8,-6,-12,-6
1523066680807079,0,-8,-31,-6,-7,-4,2,-2
1523066680819455,-10,-5,18,5,8,2,9,-2
1523066680819455,4,7,6,1,-6,-4,-11,-1
1523066680820592,-1,3,39,-10,-3,-3,-3,1
1523066680820592,1,-7,-33,17,5,0,-4,-8
1523066680834997,-6,-11,-37,-35,-24,-14,8,0
1523066680834997,-1,-9,-30,16,19,17,10,11
1523066680836501,0,23,94,35,9,-8,-30,-6
1523066680836501,4,-14,-43,-52,-37,-12,1,6
1523066680842345,5,7,-30,20,14,15,4,5
1523066680842345,-23,-7,24,-10,4,8,3,-13
1523066680850181,2,-9,-19,29,12,-13,-11,-4
1523066680850181,-1,1,-8,-12,-6,-3,-6,-3
1523066680851194,-3,-9,-6,-13,-6,2,5,-6
1523066680851194,7,0,-9,5,9,5,17,12
1523066680851552,-3,-3,-2,5,-6,2,-2,7
1523066680851552,2,3,15,7,7,1,8,1
1523066680857306,-12,-2,-32,5,2,-2,-11,-3
1523066680857306,2,13,45,14,8,-1,-20,-9
1523066680857558,2,-13,-34,-38,-20,-8,9,-1
1523066680857558,3,6,-7,4,6,-11,-8,11
1523066680865403,2,-3,16,23,20,16,10,3
1523066680865403,6,3,1,-7,-13,-7,18,-6
1523066680866580,7,-4,-29,-23,-7,7,-30,9
1523066680866580,-5,13,38,10,3,-1,2,-15
1523066680872467,-1,-4,9,7,11,-4,-22,5
1523066680872467,9,15,-3,3,4,-7,13,6
1523066680872467,-6,-4,2,-11,-10,4,5,4
1523066680872467,0,-17,-31,-4,0,2,4,0
1523066680887511,-2,5,26,4,4,3,-3,5
1523066680887511,7,3,-12,-3,-4,-4,-24,-22
1523066680893683,-6,4,10,2,8,-5,10,0
1523066680893683,-3,-7,-26,4,7,3,2,0
1523066680916938,7,3,36,-2,-11,-5,10,5
1523066680916938,-12,-11,-15,-12,-8,-5,-7,2
1523066680917933,-2,-2,4,9,11,3,2,-5
1523066680917933,-5,2,9,1,4,5,10,-4
1523066680931978,3,-1,-17,-7,-7,-9,-11,-7
1523066680931978,5,7,9,10,-1,1,-6,10
1523066680932472,0,-15,-40,-21,-3,2,20,1
1523066680932472,-3,8,18,9,-1,-2,-9,-2
1523066680947513,-3,7,6,2,-1,-3,0,-13
1523066680947513,5,-1,-3,-13,-8,2,21,7
1523066680953528,-4,-5,-30,3,0,-3,-24,4
1523066680953528,3,-2,-2,2,1,-2,2,-4
1523066680968505,2,7,25,-13,-11,-3,0,3
1523066680968505,-2,-7,-6,1,0,-5,-8,-7
1523066680976025,-2,7,13,0,-1,-3,-4,-6
1523066680976025,-1,-5,12,-6,-5,0,6,2
1523066680992070,3,-2,-5,11,9,3,-3,1
1523066680992070,-9,-8,-22,-13,-7,-4,-10,1
1523066680992570,0,7,55,8,2,5,17,-9
1523066680992570,2,-4,-23,13,7,6,2,8
1523066681006500,-7,-7,-52,-15,-8,-3,8,1
1523066681006500,3,-3,16,-2,-2,-7,-23,-2
1523066681014003,-1,-3,9,14,6,-6,-4,1
1523066681014003,-10,-6,-11,-27,-10,5,17,-3
1523066681029042,-8,6,17,33,18,0,-10,-7
1523066681029042,22,-10,-42,-18,-20,-2,-8,2
1523066681036689,-3,2,25,-26,-17,-4,1,-1
1523066681036689,-4,-2,6,8,6,-7,-11,-4
1523066681052353,1,-6,-4,-9,-5,4,9,4
1523066681052353,-10,-7,-10,4,2,-3,-3,0
1523066681052732,2,11,36,11,4,-1,-12,-3
1523066681052732,2,-2,-10,-3,-3,-2,-7,-3
1523066681066265,-6,-7,-3,-7,-6,-3,-1,-3
1523066681066265,1,12,45,13,8,3,8,2
1523066681074146,-2,-5,-41,-12,-7,-1,5,2
1523066681074146,0,10,3,-4,0,-1,11,0
1523066681089222,1,-9,5,3,0,0,0,-1
1523066681089222,-1,8,7,3,6,7,3,4
1523066681096726,-9,-6,-11,-1,1,-2,5,-1
1523066681096726,-2,-7,-5,2,1,-7,-18,-4
1523066681112289,2,5,8,-7,-4,4,11,0
1523066681112289,-1,1,-1,2,-2,-2,1,-1
1523066681119908,-1,-9,-7,2,2,-4,-3,-5
1523066681119908,2,7,0,2,1,8,7,4
1523066681126403,-3,-3,-2,-8,-13,-12,-30,-4
1523066681126403,-3,-1,-2,0,9,14,48,2
1523066681133923,7,3,-4,4,-2,0,5,5
1523066681133923,1,-5,6,-1,-1,-4,-18,-4
1523066681148460,3,2,-13,-1,4,7,32,3
1523066681148460,-3,4,24,-2,-4,-5,-17,-14
1523066681156394,3,-4,-18,5,4,5,10,14
1523066681156394,2,4,11,-8,-6,-6,-2,1
1523066681187390,0,6,-16,0,-1,-3,-8,-19
1523066681187390,-7,-8,6,-1,-5,-13,-32,7
1523066681193409,4,3,1,-2,0,4,10,0
1523066681193409,-5,-12,-17,2,-2,5,1,-10
1523066681209951,7,15,4,1,12,5,-9,18
1523066681209951,7,11,-22,-7,-10,-10,-20,-21
1523066681211455,-11,-3,3,1,0,4,3,-5
1523066681211455,-3,-6,-1,2,0,-1,11,1
1523066681231953,1,-6,-12,-1,3,1,3,-2
1523066681231953,2,-6,-20,-9,-9,2,20,14
1523066681240738,-2,0,7,0,5,-5,-11,-3
1523066681240738,-2,1,-6,2,0,-1,-4,-5
1523066681263337,-5,-6,14,3,0,2,-2,-4
1523066681263337,-1,2,5,-5,1,-2,-5,3
1523066681265626,-3,-12,-21,-7,-8,-8,-9,-9
1523066681265626,3,2,9,-5,-5,2,-13,1
1523066681284250,-3,11,26,0,-12,-4,21,-5
1523066681284250,-4,-3,-11,0,13,0,-6,19
1523066681292700,4,-14,-37,-5,-9,-2,11,-5
1523066681292700,11,-1,43,-4,-4,-18,-25,-4
1523066681315269,-11,-12,-8,0,-2,11,1,9
1523066681315269,-3,6,4,23,21,10,-19,-23
1523066681316762,-7,4,-18,-7,-5,-3,30,4
1523066681316762,-5,-2,-30,-8,-2,-2,5,3
1523066681337915,0,-3,6,-13,-9,-11,-9,-6
1523066681337915,-4,-10,-2,21,4,-2,-7,0
1523066681339327,5,16,38,27,16,-1,-10,2
1523066681339327,-2,-3,-29,-35,-24,7,12,3
1523066681358876,-3,-3,5,9,10,1,11,1
1523066681358876,-3,-8,-5,-1,-8,1,17,-3
1523066681369402,-2,-9,-3,0,7,1,-8,-4
1523066681369402,-4,-5,-13,11,11,-10,-9,12
1523066681389356,10,4,18,-2,-6,-1,-15,9
1523066681389356,-1,-8,-8,-11,-8,-11,4,-14
1523066681397497,-9,3,3,-7,-6,6,-19,-12
1523066681397497,2,-7,-8,13,12,13,47,5
1523066681411635,-3,3,-17,4,1,0,-3,2
1523066681411635,6,5,57,-8,-9,-2,-4,3
1523066681420036,1,1,-19,3,6,-6,-23,-4
1523066681420036,-3,5,8,-8,-4,12,26,-1
1523066681442598,-5,-12,-14,6,6,-3,-12,9
1523066681442598,1,-6,-21,-9,-14,-9,-5,-2
1523066681448996,6,5,10,-1,2,9,25,-2
1523066681448996,0,-4,10,13,7,-3,-24,-2
1523066681463893,2,-3,-8,-11,-8,-2,2,-9
1523066681463893,-5,-1,11,-1,-2,-1,-1,5
1523066681472679,-5,-2,10,-12,-9,-1,5,-3
1523066681472679,4,4,-7,16,10,-6,-19,-5
1523066681495638,4,-10,-19,-16,-12,4,16,3
1523066681495638,-6,3,15,0,5,1,-28,6
1523066681496741,1,-8,-16,6,2,-8,-7,7
1523066681496741,-1,2,4,-1,-4,0,-5,-8
1523066681517368,-4,-1,12,2,-2,-7,-9,-5
1523066681517368,-3,-6,-25,-5,0,4,9,-6
1523066681524842,6,-1,29,2,2,-1,10,3
1523066681524842,-8,-11,-9,-13,-11,-2,1,0
1523066681548241,6,11,13,8,6,-6,-15,0
1523066681548241,-2,-10,-36,-1,3,2,5,-2
1523066681549512,-8,3,8,-2,-6,-5,-15,-2
1523066681549512,9,10,-32,-3,1,-5,-2,2
1523066681570438,6,7,63,-2,-7,-3,11,-2
1523066681570438,-9,-3,-18,-10,-2,7,5,-4
1523066681571944,2,14,22,5,-3,-6,-21,-4
1523066681571944,-3,-15,-36,-15,-8,5,1,-1
1523066681592497,-7,2,18,-3,0,-7,-5,-6
1523066681592497,0,4,-6,13,7,1,-4,0
1523066681594618,1,-8,-5,-12,-14,-3,-4,-2
1523066681594618,0,-3,7,-11,-10,-4,-11,6
1523066681614953,-1,6,-18,6,3,-4,-6,1
1523066681614953,-1,-6,16,-8,-3,1,2,-7
1523066681621455,-7,-13,-17,4,4,5,8,-9
1523066681621455,-1,4,11,10,7,0,-3,1
1523066681645638,-3,-3,-7,-10,-6,2,1,-3
1523066681645638,6,10,0,5,2,-5,1,4
1523066681648146,-5,0,3,5,2,-5,-7,-5
1523066681648146,-4,-2,18,5,2,-5,7,-5
1523066681675215,-2,-6,-19,-3,-5,-4,-20,0
1523066681675215,0,-7,-27,-7,1,11,41,9
1523066681676721,9,12,39,22,7,-2,-6,0
1523066681676721,-3,-4,-3,-12,-9,1,0,-1
1523066681690150,-2,-4,-4,0,-2,-4,-7,-2
1523066681690150,1,11,16,3,-5,-8,-13,-8
1523066681691761,-6,-12,-41,-12,0,6,15,6
1523066681691761,16,5,14,8,5,-2,-2,5
1523066681711406,-9,-10,-15,-4,0,0,3,-11
1523066681711406,0,-2,5,0,-1,-2,-2,0
1523066681720431,-1,-4,-4,-10,-5,-7,-20,-1
1523066681720431,-6,-2,0,3,4,7,18,1
1523066681741399,2,-3,0,1,0,3,9,0
1523066681741399,1,0,7,2,-3,-9,-28,-2
1523066681751926,3,7,5,-3,0,12,22,5
1523066681751926,-3,0,-2,1,3,5,-7,-4
1523066681763458,-6,-6,-4,4,4,2,8,-1
1523066681763458,5,0,-1,-5,-5,-5,15,2
1523066681772483,-2,-4,-4,-7,-7,-15,-34,-4
1523066681772483,-6,-4,-2,-1,-3,-2,-10,-5
1523066681795220,1,3,0,-3,1,8,-14,-1
1523066681795220,-4,1,11,-2,-2,1,9,-3
1523066681796545,-3,-3,-25,-6,-5,-3,24,-5
1523066681796545,-7,-4,-9,-3,-13,-22,-44,-10
1523066681817602,1,2,0,-3,4,1,-12,-1
1523066681817602,-1,-6,-8,13,6,7,0,7
1523066681819108,5,8,19,-13,-5,-5,-20,12
1523066681819108,-6,3,-1,3,-3,-6,-4,-18
1523066681839179,-2,-11,-32,-2,0,3,12,-4
1523066681839179,-1,-9,0,-6,1,4,14,6
1523066681849539,-2,2,2,1,-3,-5,-2,-4
1523066681849539,4,5,16,3,5,-1,2,1
1523066681870531,-1,-2,-23,-4,-8,-2,9,-2
1523066681870531,-3,1,1,1,-4,0,-17,-11
1523066681872107,-5,-12,0,-6,2,5,3,0
1523066681872107,1,12,29,9,4,0,0,1
1523066681891338,-2,-12,-16,-1,-2,-7,-8,1
1523066681891338,-3,2,3,-13,-6,0,-5,1
1523066681899981,3,-5,0,4,3,3,2,3
1523066681899981,-2,3,6,-2,3,2,-4,2
1523066681923554,1,8,53,11,7,3,8,-8
1523066681923554,0,-8,-17,-10,-4,-12,-2,7
1523066681925551,0,4,-7,4,-3,-4,-48,6
1523066681925551,-1,-3,-10,21,24,11,33,-8
1523066681952621,1,6,17,-19,-13,-7,-6,-6
1523066681952621,-2,-4,-19,-12,-25,-11,-10,1
1523066681954129,2,6,20,15,28,17,13,1
1523066681954129,-2,-4,-9,-6,-15,-12,4,2
1523066681959640,0,-1,-11,13,15,5,-22,4
1523066681959640,-3,3,-5,1,-7,-2,16,-10
1523066681960643,-1,-5,-7,-11,-14,-13,-3,-7
1523066681960643,-4,-4,-14,-8,-1,1,-7,7
1523066681968030,3,1,-21,-11,-4,4,43,6
1523066681968030,-2,-3,20,9,13,8,7,2
1523066681969167,3,5,-1,-8,-7,-6,-21,-4
1523066681969167,0,-7,-10,-2,4,7,0,-2
1523066681974519,-3,4,-15,2,-6,-9,-1,4
1523066681974519,3,3,0,-3,2,8,-5,-1
1523066681975184,-6,-7,-13,3,6,2,27,-4
1523066681975184,1,3,7,-5,-6,-9,-3,-5
1523066681998119,2,4,3,-3,1,5,-12,7
1523066681998119,-6,4,17,3,1,3,-5,-4
1523066681999245,9,2,-9,3,-2,-2,6,-1
1523066681999245,0,2,-11,-4,-6,-4,-8,10
1523066682028325,-9,-12,-5,7,1,-8,-12,-7
1523066682028325,2,4,17,0,7,3,7,-2
1523066682030829,-3,-4,-4,-7,-13,-2,-2,-9
1523066682030829,-5,-5,3,-6,-6,-2,-14,0
1523066682050060,4,2,-21,3,3,7,25,3
1523066682050060,-3,-2,16,0,-3,-1,-3,-3
1523066682052121,3,1,-22,-10,-6,0,-4,4
1523066682052121,-2,-2,-1,3,5,-4,-1,-2
1523066682072823,-2,0,20,-3,-9,-8,-19,-4
1523066682072823,-5,2,-21,-3,-1,-11,-4,-4
1523066682074446,-1,-1,-21,9,5,11,10,4
1523066682074446,1,-2,29,-3,-3,3,5,-1
1523066682095374,8,-1,5,0,-2,0,5,-1
1523066682095374,-13,1,12,8,3,-8,-13,4
1523066682096504,8,8,4,-12,-7,0,3,-1
1523066682096504,-5,-2,-17,-1,-1,-3,4,-9
1523066682118065,-1,-3,2,5,1,-9,-19,5
1523066682118065,3,-5,-8,1,1,1,3,-2
1523066682119657,-9,-4,19,2,1,5,-7,1
1523066682119657,-5,-2,-13,-7,-4,3,-10,-6
1523066682139132,0,2,11,3,8,1,9,-4
1523066682139132,-2,-7,-30,-4,-1,-4,2,3
1523066682149144,-3,2,24,6,-1,-2,9,-8
1523066682149144,5,4,2,-3,-4,-2,-7,5
1523066682177721,-5,-1,-10,-9,-1,-2,-12,1
1523066682177721,11,1,37,0,0,1,6,-12
1523066682179229,-8,-5,-25,-5,-3,-3,8,0
1523066682179229,7,-2,7,15,12,10,15,8
1523066682192666,-3,7,4,-6,-7,-4,-5,2
1523066682192666,0,-4,-30,-1,-2,-2,-12,-2
1523066682194170,-5,-6,7,5,5,-3,-5,-6
1523066682194170,1,4,10,-12,-4,4,5,-2
1523066682214416,-6,-10,-30,4,0,-4,-15,-6
1523066682214416,6,5,36,13,7,10,56,20
1523066682221632,0,-4,-45,-18,-10,-6,-8,-2
1523066682221632,0,14,58,4,-4,-5,-3,2
1523066682236285,-2,-7,-13,-2,-4,-1,5,-8
1523066682236285,-3,-7,-23,1,-1,-7,-40,-12
1523066682246857,-1,1,32,27,21,5,5,0
1523066682246857,-1,-8,-22,-30,-22,-3,6,3
1523066682267236,-2,-7,-18,-18,-8,-9,-13,-5
1523066682267236,-2,1,43,25,17,16,22,-1
1523066682281402,-10,5,0,-22,-19,-9,9,6
1523066682281402,13,-6,-32,8,4,-5,-17,-6
1523066682288798,-1,-4,1,2,0,5,6,0
1523066682288798,0,8,-6,-4,-1,-7,-14,0
1523066682297826,-3,2,48,-2,-5,-4,-7,-3
1523066682297826,-6,-8,-1,0,-3,-7,-2,-4
1523066682320257,-1,-1,1,2,4,2,5,3
1523066682320257,1,0,-14,-5,-4,-1,-1,-5
1523066682321888,1,-5,-12,-1,0,2,-6,1
1523066682321888,-4,-1,-6,4,2,-4,3,2
1523066682340938,1,5,17,6,4,5,14,-1
1523066682340938,-4,-4,-9,-16,-9,-6,-22,-6
1523066682349966,0,0,5,1,-4,-10,-4,-5
1523066682349966,-6,-10,-11,7,6,1,2,-3
1523066682372522,-7,-3,-9,-6,-7,-8,-15,0
1523066682372522,3,-2,8,0,-3,-4,-8,-7
1523066682374028,-3,1,-20,-1,5,5,-3,2
1523066682374028,4,-4,-6,7,4,1,6,1
1523066682394948,3,14,25,0,-3,1,-38,-11
1523066682394948,-6,-13,-34,-6,0,6,55,13
1523066682401636,3,5,22,-3,-4,-3,-23,-4
1523066682401636,-11,6,11,7,4,-1,-18,-3
1523066682416449,-1,-10,-10,-4,-2,-12,-21,4
1523066682416449,4,-2,-9,-4,2,7,-3,-1
1523066682426667,-6,-4,-7,0,-1,0,13,-4
1523066682426667,-4,-5,7,1,10,8,1,-5
1523066682447526,0,-2,-17,-2,-7,1,11,-5
1523066682447526,-2,8,37,-5,-1,-7,-9,0
1523066682453739,-1,-19,-31,-4,-3,-8,2,3
1523066682453739,1,7,3,0,-1,1,0,-3
1523066682469159,-1,2,-3,9,2,8,8,3
1523066682469159,-1,-6,-26,-11,-12,-10,-25,-2
1523066682477804,1,-7,-13,4,3,6,8,1
1523066682477804,-6,-1,7,-10,-5,-6,-5,-10
1523066682499423,2,10,27,17,4,3,21,13
1523066682499423,1,-2,-34,-16,-6,-4,-17,2
1523066682507883,4,6,15,-1,-4,-9,-22,-7
1523066682507883,-3,-5,-30,7,5,2,-11,-4
1523066682523013,7,5,11,3,7,12,52,-5
1523066682523013,-12,3,38,-6,-4,-7,-21,-4
1523066682523926,-1,-11,-20,2,0,-7,-1,4
1523066682523926,-3,-8,-7,-20,-12,3,7,-4
1523066682544981,2,16,43,15,6,-7,-27,2
1523066682544981,4,5,-13,5,-2,3,13,1
1523066682551382,-3,-1,-11,-10,-9,3,18,-3
1523066682551382,-3,-4,0,10,2,-4,-13,-4
1523066682582949,0,-1,16,-6,-5,1,-4,-3
1523066682582949,0,-6,-8,8,10,-1,-2,-2
1523066682584677,-5,2,8,0,-6,-4,13,-2
1523066682584677,5,9,12,-8,-4,7,-2,1
1523066682597948,-1,-18,-33,-35,-15,-4,41,25
1523066682597948,3,9,6,11,3,-6,-2,1
1523066682599055,2,0,15,12,12,18,17,-4
1523066682599055,4,8,-17,10,5,-5,-19,-2
1523066682620646,-4,-13,7,-1,0,7,20,-6
1523066682620646,-1,5,3,-5,-2,-3,-17,0
1523066682622228,5,2,24,2,6,2,14,4
1523066682622228,-5,-3,-48,-14,-13,-4,4,6
1523066682642671,-2,1,55,-11,-2,-7,-20,-8
1523066682642671,3,4,-11,3,-1,4,12,-3
1523066682648593,-7,12,18,3,-2,-2,-20,2
1523066682648593,-1,-14,-24,-2,1,-5,3,2
1523066682672843,-5,1,-57,-16,-18,-10,-19,-5
1523066682672843,2,-6,29,8,6,9,3,-12
1523066682673996,0,-1,-17,-4,0,-1,7,1
1523066682673996,0,2,27,5,3,-2,-5,-1
1523066682695446,-7,-6,-19,8,9,5,21,0
1523066682695446,0,-6,-35,-10,-6,-4,-24,-6
1523066682696555,2,6,55,-6,-7,-7,-3,-4
1523066682696555,-4,9,0,-1,-4,8,20,1
1523066682716973,1,-4,39,10,7,1,-15,-3
1523066682716973,-3,-3,-12,5,3,0,0,-3
1523066682724566,-5,-14,-50,8,-4,-5,-11,0
1523066682724566,5,12,48,-16,-8,-5,5,2
1523066682747627,1,1,-15,9,5,-1,-24,-8
1523066682747627,-6,-2,1,-8,-5,0,12,3
1523066682749132,0,-6,-20,29,20,4,1,-9
1523066682749132,-5,-2,1,-37,-23,-6,7,0
1523066682770563,6,-11,-28,14,10,9,4,28
1523066682770563,3,4,42,-8,-9,-6,3,1
1523066682771691,0,10,-6,7,-3,-1,-25,-10
1523066682771691,-3,-10,3,-6,5,8,33,2
1523066682791744,1,13,1,1,5,-4,-25,-16
1523066682791744,-9,-19,-21,-3,-7,-10,-6,-2
1523066682799264,-3,0,22,-7,0,9,-7,-2
1523066682799264,13,13,12,17,7,-1,-18,3
1523066682814163,-7,-8,-15,-23,-21,-8,0,5
1523066682814163,0,-1,-11,3,5,3,5,0
1523066682822767,1,2,-6,-2,3,-2,-7,0
1523066682822767,-5,-6,-18,10,4,-6,-6,-2
1523066682846201,-1,-3,2,-2,0,4,11,-3
1523066682846201,-2,-2,-22,-18,-15,-9,-12,-5
1523066682848333,-2,-1,1,-1,4,0,10,4
1523066682848333,-5,-7,12,15,10,1,-3,-6
1523066682866684,-2,0,0,-3,-6,-7,-1,-9
1523066682866684,-1,-2,-15,-7,-3,5,4,0
1523066682874904,4,2,8,-9,-1,6,10,9
1523066682874904,1,0,1,24,8,-7,-12,-5
1523066682897850,-2,1,-6,-17,-13,-6,-10,-6
1523066682897850,-8,-6,8,7,9,1,18,-2
1523066682899489,2,7,-2,-4,-3,0,-3,1
1523066682899489,-2,-7,-13,-1,-5,-3,-5,0
1523066682919889,-1,5,19,2,3,3,10,-3
1523066682919889,-2,-2,-36,-1,-1,-4,-12,0
1523066682927549,1,7,72,1,-6,-8,5,3
1523066682927549,2,-3,-13,-13,1,10,14,5
1523066682950193,-10,-17,-35,9,3,-5,-10,-9
1523066682950193,2,12,29,6,12,3,1,5
1523066682951702,1,-11,-35,-9,-7,-11,-48,-5
1523066682951702,3,1,-8,-1,6,26,69,14
1523066682972213,-2,-1,16,4,-2,-5,-12,-2
1523066682972213,0,3,-11,-5,-7,1,-3,-1
1523066682978734,-7,-7,-15,-7,0,-8,-3,-20
1523066682978734,-2,-3,2,-4,-10,-15,-27,2
1523066683002799,5,10,9,9,7,11,24,19
1523066683002799,-4,-2,11,0,5,12,6,-2
1523066683004583,6,-6,-13,-10,-12,-9,-14,-1
1523066683004583,-2,0,-7,0,-3,-3,-33,-18
1523066683025860,1,4,7,-1,4,-1,14,-1
1523066683025860,-5,-5,-4,-1,-6,-11,-12,3
1523066683028369,6,-6,12,5,12,27,25,10
1523066683028369,-5,10,-9,-6,-8,-6,19,-4
1523066683046414,-3,-9,-1,-4,-5,-11,-35,-8
1523066683046414,2,6,12,4,2,1,25,-1
1523066683062962,-2,-6,-31,-2,2,-1,-1,1
1523066683062962,-3,-6,8,-2,-3,-4,-13,-2
1523066683077866,0,-2,-3,0,-1,0,13,-1
1523066683077866,2,-16,-15,-6,-2,-3,-17,-2
1523066683079003,-7,12,12,-1,-3,-2,12,7
1523066683079003,1,0,-6,4,4,5,-2,-4
1523066683100061,-1,3,3,-3,-10,-8,-2,-6
1523066683100061,-1,-7,1,1,-6,-3,-9,-7
1523066683101567,-2,3,-19,-2,1,3,10,6
1523066683101567,-1,-5,22,1,-5,-11,-31,-11
1523066683122618,6,-6,-45,-7,3,7,37,19
1523066683122618,5,12,66,4,2,4,27,5
1523066683128670,-15,2,10,-27,-17,-10,-15,-18
1523066683128670,11,-5,-1,18,13,-8,0,-4
1523066683143965,3,3,13,3,0,7,-18,-3
1523066683143965,1,2,-39,-10,-1,1,11,4
1523066683152700,-2,4,15,15,5,-5,6,1
1523066683152700,-13,-4,22,-26,-12,-3,0,-5
1523066683174757,3,-2,-18,4,1,-7,-3,-6
1523066683174757,-3,-3,6,9,6,6,-5,-4
1523066683176763,6,-3,-6,-1,0,1,-5,2
1523066683176763,-3,-6,-32,14,8,0,-6,5
1523066683197688,-3,4,37,-4,-7,0,-6,-7
1523066683197688,-5,1,-37,-4,-3,-2,-7,-7
1523066683199323,4,4,18,1,-4,-9,-8,8
1523066683199323,0,-5,1,0,2,2,-5,-3
1523066683219758,-6,-4,4,-5,4,2,6,4
1523066683219758,3,0,-6,6,1,-3,-16,-1
1523066683227898,-1,-5,-20,-11,-3,7,39,-5
1523066683227898,-7,-3,-7,-1,-4,4,5,-1
1523066683250335,10,5,3,1,1,-7,-11,-2
1523066683250335,-12,0,18,-17,-11,-7,-14,-9
1523066683252158,10,-6,-20,8,6,6,8,7
1523066683252158,0,6,13,-3,-10,-8,1,2
1523066683273019,-5,-2,-15,3,8,1,-1,-16
1523066683273019,-4,2,26,-18,-16,-7,-8,4
1523066683274020,-8,-14,-28,7,-1,-5,-10,-4
1523066683274020,3,5,15,-3,0,-1,0,-9
1523066683293572,-3,-8,-14,-15,-10,-1,-1,17
1523066683293572,0,10,2,10,2,0,-12,0
1523066683303129,-3,-3,12,3,-6,-12,-39,-14
1523066683303129,4,-8,-25,-3,5,12,46,3
1523066683325158,-7,5,-24,-15,-11,-2,-8,7
1523066683325158,7,-3,38,-7,-4,-7,-14,2
1523066683326663,1,4,-11,8,1,5,1,-4
1523066683326663,-9,-9,-19,-5,-8,-5,-6,-1
1523066683347090,-2,-4,-11,1,9,-1,7,-5
1523066683347090,0,-3,17,-8,-11,-5,-5,-5
1523066683355237,-5,-6,-14,2,7,4,-9,4
1523066683355237,2,-6,-15,10,2,-3,-33,0
1523066683377830,-4,18,53,-7,-5,2,4,-7
1523066683377830,2,-19,-48,3,4,-5,1,5
1523066683379300,-4,1,2,0,-1,-2,7,-9
1523066683379300,4,2,8,-9,0,7,15,13
1523066683399551,-1,-4,-18,18,5,-1,-6,-9
1523066683399551,1,2,9,2,5,-2,-24,-4
1523066683414038,4,8,9,-24,-13,7,59,6
1523066683414038,-8,-5,-14,0,-3,-9,-17,-3
1523066683430126,-10,-2,13,11,6,-4,-14,-2
1523066683430126,15,2,-3,-3,-6,-1,6,-1
1523066683432109,-6,-20,-9,8,8,1,-10,-1
1523066683432109,1,3,-11,-13,-8,-4,-6,-1
1523066683452189,7,9,14,-3,-1,2,0,-6
1523066683452189,-14,-13,-29,9,7,2,-6,6
1523066683458684,1,3,16,-11,-8,-2,-4,-3
1523066683458684,-1,-4,-14,7,3,-1,0,1
1523066683473724,3,-4,8,2,-3,-3,-23,-4
1523066683473724,0,6,1,4,3,5,23,-2
1523066683482418,1,4,1,-3,-3,-3,-13,1
1523066683482418,-4,1,-16,1,-3,-4,-1,-2
1523066683505157,-3,-8,-11,-12,-4,2,7,-1
1523066683505157,-3,-1,3,8,2,-4,-10,-7
1523066683511498,1,3,1,13,12,10,21,3
1523066683511498,-8,-4,3,-7,-5,-6,-15,-4
1523066683526206,4,1,8,20,5,-5,-9,1
1523066683526206,-2,-8,-15,-26,-17,3,6,-4
1523066683535561,-2,-2,-13,2,4,-7,-15,-5
1523066683535561,-1,6,10,-2,3,1,-2,-2
1523066683557678,0,-10,-27,-5,-4,2,6,3
1523066683557678,-7,-1,-3,13,9,-2,-7,-3
1523066683559182,4,1,-14,-5,-7,-2,2,-3
1523066683559182,1,-4,16,-3,-1,5,7,10
1523066683580239,-1,0,31,-11,-9,-6,-4,-4
1523066683580239,3,1,-21,-5,3,10,4,5
1523066683581741,-5,-4,9,-13,-3,0,3,-3
1523066683581741,1,5,7,5,1,-4,-9,-4
1523066683602836,-7,-5,-28,-12,-3,0,4,-5
1523066683602836,3,10,41,8,0,0,19,4
1523066683608829,-9,-15,-23,-1,-4,-1,-16,1
1523066683608829,0,9,26,6,4,-2,9,-1
1523066683632498,3,-2,-8,3,-1,9,23,3
1523066683632498,-8,6,-7,0,3,3,14,-7
1523066683633881,1,-1,4,4,1,-6,-20,3
1523066683633881,3,-1,3,-1,-2,-5,-7,0
1523066683655099,-6,-2,-7,-1,-1,-2,0,-5
1523066683655099,-2,-5,-8,-1,0,-8,-25,-8
1523066683656442,8,18,26,-4,-2,2,45,8
1523066683656442,-5,-7,-15,-4,-5,-3,-10,6
1523066683677618,4,1,-9,1,1,7,12,-3
1523066683677618,5,-2,10,3,1,-8,-49,-12
1523066683679000,-19,-4,6,-5,-4,0,13,-10
1523066683679000,16,19,-9,1,3,-1,1,11
1523066683699053,-1,-10,-11,4,4,5,4,16
1523066683699053,-1,3,-11,-2,-3,-8,-28,-10
1523066683709080,-8,8,40,2,0,8,23,-6
1523066683709080,12,0,21,1,-4,1,5,9
1523066683730276,-3,-1,-19,2,0,-3,-11,-9
1523066683730276,1,-5,-9,-8,-6,-3,13,6
1523066683731641,-5,-14,-34,1,-1,-6,-13,-3
1523066683731641,-7,7,51,0,-2,0,-1,-10
1523066683752804,-1,-5,-18,-2,-1,-6,-15,-2
1523066683752804,0,4,4,3,0,4,14,6
1523066683754201,8,2,-22,-3,1,-3,-11,3
1523066683754201,-7,-13,-10,4,4,1,-2,-2
1523066683774256,2,1,4,0,-5,1,3,-3
1523066683774256,-7,-6,5,-13,-7,3,10,-4
1523066683782777,2,-5,-20,-11,-4,-11,-19,2
1523066683782777,-3,1,4,23,12,5,-3,-12
1523066683783278,-1,-3,5,-32,-23,-4,-3,-8
1523066683783278,5,-3,-22,37,25,8,16,26
1523066683789858,2,-6,16,-36,-16,-1,-3,5
1523066683789858,-14,-17,-31,-4,-5,-12,-21,-12
1523066683790798,11,6,3,7,3,3,20,-3
1523066683790798,-14,2,40,17,6,17,16,-4
1523066683791803,-9,-10,-80,-7,0,-12,-18,-6
1523066683791803,9,10,36,1,-5,0,14,7
1523066683796923,-9,-7,-6,16,11,-5,-8,-1
1523066683796923,1,-8,-22,-19,-13,-8,4,-1
1523066683805946,-1,1,-5,16,9,2,-7,3
1523066683805946,-5,-5,-12,-1,5,0,-7,-11
1523066683806341,1,4,8,-8,-7,-9,-5,-1
1523066683806341,-2,-5,-13,-16,-9,-6,3,-5
1523066683807845,6,9,26,12,7,12,0,8
1523066683807845,0,-2,-8,-7,-7,-7,-11,1
1523066683811853,1,2,3,1,4,7,1,1
1523066683811853,-4,0,-12,-4,-10,-15,-14,-17
1523066683812860,1,-2,-2,-1,-4,-5,-10,-6
1523066683812860,4,2,-7,-4,4,4,18,15
1523066683819490,-13,-8,-8,3,3,-2,-8,-5
1523066683819490,-1,6,-3,-6,-7,-4,4,0
1523066683820488,2,0,38,5,-3,-5,-28,-9
1523066683820488,-4,-8,-28,-7,-6,3,-1,-7
1523066683827499,-1,8,11,4,-1,-8,-14,1
1523066683827499,-1,-8,-47,-7,1,-1,14,0
1523066683828901,5,9,57,13,7,4,-1,-6
1523066683828901,-11,-6,-8,2,2,3,1,3
1523066683834513,0,-7,0,-19,-11,-5,5,1
1523066683834513,-1,4,7,6,8,-1,-9,2
1523066683835504,-1,-5,-14,-7,-2,1,2,0
1523066683835504,-2,10,21,3,1,-7,-20,-16
1523066683842033,0,0,-5,15,13,4,25,5
1523066683842033,-5,-8,-19,-18,-18,-2,-1,-1
1523066683842936,8,8,-10,-3,1,-6,10,19
1523066683842936,4,2,34,7,1,-2,-6,-9
1523066683850059,3,9,-1,6,2,-2,-8,-5
1523066683850059,-1,-3,6,-1,6,5,0,-1
1523066683852058,-9,-4,-10,-3,-4,-1,10,-7
1523066683852058,4,-7,-24,-14,-6,1,3,7
1523066683856976,-2,3,24,13,3,-3,0,0
1523066683856976,4,-3,6,-1,-2,-2,9,1
1523066683857475,-6,7,0,8,-2,-4,-19,-11
1523066683857475,-2,-11,-46,-20,-17,-2,11,4
1523066683864997,1,-3,43,-11,-2,3,5,2
1523066683864997,4,3,2,7,5,-4,-6,1
1523066683867067,0,-1,-14,-3,-8,-7,8,-1
1523066683867067,-3,-8,-27,1,-1,4,9,0
1523066683872123,4,2,5,-15,0,-2,-12,-9
1523066683872123,-11,-6,14,6,-2,2,0,4
1523066683873041,2,4,3,7,4,0,-3,-1
1523066683873041,-1,-6,-10,12,5,-2,-1,-2
1523066683879643,-1,-5,-14,-7,-5,-2,-5,6
1523066683879643,7,4,-8,11,8,4,1,-4
1523066683880037,-4,2,15,-19,-10,-4,-11,-1
1523066683880037,0,-2,-9,4,4,2,10,9
1523066683910220,-12,-1,-7,8,1,6,22,-2
1523066683910220,17,4,0,1,-1,-3,-14,-3
1523066683916380,1,-8,-14,3,2,5,24,4
1523066683916380,-2,4,15,-7,-4,-3,-7,-5
1523066683932701,-4,-6,-11,-8,-2,-5,1,-1
1523066683932701,-6,2,17,-1,3,5,11,-6
1523066683934599,-2,-10,-13,3,3,5,25,2
1523066683934599,2,8,13,-5,-7,-4,0,-1
1523066683947668,-1,0,-8,16,8,-2,-17,-5
1523066683947668,-4,-8,-19,-21,-15,-7,-8,3
1523066683949137,2,7,35,1,-1,-1,4,-1
1523066683949137,-2,5,-2,0,0,-7,-7,-6
1523066683962672,-4,-3,-12,1,-4,-3,-2,-7
1523066683962672,7,4,4,1,6,14,31,15
1523066683964177,-10,-5,-15,-4,-5,-5,-17,-7
1523066683964177,1,-3,-3,1,4,11,-9,0
1523066683976311,-3,-4,6,-4,-8,-14,-24,-7
1523066683976311,0,4,5,-2,1,8,21,0
1523066683983842,1,-5,-15,-1,0,-3,-5,2
1523066683983842,-1,2,10,-1,0,-2,3,-2
1523066684000378,1,-4,-2,0,1,-2,-13,0
1523066684000378,-5,-8,5,-2,-3,-9,-18,-4
1523066684001777,0,3,-5,6,5,3,2,-11
1523066684001777,-3,-5,-6,-5,-5,-6,-1,7
1523066684014972,5,2,-19,-4,-6,-2,2,17
1523066684014972,1,6,27,7,2,-1,-10,-7
1523066684017073,-5,-4,-2,-2,-1,-9,-13,-8
1523066684017073,-1,-4,1,-2,4,4,3,-10
1523066684030118,0,11,20,-3,-5,-2,0,-1
1523066684030118,0,-1,-18,-2,0,1,-5,1
1523066684031516,2,-5,-1,-1,0,-1,-7,3
1523066684031516,1,4,4,-1,6,0,5,4
1523066684045153,0,-3,-11,6,3,3,0,-3
1523066684045153,-3,-2,-7,-11,-17,-13,-13,-4
1523066684046556,-1,-2,4,-4,5,3,0,-1
1523066684046556,-2,-3,-4,11,5,-3,0,-2
1523066684058588,2,1,-15,-13,-1,5,0,2
1523066684058588,-13,-3,23,-1,-2,-11,-9,-5
1523066684067612,3,-8,-19,0,-3,3,-6,6
1523066684067612,4,2,-3,-5,-9,-15,-11,-11
1523066684082251,-15,-8,-12,26,26,28,28,4
1523066684082251,13,-3,10,-16,-15,-6,-1,14
1523066684082652,2,-2,-1,-8,-4,-2,-18,-19
1523066684082652,-6,2,-34,4,3,1,-1,3
1523066684097692,4,10,60,1,-8,-4,3,-2
1523066684097692,-5,-5,-20,-3,-1,-1,2,0
1523066684099196,-4,0,10,11,1,0,-8,-1
1523066684099196,0,-3,7,-13,-7,1,6,-1
1523066684112789,-1,-2,-22,1,1,-6,-3,-2
1523066684112789,-3,1,4,5,6,3,-2,1
1523066684114236,5,1,11,-1,-3,-4,-3,-4
1523066684114236,-3,-9,-26,1,0,1,17,1
1523066684134892,2,7,12,-8,-11,-10,-7,-2
1523066684134892,3,3,21,10,12,17,6,-2
1523066684136796,-1,0,-15,-12,-9,-2,12,10
1523066684136796,-1,0,-10,-2,3,4,5,-3
1523066684156346,-1,-6,13,-12,-14,-12,-12,0
1523066684156346,1,2,-8,1,5,-3,34,-4
1523066684165875,0,3,-16,7,6,1,13,2
1523066684165875,-6,-8,2,-3,-3,1,-14,0
1523066684187531,5,-1,-16,-7,-5,-4,0,-6
1523066684187531,-8,-7,3,12,9,3,-7,-9
1523066684189533,-3,-5,-3,-5,-3,-4,-13,-2
1523066684189533,4,6,22,-4,-5,-2,-4,-2
1523066684209990,-4,-7,-12,0,2,-3,0,9
1523066684209990,-2,-4,-10,5,3,0,-6,5
1523066684211494,2,10,-7,-7,-7,-4,-1,2
1523066684211494,-3,-7,1,-3,-7,-5,-9,-12
1523066684232244,5,-3,-17,4,9,2,5,-1
1523066684232244,-14,1,2,-2,-7,-8,-28,-13
1523066684238871,-2,2,20,-4,-1,13,40,9
1523066684238871,10,10,6,3,0,1,-29,4
1523066684263330,6,4,12,4,-4,-4,-18,1
1523066684263330,-3,-1,-21,-7,-7,-4,5,0
1523066684264834,1,1,16,12,4,-8,-17,-12
1523066684264834,-7,3,8,0,-1,7,35,4
1523066684285459,-6,-9,-25,-15,-12,-6,-18,-2
1523066684285459,7,6,-14,3,-5,-9,-22,-1
1523066684287009,-13,-26,-13,-12,-11,-3,7,-2
1523066684287009,1,13,4,7,0,-3,-10,0
1523066684306444,-1,-1,13,3,-5,2,-5,-1
1523066684306444,0,-4,-21,-15,-15,-7,4,-13
1523066684314968,-5,1,34,3,2,0,-7,11
1523066684314968,0,3,19,7,-2,-6,-16,0
1523066684337935,-3,-8,-29,-17,-6,7,7,-3
1523066684337935,2,1,2,10,2,-1,-8,-5
1523066684339190,3,4,10,0,-8,-5,-11,-1
1523066684339190,-5,-8,-21,-5,-6,-7,6,-6
1523066684359773,-1,5,26,13,7,1,-14,5
1523066684359773,4,14,28,8,3,10,37,11
1523066684367766,-16,-20,-59,3,-4,-10,-1,-15
1523066684367766,6,-4,19,-19,-10,1,0,6
1523066684390327,-1,0,-4,1,0,-6,-6,-10
1523066684390327,-1,-6,-6,-6,-2,0,-9,-1
1523066684391830,4,3,-4,8,4,0,28,8
1523066684391830,-6,1,4,4,1,2,-9,-9
1523066684412383,-1,-3,-21,-15,-12,-1,2,-2
1523066684412383,0,-8,15,-5,-1,0,-8,-1
1523066684418675,-6,5,-5,2,2,0,-12,0
1523066684418675,-3,-5,-3,-11,0,-3,-6,2
1523066684442965,-2,0,-3,8,6,1,6,-5
1523066684442965,2,5,-8,5,7,4,21,3
1523066684443970,4,-4,-32,-13,-5,1,-6,0
1523066684443970,-1,2,19,11,-1,-5,-19,-4
1523066684465751,-1,-3,-7,-9,-4,5,55,5
1523066684465751,-5,-5,0,0,0,-10,-27,-6
1523066684468033,0,1,9,-1,2,3,2,-4
1523066684468033,1,1,-7,-8,-3,-6,-13,1
1523066684486373,-2,-6,13,-1,0,7,4,0
1523066684486373,-1,-5,-10,-2,-2,-5,-11,-1
1523066684495108,5,2,-7,-5,3,1,-12,0
1523066684495108,-7,-2,14,-1,-1,-5,3,-4
1523066684525421,-5,-5,-15,-2,-3,-4,-7,-4
1523066684525421,-1,-1,-6,-3,-2,-3,-2,-1
1523066684526686,3,5,18,5,1,4,12,1
1523066684526686,-1,-6,-30,-2,-1,-1,2,-4
1523066684540222,-4,0,5,3,3,0,-1,1
1523066684540222,-2,-2,4,-4,1,11,27,5
1523066684541728,-7,3,-17,-2,0,4,5,-13
1523066684541728,12,7,37,-2,-4,0,18,10
1523066684562784,0,-7,-17,0,-3,-11,-7,-10
1523066684562784,1,2,-3,-4,-5,-1,-14,-9
1523066684568799,-8,-7,14,3,5,2,-9,13
1523066684568799,-4,-3,-25,-2,-3,0,5,-10
1523066684583840,3,7,10,-2,-3,-1,-8,7
1523066684583840,0,-7,-6,-3,-2,-12,-10,-8
1523066684592714,-1,0,-10,3,4,5,-9,1
1523066684592714,-6,3,11,-1,1,2,-4,-13
1523066684615052,0,-5,-13,1,-2,-2,7,-1
1523066684615052,-4,-8,-9,-1,2,2,-15,3
1523066684616780,5,5,7,0,-4,-5,-4,0
1523066684616780,-3,-6,-15,-4,-3,1,-3,6
1523066684638115,1,10,29,9,3,0,-3,-3
1523066684638115,-2,1,3,1,-1,1,7,1
1523066684639338,2,-8,-18,-29,-18,-11,-5,4
1523066684639338,-3,1,26,35,20,9,9,-2
1523066684660164,-5,-11,-22,-31,-18,-9,0,-6
1523066684660164,3,11,13,19,17,7,5,-1
1523066684661900,-5,3,19,-11,-12,-4,20,0
1523066684661900,-4,-13,-37,-3,-4,-13,-33,-8
1523066684681447,12,-5,4,21,9,14,12,20
1523066684681447,2,-1,-8,-2,-3,-1,-2,4
1523066684690474,-11,-4,-9,-13,-5,-6,-19,-11
1523066684690474,5,12,21,14,4,-1,22,-5
1523066684712533,0,9,-20,-10,-8,-14,-6,-11
1523066684712533,-6,-5,8,-4,4,-3,-11,1
1523066684714603,2,-2,-25,12,3,3,1,-5
1523066684714603,-3,-2,36,0,2,3,-5,6
1523066684719549,-2,9,13,24,10,-7,-10,-8
1523066684719549,2,-10,-19,-36,-23,4,12,2
1523066684720589,-1,-7,-20,0,3,-4,-8,-4
1523066684720589,1,11,25,-11,-3,1,20,-2
1523066684727860,-6,-7,-4,12,5,7,2,-5
1523066684727860,-1,6,10,-2,-2,-3,-18,2
1523066684729075,-1,2,5,5,7,2,5,-4
1523066684729075,-6,-19,-41,0,2,8,20,3
1523066684734731,1,-1,1,-25,-16,-5,-14,1
1523066684734731,-4,-5,-32,3,-5,-6,2,-4
1523066684735094,4,4,38,-6,-3,-3,-3,0
1523066684735094,2,0,-14,3,4,0,4,3
1523066684742113,-5,-1,11,-1,1,-2,-4,-1
1523066684742113,0,0,7,15,7,0,-2,-1
1523066684743112,0,-7,-10,-6,-8,-4,9,1
1523066684743112,-1,0,0,-7,-4,1,-4,1
1523066684750407,-3,-6,-20,3,6,0,-5,-6
1523066684750407,-5,7,15,-2,-6,-6,-1,-3
1523066684751634,6,-7,-11,-4,-2,-2,-34,4
1523066684751634,4,8,0,-6,-1,7,7,7
1523066684756647,-4,-7,0,-3,1,5,23,2
1523066684756647,-3,1,-4,10,6,-2,-16,-11
1523066684757651,-5,-3,4,9,0,-7,-8,-4
1523066684757651,0,-4,-22,-18,-16,-11,-22,0
1523066684765190,1,-5,4,-1,-1,0,6,7
1523066684765190,-1,9,3,-2,-1,4,6,-2
1523066684766513,1,5,10,11,5,3,16,-6
1523066684766513,2,2,1,-8,-6,-6,-31,-2
1523066684772326,-13,-9,19,8,3,-6,-6,-7
1523066684772326,5,-6,10,-7,2,2,0,2
1523066684772527,4,7,-5,7,6,1,0,1
1523066684772527,-6,-5,4,-5,-7,-4,6,0
1523066684779821,3,-3,-24,-6,-6,-6,-16,-5
1523066684779821,0,-2,26,2,2,-3,-3,-2
1523066684780048,-3,-8,-15,-11,-4,7,33,6
1523066684780048,0,14,22,1,-4,-2,-9,-3
1523066684787619,5,-1,-11,-14,-9,-2,-21,-4
1523066684787619,-6,0,-13,-5,-3,0,27,5
1523066684789122,12,-9,-21,3,8,2,-5,-7
1523066684789122,-4,-4,5,-3,-1,-2,2,4
1523066684810451,1,7,10,-1,0,2,-6,2
1523066684810451,-3,-11,-17,-9,-13,-3,0,-8
1523066684811683,2,13,32,-6,-2,-3,-8,4
1523066684811683,-8,-12,-18,2,1,-2,1,-4
1523066684831426,3,0,-7,-18,-11,1,4,-2
1523066684831426,-1,-7,-1,3,3,1,3,11
1523066684840259,-4,2,16,16,3,-8,-2,-5
1523066684840259,1,-9,0,-22,-7,7,-16,-3
1523066684863319,-4,-2,-3,-2,5,-2,6,-4
1523066684863319,-2,-5,-9,2,1,5,1,2
1523066684864825,-3,-1,6,2,-1,-7,-4,4
1523066684864825,1,3,-6,2,3,-1,-9,-1
1523066684884000,-6,3,16,-3,-4,-2,-7,-2
1523066684884000,3,4,16,3,-2,-2,3,-3
1523066684892899,-4,-5,-28,6,13,1,-14,0
1523066684892899,-2,-7,6,-6,-6,2,13,0
1523066684914958,0,5,2,6,5,2,5,-1
1523066684914958,-2,-6,-13,-4,-6,-13,-11,-4
1523066684916463,-4,7,12,-1,-2,5,13,1
1523066684916463,1,-1,-7,8,10,2,5,-2
1523066684937518,0,-2,8,-8,-9,-7,0,2
1523066684937518,1,3,4,-3,6,4,-10,-1
1523066684939021,-5,0,-10,3,-2,2,-9,-5
1523066684939021,2,-2,-4,-4,-5,3,12,1
1523066684958574,-1,3,-11,-9,3,-4,-14,-4
1523066684958574,3,-4,3,4,1,0,12,2
1523066684969103,-2,-5,-1,1,3,14,6,1
1523066684969103,-1,11,13,8,0,-6,1,-4
1523066684990157,2,-4,-20,6,4,-1,-1,0
1523066684990157,-3,11,4,-14,-14,-4,-12,-7
1523066684991663,-4,-9,2,-5,3,1,13,1
1523066684991663,0,-2,-8,2,2,4,12,4
1523066685011472,0,-3,-5,1,-1,-8,-12,-7
1523066685011472,-2,-5,-4,3,6,7,5,0
1523066685020240,2,1,12,0,-5,-3,-10,-2
1523066685020240,-1,-6,-31,-6,-1,-5,-18,7
1523066685043297,-4,7,41,7,3,5,25,1
1523066685043297,3,-2,-2,1,1,3,11,9
1523066685045806,1,4,0,-6,-5,-3,-3,-7
1523066685045806,-3,-4,-7,0,0,-3,1,-10
1523066685064093,1,-1,-7,3,3,4,-22,2
1523066685064093,-5,-1,2,-3,0,3,19,0
1523066685079142,5,4,-13,-7,-3,-5,-22,-1
1523066685079142,-3,-4,-20,3,0,-7,6,-1
1523066685095164,-3,3,10,-2,-5,-1,0,0
1523066685095164,0,-9,-4,-5,-1,-1,-6,-7
1523066685096940,1,4,-13,4,-2,-3,2,0
1523066685096940,-19,-2,13,-11,-11,-3,-9,-6
1523066685117497,23,9,-30,3,5,2,6,7
1523066685117497,-2,1,21,5,-1,-10,-18,-4
1523066685119581,7,2,9,5,9,10,18,2
1523066685119581,-13,-4,-2,-6,-5,-2,-3,-12
1523066685140058,0,0,-1,0,6,5,-2,-11
1523066685140058,2,13,18,13,8,2,11,24
1523066685141561,2,-24,-29,-41,-24,-14,-5,0
1523066685141561,9,28,-4,33,19,-6,-14,-4
1523066685147578,-4,-19,-8,-9,-11,-1,-37,-4
1523066685147578,4,9,14,11,1,11,19,-10
1523066685149081,-14,-14,-18,-4,-3,-2,11,8
1523066685149081,10,-5,-11,11,7,-1,18,0
1523066685154327,-17,1,25,-2,0,0,-17,-5
1523066685154327,4,3,-9,-16,-2,-2,-23,1
1523066685155101,5,5,26,19,6,3,17,3
1523066685155101,-1,-3,-26,-19,-8,-3,-3,-2
1523066685162384,-3,-1,10,4,0,3,17,0
1523066685162384,-6,-7,-9,2,-3,-7,-9,-9
1523066685162619,-2,9,-2,-13,-3,-1,-5,0
1523066685162619,5,-5,-2,3,6,0,-2,2
1523066685170424,-2,4,1,-2,-8,-10,1,0
1523066685170424,-3,-6,-10,-3,-4,8,23,0
1523066685171642,-3,-1,10,12,5,-8,-33,-15
1523066685171642,4,-8,-25,-9,-5,1,16,7
1523066685177431,-3,2,27,7,-5,-8,13,11
1523066685177431,3,10,24,-2,-5,-11,-21,-16
1523066685177656,-2,6,6,5,2,-3,14,-1
1523066685177656,-3,-11,-5,3,-1,3,-29,-1
1523066685185449,-5,-12,-19,-4,3,1,13,0
1523066685185449,-9,0,-33,-8,-4,-10,-15,-11
1523066685186682,14,4,16,0,-1,5,0,3
1523066685186682,-10,-8,14,-7,-6,-1,8,1
1523066685192278,2,2,-18,3,7,3,5,3
1523066685192278,1,-5,7,4,1,-2,-3,2
1523066685192700,-4,-4,2,5,0,1,2,6
1523066685192700,3,3,3,-28,-16,-3,-6,-6
1523066685199467,-3,-9,-19,2,4,-4,0,-1
1523066685199467,-4,-10,18,-10,-5,13,26,8
1523066685200218,-1,6,10,-20,-8,-1,-22,-10
1523066685200218,4,2,15,16,7,8,13,18
1523066685207735,-1,3,-4,-7,-2,-5,-16,-8
1523066685207735,-4,-1,-4,2,0,-5,-13,-7
1523066685209240,-5,-10,-16,2,1,-4,-11,-7
1523066685209240,4,5,7,6,4,7,15,0
1523066685214344,0,-2,-6,-11,-10,1,1,-1
1523066685214344,5,2,-12,1,-2,-8,-19,1
1523066685215255,-1,-2,-1,0,-1,-3,3,-1
1523066685215255,-9,-9,3,11,0,-8,-2,-6
1523066685222276,6,4,7,-9,-6,5,-2,3
1523066685222276,-6,-8,-30,-16,-6,-5,-2,0
1523066685222778,-5,5,19,8,5,-1,-17,-4
1523066685222778,-1,4,-2,-5,0,-5,-4,1
1523066685229795,-5,0,15,19,7,-3,-8,-3
1523066685229795,3,0,-12,-12,-10,1,7,-1
1523066685231799,6,-7,-10,-3,-2,0,7,1
1523066685231799,-1,-2,1,11,9,0,-4,-6
1523066685237093,-3,-7,-28,-11,-8,-2,-8,-6
1523066685237093,0,5,13,0,-1,-5,-17,-3
1523066685237816,-8,-3,-3,-1,-3,0,12,5
1523066685237816,3,-4,-18,5,5,6,4,5
1523066685245371,5,15,36,10,-5,-4,5,5
1523066685245371,-5,-15,-19,-14,-1,2,-6,-7
1523066685245839,-7,3,-1,-5,-6,-6,-16,-10
1523066685245839,0,-5,-8,9,-4,-2,-4,3
1523066685267691,-3,6,-3,-15,-4,-4,3,-1
1523066685267691,-5,-16,-21,2,2,-1,3,4
1523066685269399,-3,3,-13,15,5,-2,-5,1
1523066685269399,-2,4,23,2,-2,-2,-5,-10
1523066685290011,-2,-9,-28,-15,-5,5,19,12
1523066685290011,5,9,44,16,10,1,-4,-3
1523066685291516,-4,-8,-17,-15,-11,-2,6,4
1523066685291516,3,7,-5,-2,1,-1,-18,-10
1523066685311359,-4,2,22,13,6,1,5,-8
1523066685311359,11,2,-2,9,7,0,5,3
1523066685320093,-2,-4,13,-11,-7,-4,-14,1
1523066685320093,-1,4,20,-7,-4,11,33,9
1523066685342926,1,-3,22,2,-3,-4,-8,-3
1523066685342926,-2,4,-4,6,3,-4,-12,1
1523066685344156,-2,6,8,-2,3,2,6,-5
1523066685344156,6,-12,-38,-13,-8,-13,-13,-2
1523066685365495,-5,-3,-9,0,6,8,2,0
1523066685365495,-6,-2,0,1,-3,1,-6,-2
1523066685366718,6,2,0,1,-6,5,21,3
1523066685366718,-5,2,2,-4,0,-2,-6,0
1523066685387058,6,0,-2,2,2,-1,0,0
1523066685387058,-7,-2,-13,-5,-5,-13,-24,-9
1523066685395296,-7,3,15,-1,2,10,39,4
1523066685395296,19,-2,-5,-8,-6,-8,-1,-7
1523066685417851,-18,-8,-2,6,1,-1,-6,1
1523066685417851,8,12,-5,-7,-4,-1,-1,0
1523066685419354,-4,-9,-6,5,2,-1,6,1
1523066685419354,-10,-6,8,0,-4,-7,-11,-8
1523066685439408,3,-5,-11,-6,0,1,-11,0
1523066685439408,-2,-1,-1,-1,1,4,-1,4
1523066685447430,3,-2,-25,-3,-1,-5,5,-4
1523066685447430,-4,5,38,-1,-1,1,8,-1
1523066685470279,3,-5,-11,-1,1,-5,-14,-7
1523066685470279,-1,-3,2,-1,0,3,13,17
1523066685471495,0,-1,-2,5,3,0,-10,-7
1523066685471495,-2,-4,-5,-7,-4,-2,-4,2
1523066685492049,1,4,-4,-3,-1,-5,3,-7
1523066685492049,0,-1,-8,2,-7,-4,3,0
1523066685499220,-2,1,15,-3,0,-1,-4,-5
1523066685499220,-2,4,-15,10,12,9,-6,6
1523066685522633,-1,-3,-3,-3,-10,-5,1,-3
1523066685522633,-5,-25,-54,-29,-2,4,12,-5
1523066685524136,8,26,62,20,7,-7,-17,-4
1523066685524136,7,14,70,-16,-19,-1,3,-1
1523066685545189,-1,-8,-14,8,4,1,1,-1
1523066685545189,-3,5,11,4,2,5,10,-6
1523066685546695,-5,-24,-53,-19,-8,-12,-25,2
1523066685546695,8,4,22,6,-1,1,5,29
1523066685567861,3,2,1,9,6,-5,-15,-12
1523066685567861,-2,9,27,13,9,8,14,3
1523066685575367,0,-6,-23,-2,-4,-3,-31,-7
1523066685575367,-7,-5,-16,-11,-3,-4,-2,-9
1523066685575771,-4,-3,26,38,20,-3,-10,-8
1523066685575771,0,-1,-15,-46,-31,-10,4,3
1523066685576864,-2,-3,0,7,6,4,14,1
1523066685576864,-3,0,1,2,4,1,-2,-5
1523066685582788,0,7,-9,2,5,-1,-6,6
1523066685582788,2,-4,1,2,-10,-4,-2,-1
1523066685584404,-3,-2,-11,-6,0,-2,2,-1
1523066685584404,-3,-3,14,2,2,4,1,-4
1523066685589309,3,-2,-11,-10,-2,4,7,1
1523066685589309,-1,-1,8,12,8,0,-6,-3
1523066685590309,-11,4,1,-9,-8,-5,-18,-5
1523066685590309,6,-4,-24,-2,9,2,9,3
1523066685596827,-4,-17,-19,-8,-5,2,-5,2
1523066685596827,0,0,15,7,6,-7,-13,4
1523066685597829,-1,4,-4,0,-4,9,14,-2
1523066685597829,-11,-7,-14,8,8,-4,-14,-7
1523066685604980,4,3,-2,-19,-13,-1,8,-2
1523066685604980,2,-2,3,5,6,6,4,-1
1523066685606353,-4,-7,2,3,-1,-4,0,7
1523066685606353,-3,4,-6,2,-1,-1,-6,-3
1523066685611971,4,0,-3,-13,-9,-1,8,0
1523066685611971,-7,-5,-9,2,-2,-5,-8,-7
1523066685612874,2,4,6,-2,0,-1,-2,-1
1523066685612874,-2,-8,-25,-7,-6,0,-1,-1
1523066685619491,-7,6,17,3,-3,-5,1,5
1523066685619491,-3,-1,-7,-3,1,-3,-17,-9
1523066685620486,8,5,11,-5,-5,14,34,13
1523066685620486,-2,-11,-15,-6,-6,-4,-10,-2
1523066685627497,1,5,-13,-3,-1,-1,0,-4
1523066685627497,-2,0,17,12,4,-6,-12,-2
1523066685628913,2,-6,14,2,4,-2,-28,-5
1523066685628913,-6,3,-1,0,-6,-8,16,1
1523066685634531,-4,0,-26,-6,3,11,3,2
1523066685634531,3,5,36,3,0,2,7,0
1523066685635527,3,6,-1,6,-1,-5,4,-1
1523066685635527,-6,-13,-27,-13,-10,1,4,-2
1523066685642047,-2,-1,38,-1,-4,-8,-8,-2
1523066685642047,-4,-3,-17,1,3,1,5,-8
1523066685642448,-1,-4,-18,4,3,-2,-3,-1
1523066685642448,0,12,15,0,0,1,-10,4
1523066685650067,5,1,4,-1,-3,3,12,2
1523066685650067,-2,-3,-15,-5,-6,0,-2,-5
1523066685652031,-2,-2,-2,10,8,-2,-11,-8
1523066685652031,-1,1,15,-2,-1,4,24,0
1523066685656988,0,-4,-17,-16,-5,-10,-17,3
1523066685656988,-1,-5,-7,-2,0,10,38,9
1523066685657489,8,3,-9,8,1,-4,-25,-10
1523066685657489,-4,-4,4,0,3,5,-6,1
1523066685680153,-5,-6,-16,-5,-5,-6,0,-4
1523066685680153,-1,7,14,15,7,-3,-21,-2
1523066685681552,-7,-14,-24,-24,-14,-5,-4,-1
1523066685681552,-9,3,13,9,6,13,34,-14
1523066685702717,23,2,7,5,4,4,5,14
1523066685702717,-6,-7,-11,11,1,-3,-12,1
1523066685704113,3,12,7,-7,-2,2,9,4
1523066685704113,-2,-6,-11,5,1,-9,-36,-6
1523066685724666,-5,2,1,0,5,0,12,-7
1523066685724666,0,-2,-4,-1,-5,4,10,4
1523066685732688,-2,-9,-16,-4,0,-4,-14,-4
1523066685732688,3,9,32,3,-2,1,3,1
1523066685739208,-14,-15,-30,1,-4,-7,-14,-3
1523066685739208,20,26,31,-6,-1,-3,0,-2
1523066685740210,-1,-6,-22,-6,2,10,9,4
1523066685740210,0,-11,-17,-2,-5,-8,-6,1
1523066685747826,-6,1,-10,7,2,0,1,-3
1523066685747826,-3,-7,-9,-8,-6,-10,-18,-6
1523066685749234,-2,-1,9,-3,-3,-3,31,3
1523066685749234,7,2,-10,1,2,10,1,3
1523066685770388,0,5,19,-3,-2,-3,-35,1
1523066685770388,-7,-5,-16,-5,0,4,26,-8
1523066685771792,-2,1,25,8,7,2,-11,6
1523066685771792,6,-7,-15,-3,-1,-7,-19,-5
1523066685791344,-9,3,8,-4,-5,-1,17,-2
1523066685791344,-2,-2,-2,1,4,3,-10,-2
1523066685800480,0,-3,3,5,-3,3,25,6
1523066685800480,4,6,4,-2,-4,-6,-6,2
1523066685822931,7,-6,11,1,1,5,-1,-5
1523066685822931,-5,-2,-14,-3,-3,-3,-5,-5
1523066685824935,-1,-5,3,-3,-8,-6,-6,3
1523066685824935,-25,-7,-33,-6,-1,-1,6,2
1523066685844092,30,6,18,9,2,1,7,-5
1523066685844092,0,-2,5,-2,4,5,11,11
1523066685852507,1,-14,-71,-8,-2,-6,-14,-2
1523066685852507,-7,16,62,8,-1,-3,-2,-4
1523066685875068,-8,12,14,-6,-2,0,-1,-2
1523066685875068,-26,-19,-8,2,3,1,-2,-6
1523066685876573,4,-3,0,5,3,4,3,1
1523066685876573,3,-12,-45,-16,-11,-9,5,-5
1523066685896625,-7,4,37,-3,0,0,-4,-9
1523066685896625,13,-9,3,-6,-6,-4,-2,6
1523066685912668,-5,18,24,17,5,-1,-3,-2
1523066685912668,2,-2,-10,-6,-7,-2,-2,4
1523066685918761,-5,-1,-9,13,5,-3,5,-2
1523066685918761,-6,-16,-29,-39,-22,-13,-11,-6
1523066685929371,0,14,40,16,6,3,10,-1
1523066685929371,7,0,-2,7,2,8,4,-2
1523066685949925,2,-1,-20,-15,-13,-9,1,1
1523066685949925,6,1,0,1,2,-4,-10,4
1523066685951431,-12,-1,8,-6,-9,-2,2,-18
1523066685951431,1,-3,7,2,-1,-8,-16,1
1523066685971542,-3,-3,-25,3,5,15,18,4
1523066685971542,3,7,17,14,9,-2,2,-1
1523066685980005,-2,-6,4,-7,-3,-7,-5,0
1523066685980005,1,-2,-10,11,11,7,6,0
1523066686003266,-7,0,2,-13,-11,-7,-14,-3
1523066686003266,6,4,-62,8,3,1,-4,-3
1523066686004606,2,2,43,2,-3,6,4,6
1523066686004606,-5,-5,-5,-7,2,-3,-14,-8
1523066686023620,-6,1,-7,1,-3,-7,-3,-2
1523066686023620,0,-10,3,-4,2,7,31,4
1523066686032648,-12,5,-6,-10,-1,-2,0,-13
1523066686032648,0,-2,1,11,3,-1,-39,-10
1523066686055211,-1,-9,-6,-11,-6,0,4,13
1523066686055211,3,11,22,9,-2,-4,-7,9
1523066686056710,4,-6,-10,-6,0,0,11,-4
1523066686056710,-1,-6,-6,-6,-5,-5,15,1
1523066686077765,-2,-1,12,5,3,-4,-25,-9
1523066686077765,-5,-3,6,9,5,15,40,-6
1523066686079269,5,-3,-7,-19,-11,0,-5,6
1523066686079269,-2,1,-16,-1,-1,-4,-8,-6
1523066686099611,9,4,-5,-4,2,6,10,4
1523066686099611,-11,-7,-36,-12,-8,-6,-20,4
1523066686107874,-2,12,64,10,0,-10,-14,-8
1523066686107874,0,-7,-5,-19,-10,4,16,5
1523066686121881,-1,1,-11,8,2,-6,-13,1
1523066686121881,-8,4,3,5,0,-4,-8,-3
1523066686129904,22,-1,-27,0,11,8,-10,4
1523066686129904,-1,-2,-8,-4,-5,-6,2,1
1523066686152965,-5,5,52,34,20,5,10,-10
1523066686152965,-4,-6,-12,-27,-26,-10,-16,-7
1523066686153968,-2,-3,-2,1,3,2,4,4
1523066686153968,2,7,-3,2,3,4,-1,4
1523066686175025,-1,-10,-19,-9,1,3,2,-2
1523066686175025,1,6,36,14,5,-4,-6,-2
1523066686176534,-1,-6,-24,-7,-9,-5,6,-1
1523066686176534,2,-3,13,0,0,-2,2,-4
1523066686197285,-12,-6,-21,-7,-3,2,12,5
1523066686197285,2,-2,2,17,9,-4,-36,-6
1523066686203829,-1,-2,6,-19,-20,0,25,4
1523066686203829,-4,1,-14,10,12,-1,-22,-11
1523066686218640,2,-4,-11,-21,-16,0,37,8
1523066686218640,-3,-5,-16,6,6,2,10,-1
1523066686229170,-3,2,40,14,8,-8,-28,0
1523066686229170,2,-6,-36,-20,-13,0,12,4
1523066686250424,8,12,25,0,-6,-2,-10,-2
1523066686250424,-11,-5,-9,5,11,-4,-7,-6
1523066686251729,-4,2,-10,3,0,7,19,-18
1523066686251729,4,7,13,-22,-13,1,-9,26
1523066686271278,-1,-7,-1,5,4,0,-11,6
1523066686271278,8,10,3,-2,-4,-3,0,-5
1523066686280306,-6,-3,-36,8,5,-2,-13,-7
1523066686280306,-3,8,31,9,2,-5,4,-13
1523066686303302,2,-6,-9,-3,1,5,-4,-3
1523066686303302,4,4,-1,-16,-10,4,21,12
1523066686305012,-3,-1,10,5,5,1,-2,4
1523066686305012,-3,1,3,3,-2,-2,2,-8
1523066686324705,-2,-4,-7,4,6,-3,-9,0
1523066686324705,2,-2,4,-9,-11,-5,-15,-8
1523066686332596,1,-9,-10,-9,-2,-6,-7,4
1523066686332596,0,2,-18,4,4,-1,-1,4
1523066686355146,-6,1,0,1,0,-1,-4,-7
1523066686355146,-2,-8,2,-2,-3,-2,8,-4
1523066686356651,-2,-2,-18,2,-2,-14,-38,-1
1523066686356651,1,-3,9,6,8,17,30,4
1523066686377707,-8,-5,-9,-4,-4,-5,10,-9
1523066686377707,4,9,6,-1,4,8,15,11
1523066686379211,-5,-3,-5,-4,-7,-20,-27,-11
1523066686379211,-1,-3,0,1,2,7,17,-2
1523066686398876,5,0,-11,-8,-11,-13,-23,8
1523066686398876,-13,-6,-1,3,2,5,0,-20
1523066686409135,-6,-3,18,-2,-2,6,18,2
1523066686409135,3,-3,-2,3,-2,-7,-12,1
1523066686430429,-4,-1,-4,-3,-4,-4,-4,-18
1523066686430429,2,-6,15,-4,-2,-4,-6,16
1523066686431695,1,3,-37,-2,-7,-8,-9,0
1523066686431695,-2,-1,10,5,3,1,12,4
1523066686451250,1,-3,-8,-4,-3,-2,-1,-2
1523066686451250,2,7,-13,-4,-1,-2,-14,-6
1523066686467793,1,0,29,2,0,12,23,6
1523066686467793,-3,-18,-19,-3,-1,-3,-16,-8
1523066686482626,-4,7,14,4,3,3,4,-2
1523066686482626,6,8,7,9,7,2,-3,-1
1523066686484336,9,-8,-24,-20,-11,0,-2,2
1523066686484336,-29,6,78,3,-1,-10,-1,-5
1523066686504174,13,-2,-17,-5,-6,6,5,-11
1523066686504174,-18,2,19,4,11,-2,-8,12
1523066686512912,10,-10,-23,-14,-2,0,-3,18
1523066686512912,-8,0,-7,-13,-17,-11,-3,-25
1523066686535268,-1,-4,21,28,18,1,-8,8
1523066686535268,11,2,1,-4,-9,3,2,2
1523066686536476,-14,-2,-20,-2,3,9,-11,-24
1523066686536476,6,5,-5,3,4,-4,0,4
1523066686557530,2,3,12,-3,-1,0,-14,27
1523066686557530,3,-3,-28,-7,-3,-2,1,-14
1523066686559036,-5,-9,10,2,8,6,6,4
1523066686559036,3,-3,-15,-6,-6,-2,-8,-8
1523066686580091,-6,-2,-5,2,-2,0,-3,-11
1523066686580091,1,-5,-2,-5,-1,-2,-2,9
1523066686581595,0,10,19,5,2,-2,9,-6
1523066686581595,14,3,-7,13,8,1,-6,0
1523066686602504,-8,-4,-8,-16,-7,-4,3,8
1523066686602504,10,0,-4,0,2,6,12,0
1523066686610032,-14,6,35,10,6,3,7,-10
1523066686610032,3,-7,-41,-14,-9,0,-15,4
1523066686632588,-10,-1,6,-2,-2,-12,-4,9
1523066686632588,27,2,-20,-4,-7,2,-12,-5
1523066686634092,-4,-5,13,8,4,2,0,-1
1523066686634092,-4,-4,-4,1,-2,-4,-6,4
1523066686655147,-4,-7,1,-4,4,6,18,-12
1523066686655147,-8,0,5,5,2,-3,-2,-1
1523066686656654,-1,4,-20,6,3,-2,-6,5
1523066686656654,5,-8,-20,-12,-9,-1,9,8
1523066686677764,1,10,15,-7,-2,-2,-10,-6
1523066686677764,-13,-14,15,6,0,-5,-9,-9
1523066686679268,2,4,-10,1,-1,2,12,1
1523066686679268,-1,8,-1,2,1,4,3,13
1523066686699107,8,5,24,6,3,0,-5,-8
1523066686699107,-7,3,10,0,2,1,15,-2
1523066686709219,3,-7,-14,-2,1,-3,6,-4
1523066686709219,-4,-3,-2,7,5,0,22,-8
1523066686730239,1,-7,-24,-12,-9,4,-7,6
1523066686730239,-5,3,19,-2,-5,-7,-23,0
1523066686731747,1,-5,-26,-1,0,-4,2,6
1523066686731747,-12,5,30,12,9,2,1,-8
1523066686751795,18,-8,-11,5,-2,3,-8,4
1523066686751795,2,4,2,-11,-13,-8,1,-6
1523066686759088,0,-4,-18,-7,-4,-2,-3,5
1523066686759088,1,2,12,6,3,-4,2,-2
1523066686774098,-11,-10,-14,-6,-3,-5,-7,-9
1523066686774098,1,1,-21,-4,-3,5,3,3
1523066686782947,1,6,36,-8,-8,-7,1,0
1523066686782947,0,-6,-9,5,1,0,-5,-4
1523066686805002,-5,7,16,1,1,-3,7,-4
1523066686805002,-1,-5,-32,6,4,-8,-16,6
1523066686806508,2,-5,-18,1,-3,0,-3,5
1523066686806508,6,10,24,-3,0,15,24,2
1523066686827320,-4,-6,9,-17,-10,-3,2,-3
1523066686827320,-6,1,4,8,9,2,-3,-3
1523066686835084,-3,-2,1,-3,-10,-1,-2,-4
1523066686835084,1,3,-12,14,9,-3,-13,0
1523066686857748,-5,-1,-10,-11,-9,0,9,-8
1523066686857748,12,1,43,0,-4,0,-2,7
1523066686858980,0,3,-9,8,6,-1,-7,-4
1523066686858980,1,-3,20,-12,-10,-7,-10,2
1523066686879606,-4,1,-10,4,6,10,21,0
1523066686879606,-3,0,1,4,-1,-3,-9,-9
1523066686887316,1,4,-2,-3,-1,1,-1,2
1523066686887316,-2,-9,-55,-23,-5,1,-1,2
1523066686910116,2,-1,27,17,3,-4,-2,-1
1523066686910116,-7,-13,-28,-7,-5,-4,1,2
1523066686911619,5,10,17,20,12,1,-4,-3
1523066686911619,-3,-2,-19,-10,-7,1,-3,-5
1523066686932463,-4,-3,-10,1,2,-1,-6,-1
1523066686932463,-3,-1,8,-4,-1,-4,-3,-3
1523066686938691,-5,0,4,-12,-9,1,7,-2
1523066686938691,0,-2,7,8,6,0,-11,0
1523066686954025,4,4,-12,3,-2,0,8,8
1523066686954025,0,1,11,-4,-4,1,9,-3
1523066686962755,-7,-7,-7,-5,-4,-7,-9,-8
1523066686962755,7,2,-19,-6,0,7,9,7
1523066686985609,-14,-3,-7,7,6,0,-9,-13
1523066686985609,-2,-3,-22,-3,-2,2,11,5
1523066686991609,-1,-5,6,-7,0,2,-1,-5
1523066686991609,-7,-2,1,3,3,0,0,2
1523066687006373,4,-5,-15,-3,-4,-11,-9,9
1523066687006373,2,6,8,0,-3,3,-4,4
1523066687022915,0,-4,-8,-3,-3,-6,-10,-5
1523066687022915,5,1,15,3,0,3,-7,-2
1523066687037455,-10,7,3,-1,3,10,32,-5
1523066687037455,-4,-8,1,-5,-2,-6,-20,-10
1523066687038958,1,1,1,5,-5,-14,4,9
1523066687038958,4,6,1,-7,-6,5,0,-2
1523066687060021,5,-8,4,0,2,7,37,15
1523066687060021,-3,2,-7,-2,-3,0,1,-6
1523066687061520,-7,-12,-21,-3,3,4,14,-11
1523066687061520,4,10,55,-2,-5,-15,-23,-8
1523066687067535,1,0,-20,-2,-1,-1,-14,7
1523066687067535,-4,-2,9,0,0,-1,15,1
1523066687069039,19,12,0,-3,4,1,4,15
1523066687069039,-24,-13,20,-1,-11,-9,-4,-17
1523066687074326,1,1,-21,2,5,-2,-9,-1
1523066687074326,-6,-4,20,1,-3,1,5,-1
1523066687075056,-3,-4,-2,-3,5,4,-10,-7
1523066687075056,0,-8,-17,-9,-1,-3,9,2
1523066687082120,-1,1,3,0,-3,-1,-11,-2
1523066687082120,3,7,-3,26,1,-7,-20,-18
1523066687082577,-8,-9,-30,-40,-18,-3,0,7
1523066687082577,10,7,12,10,10,3,11,39
1523066687090343,9,14,76,-3,-13,-6,-14,-13
1523066687090343,-4,-11,8,21,10,1,6,1
1523066687091602,1,20,18,-4,-1,11,12,-14
1523066687091602,-11,-27,-48,9,4,-1,-2,-21
1523066687097252,4,-11,-24,-20,-10,-11,-33,11
1523066687097252,8,0,-2,-20,-10,1,18,22
1523066687097618,-2,0,7,14,1,-2,-20,-10
1523066687097618,-2,0,-7,-3,-4,1,26,4
1523066687105136,-1,1,-10,3,8,2,-9,-12
1523066687105136,-1,-3,-8,-17,-10,-5,-4,-2
1523066687105636,-2,-8,-20,-10,-3,-3,-1,7
1523066687105636,6,8,12,14,5,2,-1,-2
1523066687112487,-4,-4,-21,10,5,-2,-6,-13
1523066687112487,-1,9,32,-8,1,4,-7,3
1523066687112487,3,-1,-24,2,1,8,24,16
1523066687112487,1,13,38,-4,-4,-3,-19,-6
1523066687119800,-1,-3,-12,-10,-7,-5,7,-5
1523066687119800,-3,-2,-24,0,5,-2,-6,-2
1523066687120015,5,6,2,7,1,2,0,-3
1523066687120015,-12,-14,-19,-13,-7,-7,-3,-3
1523066687127624,1,2,-3,2,2,5,1,14
1523066687127624,0,6,3,2,-1,-6,-19,-27
1523066687129036,6,2,11,9,5,-5,-7,10
1523066687129036,-16,-11,-28,-7,-9,-11,-26,-2
1523066687134783,-3,8,12,8,8,7,33,-1
1523066687134783,-5,-11,-8,-26,-14,-7,-5,-1
1523066687135053,-1,-6,4,15,5,-1,-3,0
1523066687135053,3,8,23,-3,-3,-9,-16,-8
1523066687142071,-8,2,-20,1,1,2,-2,-3
1523066687142071,0,-3,-5,4,4,1,6,4
1523066687142574,-5,-1,10,-3,-5,3,3,-7
1523066687142574,6,-9,-23,2,3,3,10,0
1523066687150387,0,-1,14,3,-1,-4,-5,1
1523066687150387,-4,-2,1,-13,1,7,7,-4
1523066687151598,-1,9,12,7,-9,-16,-29,-7
1523066687151598,0,3,-14,2,4,3,24,-1
1523066687156841,6,-5,1,-11,-6,5,-5,5
1523066687156841,1,9,21,2,-2,-1,10,7
1523066687157614,-10,-15,-5,1,2,1,-4,-6
1523066687157614,4,1,-7,-3,1,-6,-13,-5
1523066687165132,0,-6,-17,-6,-5,-8,-8,-5
1523066687165132,-2,5,49,5,0,-2,5,4
1523066687166244,0,6,-8,-1,1,0,-1,-1
1523066687166244,-5,-2,4,3,3,3,2,-4
1523066687171650,-1,-5,-3,-1,1,0,2,2
1523066687171650,-16,-19,-38,-3,4,0,0,3
1523066687172654,9,2,12,-13,-8,-3,-7,-1
1523066687172654,9,6,16,16,10,2,-6,7
1523066687179264,-1,0,-7,-7,-8,-4,1,4
1523066687179264,-3,-6,-18,3,3,0,-3,-23
1523066687180172,-5,-4,19,3,-1,-9,-26,3
1523066687180172,-5,3,19,-12,-11,2,8,1
1523066687202732,-3,-10,-16,-9,0,3,10,3
1523066687202732,8,-1,-20,2,2,-1,-6,8
1523066687204237,-7,2,16,3,3,10,17,-12
1523066687204237,-5,-9,-37,-7,-5,-4,-7,-4
1523066687210755,6,4,24,-2,-3,-3,-10,-1
1523066687210755,4,9,-13,-6,-9,2,1,3
1523066687211756,-7,-23,-35,-3,0,-3,-1,-1
1523066687211756,2,16,46,0,-5,1,1,5
1523066687217060,-3,-4,-6,1,-1,-4,-9,-3
1523066687217060,6,5,-6,13,9,1,5,0
1523066687217774,-2,4,-2,-7,-9,-3,-12,-2
1523066687217774,0,-2,0,-1,3,4,8,-5
1523066687225583,-5,1,4,-1,-2,-7,-1,-5
1523066687225583,-2,-2,-4,-2,-2,-3,-10,2
1523066687226796,-3,-4,3,5,3,4,18,-2
1523066687226796,-14,-9,-21,-3,0,6,-17,4
1523066687232233,23,4,15,7,5,-2,9,1
1523066687232233,-13,-2,-6,-4,-3,2,2,-4
1523066687232459,15,14,-5,-4,-2,-3,-6,2
1523066687232459,3,1,-7,-3,-3,-9,6,1
1523066687239473,-16,-9,5,5,0,-12,-34,-18
1523066687239473,3,2,-12,-7,-2,-1,-9,-2
1523066687240505,-1,8,27,0,-5,-7,-11,-8
1523066687240505,-1,-11,-49,-4,6,18,44,-1
1523066687262035,-1,6,20,0,-2,4,19,9
1523066687262035,2,-12,-15,-1,4,-6,-36,4
1523066687270056,-9,-10,-33,-2,-2,-2,33,-1
1523066687270056,9,6,19,0,-6,-17,-44,5
1523066687277352,-5,-4,-32,-2,3,10,32,-2
1523066687277352,-5,-4,13,2,1,-2,1,-9
1523066687277587,3,1,5,-5,2,3,6,7
1523066687277587,2,-5,-1,-1,-3,-6,-9,-8
1523066687285388,-2,5,13,-1,-4,-3,-27,2
1523066687285388,3,4,6,1,0,-1,15,2
1523066687285600,-2,-3,2,8,6,-1,-7,-8
1523066687285600,-2,-6,-9,-3,-6,-1,6,3
1523066687299914,-4,0,-3,-13,-12,-7,-14,2
1523066687299914,0,-3,-3,14,15,6,15,-1
1523066687300139,-4,-6,-21,-2,-8,2,-3,-4
1523066687300139,-5,-5,-17,-13,-7,-6,2,-3
1523066687315324,7,7,46,-5,1,10,20,19
1523066687315324,-10,-22,-31,3,0,1,18,8
1523066687316530,6,5,-14,5,-6,-17,-42,-13
1523066687316530,-8,-11,-40,20,21,20,19,0
1523066687336713,16,14,35,-24,-19,0,9,-16
1523066687336713,-27,-5,-46,-4,-8,-8,-6,-6
1523066687344944,-8,0,22,-8,6,3,0,-1
1523066687344944,1,-1,5,9,-3,-7,0,-2
1523066687368296,-16,-9,-41,14,11,-2,2,-5
1523066687368296,14,12,19,-8,-8,-2,2,-2
1523066687370513,-8,-6,9,11,11,4,0,-3
1523066687370513,2,-4,-1,-29,-17,-9,-16,-2
1523066687388561,2,1,-11,12,6,-1,6,0
1523066687388561,6,2,0,-12,-13,-2,3,24
1523066687397588,4,-3,-15,4,4,-3,-9,6
1523066687397588,4,14,49,7,4,-4,-15,-15
1523066687420145,-5,-9,-25,6,15,31,35,-1
1523066687420145,2,13,16,5,-4,-3,-1,-5
1523066687421649,-4,-9,-12,-9,-7,-9,-16,4
1523066687421649,1,-9,-26,-2,-4,0,4,-1
1523066687442079,-4,12,20,-2,-6,-11,-18,-7
1523066687442079,1,-2,9,13,12,6,21,-1
1523066687450109,0,0,11,-5,-5,-1,6,3
1523066687450109,0,-1,-25,-9,-5,1,-3,0
1523066687472891,-1,-5,-24,-1,-3,-5,-18,1
1523066687472891,3,-3,-15,6,6,1,1,-10
1523066687474169,-7,3,18,-12,-12,-2,2,6
1523066687474169,-7,-7,2,4,6,0,3,0
1523066687495004,7,4,5,1,1,-7,-8,-1
1523066687495004,-4,5,-12,-3,-4,-6,-22,-7
1523066687501423,6,4,3,-9,-6,13,27,-3
1523066687501423,1,1,2,-4,0,2,16,8
1523066687516486,-5,0,1,10,1,-11,-21,5
1523066687516486,-1,-13,-2,-22,-17,-11,-24,-10
1523066687525307,2,1,6,11,9,7,13,-6
1523066687525307,-1,-3,9,0,2,10,16,9
1523066687548367,5,-1,-32,-5,-5,-7,-6,-5
1523066687548367,-11,7,62,13,6,2,-20,-3
1523066687551116,-1,-7,-31,0,1,-7,-8,-2
1523066687551116,0,4,23,-15,-8,-2,11,-5
1523066687577494,-3,-11,-24,-1,8,-1,-5,-4
1523066687577494,0,7,24,-8,-6,0,20,6
1523066687579564,-4,-7,-15,-1,1,2,-8,7
1523066687579564,1,0,-14,9,1,-11,-22,-17
1523066687592100,0,5,19,-3,-4,0,3,7
1523066687592100,2,0,-20,-8,-3,3,13,0
1523066687598622,-1,-7,6,2,1,3,5,3
1523066687598622,-6,-1,-1,4,6,-2,-8,6
1523066687614164,7,-11,-17,6,-1,-3,-9,-7
1523066687614164,0,10,21,-22,-17,-13,-12,-1
1523066687622686,11,9,16,7,10,15,41,3
1523066687622686,-3,-2,-6,2,10,7,-12,-2
1523066687645748,-2,-8,-1,-7,-3,-3,14,8
1523066687645748,-6,-12,-2,2,5,-1,-27,-4
1523066687648256,6,7,-20,0,-3,-8,4,-9
1523066687648256,-2,2,12,-2,1,1,0,2
1523066687668087,-10,-8,-9,-9,-5,1,2,-7
1523066687668087,4,-2,-45,6,8,3,10,1
1523066687669311,-8,-2,32,-6,-6,-2,-8,-2
1523066687669311,7,6,5,17,12,-3,-8,-1
1523066687689085,6,-1,-12,-3,-4,0,-8,-6
1523066687689085,-6,-1,3,-8,-2,3,15,2
1523066687697887,-14,-2,15,1,-1,-5,-20,-8
1523066687697887,7,0,-1,-5,-12,-5,-9,4
1523066687720296,-16,3,-9,-14,-6,8,34,8
1523066687720296,17,6,-4,15,2,-10,-18,-10
1523066687721799,-6,2,-15,-8,4,-1,-58,-4
1523066687721799,1,2,37,-1,-9,-2,5,-1
1523066687742634,-6,-9,-25,-9,-9,-5,7,1
1523066687742634,9,3,-11,8,6,0,5,6
1523066687744361,-1,-2,21,6,-3,-4,8,0
1523066687744361,-3,0,-14,1,1,2,-5,3
1523066687764145,-2,-3,0,-1,-3,-1,-15,-14
1523066687764145,-5,-4,-6,3,1,3,8,1
1523066687772435,0,-1,-14,-7,-7,-6,11,1
1523066687772435,-5,5,15,6,4,-1,-1,-5
1523066687795090,-2,-2,28,-5,-3,1,1,0
1523066687795090,-6,-14,-27,5,8,2,0,-1
1523066687796509,7,-2,-1,-15,-14,-3,3,10
1523066687796509,-12,3,-18,-1,2,1,1,-19
