timestamp,emg1,emg2,emg3,emg4,emg5,emg6,emg7,emg8
1523146797237558,-7,-18,2,2,1,-3,-4,-4
1523146797237558,4,19,4,0,1,-1,2,-1
1523146797239063,-4,-15,-3,2,3,1,3,1
1523146797239063,8,-11,9,-2,-2,-1,-2,2
1523146797260122,32,-52,4,8,2,-1,-2,1
1523146797260122,-22,3,68,-5,-2,-2,-4,-7
1523146797261624,2,2,-23,4,-2,-1,0,3
1523146797261624,2,24,-4,4,-1,-1,0,-5
1523146797274158,-3,-11,38,-8,-4,-1,0,0
1523146797274158,-2,29,-9,12,6,2,2,-2
1523146797281174,-27,-53,14,8,1,-2,-1,0
1523146797281174,-7,-11,-18,-11,-5,-2,-1,2
1523146797297217,-29,16,-3,-18,-5,-6,-4,-3
1523146797297217,-33,-49,17,-2,-4,-4,-5,-8
1523146797299223,2,-6,16,2,1,-1,-2,-2
1523146797299223,1,-14,-17,-3,-4,-1,1,-1
1523146797319776,-19,8,-11,-4,-1,-3,-2,-3
1523146797319776,11,-7,-12,1,2,0,2,3
1523146797321787,12,29,-5,6,-2,1,-2,0
1523146797321787,-6,15,50,6,9,-3,-3,-3
1523146797334325,-2,-7,-75,-14,-11,-1,-2,0
1523146797334325,-14,19,-6,-3,-2,4,3,1
1523146797341338,16,4,4,-2,-3,-3,-3,-3
1523146797341338,-36,11,6,9,3,-1,0,-8
1523146797357378,-7,15,17,8,6,1,1,1
1523146797357378,4,8,6,16,10,2,0,1
1523146797358886,-1,4,-12,-15,-8,1,3,2
1523146797358886,-16,-33,-2,-2,-5,0,-4,0
1523146797379940,10,13,-10,3,2,-2,0,-2
1523146797379940,6,6,11,-1,-1,1,0,1
1523146797381444,0,-7,5,2,1,-1,-2,1
1523146797381444,14,-3,-7,-9,-5,0,1,1
1523146797393987,1,11,12,4,3,1,3,4
1523146797393987,14,27,-18,-12,-6,-4,-3,-1
1523146797402500,-2,21,11,8,2,-1,0,-2
1523146797402500,5,-69,-18,-11,-2,-4,-3,2
1523146797417622,-16,-10,-22,0,-2,3,-2,-4
1523146797417622,-1,-4,3,-10,-7,-3,-2,-2
1523146797419043,20,0,-8,-4,-3,1,1,-1
1523146797419043,14,32,1,6,1,-2,-1,0
1523146797440100,-3,-53,1,-2,-1,0,0,0
1523146797440100,8,4,-1,-4,-2,-3,0,-2
1523146797441631,-7,-53,-12,4,1,-2,-1,-2
1523146797441631,3,63,12,-3,-2,-1,-2,-2
1523146797455624,1,16,15,4,2,-1,-3,-3
1523146797455624,-1,-2,-10,0,0,0,-3,0
1523146797462641,-8,-10,1,-5,-2,-2,0,-3
1523146797462641,4,40,-6,-6,2,-1,2,-1
1523146797477680,15,23,5,10,-9,-12,-3,1
1523146797477680,0,22,6,-8,-17,-2,-1,-7
1523146797479184,-15,-27,-8,7,24,19,7,5
1523146797479184,-1,-2,8,-8,-3,-1,-2,1
1523146797499740,-8,8,17,24,8,-1,-4,1
1523146797499740,9,5,-10,-15,-14,-16,-4,5
1523146797501746,-13,61,9,-16,-7,-1,-4,-14
1523146797501746,-9,-79,-8,35,7,-5,-10,9
1523146797513778,-10,-17,-6,-25,1,6,14,6
1523146797513778,-8,-3,19,19,9,6,4,-5
1523146797522801,6,-10,-20,-12,-20,-24,-20,8
1523146797522801,11,5,36,-3,27,34,27,6
1523146797537341,38,19,6,10,-10,-23,-42,26
1523146797537341,-10,-24,-5,7,22,29,36,-35
1523146797538844,-2,1,17,-12,-10,-5,-2,29
1523146797538844,-6,-39,-9,2,-8,-10,-4,-6
1523146797559901,14,14,-7,-5,-5,-4,-5,-26
1523146797559901,6,55,-1,-10,2,0,-10,4
1523146797561404,-5,-24,-1,12,-3,-5,-4,-19
1523146797561404,0,8,9,-9,-11,-6,-3,2
1523146797573435,-14,0,2,4,9,12,11,-27
1523146797573435,-12,-41,-25,-1,-10,-14,-13,14
1523146797582458,-2,-4,6,-8,-5,-1,5,-5
1523146797582458,-4,18,-17,5,-5,-5,-8,-11
1523146797597501,6,19,-2,-7,1,4,9,8
1523146797597501,-4,-12,13,7,-1,-7,-4,7
1523146797599004,10,29,-1,1,-1,0,-1,6
1523146797599004,-4,-14,-14,-6,-2,-2,-3,-15
1523146797620062,-5,-4,18,5,3,3,3,4
1523146797620062,5,-26,-54,-13,-21,-5,-6,10
1523146797621564,-4,17,-2,1,3,1,0,-10
1523146797621564,9,25,9,-2,-5,-6,-4,2
1523146797633598,-9,-3,-13,-14,-7,5,7,-3
1523146797633598,0,2,27,7,9,-6,-7,-2
1523146797642620,-3,7,-19,-4,2,1,0,-4
1523146797642620,3,3,-4,4,-2,-3,-1,4
1523146797657754,3,-1,22,5,10,6,4,7
1523146797657754,-4,-13,-2,11,12,2,-3,-4
1523146797659252,4,54,18,5,-2,1,0,-2
1523146797659252,2,-11,-3,-17,-1,-4,1,4
1523146797679815,2,-2,18,13,8,-1,-1,-6
1523146797679815,-2,-11,-2,-2,-2,1,0,-1
1523146797681813,1,25,4,1,0,3,4,1
1523146797681813,-24,26,-11,2,-1,1,-5,-7
1523146797702397,-2,-4,-20,-18,-11,-6,0,-1
1523146797702397,11,-10,-14,-7,-4,-4,-2,3
1523146797703874,-13,-21,-11,-8,-3,-2,0,-4
1523146797703874,7,-3,48,6,4,2,0,-1
1523146797717442,12,4,-79,-19,-17,-4,0,5
1523146797717442,13,31,21,1,1,0,0,3
1523146797718911,2,-33,8,9,6,1,-3,-7
1523146797718911,-3,-14,-3,-18,-6,-2,-2,-3
1523146797739968,-10,17,0,6,1,-1,-4,-2
1523146797739968,4,-5,4,4,2,1,-1,-1
1523146797741471,-33,-26,-22,-7,-7,-5,-1,-3
1523146797741471,20,17,5,15,7,0,2,2
1523146797753551,10,-6,5,-2,-4,-3,0,-2
1523146797753551,-3,20,-5,1,-2,-3,-5,0
1523146797762534,-14,-66,0,5,6,2,0,-1
1523146797762534,-5,-19,13,-1,1,-1,-3,0
1523146797785175,-16,-12,4,-2,-1,0,3,0
1523146797785175,-7,10,23,-3,1,-1,-3,-6
1523146797786683,31,-1,13,10,2,-4,0,-2
1523146797786683,-35,19,-9,5,-3,-3,-3,-3
1523146797800221,-4,-10,6,-1,0,-2,-3,0
1523146797800221,-3,-31,10,-3,-1,1,1,-2
1523146797801718,5,-5,-17,-5,-3,0,-2,1
1523146797801718,-4,8,-12,0,-3,0,0,0
1523146797813757,-1,7,7,-1,-1,-4,-2,0
1523146797813757,-2,-4,4,-2,2,2,1,3
1523146797822774,-2,18,-14,1,-4,-3,-2,-5
1523146797822774,8,-5,0,9,3,-2,-1,-1
1523146797837317,-15,-15,-33,-19,-12,-5,-4,-5
1523146797837317,8,4,1,5,2,-2,-2,2
1523146797838817,4,7,-6,-5,-2,-1,-1,2
1523146797838817,-10,-19,-7,-1,-3,-4,0,-3
1523146797859882,0,2,29,18,10,4,1,1
1523146797859882,-8,2,-9,-9,-5,-2,0,-2
1523146797861379,5,8,-2,-4,-2,-3,-2,-2
1523146797861379,-15,-53,-18,-5,-4,-3,-3,-1
1523146797873524,-1,18,18,9,4,0,-2,-1
1523146797873524,-8,-15,-14,-7,-2,-4,-1,-7
1523146797882552,-3,-5,8,-1,1,1,-1,0
1523146797882552,13,28,-13,-10,-5,-2,-1,-1
1523146797897595,0,-21,-44,-11,-5,-4,-2,1
1523146797897595,6,15,9,6,0,-1,0,-1
1523146797899092,4,39,5,-24,-4,-1,1,-1
1523146797899092,3,12,-18,43,9,-1,-2,-1
1523146797920150,14,1,2,-1,1,3,0,0
1523146797920150,-13,20,0,3,-3,-6,-3,1
1523146797921651,-36,-52,-12,-42,-6,0,0,-3
1523146797921651,11,7,6,14,7,3,1,0
1523146797933919,-9,-17,12,39,0,-2,-4,-1
1523146797933919,1,5,-2,-11,-4,-5,-6,0
1523146797942708,5,24,-6,20,0,-4,1,10
1523146797942708,16,36,22,-45,-1,10,10,10
1523146797956756,-16,-9,22,2,17,14,11,-3
1523146797956756,-2,-45,-25,22,1,-5,-7,8
1523146797963999,2,62,13,0,2,0,-5,-20
1523146797963999,-13,-47,-24,-18,-21,-19,-5,49
1523146797979809,29,61,19,-16,-7,-6,5,3
1523146797979809,-7,-33,-4,4,7,7,11,-22
1523146797981312,-9,-11,-38,32,11,7,3,-15
1523146797981312,-9,-23,18,-25,-21,-12,-13,-13
1523146797994070,-10,48,51,5,-6,-20,-33,-10
1523146797994070,-1,-20,16,13,11,19,37,13
1523146798002871,10,-69,17,-46,-22,-20,-13,-3
1523146798002871,5,43,4,20,11,17,33,-7
1523146798016920,2,-35,-17,19,9,29,23,4
1523146798016920,21,96,82,0,-23,-29,-55,-24
1523146798023429,8,31,27,4,-17,-14,-2,-6
1523146798023429,-21,-59,-36,-18,-4,-6,-3,5
1523146798039966,-11,-6,30,-33,11,6,-10,-20
1523146798039966,-15,-45,-21,-8,-4,-4,0,-18
1523146798041471,-2,64,10,20,12,-4,3,56
1523146798041471,27,39,0,-23,-41,-33,-29,-26
1523146798053502,-5,-23,-17,6,-4,-2,6,5
1523146798053502,-6,-20,-24,-4,-1,7,1,-15
1523146798062539,9,-11,11,5,12,2,-4,-8
1523146798062539,12,2,0,14,12,13,9,8
1523146798076568,-9,-3,-21,-12,-5,-2,2,10
1523146798076568,-6,17,-12,-3,-4,-6,-1,-3
1523146798083609,3,-25,-20,-2,-16,0,-2,-4
1523146798083609,0,22,14,7,18,11,-1,-6
1523146798100627,4,1,-14,4,-5,-6,-1,-4
1523146798100627,-6,0,-14,-15,-13,-11,-5,17
1523146798102131,5,-2,36,7,14,15,10,2
1523146798102131,3,-8,-21,8,11,9,-4,-19
1523146798122184,5,5,16,-5,-8,-13,-5,7
1523146798122184,2,4,-3,-1,7,8,9,15
1523146798124191,2,1,2,6,11,6,-2,-9
1523146798124191,5,15,5,10,3,-1,0,4
1523146798137023,-5,-5,-10,-17,-10,-8,-3,-5
1523146798137023,-6,11,3,7,9,4,0,6
1523146798143333,-3,-19,-36,-5,-7,0,2,-6
1523146798143333,-12,4,8,-1,-4,-6,-7,-4
1523146798159845,-19,-16,-11,4,1,-1,0,-3
1523146798159845,29,97,-6,-2,3,5,1,2
1523146798161346,3,4,-4,-2,-8,-7,-6,2
1523146798161346,-16,-13,-31,-22,-3,1,-1,0
1523146798173379,3,-15,-2,9,7,5,3,-1
1523146798173379,-4,13,-4,-2,-3,-3,0,3
1523146798182404,-8,0,6,0,-3,0,0,0
1523146798182404,3,6,1,7,7,3,0,-4
1523146798197124,53,45,-10,-7,-3,-5,-3,-2
1523146798197124,24,-28,-11,-4,-1,-1,-1,2
1523146798203758,20,4,0,0,-1,0,0,0
1523146798203758,-4,-12,5,-1,1,0,-1,-3
1523146798220003,-25,-3,4,-4,-5,-6,-5,0
1523146798220003,-20,-12,-12,-1,-2,3,2,0
1523146798221506,-14,-22,-1,1,4,2,0,-6
1523146798221506,16,-6,0,2,1,0,-1,-1
1523146798242563,-11,-7,7,5,1,-1,-2,-2
1523146798242563,-9,7,0,-3,4,2,0,2
1523146798244066,-9,27,-3,-3,-3,-1,-1,-4
1523146798244066,-2,8,4,0,-2,-2,-4,-1
1523146798256603,2,7,-1,6,-2,1,2,1
1523146798256603,-32,-43,-57,4,-2,-6,-5,-4
1523146798263652,-7,8,2,4,0,0,-2,-1
1523146798263652,-5,-11,-8,-3,-5,1,0,0
1523146798279660,-13,2,3,-5,-5,-1,-2,-4
1523146798279660,17,9,4,-3,-3,1,0,2
1523146798286177,-6,2,19,13,3,-1,-1,-1
1523146798286177,-7,-6,-21,-2,-6,-3,2,-3
1523146798302222,-7,-9,-13,-5,1,-1,0,-2
1523146798302222,-13,-74,11,-4,-3,-4,-1,0
1523146798304226,7,3,-7,-2,-1,-1,-2,-2
1523146798304226,-2,18,36,7,7,2,-1,-2
1523146798316260,10,-7,-28,-12,-17,-1,2,5
1523146798316260,11,8,7,-2,0,-3,-1,-2
1523146798325283,-4,-15,-11,-7,1,1,0,2
1523146798325283,1,-4,6,4,-1,-3,-2,-1
1523146798339822,4,7,-2,0,2,-1,0,1
1523146798339822,1,1,3,-1,0,1,-1,1
1523146798341324,0,-8,-7,-10,-4,-3,-1,0
1523146798341324,2,24,17,2,-1,-2,-1,1
1523146798362380,-5,-11,8,4,1,0,-2,0
1523146798362380,5,7,0,-6,-6,-1,0,-1
1523146798363884,5,2,2,4,0,0,-1,-2
1523146798363884,-41,0,5,2,0,0,0,-4
1523146798375916,4,-6,-45,-14,-9,-2,-2,0
1523146798375916,-1,-1,12,3,3,2,0,1
1523146798384942,-5,-9,-3,-4,-2,-2,-3,0
1523146798384942,33,44,1,3,-3,-2,-2,3
1523146798399980,22,-14,9,6,4,3,2,1
1523146798399980,-3,29,3,-9,0,1,2,-3
1523146798401485,-3,-12,-28,0,0,-1,0,-7
1523146798401485,8,1,-4,-9,-4,-1,1,4
1523146798422543,-2,15,8,2,2,-2,-1,-4
1523146798422543,3,-22,0,-2,-3,1,0,6
1523146798424046,14,3,15,13,9,4,4,4
1523146798424046,-1,-26,-31,-11,-8,-6,-3,-6
1523146798436079,-11,3,13,-4,0,-1,-3,-2
1523146798436079,-31,-15,4,-3,-4,-6,-2,-5
1523146798445108,4,42,8,-1,-3,0,-3,-2
1523146798445108,0,-20,3,10,7,5,1,-3
1523146798459808,-15,-35,-12,-5,-2,-5,-12,-27
1523146798459808,4,0,3,0,-2,-6,-3,7
1523146798461266,0,-17,2,-9,4,10,15,21
1523146798461266,12,5,41,8,7,4,-5,-18
1523146798482365,44,43,-16,10,-4,-9,-4,24
1523146798482365,37,90,-16,17,16,15,2,14
1523146798484328,9,-105,22,-6,-5,0,4,-18
1523146798484328,-21,-56,1,-2,-8,-9,-5,8
1523146798495904,-7,16,14,-7,0,4,6,-3
1523146798495904,-3,1,-25,-9,-6,-5,-6,-17
1523146798504884,6,18,-35,12,-12,-17,-14,0
1523146798504884,-3,-6,-17,10,12,11,14,10
1523146798519932,6,-12,11,-10,-6,-7,-9,1
1523146798519932,-3,7,-53,10,3,2,6,-19
1523146798535008,3,-10,5,-3,-7,-6,5,78
1523146798535008,-19,0,-87,-6,-4,1,7,-26
1523146798536509,-26,-35,-13,8,4,1,3,50
1523146798536509,-4,47,39,-5,-1,-1,-3,-16
1523146798543986,-11,14,-3,-4,5,6,3,-18
1523146798543986,7,20,2,1,-7,-9,-10,2
1523146798548498,-7,39,10,3,2,4,4,-5
1523146798548498,-13,-15,-12,-4,-3,-1,1,-5
1523146798557521,0,17,1,0,-2,-4,-9,-14
1523146798557521,6,1,3,-11,-3,-2,-2,3
1523146798571063,-8,3,1,2,0,-2,-1,-26
1523146798571063,-1,-33,29,-5,-5,-8,-4,10
1523146798580082,-4,20,6,0,5,2,-3,-18
1523146798580082,7,4,-14,-8,-6,1,4,2
1523146798595128,-5,-15,-1,0,-3,-2,-3,-3
1523146798595128,-1,-12,4,-3,-2,-3,-1,10
1523146798596627,-4,9,-14,-5,-6,-1,1,-6
1523146798596627,7,12,33,11,12,0,-2,4
1523146798608663,-6,-17,-42,-15,-15,-2,4,0
1523146798608663,18,-15,-27,-21,-12,-6,-4,-1
1523146798617687,-3,11,12,13,10,-1,-6,-12
1523146798617687,1,-2,-7,-13,-13,-5,-2,3
1523146798631224,17,26,24,18,10,3,-1,-2
1523146798631224,3,19,42,-4,-1,2,4,5
1523146798640241,2,2,-20,-5,-5,-3,1,1
1523146798640241,1,8,12,2,-2,-4,-4,3
1523146798654835,4,25,22,-11,1,1,4,0
1523146798654835,-40,-53,-2,-8,-8,-6,-2,-8
1523146798656787,4,13,9,3,0,-3,-3,1
1523146798656787,-2,8,-2,1,1,-3,0,-2
1523146798668819,8,12,1,-1,-1,-1,1,-4
1523146798668819,-28,-2,-10,6,4,3,2,5
1523146798677347,-31,-14,2,-1,-10,-5,-5,-11
1523146798677347,-19,-13,-4,-10,-4,-3,-1,0
1523146798690876,6,1,-15,4,6,3,1,1
1523146798690876,4,-7,14,-9,-7,-2,-2,2
1523146798699905,-28,-73,-12,-7,-4,-2,1,-2
1523146798699905,16,90,2,2,-3,-1,0,5
1523146798715070,-15,-13,24,6,2,-3,-2,-5
1523146798715070,7,-9,-6,2,-1,0,-1,2
1523146798716563,-10,14,0,-3,-6,0,-2,-4
1523146798716563,8,61,20,0,1,-1,-1,-2
1523146798728594,13,-35,14,5,0,0,-2,2
1523146798728594,29,37,24,11,4,1,-1,3
1523146798737622,20,-8,-28,-8,-2,-1,2,3
1523146798737622,-2,-26,14,2,3,3,1,1
1523146798751188,8,27,1,-2,-4,-5,-6,-8
1523146798751188,-1,-27,1,-2,1,-2,-3,0
1523146798760177,16,17,-9,-1,-2,1,0,1
1523146798760177,-4,-69,-11,-3,-1,1,-1,1
1523146798775218,-13,5,-20,-4,-2,-1,0,-1
1523146798775218,3,-12,9,4,-1,-3,1,0
1523146798776721,7,13,10,1,0,-3,-1,-1
1523146798776721,-11,-37,-25,-6,-7,-3,-3,-4
1523146798788752,-3,-10,-14,0,0,1,1,-1
1523146798788752,5,26,1,0,0,0,0,4
1523146798797776,8,0,-1,-8,0,3,2,-2
1523146798797776,1,14,14,4,-1,-2,0,0
1523146798811314,-8,-26,25,0,2,-3,-3,1
1523146798811314,4,3,-7,0,0,-1,-2,-2
1523146798819834,10,19,16,3,3,1,2,4
1523146798819834,17,-6,-11,-1,1,-1,-2,1
1523146798842395,-3,15,4,-1,-2,1,-1,-3
1523146798842395,-6,-10,-22,-7,-5,-1,0,-4
1523146798843899,-9,4,-5,-1,-1,2,-1,-5
1523146798843899,0,43,26,5,3,1,1,-4
1523146798848410,-14,-27,-16,2,0,-2,-1,-4
1523146798848410,4,0,16,9,5,-1,-2,-4
1523146798857435,1,2,-13,-2,-1,-1,0,-1
1523146798857435,-16,1,-8,-6,-5,-5,-6,-6
1523146798870990,-2,16,10,3,2,0,-2,-8
1523146798870990,-6,3,-8,0,0,1,2,3
1523146798879994,-7,-1,11,3,2,-6,-3,-4
1523146798879994,-1,-21,-1,1,0,5,0,0
1523146798895037,-8,-7,-13,-12,-8,-3,-3,-5
1523146798895037,-1,7,-5,4,2,0,-1,-2
1523146798896541,1,-5,-4,-1,-3,-2,-5,-2
1523146798896541,4,-2,-6,-1,0,-2,0,2
1523146798910077,28,-4,-2,2,2,0,2,5
1523146798910077,10,24,1,-2,0,2,-1,-2
1523146798917596,0,-5,5,2,1,2,3,5
1523146798917596,-4,-15,-3,1,-2,0,-4,-8
1523146798931176,-4,-6,-4,-6,-1,2,1,-1
1523146798931176,5,-6,9,-1,-1,0,-1,3
1523146798940158,-33,-12,-17,9,6,3,-2,-22
1523146798940158,-59,-2,-1,-3,-4,-6,1,15
1523146798954695,32,1,-12,0,-6,-6,-8,-1
1523146798954695,2,-8,-1,4,9,4,4,8
1523146798956701,-2,12,12,-2,6,13,17,1
1523146798956701,-4,-37,-2,-6,-6,-6,-3,-2
1523146798968731,-3,12,34,-3,2,7,-1,-8
1523146798968731,-54,-84,-25,-23,-20,-16,-2,45
1523146798977758,15,3,0,-16,-8,-6,-17,-21
1523146798977758,7,26,14,-3,5,4,-4,-29
1523146798991294,-22,-9,50,-14,0,6,7,-8
1523146798991294,24,4,-15,-5,-9,-11,-22,6
1523146798999817,49,16,-19,-37,-9,-9,12,-26
1523146798999817,34,18,46,33,15,15,13,-66
1523146799014936,-29,10,7,-20,-7,2,1,9
1523146799014936,-7,32,29,20,4,6,7,25
1523146799016442,15,-2,23,-3,-6,-9,-23,-12
1523146799016442,8,39,-14,1,-4,-5,-10,15
1523146799028473,45,20,-28,13,4,-1,5,-28
1523146799028473,0,4,27,7,2,1,-4,-11
1523146799037497,8,29,-1,6,0,0,1,19
1523146799037497,21,-20,-17,-8,0,-1,4,40
1523146799051033,-19,3,-12,12,-2,-3,-7,9
1523146799051033,-15,-17,-25,-17,-6,-3,1,-5
1523146799060056,-18,-12,-4,9,0,-1,-1,0
1523146799060056,-10,-18,-17,-6,-1,-2,0,-1
1523146799075096,-18,-5,-16,-4,-1,-4,-2,13
1523146799075096,10,15,-3,-2,0,2,0,-38
1523146799076600,3,10,22,9,10,4,8,23
1523146799076600,-2,-17,-36,0,-11,-7,-7,11
1523146799088633,-6,-16,-17,-4,-3,-7,-4,0
1523146799088633,7,8,27,6,8,10,6,-11
1523146799097660,-18,-13,-24,-7,-12,-5,-7,4
1523146799097660,-2,-5,12,-2,-1,-2,7,13
1523146799120215,-13,-14,-22,-13,-6,-6,-3,-2
1523146799120215,-3,1,-1,12,4,-1,-1,-9
1523146799121718,-12,-4,-1,-5,-6,-3,-5,5
1523146799121718,8,1,2,1,2,-2,-5,-9
1523146799134789,3,4,-2,2,0,0,1,1
1523146799134789,-4,-10,-5,-4,-1,-4,-1,-3
1523146799136759,-51,-24,-5,5,1,2,-3,-2
1523146799136759,27,-4,3,-7,-5,-3,-1,4
1523146799148791,5,0,2,9,2,0,-1,4
1523146799148791,-25,-2,-9,-6,-6,-3,-4,-6
1523146799157816,8,1,-3,3,6,-2,0,-1
1523146799157816,-4,-7,-10,-10,-6,-1,-1,2
1523146799170851,-11,-5,-5,2,3,-2,0,2
1523146799170851,3,-15,-18,-7,-3,-1,0,-8
1523146799179873,14,3,12,4,-2,0,2,1
1523146799179873,-10,-2,2,1,3,-2,-2,1
1523146799194474,-15,-7,5,3,0,2,0,2
1523146799194474,-12,-13,-1,-5,-1,-2,0,-5
1523146799201037,18,23,9,13,5,3,3,8
1523146799201037,-6,-10,-30,-13,-5,-2,-1,-1
1523146799208556,39,15,8,7,2,-2,1,2
1523146799208556,18,-55,-1,-4,3,3,2,-1
1523146799217472,8,7,10,3,-4,0,-1,2
1523146799217472,15,11,-6,-3,-2,-1,-1,1
1523146799231164,1,-11,-1,1,0,2,0,-2
1523146799231164,1,26,-2,0,-3,-2,-2,-1
1523146799239841,4,-15,-14,-3,-2,-2,0,-1
1523146799239841,-7,-17,11,3,4,0,0,-2
1523146799254380,-17,12,-6,-2,-8,1,1,3
1523146799254380,-13,-8,1,0,1,-1,0,-1
1523146799261004,11,15,0,-2,-1,-1,0,0
1523146799261004,-19,-11,-19,1,0,-2,-2,-1
1523146799268526,16,-4,23,6,5,0,-4,-3
1523146799268526,10,17,-25,-5,-8,-2,1,-1
1523146799277442,-21,7,0,-2,-3,-2,0,1
1523146799277442,-1,-43,3,-8,0,0,0,-3
1523146799291030,-9,8,2,0,-1,-2,-3,-5
1523146799291030,5,-1,18,16,7,-2,-2,2
1523146799300003,-10,-2,-10,-15,-8,-2,-2,-3
1523146799300003,0,9,3,4,-1,3,1,5
1523146799314543,-41,-4,-9,-2,-5,-3,-2,-4
1523146799314543,-28,10,3,-1,1,-3,-4,-9
1523146799321095,2,-3,0,0,2,-3,-1,-2
1523146799321095,-7,9,8,3,2,3,-1,-2
1523146799328615,9,-1,-9,-4,-1,-1,0,0
1523146799328615,-1,-4,-10,-2,-4,0,-1,-1
1523146799337610,-7,-12,2,1,-1,-3,-4,-5
1523146799337610,-3,7,3,0,-3,0,-1,-3
1523146799351144,-3,-5,-14,-5,-5,-3,-2,-3
1523146799351144,10,13,3,-3,-2,-1,-2,-1
1523146799360164,6,-4,-5,-2,0,1,-1,1
1523146799360164,7,14,4,1,0,-5,-2,0
1523146799374202,-1,2,11,0,1,1,-1,0
1523146799374202,-12,1,6,2,0,-2,-1,0
1523146799381268,-6,-8,-7,1,1,1,-1,-3
1523146799381268,-6,8,9,-6,-4,-3,-3,-1
1523146799397311,38,-1,-8,-4,-1,-2,2,4
1523146799397311,21,6,5,1,-1,-1,-1,0
1523146799398767,-7,7,-15,-4,1,1,-1,0
1523146799398767,-5,4,0,3,3,2,1,0
1523146799418363,-4,-13,-2,1,0,2,1,1
1523146799418363,5,-4,-4,-2,-1,2,-2,-6
1523146799427342,-15,-11,-27,10,1,2,1,0
1523146799427342,5,28,-5,-5,-3,-4,-4,-3
1523146799442428,-5,1,-2,-3,1,1,2,2
1523146799442428,9,5,1,-5,-4,-1,-1,3
1523146799443887,-5,-6,14,3,4,5,1,-4
1523146799443887,-2,-16,-12,-1,0,2,0,8
1523146799464976,-12,-26,-8,1,-6,-11,-12,-21
1523146799464976,-3,30,15,-13,-4,-1,0,1
1523146799466449,-22,-80,-14,13,5,7,10,-18
1523146799466449,3,16,20,-6,-9,-11,-1,38
1523146799478524,-11,49,-13,-19,-11,-12,-9,-3
1523146799478524,-32,8,33,14,11,7,5,-16
1523146799487526,-7,5,-24,-2,-14,-16,-12,36
1523146799487526,-1,-7,63,-6,7,21,19,-28
1523146799502579,5,-35,-20,6,3,-7,-12,3
1523146799502579,-43,-21,-12,6,2,7,9,-5
1523146799504048,-1,40,12,-19,-9,-8,-7,33
1523146799504048,-4,-16,24,-8,-8,-9,-11,-11
1523146799525102,40,76,30,8,7,11,11,12
1523146799525102,-9,-77,-86,-22,-8,-7,-14,-26
1523146799526607,-23,-40,40,-7,14,21,28,4
1523146799526607,23,41,7,12,6,1,-3,-1
1523146799538638,-27,-19,-25,-7,10,18,14,-10
1523146799538638,29,48,-3,-3,-6,-9,-4,10
1523146799547667,0,16,16,4,-9,-11,-7,-15
1523146799547667,3,-17,-48,4,-2,-4,-4,-3
1523146799562206,-7,-32,10,1,0,4,2,0
1523146799562206,56,31,13,5,2,5,8,17
1523146799564206,9,13,-13,-7,-2,-4,-11,-31
1523146799564206,-14,2,3,6,2,3,-2,-41
1523146799584813,-7,-8,3,14,2,-4,-3,25
1523146799584813,-6,-12,-1,-26,-12,-6,-6,5
1523146799586767,-7,13,0,5,0,-2,-2,-6
1523146799586767,14,8,14,4,10,-5,-8,-14
1523146799598847,2,-7,2,-8,-7,-2,3,0
1523146799598847,-2,-6,-10,4,-5,-6,-2,3
1523146799607322,6,-4,18,-5,1,3,0,-3
1523146799607322,-11,-9,-30,-6,-6,-5,-1,12
1523146799622367,-9,-6,14,4,3,-3,-6,0
1523146799622367,28,1,7,8,3,3,4,3
1523146799623865,21,-10,-5,-8,-9,-4,-4,-9
1523146799623865,18,11,-5,-2,-5,-3,2,21
1523146799644967,-2,-11,4,-4,-3,-3,-2,-14
1523146799644967,-3,3,-8,6,3,-1,-4,-7
1523146799646425,65,35,3,2,1,0,1,10
1523146799646425,23,-55,-17,-2,-1,0,1,2
1523146799658457,-3,-3,-11,-3,-4,2,2,-3
1523146799658457,-13,0,3,10,2,-2,-3,2
1523146799673501,21,9,5,-3,-3,-3,-6,-8
1523146799673501,-5,-2,-27,0,-5,-1,1,13
1523146799682570,9,14,9,-1,0,-4,-3,-10
1523146799682570,6,-15,-5,-3,-4,0,-2,4
1523146799684026,-14,5,9,2,0,0,-1,-3
1523146799684026,-24,1,-14,2,-1,-1,-1,-4
1523146799705082,-2,-12,-3,3,-3,0,2,4
1523146799705082,-26,22,15,-1,0,-1,-2,-8
1523146799706586,-9,-9,-12,-6,-1,-5,-1,-4
1523146799706586,30,-8,-7,-8,1,2,0,4
1523146799718860,19,-43,-29,12,-1,0,-1,1
1523146799718860,-7,-9,7,-3,-2,0,1,2
1523146799727642,-10,-4,-6,-1,-2,-2,-4,0
1523146799727642,2,46,4,-2,-3,-2,0,1
1523146799742770,1,1,-6,-9,-4,-3,-1,-3
1523146799742770,-26,-3,-1,0,-1,-3,-4,-6
1523146799744187,9,-10,9,3,0,1,0,3
1523146799744187,-6,21,3,0,2,-2,0,-4
1523146799764747,-20,3,7,-5,2,-3,-3,-4
1523146799764747,-4,14,2,-1,-1,-1,1,2
1523146799766745,-18,-19,-5,-8,-2,-4,-4,2
1523146799766745,-14,6,9,0,-2,-5,-2,-3
1523146799778778,-6,0,-11,-7,-3,-2,-2,-4
1523146799778778,18,-13,0,-1,0,-1,1,2
1523146799787299,-4,-1,-9,1,-1,-2,-3,-2
1523146799787299,10,-9,0,4,2,3,3,3
1523146799802481,10,7,6,-3,0,-3,0,5
1523146799802481,3,14,-7,4,1,1,1,-2
1523146799803845,9,19,-4,-4,-3,0,0,2
1523146799803845,-56,-78,1,0,-5,0,-2,-4
1523146799824906,-2,22,18,3,1,0,2,-2
1523146799824906,-7,-9,1,-10,-6,1,3,3
1523146799826403,2,0,-5,-1,3,2,1,-2
1523146799826403,4,10,5,2,-1,-2,-3,2
1523146799838434,-17,-10,-12,-10,-5,-3,-5,-2
1523146799838434,6,-7,16,7,2,-2,-2,2
1523146799847461,-16,2,-24,-8,-9,-3,2,-3
1523146799847461,-4,3,-3,-7,-4,-2,-2,-3
1523146799861604,-7,-1,10,3,0,-1,-1,-2
1523146799861604,6,-24,-9,-2,-1,-1,-1,1
1523146799868621,4,24,9,5,5,1,1,0
1523146799868621,4,8,-1,-1,-5,-3,-1,1
1523146799885089,3,-6,-2,-1,1,0,1,0
1523146799885089,15,-2,11,-4,0,0,-3,-1
1523146799886564,4,-3,-2,4,1,0,1,0
1523146799886564,-23,-16,-14,2,-1,-3,-5,-8
1523146799898647,-9,-3,-6,-8,-3,0,0,-3
1523146799898647,-1,9,-1,-5,-1,-1,-1,-1
1523146799907619,-2,-18,-1,2,-1,-3,-4,-3
1523146799907619,-17,20,8,2,0,-1,1,-1
1523146799921657,8,8,2,-1,-3,-1,2,4
1523146799921657,-3,-5,-9,-1,1,-3,-1,-4
1523146799928678,-5,-13,3,0,-1,-1,-2,-4
1523146799928678,-7,20,-2,-2,-2,-2,-3,5
1523146799944758,5,-5,-1,-2,-3,-3,-1,2
1523146799944758,-5,-46,6,0,2,2,0,0
1523146799951287,9,28,-2,2,4,9,6,4
1523146799951287,56,-49,-15,2,4,4,2,0
1523146799958757,5,10,-23,-4,-8,-9,-5,2
1523146799958757,30,4,-14,-1,3,1,-9,-31
1523146799967784,6,66,6,-2,-7,-10,-2,22
1523146799967784,9,-32,30,0,5,12,13,-12
1523146799981866,22,47,0,-28,-6,-7,-9,-5
1523146799981866,16,59,65,45,6,2,1,0
1523146799988338,10,-47,-27,15,14,12,16,3
1523146799988338,4,81,42,-1,-5,-8,-7,-3
1523146800004879,0,12,-37,-12,-1,3,-2,-16
1523146800004879,5,-4,-30,-17,3,5,6,13
1523146800006383,-29,-73,-85,23,9,1,-3,1
1523146800006383,-5,54,97,-20,-22,-23,-16,-1
1523146800027493,-52,-33,-9,10,10,11,5,-4
1523146800027493,-7,-9,-30,-14,-7,-8,-5,-1
1523146800028943,60,-44,34,-7,-3,1,-5,-9
1523146800028943,19,26,-34,-16,-2,-3,5,28
1523146800042028,-21,-41,-5,18,3,2,-2,1
1523146800042028,9,14,1,-6,-5,-4,1,12
1523146800048498,-7,25,36,-11,-3,-2,-7,-16
1523146800048498,19,60,-17,10,3,3,0,-1
1523146800065112,13,-2,29,-6,-3,-3,-1,2
1523146800065112,-8,7,-3,5,-1,3,6,9
1523146800066543,-18,6,13,0,-3,-4,-4,-5
1523146800066543,-21,-41,-35,2,5,4,0,-3
1523146800087599,-3,16,1,8,-3,-2,1,-3
1523146800087599,-22,-16,-4,-12,-6,-4,-5,-8
1523146800089102,-12,22,2,-1,4,-5,-5,-2
1523146800089102,-22,-33,-23,-6,-1,-2,-3,-5
1523146800101137,8,-3,16,5,1,-1,1,2
1523146800101137,-8,11,22,1,2,0,-1,1
1523146800110159,-8,3,22,-4,-2,-1,1,-1
1523146800110159,-12,-26,-6,-3,-5,3,2,-1
1523146800125700,5,-2,8,2,4,-1,-2,-2
1523146800125700,4,1,-6,5,6,0,-2,-1
1523146800132268,-8,2,-28,-18,-14,-4,-1,1
1523146800132268,-7,-25,-5,5,4,3,0,-7
1523146800132718,-10,3,2,-1,-3,-2,-2,2
1523146800132718,-4,0,-5,-3,-2,-1,1,0
1523146800141242,-1,7,19,5,2,0,-1,-2
1523146800141242,12,-4,-13,-3,-4,-1,-4,-2
1523146800154276,7,3,10,-2,-1,0,1,2
1523146800154276,-22,-24,-12,-4,-7,-4,-1,0
1523146800161294,-10,-1,1,-5,-3,-3,-4,-4
1523146800161294,6,-14,-8,2,1,-1,0,-3
1523146800176881,17,45,-7,0,-3,0,0,1
1523146800176881,-5,10,0,-4,-3,-2,-2,-4
1523146800183352,-1,13,4,-3,-4,0,-1,-3
1523146800183352,-4,-5,-5,1,-1,-1,-2,-1
1523146800190874,2,-1,3,1,-1,0,0,0
1523146800190874,-9,5,-4,0,1,0,0,-1
1523146800199900,-10,3,-7,-4,-5,-2,-3,-2
1523146800199900,4,0,3,-3,3,0,3,3
1523146800214473,-23,-19,-10,4,1,0,0,-2
1523146800214473,30,6,6,0,0,0,1,7
1523146800228475,7,28,-2,0,1,2,4,-4
1523146800228475,-1,-22,-7,-8,-5,-2,-2,-5
1523146800236554,14,8,5,2,3,0,-1,2
1523146800236554,-5,-75,-10,-2,-2,-1,-3,-3
1523146800243569,-18,18,6,1,0,2,-1,2
1523146800243569,-36,0,-2,3,1,0,-3,-4
1523146800251034,2,-12,3,-1,-1,-5,-3,-3
1523146800251034,0,27,-1,-1,-2,0,1,0
1523146800260057,-3,-27,-3,-4,-7,-8,-3,0
1523146800260057,-8,-13,-3,1,-3,-9,-20,-7
1523146800274153,-7,3,-7,-2,-3,5,21,2
1523146800274153,-18,6,3,-3,-2,-2,-11,-6
1523146800281171,-2,-10,8,2,4,19,11,2
1523146800281171,6,7,1,5,3,0,17,2
1523146800305181,-3,7,-4,-2,-2,-7,-32,-3
1523146800305181,7,6,-6,-6,-3,-5,5,-6
1523146800306690,4,-11,-2,-1,-3,-4,6,-1
1523146800306690,6,7,0,2,3,-12,-13,0
1523146800319718,-4,-8,16,2,-1,15,14,0
1523146800319718,-8,-6,3,-6,-2,-7,-15,-10
1523146800321723,-3,-11,-5,0,0,-5,-6,-1
1523146800321723,-13,-3,-6,-4,-5,0,6,3
1523146800334309,18,-15,2,-2,0,-8,-5,4
1523146800334309,-6,34,-3,2,-2,1,1,-6
1523146800340827,6,5,7,1,2,0,0,-1
1523146800340827,-5,-3,0,-1,-1,3,2,-2
1523146800357316,3,-2,-1,5,4,-1,-3,4
1523146800357316,4,-5,-4,0,-1,5,4,-1
1523146800363335,16,-3,-4,-2,0,-4,-2,0
1523146800363335,20,-1,4,-2,-2,1,-5,-2
1523146800380047,-7,-3,-4,1,1,1,3,-2
1523146800380047,-5,-8,-4,-14,-10,-4,3,4
1523146800381512,-1,-2,-2,-2,-3,-5,-8,-3
1523146800381512,0,0,7,2,1,3,1,1
1523146800394045,-9,-9,-15,-10,-9,-6,-6,-3
1523146800394045,-1,-16,8,7,5,0,1,3
1523146800401118,-37,-14,-1,-5,-5,0,-3,0
1523146800401118,8,-7,-15,-1,0,3,3,0
1523146800416794,8,6,11,0,1,-3,0,1
1523146800416794,-20,17,-8,1,-2,-5,-8,-4
1523146800423755,0,-4,0,-1,-2,-3,-6,-3
1523146800423755,-3,-3,-3,2,0,2,4,-3
1523146800439898,6,-3,-6,-11,-3,-5,-1,0
1523146800439898,27,10,-11,6,1,-1,-1,-1
1523146800441405,-3,1,6,4,1,3,4,0
1523146800441405,1,52,22,-9,-2,-4,-3,4
1523146800454437,-26,0,-17,2,2,3,-2,-5
1523146800454437,-15,-10,-13,6,-1,-2,-7,-3
1523146800461010,13,-42,-7,-2,6,6,13,-6
1523146800461010,52,11,1,-7,-10,-14,-12,-3
1523146800476995,37,70,23,5,19,16,15,-7
1523146800476995,16,-20,5,11,-15,-12,-11,38
1523146800483568,3,30,6,-24,3,9,23,-18
1523146800483568,10,3,-50,6,2,2,0,27
1523146800507581,-14,0,24,-4,-9,-8,-7,-11
1523146800507581,20,20,20,-27,-6,-10,-16,-19
1523146800509085,32,38,25,1,-6,-6,2,17
1523146800509085,-35,5,28,-12,0,3,-3,-28
1523146800515097,16,27,23,-7,-14,-8,-3,7
1523146800515097,-26,-62,-34,-14,5,7,7,17
1523146800522618,-24,47,-9,13,-4,-9,-23,-24
1523146800522618,-11,13,13,-2,-1,6,8,-2
1523146800536654,-10,-28,-41,14,5,1,-2,-24
1523146800536654,12,17,20,7,5,5,8,5
1523146800543728,4,0,-15,-3,-1,-2,0,1
1523146800543728,-25,-84,-15,4,-2,-4,-2,5
1523146800559718,-17,-19,-2,-2,-3,-4,-6,-6
1523146800559718,-3,22,4,-3,0,4,8,1
1523146800561722,-3,-36,-42,-4,-10,-3,-8,11
1523146800561722,9,20,11,8,6,3,-1,-2
1523146800573753,-6,-36,-26,1,6,0,-2,6
1523146800573753,-10,-1,21,-5,-1,0,6,-9
1523146800582777,2,-4,-8,1,-2,-4,-9,7
1523146800582777,-5,-4,19,15,13,2,0,-12
1523146800596817,-1,-11,-19,-10,-10,0,6,5
1523146800596817,-7,4,1,2,0,-3,-4,-6
1523146800603380,-4,-6,1,-4,-1,-2,-2,-3
1523146800603380,-3,-2,5,-1,1,3,3,3
1523146800619987,-4,-8,-1,3,-1,-3,0,7
1523146800619987,5,11,-7,4,1,1,-1,-5
1523146800621492,1,-13,8,0,-2,-4,-2,3
1523146800621492,-5,-9,-8,-8,-7,-1,1,-2
1523146800633692,-1,2,6,-4,-2,-2,0,4
1523146800633692,-2,-4,4,8,0,-1,0,-9
1523146800642659,-11,-8,-8,6,1,0,-4,-3
1523146800642659,-15,-10,-7,-1,-4,-1,-3,0
1523146800656697,13,-4,-1,-7,-5,-3,-3,0
1523146800656697,-16,-4,-3,2,5,2,1,-2
1523146800663741,-1,-2,1,-3,2,-1,-1,0
1523146800663741,8,3,-20,-3,-7,-3,1,-2
1523146800679757,-2,-3,8,1,-1,-4,-3,4
1523146800679757,2,15,-14,-5,-3,0,1,-3
1523146800681263,4,13,14,6,2,0,-2,3
1523146800681263,3,-6,-8,-1,-2,-2,-2,-3
1523146800693347,3,56,-4,3,3,3,0,-2
1523146800693347,7,-8,-5,-4,-2,1,0,-2
1523146800702318,-2,1,-3,0,-1,0,-1,1
1523146800702318,-1,3,-3,2,2,-2,1,2
1523146800716946,-22,-8,4,-1,-3,-1,1,0
1523146800716946,10,37,3,4,0,0,-1,-3
1523146800723464,-6,-26,-16,-11,-3,-4,-1,-3
1523146800723464,-39,-13,-4,-4,-4,1,-2,-2
1523146800740009,-7,-28,2,-1,-1,-4,-4,-2
1523146800740009,-12,1,-3,2,1,4,3,-1
1523146800741511,-4,-2,4,-5,-6,-6,-5,-2
1523146800741511,-6,-12,-4,0,2,1,1,0
1523146800753541,6,-7,4,2,5,-1,-2,0
1523146800753541,-16,-21,-19,-11,-11,-2,0,0
1523146800762570,20,4,7,3,2,1,-1,1
1523146800762570,34,-4,-9,0,-1,-1,0,1
1523146800776641,-18,2,8,-5,-4,-3,-2,-3
1523146800776641,7,-19,2,-1,4,1,0,-2
1523146800785127,1,0,-6,0,0,2,1,3
1523146800785127,19,21,4,-6,-4,-7,-5,-1
1523146800799666,-8,-61,-16,1,-4,5,-1,1
1523146800799666,2,22,0,2,1,-6,-2,3
1523146800801672,-8,-69,-1,0,0,4,2,-1
1523146800801672,-8,9,17,-1,0,-1,1,0
1523146800813780,1,17,-10,-6,-4,-1,2,1
1523146800813780,-4,-4,8,1,3,1,-1,0
1523146800822310,14,8,3,-1,-1,-3,-1,3
1523146800822310,1,8,9,7,2,-1,-2,-1
1523146800836856,4,-5,-9,-2,0,-2,-1,-1
1523146800836856,-6,-3,-4,-4,0,0,-2,-4
1523146800843429,2,19,1,-4,-1,0,-3,-3
1523146800843429,7,18,-7,8,-4,-2,-1,2
1523146800859909,-17,-1,4,-3,-4,-4,-1,-2
1523146800859909,9,-16,-8,4,1,3,-2,-3
1523146800861412,-7,0,-26,-10,-8,-4,-1,0
1523146800861412,-6,-9,-3,-6,0,1,-1,-4
1523146800873583,4,1,1,1,-1,0,-1,4
1523146800873583,8,3,5,-1,-2,-2,0,0
1523146800882644,-15,8,11,4,1,-1,-4,-5
1523146800882644,-2,-3,-6,-2,1,4,2,-1
1523146800896739,8,23,12,-1,-1,-1,1,-1
1523146800896739,8,-6,-16,-7,-4,-6,-3,1
1523146800903700,2,23,7,3,-1,3,-1,-1
1523146800903700,-4,-2,10,6,2,-2,-3,2
1523146800919845,6,0,-2,0,-2,-1,-1,0
1523146800919845,0,4,4,0,-2,-1,0,1
1523146800921347,6,-4,1,0,0,-3,-1,-2
1523146800921347,-13,3,-6,-3,-5,-1,-2,-1
1523146800933525,6,27,5,0,0,2,-2,-8
1523146800933525,-22,-66,-2,-1,-1,0,0,11
1523146800942480,21,45,16,-3,0,-4,1,5
1523146800942480,-2,-11,-6,-4,-2,-3,-3,-1
1523146800956516,-5,-3,-1,0,1,2,4,-3
1523146800956516,3,7,7,-3,-6,-9,-12,1
1523146800963587,-38,-3,2,6,5,10,12,-26
1523146800963587,16,-25,-23,-13,-8,-7,-7,6
1523146800979666,2,-3,-9,1,-4,-6,-8,-3
1523146800979666,6,-7,24,9,8,7,12,-2
1523146800981674,3,19,10,-10,-11,-16,-21,-2
1523146800981674,-2,56,-1,15,30,44,27,6
1523146800993744,8,-29,24,-16,-6,-10,-18,1
1523146800993744,-3,53,12,38,22,20,37,12
1523146801002728,2,-2,49,-20,3,13,21,-17
1523146801002728,8,22,-33,24,-9,-13,-17,-23
1523146801024342,2,-40,-51,-40,2,14,23,25
1523146801024342,-5,2,-7,-1,-3,-4,-8,-12
1523146801031304,-12,-54,-46,-2,2,0,-9,-14
1523146801031304,-2,-32,17,-2,-3,-5,1,33
1523146801047348,10,-66,17,15,1,-1,4,19
1523146801047348,2,-33,-14,7,-8,-16,-24,-7
1523146801048851,-7,-9,-25,10,2,3,6,-9
1523146801048851,-9,-8,20,-23,-8,-6,-6,-12
1523146801069913,5,11,-6,20,-1,-6,-5,-5
1523146801069913,-10,12,-12,-15,0,5,5,-2
1523146801071411,8,-4,23,11,3,-2,-1,22
1523146801071411,-12,-11,-7,-1,-4,1,3,-17
1523146801084445,1,33,23,-7,-7,-7,-7,-10
1523146801084445,-1,8,-16,-2,3,-2,-2,-4
1523146801091027,0,17,-6,-13,-18,-4,3,7
1523146801091027,-2,-11,-31,-12,-21,-15,-15,-5
1523146801107541,-12,20,-9,8,10,8,3,-8
1523146801107541,4,8,16,-9,0,-2,-6,-5
1523146801109011,4,-15,-10,-7,-8,-8,-9,9
1523146801109011,-3,-11,2,0,7,0,2,-3
1523146801130069,-5,-2,0,5,-2,-3,-4,-4
1523146801130069,0,-3,-9,-5,-8,-2,1,7
1523146801131572,0,4,2,6,0,-3,-6,3
1523146801131572,3,5,14,-1,-2,-1,2,-4
1523146801144105,-4,16,-12,1,0,-2,-4,-8
1523146801144105,-3,-3,0,-4,-5,-3,-8,-5
1523146801151123,0,5,-2,7,6,4,3,2
1523146801151123,-1,-2,7,-7,-1,-3,-2,-3
1523146801167679,-3,2,2,2,-1,-1,-2,-1
1523146801167679,-1,-5,-10,-7,-3,-1,0,0
1523146801169171,0,-2,-3,-3,-1,-3,-5,2
1523146801169171,-10,-7,4,7,6,-1,0,3
1523146801189959,3,4,2,0,-3,-3,-3,-4
1523146801189959,-4,4,-8,-14,-5,-4,-3,-5
1523146801191229,1,7,4,0,1,0,-3,1
1523146801191229,4,-2,1,-2,-4,-1,1,0
1523146801203261,-13,-23,-6,2,0,1,1,-4
1523146801203261,-8,7,-1,-13,-4,-2,-4,-1
1523146801212286,-1,53,11,8,0,-1,-4,0
1523146801212286,-3,-71,-15,-2,-3,-3,-2,-1
1523146801227568,-5,-2,4,0,-2,-3,-2,-3
1523146801227568,-5,5,-4,0,0,0,-2,1
1523146801229368,1,16,5,-1,0,-3,-2,0
1523146801229368,-19,8,-6,-1,2,-1,-3,-2
1523146801250101,-10,-5,9,4,5,3,0,0
1523146801250101,-7,2,6,3,-1,-1,-2,-4
1523146801251390,-3,-53,-13,-1,-1,-1,-1,0
1523146801251390,4,17,9,0,2,0,0,-2
1523146801263539,-3,-2,-16,-5,-5,1,-1,0
1523146801263539,0,0,-7,-10,-1,-3,-2,-3
1523146801272446,-8,-8,-3,5,2,-1,-1,0
1523146801272446,9,51,20,-3,-3,-4,0,-2
1523146801287486,13,13,-6,-6,-6,-1,-2,0
1523146801287486,18,10,11,2,-2,-2,-2,2
1523146801288991,-13,-39,-8,-3,-1,2,1,-1
1523146801288991,23,23,0,3,2,1,-1,1
1523146801310045,-22,15,0,-1,-3,-2,-1,-3
1523146801310045,3,-25,-8,-1,-2,-2,-3,-1
1523146801311551,6,22,22,10,5,-4,0,2
1523146801311551,-6,3,-20,-6,-3,1,1,-4
1523146801339866,7,46,3,0,-1,-1,1,0
1523146801339866,4,-5,17,2,1,-1,-1,0
1523146801341630,4,-2,-36,-4,-2,-2,1,0
1523146801341630,-5,-7,-2,0,1,0,0,1
1523146801347391,10,-12,-4,-2,0,-2,-3,-3
1523146801347391,-11,-3,24,9,2,0,2,0
1523146801349303,1,13,16,10,9,-1,-5,-1
1523146801349303,12,-13,-12,-3,-3,-1,-1,-2
1523146801369737,7,-2,4,-2,2,-2,-1,-4
1523146801369737,0,6,-3,1,-2,-2,-1,1
1523146801371775,11,-65,8,1,0,-2,-2,0
1523146801371775,-8,2,4,-1,-4,1,-1,-2
1523146801383511,2,-3,-5,2,1,-2,0,1
1523146801383511,4,27,-8,-5,-1,1,1,-3
1523146801392795,-3,35,-9,-6,-6,2,1,0
1523146801392795,-2,6,13,4,-1,-3,0,4
1523146801407333,-10,-38,-18,-3,-5,-1,-3,0
1523146801407333,1,19,-3,-4,-3,-1,-2,-1
1523146801408838,3,13,12,10,1,0,0,0
1523146801408838,-1,-14,-8,2,0,0,0,-1
1523146801429892,-2,3,-4,-8,-4,-3,-3,-2
1523146801429892,9,69,-6,1,-1,-1,0,-1
1523146801431397,10,-7,-3,-1,-6,-2,-4,-5
1523146801431397,-2,-25,26,5,5,-2,-1,1
1523146801443666,-16,-11,4,5,5,-2,0,0
1523146801443666,-13,-77,-45,-13,-14,-8,-6,-5
1523146801452454,-41,12,0,-8,-5,-1,-1,-5
1523146801452454,3,12,-1,-11,-6,-5,-4,-7
1523146801467699,0,-32,12,-2,-1,0,-1,-5
1523146801467699,12,-33,1,8,3,4,2,6
1523146801468997,9,62,-23,-2,-3,-2,-6,-23
1523146801468997,-24,-50,-6,-5,4,3,3,11
1523146801490094,-32,-23,63,-3,-5,-5,-5,-5
1523146801490094,7,-16,23,17,8,8,9,-7
1523146801491598,1,-85,-12,-9,-8,-8,-11,-10
1523146801491598,3,3,4,-4,-5,-3,9,1
1523146801503630,25,46,1,0,11,19,22,5
1523146801503630,-18,-43,0,3,-7,-11,-18,-22
1523146801512654,-9,5,26,-18,-4,0,2,8
1523146801512654,4,-8,-22,-2,-11,-11,-9,-8
1523146801527389,4,14,-28,-18,-10,-9,-8,4
1523146801527389,-10,23,76,4,-7,-6,0,-12
1523146801529308,4,-14,-24,0,-9,-8,-7,-17
1523146801529308,4,19,-25,7,6,3,1,36
1523146801551257,1,32,-12,15,6,6,0,-20
1523146801551257,-13,-35,14,-18,1,8,17,21
1523146801554264,13,15,-43,-3,-7,-7,-7,1
1523146801554264,-8,-64,-29,10,6,8,5,-3
1523146801556928,-10,-44,-4,-1,-7,-9,-11,-2
1523146801556928,4,15,-14,-7,-2,-5,-3,14
1523146801566297,-1,1,16,-2,5,4,8,9
1523146801566297,-2,26,4,-3,-1,0,-6,-17
1523146801579529,9,13,-8,-3,-2,-2,1,11
1523146801579529,-5,0,-23,-2,2,0,-4,-3
1523146801585848,0,-9,-5,2,4,6,6,5
1523146801585848,0,29,16,0,-4,-3,-6,-6
1523146801602392,3,0,9,6,6,2,-1,-1
1523146801602392,1,5,-49,-9,-3,-3,-1,1
1523146801603903,-1,13,15,9,8,2,1,5
1523146801603903,-10,2,-6,-11,-9,-4,-2,-2
1523146801616126,4,7,4,2,1,0,-1,2
1523146801616126,0,5,12,3,0,-3,-2,-6
1523146801624953,3,-8,-44,-7,-4,-5,-2,8
1523146801624953,-1,8,16,5,3,1,-3,-7
1523146801639232,-1,-8,-19,-15,-17,-3,4,4
1523146801639232,1,12,-6,3,1,-1,-3,-2
1523146801645961,2,-1,38,9,9,5,3,5
1523146801645961,3,9,-16,-13,-16,-2,1,-3
1523146801662503,1,4,0,5,2,-3,-7,-1
1523146801662503,4,4,9,8,2,2,-1,3
1523146801663770,1,0,-7,-11,-8,-1,6,3
1523146801663770,3,-11,14,11,8,0,-1,-4
1523146801676046,-2,2,-31,-12,-6,-4,-1,0
1523146801676046,4,57,-2,-3,-4,-1,-2,-1
1523146801685327,19,-10,5,-12,-1,-1,0,3
1523146801685327,23,22,11,28,6,0,0,3
1523146801699137,5,-1,1,0,-2,0,0,-2
1523146801699137,-8,46,-1,-4,-2,-3,-4,-4
1523146801706397,4,5,1,2,2,0,-2,-1
1523146801706397,1,3,6,-14,-4,-2,1,0
1523146801722312,-2,-6,6,1,5,-2,-1,1
1523146801722312,4,-10,-5,5,-3,-1,-1,1
1523146801723817,-8,-17,25,3,0,1,-1,1
1523146801723817,-18,7,-18,-8,-2,-1,-4,-4
1523146801735848,4,27,4,0,-1,-3,-2,-1
1523146801735848,0,-60,-1,4,0,2,2,0
1523146801745373,-5,-3,-3,-4,-7,-2,-1,3
1523146801745373,-7,19,10,-4,0,-1,-1,-6
1523146801759607,6,-5,-6,5,0,-3,-3,-1
1523146801759607,0,-18,-49,-25,-6,-4,-2,-1
1523146801773951,-9,6,7,7,5,1,-2,-4
1523146801773951,-12,-45,-11,-9,-1,0,1,-1
1523146801782713,3,-3,3,7,-2,-1,1,-1
1523146801782713,1,-4,13,-4,-1,-2,0,-3
1523146801784220,-6,-1,-17,-14,-5,-4,-2,0
1523146801784220,9,9,-8,-5,1,-2,-1,0
1523146801796008,-2,-4,2,-8,-3,0,-2,-3
1523146801796008,-5,-7,11,10,1,3,0,-2
1523146801805033,3,19,27,10,1,-1,0,0
1523146801805033,-1,-5,-3,-17,-11,0,0,0
1523146801819263,-8,-5,-25,-4,-1,-3,-1,-1
1523146801819263,0,17,36,1,1,-3,-1,-1
1523146801826428,-1,4,12,5,-1,-2,1,-1
1523146801826428,-13,-9,-29,-9,-5,-4,-3,-1
1523146801842427,-2,-1,11,7,0,1,-1,-1
1523146801842427,-7,-1,9,-8,-4,-2,-3,-5
1523146801844344,1,-4,-1,1,-1,-2,0,1
1523146801844344,18,31,85,20,8,-2,-4,-2
1523146801865124,3,2,-43,-13,-4,1,1,0
1523146801865124,-9,-10,-4,27,-2,-7,-4,-1
1523146801866889,0,-10,9,-5,-3,1,-1,-2
1523146801866889,10,9,11,4,1,-2,-3,-1
1523146801879466,-5,-13,-25,-12,-6,-3,2,0
1523146801879466,-12,0,-13,-2,0,3,-1,-3
1523146801885941,-3,-26,-11,-2,-4,-3,-3,-3
1523146801885941,-5,5,-32,-1,-1,-2,-1,3
1523146801902485,3,34,52,14,8,0,-1,-4
1523146801902485,1,-13,-24,-7,2,3,3,1
1523146801903989,-1,1,-8,-3,-3,-2,-2,-4
1523146801903989,-12,3,5,-2,3,2,0,-4
1523146801916021,-16,-28,15,10,4,1,1,1
1523146801916021,2,10,12,-10,0,-2,-3,-1
1523146801925045,1,21,-12,-5,-1,1,2,-1
1523146801925045,8,4,6,6,0,0,0,3
1523146801940586,-7,13,-23,2,-2,-1,-1,1
1523146801940586,14,-10,-20,-2,-2,-1,1,4
1523146801946810,-6,-4,-5,-1,-1,-3,-3,-4
1523146801946810,-2,-10,-12,4,2,1,2,1
1523146801962383,-18,-4,18,-3,-2,-1,-5,-8
1523146801962383,4,36,0,-4,2,1,3,2
1523146801964149,26,18,-11,9,1,2,4,18
1523146801964149,-13,-37,-13,-3,0,0,-1,-6
1523146801976378,-22,-26,9,9,-8,-9,-10,1
1523146801976378,16,44,36,16,15,23,28,9
1523146801985204,7,-10,-15,-9,-14,-20,-24,-22
1523146801985204,1,26,1,5,13,15,7,-16
1523146801999484,-31,-43,0,-14,-4,-3,1,23
1523146801999484,-32,-67,-71,-2,0,2,-6,-14
1523146802006261,-27,21,16,-3,-1,1,-6,-42
1523146802006261,-34,-19,22,-2,-11,-11,-10,49
1523146802021689,25,16,-62,-36,6,11,7,-37
1523146802021689,-8,-1,20,16,0,-3,-4,-13
1523146802028609,12,16,1,-2,-2,-3,1,7
1523146802028609,25,-36,-20,-6,-11,-21,-35,-24
1523146802036130,5,45,42,0,6,18,27,13
1523146802036130,-6,-59,-30,4,-7,-10,-8,8
1523146802045153,-66,-12,15,-9,1,7,8,2
1523146802045153,50,27,-25,-13,-9,-13,-10,-5
1523146802059427,16,-8,-13,13,-2,-5,-7,-4
1523146802059427,26,19,12,-7,-2,-2,0,1
1523146802066425,0,-2,-5,14,5,4,2,6
1523146802066425,-16,-5,-3,-3,1,6,8,4
1523146802081750,-4,-11,2,2,-7,-9,-10,-6
1523146802081750,9,15,10,-7,-3,0,-2,3
1523146802088899,2,-4,-7,-6,-2,1,-1,11
1523146802088899,-12,5,3,-1,-1,0,3,-14
1523146802096077,18,15,13,6,2,0,-1,0
1523146802096077,-3,-12,-18,-13,-9,-7,-7,4
1523146802105004,18,-4,-11,-7,-6,2,3,4
1523146802105004,0,4,16,5,8,5,7,-3
1523146802119043,-7,-8,-11,10,1,-3,-4,4
1523146802119043,-10,6,21,-11,-1,-6,-5,-3
1523146802126295,2,-12,-30,1,0,-3,-2,-1
1523146802126295,-3,5,6,-3,-3,-2,3,0
1523146802141603,3,2,19,10,6,-1,-7,1
1523146802141603,0,5,5,-8,-12,-2,-3,-3
1523146802148855,5,6,13,6,5,1,5,4
1523146802148855,-5,0,1,5,3,0,2,3
1523146802156139,2,1,11,-3,-2,-3,-2,-1
1523146802156139,-4,-3,-3,-6,1,-1,-3,-3
1523146802171231,-1,-6,-8,3,-3,1,1,4
1523146802171231,-6,-4,-12,-2,0,1,3,-1
1523146802179489,-3,-3,7,-2,-7,-3,-4,-2
1523146802179489,7,3,1,0,3,0,-1,1
1523146802185771,-2,-9,9,1,1,1,1,2
1523146802185771,-1,7,-4,-3,-3,-3,-1,-4
1523146802202315,1,0,4,-2,-3,-2,-4,0
1523146802202315,17,3,-5,-1,-1,-2,-3,1
1523146802208963,10,5,13,1,4,-1,0,1
1523146802208963,0,-1,6,1,-1,6,2,-2
1523146802224248,-22,-5,7,0,-1,-2,-2,0
1523146802224248,0,0,4,-3,-1,1,0,1
1523146802225009,0,-4,0,-1,0,-1,0,-2
1523146802225009,-3,0,-8,0,0,1,0,-2
1523146802240074,19,7,-9,-10,-5,1,0,1
1523146802240074,-13,0,-10,5,-2,-2,-1,-3
1523146802246090,0,-1,11,0,2,-2,-2,1
1523146802246090,-2,3,2,-2,-3,-1,-1,-1
1523146802262634,6,-2,-14,-5,-2,1,-1,-2
1523146802262634,-4,-5,10,0,0,-1,-1,-2
1523146802268649,-5,-10,-19,-4,5,0,-2,-2
1523146802268649,11,1,-4,0,1,4,3,6
1523146802284394,-1,-9,10,-2,-3,-1,-3,-5
1523146802284394,-3,-5,6,8,3,0,-1,0
1523146802284693,0,6,-4,3,-1,1,0,1
1523146802284693,1,-14,-27,-16,-9,-5,0,-1
1523146802299733,0,-4,-22,-2,2,-1,1,-1
1523146802299733,9,11,30,3,-1,1,-1,-1
1523146802306270,-4,-3,-5,-1,-4,0,0,-2
1523146802306270,-21,-5,3,4,-1,-1,-3,-2
1523146802322292,25,2,-3,-2,-3,-5,-4,0
1523146802322292,25,6,-10,-6,-4,-3,-3,-3
1523146802328542,-12,0,15,0,0,0,1,3
1523146802328542,-31,-7,-6,2,1,-1,-2,-5
1523146802344529,-18,-5,12,3,3,-1,0,-2
1523146802344529,-8,-19,-1,1,3,0,-1,-1
1523146802344853,-10,11,2,-3,-2,-4,-5,-6
1523146802344853,9,0,5,0,-1,1,1,1
1523146802359892,-25,4,30,8,5,6,3,-1
1523146802359892,-11,-6,-33,-18,-9,-2,1,-2
1523146802365909,5,-1,-3,-2,-1,0,-2,1
1523146802365909,-10,-2,3,2,-2,-4,-3,-3
1523146802382453,-3,-15,4,3,1,-2,-2,0
1523146802382453,-18,3,22,8,3,1,-2,-1
1523146802388762,8,-3,-30,-7,-3,0,0,-1
1523146802388762,3,0,5,-4,-3,2,-1,-1
1523146802404306,-20,-12,-16,-3,-3,-2,1,-1
1523146802404306,-30,0,-6,3,-6,-7,-3,-5
1523146802405327,-33,-30,-2,0,-2,-2,-2,-2
1523146802405327,13,27,2,-1,5,-1,0,0
1523146802420349,3,1,-9,-7,-6,-3,-3,-1
1523146802420349,-6,-2,2,-2,0,1,0,-1
1523146802426028,1,-11,2,4,0,-1,-3,-1
1523146802426028,9,3,6,2,0,0,0,2
1523146802449543,5,6,12,4,1,-5,-3,0
1523146802449543,11,3,-7,-5,-1,1,0,-2
1523146802449929,24,43,9,-2,-2,1,1,2
1523146802449929,-5,-61,-8,-1,-1,-1,1,1
1523146802471730,13,16,5,3,0,-1,0,0
1523146802471730,-2,-1,0,-1,0,-1,0,0
1523146802472488,4,6,-3,-3,-2,-2,0,0
1523146802472488,-1,6,0,0,-2,-2,-3,-2
1523146802494547,-33,-1,-1,-3,-4,-5,-6,-3
1523146802494547,21,0,-3,-3,2,0,3,1
1523146802495048,-2,6,5,2,0,1,-1,-8
1523146802495048,-26,7,-4,-9,-8,-7,-6,-4
1523146802509586,2,15,29,-1,2,4,5,0
1523146802509586,2,-3,-9,12,9,6,-1,-11
1523146802510090,-29,-67,-16,-8,-14,-20,-19,-1
1523146802510090,13,57,40,2,9,12,17,-2
1523146802531667,19,22,-18,-3,-4,-1,4,-3
1523146802531667,-13,-7,12,11,6,4,-5,-22
1523146802532647,-17,-9,-16,-14,-18,-23,-11,11
1523146802532647,16,8,8,-7,10,13,12,2
1523146802562454,-52,-76,-20,-12,-10,-5,10,-12
1523146802562454,28,-31,-37,-1,4,-4,-17,1
1523146802563229,-18,33,1,27,-7,-32,-75,-12
1523146802563229,-15,-33,79,-6,24,40,66,-9
1523146802569246,22,23,-27,1,-11,15,18,3
1523146802569246,54,9,-33,-2,-8,-12,-10,-12
1523146802570249,54,35,17,-12,-2,-3,-1,17
1523146802570249,-21,19,-13,5,-12,-33,-53,-9
1523146802592042,5,3,5,1,8,1,-6,-2
1523146802592042,-8,23,16,-7,-7,2,11,21
1523146802592700,9,-5,0,1,7,14,12,-16
1523146802592700,5,-8,-29,-4,-10,-5,-4,5
1523146802614495,7,0,-6,-2,1,1,8,9
1523146802614495,-21,14,29,-10,-8,-7,-5,1
1523146802614761,-4,-7,2,3,6,14,21,0
1523146802614761,5,-6,-10,-1,2,-3,-5,3
1523146802629326,-2,-14,-6,-2,-4,-10,-17,-13
1523146802629326,-16,1,63,10,15,-2,-6,2
1523146802630330,7,-1,-12,-8,0,13,21,0
1523146802630330,15,-2,-5,8,0,-4,-7,0
1523146802651644,10,14,-9,-5,2,-4,-11,5
1523146802651644,-10,0,-5,6,1,6,12,8
1523146802652647,1,-7,3,-16,-2,5,17,-1
1523146802652647,1,1,-21,4,-6,-12,-14,-1
1523146802674204,3,0,9,6,3,-1,-6,3
1523146802674204,-8,-7,-3,-11,-10,-1,7,0
1523146802675258,-3,-13,-22,-3,5,2,2,-9
1523146802675258,-1,-6,-9,2,-3,-4,-8,1
1523146802689245,4,3,-2,3,2,0,0,0
1523146802689245,-2,-1,8,5,-1,0,1,2
1523146802690302,-1,6,-4,-4,3,5,2,-2
1523146802690302,1,-2,-15,-2,-4,-1,-1,0
1523146802711804,4,2,11,-3,0,0,1,1
1523146802711804,-10,-2,-32,-1,-6,-4,-5,-1
1523146802712806,9,-2,10,11,4,2,5,1
1523146802712806,4,-1,-5,-1,-3,1,0,-2
1523146802734107,2,-3,-2,-4,-4,-3,-4,-1
1523146802734107,-8,1,-2,-11,-6,0,2,-1
1523146802734867,4,5,12,2,2,3,4,2
1523146802734867,-1,-7,-8,-1,-4,1,-5,-1
1523146802749435,0,2,5,-1,2,-3,-1,-1
1523146802749435,0,7,14,-6,-1,-2,0,-1
1523146802750258,2,-2,1,2,-4,2,2,-2
1523146802750258,-6,-6,-11,-4,-8,-7,-5,-6
1523146802771995,3,0,6,-3,1,-2,-2,2
1523146802771995,-3,-32,-4,2,5,0,0,-1
1523146802772253,-6,2,-11,-6,-3,0,2,-3
1523146802772253,2,-1,-2,5,-1,-3,-3,-1
1523146802794312,3,4,-1,-11,-4,0,0,1
1523146802794312,2,-3,-13,-2,-2,0,-1,-1
1523146802795351,-3,12,9,2,-1,0,0,1
1523146802795351,15,-4,7,-3,3,0,1,3
1523146802809546,4,5,-11,9,5,0,0,-2
1523146802809546,-4,23,4,-10,-5,-4,2,-1
1523146802809854,8,14,4,9,3,2,1,3
1523146802809854,-23,-14,11,0,2,-2,-3,-4
1523146802831647,-8,-19,-10,-8,-10,-5,-2,0
1523146802831647,-1,7,3,-2,-3,-3,-3,-1
1523146802832414,4,-9,-13,-4,-1,0,0,-2
1523146802832414,1,-1,-7,-3,-6,-2,1,0
1523146802854503,3,5,7,6,5,-4,-1,-1
1523146802854503,-8,-5,-15,-1,0,2,1,-1
1523146802854974,-2,1,15,4,5,0,0,-1
1523146802854974,-3,7,3,2,-2,1,-4,1
1523146802869011,-4,3,3,-1,-1,0,-3,-2
1523146802869011,5,3,-1,3,0,0,0,-1
1523146802870014,-8,-22,1,-6,-3,-2,-2,-3
1523146802870014,-5,0,-1,-5,2,-2,-1,-3
1523146802891570,8,1,-1,4,0,2,-1,3
1523146802891570,-3,4,7,1,0,-3,0,-1
1523146802892575,-3,1,-6,0,1,0,-2,-1
1523146802892575,-6,-5,-10,-9,-5,-3,-2,-3
1523146802914327,-6,-6,-4,-3,-4,-3,-1,-2
1523146802914327,7,-4,-5,13,3,1,-3,-2
1523146802915167,1,-3,10,-1,2,2,0,1
1523146802915167,-6,4,-10,-3,-3,-1,0,-2
1523146802929416,-1,-3,-7,-4,1,1,-1,-1
1523146802929416,-1,2,6,-4,-6,-1,-4,1
1523146802929913,-11,-1,12,-2,-4,-3,-2,-3
1523146802929913,-2,-6,-6,-1,-2,-3,-2,0
1523146802951470,0,-1,-2,1,1,0,0,-2
1523146802951470,-7,-4,-10,-5,-1,-2,0,0
1523146802952475,-6,-4,-2,-4,-6,-1,-1,-1
1523146802952475,1,0,-7,-3,-1,0,1,0
1523146802974474,-4,1,0,-2,-6,-7,-4,1
1523146802974474,3,-4,-4,0,2,2,-3,1
1523146802974777,-1,7,-8,-3,-1,0,3,-1
1523146802974777,4,-3,-18,9,1,-1,-4,-10
1523146802989479,7,-17,-5,-4,-4,0,4,10
1523146802989479,-40,-18,-10,-4,-1,3,2,-10
1523146802989818,2,13,-10,-2,-3,-3,-4,-1
1523146802989818,-3,11,16,-7,-5,-5,-9,-3
1523146803012057,-14,-31,-15,-7,1,1,5,-5
1523146803012057,0,-10,-6,-1,2,0,2,1
1523146803012456,5,-4,6,-4,-1,-2,0,-4
1523146803012456,-34,-42,4,0,-1,-2,0,3
1523146803034213,-10,71,-17,-5,-9,-9,-14,-7
1523146803034213,10,66,26,-5,-5,-6,-10,-3
1523146803035017,-2,-13,-13,5,11,15,13,3
1523146803035017,8,0,17,-1,-4,-4,-6,0
1523146803049250,12,-8,-1,1,-2,0,-1,1
1523146803049250,7,-22,-22,5,2,2,0,2
1523146803050057,-4,-35,-59,24,16,10,11,10
1523146803050057,10,54,15,1,-3,1,2,-4
1523146803071810,24,24,-16,6,2,3,-2,-3
1523146803071810,14,49,-1,-2,-2,0,2,2
1523146803072617,9,-10,22,-9,-9,-10,-8,0
1523146803072617,7,-21,-15,2,4,3,5,1
1523146803094367,-4,-22,4,-1,-1,-2,-2,-5
1523146803094367,2,-9,1,-5,-7,-5,-2,0
1523146803095177,-7,3,-2,-6,-8,-5,-7,-6
1523146803095177,-6,-5,-10,-5,0,-3,-1,-1
1523146803109714,-6,4,19,-2,-2,-3,-2,-3
1523146803109714,0,-18,-15,-6,-6,-2,1,0
1523146803110754,-6,0,5,-3,-1,-3,-6,-3
1523146803110754,10,6,-2,2,-2,1,1,5
1523146803131774,-9,-16,4,4,0,0,-3,-9
1523146803131774,3,-16,10,1,5,2,1,3
1523146803132274,3,22,31,10,9,-3,-3,-2
1523146803132274,-9,-10,-32,-13,-12,-1,2,4
1523146803154334,-5,-5,-3,5,4,1,4,2
1523146803154334,-10,-13,-9,-2,0,-6,-5,-4
1523146803154837,2,14,6,-2,-7,-2,-2,-1
1523146803154837,5,3,16,-7,1,-3,0,1
1523146803169374,-3,-10,0,1,-1,1,0,2
1523146803169374,7,0,-6,-7,-1,1,0,-3
1523146803169875,-7,-21,3,1,-1,-2,-3,-3
1523146803169875,-11,-10,-8,2,3,0,1,0
1523146803192037,-27,-20,-10,-3,-7,-4,-6,-4
1523146803192037,2,-1,19,-5,-2,-1,-2,-2
1523146803192434,-7,-3,-8,-1,0,-3,-2,-1
1523146803192434,-2,-2,4,9,1,2,0,1
1523146803214236,-28,4,4,-4,4,0,-2,-1
1523146803214236,-4,17,2,10,2,2,-1,-2
1523146803214995,3,-29,-4,-14,-6,-5,-3,-3
1523146803214995,7,9,3,4,1,2,-1,-1
1523146803229274,12,3,1,0,2,0,1,0
1523146803229274,-12,-71,-20,-10,-6,-8,-5,-4
1523146803230036,-3,19,-15,-9,-7,1,0,0
1523146803230036,4,12,2,1,2,-3,-3,-2
1523146803251876,14,-5,4,-1,1,2,-1,1
1523146803251876,-7,7,1,-5,-5,-3,0,1
1523146803252378,1,8,12,3,-2,-2,-1,-3
1523146803252378,9,-8,-21,-6,-4,-1,1,-1
1523146803273933,15,10,8,-4,0,0,1,-1
1523146803273933,-21,2,9,7,-1,-1,0,-2
1523146803282076,9,-13,-2,-5,-5,-2,-4,0
1523146803282076,8,17,7,2,2,-1,0,-1
1523146803289550,6,4,5,1,-2,-1,0,2
1523146803289550,10,-2,-14,-1,0,-3,-4,1
1523146803289977,-1,20,9,-1,1,-1,-2,-3
1523146803289977,-4,-17,-7,2,-1,-1,0,-2
1523146803311771,6,23,4,-1,0,-1,0,1
1523146803311771,12,-14,15,2,2,0,0,-1
1523146803312537,-5,11,-2,-8,-5,-3,-2,-2
1523146803312537,2,5,7,1,1,-2,-2,-3
1523146803334094,-7,-2,0,1,-3,-2,-1,-2
1523146803334094,7,8,3,-2,-2,2,-1,2
1523146803335097,-11,0,1,0,1,-1,-1,-1
1523146803335097,-7,-9,-19,-9,-5,-5,-3,-2
1523146803348869,-1,-16,1,1,2,2,-3,-1
1523146803348869,-4,8,7,-1,-2,2,2,-2
1523146803356653,-1,-9,-18,-7,-2,1,-1,0
1523146803356653,0,-1,3,3,1,-1,-1,1
1523146803371897,3,3,0,-1,-1,0,-2,2
1523146803371897,3,7,27,16,8,0,-2,-1
1523146803372713,3,0,-15,-5,-6,0,2,-1
1523146803372713,-22,6,7,0,-1,2,-1,-3
1523146803393989,10,5,-6,-6,-3,-3,2,0
1523146803393989,-9,19,17,4,3,-2,-1,0
1523146803401782,-1,-9,-13,1,-1,2,1,-2
1523146803401782,0,13,2,-4,-2,0,-1,1
1523146803409293,-17,-27,-8,-2,-4,-3,-2,-1
1523146803409293,5,30,-2,-2,1,1,2,0
1523146803409796,2,4,8,5,1,-3,-3,0
1523146803409796,-1,-10,-6,-6,-2,-2,-1,-1
1523146803431854,0,-3,1,1,4,4,2,1
1523146803431854,3,-13,-16,-8,-4,-3,-2,-2
1523146803432356,-7,-1,7,4,-2,-2,-1,1
1523146803432356,23,8,5,0,0,2,-1,-1
1523146803454417,7,-1,-4,2,-1,0,1,-2
1523146803454417,-6,-13,-12,-6,-4,-1,0,1
1523146803454920,-1,10,31,-2,1,-2,1,-2
1523146803454920,-2,-11,-10,0,-1,-2,-4,-2
1523146803469467,-3,-5,-12,2,0,-1,0,6
1523146803469467,0,-4,-15,-6,-4,-2,-3,-2
1523146803469961,-13,-38,5,3,3,5,-1,-2
1523146803469961,-13,1,20,-1,-1,-3,-2,-8
1523146803492034,16,29,1,-5,-3,-5,2,4
1523146803492034,1,-23,-8,-4,-4,-2,-3,-11
1523146803492515,-2,3,4,1,1,-4,0,-1
1523146803492515,-16,-37,-10,1,3,1,-12,-20
1523146803514315,-19,0,-12,3,2,5,10,27
1523146803514315,-16,5,-6,-3,0,2,-2,-20
1523146803515076,21,-20,21,-8,-2,1,7,13
1523146803515076,14,-34,-55,20,7,1,2,31
1523146803528854,-6,-15,-11,-11,-5,-5,-14,-48
1523146803528854,10,46,-4,13,5,4,8,3
1523146803536633,-20,25,-23,2,0,-1,2,18
1523146803536633,31,17,-17,2,5,3,4,-10
1523146803551172,-20,-32,38,-3,-5,-3,-6,-11
1523146803551172,12,33,-1,2,-2,-5,-2,16
1523146803559429,-11,-10,7,2,2,2,-4,-15
1523146803559429,-7,35,40,-11,-10,-8,-5,1
1523146803574232,33,42,2,5,0,3,4,2
1523146803574232,-6,1,-12,-5,-3,0,-1,-1
1523146803575266,12,14,26,-1,-5,-7,-6,-2
1523146803575266,-3,-4,12,-10,-3,0,2,3
1523146803598799,3,-12,-5,-2,0,-2,2,10
1523146803598799,-5,-2,25,-5,-3,-2,-3,4
1523146803600834,3,8,-14,-2,-1,-1,0,-5
1523146803600834,-9,11,10,0,-1,2,1,-5
1523146803604313,8,6,-42,-6,-9,0,1,-1
1523146803604313,-4,-21,-9,4,-1,-2,-2,2
1523146803612615,-2,-6,-11,-2,-9,-2,-2,-2
1523146803612615,-3,-5,7,9,9,3,2,-6
1523146803626897,-3,-12,-10,-2,-5,-2,-4,2
1523146803626897,1,-21,4,1,3,-1,0,1
1523146803627659,1,-10,-41,-18,-20,-5,-2,-2
1523146803627659,-1,15,29,3,3,-4,3,3
1523146803642699,-4,-1,3,-11,-3,0,-3,-1
1523146803642699,-1,-10,-7,-3,-2,-3,-2,5
1523146803648845,-2,15,11,8,6,-2,-4,-14
1523146803648845,-1,-4,-9,-4,-6,0,0,2
1523146803663751,-6,-6,-3,3,3,-2,1,2
1523146803663751,1,-14,-12,-5,-6,-4,-3,-4
1523146803671265,4,4,0,3,4,0,-1,1
1523146803671265,-4,0,-10,-5,-5,-3,-1,0
1523146803686814,13,-1,13,8,3,1,-3,-1
1523146803686814,6,2,3,0,-1,0,2,2
1523146803687572,-11,-6,-5,-4,1,-4,-5,-5
1523146803687572,-5,-5,-26,-2,-4,-2,-1,-3
1523146803702612,-6,4,0,0,-2,1,-2,-2
1523146803702612,5,-9,8,-8,-2,0,2,-2
1523146803708629,6,26,-6,5,4,0,0,0
1523146803708629,1,-13,1,-6,-4,-3,-1,-1
1523146803723879,-8,-11,0,0,-2,0,-2,0
1523146803723879,3,28,4,7,1,-1,-3,-1
1523146803731187,-11,-14,-10,3,0,-1,-2,-1
1523146803731187,0,5,14,-2,-1,-1,1,1
1523146803747078,-3,5,6,1,1,-2,-1,1
1523146803747078,-8,-17,-12,-5,-3,-4,-3,-3
1523146803747516,-1,-3,-9,-4,-1,0,0,1
1523146803747516,9,5,1,4,-1,-1,-1,1
1523146803762315,3,1,18,-3,-3,-3,-1,-2
1523146803762315,-5,-7,4,2,0,-1,0,-2
1523146803768330,16,-3,-1,-1,-2,1,0,1
1523146803768330,18,-1,-4,-4,-1,-2,-3,-2
1523146803783663,-10,5,2,-2,0,0,0,-4
1523146803783663,-2,-5,10,-3,-1,-2,0,2
1523146803791181,7,12,6,4,0,0,-2,0
1523146803791181,-3,-3,-9,-8,-2,1,1,1
1523146803806965,-2,0,-1,1,1,0,0,-1
1523146803806965,-2,-5,-8,0,-4,-2,-2,-3
1523146803807725,-7,-6,5,1,-2,-3,-4,-1
1523146803807725,-7,-1,0,-3,-4,-1,-2,0
1523146803822264,-4,-3,-3,3,1,-3,0,-1
1523146803822264,11,19,-16,-7,-1,0,0,2
1523146803828280,-5,-20,13,0,-2,0,0,1
1523146803828280,-2,1,7,1,1,-2,-4,0
1523146803843565,-2,3,0,-4,-4,-5,-1,0
1523146803843565,11,16,-27,-14,-6,3,1,-3
1523146803850841,0,-44,17,10,2,0,0,-1
1523146803850841,32,16,-21,-6,-4,-2,-2,1
1523146803866675,9,-1,-1,8,3,0,-1,-1
1523146803866675,-1,-7,7,1,1,-1,-1,1
1523146803867176,-7,15,-5,-5,4,2,-1,-5
1523146803867176,-4,-4,-4,-4,-6,-2,0,-2
1523146803882719,1,-4,-4,-6,-4,-1,-1,-2
1523146803882719,-13,-16,0,1,1,-3,-1,-2
1523146803888474,5,10,0,0,-1,-3,0,0
1523146803888474,-14,-2,14,15,8,2,3,0
1523146803903517,-4,-4,-35,-17,-6,2,-3,-2
1523146803903517,-13,-11,10,-8,-6,-1,-3,-3
1523146803911029,0,7,15,1,-2,0,1,0
1523146803911029,-6,-1,-15,-3,1,-4,-1,-3
1523146803926390,6,-1,20,7,0,-1,-1,1
1523146803926390,6,10,14,5,2,0,1,-1
1523146803933352,0,1,-8,-12,-7,-1,-1,1
1523146803933352,-8,-8,-8,3,1,2,1,0
1523146803942375,-7,-12,-11,-3,0,-4,-3,-5
1523146803942375,-1,-14,-8,8,6,3,1,0
1523146803948628,8,18,-1,5,-1,-1,-1,3
1523146803948628,-4,9,30,2,-2,0,-2,-2
1523146803963672,-4,-14,-9,-9,-6,-4,0,2
1523146803963672,-14,19,-5,3,-2,-1,-2,0
1523146803970952,-9,17,9,-7,-5,-2,-2,-4
1523146803970952,-2,-8,1,18,2,1,1,4
1523146803987497,37,9,-7,-6,-1,-4,-1,2
1523146803987497,-6,3,-1,2,1,-2,1,-1
1523146803994560,-57,27,35,-17,-8,-10,-7,-6
1523146803994560,2,-21,-41,1,2,4,3,1
1523146804003825,21,34,-4,23,2,-2,-1,1
1523146804003825,6,-11,-41,5,3,4,2,5
1523146804008379,25,-13,19,-4,0,1,3,-1
1523146804008379,-74,-32,-29,-16,-1,-3,-12,-20
1523146804023376,-8,34,-15,0,-8,-8,-1,8
1523146804023376,14,-22,0,8,3,1,-1,-7
1523146804031397,0,-20,-90,48,14,3,-4,5
1523146804031397,20,12,-18,-29,-3,2,8,0
1523146804045943,-31,1,83,-42,-23,-16,-10,-1
1523146804045943,-34,-6,-23,-12,-11,-2,-3,-9
1523146804053464,25,-14,7,41,8,2,2,5
1523146804053464,29,2,0,-8,0,-2,-8,-4
1523146804062480,-15,-51,-72,33,26,20,17,5
1523146804062480,-6,4,33,-5,-5,-4,-1,6
1523146804068497,6,-1,14,-16,-3,1,0,-2
1523146804068497,10,18,54,2,-7,-6,-5,0
1523146804085042,-14,7,38,-10,0,2,-3,-6
1523146804085042,0,-12,16,1,0,-2,-1,-1
1523146804091298,7,0,-35,-7,0,4,5,-1
1523146804091298,-8,3,13,2,-2,0,0,1
1523146804114364,-6,-16,-26,-5,-5,-3,-6,-8
1523146804114364,0,4,43,20,19,3,1,2
1523146804115315,-5,-2,-6,-21,-9,-4,-3,-4
1523146804115315,4,4,2,-2,-1,-4,-2,1
1523146804129162,3,-2,16,6,1,1,1,-2
1523146804129162,2,-2,-4,-14,-14,-10,-6,-6
1523146804129942,-8,3,27,-16,-9,-1,-2,-4
1523146804129942,-5,-17,-42,3,-4,-2,1,2
1523146804143479,8,1,-6,-3,3,2,0,-1
1523146804143479,-15,-10,1,2,-1,-2,-3,-3
1523146804150998,-2,-3,1,-4,3,0,3,1
1523146804150998,-2,0,7,4,-1,-1,0,1
1523146804166279,-1,1,20,5,1,-1,-2,-2
1523146804166279,4,-2,-27,-19,-9,0,-3,3
1523146804173558,-11,-2,15,2,4,-2,-2,-3
1523146804173558,0,8,15,3,1,0,-2,-5
1523146804189600,-8,-2,-1,0,0,0,0,0
1523146804189600,3,-1,1,2,0,1,2,0
1523146804190102,4,-3,-16,-3,-2,0,1,0
1523146804190102,-3,-1,-16,-13,-2,-2,-2,-1
1523146804203638,16,-2,8,-6,-10,-2,-2,0
1523146804203638,3,2,-22,0,1,1,0,0
1523146804211398,0,-4,-4,-5,-1,-5,-4,-3
1523146804211398,-2,-5,0,1,-3,-1,1,1
1523146804226220,-1,-5,8,5,3,1,0,-1
1523146804226220,-6,5,4,-3,0,-2,-3,-2
1523146804233498,-3,4,-1,0,1,1,-3,-6
1523146804233498,3,10,16,7,0,0,2,1
1523146804249283,5,-31,-14,-5,0,0,1,-2
1523146804249283,8,39,5,7,0,0,1,3
1523146804250044,0,-3,-3,-4,-2,-2,1,-1
1523146804250044,-3,-7,-20,-5,-7,0,1,0
1523146804263821,-23,-2,5,-1,0,-1,-1,0
1523146804263821,-15,-29,-2,-6,-4,-3,-4,-4
1523146804271342,12,6,-4,1,0,-2,-2,1
1523146804271342,0,10,18,2,6,2,3,2
1523146804286137,-1,3,-6,-3,-3,-2,-2,-1
1523146804286137,9,15,-11,-1,1,1,1,2
1523146804293657,-20,-43,-16,-3,-3,-4,-1,-1
1523146804293657,-6,-2,9,1,0,-2,-2,-4
1523146804309199,-2,14,-2,-1,0,0,-1,-1
1523146804309199,-2,1,5,2,0,1,1,-1
1523146804309700,-4,4,3,-4,-1,0,-3,-1
1523146804309700,-9,-2,-4,-3,-1,-2,-2,-1
1523146804323525,-1,-5,-1,5,1,-1,-2,-1
1523146804323525,3,-11,2,-3,-4,-2,0,-1
1523146804331046,-1,1,-5,-4,-5,0,0,-1
1523146804331046,-2,-13,-1,-1,-3,-1,-3,-2
1523146804346121,-14,1,-4,-12,-2,-6,-3,-5
1523146804346121,-1,-12,6,3,-2,0,0,-3
1523146804353643,5,7,-6,-6,0,-1,0,2
1523146804353643,-3,8,25,12,0,-1,-3,-2
1523146804369183,5,0,-7,0,-4,0,0,1
1523146804369183,5,2,2,-3,-1,1,0,-1
1523146804369944,3,5,-11,4,3,2,1,0
1523146804369944,2,-10,7,-9,-7,-6,1,-1
1523146804392001,2,-3,-25,-4,-2,0,-2,4
1523146804392001,-1,-3,20,3,-2,-1,-2,-1
1523146804392504,6,12,3,10,0,0,-1,0
1523146804392504,8,6,8,2,4,-2,0,1
1523146804406276,-2,-1,-18,1,-2,-1,2,-1
1523146804406276,-8,-2,0,-4,-3,-3,-2,0
1523146804413794,-5,-7,-13,-31,-4,-2,-1,-4
1523146804413794,-4,-4,-5,13,3,2,0,0
1523146804429337,-2,5,13,0,1,0,-1,-4
1523146804429337,9,1,-3,-4,-3,-2,-3,1
1523146804430325,2,1,2,-7,-5,-2,-2,-1
1523146804430325,2,0,-13,-3,0,1,0,-2
1523146804443853,5,11,10,1,0,1,-2,-1
1523146804443853,-9,-18,-37,4,-1,-1,0,-3
1523146804451160,-3,2,11,8,0,-2,-2,-1
1523146804451160,15,5,-6,-4,-2,-1,0,0
1523146804466377,-27,1,18,-4,1,1,-1,-7
1523146804466377,11,2,4,-1,3,-1,-1,1
1523146804474323,-2,-5,-5,6,1,2,2,-2
1523146804474323,3,6,5,-8,-4,0,-2,3
1523146804505044,2,-3,11,-5,-4,-7,-2,1
1523146804505044,-29,13,-22,10,-1,-2,-4,1
1523146804505805,-4,-75,-10,7,4,6,10,-1
1523146804505805,0,0,0,-9,-3,-5,-4,-5
1523146804511385,-11,-10,44,23,1,-2,-1,-6
1523146804511385,3,25,-16,-50,-9,-2,4,2
1523146804519341,14,58,78,8,-1,1,0,7
1523146804519341,-9,29,-7,-1,-3,-4,-2,1
1523146804534381,39,70,43,-6,-2,-1,3,11
1523146804534381,36,40,7,4,-5,-11,-23,-24
1523146804534884,-32,-51,15,-7,7,12,8,-2
1523146804534884,-10,-32,-41,11,14,19,15,19
1523146804557685,-9,6,18,17,-5,-3,-8,-1
1523146804557685,-10,-55,-14,-31,-6,-3,1,16
1523146804558444,30,83,-38,5,2,-1,1,1
1523146804558444,-8,-18,16,5,-3,-7,-10,-10
1523146804570979,0,-51,-34,-3,4,5,3,2
1523146804570979,-6,-11,20,12,5,3,6,2
1523146804579241,0,-11,-21,-7,-8,-8,-7,-3
1523146804579241,-4,-8,-3,-9,-5,-4,-2,0
1523146804594540,-2,10,15,11,11,0,-3,-5
1523146804594540,-11,-17,-59,-12,-23,-3,2,-6
1523146804595046,-7,25,10,2,0,-4,-7,-1
1523146804595046,5,5,9,0,-1,-5,-2,-7
1523146804617101,19,-4,-14,-10,-1,5,5,3
1523146804617101,-19,4,25,10,5,3,1,-4
1523146804618105,-6,-21,-11,0,-2,2,0,-3
1523146804618105,14,-2,-8,-2,-4,-3,1,0
1523146804631386,2,-5,-12,-21,-10,-8,-5,-2
1523146804631386,21,-2,28,18,10,4,5,6
1523146804639160,-4,-2,-29,-4,-7,-8,-3,3
1523146804639160,-2,8,15,2,3,0,-1,-4
1523146804654200,-7,2,-14,-6,-4,-4,-3,-3
1523146804654200,3,-2,14,10,3,0,1,0
1523146804654701,-6,-7,1,-9,-7,-4,-3,-3
1523146804654701,1,3,-2,-2,-3,1,-1,-2
1523146804677661,10,-7,-17,1,-1,0,-2,-1
1523146804677661,-4,-3,-9,-6,2,0,-3,0
1523146804678051,4,-3,14,9,6,1,0,0
1523146804678051,-5,-3,-6,-3,0,0,1,0
1523146804690904,4,-10,-19,1,-2,1,1,2
1523146804690904,-8,5,-7,0,6,1,0,-5
1523146804699582,1,-13,19,-2,-6,-5,-7,0
1523146804699582,-2,-9,-9,-5,-4,-1,-2,-1
1523146804714538,-7,-2,-8,-2,1,-1,0,-3
1523146804714538,0,2,10,4,4,0,-1,-2
1523146804714934,-18,-12,-26,1,-2,-2,0,1
1523146804714934,0,5,3,7,4,0,0,-2
1523146804737483,-4,-4,5,-1,0,-1,-1,0
1523146804737483,4,-8,-1,-4,1,-3,-1,-2
1523146804737773,3,2,-6,-5,-3,-3,-4,-2
1523146804737773,-2,3,9,-4,0,2,0,-2
1523146804750808,-2,5,-1,-3,-2,-2,-1,-1
1523146804750808,1,0,-3,3,-4,-3,-1,2
1523146804759331,-2,-2,-1,-4,1,-2,-1,-1
1523146804759331,12,13,11,7,-1,0,-1,1
1523146804774473,-11,-4,-26,-6,-2,-2,-1,-4
1523146804774473,-5,-7,5,4,-3,-2,-1,-1
1523146804774873,16,7,-2,-14,-2,-1,0,-1
1523146804774873,2,-5,-15,-5,-1,-3,-1,-3
1523146804797432,-15,-2,-7,1,-1,2,2,-1
1523146804797432,-4,-27,12,0,0,1,2,2
1523146804798462,11,27,-3,4,-3,-1,0,-3
1523146804798462,-5,15,3,-6,-3,-3,-4,0
1523146804819992,2,-60,-2,-3,-5,-1,-4,0
1523146804819992,-2,10,-5,4,-1,-1,-1,-2
1523146804820995,-6,-25,17,-5,-2,-2,-2,-3
1523146804820995,-2,-7,-16,0,-1,-3,-2,-3
1523146804834030,-2,13,-6,-6,-1,-4,-2,-3
1523146804834030,-1,2,-6,0,2,0,-2,0
1523146804835236,-7,-6,31,-7,0,4,1,-1
1523146804835236,1,16,5,-8,-2,-4,-3,1
1523146804857728,-4,-4,18,7,3,-1,-2,1
1523146804857728,2,3,-9,-3,2,-3,-2,-1
1523146804858093,10,9,-8,5,2,0,3,1
1523146804858093,30,2,14,9,-1,-1,0,0
1523146804880151,-16,20,0,6,1,-1,-1,3
1523146804880151,-2,-10,11,2,1,2,0,-1
1523146804880655,-19,-6,-20,7,0,0,-2,1
1523146804880655,12,-12,28,-9,-3,-1,0,-2
1523146804893687,-3,10,35,11,0,0,0,1
1523146804893687,-9,3,-34,-5,-3,-1,-2,0
1523146804902713,-12,-2,-10,7,4,1,0,-1
1523146804902713,-15,-13,-1,-1,-3,0,0,-1
1523146804917752,6,3,-13,-17,-7,-3,-2,-4
1523146804917752,-5,-3,2,5,-2,-3,-5,-1
1523146804919757,3,-3,0,2,-4,-2,-1,-1
1523146804919757,-17,-11,-24,3,3,1,1,-3
1523146804947595,8,1,-15,-7,-2,0,0,-1
1523146804947595,5,12,15,-1,-5,-3,-2,-4
1523146804948096,4,5,-3,-5,-2,0,-2,0
1523146804948096,-6,1,-52,-14,-4,-4,-4,-3
1523146804953806,10,-11,-17,9,0,-1,-1,1
1523146804953806,8,-2,8,-5,-1,1,2,-3
1523146804962573,-1,-60,0,-6,4,4,1,2
1523146804962573,-69,-47,18,-7,-5,-7,-4,-13
1523146804977613,19,60,10,0,6,2,-6,11
1523146804977613,8,-9,-24,-12,4,13,9,-15
1523146804979288,-16,6,-25,16,3,-4,-10,-29
1523146804979288,14,-29,-30,28,16,14,17,5
1523146804999671,-9,-8,-18,7,-7,-11,-8,-15
1523146804999671,-12,18,33,-16,-6,-4,1,9
1523146805001677,-1,0,41,-19,-11,-6,-5,-11
1523146805001677,-2,-11,-20,15,6,2,1,17
1523146805013866,-12,-23,-28,-20,-5,-4,-1,-7
1523146805013866,-8,12,-39,22,4,3,2,0
1523146805022482,-9,-24,-16,4,-5,-4,2,5
1523146805022482,18,24,25,-40,-11,-9,-9,-8
1523146805037688,1,16,-8,5,4,6,5,16
1523146805037688,-49,-1,32,-3,-10,-9,-15,-8
1523146805039025,19,24,2,-12,0,3,3,11
1523146805039025,-42,-76,-9,8,-2,0,-2,-17
1523146805059818,-6,13,43,-7,-2,1,0,-7
1523146805059818,22,12,4,-4,-2,-2,1,0
1523146805061584,5,6,-37,19,6,3,3,8
1523146805061584,5,42,10,-1,-8,-6,-7,-9
1523146805073617,12,26,-5,1,0,2,4,11
1523146805073617,4,-41,-18,10,0,0,1,3
1523146805082639,1,32,5,-6,-3,-2,2,17
1523146805082639,5,18,25,-2,-3,1,0,8
1523146805097415,-8,-12,-5,2,2,1,-3,-10
1523146805097415,14,12,6,-4,2,1,2,4
1523146805099353,-5,5,42,4,-1,-1,-4,-6
1523146805099353,10,17,-4,-7,1,1,-2,-2
1523146805120241,2,-19,-39,-12,-14,-1,2,4
1523146805120241,8,1,4,1,0,-10,-9,-7
1523146805121242,-2,-8,-3,-3,-3,1,1,-2
1523146805121242,2,3,-2,-2,-3,-2,-1,6
1523146805133276,-5,-23,14,9,7,-2,-2,-6
1523146805133276,0,-3,9,-1,2,-2,2,6
1523146805142300,-6,8,-14,-4,-4,-5,-7,-8
1523146805142300,8,10,4,6,-2,0,5,3
1523146805157449,-1,-6,-2,-2,-1,-1,-1,-4
1523146805157449,3,2,-20,9,1,0,-1,1
1523146805159384,2,2,5,5,0,-1,-3,1
1523146805159384,1,3,3,3,2,-1,-3,-2
1523146805179899,0,-7,14,-2,-2,-1,-1,0
1523146805179899,-1,-1,1,0,-4,-3,-3,0
1523146805181404,-3,-2,-9,0,0,-1,-3,-3
1523146805181404,8,4,-1,-7,-2,1,-1,0
1523146805193678,-3,-4,4,5,1,2,1,-2
1523146805193678,-12,-8,3,-1,-1,0,0,-1
1523146805202460,-5,-10,-36,2,1,0,1,-3
1523146805202460,-25,-2,8,2,-1,-4,-2,-2
1523146805225235,10,-10,1,-12,-3,-1,2,-1
1523146805225235,-7,-4,0,-6,-2,1,-2,-2
1523146805226524,7,23,24,2,-1,-2,1,1
1523146805226524,-4,-28,-54,2,-1,0,0,-1
1523146805239559,-4,12,9,11,5,2,2,-3
1523146805239559,2,-4,23,3,3,-2,-4,0
1523146805241563,0,-4,-18,-3,-6,-2,-1,-2
1523146805241563,8,4,0,-6,-4,-2,-1,-1
1523146805253595,10,26,17,-5,-5,-3,-2,0
1523146805253595,9,11,-12,-1,-2,-1,-1,0
1523146805262619,-35,-10,12,-2,1,-2,-1,-3
1523146805262619,8,12,7,-2,-2,-2,-2,-2
1523146805277729,-7,-22,-4,-2,2,2,1,-2
1523146805277729,-34,6,-8,-4,-3,0,1,-3
1523146805279335,41,15,1,-7,-3,-1,1,2
1523146805279335,-4,0,-3,-3,-1,1,-2,2
1523146805299720,-9,-14,-21,4,0,0,-3,-2
1523146805299720,3,7,14,3,-6,0,-1,0
1523146805301791,-11,-20,-52,30,5,2,2,0
1523146805301791,3,5,17,4,2,0,0,1
1523146805313868,-10,-24,-19,-9,-9,-2,-5,-5
1523146805313868,12,14,5,-6,-1,-1,-1,0
1523146805322278,0,4,45,2,-1,-1,0,-1
1523146805322278,-27,-13,2,4,0,-2,-1,-2
1523146805337560,-19,-5,10,9,5,-5,-4,-2
1523146805337560,7,-4,-10,-11,-7,-2,0,-1
1523146805338823,-5,1,29,-27,-12,-4,-6,-1
1523146805338823,14,8,-28,-13,-1,1,0,1
1523146805359912,18,10,35,1,-4,-3,1,1
1523146805359912,2,-10,0,14,7,2,1,0
1523146805361383,-9,11,40,-27,-9,-2,-4,-4
1523146805361383,18,35,93,-21,-6,-4,-3,3
1523146805373915,-3,-8,-29,18,1,1,-2,1
1523146805373915,-1,3,22,-8,-3,-4,-2,-3
1523146805382438,7,-25,50,40,3,1,-1,-4
1523146805382438,-4,7,-4,-6,2,0,-2,1
1523146805397718,1,1,-1,-12,-2,-2,-2,-2
1523146805397718,2,-3,13,-1,-5,-3,-1,1
1523146805399033,-11,-7,-36,1,3,3,2,2
1523146805399033,-7,-11,-16,12,-3,-5,-2,-3
1523146805419588,6,1,-1,-2,0,-2,-2,2
1523146805419588,-5,-4,-41,-10,-4,2,1,-1
1523146805421653,1,-3,-16,-19,-2,-4,-1,-1
1523146805421653,2,-4,-20,0,1,0,0,1
1523146805433687,1,-1,-40,1,5,2,2,2
1523146805433687,-3,-1,24,-3,-5,-1,0,-3
1523146805442710,20,28,-53,-13,-6,-6,-2,2
1523146805442710,-40,-47,-34,5,-1,3,1,-5
1523146805457491,6,38,-18,-4,-1,-5,-5,-4
1523146805457491,-20,-32,-8,3,-2,-7,-2,0
1523146805459383,48,53,5,-4,0,0,-3,6
1523146805459383,7,-56,5,9,-9,-8,-13,-18
1523146805480048,1,8,55,-14,1,9,5,-19
1523146805480048,2,-3,-26,-20,-6,-8,0,48
1523146805481850,-26,-35,5,5,5,7,10,-11
1523146805481850,-34,16,14,-23,-13,-7,0,6
1523146805502345,8,-1,14,5,-4,-2,-4,-18
1523146805502345,-11,-51,-16,14,13,12,7,-17
1523146805504107,-48,-16,-18,-5,0,-9,-18,-2
1523146805504107,8,14,16,-7,-3,0,8,8
1523146805516640,-33,-27,-4,-5,1,3,1,-3
1523146805516640,39,42,-39,4,12,12,12,13
1523146805523657,32,24,-17,9,-7,-19,-18,-24
1523146805523657,7,74,56,5,1,1,-9,-20
1523146805539995,-3,-4,-37,-4,-2,-3,2,14
1523146805539995,-26,-32,10,-4,-3,-5,-8,-13
1523146805541804,25,0,28,-7,-7,0,4,14
1523146805541804,27,33,-18,3,-3,-5,-4,9
1523146805553879,8,-9,2,5,-3,-1,0,3
1523146805553879,-1,25,50,-8,-10,-6,-5,-14
1523146805562310,-26,-32,-7,3,1,2,-1,0
1523146805562310,-13,-22,7,7,10,2,6,0
1523146805576810,-4,1,-18,-11,-10,2,3,7
1523146805576810,6,-11,16,12,3,-2,-2,-6
1523146805583651,-12,17,17,-17,-3,-2,1,0
1523146805583651,22,9,10,8,6,6,5,6
1523146805599738,6,0,4,2,-3,-1,-5,-4
1523146805599738,10,23,9,-1,-6,-6,-5,-2
1523146805601242,-4,-12,-12,5,6,6,8,5
1523146805601242,-2,-13,-25,2,-7,-3,-2,-6
1523146805613790,-2,-6,18,11,3,-4,-1,4
1523146805613790,-7,-3,-11,-8,-6,-2,-5,-4
1523146805622299,-5,-10,-16,0,5,1,0,-2
1523146805622299,7,-9,-5,2,2,1,1,2
1523146805636777,-3,-4,-9,-7,-7,-9,-8,-1
1523146805636777,8,12,-10,-4,-2,7,2,-4
1523146805643796,-1,-1,1,-6,0,1,7,2
1523146805643796,6,4,7,-4,0,2,-1,2
1523146805659878,0,-8,-38,-19,-6,-2,-1,1
1523146805659878,12,10,9,-1,-1,-3,-3,-5
1523146805661382,-17,10,14,10,3,3,0,3
1523146805661382,15,-6,-4,-8,-4,-1,3,2
1523146805673649,6,-2,-17,3,0,-4,-4,1
1523146805673649,2,-1,2,-8,-2,-1,-2,0
1523146805682660,-12,-14,-14,-9,-7,1,-4,-6
1523146805682660,1,-1,-30,6,3,-2,0,1
1523146805696894,-2,-1,11,-3,1,2,1,1
1523146805696894,3,6,-4,-3,-2,-4,-2,2
1523146805703594,6,-14,0,11,1,-2,0,0
1523146805703594,-7,-4,-31,-14,-6,-2,-4,-4
1523146805720143,2,1,17,-1,-5,-1,-3,-4
1523146805720143,-9,-10,-10,2,2,-1,2,-2
1523146805721446,0,1,4,-6,-4,-2,-3,-4
1523146805721446,-9,-10,-21,9,6,0,1,0
1523146805742415,24,19,46,-4,-4,-2,0,3
1523146805742415,20,16,-26,-10,-1,-3,0,2
1523146805744271,-1,2,11,7,2,4,0,-1
1523146805744271,-2,0,3,1,2,2,1,1
1523146805756954,-11,-9,11,-2,-5,-4,-3,-6
1523146805756954,-13,-3,1,18,-1,-4,-2,3
1523146805763275,2,1,-3,1,0,0,-2,-2
1523146805763275,5,-6,-12,-8,-2,-3,-2,-1
1523146805779819,19,20,-6,2,2,3,4,6
1523146805779819,0,-6,16,7,4,0,-1,-14
1523146805781825,5,-10,-21,4,3,-2,-1,5
1523146805781825,-27,8,22,-11,-9,-5,-5,-5
1523146805802379,-11,18,-1,3,5,2,1,-4
1523146805802379,-6,1,51,-3,-1,-2,-2,-3
1523146805803883,1,2,24,11,0,0,-1,2
1523146805803883,1,5,6,4,2,-2,-3,-1
1523146805816638,9,-5,-3,0,6,2,1,3
1523146805816638,11,-2,-12,-8,-5,0,-1,0
1523146805823816,-7,-5,0,-3,-2,-1,3,-3
1523146805823816,6,-8,3,1,-3,0,-2,4
1523146805840200,1,23,12,23,7,1,-1,-3
1523146805840200,1,-1,-16,5,0,0,0,2
1523146805841819,6,3,-34,-28,-9,-2,0,-2
1523146805841819,3,-3,-8,-5,-2,-1,0,-4
1523146805862457,-10,-8,-1,-5,-2,-3,-1,1
1523146805862457,-7,-3,-18,-12,-3,-1,-1,-3
1523146805864263,-1,0,3,1,-3,-4,-2,-1
1523146805864263,3,1,1,5,4,2,1,1
1523146805876216,-12,-9,-8,-10,-5,-3,-3,0
1523146805876216,-34,-17,-14,-1,1,0,-2,-6
1523146805885046,6,14,5,8,3,1,1,1
1523146805885046,-1,8,14,1,-3,-1,-2,-2
1523146805899634,-9,-14,-4,-5,-3,-2,-2,-2
1523146805899634,2,0,33,1,-5,-2,-3,5
1523146805901668,-4,-1,-3,-3,-3,-2,-3,-6
1523146805901668,-11,-7,8,10,3,0,-1,-4
1523146805922191,-4,-51,-4,-5,-4,-7,-7,-5
1523146805922191,4,16,6,4,2,1,0,4
1523146805924241,4,-7,-21,-3,0,-1,1,1
1523146805924241,4,-3,-2,-5,-5,-3,-4,-1
1523146805936966,-4,-2,3,1,0,0,0,1
1523146805936966,-4,-2,-6,-2,-2,-1,-1,-4
1523146805943751,-8,-6,35,-11,-4,-5,-1,0
1523146805943751,11,4,-36,3,0,4,1,2
1523146805959791,6,9,-9,-4,0,1,1,1
1523146805959791,6,-6,-13,-10,-3,-3,-2,2
1523146805961872,-13,12,7,5,-5,-3,-4,-8
1523146805961872,22,-20,-21,9,7,4,2,-2
1523146805982131,-19,-62,-4,-2,-1,-1,2,7
1523146805982131,0,17,6,-14,-11,-7,-4,1
1523146805984135,3,24,10,-1,-4,-6,-4,-5
1523146805984135,-23,-60,1,-4,4,7,4,-8
1523146805996075,-4,5,-8,4,-2,-2,2,6
1523146805996075,-10,-51,-3,-1,-4,-7,-5,8
1523146806004903,-8,-15,-26,-6,-6,-11,-12,0
1523146806004903,-10,17,32,2,-1,0,-3,-9
1523146806019639,16,-1,12,-2,4,7,3,-38
1523146806019639,7,15,-39,5,3,0,1,30
1523146806026246,25,-6,1,10,7,3,4,4
1523146806026246,-29,-55,-18,9,-2,-12,-4,4
1523146806042638,20,46,-11,-10,3,9,-2,-18
1523146806042638,34,26,-12,17,4,2,0,4
1523146806044098,32,-15,-2,-9,-4,0,0,-5
1523146806044098,-42,1,12,-46,-9,-9,-4,-19
1523146806056327,23,-39,-16,10,-5,-7,-1,46
1523146806056327,21,19,7,3,2,5,-1,-18
1523146806065153,11,1,-19,-20,3,4,3,16
1523146806065153,13,-13,15,10,2,4,5,20
1523146806079824,-32,53,-1,-10,-5,-4,-9,-10
1523146806079824,-17,-17,17,11,2,-1,0,-8
1523146806081789,-15,0,-1,9,3,2,2,-3
1523146806081789,16,23,-34,10,6,4,0,1
1523146806102449,-14,-15,5,-1,-2,1,2,4
1523146806102449,-4,-7,-15,-1,6,6,5,1
1523146806103757,-11,8,31,12,-3,-3,-6,-11
1523146806103757,4,20,23,7,9,-3,-4,-3
1523146806115791,-1,6,-24,5,-6,-5,-2,1
1523146806115791,0,-9,-14,-18,-3,-4,-5,-17
1523146806124813,-6,-5,-4,3,4,4,2,8
1523146806124813,20,29,8,0,-3,0,3,4
1523146806139853,-14,-5,-33,-8,-5,-3,-4,-7
1523146806139853,-6,-10,-3,7,3,-1,-1,0
1523146806141356,-9,-6,-7,-3,-3,-2,-1,-1
1523146806141356,2,7,-20,0,-3,-4,-7,-1
1523146806162609,1,6,20,0,4,-2,-3,-4
1523146806162609,-19,-7,3,4,-1,2,1,-4
1523146806163917,-1,7,9,-4,-3,-2,-2,-2
1523146806163917,1,6,6,-1,-1,2,0,-3
1523146806175948,-5,-3,8,-7,-5,-6,-2,0
1523146806175948,-2,3,5,4,-4,-6,-2,-3
1523146806184974,-6,0,-6,2,5,3,2,-1
1523146806184974,6,12,7,1,-3,-1,-1,3
1523146806200012,5,-7,6,-12,-1,0,-3,-3
1523146806200012,-4,1,-2,-18,-4,-3,-3,-5
1523146806201518,17,-5,13,-2,2,6,6,1
1523146806201518,-33,-3,24,-9,-4,-3,-3,-2
1523146806222769,0,11,-6,12,5,4,2,4
1523146806222769,-14,-19,-15,-5,1,2,3,-2
1523146806228785,26,29,15,-5,2,-1,2,5
1523146806228785,14,10,14,0,2,-1,0,-1
1523146806236109,-6,-3,-1,-12,-7,-3,-3,-4
1523146806236109,-5,-6,11,0,-3,0,1,-1
1523146806245132,-18,21,-17,0,-1,-2,0,1
1523146806245132,11,10,-10,8,0,-1,0,5
1523146806259835,27,12,17,4,-2,0,0,1
1523146806259835,-1,-5,-8,4,-2,-1,1,2
1523146806261794,-18,-10,8,-3,-4,-5,-3,1
1523146806261794,14,3,-22,-6,-2,0,3,2
1523146806282231,-18,-48,4,-2,1,-1,1,2
1523146806282231,13,18,5,-5,-2,0,0,5
1523146806283737,15,6,12,-4,-5,-5,-4,-1
1523146806283737,-10,-3,-9,-28,-11,-6,-4,-4
1523146806304791,-1,-7,4,19,0,-3,2,4
1523146806304791,-5,-8,-18,-1,-3,-1,-3,-1
1523146806306296,-11,-15,-19,-5,-4,-3,-3,-5
1523146806306296,9,10,-2,4,-1,0,0,1
1523146806319836,-7,9,-15,-5,-1,-2,0,-2
1523146806319836,18,3,24,8,-2,-3,-4,-3
1523146806321840,-29,-14,-9,-2,-3,1,2,-2
1523146806321840,4,-22,-4,-1,-3,-2,-2,1
1523146806342585,1,48,17,-7,-3,-5,-3,-1
1523146806342585,-2,-4,6,4,0,-3,-1,1
1523146806343896,-5,-5,8,20,13,0,0,-2
1523146806343896,2,-7,30,-21,-12,-2,0,0
1523146806355940,5,-8,-42,6,4,2,1,1
1523146806355940,-13,3,-17,-8,-3,-4,-3,-4
1523146806364951,4,7,15,7,3,-1,0,0
1523146806364951,-9,5,16,13,5,0,-3,-4
1523146806379991,7,4,5,-5,-3,1,0,-1
1523146806379991,-10,-1,-5,-6,-3,0,-1,-2
1523146806381497,0,-18,-22,-3,-4,0,-1,0
1523146806381497,0,-1,-2,8,4,0,0,2
1523146806402695,-12,-4,10,-4,0,-1,-2,-3
1523146806402695,-2,-5,-5,2,0,-1,-1,-1
1523146806404056,16,-1,-1,-12,-4,-1,-2,-3
1523146806404056,-3,11,-5,6,1,0,0,-1
1523146806416088,21,17,28,4,-1,-2,-1,-2
1523146806416088,-10,8,4,-2,-3,-5,-2,0
1523146806425112,1,-3,9,-5,-4,-2,-2,-4
1523146806425112,5,-6,-26,0,1,0,0,-1
1523146806439846,-6,-2,7,7,3,-1,1,0
1523146806439846,3,3,7,-1,-2,-1,0,1
1523146806441815,4,2,-9,-13,-2,-1,-1,2
1523146806441815,-8,-40,-62,5,0,-2,-5,0
1523146806462408,-11,8,14,-5,-2,-1,0,-2
1523146806462408,-1,-13,-7,4,1,-1,0,0
1523146806464341,-16,-13,-14,-5,1,1,-1,-2
1523146806464341,-10,7,-2,-4,1,1,-1,-6
1523146806476247,8,-7,-16,-2,-1,4,6,10
1523146806476247,-1,-3,3,-3,-4,-4,-4,-3
1523146806484772,-14,5,11,-14,-8,-4,-5,-2
1523146806484772,35,38,65,-21,-5,-2,0,2
1523146806499310,-15,-48,-18,11,-3,-4,-7,-4
1523146806499310,-13,-16,19,-5,1,2,5,0
1523146806506327,-8,-12,-7,-6,-1,-3,-4,-8
1523146806506327,-17,-6,-2,7,4,-3,1,4
1523146806522369,56,48,2,-14,-23,-2,-4,-1
1523146806522369,3,7,12,-5,1,1,3,-3
1523146806523874,17,-20,-30,16,5,0,-4,3
1523146806523874,-21,0,-9,16,-3,-1,0,5
1523146806536103,1,35,-4,-4,3,-4,-5,-14
1523146806536103,31,-38,-31,11,-5,-4,2,24
1523146806544930,14,62,47,-20,-10,1,2,-12
1523146806544930,-2,16,4,-17,-2,0,2,1
1523146806559542,-32,-26,-14,-1,3,-2,-6,-10
1523146806559542,1,5,14,-11,-3,1,0,8
1523146806565987,-35,-2,-17,14,7,2,3,3
1523146806565987,15,-19,-18,6,0,-2,-3,-3
1523146806582531,-6,-12,9,5,5,0,3,7
1523146806582531,-31,-8,-7,-4,3,-1,-5,-12
1523146806584038,-7,-3,-18,3,-3,-1,1,-2
1523146806584038,66,20,18,4,5,5,6,21
1523146806596267,-65,-77,-1,4,4,4,4,-2
1523146806596267,-33,18,-20,-10,-7,-4,-17,-35
1523146806611319,22,-2,-18,-1,-2,-2,-4,8
1523146806611319,2,-8,2,12,3,-2,-6,-8
1523146806619393,30,10,-4,-15,-5,-4,1,14
1523146806619393,11,14,16,-3,5,4,4,12
1523146806626284,-16,-6,40,12,5,2,-1,-5
1523146806626284,-12,-23,-65,-21,-11,-3,-4,-4
1523146806642258,-6,15,11,10,5,1,0,4
1523146806642258,-9,4,18,-16,-11,-4,-2,-9
1523146806644324,-1,-19,-17,19,9,2,-2,-3
1523146806644324,-14,8,23,1,1,-2,2,1
1523146806656314,-3,9,4,12,9,0,-1,-6
1523146806656314,14,1,-13,-7,-6,-1,1,-1
1523146806664818,10,-5,-7,-2,-4,-6,-1,5
1523146806664818,-13,-3,37,4,-3,3,-1,-4
1523146806679501,-5,-2,4,-4,5,-1,-1,-5
1523146806679501,34,13,-7,7,7,3,2,5
1523146806686071,-8,2,-9,-3,-16,-5,1,4
1523146806686071,-14,-7,7,-7,1,-4,-2,-11
1523146806702619,6,7,10,-2,2,-1,-2,-1
1523146806702619,23,-13,11,10,10,1,1,7
1523146806703923,-5,22,-2,-6,-2,1,-1,-3
1523146806703923,-1,10,3,-13,-7,-2,0,-4
1523146806724980,-1,-11,-16,4,1,3,1,-2
1523146806724980,-17,1,-10,-2,5,-1,-1,1
1523146806726483,-10,-17,-17,-24,-13,-3,-3,-4
1523146806726483,-8,4,-1,11,12,0,-2,-2
1523146806739515,3,5,9,-8,-10,-3,0,1
1523146806739515,-19,-2,3,-2,-4,-2,-3,-7
1523146806753554,5,-11,-19,2,1,-3,-3,-1
1523146806753554,-8,-5,-26,-4,-6,-1,1,-1
1523146806762683,-6,0,-3,-11,-6,-3,-4,-1
1523146806762683,33,6,-24,8,-1,-3,-5,-1
1523146806764082,28,2,4,1,4,4,1,2
1523146806764082,9,-5,6,2,-1,-2,-3,-3
1523146806785217,0,-4,-1,-4,-5,1,-2,-1
1523146806785217,6,10,6,-7,-1,1,2,-2
1523146806786643,-17,-25,-13,14,6,0,0,0
1523146806786643,-7,-5,-12,2,-4,1,0,-1
1523146806799175,21,39,13,5,0,0,-1,-4
1523146806799175,-5,-10,13,-5,-1,-1,-1,1
1523146806806337,-11,-10,-14,-3,5,0,1,0
1523146806806337,34,-3,-3,2,-2,-1,-2,-1
1523146806822238,-11,-14,-14,-6,-3,1,2,-2
1523146806822238,18,8,4,5,0,0,0,-1
1523146806824268,4,11,29,7,4,-1,-2,-2
1523146806824268,7,-9,-16,-12,-7,-1,-3,1
1523146806844993,0,-10,-71,-10,1,-1,-1,2
1523146806844993,-39,1,-7,-1,-1,-3,-1,-2
1523146806846801,2,0,24,3,-1,-3,0,-2
1523146806846801,-7,9,10,9,6,0,-2,-3
1523146806858534,-1,-12,5,-2,-2,-2,1,2
1523146806858534,-12,-3,-8,-3,-2,0,-3,-2
1523146806867357,-12,-7,-8,-4,-3,1,2,1
1523146806867357,-23,1,-4,2,0,1,1,0
1523146806882400,-15,-21,-9,-1,-1,0,-2,-3
1523146806882400,11,3,1,4,-2,-1,0,1
1523146806884200,-7,4,11,-7,-5,-2,-2,-4
1523146806884200,0,-3,-11,-2,0,-2,-1,0
1523146806904757,5,-3,21,1,1,-2,-2,-2
1523146806904757,5,21,3,0,0,0,3,2
1523146806906829,-11,-9,-21,-11,-6,-5,-3,1
1523146806906829,-3,2,-3,0,-2,1,1,-1
1523146806919494,2,-2,4,-6,-1,-3,-1,1
1523146806919494,9,-1,0,5,-1,-1,-1,-5
1523146806926010,11,22,-7,-2,0,0,0,5
1523146806926010,-23,-7,2,-6,-2,-1,-2,-5
1523146806942516,-12,-3,-8,8,-1,0,-1,-5
1523146806942516,-6,-13,-11,-11,-7,-4,-2,-1
1523146806943862,15,1,-28,-5,-4,-1,-2,1
1523146806943862,-15,7,7,2,-1,-2,2,-1
1523146806964616,-14,-20,-20,5,-2,1,-1,-2
1523146806964616,-8,4,19,3,-2,-3,-2,-3
1523146806966646,-2,-1,4,-12,-6,-5,-4,-6
1523146806966646,12,-5,-6,0,-4,-2,-3,-2
1523146806979275,-15,18,19,-15,-5,-4,-2,-6
1523146806979275,-26,-12,-8,1,0,-2,-1,-2
1523146806986240,6,-20,8,-4,2,2,2,4
1523146806986240,8,19,-10,3,3,3,2,0
1523146807002338,4,49,23,-10,-5,-7,-3,7
1523146807002338,15,-10,15,2,3,6,1,-3
1523146807003719,-4,-10,3,-3,-7,-10,-6,-4
1523146807003719,5,-25,-52,19,12,9,7,-8
1523146807024896,-15,16,23,3,-1,-2,2,15
1523146807024896,-5,3,-26,-15,-11,-12,-6,-18
1523146807026781,-39,-18,1,6,8,9,4,-17
1523146807026781,-27,-9,24,-11,-2,0,3,10
1523146807038432,-13,-33,-1,1,-2,-7,-14,-36
1523146807038432,14,38,42,-5,-1,0,5,19
1523146807047335,17,-5,-22,-7,-4,-5,-7,34
1523146807047335,1,29,20,13,1,1,9,-8
1523146807062503,9,21,-23,25,9,9,6,-3
1523146807062503,-55,-72,-71,10,6,3,1,0
1523146807063880,16,13,54,9,-5,-5,-3,1
1523146807063880,-5,-20,-1,-45,-8,-5,-9,-3
1523146807085057,0,-29,34,15,0,-2,-5,6
1523146807085057,-31,-3,12,-2,4,3,8,1
1523146807086439,13,-17,-6,-2,-6,-5,-9,-14
1523146807086439,14,41,-38,13,1,0,1,-3
1523146807098472,22,-28,19,20,0,-2,1,0
1523146807098472,15,3,24,0,-4,-5,-5,1
1523146807107496,-30,-5,-20,-9,-1,-3,1,-14
1523146807107496,-1,27,80,13,4,-2,-8,1
1523146807122536,9,14,-7,-21,5,10,11,9
1523146807122536,1,9,25,8,-1,-2,-5,-2
1523146807124040,6,26,3,-5,-8,-5,-4,-7
1523146807124040,-3,-25,7,0,2,-1,-1,-6
1523146807146250,16,1,-33,-6,-5,-4,-5,8
1523146807146250,17,11,15,-7,2,-1,0,4
1523146807149259,-13,-6,-17,12,7,4,3,-6
1523146807149259,-3,-29,-49,-5,-7,-4,-1,1
1523146807151765,-3,14,9,-10,-4,0,0,-1
1523146807151765,2,12,8,2,-3,-2,-5,-3
1523146807166828,13,11,21,20,11,5,4,1
1523146807166828,-5,-4,-9,-2,-6,-5,-5,-1
1523146807173846,5,12,0,-3,1,-4,-1,4
1523146807173846,24,3,-14,-1,-2,4,-1,-3
1523146807182345,7,-2,-2,-6,4,5,4,3
1523146807182345,9,-6,-5,1,0,1,4,4
1523146807197425,-16,-10,-4,-7,-2,4,2,-5
1523146807197425,5,4,1,3,4,-1,3,4
1523146807198890,-5,-7,-54,15,1,0,0,1
1523146807198890,8,3,13,-5,-5,-1,-5,0
1523146807211164,8,0,6,-6,0,1,5,3
1523146807211164,1,10,-12,1,1,0,1,6
1523146807219947,3,21,19,-9,-4,-2,-1,-2
1523146807219947,-13,-10,-5,1,-3,-2,-4,-4
1523146807233746,-2,-3,-5,5,3,0,0,-4
1523146807233746,5,-8,-17,-17,-2,1,1,3
1523146807242270,-9,25,14,-4,-4,-3,-2,-3
1523146807242270,6,0,3,1,-2,-2,-2,0
1523146807257310,-6,0,-2,-3,-1,-4,-3,-3
1523146807257310,-33,60,-4,-2,-4,-3,-1,-5
1523146807259322,23,7,-11,1,1,2,2,-1
1523146807259322,-15,-1,-19,0,-1,-1,-1,-1
1523146807270846,-5,2,9,-1,-3,-2,1,4
1523146807270846,4,-2,2,1,-3,-2,-2,-3
1523146807279872,-19,-24,-10,-7,-6,1,1,4
1523146807279872,-2,-1,-1,-9,-4,-1,1,1
1523146807293908,5,-1,24,3,-2,-4,-5,-2
1523146807293908,-10,-18,6,6,1,2,2,0
1523146807302930,-31,-31,12,-2,-2,-1,-2,-3
1523146807302930,18,36,9,-5,-2,-2,1,4
1523146807324990,17,-24,-19,-9,-5,0,1,0
1523146807324990,1,-5,1,-2,-6,-5,-3,-11
1523146807326494,-2,-12,-56,-6,-1,-3,2,6
1523146807326494,0,5,18,15,3,-1,-4,0
1523146807331006,-44,10,-16,-3,-2,-2,-2,1
1523146807331006,12,-3,10,5,2,-2,-2,0
1523146807340030,19,10,9,-10,-8,-1,0,2
1523146807340030,-8,-17,0,-9,-2,-6,-3,-2
1523146807353597,30,36,-11,-8,1,1,3,3
1523146807353597,14,-50,10,7,0,-2,-1,2
1523146807362911,3,11,19,1,1,-2,-1,-2
1523146807362911,4,-8,-26,-10,-6,-1,-2,-1
1523146807377454,2,17,13,4,2,1,-1,-4
1523146807377454,13,7,-21,-1,-2,-1,0,2
1523146807379375,5,6,10,0,-2,-3,1,-2
1523146807379375,1,21,-1,4,6,2,4,5
1523146807390990,-26,-56,-17,-7,-6,-4,-3,-9
1523146807390990,-10,-8,-11,1,-1,0,-1,-1
1523146807400290,0,4,20,3,2,0,-3,2
1523146807400290,0,5,6,4,2,0,-2,-2
1523146807413909,0,14,-5,-5,-3,-4,-3,0
1523146807413909,3,2,-13,4,1,0,1,5
1523146807422587,-13,-23,21,3,-2,-2,-1,-1
1523146807422587,8,-15,-20,-5,-1,1,2,-3
1523146807437626,16,17,-2,2,-1,0,-3,-2
1523146807437626,-24,-11,5,-4,-4,-2,-2,-4
1523146807439132,14,8,-13,-3,-1,-3,-2,-3
1523146807439132,0,-11,-1,0,-3,-3,-3,-1
1523146807451379,-18,-60,-2,-6,3,4,-1,-6
1523146807451379,-22,7,5,-18,-9,-6,-9,-18
1523146807459970,9,-24,-17,-10,-3,-2,-4,7
1523146807459970,-26,30,14,-4,-5,-1,0,-22
1523146807473507,6,19,10,-1,-2,-4,-3,15
1523146807473507,-16,-36,-3,15,5,0,-3,-11
1523146807482532,16,25,-47,-5,-2,1,-2,0
1523146807482532,2,-12,7,7,13,18,16,10
1523146807497571,-2,21,57,-31,-18,-15,-18,-2
1523146807497571,22,13,-6,2,-2,1,0,-1
1523146807499076,6,14,8,-3,-2,-3,-5,2
1523146807499076,13,-19,11,-1,-4,-8,-11,-1
1523146807511107,-16,-12,-4,7,2,2,4,-5
1523146807511107,32,9,-25,-9,3,4,9,5
1523146807520339,-7,-1,48,-9,-1,1,-1,-8
1523146807520339,6,-56,-19,-8,-2,-2,-10,-3
1523146807534669,-9,-81,-33,18,9,9,11,-1
1523146807534669,44,71,7,-2,-7,-7,-1,6
1523146807542474,-30,-31,19,7,2,4,3,-3
1523146807542474,-17,11,0,-3,-6,-8,-5,5
1523146807557739,0,28,-9,4,1,-1,2,-4
1523146807557739,-1,-11,-10,0,3,3,3,1
1523146807559018,4,10,-6,0,4,2,5,2
1523146807559018,-5,15,16,-1,-3,-1,-1,-11
1523146807571051,8,7,-29,-2,-2,-2,-4,-4
1523146807571051,-19,-5,50,13,12,3,-2,3
1523146807587598,2,5,-16,-8,-12,-3,0,-4
1523146807587598,-7,0,-1,4,-3,-3,-1,-1
1523146807593852,8,12,5,7,3,-2,-3,0
1523146807593852,-14,-13,1,-9,0,3,3,-1
1523146807602635,-5,-10,-11,7,4,-1,2,2
1523146807602635,5,2,-7,0,-7,-2,1,3
1523146807617740,3,17,9,3,-4,-4,-2,0
1523146807617740,-3,-7,-21,-7,-8,-1,-4,4
1523146807618677,4,0,5,2,4,1,-3,-3
1523146807618677,-9,-1,1,-2,-7,-3,1,0
1523146807631211,8,11,7,4,5,4,3,-2
1523146807631211,-8,-2,-10,-2,-6,-3,0,2
1523146807639734,5,4,24,-6,-3,-2,-3,-4
1523146807639734,-11,-4,9,7,7,0,-3,-5
1523146807653511,3,4,4,-4,-4,3,9,4
1523146807653511,-11,-7,-14,2,-3,-2,-4,-4
1523146807662794,13,1,-8,-12,-5,-4,-3,-1
1523146807662794,38,6,4,13,5,-1,-1,6
1523146807677072,5,11,-3,3,4,-4,-4,-7
1523146807677072,-17,-28,-8,-1,-3,-2,-1,-4
1523146807683349,-26,3,26,6,4,0,1,-1
1523146807683349,-17,-9,-20,-3,-3,-4,-6,-3
1523146807691083,8,-8,-28,-2,-2,1,2,3
1523146807691083,7,6,3,6,0,-1,-1,-2
1523146807699893,-9,-19,-25,-9,-1,1,-1,0
1523146807699893,-7,16,11,-2,4,0,1,1
1523146807713666,-4,-1,2,-1,-5,0,-3,0
1523146807713666,0,-4,-28,0,1,1,0,3
1523146807722453,-2,-3,0,1,-2,-2,1,-1
1523146807722453,-13,-3,3,-5,-3,-1,-1,-2
1523146807737057,5,-6,-10,-3,-1,-3,-4,-1
1523146807737057,8,14,16,-7,-3,-1,0,0
1523146807743745,-18,13,9,1,-1,-3,2,-1
1523146807743745,20,11,-2,-3,0,-1,0,3
1523146807751029,-4,-10,2,-2,-2,-2,-1,0
1523146807751029,-4,-4,3,-5,-4,1,0,0
1523146807760054,-15,-1,-9,-2,-5,-1,0,-3
1523146807760054,2,3,-4,-6,-3,0,1,-2
1523146807773589,-4,4,-3,1,0,-1,0,-2
1523146807773589,0,0,11,1,-1,-1,-1,-1
1523146807782615,26,0,-3,8,2,0,-1,-1
1523146807782615,-7,-15,-13,-10,-7,-1,-1,0
1523146807796893,0,5,0,-2,1,0,0,2
1523146807796893,1,0,3,-2,-3,-2,0,1
1523146807803862,6,-3,-2,2,-1,-1,-3,0
1523146807803862,-4,-4,1,2,3,0,-2,0
1523146807810977,-4,0,-5,-4,-6,1,-1,-2
1523146807810977,-3,-2,-5,-5,-1,-5,-5,-3
1523146807820000,-5,-1,-4,3,-2,-1,-2,-1
1523146807820000,3,5,23,7,5,0,0,-1
1523146807833554,-4,-3,-41,-12,-8,0,1,1
1523146807833554,0,-5,1,-4,-4,-1,0,-1
1523146807842578,-3,2,-1,-1,2,2,0,-1
1523146807842578,15,6,-3,1,0,-2,0,1
1523146807857020,7,3,3,10,5,2,1,0
1523146807857020,0,1,5,-3,-2,-3,0,-1
1523146807863623,-1,-1,-8,-4,-2,-1,0,-1
1523146807863623,-16,-13,-4,-1,-5,-4,-2,-1
1523146807879969,-2,1,11,-2,-1,-3,-2,-1
1523146807879969,5,1,-6,-3,1,0,2,0
1523146807881474,4,3,0,-1,0,0,-2,-2
1523146807881474,-20,-11,-3,-3,-3,-1,-1,-4
1523146807893703,-12,-6,3,0,-3,-4,-4,-4
1523146807893703,0,-5,4,-4,-3,-5,-3,-1
1523146807902557,-21,13,4,-2,0,-1,0,0
1523146807902557,3,-14,-26,2,-1,3,0,2
1523146807916629,3,5,4,-1,-2,-2,-1,1
1523146807916629,-6,-9,-22,-3,-3,-3,-2,-2
1523146807923784,-6,12,5,-2,-1,4,-1,-2
1523146807923784,2,-4,-25,-1,0,-1,-1,-2
1523146807940192,3,1,9,0,0,0,1,-1
1523146807940192,-2,-11,5,5,6,4,2,-1
1523146807941832,22,24,5,-7,-6,-2,-2,-2
1523146807941832,2,39,6,-2,-6,-3,0,8
1523146807953801,1,-16,18,-12,-3,-3,-2,2
1523146807953801,-1,83,13,6,-2,-3,-5,-23
1523146807962837,53,4,4,3,0,-1,1,4
1523146807962837,29,-17,-17,7,2,2,5,11
1523146807976932,9,37,-3,1,-2,-2,5,16
1523146807976932,6,-48,-17,7,3,-1,-3,-3
1523146807983744,-5,-49,-3,7,2,5,5,-29
1523146807983744,21,-44,8,-11,-9,-7,-6,10
1523146807999788,-10,-46,-5,6,1,3,6,16
1523146807999788,21,12,-15,-30,-6,-5,2,36
1523146808001291,-24,4,23,14,5,1,-9,-7
1523146808001291,-3,-11,24,14,2,-2,-2,-6
1523146808013519,67,9,-2,9,7,2,-1,1
1523146808013519,-31,14,8,-5,-5,3,-5,-23
1523146808022347,-5,-56,-40,1,8,3,4,18
1523146808022347,16,47,3,-14,-9,-6,-4,-6
1523146808045104,-11,40,-11,-12,-1,-2,-6,-8
1523146808045104,-12,-12,2,16,2,-1,1,-1
1523146808046412,13,25,-10,-4,-5,-5,-1,2
1523146808046412,-19,-6,17,0,1,2,2,-1
1523146808067664,-19,-8,-7,13,1,-2,-1,-18
1523146808067664,-8,-17,15,-2,-1,-1,1,4
1523146808068972,-15,3,8,1,4,1,2,4
1523146808068972,-5,4,-42,-21,-18,0,1,-5
1523146808081005,-16,-3,13,-3,-3,-4,-3,-2
1523146808081005,1,0,14,-8,3,2,-1,2
1523146808090027,11,12,4,8,2,-1,1,4
1523146808090027,-12,2,22,0,5,2,-1,-7
1523146808105190,3,4,25,-7,-2,-2,0,-2
1523146808105190,2,-11,12,9,-4,-2,1,2
1523146808106571,-6,-6,-27,-7,-9,-7,-7,-6
1523146808106571,-5,-1,8,-1,2,0,0,-1
1523146808127692,-20,-12,-9,-11,-6,2,-1,-3
1523146808127692,8,6,7,9,4,0,-1,0
1523146808129318,-6,3,20,5,-5,-3,1,3
1523146808129318,-5,8,11,15,5,0,1,-1
1523146808141342,1,2,-1,3,3,1,-2,0
1523146808141342,-4,-10,-21,-9,-4,-2,-3,-8
1523146808150188,10,13,14,3,-1,0,1,2
1523146808150188,-11,-13,-28,-8,1,-4,-3,-4
1523146808164726,-5,-4,7,-3,5,-1,-1,-12
1523146808164726,16,-6,-42,-3,-12,-2,0,3
1523146808166231,-19,-15,30,-31,-5,-1,-2,-1
1523146808166231,7,22,7,-7,5,2,0,0
1523146808187491,-3,-26,-5,7,-1,-3,-2,-3
1523146808187491,-6,-5,8,10,7,5,2,2
1523146808189323,1,-5,-11,-10,-5,-2,-2,-3
1523146808189323,-20,-8,5,-11,-6,-1,2,-3
1523146808201026,2,18,3,4,-2,-4,-1,-4
1523146808201026,0,-4,7,-4,-1,-1,-1,-1
1523146808209845,2,0,-13,1,0,0,-1,-1
1523146808209845,-8,1,6,0,2,0,-2,-4
1523146808224323,-2,-2,-10,0,0,0,-2,2
1523146808224323,-35,-17,6,7,2,-3,0,0
1523146808231147,1,-10,-15,7,1,-1,-3,1
1523146808231147,15,-2,-2,-1,-3,-1,0,1
1523146808247914,-4,-3,-3,-6,-1,2,1,0
1523146808247914,9,7,8,-1,-2,0,-1,0
1523146808249419,-8,4,4,-6,-4,-3,-1,-2
1523146808249419,-2,9,3,8,4,1,-1,-2
1523146808261144,-2,-46,-25,-4,-1,0,4,5
1523146808261144,3,8,7,-3,-1,-3,-2,1
1523146808269970,-1,5,-3,5,-4,-2,-2,-6
1523146808269970,3,-4,1,2,2,2,0,2
1523146808284851,-2,19,7,-5,-1,-1,-1,-2
1523146808284851,6,3,-1,3,2,1,-1,-1
1523146808286649,3,-3,-10,-10,1,0,0,-2
1523146808286649,-7,-2,-4,0,-2,-3,-4,-2
1523146808307400,-1,9,20,16,3,-2,-2,2
1523146808307400,4,-6,-30,-15,-5,1,1,-1
1523146808309320,39,13,3,1,0,0,-1,5
1523146808309320,-12,-2,-45,9,-1,-6,-3,-5
1523146808320936,-2,2,2,-1,-2,-2,-3,1
1523146808320936,10,7,21,11,4,1,-2,1
1523146808329764,0,-10,-47,-16,-11,-3,2,1
1523146808329764,-3,23,22,0,1,1,1,-2
1523146808345000,-4,-11,-38,-17,-3,-1,-2,-4
1523146808345000,8,-3,-15,6,-3,-3,-3,-2
1523146808346308,-15,0,13,3,-1,-1,-2,3
1523146808346308,15,-2,7,1,2,-1,0,-1
1523146808367561,-3,3,-5,-9,-7,0,1,-3
1523146808367561,-3,-4,7,-7,-2,-1,0,-1
1523146808368867,-13,2,11,9,-1,-2,-5,-4
1523146808368867,-6,-15,-10,-6,-2,-5,-3,0
1523146808389839,6,8,5,5,0,-2,-2,2
1523146808389839,-4,-2,-5,-3,-2,-2,1,-1
1523146808391795,-4,-2,4,3,0,-1,0,-1
1523146808391795,4,-17,-10,-7,-2,1,-1,-1
1523146808404875,6,20,24,4,0,-3,-1,1
1523146808404875,-3,6,5,-5,-4,-1,-3,-2
1523146808406684,-7,0,-5,2,1,1,2,2
1523146808406684,-8,-3,7,0,-1,0,-1,-8
1523146808427147,-3,-2,-2,0,-2,-1,0,-1
1523146808427147,1,-5,-7,-5,-1,0,-1,-3
1523146808433470,-31,21,15,1,1,-2,-3,-1
1523146808433470,25,26,-6,2,-2,0,-1,-8
1523146808441191,-33,-41,-5,-1,-4,-3,3,17
1523146808441191,-10,29,2,-5,-3,-4,-4,-7
1523146808450022,7,15,-2,-13,-5,-2,0,8
1523146808450022,-19,-41,-8,1,-2,-4,-3,-19
1523146808464050,-7,12,-1,-19,0,4,-7,-22
1523146808464050,2,-13,12,-4,-4,-4,-1,10
1523146808471271,15,27,-31,-10,0,2,1,0
1523146808471271,6,-1,7,3,-2,0,4,19
1523146808487693,9,-43,-33,26,8,6,6,-15
1523146808487693,20,11,-12,-15,-1,-2,-1,21
1523146808489293,-42,-62,16,11,0,4,4,-15
1523146808489293,21,-1,27,-19,-2,-1,-3,3
1523146808501301,-33,-3,-25,1,-7,-6,-7,-1
1523146808501301,-3,6,14,13,4,0,1,-5
1523146808509754,0,-17,36,12,0,0,-1,8
1523146808509754,4,2,4,-11,-3,-2,-6,-11
1523146808524490,3,60,25,-10,-4,-4,-2,11
1523146808524490,-22,8,69,-4,-10,-7,-11,-28
1523146808530811,19,-45,-47,10,3,1,2,8
1523146808530811,-20,13,13,-8,2,-1,-1,-5
1523146808555171,14,21,24,-7,-2,-2,-5,-2
1523146808555171,-7,-20,-14,-8,2,1,1,6
1523146808556790,4,14,-8,-1,3,3,-1,-9
1523146808556790,-4,1,1,1,-4,-1,0,6
1523146808569629,9,-14,1,2,-6,-2,0,5
1523146808569629,1,3,5,0,0,2,1,3
1523146808571794,-6,3,19,-3,-2,-6,-7,-16
1523146808571794,1,-3,-7,13,-1,-2,-2,3
1523146808584363,10,2,-6,-6,-1,-1,1,1
1523146808584363,2,-7,-26,12,5,4,2,-4
1523146808591348,3,21,-3,-3,-2,-3,-1,1
1523146808591348,-8,-13,-9,15,-4,0,2,3
1523146808607228,7,3,19,5,1,1,0,-2
1523146808607228,-4,-6,-26,-6,-7,-2,-1,-2
1523146808609253,1,3,3,0,-2,-5,-3,0
1523146808609253,-1,3,-3,-6,-4,2,1,4
1523146808629789,4,-1,10,7,-3,0,0,-1
1523146808629789,4,-1,4,9,1,-3,-3,0
1523146808631292,-2,0,-39,-18,-9,-2,-1,0
1523146808631292,-2,1,-2,1,1,-2,-3,0
1523146808644486,4,-4,-5,-2,-1,0,0,-2
1523146808644486,0,-3,11,-6,-1,1,2,0
1523146808651040,4,1,-33,5,0,-6,-4,-2
1523146808651040,-5,-1,-8,3,3,2,3,1
1523146808667388,1,1,3,-1,1,-3,-2,-2
1523146808667388,1,-2,-11,-8,-3,-3,-2,-2
1523146808668893,10,2,19,-1,-1,0,1,2
1523146808668893,-20,-2,-6,2,-1,-1,-1,-4
1523146808690194,4,1,2,-2,-1,2,1,-1
1523146808690194,-3,-5,-13,3,2,0,1,-1
1523146808691816,2,6,8,0,1,-1,1,1
1523146808691816,8,10,9,-15,-7,-4,-4,1
1523146808703201,-6,-1,1,-5,-3,-3,-3,-6
1523146808703201,-19,-34,-4,7,6,2,0,0
1523146808712779,-1,-3,1,-9,-9,-2,-1,-2
1523146808712779,7,1,3,14,1,-1,-1,2
1523146808727765,-6,10,-15,-4,1,2,1,-2
1523146808727765,22,10,-14,3,2,-1,-1,1
1523146808728771,-3,-19,13,1,-1,-3,-2,-3
1523146808728771,-5,4,1,-1,-1,-1,-1,1
1523146808750006,17,4,6,-2,-2,0,-1,2
1523146808750006,-9,4,1,4,3,0,0,1
1523146808751845,-23,6,6,-8,-3,-5,-3,-3
1523146808751845,10,11,-9,-8,-7,-4,-1,0
1523146808763392,-5,-9,-2,1,0,0,0,-1
1523146808763392,4,4,-9,-4,-2,-2,0,-3
1523146808772385,16,7,20,-1,0,0,-2,0
1523146808772385,-9,-15,-11,0,3,0,1,-2
1523146808787447,28,11,-3,9,1,0,-1,3
1523146808787447,-3,-1,-13,-1,-3,-1,-1,-2
1523146808789078,-2,-3,-24,-8,-10,-4,-3,-3
1523146808789078,3,-1,-8,6,9,5,1,-1
1523146808809874,2,-8,-7,-10,0,-2,2,0
1523146808809874,-3,4,8,3,-3,1,2,2
1523146808811379,9,-3,-19,1,2,-2,-4,2
1523146808811379,1,-2,4,1,-5,-4,-2,-5
1523146808832435,-11,-5,-2,7,-4,-1,-3,-3
1523146808832435,2,3,0,1,2,2,2,0
1523146808833938,4,5,4,1,4,1,1,0
1523146808833938,-4,2,7,-1,-2,-3,-1,-1
1523146808847475,-6,-9,-11,2,1,0,2,-2
1523146808847475,1,11,1,-1,-1,-1,0,3
1523146808848981,-2,-2,9,6,1,0,0,1
1523146808848981,2,-2,-6,-4,2,-1,0,1
1523146808869533,-9,-10,2,2,-1,0,1,-3
1523146808869533,-3,-1,8,-6,-4,-2,-4,-4
1523146808871539,-3,-4,-17,-3,-1,1,-1,-1
1523146808871539,1,5,7,2,0,-3,-4,-3
1523146808884627,-8,-2,-9,-4,-1,-3,-1,3
1523146808884627,3,7,24,-7,-6,-2,-1,-2
1523146808891296,-35,-12,11,7,6,2,-2,-4
1523146808891296,-3,-42,-11,-4,-3,0,-1,0
1523146808907623,9,5,0,-1,-4,-3,-1,-1
1523146808907623,-6,-3,-3,-6,-3,-4,-1,-1
1523146808909077,2,-17,10,6,1,-3,-1,-3
1523146808909077,-20,6,-7,-8,-4,-1,0,-2
1523146808929630,-11,5,10,1,-3,-3,-3,0
1523146808929630,-16,-23,0,2,-1,-4,-3,-4
1523146808931637,11,43,1,-7,-1,0,1,0
1523146808931637,5,2,-1,5,0,1,-2,-3
1523146808944385,1,22,12,-7,-2,-4,-3,-5
1523146808944385,5,-12,-22,4,2,3,3,0
1523146808951187,-23,46,-28,-4,-4,-6,-5,-7
1523146808951187,-8,-79,-10,-5,-1,0,4,13
1523146808967466,-5,-66,-16,-5,10,9,-1,-11
1523146808967466,-29,43,-45,18,-5,-11,-2,14
1523146808968734,38,-29,14,3,1,2,2,-20
1523146808968734,14,9,-4,5,-4,-6,0,31
1523146808989791,-17,18,1,-16,0,2,-8,-7
1523146808989791,1,-16,3,-21,6,10,11,-10
1523146808991886,-26,-65,-11,6,-3,-3,-6,5
1523146808991886,-12,9,36,7,-7,-4,-5,15
1523146809003661,37,28,34,-8,-4,0,4,-6
1523146809003661,11,22,32,12,-1,-4,-10,-36
1523146809012445,-4,4,-4,7,1,0,1,34
1523146809012445,-6,11,-7,-21,-3,0,-2,26
1523146809027731,-15,6,-23,4,-5,-4,-7,2
1523146809027731,-1,-23,-8,6,0,1,0,-29
1523146809029249,0,3,19,4,1,-3,-2,-4
1523146809029249,4,13,-31,12,3,2,-8,-69
1523146809049784,7,-8,21,-3,-3,-6,10,109
1523146809049784,6,-11,-32,6,3,0,-9,4
1523146809051549,4,5,31,-3,-2,2,2,-16
1523146809051549,2,16,6,-1,1,2,7,5
1523146809063367,4,9,4,-9,-3,-1,-3,-40
1523146809063367,36,6,19,-6,-2,-2,-2,16
1523146809072392,-12,11,3,-4,-2,1,8,29
1523146809072392,-33,-4,-9,-5,-2,-3,-10,-37
1523146809087519,-4,-14,-19,13,1,-1,0,-19
1523146809087519,6,4,37,1,8,1,4,19
1523146809088935,21,4,-15,-15,-8,-2,-5,-9
1523146809088935,2,5,2,-10,-4,0,4,0
1523146809109990,-14,-11,-19,14,2,-3,-3,-17
1523146809109990,0,2,13,-22,-13,-8,2,7
1523146809111494,-3,0,-8,5,3,1,1,-8
1523146809111494,12,13,18,6,9,2,1,0
1523146809123769,-2,-1,-18,-4,-5,-3,-4,2
1523146809123769,-5,-7,5,1,2,5,2,-2
1523146809132553,0,1,-9,5,1,-4,-3,-3
1523146809132553,6,4,29,-2,-1,-2,0,5
1523146809147089,1,-4,-24,2,3,3,4,-9
1523146809147089,-10,-6,-11,-26,-13,-6,-6,-4
1523146809149094,-6,-3,3,0,-1,3,-2,-6
1523146809149094,8,0,-13,5,1,-2,-2,2
1523146809169650,-6,-1,-3,-15,-5,-1,-4,-8
1523146809169650,-1,-3,-6,1,-3,0,-2,3
1523146809171653,3,2,7,2,2,-1,4,1
1523146809171653,3,-4,-18,-14,-3,-1,-1,-4
1523146809183865,13,-2,9,8,-2,-2,-4,-1
1523146809183865,-2,0,-9,0,-1,-1,-3,2
1523146809192839,20,7,1,1,-2,0,0,-1
1523146809192839,-5,-20,-4,10,4,4,4,-4
1523146809206747,-14,-8,-32,-4,-5,-7,-1,-4
1523146809206747,-5,-1,1,7,-1,-1,1,0
1523146809213266,1,-3,8,-4,-1,-1,-1,-1
1523146809213266,11,21,9,2,-1,0,0,2
1523146809229809,1,-20,7,-14,-2,-1,-2,9
1523146809229809,-7,-2,2,3,-2,1,-1,-3
1523146809231313,-8,-2,-19,-4,1,-3,-2,-2
1523146809231313,4,4,7,-13,-6,-4,-3,1
1523146809243847,-5,39,15,9,2,3,-1,-5
1523146809243847,6,15,12,4,6,-1,1,4
1523146809252369,-8,-20,-57,-13,-14,-3,-3,-6
1523146809252369,-4,-12,0,-12,-3,-3,0,-1
1523146809267651,-5,10,-15,8,3,-1,1,-6
1523146809267651,-7,-61,19,1,-1,0,1,2
1523146809268914,-16,-1,13,3,4,-4,-3,-4
1523146809268914,-1,5,-10,3,1,-1,2,5
1523146809289969,-3,-16,-5,-10,-5,-2,-2,-7
1523146809289969,-13,3,-14,4,-3,-3,-6,-3
1523146809291474,1,9,17,-1,1,1,-1,0
1523146809291474,20,3,-12,5,0,-1,0,4
1523146809303505,-7,-1,20,-1,2,-1,0,-3
1523146809303505,-1,-2,-41,-14,-9,-3,-3,-3
1523146809312528,0,0,12,4,2,0,1,0
1523146809312528,2,4,8,-2,-2,1,-1,0
1523146809326808,10,9,-4,5,2,1,0,0
1523146809326808,7,4,10,7,4,4,2,-1
1523146809333585,-5,-10,-14,-15,-5,-4,-1,-1
1523146809333585,-7,-3,7,1,1,0,-1,-5
1523146809350146,13,-12,-6,8,1,0,0,0
1523146809350146,-7,1,-4,-4,-1,-3,1,-2
1523146809351632,1,0,4,5,2,0,-1,0
1523146809351632,-9,-1,5,-1,-2,-2,-2,4
1523146809363666,-4,5,9,-7,0,-1,-2,-4
1523146809363666,-13,3,-6,-5,-2,-2,-3,-1
1523146809372188,20,26,0,5,0,1,0,1
1523146809372188,-32,-36,-8,-9,-1,0,2,-4
1523146809387228,5,-44,2,8,-4,-2,0,5
1523146809387228,6,-7,-25,4,2,0,-2,-6
1523146809393889,-9,-6,19,2,1,-2,1,2
1523146809393889,-3,9,-11,7,1,-2,-2,-1
1523146809409788,-9,16,11,-12,-1,0,-1,-2
1523146809409788,12,-10,24,6,4,2,-1,-1
1523146809411861,1,-8,-6,0,-2,-1,-1,0
1523146809411861,3,8,-3,-2,-1,-1,-2,0
1523146809423640,-9,10,19,8,2,1,1,-5
1523146809423640,8,9,-24,-16,-12,-3,-1,2
1523146809432419,-7,-1,3,0,1,-1,-2,-3
1523146809432419,4,-6,1,-6,-1,-1,-2,1
1523146809447458,4,3,5,17,2,3,2,-1
1523146809447458,2,10,11,2,0,-1,-2,-5
1523146809448963,-5,8,-5,-2,0,0,1,0
1523146809448963,18,10,-13,4,-1,3,2,-9
1523146809470200,20,11,20,-13,-11,-11,-7,12
1523146809470200,0,-9,-12,7,4,-2,-1,2
1523146809471523,20,10,12,-6,3,7,8,17
1523146809471523,1,-35,-39,24,7,-2,-9,-25
1523146809483771,-4,-4,-7,-10,-5,0,-2,-3
1523146809483771,27,19,11,10,2,-1,8,32
1523146809500099,-25,-46,-20,-15,-13,-15,-10,-11
1523146809500099,-3,-2,48,-19,-1,2,2,-6
1523146809506616,45,-20,-35,13,3,-1,1,36
1523146809506616,7,14,1,-12,-10,-11,-13,-14
1523146809513636,-29,-31,-21,4,9,12,12,-17
1523146809513636,4,11,35,22,-1,0,-7,-40
1523146809529964,-5,-43,-9,-4,-5,-4,2,14
1523146809529964,16,25,33,-1,-2,-3,-9,-44
1523146809531469,12,48,-3,16,9,7,12,42
1523146809531469,-10,7,-10,-20,-9,-6,-2,13
1523146809552739,-13,19,30,-1,4,5,3,-25
1523146809552739,-29,-12,-9,-5,-1,1,-2,-1
1523146809554029,0,1,21,0,-6,-4,-8,-22
1523146809554029,6,-19,-75,-12,-13,2,9,22
1523146809566804,-13,32,-7,-6,-1,-1,-2,-7
1523146809566804,16,-1,5,-1,6,5,5,15
1523146809573581,3,-8,15,16,4,0,-5,-6
1523146809573581,0,13,20,-3,-4,-6,-5,5
1523146809590239,-8,5,-13,1,0,1,4,-2
1523146809590239,-20,-6,-9,-10,-3,2,-3,-10
1523146809591864,5,2,13,4,4,0,-4,-4
1523146809591864,-3,8,7,4,0,-5,-6,0
1523146809612184,-14,-6,-7,-19,-12,-3,0,-13
1523146809612184,1,-3,16,25,12,2,4,10
1523146809614189,-8,-2,-8,-16,-6,-1,-4,-2
1523146809614189,-1,7,4,-10,-4,0,4,11
1523146809626756,-4,-5,-32,-1,-4,-1,-3,-5
1523146809626756,-8,-8,-2,-4,-7,-7,-3,4
1523146809633532,-17,-5,-5,-12,-9,-7,-4,0
1523146809633532,-15,1,11,11,4,0,-3,-2
1523146809650114,1,6,37,11,11,6,4,1
1523146809650114,-2,-1,-26,0,1,0,2,4
1523146809651579,0,21,-10,-6,-9,-2,-1,-5
1523146809651579,-20,-33,3,-5,3,-1,0,4
1523146809672750,-7,-23,-10,0,-9,-5,-4,-4
1523146809672750,-4,3,-2,2,2,-3,-2,2
1523146809673638,7,7,5,-12,-10,-4,0,-6
1523146809673638,13,16,9,19,-3,-3,0,5
1523146809686239,-16,-51,-13,-24,-5,-6,-8,-7
1523146809686239,-5,-5,-9,-7,-6,-1,0,3
1523146809695195,4,-14,14,5,-1,-1,-3,0
1523146809695195,6,5,-10,3,-1,-1,1,-1
1523146809710268,0,14,14,-25,-6,-6,-4,-3
1523146809710268,-2,0,5,4,-1,1,1,1
1523146809711871,12,-2,-41,-6,1,0,-1,0
1523146809711871,4,8,2,-3,1,-2,-1,5
1523146809732383,4,38,-4,9,3,1,-3,7
1523146809732383,-25,-15,-27,-7,-4,0,2,-3
1523146809734332,17,12,6,6,-1,-5,-5,-6
1523146809734332,-9,-1,8,0,2,-1,-1,-3
1523146809745861,-19,-12,-11,8,3,1,1,-2
1523146809745861,1,-21,-4,-7,-9,-3,-1,-1
1523146809754854,-5,-14,5,2,-1,-4,-3,-9
1523146809754854,-8,20,-7,-5,1,1,0,5
1523146809778152,21,5,9,9,2,-1,0,-2
1523146809778152,1,14,15,3,1,2,3,5
1523146809779422,-20,-13,-31,-5,-1,-5,-4,-2
1523146809779422,2,-4,10,-1,-1,0,-5,-29
1523146809792454,-19,10,-4,0,1,4,3,6
1523146809792454,-27,-58,-4,0,-7,-6,-8,-13
1523146809794007,3,19,15,5,1,2,-2,-7
1523146809794007,11,-14,-20,-8,-5,-6,0,5
1523146809806227,-14,-13,-7,-7,-4,-2,-2,-6
1523146809806227,26,32,19,1,4,4,5,7
1523146809815014,2,1,6,2,-1,-1,2,5
1523146809815014,-3,30,10,-4,3,-1,-3,-2
1523146809830055,12,11,-2,7,3,1,-1,-3
1523146809830055,6,10,-9,-13,-3,-3,-4,-1
1523146809831561,-3,-10,12,-5,-1,-1,-2,-1
1523146809831561,27,2,4,3,0,1,2,1
1523146809852706,4,11,19,16,6,1,1,0
1523146809852706,-1,-8,3,-3,0,1,-1,-4
1523146809854119,4,5,-7,-1,1,-1,-1,1
1523146809854119,0,-6,0,-2,-1,1,0,3
1523146809866359,2,7,-5,-1,0,-2,-3,-6
1523146809866359,6,9,46,10,-2,-3,-1,-4
1523146809875175,-29,-12,-2,-6,-1,1,-1,2
1523146809875175,-14,-13,-10,-8,-1,-3,-2,-1
1523146809889833,10,0,-14,-8,-4,-2,0,-3
1523146809889833,-25,16,-2,-1,0,-1,1,-7
1523146809891751,8,-10,9,-4,-1,-1,-2,9
1523146809891751,1,1,-6,0,-3,-1,-4,-1
1523146809912274,-3,2,13,-4,0,-2,-3,-9
1523146809912274,-19,-10,-19,-6,-2,-3,0,-1
1523146809913778,11,8,1,7,2,1,0,-1
1523146809913778,-10,-12,-15,-2,-4,-2,-3,2
1523146809926754,1,-10,-3,7,-1,-1,0,2
1523146809926754,11,7,-8,-2,0,0,-2,8
1523146809933771,-14,-12,-5,-4,-4,-6,-6,-11
1523146809933771,1,0,-1,4,2,3,4,5
1523146809949808,-2,-8,-9,-7,-5,-4,-2,0
1523146809949808,13,8,8,-6,-2,0,-2,-1
1523146809951632,6,16,0,9,0,-2,4,0
1523146809951632,-31,-2,5,6,1,-2,-2,-4
1523146809972669,31,7,2,4,1,2,1,6
1523146809972669,-20,-23,4,-11,0,-1,-1,-6
1523146809974270,-4,14,-1,-5,-3,0,0,0
1523146809974270,8,0,-7,-4,-3,-3,-1,8
1523146809986708,9,25,20,28,9,6,8,-6
1523146809986708,-2,-68,7,-2,-7,-7,-6,4
1523146809993772,33,-80,-77,3,3,-2,-4,-8
1523146809993772,-6,10,1,13,9,13,19,25
1523146810009769,0,8,6,-1,-10,-9,-5,-4
1523146810009769,17,40,-10,10,-2,-3,-3,-9
1523146810011819,-40,-46,-14,-35,-12,-14,-23,-24
1523146810011819,20,-23,-6,34,10,15,16,28
1523146810032530,-39,-70,7,1,1,-6,-10,-7
1523146810032530,-27,98,-7,-26,-1,3,4,2
1523146810033839,-41,-46,-19,31,6,11,11,13
1523146810033839,20,28,-41,4,10,7,7,-2
1523146810045866,-7,23,-2,-5,-9,-8,-10,-10
1523146810045866,9,7,4,-4,-4,-1,3,16
1523146810054889,-34,11,38,36,3,4,5,4
1523146810054889,1,-2,-10,-6,8,-1,-1,10
1523146810069930,-15,19,-15,-11,-12,4,0,7
1523146810069930,8,-1,-33,43,9,9,15,-2
1523146810071433,26,19,6,-29,-4,-3,4,3
1523146810071433,1,-8,4,-8,-12,-15,-13,-21
1523146810092685,13,-8,8,0,6,0,2,12
1523146810092685,21,-10,-21,-23,-10,-4,-4,8
1523146810093994,3,30,62,18,5,6,4,1
1523146810093994,8,11,-1,-19,-12,-4,-3,-2
1523146810106025,4,4,-4,3,6,0,-3,-9
1523146810106025,-10,-33,-13,-17,-17,-8,-6,-8
1523146810115050,20,30,18,1,7,1,0,1
1523146810115050,-9,-20,-16,-18,-18,-14,-14,-17
1523146810129591,-2,-13,-1,-6,1,6,4,-2
1523146810129591,4,-4,11,14,11,3,4,-2
1523146810131593,15,10,-2,-9,-2,-4,-5,0
1523146810131593,-13,1,14,-11,-4,-3,-5,-10
1523146810152148,0,2,1,-3,0,-2,1,5
1523146810152148,-6,-5,-5,7,4,0,-3,-7
1523146810154153,12,12,-32,-28,0,2,-1,1
1523146810154153,-10,-14,8,-13,-4,-3,-3,-8
1523146810166185,-2,1,33,-8,-6,2,1,2
1523146810166185,2,-10,-26,-3,-5,-3,-5,-7
1523146810175208,4,3,9,-1,-8,-7,-3,-1
1523146810175208,4,-4,-5,14,-1,-1,-7,-4
1523146810189748,0,-7,-1,-22,-4,1,2,-2
1523146810189748,-4,-2,-2,3,1,-2,-5,-5
1523146810191819,4,10,-9,-26,-5,0,-1,-3
1523146810191819,15,0,7,3,2,-1,-2,-3
1523146810220028,-18,2,-16,12,-2,-4,-2,-4
1523146810220028,7,-3,7,-13,-3,-2,-3,-2
1523146810221331,2,5,-5,5,2,-4,1,1
1523146810221331,5,1,5,-7,-2,-1,-3,-5
1523146810226344,5,-1,-20,1,5,4,4,-2
1523146810226344,0,-1,7,5,0,-4,-4,2
1523146810234868,4,20,12,0,-5,-5,-1,-3
1523146810234868,-9,-77,-1,7,1,-1,-1,-1
1523146810250027,0,5,2,-13,-4,-2,-1,3
1523146810250027,-2,1,5,-5,1,-1,-2,-4
1523146810251412,8,37,-6,-2,-3,-1,-1,1
1523146810251412,-3,-7,12,-6,-3,-1,-1,-2
1523146810272764,10,-3,12,10,1,-3,-1,-2
1523146810272764,17,-6,12,2,4,1,-1,-2
1523146810274328,-2,2,7,4,-1,-1,0,2
1523146810274328,6,25,2,0,-1,-1,0,-1
1523146810294987,10,11,-16,-7,2,1,-2,0
1523146810294987,-6,5,12,-2,-2,0,1,-1
1523146810296291,9,-9,4,9,2,2,2,1
1523146810296291,-3,13,-3,-10,-6,-5,-3,-2
1523146810309498,-5,-5,-42,4,2,-2,-3,2
1523146810309498,-5,-6,-3,4,0,1,-3,-2
1523146810316039,-24,-17,-5,-1,-2,-1,-3,2
1523146810316039,0,20,-10,-6,0,-1,0,-3
1523146810332669,4,-2,7,-1,-2,-1,-3,-4
1523146810332669,-7,2,-3,1,-1,1,1,3
1523146810334114,9,-11,-6,2,-3,-3,-2,-3
1523146810334114,-7,3,7,6,0,1,1,-2
1523146810346146,3,11,1,-2,-3,-4,-2,-1
1523146810346146,6,30,33,18,2,-1,0,-1
1523146810355170,5,-6,14,-5,1,2,1,4
1523146810355170,-6,7,4,-4,-2,1,-1,-3
1523146810369364,-6,-12,-41,-2,-5,-2,0,0
1523146810369364,-7,-2,-5,-9,-4,-2,-1,-2
1523146810376295,-18,-6,-14,-5,-3,-1,0,-3
1523146810376295,-4,14,5,-2,0,-1,0,4
1523146810392425,-6,-3,8,7,2,0,-2,-2
1523146810392425,12,-7,2,3,4,-2,-2,1
1523146810394301,-24,-16,-19,-9,-8,-2,-4,-4
1523146810394301,9,-4,-14,-5,0,1,2,2
1523146810414987,-12,-9,9,5,1,-5,-4,-3
1523146810414987,15,-32,-11,-5,0,1,0,2
1523146810416332,-4,42,10,-5,-1,-4,-3,-4
1523146810416332,-2,4,-5,1,1,-1,0,-1
1523146810429367,-5,-18,6,-12,-8,-3,-3,-1
1523146810429367,-5,-7,-14,-3,0,0,-1,-1
1523146810436044,9,9,11,2,2,0,-3,2
1523146810436044,-9,-8,-1,8,-2,-3,-3,-3
1523146810452585,8,8,3,-4,-3,-1,1,-1
1523146810452585,-9,47,31,0,-3,-1,-1,-3
1523146810453933,9,-69,-13,5,2,2,3,3
1523146810453933,-4,-8,7,2,-1,-1,-2,0
1523146810475141,-6,4,4,8,4,0,1,0
1523146810475141,-3,-2,-3,-7,0,3,-2,-1
1523146810476493,20,10,11,5,-2,-3,0,4
1523146810476493,-3,-7,33,3,-2,-2,-5,2
1523146810489184,3,25,11,-7,-1,5,8,2
1523146810489184,33,31,-8,-7,6,7,5,14
1523146810497551,-16,8,-19,9,18,14,18,2
1523146810497551,-10,-8,3,0,-5,-5,-1,-17
1523146810512087,-26,-24,-52,7,-1,-2,-5,2
1523146810512087,-13,21,17,-17,-14,-11,3,25
1523146810514093,-2,15,26,-6,-8,-9,-15,-16
1523146810514093,20,-34,11,-38,-4,0,10,9
1523146810534647,48,24,57,0,-4,-15,-18,1
1523146810534647,76,3,-36,-31,9,22,22,16
1523146810536653,-12,-47,-95,18,5,-2,-12,-6
1523146810536653,45,31,40,24,13,17,25,28
1523146810549344,-15,-4,-23,-44,-25,-18,-22,-20
1523146810549344,-12,-62,-75,19,13,-1,-7,-17
1523146810556275,-15,-5,30,-8,-12,-20,-11,-15
1523146810556275,1,6,-25,-21,-51,-29,-17,-4
1523146810572406,-39,15,42,-2,46,65,23,1
1523146810572406,-30,36,81,-27,-24,-22,-11,-11
1523146810574280,15,8,13,0,2,2,6,12
1523146810574280,-27,4,-17,14,-3,-13,-14,-17
1523146810595010,-41,-14,26,30,3,-8,5,-12
1523146810595010,-11,20,51,15,-9,1,-1,-1
1523146810596518,4,0,22,-17,3,6,-6,-21
1523146810596518,-7,-5,20,15,12,-6,-7,0
1523146810608703,20,-2,-34,-13,-3,-8,-5,5
1523146810608703,-16,-27,-16,7,10,2,6,-6
1523146810617572,10,9,5,1,-2,0,7,10
1523146810617572,8,20,-28,3,9,12,4,0
1523146810632658,8,-10,7,7,-3,-8,1,-1
1523146810632658,-18,-14,-14,21,5,1,-9,-14
1523146810634129,8,4,3,0,-3,-4,5,11
1523146810634129,-23,-8,-21,-20,7,9,-4,-7
1523146810654826,4,-9,-11,5,-5,-7,-3,3
1523146810654826,-8,-18,-9,8,-7,-5,-3,-3
1523146810656735,0,10,16,-16,-2,2,1,3
1523146810656735,-2,-6,-10,-2,2,-1,0,-4
1523146810668785,7,-10,-31,-5,-18,-13,-2,1
1523146810668785,-12,-3,12,10,20,-4,-3,-3
1523146810677229,-10,-4,-3,-1,-5,3,-2,-2
1523146810677229,-1,2,20,3,0,-5,0,0
1523146810692433,-13,-19,0,-2,-1,4,2,6
1523146810692433,-19,1,-6,6,-7,-6,-5,-9
1523146810694274,-5,-9,-27,0,-1,0,0,5
1523146810694274,-5,0,4,1,0,-2,-5,-5
1523146810714329,10,1,1,-4,-5,-4,0,3
1523146810714329,-5,-11,-28,-8,-7,3,-1,-3
1523146810714831,3,3,16,0,-1,-1,-1,-2
1523146810714831,-33,-7,-17,8,2,6,3,3
1523146810736752,-16,27,14,14,4,0,2,-3
1523146810736752,4,15,5,-5,-3,-1,-1,-3
1523146810737753,3,-32,-5,4,0,2,0,-2
1523146810737753,-8,5,-22,1,-5,-4,-5,-2
1523146810751628,-10,-9,7,1,4,1,1,-1
1523146810751628,-3,28,-16,-3,-1,-3,-3,-4
1523146810752632,-2,15,6,2,-5,-3,-3,-2
1523146810752632,10,-6,-10,-11,2,3,-1,1
1523146810774727,16,-1,5,-3,-2,-4,0,-1
1523146810774727,10,0,-8,-6,-3,2,-1,1
1523146810775196,-5,-2,-2,5,4,0,2,-2
1523146810775196,-3,3,0,3,1,2,1,-3
1523146810796752,8,3,-12,-9,-3,-5,-3,-5
1523146810796752,-3,-25,-6,1,-3,-2,0,2
1523146810797253,7,2,7,2,1,1,0,2
1523146810797253,-19,-13,-2,-2,-2,-3,-4,-2
1523146810811789,5,0,14,5,-1,0,4,0
1523146810811789,-1,-4,2,-1,0,-2,-1,-4
1523146810812291,-7,-1,1,-3,0,-3,-4,2
1523146810812291,11,5,0,-5,-1,-3,-2,-4
1523146810834398,3,-11,-23,0,0,1,0,1
1523146810834398,-1,-1,-2,3,1,1,0,0
1523146810834851,4,14,-1,-16,-3,-3,0,-2
1523146810834851,1,-4,-4,7,4,1,-1,1
1523146810857564,14,24,-2,2,2,0,-1,0
1523146810857564,-5,-17,6,-10,-4,-3,-2,1
1523146810858033,0,2,-2,7,0,1,0,-1
1523146810858033,-35,-9,13,-9,1,-2,-2,-2
1523146810871626,-6,1,-10,-18,-6,-4,-3,-3
1523146810871626,2,4,1,-1,-1,0,-2,-1
1523146810872570,13,8,12,9,2,0,1,2
1523146810872570,18,-9,-25,-18,-8,2,-2,-5
1523146810894280,-5,-8,16,2,4,1,1,1
1523146810894280,-2,14,-8,10,-1,-2,0,-3
1523146810894717,-21,-18,-6,0,-1,-2,0,-1
1523146810894717,5,7,-3,-2,-4,1,1,-1
1523146810908754,-2,-5,3,1,-3,-3,-3,-3
1523146810908754,8,7,4,-8,-2,0,-1,-1
1523146810916836,7,8,1,-8,-7,-4,-1,-2
1523146810916836,7,8,15,7,-1,-2,-3,0
1523146810931815,-18,-13,-6,4,3,-2,-1,0
1523146810931815,-19,-22,-7,-7,-2,-2,-1,-2
1523146810932318,0,12,20,-8,-4,1,0,1
1523146810932318,3,16,4,3,3,1,-3,-1
1523146810954376,7,-52,-34,2,-4,0,-3,2
1523146810954376,4,4,8,2,3,0,-2,-4
1523146810954877,1,-6,-12,-15,-4,0,0,-1
1523146810954877,13,-2,0,21,5,2,3,0
1523146810968414,-3,-5,-28,-7,-4,-4,-2,3
1523146810968414,20,6,24,0,-1,2,-1,-3
1523146810976561,-3,-1,14,-5,-2,-1,-1,-4
1523146810976561,25,-84,-8,-4,-3,-4,-3,-2
1523146810991601,13,10,17,-2,0,-2,-3,-5
1523146810991601,-12,-31,-49,31,3,-8,-18,-2
1523146810992545,22,-13,-31,-14,12,18,14,-5
1523146810992545,-21,-4,13,40,15,14,20,39
1523146811022308,35,9,38,-22,-16,-15,-19,-11
1523146811022308,-28,31,6,30,8,8,5,-4
1523146811023252,-5,-20,-64,23,6,-8,-18,-13
1523146811023252,23,46,7,-47,-16,-20,-33,12
1523146811036787,0,10,52,26,3,16,22,-8
1523146811036787,-21,-38,-52,-14,0,2,7,-9
1523146811037288,26,27,49,-17,-1,0,0,16
1523146811037288,32,50,-16,57,13,3,-3,-23
1523146811053334,-7,-34,-10,5,-3,3,5,15
1523146811053334,18,-12,9,-1,2,-1,-2,6
1523146811053834,8,-35,20,-21,-8,-3,8,10
1523146811053834,9,-29,-26,11,-10,-10,-9,-2
1523146811074387,20,27,-59,2,5,-3,-6,-19
1523146811074387,11,-41,35,5,7,8,15,10
1523146811074891,-12,15,35,6,7,-2,-6,-3
1523146811074891,-35,16,-30,-30,-13,-2,4,-10
1523146811096446,-23,-54,-12,5,3,0,3,11
1523146811096446,5,26,31,-39,-10,-7,-8,-6
1523146811097449,-6,13,-16,14,-5,-1,-3,-4
1523146811097449,-8,-9,36,-14,9,4,5,-12
1523146811111579,-8,27,49,9,4,4,2,-8
1523146811111579,0,-14,-57,-5,-3,-5,-3,2
1523146811112581,-10,4,11,-15,-9,-3,-2,2
1523146811112581,-7,6,26,7,16,6,8,3
1523146811134197,-9,8,-13,-18,-3,-7,-7,4
1523146811134197,-5,11,21,7,6,1,-1,0
1523146811135144,-4,6,-27,8,-7,-3,-2,-1
1523146811135144,-5,3,8,-6,-5,-4,-6,-11
1523146811165017,-3,9,17,13,6,2,3,0
1523146811165017,6,4,12,-4,-7,-2,2,0
1523146811165954,-30,-12,4,14,5,0,0,-10
1523146811165954,-5,-6,-25,-15,-1,4,7,1
1523146811171995,-8,4,2,-18,-11,-8,-10,-1
1523146811171995,4,4,-10,12,-2,1,1,0
1523146811172335,24,-1,2,0,-6,-5,-4,0
1523146811172335,-21,-3,1,-15,-1,-3,-4,-3
1523146811194394,-10,7,-7,-6,-3,-2,-2,-2
1523146811194394,30,8,-2,-12,-9,-3,-2,-5
1523146811194894,-9,-9,-18,11,-1,-2,-3,-4
1523146811194894,19,13,-14,-13,-3,-5,1,1
1523146811217042,-3,2,-4,0,0,4,3,2
1523146811217042,-16,-7,12,-7,-3,-6,-4,-4
1523146811217455,9,7,-4,-10,-2,1,0,2
1523146811217455,-4,-16,0,4,-2,1,0,-1
1523146811231491,-7,1,-7,-1,-1,0,1,0
1523146811231491,-31,1,-8,-12,-4,-2,-1,2
1523146811232495,5,-2,-9,12,1,-1,1,-3
1523146811232495,-7,-6,9,0,-2,-1,1,-2
1523146811254256,-4,-5,11,-7,-2,-2,-2,1
1523146811254256,-5,1,-39,-10,-3,-3,-2,0
1523146811255054,1,-2,-3,5,2,1,0,-6
1523146811255054,-13,3,16,-6,-2,1,0,1
1523146811276611,26,14,-5,8,3,-1,-5,1
1523146811276611,-2,-4,5,-6,2,0,-1,1
1523146811277615,-18,-6,-23,-5,-5,-5,-2,-2
1523146811277615,2,5,0,-7,-4,-1,-3,-5
1523146811291916,-4,-1,-17,-2,1,0,-1,-2
1523146811291916,-5,-1,20,6,0,2,1,-2
1523146811292176,-26,-3,2,2,-1,-3,-5,-3
1523146811292176,4,-6,5,7,7,-1,1,-1
1523146811314265,2,10,-3,-18,-7,-2,-2,-1
1523146811314265,17,2,-5,10,0,0,0,0
1523146811315268,-4,20,23,13,3,3,3,0
1523146811315268,-1,-9,-28,-17,-8,-2,-2,-1
1523146811337012,-10,-6,6,7,2,0,2,-3
1523146811337012,11,6,12,2,-1,-1,-1,2
1523146811337326,-8,-8,-4,-1,0,1,-2,-2
1523146811337326,0,9,15,8,1,0,0,2
1523146811351601,-4,-5,-19,1,0,-1,-1,-1
1523146811351601,12,-5,2,-3,-2,1,-1,0
1523146811352366,25,3,4,-2,-1,-2,-2,-1
1523146811352366,2,-3,7,0,-4,-3,-1,0
1523146811374511,4,-2,3,2,1,-1,1,-1
1523146811374511,-3,-5,-3,12,4,0,1,1
1523146811374926,0,1,-10,-12,-4,-3,-4,0
1523146811374926,5,-8,-7,1,-3,-2,0,-5
1523146811397014,-9,-6,4,2,-3,-1,-3,0
1523146811397014,10,25,-2,-3,-2,-2,-1,0
1523146811397487,7,7,11,1,-2,2,1,-1
1523146811397487,-2,-6,-17,-1,-4,-1,-4,-2
1523146811411807,-8,-2,0,14,3,1,-2,-3
1523146811411807,19,2,-7,-11,0,3,3,4
1523146811412310,-7,-69,-5,-4,-2,-2,-2,-4
1523146811412310,0,18,1,-5,-4,-3,-3,-4
1523146811434135,-25,-12,-8,8,2,-1,-3,-2
1523146811434135,-9,-12,-2,-5,-1,-2,-3,-2
1523146811435272,6,21,-7,-3,-1,-1,0,1
1523146811435272,-14,-17,4,-2,-1,-1,-2,-2
1523146811456891,10,3,-79,-11,-3,-1,0,0
1523146811456891,-30,-7,-41,5,5,3,2,0
1523146811457696,-4,8,-3,-5,-1,1,0,3
1523146811457696,38,18,19,11,-3,-4,-6,-4
1523146811471974,-1,-3,10,-37,-4,1,2,-5
1523146811471974,-3,40,-38,2,8,9,6,-10
1523146811472451,20,-15,0,-3,-4,-5,-5,3
1523146811472451,-46,-55,-14,-4,0,0,2,27
1523146811494226,5,8,25,-3,-4,3,10,-19
1523146811494226,-40,7,-19,0,-1,-5,-6,9
1523146811494728,-12,3,-50,-3,-8,-13,-15,0
1523146811494728,7,31,2,-21,8,13,14,-1
1523146811516941,43,63,60,-1,-5,-9,-25,-14
1523146811516941,6,-32,-38,33,14,17,18,23
1523146811517287,-7,11,25,-29,-2,-2,-8,-6
1523146811517287,-13,17,23,-14,0,8,19,7
1523146811531324,-4,-43,-16,25,-1,-2,-1,2
1523146811531324,50,10,29,-33,-4,-4,-5,-1
1523146811539521,16,10,-45,29,2,-9,-5,-5
1523146811539521,43,-28,-85,34,2,1,-5,-7
1523146811554304,-14,-19,29,-5,13,15,14,20
1523146811554304,-74,-45,13,7,-13,-14,-6,-8
1523146811554608,-11,3,-9,2,-3,0,4,-11
1523146811554608,14,6,18,-3,-8,-12,-13,-12
1523146811577331,0,2,-17,-4,-6,-2,0,4
1523146811577331,-4,-9,-15,-3,-8,-6,-5,1
1523146811577670,1,8,19,-11,-6,3,9,8
1523146811577670,-31,14,5,2,0,-5,-7,-14
1523146811591865,-10,-15,26,2,-7,-10,-10,-3
1523146811591865,7,7,46,-3,-2,-2,-6,-12
1523146811592209,-9,4,5,15,4,0,4,2
1523146811592209,5,-7,-17,-19,-20,-2,-4,-1
1523146811614412,1,8,-4,18,18,4,1,5
1523146811614412,3,-8,19,-14,-3,-5,-2,-8
1523146811614768,2,1,-12,10,-1,-1,-1,0
1523146811614768,2,3,17,8,7,1,-4,2
1523146811636828,-5,-1,-12,-6,-2,-3,-2,-1
1523146811636828,4,5,20,1,-3,-2,-5,-6
1523146811637329,-1,-2,14,-7,-3,1,0,4
1523146811637329,-10,2,-10,-10,-14,-5,-6,-4
1523146811651912,-5,1,-9,-7,-5,-4,-1,-3
1523146811651912,11,4,-11,-17,2,-1,0,0
1523146811652368,-17,-6,-2,-13,2,3,-1,-6
1523146811652368,8,7,10,1,4,0,2,2
1523146811674459,9,8,2,10,-5,-5,-1,0
1523146811674459,-27,-11,-4,-18,-18,-4,-5,-6
1523146811674928,-19,-6,-5,-11,6,4,1,-5
1523146811674928,4,9,15,7,4,-3,-2,-1
1523146811696485,14,-1,-11,-4,2,-1,-2,4
1523146811696485,-1,5,23,4,7,3,-1,0
1523146811697490,2,3,10,-5,-2,1,1,-11
1523146811697490,-17,-3,1,2,3,1,0,4
1523146811711526,3,-19,-4,-1,-5,-3,-1,-1
1523146811711526,4,-9,5,5,-4,-3,-5,1
1523146811712529,28,0,9,4,2,2,-2,1
1523146811712529,-7,1,8,-2,-1,-3,-1,-5
1523146811734291,-5,12,18,1,-2,0,-1,-2
1523146811734291,7,8,15,8,4,0,0,-1
1523146811735293,-11,-5,29,-2,-4,-6,-4,0
1523146811735293,-15,-6,5,9,5,0,-2,-5
1523146811756934,-5,-7,-14,-19,-9,1,2,3
1523146811756934,-8,1,1,0,-2,-4,-3,-5
1523146811757352,-12,1,-1,3,-1,0,-1,1
1523146811757352,3,-1,-5,-2,1,-1,0,-4
1523146811771959,7,10,7,3,4,-1,0,1
1523146811771959,11,11,20,-3,-5,-3,-1,-2
1523146811772392,-5,2,-2,-1,0,4,1,-1
1523146811772392,-3,-7,-19,-8,-3,-1,-2,-1
1523146811794451,8,2,-2,5,4,3,2,-3
1523146811794451,9,5,-1,0,-2,-1,0,0
1523146811795454,-1,-17,-11,12,6,-2,-1,5
1523146811795454,3,-5,-19,-9,-5,0,-1,0
1523146811816668,-17,-2,1,-14,-2,-3,-4,-7
1523146811816668,1,9,4,-2,-4,-4,-1,-2
1523146811817512,-1,2,10,5,0,-1,-1,-1
1523146811817512,9,3,7,-2,2,2,0,2
1523146811831752,-12,-8,-13,-4,-4,-3,-5,-3
1523146811831752,-4,-8,-8,1,2,0,-1,-1
1523146811832597,10,2,6,4,-1,0,2,2
1523146811832597,-17,-8,-48,7,0,-1,0,-2
1523146811854434,0,9,11,7,2,1,4,2
1523146811854434,4,-5,-5,-6,-6,-3,-1,-5
1523146811854855,4,9,7,-14,-8,-3,-2,1
1523146811854855,21,-11,9,2,2,0,1,3
1523146811876576,-3,22,9,8,1,0,-1,-1
1523146811876576,6,6,-8,-5,4,4,5,2
1523146811884481,-23,-18,-14,-4,3,2,2,-1
1523146811884481,13,3,11,-8,-3,-2,-3,0
1523146811891614,4,-7,-4,2,-3,-6,-1,2
1523146811891614,-8,-7,-9,-5,-1,-3,-4,-3
1523146811892455,6,8,2,3,1,4,1,-2
1523146811892455,-2,17,26,-7,-5,-5,0,0
1523146811914175,23,5,-4,9,4,5,4,1
1523146811914175,4,45,15,-14,-6,-3,-2,1
1523146811915016,4,-8,-6,-9,-4,-5,-4,-6
1523146811915016,-26,3,12,3,-6,-7,-6,-2
1523146811937659,8,24,18,-10,-11,-7,-6,-5
1523146811937659,0,-100,19,3,2,0,0,-1
1523146811938078,-14,49,-16,-14,-2,4,5,-1
1523146811938078,6,-34,-8,9,12,13,8,-5
1523146811951614,-66,-26,-5,-9,-1,-2,-13,-12
1523146811951614,-17,-13,20,17,0,-6,-3,-8
1523146811952115,51,-18,-23,39,-2,-10,-2,17
1523146811952115,-4,6,-11,-27,-4,14,8,-4
1523146811974331,-73,-49,21,5,7,-4,4,-8
1523146811974331,71,25,-35,31,8,15,5,17
1523146811975175,-49,8,7,-9,0,-15,-10,-15
1523146811975175,16,35,-31,5,1,7,16,6
1523146811996734,16,-30,-69,0,11,14,-1,-4
1523146811996734,-48,-35,-2,-14,-7,-2,4,9
1523146811997735,-21,34,24,-6,-3,0,-3,-6
1523146811997735,9,51,26,-42,-13,-17,-12,-3
1523146812010772,19,45,14,15,-2,-5,2,5
1523146812010772,10,0,-29,-9,11,2,-1,-10
1523146812019451,38,22,6,-15,-23,-1,-2,2
1523146812019451,-33,-10,29,13,7,-14,-15,-9
1523146812034332,32,8,9,-12,18,5,3,13
1523146812034332,-6,8,-22,-11,-14,-2,1,-1
1523146812034834,25,-21,-74,8,-6,12,6,8
1523146812034834,-44,4,-3,5,-3,-10,-6,-1
1523146812056935,-8,-53,-5,-9,-4,-7,-3,-19
1523146812056935,-85,2,-15,2,-9,-10,-9,-12
1523146812057393,8,-7,31,3,15,-1,-1,1
1523146812057393,24,-36,14,20,-3,-1,-1,6
1523146812072616,4,63,21,-9,-3,8,3,4
1523146812072616,0,-48,8,-1,6,-4,-6,-3
1523146812079290,-7,-6,-1,-23,-1,1,1,-4
1523146812079290,-6,-9,-1,15,-1,-1,-4,0
1523146812094173,-3,8,-3,-3,-9,-10,-6,1
1523146812094173,34,25,3,1,5,4,-2,-2
1523146812094676,0,-9,9,3,6,-2,3,1
1523146812094676,11,-15,-20,1,-1,1,-2,-1
1523146812116733,6,-2,-13,-3,-4,1,6,3
1523146812116733,8,7,-13,-6,-6,0,1,2
1523146812117734,-11,-23,7,13,-1,-3,-2,-4
1523146812117734,-9,7,14,-14,1,-2,-3,-5
1523146812130931,13,-4,5,3,-8,-2,-1,2
1523146812130931,-8,4,8,6,-1,-4,3,0
1523146812139292,-3,10,19,-5,16,19,3,2
1523146812139292,-3,-1,-27,-5,-4,2,-1,-2
1523146812162355,27,0,2,3,2,3,3,4
1523146812162355,11,12,9,-13,-5,-8,-7,0
1523146812162860,14,1,-6,24,-2,-4,1,-2
1523146812162860,-8,-7,-8,-9,4,3,-1,2
1523146812176892,3,-25,-18,-1,-6,0,0,0
1523146812176892,-3,23,53,21,4,0,-2,-8
1523146812177394,-3,-12,-12,-11,-3,-5,-4,-3
1523146812177394,24,9,12,6,-1,3,1,1
1523146812191092,14,-6,-15,7,-2,-5,0,3
1523146812191092,-1,7,-4,-7,-3,0,0,-5
1523146812198951,-24,-7,-7,-3,-4,-2,-4,-4
