timestamp,emg1,emg2,emg3,emg4,emg5,emg6,emg7,emg8
1523177543318785,3,-6,-65,-32,-5,-2,0,1
1523177543318785,-9,-14,19,-10,-9,-7,-5,-7
1523177543319788,0,3,4,2,3,2,-1,0
1523177543319788,0,0,4,2,0,0,-2,-2
1523177543319788,0,6,27,27,6,2,0,2
1523177543319788,1,-1,-12,-4,-1,0,0,3
1523177543320790,-1,-4,-9,-29,-4,-1,-2,-1
1523177543320790,-1,2,8,9,1,-2,-2,1
1523177543331820,-5,-2,1,-2,-2,-2,-2,-4
1523177543331820,1,-1,-17,16,2,1,1,0
1523177543341848,-1,-2,11,-1,2,-1,-1,-2
1523177543341848,1,0,-11,-5,-3,-1,-1,0
1523177543347863,-1,-4,0,-1,-1,-1,-1,0
1523177543347863,2,3,-6,-16,-2,-1,-1,0
1523177543361901,-1,0,12,34,19,4,-1,0
1523177543361901,0,-2,-9,-18,-10,-2,1,-1
1523177543369921,-1,-1,2,3,-2,-2,-3,-2
1523177543369921,0,2,6,1,2,2,-1,-1
1523177543384961,0,-1,-13,-10,-7,-5,-1,-1
1523177543384961,-2,-3,-2,-3,2,-1,-1,0
1523177543392983,0,0,19,6,-2,-1,0,1
1523177543392983,-1,-1,-28,-5,-1,1,-1,1
1523177543406019,-1,-2,4,15,-5,-2,-2,-5
1523177543406019,-1,-1,-9,-19,0,0,0,-4
1523177543448130,-2,0,6,0,-2,-1,-2,-2
1523177543448130,0,1,10,3,2,0,-2,-2
1523177543449133,1,0,-5,3,-1,-1,-2,1
1523177543449133,-1,2,-9,-6,3,2,-1,-2
1523177543452141,-2,-1,14,31,-4,-3,-1,1
1523177543452141,-2,-1,-4,-17,-4,-2,0,1
1523177543453144,-1,1,1,1,0,1,-1,-1
1523177543453144,-2,-1,-4,-13,-1,-1,-2,1
1523177543459158,0,-4,3,6,0,-1,-1,-3
1523177543459158,-1,0,6,12,0,-1,-1,0
1523177543466177,-4,-5,-21,-20,-4,0,-1,-3
1523177543466177,1,1,1,-3,-2,-1,0,0
1523177543474198,-1,0,-5,-9,2,1,1,-1
1523177543474198,0,-1,3,-19,-1,-2,-1,-1
1523177543489240,-1,-1,6,13,-1,-1,0,0
1523177543489240,-2,-1,-2,-8,-3,-2,-1,-1
1523177543496296,0,2,-4,12,1,0,1,0
1523177543496296,-3,-3,-7,-25,-4,-2,-2,-3
1523177543520359,-1,-2,3,29,2,-2,-2,-3
1523177543520359,1,-4,-3,-10,-5,-1,0,0
1523177543521324,-1,1,-3,-10,-1,-1,-2,0
1523177543521324,0,2,18,17,-1,0,0,-1
1523177543534358,-2,1,-33,-3,2,-1,-1,0
1523177543534358,-2,-3,17,28,-5,-5,-1,-3
1523177543535361,-1,-1,-6,-30,-2,-1,-3,0
1523177543535361,2,-2,-1,11,2,0,1,0
1523177543557454,-1,0,3,-3,-1,-1,1,2
1523177543557454,-1,10,10,26,5,0,-1,-1
1523177543557454,-2,-17,-24,-19,-2,2,-2,1
1523177543557454,0,9,11,18,0,0,-2,0
1523177543580483,-1,-7,-1,14,-3,-2,-1,0
1523177543580483,-2,-1,-2,-14,-3,-1,-1,-3
1523177543581486,1,6,8,-1,-2,-1,-1,-3
1523177543581486,-1,-4,-15,0,-3,-1,1,-1
1523177543594519,-1,-1,9,-8,1,-1,-2,-3
1523177543594519,0,-1,2,2,1,0,1,-1
1523177543595522,-1,0,-2,-7,-2,1,-1,0
1523177543595522,-1,-3,-6,-8,2,0,-2,0
1523177543616611,-1,1,3,-24,-2,-1,1,-2
1523177543616611,-1,-5,3,5,-4,-1,0,0
1523177543617581,-1,2,0,41,0,-1,0,-1
1523177543617581,-2,-4,-12,-34,0,-3,-2,-2
1523177543640668,0,1,12,7,-1,-2,0,0
1523177543640668,0,-2,-4,-21,1,1,-2,-1
1523177543640668,0,1,-8,-2,-1,-1,-1,-1
1523177543640668,0,6,8,18,0,2,1,-1
1523177543654732,-3,-8,-9,-13,-4,-3,-3,-2
1523177543654732,0,1,-5,5,-2,-2,0,-2
1523177543655736,-1,-3,-8,-17,-1,-2,-1,-1
1523177543655736,1,2,6,26,-1,0,-2,-2
1523177543676737,0,1,-2,-19,0,0,0,-1
1523177543676737,-2,-1,-1,8,-1,-1,-2,-1
1523177543677740,1,4,9,-11,-1,-4,0,-2
1523177543677740,-3,-8,-9,-4,0,0,0,2
1523177543699832,1,1,7,11,-4,-1,-3,-1
1523177543699832,-1,-1,-6,4,3,0,-4,1
1523177543700802,0,-2,5,-24,3,1,2,-2
1523177543700802,-1,-2,-8,-1,-2,-2,-1,-1
1523177543714872,-1,-2,3,-12,-3,0,-1,0
1523177543714872,-1,-2,-7,-5,-2,-1,0,-2
1523177543715841,-2,0,1,-2,-3,-1,-2,-2
1523177543715841,-1,-4,0,-3,-4,-3,0,0
1523177543736897,0,1,2,1,4,1,1,1
1523177543736897,0,1,5,8,5,2,1,0
1523177543737900,-2,-4,-3,-1,-8,4,1,0
1523177543737900,-4,-8,-27,-23,-6,0,-3,-5
1523177543759958,-1,1,12,19,8,-2,-3,-1
1523177543759958,0,-3,-4,-13,-9,-8,-4,-1
1523177543760962,0,1,14,17,0,-3,1,0
1523177543760962,-1,5,4,22,8,3,0,1
1523177543774998,0,-2,-8,-18,-1,6,1,0
1523177543774998,-1,-4,0,-7,0,0,-1,-1
1523177543774998,-3,0,-9,-17,-9,-5,-3,-2
1523177543774998,0,6,8,-1,-6,-6,-2,-3
1523177543797091,-1,-6,-20,6,0,-2,0,-1
1523177543797091,-3,0,-13,0,0,-2,0,-1
1523177543798093,-3,-1,10,1,-2,-3,-4,0
1523177543798093,1,-2,6,11,1,0,-1,0
1523177543821122,0,7,1,-41,1,0,-2,-1
1523177543821122,-1,-5,-1,8,-9,-4,-1,-1
1523177543821122,0,-3,-8,17,3,1,-2,0
1523177543821122,-2,0,1,-8,2,1,0,-2
1523177543834210,0,2,16,-5,-5,-3,0,-1
1523177543834210,-1,-6,-14,9,1,3,0,1
1523177543835159,-1,0,2,-9,2,0,-1,-3
1523177543835159,0,-4,3,9,-2,-3,-1,0
1523177543857256,0,-3,-16,3,-4,1,-1,-1
1523177543857256,-2,4,5,-40,1,-1,0,0
1523177543858256,1,-1,9,44,2,-1,-2,0
1523177543858256,-1,-2,-21,-25,-4,0,-1,-1
1523177543880280,0,-4,-9,-4,-4,-3,-1,-2
1523177543880280,1,2,8,8,4,0,-1,-3
1523177543881283,0,0,-2,-2,1,-2,0,-1
1523177543881283,-1,-2,5,1,-2,-2,-2,-1
1523177543902338,-1,0,-3,-20,-2,-2,-2,-1
1523177543902338,-2,-3,3,7,-5,-4,-1,-4
1523177543903340,-3,-6,-9,-9,-5,-3,-1,-2
1523177543903340,0,1,8,11,6,4,2,-1
1523177543917376,2,1,5,18,4,1,3,0
1523177543917376,2,1,1,-6,-2,1,-1,0
1523177543918379,-1,-1,-4,-5,-3,-3,-1,0
1523177543918379,-2,-3,-1,-2,-5,-3,-4,-1
1523177543940439,-4,-1,5,8,-1,-2,-3,-4
1523177543940439,1,-1,6,6,2,1,-2,-2
1523177543941443,-1,-1,-1,-9,0,0,-2,-2
1523177543941443,-3,0,-3,6,-2,-2,-1,0
1523177543953506,-1,-3,5,-8,-8,-4,0,1
1523177543953506,0,0,5,3,4,3,-1,0
1523177543962498,-1,1,-4,7,0,1,-1,0
1523177543962498,2,2,1,-2,-2,-1,1,0
1523177543976534,-3,-1,-11,-11,-5,-2,-2,-1
1523177543976534,-2,-1,-9,6,-5,-6,-1,-1
1523177543977537,0,-1,3,-20,-1,-3,-4,-2
1523177543977537,2,0,-3,3,7,3,3,0
1523177544000600,0,1,-1,19,6,2,0,-1
1523177544000600,0,2,3,-12,-4,-2,0,-1
1523177544000600,-2,-11,-28,-9,-3,-2,-2,1
1523177544000600,-2,-3,-6,-8,-6,-4,-4,-2
1523177544013672,-1,2,11,-1,0,-3,-3,-1
1523177544013672,0,-2,5,-13,1,0,-2,1
1523177544021709,1,1,-11,5,0,1,0,1
1523177544021709,1,-1,4,-25,-2,0,-1,-1
1523177544036694,-4,-2,10,34,-3,-1,-1,-2
1523177544036694,0,-3,-14,-5,-2,-2,0,-1
1523177544037696,-2,6,17,-9,0,-1,2,1
1523177544037696,-2,-3,-6,-4,-2,0,0,-2
1523177544059755,-1,2,15,12,-1,-5,-3,-1
1523177544059755,-2,-7,-40,-20,2,-2,-1,-2
1523177544060759,0,-1,9,-19,-1,1,2,-2
1523177544060759,0,5,6,42,2,-2,-1,1
1523177544073826,-3,-15,-16,-41,-10,-9,-3,-3
1523177544073826,-1,2,9,23,5,2,-1,0
1523177544081848,-1,0,-7,-10,0,-3,-1,0
1523177544081848,0,-2,-9,-10,-10,-6,-3,-1
1523177544096892,1,5,3,11,4,8,3,3
1523177544096892,-3,0,5,15,7,9,2,-1
1523177544097858,0,0,-2,-4,7,3,0,-2
1523177544097858,-3,0,10,-3,-7,-5,-2,-2
1523177544120951,-3,-6,0,5,-7,-5,-3,-2
1523177544120951,-2,-1,6,-8,-7,-7,-1,0
1523177544121921,1,-2,-1,2,0,-3,-1,0
1523177544121921,-3,-9,-24,32,4,0,-2,0
1523177544133986,1,-1,-18,-63,-4,1,1,1
1523177544133986,0,1,11,37,6,-1,-2,-1
1523177544141975,0,-4,1,21,-1,-2,-1,0
1523177544141975,0,1,5,-3,0,0,0,-1
1523177544157014,0,0,-3,0,1,1,0,1
1523177544157014,-1,-1,-7,-11,-3,-1,-1,-2
1523177544158017,-3,1,0,4,-5,-2,-1,-2
1523177544158017,-1,-2,1,-13,-2,-1,-3,-1
1523177544180074,0,1,-1,23,5,3,-1,0
1523177544180074,0,0,5,-17,-3,-2,-1,-1
1523177544181078,1,5,0,24,-2,1,1,0
1523177544181078,-1,-5,5,-59,-3,-1,-1,-2
1523177544194115,-1,-7,-20,9,0,-3,-1,-2
1523177544194115,0,-3,14,26,-4,-3,-2,-1
1523177544202135,0,1,3,-23,0,-2,0,-2
1523177544202135,-2,1,-5,28,1,-1,-1,-5
1523177544217174,3,5,12,3,-1,-1,2,0
1523177544217174,-3,-2,-9,-16,1,2,1,-2
1523177544218177,1,-3,1,15,-2,2,-1,0
1523177544218177,0,2,11,-17,4,2,1,0
1523177544240235,-1,-2,-6,9,-2,0,-2,1
1523177544240235,-3,-1,-4,12,-5,-4,-3,-1
1523177544241238,-2,-1,4,-2,-1,-3,-1,-2
1523177544241238,0,-2,-11,-6,-1,-2,0,-2
1523177544262293,0,0,1,7,-1,0,-2,-2
1523177544262293,-1,-3,-7,-20,0,2,0,-2
1523177544263296,-1,1,0,1,1,0,-2,0
1523177544263296,-1,-5,1,10,-1,-1,-1,1
1523177544277334,-1,2,-2,-20,-3,-1,-2,0
1523177544277334,3,4,12,19,-2,0,1,0
1523177544277334,-2,-1,18,-12,2,1,1,-2
1523177544277334,-1,-2,-18,8,-1,2,0,-2
1523177544300394,-1,5,-3,-2,0,-3,-3,-2
1523177544300394,0,-1,39,-5,-2,-3,-3,-2
1523177544301399,-1,-12,-19,3,-8,-4,-2,1
1523177544301399,-1,5,6,-7,-1,2,1,0
1523177544322453,-1,2,5,13,11,3,1,-1
1523177544322453,-2,-4,-3,-11,-3,-5,-2,1
1523177544323456,-1,5,-6,-2,-2,-2,0,-1
1523177544323456,-2,-5,5,-4,5,-2,-1,0
1523177544336491,-2,-4,-3,2,-12,-2,-1,0
1523177544336491,-2,1,-15,2,8,4,1,-2
1523177544337493,-1,0,0,-5,-4,1,-1,-2
1523177544337493,-1,1,-11,-8,-6,-1,0,0
1523177544360555,1,1,11,11,5,1,-1,-3
1523177544360555,0,-3,-11,-19,-1,1,-2,1
1523177544360555,-1,-2,-8,25,-2,-1,-4,-3
1523177544360555,0,2,11,-26,-4,-4,-4,-1
1523177544382615,-1,-1,0,28,-5,-1,-1,-1
1523177544382615,1,-5,-14,-20,-4,-2,-1,-1
1523177544383616,-3,-2,5,-3,4,0,-1,-3
1523177544383616,1,5,-2,6,1,-1,-1,0
1523177544396652,-1,-2,13,-6,2,-1,-1,-1
1523177544396652,-2,-3,-33,2,-2,-1,1,-3
1523177544397654,0,-2,-19,-26,-3,-1,0,0
1523177544397654,-2,-5,2,15,0,0,0,-3
1523177544418763,-3,0,12,-26,-3,-4,-1,-2
1523177544418763,0,1,2,15,-2,0,0,1
1523177544427733,-2,1,7,-4,1,0,-2,-2
1523177544427733,-2,1,-6,6,2,0,0,-2
1523177544442774,-1,-3,-24,-1,-1,-2,0,0
1523177544442774,-1,1,6,-5,0,-4,-4,-1
1523177544444780,2,1,5,-2,-3,-1,-1,1
1523177544444780,0,-6,-9,14,3,1,2,-2
1523177544464833,-1,-1,0,-1,1,0,0,-1
1523177544464833,0,-2,1,-5,-4,-1,0,0
1523177544466839,-2,-2,-10,14,2,-3,-2,2
1523177544466839,-3,-1,6,-48,-4,-2,-3,-1
1523177544487894,2,-3,4,10,-6,-4,-2,-1
1523177544487894,3,-1,-41,4,6,1,1,0
1523177544488898,-4,-11,13,-1,-2,1,-3,-6
1523177544488898,0,5,14,1,0,-5,-3,-1
1523177544502972,1,3,7,29,7,4,2,0
1523177544502972,-2,-6,-5,-24,-11,-5,-3,0
1523177544503972,0,8,-28,3,0,0,1,1
1523177544503972,1,-3,-6,3,-4,0,-1,1
1523177544525031,-1,5,22,-17,-3,-4,-2,-1
1523177544525031,-1,0,13,14,2,1,-2,-1
1523177544526998,0,1,2,-3,-2,-3,-1,0
1523177544526998,-1,0,-1,-2,-6,-5,-3,0
1523177544539029,-1,0,-4,17,2,-1,-3,-2
1523177544539029,0,2,2,-8,3,2,2,-1
1523177544548054,0,-1,-9,-10,-1,1,0,1
1523177544548054,-3,-10,-14,12,7,1,0,-2
1523177544563095,-3,-8,-5,-1,-4,-2,-2,-1
1523177544563095,-2,5,11,9,-4,-1,-2,0
1523177544564096,1,4,9,-20,0,0,0,-3
1523177544564096,1,0,0,22,-2,-1,2,-1
1523177544585205,0,-4,-12,-7,1,0,-2,1
1523177544585205,-1,1,15,-24,-4,-2,-1,-1
1523177544587210,-1,2,22,11,1,0,1,1
1523177544587210,0,4,16,2,0,0,-2,0
1523177544599191,-3,-2,-25,-18,-6,-3,0,-3
1523177544599191,-3,-7,-10,-9,-6,-2,-1,-2
1523177544608215,-1,3,7,17,7,9,-1,0
1523177544608215,0,5,13,3,0,-1,-1,-1
1523177544622287,0,-11,-10,-17,-2,-2,-1,1
1523177544622287,-4,-5,-1,14,-3,-1,-1,-2
1523177544624256,1,0,-2,-15,-7,-8,-4,-2
1523177544624256,-3,-1,-17,-11,-2,-1,-3,-1
1523177544645313,-1,3,4,-9,-4,-3,0,-1
1523177544645313,1,1,5,10,2,-2,0,-1
1523177544647357,-3,-13,-10,0,1,1,2,-1
1523177544647357,-1,4,14,-10,3,-1,-3,-3
1523177544658347,1,2,-17,4,-2,-1,2,1
1523177544658347,-3,-5,7,29,-1,-3,-3,-2
1523177544668373,-3,2,30,-44,-4,-4,-1,-3
1523177544668373,0,-3,3,43,-6,-2,-1,-1
1523177544682450,-4,0,-3,-12,-3,-1,-1,-2
1523177544682450,0,5,2,7,10,3,0,-1
1523177544684416,2,-1,-12,14,-2,0,2,2
1523177544684416,-4,1,-4,-18,-2,-2,1,-3
1523177544705473,-1,-11,6,1,1,-1,-4,-3
1523177544705473,-1,-1,-2,-4,-8,-1,-2,-1
1523177544706476,-1,-2,-7,-2,2,-2,-2,-1
1523177544706476,-2,-4,-12,-10,1,0,-1,1
1523177544718508,-2,3,-7,10,-3,0,-2,-2
1523177544718508,-3,-5,1,-13,-1,-3,-1,-2
1523177544727531,1,-2,-7,-6,3,-1,0,1
1523177544727531,1,0,-27,-9,-4,-1,0,0
1523177544742571,-1,2,12,8,-1,1,0,-1
1523177544742571,-4,-4,0,-6,0,1,-1,-2
1523177544744576,-9,-39,23,21,0,1,2,0
1523177544744576,-1,-4,-7,0,0,1,-1,-1
1523177544765665,-1,-1,-4,-10,3,0,0,-1
1523177544765665,0,4,3,-9,-8,-4,-2,-2
1523177544767670,0,8,-2,12,1,-2,-2,-2
1523177544767670,1,1,-10,-18,-2,-2,-1,-1
1523177544778668,-2,-17,15,2,-7,-4,-2,0
1523177544778668,-1,1,-21,6,9,7,0,0
1523177544787689,0,7,-2,-20,-4,-1,-2,-1
1523177544787689,-1,-2,4,37,9,4,0,0
1523177544801729,0,13,-6,-23,0,-3,-1,-1
1523177544801729,-2,-5,2,-1,-8,-8,-1,0
1523177544808746,1,3,-5,-2,-7,-2,-4,-3
1523177544808746,-2,-3,18,-15,1,-2,0,-1
1523177544824790,-3,-4,-15,8,4,2,2,-1
1523177544824790,-1,5,13,-15,1,0,0,-2
1523177544826794,0,1,-11,8,-3,-2,-2,0
1523177544826794,-1,2,19,6,-6,-4,-3,-2
1523177544847851,-1,-1,-3,-7,-1,1,-2,-1
1523177544847851,0,1,2,9,1,-1,-1,-2
1523177544848852,-2,8,-6,-3,1,-2,-1,0
1523177544848852,0,2,3,15,-1,2,-1,1
1523177544861889,0,-12,-3,-11,2,0,0,-2
1523177544861889,0,0,-6,7,-6,-3,-1,-1
1523177544868907,1,8,14,-23,-4,-4,-3,-2
1523177544868907,-2,-4,2,15,-2,-1,-3,-1
1523177544884984,1,6,-5,-25,3,1,0,1
1523177544884984,-1,-4,10,22,0,0,0,0
1523177544886954,-1,-1,-7,-9,-1,0,0,1
1523177544886954,-2,-1,-3,-13,-5,-2,2,-2
1523177544908048,0,5,13,6,-1,-1,-4,-1
1523177544908048,1,-4,-26,-10,-1,-3,-1,-1
1523177544909015,0,2,4,6,-2,-3,-4,-2
1523177544909015,-3,-1,-9,1,-3,-1,1,1
1523177544922048,-5,-1,1,13,-1,-1,-1,-3
1523177544922048,2,-5,-4,-31,-6,-1,0,1
1523177544929101,-2,0,-8,17,2,-2,0,-2
1523177544929101,-1,-9,-9,-15,3,0,-2,0
1523177544945145,1,0,9,14,-4,-2,-1,-1
1523177544945145,0,0,-8,-9,-3,1,0,-1
1523177544947150,0,1,-1,8,2,0,-2,-2
1523177544947150,-2,-2,2,-24,-3,-3,-1,0
1523177544968168,-1,-1,-4,28,1,1,0,0
1523177544968168,-1,-2,-8,-11,0,0,-1,1
1523177544969172,0,7,-12,-1,-4,-2,-2,1
1523177544969172,1,-3,7,-1,5,2,0,-2
1523177544982262,2,0,-12,1,-3,-3,-3,0
1523177544982262,-1,1,15,24,2,1,-1,-2
1523177544989226,2,1,1,-16,1,3,4,-2
1523177544989226,-2,-7,-12,5,-7,-2,-1,-2
1523177545005267,-3,-1,-3,-11,-2,-2,-2,1
1523177545005267,-3,-5,-4,-8,-2,-3,-2,-1
1523177545011285,-2,1,8,19,0,-1,2,1
1523177545011285,-2,-5,-24,-12,-5,-5,-4,0
1523177545027328,-2,-1,3,-4,0,-1,1,-1
1523177545027328,-1,-5,-16,-1,-2,-1,-3,0
1523177545029333,-2,-7,3,4,-3,-1,-1,-1
1523177545029333,0,1,5,0,-1,-1,-2,-2
1523177545042368,-3,2,-7,-5,-3,-2,-2,-2
1523177545042368,0,1,13,17,3,-1,-2,0
1523177545048420,2,-7,-17,-34,-5,-2,-4,-1
1523177545048420,0,3,18,19,-1,0,1,1
1523177545065461,0,-2,-23,-29,6,4,0,-2
1523177545065461,-1,1,4,7,2,3,2,1
1523177545066465,-2,-2,6,10,-4,-3,-2,0
1523177545066465,-1,-3,-18,-6,-2,-3,-2,0
1523177545087525,0,4,26,6,-3,-2,-4,0
1523177545087525,-1,-1,-2,-17,-3,-1,-1,-2
1523177545089530,0,-4,-10,13,-2,0,-4,-3
1523177545089530,0,-3,-1,-11,2,-1,-1,-1
1523177545102526,-2,0,7,20,-1,-1,1,0
1523177545102526,-2,4,1,-8,-1,-1,0,-1
1523177545108542,-1,-1,7,4,1,0,0,-2
1523177545108542,0,1,-3,-23,-3,-1,-1,-1
1523177545125590,-1,-7,-3,15,-7,-3,-3,-1
1523177545125590,-1,4,-6,-17,1,-1,-1,-2
1523177545126591,-3,-7,18,22,-1,-1,-3,-1
1523177545126591,0,5,-10,13,4,1,1,-1
1523177545147646,-1,-4,-5,-20,-3,0,-1,0
1523177545147646,-1,-4,10,19,-1,-3,-1,-2
1523177545149652,-3,-2,-7,5,-3,0,-2,-1
1523177545149652,-2,1,3,-7,-4,-4,-4,-3
1523177545161683,0,-1,6,14,1,1,0,0
1523177545161683,0,-1,-1,4,2,1,-1,0
1523177545168703,1,0,-5,-5,2,1,3,0
1523177545168703,-2,-4,12,-4,-1,0,0,-1
1523177545184779,-4,0,0,-3,-3,-2,-3,-2
1523177545184779,-1,-3,-14,-1,-3,-3,-1,-2
1523177545186751,0,2,6,6,-2,-2,-2,0
1523177545186751,-2,-2,-9,6,0,1,0,0
1523177545207806,0,-1,-1,-12,-3,-3,-2,-2
1523177545207806,-2,-1,7,7,0,1,0,1
1523177545209813,-2,-6,-16,-22,-3,-2,0,-2
1523177545209813,1,3,10,8,-2,-1,-1,-1
1523177545221877,-2,-5,1,-2,2,0,1,0
1523177545221877,0,2,1,3,-1,-2,-2,-1
1523177545228896,-1,1,-8,-13,-1,0,1,0
1523177545228896,-1,1,7,-2,-1,-2,-1,-1
1523177545244904,1,-13,-20,14,0,-1,-1,0
1523177545244904,1,2,-7,-18,0,0,-1,-2
1523177545246912,0,2,9,12,3,-1,0,-1
1523177545246912,1,-4,-2,3,1,1,1,-1
1523177545267966,1,8,12,1,-1,-2,-1,1
1523177545267966,-3,-11,-31,-15,-2,-3,-3,0
1523177545268969,-1,5,13,1,0,-1,-2,-4
1523177545268969,-1,1,-1,6,-1,-2,-1,-1
1523177545290026,-2,0,7,-20,-2,-1,1,-2
1523177545290026,-1,1,13,25,-2,-1,-2,-2
1523177545292031,-4,-3,-5,24,2,0,1,-1
1523177545292031,-4,-2,-11,-45,-3,0,-1,-2
1523177545305066,0,8,14,12,0,1,-1,-1
1523177545305066,-1,-4,6,-13,-5,-2,-1,0
1523177545307071,0,-2,-11,-1,2,-1,2,-2
1523177545307071,-2,-3,11,15,1,0,0,-2
1523177545328128,1,-3,-8,-8,-1,-2,-2,2
1523177545328128,-1,1,5,-1,-2,0,0,1
1523177545329129,-2,0,-5,-5,-3,-1,-4,-1
1523177545329129,-1,-3,-7,-2,-2,-2,0,1
1523177545341553,-1,-4,-1,-2,-3,-1,0,-3
1523177545341553,0,0,10,2,2,0,-2,1
1523177545350328,0,1,4,3,2,0,3,0
1523177545350328,0,0,-24,-9,-1,0,0,1
1523177545365265,-4,-1,8,-2,-1,-3,-3,-3
1523177545365265,-1,-4,-3,3,-5,-3,-1,-1
1523177545367270,-3,-3,-12,-2,-2,-1,-1,-1
1523177545367270,2,1,3,14,1,0,-1,0
1523177545387285,2,3,1,0,0,0,1,-1
1523177545387285,-1,-3,-3,-9,0,-1,2,-1
1523177545389290,2,-4,-14,-21,-1,-1,-1,1
1523177545389290,-3,5,26,29,-4,-1,-3,-1
1523177545401342,0,-3,-11,-7,2,-2,1,1
1523177545401342,0,0,0,-5,-2,-2,-3,-1
1523177545410346,-1,-5,-11,-7,-3,-3,-3,0
1523177545410346,-1,0,10,-20,-3,-3,-2,-1
1523177545425386,-3,-2,-25,8,1,3,-2,-2
1523177545425386,1,2,9,3,2,1,2,-3
1523177545427686,-2,0,-6,0,-1,-2,-1,-1
1523177545427686,0,-2,0,-2,-1,-2,-2,-1
1523177545447443,1,4,5,1,0,-1,-2,-3
1523177545447443,0,-4,-3,-8,-2,-3,0,0
1523177545449448,-1,1,13,-2,-1,-2,-1,1
1523177545449448,-1,-4,-6,2,-1,0,-2,-2
1523177545461480,0,-1,2,1,0,0,0,-2
1523177545461480,1,1,-1,17,2,3,1,-1
1523177545470504,-2,-5,17,-32,-3,-1,-1,-2
1523177545470504,-1,0,5,17,-2,-2,-2,0
1523177545485544,-1,-3,-1,-2,-2,-1,-2,1
1523177545485544,-2,2,3,-2,-1,-3,-1,0
1523177545486546,2,-1,2,1,1,-2,0,-1
1523177545486546,2,-5,-11,2,1,0,1,0
1523177545507604,0,1,-1,-23,-2,0,0,-2
1523177545507604,-3,-1,7,7,0,-1,-2,-1
1523177545509611,-2,-5,-12,12,-3,-1,-1,-2
1523177545509611,-3,2,-8,-34,1,1,0,1
1523177545521641,1,-3,-8,22,-2,-2,-2,0
1523177545521641,-1,-4,3,-1,-2,-3,-3,0
1523177545530666,-1,4,6,3,-1,1,0,0
1523177545530666,2,1,-4,9,0,-1,1,0
1523177545545705,0,-2,-14,-22,-3,-2,0,0
1523177545545705,-2,3,4,-4,-1,-1,-3,0
1523177545546707,0,-1,-1,3,0,-2,-1,0
1523177545546707,-1,-2,10,0,-2,-2,-1,-3
1523177545567764,-3,0,4,5,-1,-2,-1,-2
1523177545567764,1,-1,-8,0,1,-1,0,-1
1523177545569770,0,-5,-9,4,-1,0,0,1
1523177545569770,0,5,-1,-6,0,0,-1,1
1523177545581800,-5,-5,18,6,-7,-5,-3,-1
1523177545581800,1,-1,-2,-3,-2,-2,0,-2
1523177545597844,-1,-6,-27,-2,0,0,0,0
1523177545597844,-1,-2,-17,0,-1,-1,-3,-2
1523177545604899,1,2,8,2,1,1,-1,-2
1523177545604899,0,-2,-12,-8,-1,0,0,2
1523177545606867,1,6,11,3,-1,1,0,0
1523177545606867,-3,-11,-8,5,0,-1,-2,-1
1523177545627922,-1,1,8,1,-3,-1,-1,-1
1523177545627922,0,0,-16,-3,1,-1,0,-2
1523177545628926,-2,-4,32,33,-1,-2,-3,0
1523177545628926,-2,-5,-17,-86,-5,-3,3,0
1523177545640958,2,3,2,22,2,0,-2,1
1523177545640958,-2,-6,1,1,1,0,-2,-2
1523177545649982,0,4,-3,-1,-1,-2,-3,-2
1523177545649982,-1,1,13,20,0,-2,0,-1
1523177545665021,-2,-6,-11,-9,1,0,1,-2
1523177545665021,1,-1,6,-9,-2,0,0,-1
1523177545667027,-1,0,-5,-7,-1,-3,-3,-2
1523177545667027,-1,-1,2,15,-4,-1,3,-3
1523177545688084,1,-3,-13,-9,-2,0,-4,-2
1523177545688084,0,1,7,14,2,2,1,-1
1523177545689085,1,-1,-3,-13,1,-1,-2,1
1523177545689085,-1,-1,-3,9,-2,0,-5,-1
1523177545701151,-1,-1,7,3,-1,-1,1,1
1523177545701151,-1,3,4,-6,-4,-2,-3,0
1523177545710141,-3,0,-5,1,-1,1,1,-2
1523177545710141,0,1,5,-3,-1,0,-1,-1
1523177545725183,1,3,-5,6,0,1,1,0
1523177545725183,-3,-8,39,9,-3,-3,-4,-2
1523177545727187,1,9,-7,-19,-3,-1,2,0
1523177545727187,-1,-4,-15,21,-2,-3,-3,-2
1523177545748242,-4,-8,14,9,1,-3,1,0
1523177545748242,-1,-1,-13,-12,0,2,0,0
1523177545749245,-2,-2,7,13,-2,-1,1,0
1523177545749245,0,0,14,-5,-1,1,-2,-1
1523177545770302,1,-2,-11,-13,1,1,-1,-1
1523177545770302,0,2,-8,7,-2,-1,-1,-1
1523177545772308,0,-2,1,-13,1,0,-1,-2
1523177545772308,-2,-3,0,8,-2,0,-4,-1
1523177545785342,-2,-2,-12,-15,-3,-1,0,-2
1523177545785342,-2,-3,-1,-5,-4,-2,-2,-2
1523177545786345,0,-4,-3,-1,0,-1,-3,-2
1523177545786345,2,0,4,-2,-1,-2,2,-1
1523177545807401,0,3,4,13,0,-1,-1,-3
1523177545807401,-2,-1,2,-10,0,-2,-1,-1
1523177545809405,-2,-5,-4,-8,-2,-1,0,-2
1523177545809405,-1,-1,-1,13,1,-1,0,0
1523177545830462,-1,2,3,-9,-2,-2,1,-1
1523177545830462,0,2,-18,-4,1,-1,0,-3
1523177545831465,-3,-2,-4,-1,-3,-1,-3,-1
1523177545831465,1,-1,2,2,1,-1,-1,-1
1523177545843497,0,-3,-15,-4,2,2,1,0
1523177545843497,-2,-5,-8,-6,-2,0,1,0
1523177545852520,-2,-2,-8,8,-1,-2,-2,-3
1523177545852520,-3,-1,-2,-11,-3,-3,-2,-2
1523177545867561,0,1,6,-1,-2,-2,-3,-1
1523177545867561,0,1,0,24,3,0,-2,-1
1523177545869566,1,-3,-3,-33,1,1,1,1
1523177545869566,0,-1,-18,10,-1,0,-2,-2
1523177545890622,-1,4,8,1,-2,-1,0,-1
1523177545890622,-1,-4,-2,2,-4,-3,-2,-1
1523177545891624,-2,0,-1,-8,0,0,-1,-2
1523177545891624,-1,3,19,11,0,0,-2,-1
1523177545904659,1,-2,-11,0,-2,-1,-1,0
1523177545904659,1,6,6,-6,-1,-2,0,-1
1523177545911678,-1,-4,3,2,0,0,1,-1
1523177545911678,0,-2,1,-6,-1,0,-1,-1
1523177545927720,0,-2,-7,0,-1,-1,0,0
1523177545927720,-3,-3,3,-6,-2,-3,-2,-5
1523177545929727,1,-1,-4,2,-3,-1,-3,-2
1523177545929727,-2,2,-3,8,2,-1,0,1
1523177545949779,-2,-1,11,8,0,-1,-1,0
1523177545949779,-1,-3,-9,-22,-1,1,-1,0
1523177545951785,-2,-1,-6,11,-3,-3,-2,-1
1523177545951785,-1,-1,3,-1,-3,-2,-2,-3
1523177545964819,-2,1,4,0,-3,0,-2,-2
1523177545964819,-1,-1,-8,-3,0,-1,-1,-3
1523177545971838,0,0,-1,0,2,-1,0,0
1523177545971838,-1,-1,-2,0,3,1,0,-2
1523177545987880,0,1,2,-6,-1,-2,-3,-2
1523177545987880,-1,-4,5,0,-3,-1,-1,0
1523177545988884,0,6,2,2,-3,-2,-1,-2
1523177545988884,0,-1,-5,-3,0,-3,1,0
1523177546009939,-2,-3,-5,-6,0,2,-1,-2
1523177546009939,0,4,0,4,-1,0,0,1
1523177546011945,-1,-3,-13,3,0,0,-1,0
1523177546011945,-2,-2,-6,-8,-1,0,1,-1
1523177546024978,-1,-2,-2,-3,-1,-1,-1,-2
1523177546024978,2,0,0,6,-2,-2,-3,-2
1523177546030994,-3,1,7,2,-1,-2,-1,-3
1523177546030994,1,-2,-2,-3,-3,-1,-1,-2
1523177546048040,-2,-4,-8,-3,-2,-4,-2,0
1523177546048040,1,0,0,-2,0,-1,-1,1
1523177546049042,1,-5,0,3,-1,-1,-1,-1
1523177546049042,-2,-1,3,-7,0,-1,-2,-2
1523177546070099,0,2,-2,2,-1,-1,-1,-1
1523177546070099,-2,-2,5,-1,-2,0,1,0
1523177546072105,0,-1,-7,0,1,-1,2,-1
1523177546072105,0,-1,4,-1,-2,-1,-2,-1
1523177546084138,0,-2,-1,-2,1,-1,1,-1
1523177546084138,0,-3,-10,1,-1,-1,-1,-1
1523177546091154,-3,2,12,-5,-2,-2,-3,1
1523177546091154,1,0,-6,1,0,1,-1,-2
1523177546108201,-1,-1,-1,-3,-3,0,0,-1
1523177546108201,0,0,0,-1,0,1,0,-1
1523177546109203,0,-1,1,-3,-3,-2,-1,-1
1523177546109203,-3,-3,0,-1,-1,-3,-2,-3
1523177546130259,1,-1,3,-2,-1,-1,-2,-2
1523177546130259,-1,2,8,-2,-2,-1,-1,-3
1523177546132266,1,3,0,0,0,0,0,0
1523177546132266,-3,-8,0,0,-1,0,-2,-1
1523177546144296,0,1,0,-3,-1,3,0,0
1523177546144296,-2,-3,-3,-2,-1,-2,-3,-2
1523177546151315,-1,-2,2,-3,-1,-2,-2,-1
1523177546151315,0,4,-2,-3,1,-2,1,0
1523177546167357,-1,-5,3,1,1,0,-1,-2
1523177546167357,-2,-5,7,-2,-3,-2,-3,-3
1523177546169363,-1,-1,-7,1,0,1,1,0
1523177546169363,-3,1,-1,-1,-2,-2,-1,1
1523177546190419,-2,1,-6,-1,-3,-3,1,0
1523177546190419,0,2,-3,2,-1,0,1,-2
1523177546191421,-2,-6,-14,-3,-1,-1,-4,-3
1523177546191421,-1,0,3,-1,-3,-2,-1,0
1523177546204456,0,1,-1,-2,-1,-2,1,1
1523177546204456,-1,-2,-5,-1,1,1,0,-1
1523177546211473,0,0,6,2,-4,0,1,-1
1523177546211473,1,0,1,1,-1,1,0,-1
1523177546227518,-1,0,-8,-3,0,-3,-2,-1
1523177546227518,-3,-2,-1,2,1,-3,-1,0
1523177546229523,-1,-2,-2,-1,1,0,0,0
1523177546229523,1,-1,-4,7,-1,2,1,0
1523177546250579,0,-2,8,-7,-1,0,0,-1
1523177546250579,1,-3,-26,-1,-3,-2,-2,0
1523177546251580,-3,6,25,-1,-1,-3,-4,-3
1523177546251580,-2,3,-4,1,-2,-4,1,-2
1523177546263612,-4,-18,-41,-3,0,1,-1,-1
1523177546263612,-2,4,9,7,-1,0,1,-1
1523177546272636,-2,-4,2,-7,-1,0,-3,0
1523177546272636,-1,-2,-10,-11,1,-1,-2,0
1523177546287677,-1,4,16,9,2,0,-1,-1
1523177546287677,-2,-9,-9,-3,-1,-1,1,-3
1523177546289683,1,-3,-10,-2,-1,-1,-2,0
1523177546289683,-1,0,12,0,0,1,0,0
1523177546309736,0,3,-7,-7,-4,-4,-1,-1
1523177546309736,0,1,5,3,1,-1,-1,0
1523177546311740,0,3,5,3,-1,-2,-1,-3
1523177546311740,1,-7,-11,-8,-2,-3,-2,0
1523177546323773,-2,0,8,5,-3,-2,-4,-1
1523177546323773,-2,3,1,-4,-1,1,-1,-1
1523177546332796,-3,-2,-1,1,0,0,-1,-1
1523177546332796,0,1,1,2,1,0,-1,1
1523177546347835,-4,-3,2,0,-1,0,-1,-1
1523177546347835,-1,-1,9,-2,-2,-3,-1,-1
1523177546348839,0,0,-10,0,-2,-2,0,0
1523177546348839,-2,-1,-2,3,-2,-2,-2,-1
1523177546369896,1,3,10,-1,-2,1,-1,-1
1523177546369896,-1,-5,-6,-6,-1,-2,-2,-1
1523177546371902,-1,-6,-10,3,1,0,1,0
1523177546371902,-1,2,-12,1,-1,1,-1,-1
1523177546383933,0,-1,15,-1,-3,-1,-1,-3
1523177546383933,-2,3,3,-3,0,-1,-3,-2
1523177546392957,0,-4,-12,0,0,0,0,-1
1523177546392957,-3,-3,-2,-4,-1,-2,0,-1
1523177546407997,0,1,-3,0,0,-2,-1,-1
1523177546407997,0,-1,-1,0,-1,-2,-1,1
1523177546409000,-2,5,7,1,-1,-2,0,0
1523177546409000,2,3,1,-1,2,0,0,-1
1523177546430055,-2,-7,6,2,0,0,0,0
1523177546430055,0,2,-20,-6,-1,-2,0,-1
1523177546432062,-1,-1,2,0,-1,0,-2,-2
1523177546432062,-1,1,2,-2,-4,-1,-2,-1
1523177546444092,-1,-1,-5,-1,0,1,1,-1
1523177546444092,-1,0,6,-1,1,0,0,2
1523177546453118,0,-3,-3,-1,-3,-4,-2,-2
1523177546453118,-1,-4,-1,-1,-2,-1,1,-3
1523177546468157,-1,2,-2,-2,0,-2,0,0
1523177546468157,0,-1,-1,0,-1,0,0,-1
1523177546469160,-1,-1,-2,-2,-3,-2,0,-1
1523177546469160,-1,-5,-7,-1,-1,-2,-3,1
1523177546490215,-2,1,14,1,-2,-1,-1,1
1523177546490215,1,0,0,-1,-2,2,0,0
1523177546492222,-2,-3,4,0,1,-2,-1,-1
1523177546492222,-1,-3,-3,-3,-3,1,1,-2
1523177546504253,-1,-1,-8,-3,-2,-2,-1,0
1523177546504253,-2,0,1,0,-3,-2,-2,0
1523177546513276,-2,0,3,-1,-3,-2,-1,-2
1523177546513276,-1,1,3,-1,-1,0,-2,-4
1523177546527315,1,-1,-4,1,1,1,-1,-1
1523177546527315,0,-1,4,-1,-3,0,-2,0
1523177546529321,1,-2,-4,-4,1,0,-2,0
1523177546529321,-2,-1,9,1,-1,-4,-2,0
1523177546550375,-3,-3,-15,-2,0,-3,0,-3
1523177546550375,0,-1,0,0,0,0,0,-1
1523177546551378,-3,2,0,-1,-1,1,-1,-1
1523177546551378,0,-8,-4,0,-1,-1,-2,0
1523177546564413,0,0,-4,0,0,-2,-5,-2
1523177546564413,-1,-2,-4,0,-2,0,-1,-1
1523177546572434,0,2,15,-2,-3,0,-2,0
1523177546572434,-3,0,-10,-2,0,0,-1,0
1523177546587472,-1,0,-1,-2,2,1,1,0
1523177546587472,-2,-4,-1,-1,-1,0,1,-1
1523177546589478,1,1,8,-1,-2,0,0,0
1523177546589478,-1,-4,-16,-1,-3,-3,-2,-2
1523177546610535,-2,5,12,0,-3,-2,-2,0
1523177546610535,-1,1,3,0,1,-2,0,0
1523177546611539,-2,-2,-13,0,1,-1,-1,-1
1523177546611539,-2,1,6,-1,-2,1,-2,-3
1523177546623570,-1,-4,-9,-1,1,-1,0,-1
1523177546623570,-2,2,-2,1,-1,1,0,0
1523177546632592,-3,-3,-6,-5,-2,-2,0,0
1523177546632592,0,-2,1,-2,0,-2,0,0
1523177546646630,-1,3,1,-1,-4,-1,-1,-2
1523177546646630,-3,-1,-2,2,0,-1,-1,-1
1523177546653650,-1,-9,-3,-3,-2,-3,-2,-2
1523177546653650,0,4,4,0,0,-2,-1,-2
1523177546670694,-1,0,-3,1,0,0,0,0
1523177546670694,-1,0,1,-1,-1,0,-2,-1
1523177546671697,-1,-3,-7,2,-1,1,0,2
1523177546671697,0,3,1,2,1,1,1,1
1523177546692752,1,-1,0,1,-2,-1,-2,-1
1523177546692752,-1,-3,-24,-5,-3,-2,-3,-2
1523177546694758,-3,5,22,2,-2,-3,0,-2
1523177546694758,-1,0,0,-3,1,-1,0,-1
1523177546707792,1,0,-4,1,0,0,0,0
1523177546707792,0,-3,4,-1,-1,0,-1,-2
1523177546709798,0,-3,-8,-3,0,1,0,-2
1523177546709798,-1,2,2,-1,-4,-1,1,-3
1523177546729852,1,-4,-5,-4,0,-4,-3,-2
1523177546729852,-1,0,6,-1,0,-2,0,-2
1523177546731859,1,-1,-8,2,4,2,2,1
1523177546731859,-2,-1,8,0,-2,0,-3,0
1523177546752914,-1,-3,-8,-4,-2,-2,0,0
1523177546752914,-4,-3,2,-3,-4,-4,-2,-2
1523177546753917,-2,2,-9,-1,-4,-3,-1,-1
1523177546753917,-2,-1,1,-1,-2,-2,0,-1
1523177546767954,0,-2,3,-1,-1,0,0,0
1523177546767954,0,0,-6,-1,2,-1,-4,-1
1523177546768957,-1,-1,0,-3,0,0,1,-1
1523177546768957,0,0,-1,1,-1,0,0,0
1523177546790012,-1,3,0,-1,-3,-2,-1,-2
1523177546790012,-1,-4,5,-2,-3,0,0,-1
1523177546792019,-1,-1,6,-1,0,-2,1,1
1523177546792019,-2,-3,-10,-1,0,-1,-1,0
1523177546813072,1,1,-1,0,0,1,-2,0
1523177546813072,-2,-5,-1,-2,-1,0,-1,0
1523177546814078,0,-3,-8,-2,-5,-1,-2,-1
1523177546814078,-1,0,0,-5,0,-2,-1,-2
1523177546828114,-3,-4,2,0,-2,0,-1,0
1523177546828114,1,4,0,-1,2,1,0,-1
1523177546829115,-2,-6,-7,-1,0,-2,-2,-2
1523177546829115,-1,1,-1,2,-2,-1,1,0
1523177546850172,-2,-8,-3,-2,-2,-2,1,-4
1523177546850172,1,0,5,-1,0,-1,0,0
1523177546852178,-1,4,-1,0,-2,0,-1,-1
1523177546852178,1,-8,-1,1,2,2,0,0
1523177546872231,0,-1,-1,-3,-1,-1,-3,-1
1523177546872231,-1,-1,-1,3,-1,-2,2,0
1523177546874236,1,0,0,1,-1,-1,-2,-2
1523177546874236,-1,-3,-2,-2,-2,-3,-1,-1
1523177546887269,-1,-2,1,1,-1,0,1,-3
1523177546887269,-1,0,-1,-2,-2,-2,0,-1
1523177546894288,1,-1,-2,0,0,-3,-3,0
1523177546894288,0,1,0,-3,0,0,-3,0
1523177546910369,-2,-2,5,2,2,0,3,1
1523177546910369,-1,1,-1,-2,-2,-1,0,-1
1523177546911372,-2,-7,-11,-3,-3,-1,-1,-1
1523177546911372,1,3,0,0,-1,-3,1,-2
1523177546932391,0,2,3,-2,0,-3,-2,-1
1523177546932391,-1,-7,-5,-2,-1,-1,-1,-1
1523177546934396,1,1,4,0,-1,0,-1,1
1523177546934396,-2,-2,-2,-2,-2,-1,-2,-1
1523177546946428,-1,-4,-9,-1,0,-2,-2,-2
1523177546946428,-2,1,0,-1,-2,0,-1,0
1523177546955453,-1,0,0,-2,-1,-1,-3,-2
1523177546955453,2,2,1,2,2,3,-1,0
1523177546970492,-1,-7,0,-3,-1,-1,-1,1
1523177546970492,1,4,-5,-2,1,0,-1,-1
1523177546971495,-2,2,16,0,-2,-3,0,-2
1523177546971495,0,-4,-24,-2,-2,-2,-2,1
1523177546992551,-4,2,2,-2,-2,0,-2,1
1523177546992551,1,-2,-6,-1,0,0,-1,0
1523177546994557,-1,-2,-3,2,-2,1,2,-2
1523177546994557,0,-1,2,-2,-1,-1,0,-1
1523177547007589,0,2,0,-2,-5,-4,-2,-1
1523177547007589,-2,0,0,-1,-1,-3,-2,-2
1523177547013605,-2,-3,9,1,1,0,0,-1
1523177547013605,0,-2,-13,0,1,3,-1,-1
1523177547030652,0,-4,2,3,2,-1,-1,0
1523177547030652,-3,0,-2,-4,-1,-2,-2,-3
1523177547031655,-2,-1,-3,-3,-3,-2,0,-1
1523177547031655,-3,0,7,0,-2,-4,-1,-2
1523177547052710,-1,-2,-12,-4,-1,0,0,-1
1523177547052710,0,1,0,1,-1,0,2,0
1523177547054716,0,-1,-6,-1,0,0,-2,-1
1523177547054716,-2,-2,-1,0,-2,-2,-2,-2
1523177547066748,0,2,-2,1,-6,-1,-3,-2
1523177547066748,1,-2,5,2,2,-1,0,-2
1523177547073767,-1,1,12,0,3,0,-1,0
1523177547073767,-2,-3,-5,-4,0,0,2,-1
1523177547089809,-1,-1,-2,0,-2,-2,-2,1
1523177547089809,-3,-15,-9,-1,-3,-2,-3,0
1523177547091814,-1,1,-2,0,1,-3,-1,0
1523177547091814,0,2,6,0,-2,-2,-1,-1
1523177547112870,0,0,0,-1,-1,-1,1,-1
1523177547112870,-2,-1,1,-3,-1,-2,-1,-1
1523177547113873,-2,-1,-7,0,-2,1,-1,-2
1523177547113873,-1,-1,5,-2,-4,-2,-3,0
1523177547125905,-2,-3,-9,-3,-1,0,0,-2
1523177547125905,2,4,6,3,1,2,0,-1
1523177547134929,0,-9,-16,-4,-1,-1,-1,-2
1523177547134929,-2,2,-3,-1,0,0,-2,-1
1523177547149969,-2,1,5,0,-1,-1,0,1
1523177547149969,-1,0,0,-2,-2,-4,0,0
1523177547151975,-1,-1,-5,-2,-1,-1,-2,-1
1523177547151975,-1,-2,-1,2,-1,-1,-2,-2
1523177547173030,-1,-1,-2,0,1,0,-2,-2
1523177547173030,-2,-1,1,-1,-1,-2,-1,-3
1523177547174032,-2,1,-4,0,-2,-1,1,1
1523177547174032,-2,-1,5,-1,-3,-3,-2,-1
1523177547186065,-2,1,2,0,1,0,0,-1
1523177547186065,0,1,4,1,3,2,1,1
1523177547195088,-2,-2,-10,-3,-2,-1,1,0
1523177547195088,-1,-2,6,-2,-3,0,-2,-3
1523177547210129,1,-1,-3,-3,-4,-2,-1,-1
1523177547210129,-3,-2,-3,-1,-3,-2,-3,-2
1523177547212135,-1,3,3,0,1,1,-1,2
1523177547212135,-2,-4,2,-1,0,-1,0,1
1523177547233190,-1,-3,-6,-1,0,0,-1,-1
1523177547233190,0,0,0,1,0,-1,-1,0
1523177547234193,-2,0,-1,-2,-3,-1,-1,-4
1523177547234193,-1,-2,0,0,1,1,0,-1
1523177547246225,-1,3,6,0,-1,1,1,-1
1523177547246225,-1,-2,0,1,-1,-1,1,-1
1523177547255248,2,8,-7,-4,-1,-2,-2,1
1523177547255248,-1,-9,12,3,-2,-3,-1,-2
1523177547270289,-1,-1,11,-1,-2,-4,0,1
1523177547270289,0,0,-5,-1,0,1,1,1
1523177547272295,1,0,4,2,-2,-2,0,-1
1523177547272295,2,1,-8,-2,1,-1,-1,-1
1523177547292348,-3,-3,-3,-3,0,0,-2,-1
1523177547292348,-2,-2,4,-2,-2,-2,-1,-1
1523177547294353,-1,-4,-5,0,2,0,-1,-1
1523177547294353,0,1,2,-1,-2,1,-1,-1
1523177547306385,-1,-3,-3,-1,-2,1,-1,-1
1523177547306385,0,3,-1,-2,-2,-1,0,1
1523177547315408,-3,-11,-6,-2,-1,0,-1,-2
1523177547315408,-1,-1,-5,-5,-3,-1,0,0
1523177547330449,-1,-2,-1,-1,3,0,0,-1
1523177547330449,-1,0,-4,-3,-4,-3,-3,-3
1523177547331452,-1,-2,3,-1,-1,0,-1,-2
1523177547331452,-1,2,1,0,1,0,1,-2
1523177547352507,0,2,-7,-2,-4,0,-2,0
1523177547352507,1,-3,-1,-2,-2,-3,-1,0
1523177547354513,-1,1,1,0,-2,-2,-1,-1
1523177547354513,-2,-1,-8,-4,-2,0,0,-1
1523177547366545,-1,1,1,1,1,-3,-2,0
1523177547366545,-1,-2,-4,-2,2,-1,0,1
1523177547375569,0,-3,-7,0,-1,0,-2,-1
1523177547375569,0,2,9,2,-1,-3,-1,-1
1523177547390607,0,-2,-2,0,-2,-1,2,-2
1523177547390607,-2,-1,1,-2,-3,0,-3,-1
1523177547391611,-2,-1,-2,-4,-1,-1,-2,0
1523177547391611,1,1,-3,0,-4,-1,0,-2
1523177547412667,0,-1,-2,-2,-1,-1,-4,1
1523177547412667,0,-2,-1,0,0,0,1,0
1523177547414672,-1,4,4,0,1,1,0,-2
1523177547414672,-4,-5,-13,-3,0,0,-2,0
1523177547426705,-3,2,1,2,-2,-3,0,-3
1523177547426705,-2,-9,6,-3,-2,-1,-1,-3
1523177547435729,-1,-3,-5,0,-1,-3,-1,-2
1523177547435729,-1,2,5,3,-2,1,-1,-1
1523177547449766,0,-3,-7,-2,-1,1,0,0
1523177547449766,-1,1,-6,2,0,1,-3,-1
1523177547451770,0,-2,6,-2,-3,-1,-1,-2
1523177547451770,-2,-2,2,0,-1,-2,-2,-1
1523177547472827,0,0,-4,-1,1,0,-1,0
1523177547472827,-1,1,-2,1,-2,1,1,-2
1523177547473829,0,-1,1,-1,-2,-1,0,-1
1523177547473829,0,-3,-8,-3,0,-2,0,2
1523177547485862,0,1,-6,0,-2,-4,0,-2
1523177547485862,-2,-2,9,0,1,-1,0,-1
1523177547494884,-1,5,-2,1,0,0,0,-1
1523177547494884,-1,-7,-6,-4,0,0,-1,-2
1523177547509926,-3,-2,4,0,-2,-1,-2,-1
1523177547509926,-1,0,-3,-1,-1,-4,0,1
1523177547511930,0,2,-2,-2,-2,-2,-1,-1
1523177547511930,0,1,3,3,0,-2,-1,0
1523177547532988,-1,-3,-2,-2,0,-1,-1,-1
1523177547532988,-1,1,14,0,0,2,0,-2
1523177547539003,-4,-6,1,-3,-4,-1,0,0
1523177547539003,2,6,-7,-3,-5,-2,-2,0
1523177547555046,-2,-7,-9,-1,-1,-2,0,-1
1523177547555046,-1,2,1,-1,-2,-2,-1,-1
1523177547557050,0,-3,0,0,2,-1,-1,0
1523177547557050,-3,1,3,-2,-1,1,-1,-1
1523177547570086,1,0,1,-2,-1,-1,3,-2
1523177547570086,0,-3,-13,-3,-3,-1,-3,-1
1523177547572091,0,0,1,0,1,-1,0,0
1523177547572091,-1,-5,-3,-1,0,0,-2,0
1523177547593147,-2,1,-5,-1,-1,1,-1,-2
1523177547593147,0,2,5,1,0,-2,0,0
1523177547595153,0,-2,-1,1,-2,-2,-2,-1
1523177547595153,1,2,4,1,1,-1,1,-3
1523177547606182,1,-4,-2,-2,-3,-1,-2,-2
1523177547606182,-1,-1,-5,-2,-2,-1,-1,-3
1523177547615206,0,3,3,0,0,0,-3,0
1523177547615206,-1,-3,-2,1,1,0,2,-2
1523177547630246,-2,-1,4,-2,-3,1,0,1
1523177547630246,-2,-1,-6,-3,-2,-1,-2,0
1523177547632251,1,3,6,0,1,1,-1,-1
1523177547632251,-1,0,-27,1,0,-1,0,0
1523177547652304,0,1,19,-3,-1,-1,0,-2
1523177547652304,-1,-2,-1,-1,-1,-1,-1,0
1523177547654310,-1,-2,-1,0,-2,-1,-2,0
1523177547654310,1,0,4,-3,-1,-1,-1,-1
1523177547675364,-3,1,-1,1,-1,-3,-2,-2
1523177547675364,-2,-1,-11,-2,-2,0,-1,-2
1523177547676367,-3,-3,-1,1,-1,0,-1,-2
1523177547676367,0,0,5,-2,-3,-1,-2,1
1523177547690406,0,-5,-8,0,-2,-1,-1,1
1523177547690406,1,-1,-1,-3,-1,1,-3,-1
1523177547691410,-2,0,1,-1,2,2,1,-1
1523177547691410,1,-2,11,-1,0,2,1,-1
1523177547712464,-2,3,3,-2,-1,-2,-3,-1
1523177547712464,-2,-3,-2,1,-3,-1,-1,-1
1523177547714470,0,0,-5,1,-2,0,-1,-2
1523177547714470,-1,0,2,-2,-2,-2,-2,-2
1523177547735525,0,0,0,-1,-1,-2,0,-1
1523177547735525,-1,-1,-3,-2,0,0,1,1
1523177547736528,-2,-2,-4,-6,-3,-1,-3,-2
1523177547736528,-1,-1,0,-1,-1,-3,-1,-3
1523177547749561,1,-5,-7,0,-1,1,-1,0
1523177547749561,-2,-3,-9,-1,1,-2,0,-2
1523177547756580,-1,0,7,0,-3,-1,0,-1
1523177547756580,-1,0,2,2,-1,-3,-4,-2
1523177547772624,-1,1,-9,-1,0,-1,-1,-1
1523177547772624,0,-2,5,-1,-2,0,-2,-3
1523177547774630,-1,-4,-4,-2,-1,-4,1,0
1523177547774630,-2,-2,-2,-4,-2,-2,-2,0
1523177547795684,-1,-2,7,2,1,0,1,-1
1523177547795684,0,-1,-5,-2,-1,-3,-1,-2
1523177547796688,-2,0,-8,-1,-2,-3,-2,-2
1523177547796688,-2,-3,-1,0,-2,0,0,-1
1523177547809722,-2,-4,-4,0,1,-1,0,0
1523177547809722,-2,2,0,-2,-3,-2,-2,0
1523177547816741,0,-6,-2,-4,-2,0,-1,-1
1523177547816741,-2,2,5,-1,-2,-1,-1,1
1523177547832782,-1,-2,-13,-4,-2,-1,-1,-2
1523177547832782,0,-1,3,0,-2,0,-2,-1
1523177547834788,-2,-1,3,0,0,-1,-2,0
1523177547834788,-2,-1,-2,-1,0,-1,-1,0
1523177547854843,2,-2,0,-1,-1,1,-1,-2
1523177547854843,0,-1,-1,1,-2,-2,-1,0
1523177547856848,-1,0,-3,0,-1,-2,-1,0
1523177547856848,-3,-6,-5,1,0,-2,-1,-3
1523177547869882,0,3,23,-2,-2,-2,-1,-1
1523177547869882,-2,-2,-17,-3,1,-1,1,-1
1523177547875897,0,-4,-15,-1,1,0,1,0
1523177547875897,-2,-7,-2,-2,-1,1,-1,-3
1523177547892944,-3,2,-12,2,-1,-1,-4,-1
1523177547892944,0,0,2,-2,1,-1,-2,-1
1523177547893947,0,2,2,-1,-3,0,-2,0
1523177547893947,-1,-3,-8,-3,0,-1,-2,0
1523177547915002,-1,-3,-3,-2,-1,-3,-3,0
1523177547915002,0,-1,5,2,1,0,-2,1
1523177547917009,-1,1,-5,1,2,2,0,0
1523177547917009,1,0,10,-2,-1,-1,0,2
1523177547929039,-4,-6,-8,-2,-4,-2,-2,-1
1523177547929039,-1,1,0,-1,-2,-2,-1,-2
1523177547936058,1,-1,9,-1,1,-3,-1,-4
1523177547936058,-1,0,-1,1,1,1,0,1
1523177547953104,1,0,1,-1,-2,-1,-1,0
1523177547953104,0,-2,-2,1,-4,-2,-1,-1
1523177547954106,-1,-3,-1,0,-3,-1,-2,-1
1523177547954106,-2,0,-1,-1,-2,-2,0,-2
1523177547975163,0,-1,-6,-1,0,0,-3,0
1523177547975163,-1,-3,-1,-2,0,1,0,0
1523177547977168,0,-4,1,-2,0,-1,0,-1
1523177547977168,1,3,-2,-3,-2,-2,0,-4
1523177547989200,2,-1,0,-2,-1,-1,1,-2
1523177547989200,-2,0,2,2,0,0,-1,-1
1523177547996219,-1,-2,-3,-1,-1,-1,-1,0
1523177547996219,-2,-2,-2,-1,0,1,-3,0
1523177548012262,-3,-2,-2,-2,-1,-1,-1,-1
1523177548012262,-1,1,1,-1,-2,0,-2,-3
1523177548014266,-1,-1,-3,-2,-1,-2,0,-2
1523177548014266,-1,3,3,0,0,0,-1,-1
1523177548035322,-1,-5,-4,-3,-1,1,0,0
1523177548035322,-2,-5,-9,-4,-1,-3,1,0
1523177548036325,0,0,2,0,-1,-2,-2,-3
1523177548036325,-1,-7,9,-2,-3,-3,-2,-1
1523177548049360,-1,4,4,1,2,0,1,-1
1523177548049360,0,0,4,1,1,-2,-1,0
1523177548056377,-3,-3,-3,-1,-1,2,1,1
1523177548056377,-1,-1,-11,-2,-1,-4,-3,0
1523177548072421,-2,1,5,1,-1,-2,-2,-2
1523177548072421,-2,-2,1,-4,-1,-3,-1,0
1523177548074428,1,3,3,0,-1,-1,-1,1
1523177548074428,-1,-6,-10,0,0,0,-1,-2
1523177548095482,-3,-2,-3,-3,-1,-1,0,-1
1523177548095482,-3,-8,-3,0,-2,-1,1,-2
1523177548097488,0,2,-9,-2,-1,-2,0,-2
1523177548097488,0,2,-1,2,-2,1,-1,0
1523177548109518,-1,-1,1,0,-2,-2,-2,0
1523177548109518,2,0,-6,-3,-2,1,-1,-1
1523177548116537,-1,-2,4,-1,0,-3,-1,0
1523177548116537,-1,-4,-3,0,0,0,-2,-1
1523177548132581,0,-1,-3,3,1,-2,0,-2
1523177548132581,0,2,6,1,-1,0,-3,-1
1523177548134586,-1,-4,-6,-2,1,-2,-1,-1
1523177548134586,-1,2,-7,0,0,-1,-2,-1
1523177548155641,-3,0,8,-2,-2,-2,-2,-1
1523177548155641,-2,-2,-1,-4,-3,-1,-1,-1
1523177548156644,-2,0,-3,-1,-1,-1,-1,0
1523177548156644,1,0,-6,-1,0,-1,-1,0
1523177548168677,-1,-2,-3,-2,-3,0,-1,0
1523177548168677,-2,1,3,-1,-3,-2,-2,-1
1523177548177700,-1,-1,-4,-1,-2,-1,0,-1
1523177548177700,-1,-2,1,0,-1,-2,0,0
1523177548192740,-1,2,-3,1,2,0,-2,-2
1523177548192740,0,0,7,-1,0,1,0,-2
1523177548194747,0,-2,-3,-4,-3,-2,-2,0
1523177548194747,-1,-1,4,1,-2,0,-1,-1
1523177548214799,1,1,-4,-2,-1,-1,1,-1
1523177548214799,0,1,-3,1,0,0,-2,1
1523177548216805,0,-2,1,1,-2,0,-2,-3
1523177548216805,-1,1,0,-5,-2,-1,-1,-2
1523177548228837,-2,-2,-2,1,-1,-1,0,-1
1523177548228837,1,-2,-4,-2,1,-3,-1,-1
1523177548237861,-2,-1,5,-1,-1,-1,-1,-1
1523177548237861,-3,1,-7,-1,-1,0,1,-1
1523177548252900,-1,7,19,1,0,-1,-1,-1
1523177548252900,-4,-5,11,-1,-1,-1,0,-2
1523177548253904,0,-3,-27,-4,-1,-3,-2,-2
1523177548253904,0,1,5,2,-1,-2,-1,1
1523177548274959,-3,-2,-4,-2,-2,0,-1,-1
1523177548274959,-1,-1,-4,0,-3,-1,-2,0
1523177548276965,0,1,7,1,-2,1,0,-1
1523177548276965,-3,-3,-2,-2,-1,-1,-3,-1
1523177548288995,1,-2,-9,-4,-4,0,-1,-1
1523177548288995,-2,1,-3,-3,-1,-3,-1,-2
1523177548298019,-2,-1,0,0,3,-1,0,-1
1523177548298019,0,-1,-6,1,2,-2,0,-1
1523177548313061,0,1,9,0,0,0,0,0
1523177548313061,-2,-1,-10,-1,-2,-1,0,-2
1523177548314062,0,0,8,-2,-1,-3,-1,-2
1523177548314062,-3,0,2,-4,-1,0,-2,-1
1523177548335119,-2,-3,-9,-1,0,-2,-1,-1
1523177548335119,-1,-2,-4,-1,-1,-1,-1,-1
1523177548337125,1,1,5,-2,0,-1,-1,0
1523177548337125,-1,-1,-3,3,-2,-1,0,-2
1523177548349156,-1,0,-4,0,3,2,-1,2
1523177548349156,2,-2,-1,-1,3,-1,0,0
1523177548358181,-4,-5,-1,-2,-2,0,-2,-2
1523177548358181,0,1,0,-2,-3,-1,0,-2
1523177548372218,0,-2,-1,-1,0,-3,-1,1
1523177548372218,-1,0,0,1,-1,-1,0,-2
1523177548374223,-1,-2,-1,-2,0,0,-1,-1
1523177548374223,0,-3,2,-3,0,-2,-1,0
1523177548395279,-1,-1,-2,2,0,-1,0,0
1523177548395279,0,1,-1,0,1,-1,-3,2
1523177548397284,-1,-4,3,2,-3,0,-1,0
1523177548397284,-4,1,0,-2,0,0,-2,-3
1523177548409317,-3,-4,-4,-2,-2,-1,-4,-2
1523177548409317,-1,-1,6,-1,-2,-2,-1,-4
1523177548418341,-2,1,-1,-2,0,0,0,-2
1523177548418341,0,1,-1,1,1,0,1,1
1523177548432377,-1,-3,-3,0,-1,-1,0,-2
1523177548432377,0,-1,-5,-1,-3,0,-3,2
1523177548434383,-1,1,-2,0,-2,0,-1,-1
1523177548434383,0,-2,2,-1,-1,-3,-1,-2
1523177548455439,-1,0,-1,-1,-1,-2,-1,0
1523177548455439,-1,-2,0,-1,2,1,0,-1
1523177548456442,-2,0,0,-2,1,-1,1,-1
1523177548456442,1,-2,-28,-2,0,-2,-1,-3
1523177548468474,-1,-4,9,-1,-3,-2,-2,-1
1523177548468474,-2,1,-3,-1,-2,-1,1,-2
1523177548477496,-1,0,-2,0,-1,0,-2,-2
1523177548477496,0,-3,6,1,-1,0,-1,0
1523177548492537,-1,1,-3,-1,-2,-1,-1,-2
1523177548492537,0,-1,-9,-3,-2,-1,0,-2
1523177548494544,-1,0,7,-3,-3,-2,0,0
1523177548494544,-1,-1,-1,-1,-4,-2,-1,-2
1523177548515599,-1,-3,2,-2,0,0,-1,-2
1523177548515599,1,0,8,2,0,-2,-3,0
1523177548516601,-1,-2,-16,-1,0,0,-1,-1
1523177548516601,-2,-4,7,-3,-1,-2,-1,-1
1523177548528633,-1,-1,-3,-4,-1,-1,-1,0
1523177548528633,-2,1,-2,-1,0,-2,-1,-2
1523177548537656,-1,-2,1,0,-4,0,-1,-1
1523177548537656,-2,0,-2,-2,2,1,1,0
1523177548552697,2,-1,-3,-1,-2,-1,-2,-1
1523177548552697,-1,-3,-3,-1,-2,-2,-2,0
1523177548554703,1,0,-2,0,-1,-3,-2,0
1523177548554703,-1,-2,5,-1,-3,-2,-1,0
1523177548574756,0,1,-3,0,-1,-3,-2,-3
1523177548574756,-2,-1,-4,-2,2,0,-1,-1
1523177548576762,0,1,3,0,1,0,0,-1
1523177548576762,-1,-3,8,-1,-2,-1,-1,-2
1523177548597817,0,1,-13,-2,0,-1,-1,1
1523177548597817,0,-7,-6,-2,-2,-1,2,-2
1523177548598821,0,0,1,-1,-1,-3,1,-1
1523177548598821,-1,-2,3,3,2,-1,-2,1
1523177548612858,-2,0,-1,-1,-1,-1,-1,-2
1523177548612858,-2,-1,5,0,-2,-1,-1,-1
1523177548618873,-1,1,-21,-3,-1,-1,-1,1
1523177548618873,-1,2,-1,-1,-1,-1,-2,-1
1523177548634916,0,-3,7,0,2,0,0,-1
1523177548634916,0,0,-4,0,-2,-1,0,-1
1523177548636922,-2,1,7,-1,0,-1,0,-1
1523177548636922,-1,-1,-6,-2,-2,-2,-1,-1
1523177548657977,-2,0,-8,-3,-2,0,-1,-2
1523177548657977,-1,3,6,1,-2,-2,-1,-2
1523177548658981,0,-7,0,-2,-1,-2,-2,-3
1523177548658981,1,-1,-5,-2,-1,-1,-2,-1
1523177548672015,0,2,7,2,-2,-1,-1,-1
1523177548672015,-2,-7,-32,-5,0,1,-1,0
1523177548679031,-4,2,19,1,-2,1,-2,-2
1523177548679031,0,-1,0,-2,-2,0,-2,-2
1523177548695075,-1,-1,-6,-1,-2,-2,-1,3
1523177548695075,0,0,11,-2,-1,-2,-1,-1
1523177548697080,0,-4,-7,1,1,-2,-2,-2
1523177548697080,-1,-2,0,-1,-1,-2,-1,-2
1523177548718137,0,0,1,0,-2,-1,-2,-2
1523177548718137,0,2,-7,-3,0,-1,1,-1
1523177548719140,-1,-7,-1,-3,-1,-1,-2,-2
1523177548719140,-1,1,6,1,0,-1,-1,-2
1523177548732174,-2,-3,-7,0,0,-1,-2,-1
1523177548732174,2,-2,4,1,2,0,0,-1
1523177548739192,2,0,2,1,-3,1,0,0
1523177548739192,1,-1,-7,-3,-1,0,0,-2
1523177548755236,-3,-3,-2,-1,-3,0,0,0
1523177548755236,-1,1,4,-1,-3,0,-1,-1
1523177548757240,0,0,-2,0,-1,-1,-2,0
1523177548757240,-1,-2,1,-1,-1,-1,1,-1
1523177548778297,-1,0,4,-1,1,-1,1,-2
1523177548778297,-2,0,-3,0,0,-2,-1,-1
1523177548779300,0,-1,-4,-2,1,-2,-1,-1
1523177548779300,-1,2,1,0,-1,-1,-2,-2
1523177548792333,0,1,2,0,0,-3,0,-2
1523177548792333,0,-7,-5,-1,-2,0,-1,-1
1523177548799356,-1,0,0,-3,-1,-2,-1,-1
1523177548799356,-2,0,-1,-2,1,-1,-1,-1
1523177548815394,-1,-1,5,0,-1,-1,-1,-1
1523177548815394,1,-2,-15,-2,-3,-2,0,0
1523177548816397,0,1,8,0,0,0,0,-2
1523177548816397,-1,-2,0,-1,0,0,-1,0
1523177548837453,-1,0,-3,-3,-4,0,-1,-2
1523177548837453,-2,0,4,1,-2,-2,-2,0
1523177548839460,-2,-2,-3,-1,-3,-3,0,-1
1523177548839460,0,-2,-4,0,-2,-2,-1,0
1523177548852522,1,0,1,1,1,0,-1,-2
1523177548852522,-3,0,5,1,-1,-1,0,-1
1523177548866538,0,-8,-15,-1,-3,-1,0,-1
1523177548866538,1,1,4,1,-1,0,-2,-2
1523177548875610,-1,-3,-11,-6,0,-2,1,2
1523177548875610,-3,-1,19,1,-3,-3,-2,-3
1523177548876559,0,0,0,0,0,1,0,0
1523177548876559,-1,-2,-3,1,-2,-2,-2,-1
1523177548897871,1,-7,-4,-3,-2,-2,0,-1
1523177548897871,-1,2,-2,-3,0,-1,-1,1
1523177548899620,-2,1,2,0,-1,-1,-3,1
1523177548899620,-1,-2,8,-2,-3,0,-1,0
1523177548912748,-1,-1,-2,4,0,0,-1,-1
1523177548912748,-1,-3,-1,-1,1,0,-1,-2
1523177548918928,1,-1,2,-3,0,-1,1,-1
1523177548918928,-1,4,1,0,-1,-1,-1,1
1523177548936031,-2,-5,-4,-4,-3,-2,-2,-5
1523177548936031,-1,-1,3,0,-1,-1,-1,0
1523177548936718,-2,0,-5,-2,-2,-1,-1,0
1523177548936718,-2,-2,-3,-1,0,-3,1,-1
1523177548958194,-1,0,-2,0,0,-2,-2,-1
1523177548958194,1,-3,-7,-1,-2,0,1,-2
1523177548959781,-1,2,8,-2,-3,-4,-1,-3
1523177548959781,-1,0,-2,-2,-1,0,1,1
1523177548972039,1,0,3,0,-2,-2,0,-1
1523177548972039,-2,-2,-2,1,-1,1,0,-1
1523177548979242,0,-1,-2,0,0,1,0,-3
1523177548979242,-1,1,0,-1,-1,-2,0,0
1523177548995920,-2,-5,-4,-1,-3,-2,-3,-1
1523177548995920,0,4,-2,-2,-2,-1,-2,-1
1523177548996879,-1,-1,-3,0,-1,-1,0,2
1523177548996879,-1,-2,-5,-1,-2,0,-1,-1
1523177549018249,0,1,0,-1,0,-3,0,-2
1523177549018249,1,-1,-1,-3,-1,-1,0,-1
1523177549018938,-2,-4,-3,0,1,-1,0,-1
1523177549018938,-2,-3,-1,-2,-2,-1,0,-3
1523177549032302,-3,2,-2,-2,1,2,-1,0
1523177549032302,0,-1,-1,-2,0,-1,-1,-1
1523177549038992,0,2,-2,0,-1,-2,-2,0
1523177549038992,0,-3,-1,-1,-3,0,-3,-2
1523177549055221,-2,3,6,-1,-2,0,1,-2
1523177549055221,-1,-11,-18,-4,-2,-1,-2,-1
1523177549057040,-2,3,0,1,0,-1,-2,0
1523177549057040,-1,0,0,1,0,-1,-3,-1
1523177549078416,-2,-9,-1,-2,-3,-1,0,-1
1523177549078416,-2,2,1,2,-1,-3,0,0
1523177549079098,-1,-3,-2,-3,-2,-1,1,-2
1523177549079098,0,-3,-2,-2,-1,-1,0,1
1523177549092180,0,-2,-15,0,-2,-2,-1,0
1523177549092180,-1,3,6,0,-1,-2,-1,-2
1523177549100422,-2,-3,-3,0,0,-2,1,-3
1523177549100422,-2,0,1,2,0,0,0,-2
1523177549115457,-1,0,0,-1,-2,-3,-1,-1
1523177549115457,-3,-4,-3,-1,-2,-1,-2,-2
1523177549117200,-1,3,5,1,-2,-1,-1,0
1523177549117200,-3,-9,-8,-2,3,1,0,0
1523177549138318,-1,3,4,-2,0,1,0,-1
1523177549138318,-2,1,-1,-2,-3,-3,-1,-1
1523177549139261,-1,0,-1,-2,-3,0,-1,0
1523177549139261,0,-1,-2,1,-3,-3,-3,-2
1523177549151566,-1,-2,3,0,0,2,1,2
1523177549151566,0,1,6,-3,-1,-1,0,0
1523177549160397,-1,-3,-8,-2,-1,1,-1,-1
1523177549160397,-2,-3,2,-4,-3,-1,1,-2
1523177549175691,-1,0,-4,-2,-1,0,-1,0
1523177549175691,-2,1,1,0,0,-1,-3,-1
1523177549176359,2,-1,3,-2,-1,-3,-2,1
1523177549176359,0,-1,-2,0,-3,0,-1,0
1523177549198431,-1,3,9,-1,0,-2,-2,-3
1523177549198431,0,-5,1,-3,-1,-1,1,-1
1523177549199418,-2,-4,0,-1,-4,-1,0,-1
1523177549199418,0,1,-4,-2,1,0,-1,-1
1523177549211687,-2,-2,-10,-3,0,0,-2,-1
1523177549211687,-1,3,20,0,-3,-2,-3,0
1523177549220476,-1,0,1,-3,1,1,-2,-2
1523177549220476,-1,-7,-10,-2,2,-1,-1,-2
1523177549235792,1,1,3,-2,-1,-2,0,-1
1523177549235792,1,-1,-13,-1,0,0,0,0
1523177549236517,-2,-8,2,-2,-4,-3,-2,-2
1523177549236517,-2,2,3,1,-1,-1,-1,0
1523177549257572,-1,-2,-3,0,0,-1,-4,-1
1523177549257572,0,0,-4,-3,-1,-1,2,1
1523177549259581,-1,1,3,0,-1,0,0,-1
1523177549259581,-3,0,-5,-2,-2,0,0,-2
1523177549271668,0,1,2,3,-2,-1,-2,1
1523177549271668,-4,-6,-2,-3,-2,-1,-3,-2
1523177549280632,-1,0,-2,-1,0,0,0,1
1523177549280632,1,0,2,-1,2,0,-2,1
1523177549295994,2,0,0,0,-2,-2,-1,1
1523177549295994,0,1,-4,1,-3,0,-1,-3
1523177549296678,0,-2,-2,0,-2,-1,-2,-2
1523177549296678,-1,1,2,0,-3,-3,-3,-3
1523177549318022,-2,-1,-2,0,-1,-1,1,-1
1523177549318022,1,2,-2,0,1,1,-1,-2
1523177549319739,0,-4,-3,-1,1,0,0,-2
1523177549319739,0,5,5,0,-3,-3,0,0
1523177549331770,-1,-4,-13,-4,-2,-3,-1,0
1523177549331770,-2,2,1,0,-2,-1,-2,0
1523177549340839,0,-3,-2,-3,2,0,-1,0
1523177549340839,-1,-1,-2,2,0,0,-1,-3
1523177549354962,-2,-2,2,0,0,0,-3,0
1523177549354962,-3,-2,-8,-2,1,-2,2,0
1523177549356836,1,2,19,1,-1,-1,0,-1
1523177549356836,-1,0,-9,-3,-2,-2,-2,-1
1523177549378125,-1,-3,2,-1,-2,1,-1,-3
1523177549378125,0,1,-1,-2,-1,-1,-3,0
1523177549378896,0,6,-5,0,1,-1,-1,-1
1523177549378896,-3,-8,13,-2,-3,-2,0,1
1523177549392129,0,4,-2,2,-1,-1,-3,-2
1523177549392129,-1,2,3,0,1,1,-2,-1
1523177549400245,-3,-8,-11,-2,-2,-2,0,-1
1523177549400245,0,4,0,-3,-3,-2,-2,-1
1523177549415276,-1,-2,1,0,1,-3,-1,-1
1523177549415276,0,-5,-1,0,-2,-1,-1,-1
1523177549416996,-1,1,0,0,-2,-2,-3,-3
1523177549416996,-1,1,-4,-2,-1,-1,0,-2
1523177549438205,-1,-3,3,-1,-2,0,0,-1
1523177549438205,-2,-1,-3,1,-1,0,1,0
1523177549439055,-1,0,-1,-1,-1,1,1,-2
1523177549439055,-3,-5,-1,0,0,1,1,0
1523177549460333,0,1,-2,-1,0,-2,-1,-2
1523177549460333,-1,-2,-1,-2,0,0,-1,-2
1523177549460333,-2,-2,-8,-6,-1,-3,-3,-4
1523177549460333,0,-2,-2,3,0,1,-1,-1
1523177549475321,1,0,-7,0,1,1,0,-1
1523177549475321,0,0,7,-1,-2,-1,-1,0
1523177549475321,0,-3,-3,0,-1,0,0,0
1523177549475321,-1,0,2,-4,-3,-3,0,-2
1523177549497403,-3,0,-2,-2,-2,-2,-1,-1
1523177549497403,0,-2,-4,0,1,-1,0,-1
1523177549498216,-2,2,8,1,0,1,-1,0
1523177549498216,0,2,0,0,0,0,-1,-1
1523177549520346,-2,-9,-8,-3,-1,-2,-1,-1
1523177549520346,0,7,11,1,-2,-2,0,-2
1523177549520346,-4,-7,-2,-4,-2,-3,-1,0
1523177549520346,1,-1,-4,0,1,2,0,1
1523177549534571,-2,-1,11,-3,1,0,0,-1
1523177549534571,-3,0,-6,-3,0,-1,-1,-2
1523177549535312,-2,3,4,2,0,-1,-2,-2
1523177549535312,0,1,-6,-1,-1,-3,-1,-2
1523177549557369,2,1,-2,1,-2,-2,-1,0
1523177549557369,-1,-1,-3,1,1,0,-1,-3
1523177549558370,-1,-2,-4,-1,2,2,1,1
1523177549558370,-5,-4,-9,-5,1,-3,-2,-2
1523177549579429,1,2,3,-1,-3,0,-1,0
1523177549579429,-1,-4,-3,-1,-2,-3,-2,-1
1523177549580431,0,0,-7,-1,0,-3,-2,1
1523177549580431,0,2,2,2,-2,-1,-4,2
1523177549594735,-1,-4,0,-3,2,1,0,-2
1523177549594735,-1,-3,1,-1,-1,-1,-3,-2
1523177549595471,0,0,-12,1,0,-1,2,-2
1523177549595471,-2,-4,-5,-3,1,1,0,0
1523177549617529,0,1,10,3,-4,-1,-2,-1
1523177549617529,-1,-5,-11,0,0,0,-1,0
1523177549617529,-2,0,1,-1,-2,-2,-1,-2
1523177549617529,1,-1,0,0,0,-1,-1,-3
1523177549639587,-3,-1,-7,-3,0,-2,0,-1
1523177549639587,1,0,3,-1,1,-1,0,-2
1523177549640591,-2,1,0,-1,-2,-1,-1,0
1523177549640591,-1,-1,-4,-2,-2,-2,-1,-2
1523177549654303,-1,-1,-2,0,0,-2,0,-1
1523177549654303,0,2,-1,-3,-4,-3,0,0
1523177549655026,-2,-4,-4,-1,-2,-1,0,0
1523177549655026,0,-2,0,2,0,1,2,-2
1523177549677321,-2,4,1,1,2,3,1,0
1523177549677321,1,-4,-6,-1,-1,0,1,0
1523177549678087,1,-1,4,-2,-2,0,0,0
1523177549678087,-1,-2,-2,1,-5,-2,0,-1
1523177549699399,-1,-1,4,-1,-2,-2,-2,-1
1523177549699399,-3,-3,-13,-2,-2,-2,-2,-3
1523177549700143,0,-1,2,-1,-2,-1,-2,-2
1523177549700143,-1,3,4,2,1,0,0,0
1523177549715185,-2,-9,-2,2,0,-2,-1,-1
1523177549715185,-2,-2,4,0,-1,2,1,1
1523177549715185,-1,2,-3,-2,-1,-3,-3,-2
1523177549715185,-3,-3,0,-2,-1,-3,-3,-2
1523177549737507,0,1,0,0,0,1,0,0
1523177549737507,-3,-1,1,0,-1,-1,1,-1
1523177549738243,0,-2,-3,0,-3,-1,-2,-2
1523177549738243,-2,-1,3,-2,-2,-1,0,-1
1523177549760305,-3,-5,-12,-3,-2,-5,-3,-1
1523177549760305,0,1,0,-1,-2,1,-2,-1
1523177549760305,0,3,6,1,2,0,1,-2
1523177549760305,0,-2,3,-1,-2,-1,-1,-2
1523177549774939,0,1,-4,-2,-4,-2,0,-1
1523177549774939,-2,-4,-2,-1,-2,-1,-2,-1
1523177549775631,1,-2,1,-1,2,-1,0,1
1523177549775631,0,4,-1,0,1,-1,0,1
1523177549796688,-3,-1,7,-1,-2,0,-1,-2
1523177549796688,0,0,0,-2,-1,-3,-2,0
1523177549797687,1,1,0,-2,-1,0,-1,1
1523177549797687,-3,-3,-3,-3,-2,-2,-2,-1
1523177549820022,0,1,1,1,0,1,-1,-1
1523177549820022,-1,1,1,1,1,0,-1,-1
1523177549820753,0,-4,-5,0,0,1,0,-2
1523177549820753,-2,1,-3,0,0,-1,-1,0
1523177549835073,-1,-2,-3,-1,-3,-4,-2,-2
1523177549835073,0,-1,1,-2,-2,-2,0,-3
1523177549835794,-2,-2,-4,-2,1,-1,1,-1
1523177549835794,1,-2,0,1,1,0,0,1
1523177549856844,-2,2,-4,-2,0,-2,-2,1
1523177549856844,-1,-2,-5,1,-3,-1,0,-4
1523177549857849,-3,-2,4,0,-2,-3,-1,-1
1523177549857849,0,-2,-2,-3,-1,0,-1,-1
1523177549880122,-1,-1,-3,-4,-1,0,-1,-1
1523177549880122,-1,0,4,-1,1,-2,-1,1
1523177549880122,-2,0,-3,-2,1,0,-1,-2
1523177549880122,0,-2,0,2,1,-1,-1,-1
1523177549894948,-1,-1,-4,-3,-1,0,-1,0
1523177549894948,-2,-3,2,-5,-3,-2,-1,-2
1523177549894948,-2,1,1,-1,-3,-2,-3,-2
1523177549894948,0,0,-12,-1,-2,-2,-1,-2
1523177549917272,-2,-5,1,0,0,0,-1,-1
1523177549917272,0,2,-3,1,2,-1,0,1
1523177549918011,0,-4,-4,0,0,-2,2,0
1523177549918011,-1,3,20,-2,-3,-2,-6,-5
1523177549940065,-1,-4,-10,-3,-4,0,1,-1
1523177549940065,-1,1,-1,1,-1,0,-2,-1
1523177549940065,-1,-3,-7,-1,-2,-1,-1,2
1523177549940065,-1,4,10,-4,-1,0,1,-1
1523177549954390,2,5,1,1,-2,-3,-1,-1
1523177549954390,0,-5,-3,-1,-3,-2,-3,0
1523177549962128,0,-2,-2,-2,-4,-1,-2,0
1523177549962128,-1,-1,-8,1,2,-1,1,1
1523177549977417,-2,-1,1,-1,1,1,-1,-2
1523177549977417,-2,-4,-3,0,2,-1,1,-2
1523177549978172,2,2,0,-1,-3,-3,-3,-2
1523177549978172,-1,-2,-5,0,-1,1,-2,-1
1523177550000240,-1,-2,1,-2,-1,0,0,1
1523177550000240,-2,0,0,0,-4,0,0,-1
1523177550000240,-1,-3,0,-2,-1,0,-1,-3
1523177550000240,0,-2,-3,-2,-2,-1,-1,-1
1523177550015327,3,-2,3,2,2,0,0,1
1523177550015327,0,5,-8,-4,-2,0,0,-2
1523177550015327,-2,-1,10,-1,-4,-3,-1,-2
1523177550015327,0,-2,0,-1,-1,0,1,-2
1523177550037629,0,-2,-20,-2,0,-2,-2,-3
1523177550037629,0,-2,3,0,0,0,0,0
1523177550037629,-2,2,-2,-2,-2,-1,-2,-4
1523177550037629,0,-8,-7,0,1,0,0,1
1523177550059659,3,18,3,-2,-1,-1,-1,-3
1523177550059659,-2,-15,4,3,1,0,0,0
1523177550060388,0,0,-8,-3,-2,-1,-2,0
1523177550060388,-3,-3,-3,-4,-2,-4,-3,-1
1523177550074709,-2,2,3,1,-1,0,-5,1
1523177550074709,-2,-20,7,0,-1,-1,2,1
1523177550075428,-1,0,-4,0,2,1,0,-1
1523177550075428,0,-1,2,1,-1,-2,0,0
1523177550097777,-1,-4,2,0,-1,-2,1,-2
1523177550097777,0,9,1,-4,-3,-1,-2,-1
1523177550097777,-1,1,-2,-1,-3,0,-1,-1
1523177550097777,0,-6,0,-1,-3,-2,-1,-1
1523177550119865,-3,-2,-1,-1,0,-1,2,-1
1523177550119865,0,5,2,1,1,1,-1,-2
1523177550120551,-1,0,-8,4,2,1,3,0
1523177550120551,-1,1,-9,-5,-5,-3,-1,0
1523177550133583,-1,-4,4,2,-1,-3,-2,0
1523177550133583,-3,0,4,-3,-1,0,0,-1
1523177550142665,-3,-4,-4,-3,0,-1,-2,0
1523177550142665,-1,1,-9,2,-1,-1,-3,-1
1523177550157837,-1,-10,0,-4,-1,0,0,-1
1523177550157837,4,7,2,-3,-2,-2,-3,-2
1523177550157837,0,-2,-6,-1,-2,-1,-2,-2
1523177550157837,0,2,0,0,-3,0,0,-3
1523177550179977,0,0,1,5,-1,-2,-2,0
1523177550179977,-2,-1,-8,-12,-2,-2,-2,-2
1523177550180707,-1,-3,3,1,0,-1,0,0
1523177550180707,0,1,0,0,-1,0,-1,-1
1523177550193999,2,2,-3,0,-2,0,-1,0
1523177550193999,1,5,-1,2,0,-2,-2,0
1523177550202852,-2,-5,-2,3,0,-1,-2,-1
1523177550202852,-1,0,8,-7,-1,-1,0,-2
1523177550217067,0,0,1,2,0,-1,1,-2
1523177550217067,0,2,-6,-3,-1,-4,-1,-1
1523177550217805,-1,0,13,0,0,0,-1,-2
1523177550217805,1,0,-19,1,0,-3,-2,-1
1523177550239864,-2,-10,-27,-3,-7,-5,-1,-1
1523177550239864,-1,5,33,2,-9,-3,1,0
1523177550240944,-1,3,-2,1,15,11,4,-1
1523177550240944,-2,0,6,-1,0,2,-1,0
1523177550254197,-2,0,-1,-3,2,-1,-4,-1
1523177550254197,1,-2,-10,1,-3,-5,-3,-3
1523177550262182,-2,1,1,-3,-8,-7,-1,0
1523177550262182,-2,-3,1,-2,0,-2,0,-2
1523177550277280,1,-1,5,-2,-2,-2,-1,1
1523177550277280,-2,-1,-4,2,0,-2,-1,1
1523177550285296,-2,-5,2,-3,-3,-2,-1,-2
1523177550285296,-2,-2,-4,-1,2,-1,-1,-2
1523177550300293,-2,0,4,0,-2,-1,0,0
1523177550300293,1,-3,-7,-2,0,3,-1,1
1523177550300293,2,-1,-5,-3,-2,-2,-2,-2
1523177550300293,-1,0,5,1,-2,-2,0,0
1523177550314366,-1,0,4,-4,-2,1,0,-1
1523177550314366,0,-1,-6,0,-2,-2,-2,0
1523177550322083,0,-2,-5,-2,-2,-2,-2,-1
1523177550322083,-1,-4,4,1,2,1,-2,0
1523177550337411,-4,-4,-5,0,1,2,2,-1
1523177550337411,-1,-2,-14,-4,0,-2,-3,0
1523177550338127,-1,0,6,-1,-6,-6,-3,-1
1523177550338127,1,0,3,2,0,-3,0,-2
1523177550360194,1,4,-2,-1,5,4,2,0
1523177550360194,-1,-3,0,1,-3,1,0,-4
1523177550360194,-1,2,-1,-2,-5,0,-3,0
1523177550360194,2,-1,1,-2,-2,-1,1,1
1523177550374542,-2,3,-2,0,-2,-2,-1,-2
1523177550374542,-2,-2,-2,0,1,0,-1,0
1523177550382523,-2,0,0,-1,0,-2,0,-1
1523177550382523,-2,0,-4,-1,-2,-2,-2,-2
1523177550397583,-1,-5,5,-3,-5,-3,-2,-1
1523177550397583,-1,1,0,-1,1,-1,0,-1
1523177550398285,0,-2,0,0,3,0,2,-1
1523177550398285,-2,-1,-6,1,-2,1,-3,0
1523177550419642,0,-2,3,-3,-1,-2,-2,-1
1523177550419642,0,-3,0,-2,-1,-2,-2,-3
1523177550420347,-1,1,-5,0,-3,-1,-1,0
1523177550420347,-2,-2,0,-1,-1,-1,-1,-1
1523177550434491,1,1,4,-1,-3,-1,-2,0
1523177550434491,-4,0,-4,-1,0,-1,0,0
1523177550442659,0,-4,-8,0,-1,-1,1,-1
1523177550442659,-2,1,10,0,1,1,0,-1
1523177550457700,0,1,-7,-4,0,1,-2,0
1523177550457700,-2,0,-4,0,0,-1,-2,0
1523177550457700,-2,-1,-3,-1,0,0,-1,-1
1523177550457700,-2,-2,-4,0,-3,-1,0,1
1523177550479712,-2,-2,-3,-2,-2,-2,-3,0
1523177550479712,0,0,4,2,2,1,-2,-1
1523177550480508,-1,3,-2,-3,-4,-3,-1,-2
1523177550480508,0,-1,-10,0,-3,-1,-2,-1
1523177550502834,-1,-7,8,-1,-1,2,-1,-1
1523177550502834,0,2,-3,-2,-1,0,2,-2
1523177550503565,-2,-1,3,-1,1,0,0,1
1523177550503565,-1,-2,1,-2,-1,-1,0,-1
1523177550517817,0,-1,-3,-1,-1,-3,-1,0
1523177550517817,-1,-2,-2,-1,-2,-1,0,-2
1523177550517817,0,-2,-1,-1,-2,-2,-2,-1
1523177550517817,-1,1,-3,-1,2,0,-1,-1
1523177550539660,-2,-2,-1,-2,-2,-1,-1,0
1523177550539660,0,-1,-2,0,-2,-1,-4,-1
1523177550540664,0,2,1,-2,-1,-1,1,0
1523177550540664,-1,-2,1,-1,-2,-1,-2,-2
1523177550562981,1,2,1,1,1,-1,-1,-1
1523177550562981,-4,-5,-12,-2,1,1,-1,-2
1523177550563730,2,7,11,0,0,-1,0,1
1523177550563730,-4,-11,-23,-6,-3,-2,-1,-3
1523177550577023,-2,2,2,2,0,0,0,-1
1523177550577023,1,-2,1,-1,-2,-2,0,1
1523177550577762,-2,-1,1,-1,0,0,-2,-1
1523177550577762,-1,3,8,0,0,-2,-1,-1
1523177550600109,0,-2,-7,1,-3,-1,-1,-1
1523177550600109,-1,3,-4,1,-1,-1,0,-1
1523177550600823,-3,-6,-5,-3,-1,-2,-1,-3
1523177550600823,1,1,2,-1,-2,1,-1,1
1523177550622881,0,-1,-5,-3,-2,-3,-1,-1
1523177550622881,-1,2,7,0,-1,-1,-2,-3
1523177550623885,-1,-2,-3,-1,-2,-1,-2,-1
1523177550623885,0,0,3,-1,-1,0,-3,-1
1523177550637192,-1,-2,1,-2,2,1,0,-2
1523177550637192,0,1,2,-2,-1,0,-3,-1
1523177550637923,0,-5,-4,-1,-1,-1,0,-2
1523177550637923,-2,0,-3,1,0,-2,0,0
1523177550660196,-1,0,1,0,-2,-2,-1,-2
1523177550660196,0,-2,-3,-3,-2,-3,0,2
1523177550660196,0,-2,-9,-3,-3,-1,-2,-2
1523177550660196,0,2,12,-1,-3,-1,-1,0
1523177550683338,-1,7,-2,1,-1,-2,0,-1
1523177550683338,-3,-24,-21,-3,0,0,-1,0
1523177550683338,0,1,-3,-1,-2,-1,-1,1
1523177550683338,-2,-1,-2,0,0,-1,-1,-2
1523177550697366,-2,-2,5,-1,-2,-4,-2,0
1523177550697366,-1,0,-4,-2,0,-1,-1,-3
1523177550698085,0,2,0,3,0,-1,-2,-1
1523177550698085,3,-1,2,-2,-3,-1,-1,-1
1523177550720330,-3,-4,-12,-4,-2,-5,-1,-3
1523177550720330,0,3,9,-1,0,0,-1,1
1523177550720330,0,-5,4,1,0,0,-1,-2
1523177550720330,-1,-2,-12,0,-1,1,-1,-1
1523177550743480,-1,-1,1,-1,-1,2,-2,-1
1523177550743480,0,0,-6,-1,0,-1,0,0
1523177550743480,-1,3,31,2,-2,0,-2,0
1523177550743480,0,-5,-22,-2,-2,0,1,1
1523177550757555,-1,-2,3,-1,-2,-2,-2,0
1523177550757555,-1,1,-3,0,-2,-1,-2,-1
1523177550758248,-2,0,2,0,0,-2,-1,1
1523177550758248,-2,-1,4,-2,0,0,0,-1
1523177550779512,-2,3,0,0,-2,-3,0,-1
1523177550779512,-2,-2,9,1,-2,-2,0,-1
1523177550780302,1,-1,-8,-3,0,0,0,-1
1523177550780302,-2,1,-6,-3,0,-3,-1,-2
1523177550803520,-1,1,-8,-1,-1,0,-2,-1
1523177550803520,-2,1,2,-3,-2,-4,-1,-2
1523177550803520,-1,-3,-10,0,-3,-3,-3,-2
1523177550803520,0,0,2,1,2,0,-3,0
1523177550817681,-1,-4,2,0,0,2,2,0
1523177550817681,-1,2,-1,-1,-1,-2,1,-2
1523177550817681,-1,2,-6,-3,-1,0,0,-1
1523177550817681,0,-4,5,-3,0,-3,0,-4
1523177550839458,-3,1,1,0,-1,-1,0,-2
1523177550839458,-2,-4,-2,-1,-2,-2,-3,-2
1523177550840464,-2,1,5,0,-2,2,-2,-1
1523177550840464,-1,-3,-19,-1,-4,-2,-1,-1
1523177550870546,-1,-3,-4,-1,-1,0,1,0
1523177550870546,1,4,1,0,2,-1,0,0
1523177550870546,-1,-3,-5,-2,-1,-4,0,0
1523177550870546,-2,0,14,-1,-3,-2,-1,0
1523177550876857,1,1,-2,-1,0,0,-1,-1
1523177550876857,-1,2,-2,-1,-1,-1,0,0
1523177550877563,-2,-4,-6,-3,-3,-2,-1,-1
1523177550877563,2,6,4,0,2,0,1,0
1523177550899888,-3,-14,11,-1,-4,-1,-2,0
1523177550899888,-4,0,16,0,0,2,2,0
1523177550900623,1,-3,-35,-4,0,-1,-2,-1
1523177550900623,1,2,-4,0,-2,0,-2,-1
1523177550922677,1,1,2,-1,-1,-2,-1,-2
1523177550922677,-1,-1,-1,-2,0,-1,-2,-2
1523177550923682,-1,-2,3,4,1,1,2,-1
1523177550923682,0,1,0,-1,-1,-2,1,0
1523177550936976,1,0,-5,-2,-1,0,-2,1
1523177550936976,2,0,-4,0,-3,-3,-2,-1
1523177550937720,-1,2,1,-1,-4,-3,-1,-2
1523177550937720,-1,-4,2,-1,0,-1,-3,0
1523177550959780,0,-3,-3,-1,-1,0,-1,0
1523177550959780,-1,1,0,-1,1,0,-1,-1
1523177550959780,-4,-2,4,0,0,0,0,-1
1523177550959780,-2,-2,8,-3,-1,-1,-1,-2
1523177550983162,-1,2,-4,0,-1,-1,-2,-2
1523177550983162,0,-2,-2,1,-1,1,-2,1
1523177550983844,1,-1,1,1,2,0,-1,0
1523177550983844,0,-2,-1,0,-2,-1,-1,-1
1523177550997079,-2,1,5,-1,-1,-3,-1,-1
1523177550997079,-1,-2,-6,-2,0,-1,0,-2
1523177550997879,-1,-1,4,0,-1,1,0,0
1523177550997879,1,-3,2,0,1,-1,0,-1
1523177551020218,-1,1,0,1,-2,-2,-1,0
1523177551020218,-3,-4,-9,-2,-1,0,0,1
1523177551020218,1,2,9,-4,-4,-3,-4,-2
1523177551020218,-2,-4,-3,-2,-1,-1,-1,-1
1523177551043256,-1,-3,-5,0,-2,-1,0,-1
1523177551043256,-1,0,6,1,-1,0,-1,1
1523177551043256,0,2,-1,2,1,0,0,-1
1523177551043256,-3,-2,-2,-2,-3,-1,-1,0
1523177551057086,1,1,-5,-1,0,-1,2,0
1523177551057086,-1,-2,1,-1,-1,-1,-1,-1
1523177551065293,0,-3,0,0,-1,-2,0,0
1523177551065293,0,1,-5,1,-1,-1,-1,-1
1523177551080179,-1,2,2,3,-1,0,-2,-1
1523177551080179,-1,-3,-4,-2,-1,-3,-1,-2
1523177551080179,-5,-1,-3,-2,-1,-2,0,-1
1523177551080179,0,1,0,-4,-2,-1,-1,-2
1523177551103451,-1,-1,-2,-3,-2,-2,0,-1
1523177551103451,0,1,-1,-1,-2,-3,0,1
1523177551103451,-1,-5,-4,-2,-1,-2,-2,-1
1523177551103451,0,-2,4,2,-1,-2,0,1
1523177551116453,-1,0,-5,-1,0,-1,-1,-1
1523177551116453,-2,1,-1,0,1,1,0,-1
1523177551125316,-1,1,2,-2,-1,0,0,1
1523177551125316,-3,-5,-6,-4,-2,-1,-1,1
1523177551140310,-1,0,6,-2,0,-1,-2,-3
1523177551140310,-1,-1,-2,-1,-2,-2,-1,-1
1523177551140310,-3,-4,-4,-1,-1,0,-2,-2
1523177551140310,1,-2,1,-1,0,-2,-1,-2
1523177551163496,0,0,-6,0,0,-1,-3,1
1523177551163496,-3,-5,-3,-4,0,-3,-1,-3
1523177551163496,-1,0,-1,1,3,1,1,0
1523177551163496,-2,0,1,-1,-1,0,-2,-1
1523177551176617,-2,-3,-3,-1,-1,0,-1,0
1523177551176617,-1,3,-1,1,-2,-2,-2,-3
1523177551184639,-1,-3,0,-1,-1,-2,-2,-1
1523177551184639,-3,-3,-15,-2,1,2,-1,-3
1523177551199689,0,0,13,1,-1,-2,1,0
1523177551199689,-1,1,-3,-1,-1,0,-1,-2
1523177551200417,-1,0,-4,-1,-1,-2,-2,-2
1523177551200417,0,3,0,2,-1,-2,-2,-2
1523177551223529,0,-2,0,-1,-2,0,-1,1
1523177551223529,0,-2,2,0,-2,-1,-2,-1
1523177551223529,1,0,-1,1,0,-1,0,0
1523177551223529,-1,-3,1,-3,-3,-2,-1,-3
1523177551245752,0,-1,-3,-2,0,-1,1,1
1523177551245752,0,3,6,0,-1,-3,-1,1
1523177551245752,0,-3,-9,-3,-3,-1,-2,-2
1523177551245752,-1,-2,4,-1,-1,-2,0,-2
1523177551259832,-2,-1,-5,0,1,-1,-3,-2
1523177551259832,0,5,0,0,-1,0,0,-1
1523177551260578,-2,-8,2,-1,-3,-1,-1,-2
1523177551260578,-3,0,2,2,0,0,1,0
1523177551282904,-1,-1,-5,-3,-1,-2,-1,-1
1523177551282904,0,0,-4,-4,-1,0,0,0
1523177551283642,-3,1,-4,0,-1,-3,-1,0
1523177551283642,-1,-3,8,-1,0,0,-1,1
1523177551296964,-2,-2,-9,3,-3,-1,0,0
1523177551296964,-1,-2,8,-1,-2,-3,-2,-1
1523177551304120,-2,-1,1,-2,0,0,0,-1
1523177551304120,1,0,0,0,0,-1,-3,-2
1523177551319430,-1,-1,2,0,-1,-1,0,-2
1523177551319430,-2,-3,-6,0,0,0,-1,0
1523177551320161,-1,0,-2,-1,-1,0,-1,-2
1523177551320161,-1,0,-5,0,-1,-2,0,-1
1523177551343336,-3,1,-1,-4,-2,-2,-1,0
1523177551343336,-1,-6,-3,-1,-2,-1,1,-1
1523177551343336,0,-1,0,0,0,-2,0,-1
1523177551343336,-1,-1,-1,2,3,1,-1,1
1523177551356410,0,-2,0,-1,-1,0,-2,0
1523177551356410,0,1,-3,-1,0,2,0,-1
1523177551364279,-3,0,1,-2,-3,-2,-1,0
1523177551364279,-1,-3,-1,-1,-2,-2,-3,-1
1523177551379567,-1,1,0,2,0,0,-2,-3
1523177551379567,-2,-3,2,-1,0,-1,-1,-3
1523177551380320,-2,-3,-9,-5,-2,-1,-2,1
1523177551380320,2,8,3,0,-2,-1,0,-1
1523177551402630,-3,-15,-8,-3,1,1,0,0
1523177551402630,1,4,2,2,0,-1,0,0
1523177551403382,-1,0,5,1,1,-1,-1,-1
1523177551403382,-3,-1,-2,-1,0,-3,0,1
1523177551425735,-1,0,-3,-2,-1,-1,-1,-1
1523177551425735,-2,-1,-1,-2,-1,-2,-2,-2
1523177551426446,-1,-1,-2,-2,-3,1,0,-4
1523177551426446,0,-2,-2,-2,-2,-1,-3,-2
1523177551439478,0,1,5,-1,-1,0,-1,0
1523177551439478,0,-1,-3,0,-1,2,-2,1
1523177551440482,-1,2,2,-1,0,-2,2,1
1523177551440482,-1,-3,1,0,-1,0,1,-1
1523177551463248,-1,-5,-2,-1,-2,-3,0,-1
1523177551463248,0,-1,-10,-4,0,-2,-1,0
1523177551463960,1,1,-17,-2,0,1,-3,1
1523177551463960,-1,-2,2,-1,-3,-1,-1,0
1523177551485315,-3,2,2,-2,-1,-2,0,1
1523177551485315,0,-1,-1,0,1,0,-2,-2
1523177551486018,-1,-2,1,-1,-1,-2,-2,-1
1523177551486018,0,0,-3,0,0,-2,-3,-2
1523177551500327,0,0,-3,-1,-2,-1,-3,-2
1523177551500327,0,-4,3,1,-1,-2,-2,-1
1523177551500327,0,1,2,1,2,3,1,-1
1523177551500327,0,2,-2,-1,-1,-1,0,-1
1523177551523433,-1,-1,-1,-2,-3,-2,-2,-3
1523177551523433,-2,0,-1,-2,-4,-2,0,-3
1523177551523433,-1,-2,1,1,-1,-2,-2,-2
1523177551523433,-2,-3,-2,1,0,1,0,1
1523177551545448,0,2,0,-2,0,1,-2,-1
1523177551545448,-2,-2,-4,-3,-2,-1,-1,0
1523177551546180,-1,0,0,1,-2,-1,0,-1
1523177551546180,-1,-2,-1,-4,-2,-3,-1,-2
1523177551559508,-1,4,0,-2,-1,-2,-1,-1
1523177551559508,-2,-8,-2,-1,-2,-2,0,1
1523177551560215,-1,2,3,1,-1,0,0,1
1523177551560215,1,-1,-1,-1,0,1,0,-1
1523177551583491,-1,0,0,1,0,0,2,-2
1523177551583491,-2,2,-2,-2,0,-2,0,-1
1523177551583491,0,-2,-2,-1,-2,-3,-3,0
1523177551583491,-2,-1,-3,-1,-2,-2,-2,0
1523177551605333,-1,-1,-3,0,-1,-1,-1,0
1523177551605333,-1,-1,1,2,-1,3,-2,0
1523177551606336,-1,-2,3,-2,0,-1,-1,-3
1523177551606336,-2,-6,-1,-2,-2,-1,-1,-1
1523177551619660,-1,1,0,0,-1,-3,-2,-4
1523177551619660,1,-1,4,1,0,1,1,-1
1523177551620373,-2,-4,-10,-3,-2,1,0,-1
1523177551620373,-2,0,1,-1,0,1,0,0
1523177551642685,-2,-2,0,-2,-1,-3,0,-3
1523177551642685,-1,-3,-2,0,-2,-2,-1,-1
1523177551643433,0,5,2,0,-2,-1,-2,-2
1523177551643433,-1,-1,-4,-1,-1,-2,-3,2
1523177551665744,-1,-4,-5,-1,-1,-2,-3,-1
1523177551665744,-1,1,0,-2,-2,-1,-1,-2
1523177551665744,-1,2,4,-2,-3,-1,-2,1
1523177551665744,-4,-9,4,-2,-1,1,0,-2
1523177551679813,-1,1,5,0,2,0,-1,2
1523177551679813,-1,-1,-3,0,0,-1,-1,0
1523177551680535,0,-2,0,1,-1,0,-1,-2
1523177551680535,-1,1,2,-1,-1,-1,-1,-2
1523177551703594,0,-1,-3,-3,-2,0,0,-1
1523177551703594,-3,-3,1,-1,-1,-2,-2,-1
1523177551703594,-1,-3,-4,-2,-2,-1,-2,-3
1523177551703594,1,2,-3,-1,-1,-1,0,-2
1523177551725927,-1,1,6,-2,-1,-1,0,0
1523177551725927,-2,-7,-10,-4,-2,-1,0,-2
1523177551725927,-1,-2,-1,2,0,-3,-1,0
1523177551725927,0,-2,-2,-2,-1,-2,-1,-2
1523177551740001,0,2,-1,1,1,1,-2,-1
1523177551740001,-1,1,1,0,-1,-1,-1,-1
1523177551740694,-2,-3,-3,-3,0,0,-2,-2
1523177551740694,-1,-1,-5,-1,-1,0,-3,-1
1523177551763043,-1,-7,-5,-2,-3,-2,0,1
1523177551763043,0,3,1,0,-1,-1,0,0
1523177551763758,0,-3,4,-2,0,-1,-2,1
1523177551763758,-1,-6,-25,-3,2,0,0,-1
1523177551786023,-1,-1,-7,1,0,1,0,0
1523177551786023,-1,-1,16,-2,-1,-2,-1,0
1523177551786023,1,1,-2,-4,-2,-2,1,1
1523177551786023,-2,2,2,1,-3,-3,-2,-1
1523177551800136,-2,-3,0,-1,-1,-1,-2,0
1523177551800136,0,-2,-8,-2,1,0,-2,0
1523177551800136,1,2,0,1,-2,-1,0,0
1523177551800136,-5,-6,4,-1,0,0,-1,-2
1523177551823233,8,0,-6,-1,0,-3,-1,-3
1523177551823233,0,2,0,1,-3,1,-1,1
1523177551823915,1,0,-1,-3,0,0,-2,-1
1523177551823915,1,4,0,1,-2,-1,-1,2
1523177551845166,-1,2,-1,-4,-1,-1,1,-1
1523177551845166,-1,-2,0,0,1,-4,-1,0
1523177551845974,-2,-4,-7,-3,-2,-1,0,0
1523177551845974,1,2,2,0,-3,-1,-1,-2
1523177551860291,-1,2,1,-3,1,0,-1,0
1523177551860291,-1,-2,-3,0,-1,-1,1,-2
1523177551860291,-2,-2,-2,-1,0,0,1,0
1523177551860291,-1,2,5,1,0,-4,-1,-1
1523177551883387,-2,0,-2,-3,-4,-1,-3,0
1523177551883387,8,4,-3,-1,0,-1,-1,-1
1523177551883387,-3,-8,-1,-1,-2,-2,-2,-2
1523177551883387,-1,-1,0,-2,-1,-1,-1,-1
1523177551905129,0,0,-1,0,-1,-2,0,0
1523177551905129,-2,0,7,-1,0,-1,-1,-2
1523177551906132,0,-5,-28,-3,-3,-2,-5,-1
1523177551906132,-1,-4,1,-3,-1,0,-1,-3
1523177551919459,4,-1,1,1,-3,-2,1,-2
1523177551919459,-3,-2,-3,-1,0,0,-1,0
1523177551920173,0,2,1,0,1,-2,2,-2
1523177551920173,-1,4,11,2,-2,0,-1,0
1523177551943500,-3,-6,-6,-2,1,-2,-1,-2
1523177551943500,0,1,-7,-1,-2,0,-1,-3
1523177551943500,0,2,4,1,-2,0,-1,-2
1523177551943500,1,2,-8,-1,-2,1,-1,0
1523177551965561,-3,-3,1,-1,-1,0,-3,-1
1523177551965561,-1,-4,-1,-1,-1,0,-1,-1
1523177551966295,-5,0,5,0,1,-1,-1,-2
1523177551966295,2,-1,-1,1,0,-1,-1,0
1523177551979609,-3,-3,1,0,1,-1,0,-1
1523177551979609,-3,-3,-6,0,0,-2,-2,-3
1523177551980329,1,4,5,-1,0,1,-2,0
1523177551980329,-1,-5,-3,-3,-3,-1,-2,2
1523177552002693,-1,-2,0,-1,-1,-1,-2,-1
1523177552002693,-2,3,1,-1,1,0,-2,-2
1523177552003396,-1,-3,1,0,-1,0,-1,0
1523177552003396,1,1,-2,-2,-1,-2,-2,0
1523177552025742,-1,-1,6,2,-1,-2,-1,-2
1523177552025742,-1,0,-2,-1,-1,-1,-1,0
1523177552026454,-1,-1,8,-1,-3,-2,-2,-2
1523177552026454,-1,-3,-4,-2,0,1,2,0
1523177552039635,-2,1,1,-1,0,-2,0,0
1523177552039635,-1,-1,-5,2,-2,0,-2,-1
1523177552047787,0,-3,-2,1,0,0,1,-1
1523177552047787,-1,-2,3,1,0,-2,-1,0
1523177552062835,-1,-1,-4,-3,-1,0,0,-2
1523177552062835,-2,1,-2,-2,-2,-3,-2,2
1523177552063552,-2,-10,-16,-2,-1,-1,0,-1
1523177552063552,1,6,8,2,0,0,1,0
1523177552085843,2,-4,-7,-1,-4,1,-3,-2
1523177552085843,0,-3,-5,-3,-2,0,0,-3
1523177552085843,-1,4,2,-1,-1,-1,0,1
1523177552085843,-2,-2,-8,-2,-3,-3,-2,-1
1523177552098909,-1,-1,-1,0,0,-2,-1,1
1523177552098909,0,-3,-12,-3,-5,-2,-2,0
1523177552107714,0,0,2,-1,0,-2,-2,-2
1523177552107714,2,-1,0,-2,-1,-1,-1,-2
1523177552123008,-2,-2,-6,2,-2,0,-1,-1
1523177552123008,-1,0,3,-1,-2,0,-1,1
1523177552123714,-1,-1,2,0,0,1,1,-1
1523177552123714,0,1,-5,0,0,-1,-1,1
1523177552146035,-3,-2,-2,-1,-1,-1,-2,-2
1523177552146035,0,-4,-2,-1,-2,-3,0,0
1523177552146035,-1,-2,0,2,-2,-1,-2,-2
1523177552146035,-3,-2,5,-3,-2,-4,-2,-2
1523177552159385,-2,-2,-4,0,-2,2,-2,0
1523177552159385,-2,-3,-2,1,2,1,-1,-2
1523177552167532,-1,0,1,-2,1,-1,0,-1
1523177552167532,-1,-1,-5,1,-1,-2,-2,-3
1523177552183442,-1,3,3,0,-1,-3,0,0
1523177552183442,-2,-6,2,-1,1,0,1,-2
1523177552183442,0,0,-5,-4,0,-3,0,1
1523177552183442,-1,2,1,1,-2,0,1,-1
1523177552205277,0,-1,-1,-3,-1,-3,-1,0
1523177552205277,1,0,-2,1,-1,-1,-1,-2
1523177552206279,-1,3,11,-2,-3,-1,-1,-1
1523177552206279,-2,-6,-17,-2,1,0,-1,1
1523177552219313,0,-1,1,-2,2,-1,-1,-4
1523177552219313,-2,-2,1,1,-1,-2,1,-1
1523177552228337,-1,-3,-3,-2,-1,0,-4,-1
1523177552228337,0,0,0,-3,-2,-1,1,0
1523177552243448,-2,-2,0,-2,-4,-1,-1,-1
1523177552243448,-1,1,-4,0,1,-2,-2,0
1523177552244380,0,-7,-11,-1,-1,-1,0,0
1523177552244380,-2,0,15,0,-2,-1,-1,-2
1523177552265692,0,-1,-4,-1,-2,0,0,0
1523177552265692,2,0,2,-1,-1,-2,-2,-2
1523177552266438,0,1,2,0,0,0,0,0
1523177552266438,-1,-1,-3,-2,-2,0,-1,-1
1523177552279618,0,-1,-2,-3,0,-2,1,0
1523177552279618,-3,-1,0,-1,-3,-4,-3,-1
1523177552287493,-1,-2,-1,2,0,1,-1,0
1523177552287493,-2,-3,-2,-1,0,-1,-1,-2
1523177552302542,1,2,6,2,-2,0,-2,-1
1523177552302542,-1,-5,-4,-3,-2,0,0,0
1523177552304541,0,2,9,-1,-1,-3,-2,-1
1523177552304541,-3,-2,-4,-1,-2,0,-2,-1
1523177552325849,1,-1,0,-3,0,-1,0,1
1523177552325849,0,0,1,1,0,0,0,0
1523177552326601,-1,0,2,0,-1,-1,-1,-1
1523177552326601,-1,-2,-1,-3,-1,1,1,0
1523177552338855,-2,0,-1,-1,0,-1,-1,-1
1523177552338855,-1,0,0,-1,-1,0,1,-1
1523177552347718,0,-4,-5,-2,-2,-1,-2,-2
1523177552347718,0,0,2,0,-1,-2,-2,-3
1523177552362964,-2,-2,-4,0,-3,-1,-1,-1
1523177552362964,-2,-1,0,-1,1,0,-2,2
1523177552364699,-1,0,-3,-1,1,-1,0,-1
1523177552364699,0,4,-3,1,0,1,0,0
1523177552385755,-3,-8,6,2,-1,-2,-1,-2
1523177552385755,1,-1,-8,-1,0,0,-1,0
1523177552386762,-2,0,7,-1,-3,-1,-2,0
1523177552386762,-1,-2,0,-1,0,0,-1,1
1523177552408064,0,3,-2,-1,0,-2,0,0
1523177552408064,-2,-1,-4,-3,-2,0,0,-2
1523177552409819,-1,-1,-1,-1,-2,-1,0,-1
1523177552409819,0,-4,0,0,0,-2,-1,-1
1523177552423160,-3,-2,-5,-1,-1,-2,0,1
1523177552423160,0,2,3,-3,-2,-1,-1,-2
1523177552423857,1,1,-3,0,-1,-2,-1,-2
1523177552423857,-1,-1,0,0,0,-2,-2,1
1523177552445186,-2,-1,-9,-2,1,1,-1,-1
1523177552445186,-2,-4,2,0,0,1,1,-2
1523177552446922,-3,0,1,-2,-2,-1,0,-1
1523177552446922,0,-1,-10,-3,-1,-2,-2,-1
1523177552468230,0,-1,0,-2,-1,-3,-4,-2
1523177552468230,-3,0,1,-1,-2,-2,-2,-1
1523177552468977,-2,-2,-7,0,0,4,1,-2
1523177552468977,-1,-3,3,0,0,-1,0,-1
1523177552482278,1,1,1,-1,-2,-2,-1,-1
1523177552482278,0,-1,2,0,-1,0,-1,0
1523177552489345,1,-2,0,0,-1,-4,-1,-1
1523177552489345,-1,-1,-2,-1,-2,0,-1,1
1523177552505317,-1,-1,-2,0,-1,-1,0,0
1523177552505317,-1,0,-9,-1,0,0,-1,-2
1523177552507082,0,0,-3,-1,1,1,1,-2
1523177552507082,-1,-3,0,-2,-4,-1,-2,-3
1523177552528380,-1,3,0,-2,-2,1,0,0
1523177552528380,-3,-6,0,-1,-3,-2,-1,-1
1523177552529139,-1,0,-3,-2,-4,-2,-3,-2
1523177552529139,-2,0,-3,0,0,-1,-1,-3
1523177552542428,0,-2,6,1,-1,1,1,-2
1523177552542428,0,-1,2,-2,0,-3,0,1
1523177552549501,-1,-1,-6,-1,-1,-1,-1,-1
1523177552549501,-2,0,7,0,-2,-2,-1,-1
1523177552565235,-3,-3,-18,-1,0,1,-2,-2
1523177552565235,0,0,-2,-2,-1,-1,0,-1
1523177552567236,-3,-2,-1,-1,-3,-2,0,-2
1523177552567236,-1,0,2,-1,-2,0,-2,0
1523177552587293,0,2,1,-1,-1,-2,-2,-2
1523177552587293,0,-1,0,-2,-3,-2,-1,-1
1523177552589300,0,-1,-3,-2,-1,-2,-1,-1
1523177552589300,-1,-1,-3,1,1,2,0,-2
1523177552602333,-2,1,4,-3,-1,-1,0,0
1523177552602333,-1,-1,2,2,-2,-2,-3,-2
1523177552609538,-1,0,3,0,0,-1,0,2
1523177552609538,0,-2,-7,-1,-1,-2,-2,-2
1523177552625664,1,-1,2,1,-1,0,-3,-2
1523177552625664,-2,-2,-1,-1,-2,-1,-2,-2
1523177552626397,-1,-3,-1,0,-1,1,-1,0
1523177552626397,-2,0,0,-1,0,-1,-1,0
1523177552647719,0,1,2,0,1,0,-1,-2
1523177552647719,-2,-2,-4,-1,0,-1,-1,0
1523177552649458,-2,1,0,-1,-2,-1,-2,-1
1523177552649458,-1,0,-2,-1,-2,-1,-1,1
1523177552662758,-3,-4,0,-3,-3,-3,-2,-3
1523177552662758,0,1,1,2,0,0,0,0
1523177552668785,0,-2,2,1,2,1,-1,-1
1523177552668785,-3,-2,-8,-4,1,-2,-1,0
1523177552685559,-2,-1,1,0,-1,-1,0,0
1523177552685559,0,0,0,-1,-5,-3,-3,-3
1523177552686555,-2,-1,1,-1,0,-2,-3,-1
1523177552686555,0,0,5,-2,0,-1,1,-1
1523177552707864,-2,-4,-19,-1,1,2,-1,-2
1523177552707864,-1,-1,1,-1,1,-1,-1,0
1523177552709621,0,1,-1,0,-2,-1,1,-2
1523177552709621,-2,-4,-7,-1,0,1,-4,-1
1523177552722833,-1,4,12,1,-1,-2,-2,0
1523177552722833,-3,-4,-1,0,-1,1,0,-1
1523177552728940,0,0,-5,0,-2,-1,0,-1
1523177552728940,-1,2,4,-1,-2,-3,0,-3
1523177552745975,1,-3,2,-1,-2,-3,0,1
1523177552745975,-2,2,-3,0,0,0,-2,0
1523177552746721,-2,-2,-1,-2,0,-2,-1,-1
1523177552746721,-3,-2,-3,-1,-4,0,-3,-2
1523177552768229,0,-2,-1,2,-1,1,-1,-3
1523177552768229,-1,1,-2,-1,0,-1,1,-2
1523177552769240,-4,-1,-2,-1,0,1,1,-2
1523177552769240,0,1,-1,0,-2,-1,0,-1
1523177552782559,0,-2,-3,-3,-2,-1,-1,0
1523177552782559,-1,0,0,0,-3,-1,-1,0
1523177552789622,1,-5,-5,-2,-2,-1,-2,1
1523177552789622,0,-1,2,0,-2,-2,0,0
1523177552813362,-2,1,-3,-2,-1,0,1,0
1523177552813362,-2,2,1,-2,0,-1,0,-2
1523177552814361,0,1,0,-1,-1,-1,-1,-1
1523177552814361,-1,-2,2,1,-1,-1,-2,0
1523177552828421,1,-1,-6,1,-1,-2,0,0
1523177552828421,0,-1,0,0,-1,-1,1,1
1523177552829402,-1,0,-1,-2,-2,-1,-3,0
1523177552829402,1,1,0,-2,-1,1,0,-3
1523177552842699,-4,-10,-6,-2,-2,0,0,-1
1523177552842699,1,3,7,0,-1,0,-2,-1
1523177552849622,-1,0,0,-1,-3,-3,0,-1
1523177552849622,-1,0,3,1,0,-4,-1,-1
1523177552865807,-2,-3,-8,-3,-1,-1,0,0
1523177552865807,-1,-1,-2,2,3,2,-1,-1
1523177552866500,-1,-3,-2,-2,0,-1,-1,-1
1523177552866500,-2,-1,0,-4,-2,-2,-1,-1
1523177552887553,1,2,5,-1,-1,-4,-2,-1
1523177552887553,3,-4,-5,-2,-3,0,-1,-2
1523177552889558,-2,4,0,-1,0,-2,-1,-1
1523177552889558,-3,-2,-3,1,0,0,1,-1
1523177552901589,-1,-1,4,-1,0,1,-3,0
1523177552901589,-1,0,-1,0,-3,-1,0,-1
1523177552910615,2,0,-3,0,-1,-2,-1,-2
1523177552910615,-1,-1,-1,-3,-3,0,0,-1
1523177552925920,0,6,5,1,0,-1,0,-3
1523177552925920,-2,-8,-9,-3,-1,-3,-3,-2
1523177552926660,-1,1,13,0,-1,0,-2,-2
1523177552926660,-1,-4,-14,-1,0,0,1,-1
1523177552947985,-2,-3,3,-2,2,-2,-1,-1
1523177552947985,0,5,4,-3,-2,0,0,-1
1523177552949719,0,-1,-3,-1,-1,1,0,-3
1523177552949719,1,-3,1,-1,1,-1,-1,-2
1523177552962038,-1,-2,-4,-1,-2,2,-1,1
1523177552962038,-1,-3,-3,-2,-2,-1,1,1
1523177552970175,-2,-2,-4,0,-1,0,-1,1
1523177552970175,1,4,-3,-2,-3,-2,0,0
1523177552985218,-3,-7,-1,-3,-3,-1,-2,-2
1523177552985218,-2,-1,1,-2,0,-3,-1,-1
1523177552987221,2,-2,-4,1,0,0,0,-1
1523177552987221,0,0,-2,0,-1,-1,-1,0
1523177553008294,-1,3,2,1,-2,0,-2,-2
1523177553008294,-1,-1,-1,-1,-2,0,-1,-2
1523177553009280,-1,-4,-4,-2,1,-1,-1,-1
1523177553009280,2,-1,1,-1,0,-2,-1,-1
1523177553021312,0,0,-1,-4,-1,-3,-2,-1
1523177553021312,-1,-1,0,-4,-2,0,0,0
1523177553030340,-1,1,-4,0,-1,0,0,0
1523177553030340,-3,-4,-2,0,-1,0,-1,1
1523177553045376,-1,2,0,3,-2,-1,1,-1
1523177553045376,0,-1,0,0,0,-1,-1,-1
1523177553047383,-2,-1,0,-3,-4,-1,0,0
1523177553047383,0,-2,3,0,-1,-2,1,0
1523177553068436,-1,-2,-4,1,0,1,-1,-1
1523177553068436,-1,-2,1,0,0,-2,-2,-1
1523177553069443,-1,-5,-15,-4,-2,-2,-2,0
1523177553069443,-2,1,-6,-3,0,0,-2,-2
1523177553081731,-3,-3,10,2,0,-4,0,-2
1523177553081731,-1,-1,-6,3,0,-2,0,-1
1523177553090500,0,-3,1,-2,-3,-1,-1,-2
1523177553090500,-3,-3,-1,-2,-1,-1,-2,-1
1523177553105932,-1,-2,-3,-4,0,0,0,-1
1523177553105932,0,-2,1,-2,-2,-2,-1,0
1523177553106540,-1,1,6,1,0,-3,-1,-2
1523177553106540,-1,0,-6,-2,-1,0,-1,2
1523177553127866,0,-1,-1,-1,0,1,0,0
1523177553127866,-1,-5,1,-2,0,0,0,-2
1523177553129598,-3,-2,-8,1,-2,-1,-2,-2
1523177553129598,-2,0,2,1,-1,-1,-2,-1
1523177553141891,0,1,-1,-1,-1,-2,-2,0
1523177553141891,-3,-2,-6,-3,-1,-2,-3,-1
1523177553150657,-2,-1,3,-2,-1,0,-1,-2
1523177553150657,-3,-4,3,-1,-1,-2,0,-2
1523177553165954,1,-1,-5,-1,1,-1,-1,-1
1523177553165954,-1,4,8,0,0,0,0,-2
1523177553166700,-2,-4,-5,-1,0,-2,-1,1
1523177553166700,-1,-1,2,-1,-2,-1,0,-2
1523177553187983,0,-1,-4,0,0,-1,0,-1
1523177553187983,-1,-2,-1,-1,-4,0,0,-1
1523177553189759,-1,0,3,-2,-1,0,-3,0
1523177553189759,-1,-2,-4,-2,0,0,-2,-1
1523177553201791,-3,1,2,-2,0,-2,-2,-1
1523177553201791,-1,-3,-4,0,0,-1,0,-1
1523177553210814,1,3,1,0,1,1,1,-1
1523177553210814,0,-3,2,1,-2,0,0,-3
1523177553225123,2,-1,0,0,-3,-1,-2,0
1523177553225123,-1,1,-1,-2,-1,-1,-2,-2
1523177553226859,-1,-1,-1,-1,-1,-2,-1,-1
1523177553226859,-1,2,2,-2,0,-2,0,-2
1523177553248169,-1,0,2,1,-1,-1,-2,-1
1523177553248169,-3,-5,-12,-2,1,0,1,0
1523177553248915,-1,0,3,0,1,-1,0,-1
1523177553248915,0,-2,-1,-2,0,-2,-1,-1
1523177553262133,-2,-1,-2,-2,-2,-1,-1,-1
1523177553262133,1,3,2,-1,-4,0,-1,-1
1523177553269970,-5,-6,-1,-1,-2,-2,-1,-2
1523177553269970,-2,-1,-2,0,0,1,0,2
1523177553285029,0,-3,-4,0,-2,-1,-2,-2
1523177553285029,0,2,3,2,0,-2,-1,-2
1523177553291327,1,-2,-3,-4,-1,0,-1,-1
1523177553291327,-1,3,7,0,-2,-1,0,1
1523177553308333,-1,-8,-6,-1,-2,-3,0,-1
1523177553308333,-2,2,5,1,0,-1,1,-1
1523177553309076,1,-2,-13,-1,2,-1,0,0
1523177553309076,-1,-3,0,-3,-2,-1,-4,0
1523177553330384,-1,3,2,-1,-1,0,-1,-2
1523177553330384,-3,-2,-3,-2,-1,-2,-2,-1
1523177553336149,0,-1,2,-1,-3,-2,-1,-1
1523177553336149,-1,2,-3,0,0,-1,-1,-1
1523177553345414,-1,-4,-3,-1,-1,-2,0,-1
1523177553345414,0,0,-2,-4,0,0,-2,-1
1523177553346417,-1,1,4,0,0,2,0,0
1523177553346417,0,-2,-3,1,0,-2,-1,-1
1523177553367733,-2,0,3,-3,-3,-1,-1,0
1523177553367733,0,-2,0,1,-1,-1,-1,-2
1523177553369482,0,0,-1,-3,-3,-2,-3,-2
1523177553369482,-1,0,3,0,0,0,-2,-1
1523177553390585,0,-2,-10,-3,-1,-1,-1,-1
1523177553390585,-1,0,1,-1,-2,-1,-1,1
1523177553391537,-2,-11,-2,0,1,0,-3,-1
1523177553391537,1,1,0,1,0,0,1,-1
1523177553405581,-1,1,0,-1,-3,-1,-1,0
1523177553405581,-2,-4,-3,-1,-3,-2,-2,-1
1523177553406577,-2,2,2,0,-1,-2,-1,-1
1523177553406577,-1,-2,-5,-2,-2,-3,-1,-1
1523177553428049,-1,-2,1,0,-1,-1,0,-1
1523177553428049,2,2,-1,1,-4,-2,-2,2
1523177553429639,-2,1,1,0,0,0,-1,0
1523177553429639,2,-3,-5,0,-1,1,-2,-2
1523177553450985,-1,2,6,-1,2,1,1,1
1523177553450985,0,-3,3,-1,2,0,-1,1
1523177553451701,-1,1,-2,1,-3,-1,-1,-3
1523177553451701,-1,-1,1,-1,-2,0,-2,-1
1523177553465109,-1,-3,-4,0,-3,-1,-2,-1
1523177553465109,-2,-2,-4,-2,-1,0,0,1
1523177553472085,-1,-1,6,0,-1,-1,-1,0
1523177553472085,-1,1,-2,-1,-1,-4,0,-2
1523177553488433,-2,-3,-3,2,1,-1,-1,-1
1523177553488433,0,0,-2,-1,0,1,-3,-3
1523177553489250,0,0,-2,-2,0,0,-2,0
1523177553489250,-1,-1,0,-2,-1,-1,-2,0
1523177553510629,-1,0,-1,-2,0,1,-2,-1
1523177553510629,0,-2,-1,0,-1,-4,0,1
1523177553511309,1,2,1,-1,-1,-1,-1,-2
1523177553511309,1,-4,2,-1,-4,-1,1,-1
1523177553524673,0,-2,-3,-2,0,-1,-2,-1
1523177553524673,-2,-1,-1,-1,0,1,-1,-1
1523177553531688,-3,-2,-2,-3,-1,-1,-2,1
1523177553531688,-3,0,-2,-2,-1,-1,-3,-1
1523177553548406,2,1,0,1,-1,-1,-2,-1
1523177553548406,-2,-3,1,-1,-1,0,0,-1
1523177553549409,1,-1,-4,-1,-1,-2,-1,-1
1523177553549409,0,-1,-2,-1,-2,-1,-2,-2
1523177553570465,-2,-2,0,0,-3,1,2,-1
1523177553570465,-1,-3,-3,-1,0,1,-2,-2
1523177553571468,0,0,-1,-1,-1,0,0,0
1523177553571468,-1,0,-4,-1,-1,-1,-1,0
1523177553584810,-1,2,-1,-2,-3,0,-1,-1
1523177553584810,-1,-1,-1,-1,-1,-3,-1,-1
1523177553591523,-2,-2,2,-1,-4,0,-2,-2
1523177553591523,-2,-1,0,-1,0,-1,-3,-1
1523177553607818,-3,-1,2,0,0,-2,-2,-2
1523177553607818,-2,0,-2,-3,-3,0,1,-1
1523177553609569,0,-2,0,-1,0,0,1,-1
1523177553609569,-1,-1,-2,1,0,-1,2,1
1523177553630899,0,-1,1,-1,1,-1,0,-2
1523177553630899,-1,0,-2,-1,-1,0,-2,-2
1523177553631629,-2,1,-4,1,0,-1,0,-2
1523177553631629,0,-9,-2,-5,-3,-3,-2,0
1523177553644938,-1,0,-2,0,-1,0,-1,-1
1523177553644938,-2,-1,0,-2,0,0,0,0
1523177553651381,-2,1,-2,-1,1,1,-1,-1
1523177553651381,0,0,-1,0,1,0,0,-1
1523177553668132,0,-1,-2,-1,-1,-1,0,-1
1523177553668132,1,-3,-3,0,-2,-4,1,-1
1523177553669133,-1,0,4,-2,-2,-1,0,0
1523177553669133,-4,-4,-5,-1,-1,0,0,-2
1523177553690448,-1,0,0,0,0,-1,-1,0
1523177553690448,0,-4,-2,-1,-1,-1,-2,-1
1523177553692196,3,4,4,-1,0,0,0,2
1523177553692196,-3,-3,-5,-1,-1,-2,-1,-3
1523177553705235,0,-3,-2,-3,0,0,-2,-1
1523177553705235,-3,0,0,0,0,-1,-1,-1
1523177553711502,-1,0,-5,-2,-3,-1,-2,-1
1523177553711502,1,1,-1,0,-1,0,0,-1
1523177553728295,-1,0,2,0,-1,-2,1,0
1523177553728295,-1,0,0,0,-1,-1,-1,-1
1523177553729293,-2,-3,-2,1,-1,-1,-1,-2
1523177553729293,-1,1,5,1,0,0,-2,-1
1523177553750592,-3,-5,-8,-2,-1,-1,0,-2
1523177553750592,0,1,-2,1,0,-1,0,0
1523177553751359,-2,-1,-2,-1,-2,-1,-2,-1
1523177553751359,-1,0,2,-1,-3,0,0,0
1523177553764682,-1,0,0,-3,0,-3,-2,-2
1523177553764682,-2,-1,-2,-3,-1,-1,-1,-2
1523177553771708,0,-2,0,1,0,-1,0,-2
1523177553771708,-1,0,0,2,0,-3,-1,0
1523177553788452,0,-5,-2,1,-1,-1,0,-1
1523177553788452,0,3,-1,0,-1,-2,-1,-2
1523177553789454,-1,-2,-3,0,1,-1,-1,-1
1523177553789454,-1,1,-1,-2,-1,1,0,-3
1523177553810768,-1,-1,0,2,-2,1,0,0
1523177553810768,0,1,4,-1,-4,-1,-2,0
1523177553811515,-1,-7,-3,-2,-2,0,-1,-1
1523177553811515,0,-1,-15,1,-2,0,-2,-2
1523177553823910,-2,2,5,1,0,0,-2,-2
1523177553823910,1,-3,-2,-1,2,-2,0,-1
1523177553832858,-2,0,2,-1,-1,-1,1,-1
1523177553832858,-3,-1,0,-3,-2,-1,-2,-1
1523177553847993,-1,-1,-2,-1,0,-1,-2,-1
1523177553847993,0,1,2,0,-2,-1,-1,0
1523177553849733,-1,-5,-4,-3,-1,-1,-3,0
1523177553849733,-1,-1,2,-1,2,0,1,-1
1523177553869784,-4,0,-2,0,-1,-1,0,-1
1523177553869784,-1,-1,-1,1,0,0,0,-1
1523177553871791,-1,0,0,-2,-3,0,0,-1
1523177553871791,-1,-2,2,1,-2,-1,-1,1
1523177553884099,0,0,-1,-3,-1,-2,0,1
1523177553884099,-2,-4,-5,-2,-3,-1,0,-1
1523177553892846,-1,0,1,-1,2,-1,1,-1
1523177553892846,2,0,2,0,0,-2,0,-2
1523177553908132,0,-1,-1,1,-2,1,-1,-2
1523177553908132,2,-2,2,1,0,0,-1,-1
1523177553908889,0,1,-1,1,-3,-1,-2,0
1523177553908889,-1,-3,1,-4,-1,-3,-1,0
1523177553930240,-1,-2,-4,2,-2,-2,0,-2
1523177553930240,-1,-2,-1,-5,0,0,-1,0
1523177553931951,1,-1,1,1,-1,-2,-2,-1
1523177553931951,-1,-2,-2,0,0,0,-3,-2
1523177553944272,0,0,0,-3,-4,-4,-1,-2
1523177553944272,-1,0,-3,-1,-2,-2,-1,-2
1523177553953004,0,-2,0,-1,-1,-3,-2,0
1523177553953004,-1,-1,-1,-2,0,-2,-1,0
1523177553968065,-4,-6,2,-2,-1,-1,-1,0
1523177553968065,-1,2,0,2,1,-2,-2,0
1523177553969049,-1,1,-1,0,-2,0,1,-3
1523177553969049,0,-3,1,-1,-4,-1,0,0
1523177553990452,1,0,-1,0,0,1,-1,-1
1523177553990452,-2,-3,-2,-1,0,-2,0,1
1523177553992110,0,-1,-1,1,-3,-1,-2,-1
1523177553992110,-1,3,-2,-1,-1,-1,0,-3
1523177554004378,0,-3,-1,-2,-1,-1,-1,0
1523177554004378,2,-1,-5,-2,-2,-1,0,-3
1523177554013168,-1,1,-1,0,-1,-1,-2,0
1523177554013168,-2,-2,1,-1,-1,0,-1,-1
1523177554028320,1,2,-3,-1,2,-1,-1,1
1523177554028320,-2,0,4,-1,-1,0,-1,0
1523177554029208,-1,-2,-4,-2,1,-1,0,1
1523177554029208,-1,1,-1,-1,-3,-2,-1,-1
1523177554050527,-3,0,-1,0,1,-1,-1,-2
1523177554050527,0,-3,1,-1,0,-1,0,-1
1523177554051267,-1,0,-2,-2,0,-1,-2,0
1523177554051267,0,-2,-2,0,-2,-1,-1,-1
1523177554064502,-2,0,2,2,-2,-1,-2,-2
1523177554064502,-2,-3,0,-1,-1,0,-1,-1
1523177554073326,-1,1,-2,-2,-2,-3,-4,-2
1523177554073326,0,0,0,1,1,-2,-1,1
1523177554088403,0,-6,-4,-1,0,-2,-2,0
1523177554088403,-1,-1,-4,-2,-3,-1,0,-2
1523177554089372,-1,-3,6,0,-2,-1,0,0
1523177554089372,-3,-3,-6,-2,0,0,-2,-3
1523177554110716,-1,0,1,-1,-2,0,-1,-1
1523177554110716,0,0,0,-2,-3,-1,-2,-1
1523177554111430,0,-2,-2,0,-1,0,-2,-1
1523177554111430,-1,-2,-3,-2,-1,-2,-1,0
1523177554124474,-2,-1,1,-1,-2,-1,-1,-2
1523177554124474,-2,-1,-5,-3,-1,0,0,-2
1523177554132757,-1,-5,8,1,-2,0,1,-1
1523177554132757,-1,3,2,-1,-2,0,-1,-1
1523177554147806,1,-2,-7,0,1,1,-1,0
1523177554147806,0,-1,3,0,-2,-1,0,-2
1523177554149529,1,-1,1,-2,-1,-2,-1,-2
1523177554149529,-1,0,-3,1,-3,-1,-2,0
1523177554170894,0,-2,-2,-3,-2,-1,-3,0
1523177554170894,0,0,8,0,-2,1,1,1
1523177554171586,-1,0,-11,-3,-3,-2,-1,-3
1523177554171586,-1,-2,4,1,-1,-2,0,1
1523177554183903,1,1,-5,-1,-1,2,-2,-3
1523177554183903,-1,-3,0,1,0,-1,-2,1
1523177554192733,1,0,-10,-2,1,-1,1,0
1523177554192733,-1,-2,1,-1,-1,0,-2,-1
1523177554207940,-3,3,3,0,-3,-2,-3,-2
1523177554207940,0,-3,-3,-2,0,-3,-1,-3
1523177554209686,-2,1,0,0,-1,-1,-3,0
1523177554209686,-1,-1,-2,0,-1,-3,-1,0
1523177554230980,0,0,5,-2,-2,-1,1,0
1523177554230980,0,-2,-17,1,0,-1,-2,-4
1523177554231750,-1,-2,-1,-4,-1,-1,0,2
1523177554231750,-1,-3,-2,-2,0,0,1,-1
1523177554252804,-1,-1,-2,0,-1,0,0,-2
1523177554252804,-2,1,12,1,-3,-2,-3,-2
1523177554253805,0,0,0,1,0,-1,-1,-2
1523177554253805,0,-3,-7,-3,-2,1,0,-2
1523177554267847,0,0,-1,0,1,-2,0,-1
1523177554267847,-1,-6,-2,-2,-1,0,0,1
1523177554268843,0,2,-3,0,-1,-2,0,-2
1523177554268843,-1,-1,4,-1,-2,-2,-1,0
1523177554290207,-1,-1,-2,-1,-2,-2,-1,-2
1523177554290207,-1,-1,-4,0,-2,-2,-2,1
1523177554291908,0,0,3,-2,-1,0,-1,-2
1523177554291908,0,-2,-2,1,1,0,-1,-2
1523177554313250,-2,-2,-1,0,-2,-1,0,-1
1523177554313250,-1,0,-5,-2,0,0,0,0
1523177554313968,-4,-3,1,2,-1,-2,-2,-3
1523177554313968,-1,-1,-8,-2,1,-2,0,1
1523177554328302,-2,0,-2,-1,1,-1,-2,-1
1523177554328302,1,2,3,-1,-1,0,-1,-1
1523177554329004,-1,-1,-2,-2,-2,-1,0,-1
1523177554329004,-2,-1,0,-1,-1,1,-1,-1
1523177554350367,1,-1,1,1,-2,-2,-1,1
1523177554350367,-1,-1,-4,-2,1,-1,0,0
1523177554352064,-1,-4,9,-2,-1,-2,-2,-2
1523177554352064,-3,-4,-17,-1,-1,-2,0,2
1523177554373433,-1,3,2,-1,-2,-1,1,-1
1523177554373433,-3,-1,3,-1,-1,-1,-1,-1
1523177554374126,-1,2,-1,-1,-1,0,1,-1
1523177554374126,-2,1,7,-3,-1,0,-3,-2
1523177554388317,-1,-1,-3,0,2,1,-1,-2
1523177554388317,0,-2,0,-3,-1,1,-1,-2
1523177554389167,-1,1,-2,-1,-1,-1,-2,2
1523177554389167,0,1,4,2,-1,-1,1,-1
1523177554410501,-1,-2,2,-2,0,0,-2,0
1523177554410501,1,0,0,1,0,-3,-1,-2
1523177554412227,-1,-3,-3,-4,-2,-2,-3,0
1523177554412227,0,1,6,1,-1,-1,-3,-3
1523177554433495,-2,-2,-2,-2,-2,0,-1,0
1523177554433495,-1,-1,-1,-3,-1,-1,1,-2
1523177554434286,-2,1,-2,1,0,2,0,-1
1523177554434286,-2,-2,1,-2,-1,-4,-3,-2
1523177554447604,-2,0,-2,-2,-2,-1,-1,-1
1523177554447604,-1,-3,-3,1,-3,-2,-1,-2
1523177554454526,0,1,-2,-2,0,-1,-2,0
1523177554454526,0,-3,4,-2,-1,-2,0,-1
1523177554470380,0,-2,-3,-1,0,-2,0,-1
1523177554470380,-2,-1,1,-2,-1,-1,-2,0
1523177554471386,-1,-2,-3,-3,0,-2,-1,0
1523177554471386,0,0,0,0,-1,-1,-2,1
1523177554493506,-1,-1,2,0,0,-3,0,-2
1523177554493506,-1,0,-2,2,-1,-1,2,2
1523177554494446,2,-3,-3,-1,-1,-1,2,-2
1523177554494446,-3,0,-1,-2,-1,-1,0,-1
1523177554507730,-2,-4,-1,-3,-2,-2,-1,-2
1523177554507730,-1,3,0,-5,-2,-3,-2,-1
1523177554514655,-2,-1,0,2,-2,0,-1,-2
1523177554514655,-1,2,-3,1,1,0,0,-2
1523177554530818,-2,-5,0,-1,-3,-2,-3,-2
1523177554530818,-2,-2,0,2,-1,-1,-1,0
1523177554531544,1,-1,1,-1,0,-1,-1,-2
1523177554531544,0,0,8,1,-3,0,-1,-1
1523177554552598,-1,-2,-4,-1,-2,1,1,-1
1523177554552598,-1,-2,-1,-2,-1,0,-2,-2
1523177554554603,-1,1,-1,-2,-1,-2,-1,-1
1523177554554603,0,0,1,-1,-2,0,-2,-1
1523177554566908,-1,0,0,-2,1,-1,1,-1
1523177554566908,-2,-2,2,0,-2,-2,0,-2
1523177554573903,-2,-2,-2,1,0,1,1,-2
1523177554573903,0,-3,-5,-3,-2,-3,0,-1
1523177554590962,0,0,-4,-2,-1,-3,-1,1
1523177554590962,-1,-1,-4,-2,0,0,-1,-1
1523177554591703,-2,-1,0,-1,0,-2,0,1
1523177554591703,-3,-5,-3,-1,-3,-2,0,-3
1523177554612962,-1,-4,-1,-1,-2,-1,-2,-1
1523177554612962,1,1,1,-1,-1,-2,0,-1
1523177554614769,-1,-1,1,0,0,1,-2,0
1523177554614769,-3,0,-2,0,-1,0,0,1
1523177554627102,0,2,3,0,2,-1,-3,0
1523177554627102,-1,-2,-5,-2,-2,-2,-2,-1
1523177554633925,0,-1,-2,-1,-2,-1,-2,0
1523177554633925,-1,-1,-3,0,0,-2,-3,-1
1523177554650114,-3,0,-2,0,-3,-1,-2,-2
1523177554650114,-1,-3,-1,1,0,1,-2,-1
1523177554651861,-1,-3,0,-3,-2,-1,-1,0
1523177554651861,-1,-2,-1,0,2,0,1,-4
1523177554673193,-1,-1,2,-2,-1,-1,-1,0
1523177554673193,0,1,-1,0,1,1,-1,0
1523177554673925,1,-9,-4,0,-1,-3,-2,-1
1523177554673925,-2,-2,-2,-1,-1,-1,-2,-2
1523177554696027,2,-1,-1,1,-2,-3,-1,-2
1523177554696027,-2,2,0,-1,-1,-3,-1,-2
1523177554696986,-1,0,-1,-1,0,-1,1,-1
1523177554696986,0,-1,-3,-2,-1,-1,-2,1
1523177554710310,-2,-1,-3,-2,-1,0,0,-1
1523177554710310,-1,-1,4,-1,-3,-1,-2,-1
1523177554712024,-1,0,-4,-2,-2,-2,-1,-2
1523177554712024,1,-2,-2,1,0,0,-1,0
1523177554733336,0,0,-2,-1,-1,-1,-1,0
1523177554733336,-3,-1,1,-1,-2,0,0,-2
1523177554734081,-3,1,0,-1,-2,0,-1,0
1523177554734081,0,3,-3,-2,-3,-2,0,0
1523177554755398,2,-1,-1,0,-2,-1,0,0
1523177554755398,-2,-2,0,-1,1,0,0,0
1523177554757144,0,0,-1,-1,1,0,-1,-2
1523177554757144,-2,-1,0,-1,-2,-1,-1,-2
1523177554770175,0,0,-1,1,0,-1,-1,-1
1523177554770175,1,0,3,-2,-5,-2,0,-1
1523177554772186,-1,-3,-6,-2,-1,0,-2,-1
1523177554772186,-2,0,3,-1,-1,-1,-2,1
1523177554793485,-1,-3,-3,1,-2,-1,-1,0
1523177554793485,1,-2,1,0,0,-2,0,-2
1523177554794245,-3,0,-1,-1,1,-1,-1,-1
1523177554794245,-3,-2,-5,-2,-1,1,-1,-2
1523177554806536,0,-2,0,-2,1,-1,1,1
1523177554806536,-2,-2,-5,-4,-1,-2,-2,0
1523177554815299,0,-1,1,-3,-2,-2,-2,0
1523177554815299,0,0,-2,1,-1,-2,-2,-2
1523177554830595,-4,-1,-1,-4,-3,-2,-2,-2
1523177554830595,0,2,-3,0,1,0,-1,-1
1523177554831342,-3,-8,-3,0,0,-1,1,0
1523177554831342,1,1,2,1,0,-1,0,-2
1523177554852395,-3,-1,0,0,-3,-1,-3,-2
1523177554852395,0,-1,-3,-5,-1,-3,-1,-2
1523177554854401,-2,1,4,0,-2,-3,-1,0
1523177554854401,1,-2,-9,0,-1,0,0,1
1523177554866687,-1,-3,-1,-2,0,0,0,-1
1523177554866687,-1,-4,-1,-1,-1,0,0,0
1523177554875457,2,1,-3,0,-1,2,0,-1
1523177554875457,0,0,0,-3,-2,-2,1,1
1523177554890765,0,0,0,-3,-1,-1,1,-1
1523177554890765,-1,-1,-2,1,0,0,-1,0
1523177554891499,1,1,1,1,0,-2,0,-2
1523177554891499,-3,-4,-2,-2,1,-2,0,-1
1523177554912827,-4,-1,-2,0,-2,-1,-2,-2
1523177554912827,0,-4,-2,0,-1,-1,-2,1
1523177554914562,-1,3,1,1,-1,-1,-1,-3
1523177554914562,0,-1,5,-3,-1,-1,-1,1
1523177554926892,0,-2,-9,-1,-2,0,-3,-1
1523177554926892,-1,0,-1,-1,-1,-2,1,-1
1523177554935619,-1,-2,8,-1,-3,-1,-1,-1
1523177554935619,0,-1,-1,-2,-1,-2,-2,-1
1523177554949961,-1,1,3,1,-1,0,-1,-1
1523177554949961,-3,0,-2,1,-1,-1,-1,0
1523177554951659,0,0,1,-2,0,-1,-1,-2
1523177554951659,-2,-2,0,0,-2,1,-1,-2
1523177554972963,-1,1,-2,0,0,-3,-2,-1
1523177554972963,0,-2,-1,-1,-1,0,-3,-1
1523177554974722,-1,0,-2,-1,-3,-2,-2,1
1523177554974722,-3,-4,-1,-1,0,-1,-1,-3
1523177554987059,-2,-2,-4,-1,2,-1,0,-1
1523177554987059,-1,2,-1,0,-1,-1,-1,-2
1523177555002797,-2,-3,-4,-1,0,-1,-2,-1
1523177555002797,-1,2,0,0,0,-1,-1,0
1523177555010968,1,-1,1,2,-1,0,-2,1
1523177555010968,-3,-3,2,0,-2,-2,1,-3
1523177555011822,-1,-2,-12,-2,-2,-1,1,-1
1523177555011822,-2,-1,0,-1,-1,-3,-2,-3
1523177555033150,-1,-1,2,-3,-2,-1,0,0
1523177555033150,0,-3,-3,-3,-1,0,-2,-1
1523177555033882,0,0,-2,-2,1,0,-3,0
1523177555033882,-2,1,-2,-1,-3,1,1,0
1523177555047124,-1,-2,-3,-1,-1,-2,1,-2
1523177555047124,0,0,-1,-1,-3,-1,0,-1
1523177555055180,-1,-2,-1,0,-1,-1,-1,-3
1523177555055180,2,0,-3,-3,-3,-2,-3,-1
1523177555069974,-1,-2,1,-1,0,1,-1,-1
1523177555069974,-1,1,-1,1,-2,-3,-2,-2
1523177555071978,0,-1,-1,0,0,-1,-2,-1
1523177555071978,0,-1,-1,-3,1,-1,1,0
1523177555093300,-1,0,-2,-2,-2,-1,-1,0
1523177555093300,0,0,-1,-1,-1,1,1,-1
1523177555094042,-4,0,-6,-2,-3,0,-2,-1
1523177555094042,-2,0,0,1,-2,-2,-3,-1
1523177555106143,-1,-1,3,-2,-2,-1,-2,-1
1523177555106143,-2,-3,-3,-1,-1,0,0,1
1523177555115290,-2,1,1,0,-1,-1,0,1
1523177555115290,-2,-1,0,1,-1,0,-2,-1
1523177555130388,-1,-1,-4,3,-2,1,0,-1
1523177555130388,-1,-1,-3,-3,-3,-2,-2,-1
1523177555132140,1,-1,2,-1,-1,0,1,-1
1523177555132140,-1,0,-1,-2,-3,-2,-3,-1
1523177555153336,0,-2,-2,-1,-1,-3,-2,0
1523177555153336,-1,0,-1,-2,-1,-1,-3,0
1523177555154196,-1,-1,0,-3,-2,-1,-1,-1
1523177555154196,-1,-1,-4,-2,-2,-1,0,-1
1523177555166499,-1,2,-2,-2,1,-1,-2,-1
1523177555166499,-1,-6,0,-1,-1,-1,-1,-3
1523177555175252,-1,0,-2,-2,0,0,0,0
1523177555175252,-2,-5,-1,-1,0,0,2,0
1523177555190548,-2,-1,-1,-4,0,-2,0,0
1523177555190548,-1,1,-2,0,0,-3,-1,-1
1523177555191298,-1,-2,-2,1,-3,-1,-2,-2
1523177555191298,1,0,-2,1,-2,0,0,-1
1523177555213357,0,1,1,-2,-1,-1,0,0
1523177555213357,-1,-5,1,-2,0,0,1,0
1523177555214361,-1,0,0,-1,-2,-2,-1,-1
1523177555214361,1,2,2,-1,0,-1,0,-2
1523177555235413,-1,-3,2,0,-2,0,-1,-2
1523177555235413,2,-2,-4,-1,1,-1,-1,-1
1523177555236596,-1,1,-2,1,-1,0,-2,0
1523177555236596,1,-1,1,0,-3,-2,-2,-1
1523177555250456,-3,0,1,-1,-2,-1,1,-2
1523177555250456,-1,1,0,0,0,-2,-1,0
1523177555251458,0,-2,-2,0,0,0,-1,-1
1523177555251458,1,-1,-2,-3,0,0,-1,-1
1523177555272772,-1,-3,-1,-1,1,0,-1,-1
1523177555272772,0,-1,-1,-1,-4,1,-1,-2
1523177555279590,0,-1,0,-2,-4,-3,0,-2
1523177555279590,-3,1,-3,1,-2,-1,-2,-1
1523177555295853,0,2,0,0,0,-2,1,0
1523177555295853,-3,-2,-1,-2,-1,-2,-2,0
1523177555296575,-1,2,-1,-2,0,-1,-1,0
1523177555296575,-1,-6,1,-2,-1,-3,0,-1
1523177555310889,0,0,-7,-1,-2,-2,-4,-2
1523177555310889,2,0,1,-1,0,-1,-1,-1
1523177555311616,-1,-3,0,0,0,0,-2,2
1523177555311616,-2,-2,-2,-1,-1,-1,-1,-1
1523177555332946,-1,-1,-1,-1,-1,1,-1,-1
1523177555332946,0,-1,-1,0,-2,-2,-1,-1
1523177555334676,-1,-1,-3,-1,-1,-1,-1,-3
1523177555334676,-3,-1,0,-2,-1,0,-1,-1
1523177555355954,-2,-2,2,2,1,-1,0,-1
1523177555355954,-3,0,0,-1,-2,0,-2,1
1523177555356737,0,0,1,-1,-1,-1,1,-2
1523177555356737,0,0,-1,-2,0,-1,-2,1
1523177555370009,-1,-1,1,-1,0,-3,-2,-3
1523177555370009,-1,1,3,1,1,0,1,1
1523177555377062,0,-1,-6,-2,0,-1,-1,-1
1523177555377062,0,-2,-4,-1,2,0,-2,0
1523177555393125,0,1,-1,1,-5,-1,-2,-1
1523177555393125,-1,-1,-2,0,-1,-2,-2,0
1523177555393837,-1,-3,-1,-1,-2,0,0,-2
1523177555393837,0,-1,-1,0,-2,0,2,-1
1523177555415984,-3,0,0,-4,0,-1,-2,0
1523177555415984,0,-2,-2,-1,0,0,0,-2
1523177555416899,-1,-1,-1,-2,-1,-2,-1,-1
1523177555416899,-2,-1,-1,-2,-2,-2,-2,-1
1523177555430214,-1,-2,-2,2,-1,-1,-1,0
1523177555430214,0,1,-4,-1,-1,-1,1,-3
1523177555437207,-3,-6,3,-1,0,0,-1,-1
1523177555437207,2,2,2,-2,-1,-1,0,-2
1523177555453469,-2,-1,1,1,-1,-1,0,-2
1523177555453469,-1,0,-3,-2,-2,0,-1,0
1523177555454350,0,0,1,1,-2,0,-2,-1
1523177555454350,-2,-4,-1,1,-2,-1,-1,-1
1523177555475666,1,-2,-2,-3,-1,0,0,0
1523177555475666,0,-2,2,-3,-1,-1,-3,-1
1523177555476406,-2,-1,-2,1,-3,-2,-3,-1
1523177555476406,-2,-1,-1,0,0,-1,-2,0
1523177555489695,-1,2,-1,-2,0,-2,-2,0
1523177555489695,0,-1,1,0,0,-1,-1,0
1523177555496761,-1,-2,0,-3,-2,-1,-1,-2
1523177555496761,-1,-1,-1,-1,1,0,-1,-3
1523177555512792,0,-3,-2,0,-2,-2,0,-2
1523177555512792,-3,-1,2,0,-1,-2,1,-1
1523177555514510,-2,-2,-2,-2,-2,-1,-1,0
1523177555514510,-2,0,-2,-2,-1,-2,-1,0
1523177555535564,-1,-2,-1,-2,-2,1,-1,1
1523177555535564,-2,2,-1,-1,0,-2,-1,0
1523177555536654,1,1,2,-2,1,-2,2,-2
1523177555536654,1,-1,0,-4,-3,-1,2,-1
1523177555549825,0,0,-2,-1,0,-2,-1,-2
1523177555549825,-2,-2,-2,-2,-2,-2,-1,-2
1523177555556879,0,0,-1,-2,0,-4,-1,-1
1523177555556879,-3,0,-2,1,-1,1,0,0
1523177555572909,-2,1,2,-1,0,-1,1,-1
1523177555572909,1,-2,-3,-1,-3,1,-1,-1
1523177555574667,-2,0,-2,0,-2,-1,0,-1
1523177555574667,-3,-1,-1,-1,0,0,-2,-2
1523177555595378,-3,-3,-1,-1,-3,-3,-1,-2
1523177555595378,2,1,-4,0,1,-3,-1,-1
1523177555597081,-1,-5,-5,-1,-3,1,0,-1
1523177555597081,1,1,1,-1,-1,-1,-2,2
1523177555610376,0,-2,0,-1,0,1,-1,-1
1523177555610376,-3,-1,-4,-2,0,-1,-2,-2
1523177555616420,-2,1,1,0,-3,-1,-4,-1
1523177555616420,-1,0,0,0,-1,-2,-2,-1
1523177555633177,1,-2,-3,1,-1,2,-1,-2
1523177555633177,-1,-1,1,-2,-1,0,2,-1
1523177555634179,-1,2,-3,-3,1,0,0,-1
1523177555634179,-1,-2,-4,-2,-2,-2,-3,-2
1523177555655545,-1,2,-1,-2,-3,-2,-1,0
1523177555655545,0,-1,1,-1,-2,-1,-3,0
1523177555657241,-1,1,-2,-2,-1,-1,-1,-1
1523177555657241,-2,1,2,0,-1,-1,0,-1
1523177555670326,-3,-7,-2,-2,-2,-2,0,0
1523177555670326,-2,-3,-4,-2,-1,-1,-2,0
1523177555676578,1,-1,0,0,-1,-2,-1,-1
1523177555676578,0,-3,-4,-2,-1,-3,-1,-1
1523177555693424,-3,0,1,0,0,0,-1,-1
1523177555693424,0,-3,0,-1,-2,-2,-1,-2
1523177555694340,0,-1,3,-1,-1,0,-2,-1
1523177555694340,0,3,-2,-1,-1,0,-2,0
1523177555715717,-2,-4,-1,-2,-1,0,0,-1
1523177555715717,-1,-2,0,1,-1,0,0,1
1523177555717430,-1,-1,-2,-1,-1,-3,1,-2
1523177555717430,-2,0,3,-1,-2,-1,0,-3
1523177555729687,1,0,-2,-3,1,-1,-1,1
1523177555729687,-2,-1,-2,-1,-2,-1,1,-3
1523177555737703,1,-2,-3,1,-1,-1,0,1
1523177555737703,0,-2,-1,-2,-2,-2,0,0
1523177555752800,-4,0,-1,0,0,-2,-1,-1
1523177555752800,0,-2,-2,0,-1,1,-1,-2
1523177555754501,-2,0,-2,1,1,0,-1,-2
1523177555754501,-2,-3,-1,1,-3,0,0,-1
1523177555775866,-1,2,0,0,-1,-2,-1,0
1523177555775866,-2,0,0,-1,-1,-2,-2,0
1523177555776559,0,-1,-4,-2,0,-1,-1,0
1523177555776559,-1,0,-1,-1,-1,-1,-1,-3
1523177555788892,-1,1,1,2,-2,-1,-1,-2
1523177555788892,-3,-1,-2,-2,-1,-1,-1,-1
1523177555797673,0,-2,0,-2,-1,-1,-3,1
1523177555797673,2,-4,-2,-1,0,0,-3,0
1523177555812919,0,-4,-3,-1,-3,1,0,-1
1523177555812919,-3,-1,-1,1,0,0,2,-3
1523177555814661,1,2,3,0,1,0,0,0
1523177555814661,-1,-8,-1,-3,0,0,0,1
1523177555834716,1,4,-2,-2,-2,-2,-1,-2
1523177555834716,0,-6,-4,-1,0,-2,-2,-1
1523177555836722,-2,-2,-2,-3,-1,-2,-1,-1
1523177555836722,-1,3,3,2,-1,-1,-1,-1
1523177555849013,-2,-2,-3,-1,0,-2,0,-1
1523177555849013,-2,1,1,0,-3,1,-2,-1
1523177555857774,0,0,-1,-1,-2,-2,-2,0
1523177555857774,-1,-3,-1,-2,-1,-3,1,0
1523177555873057,0,-1,-2,0,-2,0,0,-1
1523177555873057,1,1,0,-1,-2,0,-2,-2
1523177555874821,-1,-3,3,-1,0,0,1,-2
1523177555874821,-2,0,-1,-2,0,1,-2,1
1523177555895958,-2,-4,-2,-2,1,1,-3,-1
1523177555895958,0,2,-3,0,-2,0,0,0
1523177555896882,-1,-1,0,-1,-2,0,0,0
1523177555896882,-1,0,-2,-1,-1,-1,-1,-1
1523177555908912,0,-2,2,1,-1,-2,-1,-2
1523177555908912,0,0,0,-2,-1,-1,-3,1
1523177555917933,-1,-2,3,0,-1,1,-1,-3
1523177555917933,0,-1,-10,-2,-3,0,-2,0
1523177555933030,0,-2,-2,-2,-1,0,0,1
1523177555933030,1,0,-1,0,1,-2,-1,-1
1523177555933979,-2,-1,-3,3,0,-3,0,1
1523177555933979,1,0,-3,-2,-1,-2,-1,-3
1523177555955339,-1,3,1,-2,0,-1,-1,-1
1523177555955339,-2,-7,0,-1,-2,-1,-1,-1
1523177555957038,-2,-3,-3,-3,0,0,-1,0
1523177555957038,0,1,0,1,-1,-1,-1,0
1523177555969228,-1,-2,-1,0,-1,-1,-1,-1
1523177555969228,-1,3,2,-2,0,0,1,-1
1523177555978095,-1,-4,-4,-1,-1,-1,-2,-2
1523177555978095,-2,-2,2,-1,2,2,-1,-3
1523177555993404,1,0,-2,-1,-4,-2,-1,-1
1523177555993404,0,0,-3,-2,-2,-1,-1,-1
1523177555994141,0,2,1,-3,-3,-4,-2,0
1523177555994141,-2,-4,-1,-1,-3,-2,-2,-1
1523177556015461,1,-3,-3,-1,-1,1,0,-2
1523177556015461,0,-2,1,3,3,0,1,0
1523177556017203,0,-1,-2,-3,-1,0,-1,-2
1523177556017203,-1,0,1,-1,0,-2,-1,-2
1523177556029548,-1,0,0,0,-1,-1,-1,1
1523177556029548,0,-2,-3,-3,-2,-3,0,0
1523177556038257,-1,-5,-3,1,-2,-3,0,-1
1523177556038257,1,1,0,-1,0,0,-4,-2
1523177556053483,-3,-5,-2,-2,2,0,0,-2
1523177556053483,-1,0,-2,2,0,0,1,-1
1523177556054298,-1,3,0,-1,-2,-3,0,-2
1523177556054298,-2,-2,-1,0,-4,-2,-1,0
1523177556075624,0,0,0,0,-3,-2,-1,-3
1523177556075624,-1,0,-2,-2,-2,0,-2,0
1523177556076358,-1,-2,0,-2,-2,-1,-1,0
1523177556076358,0,-3,-1,0,-2,-2,1,0
1523177556089604,0,0,-3,1,0,-1,0,0
1523177556089604,-1,0,0,0,-1,-2,-2,-2
1523177556097687,-2,-1,0,2,-1,1,-1,-2
1523177556097687,0,0,-2,-2,0,-1,1,-1
1523177556112722,-2,-4,3,-1,-1,-3,-1,-1
1523177556112722,-1,-1,-2,1,0,0,-2,-2
1523177556114457,2,3,3,-1,-1,-2,-1,-2
1523177556114457,-3,-6,-7,-2,-3,-2,-1,-1
1523177556135514,0,0,0,1,0,0,-1,-2
1523177556135514,-1,-1,0,-3,1,-2,0,-2
1523177556136515,-1,0,-1,0,0,0,-1,-1
1523177556136515,-1,-1,2,2,0,1,0,1
1523177556157772,0,-2,0,-3,-2,-3,-1,-2
1523177556157772,0,-3,-1,-2,-1,-2,0,0
1523177556159578,-1,0,2,-2,0,-1,-1,0
1523177556159578,-1,-2,-8,-1,-2,-2,0,0
1523177556172866,0,1,-1,-1,1,2,-3,1
1523177556172866,1,0,-1,0,0,-1,-2,1
1523177556174617,-1,-2,-2,-3,0,1,-1,-1
1523177556174617,0,-2,1,0,1,-1,-2,-2
1523177556195949,-1,1,-3,0,-2,0,-4,-3
1523177556195949,-1,-1,0,-3,-1,-1,0,0
1523177556196676,0,-1,-1,0,-2,0,0,1
1523177556196676,-2,0,0,-2,0,0,0,-1
1523177556217748,-1,1,-2,0,0,-2,1,-1
1523177556217748,-2,-3,0,0,-1,-1,-1,-1
1523177556219736,-1,-1,0,0,-3,-2,-1,-1
1523177556219736,-1,0,3,-1,0,-1,-2,-3
1523177556232822,1,-2,0,0,-1,-1,-1,0
1523177556232822,0,-2,0,-2,-1,0,-2,0
1523177556233776,-1,0,1,-2,-2,-1,-2,-1
1523177556233776,0,-1,-7,-2,1,-1,-1,0
1523177556255974,-2,-3,-2,-1,-1,-1,1,-1
1523177556255974,1,1,3,-1,1,-1,-1,-1
1523177556256840,-2,-9,-4,0,-3,-1,-1,-2
1523177556256840,1,1,5,0,0,-2,-1,-2
1523177556278175,-1,-2,-2,-2,0,-2,-1,0
1523177556278175,-2,1,0,-1,0,-2,0,-1
1523177556278896,-1,1,-1,-3,-1,-2,-1,-2
1523177556278896,-2,-4,-3,-1,-2,-3,-1,-1
1523177556291930,-1,-2,2,-2,-1,-1,-2,1
1523177556291930,-1,0,-4,-1,-2,-1,0,-4
1523177556299263,1,0,-1,-1,-2,-1,0,0
1523177556299263,0,-1,0,1,-1,-1,-2,-1
1523177556315254,-2,2,9,1,0,1,0,-1
1523177556315254,-2,-4,-12,-4,-4,0,-3,-2
1523177556316999,1,-2,-2,-1,1,0,-1,0
1523177556316999,0,2,2,-1,-2,-1,-1,-3
1523177556338364,0,-2,-4,-1,-1,0,0,-1
1523177556338364,-1,-2,1,1,-1,-1,-2,1
1523177556339056,-1,-2,0,0,0,0,-1,0
1523177556339056,-1,0,-3,-4,1,1,0,0
1523177556352089,1,-2,-6,-2,1,-1,1,-1
1523177556352089,0,0,0,-3,-1,-1,0,-1
1523177556359398,0,-1,-1,-2,-1,-2,-3,-1
1523177556359398,-1,-1,-2,0,-1,-1,1,0
1523177556375429,1,-2,-2,-1,-3,-1,-4,-1
1523177556375429,-1,-2,-1,0,-3,-2,-1,1
1523177556377156,-1,0,0,-2,-1,0,-2,-1
1523177556377156,0,1,-1,-2,1,0,0,-3
1523177556398345,-2,-1,-1,-3,-2,-1,-2,-1
1523177556398345,0,0,1,0,1,0,-2,-2
1523177556399217,-1,0,-2,-1,-1,-3,-2,-1
1523177556399217,-1,0,5,-1,-2,-2,-1,0
1523177556412528,-3,-1,-8,-1,-1,-2,-1,0
1523177556412528,3,-3,3,0,-2,-3,-1,-1
1523177556419563,-3,2,-3,0,0,-1,2,0
1523177556419563,-1,-2,-1,-1,-2,0,-2,-2
1523177556435308,1,2,-1,-2,-2,-2,0,-1
1523177556435308,-1,0,-1,0,-3,-1,-2,-1
1523177556436313,-1,0,-2,-2,1,0,0,-1
1523177556436313,-1,-4,-5,2,-1,0,-2,0
1523177556458371,-1,0,2,-2,0,-2,-2,-3
1523177556458371,-2,-2,-2,0,-1,-1,0,-2
1523177556459374,-1,-1,0,-2,-2,-1,0,-1
1523177556459374,0,1,0,-3,0,0,-1,0
1523177556472669,0,-2,-3,-2,-3,0,-2,-2
1523177556472669,0,0,3,-2,0,-1,0,-2
1523177556478950,-2,-2,-9,1,0,-1,-2,-1
1523177556478950,-1,-1,2,-1,-4,0,-1,-1
1523177556495840,-2,-2,0,3,1,0,-1,-1
1523177556495840,-5,2,0,0,-2,1,-1,-1
1523177556496749,1,0,2,2,0,-3,-1,-1
1523177556496749,-1,-6,-3,1,-2,-1,-1,-2
1523177556517805,0,0,-1,-2,-1,0,-1,0
1523177556517805,-2,-3,-1,0,-2,-2,-1,0
1523177556518808,-2,-3,-3,0,-2,-1,-1,-2
1523177556518808,-1,1,-1,1,0,-3,-2,-2
1523177556532096,-1,-2,-1,-1,-1,-1,0,1
1523177556532096,-1,-2,-2,0,-1,-1,-3,-2
1523177556539131,1,-3,-1,-1,-1,0,0,-1
1523177556539131,-3,2,-3,-1,0,-3,-1,0
1523177556555908,-1,-1,3,-2,0,-2,-2,-1
1523177556555908,0,-4,-1,-1,0,1,0,-1
1523177556556910,0,0,-1,-1,0,0,0,1
1523177556556910,-1,1,5,-2,-1,-1,-1,-1
1523177556578349,-2,-3,-8,-3,-2,-1,0,0
1523177556578349,-1,0,0,-1,0,-1,-1,-1
1523177556579353,0,0,3,0,-1,-1,-1,-1
1523177556579353,-2,-3,-3,-2,0,1,0,0
1523177556592664,1,0,-1,0,-3,-1,0,-1
1523177556592664,2,1,1,0,0,0,-2,-2
1523177556598667,-2,-7,-2,-3,-2,-2,-1,-1
1523177556598667,0,0,-2,0,-1,0,1,-2
1523177556615546,-2,0,2,-1,-2,-1,-1,-2
1523177556615546,0,-3,-7,-2,2,0,0,0
1523177556616451,-2,1,0,-2,-3,-2,0,-2
1523177556616451,-1,-2,-1,-2,1,-5,-3,-2
1523177556637758,-1,-2,1,3,0,-1,-1,0
1523177556637758,1,1,-2,-3,-1,-2,-1,1
1523177556639513,-1,2,1,-1,-1,0,-2,-3
1523177556639513,0,-2,-7,-2,-2,-3,-3,0
1523177556651545,-1,2,1,-1,-1,1,-2,-2
1523177556651545,-3,-1,0,0,-1,-2,0,-2
1523177556660573,-1,-1,0,0,2,-2,-1,0
1523177556660573,-1,1,-1,0,0,3,0,-2
1523177556675881,0,-1,-1,-2,-1,0,0,-2
1523177556675881,1,2,0,0,-1,-1,0,-1
1523177556676613,-1,-4,-1,1,-3,-4,-2,-1
1523177556676613,-2,-1,0,-3,-1,-2,0,-2
1523177556697959,-1,-2,-1,-1,0,-2,-1,0
1523177556697959,-1,1,-1,-1,-2,-1,-3,-1
1523177556699672,-1,-1,-1,-2,-3,1,0,-1
1523177556699672,-2,-1,-2,-1,-1,0,-1,0
1523177556712005,-1,-1,-3,-1,-1,1,2,-2
1523177556712005,-2,0,0,-1,-2,0,1,0
1523177556720732,-1,-1,-1,0,-1,-2,-1,0
1523177556720732,1,1,2,1,2,1,-2,-1
1523177556736022,-3,-5,1,-4,0,0,-1,-1
1523177556736022,1,-3,-1,-4,-1,-2,-1,-3
1523177556736772,-1,-1,-3,-3,0,0,0,-1
1523177556736772,0,0,2,-2,-4,-1,0,1
1523177556758025,1,4,0,1,-2,-3,0,0
1523177556758025,-1,-7,-2,-3,-2,1,-2,-2
1523177556758833,-1,-1,-2,1,-1,-1,-1,-1
1523177556758833,-2,-2,0,-1,-1,0,-1,0
1523177556772082,-2,-2,-4,1,-1,-2,-2,-2
1523177556772082,-1,-1,-1,-1,-2,-1,-3,0
1523177556780888,-1,-1,-1,-1,0,-2,-1,-4
1523177556780888,0,-1,-1,1,-2,0,-1,-1
1523177556795985,-1,-2,0,-3,-1,-3,-1,2
1523177556795985,0,-1,-1,-2,-1,-2,0,0
1523177556796933,-2,-1,-1,-2,-1,-1,0,-1
1523177556796933,0,1,-1,0,0,-2,0,-1
1523177556818295,0,-1,2,0,0,-2,-2,0
1523177556818295,1,1,0,-1,0,-2,-1,0
1523177556818991,-1,0,0,-1,-2,-2,-1,-1
1523177556818991,-2,-1,0,0,-1,-1,-2,0
1523177556832102,-1,-2,-3,0,-3,0,0,-1
1523177556832102,-1,-2,-2,1,-1,-3,-1,-1
1523177556840044,0,2,2,-1,-3,0,-1,-1
1523177556840044,-3,-4,-3,0,-2,-2,-1,-2
1523177556855328,-2,1,-3,0,-1,0,-3,-2
1523177556855328,-2,1,2,0,-1,-1,-1,0
1523177556857091,0,-2,-2,1,-1,0,-1,0
1523177556857091,-2,-1,0,-1,-1,0,0,-1
1523177556878320,1,0,-1,-1,2,1,-1,-2
1523177556878320,0,-2,0,0,-4,0,1,1
1523177556879150,-1,0,0,-1,-1,0,-2,-2
1523177556879150,-3,-1,-3,-2,-1,-1,-1,1
1523177556891466,-2,0,1,-3,-2,-1,1,-3
1523177556891466,-1,-8,-2,-2,0,0,-1,0
1523177556900204,-2,1,-2,-1,0,-2,-1,1
1523177556900204,0,0,-1,-4,-3,-2,-1,0
1523177556915401,-1,-1,-3,-2,-4,-3,-3,-2
1523177556915401,-1,1,0,0,-1,0,-1,-1
1523177556917250,-3,-3,0,-1,0,0,0,-1
1523177556917250,0,-1,-4,0,0,-1,-1,-2
1523177556938325,0,1,3,0,-1,-1,0,1
1523177556938325,-2,1,-1,-2,-1,-1,-3,-2
1523177556939309,0,-3,-2,0,-1,-2,-1,-2
1523177556939309,-1,0,2,0,1,0,-2,0
1523177556951390,-1,-2,0,0,2,-1,-1,-2
1523177556951390,-2,1,-4,0,-2,-1,0,-1
1523177556960370,0,2,-1,-1,-2,0,-2,-3
1523177556960370,-1,-6,-3,-2,-2,-3,0,-1
1523177556975690,0,2,1,0,-1,1,-1,0
1523177556975690,0,-2,0,1,-3,0,-1,-1
1523177556976409,-3,0,-4,-2,0,-2,-1,1
1523177556976409,-2,-2,1,0,-2,0,-2,-2
1523177556997729,-1,-4,-4,0,-3,-2,-1,1
1523177556997729,-2,-1,1,0,0,0,-2,-3
1523177556999469,1,0,1,-1,-1,-1,-1,0
1523177556999469,0,0,-9,-2,-1,-1,0,-1
1523177557011776,0,-5,0,2,-1,-1,-1,-1
1523177557011776,-1,2,-1,1,-1,-2,0,-2
1523177557020528,0,-2,-2,0,-1,-1,-1,-1
1523177557020528,0,1,1,-1,1,0,0,0
1523177557035886,-3,-5,-2,-3,-1,-3,0,-1
1523177557035886,-1,-1,-1,-1,-2,-2,0,1
1523177557036568,-2,1,-1,0,-1,0,-1,-1
1523177557036568,2,-1,1,0,-1,-2,0,-2
1523177557057861,-2,2,-3,-2,-1,0,0,0
1523177557057861,-3,0,-1,-1,-1,0,-1,-2
1523177557059631,0,-1,2,-2,-2,0,-2,-1
1523177557059631,-1,-2,0,2,0,-1,-1,0
1523177557080949,2,1,1,-2,-1,-1,-2,-2
1523177557080949,-1,-4,-5,-1,-1,1,-1,-3
1523177557081692,-2,-3,-3,-2,-1,-1,-2,-1
1523177557081692,-1,-2,-2,-2,-1,0,0,0
1523177557096012,-1,0,2,1,-1,-1,-2,-2
1523177557096012,0,0,2,-2,-2,-1,-2,0
1523177557096729,1,2,2,1,-2,0,-1,0
1523177557096729,-1,-4,-2,-1,-1,-1,-1,-2
1523177557117784,-4,-3,-3,-1,-2,0,2,-1
1523177557117784,3,0,0,0,-2,0,-1,0
1523177557118791,-1,-1,-2,-2,0,0,0,-2
1523177557118791,-1,1,2,-1,-3,-2,-1,-1
1523177557140105,0,1,-2,-2,0,0,0,0
1523177557140105,-2,-2,-1,-3,-2,-3,0,-1
1523177557141846,-2,0,-2,-1,-1,-2,1,-1
1523177557141846,2,-1,-1,1,-2,-2,-3,-3
1523177557155154,-1,-2,0,0,0,0,-2,1
1523177557155154,-1,1,1,-2,-2,-3,-2,-1
1523177557156888,1,-2,-3,-1,-2,-1,-3,1
1523177557156888,0,-1,1,-1,-1,-3,-1,-1
1523177557178213,1,-3,-5,-1,-4,-1,-2,-1
1523177557178213,-1,1,0,-1,0,0,0,-1
1523177557178946,1,0,2,-1,-2,0,-2,-2
1523177557178946,-1,1,-1,-1,-2,0,-1,-1
1523177557200000,-1,-5,0,1,-1,-1,-2,-1
1523177557200000,-1,-3,-3,-1,1,-2,-1,-1
1523177557202010,-2,-2,-2,1,-1,0,-2,-1
1523177557202010,-1,-1,1,0,-1,0,-1,-2
1523177557215130,0,2,-3,2,-1,-2,0,-1
1523177557215130,0,0,0,-1,-1,-2,-1,-3
1523177557217046,-2,-3,-2,0,-1,-2,0,0
1523177557217046,-1,0,5,-1,0,-2,-3,0
1523177557238335,-2,-1,-3,-2,-1,-1,0,-1
1523177557238335,-1,-3,-2,1,0,-1,2,-2
1523177557239108,1,0,-2,2,0,0,0,1
1523177557239108,-3,-2,-1,-3,-1,-1,0,-1
1523177557260452,-2,2,1,-2,-2,0,0,0
1523177557260452,-2,-1,0,-1,-1,-2,-2,0
1523177557262168,-2,-1,-1,-2,0,0,1,-2
1523177557262168,-3,-1,-2,-2,-2,-2,-2,-2
1523177557275298,2,1,-1,-1,2,-1,-1,0
1523177557275298,-3,0,3,0,-2,1,-2,0
1523177557281491,-1,-3,-4,-2,-1,-2,-1,-1
1523177557281491,2,0,0,0,0,0,-1,1
1523177557298313,-1,-1,-2,-3,-4,0,-2,-3
1523177557298313,-2,-4,-3,3,0,-3,-1,-1
1523177557299266,0,-1,0,0,-1,-1,-1,0
1523177557299266,-3,-3,0,-1,-2,1,-1,0
1523177557320584,0,4,2,-2,-1,0,-1,-1
1523177557320584,-2,-5,0,-1,-1,2,-2,-1
1523177557321326,-1,-1,-2,-1,-1,-3,-1,-2
1523177557321326,1,0,-3,-2,0,-2,1,-1
1523177557335362,-3,1,1,0,0,-2,-1,-2
1523177557335362,2,3,1,-2,-2,-2,-2,0
1523177557341671,-3,-3,0,0,-4,-1,-2,1
1523177557341671,-2,1,0,1,1,-1,-1,1
1523177557357704,-1,-3,-2,-3,-1,-2,-2,-1
1523177557357704,0,-1,-1,1,-1,0,-1,0
1523177557359426,1,-2,2,-1,-2,1,-1,-2
1523177557359426,1,-2,-2,0,-3,-1,-2,-2
1523177557380751,-2,-4,-1,-3,-1,-2,-2,-1
1523177557380751,-1,3,-2,-1,1,-2,-2,-1
1523177557381487,-4,-4,-1,-4,-1,1,0,0
1523177557381487,-1,0,-2,-2,-2,-1,-1,-1
1523177557394519,-1,-2,-2,1,-1,-1,-2,-1
1523177557394519,-2,2,-3,-1,-1,1,0,-1
1523177557402798,0,3,1,1,-2,0,0,-1
1523177557402798,-3,-8,-2,-1,-2,-3,-1,0
1523177557417581,1,1,3,1,-2,0,-1,-4
1523177557417581,0,-3,-8,-3,0,-1,-1,0
1523177557419586,-1,-1,-3,-3,-1,-2,-1,0
1523177557419586,-1,1,0,0,1,0,0,-1
1523177557440931,-2,-2,0,-1,-1,-3,1,-1
1523177557440931,-1,-4,1,-2,-2,1,1,-2
1523177557441648,-1,2,-1,-1,1,-2,-1,-1
1523177557441648,0,1,-2,1,0,-2,-2,-2
1523177557454927,-1,-4,-4,1,1,0,0,2
1523177557454927,1,2,1,0,-1,0,-1,-1
1523177557461980,-2,-2,-1,-1,0,0,-2,-2
1523177557461980,-1,0,-1,0,-2,-2,-1,-2
1523177557478002,-1,-2,-6,-2,-2,0,1,1
1523177557478002,-1,-2,1,-1,-1,-2,-1,0
1523177557479773,0,-2,0,-1,-2,-1,-1,-2
1523177557479773,-2,1,-1,-5,0,1,-1,1
1523177557500805,-1,3,-1,1,0,-2,-1,1
1523177557500805,0,-5,2,-1,-1,-4,-2,-1
1523177557501805,0,1,-1,-1,-2,0,-1,-2
1523177557501805,0,-1,-2,0,-1,-1,-2,-1
1523177557514889,-1,-3,2,0,0,0,-1,-3
1523177557514889,-2,1,-2,-2,-2,-2,-1,-2
1523177557522100,1,1,0,-3,0,-3,-2,-1
1523177557522100,-1,-3,-2,0,-1,-2,0,-2
1523177557538160,-3,0,-4,-1,-1,-3,0,-1
1523177557538160,0,0,-2,-2,-1,-1,0,-2
1523177557538904,1,-1,-1,-1,-1,-1,-1,0
1523177557538904,-1,-1,0,-2,-2,0,0,-1
1523177557560260,-1,-4,-4,-2,-2,-2,-3,0
1523177557560260,0,0,-1,-2,-1,-1,-2,-2
1523177557561964,-2,0,2,0,-1,1,0,-2
1523177557561964,-1,-2,-6,-1,-1,0,-1,0
1523177557574209,-1,-1,-1,-1,-2,-2,-1,-3
1523177557574209,-1,-2,-3,0,-2,-1,-2,-1
1523177557583020,-1,0,-5,1,-1,-1,-1,-1
1523177557583020,-1,-6,-1,-2,-2,-2,0,-1
1523177557598142,-1,0,2,-2,0,-2,-2,-2
1523177557598142,-1,2,-1,1,0,0,0,-1
1523177557599065,-1,-4,-1,1,-3,-4,-1,-2
1523177557599065,-3,1,1,-1,-1,1,-1,0
1523177557620415,0,-2,0,0,-2,-1,-2,-2
1523177557620415,0,0,1,-1,0,-1,0,0
1523177557622123,-3,-1,0,-1,-1,0,-1,-1
1523177557622123,-1,0,-1,-1,-1,-1,-1,0
1523177557634156,0,1,2,2,0,-1,0,-1
1523177557634156,0,-3,-1,-1,-2,-1,-1,0
1523177557643186,2,-3,-1,-2,-3,-2,-1,0
1523177557643186,-1,-2,1,-1,-3,-1,-2,0
1523177557658317,-1,0,2,-1,2,1,-2,-1
1523177557658317,-3,-4,-5,-1,1,0,0,2
1523177557659223,-1,0,-3,0,-2,1,-1,-1
1523177557659223,0,-2,2,1,-1,-2,-1,-1
1523177557680582,-1,-2,-1,-1,-2,-1,0,0
1523177557680582,0,-1,1,-1,-1,-2,0,-2
1523177557682286,-2,0,-1,-2,-1,-1,-2,-4
1523177557682286,0,-3,-2,1,-2,0,-1,-1
1523177557694430,-2,0,1,0,-3,-2,0,1
1523177557694430,-1,-2,-2,-2,-1,-2,-2,0
1523177557703341,-1,-2,-5,-1,0,-1,-1,0
1523177557703341,-1,1,1,0,0,0,1,-4
1523177557718413,-1,-4,-1,-1,1,-1,-1,0
1523177557718413,0,0,0,-1,-1,-1,0,-2
1523177557719383,0,-3,-2,1,-1,1,1,-2
1523177557719383,-2,1,0,-4,-1,-2,-2,-1
1523177557740734,-1,-2,-5,1,-2,0,0,0
1523177557740734,-2,-1,3,-1,0,0,-1,0
1523177557741442,-1,-1,0,-3,1,-1,-1,-1
1523177557741442,0,2,-1,-2,-1,-3,-2,-1
1523177557754523,-2,0,-2,0,-1,-2,-1,-1
1523177557754523,-2,-1,-1,-2,-2,0,-1,1
1523177557762773,-2,0,0,0,-1,-2,-1,0
1523177557762773,-2,-1,-1,1,-1,-1,1,0
1523177557777810,-2,1,0,-3,-4,0,-1,-1
1523177557777810,0,-2,-6,-1,-1,-1,-2,-3
1523177557779542,2,-2,-3,-3,-1,-1,-2,-2
1523177557779542,0,0,3,2,0,-1,0,-1
1523177557800597,0,-2,-3,-2,-2,0,0,-2
1523177557800597,-1,0,-1,0,-2,-3,-2,0
1523177557801602,-1,-1,0,-2,-1,-1,-2,-3
1523177557801602,-2,-1,-4,-2,0,1,-2,-2
1523177557813710,0,-1,-1,-1,0,0,-2,0
1523177557813710,0,1,1,-1,-1,-1,-1,1
1523177557822657,-1,-1,0,-1,-1,-3,-2,-1
1523177557822657,-2,-3,-1,1,-2,-2,-1,-1
1523177557837938,-2,0,-1,-1,1,-2,-1,-2
1523177557837938,-3,-1,-2,0,-3,0,-2,-1
1523177557839703,0,0,1,-1,-1,0,0,0
1523177557839703,0,-2,-2,-2,-1,0,0,-1
1523177557860841,-1,-1,-2,-2,1,0,-1,-3
1523177557860841,-1,1,1,-1,-3,-1,-1,-1
1523177557861761,-1,-1,-1,-1,-1,-2,0,0
1523177557861761,-2,0,2,0,1,0,-1,0
1523177557874038,-1,1,0,-1,-2,0,-2,1
1523177557874038,-2,-4,-2,-2,3,-1,-1,-2
1523177557882819,-2,1,0,-1,-2,-1,-2,1
1523177557882819,2,0,0,-1,-1,-2,-2,-1
1523177557897906,-1,-1,-2,-1,-3,1,1,0
1523177557897906,-1,1,-1,2,1,0,-1,0
1523177557898861,-1,-1,-1,2,-1,-2,1,-3
1523177557898861,0,-2,-4,-2,-2,-3,0,-1
1523177557920225,-2,-1,-3,-1,-1,-4,0,-1
1523177557920225,-2,0,-1,0,0,-1,-1,0
1523177557921925,-1,-1,-2,-2,0,-1,1,-1
1523177557921925,0,-1,-1,-2,-3,-1,-2,-1
1523177557933953,0,0,0,0,0,0,-3,0
1523177557933953,-1,1,4,-2,-2,1,0,0
1523177557942979,0,1,-12,-2,-2,1,0,-1
1523177557942979,-1,-3,-2,-2,0,1,-2,-2
1523177557958306,0,0,2,-2,-3,-2,-2,1
1523177557958306,-2,-4,-3,-2,-4,-2,-3,-2
1523177557959020,-1,0,2,-1,-1,0,-3,-1
1523177557959020,-2,0,-1,-1,-2,1,-2,-2
1523177557980365,-1,-1,-3,0,-1,-1,0,-2
1523177557980365,-2,0,-1,3,-1,-1,1,1
1523177557982084,-1,-2,1,-2,0,0,-1,0
1523177557982084,-1,0,-1,0,-1,0,0,-1
1523177558002362,-1,-5,-4,0,1,-1,-1,0
1523177558002362,-1,1,-3,-2,-4,-2,-3,-2
1523177558003138,-2,1,5,0,0,-1,0,1
1523177558003138,-2,-2,-5,0,0,-1,1,-1
1523177558017174,-1,-1,0,0,0,1,-1,0
1523177558017174,0,-2,-2,-2,-2,-2,-1,-2
1523177558018177,-1,-1,1,1,0,0,0,0
1523177558018177,0,-1,-4,-1,-2,-3,-1,0
1523177558040286,0,1,-2,-2,-2,-1,-3,-2
1523177558040286,-1,1,-1,-3,0,-1,1,-2
1523177558040286,0,-5,0,-2,-1,0,0,-1
1523177558040286,2,-1,0,0,-1,-1,-1,-1
1523177558062575,-2,-3,1,-2,-2,-2,-2,0
1523177558062575,-3,0,-2,-1,1,0,-1,0
1523177558062575,-1,-1,4,0,-1,0,-3,0
1523177558062575,-3,-1,-5,-2,1,-2,-2,0
1523177558077629,-1,-1,1,0,0,-1,0,-1
1523177558077629,0,-1,-1,-2,0,-3,-1,0
1523177558077629,1,1,3,-1,0,-2,1,-1
1523177558077629,-2,-4,-4,-1,-1,-3,-3,0
1523177558099393,-1,-1,-1,-1,-2,-2,0,-2
1523177558099393,2,-2,-1,-2,0,2,-1,0
1523177558100395,0,-2,-3,-2,-2,-1,1,-2
1523177558100395,1,0,2,-1,-1,1,-2,-1
1523177558122453,-1,0,-1,-2,1,0,-2,0
1523177558122453,-1,-1,0,0,0,0,1,-3
1523177558122453,-3,-3,-3,-2,-2,-2,-2,-1
1523177558122453,-1,-1,1,-3,-2,-2,1,-1
1523177558137631,1,1,4,-2,-1,-3,-2,-1
1523177558137631,-1,-1,0,1,-3,-2,-2,0
1523177558137631,0,-2,-3,-1,-1,-1,-2,0
1523177558137631,-3,-1,-2,0,-2,2,-1,-1
1523177558159832,0,0,2,-2,-1,-1,-1,-1
1523177558159832,-2,-3,-3,-1,0,-1,-1,0
1523177558160559,0,-3,-2,-3,-2,-2,0,-4
1523177558160559,0,1,4,-1,-1,-2,-1,-1
1523177558181614,-2,-9,-6,-3,-3,-2,-1,1
1523177558181614,-2,-1,0,1,-1,-3,-2,-2
1523177558182615,-1,1,-1,1,0,0,-1,0
1523177558182615,0,1,0,0,-1,-1,0,0
1523177558197709,-3,-3,-3,-1,-1,-2,-1,-1
1523177558197709,1,-2,-1,-2,-2,0,1,0
1523177558197709,-2,0,-2,-2,-3,-2,-1,-2
1523177558197709,-2,-1,1,-1,-2,-2,-2,-2
1523177558220030,1,0,-2,-1,-2,-1,-1,-1
1523177558220030,0,0,0,0,1,-2,0,2
1523177558220716,-2,-3,-7,-2,-1,-1,-2,-2
1523177558220716,-1,-3,-1,-2,0,-1,-1,-1
1523177558242034,0,1,1,-1,1,0,0,1
1523177558242034,-1,1,-3,-2,-2,0,-2,-2
1523177558242776,-1,-4,-1,1,-1,-3,-1,0
1523177558242776,-3,-4,-5,-4,1,-3,0,0
1523177558257094,-2,-1,-2,-1,-1,0,1,-1
1523177558257094,-2,0,1,1,1,1,-2,-1
1523177558257817,0,0,0,-3,-2,-2,1,0
1523177558257817,0,0,0,-1,-2,-1,0,-2
1523177558280184,-1,-1,1,1,-2,-1,-2,-2
1523177558280184,0,-1,-3,-3,-1,-4,-2,-2
1523177558280184,-1,0,5,1,1,0,-3,0
1523177558280184,-1,-1,-6,0,0,0,1,0
1523177558302159,-1,0,-1,-1,-2,-1,0,-1
1523177558302159,-1,-3,-3,-2,0,-1,1,0
1523177558302934,0,0,-1,-2,-1,-2,-1,-2
1523177558302934,0,1,1,-2,-1,-1,-2,0
1523177558316971,0,-3,-1,-1,0,1,-3,-3
1523177558316971,0,-1,-3,1,-3,-1,-2,-1
1523177558317976,-2,2,-1,2,-1,-1,-2,0
1523177558317976,0,-2,2,-1,0,1,-2,-2
1523177558339294,-2,-3,-4,-1,-1,-2,-1,-3
1523177558339294,-3,-1,1,-4,-1,-2,-1,-1
1523177558340035,0,-1,0,1,-1,1,-1,-1
1523177558340035,0,0,0,1,0,1,0,1
1523177558362353,-1,0,-2,0,-1,-1,-1,-2
1523177558362353,2,-2,-3,-2,-2,-2,-2,-2
1523177558363094,1,-1,-1,0,0,-2,0,-1
1523177558363094,-1,1,0,-1,-1,2,-1,-1
1523177558377487,0,0,-3,-1,-2,-2,0,-1
1523177558377487,-2,-1,1,0,-2,0,-2,1
1523177558378133,-3,-2,-1,-2,0,-2,-1,-2
1523177558378133,-2,0,-1,2,-2,-1,1,-1
1523177558400275,-1,0,2,-1,1,-1,-2,-1
1523177558400275,-1,0,1,-2,-3,-2,0,-2
1523177558400275,-1,-1,-1,-2,0,-3,-1,-1
1523177558400275,0,-1,0,-1,-1,-3,-3,0
1523177558422254,-2,0,-1,-2,-3,-2,0,0
1523177558422254,-1,-2,1,-1,-1,-1,-1,-1
1523177558422254,-1,-1,-1,0,-2,2,-1,-2
1523177558422254,-1,-3,0,-3,2,-2,-1,-1
1523177558437539,1,0,-7,-3,-1,-1,-1,0
1523177558437539,-2,-3,1,-1,1,-1,-4,-4
1523177558437539,0,1,2,0,-3,-1,0,-1
1523177558437539,-1,-2,-3,0,-1,-1,0,-1
1523177558459649,0,-1,1,-1,-2,0,1,-1
1523177558459649,-3,-1,0,0,-1,-3,0,0
1523177558460355,-2,-2,-5,-1,-1,0,-2,-2
1523177558460355,-1,4,1,0,0,-1,-2,-1
1523177558482412,-1,-7,0,-3,1,-1,-1,-1
1523177558482412,-1,4,-1,0,-2,0,0,-2
1523177558482412,1,-2,-3,0,1,-3,-1,-1
1523177558482412,-2,-1,-1,-1,-3,-2,-2,-1
1523177558497469,-1,0,0,0,0,-1,-2,-2
1523177558497469,-1,-3,-1,-2,1,0,0,-1
1523177558498499,-1,-2,-2,-2,-1,-2,-1,-3
1523177558498499,2,-1,3,-2,-3,-1,-1,-1
1523177558519814,-1,-1,-2,1,-1,0,0,-3
1523177558519814,-2,-2,1,0,0,-1,1,-1
1523177558520513,0,0,-2,-4,-1,1,-1,0
1523177558520513,-2,-2,-2,0,-1,-1,0,-2
1523177558542749,-2,1,1,-2,-2,-2,0,-1
1523177558542749,-1,0,-1,-1,-1,1,0,1
1523177558542749,-2,1,0,1,-1,-1,0,-1
1523177558542749,-1,-1,-3,-3,-1,-1,-2,-2
1523177558557759,-1,0,2,2,-1,-1,-2,-1
1523177558557759,-1,1,-3,-2,0,0,0,-2
1523177558557759,0,-2,-1,-3,-2,-2,-1,0
1523177558557759,0,-3,0,-1,0,-2,0,-1
1523177558579951,1,0,-2,-1,0,-2,-3,-2
1523177558579951,-1,-3,-1,1,-1,-1,0,0
1523177558580673,-1,1,-2,1,-1,-1,0,-1
1523177558580673,-1,0,-4,-1,2,-1,-3,-1
1523177558610942,1,2,7,-1,2,0,0,-2
1523177558610942,0,-3,-6,-2,-1,-1,-2,-3
1523177558610942,-2,-4,1,-2,-2,0,-4,-1
1523177558610942,-1,0,-3,0,-2,-2,0,-1
1523177558616766,-1,0,-1,0,-2,0,-1,-1
1523177558616766,1,2,-2,-1,1,-2,-1,-1
1523177558625059,0,3,-2,1,-2,-1,0,-1
1523177558625059,-1,-6,-4,-3,-1,0,0,0
1523177558640121,-3,-1,-1,-1,-2,-2,-3,-2
1523177558640121,0,-1,-1,-3,-1,-2,-2,-1
1523177558640121,-1,0,-4,-2,-1,0,-2,0
1523177558640121,-1,-1,-3,0,1,-2,-2,0
1523177558662150,0,1,-3,-2,-3,-1,-1,-2
1523177558662150,0,1,-1,0,1,-2,0,0
1523177558662893,-3,-3,1,-1,-2,-1,-1,-1
1523177558662893,0,-1,-1,0,-3,0,1,0
1523177558685278,-1,-1,1,-2,-4,-2,-1,-1
1523177558685278,0,-3,-5,-1,-2,-1,-2,-1
