timestamp,emg1,emg2,emg3,emg4,emg5,emg6,emg7,emg8
1523179069187031,-4,-2,-3,1,13,13,1,-9
1523179069187031,0,-1,-3,-5,-5,-3,-6,-5
1523179069189536,-1,1,1,0,-9,-2,-7,-5
1523179069189536,-1,-2,-1,1,-4,2,11,0
1523179069207588,3,-2,-2,-3,1,0,1,9
1523179069207588,-5,-2,-1,-1,9,-7,0,-3
1523179069216608,0,-1,-4,0,4,5,-1,-1
1523179069216608,-3,0,0,-1,-7,6,2,-6
1523179069239172,3,1,2,-1,-8,-2,0,4
1523179069239172,-8,-4,-3,1,25,-4,-5,-45
1523179069241049,-1,-2,-3,-6,-6,-7,0,5
1523179069241049,6,1,1,1,1,-1,6,52
1523179069262421,-2,-1,-1,-1,-3,-3,-4,-8
1523179069262421,1,0,2,-1,-14,-6,0,9
1523179069264736,-6,-2,-2,-2,-5,-5,-5,-22
1523179069264736,-5,-3,-5,-3,5,3,7,-15
1523179069282821,0,0,0,0,-3,-11,-9,5
1523179069282821,-5,-2,1,0,-5,-10,-10,-13
1523179069291809,2,0,-4,2,21,7,1,23
1523179069291809,1,-2,-1,-3,-21,0,6,-2
1523179069314168,-3,-2,-1,-3,6,3,1,1
1523179069314168,1,-2,-1,-2,-5,-2,0,-5
1523179069315872,-2,-4,0,-2,-2,-4,-3,-2
1523179069315872,-2,0,-1,-3,6,1,-6,-13
1523179069336439,-7,0,1,1,1,-3,4,-13
1523179069336439,3,1,2,3,20,0,2,14
1523179069338558,0,-1,-2,-6,-24,-1,-1,-3
1523179069338558,1,-1,2,-2,3,-10,-11,-7
1523179069358998,-4,-4,-1,-2,6,-1,-7,-7
1523179069358998,2,0,0,2,-9,2,12,22
1523179069360956,2,0,0,3,3,-6,6,-1
1523179069360956,-1,-1,0,0,-1,7,5,-7
1523179069389082,-1,0,-1,0,-1,0,1,0
1523179069389082,-4,0,-2,-2,3,-5,-11,-10
1523179069390582,-2,0,1,-1,-9,-1,-8,-2
1523179069390582,0,-2,-3,0,0,-12,-10,-4
1523179069411642,-3,-3,-2,0,22,-2,13,24
1523179069411642,-1,-1,0,-3,-36,-7,-4,-6
1523179069413142,-5,-1,-1,-1,12,22,2,-11
1523179069413142,0,-1,0,0,5,-7,-9,1
1523179069441719,0,1,0,2,-4,-3,-4,-10
1523179069441719,1,0,-4,-2,-1,-5,6,19
1523179069443222,-1,-1,-1,-3,3,4,-7,0
1523179069443222,-5,0,-2,-2,-11,-15,3,-2
1523179069455256,0,-3,1,1,5,22,6,-9
1523179069455256,3,0,-1,-1,-3,1,4,5
1523179069464780,-4,-2,-1,-2,6,-2,-5,-9
1523179069464780,-4,-1,-4,-2,-3,-8,-10,-4
1523179069486338,-1,-3,-4,-6,-8,-15,1,0
1523179069486338,0,0,2,2,-2,4,-5,7
1523179069488388,1,1,0,-1,3,10,2,0
1523179069488388,-4,-2,-2,-4,-26,0,-2,-15
1523179069508896,-2,2,-2,3,20,-7,-1,-6
1523179069508896,3,0,-2,-3,9,6,-3,33
1523179069510903,1,1,-2,-2,-5,-7,9,1
1523179069510903,-3,-2,1,-1,-4,2,-7,-1
1523179069530454,0,-1,0,2,-6,10,1,-6
1523179069530454,-3,-3,-2,-2,0,-7,0,-15
1523179069539479,-1,-2,-1,-1,1,-9,5,2
1523179069539479,0,1,-2,-1,-3,16,8,8
1523179069561722,-1,-2,-1,-3,-18,-9,-4,4
1523179069561722,-3,-2,-3,-1,13,6,-4,-16
1523179069563040,2,-3,-1,-2,-2,-20,-10,8
1523179069563040,-6,-2,0,0,3,-4,-5,-1
1523179069584621,-2,-2,-1,1,9,-2,2,-7
1523179069584621,0,-1,-1,-3,-27,-7,-4,3
1523179069587128,-3,-2,-1,-2,2,5,1,-6
1523179069587128,2,0,3,6,5,3,-4,1
1523179069605179,2,-1,-4,-3,2,-7,1,15
1523179069605179,-1,0,-1,-2,-2,9,-1,-11
1523179069614200,-7,0,0,0,3,-19,-22,-14
1523179069614200,3,-2,-2,0,2,-15,10,10
1523179069636760,2,0,0,-3,-21,4,0,14
1523179069636760,0,0,-1,0,10,7,-1,-3
1523179069638268,-2,-1,0,0,-13,10,3,-3
1523179069638268,-1,-1,0,1,8,-4,-5,-4
1523179069658819,0,0,-1,-1,-8,-12,-5,-1
1523179069658819,-1,0,0,1,13,6,-1,-7
1523179069660824,-2,-3,-1,1,-4,-1,0,0
1523179069660824,0,-1,-2,-3,-2,-6,2,4
1523179069680879,1,1,0,-3,17,3,-2,-6
1523179069680879,-4,-1,1,0,5,7,3,-5
1523179069696921,1,1,0,1,-22,-5,3,6
1523179069696921,-1,-2,-2,-2,8,0,-2,-8
1523179069711484,-1,-1,-1,-1,-6,-4,-7,-4
1523179069711484,-2,-1,-1,-1,9,-7,-4,-2
1523179069717501,-1,-1,-2,-2,-7,-13,0,-2
1523179069717501,-2,-4,-2,-3,14,22,13,-7
1523179069734047,1,2,2,0,-9,11,4,5
1523179069734047,1,-1,1,3,-8,-11,0,10
1523179069735725,0,-2,-2,-4,-16,0,-7,-2
1523179069735725,1,0,-3,3,19,-11,-8,-8
1523179069755104,-3,-1,-3,-3,-8,4,-4,-5
1523179069755104,-1,-1,-3,-6,-9,7,16,-4
1523179069765127,-2,-1,-3,-1,5,-3,-1,-6
1523179069765127,0,0,2,3,-12,1,-5,7
1523179069786684,-4,-2,-2,-4,-9,-11,-6,-14
1523179069786684,-3,-2,-2,0,13,-11,-6,-4
1523179069788191,0,-2,-1,0,9,13,10,1
1523179069788191,4,1,-2,-4,-1,13,-4,9
1523179069793250,0,1,0,2,-1,3,-4,1
1523179069793250,0,-2,-3,-4,11,-1,6,-2
1523179069794205,-1,0,5,3,-24,-1,-6,-6
1523179069794205,-2,-2,-1,-2,6,-11,-14,-8
1523179069800722,-2,-2,-1,-2,-10,1,0,-4
1523179069800722,3,-1,-1,-3,-2,5,6,12
1523179069801725,-2,2,0,-1,21,-1,-1,-6
1523179069801725,-1,-1,-1,-3,-12,6,9,5
1523179069809246,0,-2,0,1,0,-5,-7,3
1523179069809246,-4,-1,-2,0,-11,-17,-9,-12
1523179069810749,11,0,-3,1,9,9,9,16
1523179069810749,-13,0,0,-1,-11,-19,-4,-17
1523179069815761,1,-3,-3,-3,11,17,11,15
1523179069815761,1,-1,0,0,-21,3,2,-11
1523179069816764,0,-1,1,1,-1,-7,-3,17
1523179069816764,-1,-2,-2,-5,-7,0,-2,-12
1523179069824284,-4,-1,-1,-2,-1,-9,2,-9
1523179069824284,-1,-1,-2,-2,-2,6,-6,9
1523179069824786,0,-1,-2,-2,-3,-7,-7,-4
1523179069824786,1,-1,-2,0,2,-1,1,3
1523179069830801,0,0,1,0,-5,1,-5,-1
1523179069830801,0,0,2,1,4,2,0,-5
1523179069831806,-3,0,-2,-4,0,-6,1,1
1523179069831806,3,-1,0,0,-4,4,7,3
1523179069853970,2,0,0,0,3,-7,0,5
1523179069853970,-3,0,-2,1,10,10,-7,-1
1523179069855868,-3,-3,-3,-1,0,-5,-3,-8
1523179069855868,3,-2,-2,-2,10,-10,-8,1
1523179069876478,0,-1,-1,-1,-12,7,16,10
1523179069876478,-5,-1,1,-1,-11,-9,-4,-5
1523179069878429,-6,-3,-5,-2,-3,-1,-10,-21
1523179069878429,2,0,-2,-1,-2,9,0,14
1523179069897980,3,0,0,-1,6,-9,-6,5
1523179069897980,-3,0,-1,-4,-18,-1,-5,-8
1523179069906503,-3,0,2,2,16,-5,-5,-1
1523179069906503,-2,-1,-1,-3,-4,0,-1,-1
1523179069914023,2,-1,-3,-3,-14,7,10,-12
1523179069914023,-5,0,2,5,3,5,-3,0
1523179069915027,-3,-2,-3,-4,1,-8,-2,-4
1523179069915027,1,1,1,-1,-9,-6,-10,7
1523179069915526,-2,0,0,2,6,10,7,-4
1523179069915526,0,-3,-4,-4,-3,-3,9,1
1523179069921592,-3,0,-2,1,24,5,-1,-2
1523179069921592,-1,1,1,0,0,12,4,0
1523179069922545,-3,-1,1,-3,-18,-18,-13,4
1523179069922545,-3,1,-1,0,10,-13,-7,-7
1523179069929063,4,1,1,-2,-13,-9,-4,4
1523179069929063,1,0,-2,-3,-1,11,3,14
1523179069936082,-7,0,-1,2,10,3,10,-19
1523179069936082,2,0,0,-4,-8,8,0,1
1523179069936582,-1,-1,0,3,6,3,3,6
1523179069936582,1,0,0,-2,-2,-9,-8,1
1523179069944103,-1,0,-1,2,1,-7,-1,-10
1523179069944103,2,1,2,-1,5,1,-6,16
1523179069944604,4,0,-2,-3,-11,2,-10,8
1523179069944604,-2,-5,-4,-2,21,8,21,-4
1523179069950620,10,-1,1,1,-23,1,-10,13
1523179069950620,-22,-4,-2,-4,17,-6,-5,-45
1523179069951675,0,0,1,2,-9,-8,-6,-3
1523179069951675,4,-1,-2,-2,-4,-7,-3,18
1523179069958140,-4,-3,-2,-5,5,0,7,-6
1523179069958140,6,0,-1,5,4,0,-6,6
1523179069959142,2,-1,-1,-3,-3,11,10,5
1523179069959142,-12,-2,0,0,-5,-7,-3,-26
1523179069982205,3,2,-2,-1,1,-2,-6,4
1523179069982205,4,-2,-2,-1,-8,-6,-8,6
1523179069983709,-6,-3,-1,-1,-5,-2,1,-7
1523179069983709,0,-2,-2,2,13,-5,4,-2
1523179070003300,0,0,-1,-2,-3,6,-7,13
1523179070003300,-7,-1,0,2,4,-1,1,-16
1523179070011783,1,1,-1,-1,-1,16,6,5
1523179070011783,0,-1,-1,-2,-8,-12,-9,-7
1523179070033841,-2,0,-4,-2,9,-2,-3,3
1523179070033841,-2,-2,0,-1,-10,-7,-10,-14
1523179070035847,1,-3,-3,-2,7,-8,9,2
1523179070035847,-1,1,1,1,-32,3,-2,-3
1523179070056401,0,-1,-3,2,35,10,-6,5
1523179070056401,-6,0,-3,-4,-23,-8,-1,-5
1523179070058410,0,1,1,2,5,-4,5,-9
1523179070058410,2,0,0,-1,0,3,0,18
1523179070079038,-2,-1,0,-2,-9,-3,-6,-8
1523179070079038,3,-2,-3,0,5,1,4,9
1523179070080464,-4,-2,-2,-2,-8,-9,-9,-4
1523179070080464,-7,-3,-5,-4,15,7,-2,-21
1523179070101093,5,2,2,0,-6,7,13,25
1523179070101093,-2,-2,1,0,6,2,-3,4
1523179070109114,-3,-1,-1,-3,-15,0,-6,-18
1523179070109114,3,-1,1,3,11,-5,1,14
1523179070131601,-8,-4,-2,-1,0,-1,-14,-16
1523179070131601,0,-4,-3,-3,4,-9,19,1
1523179070133106,2,1,0,0,2,14,-2,8
1523179070133106,-2,1,0,-2,-18,15,-3,-6
1523179070154160,-4,-2,-3,-1,21,-18,-3,-8
1523179070154160,6,2,0,-1,-16,8,5,19
1523179070155672,-7,-4,-1,-2,6,0,0,-15
1523179070155672,4,-1,0,0,-3,-6,0,6
1523179070175216,-3,-3,-1,-3,-3,-3,-7,-5
1523179070175216,-7,-2,-1,-5,11,-9,-11,-10
1523179070184240,0,-1,0,-1,-22,-4,2,-8
1523179070184240,1,-1,-1,-2,0,0,10,11
1523179070207303,1,1,0,-4,-5,-9,-6,14
1523179070207303,13,-2,-4,-1,0,5,1,24
1523179070209809,-22,-3,-1,1,11,-5,-12,-44
1523179070209809,-1,-2,0,1,-7,-4,5,-16
1523179070229019,1,1,3,4,-7,-5,7,-4
1523179070229019,0,1,0,0,3,0,-6,7
1523179070230945,5,0,-2,-4,-2,14,0,11
1523179070230945,2,0,0,1,-4,-13,-11,-4
1523179070250416,-8,-2,-4,-2,11,12,10,-17
1523179070250416,1,-3,2,-1,-14,-1,0,0
1523179070258939,4,-2,-3,-2,-4,-19,-5,14
1523179070258939,-5,-2,-1,-3,2,8,0,4
1523179070281498,4,0,-1,0,1,7,5,1
1523179070281498,5,1,-4,0,-7,-2,-3,17
1523179070283003,-13,-3,0,-3,-7,-3,4,-22
1523179070283003,1,0,0,-1,-4,-3,1,10
1523179070305063,-2,-3,-1,-2,0,-4,-6,-7
1523179070305063,-4,-4,-4,-4,2,-5,-10,-13
1523179070307067,8,-1,2,1,-4,-19,5,19
1523179070307067,-6,2,1,2,14,29,4,-15
1523179070325115,-1,-2,-1,-4,-19,-2,-4,5
1523179070325115,-3,-1,-1,3,12,6,4,-6
1523179070334139,2,-2,-2,-2,-3,1,-4,9
1523179070334139,-4,-1,-2,4,17,-4,2,-16
1523179070356700,2,-2,-1,-2,-3,-1,0,-4
1523179070356700,-2,-2,-1,-1,-1,-6,-5,-7
1523179070358309,4,1,0,0,5,-8,-2,10
1523179070358309,5,-1,0,-1,-27,4,6,27
1523179070378813,-5,-2,-3,-2,8,2,-4,-10
1523179070378813,-4,-2,0,-2,0,-14,-4,-10
1523179070380763,2,-1,-2,-2,-7,10,2,-2
1523179070380763,-3,-3,-1,4,32,2,-12,-11
1523179070400816,1,0,0,1,-8,-7,3,-4
1523179070400816,0,0,-1,-1,-4,4,-3,3
1523179070409522,-4,-3,-2,-2,6,-1,-3,-4
1523179070409522,1,-3,-4,-2,-19,-12,7,2
1523179070431397,0,-1,0,2,18,7,0,-1
1523179070431397,2,0,0,-2,-9,19,5,2
1523179070433404,-1,-1,-2,-1,-3,-1,-4,-1
1523179070433404,-1,-1,-3,-6,-3,-14,-7,-5
1523179070454079,-5,-1,0,2,-15,-18,-5,-9
1523179070454079,0,-2,-2,0,43,11,7,7
1523179070455969,1,-2,-2,-1,-35,-19,-7,-3
1523179070455969,-4,-1,-1,-4,4,5,4,-8
1523179070475515,2,1,0,-3,-1,14,0,6
1523179070475515,0,-2,1,-1,-11,-11,-3,-6
1523179070485041,1,-1,0,4,23,12,-1,8
1523179070485041,-2,-1,-1,-3,-17,-11,-2,3
1523179070506599,-1,-1,-2,-1,0,-9,1,-6
1523179070506599,1,0,0,0,-22,7,6,-1
1523179070508102,-4,-1,0,1,19,1,-2,-9
1523179070508102,7,1,0,-2,-12,15,3,22
1523179070529159,-8,-3,0,-5,0,-5,-2,-1
1523179070529159,4,-1,-2,-1,-10,-28,-6,1
1523179070530889,-6,-2,-1,0,9,4,-4,-21
1523179070530889,0,0,-2,-4,-33,-14,0,4
1523179070550453,2,-1,-3,0,2,15,1,1
1523179070550453,-2,-3,-4,-2,1,-19,5,-10
1523179070559302,5,2,4,2,6,8,0,38
1523179070559302,1,1,-1,-1,6,21,1,-9
1523179070581797,-4,-1,-1,-2,-6,-4,-3,0
1523179070581797,-5,-1,1,-2,-12,-4,-9,-13
1523179070583302,9,-2,-6,-4,11,-9,1,25
1523179070583302,-15,-2,1,-1,1,-14,-13,-30
1523179070604860,-2,-2,-3,-1,-1,4,-1,5
1523179070604860,-1,1,0,2,24,2,1,-2
1523179070607365,-2,0,-1,-3,-23,15,5,-2
1523179070607365,4,0,-1,0,6,-21,-8,10
1523179070625413,0,-1,-1,-2,-7,2,2,-8
1523179070625413,-1,-2,-1,0,-9,-3,-5,0
1523179070634437,0,-2,-3,-1,6,15,11,3
1523179070634437,-3,-2,-3,-1,9,-2,-4,-16
1523179070656798,-2,0,-1,-3,-9,-4,-3,4
1523179070656798,2,-1,-1,-1,-4,-5,-11,6
1523179070658054,1,0,-1,-1,-1,-10,9,-11
1523179070658054,-3,-1,0,0,2,8,2,2
1523179070679167,3,1,1,1,-4,5,-5,-2
1523179070679167,-2,1,-1,-4,-15,1,-1,15
1523179070680615,-3,-1,-2,5,38,21,3,-14
1523179070680615,0,-4,1,0,-3,-21,-7,-7
1523179070700667,3,-2,-5,-2,1,-12,-5,5
1523179070700667,-9,-1,0,-1,-15,1,-3,-17
1523179070709192,1,0,0,-1,-9,-3,-2,4
1523179070709192,1,-1,0,-1,32,0,-1,0
1523179070731752,1,-1,-2,-4,-32,6,1,3
1523179070731752,-4,-4,-3,-3,17,-3,5,-9
1523179070733291,-2,-3,0,-2,-12,-3,2,8
1523179070733291,-1,-1,0,1,0,-2,0,0
1523179070754341,-4,-1,0,2,3,22,-1,-12
1523179070754341,3,-1,-4,-3,11,3,6,7
1523179070755816,-2,-1,-2,0,13,-3,2,-6
1523179070755816,-4,-1,-2,-2,-8,0,-9,-7
1523179070776370,-2,0,-1,1,-5,-17,-3,-20
1523179070776370,1,-3,-3,1,-3,4,-1,3
1523179070778376,6,1,2,1,-4,9,9,17
1523179070778376,-3,1,2,-3,-10,-9,1,-10
1523179070797927,-3,-1,2,0,8,-1,-3,0
1523179070797927,3,0,2,2,10,5,1,7
1523179070807954,-3,0,0,-1,-20,-4,2,-11
1523179070807954,1,0,-2,0,11,12,-2,7
1523179070829012,-9,-4,-3,-2,-2,-25,-9,-12
1523179070829012,1,0,-1,2,-10,10,4,3
1523179070830514,0,-3,-3,-4,-35,3,3,-1
1523179070830514,-7,0,1,3,7,-2,6,-5
1523179070851570,1,-1,-1,-2,8,-2,-5,12
1523179070851570,-1,0,-2,0,-5,7,-4,-9
1523179070853142,-1,0,-1,0,14,-15,-12,5
1523179070853142,4,-2,-2,-3,-10,6,9,10
1523179070872625,-8,-2,-2,-4,2,-2,-1,-20
1523179070872625,0,1,1,-2,-3,-8,1,6
1523179070881651,-2,0,1,-1,-6,5,-6,-11
1523179070881651,2,-2,0,1,-1,-11,-9,7
1523179070904712,-1,-1,-1,0,6,2,12,3
1523179070904712,0,0,-1,-3,-13,7,1,0
1523179070907217,-2,-2,-3,-3,9,-13,-8,-4
1523179070907217,-5,-3,-3,-1,-5,0,-10,-12
1523179070926769,1,0,-4,-1,-13,-5,11,-7
1523179070926769,1,2,1,2,32,15,-1,22
1523179070928307,1,-1,-1,-2,-15,-9,-9,-2
1523179070928307,0,0,0,-3,-2,3,-3,2
1523179070948327,4,2,2,4,7,0,-9,7
1523179070948327,-4,-3,-4,-4,6,-23,-3,-26
1523179070955346,-12,-1,-2,-2,-9,13,6,-13
1523179070955346,3,0,1,3,-5,13,-3,12
1523179070978909,2,-1,-1,-3,0,-5,-2,13
1523179070978909,2,-1,-2,2,8,-2,-1,-5
1523179070980915,1,-1,-2,-8,-32,-28,-10,1
1523179070980915,-1,0,-2,0,16,1,6,-9
1523179071002522,-4,-1,1,1,-4,3,-7,-4
1523179071002522,-7,-2,-2,0,-1,-13,-12,-24
1523179071004053,1,-2,-2,2,13,3,5,45
1523179071004053,5,1,-1,-3,-8,4,15,6
1523179071023526,3,-1,3,1,7,14,4,15
1523179071023526,-3,-2,2,-2,-15,-10,-8,-15
1523179071030045,-9,0,0,-2,6,16,0,-25
1523179071030045,2,0,-4,-2,3,-6,-13,6
1523179071054108,-2,0,-2,-2,-11,-6,7,15
1523179071054108,-1,-2,-1,-2,-11,-2,0,0
1523179071055612,0,-1,-2,1,6,-3,2,-5
1523179071055612,1,-3,-2,-2,6,2,0,7
1523179071076668,-5,-2,-1,-3,-7,-7,-7,-28
1523179071076668,5,0,-3,-2,-5,-1,-2,18
1523179071078406,-1,-1,1,2,9,0,6,-4
1523179071078406,-2,-1,-2,-3,-21,-9,-3,-4
1523179071098226,-1,-2,0,1,21,8,1,-9
1523179071098226,0,0,1,-2,-2,-1,2,6
1523179071106775,-5,-3,-1,-1,6,1,3,-18
1523179071106775,-1,0,-1,-5,-24,-9,-7,-6
1523179071120888,7,1,-1,1,2,-6,6,27
1523179071120888,-3,0,2,2,-17,21,0,3
1523179071129429,4,1,-2,-2,1,-21,-8,-7
1523179071129429,-5,-2,-3,0,5,2,-1,-15
1523179071151473,-4,-3,-4,-3,0,-8,-11,-11
1523179071151473,-3,-1,-4,1,-6,3,-2,12
1523179071153118,4,0,1,0,0,2,-2,9
1523179071153118,-2,-2,0,-2,-1,-2,10,-10
1523179071173357,0,0,-2,1,-1,-5,-6,-2
1523179071173357,-3,-1,-1,-3,-7,1,6,-10
1523179071175693,0,0,-2,-1,-2,2,-3,10
1523179071175693,11,-1,-2,-2,2,0,-6,-3
1523179071195418,-25,-2,-2,-3,-12,-7,-3,-28
1523179071195418,1,-1,-1,2,25,7,-1,-1
1523179071204564,1,-1,-2,-1,-7,2,4,12
1523179071204564,1,-2,-2,-2,-5,-4,-7,9
1523179071226545,5,0,0,0,-1,6,21,3
1523179071226545,-5,-2,0,0,-6,-5,4,-4
1523179071229506,-1,1,-1,1,20,3,-10,-11
1523179071229506,-5,0,1,1,8,3,8,-7
1523179071248560,4,0,-2,-3,-1,0,-9,5
1523179071248560,2,1,-1,1,-8,0,6,6
1523179071250564,5,-3,-2,-3,-2,2,-1,16
1523179071250564,-9,-2,1,3,-2,-7,-10,-24
1523179071270252,-7,0,1,1,-10,-5,-2,-19
1523179071270252,5,0,-1,-2,-3,-8,4,5
1523179071279233,-2,-1,-2,-1,2,8,-5,0
1523179071279233,-3,-3,-2,0,-13,7,0,8
1523179071301290,18,-2,-2,-1,41,5,-2,25
1523179071301290,-15,-5,-2,-6,-38,-9,-17,-29
1523179071303296,-16,0,2,6,1,4,10,-23
1523179071303296,3,1,-3,-3,23,5,0,19
1523179071324351,6,-2,-1,-4,-28,-5,-4,7
1523179071324351,6,-1,0,0,16,0,1,6
1523179071327401,4,-2,-2,0,-4,-1,1,-2
1523179071327401,-8,-1,0,0,1,-6,-5,-25
1523179071345409,-1,-2,-4,0,-1,1,-6,10
1523179071345409,-7,-3,-2,-3,-3,-2,8,-23
1523179071354440,-1,-1,0,-6,-14,-5,-10,-2
1523179071354440,5,1,0,0,0,-9,5,11
1523179071376078,-1,0,1,-1,-15,3,-1,1
1523179071376078,0,1,-1,3,11,9,-1,5
1523179071378083,-1,0,-1,-2,11,5,-1,-1
1523179071378083,-7,-3,-2,-2,-14,-14,-3,-14
1523179071399180,2,0,-1,0,-6,-6,-8,3
1523179071399180,1,1,1,0,8,17,11,11
1523179071400142,0,0,3,0,-5,-7,0,2
1523179071400142,0,-1,-1,-2,-9,-5,-3,0
1523179071421202,-3,0,0,-1,12,9,0,-6
1523179071421202,3,-2,1,4,-1,7,5,7
1523179071429220,-7,-1,-3,-1,14,-19,-11,-24
1523179071429220,2,-1,1,-1,-40,5,6,8
1523179071451320,0,0,0,0,21,7,2,3
1523179071451320,1,0,-1,-3,12,-3,0,3
1523179071453411,7,-1,-1,-1,-12,0,5,11
1523179071453411,-7,-1,-2,-1,15,1,-3,-5
1523179071472997,-5,-1,-1,2,-6,7,0,7
1523179071472997,-4,0,0,-3,-2,-5,-1,-27
1523179071480015,3,-1,0,-1,-14,-7,-5,9
1523179071480015,4,1,-2,-1,5,0,0,12
1523179071505082,3,-2,-2,-2,-9,-10,-5,-3
1523179071505082,-5,-1,-1,1,20,-3,-1,2
1523179071506170,-4,-2,0,-3,-17,4,5,-24
1523179071506170,1,0,2,1,10,0,-6,-6
1523179071526369,-2,0,-1,-2,-3,5,0,-1
1523179071526369,4,-2,-2,-1,11,-7,-11,19
1523179071528143,-2,-2,-3,-4,-9,2,-1,-12
1523179071528143,1,-1,0,1,12,-3,0,12
1523179071549199,-7,-2,0,0,11,5,3,-24
1523179071549199,1,0,-2,-3,-7,-12,-3,12
1523179071550201,4,-1,0,0,-3,5,-9,4
1523179071550201,0,-1,-1,-1,20,16,6,13
1523179071570266,-7,-1,-2,-2,-5,-17,-8,-14
1523179071570266,-1,-2,-2,-1,-13,-11,-12,1
1523179071579285,1,-1,0,0,14,19,17,6
1523179071579285,-2,0,2,0,4,-12,-2,-11
1523179071601579,0,0,-4,-4,-21,-11,-3,0
1523179071601579,-1,-1,1,-1,2,-3,-5,-4
1523179071603360,-1,0,-1,2,2,1,-8,-13
1523179071603360,0,-3,-2,0,-2,7,4,0
1523179071624407,1,-2,-1,-2,-5,-8,-3,8
1523179071624407,-3,-2,-3,-1,-3,5,4,-8
1523179071627414,1,-1,-2,-2,8,-1,1,4
1523179071627414,-5,-2,0,2,-12,7,-3,-7
1523179071645462,-2,-1,0,-1,-4,-8,-1,-6
1523179071645462,2,-1,-2,0,-8,3,-1,3
1523179071661512,-4,-5,-4,-4,-3,-13,-9,3
1523179071661512,0,-1,-1,-3,-9,-3,0,-2
1523179071675852,-5,-2,2,-2,-6,12,2,-5
1523179071675852,2,-1,-1,-1,1,-8,8,8
1523179071677894,-2,0,-1,-1,1,1,-1,-1
1523179071677894,-1,0,-2,0,-11,-14,-8,4
1523179071698916,-4,-2,-4,0,28,5,1,-11
1523179071698916,-8,-3,-2,-5,-8,-12,-7,-19
1523179071700940,4,2,2,5,7,16,11,9
1523179071700940,3,0,1,-4,-2,13,-4,18
1523179071720976,1,1,-2,-3,-6,-6,-2,11
1523179071720976,-4,-1,-2,2,-3,5,-1,-14
1523179071728995,-4,-1,-4,-1,-8,-9,-9,-9
1523179071728995,2,-1,-3,-1,13,-9,1,-7
1523179071751787,-5,0,0,2,-13,-4,-5,10
1523179071751787,-3,-1,-3,-3,12,0,2,-19
1523179071753293,3,2,1,0,-5,2,2,15
1523179071753293,-3,-1,-3,-1,-10,-1,1,-1
1523179071774169,1,-1,1,1,1,-3,-4,-11
1523179071774169,4,2,2,-1,-17,-8,-4,12
1523179071775716,-3,-1,-1,-1,6,-8,3,6
1523179071775716,-3,-2,-3,-3,5,11,4,-9
1523179071795227,2,-1,1,-1,-2,-8,-1,4
1523179071795227,2,2,-1,-1,-1,2,1,3
1523179071804253,0,-3,-1,-2,-9,-12,-9,3
1523179071804253,-7,-2,0,-2,-5,-16,-10,-14
1523179071827312,12,0,0,1,16,15,17,2
1523179071827312,-16,-1,4,5,7,19,1,-4
1523179071829325,6,0,-2,-2,-2,-11,0,7
1523179071829325,-11,-2,-2,0,3,-8,2,-9
1523179071848367,0,-3,-3,-3,-2,12,-12,0
1523179071848367,5,0,1,1,1,1,2,13
1523179071850372,-3,-2,-2,3,22,10,2,-10
1523179071850372,2,0,1,-2,-19,-15,9,4
1523179071871023,0,0,-1,0,4,13,7,5
1523179071871023,127,127,127,127,127,127,125,122
1523179071877726,-3,1,-3,-1,-9,-7,-5,-2
1523179071877726,5,0,-3,-1,5,6,1,8
1523179071901097,-4,-3,-2,0,-1,-7,-1,-27
1523179071901097,127,127,124,127,126,127,126,127
1523179071903108,0,-3,-2,-1,16,10,14,5
1523179071903108,-2,0,0,-3,-52,-19,-15,-15
1523179071924197,4,-3,-3,0,28,-6,2,24
1523179071924197,127,127,127,122,114,127,123,127
1523179071927167,-2,0,-1,-3,3,-9,-4,-12
1523179071927167,1,-2,-2,-2,6,9,-3,7
1523179071945215,-3,-2,-2,-4,-19,-8,-6,5
1523179071945215,127,127,126,124,127,118,123,127
1523179071952743,-3,-1,0,-1,-10,-9,-8,4
1523179071952743,-1,-1,-2,1,30,23,2,-13
1523179071976007,0,3,0,-3,-29,-10,-1,4
1523179071976007,123,127,127,123,127,127,127,127
1523179071977915,5,1,-3,-2,6,4,-2,1
1523179071977915,-13,-2,-1,-3,1,1,-1,-12
1523179071998974,1,0,1,2,7,0,0,-9
1523179071998974,127,124,123,126,127,122,127,127
1523179071999976,-4,-1,-4,-2,12,-8,-11,-12
1523179071999976,7,-1,-2,0,17,8,12,17
1523179072021030,-3,1,2,1,-22,6,11,8
1523179072021030,126,126,124,125,127,122,116,127
1523179072027046,-4,-2,-1,-2,-9,4,-2,-4
1523179072027046,1,-2,-2,0,14,-4,-1,0
1523179072042086,-2,-2,1,-2,-16,12,-5,-3
1523179072042086,124,127,126,125,127,127,127,126
1523179072051619,-6,-2,-1,-2,-12,4,1,-10
1523179072051619,2,-1,-1,2,4,-4,2,11
1523179072074179,-2,0,0,-1,7,-4,6,-22
1523179072074179,127,127,127,126,127,127,127,127
1523179072075183,-6,-3,-3,-1,7,2,-5,-20
1523179072075183,3,1,0,2,3,-5,0,32
1523179072096237,-1,-1,-3,-1,10,10,12,4
1523179072096237,127,127,127,123,127,127,122,127
1523179072098244,-3,-2,-1,0,5,-11,4,-1
1523179072098244,-2,-4,-2,-3,-8,11,-6,-5
1523179072118317,-3,-2,-3,-2,-3,-4,-7,2
1523179072118317,127,127,127,127,123,127,127,127
1523179072125313,-6,-2,-1,0,-19,0,1,-11
1523179072125313,-1,-1,-2,-3,-32,-1,-4,-6
1523179072148837,-7,0,0,2,22,0,3,-6
1523179072148837,127,126,127,127,127,126,127,123
1523179072150380,1,-2,-1,-2,2,-1,4,6
1523179072150380,0,-1,-1,-3,-11,-7,-6,4
1523179072170989,-11,-2,0,-1,4,4,2,-31
1523179072170989,127,127,127,124,122,126,123,127
1523179072172948,1,0,0,1,-2,-4,-3,1
1523179072172948,-3,1,1,0,11,6,1,-11
1523179072193002,6,-2,-2,-1,-2,-1,-2,15
1523179072193002,126,124,127,127,127,123,127,127
1523179072200021,-5,0,1,-2,-20,2,-8,-2
1523179072200021,1,-1,-1,2,12,3,1,-6
1523179072224601,1,1,-1,-1,-5,1,10,6
1523179072224601,127,125,127,127,127,127,127,127
1523179072226092,-3,0,1,1,9,-1,2,-9
1523179072226092,-1,0,-1,-2,-8,-10,-5,6
1523179072246147,7,-3,-2,2,0,-12,0,5
1523179072246147,127,127,127,127,92,124,125,127
1523179072248149,3,-2,-2,-2,13,3,-3,11
1523179072248149,-2,-1,2,5,11,3,13,-16
1523179072268249,-1,0,-1,-4,-15,0,-6,11
1523179072268249,127,127,125,127,127,127,127,127
1523179072275248,-2,-1,0,-2,-23,2,-3,-17
1523179072275248,-4,-1,-4,-2,2,-7,-2,0
1523179072290289,-5,-3,-2,-3,5,6,-6,-6
1523179072290289,127,126,124,116,118,123,123,127
1523179072299314,-1,-1,0,2,-1,3,2,-2
1523179072299314,1,-1,-1,-2,12,-6,0,0
1523179072321408,-6,-1,-1,-2,-10,-10,-8,-12
1523179072321408,127,127,125,124,112,126,122,123
1523179072323376,1,0,0,-1,4,-2,7,4
1523179072323376,-4,0,0,-1,-19,4,-2,-3
1523179072344595,4,0,0,2,10,-5,-13,9
1523179072344595,127,127,123,121,97,127,127,127
1523179072347440,10,2,2,1,16,17,-2,33
1523179072347440,-6,-2,-3,-4,16,4,-5,-16
1523179072365495,-3,-2,0,-1,-35,-13,-7,-5
1523179072365495,127,127,122,127,127,127,127,127
1523179072374022,-7,-1,-2,-1,17,9,11,-12
1523179072374022,-2,-1,0,-1,-4,-4,-3,0
1523179072396207,-1,0,-1,0,14,3,-3,-6
1523179072396207,125,127,124,109,91,126,123,124
1523179072398086,-1,-2,0,-4,-12,-7,-3,-20
1523179072398086,-2,0,2,0,1,-6,-4,34
1523179072419142,-4,-1,-2,1,5,5,3,-13
1523179072419142,127,125,125,123,120,125,116,127
1523179072420144,0,-1,-3,-1,1,-6,-4,3
1523179072420144,-1,-1,0,-2,-6,1,1,-20
1523179072440199,0,1,3,5,16,4,0,9
1523179072440199,123,115,127,127,127,121,124,127
1523179072449222,-1,-1,-2,-2,-31,-12,-9,-16
1523179072449222,-1,0,-2,-2,-2,0,7,1
1523179072471290,2,0,-2,-3,1,-2,3,5
1523179072471290,127,127,127,127,127,125,127,125
1523179072473293,14,-2,-4,-2,-2,-10,-8,6
1523179072473293,-17,-2,-2,0,-29,2,12,-14
1523179072493726,-2,0,-1,-2,22,9,2,-2
1523179072493726,127,117,116,127,124,127,111,127
1523179072495352,-3,0,3,2,5,0,-4,1
1523179072495352,7,-1,0,2,1,-9,-8,1
1523179072515405,9,-1,-3,-4,-32,-12,3,29
1523179072515405,127,127,127,127,127,126,127,127
1523179072523842,1,0,2,3,11,13,8,20
1523179072523842,3,-1,-1,-2,8,-2,-12,-7
1523179072547490,-4,-4,-2,-4,-10,-8,-1,-7
1523179072547490,127,127,123,125,118,124,126,127
1523179072549495,-5,-2,-2,-2,-12,-11,-12,2
1523179072549495,-1,-1,0,-1,3,5,7,-8
1523179072569086,0,-1,-2,-2,5,20,8,-3
1523179072569086,127,127,127,125,90,127,127,127
1523179072570121,-5,-2,-5,-3,11,-5,7,-3
1523179072570121,6,-2,-1,0,6,-4,-11,8
1523179072590136,-3,-2,0,-2,-10,-9,-1,-6
1523179072590136,127,127,127,125,125,127,125,124
1523179072599158,-4,-1,-1,-5,-18,-7,-1,10
1523179072599158,2,-1,-3,1,35,2,1,-1
1523179072621217,0,0,1,-1,-2,-8,0,-8
1523179072621217,127,127,127,127,127,127,127,127
1523179072623224,3,-1,-2,0,8,4,4,5
1523179072623224,-4,0,-1,0,-9,3,11,-8
1523179072643612,-2,-1,-2,-1,7,4,-8,-3
1523179072643612,127,127,127,127,116,121,125,123
1523179072652305,-3,0,-1,-2,-13,-3,1,-7
1523179072652305,1,-2,3,0,-3,1,-2,-3
1523179072673959,-3,1,-2,0,-6,-5,-5,-2
1523179072673959,127,121,127,127,126,127,127,127
1523179072675882,-1,0,-2,1,35,5,1,1
1523179072675882,1,0,1,-1,-18,0,-5,1
1523179072695963,-1,2,1,1,-4,-1,7,-3
1523179072695963,127,127,127,127,101,116,117,127
1523179072702957,-2,3,-1,-1,-19,7,11,-2
1523179072702957,-1,-7,0,-1,-18,4,-9,-1
1523179072726017,1,3,0,-1,10,3,-1,2
1523179072726017,126,126,127,125,121,125,125,126
1523179072728020,-4,-5,0,-2,-6,-4,-2,-12
1523179072728020,-3,1,-4,-3,1,-1,0,-18
1523179072749106,1,-2,-3,0,-4,-2,2,3
1523179072749106,127,127,127,125,120,127,127,127
1523179072752085,-1,0,0,-2,18,2,2,-2
1523179072752085,0,-1,-2,-3,2,-9,-3,3
1523179072771113,-3,-4,-2,-1,-3,-6,-7,-6
1523179072771113,127,127,127,126,80,127,127,127
1523179072777841,0,-1,-1,0,-10,-3,4,-1
1523179072777841,-1,-1,0,-2,2,3,-3,11
1523179072800907,-2,-2,-2,-1,8,-6,-6,-3
1523179072800907,126,127,127,127,127,127,127,123
1523179072802990,-3,-2,3,-6,-16,-5,-3,-4
1523179072802990,1,2,-5,0,-4,1,1,4
1523179072808927,-3,-3,-3,-15,-1,-4,-2,-5
1523179072808927,0,-5,-4,2,1,-4,-5,0
1523179072810345,3,3,8,16,26,4,0,4
1523179072810345,-4,4,-2,-3,-9,-6,-2,-14
1523179072815945,2,-5,6,5,-22,7,0,9
1523179072815945,0,-4,-6,-17,-15,1,-4,-2
1523179072816946,0,-5,-11,-20,-39,-16,2,2
1523179072816946,0,5,14,22,43,3,-3,2
1523179072823963,-3,-1,-7,-3,-17,2,3,-7
1523179072823963,-2,-3,8,10,19,7,2,2
1523179072824967,2,3,-1,1,2,6,-5,-1
1523179072824967,-1,-6,-11,-13,-8,-8,-7,-5
1523179072830989,-1,2,11,-6,-11,-7,10,-2
1523179072830989,5,5,-7,30,48,16,5,5
1523179072830989,-5,-6,3,-1,8,-4,-4,-3
1523179072830989,-2,2,-7,-6,-25,-1,-1,-5
1523179072838007,0,0,-3,-3,31,2,0,0
1523179072838007,-1,0,4,-13,-64,-16,-2,4
1523179072839006,-2,-2,-6,-15,-25,1,-4,-4
1523179072839006,-1,-6,-2,8,18,1,3,2
1523179072846782,-1,-1,1,8,20,2,-2,-7
1523179072846782,-2,2,1,-10,-4,-7,-6,-2
1523179072848372,4,0,-3,5,-21,-1,6,6
1523179072848372,0,-8,-6,-20,-31,-7,-6,1
1523179072853566,-2,-1,-5,-3,-6,-5,-10,-2
1523179072853566,0,0,1,8,22,7,7,-3
1523179072854062,-2,0,0,-5,-11,-7,-9,0
1523179072854062,1,7,0,1,7,-2,2,-2
1523179072860579,-4,-9,-2,5,-1,-7,-5,-3
1523179072860579,0,-5,-6,-7,6,2,-3,0
1523179072861582,-3,-2,-1,0,-22,1,-8,-1
1523179072861582,2,2,5,7,17,7,14,2
1523179072868613,0,2,-3,1,-1,2,-2,2
1523179072868613,-1,-1,-1,-8,-5,-5,-1,-3
1523179072870717,-5,-2,-2,2,13,-5,-1,-5
1523179072870717,-1,0,-1,1,14,4,0,-4
1523179072875627,-2,-1,-4,-7,-47,-11,-10,0
1523179072875627,1,1,3,-2,25,5,8,3
1523179072876868,1,-4,-15,3,11,0,-12,-1
1523179072876868,-2,-7,0,-2,-13,-2,0,0
1523179072883746,-1,-1,-2,-4,8,-8,-2,-4
1523179072883746,0,0,-5,2,7,0,-5,-3
1523179072884649,1,4,6,-1,-30,3,0,0
1523179072884649,-1,0,-2,-4,2,1,-2,0
1523179072890711,0,6,4,2,-4,-1,1,0
1523179072890711,-4,-7,-3,-2,-5,-5,0,-3
1523179072891669,1,-1,5,0,13,0,-3,-1
1523179072891669,-1,-5,-6,1,1,-1,2,0
1523179072897739,-1,1,-1,0,2,1,0,0
1523179072897739,1,5,9,-6,-35,-4,-3,0
1523179072898759,0,4,-3,4,24,5,3,0
1523179072898759,-1,-5,-10,-7,-9,-3,-4,-2
1523179072906707,-2,-2,-5,1,8,-11,-7,-1
1523179072906707,-2,-2,8,-1,-28,16,4,-3
1523179072907711,-3,0,-11,3,7,-1,6,-2
1523179072907711,-1,1,2,-5,-7,6,1,9
1523179072912724,4,-3,2,7,13,1,0,0
1523179072912724,-3,-6,-8,-4,23,-12,-4,-5
1523179072913860,-1,0,10,0,7,2,0,-4
1523179072913860,-2,2,-2,-2,-14,-3,3,-3
1523179072920744,-4,-1,-5,-4,5,5,-2,-3
1523179072920744,-2,0,2,-4,-15,-18,-4,-1
1523179072921747,0,-2,-1,-3,-14,-14,-9,0
1523179072921747,2,-1,1,3,44,1,-4,1
1523179072928766,-1,-1,13,2,-8,16,17,7
1523179072928766,0,-3,-15,3,10,12,9,-1
1523179072930771,-3,-5,-3,-6,1,-6,-1,-3
1523179072930771,-3,-1,2,-4,-9,-10,-12,-4
1523179072935786,0,1,0,-1,-11,-8,-3,-5
1523179072935786,0,3,3,4,18,7,0,1
1523179072936788,-1,-4,-2,-2,2,-1,-2,2
1523179072936788,1,1,-1,0,-7,-8,0,-1
1523179072943805,-2,0,-5,-4,-17,1,-4,-4
1523179072943805,-1,-7,2,1,4,5,1,-1
1523179072944809,1,0,0,2,6,6,2,5
1523179072944809,-2,-3,-1,-2,-26,-4,-1,-4
1523179072950825,-1,-1,-4,-2,6,1,-3,-1
1523179072950825,-2,-4,-4,-7,5,-9,-12,-2
1523179072951827,-2,0,-8,-5,-45,-3,9,-4
1523179072951827,0,-1,6,12,20,5,0,-2
1523179072958460,-2,-4,-6,-5,8,-1,-6,0
1523179072958460,0,4,1,1,-11,2,-6,0
1523179072959352,0,-4,3,1,23,1,8,-2
1523179072959352,-2,-1,-2,-6,-8,-1,2,-1
1523179072966372,-2,1,-1,-3,-12,-4,-3,0
1523179072966372,2,2,0,-3,2,-3,0,-1
1523179072968103,-2,-2,3,9,22,-1,1,0
1523179072968103,-1,-1,-12,-17,-45,7,-6,-3
1523179072995955,2,-2,12,38,76,10,2,1
1523179072995955,0,7,1,-8,-17,2,8,2
1523179072997961,-2,-8,-3,-5,0,-3,-6,-5
1523179072997961,-1,0,0,-7,-24,-15,-1,-1
1523179073011035,-3,-2,-8,-11,9,3,-3,1
1523179073011035,-2,-6,-1,2,14,-7,-4,-1
1523179073017180,-1,0,-4,-3,-35,-1,0,-2
1523179073017180,-2,1,5,3,9,-3,0,-4
1523179073034210,-2,-2,-9,-6,11,-6,0,-1
1523179073034210,3,3,0,6,15,9,7,10
1523179073035266,1,-4,-1,-10,0,-1,-4,-1
1523179073035266,-1,0,4,3,-5,2,-1,-2
1523179073049099,-3,1,-4,-3,-5,-10,-3,-6
1523179073049099,-2,-2,-3,-6,-24,-1,-1,-7
1523179073050101,-1,2,4,7,20,9,4,-1
1523179073050101,0,0,-2,1,18,-4,0,0
1523179073064144,2,2,4,-4,-15,-6,5,4
1523179073064144,-2,-4,-3,-4,-5,-4,-5,-2
1523179073065648,0,2,1,-2,-14,6,-2,0
1523179073065648,-4,-2,0,2,7,13,-9,-3
1523179073077893,-3,-2,-4,-7,-4,4,6,-2
1523179073077893,-2,-1,-2,-2,-21,-21,-6,-3
1523179073079057,1,1,-2,2,11,-7,-10,2
1523179073079057,3,-3,-2,0,1,9,17,3
1523179073092964,3,2,-1,-4,-23,-3,-8,0
1523179073092964,-2,1,0,0,5,7,1,-4
1523179073100267,-2,1,-1,3,9,-6,-2,-6
1523179073100267,-1,-1,-1,0,0,-12,-6,-2
1523179073115996,0,-1,-2,-3,-15,1,-5,0
1523179073115996,-1,-4,-4,-2,1,-4,-3,1
1523179073118160,-2,-3,-3,-2,33,0,8,3
1523179073118160,-1,0,4,3,-6,0,-1,1
1523179073131037,-1,2,3,-2,-4,-5,-13,-4
1523179073131037,-3,-3,-4,-2,-10,-11,6,-5
1523179073133039,-1,-5,-6,-2,0,14,4,3
1523179073133039,0,-2,-3,0,9,0,2,0
1523179073146075,-2,1,8,-1,-5,1,-1,-3
1523179073146075,-1,1,-14,-4,7,-6,-6,-2
1523179073148081,1,1,13,6,-3,-6,-2,-2
1523179073148081,2,14,1,-5,-10,0,-2,-1
1523179073160134,-3,-7,-6,-2,-16,-7,-5,-7
1523179073160134,-5,-30,-6,-9,-16,-5,-3,7
1523179073169201,-5,-14,-14,-2,6,16,0,3
1523179073169201,1,8,3,-2,-4,2,6,2
1523179073175217,3,12,3,4,25,-5,6,-1
1523179073175217,-1,10,12,2,0,11,-2,-9
1523179073182906,0,0,-2,1,-7,-13,-15,-2
1523179073182906,-4,-14,-6,1,-2,-3,5,-3
1523179073199281,1,5,-1,-1,7,3,-8,2
1523179073199281,0,1,-2,1,17,5,4,0
1523179073200283,-1,1,4,-6,-10,-8,0,-1
1523179073200283,2,2,3,7,3,21,-3,0
1523179073214432,-1,-2,-1,0,-14,-10,3,1
1523179073214432,1,-4,3,-2,-10,-8,-10,-1
1523179073215325,-3,1,-4,-6,0,-12,-4,-4
1523179073215325,-2,-4,-3,-2,15,-16,-5,0
1523179073228360,0,-8,1,-2,-2,26,22,4
1523179073228360,3,12,11,6,0,5,5,5
1523179073230445,0,6,0,-4,2,0,9,-4
1523179073230445,-2,-10,-6,-3,11,9,-6,-3
1523179073242396,-4,-5,4,-3,-10,-4,-5,-2
1523179073242396,1,5,-1,3,2,-8,-4,-4
1523179073251439,0,0,-5,-2,1,-9,-5,-5
1523179073251439,0,-2,4,-2,-8,-10,0,-4
1523179073266512,-1,-4,-7,-4,-1,3,2,-1
1523179073266512,-2,2,0,3,-9,-6,-1,-2
1523179073268092,-3,-1,3,-4,-29,-5,-2,-4
1523179073268092,-5,-3,1,-5,-16,1,-4,4
1523179073280890,2,-1,0,0,5,-5,0,8
1523179073280890,-2,-1,-1,-1,1,6,0,-6
1523179073281096,-2,1,2,2,8,3,-5,-2
1523179073281096,-2,2,0,2,4,-2,3,-7
1523179073296748,-3,-11,-7,-4,-8,-12,-7,-2
1523179073296748,-3,1,-3,-5,-2,9,10,1
1523179073297934,0,4,1,0,7,-13,-2,-1
1523179073297934,1,1,3,-2,-2,8,-8,2
1523179073310969,-4,-8,-6,3,-2,7,-3,-2
1523179073310969,-3,-7,-3,-2,23,-5,-6,-3
1523179073312975,-1,-1,-3,-1,-16,4,2,0
1523179073312975,0,2,-3,-2,2,-14,-1,-1
1523179073317995,-4,3,2,-1,-3,-5,-7,-2
1523179073317995,1,-4,-3,-1,6,4,-4,-3
1523179073318996,-2,0,2,-1,-9,-3,1,-4
1523179073318996,0,-2,-2,3,37,15,-3,2
1523179073326011,1,0,-1,-1,8,6,1,3
1523179073326011,1,0,-4,-2,-6,2,-1,3
1523179073328016,-1,-1,2,-2,-3,-3,-4,-1
1523179073328016,-3,-4,1,0,-12,-8,2,-3
1523179073333029,-1,1,-10,-2,0,-3,-2,-6
1523179073333029,-2,-3,-3,-2,-3,-4,-6,1
1523179073334033,2,0,-3,1,7,5,-5,1
1523179073334033,-2,-4,-8,-3,-5,-6,-4,-1
1523179073341089,-1,-1,3,-2,-6,2,2,-1
1523179073341089,1,2,2,0,-11,-8,-2,0
1523179073341089,-1,2,5,-4,1,6,1,2
1523179073341089,0,-5,-10,6,-4,-3,-1,-3
1523179073349070,-2,-3,-12,-8,-2,-5,-1,-4
1523179073349070,-2,-1,-1,0,-3,-5,-3,-4
1523179073350404,-1,-6,2,4,41,11,-3,1
1523179073350404,-3,5,12,-7,-47,-10,1,0
1523179073356110,1,-3,-11,1,0,-6,-2,-1
1523179073356110,-1,-2,-5,-5,10,6,-4,-2
1523179073356614,1,-2,11,3,-5,-3,0,3
1523179073356614,-2,0,-9,-2,13,4,-1,1
1523179073363628,-2,1,4,0,-12,-5,-1,-2
1523179073363628,0,3,-2,1,-4,-4,-1,0
1523179073364198,-3,-2,-6,-1,-3,-2,-6,0
1523179073364198,-2,-11,-12,-6,5,0,1,0
1523179073371662,0,1,2,-1,-11,0,-1,-5
1523179073371662,-2,-4,-3,-1,-4,-8,2,4
1523179073372671,1,0,5,-1,0,14,1,0
1523179073372671,0,0,-3,0,18,-6,-4,-3
1523179073377690,0,0,9,-2,-52,-6,-1,1
1523179073377690,-2,-3,5,0,4,-3,-6,-3
1523179073378672,-2,3,-9,-4,-1,1,12,-2
1523179073378672,0,-1,-7,1,8,3,-8,1
1523179073386698,-2,-11,-1,3,18,13,5,-1
1523179073386698,-1,3,1,0,0,-1,-2,-2
1523179073387697,-3,-1,-4,-2,-16,-15,-6,-4
1523179073387697,1,2,-2,-4,8,-10,-5,-7
1523179073392709,3,5,4,2,12,0,1,6
1523179073392709,2,-6,1,2,-7,8,2,9
1523179073393759,-2,-4,-5,-5,-8,-6,0,-4
1523179073393759,0,2,4,3,-20,0,-1,-3
1523179073400732,-4,-2,-2,-2,-5,-7,-5,-6
1523179073400732,-7,-4,-6,-3,1,-6,-6,-10
1523179073401741,-1,-5,-12,-3,-13,-12,-15,0
1523179073401741,2,-1,3,2,16,8,17,16
1523179073408757,2,2,4,2,-12,4,26,1
1523179073408757,1,5,3,-2,0,14,0,-3
1523179073410796,-1,-1,1,0,2,-2,-1,-4
1523179073410796,-3,-1,-1,-1,-3,-9,-12,-7
1523179073416003,-1,0,-4,-4,16,-8,-15,0
1523179073416003,-2,-2,-4,-1,-7,-2,6,-1
1523179073416774,-1,-2,-2,2,3,-1,-2,1
1523179073416774,-2,-2,3,-2,-11,-7,-3,-3
1523179073429809,-2,-1,-1,-1,25,16,2,-1
1523179073429809,-4,0,-1,0,3,-4,-3,-7
1523179073437831,0,0,-4,-1,-12,-6,-1,3
1523179073437831,-1,-5,-2,-4,-11,-2,0,2
1523179073452878,-2,-2,0,3,20,0,-8,-4
1523179073452878,-2,0,1,0,0,-1,4,0
1523179073460898,-2,-3,1,-4,5,2,-5,-1
1523179073460898,0,6,1,-3,-12,-1,-4,-7
1523179073475686,1,-6,-5,-2,-1,0,-1,4
1523179073475686,0,0,-2,-1,7,-7,-7,3
1523179073476738,-3,0,0,0,-14,1,11,-11
1523179073476738,-1,-2,2,4,5,8,-2,1
1523179073489719,2,5,2,-1,-4,-4,-7,14
1523179073489719,1,1,-2,-3,2,20,19,0
1523179073497742,-2,-5,0,0,8,-3,-4,-3
1523179073497742,-4,-4,0,-3,-14,0,-6,-10
1523179073512782,-1,-3,-6,-3,-14,-14,4,-4
1523179073512782,4,-1,-1,2,9,-3,-11,9
1523179073521087,0,1,-3,-1,0,10,7,0
1523179073521087,-3,0,8,2,-9,-8,-1,-3
1523179073535848,-3,-1,-2,0,-1,-11,-3,-4
1523179073535848,-3,-2,-4,-4,-13,4,-3,-4
1523179073536848,-1,-2,-1,-2,2,-1,-5,-2
1523179073536848,0,-2,-1,-1,-1,6,8,1
1523179073550019,1,0,2,-1,0,2,0,3
1523179073550019,-1,-1,0,1,-1,-7,0,-7
1523179073557926,1,1,1,0,4,4,-6,9
1523179073557926,0,-1,-7,-6,-2,4,1,-2
1523179073572973,-3,-1,0,1,-15,-11,-7,-8
1523179073572973,-1,-4,-1,0,4,-4,6,-1
1523179073581036,-1,-1,-1,0,-4,-1,6,0
1523179073581036,-3,-3,-3,-4,14,-4,-9,-3
1523179073595034,-2,-2,-2,-7,-15,1,5,-2
1523179073595034,-1,2,-1,0,-5,-4,-15,0
1523179073603054,0,-7,-3,1,14,-4,-1,1
1523179073603054,3,3,-2,1,9,4,9,5
1523179073610073,0,1,-1,-2,-2,1,-9,-4
1523179073610073,-2,1,-1,-1,-6,0,1,-2
1523179073617441,-2,0,-3,-2,3,-1,2,-7
1523179073617441,-2,-3,1,2,4,-3,-2,2
1523179073632169,0,-2,-5,-3,5,11,-5,5
1523179073632169,0,-1,-2,2,2,6,3,-4
1523179073640166,-1,2,0,-3,0,-7,-1,1
1523179073640166,-1,-1,1,-2,-4,-2,-3,-3
1523179073655215,-4,-2,-6,-1,4,3,4,-3
1523179073655215,-1,-1,2,-2,-5,-4,-4,2
1523179073663239,0,-2,-4,-3,-13,-12,-7,-2
1523179073663239,-1,-2,0,-2,0,-7,0,-3
1523179073669767,1,2,5,2,5,7,1,0
1523179073669767,1,-1,-2,-1,17,5,3,2
1523179073677789,-3,-2,-1,1,6,-8,-1,-1
1523179073677789,-2,-1,0,0,-31,6,-2,-3
1523179073692823,-3,-2,0,-1,0,-4,-7,-2
1523179073692823,0,-2,-5,-3,-2,-11,-5,4
1523179073700852,0,1,1,-2,-19,-5,11,2
1523179073700852,1,4,1,4,10,22,0,-1
1523179073715400,-1,-8,1,1,-2,-4,1,-7
1523179073715400,-2,-4,-1,0,-4,-1,0,5
1523179073722904,3,4,-1,-1,0,-5,-11,0
1523179073722904,-2,-2,-2,-3,2,-5,-1,0
1523179073729923,-1,1,-2,-1,-5,-2,-3,-3
1523179073729923,-4,-2,0,-2,2,2,-5,-6
1523179073737401,1,0,0,0,-7,0,-2,0
1523179073737401,-1,0,-2,-3,1,-7,2,2
1523179073752515,0,0,1,1,3,4,-2,-2
1523179073752515,-3,-2,1,3,21,0,2,-6
1523179073761027,-1,0,-1,-3,6,5,2,3
1523179073761027,2,-1,-4,-3,-3,-6,-3,4
1523179073775437,1,0,1,-1,21,8,6,1
1523179073775437,-1,0,1,-1,-28,-4,1,-3
1523179073783103,-1,-2,0,0,-6,-1,-2,-3
1523179073783103,-3,-1,-2,0,13,-3,12,-6
1523179073798142,-3,-1,-3,0,5,-10,-8,0
1523179073798142,-1,-1,-1,-3,-10,2,-3,-3
1523179073799145,-1,-1,0,3,-5,0,-6,-1
1523179073799145,-1,1,-1,-2,25,-8,-6,1
1523179073812909,0,-5,1,-1,-48,-4,7,3
1523179073812909,-3,0,-2,-3,-5,-1,-4,-3
1523179073820208,-2,0,0,-1,-7,2,0,0
1523179073820208,0,-1,-1,-3,-1,-4,-5,-2
1523179073835245,-2,0,-1,-1,8,4,-4,-2
1523179073835245,1,-2,-2,-3,-11,-20,-14,1
1523179073843263,0,-3,-2,0,23,16,5,-3
1523179073843263,-2,-3,0,1,-10,-2,5,-2
1523179073858316,0,1,-1,0,-11,-14,-3,-6
1523179073858316,3,-1,-2,-1,-10,4,6,7
1523179073859318,-4,2,0,-2,0,-4,1,-11
1523179073859318,-2,-1,0,-2,-1,1,-3,0
1523179073872367,-3,-1,-1,-1,12,-5,-5,-7
1523179073872367,-3,-3,-1,-1,9,10,6,-2
1523179073880388,0,-3,-2,1,-13,-5,-2,7
1523179073880388,2,-2,-2,-1,2,3,-2,2
1523179073894424,5,2,1,-1,-2,4,2,26
1523179073894424,-2,1,1,-3,-2,-9,-9,-14
1523179073903492,-1,-2,-3,-2,3,-1,0,-3
1523179073903492,-4,-5,-3,0,-9,1,3,-13
1523179073918616,-1,-1,0,-1,11,12,-3,-4
1523179073918616,2,0,2,0,22,-2,0,3
1523179073918616,2,5,2,-1,-30,7,-4,-6
1523179073918616,-3,-8,-2,-2,-17,-17,-10,4
1523179073932525,-1,0,-2,-1,3,-4,8,-4
1523179073932525,-3,2,0,-3,-5,-4,-11,1
1523179073940547,-2,-4,-2,2,32,8,11,4
1523179073940547,4,2,3,3,0,7,0,7
1523179073955094,-1,-4,-4,-1,-8,13,8,0
1523179073955094,-4,-2,-2,-2,-17,-19,-6,-18
1523179073963618,0,0,-2,-4,-4,-12,-5,8
1523179073963618,2,1,0,1,-3,-2,-9,4
1523179073977820,-3,-3,0,-1,11,10,11,-9
1523179073977820,0,1,2,-1,-6,-15,1,5
1523179073978972,-1,-2,-1,0,-1,11,0,-2
1523179073978972,-1,-1,-3,-4,5,8,4,4
1523179073992858,-2,0,3,-2,-5,-16,-11,-7
1523179073992858,-2,-1,-3,-2,7,7,0,1
1523179073999883,-1,-1,1,0,-20,-20,0,-1
1523179073999883,-3,0,-1,-2,0,3,7,-5
1523179074015399,0,-1,1,3,3,6,-6,5
1523179074015399,2,0,1,0,-2,7,11,-2
1523179074022940,-2,-1,-3,-3,-2,-5,-10,-2
1523179074022940,-3,-5,-4,-1,-3,-4,-2,-10
1523179074037978,1,-2,0,-1,-1,-7,-4,2
1523179074037978,1,-1,-1,1,-6,0,6,1
1523179074038981,-1,0,-2,0,10,8,-5,-1
1523179074038981,0,-1,-4,-1,17,-8,-3,-5
1523179074052535,0,0,-2,0,-10,5,-2,3
1523179074052535,0,0,1,2,2,0,-2,3
1523179074060237,0,-3,-1,-1,17,8,0,-1
1523179074060237,-1,-1,1,0,-8,-3,-4,2
1523179074075213,-3,-3,-2,-2,0,-4,8,-14
1523179074075213,2,0,-3,-3,-7,-7,-17,14
1523179074083128,0,1,-3,0,4,8,9,-1
1523179074083128,-3,-1,4,-2,-8,3,-8,1
1523179074099168,-1,1,0,0,-10,-12,-6,4
1523179074099168,-4,-4,-3,-1,7,5,-2,-15
1523179074099168,-3,-1,-1,-3,-8,-12,-9,-1
1523179074099168,0,-1,-4,-3,-9,-2,1,14
1523179074112202,-4,0,-4,-2,2,-7,-6,-11
1523179074112202,-1,-3,-1,0,0,4,5,3
1523179074120310,-1,-3,1,1,-2,0,-2,-8
1523179074120310,-1,0,-1,-3,-3,-3,0,-3
1523179074135267,-1,-3,-2,-1,6,-3,-5,0
1523179074135267,1,1,-1,-3,-11,3,9,4
1523179074143285,-1,-1,0,-1,-4,-3,-5,-1
1523179074143285,-2,-1,-4,-4,-5,-6,5,-8
1523179074158339,-1,0,1,3,10,9,3,4
1523179074158339,-1,-3,0,-1,-7,-5,-16,-5
1523179074159341,3,1,0,-3,-16,-5,0,4
1523179074159341,-1,-2,-1,1,9,-7,-10,0
1523179074172387,1,-2,-3,-6,3,-1,0,-1
1523179074172387,-2,-1,0,0,1,1,1,-6
1523179074180411,0,-1,-1,2,-2,-4,2,10
1523179074180411,-2,-1,-1,1,3,-5,-3,-8
1523179074194449,-4,-1,-3,-4,-3,4,-4,4
1523179074194449,0,-1,2,6,4,5,15,-1
1523179074203471,-1,1,2,0,-2,7,-6,0
1523179074203471,-1,0,-1,-2,-6,-3,6,-3
1523179074218519,-3,-2,-3,-3,-6,-9,-5,-5
1523179074218519,2,-1,-2,-2,8,9,0,5
1523179074219172,-2,-3,-2,-2,-5,-12,0,-6
1523179074219172,-1,-3,0,1,-2,7,-2,1
1523179074232779,0,0,-1,-5,-4,-2,-4,3
1523179074232779,-4,-1,-4,0,3,-3,-2,-4
1523179074239567,1,-1,2,0,-25,-1,2,6
1523179074239567,0,1,3,3,22,0,-8,-5
1523179074255115,-1,-3,-1,0,2,-5,11,-7
1523179074255115,-1,0,-2,-3,-35,-1,-10,1
1523179074263639,1,-3,-3,1,30,5,6,9
1523179074263639,-1,0,1,-1,-12,-1,4,0
1523179074278465,-1,-1,1,1,0,1,-9,-4
1523179074278465,-1,0,1,-1,10,2,3,-6
1523179074278725,-3,-1,-3,-1,-4,-5,-2,-8
1523179074278725,0,-2,-4,-3,-6,-8,-6,2
1523179074292763,0,0,-3,-1,7,5,9,-5
1523179074292763,-1,-1,1,-2,6,1,-1,7
1523179074300248,-1,0,0,-1,4,-4,-5,0
1523179074300248,0,0,1,2,0,7,6,2
1523179074314821,-3,-2,-2,-2,-6,1,-7,-5
1523179074314821,-3,0,-1,-1,0,-10,-4,-4
1523179074322846,0,-2,-1,1,-7,-5,2,5
1523179074322846,2,2,1,0,-13,8,12,-5
1523179074337957,2,2,2,1,1,-4,-4,5
1523179074337957,-3,-2,0,-2,9,-4,2,1
1523179074338892,-4,-3,-2,-2,24,5,-5,-19
1523179074338892,0,1,-1,0,-2,-8,-12,9
1523179074352935,1,1,0,-1,-3,6,13,1
1523179074352935,-1,1,-1,1,8,1,0,9
1523179074360123,-4,-5,-1,-4,-3,5,-4,-7
1523179074360123,-2,-3,-2,-3,-1,-7,-5,3
1523179074375299,0,0,2,2,-13,-5,-6,-7
1523179074375299,0,0,-1,0,6,1,0,-1
1523179074383336,0,-3,-1,-2,-1,-1,-2,-2
1523179074383336,-3,-1,-4,0,14,15,9,2
1523179074398599,-2,-1,3,-1,1,-2,-1,5
1523179074398599,-2,-2,0,0,8,-6,2,-11
1523179074399405,1,1,1,1,-30,-1,-5,1
1523179074399405,-1,0,-1,-3,-2,-5,-4,-2
1523179074412444,-3,-3,-2,-3,-2,-6,-8,-1
1523179074412444,-2,-2,-3,-1,13,2,1,-4
1523179074420421,-3,-1,-1,-3,-5,-4,2,0
1523179074420421,-1,-1,-1,1,7,1,-6,-8
1523179074435479,0,0,-1,-3,-30,-3,0,1
1523179074435479,2,-3,0,-1,-2,-6,-6,14
1523179074443508,-1,-1,1,0,9,0,4,-4
1523179074443508,-3,-2,-1,-2,-6,6,-5,-3
1523179074458579,0,-2,-3,2,13,1,6,2
1523179074458579,-3,0,2,0,-8,15,6,-13
1523179074459079,-1,0,-2,-1,4,-7,11,2
1523179074459079,-1,-2,2,0,2,-3,-7,2
1523179074472627,-4,-2,-3,-2,4,-9,-11,-1
1523179074472627,1,-1,-2,-4,-22,-12,-6,-3
1523179074479647,-3,-2,-1,1,4,8,3,4
1523179074479647,-2,-1,0,-2,-2,3,4,-3
1523179074494731,0,-1,-2,-1,-15,-2,0,3
1523179074494731,-3,-3,1,-1,-11,-9,-3,-2
1523179074502708,0,0,0,-3,7,8,-5,-7
1523179074502708,0,-1,-2,-2,-10,-10,3,1
1523179074517796,0,-1,-2,-4,5,-2,-5,-1
1523179074517796,1,0,-2,0,-7,-6,2,-1
1523179074525769,-1,0,0,-1,-11,-3,-8,-2
1523179074525769,0,1,2,0,2,3,-2,-1
1523179074532788,-1,0,-1,0,5,-3,4,-4
1523179074532788,-1,-3,-2,-2,1,8,4,-4
1523179074539805,0,2,-1,-1,11,-2,3,-4
1523179074539805,1,-2,-1,2,-2,-9,-1,15
1523179074555354,1,-1,-2,0,2,3,0,-2
1523179074555354,-1,-1,-1,0,-7,-6,-7,-3
1523179074563572,-2,0,-1,0,19,5,0,-4
1523179074563572,-3,-2,-1,-3,-12,-1,-1,-7
1523179074576955,2,0,0,0,0,2,-2,-3
1523179074576955,-1,1,-1,-1,7,-1,-3,3
1523179074585979,0,-2,-2,-3,-23,-16,-1,1
1523179074585979,-1,-2,-2,-1,3,15,-3,-5
1523179074592662,-3,-3,1,2,6,1,12,9
1523179074592662,-3,-1,-3,-7,-11,-1,11,-6
1523179074600016,-3,0,-1,-1,0,-2,-14,0
1523179074600016,-1,1,-2,-1,11,-6,-2,-5
1523179074615055,-1,-2,-2,-4,-25,1,-1,1
1523179074615055,2,-1,-2,0,4,6,2,1
1523179074623480,-1,-1,-3,0,9,-8,3,2
1523179074623480,0,0,-1,0,-3,3,-1,-2
1523179074637918,-7,-2,0,2,10,-3,-5,-7
1523179074637918,-2,0,-2,0,-3,-1,2,-2
1523179074646250,5,0,-2,-1,15,4,1,3
1523179074646250,-5,-4,1,-1,-8,6,-1,-3
1523179074652198,3,1,-2,1,9,-8,0,-2
1523179074652198,-10,-1,-1,-2,2,6,2,1
1523179074660181,2,2,-1,-2,-18,1,-3,1
1523179074660181,0,-4,-2,-1,-4,-8,8,-1
1523179074675418,2,2,2,1,2,-2,-9,1
1523179074675418,2,-4,-1,-1,4,1,-4,3
1523179074683443,-6,-1,-1,-1,-1,8,0,-11
1523179074683443,1,2,0,-1,-16,-12,5,3
1523179074697481,0,-5,-3,-1,22,-10,-10,0
1523179074697481,1,-1,0,-2,-28,13,5,0
1523179074705542,-1,-1,2,-1,0,3,2,2
1523179074705542,0,-2,-3,-2,17,-4,0,-1
1523179074712561,0,0,-1,-2,-25,-8,-4,-2
1523179074712561,1,-1,-2,-1,0,-11,-15,-1
1523179074719598,-2,-1,-3,3,8,2,11,3
1523179074719598,-2,-2,0,-5,-1,1,3,-2
1523179074734576,-1,1,-1,1,-2,8,-1,-1
1523179074734576,0,-5,-1,0,4,2,-1,2
1523179074743626,0,-2,0,-3,-3,5,-5,-2
1523179074743626,-1,-1,-1,0,13,-9,-4,-6
1523179074757646,0,1,1,5,-5,5,4,2
1523179074757646,1,1,1,-2,-2,-12,-4,-5
1523179074765667,0,0,-2,-1,2,-2,-5,5
1523179074765667,-2,-6,-4,-2,-13,-8,-4,-13
1523179074780251,-4,-2,-4,-3,11,9,-2,-7
1523179074780251,0,2,2,1,10,18,13,4
1523179074781215,-1,-2,3,0,-13,-8,-3,2
1523179074781215,0,0,-1,-3,-1,5,-7,8
1523179074795254,-1,-1,0,0,-10,-4,5,-3
1523179074795254,1,0,-3,1,16,-4,-6,-2
1523179074803321,-1,-3,-2,-1,11,-6,-5,-5
1523179074803321,0,0,-2,-2,-12,-6,4,-3
1523179074817320,2,-1,0,-1,8,-2,-7,8
1523179074817320,-4,-2,-1,-1,-3,-1,6,-3
1523179074825334,-1,-4,-2,0,-5,7,10,-1
1523179074825334,2,1,4,1,4,6,-9,1
1523179074840371,-3,-1,-3,-3,-7,-5,-4,-5
1523179074840371,-2,-4,-1,-2,0,-7,-4,-2
1523179074841374,-1,-3,-1,-1,-12,-8,14,-5
1523179074841374,-2,-2,-2,2,6,4,-5,-3
1523179074855420,1,1,2,0,1,15,13,5
1523179074855420,0,-1,-1,1,-8,-6,0,-3
1523179074863443,-1,-1,-2,-1,1,-2,-7,5
1523179074863443,0,2,1,-1,-5,-9,-9,4
1523179074877314,1,1,1,-1,4,0,6,-5
1523179074877314,-2,2,-1,-2,-10,-1,-6,1
1523179074886088,-2,-9,-3,-2,11,-6,-4,-5
1523179074886088,-1,2,1,2,-37,3,1,1
1523179074901111,-5,0,-4,-3,-3,-7,-8,-7
1523179074901111,0,-3,-2,-1,-6,-3,2,1
1523179074901111,1,2,-1,0,-1,-5,-3,-1
1523179074901111,-2,-3,-1,0,15,-4,-6,0
1523179074915139,-1,-4,-1,-2,-4,3,9,0
1523179074915139,-1,-1,1,-1,1,3,-1,-6
1523179074923159,-1,1,1,0,2,0,-7,-1
1523179074923159,-2,-2,-3,-3,0,1,5,2
1523179074937212,1,0,-2,-2,5,-6,-11,0
1523179074937212,-1,-2,0,1,7,-6,2,1
1523179074946259,-1,0,0,-2,-3,-4,-5,-3
1523179074946259,-3,1,1,-2,-10,0,2,-4
1523179074960885,-1,-4,-4,-2,1,-3,-3,-3
1523179074960885,1,-1,-2,-3,-5,1,-6,0
1523179074961766,1,0,0,2,-7,-6,1,2
1523179074961766,-2,-1,-1,-1,8,5,7,-5
1523179074975211,-3,-1,0,-3,-1,2,-2,-2
1523179074975211,0,-2,-4,-3,11,-7,-7,6
1523179074983181,0,1,1,2,-15,2,5,2
1523179074983181,-2,1,-1,3,17,8,-5,-2
1523179074998075,-3,-2,0,-1,-6,3,6,-3
1523179074998075,-1,3,0,-1,-8,-8,-9,-3
1523179075005990,-3,-8,-3,-5,-2,3,0,-3
1523179075005990,1,0,-3,-2,4,-4,1,6
1523179075020969,-1,0,1,0,2,-6,-3,3
1523179075020969,-5,-3,-2,-2,-4,-2,-2,-10
1523179075021336,-1,1,-1,-1,-4,-1,1,-1
1523179075021336,2,-2,1,0,-3,-1,-3,-3
1523179075035010,2,-1,-1,-1,-7,-5,-4,3
1523179075035010,-6,-3,-2,-2,-3,-4,10,1
1523179075043029,-2,1,-1,-1,1,10,-11,-3
1523179075043029,0,-4,-2,0,-6,-9,4,-2
1523179075057617,1,2,0,-1,4,1,-10,0
1523179075057617,0,-2,1,4,3,6,2,0
1523179075066142,-2,-2,0,-1,-1,2,5,-2
1523179075066142,-1,2,-1,-2,-3,-6,9,2
1523179075080698,-1,-4,1,0,-7,-3,-14,4
1523179075080698,-3,-3,1,-1,-1,3,1,-11
1523179075081739,0,4,-2,-2,-5,0,-5,0
1523179075081739,1,-8,0,3,8,-3,6,2
1523179075094737,-1,-1,-3,2,-4,2,9,1
1523179075094737,-5,-2,-1,-4,-1,0,-5,-1
1523179075102847,0,1,-1,-1,12,-8,-8,-3
1523179075102847,-2,4,0,-1,-36,0,-2,-5
1523179075117841,0,-3,-1,-1,4,1,5,-3
1523179075117841,3,2,1,2,13,2,-4,6
1523179075125817,-1,-3,-2,-1,6,7,14,1
1523179075125817,1,-1,-2,-1,25,-1,-6,0
1523179075140859,2,-2,0,-1,3,1,5,0
1523179075140859,-3,-2,0,-5,-21,-7,-7,-4
1523179075140859,-2,-1,-2,0,14,-9,-6,-5
1523179075140859,0,1,1,0,8,12,9,5
1523179075154937,0,2,1,0,-22,-8,-6,3
1523179075154937,-1,-1,-3,-3,-1,-4,1,-1
1523179075163606,1,-2,-1,0,-1,-1,0,2
1523179075163606,-2,-1,-2,-3,-7,-2,-4,-6
1523179075177083,-4,-1,-3,-4,2,-5,-6,-9
1523179075177083,3,-1,0,3,-1,3,1,13
1523179075186026,0,-2,0,-2,-5,-2,-1,-4
1523179075186026,0,0,2,3,-2,-3,-8,0
1523179075201070,2,0,-1,-2,12,-1,16,-2
1523179075201070,-6,5,2,0,4,0,-1,-3
1523179075201070,0,-7,-2,-1,-23,-12,-2,3
1523179075201070,-3,-5,-2,2,24,26,-4,-8
1523179075215103,-1,1,-2,0,3,-7,9,-1
1523179075215103,4,0,-1,-3,-1,-2,-3,-1
1523179075223270,-4,2,1,2,2,2,-8,0
1523179075223270,-1,-4,-3,-3,-23,-19,-2,-5
1523179075237358,0,-1,-1,-1,-1,1,-5,8
1523179075237358,2,-1,-2,0,1,0,-5,-6
1523179075245182,-1,1,0,-3,0,7,1,-1
1523179075245182,0,0,-2,-2,-4,-8,-2,-7
1523179075260728,-3,0,-2,1,12,9,2,-5
1523179075260728,1,0,-1,-1,-16,-6,-1,1
1523179075268252,0,0,0,3,3,-11,-6,-5
1523179075268252,-2,-2,-4,-4,18,6,8,15
1523179075275272,-4,-4,1,-1,-1,1,7,-8
1523179075275272,0,-3,0,2,15,-7,-2,2
1523179075283294,-3,-1,-2,-3,-31,8,1,-7
1523179075283294,-1,4,0,-1,6,5,2,3
1523179075297565,1,-2,-2,-3,-13,-5,-8,1
1523179075297565,0,0,-3,-2,8,-5,4,-4
1523179075306354,-1,-3,1,1,10,4,0,-4
1523179075306354,-2,-3,-1,-1,-3,-8,-8,-3
1523179075320391,-4,0,-3,-1,-6,-3,-2,-5
1523179075320391,-1,-1,-1,1,-14,3,-5,-4
1523179075329418,2,3,-2,0,6,3,15,9
1523179075329418,0,1,-1,-3,1,-3,5,-1
1523179075335434,-2,-1,1,-2,-17,-7,-13,-2
1523179075335434,-2,-5,-2,0,18,4,-6,-1
1523179075343492,-3,0,-2,-4,-3,-4,-6,-6
1523179075343492,-1,-1,-2,-2,-4,-6,2,1
1523179075357498,1,1,-1,-3,9,1,-6,-2
1523179075357498,-6,-1,-2,0,-11,-4,3,-7
1523179075366524,5,-3,0,0,-3,3,-4,21
1523179075366524,-1,-1,0,1,0,-2,1,-9
1523179075380061,-4,0,-2,0,8,-5,-4,-3
1523179075380061,1,-2,-1,-3,-29,-1,-1,-1
1523179075389111,-2,3,1,0,6,-5,1,-4
1523179075389111,-3,-4,-3,0,-8,-2,-6,-4
1523179075395105,1,-4,-5,-4,2,2,2,3
1523179075395105,-1,-1,-4,1,22,2,1,-1
1523179075404125,-2,0,0,-1,-27,-5,0,-4
1523179075404125,-1,3,2,-3,-27,0,-6,2
1523179075417639,-3,0,-3,3,10,-1,9,-4
1523179075417639,-1,-5,0,0,5,1,-6,1
1523179075426393,0,1,0,0,-4,4,1,-2
1523179075426393,0,0,2,3,8,1,-6,0
1523179075440221,-1,-3,0,-2,-14,5,4,1
1523179075440221,0,0,-2,-1,-7,-3,3,-3
1523179075449255,-1,-4,-4,-3,9,-4,-10,-3
1523179075449255,-2,-2,-1,-1,-8,-8,-2,-4
1523179075455305,0,0,0,-1,2,1,3,1
1523179075455305,2,-3,-4,-1,-2,-1,0,5
1523179075464330,0,0,2,3,-4,-2,-5,0
1523179075464330,0,-1,-2,-2,11,7,7,-2
1523179075477080,-1,1,-2,1,-4,-10,-11,-3
1523179075477080,-1,-1,2,-3,-12,0,11,-6
1523179075486196,-2,2,-2,-3,0,-1,-4,-1
1523179075486196,-1,-6,0,0,7,-4,-4,6
1523179075500518,0,-2,-3,0,1,16,0,-2
1523179075500518,-1,0,0,-1,-14,-9,-6,2
1523179075509166,-1,-1,-4,-2,22,3,3,-6
1523179075509166,-1,1,0,1,-8,-12,-1,-4
1523179075515339,-1,-1,0,0,8,3,-15,1
1523179075515339,1,-1,0,-1,6,10,18,9
1523179075524205,-2,-1,0,0,-6,-6,1,-1
1523179075524205,-5,-1,-2,-2,21,7,-13,-10
1523179075537240,0,-2,0,-4,-22,-11,0,-6
1523179075537240,0,1,-3,1,13,-3,2,-2
1523179075546271,0,-2,-2,0,9,9,0,7
1523179075546271,2,3,0,-1,-3,0,6,3
1523179075560306,-5,-1,0,0,-11,-3,1,-1
1523179075560306,2,1,-1,0,-1,-3,-1,0
1523179075569331,-1,-2,-1,-1,-4,-3,2,-4
1523179075569331,-1,-1,-2,0,-3,-3,-6,4
1523179075575352,1,1,1,3,16,-3,0,0
1523179075575352,-5,0,-2,-5,-27,-1,-4,-6
1523179075584375,-2,-3,-2,4,13,-11,-1,-4
1523179075584375,1,1,1,-1,-12,3,0,6
1523179075597644,0,1,2,-1,7,12,5,4
1523179075597644,-1,0,-2,-1,-5,-4,-2,-7
1523179075606433,2,-5,0,-3,-6,-6,1,-3
1523179075606433,-4,-3,0,-3,-17,-13,-9,-2
1523179075619468,-2,-1,-3,0,8,2,6,0
1523179075619468,-2,-1,0,0,9,11,0,4
1523179075628728,-1,5,2,-3,-19,-4,2,-4
1523179075628728,-1,-1,-1,0,3,-13,1,0
1523179075634512,-1,-4,-1,1,-12,4,-4,5
1523179075634512,0,-2,-2,-1,11,-3,-8,0
1523179075643795,-3,-1,-2,-1,14,-3,-3,-7
1523179075643795,-2,-3,-3,-1,-12,0,17,-2
1523179075657637,2,4,3,3,2,5,-16,6
1523179075657637,0,0,-1,-1,9,5,4,1
1523179075666611,-2,-3,-3,-3,-11,3,0,2
1523179075666611,-3,-1,-2,-1,-4,-3,-17,-12
1523179075679645,-1,-3,-2,-1,-8,-9,8,-6
1523179075679645,2,-2,1,-1,3,-5,-2,7
1523179075688677,-4,-2,-2,-1,-17,1,-8,-6
1523179075688677,2,0,-3,-4,8,4,9,1
1523179075703747,-2,-1,-2,-2,-6,-10,-2,-7
1523179075703747,1,1,0,1,4,-2,-7,3
1523179075705711,-1,-3,-1,0,-17,2,-6,1
1523179075705711,-1,0,-3,0,9,1,-4,1
1523179075717786,-3,2,-2,-3,4,-3,11,-4
1523179075717786,-3,-3,1,1,-17,-8,-10,-1
1523179075726770,0,1,-1,-1,19,12,11,3
1523179075726770,-1,-1,1,0,-3,1,7,6
1523179075739847,-2,-6,-2,-2,3,1,-6,-13
1523179075739847,-3,-2,-4,-2,-7,2,-3,-5
1523179075749260,1,0,0,2,31,-11,-5,3
1523179075749260,1,1,1,-1,-24,5,-5,-6
1523179075763876,-4,-1,0,0,-3,-15,-12,-4
1523179075763876,0,-5,-3,-1,2,-1,17,11
1523179075765881,0,0,1,-1,2,29,-1,0
1523179075765881,1,1,-2,-1,-2,-6,-2,0
1523179075777917,1,-1,-1,-1,3,-1,-6,2
1523179075777917,-1,-1,-1,0,-8,-4,-1,-7
1523179075786193,-2,-2,-3,-2,-15,-16,-2,-4
1523179075786193,-3,0,-1,-2,22,2,1,0
1523179075799979,-3,-1,1,-2,-17,11,-2,6
1523179075799979,-1,-1,-3,1,31,2,0,-7
1523179075808997,-2,-4,-2,-6,-25,-19,-3,-5
1523179075808997,1,2,-1,1,-2,3,-4,0
1523179075824040,3,-8,-1,2,19,11,12,7
1523179075824040,-1,1,1,-2,-4,11,-3,0
1523179075825577,0,1,0,0,5,-6,-6,-1
1523179075825577,-3,-2,0,-2,-4,-6,-1,-3
1523179075837111,0,1,-2,-2,-9,-13,-9,-8
1523179075837111,1,0,0,-2,-8,6,6,5
1523179075846165,-2,-2,0,1,3,-3,-4,-10
1523179075846165,-2,-2,-2,1,-1,5,3,-1
1523179075860146,1,0,-1,0,4,7,1,10
1523179075860146,4,0,1,-2,-13,-3,2,13
1523179075869166,2,1,3,4,9,-9,-10,7
1523179075869166,-5,-3,-5,-1,4,7,-1,-10
1523179075883840,-6,0,-1,-1,-4,-6,4,-11
1523179075883840,-2,-1,-1,-3,-5,-2,1,-8
1523179075885718,4,2,0,0,22,10,6,7
1523179075885718,1,-1,-2,-1,-30,-8,-11,2
1523179075897858,-1,-2,-2,-1,5,-2,-2,-8
1523179075897858,-3,-4,-2,-5,-34,-17,-9,-13
1523179075906776,-1,0,-2,-2,18,6,13,9
1523179075906776,1,-1,3,0,7,6,11,1
1523179075919812,-1,0,-3,-1,1,-2,-4,4
1523179075919812,-4,-1,0,1,2,-3,-1,-3
1523179075928834,-4,-2,-4,-4,-20,4,-1,-6
1523179075928834,1,-1,1,0,10,-4,-10,4
1523179075943889,1,-1,-2,2,-6,-1,8,4
1523179075943889,0,-1,1,0,9,2,0,-5
1523179075945877,-3,-2,-5,-3,-11,-5,-4,-1
1523179075945877,0,-2,-2,-1,6,-1,-3,4
1523179075957917,-1,0,1,-3,-21,-8,2,-6
1523179075957917,-4,-1,-2,1,15,-11,-14,-12
1523179075966943,1,-1,-2,-2,-19,9,6,14
1523179075966943,4,2,3,3,18,13,10,6
1523179075980032,-1,-2,0,0,-45,-2,8,0
1523179075980032,-3,-1,-1,-2,10,3,-7,-6
1523179075989043,-3,-1,-2,-4,0,-14,-12,-12
1523179075989043,-1,-4,-3,-6,-21,-18,-5,4
1523179076019083,1,1,-1,-2,23,3,-4,1
1523179076019083,0,-1,0,1,-10,-8,8,0
1523179076020097,-2,-2,0,0,-6,2,-3,-5
1523179076020097,-2,-1,-3,-2,-1,0,-1,-7
1523179076041144,0,1,1,1,12,11,3,9
1523179076041144,0,-2,-2,0,-3,-1,-4,1
1523179076043147,0,-3,-1,-3,0,-7,0,-4
1523179076043147,0,0,0,-1,1,-8,-4,-2
1523179076079158,-1,2,-1,0,7,0,-2,-2
1523179076079158,0,0,3,1,2,7,9,5
1523179076079963,-2,-1,1,0,-4,3,5,-7
1523179076079963,-4,-4,-2,0,-4,-3,-6,-2
1523179076093962,0,-2,-1,3,21,2,1,2
1523179076093962,-2,-1,-3,-5,14,1,-4,0
1523179076095375,0,0,-1,-1,3,-6,5,-5
1523179076095375,-5,1,-1,-1,-2,-2,-11,-8
1523179076109000,2,0,0,-3,-1,-3,8,8
1523179076109000,0,-3,-4,-4,-6,-2,-8,3
1523179076110670,-4,-5,-4,-1,7,4,0,-2
1523179076110670,-2,2,0,2,-4,6,3,-2
1523179076122038,-6,-3,-3,-4,12,-10,-18,-10
1523179076122038,-1,-3,0,-1,-12,4,16,0
1523179076131303,-1,1,2,2,-6,-2,-9,4
1523179076131303,1,-3,-1,-2,-5,2,-6,1
1523179076146114,-2,0,-1,-1,3,-2,-10,0
1523179076146114,-6,0,-3,-3,-8,3,11,-16
1523179076148135,-1,-1,-2,0,-2,-1,-5,11
1523179076148135,1,-8,-2,0,-3,-10,2,4
1523179076160643,-1,-1,-5,-3,-10,5,-3,-6
1523179076160643,2,-1,-2,0,-3,-11,-17,1
1523179076161693,-3,2,0,-2,10,7,2,-7
1523179076161693,-1,0,-1,-1,1,0,5,2
1523179076175778,-1,-4,-2,-3,-6,-7,-3,-5
1523179076175778,-2,-1,-2,2,-10,-7,-9,-2
1523179076177785,1,1,-3,1,14,-5,-7,3
1523179076177785,0,0,-5,-1,-22,0,-1,3
1523179076190821,-4,-5,-1,-4,6,1,8,-9
1523179076190821,-3,-2,-2,-1,3,-1,-4,0
1523179076197892,-1,-3,-1,0,-9,4,-6,0
1523179076197892,-2,-3,-3,-1,9,-3,4,-3
1523179076214117,-4,-2,-3,-3,-10,-3,-1,-3
1523179076214117,2,1,0,2,11,15,-1,-3
1523179076215754,1,1,-2,-3,-20,-12,0,18
1523179076215754,-4,-8,-3,1,8,7,5,-10
1523179076227959,0,-3,-4,-4,-7,-8,-7,-6
1523179076227959,0,1,-2,2,-9,-7,-9,1
1523179076234940,-2,-2,-1,-3,1,5,1,-2
1523179076234940,-2,2,0,-3,-1,6,6,-12
1523179076251253,0,-1,0,3,14,9,4,4
1523179076251253,0,-4,-5,-1,-5,-7,-5,19
1523179076253312,2,0,-2,-3,-8,-8,-3,-14
1523179076253312,0,0,-1,2,13,-6,-7,-1
1523179076273841,-4,-5,-6,-2,-9,-3,7,-7
1523179076273841,-3,-1,-2,-1,4,-2,1,-7
1523179076275770,-3,-4,-3,1,-4,5,-4,-4
1523179076275770,1,-1,1,-1,24,-4,-9,6
1523179076287802,1,2,-3,-1,-28,-6,2,0
1523179076287802,0,-1,-3,-4,-17,9,10,1
1523179076294821,-1,-1,0,1,0,-8,-3,-1
1523179076294821,-4,-3,-4,-4,3,-3,-4,-9
1523179076311953,0,-2,-2,-1,6,10,5,-3
1523179076311953,0,-1,-1,-1,-6,-3,-18,5
1523179076312870,2,-1,0,-2,5,1,15,6
1523179076312870,1,3,-2,-2,11,6,2,4
1523179076333928,-2,2,2,2,-16,-6,-10,-7
1523179076333928,-5,-6,-4,-3,0,-4,7,-10
1523179076335281,-4,-4,-5,-2,-4,-4,-7,5
1523179076335281,-2,-3,0,2,1,1,-5,-9
1523179076347962,0,2,0,-1,-3,-1,-4,1
1523179076347962,-1,0,-2,-3,12,-10,0,-1
1523179076355334,-1,-3,2,2,-12,2,5,0
1523179076355334,-1,-2,-2,-4,-10,0,3,3
1523179076370945,-2,-3,-2,-2,4,-8,-10,5
1523179076370945,-4,0,0,0,8,2,-7,-18
1523179076372920,-3,-1,-5,-4,-10,-9,-2,2
1523179076372920,2,2,0,1,-10,5,-11,5
1523179076393977,-3,-2,-1,0,8,0,6,-5
1523179076393977,2,-2,-2,0,-2,-2,-4,17
1523179076395332,-2,-2,-3,-3,0,0,5,-15
1523179076395332,-2,-2,0,3,-6,-1,3,-3
1523179076408013,1,-2,-2,-2,-19,-12,-6,12
1523179076408013,-4,-3,-2,-1,11,5,-5,1
1523179076415046,-1,0,1,2,14,11,11,-5
1523179076415046,3,2,1,2,1,2,6,10
1523179076431258,0,1,2,-1,-14,-5,-3,-8
1523179076431258,3,4,3,4,-4,9,-2,-2
1523179076433085,1,-1,-1,-3,-1,-4,7,6
1523179076433085,3,4,1,0,0,-5,-8,-6
1523179076454268,2,1,0,-2,7,-3,-1,-2
1523179076454268,0,-3,1,-2,-4,1,6,-6
1523179076455648,1,1,2,-1,-2,-4,-12,-4
1523179076455648,-4,-3,-3,-2,13,1,5,10
1523179076468612,0,0,0,2,0,0,-4,-8
1523179076468612,-1,-1,-4,-4,23,4,7,16
1523179076475108,0,2,1,1,-12,0,-3,-4
1523179076475108,-3,-4,-1,-4,-10,-12,-1,-9
1523179076491375,-1,-2,-1,-2,6,4,-6,3
1523179076491375,-1,-1,-2,-5,-6,-7,4,2
1523179076493156,-1,0,0,2,3,4,1,-3
1523179076493156,-1,0,0,-1,-5,-2,-1,-2
1523179076514303,-1,-1,-1,0,5,-4,-3,-2
1523179076514303,-1,-1,0,1,-8,-3,0,-4
1523179076515215,-2,-3,-1,-1,14,-2,0,5
1523179076515215,-1,1,1,-2,-20,-1,-5,-8
1523179076527731,0,0,-1,-3,2,3,3,6
1523179076527731,1,3,5,6,16,10,8,1
1523179076536831,2,0,-3,-3,-15,-1,-11,-12
1523179076536831,-2,-3,-2,0,-1,0,8,16
1523179076551333,-2,0,-1,-3,3,-17,-5,-4
1523179076551333,-3,-2,-3,0,-25,-1,-3,-6
1523179076553315,-3,-3,-3,-3,-14,4,-7,-6
1523179076553315,-1,-1,1,3,-2,-4,0,-18
1523179076573883,0,-2,1,-1,-9,5,0,11
1523179076573883,0,0,0,0,16,3,-1,-3
1523179076575889,-2,1,1,0,-9,-3,2,-2
1523179076575889,-4,0,-2,-3,1,-6,-5,-6
1523179076587825,0,-6,-3,3,6,-5,-1,1
1523179076587825,-1,-2,-1,-3,-15,-6,4,0
1523179076596169,0,0,0,1,41,11,0,0
1523179076596169,-1,-1,0,-3,-19,-4,-1,2
1523179076611217,1,4,4,1,11,18,11,0
1523179076611217,-1,-2,-2,-3,-3,-10,-8,-5
1523179076612988,-7,-3,-3,-2,-3,-10,-1,-6
1523179076612988,1,-1,-1,-3,3,-7,-8,5
1523179076634048,1,1,1,0,-7,10,5,-9
1523179076634048,5,0,-1,-1,6,8,-5,17
1523179076635116,4,1,1,1,-2,-7,9,3
1523179076635116,-1,-3,-3,-2,-2,-6,0,-5
1523179076647313,-3,-3,-4,-5,-8,-11,-8,-5
1523179076647313,-4,-4,0,6,2,-8,-6,-14
1523179076656650,-2,0,2,3,-10,1,2,0
1523179076656650,-2,1,-1,-1,2,2,1,15
1523179076671311,-1,-3,-3,-1,2,4,-11,-12
1523179076671311,-1,2,-1,-2,-5,-9,6,-1
1523179076673200,0,-2,-2,-5,-7,-12,-9,4
1523179076673200,0,-2,2,3,5,9,3,-2
1523179076694256,-1,0,2,1,-6,8,3,10
1523179076694256,-4,6,0,-2,-6,14,9,-9
1523179076695256,0,-10,1,-1,5,-2,0,3
1523179076695256,-2,-2,-4,-7,-5,-1,-4,-7
1523179076707331,3,3,-1,4,13,-11,-11,6
1523179076707331,-1,-3,2,-2,-2,5,13,-6
1523179076716318,-1,0,1,-2,-6,4,-7,-3
1523179076716318,1,0,2,0,5,-10,-5,10
1523179076731553,0,-4,-2,-3,-7,5,4,-2
1523179076731553,-2,-2,-1,-2,-7,-12,-7,-4
1523179076733361,-1,-2,-2,-2,1,-7,-6,-4
1523179076733361,-1,-2,3,1,-1,13,14,-1
1523179076753479,1,4,2,-2,-9,8,3,4
1523179076753479,2,-3,1,-2,-3,-7,-5,-3
1523179076755934,-1,-2,-4,-4,8,2,0,-3
1523179076755934,0,1,1,0,-4,-1,-6,-2
1523179076767456,-1,-1,-2,-4,-2,-1,8,1
1523179076767456,1,0,1,-2,-5,-10,0,13
1523179076776191,-5,-3,0,0,-3,3,-9,-18
1523179076776191,0,-1,-1,-3,-7,1,4,-2
1523179076791022,-1,0,0,2,1,-21,-11,-10
1523179076791022,1,0,-3,-3,12,11,13,8
1523179076793028,0,1,0,-1,-8,7,11,11
1523179076793028,0,1,3,1,2,-2,-4,-5
1523179076814084,-3,-2,2,0,3,-8,-9,-7
1523179076814084,-2,-3,1,-1,3,-11,-16,-9
1523179076815472,3,3,2,5,2,9,13,8
1523179076815472,1,-2,0,-2,2,4,4,-2
1523179076827161,0,-1,-1,0,3,-6,-1,1
1523179076827161,-1,-1,-2,-1,-9,-8,-12,-4
1523179076836143,-1,-3,-4,-1,14,2,7,-2
1523179076836143,-5,-4,-1,2,3,-1,-8,-4
1523179076851182,-1,1,-2,-2,-10,-9,-4,0
1523179076851182,0,-1,-1,3,-2,11,7,2
1523179076853188,-2,-4,-4,-2,-5,-5,-1,-1
1523179076853188,-2,-3,-5,-2,-3,-10,-7,-1
1523179076873689,-5,-3,-3,-4,3,6,6,-6
1523179076873689,-2,1,0,-1,-5,0,-7,1
1523179076875647,1,2,0,-2,-4,-3,-6,1
1523179076875647,-3,-5,-4,-1,-4,-2,0,-3
1523179076897884,-1,-1,-3,1,2,7,1,0
1523179076897884,-2,-5,-2,-1,0,-3,-4,-3
1523179076899715,-1,-1,1,2,-2,-7,-14,-3
1523179076899715,0,-1,-3,-3,-17,-3,3,7
1523179076902719,-1,-4,0,1,-6,-2,-7,3
1523179076902719,-1,-1,-2,5,41,9,-3,-6
1523179076909738,-2,-1,-4,-3,-8,-10,2,2
1523179076909738,-4,-3,-5,-2,-7,-1,7,-12
1523179076926518,0,-1,-1,-1,3,19,-1,3
1523179076926518,-3,-2,-1,2,-8,0,-4,-8
1523179076927807,0,0,-3,-1,-1,-3,-10,12
1523179076927807,3,0,-5,-1,3,-5,-10,-12
1523179076939817,-3,-2,-5,-3,3,-7,16,12
1523179076939817,-2,-3,-4,-4,0,-3,-2,-6
1523179076948848,-3,-2,-1,-1,-14,0,-1,-2
1523179076948848,0,0,0,-4,2,-1,-6,-1
1523179076963437,0,-3,-2,0,-2,1,-6,-1
1523179076963437,-1,0,-2,-2,-7,-5,5,-3
1523179076969954,-1,0,1,1,0,0,-1,-5
1523179076969954,-1,5,-1,2,18,6,1,1
1523179076985823,-1,-7,0,-4,-7,-5,-8,-1
1523179076985823,0,-1,-6,-4,-16,-7,0,14
1523179076988276,-3,2,-2,-2,16,2,5,-8
1523179076988276,-2,-2,-2,-2,-6,-6,-5,-5
1523179076999862,-2,-1,-1,3,7,2,5,-5
1523179076999862,-1,-2,1,-3,-8,9,-5,-2
1523179077009358,-1,-2,-1,-2,-2,-9,-6,-2
1523179077009358,0,-1,-2,2,2,-7,-9,4
1523179077022923,-4,-1,-3,-4,4,6,9,-8
1523179077022923,4,1,3,4,-9,-2,23,7
1523179077029944,4,1,1,-1,-3,6,2,4
1523179077029944,-1,-3,-1,-3,-5,3,-3,4
1523179077045981,-2,-2,-1,-1,4,-16,-12,-11
1523179077045981,-6,-3,-4,-3,1,-1,-9,-14
1523179077048185,1,1,-1,1,-5,-1,9,4
1523179077048185,4,1,0,1,-1,0,-10,0
1523179077060028,-3,-2,-1,-2,-7,-6,-1,-5
1523179077060028,-4,-4,-3,-1,3,-7,-9,-15
1523179077069049,3,-2,-2,-2,7,6,-7,16
1523179077069049,0,0,3,3,0,9,20,10
1523179077083095,1,2,0,-2,-7,4,5,2
1523179077083095,-2,0,-1,-3,-4,-7,-17,-3
1523179077090112,-3,-5,-4,2,0,-1,15,-11
1523179077090112,-1,3,-1,-1,-14,-1,-4,-5
1523179077106156,1,-4,1,2,-2,1,-2,6
1523179077106156,-2,-1,-3,-4,15,0,0,2
1523179077108162,-6,-1,-3,-2,-8,-7,-12,-9
1523179077108162,-2,-5,-2,-4,5,-7,-2,6
1523179077120191,-3,0,1,0,-5,-1,7,-16
1523179077120191,5,1,2,-2,-2,-1,-7,25
1523179077129217,5,0,1,1,6,-9,-8,1
1523179077129217,-3,0,1,-1,1,14,13,-3
1523179077143253,0,-1,-4,1,13,30,-1,0
1523179077143253,-6,-6,-3,-5,-6,-8,-5,-11
1523179077150275,-1,0,-1,-2,-2,-7,0,-4
1523179077150275,-3,-3,-2,-4,-18,-17,-7,-4
1523179077166386,0,0,-2,-1,-4,-11,-8,-4
1523179077166386,0,3,2,2,-6,2,5,-3
1523179077168324,0,-1,-1,1,-1,3,1,7
1523179077168324,0,-3,-2,-3,9,-3,-5,-4
1523179077179964,-7,-1,-1,-2,4,-7,-4,1
1523179077179964,4,-1,-1,-1,-1,0,9,1
1523179077189127,-1,-2,-2,-3,-2,2,-9,-8
1523179077189127,-1,1,0,-1,-6,-8,-8,0
1523179077203023,0,0,2,1,-3,4,9,9
1523179077203023,-2,-2,-1,0,0,4,-5,-5
1523179077210278,-2,-2,-1,0,10,18,7,-2
1523179077210278,-1,-1,0,1,-11,-1,-3,3
1523179077226322,1,1,-2,1,-2,-19,-7,0
1523179077226322,-3,-3,-2,-3,-3,-3,-1,-6
1523179077228091,-1,-1,-1,1,3,1,-1,-4
1523179077228091,1,0,-2,-3,5,9,-2,6
1523179077240291,0,0,-1,-1,19,-5,1,0
1523179077240291,1,3,1,2,-1,1,2,0
1523179077249151,-8,-6,-2,-5,-11,-8,3,-5
1523179077249151,0,-3,1,0,4,-3,-5,-5
1523179077263188,3,-1,-1,-3,-32,-7,19,6
1523179077263188,0,0,0,-1,11,15,1,3
1523179077270206,-3,2,2,-1,-2,3,-3,1
1523179077270206,-3,1,-3,-1,-21,-7,3,-10
1523179077285793,-1,-8,-6,-1,23,-2,-9,4
1523179077285793,0,0,-2,1,-1,-3,-7,-4
1523179077287977,0,1,2,-3,-11,0,-2,-2
1523179077287977,-2,-1,0,-2,-2,-3,14,0
1523179077299831,-2,2,4,0,-4,2,-15,-6
1523179077299831,-1,-2,-1,0,-14,-3,-4,1
1523179077308856,0,-3,-4,-2,6,-8,-4,0
1523179077308856,-1,0,0,0,12,2,-5,-5
1523179077322943,-1,0,0,-1,-2,2,15,-11
1523179077322943,0,-2,0,-2,-1,-4,-3,18
1523179077329909,0,0,-3,-2,-5,-5,-5,2
1523179077329909,-2,-2,-3,-3,-11,0,3,-13
1523179077346956,-1,-2,-1,2,8,-6,-6,3
1523179077346956,-5,0,0,0,8,18,-1,4
1523179077348238,3,0,0,0,-1,-3,4,-2
1523179077348238,-6,-3,0,-1,-2,-14,-14,-3
1523179077360494,0,1,-1,0,2,-1,2,-3
1523179077360494,1,-2,-4,-1,-4,2,7,3
1523179077369020,2,0,2,0,1,2,-6,6
1523179077369020,-2,-5,-1,1,8,1,7,-4
1523179077383610,-1,0,-3,-3,-12,-4,-11,-2
1523179077383610,0,1,-1,-1,2,-6,11,-3
1523179077389626,-1,-2,0,-2,-4,-5,-2,-4
1523179077389626,2,0,1,1,10,13,-5,3
1523179077406672,-4,0,-1,-5,-18,-6,-3,-2
1523179077406672,-1,-1,0,-3,-3,-11,-4,-9
1523179077407673,1,2,0,1,-3,-2,1,9
1523179077407673,3,0,-2,-3,-1,7,7,11
1523179077419762,-4,3,0,1,22,9,3,-3
1523179077419762,-1,-10,0,-3,-15,4,-9,-10
1523179077428730,-5,-5,-5,-3,-9,-12,-4,-10
1523179077428730,2,0,-2,0,2,7,1,11
1523179077443554,2,0,0,-1,-7,1,1,-1
1523179077443554,0,2,2,3,-3,-1,-6,-5
1523179077449966,-2,1,-2,-3,8,-2,1,1
1523179077449966,0,-2,-1,-1,-2,-3,0,0
1523179077465833,-3,-3,-1,-1,-3,-4,-13,-14
1523179077465833,0,-1,0,-2,-10,-15,-3,7
1523179077472051,5,-2,-1,-2,-8,-1,5,12
1523179077472051,-1,0,2,0,5,8,0,-7
1523179077480074,-2,0,1,-1,-5,0,-1,3
1523179077480074,-2,-1,-2,-1,0,-6,-4,-4
1523179077489097,-6,0,1,-1,-3,-7,-6,-13
1523179077489097,-4,-2,-2,-3,-1,-2,-2,-6
1523179077503134,4,-1,-1,1,13,4,9,17
1523179077503134,-2,0,-2,-4,-17,-2,1,-8
1523179077510388,0,1,0,0,-8,6,-3,2
1523179077510388,-2,-4,-1,0,2,-1,2,-6
1523179077525193,-2,-2,0,-2,-9,-5,-7,-1
1523179077525193,0,-1,-1,0,12,-4,0,3
1523179077532220,-3,-1,0,-1,4,1,11,-2
1523179077532220,0,1,1,3,4,-5,-7,-6
1523179077540233,2,2,0,0,-23,2,6,2
1523179077540233,-1,-1,-1,0,9,0,3,-1
1523179077549260,-1,-3,-1,1,-2,4,-4,-2
1523179077549260,-1,-2,-2,-2,1,-8,3,2
1523179077563298,0,-1,-1,-1,0,-2,-2,3
1523179077563298,-2,-1,1,-3,-4,0,6,-3
1523179077570316,-1,-2,2,1,3,7,1,-9
1523179077570316,2,4,1,0,-4,0,0,13
1523179077585860,-1,-6,-2,-2,-2,-4,-4,-3
1523179077585860,-1,-4,-3,0,-8,-8,-9,-3
1523179077592881,-6,-2,-3,-1,16,-8,-6,-9
1523179077592881,1,2,2,-1,-16,-8,-3,-1
1523179077609207,3,2,2,-1,9,7,4,8
1523179077609207,-1,-3,-1,-1,7,-7,-4,-9
1523179077610507,1,-3,-4,-4,-12,10,6,2
1523179077610507,1,1,2,-1,-1,3,11,7
1523179077623565,-1,1,2,0,2,-3,-5,-4
1523179077623565,-1,-2,-2,-1,2,-13,-13,0
1523179077629981,0,-2,-2,-3,-8,-8,4,-5
1523179077629981,-1,-2,-1,-2,8,-6,-8,3
1523179077646021,-1,-3,-4,-2,-10,3,6,-3
1523179077646021,-1,3,-1,0,2,12,-1,0
1523179077652038,-2,1,0,-1,4,-9,-18,-7
1523179077652038,-2,-3,-2,-1,-6,7,11,-3
1523179077669088,1,-2,0,1,2,-1,5,12
1523179077669088,-1,-2,1,-1,0,-1,0,-8
1523179077670802,1,5,1,-1,-7,-3,0,6
1523179077670802,-5,-9,-4,0,2,3,-3,-8
1523179077683035,-4,0,-3,0,-9,-5,-6,-12
1523179077683035,-2,0,-1,-4,0,5,6,1
1523179077690048,1,-2,0,1,6,-3,2,9
1523179077690048,0,1,-1,-1,5,-8,-15,-5
1523179077706043,-1,-3,0,-1,-1,0,-2,-2
1523179077706043,0,0,0,2,6,15,11,-3
1523179077712809,-1,-2,-5,-2,-13,7,-6,1
1523179077712809,-1,0,-1,2,-2,-1,2,0
1523179077728852,1,-3,-1,-3,-3,-7,-1,-4
1523179077728852,0,2,0,1,15,-1,-6,0
1523179077730667,-4,-1,0,1,-3,-2,1,5
1523179077730667,-3,-3,-3,-1,-6,0,5,-8
1523179077742654,-1,1,1,-1,-2,1,-4,2
1523179077742654,-1,-2,-2,-1,-5,-1,5,1
1523179077749674,-4,-3,1,1,2,1,1,-3
1523179077749674,0,0,0,-1,4,-1,-2,-4
1523179077765732,-1,0,-2,-2,6,-2,-4,1
1523179077765732,3,2,3,-1,-21,-7,-6,6
1523179077772284,-3,0,-2,-1,4,0,-4,-5
1523179077772284,0,0,-1,-1,-2,-5,9,9
1523179077788287,-4,0,0,0,0,-1,-13,-12
1523179077788287,0,0,-3,-2,-2,2,1,-2
1523179077790294,0,-5,-3,-1,1,0,0,4
1523179077790294,0,-1,0,-4,-2,-6,-3,-4
1523179077803329,-2,-1,0,-1,0,1,5,0
1523179077803329,-2,2,-1,0,2,-2,2,1
1523179077810570,-1,-2,1,0,-2,-1,1,-8
1523179077810570,-3,1,-1,-1,1,3,-2,-4
1523179077825608,1,-2,-2,0,-3,-2,5,9
1523179077825608,-2,-1,0,-1,-2,-4,-8,-9
1523179077832476,-2,-3,0,2,-1,-9,-1,-1
1523179077832476,-2,-1,-3,0,-1,0,-6,1
1523179077849249,2,4,0,0,-1,6,2,-3
1523179077849249,1,-1,1,-2,0,-3,-7,6
1523179077850523,0,0,-2,-2,1,4,7,-7
1523179077850523,-3,-2,0,-1,-12,-5,-10,-7
1523179077863494,-3,-2,-3,2,5,-4,2,1
1523179077863494,2,-3,-2,-1,-3,2,2,11
1523179077870093,-2,2,1,0,-5,-7,-8,-3
1523179077870093,0,0,0,-2,19,3,-3,-8
1523179077886065,-3,-4,-4,-2,-9,-5,1,-3
1523179077886065,-3,-2,-1,1,-8,-10,0,-7
1523179077892541,2,-1,-3,-2,-3,9,3,11
1523179077892541,4,1,0,0,-3,0,-1,7
1523179077909363,0,-1,2,0,-9,0,-9,2
1523179077909363,-1,-4,-1,-1,-7,-7,1,-10
1523179077910128,1,-1,0,-4,-10,3,-1,-1
1523179077910128,-2,-1,0,2,12,2,4,-2
1523179077923164,0,1,-3,-3,-1,-9,-2,-2
1523179077923164,-3,0,-4,-4,3,1,11,3
1523179077930191,-2,1,0,2,-11,-1,-4,0
1523179077930191,0,-7,-6,-3,-1,9,8,3
1523179077945787,-3,-3,-1,0,7,6,-5,-7
1523179077945787,0,0,-2,-1,-4,-4,5,2
1523179077952244,-1,1,-3,-2,0,-14,-4,-5
1523179077952244,0,1,-1,0,14,-2,-8,-2
1523179077968328,1,-2,0,0,2,9,5,0
1523179077968328,-1,-2,-1,-1,-1,5,5,3
1523179077976033,-2,-2,-2,-2,2,-3,-7,-10
1523179077976033,2,2,-1,-1,-8,-5,2,10
1523179077983054,-1,-1,-2,-3,-5,-3,-7,-1
1523179077983054,-3,-4,0,1,11,2,-3,-12
1523179077990070,0,-2,0,-1,1,-5,-2,4
1523179077990070,1,-1,-1,0,-9,0,-6,-2
1523179078006113,-2,-1,-2,-2,2,-5,8,-1
1523179078006113,4,1,0,-1,2,2,-9,-1
1523179078013131,-2,-1,-3,-2,4,1,6,19
1523179078013131,14,-1,0,0,-11,-9,-11,0
1523179078029421,-36,0,2,3,3,9,7,-58
1523179078029421,-2,-2,-3,-3,1,7,-1,39
1523179078030763,7,0,-1,-1,-1,-2,-2,7
1523179078030763,5,-1,-2,0,-2,-2,-2,7
1523179078043211,15,1,-1,-1,-1,0,3,39
1523179078043211,-18,-4,1,1,-4,-3,-6,-63
1523179078050261,-6,-1,-2,-2,5,-2,-8,5
1523179078050261,-5,0,-4,-3,-2,0,25,-1
1523179078065839,16,-1,-3,-3,-6,-15,-16,18
1523179078065839,-5,1,-2,-2,-6,10,5,-13
1523179078072319,2,-2,-1,-2,5,8,-11,7
1523179078072319,-4,0,2,0,0,1,4,-2
1523179078089189,-1,-2,-2,-2,-3,-6,-1,-2
1523179078089189,8,1,1,-2,-11,-11,-4,11
1523179078090389,-1,1,1,-2,1,-9,7,-17
1523179078090389,-10,0,-1,1,-9,0,-7,-4
1523179078102417,1,-2,-2,-2,-1,-6,-7,0
1523179078102417,0,-1,1,2,1,2,3,2
1523179078111401,-3,-2,-1,2,1,4,-3,-5
1523179078111401,-3,0,1,0,8,-5,0,1
1523179078125441,1,-1,0,-2,-5,4,-2,-3
1523179078125441,0,1,-3,-2,2,-10,-7,-7
1523179078132464,-3,-2,-3,-2,3,3,6,7
1523179078132464,0,-3,-1,-2,-7,-2,-6,-9
1523179078148642,3,-1,-1,-1,0,-7,1,11
1523179078148642,2,0,-1,1,6,6,7,0
1523179078150506,-1,3,0,-1,-5,4,-2,-12
1523179078150506,-4,0,-2,-2,-1,-2,-6,0
1523179078162545,-4,-2,-1,0,-5,-3,-1,-10
1523179078162545,0,-1,0,0,-2,-7,-6,5
1523179078171167,1,-1,0,-2,-3,-8,7,8
1523179078171167,-1,0,0,0,0,5,-3,-7
1523179078185185,0,0,2,3,1,2,5,-1
1523179078185185,2,2,-1,-2,1,10,0,15
1523179078192204,-2,-3,2,1,-11,1,2,-14
1523179078192204,-1,-2,-2,-5,10,-1,-7,-3
1523179078209396,-3,-6,-3,-3,-42,-16,-1,-9
1523179078209396,-1,-4,-3,0,14,4,-5,10
1523179078210252,2,3,-2,-3,0,-3,-8,-10
1523179078210252,-1,-1,1,1,-5,2,9,18
1523179078222283,0,-1,1,0,4,4,1,1
1523179078222283,2,-3,-2,-3,-8,-4,-1,-1
1523179078231366,-8,-1,-2,2,-2,-9,-6,-18
1523179078231366,-3,0,-2,-1,0,-6,-9,6
1523179078245345,3,2,-2,4,15,15,11,-8
1523179078245345,-3,0,0,0,-2,3,-1,4
1523179078252860,1,1,0,2,5,10,4,-5
1523179078252860,0,-9,0,0,-5,-17,-6,10
1523179078268911,-1,-2,1,-2,-1,-6,-13,4
1523179078268911,0,0,-2,-2,2,3,3,-4
1523179078270416,-2,0,2,1,-14,-8,1,-9
1523179078270416,-3,4,-2,-1,3,4,-5,-15
1523179078282455,0,-4,-3,-2,-2,-1,-4,7
1523179078282455,1,-2,-1,2,-3,-9,-4,2
1523179078291477,5,-1,2,-2,20,15,3,8
1523179078291477,-8,-3,-3,0,3,1,4,-19
1523179078305745,1,2,-1,-1,-1,-3,-5,2
1523179078305745,0,1,-1,-3,-4,-3,1,2
1523179078312572,-3,-3,-1,-1,-2,-2,5,2
1523179078312572,4,-1,1,-2,-2,-1,-5,1
1523179078328807,-2,4,2,1,6,1,-2,0
1523179078328807,-2,-2,-2,-3,-5,-8,4,-15
1523179078330883,-3,-7,-5,0,1,3,-5,1
1523179078330883,4,-1,0,1,-4,4,13,-4
1523179078342612,-1,1,-4,-3,3,3,-7,15
1523179078342612,4,3,4,2,0,5,-1,3
1523179078351635,-4,-1,1,-1,-2,-11,-12,0
1523179078351635,-5,-4,-3,-2,-6,0,-5,-15
1523179078365680,6,-1,-2,-1,-1,-1,5,-1
1523179078365680,-9,-3,0,-1,-1,-6,-4,-9
1523179078372701,3,0,-1,0,0,-5,5,8
1523179078372701,-4,1,0,0,-2,5,-2,5
1523179078387739,-2,-4,0,-2,-3,1,-9,-15
1523179078387739,2,0,-1,0,-4,3,0,15
1523179078394765,-2,-1,1,-3,-16,-8,7,-9
1523179078394765,-5,4,1,3,3,-2,-2,8
1523179078402781,-1,-5,0,-2,1,-2,-1,1
1523179078402781,-3,-4,-4,-2,12,8,-2,-7
1523179078411804,0,2,2,-2,-17,-8,-11,2
1523179078411804,1,-3,-4,-4,-12,-1,5,0
1523179078425842,-5,1,-3,-2,10,11,5,-4
1523179078425842,-1,-2,-1,-2,1,-9,-4,-8
1523179078432862,0,-3,0,3,1,2,-3,6
1523179078432862,-1,2,1,0,0,-8,-9,-4
1523179078447904,-2,-1,0,-1,-1,-3,0,-5
1523179078447904,1,0,-3,-1,-5,-6,9,15
1523179078454959,2,1,-1,-2,3,2,-4,-1
1523179078454959,1,0,0,0,1,8,-2,-1
1523179078462696,-4,-3,-1,-3,-2,-10,4,-7
1523179078462696,0,0,2,0,-8,5,0,-1
1523179078471657,-3,-1,-4,-1,15,1,2,-4
1523179078471657,0,-2,1,-2,-14,-7,-2,-1
1523179078485695,-2,-1,-3,-1,1,-1,4,2
1523179078485695,0,0,0,-1,-6,-9,-4,-3
1523179078492713,1,-1,0,1,6,5,-7,7
1523179078492713,1,-1,-2,-3,-1,-1,11,-2
1523179078508820,-2,-3,0,0,-3,-4,1,-13
1523179078508820,-6,-2,-1,2,6,5,-3,2
1523179078514777,1,-1,0,-2,-8,1,1,-5
1523179078514777,-1,-1,-1,-1,21,-2,-1,5
1523179078531822,3,1,0,-1,-2,-7,-10,17
1523179078531822,0,1,-1,0,2,-4,6,-16
1523179078532819,-2,-2,-4,-1,-1,2,-3,-5
1523179078532819,1,2,3,3,-7,2,-4,3
1523179078545854,-1,0,-3,-2,2,0,5,-12
1523179078545854,3,-3,-2,1,-1,-4,-10,7
1523179078552873,-7,-4,-3,-7,-6,5,5,-2
1523179078552873,1,-2,-1,1,1,-2,-4,-1
1523179078568462,1,1,4,3,4,5,0,11
1523179078568462,-2,1,-1,-2,-5,-6,-4,-5
1523179078574931,2,2,-1,-1,3,-4,-4,-1
1523179078574931,-3,-3,-4,-3,0,-1,2,3
1523179078591607,-10,-3,-2,-1,4,-5,0,-24
1523179078591607,3,-2,-2,-1,-12,-4,-1,7
1523179078593019,1,6,0,0,3,-5,4,11
1523179078593019,-2,-7,-1,-3,-18,1,-3,0
1523179078606014,3,-2,0,2,16,15,4,13
1523179078606014,-9,1,-3,-1,-3,-15,-7,-22
1523179078612264,-2,-3,-3,-3,-2,-2,-4,2
1523179078612264,-1,0,-1,4,-5,-7,-4,-8
1523179078628307,3,0,1,0,-1,2,3,8
1523179078628307,3,-3,1,-1,-3,3,-1,14
1523179078635130,-5,-1,1,0,7,2,0,-10
1523179078635130,-4,0,-2,-3,1,-9,0,-5
1523179078651135,-4,-2,1,1,-16,2,0,-9
1523179078651135,1,-1,-4,-2,4,10,0,1
1523179078653140,1,-2,-3,-3,-4,-6,-3,3
1523179078653140,-4,0,3,1,1,0,1,-12
1523179078666076,1,-2,-4,-3,-4,-5,-11,6
1523179078666076,-3,-2,0,-2,-3,-5,13,-4
1523179078672555,0,-1,-1,-1,-2,0,-4,-6
1523179078672555,1,0,-2,-2,3,3,6,4
1523179078688014,1,1,-1,-3,-1,-5,-5,2
1523179078688014,-1,-1,0,0,10,16,11,2
1523179078695034,-1,-3,-1,-1,-4,-2,-11,-3
1523179078695034,0,1,0,3,3,-8,-1,-3
1523179078711312,-3,1,0,1,-5,1,0,3
1523179078711312,-2,-2,-3,-4,-2,-10,-6,-4
1523179078713083,-2,-3,-2,-1,2,-2,3,-2
1523179078713083,0,-1,-4,-4,7,5,-8,3
1523179078725603,-6,-3,-3,-4,-11,-6,6,-9
1523179078725603,1,0,1,0,-7,8,-7,4
1523179078732136,-1,-2,0,2,1,-3,4,6
1523179078732136,3,1,0,-4,-3,-2,2,-3
1523179078748181,-1,-3,-1,0,-4,-6,-10,-5
1523179078748181,-3,-1,-2,0,1,5,-5,-13
1523179078755196,3,2,2,1,1,0,18,16
1523179078755196,0,-4,-3,-3,7,11,-11,5
1523179078771746,2,0,0,-1,-10,-9,12,8
1523179078771746,-5,0,1,-1,0,-9,-9,-10
1523179078772964,-3,-1,0,3,-1,-1,-8,-8
1523179078772964,-6,-3,-2,-3,6,3,2,-6
1523179078785998,1,0,-1,-4,-1,-5,-4,-2
1523179078785998,4,-1,-1,1,1,0,-1,8
1523179078792313,3,-2,-1,-2,0,2,2,-1
1523179078792313,-1,0,0,1,-6,-3,7,3
1523179078808292,-3,-1,-1,-2,-6,0,5,0
1523179078808292,1,-1,-1,3,9,-1,-8,-2
1523179078815080,-2,-2,-1,-1,-1,2,9,-9
1523179078815080,-1,-2,-2,-5,-7,-5,-16,2
1523179078831125,-2,-1,-1,2,-6,-10,-12,-6
1523179078831125,2,1,0,-3,3,-2,5,6
1523179078833124,-1,-1,-3,-2,2,6,9,-1
1523179078833124,-1,-2,-1,1,0,2,4,-5
1523179078845391,0,0,0,-3,8,1,-4,7
1523179078845391,-1,-2,-3,-3,-8,-2,-4,-3
1523179078852174,-1,-2,-1,0,-1,2,-2,5
1523179078852174,-6,0,-3,-6,-6,-8,2,-13
1523179078868222,-1,-2,-2,1,4,3,-4,-4
1523179078868222,-2,-1,-1,-1,4,-4,1,4
1523179078876034,-2,0,0,1,-3,-3,-7,-1
1523179078876034,5,1,-1,1,-3,4,8,11
1523179078891337,0,1,1,0,10,7,-2,-1
1523179078891337,-4,-2,0,-3,-10,1,3,2
1523179078893041,-1,-4,-2,1,-5,-10,-9,-6
1523179078893041,-3,0,0,1,-3,-1,3,-9
1523179078906126,-1,-1,0,0,0,-3,0,9
1523179078906126,-1,1,-2,-2,-5,-4,8,-4
1523179078912091,0,-2,-2,-2,-8,6,-1,-4
1523179078912091,0,0,0,3,12,-4,-16,2
1523179078928370,3,-4,-1,-3,0,3,8,1
1523179078928370,-2,1,1,-1,-5,-4,-4,-11
1523179078935198,-3,0,2,-2,10,-4,-4,1
1523179078935198,0,-1,-1,-3,-29,-11,-7,-1
1523179078951195,0,0,-4,0,2,5,-7,-11
1523179078951195,-1,1,1,1,9,2,-3,21
1523179078953269,-1,-1,-1,0,-12,-1,5,6
1523179078953269,1,0,-1,-1,8,17,9,-4
1523179078965741,-1,1,-2,-4,-1,-7,-5,2
1523179078965741,-1,-1,-2,1,-2,1,-4,-11
1523179078972101,-3,0,-1,0,-1,-15,-6,-5
1523179078972101,-1,-2,-2,-2,6,13,-4,4
1523179078988014,-1,0,-2,-2,-16,3,17,-2
1523179078988014,2,1,-3,-1,4,-3,0,0
1523179078995033,0,-3,0,-2,-1,3,2,1
1523179078995033,-3,-4,1,-2,-2,-12,-6,-10
1523179079011313,-3,1,0,3,1,3,-10,-5
1523179079011313,-1,0,4,-1,-13,-1,0,2
1523179079013212,-1,0,-3,-1,4,8,2,-2
1523179079013212,3,1,-2,-2,-3,0,4,8
1523179079025115,-2,-2,-2,0,4,-1,-2,-6
1523179079025115,-5,-3,-3,-2,1,-4,-11,5
1523179079034137,-1,-1,-1,0,-3,-6,7,-2
1523179079034137,1,0,-1,-2,-6,-4,-4,-2
1523179079048177,-2,-1,0,0,4,2,2,0
1523179079048177,0,-4,-1,0,5,-1,-7,-8
1523179079055194,1,-1,-1,-6,-6,-3,-11,1
1523179079055194,-3,1,-1,-1,3,-3,6,-3
1523179079071744,1,0,-2,-2,3,13,4,-7
1523179079071744,1,0,0,-2,-10,-6,-4,3
1523179079072764,-9,-2,-4,-2,-10,-8,-7,-10
1523179079072764,-1,-5,-1,0,-2,-7,4,1
1523179079085230,3,1,2,1,1,9,2,14
1523179079085230,1,-1,0,-1,-8,-3,3,5
1523179079093817,-5,-1,-2,-1,6,3,-2,-14
1523179079093817,-1,-2,-2,-2,2,-3,-4,0
1523179079107857,-3,-2,0,-3,-20,-14,-6,-6
1523179079107857,1,-2,-3,-2,8,-3,1,-2
1523179079114877,3,3,0,0,3,5,0,4
1523179079114877,-8,-3,0,0,-2,0,12,-1
1523179079130922,3,0,1,-1,10,5,-9,8
1523179079130922,-3,0,2,2,1,4,4,-17
1523179079133228,4,-3,-2,-4,3,-6,-9,11
1523179079133228,1,1,-1,1,-2,3,4,-13
1523179079154215,-3,-2,1,-2,4,-5,-6,4
1523179079154215,-1,-2,-3,-5,-5,5,12,2
1523179079155062,0,0,0,-1,-1,3,-3,5
1523179079155062,-6,0,0,-2,2,-7,-8,-9
1523179079168522,2,-1,-1,-2,-10,-7,-1,-3
1523179079168522,-4,-2,-4,-1,-11,-4,0,-12
1523179079174718,-1,0,0,-1,20,10,-8,2
1523179079174718,6,-1,0,-3,-5,-10,9,12
1523179079190763,-5,-1,-2,-2,11,1,10,-7
1523179079190763,-2,0,0,0,-3,-4,-1,3
1523179079192765,2,0,-1,1,-5,-2,1,-6
1523179079192765,3,-1,-3,-2,2,-1,-4,7
1523179079204868,-7,-5,-4,-2,-4,-1,-8,-11
1523179079204868,3,0,2,2,6,5,0,8
1523179079213826,-2,-2,-1,0,2,3,3,-3
1523179079213826,5,3,1,1,0,5,-6,6
1523179079227898,-4,-3,-2,-5,-5,-9,1,-10
1523179079227898,-3,1,-1,0,4,-2,-6,-13
1523179079235294,-1,-5,0,-2,-7,-6,-3,4
1523179079235294,0,-2,-1,0,0,4,-2,4
1523179079250920,4,3,2,1,-2,-4,1,-1
1523179079250920,2,0,-2,-3,-6,5,-2,6
1523179079252994,-1,0,-2,-2,7,-6,6,-8
1523179079252994,-1,-3,-1,1,1,0,-3,-1
1523179079264967,-3,-2,-3,0,0,0,9,3
1523179079264967,2,0,-1,-2,-3,1,-7,-4
1523179079273525,-1,1,0,1,16,-6,1,-2
1523179079273525,-2,-1,-2,-1,-4,-5,-11,-6
1523179079288566,-3,-1,-1,-1,1,1,-11,5
1523179079288566,-1,-2,0,-3,5,5,13,0
1523179079294817,-1,1,2,0,-6,4,-4,1
1523179079294817,1,0,-1,-3,-7,-6,-1,6
1523179079310669,-3,-4,0,-2,1,-7,-3,-10
1523179079310669,-3,0,-3,-3,6,-10,-8,-5
1523179079317693,-4,-2,-1,-1,-7,-7,-9,-6
1523179079317693,-3,-2,1,2,-2,13,21,1
1523179079324701,2,2,0,0,-3,-5,-1,1
1523179079324701,-1,-2,-1,1,1,0,-3,-1
1523179079333685,0,-1,-3,0,-5,5,12,7
1523179079333685,0,-1,0,-1,-3,1,-9,-2
1523179079347727,-6,-3,-2,-2,6,7,-2,-9
1523179079347727,-3,1,1,-3,-1,-3,2,-13
1523179079354741,6,1,-1,-1,-16,0,5,19
1523179079354741,-1,1,1,-1,-3,-10,-2,-1
1523179079370792,1,-3,-1,2,5,4,3,7
1523179079370792,-3,-2,-1,-2,-6,2,-18,-2
1523179079377846,-2,-2,-4,-1,-5,-13,-1,-10
1523179079377846,-1,-1,-2,-3,1,16,14,2
1523179079384867,-1,2,1,-1,-3,6,-1,-3
1523179079384867,-1,-1,-2,1,-5,-11,-5,4
1523179079393888,0,-3,-1,-1,8,6,-7,-1
1523179079393888,-2,-2,-1,1,-6,-6,-7,-7
1523179079407961,1,-1,-1,-3,-3,-7,-3,1
1523179079407961,6,-1,-2,-1,1,-7,1,17
1523179079414944,-11,-1,-1,-1,-3,7,10,-17
1523179079414944,-4,-3,-2,-4,7,0,-9,-12
1523179079430988,2,0,1,1,-2,3,-3,5
1523179079430988,-4,-2,-1,0,5,3,3,0
1523179079437005,1,-1,0,-2,-20,-14,-4,-3
1523179079437005,-4,-1,-2,1,4,0,2,-4
1523179079445024,0,2,-1,-1,3,-5,-10,2
1523179079445024,0,-3,0,1,-2,2,5,2
1523179079454048,-3,-1,-2,-1,4,1,5,-22
1523179079454048,-1,-2,-1,-2,-1,-3,-9,-17
1523179079468091,1,0,-4,-4,-8,-1,3,14
1523179079468091,4,-1,-1,-1,0,2,3,27
1523179079474615,0,-4,2,-1,1,-4,-3,0
1523179079474615,-7,1,0,1,-5,-3,-9,-12
1523179079490659,-2,-1,-4,-3,-3,-2,3,-12
1523179079490659,-2,0,0,-1,-2,-5,-3,-10
1523179079497679,-3,-3,-4,-5,-2,1,-4,6
1523179079497679,3,2,1,2,0,-7,7,16
1523179079513723,-4,-1,-3,-2,1,-4,-3,-13
1523179079513723,0,-4,-3,-3,1,2,-2,-3
1523179079515725,-4,0,1,-2,-22,-1,-11,-9
1523179079515725,2,-1,1,0,23,13,5,14
1523179079527755,5,-2,-1,-2,-7,-4,5,9
1523179079527755,-4,1,1,-1,-4,-1,5,-5
1523179079534775,3,1,0,-1,6,-3,-3,-5
1523179079534775,-2,-5,-3,-2,-6,-2,-8,-6
1523179079550816,-1,-2,0,2,1,7,1,0
1523179079550816,-1,1,-3,0,-3,-11,-3,-5
1523179079557843,2,0,-1,-2,10,7,-1,18
1523179079557843,9,1,-1,0,-6,4,5,9
1523179079573888,-12,-1,-2,-2,2,-2,6,-13
1523179079573888,-1,-2,-1,-3,-2,-6,-13,-6
1523179079575050,0,0,-4,1,-1,-8,-15,0
1523179079575050,2,1,2,2,2,12,21,2
1523179079588551,2,-2,1,0,4,14,-4,1
1523179079588551,-3,-2,-1,0,-2,-5,2,-7
1523179079595069,0,1,-2,-2,-10,-7,-7,-5
1523179079595069,2,0,-1,-1,16,-14,-10,11
1523179079609984,0,-2,-1,-2,-9,-4,0,-5
1523179079609984,-3,0,1,1,1,6,-1,-1
1523179079617275,1,-1,-1,1,-5,1,5,1
1523179079617275,-4,-1,0,0,-7,-3,-2,-28
1523179079633158,-3,-1,-2,-1,0,-2,0,-5
1523179079633158,0,-3,-1,-3,-2,3,-3,5
1523179079634047,-1,-3,0,-1,0,-6,-2,-3
1523179079634047,-1,2,2,3,6,1,-13,6
1523179079649088,2,-3,-2,0,5,10,16,5
1523179079649088,-1,0,-1,-4,-10,-7,-6,-5
1523179079655182,-1,-3,-4,1,1,-4,2,1
1523179079655182,-3,-1,-1,-3,-6,-7,-12,0
1523179079670159,1,1,1,3,18,-7,-1,4
1523179079670159,-3,1,0,2,-6,24,12,-5
1523179079677760,2,1,2,0,0,5,2,3
1523179079677760,-3,-4,-2,-2,0,-9,-12,-9
1523179079692794,1,-1,-3,-3,-8,-19,-6,11
1523179079692794,-3,-2,-3,-1,-2,2,8,-3
1523179079693893,-1,1,1,0,2,-1,-5,-3
1523179079693893,-2,-3,-4,-2,-16,-5,4,-1
1523179079708841,1,0,2,0,-1,4,5,-1
1523179079708841,0,-2,-2,0,3,-5,-5,7
1523179079714852,-3,-3,-2,-3,-4,-5,-2,-15
1523179079714852,1,2,-1,1,13,11,4,-1
1523179079729896,0,-2,-3,-2,-1,1,3,-4
1523179079729896,-1,-2,2,-1,-9,-11,-10,-7
1523179079737913,4,2,0,-4,0,0,9,9
1523179079737913,-6,-1,-1,-2,2,22,10,2
1523179079753483,4,0,3,0,-2,-10,-8,3
1523179079753483,-3,0,-5,0,4,-4,-5,-10
1523179079753956,-2,-3,-2,-1,-3,0,7,-1
1523179079753956,-3,0,-1,-3,-10,-18,-3,0
1523179079769003,-4,-1,-2,-2,-4,7,1,4
1523179079769003,2,-2,1,-1,3,-6,1,4
1523179079774576,-2,1,2,3,7,6,-2,-10
1523179079774576,0,1,1,-3,1,3,-4,0
1523179079789619,-2,-1,3,1,-13,-5,-4,-7
1523179079789619,1,-3,-1,0,2,3,6,1
1523179079798067,0,-1,1,-1,1,3,-2,5
1523179079798067,-1,-1,-1,-2,2,-2,2,-3
1523179079812677,-1,-2,-2,-3,-11,-7,-12,-6
1523179079812677,-2,1,-2,2,3,3,4,0
1523179079813983,0,-4,-1,2,-6,-2,11,8
1523179079813983,-2,-1,-1,-1,6,4,-16,-9
1523179079828721,3,2,-2,-1,0,-2,9,-3
1523179079828721,3,-2,0,-2,-21,1,-7,7
1523179079834779,-1,-1,-4,0,17,5,-6,-7
1523179079834779,0,1,-1,-1,-17,-23,-5,-2
1523179079849776,-2,-2,0,0,-4,3,-3,-2
1523179079849776,0,0,2,-1,12,23,8,3
1523179079857803,-1,-2,-2,0,6,3,14,4
1523179079857803,-2,-3,-2,-3,-18,-10,-3,2
1523179079873386,-5,-1,-2,0,4,-10,-6,-5
1523179079873386,3,0,2,2,-1,-9,-5,1
1523179079874354,-1,0,2,3,21,7,-7,3
1523179079874354,0,0,2,1,-2,1,6,-2
1523179079889396,2,-2,-2,-3,-4,-2,-5,2
1523179079889396,-7,-2,-3,-3,-1,-3,3,-11
1523179079894546,-2,-1,-3,-3,-14,-6,2,-1
1523179079894546,3,-2,-3,1,18,11,10,6
1523179079909451,0,-2,1,2,-2,-7,-12,-10
1523179079909451,1,-2,-1,-2,6,-7,-3,10
1523179079917516,-1,2,1,-3,-8,2,-5,-3
1523179079917516,-2,0,-1,0,-3,0,2,-1
1523179079933511,0,-1,1,-2,-1,1,-7,-4
1523179079933511,-2,-3,-3,-1,3,-7,-3,-8
1523179079933511,-2,0,-3,-3,-4,2,12,0
1523179079933511,-2,-3,0,-1,-2,1,-6,-1
1523179079948552,1,0,0,-2,6,-3,1,0
1523179079948552,1,0,0,-1,-3,-2,-8,6
1523179079954568,-1,-1,0,-1,-2,-5,-2,-3
1523179079954568,5,3,2,0,-6,1,-6,2
1523179079970122,-1,-1,-1,-1,7,14,4,4
1523179079970122,-7,-2,-2,-4,-4,1,7,-10
1523179079977184,-1,-1,-1,-3,-9,-10,-11,4
1523179079977184,-2,-1,3,-2,-1,-10,-1,-3
1523179079993226,-2,0,-2,0,-5,2,8,-3
1523179079993226,4,1,0,1,-2,-5,5,14
1523179079994232,0,-3,0,2,1,-3,-4,-9
1523179079994232,-1,-2,0,1,21,11,1,-4
1523179080009270,-9,0,-3,-3,2,-1,-3,-14
1523179080009270,2,1,-4,1,3,5,1,9
1523179080015285,1,-3,1,1,-15,-8,0,0
1523179080015285,-1,-5,-3,-4,-6,-9,-3,4
1523179080030425,1,-2,0,-1,0,2,9,1
1523179080030425,-7,0,0,-2,2,-2,-7,-11
1523179080037343,1,1,0,-2,7,5,-5,4
1523179080037343,0,-2,-2,-3,-14,-3,-4,-4
1523179080053405,-6,-2,-4,0,-1,-5,-4,1
1523179080053405,2,0,-1,-1,-15,2,-1,5
1523179080053715,1,-1,1,0,6,11,7,5
1523179080053715,-4,-2,0,-1,-6,0,-6,-4
1523179080068935,0,-1,0,0,-6,-4,1,-6
1523179080068935,1,-2,-2,0,1,-9,-2,-7
1523179080074956,6,4,-2,0,2,-3,-9,-3
1523179080074956,-5,1,0,-2,-3,-6,1,-2
1523179080089999,-16,-4,-4,-1,5,-1,-2,6
1523179080089999,12,0,0,2,-7,2,0,-12
1523179080097726,-17,-4,-1,-4,-10,-2,-5,-5
1523179080097726,21,-1,1,-1,-1,-1,3,4
1523179080113065,-27,-2,0,-1,-4,9,4,11
1523179080113065,-38,-5,-1,-3,3,-1,-8,-5
1523179080114157,11,1,1,2,10,1,8,-6
1523179080114157,-4,2,-3,-1,-10,-3,-11,-8
1523179080129116,19,-1,3,1,-9,-6,1,1
1523179080129116,13,2,1,2,5,2,11,19
1523179080135116,-8,1,-2,-2,-3,-2,-3,-5
1523179080135116,-6,-3,-2,1,-1,-5,-1,-1
1523179080150154,8,-2,-3,-2,35,17,-3,-3
1523179080150154,-1,2,2,-3,-46,-17,0,-9
1523179080157175,0,0,-1,0,5,-1,-1,2
1523179080157175,-1,-2,-1,0,11,-1,1,5
1523179080173457,5,-1,0,-4,-10,-11,-19,0
1523179080173457,-7,-3,0,-1,13,4,6,-18
1523179080173959,2,0,0,2,7,8,10,15
1523179080173959,1,2,-1,-1,-11,2,9,8
1523179080189004,-3,0,0,2,10,-2,7,-9
1523179080189004,0,-3,-2,2,11,1,-12,-4
1523179080195023,0,-3,-2,-3,-17,-14,-2,-4
1523179080195023,-3,-4,-1,-1,4,7,0,-6
1523179080210359,4,2,1,-2,-9,2,-4,1
1523179080210359,3,-1,-2,-2,1,-5,4,-4
1523179080217079,-2,-2,-1,-3,9,2,-11,-11
1523179080217079,-5,-3,-1,2,-15,-3,12,8
1523179080233163,2,-1,-2,0,1,3,-6,-1
1523179080233163,6,-1,-2,-2,0,7,-3,-3
1523179080234123,-1,-4,-2,-3,-5,-11,-10,0
1523179080234123,-2,1,-3,-5,5,-8,-12,0
1523179080249163,2,0,1,-1,-13,3,3,-3
1523179080249163,0,3,-1,-1,4,-1,4,2
1523179080255181,0,-2,-3,0,3,4,-4,-3
1523179080255181,-1,-3,-2,-1,-10,-8,-4,-4
1523179080270229,-1,-2,-4,-2,-2,-7,-9,7
1523179080270229,-1,-3,-2,-3,0,5,-2,-4
1523179080277488,1,1,2,0,-3,6,8,4
1523179080277488,-4,0,-1,-3,1,-7,-9,-5
1523179080292337,2,0,0,2,-12,-3,-1,-2
1523179080292337,1,-1,1,0,-9,-10,-11,3
1523179080300315,-2,-2,-2,-1,-5,-3,2,3
1523179080300315,-5,-3,-3,-2,5,8,11,-1
1523179080309338,1,-1,0,-3,3,-4,-3,-3
1523179080309338,1,0,-2,-2,5,-1,8,7
1523179080315356,0,0,-1,0,-5,-2,-9,-7
1523179080315356,-1,2,1,4,27,8,14,-3
1523179080330393,-2,-3,1,-3,-6,-4,5,-5
1523179080330393,0,-3,-2,-4,0,-1,-8,8
1523179080337412,1,-1,1,0,3,1,4,7
1523179080337412,-3,1,3,2,-7,-2,-10,-15
1523179080352453,0,-1,-2,0,-3,-12,-5,-2
1523179080352453,-4,1,1,1,-2,4,23,-6
1523179080360452,-3,0,-2,-3,-1,4,-11,2
1523179080360452,3,-2,-1,-4,-5,0,1,15
1523179080369239,-9,-4,-1,0,4,-3,-3,-20
1523179080369239,3,-1,0,-1,1,-3,-13,-4
1523179080375257,-5,0,-2,0,0,-2,7,10
1523179080375257,-1,-3,0,-2,-2,1,-2,-3
1523179080390299,3,2,2,-1,-1,-1,4,5
1523179080390299,-15,-2,-3,-3,-1,-4,-8,-7
1523179080397327,-1,-1,-2,-3,11,12,5,-11
1523179080397327,1,-1,-3,-1,-13,-4,-6,11
1523179080412360,2,-4,-4,-2,-3,-5,-1,3
1523179080412360,-1,-1,1,2,7,14,2,-1
1523179080420377,1,0,1,1,-12,-6,-3,0
1523179080420377,-4,-2,-3,-1,0,0,-7,-1
1523179080435450,0,3,-1,-1,-11,-7,7,-8
1523179080435450,8,1,-1,-1,-6,-3,-3,12
1523179080436421,-13,-5,-1,1,-7,-6,-8,-9
1523179080436421,2,-2,-3,-3,6,3,0,-7
1523179080449456,-2,0,-2,0,-3,3,0,-2
1523179080449456,-2,0,-2,0,10,-2,-3,1
1523179080457477,2,-1,-1,-1,-6,-7,4,0
1523179080457477,-2,-2,0,2,-3,-3,3,-6
1523179080472708,-3,-2,0,-1,7,10,-4,-1
1523179080472708,5,-1,-1,-2,-5,-4,3,9
1523179080479550,9,2,0,-3,1,2,-3,8
1523179080479550,-8,1,2,2,-4,-4,-2,-14
1523179080496041,-9,-2,1,1,-2,-7,-5,3
1523179080496041,6,-1,-1,0,-2,-2,5,-4
1523179080496724,-1,0,-1,-1,8,5,-4,1
1523179080496724,3,0,-2,-3,-12,2,-2,7
1523179080509624,1,-2,0,-2,-4,1,0,-7
1523179080509624,-5,-4,-1,0,0,-4,-8,-3
1523179080517647,-2,-2,-1,3,6,-5,0,-2
1523179080517647,0,0,-1,-2,-1,-4,-1,-12
1523179080532686,2,2,-2,4,8,11,2,12
1523179080532686,1,-1,-1,0,2,2,3,2
1523179080539705,-6,-1,0,-2,-4,-2,0,-1
1523179080539705,0,-1,3,3,2,2,2,7
1523179080555748,-2,-1,-1,-2,-7,-4,-5,-12
1523179080555748,-2,-4,-1,-1,-3,-4,-4,-7
1523179080556791,-3,-3,-1,-1,-1,-6,-5,-3
1523179080556791,-4,2,0,0,1,-9,-2,-7
1523179080570368,1,1,-1,-4,0,6,-1,-1
1523179080570368,-3,-2,-1,-2,-15,-3,-5,-7
1523179080577620,2,-1,0,-1,2,-2,10,31
1523179080577620,0,-1,-3,-1,4,1,-6,-3
1523179080592643,2,0,0,-2,5,11,0,2
1523179080592643,-4,1,1,1,4,2,-2,-14
1523179080599426,-2,-2,-3,-1,0,-8,-6,-15
1523179080599426,4,-1,-2,-1,-9,-7,-5,15
1523179080615515,-7,-1,-2,0,1,-4,11,4
1523179080615515,-3,-1,-1,-2,5,4,-6,-8
1523179080616583,4,0,-1,0,-11,-7,2,0
1523179080616583,-3,-4,0,-3,2,0,-1,-5
1523179080629738,-5,-1,-1,0,-1,-6,-7,-16
1523179080629738,1,-1,-1,2,5,12,7,33
1523179080637529,1,1,0,-2,-10,-3,-4,-7
1523179080637529,-2,-4,-2,0,29,11,3,-1
1523179080652567,3,-1,-1,-2,-23,-13,-12,5
1523179080652567,-4,0,0,-1,0,-16,-10,-13
1523179080660094,-1,-2,-4,-2,-5,0,7,-4
1523179080660094,0,1,-3,1,19,8,4,11
1523179080675252,-1,-2,1,-1,-9,1,2,7
1523179080675252,1,-4,-2,-1,-7,-8,-5,-2
1523179080676205,-4,0,1,-1,11,10,1,-12
1523179080676205,-4,-2,-1,0,-10,-4,-9,-10
1523179080690385,5,0,-1,1,7,0,8,6
1523179080690385,-9,0,-2,-2,-3,-6,-9,0
1523179080697289,-1,-1,1,2,3,4,1,-24
1523179080697289,1,0,0,-1,-11,-5,8,4
1523179080712551,3,0,-1,-1,9,-7,5,38
1523179080712551,1,-2,0,-2,5,14,1,-13
1523179080720320,-3,-2,-2,-1,1,-12,-4,-15
1523179080720320,-3,-2,0,-1,1,-2,2,18
1523179080735463,2,-1,1,-1,-12,-5,-8,-13
1523179080735463,2,1,-1,-1,-2,2,3,8
1523179080736391,-1,-1,-3,2,13,1,4,2
1523179080736391,-2,-1,-2,-2,-21,-2,0,-15
1523179080750399,-3,-4,-2,-2,10,1,-10,-8
1523179080750399,1,1,-1,-3,-2,-2,6,8
1523179080757416,-1,-1,-1,-2,-5,3,2,2
1523179080757416,1,-2,-1,-1,0,-7,-8,-3
1523179080772464,-1,-1,-2,-1,-3,11,2,2
1523179080772464,-4,1,-1,-2,-4,-4,6,-8
1523179080780169,-5,-5,-3,-1,-7,-3,-7,-18
1523179080780169,-3,-2,0,2,15,4,-3,-4
1523179080795815,6,0,-2,-2,-2,-5,1,39
1523179080795815,1,0,-1,0,6,-1,-1,-4
1523179080796208,-1,-2,0,0,1,7,-1,-1
1523179080796208,-9,-1,-1,0,-9,-4,-5,-7
1523179080810242,2,-2,-2,1,6,0,-3,-23
1523179080810242,-15,-4,-1,-3,-14,-5,4,-9
1523179080817261,8,2,-1,-2,3,-9,-3,21
1523179080817261,-7,-2,0,-1,-3,8,-4,-6
1523179080832354,0,-1,1,-1,5,1,20,3
1523179080832354,2,-2,-1,-2,-5,-4,-10,1
1523179080840324,-1,-1,-1,2,-6,5,2,0
1523179080840324,0,1,-1,0,-5,-11,-6,3
1523179080855363,-1,0,0,-1,-2,4,-3,-6
1523179080855363,1,0,0,-1,13,7,-3,2
1523179080856366,-2,0,0,-1,-7,-4,0,-1
1523179080856366,0,-1,0,-2,-7,-12,1,-1
1523179080869842,-4,-3,-2,1,30,12,1,-1
1523179080869842,4,-2,0,-2,-26,-6,-9,-3
1523179080877421,-3,0,0,0,2,2,2,7
1523179080877421,2,0,-1,-2,-3,-4,2,-8
1523179080892698,-9,-4,-4,-3,0,-5,2,-17
1523179080892698,4,1,1,5,13,5,-2,3
1523179080899480,4,1,-1,-2,-7,2,-1,15
1523179080899480,2,0,-3,-5,-7,-4,8,8
1523179080915522,0,-1,0,0,-2,-10,-12,-9
1523179080915522,0,0,-1,2,24,7,2,-7
1523179080916549,-6,-3,-1,-4,-6,-1,5,-24
1523179080916549,-7,-1,0,1,-2,2,-3,2
1523179080929565,4,-1,2,-1,-10,-20,-11,9
1523179080929565,1,-1,-4,-2,-8,2,12,10
1523179080937582,-2,-3,0,0,2,-3,-8,-2
1523179080937582,4,0,0,-4,1,6,0,-2
1523179080952625,-3,0,0,0,-4,4,5,-3
1523179080952625,-4,-2,-2,0,6,-4,2,-6
1523179080959642,1,0,-4,-1,5,4,1,3
1523179080959642,3,1,-2,-1,-6,-3,-6,1
1523179080975684,-2,-3,-2,-2,-8,-7,-5,3
1523179080975684,-2,-2,-1,-3,2,-3,3,-17
1523179080976922,-4,-2,-3,1,3,-7,7,4
1523179080976922,3,1,1,1,3,6,3,1
1523179080989723,0,-1,-3,-3,-6,3,-10,-22
1523179080989723,-6,-2,0,3,-4,-7,5,20
1523179080997742,4,0,-1,-2,-4,-4,0,21
1523179080997742,-6,-2,-1,0,0,-1,1,-7
1523179081012783,-6,-1,-1,-1,-7,0,-2,-28
1523179081012783,2,-2,-2,-3,-5,-4,-6,1
1523179081019992,-4,0,1,0,-14,-8,-10,-13
1523179081019992,4,-3,-3,-4,4,5,-1,17
1523179081035842,1,0,2,2,11,6,14,10
1523179081035842,-4,-1,-3,-1,5,11,-7,-12
1523179081036302,-1,0,2,-1,-4,1,1,-2
1523179081036302,-2,-3,-4,-1,-1,-8,-11,-5
1523179081049881,-4,-4,-3,-3,4,-6,-6,-4
1523179081049881,3,1,3,1,-25,-13,9,11
1523179081056939,0,0,-2,1,12,-3,-8,1
1523179081056939,-1,1,0,-1,-2,8,10,-4
1523179081071940,1,-1,1,3,19,7,-1,3
1523179081071940,0,-3,-3,-6,5,4,0,-3
1523179081079968,0,-1,0,1,-1,-3,-5,11
1523179081079968,-6,-2,-1,-3,-20,-3,1,-26
1523179081096012,0,-1,-1,2,6,-4,-1,25
1523179081096012,3,1,1,-1,-5,-6,-3,-2
1523179081096667,2,-1,-1,0,0,-5,0,-4
1523179081096667,0,-1,0,-3,2,11,-9,-3
1523179081110042,-2,0,-3,-2,-7,-3,11,-5
1523179081110042,-1,-1,-1,1,8,4,-8,-2
1523179081117626,-3,0,-3,-3,-2,-1,-2,2
1523179081117626,2,1,0,0,-3,-2,-4,2
1523179081132097,-2,0,0,0,-13,-5,-3,-10
1523179081132097,-5,-4,-3,-2,15,5,-2,5
1523179081140121,1,-3,-2,-3,-5,-5,-5,-5
1523179081140121,-2,-2,-2,-1,4,-6,-3,1
1523179081155158,-3,0,0,1,-6,1,1,-1
1523179081155158,0,-1,-2,-1,-5,-6,10,0
1523179081156305,-1,0,4,3,5,7,-9,-12
1523179081156305,4,-2,-1,-2,-14,-2,1,32
1523179081170200,-4,0,1,2,3,8,1,9
1523179081170200,-2,-2,0,-6,-12,-12,-10,-18
1523179081177237,-3,-2,-1,-1,-2,5,-1,-6
1523179081177237,0,0,1,-2,4,-7,-6,-9
1523179081192493,0,-1,0,1,-16,6,3,-2
1523179081192493,0,-1,-2,0,2,-1,5,4
1523179081200281,-1,1,-1,1,-1,-2,-3,1
1523179081200281,-8,0,0,5,11,1,3,-4
1523179081215319,-1,-3,-4,-5,-4,-5,-3,-4
1523179081215319,-1,2,-1,0,4,1,0,9
1523179081223576,-1,-1,1,0,-6,-2,-3,2
1523179081223576,2,-1,-1,1,-4,-7,3,0
1523179081230363,-1,-2,-2,-3,2,-9,-13,-5
1523179081230363,1,-2,-1,2,-1,9,11,1
1523179081237383,-3,-1,-2,-3,-3,-6,5,-1
1523179081237383,3,1,0,3,26,8,-2,18
1523179081252418,-4,-1,-1,-2,-13,-3,4,-5
1523179081252418,-4,-1,1,-1,8,6,-8,-17
1523179081259437,-1,0,-2,0,26,3,-5,22
1523179081259437,-1,-2,-1,-2,-8,-7,2,-17
1523179081274478,3,-1,0,-1,-7,11,-1,3
1523179081274478,-7,-3,-2,0,4,-7,-1,-5
1523179081283500,-5,-3,-2,-1,-6,-4,0,0
1523179081283500,4,-1,0,0,3,-4,-6,-1
1523179081289517,-2,0,2,-2,2,-9,-3,-3
1523179081289517,-2,0,0,-2,-19,6,-5,2
1523179081297542,1,-2,-1,-1,-4,-4,5,0
1523179081297542,-9,-1,-2,-2,-1,1,7,-26
1523179081312671,2,-1,-1,-1,-2,0,-1,10
1523179081312671,4,-2,-2,-1,3,0,-6,11
1523179081319597,2,1,1,-1,-6,1,1,-6
1523179081319597,-15,-3,-1,0,4,1,5,4
1523179081334638,1,0,2,-1,-17,-9,-12,-11
1523179081334638,0,-3,0,-5,2,7,-5,-4
1523179081343693,-1,-3,0,-1,0,0,-3,0
1523179081343693,6,0,0,-1,-6,7,-1,-4
1523179081349677,-2,-1,-3,-2,11,0,9,1
1523179081349677,1,-2,0,-1,-21,-7,-5,-1
1523179081357737,-3,0,0,0,-3,7,-13,-6
1523179081357737,-3,-3,-3,-1,8,4,8,-6
1523179081373741,-4,0,2,1,-20,-16,-5,-7
1523179081373741,2,0,-4,-1,29,2,4,4
1523179081379774,1,1,0,0,-10,-7,0,6
1523179081379774,-2,-1,2,-4,-26,-5,-4,-4
1523179081394797,2,-2,-1,3,45,11,1,8
1523179081394797,-4,-1,-1,-2,-11,-19,-10,-5
1523179081402818,-3,0,-2,2,-20,6,4,3
1523179081402818,-1,-2,-2,-2,2,-5,-5,2
1523179081418182,-1,-2,-3,-2,-6,5,4,-3
1523179081418182,-3,-1,-1,-1,-9,-6,-7,1
1523179081418861,-1,-2,-3,-4,11,0,-1,-7
1523179081418861,4,1,2,5,15,1,5,1
1523179081431919,-4,-3,-2,-2,-11,0,3,-6
1523179081431919,1,1,-1,-1,31,8,-3,-1
1523179081439917,2,3,2,-1,5,5,9,6
1523179081439917,2,-1,-1,0,-7,-6,-3,1
1523179081455026,-5,-3,-4,-3,-1,-5,-4,-7
1523179081455026,-10,0,0,0,-9,-6,-1,-4
1523179081462983,0,-2,-2,-4,2,5,10,-5
1523179081462983,3,-1,-2,-2,4,7,-9,6
1523179081478064,-10,-1,0,1,19,3,-2,1
1523179081478064,2,-1,0,0,-30,-12,-4,-3
1523179081479028,-3,-1,-3,-1,-2,-8,4,-9
1523179081479028,-1,-1,0,-3,3,-6,-5,4
1523179081493089,5,0,-2,1,0,10,0,11
1523179081493089,0,-1,-1,0,-6,-1,5,-3
1523179081500354,-5,0,0,-2,13,1,-15,-8
1523179081500354,0,0,0,1,-1,-6,8,-1
1523179081516136,2,1,-2,-1,-6,0,-1,18
1523179081516136,2,2,0,0,1,8,7,-10
1523179081523138,-3,-5,0,-1,-7,1,2,-3
1523179081523138,-1,-4,-5,-4,-10,-7,-11,-6
1523179081538208,-4,3,1,0,-15,-10,-9,-9
1523179081538208,-1,-1,-4,-1,8,-3,6,9
1523179081539182,2,-2,-1,-2,-2,9,-1,-3
1523179081539182,1,-2,-1,0,-7,-8,-8,10
1523179081552215,2,0,0,-1,3,12,6,6
1523179081552215,3,-1,3,2,0,5,3,7
1523179081560237,1,0,-1,-3,-10,-5,-5,-1
1523179081560237,-1,1,-3,-2,7,-2,7,-2
1523179081575278,2,1,2,2,13,7,-12,-8
1523179081575278,-5,-3,-3,-3,-2,-3,-6,-10
1523179081582294,-4,-1,0,0,-8,10,5,-3
1523179081582294,2,-1,0,-4,-19,1,6,6
1523179081598337,2,0,0,-1,15,-5,2,-3
1523179081598337,-3,-1,-2,-2,-20,-5,-8,-7
1523179081599340,-1,-4,-3,1,16,-3,-4,8
1523179081599340,1,-1,-1,-2,-3,8,-4,4
1523179081612520,-10,-3,0,-3,-14,-17,-2,-20
1523179081612520,0,-2,-1,0,15,10,2,7
1523179081619793,2,-2,-1,0,-2,-17,-5,4
1523179081619793,1,1,0,0,-12,-3,2,4
1523179081634434,0,-3,-4,-1,20,8,-1,7
1523179081634434,-2,0,2,-1,-5,-3,-2,-10
1523179081642690,0,0,-1,0,-5,-4,-2,-5
1523179081642690,-6,-1,0,-1,6,17,7,-12
1523179081673773,-2,-2,-1,-1,-11,-1,-5,3
1523179081673773,-4,-5,-1,-2,-8,0,2,3
1523179081675544,-1,0,0,-3,6,10,7,-5
1523179081675544,-1,-1,1,-1,-17,-14,-7,-4
1523179081696600,-3,-2,-2,-2,-6,-11,-5,-7
1523179081696600,3,-4,-3,-1,1,-10,-11,14
1523179081697601,-2,-2,1,0,19,3,11,-12
1523179081697601,1,1,0,1,-25,14,-3,0
1523179081717655,-4,1,0,2,5,-3,0,0
1523179081717655,-3,-1,-3,-1,3,2,3,14
1523179081724714,1,1,0,2,0,-11,-21,1
1523179081724714,-1,-3,-2,-3,-1,-8,-1,-1
1523179081733741,-1,-1,0,-2,-5,6,7,4
1523179081733741,-5,-2,-2,-1,5,4,0,-14
1523179081735704,-1,-1,-1,1,-14,-11,-5,-1
1523179081735704,-3,-1,-2,-1,11,-5,6,-3
1523179081740717,2,-2,0,-2,-24,-9,-11,0
1523179081740717,-1,-2,0,2,11,5,-1,2
1523179081741954,-4,-2,-1,-3,-3,-3,3,-13
1523179081741954,-2,-1,-1,-1,8,0,-12,-6
1523179081754791,0,-3,-4,-4,0,-1,24,-3
1523179081754791,1,2,2,1,2,5,-9,14
1523179081762936,-1,1,1,-2,-12,-7,-2,2
1523179081762936,-4,-4,-2,0,30,-11,-2,-9
1523179081777813,1,-1,-1,-2,-13,5,-6,-3
1523179081777813,0,0,-2,-1,-5,14,11,-3
1523179081778819,-2,-2,0,-1,-8,-6,-3,5
1523179081778819,-2,0,0,0,23,8,-7,3
1523179081792856,-3,2,1,-1,-22,-13,2,-16
1523179081792856,1,-2,-2,-2,-11,-12,-4,-5
1523179081799920,-1,-1,-3,-2,16,5,11,14
1523179081799920,-2,2,2,-1,-16,-5,0,-14
1523179081814915,-1,0,0,2,7,6,-6,4
1523179081814915,2,-2,-3,-3,-3,-3,10,-6
1523179081821949,-4,-4,-4,-2,-7,10,-4,-5
1523179081821949,3,-1,0,2,-4,-6,-2,22
1523179081837977,2,1,1,0,5,-1,1,0
1523179081837977,-3,1,1,-2,1,-11,-7,-11
1523179081839020,0,1,-3,-1,-4,-1,1,-12
1523179081839020,3,-1,-3,0,2,11,6,20
1523179081852011,4,1,1,2,0,-7,-19,11
1523179081852011,-3,-2,-2,-1,18,0,11,-12
1523179081860034,-4,-2,-1,-4,-22,-5,-10,-11
1523179081860034,1,-1,-4,-3,-3,1,13,2
1523179081875073,0,-1,-3,-3,1,-1,3,4
1523179081875073,-2,-1,2,1,-2,-3,-10,3
1523179081882094,-3,0,-1,-2,2,-11,-4,-4
1523179081882094,0,0,0,-1,-7,1,1,-8
1523179081914177,0,-1,0,0,-2,7,6,-8
1523179081914177,5,0,-2,0,4,-1,-9,18
1523179081915180,-2,0,0,0,-11,8,12,-2
1523179081915180,-7,-2,-2,-4,0,-7,-7,-6
1523179081920857,1,-2,-3,-1,0,2,3,-4
1523179081920857,1,0,-2,0,-3,-5,-10,-5
1523179081921197,0,-2,-3,0,7,1,-7,8
1523179081921197,-3,-1,-2,-2,0,-2,-9,-13
1523179081935233,0,-1,-3,-3,3,-4,2,7
1523179081935233,0,2,-1,-2,-4,0,9,0
1523179081942491,2,-3,-1,1,-8,-3,-3,6
1523179081942491,-4,-3,-3,0,31,3,-2,-8
1523179081958294,-3,-2,-1,-1,-26,-8,-8,-3
1523179081958294,-2,0,1,0,8,9,10,-11
1523179081959298,10,-2,0,-1,4,0,-7,25
1523179081959298,-10,-1,-1,0,-6,-8,-8,-15
1523179081972331,3,1,2,3,19,4,-3,12
1523179081972331,-5,-1,-2,-2,-8,-8,9,-9
1523179081980355,-7,-2,-3,-3,-1,6,7,-14
1523179081980355,6,2,-1,-1,-5,3,-4,9
1523179081995399,-1,-1,-2,-3,9,-10,-13,-2
1523179081995399,-2,-1,-2,-2,-10,-1,6,-3
1523179082002727,1,0,0,-1,11,-2,-4,2
1523179082002727,1,-1,0,1,-12,-9,9,6
1523179082018454,-7,-2,-2,-2,0,6,4,-6
1523179082018454,-2,-4,-5,-4,2,-3,-14,-4
1523179082018746,0,2,0,0,16,4,0,3
1523179082018746,-3,-2,-1,-1,-22,-9,-2,-9
1523179082032492,-1,-2,-1,-2,-3,-12,-1,19
1523179082032492,-2,-2,0,-1,4,8,-4,-5
1523179082039612,0,-1,0,3,17,5,4,8
1523179082039612,-2,0,0,1,-6,2,-6,-6
1523179082054590,-2,-3,-2,-2,4,-3,1,-17
1523179082054590,-2,-3,-2,-2,0,0,-4,10
1523179082062574,-1,-1,0,-2,-3,-5,-4,-1
1523179082062574,0,-1,1,0,-3,-5,-5,5
1523179082077737,-3,-2,-2,-1,-1,-3,-5,-6
1523179082077737,-2,1,0,-1,-1,7,6,0
1523179082078619,-2,-1,-2,-2,-11,-3,0,-5
1523179082078619,-1,-3,-3,-3,-8,1,1,-2
1523179082092886,0,-2,0,-4,24,8,0,0
1523179082092886,-1,-1,0,3,0,-4,-2,2
1523179082099762,-1,-1,-3,-1,-6,-17,-6,6
1523179082099762,-5,-2,-4,-3,1,4,7,-10
1523179082115393,2,-2,0,2,5,7,-3,2
1523179082115393,-6,-2,-1,-2,-7,-6,7,-3
1523179082122971,2,2,1,1,-4,10,-5,4
1523179082122971,2,-2,-1,-2,9,-7,-6,0
1523179082137773,-2,-1,0,-3,-21,-9,2,-12
1523179082137773,-4,-1,-1,-1,-3,5,-5,0
1523179082145794,-3,-2,0,-1,7,-5,2,-6
1523179082145794,0,0,-1,0,-14,-11,-3,10
1523179082152811,2,0,-2,0,0,19,15,-2
1523179082152811,2,2,1,0,4,-1,-10,-2
1523179082159899,-1,-2,-4,-3,-18,-13,-11,-1
1523179082159899,-12,-2,1,1,7,14,8,-13
1523179082174908,3,0,0,2,23,2,3,4
1523179082174908,-1,-2,1,-1,-4,-9,-5,-4
1523179082181888,-3,-1,-1,-1,2,17,-4,-7
1523179082181888,5,0,-3,-1,1,-8,1,9
1523179082197583,-2,-1,-3,-1,-12,-9,4,4
1523179082197583,-3,-3,0,0,2,-3,-3,-3
1523179082205994,0,-2,0,0,0,-9,-5,-5
1523179082205994,5,1,1,1,-2,0,-1,-7
1523179082211980,-9,0,0,1,-3,7,7,-13
1523179082211980,9,-2,-2,-1,1,5,-10,24
1523179082220153,-5,0,3,3,-12,-8,9,-20
1523179082220153,2,1,-3,-2,7,4,-6,12
1523179082235031,0,-1,-2,-1,-12,-12,-8,4
1523179082235031,-1,0,-2,-2,-13,-8,6,-8
1523179082242285,-3,-4,-3,-1,24,4,1,16
1523179082242285,-6,-2,-1,1,-3,1,-12,-18
1523179082257089,1,1,0,0,-11,-5,2,1
1523179082257089,-3,-2,-2,-1,2,-3,-5,3
1523179082265208,2,1,0,0,-3,4,7,4
1523179082265208,1,-1,-2,-2,1,5,-5,-15
1523179082272128,-4,-2,0,-2,-4,-4,-1,5
1523179082272128,1,-1,-2,-2,-7,0,0,-1
1523179082280149,-3,-2,-1,-4,-9,-10,-1,-8
1523179082280149,-4,-2,-2,-3,5,1,-4,-4
1523179082295407,2,0,0,3,-1,2,3,20
1523179082295407,0,1,0,-1,8,3,5,-16
1523179082302207,-1,1,0,-2,-16,-11,-12,0
1523179082302207,-3,-2,-2,-2,1,2,13,-2
1523179082317248,2,-1,0,-1,3,1,-10,2
1523179082317248,-3,0,1,1,-6,-2,-2,-6
1523179082325271,0,0,-1,-1,-1,0,-5,-9
1523179082325271,0,-3,1,0,-1,-6,7,2
1523179082340345,1,0,-2,-3,-9,-1,2,26
1523179082340345,3,0,0,-2,3,-8,-12,-9
1523179082341616,-2,1,-1,1,-9,7,10,10
1523179082341616,2,1,0,-2,10,2,3,-11
1523179082355352,-3,-3,0,0,-6,-9,-11,-15
1523179082355352,-3,-4,-1,-2,1,13,9,2
1523179082362372,1,0,-1,-2,2,4,9,-6
1523179082362372,1,0,0,1,-10,-1,-2,14
1523179082377600,-2,1,-2,-1,1,-1,-1,-6
1523179082377600,-3,-3,-2,-2,2,-10,-9,-13
1523179082385682,9,-2,-2,-4,-5,6,4,20
1523179082385682,-16,-2,1,0,0,1,-6,0
1523179082400469,-1,-1,-2,-4,-7,-5,-4,-18
1523179082400469,5,0,0,2,13,4,14,10
1523179082401483,2,-3,-3,0,5,11,-7,10
1523179082401483,4,2,1,0,-5,-6,2,-9
1523179082414507,-5,-2,0,-2,2,3,-10,-6
1523179082414507,0,0,-1,0,-8,-9,-1,1
1523179082422530,-4,-1,-2,-2,3,-11,1,-17
1523179082422530,2,-1,-2,-2,-3,-2,-7,7
1523179082437659,-2,-3,1,1,1,5,2,-6
1523179082437659,0,-1,-1,-3,-9,5,0,2
1523179082445668,-4,-1,2,3,16,0,-3,-5
1523179082445668,-5,0,-3,-2,-20,5,5,-5
1523179082460650,6,0,-3,-1,2,-1,-3,3
1523179082460650,-8,-3,-2,-1,-3,-7,-7,3
1523179082461635,1,-1,-2,-1,-6,2,-5,-24
1523179082461635,5,-1,-1,-2,1,-9,2,28
1523179082498732,-2,-3,-3,-1,7,-3,-2,-6
1523179082498732,3,3,2,3,-17,6,8,5
1523179082500736,-6,0,-1,1,-2,-1,-2,-14
1523179082500736,0,-1,-1,2,19,2,4,-8
1523179082520791,-3,-2,1,-3,-6,1,0,-1
1523179082520791,-1,-1,-2,0,-2,-6,-6,-6
1523179082522795,-8,-3,-3,-3,-7,-8,-1,-7
1523179082522795,6,0,1,-2,-1,-1,-9,10
1523179082544231,-1,-1,-2,0,0,-2,6,4
1523179082544231,-3,-3,-2,-3,3,-3,-1,0
1523179082545856,-2,1,0,0,4,2,-2,-6
1523179082545856,3,0,-1,0,7,-1,0,-3
1523179082551871,-4,0,-1,-1,-10,11,8,2
1523179082551871,-7,-1,-1,0,7,3,1,-1
1523179082552876,1,-2,-1,-2,1,-6,-3,8
1523179082552876,2,0,1,-1,-8,0,-3,-5
1523179082557890,-6,-2,-2,1,1,-9,-7,-23
1523179082557890,4,-1,-2,0,1,1,1,17
1523179082565909,-5,2,2,-2,-7,-14,-7,-24
1523179082565909,-2,-3,-2,-2,-12,-10,3,5
1523179082580948,2,-1,-1,0,11,18,8,-7
1523179082580948,4,-1,-1,-3,-3,10,-8,15
1523179082581195,-1,-1,-2,-2,8,-6,1,2
1523179082581195,-3,0,1,2,-4,-3,-3,-19
1523179082595034,3,1,-1,-2,-5,-11,-10,12
1523179082595034,-3,-1,-2,-3,-1,-2,2,-13
1523179082602005,4,-1,-2,0,2,6,4,4
1523179082602005,-4,-1,-2,-3,-9,-8,2,14
1523179082617357,-6,0,-1,-3,2,-4,-1,-16
1523179082617357,2,1,2,2,23,11,-5,-4
1523179082625068,-1,-1,0,-1,-13,-3,-3,16
1523179082625068,0,-1,-2,0,1,0,1,-3
1523179082656148,3,-1,-2,-4,-16,-10,-7,16
1523179082656148,-13,-2,-3,-3,-6,-1,0,-26
1523179082658393,-1,-4,-1,2,-10,-1,5,0
1523179082658393,-1,1,2,0,10,-3,-9,7
1523179082678352,2,1,-1,1,6,-2,7,-1
1523179082678352,4,2,-1,-1,-3,1,8,11
1523179082680228,-2,-2,1,0,6,10,-1,4
1523179082680228,-5,-5,-1,0,2,-2,-4,-6
1523179082700267,1,-3,0,-1,-13,-9,-10,-2
1523179082700267,-10,-2,-1,-1,12,-10,-11,-23
1523179082709544,0,-3,-5,-6,-28,-6,4,11
1523179082709544,9,2,1,-1,1,7,-5,30
1523179082731478,-11,-2,-1,0,17,-2,-1,-16
1523179082731478,5,1,-1,0,7,0,1,2
1523179082732904,-4,-1,0,1,-1,-1,-5,-13
1523179082732904,-5,1,-2,0,-4,1,10,-11
1523179082752776,4,-1,-2,-1,-4,2,-1,11
1523179082752776,1,-2,-1,-1,-10,-8,-8,4
1523179082761546,-3,-1,0,0,10,0,4,-7
1523179082761546,7,-1,-2,-1,-7,-5,-11,8
1523179082783526,-12,0,0,1,-1,4,2,-24
1523179082783526,1,-2,-1,0,-5,-4,11,-10
1523179082785494,6,3,6,0,5,8,-2,34
1523179082785494,-5,-1,-2,-4,1,-8,-8,-8
1523179082806587,3,-3,0,-2,4,5,-1,-7
1523179082806587,-1,0,0,-1,-3,-8,-13,-7
1523179082809560,2,-1,-3,-2,0,-3,7,0
1523179082809560,-8,-2,-2,-2,5,10,3,4
1523179082827656,1,2,1,-2,2,4,-8,-5
1523179082827656,0,-1,-1,-3,-15,1,1,9
1523179082834624,0,0,1,2,19,-5,-13,5
1523179082834624,-3,0,0,4,13,1,4,-32
1523179082858922,1,0,0,0,-3,9,-2,31
1523179082858922,-2,-2,-2,-3,-5,-2,5,-16
1523179082860717,-4,0,-3,0,-4,-13,-2,-6
1523179082860717,4,-1,-2,-2,-7,8,6,32
1523179082880746,1,-2,0,1,3,-3,-1,0
1523179082880746,6,1,1,0,-6,-2,-6,9
1523179082882768,-14,-5,-2,-5,-3,2,-7,-33
1523179082882768,-4,0,-2,-4,-4,-6,0,-24
1523179082902805,7,2,-3,0,0,2,7,26
1523179082902805,0,-3,-2,0,-6,-3,-5,18
1523179082911840,4,-2,-2,1,0,-9,-11,1
1523179082911840,-5,-4,0,1,-6,5,18,-14
1523179082933941,-4,-3,-1,-3,9,6,-16,-8
1523179082933941,3,1,1,0,1,-3,-1,-9
1523179082934892,1,0,-3,-2,-4,12,16,17
1523179082934892,2,-3,-1,-1,20,-4,-20,8
1523179082962013,3,-3,-3,-1,-16,-17,-4,-13
1523179082962013,-6,-3,-1,-1,-6,-4,4,-1
1523179082970987,0,0,-3,-1,8,6,-4,8
1523179082970987,1,2,2,0,-2,9,5,-4
1523179082986027,-2,-1,-1,-1,-5,-9,-3,-12
1523179082986027,-1,-2,-4,0,-10,-6,-8,20
1523179082986138,-1,-1,0,-2,0,-7,3,-19
1523179082986138,-2,-2,-2,-2,-15,-6,-10,1
1523179083002070,3,1,0,-1,8,7,12,1
1523179083002070,-5,0,1,-2,-4,1,4,-15
1523179083004074,2,-3,-1,-4,-7,-3,-1,-7
1523179083004074,-9,-2,-2,1,6,9,-4,9
1523179083016163,-1,1,1,1,2,-1,6,2
1523179083016163,-1,-1,-1,-2,-22,-15,-3,-17
1523179083018233,5,1,-2,1,29,14,0,15
1523179083018233,6,-2,-2,-3,1,-7,-10,7
1523179083030143,-8,-1,0,0,-16,2,17,-4
1523179083030143,2,-1,-2,-1,13,3,-4,-8
1523179083039205,-1,-1,-1,-1,4,6,5,-7
1523179083039205,-4,-2,-2,1,-11,-7,-2,-2
1523179083054210,-6,-2,-3,0,5,-5,-4,9
1523179083054210,2,2,-1,1,2,-2,-6,0
1523179083055209,1,-3,-2,-2,-17,-9,-4,-3
1523179083055209,-2,-2,-2,-1,18,7,9,-5
1523179083068863,-3,-2,-1,-3,-10,-9,-13,-9
1523179083068863,-6,-4,-3,-2,3,6,6,-1
1523179083070305,-3,-1,-1,0,-5,-2,-8,17
1523179083070305,-1,-1,-3,-4,-4,-11,-12,-10
1523179083083287,3,-1,-2,0,6,0,-7,-10
1523179083083287,-1,-2,-3,-1,13,6,5,8
1523179083084287,-1,-1,-3,-2,-17,-9,7,-2
1523179083084287,-1,-1,-2,-1,-10,-4,-7,-14
1523179083097321,1,-2,-4,-1,0,-2,-1,2
1523179083097321,3,0,0,-1,-6,-3,-7,6
1523179083105345,0,0,-2,-1,-10,8,2,-13
1523179083105345,2,-1,-3,0,23,-1,2,7
1523179083121622,-2,-4,-5,-2,-6,0,-10,-3
1523179083121622,0,-3,-4,-3,2,4,1,5
1523179083122388,1,-1,-1,2,8,-5,5,-7
1523179083122388,-5,0,-4,-3,-16,-7,-9,7
1523179083136428,6,-3,-2,0,2,2,9,10
1523179083136428,-4,-4,-4,-1,12,3,-1,-7
1523179083137469,1,0,0,-1,-10,-3,-11,15
1523179083137469,-5,-2,1,0,-5,2,12,0
1523179083151466,-4,-1,-1,1,10,7,-4,-10
1523179083151466,2,1,2,0,-6,-2,1,6
1523179083152573,2,-1,-2,0,4,4,1,1
1523179083152573,7,3,1,-2,-14,-8,-1,3
1523179083165679,-2,0,1,-3,-13,-10,6,-4
1523179083165679,1,0,0,2,20,1,-10,3
1523179083172523,-6,-2,1,-1,2,5,5,-15
1523179083172523,9,2,2,-1,-16,13,8,25
1523179083188989,-10,-1,0,-3,7,1,-3,-12
1523179083188989,4,0,0,-4,-7,-9,3,-2
1523179083189567,-2,-1,-2,-4,-4,-16,-9,-13
1523179083189567,-1,0,1,1,3,8,6,9
1523179083203473,1,1,1,0,-8,-5,-1,-10
1523179083203473,0,0,2,1,3,9,-2,9
1523179083203604,1,0,-1,1,4,3,-4,1
1523179083203604,1,0,1,0,25,4,1,-6
1523179083226665,6,3,0,-3,-36,-7,14,16
1523179083226665,-6,-1,-2,-2,-3,0,1,-18
1523179083229928,1,1,3,-1,21,1,1,2
1523179083229928,0,-1,0,2,-24,5,7,-2
1523179083247721,-2,1,2,-1,8,-1,-7,6
1523179083247721,1,1,2,-2,-11,-8,7,3
1523179083256747,-2,1,3,1,-1,7,1,1
1523179083256747,0,1,2,-2,-3,-8,-10,2
1523179083279174,4,1,1,0,3,5,-2,-12
1523179083279174,-2,-2,-1,-2,-5,0,-3,10
1523179083280810,-2,-2,-1,2,0,-4,-4,2
1523179083280810,-5,-6,-1,-5,-3,-4,-3,-11
1523179083300886,-6,-3,-3,-2,4,-4,9,-8
1523179083300886,0,1,2,5,-7,5,-2,8
1523179083302869,3,0,1,-1,5,1,2,5
1523179083302869,-4,0,0,-1,-3,-4,-3,-11
1523179083323161,0,-3,-2,-2,12,-1,5,-3
1523179083323161,-2,0,-1,-1,-2,-7,0,0
1523179083331144,-6,-2,-1,-2,-14,-10,-2,4
1523179083331144,-3,1,0,-1,-4,-1,-7,-18
1523179083337963,1,0,-1,0,-7,-3,-4,31
1523179083337963,-3,-3,-2,-1,27,10,0,-22
1523179083338966,2,-1,-1,-1,-38,4,3,18
1523179083338966,-5,0,1,-1,9,-7,-9,-21
1523179083361031,-4,-1,-1,0,5,4,-10,-1
1523179083361031,1,0,-2,-2,-8,-4,3,16
1523179083363027,-3,-3,-3,0,14,5,3,-7
1523179083363027,3,-1,-1,0,-5,-6,0,1
1523179083384084,-3,-1,1,2,6,2,-5,-19
1523179083384084,-10,-1,-3,-2,-9,-5,-1,9
1523179083385523,-1,-1,-3,-2,12,10,6,-13
1523179083385523,3,-2,1,-2,-11,-7,4,28
1523179083414163,2,-1,-1,2,11,-1,-3,-9
1523179083414163,1,1,1,-1,-5,9,-8,-6
1523179083415167,-4,0,1,-1,0,-5,8,1
1523179083415167,4,-2,-4,0,-8,-2,0,8
1523179083436705,-9,-2,0,-1,8,0,-11,-15
1523179083436705,-2,-2,-4,-5,-3,-8,-7,-4
1523179083438230,-1,1,-1,-1,-3,-4,9,-4
1523179083438230,2,1,1,-1,4,2,-1,6
1523179083459290,-1,2,0,1,-2,4,-9,3
1523179083459290,0,-2,0,-2,11,-3,3,-10
1523179083460288,-5,-3,-2,-4,-35,-14,-11,-10
1523179083460288,-1,-1,-2,-3,3,-6,-4,-5
1523179083480339,1,-1,-2,-1,-4,-4,5,20
1523179083480339,3,2,1,2,5,8,-8,2
1523179083488650,-13,-1,-2,-2,-4,-6,-7,-24
1523179083488650,3,-2,0,2,13,5,-1,18
1523179083511486,-3,-4,-4,-6,-13,-12,-6,-12
1523179083511486,-3,1,-1,3,-3,0,10,-7
1523179083514430,10,0,0,1,23,15,12,25
1523179083514430,-4,-1,-1,-3,-7,5,-5,-23
1523179083534050,2,3,1,5,-5,-5,-6,17
1523179083534050,-3,-2,-2,-1,3,-10,4,-10
1523179083535488,-2,-1,-1,1,21,0,-7,-5
1523179083535488,-1,-1,-2,-3,-37,-5,11,9
1523179083555539,-2,-2,-1,-4,12,3,8,-9
1523179083555539,0,-3,-2,0,3,-6,-7,-6
1523179083562692,1,0,0,-1,4,-4,-18,3
1523179083562692,0,0,-2,-1,3,5,19,8
1523179083586624,-2,-2,-1,0,-13,-4,-5,-10
1523179083586624,-1,-2,-1,-1,-13,-13,-2,4
1523179083587834,0,0,-1,0,0,15,3,2
1523179083587834,-2,-1,-1,-2,12,-1,-8,-3
1523179083609685,5,2,1,3,-5,-4,1,5
1523179083609685,-14,-3,-4,-3,8,8,15,-5
1523179083611782,-2,-3,-2,-2,13,-10,-22,-1
1523179083611782,-1,1,4,2,7,15,4,-19
1523179083629735,2,0,0,-3,-29,-10,8,22
1523179083629735,3,-1,-1,-1,3,2,-7,0
1523179083638839,-2,0,-3,-2,-15,-8,-5,-3
1523179083638839,-6,-2,-3,-3,8,-5,-9,-6
1523179083660935,0,-2,-1,-2,8,7,18,-3
1523179083660935,2,1,3,1,-1,-1,-8,-2
1523179083662827,0,-2,1,-1,-19,1,0,-4
1523179083662827,-2,-2,-6,2,13,-3,-5,1
1523179083683881,-4,0,0,-1,7,16,4,2
1523179083683881,4,2,0,3,-7,3,4,9
1523179083684882,-4,-1,-3,0,-1,-7,-2,-12
1523179083684882,0,-1,-1,-1,5,-8,-1,-4
1523179083705939,0,-3,-3,-4,-9,-7,-13,-10
1523179083705939,-2,1,2,2,12,13,7,0
1523179083713961,-1,0,1,0,3,4,-4,0
1523179083713961,4,-1,-3,0,-12,-6,6,19
1523179083736019,-6,-2,-2,0,8,3,-2,-18
1523179083736019,0,-2,-2,-4,9,-6,-7,-6
1523179083738076,1,-1,0,0,-1,-5,1,0
1523179083738076,-4,-2,-3,-4,-1,-3,-10,8
1523179083759086,6,1,0,0,-6,-4,13,8
1523179083759086,2,-4,-4,-2,-3,8,6,2
1523179083760086,-2,2,1,-1,4,-4,-5,-13
1523179083760086,-4,-1,-1,-4,-12,-6,-1,-15
1523179083781226,3,-1,0,-1,18,9,0,12
1523179083781226,-2,1,2,-1,-21,-8,-11,-12
1523179083783145,7,-1,-4,-4,-8,-5,19,21
1523179083783145,-11,-3,2,3,-1,4,-6,-21
1523179083802196,-2,-2,-6,-2,4,-4,-9,-4
1523179083802196,3,-1,-3,0,18,-6,-1,2
1523179083811493,-1,-1,-2,0,-46,4,-7,-8
1523179083811493,-1,-1,0,-2,8,2,-2,10
1523179083834548,0,-2,1,-1,-10,-2,1,3
1523179083834548,3,0,-1,-1,9,-6,-11,0
1523179083837289,0,0,1,2,10,-2,8,6
1523179083837289,0,-2,-2,2,6,16,1,-9
1523179083856339,-4,-2,0,-3,-7,-13,-10,-12
1523179083856339,5,3,0,2,-7,6,5,29
1523179083857341,-11,-2,-2,-4,1,-9,-10,-39
1523179083857341,3,0,-1,-2,-4,-1,10,23
1523179083877467,0,-2,-2,0,6,10,21,13
1523179083877467,-1,-2,-3,-2,-12,-6,-9,-5
1523179083886606,0,-2,-1,-2,9,1,-3,17
1523179083886606,-4,-1,0,0,1,-6,1,-36
1523179083908477,-2,-3,-1,-2,10,2,-5,6
1523179083908477,1,-1,-1,-3,-36,-7,7,0
1523179083910490,-2,-2,-2,-1,6,-1,-2,4
1523179083910490,5,-1,-1,0,5,1,-1,-1
1523179083931539,-9,0,0,-2,-2,2,-8,-4
1523179083931539,-5,-2,-2,-2,-2,1,0,6
1523179083937556,-3,-1,-1,-3,-10,-11,-5,1
1523179083937556,3,-1,-1,0,3,-7,-2,1
1523179083952732,0,0,-2,1,3,0,-8,-14
1523179083952732,-3,-2,-3,-3,-3,4,-4,-8
1523179083961622,2,-1,-2,0,-3,-1,8,15
1523179083961622,0,-2,0,-2,3,11,7,1
1523179083983677,3,3,2,2,-5,4,5,5
1523179083983677,-10,-3,2,0,8,4,-12,-17
1523179083985684,2,-2,0,0,5,-5,-10,3
1523179083985684,-1,0,-2,0,-24,-11,-1,-13
1523179084006740,9,-1,-1,-1,-3,1,-2,18
1523179084006740,-6,-1,0,2,5,14,15,-4
1523179084007771,2,0,0,0,28,1,2,2
1523179084007771,-5,-3,-1,-3,-31,-7,-6,-15
1523179084027837,0,-3,-3,-2,-9,-4,-13,-10
1523179084027837,6,2,-1,1,0,-1,1,47
1523179084036852,1,0,1,0,0,1,5,-14
1523179084036852,-2,0,-4,-1,12,5,2,1
1523179084058881,-6,-1,0,2,-3,-3,2,-12
1523179084058881,-3,-4,-2,-1,-14,-7,-10,-7
1523179084060318,-4,-3,-2,1,12,2,5,-3
1523179084060318,3,2,0,-1,1,0,-9,11
1523179084081688,-7,-4,0,-4,-1,-13,-11,-2
1523179084081688,1,1,-3,0,0,-2,0,-19
1523179084083324,0,-4,-3,-3,-11,-3,-7,6
1523179084083324,-1,1,-2,0,4,-8,6,-9
1523179084102371,-7,0,1,-1,-11,15,19,2
1523179084102371,8,-1,0,-2,1,-8,-7,0
1523179084111159,-5,-1,0,1,1,-3,-13,5
1523179084111159,-1,-2,-3,-3,4,4,-8,0
1523179084134078,3,-2,0,0,-1,-10,-8,5
1523179084134078,-6,-1,-2,-3,-2,-4,3,-26
1523179084137086,4,1,-3,-1,-13,6,14,25
1523179084137086,-4,-2,1,-3,3,-12,-14,-8
1523179084155133,0,0,2,3,2,0,-8,-7
1523179084155133,-2,-5,-5,-2,13,-1,1,4
1523179084162167,0,0,-2,0,4,5,4,3
1523179084162167,2,1,0,-3,-5,6,10,12
1523179084186410,0,-3,-4,-3,-2,-11,-4,-14
1523179084186410,-9,-2,0,-1,5,-4,-4,-15
1523179084188327,4,-1,-2,-2,-6,0,-8,-4
1523179084188327,-11,-2,-1,0,6,8,11,-7
1523179084209279,5,0,-1,1,1,-2,0,10
1523179084209279,-1,-1,-1,-3,-5,-6,0,8
1523179084212316,-7,-4,-1,-1,-5,-7,-14,-22
1523179084212316,7,-2,-1,2,-2,-6,7,18
1523179084230466,1,2,0,0,13,19,-5,18
1523179084230466,-1,0,0,-2,-6,11,6,-8
1523179084237352,0,-2,-2,-3,-1,-3,-6,-1
1523179084237352,-3,-2,-1,-2,-4,-8,-13,1
1523179084261416,-1,-3,-2,-3,-3,-1,4,-15
1523179084261416,3,1,-1,3,0,-3,-5,7
1523179084262500,-3,-1,-2,-1,10,9,1,-8
1523179084262500,-12,-2,-1,-1,6,-1,5,-29
1523179084283473,0,0,-3,-2,-5,-5,1,33
1523179084283473,4,1,-1,1,15,3,1,-7
1523179084285479,1,-1,1,-3,-26,-14,-2,-5
1523179084285479,0,-2,-1,-2,5,0,-8,3
1523179084306643,-4,-1,0,-3,1,4,11,-8
1523179084306643,0,-1,-2,-3,-2,-9,-6,-1
1523179084312551,-2,0,-2,1,4,8,9,-4
1523179084312551,3,0,-1,0,5,6,-3,16
1523179084336617,-3,-1,0,-2,-8,-15,-7,-16
1523179084336617,2,-3,0,0,-6,2,7,8
1523179084337620,-5,0,0,-2,2,11,2,-22
1523179084337620,2,-1,-2,2,-4,-6,4,20
1523179084358684,-7,-3,-3,-1,12,5,-1,-16
1523179084358684,0,-1,0,-3,-17,-8,-4,2
1523179084360679,6,2,1,-1,-14,-13,6,12
1523179084360679,-1,0,0,4,30,21,-10,-4
1523179084380860,3,1,0,1,4,-2,-3,-6
1523179084380860,-1,-3,-2,-4,6,0,22,15
1523179084382738,-1,0,-1,0,-25,-2,-11,-6
1523179084382738,2,0,-2,-4,-12,-13,-3,-8
1523179084402835,1,-1,-1,-1,-5,-2,-5,3
1523179084402835,-3,-1,-1,-2,-7,0,-10,-10
1523179084412818,2,-3,-4,-2,6,-3,0,-2
1523179084412818,-4,-3,-2,1,2,5,1,11
1523179084433925,3,0,-1,-3,-2,4,-5,-3
1523179084433925,1,-1,0,-1,-5,0,5,5
1523179084435561,-7,0,1,-1,26,0,-6,-15
1523179084435561,2,-1,0,0,-13,-2,-4,-9
1523179084455932,3,-1,-3,0,-2,6,15,15
1523179084455932,3,0,0,-1,0,7,-1,-5
1523179084458000,1,1,0,0,9,3,-2,5
1523179084458000,-1,-1,1,-3,-17,-12,4,-9
1523179084477063,-4,-6,-5,-2,-5,-13,-9,-2
1523179084477063,-2,-1,-2,-3,-6,1,-5,9
1523179084486013,-5,-1,-1,2,0,9,-1,-7
1523179084486013,3,-1,-1,-3,-5,0,7,1
1523179084509076,-6,0,0,0,-8,-10,0,-1
1523179084509076,-6,-3,-2,-1,1,-3,-6,-19
1523179084510080,0,-1,-2,-3,-12,-7,-2,11
1523179084510080,3,-1,-3,1,12,10,-3,6
1523179084531132,1,-1,-1,-3,-10,-5,-2,4
1523179084531132,2,0,0,1,-2,-6,-9,2
1523179084537817,1,-1,0,-3,2,-7,-2,9
1523179084537817,-5,-1,1,1,5,4,7,-13
1523179084561345,-6,-2,-2,-3,7,3,-6,-16
1523179084561345,-1,1,0,-1,-14,-2,13,-4
1523179084563217,5,-2,-4,-3,-9,-14,-6,22
1523179084563217,2,1,-2,-1,16,9,7,3
1523179084583271,-1,-2,-3,-2,-18,1,-5,-7
1523179084583271,1,-1,-1,2,22,5,-1,-4
1523179084585276,2,-2,-2,-1,0,-1,4,-6
1523179084585276,-8,-1,0,-1,-8,-12,-4,-25
1523179084606334,4,0,-2,0,2,2,-2,11
1523179084606334,2,0,0,-2,2,-4,-4,0
1523179084608343,-3,-1,-1,-1,8,8,5,-2
1523179084608343,1,0,-1,0,-10,-4,-9,-3
1523179084628394,-2,0,0,1,18,1,6,6
1523179084628394,-4,-1,-1,-2,-2,-1,-8,6
1523179084636446,-3,0,2,0,4,-1,3,-13
1523179084636446,2,-2,-2,-5,-12,-8,-7,21
1523179084658911,-7,-1,2,3,2,13,6,-24
1523179084658911,3,1,0,1,-8,1,9,15
1523179084660480,-5,-1,-1,-1,6,-6,-6,-5
1523179084660480,-1,0,-1,-3,-27,-2,-4,9
1523179084681532,1,-1,0,-2,7,-7,-9,0
1523179084681532,1,-2,0,1,2,4,1,2
1523179084682535,-4,-3,-4,0,1,12,9,-20
1523179084682535,-2,-2,-1,-1,6,-7,-6,11
1523179084702590,4,-2,-1,-4,-3,-4,1,-3
1523179084702590,-9,-1,-1,-2,-5,-5,-9,-20
1523179084711613,1,0,0,1,0,4,6,4
1523179084711613,3,-1,-2,-1,6,0,-6,12
1523179084734745,0,3,2,3,-2,0,1,8
