timestamp,emg1,emg2,emg3,emg4,emg5,emg6,emg7,emg8
1523209084752850,1,3,-44,-11,-3,-7,-8,-1
1523209084752850,0,-1,34,21,5,4,4,-2
1523209084754854,-2,-7,-35,6,0,0,-5,0
1523209084754854,3,3,2,-11,5,5,2,3
1523209084775911,-5,-7,13,6,-1,1,2,-2
1523209084775911,-1,2,20,12,-1,-4,-1,-4
1523209084776913,0,8,15,-6,-3,-5,-4,-1
1523209084776913,3,4,-31,-2,8,6,-1,2
1523209084789954,-7,3,-23,4,0,5,-1,-1
1523209084789954,4,5,-47,-34,-11,-6,3,-6
1523209084796967,-5,0,56,-6,-7,-8,-2,-8
1523209084796967,10,5,-27,-10,-6,-7,7,12
1523209084813009,-3,1,11,21,6,4,-6,-1
1523209084813009,3,-21,26,-12,-5,-5,-14,-1
1523209084815015,-4,3,-23,-4,-1,-1,1,-2
1523209084815015,-5,-13,20,-2,-7,-7,-8,-5
1523209084835068,-2,-6,-65,-22,-15,-6,-4,0
1523209084835068,5,5,37,26,15,4,4,4
1523209084837078,4,11,5,-6,-29,-2,4,0
1523209084837078,-6,-16,-54,-2,53,18,4,-2
1523209084850109,1,0,48,10,-16,1,-3,-2
1523209084850109,-7,-25,-23,2,2,-5,-7,-5
1523209084857127,3,3,-19,-2,10,8,3,9
1523209084857127,5,11,24,-5,-15,1,-7,-8
1523209084873172,-2,6,-8,11,4,-10,35,5
1523209084873172,-9,-6,-23,-41,-18,-11,-8,-4
1523209084879184,-2,-8,-27,6,-2,-11,-10,-4
1523209084879184,-2,2,5,-16,-19,-7,-13,2
1523209084895230,0,-12,-35,6,7,6,-6,-3
1523209084895230,3,16,12,15,19,15,8,1
1523209084897235,-2,-2,-3,-11,11,5,-5,-1
1523209084897235,-7,-7,7,3,-9,-10,-1,-6
1523209084909266,1,-2,4,-9,-9,-6,-8,-2
1523209084909266,1,1,-10,8,-10,-4,2,1
1523209084918289,-1,3,33,-11,3,-7,-7,-3
1523209084918289,0,3,-38,-6,-21,-3,4,0
1523209084933331,3,4,64,40,21,5,0,0
1523209084933331,-1,-1,-43,-35,-3,1,-4,0
1523209084934336,-6,-17,-16,10,6,2,2,-3
1523209084934336,15,33,-20,3,-3,0,5,3
1523209084956390,6,4,-10,-12,-10,-6,-8,2
1523209084956390,-5,-4,-5,3,-29,-22,-5,-1
1523209084957393,-11,-3,22,16,33,7,-2,-5
1523209084957393,6,4,-13,-5,20,28,10,-1
1523209084969428,-3,-2,41,18,8,8,-14,-9
1523209084969428,4,5,-20,6,-11,-4,20,0
1523209084978448,-6,-10,4,-39,-30,-18,-6,-8
1523209084978448,-21,-9,-1,3,3,8,8,-1
1523209084993490,18,8,18,-8,24,6,-11,0
1523209084993490,-1,-1,51,33,0,8,1,-1
1523209084994491,-5,2,-29,2,-12,-14,0,-1
1523209084994491,5,-16,27,-6,4,-7,-5,1
1523209085015550,-3,-14,-46,-14,-15,-2,-8,-1
1523209085015550,2,6,-21,-4,5,2,14,-1
1523209085017553,10,14,13,10,22,2,-6,6
1523209085017553,-6,1,-1,4,-9,3,9,1
1523209085029584,-18,-4,11,-7,-4,-6,2,3
1523209085029584,1,-8,-60,-17,-1,-8,-12,-5
1523209085038608,14,37,-21,14,-32,-4,-4,1
1523209085038608,-19,-19,20,-11,10,-8,0,-3
1523209085053654,2,2,-53,-5,15,4,-14,-1
1523209085053654,2,3,29,1,-1,-5,10,-7
1523209085054651,4,6,47,50,23,16,10,3
1523209085054651,0,-15,-94,-68,-21,3,-8,-1
1523209085075747,-7,-3,22,1,-16,-11,7,-1
1523209085075747,6,9,10,7,18,7,-12,0
1523209085077713,6,-22,9,-5,-16,-5,-1,3
1523209085077713,-6,7,17,18,9,-2,11,0
1523209085089745,-16,-11,-23,-17,-8,0,-10,-9
1523209085089745,1,-11,-20,0,-15,-8,9,2
1523209085098001,2,6,-11,-18,-4,-4,-5,-6
1523209085098001,15,20,25,7,6,0,-10,1
1523209085112806,5,7,65,18,0,-1,9,5
1523209085112806,-10,-3,-10,-7,5,5,-9,-1
1523209085114815,-2,-5,4,-6,5,5,0,0
1523209085114815,2,-4,14,9,-8,-12,1,-2
1523209085135868,0,-1,5,3,-8,-6,2,-1
1523209085135868,-6,-2,28,12,11,5,-7,-1
1523209085136873,-5,-9,-32,-31,-8,-1,-3,-3
1523209085136873,-9,-16,33,18,-2,-6,-5,-3
1523209085149943,3,5,-12,0,4,-3,-12,0
1523209085149943,-2,1,-10,-5,-1,5,7,1
1523209085157926,-8,-9,19,-5,-4,-1,18,-1
1523209085157926,0,1,19,4,-9,-17,-13,-4
1523209085172968,-1,-4,-8,-19,-14,-8,2,0
1523209085172968,0,-2,2,10,5,12,-3,4
1523209085174971,-1,2,29,10,30,24,1,2
1523209085174971,6,5,9,18,18,13,9,4
1523209085196276,1,-4,-23,-16,-5,-3,1,-2
1523209085196276,-8,-3,7,-4,-19,-14,-8,-3
1523209085197028,-3,-4,-11,-12,-20,-13,-7,-3
1523209085197028,0,0,-25,-3,3,0,-3,0
1523209085209102,2,5,-2,13,13,9,8,2
1523209085209102,0,1,-7,1,5,2,-12,-1
1523209085218085,-1,-1,-6,4,-3,1,18,1
1523209085218085,1,-1,3,5,-9,-7,5,-4
1523209085234224,-4,-9,-47,-22,-4,-3,2,-2
1523209085234224,1,2,59,3,4,1,-3,0
1523209085235172,-5,-3,-23,-4,-1,-5,-8,0
1523209085235172,-5,-3,-54,-15,-14,-9,-13,-4
1523209085255184,2,1,21,13,2,4,9,2
1523209085255184,0,3,1,5,14,9,-1,0
1523209085257189,-3,-4,-1,-8,0,-5,-7,-4
1523209085257189,-2,1,-22,-7,-7,-4,1,-3
1523209085269223,-3,-1,1,-8,-7,-7,-7,-2
1523209085269223,2,0,5,-6,-16,-2,-1,2
1523209085278246,-3,-11,-54,5,23,10,2,0
1523209085278246,-1,5,23,7,-2,1,0,1
1523209085293287,-3,0,16,9,0,-2,-1,-2
1523209085293287,-2,1,-1,-15,-10,-10,-15,-2
1523209085295317,2,2,23,6,0,0,21,4
1523209085295317,-2,-5,-3,15,-1,-2,-5,-3
1523209085315586,-2,-4,3,-4,5,12,-1,-3
1523209085315586,-3,-2,4,-2,4,-11,7,-2
1523209085317350,-2,-3,-45,-21,-9,-2,-11,-2
1523209085317350,-1,-3,0,6,-1,-7,-5,-2
1523209085329381,-1,2,13,-4,-27,-11,-3,-1
1523209085329381,-1,-1,21,10,10,5,3,-2
1523209085338404,-2,1,-9,7,15,15,1,1
1523209085338404,2,8,-24,-10,16,10,5,3
1523209085353454,-4,-13,-1,-3,-1,-2,-8,1
1523209085353454,-3,0,9,-18,-14,-12,-3,-3
1523209085354447,-3,-3,-48,6,-20,-18,-21,-5
1523209085354447,3,7,25,-13,-4,-3,16,2
1523209085375503,-1,0,-29,-24,4,2,-2,1
1523209085375503,-3,-3,-10,7,5,4,8,-4
1523209085377508,3,0,63,19,5,0,-1,0
1523209085377508,1,1,-20,-17,-10,-4,-12,-2
1523209085389540,-1,-6,9,9,-5,-7,5,0
1523209085389540,-1,0,0,3,13,2,-4,0
1523209085398565,1,1,14,3,-4,2,5,-1
1523209085398565,-2,-4,-8,7,8,1,2,2
1523209085413604,2,4,31,5,2,3,0,0
1523209085413604,-2,0,-12,-1,-3,1,-5,0
1523209085414609,-4,-10,3,-11,-9,-14,-8,-3
1523209085414609,1,0,23,0,-7,-5,-6,-1
1523209085435665,-1,1,-59,-3,-5,2,5,-1
1523209085435665,0,-4,19,6,21,7,1,0
1523209085437668,1,5,-5,-15,-1,5,-1,1
1523209085437668,-7,-17,-86,-25,-11,-5,-1,-3
1523209085449926,0,0,27,11,-4,-9,-6,-2
1523209085449926,1,-1,-1,0,-16,-5,4,-1
1523209085458726,1,4,32,11,-3,-4,2,0
1523209085458726,1,1,34,13,23,12,4,1
1523209085472762,2,5,-14,1,14,12,5,1
1523209085472762,-2,-5,-64,-5,-3,0,-2,0
1523209085474767,-2,-2,33,-15,-18,-13,-11,-4
1523209085474767,-1,-1,26,4,-21,-14,-3,-4
1523209085496059,-1,1,-4,-1,10,6,4,0
1523209085496059,2,0,1,14,10,12,0,1
1523209085497869,-1,-3,0,4,3,0,-10,-1
1523209085497869,-1,-4,-25,-12,-3,-7,4,-1
1523209085508857,0,2,10,5,-4,-8,-25,-3
1523209085508857,-4,-5,-1,-12,-7,-5,26,-1
1523209085518135,0,1,14,11,1,0,0,0
1523209085518135,-1,-1,-21,5,-4,-2,-3,-1
1523209085533161,-1,-7,-9,-1,2,1,-3,0
1523209085533161,-2,0,-14,-4,-6,-3,-10,-1
1523209085534927,0,2,39,8,3,0,-4,-2
1523209085534927,-2,-14,12,7,3,5,11,1
1523209085555988,-6,-12,-69,-15,-5,-6,2,-5
1523209085555988,0,3,20,7,-2,-1,-11,3
1523209085556987,-2,-1,-10,-6,0,0,7,-3
1523209085556987,0,7,32,1,-2,-3,-12,0
1523209085569020,1,3,27,10,3,3,0,1
1523209085569020,0,-1,-17,-10,2,6,4,1
1523209085578042,-4,-2,-6,-3,-3,-5,3,-6
1523209085578042,0,2,-24,-7,-2,0,-2,0
1523209085593081,0,4,48,10,0,-2,3,1
1523209085593081,-4,-8,5,-37,-12,-6,-6,-4
1523209085595087,-1,-2,-8,12,2,1,-10,-1
1523209085595087,1,2,15,3,1,0,-4,-1
1523209085616234,1,0,-8,8,0,-2,9,1
1523209085616234,2,3,-2,8,0,-1,-15,-1
1523209085617145,-2,-1,-17,-13,-1,4,11,2
1523209085617145,0,-1,31,3,1,0,1,1
1523209085629178,-2,2,-9,-4,1,3,-1,-1
1523209085629178,-2,-2,5,2,-3,-7,-4,-6
1523209085638201,0,-3,-18,-12,-4,-2,-10,0
1523209085638201,-4,-2,-30,2,-3,-6,4,-2
1523209085653298,-1,-1,3,-4,2,4,4,0
1523209085653298,-1,0,-13,5,-2,-1,1,-1
1523209085655247,-2,2,5,9,2,-1,4,2
1523209085655247,0,-2,27,-7,-5,-1,-26,-3
1523209085675300,-1,-2,-3,-4,-1,0,21,-1
1523209085675300,-2,-2,3,6,-1,-3,-1,-4
1523209085677308,1,5,-6,4,1,4,16,1
1523209085677308,-2,-3,-1,-5,-3,0,-29,-3
1523209085698596,-1,-1,-9,-5,-1,-5,26,1
1523209085698596,0,0,10,5,2,3,-6,-1
1523209085700407,1,-3,-3,-8,-3,-5,-4,0
1523209085700407,1,1,-2,2,0,2,6,0
1523209085713416,-1,-1,3,1,-1,-2,-17,-3
1523209085713416,0,-1,-10,-5,-2,0,4,1
1523209085720420,-1,-2,-25,2,-1,-1,-1,-2
1523209085720420,-5,-8,15,-24,-5,-4,-1,-3
1523209085735463,1,1,1,4,3,1,-6,-1
1523209085735463,-2,-2,7,1,-1,-2,9,0
1523209085737466,-2,-3,-12,-11,-2,-2,-10,-2
1523209085737466,2,4,8,9,1,2,3,0
1523209085758522,-4,-5,-9,3,-3,-5,2,0
1523209085758522,-2,0,12,-5,-2,0,0,-1
1523209085759525,0,-1,8,0,-1,-3,-12,-2
1523209085759525,-2,2,-4,3,1,1,12,2
1523209085772560,-2,-1,2,-4,-4,-2,-17,-2
1523209085772560,-1,0,-8,3,-1,0,13,0
1523209085779577,-1,-3,12,0,-3,-2,-5,-2
1523209085779577,0,1,2,7,0,-2,-8,1
1523209085795621,-2,-4,-55,-20,-3,-2,2,-1
1523209085795621,0,1,7,5,-2,-2,-4,0
1523209085797625,-1,1,-4,-2,-3,-2,2,-3
1523209085797625,-2,-1,16,-4,-1,-1,-1,-4
1523209085817679,0,1,2,3,0,-4,-4,-2
1523209085817679,0,1,8,3,3,3,-1,1
1523209085819686,-4,-8,-21,-7,0,-1,-1,-1
1523209085819686,0,4,2,4,-1,0,5,-1
1523209085831716,1,1,13,-2,-2,-1,-4,-3
1523209085831716,-2,-2,-9,-2,-3,-2,-1,-2
1523209085840740,1,2,13,-2,1,-1,-1,2
1523209085840740,0,0,-1,0,1,0,2,-4
1523209085855780,-2,-2,5,2,1,-2,1,-2
1523209085855780,1,-1,8,5,-2,-2,-2,0
1523209085856783,-1,-6,-30,-14,-4,-1,-4,-1
1523209085856783,0,-2,12,4,-1,1,19,0
1523209085877838,-1,0,26,-1,-4,-4,-10,-4
1523209085877838,-1,-2,16,-10,-4,-3,-6,-1
1523209085879843,0,2,17,10,6,3,3,-1
1523209085879843,0,-2,-23,-1,3,3,-2,-2
1523209085892877,-1,3,6,6,-1,1,1,3
1523209085892877,-2,-1,-7,-2,-3,-4,-4,-2
1523209085906915,-1,-1,8,-3,-5,-4,-2,-3
1523209085906915,-2,-1,-20,-3,-3,-2,-1,1
1523209085915940,-1,-2,5,-1,-1,-1,0,-2
1523209085915940,-3,-2,-15,-5,-4,-4,-4,-2
1523209085916942,-1,0,12,1,-1,-3,-4,-2
1523209085916942,-3,-3,-54,-14,-4,-3,0,-3
1523209085937999,-1,0,-5,0,0,2,8,1
1523209085937999,0,-2,12,0,-1,-2,-5,-3
1523209085940004,0,5,9,10,4,5,5,1
1523209085940004,-2,-10,-51,-12,0,-1,-10,1
1523209085953043,-1,0,2,0,-1,-1,3,-2
1523209085953043,2,0,1,4,5,7,6,1
1523209085959055,-2,0,14,-3,-7,-5,-6,-2
1523209085959055,1,-1,31,5,-3,-3,3,-2
1523209085975100,1,0,-22,-14,1,1,-3,-1
1523209085975100,1,4,13,5,2,0,-1,0
1523209085977105,-5,-11,5,-4,-2,-3,0,-1
1523209085977105,1,3,23,7,-2,-1,-4,-1
1523209085998182,2,-4,5,-1,-3,-4,-3,1
1523209085998182,1,4,16,1,-2,-3,-1,-1
1523209086000164,-2,-4,-27,-8,0,2,3,-2
1523209086000164,-2,2,5,2,0,1,1,-1
1523209086012197,0,-1,19,7,1,1,-1,-1
1523209086012197,-3,-4,-33,-8,-3,-3,-11,-2
1523209086019217,2,1,5,0,-3,-3,4,1
1523209086019217,-1,-1,8,1,-2,-3,5,-1
1523209086035258,-1,1,-7,2,0,0,-4,-2
1523209086035258,-1,-3,-16,0,3,2,1,-1
1523209086037269,0,1,18,-1,0,1,-5,0
1523209086037269,1,1,4,-3,0,0,-5,0
1523209086058318,-3,0,9,-3,-3,-3,2,-4
1523209086058318,-2,-6,-6,3,-2,-5,0,0
1523209086059322,-2,4,-1,-6,-1,-1,3,-2
1523209086059322,1,-1,42,6,-2,-2,-6,-2
1523209086072355,-4,-7,-63,-26,-6,-2,-14,-3
1523209086072355,2,0,11,6,2,1,12,-1
1523209086079373,-1,2,-2,5,0,0,-2,1
1523209086079373,-2,-4,6,5,0,-2,-2,-2
1523209086095652,0,1,2,2,0,4,-7,4
1523209086095652,-4,-4,-8,-6,-4,-7,-2,-5
1523209086097422,-2,-2,-19,-2,0,-3,6,-2
1523209086097422,0,0,-32,-4,-1,0,1,-1
1523209086118479,-1,0,32,3,1,-2,3,1
1523209086118479,-1,-2,-12,-2,-3,1,-9,-1
1523209086119485,-3,-3,9,0,-3,-2,-2,-2
1523209086119485,-2,0,-1,-1,-1,-4,-2,-2
1523209086132757,0,-1,13,5,0,1,0,-2
1523209086132757,-3,-3,-20,-5,-4,-2,-2,-1
1523209086139534,1,1,-3,1,5,3,-1,-2
1523209086139534,0,-1,-5,0,4,6,5,2
1523209086155577,2,1,5,6,0,0,1,-2
1523209086155577,-3,0,21,-6,-4,-1,-1,-2
1523209086157583,-1,-3,-5,-2,-6,-4,-1,-1
1523209086157583,-2,-1,-18,-8,-4,-5,-6,-2
1523209086177635,1,-1,12,4,-2,-2,-1,-1
1523209086177635,0,-3,-28,-5,-3,-2,-1,-1
1523209086185664,1,-2,5,1,-1,-1,-5,1
1523209086185664,0,4,33,13,3,0,2,0
1523209086191674,-4,-6,-73,-34,-6,-3,-2,-3
1523209086191674,-1,3,17,10,2,0,1,1
1523209086200695,-1,-3,-25,-2,-2,1,-1,-1
1523209086200695,-3,-1,-3,-9,-5,-3,0,-2
1523209086215972,2,-1,12,7,-1,-3,-1,-1
1523209086215972,0,1,-7,-2,2,3,-1,-1
1523209086216739,1,2,-6,4,5,4,2,1
1523209086216739,2,1,15,5,1,2,-1,1
1523209086237794,-3,-2,-13,-4,-2,-2,-3,-3
1523209086237794,0,1,9,-4,-5,-4,-4,-1
1523209086239800,-2,-1,-15,-2,-3,-3,-5,-2
1523209086239800,0,-3,-4,-3,3,3,9,-1
1523209086251836,-1,0,16,5,0,0,2,1
1523209086251836,0,-3,-11,-4,0,0,-2,-1
1523209086260856,-2,-3,-29,-11,-5,-3,-3,-4
1523209086260856,-1,0,-4,-3,-2,-2,-17,1
1523209086275897,0,1,16,7,1,-4,5,1
1523209086275897,-3,-6,-29,-3,-3,-3,12,-5
1523209086276898,-1,0,18,-1,-2,-2,-8,-2
1523209086276898,0,0,-12,-3,0,0,-1,-1
1523209086305977,-1,-1,12,4,1,3,-3,0
1523209086305977,0,0,15,2,-1,1,-5,1
1523209086306978,-1,-1,0,-6,-1,-2,4,-2
1523209086306978,-2,-2,-11,0,-4,-1,2,-2
1523209086311993,1,-2,-8,-7,-1,-1,1,-3
1523209086311993,-2,0,12,0,2,0,1,1
1523209086321018,0,-1,-3,3,0,-1,1,0
1523209086321018,-2,-1,14,3,0,-1,-4,0
1523209086336055,-3,-2,-2,1,-1,-2,-1,-5
1523209086336055,-3,-1,-7,-3,-1,-3,7,0
1523209086337058,0,0,23,3,-1,-1,-16,0
1523209086337058,-3,-3,-19,-13,-5,-2,-7,0
1523209086358115,1,1,2,2,1,-5,9,-3
1523209086358115,-1,-1,16,0,4,6,17,3
1523209086360120,-2,-1,-10,0,-1,2,8,-2
1523209086360120,0,0,11,-2,-3,0,-2,0
1523209086372151,-3,-6,-9,-1,-3,-2,-21,-3
1523209086372151,1,2,22,0,-1,-3,-6,-3
1523209086381216,2,0,-7,-3,0,-1,3,2
1523209086381216,-2,-4,6,0,1,0,0,-2
1523209086396256,-1,4,22,8,2,1,4,3
1523209086396256,-3,-6,-25,-10,-4,-5,-6,-3
1523209086397218,0,1,14,0,-2,1,-2,0
1523209086397218,0,-3,-9,0,-1,-4,2,-3
1523209086418275,0,2,37,12,0,-3,2,-1
1523209086418275,-1,-4,-31,-19,-5,0,-6,1
1523209086419283,-3,0,-1,0,-5,-6,-4,-4
1523209086419283,-2,2,-1,3,1,-2,5,-3
1523209086431309,-2,-1,-35,-4,2,3,4,1
1523209086431309,-1,2,12,7,-1,-1,-9,1
1523209086440333,-2,-1,-5,-2,0,1,5,0
1523209086440333,-1,-1,14,-2,-4,-3,2,-1
1523209086454372,-1,-2,13,2,-5,-3,-5,1
1523209086454372,-3,-3,-35,-8,-2,-4,-5,-2
1523209086463395,1,0,17,3,3,-1,2,-1
1523209086463395,-1,-2,-17,3,4,3,2,-1
1523209086478434,-1,-1,0,-6,-1,2,-6,-1
1523209086478434,-2,-2,5,2,-6,-5,-3,-3
1523209086479440,-1,-3,6,-2,-3,-4,-2,0
1523209086479440,-2,1,-6,2,4,1,1,0
1523209086491469,-1,-3,-7,-6,1,2,1,1
1523209086491469,1,2,9,5,2,1,-1,0
1523209086500587,-2,-4,-2,2,-2,-2,-3,-2
1523209086500587,0,2,-12,-8,-4,-2,-3,-3
1523209086515533,-3,-5,11,-1,-4,-5,0,-1
1523209086515533,1,3,14,4,-1,-1,-5,-1
1523209086517541,-3,-3,-10,-2,-1,2,-1,-3
1523209086517541,0,-3,11,-2,-1,1,-1,-2
1523209086538594,-3,-1,-9,-5,-3,1,0,-1
1523209086538594,-1,-1,1,0,0,1,-2,-1
1523209086539598,-1,-1,3,-1,-2,-1,0,0
1523209086539598,-2,-1,2,-3,-2,-1,1,0
1523209086551633,1,1,3,5,-2,-1,-1,-1
1523209086551633,2,-1,5,3,2,0,-3,-1
1523209086560652,-1,-1,-10,-6,-1,1,1,0
1523209086560652,-1,-3,6,1,0,-2,0,0
1523209086583772,1,0,-3,0,-2,-1,-2,-3
1523209086583772,-3,-1,2,1,-2,-1,0,-1
1523209086584721,-1,-2,8,-3,-3,-3,-1,-1
1523209086584721,0,4,21,3,-3,-6,-9,-1
1523209086598794,0,-2,-30,-5,3,2,5,2
1523209086598794,1,1,7,9,4,4,-1,1
1523209086599756,-1,-7,-3,-13,-1,1,-4,-1
1523209086599756,-1,-1,-3,0,-3,0,3,0
1523209086620816,-3,1,16,-1,-3,-3,4,-1
1523209086620816,-2,-2,-14,-4,-4,-2,4,-4
1523209086621815,2,5,10,6,2,3,-5,3
1523209086621815,-3,-4,-2,-3,-2,-6,2,-3
1523209086635856,0,-1,11,-2,-1,-1,-5,-1
1523209086635856,0,0,0,-2,0,-1,-4,-1
1523209086636858,-2,1,1,0,-2,-5,0,-1
1523209086636858,1,0,4,-3,-3,-3,-4,-1
1523209086657953,0,-1,-24,1,2,2,0,0
1523209086657953,-2,0,-7,-2,3,2,1,0
1523209086659918,0,0,13,1,-4,-3,-2,-2
1523209086659918,-2,-2,-18,-9,-3,-4,-1,-3
1523209086680973,-2,-3,0,-1,3,1,0,-1
1523209086680973,0,-2,8,5,-2,-1,-1,0
1523209086682129,-3,-4,-53,-14,-4,-2,0,-3
1523209086682129,-1,0,-3,0,-1,-2,-1,0
1523209086696247,0,2,9,-3,-2,-4,-2,-1
1523209086696247,-2,-6,-29,-1,-4,-3,-1,-2
1523209086697015,2,-1,27,2,-2,-1,1,-1
1523209086697015,2,2,-2,1,1,1,-1,0
1523209086718071,-2,-3,1,4,2,4,-2,0
1523209086718071,1,2,22,0,0,2,1,2
1523209086720076,-2,0,7,1,-2,-1,-2,0
1523209086720076,-3,-7,-12,-7,-5,-4,-4,-2
1523209086741133,1,3,-2,0,-2,-3,-2,-2
1523209086741133,-2,-5,12,-3,0,0,-2,0
1523209086743137,0,1,-3,3,2,0,3,0
1523209086743137,1,1,16,9,10,7,4,2
1523209086755171,-1,-1,-24,-11,-4,-3,-1,0
1523209086755171,-2,0,-9,-10,-8,-7,-3,-2
1523209086757175,0,-1,7,1,-12,-9,-3,-3
1523209086757175,-2,-2,-45,-6,4,3,0,-2
1523209086778232,3,2,10,5,10,6,2,0
1523209086778232,1,-1,-5,-2,4,2,0,0
1523209086780237,-1,-2,1,1,1,3,0,0
1523209086780237,-1,-2,23,-5,-15,-7,-2,-2
1523209086800510,-3,-4,-15,-4,-9,-11,-5,-3
1523209086800510,0,-1,-6,-1,1,-2,-1,-1
1523209086802300,2,2,12,3,5,7,2,1
1523209086802300,-1,-2,-6,1,-1,-2,-2,0
1523209086815564,-2,-2,2,-9,-7,-5,-2,-2
1523209086815564,-1,1,8,4,-2,-3,0,-2
1523209086821346,-2,-5,-16,-3,-1,-3,-1,-3
1523209086821346,-1,0,8,7,7,5,3,1
1523209086838391,-3,-6,-8,-10,-2,-1,0,-1
1523209086838391,-2,-3,18,-1,-7,-5,-2,-1
1523209086839393,-2,-4,-18,-7,-2,-7,-3,-3
1523209086839393,0,1,14,-1,-2,-3,-1,-1
1523209086860450,2,2,4,7,3,2,1,1
1523209086860450,0,0,3,0,3,3,2,-1
1523209086862457,-1,-1,-3,4,6,5,1,0
1523209086862457,-1,-1,-11,-5,-3,-1,-1,-1
1523209086874487,0,0,20,2,-6,-5,-4,-2
1523209086874487,-1,0,-19,-7,-4,-2,-2,-1
1523209086881741,-1,0,16,1,-3,-3,0,0
1523209086881741,-1,1,-4,-1,-1,-3,-1,-2
1523209086898771,-1,1,-7,2,5,5,2,1
1523209086898771,0,1,12,0,-4,0,-3,0
1523209086899552,1,2,2,-1,3,-1,1,-1
1523209086899552,-3,-3,-2,-2,-4,-2,0,-2
1523209086920616,-1,1,0,3,-4,-6,-3,-1
1523209086920616,0,-4,3,2,4,1,1,-1
1523209086922614,-1,3,11,-2,0,2,0,2
1523209086922614,0,0,1,2,7,4,1,1
1523209086934653,-1,-2,-35,-7,-2,-2,-3,-2
1523209086934653,-2,-1,-6,-3,-3,-2,-2,-2
1523209086941707,-1,-2,-2,-1,-3,-3,-2,-2
1523209086941707,0,-1,6,0,-2,-4,-4,-2
1523209086957749,-1,-1,6,1,-1,3,1,1
1523209086957749,0,0,-5,-3,3,0,1,-1
1523209086959714,-2,-3,-2,-1,2,2,0,2
1523209086959714,-4,-2,-21,-8,-9,-7,-2,-3
1523209086981005,2,-2,1,-2,-7,-5,-1,-3
1523209086981005,0,0,4,0,4,1,-2,-1
1523209086982773,2,2,18,15,4,5,3,3
1523209086982773,-3,-2,-24,-20,-1,1,0,0
1523209086995041,-3,-2,-17,-7,-3,-5,-2,-4
1523209086995041,-1,-1,6,0,-4,-4,-2,-1
1523209087001830,-1,-2,-2,0,-2,-2,-1,-1
1523209087001830,1,1,18,10,4,3,-1,0
1523209087017869,-2,-1,4,1,3,3,-1,0
1523209087017869,-2,-1,-10,-9,-2,-1,-1,-2
1523209087019873,-1,-1,-15,-1,-4,-1,-2,-1
1523209087019873,0,-1,7,2,-3,-3,-1,-1
1523209087040969,-2,-2,4,-4,-1,-2,-3,-2
1523209087040969,-2,-5,17,3,2,4,0,-2
1523209087041934,-1,0,6,-2,-4,-4,-1,-1
1523209087041934,0,-1,-6,1,3,-2,-1,-2
1523209087054965,-1,1,-2,-2,-3,-1,0,0
1523209087054965,0,-3,-10,-4,-6,-1,0,0
1523209087061986,-2,-2,-3,-1,2,1,-3,-1
1523209087061986,1,4,5,2,5,5,1,0
1523209087078029,-1,-1,15,2,3,0,0,-1
1523209087078029,-1,0,-6,2,1,-1,0,-1
1523209087080034,-1,-2,-12,-8,-7,-6,-2,-3
1523209087080034,0,-3,-5,-3,-6,-5,-2,-1
1523209087101094,-1,-3,3,-2,-2,-2,-2,-3
1523209087101094,-2,0,-6,2,0,1,0,1
1523209087102095,-2,-2,-8,-2,1,0,0,-1
1523209087102095,-1,-2,15,1,-2,0,-1,-1
1523209087114358,-2,-4,-29,-14,-5,-6,-3,-2
1523209087114358,-2,1,-3,0,-1,-2,-1,-1
1523209087123147,-1,1,3,4,5,4,3,0
1523209087123147,-3,-4,-20,-8,-4,-2,-1,0
1523209087138187,-2,-2,7,2,-2,-1,-3,-1
1523209087138187,-1,-1,-10,2,0,-1,-3,-1
1523209087140195,-2,-2,-8,0,0,0,0,-2
1523209087140195,-1,0,13,0,-5,-3,0,-2
1523209087168272,1,2,5,6,5,4,3,0
1523209087168272,-1,4,-15,0,1,0,-1,0
1523209087169273,0,-1,0,-3,-5,-3,-3,-2
1523209087169273,0,-3,0,1,-2,-1,-1,-1
1523209087174283,-1,0,-1,0,-3,-1,-1,1
1523209087174283,0,-1,6,0,-1,0,-1,0
1523209087183309,0,0,-5,-1,-2,-2,-1,-1
1523209087183309,-1,-1,-4,-3,-7,-6,-3,-1
1523209087198583,1,1,3,-2,-2,-2,0,-2
1523209087198583,0,-1,0,0,3,2,1,-1
1523209087199349,-2,-2,0,1,3,4,0,0
1523209087199349,-2,-4,-5,-2,3,1,0,-1
1523209087220409,-2,-3,1,-2,-1,-2,-2,-3
1523209087220409,-2,0,-3,-7,-6,-7,-3,-1
1523209087222411,-2,-3,-7,-4,-4,-6,-5,-1
1523209087222411,1,2,17,3,0,-4,-3,-2
1523209087234450,-1,1,-15,3,2,2,0,2
1523209087234450,0,-4,-4,0,3,4,3,0
1523209087243466,-1,2,4,-2,-3,-1,1,0
1523209087243466,-2,-5,-10,-2,-2,-2,-2,-2
1523209087258508,-1,0,6,1,1,1,-1,-2
1523209087258508,-2,-1,2,0,0,1,3,-1
1523209087259510,0,-1,-6,-3,-1,1,-2,-1
1523209087259510,-1,0,-6,-2,-2,2,-1,0
1523209087280801,-2,-3,2,-4,-5,-3,-1,-1
1523209087280801,-1,0,-4,2,-1,-1,-1,-1
1523209087282572,0,-1,2,-1,0,-2,0,-3
1523209087282572,0,-1,-1,0,-1,0,-1,0
1523209087294841,0,-2,7,0,-1,-2,-1,-1
1523209087294841,0,-2,-17,-3,-4,-4,-3,-2
1523209087303627,-1,-2,-3,-2,-2,-1,-1,1
1523209087303627,0,1,-7,2,2,1,0,1
1523209087318674,-1,-3,6,-1,-2,-1,1,-2
1523209087318674,-3,-3,-2,-3,-3,-3,-3,-2
1523209087319672,1,-2,-4,1,0,1,0,-1
1523209087319672,1,4,-2,2,3,5,2,1
1523209087340767,-2,-1,0,-1,-1,1,0,1
1523209087340767,-2,-2,1,-4,-4,-5,-2,-4
1523209087342730,0,0,-4,-2,-1,-4,-2,-3
1523209087342730,-1,-3,5,2,1,2,0,-1
1523209087353764,1,1,0,4,7,9,4,3
1523209087353764,1,2,6,-3,-6,-5,-2,-1
1523209087363788,-2,-3,-8,-5,-6,-6,-4,-4
1523209087363788,-1,-1,0,5,4,2,2,0
1523209087377824,-3,-1,0,-3,-2,-4,-4,-1
1523209087377824,-2,0,-2,-2,-2,-2,-2,-1
1523209087379829,-2,-1,3,-1,0,0,1,0
1523209087379829,-2,0,-2,-2,-4,-4,-3,-1
1523209087400889,-1,-1,2,0,-1,-2,-1,0
1523209087400889,-1,-4,-2,1,2,1,-1,0
1523209087401898,-4,-2,-2,0,-2,0,-1,-1
1523209087401898,-1,-1,3,-2,-1,-1,-1,-2
1523209087414921,0,4,1,-2,-1,0,-1,-2
1523209087414921,-5,-11,-1,-4,-4,-4,-3,-2
1523209087422943,1,0,-2,0,0,-2,-1,0
1523209087422943,-2,-5,4,-9,-1,3,1,-1
1523209087437983,-1,6,-36,1,-4,-4,-3,-3
1523209087437983,1,-3,-7,-1,0,-1,-3,1
1523209087439992,-2,19,-8,6,4,8,5,2
1523209087439992,2,2,5,-4,-4,-2,-3,-2
1523209087460043,-15,-22,17,0,2,3,2,2
1523209087460043,1,1,3,0,-2,1,0,0
1523209087462048,0,-5,0,-1,-2,-5,-1,-1
1523209087462048,-4,-3,-7,-2,-3,-5,-2,-3
1523209087483281,2,5,3,-1,0,0,0,0
1523209087483281,0,2,-2,1,0,-1,0,-1
1523209087485115,-4,-10,13,-4,-2,-1,-1,-1
1523209087485115,-1,2,-6,0,0,-1,0,0
1523209087498379,1,-3,-1,-2,-1,-2,-2,-3
1523209087498379,-2,0,5,2,4,6,3,0
1523209087500149,2,1,-8,-1,0,0,-2,0
1523209087500149,-2,-4,0,-1,-2,-2,0,-1
1523209087520216,1,-1,8,-2,-6,-4,-3,-1
1523209087520216,-2,-1,-9,-5,-3,-3,-2,-1
1523209087522208,-2,-2,3,0,0,2,1,0
1523209087522208,-1,-1,1,2,1,0,-1,0
1523209087534243,1,-1,-3,0,-2,0,0,0
1523209087534243,0,1,13,0,1,-3,-2,-1
1523209087543262,-2,-5,-7,-2,-3,-3,-3,-3
1523209087543262,0,2,-2,-2,-2,-2,-1,-1
1523209087558342,2,-1,-4,-2,-1,-1,-1,0
1523209087558342,1,-3,-3,2,1,0,0,-2
1523209087559306,-3,-7,30,2,1,0,-1,-1
1523209087559306,-2,-1,-19,-9,-2,0,-1,-1
1523209087580363,-1,1,0,-1,-5,-4,0,-2
1523209087580363,1,1,-2,0,-1,0,0,0
1523209087582367,0,-1,-1,0,-1,-2,-2,-2
1523209087582367,-1,0,1,1,-1,-1,-2,-1
1523209087603496,0,-1,0,-1,1,-2,-2,-2
1523209087603496,-1,2,3,2,3,6,3,2
1523209087604425,-2,1,-9,-3,-1,0,-1,-1
1523209087604425,-2,-3,5,0,-2,-3,-1,-2
1523209087618473,-1,-1,-14,-8,-6,-7,-3,-2
1523209087618473,-1,2,8,0,-3,-4,-4,-3
1523209087619468,0,-1,-19,1,3,3,1,2
1523209087619468,-2,-1,8,2,-1,0,-1,0
1523209087640522,0,1,5,4,1,3,1,-1
1523209087640522,-3,0,-5,-6,-5,-3,-1,0
1523209087642529,0,0,6,-2,-4,-3,-1,-1
1523209087642529,0,-3,-3,1,-3,-2,-3,-2
1523209087663744,0,0,-4,-2,-3,-3,-2,-2
1523209087663744,-1,3,6,4,6,3,2,3
1523209087664585,-2,-2,-5,0,-1,-1,-2,-2
1523209087664585,0,-1,1,0,0,-2,0,0
1523209087678626,-2,-2,-4,-5,-5,-5,-3,-2
1523209087678626,0,-3,-7,-3,-5,-4,-3,-4
1523209087679626,-1,-1,0,-1,2,0,0,-1
1523209087679626,0,1,-3,3,1,1,-1,1
1523209087700685,-2,-2,7,-1,-1,-1,-1,0
1523209087700685,-1,-3,-8,-1,-1,0,1,-2
1523209087702687,2,-2,-8,-1,1,-1,1,-1
1523209087702687,-2,2,15,-2,-2,-2,-1,-2
1523209087722741,0,-1,-3,0,3,2,-1,2
1523209087722741,-2,3,2,1,-2,0,0,1
1523209087724746,-2,-8,-4,-5,-5,-6,-2,-2
1523209087724746,-1,-2,-6,0,0,0,-1,0
1523209087737780,0,-1,0,3,3,1,-1,1
1523209087737780,0,1,5,-2,-2,-1,-2,-2
1523209087744870,0,1,-2,0,-2,-2,-1,-1
1523209087744870,-2,-2,-4,-2,-2,-3,-1,-1
1523209087760842,-1,-1,-4,-1,-2,-1,-1,-2
1523209087760842,-2,-3,-4,-3,-2,-3,-3,-1
1523209087761846,-2,0,1,-1,-2,-1,-1,-1
1523209087761846,-1,-1,-1,3,4,4,3,-2
1523209087783034,0,2,1,0,1,2,0,0
1523209087783034,0,-3,-3,-1,-1,-1,-1,-2
1523209087784910,-1,0,3,-1,-3,-3,-2,-1
1523209087784910,-1,1,-3,-2,-5,-2,-2,-1
1523209087798124,-1,-3,0,1,-1,0,1,0
1523209087798124,0,-1,-1,-3,-4,-4,-3,0
1523209087803955,-1,3,1,-1,-2,2,0,-1
1523209087803955,-1,-3,-6,1,0,0,-1,-1
1523209087821002,-1,-1,-1,-3,0,-2,-1,-2
1523209087821002,-3,-3,-2,0,-2,-2,-2,-1
1523209087822004,2,1,4,-2,0,0,-1,-1
1523209087822004,-1,-2,2,-1,1,0,1,-1
1523209087843061,-2,0,-2,-1,0,0,1,1
1523209087843061,-2,-1,-2,-3,-2,-3,-2,-1
1523209087845282,0,0,-1,-2,-2,-4,-3,-1
1523209087845282,-1,-4,-9,-1,-2,-2,-1,-2
1523209087857098,0,-2,1,3,3,3,2,1
1523209087857098,-1,-1,-3,-5,-1,-2,-1,-3
1523209087866122,0,-1,-4,1,-1,-1,0,0
1523209087866122,-2,-2,0,-2,-2,-2,-2,-3
1523209087880158,-1,-2,0,1,0,-2,1,-1
1523209087880158,-2,-2,-4,-1,-2,0,0,-2
1523209087882163,-2,-1,-4,-3,-2,-4,-2,0
1523209087882163,0,2,6,1,0,-1,0,0
1523209087903232,-2,-8,7,-3,3,3,0,-1
1523209087903232,1,2,7,1,0,2,1,2
1523209087904223,-4,-6,-7,-5,-3,-4,-2,-2
1523209087904223,0,0,-5,-1,-3,-2,-2,0
1523209087917257,-1,0,-2,0,-3,-2,0,-2
1523209087917257,0,0,0,1,0,-1,-2,-1
1523209087924276,-2,-1,4,2,2,2,0,1
1523209087924276,0,0,-3,-3,-1,-2,0,-1
1523209087940554,-1,0,3,-3,-3,-4,-1,-2
1523209087940554,-2,-3,-7,0,-1,0,7,4
1523209087942325,0,1,0,2,0,2,-5,-3
1523209087942325,-2,-2,-1,-3,-2,-2,-2,-1
1523209087963381,0,0,-3,-1,-4,-4,-4,-3
1523209087963381,1,0,-2,3,2,1,5,12
1523209087964506,-1,-1,2,-2,-2,0,-2,-20
1523209087964506,-2,-2,-2,-4,-2,-2,-7,-1
1523209087977418,0,-2,-2,-1,-2,-4,-1,0
1523209087977418,-1,0,-1,-3,0,-1,-2,2
1523209087984445,0,-1,-2,1,-1,1,3,7
1523209087984445,1,-1,-2,0,0,-1,-2,-3
1523209088000478,0,0,-3,-1,-2,-2,-2,-1
1523209088000478,0,-1,-3,0,-1,-1,-3,-4
1523209088002485,0,1,1,-3,-3,-3,-2,-1
1523209088002485,0,-1,0,-1,-3,-1,0,-1
1523209088023541,-1,1,3,0,2,2,0,3
1523209088023541,-1,-2,-6,-1,-1,0,-4,-5
1523209088024544,-1,-1,-4,-1,-2,0,-1,-1
1523209088024544,-1,-3,3,-2,-4,-2,0,1
1523209088037577,0,2,0,0,0,-3,-1,-2
1523209088037577,-2,-4,3,0,2,4,-2,-5
1523209088044832,-1,-1,4,-1,2,3,1,3
1523209088044832,-2,0,-39,-1,0,2,0,2
1523209088060638,-2,-2,1,-3,-3,-3,-2,-4
1523209088060638,0,-1,1,-2,-4,-4,-4,-4
1523209088061641,-2,-1,-8,0,-2,-4,-2,3
1523209088061641,0,0,1,1,-1,0,2,-2
1523209088082787,0,2,-2,-4,-2,-1,-2,-1
1523209088082787,0,-1,-2,0,0,-1,-2,-1
1523209088084707,-1,0,-6,2,0,1,0,3
1523209088084707,-2,0,5,-4,-1,-2,-1,0
1523209088096973,-1,-2,-4,-4,-6,-4,-4,-1
1523209088096973,-2,-1,3,-1,-1,-4,-4,-2
1523209088112009,-1,-1,3,3,5,4,2,3
1523209088112009,0,-2,10,0,1,2,0,0
1523209088120799,-2,-2,1,-3,-1,-1,-2,-1
1523209088120799,-2,-3,-6,1,0,-1,-2,0
1523209088121801,-2,-2,0,-3,-4,-3,-2,-2
1523209088121801,-1,-3,3,-1,1,0,1,-1
1523209088142858,-2,-1,-7,-2,-2,-1,0,-1
1523209088142858,-2,0,-3,-2,-4,-4,-2,-3
1523209088144862,-1,-1,3,-2,-1,-2,0,-3
1523209088144862,0,0,2,-1,-1,-1,0,2
1523209088156894,-1,-2,-1,0,-2,-3,-4,-2
1523209088156894,-1,-2,1,-1,1,2,0,-2
1523209088165918,-1,0,0,0,-1,-1,0,0
1523209088165918,-1,1,5,0,-1,-2,-3,-1
1523209088180958,0,1,8,-1,0,-1,0,-1
1523209088180958,-3,-6,-5,-4,-2,-1,-2,-2
1523209088182115,0,-1,-3,0,-1,0,0,0
1523209088182115,-1,-1,25,1,0,0,-1,-2
1523209088203018,-2,1,-5,2,2,2,1,0
1523209088203018,-2,-1,0,-4,-5,-5,-2,-2
1523209088205022,0,-2,2,-2,-2,-3,-2,-2
1523209088205022,-2,0,1,1,1,3,0,-1
1523209088217055,0,0,-4,0,2,1,1,2
1523209088217055,-1,0,0,-1,-1,-1,-2,-1
1523209088226078,-2,-2,-8,-6,-6,-5,-3,-3
1523209088226078,-1,-2,-6,0,-1,-3,-3,-4
1523209088240350,1,0,-1,1,2,0,0,0
1523209088240350,-1,0,-2,-1,-3,-2,-2,-2
1523209088242123,0,0,0,-2,0,-2,-1,0
1523209088242123,-2,-2,-6,0,-4,-2,0,1
1523209088263412,0,-3,-1,-1,-2,-2,-4,-1
1523209088263412,0,-1,2,4,3,5,2,1
1523209088265182,0,-2,-1,-3,-4,0,-1,0
1523209088265182,-1,-2,-4,-1,-3,-4,0,-2
1523209088276212,-2,-2,-1,1,-1,1,0,1
1523209088276212,-1,1,0,-2,-2,-3,0,0
1523209088286250,-2,-3,-3,-1,-5,-3,-3,-2
1523209088286250,1,-1,-2,0,-1,0,-1,-2
1523209088300275,-1,1,-4,-3,0,5,3,1
1523209088300275,0,0,5,4,2,3,2,-2
1523209088302281,-2,3,0,-5,-1,-3,-3,-3
1523209088302281,-3,-6,-16,-2,-4,-5,-4,-1
1523209088323338,-2,-5,8,-3,-4,-4,-3,-2
1523209088323338,1,0,0,0,0,0,-1,-2
1523209088324342,0,-2,1,3,2,2,0,0
1523209088324342,0,1,-18,-2,-1,-1,-2,1
1523209088336373,-1,-1,-3,-1,-2,-2,-1,-3
1523209088336373,-3,-3,-3,-5,-3,-4,-1,-2
1523209088345613,1,1,-1,3,2,0,-1,-1
1523209088345613,-2,0,4,-1,0,1,-1,-2
1523209088360434,0,-2,-1,-1,-2,-2,-2,0
1523209088360434,-1,1,-4,0,-3,-1,-1,-1
1523209088362440,-1,-2,-1,-2,-1,-3,-1,1
1523209088362440,-1,1,6,-2,-3,-3,-1,0
1523209088383501,-3,-1,-3,0,-2,-1,-1,-3
1523209088383501,1,-1,1,1,1,2,0,0
1523209088384514,-1,-1,-2,0,1,2,-3,1
1523209088384514,-1,-1,2,-3,0,1,0,0
1523209088396765,-3,-1,-2,1,-2,-1,-3,-2
1523209088396765,-1,-2,-4,-4,-1,-2,-2,0
1523209088405554,-1,0,-1,-2,-3,-3,-2,-2
1523209088405554,-1,-2,-1,-4,-3,-1,-1,-2
1523209088420594,-1,0,9,1,2,3,0,-2
1523209088420594,1,-1,-9,2,0,1,0,1
1523209088422600,-2,-5,6,0,0,-2,-2,-2
1523209088422600,0,1,7,2,0,0,-2,-1
1523209088442820,-2,-7,-8,-5,-3,-3,-3,-1
1523209088442820,-1,1,1,-3,-4,-4,-1,-2
1523209088450682,-1,-1,-3,-2,-3,-2,-2,0
1523209088450682,-1,0,3,-1,-1,-2,-1,-2
1523209088456691,1,1,-5,3,3,3,2,2
1523209088456691,-1,-2,3,2,0,-2,-2,0
1523209088465715,-2,-1,-2,-4,-1,0,1,0
1523209088465715,-1,-1,-2,0,-1,0,1,-2
1523209088480990,0,1,-2,-2,0,-3,-1,-1
1523209088480990,-1,-3,-1,-2,-1,-2,-1,0
1523209088481757,-1,-2,-2,0,-2,-2,-3,0
1523209088481757,0,-1,-3,2,3,3,2,1
1523209088502813,-2,1,-1,1,1,-1,-1,1
1523209088502813,-1,1,1,-6,-6,-4,-4,-2
1523209088504818,-1,0,-3,-2,-5,-5,-2,-3
1523209088504818,-2,-1,4,1,2,4,2,0
1523209088525874,-2,-2,-3,1,3,0,1,0
1523209088525874,-2,-2,3,-2,1,-1,-1,0
1523209088526879,-1,0,-6,-4,-3,0,-2,0
1523209088526879,0,-2,-4,-6,-6,-7,-3,-4
1523209088540915,0,-2,0,0,-2,-3,-3,-3
1523209088540915,0,2,5,5,6,7,4,1
1523209088541918,-3,-4,-16,-2,1,2,0,0
1523209088541918,0,-2,1,-1,-2,-2,-2,0
1523209088563210,-2,-1,-3,-3,-4,-2,-3,-2
1523209088563210,-2,-1,-7,-3,-4,-4,-4,-1
1523209088564978,1,1,9,0,-1,-3,0,-2
1523209088564978,-3,-2,-4,-2,1,0,0,-1
1523209088586067,1,-2,-2,-1,0,0,0,-1
1523209088586067,-3,0,0,-1,-1,-1,-2,-2
1523209088587037,0,1,4,0,-2,-2,0,0
1523209088587037,-2,-1,0,-4,-3,-6,-5,-1
1523209088601085,0,-1,0,3,3,4,2,0
1523209088601085,0,1,-1,-2,-1,-1,-1,-1
1523209088602090,-1,-1,-1,-1,-2,-1,0,-2
1523209088602090,1,0,-3,-2,-1,-4,-2,-2
1523209088623133,0,-1,-1,-2,-2,-1,-1,1
1523209088623133,-1,-2,-2,-1,-1,-3,0,0
1523209088625144,0,-1,-1,4,6,4,3,0
1523209088625144,0,-1,-5,-1,2,4,2,1
1523209088646234,-1,3,16,-3,-3,-5,-3,-3
1523209088646234,-1,-2,-2,-2,-2,-3,-1,-2
1523209088647196,-1,-3,1,-2,-4,-5,-3,-3
1523209088647196,0,0,1,1,1,2,0,0
1523209088660468,0,0,-5,-1,-3,-1,-1,-1
1523209088660468,-2,-4,-2,-1,1,1,0,-3
1523209088667258,1,1,5,2,2,3,0,0
1523209088667258,-2,-2,-5,-1,-3,-1,-1,-2
1523209088684303,-2,-1,-5,-4,-4,-4,-3,-2
1523209088684303,1,0,-12,-1,-4,-4,-3,0
1523209088685297,-2,0,7,-1,-1,0,0,-2
1523209088685297,-1,0,3,3,1,2,1,1
1523209088705351,0,0,0,-2,-5,-4,-3,-1
1523209088705351,1,-1,7,1,-2,0,-1,-2
1523209088707358,-1,2,2,-1,-2,-2,-2,-2
1523209088707358,-4,-9,-14,-2,-2,-1,-3,-2
1523209088720391,-1,-1,-4,-2,-2,-1,-1,0
1523209088720391,1,-1,0,-1,0,-2,-1,-1
1523209088726407,-1,-2,4,-4,-7,-6,-4,-3
1523209088726407,-2,0,4,2,3,2,1,-2
1523209088743688,1,2,-5,3,6,8,6,2
1523209088743688,-3,-2,-3,-2,-3,-1,-1,-1
1523209088744456,2,-3,-11,-4,-3,-2,-3,-2
1523209088744456,-2,2,-1,-4,-4,-5,-2,-1
1523209088765558,-3,-4,5,1,-1,-3,-1,-3
1523209088765558,0,0,-3,0,0,0,0,-1
1523209088767525,-1,-3,-7,3,3,3,0,0
1523209088767525,0,0,9,-2,-2,-1,0,0
1523209088779548,1,0,-1,-6,-5,-5,-3,-1
1523209088779548,-2,0,-8,-1,-3,-4,-3,-1
1523209088786568,-2,0,11,2,4,1,-1,-2
1523209088786568,1,0,-2,-2,0,1,-2,1
1523209088802609,0,-2,-3,-2,-1,-4,-3,-1
1523209088802609,1,-1,-1,0,0,3,2,0
1523209088804617,0,1,-6,-1,-1,-2,0,0
1523209088804617,-2,-1,2,-1,-4,-3,-3,-3
1523209088825702,0,-1,9,2,1,1,-1,-1
1523209088825702,-1,-2,-13,-2,1,0,-1,1
1523209088827676,-1,-2,-1,-3,-2,-2,-2,-1
1523209088827676,1,1,0,1,2,-2,1,-2
1523209088839943,-1,-3,-17,0,-1,-2,-1,-1
1523209088839943,-2,-4,11,-5,-5,-2,-3,-3
1523209088846962,-1,-3,-5,-1,-1,0,1,0
1523209088846962,1,-1,-2,3,2,3,1,0
1523209088863791,-2,-1,0,-3,-1,-2,-2,-3
1523209088863791,1,-1,0,-2,-1,-1,-1,-2
1523209088864775,-3,-3,-5,-3,-4,-3,-1,1
1523209088864775,-1,1,1,-2,-2,-3,-3,0
1523209088885833,-2,-2,1,0,0,0,0,0
1523209088885833,-1,-1,2,-2,0,0,0,-1
1523209088886833,0,-3,-2,-3,-2,-4,-3,-2
1523209088886833,-2,2,3,1,1,3,2,-1
1523209088899867,-1,-5,-8,-2,-2,-3,-3,0
1523209088899867,0,0,-1,-3,-2,-4,-3,-1
1523209088906928,0,-3,-3,1,2,2,1,3
1523209088906928,-2,-3,-3,-1,0,-1,-2,-1
1523209088922931,-2,-1,3,0,0,0,0,0
1523209088922931,-2,-1,-1,-2,-4,-3,-1,-2
1523209088924938,-1,-2,2,-1,-4,-3,-3,-3
1523209088924938,1,-1,0,1,2,2,1,-1
1523209088946215,1,1,-3,0,1,3,-1,1
1523209088946215,-1,0,9,0,1,-1,-1,0
1523209088946994,-2,-2,-17,-3,-2,0,0,-2
1523209088946994,-2,-6,-21,-6,-6,-6,-2,-3
1523209088960029,-2,-1,0,0,-2,-3,-1,-2
1523209088960029,0,-2,1,-2,0,0,0,-1
1523209088967053,0,1,-1,1,1,1,0,-2
1523209088967053,1,1,4,2,4,4,1,2
1523209088983090,-1,-2,11,0,-1,-2,-1,-1
1523209088983090,-3,-1,-21,-4,-1,-1,-1,-1
1523209088985095,-2,-2,2,-2,-3,-2,-1,-1
1523209088985095,-3,0,2,-3,-5,-4,-3,-1
1523209089005149,-3,-2,5,1,-2,-3,-1,-1
1523209089005149,0,-1,1,3,2,3,1,0
1523209089007153,-1,0,-1,0,-1,0,-1,0
1523209089007153,-1,-1,-1,-3,-4,-4,-3,-1
1523209089019185,0,1,-7,-6,-5,-4,-4,-2
1523209089019185,0,1,3,3,3,3,3,0
1523209089028211,1,-3,7,-1,1,1,-1,-2
1523209089028211,-3,0,7,-3,-2,-3,-2,-1
1523209089043249,-3,-4,-8,0,-1,-2,-3,-2
1523209089043249,-1,-3,4,1,1,0,-1,0
1523209089045268,-1,0,-2,-2,1,1,-1,0
1523209089045268,0,-1,0,-2,-4,-3,-3,-2
1523209089065351,-1,-3,-4,-3,-3,-3,0,-1
1523209089065351,-1,0,6,-1,-1,-2,-2,-3
1523209089067314,0,4,-10,3,4,2,1,1
1523209089067314,-3,-7,-20,-3,-3,-3,-2,-1
1523209089079580,0,1,5,-1,1,0,0,0
1523209089079580,-1,-1,0,-3,-3,-1,-1,0
1523209089088370,-1,-3,-4,-5,-7,-7,-3,-3
1523209089088370,1,1,5,2,2,3,0,-1
1523209089103408,-1,0,1,3,6,7,4,2
1523209089103408,-1,-1,5,-1,-4,-4,-2,-1
1523209089104411,-4,-3,3,-3,-6,-2,0,-3
1523209089104411,0,0,1,3,-1,-2,-1,-1
1523209089125467,0,1,-5,-1,0,1,0,0
1523209089125467,0,-3,-8,-3,-4,-2,-1,-2
1523209089127474,0,0,7,1,-3,-3,-2,-2
1523209089127474,0,-1,-9,-2,-1,1,1,0
1523209089139745,-1,1,3,2,-1,-1,-1,1
1523209089139745,-2,-2,3,1,3,3,1,-1
1523209089148528,0,-4,-11,-2,-2,-1,-1,0
1523209089148528,1,1,29,-5,-4,-5,-3,-1
1523209089163739,1,-2,-34,1,0,1,2,0
1523209089163739,0,2,-18,-1,0,2,1,0
1523209089164572,-7,-10,10,-4,-3,-3,-2,-3
1523209089164572,-2,0,-2,1,-2,-1,0,0
1523209089185632,-2,1,8,-4,-5,-5,-3,-2
1523209089185632,-1,-2,-20,1,-1,-1,-1,2
1523209089187632,1,6,8,2,3,6,1,1
1523209089187632,-3,-4,-18,-1,-2,-3,-3,-2
1523209089199666,-2,-1,9,-1,-3,-2,-1,-1
1523209089199666,-1,3,39,2,1,1,-2,-1
1523209089208689,-3,-9,-55,-6,-1,-1,-2,-1
1523209089208689,-1,2,-5,-4,-2,1,-3,-1
1523209089222726,0,-2,-12,1,-2,-2,-1,-2
1523209089222726,-1,-1,13,-1,-4,-3,-3,-1
1523209089224733,2,4,21,1,0,-1,0,-2
1523209089224733,-1,-2,12,1,3,1,1,-1
1523209089246022,-1,-3,-2,-4,-1,0,-1,0
1523209089246022,0,-1,-12,-3,-2,-2,-1,0
1523209089246790,0,-1,10,-2,-4,-2,-3,-3
1523209089246790,-1,0,-7,-2,-4,-5,-1,0
1523209089258822,1,2,18,2,2,1,0,-1
1523209089258822,-3,-3,-13,-3,0,-1,0,-2
1523209089267890,0,3,-4,2,2,1,1,2
1523209089267890,-1,1,10,1,0,2,0,-1
1523209089282887,-2,-4,-7,-4,-4,-5,-2,-3
1523209089282887,-1,-2,-4,-2,-1,-1,0,-2
1523209089284891,-2,0,-1,-2,-3,-2,-2,0
1523209089284891,-2,-2,-4,2,1,-1,-1,-1
1523209089305950,-1,-2,1,0,0,1,-1,-1
1523209089305950,0,-1,-1,-1,-3,-3,-4,-1
1523209089306949,-1,0,6,-1,0,-1,-1,-2
1523209089306949,-2,-2,1,-3,-4,-3,-2,0
1523209089318982,-3,-2,3,-3,0,0,0,-2
1523209089318982,-1,0,-1,1,3,2,2,0
1523209089328121,-1,2,-6,0,-3,-1,-2,0
1523209089328121,0,-1,5,-1,-1,0,0,-2
1523209089343046,1,-1,6,2,1,3,1,0
1523209089343046,-3,-2,1,-2,-5,-4,-2,-2
1523209089345052,1,0,-4,2,2,2,3,-2
1523209089345052,1,-3,-11,1,0,0,-1,0
1523209089366109,1,1,4,-3,-4,-3,-3,-2
1523209089366109,-2,-2,-4,-2,-3,-3,-1,-2
1523209089367112,-1,2,-6,0,1,-1,-1,-1
1523209089367112,-1,0,10,-1,1,1,1,1
1523209089379377,-3,-6,-13,-5,-4,-4,-1,-2
1523209089379377,0,0,1,-1,-4,-2,-2,-3
1523209089388166,1,1,3,0,1,-1,1,-1
1523209089388166,-2,-1,0,2,2,1,0,1
1523209089403205,-1,0,0,-1,-2,0,-1,-1
1523209089403205,-1,-1,-1,-4,-3,-3,-2,-2
1523209089405211,-1,-2,9,0,-3,-1,-2,-1
1523209089405211,-3,-5,-19,-4,1,0,1,0
1523209089425267,0,-1,-8,-1,-3,-2,-3,1
1523209089425267,-2,-3,6,1,1,1,1,-2
1523209089427270,1,1,7,0,2,2,0,0
1523209089427270,1,3,-13,2,-1,-1,0,0
1523209089448366,-3,-7,-12,-8,-6,-6,-3,-2
1523209089448366,-2,0,-7,-1,-3,-4,-2,-2
1523209089449328,-2,-4,-5,2,2,1,-1,0
1523209089449328,0,0,22,3,2,2,1,-1
1523209089464408,-1,4,-25,-1,1,1,1,1
1523209089464408,-4,-5,13,-4,-3,-3,-3,-2
1523209089465373,-4,-3,-33,-4,-3,-3,-2,-2
1523209089465373,-1,-1,-3,1,3,2,1,1
1523209089485425,2,1,6,1,1,1,0,-1
1523209089485425,0,-1,8,-3,-2,-3,-1,1
1523209089487429,0,2,14,-3,-4,-7,-4,-3
1523209089487429,0,-2,7,1,0,0,0,-2
1523209089508485,1,1,-9,3,6,7,3,2
1523209089508485,-1,-2,-18,-5,-1,-1,-2,0
1523209089509489,-1,0,13,-3,-5,-4,-1,-1
1523209089509489,0,1,0,-6,-8,-5,-7,-2
1523209089522522,-4,-2,10,1,1,0,-2,-3
1523209089522522,1,2,-7,3,2,3,1,-1
1523209089524528,-2,0,-3,-1,0,1,1,1
1523209089524528,-3,2,1,-3,-4,-4,-2,-1
1523209089545819,-1,-3,8,-1,-2,-4,-4,-2
1523209089545819,-1,-2,-2,2,3,2,-1,0
1523209089547589,0,0,5,1,1,0,0,0
1523209089547589,-2,-5,-11,-3,-3,-4,-3,-2
1523209089567702,-1,-1,8,-1,-1,-3,-2,-2
1523209089567702,0,1,0,3,3,3,1,1
1523209089569648,-1,-1,-2,0,-1,1,0,0
1523209089569648,-2,0,0,-3,-2,-1,-1,-2
1523209089583692,-1,0,-9,0,-5,-5,-2,0
1523209089583692,-2,-2,-1,1,-3,-3,-1,-1
1523209089584689,-1,-1,-2,2,3,3,0,1
1523209089584689,-1,1,-5,-3,-3,-3,-4,-3
1523209089605745,-2,-5,11,-4,-3,-4,-4,-2
1523209089605745,0,-1,2,3,1,4,1,-1
1523209089606747,0,-3,-16,-2,0,0,-1,0
1523209089606747,-2,0,4,0,-1,1,0,0
1523209089628810,-1,-1,10,-2,0,-3,-1,0
1523209089628810,-2,-2,1,-2,-4,-4,-4,-1
1523209089629808,0,-2,2,-1,-1,0,0,-1
1523209089629808,-1,-2,-1,1,0,1,1,0
1523209089642843,-2,1,-5,1,0,2,1,-2
1523209089642843,0,0,1,-2,0,-2,0,0
1523209089648859,-1,-2,5,-4,-4,-4,-4,-3
1523209089648859,-1,-3,-7,-2,-1,-2,-2,-2
1523209089665908,-1,2,-15,-1,-1,1,1,0
1523209089665908,0,2,24,-2,-2,-2,-3,-2
1523209089666914,-2,-3,5,0,2,2,0,-1
1523209089666914,1,1,-2,0,3,-1,0,0
1523209089687964,-1,-4,-6,-1,-1,-1,0,-2
1523209089687964,-2,-1,1,-2,-1,-1,1,-2
1523209089689968,-2,-4,-18,-4,-5,-5,-4,-1
1523209089689968,-1,-1,7,1,3,2,2,-1
1523209089702045,1,4,7,0,0,1,-1,-1
1523209089702045,-1,-9,-10,-3,-4,-4,-2,-1
1523209089709019,0,1,1,0,-2,-2,-2,-3
1523209089709019,-2,0,2,0,-1,0,0,-1
1523209089726062,-1,0,6,-2,-1,-2,-1,-1
1523209089726062,1,2,-6,0,0,2,1,1
1523209089727066,-3,-1,0,-2,-2,-3,-2,-1
1523209089727066,0,-6,-25,2,-2,-3,-1,0
1523209089748122,-1,0,40,-2,-1,-3,-1,-3
1523209089748122,-2,-7,-36,-2,-2,-3,-3,-2
1523209089750133,1,1,28,0,1,-1,1,1
1523209089750133,-1,2,17,-2,-1,0,0,0
1523209089762396,-1,-4,-25,-4,-3,-4,-4,-1
1523209089762396,0,5,14,1,-2,-2,-2,-3
1523209089770180,-2,0,-7,2,0,2,0,-1
1523209089770180,-2,-4,7,-4,-2,-3,-2,-1
1523209089785223,-2,1,3,0,0,3,2,-1
1523209089785223,0,0,-16,-2,0,1,0,0
1523209089785223,0,-1,10,-6,-3,-4,-2,-2
1523209089785223,0,0,12,0,0,1,1,-2
1523209089807280,-1,-1,-11,1,3,2,1,0
1523209089807280,0,-5,-12,-2,-1,-1,-1,0
1523209089808282,-1,0,3,-1,-2,0,-2,-1
1523209089808282,-1,-1,-11,0,-1,-2,0,-1
1523209089821316,-2,-3,-6,-1,-1,-2,-1,0
1523209089821316,-1,3,14,1,-1,0,1,0
1523209089830563,-2,-1,-4,-2,-1,-1,-1,-1
1523209089830563,-2,-2,-8,-2,-2,-4,-3,-2
1523209089845538,0,1,0,3,0,3,-1,0
1523209089845538,-1,-1,2,-1,-2,-3,-2,-1
1523209089845538,-1,-1,-5,0,2,3,1,0
1523209089845538,0,0,7,-3,-3,0,-3,0
1523209089867444,-3,-8,-28,-3,-2,-3,-3,-3
1523209089867444,0,1,4,2,3,1,0,0
1523209089868441,-2,-4,3,-3,-4,-1,-1,-2
1523209089868441,0,0,-9,-1,-2,-1,-1,-3
1523209089881475,-1,0,17,-1,-3,-4,-1,-1
1523209089881475,-1,-3,-12,-5,-3,-3,-2,-1
1523209089889498,-1,0,-13,2,3,2,2,0
1523209089889498,-3,-3,-1,0,3,2,0,1
1523209089904537,-1,-1,-3,-2,-1,-1,1,1
1523209089904537,-2,1,-10,-1,-1,-2,-1,-1
1523209089905541,0,-4,3,-4,-5,-4,-3,-1
1523209089905541,-2,-1,0,-1,-3,-2,-2,-2
1523209089927833,0,-1,-2,0,2,1,0,0
1523209089927833,-2,-2,4,0,1,1,1,-1
1523209089928601,-2,1,-3,-1,-2,-3,-1,-1
1523209089928601,-2,-3,-5,-1,-1,1,0,-2
1523209089941640,0,1,-1,1,1,2,-1,1
1523209089941640,0,-1,4,-1,-2,-1,-1,0
1523209089949663,0,-2,2,1,0,0,-2,-2
1523209089949663,1,-1,-5,-1,0,-2,-2,-1
1523209089964696,-2,1,5,-1,-3,-1,-2,-1
1523209089964696,-2,-2,2,-2,0,-1,0,-1
1523209089965706,-1,-2,-11,-2,-3,-2,1,-2
1523209089965706,-1,1,12,-4,-5,-5,-3,0
1523209089987760,0,0,8,0,1,0,-1,-2
1523209089987760,-1,-2,-2,1,2,2,1,1
1523209089987760,0,0,0,-4,0,1,-1,-1
1523209089987760,1,1,3,-3,-5,-5,-1,0
1523209090001798,-2,-6,-2,-4,-2,-4,-4,-2
1523209090001798,1,2,10,2,4,4,1,0
1523209090009817,-2,-4,-8,1,2,1,0,-1
1523209090009817,-1,1,1,-4,-5,-3,-2,-2
1523209090025094,1,1,-11,1,-1,-1,-1,-1
1523209090025094,-2,-2,12,-3,-2,-1,-1,0
1523209090025860,-2,-3,1,0,-4,-4,-4,-1
1523209090025860,0,0,-8,2,2,3,1,0
1523209090047918,0,-1,9,1,1,2,1,-1
1523209090047918,2,0,-4,-2,0,-1,0,-1
1523209090047918,0,0,1,0,0,-2,-1,-1
1523209090047918,-3,-5,-3,-5,-4,-4,-3,-3
1523209090062191,-1,0,-1,1,-1,-1,0,-1
1523209090062191,-1,-2,-7,-1,0,0,0,-1
1523209090069979,2,5,7,-1,-2,-2,-2,1
1523209090069979,-1,-1,6,0,-1,-1,-1,-2
1523209090085020,0,0,-4,1,3,1,0,0
1523209090085020,-2,-2,1,-3,-2,-3,-2,0
1523209090086021,-2,0,-4,-2,-1,-2,-2,-2
1523209090086021,-2,-4,-8,-2,0,-1,-1,0
1523209090107075,0,2,8,-2,-3,-2,1,-2
1523209090107075,-1,0,-6,0,-1,-1,-1,-2
1523209090108079,0,2,-1,1,2,3,1,0
1523209090108079,0,1,1,-1,0,2,-2,-1
1523209090122158,-1,-1,-3,-4,-8,-7,-5,-2
1523209090122158,-1,-3,-15,-1,-2,-4,-4,-4
1523209090130373,1,1,-2,3,4,4,4,0
1523209090130373,0,1,-6,1,3,2,2,1
1523209090145412,-1,-3,-9,-1,-1,0,-1,0
1523209090145412,-2,2,2,-2,-5,-3,-3,-2
1523209090145412,0,0,0,-3,-5,-6,-4,-2
1523209090145412,-1,1,4,-1,1,-2,-2,-1
1523209090167235,-1,-4,-24,0,3,3,1,2
1523209090167235,-2,-2,5,1,1,1,-1,-2
1523209090168240,0,-4,-4,2,1,1,0,0
1523209090168240,-2,-2,-3,0,-2,-1,-2,0
1523209090181272,-1,0,4,-3,-5,-6,-4,-2
1523209090181272,0,-4,-8,-2,-2,-3,-3,-1
1523209090190298,-3,-1,-4,-1,-1,-1,-1,-1
1523209090190298,1,1,-2,3,2,3,2,0
1523209090205337,-1,1,6,-1,0,0,-1,0
1523209090205337,0,0,10,-2,-1,-2,0,-2
1523209090205337,-1,-2,11,-2,-3,-3,-3,-3
1523209090205337,-3,-4,-14,-3,-2,-3,-2,-2
1523209090227632,1,1,9,0,2,0,-1,-1
1523209090227632,-1,-2,-1,-2,-1,2,-1,0
1523209090228397,-1,2,-8,-1,0,0,-1,-2
1523209090228397,-1,0,43,7,0,-2,-1,-2
1523209090241433,-2,-1,-9,-5,-1,-3,-1,0
1523209090241433,-2,1,12,-1,-1,-1,1,-2
1523209090250466,0,-2,2,0,-1,0,0,1
1523209090250466,0,-2,-11,5,1,0,0,-1
1523209090264493,-2,-4,25,0,2,2,1,0
1523209090264493,0,-3,-13,-2,-1,0,1,-1
1523209090265500,-2,-1,6,-4,-6,-4,-3,-2
1523209090265500,-1,1,-12,1,-1,-1,-1,0
1523209090287608,1,-1,1,0,5,2,0,-1
1523209090287608,0,-2,-10,0,0,1,0,0
1523209090288558,-3,-1,-5,-3,-1,-2,0,-2
1523209090288558,-1,-2,-11,-5,-3,-4,-2,-1
1523209090301594,-2,1,14,3,-2,-2,-1,-2
1523209090301594,1,0,-19,-4,0,0,0,1
1523209090310616,1,0,-2,0,1,1,0,-1
1523209090310616,-1,-4,2,-5,-4,-1,-1,-2
1523209090324654,-1,0,-14,-2,-3,-2,-3,-3
1523209090324654,-1,1,10,1,-1,-2,-1,-2
1523209090325657,-3,-9,-5,-2,0,-1,3,1
1523209090325657,0,1,8,0,0,0,1,-1
1523209090347714,-1,-4,-52,-7,-3,-1,0,0
1523209090347714,0,-1,4,1,-2,-3,-2,0
1523209090348723,-2,1,3,-1,-1,-2,-3,-2
1523209090348723,0,-2,-5,0,2,2,1,0
1523209090361987,-1,-1,1,3,-1,-3,-2,-3
1523209090361987,0,2,-2,-2,-4,-2,-1,-1
1523209090369774,1,4,7,1,-3,-2,-2,0
1523209090369774,-2,-9,-11,0,-1,0,-1,-1
1523209090384815,0,-1,8,1,-2,-2,-3,1
1523209090384815,-1,-1,-7,-3,-3,-4,-3,-2
1523209090385816,1,2,1,3,4,3,2,0
1523209090385816,-1,0,2,-3,1,3,-1,2
1523209090407875,-1,-1,9,-3,-5,-5,-2,-2
1523209090407875,-1,-2,1,-1,-3,-4,-3,-1
1523209090407875,-3,-6,-11,2,1,-1,2,-1
1523209090407875,0,0,11,-3,0,0,0,-1
1523209090430935,-2,-1,-4,-1,2,4,0,0
1523209090430935,-1,1,7,0,0,-2,-1,-1
1523209090431941,-1,-1,0,-4,-4,-4,-2,-3
1523209090431941,-2,-1,-17,-4,-1,-6,-2,-2
1523209090445209,0,-2,8,-1,-3,-2,-2,-1
1523209090445209,0,0,-21,2,4,3,1,-2
1523209090445977,0,-1,0,0,0,3,0,0
1523209090445977,-1,-1,-1,-2,-4,-3,-3,-2
1523209090467033,1,-1,-7,-2,-2,-3,-2,1
1523209090467033,-1,-2,5,-1,-1,-1,0,-1
1523209090468035,-1,-3,-15,-8,-2,-1,-3,0
1523209090468035,-1,2,-2,0,0,1,1,-1
1523209090490096,0,1,6,1,2,3,1,1
1523209090490096,-2,-6,3,1,-2,-1,-1,-2
1523209090491097,0,3,-1,0,0,-1,-3,-1
1523209090491097,0,-1,-1,-3,-3,-3,-1,0
1523209090505136,0,0,2,-1,-2,-2,0,-4
1523209090505136,-2,-5,-1,-1,-1,-1,-1,0
1523209090506138,0,0,0,1,1,2,0,0
1523209090506138,-1,0,-6,-1,-1,-1,-2,-1
1523209090527427,-3,-7,-1,-1,-2,-1,0,-1
1523209090527427,-3,1,-7,-5,-5,-3,-3,-3
1523209090528193,-1,1,10,-3,-6,-5,-2,-4
1523209090528193,0,-1,-3,2,1,1,-1,1
1523209090550300,-1,-1,-1,3,5,6,3,0
1523209090550300,1,0,2,2,1,2,2,1
1523209090551256,0,-2,-16,0,-3,-2,-3,-1
1523209090551256,-3,0,4,-8,-5,-6,-2,-3
1523209090565293,-2,0,2,1,-3,-4,-1,-1
1523209090565293,-1,1,-3,-3,-3,-3,0,-1
1523209090565293,-1,0,-6,2,-2,1,0,0
1523209090565293,1,-1,13,0,0,-1,-1,-1
1523209090587587,-1,-2,-23,-1,0,-1,-2,-2
1523209090587587,0,2,6,1,3,3,1,-2
1523209090588354,-1,-3,7,-3,-3,-3,-2,-1
1523209090588354,-2,-1,-9,-1,-2,-1,-1,-2
1523209090610649,-1,-3,3,-3,-2,1,0,-3
1523209090610649,-1,-2,3,-1,0,-2,-1,0
1523209090611415,-1,-2,-3,-2,-1,-1,0,-1
1523209090611415,-2,1,-2,1,1,2,-1,-1
1523209090625539,0,1,6,2,1,0,1,1
1523209090625539,0,-2,2,-2,-1,-2,-1,0
1523209090625539,-3,-3,-3,-2,-1,-1,0,0
1523209090625539,0,-2,-4,-2,-2,-2,-1,-2
1523209090647511,0,0,1,-1,-1,0,0,0
1523209090647511,-1,0,-1,-1,-4,-3,-2,-3
1523209090648516,-1,-2,11,0,-1,-1,-1,-1
1523209090648516,-2,-4,-19,0,2,3,1,-2
1523209090670573,-1,2,-6,-4,-4,-2,-1,-1
1523209090670573,0,0,8,-2,-2,-2,-3,0
1523209090671576,-3,-4,-7,-1,-3,-1,-2,-1
1523209090671576,0,-1,-2,0,0,1,0,-1
1523209090684612,-1,1,8,-1,1,-1,-2,0
1523209090684612,0,-4,-7,-3,-2,-3,-2,-2
1523209090685613,0,1,-1,-2,-4,-4,-2,-4
1523209090685613,0,0,-3,1,1,0,-1,1
1523209090707674,-1,0,3,1,2,2,0,0
1523209090707674,0,-3,-4,-2,0,0,0,-2
1523209090708677,0,-2,-5,-1,1,-1,-2,0
1523209090708677,-4,-5,-2,-3,-6,-7,-4,-3
1523209090730732,0,1,0,0,-1,-1,1,-2
1523209090730732,0,-1,2,1,-1,1,-1,0
1523209090731769,1,0,0,-1,1,2,1,-1
1523209090731769,-1,1,1,-1,-1,0,1,0
1523209090745006,-1,-5,-2,-3,-4,-4,-3,-1
1523209090745006,0,-1,-4,-1,-3,-3,-2,0
1523209090745772,-2,-3,-1,-1,-1,-2,0,-1
1523209090745772,0,0,-14,2,1,3,1,1
1523209090767832,-3,1,14,0,0,2,1,0
1523209090767832,-1,0,0,-2,-1,1,0,0
1523209090767832,0,1,2,-2,-2,-3,-2,0
1523209090767832,-2,-2,-7,-4,-3,-4,-4,-1
1523209090790895,-1,-1,-3,-2,-3,-4,-4,-2
1523209090790895,-2,-1,2,0,2,3,1,1
1523209090790895,-1,1,-4,2,1,3,1,-1
1523209090790895,-1,-3,6,0,-2,-2,-1,0
1523209090804932,-1,2,7,3,2,0,1,-3
1523209090804932,-2,-4,-21,-1,-2,-1,1,-1
1523209090805932,-2,1,6,-1,-1,-4,-1,-1
1523209090805932,0,-2,7,0,-1,-1,0,0
1523209090828032,-1,-3,-5,-1,-3,-2,-2,0
1523209090828032,-1,1,3,2,2,1,-1,0
1523209090828032,0,-2,-3,0,1,2,1,0
1523209090828032,-1,-1,1,-3,-2,-1,-2,-1
1523209090850062,-1,0,-3,-4,-5,-4,-1,-1
1523209090850062,-1,-1,-4,0,-3,-3,-3,-2
1523209090851054,-1,-2,-4,-1,1,0,0,-1
1523209090851054,-1,4,18,0,1,3,0,-1
1523209090865090,0,-4,-15,0,3,2,1,0
1523209090865090,-2,-3,2,-3,-1,-2,-2,-1
1523209090866097,-4,1,-25,-4,-3,-4,-1,-2
1523209090866097,0,-1,0,-1,0,1,1,-2
1523209090887149,-1,0,-2,-2,1,0,1,-1
1523209090887149,-1,-3,2,-2,-2,-2,-1,-1
1523209090888151,-1,2,1,1,-2,-1,-1,2
1523209090888151,-1,-1,-6,-3,-2,-2,-2,0
1523209090911235,-2,-2,-7,-4,-4,-2,-3,-1
1523209090911235,-1,-1,3,-2,-3,-3,-1,-1
1523209090911235,0,-2,6,1,0,1,0,-4
1523209090911235,1,1,-1,6,7,5,5,1
1523209090925302,-2,1,3,-3,1,1,1,0
1523209090925302,-2,2,2,-3,-2,-1,-1,-2
1523209090925302,0,-2,7,-4,-3,-1,-3,-1
1523209090925302,-2,-3,-10,-4,-6,-5,-2,-2
1523209090947307,-1,-2,-4,-1,-1,-1,-3,-2
1523209090947307,1,-1,-2,1,-2,0,0,0
1523209090948313,-1,-2,-1,-2,-2,-3,-2,-1
1523209090948313,0,1,1,-3,-3,-5,-3,-2
1523209090970369,0,-2,-10,4,3,2,2,0
1523209090970369,0,2,11,3,4,3,1,-1
1523209090971372,0,-5,-4,0,1,1,0,-2
1523209090971372,-2,0,17,-1,-1,1,-1,1
1523209090984407,0,-2,-11,-4,-4,-5,-1,-2
1523209090984407,-3,-2,-1,-1,-2,-3,-1,-2
1523209090992664,-1,0,0,-1,-2,-3,-1,1
1523209090992664,-1,-2,-3,-1,-1,0,-1,0
1523209091007468,0,3,14,4,3,1,-1,0
1523209091007468,0,2,10,3,1,0,0,0
1523209091008471,-1,-5,-40,-17,-4,-2,0,-2
1523209091008471,-2,-5,-33,-6,-3,-2,-2,-1
1523209091030528,-1,-1,33,13,1,0,-1,0
1523209091030528,0,-2,-52,-18,-2,-1,0,0
1523209091031537,-1,2,33,9,0,-3,-2,-1
1523209091031537,0,-1,9,-1,-3,-5,-2,-2
1523209091044802,-2,-2,-11,1,0,-1,0,-4
1523209091044802,1,-1,11,10,3,3,1,1
1523209091052587,-1,-1,-1,-3,-1,0,0,-1
1523209091052587,-1,-2,-10,-2,-2,-2,-2,0
1523209091067629,0,0,4,-2,-5,-3,-2,-1
1523209091067629,-3,-1,17,5,-1,-2,0,-2
1523209091068631,-1,1,-29,-1,2,1,0,-1
1523209091068631,0,-3,51,11,0,0,-1,-1
1523209091090691,-5,-10,-78,-54,-12,-8,-6,-4
1523209091090691,1,-1,32,10,2,1,-1,0
1523209091091694,-2,-1,0,-4,0,1,0,1
1523209091091694,-1,4,19,13,1,0,0,0
1523209091104726,-1,-2,12,7,-1,-3,-3,-1
1523209091104726,-3,-2,-18,-10,-2,0,-2,-1
1523209091112983,-2,-1,7,3,-2,-1,-2,-1
1523209091112983,0,-3,-13,-2,2,1,1,-1
1523209091127788,-1,0,10,3,-1,0,1,0
1523209091127788,-1,-1,-5,-3,-3,-4,-1,-1
1523209091128832,-3,3,55,15,-3,-11,-1,-1
1523209091128832,-2,-4,-41,-20,-6,1,-3,-3
1523209091150849,1,1,19,10,13,1,4,1
1523209091150849,1,2,16,5,-2,1,0,1
1523209091151853,-1,0,-17,-4,-1,-2,-2,-2
1523209091151853,-1,-3,1,3,-4,-1,-2,-1
1523209091163885,-2,1,13,2,-3,-1,-2,0
1523209091163885,-1,-1,-10,-4,-2,-5,-1,-2
1523209091173110,0,0,3,-1,1,2,0,0
1523209091173110,-3,3,-9,-3,-4,-4,-1,-1
1523209091186946,1,0,10,6,-2,-1,-1,1
1523209091186946,0,-2,-14,-7,-1,-2,-1,-1
1523209091187947,1,-2,-5,-1,-1,2,-1,-1
1523209091187947,-1,3,22,4,2,-1,0,-2
1523209091211211,-1,-5,-16,-2,-4,-2,-2,-1
1523209091211211,0,1,31,13,1,1,0,-1
1523209091211211,-2,-5,-25,-14,-2,0,-1,-2
1523209091211211,-2,-2,-14,-7,0,-2,0,0
1523209091224278,-1,0,2,3,-1,-2,0,-1
1523209091224278,-1,-2,-7,-1,-1,1,-1,0
1523209091233075,1,0,6,4,5,5,3,1
1523209091233075,-1,0,-1,1,2,1,-2,-1
1523209091247104,0,-1,0,-3,-7,-10,-3,-3
1523209091247104,0,-2,-5,-5,-4,4,-2,-2
1523209091248108,-1,0,-2,4,2,3,0,-2
1523209091248108,0,0,9,-2,2,-2,0,1
1523209091270166,2,0,8,0,2,9,1,0
1523209091270166,-1,-1,-6,-7,-2,-13,-1,-1
1523209091271168,-1,-7,-31,-7,-5,-2,-5,-2
1523209091271168,0,-2,18,-2,-5,-3,-1,0
1523209091284205,-2,-2,-27,-4,4,1,0,-2
1523209091284205,0,1,9,-2,-4,0,0,0
1523209091292264,0,-1,13,5,3,1,1,-2
1523209091292264,0,-1,-14,2,2,3,0,-1
1523209091307267,-2,-1,-7,-3,-5,-1,-1,0
1523209091307267,-1,-1,-7,-3,-1,-1,-1,-1
1523209091308267,-3,1,1,1,-1,-6,-1,1
1523209091308267,0,-2,-8,1,-1,0,-1,0
1523209091330325,-2,2,-8,-5,-5,-2,-3,-2
1523209091330325,-1,-2,-14,0,1,-2,-1,-2
1523209091330325,1,2,20,2,0,2,1,-1
1523209091330325,-1,-3,-2,-1,0,1,-2,0
1523209091353388,-1,-1,-5,1,-1,-1,-1,-1
1523209091353388,-2,-2,3,1,1,1,-1,-2
1523209091353388,-1,0,2,-4,-5,-5,-4,0
1523209091353388,-1,1,9,1,-1,-1,1,-2
1523209091367426,1,2,2,2,0,2,1,0
1523209091367426,-2,-4,-7,-2,0,1,-2,-1
1523209091368427,0,-1,4,-1,-2,-2,-2,-1
1523209091368427,0,0,-25,-3,0,-1,0,-1
1523209091389484,0,2,16,3,0,0,-3,0
1523209091389484,-2,-1,-2,-2,-1,-1,-1,0
1523209091390487,-2,-2,-4,-2,-2,-2,-1,-1
1523209091390487,1,0,13,2,-1,-1,0,-2
1523209091412780,-2,-2,8,-1,-1,-2,-1,0
1523209091412780,0,-4,-6,0,0,-1,1,1
1523209091413546,-1,2,-3,-6,-4,-5,-3,-1
1523209091413546,-2,-2,0,1,-1,-2,-3,-2
1523209091427586,0,-1,2,3,2,2,1,-1
1523209091427586,1,1,-2,-1,-1,1,-2,-2
1523209091428587,-1,-1,1,0,-3,-1,-2,0
1523209091428587,-1,-4,-11,-3,-2,-2,-2,-1
1523209091449644,-2,0,-1,2,4,3,2,2
1523209091449644,-2,0,0,-2,-1,-3,-1,-1
1523209091450645,-1,-1,11,0,-2,-3,-1,-1
1523209091450645,-1,0,-17,-11,-3,-1,-1,-1
1523209091472704,-1,1,9,3,-1,-2,-3,-4
1523209091472704,2,0,-10,-1,0,1,0,-1
1523209091473708,-1,0,-3,0,-1,0,-1,0
1523209091473708,-2,0,4,2,-1,-1,-1,-1
1523209091487791,0,-1,3,-3,-3,-5,-2,0
1523209091487791,-3,0,10,0,-4,-2,-2,0
1523209091487791,0,-3,-6,0,0,-2,-2,-2
1523209091487791,-1,1,1,1,3,3,2,1
1523209091510038,1,-2,-19,-4,-2,0,1,0
1523209091510038,-2,1,15,-1,-1,-1,-2,-2
1523209091510806,-2,-2,-8,-3,1,1,1,-1
1523209091510806,-1,-2,2,3,-2,0,-2,-2
1523209091532868,-1,0,3,0,-2,-1,-3,-1
1523209091532868,-1,-3,-1,-1,-2,-3,-1,0
1523209091533868,-2,-1,-7,-1,-2,-3,-1,-1
1523209091533868,1,-2,5,0,1,-1,-1,-3
1523209091547908,-2,-3,0,-2,-3,-1,-2,-3
1523209091547908,-1,0,-4,-1,0,-2,-1,0
1523209091547908,-1,-1,2,0,-2,1,-2,2
1523209091547908,-3,-2,-3,0,-2,-2,0,-2
1523209091578219,0,2,2,-1,-2,-1,0,0
1523209091578219,-1,-8,-9,0,1,1,-1,-2
1523209091578986,-1,0,5,-1,0,-2,1,1
1523209091578986,-1,0,11,0,-3,-3,-2,0
1523209091593260,-2,-3,-49,-8,-3,-4,-1,-2
1523209091593260,-1,2,8,0,2,1,1,1
1523209091594028,-1,-1,-2,-1,0,0,0,-1
1523209091594028,1,0,1,0,-3,-2,-1,-1
1523209091607063,-2,-4,8,-2,-3,-5,-2,-1
1523209091607063,0,0,-5,-2,-8,-5,-2,-2
1523209091608064,-1,-2,-9,-4,-14,-2,-3,-2
1523209091608064,0,2,3,5,20,3,3,2
1523209091630163,0,0,10,1,-2,2,0,-1
1523209091630163,-1,-2,-3,-2,2,10,1,-1
1523209091631125,0,0,1,1,-1,-8,0,-1
1523209091631125,-1,0,1,-3,-3,4,-1,0
1523209091653184,-2,0,2,0,5,-5,-2,-1
1523209091653184,-1,0,-3,-3,-7,-6,-3,-2
1523209091654189,-2,-3,-1,-2,-4,6,-1,-2
1523209091654189,-2,0,-23,-2,-5,-15,-2,0
1523209091667223,-2,-1,18,0,3,-2,0,-2
1523209091667223,0,2,0,2,1,2,-1,-1
1523209091668225,-2,-2,0,-1,0,-2,-1,-1
1523209091668225,-3,0,0,1,-1,3,-2,-2
1523209091690284,1,0,14,-1,-1,4,2,1
1523209091690284,-2,-3,-28,-2,-2,-5,0,-3
1523209091690284,1,-1,10,0,4,2,-1,0
1523209091690284,-2,-3,-3,-8,-8,-5,-4,-1
1523209091713343,-1,0,1,-2,-6,-6,-4,0
1523209091713343,1,0,9,2,9,2,1,1
1523209091714350,1,1,1,0,-2,0,-1,-1
1523209091714350,0,-2,-6,1,-1,-4,1,-2
1523209091735404,-2,0,2,4,1,3,-4,0
1523209091735404,-1,-5,-10,-3,1,2,1,0
1523209091736406,-3,1,7,-2,-2,0,0,-2
1523209091736406,-2,0,-18,-1,1,-1,1,0
1523209091749443,-2,-1,3,-5,-10,-9,-2,-2
1523209091749443,-1,1,11,-1,-4,1,-2,-1
1523209091750442,-2,-7,-11,2,10,-1,1,0
1523209091750442,-2,-1,16,-1,-5,-1,-1,-1
1523209091773563,0,-1,-4,2,4,1,0,1
1523209091773563,-1,1,-3,-3,-6,-1,-1,0
1523209091773563,-2,0,-8,-7,-6,-6,-3,-3
1523209091773563,-1,1,7,0,-2,4,0,-1
1523209091787548,2,-1,0,5,4,6,1,0
1523209091787548,-2,-1,26,0,4,-1,-1,0
1523209091788544,0,-2,-9,-3,-2,1,1,-1
1523209091788544,0,-1,2,-6,-8,-7,-4,-1
1523209091810601,-1,1,2,-1,-4,-3,-1,-3
1523209091810601,1,1,5,6,4,2,2,1
1523209091810601,-1,0,-6,-1,2,0,0,0
1523209091810601,-5,-5,-1,-5,-3,-2,-2,-2
1523209091832662,-2,-1,-2,-4,-4,-3,-1,-2
1523209091832662,-1,-2,-9,-2,-3,-8,-4,-1
1523209091833664,-1,-1,-6,1,-2,-3,-3,-2
1523209091833664,1,2,14,3,6,7,1,0
1523209091847701,0,-1,-10,-4,4,2,0,-1
1523209091847701,-3,0,-5,-4,-2,-2,-1,-1
1523209091848716,-2,-1,14,0,-1,-1,0,0
1523209091848716,-2,-1,-23,-5,-8,-5,-4,-3
1523209091869761,-2,-2,8,-1,-1,-5,-3,-3
1523209091869761,1,3,-5,4,6,3,3,0
1523209091870763,1,-1,9,0,4,4,1,1
1523209091870763,0,-1,-1,0,-1,1,0,0
1523209091893058,-2,-3,-7,-5,-4,-1,-2,1
1523209091893058,-1,-3,-6,-5,-8,-9,-3,-3
1523209091893824,1,-1,2,1,-4,-4,0,0
1523209091893824,-1,-2,-5,-1,1,0,0,0
1523209091915884,-1,0,-2,1,3,3,1,0
1523209091915884,-1,1,2,1,1,0,-1,-1
1523209091915884,0,2,-2,1,3,3,0,0
1523209091915884,2,1,2,-2,-2,-2,0,-1
1523209091929933,-2,-4,-3,-1,-3,-4,1,0
1523209091929933,-1,-2,-6,-3,-4,-3,-1,-1
1523209091930927,-1,-1,-1,-3,-1,-1,-3,-2
1523209091930927,1,-1,2,-1,-2,0,-2,-1
1523209091952981,0,-1,-3,6,5,4,2,-1
1523209091952981,0,-1,-2,2,4,1,0,-1
1523209091953984,-1,-2,6,-4,-4,-1,-1,-1
1523209091953984,-2,-2,0,-1,-2,-2,-1,0
1523209091967019,-1,-1,10,-3,-6,-5,-1,-1
1523209091967019,-3,-4,-30,-2,-4,-3,-2,-1
1523209091975261,1,0,0,2,4,3,2,1
1523209091975261,0,1,0,-2,1,0,-1,0
1523209091990079,-1,-2,1,-6,-4,-4,-2,-1
1523209091990079,-1,-1,4,-1,-3,-2,-2,-2
1523209091991084,0,0,-7,2,1,0,1,-1
1523209091991084,0,-2,-11,2,-1,1,-1,1
1523209092013139,0,3,-3,-2,-1,-1,-1,-1
1523209092013139,-1,-1,6,-3,-2,-7,-2,-1
1523209092014143,-3,-3,-5,-2,-6,0,-3,-2
1523209092014143,1,0,5,4,5,7,4,-1
1523209092027388,-1,-1,-5,-1,2,-2,-4,-1
1523209092027388,-2,-2,2,-3,-5,14,0,-1
1523209092035199,-2,0,1,-5,-11,-35,-4,1
1523209092035199,-1,-1,-2,3,7,2,0,0
1523209092050242,-1,0,-3,3,14,14,3,0
1523209092050242,0,1,7,4,15,10,0,1
1523209092050242,2,0,-1,-1,-4,4,1,-1
1523209092050242,-2,-2,1,-4,-12,-6,-2,-2
1523209092073535,-2,-3,-8,-4,-10,-9,-4,-3
1523209092073535,-2,-3,3,-2,-8,-7,-1,-2
1523209092074303,-1,0,-3,-2,2,3,-2,-1
1523209092074303,-2,-1,1,-4,-7,-7,-4,-2
1523209092086336,-1,-1,0,0,-4,0,0,0
1523209092086336,1,-1,-5,2,2,-3,1,0
1523209092095558,-2,0,0,0,3,7,0,-1
1523209092095558,0,1,3,-1,6,-1,1,-1
1523209092109633,-1,-3,1,-5,-6,0,-5,-2
1523209092109633,0,-2,0,-4,-8,-3,0,-1
1523209092110399,0,-2,-2,0,-1,-2,-1,0
1523209092110399,-1,-3,0,2,10,5,1,0
1523209092133503,1,-1,-3,3,5,13,3,0
1523209092133503,-1,0,-4,-2,0,-10,-1,0
1523209092133503,-3,0,13,-5,-8,-1,-4,-4
1523209092133503,-2,-5,-34,1,-7,-3,-2,-1
1523209092146495,-1,0,8,-1,5,-1,-2,-1
1523209092146495,-2,-5,1,-1,-3,-1,-2,-1
1523209092154516,-2,1,-3,-5,-5,-3,-2,-1
1523209092154516,-2,0,6,-6,-14,-13,-4,-1
1523209092169557,0,1,-7,3,3,-1,2,-1
1523209092169557,2,1,0,4,13,10,0,1
1523209092170566,0,-3,-1,-1,3,2,0,-1
1523209092170566,-2,-3,5,-3,-4,-2,-1,-3
1523209092193680,-1,-2,-2,-3,-14,-5,-1,-1
1523209092193680,-1,1,5,-4,4,-2,-1,-1
1523209092193680,0,-2,-7,1,-1,-3,-2,-1
1523209092193680,-1,2,7,-1,0,4,-2,-1
1523209092206655,0,5,1,2,1,1,3,2
1523209092206655,-2,-5,-6,-2,-6,-5,-2,-2
1523209092214684,-3,-2,-6,-2,2,3,-3,-1
1523209092214684,0,-1,0,-2,-2,0,1,-1
1523209092229715,-1,-3,3,-5,-5,-11,-2,-1
1523209092229715,-1,-1,-1,-2,-4,-7,-3,-2
1523209092230720,1,1,-4,7,8,9,4,2
1523209092230720,0,0,19,1,4,4,1,0
1523209092252779,-3,-3,13,-5,-1,-1,-3,-1
1523209092252779,-3,1,-1,-3,-6,-2,-3,-1
1523209092253780,0,-5,-3,-5,-5,-4,-3,-2
1523209092253780,0,0,2,-1,-6,-6,-1,0
1523209092266816,-1,-4,-10,2,5,-1,-3,-1
1523209092266816,1,0,3,4,4,6,4,-1
1523209092275071,1,1,7,0,4,3,1,-1
1523209092275071,-1,-3,-16,-3,-3,-2,-1,-1
1523209092289876,-2,-2,-4,-4,-6,-5,-4,-2
1523209092289876,1,1,-3,-2,-7,-4,0,1
1523209092290879,-1,-1,-6,1,-3,-2,-3,-2
1523209092290879,-1,-2,-2,1,5,7,3,1
1523209092312937,-1,-1,-1,-3,-1,-3,-1,0
1523209092312937,-2,-4,-1,-1,-1,-3,-3,-2
1523209092313944,-2,1,2,-3,-3,-2,0,-2
1523209092313944,-2,-2,-4,-3,-2,-2,-3,-3
1523209092335999,-1,0,-1,-1,0,-1,1,0
1523209092335999,0,0,2,-1,0,1,0,-1
1523209092335999,-1,0,6,1,-3,-2,-2,-1
1523209092335999,-1,-3,-16,-6,-4,-2,-3,-1
1523209092350041,-2,0,-5,-1,0,-1,1,-1
1523209092350041,-1,-1,5,1,0,-2,-3,-1
1523209092351040,-3,-2,-1,-1,-3,-4,-1,-1
1523209092351040,0,3,12,3,8,6,3,0
1523209092373332,-1,0,-6,0,0,3,-1,1
1523209092373332,0,-1,-6,-6,-8,-5,-2,1
1523209092374099,0,-2,-3,-3,-3,-1,-2,-2
1523209092374099,-2,0,2,0,6,2,-1,0
1523209092395391,-1,-3,-5,0,0,1,2,0
1523209092395391,-1,-1,2,-2,-4,-1,-1,-1
1523209092396157,0,0,1,1,5,1,2,0
1523209092396157,-1,-1,-19,-5,-7,-4,-2,-1
1523209092410432,0,-4,-5,1,-2,0,-1,-1
1523209092410432,1,1,14,1,-2,1,0,0
1523209092411221,-2,-4,-4,-7,-2,5,-2,-2
1523209092411221,-2,-3,-2,2,-5,-19,-5,-2
1523209092433258,0,3,2,3,4,4,0,1
1523209092433258,-1,0,-2,-1,-1,-5,-2,-2
1523209092434261,-1,-1,-2,-1,-6,4,-1,1
1523209092434261,0,-1,10,1,9,12,3,0
1523209092455316,-1,1,-8,0,-2,-1,-2,-1
1523209092455316,-1,-2,-2,-3,-3,-1,-1,0
1523209092456318,-1,0,-3,0,-1,-5,-2,0
1523209092456318,0,0,8,-1,1,-3,-2,-1
1523209092470355,-1,-1,2,1,-6,-3,-1,-1
1523209092470355,-1,-1,-24,-4,3,5,-1,0
1523209092470355,-2,0,11,1,-1,-4,-1,-3
1523209092470355,-1,-1,-31,0,-5,-1,0,-1
1523209092493418,0,-4,6,-2,-1,-2,-3,-3
1523209092493418,-2,0,-3,-6,-3,-5,-2,-3
1523209092494533,-1,-1,0,0,-1,-2,-2,1
1523209092494533,0,0,10,4,4,3,0,1
1523209092515476,-1,-1,-2,-2,2,1,-1,0
1523209092515476,-1,-2,0,0,-4,-1,0,0
1523209092516481,-1,-1,-3,-2,-1,-1,1,0
1523209092516481,0,1,14,-3,-3,0,-1,0
1523209092529512,0,-1,-23,-7,-5,-5,-2,-1
1523209092529512,-1,-2,-2,-1,-3,-3,-3,0
1523209092530520,0,-2,-19,-1,1,-1,0,-2
1523209092530520,-2,1,8,4,1,3,1,-2
1523209092553577,2,1,6,2,-1,1,0,0
1523209092553577,-1,1,0,2,7,3,0,-1
1523209092553577,-1,0,-4,-1,-3,-3,-1,-2
1523209092553577,-2,-4,-3,-6,-11,-8,-5,-2
1523209092575871,-1,0,6,2,2,-2,0,-1
1523209092575871,1,-1,-15,1,2,7,2,0
1523209092576638,0,1,8,0,1,-3,-1,-2
1523209092576638,0,-1,2,-3,-4,-3,-1,0
1523209092589674,-2,-3,0,-2,-1,0,-1,-2
1523209092589674,0,-2,-3,0,-3,-4,0,1
1523209092590675,0,-1,-3,1,5,3,2,1
1523209092590675,0,0,0,-4,-5,-4,-2,-1
1523209092612738,-1,0,-1,-3,-5,-7,-2,-1
1523209092612738,-1,-1,4,1,4,3,0,-2
1523209092613737,-1,2,3,-1,-1,0,1,-1
1523209092613737,-1,1,4,-2,-3,0,-1,-2
1523209092635794,-1,-3,-23,0,4,3,1,0
1523209092635794,-2,3,8,0,-4,-1,0,-1
1523209092636799,-1,-1,1,0,1,-1,-3,-1
1523209092636799,0,-3,-2,-1,-3,-1,-2,-1
1523209092649838,-2,0,3,-5,-4,-2,-4,-3
1523209092649838,-2,-3,-1,-4,-8,-7,-3,-3
1523209092650835,1,1,-1,4,3,2,0,-1
1523209092650835,0,-2,2,5,9,7,3,0
1523209092672893,-1,-1,-6,-1,1,1,-2,0
1523209092672893,-2,-1,3,-2,-6,-4,-1,-3
1523209092673895,-3,-4,2,-4,-11,-6,-3,-2
1523209092673895,-2,1,-1,-1,4,0,0,-2
1523209092695994,-1,-1,7,3,3,2,1,-3
1523209092695994,-1,1,0,1,1,0,-1,1
1523209092696957,0,-1,-7,-3,-2,-2,-2,-2
1523209092696957,0,-2,-8,-2,-8,-3,-2,-2
1523209092708990,-2,-1,12,-2,-2,-3,-2,-2
1523209092708990,0,0,-2,-1,1,-5,-2,-1
1523209092718013,1,-2,3,2,3,7,4,-1
1523209092718013,-1,2,-5,-2,2,3,0,1
1523209092733060,0,0,1,-3,-7,-3,-2,1
1523209092733060,0,-1,2,0,-2,-4,-3,-2
1523209092735059,-1,-2,-1,-2,1,-4,-1,0
1523209092735059,-3,-2,-2,-1,0,-2,0,-1
1523209092755112,0,-1,0,-3,-4,-3,-1,-1
1523209092755112,0,-1,1,0,1,-2,-2,-1
1523209092757119,0,-1,-4,4,2,2,1,1
1523209092757119,-2,-2,-5,-3,-2,-1,-1,-2
1523209092769151,-2,1,0,-1,3,0,-1,-2
1523209092769151,0,2,0,0,1,1,0,0
1523209092778172,-1,0,-1,-5,-2,-3,-1,0
1523209092778172,-2,-3,1,-1,-4,-4,-3,-1
1523209092793451,-3,-1,-1,-3,-9,-6,-2,0
1523209092793451,-1,-3,-3,-3,-2,-2,-4,-2
1523209092795359,-1,-1,-2,1,2,-1,0,0
1523209092795359,3,0,3,4,7,6,2,1
1523209092815273,-2,-3,-3,-1,0,-1,-1,-1
1523209092815273,-1,-2,7,-4,-4,-1,0,0
1523209092817277,-1,-2,-4,-4,-8,-4,-1,-1
1523209092817277,-1,1,1,1,4,3,3,-1
1523209092829309,0,-1,-1,1,0,3,0,1
1523209092829309,-2,-1,-2,0,-3,-2,-1,-1
1523209092855380,-3,-2,0,-3,-3,-5,-3,-3
1523209092855380,0,0,-2,-3,-4,-5,-1,-1
1523209092856421,1,0,0,0,-1,-1,0,-1
1523209092856421,-1,-2,-10,2,3,-2,-2,0
1523209092859624,-1,0,5,0,3,4,-3,-3
1523209092859624,0,2,2,1,1,-1,-3,-1
1523209092875667,-1,-3,-3,-1,-4,-2,2,0
1523209092875667,-1,0,5,-3,-4,-2,-1,0
1523209092877437,-4,-2,-4,-2,-2,-2,-4,-2
1523209092877437,-1,-3,1,-2,-5,-4,-1,-2
1523209092889469,1,1,2,0,-1,0,-2,0
1523209092889469,0,0,-1,0,0,-2,1,-1
1523209092898493,-1,0,2,3,5,4,2,2
1523209092898493,1,-5,-8,1,0,0,-1,-1
1523209092913536,-1,-2,-4,1,5,3,1,1
1523209092913536,0,-2,3,-3,-2,1,0,-1
1523209092914535,0,0,-1,-6,-6,-5,-3,-3
1523209092914535,-2,-2,-2,-3,-8,-7,-3,-3
1523209092935593,-1,-1,-2,2,2,-1,-1,-1
1523209092935593,0,1,5,2,-2,1,0,-1
1523209092937598,-3,-2,-5,-1,0,2,0,-1
1523209092937598,-1,-1,2,-1,2,1,-1,-1
1523209092949629,-2,-1,-6,-3,-7,-2,-1,-2
1523209092949629,-3,-1,3,-2,-2,-3,-1,0
1523209092958655,-1,-2,3,1,-2,-1,2,-1
1523209092958655,-2,-1,2,-1,4,1,-1,1
1523209092973733,-1,-2,1,-3,-1,-3,-1,-2
1523209092973733,-3,-5,-10,-1,-2,1,0,-1
1523209092974695,-1,0,-4,0,-2,-1,-1,0
1523209092974695,-1,-1,1,-1,-5,-1,0,0
1523209092995751,1,-1,3,-1,-1,-4,-2,-2
1523209092995751,0,0,-1,-1,1,-2,-2,-1
1523209092996764,-2,-3,-4,-3,-1,-2,-2,-1
1523209092996764,-2,1,-1,-3,-4,-2,-3,-1
1523209093009831,0,-1,-1,-5,-6,-5,-4,-3
1523209093009831,0,0,-4,5,2,0,1,0
1523209093017815,0,-1,0,2,3,5,2,2
1523209093017815,1,0,-1,0,3,2,1,0
1523209093032852,-3,-2,-2,-3,-2,-2,-2,-3
1523209093032852,0,-1,0,-4,-2,-5,-3,-1
1523209093034856,-2,-1,-2,-4,-5,-7,-2,-2
1523209093034856,-1,-2,1,-1,-4,-6,-2,-2
1523209093055932,-1,0,4,4,5,6,3,2
1523209093055932,-2,-1,-4,2,2,4,0,0
1523209093056914,0,-2,-4,-2,-1,-3,-3,0
1523209093056914,-2,0,-1,-5,-6,-5,-3,-3
1523209093068948,0,-2,-3,0,-1,-2,-2,-3
1523209093068948,-1,-2,0,0,1,2,0,0
1523209093078110,-1,2,0,-2,-1,0,-1,-1
1523209093078110,-1,-1,-3,0,-1,-2,0,0
1523209093093245,0,1,4,2,1,3,0,-1
1523209093093245,-2,-1,-3,0,-1,0,0,0
1523209093095015,-1,0,3,-6,-6,-4,-3,-1
1523209093095015,-1,0,0,0,-3,-3,-1,0
1523209093115069,1,0,1,2,7,3,1,1
1523209093115069,-1,0,-1,-1,-2,2,-2,0
1523209093117075,-1,-2,1,0,0,0,0,-2
1523209093117075,-1,-1,-1,0,-1,-2,-2,0
1523209093129105,-3,-2,-6,-7,-10,-9,-1,-1
1523209093129105,-1,-2,3,-1,-7,-6,-2,0
1523209093138130,0,-3,-9,7,11,8,3,0
1523209093138130,0,-1,-3,1,3,8,1,1
1523209093153171,-3,0,3,-1,3,0,-1,0
1523209093153171,-1,-2,-3,-5,-7,-5,-2,-3
1523209093154173,-2,-4,1,-4,-11,-8,-5,-2
1523209093154173,0,-1,0,1,0,-4,1,-2
1523209093176257,0,-2,-4,-1,-1,1,-1,0
1523209093176257,0,0,1,-1,1,1,0,-2
1523209093177233,-1,0,-5,-1,0,0,0,-1
1523209093177233,-3,-1,6,-2,-1,-1,-3,-2
1523209093189267,0,-1,0,0,-3,-3,0,0
1523209093189267,-1,-2,-3,-2,2,-1,-2,-2
1523209093198289,-2,-1,-2,-1,-1,-2,-1,0
1523209093198289,-3,-3,-2,0,0,-2,-3,-1
1523209093213334,-2,-3,-3,0,-1,-1,-2,-2
1523209093213334,-2,1,3,1,1,5,3,-1
1523209093214334,0,1,2,-2,3,0,0,0
1523209093214334,-2,-2,0,-2,-4,-2,0,-1
1523209093235409,-1,-3,-11,-2,-4,-4,-3,-2
1523209093235409,-2,-2,-4,-3,-3,-2,-3,0
1523209093237394,-2,-3,-1,-1,-4,-5,-3,0
1523209093237394,1,-1,-1,0,4,2,0,-1
1523209093258681,-1,1,2,1,-4,2,0,-1
1523209093258681,0,0,4,-3,8,2,2,0
1523209093259451,-1,-2,-10,-4,-5,-4,-1,-2
1523209093259451,-2,-1,-2,-1,-4,-2,0,-1
1523209093273684,0,-1,0,0,4,2,0,1
1523209093273684,1,0,-1,-1,-2,-2,-1,-1
1523209093274493,0,0,5,-2,-1,-4,0,0
1523209093274493,1,1,-5,-1,2,1,1,-1
1523209093295547,-2,-1,1,-3,-3,-1,0,-2
1523209093295547,1,-5,-12,1,0,-1,-1,-1
1523209093297554,0,-2,5,0,2,3,2,-1
1523209093297554,0,0,-5,-4,-4,-2,-2,-1
1523209093317610,-2,-1,2,-3,-6,-7,-2,0
1523209093317610,-1,0,-1,0,0,-1,-1,-1
1523209093319617,1,-3,-1,3,2,4,-1,1
1523209093319617,-1,-2,1,-2,-2,0,-2,0
1523209093332647,-1,-1,0,1,2,-2,0,-1
1523209093332647,0,-4,-1,-4,-5,-2,-2,-1
1523209093334652,0,0,-25,-1,0,-3,0,-2
1523209093334652,0,-1,5,0,-1,-2,-1,-2
1523209093355710,0,-2,1,1,-1,2,-1,-3
1523209093355710,-1,-1,1,1,3,0,0,0
1523209093356712,0,0,2,-2,-3,1,0,-2
1523209093356712,-1,0,-4,-2,2,-2,-2,0
1523209093378002,0,-1,-2,-3,-3,-4,-2,-1
1523209093378002,-1,1,1,0,-2,-4,-3,-1
1523209093379772,0,0,7,1,1,1,-1,-2
1523209093379772,-1,-1,-11,-1,-1,-3,1,0
1523209093393043,-2,-3,12,-2,-1,3,-2,0
1523209093393043,-2,-1,1,1,-2,-3,-2,-1
1523209093398824,-1,0,9,3,-4,-1,-1,-1
1523209093398824,0,-1,0,1,5,2,-1,-1
1523209093415869,-1,0,-4,-2,0,-2,-2,-1
1523209093415869,-2,0,-2,-5,-5,-3,-1,0
1523209093416871,-1,-2,-3,-3,-4,-3,-2,-2
1523209093416871,-1,-2,3,2,-3,-3,-2,-1
1523209093437927,0,1,4,5,5,4,2,1
1523209093437927,-2,-3,0,-3,-3,-2,-1,-2
1523209093439931,-2,0,-1,0,0,-4,0,-1
1523209093439931,0,-2,-3,-2,-3,-1,-2,1
1523209093451966,-1,0,-9,-2,-3,-3,-3,-3
1523209093451966,0,1,5,-1,-2,0,-1,-2
1523209093459218,0,-3,-3,-2,1,2,0,1
1523209093459218,-2,-2,-1,-2,-2,0,-1,-2
1523209093476158,-2,0,-5,-1,-4,-3,0,-2
1523209093476158,1,-1,-1,1,1,2,1,1
1523209093477029,-1,-1,2,-3,0,-1,-2,-1
1523209093477029,0,0,-3,-5,-2,-2,-1,-1
1523209093498086,0,-2,1,0,-1,-2,-1,0
1523209093498086,0,-1,0,2,-1,-1,0,-2
1523209093500092,1,-4,2,-3,-2,-3,-3,-1
1523209093500092,-2,0,-3,1,-6,-1,-1,-2
1523209093512125,-1,1,-2,-3,7,1,-1,-1
1523209093512125,-2,-5,-15,-3,-2,0,0,-1
1523209093519142,-2,2,4,2,-2,1,-1,-2
1523209093519142,-1,1,6,-1,-2,-2,-1,-1
1523209093535186,-2,-6,1,-3,-5,-5,-1,-3
1523209093535186,-1,-3,-21,1,3,3,1,1
1523209093537192,0,1,-2,0,2,2,1,0
1523209093537192,0,-1,7,-2,-5,-2,-1,-3
1523209093558481,-2,-3,-11,-2,1,1,-2,0
1523209093558481,-1,2,8,1,-2,-2,0,-1
1523209093560290,-1,-5,-2,-2,-2,-3,-2,-2
1523209093560290,0,1,6,1,2,1,0,-1
1523209093572518,0,1,1,2,-1,1,0,-2
1523209093572518,0,-1,-8,-5,-4,-4,-3,-2
1523209093579345,1,-1,4,-2,-4,-4,-1,-1
1523209093579345,-2,-3,-12,0,5,3,1,0
1523209093595345,-1,-1,3,1,-1,0,-2,-1
1523209093595345,-2,1,2,1,2,0,-1,1
1523209093597353,-2,0,6,-2,1,2,-1,0
1523209093597353,-1,-2,-4,-3,-3,-6,-3,-2
1523209093618408,-1,-1,1,-2,-3,-3,1,-1
1523209093618408,-2,-3,3,-4,-6,-5,-3,-2
1523209093619408,-2,-1,-4,-2,-2,-1,-3,-1
1523209093619408,0,1,-5,4,4,4,3,1
1523209093632448,-1,0,2,-2,3,-1,0,0
1523209093632448,-1,0,5,-1,-5,1,0,-1
1523209093639698,0,-1,-2,-2,-3,-5,-2,-2
1523209093639698,-1,0,-1,0,-4,-3,-4,-1
1523209093655505,1,-2,-2,0,-2,0,0,0
1523209093655505,-2,-2,2,-2,1,-1,-2,0
1523209093657509,-2,0,-1,-1,-2,-1,-1,-2
1523209093657509,-1,0,2,-2,-1,1,1,-1
1523209093685585,-2,-2,-4,0,-3,-3,-2,-3
1523209093685585,0,0,1,0,3,3,0,-1
1523209093687591,-1,-1,-1,0,1,0,1,0
1523209093687591,0,-2,0,-1,1,-1,-2,-1
1523209093692838,-1,-1,1,-4,-5,-4,-1,0
1523209093692838,-1,-1,-2,-2,-7,-6,-3,-3
1523209093699622,0,1,-5,3,5,0,0,-1
1523209093699622,-3,-3,2,-1,1,1,-2,-1
1523209093715665,-1,0,-2,-2,-2,1,-1,-1
1523209093715665,0,0,2,1,1,1,-2,1
1523209093716667,-2,1,2,-1,-4,-3,-2,2
1523209093716667,-3,-7,-15,-3,-5,-7,-3,-3
1523209093737726,-1,2,-6,3,2,4,1,0
1523209093737726,0,-1,3,-1,4,3,1,0
1523209093739728,-1,-1,2,0,0,0,-1,-1
1523209093739728,1,-2,2,-1,-2,-1,-2,-3
1523209093751763,-1,-1,-1,-2,-2,-4,-4,-3
1523209093751763,0,-2,-2,-4,-3,-3,0,-2
1523209093760784,-1,-3,-3,-3,-3,-3,-2,1
1523209093760784,0,0,4,2,1,2,1,1
1523209093776059,0,-2,-8,-1,3,0,0,1
1523209093776059,0,0,6,1,1,4,0,1
1523209093777845,-1,-2,-5,-3,1,3,0,-1
1523209093777845,-1,0,0,-1,1,-2,-3,-3
1523209093797885,-1,0,3,-2,-6,-2,-1,-3
1523209093797885,-2,-2,-6,-1,-3,-3,-1,-1
1523209093799889,0,0,-5,0,-1,-2,-1,0
1523209093799889,-2,4,10,-2,-2,-2,-2,-2
1523209093811919,-1,-3,-23,1,1,0,-1,-1
1523209093811919,-1,-2,2,-2,-2,-4,-2,-2
1523209093820944,-1,-1,2,0,0,1,-1,-2
1523209093820944,0,0,-2,-2,0,0,0,1
1523209093835984,0,-1,5,-2,-8,-3,-2,-1
1523209093835984,-3,0,0,-1,2,-2,0,-3
1523209093836987,0,1,-3,2,2,1,0,0
1523209093836987,-1,-2,2,-3,-3,-1,-1,-2
1523209093858278,-3,-3,2,-3,-4,-3,-2,-3
1523209093858278,-1,0,-6,1,-1,1,1,-1
1523209093860048,-1,-1,2,-2,-1,0,-1,0
1523209093860048,-2,-2,-2,-2,1,-1,0,-2
1523209093872329,1,-1,4,-1,-3,-1,0,0
1523209093872329,1,0,-4,-2,2,0,-1,0
1523209093881104,-1,-2,1,-1,0,0,1,0
1523209093881104,-3,-2,-4,-2,-13,-5,-3,-1
1523209093895142,-1,2,3,4,11,5,1,-3
1523209093895142,0,0,-3,0,0,2,1,1
1523209093897148,-1,0,-2,-5,-5,-5,-2,-2
1523209093897148,-2,-1,-4,-2,-3,-2,-1,-1
1523209093918207,-3,-3,3,-2,-1,-3,-2,-3
1523209093918207,-2,-1,1,0,-1,-2,-1,-2
1523209093920293,-1,-1,0,-1,1,0,-1,-2
1523209093920293,0,-2,-2,1,2,-1,0,-1
1523209093932241,-2,-1,0,-1,0,1,2,0
1523209093932241,0,-2,-2,-1,1,0,-1,0
1523209093940500,-1,-1,-6,-3,-3,-3,-2,0
1523209093940500,0,0,10,-1,-1,-1,-1,-1
1523209093955301,-1,0,1,-3,-2,-3,-3,-2
1523209093955301,-1,1,2,-1,-2,0,1,-1
1523209093957307,1,-1,-12,2,-1,3,2,-1
1523209093957307,-1,0,8,0,7,1,0,0
1523209093978362,-1,0,0,0,-1,1,1,0
1523209093978362,-2,0,2,-4,-7,-8,-3,-3
1523209093979368,-2,-2,-3,-1,-2,-4,-3,-3
1523209093979368,0,-3,-8,1,0,0,2,0
1523209093991397,0,-1,1,-2,-1,0,-1,0
1523209093991397,-1,0,-4,-2,0,-1,-2,-2
1523209094000421,0,-2,6,1,2,1,2,-2
1523209094000421,-1,-1,-7,-1,0,0,-2,-1
1523209094015461,-1,-1,-2,-3,-6,-4,-2,-2
1523209094015461,-1,-1,-1,0,-1,0,-2,0
1523209094017466,1,-1,-5,-7,1,-1,-1,0
1523209094017466,0,-3,7,0,-4,-2,-2,-3
1523209094038521,0,-2,-3,-2,0,1,2,-2
1523209094038521,-1,-2,0,0,-1,-2,-2,0
1523209094039539,-1,2,4,1,-1,-2,-1,-2
1523209094039539,-2,-3,-10,0,6,3,2,1
1523209094051557,-1,1,1,-2,-3,-2,-2,-1
1523209094051557,0,-2,-1,-4,-2,-2,-1,-2
1523209094060579,-3,-2,4,0,-5,-4,-3,-2
1523209094060579,-1,-2,-4,0,-2,-4,-2,-2
1523209094076664,-1,2,4,3,3,5,1,0
1523209094076664,-2,-3,-2,0,-1,1,0,-1
1523209094077626,1,-1,-3,-2,-2,1,-3,-2
1523209094077626,-2,0,-1,-2,-2,-3,-2,0
1523209094097682,-1,-4,2,-1,-1,-3,-1,-1
1523209094097682,1,0,0,-1,1,0,-1,-1
1523209094099685,-1,-3,1,-2,-3,-2,-2,1
1523209094099685,0,0,-1,-2,-2,-1,-1,0
1523209094111724,0,-1,-3,0,-3,-2,0,-3
1523209094111724,1,0,-1,2,4,6,1,-1
1523209094120740,0,0,-2,1,5,1,2,0
1523209094120740,0,-3,-1,-3,-4,-3,-1,-2
1523209094135782,-3,-1,-4,-2,-3,-4,-3,-2
1523209094135782,-2,-2,1,-3,-8,-5,-3,-2
1523209094136784,-1,0,-3,4,4,0,2,-1
1523209094136784,0,2,3,3,2,1,0,0
1523209094158075,-2,-5,-15,-5,-3,-3,-2,-1
1523209094158075,-3,1,1,-1,-2,-3,-1,0
1523209094159844,-1,0,-3,0,-2,-1,-2,-2
1523209094159844,0,-1,-10,3,3,5,4,2
1523209094180900,-1,-1,15,-2,-1,-2,-2,-1
1523209094180900,-1,-2,-2,-3,-2,-2,-1,-2
1523209094181903,-3,-3,-3,-6,-6,-7,-2,-3
1523209094181903,-2,-1,0,-1,-5,-4,-2,-3
1523209094195991,0,2,1,7,4,8,4,2
1523209094195991,0,-1,-4,0,10,3,0,0
1523209094196945,-1,0,3,-1,-3,0,0,-2
1523209094196945,-2,-1,1,-5,-6,-5,-3,0
1523209094218000,-1,-2,-4,-3,-6,-6,-4,-1
1523209094218000,0,-3,-1,-1,-5,-5,-1,-1
1523209094220005,1,1,-4,2,4,5,1,2
1523209094220005,-1,-3,-2,1,2,1,1,1
1523209094240293,-1,2,-1,-2,-1,0,-1,-1
1523209094240293,-2,-2,-3,-3,-4,-3,-4,-2
1523209094242063,-2,-2,0,-3,-7,-6,-3,-2
1523209094242063,0,0,-2,3,3,5,2,1
1523209094255098,0,2,3,1,4,1,0,0
1523209094255098,1,1,6,-2,0,0,0,1
1523209094257103,-2,-1,-10,-3,-4,-4,-1,-1
1523209094257103,-2,-2,-1,-5,-5,-6,-2,-3
1523209094278158,0,-1,-3,-3,-5,-6,-4,-4
1523209094278158,0,1,0,5,2,2,2,-1
1523209094280164,-1,0,5,2,6,6,2,-1
1523209094280164,-1,0,-2,-1,4,0,1,1
1523209094300218,-2,-2,2,-4,-4,-2,-1,-2
1523209094300218,-1,0,-3,-1,-6,-5,-3,-2
1523209094302223,0,-2,-1,-1,-1,1,0,-1
1523209094302223,-2,2,4,-1,-1,-2,-3,0
1523209094315259,-1,-3,-7,-3,-2,-1,-3,-1
1523209094315259,0,-3,0,-1,-1,0,0,-2
1523209094322355,-2,-1,1,-1,-1,-1,0,1
1523209094322355,-1,-1,-4,-2,-4,-2,-2,-1
1523209094338319,0,1,-1,-1,0,0,1,1
1523209094338319,-1,-2,0,-1,-2,-3,-2,-1
1523209094339322,-2,1,-3,-2,1,0,-3,-2
1523209094339322,0,-1,-1,-1,-3,-2,-2,-2
1523209094360613,-1,-1,-1,1,1,-1,1,-1
1523209094360613,-2,-3,-4,-1,1,2,0,0
1523209094362387,-1,0,6,1,-2,-1,-1,0
1523209094362387,-2,-3,-9,-2,-2,0,-3,-2
1523209094375502,0,2,2,-2,-3,-2,-2,-1
1523209094375502,-2,-5,-9,-2,-6,-2,-3,0
1523209094381434,0,-4,6,-1,1,-2,-2,0
1523209094381434,1,0,1,-1,-3,-3,-3,-1
1523209094398479,-2,0,-3,-3,-2,-5,-4,-1
1523209094398479,-2,2,4,4,4,3,3,0
1523209094399481,-2,-1,-3,0,-5,1,0,-1
1523209094399481,0,-2,-2,-1,5,0,-2,-3
1523209094420773,-1,-1,3,-2,-4,-3,-3,-2
1523209094420773,-1,2,0,-1,-2,-4,-3,0
1523209094422543,-1,-4,-7,-1,-1,-3,0,0
1523209094422543,-1,0,0,0,-3,0,2,-1
1523209094434574,0,-1,-3,-1,5,3,1,1
1523209094434574,0,-1,-1,-3,-2,-3,-2,-2
1523209094441593,-1,-1,-1,1,-1,-2,0,-3
1523209094441593,0,-1,1,1,0,0,1,-1
1523209094458678,-1,-2,-3,0,-2,-1,-2,-1
1523209094458678,-1,-1,0,-2,-1,-2,-1,-1
1523209094459642,-2,0,-3,-2,-7,-5,-3,-1
1523209094459642,-2,-1,-2,1,6,2,-1,0
1523209094480698,1,-1,-2,2,1,2,1,0
1523209094480698,0,0,1,-2,-1,0,-2,0
1523209094481701,-1,-1,-2,-2,-1,-2,-2,-1
1523209094481701,-1,0,1,-1,-6,-4,-1,-1
1523209094494737,-2,-3,-4,-1,-1,-3,-2,-1
1523209094494737,-1,0,0,0,1,0,0,-1
1523209094501795,-2,-1,-1,0,1,1,-1,-1
1523209094501795,-2,-1,-2,-2,-4,-1,0,-1
1523209094517838,-2,-1,-1,0,-1,1,0,0
1523209094517838,-2,0,-3,0,-4,-3,-2,-1
1523209094519800,-1,-3,5,-4,-2,-4,-1,-1
1523209094519800,-2,-4,-7,1,-4,-2,-1,-2
1523209094540857,0,-2,0,0,9,5,2,0
1523209094540857,-2,0,0,1,-2,1,1,-1
1523209094541902,-1,-1,-1,-1,-2,0,0,0
1523209094541902,1,0,-2,-9,-7,-7,-3,-1
1523209094554894,-2,-3,-1,0,-11,-9,-5,-2
1523209094554894,0,-2,1,2,8,6,4,1
1523209094561918,0,-1,-2,3,4,3,-1,0
1523209094561918,0,-1,-1,-1,-1,-1,-3,-2
1523209094577957,-2,-2,1,-3,-1,-2,-2,-2
1523209094577957,-1,-1,-3,-2,-3,-4,-2,-2
1523209094579965,0,0,-1,-5,-6,-6,-3,-2
1523209094579965,-2,-2,-1,-1,-1,-2,-1,0
1523209094600015,-1,1,1,0,0,1,-1,-2
1523209094600015,1,0,1,4,0,4,3,1
1523209094602019,-1,-2,-4,-2,5,2,0,-2
1523209094602019,-2,-6,-3,-2,-4,-3,0,-1
1523209094615077,-1,-1,-2,-3,-3,-2,-3,0
1523209094615077,-1,-1,-3,-2,-1,-4,-3,-2
1523209094622077,-3,0,7,-1,-3,-1,0,-1
1523209094622077,0,1,3,0,-1,-1,-2,-1
1523209094638116,-2,1,-2,-1,-2,0,-1,0
1523209094638116,1,0,-2,-2,1,-1,0,-1
1523209094640123,-1,-1,-3,1,-2,-3,-1,-1
1523209094640123,-2,0,-1,-3,1,2,0,1
1523209094660410,-1,-2,-2,3,0,-2,-2,0
1523209094660410,-1,-2,2,-2,-4,-4,-2,-3
1523209094662183,-2,-1,-3,3,4,4,1,0
1523209094662183,0,-1,2,2,6,4,1,0
1523209094674447,0,0,-4,-2,-1,1,0,1
1523209094674447,-2,0,-3,-3,-6,-5,-5,-2
1523209094683236,-2,-3,-1,-5,-9,-7,-5,-3
1523209094683236,-2,2,0,3,1,1,2,0
1523209094698276,-2,-3,-3,1,4,2,1,1
1523209094698276,-2,0,8,-5,-7,-3,-2,-2
1523209094699278,0,-1,1,0,0,0,1,1
1523209094699278,-1,0,-2,-1,2,0,-1,0
1523209094720571,0,0,3,0,-2,-1,0,-1
1523209094720571,-1,-5,-2,-5,-3,-2,-2,-1
1523209094722338,1,1,-1,3,6,5,1,1
1523209094722338,-1,-1,1,-2,-2,-3,-3,1
1523209094734372,-3,-1,-2,-1,-4,-3,-3,-2
1523209094734372,-1,-2,-2,0,0,-1,-1,-1
1523209094743395,-1,0,-2,-3,0,0,0,-1
1523209094743395,0,-1,0,0,0,-1,-2,-1
1523209094758677,-2,-2,-1,-5,-2,0,1,0
1523209094758677,-2,-1,-3,-1,-1,-3,-1,-1
1523209094759438,-1,1,0,-1,0,1,1,-2
1523209094759438,-2,-1,-4,-1,-3,1,1,1
1523209094788515,0,0,0,-1,0,0,-1,-2
1523209094788515,0,-1,0,-1,-1,-1,1,0
1523209094789553,0,-2,-4,-2,-6,-7,-5,-2
1523209094789553,0,1,-1,3,3,-1,1,-1
1523209094794536,-1,-2,-1,-3,-7,-1,-2,0
1523209094794536,-1,-3,-4,0,3,-2,-4,-2
1523209094803556,-1,-1,-3,0,3,5,2,0
1523209094803556,-1,-1,-2,-1,-2,-1,-1,-2
1523209094818636,-1,0,3,0,1,0,-1,-1
1523209094818636,-2,-3,-8,-1,1,0,-1,0
1523209094819597,-1,-2,-1,-3,-4,-5,-4,-1
1523209094819597,-1,0,1,-5,-4,-3,-2,-2
1523209094840654,-1,0,-2,0,-1,-2,0,-1
1523209094840654,-1,1,3,0,3,5,2,0
1523209094841656,0,-1,-2,-2,0,-1,-2,-1
1523209094841656,-1,-3,-1,-1,-5,-3,-3,-2
1523209094853689,-1,-1,-2,2,2,-2,2,-1
1523209094853689,-1,1,0,-1,1,1,1,2
1523209094862719,-2,-3,-3,0,-2,-2,-2,-2
1523209094862719,-1,-2,0,0,-2,-1,-2,-2
1523209094877754,-1,-2,0,0,0,-1,-2,-1
1523209094877754,-1,0,0,-1,-3,-3,0,-1
1523209094879759,0,-1,-2,-2,-2,0,2,0
1523209094879759,-1,-2,0,-2,0,1,-3,0
1523209094900815,1,-1,0,2,2,3,0,0
1523209094900815,-2,1,-2,0,-2,0,0,-2
1523209094901817,-1,-1,-1,-3,-5,-4,-4,-3
1523209094901817,0,-1,0,-1,-2,-4,-2,-2
1523209094913850,0,-1,-1,1,3,2,0,-2
1523209094913850,-2,-3,1,-2,-6,-1,-1,0
1523209094923104,-2,0,-1,-2,1,-1,0,-2
1523209094923104,0,-2,-1,0,0,1,1,0
1523209094937913,-2,-1,-1,-3,-1,-2,-1,0
1523209094937913,0,-2,-4,-3,-3,-4,-3,-2
1523209094939917,-1,-1,0,-1,-2,-2,-1,-1
1523209094939917,-1,0,1,-1,-2,-3,-1,-2
1523209094960972,-1,-1,-1,0,2,1,2,0
1523209094960972,0,-1,-5,1,3,3,1,-1
1523209094961979,-2,0,1,-1,4,3,1,0
1523209094961979,-2,0,-3,-3,-3,-4,0,0
1523209094974244,-1,-2,-1,-1,-8,-8,-5,0
1523209094974244,1,-1,-1,1,1,3,-1,-1
1523209094983033,1,0,-1,1,0,1,0,0
1523209094983033,0,0,-1,-1,-2,-2,-1,0
1523209094998124,-2,-2,-3,-1,-1,-2,-1,-3
1523209094998124,1,-1,3,1,-2,-1,-1,0
1523209095000077,0,-1,-2,-1,-1,-1,-1,-2
1523209095000077,-1,-2,-3,-2,-1,-3,-1,-1
1523209095021155,0,0,-1,0,-2,-1,-2,-2
1523209095021155,-1,0,0,1,2,3,-1,1
1523209095022136,0,-2,-1,0,4,2,0,1
1523209095022136,-1,-2,-1,1,-1,1,-1,-1
1523209095034169,-1,-1,-2,-1,-8,-2,-2,-2
1523209095034169,-1,-2,-5,-5,-3,-2,-1,-1
1523209095043192,-2,-2,0,-1,-3,-3,-3,-1
1523209095043192,-1,-1,-2,1,3,3,0,-2
1523209095057465,-1,0,-3,-1,-1,2,0,1
1523209095057465,-2,0,1,-1,-2,-1,-2,-3
1523209095065250,0,-2,-1,0,-2,-1,-1,-2
1523209095065250,-1,-2,-2,-2,-1,0,-2,-1
1523209095080294,-1,-1,0,-3,1,1,-2,0
1523209095080294,-2,0,-1,-2,-2,-3,-2,-1
1523209095082295,-1,-2,-4,0,0,-1,-1,-1
1523209095082295,-2,1,4,-2,-4,-2,-1,-1
1523209095094329,-1,-2,-7,0,2,0,0,-1
1523209095094329,1,0,0,-2,-2,-2,0,-1
1523209095103352,-2,-1,-2,-4,-6,-7,-3,-2
1523209095103352,-2,-1,5,2,3,2,1,-1
1523209095118391,-1,1,1,1,4,6,0,1
1523209095118391,-3,-1,0,0,0,0,-2,0
1523209095119521,0,-1,-2,0,-5,-1,0,-2
1523209095119521,-1,-1,-3,-5,-5,-5,-3,-1
1523209095140450,0,-2,-6,-2,-3,-5,-2,-1
1523209095140450,-3,-1,6,1,2,0,1,-1
1523209095142457,0,-2,-5,1,2,4,2,2
1523209095142457,0,-1,-1,-1,-2,0,-3,1
1523209095163512,-1,0,-2,-3,0,-1,-2,-3
1523209095163512,-2,-1,-5,-4,-5,-4,-3,-2
1523209095164514,-1,-1,1,2,-1,-2,-2,-3
1523209095164514,1,-1,-2,2,0,1,0,0
1523209095177548,-2,-1,1,0,-2,0,1,-1
1523209095177548,0,0,0,-2,0,-2,-2,-3
1523209095185577,-2,-1,1,-3,-5,-6,-3,-2
1523209095185577,-1,-1,-2,2,5,3,2,-1
1523209095200612,0,0,0,0,2,2,1,0
1523209095200612,-1,0,-2,-2,-1,-1,-1,0
1523209095202651,-1,-1,-2,-3,-5,-2,-3,-1
1523209095202651,-2,0,-3,-4,-2,-4,-2,-2
1523209095223711,-1,-1,0,0,1,1,0,-1
1523209095223711,1,0,-1,2,1,3,2,0
1523209095224673,-1,-1,-2,-4,-2,-3,-2,-2
1523209095224673,-1,-2,-2,-3,-4,-5,-2,-2
1523209095237709,0,-2,2,1,1,-1,-2,0
1523209095237709,0,0,-2,0,0,1,-1,0
1523209095239718,-1,0,-2,-1,-1,0,-3,-1
1523209095239718,-2,-2,-2,-2,-1,-1,-2,-3
1523209095260769,-1,-2,0,0,-2,-3,-1,-1
1523209095260769,0,-4,-1,-1,-3,-3,-1,-3
1523209095261776,-1,1,0,1,1,1,1,1
1523209095261776,1,-2,-2,1,2,1,0,0
1523209095282830,-2,0,0,-4,-4,-1,-1,-1
1523209095282830,0,0,1,-1,-1,-2,-1,0
1523209095284834,-2,-1,-1,-2,1,0,0,-2
1523209095284834,1,-1,1,-2,-3,-2,-2,-1
1523209095297869,-1,-1,-1,-5,-4,-5,-4,-1
1523209095297869,-1,-1,-3,-1,-2,-1,0,-1
1523209095311915,-1,1,0,2,3,3,0,2
1523209095311915,0,-1,0,-3,-2,0,-1,-1
1523209095321177,-2,-4,1,-5,-8,-5,-2,-3
1523209095321177,-2,-1,2,-1,2,1,0,-1
1523209095321932,-1,-2,-1,0,-2,-1,0,-1
1523209095321932,-1,0,-3,0,0,1,0,-1
1523209095343224,1,0,0,-1,-4,0,0,0
1523209095343224,-1,-2,-5,-3,-2,-3,-2,-1
1523209095344998,0,-2,-3,-2,-1,0,0,-1
1523209095344998,-2,-1,7,0,0,0,-1,-1
1523209095358100,-1,0,-2,0,2,-2,0,0
1523209095358100,-3,-2,-2,-1,0,1,1,-1
1523209095364045,-1,-1,0,0,-1,1,-2,-1
1523209095364045,0,-1,-7,-2,-3,-4,-1,-2
1523209095380094,0,-2,-1,-1,-1,0,-1,-2
1523209095380094,-1,-1,-2,1,1,-3,-2,1
1523209095382092,-1,-2,1,-3,-5,-3,-4,-2
1523209095382092,0,0,1,3,3,2,1,0
1523209095403148,-1,0,-2,2,5,4,0,1
1523209095403148,0,1,0,-3,-2,-1,-2,-2
1523209095405154,-2,-2,-2,-2,-2,-2,-2,-1
1523209095405154,-3,-1,-2,-3,-5,-3,-2,0
1523209095417187,-1,-1,0,1,-3,-3,-1,-1
1523209095417187,-2,-2,0,-3,-3,-2,-2,-3
1523209095424439,0,0,-2,1,0,0,1,-2
1523209095424439,0,0,0,2,4,1,-1,-1
1523209095440482,-1,-2,-2,-1,-3,-1,-1,0
1523209095440482,-1,0,-2,0,-4,-3,-2,-1
1523209095442253,-1,-1,0,-2,-1,0,-1,-2
1523209095442253,0,0,-1,-1,-1,0,0,-1
1523209095463310,0,0,1,-3,-1,-2,-3,-3
1523209095463310,0,1,-2,-2,1,0,1,0
1523209095464311,0,-2,0,-1,-2,-1,0,-2
1523209095464311,-1,-2,-2,-2,-1,-2,-4,-2
1523209095477346,-1,0,-6,3,4,1,2,-1
1523209095477346,-2,-1,2,-1,-3,-2,0,-1
1523209095484365,0,-1,-1,-1,-1,-1,-1,1
1523209095484365,0,-2,-3,-1,-3,-2,-1,-1
1523209095500407,-1,-1,-3,-3,-3,-3,-2,-2
1523209095500407,0,-2,-3,-1,2,2,2,-2
1523209095502412,0,-2,0,2,2,2,1,0
1523209095502412,-2,-1,-1,-3,-3,-1,-1,-2
1523209095523700,-1,-2,-1,-3,-5,-5,-3,-1
1523209095523700,0,-1,0,-2,0,1,0,1
1523209095524475,0,0,-1,1,2,1,-1,0
1523209095524475,0,-2,-3,-2,-1,0,-2,-1
1523209095537743,-1,-1,0,-2,1,-1,1,-1
1523209095537743,-3,-2,-1,0,-2,-3,-2,-1
1523209095544525,-1,-2,0,-1,-2,-4,-3,-2
1523209095544525,-2,-1,-7,1,1,1,-1,-1
1523209095559799,-1,-2,3,-3,-2,-1,0,-1
1523209095559799,0,0,-4,-2,-3,-3,-1,-2
1523209095568599,0,-3,-1,0,0,-1,-1,0
1523209095568599,-1,-1,0,2,1,1,1,-1
1523209095582665,0,-1,-1,0,-1,0,-2,-1
1523209095582665,0,1,3,-3,-4,-4,-3,-1
1523209095584631,-3,-6,-10,-4,-4,-4,-2,-2
1523209095584631,-3,-1,1,-1,1,-2,2,-1
1523209095597664,-1,0,0,2,1,2,-2,-1
1523209095597664,0,-3,0,1,0,1,0,-2
1523209095603682,1,2,0,0,2,1,-1,0
1523209095603682,-1,-2,-2,-2,-4,-4,-2,1
1523209095620952,-2,-1,-1,-2,-3,-2,0,-2
1523209095620952,0,1,0,1,0,1,-1,0
1523209095626741,-1,-1,4,-2,1,1,-1,0
1523209095626741,-1,0,-1,-1,-1,0,-1,0
1523209095643027,1,-1,-1,2,0,2,1,-1
1523209095643027,-2,-3,-3,-2,-3,-2,-2,-2
1523209095644796,-1,0,-3,-3,-3,-3,-1,-1
1523209095644796,-1,-1,-1,-4,-5,-5,-2,-1
1523209095657057,-2,-1,-3,-2,-3,-5,-3,-1
1523209095657057,1,0,0,4,6,4,3,0
1523209095665848,-3,0,0,0,0,1,-1,0
1523209095665848,-1,-3,-5,-4,-2,-2,-1,-1
1523209095680887,-1,-3,-3,-4,-4,-2,-2,1
1523209095680887,-1,-1,-1,-4,-5,-5,-2,-2
1523209095681888,0,2,2,1,2,1,1,0
1523209095681888,0,0,-1,1,2,1,0,0
1523209095702946,0,-1,3,0,0,-1,2,-2
1523209095702946,-2,-1,-1,-2,-1,-4,-2,0
1523209095704950,-2,-1,-1,-1,-4,-1,1,0
1523209095704950,-1,-1,-3,0,-3,-1,0,-1
1523209095716982,0,0,-3,4,10,5,0,-1
1523209095716982,1,0,4,1,0,1,-2,-1
1523209095726006,-2,-1,-5,-3,-2,-3,-2,-2
1523209095726006,0,-2,0,-4,-3,-2,-3,0
1523209095741174,-1,-1,-1,-2,-4,-2,-1,-2
1523209095741174,-1,-2,1,-1,-1,0,-2,-1
1523209095742050,0,-2,0,1,2,0,0,-1
1523209095742050,-1,-2,0,0,1,-1,-1,-2
1523209095763107,-1,1,-1,0,-2,-2,-1,0
1523209095763107,-1,-1,-2,-1,1,-1,0,0
1523209095765110,-2,-2,-1,-1,-2,-3,-1,-2
1523209095765110,-2,-1,0,0,-1,-2,0,-2
1523209095777146,0,1,2,2,-1,-1,-2,0
1523209095777146,-1,-1,-3,0,1,0,1,0
1523209095786166,-3,-2,-2,-2,-3,-2,-2,0
1523209095786166,-2,0,2,1,0,0,-2,-1
1523209095800206,-3,-1,-2,-3,-3,-4,-1,-1
1523209095800206,-1,-2,-3,-1,-2,-1,-2,-3
1523209095802208,-1,-1,3,2,4,4,2,0
1523209095802208,1,-2,0,-1,0,3,-1,0
1523209095823264,-1,-2,-2,-1,-5,-3,-1,0
1523209095823264,-1,-2,-3,-1,3,-1,-1,0
1523209095825311,0,-1,0,-3,-1,-2,-1,-1
1523209095825311,-2,1,0,0,0,-1,-1,-1
1523209095836300,-1,-3,-1,-1,2,1,-1,0
1523209095836300,0,0,0,-2,-1,0,-1,-2
1523209095851339,0,-1,-5,-1,0,-2,-2,-1
1523209095851339,0,-1,-1,-3,-1,-1,1,-1
1523209095860362,-1,-2,-3,-3,-5,-1,-3,-2
1523209095860362,-2,-1,0,0,4,2,1,0
1523209095862368,0,1,1,1,-3,-4,-3,-2
1523209095862368,-2,-2,0,0,-4,-2,-2,-3
1523209095883439,-2,-1,0,-2,0,-2,0,-1
1523209095883439,0,1,1,-4,-5,-3,-1,0
1523209095884426,-4,-4,-13,-2,-3,-1,-2,-1
1523209095884426,-1,-2,1,1,0,-1,-1,0
1523209095896460,-1,1,5,0,4,3,0,1
1523209095896460,0,-1,-3,-3,-3,-3,0,-1
1523209095905483,-1,-1,1,-4,-3,-4,-3,-3
1523209095905483,-1,-3,-3,-2,-3,-3,-2,-2
1523209095920522,-2,0,-4,1,4,2,2,2
1523209095920522,-2,-1,-2,0,0,1,0,0
1523209095922528,-1,2,7,-4,-3,-3,-2,-1
1523209095922528,-1,-2,-3,-2,-2,-3,-1,-1
1523209095942817,-1,-2,-1,-1,0,1,1,-3
1523209095942817,-1,1,-2,0,-1,-1,-1,-1
1523209095944592,-1,-3,-2,-1,-2,-1,-1,0
1523209095944592,-1,2,1,-2,-1,-2,-2,0
1523209095956854,-1,-1,-2,0,-1,-4,-2,-1
1523209095956854,-3,-3,-2,-2,-2,0,-2,-1
1523209095965645,1,-1,4,-3,-1,0,1,0
1523209095965645,-1,-1,-1,0,-1,1,-1,-2
1523209095980684,-1,-2,-2,-2,-2,-1,0,-1
1523209095980684,1,-2,-2,0,-3,-2,0,-2
1523209095981687,-1,1,0,0,0,1,1,0
1523209095981687,0,-1,-1,0,2,2,1,0
1523209096002742,-1,-1,0,-4,-2,-4,-2,0
1523209096002742,-1,-1,-1,-2,-3,-4,-3,-4
1523209096004748,0,0,-6,0,-2,-1,-1,-2
1523209096004748,-1,0,6,0,2,1,1,-1
1523209096016780,-1,0,-2,-1,1,1,-1,0
1523209096016780,1,-3,1,-1,-3,-2,-1,0
1523209096025802,-2,-1,-4,0,0,-4,-3,-1
1523209096025802,-1,-1,-1,-3,-4,-4,0,-2
1523209096040842,-1,-1,-1,0,0,0,-1,-2
1523209096040842,-2,-2,1,-1,-2,4,0,0
1523209096041846,-3,0,2,2,5,4,1,-1
1523209096041846,-2,1,-4,0,-3,-2,-2,-2
1523209096062903,-2,-3,0,-2,-5,-2,-2,-3
1523209096062903,0,0,-4,1,4,0,2,0
1523209096064907,-1,-1,-1,-1,-3,-2,-2,-1
1523209096064907,0,-2,-3,-2,-1,-2,-1,-1
1523209096085964,0,-2,-3,-4,-5,-7,-4,-3
1523209096085964,-2,0,0,1,-1,-1,0,0
1523209096086965,1,0,2,0,2,0,0,-1
1523209096086965,-3,-2,-1,-2,1,2,0,0
1523209096101002,-3,-1,-4,-3,-5,-4,-3,0
1523209096101002,-1,-1,0,-2,-2,-2,-3,-1
1523209096102007,0,-2,-3,-1,-1,-2,-2,0
1523209096102007,0,0,-3,0,-1,-2,-2,-2
1523209096123296,-1,-2,1,0,0,0,0,0
1523209096123296,1,2,-3,0,0,0,0,0
1523209096125066,-2,0,5,-4,-3,-1,-1,-1
1523209096125066,-1,-1,0,0,-1,0,-2,-1
1523209096145124,1,-1,0,0,2,1,-1,-1
1523209096145124,-1,-1,-1,-2,-1,-1,0,-2
1523209096147125,0,-2,-2,-2,-6,-5,-3,-4
1523209096147125,0,-1,-2,3,0,-2,0,-2
1523209096161211,-1,1,1,3,4,5,3,2
1523209096161211,-1,-2,-2,-1,-2,-3,-2,-2
1523209096162168,-2,-3,-6,-2,-2,-1,-1,-1
1523209096162168,-1,0,0,-3,-3,-2,-3,-2
1523209096183224,1,-1,-1,-1,0,-1,-1,-1
1523209096183224,-1,-2,0,-4,-2,-3,0,-1
1523209096184224,-3,-2,-1,0,0,-2,2,0
1523209096184224,1,1,0,0,1,1,0,0
1523209096206281,-2,0,-1,0,-1,0,-1,-1
1523209096206281,0,-2,4,0,-1,-2,-1,-2
1523209096207284,-1,-3,-2,1,1,0,-1,-1
1523209096207284,-1,0,-3,-1,-1,1,0,0
1523209096220523,1,-1,-1,-2,-3,-2,-1,-2
1523209096220523,-1,1,-1,0,-2,-2,-3,0
1523209096226334,-2,-2,0,2,0,1,0,0
1523209096226334,-1,-2,-1,-1,0,1,-1,-2
1523209096243383,-1,0,-2,-2,-3,-2,-2,-1
1523209096243383,0,0,0,-2,-3,-3,-2,-1
1523209096244390,0,1,-3,-2,-1,1,2,-1
1523209096244390,0,-2,0,-1,1,2,1,0
1523209096265441,0,-1,5,-2,-2,-2,0,-2
1523209096265441,-2,-4,-4,1,0,0,-3,-1
1523209096267445,1,-1,0,-1,-1,-2,-1,-1
1523209096267445,-1,-4,-3,-4,-6,-8,-3,-2
1523209096279478,1,1,-6,1,0,-1,0,0
1523209096279478,-2,-2,3,1,0,1,1,1
1523209096286496,0,-2,-3,1,0,0,-2,-1
1523209096286496,-2,-2,1,1,1,1,0,0
1523209096303540,1,-2,-2,-1,0,0,-1,0
1523209096303540,-1,-1,-3,-3,-3,-3,-2,-1
1523209096304543,-2,0,0,-3,-4,-4,-1,-2
1523209096304543,-1,0,-1,1,-1,-1,0,0
1523209096325835,-4,-2,-3,0,1,0,-1,1
1523209096325835,-1,-2,-2,0,-1,-1,0,-3
1523209096327609,-1,-1,1,-3,-2,1,-1,1
1523209096327609,-2,-1,0,-1,-2,-2,-1,-2
1523209096339872,-1,0,-1,-3,-2,-2,1,-1
1523209096339872,-2,-3,-3,-3,0,-2,1,-2
1523209096346656,0,-1,-3,0,1,0,-2,-1
1523209096346656,0,2,-1,0,2,1,-1,0
1523209096362736,-2,-3,1,-2,-2,-2,-3,1
1523209096362736,-1,-3,-6,-3,-7,-6,-4,-2
1523209096364703,0,1,0,1,4,1,2,-1
1523209096364703,0,-1,4,0,-1,2,0,1
1523209096385760,-2,-3,-9,-3,4,-1,-2,-2
1523209096385760,0,0,0,-2,-3,-1,-1,0
1523209096386764,-1,-2,-2,-1,-2,-4,-2,-3
1523209096386764,-2,-4,-5,-1,-1,1,1,1
1523209096399850,0,0,3,-1,-5,-3,-3,-2
1523209096399850,-2,0,0,0,-1,-1,0,-2
1523209096407050,1,1,0,-1,-2,0,0,0
1523209096407050,-2,0,2,1,-2,-3,-2,-1
1523209096423093,-1,-1,1,2,0,2,2,-1
1523209096423093,-1,2,-1,0,-1,1,2,0
1523209096424864,-2,-2,7,1,-2,-2,-1,-2
1523209096424864,-1,-1,-11,-5,-2,-3,-2,-2
1523209096452937,-1,-2,-3,-1,-1,-2,-1,-2
1523209096452937,0,-1,-1,-3,-1,-1,-1,-1
1523209096454943,0,-2,2,-1,-3,-4,-1,-2
1523209096454943,0,0,1,2,2,3,0,-3
1523209096459963,-2,-2,1,1,0,3,0,-1
1523209096459963,0,0,3,-3,0,0,1,-1
1523209096466977,-1,-1,-5,-2,-2,0,-2,0
1523209096466977,-1,-2,-2,-3,-4,-5,-2,-1
1523209096483060,-1,1,-4,-3,-5,-3,-1,-3
1523209096483060,-2,-2,2,2,4,3,-2,0
1523209096485023,0,2,-5,-2,1,3,-1,0
1523209096485023,0,-2,4,-2,-3,0,-3,-1
1523209096506203,-2,-1,2,-3,-3,-2,1,-1
1523209096506203,-1,-2,-2,1,-2,-3,-3,-2
1523209096507082,-1,1,-1,-1,0,-1,2,0
1523209096507082,-1,-5,-7,-3,-2,-2,-1,-2
1523209096520116,-2,-4,-1,-1,-2,-3,-1,-1
1523209096520116,1,1,-1,3,7,6,2,1
1523209096527135,-2,-1,-1,-2,-1,0,0,-1
1523209096527135,-1,2,2,-4,-3,-4,-2,-1
1523209096543181,-2,-3,-5,-1,-1,1,-1,-2
1523209096543181,0,0,-6,-1,-7,-2,1,-2
1523209096544190,1,-1,-1,-1,4,1,-1,-1
1523209096544190,-3,-1,-2,-3,-4,-3,-2,-1
1523209096565237,-1,0,1,-1,-4,-4,-1,0
1523209096565237,0,-1,0,1,0,1,3,0
1523209096567242,-1,-1,-4,-1,0,0,-1,-1
1523209096567242,-2,-1,1,-2,-1,-2,0,0
1523209096579274,-1,0,0,-2,0,0,-2,-2
1523209096579274,1,-2,-3,-3,-3,-3,-2,-2
1523209096588296,0,0,1,3,1,2,0,-2
1523209096588296,1,0,0,0,2,2,1,0
1523209096603338,-1,-1,1,-2,-1,1,-1,-1
1523209096603338,-3,-2,-1,-4,-3,-3,-2,-2
1523209096604342,-2,-3,1,-4,-6,-7,-3,-2
1523209096604342,1,-1,-2,1,2,2,2,0
1523209096625631,2,-2,2,-1,1,1,-1,-1
1523209096625631,-3,-1,-1,-1,0,-2,-2,-3
1523209096627403,0,0,-3,1,0,1,0,0
1523209096627403,-2,1,-1,-2,-1,1,0,0
1523209096639670,-1,1,2,-1,-2,-3,-1,1
1523209096639670,-1,-7,-7,-2,1,0,-2,-1
1523209096648457,0,-3,-1,-3,-3,-3,0,-2
1523209096648457,0,-2,-1,-2,0,-3,-1,-1
1523209096663500,0,1,-4,0,0,-1,0,-2
1523209096663500,0,1,3,0,0,0,0,2
1523209096664500,-1,-2,-2,1,-2,-1,0,-2
1523209096664500,-3,-2,-4,1,-2,0,-2,-1
1523209096685556,-1,0,4,-3,-3,-3,-2,1
1523209096685556,-2,-1,-1,-1,0,0,0,-3
1523209096687561,-1,0,-1,2,1,4,0,1
1523209096687561,-1,-1,0,-1,-1,-1,-2,-1
1523209096699594,-1,0,-4,-1,-1,-1,0,-2
1523209096699594,-1,-1,1,-3,-4,-2,-2,-2
1523209096708616,-1,-1,0,-1,0,-2,-2,-1
1523209096708616,-1,-1,1,0,-1,-2,0,-1
1523209096723693,-2,-2,-3,-1,-1,-1,0,0
1523209096723693,-1,-1,-2,-3,-2,-2,-2,-1
1523209096724658,-1,1,0,0,0,1,1,-1
1523209096724658,-2,-1,1,-1,-1,-1,0,0
1523209096745716,0,-1,-1,0,-1,-2,-1,-3
1523209096745716,-2,-3,-2,-3,-2,-3,-1,-1
1523209096746718,-3,-3,-2,-2,-2,-2,-2,0
1523209096746718,-1,0,-2,0,2,0,-2,0
1523209096759755,0,0,1,2,1,1,0,1
1523209096759755,-1,0,-3,-1,-2,0,1,-1
1523209096767775,-1,-2,-2,-3,-3,-2,0,-3
1523209096767775,-2,-2,-4,-1,-3,-4,-1,-1
1523209096782814,-1,-1,-3,-2,-2,-2,-1,0
1523209096782814,-1,0,5,2,1,1,-3,0
1523209096784820,-1,0,-1,0,2,3,1,2
1523209096784820,0,-2,-1,-3,-3,-1,-3,-4
1523209096806110,-3,-2,-2,-1,-2,-3,-2,-3
1523209096806110,0,0,1,2,0,2,0,-1
1523209096807880,-2,-1,-2,-2,-3,-5,-2,-1
1523209096807880,0,0,1,1,-1,-1,-1,-1
1523209096819145,0,-1,-3,0,1,1,2,0
1523209096819145,1,1,0,-2,-4,-4,-3,0
1523209096827936,-1,-3,0,-2,-2,-2,-2,0
1523209096827936,-1,3,-1,0,2,1,1,0
1523209096849993,-1,-1,2,1,2,1,-1,0
1523209096849993,-1,-1,-11,-2,-3,-1,-1,0
1523209096851998,-1,-1,1,-1,-3,0,0,-2
1523209096851998,-2,-2,1,-3,-4,-1,-1,-1
1523209096865166,-2,-2,0,-1,-3,0,0,-1
1523209096865166,-1,-1,1,-1,0,-1,-1,-2
1523209096867037,1,1,-3,-2,-2,-1,-2,0
1523209096867037,-3,-2,1,1,-2,-1,0,-1
1523209096879073,0,-1,-4,2,2,3,0,0
1523209096879073,-1,-2,-2,-2,-1,0,-2,0
1523209096888141,-3,-3,-4,-2,-5,-4,-3,-3
1523209096888141,-2,-1,1,-2,-3,-2,-2,-1
1523209096903134,0,-1,-2,0,0,2,0,-2
1523209096903134,-1,-1,1,0,2,1,-1,0
1523209096905304,0,-1,-3,-2,-1,-2,0,0
1523209096905304,1,-2,1,-1,-1,-2,-3,0
1523209096925428,-2,-2,0,0,0,-1,-2,0
1523209096925428,1,-1,2,2,0,-1,3,-2
1523209096927199,-3,-4,-6,-2,0,-3,0,-2
1523209096927199,-1,0,-3,-3,-1,-3,-1,0
1523209096939464,-1,-3,-1,-2,-4,-3,-2,-3
1523209096939464,-3,-3,-1,-2,-3,-3,-1,0
1523209096948253,0,0,3,-1,-3,-2,-1,0
1523209096948253,0,0,-3,2,2,1,0,-2
1523209096963296,0,0,0,0,1,2,0,1
1523209096963296,-2,2,-2,-2,0,-1,-3,-3
1523209096964297,-2,-2,1,-2,-2,-2,-2,-2
1523209096964297,-2,-2,-2,-5,-5,-5,-3,-2
1523209096985354,0,-2,-4,-2,-2,-6,-3,-2
1523209096985354,-1,0,5,3,4,5,3,1
1523209096987358,0,1,0,3,1,5,1,0
1523209096987358,-1,-3,-4,-2,0,2,0,0
1523209097008655,-1,-2,1,-4,-5,-4,-2,-2
1523209097008655,-3,-2,-3,-3,-4,-4,-2,-2
1523209097009422,0,-2,2,0,2,-1,-1,-1
1523209097009422,1,-1,-1,1,2,1,3,-1
1523209097023701,-3,-1,-5,-2,-2,-1,-1,-1
1523209097023701,0,-1,-1,-2,-5,-5,-2,-3
1523209097024456,-3,0,-3,0,-1,-2,-2,-3
1523209097024456,-2,0,0,1,2,5,1,0
1523209097045515,0,1,-2,-3,-2,-1,0,-1
1523209097045515,-3,-2,-2,-1,-2,-1,-1,-1
1523209097047518,-2,-1,3,-2,-4,-2,-2,-2
1523209097047518,-1,-1,-1,1,-3,-2,-1,-2
1523209097068610,-1,0,0,2,1,2,1,0
1523209097068610,-1,-1,-3,-1,-1,-1,-3,-1
1523209097069575,0,-1,-1,-4,-2,-3,1,-1
1523209097069575,0,-2,0,0,0,-3,-1,0
1523209097082612,-1,0,0,-1,-2,-2,-2,-1
1523209097082612,0,-1,0,0,0,-1,-1,0
1523209097084617,0,0,-3,-1,2,0,1,1
1523209097084617,-1,-1,2,-2,-1,-2,-1,-1
1523209097105907,-1,-2,1,-1,-1,0,-2,-2
1523209097105907,-1,-1,0,-2,-2,0,-2,-2
1523209097107742,0,-3,-1,-3,-1,-1,-2,-2
1523209097107742,0,-1,-2,0,-1,0,1,-1
1523209097127732,-1,-2,-2,-1,-3,-1,1,1
1523209097127732,-2,-3,-2,-4,-3,-5,-2,-1
1523209097129736,0,2,4,2,0,0,0,-1
1523209097129736,-1,-2,-5,-3,0,0,-1,-1
1523209097142772,-2,-2,-2,-1,-2,-1,1,0
1523209097142772,1,-1,2,3,5,6,1,-1
1523209097144785,0,2,1,0,1,4,2,1
1523209097144785,0,-2,1,-5,-4,-5,-4,-3
1523209097165872,-3,-1,-1,-2,-2,-2,1,0
1523209097165872,0,0,-3,-2,-5,-4,-2,-2
1523209097166836,1,-2,-2,-2,-1,-2,-2,-2
1523209097166836,0,-1,0,2,-1,-1,-1,-2
1523209097188125,0,-2,-3,-1,-2,-3,-2,-1
1523209097188125,-1,-3,-2,0,-2,-1,-1,-1
1523209097189896,-2,-3,-1,1,-1,1,-1,0
1523209097189896,-2,0,-1,-1,1,0,0,0
1523209097201968,0,-3,1,0,-2,-2,-3,-3
1523209097201968,-1,-1,-2,0,-1,-1,-2,0
1523209097208945,0,-1,-2,-2,-1,-2,-1,-1
1523209097208945,-1,0,-2,-2,-1,0,0,-2
1523209097225994,-1,1,1,-1,0,-1,-1,0
1523209097225994,-1,0,3,0,2,0,0,-2
1523209097227000,-2,0,-13,-3,-2,-1,1,1
1523209097227000,-1,-2,0,-1,-2,-2,-4,-3
1523209097248052,-1,0,1,4,5,7,2,0
1523209097248052,-1,-1,-3,-4,-3,-3,-2,0
1523209097250058,-2,-4,1,-3,-3,-4,-3,-1
1523209097250058,-1,0,2,-3,-3,-4,-3,0
1523209097262089,-1,-1,-6,-1,-1,-2,-3,-1
1523209097262089,-1,0,8,-2,0,1,-1,0
1523209097269342,-2,-1,-3,-1,-2,-3,0,-1
1523209097269342,-1,1,0,1,-2,-2,0,0
1523209097286189,-2,-6,-3,-1,-1,2,-1,-2
1523209097286189,-2,-3,-7,-2,0,-1,-1,0
1523209097287153,-2,1,0,0,1,1,0,-1
1523209097287153,-2,-1,0,-1,0,1,-1,0
1523209097308445,0,-1,2,-2,-4,-4,-2,-3
1523209097308445,-1,-2,-1,-1,-4,-4,-2,-1
1523209097309222,-1,-2,-2,1,0,-1,-1,-1
1523209097309222,-1,-2,-3,3,5,5,5,2
1523209097322485,0,1,1,-4,1,-2,-2,0
1523209097322485,-1,-2,-3,-3,-3,-1,-2,-1
1523209097329312,-1,-2,0,-1,-4,-3,-3,-3
1523209097329312,-1,-1,-2,-2,-3,-3,-4,-2
1523209097345356,-1,-1,-2,-1,-2,-3,0,-2
1523209097345356,1,1,-2,-2,-1,-1,-1,0
1523209097347314,-2,-1,0,0,0,-1,-1,-2
1523209097347314,1,0,3,1,1,1,1,0
1523209097368606,-2,-2,-9,-1,-2,-2,-2,-1
1523209097368606,-1,1,3,0,3,1,1,-1
1523209097369373,0,0,4,-1,0,2,0,0
1523209097369373,-2,-5,-5,-6,-7,-6,-4,-4
1523209097382408,0,-1,3,-1,-4,-5,-4,-2
1523209097382408,1,-1,-1,2,4,4,3,0
1523209097389661,-2,-1,0,-1,2,1,1,-1
1523209097389661,-1,0,0,-3,-3,-2,-1,-1
1523209097405471,1,0,-2,-4,-5,-4,-3,-3
1523209097405471,-1,0,-5,-2,-2,-5,-3,-2
1523209097407474,1,-1,0,1,3,2,1,2
1523209097407474,-2,-2,-2,-1,-2,-2,-1,0
1523209097428534,-1,-1,5,0,0,-1,0,-1
1523209097428534,-1,-1,-2,1,-1,1,0,0
1523209097429538,1,-1,-3,-2,0,-1,-1,-2
1523209097429538,0,2,0,-2,-1,-2,-1,-1
1523209097442569,0,-2,-5,0,0,0,0,0
1523209097442569,-3,-2,1,-2,-1,-1,-1,0
1523209097449588,-2,-2,-3,-3,-1,-1,0,-2
1523209097449588,-2,-1,-5,-1,-2,-2,-2,-2
1523209097465671,0,-1,0,-1,-3,0,-2,-2
1523209097465671,2,2,0,2,0,1,2,0
1523209097467633,-1,-3,-4,0,2,1,-1,-1
1523209097467633,-2,1,3,3,4,3,1,0
1523209097488716,-1,-2,1,-4,-1,1,0,-1
1523209097488716,-1,-4,-2,-4,-5,-3,-4,-3
1523209097489692,-2,-2,1,-4,-4,-4,-2,-1
1523209097489692,-2,-2,-2,-1,-2,-2,1,-2
1523209097501724,0,2,-1,1,1,-2,-1,-2
1523209097501724,-1,-1,-8,0,0,1,0,-2
1523209097510750,-2,-1,3,-1,-1,0,-3,-2
1523209097510750,-1,-1,-1,2,2,2,1,0
1523209097525792,-2,0,-2,0,0,0,0,1
1523209097525792,-1,-2,3,-3,-3,-3,-1,-1
1523209097526795,0,-2,-3,0,-4,-3,-3,0
1523209097526795,0,-2,-2,-2,-3,-4,-2,-2
1523209097547847,-2,0,0,0,1,0,0,-1
1523209097547847,-1,1,0,2,2,2,1,-1
1523209097549854,-2,-1,-4,1,0,0,2,0
1523209097549854,0,-2,-1,-2,-1,0,-1,-1
1523209097561885,0,-1,1,-3,-2,-1,-2,-1
1523209097561885,-1,-2,-3,-3,-3,-5,-3,-2
1523209097570908,1,-1,0,-4,-4,-5,-2,-3
1523209097570908,0,-2,3,0,1,-2,-3,-1
1523209097586169,-1,-1,-2,1,5,4,3,0
1523209097586169,0,0,-1,2,2,3,0,0
1523209097586951,-2,-1,0,-2,-3,-2,-3,1
1523209097586951,-2,-1,-7,-4,-3,-4,-1,-1
1523209097608242,-2,-2,3,-1,-5,-6,-4,-1
1523209097608242,1,0,-1,1,-1,-3,-3,-1
1523209097610015,1,-1,1,1,2,1,2,1
1523209097610015,0,-1,0,0,-1,0,0,-1
1523209097622280,-2,-2,-3,-1,-1,-2,-1,-1
1523209097622280,-1,-1,0,-4,-4,-3,-1,-2
1523209097631069,0,2,1,1,1,-1,-1,-2
1523209097631069,-1,-3,-1,1,2,0,-1,1
1523209097645107,-1,0,-3,-1,0,0,-1,0
1523209097645107,-1,-2,-1,-2,-2,-3,-2,-1
1523209097647110,-2,-1,-3,-2,-3,-2,-3,-2
1523209097647110,0,-1,0,0,-2,-2,-1,0
1523209097668403,0,-3,-2,-1,-3,-1,1,-1
1523209097668403,-3,-2,2,2,-1,0,0,0
1523209097670294,-2,0,-6,2,4,3,2,0
1523209097670294,0,0,-3,-1,0,0,-1,0
1523209097681204,0,-3,0,-4,-3,-1,-1,-2
1523209097681204,0,1,0,-2,-2,-2,-2,-1
1523209097690460,-1,-2,0,-1,-2,-2,-4,-2
1523209097690460,-1,-1,-2,0,-1,-1,-2,0
1523209097705266,1,1,-2,0,-1,0,0,1
1523209097705266,-1,-1,0,0,-1,0,0,-1
1523209097707271,0,-2,-1,-1,-2,-2,0,-2
1523209097707271,-1,-1,-1,-1,1,1,0,-2
1523209097728326,-1,-1,-1,0,-1,0,-2,-2
1523209097728326,0,0,-3,-4,-2,-4,-2,-1
1523209097729330,0,-2,-1,-2,-3,-3,-2,0
1523209097729330,-1,0,0,-1,1,3,2,-1
1523209097741361,-1,0,0,0,2,0,0,-1
1523209097741361,-1,0,-4,0,0,0,-1,-1
1523209097750385,-1,-1,5,-3,-2,-3,-3,-1
1523209097750385,-1,0,-4,0,-2,-2,-1,-2
1523209097765426,0,-3,-1,1,1,0,-1,0
1523209097765426,-1,-2,-4,-1,1,1,0,-1
1523209097767432,0,-1,-2,0,0,0,-1,1
1523209097767432,1,0,0,-1,-4,-2,-2,0
1523209097788722,-1,-1,-2,0,-3,-4,-2,-1
1523209097788722,-1,-1,2,1,2,2,1,0
1523209097790533,-1,-1,-2,-1,1,1,0,-1
1523209097790533,-1,-2,2,-3,-4,-3,-2,0
1523209097801523,0,-1,-1,-2,-1,-2,-1,-1
1523209097801523,-1,-4,-4,-2,-2,-1,-2,-1
1523209097810549,-1,0,5,0,-1,-1,0,-2
1523209097810549,0,-2,-1,1,1,0,0,-1
1523209097825584,-2,1,1,0,2,0,-1,-1
1523209097825584,-1,-1,-2,-2,-2,-2,0,-1
1523209097827590,1,-1,-2,-3,-4,-3,-3,-1
1523209097827590,-2,-1,-2,1,0,-2,0,0
1523209097847644,-1,-1,1,1,-4,0,-1,1
1523209097847644,0,0,0,-2,-1,-1,-3,-1
1523209097849649,0,1,6,0,1,0,0,-1
1523209097849649,-2,-7,-11,-2,1,0,1,-3
1523209097861695,1,-1,4,-3,0,-1,-1,-1
1523209097861695,-3,-1,-3,-3,-6,-4,-1,-1
1523209097870703,0,0,0,-1,-1,-6,-5,-4
1523209097870703,1,2,1,5,6,6,5,2
1523209097885745,-2,-1,-5,0,0,0,-1,1
1523209097885745,-1,0,3,-2,-2,-3,-2,-2
1523209097886747,-3,-3,-4,-3,-3,-3,-1,-2
1523209097886747,-3,-1,0,-3,-5,-5,-2,-1
1523209097908024,1,-1,-4,0,2,0,2,-1
1523209097908024,-1,1,1,-1,1,-1,-2,0
1523209097909818,-2,-1,-3,0,0,0,1,0
1523209097909818,0,-1,1,-1,0,0,-2,-2
1523209097922075,-2,-1,-1,-3,-5,-1,-2,-3
1523209097922075,-1,-2,-4,-1,-1,-1,-2,0
1523209097930865,0,-3,-2,0,3,3,1,-1
1523209097930865,1,1,0,-1,0,0,-2,-1
1523209097945905,0,1,2,-1,-1,-3,-1,-1
1523209097945905,-1,-2,-1,-3,-4,-4,-2,-2
1523209097946907,-2,-1,-4,-2,-5,-3,-2,-1
1523209097946907,-2,1,1,1,4,2,1,-1
1523209097968181,-1,-2,-1,0,2,0,-1,1
1523209097968181,-2,-1,-2,1,2,2,1,-1
1523209097969969,0,-2,1,-4,-6,-2,-2,-1
1523209097969969,-2,1,-1,-4,-6,-5,-2,-3
1523209097991024,-1,0,6,0,0,0,-1,-1
1523209097991024,-1,-4,-12,-1,0,1,0,1
1523209097992030,-1,-1,-1,-2,1,-1,-1,0
1523209097992030,-2,0,1,-3,-4,-5,-4,0
1523209098006169,-1,-2,-5,-1,0,-2,-3,-3
1523209098006169,1,0,3,5,4,6,2,0
1523209098007066,-1,-2,1,0,1,2,1,-1
1523209098007066,1,-2,-1,-3,-3,-3,-2,-2
1523209098028124,-2,0,-1,-3,-6,-6,-2,-2
1523209098028124,-1,1,2,0,-1,-4,-2,-4
1523209098029125,0,-1,-3,0,1,1,-1,-1
1523209098029125,-1,1,3,1,1,1,1,0
1523209098050181,0,-2,-5,-2,-1,-1,-2,-1
1523209098050181,0,-2,2,0,-2,-1,-1,-1
1523209098052189,-1,-1,-3,1,0,0,-1,1
1523209098052189,-2,-2,0,-4,-4,-4,-3,-2
1523209098065457,-1,-2,-2,-2,0,-1,0,-1
1523209098065457,0,-1,-1,-3,-4,-4,-1,-1
1523209098067228,-1,-1,-2,1,0,-2,0,-2
1523209098067228,-1,-2,3,1,0,2,1,-1
1523209098088518,-1,-1,-2,2,2,1,0,1
1523209098088518,-2,-2,0,0,0,0,-1,-2
1523209098089284,1,0,-4,-1,-2,-3,-2,-1
1523209098089284,-1,-1,-3,-1,-2,-3,-2,-2
1523209098110347,0,-1,-2,-3,-4,-3,-2,0
1523209098110347,0,-1,0,-1,-1,-3,-2,1
1523209098112347,-1,1,0,3,4,5,3,1
1523209098112347,0,-1,-3,-1,-1,0,0,-1
1523209098124512,-1,-1,-1,-1,-2,-3,-2,-2
1523209098124512,0,0,0,0,-1,-1,-1,-1
1523209098133404,-1,-2,0,-1,-2,-1,-1,-1
1523209098133404,-1,-1,-3,-2,-2,-2,-4,1
1523209098148442,0,-2,2,0,-2,-1,-1,0
1523209098148442,-1,-1,-1,-2,0,1,1,-1
1523209098149446,-2,-1,0,-1,1,-1,0,-1
1523209098149446,-2,-2,-1,0,-1,-2,-3,-1
1523209098170737,-1,0,-1,-2,-2,-1,-1,1
1523209098170737,-1,-2,4,-1,-3,-3,-4,-1
1523209098172507,0,-3,-9,0,1,2,2,0
1523209098172507,-1,-1,3,-3,-4,-3,-1,-2
1523209098184540,-1,-1,-1,-2,-3,-5,-5,-3
1523209098184540,-1,0,5,2,2,4,3,-1
1523209098191565,0,-1,-1,-1,-1,2,-1,1
1523209098191565,-1,-2,-4,-1,0,-2,-1,-1
1523209098208610,-1,-1,-3,-3,-3,-1,-1,-1
1523209098208610,-2,-2,-4,-4,-5,-5,-2,-3
1523209098209613,-1,0,2,1,0,-1,1,-2
1523209098209613,0,-1,-4,0,1,2,1,1
1523209098230662,-2,0,3,-2,-3,-3,-2,0
1523209098230662,-2,-5,-7,1,2,0,-1,0
1523209098231665,0,0,0,2,1,2,0,-2
1523209098231665,0,-1,1,1,-2,1,-1,0
1523209098244704,0,-2,-2,-1,-2,1,0,-1
1523209098244704,-2,-1,-5,-5,-6,-6,-3,-1
1523209098251718,-1,-1,4,-1,-1,-2,0,-1
1523209098251718,-1,-2,0,-1,0,0,0,-2
1523209098267995,0,-1,-2,1,1,3,2,1
1523209098267995,0,0,-1,0,-1,0,-1,0
1523209098269767,-1,-2,-1,-2,-4,-4,-2,-1
1523209098269767,1,0,-2,1,0,0,-1,1
1523209098290822,-3,-1,-1,-1,0,0,1,0
1523209098290822,-1,1,0,-2,-2,-4,-2,-2
1523209098291825,-1,0,-1,-2,-1,-3,-3,-2
1523209098291825,0,-1,-3,3,3,3,3,1
1523209098304859,-2,-1,1,-1,-1,-1,1,1
1523209098304859,0,-2,-5,-4,-3,-2,-2,0
1523209098311881,-2,-1,0,-3,-3,-4,-2,-2
1523209098311881,-1,-1,4,-2,1,1,-1,-2
1523209098327920,-1,-3,-6,0,3,3,-1,-1
1523209098327920,-1,0,1,-1,-1,0,-2,1
1523209098329925,0,-1,-4,-3,-5,-6,-5,0
1523209098329925,-1,0,0,-1,-3,-4,-2,-3
1523209098350981,-1,-3,-2,3,3,5,3,0
1523209098350981,0,0,1,0,-1,1,-1,-1
1523209098351985,0,-1,-3,-1,-4,-2,-3,-2
1523209098351985,-3,-3,0,-3,-4,-3,-2,-1
1523209098365069,1,-1,-2,-3,-5,-7,-3,-2
1523209098365069,-1,0,-2,2,3,2,3,0
1523209098379055,-2,0,-1,0,2,3,1,1
1523209098379055,-1,-1,-1,-3,-2,0,-1,-1
1523209098388315,-1,2,-1,0,-2,-2,-2,-2
1523209098388315,-1,-1,-1,-2,-2,-1,-2,-1
1523209098390084,-3,0,2,-2,-3,-2,-1,-2
1523209098390084,-1,0,-3,1,-2,-2,-2,0
1523209098410146,0,-2,-1,0,3,2,0,0
1523209098410146,1,2,3,2,2,2,3,1
1523209098412143,-2,-2,-3,0,1,2,-2,0
1523209098412143,-1,0,-5,-3,-1,-3,1,-1
1523209098425181,-2,-4,0,-3,-5,-3,-2,-4
1523209098425181,-1,-1,-1,-2,-3,-5,-4,-1
1523209098431197,-1,-1,0,1,-2,-2,0,-1
1523209098431197,-1,-2,-3,-1,2,1,1,0
1523209098448239,0,1,0,2,2,2,1,2
1523209098448239,-2,-3,-1,-2,-2,-1,-1,-1
1523209098449242,-1,-3,-3,-2,-1,-1,1,-1
1523209098449242,-1,-1,3,0,-1,-2,-2,-1
1523209098470537,-2,-4,-6,-1,-2,-2,-1,0
1523209098470537,-1,-2,-4,-1,-2,-1,-1,-1
1523209098472304,-2,0,0,-2,-1,-2,-3,0
1523209098472304,0,-1,-2,0,-1,-1,0,0
1523209098484338,-1,1,1,-2,1,0,1,-1
1523209098484338,-1,-4,-6,-2,-1,-2,-1,-1
1523209098493364,-1,1,1,-1,0,-2,-1,1
1523209098493364,0,-1,-3,1,0,-1,1,0
1523209098508401,-4,-1,0,-3,-2,-2,-1,-1
1523209098508401,0,-1,2,0,-1,-1,0,-1
1523209098509410,0,-1,-2,-3,-4,-1,-1,-2
1523209098509410,-2,-2,-1,-2,-4,-5,-3,-2
1523209098530459,0,1,1,1,3,2,-1,-1
1523209098530459,-2,0,0,1,2,2,3,1
1523209098532464,-3,-2,0,-2,2,1,1,-1
1523209098532464,-1,0,-3,-3,-2,-2,-3,-1
1523209098544502,-1,-1,-2,-2,-4,-6,-4,-1
1523209098544502,0,-1,-2,-1,-2,-2,-2,-2
1523209098560538,2,0,-1,2,2,1,0,0
1523209098560538,-2,-2,1,-2,0,0,1,-1
1523209098568669,0,1,0,0,-1,-2,-1,0
1523209098568669,-2,-3,-5,-3,0,-1,1,-2
1523209098569561,-1,0,1,-2,-2,-2,0,-2
1523209098569561,0,-4,-7,-5,-3,-4,-2,-2
1523209098590618,-2,-2,0,3,1,3,1,-1
1523209098590618,0,1,0,3,3,2,-1,2
1523209098592632,1,0,-1,-1,-1,1,0,-1
1523209098592632,-2,-2,1,-1,-2,2,0,0
1523209098603653,1,-1,-4,-3,-6,-2,-1,-1
1523209098603653,-1,-3,0,-2,-3,-3,-3,-3
1523209098613687,-1,-2,-1,-1,-1,-3,-2,-2
1523209098613687,0,0,1,0,3,-1,1,0
1523209098627720,-1,-1,-2,-1,-1,-2,0,0
1523209098627720,-1,0,3,-2,-2,-3,-2,-1
1523209098629722,-2,-1,-2,-4,-3,-3,-1,0
1523209098629722,-1,-1,0,-2,-1,-2,-2,-2
1523209098650778,0,-1,0,2,2,-1,-1,0
1523209098650778,-1,-1,-1,0,1,2,1,2
1523209098651781,-1,-3,-3,-3,-3,-2,-1,0
1523209098651781,0,-2,3,-1,-2,-1,-3,-2
1523209098664856,-1,0,-4,-1,3,5,2,0
1523209098664856,-1,0,0,-2,-2,-3,-2,-1
1523209098672994,1,0,-1,-3,-2,-2,-1,0
1523209098672994,-1,-1,-1,0,-1,-2,-1,-1
1523209098695897,-1,-2,0,-2,-2,-2,-2,-1
1523209098695897,0,1,-3,-1,-3,-1,-1,-2
1523209098696900,-2,-3,3,0,-1,-1,-1,0
1523209098696900,-1,-1,-4,-1,-1,-3,-2,-3
1523209098710938,-1,1,-1,1,2,2,0,-1
1523209098710938,0,-1,-3,-1,1,1,-1,-1
1523209098711940,-1,1,-1,-2,-1,-2,-1,-2
1523209098711940,-2,-2,-5,-4,-2,-1,-2,-1
1523209098724027,-1,-1,0,-2,-3,-4,-2,-1
1523209098724027,-1,-2,1,-1,-1,-1,-1,-1
1523209098732998,-1,-3,-2,0,-1,-1,-2,0
1523209098732998,0,2,-2,1,1,2,1,1
1523209098748035,-1,-2,-1,-4,-1,-1,-2,0
1523209098748035,-1,0,-2,-2,-4,-3,0,-2
1523209098750043,-2,0,-1,0,-1,0,-3,0
1523209098750043,-1,-1,-1,-2,-3,-1,-1,-1
1523209098770330,0,-1,1,1,0,-2,-1,0
1523209098770330,0,-1,0,0,0,0,0,0
1523209098770330,-1,-1,-1,-2,-2,-3,0,-4
1523209098770330,0,0,0,-1,-2,-1,-1,0
1523209098792156,1,1,-1,1,-1,-1,0,-1
1523209098792156,-1,-2,-3,-2,-2,-2,-2,1
1523209098793159,-1,-1,0,1,2,2,1,2
1523209098793159,0,-2,-5,0,1,2,-1,1
1523209098807283,0,-1,0,-1,-1,-1,1,-1
1523209098807283,-1,-1,-1,0,0,0,-2,-1
1523209098808197,0,-2,0,-2,-1,-1,-2,-3
1523209098808197,-2,0,-1,-1,0,1,0,1
1523209098830254,-2,-1,0,-2,-3,-3,-1,-1
1523209098830254,-2,-1,-1,0,2,0,0,-1
1523209098830254,-2,-1,1,-1,2,1,2,-2
1523209098830254,-1,0,-1,-1,-1,-1,-4,-1
1523209098852313,-1,-2,0,-2,-5,-3,-4,-2
1523209098852313,-3,0,0,-1,-2,-2,0,0
1523209098853316,-1,-1,-4,1,0,2,-1,0
1523209098853316,-2,-2,7,-2,-1,-1,-1,0
1523209098867352,-1,-1,-5,-1,-2,0,-1,-1
1523209098867352,0,-1,-1,-1,-3,-2,-1,0
1523209098868356,-2,-1,-4,-2,0,0,0,-1
1523209098868356,0,0,0,-1,-2,-1,0,-3
1523209098889647,-2,0,0,-2,0,-2,-1,0
1523209098889647,-1,-2,0,-1,-3,-3,-2,-2
1523209098890415,0,-1,2,2,1,1,0,-1
1523209098890415,0,2,-2,1,0,-1,-1,-3
1523209098912477,-2,0,1,0,0,2,-1,0
1523209098912477,-3,-3,-6,-4,-3,-4,-4,-3
1523209098913712,-2,-2,0,0,-6,-4,-2,-3
1523209098913712,-1,-2,0,-1,1,2,0,0
1523209098927514,0,0,0,1,2,3,0,-2
1523209098927514,-1,1,0,1,2,2,1,0
1523209098928516,0,-2,-2,-3,-2,-5,-3,-1
1523209098928516,-2,-2,-3,0,-3,-3,-1,0
1523209098949572,-2,-1,-2,-2,-2,-3,0,-2
1523209098949572,0,2,3,-3,-4,-1,-2,-2
1523209098950574,0,-1,-1,-2,0,-2,-2,-2
1523209098950574,-1,1,-1,1,1,0,1,-1
1523209098972869,1,-1,-1,-1,2,3,1,0
1523209098972869,-2,-1,-2,-2,0,-1,-2,0
1523209098972869,-1,0,-2,-3,-3,-1,-1,0
1523209098972869,-2,-1,-2,-3,-5,-5,-2,-3
1523209098987908,0,0,0,1,-1,2,0,1
1523209098987908,0,-1,0,0,0,0,0,-1
1523209098987908,-2,-1,5,0,-2,-1,-2,0
1523209098987908,-1,-2,-13,-2,0,2,0,0
1523209099009732,-1,-1,5,0,-2,-3,1,-2
1523209099009732,0,-1,-3,-2,0,-3,-1,-1
1523209099010756,0,-2,-1,-1,-1,-1,-2,0
1523209099010756,-2,-2,-3,1,-2,-4,-2,-1
1523209099032792,-1,-1,-2,0,-1,0,-1,-1
1523209099032792,1,0,-2,1,2,1,1,0
1523209099032792,-1,-2,0,-2,1,1,-1,1
1523209099032792,-1,0,1,-4,-4,-2,-2,-2
1523209099047833,-2,-3,-3,-4,-6,-6,-3,-2
1523209099047833,-1,-1,4,3,2,2,2,-2
1523209099047833,0,-4,-7,2,3,3,2,1
1523209099047833,3,-2,2,-1,1,2,1,-1
1523209099070126,-1,0,-2,-1,-1,-2,-2,-2
1523209099070126,-1,-2,-1,-2,-5,-4,-3,-1
1523209099070894,-2,1,-2,-1,-2,-3,-2,-2
1523209099070894,0,0,-1,-1,0,-1,0,-1
1523209099091952,-1,-1,0,-2,-1,0,-1,1
1523209099091952,-1,-2,-1,-1,2,1,2,1
1523209099092954,-1,-1,-4,0,-2,-1,0,-1
1523209099092954,-2,1,5,-4,-4,-4,-2,-1
1523209099107036,-1,-2,-3,-2,-2,-4,-3,-2
1523209099107036,-1,-1,-2,1,1,2,0,-2
1523209099107996,-1,-1,-1,0,1,-1,-2,0
1523209099107996,-2,1,-1,2,0,-2,-1,-1
1523209099130053,0,-1,-1,-3,-3,-2,-2,0
1523209099130053,-2,0,-3,-3,-3,-2,-2,-2
1523209099131054,-1,1,0,2,3,4,2,0
1523209099131054,0,-2,1,-1,0,-1,-1,-1
1523209099152112,-2,-1,-2,0,0,1,0,0
1523209099152112,-2,-2,-1,2,-1,0,-1,0
1523209099153112,-1,0,5,-4,-5,-2,-2,-3
1523209099153112,-1,0,-1,1,-1,1,-1,-2
1523209099167150,0,-3,1,-1,0,1,1,-1
1523209099167150,0,-1,-3,-3,-1,-3,-2,-2
1523209099168153,-2,1,-2,0,-2,-2,1,-1
1523209099168153,0,-2,0,0,-2,-1,0,0
1523209099190301,-1,-2,-2,-4,-1,-2,-2,-2
1523209099190301,-1,-2,-1,-2,-3,-2,-1,-2
1523209099190301,-2,-1,-1,-1,-1,-2,-2,-2
1523209099190301,-1,-1,-1,2,2,3,1,0
1523209099212271,0,-1,-3,0,2,-1,1,0
1523209099212271,0,1,2,-1,-1,-1,-1,-1
1523209099213273,-2,-1,-5,-2,-3,-4,-3,-2
1523209099213273,0,-2,-2,-2,-4,-3,-3,-2
1523209099227316,0,1,0,2,-2,-2,0,-1
1523209099227316,-1,0,-3,0,1,-1,0,1
1523209099228313,0,0,1,-1,-3,-2,-2,-2
1523209099228313,-1,-1,0,2,2,1,1,-1
1523209099250442,-1,-1,-3,0,-1,-1,-2,-2
1523209099250442,0,0,1,1,1,1,0,-1
1523209099250442,-1,-2,-1,0,-1,1,-1,-1
1523209099250442,-1,-1,-3,-3,-3,0,-1,1
1523209099272665,-1,-1,-2,-3,-3,-3,-3,-2
1523209099272665,-2,-2,2,-2,-3,-2,-1,-2
1523209099273432,0,-1,-2,0,2,0,-2,1
1523209099273432,-1,1,1,1,2,5,3,0
1523209099287704,-2,0,-4,-2,1,2,-2,0
1523209099287704,-1,-1,-2,-2,-2,-1,-1,-1
1523209099288472,0,0,-3,-1,-3,-1,0,-2
1523209099288472,-1,-1,1,-2,-3,-4,-4,0
1523209099309532,-2,0,-6,-1,1,-2,-1,0
1523209099309532,-3,-2,-2,-1,-3,-1,0,-1
1523209099310531,-1,-3,-2,-3,0,-1,0,-2
1523209099310531,-1,-1,-3,-2,1,-1,1,0
1523209099332590,-1,-3,2,0,0,-1,-3,0
1523209099332590,0,0,0,-2,-1,-3,-2,1
1523209099333593,1,0,-4,0,0,1,-2,0
1523209099333593,-1,-2,1,-3,-3,-3,-4,-2
1523209099347630,1,0,-1,-2,-1,-1,1,-1
1523209099347630,0,-1,-1,0,0,0,0,-1
1523209099347630,-1,-4,-5,1,2,2,2,0
1523209099347630,-1,-2,-1,0,1,1,0,-1
1523209099369922,0,0,5,1,-3,-2,-1,-1
1523209099369922,-1,-2,-6,0,-2,-4,-2,-1
1523209099370690,0,-1,0,-3,-4,-4,-2,-1
1523209099370690,-1,-2,2,0,-1,-2,-2,-1
1523209099392755,-1,-1,-2,0,0,0,1,-1
1523209099392755,0,-2,2,0,3,2,0,0
1523209099392755,1,-1,1,-1,0,-2,-1,0
1523209099392755,-1,-2,-5,-4,-5,-4,-2,-2
1523209099415811,0,0,1,-2,-4,-4,-1,-1
1523209099415811,-3,-1,1,0,2,1,-2,-1
1523209099415811,1,2,0,2,3,3,3,1
1523209099415811,-2,-2,-1,-1,-1,-1,-1,-2
1523209099429848,-1,-2,1,-3,-1,-3,-2,0
1523209099429848,-1,-1,-3,-4,-3,-1,-2,-2
1523209099430853,-2,-1,2,-2,-3,-2,-2,-3
1523209099430853,-1,-3,-3,-1,-1,-3,-4,-2
1523209099451906,0,1,4,0,1,1,1,0
1523209099451906,-2,-2,-2,1,1,0,0,-2
1523209099452918,-1,1,-1,1,1,1,1,0
1523209099452918,-1,0,-1,0,0,0,0,0
1523209099467987,-1,-4,-3,-3,-3,-1,-2,0
1523209099467987,0,-1,-1,-2,-4,-3,-2,0
1523209099467987,-2,-2,-4,-3,-2,-4,-2,-2
1523209099467987,-1,1,4,0,1,-3,-1,1
1523209099490054,1,-1,-1,2,1,2,0,0
1523209099490054,-1,-1,-2,-1,-4,0,-2,0
1523209099491015,-3,-1,-2,-2,-4,-4,-3,-2
1523209099491015,0,0,-5,-1,-1,0,-1,-1
1523209099512066,-2,-3,0,-2,1,1,-1,0
1523209099512066,0,1,2,0,-1,-3,-1,-1
1523209099513069,-1,-2,-3,0,-1,0,-1,-2
1523209099513069,1,0,0,-3,-3,-1,-2,0
1523209099527107,1,0,-2,1,-1,0,0,-2
1523209099527107,-3,-2,-4,-1,-2,0,0,0
1523209099535363,-1,0,1,-1,0,-1,0,-2
1523209099535363,-1,-2,-4,-1,1,1,0,0
1523209099550404,-2,1,0,-2,-2,-3,-2,-2
1523209099550404,0,-1,-1,-2,-3,-4,-2,-1
1523209099550404,0,0,1,2,2,2,0,0
1523209099550404,0,0,-3,0,2,1,0,0
1523209099572461,-1,-1,-1,0,0,-1,-1,-2
1523209099572461,0,-3,0,0,-1,-3,-1,-1
1523209099573227,-1,-1,1,-4,-4,-3,-4,-2
1523209099573227,0,-2,-1,0,-1,-3,-3,-2
1523209099587307,0,0,-1,3,5,4,3,0
1523209099587307,-1,-1,-1,-1,0,1,0,0
1523209099595287,-2,-1,0,1,-2,-2,-3,0
1523209099595287,-1,0,0,-3,-5,-4,-2,-1
1523209099610328,-2,-3,-4,-2,-5,-6,-4,-2
1523209099610328,2,1,3,2,7,5,3,0
1523209099610328,-1,0,-3,-2,-1,-1,0,1
1523209099610328,-2,-1,1,-1,-2,-1,-2,-2
1523209099632386,0,-1,-2,-3,-4,-5,-3,-2
1523209099632386,-2,0,-4,-2,0,1,1,-1
1523209099633389,0,-1,1,0,1,1,0,1
1523209099633389,-1,-1,-6,1,-1,0,0,-1
1523209099646423,-1,0,10,-4,-3,-1,-1,-2
1523209099646423,-2,-4,-7,0,-3,-2,-4,-3
1523209099655490,0,-1,0,-1,-2,-2,-3,-1
1523209099655490,0,-1,1,0,-1,-1,0,-1
1523209099670511,0,0,-4,0,0,2,1,0
1523209099670511,-1,0,2,-2,-3,-4,-3,-1
1523209099670511,-2,0,0,-2,-2,-4,-1,-2
1523209099670511,-1,0,-1,2,2,4,1,0
1523209099692549,1,-1,1,0,0,0,-1,1
1523209099692549,0,-1,-1,-1,-2,-2,-1,-1
1523209099693549,-1,-1,3,-2,-5,-3,-3,-2
1523209099693549,-1,-3,-5,-3,-1,-3,-1,-3
1523209099706581,0,1,-5,3,3,5,1,2
1523209099706581,0,-1,0,-3,0,-1,0,-1
1523209099714840,-2,0,2,-3,-2,-1,-3,0
1523209099714840,-2,-1,0,-1,-1,-3,-1,0
1523209099729646,-2,-3,-3,-2,-5,-3,-2,-2
1523209099729646,-2,0,-2,-1,-3,-3,-1,0
1523209099730647,1,-1,-3,0,0,-1,-2,-1
1523209099730647,-1,0,-1,2,1,-1,0,-1
1523209099752941,0,-1,-6,1,-1,0,1,-1
1523209099752941,-1,0,1,-1,-2,-1,-1,0
1523209099752941,-1,-4,-4,-3,-4,-4,0,-1
1523209099752941,-3,-2,6,-2,-2,-3,-3,-1
1523209099766746,1,-1,1,2,4,2,2,1
1523209099766746,1,0,0,0,2,1,0,-1
1523209099774765,-1,0,-3,0,1,1,0,0
1523209099774765,-1,-2,-2,-1,-3,-1,-2,-3
1523209099789844,-2,-2,-2,-2,-3,-4,-5,-2
1523209099789844,-3,-1,-2,-1,2,2,-1,-1
1523209099790812,-2,-1,-3,1,-1,0,-1,0
1523209099790812,1,0,-1,-4,-4,-4,-4,0
1523209099811862,-2,0,-2,-2,-4,-3,-3,-2
1523209099811862,0,-2,-2,1,0,0,2,-2
1523209099812865,0,-1,0,3,2,2,2,-1
1523209099812865,-2,0,-3,-1,-1,0,0,-1
1523209099835932,-1,0,1,-1,-1,-3,-1,1
1523209099835932,-1,-2,-7,0,0,0,-1,0
1523209099835932,0,-1,-1,-2,-1,-1,-1,0
1523209099835932,0,-1,0,-1,-4,-1,-1,0
1523209099849967,0,-3,-2,-3,-2,-3,-1,-2
1523209099849967,-1,-1,2,-1,-1,-4,-3,-1
1523209099850967,1,-2,-3,3,3,4,3,1
1523209099850967,-1,-1,-1,0,1,2,0,0
1523209099873024,0,0,1,-3,-2,-2,-2,-2
1523209099873024,-1,0,-1,-3,-3,-2,-3,1
1523209099873024,-2,0,-1,-1,1,-1,-1,-3
1523209099873024,-2,-1,0,-2,-2,-3,-2,-1
1523209099895085,-1,-1,-2,-1,1,-1,1,0
1523209099895085,0,0,1,-4,-6,-4,-3,-1
1523209099896086,-2,0,-6,-1,-2,-2,-2,0
1523209099896086,-1,1,1,2,3,4,1,0
1523209099910128,-1,-2,-3,0,-1,-2,-1,-1
1523209099910128,-3,-3,5,-3,-2,-3,-1,-2
1523209099910128,-2,-3,-10,-4,-1,-3,-2,-1
1523209099910128,1,0,1,-1,-4,-3,-1,0
1523209099932184,-1,0,1,4,2,0,1,1
1523209099932184,3,1,2,1,3,4,1,1
1523209099933186,-3,-2,-2,-4,-4,-2,-3,-4
1523209099933186,0,-4,-3,-2,-3,-4,-3,-2
1523209099955465,-2,-1,-1,-1,-1,-3,-1,-1
1523209099955465,-1,-1,-3,1,0,1,1,-1
1523209099956245,0,0,5,-2,-2,-2,1,1
1523209099956245,-1,-2,-4,-3,-5,-4,-2,0
1523209099970440,-2,0,-2,1,-1,-2,-3,-3
1523209099970440,-2,-3,-2,0,2,1,0,1
1523209099970440,-2,-1,1,-1,-2,0,-1,-1
1523209099970440,-1,-1,1,-3,0,-2,-2,0
1523209099992347,-2,0,-3,-2,-3,-2,-1,-1
1523209099992347,-1,-1,-3,-2,0,-2,-1,-2
1523209099993347,-2,-1,-3,-2,-5,-2,-1,-1
1523209099993347,-1,0,0,0,2,-1,-1,-1
1523209100015639,1,1,0,3,8,7,3,1
1523209100015639,1,0,0,-2,-1,-1,-4,-2
1523209100016406,-1,-2,0,-2,-1,-3,-2,-1
1523209100016406,0,-2,-1,-2,-5,-4,-3,-2
1523209100029443,-2,0,-3,-1,-3,-4,-3,-1
1523209100029443,-2,-2,0,2,1,1,0,0
1523209100030445,-1,-1,-2,1,-1,0,-2,0
1523209100030445,1,1,1,2,5,3,2,-1
1523209100052505,-1,-2,0,-1,-3,-2,-2,-2
1523209100052505,-1,1,0,-1,-4,-3,-2,-2
1523209100053505,-1,0,-2,0,-2,-2,-2,-3
1523209100053505,0,-2,-1,0,1,-1,-1,-1
1523209100075573,-2,-2,-3,-3,-3,0,0,-1
1523209100075573,-2,-1,-2,-4,-2,-5,-2,-1
1523209100076571,2,0,1,1,1,2,0,0
1523209100076571,-1,-1,-3,1,3,2,2,1
1523209100089599,1,-2,1,-1,-1,-2,-2,-1
1523209100089599,-1,-1,-3,-1,1,1,-1,-1
1523209100090607,-2,0,0,-3,0,-1,-2,0
1523209100090607,0,-1,-1,-2,-2,1,-1,-1
1523209100112663,-1,-1,-2,-3,-4,-3,-3,-1
1523209100112663,-2,0,-1,-3,-4,-4,-3,-1
1523209100112663,-1,-2,-2,1,2,-1,1,0
1523209100112663,-1,2,-2,2,3,3,3,-1
1523209100135958,0,2,6,-2,-1,-1,0,-1
