timestamp,emg1,emg2,emg3,emg4,emg5,emg6,emg7,emg8
1523210911168431,5,12,2,-11,21,12,1,-1
1523210911168431,2,1,0,12,13,9,4,3
1523210911170437,1,1,-31,-22,-22,-4,0,-2
1523210911170437,-5,1,-16,23,8,-10,-7,-1
1523210911182476,-6,-19,33,-17,-12,-2,-4,-2
1523210911182476,-3,-1,-1,-14,-4,-5,0,-4
1523210911197509,-2,-1,29,-7,-3,-2,-2,0
1523210911197509,2,7,-17,-11,-9,-6,-3,-1
1523210911205532,1,-3,7,13,8,5,3,3
1523210911205532,1,3,-3,18,20,10,4,3
1523210911207536,-1,3,-5,-17,2,-1,-1,-2
1523210911207536,-1,11,-6,-10,-20,-4,-6,-2
1523210911228592,-4,-23,2,24,-15,-10,-2,-2
1523210911228592,0,1,0,-24,8,3,0,-1
1523210911229594,3,6,-15,9,8,15,6,2
1523210911229594,2,3,43,35,12,0,0,1
1523210911241626,1,21,12,-27,-9,-4,-1,-1
1523210911241626,-4,-15,-80,-5,-12,-8,-18,-6
1523210911250658,-6,-11,63,3,-10,-9,9,0
1523210911250658,3,9,5,17,1,-4,-5,0
1523210911265697,2,9,-12,-11,6,3,1,-1
1523210911265697,-5,-22,13,-7,5,3,-12,0
1523210911267696,-3,-6,-13,-10,-2,2,21,-8
1523210911267696,-2,-4,-1,15,-7,-4,-2,-2
1523210911295775,-3,4,-33,-21,-3,-3,-7,-1
1523210911295775,-1,2,38,15,11,0,4,2
1523210911297780,5,3,2,3,-1,3,-6,3
1523210911297780,-7,-31,-8,-28,-3,1,5,-3
1523210911301787,0,0,-14,13,2,-1,-10,-1
1523210911301787,5,8,16,7,1,1,-30,2
1523210911310810,-6,4,14,18,-2,0,59,4
1523210911310810,-5,-15,-25,-20,-7,-3,-12,-5
1523210911324848,-1,2,-32,4,4,-1,-1,-1
1523210911324848,1,2,29,31,-1,-2,-1,-3
1523210911331877,0,-6,-46,-40,-10,-5,-24,-4
1523210911331877,6,8,23,5,-1,1,12,62
1523210911348939,-21,-11,14,12,1,-2,-14,-77
1523210911348939,-1,-1,-17,-17,2,0,2,34
1523210911349917,-4,-4,29,17,2,6,-8,-40
1523210911349917,0,5,-27,-12,-1,0,4,-23
1523210911361950,7,0,9,5,-2,-2,-4,25
1523210911361950,-2,3,-7,-3,-5,-5,12,-5
1523210911370971,-2,-4,29,8,-8,-9,-13,-5
1523210911370971,3,3,-21,0,-2,-2,-20,9
1523210911385015,2,6,3,-7,5,6,23,11
1523210911385015,-2,-2,12,14,-6,-1,5,-12
1523210911392031,1,-4,-22,-11,-2,-5,-8,24
1523210911392031,-4,-1,7,-2,-4,-5,-3,-18
1523210911408095,3,0,11,7,1,1,1,18
1523210911408095,0,11,13,3,13,8,19,-7
1523210911410076,-4,-7,-40,-16,0,5,-15,-4
1523210911410076,0,4,8,20,-3,-4,2,-8
1523210911422105,2,7,18,-18,0,-6,0,-2
1523210911422105,-1,-9,-29,-24,-14,-10,-5,2
1523210911431134,0,0,-17,8,3,0,-8,6
1523210911431134,1,7,42,15,-2,9,8,-6
1523210911445185,-1,-6,-17,1,18,1,0,9
1523210911445185,-1,1,-13,16,-16,-8,-4,-6
1523210911453191,-6,-6,11,-31,-11,-6,-5,2
1523210911453191,-1,2,-11,-12,9,-3,0,-5
1523210911468229,1,3,-8,17,1,12,1,6
1523210911468229,-6,-23,0,-33,5,-4,0,-5
1523210911470233,-1,-5,-5,15,-15,-11,-10,-3
1523210911470233,-1,1,-3,-14,-8,-3,7,2
1523210911482274,0,-1,20,30,19,7,-1,1
1523210911482274,0,8,-13,-26,-5,-5,2,-3
1523210911491291,2,1,-16,0,-5,1,-5,4
1523210911491291,-1,-5,-12,4,5,4,-1,-3
1523210911505327,-1,0,5,0,-9,-6,-1,0
1523210911505327,-2,1,7,8,7,3,2,-5
1523210911512581,2,7,16,-10,-1,-4,-6,3
1523210911512581,-7,-12,-5,3,-4,-7,-5,-2
1523210911528624,-3,2,1,-11,-9,-7,8,-1
1523210911528624,-1,1,1,6,-1,1,-3,-1
1523210911530394,0,-5,9,17,4,0,-4,0
1523210911530394,1,0,7,0,6,4,2,-3
1523210911542426,2,6,12,-23,-8,-5,-4,2
1523210911542426,-3,-17,-24,0,-4,-1,1,-2
1523210911551451,-1,-6,-21,6,3,3,-7,-2
1523210911551451,-1,0,8,-13,4,1,-2,-2
1523210911565488,1,-3,-2,-4,-6,-4,6,2
1523210911565488,0,11,-1,36,-20,1,1,-3
1523210911572505,2,6,12,-12,25,-2,1,1
1523210911572505,0,-1,-11,12,-1,3,-6,-1
1523210911588549,-1,-13,-2,-2,2,6,3,0
1523210911588549,1,6,3,1,7,4,-8,-1
1523210911589551,-2,1,2,1,-12,0,22,-1
1523210911589551,-2,1,3,-4,-9,-10,-10,-2
1523210911611647,-4,-4,-13,-11,-16,-17,-12,-3
1523210911611647,0,1,-4,2,9,6,10,2
1523210911612612,1,-1,14,1,4,11,-10,5
1523210911612612,-1,1,-15,-7,8,3,10,-2
1523210911625647,-3,-4,-10,-3,-10,-2,-1,-2
1523210911625647,-1,2,7,-4,1,-6,-7,-1
1523210911631663,-3,-4,0,-6,-2,-4,-4,0
1523210911631663,0,-4,-4,4,-6,-3,1,-2
1523210911648723,0,-2,-5,0,-8,-8,-9,-1
1523210911648723,1,6,-1,-6,5,3,4,1
1523210911649711,0,-16,12,47,6,5,4,2
1523210911649711,-2,-3,-21,-39,-3,-1,-4,-2
1523210911670768,-1,4,0,2,-1,0,-3,-2
1523210911670768,-2,-8,-7,-10,-1,-7,-2,-2
1523210911672773,0,0,-1,-2,-7,-1,-2,-2
1523210911672773,2,3,12,17,4,2,1,0
1523210911684805,2,-2,-3,-4,2,2,2,1
1523210911684805,-5,-4,2,2,-4,-5,-2,-1
1523210911691822,-1,4,-7,-17,-7,-8,-4,-3
1523210911691822,0,11,-8,-3,3,0,0,-1
1523210911708869,-1,1,19,20,-6,2,0,0
1523210911708869,-1,-6,-1,1,-1,-4,3,0
1523210911709869,4,5,5,6,25,15,4,3
1523210911709869,0,0,-5,4,2,1,1,2
1523210911731967,-3,-6,7,-1,-6,0,-4,-2
1523210911731967,-1,11,-20,-17,-11,-6,-5,-4
1523210911732931,-6,-15,-5,-9,-18,-15,-11,-4
1523210911732931,1,-1,10,7,-8,-2,5,-1
1523210911745209,-2,-3,3,25,17,6,0,1
1523210911745209,-1,-3,-19,-37,-2,0,-1,-2
1523210911753988,-1,5,-15,-7,-4,-4,-9,-1
1523210911753988,-1,-5,0,13,-1,1,8,2
1523210911768027,0,-5,-2,5,1,0,0,-1
1523210911768027,0,3,35,16,8,5,3,2
1523210911770030,-1,3,-11,-17,-8,-2,0,-3
1523210911770030,-3,-5,-9,-4,-11,-8,-8,-2
1523210911791092,-2,1,-16,-8,3,0,1,0
1523210911791092,0,0,17,6,3,3,0,0
1523210911792090,-1,0,4,-2,1,1,3,-2
1523210911792090,-1,-1,-10,9,2,1,-1,3
1523210911805252,-1,-2,0,-26,-4,-4,0,-3
1523210911805252,1,-1,5,12,0,0,-9,-3
1523210911813258,-2,-3,1,-15,-7,-4,3,0
1523210911813258,-1,-1,-13,-2,-2,-5,-3,-6
1523210911829186,-3,-1,3,10,2,-1,0,-2
1523210911829186,-2,-6,1,-9,-6,-2,-2,-1
1523210911830191,-1,0,-22,-6,9,1,0,0
1523210911830191,-3,-2,21,5,-16,-3,-1,0
1523210911851245,1,2,-15,-30,9,-9,-2,-1
1523210911851245,1,4,19,26,7,15,6,2
1523210911852248,1,1,-3,-22,-1,5,0,2
1523210911852248,-3,-10,-3,-11,0,-4,-2,-2
1523210911864282,-1,0,-10,-1,-10,-2,-3,-2
1523210911864282,0,6,-2,9,-6,-11,-3,-1
1523210911873304,-1,3,23,6,2,-2,-3,-3
1523210911873304,-3,-1,-25,-17,-6,-6,-6,-3
1523210911888345,-1,3,7,11,3,3,0,0
1523210911888345,-2,-10,-12,-8,9,6,4,1
1523210911890351,0,-1,-3,24,-6,1,1,0
1523210911890351,-2,-1,2,-16,2,-1,0,-2
1523210911911643,-2,0,4,7,-6,-1,-3,-3
1523210911911643,0,-1,-6,-12,-5,-8,-2,-2
1523210911912408,-3,-7,16,5,-12,-8,-3,-4
1523210911912408,1,-2,-8,-2,13,6,1,1
1523210911924442,1,5,4,-3,5,6,3,2
1523210911924442,-1,-7,1,18,-2,-5,-4,-3
1523210911933466,-2,-1,5,-15,-12,-9,-1,-1
1523210911933466,3,11,35,24,-5,-2,-4,-2
1523210911948509,-10,-25,-72,-46,-13,-6,-6,-5
1523210911948509,3,4,-16,6,18,14,9,4
1523210911954523,1,2,15,16,10,7,3,0
1523210911954523,0,0,8,6,5,1,-3,-2
1523210911970564,-1,2,4,-1,-11,-6,-4,-2
1523210911970564,-4,-4,8,-3,-15,-13,-5,-3
1523210911972569,-2,-3,-25,-11,-1,-4,-3,-3
1523210911972569,1,10,12,14,2,2,1,2
1523210911984600,-4,-16,9,3,-2,-5,-3,-1
1523210911984600,0,1,-12,-14,1,2,-2,-3
1523210911993625,3,4,17,6,-2,-3,2,1
1523210911993625,-2,-2,-18,-11,2,2,-2,-3
1523210912008666,3,8,5,8,4,5,4,1
1523210912008666,-2,-4,-9,-1,-2,-1,-2,-2
1523210912010758,-1,-2,10,1,-2,0,-1,-1
1523210912010758,-4,-9,-24,-8,-3,-6,-5,-3
1523210912030725,1,1,6,7,-2,-7,-2,-2
1523210912030725,0,0,8,8,-6,-5,0,-2
1523210912032729,2,6,14,10,14,9,4,3
1523210912032729,-1,-4,-25,-15,-6,1,-1,-1
1523210912045004,-3,-3,-15,-15,-6,1,0,-2
1523210912045004,1,2,14,0,-5,-6,-4,-2
1523210912053787,-3,-2,-25,-7,-4,-7,-5,0
1523210912053787,0,2,16,15,7,3,3,4
1523210912068825,1,3,11,10,11,11,3,2
1523210912068825,-2,-1,-5,-10,4,0,-2,-1
1523210912069826,-2,-4,1,0,-12,-8,-4,-4
1523210912069826,-1,-2,-30,-8,-6,-7,-4,-2
1523210912090885,-1,4,38,1,-11,-10,-4,-3
1523210912090885,-1,-4,-2,1,7,3,1,1
1523210912092930,1,3,57,11,10,18,4,0
1523210912092930,-6,-13,-91,-32,-13,-7,-5,-4
1523210912105157,-4,-4,10,-5,-3,-3,-1,-1
1523210912105157,-1,0,5,-1,-3,-6,0,0
1523210912113949,-2,-1,-4,0,0,-5,-2,-3
1523210912113949,0,-1,29,13,0,2,3,-1
1523210912129096,0,1,-17,-1,5,3,0,2
1523210912129096,-2,8,-6,-10,-2,2,0,-1
1523210912129987,-1,-4,-21,6,2,-2,-2,-3
1523210912129987,-2,-1,7,-16,-9,-5,-3,-3
1523210912151044,0,1,2,19,-1,-3,-2,-2
1523210912151044,1,2,4,0,0,-2,-2,-1
1523210912153048,-3,-4,-25,-27,-6,-1,0,-1
1523210912153048,0,0,21,30,4,0,1,1
1523210912164099,0,3,-10,-12,8,3,1,0
1523210912164099,-1,-3,-2,2,-1,0,-1,-1
1523210912173102,-1,-1,-4,1,-5,-4,-2,-1
1523210912173102,-1,0,18,0,-2,-4,-3,-3
1523210912188141,0,1,8,-2,3,1,3,1
1523210912188141,0,-2,13,7,-2,1,0,0
1523210912190147,-1,-5,-19,-4,3,2,0,1
1523210912190147,-1,0,13,0,-1,-1,-1,0
1523210912211239,-3,3,1,13,-2,-4,-2,-2
1523210912211239,-3,-6,-1,-13,-3,-6,-4,0
1523210912212205,-2,-3,-24,-17,-8,-4,-2,-2
1523210912212205,-2,-2,15,3,0,0,-1,-1
1523210912224238,1,-2,6,8,-1,-3,-1,-1
1523210912224238,-2,-3,-8,-5,-3,0,1,-1
1523210912233261,0,0,-4,-8,0,-1,0,-2
1523210912233261,-1,0,20,17,5,1,1,0
1523210912248309,-2,-4,-19,-24,-3,-1,-1,-2
1523210912248309,-3,-3,-1,0,-5,-3,0,-2
1523210912250308,0,0,1,13,6,0,-2,-1
1523210912250308,-1,-1,1,-14,-1,1,0,-3
1523210912271363,2,2,5,14,-1,1,-1,-1
1523210912271363,0,1,2,-5,-4,-1,-1,-1
1523210912272368,-4,-7,-34,-8,-2,1,0,0
1523210912272368,-2,-1,33,7,0,-2,-2,0
1523210912284397,-5,-9,-59,-30,-13,-6,-4,-3
1523210912284397,-1,-1,8,4,-5,-5,-3,-1
1523210912293421,-1,1,13,8,6,-3,-2,-1
1523210912293421,1,2,-5,-1,-1,2,1,1
1523210912307459,0,-2,-9,-2,-2,7,0,0
1523210912307459,-1,-1,38,14,15,11,1,-1
1523210912314489,-1,0,-8,-4,-12,-7,-3,-2
1523210912314489,-2,-2,-17,-7,-1,-5,-1,0
1523210912331534,0,4,8,8,0,-1,3,2
1523210912331534,-2,-3,-5,-5,-5,-2,-2,-3
1523210912332527,-1,-2,3,-6,-3,-1,-4,-1
1523210912332527,1,0,-2,-6,0,1,1,-1
1523210912344557,-1,4,15,17,-1,-3,-3,-1
1523210912344557,-2,-8,-41,-25,-2,0,0,0
1523210912353582,-2,1,13,4,-3,-3,-1,1
1523210912353582,-1,-3,-7,-7,-3,-3,-2,-2
1523210912368620,0,1,19,13,11,5,1,-1
1523210912368620,0,0,1,3,1,1,-1,-1
1523210912369624,1,0,-14,-14,-4,-1,0,-1
1523210912369624,-1,-3,13,2,-2,0,1,0
1523210912390681,-3,-4,9,1,-7,-9,-4,-3
1523210912390681,-1,0,-14,5,-4,-5,-3,-3
1523210912392686,0,2,9,-11,1,3,2,1
1523210912392686,-2,-3,-13,-9,-2,0,-4,-2
1523210912404720,0,0,1,9,10,8,6,2
1523210912404720,0,0,12,5,-5,-2,0,1
1523210912413744,-2,0,-12,-15,-6,-5,-3,-1
1523210912413744,0,0,10,11,1,-1,-1,-2
1523210912428782,-1,-2,-11,-20,-8,-7,-4,-1
1523210912428782,-2,-5,-10,4,0,-3,-1,-1
1523210912429785,0,1,19,9,-2,4,2,0
1523210912429785,-1,0,-1,1,5,1,0,0
1523210912450841,0,-1,5,-5,-1,-1,0,0
1523210912450841,-1,4,-3,3,1,-4,-1,-2
1523210912452846,-1,0,6,10,0,-1,0,-1
1523210912452846,-1,0,-8,-12,-5,-2,-2,-2
1523210912464879,0,0,10,20,1,0,-1,-2
1523210912464879,-1,-3,-11,-14,2,2,1,1
1523210912473904,-3,-1,2,10,2,-1,-3,-2
1523210912473904,-1,-2,7,-16,-9,-4,-3,-2
1523210912487939,-3,-3,-12,-14,-4,-1,-1,-1
1523210912487939,1,5,8,11,4,1,2,0
1523210912489944,-2,-4,-2,6,-4,-2,-1,-2
1523210912489944,0,1,-2,14,-4,-2,-1,1
1523210912511026,-1,-2,13,-17,-6,0,-1,-1
1523210912511026,1,-3,-31,0,9,5,2,1
1523210912513012,-1,-1,4,9,0,-1,-1,0
1523210912513012,-2,-2,-5,-2,-1,-1,-2,0
1523210912534062,-1,-2,-2,-3,-2,-4,-3,-1
1523210912534062,-1,0,-14,-4,-7,-4,-4,-2
1523210912535064,-1,-2,9,-3,3,-2,0,0
1523210912535064,-1,0,-5,1,-2,-1,0,-1
1523210912548100,1,0,-5,4,1,4,1,0
1523210912548100,-1,-4,-2,-1,1,2,-1,-2
1523210912550108,1,2,18,9,3,-2,0,0
1523210912550108,-3,-5,-14,-11,-3,-3,-3,-3
1523210912571163,-2,1,-1,8,-2,-4,-2,-2
1523210912571163,-2,-3,8,-16,-12,-9,-4,-3
1523210912572169,-1,-2,-17,4,0,2,0,-3
1523210912572169,2,3,0,3,14,13,5,4
1523210912593220,-1,-1,5,0,1,0,0,0
1523210912593220,-5,-8,-13,-14,-10,-7,-4,-5
1523210912595225,-1,-2,-1,-1,-2,-1,-2,0
1523210912595225,1,2,5,4,-1,-2,1,0
1523210912608265,-3,-2,-6,6,6,0,-2,-1
1523210912608265,1,5,13,1,-1,-1,0,0
1523210912610263,-1,-4,-11,-12,-6,-5,-3,-2
1523210912610263,-1,-2,-4,4,3,-2,1,0
1523210912631322,0,0,-4,-5,-3,-4,-1,-1
1523210912631322,2,0,16,-3,-4,-4,-3,-2
1523210912632321,-1,-5,-7,1,2,0,0,1
1523210912632321,-1,-1,-7,-2,-2,1,1,0
1523210912653378,-2,0,-8,6,7,5,0,-3
1523210912653378,-2,1,-1,3,4,3,-2,1
1523210912655384,0,2,7,3,-4,-3,-3,-1
1523210912655384,0,3,-18,-4,-7,-6,-4,-2
1523210912667414,-2,-6,10,-7,-5,-5,-2,-2
1523210912667414,-1,1,9,15,4,2,2,0
1523210912674436,-1,-3,-22,-13,-4,-1,-2,-1
1523210912674436,-3,0,-7,-8,-6,-8,-4,-4
1523210912691479,0,1,5,2,1,2,-2,-2
1523210912691479,0,0,11,1,0,0,1,0
1523210912692481,0,1,-4,6,0,1,0,-1
1523210912692481,1,-1,11,-2,-3,-1,-1,-3
1523210912713546,0,-1,-2,-2,-6,-6,-2,-1
1523210912713546,-1,-1,-4,0,-6,-4,-1,0
1523210912715543,-1,-4,15,-1,0,4,2,-1
1523210912715543,0,2,-6,9,15,8,2,0
1523210912727575,-1,-2,12,-6,-1,1,-1,1
1523210912727575,0,0,-11,-8,-6,-5,-3,-2
1523210912734593,0,2,-4,-2,-6,-5,-5,0
1523210912734593,-1,-2,15,-3,-4,-1,-3,-3
1523210912750638,-1,3,-14,3,2,1,1,1
1523210912750638,-2,1,18,-5,-5,-3,-2,-1
1523210912752641,-3,-4,-8,-7,4,-1,-3,-3
1523210912752641,-1,0,8,4,3,6,2,0
1523210912773698,0,-3,-9,1,6,5,1,1
1523210912773698,-1,-2,-5,-2,-4,1,-1,-1
1523210912774702,0,-1,-1,-4,-6,-5,-2,-1
1523210912774702,-2,-3,4,-3,-5,-6,-3,-2
1523210912787735,1,2,5,0,0,-1,-1,-1
1523210912787735,1,-3,-12,-8,1,1,0,0
1523210912794754,0,0,3,1,-2,-2,-2,-1
1523210912794754,-1,-4,-1,-1,-8,-4,-2,0
1523210912810822,-1,0,-6,-1,6,-2,-1,-2
1523210912810822,-1,-2,-8,5,3,2,1,1
1523210912812807,1,1,7,-3,-2,-1,-1,-1
1523210912812807,-3,-3,-3,-1,-4,-5,-3,1
1523210912833861,0,1,1,-3,1,4,2,1
1523210912833861,-1,0,-1,5,-2,-2,-2,-2
1523210912834860,-1,-1,-6,-5,-5,-4,-2,0
1523210912834860,-1,-1,0,1,-3,-4,-4,-2
1523210912847899,1,-1,13,6,2,4,-1,0
1523210912847899,0,0,5,4,5,0,0,0
1523210912854912,-1,1,2,-3,-2,-1,1,0
1523210912854912,0,0,3,-2,-2,-2,-1,-2
1523210912870955,0,-1,-14,-2,-8,-7,-4,-2
1523210912870955,-1,-2,7,-2,0,-2,-1,-3
1523210912872960,-2,-3,-18,-2,1,1,0,-1
1523210912872960,0,-3,-6,-2,1,0,0,-1
1523210912894089,-1,-1,8,1,1,1,2,-1
1523210912894089,0,-1,-7,-3,-5,-3,-3,-3
1523210912895020,-1,-1,0,1,1,-3,-2,-2
1523210912895020,1,0,2,0,3,1,1,2
1523210912908289,-3,-3,-14,-6,-6,-1,-1,-3
1523210912908289,-2,0,-10,2,1,2,0,-1
1523210912915084,-1,-2,3,-2,2,0,-1,-1
1523210912915084,-3,-1,-30,-7,-4,-4,-2,-2
1523210912931121,-1,0,3,-1,-8,-7,-2,-1
1523210912931121,1,1,-4,2,10,6,1,0
1523210912932118,0,0,-9,3,3,4,1,-1
1523210912932118,1,1,12,-1,-2,2,0,-1
1523210912954176,-4,-1,-8,-6,-8,-8,-5,-2
1523210912954176,-1,-2,-9,-3,-6,-3,-2,-2
1523210912955179,1,2,15,14,10,3,3,0
1523210912955179,-2,0,8,-8,4,2,0,-1
1523210912967212,-1,-1,2,-9,-6,1,-2,-3
1523210912967212,0,-1,8,5,-3,-2,0,1
1523210912976235,-3,-2,-16,-15,-4,2,0,-1
1523210912976235,-1,-1,15,8,3,-3,-2,0
1523210912991276,-2,-1,-19,5,0,1,-2,-1
1523210912991276,-1,-2,19,-2,1,0,1,-1
1523210912992281,-1,0,16,4,-6,-4,-3,-3
1523210912992281,0,-1,-18,-2,-3,2,2,0
1523210913013335,0,-1,2,-3,10,5,1,-1
1523210913013335,-2,1,5,-11,-6,-4,-1,-3
1523210913015339,-3,-4,-31,-14,-6,-10,-3,-2
1523210913015339,-2,0,19,6,-4,-3,-2,-2
1523210913027607,0,0,-18,4,0,1,3,2
1523210913027607,-2,2,-7,0,-2,-1,-3,-1
1523210913036395,-1,0,-7,-2,-2,0,-2,0
1523210913036395,-2,-3,6,-6,-1,-2,-4,-3
1523210913051435,-2,0,17,10,-5,-2,0,0
1523210913051435,0,0,-3,-8,8,3,0,1
1523210913052438,-1,-4,0,-4,-6,-4,-2,-1
1523210913052438,-1,1,-2,16,4,-3,-3,-1
1523210913073494,0,-1,-9,-24,-8,0,1,-1
1523210913073494,-3,-7,-8,-14,2,1,-1,-1
1523210913075500,-1,2,12,6,-1,-2,0,1
1523210913075500,-1,0,1,4,5,2,0,0
1523210913087531,-3,-7,-13,3,-1,-4,-3,-3
1523210913087531,0,-2,-1,-3,-10,-8,-2,-1
1523210913096557,0,-1,2,3,7,4,1,0
1523210913096557,-1,0,-5,-2,6,8,4,0
1523210913111644,0,-1,4,-9,-3,-6,-4,-1
1523210913111644,-4,-4,-7,-5,-13,-12,-7,-3
1523210913112603,0,0,8,6,-15,-4,2,-1
1523210913112603,-2,-4,-9,-1,18,2,1,-1
1523210913133653,0,2,13,-3,-38,4,0,-1
1523210913133653,1,1,6,17,62,20,10,3
1523210913134656,1,3,5,5,5,18,-1,0
1523210913134656,-2,-2,-11,-13,-17,-10,-1,-1
1523210913146691,-1,-3,8,0,-14,-7,-6,0
1523210913146691,-1,0,3,-2,-20,-16,-8,-2
1523210913155941,-1,-2,-8,-1,-1,-10,-3,-3
1523210913155941,-1,-2,-4,-11,-2,0,0,0
1523210913170791,-2,-2,-2,8,10,-1,1,-1
1523210913170791,1,3,6,10,-6,3,2,2
1523210913172758,-1,-3,23,-1,15,4,3,0
1523210913172758,-1,0,2,-3,-12,-6,-4,-3
1523210913194049,-3,-3,-2,6,3,-4,-1,-2
1523210913194049,-1,0,3,-2,-1,6,1,-1
1523210913194816,1,1,-7,-13,2,2,0,-1
1523210913194816,0,-2,18,9,-13,-3,-2,-1
1523210913207086,-2,1,0,7,12,-2,-3,-3
1523210913207086,-2,-4,-9,-10,-16,-5,-5,-3
1523210913215872,-2,-4,4,-3,-7,-10,-3,-2
1523210913215872,0,-5,-46,-4,5,6,3,1
1523210913230919,0,1,19,0,14,2,1,0
1523210913230919,-3,-2,5,-3,-12,-6,-2,-1
1523210913232919,1,1,-1,3,-3,1,0,-1
1523210913232919,0,2,26,3,0,0,-1,-1
1523210913254117,-1,-2,-22,-4,0,0,-3,-1
1523210913254117,2,0,4,-5,-8,-6,-2,-2
1523210913254978,-3,-2,13,-1,-4,-2,1,0
1523210913254978,0,1,0,2,2,-2,-4,-2
1523210913267009,0,-2,12,4,-1,-5,-1,-2
1523210913267009,1,-1,-5,4,9,7,3,2
1523210913276031,-1,2,-19,20,4,1,-1,0
1523210913276031,-1,1,-4,-25,-4,-1,0,-2
1523210913291073,-1,-2,-20,-26,-5,-5,-2,-2
1523210913291073,-2,-2,-5,10,-6,-8,-4,-4
1523210913292075,-1,-3,8,13,7,6,2,-1
1523210913292075,1,2,7,3,-5,-6,2,2
1523210913313161,-1,0,11,3,31,24,4,2
1523210913313161,-1,-4,-38,0,-5,-1,1,-1
1523210913315136,0,-1,1,-14,-14,-9,-4,-2
1523210913315136,-1,1,19,1,-6,-7,-5,-2
1523210913327408,-3,-6,-22,-7,-10,-4,0,-2
1523210913327408,1,2,4,3,5,0,-2,-1
1523210913336191,-1,-1,0,-3,0,-4,-2,-1
1523210913336191,-2,-4,-16,-4,-5,-3,-3,-2
1523210913351234,2,3,18,8,-1,0,1,1
1523210913351234,0,-1,-5,0,8,7,3,2
1523210913352234,-1,0,4,-11,-4,-5,-1,-2
1523210913352234,-2,-2,-2,-4,-8,-3,-4,-2
1523210913373292,-2,-1,1,12,6,0,0,0
1523210913373292,-1,3,23,4,2,3,0,0
1523210913375297,4,5,-5,-7,7,8,2,2
1523210913375297,-9,-16,-42,-32,-9,-2,-4,-6
1523210913396358,0,0,7,12,-6,-6,-5,-1
1523210913396358,-2,-3,8,-7,-5,-5,-3,-4
1523210913397359,1,3,-15,7,2,-1,-1,0
1523210913397359,0,-1,-8,0,5,3,2,-1
1523210913411638,-1,0,18,-12,-8,-6,-2,-2
1523210913411638,-1,-2,-25,4,-1,-1,-1,0
1523210913412397,-1,-4,-8,-26,-5,-5,-2,-3
1523210913412397,1,2,2,22,6,1,2,1
1523210913433451,0,-3,-14,-8,8,2,-2,-2
1523210913433451,1,5,1,5,2,6,4,4
1523210913435456,-4,-7,14,0,-12,-4,-4,-3
1523210913435456,0,0,1,3,7,3,-2,-2
1523210913456638,0,1,4,0,-7,-6,-3,-1
1523210913456638,1,0,-3,-18,-6,-8,-4,-2
1523210913457513,-3,-10,8,3,6,4,-1,-1
1523210913457513,1,3,-17,-5,1,2,2,2
1523210913470550,-1,0,6,12,-2,0,0,2
1523210913470550,-1,-3,-6,-5,-6,-5,-4,-1
1523210913472554,-2,-2,20,0,-11,-7,-1,-3
1523210913472554,1,-1,-7,5,0,2,1,1
1523210913493846,-3,-3,-19,-20,3,-1,-2,-3
1523210913493846,-1,0,9,-1,-6,5,3,1
1523210913495615,1,2,-19,15,18,11,3,2
1523210913495615,0,-1,19,2,-4,-3,-4,-1
1523210913515669,-2,-1,-15,-4,-9,-7,-4,-1
1523210913515669,-1,-5,-8,-3,-8,-12,-5,-4
1523210913517673,-1,3,3,13,-1,-4,-3,-3
1523210913517673,-5,-11,-50,-38,-10,-3,-1,-3
1523210913530716,0,4,8,14,9,5,2,1
1523210913530716,-2,1,8,0,4,2,-1,0
1523210913532715,0,1,19,37,-3,-3,-1,1
1523210913532715,-2,-4,-1,-53,-3,-3,-2,-3
1523210913554005,-2,-3,9,0,-8,-1,0,-4
1523210913554005,0,-3,-10,-1,3,0,-1,-3
1523210913555777,1,2,3,9,1,1,-1,-1
1523210913555777,1,4,23,26,4,1,1,0
1523210913576064,-2,-4,-11,-10,-6,-2,-1,-1
1523210913576064,-1,-1,12,2,1,-1,-2,0
1523210913577834,-2,-1,-2,-5,-9,-6,-2,-1
1523210913577834,1,1,-10,-1,5,6,3,1
1523210913589867,0,-2,-24,-13,2,4,0,0
1523210913589867,-4,-8,-6,-14,-12,-11,-5,-4
1523210913596888,-3,1,-8,-12,4,-1,-3,-1
1523210913596888,0,-1,0,15,2,2,2,2
1523210913612931,1,1,19,29,2,-4,-3,-1
1523210913612931,-1,-2,-3,-16,-3,-3,-3,-1
1523210913620948,-2,-5,-33,-27,-11,-4,-3,-2
1523210913620948,-1,2,15,27,13,5,2,0
1523210913635989,-2,0,10,-10,0,3,0,-1
1523210913635989,1,0,3,6,0,0,2,-1
1523210913637994,-1,1,-15,-8,-3,-3,-2,0
1523210913637994,-1,-2,15,21,0,-4,-1,-3
1523210913650027,-1,1,-1,-12,-6,-7,-1,0
1523210913650027,-2,-4,-25,-4,-7,-7,-4,-1
1523210913657280,-2,0,6,-9,6,1,2,-1
1523210913657280,0,1,4,17,1,5,0,-1
1523210913673127,-1,-4,-32,-12,5,5,1,-3
1523210913673127,1,6,13,15,10,6,3,2
1523210913675094,-3,-7,-8,5,-13,-9,-3,-1
1523210913675094,-1,-2,2,-25,-10,-13,-8,-4
1523210913696173,1,-1,18,10,-1,2,2,-1
1523210913696173,-1,-3,-24,4,3,6,1,1
1523210913697155,1,-1,-3,-4,7,3,-1,-2
1523210913697155,-1,3,20,9,-3,0,-2,1
1523210913710224,-2,-2,-9,-15,-8,-8,-4,-3
1523210913710224,0,-1,4,0,-7,-4,-1,-1
1523210913717204,0,2,11,6,9,2,-1,1
1523210913717204,0,0,5,2,6,5,2,0
1523210913733246,-1,2,17,9,4,3,1,1
1523210913733246,-3,-2,-26,-6,0,-3,-3,-1
1523210913735253,-1,0,-22,-14,-12,-4,-3,-2
1523210913735253,-1,-1,21,-20,-4,-4,-1,-2
1523210913756543,-3,-4,-11,16,-6,-5,-2,-2
1523210913756543,-2,1,25,8,-3,3,-1,-3
1523210913757310,-1,2,4,1,14,3,2,1
1523210913757310,1,0,-9,6,1,-2,-1,1
1523210913770345,1,2,1,-5,-3,2,0,2
1523210913770345,-3,-4,2,-5,-1,3,1,-2
1523210913777600,2,-2,1,11,5,4,-2,-1
1523210913777600,-2,-2,-11,-10,-8,-4,-2,-2
1523210913793643,-2,-2,1,-1,-6,-6,-4,0
1523210913793643,1,0,0,-1,-2,1,-2,1
1523210913795418,-3,-4,3,-11,2,3,1,0
1523210913795418,-2,1,-7,5,1,-5,-4,-4
1523210913815466,0,-2,7,-7,-6,-7,-3,-2
1523210913815466,-1,-1,-3,-2,4,-2,0,-2
1523210913817471,1,0,14,0,-1,4,3,2
1523210913817471,2,3,-11,8,0,4,2,1
1523210913830554,-3,-2,5,-5,-3,-3,-4,-3
1523210913830554,-3,2,19,1,1,-1,-1,-1
1523210913837526,0,0,-1,-3,0,-1,0,-2
1523210913837526,-3,-4,-9,4,-4,-1,-2,-2
1523210913853607,-1,-6,-58,-2,2,2,-1,0
1523210913853607,-2,-3,21,-5,-2,-3,-2,-1
1523210913855675,0,-3,-6,-4,-10,-5,-4,-2
1523210913855675,-2,-3,9,-2,-5,-6,-5,-1
1523210913876666,-2,-3,35,2,-4,-5,-1,-3
1523210913876666,3,3,-18,-5,11,8,3,1
1523210913877630,-1,-1,-9,3,7,4,1,-1
1523210913877630,-2,1,12,3,-2,0,-1,-2
1523210913890666,-4,-5,-8,-4,-6,-7,-3,-3
1523210913890666,-3,-4,-12,-4,-10,-6,-4,-1
1523210913897693,0,1,8,-1,-1,0,1,1
1523210913897693,1,-3,-1,1,4,1,-1,-2
1523210913913736,4,6,13,3,3,4,2,1
1523210913913736,-1,0,3,-1,-1,1,2,0
1523210913914731,-6,-10,-21,-21,-14,-6,-5,-4
1523210913914731,-4,-5,-6,-9,1,-9,-4,-4
1523210913935787,-2,2,0,8,-3,-1,1,1
1523210913935787,1,-3,19,13,12,4,2,-2
1523210913937792,-4,-5,-70,-27,2,4,0,-2
1523210913937792,1,1,25,1,-10,-1,2,2
1523210913949824,0,0,-12,-2,8,-1,-4,-2
1523210913949824,-2,-1,13,7,-12,-4,-5,-2
1523210913958846,1,3,18,16,1,-3,0,1
1523210913958846,-2,-2,-4,-9,-2,-1,0,-1
1523210913973888,-2,-4,-16,-12,4,5,3,-3
1523210913973888,1,7,-5,5,2,0,2,0
1523210913974890,-3,-4,20,0,-3,-3,-2,-2
1523210913974890,0,-2,-8,4,0,0,-2,0
1523210913995945,0,2,17,10,-1,-4,-3,-2
1523210913995945,-4,-4,-11,-21,-7,-1,-1,-2
1523210913997951,1,0,21,7,-7,-3,-1,-1
1523210913997951,-2,-3,-54,-18,6,1,-1,-1
1523210914010218,1,4,6,10,4,7,2,1
1523210914010218,-2,-6,-26,-13,7,4,1,1
1523210914019007,-2,-5,5,-23,-13,-11,-7,-4
1523210914019007,-2,1,13,10,-18,-11,-6,-4
1523210914033043,1,1,-3,-1,15,6,3,2
1523210914033043,2,3,9,17,5,5,1,0
1523210914035050,-1,3,7,-1,-4,-3,0,0
1523210914035050,-2,-7,-26,-14,-6,-6,-5,-3
1523210914056341,-3,-1,4,-1,-3,-4,-2,-2
1523210914056341,0,0,4,7,2,-1,1,-1
1523210914058211,-1,-1,-9,3,5,1,-1,-2
1523210914058211,1,4,10,6,4,4,2,0
1523210914069178,-1,0,9,0,-3,1,-1,0
1523210914069178,-1,-2,-12,-9,-6,-5,-3,-4
1523210914078162,1,3,-7,6,-3,-5,-3,-1
1523210914078162,-1,-3,6,-3,-3,-5,-1,0
1523210914093439,1,-1,-8,11,-8,-6,-2,-1
1523210914093439,-2,-1,-6,-12,22,11,3,1
1523210914095212,2,1,11,16,1,5,4,0
1523210914095212,-4,-4,-13,4,5,4,0,-2
1523210914116264,1,-1,-8,-7,-9,-5,-4,0
1523210914116264,-1,-3,-4,2,-12,-10,-4,-3
1523210914117267,0,-1,0,2,0,-1,0,-2
1523210914117267,-2,0,11,-1,6,4,1,1
1523210914137320,-3,-1,-6,-7,-5,-4,-2,-3
1523210914137320,0,-1,-4,-2,-12,-6,-5,0
1523210914138332,0,0,0,0,5,0,0,-1
1523210914138332,0,0,7,-5,-2,-2,-2,-1
1523210914153402,0,0,3,12,3,1,3,0
1523210914153402,1,-3,6,-2,5,4,0,0
1523210914153402,-2,0,2,-4,-1,-2,-1,-2
1523210914153402,-1,-3,1,8,-9,-5,-2,0
1523210914175422,-5,-6,5,-40,-8,-5,-4,-4
1523210914175422,-2,-4,-12,20,6,4,0,-2
1523210914176425,1,1,5,-2,8,5,1,1
1523210914176425,-1,4,12,10,2,1,2,0
1523210914197482,0,1,-13,3,-3,3,0,-1
1523210914197482,-1,-1,30,-8,1,2,1,1
1523210914198484,-4,-3,-11,-9,-9,-5,-5,-3
1523210914198484,-1,-3,-5,4,1,0,-1,-2
1523210914212523,0,-3,2,-26,-2,-2,-2,-1
1523210914212523,-1,-2,-9,3,-4,-4,-2,-1
1523210914213527,2,3,-4,5,1,-1,0,-1
1523210914213527,-3,-10,14,-3,-4,-2,-2,-1
1523210914235584,2,4,1,7,1,3,0,2
1523210914235584,0,-1,14,16,2,-3,-1,-2
1523210914235584,-4,-6,-18,-45,-6,-6,-3,-2
1523210914235584,2,3,-4,17,4,1,2,2
1523210914257876,-1,-5,9,-15,-6,0,-3,-4
1523210914257876,-1,-3,-30,-11,-8,1,-2,-1
1523210914258642,0,1,13,20,20,5,1,0
1523210914258642,-1,2,3,-3,-7,-5,-3,-2
1523210914272680,-1,-1,-7,6,-3,-5,-1,0
1523210914272680,2,2,4,1,-5,-2,-1,0
1523210914273685,1,2,25,3,2,1,1,0
1523210914273685,-2,-8,-54,-12,1,3,-1,-2
1523210914294781,-1,0,11,10,-1,-1,-1,1
1523210914294781,-2,-1,3,-5,-6,-7,-2,-3
1523210914295741,-2,0,8,33,-4,-1,-3,-2
1523210914295741,2,4,3,-29,4,5,3,1
1523210914317802,-3,-1,-9,14,3,1,0,-1
1523210914317802,-2,-3,6,-1,-2,-3,-2,-2
1523210914318804,0,0,7,0,-6,-4,-1,2
1523210914318804,0,6,-2,8,0,-1,0,0
1523210914332840,-5,-10,-19,-8,-2,-5,-3,-4
1523210914332840,-1,2,6,-5,-2,-2,-3,-1
1523210914333843,-1,-3,-33,-7,-7,-1,-3,-3
1523210914333843,1,-1,-5,7,5,2,1,-1
1523210914355944,0,0,-11,-18,7,7,0,1
1523210914355944,-1,-1,8,12,-10,-5,-2,0
1523210914355944,-2,-3,2,2,2,0,-2,-2
1523210914355944,-1,0,2,-9,0,2,-2,-1
1523210914377958,-1,-2,10,9,0,-2,-1,-3
1523210914377958,-2,1,-9,-9,-4,-4,0,-2
1523210914378972,0,-2,-7,-8,-6,-2,-2,-2
1523210914378972,0,-1,15,18,2,-4,-2,-1
1523210914393237,-1,2,20,5,-1,1,1,0
1523210914393237,-6,-13,-65,-54,-10,-6,-6,-5
1523210914394003,1,1,6,7,1,1,3,0
1523210914394003,-1,1,41,14,8,4,3,1
1523210914415060,1,-3,-54,3,-8,-5,-4,-1
1523210914415060,-2,2,18,8,0,2,1,1
1523210914416061,-3,-3,0,2,2,0,1,-1
1523210914416061,-1,-1,-4,-29,-3,-3,-1,-3
1523210914438120,-1,1,4,8,1,-3,0,-2
1523210914438120,-2,1,4,-5,-7,-3,1,-2
1523210914438120,-1,-4,-19,-8,4,-4,-3,-2
1523210914438120,0,2,1,12,-1,-1,0,-1
1523210914453411,0,-2,19,-5,2,2,0,0
1523210914453411,1,2,9,7,7,1,1,-1
1523210914453411,0,0,-5,-4,-12,-4,-2,-1
1523210914453411,-3,-4,6,-10,-11,-6,-4,-2
1523210914475219,-2,-2,-3,9,2,2,2,2
1523210914475219,3,4,13,17,16,12,2,2
1523210914476221,-1,-1,-5,-9,-1,1,0,1
1523210914476221,-2,2,14,-4,-6,-7,-5,-1
1523210914497277,-1,-3,7,1,-8,-7,-4,-4
1523210914497277,-1,-4,-16,-16,-9,-8,0,-2
1523210914498280,-1,-1,10,0,-8,-3,-2,-1
1523210914498280,0,1,-11,2,7,7,2,1
1523210914513321,4,7,20,14,19,8,3,2
1523210914513321,-4,-7,-65,-35,0,-1,-3,-1
1523210914513321,-4,-6,-4,-3,-7,-5,-6,-3
1523210914513321,-2,-3,-9,1,-18,-7,-2,-1
1523210914535380,1,4,27,7,3,2,3,1
1523210914535380,0,-4,-55,6,0,-1,0,-1
1523210914536381,-1,0,-2,-8,-1,-4,0,0
1523210914536381,-3,-4,8,8,3,2,-1,-2
1523210914558438,-3,-2,-5,-16,-1,7,0,0
1523210914558438,1,0,31,4,16,4,0,0
1523210914558438,0,0,5,6,-3,-2,-2,1
1523210914558438,0,-5,-29,-5,-11,-10,-5,-3
1523210914572516,-3,-2,-4,-5,-15,-8,-4,-3
1523210914572516,-2,1,26,22,7,4,-1,0
1523210914573479,1,3,10,-1,9,9,6,3
1523210914573479,-1,-2,8,1,8,5,1,-1
1523210914595538,1,-1,0,1,-7,-5,-2,-2
1523210914595538,-4,-3,20,-5,-15,-9,-6,-3
1523210914596545,0,1,17,16,5,0,2,-1
1523210914596545,-2,-1,-3,-18,-5,-1,-3,0
1523210914617597,-2,-1,-31,-2,-3,-5,-3,-2
1523210914617597,1,4,45,4,2,-4,0,-1
1523210914618599,0,0,-5,33,6,4,3,0
1523210914618599,-1,-3,8,-3,2,-1,-1,-1
1523210914640687,-1,-6,-26,-32,-12,-6,-3,-1
1523210914640687,0,-1,13,10,2,1,-2,-2
1523210914641661,-1,2,-1,2,12,3,0,0
1523210914641661,-1,-1,-3,4,-4,-3,1,0
1523210914655914,-4,-5,-9,2,-2,-4,-3,0
1523210914655914,-1,-3,12,-6,-17,-8,-4,-1
1523210914655914,-2,-5,-10,-12,1,2,-1,-2
1523210914655914,2,6,4,7,8,3,2,0
1523210914677755,-2,-1,-1,-2,-2,-4,-2,-2
1523210914677755,-1,1,-1,1,0,-3,0,0
1523210914678761,-3,-6,-16,-26,-9,-7,-3,-3
1523210914678761,2,3,26,14,14,10,6,3
1523210914693032,-1,-1,-11,1,0,2,0,0
1523210914693032,-3,-2,-2,8,0,-1,-1,-1
1523210914693799,0,-1,2,-5,-8,-5,-1,-1
1523210914693799,-2,-5,-23,-15,-8,-6,-4,-4
1523210914714857,-2,0,8,4,8,-1,0,-1
1523210914714857,0,-2,25,2,-9,-2,-1,0
1523210914715858,-2,-3,-10,-5,-9,-7,-2,-1
1523210914715858,-1,0,-14,0,12,4,-1,2
1523210914737917,-1,-2,8,5,7,6,0,-1
1523210914737917,2,3,-15,-2,6,5,2,1
1523210914738919,-1,0,0,-6,-9,-2,-2,-1
1523210914738919,-1,-1,4,-3,-11,-6,-2,-3
1523210914753192,1,0,15,15,5,2,1,0
1523210914753192,-4,-8,-38,-28,-7,-3,-1,-3
1523210914753959,0,-2,-10,-1,-1,4,2,-2
1523210914753959,0,-1,-5,-1,0,2,-1,-1
1523210914783036,-1,2,19,1,10,-1,-3,-3
1523210914783036,-1,1,-1,8,-5,-2,-1,1
1523210914784039,-2,-5,-4,-1,-2,-4,-3,-1
1523210914784039,-2,-3,-12,-6,-13,-6,-3,-3
1523210914798079,-1,2,7,0,5,-1,-1,-2
1523210914798079,1,3,-3,10,5,1,-1,-1
1523210914798079,1,2,30,-4,3,6,3,1
1523210914798079,-2,-4,-32,-2,0,0,-1,-3
1523210914813123,0,-1,-1,-2,-8,0,-1,-3
1523210914813123,2,2,-4,4,2,-2,-1,1
1523210914813123,-2,0,22,4,-4,-4,-4,-2
1523210914813123,-2,-1,-5,-15,-6,-4,-1,-1
1523210914835175,1,2,1,0,-2,-4,-2,-2
1523210914835175,1,-3,-15,4,9,7,3,1
1523210914836178,0,0,2,2,-2,0,-3,0
1523210914836178,-1,1,5,0,0,-4,-1,-1
1523210914858359,-1,-3,-9,-5,-6,0,-1,0
1523210914858359,-1,1,19,-1,0,-4,-1,-1
1523210914858359,-1,0,-12,-5,-2,-3,-1,-3
1523210914858359,-2,-2,5,0,-3,-3,-3,-2
1523210914873362,-2,0,-14,-6,-5,-3,0,0
1523210914873362,0,-1,10,4,4,5,1,-2
1523210914873362,1,3,10,19,9,4,2,2
1523210914873362,-1,-3,-15,-29,-12,-5,-3,-2
1523210914895336,0,1,17,6,8,0,0,0
1523210914895336,-3,-5,-29,-14,-7,-6,-4,-2
1523210914896340,-4,-5,45,19,-4,-4,-4,-2
1523210914896340,0,-3,-32,-13,7,3,1,3
1523210914917393,0,0,-10,-3,-5,1,2,1
1523210914917393,2,3,35,45,-2,0,-1,0
1523210914918398,1,2,-50,-38,0,0,0,-3
1523210914918398,-2,-2,10,16,-4,-3,-3,-3
1523210914932433,0,-3,-2,-3,-5,-5,-2,-3
1523210914932433,-1,-1,1,3,-1,-5,-3,-2
1523210914933435,2,4,3,1,-7,0,2,0
1523210914933435,0,6,53,7,18,11,6,2
1523210914955730,-1,-4,-28,-17,-4,-2,-1,0
1523210914955730,-2,6,27,-2,-7,-7,-3,-2
1523210914956497,-2,-6,-17,0,-4,-3,-1,-1
1523210914956497,1,3,-13,-5,9,4,-1,0
1523210914977552,1,-2,22,14,-1,1,-2,0
1523210914977552,-1,0,-9,-7,2,-3,-1,-2
1523210914978558,1,4,-31,-14,-2,3,0,0
1523210914978558,-1,-4,15,11,-6,-3,-1,-1
1523210914992764,-3,0,-9,0,-1,2,0,0
1523210914992764,-3,-1,9,-12,-6,-4,-3,-3
1523210915000616,-4,-8,-30,-9,-8,-9,-5,-4
1523210915000616,2,5,2,20,2,4,2,-1
1523210915015654,-2,-2,30,-8,4,1,0,-4
1523210915015654,-1,-2,-24,-9,0,0,-1,1
1523210915015654,-3,-3,-1,-4,0,-3,-3,-2
1523210915015654,0,-1,-5,-11,-10,-7,-3,-2
1523210915037713,-1,-1,-8,3,-3,-4,-2,-2
1523210915037713,4,3,24,17,10,9,4,2
1523210915038718,-1,-4,-1,-16,-2,-2,-2,-1
1523210915038718,-1,-1,2,20,-6,-7,-5,-2
1523210915051790,0,3,-42,-19,-5,-2,-1,-2
1523210915051790,-4,-6,-8,4,0,-4,-2,-2
1523210915060007,2,3,6,2,2,-2,0,0
1523210915060007,-1,-3,2,-1,-2,3,4,1
1523210915075912,0,5,28,5,9,8,2,0
1523210915075912,-4,-10,-42,-14,-4,0,0,-2
1523210915075912,-1,-2,7,-9,-8,-5,-5,-3
1523210915075912,1,0,-25,-3,3,-4,-3,-2
1523210915097874,-1,-1,4,4,-11,-6,-3,-2
1523210915097874,0,-1,-13,-3,1,0,-1,0
1523210915098875,-1,4,50,-5,7,0,1,1
1523210915098875,-6,-13,-22,0,-7,-5,-5,-3
1523210915111917,0,-1,-4,7,0,3,1,1
1523210915111917,-1,3,-5,-6,-4,-1,-4,-2
1523210915119931,1,2,21,25,6,7,1,-1
1523210915119931,-1,-4,-12,-11,-2,-1,-2,0
1523210915134971,-2,-4,1,3,1,0,-3,-2
1523210915134971,-3,-1,18,-12,-3,-5,-2,-1
1523210915135973,1,-1,15,21,1,-1,-1,0
1523210915135973,0,3,3,-4,-5,-2,-1,0
1523210915158268,-1,-4,-15,-14,-5,-8,-4,-3
1523210915158268,2,3,13,13,3,7,5,3
1523210915158268,-3,-4,-19,-6,10,7,1,-1
1523210915158268,1,0,6,5,0,-3,-2,-1
1523210915172071,0,0,-13,-1,-6,-5,-2,0
1523210915172071,-2,-4,7,-5,-4,-3,-3,-1
1523210915180092,0,-5,-11,2,-4,-5,-3,-3
1523210915180092,-1,0,3,-9,-2,-1,-2,0
1523210915195138,1,3,13,1,-3,-5,-2,-2
1523210915195138,-1,-2,-5,-9,-3,2,3,0
1523210915196135,-2,-7,-43,-1,12,5,2,2
1523210915196135,0,2,30,0,-5,0,-2,-1
1523210915218193,-3,-5,-27,-12,1,-4,-2,-2
1523210915218193,0,2,-4,-1,-1,-1,0,0
1523210915219196,-2,0,5,0,-4,-3,-2,0
1523210915219196,-1,3,33,-1,1,0,-1,-1
1523210915232231,-2,-7,-30,-8,-15,-2,-1,0
1523210915232231,0,-1,-5,-6,0,-7,-4,-3
1523210915240290,-1,0,-12,-2,-6,-4,-3,-3
1523210915240290,2,3,1,13,12,5,2,3
1523210915255527,-2,-5,18,2,2,4,0,-1
1523210915255527,-1,-1,-29,-19,-8,-1,-2,-1
1523210915256293,-1,3,34,4,-1,-6,-4,-2
1523210915256293,-2,-2,-10,-1,-4,-2,-1,-2
1523210915277349,-1,-1,-8,4,4,2,1,0
1523210915277349,-1,-3,-1,5,4,2,0,1
1523210915278352,0,2,-11,-4,-5,-1,-1,-2
1523210915278352,-2,-2,-5,-2,-6,-4,-3,-2
1523210915292630,1,0,24,14,3,0,0,-1
1523210915292630,-3,-2,-25,-16,-2,-6,-5,-2
1523210915300411,-1,-3,-4,4,-6,-1,2,0
1523210915300411,1,2,10,8,5,3,1,0
1523210915315451,-2,-1,10,0,-2,4,2,0
1523210915315451,-2,-5,-8,1,8,-2,-2,-3
1523210915316456,0,-1,-5,-2,-8,-3,-2,0
1523210915316456,0,-2,-9,-17,-3,-3,0,-2
1523210915337511,-1,0,17,-3,-1,0,-1,-1
1523210915337511,-1,2,-1,8,4,7,1,-1
1523210915338513,-2,-5,-3,-9,-6,-2,-1,1
1523210915338513,-3,-4,1,4,-2,-1,-3,-1
1523210915360572,-1,3,-12,-5,0,-2,-2,0
1523210915360572,0,0,2,12,2,2,3,1
1523210915361573,-1,-1,-13,1,1,1,-3,0
1523210915361573,1,2,-1,-5,0,-2,0,-1
1523210915375847,-1,-1,-18,-16,-7,-3,-2,-1
1523210915375847,0,2,29,9,-5,-3,0,-3
1523210915375847,0,1,3,-3,0,-2,-2,-1
1523210915375847,-1,-1,-11,4,-3,-3,-1,0
1523210915397669,0,3,-27,8,9,4,1,1
1523210915397669,3,4,32,13,-1,2,-1,0
1523210915398672,-2,-3,-32,-29,-6,-5,-3,-2
1523210915398672,0,-1,2,-2,-4,-5,-2,-4
1523210915420732,1,2,21,15,-3,-2,-1,0
1523210915420732,-1,-3,1,-14,3,0,-3,0
1523210915421733,0,1,-26,-9,-5,-1,0,-2
1523210915421733,-2,-7,19,-5,-3,-2,-4,-1
1523210915434769,-2,-6,-12,15,-5,-9,-3,-2
1523210915434769,-2,1,9,-13,0,-2,-1,-2
1523210915435771,0,-2,-13,1,4,6,2,1
1523210915435771,-1,0,-6,-6,7,4,0,0
1523210915458065,0,2,27,4,-6,-3,0,-2
1523210915458065,-4,-11,-25,-13,-17,-7,-4,-5
1523210915458832,0,3,3,6,15,0,0,0
1523210915458832,1,0,12,23,2,4,2,-1
1523210915480894,-1,-2,-25,-27,6,3,-1,-1
1523210915480894,0,-3,-7,1,-9,-5,-2,-1
1523210915481893,-1,3,31,17,-1,2,0,-2
1523210915481893,1,2,-6,0,-4,-5,-3,0
1523210915495934,-3,-2,13,1,2,-4,-2,-1
1523210915495934,-1,-1,6,4,4,3,1,1
1523210915495934,-1,-3,9,-6,-11,-3,-2,-4
1523210915495934,-1,0,-13,1,3,-4,-3,-1
1523210915517990,0,1,6,1,5,4,4,0
1523210915517990,0,0,-7,-3,3,1,0,0
1523210915518992,0,3,-4,11,-2,-2,-1,-1
1523210915518992,-3,-4,-16,-21,-11,-4,-4,-3
1523210915541286,-2,-2,3,-8,-7,-8,-6,-3
1523210915541286,-1,-1,10,11,3,3,2,0
1523210915542053,-1,-3,-40,-23,-1,0,2,1
1523210915542053,0,1,6,-1,-8,0,1,0
1523210915555323,-1,-3,-13,-1,12,1,-2,-1
1523210915555323,0,0,11,13,3,1,-1,1
1523210915556089,-1,0,18,3,0,-1,-4,0
1523210915556089,-1,-5,-23,-9,-3,0,0,0
1523210915578151,-2,-2,3,0,-8,-5,-2,-3
1523210915578151,0,-1,-10,-5,-2,-2,0,0
1523210915578151,-2,-2,26,0,2,-2,-1,-1
1523210915578151,0,-4,-6,0,2,1,0,-2
1523210915601211,0,1,5,2,-3,-1,-1,1
1523210915601211,-1,-4,-8,-7,0,1,-1,-1
1523210915602212,0,-1,3,2,-4,-3,0,0
1523210915602212,-1,0,-2,3,0,-1,-1,0
1523210915616251,-2,-3,-1,-9,-10,-7,-3,-4
1523210915616251,-2,1,-2,-3,-5,-3,-1,-3
1523210915616251,0,-3,-10,5,11,5,2,1
1523210915616251,0,1,5,-3,1,1,-1,0
1523210915637306,-1,-3,-6,-4,-9,-8,-5,-2
1523210915637306,-2,-1,-4,-2,-5,-5,-5,-2
1523210915638308,1,-1,-4,10,5,5,2,2
1523210915638308,0,2,16,3,2,7,2,0
1523210915661371,-1,-1,-19,-13,-4,-5,-1,0
1523210915661371,0,-1,-17,-18,0,0,-4,-5
1523210915661371,0,-1,10,-3,-9,-4,-2,-1
1523210915661371,-1,2,4,9,0,-6,-1,-3
1523210915675407,-1,0,31,25,-4,-1,0,1
1523210915675407,-5,-10,-2,-35,-4,5,1,-2
1523210915676410,-1,-1,-18,5,11,0,-1,-1
1523210915676410,0,-1,-5,0,1,3,0,0
1523210915697468,-1,2,1,6,-8,-4,-2,0
1523210915697468,-1,2,3,13,3,-3,-2,0
1523210915698470,1,-1,9,23,-5,1,1,1
1523210915698470,0,0,-5,-26,0,-2,0,0
1523210915720528,0,-1,-4,2,2,1,-1,0
1523210915720528,0,0,-7,0,-3,-6,-2,0
1523210915721531,-3,-4,-4,0,-13,-8,-5,-3
1523210915721531,-3,-4,4,6,-5,-6,-3,-2
1523210915735567,2,3,-1,13,14,15,4,4
1523210915735567,-2,-4,-28,-46,1,4,2,-1
1523210915735567,1,2,22,8,4,2,-3,-1
1523210915735567,-2,-3,-16,-15,-8,-2,-2,1
1523210915757861,0,-2,8,-17,-5,1,0,-2
1523210915757861,1,5,8,29,1,-1,-1,-2
1523210915758627,0,-4,-12,-13,-7,-3,-2,-1
1523210915758627,-2,-1,-12,-3,3,-1,-3,-3
1523210915780688,0,2,-2,-7,3,6,4,0
1523210915780688,-2,-3,17,15,-3,-3,-3,0
1523210915781690,-3,-7,-15,-12,-6,-11,-6,-4
1523210915781690,1,0,-1,-13,-3,-1,-1,-1
1523210915795737,1,3,-3,14,10,8,6,3
1523210915795737,0,-4,4,11,2,1,1,-1
1523210915795737,0,0,6,-6,-9,-1,-3,-1
1523210915795737,-2,-2,11,10,7,-6,-2,-2
1523210915817785,-2,-2,-11,3,-9,-7,-5,-3
1523210915817785,0,0,-9,-23,1,-2,1,-3
1523210915818789,-1,1,-14,5,3,3,2,0
1523210915818789,0,-1,-1,4,2,1,1,1
1523210915841083,-3,-3,27,5,-4,-1,-2,-3
1523210915841083,2,3,6,25,-4,-5,-1,1
1523210915841849,-1,0,-14,-24,-7,-6,-2,-3
1523210915841849,-1,-3,18,1,-2,-3,-3,-2
1523210915855926,-2,-2,-21,-1,4,0,0,-2
1523210915855926,1,2,19,11,0,3,0,1
1523210915855926,-1,-2,-1,-5,0,0,0,1
1523210915855926,0,2,-1,1,-8,-4,-4,-2
1523210915877948,-1,-1,-4,-12,-1,-4,-3,-3
1523210915877948,-3,0,-1,2,7,2,0,-1
1523210915878957,-1,0,-5,-7,-5,2,-2,0
1523210915878957,0,-1,-5,15,-7,-2,0,-1
1523210915901046,-2,-1,10,5,23,8,1,-2
1523210915901046,2,3,-22,3,-8,-1,0,0
1523210915902009,-3,-1,-1,10,2,1,-2,-3
1523210915902009,-2,-4,-19,-48,-6,0,0,0
1523210915915044,-1,-2,7,-4,-13,-12,-5,-2
1523210915915044,-2,-3,-4,3,-7,-8,-3,-1
1523210915916047,-1,4,23,12,5,2,1,0
1523210915916047,-1,-1,-14,12,7,5,3,1
1523210915938105,-3,-9,2,-14,-7,-2,-1,-2
1523210915938105,-2,-2,-7,-12,-6,-4,-4,-2
1523210915939187,0,-1,-6,-2,3,0,-3,-1
1523210915939187,0,1,-3,5,3,0,1,-2
1523210915961173,1,0,-7,-7,-7,-2,-3,0
1523210915961173,1,0,16,8,-4,-2,0,0
1523210915962171,1,0,5,4,9,8,4,1
1523210915962171,-2,-5,-1,-8,4,4,0,-2
1523210915974201,1,1,-6,3,-3,-4,-3,-2
1523210915974201,-1,-3,-9,-12,-6,-6,-4,-3
1523210915983226,0,2,3,-2,-5,-3,-2,-1
1523210915983226,-2,-3,29,1,-4,-2,1,-1
1523210915998265,-2,-5,-14,-6,-3,-1,-1,1
1523210915998265,-1,1,18,4,5,3,0,0
1523210915998265,0,-1,-11,2,6,-1,1,0
1523210915998265,2,2,-4,2,-1,-3,-4,-1
1523210916021327,0,-3,-6,-6,-11,-5,-3,-1
1523210916021327,-1,-1,19,1,7,0,-1,-1
1523210916022328,-2,-2,7,-2,1,0,0,-1
1523210916022328,1,0,7,23,3,5,1,1
1523210916034362,0,2,-1,-17,5,1,-1,0
1523210916034362,4,3,28,19,-3,-1,0,1
1523210916042618,-8,-12,-82,-37,-18,-12,-5,-5
1523210916042618,-2,0,44,11,-3,-5,-4,-2
1523210916058429,1,4,1,8,5,2,3,0
1523210916058429,-1,-2,-7,7,-1,-2,0,-1
1523210916058429,0,2,39,-5,-3,1,1,-1
1523210916058429,-1,-3,-8,-3,0,4,3,1
1523210916080483,0,0,-21,14,19,4,0,1
1523210916080483,-1,-1,-3,-19,-8,-1,-3,-3
1523210916081486,1,0,19,1,-7,-7,-3,0
1523210916081486,-1,-5,-28,-6,-5,-3,-2,-2
1523210916094524,0,4,13,1,-2,3,1,1
1523210916094524,-1,-4,-11,15,7,3,-1,1
1523210916102778,-2,-3,-6,-27,-3,-2,-1,-4
1523210916102778,-1,3,2,9,-3,-5,-4,-1
1523210916117584,-4,-1,1,6,-5,-5,-2,-3
1523210916117584,-1,2,18,-4,6,7,3,0
1523210916118585,-1,-2,10,10,2,4,1,1
1523210916118585,-2,-3,-30,-5,0,-2,-1,-1
1523210916140643,-1,-1,-12,1,-7,-2,0,-1
1523210916140643,1,-3,-23,-25,-3,-2,0,0
1523210916141645,0,-3,-7,13,1,0,-2,-2
1523210916141645,1,2,-1,-10,-5,-2,-1,-1
1523210916154921,0,0,13,13,-2,0,-1,1
1523210916154921,-2,-2,5,4,5,0,0,-2
1523210916162704,2,0,20,4,-2,1,0,1
1523210916162704,-2,-1,-4,-8,3,-1,-2,-1
1523210916177745,-1,-2,-7,-17,-9,-2,-2,-1
1523210916177745,-3,-4,-18,-4,-1,-3,-2,0
1523210916178752,1,2,25,13,-2,-5,-1,0
1523210916178752,-1,2,3,-12,-1,1,-2,-4
1523210916200804,-3,-3,-16,-7,8,5,3,-2
1523210916200804,-2,1,4,-3,3,3,-1,0
1523210916201806,-2,-3,-12,8,-5,-5,-3,-1
1523210916201806,1,3,20,9,-2,-3,-1,2
1523210916214842,0,1,1,-5,-4,-9,-4,-3
1523210916214842,0,-2,-24,-11,-8,-1,1,-1
1523210916223097,1,2,0,4,7,4,2,-2
1523210916223097,1,0,3,17,2,-1,1,1
1523210916237903,-2,-5,1,-13,-4,-3,-3,-3
1523210916237903,-3,-4,-23,-14,-8,-6,-5,-1
1523210916238905,-1,-1,15,8,6,-1,-2,-1
1523210916238905,0,1,-12,-7,1,2,0,-1
1523210916260968,0,0,18,15,4,3,-1,0
1523210916260968,2,5,11,10,-3,-4,-1,-1
1523210916261976,-2,-5,7,-26,-7,-2,-1,-1
1523210916261976,-1,-4,-23,-4,6,-2,0,0
1523210916275000,-2,-2,5,-5,0,-1,-1,0
1523210916275000,-1,0,21,1,-7,-5,-2,-1
1523210916283068,-2,-1,-45,4,1,3,0,2
1523210916283068,-2,0,-4,-13,5,6,0,-1
1523210916298064,0,-1,-15,-14,-11,-6,0,-2
1523210916298064,-1,-3,-7,2,5,-1,0,-1
1523210916299068,1,2,14,5,-6,-6,-2,-2
1523210916299068,1,-2,-4,6,-4,-3,0,2
1523210916321125,0,4,8,17,1,-2,-4,-1
1523210916321125,0,-1,-17,-30,-2,1,0,-1
1523210916322126,0,-1,15,13,2,0,2,1
1523210916322126,-2,-4,-25,-15,-8,-4,-1,-4
1523210916343181,-1,0,14,5,-1,-2,-3,-1
1523210916343181,-2,-1,-3,8,-5,-2,-2,-1
1523210916344184,0,2,16,4,9,4,1,1
1523210916344184,-1,3,7,3,-3,-1,-2,-1
1523210916358357,-1,-1,-4,9,1,-3,-1,-1
1523210916358357,-4,-10,-11,-1,-6,2,-1,-5
1523210916358357,0,-1,-23,-18,9,5,-1,-1
1523210916358357,-4,-5,37,7,-5,-3,-2,0
1523210916381282,-2,-1,-9,-12,-11,-6,-3,1
1523210916381282,0,5,-14,22,5,0,1,0
1523210916381282,0,2,-2,-20,0,5,2,3
1523210916381282,-3,4,42,3,-5,-5,-4,-4
1523210916403577,-4,-12,-31,-16,-3,-1,0,-1
1523210916403577,0,1,45,2,-1,-3,-3,-2
1523210916404343,-1,-4,-24,3,-8,-4,-1,-2
1523210916404343,2,2,-10,2,3,3,0,2
1523210916417379,1,2,38,-2,0,-2,0,-2
1523210916417379,-2,-1,-69,-10,-2,-1,-2,0
1523210916418382,1,2,-33,12,-4,-6,0,0
1523210916418382,-5,-12,-30,-25,-5,-3,-2,-4
1523210916441634,-1,-1,5,-16,6,4,1,0
1523210916441634,0,-3,-3,6,-1,-2,0,0
1523210916441634,-2,4,16,0,-4,-7,-5,-2
1523210916441634,0,-2,10,16,3,3,3,1
1523210916463505,1,-2,-68,4,2,1,2,1
1523210916463505,-4,-8,15,-11,-1,-3,-3,-2
1523210916464504,-6,-10,0,-5,-9,-3,-3,-4
1523210916464504,9,22,53,11,4,-1,0,1
1523210916477540,-12,-27,-31,-12,-9,-6,-6,-7
1523210916477540,-1,-1,-5,-3,-1,-3,-2,0
1523210916478545,-2,-3,-4,-7,-2,0,-1,-1
1523210916478545,0,0,12,22,10,6,2,2
1523210916501641,3,8,2,-17,4,4,0,1
1523210916501641,0,0,-26,-3,3,0,-2,-2
1523210916501641,-2,0,34,2,-6,-6,-3,-4
1523210916501641,0,-3,-45,-17,-2,-3,0,1
1523210916523662,0,4,42,20,-5,-1,2,0
1523210916523662,0,3,26,1,1,-2,-1,0
1523210916524665,0,-1,-22,-9,4,3,1,0
1523210916524665,-2,-8,-37,8,-3,-1,-1,-2
1523210916537699,-1,0,13,0,-3,-2,-2,-2
1523210916537699,-1,0,7,-6,-4,-3,-1,-2
1523210916538702,0,-1,-5,-4,-3,-3,-2,-1
1523210916538702,-2,-5,7,5,0,1,0,0
1523210916560765,0,4,-34,-6,8,7,3,1
1523210916560765,0,3,4,6,-8,-2,-1,0
1523210916561768,0,-1,15,12,9,3,1,-2
1523210916561768,-2,-2,2,12,-7,-4,-5,-3
1523210916583821,2,5,4,-28,5,6,3,1
1523210916583821,-1,-5,-8,15,2,2,1,0
1523210916583821,-2,-4,-1,-6,-10,-6,-3,-4
1523210916583821,-2,-5,19,-14,-8,-8,-4,-2
1523210916597859,2,5,22,21,3,-4,-2,0
1523210916597859,-1,-4,3,8,-3,-3,1,-2
1523210916598876,-1,-2,-2,-22,-7,-3,-2,-1
1523210916598876,-1,-1,-23,5,0,-2,0,0
1523210916620920,0,-1,1,6,4,-1,-1,-1
1523210916620920,1,1,7,-3,1,6,1,-1
1523210916621923,3,4,10,-1,7,3,1,0
1523210916621923,-3,-6,-3,-10,1,1,-1,-3
1523210916642977,0,-2,-31,-4,-7,-5,-1,1
1523210916642977,-2,0,33,3,0,1,-2,0
1523210916643981,0,2,-1,23,-1,-3,-2,0
1523210916643981,-1,-1,-1,-38,-4,-3,-3,-2
1523210916658254,-1,1,-4,4,-4,-3,0,-1
1523210916658254,-2,-4,21,4,4,-1,1,0
1523210916658254,-3,1,-3,0,-3,-1,-2,-2
1523210916658254,0,1,3,-2,1,-2,-2,-2
1523210916681080,1,0,19,11,-4,-2,0,-1
1523210916681080,-1,1,-6,-13,-5,-3,-1,-1
1523210916682082,0,0,23,0,-3,-3,-1,-1
1523210916682082,1,-1,-26,-5,16,9,4,1
1523210916703374,-1,-1,21,-6,-11,1,-3,-3
1523210916703374,0,2,-6,9,8,3,-1,0
1523210916704141,-1,-4,-12,-10,-10,-4,-1,0
1523210916704141,0,0,-2,14,1,1,-1,-1
1523210916718178,-1,-3,0,-3,-3,-3,0,0
1523210916718178,0,1,-26,-11,-8,-5,-5,-2
1523210916718178,1,1,21,13,6,3,0,1
1523210916718178,-2,1,3,8,3,7,0,0
1523210916741475,-2,-1,5,3,-5,-8,-3,-3
1523210916741475,0,0,-3,0,-8,-3,0,-1
1523210916741475,-2,-5,-45,-12,11,4,1,0
1523210916741475,-2,-4,-45,4,-4,-2,-3,-2
1523210916763299,0,-2,-9,2,0,0,-1,-3
1523210916763299,-1,0,12,-5,-3,-4,-2,-1
1523210916764302,0,2,14,0,-4,-3,-1,-2
1523210916764302,0,1,-6,-6,0,1,-1,2
1523210916778348,0,-2,-9,9,4,2,0,-1
1523210916778348,-3,-8,-7,-6,-3,-4,0,-3
1523210916778348,1,1,-6,5,-6,-4,0,0
1523210916778348,-2,0,10,-5,-12,-2,-2,-1
1523210916801399,-1,3,18,-6,16,3,-1,1
1523210916801399,0,-5,-30,-5,-1,1,2,1
1523210916801399,-2,-2,32,10,1,-3,-2,-1
1523210916801399,1,0,-40,3,-4,-3,0,-2
1523210916823497,-1,-3,9,-5,-9,1,-1,2
1523210916823497,-1,-1,12,-1,3,1,-2,-2
1523210916824500,-3,0,-38,-12,0,-1,-3,-2
1523210916824500,-2,-4,9,2,-3,-9,-4,-3
1523210916837496,-2,-4,-34,-11,-3,0,-1,-2
1523210916837496,-2,3,-4,-4,-7,-3,-1,-1
1523210916838498,0,-2,12,3,1,3,1,1
1523210916838498,0,-3,14,2,2,-1,0,0
1523210916860558,3,6,22,11,4,1,0,3
1523210916860558,-7,-12,-58,-15,-10,-7,-6,-6
1523210916861565,-2,0,-13,4,3,-2,-2,-2
1523210916861565,2,1,-19,-9,5,7,6,2
1523210916883618,-3,-8,15,-25,-9,-4,-2,0
1523210916883618,1,9,24,12,3,2,-2,-1
1523210916884622,-1,-2,6,-4,1,-2,-4,-2
1523210916884622,-2,-2,-24,5,-3,-3,-2,-2
1523210916896652,4,5,-20,11,1,0,3,1
1523210916896652,-5,-6,60,-2,-3,-2,-3,-3
1523210916905903,2,0,-8,6,5,6,3,2
1523210916905903,-1,11,114,11,-7,-4,-4,-2
1523210916920716,-3,-5,-64,-8,-3,-5,-5,-4
1523210916920716,0,1,6,1,10,4,4,3
1523210916921719,0,-6,-84,-7,-9,0,-2,-2
1523210916921719,0,1,47,1,-1,-1,0,0
1523210916943788,-4,0,5,4,-8,-5,-4,-2
1523210916943788,1,4,-9,10,16,8,1,1
1523210916944785,-2,-2,25,-8,-6,-3,0,-1
1523210916944785,-2,-5,-15,-15,-2,-2,-2,-1
1523210916957048,-3,-5,18,14,-4,-3,-2,-3
1523210916957048,2,2,22,-3,-6,-3,0,0
1523210916964834,-1,1,-35,-14,4,2,0,-2
1523210916964834,0,2,11,4,-2,0,-1,0
1523210916980877,-1,-1,17,0,4,-2,-1,-2
1523210916980877,1,3,7,11,-4,-1,0,0
1523210916981879,-2,-2,4,-2,3,1,0,0
1523210916981879,-2,-3,-4,-5,1,-3,-1,-1
1523210917004030,-1,0,4,1,-3,-4,0,-2
1523210917004030,-2,-5,-33,-10,-5,-2,-2,-1
1523210917004030,-1,-2,2,3,-8,-4,-4,-4
1523210917004030,0,0,-33,-1,14,7,4,1
1523210917016973,-3,-2,52,8,-2,0,1,-1
1523210917016973,0,1,3,-18,-4,-3,-1,0
1523210917024993,-4,-17,-47,15,-1,-5,-2,-3
1523210917024993,-1,1,6,-16,-10,-9,-5,-4
1523210917041271,-3,-8,-19,-18,-8,1,-1,-2
1523210917041271,3,7,33,32,18,10,4,2
1523210917042045,0,-3,12,-7,-3,-1,0,0
1523210917042045,-1,-1,8,-3,-5,-3,-1,-3
1523210917063094,-2,2,14,11,2,0,-2,-1
1523210917063094,-1,-4,-35,-15,-12,-6,-2,-4
1523210917064097,-1,4,56,15,9,0,-1,1
1523210917064097,0,0,0,-5,-3,2,1,2
1523210917077137,1,3,-17,-15,-4,-1,-4,-1
1523210917077137,-2,-1,0,38,1,-3,0,1
1523210917086157,-2,1,18,-47,-7,-2,-2,-1
1523210917086157,-2,-5,-18,8,0,-2,-3,-2
1523210917101432,0,1,-9,2,2,2,1,0
1523210917101432,0,0,-7,-9,-10,-8,-4,-1
1523210917103245,-1,3,26,15,6,-2,-1,0
1523210917103245,-1,-4,-17,1,2,9,4,2
1523210917123490,0,-1,-18,-4,5,3,1,-1
1523210917123490,-2,-1,-1,-9,-5,-1,-1,-4
1523210917125260,0,1,1,1,-6,-7,-3,-1
1523210917125260,0,0,10,9,0,-1,0,1
1523210917137530,-1,-2,-4,-9,-2,-3,-2,1
1523210917137530,-3,-3,-14,-28,-8,-8,-4,-2
1523210917146316,-1,1,-21,26,3,3,2,0
1523210917146316,-2,-2,-22,-37,6,6,-1,-1
1523210917161360,0,-2,12,21,2,6,4,-1
1523210917161360,-2,0,-3,-21,-3,-2,-3,-1
1523210917162358,0,-3,7,2,-8,-3,-3,-3
1523210917162358,-1,0,7,13,-1,-5,-1,0
1523210917183415,1,3,7,4,-2,-2,-1,-1
1523210917183415,-3,-5,-31,-11,6,3,1,-1
1523210917185421,1,2,0,-3,-7,0,-1,-1
1523210917185421,-1,-1,9,7,-3,-3,-2,-1
1523210917197458,0,-2,-22,-8,-2,-1,-1,0
1523210917197458,1,3,34,21,-1,-1,-1,0
1523210917206476,-1,1,-5,-8,11,0,-3,0
1523210917206476,-1,-3,-9,2,-3,-6,-3,-2
1523210917221554,-2,0,12,3,-1,0,-1,-1
1523210917221554,2,1,12,13,5,5,4,3
1523210917222518,-3,-4,3,-11,-8,-2,0,-2
1523210917222518,-2,-2,6,-4,-1,-1,-4,-2
1523210917243581,-5,-10,-2,8,3,-2,-2,-3
1523210917243581,0,-2,-11,-7,4,0,1,0
1523210917244582,0,4,52,3,-2,1,-1,1
1523210917244582,-2,-5,-14,-13,-8,-5,-4,-2
1523210917265672,0,1,-4,-18,-8,-3,-2,-2
1523210917265672,0,-6,-33,3,11,4,2,0
1523210917267638,-1,2,33,14,-1,-1,0,-1
1523210917267638,-1,2,11,13,7,0,-1,-2
1523210917280672,-3,-3,-29,-32,-8,-4,-5,-3
1523210917280672,-2,-4,-15,-10,-6,-6,-3,-2
1523210917282679,3,2,-1,1,4,5,2,3
1523210917282679,-3,-2,16,8,-3,1,2,-1
1523210917303969,2,5,6,11,2,0,0,0
1523210917303969,-5,-11,29,-12,-2,-5,-4,-5
1523210917305784,-2,-4,-10,-10,-8,-9,-3,-2
1523210917305784,2,1,-6,-4,-3,0,2,0
1523210917325794,0,3,27,14,15,9,4,2
1523210917325794,-2,1,-17,0,-4,0,-2,0
1523210917327804,-1,0,-2,-1,1,2,-1,0
1523210917327804,-2,-3,-1,-7,-12,-8,-6,-5
1523210917342035,-3,-9,1,-1,-3,-7,0,-1
1523210917342035,1,5,-9,9,7,5,0,1
1523210917342842,-1,-3,-3,14,12,9,2,1
1523210917342842,0,0,-4,-10,-4,-1,-3,-1
1523210917363893,1,1,0,-7,-2,-2,-2,1
1523210917363893,-3,-4,2,-1,-9,-5,-2,-1
1523210917364896,1,0,-22,13,4,1,1,1
1523210917364896,-4,-2,15,0,2,-1,-1,1
1523210917385953,-1,-7,-12,-6,-8,-6,-3,-2
1523210917385953,1,5,56,4,-1,-1,-1,0
1523210917387960,-1,-2,-18,-17,-4,-1,-3,-4
1523210917387960,2,0,-3,10,4,3,1,0
1523210917400034,-3,-1,-20,-10,-5,-4,-3,-2
1523210917400034,1,3,8,9,-2,-3,-2,0
1523210917407244,1,1,12,-7,-5,0,1,1
1523210917407244,0,-5,-13,-3,-4,-7,-4,-2
1523210917423287,-1,1,12,24,7,2,-2,-2
1523210917423287,-1,0,-9,-5,-1,2,1,1
1523210917425066,-1,2,25,1,6,0,0,-1
1523210917425066,1,0,-38,10,-1,-1,-1,0
1523210917446113,2,8,38,-18,-5,-4,-2,0
1523210917446113,-2,-10,-37,-2,-10,-6,-3,-3
1523210917447116,-1,0,-7,-2,4,3,1,1
1523210917447116,-1,2,25,15,6,2,-1,-1
1523210917460155,-2,-7,-64,-42,-11,-4,-2,-2
1523210917460155,1,3,6,2,-1,0,0,1
1523210917467169,-2,-2,-3,0,-2,1,-2,0
1523210917467169,-1,1,1,9,3,1,0,-1
1523210917483212,1,1,5,8,-1,2,0,0
1523210917483212,-4,-10,-3,-13,-5,-7,-4,-5
1523210917485217,-1,-2,-15,-3,-10,-7,-1,-1
1523210917485217,1,3,32,-4,10,7,2,0
1523210917506508,1,-1,18,18,3,3,2,0
1523210917506508,0,2,-84,-17,-4,-1,-1,-2
1523210917507274,-4,-14,-32,0,-6,-6,-3,-3
1523210917507274,-1,0,7,-9,-7,-6,0,0
1523210917520310,-2,-2,21,2,1,1,-1,-1
1523210917520310,0,5,-5,17,1,6,2,3
1523210917527338,-3,-2,-7,-13,6,-2,-1,-3
1523210917527338,-2,-2,5,-8,-6,-4,-2,-1
1523210917543611,1,-1,-60,3,-3,2,3,1
1523210917543611,-2,1,58,4,2,0,1,-1
1523210917545377,1,4,13,0,-4,1,-1,1
1523210917545377,0,-4,-13,-2,-1,-5,-3,-1
1523210917566433,-2,1,-6,-4,0,-1,-2,-1
1523210917566433,-1,-2,9,-4,-1,-3,-2,-3
1523210917567435,1,4,9,-3,-7,-3,-2,-1
1523210917567435,-3,-4,-22,4,5,0,-3,-2
1523210917580479,1,3,27,24,3,-1,1,0
1523210917580479,-2,-7,-37,-48,-14,-2,-1,-2
1523210917587492,3,1,1,5,11,5,3,0
1523210917587492,1,3,-14,-1,-5,-2,-2,3
1523210917603767,-5,-5,24,2,-3,-7,-3,-3
1523210917603767,0,4,9,10,4,-3,-2,-1
1523210917605612,0,-3,30,-3,-9,-6,-3,0
1523210917605612,-3,-2,-88,-15,-6,-1,1,-2
1523210917625591,1,0,7,3,10,8,2,3
1523210917625591,-3,-3,-5,-8,3,-1,-1,0
1523210917627605,-1,-1,8,7,-5,-5,-3,-1
1523210917627605,1,3,19,-12,-3,-3,-2,-2
1523210917640867,-5,-6,-40,-22,-9,-9,-5,-5
1523210917640867,0,-7,-4,17,10,6,4,1
1523210917646647,0,4,-4,-3,0,3,0,0
1523210917646647,-1,-3,8,8,-6,-3,-2,-2
1523210917663690,0,2,-29,-22,-9,-5,-4,-2
1523210917663690,-1,1,18,-4,4,-1,-4,-2
1523210917664723,-2,-3,-46,0,-1,-3,0,-1
1523210917664723,-1,-3,5,0,-6,-2,-3,0
1523210917685749,2,1,14,3,6,2,1,-1
1523210917685749,0,1,17,7,0,7,2,2
1523210917687755,-3,-6,-11,-3,5,-4,-3,-1
1523210917687755,-3,-3,6,-12,-3,-2,0,-1
1523210917700879,-2,-2,-23,5,0,0,-2,0
1523210917700879,-2,0,33,16,-6,-9,-3,-2
1523210917707040,0,1,-42,-20,0,3,2,-1
1523210917707040,-2,-4,8,8,3,4,2,1
1523210917723851,-2,1,-7,-21,0,2,0,-2
1523210917723851,0,-1,19,5,-3,-2,-2,-2
1523210917724854,-1,-1,2,3,-3,-3,-4,-3
1523210917724854,-3,-3,30,-6,-3,0,0,-2
1523210917745909,1,5,81,27,3,1,1,-1
1523210917745909,-3,-11,-87,-31,-4,1,-1,-3
1523210917747915,-1,-5,13,4,-3,-2,0,-2
1523210917747915,1,3,22,-4,2,-2,-1,-2
1523210917759954,-2,-7,-34,6,-1,-3,-2,-1
1523210917759954,0,6,31,6,-3,-4,-3,-1
1523210917768973,0,5,45,5,1,5,1,0
1523210917768973,-1,-8,-36,2,4,1,-2,-3
1523210917783008,-2,-3,-35,-9,-5,-5,-4,-1
1523210917783008,0,1,11,12,-4,-5,0,0
1523210917785013,-3,0,-7,1,0,3,2,0
1523210917785013,1,3,19,-1,3,2,0,-1
1523210917806305,1,1,27,3,-3,-2,-2,0
1523210917806305,-1,-1,-22,4,-4,-5,-3,-3
1523210917808218,-2,-3,-16,-26,-6,1,0,-3
1523210917808218,2,0,1,8,10,2,1,3
1523210917819104,0,2,10,3,-5,-4,-1,-3
1523210917819104,-1,-7,-9,-5,-1,-2,-2,-3
1523210917828172,2,0,17,-1,-4,-4,-2,1
1523210917828172,-1,-2,-27,-6,-5,-4,-2,-1
1523210917843170,-1,-3,-8,14,8,1,1,0
1523210917843170,-1,-1,33,-26,0,4,0,-1
1523210917845173,-3,-4,-5,1,-4,-5,-4,-5
1523210917845173,-2,-1,40,2,-5,-4,-2,-2
1523210917866231,0,0,-15,4,-1,-2,-1,0
1523210917866231,1,5,20,21,2,2,1,1
1523210917867232,-1,-4,-18,-1,6,-1,-1,1
1523210917867232,0,1,-2,-8,-4,2,-1,0
1523210917879264,-3,1,44,0,1,-3,-1,-2
1523210917879264,-1,3,-26,-3,3,3,2,0
1523210917888363,-2,-8,-17,-6,-3,-2,-2,-2
1523210917888363,-1,-1,1,4,-2,-4,-1,-2
1523210917903567,1,2,49,7,-4,-2,-2,0
1523210917903567,-1,-3,-35,0,0,-1,0,0
1523210917905332,1,6,16,-20,-4,-4,-4,-1
1523210917905332,-2,-7,-70,-1,-1,-1,-1,-3
1523210917926390,-2,-5,-2,4,0,6,2,-2
1523210917926390,0,3,16,10,12,8,2,1
1523210917927398,0,2,45,-15,-4,-1,-3,-2
1523210917927398,-2,-3,-6,-2,-12,-6,-3,-3
1523210917939423,-1,1,-20,-15,-2,-1,-2,-2
1523210917939423,0,-3,3,8,1,-4,-1,0
1523210917948447,-2,-1,-3,18,-1,2,4,0
1523210917948447,1,3,17,5,11,6,0,2
1523210917963491,-2,-7,-65,-28,-7,-3,-3,-1
1523210917963491,-1,0,5,4,-8,-8,-4,0
1523210917965493,-3,-2,-14,2,-1,-7,-1,-3
1523210917965493,0,-2,-1,2,-4,-4,-2,0
1523210917985547,1,3,-27,5,5,3,1,0
1523210917985547,1,0,6,3,3,8,2,2
1523210917987550,-1,-3,-17,-8,-7,-5,-3,-2
1523210917987550,-4,-4,6,-2,-5,-5,-2,-1
1523210917999623,1,2,15,2,0,-2,-3,-1
1523210917999623,-3,-2,12,-5,0,1,-3,-3
1523210918008610,-2,-1,-14,11,1,1,2,3
1523210918008610,0,3,12,1,3,5,3,0
1523210918023647,-2,-2,5,0,2,0,0,-1
1523210918023647,-1,0,-5,-9,-12,-8,-3,-3
1523210918024651,1,-2,-9,0,-6,-3,-4,-1
1523210918024651,0,0,-16,-11,-7,-9,-4,-3
1523210918045705,-3,-2,18,6,3,0,0,1
1523210918045705,0,0,-21,-2,8,7,3,1
1523210918047711,0,2,-11,9,4,3,0,0
1523210918047711,0,1,2,-17,-9,-3,-3,-2
1523210918059749,1,-2,35,1,-7,-4,-3,-3
1523210918059749,-1,-1,-48,-5,-3,-5,-3,-3
1523210918068768,0,0,2,0,2,4,2,-1
1523210918068768,-2,-1,19,12,6,4,1,-1
1523210918083845,-2,-4,-27,-11,2,0,-3,1
1523210918083845,-2,2,49,-5,-9,-6,-3,-2
1523210918084809,-1,-5,-5,1,-3,-5,-2,-2
1523210918084809,0,3,-16,2,3,0,-1,-2
1523210918113887,-1,-4,-30,-19,-3,7,2,0
1523210918113887,-1,2,38,14,3,1,0,1
1523210918114889,-1,2,16,7,2,-1,-1,-2
1523210918114889,-2,-5,6,-11,-3,-3,-1,-2
1523210918119942,0,2,15,9,-8,-3,0,-2
1523210918119942,-1,-2,-13,1,5,-3,-3,-2
1523210918128927,-1,2,0,5,3,5,1,0
1523210918128927,1,0,-2,8,5,4,1,-1
1523210918142968,-3,-2,4,-6,-9,-4,-2,0
1523210918142968,-1,-1,-2,-2,-7,-5,-3,-1
1523210918144971,0,1,10,4,4,2,3,1
1523210918144971,0,-1,-11,-2,4,2,-2,-1
1523210918166025,-1,-3,-21,1,-5,-4,-1,-1
1523210918166025,-5,-6,-13,-24,-15,-8,-5,-5
1523210918168031,-1,-5,7,2,8,3,0,0
1523210918168031,1,1,-33,6,1,3,2,3
1523210918189100,0,4,26,9,4,-4,-3,-2
1523210918189100,1,2,26,3,2,0,0,-1
1523210918190089,0,3,-20,-3,-7,-4,-3,-1
1523210918190089,-3,-8,3,3,0,0,0,-2
1523210918204125,1,3,18,-3,10,6,3,0
1523210918204125,0,0,-33,-1,-12,-3,-3,0
1523210918205129,0,-1,0,-9,-3,-1,-3,0
1523210918205129,1,2,13,-1,-4,-3,-5,-3
1523210918226190,-4,-4,-7,-1,-5,-5,-2,-1
1523210918226190,1,-4,-12,-4,1,-1,-1,-1
1523210918227197,-1,-5,24,3,-10,0,-1,-1
1523210918227197,-3,-4,-31,-11,4,-1,-1,0
1523210918248245,0,-2,-17,9,3,3,1,-4
1523210918248245,1,3,-11,-9,5,7,4,1
1523210918250289,-3,-2,2,4,-6,-7,-4,-2
1523210918250289,0,0,15,-8,-15,-6,-4,-3
1523210918263285,-2,-2,-4,-6,-5,-6,-5,-2
1523210918263285,0,0,-29,6,8,0,1,0
1523210918265289,-1,-4,19,6,9,8,3,0
1523210918265289,1,4,40,2,-5,1,0,1
1523210918286346,-3,-11,-71,-6,-3,-1,-1,-1
1523210918286346,-1,1,26,-6,-7,-7,-3,-2
1523210918287347,1,2,-12,-8,-7,-2,-3,0
1523210918287347,0,-1,9,8,10,4,0,0
1523210918308406,-1,0,18,-1,-4,2,-1,0
1523210918308406,-1,-7,-6,5,6,-2,-1,-1
1523210918310415,-4,-2,-18,-6,-5,-2,0,-2
1523210918310415,-3,-1,-9,-10,-3,0,1,0
1523210918322676,-1,5,17,4,5,2,0,-1
1523210918322676,-1,-1,6,0,-7,0,0,-1
1523210918329498,-2,-1,12,0,4,-2,-3,-2
1523210918329498,-2,0,-10,-7,-6,-3,-3,-2
1523210918345504,-1,-2,22,-1,3,1,1,-1
1523210918345504,0,-1,-18,6,6,3,1,1
1523210918347507,-1,0,-11,-5,-3,-5,-5,-3
1523210918347507,0,2,19,21,2,-2,1,1
1523210918368564,0,-3,-25,-27,-17,-3,0,-1
1523210918368564,0,-5,-19,2,16,6,0,-1
1523210918369565,-1,0,4,-13,-7,-7,-2,-1
1523210918369565,-3,-2,-16,1,-3,-5,-2,-2
1523210918390621,1,1,15,5,0,-4,-4,-2
1523210918390621,-2,-1,16,-1,-11,-2,0,-1
1523210918392628,0,4,-3,10,10,-3,-1,1
1523210918392628,0,-4,-29,-3,-8,1,-1,0
1523210918406671,-5,-11,1,-25,0,-2,0,-1
1523210918406671,1,1,18,9,0,2,0,0
1523210918407667,0,-2,-13,-6,-1,-1,-3,-1
1523210918407667,0,-1,9,0,-5,-7,-5,-3
1523210918428725,0,3,15,21,-1,-3,-2,0
1523210918428725,-2,-2,-9,-13,4,3,1,1
1523210918429727,-2,-3,16,3,4,1,-1,0
1523210918429727,0,2,9,-10,0,1,-1,1
1523210918442771,-1,-1,23,-6,-8,3,-1,1
1523210918442771,-2,-2,1,14,6,-4,-2,-1
1523210918449781,-2,0,-9,-2,-9,-5,-2,-3
1523210918449781,-2,0,5,3,0,-1,-1,-1
1523210918465822,1,-1,11,9,5,6,0,1
1523210918465822,-1,-2,14,-1,-9,-6,-2,-1
1523210918467830,0,-4,-19,-4,2,1,2,-1
1523210918467830,-2,-5,2,-6,1,-5,-1,-2
1523210918489055,2,2,-12,4,-6,-7,-1,-3
1523210918489055,-2,-1,-6,-5,0,1,0,1
1523210918489885,1,1,-10,0,6,6,0,-1
1523210918489885,0,-1,-16,1,-1,4,-1,-1
1523210918503156,-1,1,15,6,8,3,-1,0
1523210918503156,-1,-2,-9,-15,-11,-3,-3,-2
1523210918509944,0,1,24,6,-3,-4,0,0
1523210918509944,1,3,-47,-2,-2,1,0,-1
1523210918525989,0,-4,15,1,-2,-4,-2,-2
1523210918525989,-2,-8,-11,-10,-4,0,-1,-3
1523210918527991,0,-1,22,4,-2,-1,-1,-1
1523210918527991,-1,14,-15,10,9,3,0,0
1523210918548040,-2,-1,-24,-10,0,-4,-1,0
1523210918548040,0,-3,15,-3,-6,-5,-2,0
1523210918550046,2,2,1,1,-7,5,3,1
1523210918550046,-3,-11,27,0,11,1,-2,0
1523210918563080,0,0,4,5,-1,-5,-2,-4
1523210918563080,0,2,8,-1,-1,-3,1,-1
1523210918569096,1,-5,-16,3,-7,-1,-2,-1
1523210918569096,-1,-1,-10,-25,1,2,0,-1
1523210918586143,0,0,14,30,17,9,5,3
1523210918586143,-4,-4,-51,-44,-20,-10,-4,-4
1523210918588146,-5,-9,-5,10,-4,-10,-5,-4
1523210918588146,3,1,33,-4,-7,0,-1,-2
1523210918608202,-1,-2,14,1,2,0,-3,-1
1523210918608202,1,-1,-10,11,4,1,1,1
1523210918610212,-1,4,-2,-8,-3,-1,0,-2
1523210918610212,-3,-4,-3,-3,-4,-6,-2,-2
1523210918623399,-1,2,-7,2,-8,-6,-2,-2
1523210918623399,-1,-1,62,8,12,7,1,1
1523210918629257,0,-2,-26,-19,-9,0,-2,-1
1523210918629257,-1,-3,11,19,-2,1,1,0
1523210918646301,-1,0,-23,-5,12,7,2,1
1523210918646301,-1,2,-15,4,-6,-1,-4,-1
1523210918647305,-3,-3,4,0,3,-4,-4,-3
1523210918647305,-2,-1,17,13,-5,-1,-2,-1
1523210918668361,0,1,-1,-12,-4,-1,0,0
1523210918668361,1,2,17,11,2,-2,-2,-2
1523210918670365,-4,-6,-45,-10,-3,-4,0,-1
1523210918670365,-1,-6,-21,0,-8,-1,-1,-1
1523210918682399,-1,0,9,1,10,1,-1,1
1523210918682399,1,2,-23,5,1,1,0,0
1523210918691426,0,1,26,-3,-3,-4,-2,-1
1523210918691426,-2,-4,8,-8,-6,-6,-4,-2
1523210918706627,0,-2,-21,5,0,3,2,-2
1523210918706627,-1,-2,-27,-18,0,3,0,2
1523210918707463,1,1,5,2,1,1,-2,0
1523210918707463,0,-2,5,-3,5,4,0,-1
1523210918728521,-2,0,15,-6,-11,-5,-4,-2
1523210918728521,-2,0,30,29,4,-2,-4,-3
1523210918729531,0,-3,-20,-37,-3,-3,1,1
1523210918729531,0,2,-12,-1,-1,-1,0,0
1523210918742560,0,2,16,0,4,3,1,0
1523210918742560,-1,-2,-12,5,-5,-4,-2,-2
1523210918750815,-1,-1,-2,7,-1,0,-1,0
1523210918750815,-1,1,8,-2,0,-2,-1,-2
1523210918765619,-1,-1,-11,-5,-7,-5,-2,0
1523210918765619,1,3,22,5,-5,-1,-1,-1
1523210918767624,-3,-2,2,-6,11,0,0,-1
1523210918767624,-2,-2,-3,4,3,1,1,-1
1523210918788916,0,0,1,7,-6,-2,-2,0
1523210918788916,-2,-5,-7,-36,-8,-9,-4,-2
1523210918790732,2,1,-10,11,-6,-1,0,2
1523210918790732,-1,-1,1,-2,0,0,-2,-1
1523210918802755,-3,-3,4,8,0,-5,-3,-2
1523210918802755,6,-1,-33,-4,-3,-5,-2,-3
1523210918810741,1,4,24,19,6,6,4,1
1523210918810741,2,0,-16,-2,8,5,1,2
1523210918825786,-1,-4,-29,-12,-7,-4,-1,-3
1523210918825786,-5,-4,-6,0,0,0,0,1
1523210918827785,-2,-4,-12,0,-8,-6,-3,-3
1523210918827785,-1,2,39,8,4,-3,-3,-4
1523210918848842,0,3,-11,-7,5,6,1,0
1523210918848842,0,-2,29,20,3,1,1,1
1523210918849843,-2,-3,-36,-1,-2,2,-2,-2
1523210918849843,-2,-5,16,-8,-8,-6,-1,-2
1523210918861874,0,0,7,-7,-9,-11,-6,-2
1523210918861874,0,2,8,23,6,3,2,1
1523210918870937,1,3,4,-4,12,8,2,1
1523210918870937,-1,-1,-16,-10,0,1,-1,-3
1523210918885939,-2,0,1,-2,-3,-2,-1,0
1523210918885939,-5,-3,-7,-6,-9,-4,-2,-2
1523210918888175,-1,2,33,7,-3,-4,-1,-1
1523210918888175,-2,0,-17,-7,-3,-2,-3,0
1523210918908005,1,-2,-4,11,5,2,2,-1
1523210918908005,-1,-1,-5,-25,-6,-3,-2,-2
1523210918910007,2,-1,-4,3,4,3,0,-1
1523210918910007,-1,-2,12,15,1,3,2,2
1523210918922269,-2,-2,-10,-8,-4,-2,-3,-2
1523210918922269,-1,-1,6,2,-1,-1,-3,-3
1523210918931058,-1,-3,-5,-7,-7,-10,-3,-5
1523210918931058,-1,-2,-23,-1,-6,-2,2,0
1523210918946098,1,0,11,9,8,5,2,1
1523210918946098,1,-2,-25,-9,-1,3,2,-1
1523210918947101,-1,-4,33,0,8,3,-2,-1
1523210918947101,-2,-2,2,-3,-11,-4,-1,-1
1523210918968159,-2,-2,1,-2,0,-2,1,0
1523210918968159,1,1,10,7,4,-3,-2,-1
1523210918970163,0,1,2,8,-8,-4,-3,-1
1523210918970163,-1,-3,-5,-8,7,2,1,-3
1523210918982198,-2,-2,-6,-9,-9,-2,-1,-2
1523210918982198,-3,2,16,0,-1,1,0,-1
1523210918991223,-1,0,-9,6,-4,-2,0,0
1523210918991223,-1,1,5,-6,0,-4,-2,0
1523210919006493,-3,-1,-11,-7,-6,-4,-4,-4
1523210919006493,-1,1,7,17,9,1,0,0
1523210919007260,-2,-2,-23,-17,-7,0,-2,-1
1523210919007260,0,-3,8,14,-3,-9,-5,-2
1523210919028318,-4,-7,-4,-22,-9,-4,-2,-3
1523210919028318,1,0,-8,5,11,8,4,0
1523210919030322,0,2,-33,5,7,5,1,1
1523210919030322,-1,-2,1,-9,-9,-6,-3,-2
1523210919042363,0,3,6,8,3,-3,-3,1
1523210919042363,-3,-4,-4,0,-14,-6,-3,-2
1523210919051378,-6,-3,-6,-5,13,3,3,0
1523210919051378,10,2,-8,-10,4,4,-1,0
1523210919065414,-3,-2,-4,2,-6,-1,-1,-2
1523210919065414,-5,-3,-14,-17,-7,-5,-5,-2
1523210919067421,0,-1,20,30,-2,-5,-2,-1
1523210919067421,-4,-3,-16,-32,-3,-2,-2,0
1523210919088712,-2,-8,-38,3,-3,0,0,-2
1523210919088712,2,0,17,3,1,2,2,0
1523210919090481,0,0,9,4,-4,-1,1,0
1523210919090481,-3,0,0,11,5,1,-1,-2
1523210919102727,1,3,6,-2,3,4,1,2
1523210919102727,-1,-1,-2,1,-1,-2,-2,-1
1523210919110535,0,0,5,-10,-5,-2,-1,-2
1523210919110535,0,2,1,2,-4,1,0,0
1523210919125583,-1,-4,-2,-7,7,5,0,0
1523210919125583,-1,-3,-7,-12,-11,-5,-3,-3
1523210919127581,1,-1,21,3,-1,-1,0,-2
1523210919127581,-4,-4,-35,4,10,7,-1,-1
1523210919148872,0,5,29,-1,-12,-5,-1,-1
1523210919148872,-3,-5,-23,2,5,-2,-2,1
1523210919149640,-5,-5,31,-16,-10,-6,-3,-3
1523210919149640,-1,-4,-16,-9,0,-1,0,-1
1523210919170935,1,-1,1,4,6,-1,0,0
1523210919170935,1,0,5,7,-7,1,-1,-1
1523210919172700,1,3,-8,5,-2,-4,-3,0
1523210919172700,-1,2,29,13,-5,-7,-1,-1
1523210919185736,-2,-3,-1,-18,1,-1,-2,-2
1523210919185736,2,2,-29,-5,0,-2,0,-1
1523210919191750,0,-2,-9,6,3,2,1,-1
1523210919191750,-1,4,18,5,1,3,1,-1
1523210919208801,2,-2,-5,10,4,3,-1,-1
1523210919208801,-2,0,16,-5,-6,-6,-1,-2
1523210919209800,-3,-7,-34,-29,-7,-1,-1,-1
1523210919209800,-2,-1,-18,4,5,0,-3,-1
1523210919230857,-1,2,12,7,-3,-4,-2,-3
1523210919230857,-1,0,14,9,1,3,1,0
1523210919232860,0,1,-3,1,11,-1,-1,-2
1523210919232860,-2,-5,-2,-17,-17,-4,-2,-2
1523210919244894,-1,1,-6,3,4,1,0,1
1523210919244894,0,2,13,9,-2,-2,-1,0
1523210919253916,-2,-2,-18,-17,0,-4,-3,-3
1523210919253916,0,-3,-41,-17,1,6,3,0
1523210919267955,-1,1,36,10,1,2,1,-1
1523210919267955,-1,-3,2,1,-1,-1,-2,-1
1523210919269964,-2,-3,1,-2,-10,-4,-3,-3
1523210919269964,-2,-3,-8,7,1,-3,-3,-3
1523210919291019,1,2,-1,-4,0,1,1,-1
1523210919291019,-4,-6,-25,-19,3,0,-1,-1
1523210919293021,0,1,6,2,-1,1,0,0
1523210919293021,-1,-1,8,1,-4,-6,-3,0
1523210919305287,-1,-4,-14,-1,0,0,-1,0
1523210919305287,1,1,27,4,1,4,3,1
1523210919312070,0,1,-39,-1,4,2,0,1
1523210919312070,-2,-1,4,-3,-8,-7,-2,-2
1523210919328113,-2,-3,-1,-3,-7,-5,-4,-2
1523210919328113,0,3,19,10,9,3,0,0
1523210919330118,-3,-6,-28,-27,-10,-1,-1,-3
1523210919330118,-1,1,9,1,7,2,1,0
1523210919351410,-1,-1,-10,5,-4,-3,-1,0
1523210919351410,-2,4,-5,-2,-5,-3,-3,-1
1523210919353218,0,2,34,13,-3,-3,-2,-1
1523210919353218,0,-2,21,5,0,-4,-3,-2
1523210919365214,0,-1,1,0,3,5,5,0
1523210919365214,-1,-4,-27,-17,-1,3,0,1
1523210919372466,1,1,4,4,-2,-2,-2,0
1523210919372466,-2,-3,22,4,-4,-7,-4,-3
1523210919388509,0,1,-25,17,9,4,0,1
1523210919388509,0,-1,27,-23,-7,-3,0,-1
1523210919390277,-3,-6,6,8,-2,-4,0,-3
1523210919390277,-1,1,-2,-1,4,6,2,0
1523210919411334,0,2,1,-6,3,-2,-3,-1
1523210919411334,-2,-6,-25,3,-3,-5,-2,-1
1523210919412338,1,2,4,-7,-6,-5,-3,0
1523210919412338,-1,-3,1,7,-5,3,1,-1
1523210919425376,-3,-6,-15,-5,7,0,-2,-2
1523210919425376,3,5,12,9,2,1,2,0
1523210919432390,-1,-1,16,-15,-3,0,-2,-2
1523210919432390,2,-1,19,14,-2,1,-1,0
1523210919448432,-3,-1,-13,1,-6,-5,-1,-4
1523210919448432,-4,-7,12,-1,-4,-5,-4,-3
1523210919450440,2,4,-11,11,5,4,2,1
1523210919450440,-2,-2,-4,-8,4,5,5,1
1523210919471532,-2,-1,20,-2,1,0,-1,-2
1523210919471532,-2,-2,-17,0,-5,-5,-3,-2
1523210919472496,-3,-4,-17,-14,-1,-2,-1,0
1523210919472496,-2,-2,-25,-13,-5,-7,-4,-3
1523210919485767,0,-2,12,-9,-4,-1,0,0
1523210919485767,2,3,19,8,5,2,1,1
1523210919492605,0,0,8,9,6,2,0,-1
1523210919492605,-3,-5,-36,-24,-7,-4,-2,-3
1523210919508599,0,1,10,0,-6,-3,-2,-1
1523210919508599,0,-2,-10,-6,-2,-2,-3,-1
1523210919509595,-1,-2,9,7,-6,-5,-3,-2
1523210919509595,1,5,10,14,12,3,2,0
1523210919530664,0,1,7,-10,-7,-3,0,1
1523210919530664,-2,-4,-43,-10,-1,-3,-2,-2
1523210919532657,0,-2,3,4,-4,2,1,1
1523210919532657,1,3,14,25,12,5,0,0
1523210919545691,-1,-7,-19,-9,-10,-4,-3,-3
1523210919545691,-4,-5,-38,4,-4,-8,-5,-4
1523210919552720,0,1,11,-3,-3,-1,-1,-1
1523210919552720,3,2,8,6,-6,-3,0,1
1523210919568753,-2,-2,5,17,6,-2,0,-1
1523210919568753,-1,-1,-7,-30,0,6,2,0
1523210919569853,-2,0,0,14,-1,-4,-3,-1
1523210919569853,0,0,29,0,-8,-7,-3,0
1523210919590812,-1,-3,-40,-3,2,2,1,-1
1523210919590812,1,1,-9,-3,6,4,2,0
1523210919592818,-2,3,-8,0,-1,1,0,-2
1523210919592818,-3,-2,-2,-10,-6,-4,-1,-1
1523210919605889,-2,-5,-9,-13,-12,-12,-6,-3
1523210919605889,-2,2,33,13,9,5,2,-1
1523210919611867,0,-4,-22,-8,1,-1,0,0
1523210919611867,-1,-4,-20,-7,-11,-5,-5,-3
1523210919627911,-1,2,21,-1,2,6,2,1
1523210919627911,0,0,14,13,3,4,0,0
1523210919629915,0,-2,-14,-10,-2,-2,-1,-2
1523210919629915,-1,-2,1,-5,-6,-6,-3,-1
1523210919651208,-1,2,1,4,-7,-5,-2,-3
1523210919651208,1,0,19,-5,7,6,3,1
1523210919653223,-1,2,23,17,6,4,1,-1
1523210919653223,-2,-1,-32,-26,-1,-2,-2,-1
1523210919665009,0,2,-6,5,-5,-3,-2,-1
1523210919665009,-1,0,35,10,-3,-2,-3,-1
1523210919674035,-1,-2,15,17,1,-2,-2,0
1523210919674035,-1,-2,2,1,3,2,-1,-2
1523210919689096,1,0,-23,-14,1,-1,-1,0
1523210919689096,-2,-1,5,6,-5,-4,-2,-1
1523210919690075,0,-2,23,-5,0,-1,-2,-1
1523210919690075,-1,-4,4,10,2,7,2,0
1523210919711132,-3,-2,16,-4,-4,-4,-2,-3
1523210919711132,0,-1,-37,-6,-5,-3,-2,-2
1523210919712134,0,-1,15,19,3,2,0,0
1523210919712134,-1,-1,-19,-33,6,2,1,0
1523210919724171,-1,-3,6,-14,-4,-1,-1,-1
1523210919724171,-1,0,44,-1,-7,-6,-2,-3
1523210919733192,-1,-3,-46,-11,-3,-1,0,1
1523210919733192,-3,-1,19,5,-3,-4,-4,-4
1523210919748230,1,-1,1,4,8,3,1,0
1523210919748230,1,4,23,3,-6,-4,-2,0
1523210919750236,-4,-6,0,-10,-8,-6,-1,-4
1523210919750236,-2,-1,-37,12,5,2,1,2
1523210919771527,-1,-3,-14,-16,4,2,-3,0
1523210919771527,2,5,-1,18,1,-1,-1,0
1523210919772293,-2,-2,22,-18,-5,-4,-3,-2
1523210919772293,-3,-4,-43,-10,-6,-3,-1,0
1523210919784326,-1,-1,13,8,-3,-2,-2,-1
1523210919784326,-1,-2,-12,-14,0,3,3,-1
1523210919793350,0,5,22,7,7,4,1,0
1523210919793350,-1,1,20,9,-8,-10,-4,-3
1523210919808394,-4,-6,-23,-5,-10,-7,-3,-2
1523210919808394,-4,-2,7,-5,8,-1,-1,-3
1523210919810395,1,1,-34,17,7,4,1,1
1523210919810395,0,1,28,-36,-4,-1,-1,-2
1523210919830447,0,-2,9,17,0,1,-2,-1
1523210919830447,0,0,-25,-17,-3,-2,-2,-1
1523210919832454,-4,-7,-21,-8,-8,-7,-5,-3
1523210919832454,0,3,10,12,-6,-1,-1,1
1523210919844486,0,5,38,12,5,0,-1,-4
1523210919844486,3,3,-45,4,9,5,4,2
1523210919853509,-2,-1,13,-26,3,5,1,0
1523210919853509,-1,-6,16,13,3,5,-1,-2
1523210919868548,-2,-1,-10,-7,-10,-4,-3,-1
1523210919868548,-3,-4,1,8,-8,-7,-4,-3
1523210919870554,2,4,25,4,-4,-7,-2,-1
1523210919870554,0,-2,-51,-7,1,0,1,-2
1523210919890614,-2,-4,-16,-1,5,4,0,0
1523210919890614,1,-1,14,-7,3,6,3,2
1523210919892615,0,0,4,4,-1,1,-1,0
1523210919892615,-1,2,-27,-1,-5,-3,0,-1
1523210919904880,1,2,36,21,1,-7,-3,-1
1523210919904880,-4,-3,-27,-16,-3,-1,1,-2
1523210919913669,0,-3,-35,-4,3,3,3,0
1523210919913669,0,-1,9,6,-3,1,0,0
1523210919928709,-1,0,-13,-4,-5,0,1,1
1523210919928709,-1,1,20,21,5,-5,-6,-1
1523210919929711,-1,-6,-24,-5,1,-3,-2,-2
1523210919929711,0,1,46,11,0,-2,-2,-1
1523210919951003,-3,-2,-51,-9,-4,-2,-2,-3
1523210919951003,-2,-7,22,-11,-11,-5,-2,-3
1523210919952773,1,2,10,1,0,-1,-2,-1
1523210919952773,-1,0,10,1,-4,-5,-2,-1
1523210919964845,0,1,-24,-4,7,5,3,2
1523210919964845,-2,-7,3,3,6,5,0,-1
1523210919973832,-1,0,-3,-12,-9,-4,-3,-1
1523210919973832,-1,-2,3,5,-6,-5,-1,-1
1523210919989045,0,-1,-4,4,-4,-6,-1,-1
1523210919989045,2,4,16,24,5,5,3,2
1523210919989872,-3,-6,-48,-48,4,3,-2,0
1523210919989872,0,0,36,8,-4,-5,-2,-1
1523210920010929,-2,-1,20,3,2,-5,-1,-1
1523210920010929,-1,-2,-10,4,-7,-6,-4,-2
1523210920012934,-2,-10,3,14,-7,-4,0,-1
1523210920012934,0,-1,-17,-11,12,4,-2,1
1523210920024972,0,1,21,-5,-1,1,-1,-1
1523210920024972,-2,-5,-34,-13,-10,-6,-2,-4
1523210920033989,-1,1,23,2,-7,-7,-4,-3
1523210920033989,-1,0,-27,-4,8,5,4,0
1523210920048262,-1,-2,27,4,-2,2,2,0
1523210920048262,-2,-2,-11,-4,-3,-3,-3,-2
1523210920050032,-3,4,-4,2,4,5,-1,0
1523210920050032,-1,-1,-2,16,-5,-3,-2,0
1523210920071323,-2,1,11,-11,0,-1,0,0
1523210920071323,2,3,-11,-17,-12,-7,-3,0
1523210920072090,-2,-2,-5,9,4,-3,-1,-2
1523210920072090,-1,-3,32,6,-4,-1,1,-1
1523210920093153,-1,4,9,1,2,-2,-3,-1
1523210920093153,-1,-1,-54,-14,9,8,2,0
1523210920095151,0,5,22,8,-4,0,0,-1
1523210920095151,-2,-1,-33,-1,0,3,3,1
1523210920108192,-1,-6,-1,1,-9,4,-2,-2
1523210920108192,0,-1,9,-19,5,0,-3,0
1523210920110192,-3,-6,1,-10,-8,-7,-4,-3
1523210920110192,-2,-3,-37,4,0,3,0,-2
1523210920131249,-2,0,5,-4,-6,-10,-2,-1
1523210920131249,0,0,16,15,6,3,1,0
1523210920132250,2,2,-11,2,4,3,1,3
1523210920132250,-2,-3,46,-7,-3,-6,-4,-2
1523210920153541,0,-7,-10,-2,-1,1,0,-1
1523210920153541,0,5,0,1,-6,-1,-1,-1
1523210920155311,-2,-5,-13,-3,-1,-4,-1,-2
1523210920155311,4,25,22,-7,-5,-7,-5,-3
1523210920168346,-7,-23,-34,-15,-6,-2,0,-1
1523210920168346,-1,4,31,15,3,-1,4,0
1523210920170577,2,3,19,11,5,5,3,1
1523210920170577,-5,1,7,-7,0,-2,-3,-2
1523210920191413,1,8,3,15,3,-4,-3,0
1523210920191413,-6,-15,15,-26,-14,-7,-3,-4
1523210920193413,0,1,12,20,4,4,2,0
1523210920193413,0,2,-3,-5,4,3,-1,-2
1523210920213466,1,0,-4,-1,-1,0,0,0
1523210920213466,-2,-3,-12,-1,-6,-6,-5,-2
1523210920215471,0,4,-1,-13,2,-2,-1,-1
1523210920215471,-3,-11,-22,-2,-4,-5,-2,-2
1523210920227554,0,3,2,-7,-4,4,2,-2
1523210920227554,0,1,-10,15,16,6,2,0
1523210920234521,1,1,-26,6,8,6,0,0
1523210920234521,0,-3,20,-3,-11,-7,-2,0
1523210920251566,-3,-5,-47,-7,-1,-1,0,0
1523210920251566,-4,-3,14,3,-3,-2,-2,-2
1523210920252569,-1,-2,-6,5,-9,-8,-4,-1
1523210920252569,-2,-6,26,3,0,1,-1,-2
1523210920273682,0,4,12,5,13,8,5,1
1523210920273682,1,3,5,-1,-1,5,0,0
1523210920275639,0,-2,21,8,-4,0,-3,0
1523210920275639,-1,-5,-6,-12,-3,-3,-4,-2
1523210920287901,-1,-1,20,-5,-6,-7,-2,-2
1523210920287901,0,-1,-39,-6,-5,-3,-2,1
1523210920294682,-2,1,63,9,2,0,0,-1
1523210920294682,0,-2,-8,1,4,8,4,3
1523210920310725,1,1,-24,2,8,2,-2,2
1523210920310725,0,2,11,6,-5,-5,-2,-1
1523210920312730,-2,-5,-31,-11,-11,-8,-4,-3
1523210920312730,0,-1,-10,3,3,0,1,0
1523210920333786,-1,0,23,3,3,1,-3,-2
1523210920333786,0,1,-5,2,-4,-4,0,1
1523210920335791,0,-3,7,-7,-4,-6,-2,-1
1523210920335791,-3,-5,-16,9,2,-3,0,-3
1523210920347824,2,6,27,29,10,8,2,2
1523210920347824,0,-3,-11,-60,-9,-2,-3,-4
1523210920355077,-2,-3,-6,-2,-7,-1,-2,-3
1523210920355077,-2,-4,-34,20,-3,-5,0,-1
1523210920371120,-1,-1,-14,7,-10,-4,-1,-1
1523210920371120,1,6,67,20,0,-6,-3,-2
1523210920372889,-2,-8,-56,-11,12,11,4,1
1523210920372889,0,2,10,1,8,3,-2,0
1523210920392943,-2,-3,-23,-13,-5,-3,-1,-2
1523210920392943,-2,1,4,6,-16,-7,-3,-3
1523210920394948,-2,0,21,10,9,2,-1,0
1523210920394948,1,0,-19,-11,2,4,2,2
1523210920407990,-4,-5,22,-13,-5,-2,-2,-1
1523210920407990,-1,-3,-14,-3,2,0,-1,-1
1523210920415001,-1,1,-1,-16,-7,-7,-5,-3
1523210920415001,-3,-3,-1,5,-2,-3,-1,-2
1523210920431045,0,2,2,-19,2,2,-2,-1
1523210920431045,-1,-2,32,-1,6,1,1,1
1523210920432047,0,0,8,10,-11,-1,1,0
1523210920432047,0,2,5,-9,2,2,0,0
1523210920454104,-3,-4,-11,-4,-9,-7,-2,-3
1523210920454104,-1,-2,-9,15,7,-1,-1,-1
1523210920455107,-1,1,-6,-33,-7,-4,-3,-1
1523210920455107,-1,1,15,24,-4,-3,-3,-2
1523210920468143,-2,-4,-11,-36,1,2,-2,-3
1523210920468143,2,1,-7,10,6,7,4,2
1523210920475163,1,2,23,17,-1,-4,-2,-1
1523210920475163,-2,-8,-66,-38,-13,-5,-4,-3
1523210920491215,1,1,10,9,0,-2,-2,-1
1523210920491215,1,1,22,12,13,4,3,0
1523210920492206,0,-1,-4,8,-1,9,3,1
1523210920492206,-3,-1,2,-5,2,-1,-2,-2
1523210920513263,-1,0,3,-5,0,-4,-2,-3
1523210920513263,-3,-9,-51,-23,-25,-12,-5,-3
1523210920515268,1,3,32,11,3,-4,-1,0
1523210920515268,1,1,43,4,5,-2,-1,-1
1523210920527303,-2,2,0,4,-9,-2,0,0
1523210920527303,0,-3,-32,9,5,3,1,-1
1523210920534318,-1,0,-8,-20,1,3,2,0
1523210920534318,-1,-3,15,1,-7,-5,-3,-2
1523210920551545,1,2,-16,17,-4,-3,-2,0
1523210920551545,-3,-5,7,-9,8,-1,-3,-1
1523210920552366,-1,0,15,6,-3,-4,-2,0
1523210920552366,-1,1,-18,11,2,5,0,1
1523210920573425,1,-2,-10,-10,7,7,3,2
1523210920573425,1,4,8,6,5,5,0,0
1523210920575428,-4,-2,-20,-2,-6,-6,-5,-3
1523210920575428,-6,-17,-16,-4,-11,-10,-5,-5
1523210920587670,2,2,-22,-9,-6,-4,0,-1
1523210920587670,-8,-13,-13,-9,-15,-11,-4,-3
1523210920596483,1,-1,-20,-2,-1,1,0,0
1523210920596483,4,7,39,27,23,11,6,3
1523210920610520,-3,-5,-63,-51,-4,0,0,0
1523210920610520,1,5,1,1,-3,0,-1,-1
1523210920612526,-4,-13,-13,13,-1,-6,-5,-4
1523210920612526,1,3,-2,-13,-8,-5,-4,0
1523210920633583,-2,-4,37,10,0,-2,-2,0
1523210920633583,1,-6,16,11,1,1,0,0
1523210920635672,0,1,-2,-13,6,3,1,0
1523210920635672,2,3,7,8,7,5,2,1
1523210920646617,-3,-2,6,12,0,-4,-3,-2
1523210920646617,-3,1,-7,-14,-10,-2,0,-3
1523210920655886,1,3,-9,-1,-1,5,2,0
1523210920655886,-2,-10,-37,-11,-2,-2,-1,-2
1523210920671682,0,4,30,15,-1,2,1,0
1523210920671682,0,0,19,13,-1,-3,-3,-2
1523210920672686,0,1,24,-10,10,7,1,0
1523210920672686,-2,11,29,6,-4,-3,-1,1
1523210920693745,-4,-16,-2,-23,-11,-6,-4,-3
1523210920693745,-1,2,-2,9,2,-5,-4,-2
1523210920694744,1,-2,-8,0,-9,-7,-3,-3
1523210920694744,0,1,-1,-3,2,5,0,0
1523210920706783,4,9,24,23,21,5,2,0
1523210920706783,-2,-6,-1,8,-6,-1,-2,-1
1523210920715801,-3,-1,-31,-24,-8,-4,1,1
1523210920715801,-1,-3,5,-10,-13,-8,-5,-3
1523210920731078,0,1,-8,10,1,-2,-3,-1
1523210920731078,1,1,-19,-11,8,2,2,-1
1523210920732846,1,-2,18,8,3,0,1,1
1523210920732846,-2,-4,-32,-14,-3,-3,-1,-2
1523210920754045,1,3,-10,18,4,1,-1,1
1523210920754045,-1,1,33,-3,-1,2,-1,0
1523210920754904,-4,-4,-13,-20,3,-5,-3,-3
1523210920754904,0,-2,17,12,-7,-3,-1,0
1523210920766936,2,3,5,15,6,4,1,-2
1523210920766936,-4,-6,-15,-28,-8,-4,-4,-3
1523210920775962,2,4,20,23,-2,0,-1,0
1523210920775962,1,2,7,-33,1,1,0,1
1523210920791009,-2,-3,11,8,0,-3,-1,-1
1523210920791009,0,1,-16,9,-6,-6,-2,-2
1523210920793007,-1,-2,-23,-1,-4,-6,-2,-1
1523210920793007,1,-3,-34,-24,15,14,4,1
1523210920813060,-1,-1,10,0,5,1,1,-1
1523210920813060,0,1,-3,-7,-11,-2,-1,-2
1523210920815066,-3,-3,11,1,-2,-4,-4,-4
1523210920815066,0,3,-4,18,6,-2,2,0
1523210920827098,-4,-5,16,-9,-9,-7,-4,-3
1523210920827098,-2,2,60,-7,-5,-1,0,-2
1523210920836120,0,-3,-85,-7,9,4,1,-1
1523210920836120,-1,-1,24,4,0,-2,0,-2
1523210920851396,-2,-3,-13,-9,-7,-5,-3,-1
1523210920851396,0,2,23,8,-6,-7,-1,-1
1523210920853205,0,-1,23,8,6,6,1,1
1523210920853205,0,0,8,14,3,5,4,0
1523210920873221,-1,-1,-14,-18,-6,0,-1,1
1523210920873221,-1,3,-31,-13,6,3,-2,-1
1523210920875225,-2,-3,14,1,-10,-8,-2,-4
1523210920875225,-4,-4,6,4,-10,-9,-7,-3
1523210920887491,-1,0,8,2,-4,1,2,0
1523210920887491,2,-1,-19,13,26,12,5,4
1523210920896282,-1,1,-2,-1,-15,-7,-4,-1
1523210920896282,-5,-8,-25,-40,-5,-7,-4,-2
1523210920911319,1,0,-2,11,1,0,2,-1
1523210920911319,0,-1,3,18,8,4,3,2
1523210920912322,-2,-1,-17,-21,-10,-5,-4,-2
1523210920912322,1,0,21,11,-9,-8,-3,-1
1523210920933614,-2,-3,-17,-5,1,0,0,-1
1523210920933614,1,1,5,22,6,3,2,1
1523210920935612,-1,-2,21,-20,4,6,1,0
1523210920935612,-3,-7,-33,2,-13,-10,-4,-4
1523210920947417,0,1,4,-5,-2,-2,-2,-1
1523210920947417,-2,-3,0,-18,-3,1,0,-1
1523210920956447,-1,-1,1,3,1,2,-3,0
1523210920956447,1,0,10,-1,1,2,-2,-1
1523210920971518,2,1,14,16,-3,-3,-2,-1
1523210920971518,-4,-7,-9,-20,-8,-12,-6,-6
1523210920972483,-1,0,-10,1,-1,-1,-1,0
1523210920972483,0,0,29,5,10,8,2,0
1523210920993539,0,3,5,8,-5,-3,-1,-2
1523210920993539,1,1,-6,13,0,-2,0,1
1523210920994542,-1,-2,-7,-9,3,1,-1,-1
1523210920994542,0,3,16,4,-4,-2,0,0
1523210921015597,-2,-4,8,-2,-4,-3,-4,-3
1523210921015597,0,-4,-25,-18,-7,-1,-3,-1
1523210921017603,-1,2,26,20,8,1,-1,-1
1523210921017603,1,1,-10,4,-7,-1,0,0
1523210921031669,-2,-7,-9,-16,10,3,2,-2
1523210921031669,-1,3,-29,-2,3,0,-3,-1
1523210921032647,1,3,26,21,-5,-2,1,1
1523210921032647,-1,-2,-13,-31,-2,1,0,0
1523210921060717,-1,-3,-40,-20,-6,-1,0,1
1523210921060717,0,-2,35,10,-5,-3,-2,-2
1523210921062722,2,1,-8,1,2,1,1,-2
1523210921062722,-2,0,7,12,0,-6,-3,-1
1523210921075759,-1,3,-4,4,-3,-3,-4,-1
1523210921075759,-3,-10,-26,-7,0,-5,-2,-1
1523210921077763,1,8,55,11,4,6,4,-1
1523210921077763,-3,-10,-9,-27,-3,-1,2,-2
1523210921090800,-1,0,44,14,-2,-4,-4,-3
1523210921090800,-2,-3,-49,-29,-8,-7,-5,-2
1523210921092802,-2,-1,90,10,-7,-4,-4,-3
1523210921092802,0,3,-16,16,16,3,1,0
1523210921113859,-1,-6,-17,-8,5,2,1,1
1523210921113859,0,4,43,11,0,3,1,0
1523210921114861,-4,-7,-49,-13,-3,-4,-3,-1
1523210921114861,-2,2,-16,-3,-12,-7,-4,-3
1523210921136157,-5,-4,42,7,-2,-1,-1,0
1523210921136157,0,2,-2,6,-2,1,2,-1
1523210921137922,0,4,-18,-17,-2,-1,-1,0
1523210921137922,-2,-7,4,10,0,-2,-4,-2
1523210921151193,1,-1,-22,-2,3,0,1,-1
1523210921151193,-1,-1,12,5,1,1,0,-1
1523210921153140,0,-3,-31,-21,-8,-5,-2,-2
1523210921153140,5,-1,-10,3,-4,-5,-3,0
1523210921173015,-5,9,-14,-11,-4,2,2,1
1523210921173015,-22,-35,-4,-4,5,4,-1,-6
1523210921175022,1,2,-14,7,4,1,0,0
1523210921175022,3,7,39,5,-3,-2,0,-3
1523210921196077,8,6,-18,-3,-2,-2,-2,2
1523210921196077,2,8,-4,0,-2,0,0,0
1523210921197117,-1,-1,11,10,0,0,0,0
1523210921197117,-5,-6,-52,-32,-5,-3,-5,-3
1523210921210114,-3,-2,20,3,-5,-3,-1,-2
1523210921210114,1,5,-30,1,-1,-3,-2,-2
1523210921217134,-3,-7,-4,-13,3,-2,-2,-1
1523210921217134,1,8,33,10,-2,1,0,1
1523210921233178,-4,-10,-62,-7,4,4,0,-1
1523210921233178,2,2,-4,0,0,-1,-3,0
1523210921235180,1,-3,6,5,-10,-3,-1,-2
1523210921235180,-5,-4,-6,12,13,8,3,0
1523210921256239,-2,-4,27,-7,-4,-1,-2,-2
1523210921256239,3,2,16,3,-2,-4,-2,-2
1523210921257245,0,1,8,14,-1,-3,-2,0
1523210921257245,-3,-5,-17,-11,-11,-5,-2,-2
1523210921270497,-3,-8,-44,2,-1,-2,-3,-4
1523210921270497,3,7,22,1,-1,-5,-2,1
1523210921277293,-3,0,-23,-20,-7,-4,-1,-1
1523210921277293,-1,-1,17,7,2,3,1,1
1523210921293372,3,2,-4,2,9,7,0,0
1523210921293372,1,3,-1,3,0,0,0,1
1523210921295341,-4,-11,-6,-1,-4,-2,-2,-2
1523210921295341,0,2,-9,2,3,2,0,1
1523210921315396,-2,-2,11,-6,-7,-5,-3,-1
1523210921315396,-1,0,-3,2,-6,-2,-1,1
1523210921317400,-2,-1,36,-5,-3,-4,-1,-2
1523210921317400,0,-3,26,17,13,2,0,-1
1523210921330657,-1,6,21,-5,2,2,1,1
1523210921330657,0,1,23,23,2,1,1,-1
1523210921337680,-1,-2,-20,-12,-4,-2,-2,-1
1523210921337680,-2,0,3,0,-8,-5,-3,-1
1523210921353719,1,2,15,8,3,-5,-2,0
1523210921353719,0,-2,9,0,0,-4,-1,-2
1523210921355503,0,4,-2,-2,-2,1,0,2
1523210921355503,-2,-4,-21,3,1,0,-1,-3
1523210921375555,0,0,-9,0,8,3,2,1
1523210921375555,1,-3,-17,-4,-6,3,0,0
1523210921377560,-1,-1,-10,-18,0,-1,-1,-1
1523210921377560,2,4,57,28,-2,-3,-1,0
1523210921390601,-4,-10,-83,-55,-26,-11,-4,-4
1523210921390601,-1,-1,44,5,4,-1,-2,-1
1523210921396646,1,2,0,19,5,4,2,0
1523210921396646,-1,3,13,15,13,6,0,1
1523210921413655,-2,2,7,3,-2,-2,-3,-3
1523210921413655,0,4,1,-10,-8,-2,0,-1
1523210921414659,-4,-12,-49,-6,-5,-6,-4,-3
1523210921414659,-1,-2,-12,-14,-12,-6,-4,-3
1523210921435936,0,1,27,13,5,1,0,-2
1523210921435936,-1,3,0,-9,5,4,3,2
1523210921437719,1,3,12,9,6,6,2,0
1523210921437719,-2,-1,-20,-15,-9,-5,-1,-2
1523210921449752,-1,1,29,18,6,2,0,-2
1523210921449752,-1,-3,18,0,-8,-7,-3,-4
1523210921456775,-1,-3,2,5,-9,-1,-1,-1
1523210921456775,1,3,14,-6,17,4,-1,2
1523210921473821,-3,-8,-17,-7,-8,-4,-2,-1
1523210921473821,0,2,-6,1,5,3,0,0
1523210921474822,-1,2,9,5,-2,-1,-1,-1
1523210921474822,1,3,-1,-6,-6,-1,0,-2
1523210921495910,-4,-10,37,11,6,0,-2,-2
1523210921495910,-3,-5,-32,-9,-2,1,-1,-2
1523210921497879,0,0,-14,-31,-1,-1,0,1
1523210921497879,-3,-3,18,2,-12,-6,-3,-2
1523210921509912,3,6,5,7,1,-3,0,-2
1523210921509912,-1,-6,-8,-1,-2,-2,-2,-1
1523210921518937,0,1,19,19,5,-1,-1,-2
1523210921518937,0,0,2,-11,2,2,2,0
1523210921534011,-1,-5,-41,-6,-9,1,0,2
1523210921534011,-2,-3,0,-15,7,0,-4,-2
1523210921534977,0,8,3,7,-2,0,-2,-1
1523210921534977,-6,-19,-9,-18,-2,-3,-3,-3
1523210921556040,0,1,5,10,-9,-6,-3,-2
1523210921556040,1,5,35,6,-1,1,-1,1
1523210921558050,0,-4,-58,-20,7,2,3,1
1523210921558050,-2,-1,15,23,-4,0,-1,-2
1523210921570155,-1,0,-8,-43,-4,0,-2,0
1523210921570155,-1,-4,-16,-4,-1,2,1,2
1523210921578092,-2,-4,22,6,2,1,-1,-1
1523210921578092,-1,1,-20,10,-2,-2,-1,-1
1523210921593132,3,3,5,12,-2,-5,-3,-1
1523210921593132,-1,-1,43,-2,-2,-2,0,-3
1523210921595138,0,3,12,10,1,0,-1,0
1523210921595138,-2,-6,-101,-33,-6,0,-2,-2
1523210921616194,-5,-6,22,3,-1,-3,-3,-3
1523210921616194,1,2,-12,8,-6,-7,-3,0
1523210921617196,0,1,17,10,-3,2,0,0
1523210921617196,4,3,26,12,12,11,8,4
1523210921629265,1,1,-6,2,12,9,4,1
1523210921629265,-1,-6,-42,6,-2,-2,-3,-3
1523210921638416,-2,-5,5,-19,-11,-9,-4,-2
1523210921638416,-2,-1,27,-8,-11,-8,-3,-4
1523210921653514,-1,-5,-11,0,4,2,2,-1
1523210921653514,1,4,34,19,2,1,3,2
1523210921655298,-3,-6,8,9,0,-2,-2,-5
1523210921655298,-1,-2,-49,-40,12,8,1,1
1523210921675351,1,8,48,38,1,-2,0,1
1523210921675351,-8,-17,-49,-40,-13,-5,-6,-3
1523210921677357,-2,-1,-17,-10,-7,-9,-4,-3
1523210921677357,-2,-2,37,16,-8,-7,-4,-3
1523210921689386,1,0,-19,-5,6,3,2,0
1523210921689386,1,2,-4,-2,1,4,2,0
1523210921698413,2,-3,-26,4,20,5,2,1
1523210921698413,0,-3,-22,-3,-6,-6,-3,-3
1523210921712450,-3,5,19,-6,-14,-10,-6,-4
1523210921712450,-4,-9,-58,-1,-7,-4,0,-3
1523210921721718,-1,-2,17,-13,-2,0,1,-1
1523210921721718,2,2,12,10,9,7,5,0
1523210921736548,2,6,16,2,-4,0,1,0
1523210921736548,0,-1,-1,2,-2,-1,-1,-1
1523210921737514,-1,0,-18,5,1,-3,-3,0
1523210921737514,-1,-1,31,16,-5,-7,-5,-2
1523210921749554,-2,4,-21,-31,1,-1,0,0
1523210921749554,-5,-10,-28,-9,1,-3,-1,-3
1523210921758573,-3,-6,40,7,-9,-2,-2,-3
1523210921758573,0,0,-61,4,2,2,2,2
1523210921773620,-1,-6,-52,7,1,0,-2,-3
1523210921773620,1,6,11,-2,-4,-1,0,1
1523210921774614,0,-1,15,1,1,1,-1,-1
1523210921774614,-2,-4,-17,-11,-5,-2,0,-1
1523210921795671,-2,-1,45,19,1,4,-1,1
1523210921795671,1,0,-37,-27,-2,-2,-3,-1
1523210921797686,0,0,-8,3,4,1,2,1
1523210921797686,-1,1,21,2,-8,-4,-1,0
1523210921809707,-2,-1,-2,1,-3,-3,-3,-2
1523210921809707,0,1,7,22,3,0,1,-2
1523210921818734,1,1,-4,-5,-2,1,1,0
1523210921818734,0,-2,11,-6,3,1,-2,-3
1523210921833999,0,-3,19,-3,-9,-1,3,0
1523210921833999,0,3,9,9,13,4,-2,0
1523210921834773,0,0,-7,-5,-6,-1,-1,-1
1523210921834773,-1,-5,-46,1,-1,-2,-2,0
1523210921855833,-2,-3,4,2,-2,-3,-5,-3
1523210921855833,0,3,34,-1,-2,-5,-1,0
1523210921857835,-1,-2,-21,-5,2,0,0,0
1523210921857835,-1,2,26,0,-8,-2,-3,-2
1523210921870090,0,6,57,22,13,0,4,0
1523210921870090,-3,-13,-55,-34,-2,7,1,2
1523210921878891,0,3,21,15,-8,-4,-4,-1
1523210921878891,-1,-2,15,-22,-16,-4,-2,-3
1523210921892930,0,0,9,11,13,-3,-2,-1
1523210921892930,0,3,37,-9,-14,-8,0,-3
1523210921894933,0,-7,-22,21,5,1,2,0
1523210921894933,-2,0,30,-10,6,1,-2,-2
1523210921915990,1,-3,-55,-3,-4,0,0,0
1523210921915990,-2,1,1,0,2,-2,-2,-1
1523210921916993,-2,1,5,1,-8,-5,-4,-2
1523210921916993,-1,-1,3,12,4,0,0,-1
1523210921930028,-6,-6,2,5,-1,-3,-4,-1
1523210921930028,3,5,0,-3,-3,1,0,-1
1523210921939054,-1,0,-12,-5,5,3,4,0
1523210921939054,0,3,51,14,10,5,1,2
1523210921953310,-1,-5,-5,4,-9,-3,-3,-1
1523210921953310,-2,0,-36,-33,-14,-4,-5,-3
1523210921955097,-4,-6,-28,19,9,-3,-2,-2
1523210921955097,1,-1,-13,-23,2,0,0,1
1523210921976187,1,3,18,8,-5,-1,-1,0
1523210921976187,-5,-10,-16,-15,-6,-6,-2,-2
1523210921977151,1,0,-4,-12,-10,2,1,0
1523210921977151,-3,-1,-17,14,16,5,4,0
1523210921998431,-1,-2,-21,-3,0,0,1,0
1523210921998431,-1,-1,32,7,-6,-5,-3,-1
1523210922000214,0,-2,-5,-4,-3,-6,-1,-2
1523210922000214,-2,-1,7,6,-13,-7,-4,-5
1523210922013284,2,-3,-7,-11,3,5,6,3
1523210922013284,4,4,23,22,11,10,6,4
1523210922015254,-4,-3,36,-26,-10,0,-3,-3
1523210922015254,0,-2,-28,-27,-3,-2,-1,0
1523210922036526,-1,-2,-34,-23,-7,-6,-5,-4
1523210922036526,-1,-2,20,18,-6,-7,-5,-4
1523210922037312,-2,-1,17,9,-4,1,0,-1
1523210922037312,0,1,18,11,12,0,-1,-2
1523210922058368,-2,-2,-9,-16,-10,-2,-2,-1
1523210922058368,0,1,-3,9,-4,-4,-2,-3
1523210922060374,-1,0,16,1,9,2,1,0
1523210922060374,2,2,-6,6,9,8,5,4
1523210922072406,-1,-2,-20,-9,-5,-3,-3,-1
1523210922072406,-2,5,37,-2,-7,-3,-3,-2
1523210922079427,0,-3,-18,-6,-7,-5,-4,-2
1523210922079427,-2,-1,-8,-2,-3,-1,-1,-1
1523210922095466,-3,0,-36,5,0,-2,0,-2
1523210922095466,-1,-1,16,-1,7,3,1,1
1523210922097473,-1,-3,-22,-2,-1,-4,-3,-1
1523210922097473,-1,2,-4,-3,-9,-4,-2,-2
1523210922118756,-1,-4,36,-5,-5,-2,-3,-3
1523210922118756,0,-1,-17,31,5,1,1,1
1523210922120649,1,2,9,-15,11,6,2,1
1523210922120649,-1,-4,-2,-1,-8,-8,-4,-1
1523210922132788,-4,-3,-23,-3,-3,-3,2,-3
1523210922132788,0,1,6,10,0,0,0,1
1523210922139628,-1,1,-7,3,4,3,0,-1
1523210922139628,-1,-2,-10,-5,-7,-1,-1,0
1523210922155632,0,-2,-10,-18,3,0,-3,0
1523210922155632,-1,-6,7,2,6,4,0,-1
1523210922157634,-3,1,-15,-4,-5,-6,-2,0
1523210922157634,-1,-5,18,6,-12,-7,-2,-3
1523210922178690,1,1,11,0,4,5,1,-1
1523210922178690,-2,-3,-26,-7,1,-3,-2,-2
1523210922179771,1,-3,-9,-3,-6,-1,0,0
1523210922179771,-1,3,10,6,1,-1,-1,-1
1523210922192725,1,0,24,5,5,5,2,2
1523210922192725,0,-4,-20,-7,-1,2,0,-2
1523210922199744,-3,-2,-11,-22,-6,-4,-2,-3
1523210922199744,-1,3,-3,2,2,3,-1,-2
1523210922215786,-2,-3,0,-1,-10,-7,-4,-3
1523210922215786,1,2,24,-9,3,4,1,0
1523210922217792,-1,-2,-8,12,5,-3,-1,-2
1523210922217792,-1,-3,-1,-7,-2,-1,0,0
1523210922238855,-1,0,2,2,4,-1,-2,-1
1523210922238855,-1,-1,1,-10,-16,-9,-2,0
1523210922239854,3,2,20,16,5,1,0,1
1523210922239854,-3,-4,-10,1,-1,1,-1,-3
1523210922253120,-1,-1,33,3,13,10,4,2
1523210922253120,-1,-2,-27,-4,-2,0,-1,-2
1523210922259902,-1,2,-32,-1,-3,-7,-4,0
1523210922259902,-2,-7,20,37,-7,-7,-6,-1
1523210922275948,-2,-2,-4,-64,-14,-6,-3,-2
1523210922275948,-1,1,-58,18,6,4,4,-2
1523210922277951,0,-4,12,2,8,6,2,0
1523210922277951,0,2,-7,4,0,-3,0,0
1523210922299045,0,1,18,4,0,-2,-1,-3
1523210922299045,-1,-8,-25,-10,1,-2,-2,0
1523210922300011,-1,3,14,-2,-13,-8,-4,-2
1523210922300011,0,-1,-18,-17,-1,0,1,-3
1523210922313083,1,-1,-2,15,6,2,1,1
1523210922313083,3,4,30,15,8,3,0,1
1523210922320170,0,-1,9,6,-6,-6,-4,-3
1523210922320170,-6,-12,-30,-41,-7,-1,0,-1
1523210922336342,0,-1,-15,16,6,5,1,1
1523210922336342,-1,1,7,10,0,-2,-3,-2
1523210922337108,-2,-4,42,-15,-9,-6,-4,-3
1523210922337108,0,4,2,4,-6,-5,-3,-1
1523210922358165,-1,1,-9,4,-8,-2,0,-1
1523210922358165,-2,-6,4,2,9,2,0,1
1523210922360170,-1,2,4,-4,-2,3,0,0
1523210922360170,0,4,61,-6,4,2,1,-2
1523210922373208,-3,-7,-89,2,-6,-5,-2,-2
1523210922373208,-2,1,42,-7,-11,-6,-3,0
1523210922380240,-1,-3,-21,-3,7,2,1,-2
1523210922380240,-1,-1,30,9,3,0,-1,0
1523210922396304,1,1,-1,9,3,1,-1,-1
1523210922396304,-3,-4,-1,-29,-11,-6,-5,-4
1523210922397269,-2,0,-13,4,-10,-6,1,0
1523210922397269,-1,-3,-27,9,14,14,3,0
1523210922418560,1,9,25,5,13,0,-1,0
1523210922418560,-6,-6,-21,-2,-8,-4,-3,-3
1523210922420329,-2,2,8,-8,-5,-3,-2,0
1523210922420329,0,-1,-19,-5,-13,-12,-4,-3
1523210922433388,0,0,22,-1,-8,1,-1,0
1523210922433388,2,5,-32,4,24,13,5,2
1523210922439424,-3,-3,37,5,-3,-3,-3,-2
1523210922439424,0,3,-18,2,-7,-8,-5,-3
1523210922456452,-4,-8,-20,2,-3,-2,-1,-2
1523210922456452,1,2,2,-37,-5,0,2,1
1523210922457428,1,-1,2,11,6,4,1,0
1523210922457428,0,-1,-17,0,-13,-12,-3,-3
1523210922478484,1,-1,53,-2,12,2,-1,0
1523210922478484,2,3,11,20,1,-2,-3,-1
1523210922479487,-2,-5,-48,-9,-4,3,1,-1
1523210922479487,-3,-3,8,-11,1,6,-4,-1
1523210922492521,0,0,-11,9,0,-1,0,0
1523210922492521,-1,-4,-2,-12,-4,-6,-1,-2
1523210922500779,2,0,-2,6,0,-1,-2,0
1523210922500779,1,2,-9,-21,-1,-1,-1,-1
1523210922515589,-2,-2,-8,0,-2,-1,-1,1
1523210922515589,2,8,99,23,1,-1,0,-1
1523210922517590,-3,-7,-86,-22,-10,-2,-1,-1
1523210922517590,-3,-5,-7,6,2,0,0,0
1523210922538646,-2,0,-6,-2,0,-2,-1,-2
1523210922538646,1,1,-9,0,-5,-3,-1,0
1523210922539650,0,2,33,18,3,2,0,0
1523210922539650,0,2,1,-12,-1,-1,1,-2
1523210922552689,-1,-5,-27,-29,-11,-7,-3,-3
1523210922552689,-3,-5,-8,24,8,2,-1,-1
1523210922560704,0,1,15,-7,2,4,1,0
1523210922560704,-2,-4,-45,-4,7,1,-1,0
1523210922575781,0,-1,13,6,-6,-2,-1,-1
1523210922575781,-1,-1,-11,-6,-7,4,-1,-2
1523210922577748,2,2,10,14,26,11,3,2
1523210922577748,0,2,0,4,-8,-1,-1,2
1523210922598804,-3,-5,19,-8,-14,-9,-7,-2
1523210922598804,-1,1,-7,3,-4,-5,-2,-2
1523210922599808,-4,-7,-19,-26,-14,-11,-3,-3
1523210922599808,1,0,30,17,4,2,1,1
1523210922611838,0,3,2,11,6,5,5,1
1523210922611838,0,-3,-20,9,6,10,5,2
1523210922620905,0,3,38,16,6,3,-2,0
1523210922620905,-2,-4,-14,-31,-12,-8,-6,-3
1523210922635902,-3,1,12,4,-11,-7,-6,-5
1523210922635902,-1,-1,3,-14,-5,-6,-1,1
1523210922637908,1,0,-14,1,5,0,-2,-2
1523210922637908,-2,-1,23,16,4,5,3,0
1523210922657964,0,0,-5,-5,4,3,1,-1
1523210922657964,-1,-4,-22,-11,-10,-10,-4,-4
1523210922659966,-2,-3,-7,-5,-7,-5,-2,-1
1523210922659966,0,1,11,9,1,-4,-1,0
1523210922671999,-1,-3,-1,-8,-4,-8,-4,-1
1523210922671999,-2,-1,15,13,0,3,2,1
1523210922681021,0,3,41,8,7,2,2,0
1523210922681021,-2,-5,-39,-35,0,4,2,-1
1523210922696062,2,5,13,2,8,4,0,2
1523210922696062,-2,-7,-9,1,-9,-5,-3,-2
1523210922697066,-2,1,-4,6,-11,-13,-4,-4
1523210922697066,0,1,1,11,-5,-4,0,1
1523210922718359,-2,-9,8,-1,3,3,1,-3
1523210922718359,0,8,67,2,13,8,2,1
1523210922720126,-1,-4,-35,-7,4,5,2,0
1523210922720126,-1,0,-5,0,-3,-4,-4,-3
1523210922732393,-3,-3,8,16,-9,-7,-4,-4
1523210922732393,-1,1,-11,-47,-6,-4,-4,0
1523210922741183,-3,-6,1,12,-4,-2,-3,-2
1523210922741183,-3,-3,-3,-7,-4,-4,-3,-3
1523210922756272,-1,-2,-11,3,5,0,2,1
1523210922756272,-2,-5,-32,0,7,5,1,0
1523210922757225,1,3,19,7,2,7,1,2
1523210922757225,2,2,7,7,2,-5,-3,0
1523210922778321,-1,-4,-14,-8,-10,-3,-2,0
1523210922778321,-1,-2,-12,-1,-15,-10,-6,-4
1523210922780285,0,-2,-16,-9,3,4,1,-1
1523210922780285,0,0,-12,-10,9,9,1,-2
1523210922792318,0,-1,-19,-4,-3,-2,-1,1
1523210922792318,1,1,-20,15,0,-2,-1,1
1523210922801343,0,-1,10,-20,-3,-2,-1,0
1523210922801343,-3,-5,9,13,-3,0,0,0
1523210922815379,2,4,45,7,-1,-1,-1,-2
1523210922815379,-3,-5,-94,-20,-7,-6,-5,-1
1523210922817385,-2,-1,-10,-1,-6,-5,-1,-4
1523210922817385,0,1,21,17,7,11,7,3
1523210922838442,-1,3,-9,-8,12,4,2,1
1523210922838442,1,-1,42,22,-5,-1,-2,-2
1523210922840451,-3,-2,-7,-6,-2,-5,-3,-3
1523210922840451,0,-1,-11,5,-8,-3,-1,0
1523210922852640,-2,-4,25,-4,-8,-6,-3,0
1523210922852640,0,6,10,5,0,-5,0,-2
1523210922861502,-1,-3,-24,7,-2,1,3,0
1523210922861502,2,1,5,-18,12,7,0,2
1523210922875578,-3,-3,-4,0,-4,-1,-1,-2
1523210922875578,0,-4,-20,-7,-2,-4,-2,-1
1523210922877545,-1,1,-17,-1,-7,-6,-4,-1
1523210922877545,-2,-3,9,9,-4,-7,-2,-3
1523210922898608,-1,0,-8,-3,4,1,-1,-1
1523210922898608,0,-2,7,-11,3,3,1,1
1523210922899604,2,1,4,9,2,4,2,1
1523210922899604,-2,-8,26,-5,-5,0,-1,-3
1523210922920772,-1,-2,-13,3,2,1,-1,-1
1523210922920772,-2,0,4,8,-1,-3,-1,-2
1523210922922668,0,1,19,2,-9,-6,-4,0
1523210922922668,-1,-3,14,-14,-2,-3,-2,-1
1523210922935935,3,1,-57,18,6,8,3,1
1523210922935935,-2,-2,-8,-15,2,2,-1,-1
1523210922937704,-2,0,21,-5,-2,-4,-3,0
1523210922937704,-2,-2,-42,4,-3,-2,-3,-3
1523210922958760,-3,4,19,7,-3,0,0,1
1523210922958760,2,-2,15,7,2,2,1,0
1523210922959763,1,0,-7,-3,0,-1,-2,-3
1523210922959763,1,4,-13,5,1,-2,0,-1
1523210922981054,-3,-6,56,-6,-2,-2,-2,-2
1523210922981054,-3,-2,-11,-9,-4,-4,-4,-3
1523210922982824,-1,-3,-7,-11,-12,1,0,0
1523210922982824,-1,1,16,21,26,9,4,3
1523210922995859,2,0,4,-6,-4,1,-2,1
1523210922995859,-3,-3,21,-22,-14,-8,-4,-2
1523210922997867,0,-3,-4,19,4,-4,-3,-3
1523210922997867,0,1,5,-22,-11,-5,-1,-2
1523210923019039,-2,-5,-59,-4,-4,-4,-2,-3
1523210923019039,-1,-1,24,8,3,0,0,0
1523210923019923,-2,0,-13,2,2,5,2,2
1523210923019923,1,0,-13,-10,-2,-3,-1,-2
1523210923040982,-1,-2,10,-4,0,-1,-2,-1
1523210923040982,1,0,-15,0,0,2,0,0
1523210923042984,-1,-3,-12,-3,-5,-4,-1,-2
1523210923042984,-1,2,34,9,-9,-8,-5,-1
1523210923055019,-4,-6,-33,-28,-2,-2,-4,-3
1523210923055019,3,2,-25,29,9,4,3,2
1523210923062036,-2,1,-20,-16,2,3,-2,0
1523210923062036,1,0,21,9,-2,1,1,1
1523210923078080,1,1,23,3,-6,-3,-1,-1
1523210923078080,-2,0,-6,14,-1,1,0,0
1523210923080082,-2,-4,-24,-22,-4,-2,-2,0
1523210923080082,-2,-2,-15,-4,3,-5,-5,-2
1523210923101379,1,3,25,2,-5,0,0,-2
1523210923101379,0,-1,-12,-3,-1,0,-2,-1
1523210923103183,0,2,42,16,4,2,0,0
1523210923103183,-4,-8,-71,-55,-7,-5,-3,-3
1523210923115176,-1,0,13,21,2,1,-1,1
1523210923115176,-1,1,33,1,6,1,-1,0
1523210923122197,-2,-4,2,-1,-5,-6,-2,-3
1523210923122197,0,2,18,11,-14,-7,-3,0
1523210923138243,-4,-5,-26,-13,-1,-1,1,0
1523210923138243,0,-1,-1,3,15,9,4,2
1523210923140242,1,6,39,6,9,11,3,2
1523210923140242,-3,-6,-27,2,-5,-1,-2,-1
1523210923161300,0,-3,15,-7,-18,-13,-6,-5
1523210923161300,-1,-2,18,-6,-13,-7,-5,-4
1523210923162302,0,-2,-13,22,14,6,2,1
1523210923162302,2,3,10,4,4,1,1,1
1523210923175337,-2,0,13,-23,-5,-1,-3,-1
1523210923175337,-3,-6,-37,-8,-3,-5,-1,-2
1523210923183400,-1,0,20,-6,-3,-5,-2,-3
1523210923183400,-1,-1,-5,21,8,8,2,0
1523210923197397,-1,-3,-4,0,-7,0,-1,-2
1523210923197397,-2,-3,7,-9,16,5,0,0
1523210923198397,0,-3,22,-2,-8,-5,-2,-1
1523210923198397,0,-1,-15,-11,-8,-4,-3,-3
1523210923220525,2,4,-34,15,7,2,3,3
1523210923220525,-2,-4,2,-14,-12,-3,-4,-3
1523210923221467,-3,-6,-11,-14,-1,-3,0,-2
1523210923221467,-1,-2,9,5,-2,1,-1,-2
1523210923234729,0,-1,-5,21,7,-1,-2,1
1523210923234729,-3,-6,-53,-54,-15,-7,-2,-2
1523210923242514,0,1,-4,-6,0,-2,-3,1
1523210923242514,-1,-3,1,4,-7,-3,-2,-2
1523210923257555,1,0,-31,12,4,3,1,0
1523210923257555,-1,2,-20,11,1,-1,-2,0
1523210923258556,-1,-2,-15,0,-5,-5,-3,-1
1523210923258556,0,-1,-1,-19,-3,-1,-2,1
1523210923280788,0,2,80,1,6,3,1,-1
1523210923280788,2,3,6,19,4,3,3,0
1523210923280788,1,3,-13,-14,-10,-5,-4,-2
1523210923280788,-3,-4,1,11,0,1,0,-2
1523210923294695,0,0,9,-3,2,-5,-4,-1
1523210923294695,-3,-3,-8,7,-4,-1,-1,-2
1523210923302910,3,4,7,-25,6,10,3,1
1523210923302910,-2,-2,25,22,4,1,0,-2
1523210923317949,-2,-3,-41,-19,-11,-5,-3,-2
1523210923317949,1,2,31,11,-2,-5,-3,-1
1523210923318717,-3,-4,-1,-3,-11,-7,-5,-4
1523210923318717,-1,-1,-40,-1,8,-1,-1,0
1523210923339783,-1,-1,-7,-10,0,5,3,-1
1523210923339783,3,4,48,31,10,7,5,3
1523210923340776,-6,-10,-47,-24,-8,-3,-4,-3
1523210923340776,2,3,-2,4,-5,-2,-2,0
1523210923363837,-2,-3,-38,-14,-5,-9,-3,-2
1523210923363837,-1,0,23,17,0,-4,-3,-3
1523210923363837,1,0,18,14,3,5,5,3
1523210923363837,1,0,10,-8,1,-2,-1,-3
1523210923377875,-1,-1,-9,4,4,4,1,-3
1523210923377875,0,0,0,-14,-5,1,0,2
1523210923378877,0,0,-22,5,7,-1,-3,0
1523210923378877,-1,-1,7,-2,-9,-4,0,-2
1523210923399973,0,0,10,1,-4,1,-2,1
1523210923399973,-2,-4,-33,-9,6,4,0,-1
1523210923400935,-2,-1,-10,-16,-4,-5,0,0
1523210923400935,1,1,10,19,-1,-2,-1,0
1523210923414974,-5,-9,-41,1,-1,-4,-3,-5
1523210923414974,-2,-1,-3,-35,-4,1,0,0
1523210923423043,-1,-4,-47,14,-3,-3,-2,-3
1523210923423043,-2,-2,10,-1,2,-3,-1,-2
1523210923438038,0,3,27,3,-2,0,-1,-1
1523210923438038,0,1,4,1,-4,-4,-1,-2
1523210923439044,-2,-2,21,3,3,0,-2,-3
1523210923439044,-1,-3,16,8,-5,-2,-2,-2
1523210923460092,0,-1,-24,-22,4,-1,-1,0
1523210923460092,0,0,3,16,2,1,-1,0
1523210923461094,-2,-3,-3,-11,1,4,2,0
1523210923461094,0,2,-20,-1,7,4,0,1
1523210923474131,-1,-2,12,9,-6,-4,-3,2
1523210923474131,-3,-4,-7,-10,-12,-9,-5,-5
1523210923483389,-3,0,32,1,-2,-6,-2,-1
1523210923483389,-2,-1,-18,2,7,4,1,1
1523210923497190,-1,2,9,-1,-4,1,0,1
1523210923497190,-1,-2,-15,0,6,1,-2,-1
1523210923498194,0,1,25,12,0,0,-1,0
1523210923498194,-1,-3,-13,-16,-7,-4,-2,-2
1523210923520301,0,1,14,3,-6,-3,-2,-2
1523210923520301,-1,-3,-3,1,4,-4,-2,-2
1523210923521260,0,4,3,0,4,0,0,2
1523210923521260,0,-1,12,0,-2,-1,0,0
1523210923534530,-1,3,2,0,-2,3,3,0
1523210923534530,0,0,15,17,-4,0,-3,-2
1523210923542310,0,-3,0,1,0,-2,-3,-1
1523210923542310,1,2,-6,-9,3,2,-2,1
1523210923557352,-1,0,25,11,4,2,-1,0
1523210923557352,-1,1,-2,-8,-5,-3,-2,-1
1523210923558353,-3,-1,12,7,-5,-5,-1,-3
1523210923558353,-3,-3,0,-3,-3,-3,-2,-3
1523210923580647,1,1,-8,1,7,3,2,2
1523210923580647,-1,6,22,13,0,1,0,-1
1523210923581416,2,-1,27,9,-4,-1,0,0
1523210923581416,-5,-9,-36,-52,-13,-10,-5,-3
1523210923594488,-2,-2,-6,13,12,6,1,0
1523210923594488,1,-1,11,11,-1,1,2,2
1523210923602706,0,3,-4,6,-5,-2,-3,1
1523210923602706,1,1,15,-3,2,-5,-1,-2
1523210923617747,-3,-8,-12,-11,-8,-4,-3,-3
1523210923617747,-1,-4,11,-1,2,-1,-2,-1
1523210923618513,-2,0,-9,-8,0,1,-1,-2
1523210923618513,1,3,13,10,0,0,-2,1
1523210923640573,-2,-2,7,-12,-11,-7,-2,-2
1523210923640573,-2,-2,-3,-9,-4,-3,-1,-1
1523210923640573,-1,2,2,5,3,1,1,0
1523210923640573,-3,-3,-1,1,-4,-1,-1,-4
1523210923654632,0,2,-21,-9,8,4,3,1
1523210923654632,0,2,5,15,6,5,2,1
1523210923662632,-1,-7,-20,-35,-9,-5,-3,-3
1523210923662632,0,-1,12,10,-9,-10,-3,-2
1523210923677672,0,1,6,4,-1,-3,-3,-3
1523210923677672,2,0,-13,-1,8,6,3,2
1523210923678673,-1,0,-27,-6,-4,2,0,0
1523210923678673,0,3,-2,5,-1,2,0,0
1523210923700839,-3,-8,15,-22,1,-4,-2,-2
1523210923700839,-1,-2,-13,-15,-9,-4,-2,-1
1523210923700839,0,-1,10,10,4,0,0,0
1523210923700839,-2,-4,62,3,-6,-2,-2,1
1523210923714769,1,3,45,20,0,-3,-2,1
1523210923714769,-3,-7,-94,-16,-5,-2,-3,-1
1523210923722836,-1,1,39,-3,0,-3,-3,-1
1523210923722836,-3,-3,-5,4,-4,-3,-3,-3
1523210923737833,1,2,-1,3,8,5,2,1
1523210923737833,-2,0,35,17,6,8,3,2
1523210923738839,-3,-5,-71,-28,-10,-5,-5,-3
1523210923738839,-1,-1,-14,2,0,-3,0,-1
1523210923759889,-2,-1,0,-6,-7,-1,-2,-1
1523210923759889,-1,2,6,-4,-3,-3,-3,-3
1523210923760891,-2,-2,-9,8,3,3,1,0
1523210923760891,0,3,22,19,0,-1,-3,-1
1523210923774929,-1,-15,-12,-12,-10,-4,0,0
1523210923774929,-2,-1,-13,-12,2,-5,0,-3
1523210923783185,-1,-1,0,2,0,2,0,-1
1523210923783185,-1,2,4,2,12,7,0,0
1523210923797991,-1,3,10,15,-5,-3,-2,-2
1523210923797991,-2,-1,0,-4,-7,-4,-3,-2
1523210923798995,0,-6,3,-4,-3,-1,1,-2
1523210923798995,2,-2,-17,2,13,6,2,3
1523210923820072,-1,0,-20,-3,-9,-2,-3,0
1523210923820072,-2,-4,19,-7,0,-3,-2,-3
1523210923821056,0,2,2,10,4,-1,-1,0
1523210923821056,1,-1,6,-2,-4,-1,3,1
1523210923843110,-1,0,-10,-2,-4,-6,-3,-3
1523210923843110,0,-3,-2,-13,-13,-6,-3,-1
1523210923844113,2,2,3,20,9,3,1,1
1523210923844113,-1,-2,-44,-11,-2,-1,-2,-1
1523210923857149,-1,2,15,-2,-4,-3,-1,0
1523210923857149,-3,-5,2,9,-6,-2,0,-1
1523210923858151,-1,2,12,19,17,3,-1,0
1523210923858151,1,3,2,2,1,3,4,0
1523210923880444,-4,-6,-24,-17,-6,-5,-5,-4
1523210923880444,-1,-1,4,-4,-4,-2,-4,-1
1523210923881211,-1,0,15,1,-8,-1,-1,0
1523210923881211,-1,0,5,3,-6,-3,-2,0
1523210923903313,0,2,10,8,6,0,0,0
1523210923903313,2,1,1,-14,5,1,0,0
1523210923904278,0,-1,-15,-5,-3,-4,-4,-2
1523210923904278,-6,-14,4,-5,-14,-7,-3,-4
1523210923926336,-1,1,-11,7,14,6,3,0
1523210923926336,0,1,8,14,4,2,1,3
1523210923926336,-3,-3,-8,-20,-8,-4,-3,-3
1523210923926336,0,4,5,0,-6,-2,-1,2
1523210923940371,-1,-1,0,-10,-7,-2,-3,-2
1523210923940371,-1,1,12,8,2,-1,-3,0
1523210923941371,-3,-4,2,3,0,1,0,-1
1523210923941371,1,0,-5,-5,2,2,3,2
1523210923963430,2,2,20,7,-8,-3,-4,-1
1523210923963430,0,0,-25,-8,3,6,0,-1
1523210923964433,3,4,42,2,5,4,3,2
1523210923964433,-3,-3,9,-1,-7,-5,-5,-3
1523210923977469,0,3,-29,5,2,1,1,0
1523210923977469,-1,-1,-3,0,0,3,-1,0
1523210923978470,-3,-4,6,-14,-8,-9,-4,-3
1523210923978470,-1,0,-13,12,10,8,3,1
1523210924000764,-1,-4,-23,-7,-5,4,2,0
1523210924000764,0,-2,10,-3,5,-6,-3,-3
1523210924000764,1,3,17,7,-2,-3,-1,2
1523210924000764,1,1,-12,-9,-4,-5,-1,0
1523210924023590,-1,-3,9,-5,-1,-4,0,-3
1523210924023590,-1,-1,-3,18,-10,-1,0,0
1523210924024592,-2,-3,-16,-37,3,-2,-1,-1
1523210924024592,0,4,22,8,2,2,2,1
1523210924037652,0,-1,-20,5,-3,-4,-3,-3
1523210924037652,-3,-5,37,-6,-3,-2,-1,-2
1523210924038633,-2,-3,-27,7,7,1,-1,-1
1523210924038633,-1,-3,0,-2,-2,1,-2,-1
1523210924060689,1,-1,9,3,0,-3,-1,-1
1523210924060689,1,2,-15,-26,-3,-5,-3,0
1523210924060689,-1,-4,19,13,-11,-3,-4,-2
1523210924060689,0,-1,-24,-9,5,2,1,0
1523210924083985,-2,-6,-15,4,13,2,0,1
1523210924083985,-3,-2,13,-3,-10,-7,-3,-4
1523210924083985,3,7,15,0,-1,-1,-3,-2
1523210924083985,-2,-2,-5,3,3,-1,-2,-2
1523210924097787,0,4,23,-9,1,2,1,-1
1523210924097787,0,-1,-5,7,2,1,2,1
1523210924098789,-3,-4,-22,-11,-8,-5,-1,-3
1523210924098789,-2,-1,5,-1,-9,-9,-5,-4
1523210924119844,0,1,20,7,3,-2,-3,-3
1523210924119844,1,1,-34,-10,7,9,3,0
1523210924120851,0,-2,-6,19,7,12,4,2
1523210924120851,2,5,25,15,-2,0,-1,1
1523210924142910,-4,-9,3,-31,-4,-4,-5,-2
1523210924142910,-3,0,32,-8,-17,-11,-5,-5
1523210924143908,-3,-5,1,19,-2,-1,0,1
1523210924143908,0,-3,-21,-5,13,1,-2,-1
1523210924157948,2,8,24,9,0,4,3,0
1523210924157948,-3,-9,-40,-12,-7,-7,-4,-2
1523210924158950,-1,0,45,7,-6,-4,-3,-1
1523210924158950,-1,-2,-47,-19,6,5,3,1
1523210924180240,1,0,1,14,-3,-3,0,2
1523210924180240,1,1,-2,-7,-4,-3,-3,-3
1523210924181007,-2,-1,5,-2,-6,-7,-2,-3
1523210924181007,0,1,19,13,8,9,4,3
1523210924203091,-1,2,3,6,7,6,0,0
1523210924203091,-1,-2,-30,-13,-5,-2,2,1
1523210924204073,-1,-2,9,-5,-5,-5,-3,-3
1523210924204073,-1,-3,-19,-20,-5,-12,-5,-5
1523210924218342,-2,-5,-17,-4,-3,1,1,-1
1523210924218342,1,5,27,18,9,6,1,1
1523210924219109,0,-1,-6,5,4,-1,-1,0
1523210924219109,-4,-5,-5,-13,-15,-5,-2,-1
1523210924240169,-1,1,-4,-1,-3,-8,-5,-1
1523210924240169,-1,0,22,36,5,0,0,0
1523210924241168,0,-5,-51,-54,0,2,1,-1
1523210924241168,-3,2,17,8,-6,1,0,-1
1523210924263227,2,0,4,3,3,0,0,0
1523210924263227,-1,-2,9,6,0,-2,-1,-1
1523210924264231,0,-1,-23,15,-1,0,-2,-1
1523210924264231,-2,-1,102,-10,-6,-9,-4,-3
1523210924278314,-2,-3,-44,-10,-11,0,0,1
1523210924278314,0,-1,-30,0,17,3,1,1
1523210924278314,1,0,27,20,0,2,1,0
1523210924278314,0,-3,3,-18,-2,-1,-1,-2
1523210924300364,-5,-4,-15,-6,-12,-9,-5,-2
1523210924300364,0,1,36,2,-1,-1,1,1
1523210924301328,-1,2,-22,-2,-4,-2,-2,-2
1523210924301328,0,0,-20,5,7,4,1,-1
1523210924323386,0,1,11,-4,-1,1,1,1
1523210924323386,-1,-5,-24,-10,4,6,0,-1
1523210924324389,0,3,26,7,-4,-4,-1,-1
1523210924324389,-1,-1,-23,4,-4,-1,0,-1
1523210924337428,-1,-2,-14,-6,0,2,-1,0
1523210924337428,2,9,60,11,0,2,-1,1
1523210924338432,-5,-11,-71,-16,-6,-6,-3,-3
1523210924338432,-1,2,5,2,7,-1,-3,0
1523210924360486,-2,-5,-18,-8,-12,-9,-5,-5
1523210924360486,-1,3,10,2,-1,1,1,-1
1523210924360486,0,2,5,15,1,6,3,1
1523210924360486,0,-3,-5,9,5,-1,0,-1
1523210924383546,0,2,3,-19,9,7,2,-2
1523210924383546,0,-3,17,-1,-10,-7,-3,-3
1523210924384583,-1,-3,-24,-14,-4,-4,-2,-1
1523210924384583,-2,1,28,17,-6,-5,-5,-3
1523210924397583,1,0,11,4,-1,-3,-1,0
1523210924397583,-2,-3,-1,-11,-1,0,-1,-1
1523210924398586,1,6,16,1,10,5,1,0
1523210924398586,1,0,-13,2,-6,-1,-2,-1
1523210924420647,-1,-1,23,-1,1,-2,0,-2
1523210924420647,-4,-4,-41,-6,-11,-8,-4,-2
1523210924420647,0,-2,-1,-4,-1,2,1,0
1523210924420647,0,0,-4,-12,7,6,3,2
1523210924443706,-1,0,38,18,-2,-6,-2,-1
1523210924443706,-2,-3,-2,-9,-4,-4,-2,-1
1523210924443706,-2,-2,2,-12,6,-1,-1,0
1523210924443706,1,2,4,10,-4,-1,1,0
1523210924465765,1,0,-11,5,0,0,0,-1
1523210924465765,0,-2,3,5,7,2,0,1
1523210924466768,-1,-1,-3,-12,-9,-5,-1,-3
1523210924466768,-3,-4,-26,-12,-3,-4,-2,-1
1523210924479807,-4,-3,6,-4,-4,-3,-2,1
1523210924479807,3,12,27,9,9,5,2,1
1523210924480804,-6,-15,1,3,4,0,-2,-3
1523210924480804,-2,-3,-39,-9,0,-1,0,-3
1523210924502862,-1,2,15,5,-2,0,0,-2
1523210924502862,1,4,-15,0,-4,-2,-1,-1
1523210924503866,-1,-3,4,0,-1,-3,-1,-1
1523210924503866,-1,2,25,9,-3,-4,-3,-2
1523210924516901,-1,-2,-26,1,0,-1,1,0
1523210924516901,0,-1,7,10,0,4,0,0
1523210924524921,0,3,13,3,8,2,0,1
1523210924524921,-2,-8,-33,-13,-10,-2,0,-2
1523210924539966,0,3,7,6,0,0,0,-1
1523210924539966,-1,-4,-20,-7,-6,-6,-3,-4
1523210924540964,0,-3,8,0,0,-1,1,0
1523210924540964,1,0,-31,-2,6,6,1,2
1523210924563023,-1,-2,-20,-5,-3,1,-2,-1
1523210924563023,-4,-9,-7,-18,-6,-8,-4,-4
1523210924564027,1,3,-22,11,-8,-7,-4,-1
1523210924564027,-2,-1,31,-12,-6,-2,1,-1
1523210924577060,-4,-13,-74,-22,5,-1,2,-3
1523210924577060,-3,-5,5,1,0,3,2,0
1523210924585317,2,4,25,9,8,3,2,1
1523210924585317,-1,2,-17,1,1,-3,-2,-2
1523210924600122,1,0,29,0,-2,0,0,1
1523210924600122,-2,-9,-37,-8,-13,-14,-8,-4
1523210924601123,-4,-6,-24,-8,0,-1,2,-1
1523210924601123,1,-1,5,10,-4,3,1,2
1523210924623184,-1,2,17,11,24,4,2,-1
1523210924623184,0,1,0,1,-1,0,0,1
1523210924624186,-1,1,20,4,-4,-6,-3,-2
1523210924624186,-3,-2,-3,-9,-11,-6,-3,-2
1523210924646244,0,1,-25,4,5,6,1,-3
1523210924646244,1,0,11,2,5,2,1,1
1523210924646244,-1,-1,-18,-14,-5,-1,-1,0
1523210924646244,1,-3,3,-3,9,-1,-1,1
1523210924660282,-2,-4,-31,4,-8,3,0,-1
1523210924660282,-1,-1,8,-4,0,0,-1,-1
1523210924661323,2,8,47,6,-1,-3,-2,-1
1523210924661323,0,0,-55,4,-13,-8,-4,-4
1523210924683578,-4,-8,64,-12,2,-3,-4,-2
1523210924683578,-2,-6,-34,2,0,0,-2,0
1523210924684344,3,10,18,15,8,5,2,1
1523210924684344,0,-4,34,7,9,9,2,2
1523210924697381,-1,-3,-22,-8,-14,-6,-3,-2
1523210924697381,0,4,-5,3,-6,-5,-1,-2
1523210924705431,-4,-6,-18,-5,-4,-1,-2,-4
1523210924705431,2,3,32,12,11,3,0,0
1523210924720444,0,3,14,9,-7,-5,-3,-1
1523210924720444,-1,0,-8,-18,-1,2,0,1
1523210924721449,-4,-8,3,-7,-3,4,0,0
1523210924721449,-2,-5,0,2,3,-2,-2,-1
1523210924743504,1,-1,1,-4,-5,-3,-3,-1
1523210924743504,0,1,14,1,-3,-4,-3,-1
1523210924744507,-1,0,15,3,-6,-6,-4,-3
1523210924744507,-3,-8,-12,-15,-1,1,3,0
1523210924766563,2,3,4,4,8,5,1,2
1523210924766563,0,3,29,13,3,1,0,1
1523210924766563,1,5,-30,2,-3,-4,2,2
1523210924766563,-7,-13,-21,-47,-23,-13,-8,-6
1523210924780836,1,6,-54,15,11,-1,1,-1
1523210924780836,0,-4,16,19,15,12,5,0
1523210924780836,-1,0,37,-30,-11,-2,-1,-2
1523210924780836,3,6,46,26,0,-2,-3,1
1523210924803691,-1,-1,-3,-56,-9,-5,-2,-1
1523210924803691,-6,-10,-89,-21,-6,-7,-5,-5
1523210924804668,-1,-6,9,17,4,0,2,2
1523210924804668,-1,4,37,-2,0,-1,-1,-1
1523210924825722,-2,-4,21,34,-4,-2,-1,0
1523210924825722,2,1,0,-18,-2,1,1,0
1523210924826723,0,4,-6,5,4,1,-1,-2
1523210924826723,3,8,2,-4,-7,-1,0,1
1523210924839760,-7,-13,29,6,8,-1,-2,0
1523210924839760,-3,-2,0,-3,-7,-7,-4,-2
1523210924840760,-2,-3,-20,4,-3,-2,-1,-2
1523210924840760,-1,0,-9,-8,7,3,-1,1
1523210924863822,2,7,4,0,-8,-5,-1,1
1523210924863822,-4,-6,8,-15,-10,-3,-4,-3
1523210924863822,1,0,-7,-3,16,11,3,3
1523210924863822,1,0,14,12,6,4,1,0
1523210924885879,-2,3,12,6,-1,2,1,0
1523210924885879,-3,-7,-42,8,-6,-7,-2,-3
1523210924886886,0,2,28,-36,-13,-8,-4,-3
1523210924886886,-4,-2,19,9,-2,-2,-4,-3
1523210924899920,1,1,0,7,4,-1,2,0
1523210924899920,1,5,15,9,-5,-1,2,1
1523210924900920,0,-4,-16,-1,7,10,3,0
1523210924900920,-1,-2,-33,-1,12,6,2,1
1523210924922980,-1,-1,20,-4,-9,-5,-2,-3
1523210924922980,0,0,6,1,1,-2,-1,1
1523210924922980,-3,-2,-18,0,-8,-7,-3,-3
1523210924922980,-2,-2,2,0,-1,-3,-1,-2
1523210924946041,0,2,6,-2,-2,-1,-2,-1
1523210924946041,0,-3,-6,-2,0,0,0,0
1523210924947044,0,-3,-9,7,6,1,-1,-1
1523210924947044,-2,0,-9,-2,-5,-5,-1,-2
1523210924960079,-3,-4,-26,-7,-14,-11,-7,-2
1523210924960079,1,2,16,-14,6,8,2,0
1523210924961082,2,5,10,23,14,8,3,3
1523210924961082,-2,-5,0,-3,4,2,0,-2
1523210924983335,3,2,41,13,0,4,3,2
1523210924983335,-7,-7,-25,-23,-25,-15,-8,-5
1523210924983335,-1,0,8,11,5,0,0,0
1523210924983335,2,3,15,15,3,5,1,1
1523210925006202,0,1,11,4,3,1,-1,0
1523210925006202,2,0,15,-1,4,1,-1,-1
1523210925006202,-4,-2,2,-3,-12,-12,-6,-2
1523210925006202,0,-3,-12,-1,-6,-5,-2,-3
1523210925020241,-4,-6,-58,-17,-2,0,-2,-1
1523210925020241,2,2,12,-5,8,4,1,3
1523210925021246,-2,-2,-37,-6,-9,-7,-3,-2
1523210925021246,-1,0,7,3,-4,-3,-2,-1
1523210925042298,0,1,-8,2,17,9,1,2
1523210925042298,1,1,6,15,2,1,1,1
1523210925043298,0,-1,35,1,-6,0,-2,-2
1523210925043298,-4,0,-54,-21,-12,-9,-5,-1
1523210925066508,-3,-14,-60,-13,-7,-5,-1,-3
1523210925066508,-3,-5,28,3,1,-3,-2,-2
1523210925066508,-1,-2,29,3,-6,1,-3,0
1523210925066508,2,3,-26,9,11,3,0,0
1523210925080633,-3,1,30,-3,-2,0,-1,-2
1523210925080633,-2,0,-8,3,-2,-1,1,0
1523210925081400,-1,-5,-43,-4,2,1,1,0
1523210925081400,-2,0,27,-12,-6,0,-1,-1
1523210925102456,0,0,-1,-2,0,0,0,-1
1523210925102456,-2,-2,25,-2,-7,-6,-4,-4
1523210925103464,-1,-4,-23,1,0,-2,-1,0
1523210925103464,-3,-6,-23,-1,-8,1,0,-1
1523210925125518,1,0,5,-13,15,7,3,1
1523210925125518,0,3,29,13,1,1,0,0
1523210925126520,-3,-5,-8,-8,-13,-8,-6,-4
1523210925126520,0,1,32,7,4,-7,-1,0
1523210925140558,-3,-6,-33,-7,-4,4,-1,-2
1523210925140558,0,-2,2,3,-1,-3,-1,0
1523210925140558,-4,-7,7,2,3,0,0,1
1523210925140558,1,1,12,-1,-3,-2,0,0
1523210925163658,0,3,13,4,-15,-9,-4,-1
1523210925163658,-2,-4,-48,-1,4,-1,0,-1
1523210925163658,1,0,-22,1,3,7,2,-2
1523210925163658,1,-1,-8,0,8,1,0,-1
1523210925185676,1,2,6,-3,-14,-10,-2,-1
1523210925185676,0,1,-6,11,7,3,-2,0
1523210925186703,-2,-3,14,-6,0,0,0,-1
1523210925186703,-1,-3,3,-15,-6,0,-1,0
1523210925199715,2,4,21,13,6,5,0,2
1523210925199715,-2,-1,-5,-10,-14,-17,-5,-4
1523210925200718,-1,0,-12,-8,4,4,1,0
1523210925200718,-2,-5,12,8,-3,3,0,0
1523210925222777,-4,0,12,-11,-11,-8,-4,-3
1523210925222777,-1,-1,34,4,1,2,-2,-1
1523210925223779,2,0,-33,0,8,1,0,-1
1523210925223779,-3,-2,-9,-6,-3,-6,-2,-2
1523210925245844,-1,3,15,4,-10,-8,0,0
1523210925245844,0,3,-7,1,-1,11,5,2
1523210925246840,1,-2,3,1,19,5,0,0
1523210925246840,1,3,13,14,-9,-4,-2,0
1523210925259875,-1,-4,-14,-32,-6,-4,-3,-1
1523210925259875,2,6,52,10,1,-4,-1,0
1523210925260877,-3,-4,16,2,-2,4,3,-1
1523210925260877,0,-1,25,7,1,2,1,-1
1523210925283176,0,2,12,13,-2,-5,-1,-2
1523210925283176,0,-3,-4,-4,5,5,0,1
1523210925283176,-1,-1,-15,-23,-12,-6,-5,-3
1523210925283176,-2,-1,-29,7,6,4,1,-1
1523210925305998,1,2,22,5,2,5,0,-1
1523210925305998,-1,-2,-61,-12,-7,-2,0,-1
1523210925307001,-3,-4,10,11,-13,-9,-3,-2
1523210925307001,-2,-2,-2,-10,0,-4,0,-2
1523210925320035,-1,-2,-5,7,16,10,2,1
1523210925320035,1,1,-10,-4,5,-5,-2,1
1523210925321045,1,4,6,4,1,2,-1,-2
1523210925321045,-1,-3,8,-19,-7,-4,-2,-1
1523210925343096,-2,-6,-18,33,-10,-6,-2,-2
1523210925343096,-1,-3,1,-43,2,4,1,0
1523210925343096,0,4,6,10,-7,-6,-1,0
1523210925343096,-1,5,5,1,8,3,0,0
1523210925366397,-4,-9,-15,9,3,-2,-2,-1
1523210925366397,-2,-4,-28,-9,-3,2,0,-1
1523210925367252,-1,1,14,-2,-11,-8,-3,0
1523210925367252,-1,0,-2,-1,-5,-2,-3,0
1523210925380430,1,1,-21,-7,2,-1,0,-1
1523210925380430,-2,0,14,18,2,-2,-4,-1
1523210925381197,-1,1,49,1,7,5,2,2
1523210925381197,2,-1,-38,3,3,-2,-2,2
1523210925402252,-2,-2,-19,-28,-11,-7,-2,-3
1523210925402252,0,-1,-1,6,-9,-7,-1,-2
1523210925403256,0,-1,14,0,-7,0,-2,-2
1523210925403256,-3,1,20,12,16,2,2,1
1523210925426533,2,1,20,18,8,10,5,1
1523210925426533,-2,0,7,-17,3,5,1,2
1523210925426533,-2,-2,6,-1,-11,-10,-5,-2
1523210925426533,0,-4,-4,4,-17,-4,-3,-4
1523210925439352,-1,-1,13,1,12,-1,-1,-1
1523210925439352,-1,-1,-7,7,-1,-1,-1,-1
1523210925448406,-1,-1,-17,-6,4,4,0,0
1523210925448406,-3,-9,-16,1,-13,-6,-2,-3
1523210925462413,-1,0,3,-17,-2,-2,-1,-2
1523210925462413,-1,-1,10,25,15,11,3,0
1523210925463415,-1,-5,-40,-15,-3,-3,-2,0
1523210925463415,1,1,-4,-11,-2,-4,-2,-3
1523210925485474,-1,0,0,-2,6,10,5,2
1523210925485474,-2,0,-2,27,-6,-4,-2,-2
1523210925486477,-3,-5,-23,-42,-7,-2,-1,-3
1523210925486477,0,-2,17,8,-3,-5,-3,-2
1523210925499512,0,-1,2,-7,-13,-10,-6,-4
1523210925499512,2,6,18,2,16,3,2,-1
1523210925507532,-2,-5,-12,6,3,-1,0,0
1523210925507532,1,-1,28,0,-6,-7,-4,-1
1523210925522573,-1,-1,2,-4,1,0,-2,-2
1523210925522573,-1,-4,-10,-7,-2,5,3,0
1523210925523575,-1,1,6,7,-2,-9,-1,0
1523210925523575,-2,0,-10,-6,17,13,2,0
1523210925545635,1,0,-51,1,-4,-3,-1,1
1523210925545635,-3,-5,22,-13,-21,-13,-5,-6
1523210925546636,0,5,25,10,-2,-3,-1,0
1523210925546636,-6,-13,-80,-25,-2,0,-1,-1
1523210925559674,1,0,-6,-8,-1,-1,1,1
1523210925559674,-2,0,5,0,3,-1,-3,0
1523210925567928,0,-4,-12,6,-5,-1,0,2
1523210925567928,3,11,29,13,10,3,-1,1
1523210925582733,-4,-12,-23,-8,-4,0,-2,-1
1523210925582733,-2,-6,7,-5,-5,-7,-3,-3
1523210925583736,0,3,23,8,7,4,2,-1
1523210925583736,-1,1,15,18,-6,1,2,-1
1523210925606797,-1,-1,-14,-29,-5,-4,-4,-2
1523210925606797,1,1,11,5,9,0,0,0
1523210925606797,0,-1,-9,15,12,12,1,0
1523210925606797,0,0,12,-4,0,0,3,2
1523210925619834,-1,3,38,6,-11,-8,-3,-2
1523210925619834,-6,-12,-55,-14,-16,-7,-4,-3
1523210925628070,3,4,-13,3,14,-1,-1,0
1523210925628070,-2,-2,14,-22,-7,-3,-2,-3
1523210925642893,1,2,36,17,6,2,0,0
1523210925642893,0,3,-16,-5,-7,-1,-3,-2
1523210925643895,-4,-10,-13,-5,1,1,0,-1
1523210925643895,-1,2,25,3,-2,-4,-1,-1
1523210925666194,2,2,13,13,9,3,1,2
1523210925666194,0,2,-1,-26,-2,4,-1,1
1523210925666956,-2,-2,29,-1,-14,-8,-4,-2
1523210925666956,0,-2,-16,2,0,2,-1,-2
1523210925680135,1,4,70,5,1,-2,-2,0
1523210925680135,-3,-9,-53,-3,-4,-8,-2,-2
1523210925688018,-1,0,28,-5,-3,2,1,-1
1523210925688018,1,-2,-34,-2,4,3,2,1
1523210925703054,0,5,-21,24,6,3,1,0
1523210925703054,-4,-11,13,-18,-8,-1,-1,-3
1523210925703054,0,-2,-56,13,-7,-8,-4,-2
1523210925703054,-4,-6,40,-1,-1,0,-2,-2
1523210925726116,-1,-2,0,11,2,2,-1,-1
1523210925726116,1,6,14,11,-3,-1,-2,1
1523210925727309,-3,-2,-12,-7,0,-5,-3,-3
1523210925727309,0,-2,-16,3,-4,-4,-1,0
1523210925748407,-3,-4,-16,-4,-4,-2,0,-1
1523210925748407,0,2,31,5,7,2,0,1
1523210925749175,0,0,-26,-23,-8,0,0,1
1523210925749175,1,0,9,1,2,-1,-1,-2
1523210925762209,-2,-2,-6,-9,2,1,0,-2
1523210925762209,1,4,19,5,0,0,0,1
1523210925763213,-5,-6,19,-1,-9,-5,-3,-3
1523210925763213,-1,0,-17,-6,-1,-2,-1,-2
1523210925786275,0,-2,-11,11,3,2,2,-1
1523210925786275,1,6,16,-5,7,4,0,3
1523210925786275,-3,-2,18,-5,-5,0,0,-1
1523210925786275,-2,2,7,0,-9,-6,-4,-2
1523210925808332,-2,-5,-7,-4,-10,-4,-4,-3
1523210925808332,0,3,2,19,14,-1,0,1
1523210925809336,2,2,8,3,5,2,2,2
1523210925809336,-3,-6,-42,-8,1,5,1,-2
1523210925822370,-1,0,9,-8,-6,-3,1,-1
1523210925822370,-1,1,9,-2,-8,-5,-5,-2
1523210925830626,-3,-4,-44,0,-13,-8,-3,-4
1523210925830626,1,1,7,7,1,-1,1,0
1523210925845433,1,-2,-19,9,16,8,1,0
1523210925845433,-2,-2,-9,-6,-3,2,4,-1
1523210925846433,1,5,76,13,7,0,-3,0
1523210925846433,-4,-9,-66,-28,-12,-2,-3,0
1523210925868490,-3,-4,-26,-34,-2,-10,-6,-4
1523210925868490,-2,-5,4,10,-6,-7,-2,-3
1523210925869499,1,4,-2,8,10,8,3,1
1523210925869499,1,2,35,13,6,3,1,1
1523210925883729,-2,2,13,-20,-19,-11,-5,-2
1523210925883729,-1,-8,-26,-12,-2,0,1,-3
1523210925883729,0,1,7,2,9,4,-1,0
1523210925883729,0,-1,-19,3,-2,-2,1,-2
1523210925905591,-1,-2,8,2,-1,-2,-1,-1
1523210925905591,1,2,8,2,-3,-2,-2,0
1523210925906593,-1,-5,-20,-12,-4,-2,0,0
1523210925906593,0,5,55,7,-1,-4,-2,-3
1523210925928892,-1,0,-11,3,2,0,-2,0
1523210925928892,-1,0,-3,-20,5,6,3,-1
1523210925930696,0,-4,13,6,2,4,1,1
1523210925930696,1,4,-16,-3,-2,-4,-3,0
1523210925942690,-5,-12,-11,-9,-12,-9,-4,-3
1523210925942690,-1,-3,0,14,-4,-6,-3,-2
1523210925943731,1,3,11,-13,-8,0,2,1
1523210925943731,2,2,-13,11,17,3,1,1
1523210925965991,0,1,4,7,4,5,1,0
1523210925965991,-1,-1,-24,2,2,4,2,-1
1523210925966752,0,2,25,-14,-2,-3,-2,-1
1523210925966752,-2,-6,-25,9,-10,-4,-4,-3
1523210925988816,-2,-4,16,0,-1,-3,-1,-1
1523210925988816,-1,-2,-1,-15,-5,-6,-3,-2
1523210925988816,1,0,6,30,1,-2,-3,-3
1523210925988816,0,0,-13,-22,0,1,2,1
1523210926002850,1,8,23,1,8,4,3,1
1523210926002850,-2,-4,3,-4,-9,-2,-4,-2
1523210926003855,-2,0,-7,12,0,2,2,-1
1523210926003855,-1,2,19,-10,3,-3,-3,-1
1523210926025910,-4,-7,-33,-9,2,-1,-1,-2
1523210926025910,2,7,7,8,-1,3,-1,1
1523210926026912,-1,0,-25,-4,4,-3,-1,-1
1523210926026912,-2,-1,21,0,-11,0,0,-1
1523210926048205,-2,-4,22,-2,-7,-5,-2,-2
1523210926048205,-1,-2,4,-3,1,-4,-3,-2
1523210926048972,-1,-2,42,16,-5,-3,-2,-1
1523210926048972,-4,-7,-37,-33,-3,-2,-3,-2
1523210926063011,2,7,-1,16,14,9,4,3
1523210926063011,0,-6,-12,5,-4,-3,-1,-1
1523210926063011,0,1,5,0,0,2,1,-1
1523210926063011,-4,-8,-34,10,5,2,1,1
1523210926086070,-3,0,15,2,-6,-4,-3,-3
1523210926086070,0,2,-15,2,-1,-1,0,0
1523210926087080,-2,1,-26,-18,-7,-4,-4,-3
1523210926087080,1,0,31,12,4,-5,-2,-3
1523210926108129,-1,1,-26,-1,1,1,2,-2
1523210926108129,0,0,4,4,-3,1,0,0
1523210926109132,-2,-8,-18,-16,1,-4,-4,-4
1523210926109132,2,2,16,2,-6,-2,-2,-1
1523210926122167,2,1,2,6,-5,-6,-3,0
1523210926122167,-3,-2,40,-11,1,-4,0,-3
1523210926123168,0,-1,-43,22,8,10,6,1
1523210926123168,1,0,0,-50,5,4,1,2
1523210926146232,-1,-3,-12,10,-5,0,-1,0
1523210926146232,-2,-1,9,-1,1,2,0,-1
1523210926147233,0,1,-30,-10,-7,-6,-4,-2
1523210926147233,-3,0,-6,5,-10,-7,-2,-4
1523210926168287,-2,-2,-2,0,-3,-3,-1,2
1523210926168287,-2,0,-6,-1,2,-2,-3,0
1523210926170299,0,-1,0,-16,1,3,1,1
1523210926170299,-1,-2,4,12,-2,-1,0,-1
1523210926182565,0,1,17,-2,4,-2,-2,-3
1523210926182565,1,3,-7,21,-1,-1,-1,1
1523210926191352,-3,-7,0,-26,-3,1,0,-3
1523210926191352,-1,1,16,14,-3,-8,-4,-1
1523210926205386,1,-1,9,-5,3,3,1,-1
1523210926205386,0,0,8,29,8,6,2,1
1523210926207392,-1,0,-28,-15,-11,-7,-2,-1
1523210926207392,-1,-3,-17,-3,-7,1,-2,-3
1523210926228684,0,3,39,16,0,0,-1,-1
1523210926228684,-1,-3,-22,-34,-1,-5,-2,-3
1523210926230650,-2,-2,-3,20,0,-2,-2,-1
1523210926230650,1,2,32,8,-5,-1,1,0
1523210926242486,-1,-1,8,-1,4,4,1,1
1523210926242486,-2,-7,-51,-13,5,4,0,-2
1523210926251511,-2,-4,22,13,-7,-9,-5,-1
1523210926251511,-2,-3,-55,-6,-6,-4,-3,-3
1523210926266548,1,2,3,12,-1,2,1,0
1523210926266548,0,0,37,4,-3,1,3,2
1523210926267552,1,-1,7,-12,4,-2,-3,-2
1523210926267552,-1,2,-3,9,-3,0,-1,0
1523210926288609,-4,-9,-22,-16,-9,-4,0,-2
1523210926288609,0,-5,-30,8,5,3,-1,0
1523210926289612,0,1,27,2,7,1,1,1
1523210926289612,0,-4,14,-6,-1,1,-2,-1
1523210926301642,-3,1,22,-5,-10,-5,-2,-2
1523210926301642,-2,0,18,-7,-8,-7,-3,-2
1523210926310667,0,1,-4,4,-12,-5,-1,-4
1523210926310667,2,2,35,24,19,5,2,2
1523210926325746,-4,-8,-49,-33,-3,3,-3,-4
1523210926325746,0,4,15,14,11,3,3,2
1523210926327712,0,5,-55,-6,-6,0,-3,0
1523210926327712,1,1,7,-3,-11,-5,-3,-1
1523210926348770,-2,-1,11,5,5,-4,-4,-2
1523210926348770,-2,-3,-8,-2,0,5,2,0
1523210926349772,1,2,23,10,5,1,1,1
1523210926349772,-2,-3,-10,-15,-5,-3,-2,-2
