timestamp,emg1,emg2,emg3,emg4,emg5,emg6,emg7,emg8
50486690197,1,0,1,-1,-7,4,4,1
50486690197,0,-2,-2,-3,-1,4,1,0
50486690881,-1,-1,-1,-2,1,3,-2,-2
50486690881,-2,3,-2,-1,-3,-6,-4,-3
50486691675,-3,-3,-2,-2,-6,-10,-7,-4
50486691675,-1,0,1,-1,-1,-2,1,1
50486692442,0,-2,-3,-3,6,-2,1,0
50486692442,-1,-5,-3,2,5,0,1,0
50486697784,3,3,3,0,-12,10,4,2
50486697784,0,2,1,-2,1,5,-3,-1
50486703287,-2,-2,0,-1,-1,1,0,-1
50486703287,-1,-2,-2,-4,-1,-5,-3,-1
50486711192,-3,-2,-3,-1,5,-2,-2,-1
50486711192,0,-1,0,-3,-2,-8,-2,-1
50486726080,-1,3,6,22,-6,-7,-4,1
50486726080,-1,-5,-19,-51,-14,3,0,-1
50486732570,1,0,-1,18,7,9,7,3
50486732570,-3,-2,-1,16,-3,-2,0,-3
50486741931,-3,-1,-1,-13,-5,-7,-4,-4
50486741931,1,3,8,26,6,-3,0,1
50486755306,-1,-1,-3,-5,3,-1,1,0
50486755306,-1,-3,-5,-14,-1,3,-1,-1
50486763140,1,-1,0,10,-2,-1,0,-1
50486763140,-2,-1,3,5,-6,-1,-3,-3
50486801169,0,2,6,16,-3,-4,-2,-1
50486801169,-2,-4,-20,-84,-22,-2,-1,-1
50486808594,0,-1,1,12,2,0,-1,1
50486808594,-2,0,0,15,4,5,2,1
50486809239,-2,-3,6,26,5,5,1,1
50486809239,0,2,5,41,6,-8,-4,-3
50486810212,-1,-2,-7,-49,-11,-5,-3,-2
50486810212,2,-1,-7,-54,-18,0,1,1
50486823827,1,-1,-2,6,9,3,1,0
50486823827,-1,-6,0,28,11,6,2,2
50486829683,-1,-4,4,23,4,-1,-2,-2
50486829683,0,4,5,14,-3,-12,-5,-3
50486837266,0,2,3,9,-5,-2,6,1
50486837266,0,-3,-2,-29,4,5,-4,1
50486852337,-3,0,2,36,0,5,1,0
50486852337,-2,-8,-7,-35,-2,-1,-4,-3
50486860526,-2,0,-6,-14,-12,-11,-7,-3
50486860526,0,2,2,14,1,-7,0,-1
50486867386,3,0,-2,5,4,3,2,2
50486867386,-2,0,7,62,10,4,2,1
50486882977,1,-1,-10,-51,7,14,5,3
50486882977,0,1,10,19,1,-5,-2,-3
50486889825,-1,-1,6,11,0,-6,-6,-3
50486889825,-7,-10,-39,-91,-35,-20,-10,-7
50486897333,1,2,6,32,16,8,3,2
50486897333,0,1,2,19,0,6,7,5
50486913708,-2,-5,-3,39,4,5,0,-1
50486913708,1,5,13,67,16,-1,-9,-8
50486920514,-1,-3,-10,-32,-15,-3,7,7
50486920514,0,0,1,-33,-1,-1,-2,-3
50486927344,-1,2,-3,-57,0,-1,2,1
50486927344,-1,0,7,78,-8,-3,-2,0
50486943054,0,-5,-6,7,1,-4,-10,-7
50486943054,0,0,6,4,2,3,5,4
50486949689,-3,-2,-9,-57,-5,-3,0,-11
50486949689,-1,0,1,10,0,3,5,19
50486957241,-2,1,6,17,-1,-2,-5,-3
50486957241,-1,1,-4,-33,-4,-6,-5,-4
50486972256,0,-1,-1,33,-6,-3,-5,-13
50486972256,2,-1,0,-29,7,3,-8,2
50486980524,-2,-2,1,14,-1,-4,13,4
50486980524,-2,-2,-11,-69,-13,3,-4,-1
50486987213,0,-2,-6,13,-9,-2,-1,3
50486987213,-2,0,5,-32,6,1,3,-3
50487002883,-4,-5,-4,26,-1,-9,-12,-6
50487002883,1,2,6,58,4,2,1,-3
50487009826,1,3,12,18,4,0,3,6
50487009826,0,-2,-8,-49,1,2,16,0
50487017339,1,2,3,-35,-8,-5,-8,-5
50487017339,-4,-9,-13,72,-8,-9,-5,-5
50487033668,1,1,0,5,-2,-6,-4,1
50487033668,1,1,2,-4,3,1,-4,-5
50487040574,1,-1,-4,-33,1,9,7,6
50487040574,0,-2,-6,-20,-4,3,2,0
50487047337,-1,1,3,25,2,1,-8,-7
50487047337,-1,0,0,48,4,0,3,10
50487063020,-1,-1,-2,-28,2,3,8,-5
50487063020,-2,-2,4,13,2,-1,-11,4
50487069673,1,-3,-4,-28,-9,-2,-1,2
50487069673,-1,6,6,18,9,2,-4,-8
50487077332,-1,2,10,64,5,-3,-6,-3
50487077332,-3,-4,-14,-39,-10,-8,1,-2
50487092383,-4,-4,-2,8,0,-4,-2,-3
50487092383,3,0,-1,-10,-11,5,3,1
50487100581,0,-1,-4,19,0,2,0,1
50487100581,2,3,7,23,9,3,1,-3
50487107348,-2,4,13,7,5,-3,-1,3
50487107348,-2,-5,-28,38,-3,-8,-2,-6
50487123077,-1,-1,7,-46,-9,-5,-8,-1
50487123077,0,1,7,25,9,4,11,2
50487129801,0,-1,-10,-16,-8,0,-5,-2
50487129801,-1,-1,8,-30,-1,1,3,1
50487137334,0,-1,-2,67,3,-3,-6,-7
50487137334,1,1,-5,-100,-3,-1,-3,-2
50487152386,-3,-9,-1,-10,-8,-4,-1,1
50487152386,0,1,12,14,7,-2,-4,-9
50487160413,-1,-1,-24,-8,8,10,5,3
50487160413,0,2,28,48,5,2,-5,-5
50487174852,-2,-2,-15,36,4,2,8,8
50487174852,-1,-1,3,-103,-9,-4,-6,-6
50487183043,-4,-7,-9,-50,-24,-14,-7,-3
50487183043,-1,0,-6,17,0,-5,-3,-3
50487189864,0,2,2,-16,6,4,7,13
50487189864,0,0,6,41,7,5,-8,4
50487197377,1,3,-1,-15,5,2,13,-4
50487197377,-4,-5,-5,13,-4,0,7,-1
50487212369,0,3,8,-42,-6,-5,-10,-7
50487212369,-8,-3,-18,13,-4,-2,-4,8
50487220467,5,-2,16,-9,-4,0,6,7
50487220467,-3,0,-3,4,1,-5,-8,-7
50487234860,1,-1,-15,13,-1,2,10,3
50487234860,1,1,-1,50,5,4,-1,-2
50487243049,-7,-4,5,-32,-3,0,-8,-7
50487243049,1,3,24,66,12,-3,1,3
50487249980,-1,-1,31,-34,-22,-9,-9,-9
50487249980,-1,-8,-18,-27,1,-8,-2,-3
50487257265,0,3,11,57,6,7,2,5
50487257265,3,-2,-1,-14,1,4,1,3
50487272337,3,6,-3,18,12,8,1,0
50487272337,0,2,36,-4,-11,-2,-2,-7
50487280504,-1,0,-7,29,0,-8,-6,-4
50487280504,-3,3,11,14,-3,-4,-8,-2
50487294706,-2,-4,-25,-20,1,2,14,2
50487294706,-1,-3,-6,-8,-7,-4,1,-2
50487302671,-1,-2,-12,-52,-1,-3,-5,0
50487302671,-1,0,-6,-26,-7,-1,1,-2
50487311187,0,0,4,60,7,-2,-9,-4
50487311187,-1,-2,-8,-7,-2,0,-2,-7
50487317307,-2,0,8,-30,-3,-6,-6,-2
50487317307,-2,-4,-13,30,-9,-4,6,4
50487332369,-2,-5,-7,-40,2,0,-2,-4
50487332369,3,1,5,19,11,6,10,10
50487340529,0,-2,-30,-4,-2,3,-3,-4
50487340529,-4,-5,-6,8,-2,-4,-5,-5
50487354811,-3,-3,-3,-69,-6,-3,-4,-2
50487354811,-2,-1,-2,-39,-7,-6,-1,-2
50487363078,-2,-1,1,21,-6,-9,-13,-4
50487363078,2,1,-7,-5,-2,-2,1,-3
50487369842,0,4,16,27,5,6,3,9
50487369842,2,1,0,23,14,11,1,-4
50487377325,-4,-4,-10,-75,-10,2,7,4
50487377325,-1,-2,4,6,0,-3,-3,1
50487392367,-2,-2,-2,3,-8,1,-6,-6
50487392367,-2,-3,-1,10,-2,-4,0,-2
50487400537,0,0,4,5,0,-2,-1,0
50487400537,-1,-2,-5,-17,-3,0,-2,1
50487414834,0,0,3,30,10,-3,-2,-4
50487414834,-2,-3,-20,-73,-23,-3,-1,0
50487423795,1,0,10,22,0,-2,-1,-2
50487423795,-2,-2,-4,2,-2,-5,0,-5
50487429852,1,3,2,21,8,1,-17,14
50487429852,0,2,5,32,0,6,21,-2
50487446163,-3,-2,3,14,-2,-3,6,-9
50487446163,2,2,-1,-1,4,-1,-18,34
50487452201,-1,0,4,11,-1,2,-3,-5
50487452201,2,2,6,13,11,11,11,6
50487468631,-1,-3,-11,-7,-6,-2,-8,-8
50487468631,-4,-4,-3,-5,-4,-5,-4,-16
50487474841,-1,-1,1,8,-7,-21,-7,-8
50487474841,1,7,27,30,-20,-1,-10,3
50487483670,-1,-6,-41,-47,23,25,6,-1
50487483670,0,-2,-10,-94,-10,1,5,-1
50487489750,-1,-4,-3,-9,-5,-12,-4,-3
50487489750,-7,-4,0,7,-10,-19,-1,-12
50487506170,1,5,21,37,14,-1,0,13
50487506170,1,-2,-7,10,7,12,8,3
50487512327,-1,-2,-9,-21,-3,11,9,-5
50487512327,1,-2,-3,18,2,-5,-9,0
50487527152,-1,2,12,19,-9,-8,-6,-4
50487527152,-4,-5,-15,-39,-14,-5,-4,-3
50487534656,0,-2,2,10,-2,-3,5,-1
50487534656,1,0,0,0,9,1,-4,-1
50487543678,0,2,5,20,2,-2,-8,-6
50487543678,-1,0,5,14,0,0,15,13
50487549641,-1,-2,-4,-29,-4,3,-2,-8
50487549641,0,-2,-8,-7,3,0,0,5
50487566177,0,-1,5,-2,-7,-5,-12,6
50487566177,1,3,9,23,5,2,1,-9
50487572151,-3,-5,-16,-16,-3,1,10,3
50487572151,0,1,3,22,11,-1,-3,3
50487588656,0,3,5,1,-8,-3,2,-5
50487588656,-3,-1,-4,-26,-6,-1,-4,-5
50487594633,0,2,-1,31,7,2,-1,4
50487594633,-1,-5,1,13,-1,-2,-6,-6
50487603645,0,-2,-9,-7,-1,-2,7,3
50487603645,-2,0,-1,11,1,1,-6,-11
50487609643,-2,0,5,-21,-3,-1,-1,4
50487609643,0,-1,-5,-9,3,0,2,-2
50487626139,0,-1,5,22,-2,0,1,1
50487626139,2,1,2,5,4,1,-18,0
50487632296,-1,-3,-11,-26,-11,-5,17,-13
50487632296,-7,-4,-6,-55,-5,-3,-21,-4
50487641217,0,-1,-2,-14,0,-1,10,-3
50487641217,-1,0,1,-4,-5,-3,-6,3
50487654676,2,-1,10,43,7,2,5,0
50487654676,-3,-3,-6,-30,-5,-1,-7,-8
50487663645,1,1,2,-5,4,0,-5,-14
50487663645,-2,-1,-4,15,-8,-2,7,16
50487669752,-2,1,4,17,0,0,-10,-1
50487669752,-1,-1,-1,8,3,1,6,1
50487686196,-1,-1,1,6,0,0,-7,-1
50487686196,0,-2,3,28,6,1,14,-8
50487692240,-1,-2,-5,-11,-3,-3,-5,1
50487692240,-2,1,-4,-14,-6,-7,-6,-7
50487701140,1,1,2,20,4,5,16,13
50487701140,0,-1,-2,-1,-1,0,-10,2
50487714635,-3,-2,-1,-15,-1,0,-4,-1
50487714635,0,0,-2,4,7,6,9,3
50487723635,-2,-1,-1,1,-4,-1,-5,0
50487723635,-1,-1,1,-9,-3,-1,3,-6
50487729692,0,-1,-1,2,-1,-2,-5,1
50487729692,0,-1,1,20,-4,-6,-5,-2
50487746152,-3,-2,0,6,0,-5,-1,-2
50487746152,-2,-4,-8,-34,-4,-1,0,-1
50487752267,-1,-1,1,28,-7,-2,1,0
50487752267,2,-1,2,14,17,4,1,-1
50487761175,-4,-1,0,10,0,0,-2,1
50487761175,-3,-2,-8,-29,-4,-1,1,-8
50487774781,1,2,4,12,-3,-4,-6,-3
50487774781,-4,-3,-5,-30,-13,-6,-2,-1
50487783655,-1,-1,0,18,4,4,-3,0
50487783655,0,-1,2,18,10,2,6,6
50487797290,-2,-3,-8,-43,-6,-1,-1,0
50487797290,2,2,1,11,0,5,2,1
50487806160,-3,-3,-2,-8,-6,-6,-3,-4
50487806160,1,1,5,16,0,-5,-4,-8
50487821039,1,-1,-2,27,3,1,-1,1
50487821039,0,1,1,-1,1,0,1,4
50487822621,-1,-3,-3,-30,-5,3,0,0
50487822621,0,1,-1,10,1,1,1,-4
50487834796,-3,0,1,1,2,-1,1,-3
50487834796,0,-1,0,4,2,1,1,1
50487843694,-1,-3,0,14,-4,-9,-4,-2
50487843694,-2,-1,-3,-30,-4,-4,-3,0
50487857247,1,1,-1,-22,6,5,4,2
50487857247,-1,-1,1,16,-2,-1,1,0
50487866128,-1,-2,-5,-42,-9,-4,-2,-2
50487866128,0,1,7,52,7,0,-1,-2
50487881115,0,-1,0,12,1,-1,0,0
50487881115,-2,-2,-7,-59,-7,-1,1,-1
50487882648,0,-1,2,16,-5,-6,-4,-2
50487882648,0,1,1,3,2,-1,-3,-1
50487894817,-2,1,1,12,3,1,-1,1
50487894817,0,0,3,22,2,0,-2,0
50487903655,-1,-1,3,17,1,0,-1,-1
50487903655,-1,-2,-8,-25,-4,2,0,0
50487917305,-1,-3,-5,-28,-5,-1,-1,0
50487917305,-1,-2,1,11,-5,-6,-3,-4
50487926136,-1,-1,-4,-11,-2,-3,-2,-2
50487926136,0,-2,0,-18,-1,0,0,-1
50487941191,-1,0,-2,6,2,-1,-1,-1
50487941191,-1,-1,-1,-1,-2,-2,0,-1
50487942640,-1,0,2,31,5,0,0,-1
50487942640,0,-1,2,9,0,1,-2,-1
50487954770,-3,-2,-8,-47,-3,-1,-1,-1
50487954770,0,0,2,0,-1,0,0,0
50487963679,-1,-1,-2,-11,2,2,0,1
50487963679,-1,-1,1,1,-4,-4,-3,-3
50487977324,1,-1,2,20,0,-3,-3,0
50487977324,-1,-2,-2,-5,0,0,0,1
50487986179,0,1,0,17,0,-2,2,0
50487986179,1,1,2,4,1,1,0,-4
50488001135,-3,-6,-10,-33,-14,-4,0,0
50488001135,-2,-2,-2,8,-3,-6,-5,-3
50488002675,0,1,-1,-8,0,1,-2,0
50488002675,-1,1,3,25,6,3,3,1
50488014740,1,2,3,13,2,-2,-6,-4
50488014740,-1,-1,-4,-12,-5,0,-35,0
50488023643,-3,-3,-2,-3,-1,1,45,38
50488023643,0,0,3,35,3,0,-4,-7
50488037377,-2,-3,-12,-84,-19,-2,1,1
50488037377,0,-1,-1,17,-3,-3,2,5
50488046150,2,0,1,7,2,-3,-16,-13
50488046150,0,-1,-2,1,1,-2,-3,0
50488061033,-1,1,7,30,0,2,8,6
50488061033,-2,-1,0,0,10,2,5,-7
50488062624,-2,0,-2,-20,-3,2,-9,-9
50488062624,0,-1,-3,-6,-2,1,9,5
50488074810,2,0,5,16,7,1,-10,-6
50488074810,-1,-1,-8,-18,-6,-1,8,1
50488083631,0,-1,-1,2,-3,-4,-5,-8
50488083631,-2,-3,-5,-12,-2,-3,-13,-4
50488097310,-1,2,7,43,4,0,2,-2
50488097310,-2,0,-2,-34,-4,1,4,0
50488106170,-1,-1,-3,-7,-3,-2,-4,-2
50488106170,-2,0,-1,-8,-5,-3,-1,-1
50488121228,-2,-2,1,16,5,0,-1,2
50488121228,-1,0,2,27,-1,-3,2,-3
50488122649,-1,-1,-1,-17,-1,-1,-8,-5
50488122649,0,-1,-4,-29,-3,0,-2,-4
50488134774,-2,-1,-4,-6,-8,-3,0,2
50488134774,-1,1,1,11,5,4,1,-2
50488143642,-1,0,-1,8,2,4,1,0
50488143642,-1,0,1,0,0,1,-1,-2
50488157198,0,-1,0,2,3,-2,-1,-3
50488157198,-1,-3,-2,-3,-5,-5,-2,-3
50488166140,0,0,1,14,7,8,2,2
50488166140,-1,-1,-2,2,-1,1,4,2
50488180489,-2,-2,-2,-1,-2,-2,-3,-4
50488180489,-1,-2,-1,4,-5,-5,-3,0
50488187318,-1,0,2,3,-5,-5,-5,-6
50488187318,0,-1,2,20,1,1,2,2
50488194776,-3,-4,-16,-85,-10,-2,-2,-2
50488194776,0,0,1,9,4,-1,0,-4
50488203659,0,-1,-1,-8,2,0,0,2
50488203659,-2,0,-2,-9,-9,-5,-1,-4
50488217366,0,-1,4,31,0,-3,-1,0
50488217366,-1,-2,-1,-6,-3,-5,-3,-3
50488226144,-1,0,-2,-11,2,2,4,2
50488226144,-1,1,1,9,4,6,-3,-5
50488248654,-1,0,2,18,8,1,0,5
50488248654,-1,-2,-4,0,-15,-3,1,-1
50488250153,-1,-1,-2,-29,6,1,-3,1
50488250153,0,-1,-1,3,0,-3,-1,-2
50488254655,2,0,-2,12,2,0,0,-2
50488254655,-1,0,5,26,1,0,-1,0
50488263592,0,1,0,5,-10,-6,-3,-3
50488263592,-2,-3,-3,-8,-2,-1,1,1
50488277292,-1,-1,4,10,3,0,0,-2
50488277292,-1,0,-2,-8,3,1,1,2
50488286170,0,-3,-1,-1,-6,-4,-2,-5
50488286170,-1,-1,0,5,-1,-3,-2,3
50488301117,0,1,-5,-22,-1,2,1,0
50488301117,1,-2,0,13,5,7,2,-2
50488302652,-2,0,-2,-6,-3,-2,-3,-1
50488302652,-2,-2,-1,3,-8,-13,-8,-5
50488314778,-3,1,4,18,5,-4,-9,-9
50488314778,1,-3,-14,-54,-20,9,15,21
50488323640,0,-2,0,19,6,5,-2,-1
50488323640,-1,-2,-3,-12,4,1,1,1
50488337287,-1,0,-1,-7,-6,-4,-2,-3
50488337287,-1,0,3,2,-1,-5,-7,-9
50488346144,0,-1,-3,3,-6,-6,-2,1
50488346144,-2,-1,-1,5,1,0,2,10
50488361098,0,0,3,25,5,2,3,2
50488361098,-1,-2,-2,-36,-1,-3,0,-4
50488362600,0,-2,-2,-3,-6,-1,0,-4
50488362600,0,-2,0,5,3,-1,-2,3
50488374663,1,-1,-2,1,0,0,0,-3
50488374663,0,-1,1,8,5,-2,-1,-1
50488383627,0,-1,-3,1,0,-1,-2,-3
50488383627,0,-1,-3,-13,-4,0,0,1
50488397213,-3,-1,-2,-9,-7,0,-2,-5
50488397213,-1,0,-2,7,1,-2,-2,5
50488406177,-1,-2,-1,-8,-5,-7,-3,-4
50488406177,-1,-1,0,-1,3,4,7,7
50488420508,1,0,-2,2,0,3,-2,0
50488420508,-2,0,3,14,5,-2,1,-37
50488427186,-4,1,1,-6,-6,-2,-2,7
50488427186,1,-1,-4,-10,-8,-3,-2,-3
50488434761,-1,-1,0,2,2,-1,4,7
50488434761,1,0,-2,-5,-1,-4,-9,-7
50488443668,-2,-1,-2,2,-3,-3,-5,-6
50488443668,-1,1,-1,-1,10,5,3,-2
50488457270,-1,1,2,4,1,0,-9,-5
50488457270,0,-1,3,28,6,0,1,7
50488466139,-2,-3,-8,-43,-4,-4,-1,-3
50488466139,0,0,6,32,5,-2,-5,0
50488480506,0,-1,-9,-39,-8,3,7,2
50488480506,-2,-1,5,8,0,-1,-2,7
50488487280,0,0,2,24,0,2,4,3
50488487280,0,0,2,0,-3,-3,-6,-16
50488494777,-2,0,3,30,4,-1,1,11
50488494777,-3,-1,-4,3,-3,-2,0,3
50488503663,1,-3,-5,-32,-5,-3,-11,-6
50488503663,-2,-1,-1,7,-4,-4,2,-9
50488517975,1,-1,2,-1,6,2,-1,0
50488517975,-2,-2,0,-5,2,5,-2,-2
50488524743,1,0,0,11,3,1,3,0
50488524743,-3,-2,-2,-3,-2,-3,3,0
50488540505,-2,-3,0,20,-10,-6,-7,-5
50488540505,0,-2,-4,-37,0,-2,1,8
50488547322,-1,-1,3,42,3,2,-2,-4
50488547322,-1,-3,-8,-39,-8,-1,-1,1
50488554761,-2,0,4,28,1,-1,-2,-3
50488554761,1,0,0,6,3,0,-4,-1
50488563649,-2,-1,1,24,8,-2,2,-1
50488563649,0,-1,-3,8,-10,-2,-2,5
50488578013,1,1,4,-8,6,5,3,-1
50488578013,-1,2,4,5,9,4,1,3
50488584778,-2,-7,-22,-78,-22,-7,2,-7
50488584778,0,-1,3,21,9,-2,-10,-7
50488600548,3,-1,-5,14,-7,1,-5,8
50488600548,-3,-1,-1,1,-1,1,11,13
50488607285,-1,2,7,49,8,-1,2,3
50488607285,-1,-2,-5,-37,-5,-3,1,-3
50488623575,2,-1,2,18,2,0,-3,-3
50488623575,1,-1,-1,-10,-2,0,-5,-3
50488625119,0,-1,2,11,-4,0,-3,6
50488625119,-2,0,-1,-6,-3,-5,-1,4
50488637809,0,1,8,68,12,3,5,2
50488637809,2,2,0,-31,7,10,9,-5
50488644752,-2,-4,-9,-52,-10,-3,-17,2
50488644752,0,-2,1,28,-1,1,2,11
50488660398,-5,-2,-4,-15,-3,-6,-1,-7
50488660398,0,1,6,55,3,-4,0,-5
50488667335,2,2,3,37,4,3,-4,-10
50488667335,-2,-2,-4,-23,-8,-3,-2,-1
50488683662,-1,-2,-2,-11,0,-3,-8,-1
50488683662,0,-2,-3,16,-9,-3,1,1
50488685129,2,2,6,27,8,3,-2,-7
50488685129,0,0,-2,-13,-1,1,-1,7
50488698021,-1,-5,-14,-46,-9,-2,8,-3
50488698021,0,0,-1,7,-8,-5,-9,-5
50488704740,-1,-1,-1,-16,-1,-2,1,-2
50488704740,0,0,2,20,5,1,2,-3
50488720461,-2,0,3,5,0,-2,2,-2
50488720461,-2,-1,-9,-21,-9,-2,-9,6
50488727171,-1,-3,0,-13,3,-1,4,3
50488727171,-1,-1,-4,-25,-1,1,-3,-4
50488743478,-1,0,0,9,-1,-1,0,-2
50488743478,1,-2,1,26,1,-1,1,1
50488745123,-1,1,7,11,6,1,1,-2
50488745123,-1,-3,-12,15,-9,0,-2,-2
50488757293,-2,-1,-2,-53,-4,-1,1,-2
50488757293,-1,-1,-1,-13,-2,-2,-3,3
50488766183,-2,-2,-1,0,-3,-2,0,-1
50488766183,1,1,4,11,6,1,-2,-7
50488780442,-2,-3,-3,-7,-3,-2,-3,1
50488780442,-1,-3,-4,-15,-3,-5,0,4
50488787303,-1,-1,1,9,2,-2,10,-8
50488787303,-1,1,5,-1,2,1,-7,10
50488803689,1,0,4,36,2,2,0,3
50488803689,-3,-4,-7,-24,-7,-3,-4,-4
50488805125,-1,-2,-3,-36,1,-2,5,2
50488805125,0,-3,-5,-13,-8,-3,4,-5
50488817297,-3,-3,-4,-25,-3,-4,-3,-1
50488817297,-1,1,3,49,2,-2,-1,-5
50488826146,0,2,-1,-13,4,3,1,4
50488826146,-1,-1,0,-4,-2,-1,-2,-3
50488840497,0,0,-2,-1,-2,-1,-2,0
50488840497,-1,-2,0,-6,-1,-2,-3,-5
50488847314,-1,1,-1,19,-3,-1,-5,-1
50488847314,0,1,4,-9,5,1,0,2
50488863633,0,-2,-8,-20,-7,-2,-1,0
50488863633,-2,-2,-2,22,-3,-1,3,1
50488865099,0,1,3,40,-1,0,-2,3
50488865099,-1,0,3,-26,2,-1,1,-2
50488877441,-3,-6,-16,-62,-13,-5,-3,-4
50488877441,1,0,-4,-1,4,1,-1,-2
50488886099,2,0,19,15,-1,-1,-6,-3
50488886099,-1,0,2,36,3,0,3,-1
50488900369,0,2,1,-1,3,0,-1,-1
50488900369,-3,-2,3,-7,-2,-1,-3,0
50488907312,-1,-3,-13,-38,-11,-2,-3,-2
50488907312,-2,-3,-3,-5,-2,0,0,-3
50488923658,0,1,2,2,0,1,1,0
50488923658,-2,0,-2,17,4,-1,-1,1
50488925059,-2,-1,-6,4,1,0,1,1
50488925059,-1,-5,-21,-91,-17,-5,-1,-5
50488937341,0,-1,3,30,6,0,-8,6
50488937341,0,0,7,48,3,1,2,0
50488946138,-2,-2,-9,-87,-11,-1,3,1
50488946138,-1,-2,7,36,1,-2,-2,1
50488960484,-2,0,2,3,1,1,7,-7
50488960484,1,0,-2,-12,1,2,-2,-4
50488974732,0,-1,1,35,2,-1,-4,0
50488974732,0,1,-2,3,-5,-1,-2,-4
50488983474,0,-1,0,-19,0,-3,-2,-2
50488983474,-2,-2,-2,-4,-8,-2,-1,-3
50488985034,-1,-1,-2,7,1,-2,-2,2
50488985034,-1,-1,1,12,2,1,2,0
50488997334,0,-1,3,16,2,0,-1,-3
50488997334,-2,0,0,-20,0,0,-2,-1
50489006123,-1,-1,-3,2,-1,-1,0,-2
50489006123,-2,-1,-1,-10,-1,-1,-3,-3
50489020487,0,-1,0,-5,-2,-1,0,0
50489020487,-1,-2,-5,-25,-2,-1,-2,-3
50489027159,-1,1,5,38,7,1,-3,2
50489027159,-1,1,2,15,0,-1,-1,11
50489043494,-5,-4,-6,-26,-3,-3,1,2
50489043494,1,0,-1,-13,0,0,0,-3
50489045074,-2,-4,-6,-5,-5,-3,3,-3
50489045074,-1,2,6,24,4,1,-1,-15
50489057224,2,-1,-1,7,-2,-2,0,9
50489057224,-1,-1,-1,-3,-3,-2,0,-3
50489066223,2,0,2,3,0,-1,0,5
50489066223,-1,0,-5,-19,-4,0,3,-7
50489080925,-1,2,1,15,1,-2,-12,-5
50489080925,0,-1,-1,-14,-1,-2,8,-1
50489087244,-1,0,0,1,0,1,-2,1
50489087244,-1,-2,0,5,-1,-1,-7,4
50489103540,-1,-2,0,8,-2,0,7,1
50489103540,-1,-1,-2,-4,0,-1,-4,-4
50489105099,-1,-1,-3,-1,0,-2,-3,0
50489105099,-1,-1,3,13,5,1,2,2
50489117234,-2,-2,-7,-45,-18,-6,-9,-7
50489117234,-3,-3,-1,-1,-1,1,14,12
50489126095,0,-2,-2,-4,-2,-3,-4,-2
50489126095,-1,-1,1,13,3,-2,-3,0
50489140422,0,-1,2,19,4,3,3,-5
50489140422,0,-1,-3,-14,-3,-3,-6,-7
50489147231,1,-1,-1,0,-2,0,-8,8
50489147231,-2,-2,-2,5,0,0,17,-6
50489163550,0,0,-1,4,1,0,2,-6
50489163550,0,-1,-2,-4,-2,-3,-8,0
50489165052,-3,-2,0,0,0,1,9,11
50489165052,0,-1,-3,-8,-3,-2,-8,-3
50489177230,-1,2,1,11,3,1,3,-2
50489177230,1,-1,-1,-6,-2,-1,-4,3
50489186119,0,0,1,-7,-2,0,-1,-7
50489186119,0,0,-3,-4,-3,-1,-3,-1
50489200441,-3,0,1,17,5,-1,1,13
50489200441,0,-1,0,6,-4,-1,-4,-5
50489207166,-1,-2,-2,-12,0,-1,-3,-11
50489207166,-1,0,-2,-1,0,-2,-3,3
50489223651,-1,-2,1,15,2,1,-1,-1
50489223651,-2,0,1,16,2,0,-2,-3
50489225102,-2,-1,-6,-48,-4,0,1,-3
50489225102,-2,-2,-2,-1,1,-1,-1,3
50489237190,-1,-4,-7,-22,-7,-3,-2,-3
50489237190,-2,0,1,-3,0,0,0,0
50489246098,-2,-2,-1,16,-1,-2,-2,-2
50489246098,0,-1,2,4,2,0,-2,-1
50489260492,0,1,0,-3,0,-2,-2,-4
50489260492,-2,-2,-4,-4,-4,-4,-3,0
50489267261,-1,0,0,7,2,0,-2,0
50489267261,-1,-1,-2,-4,-2,-2,-5,-16
50489283647,0,-2,-1,3,0,-1,1,10
50489283647,0,-1,-1,-3,-2,-1,-1,0
50489285048,0,0,1,4,-3,-1,4,-4
50489285048,-3,-1,0,-3,-1,-2,0,2
50489297297,0,0,1,7,0,0,-3,-4
50489297297,-1,-1,0,-3,0,-1,1,-3
50489306073,0,-2,-3,-14,-4,-1,-2,-11
50489306073,-1,-1,-4,-11,-3,0,0,8
50489320411,-1,1,1,3,1,0,2,-2
50489320411,-1,0,1,3,1,0,1,2
50489327280,-1,-1,-1,9,0,-1,-3,-4
50489327280,0,-1,-1,4,-2,-1,0,1
50489342953,0,-1,-3,-2,2,1,-1,-1
50489342953,-2,-1,-2,6,-1,2,4,-7
50489349854,0,0,-2,-10,-3,-1,-7,4
50489349854,-2,-1,0,2,-2,-2,4,4
50489357191,-1,-2,3,24,2,-3,-2,-2
50489357191,1,-1,3,-9,2,1,-2,-3
50489366162,-3,-4,-15,-32,-15,-5,3,-1
50489366162,2,1,6,49,12,6,0,5
50489380459,0,-4,-12,-97,-16,-1,-3,-4
50489380459,-2,1,5,30,5,-3,-4,-1
50489387290,1,-1,5,25,5,0,-1,1
50489387290,-1,-1,-1,-10,-5,-4,-5,-3
50489402813,-2,1,1,24,5,3,3,1
50489402813,-1,-1,-3,-1,-3,2,-1,2
50489409708,-2,0,0,0,0,-2,-2,0
50489409708,-1,-2,0,-1,-4,-3,-2,-2
50489417217,-1,-1,2,14,1,-2,-4,-6
50489417217,-2,-3,-5,-2,-3,-3,-2,4
50489426119,0,-1,-3,-42,-3,-1,-1,-1
50489426119,-1,-3,-3,-27,-7,-3,-2,-3
50489440510,0,1,0,7,0,-1,-2,-1
50489440510,-1,-2,-2,-9,-2,-2,-1,-1
50489447297,0,-1,3,31,4,1,2,1
50489447297,-1,0,-3,-4,-1,0,-2,-2
50489462974,0,-1,-3,-6,-2,0,3,0
50489462974,-2,1,4,21,6,1,-2,-4
50489469781,0,-1,-3,31,-3,-3,2,5
50489469781,-1,-5,-11,-73,-7,-3,-2,-3
50489477275,-1,-1,2,21,1,0,-2,1
50489477275,-1,-2,-2,-12,-2,-2,-3,-3
50489486097,-3,-1,3,18,4,1,-3,-10
50489486097,0,0,2,14,0,1,-3,-1
50489500496,0,-1,1,0,-2,0,3,-4
50489500496,0,-2,-1,-4,-2,-4,-2,10
50489507323,-2,-1,-2,-4,-3,-1,0,0
50489507323,2,1,0,10,4,2,2,-2
50489522962,-3,-1,0,-6,0,0,-2,-1
50489522962,-1,-1,-5,-10,-4,-1,-1,-5
50489529781,-1,-3,1,13,0,-4,1,0
50489529781,-3,-1,1,6,-1,-3,-1,0
50489546051,-1,-1,-1,-13,-2,0,-1,-1
50489546051,2,0,-3,-12,-2,1,1,3
50489547666,-2,0,-1,-4,1,-1,-3,-3
50489547666,-2,0,3,25,1,-1,-2,-1
50489560364,-2,-4,-4,-9,-4,-3,0,-4
50489560364,-2,-1,-4,-25,-7,-2,-6,-2
50489567315,1,-1,2,9,2,0,0,1
50489567315,0,-1,-5,-19,-1,1,2,-1
50489582920,-2,0,-1,8,1,-1,2,-2
50489582920,-1,-2,-2,-6,-1,-1,1,-4
50489589918,-1,0,-1,4,-1,0,-2,0
50489589918,-2,-1,0,4,-1,0,1,2
50489606128,-1,-1,1,12,-2,-2,-3,-1
50489606128,-1,-1,-2,5,-1,-2,0,-4
50489607630,-1,1,2,-3,2,1,0,-3
50489607630,0,1,1,22,5,4,2,3
50489620430,1,0,-2,-10,2,3,1,2
50489620430,-1,-4,0,5,-7,-4,-5,-4
50489627095,-2,-2,-3,-12,-7,-5,-4,-4
50489627095,-1,-1,-1,1,2,0,-2,0
50489643039,0,0,0,8,1,2,1,1
50489643039,-1,1,-1,-6,-1,0,1,0
50489649689,0,-2,0,2,-1,0,-1,1
50489649689,-1,-2,0,-1,-4,-4,-4,-3
50489666144,-1,-2,0,1,-3,-4,-3,-2
50489666144,-1,-1,0,3,-1,0,0,0
50489667633,-1,0,0,10,4,-1,-1,1
50489667633,-1,-1,-10,-55,-11,-3,-4,-4
50489679817,0,-1,0,-3,0,-1,-2,1
50489679817,-1,-1,1,27,0,-2,3,2
50489688630,0,0,4,12,6,1,-1,-1
50489688630,0,-4,-10,-36,-6,-1,-2,-2
50489702778,0,-1,2,21,3,-1,-1,-1
50489702778,-2,0,-1,-24,0,2,1,1
50489709705,0,0,-3,10,-6,-2,0,0
50489709705,-1,1,5,43,2,-2,-3,-2
50489726159,-4,-3,-4,-46,-11,-7,-4,-3
50489726159,-1,-1,-2,-20,6,3,4,1
50489727625,0,0,-1,-6,-1,1,2,2
50489727625,0,-1,3,6,12,7,4,1
50489739854,0,-2,-1,14,2,-1,1,5
50489739854,-2,-1,0,9,-4,-6,-5,-5
50489748605,-3,-3,-4,-21,-5,-4,-3,-4
50489748605,-2,0,1,19,-5,-6,6,-2
50489762855,-1,1,-1,-28,-1,-2,-8,-8
50489762855,-1,-5,-11,-26,-11,-2,-10,-1
50489769771,-2,-3,-3,-6,0,1,4,15
50489769771,-1,-3,-1,12,-1,-3,-2,-3
50489786135,1,1,2,22,3,-2,1,-1
50489786135,1,1,1,5,-2,-1,-2,-4
50489787617,1,0,-1,-9,1,3,4,-3
50489787617,0,-1,4,5,1,0,-1,1
50489800445,1,0,-1,18,-1,-1,2,0
50489800445,-1,-2,-4,30,1,0,0,1
50489807271,-1,-2,-15,-82,-16,-1,-4,-5
50489807271,-3,0,2,17,4,-2,0,-1
50489822947,-2,-2,-2,2,-2,-1,-1,-2
50489822947,-1,0,4,32,4,-3,1,-2
50489829738,-1,1,3,27,7,2,1,1
50489829738,-2,-1,-3,-19,-2,1,0,0
50489846155,0,-1,-1,1,-4,-3,-4,-4
50489846155,-1,2,4,-1,-8,-2,0,1
50489847682,0,-1,1,6,10,3,2,-4
50489847682,0,0,-2,-11,-2,0,-1,2
50489860465,-2,-2,1,12,3,1,-1,1
50489860465,-1,-1,0,-9,2,1,1,0
50489867297,-1,-1,-3,4,-15,-6,-5,-3
50489867297,-1,-1,-1,7,-1,-3,-3,-3
50489883011,1,0,4,21,3,1,2,-1
50489883011,0,-3,-10,-46,-3,-1,2,-1
50489889867,0,0,2,-7,2,-1,-2,-2
50489889867,0,0,0,8,6,4,2,-8
50489906049,-3,-1,-1,-10,-8,-4,-7,8
50489906049,-1,-1,3,16,3,3,0,1
50489907641,-1,0,4,21,1,-1,-2,-1
50489907641,0,-2,-9,-40,-13,-5,-3,-4
50489919642,-1,0,0,4,4,1,3,-3
50489919642,1,-1,2,1,3,1,-2,0
50489928620,0,-2,-2,-15,-2,0,-1,1
50489928620,0,0,1,9,-2,-3,-3,0
50489942966,-1,-1,-1,-2,-2,-3,0,-4
50489942966,-2,-2,-1,3,-1,-1,-5,4
50489949705,-1,-1,0,9,0,-6,11,-1
50489949705,0,0,0,5,0,0,-10,2
50489965970,-2,-1,-4,-8,-2,11,-2,0
50489965970,0,0,-3,-3,4,-9,-2,-2
50489967530,-2,-1,1,-1,0,-17,1,-3
50489967530,-1,-2,2,11,-2,21,1,-1
50489979757,0,-1,-5,-14,-1,-3,1,2
50489979757,0,1,1,4,5,7,2,-3
50489988604,0,0,4,35,1,-7,-7,-1
50489988604,-1,-3,-9,-61,-18,-10,-4,-7
50490002779,-1,-3,-2,12,7,1,-1,4
50490002779,-1,-2,-1,-3,-3,0,8,0
50490009785,0,1,2,14,3,7,-4,2
50490009785,0,1,3,20,4,-5,0,-4
50490026044,0,-1,-2,-14,-3,-1,1,-4
50490026044,-1,-3,-2,-5,-2,-4,-9,2
50490027615,-1,-2,-2,-6,0,3,2,6
50490027615,-1,-1,0,5,1,-3,3,-2
50490039657,-1,-1,-3,-17,-5,-6,-1,-2
50490039657,-1,1,3,33,3,0,1,-3
50490048638,-1,0,-4,-15,-3,5,-1,-1
50490048638,-1,-2,0,-3,3,-1,0,6
50490062897,-1,0,1,6,-1,0,2,-1
50490062897,0,-1,1,-7,-3,2,-3,-2
50490069635,-2,-1,1,4,-3,0,-5,-2
50490069635,-2,-2,-4,2,-3,-6,-2,-2
50490086019,0,0,2,-1,1,-2,0,-1
50490086019,1,0,1,11,3,2,4,1
50490087532,-2,-1,-3,-32,-4,2,-2,-3
50490087532,-1,-2,1,-5,-1,-1,1,2
50490099780,0,-2,-3,0,-5,-2,-4,-4
50490099780,-2,-2,-3,-6,-2,-3,-1,-3
50490108617,-1,0,2,7,3,2,1,0
50490108617,-1,1,3,36,0,-3,-1,-1
50490122817,-2,1,-2,-7,-4,-1,-3,0
50490122817,0,-1,-3,-12,-3,-3,-1,-2
50490129841,1,-1,-2,6,1,1,0,-1
50490129841,-2,-2,-1,-5,0,0,-1,0
50490146133,2,0,6,38,7,1,0,0
50490146133,-3,-1,-12,-87,-11,-2,0,0
50490147697,-1,-1,0,0,-3,-3,-3,-2
50490147697,0,0,1,5,1,-2,-3,0
50490159736,-1,-2,0,10,-1,-1,1,-3
50490159736,-1,-1,3,17,3,1,-1,-1
50490168623,1,0,0,17,3,2,0,-1
50490168623,-1,0,-11,-47,-4,-2,0,-1
50490183007,-2,-1,-1,-20,-1,-1,-1,-2
50490183007,0,-1,1,11,-3,0,-1,0
50490189622,-1,-2,-2,-5,-2,0,-4,-5
50490189622,-2,1,2,24,1,1,7,9
50490206121,-2,-1,-5,-7,-3,-1,-3,-1
50490206121,1,1,-1,-4,-2,-2,-1,-4
50490207530,0,-1,1,5,1,1,0,0
50490207530,-1,0,2,8,1,-1,-4,-1
50490227944,0,-1,-4,-24,-3,-2,-2,-2
50490227944,-2,-2,-2,1,0,0,0,0
50490228626,0,-1,-1,-10,-2,0,0,-1
50490228626,-2,-2,0,10,0,-1,0,-2
50490243615,0,-1,-3,-15,-4,0,-1,4
50490243615,-1,0,2,12,1,0,-2,-2
50490249720,-1,-2,-5,-7,-3,-4,0,-2
50490249720,-1,-1,0,3,0,0,-1,-1
50490264774,-1,0,2,10,2,0,0,-1
50490264774,0,-2,-5,-32,-4,-2,-5,-6
50490272232,-2,-1,-1,1,-2,-1,9,6
50490272232,1,-1,2,11,1,0,-2,-9
50490287765,0,-2,-6,-27,-1,-2,-10,7
50490287765,-2,0,-1,11,-1,-1,7,3
50490294722,0,-2,-2,-4,-1,0,2,5
50490294722,0,-1,-2,1,-2,-2,-3,-5
50490303635,0,1,1,16,0,-2,1,-4
50490303635,-1,0,-2,0,-3,-1,1,1
50490309704,0,1,0,-2,0,-1,-7,-3
50490309704,1,-1,-1,-1,-1,1,-1,3
50490324653,-2,-2,-1,2,-4,-2,-1,-2
50490324653,-1,-1,3,9,1,-3,-4,-4
50490332259,-1,-2,1,2,-1,-1,-1,-5
50490332259,-1,-2,-2,-10,1,1,1,2
50490347947,1,-1,0,3,1,1,0,-3
50490347947,-1,-2,-1,8,-1,-1,-3,-2
50490348594,0,-1,-1,-6,-1,-1,-4,-4
50490348594,-1,-1,-1,-5,-3,-2,-2,0
50490363615,-2,-2,-1,-1,-2,-2,-1,-1
50490363615,-2,-1,1,7,-2,-2,0,0
50490369668,-2,0,-1,-1,-2,-3,-7,0
50490369668,0,1,-3,1,4,5,2,3
50490384762,0,-1,3,15,2,3,3,-1
50490384762,1,-1,-6,-11,-8,-2,-3,0
50490392179,-2,-2,-2,-6,-4,-4,-4,-8
50490392179,-1,-2,-2,-3,-2,-2,-5,2
50490407931,0,0,0,6,-1,0,1,-2
50490407931,0,1,6,29,7,2,1,4
50490408570,-1,0,-5,2,-8,0,0,-4
50490408570,0,-2,-1,2,-3,-4,-2,-2
50490423637,0,-1,1,10,1,-1,-2,1
50490423637,-2,-1,-4,-18,-2,-1,-1,-4
50490429769,-3,0,0,13,4,2,0,1
50490429769,-2,-1,1,10,-1,-2,-1,-1
50490444798,-2,0,-1,-14,1,0,1,-1
50490444798,0,0,0,5,1,1,0,-1
50490452138,-1,-2,-1,-8,-4,-3,-1,0
50490452138,0,1,1,11,0,-1,-1,1
50490467896,-2,-2,-5,-43,-3,-2,0,-3
50490467896,-1,-2,4,17,2,1,0,-1
50490468538,0,0,-3,-1,4,2,-2,1
50490468538,-1,0,1,-10,-3,-2,-1,-3
50490483630,-2,-1,1,19,-2,-3,0,1
50490483630,-2,-3,-2,-19,-2,-1,-2,0
50490489912,-1,-2,0,8,0,-2,-1,-1
50490489912,1,0,-2,-4,3,0,1,-1
50490504556,-1,-3,-3,2,-1,0,0,-1
50490504556,-1,-1,-4,-17,-6,-1,0,-1
50490512225,0,-1,1,-4,2,-3,-1,-4
50490512225,-1,-1,3,29,1,2,0,0
50490527909,0,-1,-1,-13,0,-1,-2,-2
50490527909,-2,-1,-5,-6,0,0,-1,-1
50490528517,0,-1,-1,5,-1,-2,0,1
50490528517,-1,-1,-2,-12,-2,1,-3,-7
50490543614,0,0,1,18,-1,-2,5,12
50490543614,-2,1,2,17,2,0,-2,-2
50490549735,-1,1,4,16,1,0,-2,0
50490549735,-2,-5,-13,-46,-8,-3,-1,0
50490564733,0,-1,1,-22,-4,-2,-4,-6
50490564733,-1,-1,-4,-2,-5,-2,0,0
50490572234,-1,0,1,6,2,2,2,3
50490572234,1,0,3,17,2,1,0,-1
50490587964,-1,-1,-1,13,0,1,0,-3
50490587964,0,-1,-2,-6,0,0,0,0
50490588508,0,-1,-1,-10,-3,-1,0,-3
50490588508,0,-2,0,-3,-2,-3,-2,0
50490603626,-1,-1,-3,-8,-2,-1,-2,-1
50490603626,-2,0,2,9,2,0,1,1
50490609781,-2,0,0,-6,-3,-2,-3,-1
50490609781,-1,-2,-4,-13,-5,-2,0,1
50490624756,-1,-1,2,27,2,0,1,-3
50490624756,1,-2,-2,-16,0,-1,-1,0
50490632076,-1,-2,-7,-23,-6,-1,-1,-4
50490632076,-2,0,-1,1,-2,-3,-2,-4
50490647825,-4,1,0,6,-2,0,-7,-6
50490647825,-2,-2,1,18,2,0,2,7
50490648674,0,-1,0,9,3,1,2,0
50490648674,-2,-1,-3,-11,-6,-1,0,-1
50490663655,1,-1,-3,5,-3,-1,0,-2
50490663655,1,0,-1,-1,0,0,-2,-1
50490669593,0,-1,-1,2,-3,-1,-1,-1
50490669593,-1,-1,-5,-15,-2,-1,-1,0
50490684658,-2,0,0,-7,0,0,-1,-1
50490684658,-1,0,-1,-1,-5,-3,-3,-2
50490692250,0,-1,-2,-6,0,-1,-1,0
50490692250,-1,-1,1,10,2,0,-1,-1
50490707943,-2,0,2,2,1,-1,-1,-1
50490707943,0,-1,-5,-3,-5,1,0,-2
50490708522,0,0,3,-3,4,1,0,0
50490708522,0,1,1,4,-1,0,-2,0
50490723497,0,-4,-11,-75,-12,-2,-3,-2
50490723497,1,1,5,29,4,-2,-1,-2
50490729736,0,-1,-2,-3,-1,-1,-1,-1
50490729736,0,0,2,27,2,0,0,-2
50490744663,-1,1,1,23,2,-1,0,-1
50490744663,-1,-2,0,-17,-3,-1,-3,-4
50490752115,-1,0,-3,3,-2,-1,0,-1
50490752115,-1,-2,1,-12,-1,-2,0,0
50490767895,0,-1,-3,6,-1,-2,-1,0
50490767895,-1,-3,0,-3,-1,0,-1,0
50490768467,-2,-3,-6,-19,-6,-2,-2,-1
50490768467,0,0,2,8,1,-1,-1,1
50490783529,-1,0,0,-1,0,-1,-2,-2
50490783529,-2,-2,-5,-6,-2,-1,0,0
50490789741,0,-2,0,4,1,-1,0,0
50490789741,-1,0,-1,-3,-1,1,1,-1
50490804711,-2,-2,0,7,0,0,1,0
50490804711,-1,0,0,16,4,-1,0,-3
50490812231,-1,-2,-4,-39,-8,-3,-3,-1
50490812231,-3,-3,0,-3,-1,-2,-1,0
50490827929,0,-1,0,12,3,1,0,-1
50490827929,-1,1,3,12,2,-1,0,0
50490828489,0,-2,-4,-20,-7,0,0,-2
50490828489,0,-2,-2,5,-4,-2,-1,-1
50490843524,1,0,0,3,-1,-1,-1,0
50490843524,-2,0,-1,-15,-1,-1,1,-1
50490849627,0,-1,2,24,3,-1,-1,1
50490849627,-1,0,-2,-8,-4,-1,-1,-1
50490864758,-1,-2,-1,-5,-2,-1,-2,0
50490864758,-1,0,-1,2,1,0,0,-2
50490872233,-1,-1,4,20,3,-2,-1,-1
50490872233,0,-1,-6,-25,0,0,0,-3
50490887730,-1,1,-8,-42,-6,-2,-1,0
50490887730,-2,-11,9,2,2,0,0,0
50490888557,-1,0,-1,5,-3,-3,-2,-1
50490888557,-1,-1,3,5,3,0,1,-1
50490903652,-1,-1,0,16,2,-2,0,1
50490903652,-2,2,-5,-10,-3,0,-1,-1
50490909739,-1,-3,-2,-3,1,-1,0,0
50490909739,-2,-1,1,8,-1,-2,-2,0
50490924615,-2,0,-2,3,-1,0,-1,-1
50490924615,0,1,-3,-2,-3,-2,-2,1
50490932209,0,1,5,41,6,1,0,-1
50490932209,1,0,-3,-28,-2,1,0,-1
50490947968,-2,-2,-1,4,-1,-1,0,-3
50490947968,0,-1,-9,-35,-7,-1,0,-1
50490948501,0,-3,-5,1,-2,-1,0,-1
50490948501,0,-2,3,-8,2,1,0,-1
50490963621,-1,-2,2,18,1,-3,1,0
50490963621,-1,0,0,7,1,-1,0,-1
50490969596,-1,1,-2,-2,0,0,0,-3
50490969596,-1,0,-1,11,0,-1,-2,0
50490984712,0,0,1,10,0,-1,-1,-1
50490984712,-2,0,-1,-2,1,-1,-1,-3
50490992180,-1,-2,-3,-24,-1,0,-1,-1
50490992180,-1,-1,-8,-18,-3,-3,-2,-1
50491007719,0,-1,1,8,-2,-1,-1,0
50491007719,0,0,1,13,-1,-1,-2,-1
50491008571,1,-1,-2,-5,-1,0,-1,-1
50491008571,0,-2,2,10,-2,-3,0,-1
50491023484,-1,-1,-2,-5,-1,-1,-1,0
50491023484,-1,-1,-4,-9,-3,-1,-1,-1
50491029695,0,-2,0,-4,-1,-1,-1,-1
50491029695,-2,-1,0,6,0,-2,-1,-1
50491044541,-1,0,2,20,1,0,-2,-2
50491044541,0,0,1,-13,0,-2,-1,-1
50491052242,-2,-2,2,23,0,-3,-1,-1
50491052242,0,1,3,20,2,2,2,2
50491067829,-1,-4,-11,-75,-9,-2,-1,-1
50491067829,-1,1,2,27,2,-1,0,1
50491068569,-1,0,0,5,1,-1,0,1
50491068569,-2,-1,2,26,4,-1,-2,-3
50491083485,-1,-2,2,14,2,1,-2,-1
50491083485,1,0,-3,-11,-2,0,-1,0
50491089729,-1,-1,-3,-11,-2,-1,0,1
50491089729,-2,-1,-4,-7,-4,-1,-1,-1
50491104673,-1,0,0,8,0,-2,0,-3
50491104673,0,0,-3,-15,-1,-1,-1,-1
50491112170,1,0,-4,-1,-4,0,0,0
50491112170,1,-3,-1,-5,-1,0,0,-1
50491127852,0,-2,0,-2,0,-1,-1,-2
50491127852,0,-1,1,15,1,-5,0,-1
50491128620,-2,-2,0,-6,-1,-1,-1,-1
50491128620,0,0,-5,-12,-4,-3,-1,-1
50491143515,-1,-1,-1,10,1,0,-1,-1
50491143515,-1,-1,0,8,-1,0,0,-1
50491149675,-1,0,1,-11,-1,1,0,1
50491149675,-3,-1,-4,-19,-5,-1,0,0
50491164550,0,-1,1,6,2,0,-1,0
50491164550,0,-3,-3,2,-1,0,-1,-1
50491172148,-1,-2,-1,-3,0,-1,0,0
50491172148,-1,-1,1,13,-1,-2,-2,-1
50491187902,-1,-1,-1,1,0,-2,-2,0
50491187902,-1,0,-2,-7,-1,0,-1,0
50491188475,-3,0,2,16,0,1,-1,-1
50491188475,-1,-2,-10,-69,-7,-4,-1,0
50491203532,-2,-1,-1,1,0,-2,-1,0
50491203532,-2,-1,-1,5,-2,-3,-2,-1
50491209748,-1,0,-2,0,-2,0,-1,-3
50491209748,-1,-3,1,20,1,1,-2,-1
50491224653,0,0,-1,-5,-3,-1,1,0
50491224653,1,-2,-1,-8,0,0,-2,-1
50491232228,1,-1,-2,-1,-2,-3,-1,-1
50491232228,-1,0,1,6,1,-1,-2,0
50491247199,-1,0,-1,-4,2,2,-1,2
50491247199,0,0,4,30,-1,-2,-2,-1
50491254726,-2,0,0,-1,-2,-2,0,-1
50491254726,-1,-3,-3,-15,0,-1,-2,-1
50491263508,-1,-2,2,9,0,1,1,0
50491263508,-2,-1,-4,-23,-2,0,1,0
50491269624,-1,-2,0,17,1,1,0,0
50491269624,1,0,1,20,1,-1,-2,-1
50491284678,-1,0,-4,-4,0,-2,-2,-1
50491284678,-1,0,3,8,-1,-1,-3,-1
50491292154,1,-2,-4,-29,-6,0,-2,-2
50491292154,-2,-3,-7,-8,-3,-3,-1,0
50491307196,0,-1,-2,-5,-1,0,1,-2
50491307196,-1,0,-2,-3,-1,-1,-1,-1
50491314746,-2,0,-2,-1,0,-1,-2,-1
50491314746,-1,-1,1,9,-2,0,0,-2
50491323535,0,0,-2,4,-2,0,-1,0
50491323535,0,-2,-2,-9,-2,0,0,-2
50491329639,-1,-2,-1,-1,0,-1,0,-1
50491329639,1,2,2,12,3,0,1,0
50491344587,-2,-2,2,7,1,0,-1,-1
50491344587,-2,-3,-2,-21,-2,-2,-3,-2
50491352142,-2,-3,-8,-24,-3,-1,0,0
50491352142,1,0,-1,7,2,1,2,0
50491367097,-2,-1,0,9,-1,-1,-1,-1
50491367097,-1,0,1,23,0,-3,0,-1
50491375323,1,-3,-1,-22,1,-3,-1,-1
50491375323,-1,-2,2,18,1,-2,1,-1
50491382036,1,-1,1,8,1,-1,-1,0
50491382036,-1,-1,-1,-15,-2,1,0,-1
50491389661,-1,-1,-5,-29,-8,-1,-1,-1
50491389661,-1,0,-1,1,-1,-1,-1,0
50491404646,1,-1,-2,4,-1,-3,-3,-1
50491404646,-1,-2,0,13,2,-2,-2,-1
50491412150,0,-1,3,20,1,-1,0,0
50491412150,0,-1,-1,-13,-2,-1,-2,-3
50491427111,-4,0,2,-2,0,0,-1,-1
50491427111,0,0,2,26,-1,0,1,1
50491435226,-1,-1,-6,-24,-2,0,0,1
50491435226,-1,-1,1,14,1,-1,-2,0
50491450157,0,-1,-2,-5,-3,-3,-2,-1
50491450157,-2,-2,-1,11,2,-1,2,-1
50491450938,-2,-1,3,19,1,0,-3,0
50491450938,-1,0,1,12,-2,-2,-1,-1
50491472650,0,1,-1,-22,0,-1,-2,-2
50491472650,0,-4,-11,-35,-5,-1,-1,-2
50491473445,-2,-1,0,12,1,-2,1,-1
50491473445,-2,-2,-4,-12,-2,-1,0,-1
50491487095,0,0,-2,1,-2,1,-1,1
50491487095,1,-1,-2,-6,-1,-1,-2,-1
50491495307,-1,-2,0,2,0,-2,0,-2
50491495307,-1,-1,-1,7,-2,-3,-2,-2
50491510273,-4,-2,-1,-4,-5,-3,-1,-2
50491510273,0,0,0,-1,1,-1,-1,3
50491511018,-1,0,-2,3,1,0,2,-1
50491511018,-1,0,0,-6,-2,-1,-3,-2
50491524610,0,-2,-2,2,-3,-2,-2,-2
50491524610,-1,-2,-1,-10,-1,0,-2,-3
50491532137,0,0,2,15,1,-2,-3,0
50491532137,1,-2,-2,2,-2,0,0,-1
50491547115,0,-3,-5,-28,-3,0,1,0
50491547115,-1,1,1,13,4,1,1,0
50491555280,0,-2,0,8,-1,-1,-1,-2
50491555280,-2,-2,-1,-11,-5,-1,0,0
50491570245,-2,-2,-6,-31,-7,-2,-3,-2
50491570245,-2,0,0,-3,-2,0,-1,-1
50491571000,-1,1,3,21,6,-1,-2,0
50491571000,1,1,-1,7,-3,1,-2,0
50491584644,0,-1,1,9,2,-1,1,0
50491584644,0,1,0,17,-1,-1,-1,-2
50491592204,-1,-4,-6,-39,-3,0,0,-1
50491592204,0,0,5,26,6,1,2,1
50491607074,-2,-1,0,7,1,0,2,0
50491607074,-2,-1,0,0,0,0,-1,1
50491615326,0,-1,2,19,0,-1,-2,-1
50491615326,-1,0,-4,-18,0,0,-1,0
50491630277,0,-1,-2,-1,0,2,2,-2
50491630277,-1,1,-4,-15,0,-1,0,0
50491631088,-1,-1,-3,-3,-4,-1,0,0
50491631088,-2,-3,-5,-15,1,-1,-1,-2
50491644566,-1,1,1,8,-1,0,-1,1
50491644566,-1,0,1,4,0,-1,-1,-2
50491652109,-1,-1,-1,-4,-2,-1,-2,-2
50491652109,0,-1,0,1,-1,-2,0,1
50491667095,-1,0,0,10,0,0,1,-1
50491667095,-3,-2,-4,-18,-3,-2,-2,-1
50491675054,-1,1,-1,-2,-2,-1,0,-1
50491675054,-2,-2,-2,-5,0,0,-1,-1
50491690316,-1,-1,1,6,1,-2,-2,-1
50491690316,-2,-3,-1,-8,-5,-2,-1,0
50491691031,-1,-1,0,3,1,-2,-4,0
50491691031,-1,-1,1,-4,0,-1,-1,-1
50491704646,0,-1,-2,10,-3,-1,-1,1
50491704646,0,0,2,10,1,0,-1,1
50491712144,-2,-2,-4,-22,-2,-3,0,0
50491712144,-1,0,1,5,0,-1,0,-1
50491727110,0,-1,0,-6,4,2,1,-1
50491727110,0,-1,0,20,-3,-1,-1,-3
50491735265,-1,-3,-7,-51,-8,-2,0,-1
50491735265,-2,-1,-1,0,-1,-3,-1,-1
50491750299,0,-2,0,2,-3,0,-1,1
50491750299,-1,-1,3,12,3,1,-1,1
50491751029,0,0,1,16,3,2,0,-1
50491751029,0,-3,-2,-7,-2,-2,-2,-2
50491764693,0,0,0,1,0,-2,-1,0
50491764693,1,-2,-3,-17,-5,-4,-2,-1
50491772087,-2,-2,0,10,-2,-2,-3,-2
50491772087,-2,0,-1,-5,-2,-2,0,0
50491787259,-1,0,0,5,1,0,-1,0
50491787259,-2,-2,-1,-10,-2,0,-1,-1
50491795396,0,0,2,17,1,1,0,-2
50491795396,-1,-1,-3,-21,-2,0,0,0
50491810362,-1,0,-2,-6,-3,-2,-3,-2
50491810362,-1,-1,-3,-5,-1,0,-1,-1
50491810995,-1,0,1,11,2,1,1,0
50491810995,-1,-1,-1,7,0,1,-2,-1
50491824715,-1,0,-2,-6,-3,-1,0,1
50491824715,-1,-2,0,-9,-3,-2,-1,-2
50491832213,0,-1,1,14,-1,0,0,-1
50491832213,0,-1,0,3,0,0,0,1
50491847232,-2,-2,2,-5,3,-3,-1,-1
50491847232,0,0,-1,25,-2,0,-1,-1
50491855384,-2,-1,-4,-23,-3,-2,-1,0
50491855384,-1,0,1,-1,1,1,1,0
50491870360,-1,-2,0,11,1,-2,0,0
50491870360,0,-1,3,18,2,-1,0,0
50491870966,-2,-1,-2,-6,-2,-2,-3,-2
50491870966,-2,-2,-2,1,-2,-3,-2,-3
50491884696,0,-3,2,2,1,1,1,1
50491884696,-1,0,-2,-6,0,1,-2,-1
50491892023,-1,-1,-1,21,2,0,1,0
50491892023,0,-1,-4,-27,-8,-3,-4,-3
50491907128,-3,-1,-1,4,-1,-2,-1,-1
50491907128,-1,-1,-2,-17,-3,-2,-1,-2
50491915395,-1,-1,0,0,-1,-3,-1,0
50491915395,1,1,1,19,4,-1,-1,0
50491930382,0,-2,-3,-6,-3,0,0,1
50491930382,-1,0,-3,-18,-3,-2,0,-1
50491931017,0,-1,1,8,0,-2,-2,-1
50491931017,-1,-2,0,4,0,1,1,-1
50491944544,0,-2,-2,-8,-3,-2,0,-1
50491944544,0,0,-1,-2,1,0,0,-2
50491952263,0,-1,1,2,0,-1,-2,0
50491952263,-1,1,-1,4,-2,0,1,0
50491967227,-1,-1,-4,-11,-2,-3,-2,-2
50491967227,1,-2,-3,1,-3,-2,-1,-2
50491975399,-2,-2,-1,20,-1,-1,0,0
50491975399,0,0,6,24,5,3,0,0
50491990338,-1,-2,-6,0,-5,-1,0,-3
50491990338,0,-1,2,-2,1,-1,0,1
50491990923,1,-2,-4,-10,-1,-1,0,1
50491990923,-1,-2,-2,1,0,-1,-4,0
50492004509,0,1,4,34,1,-1,-1,-1
50492004509,-2,-2,-1,-21,-2,0,-2,0
50492012191,-1,0,-1,-10,-1,-1,-2,-1
50492012191,-1,-1,0,5,-3,-2,0,-1
50492028464,1,-2,1,-5,-1,-1,-2,-2
50492028464,-2,-2,-1,-5,-1,0,-1,1
50492035413,0,0,1,-3,1,3,2,2
50492035413,-2,1,-2,-5,-2,0,-1,-1
50492050401,0,0,-3,-13,-2,-1,-2,-1
50492050401,0,-2,-3,-3,-3,-3,-2,-1
50492050992,0,-1,0,10,1,0,-2,-3
50492050992,-2,-3,-6,-36,-6,-4,-2,-2
50492064671,0,-1,-2,-7,-3,-2,-3,1
50492064671,-2,0,1,12,1,-1,-1,-1
50492072162,-1,0,-1,-8,-1,-1,-1,-2
50492072162,-1,-2,-9,-13,-4,-3,-1,-2
50492087131,-2,-2,0,-1,1,2,0,0
50492087131,1,1,-1,-2,1,-1,-1,0
50492095276,-1,0,0,4,-2,-3,0,-1
50492095276,-1,-2,1,4,0,0,0,1
50492110143,0,0,-3,-6,1,-1,3,0
50492110143,-2,-1,-2,3,-3,0,-2,-2
50492111087,-1,0,-2,-13,-3,-2,-2,-3
50492111087,-1,-2,0,3,1,1,0,1
50492132906,-1,-2,-1,-3,-2,-2,-4,0
50492132906,0,0,-1,-1,4,-2,-1,0
50492133552,0,-2,-1,-3,-3,-3,0,-1
50492133552,-2,-2,1,1,-2,-1,1,-1
50492147106,-1,-2,0,-1,-1,-1,2,-2
50492147106,0,0,-1,3,-1,1,1,0
50492155392,0,-2,-3,-16,-2,0,-1,0
50492155392,0,0,-2,4,1,-1,-1,2
50492169692,-2,0,1,0,1,2,1,0
50492169692,-1,0,-1,-3,-1,-1,0,-2
50492177816,0,-3,-2,6,0,1,0,-1
50492177816,0,1,1,3,-1,-1,-1,-1
50492184654,-1,0,-3,-5,-1,-3,-4,-1
50492184654,0,-3,0,-1,-2,-2,-1,-2
50492192059,-1,-1,2,5,-1,-1,-2,0
50492192059,1,-1,0,-6,-2,0,1,-1
50492207194,-3,1,1,9,-1,-1,-1,-1
50492207194,-1,-1,0,-10,2,-1,0,2
50492215269,-2,-2,-9,-12,-4,-1,1,-2
50492215269,-1,-1,0,-13,-1,-1,-2,0
50492229793,0,-1,1,-5,-3,-4,-2,-2
50492229793,1,-1,-1,8,0,-1,-2,-1
50492237742,-1,1,2,13,2,1,1,1
50492237742,-2,-1,1,0,0,-1,-2,-3
50492244691,-1,-2,-1,0,-3,-2,-1,-1
50492244691,0,0,-1,-4,-1,-2,0,0
50492252120,-1,-1,-1,-4,-2,-2,-3,-2
50492252120,-1,-1,-1,6,0,0,0,-2
50492267178,1,-1,-2,-3,-1,1,0,-1
50492267178,-1,-3,-2,-2,-3,-1,-2,0
50492275276,-1,0,0,2,-1,-1,-3,1
50492275276,0,1,1,1,-2,-3,-1,-1
50492289682,0,-2,-3,3,2,3,0,0
50492289682,-2,0,0,-2,1,1,0,-1
50492297774,-2,-2,-2,0,0,0,0,-1
50492297774,-1,-1,1,11,-1,-2,-2,-1
50492304638,1,1,-1,-6,-2,-3,-2,-1
50492304638,-1,-2,-3,-3,-2,0,-1,0
50492312080,0,-1,2,2,-1,-1,-1,-1
50492312080,-1,-1,-2,-1,0,0,-2,-2
50492327158,-2,-1,0,5,1,0,-2,-3
50492327158,-2,-1,-4,-13,-1,-1,0,-1
50492335400,-2,-3,-3,-8,-1,-2,0,0
50492335400,0,-2,-1,10,0,0,-1,0
50492349699,-1,0,-1,-23,0,-1,0,0
50492349699,2,-2,-3,22,-5,-3,-3,0
50492357727,-2,0,2,6,2,-1,0,0
50492357727,-1,-3,-1,-13,0,0,0,-2
50492372816,-2,-1,0,12,1,-1,-3,-3
50492372816,-2,-1,-3,-16,-6,-1,0,-1
50492373447,0,-1,-2,-3,-3,0,-1,-2
50492373447,0,1,-2,9,0,-1,-3,-1
50492387157,-2,0,0,7,1,0,0,-1
50492387157,0,-3,-1,-6,2,-1,2,-1
50492395310,0,-1,-1,4,-1,-2,0,-2
50492395310,-1,-1,0,7,-2,-2,-2,-1
50492409702,-2,-2,-6,-43,-6,-3,-2,0
50492409702,-1,-1,1,4,3,2,0,0
50492417906,0,0,1,-2,0,-1,1,-2
50492417906,1,0,0,4,1,-1,2,-1
50492432859,-1,-1,4,12,-1,-3,-1,0
50492432859,-3,-2,-4,-10,-3,-2,-2,-2
50492433484,0,0,2,14,0,0,-1,0
50492433484,-2,-3,-9,-40,-7,-2,-1,-1
50492447186,-2,0,0,8,2,0,0,-2
50492447186,0,1,3,56,3,0,0,-1
50492455359,1,0,1,2,-3,1,-1,0
50492455359,-3,-4,-7,-26,-9,-3,-3,1
50492469671,0,-2,-1,13,-2,-1,-2,0
50492469671,-1,0,1,8,3,0,-2,-1
50492477711,-1,0,0,14,0,1,0,-1
50492477711,0,1,2,14,1,-1,0,-2
50492492838,0,-3,-1,-10,-2,0,-1,0
50492492838,-1,-1,2,5,-1,-1,-1,-1
50492493410,-1,-2,-2,-2,-1,-3,-1,-1
50492493410,-1,0,2,-6,-2,0,1,0
50492507164,0,0,-1,10,-2,0,-2,-2
50492507164,-1,-1,1,-7,-2,-3,-2,-3
50492515273,-2,-3,-7,-26,-5,-3,-1,-1
50492515273,-1,0,-1,2,1,-1,-1,-1
50492529593,-1,-1,2,23,2,-1,0,-2
50492529593,-1,0,0,-30,-3,3,0,0
50492537897,-1,-1,-5,-16,-2,-3,-2,-3
50492537897,0,0,3,15,2,-1,1,0
50492552915,-1,-2,-3,-4,1,0,-2,-1
50492552915,0,-1,1,6,-4,0,0,-1
50492553411,-2,-1,0,1,1,-2,-1,-1
50492553411,1,0,2,10,5,1,1,-1
50492567057,0,-1,-2,-9,-4,-3,-2,-2
50492567057,-1,0,-4,-25,-2,-2,1,-1
50492575352,0,-1,2,1,1,-2,-2,1
50492575352,-2,-1,0,14,-2,-2,-3,-2
50492589465,0,0,-4,-13,1,2,2,2
50492589465,-2,-2,-2,-2,-1,-2,-2,-2
50492597854,-1,1,1,4,-2,0,-1,-2
50492597854,-1,1,3,16,3,-1,-3,-2
50492612835,-1,-1,-9,-48,-7,-3,-1,0
50492612835,0,-2,-2,0,-1,1,0,1
50492613573,-1,-1,1,-1,-1,1,-2,-1
50492613573,-1,-2,1,2,0,-1,1,-1
50492627172,-2,-1,0,11,0,0,0,-1
50492627172,-2,-2,-1,-5,-1,-2,-2,-1
50492635299,-1,-2,1,6,-1,0,-1,0
50492635299,-2,0,-2,-19,-2,-1,-1,0
50492649745,-3,-2,-2,7,-2,-2,-4,-1
50492649745,-1,-1,0,0,0,-1,1,0
50492657791,0,-2,-2,1,1,1,2,2
50492657791,-1,-1,-2,0,0,0,-1,1
50492672862,0,0,1,7,1,-2,0,-1
50492672862,-1,-1,0,-3,-2,-1,-4,0
50492673488,-2,0,-2,6,0,-2,-2,-1
50492673488,2,-1,-2,-10,-6,1,0,2
50492687055,-1,2,1,10,1,0,-1,-2
50492687055,0,-1,-2,1,0,-1,0,-2
50492695369,0,0,-2,-8,-1,-1,-2,1
50492695369,-1,-1,1,7,1,-1,-2,-2
50492709719,0,-2,0,0,-2,0,2,-1
50492709719,-2,-3,-5,-10,-3,-1,-1,0
50492717726,-1,1,0,-4,0,0,0,-2
50492717726,0,-1,-1,-2,-2,0,-2,-2
50492732925,1,0,1,4,0,0,0,1
50492732925,-2,0,-2,-2,0,-1,1,0
50492733414,-1,-1,-1,-3,-2,-1,0,-1
50492733414,-2,-1,-1,-3,-1,0,1,0
50492747203,0,-1,-1,-3,-3,-2,0,-1
50492747203,0,0,0,2,0,-1,-1,-1
50492755166,1,-2,-1,-3,-3,-2,0,-2
50492755166,0,-3,-2,-4,-1,-1,-1,-1
50492769654,-2,-2,-1,-1,-1,0,-1,-1
50492769654,1,1,0,2,-1,-1,0,0
50492777853,-2,-3,-2,-2,-1,0,-2,-1
50492777853,-1,0,-2,-4,0,-2,0,-2
50492792833,1,-2,-1,0,-2,-1,-1,-1
50492792833,-1,-1,-1,1,-1,-2,0,-2
50492793415,0,0,1,-2,-1,0,0,0
50492793415,-1,-1,-2,-2,-2,0,0,0
50492807229,-1,-1,0,1,-3,-1,-2,0
50492807229,-1,0,0,-1,-1,-1,0,0
50492815253,-1,-1,-1,-1,1,0,0,0
50492815253,0,-1,0,-3,0,1,0,-1
50492829524,0,-1,-1,0,-1,-2,-2,-2
50492829524,0,-3,-2,-1,-3,-2,0,-2
50492837843,-1,-1,-3,-3,0,0,1,-2
50492837843,0,-2,-1,-1,-1,0,-2,-1
50492861002,-1,-1,-1,-1,0,0,-1,-1
50492861002,-2,0,0,2,0,-2,-1,0
50492861618,-1,-2,0,-1,-1,-2,-2,-4
50492861618,-2,-1,0,8,0,-2,0,0
50492867126,-2,-3,-2,-15,0,0,0,-1
50492867126,0,-1,1,0,0,0,-2,-1
50492875372,-1,0,-2,1,-3,0,-2,0
50492875372,0,-1,-2,-4,-1,-2,-2,-2
50492889646,-3,0,0,5,-1,-1,-1,0
50492889646,-1,0,0,-2,1,1,-1,-1
50492897884,-1,-2,-2,-3,-1,-1,-2,-3
50492897884,-1,0,1,3,-1,-2,1,-2
50492912774,-1,-2,0,7,-1,0,-1,-2
50492912774,0,0,-1,-4,-1,1,0,0
50492913506,-1,1,0,1,-1,-2,0,-1
50492913506,-2,-1,-1,-4,-1,-1,-1,0
50492927034,-1,-2,0,7,0,-1,-1,-1
50492927034,0,-1,-1,1,0,-1,-2,0
50492935323,1,-1,-1,-2,-2,-1,0,-2
50492935323,0,0,-4,3,-1,0,-1,-1
50492949688,-1,1,1,-5,-1,-2,0,0
50492949688,-2,-1,-3,-10,-3,-1,-1,-1
50492957761,-2,0,0,-1,0,-1,0,0
50492957761,-1,-1,0,-5,2,-1,-2,0
50492972628,0,1,0,3,0,1,-1,1
50492972628,-1,-1,-1,0,0,0,-2,-2
50492973417,-2,-1,-1,-2,-3,-1,-2,-1
50492973417,-1,-3,-1,0,-4,-3,-2,-2
50492987042,0,1,0,1,2,-1,-1,-2
50492987042,-2,0,-1,1,-1,0,0,0
50492995254,0,-2,-2,-1,1,1,1,0
50492995254,-2,-1,1,7,-1,-2,-2,0
50493009736,-1,-1,-4,-17,-2,-1,-2,-3
50493009736,-1,-1,0,14,0,-2,-1,-3
50493017838,-1,-2,-6,-15,-7,-3,-2,-3
50493017838,-1,0,0,-2,0,0,1,-2
50493032192,0,-2,1,6,-2,-2,0,-1
50493032192,-1,-1,0,3,1,-1,-1,0
50493040956,-1,-1,0,3,2,1,0,2
50493040956,0,-1,-2,-6,-3,0,-2,-1
50493047183,-2,0,-1,-2,-2,-3,-1,-1
50493047183,1,-1,0,-1,-1,0,-1,-1
50493056007,-1,-1,1,1,0,-2,-2,-2
50493056007,0,-1,-2,-6,-1,-1,-2,-1
50493069515,-1,-4,0,1,-1,1,0,-1
50493069515,-1,-2,-2,-6,0,-1,-1,0
50493078425,1,-1,1,5,-3,-1,-1,-1
50493078425,-1,0,2,1,0,0,0,-2
50493092164,0,0,-2,-1,-4,0,0,-1
50493092164,-2,-2,-2,-8,-1,-1,1,-1
50493100919,-2,0,-1,1,0,1,-2,-1
50493100919,1,0,-1,4,0,-1,-1,-1
50493107166,-1,0,1,8,0,1,0,0
50493107166,1,0,-2,-4,-2,-1,-2,-1
50493115941,0,1,0,3,3,3,2,1
50493115941,0,-1,-1,-1,-2,-1,1,0
50493129633,0,-2,-3,-5,-3,-3,-3,-2
50493129633,0,-3,-1,1,-4,-1,-1,0
50493138422,-1,-1,1,-4,-3,-3,-4,0
50493138422,-1,-1,-2,-3,0,1,0,-1
50493152148,1,0,-1,-5,-1,0,1,-2
50493152148,-2,-2,-1,-2,-2,-4,-3,-1
50493160974,0,-2,0,1,1,-2,-1,-1
50493160974,-1,-2,-1,-4,-1,-1,-2,-1
50493167162,-2,-1,-1,-1,0,-1,-1,0
50493167162,-2,-1,-1,1,-1,0,1,-2
50493175922,-3,-2,-1,-1,0,-3,-2,-2
50493175922,-2,-2,-3,-4,-1,-2,-1,-1
50493189662,0,-1,-1,-2,-1,0,-1,-1
50493189662,0,-1,-1,-1,-1,1,-1,-2
50493198474,1,-1,-1,-2,-1,0,0,1
50493198474,-1,-1,-1,-1,1,-2,0,-2
50493212201,0,0,2,15,3,0,-2,0
50493212201,0,1,1,2,1,1,-1,0
50493220969,-1,-2,-4,-16,-1,-1,-1,-3
50493220969,-2,-1,-2,2,-1,0,-2,-3
50493227146,-3,-2,-2,-4,0,0,-1,0
50493227146,1,0,2,15,2,0,-1,0
50493235933,-1,-1,-1,4,-1,-1,0,0
50493235933,-2,-2,-1,-8,-3,-1,-2,-1
50493249639,-3,0,1,2,-1,0,-1,-3
50493249639,-2,-1,-3,-5,-1,-1,-2,0
50493258478,0,0,-3,-1,-2,-1,-1,-1
50493258478,0,1,-2,8,-1,-2,-3,-3
50493272188,-2,-2,-1,-10,-2,0,2,5
50493272188,0,0,2,25,0,1,0,-1
50493280997,1,1,3,3,3,1,0,-1
50493280997,-2,-7,-26,-80,-18,-5,-3,-1
50493287147,-1,-2,1,23,-2,-2,-1,-2
50493287147,-2,-2,-2,-86,-4,-3,-2,-1
50493295971,-2,-2,-1,28,-4,-1,-2,-1
50493295971,1,3,8,39,8,3,3,2
50493309640,0,0,-1,4,4,0,0,-1
50493309640,-2,0,-2,10,-2,1,1,-1
50493318443,-1,-1,-1,-8,-3,-1,-1,-1
50493318443,-1,0,3,-1,2,0,-1,0
50493332130,0,-1,-3,-12,-2,0,0,0
50493332130,-2,-1,4,24,0,-3,0,0
50493340938,-2,-1,-3,-7,-3,-3,-2,-2
50493340938,-2,0,2,5,3,2,0,1
50493355927,0,-1,-1,-12,2,2,1,0
50493355927,-1,-1,-2,3,-1,-1,0,-2
50493357417,-3,-1,-1,-8,0,1,1,0
50493357417,-2,-1,0,6,-1,-2,-1,0
50493369618,-1,0,3,20,5,-2,-2,-1
50493369618,0,-2,-5,-4,-5,-1,-2,-1
50493378421,-1,-4,-8,-46,-8,-2,-1,-2
50493378421,-1,0,4,17,1,0,0,-2
50493392165,-1,-1,1,12,0,-2,-3,0
50493392165,-1,0,-1,1,-1,-1,0,1
50493400933,1,1,0,11,0,-1,-1,-1
50493400933,-1,-1,-1,1,-2,-1,0,0
50493416015,-1,0,-3,-10,-2,-2,-1,0
50493416015,-2,-1,-2,5,1,1,-1,0
50493417536,0,0,-1,4,3,3,0,0
50493417536,-2,-3,-2,-15,-4,0,-1,0
50493429650,0,-2,-1,2,-3,-2,-1,-2
50493429650,-1,-1,-1,-3,-1,-3,-2,-1
50493438451,-2,1,1,7,0,-1,-1,1
50493438451,0,-1,2,15,3,-2,2,0
50493451968,-2,-1,-3,-16,-3,-2,-3,-1
50493451968,-1,-2,-3,-1,2,4,1,1
50493460935,0,-1,1,-3,1,-3,-1,-4
50493460935,-1,1,4,50,2,-1,0,-1
50493475832,-2,-1,-2,-32,-4,-2,-1,0
50493475832,-3,-4,-8,-59,-11,-4,-2,-1
50493477389,0,-2,0,15,2,0,0,1
50493477389,-1,-1,0,3,2,0,-2,-1
50493489441,-2,0,-3,-20,-2,0,0,0
50493489441,-1,1,4,34,3,0,-1,-2
50493498392,-1,-2,-2,-9,0,-2,-1,1
50493498392,1,-2,-2,-8,-2,-1,-2,-1
50493512107,-1,0,-1,18,-1,0,-1,-2
50493512107,0,0,1,-5,-1,-4,-1,-1
50493520921,-2,-1,-1,0,-4,-3,-1,-2
50493520921,-2,1,-1,-4,2,0,-1,0
50493535901,-1,0,-2,0,-1,-1,0,0
50493535901,0,-3,-2,2,0,-1,-2,-1
50493537387,0,-3,0,6,1,-1,-2,-1
50493537387,0,-2,-2,-11,-4,-2,-3,1
50493549584,0,-2,0,-6,-2,-1,0,-2
50493549584,-2,0,-2,7,1,0,-2,-1
50493558455,-1,0,1,28,4,0,0,0
50493558455,-1,0,0,-22,-3,-2,-1,-1
50493572114,-2,-4,-8,-32,-4,-3,0,-1
50493572114,0,-1,1,10,0,-1,0,-2
50493580939,0,-1,-2,-3,-1,-1,-1,-3
50493580939,-1,0,0,8,0,-1,1,-2
50493595990,0,0,0,16,3,2,0,0
50493595990,0,0,-1,-1,-1,-2,0,-1
50493597415,1,-2,-2,-8,-2,-1,-1,0
50493597415,-1,-2,-2,-5,-3,-1,0,0
50493609644,-2,0,-1,4,0,1,1,-1
50493609644,-1,-1,0,0,0,1,1,1
50493618437,-1,-1,3,7,0,0,-2,0
50493618437,-2,-3,-7,-21,-4,-2,-1,-2
50493632137,-1,-1,0,5,-2,-2,0,-1
50493632137,-2,0,1,8,0,-2,-1,-2
50493640911,-1,1,-1,-5,-2,-3,-2,-2
50493640911,0,-2,-2,3,0,1,-1,1
50493655952,-2,-1,0,1,-1,0,-1,-1
50493655952,0,-1,0,5,-1,-1,-1,-1
50493657383,-1,0,-1,-5,-3,-2,1,-2
50493657383,-1,0,0,-3,1,0,0,-1
50493669590,-1,0,0,6,2,1,1,-1
50493669590,-1,-1,0,3,0,-1,-1,-1
50493678455,-1,0,0,15,-1,-1,-2,0
50493678455,1,0,-4,-16,-5,-2,-1,-2
50493692153,-1,-1,-2,-4,-1,-3,-1,-1
50493692153,-1,-2,-1,3,2,1,-1,0
50493700950,-1,-2,-1,-6,0,-1,-1,-1
50493700950,-3,0,2,8,2,0,0,0
50493716007,-1,-1,0,3,-1,-1,-2,-1
50493716007,-2,-1,-3,-5,-2,0,-1,0
50493717430,0,-1,0,-6,1,1,-1,1
50493717430,0,-1,-1,-1,-1,0,1,-1
50493729568,0,1,1,0,-1,-1,-2,0
50493729568,0,0,-2,-2,-1,-1,1,-2
50493738417,-2,-2,-2,-8,-2,0,1,0
50493738417,-2,1,0,5,1,-1,-1,-2
50493752042,-1,-2,0,14,0,-1,0,0
50493752042,-2,-2,-4,-19,-4,-2,-2,-1
50493760929,-1,-3,-3,-11,-3,-1,-1,1
50493760929,-1,-2,-2,0,0,0,-1,2
50493775904,-1,-1,2,10,-2,-2,0,-1
50493775904,2,-1,0,-6,1,-1,-1,0
50493777409,0,0,-5,-2,-1,3,1,-2
50493777409,-2,-4,2,15,-1,-4,-3,-2
50493789691,1,0,-2,-6,1,0,1,0
50493789691,-2,-1,3,6,-2,-1,-2,-2
50493798405,-1,0,-1,-7,-2,-2,0,-1
50493798405,-1,-1,-3,-8,-2,-1,0,-2
50493811981,-2,-2,-3,-1,-1,-2,-2,-2
50493811981,0,1,-2,1,1,3,2,0
50493820944,-2,-1,-1,1,1,1,-1,0
50493820944,-2,0,0,14,-5,1,-3,-1
50493835996,-3,-4,-7,-41,-8,-3,-2,-2
50493835996,-1,0,-1,8,1,-1,1,0
50493837428,-3,-2,-1,-6,1,0,-2,-1
50493837428,0,-2,2,8,2,0,0,1
50493849501,-2,-1,1,6,-1,-1,-1,0
50493849501,-2,-1,-2,1,-2,-3,-2,-1
50493858430,0,-2,0,4,-3,-2,0,-1
50493858430,0,0,-2,-5,0,-3,-1,-2
50493872149,2,0,1,15,3,3,0,-1
50493872149,-1,-2,-4,-27,0,-1,-1,-1
50493880923,-1,0,-1,5,-1,-1,1,-2
50493880923,0,0,-3,-12,-1,0,-1,0
50493895756,0,0,-1,5,0,-2,1,-1
50493895756,-1,-1,2,20,2,-1,-2,-2
50493897357,0,-1,-5,-33,-4,-1,1,1
50493897357,-1,-1,-1,-2,-1,-1,0,-1
50493909417,-1,-1,-3,-3,-1,1,-1,0
50493909417,-1,0,0,3,-3,-1,-1,-1
50493918349,0,-1,-2,4,0,-3,-1,0
50493918349,0,-1,0,-3,-3,-1,0,-1
50493931888,0,1,-1,-2,1,0,-1,0
50493931888,0,-2,-1,-1,-3,-1,-1,-1
50493940841,-1,-3,-1,6,1,-2,-2,-1
50493940841,-1,-1,-2,-4,0,-1,-2,0
50493955732,1,0,-1,0,-1,-3,-1,-4
50493955732,0,-3,-1,1,0,0,2,0
50493957371,-1,1,-1,5,0,0,-2,-3
50493957371,0,-2,-3,-4,-3,-2,-2,-2
50493969356,-1,-2,-1,-4,-3,-1,-2,0
50493969356,-2,-1,-2,2,0,1,-1,0
50493978386,-2,-1,0,2,1,1,0,1
50493978386,-1,0,1,-1,2,0,0,0
50493991833,-1,0,2,35,3,0,0,0
50493991833,0,0,-2,-35,-6,-2,-2,-2
50494001082,0,-1,-3,-11,-4,-2,-1,-2
50494001082,-1,-1,0,1,1,-1,0,0
50494015742,-1,0,0,5,0,-1,0,1
50494015742,-2,-1,1,24,3,-2,-1,-1
50494017367,-1,1,2,4,1,0,0,-2
50494017367,-2,0,-4,-12,-2,0,-2,0
50494029448,-1,-1,-1,-9,-3,0,-1,-1
50494029448,-1,-2,-2,-1,0,0,2,-2
50494038364,0,1,1,1,-2,0,-1,0
50494038364,-1,0,1,3,1,0,-1,0
50494051929,0,-2,-2,-11,-1,-2,0,0
50494051929,-1,-1,-2,-1,-2,0,-2,-1
50494060858,0,-2,-1,6,-1,-3,-2,-1
50494060858,1,-1,-1,0,-2,-1,-1,0
50494075124,-2,-1,-2,-8,0,-1,-1,-1
50494075124,0,0,1,0,-1,1,0,0
50494081930,0,0,-1,3,2,0,0,-1
50494081930,1,-3,0,0,-1,-1,0,-1
50494089428,0,0,-1,1,-2,-3,-2,0
50494089428,-1,-2,-2,-3,-2,0,-2,-1
50494098378,-1,0,0,2,1,-1,0,1
50494098378,-1,-1,0,-3,-1,0,-1,0
50494112630,-1,-2,0,4,-2,0,-1,-1
50494112630,-1,1,-1,9,-2,-2,-1,-2
50494119422,1,-1,0,-6,0,-2,0,-2
50494119422,-1,-2,-4,-3,-2,-2,-1,0
50494135290,-1,0,0,-1,0,0,1,0
50494135290,0,-1,-1,-2,0,0,0,-1
50494142005,1,-1,1,0,-1,-1,-1,-2
50494142005,0,0,1,0,0,-1,-1,-2
50494149628,-1,-2,-2,-7,-2,-1,-4,-2
50494149628,-1,-1,-1,4,-3,-2,-2,1
50494158471,-2,-1,0,3,0,0,0,0
50494158471,0,0,-1,14,1,-1,1,-2
50494172798,-1,0,-2,-19,0,-1,1,0
50494172798,-1,0,-2,1,-2,-3,-1,-1
50494179495,-2,-1,0,-1,-2,-1,-2,-1
50494179495,-1,-1,-1,-5,-1,0,-1,-1
50494195317,0,0,0,8,-1,0,1,0
50494195317,0,-1,-1,-4,-1,0,-1,-1
50494201967,-2,-3,-2,-5,-2,0,-1,0
50494201967,-2,-1,-1,0,-1,-2,0,0
50494209532,-2,-2,-1,-1,0,0,-2,-1
50494209532,-1,0,0,-8,-2,-1,0,-2
50494218422,-1,-1,0,2,1,-2,-1,-1
50494218422,-1,-1,1,-3,-1,-1,1,-1
50494232790,-2,-3,-2,-3,-1,0,-2,-1
50494232790,-1,-1,-1,-2,-1,-2,0,0
50494239661,-1,0,1,1,0,1,-2,-1
50494239661,0,-2,0,-5,-2,-2,-2,-1
50494255307,-1,0,-2,-2,-1,1,0,0
50494255307,1,-1,-1,4,-1,0,-2,0
50494262000,-1,-1,-4,0,-2,0,0,0
50494262000,-2,-2,-3,-6,-4,1,0,1
50494278433,-2,0,-1,-1,-1,-1,0,-1
50494278433,-1,0,0,-1,1,0,0,0
50494279880,-1,-1,-2,-3,0,-3,0,0
50494279880,0,0,-2,-2,-1,1,0,-1
50494292838,-1,-2,1,1,-2,1,-1,-1
50494292838,-1,-1,-1,4,0,-1,1,1
50494299549,0,-1,-2,-20,-1,-2,-1,-2
50494299549,-2,0,-1,2,-2,-1,-1,1
50494315262,2,-2,-1,-1,-1,-1,-1,0
50494315262,-1,0,0,5,1,-2,-2,-1
50494322150,-2,-1,2,12,0,0,-2,-2
50494322150,-1,-1,-4,-14,0,1,-1,-2
50494338511,-1,-1,0,-1,0,0,0,-1
50494338511,1,-3,-3,-1,0,-1,-2,-2
50494339857,-1,0,-1,11,0,0,0,-2
50494339857,0,-1,-2,2,0,0,-1,0
50494353057,-2,-1,-3,-1,-2,-2,-2,-1
50494353057,-2,0,-2,-2,-1,0,-1,0
50494359521,-2,-1,-3,-5,-1,-2,-3,-1
50494359521,1,0,0,-1,1,-3,-1,-2
50494375250,0,-1,-2,-3,2,-2,-1,0
50494375250,-2,-1,-2,-4,-3,-3,-1,-1
50494382015,0,0,-1,-4,-4,-1,0,0
50494382015,-1,-1,0,1,1,1,-1,-1
50494398300,0,0,0,1,0,0,-1,-1
50494398300,-1,-1,-1,-2,-2,-1,-1,-2
50494399897,-1,-1,1,11,-1,-2,-1,-1
50494399897,0,-2,-4,-23,-4,-3,-1,-2
50494412737,1,-1,1,0,-2,0,-1,-1
50494412737,-1,1,-2,-1,0,0,0,-2
50494419452,-2,1,-2,3,-1,-1,-1,-1
50494419452,1,0,0,11,0,2,0,-2
50494435263,-1,1,-2,-7,0,1,-1,0
50494435263,0,-1,-1,-4,-1,1,-1,0
50494442098,0,0,-1,-2,-1,1,0,-2
50494442098,-2,0,0,7,1,2,1,0
50494458853,-3,0,0,1,0,1,0,1
50494458853,-1,-2,0,-2,-1,-1,1,1
50494460329,0,0,-2,-2,1,2,0,0
50494460329,0,0,-1,2,-1,-2,1,1
50494472804,-1,0,-1,6,0,-1,1,0
50494472804,-2,1,0,-1,-1,0,1,0
50494479621,0,-1,-1,-4,0,-1,1,-1
50494479621,-2,-2,-2,1,-1,-1,-3,0
50494495288,-1,-1,0,-1,-2,-2,0,-2
50494495288,-1,-1,-1,-3,-1,-1,-1,0
50494501924,-2,-2,-2,-6,-2,-2,0,-2
50494501924,-3,-2,-1,4,-2,-1,-2,-3
50494518468,-2,-1,-1,-4,-1,-2,-2,0
50494518468,0,-2,-1,-1,-1,-2,-1,-3
50494519875,0,-3,-1,-1,-1,-1,-1,-1
50494519875,-1,-1,-1,-2,0,-2,1,0
50494532842,-2,-2,-1,-2,-3,-1,0,-1
50494532842,0,0,-1,-2,0,0,0,1
50494539487,0,-1,0,-2,-2,-2,-1,0
50494539487,-1,-1,-2,-3,-3,-3,-2,-2
50494555266,0,-1,-2,0,0,-1,-3,-1
50494555266,-1,-1,-1,2,4,0,-1,-3
50494562020,-1,-2,-2,-5,-5,-2,-1,0
50494562020,-1,-2,0,0,-1,-1,-1,0
50494578372,-3,-2,0,-2,-1,-2,0,-1
50494578372,-1,-1,-3,-1,0,0,-2,0
50494579849,-2,0,0,-2,1,-2,-1,-1
50494579849,0,-1,-1,1,0,-1,-1,-1
50494592729,0,-2,-2,-1,-2,-1,-1,-1
50494592729,0,-1,-4,-3,-1,-1,-1,0
50494599582,-3,-2,1,-1,-1,-2,-1,0
50494599582,0,-1,0,-3,-3,-1,-2,0
50494615292,0,-1,0,-1,0,1,1,-1
50494615292,0,-1,0,0,-3,-1,0,0
50494622076,0,-2,-2,-1,2,-2,-1,-1
50494622076,-2,-1,0,0,0,-1,-1,0
50494638344,-2,-4,-2,-4,-1,-1,0,0
50494638344,-1,-1,1,-1,-3,-2,-1,-1
50494639870,0,-1,-2,-2,-2,0,-2,-4
50494639870,-1,-3,0,2,-1,0,2,1
50494652971,0,0,1,0,-1,-2,-2,-1
50494652971,0,-1,-1,-2,-3,2,-1,0
50494659460,0,-2,-1,-2,0,-1,-1,-1
50494659460,0,1,0,1,0,-1,0,-1
50494675303,1,0,-3,-2,-1,-1,-1,-1
50494675303,0,-2,-1,0,-1,-1,-1,-1
50494681966,-1,0,-2,-1,-2,0,0,-2
50494681966,1,-2,-1,-1,0,-2,0,-3
50494698475,-1,0,0,3,-1,0,0,-1
50494698475,0,1,1,-1,0,-2,-2,-3
50494699871,-1,-1,-2,-1,-1,1,1,1
50494699871,-1,0,-1,-1,1,0,1,0
50494712777,-1,0,-1,-1,0,-1,-1,-2
50494712777,-1,-1,-2,-2,-2,-3,1,-2
50494719573,-2,0,0,0,-1,-1,-1,-2
50494719573,0,-1,-1,-1,1,-1,-2,-2
50494735313,-1,0,-2,-1,-2,0,-1,3
50494735313,-1,-1,-2,0,0,0,-2,-1
50494741984,-2,-1,0,-2,-3,-3,-2,0
50494741984,-1,-1,-1,-1,-3,-1,0,-1
50494758430,0,0,-2,-2,-2,-2,-1,-2
50494758430,-3,-2,0,0,-1,-2,-2,0
50494759881,1,-1,-1,0,0,-1,0,0
50494759881,-2,-2,-1,0,1,-2,-1,-2
50494772134,-1,0,-1,0,-2,0,-2,-1
50494772134,-2,-1,0,0,-2,-1,1,-1
50494780891,-1,-2,0,1,-1,0,1,-2
50494780891,-1,0,-1,-1,-3,-2,-3,-1
50494795332,-1,0,0,0,-1,-2,-1,-1
50494795332,-1,-1,0,-2,-2,0,-1,-1
50494801883,-1,0,-1,2,4,1,1,2
50494801883,1,-2,-2,-1,0,4,0,-1
50494818441,-2,-2,-2,-1,-1,-1,-1,-3
50494818441,-2,-1,-2,-1,-3,-1,-1,-3
50494819860,-1,-2,-2,-3,-2,-3,-4,-2
50494819860,-1,-1,0,0,-2,-3,-1,-1
50494832042,-1,-1,0,0,0,-2,0,-1
50494832042,-1,-2,-1,1,0,-2,-1,-1
50494840898,-1,-1,-2,1,-1,0,-2,-1
50494840898,-1,-1,0,0,0,0,1,1
50494855345,-2,-2,0,-1,-2,-1,0,-2
50494855345,1,-1,0,-2,1,2,0,0
50494862066,-1,0,-2,0,1,1,0,0
50494862066,0,0,0,-1,-5,0,-2,-1
50494878298,0,2,1,0,1,2,2,2
50494878298,0,0,0,2,0,1,3,1
50494879844,-2,0,-1,-1,1,-2,0,0
50494879844,-1,-4,-3,-1,-3,-4,-3,-1
50494891977,-1,-5,-4,-2,-3,-8,-6,-3
50494891977,-3,-2,-2,-7,-2,-5,-4,-2
50494900870,0,-3,-1,0,-1,-1,-3,0
50494900870,-2,-2,-2,-2,0,-4,-3,-2
50494915279,-1,-2,-2,-1,-1,-1,-5,-2
50494915279,0,0,-1,-1,-3,-1,-5,-1
50494921930,-1,-1,0,-2,-4,-3,-2,-2
50494921930,-2,1,-1,-1,0,3,2,0
50494938333,0,0,0,-1,0,3,1,1
50494938333,-1,-1,-1,1,3,0,1,-2
50494939864,-2,-1,1,-1,-2,-1,1,-1
50494939864,-1,-1,-1,0,-1,-1,-1,0
50494952084,-1,-1,-1,0,0,-1,-1,-1
50494952084,-2,0,-1,-1,-2,-1,0,0
50494960880,-2,-2,-1,-1,0,1,0,-2
50494960880,0,-2,0,-4,-3,-3,-2,-1
50494975025,-1,-1,-3,-3,0,0,-1,-1
50494975025,0,-1,-1,-1,-1,-2,0,1
50494982121,0,0,-1,1,0,0,-2,-1
50494982121,-2,-1,-1,0,0,-1,1,-1
50494997801,1,-1,-1,1,-2,-1,-2,-1
50494997801,0,-1,1,-2,-1,-1,-1,1
50495012779,-1,-2,-1,-3,-1,-2,1,-1
50495012779,0,-1,-1,-1,0,-1,-1,-1
50495013354,-2,-1,0,-1,-1,0,0,-2
50495013354,0,-2,0,-1,-1,0,-1,-1
50495020895,-2,-1,0,-2,-2,-1,-1,0
50495020895,-1,-1,-1,-1,-1,-2,-1,-1
50495035291,-1,0,0,0,-1,-1,1,0
50495035291,-1,-1,-1,-1,-1,-1,-1,0
50495042073,-1,0,-2,-1,-3,-1,0,0
50495042073,-1,-1,-1,-1,-1,1,0,0
50495057662,0,1,-1,-2,-2,0,-2,-1
50495057662,-2,-3,-2,-1,-5,-1,-1,-1
50495064396,-1,1,0,-1,-2,-2,0,-1
50495064396,-2,-1,-2,1,-1,-1,-2,-2
50495072080,0,0,-1,-2,0,-1,0,0
50495072080,0,1,0,0,1,1,0,0
50495080893,0,-1,1,-3,-2,-2,-2,-1
50495080893,-1,0,1,1,0,-2,0,-2
50495095179,-1,-2,-2,-2,0,-2,0,-1
50495095179,-2,-1,-2,-1,0,-1,-1,-1
50495101881,-1,-2,-1,0,0,-1,0,-1
50495101881,0,-1,0,0,0,-2,-1,1
50495117627,-1,-1,-1,-1,-2,-1,0,-1
50495117627,0,-2,1,0,0,-2,0,-2
50495124524,-1,-1,-1,-2,-2,-1,0,-1
50495124524,0,-1,-4,-1,-1,1,-1,0
50495132016,0,-1,0,-1,0,1,-2,1
50495132016,-1,-1,-2,-2,-1,-1,-1,-2
50495140876,-1,0,-1,-1,-2,-1,-2,0
50495140876,0,0,-1,-2,-1,-1,0,-3
50495155088,0,-1,-2,0,-1,-2,-2,-1
50495155088,0,0,-1,0,-2,-2,0,1
50495162072,-1,-2,-1,-1,2,-2,-1,-2
50495162072,-2,0,-1,-2,-4,-3,-1,-2
50495185948,-1,-2,0,-1,-1,-2,-3,-4
50495185948,-2,0,-1,0,0,0,1,1
50495187295,2,1,-1,0,3,3,4,1
50495187295,-1,-1,-1,-2,-1,1,2,0
50495200976,-2,0,1,-1,-1,-1,0,-3
50495200976,0,-1,-2,-2,-5,-4,-3,-2
50495202318,-2,-2,0,-2,-2,-1,-4,-3
50495202318,2,0,-1,-1,1,1,-1,1
50495215252,0,0,-3,0,0,-1,-1,0
50495215252,-1,-2,0,0,-2,0,0,-2
50495221988,-2,-1,-1,-1,-2,-1,0,-1
50495221988,0,-1,-1,-1,0,-1,-2,-1
50495237624,-1,0,0,-1,-1,-1,-1,0
50495237624,1,-1,-1,0,0,-1,1,0
50495244361,-1,-1,-3,-1,-2,-2,-2,-2
50495244361,-1,-2,-1,-2,-2,-3,0,-2
50495260939,0,-2,0,0,-1,-1,1,-1
50495260939,-2,0,-1,-2,1,-2,-1,-1
50495262325,0,0,-1,-1,0,0,-1,-1
50495262325,0,1,0,-2,0,0,-1,-1
50495275240,-1,0,-1,1,-1,0,-1,0
50495275240,-1,-2,0,-2,-1,0,-1,-2
50495282012,0,-2,-2,-1,-3,-2,-1,-1
50495282012,-2,-1,-2,-1,-1,0,-1,-2
50495297845,0,-2,-3,-2,-1,-1,-1,-2
50495297845,0,-2,-1,0,0,-1,-2,0
50495304568,-2,-1,-1,-1,1,-2,-2,0
50495304568,0,-1,0,1,-1,-1,0,0
50495320978,0,0,-1,-2,0,1,0,2
50495320978,-1,-1,0,-1,0,-2,-1,-1
50495322279,0,-1,0,-2,-3,-1,0,-3
50495322279,0,-2,-3,-3,-1,-3,-2,0
50495335269,-1,-1,-1,0,0,0,-1,-1
50495335269,-1,-1,0,0,0,-1,0,1
50495342082,-1,-1,0,-1,0,-2,-1,0
50495342082,-3,0,1,0,0,-1,-1,-1
50495357761,-1,-1,-1,-1,-2,-1,0,0
50495357761,-3,1,0,-4,-2,-1,-1,-1
50495364491,0,-1,-1,0,-1,-2,0,0
50495364491,-1,-1,-1,-2,-2,-1,0,-1
50495380827,-1,-3,-1,-1,-1,-2,-1,-1
50495380827,-1,0,0,1,-1,-2,0,-1
50495382344,0,-1,-2,1,-2,0,0,0
50495382344,-1,1,-1,-1,-1,-1,-1,-1
50495395150,-1,-2,0,1,0,-2,-2,-1
50495395150,0,-1,-2,-2,-1,-1,0,-1
50495401873,-1,-1,-1,-1,0,-1,0,-1
50495401873,-2,-2,-2,-1,-2,-2,0,-1
50495417693,-1,2,-1,-2,-1,0,-1,-1
50495417693,-1,0,-1,0,-1,-1,0,0
50495424493,-2,-2,0,-2,-2,0,-3,0
50495424493,-1,-1,0,-2,0,-2,0,-2
50495440913,0,0,-1,0,0,0,0,-1
50495440913,1,-1,-1,-2,0,-1,0,-2
50495442298,0,0,-2,-2,-1,0,-2,-1
50495442298,-2,0,1,0,-1,-1,-3,-1
50495455115,-1,-2,-2,0,-1,-2,2,-1
50495455115,-2,-1,-2,-3,-1,0,-2,0
50495462071,-1,-1,0,-1,-3,-1,-1,-1
50495462071,-2,0,-2,-2,-2,0,-2,0
50495477699,-2,-1,-1,0,-2,-2,-2,0
50495477699,-1,-2,-1,0,1,0,1,0
50495484444,-1,0,-2,-1,0,1,-1,-1
50495484444,-2,-2,-1,-1,-1,0,0,-1
50495500976,0,0,-2,-2,-1,-2,-2,-1
50495500976,0,0,-2,1,-2,-1,-2,-3
50495502337,0,0,-1,0,0,0,0,-1
50495502337,-1,-3,-2,1,1,0,1,1
50495515239,-1,-3,-2,-1,-1,-2,-1,-1
50495515239,-2,-1,-1,-1,-3,-1,-3,-1
50495522057,-1,-1,-2,-1,-1,0,0,-1
50495522057,1,0,0,-2,-2,-1,0,-1
50495537728,-2,-1,-1,-1,0,0,0,0
50495537728,1,-1,-1,0,-2,-1,-2,-1
50495544579,-1,-1,-3,-1,0,-2,-1,0
50495544579,0,-1,0,-3,-3,-2,-2,-1
50495560935,-1,-1,-2,0,0,1,-1,-1
50495560935,-2,-1,0,-2,2,1,-1,-1
50495562401,0,-1,-1,-2,-3,-3,-1,0
50495562401,1,0,-2,1,2,-2,-2,0
50495575272,-1,-1,-1,-2,-4,-2,-1,-1
50495575272,-1,0,-1,0,-1,1,0,-1
50495582056,-1,0,1,0,-1,2,1,0
50495582056,-1,0,-2,-1,0,-1,0,-1
50495597841,0,-1,0,-2,0,0,-1,0
50495597841,2,-1,-1,0,-2,0,1,-1
50495604567,-1,-1,-2,-2,0,-2,-2,-2
50495604567,-2,-1,-1,0,-2,0,1,-2
50495620928,-2,-2,-1,-2,-1,-1,1,-1
50495620928,-1,-1,-1,-1,-2,0,-1,-2
50495622340,0,-1,1,-1,-1,-1,-2,-1
50495622340,0,-1,-2,-1,-1,-1,-2,0
50495635262,-1,-1,0,-1,-2,0,-1,-2
50495635262,-1,-1,-3,0,0,-1,-2,-1
50495642032,-1,0,0,-1,-2,-2,-2,0
50495642032,-2,0,-1,-2,-2,0,-1,0
50495657693,-2,-1,-1,-3,-1,0,-1,0
50495657693,-1,0,0,-2,-1,-2,0,-1
50495664590,0,-1,-1,1,-1,-1,-1,0
50495664590,-1,-1,-1,-1,2,0,-1,-1
50495680893,-1,0,0,1,-1,0,-1,-1
50495680893,-2,-1,-2,-2,-2,-1,-1,0
50495682299,-1,-1,-1,-2,-1,-3,1,-1
50495682299,-1,0,-2,-1,0,-1,-1,0
50495694572,1,0,0,1,0,1,-1,-1
50495694572,-2,0,0,1,0,0,-1,-2
50495703351,-2,-2,0,-4,-2,1,-1,-2
50495703351,-2,-1,-1,0,-1,0,-1,-1
50495717710,0,-1,0,-1,-1,-2,-1,0
50495717710,0,-2,-1,0,0,-2,-1,1
50495724541,-1,-1,0,0,-1,1,0,-1
50495724541,-1,-1,-1,0,-1,-1,-1,-1
50495740886,-2,-1,-2,0,-2,0,0,-2
50495740886,-1,0,-2,-1,0,-3,-1,0
50495742402,0,-1,0,-1,-1,-3,1,0
50495742402,-2,-2,-1,-3,-2,-1,1,-1
50495754600,-1,-1,-1,-2,-1,-2,-3,0
50495754600,-1,-2,-2,-1,-3,-1,0,0
50495763370,-1,-1,-1,1,-1,1,-1,-1
50495763370,0,-1,-2,-1,0,0,-2,-2
50495777633,-1,0,0,-1,0,2,1,0
50495777633,-2,-1,0,-2,-2,-2,0,-2
50495792090,0,0,-2,-1,-1,-1,-2,0
50495792090,1,-1,-2,0,0,-2,0,0
50495800907,0,-1,-2,0,-2,0,0,0
50495800907,0,-1,-1,-2,-1,1,-2,-2
50495802287,-2,-2,0,0,-1,-1,0,-2
50495802287,0,0,0,-1,-2,1,-2,0
50495814522,-2,-1,-1,-2,-2,-2,0,-1
50495814522,-1,-1,-1,1,-2,-2,0,-1
50495823350,-2,0,-3,-1,-2,-3,-2,-2
50495823350,0,-1,-1,1,0,0,0,0
50495845913,-1,-1,0,-3,0,-1,-1,-1
50495845913,-2,-1,-2,-2,1,1,-1,-1
50495847330,0,0,-2,0,-2,-1,-1,-1
50495847330,-1,-1,1,-1,-2,-2,-2,-1
50495860090,-2,1,0,0,0,0,-1,-1
50495860090,-2,-3,0,-3,0,0,-1,0
50495860825,0,-1,-3,-1,0,-1,-1,-2
50495860825,-1,-2,-2,0,-1,-2,1,-2
50495882689,0,-2,-2,-1,-3,-2,-2,-1
50495882689,0,0,-1,-2,-2,0,-2,-1
50495883305,-1,-1,0,0,-1,-1,-1,0
50495883305,-2,0,-1,-3,-4,-1,0,-1
50495898346,0,-1,-1,0,1,-1,-1,-1
50495898346,-1,-1,0,0,-1,-1,1,-2
50495904395,-1,-3,0,-1,0,-1,0,0
50495904395,1,-1,-2,0,0,-3,-2,-1
50495920111,0,1,-1,0,-1,-2,-1,1
50495920111,0,0,-1,-2,0,-1,0,0
50495920874,-1,0,1,-1,-1,0,-1,1
50495920874,2,14,13,10,2,35,16,6
50495942560,1,7,3,9,6,11,15,5
50495942560,1,3,0,5,4,0,7,3
50495943363,-2,-7,-7,-5,2,-18,-1,-2
50495943363,-4,-14,-9,-11,-4,-29,-15,-7
50495958344,-2,-11,-7,-9,-7,-16,-16,-6
50495958344,-1,-8,-5,-6,-4,-12,-11,-5
50495964500,-1,-4,-2,-7,-5,-6,-11,-5
50495964500,-1,-4,-2,-4,-2,-3,-7,-1
50495979549,-2,0,0,-3,-2,-1,-5,-2
50495979549,-1,-2,-1,0,-3,-1,-4,-2
50495987053,-1,2,0,3,0,7,1,1
50495987053,0,0,-1,1,0,3,1,-2
50496002575,-1,0,-1,-1,0,1,2,-2
50496002575,-2,1,0,0,-2,3,1,2
50496003308,0,1,0,0,0,6,3,0
50496003308,-1,0,-1,2,0,0,2,0
50496018363,0,-1,-2,0,-1,0,0,-1
50496018363,-1,0,1,0,-1,3,1,-1
50496024394,0,2,0,2,-1,4,1,-2
50496024394,-1,-2,-1,-2,-2,-3,0,1
50496039567,0,-1,-1,-2,0,0,0,-1
50496039567,-1,0,2,1,1,0,1,-1
50496046938,-1,-1,-1,-1,-1,-2,-1,0
50496046938,-1,-1,-2,0,-3,-3,-2,-1
50496062675,-3,1,0,0,-3,-1,0,-2
50496062675,1,0,0,-2,0,2,0,-1
50496063297,-1,0,1,0,0,0,-1,-1
50496063297,1,1,-1,-3,0,-2,0,0
50496078350,-1,-2,-1,-1,-3,-1,0,-2
50496078350,-1,-1,-2,-1,-2,-3,-1,0
50496084410,-1,-1,-1,-1,-2,0,0,-1
50496084410,-1,-1,-2,0,0,0,-1,-2
50496099518,0,-2,0,0,1,0,0,0
50496099518,1,0,-2,-1,-2,-1,0,0
50496106997,0,-1,-1,0,0,-1,0,-2
50496106997,0,-2,-2,-2,-1,-2,-2,-1
50496122578,-1,0,-2,-2,-1,-2,-2,-2
50496122578,-2,-3,-2,-2,-2,-1,0,-2
50496123481,0,-1,0,1,-1,0,0,1
50496123481,-2,-1,-1,-1,-3,-3,-2,-2
50496138345,-1,-1,-2,0,-1,1,-3,0
50496138345,-1,-1,-2,-1,0,-1,-2,-1
50496144529,-1,-1,-2,-2,-2,-2,-1,-1
50496144529,-2,0,-1,0,0,-1,0,-2
50496159406,1,0,-1,0,-2,3,0,0
50496159406,-1,0,3,3,1,2,1,-1
50496166980,-2,0,0,0,1,-1,-1,0
50496166980,-1,0,-2,0,0,0,0,-1
50496182636,0,-2,-2,-3,-1,-3,-2,-1
50496182636,-2,-3,-3,-2,-1,-4,-3,0
50496183300,0,0,-1,-3,-2,-3,-3,-3
50496183300,0,-1,0,-3,0,-2,-2,-1
50496198356,-2,0,-2,1,-3,-2,-1,-1
50496198356,0,-2,-1,-4,-4,-3,-2,0
50496204540,-1,-2,-2,0,-1,-1,-2,0
50496204540,-1,-1,0,-1,-2,-1,0,-1
50496219466,0,0,0,-1,-1,-2,-1,-2
50496219466,-1,0,-2,0,0,-2,-2,-1
50496227026,-2,0,-1,0,-2,-2,0,0
50496227026,-1,-1,0,-1,0,-1,-2,0
50496242709,-1,0,-1,-2,0,-2,0,-1
50496242709,0,-1,-2,1,-1,1,0,-1
50496243270,0,0,-1,-1,-3,-1,-2,-2
50496243270,-2,-1,-3,-2,-1,-1,0,-1
50496258314,-1,-1,1,-2,1,-1,-1,-1
50496258314,-1,1,0,-1,-1,-2,-1,-1
50496264345,0,-1,0,-2,-1,0,1,0
50496264345,-2,-1,-1,1,-2,0,-1,-1
50496279525,0,-1,-2,0,-1,-1,-1,-2
50496279525,-2,-1,0,0,1,-1,0,-2
50496295179,0,-2,0,-2,0,1,-1,-1
50496295179,-1,0,-1,0,0,0,0,-1
50496302480,0,-1,-1,-2,-1,0,-2,-2
50496302480,-1,-1,-1,0,-2,-1,-2,-1
50496303322,-1,1,-2,0,-4,-1,-1,-1
50496303322,-2,-1,-1,0,0,0,-1,-1
50496318322,-3,-2,0,0,0,-1,2,0
50496318322,0,-2,1,1,0,-1,0,-1
50496324566,0,0,-3,-3,0,-1,-2,0
50496324566,0,-1,0,-1,-2,-2,-1,-1
50496339483,-1,1,0,-2,0,1,-1,0
50496339483,-1,-1,-1,0,0,-1,0,1
50496347002,0,0,0,-1,1,-1,0,-1
50496347002,0,-2,-1,0,-1,0,0,-1
50496362702,1,-1,0,-1,-2,-2,-2,-2
50496362702,-1,0,-1,-4,-2,-1,-2,-1
50496363273,0,-1,0,0,-1,-1,0,0
50496363273,1,0,-1,-2,0,-1,0,-1
50496378326,0,0,-1,-2,0,-1,-1,-1
50496378326,1,1,0,0,0,-1,-1,-1
50496384489,0,-1,-1,0,-2,-1,-1,-2
50496384489,0,-1,-1,-2,-2,-1,-2,0
50496399514,-1,-1,-2,-1,-2,-2,-1,-1
50496399514,-1,-1,-2,-2,2,-1,-2,-1
50496407015,-1,-3,-3,-1,0,-1,-1,-1
50496407015,-1,-1,-2,-1,-1,-2,-3,-1
50496422689,-1,-2,1,1,-1,-1,0,0
50496422689,-2,-3,-2,-2,-1,-1,-1,-2
50496423261,0,0,-1,-1,0,-1,-1,1
50496423261,0,-1,0,1,0,0,-2,0
50496438352,-2,-2,-2,0,0,-1,-2,-3
50496438352,-1,0,1,0,-1,-2,0,-2
50496444377,-1,-1,-1,-1,2,0,0,-1
50496444377,-1,0,-1,-2,-1,-1,1,-1
50496459595,0,-1,0,-1,-1,-1,-2,0
50496459595,0,-1,-2,-1,-2,-1,-3,-2
50496466856,-1,-1,-1,-2,-1,0,-2,0
50496466856,-1,0,0,-1,1,0,-2,0
50496482697,-2,0,-1,-1,-2,-1,0,-1
50496482697,0,0,-2,-1,0,0,1,-1
50496483371,-1,-2,-1,-2,-1,-1,0,-1
50496483371,-3,-1,-2,-2,-4,-1,0,-2
50496498328,0,0,0,-1,-1,-2,-1,-2
50496498328,-2,0,-2,-2,-2,-1,-1,1
50496504516,0,-2,-1,-2,0,-1,0,0
50496504516,-1,0,1,-1,0,-3,-2,0
50496519584,0,-1,0,-2,-1,-1,0,0
50496519584,-3,-1,0,-1,0,1,-1,0
50496527045,0,0,0,-2,-1,-1,0,-2
50496527045,1,-1,-2,0,-2,0,0,-1
50496542606,-1,-1,-2,1,-1,-2,-1,0
50496542606,-1,0,-1,-2,1,0,0,-1
50496543330,-1,0,1,1,-1,-1,0,0
50496543330,-1,0,0,-1,-1,-1,0,0
50496558294,0,-1,-2,0,-1,-2,-2,-2
50496558294,-2,-1,1,-1,-2,-2,-3,-1
50496564511,-1,0,0,-1,-2,-1,-1,-3
50496564511,1,-2,-2,0,0,0,0,0
50496579568,0,0,-3,-1,0,0,-1,-1
50496579568,0,-2,1,-1,0,-3,0,1
50496586983,-2,-2,-1,0,-1,-2,1,0
50496586983,-1,-4,-2,-1,-1,-1,-1,-1
50496602495,-2,-1,0,-2,0,1,1,1
50496602495,0,0,-2,0,-2,0,1,-2
50496603294,0,-2,1,0,-2,-1,-3,-1
50496603294,-2,-1,-1,-1,-1,0,-1,-2
50496619028,0,0,0,-1,1,0,0,0
50496619028,0,1,0,-1,-1,0,-2,0
50496624571,-1,-1,-1,0,-3,-2,-1,-1
50496624571,0,-1,-1,0,-1,-1,-1,-1
50496639492,1,-2,0,0,-1,-2,-2,0
50496639492,-3,0,0,0,0,0,1,-1
50496646861,0,-1,-1,0,0,0,-2,-1
50496646861,0,-1,-3,-2,-1,0,-1,-1
50496662633,-1,-2,-1,0,-1,0,1,-2
50496662633,0,-2,-1,1,0,-1,-1,-2
50496663295,-1,-2,-1,-1,-1,-1,-2,-1
50496663295,-2,-2,-1,-1,1,-2,0,-1
50496678319,-1,-2,-1,-2,0,0,-1,0
50496678319,0,0,-2,-1,-1,-2,0,0
50496684498,-2,-1,-1,-1,-1,0,-1,0
50496684498,0,1,0,-1,0,-1,-2,0
50496699484,-1,-1,1,-1,-2,-1,-1,0
50496699484,-2,-2,0,0,-2,0,-2,0
50496706987,-1,-1,-2,-2,1,-1,-1,0
50496706987,0,-2,-1,0,-2,-2,0,-1
50496722738,-1,-1,0,1,-1,1,1,-2
50496722738,-2,-2,0,-1,-1,-1,-2,-2
50496723273,-1,0,-2,0,-2,-1,0,-2
50496723273,-1,0,0,-4,1,-1,-1,-3
50496738304,-3,-1,-2,-1,-1,-2,-1,0
50496738304,0,-2,-1,1,0,-1,1,0
50496744440,0,-1,1,-1,0,0,2,-1
50496744440,-1,0,-3,-1,-2,-2,-1,-1
50496759524,-1,-2,-1,-1,0,-1,0,-2
50496759524,-1,-2,-2,-3,-1,-2,-1,0
50496767014,-1,0,-1,0,0,0,0,-1
50496767014,-2,-1,1,0,0,0,0,-1
50496782574,-1,-1,-2,-1,-2,-2,-3,0
50496782574,0,-1,-1,0,-1,-1,-1,-2
50496783311,-2,-1,0,-2,-2,-4,-1,-1
50496783311,-1,-1,0,2,-1,0,2,0
50496798352,0,0,-1,1,0,-1,0,0
50496798352,0,-2,-2,-3,1,0,-1,1
50496804448,-1,-1,0,0,-2,-1,-1,0
50496804448,-1,0,-1,0,0,0,0,-1
50496819533,-2,0,-1,-1,-1,0,-1,0
50496819533,0,-1,-1,-1,-1,-1,0,1
50496826981,-1,-2,-3,-1,-2,-2,-2,-2
50496826981,0,-1,0,-2,0,0,-1,-1
50496842523,0,-1,0,0,-1,-1,-1,-1
50496842523,-1,-1,-2,-1,-1,-1,-2,-3
50496843319,0,0,-3,-3,-1,0,-1,-1
50496843319,-2,0,-1,1,0,0,-1,-1
50496857013,-1,0,-3,-1,-1,0,1,0
50496857013,-1,-1,0,1,-2,0,0,0
50496864495,-1,0,1,7,-1,-1,-1,-1
50496864495,0,-1,2,-9,1,1,-2,0
50496879521,-2,-2,-4,39,-6,-2,-1,-1
50496879521,-2,-1,-2,-16,-1,-2,0,-1
50496887022,-1,-1,-1,0,0,0,-4,0
50496887022,0,-1,2,3,0,-2,0,0
50496901836,0,2,2,17,3,1,-2,-1
50496901836,1,-1,-2,-19,-3,-2,-1,-1
50496910261,1,0,-1,2,1,0,1,1
50496910261,-2,1,-3,7,-7,-2,1,0
50496916992,-3,-1,2,-11,0,-1,-2,-1
50496916992,-2,0,0,8,0,0,0,1
50496924511,0,-2,0,-9,1,2,0,-1
50496924511,0,0,0,1,1,-2,-2,-2
50496939541,-1,-1,-5,-43,-9,-4,-1,-2
50496939541,-1,-1,-1,5,-2,-3,-1,0
50496947023,-1,-2,-1,2,2,1,-1,-1
50496947023,0,-2,2,18,2,0,1,0
50496961941,0,-1,-4,-43,-2,0,-1,0
50496961941,-1,-1,-2,6,-2,1,0,-1
50496970128,-2,-1,0,-2,-2,-2,1,1
50496970128,-2,-1,-3,-4,-2,-1,-1,-2
50496976951,-1,0,2,7,3,0,0,0
50496976951,0,-1,-2,1,1,0,-2,-1
50496984277,-4,-2,-1,-1,-3,-2,-2,-2
50496984277,-1,0,-1,-3,-1,-1,-2,1
50496999391,0,0,0,6,1,0,0,-1
50496999391,-2,-1,-1,-4,-1,-1,0,-1
50497006776,-2,1,-2,4,-1,-1,0,-1
50497006776,-2,-1,-1,-8,-1,0,-2,-1
50497021788,1,-1,0,2,-1,-1,1,-1
50497021788,-1,0,1,3,-2,0,-2,-1
50497029992,0,-1,-1,-5,-2,-3,0,-1
50497029992,0,-2,-1,-5,-3,-1,0,-1
50497036898,1,-2,-2,5,1,1,1,0
50497036898,0,-1,0,3,-1,0,0,0
50497044385,0,-1,0,-2,-2,-1,-1,-1
50497044385,-1,-2,-2,-4,0,-1,-1,-2
50497059379,-2,0,0,3,-2,-3,-3,-2
50497059379,0,0,-1,-1,1,1,1,-2
50497067024,1,-1,-1,-2,-1,0,-1,-1
50497067024,0,-1,-1,-2,-2,0,-1,1
50497081851,-1,-1,-2,-1,-1,-1,-1,-1
50497081851,0,-1,-2,-1,-1,-1,-2,-2
50497090101,-4,-2,-2,-1,0,-1,-1,-1
50497090101,0,0,-1,-1,-1,-1,-2,-2
50497105076,-1,-1,1,2,0,0,0,0
50497105076,1,-3,-2,0,1,-1,0,0
50497105805,0,-1,0,-1,-2,0,0,0
50497105805,-2,-2,-2,-3,-4,0,-1,-1
50497119304,-1,-1,0,-1,1,-1,-2,1
50497119304,-1,1,-1,1,0,-3,-1,-1
50497126790,0,-1,-2,-1,-1,-1,-1,-1
50497126790,-1,-2,1,-1,-1,-3,0,-1
50497141974,-2,-1,-1,0,-3,-2,-2,-1
50497141974,-1,-2,-1,0,-4,-1,-1,0
50497149988,-2,0,0,0,0,-2,-2,-1
50497149988,-1,-2,-2,-3,0,0,0,-1
50497165093,-1,-1,0,0,0,0,-2,-3
50497165093,-2,0,-2,-1,-2,-2,-1,1
50497165862,0,0,-1,-2,-3,0,0,-1
50497165862,-1,-1,-1,-2,-1,-3,0,0
50497180792,-1,-1,0,-1,0,1,-2,-2
50497180792,-1,-4,1,-1,-1,0,-1,-1
50497186920,0,0,-1,0,0,1,0,0
50497186920,-1,0,-2,-4,0,0,0,-1
50497201814,1,-1,-1,-1,-2,-2,0,0
50497201814,-3,-2,-1,0,-2,0,-2,1
50497209954,-1,-1,-1,-1,-1,-2,-2,-2
50497209954,-1,-1,0,-2,-2,0,-2,-1
50497224993,-1,1,-2,-1,1,0,-1,-1
50497224993,1,-1,0,-1,0,-1,0,-2
50497225862,0,-1,-1,-2,0,-1,-1,0
50497225862,-1,-1,-1,0,0,-1,-4,-1
50497239247,-1,-2,-2,0,-1,-2,-1,-2
50497239247,-1,0,0,0,0,0,2,1
50497246753,-2,-1,-2,-1,-2,1,1,0
50497246753,-1,1,-1,-3,-2,-1,0,1
50497261751,-2,-2,0,-1,-2,-2,-1,-1
50497261751,-2,0,-2,-1,1,0,-1,-1
50497270007,-2,-2,0,0,-3,-1,0,1
50497270007,0,-1,-2,-1,0,0,-2,-1
50497284928,-2,-2,-1,-1,-1,0,-1,-2
50497284928,-2,1,0,0,0,-1,0,0
50497285717,-3,-1,0,-2,0,-1,0,-2
50497285717,0,-2,-1,-1,0,1,0,-2
50497299261,1,-2,-2,0,-1,0,0,-1
50497299261,0,0,-1,-2,-2,-1,-1,-3
50497306778,0,-3,-1,-3,-2,-1,-2,-1
50497306778,-1,0,0,-1,-2,0,0,0
50497321972,-1,0,0,-1,-1,-1,-1,1
50497321972,-1,-1,1,0,-1,-2,0,0
50497330284,1,0,-2,0,-1,-1,-1,0
50497330284,0,-1,-1,0,1,-1,0,-1
50497345130,-1,-2,0,0,-2,-1,0,0
50497345130,-1,-2,-2,-2,-1,0,0,-1
50497345722,0,0,-1,-3,-3,-1,-2,-1
50497345722,-2,-2,0,0,-1,-1,0,-1
50497359318,-1,0,0,0,-1,0,-1,-1
50497359318,0,-1,0,-1,-1,0,-1,-1
50497366949,1,-1,1,0,-1,0,0,-2
50497366949,-1,-3,-1,-1,-1,-3,-1,-2
50497381809,-2,-1,1,0,0,-2,0,0
50497381809,-1,0,-2,-2,-1,-1,1,1
50497389933,-2,-1,-1,0,-1,0,-1,-1
50497389933,0,-1,0,-1,-2,-1,-1,0
50497405072,0,0,-3,-3,-1,-2,-1,-1
50497405072,-2,-3,-3,-1,-1,-2,-1,-2
50497405762,-1,-1,-1,-1,1,-1,2,-2
50497405762,-2,0,-1,0,-2,0,0,0
50497419403,-1,-1,-2,1,0,0,-1,0
50497419403,-1,0,-1,-2,-1,0,-2,-1
50497426946,-1,-1,-1,-1,-1,-2,-1,0
50497426946,-3,-2,-2,-3,0,-1,0,-1
50497441729,-2,-2,-1,-1,-1,1,0,0
50497441729,1,-2,-1,1,-1,-2,-2,-1
50497450801,-1,-1,-3,0,-1,-2,-3,0
50497450801,0,-1,-1,-1,0,-1,-3,0
50497464951,-1,-1,1,-1,-1,1,1,1
50497464951,-1,-2,-2,-1,1,-2,0,-2
50497465711,0,1,-1,-2,0,0,0,-1
50497465711,-1,0,0,-1,-1,1,0,-2
50497479229,0,0,-1,1,1,1,2,0
50497479229,-1,-1,0,-5,0,-3,-1,-2
50497486727,-1,-1,2,27,0,-1,-1,-2
50497486727,-1,-4,-9,-39,-7,-1,-2,-4
50497501743,-2,-1,2,12,-1,-1,-1,-3
50497501743,1,-2,-1,9,0,0,0,-1
50497509970,0,-1,-3,-31,-4,0,-3,0
50497509970,-1,-2,3,16,2,-3,-1,-1
50497524955,-2,-1,-2,-9,-1,-1,-3,-1
50497524955,-1,-2,-1,0,1,-2,0,0
50497525731,0,1,1,6,1,2,2,1
50497525731,-1,-1,-1,7,0,1,-1,-1
50497539261,2,-1,-1,5,-4,-1,-1,-2
50497539261,-1,0,1,-4,-1,0,-2,-1
50497546939,-2,-3,-3,-16,-4,-1,-1,-1
50497546939,-1,0,3,16,0,-2,0,-1
50497561986,-1,0,0,-3,2,-2,1,1
50497561986,-2,-3,-3,2,-1,0,-1,-1
50497570023,-2,-3,-3,-4,-1,-2,-2,-1
50497570023,0,-1,0,9,-1,-2,-3,-3
50497585113,-2,0,2,3,4,2,2,1
50497585113,-1,1,3,35,5,2,0,0
50497585841,-1,2,2,-18,-4,0,0,-2
50497585841,0,-2,-4,-29,-1,0,0,0
50497599264,-1,-2,-2,-5,-4,-3,-1,-1
50497599264,0,-1,-2,-4,-1,-1,0,0
50497606892,0,1,7,42,7,0,-3,-1
50497606892,-1,0,-3,2,-1,0,1,1
50497621776,0,-3,-4,-9,-1,-2,1,0
50497621776,0,0,2,6,0,1,0,-2
50497630116,-1,-2,-3,-12,-2,-2,-2,-1
50497630116,-2,1,1,22,-1,1,0,-2
50497645111,-1,-1,-2,-7,0,2,0,1
50497645111,-2,-4,-8,-26,-10,-1,-1,-2
50497645824,-1,-2,0,4,0,-1,0,-1
50497645824,-1,0,-2,-4,-1,-3,0,-1
50497659464,0,0,4,20,-1,-2,-1,-1
50497659464,0,0,-2,-15,-3,-1,-2,0
50497666965,-1,-2,-4,-11,-2,0,1,1
50497666965,-1,-1,1,5,1,-2,0,0
50497682014,-1,-3,-2,-13,-2,-2,-2,-2
50497682014,0,-1,-1,-3,-2,-2,0,-1
50497690122,1,-1,-4,-3,-2,-1,0,0
50497690122,0,-1,0,-1,-4,0,-1,-2
50497704946,0,-1,-2,-3,-1,-2,-1,-4
50497704946,-1,1,-1,-4,0,2,1,1
50497705726,0,-1,0,10,0,1,-1,-1
50497705726,-1,-1,-1,-8,1,-1,0,0
50497719226,-1,-1,-1,-7,-3,-4,-2,-1
50497719226,-1,-3,-1,4,0,-3,-2,-1
50497726764,-2,-1,-1,-6,1,-2,0,0
50497726764,-1,0,-2,-4,-1,-2,-1,-2
50497741871,-1,-2,-3,0,0,0,-1,0
50497741871,-1,-1,0,0,1,-1,-1,-1
50497749976,-1,0,-3,-5,-2,-1,-1,1
50497749976,-1,-1,-1,-1,1,0,-2,-2
50497764939,0,0,-1,4,-1,0,0,-2
50497764939,-1,-2,-2,-4,-1,-1,-3,-1
50497765673,1,-1,0,-1,-1,-1,0,-2
50497765673,-1,0,0,-1,0,0,-1,0
50497787573,-1,-1,-2,-4,-2,-1,-1,0
50497787573,-1,-1,0,-1,-2,-1,-1,0
50497788296,-2,-2,0,-3,-2,0,-2,-1
50497788296,0,-2,-1,3,-2,-3,0,-1
50497801844,-2,-2,-1,-13,-2,-1,-1,-1
50497801844,0,0,0,-3,-1,-3,0,0
50497810129,-1,-2,0,3,0,1,1,1
50497810129,-1,-3,-1,-6,-1,-2,-1,-1
50497824312,0,-1,-1,2,-1,-1,-2,0
50497824312,0,0,-2,2,-1,0,-2,-1
50497832481,-1,1,-2,-5,-2,0,-1,-1
50497832481,-2,0,0,-2,0,0,-1,-1
50497839413,0,0,0,2,-1,0,-1,-1
50497839413,-1,-1,0,0,-2,0,0,-1
50497846864,-1,-1,-1,4,0,0,0,-1
50497846864,-1,-2,-1,-1,-1,1,1,0
50497861890,0,-2,-2,2,-1,0,0,-1
50497861890,-2,0,0,-2,-1,-3,-2,-2
50497870152,-1,-1,-1,-1,-3,-2,-3,-4
50497870152,-1,-2,-3,0,0,2,4,4
50497884299,0,-1,-1,-1,0,1,1,0
50497884299,-1,-3,0,0,-2,-1,-1,-3
50497892590,0,-1,0,8,-3,-2,-3,-2
50497892590,0,-1,-3,-10,-3,-3,-2,-2
50497899454,-3,-1,0,2,0,-3,-1,0
50497899454,-1,0,0,-2,-1,-1,1,1
50497906883,-1,-1,1,16,4,0,0,0
50497906883,-1,-1,2,8,1,-1,-1,-1
50497922013,-2,-3,-8,-23,-9,-3,-3,1
50497922013,-1,-1,-1,2,-1,-1,-1,-1
50497930163,-1,-1,-1,-18,-3,-2,-1,1
50497930163,0,0,4,37,4,-1,0,0
50497944263,-3,-4,-6,-24,-2,-1,-1,-1
50497944263,-1,0,0,2,1,0,1,0
50497960820,1,-1,-2,-4,-1,-1,-2,0
50497960820,-2,1,1,13,0,1,-2,-2
50497962248,-1,0,4,12,1,-2,-2,0
50497962248,-2,-1,-3,-5,-1,1,-1,0
50497966929,-1,0,-2,0,1,-2,1,-1
50497966929,-1,-2,-2,-15,-3,-5,-1,-1
50497981878,1,1,1,5,0,0,1,-1
50497981878,-1,-1,-3,-6,1,-1,0,0
50497990132,-2,-1,-1,1,-2,0,1,-1
50497990132,-1,-2,-3,-18,-1,0,-2,-1
50498004320,0,-1,1,5,1,-1,-3,-2
50498004320,-1,-1,1,-5,-1,1,1,-2
50498012664,-1,0,-2,3,-2,-1,-1,-2
50498012664,-2,-1,-3,-14,-1,1,0,-3
50498027612,-2,-1,-2,7,-2,-1,0,0
50498027612,-1,-1,1,11,0,-3,-3,-2
50498028313,-1,-2,-8,-33,-4,-2,0,0
50498028313,-1,-1,0,0,1,0,-1,-1
50498041930,2,2,5,30,3,-1,-1,-1
50498041930,-1,-3,-8,-29,-5,0,0,1
50498049968,-2,-2,-2,5,1,-1,0,-1
50498049968,-1,0,0,3,-1,-1,-1,-2
50498064487,-2,-2,1,14,1,0,-1,-2
50498064487,-2,0,-5,-20,-5,-2,-1,-1
50498072580,1,0,2,2,1,1,1,1
50498072580,-1,0,-4,-7,-2,0,0,1
50498087612,-1,-1,0,4,-1,0,-1,-2
50498087612,-1,0,3,0,1,-1,0,0
50498088306,-1,-2,-2,21,-1,0,0,1
50498088306,0,-1,0,-11,-2,-3,0,-1
50498101755,-2,0,-2,-7,0,-1,-1,0
50498101755,0,-1,0,9,1,1,0,0
50498110082,0,0,-1,-5,1,0,-2,-2
50498110082,0,0,0,8,1,1,1,0
50498124271,-1,1,-1,-9,-2,1,-1,-1
50498124271,-1,1,1,5,-1,-3,-3,-2
50498132467,-1,0,1,1,-1,-2,-1,0
50498132467,0,-2,0,17,0,0,-1,1
50498147625,-1,-1,-6,-57,-2,-2,0,-1
50498147625,0,-3,-3,6,-2,-2,-1,-1
50498148269,0,0,-1,0,-3,-1,-1,-2
50498148269,-1,-3,-1,-4,-3,-2,-2,0
50498162007,1,1,2,12,0,-3,-1,-3
50498162007,0,-1,1,9,2,0,1,0
50498169980,-1,-1,-1,-8,-3,0,1,0
50498169980,-1,-1,-1,-2,0,-1,-1,-1
50498184387,-2,-2,0,5,0,0,0,1
50498184387,-1,0,1,4,1,-1,-1,-2
50498192648,-3,-2,-7,-34,-8,0,-1,0
50498192648,-1,0,-1,-7,-2,1,0,-1
50498207482,1,-2,0,6,-1,0,0,0
50498207482,1,-1,0,8,-1,-1,-1,-1
50498208367,-1,0,0,-18,-2,-1,-2,1
50498208367,-1,0,-2,-2,-1,-2,-3,-2
50498221865,-1,-1,-1,-5,-3,-2,0,-1
50498221865,-1,-1,1,17,0,0,-2,-1
50498230134,1,-2,2,12,2,-2,-1,-2
50498230134,-2,0,-3,-8,-1,0,-1,-1
50498244387,-2,-1,1,22,1,-1,1,0
50498244387,0,-1,-8,-52,-4,-1,0,1
50498252588,-1,0,-2,10,0,-1,-1,-1
50498252588,-1,-1,-1,-11,0,-1,-1,0
50498267524,0,-1,0,10,-1,-1,0,0
50498267524,0,-1,0,9,-1,1,0,-1
50498268343,-1,0,-1,1,0,-1,1,-1
50498268343,0,-1,1,5,-2,-2,-1,-1
50498281913,-1,2,-1,-5,-1,-1,-2,-2
50498281913,0,-2,-1,1,-1,-2,-3,-1
50498289895,0,-2,1,4,1,1,0,0
50498289895,-1,-2,-1,4,2,1,0,-1
50498304379,-1,0,-1,-7,-3,-1,-1,-2
50498304379,0,-2,0,-3,-1,0,2,0
50498312514,-1,0,-1,7,1,-2,-2,0
50498312514,-2,0,0,-2,-2,-1,-2,-1
50498327499,0,-1,-2,-6,1,0,-1,1
50498327499,-3,-2,-1,5,-1,-2,-3,-2
50498328374,-1,0,1,6,1,3,-1,-1
50498328374,-1,-2,-2,-6,-2,-2,-1,1
50498341957,-3,-2,-1,-2,0,1,0,-1
50498341957,-1,0,-1,4,0,0,0,0
50498350069,-2,-1,1,0,1,-1,-1,-1
50498350069,0,-1,-2,-4,-2,-1,-1,-2
50498364386,-3,-1,-1,-1,-2,-1,-2,-1
50498364386,0,-1,-1,1,-1,-2,-1,-1
50498372537,-1,-2,0,-3,0,-2,-2,0
50498372537,-1,-1,0,-1,0,-1,-1,-1
50498387426,-1,-1,-1,-2,0,-1,0,1
50498387426,-1,0,0,1,0,0,1,0
50498388167,1,0,-2,0,-2,-2,-2,-2
50498388167,0,0,-1,1,-1,-2,-4,-1
50498401844,0,0,-1,-1,2,1,0,0
50498401844,0,0,-1,-2,-1,-2,1,0
50498409956,-2,0,0,0,-1,0,0,-2
50498409956,0,-3,-1,1,-2,-1,0,-2
50498424235,-1,-2,-2,-2,-3,-2,-1,-1
50498424235,0,-1,-2,0,-2,-2,-2,0
50498432469,0,-1,-3,-2,-1,-1,-1,0
50498432469,-1,-1,0,-1,1,-1,0,0
50498447429,0,-1,-1,-1,0,-1,-1,1
50498447429,-2,-2,-1,1,-3,-2,-1,-1
50498448145,-1,0,-1,-1,-1,-4,-3,-2
50498448145,-1,-2,-1,-3,-2,-1,0,-1
50498461962,-1,-2,-1,0,-1,-1,0,0
50498461962,0,0,0,0,0,0,-1,-1
50498470216,-1,-1,-1,2,-1,-1,-2,0
50498470216,-1,0,-1,-1,-1,-1,0,-2
50498484285,-2,-1,-3,-6,-3,-2,-1,-2
50498484285,1,-3,-1,0,0,1,0,-1
50498492581,-2,-1,-1,0,0,-1,-1,-1
50498492581,-2,-1,-3,0,-2,-1,0,-2
50498507589,0,-1,0,1,1,1,0,1
50498507589,0,0,-1,-1,0,0,0,0
50498508182,0,-2,-1,-3,-1,-1,-2,-2
50498508182,-1,-1,-1,-1,-1,-2,-3,-1
50498521997,1,-1,0,0,-1,-1,-1,-1
50498521997,0,-1,-1,-2,2,0,-1,-1
50498530153,-1,-1,0,-1,-3,-1,-1,0
50498530153,-1,-2,-2,-2,-3,-1,0,-1
50498544409,0,-2,0,-1,1,1,0,-1
50498544409,-1,-1,1,0,-2,-1,-1,-2
50498552673,0,-1,-1,-1,-1,0,-1,-1
50498552673,-1,0,-3,-1,0,-2,-1,0
50498567557,0,0,-1,-1,-1,-2,-1,-2
50498567557,0,-2,-1,-1,0,0,-1,0
50498568271,0,0,-1,3,0,-3,1,-2
50498568271,-1,-1,2,2,-2,0,-2,0
50498581722,-2,0,-1,-1,0,0,-1,-1
50498581722,-1,-2,-2,2,-1,0,0,-1
50498590080,-1,-1,0,-4,0,-1,-1,-2
50498590080,-1,-2,-1,6,0,-2,0,-2
50498604427,-2,-1,-1,0,-3,-2,-1,-1
50498604427,-2,0,0,-3,-3,-1,-1,0
50498612493,-1,-1,0,5,0,-1,-1,0
50498612493,-1,-2,-1,-4,0,-2,-1,-1
50498627465,-3,-1,-1,0,-2,-2,-2,-2
50498627465,-1,0,-2,-2,1,-1,0,-1
50498628218,0,-1,1,-3,-1,-1,-1,-1
50498628218,-2,0,-3,-3,0,0,-1,0
50498641924,-1,-1,-1,-3,-1,-1,-1,-2
50498641924,0,1,0,2,-1,-1,-1,-1
50498650181,0,-1,-3,-3,-1,0,0,-1
50498650181,0,1,-2,-3,-2,0,1,-1
50498664270,2,-1,0,2,-1,-2,-1,0
50498664270,-1,-1,-1,-2,-1,-1,-1,-3
50498673194,0,-1,-3,-2,-1,-2,-1,0
50498673194,-1,-1,0,-3,-1,2,3,2
50498686997,-1,0,-2,-3,-2,-2,0,-1
50498686997,0,-1,0,-3,-3,-3,-3,-2
50498695814,-2,0,-2,-1,1,1,1,-2
50498695814,0,0,0,1,-1,-1,-1,0
50498701831,-1,-4,-3,-2,1,-1,-1,-2
50498701831,-1,-1,-2,-1,-2,-1,-1,1
50498710747,-2,-2,-1,-2,-2,-1,1,0
50498710747,0,-1,0,-1,-1,0,-2,-2
50498724258,-1,0,-2,0,-1,-3,-1,-3
50498724258,-1,-2,1,-1,0,-1,-1,-1
50498733263,0,-3,1,-1,0,0,1,-1
50498733263,-1,-1,1,-1,0,-1,-3,-1
50498746953,0,0,0,0,3,-1,0,1
50498746953,-1,0,-2,1,-1,-1,1,2
50498755773,-1,-1,0,-3,-3,0,0,-2
50498755773,1,0,-3,-3,-3,-3,-1,0
50498761944,0,1,-2,0,-1,-3,-3,-2
50498761944,-1,0,0,-1,0,-2,-1,-2
50498770729,-1,0,-1,-1,2,0,-1,0
50498770729,-1,-1,-2,1,0,-1,-3,0
50498784335,-2,-2,0,-2,1,1,0,0
50498784335,-3,0,-2,-1,-1,0,-1,0
50498793262,-2,0,-1,0,-3,-1,-3,-1
50498793262,-1,-2,0,-2,1,-2,0,1
50498806894,0,0,0,0,-1,-2,-2,-1
50498806894,1,-1,-1,-2,-2,-2,-2,-1
50498815843,-2,-1,-1,-1,0,-3,0,0
50498815843,-1,0,-2,-1,0,1,0,-1
50498821912,-2,-1,1,-2,-2,1,-2,-1
50498821912,-2,-1,-2,-1,0,0,-1,1
50498830691,0,-2,-1,-1,-2,-3,-1,-2
50498830691,0,-1,0,0,-2,-4,-2,-2
50498844437,-2,-2,-2,-2,-2,-1,1,-1
50498844437,-2,-1,-1,0,1,1,-1,1
50498853288,-1,-2,-1,-1,0,0,-1,0
50498853288,-2,0,0,-1,-1,1,-1,0
50498866869,-1,0,-1,0,-3,-3,-2,-3
50498866869,0,-1,1,-1,0,-1,0,-1
50498875719,0,0,-2,0,-2,-1,-2,0
50498875719,-2,-3,-2,-2,-1,0,0,-1
50498881736,0,0,-1,-1,0,1,1,0
50498881736,-1,-1,-2,0,-3,0,1,-1
50498890803,1,-1,1,0,-1,0,-1,-2
50498890803,-1,-1,-2,0,-2,-2,-2,-2
50498904360,0,-2,-1,-1,-3,-1,-1,-2
50498904360,-1,-1,0,-1,2,0,-1,0
50498913227,0,0,-1,1,0,2,1,0
50498913227,1,-1,0,0,-2,-1,-1,0
50498926740,-1,-1,-3,1,-3,-2,-1,1
50498926740,-1,-1,0,-2,-3,-3,-3,-1
50498935758,0,0,-1,-1,0,-2,-1,0
50498935758,0,0,0,-3,-1,0,2,-2
50498941882,0,-1,-1,0,0,1,0,1
50498941882,2,-2,-1,-1,-2,-2,-1,0
50498950751,-2,-1,0,-1,-1,-2,-1,-3
50498950751,-1,-1,-1,0,0,-2,-1,0
50498964418,-2,0,-1,-2,0,0,-1,0
50498964418,0,-1,-1,-2,0,-2,-2,-2
50498973249,-2,-2,-1,-1,0,1,2,1
50498973249,0,-1,0,-2,0,-1,-2,0
50498986738,-2,0,-1,-3,0,0,-1,-2
50498986738,-1,-2,-1,2,-2,-2,-2,-1
50498995680,-1,1,-1,-1,-2,-1,-2,0
50498995680,-1,0,-1,1,1,-1,0,-1
50499010617,1,-2,0,1,-1,-2,-1,-1
50499010617,-1,-1,0,-1,-1,0,0,-1
50499012192,-2,-2,-1,-2,-1,-2,-1,0
50499012192,-1,-1,-2,0,-1,0,0,-1
50499024418,0,-2,-1,-1,0,0,0,-2
50499024418,-2,-1,-2,-1,0,-3,-1,-2
50499033163,0,-2,-2,0,-2,0,0,-1
50499033163,-1,-2,0,-3,-1,-1,-1,-2
50499046993,-2,-2,-1,1,-1,-2,-2,-1
50499046993,0,-2,-2,-1,-2,0,-1,-1
50499055705,-1,-1,-1,-1,0,-1,-3,0
50499055705,-1,-1,0,-2,-2,-2,-1,-1
50499071208,1,0,0,0,0,0,-1,0
50499071208,-1,-2,0,-2,0,2,0,0
50499072625,-2,1,-1,0,-3,-2,-1,-2
50499072625,0,-1,-1,-2,-2,0,0,1
50499084286,-1,-2,0,-2,-3,-1,-1,0
50499084286,-1,-2,0,-1,1,-1,0,-1
50499093252,0,-1,-2,-3,2,-1,-1,0
50499093252,-3,-1,-1,-1,-2,1,-2,-2
50499106682,-1,-1,-3,0,-2,0,-2,0
50499106682,-1,0,-1,-1,0,-2,-1,0
50499115699,-1,-1,0,0,0,-1,-1,0
50499115699,0,-1,-2,-2,1,0,-1,-2
50499130536,-1,-1,0,0,-1,-2,0,0
50499130536,-1,0,-1,0,-1,-1,0,-1
50499132190,-1,0,0,0,-1,0,0,-1
50499132190,-3,0,-2,1,0,1,1,1
50499144230,0,-1,-1,-3,-1,0,-1,-2
50499144230,-2,-1,0,0,-1,0,-1,-2
50499153167,-1,-2,-1,-1,-3,-3,-2,-1
50499153167,0,0,-1,-1,-1,-2,-2,-1
50499175830,-1,0,0,0,0,0,0,-1
50499175830,-1,-2,-2,-1,-1,1,-2,-1
50499177228,0,-1,-1,0,1,0,0,-1
50499177228,-1,-1,0,-2,-2,-2,0,1
50499190852,-1,-2,-3,-1,-3,-3,-1,0
50499190852,-2,-1,-2,-1,-3,-1,-2,-2
50499192247,0,-3,0,-2,-2,-3,-1,-2
50499192247,0,1,-2,-2,0,-1,-2,0
50499204325,-2,1,-1,-1,-1,0,-1,0
50499204325,0,0,-1,-2,0,0,0,0
50499213224,-2,-2,-1,-2,-1,0,-1,-2
50499213224,1,-3,-1,-1,1,-3,-1,0
50499226942,-1,-2,1,-1,-2,0,-2,-1
50499226942,-2,-1,-1,-1,-1,0,0,0
50499235706,-1,0,-2,0,0,2,0,0
50499235706,0,-1,-1,1,-2,0,-1,-3
50499250729,0,-1,-2,-1,0,2,0,-3
50499250729,0,-1,0,0,-1,-1,-2,0
50499252290,1,-1,-1,-1,0,0,0,0
50499252290,-1,0,1,-1,-2,-4,-2,-2
50499264418,0,-1,1,1,1,0,-1,1
50499264418,-1,1,-1,-1,-1,0,1,-1
50499273289,-1,-1,-1,1,-1,-2,-1,0
50499273289,0,0,0,-2,-1,-2,-3,-1
50499286786,-2,-2,-1,0,-1,-1,-1,0
50499286786,1,-1,-1,-3,0,-1,-1,-2
50499295702,-4,1,-1,0,0,-1,-1,0
50499295702,0,-2,-2,0,-2,-1,0,-1
50499310684,-2,-1,0,-2,-3,-4,-1,-2
50499310684,-2,-2,-1,0,0,0,0,-1
50499312174,2,0,-1,0,1,2,-2,-2
50499312174,-2,0,0,1,-1,0,-1,1
50499324349,0,0,-1,-2,-2,0,-1,0
50499324349,0,-1,0,0,-2,-2,-1,-1
50499333218,0,-1,0,-1,0,-1,-2,-1
50499333218,-1,-2,-1,-2,2,1,-2,-3
50499346882,-1,1,-1,-2,1,-3,0,0
50499346882,-1,-1,-1,-2,-2,-3,-3,-1
50499355692,-1,-2,-2,-1,-4,-3,-2,-1
50499355692,0,1,-2,-1,0,0,-1,0
50499370724,-3,-2,-2,0,0,0,0,0
50499370724,0,-1,-1,-1,-2,-1,0,-2
50499372181,-1,-1,0,-1,-1,-1,-1,-3
50499372181,0,-2,0,-1,-1,-4,0,-3
50499384235,0,-1,1,-2,0,0,0,-2
50499384235,0,-1,-2,0,-1,0,1,1
50499393200,0,1,-2,-3,-2,-4,-2,-1
50499393200,0,0,0,-1,-1,1,-1,-2
50499406806,1,-1,-1,-1,1,1,-2,-1
50499406806,-1,-2,-1,-1,0,-1,1,0
50499415780,-1,0,-1,0,0,2,0,0
50499415780,-3,0,-1,0,-1,-1,-2,-1
50499430772,-2,1,-2,0,-1,-3,0,-2
50499430772,-1,-1,-1,0,-2,-1,-3,-1
50499432389,-2,0,-1,-1,-2,-1,-2,-1
50499432389,-1,0,-1,-1,0,0,1,2
50499444164,-1,0,-1,-2,0,0,-1,-1
50499444164,-1,-1,-1,0,-1,-2,-2,-1
50499453245,0,-1,-1,0,-1,-2,0,1
50499453245,1,-3,-2,-2,-2,-1,-2,-2
50499466872,0,-1,-1,0,0,1,0,-1
50499466872,-1,0,-2,-1,-1,-2,-1,-2
50499475706,0,0,0,-1,-1,-2,-1,0
50499475706,-1,0,-1,0,0,-1,-1,0
50499490776,-1,-2,-1,2,-2,-2,-1,1
50499490776,0,0,-1,2,0,0,-2,-1
50499492176,-2,-4,-1,0,-2,-2,-1,-3
50499492176,-2,-1,-1,-1,0,0,2,1
50499504411,-1,0,-1,0,0,-1,0,-1
50499504411,-3,-1,0,-1,1,0,-1,-1
50499519261,-2,0,-1,-1,0,-3,-1,-1
50499519261,0,-3,-2,-2,-1,-2,-2,-2
50499526946,0,1,0,-1,-1,-1,1,-1
50499526946,0,-1,-2,-1,-3,-2,-1,-1
50499535679,-2,1,0,-1,-1,-1,0,-1
50499535679,0,0,0,-2,-3,-1,0,-1
50499550818,-1,-1,-1,-1,-2,-1,0,-1
50499550818,0,0,-1,0,0,-2,-2,0
50499552193,0,-2,-1,-1,-2,1,-1,-1
50499552193,-1,-1,0,0,-2,0,-1,-1
50499564246,-2,-2,-1,0,0,-2,-2,-2
50499564246,-1,-1,0,-1,-1,-1,-1,-1
50499573324,0,0,-3,-1,0,-1,-1,0
50499573324,-2,0,-2,-1,-1,0,-1,0
50499587474,-1,-1,-2,-2,-2,-3,-3,-2
50499587474,-2,0,-1,-2,0,0,1,2
50499594327,0,-1,-1,-1,0,1,1,0
50499594327,-1,-1,-1,-2,-1,-2,-1,-2
50499610778,-1,-2,0,-1,-1,0,-3,0
50499610778,0,-2,0,-2,-2,-2,-2,-1
50499612211,-1,-2,-2,0,-2,-2,0,-1
50499612211,0,0,-2,0,-1,-2,-1,-2
50499624865,-1,-1,0,-1,0,-1,0,-1
50499624865,0,-1,1,-1,0,0,-2,-2
50499633152,0,-1,0,0,-1,0,-2,-1
50499633152,0,0,-1,-1,-1,-1,-2,-1
50499647434,0,0,0,-3,0,0,-1,-1
50499647434,-1,-1,-2,-1,-1,-1,1,0
50499654355,-2,1,-1,-2,-4,-2,-3,-1
50499654355,0,-4,0,-1,-2,-1,-2,-2
50499670832,-1,1,-3,-2,-1,0,-1,1
50499670832,-1,0,0,1,-3,-2,-2,-2
50499672176,-1,-1,-2,-2,0,-1,1,-1
50499672176,-1,0,0,-1,3,1,0,-1
50499684407,0,-1,-2,-1,0,-1,-1,-1
50499684407,-1,0,0,-1,-2,-1,-2,-3
50499693170,-1,-3,0,0,-3,-3,-2,-3
50499693170,-3,-1,-2,0,0,-1,0,-1
50499707472,-2,-2,0,1,-1,-2,0,-2
50499707472,-1,0,-1,1,-2,-2,-3,-2
50499714429,1,-1,0,-3,0,-2,0,-2
50499714429,-1,1,-1,0,0,-1,-2,0
50499730109,-1,-1,0,0,0,1,2,1
50499730109,-2,-2,0,-1,0,0,0,0
50499736872,-2,-1,-1,-1,-1,-1,-1,0
50499736872,-2,-1,-2,-2,-1,-4,-3,0
50499744220,-1,-2,-1,-1,-2,-1,-3,-1
50499744220,0,-2,1,0,0,-2,0,-1
50499753189,-2,-2,-2,0,0,-1,-2,0
50499753189,-1,-1,0,1,0,1,1,0
50499767598,-1,0,-1,1,-1,0,0,0
50499767598,-3,-4,-4,-2,-1,-4,-2,1
50499774339,-1,-2,-1,-4,-1,-2,-4,-4
50499774339,-1,-1,0,-2,-4,-1,-1,-2
50499790011,0,1,1,-1,-2,0,-2,0
50499790011,1,1,0,0,1,4,4,0
50499796691,0,0,-1,1,0,2,2,1
50499796691,0,-2,-1,0,-1,0,1,-1
50499804192,0,-1,-2,-1,0,0,0,0
50499804192,0,0,-1,-2,-1,0,-1,-2
50499813228,-2,0,-1,-1,-1,1,0,-1
50499813228,-1,-1,0,0,-1,0,-1,-1
50499827482,-1,-1,-3,1,-1,-3,0,-1
50499827482,0,0,-1,0,-1,-1,-1,-2
50499834389,0,-1,-1,-1,-1,-1,-2,1
50499834389,-3,-1,-1,-2,0,-1,-1,1
50499849878,-2,-1,-2,-1,1,-2,-1,0
50499849878,-2,-1,-2,1,-1,-2,-2,-3
50499856868,-1,0,1,0,-1,-2,-2,-2
50499856868,-1,-1,0,-3,-1,-2,-2,-2
50499864349,1,-1,-1,-2,-2,-3,-2,-1
50499864349,2,0,-1,-2,-1,0,-1,0
50499873222,0,-1,0,1,2,1,2,0
50499873222,0,-2,-1,0,-1,-1,-2,-1
50499886865,-2,-1,0,0,0,1,-1,-2
50499886865,-1,0,-2,-3,-2,0,-2,-2
50499903134,-3,-1,-1,1,-1,-3,-2,0
50499903134,1,-1,-2,-1,-2,-2,1,0
50499910058,0,-2,1,-1,-2,0,-1,-1
50499910058,-2,-1,-1,-2,-2,-3,-3,0
50499916739,-1,0,-1,-2,1,0,1,-1
50499916739,-1,-1,-2,1,-1,0,0,0
50499933029,0,-2,-3,0,0,-1,-1,-1
50499933029,-1,-1,-1,-2,-2,0,-1,0
50499934664,0,-1,-2,-1,-1,0,0,0
50499934664,-2,0,-1,-1,0,0,1,0
50499947534,-1,-1,-1,-2,1,-3,0,-2
50499947534,-1,-1,1,-2,0,-1,0,0
50499954348,-1,-2,0,-1,-3,-2,-1,-2
50499954348,-2,0,-3,0,-3,-2,-2,-2
50499970086,-1,-1,1,0,-1,0,-1,1
50499970086,-1,-2,1,0,0,-2,-2,0
50499976774,-1,-2,-2,1,0,0,-1,-3
50499976774,-2,-3,-1,-1,-2,-1,-1,-1
50499993255,-2,0,0,-2,-2,-2,-2,-1
50499993255,-1,0,-3,0,-1,-1,1,-1
50499994840,1,0,0,-1,-2,0,-1,1
50499994840,-2,-1,-2,-1,-1,0,-1,-2
50500007520,0,-1,-3,0,-2,-1,-2,-1
50500007520,-1,-1,-1,0,1,0,-1,2
50500014208,-1,-1,0,0,-1,-3,-1,-2
50500014208,-2,0,0,-1,1,-1,0,1
50500029862,-1,0,0,-1,0,-1,1,0
50500029862,-1,-1,0,1,-3,-1,-1,-4
50500036639,-1,-1,-2,-1,-1,1,2,1
50500036639,-1,2,0,0,-1,-2,-1,-1
50500053007,0,-1,0,-3,-2,0,0,-1
50500053007,0,1,-1,1,-1,-1,0,-1
50500054605,-1,-2,-1,-1,0,0,-1,-3
50500054605,1,-1,-1,1,0,-2,0,-2
50500067337,-2,-2,-2,0,1,-1,-2,-2
50500067337,-2,-1,-1,-1,0,0,-1,0
50500074176,-1,-1,-1,-3,-1,-1,-3,-3
50500074176,-1,-3,0,-2,-2,-2,-1,-2
50500089921,-2,-1,-3,1,-2,-1,-1,-1
50500089921,-1,-1,0,0,-2,2,-2,1
50500096641,-1,-1,-1,-2,-1,-2,-1,-1
50500096641,-2,-1,-1,0,0,1,-2,-1
50500113035,-2,-2,-1,-1,-2,-1,-1,0
50500113035,-2,-1,-1,-1,2,0,1,-1
50500114643,-1,-2,0,-2,-1,0,0,-1
50500114643,0,-2,-2,-2,-2,-2,-2,0
50500127364,-1,1,0,0,-1,-2,0,-1
50500127364,0,-2,-2,-1,2,-1,-1,-2
50500134164,0,0,-1,-1,-1,-4,-2,-2
50500134164,-2,1,-1,-2,0,1,-1,-2
50500149851,-1,-1,-2,-2,-1,0,0,-1
50500149851,0,0,-2,-3,0,1,0,-1
50500156647,-1,-1,-2,-1,-2,-2,0,-2
50500156647,-1,-2,-1,-2,-2,-3,-2,-1
50500173016,-1,-2,-1,-1,-2,-2,-4,-2
50500173016,-1,-2,0,0,0,-1,-1,-2
50500174606,0,-1,-2,-1,0,0,-1,-1
50500174606,-2,1,0,-1,0,-1,-1,0
50500187343,-1,-2,-1,-1,1,-1,0,-2
50500187343,0,-1,-1,0,-2,-1,-2,-1
50500194125,1,0,-1,0,-1,0,-1,-3
50500194125,-1,0,-1,0,0,-1,-1,-1
50500209836,-1,-2,0,-1,-2,0,-1,-1
50500209836,1,-1,0,-1,-1,-1,-1,-2
50500216673,0,-2,0,-2,-1,-1,-1,1
50500216673,-1,1,-1,0,0,-1,0,-1
50500233036,0,0,0,-2,-1,-1,-3,-2
50500233036,0,-1,0,0,-4,-2,0,-2
50500234655,-2,-2,1,0,1,0,-1,0
50500234655,0,-1,-1,-1,0,-1,-1,0
50500247360,-2,-1,-1,-1,-1,-2,-1,-1
50500247360,-2,-1,-2,-1,0,0,-1,0
50500254151,-1,-1,-1,-2,-2,-3,-1,-1
50500254151,0,-2,-1,-1,-1,-1,0,-1
50500269851,1,0,-1,1,0,-1,0,1
50500269851,-1,-1,-1,-1,-1,-1,-1,0
50500276637,-1,-1,-1,0,-1,-1,0,-1
50500276637,-1,-2,-2,-2,-2,-3,-1,0
50500293024,-3,-2,-1,-3,-2,0,0,-1
50500293024,-2,-1,-2,2,0,-1,-1,-1
50500294619,-1,-1,-1,0,-1,-2,-1,-1
50500294619,-1,-1,1,-2,-2,-1,-3,-1
50500307326,-1,-2,-2,-2,-2,0,0,-1
50500307326,-1,-3,-1,-1,-1,-1,-1,-1
50500314138,-1,0,0,1,1,1,-1,-1
50500314138,0,0,-1,0,-1,0,0,-2
50500329800,0,-1,-2,0,2,-1,0,1
50500329800,-3,-1,0,-3,-2,0,0,-2
50500336685,1,-2,-2,-2,-3,-2,-1,-1
50500336685,0,-1,0,-2,-1,-2,-1,-2
50500352962,-2,0,2,-2,-3,-1,-3,-1
50500352962,0,-2,-2,-2,1,1,0,-1
50500354592,-2,0,0,0,0,-1,-2,0
50500354592,-1,-2,-2,-1,1,-2,0,0
50500367359,0,0,0,-1,1,-1,1,-2
50500367359,0,-1,0,-2,-3,-1,-2,0
50500374170,-2,-2,-1,-1,-2,0,-2,0
50500374170,-2,-2,-2,2,-2,-1,-3,-1
50500390024,-1,-1,0,-1,-2,-2,-1,-1
50500390024,-1,-1,1,-2,0,-1,0,0
50500396817,-1,0,-1,-3,0,-1,0,-2
50500396817,-2,0,-2,0,-1,-1,-1,-1
50500413258,-2,-1,-1,-2,-1,-1,1,-2
50500413258,0,0,0,0,0,-1,0,0
50500414650,-1,-1,-1,0,0,-1,-2,-1
50500414650,1,-1,1,0,-1,0,0,1
50500426824,0,0,-2,1,0,1,-1,0
50500426824,-1,0,-2,0,-1,-4,-1,-2
50500435665,-4,0,-2,-1,-2,-1,-2,-2
50500435665,0,-3,-1,-1,0,-1,-1,-1
50500450043,0,-2,-2,0,1,1,1,3
50500450043,-2,-1,-1,0,-1,0,0,0
50500456813,-1,0,0,0,-2,0,0,0
50500456813,-1,-1,0,0,-1,-2,0,-2
50500473163,1,0,-1,-2,-2,-2,-3,-1
50500473163,0,-1,-3,-3,-1,-1,-2,-2
50500474627,0,-2,-1,-1,-3,-2,-1,-1
50500474627,1,0,0,-2,-2,0,-1,-1
50500486838,-1,-2,-2,1,-3,-2,-2,-2
50500486838,-1,0,-3,-1,0,-1,-1,-1
50500495695,0,-1,-1,0,0,2,0,-1
50500495695,-2,1,-1,0,-1,0,-2,-1
50500509911,-2,-2,0,-1,1,1,0,-1
50500509911,0,-3,-1,-1,-4,-1,0,0
50500516830,1,-1,-1,1,-1,-2,-1,1
50500516830,-1,-1,0,-1,0,0,1,0
50500533247,-1,-1,-1,0,-2,-2,-2,-2
50500533247,0,-1,-1,-1,0,-1,-1,-3
50500534681,0,-1,-1,-2,-3,-3,-4,-1
50500534681,-2,-1,0,-1,-2,-2,-2,-1
50500546857,-2,-2,-1,-1,0,0,0,3
50500546857,0,-1,-2,0,0,1,1,0
50500555662,-1,-2,0,-1,-1,-2,2,0
50500555662,-1,-3,-1,-3,-1,-1,0,-1
50500570030,-2,-1,-2,-2,-2,-3,-1,-3
50500570030,-1,-1,-1,0,-2,-3,-2,-1
50500576847,-1,0,0,1,0,0,-1,-1
50500576847,0,0,0,0,0,0,0,0
50500593186,-1,-1,-1,-1,-1,0,0,-1
50500593186,0,0,1,-1,-3,-1,-3,0
50500594623,0,-1,-1,-1,0,-2,-1,-1
50500594623,-2,-1,0,-2,1,2,1,0
50500606871,0,-1,-1,-1,-2,0,-1,-2
50500606871,0,-1,-1,0,0,-1,1,0
50500615709,-1,0,1,1,-1,-1,0,-1
50500615709,1,-2,-2,0,-1,-1,-1,0
50500629941,-1,0,-1,0,-1,-4,-2,-1
50500629941,0,0,0,-2,-2,-3,-3,0
50500636868,-1,-2,-2,-3,-2,-2,-2,0
50500636868,-2,-1,0,0,0,0,0,-2
50500652445,0,0,-1,1,0,1,-1,-1
50500652445,0,-1,-1,-2,-2,-3,-3,-2
50500659356,-1,-1,-1,2,0,0,0,0
50500659356,0,0,-2,-1,-2,-2,-1,-1
50500666831,-1,-1,1,-1,-1,-3,-1,0
50500666831,-2,-2,-2,1,1,1,-1,-1
50500675712,0,0,-1,-3,-2,-1,0,0
50500675712,0,0,-3,0,-1,-1,-2,-1
50500690020,0,-1,0,0,-3,0,0,-1
50500690020,-2,-1,-1,-1,0,0,1,-1
50500696777,-1,-1,-3,-1,-1,-2,-3,-2
50500696777,-1,-2,-2,-2,0,-1,-1,0
50500712577,-1,-2,-2,-1,0,-1,-1,-1
50500712577,-1,-2,-1,-1,-1,-2,-3,-4
50500719227,-1,-2,0,0,-2,0,2,0
50500719227,-1,-1,-2,-1,-3,-1,-2,-1
50500726879,0,0,-1,-1,-2,-1,-2,0
50500726879,0,0,0,-1,1,0,0,1
50500735672,0,-1,-1,-2,-1,0,-1,-1
50500735672,-1,0,-2,0,-1,-3,-2,0
50500749878,0,-1,-1,0,-1,0,0,-2
50500749878,-2,-1,-1,0,-1,0,0,0
50500756847,-1,-2,-2,-2,0,-2,-3,-1
50500756847,1,0,-2,-1,-1,0,-2,-1
50500772431,-2,-2,0,-2,-1,0,-2,-1
50500772431,0,-1,0,-1,-2,0,0,0
50500787522,-1,-1,0,-1,1,0,0,0
50500787522,-3,-1,0,0,-3,-1,-1,-1
50500788157,0,0,-2,0,-1,-3,-2,-1
50500788157,-2,-2,-1,-1,-1,1,0,0
50500795629,-1,-2,-1,-1,-1,-2,-1,-2
50500795629,-1,0,1,1,-1,-2,-2,-1
50500810051,0,-1,-1,-1,0,1,0,-1
50500810051,-2,-2,0,-2,0,0,0,1
50500816851,-2,-1,-2,0,-1,0,1,0
50500816851,-1,-1,-1,-1,-2,-1,-2,1
50500832539,-2,-1,-1,-1,0,-3,-2,-2
50500832539,1,0,-3,-3,-1,-2,-4,-1
50500839308,0,0,-2,0,0,0,-1,0
50500839308,-2,-1,-2,-1,0,-1,0,-1
50500846865,-2,-2,-2,-2,0,0,2,1
50500846865,0,-2,-1,0,-2,1,1,0
50500855674,-1,-1,-1,-3,-2,-1,-1,-2
50500855674,0,-2,0,-3,-1,0,1,-1
50500869892,-1,0,-1,-1,-2,-1,0,-1
50500869892,-1,-1,-1,-1,-1,-3,0,-2
50500876775,-2,-1,0,-2,-2,-1,1,0
50500876775,-1,1,-1,0,-1,0,-1,-1
50500892562,-1,0,-2,0,0,0,-3,-1
50500892562,0,-2,-1,0,-3,-2,0,-2
50500899370,0,-1,-1,1,0,0,-1,-2
50500899370,0,-2,0,-3,-2,-1,0,0
50500915501,-1,-3,0,-2,-1,-1,-2,1
50500915501,-1,-1,0,-1,0,-1,-2,-1
50500917194,0,-1,0,-1,-1,-1,-2,0
50500917194,1,-2,-1,-2,0,2,0,-1
50500930042,-1,1,-1,-1,-2,0,1,0
50500930042,-1,-1,-1,-1,-2,-1,-3,-1
50500936701,0,0,-2,-1,0,-1,-1,0
50500936701,1,-1,0,0,-1,-2,-1,-1
50500952541,-1,0,-1,0,-2,-1,-2,-2
50500952541,-1,-2,-1,-2,-1,-1,-2,0
50500959276,0,-2,-2,-1,0,1,1,-1
50500959276,-1,0,-2,-1,-1,-1,-1,1
50500975675,0,1,0,-2,-1,-2,-1,-2
50500975675,-3,1,-1,0,-1,0,0,0
50500977129,-1,1,-2,-1,-1,1,-2,0
50500977129,-2,-1,-1,0,-2,-2,-1,-1
50500989832,-1,-2,0,-2,-1,0,-1,-1
50500989832,0,-1,0,0,0,0,0,-1
50500996676,-1,0,-1,0,0,-1,1,-1
50500996676,-1,-1,-2,0,-1,0,-1,0
50501012407,0,0,1,-1,-1,1,1,-1
50501012407,0,-1,-2,0,-3,-3,-2,1
50501019256,-3,-2,1,-2,0,-2,-3,-1
50501019256,0,-1,0,-1,-2,-1,0,-1
50501035606,-1,-2,-2,-1,-1,-1,-1,1
50501035606,0,1,-1,-1,1,0,-1,-1
50501037127,-3,-1,-1,-1,-2,-2,0,0
50501037127,-2,-2,-2,-2,0,-1,0,1
50501049920,-2,-2,0,0,-2,-1,-1,-2
50501049920,-1,-1,0,-2,-3,-1,-1,0
50501064181,1,-1,-1,-1,-1,0,-1,0
50501064181,0,-1,-1,-1,0,-1,-2,-2
50501072456,-1,-1,-1,-1,-1,-1,1,-2
50501072456,0,-2,-3,-1,-2,-1,-2,-2
50501079281,-2,-1,-1,0,-1,-1,-1,0
50501079281,0,-1,1,-2,-1,-1,-1,-1
50501095609,-2,1,-1,0,1,-1,0,-1
50501095609,-1,0,0,0,-1,1,0,-1
50501097123,-1,0,0,0,-1,-1,-1,-2
50501097123,1,-1,-2,-2,-1,0,-1,-1
50501109936,-1,-1,-1,-4,0,-1,-3,0
50501109936,-2,-1,0,-1,-1,-1,-1,-1
50501116814,0,-2,-2,-1,-1,-1,0,-1
50501116814,-4,0,-2,1,-2,0,-1,-1
50501132380,0,-1,0,-1,-2,0,-1,-1
50501132380,0,-2,-1,-1,0,-1,-1,-1
50501139364,-1,0,0,-1,-2,0,0,0
50501139364,-1,-2,-1,-1,0,-3,-1,0
50501155667,-1,-1,-2,-1,-1,-2,-1,0
50501155667,0,0,-1,-2,-2,-2,-1,-1
50501157108,-1,0,-2,-1,0,-2,-1,-2
50501157108,-2,-1,0,-1,0,-1,-1,0
50501170129,-1,-1,-2,0,-2,-1,-2,0
50501170129,0,-1,1,-1,1,-2,-1,1
50501176767,-3,-2,-1,-1,0,-3,-2,-1
50501176767,-1,-1,-2,0,-1,0,-1,-2
50501192511,-1,-2,-1,0,-1,-1,-2,-2
50501192511,-2,0,-2,0,-2,-1,1,-1
50501199208,0,-2,-1,-2,-1,0,0,0
50501199208,-1,-1,-1,-3,-3,-2,-1,-1
50501215695,0,0,-3,-1,-3,-1,0,-1
50501215695,-1,-1,-1,0,-1,-1,-1,-1
50501217126,1,-1,-2,-1,-1,-1,-1,-1
50501217126,0,-1,0,1,1,-1,-1,-1
50501229885,-1,0,0,0,-1,0,0,0
50501229885,-1,-2,-3,-2,1,-1,2,0
50501236849,-2,-2,0,-1,-2,-2,-1,-3
50501236849,1,-1,-3,-2,-2,-2,-2,-2
50501252419,-1,-1,-1,0,-1,-1,-2,-1
50501252419,0,-1,-2,-1,-1,1,-1,0
50501259317,1,-1,1,0,-1,1,-2,1
50501259317,-1,-2,-1,0,-1,0,1,-1
50501275671,0,-1,-1,0,0,-1,-2,0
50501275671,-2,-1,-2,-1,-2,-1,-1,-1
50501277115,-2,-1,-3,-3,-2,-2,-1,-2
50501277115,-2,-2,0,-2,-2,-2,-2,-2
50501290089,0,0,-2,0,0,-1,0,-1
50501290089,0,-1,0,-1,-2,-2,-1,-2
50501296852,-1,0,-1,0,-1,-1,0,1
50501296852,-2,-1,0,0,0,1,1,1
50501312556,-1,-1,2,-3,-1,0,0,-1
50501312556,0,-1,-1,-1,-1,0,-2,-1
50501319339,-1,0,-2,-2,-3,-3,-2,-1
50501319339,-2,0,0,0,-1,-1,-1,-1
50501335608,0,0,-1,0,-1,1,1,-1
50501335608,-1,-1,1,0,0,0,-1,-1
50501337133,0,0,0,0,-1,0,-1,-2
50501337133,-2,-1,-3,0,-1,-1,0,-1
50501349367,-2,-1,-1,-1,0,-2,0,0
50501349367,-1,0,0,-1,-1,-1,0,-2
50501358165,-1,-3,-2,0,0,0,0,0
50501358165,1,1,-1,-1,-1,-2,-4,-1
50501372557,-3,-2,-1,0,-1,-1,-2,-1
50501372557,-1,-1,-2,-1,-1,0,-1,0
50501379276,-1,1,-2,0,-2,0,-1,0
50501379276,1,-1,0,-1,-1,0,-1,0
50501395651,0,0,-1,-1,-1,0,0,1
50501395651,-2,-2,0,0,0,-2,0,-1
50501397126,-1,-1,0,-3,-1,-2,0,-1
50501397126,-2,-2,0,-2,1,-2,-2,0
50501409309,-1,-1,-2,-2,-2,-1,-2,-1
50501409309,-2,-1,0,0,-1,0,-1,-1
50501418164,-1,-2,-1,0,-1,0,-1,-2
50501418164,-1,-1,-2,0,0,-1,0,0
50501432431,-2,-2,0,0,0,-1,1,1
50501432431,-2,-1,-1,1,-1,0,-1,-1
50501439315,-1,-3,-1,0,-1,-1,-1,0
50501439315,-3,0,0,-1,-1,-1,-2,0
50501455655,-1,0,-1,-1,0,2,1,-1
50501455655,0,0,-1,0,-2,-1,-1,1
50501457125,-1,0,-1,0,-2,-2,-2,-2
50501457125,0,-1,-1,-1,1,0,2,-1
50501469329,0,-1,-1,-3,-1,-1,-2,-1
50501469329,-1,-2,-2,-1,1,-1,0,0
50501478172,-1,0,0,0,0,-3,-1,-2
50501478172,-1,0,-1,-1,-2,-2,0,0
50501501275,-2,-1,-2,0,-2,1,0,-1
50501501275,0,-1,-2,-1,-2,0,-1,-2
50501502083,0,0,-2,-1,1,1,0,1
50501502083,0,-1,0,-1,-1,-2,-1,-1
50501514812,1,-2,-1,-1,-2,-4,-1,-1
50501514812,1,-1,-1,-2,-1,-1,-1,-1
50501515820,1,0,1,1,0,-1,0,-1
50501515820,0,-1,-2,-1,-2,-1,1,-2
50501537509,-1,-1,0,-1,0,1,-1,-1
50501537509,0,-1,-2,-3,-3,-1,-1,0
50501538173,-3,-1,-1,0,-1,-1,-3,0
50501538173,-1,0,0,-1,0,-2,-1,-1
50501553168,-2,-2,-2,-1,1,0,0,-2
50501553168,-2,0,-1,1,-2,-1,-1,1
50501559378,1,0,0,-2,1,2,3,-1
50501559378,0,-1,-2,-1,-1,-1,0,-2
50501575011,-1,1,-1,0,-1,-2,1,-2
50501575011,-2,0,0,-3,0,-2,-2,-1
50501575608,-3,-1,1,-3,-2,-2,-1,0
50501575608,-1,-1,-2,0,-2,0,-2,-1
50501597562,0,0,-1,-3,-1,-2,-1,-1
50501597562,-1,-2,-1,1,-1,-1,-1,-3
50501598095,-1,0,-1,0,-2,-1,-2,0
50501598095,1,-2,0,-3,-1,0,-2,0
50501613116,-1,-1,1,-1,-1,0,0,0
50501613116,0,-1,-2,0,-1,2,0,1
50501619166,0,-1,-2,-1,-1,-2,-1,-2
50501619166,-1,0,-1,0,-1,-1,0,-1
50501634143,0,0,-2,-1,0,-1,-3,-2
50501634143,-1,0,0,0,1,-2,-2,-1
50501641621,-1,-1,0,1,-2,1,-1,0
50501641621,0,-1,1,-1,-1,-1,0,-1
50501657379,0,-3,-2,1,-3,-2,-2,-1
50501657379,0,-1,-1,-1,-2,-1,-1,-2
50501658163,0,-1,-2,0,0,-1,-1,-1
50501658163,-1,0,-1,1,-2,1,-1,0
50501673119,-1,-2,-2,1,-1,-2,-1,-1
50501673119,-1,0,-1,-1,2,1,0,0
50501679235,-1,-1,-1,-3,-1,-2,-1,0
50501679235,0,-1,-2,-1,-1,-2,-1,0
50501694156,-1,-1,-1,0,-2,-2,-2,0
50501694156,-1,0,-2,-1,-1,-2,-2,-1
50501701658,0,0,-1,1,-1,-1,0,-1
50501701658,-1,0,0,-2,-1,-1,-1,-1
50501717306,0,1,-3,-3,-1,-2,-1,-1
50501717306,-1,-2,-2,-1,-1,-2,-1,0
50501718154,-2,0,0,0,-1,0,-1,0
50501718154,-1,-2,0,0,-2,-2,-1,-2
50501733093,0,-2,0,0,-2,1,-1,-2
50501733093,0,-2,-1,-2,-1,-1,0,-1
50501739326,1,0,-2,-1,-1,-1,-1,-2
50501739326,-2,-2,-1,-1,0,1,0,0
50501754142,0,-1,-1,0,-1,-1,-1,0
50501754142,-1,-1,-1,0,-1,-1,-1,-2
50501761811,0,-1,0,-2,-2,-1,0,-1
50501761811,-1,0,-2,-1,0,-1,0,0
50501777483,0,-1,-1,-1,-1,-2,-2,-2
50501777483,-2,-2,-1,-3,-5,-4,-1,-1
50501778102,-1,-2,-2,0,1,0,1,0
50501778102,-3,-1,-1,-2,-2,-1,-3,-2
50501793108,-2,-1,0,-2,0,-1,0,0
50501793108,1,0,0,-1,-2,-1,-2,0
50501799286,1,0,-3,-2,-1,-1,-1,-1
50501799286,0,-1,-2,-1,0,0,0,-2
50501814372,-2,0,-1,1,0,-2,-2,0
50501814372,-2,-2,0,1,-1,0,-1,-1
50501821861,0,0,2,-2,-1,-1,-3,-2
50501821861,1,1,-2,-1,0,-1,0,1
50501837264,0,-2,-2,-2,0,0,0,-1
50501837264,-1,-1,0,0,-1,-2,-2,-1
50501844314,-2,-2,-3,-3,0,-2,-1,0
50501844314,-1,-1,-1,0,0,2,0,0
50501853142,-1,1,0,-1,-1,-2,-1,-1
50501853142,1,0,-2,0,1,0,1,0
50501859354,-2,0,-1,-3,0,-1,-2,0
50501859354,-2,-1,1,-2,-2,-3,-1,-1
50501874151,-1,0,-1,-2,-2,-2,1,0
50501874151,-1,-1,-2,-1,0,-1,-1,0
50501881849,0,0,-2,0,-1,-2,0,0
50501881849,0,-3,-1,0,0,0,0,-1
50501897461,0,1,-1,-1,0,1,0,-1
50501897461,-2,-2,-2,-3,-2,-3,-1,0
50501898104,1,-1,1,0,1,-1,-2,-3
50501898104,0,1,-1,0,-1,0,-1,-1
50501913100,-2,-1,-2,-1,-2,-2,-3,0
50501913100,0,0,-2,-2,-1,-1,0,-2
50501919305,-3,-2,-1,-1,1,1,1,0
50501919305,-1,0,-2,-2,1,-1,0,0
50501934345,0,-1,1,-3,-2,-2,-3,-2
50501934345,-1,-1,0,3,0,0,0,-1
50501941896,-1,-1,-5,-2,-3,-4,-3,0
50501941896,-1,0,1,0,-1,0,0,0
50501957430,-1,-1,-1,-3,0,0,-1,-1
50501957430,1,-1,2,-2,-1,-3,-2,0
50501958027,-1,-1,2,-1,-1,1,-2,0
50501958027,-3,-3,-4,-1,0,-2,-2,0
50501973817,-1,-1,-1,2,0,-1,0,0
50501973817,0,0,2,1,0,1,-2,-2
50501979168,0,-3,-5,-7,-2,-1,-2,-1
50501979168,-1,-2,-1,0,-3,-2,-3,-1
50501994130,-1,-1,0,0,-1,1,1,1
50501994130,-2,-2,-3,-2,-1,0,0,-1
50502001634,0,1,-1,2,-1,0,1,0
50502001634,0,-1,-1,-1,0,0,-1,-2
50502017460,-2,-2,-1,1,0,-2,-1,-1
50502017460,-1,0,0,-1,-2,-2,0,0
50502018067,-2,-3,-2,1,1,1,0,0
50502018067,0,0,0,-3,-2,0,0,-1
50502033143,0,-2,-1,1,1,1,2,0
50502033143,-2,1,-2,-3,-2,0,-1,0
50502039268,0,0,1,0,-1,-1,0,0
50502039268,-1,-1,0,-1,-1,-1,-2,-1
50502054274,1,0,0,0,-1,-2,-3,-2
50502054274,-1,-1,-1,0,0,0,-1,-2
50502061747,0,-1,-1,1,0,0,1,-1
50502061747,-1,-1,-1,-1,0,-1,0,-1
50502077306,1,-2,-2,-1,-1,-1,0,0
50502077306,0,-1,-1,-1,-1,-2,-1,0
50502078291,-1,-1,0,2,0,0,1,-1
50502078291,0,-1,0,-2,0,-1,-2,-2
50502093121,-2,-1,0,-1,0,-1,-2,0
50502093121,-1,-1,-2,-1,1,0,2,-1
50502099318,-1,-1,1,-1,-2,-2,-1,-1
50502099318,-1,-2,-1,-1,-1,-2,-1,0
50502114348,0,-2,0,-2,-1,-2,0,-2
50502114348,-2,-1,-1,0,-2,0,-2,0
50502121824,0,1,-2,-2,-2,-2,0,0
50502121824,0,-1,-1,-1,-1,0,0,0
50502137468,-1,-1,-1,-2,-1,1,-1,-2
50502137468,-1,-4,-1,-2,-2,-2,-2,-1
50502138163,-1,0,1,0,1,0,-2,-1
50502138163,0,-2,-2,-2,-3,0,-2,-1
50502153100,-2,1,-3,-3,-2,-2,0,-2
50502153100,0,0,-1,0,-1,-1,-1,1
50502159316,-2,0,-1,-1,-2,-1,0,-1
50502159316,-1,-1,0,3,1,-1,-1,-1
50502175636,0,0,-1,-1,0,1,0,0
50502175636,1,0,-1,-1,0,0,-1,-1
50502181901,-1,0,-2,-1,0,-1,0,0
50502181901,-2,-1,0,-1,-2,0,0,0
50502197548,-1,-2,-1,0,-2,-3,-2,-1
50502197548,1,-2,0,-1,-1,-2,-2,-2
50502198065,-1,-3,0,0,-2,-1,0,-1
50502198065,1,0,-1,1,2,0,-1,1
50502213142,-1,-2,-4,-2,0,0,-1,-2
50502213142,-2,1,-2,-1,0,1,-1,-1
50502219373,-1,-2,0,1,0,2,-2,-1
50502219373,-2,0,-4,-6,-2,-3,-2,-2
50502234372,0,0,1,0,-2,-2,0,0
50502234372,-2,-2,1,0,0,-2,0,0
50502241921,-1,-2,-3,3,-1,0,1,-2
50502241921,0,-1,0,2,-1,1,1,1
50502257364,-1,0,0,-2,-1,1,-1,0
50502257364,-2,-1,0,1,-1,-2,1,0
50502258188,-1,0,1,-2,-1,-2,-3,0
50502258188,0,0,-1,-1,-1,-1,-1,-1
50502273064,-1,-1,0,2,-1,-2,-1,0
50502273064,-2,0,-1,-2,-1,-1,-2,-1
50502279308,0,-2,-4,-4,-1,-1,-1,-2
50502279308,-1,-2,-1,-3,-1,-2,0,-1
50502294126,-1,0,1,2,1,-1,-1,-1
50502294126,-2,-1,0,-2,-2,-1,-1,-1
50502301725,-1,-2,0,-2,-2,-2,-2,-2
50502301725,-1,0,0,2,-1,0,0,0
50502317440,0,-2,-1,-1,-1,1,0,-2
50502317440,-1,-1,0,2,0,0,1,1
50502318057,1,0,0,-2,-1,-1,0,0
50502318057,-1,0,0,-1,-1,-1,-3,-2
50502333084,-1,-2,0,-1,0,-1,0,-1
50502333084,1,0,-2,-2,-1,-2,-1,-2
50502339310,0,-1,-1,-2,-1,-1,-1,0
50502339310,-1,0,-1,-1,-3,-3,-1,-1
50502354261,0,0,0,-1,0,0,0,1
50502354261,0,-1,-2,-3,-3,-2,-2,1
50502361829,-1,-1,0,1,-1,-2,-3,-3
50502361829,-3,-2,-3,-2,0,0,1,-1
50502377427,-2,1,-1,-1,-1,-3,-1,1
50502377427,-2,-2,0,-2,-1,0,2,-1
50502378092,-1,-1,-1,1,0,-3,-1,0
50502378092,-3,-1,0,0,0,-1,-1,-2
50502391807,-1,0,-2,-1,-1,0,-2,-2
50502391807,-2,-2,-3,-2,1,0,-1,-2
50502399316,-1,-1,0,-2,-1,-1,-2,0
50502399316,-3,-1,-2,-1,1,0,1,1
50502414231,-1,-1,-2,0,-3,-3,-1,0
50502414231,-2,-1,-3,0,0,1,0,-3
50502421842,-2,-1,-2,0,-1,0,-1,0
50502421842,-1,-1,0,0,-1,-2,-1,-2
50502437515,-1,-1,-2,-1,0,-1,0,-1
50502437515,-1,-1,0,0,-1,-1,-1,-3
50502438007,-2,0,-1,-1,-1,-1,-2,-1
50502438007,1,1,0,1,0,-1,-2,-1
50502453091,0,-1,-2,-1,-1,0,-1,-3
50502453091,1,-1,-1,-1,0,2,1,1
50502459321,-2,-2,0,0,0,-2,-1,-2
50502459321,1,-1,-2,-1,-2,0,-1,-2
50502474121,-2,0,-2,-1,-1,-1,-1,-2
50502474121,0,-1,1,0,-2,-2,-1,0
50502481769,-1,2,-1,0,-1,-1,1,-1
50502481769,1,-1,-1,-1,-3,-1,0,1
50502497259,-1,-1,0,-1,-2,0,0,1
50502497259,1,1,-2,1,-1,-1,1,0
50502504997,-1,-2,-1,0,-1,-1,-1,-1
50502504997,-1,0,0,-1,-1,-1,0,-1
50502511811,-2,-1,-1,0,-1,0,-2,0
50502511811,-4,0,1,-1,-2,-3,-3,-2
50502519153,-2,-1,-1,1,0,-1,0,0
50502519153,0,0,-1,0,0,0,0,-1
50502534282,-1,-2,-4,-2,0,-1,0,1
50502534282,-1,-3,-1,-1,0,-1,-1,1
50502541716,-1,-1,-2,-1,0,-4,-2,-1
50502541716,-3,-2,1,0,0,-1,-1,0
50502556882,-1,0,-2,-1,0,-2,-1,-2
50502556882,-2,-1,-3,-3,-2,1,0,0
50502564711,-1,-2,-2,-3,0,0,1,1
50502564711,1,-1,-1,0,-4,-1,0,-1
50502573075,0,-1,0,-1,-1,1,-2,-1
50502573075,-1,0,-1,1,1,0,-1,0
50502579163,0,-4,-1,-1,1,0,-1,-1
50502579163,-2,-1,-1,-1,-1,-1,-2,0
50502594242,-1,-2,-1,-2,-2,-2,0,-1
50502594242,-1,0,0,-1,-1,0,-1,-1
50502601592,0,0,-2,-2,-3,2,0,-1
50502601592,-1,-2,-1,0,2,2,2,-1
50502616712,-1,-1,-1,-2,-2,-3,0,-2
50502616712,0,-3,1,0,-3,-4,-3,-1
50502624817,-2,-1,1,-3,-1,-1,-4,-1
50502624817,0,-1,-2,-1,-1,-2,-1,-2
50502631823,0,-1,-2,0,1,-1,0,1
50502631823,-2,-2,-2,-1,1,-1,0,-1
50502639251,-1,0,-1,-1,-1,1,0,1
50502639251,1,-1,0,-2,-1,-1,-1,0
50502654305,-2,-1,0,-1,-1,0,-1,-1
50502654305,0,-1,-2,0,-2,-2,-1,-1
50502661843,0,1,-1,0,-3,-3,1,-1
50502661843,-1,-1,-1,-4,-1,-2,-2,0
50502676815,0,-1,0,-1,-1,-2,-1,-1
50502676815,0,-1,0,-2,1,-1,-2,0
50502684858,0,-1,-2,0,1,1,0,0
50502684858,-1,-1,-1,-1,-1,-2,0,-1
50502691765,-1,0,-1,0,0,-1,-1,-1
50502691765,-2,-1,0,-1,-1,-3,-2,-3
50502699216,-1,0,-2,-2,1,-1,-1,0
50502699216,-2,-1,-2,-2,-2,-1,-2,-1
50502714264,-1,-3,0,1,-1,1,2,0
50502714264,-2,0,-1,-5,-1,0,-1,-1
50502721761,0,-1,-1,0,0,-2,0,-1
50502721761,0,-1,0,0,-1,-2,-1,0
50502736802,-1,-1,0,-2,-2,0,-1,-2
50502736802,1,-1,-2,0,-1,2,0,2
50502744918,-1,-1,-1,-1,-5,-2,-1,-1
50502744918,0,0,-2,-2,0,-2,-2,-3
50502759821,0,-2,-1,-1,1,-1,-1,-1
50502759821,0,0,-2,1,-1,-1,0,0
50502760687,-1,-2,-3,-3,-1,-1,-2,-1
50502760687,0,-1,0,1,2,1,-1,-1
50502774184,1,0,-1,-1,-1,0,-2,-1
50502774184,-1,-1,-2,-1,-4,-4,-1,-3
50502781853,-2,-1,0,0,-1,-2,-1,-2
50502781853,-2,-2,-2,-1,-2,-2,0,-1
50502796872,-2,-1,-1,0,0,-1,-1,0
50502796872,-2,-1,0,-1,0,0,1,0
50502804965,0,0,0,-1,-1,-1,0,0
50502804965,0,-2,-1,0,-1,0,0,0
50502819923,-2,-1,-2,-2,-1,-1,0,0
50502819923,-1,-1,0,0,0,1,-2,0
50502820576,0,-1,-1,-1,-1,-1,0,0
50502820576,-1,-1,1,-2,-1,-1,-2,-1
50502834132,0,0,-1,0,-3,-2,-2,-2
50502834132,-1,-1,-2,0,-2,-2,-1,-1
50502841841,0,-2,-1,0,-2,0,0,-1
50502841841,-1,1,-2,-1,-1,-2,-2,0
50502856887,-1,1,0,-2,-1,-1,1,0
50502856887,-1,0,1,-3,-1,-1,0,-2
50502864870,-2,2,-1,-1,-1,0,0,-1
50502864870,0,-1,-2,-1,-2,-1,-1,0
50502879967,0,0,-2,-2,-1,-1,1,0
50502879967,0,-1,-1,0,-1,-2,-1,-1
50502880675,0,-1,0,-2,0,-1,-1,-2
50502880675,0,-2,1,0,0,0,-1,-2
50502894318,-2,-2,0,-1,-2,-2,-3,-2
50502894318,-1,-2,-1,-2,-2,-1,0,0
50502901694,-2,-1,-1,-1,-2,-1,-1,-1
50502901694,-1,-1,-1,0,0,-1,0,-1
50502916774,0,-1,-1,1,0,2,1,-1
50502916774,-2,-2,-2,-2,-1,-1,-2,0
50502924908,-2,-2,0,-1,-3,-3,-2,-1
50502924908,-2,-1,-3,0,-1,0,0,-1
50502940031,-1,0,0,0,1,1,0,-2
50502940031,-1,-1,-3,-2,-1,1,1,0
50502940681,-2,0,-2,-2,0,0,-1,-1
50502940681,-2,-1,-2,-1,-2,-1,-2,-1
50502955646,-1,0,-2,0,-2,-3,-5,-2
50502955646,1,-1,-1,-1,1,0,-1,-1
50502961863,0,-1,0,1,1,4,2,1
50502961863,0,-2,0,0,0,-1,0,0
50502976847,0,-2,-1,-4,0,0,-2,1
50502976847,-1,-1,0,0,-1,-4,-3,-2
50502984981,-1,-1,0,-1,-2,-1,-1,-2
50502984981,-1,-1,0,0,0,-2,1,-1
50502999778,-1,-1,1,0,-1,-1,2,-1
50502999778,-2,-1,-1,0,-2,1,1,0
50503000642,0,-1,-2,0,-2,-4,-1,0
50503000642,-3,0,-2,-1,-1,-1,-1,-1
50503014225,0,-2,0,-2,-2,-1,0,-1
50503014225,-2,-1,-1,0,-2,0,0,-2
50503021825,-1,-1,0,0,1,-1,0,-1
50503021825,0,0,-1,-2,-1,1,0,0
50503036686,-3,-2,-2,-2,-1,-2,-2,-3
50503036686,0,0,-1,-2,-1,-2,-3,0
50503044923,-2,-2,-3,-1,-1,-2,0,-1
50503044923,-1,0,1,0,-1,-2,-2,-1
50503059956,-1,-1,-2,-1,1,0,-1,0
50503059956,0,0,-1,0,-3,-3,-2,-1
50503060677,0,0,0,1,1,-1,-2,-2
50503060677,-1,-1,0,-1,-1,-2,-1,-1
50503074286,0,-1,-3,0,-1,-1,-1,1
50503074286,-1,1,-1,-3,0,-2,0,-3
50503081631,-2,-2,1,-2,-3,-2,-3,-2
50503081631,-1,-1,-1,-1,0,0,-1,-2
50503096763,-1,0,-1,-2,-2,-1,-1,-1
50503096763,-1,-2,-1,-1,1,0,-2,0
50503104965,1,0,-2,-1,-1,-1,-1,-2
50503104965,-1,1,-2,0,-1,-2,-1,-2
50503128117,-1,-1,0,1,-1,-2,1,0
50503128117,-2,-2,-2,-1,-1,-1,0,0
50503128698,0,-1,0,0,-1,0,-1,-2
50503128698,1,-3,0,-1,-2,0,-2,0
50503134225,0,0,0,0,-1,1,1,-1
50503134225,-1,-1,0,-1,-1,-1,0,0
50503141741,-1,0,-1,-2,-1,-1,-2,-1
50503141741,-1,0,0,0,-3,-2,-1,-1
50503156747,0,-1,-2,0,-1,-2,-2,-1
50503156747,-1,-1,-1,-1,0,2,1,0
50503164903,0,-2,-2,-1,-1,0,-1,1
50503164903,-1,-1,-2,-1,-1,0,-1,-2
50503179767,-2,-2,-1,1,0,-1,-1,-1
50503179767,-3,0,-1,-1,-2,-2,0,-2
50503180650,-2,0,-1,-1,-2,-3,0,0
50503180650,-2,-1,-3,-2,0,1,1,1
50503194137,-2,0,0,0,-1,0,-2,-1
50503194137,0,-1,-4,0,-1,0,-1,-2
50503201550,-2,0,-1,-2,-1,1,-2,-2
50503201550,0,-1,-3,-3,-2,-2,-2,-3
50503216761,-1,0,-1,-1,-2,1,-1,-1
50503216761,0,0,0,-1,-2,-1,-1,0
50503232308,-1,-1,-1,0,0,1,1,0
50503232308,-2,-2,-1,0,0,2,0,0
50503239977,-1,-1,0,-2,-2,-1,-2,-1
50503239977,1,-1,-2,-2,-1,0,-1,-1
50503240509,-2,0,-2,0,-1,-3,-1,0
50503240509,0,-1,-1,0,1,-1,1,-1
50503254250,0,-1,-2,-1,0,-1,0,1
50503254250,-1,-1,1,0,0,0,1,0
50503261708,0,-2,-1,0,-1,0,2,0
50503261708,0,-2,0,0,1,-1,-3,-2
50503276730,-1,-1,-1,-3,0,1,-2,0
50503276730,-1,-1,-2,0,-2,-1,-2,-1
50503284967,-1,-2,-1,-2,0,-1,0,0
50503284967,-1,-1,-1,-2,-3,-1,-1,-1
50503299919,-2,0,0,-3,-1,-2,0,-1
50503299919,-2,-2,0,-1,0,-2,-1,-1
50503300549,-1,-2,-1,0,-1,-2,-3,-3
50503300549,-1,-1,-1,1,-1,0,0,0
50503314234,0,0,0,0,-1,1,0,-1
50503314234,0,-1,-2,-1,0,1,1,0
50503321686,-1,0,0,0,-3,-1,-2,-2
50503321686,-2,0,-1,0,-2,-2,-1,0
50503336884,-1,-1,-1,-1,-1,-2,0,0
50503336884,0,-1,0,0,0,-1,0,-1
50503344938,-3,0,-2,0,0,0,0,0
50503344938,1,-1,0,-2,-2,-1,-1,-2
50503359931,0,-1,-1,0,-1,-3,-3,-2
50503359931,1,0,-1,-2,-4,-4,-3,-1
50503360609,0,-1,-1,-2,0,1,0,0
50503360609,-1,-1,-1,0,0,0,0,1
50503374161,1,-1,-1,-1,-1,-1,-1,-3
50503374161,0,-2,-1,-2,0,0,-3,-1
50503381826,-1,-1,-2,-1,-1,-2,-3,-3
50503381826,-1,0,-2,-2,-2,-1,-1,0
50503396724,-1,0,0,-1,0,-1,-1,-1
50503396724,-1,-1,-2,-2,0,0,-1,-2
50503404853,1,0,0,-1,-1,-2,-2,-1
50503404853,-2,-1,1,-1,-1,0,1,-1
50503419936,-3,0,0,-1,0,-1,1,-1
50503419936,-1,1,-1,0,-1,0,-1,-1
50503420572,-1,-2,-1,0,0,0,-1,0
50503420572,1,-1,0,-1,-3,-4,-3,-1
50503434114,0,-2,-2,-1,-3,-1,0,-2
50503434114,-1,-1,2,0,0,0,-1,0
50503441756,0,-1,-1,-2,-1,-1,0,1
50503441756,-1,0,-2,0,-2,1,-1,0
50503456663,0,-1,-2,-2,0,1,-1,0
50503456663,-1,-1,-2,-1,-1,-4,-2,-3
50503464931,1,-1,0,0,0,1,-1,-1
50503464931,-2,1,0,-2,0,2,1,-1
50503479225,-1,-1,0,-3,0,-2,1,-1
50503479225,-1,-1,1,-1,0,0,0,0
50503487450,0,-2,-1,-1,-1,-1,-2,1
50503487450,0,-1,-1,-1,1,-3,-1,-2
50503494175,-1,-2,-3,0,-3,-1,-1,-1
50503494175,0,-2,0,0,-1,0,-1,-1
50503501556,-2,-1,0,-1,0,1,2,0
50503501556,-1,-1,-1,-2,-2,-2,-1,-1
50503516657,-1,-1,-3,-3,-2,-1,-2,-1
50503516657,-1,-1,-2,-2,0,-1,-1,-2
50503524987,-1,0,-2,-1,-1,0,-1,-1
50503524987,0,-1,-1,0,1,0,-1,-1
50503539186,-1,-1,0,-2,0,1,2,0
50503539186,-1,0,-2,0,0,-1,0,-1
50503547301,0,-2,0,-1,-1,0,-1,-2
50503547301,-1,-2,0,-1,-2,-1,-1,-1
50503554201,-2,0,0,0,0,-2,-1,-1
50503554201,-1,-1,0,-1,-4,-2,0,-1
50503561734,-3,0,-2,0,-3,-1,0,-2
50503561734,0,0,-1,0,0,-2,0,-1
50503576777,-1,-2,-1,1,0,-1,-3,-1
50503576777,-4,-1,-1,0,-1,0,-1,-1
50503584931,0,-1,-2,0,-2,-1,-2,-1
50503584931,-1,-1,-2,-2,-1,0,1,1
50503599278,-1,2,-1,-1,0,1,1,-1
50503599278,-1,1,-1,-2,-2,-3,-1,-1
50503607361,-1,-2,-1,0,-2,-3,-1,0
50503607361,-2,-1,0,-1,-1,0,-1,-1
50503614066,-2,-1,-1,-1,0,-1,0,1
50503614066,-1,-2,-2,-1,0,-1,-1,-2
50503621778,-1,0,0,-2,0,0,0,0
50503621778,0,-1,-2,-2,-1,-4,-2,-1
50503636759,-2,-2,-1,1,1,0,0,-1
50503636759,-1,-2,1,0,-1,2,1,0
50503644936,0,1,-1,-2,-2,-1,-3,-1
50503644936,-1,-3,-2,-1,-3,-1,-1,-2
50503659303,0,-1,0,-1,-2,0,-1,-2
50503659303,0,-1,-1,1,0,-1,-1,0
50503667408,-2,-2,0,0,0,-2,-1,0
50503667408,-1,0,0,-2,-1,-1,-2,-1
50503674111,-1,1,-3,-1,0,1,0,-1
50503674111,-2,-2,-2,-2,0,-2,-1,-2
50503681774,-1,-1,-1,-2,0,-1,1,0
50503681774,1,-1,-2,-1,0,-1,0,-2
50503696835,0,-1,0,-2,-2,-2,-1,-1
50503696835,1,0,-1,-2,1,0,-1,0
50503704984,-2,-2,-1,-3,0,2,0,-1
50503704984,-1,-2,0,0,-1,2,1,1
50503719219,-1,-2,-1,-2,-4,-1,0,-3
50503719219,-1,-1,-1,0,-1,-2,-1,-1
50503727438,0,-1,-3,-1,-2,-3,-2,-2
50503727438,-1,-1,-2,0,-1,0,0,0
50503742378,-1,-1,-3,0,0,0,-1,0
50503742378,-2,1,2,-1,1,0,-1,-1
50503743074,1,-1,-1,-1,0,0,1,-1
50503743074,-1,-1,-1,-1,-1,0,-2,-1
50503756740,1,-2,0,-1,-2,-2,-1,1
50503756740,1,-3,-2,-1,-2,-1,0,-1
50503764801,-2,0,-1,-1,-1,0,-2,1
50503764801,-1,0,-2,-1,-3,-1,-2,0
50503779271,-1,0,1,0,-2,-2,-2,-1
50503779271,0,-1,-1,-1,0,0,0,-1
50503787415,-1,0,-1,-1,1,-1,-1,0
50503787415,-1,-1,-1,0,-2,0,-2,0
50503802247,-2,-2,-3,0,-1,0,1,0
50503802247,0,-1,-1,-2,-2,0,-1,-1
50503803019,0,-1,-1,-1,-1,-2,-2,-3
50503803019,-3,-1,0,-1,1,-1,-2,-1
50503816802,1,-1,0,0,-2,-1,-2,0
50503816802,-1,1,-2,0,0,0,-1,0
50503824925,0,-2,-2,0,0,-2,-2,-1
50503824925,-1,-2,-1,1,1,1,0,-1
50503839234,-1,-1,0,-2,-1,0,-2,0
50503839234,2,1,0,-2,-2,0,-1,-1
50503847415,-1,-1,-1,0,-2,-3,-3,0
50503847415,0,0,0,-1,0,-1,-2,-1
50503862353,-3,-2,-2,0,0,-1,0,-2
50503862353,-1,-2,-1,-2,1,-1,0,-1
50503863050,-3,0,-2,-1,0,0,0,0
50503863050,-1,-1,0,0,-1,-1,-2,-1
50503876830,-1,0,-1,0,0,-2,-1,0
50503876830,-2,-1,-2,0,-1,-2,-2,-1
50503884872,1,-1,0,-1,2,3,3,0
50503884872,0,-1,-2,0,1,1,1,0
50503899288,0,-2,0,0,0,0,1,-1
50503899288,-2,-3,-1,-1,-3,-3,-2,1
50503907478,0,-1,1,-1,-4,-1,-1,-1
50503907478,-2,-1,-2,-2,0,-1,0,-1
50503922387,-3,-2,-1,-1,1,-1,-1,0
50503922387,-2,0,0,0,-2,-2,-1,-2
50503922987,1,0,0,0,-2,-2,-2,-2
50503922987,0,0,0,-1,0,-1,1,-2
50503936734,-1,-1,-2,1,1,1,1,-1
50503936734,-1,-2,-2,-1,-2,-1,-1,-1
50503944817,-1,0,-2,-1,-1,-2,0,-2
50503944817,0,-2,0,-1,-2,-2,-1,0
50503959240,0,-1,-2,-1,-1,-2,-2,-1
50503959240,0,-1,0,1,0,2,0,-1
50503967363,-1,-1,-1,-1,-1,-2,0,-1
50503967363,1,0,0,-2,-1,-1,-1,-1
50503982269,-1,-2,-1,-2,-1,1,-1,-1
50503982269,-1,0,-2,-2,-2,-2,-2,-1
50503983028,0,0,0,1,1,1,0,0
50503983028,-1,-2,0,0,-2,0,-1,-1
50503996759,1,-1,0,0,-3,-4,-2,-1
50503996759,0,1,0,-1,-1,-1,0,0
50504004849,-2,-1,-2,1,-1,0,1,0
50504004849,-1,0,-1,0,0,0,-1,-1
50504019295,-1,-1,-1,-2,-1,0,0,-2
50504019295,-1,-1,0,1,1,0,0,0
50504027405,-2,-3,-2,-1,-1,2,0,-1
50504027405,-1,-2,-1,-1,-2,-1,0,-2
50504042363,0,0,-2,-1,-1,-1,-1,-1
50504042363,-2,0,0,0,-2,0,-1,-2
50504043005,0,-1,0,-2,-1,-1,-3,0
50504043005,-1,0,-1,-2,-1,-1,0,-1
50504056738,1,-1,2,-1,-1,-1,-2,-1
50504056738,-2,-1,0,-1,0,-1,0,0
50504064825,-3,-2,-2,0,0,-2,0,0
50504064825,-1,-1,0,0,0,-1,-1,0
50504079242,-2,0,-1,-2,-1,-1,0,-1
50504079242,0,-1,-1,-2,0,-1,-1,-1
50504087452,0,0,-2,-1,0,-1,-2,-1
50504087452,0,-2,-3,0,0,-1,0,-1
50504102203,-1,-2,-3,1,-2,0,-3,0
50504102203,-2,0,0,0,0,-1,-2,-1
50504103012,1,-1,-1,-1,-1,0,0,-1
50504103012,-2,1,0,-1,-3,-2,0,-1
50504116565,-1,0,0,0,0,0,0,-1
50504116565,0,-1,-2,0,0,3,1,1
50504124767,-1,-1,-1,-3,-1,-1,-2,0
50504124767,-1,0,0,-1,0,-1,-3,-2
50504139055,-1,1,-1,-2,-1,-2,-1,-2
50504139055,0,0,-2,-1,-2,-1,0,0
50504147197,-2,-1,0,-1,-1,-1,0,-1
50504147197,0,-2,-3,-3,-1,-1,0,-2
50504161913,0,-2,-1,1,0,0,0,-1
50504161913,-1,-1,-1,-2,0,-4,-3,0
50504169661,-1,0,0,-1,-1,-1,-2,-2
50504169661,-2,-2,0,1,1,0,1,-1
50504176506,0,0,-1,0,1,0,0,0
50504176506,-1,0,-2,0,0,-1,0,0
50504184656,0,-1,0,-1,-1,-2,-4,-2
50504184656,-1,-1,-1,0,0,-1,-1,-1
50504199008,-1,-1,-1,-1,1,-1,1,1
50504199008,-2,-1,1,-2,-1,-1,0,-1
50504207161,-3,1,-1,0,-2,-2,0,0
50504207161,0,-1,0,1,0,-1,-2,2
50504222164,-1,-2,-1,-1,-3,-2,-1,-1
50504222164,-1,-1,-1,1,-1,-2,-3,-2
50504222954,1,-1,0,-1,2,1,0,-1
50504222954,-1,-1,-1,-1,-1,0,0,1
50504238006,-2,0,-1,0,-1,0,2,-1
50504238006,-2,-1,1,-1,-2,-1,-1,-2
50504244680,-1,-1,0,0,-3,-3,-1,-2
50504244680,0,-2,-1,-1,0,0,-2,0
50504258962,-1,-2,-1,-1,1,3,1,0
50504258962,-1,-1,-3,-1,0,0,-2,0
50504267187,0,-1,0,0,-1,-2,-1,-1
50504267187,-2,-1,0,-2,-1,-2,0,-3
50504281512,-1,-1,-1,-1,-1,-2,-3,0
50504281512,1,-1,1,0,0,1,0,1
50504290591,-2,-2,-3,0,-1,0,-1,-1
50504290591,0,0,-2,0,-1,-1,-1,-2
50504296513,-2,0,1,0,0,-1,0,-2
50504296513,-2,0,-2,-1,-2,-1,-1,1
50504305602,-3,-2,-2,-3,-3,-1,-1,-1
50504305602,0,-1,0,-2,0,0,-1,-1
50504319000,-2,-2,-2,-2,-1,-2,-2,-1
50504319000,1,0,-1,1,-1,0,0,-1
50504328005,-3,1,1,1,2,2,1,0
50504328005,0,-1,-2,-1,0,0,-3,-1
50504341502,-1,-2,-2,-1,-3,-1,0,0
50504341502,-1,-1,-2,-1,-2,0,-1,-1
50504350501,1,0,0,0,-2,-1,-3,0
50504350501,-1,-2,-1,1,-2,-1,1,-1
50504356484,-1,0,-1,-1,2,-2,-1,-2
50504356484,0,-2,0,0,-1,0,0,-2
50504365640,-1,-1,-1,-1,-2,0,-1,1
50504365640,-2,-1,-2,-2,0,-1,0,1
50504379170,0,1,2,1,-2,0,-1,0
50504379170,-2,1,-2,-1,-1,-1,-1,-2
50504388682,-2,-1,-3,-1,-1,-2,0,-3
50504388682,-4,0,-1,-1,-2,-2,-2,-2
50504401592,-1,-1,-1,-2,0,-1,-1,-1
50504401592,-1,-1,-1,-1,-1,-1,0,0
50504410510,2,-1,-2,-3,-2,-2,-2,-1
50504410510,1,-1,-1,-2,0,-1,0,-1
50504416681,-2,0,0,0,0,0,-1,0
50504416681,-2,-3,-3,0,-1,1,-1,1
50504425533,-2,-1,0,0,-1,0,-2,-2
50504425533,-1,0,-1,0,0,0,-1,0
50504439212,-2,0,-1,0,0,0,-2,-1
50504439212,0,-1,0,-1,1,-2,-1,-1
50504448014,-1,-2,-1,1,-1,-1,-1,0
50504448014,-2,-1,0,0,0,0,1,-1
50504461680,0,0,-1,-1,-3,-2,-1,-1
50504461680,-1,-2,-1,-2,-1,-2,-4,-1
50504470502,0,-1,0,0,1,-1,0,0
50504470502,-1,-2,-2,-1,0,-2,0,1
50504476542,1,-1,-2,0,-1,-1,-2,0
50504476542,0,-1,0,0,-3,-1,1,-2
50504485522,-3,0,0,-2,0,-1,-2,1
50504485522,1,0,-1,0,1,-1,0,-1
50504499214,-1,-2,0,0,-1,-2,1,-1
50504499214,-2,0,-2,-1,-2,0,-1,-1
50504508026,-1,0,-1,-1,0,0,-1,-1
50504508026,-1,0,-2,0,-2,-1,0,-2
50504521739,-2,-2,-1,-2,-3,-2,-2,-1
50504521739,-2,-1,-1,0,-1,-3,-2,-1
50504530505,0,-1,0,-3,-1,1,1,0
50504530505,0,-1,0,-1,0,-1,0,-1
50504536728,-2,-3,-2,-2,-1,0,1,0
50504536728,-1,-2,-1,-2,0,-1,-1,-1
50504545517,-1,0,-1,-1,-1,-2,-1,-2
50504545517,-2,-2,-1,-3,-1,-1,-2,0
50504559231,1,-1,-2,-1,1,-1,-2,-1
50504559231,0,-1,0,-2,-1,-1,-1,0
50504568005,0,1,-2,0,0,0,-2,-2
50504568005,0,0,1,-1,-2,-1,0,-1
50504581730,-1,-2,-3,-1,0,-1,-1,-1
50504581730,-1,-1,0,-2,0,1,1,-1
50504590513,-1,-2,0,0,-1,-4,-4,-2
50504590513,-1,-1,-1,1,0,2,3,2
50504596730,-2,1,0,-2,1,-2,0,1
50504596730,0,-1,0,0,-1,2,3,0
50504605782,-3,-2,-3,-1,-1,-1,0,-1
50504605782,-1,-2,-1,-1,-3,0,-3,-2
50504619694,-2,-1,-1,-1,-3,-2,-2,-3
50504619694,-1,-1,-2,1,1,-2,-2,0
50504627989,1,0,-2,-1,-1,-1,1,0
50504627989,0,-1,-2,-1,-8,-1,-1,-2
50504641719,1,0,0,-1,10,5,0,0
50504641719,-2,0,-2,-3,-1,-3,-1,-1
50504650638,1,-2,0,-1,1,-1,1,0
50504650638,-1,-1,-1,-3,1,-3,-1,-1
50504665606,0,-1,-2,0,-5,-3,-3,-4
50504665606,-2,-1,-1,0,-2,-1,-1,1
50504667005,0,-1,-1,-1,0,0,1,-1
50504667005,-3,-1,-1,-2,-1,-2,-1,-1
50504679109,-3,0,-1,-2,-3,-1,-2,-1
50504679109,-1,0,-2,0,0,-2,-1,0
50504688018,0,-1,-1,0,-3,0,-2,-1
50504688018,1,-1,-3,-1,0,0,-1,0
50504701560,-2,0,-1,1,1,0,-1,-2
50504701560,2,0,0,-3,0,-1,1,-2
50504710496,0,-2,-2,-1,-1,0,1,-1
50504710496,-2,-1,0,-2,-1,-2,0,-1
50504725539,-1,-1,-1,-2,-3,-2,-2,0
50504725539,1,-1,-1,0,-2,-2,-3,0
50504726979,-1,0,-1,0,0,-1,-1,-1
50504726979,0,0,-1,-3,-1,-2,-1,0
50504739171,0,-1,-1,0,-3,0,1,1
50504739171,-1,-1,0,-2,0,2,1,0
50504747981,-1,0,-1,0,0,-2,0,-1
50504747981,0,-1,-1,0,-1,-1,-1,-1
50504761607,0,0,0,-2,-1,1,-1,0
50504761607,0,-1,-3,-3,0,0,1,0
50504770625,-2,0,0,-1,-2,-1,-1,-1
50504770625,-2,-1,-1,-1,2,-2,-1,-1
50504785586,-2,-2,-1,-1,-2,-2,-1,-1
50504785586,-1,0,0,0,-2,-1,0,-2
50504786999,0,-2,-1,-1,-1,1,1,0
50504786999,-1,-2,1,1,1,3,1,-1
50504799174,-1,-3,-1,0,-1,-1,0,-2
50504799174,-1,-1,-1,2,-1,0,-1,-2
50504808030,0,-1,-1,-1,-2,-2,-3,-1
50504808030,-2,0,-1,-1,-3,-1,-2,-1
50504821694,-1,0,-1,-2,-1,0,0,0
