timestamp,emg1,emg2,emg3,emg4,emg5,emg6,emg7,emg8
1523150141994307,-3,-4,3,-1,-2,0,0,0
1523150141994307,-1,-1,13,-2,-1,0,-1,-1
1523150141995308,-1,1,-7,0,-4,-3,-2,-1
1523150141995308,-1,-3,-6,-4,-1,-2,0,-1
1523150142007341,0,-1,12,1,2,2,2,-1
1523150142007341,0,1,-1,2,0,-2,-2,-1
1523150142016877,-2,-1,-6,-2,0,-2,-1,-2
1523150142016877,-1,-2,2,-1,-3,-2,-1,-1
1523150142030987,-1,-1,-6,1,0,-4,-3,-3
1523150142030987,-3,-4,-16,-3,-2,-1,2,-1
1523150142032988,-1,-1,15,-2,-2,-2,-2,-1
1523150142032988,-2,-1,-3,0,1,-1,-1,0
1523150142054043,0,1,4,-1,0,-1,-1,-1
1523150142054043,0,-2,-6,2,1,1,-1,0
1523150142055046,-3,0,-9,-1,-2,-3,-1,-1
1523150142055046,0,-2,10,0,-2,0,-1,-2
1523150142067080,-2,-2,-11,-4,-3,-1,-1,0
1523150142067080,-1,-1,1,1,-1,-4,0,-1
1523150142076103,0,-1,2,-3,-1,-1,-2,-1
1523150142076103,-1,-1,-2,1,1,0,-1,-1
1523150142091147,-1,-2,9,-2,-2,-1,-1,0
1523150142091147,-1,0,7,1,0,1,0,0
1523150142093149,-2,-2,-5,-5,-4,-4,-1,-2
1523150142093149,0,-1,-10,-1,2,0,-2,-3
1523150142121733,0,3,8,1,0,-1,0,1
1523150142121733,-1,-3,-2,-2,1,2,0,1
1523150142123240,2,-1,-12,0,0,0,0,-1
1523150142123240,-1,1,-5,-2,-4,-2,-2,-2
1523150142127749,0,-2,-2,-3,-3,-2,-1,-1
1523150142127749,-1,-1,-2,0,-2,0,-2,-2
1523150142136874,-1,0,2,0,1,3,-1,0
1523150142136874,-2,-3,1,-2,0,-2,0,0
1523150142151913,1,-1,2,-6,-2,-1,-2,-1
1523150142151913,-1,1,2,0,-2,-2,0,1
1523150142152916,-2,-4,-1,-1,-2,-1,-1,-3
1523150142152916,-2,-1,5,0,-1,-2,0,0
1523150142173971,1,-3,-5,-2,2,3,2,1
1523150142173971,-1,1,-2,-3,-2,-2,-1,-2
1523150142175975,-1,-2,-5,-1,-1,0,-1,-2
1523150142175975,-1,-1,15,1,1,-1,1,0
1523150142188008,-1,-2,-9,15,-1,0,-2,-1
1523150142188008,-1,0,-6,-4,-3,-1,-1,-1
1523150142197033,-2,-3,2,4,0,-3,-2,0
1523150142197033,4,8,1,2,-3,-3,-2,-2
1523150142211072,-7,-1,-7,9,5,2,1,0
1523150142211072,3,0,-20,-10,-3,1,0,-1
1523150142213582,-3,-2,7,-5,-3,-4,-3,-2
1523150142213582,-3,1,-4,13,-2,-1,-3,-2
1523150142233661,1,-3,3,-7,0,-1,-1,-2
1523150142233661,-1,0,13,13,-1,-1,-2,0
1523150142235664,3,2,17,-2,1,0,1,0
1523150142235664,0,-3,-14,-12,-4,-1,-2,-3
1523150142256726,-11,-14,-11,4,-4,-4,-2,-5
1523150142256726,-3,0,10,4,0,-1,0,-2
1523150142257723,-2,-3,-13,-28,0,2,3,1
1523150142257723,0,-1,10,-2,0,3,0,0
1523150142271763,0,1,-2,4,-3,-4,-2,0
1523150142271763,-5,-6,-29,-43,-3,-3,-1,-1
1523150142272766,3,6,-29,9,-2,-1,-1,-2
1523150142272766,-5,-5,30,1,2,1,3,1
1523150142293820,2,4,19,-5,0,-1,-1,1
1523150142293820,-2,-1,6,21,-3,-3,-3,-2
1523150142295826,-1,-2,-18,-31,-6,-5,-5,-2
1523150142295826,-1,-1,-12,-6,2,1,0,1
1523150142316386,-1,-4,-19,3,1,2,0,0
1523150142316386,0,0,23,13,3,0,1,0
1523150142318391,-2,2,9,6,-2,-1,-2,-1
1523150142318391,-2,-4,-6,1,-3,-6,-2,-1
1523150142330988,0,-1,-3,-13,-5,-3,-3,-2
1523150142330988,0,0,-2,0,-1,-1,2,1
1523150142332994,0,-2,3,18,-1,1,0,0
1523150142332994,-1,-2,1,-16,-2,1,-1,-2
1523150142354050,3,2,-14,-16,-2,-2,-2,-2
1523150142354050,-1,-2,-2,-3,1,2,0,0
1523150142355055,-2,-2,12,21,0,0,1,-2
1523150142355055,-1,-1,-4,14,-2,-2,-1,-1
1523150142376110,1,2,-38,-14,-1,-1,-1,-2
1523150142376110,-3,-3,78,-6,1,-2,-1,-1
1523150142378114,0,-2,-17,20,-2,3,1,2
1523150142378114,0,3,-4,-5,1,2,-1,0
1523150142399168,-3,-1,-16,-2,-6,-4,-4,-3
1523150142399168,0,1,-19,15,-5,-7,-5,-1
1523150142400170,-1,-1,1,-7,2,-3,-1,0
1523150142400170,0,0,17,21,8,6,3,2
1523150142414219,1,2,1,11,5,4,3,3
1523150142414219,0,0,-2,45,2,2,1,-1
1523150142415723,-3,-6,-17,-93,-16,-7,-5,-5
1523150142415723,-2,-1,-19,-3,-8,-10,-5,-4
1523150142436826,0,0,20,-1,8,6,3,1
1523150142436826,-1,-2,-11,-1,3,3,0,0
1523150142437830,-1,2,6,23,2,-1,1,0
1523150142437830,0,-1,-5,-8,-4,-4,-3,-3
1523150142450864,-1,-1,10,-5,-5,-5,-3,-3
1523150142450864,1,0,-7,-13,2,-1,0,0
1523150142457883,0,-1,-1,22,4,1,1,1
1523150142457883,-2,-1,-4,-12,-1,-2,-2,-1
1523150142473925,-1,0,25,8,-5,-4,-2,-1
1523150142473925,-3,1,-19,-8,-5,-5,-1,-1
1523150142475929,0,0,6,1,8,4,2,1
1523150142475929,1,-2,-28,10,0,6,3,3
1523150142495988,-1,3,42,-10,-14,-1,-1,-3
1523150142495988,-1,-4,-19,-1,9,5,-1,-2
1523150142497996,-1,1,5,-4,3,-3,-1,-2
1523150142497996,-2,-9,-43,-82,-19,-11,-5,-5
1523150142511024,-1,2,5,21,6,0,3,2
1523150142511024,0,-1,0,0,-4,0,0,0
1523150142517549,-1,1,14,35,1,0,0,0
1523150142517549,0,0,11,13,4,1,-1,0
1523150142533655,0,-2,-8,-9,-1,-4,-2,-3
1523150142533655,-2,-2,-4,2,-5,-2,1,-2
1523150142535650,0,-1,-5,-3,0,-1,-1,0
1523150142535650,-2,-1,5,20,-2,-4,-2,-1
1523150142556706,-3,-3,-15,-60,-4,-3,-1,0
1523150142556706,0,3,1,11,3,1,-1,0
1523150142557708,-1,-3,5,-5,-6,-4,-2,-3
1523150142557708,0,0,28,8,2,3,1,1
1523150142570746,0,-1,0,27,3,3,0,0
1523150142570746,1,-1,-7,-17,-8,-7,-5,-1
1523150142577771,-3,-2,3,-8,-3,-1,-2,-2
1523150142577771,-1,0,1,10,8,7,4,1
1523150142593837,-1,-2,-10,12,-2,-1,-2,-1
1523150142593837,-2,-1,-5,-23,-6,-5,-3,-4
1523150142595814,0,-2,-10,3,-8,-5,-4,0
1523150142595814,-1,2,34,17,3,-2,0,0
1523150142616375,-3,-5,-61,-7,-2,-3,-2,1
1523150142616375,0,-1,-7,-11,-3,-5,-5,-1
1523150142618379,0,2,12,17,4,2,1,1
1523150142618379,0,3,-3,0,1,2,1,1
1523150142630421,-2,-3,-1,-11,-3,-3,0,-1
1523150142630421,-1,-1,3,1,-1,-2,1,-2
1523150142637438,-2,-2,-17,-7,1,0,-1,-1
1523150142637438,0,0,7,9,-2,-1,-1,-1
1523150142653480,1,1,12,5,1,0,-1,0
1523150142653480,0,0,9,22,2,3,0,1
1523150142655485,-1,-3,-21,-54,-6,-2,-2,-1
1523150142655485,-4,-3,-11,-7,-5,-6,-3,-5
1523150142676544,0,1,12,9,-1,-2,-2,-3
1523150142676544,-1,1,9,-10,3,0,0,-1
1523150142677548,1,0,6,16,0,-1,0,0
1523150142677548,0,-3,0,5,1,0,1,-2
1523150142690580,0,1,7,12,2,1,2,1
1523150142690580,-2,-5,-22,-27,-3,0,-2,1
1523150142704617,-1,2,17,-14,-4,0,-1,-2
1523150142704617,0,0,-14,6,-2,-2,-5,-1
1523150142714151,-1,0,17,1,-3,-6,-5,-4
1523150142714151,-1,-1,-6,5,-2,0,0,-2
1523150142715656,-1,-3,-5,8,3,1,1,1
1523150142715656,-1,-2,-5,-6,1,0,2,0
1523150142736716,0,1,8,7,1,0,0,0
1523150142736716,-2,-3,-11,-24,-4,-3,-2,-2
1523150142737722,-1,0,7,8,0,-1,-1,-3
1523150142737722,-1,0,7,23,0,-2,1,0
1523150142749757,-2,-4,-19,-49,-6,-3,-5,-3
1523150142749757,0,-1,6,11,2,0,0,-1
1523150142758774,-1,-1,-8,11,0,0,0,0
1523150142758774,-2,2,15,12,-1,0,-1,-1
1523150142773816,0,-1,-12,-14,-6,-3,-1,-1
1523150142773816,-3,-4,-12,19,-5,-3,-1,-2
1523150142775821,0,-2,3,10,7,6,3,0
1523150142775821,-2,-2,0,-5,-3,1,-2,-1
1523150142796877,-1,-1,0,15,0,0,-1,-1
1523150142796877,1,0,-4,-6,0,0,-1,-2
1523150142797879,-2,-1,5,2,-3,-4,-5,-1
1523150142797879,-1,-2,-10,-15,-3,-4,-2,-2
1523150142809913,-1,-2,-4,13,1,0,0,0
1523150142809913,-1,2,27,6,3,2,2,0
1523150142819448,-3,-3,-9,-10,-4,-2,-2,-1
1523150142819448,-2,-1,-5,-15,-4,-3,-4,-3
1523150142833544,-2,-1,-1,7,2,1,0,-1
1523150142833544,1,-3,-4,10,3,1,1,2
1523150142835550,-1,2,7,-10,-1,0,0,0
1523150142835550,0,0,-10,2,-1,0,-2,0
1523150142856611,-3,0,22,4,-2,-1,0,-1
1523150142856611,-1,-3,-22,-2,-5,-4,-2,-2
1523150142857612,-1,-2,14,6,-5,-6,-4,-3
1523150142857612,-1,-2,-6,-9,0,0,-1,-1
1523150142870644,-1,1,6,21,9,7,2,1
1523150142870644,-1,1,-8,-4,5,6,4,0
1523150142878664,-2,-5,-12,-29,-6,0,-3,-3
1523150142878664,-2,-1,2,3,-3,-3,-3,-2
1523150142893708,0,-1,-4,-1,-2,-4,-3,-2
1523150142893708,1,1,14,16,-1,-3,-4,0
1523150142895713,-1,-2,-22,-22,-5,-1,-1,-1
1523150142895713,-1,-1,13,1,2,2,1,0
1523150142916775,-3,-2,-6,1,3,1,2,0
1523150142916775,-3,-1,6,0,-1,-4,-4,0
1523150142918278,0,0,-6,-3,-4,-5,-1,-1
1523150142918278,-2,-1,-9,-10,-8,-5,-1,-2
1523150142930818,0,0,-2,-1,0,0,1,-2
1523150142930818,-1,3,22,10,7,5,2,0
1523150142938837,0,-1,6,-13,-1,2,1,0
1523150142938837,-1,-4,-28,-8,-1,-1,-1,1
1523150142953878,-1,-2,0,3,-7,-6,-4,-4
1523150142953878,-1,2,3,22,1,-1,0,-1
1523150142955889,0,2,-1,4,4,1,2,-2
1523150142955889,-3,-4,-5,-37,-5,-4,0,0
1523150142975936,-1,-1,0,0,1,-1,-2,-2
1523150142975936,-1,1,4,-3,-5,-1,-1,-1
1523150142983958,0,0,7,24,5,0,-2,0
1523150142983958,-1,0,-2,14,1,1,-1,0
1523150142989975,0,-3,-22,-17,-3,0,-4,-1
1523150142989975,-3,-2,5,-16,-2,-1,-1,-3
1523150142998999,-1,-2,-12,2,-1,0,0,0
1523150142998999,-2,-1,1,4,-1,-4,-2,-3
1523150143014043,-1,-2,6,-1,-7,-4,-1,-2
1523150143014043,0,-2,-13,-5,0,-4,-3,-2
1523150143015549,-1,0,9,17,1,-3,0,-1
1523150143015549,-1,-2,0,15,-4,2,1,0
1523150143036115,0,-1,10,-9,0,0,-1,0
1523150143036115,-1,-4,-26,-55,-6,-2,-3,-1
1523150143038122,-1,0,5,28,4,0,0,-2
1523150143038122,0,0,14,-3,0,-2,-1,-1
1523150143050154,-1,-3,-12,-12,-4,-2,0,-2
1523150143050154,-1,2,20,11,-4,-2,-1,-2
1523150143059177,0,-3,-7,-6,0,-1,1,-1
1523150143059177,-2,-4,-19,-22,-1,0,-3,-1
1523150143074219,-2,-3,-18,17,-1,-3,-2,-2
1523150143074219,1,-2,-28,-30,-1,-2,-1,0
1523150143075219,-4,-4,13,-24,-12,-8,-4,-4
1523150143075219,1,3,35,21,5,-5,-3,-2
1523150143096277,-1,-3,-41,-11,-4,-1,1,1
1523150143096277,0,0,-1,12,6,9,4,3
1523150143098284,1,1,24,3,5,4,-3,-1
1523150143098284,0,0,8,13,1,2,-2,-1
1523150143110312,-2,-2,-4,-40,-7,-4,-3,-3
1523150143110312,-1,-4,-3,6,-6,-7,-2,-3
1523150143119350,0,1,-11,3,-3,-1,0,1
1523150143119350,0,-2,3,-9,-10,-3,-1,0
1523150143134304,-1,1,6,5,23,2,-1,0
1523150143134304,-4,-2,-5,5,-6,-3,-1,0
1523150143135306,-1,-2,0,8,7,-1,-2,-1
1523150143135306,0,0,-8,-2,0,3,3,1
1523150143156362,0,1,14,22,-5,1,0,1
1523150143156362,0,-2,-3,-9,1,-2,-1,-1
1523150143158368,-1,-1,-1,-3,-6,-3,-1,-2
1523150143158368,1,1,2,-14,5,-3,-1,-1
1523150143179425,-2,-1,7,13,-4,2,1,0
1523150143179425,-1,2,10,7,-3,-4,-4,1
1523150143180428,0,0,-6,-15,6,1,-1,0
1523150143180428,-1,-5,-25,-16,-15,4,-1,-3
1523150143193461,0,-2,16,14,-5,-7,-2,-2
1523150143193461,0,1,0,17,-1,-5,-3,-2
1523150143195466,-1,0,-7,-16,-1,-1,1,-1
1523150143195466,-2,-4,1,-14,2,-1,-1,-1
1523150143216540,-1,0,6,3,1,0,-2,-1
1523150143216540,-2,-3,-8,13,0,2,0,-1
1523150143218041,1,-1,16,-16,0,2,0,1
1523150143218041,-2,-5,-24,-4,2,-2,-2,0
1523150143239297,1,1,22,7,-8,-3,-2,-1
1523150143239297,0,-1,-1,-1,1,-3,-3,-2
1523150143240300,-1,-3,-14,6,-5,-1,-2,-2
1523150143240300,1,0,4,1,0,-3,0,-2
1523150143261357,2,-2,1,-3,0,0,-2,0
1523150143261357,-1,-2,-16,-19,8,2,0,-1
1523150143263362,-1,2,-4,53,-2,3,3,3
1523150143263362,-4,-2,-7,-22,2,-3,-3,-2
1523150143277408,-2,-1,3,6,-3,-3,-2,-3
1523150143277408,-1,0,15,10,-4,-2,-1,-2
1523150143278407,0,0,0,19,-1,0,-2,-2
1523150143278407,1,2,1,17,3,0,2,1
1523150143299460,-2,1,0,-24,0,-1,-1,-2
1523150143299460,-2,-3,8,1,0,2,0,-2
1523150143300463,-3,-5,-27,-20,-3,-3,-1,0
1523150143300463,-1,0,8,12,-2,-2,-2,0
1523150143313496,-1,0,-7,3,2,0,-3,-1
1523150143313496,-1,-2,0,-34,-8,-4,-3,-1
1523150143320521,0,1,8,0,-2,-2,-3,-2
1523150143320521,0,0,-12,29,15,4,3,-1
1523150143336568,-1,-5,-27,-60,-5,0,0,-1
1523150143336568,-1,-3,0,-15,-8,-2,-2,-2
1523150143337570,-2,1,-1,9,1,-4,-3,-3
1523150143337570,0,3,16,1,-11,-5,-3,-1
1523150143358628,-2,-1,-1,12,5,3,1,0
1523150143358628,-1,2,-5,4,3,2,1,1
1523150143360630,-2,-3,7,-15,-4,-2,-1,2
1523150143360630,-1,-3,-12,2,0,-1,-1,-2
1523150143373666,-1,-1,4,10,0,0,1,-2
1523150143373666,-1,0,2,-1,-2,1,-2,-1
1523150143379690,-2,0,1,24,1,-2,-2,-2
1523150143379690,0,0,3,-23,-7,-3,-2,1
1523150143396733,-1,-3,-16,18,0,0,-1,-2
1523150143396733,0,0,13,17,11,5,3,-1
1523150143397730,-1,-1,-5,-28,0,3,2,0
1523150143397730,-1,-2,-15,-14,-4,-3,-2,-1
1523150143419313,-1,-2,9,1,-7,-5,-2,-1
1523150143419313,-1,-3,-9,7,-6,-6,-4,-1
1523150143420823,0,0,8,24,5,-1,-2,-2
1523150143420823,-1,-5,-12,-41,-4,0,-2,0
1523150143432868,-2,0,-8,-3,1,1,0,2
1523150143432868,-1,0,-2,-3,-3,-4,-1,-1
1523150143439889,-1,-2,-2,4,-3,0,0,-2
1523150143439889,-1,-1,11,16,2,-3,-1,-2
1523150143455930,0,1,2,-2,4,2,-1,0
1523150143455930,2,1,10,0,-20,10,2,-1
1523150143457933,-1,-4,-12,16,24,3,0,-1
1523150143457933,-2,3,4,-17,-6,-2,-1,-3
1523150143479012,-2,-4,-12,-34,-1,-5,-1,-1
1523150143479012,-1,-1,12,32,-1,-5,-4,0
1523150143480993,0,-1,-14,-2,-10,0,-1,-1
1523150143480993,-1,-1,5,9,5,1,3,1
1523150143493030,1,2,23,28,1,0,-1,-2
1523150143493030,-1,-2,-12,-23,2,-1,-1,-1
1523150143500045,-2,1,8,5,-8,-5,-1,-3
1523150143500045,-1,0,-7,10,2,0,-2,-1
1523150143516608,0,0,13,0,-2,2,0,0
1523150143516608,0,-2,-4,7,4,-1,1,0
1523150143518112,-1,1,-1,-17,-7,-5,-4,-1
1523150143518112,-2,0,9,0,-5,-5,-3,-2
1523150143539172,-2,-3,-16,-20,-4,-1,-2,-1
1523150143539172,-2,-2,-9,-2,2,2,0,0
1523150143541177,0,0,3,-8,4,4,2,-1
1523150143541177,-1,-1,7,9,1,0,-2,-1
1523150143553210,-1,1,4,19,-4,-6,-1,0
1523150143553210,-3,0,-6,-6,0,-6,-4,-2
1523150143560228,0,-1,-11,-18,-7,-2,0,2
1523150143560228,-1,-1,10,11,-2,1,0,0
1523150143576272,1,-2,-3,1,1,2,0,0
1523150143576272,-1,-1,14,13,1,-3,-3,-1
1523150143578279,-3,-5,-2,25,-2,-1,-3,-3
1523150143578279,1,0,-12,-27,2,3,1,0
1523150143599332,-2,-2,2,-12,-4,-2,-1,-2
1523150143599332,-1,3,-5,-1,1,0,1,0
1523150143600338,-1,-1,19,7,-3,-4,-3,-1
1523150143600338,0,-2,-5,26,4,-2,-1,0
1523150143613375,-1,-2,-6,12,-1,-1,0,-2
1523150143613375,-1,-2,-7,-32,-4,0,-1,-2
1523150143620394,1,2,-8,-7,0,1,2,1
1523150143620394,-3,-4,21,-7,-4,-1,0,0
1523150143636054,-1,-1,-2,10,0,0,-1,1
1523150143636054,-2,-3,-12,-9,-4,-3,-1,-2
1523150143638060,-1,-2,-12,-16,-3,-1,-2,-1
1523150143638060,0,-1,-12,6,3,-3,-2,-2
1523150143659119,-1,1,2,-2,0,1,-1,-2
1523150143659119,-1,-1,13,6,2,2,1,2
1523150143660116,0,1,7,-1,-4,-5,-3,0
1523150143660116,-1,-2,-4,-4,-1,-4,-3,0
1523150143673157,0,-5,-12,9,0,-2,0,0
1523150143673157,0,-2,-13,-14,-9,1,-2,-2
1523150143682182,0,2,10,38,24,6,2,1
1523150143682182,-2,1,-5,-40,0,1,-1,-2
1523150143696220,0,1,16,45,-5,-1,1,1
1523150143696220,0,-3,-14,-23,-5,-7,-6,-3
1523150143698220,-1,-2,-19,-5,-8,-2,0,0
1523150143698220,-1,2,18,4,2,2,2,-1
1523150143719280,0,1,4,-3,5,-1,2,-2
1523150143719280,-1,-1,-10,7,1,0,-1,0
1523150143720784,-2,-4,0,-15,-8,-6,-3,-3
1523150143720784,-1,0,8,2,-5,-3,-1,-1
1523150143741343,-2,-3,-14,-3,-3,-1,0,-1
1523150143741343,-2,-2,-2,2,3,1,2,0
1523150143742345,-1,-2,-2,-17,-2,0,-1,-2
1523150143742345,0,1,1,8,1,3,0,-1
1523150143755390,-1,-3,-6,-18,-7,-4,-4,-3
1523150143755390,-2,1,12,19,6,-4,-2,-2
1523150143756382,0,-2,-1,-18,-7,-2,-1,0
1523150143756382,-1,0,1,23,-1,3,1,-1
1523150143778442,1,1,-3,-4,5,4,2,1
1523150143778442,1,0,11,7,4,2,1,0
1523150143779443,-1,-1,-10,-28,-14,-2,0,0
1523150143779443,-3,-3,-9,20,-7,-6,-4,-4
1523150143801502,-1,1,-8,-12,-1,-4,-3,0
1523150143801502,0,-1,-5,10,9,0,-1,-1
1523150143802505,-1,1,1,-15,-10,0,0,1
1523150143802505,0,-2,-2,4,4,0,0,-1
1523150143816052,-3,-1,-1,-6,-5,1,-2,-3
1523150143816052,-1,-2,-6,14,-3,-2,0,-1
1523150143816552,-1,1,3,8,5,-2,-2,-1
1523150143816552,0,-1,2,-6,-3,-1,-1,0
1523150143838612,0,-1,3,-19,-2,0,0,-2
1523150143838612,0,-3,-3,-9,0,-2,-1,-3
1523150143838612,-2,-2,-3,-1,2,1,0,-3
1523150143838612,0,0,-9,6,0,2,-1,0
1523150143861675,-1,-1,10,-12,0,0,0,-2
1523150143861675,-2,-1,8,4,-4,-4,-3,-2
1523150143862678,-2,-2,-16,-24,-3,-2,-3,0
1523150143862678,-2,-2,-10,-17,0,0,0,0
1523150143875714,-1,1,3,18,3,0,-1,-1
1523150143875714,-1,-1,-14,9,-4,-1,-2,0
1523150143876714,-1,-2,24,-18,6,3,-1,-4
1523150143876714,-2,-2,1,24,-2,0,0,0
1523150143898774,-1,-4,-14,-8,-1,0,1,-1
1523150143898774,-1,2,8,1,0,-1,0,0
1523150143898774,1,0,-1,11,1,-3,-2,-1
1523150143898774,-2,-1,1,1,-6,-4,-3,0
1523150143921841,0,2,14,10,-1,0,-1,1
1523150143921841,0,-3,-11,-21,-1,0,-1,-1
1523150143922342,-1,-1,-5,11,1,3,2,-1
1523150143922342,-1,-2,-4,-7,-4,0,-1,-3
1523150143935892,0,2,14,-4,-2,3,1,-1
1523150143935892,-4,-4,-6,-34,-8,-4,-4,-3
1523150143936895,-2,0,5,-5,1,-2,-1,-2
1523150143936895,-1,-2,-11,-24,0,-4,-2,-1
1523150143957949,-1,-1,4,17,0,-5,-4,-2
1523150143957949,0,0,-4,12,3,1,1,-1
1523150143958953,0,1,19,7,1,0,1,-1
1523150143958953,-2,-2,-4,8,1,0,2,-1
1523150143981011,-1,-1,-8,-8,-1,-3,-1,0
1523150143981011,-2,0,25,-16,-3,-2,0,-2
1523150143981011,-2,-5,-35,-8,-8,-7,-5,-2
1523150143981011,-2,-3,-8,2,-3,-1,1,0
1523150143996052,-1,0,-2,-4,0,3,3,2
1523150143996052,0,0,-1,23,6,3,-1,0
1523150143996052,-1,1,9,8,1,-1,-2,-1
1523150143996052,0,1,11,16,-2,-2,-2,-2
1523150144018617,-2,-3,-10,-22,-5,-2,-2,-2
1523150144018617,0,0,-3,7,-6,-4,0,1
1523150144019120,0,1,4,6,0,-2,-2,-3
1523150144019120,0,-1,-2,0,4,1,2,2
1523150144040713,-1,-1,-3,3,2,0,0,0
1523150144040713,-1,1,6,-4,-3,-1,0,0
1523150144041716,-3,-4,-10,-6,0,0,-4,-1
1523150144041716,-1,0,1,-8,-2,-4,-3,-1
1523150144063780,-1,-1,-6,-13,4,-2,-3,0
1523150144063780,-1,-2,-10,10,-15,-1,-2,1
1523150144064783,-1,-1,-3,-13,-1,-5,-2,-1
1523150144064783,-1,0,17,6,4,3,0,-2
1523150144078817,-2,-1,2,8,-1,-3,0,-2
1523150144078817,0,0,7,21,11,3,1,0
1523150144078817,0,3,14,22,3,4,3,3
1523150144078817,-4,-9,-49,-49,-9,-4,-3,-3
1523150144100875,-1,-1,13,6,-3,-3,-3,-2
1523150144100875,-1,-1,9,-6,-3,-5,-1,-3
1523150144101878,0,-2,-12,18,0,2,3,-1
1523150144101878,1,2,21,6,3,1,0,1
1523150144115934,-1,-4,-31,-10,-1,-3,-2,-4
1523150144115934,0,-4,-6,2,-2,-2,-4,-1
1523150144116934,-2,0,5,-19,-7,-2,-2,1
1523150144116934,-1,-2,4,-15,-2,5,1,1
1523150144138524,0,0,-3,-15,-5,-3,1,0
1523150144138524,-1,2,-2,11,3,-2,-2,0
1523150144138524,-1,-2,-5,4,1,0,0,-3
1523150144138524,0,-1,-1,-16,-5,-6,-3,-4
1523150144160581,-1,-1,14,18,-2,2,1,0
1523150144160581,-1,-3,-9,-23,3,0,0,-1
1523150144161587,-1,-2,-11,-3,-5,-2,-2,-2
1523150144161587,0,1,9,31,3,0,0,-2
1523150144175624,1,-1,-5,-22,2,-2,-2,0
1523150144175624,-3,-3,-3,4,-5,-5,-3,-1
1523150144176625,-2,-1,5,-12,-4,0,0,-1
1523150144176625,-1,1,-4,6,6,2,-2,0
1523150144198683,-1,-2,5,10,0,-1,0,-2
1523150144198683,-3,-3,-12,-41,-5,-1,-2,-3
1523150144198683,-1,0,1,14,0,-2,-2,-1
1523150144198683,2,1,1,-1,-4,-2,-2,0
1523150144220751,-1,-4,-19,-8,0,1,-2,0
1523150144220751,-3,-1,-3,-15,-2,1,1,-1
1523150144221750,-3,-1,-4,12,1,-2,-1,-1
1523150144221750,0,-1,3,3,2,-3,-2,-2
1523150144236123,-1,-1,10,4,-5,-1,-1,-2
1523150144236123,0,-2,-24,-15,-2,1,-1,-1
1523150144236123,-1,-1,6,22,7,8,3,2
1523150144236123,0,-2,-6,-25,-3,-1,-1,-1
1523150144258197,-1,-2,-6,7,-1,-5,-5,-4
1523150144258197,-1,2,33,4,-2,-4,-3,-3
1523150144259186,-1,-5,-22,-10,-5,-4,-3,-3
1523150144259186,-1,0,3,16,0,-1,2,0
1523150144280240,-1,0,1,-4,0,-1,-2,0
1523150144280240,-2,-4,3,-1,-1,-1,0,1
1523150144281244,-1,1,4,-5,-1,-3,-1,0
1523150144281244,-2,-1,2,2,0,2,1,0
1523150144295284,-1,1,1,-2,0,-1,-1,0
1523150144295284,0,0,-1,7,0,2,-2,1
1523150144296284,-1,-1,7,-5,-2,-2,-2,-1
1523150144296284,0,-1,-15,-3,-6,-4,-4,0
1523150144318354,-1,-1,15,5,2,3,0,-1
1523150144318354,0,0,-2,5,2,3,1,0
1523150144319355,-2,-1,-2,-12,-2,-1,0,-2
1523150144319355,-2,-3,-2,6,-4,-4,-1,-2
1523150144340426,-1,-1,5,0,-1,-1,0,0
1523150144340426,-1,1,-1,0,0,-3,0,-2
1523150144341434,1,0,3,5,-1,-4,-2,-2
1523150144341434,1,2,8,29,12,-3,-1,-2
1523150144355480,-2,-2,-11,-24,-4,8,2,0
1523150144355480,-1,-2,-3,-11,-6,5,3,0
1523150144356466,-1,0,19,-11,-5,-3,-3,-1
1523150144356466,-4,-4,-13,13,-1,-7,-5,-3
1523150144378525,-4,-4,-40,-31,-2,-7,-4,-4
1523150144378525,1,1,8,37,2,-1,-2,0
1523150144378525,1,0,0,-9,3,3,2,0
1523150144378525,-2,0,8,-18,-3,1,-1,0
1523150144400585,0,1,3,9,4,0,0,-1
1523150144400585,0,1,-3,-6,-4,-3,-2,-3
1523150144401586,0,-2,-3,6,-1,-2,-1,-1
1523150144401586,-1,0,5,-3,-5,-2,0,-2
1523150144416131,0,0,2,7,-3,-1,0,0
1523150144416131,-3,-2,-3,-8,3,-1,0,-2
1523150144416632,-2,0,5,15,0,-4,-1,-1
1523150144416632,-1,-1,1,4,-3,1,0,-1
1523150144438704,-1,-2,-14,-18,0,-2,-1,-2
1523150144438704,1,-3,-10,9,3,-1,-2,-1
1523150144438704,-1,1,11,-9,0,2,0,-1
1523150144438704,-1,-1,2,14,1,2,-1,0
1523150144460766,0,1,2,-3,0,0,-1,0
1523150144460766,-4,-1,26,21,-1,-4,-2,-1
1523150144461768,-2,-4,-59,-31,-10,-3,-2,-3
1523150144461768,-1,0,11,4,2,4,1,-1
1523150144475803,-1,-1,12,17,-2,-3,-4,-1
1523150144475803,-1,-1,-15,-22,-4,-3,-4,-1
1523150144476805,-1,-2,4,22,5,0,2,2
1523150144476805,-1,0,1,-10,4,1,1,0
1523150144497861,0,0,5,30,-10,-6,-2,-1
1523150144497861,-2,-2,-17,-41,-7,0,0,-2
1523150144498864,0,-1,5,5,-1,3,-1,-2
1523150144498864,0,-1,-14,-13,2,-1,-1,-3
1523150144520934,-2,1,29,7,2,-1,0,-2
1523150144520934,1,-1,4,-1,-2,-6,-3,-3
1523150144521935,-1,0,0,2,1,-5,-2,-1
1523150144521935,-1,0,1,-21,-5,-2,-1,1
1523150144535974,-2,-4,-2,12,-3,-3,-2,-2
1523150144535974,-1,0,-23,1,2,4,4,1
1523150144536976,0,-2,6,-5,1,2,0,0
1523150144536976,0,0,1,-12,-2,-1,-3,0
1523150144558060,-1,0,-2,36,2,-1,-2,0
1523150144558060,0,-1,1,-34,-1,1,-3,-1
1523150144559039,-2,-1,-5,-5,0,-2,-1,-1
1523150144559039,-2,-1,-9,0,-6,-5,-1,-1
1523150144581095,0,0,-2,-8,0,0,-1,-1
1523150144581095,0,-2,7,26,7,2,1,1
1523150144581095,0,-1,-3,15,-1,-1,-2,0
1523150144581095,-2,-2,13,-35,-9,-4,-5,-2
1523150144596134,0,-1,-7,-10,4,2,1,-3
1523150144596134,0,2,3,13,0,2,-1,-2
1523150144596134,0,0,8,-6,3,-1,-1,-1
1523150144596134,-1,-1,-10,14,0,2,1,2
1523150144618700,-1,-2,-1,-4,-1,-3,-1,0
1523150144618700,0,1,10,-15,8,-2,-2,-1
1523150144619201,-3,-2,-8,-12,-19,-2,-3,-1
1523150144619201,1,-2,-40,5,-10,-3,0,1
1523150144640981,-2,-1,16,6,2,3,0,0
1523150144640981,0,-2,-9,26,2,-1,-1,-2
1523150144648005,0,0,-3,-37,4,-3,-3,-2
1523150144648005,-3,-2,-4,-31,-1,-3,-4,-1
1523150144656021,0,0,4,18,-3,0,3,1
1523150144656021,-3,-4,-28,-25,-3,2,2,2
1523150144657023,0,1,6,19,7,5,1,-2
1523150144657023,0,1,7,6,-2,0,-1,-1
1523150144678086,0,0,0,-12,0,-2,-3,0
1523150144678086,-1,-2,0,7,-3,-3,-4,-4
1523150144679082,-1,0,7,1,-3,0,0,0
1523150144679082,-2,0,5,4,0,-1,0,-2
1523150144701140,-1,0,-2,8,1,1,-2,-1
1523150144701140,0,-1,2,-11,-6,-2,-1,0
1523150144701140,-2,-3,5,-2,-2,-3,-2,-1
1523150144701140,-1,0,5,19,4,3,1,1
1523150144715179,-2,-2,-13,-18,-4,0,-3,-2
1523150144715179,-1,-1,10,5,-2,-2,-1,0
1523150144723705,1,0,4,12,3,1,0,-1
1523150144723705,1,-1,7,-1,3,0,-2,-1
1523150144738247,0,-4,-21,-17,-6,1,3,1
1523150144738247,-6,-2,12,-8,-7,-2,-3,0
1523150144739250,-4,-3,-18,-16,-3,-3,-2,-1
1523150144739250,-2,-1,-4,17,2,1,1,-1
1523150144760305,1,0,3,18,3,0,-2,-1
1523150144760305,0,0,1,-3,1,-4,-2,-1
1523150144761311,-1,0,6,21,0,2,1,0
1523150144761311,0,1,9,-14,-1,-1,0,-3
1523150144775349,-2,-4,-15,-31,-5,0,-2,-2
1523150144775349,-2,1,-2,10,-1,0,1,-1
1523150144783370,-2,-4,-3,2,-1,-2,-3,-1
1523150144783370,1,0,-5,15,-5,-2,-1,-2
1523150144798411,1,-1,5,-17,1,-1,-1,1
1523150144798411,1,0,3,11,1,-2,-3,1
1523150144799412,2,-1,-1,-5,-1,0,-1,-2
1523150144799412,-2,-7,-21,3,-2,-1,-4,-2
1523150144820973,-2,1,2,-2,-2,-2,-1,-1
1523150144820973,0,0,-14,4,0,0,-1,1
1523150144821976,-2,-3,15,-36,-2,-3,-1,0
1523150144821976,0,0,-2,21,0,0,2,0
1523150144834512,-3,1,7,-9,-2,-2,0,-3
1523150144834512,-2,-4,-24,1,-2,-3,-4,-2
1523150144843535,-2,1,-7,6,-1,0,-2,-1
1523150144843535,-1,-2,14,-3,-1,-1,-2,1
1523150144858579,-2,0,2,2,0,-1,0,0
1523150144858579,3,2,11,34,1,2,0,-1
1523150144858579,1,-1,-17,-38,-4,-5,0,-3
1523150144858579,-3,-5,2,-5,-2,-6,-2,-1
1523150144880638,2,2,8,16,-3,6,3,1
1523150144880638,-3,-2,11,-2,4,1,3,1
1523150144881638,-2,2,-3,20,0,0,-1,-1
1523150144881638,0,0,-16,-12,0,0,0,0
1523150144894675,-2,0,18,-9,1,-1,-3,-1
1523150144894675,1,-3,-8,-2,-3,-2,-1,-1
1523150144903697,0,-1,-2,3,-2,-2,-2,-1
1523150144903697,-1,-1,-2,-9,-2,-1,0,-1
1523150144918244,-2,0,-2,3,0,-5,-2,-2
1523150144918244,-2,2,5,-12,-1,1,2,-1
1523150144919245,-2,-2,-8,11,-2,-2,-1,-1
1523150144919245,-1,-1,-2,-7,0,0,-2,-1
1523150144940794,-1,-3,-27,-7,-2,-1,1,-1
1523150144940794,0,1,5,-21,-1,0,-2,-3
1523150144941799,0,-1,3,14,3,1,-1,-1
1523150144941799,-1,-1,2,23,3,4,0,0
1523150144954836,-1,-2,-4,-28,1,-4,-3,0
1523150144954836,-2,-1,-10,-7,-10,-3,-1,-2
1523150144962852,-2,1,9,12,-2,-2,0,0
1523150144962852,-1,2,5,3,7,4,1,1
1523150144977896,1,1,2,12,2,-2,-1,-2
1523150144977896,-2,-2,0,-4,-3,-3,-2,-4
1523150144978893,-1,-3,-2,-7,-2,-1,0,-1
1523150144978893,0,-2,3,-3,-2,-2,2,0
1523150145000954,-1,-3,-3,-3,1,0,-1,-1
1523150145000954,-1,-2,-6,-1,1,0,-1,-2
1523150145001956,-3,-1,-2,-3,-1,-2,-2,-1
1523150145001956,-1,-2,3,-10,-2,-1,-3,0
1523150145014991,-2,-1,-2,5,-1,-2,-1,0
1523150145014991,1,-1,3,3,1,0,-1,0
1523150145023524,0,0,-4,-3,1,1,1,0
1523150145023524,0,2,9,-5,-2,-3,-2,-3
1523150145037866,-2,-4,-9,15,-4,-2,-2,-2
1523150145037866,0,1,1,10,2,-2,-1,0
1523150145038869,-1,-2,3,-41,0,0,-4,-1
1523150145038869,0,0,6,16,-7,3,2,2
1523150145060930,-2,-2,-19,-9,3,-1,1,-1
1523150145060930,-1,-1,5,4,0,-4,-2,0
1523150145061933,0,-2,2,12,0,-1,-2,1
1523150145061933,0,0,-12,-18,-3,1,0,0
1523150145083988,-4,-5,2,0,-2,-2,-3,-3
1523150145083988,-2,-1,-10,-12,-4,0,0,-1
1523150145084993,0,0,-7,25,0,-2,-1,-3
1523150145084993,-2,0,0,-32,-2,-4,-1,-3
1523150145098027,0,0,5,6,-3,-3,0,-1
1523150145098027,-2,0,0,-6,1,-1,-3,0
1523150145099029,0,-1,-3,13,-2,-1,-3,-2
1523150145099029,-2,-1,15,16,2,-2,-3,-2
1523150145121092,0,-1,0,-18,-1,1,1,-1
1523150145121092,-1,-3,-8,-10,-1,2,-1,-2
1523150145121594,0,2,2,2,1,4,3,1
1523150145121594,-1,-2,-7,-2,-1,-3,-3,-2
1523150145144167,-1,1,12,14,-1,-3,-2,-1
1523150145144167,-1,-2,8,5,-4,-2,0,0
1523150145145165,-3,-4,-23,-25,-2,0,1,-2
1523150145145165,-1,1,25,24,5,0,-1,-3
1523150145158200,0,1,-2,-3,-4,0,-2,1
1523150145158200,-1,0,28,26,-1,-4,-2,0
1523150145159200,0,0,-5,-27,6,-4,-2,-1
1523150145159200,-5,-10,-48,-21,-13,-3,-2,-2
1523150145181261,2,6,21,44,4,1,-1,2
1523150145181261,-1,-1,-5,-37,-6,4,1,-1
1523150145181261,-2,1,14,12,1,-1,1,-1
1523150145181261,-2,2,6,5,2,-3,-2,-1
1523150145204321,-3,-3,1,-14,-2,-3,-3,-2
1523150145204321,-3,-2,-8,7,3,-1,1,-1
1523150145204321,-1,-1,-1,2,-4,-2,-2,-1
1523150145204321,1,1,-6,4,3,1,2,0
1523150145218364,-2,-4,-2,-21,-5,-2,-1,-4
1523150145218364,0,2,1,13,2,1,0,0
1523150145219366,1,0,-7,-18,-4,0,-2,-1
1523150145219366,-1,-1,-1,0,-1,-1,-2,-1
1523150145240965,1,-1,-5,-1,3,4,1,2
1523150145240965,-2,-3,-7,0,0,-2,-3,-3
1523150145241967,-1,1,10,7,-4,-1,-1,0
1523150145241967,-2,-5,1,-4,-4,-4,-1,-1
1523150145264027,0,-1,-7,-10,0,-3,-4,0
1523150145264027,-2,-2,-18,-16,0,-1,0,-1
1523150145265029,-2,0,5,11,0,1,1,0
1523150145265029,-2,-2,-11,-7,2,3,0,0
1523150145278069,-3,-1,7,22,-2,-4,-3,-3
1523150145278069,0,-2,-5,-23,-3,-3,-2,-1
1523150145279080,-3,-2,-6,4,-3,-4,-1,-2
1523150145279080,0,2,9,7,-1,0,-1,-1
1523150145301124,0,-1,-6,-13,5,3,1,0
1523150145301124,-2,-1,-4,2,-10,-4,-3,-2
1523150145301124,-2,-1,6,17,2,-2,-1,-3
1523150145301124,0,-1,7,4,6,0,1,-1
1523150145324204,-1,-2,-17,-15,-3,-1,0,-1
1523150145324204,-1,0,15,11,-2,-1,-1,-1
1523150145325195,0,-2,-14,-9,-2,-1,-2,-1
1523150145325195,0,2,21,32,-2,-3,-1,-2
1523150145337730,-2,-2,-8,-31,0,0,-1,-2
1523150145337730,0,-1,-4,7,4,4,3,2
1523150145338734,0,-1,10,-8,1,2,-1,0
1523150145338734,-2,-2,-3,-11,-5,-4,-3,-2
1523150145360795,-1,-1,6,8,-5,-3,-1,-3
1523150145360795,-1,-1,-5,1,3,-2,-2,-2
1523150145361806,0,1,5,9,2,1,0,2
1523150145361806,1,0,2,-1,1,0,1,0
1523150145383854,-1,-5,-41,-12,0,0,1,0
1523150145383854,-1,-2,19,-7,-7,-4,-4,-2
1523150145384856,-1,-2,-5,5,-3,-4,-3,-1
1523150145384856,-1,-1,-3,-13,-1,-3,0,1
1523150145397891,-2,-1,-9,4,0,4,0,0
1523150145397891,0,0,-8,6,4,1,1,-1
1523150145398894,-2,-2,-12,-9,-1,1,-3,-2
1523150145398894,-2,-2,-14,-16,-6,-4,-3,-2
1523150145420959,1,3,48,26,4,-3,-1,0
1523150145420959,-1,-5,-44,-55,-2,-3,-3,-4
1523150145421962,-1,0,9,3,-7,4,4,2
1523150145421962,-1,0,-6,8,2,0,-3,-2
1523150145443732,-1,0,-4,6,-3,1,-2,-1
1523150145443732,1,0,23,31,2,-1,-1,-1
1523150145444734,-1,0,-6,-8,2,-3,-1,-1
1523150145444734,-1,0,-5,-15,-1,-1,-2,-1
1523150145458768,0,2,16,10,-1,-4,0,0
1523150145458768,-1,-5,-34,-9,0,1,0,1
1523150145458768,0,-2,16,5,0,1,-1,-1
1523150145458768,0,-3,-3,1,-2,2,2,0
1523150145480829,0,-1,11,7,-2,-4,-1,-1
1523150145480829,-1,0,-9,1,-2,-2,-1,-1
1523150145481832,-2,-3,-8,-10,-1,-2,-2,-2
1523150145481832,0,-1,7,11,1,1,1,0
1523150145503890,-1,-1,-1,-18,-4,-5,-2,0
1523150145503890,-3,-3,6,30,4,6,2,-1
1523150145504893,0,0,-8,-12,-2,1,-1,1
1523150145504893,-1,-3,-26,-19,-1,1,-1,-1
1523150145518450,-1,2,17,10,-4,-1,-2,-1
1523150145518450,0,0,7,-19,-8,-3,-2,-2
1523150145519452,-2,-1,2,9,3,-6,-4,-3
1523150145519452,-1,-2,-2,18,1,4,-1,-1
1523150145540644,-1,-3,-15,-39,-5,-1,2,-1
1523150145540644,-2,-2,-16,2,-3,-1,0,0
1523150145541645,-2,-1,18,6,-1,-1,-2,-3
1523150145541645,-1,2,4,-3,-1,-5,-3,-1
1523150145563710,-2,-4,-11,9,-2,0,0,-3
1523150145563710,0,-1,13,5,2,1,3,2
1523150145564706,0,0,-7,1,-3,1,0,-1
1523150145564706,-2,-1,4,5,2,0,-1,-1
1523150145578747,-1,-2,-3,-27,-5,0,-5,0
1523150145578747,-2,-1,-6,-3,0,-6,-3,-2
1523150145578747,1,0,7,25,-3,-2,0,-1
1523150145578747,-2,-3,-26,-41,-4,0,-1,1
1523150145600802,0,2,7,14,5,5,4,1
1523150145600802,-2,-2,-15,-1,-2,-2,-2,-1
1523150145601806,2,0,23,7,1,-2,-3,0
1523150145601806,-1,1,1,-1,-2,-4,-2,-3
1523150145623863,-2,-6,-31,3,0,-2,-2,-2
1523150145623863,0,2,22,5,1,-1,-2,0
1523150145624866,-1,-1,-24,-11,-3,-2,0,-1
1523150145624866,0,-2,1,-4,-1,-1,1,-1
1523150145637902,0,0,-1,3,1,1,0,-1
1523150145637902,-1,2,14,1,0,-2,-2,-2
1523150145638904,-3,-2,-16,-13,-4,-3,-2,-4
1523150145638904,-1,-3,-8,5,0,0,0,-1
1523150145660966,1,1,17,42,9,3,3,1
1523150145660966,-1,-1,40,-27,-1,3,-1,-1
1523150145661983,-5,-6,-41,-36,-12,-4,-4,-3
1523150145661983,0,-2,3,11,1,-5,-4,-3
1523150145684024,0,-1,4,4,-3,0,0,-1
1523150145684024,1,2,-10,19,-3,0,3,1
1523150145685026,-1,-1,7,2,5,1,0,0
1523150145685026,-2,0,20,-7,-8,-3,-1,-1
1523150145698061,-1,0,-13,-5,1,-1,-3,-3
1523150145698061,0,-1,-7,5,-1,-2,-2,0
1523150145706086,0,-2,1,-2,0,-2,-2,-1
1523150145706086,-2,-1,-3,4,2,1,1,0
1523150145721122,-2,-1,5,-6,-1,0,-1,0
1523150145721122,-2,-1,-7,-2,-3,-3,-2,-2
1523150145721122,0,-1,-11,2,1,1,1,1
1523150145721122,-2,-1,38,3,0,2,2,-1
1523150145744190,-1,0,-7,-3,-4,-4,-2,-3
1523150145744190,-4,-3,-9,-11,-4,-5,-2,-3
1523150145745187,-1,1,8,10,6,1,1,1
1523150145745187,2,-1,-15,25,2,2,0,1
1523150145757218,-2,1,-4,-48,-5,-3,-2,-1
1523150145757218,-2,-8,-38,-39,-5,-3,-5,-3
1523150145765240,-1,1,26,10,6,1,2,-1
1523150145765240,-1,2,-13,-3,-5,3,0,0
1523150145780295,0,0,-3,27,2,-1,-1,1
1523150145780295,0,3,13,14,2,-2,-1,-2
1523150145781285,-1,-3,1,-6,3,-3,-2,-1
1523150145781285,1,-2,2,-8,-4,4,-1,1
1523150145804344,-2,-2,-13,-1,0,-1,1,-1
1523150145804344,0,-2,6,7,0,0,0,-1
1523150145804344,1,2,8,4,1,0,2,0
1523150145804344,-1,-1,1,-3,1,-3,-1,-1
1523150145817378,-2,-1,-5,-5,-5,-3,-4,-3
1523150145817378,0,1,11,-8,2,1,-1,-1
1523150145825406,-2,0,-10,28,-2,2,2,1
1523150145825406,-1,-1,-6,-19,-1,-2,0,0
1523150145840439,-2,-1,-1,2,-2,0,1,1
1523150145840439,-1,-1,16,14,0,-4,-2,0
1523150145841441,0,-1,0,20,-4,-1,-3,-2
1523150145841441,0,1,-12,-21,1,-2,-1,0
1523150145863502,-3,-4,14,-11,-4,-3,-4,-2
1523150145863502,0,0,0,35,5,4,2,-1
1523150145864504,0,0,-4,-15,-4,-1,1,0
1523150145864504,0,-1,3,9,2,-1,-1,0
1523150145877547,1,2,13,3,6,-1,-1,0
1523150145877547,0,-2,-6,-3,-15,-2,0,1
1523150145885566,-3,0,11,-14,-1,2,0,-2
1523150145885566,-2,-2,-18,4,3,-1,1,-2
1523150145900602,1,-1,-20,-20,-2,-5,-3,-1
1523150145900602,-1,1,-2,4,-2,2,-1,-1
1523150145901603,-2,-1,-19,-11,1,0,-1,-3
1523150145901603,-3,0,35,3,-2,-3,-1,-2
1523150145923661,-1,-2,-6,-1,-1,0,1,-1
1523150145923661,-2,-2,-4,-7,2,-2,-3,-1
1523150145924663,-4,-1,2,-2,-6,-1,-1,-1
1523150145924663,-1,-1,-5,17,1,-2,-1,-1
1523150145937699,1,0,-1,-15,-4,-3,0,0
1523150145937699,-2,-1,10,5,1,-3,-2,1
1523150145945721,0,0,7,7,3,2,0,1
1523150145945721,-1,2,8,16,4,2,1,0
1523150145960762,-4,-9,-47,-73,-15,-3,-3,-2
1523150145960762,0,0,-1,3,2,1,0,0
1523150145961766,-2,-2,7,1,-4,-5,-2,-2
1523150145961766,0,0,2,4,-2,-1,-1,0
1523150145983822,-1,0,10,24,-3,1,-1,1
1523150145983822,-1,0,-16,-16,3,0,-1,-2
1523150145984825,-1,-2,-5,14,2,-2,-3,-1
1523150145984825,-1,0,-1,-14,3,-2,-2,-1
1523150145997859,-2,-1,7,5,-3,-5,0,0
1523150145997859,-3,-5,-14,13,-10,5,2,-1
1523150146005883,1,0,3,-13,-2,4,2,2
1523150146005883,-1,-6,-20,-19,-3,-5,-1,-2
1523150146020920,0,0,10,19,4,1,0,-1
1523150146020920,-1,1,5,-6,1,-7,-4,-2
1523150146021922,1,2,19,27,10,1,1,0
1523150146021922,-1,-2,-13,-35,-10,-1,0,0
1523150146043985,-2,-2,1,6,2,2,0,-1
1523150146043985,-1,-2,-1,3,1,-1,0,0
1523150146044988,-1,-1,13,-8,-6,-7,-4,-1
1523150146044988,0,0,17,17,1,-3,0,0
1523150146066042,-2,-4,-32,-42,-4,2,-2,-2
1523150146066042,-1,2,9,-5,6,3,1,1
1523150146067043,0,-2,-16,-16,-4,-2,-1,-2
1523150146067043,-1,0,5,13,0,-4,-1,-3
1523150146081081,-1,1,11,25,-3,0,-2,0
1523150146081081,-1,-3,0,-11,-3,-2,0,0
1523150146081081,-2,-2,-4,-15,-1,-2,-2,-2
1523150146081081,-1,-3,-5,9,-1,-1,-2,-1
1523150146104144,0,-1,2,27,11,1,2,0
1523150146104144,0,1,-2,2,0,3,2,-1
1523150146105145,-1,0,-2,-7,-11,-4,-1,-2
1523150146105145,-3,-3,-10,-8,-5,-6,-2,-2
1523150146126207,-3,0,33,10,0,-1,-3,-1
1523150146126207,-2,-1,4,7,2,-2,-1,-1
1523150146127206,-1,-1,-8,-19,1,5,1,1
1523150146127206,-1,1,1,14,1,4,1,0
1523150146140238,-2,-4,-20,-23,1,0,1,0
1523150146140238,0,0,12,14,0,2,0,-1
1523150146141241,-1,-1,-8,-14,-5,-7,-5,-2
1523150146141241,-1,-1,3,-9,0,-2,-3,-1
1523150146164300,0,0,8,34,0,2,3,1
1523150146164300,-1,0,-4,2,4,-1,1,0
1523150146164300,1,0,9,-17,-6,1,3,1
1523150146164300,-3,-7,-24,-10,-3,-4,-4,-4
1523150146186364,1,2,22,31,5,3,0,-1
1523150146186364,-2,-1,-14,-27,-5,-2,-2,0
1523150146187363,-4,-1,9,20,2,-4,-2,-1
1523150146187363,0,1,2,-5,-1,1,1,1
1523150146200398,-1,0,-23,-22,-4,-3,-3,-1
1523150146200398,-1,0,19,11,-4,-2,-3,0
1523150146201400,-2,-3,-9,10,4,0,-1,-2
1523150146201400,-1,-1,-9,-39,-8,2,-2,-2
1523150146224461,0,1,7,21,3,0,-3,-3
1523150146224461,-1,-3,-6,-6,3,1,2,-1
1523150146224461,-1,-3,-26,-27,-9,-4,-3,-2
1523150146224461,-1,0,9,10,1,-2,-2,-1
1523150146246523,-1,1,3,21,-12,-5,-1,-2
1523150146246523,-1,1,2,-36,-1,-3,-3,0
1523150146247526,0,-3,-1,20,6,4,1,0
1523150146247526,-2,-4,-21,0,2,3,0,-2
1523150146260558,-2,0,2,-2,-4,-5,-2,-2
1523150146260558,-1,0,9,21,-1,-3,-2,-2
1523150146261562,-1,-1,-8,-20,-5,-2,-1,0
1523150146261562,-1,1,0,10,-1,-1,-1,-1
1523150146283628,1,-2,12,-8,1,-4,-3,0
1523150146283628,-2,-2,-17,2,-3,-1,-1,-3
1523150146284622,1,0,7,9,5,3,2,1
1523150146284622,-3,-3,-26,-8,-1,-1,0,-2
1523150146313700,-2,-3,17,-7,-4,-2,0,-1
1523150146313700,-1,0,-1,-3,3,0,1,-2
1523150146314704,0,-1,3,1,-1,-2,-2,-1
1523150146314704,1,1,7,3,0,-2,0,-1
1523150146320720,-4,1,-7,-7,1,0,0,-1
1523150146320720,1,0,-3,1,3,-1,0,-1
1523150146321719,-2,-5,-30,2,-2,-2,-2,-3
1523150146321719,-1,-1,5,2,-3,-1,-2,0
1523150146343781,-1,0,-7,-12,-1,-2,-1,0
1523150146343781,0,-1,-15,-19,-5,-1,-2,-1
1523150146344781,0,0,-4,-3,3,1,0,0
1523150146344781,1,1,3,15,6,0,1,1
1523150146366842,-1,1,12,17,3,1,0,-1
1523150146366842,-1,0,6,2,-10,-2,-2,-1
1523150146366842,-2,1,-16,-10,0,-5,-1,-1
1523150146366842,-1,0,54,-18,-6,-3,-3,-1
1523150146380881,-3,-7,-37,-5,4,1,-1,1
1523150146380881,-1,0,1,6,-4,0,-2,-1
1523150146381882,1,8,7,13,2,1,-2,-2
1523150146381882,-4,-11,4,8,-4,-2,0,0
1523150146403940,0,0,2,-14,-4,-4,-3,-3
1523150146403940,0,0,-5,-2,3,1,0,-1
1523150146404942,-1,2,0,5,-3,0,0,0
1523150146404942,1,6,22,30,13,3,1,1
1523150146425998,-3,-7,-41,-31,-6,-1,-2,-1
1523150146425998,-1,-3,-4,6,-12,-3,-2,-2
1523150146427001,-1,-4,21,26,2,-5,-2,-2
1523150146427001,0,-2,-17,-17,-5,-2,-2,0
1523150146441036,0,-1,1,-38,1,0,0,1
1523150146441036,-1,1,13,8,7,0,0,-1
1523150146441036,0,-3,-7,-12,1,3,2,1
1523150146441036,-1,-1,-19,7,-5,-1,1,-1
1523150146464106,1,5,36,64,0,-1,0,0
1523150146464106,-3,-4,-17,-62,-1,-3,-4,-3
1523150146465103,0,-1,13,0,-5,-2,-1,-1
1523150146465103,-1,-1,-10,5,1,-1,1,0
1523150146486158,-1,0,-7,5,-3,2,1,0
1523150146486158,0,0,14,40,4,1,0,0
1523150146487166,-2,-5,1,-29,-4,-2,-3,-2
1523150146487166,-2,-2,-24,-33,-7,-2,-4,-3
1523150146500194,0,2,8,21,1,-1,0,-2
1523150146500194,-2,-5,-10,-7,0,-2,-1,0
1523150146501198,-2,0,9,9,2,-1,0,-1
1523150146501198,1,-1,-11,-16,-4,-3,-2,-1
1523150146524262,0,-2,-1,-36,-8,-4,-2,-2
1523150146524262,-1,-1,-5,9,-1,-2,1,0
1523150146524262,-2,-3,-7,13,3,3,1,2
1523150146524262,0,2,11,11,6,5,0,0
1523150146546319,0,1,6,23,3,0,1,-2
1523150146546319,-2,-3,-24,-33,-5,-4,-2,-3
1523150146547321,-3,-2,14,-16,-10,-6,-5,-4
1523150146547321,-1,1,9,-10,3,0,0,-2
1523150146560359,-1,-1,-3,0,5,0,0,1
1523150146560359,0,2,10,23,1,1,0,0
1523150146561358,0,-2,-22,5,-11,-2,0,1
1523150146561358,-2,-2,2,-14,-5,-6,-3,-1
1523150146591443,0,-1,-1,18,0,-2,-1,0
1523150146591443,1,3,41,3,3,0,-2,0
1523150146592441,0,-3,-22,-1,4,4,3,0
1523150146592441,-1,-6,-16,-9,-7,-2,-1,0
1523150146606483,-1,-1,-2,10,2,-1,0,0
1523150146606483,-1,0,4,11,-3,-2,-1,-1
1523150146607480,-2,2,1,8,4,3,0,-1
1523150146607480,1,1,13,21,-1,-3,0,1
1523150146620516,0,-2,-25,-26,-1,3,0,-2
1523150146620516,-2,-4,-1,-1,-3,2,-2,-2
1523150146628536,-2,-2,-17,-11,-4,-5,-3,-3
1523150146628536,-1,1,4,14,6,1,2,0
1523150146643578,0,-1,7,3,0,-4,-2,-2
1523150146643578,-2,-1,9,10,-3,-3,-3,-1
1523150146644583,0,-3,-20,-24,-4,-3,-3,-2
1523150146644583,-1,2,12,4,1,-4,-2,-3
1523150146666641,-1,1,14,21,8,4,2,1
1523150146666641,1,-1,-6,-13,4,5,1,2
1523150146667642,-4,-5,-7,-62,-17,-5,-3,-2
1523150146667642,0,-1,-3,-9,1,2,0,-1
1523150146679675,-4,-4,-18,-36,-7,-6,-6,-3
1523150146679675,0,1,5,32,4,-3,-2,0
1523150146688697,1,2,16,25,4,-2,0,2
1523150146688697,-1,0,-3,-3,0,3,0,0
1523150146703739,-1,0,4,0,1,3,1,-1
1523150146703739,-2,-3,-10,-11,-1,-4,-2,-1
1523150146705742,0,-2,-10,20,6,-3,-2,-1
1523150146705742,-1,0,25,-7,-15,-1,0,0
1523150146726798,0,-4,-7,-13,1,0,-1,-1
1523150146726798,-1,-5,-21,-13,-4,-2,-2,-2
1523150146727800,-1,2,5,13,5,1,0,-2
1523150146727800,-2,-1,-2,5,5,-2,0,-1
1523150146739832,-2,0,3,-3,-4,-1,-1,0
1523150146739832,0,0,-9,-10,-6,-5,-2,0
1523150146748857,-2,-1,11,5,4,1,0,-2
1523150146748857,1,-1,-3,14,6,5,1,0
1523150146763899,3,3,17,3,5,2,1,0
1523150146763899,-4,-3,-30,8,-7,-1,-1,-2
1523150146765905,-2,1,26,21,-4,-3,-5,-2
1523150146765905,-3,-5,-16,-18,-6,-5,-1,-3
1523150146785956,0,-1,1,8,-7,-3,-1,-2
1523150146785956,2,2,13,17,5,-2,-2,-1
1523150146787962,-2,-2,-6,-3,-2,-2,-3,0
1523150146787962,0,0,-2,9,5,1,0,-1
1523150146799993,0,0,13,9,6,2,0,1
1523150146799993,-2,-3,-13,-34,-1,3,1,1
1523150146809021,0,1,4,-9,-8,0,2,0
1523150146809021,-2,-1,-9,13,0,-6,-6,-2
1523150146824059,-4,-4,-13,-11,-9,-8,-3,-3
1523150146824059,-2,1,14,8,-2,-6,-3,-2
1523150146826068,0,0,-9,-11,5,2,3,1
1523150146826068,-1,1,-3,7,4,7,4,2
1523150146846118,-2,-2,-7,5,-2,-1,-2,-1
1523150146846118,-2,0,1,-4,0,1,0,-1
1523150146848121,-1,-3,-5,-1,0,-2,-2,-1
1523150146848121,0,-1,6,9,-10,-9,-5,-2
1523150146869177,0,2,5,-5,1,4,1,0
1523150146869177,-4,-7,-19,0,0,1,1,-2
1523150146870184,1,0,-8,-2,3,2,-1,0
1523150146870184,-3,-1,-1,-6,-5,-1,-3,-1
1523150146884216,-1,1,5,1,-2,-2,-1,-2
1523150146884216,0,0,5,7,1,2,-1,2
1523150146885219,-1,-1,9,6,2,0,0,-1
1523150146885219,0,0,14,9,-2,-3,-2,-2
1523150146906279,-1,-2,-31,-13,-1,-6,-4,-2
1523150146906279,-2,-1,6,-20,1,-1,2,0
1523150146908281,0,-3,-6,8,-4,9,2,0
1523150146908281,1,1,8,-13,-3,-1,1,1
1523150146920316,-3,-3,8,-23,-2,-5,-3,-4
1523150146920316,-2,1,1,22,1,-5,-3,-2
1523150146929344,-1,1,0,5,2,-3,0,0
1523150146929344,0,-1,-8,-16,1,3,2,0
1523150146944382,0,-1,-1,14,-2,1,-2,-2
1523150146944382,1,1,4,0,1,-4,-2,-3
1523150146945381,-3,-4,12,-14,-11,-7,-5,-4
1523150146945381,-1,-2,-28,10,4,1,-1,-1
1523150146966437,-1,-3,-16,9,-1,0,0,0
1523150146966437,-1,-2,2,-25,-4,-1,1,-3
1523150146968441,1,2,8,49,3,-2,-1,0
1523150146968441,1,-1,11,-30,0,-2,-1,-1
1523150146988496,-2,-3,-13,-25,-4,-1,0,-2
1523150146988496,0,1,10,7,-1,-2,-2,-1
1523150146990502,-1,0,-18,-4,5,-1,1,0
1523150146990502,-1,-1,2,5,-4,-1,-3,-1
1523150147004536,-1,0,19,19,-6,-2,0,-1
1523150147004536,0,-2,-13,-7,-2,0,0,-2
1523150147005540,-1,-1,5,-17,0,-1,0,-2
1523150147005540,-1,0,-14,-1,0,-2,-2,0
1523150147026598,-1,2,15,-3,2,-2,-2,1
1523150147026598,0,-4,-8,-4,-4,-2,-2,-1
1523150147028605,-2,-1,-7,5,3,-1,-1,1
1523150147028605,-1,0,5,6,3,0,1,-1
1523150147048657,-2,-4,-3,9,2,0,-2,-3
1523150147048657,-1,-1,-5,0,-7,-1,-2,-1
1523150147050660,-3,-1,5,-25,-8,-6,-4,-4
1523150147050660,-3,-2,-4,16,4,3,3,2
1523150147063696,0,2,1,-4,3,2,0,0
1523150147063696,0,-2,8,-10,2,1,0,2
1523150147065700,-2,-5,-12,-16,-3,-1,-4,-2
1523150147065700,-2,-3,-18,-6,-9,-6,-2,-2
1523150147086770,2,0,7,15,6,1,-1,-1
1523150147086770,-1,0,-3,13,8,1,1,-1
1523150147087759,0,1,-1,-18,-1,1,1,-1
1523150147087759,0,-2,3,-3,-13,-1,1,-1
1523150147108815,-2,-2,-18,11,1,-2,-1,0
1523150147108815,-2,-3,-3,-5,-8,-6,-2,-3
1523150147110819,2,1,7,4,9,1,-2,0
1523150147110819,-1,-3,-23,-21,-1,-1,-2,-1
1523150147122860,-1,-1,3,-5,-8,-4,-1,-2
1523150147122860,-1,2,-4,1,3,0,-2,1
1523150147129877,-2,0,7,9,-7,-2,-1,1
1523150147129877,-1,1,7,8,6,2,1,0
1523150147146918,-1,-2,2,-1,-7,-3,-1,-1
1523150147146918,-1,2,0,-7,5,2,0,-1
1523150147147921,-2,-2,-5,4,-1,-3,-2,-2
1523150147147921,0,0,3,3,2,-3,-1,-4
1523150147168976,-1,-3,-17,-31,-4,2,2,1
1523150147168976,-1,-1,6,11,-3,-1,-1,-1
1523150147170979,0,-1,-4,0,-5,-3,-1,1
1523150147170979,-1,-2,-12,-8,4,0,-1,-2
1523150147183012,0,1,22,-2,-2,-1,-2,-2
1523150147183012,0,-3,-15,-2,-2,-2,-1,-1
1523150147190031,0,0,0,-2,-3,-2,-4,-1
1523150147190031,-1,0,11,7,-1,-3,-1,-1
1523150147206076,-1,-4,2,14,-1,-3,-2,0
1523150147206076,-1,0,3,0,1,-1,1,1
1523150147208081,-1,-1,-8,-28,7,2,0,-1
1523150147208081,-3,-5,-18,-54,-20,1,-1,-2
1523150147229147,-1,2,1,6,1,-1,-1,-1
1523150147229147,-2,-2,4,13,-4,-2,-2,-3
1523150147231141,2,2,16,25,7,-1,0,0
1523150147231141,0,-1,8,2,-2,-3,0,-1
1523150147243193,-1,-3,-16,-11,2,3,2,0
1523150147243193,-1,3,32,20,3,0,-1,-1
1523150147250194,-4,-8,-24,-54,-6,-3,-2,-3
1523150147250194,-1,-2,0,-1,-3,-4,-3,-1
1523150147266233,-3,1,-8,6,-2,-2,-1,-1
1523150147266233,-1,0,-10,17,2,-1,1,1
1523150147268240,-1,2,13,12,-6,-4,-3,-1
1523150147268240,0,0,8,13,4,-2,-2,0
1523150147289295,1,0,3,-5,3,4,4,0
1523150147289295,-1,-4,-18,-17,-1,1,0,-1
1523150147290300,-1,-2,-1,26,6,0,-1,-2
1523150147290300,-1,1,10,-4,1,1,3,0
1523150147303333,1,-2,-18,-31,-12,-3,-4,-2
1523150147303333,-1,-4,-7,-16,-9,-2,-2,-2
1523150147310352,1,0,-11,6,1,2,3,-1
1523150147310352,-1,-1,33,27,5,-5,-3,-1
1523150147326397,-2,1,9,12,5,-2,-2,-3
1523150147326397,0,-1,-5,-11,-1,-1,0,0
1523150147328399,-2,-1,-8,-6,-5,0,0,0
1523150147328399,0,1,-3,9,7,4,1,1
1523150147348453,-3,0,9,-14,-10,-5,-3,-2
1523150147348453,-2,-2,-5,8,5,-1,-2,-2
1523150147350458,-1,-1,11,6,-6,-2,0,0
1523150147350458,-3,-3,-18,4,-1,0,-2,-3
1523150147363494,-2,0,2,-6,-1,-1,1,-1
1523150147363494,0,0,6,1,3,0,0,-1
1523150147370512,-1,-1,5,3,-7,-3,-1,-2
1523150147370512,-1,-2,-12,-13,-2,-1,-1,-1
1523150147386554,-1,-2,-4,12,0,-3,-2,-1
1523150147386554,-2,-1,0,-3,3,2,2,1
1523150147387557,-2,-1,-5,-5,1,2,1,0
1523150147387557,1,2,15,23,-4,-3,-3,-1
1523150147408613,0,-5,-31,-2,-4,1,0,-1
1523150147408613,-2,-1,5,-5,-1,-1,-1,-3
1523150147410620,-1,-1,2,7,-1,-1,0,-1
1523150147410620,-1,-2,0,-3,0,0,-1,-1
1523150147423653,-1,1,11,17,8,-1,-1,-1
1523150147423653,0,0,-3,0,-11,-1,-2,-1
1523150147429670,0,-1,-8,-36,4,-3,-1,0
1523150147429670,-3,-4,-12,22,-5,-2,-2,-3
1523150147446713,0,-2,8,-14,2,3,0,2
1523150147446713,0,-1,-19,-10,1,-2,-1,0
1523150147447716,-1,0,14,17,2,4,1,0
1523150147447716,0,-1,-11,-17,-6,-2,0,0
1523150147468777,0,-3,3,11,-2,-5,-3,-3
1523150147468777,0,-1,-11,-17,-7,-5,-2,-3
1523150147470780,0,1,13,13,1,-1,-2,0
1523150147470780,-1,0,4,-8,3,2,1,1
1523150147482811,-2,0,-2,8,0,0,0,-1
1523150147482811,-1,0,11,3,-2,-3,-2,-1
1523150147491834,-1,-4,-25,-14,-7,-4,-4,-3
1523150147491834,0,0,0,-14,-4,-1,-2,-2
1523150147505872,2,0,0,4,4,-2,-2,-1
1523150147505872,0,1,11,-1,1,6,4,0
1523150147507876,0,-3,9,3,5,3,4,1
1523150147507876,-2,-2,-1,8,-7,-3,-3,-3
1523150147528940,-3,-3,-17,-2,-4,-4,-5,-4
1523150147528940,-1,0,-3,-9,-4,-7,-4,-3
1523150147530939,0,-2,-11,-23,0,0,1,-2
1523150147530939,1,2,3,16,3,2,2,1
1523150147542973,-2,-1,10,-7,-3,0,2,-1
1523150147542973,-3,-2,-8,-4,-1,0,-3,0
1523150147551994,-2,1,-2,12,2,-1,-2,-1
1523150147551994,-1,2,10,24,0,-2,-1,-2
1523150147566031,-3,-1,-3,-32,2,3,0,0
1523150147566031,-2,-4,-4,-1,-5,-2,-2,-1
1523150147568036,-1,1,-5,13,-4,-2,-3,-2
1523150147568036,-1,-3,-8,-19,1,-2,-2,-2
1523150147589093,0,1,-6,9,-2,-3,-1,1
1523150147589093,0,-1,7,5,2,-2,-1,-1
1523150147590095,0,-1,-3,3,-6,-6,-3,0
1523150147590095,-5,-4,-3,-17,2,0,-2,-2
1523150147602129,-1,0,1,11,7,8,4,2
1523150147602129,-3,-2,-4,1,2,1,-1,-2
1523150147611152,0,1,17,-3,-10,-2,-2,-2
1523150147611152,-1,1,-8,-6,2,-4,-3,-2
1523150147627198,1,0,6,1,-4,-2,-2,0
1523150147627198,0,-1,5,9,5,-1,1,-1
1523150147628203,-2,-2,-7,-1,9,3,1,1
1523150147628203,0,-1,-8,-11,-14,-2,-2,0
1523150147649255,-1,-4,-1,-2,-3,-8,-1,-3
1523150147649255,-1,-2,3,5,-2,-1,-2,-2
1523150147650256,-2,-2,-4,5,4,-6,-4,-1
1523150147650256,-1,-2,1,-14,-6,-3,1,-2
1523150147662288,1,0,-12,10,-1,5,1,1
1523150147662288,-1,2,1,-5,3,1,0,0
1523150147671311,-1,-3,0,7,1,-1,1,-2
1523150147671311,-1,0,-12,-23,3,-4,-3,-2
1523150147686360,-1,0,4,5,-7,-5,-4,-2
1523150147686360,0,0,-9,0,-1,-3,-3,0
1523150147688360,0,0,-1,-7,1,2,0,0
1523150147688360,2,-1,4,14,4,1,1,1
1523150147709416,-1,-1,8,-10,-3,-1,-1,1
1523150147709416,-4,-3,-18,-20,-6,-3,-3,-1
1523150147710415,0,2,4,26,0,-2,-1,0
1523150147710415,-1,-1,2,-1,2,3,2,1
1523150147722450,-1,-1,8,-17,-6,0,0,-3
1523150147722450,-2,-1,0,18,1,-1,-1,-1
1523150147731473,-2,-3,-17,-9,-8,-4,-3,-5
1523150147731473,0,3,15,24,4,0,0,2
1523150147746515,-2,-2,-9,13,2,0,-1,0
1523150147746515,-1,0,-6,-43,-10,-4,-1,-4
1523150147747517,0,-1,19,5,-1,-1,0,-1
1523150147747517,-1,-1,-16,-15,6,3,0,0
1523150147768570,-2,-3,-1,4,7,1,-2,-2
1523150147768570,0,-1,12,2,-7,0,0,0
1523150147770576,-1,0,-6,-5,-13,-3,0,-1
1523150147770576,-3,-3,3,2,0,0,1,0
1523150147782608,-2,-2,-14,-15,1,-3,-2,-3
1523150147782608,-1,-2,11,32,5,-4,-1,0
1523150147791633,0,-2,-12,-18,-2,-2,-3,-2
1523150147791633,0,1,12,1,-1,1,1,0
1523150147806675,-1,-3,-17,-28,-3,-1,-1,-1
1523150147806675,0,-2,-7,6,1,0,-1,-1
1523150147807674,-1,-1,2,5,4,2,1,0
1523150147807674,-3,-4,-16,-4,-5,-1,-1,-2
1523150147828732,1,-1,-1,-3,0,-3,-1,-1
1523150147828732,-2,-2,-1,-18,-4,-3,0,-3
1523150147830737,-2,-1,2,2,0,-1,-1,-1
1523150147830737,0,0,3,20,2,-2,-3,-4
1523150147842772,-1,2,18,17,5,5,3,1
1523150147842772,-3,0,12,-16,0,-1,-2,0
1523150147851792,-3,-3,-24,-14,-10,-3,-3,-2
1523150147851792,-1,-2,-9,-3,-3,-5,-3,-1
1523150147866833,-1,0,-1,33,-4,-4,-2,0
1523150147866833,1,1,8,-5,5,2,1,0
1523150147867834,0,-1,-11,-27,2,3,2,2
1523150147867834,-1,-1,15,21,1,-3,-4,-3
1523150147888890,0,-2,-23,-67,-9,-6,-3,-3
1523150147888890,1,0,6,8,2,-2,-2,-1
1523150147890896,-2,-4,-7,9,5,-2,1,-3
1523150147890896,0,0,-2,-4,-7,5,3,1
1523150147910973,-1,-1,-2,-18,-1,-2,-2,-1
1523150147910973,-1,-1,-3,12,-5,-1,1,-3
1523150147912954,2,-3,-2,-4,2,1,-1,0
1523150147912954,-1,-2,-2,-4,3,-6,-4,-3
1523150147925992,-2,0,11,21,-2,1,2,1
1523150147925992,-1,-1,-9,-9,-1,-2,-1,1
1523150147927995,0,2,1,25,2,0,2,0
1523150147927995,-2,1,20,-30,-6,0,-1,-2
1523150147949051,-2,-3,-8,13,-3,-4,-2,-5
1523150147949051,0,-1,-15,-16,-2,2,-1,-2
1523150147950055,-3,-5,-19,-1,-8,-4,-3,-3
1523150147950055,-3,1,32,-5,2,-2,-2,-1
1523150147971110,-1,2,17,45,4,2,1,1
1523150147971110,0,-2,-1,-14,4,6,4,1
1523150147979135,-2,-2,15,-7,-7,-3,-3,0
1523150147979135,-1,-3,-25,-5,-3,-3,-1,-1
1523150147986150,-1,0,17,7,-2,-6,-3,-2
1523150147986150,-1,0,1,32,7,5,2,1
1523150147988157,1,1,1,-7,0,3,2,2
1523150147988157,0,-1,-9,4,-6,-5,-2,-1
1523150148009226,0,-1,-2,-18,2,-4,-2,-2
1523150148009226,-3,-4,-11,-24,-9,-1,-1,-2
1523150148010214,-2,2,6,-3,0,-1,0,0
1523150148010214,0,0,-3,13,4,2,2,0
1523150148031276,0,-1,-10,1,3,0,-1,0
1523150148031276,-1,0,5,8,-6,-6,-5,-3
1523150148033275,-2,-7,-20,-38,-1,1,-1,-2
1523150148033275,0,0,-6,36,2,-2,1,0
1523150148046309,1,2,13,-19,-1,0,-1,0
1523150148046309,-3,-4,-4,-19,-3,-5,-3,-3
1523150148048315,-1,2,16,23,1,-4,-2,-1
1523150148048315,-1,-1,-14,-18,-4,1,-1,0
1523150148069372,-1,-1,-5,18,1,2,1,-1
1523150148069372,0,0,0,7,-1,0,0,1
1523150148070374,0,1,18,21,-2,-1,-2,-2
1523150148070374,0,-3,-8,-27,0,-2,-3,-2
1523150148091432,0,-1,-4,-7,1,-2,-1,-2
1523150148091432,1,1,-9,12,-5,-1,-2,-1
1523150148093434,0,0,6,2,-2,-1,1,-2
1523150148093434,0,0,13,17,9,5,1,0
1523150148105470,-3,-8,-40,-68,-11,-2,-2,-2
1523150148105470,0,0,3,18,4,1,0,0
1523150148112486,-2,2,1,4,-4,-5,-4,-2
1523150148112486,-1,-1,11,-11,3,-3,-3,-1
1523150148128530,0,-2,-3,-8,-9,2,1,1
1523150148128530,0,-5,-12,0,0,-4,0,-2
1523150148130535,0,1,11,0,1,-1,-2,-1
1523150148130535,-2,-2,4,8,1,1,0,-1
1523150148151591,-1,1,6,10,10,-1,-2,2
1523150148151591,-2,-1,-6,-6,-5,-1,-2,-2
1523150148152592,0,1,3,4,-4,1,-1,1
1523150148152592,-2,-2,-11,-8,-4,-4,-3,-1
1523150148165627,0,-1,6,12,0,1,-2,-1
1523150148165627,0,2,18,6,-1,-1,-1,1
1523150148172651,-3,-5,-14,-9,5,-1,1,0
1523150148172651,2,-2,-19,-6,-5,0,-1,-2
1523150148188688,-2,2,39,6,-4,-2,-1,-2
1523150148188688,-2,-5,-16,2,-1,-5,-4,-3
1523150148190693,1,3,-1,-2,0,1,0,-1
1523150148190693,-2,-4,-10,-8,-1,0,-1,0
1523150148211748,-1,2,6,13,0,1,0,-1
1523150148211748,-2,-1,3,1,0,-2,-1,-3
1523150148212752,-2,-3,4,-9,2,0,-1,-1
1523150148212752,-2,-1,2,13,-5,-3,-2,-1
1523150148225793,-1,-3,-12,-21,-5,-3,-3,-1
1523150148225793,0,3,23,52,2,1,1,1
1523150148232807,-1,-1,-48,-56,2,-2,-1,-1
1523150148232807,-2,-2,23,-11,-1,7,2,0
1523150148256869,-1,-1,-3,20,1,-2,-1,1
1523150148256869,1,1,23,11,4,0,-1,0
1523150148257873,1,1,12,29,-1,-2,-3,-1
1523150148257873,-2,-5,-34,-26,-7,-7,-3,-3
1523150148270907,-1,-1,-4,-7,0,-5,-3,-2
1523150148270907,0,-2,8,-5,-1,3,-1,-1
1523150148272912,0,1,19,22,6,4,0,0
1523150148272912,0,-3,-24,-20,1,-1,-3,-1
1523150148285946,-1,0,12,18,-1,-1,-2,-1
1523150148285946,-2,0,-11,-17,-3,-3,-1,-1
1523150148292966,-1,-4,2,-2,-2,0,1,1
1523150148292966,-2,0,2,26,-2,-1,2,0
1523150148309012,1,-1,0,3,1,2,-1,-1
1523150148309012,0,2,0,-10,1,0,-2,0
1523150148315024,-2,-1,-3,1,-3,-3,-5,-5
1523150148315024,-1,1,2,12,-1,-6,-2,-1
1523150148331070,-2,0,-6,-9,-3,-4,0,-2
1523150148331070,-1,-3,-10,-10,0,2,3,2
1523150148333074,-1,-3,-1,2,-3,-1,-1,0
1523150148333074,-1,3,10,2,-2,-7,-2,-2
1523150148346109,-2,-3,-16,9,-1,1,2,0
1523150148346109,-1,-1,19,-16,-1,0,0,-2
1523150148352124,-1,-3,-18,5,0,1,2,0
1523150148352124,-1,1,7,-24,-2,-1,-3,-4
1523150148369169,-1,-2,-4,-1,-9,-4,-5,-2
1523150148369169,-1,-1,-26,-6,-5,-5,-2,-3
1523150148370170,-2,0,15,-6,6,-1,0,-2
1523150148370170,2,3,-1,30,1,5,3,3
1523150148391233,-4,-4,-8,-25,-2,1,1,-1
1523150148391233,-1,0,8,-1,2,-2,-1,-1
1523150148393235,-1,-2,-9,14,-9,-3,-3,-2
1523150148393235,-2,-2,-7,-64,-8,-1,-2,-2
1523150148405268,0,1,9,15,6,2,2,2
1523150148405268,1,-2,-14,10,3,-2,-2,0
1523150148414288,-3,0,14,2,-1,-2,0,-1
1523150148414288,-2,0,0,6,-6,0,-1,0
1523150148429329,0,-1,-9,-5,0,-1,0,0
1523150148429329,-1,-1,2,-4,1,0,-1,-1
1523150148430333,-1,-1,-4,-1,2,1,-1,-1
1523150148430333,0,0,7,7,0,-2,-1,-2
1523150148451391,0,-3,-24,-11,-3,-3,-3,-3
1523150148451391,-2,1,14,-2,-1,0,0,0
1523150148453392,-1,-2,1,-6,-3,-1,0,-2
1523150148453392,0,-1,2,8,1,-1,0,0
1523150148465427,2,3,17,37,-1,-2,-5,1
1523150148465427,-4,-7,-28,-32,-5,-3,-3,-2
1523150148474449,1,0,-1,0,-1,-2,-2,1
1523150148474449,-3,-4,3,-3,0,-1,0,1
1523150148488486,0,2,12,24,7,11,3,1
1523150148488486,-2,-2,-7,-1,-3,0,-2,-2
1523150148490494,-3,-1,-6,-9,-6,-3,-3,-1
1523150148490494,0,0,9,13,0,-3,-2,-1
1523150148511548,-1,-3,-7,-16,-4,-5,-2,-2
1523150148511548,1,-1,-15,3,-5,-2,-2,-2
1523150148512550,1,2,37,0,-2,-1,-2,-1
1523150148512550,-4,-6,-29,-29,-2,0,-1,-1
1523150148525586,-1,-2,-2,-2,3,0,1,-1
1523150148525586,-2,-1,2,-3,-2,1,-1,-1
1523150148533606,0,-1,-8,11,-2,-4,-2,-1
1523150148533606,-1,-1,12,2,2,-4,-4,-4
1523150148548646,0,-2,-1,-13,1,3,1,0
1523150148548646,2,-2,-4,12,3,1,2,0
1523150148550652,-1,0,-15,-25,-3,1,2,0
1523150148550652,-1,0,11,8,-2,-3,-2,-2
1523150148571709,-2,-4,-22,4,-5,-8,-7,-5
1523150148571709,1,3,18,16,3,-2,1,1
1523150148572709,-1,-4,-26,-28,6,3,2,0
1523150148572709,0,-2,-3,1,-7,4,1,1
1523150148584741,-2,0,8,2,-3,-6,-1,-1
1523150148584741,1,1,7,13,-5,-4,-3,-2
1523150148593766,-3,-2,-10,-7,0,-2,0,-2
1523150148593766,0,2,21,14,6,2,0,0
1523150148608808,0,-2,-10,-22,-3,-1,-2,0
1523150148608808,-2,-2,-28,-39,-6,-1,-1,-2
1523150148610812,0,-1,23,13,-1,0,-3,-1
1523150148610812,-1,-3,-12,6,-1,-3,0,-1
1523150148631868,1,1,9,3,2,3,3,1
1523150148631868,-1,-1,5,18,6,2,4,1
1523150148632872,-1,0,-7,-20,-1,-1,-2,-1
1523150148632872,-1,-3,-7,-17,-2,-1,-2,-1
1523150148644907,-1,-2,1,16,-10,-6,-3,-2
1523150148644907,-1,0,18,6,0,-3,-2,-1
1523150148653927,-1,-2,-8,1,8,2,0,-1
1523150148653927,1,0,-7,16,-6,-2,1,-2
1523150148668966,-2,-2,-6,-24,-1,-4,-1,-2
1523150148668966,-1,-2,21,5,-5,-3,-3,1
1523150148670971,-1,-1,7,6,-5,-4,-2,1
1523150148670971,-1,1,-12,3,3,-1,-2,0
1523150148691028,-2,0,5,-3,1,1,0,-1
1523150148691028,-2,-1,-8,-8,1,2,3,1
1523150148693031,-2,0,2,15,-3,0,0,-1
1523150148693031,0,1,10,1,6,-3,-3,0
1523150148705062,-1,-4,-8,-4,-10,-3,-2,-2
1523150148705062,-2,-3,-9,-4,-4,1,-1,-1
1523150148714086,0,0,-6,4,2,1,1,1
1523150148714086,0,1,2,-4,-4,1,0,-2
1523150148729129,-1,1,10,-1,2,-2,-2,-1
1523150148729129,0,-3,0,3,1,-1,-2,-1
1523150148730130,-1,-2,-19,-4,-8,-8,-3,-1
1523150148730130,-2,1,21,6,0,-2,-2,-1
1523150148751186,-2,-1,-14,-5,4,4,1,-1
1523150148751186,0,-1,-4,-4,-1,0,-2,-1
1523150148753191,0,-3,-9,3,3,-1,1,-3
1523150148753191,-1,-2,-10,-11,-5,3,2,2
1523150148765222,-2,-1,6,2,-4,-5,-3,-1
1523150148765222,0,-1,-7,-11,-1,-4,-4,0
1523150148774251,1,0,10,-9,-1,0,-1,-1
1523150148774251,-2,-3,-6,28,8,0,2,-1
1523150148789284,-4,-2,-1,-23,-6,0,0,0
1523150148789284,-1,1,-26,12,0,0,-2,-2
1523150148790290,0,1,22,15,-2,-3,-2,0
1523150148790290,0,-1,-14,-20,1,1,-1,-2
1523150148811351,1,-2,3,17,5,1,0,1
1523150148811351,-2,-1,-18,-3,1,-3,-2,-3
1523150148813351,-2,0,18,-11,-8,-1,-3,-2
1523150148813351,-2,1,12,8,3,1,1,0
1523150148825387,0,0,-1,5,2,5,3,2
1523150148825387,-1,-2,-8,-15,-7,-4,-2,-1
1523150148834407,0,1,-1,6,3,3,1,-2
1523150148834407,-1,-2,1,-7,-5,-5,-5,-3
1523150148848444,1,1,-3,-9,1,-3,-1,-2
1523150148848444,-3,-2,-5,-11,2,-1,1,-1
1523150148850449,-2,-1,5,10,-3,1,-1,-2
1523150148850449,-1,-2,-13,-2,-7,-1,0,-2
1523150148871506,1,0,11,10,2,1,-1,0
1523150148871506,-1,-1,-3,-5,-2,-1,-1,-2
1523150148872508,-3,-2,5,-12,-3,-7,-2,-3
1523150148872508,-3,-3,-3,-7,2,3,2,-1
1523150148893565,-2,-2,1,26,1,-2,-1,0
1523150148893565,-2,-1,10,-19,-6,-2,-3,-2
1523150148895569,-1,0,-10,20,4,0,0,1
1523150148895569,-1,-1,-15,-33,0,0,-1,0
1523150148909613,0,0,3,11,-2,1,-1,-3
1523150148909613,1,1,5,5,-3,0,1,1
1523150148910613,0,-3,-17,11,5,0,0,0
1523150148910613,0,-1,4,-3,-4,-5,-2,0
1523150148931666,-1,-2,-23,-13,-3,-3,-2,-2
1523150148931666,1,1,8,7,0,-2,-2,-2
1523150148932667,0,0,-3,-6,-3,-1,0,-1
1523150148932667,0,0,3,7,0,0,-1,-1
1523150148953726,-1,-3,-10,-7,-1,-5,-3,-3
1523150148953726,0,1,34,10,-1,-1,-2,-1
1523150148955728,-3,-4,-15,-34,-3,4,1,0
1523150148955728,-2,-2,-29,4,7,0,0,1
1523150148968766,-1,2,12,6,0,1,-1,0
1523150148968766,-1,-2,-3,4,-7,-4,-1,-2
1523150148970786,0,2,11,2,1,1,0,-2
1523150148970786,0,-1,0,9,2,-1,-1,0
1523150148991826,0,-2,4,-11,-4,-3,-2,-1
1523150148991826,-2,-2,-4,8,0,-2,-2,-2
1523150148992830,-1,-1,-9,-2,-4,-1,-2,0
1523150148992830,-2,-2,-4,2,-1,-1,0,-1
1523150149013883,0,3,31,5,-1,0,-1,1
1523150149013883,-2,-6,-24,-15,-6,1,0,-3
1523150149015889,-2,-4,-6,25,-2,-4,-2,-2
1523150149015889,0,0,-1,-14,1,-2,-1,-2
1523150149027931,-1,0,20,-2,2,0,0,0
1523150149027931,-1,-1,-12,-33,2,1,-1,2
1523150149034943,1,0,13,10,-4,-1,0,1
1523150149034943,-1,0,-10,8,1,-2,-1,-3
1523150149059004,-3,-6,-6,1,-5,-2,-4,-3
1523150149059004,0,0,3,5,1,-3,-2,-1
1523150149060013,0,0,-1,3,0,1,-1,0
1523150149060013,-4,-3,7,-27,-11,-3,-1,-2
1523150149074049,0,-1,-6,-7,0,1,-1,0
1523150149074049,-1,0,-10,9,5,3,1,-1
1523150149075049,-2,-1,-2,-7,-3,-2,-1,-3
1523150149075049,1,-1,18,8,-2,-3,-2,-1
1523150149088082,1,0,-13,-4,-2,-1,-1,-2
1523150149088082,-1,0,7,5,-1,-1,0,0
1523150149095100,-1,0,-12,-10,1,-1,-1,-1
1523150149095100,-1,-1,0,5,-3,1,-1,-1
1523150149110140,-1,-2,-8,-1,3,-1,2,0
1523150149110140,-1,2,22,10,5,1,-1,0
1523150149119165,-1,-2,-6,-13,-6,-3,-4,-2
1523150149119165,0,0,3,14,1,0,-3,0
1523150149134208,0,-1,4,-5,3,-2,0,1
1523150149134208,0,-2,-20,-24,-1,5,6,1
1523150149135208,0,3,2,8,-2,1,0,0
1523150149135208,-1,-2,6,3,-6,-5,-2,-2
1523150149148245,-2,1,5,15,3,-1,-1,-1
1523150149148245,-2,-2,-15,-6,7,0,1,-1
1523150149155261,-2,-3,0,-6,-8,-1,-1,-1
1523150149155261,-1,0,-5,1,0,-3,-2,-1
1523150149171302,-2,-1,-12,3,-2,-4,-3,-3
1523150149171302,-1,0,21,23,1,-1,1,0
1523150149173310,0,-2,8,-35,-8,0,-1,0
1523150149173310,-1,-2,-21,-1,1,1,-1,-1
1523150149193361,-1,1,23,0,-3,-4,-1,-2
1523150149193361,-2,-6,-30,3,1,-3,-4,-4
1523150149195374,0,-2,-8,-2,-4,0,-2,-1
1523150149195374,-2,1,8,7,-4,-3,-1,0
1523150149208410,-2,-3,5,-16,0,2,2,-1
1523150149208410,0,1,13,25,1,1,1,1
1523150149215421,-2,-4,-11,-21,2,0,0,-1
1523150149215421,0,-2,0,0,-1,0,-1,0
1523150149231464,-1,-1,-21,3,-5,-1,-1,-2
1523150149231464,-2,-1,31,11,-4,-4,-2,-1
1523150149233469,-1,-1,2,14,5,-2,0,0
1523150149233469,1,2,4,-3,3,2,0,1
1523150149253523,-2,-8,-30,-16,-8,1,0,-1
1523150149253523,-2,1,13,-1,-3,0,0,-1
1523150149255527,0,0,-24,0,0,-3,-1,-2
1523150149255527,0,-1,4,-5,1,-1,0,-1
1523150149268562,0,-1,-2,3,1,-5,-3,0
1523150149268562,0,0,-10,-10,-5,-3,-3,-3
1523150149274580,-1,3,33,26,7,1,-1,-1
1523150149274580,-1,0,-15,2,-1,1,2,0
1523150149291626,-4,-3,-10,-1,-1,-4,-2,-1
1523150149291626,0,-1,-9,-15,-2,-2,-2,-2
1523150149292627,0,1,14,20,-7,-3,-3,0
1523150149292627,0,-1,0,-13,-1,-1,-1,-3
1523150149313681,0,2,1,-4,-1,2,1,0
1523150149313681,-2,-5,-13,-17,-2,-3,-2,-2
1523150149315688,1,0,0,12,3,-2,0,0
1523150149315688,-1,-3,1,2,-3,-1,-1,-2
1523150149327721,0,1,-1,-8,-3,0,1,1
1523150149327721,-1,0,1,0,6,6,1,2
1523150149334743,-1,-3,-15,-3,-2,2,0,1
1523150149334743,-1,-1,19,11,-3,-4,-3,0
1523150149351781,-2,-4,-16,-33,-7,-6,-5,-4
1523150149351781,-1,1,8,15,11,2,1,2
1523150149352785,-2,0,9,-10,-7,2,1,1
1523150149352785,-5,-6,-26,-1,-5,-4,-2,-2
1523150149373860,1,1,16,10,3,2,-1,0
1523150149373860,0,-2,-12,8,-2,-6,-4,-3
1523150149375854,-1,0,11,-31,2,-1,0,-3
1523150149375854,-2,-3,-6,-5,0,-1,-1,-1
1523150149387884,-3,-2,9,15,-1,-2,0,0
1523150149387884,-2,-2,-15,-8,-3,-1,1,0
1523150149396905,0,-1,-12,12,3,0,-1,0
1523150149396905,0,1,10,-6,-5,1,0,0
1523150149410941,-1,1,7,-1,3,-1,-3,-2
1523150149410941,0,-1,1,-1,-7,-5,-2,-1
1523150149412947,-3,-2,-2,-1,6,-1,0,0
1523150149412947,-1,0,-1,3,0,4,1,0
1523150149434001,0,0,-1,10,-2,3,2,0
1523150149434001,0,2,3,12,-5,0,-1,-1
1523150149436009,-1,-1,-3,11,-1,-4,-3,-3
1523150149436009,-1,-3,1,-25,1,-4,-4,-2
1523150149448042,1,0,6,15,3,1,0,1
1523150149448042,-1,-1,3,-4,-4,1,-1,-1
1523150149456060,-1,-1,-8,2,0,-2,-1,1
1523150149456060,-3,0,1,3,1,-1,-1,-1
1523150149471130,-2,-1,3,6,-5,-1,-1,-3
1523150149471130,0,-1,3,-17,-3,-4,-1,-2
1523150149473109,-1,-1,16,-1,0,-3,-2,-2
1523150149473109,1,0,0,-5,5,3,3,2
1523150149494163,-2,-1,-13,-3,-3,1,1,-2
1523150149494163,-2,-2,-7,3,-1,-1,-3,-1
1523150149495165,0,3,19,-1,-1,-1,-1,-2
1523150149495165,0,-3,-15,3,-2,1,1,-1
1523150149507199,-1,1,3,-7,5,-3,-1,0
1523150149507199,0,-1,4,22,-9,-5,-4,-1
1523150149516220,-2,-7,-31,-45,-12,-8,-4,-4
1523150149516220,-2,3,20,16,6,0,-1,-2
1523150149531260,-1,-1,-13,-6,1,1,1,-1
1523150149531260,-1,-1,7,4,4,1,0,-1
1523150149533268,0,-1,-5,21,-1,0,-1,-3
1523150149533268,-1,0,-2,-21,1,-1,1,-1
1523150149554323,-3,-6,-16,-26,-8,0,1,-1
1523150149554323,-3,-2,-2,-18,-2,-1,-1,1
1523150149555325,-2,-1,10,8,0,2,-1,0
1523150149555325,2,-1,2,5,-3,-5,-3,-1
1523150149567365,-1,0,5,5,0,-5,-3,-1
1523150149567365,-1,-1,-15,-19,2,3,2,0
1523150149576385,-1,-2,12,6,3,5,3,3
1523150149576385,0,-1,-10,-10,-3,-4,-4,-2
1523150149591428,0,0,2,-7,-5,-2,-6,0
1523150149591428,-1,-4,-22,-14,-3,-2,4,-2
1523150149593428,0,1,1,16,1,-4,-2,-2
1523150149593428,-2,-1,-5,-6,-10,-1,1,-1
1523150149614482,0,-3,-3,17,8,5,0,0
1523150149614482,1,0,-8,-6,3,2,0,0
1523150149615484,-2,-1,6,4,2,0,-1,0
1523150149615484,-1,-2,-1,13,-3,-2,-1,-1
1523150149627518,0,0,-18,7,1,-2,0,-1
1523150149627518,-1,-1,23,-15,-2,-1,-1,-3
1523150149636541,0,-1,-20,-16,-1,0,0,-2
1523150149636541,-1,0,9,6,0,1,-3,-1
1523150149651582,0,-1,-11,-5,0,3,3,0
1523150149651582,0,0,11,16,0,-2,-1,0
1523150149652583,-1,-2,-6,-1,-5,-5,-4,-2
1523150149652583,0,-1,-4,-4,-3,-3,-3,-2
1523150149673641,-1,-1,13,11,3,-3,-1,-1
1523150149673641,-1,1,3,18,1,3,1,1
1523150149675649,-1,-1,-7,-17,0,1,2,0
1523150149675649,-2,-2,-13,-9,1,-2,-3,-1
1523150149687685,-1,-1,4,-21,-15,-2,-1,-1
1523150149687685,-1,-2,-7,-1,-1,-8,-7,-3
1523150149696701,-1,1,-4,9,-4,0,2,0
1523150149696701,0,1,0,7,5,0,1,1
1523150149711741,-2,1,14,-5,3,1,-1,-1
1523150149711741,0,-1,-15,-3,-6,2,1,0
1523150149712743,-1,-1,-1,-4,2,-1,0,-1
1523150149712743,-1,-2,-1,-1,-3,-3,-3,-2
1523150149733811,-4,-4,-3,-6,-5,-6,-4,-2
1523150149733811,-1,1,15,17,-1,-3,-3,-1
1523150149735823,-1,-2,-3,-2,1,0,1,0
1523150149735823,-2,-3,2,2,7,2,2,1
1523150149747845,2,2,-9,9,4,1,2,1
1523150149747845,0,-1,18,-4,-1,-1,-2,-2
1523150149756864,-1,2,6,-1,-6,-4,-3,-3
1523150149756864,-2,-2,-12,8,-2,-2,2,-1
1523150149771901,-2,-4,-2,-19,0,0,-2,0
1523150149771901,1,1,-13,-3,4,1,-1,1
1523150149772905,-1,-1,11,39,0,1,0,0
1523150149772905,0,2,-11,-50,-2,2,0,1
1523150149793960,-3,-4,9,10,-10,-5,-3,-3
1523150149793960,-4,-3,-4,-16,-9,-7,-6,-4
1523150149795965,0,-5,-32,-1,0,-3,-3,-1
1523150149795965,-2,1,19,19,-7,1,2,1
1523150149817019,2,0,-5,1,31,7,2,-1
1523150149817019,-3,0,5,-7,3,2,1,-2
1523150149818023,-1,-2,2,-4,0,-2,-3,-2
1523150149818023,0,-2,-20,-10,-16,-8,-4,-3
1523150149831061,0,1,23,-6,-15,-3,-2,-1
1523150149831061,-1,1,5,27,16,2,1,-2
1523150149833065,2,0,7,4,10,3,2,1
1523150149833065,-1,-1,-12,-19,1,-1,-1,-1
1523150149854120,-2,-1,-10,9,-8,-4,-4,0
1523150149854120,-2,0,6,6,-5,0,0,-2
1523150149855124,-3,-3,-11,-48,-5,-2,-2,-1
1523150149855124,0,-1,14,1,0,-1,-3,-3
1523150149876180,-2,-4,-2,22,-2,-3,-1,-4
1523150149876180,-3,-3,-12,-7,-3,-5,0,0
1523150149878183,0,2,11,5,0,0,-1,-1
1523150149878183,-2,-3,-14,11,2,1,2,-2
1523150149892224,0,-1,-8,0,0,-1,-2,-1
1523150149892224,-1,-2,-5,-15,-1,0,-2,0
1523150149893224,-4,-5,-13,-25,-12,-5,-2,-2
1523150149893224,-2,0,3,13,-3,-5,-2,-2
1523150149913278,0,0,9,6,4,-2,-2,-1
1523150149913278,1,1,-1,12,-5,4,3,0
1523150149921299,-2,-2,6,1,-7,4,2,0
1523150149921299,-2,-1,15,3,22,5,0,0
1523150149936339,-2,-2,0,-3,1,-3,-1,-3
1523150149936339,1,2,14,13,-3,1,0,1
1523150149938344,-1,-2,-13,6,2,0,-2,-3
1523150149938344,-2,-2,-1,0,-14,-4,-2,-2
1523150149950376,0,1,5,6,-2,-4,-3,-2
1523150149950376,0,2,11,-8,2,1,1,0
1523150149957397,-1,-4,-19,10,-3,-2,-2,-2
1523150149957397,-1,-2,24,5,5,-2,-3,1
1523150149973437,-1,-1,-25,-16,-5,-3,1,0
1523150149973437,-1,-3,12,2,-5,-4,-1,-1
1523150149975443,-2,3,8,-12,5,2,0,-1
1523150149975443,-1,-1,-10,2,-1,0,0,0
1523150149996498,-1,0,-5,-16,-3,0,1,1
1523150149996498,-1,-1,-6,12,-2,0,0,0
1523150149997501,2,2,16,10,2,-1,-2,-1
1523150149997501,-1,-4,-6,-8,0,1,0,-2
1523150150010538,-2,-4,-32,-25,-9,-2,-3,-4
1523150150010538,-3,-4,-22,-19,-3,-3,-5,-3
1523150150017557,0,0,28,13,3,-1,1,0
1523150150017557,-1,0,-24,-1,-6,-1,1,0
1523150150033599,-1,-1,7,18,-6,0,-1,0
1523150150033599,-2,-5,10,-25,-12,-6,-2,-3
1523150150035606,0,-1,-17,4,18,1,2,-1
1523150150035606,1,2,17,12,1,2,-1,-2
1523150150056660,-2,1,12,9,4,2,1,1
1523150150056660,-2,-3,-9,4,-8,-6,-5,-3
1523150150057662,-2,0,-1,-10,-3,0,-3,0
1523150150057662,-2,-1,4,-17,-7,-6,-2,-3
1523150150070696,2,0,2,42,9,-2,-1,-1
1523150150070696,2,-1,-15,-31,1,5,1,1
1523150150077715,-4,-5,8,-3,-16,-4,-3,-2
1523150150077715,-2,-1,-10,11,1,-3,-4,-1
1523150150093758,-1,-1,3,-7,-2,0,1,-1
1523150150093758,-2,0,0,22,10,-1,0,0
1523150150095762,0,-1,-18,-33,-5,-2,-3,-1
1523150150095762,1,-2,3,15,-4,1,1,1
1523150150116819,0,0,1,-5,-1,-1,-1,-1
1523150150116819,-2,-3,-7,-14,2,1,-1,-2
1523150150117821,-2,1,3,6,6,4,2,0
1523150150117821,0,0,-4,5,-3,-2,-3,0
1523150150130857,-1,0,12,-8,-1,0,-1,-2
1523150150130857,0,-3,-5,10,5,-2,0,-1
1523150150137875,-1,-2,-14,-5,-12,-8,-3,-2
1523150150137875,-1,0,-3,-5,-3,-1,-1,0
1523150150153925,0,1,11,2,-2,-2,0,1
1523150150153925,-2,0,-1,2,-2,-2,-1,-2
1523150150155922,-1,0,10,18,8,1,1,-1
1523150150155922,-2,-3,-5,-6,1,-1,-2,-2
1523150150175976,-1,-2,8,1,-6,-2,-1,-2
1523150150175976,1,-1,-2,-19,4,0,-2,1
1523150150177981,2,-2,-9,31,-2,-3,-1,1
1523150150177981,-2,-2,13,-14,-4,-5,-3,-2
1523150150199039,-1,-4,-14,-33,-13,-1,1,-2
1523150150199039,-1,-2,-3,9,18,4,1,-1
1523150150201046,0,1,5,12,3,2,1,1
1523150150201046,-1,-1,-3,-8,6,0,-2,-2
1523150150214081,-3,-1,-6,-13,-4,-4,-3,-2
1523150150214081,-2,-3,1,-4,-14,-2,-2,-1
1523150150215080,0,-2,-4,-23,0,-7,-5,-3
1523150150215080,-2,-1,0,22,0,-1,0,-1
1523150150236137,-1,1,-8,-26,2,2,1,2
1523150150236137,0,0,-13,-8,1,1,1,0
1523150150238141,-3,-1,4,0,-9,1,0,0
1523150150238141,-1,-1,-15,3,-5,-4,-2,-3
1523150150251176,-1,1,32,3,-2,-3,-5,-3
1523150150251176,-2,-2,-19,-8,-4,-6,-5,-4
1523150150257196,1,-1,-1,4,7,5,3,1
1523150150257196,1,2,6,12,2,4,3,2
1523150150274242,-2,-6,-4,-1,-1,-2,-2,-1
1523150150274242,-1,-1,-8,-11,-9,-5,-4,-1
1523150150275241,-1,-2,10,12,-2,-4,-3,-3
1523150150275241,0,2,20,9,0,0,2,0
1523150150296296,-2,-3,-11,1,2,1,0,-1
1523150150296296,-1,-1,-3,-31,-6,-5,-3,-1
1523150150298303,-3,-5,-25,-26,-9,-7,-3,-3
1523150150298303,-1,0,3,9,2,2,2,0
1523150150310339,1,1,7,19,1,3,2,1
1523150150310339,-2,0,8,31,4,1,1,-1
1523150150319360,1,1,6,-24,-3,-3,-2,1
1523150150319360,-2,-2,-4,-24,-6,-4,-3,-2
1523150150333395,-1,-3,-29,-24,-13,-4,-2,-1
1523150150333395,1,1,17,33,23,5,3,1
1523150150335400,0,1,0,3,3,1,0,-1
1523150150335400,-1,-3,0,-4,-5,-3,-2,-3
1523150150356471,0,-1,-22,-3,-2,-5,-3,1
1523150150356471,-2,1,20,29,-1,4,2,0
1523150150358468,0,-1,-28,-29,3,6,4,3
1523150150358468,-1,0,11,12,1,-4,-5,0
1523150150370493,-1,-1,5,20,2,-1,-1,-2
1523150150370493,0,-3,-4,-31,-10,-5,-4,-2
1523150150379517,-1,-2,2,9,-2,-4,-4,-3
1523150150379517,0,0,-20,-10,0,2,1,0
1523150150393556,-1,-1,22,24,0,0,2,0
1523150150393556,1,1,7,12,-4,0,0,0
1523150150395560,-1,-1,-2,-6,1,2,-1,-1
1523150150395560,0,-1,-1,-3,0,0,1,-1
1523150150416624,-3,0,8,-13,9,-2,-2,-3
1523150150416624,-4,-7,-22,-41,-11,-7,-3,-2
1523150150417635,-2,-1,-12,7,-7,-1,-1,-1
1523150150417635,0,1,22,6,-3,-4,-2,-1
1523150150429652,-2,-5,-19,34,4,4,1,2
1523150150429652,0,1,-2,-25,-5,5,1,-1
1523150150446697,1,0,1,7,17,-1,-2,0
1523150150446697,0,-2,28,5,-3,-2,-2,-2
1523150150453719,-2,0,1,-3,0,1,-1,-2
1523150150453719,1,1,3,14,-2,-2,-2,-1
1523150150455722,-1,-1,6,13,-5,0,-1,-2
1523150150455722,-1,-1,-13,-12,3,3,1,-1
1523150150476776,0,-1,-3,-10,-2,-5,-1,-3
1523150150476776,-3,-2,4,7,-3,-4,-2,-3
1523150150477779,-3,1,-7,26,-4,-7,-3,-3
1523150150477779,-1,-1,-15,-49,0,0,3,0
1523150150489827,1,-3,-8,-1,3,-2,0,-1
1523150150489827,-1,-5,-2,5,-6,-2,1,-1
1523150150498839,-1,-2,9,24,-8,-3,1,-1
1523150150498839,-1,1,1,-7,2,-3,-3,-1
1523150150513877,-2,0,9,2,-2,2,-1,-1
1523150150513877,-1,-3,-35,-14,4,1,2,0
1523150150515883,-1,1,20,-4,-1,2,0,0
1523150150515883,-3,-6,-22,17,-2,0,-2,-4
1523150150535935,1,4,22,-5,3,-2,3,1
1523150150535935,-2,0,-11,18,-1,-3,-3,-2
1523150150537940,-2,-5,33,-31,-14,-4,-3,-3
1523150150537940,-2,0,-17,1,-4,-4,-3,-1
1523150150549972,-2,1,-3,0,1,0,-2,-2
1523150150549972,1,-1,2,16,9,6,4,1
1523150150558995,0,-1,-14,-19,3,3,1,0
1523150150558995,-1,-2,-6,-19,-3,-1,-1,-1
1523150150574041,-1,-3,-4,-13,-10,-4,-3,-3
1523150150574041,-1,2,12,23,-7,-8,-4,-2
1523150150576045,0,0,-4,18,6,0,1,-1
1523150150576045,0,-1,6,11,5,5,3,3
1523150150596097,-1,-2,-11,-5,-4,0,-2,0
1523150150596097,1,1,21,-4,2,1,-1,1
1523150150598100,-3,-8,-43,-8,-9,-6,-3,-1
1523150150598100,-2,0,-3,1,-15,-4,-4,-1
1523150150610133,-2,0,-5,-1,29,6,-1,1
1523150150610133,0,0,-1,6,-3,0,0,-1
1523150150619156,0,1,30,19,-5,1,0,0
1523150150619156,0,-2,-15,-48,-6,-1,0,-2
1523150150634195,-3,-3,-8,-5,-9,-4,-3,-2
1523150150634195,-3,-2,-7,-3,5,-4,-1,-3
1523150150635198,-1,0,-1,-2,4,-2,-2,0
1523150150635198,1,1,3,15,2,-4,-2,-2
1523150150656265,1,-1,-3,1,-5,3,3,-1
1523150150656265,-1,-1,4,-1,-1,3,0,0
1523150150658266,0,-1,-13,1,-2,-1,0,-1
1523150150658266,-1,-2,2,-16,-5,-2,-3,-3
1523150150670291,-3,-3,-16,-15,-8,-7,-3,-4
1523150150670291,-1,1,9,28,-2,-1,0,-1
1523150150679317,0,-2,-14,-45,4,0,-2,-1
1523150150679317,-1,0,-1,33,2,1,-1,-1
1523150150693353,-1,0,-2,-1,-3,-3,-2,0
1523150150693353,-1,0,15,6,0,0,0,2
1523150150695364,-5,-5,-22,0,0,-1,-3,-2
1523150150695364,-1,1,8,-38,4,0,-1,-2
1523150150715412,0,-3,-8,12,-9,0,-2,-1
1523150150715412,-1,2,6,-13,-3,-6,-5,-3
1523150150724441,0,1,11,-8,3,0,0,0
1523150150724441,-1,-3,-17,-2,7,2,3,3
1523150150738474,0,-4,10,21,-13,0,-1,-1
1523150150738474,0,1,1,-10,-5,2,1,1
1523150150740484,-1,1,-1,-1,3,-2,-3,-2
1523150150740484,-1,-3,6,27,-1,-5,-2,-3
1523150150754517,0,2,-3,-23,3,-1,0,0
1523150150754517,-1,-4,-20,-14,-14,-5,-2,-2
1523150150755518,0,4,34,19,-3,3,2,0
1523150150755518,-2,-5,-20,-6,3,3,2,0
1523150150776575,1,2,4,-18,2,2,1,-1
1523150150776575,-1,-4,-3,-10,4,-3,-4,-3
1523150150777577,1,2,6,58,-2,-5,-1,-1
1523150150777577,0,0,21,-12,-6,-4,-3,-1
1523150150798634,-1,-1,-22,5,5,2,0,-1
1523150150798634,-3,-2,-9,-16,5,4,3,1
1523150150800638,-1,0,0,12,-1,1,0,0
1523150150800638,-1,0,34,28,0,1,0,0
1523150150813674,-2,-4,-17,-5,-5,-5,-4,-4
1523150150813674,2,3,7,20,0,-1,-3,-3
1523150150815679,0,-5,-12,-37,-7,-7,-2,-1
1523150150815679,-1,0,1,8,0,1,0,-1
1523150150836743,-3,0,0,-4,2,-2,-1,-1
1523150150836743,-1,2,18,5,0,-6,-2,-2
1523150150837737,-4,-6,-16,15,2,2,0,-1
1523150150837737,0,-1,-4,-20,0,1,1,1
1523150150858795,0,1,8,8,0,0,-1,0
1523150150858795,-1,-3,-3,1,-3,-1,0,0
1523150150860799,-2,-4,-14,-23,-6,-5,-3,-3
1523150150860799,-1,2,6,27,5,1,1,0
1523150150873837,0,-2,-19,-25,1,0,-1,-3
1523150150873837,0,-3,-14,-17,2,-2,-2,-2
1523150150875848,0,2,10,-11,-9,0,-1,0
1523150150875848,-3,-4,-22,9,-10,-5,-3,-2
1523150150896896,-1,1,22,3,-10,-2,-1,-1
1523150150896896,0,0,-17,-3,25,2,0,-1
1523150150897899,-1,-1,-2,-9,4,0,1,-2
1523150150897899,1,0,-3,1,1,0,0,0
1523150150918954,-2,-2,9,14,-5,-3,-2,-1
1523150150918954,-1,-2,-8,-12,-9,-2,-1,-3
1523150150920958,0,0,1,6,-1,0,1,-1
1523150150920958,-1,0,-9,-31,3,4,2,0
1523150150932994,1,2,16,18,7,0,-1,1
1523150150932994,-1,-3,-11,-13,-9,-1,-3,-1
1523150150940011,-1,-2,3,-43,1,-4,-3,-1
1523150150940011,-1,-2,-3,10,-8,-5,-2,0
1523150150956052,-2,-2,1,7,2,1,1,0
1523150150956052,-1,2,13,4,-8,-4,-2,0
1523150150958057,-1,-3,-16,10,-2,-4,-2,-1
1523150150958057,0,-1,-7,9,5,-1,-2,0
1523150150979115,0,-1,-10,-7,5,7,3,1
1523150150979115,0,0,15,18,-1,4,0,-2
1523150150980119,-2,-2,-10,-25,-7,-4,-3,-1
1523150150980119,-1,-3,-7,4,-7,-7,-6,-5
1523150150993152,-1,1,5,-2,0,-5,-2,-4
1523150150993152,-1,-2,-5,-4,-4,4,3,3
1523150151001172,1,-1,2,13,7,9,2,0
1523150151001172,0,0,6,3,-3,-2,-2,-2
1523150151016214,0,-2,-12,-11,-4,-5,-3,0
1523150151016214,-4,-5,-28,-23,-5,-5,-2,0
1523150151018218,0,1,10,8,3,0,1,0
1523150151018218,0,1,11,29,-1,1,0,1
1523150151039275,-3,-4,-23,-54,-1,-3,-1,-3
1523150151039275,-1,1,29,18,2,1,0,-1
1523150151040283,-2,0,4,2,-4,0,0,1
1523150151040283,-2,-1,-1,3,-5,0,-2,-2
1523150151053311,0,0,3,22,-2,-3,-2,0
1523150151053311,0,-1,5,-10,0,-5,-5,-2
1523150151060330,0,1,8,-12,-3,-6,-4,-4
1523150151060330,-1,-5,7,-4,-4,4,1,0
1523150151076375,-4,-7,-28,-33,-1,1,0,-1
1523150151076375,-1,0,-3,-2,2,0,0,-1
1523150151078382,-1,-1,2,-10,-7,-3,-3,-3
1523150151078382,-1,0,-3,5,-1,-4,-2,0
1523150151098432,-1,-1,8,5,-2,-3,0,0
1523150151098432,0,-2,0,11,-2,-3,-2,-2
1523150151100436,-1,0,-9,12,9,1,1,2
1523150151100436,-1,0,5,-13,1,8,6,2
1523150151113472,0,1,11,4,-1,6,1,1
1523150151113472,0,-2,-17,-17,-7,-2,0,-1
1523150151120488,-1,-2,7,26,-4,-6,-5,-3
1523150151120488,-2,-1,-3,-8,5,-4,-3,-2
1523150151143551,0,-3,11,22,0,0,0,0
1523150151143551,-1,0,2,-6,-4,-1,-2,0
1523150151145556,-3,-3,-17,-13,-3,-5,-2,-2
1523150151145556,-1,0,-3,17,9,2,1,0
1523150151158593,-1,-1,-2,-32,-15,8,2,1
1523150151158593,-1,0,22,27,20,2,0,-2
1523150151160596,-2,-3,-6,-16,-5,-2,-2,0
1523150151160596,0,0,-4,0,-4,-6,-2,-2
1523150151173632,0,1,3,15,-3,-6,-3,-2
1523150151173632,0,-1,-4,3,-3,-1,1,0
1523150151179648,-1,0,5,5,-4,0,-2,-1
1523150151179648,-2,-2,-13,-5,-2,-6,-5,-4
1523150151196692,-1,-1,20,8,5,-1,-3,-1
1523150151196692,0,-1,-2,10,-7,10,4,1
1523150151197695,-1,1,-11,3,10,7,3,2
1523150151197695,-2,-4,-17,-49,-10,-3,-3,-3
1523150151218753,0,1,-2,22,2,-5,-2,-3
1523150151218753,-3,-3,-11,-8,-8,-9,-4,-4
1523150151220765,-1,0,9,8,-4,1,0,-1
1523150151220765,0,-1,5,4,-3,-4,-2,0
1523150151232787,-1,-3,-9,-5,-2,-9,-6,-5
1523150151232787,0,1,2,21,18,8,2,2
1523150151241815,1,0,7,-34,2,10,6,3
1523150151241815,-6,-6,-19,-5,-16,-5,-4,-4
1523150151256859,-2,-4,-12,4,-13,-5,-3,-3
1523150151256859,0,-1,-5,-4,17,-3,-5,-2
1523150151257861,0,-1,3,11,4,-5,-2,-1
1523150151257861,-1,2,8,-1,3,1,0,-1
1523150151278911,-2,1,6,-1,-2,1,-1,-1
1523150151278911,-1,-1,-5,-4,-11,-5,-3,-2
1523150151280919,-2,-2,-8,-2,-8,-8,-4,-3
1523150151280919,2,1,16,14,6,-2,-1,-1
1523150151292948,3,1,-13,36,21,17,9,4
1523150151292948,-5,-8,-4,-58,-6,9,1,0
1523150151301972,-1,0,-2,-15,-9,-4,-4,-3
1523150151301972,-1,-1,-4,2,-12,-6,-4,-1
1523150151316011,0,2,12,15,1,-8,-6,-2
1523150151316011,0,1,-3,16,-1,-4,0,-1
1523150151318015,-2,-2,-1,4,-4,0,0,-1
1523150151318015,-2,-1,3,5,5,1,1,-1
1523150151339072,-1,0,-5,-12,0,-3,-2,1
1523150151339072,-2,1,6,-2,-7,-5,-1,-1
1523150151341078,-2,0,-6,15,7,4,3,2
1523150151341078,1,-1,-2,-3,15,8,2,2
1523150151352105,-3,-2,-4,-7,-7,3,1,-3
1523150151352105,-2,-1,-12,-20,-26,-8,-4,-2
1523150151361130,0,1,4,12,11,-1,-2,-1
1523150151361130,0,2,2,10,0,-1,-1,-1
1523150151376169,0,-2,-5,-6,-1,-4,-3,-1
1523150151376169,-1,0,8,4,-5,-3,-4,-1
1523150151378175,0,-1,0,4,-1,1,0,0
1523150151378175,0,-1,-5,-5,-1,-1,1,-2
1523150151399231,-1,-1,-1,-14,-7,-7,-3,-4
1523150151399231,-1,1,13,13,2,2,2,-3
1523150151400234,1,2,5,3,11,11,5,1
1523150151400234,-2,-9,-21,11,1,4,2,1
1523150151412290,-2,-4,-28,-36,-7,-3,-2,-2
1523150151412290,-2,-1,9,7,-3,-6,-4,-2
1523150151421290,-3,-3,-6,-1,-6,-6,-5,-3
1523150151421290,-1,0,17,5,-2,-3,0,-1
1523150151436331,-2,-1,5,9,4,0,3,1
1523150151436331,-1,-4,-18,-2,2,-1,-1,1
1523150151438337,-2,-2,1,-8,-11,-7,-5,-4
1523150151438337,0,1,-1,3,3,-2,-3,-3
1523150151459391,2,1,13,22,12,9,5,4
1523150151459391,-1,0,0,25,11,12,3,2
1523150151460393,-2,-2,1,-53,-5,0,-1,-1
1523150151460393,-4,-6,-14,-10,-15,-9,-8,-6
1523150151472434,-4,-2,-8,5,-2,-8,-6,-3
1523150151472434,1,1,10,18,0,-7,0,-2
1523150151481449,-1,-2,-5,21,0,-1,1,-1
1523150151481449,-1,1,1,-12,2,0,0,0
1523150151496492,-1,-1,13,-8,-1,-3,-3,-2
1523150151496492,-2,-2,-13,-6,2,3,6,0
1523150151498497,-2,-1,1,0,2,5,5,2
1523150151498497,-3,-1,2,-6,1,1,0,-1
1523150151518549,-2,2,8,3,0,1,2,0
1523150151518549,-1,-2,-11,-15,-12,-7,-4,-1
1523150151520555,-2,-3,-12,-11,-5,-4,-4,-4
1523150151520555,1,2,7,9,-1,-1,0,-1
1523150151532590,0,1,0,-1,1,-1,-1,-1
1523150151532590,0,0,0,-7,-2,-5,-3,-3
1523150151541619,0,0,5,8,-2,-8,-4,-1
1523150151541619,1,0,2,8,10,8,6,3
1523150151556650,0,-2,-1,6,-1,10,5,0
1523150151556650,-1,-4,-16,-30,-3,5,0,0
1523150151557653,-2,-2,-6,-25,-7,-5,-4,-2
1523150151557653,-3,-1,-1,-13,-1,-4,-7,-1
1523150151578709,-1,-1,2,-2,-7,-8,-3,-2
1523150151578709,0,1,5,11,-3,-1,-2,-2
1523150151580714,1,0,-4,14,4,5,2,1
1523150151580714,2,0,-5,-4,-2,-2,-1,-1
1523150151592749,0,1,35,4,2,-2,1,1
1523150151592749,-1,-2,-12,-21,0,0,-4,-1
1523150151601770,-1,-2,-22,-22,-6,-2,-2,-2
1523150151601770,-2,-1,12,-6,-6,-4,-1,-4
1523150151616810,0,-1,0,12,5,2,1,-1
1523150151616810,-2,-1,1,7,3,-3,0,-2
1523150151617812,0,1,20,21,-1,-1,0,-2
1523150151617812,-1,-1,-7,-11,-4,1,-1,-1
1523150151638874,-3,-2,-18,-12,-4,-2,-3,-2
1523150151638874,-1,0,23,12,6,0,1,1
1523150151640882,0,0,-13,-3,-7,0,0,0
1523150151640882,0,-1,-5,4,-5,-2,-2,-2
1523150151652910,0,-1,-9,-9,-1,-2,-2,-2
1523150151652910,1,0,1,14,6,2,4,1
1523150151661929,-2,-3,9,12,1,-2,-2,-2
1523150151661929,-2,-1,-4,5,-2,-3,-2,0
1523150151675967,-1,0,2,0,-5,-5,-2,0
1523150151675967,-3,-5,-15,-10,-8,2,0,0
1523150151677973,0,1,19,38,22,-2,0,-1
1523150151677973,-2,-3,-9,-14,8,8,2,1
1523150151699030,-2,-4,-20,-48,-12,-1,0,-2
1523150151699030,-1,1,23,-5,-4,-5,-3,-1
1523150151700032,-3,-2,1,26,-10,-4,-4,0
1523150151700032,1,2,4,-20,1,-5,-4,-1
1523150151721087,0,-1,1,23,6,1,-2,1
1523150151721087,-2,-2,-9,-4,1,-2,0,-4
1523150151723096,-1,-1,8,4,1,3,1,0
1523150151723096,-1,2,13,48,1,-2,0,0
1523150151736128,-2,-2,-12,-68,-3,0,0,0
1523150151736128,-1,-2,2,0,-4,-5,-4,-1
1523150151738135,-1,-1,0,-12,3,1,1,-1
1523150151738135,-2,-2,-12,-3,-6,-1,0,0
1523150151759191,-1,0,2,13,-2,-4,-3,-3
1523150151759191,0,1,-6,-4,4,1,-1,1
1523150151760194,1,-1,-1,12,-1,0,0,-1
1523150151760194,0,-1,-1,-9,-8,0,-2,0
1523150151781247,0,-1,-1,31,0,-5,0,-2
1523150151781247,-2,-1,5,-35,-5,1,1,-1
1523150151783254,-3,0,-11,13,-1,1,1,-1
1523150151783254,1,-1,-6,-7,10,6,3,0
1523150151796288,-2,-3,-2,-7,-8,-5,-6,-3
1523150151796288,-1,-2,-2,7,-5,-3,-2,0
1523150151798293,-2,-3,-3,-1,-6,-3,-2,-3
1523150151798293,-2,2,22,5,0,-4,-3,-3
1523150151819348,-2,-2,-3,-6,8,4,1,2
1523150151819348,-2,3,2,-6,0,2,0,1
1523150151820354,-1,-3,-20,-26,0,1,-1,1
1523150151820354,-1,-4,-7,17,-13,-9,-5,-3
1523150151841410,-1,0,-3,-4,2,-3,-3,-1
1523150151841410,-1,0,13,-19,-8,-2,-1,-2
1523150151843415,-1,-1,4,27,2,4,0,-1
1523150151843415,-3,-3,-30,-46,2,1,-1,-1
1523150151855445,-2,0,3,34,3,0,0,-1
1523150151855445,2,0,-3,1,5,-3,-3,-1
1523150151862466,-2,-2,-2,-40,-6,-2,-2,-1
1523150151862466,0,-1,16,17,-2,0,3,-1
1523150151878507,-1,-2,-11,8,-1,-4,-7,-1
1523150151878507,0,-1,-7,2,0,1,5,0
1523150151880511,-1,-2,3,-11,-5,-3,-1,0
1523150151880511,-1,-1,0,3,-1,0,-1,-1
1523150151901567,-1,0,11,0,-1,4,0,-2
1523150151901567,-2,-1,-21,5,-4,-3,-3,-3
1523150151902570,-2,-3,16,-2,-5,-5,-4,-1
1523150151902570,0,0,-6,-11,-1,1,1,0
1523150151915606,1,0,6,11,-2,-4,0,0
1523150151915606,-1,-1,-5,24,3,0,-1,-1
1523150151922626,1,1,5,-5,1,-2,-1,-2
1523150151922626,-2,-2,0,-17,-4,-5,-3,-2
1523150151938674,-2,-3,-7,-5,3,3,2,0
1523150151938674,0,-3,-7,10,2,1,-1,-1
1523150151940671,-1,0,-6,-16,-6,0,0,-1
1523150151940671,0,1,9,12,2,3,0,1
1523150151961731,-2,-2,0,7,1,-1,-1,0
1523150151961731,-3,-3,-28,-47,-7,-2,-2,-2
1523150151962730,-1,-2,-8,13,0,-2,-2,0
1523150151962730,0,0,-2,-11,-2,-1,-1,-1
1523150151975770,-2,0,-2,-10,-1,0,2,-1
1523150151975770,0,0,3,10,1,-3,-4,1
1523150151982786,-1,-2,-5,-26,-2,-6,-4,-2
1523150151982786,-1,0,2,5,0,0,0,0
1523150151998830,0,-3,-17,-7,0,1,0,-1
1523150151998830,0,-1,18,15,-2,-4,-2,0
1523150152000834,0,1,-9,5,0,-1,0,0
1523150152000834,-1,-1,-1,-9,-1,-2,-1,-1
1523150152021892,0,0,4,4,3,3,0,0
1523150152021892,0,0,3,-1,5,4,-1,0
1523150152022895,-1,1,-4,-2,-2,1,1,-1
1523150152022895,-2,-3,-6,21,1,-3,-2,-1
1523150152035949,-1,2,25,-4,-7,-4,-1,-1
1523150152035949,-1,-4,-11,-19,3,2,1,-3
1523150152042945,-3,-2,11,5,-3,-3,-1,1
1523150152042945,0,-2,2,3,0,-1,0,-1
1523150152058986,0,0,-4,10,2,-1,-3,-1
1523150152058986,-1,0,7,22,-2,-3,-1,-1
1523150152060993,-1,1,3,-17,-2,0,0,-1
1523150152060993,-1,-3,-15,3,-3,-3,-1,0
1523150152081046,-2,-2,2,-31,-3,-2,-1,-1
1523150152081046,-1,-1,16,-1,-4,-8,-3,-1
1523150152083051,-1,-2,3,14,-4,-2,-1,-2
1523150152083051,-1,-2,-8,5,9,8,4,4
1523150152096087,-2,1,-9,-22,1,2,-1,1
1523150152096087,-2,-1,-13,12,0,1,-1,-1
1523150152110125,0,1,18,7,0,0,-1,-2
1523150152110125,-1,-4,-14,-4,-5,-5,-5,-2
1523150152119146,1,-2,0,6,1,1,-2,-1
1523150152119146,-2,-1,-1,2,-4,-4,-1,-1
1523150152120149,-2,-2,-15,-15,-4,-5,-4,-2
1523150152120149,-2,-1,-15,-11,-5,4,1,0
1523150152142207,-2,2,15,22,1,-1,2,-2
1523150152142207,-1,-3,-12,-19,2,2,0,0
1523150152143210,-1,0,11,-3,-3,-3,0,-2
1523150152143210,0,1,9,5,-5,-4,-1,-1
1523150152156247,0,-1,-29,3,-3,-6,-2,0
1523150152156247,-1,0,17,4,1,4,1,0
1523150152162265,-2,-3,-6,10,5,7,2,2
1523150152162265,-1,0,4,-7,0,0,1,-1
1523150152179307,0,2,12,2,-8,-6,-3,-3
1523150152179307,-3,-5,-22,11,2,-3,-3,-2
1523150152180310,0,-2,-17,-38,-1,-3,-3,0
1523150152180310,-2,-2,2,1,0,1,-2,-1
1523150152201367,1,-1,5,12,6,3,0,2
1523150152201367,-1,0,7,-1,-5,0,1,0
1523150152203371,-1,-1,-1,6,-3,-4,-1,0
1523150152203371,1,0,13,37,1,-4,-1,-1
1523150152215403,-1,-3,-11,-89,-8,-2,-3,-3
1523150152215403,-1,-1,-1,1,-4,-4,-2,-1
1523150152224427,0,0,-13,-2,5,5,2,1
1523150152224427,0,-2,1,3,7,4,5,0
1523150152239471,-2,0,6,35,1,0,0,-3
1523150152239471,0,3,28,-7,-6,-4,-2,-2
1523150152240469,-1,-4,-34,-9,-5,-6,-6,-4
1523150152240469,-3,2,24,-3,-1,-4,-2,-2
1523150152261525,-1,-4,-24,4,1,0,0,0
1523150152261525,-1,1,2,-3,8,1,-2,-1
1523150152262529,-1,-2,-20,2,-15,2,1,0
1523150152262529,0,-1,10,-9,-1,-2,-1,-2
1523150152274561,0,-2,8,4,-5,-2,-1,0
1523150152274561,-3,-1,-15,2,3,-3,-2,-1
1523150152283587,-2,0,16,10,9,-1,-1,-1
1523150152283587,1,-1,-6,-10,-4,-1,-1,-1
1523150152298627,-2,0,2,14,-1,0,0,-2
1523150152298627,0,1,-2,-3,-1,0,1,2
1523150152300629,-3,-3,12,-22,-3,2,-1,0
1523150152300629,-1,-1,-21,-7,-4,-3,-2,-2
1523150152321690,0,-1,3,11,3,0,0,0
1523150152321690,0,-4,3,11,-2,0,-1,-1
1523150152322689,-2,0,28,10,2,-3,0,-2
1523150152322689,0,-1,-8,2,-6,-5,-2,-1
1523150152334723,-2,0,12,-11,1,1,0,0
1523150152334723,-2,-2,-34,-34,-3,1,1,-1
1523150152343744,0,-1,0,12,7,2,1,0
1523150152343744,-1,0,10,38,0,0,-3,-1
1523150152358787,2,-1,-2,-37,-6,-5,-3,-1
1523150152358787,-4,-2,-5,-9,-11,-5,-4,-4
1523150152360790,0,-1,5,18,7,2,-1,1
1523150152360790,-2,-2,-22,-18,0,1,2,1
1523150152380847,-4,-1,8,5,-2,-4,1,-3
1523150152380847,0,-1,0,-3,2,0,0,0
1523150152387864,0,-1,-23,-3,-2,0,2,0
1523150152387864,-1,0,20,6,0,-1,-2,-1
1523150152394888,-2,-2,-6,4,-2,-1,-1,0
1523150152394888,0,-1,-2,-1,1,-1,-2,0
1523150152403906,-1,0,17,4,-4,-1,-2,-1
1523150152403906,0,0,-9,-17,0,3,0,-1
1523150152418946,0,-1,-8,7,0,1,0,0
1523150152418946,-2,-2,8,13,0,0,2,-2
1523150152420949,-2,-1,1,10,1,-3,-1,0
1523150152420949,0,1,10,6,-5,-5,-1,-1
1523150152441008,-3,-4,-22,-23,-3,-2,-1,-3
1523150152441008,-1,-2,-13,-11,-3,-1,-1,-1
1523150152443009,-2,-1,0,6,0,-1,0,-1
1523150152443009,-3,-3,6,0,2,-1,-3,-2
1523150152455041,-1,-3,9,20,2,1,1,1
1523150152455041,1,2,2,2,-8,1,-2,-1
1523150152464064,-1,0,-4,0,5,-1,-1,-2
1523150152464064,-1,-2,-8,2,-6,-5,-3,-3
1523150152479105,1,2,44,-3,-6,-2,-3,1
1523150152479105,-1,-3,-7,4,-5,-4,-1,-1
1523150152480106,0,2,0,-4,-3,-5,-3,-1
1523150152480106,-2,0,-12,-26,11,4,4,1
1523150152501172,-1,-1,-15,18,-4,0,-1,-1
1523150152501172,0,-1,16,13,4,2,2,-1
1523150152503168,-1,-2,1,7,-4,-4,-3,-2
1523150152503168,-1,-2,-10,-13,-4,-3,-3,-4
1523150152515202,0,-1,-5,3,2,0,-1,0
1523150152515202,-1,1,-3,-9,-1,-4,-3,-1
1523150152524225,0,-2,6,1,-4,0,0,0
1523150152524225,-2,-1,0,-14,-6,2,2,3
1523150152539265,-4,-5,-9,10,7,3,0,-1
1523150152539265,-1,0,0,-4,-4,-2,-2,-2
1523150152540270,0,-2,-10,-15,0,-4,-4,-3
1523150152540270,0,-1,7,-4,-5,-2,-2,-1
1523150152561332,-1,2,-11,7,3,0,3,1
1523150152561332,-3,-2,-12,-5,5,1,-1,1
1523150152563330,-1,-3,4,13,-1,0,0,0
1523150152563330,-3,-3,-10,-21,-7,-5,-6,-3
1523150152575361,0,0,-6,6,-2,-4,-2,-3
1523150152575361,0,-1,2,10,3,1,0,-1
1523150152584409,-2,0,6,-9,-3,2,1,-1
1523150152584409,2,-1,-4,2,1,-3,0,0
1523150152599426,-1,-2,-1,9,-2,0,-2,-3
1523150152599426,-1,0,3,-6,-9,-4,-2,-2
1523150152600430,-2,-2,-5,-10,-7,-1,-2,-1
1523150152600430,0,0,8,16,3,2,2,0
1523150152621491,-1,0,3,-13,-2,-2,0,1
1523150152621491,1,1,7,15,6,0,-2,0
1523150152622490,0,-2,-13,0,-4,1,-1,0
1523150152622490,-1,1,2,-2,3,3,1,1
1523150152643547,0,-1,2,-13,-2,-4,-1,-2
1523150152643547,-1,-2,-10,7,-2,-2,-2,1
1523150152645548,-1,-1,3,-18,1,-3,-1,-1
1523150152645548,-1,0,-2,0,-3,-3,-4,-3
1523150152657582,0,1,3,1,2,1,0,1
1523150152657582,0,-2,3,2,4,3,3,0
1523150152666605,-2,-3,-28,-21,-2,1,-2,-2
1523150152666605,0,-1,0,4,1,-1,0,0
1523150152681643,-2,-1,0,0,-6,-4,-3,-1
1523150152681643,-1,0,2,1,-3,-4,-2,-1
1523150152682646,-1,0,7,6,1,1,2,0
1523150152682646,1,-5,-2,0,-4,0,0,-1
1523150152703701,0,-1,-5,-9,-2,-3,-3,-2
1523150152703701,0,-3,1,9,7,4,1,-1
1523150152705711,-1,-1,5,-1,-2,-2,-1,-1
1523150152705711,0,0,1,-7,-5,-4,-2,-2
1523150152718750,1,0,-4,9,4,0,1,-1
1523150152718750,-1,-1,7,-12,-1,-2,-2,-2
1523150152720750,-2,-1,2,-2,1,0,-1,-1
1523150152720750,-3,-3,-25,8,4,-1,-1,-1
1523150152741804,0,2,10,-19,-7,1,-2,-2
1523150152741804,0,0,2,7,-3,-4,-1,0
1523150152742808,-1,-2,-13,12,-2,-4,-4,-1
1523150152742808,-2,1,24,-4,0,2,1,1
1523150152763867,-1,-3,-10,-3,4,2,0,0
1523150152763867,-3,-2,-1,-1,-3,0,0,-1
1523150152765870,0,1,8,6,-3,-2,-1,-2
1523150152765870,-2,0,13,4,1,-3,-5,-3
1523150152785922,0,-4,-19,-1,-2,-3,-4,-4
1523150152785922,-1,0,3,-3,4,4,1,-1
1523150152786923,0,-1,-3,-2,2,-2,-1,-1
1523150152786923,-1,-2,-10,-6,-3,1,0,-1
1523150152800970,-1,0,4,0,-4,-3,-2,-2
1523150152800970,-1,-2,-8,-10,-8,-6,-3,0
1523150152801966,0,-1,3,20,4,3,0,0
1523150152801966,-1,-2,-11,-21,0,0,0,-1
1523150152823027,-2,2,8,5,-1,-3,-1,-3
1523150152823027,-1,1,15,18,-5,-4,-2,-2
1523150152824024,-1,-4,-10,-33,1,-2,1,-1
1523150152824024,-2,-2,-25,-4,-3,-2,-2,-2
1523150152837060,-1,-2,5,9,2,6,3,1
1523150152837060,-1,-1,1,2,-5,-3,-3,-3
1523150152846081,0,2,-5,15,8,7,2,-1
1523150152846081,1,1,14,-16,-10,-1,-2,0
1523150152861122,-4,-5,-22,-28,-5,-7,-5,-3
1523150152861122,1,-2,-11,-1,-1,-4,-1,0
1523150152861122,0,0,4,4,-8,-1,-1,0
1523150152861122,0,1,20,14,5,0,0,-1
1523150152883182,-2,-4,-16,-6,-2,2,1,1
1523150152883182,-2,-2,-13,-34,-8,-3,-3,-3
1523150152884182,-2,-3,-6,-27,-6,-8,-4,-3
1523150152884182,1,0,6,30,4,2,0,0
1523150152897218,1,2,18,5,3,-3,-3,0
1523150152897218,-3,-5,-23,-17,1,4,0,-1
1523150152906244,-1,0,-3,7,-1,2,4,2
1523150152906244,-3,-1,2,3,-4,-5,-1,-1
1523150152920279,0,2,27,8,0,-2,-1,0
1523150152920279,0,0,2,9,5,2,-1,-1
1523150152921282,-1,1,1,-2,-4,-1,-2,-1
1523150152921282,-2,1,-2,-3,-3,-3,0,-1
1523150152943341,0,-3,-12,2,-1,0,1,0
1523150152943341,0,0,7,16,2,-2,1,1
1523150152944344,-1,-3,7,-21,-7,0,-1,-3
1523150152944344,-1,-2,-6,-13,0,-2,-2,-2
1523150152957379,0,0,-1,4,-2,1,0,-1
1523150152957379,0,1,8,10,5,4,2,2
1523150152965400,-1,-2,-6,-2,7,0,-1,-2
1523150152965400,-2,-3,8,16,-5,2,-2,0
1523150152980440,-2,-3,-22,0,-2,-3,-2,-3
1523150152980440,-1,-2,-9,-12,-7,-4,-1,-2
1523150152981442,-1,-1,6,8,-3,-3,-2,-1
1523150152981442,1,-1,12,3,6,-1,-1,1
1523150153003502,2,-1,6,20,0,3,0,1
1523150153003502,0,0,2,-23,-3,0,0,-1
1523150153004508,-2,-3,0,10,5,-2,-4,-1
1523150153004508,-2,0,-6,-3,-5,0,-1,-1
1523150153017540,-1,0,-1,-13,0,-3,-1,-1
1523150153017540,-1,-1,5,10,5,0,1,-1
1523150153025565,1,2,-1,10,-9,-4,0,-1
1523150153025565,-3,-5,-4,-18,3,-1,-2,-3
1523150153040606,1,1,11,8,1,8,3,3
1523150153040606,0,-1,2,22,-3,-2,-2,0
1523150153041602,-1,0,14,-12,-1,-2,-2,-2
1523150153041602,-2,-5,-39,-12,2,-1,-1,-1
1523150153063660,-2,-1,7,0,2,-3,-4,-1
1523150153063660,-2,-1,-5,12,3,1,0,0
1523150153063660,0,1,11,8,-2,-2,0,0
1523150153063660,-2,0,10,-4,-5,-2,-2,-1
1523150153077697,-2,-3,-19,-17,-1,-2,-2,-3
1523150153077697,-2,2,8,13,3,3,-1,0
1523150153085721,0,-2,-1,-2,1,2,1,-1
1523150153085721,-2,0,-4,-7,-3,-2,0,-1
1523150153100761,0,0,10,11,-2,-2,-1,-1
1523150153100761,-2,-2,6,-4,-2,-5,-3,-2
1523150153101777,-1,-4,-24,-11,-1,2,0,-1
1523150153101777,0,-1,14,2,-2,1,1,0
1523150153122819,-4,-1,-11,5,0,-2,1,-1
1523150153122819,1,-2,-8,-16,-2,-3,-4,-2
1523150153123822,0,0,15,11,-2,-2,-1,-1
1523150153123822,1,-6,-49,-8,7,4,0,3
1523150153137862,1,2,14,21,-1,-1,-1,-1
1523150153137862,-2,-4,-6,-23,-4,-4,-1,-1
1523150153145879,-2,-3,1,-2,1,2,-1,-1
1523150153145879,0,3,4,6,0,-6,-4,-1
1523150153160921,1,0,13,24,2,-3,0,1
1523150153160921,0,0,-17,-34,2,5,0,-1
1523150153161922,-2,-1,-22,13,0,-2,-1,-1
1523150153161922,-2,2,10,46,0,-5,-1,-3
1523150153182980,-1,-3,-12,-87,-6,-4,-4,-2
1523150153182980,0,1,7,20,-10,1,3,0
1523150153183981,-1,-1,2,3,6,2,1,1
1523150153183981,1,1,-3,14,6,1,-2,0
1523150153197016,-2,0,-1,4,-4,-4,-2,-2
1523150153197016,0,1,1,2,7,-3,-2,0
1523150153206039,-4,0,-11,-27,-13,-2,-1,-3
1523150153206039,0,1,14,8,3,-1,-1,0
1523150153221081,1,-1,-16,-1,0,1,0,0
1523150153221081,-2,0,10,-1,-2,1,-2,0
1523150153222084,-1,-1,0,-9,2,-3,-2,-1
1523150153222084,0,0,7,-14,-6,-4,-3,-1
1523150153243140,0,-3,-2,1,0,3,2,0
1523150153243140,-2,-1,-11,5,-2,-1,0,0
1523150153251159,1,0,11,12,4,-2,-3,0
1523150153251159,-2,-3,-7,-13,-7,-1,-1,-1
1523150153257178,-2,-3,-8,-24,-10,-4,-3,-3
1523150153257178,0,0,7,26,6,0,0,1
1523150153266198,0,1,-2,-3,10,-1,0,0
1523150153266198,-1,0,17,-1,-9,3,1,-1
1523150153280238,-2,-1,-3,15,2,1,-1,0
1523150153280238,-1,-2,4,-8,0,-4,-2,-2
1523150153281239,-1,2,7,18,-4,0,-1,0
1523150153281239,-4,-8,-35,-28,-1,-3,-2,-2
1523150153303299,0,1,17,9,0,-1,-1,-2
1523150153303299,-3,-4,-26,-14,-9,-4,-2,-5
1523150153304305,-2,-1,0,6,0,-1,-2,-1
1523150153304305,0,3,18,11,7,4,2,1
1523150153317336,-3,-3,-14,1,-2,1,-1,1
1523150153317336,-1,0,5,29,-2,0,-2,1
1523150153325358,-1,-3,-12,-34,0,-2,0,-1
1523150153325358,0,-1,8,-5,-4,-4,-2,-3
1523150153340399,-2,-3,-16,-14,1,-3,-2,-2
1523150153340399,1,-1,11,6,-7,0,-1,-2
1523150153341401,-1,-1,12,2,-1,-1,-3,-1
1523150153341401,1,0,-1,2,3,1,1,-2
1523150153363459,-1,0,9,6,9,5,3,1
1523150153363459,-2,-1,3,-5,-1,-2,-3,0
1523150153363459,-1,-2,-12,-13,-9,-5,-3,-3
1523150153363459,-1,-1,-3,-6,-3,-3,-2,-3
1523150153377495,-1,-1,3,8,2,1,1,-1
1523150153377495,-1,0,4,-2,4,2,1,-1
1523150153385519,-1,0,-6,-5,-5,4,0,1
1523150153385519,0,-1,-3,4,2,0,-1,0
1523150153400556,1,1,11,13,1,-4,-3,-2
1523150153400556,-3,-2,-10,-14,-8,-2,-1,-2
1523150153401561,-1,0,7,13,2,-4,-2,-1
1523150153401561,0,0,5,1,-4,0,-3,-2
1523150153423616,0,0,-4,-13,0,2,1,2
1523150153423616,1,0,-6,2,6,1,1,1
1523150153423616,1,0,32,7,0,1,-1,-1
1523150153423616,-5,-5,-32,-28,0,-1,-1,0
1523150153437658,-1,0,4,22,-7,-5,-3,-3
1523150153437658,0,-2,2,-19,0,-1,-2,0
1523150153445679,0,-2,-7,-15,-2,1,0,-2
1523150153445679,-1,1,3,7,-1,-1,1,0
1523150153460717,-1,-1,-2,3,1,1,0,0
1523150153460717,-2,0,3,-1,-6,-5,0,0
1523150153461720,0,-1,6,13,5,1,-1,-1
1523150153461720,-1,-1,1,3,1,-2,-3,-1
1523150153483776,0,0,2,1,-3,0,0,0
1523150153483776,-1,-1,-8,-18,-6,-2,0,1
1523150153483776,-1,-1,-8,-6,-1,-5,-2,-2
1523150153483776,-1,0,2,-5,-1,-2,-1,-2
1523150153497815,-3,-2,-13,2,-3,-7,-3,-2
1523150153497815,1,1,16,9,5,1,1,-1
1523150153505837,-4,-1,0,21,4,4,3,0
1523150153505837,-1,-1,-6,-28,-1,2,1,1
1523150153528900,-2,-1,-9,-16,-8,-3,-2,-1
1523150153528900,-1,-2,-9,0,2,-5,-3,-2
1523150153529901,0,1,12,15,-6,-5,-2,-2
1523150153529901,0,-3,-19,1,8,3,0,1
1523150153542936,0,-2,5,-11,-7,2,-2,-1
1523150153542936,-2,-2,-13,2,0,-1,1,1
1523150153543937,0,1,14,24,-4,1,0,0
1523150153543937,-2,-2,4,-24,-5,-5,-3,-2
1523150153566002,-1,0,-12,-19,-2,-2,-1,-2
1523150153566002,1,-2,4,4,2,-2,-3,-1
1523150153567002,0,-1,-12,-9,-5,-1,-2,-1
1523150153567002,-1,0,0,17,1,1,2,-1
1523150153581039,2,5,31,7,4,-1,-1,-2
1523150153581039,-2,-6,-19,-1,1,0,-2,-4
1523150153581039,-2,-3,-10,-18,-2,-4,-1,-3
1523150153581039,0,0,-4,-4,-8,-3,-3,1
1523150153603096,-2,-2,6,22,3,-1,-1,-2
1523150153603096,1,3,11,-4,2,1,1,1
1523150153604103,-1,-1,-17,-8,-4,1,2,2
1523150153604103,-2,-2,10,18,-4,-1,-2,-3
1523150153626157,-3,-4,-17,-4,1,-2,-1,0
1523150153626157,-2,1,19,6,-1,-2,-2,-3
1523150153627160,-1,0,-5,4,4,2,-3,-2
1523150153627160,0,0,-2,1,-4,0,1,-1
1523150153640194,-1,-3,-9,-9,1,2,1,2
1523150153640194,1,1,1,5,-3,-2,-1,-1
1523150153641197,-1,-3,8,-11,4,-2,-3,-2
1523150153641197,1,1,2,4,-2,-2,0,-1
1523150153663255,0,-2,0,-2,-4,0,0,-3
1523150153663255,-2,0,6,20,-6,-5,0,1
1523150153664259,-2,-3,-21,-35,5,2,-1,-1
1523150153664259,0,-1,3,-2,4,1,1,0
1523150153686319,-3,-1,-14,3,2,-1,-1,-2
1523150153686319,-1,-1,6,0,-2,-2,-2,-2
1523150153687330,-1,1,-4,5,-6,-6,-3,-2
1523150153687330,-1,-1,5,3,1,-2,-2,-2
1523150153700358,0,-1,3,0,-5,-2,0,0
1523150153700358,1,2,-10,-1,10,12,5,3
1523150153701358,-4,-8,-10,-23,-5,0,1,-1
1523150153701358,-1,-1,2,6,-4,-2,-2,-3
1523150153723418,-2,-2,14,1,-3,-2,-3,-1
1523150153723418,0,-2,-1,3,-2,-4,-5,-2
1523150153724418,1,0,2,8,2,-1,1,2
1523150153724418,-1,0,2,-2,-3,0,1,-2
1523150153746480,-2,0,10,19,6,0,-1,-1
1523150153746480,-2,-1,-10,-10,2,-3,-1,-1
1523150153747482,-2,-2,-20,-38,-12,0,-1,-2
1523150153747482,-1,0,20,10,4,1,1,1
1523150153760514,-1,-1,1,-5,0,4,1,-1
1523150153760514,-1,-1,-1,2,-7,-2,-2,-3
1523150153761517,-1,0,5,16,0,-5,-3,-3
1523150153761517,0,0,-17,-3,2,0,-2,0
1523150153783574,0,2,2,-6,-2,1,-2,0
1523150153783574,-2,-3,1,-12,-2,-4,-2,-2
1523150153783574,0,-1,9,26,4,-4,-1,0
1523150153783574,0,0,-15,-9,-4,6,5,2
1523150153806639,-2,-5,-12,-21,2,4,0,-1
1523150153806639,-5,-5,-18,-19,-7,-2,-2,-2
1523150153807640,-1,0,2,6,-2,-2,-2,-3
1523150153807640,0,1,6,23,0,-4,-3,-1
1523150153820677,-1,1,7,-4,-3,-3,-1,-1
1523150153820677,0,-1,-11,-11,0,-1,0,-3
1523150153821685,0,1,4,11,-1,-2,-1,0
1523150153821685,-1,-3,0,-8,-4,-11,-7,-2
1523150153842733,0,-1,-13,2,4,0,-2,-1
1523150153842733,1,3,23,-2,1,18,9,4
1523150153843735,-1,-3,-14,1,2,2,2,-1
1523150153843735,-3,-4,-29,-40,-9,-2,-2,-3
1523150153866797,0,0,15,8,-5,-9,-5,-2
1523150153866797,0,-1,-1,15,0,-6,-3,-2
1523150153866797,0,1,7,10,0,2,1,0
1523150153866797,-1,0,5,1,-1,-2,0,-2
1523150153880837,-2,-2,-6,2,1,-1,-2,-1
1523150153880837,-3,1,-3,-2,-3,-4,-2,-1
1523150153881837,-1,-2,2,-7,-6,-3,-3,-1
1523150153881837,0,0,5,10,-1,-4,-3,-3
1523150153902895,2,3,-5,3,10,4,6,4
1523150153902895,0,-4,-7,-5,3,16,5,2
1523150153903898,-1,-1,6,-3,-4,-3,-2,-1
1523150153903898,-2,0,0,13,-1,1,-1,-2
1523150153925954,-5,-4,-4,-29,-12,-8,-4,-6
1523150153925954,-1,-1,-8,-4,-1,-9,-5,-1
1523150153926957,-1,1,-2,2,2,0,-2,-3
1523150153926957,-3,-2,8,8,1,2,0,-1
1523150153940996,0,-1,0,6,-2,-3,-3,-1
1523150153940996,-1,-1,3,-8,3,-6,-2,-2
1523150153941997,0,2,7,6,0,8,6,2
1523150153941997,-2,-4,-16,3,3,1,0,-1
1523150153963055,0,0,-5,-20,-7,4,2,2
1523150153963055,-3,-6,7,-12,-7,-6,-6,-2
1523150153964057,-2,3,4,10,-1,-5,-2,-1
1523150153964057,-1,1,6,4,2,2,2,1
1523150153986115,0,-2,-3,14,-1,0,-2,-1
1523150153986115,-1,1,3,4,-2,-5,-3,0
1523150153987119,0,-1,-7,-8,-1,-4,-1,-1
1523150153987119,0,-1,-15,0,-8,-8,-4,-1
1523150154001154,0,-4,12,2,4,-3,-4,-2
1523150154001154,0,4,9,-4,-4,11,6,4
1523150154001154,-1,-2,-4,-1,8,4,1,-1
1523150154001154,1,-3,-12,1,-4,0,-2,-2
1523150154023215,-3,-2,-6,-23,-7,-10,-4,-4
1523150154023215,-1,-1,-1,3,-1,-7,-3,-3
1523150154024215,-1,-2,-5,-5,-3,-2,-2,0
1523150154024215,1,1,14,0,1,2,2,0
1523150154046276,0,0,-4,9,0,3,0,-2
1523150154046276,0,2,6,35,4,-4,-2,0
1523150154047279,-2,-5,-12,-21,1,2,1,0
1523150154047279,-3,-4,-21,-49,-13,-2,-3,-1
1523150154060313,0,0,5,12,0,0,1,0
1523150154060313,-1,0,-7,2,1,0,-1,-2
1523150154068334,1,2,19,20,2,-7,-6,-1
1523150154068334,0,-1,-1,-7,4,-1,2,-2
1523150154083377,-1,-2,-4,-3,-4,-1,0,0
1523150154083377,-1,-1,3,-1,-3,-3,-1,-1
1523150154084378,-1,-2,-8,-9,-1,0,0,-1
1523150154084378,-1,0,7,8,3,0,-2,0
1523150154105435,0,2,16,4,3,1,0,-1
1523150154105435,0,-4,-29,-11,0,4,1,0
1523150154113453,-2,-2,4,10,-6,1,2,0
1523150154113453,-1,0,9,-7,0,-2,-2,-2
1523150154120478,-2,0,-7,-4,-3,-6,-1,-2
1523150154120478,-1,0,4,-2,0,-4,-3,-2
1523150154121480,0,-4,-8,-8,-1,-2,-1,-1
1523150154121480,0,0,2,10,0,-3,-1,-1
1523150154143536,2,0,-5,-1,1,3,1,0
1523150154143536,-2,0,24,7,-2,-3,-1,0
1523150154143536,-2,-3,0,-6,1,1,-3,-1
1523150154143536,-1,-3,-16,-33,-12,-4,-2,-2
1523150154166594,0,-2,-7,9,0,4,3,1
1523150154166594,-1,-1,-6,0,2,2,3,2
1523150154167596,0,1,17,22,2,-3,0,0
1523150154167596,-2,0,9,10,0,-3,-2,-1
1523150154179631,-2,0,-5,-13,-4,-1,-1,-2
1523150154179631,-1,-4,-14,-2,1,-3,-3,-4
1523150154188654,0,3,10,2,4,1,3,0
1523150154188654,-3,-5,-18,-9,0,7,1,0
1523150154203696,1,-1,-5,3,-8,-4,-3,-2
1523150154203696,-2,-2,2,2,0,-3,-2,-2
1523150154203696,0,0,-7,0,3,-2,-2,-2
1523150154203696,0,-1,-8,4,-1,-1,0,-2
1523150154226754,-3,-1,14,18,0,-4,-2,0
1523150154226754,-3,-1,-2,-19,2,0,0,-1
1523150154226754,-1,-3,-19,-3,-7,2,0,1
1523150154226754,-1,0,13,21,1,0,1,0
1523150154239790,-2,-3,-3,-11,1,3,0,-2
1523150154239790,-1,0,0,7,-5,-5,-2,-3
1523150154248812,-2,-2,-5,-20,-6,-5,-4,-3
1523150154248812,-2,-2,6,4,4,0,0,-1
1523150154262853,-1,-1,2,-3,-3,-1,-2,0
1523150154262853,-1,-1,1,2,1,-1,-3,-1
1523150154263855,0,0,2,-3,-5,-2,0,-2
1523150154263855,-2,-3,-10,3,1,3,-1,3
1523150154285913,0,0,-15,-4,-2,2,2,0
1523150154285913,0,0,20,13,3,4,0,2
1523150154286916,-3,-4,-19,-12,0,-3,-2,-1
1523150154286916,-1,1,22,-23,0,-6,-3,-2
1523150154299950,-1,-1,-3,6,-1,-4,-3,-2
1523150154299950,0,0,-8,-10,-3,7,5,3
1523150154307971,0,1,2,3,-2,-1,-1,0
1523150154307971,1,-1,5,24,-1,-2,0,0
1523150154331036,-1,-4,-10,-15,0,-5,-4,-2
1523150154331036,-1,-1,-6,-10,-9,-8,-5,-5
1523150154332034,-2,1,3,2,3,3,3,2
1523150154332034,0,1,1,4,0,0,-1,0
1523150154346072,-2,-1,4,7,-2,-1,-1,-1
1523150154346072,-2,-2,-10,-13,-4,-3,-3,-1
1523150154347076,0,-2,5,7,-1,1,-1,-2
1523150154347076,0,0,-8,-8,4,2,2,0
1523150154360115,-2,-2,-7,0,3,3,2,-2
1523150154360115,0,1,1,-1,-1,-4,0,-1
1523150154368136,0,0,7,-8,-9,-2,-2,-2
1523150154368136,-3,-4,-7,-2,-6,-3,-3,-3
1523150154383174,-2,-3,-3,-6,2,-2,-2,-1
1523150154383174,-1,-1,7,8,6,0,0,1
1523150154384175,-1,-1,-4,-1,2,-2,-1,-2
1523150154384175,0,2,1,12,0,-3,-1,-1
1523150154406232,0,-2,10,-33,-5,-4,-1,-1
1523150154406232,-1,-1,-1,4,-4,-4,-2,-1
1523150154407235,0,-1,-9,-5,2,0,2,1
1523150154407235,0,1,10,6,-1,0,0,0
1523150154420270,2,-1,-11,5,-1,-2,-1,0
1523150154420270,0,0,0,-2,5,0,0,0
1523150154428291,-3,-2,7,3,-3,-1,2,-2
1523150154428291,-2,-1,-14,-8,3,0,0,-1
1523150154443333,0,1,14,8,-2,1,0,0
1523150154443333,-1,-1,-13,-6,-2,-2,-2,0
1523150154444338,0,-1,2,-2,-1,0,-2,-1
1523150154444338,0,1,7,3,2,-4,-1,-4
1523150154466394,-3,-1,4,3,1,-1,-2,-3
1523150154466394,-1,-2,0,7,-11,0,1,0
1523150154467395,0,0,1,-26,2,-4,-2,1
1523150154467395,-3,-2,3,-3,4,1,0,-1
1523150154480430,0,1,11,12,4,2,2,0
1523150154480430,-2,-4,-24,-6,-1,-1,-1,-1
1523150154488453,-1,0,1,14,-3,-2,-2,0
1523150154488453,0,0,4,-5,-7,-3,-2,0
1523150154503496,1,-1,-12,-5,-3,-2,0,-2
1523150154503496,0,1,2,4,5,3,0,-2
1523150154503496,0,-3,0,4,-5,0,1,0
1523150154503496,-1,0,11,-4,1,3,-1,-2
1523150154526555,-1,0,-5,8,0,6,0,2
1523150154526555,-2,-4,-9,-33,-7,-4,-3,-3
1523150154527557,-2,-2,-7,1,-3,-5,-3,-3
1523150154527557,-1,-2,7,13,-5,-2,-3,1
1523150154548611,0,0,-2,20,6,-2,-1,1
1523150154548611,0,-1,-1,-15,-4,-1,0,0
1523150154549615,-3,-2,-4,-7,-4,-4,-2,1
1523150154549615,-1,-1,-1,2,-3,2,2,0
1523150154562649,1,-1,3,7,1,-1,0,0
1523150154562649,0,1,0,10,4,-1,0,-2
1523150154563652,-1,-2,-4,-8,-1,-3,-3,-2
1523150154563652,-3,-5,-16,3,-3,-3,-1,-3
1523150154586719,-2,2,20,-7,1,1,0,0
1523150154586719,-1,-4,-19,0,-1,0,-2,1
1523150154586719,0,-2,1,0,-2,0,-2,0
1523150154586719,-1,0,4,-1,-1,-2,0,0
1523150154608771,0,-1,4,-1,2,-2,-2,0
1523150154608771,-1,-1,0,-3,-10,-4,-2,-2
1523150154609773,1,3,7,16,4,2,1,0
1523150154609773,-1,-1,-8,-2,5,1,0,-2
1523150154622819,-2,-1,-10,-7,-6,-1,-1,0
1523150154622819,1,1,6,13,-3,1,1,0
1523150154623814,-2,-3,6,-12,-4,-3,-1,-5
1523150154623814,-2,0,-3,1,-5,-4,-4,-2
1523150154645874,-1,-2,-1,3,4,-3,-1,-2
1523150154645874,-1,-1,-9,10,2,1,-1,1
1523150154646874,0,-1,22,-1,4,3,1,0
1523150154646874,1,-1,8,-1,2,4,2,1
1523150154668933,-2,-4,-13,-13,-3,0,0,-1
1523150154668933,0,-2,13,-11,-1,-3,-1,1
1523150154669936,0,0,-27,-3,-5,3,-1,-2
1523150154669936,-1,-1,9,1,0,-5,-3,-1
1523150154682969,-2,0,-5,8,-6,-9,-6,-2
1523150154682969,-3,-1,2,-22,-3,-6,-1,-3
1523150154683972,-2,0,2,25,11,9,3,2
1523150154683972,1,0,-8,-24,-2,5,3,2
1523150154706042,-2,-3,-7,-11,-5,-1,1,-2
1523150154706042,1,0,-4,-10,-5,-5,-4,0
1523150154707037,-2,-1,-6,3,-9,-8,-5,-3
1523150154707037,0,-1,4,1,-2,-3,-5,0
1523150154729094,0,-1,-9,0,5,3,-2,-3
1523150154729094,-1,-2,2,2,-3,4,1,-1
1523150154730094,0,-1,-4,-5,1,0,1,0
1523150154730094,1,0,-8,1,1,2,0,-1
1523150154743129,0,-1,1,0,-3,-3,-3,-1
1523150154743129,-4,-4,-7,-4,-4,-3,-2,-3
1523150154744132,-3,-2,-15,2,2,-1,-1,0
1523150154744132,1,0,-6,-2,-5,-5,-2,-1
1523150154766189,-2,-2,19,14,6,-1,-4,-2
1523150154766189,1,1,7,-14,-5,2,1,1
1523150154767193,-1,-2,-9,-2,8,2,1,-1
1523150154767193,-2,-1,-10,-1,-12,0,-1,-1
1523150154789259,1,0,2,-7,-5,-2,-1,1
1523150154789259,-2,-3,-22,12,3,0,-3,-3
1523150154789259,-1,1,12,-3,-1,-3,-1,-1
1523150154789259,-1,-2,2,5,4,1,0,-1
1523150154803290,0,2,-2,7,0,1,0,-1
1523150154803290,0,-2,-4,-9,-3,-2,-2,-1
1523150154804296,1,-1,-2,-13,-9,-4,-2,1
1523150154804296,-1,1,-3,5,5,0,1,1
1523150154826351,-2,-2,-15,-8,-5,-2,0,-2
1523150154826351,0,1,9,16,12,-1,0,-2
1523150154827353,-1,-1,-5,-3,2,3,-1,-1
1523150154827353,-1,0,6,7,-6,-3,-1,-2
1523150154849412,-1,1,-3,-8,-2,1,4,1
1523150154849412,-2,-1,-5,3,1,0,-1,-1
1523150154849412,-2,-2,8,3,0,-3,-1,1
1523150154849412,-1,-3,-16,-26,-3,-4,-1,-1
1523150154863451,0,-3,3,-1,1,-2,-1,-2
1523150154863451,-1,-2,8,18,-4,6,1,0
1523150154864456,-1,-2,5,-30,-13,-5,-1,-2
1523150154864456,-1,1,-2,26,15,6,1,0
1523150154886514,-1,-4,-26,-49,-10,-2,-3,-1
1523150154886514,-1,1,18,9,0,-5,-2,-1
1523150154887516,-1,1,3,17,2,-2,0,-2
1523150154887516,-1,0,3,4,0,-3,-1,-2
1523150154908577,-1,0,2,0,2,4,0,0
1523150154908577,-1,-3,-16,-2,-4,-1,-2,0
1523150154909572,-1,0,19,-6,-3,-1,-2,-1
1523150154909572,-1,-1,9,-4,-3,-4,-2,0
1523150154923608,-1,0,1,17,5,4,1,1
1523150154923608,0,0,10,-4,0,-1,0,-2
1523150154923608,0,-1,-10,7,-2,-3,-3,0
1523150154923608,-1,-1,-6,-15,-7,-2,-2,-1
1523150154946673,-1,-1,7,7,-4,-5,-2,-2
1523150154946673,-2,0,-5,-3,3,-3,0,0
1523150154946673,0,-1,-9,8,4,4,2,0
1523150154946673,0,-2,-17,-7,1,2,0,1
1523150154968729,-1,3,23,10,-5,-3,-2,-1
1523150154968729,-3,-7,-35,-25,-1,0,-1,-3
1523150154969736,1,0,5,11,3,-4,-2,-2
1523150154969736,1,-2,2,3,-1,1,-1,1
1523150154983779,-1,-1,2,3,-10,-4,-1,-2
1523150154983779,-1,0,5,11,1,-3,-3,-1
1523150154983779,-3,-3,-4,-24,-3,-3,-2,-2
1523150154983779,0,-1,-9,-5,-2,1,2,1
1523150155006831,0,-1,7,14,5,4,2,0
1523150155006831,-1,1,7,-5,6,1,-1,0
1523150155006831,-3,-4,-22,-8,-9,-4,-3,-2
1523150155006831,0,0,13,5,-1,-5,-5,-3
1523150155028890,-1,-2,-9,2,-1,1,1,0
1523150155028890,0,0,4,0,-3,0,1,1
1523150155029893,0,1,-8,-3,2,-1,-2,0
1523150155029893,-2,-2,4,-1,5,-3,-1,-2
1523150155042928,-1,2,1,-5,-4,1,-1,-1
1523150155042928,0,-4,-11,1,-8,-4,-1,-1
1523150155043929,0,-1,-3,3,1,-3,-3,0
1523150155043929,-2,-1,6,10,0,-3,-1,-2
1523150155065991,-2,-1,-15,-21,-2,-6,-4,-3
1523150155065991,-2,0,9,9,-1,2,3,0
1523150155066990,-1,2,14,23,2,5,4,2
1523150155066990,-2,-5,-18,-43,-5,-3,-2,-1
1523150155089050,0,-2,3,0,5,0,-1,-1
1523150155089050,-1,-2,3,-2,-5,-4,-5,-2
1523150155090051,0,-2,-6,5,-1,0,0,-1
1523150155090051,0,2,14,6,0,-2,-1,-2
1523150155103094,0,-3,-13,3,0,-2,-3,-2
1523150155103094,-1,-1,-1,-14,-5,-1,0,-1
1523150155104090,-2,-3,-3,-5,1,0,0,-1
1523150155104090,-1,1,-3,3,-5,2,-1,1
1523150155126148,-2,-2,1,-1,-2,-4,-2,-2
1523150155126148,1,0,9,9,6,0,-1,-1
1523150155127152,-1,-3,-16,-3,-4,-3,-2,-1
1523150155127152,0,0,6,8,-3,-1,1,-2
1523150155149208,-2,-1,-12,-16,1,-2,1,0
1523150155149208,-1,1,15,17,1,1,1,0
1523150155149208,-2,-1,0,-8,3,2,0,-1
1523150155149208,-2,-3,-1,8,-3,-2,-4,-1
1523150155162244,0,0,-8,14,-1,1,1,0
1523150155162244,-1,-2,-5,-27,7,4,1,-1
1523150155170269,-2,-1,3,-23,-12,-5,-3,-2
1523150155170269,-1,-1,-21,6,0,-3,-1,-1
1523150155194328,0,0,25,4,2,2,1,0
1523150155194328,0,-1,-8,5,-4,-2,1,-1
1523150155194328,0,2,14,6,-1,-4,-4,-2
1523150155194328,1,-2,-9,1,3,-2,-3,-1
1523150155209369,-1,-3,-7,-8,-3,-1,-1,0
1523150155209369,-2,-1,-2,-9,0,1,-2,-2
1523150155209369,0,0,3,-5,1,-3,-2,-2
1523150155209369,-1,0,7,0,-5,-3,-2,-3
1523150155222406,-2,-1,6,7,-4,-2,4,1
1523150155222406,-1,-2,-2,19,3,1,1,0
1523150155230425,0,1,-16,-12,-1,2,1,-1
1523150155230425,-2,-1,6,-10,-2,-2,-1,-2
1523150155246471,0,0,-3,-4,-4,-1,-2,-3
1523150155246471,-1,-1,-4,-2,-10,-9,-5,-3
1523150155247476,-1,0,19,10,6,3,-1,-1
1523150155247476,1,-1,-5,3,8,8,6,3
1523150155268528,-2,-1,-5,-5,-1,1,0,-1
1523150155268528,0,0,0,1,0,-1,-3,-3
1523150155269530,-1,-2,7,1,-8,-8,-4,-4
1523150155269530,-1,-1,-11,-5,5,-5,-4,-3
1523150155282565,-2,-2,-10,5,-11,2,1,1
1523150155282565,-2,-3,-9,-34,-3,1,2,-2
1523150155290591,-3,-2,-11,10,2,0,2,1
1523150155290591,-1,-1,3,5,0,0,-1,-1
1523150155306629,2,0,-3,6,2,-4,-2,-2
1523150155306629,0,1,0,7,4,1,0,1
1523150155307630,1,0,7,1,0,-3,0,0
1523150155307630,-2,-4,-26,-11,-8,-5,-4,-2
1523150155328690,1,1,19,4,-8,-3,-3,-3
1523150155328690,-3,-2,-17,-16,-4,-1,1,0
1523150155329692,0,0,1,8,5,2,2,-1
1523150155329692,-1,1,12,7,2,1,1,1
1523150155342724,-1,-1,-10,11,6,1,-1,0
1523150155342724,-1,-2,4,-2,-2,-3,-2,-3
1523150155350746,-1,-4,-15,-17,-13,-4,-3,0
1523150155350746,-1,1,11,4,-3,-5,-4,-3
1523150155366788,-2,-2,-6,-1,6,5,3,-1
1523150155366788,0,1,26,22,2,7,2,1
1523150155366788,-2,1,1,-1,-2,0,-1,-1
1523150155366788,-3,-2,-1,-11,-8,-1,0,-2
1523150155388848,1,0,-6,-12,0,-6,-3,-3
1523150155388848,-1,-1,-4,2,1,0,-1,-1
1523150155389850,2,-2,-15,5,9,4,0,0
1523150155389850,0,2,30,-10,-15,1,1,-1
1523150155402895,0,-2,1,-6,0,-1,-2,-1
1523150155402895,-2,-4,-9,19,0,-2,-2,-1
1523150155410906,0,-1,-13,-25,-4,-2,-1,-1
1523150155410906,-1,-1,3,9,12,4,0,1
1523150155425948,-1,-2,-13,-5,-8,-4,-2,-1
1523150155425948,0,1,8,4,-1,-3,-4,-1
1523150155426948,-2,-1,5,4,0,1,1,-1
1523150155426948,-1,-2,-4,2,-1,0,-1,0
1523150155449008,0,0,5,-2,-3,-5,-1,-1
1523150155449008,-2,0,-5,-1,2,-2,-2,0
1523150155450012,0,-1,0,-2,-7,-2,-3,-2
1523150155450012,0,1,-10,14,-3,-1,0,-1
1523150155471069,-3,0,23,-7,3,4,0,0
1523150155471069,-1,-1,-6,8,3,-1,-1,-1
1523150155472069,0,0,3,-6,10,6,3,2
1523150155472069,0,-2,-9,0,-13,0,-1,-1
1523150155486109,1,-1,6,-2,-5,-3,-4,-2
1523150155486109,-2,-5,-29,-4,-6,-4,-2,-3
1523150155487112,-2,0,10,3,-5,-5,-3,-2
1523150155487112,-1,0,2,-5,9,1,0,0
1523150155509168,-1,-2,-17,-6,1,-1,0,2
1523150155509168,-1,0,13,-7,-2,-1,1,0
1523150155509168,-1,-1,-1,5,-7,1,-2,-1
1523150155509168,0,-2,-12,-5,-5,-5,-2,-2
1523150155531225,-1,1,6,13,4,0,-3,-2
1523150155531225,0,-2,-5,-11,1,4,3,-1
1523150155532228,-2,-3,-15,9,0,-1,0,-2
1523150155532228,0,1,-2,-5,0,0,0,0
1523150155546264,0,-2,11,-4,-5,-4,-2,-3
1523150155546264,0,1,0,-12,-8,-7,-3,-2
1523150155546264,-1,1,-2,11,7,-1,-2,-1
1523150155546264,0,-1,-9,-9,7,8,3,0
1523150155568326,1,0,-28,-8,-12,-2,0,0
1523150155568326,-2,-3,6,-23,-3,-2,-3,-1
1523150155569327,0,0,4,6,-3,-5,-3,-3
1523150155569327,-1,1,8,4,1,-6,-4,-2
1523150155591389,-3,-1,-4,6,6,2,1,-1
1523150155591389,-1,0,6,-1,-2,-1,-2,-1
1523150155592391,-1,-3,-3,-2,-4,-2,-1,-2
1523150155592391,-1,-2,-1,-1,6,0,-1,0
1523150155605423,0,-2,-2,-12,-10,0,-2,-1
1523150155605423,-2,1,18,11,5,2,0,0
1523150155614446,0,0,3,-3,-4,-3,-2,0
1523150155614446,-1,-1,-3,3,-5,-4,-2,-4
1523150155628488,0,1,15,9,8,5,4,0
1523150155628488,-2,-2,-27,-19,-2,-1,0,1
1523150155629487,-2,1,8,7,0,-1,-2,-2
1523150155629487,-3,-2,2,-11,-16,-4,-3,-2
1523150155651545,-2,-1,0,21,6,-5,-4,-2
1523150155651545,0,-2,1,0,1,-1,-1,-2
1523150155652552,-1,-2,-3,-6,-1,-1,1,-1
1523150155652552,-2,1,-3,-6,2,-3,-2,-2
1523150155665583,-1,-2,-18,-13,-1,1,0,0
1523150155665583,0,1,9,17,-3,-2,-1,-2
1523150155666585,-1,-2,6,-19,4,3,1,0
1523150155666585,1,-2,1,-22,-3,-1,-1,-1
1523150155688644,-2,-3,-18,-15,-2,-2,-1,-1
1523150155688644,-1,1,2,9,-2,-2,-4,-2
1523150155689647,-3,0,-14,4,-2,-5,-4,-1
1523150155689647,0,-2,10,13,-4,1,-1,-1
1523150155711720,0,1,10,-10,11,7,3,1
1523150155711720,-1,-3,-20,3,-1,-1,-2,-2
1523150155712709,-2,-2,-7,4,-3,-3,-1,1
1523150155712709,0,-1,-1,-4,-1,-3,-2,-2
1523150155724742,-1,-1,3,5,-1,-6,-2,-1
1523150155724742,-1,0,-2,3,3,-1,-2,-1
1523150155733766,-1,1,12,-2,-4,0,0,0
1523150155733766,-1,-1,-17,-1,0,2,1,1
1523150155749808,1,-2,5,8,1,-2,0,-1
1523150155749808,0,0,-2,-20,0,-1,0,-2
1523150155750809,0,-1,-3,-1,0,-1,-1,-3
1523150155750809,-2,-3,-2,-6,-1,-1,-2,-1
1523150155771867,-2,-2,-6,0,-2,-1,-1,-1
1523150155771867,-3,0,10,11,-2,-3,-2,0
1523150155773871,0,1,4,8,-3,-2,-1,-1
1523150155773871,-2,-1,-18,1,1,-1,2,-1
1523150155784902,0,1,21,1,3,3,1,1
1523150155784902,0,-2,10,-4,4,3,0,0
1523150155793926,0,-3,-10,-5,-3,-3,-2,-1
1523150155793926,0,1,3,23,3,-2,-2,-1
1523150155808965,-2,-2,-13,-16,-7,-4,-3,-3
1523150155808965,1,1,5,3,-5,-3,-2,0
1523150155810971,-1,-5,-17,10,-1,-1,-4,-1
1523150155810971,-1,-1,21,-11,1,-1,-3,-1
1523150155831025,-2,-1,-11,1,-8,-4,-4,0
1523150155831025,0,0,19,-5,-8,0,0,-1
1523150155833030,-1,-3,-23,-4,1,-1,-1,-1
1523150155833030,-2,-4,-9,-1,4,0,1,1
1523150155845062,-1,-1,18,-1,1,1,0,-1
1523150155845062,-1,-1,-6,12,3,-1,-3,-1
1523150155854085,-1,1,-4,-6,-1,2,2,1
1523150155854085,-2,0,1,-14,-9,-6,-1,-2
1523150155869127,-1,0,4,16,-3,-4,-2,-1
1523150155869127,0,0,-18,-15,7,-1,1,-1
1523150155871131,0,1,13,6,0,2,0,-1
1523150155871131,-2,0,18,1,3,3,1,1
1523150155891188,-1,0,-10,-5,-4,-4,-2,-2
1523150155891188,0,-1,10,14,2,0,-1,-2
1523150155893193,1,0,-2,-6,-2,-3,-2,-2
1523150155893193,0,-1,-14,-5,1,1,0,0
1523150155905230,-1,-1,4,5,-1,-2,-3,0
1523150155905230,-1,-2,4,0,-6,-1,0,1
1523150155914246,-2,-3,-18,-9,-2,-2,-1,-2
1523150155914246,0,-3,5,-8,-1,-1,-1,-3
1523150155929285,-1,1,-1,-10,-5,-2,-3,-3
1523150155929285,-2,-3,-15,2,3,0,0,-1
1523150155930289,-1,0,32,10,0,0,-3,-1
1523150155930289,1,2,-4,6,-3,-5,-2,-2
1523150155951345,-1,-4,-17,-9,2,0,0,0
1523150155951345,-1,-1,-5,-1,-5,1,-2,-1
1523150155953352,0,2,1,0,4,5,2,1
1523150155953352,0,-1,18,23,1,-1,-2,0
1523150155965381,-3,-4,-12,-63,-6,-1,-2,-2
1523150155965381,-1,-2,-1,21,4,-2,-1,-3
1523150155974405,-2,-3,-9,0,-7,-3,-2,-2
1523150155974405,0,1,3,12,-8,0,-1,1
1523150155988444,1,-1,-6,-5,-3,-1,-1,0
1523150155988444,-2,0,12,3,-2,-3,0,-1
1523150155990449,-1,-1,-1,-5,5,-2,0,-2
1523150155990449,-1,-1,-13,1,4,0,-2,0
1523150156011504,1,-1,-2,15,0,0,1,0
1523150156011504,0,-1,-1,-11,0,-1,0,0
1523150156012510,-1,-1,10,4,-3,-1,-4,-1
1523150156012510,0,-3,-7,-7,-2,-3,-1,-3
1523150156024539,-1,-1,-12,4,-1,-4,-4,-1
1523150156024539,3,2,7,-4,1,-4,-2,-1
1523150156033565,-1,-3,-14,0,6,5,1,0
1523150156033565,-2,-2,-8,-14,0,2,4,2
1523150156048605,-1,1,1,14,-2,-1,0,-1
1523150156048605,0,-3,4,0,1,2,-1,0
1523150156050606,-1,-2,3,-6,-11,-5,-3,-1
1523150156050606,-2,-1,-3,3,0,-3,-4,-1
1523150156071664,-2,-2,-11,2,4,0,1,-2
1523150156071664,0,-2,-10,-4,-8,1,-1,0
1523150156072666,-1,1,26,2,3,-1,-1,-1
1523150156072666,0,0,2,5,6,2,0,-1
1523150156084699,1,-1,-8,7,-3,3,1,2
1523150156084699,-2,-3,17,-4,4,0,-1,-2
1523150156093725,-1,-1,-13,-7,0,1,1,-1
1523150156093725,-2,-3,-4,-19,-10,-7,-4,-3
1523150156108763,-2,0,13,-4,6,-4,-3,-1
1523150156108763,0,2,-11,4,-1,-1,0,0
1523150156110770,-1,-3,-9,7,-1,1,2,1
1523150156110770,0,4,23,3,-1,0,-1,-1
1523150156131827,-2,-5,-13,-4,-2,-2,-3,-2
1523150156131827,-2,1,-3,-7,-3,-2,-2,1
1523150156132826,-2,2,12,11,5,-3,-3,-1
1523150156132826,0,-1,-13,-16,-3,2,1,1
1523150156144863,0,-1,16,8,1,2,1,0
1523150156144863,-2,-1,-8,-9,-3,-2,0,-3
1523150156153887,1,1,10,-4,-2,-2,-1,-1
1523150156153887,1,-3,-8,6,4,1,-2,-1
1523150156168924,0,1,-10,8,1,-1,-1,-3
1523150156168924,-1,-1,13,-9,-6,-2,-1,-2
1523150156170928,0,0,-6,-5,-1,2,-2,-2
1523150156170928,-2,-2,1,2,-5,-3,0,-2
1523150156190983,-2,-1,3,7,1,1,1,-1
1523150156190983,0,1,-8,-12,-2,-3,0,0
1523150156192988,-1,0,1,9,-3,0,-2,0
1523150156192988,-2,-6,-32,-27,-1,-1,-2,-2
1523150156205018,-1,-2,24,9,-4,-4,-1,-2
1523150156205018,-1,-1,-5,19,1,-1,-2,-2
1523150156214043,-2,-2,5,-1,2,-5,-1,-1
1523150156214043,-1,-4,-7,-43,-5,-1,-3,-2
1523150156229086,0,1,-3,1,2,2,1,2
1523150156229086,-1,-3,-3,8,-3,-3,-2,-2
1523150156230084,2,-1,-17,0,2,0,-1,-2
1523150156230084,1,3,31,22,0,-4,-3,-1
1523150156251143,-1,-2,6,-20,-10,-6,-6,-2
1523150156251143,-1,0,-3,-6,-2,-3,-3,-1
1523150156253149,0,0,1,2,6,4,3,0
1523150156253149,0,0,-10,-2,4,3,3,1
1523150156265179,0,1,10,7,2,6,0,-1
1523150156265179,-1,-2,-18,-2,-4,-5,-2,0
1523150156274203,-2,-1,11,-16,-11,-6,-5,-3
1523150156274203,0,-3,-20,10,-8,-1,-1,1
1523150156289242,-2,1,7,5,5,1,-1,-1
1523150156289242,1,-1,-12,6,12,3,2,-1
1523150156290245,-2,-2,-8,-13,-8,-1,0,0
1523150156290245,0,1,13,12,-1,-3,-1,-2
1523150156311302,0,-1,-13,-3,-2,0,-4,-3
1523150156311302,-1,-3,2,-9,0,2,0,0
1523150156313309,-1,-1,-7,-6,-3,-4,-2,-1
1523150156313309,-1,0,2,13,2,-4,-1,-2
1523150156325345,2,1,27,10,3,-1,1,-1
1523150156325345,-1,0,-3,-25,-3,0,0,-1
1523150156334367,-3,-3,-27,-25,-4,2,-2,0
1523150156334367,-1,-1,16,17,7,3,-1,-1
1523150156348402,0,-2,-19,-11,-3,-5,-2,0
1523150156348402,-1,-1,7,15,-1,0,0,-1
1523150156350407,1,0,12,10,0,-3,1,0
1523150156350407,-1,-2,-17,-8,1,1,0,0
1523150156371461,0,-1,-16,6,-2,-1,-1,-1
1523150156371461,0,0,35,-1,-6,-4,-3,-3
1523150156377479,-3,-3,-16,-2,-8,-3,-1,-1
1523150156377479,-1,1,3,17,0,0,3,-2
1523150156384498,-2,-2,-8,-24,1,0,-1,0
1523150156384498,0,-1,-21,1,-3,-6,-3,-2
1523150156393523,1,-1,26,13,6,-1,-2,-2
1523150156393523,-2,-2,-6,-4,-8,-1,0,-1
1523150156408561,-1,0,4,8,3,1,0,0
1523150156408561,-2,-1,-5,-6,1,-1,-2,0
1523150156410566,-1,-1,-4,-16,-11,-2,2,0
1523150156410566,-1,-1,-10,9,2,3,-1,-1
1523150156431630,-1,-4,-1,-10,-6,-3,-3,-3
1523150156431630,-2,-1,-5,5,-1,-1,-1,-1
1523150156432639,0,2,6,11,-2,-3,-1,-1
1523150156432639,-2,-1,10,-3,2,-1,-3,-1
1523150156453681,-1,-4,-16,-7,-10,-1,-2,-1
1523150156453681,-1,-1,7,8,2,0,1,0
1523150156455687,-1,0,-9,2,2,-1,-3,-2
1523150156455687,0,0,7,-7,5,-2,-2,-1
1523150156468724,0,1,-3,2,0,2,1,-1
1523150156468724,-1,-2,-16,-11,-5,0,0,-2
1523150156470726,0,-3,-9,-3,0,0,2,0
1523150156470726,0,0,7,0,0,-4,-4,-1
1523150156491781,-1,-3,-9,3,-2,-4,-3,-2
1523150156491781,0,0,16,12,-2,-1,-3,0
1523150156492785,-2,0,-3,-6,5,4,1,1
1523150156492785,-1,-2,-10,-12,-2,2,-1,0
1523150156513842,-1,1,8,22,-2,-1,1,-1
1523150156513842,-1,-1,-22,-26,-5,0,-2,-2
1523150156515849,0,0,30,13,3,-3,-3,-3
1523150156515849,0,2,17,6,0,2,2,-1
1523150156528883,-3,-7,-27,-9,0,0,-2,-1
1523150156528883,1,0,8,14,-1,-2,-2,-1
1523150156530888,-1,-2,-18,3,3,-2,-1,-2
1523150156530888,-1,-2,-10,-54,-12,-3,-3,0
1523150156550940,1,2,5,2,-8,-1,0,0
1523150156550940,-4,-5,-21,-2,-2,-5,-3,-2
1523150156552952,0,-1,8,12,0,1,1,0
1523150156552952,0,0,-9,3,3,1,-1,-1
1523150156581028,0,0,2,-10,3,-3,-2,-1
1523150156581028,-1,-2,-14,-5,-4,1,2,3
1523150156583024,-1,0,16,-9,-2,1,-3,-1
1523150156583024,-1,-1,0,13,-2,-2,0,-1
1523150156588040,-1,-1,2,-6,-3,-3,-1,-2
1523150156588040,-1,-1,-1,4,-1,-1,-2,-2
1523150156595065,-1,-2,-20,-3,1,-3,-1,-2
1523150156595065,0,-1,5,12,2,0,-1,-2
1523150156611102,-1,0,12,-1,0,-1,-2,-1
1523150156611102,-1,-1,2,8,-4,-1,0,-1
1523150156613106,-1,0,-1,-5,-1,3,2,1
1523150156613106,-2,-1,5,6,1,-1,0,-1
1523150156634162,-1,-1,-6,2,2,-1,-1,-1
1523150156634162,-2,-2,4,-14,-5,-4,-4,-2
1523150156636166,1,-1,4,-4,-4,-1,-2,-1
1523150156636166,-1,-3,-17,9,3,1,-1,0
1523150156648199,0,1,4,-6,0,-1,-1,-1
1523150156648199,-1,-1,1,-8,-1,-1,-1,-2
1523150156655218,-1,-2,-4,9,-8,-8,-4,-3
1523150156655218,-2,-4,-15,-34,-6,-6,-3,-4
1523150156671260,1,0,5,11,12,5,2,1
1523150156671260,3,1,0,2,-3,1,2,0
1523150156673265,-2,-4,-3,4,2,2,1,-1
1523150156673265,0,2,1,8,-3,-2,-4,0
1523150156694321,0,-2,-6,-7,-5,-4,-1,-2
1523150156694321,-2,2,15,-9,1,1,-3,-2
1523150156695324,-3,-1,-30,-12,-1,-4,-4,-1
1523150156695324,-1,-1,23,4,-2,0,1,1
1523150156708360,-1,-1,1,1,-3,-2,-1,0
1523150156708360,-2,-2,-4,9,7,2,0,1
1523150156715376,0,-1,14,8,-1,0,-2,-2
1523150156715376,-3,-3,-15,-30,-9,-3,-3,-2
1523150156731428,0,0,7,8,3,-2,-1,-1
1523150156731428,-1,-2,-2,16,1,-2,-2,0
1523150156732422,-3,-2,-17,-17,-9,-5,-3,-3
1523150156732422,-1,2,-6,-10,1,-4,-3,0
1523150156754488,0,0,4,1,2,1,1,1
1523150156754488,0,-1,-10,3,4,8,4,4
1523150156755490,-2,0,15,11,5,0,-2,1
1523150156755490,1,-2,-10,5,-10,-7,-3,-3
1523150156768524,-2,0,8,9,-5,-4,0,-1
1523150156768524,-2,-4,-26,-37,-7,-2,1,-1
1523150156775538,0,1,13,0,6,1,1,0
1523150156775538,0,0,8,22,2,1,1,-1
1523150156791581,-4,-1,-6,-1,-2,-3,-4,0
1523150156791581,0,0,-2,2,-1,-3,-2,-3
1523150156792581,-2,-1,0,-4,-6,-3,-1,0
1523150156792581,0,-1,-2,2,-2,-1,0,0
1523150156813640,1,2,9,-4,1,1,0,-1
1523150156813640,-1,-3,-10,0,2,-2,-2,-1
1523150156815645,-1,-3,-13,-8,0,-1,-2,-1
1523150156815645,-1,1,10,16,3,0,1,-1
1523150156828679,-3,-4,-13,-26,-1,-2,-1,0
1523150156828679,0,1,21,34,-4,-3,-4,-1
1523150156834698,0,-1,-13,-28,-1,1,2,1
1523150156834698,0,-3,4,-6,6,2,-2,1
1523150156858759,0,2,-1,11,-3,2,-1,1
1523150156858759,-2,-1,5,3,2,-8,-3,-2
1523150156860764,0,2,3,1,-5,-2,0,-1
1523150156860764,-3,0,-3,17,-2,-1,1,-3
1523150156873797,-3,-2,-2,-11,-1,-1,-2,-3
1523150156873797,-1,1,2,7,2,-1,-1,-3
1523150156875804,1,-1,2,-9,-3,2,1,1
1523150156875804,-1,-1,-4,-6,0,-3,-4,-1
1523150156887838,0,2,11,0,3,1,-1,-1
1523150156887838,-3,-7,-20,-1,-8,-2,-1,-2
1523150156896870,0,0,-5,3,-2,0,-1,-2
1523150156896870,-1,2,14,13,1,0,0,0
1523150156910898,-1,-2,-2,5,4,6,3,0
1523150156910898,0,-2,-3,-20,-3,-2,0,-1
1523150156912905,-1,-2,-6,4,-5,-3,-5,-2
1523150156912905,0,-4,-6,-12,-7,-5,-3,-1
1523150156933960,0,-2,-4,8,-8,-4,0,-1
1523150156933960,0,2,6,-20,5,4,2,0
1523150156935964,-3,-1,-3,9,5,0,-1,-3
1523150156935964,-1,0,4,3,-1,-4,-2,-2
1523150156946995,-2,-3,-12,-4,-5,-4,-2,-2
1523150156946995,-2,-1,5,2,2,1,-1,0
1523150156956018,1,-1,2,2,-3,2,0,1
1523150156956018,-3,0,2,-3,1,2,0,-1
1523150156971059,-3,-1,14,-2,-6,-5,-4,-3
1523150156971059,0,-2,-11,-14,0,-5,-2,0
1523150156973064,-1,-3,-12,-2,-3,-5,-2,-1
1523150156973064,1,1,3,31,-1,0,0,-1
1523150156994120,-1,-1,-15,-38,1,4,2,2
1523150156994120,0,1,21,4,7,4,2,0
1523150156996125,-2,-1,-14,-12,-7,-4,-2,-2
1523150156996125,-3,-1,-1,0,-2,-1,-2,-1
1523150157007154,-2,1,8,13,-1,-1,-1,-2
1523150157007154,-2,-1,-5,6,-4,-2,-2,-1
1523150157016177,-2,-2,-7,-4,4,1,1,0
1523150157016177,1,-2,-2,-9,0,-7,-3,-2
1523150157031218,0,0,0,-6,-1,-2,-2,-3
1523150157031218,-1,0,-6,4,-2,-2,-2,0
1523150157033223,2,2,8,24,-2,3,1,1
1523150157033223,-1,0,4,-21,-1,0,0,0
1523150157054279,-1,-5,-11,15,3,-2,-3,-1
1523150157054279,-1,0,1,-9,0,-2,-2,0
1523150157055282,0,-1,11,12,5,2,1,0
1523150157055282,1,1,2,-3,0,3,1,-1
1523150157067314,-2,-1,-6,-5,-3,-2,-3,-1
1523150157067314,-2,1,5,16,-8,-5,-4,-2
1523150157076339,-1,-1,-3,-11,0,-2,-1,-1
1523150157076339,0,0,5,14,8,5,3,1
1523150157091378,-2,-3,-19,-17,-5,1,-1,0
1523150157091378,-2,1,11,26,4,-1,-1,-1
1523150157093383,-1,1,-1,-27,-3,-4,-5,-2
1523150157093383,-2,-5,-15,5,-7,-5,-3,-2
1523150157113457,-1,0,10,14,-2,-4,-3,-1
1523150157113457,-1,0,2,8,12,6,3,1
1523150157115441,0,1,1,-7,11,5,2,0
1523150157115441,0,0,1,-12,-14,-1,-1,-1
1523150157127482,-1,-5,-21,-2,-4,-5,-2,0
1523150157127482,-1,-2,13,-8,-4,-1,-2,-3
1523150157136503,-2,-2,-3,3,0,0,1,0
1523150157136503,-1,-2,-1,-4,4,0,-2,0
1523150157151540,0,1,3,2,3,1,1,-2
1523150157151540,1,-1,4,-4,-3,-4,-3,-2
1523150157152543,-2,-4,-16,1,-2,-1,-2,-1
1523150157152543,-2,-3,-4,-28,-7,-2,-2,-2
1523150157173599,0,1,17,26,-1,-2,-1,-1
1523150157173599,-2,-6,-37,-29,-1,-2,-3,-1
1523150157175603,-2,-1,10,10,-12,-2,-2,-2
1523150157175603,-1,0,0,-2,6,-1,-1,1
1523150157187633,-1,-2,-21,-32,-5,0,1,-3
1523150157187633,1,0,21,-1,1,4,3,0
1523150157196658,-3,-4,-25,7,-4,-4,-3,-1
1523150157196658,-1,-3,-7,-4,-4,-4,-2,-3
1523150157211701,0,-1,18,5,0,0,0,0
1523150157211701,-1,1,-1,2,5,4,3,0
1523150157212700,-1,-1,6,-9,1,1,-1,-1
1523150157212700,-1,1,3,15,0,-1,-1,1
