timestamp,emg1,emg2,emg3,emg4,emg5,emg6,emg7,emg8
1523207194996130,4,-14,-8,-3,2,0,-3,1
1523207194996130,17,27,-1,22,16,12,5,26
1523207194998135,2,6,-41,-5,1,2,-1,-20
1523207194998135,1,4,30,7,7,0,-1,0
1523207194999138,3,15,9,-3,-4,0,2,6
1523207194999138,-9,-19,39,-8,-12,-8,-4,-8
1523207195000140,-1,-11,-64,-12,-6,-4,-1,5
1523207195000140,-1,-4,-5,6,-2,0,-1,2
1523207195008128,-3,1,8,-11,-1,0,-1,-6
1523207195008128,-2,1,11,14,1,-1,-3,-5
1523207195015180,0,5,28,1,2,0,-1,3
1523207195015180,-2,-4,-5,-9,-4,-2,-2,-6
1523207195027182,1,2,-7,4,3,-1,-1,2
1523207195027182,1,4,-19,-6,-4,-3,-1,-5
1523207195039450,-1,-2,19,6,-6,-5,-1,4
1523207195039450,0,1,-16,-9,8,3,0,-1
1523207195047232,-15,-27,-5,5,-5,4,1,-2
1523207195047232,3,0,-8,-22,-1,-4,-4,-4
1523207195062273,-36,-22,12,5,-2,-2,-2,-8
1523207195062273,11,15,13,-1,-13,-11,-5,-1
1523207195070305,7,9,0,-18,-2,-3,0,-2
1523207195070305,6,-7,-3,19,3,12,4,1
1523207195109911,0,14,16,-3,3,-2,-2,-1
1523207195109911,-2,-9,-55,-11,-11,-5,-2,-3
1523207195109911,1,-1,8,1,3,-1,-1,-1
1523207195109911,-8,-3,9,-2,-5,-10,-4,-3
1523207195113926,-3,1,-12,-11,-31,-12,-6,-2
1523207195113926,-8,-10,17,3,-18,-11,-3,-3
1523207195113926,6,9,-13,-1,16,11,3,0
1523207195113926,-5,-8,1,12,41,10,6,8
1523207195121210,11,7,6,12,13,14,-6,1
1523207195121210,-8,-3,0,3,27,15,13,-18
1523207195127960,-7,-1,3,-12,-45,-12,-5,-1
1523207195127960,10,7,4,-7,-8,-6,3,-1
1523207195135185,-5,-6,-14,-5,-21,-11,-6,4
1523207195135185,7,3,14,-4,-6,-10,-5,3
1523207195150017,0,2,-7,9,14,-1,-5,0
1523207195150017,-9,11,-10,-6,-12,-4,-2,-2
1523207195158316,0,-17,1,-1,7,0,6,-3
1523207195158316,5,9,2,3,5,2,-3,3
1523207195182151,-18,-19,-2,-2,8,0,-5,-6
1523207195182151,1,-12,-9,-4,-15,-1,3,0
1523207195182151,-2,-1,-4,2,2,-2,-4,-3
1523207195182151,0,5,16,0,9,5,3,4
1523207195196448,5,-1,5,-2,-8,-2,0,1
1523207195196448,1,0,-6,2,-4,-4,-18,-3
1523207195196448,-4,-3,-24,-10,8,7,4,-4
1523207195196448,-4,-2,9,0,-1,1,19,3
1523207195218388,3,4,5,2,1,-5,-2,-3
1523207195218388,4,-4,-9,-1,-5,0,-1,-3
1523207195219206,-4,-1,-4,1,0,-2,-5,-1
1523207195219206,-2,-1,-16,-2,-7,-2,-10,3
1523207195241536,-3,-2,5,1,-1,0,1,-2
1523207195241536,0,0,2,0,3,1,-3,-2
1523207195242266,0,-3,14,0,0,-1,1,0
1523207195242266,2,1,-1,-3,-2,-1,-3,0
1523207195256458,2,0,-7,-1,2,0,-3,1
1523207195256458,0,-3,5,-3,-2,0,1,-1
1523207195256458,-2,-4,-6,-2,1,-2,4,0
1523207195256458,-5,4,-4,-7,-11,-12,-11,-4
1523207195278358,-2,-4,-3,-8,-26,-16,-4,-4
1523207195278358,2,4,1,2,0,13,6,3
1523207195279361,0,0,5,18,69,28,-16,-3
1523207195279361,3,0,5,3,7,7,11,1
1523207195301567,0,-2,-4,-6,-10,7,-9,1
1523207195301567,-4,-4,-5,-13,-40,-37,13,-12
1523207195302425,-2,-3,3,-19,-73,-21,33,0
1523207195302425,1,-1,0,30,99,18,-12,2
1523207195324774,3,1,1,1,-6,23,11,4
1523207195324774,3,5,0,-2,12,10,-30,2
1523207195324774,-3,3,1,-6,-17,-9,-3,-2
1523207195324774,-3,-11,-4,-12,-41,-21,-31,-2
1523207195338859,-4,-4,-5,-5,8,-11,14,-4
1523207195338859,0,-3,0,1,-9,-5,1,-1
1523207195339520,0,3,1,5,17,4,0,0
1523207195339520,0,2,-1,1,3,9,1,-2
1523207195361927,2,0,-1,4,12,6,-8,1
1523207195361927,-2,2,-3,-3,-7,-1,2,-1
1523207195362582,-4,-8,-2,-7,-18,-31,-5,-4
1523207195362582,0,3,-6,-7,-37,4,-2,0
1523207195375833,0,1,14,13,53,17,10,0
1523207195375833,5,16,29,6,6,9,12,2
1523207195383638,5,13,-42,13,24,14,-7,5
1523207195383638,-15,-40,-7,-32,-35,-15,-4,-13
1523207195398966,-8,7,-4,-6,-20,-18,-4,-3
1523207195398966,1,-12,-9,-1,3,-1,-7,-3
1523207195398966,6,36,26,8,7,6,-4,1
1523207195398966,2,-9,0,1,-11,-5,5,2
1523207195421984,-1,-11,-14,-5,-2,-6,-2,-2
1523207195421984,-1,0,7,0,11,5,-4,1
1523207195422743,-3,-9,-7,-4,-8,-1,1,-1
1523207195422743,4,19,13,2,0,-2,7,0
1523207195435966,-2,-3,0,-4,-2,0,-7,-1
1523207195435966,0,3,-8,4,5,3,1,1
1523207195442794,-7,-21,-35,-7,-6,-5,-4,-5
1523207195442794,-6,-9,-6,-4,-3,-2,-2,-2
1523207195457834,4,6,26,5,7,-2,-2,3
1523207195457834,15,12,-5,-1,0,1,4,3
1523207195458836,-6,16,2,-1,0,1,1,0
1523207195458836,-17,-36,-9,-3,1,-3,-8,-10
1523207195481897,-3,-1,-8,-3,-12,-5,-1,-2
1523207195481897,-5,-13,-5,-2,-2,-2,2,-2
1523207195481897,11,13,16,0,2,3,-3,2
1523207195481897,10,20,28,9,3,4,5,8
1523207195495405,5,4,-42,-1,-4,-2,-2,0
1523207195495405,-10,-33,-18,-11,-1,-2,-4,-5
1523207195504141,-9,-19,50,-5,-5,-3,-7,-7
1523207195504141,3,15,-1,1,0,-1,9,2
1523207195519051,-1,-1,9,2,0,-3,-1,-1
1523207195519051,-1,13,11,4,-1,-1,-2,1
1523207195519051,-5,-14,-12,-3,0,2,0,-1
1523207195519051,5,6,-6,7,5,3,-1,1
1523207195542277,-4,-3,-3,-6,-4,-1,-1,-1
1523207195542277,1,-2,-11,0,0,-1,0,-4
1523207195542277,-2,-5,10,-2,-5,-2,0,-2
1523207195542277,2,8,-3,-1,1,0,0,1
1523207195555476,2,2,-5,1,-1,-1,0,0
1523207195555476,1,-2,-3,-4,-1,-1,-2,0
1523207195563495,6,-1,-1,0,1,-1,-17,0
1523207195563495,-9,11,-7,1,2,2,17,-2
1523207195578531,-15,-19,-2,-3,-6,-4,-8,-5
1523207195578531,0,4,8,0,-1,-3,-6,-2
1523207195579159,5,-1,-4,1,2,1,7,1
1523207195579159,4,3,-5,-2,-2,1,-29,5
1523207195601502,4,6,14,0,-2,-6,26,-5
1523207195601502,-4,7,35,7,3,2,-4,-1
1523207195602223,-8,-25,-71,-12,-3,-3,3,-3
1523207195602223,0,-2,6,0,-3,-1,-12,2
1523207195615520,0,-1,11,-1,0,0,-1,0
1523207195615520,5,8,20,1,-1,2,1,7
1523207195623275,-18,-15,-26,-2,-2,0,4,-7
1523207195623275,-1,0,5,-2,-2,-1,4,-12
1523207195638584,1,-1,-20,-2,-2,-2,-15,3
1523207195638584,-3,1,57,2,1,-1,8,-2
1523207195639321,2,-5,9,-1,-4,0,-6,7
1523207195639321,-16,-8,-20,-1,-1,2,27,10
1523207195661582,8,6,-2,1,0,-1,-4,-12
1523207195661582,-8,-2,-15,-2,-1,-4,-11,-4
1523207195662381,3,2,6,1,1,-1,3,1
1523207195662381,5,2,8,-2,-1,-2,-6,-3
1523207195684713,2,2,6,-1,0,2,5,5
1523207195684713,-6,-10,-38,-3,0,-3,-15,4
1523207195684713,4,14,19,0,0,0,-5,-12
1523207195684713,2,-2,-6,-2,-2,-4,4,-12
1523207195698724,-9,-3,1,-1,-4,0,-5,-25
1523207195698724,-2,-9,-15,-2,-2,-2,-7,0
1523207195699481,2,4,12,1,2,0,9,12
1523207195699481,4,1,14,-1,-1,-2,-3,4
1523207195721794,-1,-2,2,-4,-2,-2,-5,2
1523207195721794,-3,1,-7,2,-1,-2,9,-1
1523207195722542,1,-6,-6,-2,-1,-4,-4,-3
1523207195722542,4,-1,20,-1,-1,-1,3,3
1523207195743594,-1,-2,-4,1,0,-2,-6,6
1523207195743594,0,-8,-32,-6,-1,-1,-8,1
1523207195744597,-12,2,25,0,-1,1,11,-13
1523207195744597,-1,-6,-12,0,-4,-9,-21,-23
1523207195758844,1,8,5,1,-1,0,2,6
1523207195758844,-2,-2,-2,-3,0,-1,-2,0
1523207195758844,2,-4,-7,1,0,-1,-3,3
1523207195758844,2,-1,-5,-1,-1,0,3,5
1523207195781975,-1,-2,5,-2,-1,0,-1,3
1523207195781975,-1,5,-11,-1,-1,0,9,-1
1523207195782697,0,-6,3,0,-1,-1,-5,0
1523207195782697,2,2,-2,-1,-1,-1,1,2
1523207195804031,2,-2,-4,-1,0,0,4,33
1523207195804031,4,0,-3,-1,-1,0,0,-21
1523207195804762,-6,-2,4,-1,-2,-3,-9,-34
1523207195804762,-4,4,-4,-2,-3,-4,-5,12
1523207195819085,-2,-6,-5,-1,-1,-1,-1,-12
1523207195819085,-1,-1,0,-2,-1,0,7,11
1523207195819085,-6,-7,2,-1,0,0,0,17
1523207195819085,8,3,-8,-1,-1,1,-1,1
1523207195841855,-1,0,1,-1,-1,-2,8,2
1523207195841855,-4,-1,2,0,-1,-2,-4,-4
1523207195841855,4,3,1,0,-2,-1,-3,-3
1523207195841855,-3,1,-4,0,0,-1,-1,1
1523207195864199,-1,0,-2,0,2,1,-2,-6
1523207195864199,3,-3,-8,-2,0,-1,-3,3
1523207195865919,3,7,16,-1,0,1,1,6
1523207195865919,-3,1,8,-3,-1,1,-1,-4
1523207195878988,-1,-5,0,-2,-1,-1,-3,2
1523207195878988,-1,-1,-4,0,0,1,1,-5
1523207195878988,1,0,-2,0,0,-1,-2,5
1523207195878988,0,-2,-5,1,0,2,2,-1
1523207195901320,-3,2,-4,-1,-2,1,-7,-7
1523207195901320,-3,-2,7,1,0,0,2,1
1523207195902015,2,1,-5,0,-1,-1,0,0
1523207195902015,-1,-2,-4,-1,-2,-2,0,0
1523207195924387,-1,0,-2,-1,-1,-2,-3,-3
1523207195924387,-2,-2,-2,1,-2,1,2,-3
1523207195925078,2,2,-2,0,-2,-2,-2,3
1523207195925078,0,-3,-4,-1,-1,-1,-2,-2
1523207195938429,-1,-1,2,-1,0,-1,-2,-1
1523207195938429,-1,1,-2,-2,-2,-1,1,-1
1523207195939114,1,0,-3,0,0,-1,-4,0
1523207195939114,-2,-3,1,-2,0,-1,-1,-2
1523207195962305,0,-1,-1,-1,-1,-2,-1,-3
1523207195962305,-1,0,1,-2,-1,-2,-1,-2
1523207195962305,-2,-3,-12,-4,-2,-3,0,0
1523207195962305,0,0,9,-2,-2,-1,0,-3
1523207195984572,-2,0,-18,-1,0,-3,-1,-1
1523207195984572,-1,0,1,-1,-2,-3,-1,-3
1523207195985239,1,1,2,1,-1,1,1,2
1523207195985239,-2,-3,-8,0,1,-2,-1,-2
1523207195998570,-1,1,18,-1,-1,-1,-1,-3
1523207195998570,-4,-5,-32,-4,-1,-2,0,0
1523207195999273,1,-2,0,-3,-2,-1,-3,-1
1523207195999273,-5,-1,1,0,-3,-2,1,0
1523207196021641,0,-1,0,-2,-1,-1,-2,-1
1523207196021641,0,-1,4,1,-2,-2,0,-1
1523207196023339,-2,0,4,-1,-2,-3,0,1
1523207196023339,0,-3,-10,0,2,-3,-3,-1
1523207196044678,-1,-1,1,0,-2,-2,-2,-2
1523207196044678,-1,0,5,-1,0,-1,1,0
1523207196045398,-1,1,-4,-1,-1,-1,-1,-2
1523207196045398,-1,2,12,0,-3,-1,-1,-2
1523207196057732,0,1,-19,0,-2,-1,-1,-2
1523207196057732,-2,-3,6,-3,-1,0,-2,-1
1523207196066504,2,1,-1,1,-2,1,0,1
1523207196066504,0,-2,-5,0,0,-2,0,0
1523207196080798,0,-1,6,-2,-2,1,-1,0
1523207196080798,-1,0,-1,1,-2,0,-1,-2
1523207196089515,-3,-2,-1,-1,-1,-2,-3,0
1523207196089515,-2,-1,-3,-1,-2,0,-1,-1
1523207196104693,-1,0,1,-1,-1,-2,-3,-2
1523207196104693,-1,-1,4,-1,-2,-1,-1,0
1523207196105558,0,-3,0,-1,-1,1,0,-2
1523207196105558,-2,-1,-1,-2,0,0,-2,0
1523207196126611,-1,-1,0,0,0,-1,1,-3
1523207196126611,-1,-1,-2,-2,2,2,0,0
1523207196128622,-2,0,-1,-1,2,-1,0,0
1523207196128622,1,-2,-6,-2,1,1,-2,-1
1523207196140799,-2,-1,3,-2,-1,2,-1,-3
1523207196140799,1,1,2,1,0,0,-2,-2
1523207196148671,0,0,-2,-1,0,1,-1,-1
1523207196148671,0,-2,-1,-2,1,0,-2,-2
1523207196164055,-1,-2,-2,-1,-1,2,1,-1
1523207196164055,-3,0,7,-2,-1,-1,-1,-1
1523207196165716,-1,1,-1,-2,-3,0,0,1
1523207196165716,1,-1,0,-1,-1,1,-1,-1
1523207196187122,-2,0,3,-1,-1,-2,-1,0
1523207196187122,-1,-5,-9,0,-3,-3,0,-2
1523207196187776,-3,0,0,0,-2,-2,-2,-3
1523207196187776,-1,0,0,-2,-2,-2,0,0
1523207196208832,-1,-3,0,-2,-2,-2,-1,0
1523207196208832,1,0,1,-3,0,-2,-1,-1
1523207196210835,-1,-1,-1,-3,-1,-3,-2,0
1523207196210835,0,-2,-3,-1,-3,-3,-1,0
1523207196224173,0,-2,2,-1,-1,-3,-1,0
1523207196224173,-1,0,0,-2,-2,-4,-1,-1
1523207196225877,-1,-2,-2,-1,-1,-1,-1,-3
1523207196225877,-2,1,-2,-1,-2,-3,0,0
1523207196247275,0,-1,-2,-1,-2,-3,-2,0
1523207196247275,-1,0,3,-2,-2,-1,-1,-1
1523207196247937,0,0,2,-3,-1,-2,-1,-1
1523207196247937,-3,-3,-6,-2,-4,-2,1,-1
1523207196269293,-2,1,24,1,-1,-1,0,0
1523207196269293,-2,-6,-25,-3,-2,0,-1,0
1523207196270998,-1,1,2,-2,-1,-4,-1,-1
1523207196270998,-2,-3,-1,0,-1,-2,-2,-2
1523207196284337,0,0,1,0,-1,-2,-1,-2
1523207196284337,-1,1,-1,0,-1,-1,1,1
1523207196286048,-2,-4,1,-3,-2,-1,-1,0
1523207196286048,0,0,-1,0,-2,-2,0,-1
1523207196307272,-2,-2,-13,1,-3,-1,0,-3
1523207196307272,-1,1,7,0,-2,-1,-1,-2
1523207196308095,1,-2,-5,0,-2,-2,1,1
1523207196308095,-2,-1,4,-1,-1,-1,-1,-2
1523207196329451,-1,-1,-4,-2,-3,-3,-1,1
1523207196329451,0,-2,1,-1,0,-3,-1,-2
1523207196330153,-1,-1,2,1,-1,0,-1,0
1523207196330153,-1,-1,-6,-1,1,-1,-1,-2
1523207196343187,0,-2,-7,-2,0,2,-3,-2
1523207196343187,-2,-2,2,0,1,2,-1,-1
1523207196350479,-1,1,-7,1,2,2,0,-2
1523207196350479,0,-2,5,-2,1,1,-1,-1
1523207196367254,-2,0,-4,0,1,1,-1,-1
1523207196367254,1,1,1,-1,1,2,-1,-1
1523207196368256,0,-1,0,0,2,1,-1,-2
1523207196368256,-1,-2,-1,1,2,3,-1,-1
1523207196389635,0,0,2,-2,2,3,-1,-1
1523207196389635,0,-1,-2,-2,2,1,0,-1
1523207196390315,-2,0,0,0,3,3,0,-1
1523207196390315,-1,0,-2,0,2,3,1,-1
1523207196403703,0,0,3,-2,1,1,-2,-1
1523207196403703,-1,-4,-5,0,-2,1,-2,-1
1523207196410626,0,-2,-1,-3,-2,0,-2,-2
1523207196410626,0,-1,1,-2,-3,-2,-1,-2
1523207196426408,-1,-1,-6,-1,-3,-3,-1,1
1523207196426408,-1,-1,4,-2,-1,-4,0,-1
1523207196428416,-2,-1,-1,-1,-1,-4,-1,-1
1523207196428416,1,-2,-4,1,-3,-3,-2,0
1523207196449580,-2,-2,-11,-2,-3,-5,0,0
1523207196449580,0,0,-1,-1,-3,-3,0,0
1523207196450474,0,-2,-4,0,-2,-3,0,-1
1523207196450474,-2,0,-1,-2,-2,-5,-2,0
1523207196463802,-2,-1,-2,-1,-3,-3,-1,-1
1523207196463802,-1,1,1,-2,-3,-3,-1,0
1523207196470830,-1,0,1,-3,-4,-3,-2,0
1523207196470830,0,-1,-4,-1,-1,-1,-1,-2
1523207196486873,-2,-3,4,0,0,-2,0,-2
1523207196486873,-3,-1,-1,1,-2,-2,-1,-1
1523207196488574,-1,-2,-1,0,-1,-1,-1,-1
1523207196488574,-2,-1,0,0,-3,-2,-3,0
1523207196508628,0,-3,0,0,-1,-5,-1,-2
1523207196508628,0,0,2,-1,-1,-3,-1,-2
1523207196510633,-2,-3,-3,-1,-4,-2,0,-1
1523207196510633,1,0,0,-2,-3,-4,1,0
1523207196524014,0,-1,-3,-3,-3,-3,-1,-1
1523207196524014,2,0,-1,-1,-3,-3,-2,-1
1523207196530791,0,-1,-1,0,-1,-3,-2,-1
1523207196530791,-2,-1,3,-1,-2,-2,-1,-2
1523207196547073,0,-1,-3,-2,-1,-1,0,-1
1523207196547073,-2,0,1,-1,-2,-2,-2,0
1523207196547735,-1,-2,-4,1,0,0,0,0
1523207196547735,-1,0,4,1,-1,0,-2,0
1523207196570106,0,0,-1,0,0,1,-2,-1
1523207196570106,-3,-3,0,0,1,2,-1,-1
1523207196570792,0,0,3,-1,0,1,0,1
1523207196570792,0,1,2,0,0,1,-1,-1
1523207196584153,-4,-7,-11,-4,-1,0,-2,-2
1523207196584153,-1,0,-1,-1,-1,0,-2,-1
1523207196590159,-2,-1,-2,0,0,1,-1,-2
1523207196590159,-1,-1,0,-1,0,-1,-1,0
1523207196607189,-1,1,0,1,1,2,0,0
1523207196607189,-1,0,0,-1,3,3,0,-1
1523207196607892,2,-4,5,-1,2,2,-3,-3
1523207196607892,1,-5,-45,-3,5,5,0,-1
1523207196629187,-1,0,30,0,-1,4,-2,0
1523207196629187,0,-1,-4,1,1,1,-3,-3
1523207196630955,-1,2,-5,3,8,8,3,0
1523207196630955,-1,-1,6,1,3,6,1,0
1523207196644118,2,1,-5,-2,1,4,-1,-1
1523207196644118,0,-2,8,-5,-5,-1,0,-1
1523207196650267,-1,-4,-5,-4,-6,-6,-2,-1
1523207196650267,1,-1,2,-2,-5,-6,-1,-3
1523207196667329,0,-2,-8,1,-2,-2,2,1
1523207196667329,-2,0,0,-1,-5,-6,-1,-2
1523207196668051,-1,-1,-3,-3,-3,-4,-1,0
1523207196668051,-3,-1,4,-2,-4,-3,0,0
1523207196689383,-2,0,3,-2,-4,-7,-4,-3
1523207196689383,1,2,-1,0,-3,-4,4,0
1523207196690110,-2,-3,-5,-1,-1,-3,-6,-1
1523207196690110,1,2,29,5,-2,-1,4,-1
1523207196703346,-1,0,-20,-5,-5,-4,0,0
1523207196703346,-2,-4,0,-4,-1,-3,-4,-3
1523207196711508,-1,-3,-17,-1,3,3,2,0
1523207196711508,0,1,-8,1,1,1,-4,1
1523207196726206,-5,1,25,-5,-4,-5,7,-3
1523207196726206,-2,0,-7,1,-4,-6,-10,-2
1523207196728214,0,2,3,1,1,1,6,0
1523207196728214,-2,2,2,1,1,-2,-5,-1
1523207196749267,2,1,2,0,-3,-2,-3,-1
1523207196749267,2,2,-3,1,-3,-2,-20,-1
1523207196750316,-3,0,19,-10,-3,-1,22,2
1523207196750316,-5,-11,-64,-11,-8,-5,-44,-7
1523207196763304,-1,4,11,11,3,-4,31,-2
1523207196763304,2,4,42,4,4,3,1,2
1523207196771610,-1,-5,-63,-10,-6,-3,-6,-1
1523207196771610,-2,-5,53,-25,-11,-4,-11,-2
1523207196786635,-2,-4,6,8,-3,-17,-13,-3
1523207196786635,1,2,-6,24,4,9,9,3
1523207196788372,3,8,42,7,25,18,9,5
1523207196788372,-1,3,-3,-2,-2,3,14,0
1523207196809427,-1,-6,-25,1,1,5,-10,0
1523207196809427,-4,-2,-6,-26,-12,-7,4,-1
1523207196810476,1,1,18,8,-8,-6,-14,-3
1523207196810476,-3,-6,-23,-1,9,1,3,0
1523207196822739,1,1,28,5,-4,3,0,3
1523207196822739,-3,-3,-18,0,-1,-1,4,-3
1523207196831486,-2,-1,7,9,-11,-6,6,-3
1523207196831486,2,3,17,-15,1,-2,5,5
1523207196846830,-6,-9,-62,-25,-2,1,-15,-10
1523207196846830,0,-1,-26,8,3,0,3,-1
1523207196848530,-1,1,20,4,2,-1,-6,-3
1523207196848530,2,3,28,19,6,4,11,0
1523207196869665,2,0,-12,-7,4,7,-5,3
1523207196869665,-1,-5,1,-12,4,6,1,-2
1523207196870590,-1,0,5,-16,0,1,-2,-4
1523207196870590,1,1,-3,21,0,4,0,-1
1523207196882621,-5,-8,-67,-32,-10,-5,-7,-3
1523207196882621,0,2,22,10,3,2,12,-2
1523207196891645,-3,-4,18,0,-4,-11,-56,-4
1523207196891645,0,1,-7,-7,-4,-3,28,1
1523207196907001,3,4,27,7,-1,1,0,4
1523207196907001,0,1,17,16,1,-1,5,-2
1523207196907691,-1,2,-14,-6,0,-4,-16,-5
1523207196907691,-4,-9,-35,-18,-6,-3,-20,-6
1523207196928993,0,0,28,12,0,-5,-8,-1
1523207196928993,0,-2,-20,-2,-4,-2,4,1
1523207196930751,0,0,15,16,-5,-4,10,-1
1523207196930751,-4,-2,1,0,-3,-5,-6,-2
1523207196942780,0,0,1,-3,0,1,6,1
1523207196942780,-2,-4,-6,-14,-4,-3,-12,0
1523207196951803,0,0,-23,3,-5,-2,8,2
1523207196951803,-1,0,-1,-4,0,-1,12,1
1523207196966055,-4,-4,1,17,0,-2,-18,-2
1523207196966055,1,0,2,-6,-1,-1,8,2
1523207196973164,-1,-3,-3,-4,-4,-2,10,-2
1523207196973164,0,2,11,6,3,-2,-5,0
1523207196989186,-1,1,8,0,-2,1,1,0
1523207196989186,-2,-5,-20,-8,-1,-4,-10,-2
1523207196990909,-2,-4,15,0,-3,-1,8,2
1523207196990909,-4,-4,-1,-28,-5,-4,-3,-4
1523207197003242,3,4,34,16,5,1,6,0
1523207197003242,-1,0,-2,2,-1,-1,0,-1
1523207197011970,2,3,6,1,0,2,-1,1
1523207197011970,1,0,-2,16,1,-1,3,0
1523207197026003,-4,-9,-14,-12,-5,-4,4,-4
1523207197026003,0,0,4,-3,3,4,-6,1
1523207197033328,0,-3,-11,-3,-4,-4,2,0
1523207197033328,0,0,5,8,0,0,4,0
1523207197049226,-1,0,-8,-5,2,4,6,0
1523207197049226,0,-1,-4,-2,-5,-4,-5,-2
1523207197050066,-4,-4,-6,-3,0,2,1,-2
1523207197050066,-1,0,-3,2,-1,-1,-6,2
1523207197063381,0,0,3,4,2,1,2,1
1523207197063381,-2,0,3,1,3,1,-3,0
1523207197072127,-2,-1,-3,0,-1,0,2,-1
1523207197072127,-1,-1,-10,-5,0,0,-4,-1
1523207197086382,-1,0,4,-1,3,3,-3,-2
1523207197086382,-4,-5,-47,-20,-5,-1,-4,-4
1523207197092202,-1,1,10,7,-1,-1,-2,-2
1523207197092202,0,-2,1,6,1,1,3,0
1523207197109223,3,2,23,8,6,7,2,2
1523207197109223,0,0,-1,-2,0,1,3,0
1523207197110225,1,-1,-13,-14,-1,1,-1,-1
1523207197110225,-5,-8,-35,-5,-7,-4,0,-2
1523207197131282,-2,2,11,11,-4,-7,1,-1
1523207197131282,1,0,5,5,1,0,0,2
1523207197133288,0,1,18,-3,-1,-1,-1,0
1523207197133288,2,-3,14,6,-2,-4,-1,0
1523207197145636,-2,-1,-18,-9,-4,-5,-2,-3
1523207197145636,-1,-1,8,6,-5,-6,-3,-2
1523207197154345,-1,2,3,1,-5,-4,0,1
1523207197154345,-2,-3,-32,-7,-1,-1,2,-1
1523207197169669,-1,-1,3,-2,2,-1,-2,0
1523207197169669,-1,1,22,5,-1,-3,-1,0
1523207197170387,-2,-6,-33,-11,-5,-5,-1,-4
1523207197170387,-1,1,16,4,-3,-2,-5,-2
1523207197191443,-2,1,-6,2,1,0,1,-1
1523207197191443,-1,-3,-10,-6,-1,-3,0,-1
1523207197193448,-2,-3,-4,-1,-2,-2,0,-1
1523207197193448,1,1,10,3,-1,-3,0,-1
1523207197206756,-1,-1,0,-9,-4,-4,-2,-2
1523207197206756,-1,-2,4,-1,-2,-3,-1,-1
1523207197212740,-1,-1,-3,7,2,2,2,-1
1523207197212740,-1,0,14,6,-1,-3,-1,-2
1523207197229754,2,1,11,2,0,-1,-2,1
1523207197229754,-1,-3,-10,-13,-2,-4,-3,-2
1523207197230546,-2,-3,-31,-10,-3,0,0,-1
1523207197230546,0,1,19,6,1,1,-1,1
1523207197251879,-2,1,7,3,0,-1,-2,0
1523207197251879,0,7,-7,6,0,0,1,0
1523207197252606,-6,-11,-4,-3,-3,-3,-2,-2
1523207197252606,1,3,-5,-3,-1,-1,0,1
1523207197265640,-2,-1,9,-6,-3,-2,1,-1
1523207197265640,-1,-5,-30,2,-3,-2,-3,-2
1523207197273987,0,3,21,7,4,2,2,-1
1523207197273987,0,0,-11,-6,2,5,2,0
1523207197289754,-1,-5,-33,-20,-6,-2,-4,-2
1523207197289754,-1,0,25,6,1,1,-1,-2
1523207197290707,1,1,8,1,-1,-2,-1,1
1523207197290707,-3,-1,-1,2,0,1,-3,-3
1523207197312043,-2,0,-9,4,2,3,0,1
1523207197312043,-3,-5,1,-4,-1,0,0,-2
1523207197312764,-1,-1,-7,-3,-1,1,-2,-1
1523207197312764,0,0,11,2,1,3,0,-1
1523207197324796,-2,-1,-2,2,2,3,-2,0
1523207197324796,-2,-5,-14,-9,-2,0,-3,0
1523207197334122,0,1,4,0,1,0,0,-1
1523207197334122,-2,0,0,-2,-2,0,0,1
1523207197349060,-1,-2,19,4,-1,0,1,-2
1523207197349060,-3,-1,-23,-1,-2,-1,0,-1
1523207197350867,0,-2,3,-4,-4,-3,-2,-2
1523207197350867,1,0,-2,-1,-1,-4,-3,-2
1523207197372242,0,-2,-5,3,1,0,0,0
1523207197372242,0,1,20,5,1,0,0,0
1523207197372926,-1,0,-12,-8,-5,-5,-2,-1
1523207197372926,-3,-1,-13,-3,-6,-8,-3,-3
1523207197386239,-3,-2,51,8,0,-2,2,-3
1523207197386239,0,-1,-52,-16,-1,-1,1,0
1523207197392978,0,2,-8,-1,-1,-2,-1,0
1523207197392978,-1,-4,13,1,0,-2,0,1
1523207197409018,0,-1,-19,-2,-4,-6,-3,-1
1523207197409018,0,-1,16,5,-2,-2,-2,-1
1523207197411069,-1,-1,2,-1,-1,-2,-3,-1
1523207197411069,1,0,-2,1,-1,0,-1,-2
1523207197431079,0,-3,-21,-2,0,1,1,0
1523207197431079,-1,-1,24,2,-1,0,-4,-2
1523207197433084,0,0,-6,-1,0,1,-1,0
1523207197433084,-1,-1,7,-2,-3,-3,-1,-2
1523207197446450,-1,-2,-15,-7,-5,-4,-2,-3
1523207197446450,-1,-1,10,0,0,-1,-1,-1
1523207197453422,-1,0,6,3,3,3,2,1
1523207197453422,-1,-2,-7,-3,2,-1,0,-1
1523207197469469,1,3,-9,-2,-2,0,-2,-2
1523207197469469,-2,-5,-5,-2,-3,-4,-2,-1
1523207197470182,-1,-2,7,1,-1,-4,-3,0
1523207197470182,-2,0,-7,-4,-2,-2,-3,-3
1523207197491240,-1,0,-20,1,2,3,0,0
1523207197491240,-5,-6,5,-2,-3,-2,-3,-3
1523207197493245,-1,-1,4,-1,-1,0,0,-2
1523207197493245,0,-2,-3,-1,-3,-2,-2,-1
1523207197506599,0,1,7,-2,-2,-3,-3,-4
1523207197506599,0,2,5,6,6,4,2,0
1523207197512529,-1,-2,-10,-3,1,2,2,-1
1523207197512529,-2,0,6,-2,0,2,-2,-1
1523207197529675,-2,-4,-9,-6,-1,-1,-2,0
1523207197529675,1,1,10,2,2,2,1,0
1523207197530342,-2,0,-3,-2,-1,1,-1,-2
1523207197530342,-1,-1,0,0,1,2,-1,-2
1523207197551681,0,-1,0,0,4,3,1,0
1523207197551681,0,-1,3,-2,-2,-2,-3,-1
1523207197553403,0,1,2,3,1,0,-2,-2
1523207197553403,-2,-2,-1,-1,0,2,1,0
1523207197565435,-3,-1,-3,-3,-4,-2,-2,-2
1523207197565435,-1,0,7,-2,-3,-3,1,-1
1523207197573466,-2,-1,-6,-3,-2,-2,-2,-1
1523207197573466,0,-1,0,-2,0,-4,-1,-2
1523207197589775,-1,-2,0,-4,-6,-6,-3,-1
1523207197589775,1,2,0,3,0,-2,1,-1
1523207197590501,0,1,-8,3,5,5,4,2
1523207197590501,-1,-1,3,-3,-2,-1,0,-1
1523207197611822,0,-1,-2,1,-2,0,-1,0
1523207197611822,-2,0,24,2,-7,-5,-6,-1
1523207197613563,-2,-6,-50,-17,-6,-7,-4,-3
1523207197613563,-3,2,15,1,-1,-3,-2,-1
1523207197625596,-2,-6,14,-3,-4,-4,-1,-3
1523207197625596,-2,-1,1,4,2,0,0,-1
1523207197633920,0,3,4,7,3,0,3,0
1523207197633920,0,-1,2,-3,-2,-2,0,-1
1523207197648657,0,0,-4,-3,-2,-4,-3,0
1523207197648657,-2,-1,-7,-4,-2,-3,0,0
1523207197650664,-1,-1,17,1,-2,-2,-2,0
1523207197650664,0,0,-2,3,-1,1,0,0
1523207197671998,0,0,-2,-2,1,2,0,1
1523207197671998,-1,4,-5,-1,1,2,-2,-2
1523207197673725,-2,-1,11,1,-2,-1,-2,0
1523207197673725,-2,-2,-4,2,-4,-3,-2,0
1523207197685068,0,1,4,0,0,-2,-3,-1
1523207197685068,1,0,-12,1,2,2,0,-1
1523207197694107,0,-3,4,0,0,3,1,1
1523207197694107,0,-1,9,1,1,0,-2,0
1523207197708817,-2,-3,-41,-8,-3,-2,-1,-1
1523207197708817,-2,-2,5,-3,-4,-4,-3,-2
1523207197710825,-2,-2,2,0,-5,-5,-4,-4
1523207197710825,-2,-2,-2,-2,0,0,0,-2
1523207197732068,0,0,1,6,3,3,2,-2
1523207197732068,0,-3,6,-1,2,2,0,1
1523207197732883,0,-3,-20,-3,0,0,-1,-2
1523207197732883,-3,-1,-7,-4,-3,-3,-3,-1
1523207197745182,0,3,-2,1,0,-2,-3,-4
1523207197745182,-2,-7,2,0,2,3,2,0
1523207197754103,-3,-3,-10,-1,1,1,-3,-2
1523207197754103,-2,-2,-10,-2,-2,2,0,-1
1523207197769261,-2,0,-7,2,4,3,0,-1
1523207197769261,0,-1,-6,-1,1,1,-1,-3
1523207197770984,-1,2,10,-2,-4,0,-1,-2
1523207197770984,-2,-2,-12,-4,0,0,-2,-2
1523207197791036,0,-1,4,2,1,2,1,0
1523207197791036,0,0,-6,-2,-1,0,0,0
1523207197793041,-1,0,6,-3,-2,-2,0,-1
1523207197793041,0,0,-3,0,0,-2,-1,0
1523207197814096,-2,1,11,-1,-3,-3,-2,0
1523207197814096,-1,0,-6,-3,-4,-5,-2,-1
1523207197816101,-1,-1,2,-1,-4,-2,-1,-2
1523207197816101,0,0,8,2,1,0,0,1
1523207197829400,-1,-1,-2,-1,-2,-2,0,-1
1523207197829400,-2,-2,-1,-1,-3,-4,-2,1
1523207197830139,0,0,3,-1,-2,-5,-1,-1
1523207197830139,0,0,-3,0,0,-2,0,-1
1523207197852270,-2,-1,4,-1,-3,-1,0,-1
1523207197852270,-3,1,-4,-4,-4,0,-1,-2
1523207197853201,0,-2,3,-1,-2,-2,-1,-1
1523207197853201,-1,-3,-2,0,1,-1,-2,-2
1523207197865517,1,-2,-2,0,3,0,-1,0
1523207197865517,1,1,0,0,-2,-2,0,0
1523207197874255,-2,-2,-3,-3,-5,-5,-4,-1
1523207197874255,1,2,-6,1,-1,-2,-2,-1
1523207197889608,-3,-10,-3,0,3,4,2,-1
1523207197889608,0,2,-3,-2,0,-1,-1,-1
1523207197890298,0,1,1,0,0,-1,0,0
1523207197890298,-2,-1,-6,-2,-5,-4,-2,0
1523207197911590,-2,1,-1,0,-3,-3,-2,-2
1523207197911590,-1,-2,-3,-2,-1,1,-1,-1
1523207197913363,-1,-2,3,1,-2,-1,-1,-1
1523207197913363,0,2,23,1,-1,0,-1,-1
1523207197925392,1,-1,-29,-3,-3,-2,-1,-3
1523207197925392,-4,-6,-19,-4,-3,-3,-2,-4
1523207197934418,-1,1,13,2,3,3,1,1
1523207197934418,-1,-1,-6,-2,1,0,0,0
1523207197949752,-1,0,13,-1,-2,0,-1,-1
1523207197949752,0,1,2,0,-3,-2,-2,-1
1523207197950461,-3,-1,-8,-2,0,0,-1,-1
1523207197950461,-2,-2,-5,-2,0,1,1,-1
1523207197971818,0,0,8,1,1,2,-1,-1
1523207197971818,1,-1,0,-1,-3,-3,-1,-1
1523207197973519,-1,-1,1,0,-2,-2,-2,-1
1523207197973519,-1,-2,0,-2,-2,0,0,-3
1523207197985838,-2,-1,1,-3,-5,-2,-3,-2
1523207197985838,-1,1,4,2,3,2,0,0
1523207197994576,-1,0,-4,0,2,1,-1,-1
1523207197994576,-1,0,1,-2,-1,0,-1,-1
1523207198009665,-1,-1,-1,-3,-2,-1,-1,-2
1523207198009665,-1,0,2,-2,-3,-1,-1,-2
1523207198010622,-1,0,0,2,0,-2,-1,-2
1523207198010622,0,-1,-2,2,6,7,4,1
1523207198031894,0,3,8,-2,0,-2,-2,-2
1523207198031894,-2,-4,8,-1,-1,1,1,-2
1523207198032677,0,0,-10,-3,-2,-1,-4,-1
1523207198032677,-2,-2,-2,-3,-4,-2,-1,0
1523207198045976,-1,0,-5,-1,0,1,0,0
1523207198045976,-1,-2,-2,0,2,2,-1,-2
1523207198054015,-1,-1,2,1,0,2,1,0
1523207198054015,0,-2,-5,-2,-2,-2,-2,-1
1523207198069042,0,-1,1,-1,-1,-1,0,-2
1523207198069042,-3,-1,4,0,-3,-3,-1,-2
1523207198070779,-1,-1,2,-1,1,1,1,0
1523207198070779,0,-1,-10,-1,-2,-3,-3,-1
1523207198091835,-1,-2,0,-2,0,-2,-2,1
1523207198091835,1,1,3,1,-1,-1,-1,-2
1523207198092921,-1,-2,0,-3,-3,-3,-1,-2
1523207198092921,0,-1,2,-2,-4,-6,-3,-1
1523207198113893,0,-1,0,0,-2,-4,-1,1
1523207198113893,-3,-3,-7,3,4,3,3,1
1523207198115897,0,1,14,0,-1,0,1,0
1523207198115897,-1,-2,-3,-2,-3,-4,-1,-1
1523207198129189,0,-2,-2,-2,-6,-6,-2,-1
1523207198129189,-2,0,0,-2,-5,-7,-3,-1
1523207198130940,-2,1,6,0,0,-3,1,-1
1523207198130940,-2,-3,-15,-1,-2,-2,-1,-1
1523207198152248,0,1,17,-1,-2,-3,-1,0
1523207198152248,0,-3,-12,-2,-4,-5,-2,0
1523207198153001,-1,1,-2,0,1,0,2,-3
1523207198153001,-1,-1,2,0,1,1,0,0
1523207198174054,-2,-2,-8,1,0,-1,2,0
1523207198174054,-1,4,11,0,1,1,-1,0
1523207198176059,0,-1,-28,-3,-3,-3,-2,-2
1523207198176059,-2,-8,5,-3,-4,-3,-2,-3
1523207198189365,-4,-8,-16,-2,0,-1,0,0
1523207198189365,0,0,4,3,3,2,0,0
1523207198190101,-1,-1,-2,2,4,4,1,1
1523207198190101,2,3,6,-1,-2,0,1,0
1523207198212200,0,2,1,-2,-4,-3,-2,-2
1523207198212200,-1,-3,1,-2,-1,-1,0,0
1523207198213160,0,-3,1,1,1,0,1,-1
1523207198213160,1,2,-6,0,2,4,1,-1
1523207198234525,-3,-1,-5,-1,-1,-1,0,-1
1523207198234525,0,0,1,-1,-3,-3,-1,-1
1523207198235214,0,-1,0,-2,-3,-3,-4,0
1523207198235214,-3,-1,1,-1,-1,-3,-2,-1
1523207198248459,0,-1,-5,0,0,2,0,-1
1523207198248459,-2,-1,0,-1,0,1,1,-1
1523207198255562,-1,-1,1,-1,-5,-2,-2,-1
1523207198255562,-3,-3,-1,-1,0,0,-1,-2
1523207198271575,2,1,4,3,3,4,1,-1
1523207198271575,-1,-1,-6,-3,-1,0,0,-1
1523207198273314,0,-2,4,-5,-4,-4,-2,-2
1523207198273314,-1,0,-6,-4,-3,-5,-3,-1
1523207198294658,-1,1,3,-1,-1,0,-1,-2
1523207198294658,-1,0,-1,0,0,2,0,0
1523207198295376,0,-1,-1,0,-1,1,-2,-3
1523207198295376,-1,-2,-4,2,0,2,1,-2
1523207198308411,-2,0,4,-3,-2,-2,-2,-2
1523207198308411,0,0,-1,-4,-3,-2,-2,-1
1523207198315759,-1,0,3,-1,-4,-5,-4,-2
1523207198315759,-2,-3,-6,-1,0,-2,-1,0
1523207198331688,1,2,14,5,6,5,2,1
1523207198331688,-2,-6,-36,-4,-3,-1,-2,-3
1523207198333476,-2,1,30,-1,-3,1,0,-1
1523207198333476,2,4,-20,-2,-3,-2,-3,-2
1523207198354663,-6,-8,7,-4,-4,-5,-3,-2
1523207198354663,2,0,9,2,2,0,3,1
1523207198355536,-1,-3,-10,-2,-1,0,0,-2
1523207198355536,0,1,-5,-2,-2,-2,-1,-1
1523207198368866,0,1,2,-2,-1,0,-1,-1
1523207198368866,-2,1,3,-1,0,-1,1,-1
1523207198375588,-4,-4,-10,-2,-1,0,-1,0
1523207198375588,-1,-1,12,-1,-2,-1,-1,-2
1523207198391631,0,-1,-10,1,-1,0,-2,-3
1523207198391631,-1,-2,6,0,0,1,1,0
1523207198392633,0,0,-6,0,1,0,0,-2
1523207198392633,-1,0,7,0,0,0,-1,-1
1523207198413689,0,-2,-5,-2,-5,-5,-1,0
1523207198413689,-1,-1,-4,-1,-3,-5,-1,-1
1523207198415695,-1,-2,-2,-3,-5,-4,0,0
1523207198415695,-1,-2,2,0,-1,-4,-1,-2
1523207198427978,1,-1,-2,2,5,3,2,0
1523207198427978,-1,1,6,0,-3,-2,-2,0
1523207198436752,-2,-1,-5,-1,-3,-5,-2,-1
1523207198436752,-2,-2,5,0,-1,-1,-1,-1
1523207198452074,-1,0,-1,-1,1,0,0,0
1523207198452074,1,-1,0,0,-1,-3,-1,-2
1523207198452796,-1,-3,0,-2,0,0,-1,-3
1523207198452796,0,-1,0,0,0,2,3,0
1523207198473851,-2,-3,-10,-4,-3,-3,-1,-2
1523207198473851,-2,-1,1,-3,-3,-4,-4,-2
1523207198475854,0,0,-1,0,2,2,1,1
1523207198475854,-1,-1,-1,0,3,1,0,1
1523207198489100,0,1,-5,-2,-3,-1,-2,-1
1523207198489100,0,-2,-2,-3,-3,-2,-2,-1
1523207198495158,1,-1,3,2,3,0,-3,-2
1523207198495158,-1,1,-9,2,2,2,0,0
1523207198512231,-1,0,3,-1,-3,-2,-1,-2
1523207198512231,-1,0,17,-2,-1,-1,-2,-1
1523207198512954,0,-1,-35,-3,-3,-2,-2,1
1523207198512954,-2,-5,8,-1,-3,-2,-1,-2
1523207198534303,0,1,15,8,-5,-4,-2,-1
1523207198534303,-1,1,4,1,3,1,1,-1
1523207198536017,-1,-5,-29,-13,2,3,2,-1
1523207198536017,-2,-4,-28,-22,-2,0,0,-1
1523207198549106,-1,0,6,2,-2,-1,-1,-1
1523207198549106,-1,-1,9,8,-1,-2,-1,0
1523207198555369,-1,0,22,9,-1,0,-1,-1
1523207198555369,-1,-1,1,2,0,-1,-1,-1
1523207198572232,-3,-4,-8,-6,-2,-2,1,-1
1523207198572232,-1,-1,-11,-4,-1,1,0,-2
1523207198573118,-2,0,2,-2,-3,-1,-2,0
1523207198573118,0,0,6,4,-2,0,-1,-1
1523207198594467,-1,-1,-5,-2,0,1,-1,1
1523207198594467,-1,0,-1,-2,-4,-2,-2,-1
1523207198595173,0,-2,-4,1,1,0,-1,-1
1523207198595173,-1,2,13,4,2,2,1,-1
1523207198607206,0,-1,-1,0,2,1,-1,-1
1523207198607206,0,-3,-24,-6,-1,-2,-1,-1
1523207198616527,-2,-1,10,-1,-3,-2,-1,0
1523207198616527,0,1,-1,2,0,-1,-2,0
1523207198631473,-3,1,-7,-2,-1,-1,-1,-3
1523207198631473,-3,0,4,-4,1,2,0,0
1523207198633274,0,0,-13,1,-1,-1,-1,0
1523207198633274,-1,1,7,-1,-3,-4,-3,0
1523207198654613,1,1,-16,-1,-1,-1,-2,0
1523207198654613,1,-3,15,1,2,1,-1,0
1523207198655335,-1,0,9,0,1,-1,-1,-3
1523207198655335,0,-1,4,3,-3,-2,0,-2
1523207198667649,0,-2,-10,-9,-3,-2,-1,-2
1523207198667649,0,-2,-5,1,-1,-3,-1,-1
1523207198676663,0,0,4,0,0,-1,1,-1
1523207198676663,-1,-3,-1,-1,-3,-2,-2,0
1523207198691428,-1,-2,6,1,-1,-2,-3,0
1523207198691428,0,-3,-2,-1,-2,-1,0,0
1523207198693433,-2,0,0,-1,-1,-2,0,-1
1523207198693433,0,-3,-3,2,1,0,-1,-2
1523207198714742,-2,-1,2,-1,1,0,-1,0
1523207198714742,1,0,-7,-5,-6,-5,-4,-2
1523207198715493,-2,-1,-2,-1,-3,-4,-2,-2
1523207198715493,0,0,-2,1,2,2,1,-1
1523207198727759,1,-1,0,1,1,0,0,1
1523207198727759,-1,-4,5,1,2,3,0,-1
1523207198742836,1,0,14,-4,-1,-2,-1,-2
1523207198742836,-3,-4,-4,-2,-3,-3,-2,-4
1523207198751883,0,1,-1,4,3,3,3,-1
1523207198751883,-1,1,3,-3,-2,-2,-1,-3
1523207198753595,0,-3,-9,0,-1,-3,-2,-2
1523207198753595,0,0,3,-3,-2,-2,-1,0
1523207198773647,-2,0,-2,-3,-4,-2,-1,-1
1523207198773647,-3,-1,-4,-1,0,-2,0,0
1523207198775651,-2,-2,2,1,1,1,2,1
1523207198775651,1,-1,-17,0,-1,-2,-2,-2
1523207198787969,-2,-4,2,1,-1,-2,-1,-1
1523207198787969,-1,2,-9,2,-2,-1,0,-1
1523207198796709,-2,0,-2,-3,-1,-2,-3,-2
1523207198796709,0,-3,1,-1,-2,-2,-2,-1
1523207198812086,-1,-1,4,-2,-2,-2,-2,0
1523207198812086,-1,-1,-8,-1,0,-1,0,0
1523207198812755,0,1,4,-1,-4,-2,-2,0
1523207198812755,-2,-1,-1,-1,-1,0,-1,-3
1523207198834078,0,-1,-5,3,4,2,3,2
1523207198834078,0,-1,-4,0,-1,1,-1,-2
1523207198835813,-2,3,23,-2,-1,2,1,0
1523207198835813,-2,0,1,-3,-4,-3,-4,-1
1523207198848010,-2,0,-3,-4,-5,-2,-2,-4
1523207198848010,-2,-4,-2,0,-1,-2,-2,0
1523207198856868,0,-1,-8,-1,-2,-1,-5,-1
1523207198856868,-2,-2,0,-2,-2,-1,-1,1
1523207198872204,0,0,6,0,2,0,1,-1
1523207198872204,-2,0,2,-2,1,1,-1,-2
1523207198872911,1,-2,-8,-2,0,-1,-1,0
1523207198872911,0,0,6,-1,-2,-2,-1,-2
1523207198894246,0,0,-11,0,0,0,-1,-2
1523207198894246,-2,-2,17,2,2,1,3,-1
1523207198895976,-1,-1,11,-1,-1,-1,0,0
1523207198895976,-1,-5,-51,-4,-6,-4,-3,-2
1523207198908003,-2,-1,6,-2,-3,-2,-2,-1
1523207198908003,0,2,-1,2,4,4,1,0
1523207198917028,0,-1,3,-1,0,1,-1,1
1523207198917028,-1,-1,9,-2,-1,-1,0,-2
1523207198932288,-2,-2,-6,-5,-4,-2,-4,-4
1523207198932288,0,-3,-7,-1,-3,-2,-3,-2
1523207198933071,0,-3,-9,1,1,1,-1,-2
1523207198933071,-1,1,9,0,0,-1,0,2
1523207198954415,-1,-1,1,-2,-2,-1,-1,1
1523207198954415,-2,-1,-3,0,0,-1,2,-3
1523207198955131,-1,-3,2,-1,-2,-1,-1,0
1523207198955131,0,1,15,-3,-3,0,-2,-2
1523207198968446,-2,-2,3,2,-1,-1,0,-2
1523207198968446,0,-2,-7,1,3,2,0,0
1523207198976523,-4,0,-12,-1,0,-2,0,-1
1523207198976523,-1,0,0,-1,1,1,0,0
1523207198991226,-2,-3,0,-3,-1,-3,-2,-1
1523207198991226,-1,-1,-5,-2,-4,-4,-4,-2
1523207198993232,-2,-2,4,0,0,-3,0,-1
1523207198993232,-1,-2,3,1,-1,-1,-1,-1
1523207199014509,0,-2,-5,-1,-3,-1,-1,-2
1523207199014509,-1,-1,-2,-3,-3,-5,-2,0
1523207199015287,-1,0,-7,-1,0,-1,0,-2
1523207199015287,-2,-6,0,1,2,2,1,-1
1523207199036606,-1,-1,-2,-2,-1,0,-1,0
1523207199036606,-1,-2,-4,-3,-3,-3,-2,1
1523207199038350,-1,2,14,3,-3,-1,-2,0
1523207199038350,-1,2,-15,-7,-1,0,-1,0
1523207199051703,-1,-6,4,0,-1,-1,0,-1
1523207199051703,0,0,6,-1,-1,0,-3,-1
1523207199053388,-1,0,-12,-5,0,0,1,0
1523207199053388,0,1,12,3,2,1,0,-1
1523207199074446,-2,1,-3,-2,-2,-1,-2,-3
1523207199074446,1,-1,-5,-2,-3,-2,0,-3
1523207199075448,-1,-4,1,2,-1,-1,-2,-1
1523207199075448,0,-1,-4,2,2,2,2,2
1523207199096504,1,0,-3,-1,-2,-1,-1,2
1523207199096504,-4,-4,-5,-1,-3,-2,-2,-2
1523207199098508,0,-1,-13,-1,-2,-2,-1,-1
1523207199098508,-1,-2,4,-3,-2,-3,-2,-2
1523207199111777,0,-1,-2,0,-1,-1,-2,0
1523207199111777,-1,1,4,0,0,-1,0,0
1523207199113548,-1,-2,-2,-2,-3,-2,-1,-2
1523207199113548,1,1,8,0,-3,-3,-2,0
1523207199133603,-3,-1,-16,0,0,0,-1,-2
1523207199133603,1,1,2,2,3,4,1,1
1523207199135609,0,-5,-11,-2,1,2,0,-2
1523207199135609,0,-1,4,-1,-1,0,1,0
1523207199156665,1,1,2,-3,-1,-2,-2,-1
1523207199156665,0,0,2,0,-2,-4,-3,-1
1523207199157664,0,1,-8,2,1,-1,0,1
1523207199157664,-2,-3,15,-2,-3,-3,-2,0
1523207199170789,-2,-1,-7,-1,-3,-3,0,-1
1523207199170789,-2,-1,-8,0,-2,-2,2,-1
1523207199179002,1,1,4,0,0,0,-1,-2
1523207199179002,-2,1,15,0,-1,-3,-2,-3
1523207199194035,-1,-2,0,-1,1,0,-1,1
1523207199194035,0,0,4,-1,-2,1,0,0
1523207199200828,-2,0,-3,-1,-3,-1,-2,-1
1523207199200828,-1,-1,-11,-1,0,-3,-2,-1
1523207199217155,-1,-1,1,-4,-2,-3,0,-1
1523207199217155,-2,-1,1,0,1,0,0,-1
1523207199217825,-1,-3,-3,-2,1,-1,-1,0
1523207199217825,1,0,-9,0,-1,0,-2,0
1523207199230861,-2,-5,-3,-2,-1,-2,0,-1
1523207199230861,-2,-4,-3,-5,-2,-3,-3,-2
1523207199238173,-1,-2,18,-1,-3,-3,0,-1
1523207199238173,-2,-3,-6,1,0,-1,-1,-1
1523207199254191,-1,1,-4,2,3,2,2,-1
1523207199254191,-1,-1,-1,-4,-5,-3,-1,0
1523207199255929,0,-2,1,0,1,0,0,-2
1523207199255929,0,-2,6,0,1,4,1,2
1523207199277267,2,-1,-32,-2,0,0,-3,2
1523207199277267,-4,-9,39,-3,-5,-4,-3,-4
1523207199277989,0,0,-4,-2,-5,-3,-3,-2
1523207199277989,-1,-1,-4,0,-3,-4,0,-2
1523207199291021,1,1,7,1,0,-2,-1,-1
1523207199291021,-2,2,-12,-2,1,0,-1,0
1523207199298345,-1,-1,-2,-1,-2,-2,-3,0
1523207199298345,0,-2,-1,1,2,1,1,-1
1523207199315199,-3,-1,6,-1,-1,-2,-2,-1
1523207199315199,1,-1,-7,-3,-2,-4,-4,0
1523207199316090,-4,-2,1,0,0,-2,0,-2
1523207199316090,-2,1,11,0,4,6,3,0
1523207199337269,0,0,6,-2,-2,-1,-2,-2
1523207199337269,-1,-1,-6,0,2,0,-1,-2
1523207199338151,1,1,-6,-1,1,1,1,-1
1523207199338151,-1,-1,-4,-2,1,0,0,0
1523207199351477,-3,-2,4,-4,-2,1,-1,-2
1523207199351477,-1,0,-2,-2,0,-3,-1,-2
1523207199357196,-1,0,-3,-2,-3,0,-3,0
1523207199357196,-1,-1,-9,0,2,3,1,-1
1523207199374242,-1,-1,7,1,3,2,1,0
1523207199374242,2,0,-11,0,-1,3,-1,1
1523207199375418,-2,-2,-2,-2,-2,-1,-2,-1
1523207199375418,0,-1,-4,-2,-3,-2,-4,-2
1523207199396301,-1,0,2,2,-1,-1,0,0
1523207199396301,0,-1,2,0,0,1,1,0
1523207199398306,0,-1,-2,-1,-2,-2,-2,-1
1523207199398306,-1,-2,-3,-4,-4,-2,-3,-2
1523207199411665,0,1,8,1,-3,-3,-1,-3
1523207199411665,0,-4,-12,-5,-4,-3,0,-1
1523207199417647,-1,1,-14,-7,-2,-1,-1,-2
1523207199417647,1,-1,-8,0,-2,-2,-1,1
1523207199434682,-1,0,15,4,-3,-4,-2,0
1523207199434682,-2,1,15,0,3,-3,-1,0
1523207199435405,-1,-4,-31,-7,-1,-1,0,0
1523207199435405,0,0,8,0,-3,-3,-2,-1
1523207199456462,-1,-2,-6,-1,-2,-2,-3,0
1523207199456462,0,8,18,6,-1,1,0,0
1523207199458509,-1,-3,0,-4,3,3,0,-1
1523207199458509,-1,2,-17,-3,3,0,2,1
1523207199470772,-3,-3,-5,-7,-5,-1,-5,-1
1523207199470772,1,1,-4,1,-3,-3,-2,1
1523207199479522,0,1,8,3,-2,-2,-1,0
1523207199479522,-1,-1,3,0,-3,-5,-3,-2
1523207199494659,0,-1,-5,-2,1,1,3,0
1523207199494659,-1,-2,-8,-2,0,-1,-1,-1
1523207199495569,-1,2,11,2,-2,-2,-1,0
1523207199495569,-2,-3,-7,-2,-2,-1,-4,-1
1523207199516620,1,-1,2,0,-3,-4,-2,-2
1523207199516620,-2,-4,-4,-3,0,1,-1,-2
1523207199518652,1,0,8,8,6,4,3,0
1523207199518652,1,1,2,-2,-2,-1,1,0
1523207199530747,-2,-2,-13,-8,-2,-2,-2,-2
1523207199530747,-2,-2,10,0,-3,-4,-3,-2
1523207199538961,-3,-1,-25,-5,-2,-2,-2,-1
1523207199538961,0,0,12,3,-2,-3,0,-1
1523207199553982,-1,0,1,0,-3,-3,0,-1
1523207199553982,-2,-1,-7,-1,-2,-2,0,-1
1523207199555723,0,-1,16,0,-2,-3,-3,-1
1523207199555723,-1,-1,-13,-4,-2,-2,-3,-1
1523207199577069,-1,1,7,6,4,3,1,0
1523207199577069,-3,-4,-15,-7,0,-1,0,0
1523207199577783,0,2,28,0,-3,-4,-2,-2
1523207199577783,-2,-11,-49,-6,-5,-3,-2,-2
1523207199589815,1,2,10,-3,-7,-7,-4,-2
1523207199589815,-1,1,-4,4,3,1,1,0
1523207199599017,0,-2,-4,3,7,7,2,1
1523207199599017,-2,1,7,0,3,4,1,0
1523207199614085,-2,-3,8,-2,-2,0,-1,-2
1523207199614085,-2,-5,-27,-6,-7,-7,-5,-2
1523207199615885,-2,-1,8,-4,-10,-8,-4,-2
1523207199615885,-3,3,7,2,-2,-4,-1,-1
1523207199637177,-1,-2,-7,-1,2,1,1,0
1523207199637177,1,2,7,3,5,6,2,1
1523207199637942,-2,-4,-13,-3,-1,1,0,-2
1523207199637942,-1,-1,6,-1,1,1,-2,-2
1523207199650259,0,-2,-3,-6,-1,-3,-2,-1
1523207199650259,-1,-2,3,2,-1,-1,-2,-2
1523207199659043,-1,-1,-3,-1,0,0,0,0
1523207199659043,-2,-2,3,-1,-1,-1,-2,-1
1523207199674038,-1,-1,-8,-2,1,2,1,1
1523207199674038,0,-1,2,1,0,0,1,-1
1523207199676045,-1,-4,-4,-1,-1,-2,-1,0
1523207199676045,0,0,2,-1,1,2,0,-1
1523207199696097,0,-1,0,-1,0,2,0,0
1523207199696097,-2,-3,-1,-2,0,0,1,0
1523207199698102,-1,1,0,-1,-3,-1,-1,0
1523207199698102,0,1,3,-2,-4,-2,-1,-1
1523207199710386,-1,-3,0,-1,-2,-2,-4,-2
1523207199710386,-3,1,-24,0,3,4,0,-3
1523207199719159,-2,0,-1,3,3,3,1,0
1523207199719159,-2,0,25,-1,1,1,-2,-1
1523207199734488,-1,0,-22,-5,-5,-5,-3,-3
1523207199734488,-1,-2,1,-5,-6,-5,-4,-3
1523207199735204,0,-1,-1,2,3,1,0,-1
1523207199735204,-1,-2,-3,-1,-1,1,1,1
1523207199757260,0,0,10,1,0,0,-2,-1
1523207199757260,0,-1,5,0,2,1,1,0
1523207199758324,-2,0,-7,-2,-3,-1,-1,-3
1523207199758324,-2,-4,-3,-4,0,-2,-1,-3
1523207199770596,-1,-2,-1,-2,0,-2,0,0
1523207199770596,0,-1,1,-1,-2,-3,-3,0
1523207199779319,-1,-3,1,-2,-3,-4,-1,-1
1523207199779319,0,2,-5,0,-3,-3,-1,-2
1523207199794697,-1,-1,0,2,0,1,0,0
1523207199794697,1,-1,4,-3,-2,0,0,-1
1523207199795361,0,-2,2,-3,-3,-2,-3,-1
1523207199795361,-1,-2,-4,-1,0,-2,-2,-1
1523207199816714,0,-2,-4,0,3,0,1,-1
1523207199816714,1,-1,5,-3,-4,-4,-1,0
1523207199818422,0,-1,-2,-2,-3,-3,-1,0
1523207199818422,0,-1,-4,-1,0,1,1,-1
1523207199830681,-4,-1,0,-1,-1,-1,-1,-1
1523207199830681,-1,2,3,1,0,3,2,-1
1523207199839477,-3,-7,-19,-2,2,1,1,-2
1523207199839477,0,0,-3,-1,-1,0,-2,0
1523207199854729,1,-2,2,0,-1,1,0,-1
1523207199854729,-2,0,6,-3,-3,-6,-2,-3
1523207199855521,-2,-3,-17,-4,-5,-4,-4,-2
1523207199855521,0,1,15,1,0,-1,-4,-1
1523207199876850,1,-1,-14,2,2,4,2,2
1523207199876850,0,-1,-1,-1,-4,-3,-3,0
1523207199878583,0,2,2,3,3,2,3,-1
1523207199878583,0,-4,5,-3,-2,-3,-3,-1
1523207199890614,-2,1,3,-1,-2,-3,-3,-3
1523207199890614,-2,-2,-6,2,2,4,2,0
1523207199898916,0,1,6,-2,-3,-2,0,-1
1523207199898916,1,3,5,1,-1,-2,-1,0
1523207199914715,-6,-11,4,-8,-5,-2,-9,-2
1523207199914715,1,0,-7,-3,-2,-4,-17,-3
1523207199915681,-2,-1,2,-2,-2,-5,11,0
1523207199915681,0,0,-1,2,3,4,5,1
1523207199937033,1,0,-4,1,-1,1,5,2
1523207199937033,0,-1,3,-1,-3,0,-5,-2
1523207199937739,0,0,6,-1,-1,-1,-8,-3
1523207199937739,0,-3,-16,1,-1,-2,1,-2
1523207199950817,-1,1,6,-1,-1,-1,1,-1
1523207199950817,-1,-4,-3,-2,-2,-2,1,0
1523207199959091,-1,2,3,0,-3,-3,-2,-1
1523207199959091,-3,-2,-5,-2,-4,-4,-4,-2
1523207199973836,-1,1,0,5,3,3,2,0
1523207199973836,-1,0,4,3,4,3,5,1
1523207199975843,0,-1,1,-2,-1,0,-5,0
1523207199975843,-2,-2,-3,-3,-3,-3,-4,-2
1523207199996897,1,-2,0,-4,-4,-4,-5,-3
1523207199996897,-2,1,-7,-1,1,-1,3,1
1523207199997899,-1,-1,4,2,2,0,0,0
1523207199997899,-1,0,-4,0,0,2,1,-1
1523207200019246,0,2,0,1,1,1,2,1
1523207200019246,-1,-2,-2,-3,-3,-3,1,-4
1523207200020961,-1,-2,1,-2,-3,-2,-17,-1
1523207200020961,-1,-2,2,-3,-1,-1,4,-1
1523207200034263,1,0,-4,3,1,-1,-3,-1
1523207200034263,-2,-1,0,-1,-1,0,2,-1
1523207200036000,-3,-1,0,-2,-6,-3,-6,-2
1523207200036000,-2,-2,-5,1,-1,-2,-3,-1
1523207200056055,0,3,1,1,3,5,2,3
1523207200056055,0,-2,8,-1,0,2,0,2
1523207200058060,-1,-4,-7,-8,-5,-4,-1,-2
1523207200058060,-3,-2,-3,-4,-6,-6,-3,-1
1523207200079115,0,-2,0,1,0,-1,1,-2
1523207200079115,1,2,-2,4,11,7,3,2
1523207200081120,1,0,-4,-2,-1,3,3,2
1523207200081120,0,0,8,-2,-4,1,-1,-2
1523207200094446,0,-2,-22,-4,-9,-5,-5,-4
1523207200094446,-2,-2,12,-2,-6,-6,-3,-1
1523207200095158,0,1,-9,0,2,1,2,-1
1523207200095158,1,-5,-10,0,1,0,-1,0
1523207200116494,-1,0,-8,-2,-5,-5,-1,-2
1523207200116494,-1,-3,-3,0,0,-2,1,0
1523207200118219,1,0,6,4,4,4,3,1
1523207200118219,-2,2,-8,-1,0,-1,-1,0
1523207200139276,-2,0,7,-3,-1,-3,-2,0
1523207200139276,-1,-6,-9,-5,-8,-7,-4,-3
1523207200140275,-3,-2,-5,-3,-5,-5,-3,-3
1523207200140275,0,-1,-2,5,8,6,2,0
1523207200153597,0,-1,5,1,3,6,3,2
1523207200153597,-1,2,2,-4,-5,-4,0,-2
1523207200160546,-1,-1,-1,-4,-4,-4,-2,-2
1523207200160546,-1,-2,0,-3,-1,-3,-1,-2
1523207200176642,-3,-2,3,1,2,1,1,1
1523207200176642,0,0,-5,0,-2,-1,-1,-1
1523207200178384,-3,-1,1,-1,-1,-1,-2,0
1523207200178384,-2,0,1,-3,-2,-3,-3,-1
1523207200199657,-1,-2,3,0,-3,-3,-4,-1
1523207200199657,1,3,16,3,0,1,1,0
1523207200200440,-2,-5,-51,-1,3,3,1,-2
1523207200200440,0,1,16,-1,0,0,-1,-1
1523207200213677,1,1,-1,-1,-1,-1,-1,-1
1523207200213677,-2,-1,-2,-3,-3,-3,-3,-2
1523207200220765,-2,2,12,0,0,0,1,-1
1523207200220765,-1,-1,-6,-1,-1,-1,-2,-2
1523207200236792,-2,-3,-5,-1,6,4,2,0
1523207200236792,0,-1,-4,-2,-1,-1,1,0
1523207200238537,1,0,12,-1,-4,-2,-2,0
1523207200238537,-3,-4,-12,-2,-2,-2,-1,-1
1523207200259641,-2,-1,8,3,0,0,0,-1
1523207200259641,-1,-3,-2,1,0,2,-1,-1
1523207200260602,0,1,16,0,0,3,2,0
1523207200260602,0,-1,-4,-4,-4,-3,-3,0
1523207200273631,-2,-2,4,-3,-7,-5,-4,-4
1523207200273631,-2,0,-14,0,2,2,1,-2
1523207200280797,0,-4,2,-1,-3,-4,-2,-1
1523207200280797,1,3,1,2,0,0,0,0
1523207200296891,-1,-1,-2,0,0,2,3,0
1523207200296891,0,1,1,-4,-5,-5,-5,-1
1523207200297696,2,0,6,-1,-1,-2,-1,-2
1523207200297696,0,-2,-6,1,1,1,1,0
1523207200319035,1,1,1,-2,-2,-3,-3,-1
1523207200319035,-2,-5,-11,0,1,3,2,1
1523207200320758,1,2,-12,2,1,1,1,1
1523207200320758,-2,-1,16,-3,-1,0,0,-2
1523207200332789,-2,-1,-2,-3,-4,-5,-3,-1
1523207200332789,-1,-1,-10,-3,-3,-2,0,-3
1523207200341023,-3,1,4,0,-1,-1,1,0
1523207200341023,-3,-2,-2,0,-3,-1,-2,0
1523207200355850,-3,-3,-4,-4,-2,-3,-3,-1
1523207200355850,0,0,5,-1,0,-1,-1,-2
1523207200356852,-2,-1,4,1,0,0,1,0
1523207200356852,1,-1,-8,-3,-2,-2,-1,-2
1523207200379058,-1,-2,2,-4,-5,-7,-3,-4
1523207200379058,2,2,0,1,-1,-3,-2,1
1523207200379058,-2,-1,0,3,8,5,5,1
1523207200379058,0,0,2,0,3,3,3,1
1523207200393229,-1,-1,-6,-2,-1,1,-1,-1
1523207200393229,-1,-2,1,-2,-5,-2,-3,-1
1523207200401293,-3,-2,-1,-2,-4,-4,-3,0
1523207200401293,-2,-1,-2,-1,-2,-1,-1,-2
1523207200416362,0,-2,-3,-1,-1,1,2,-2
1523207200416362,-1,-1,1,1,-3,-3,-1,-1
1523207200417014,-1,1,6,0,-1,0,-2,-2
1523207200417014,-2,-6,-16,-2,0,0,2,0
1523207200438348,1,-2,-2,-1,0,0,-1,0
1523207200438348,-2,-2,-2,-2,-2,-1,-1,-2
1523207200439070,-1,0,0,-1,-4,-3,-2,-3
1523207200439070,0,2,1,2,0,-1,0,0
1523207200453389,-2,-4,-6,-2,-2,-2,-2,-3
1523207200453389,-2,1,1,1,6,3,3,-2
1523207200461418,1,-1,-5,1,1,2,-1,-1
1523207200461418,-2,-5,2,-4,-4,-2,-3,-3
1523207200476450,-2,0,13,-3,-4,-3,-2,0
1523207200476450,-2,-4,4,-3,-4,-4,-3,-2
1523207200476450,-1,0,-4,-1,0,-2,-1,-1
1523207200476450,-1,0,8,3,2,1,1,0
1523207200498518,-1,-1,-3,0,-1,-1,0,1
1523207200498518,1,-2,-3,1,2,0,-1,2
1523207200499234,1,-4,6,0,0,-2,-1,1
1523207200499234,1,0,-5,-3,-2,-5,-2,-1
1523207200512266,0,1,-2,2,1,0,0,-2
1523207200512266,-2,-1,-3,-1,-2,-4,-3,-3
1523207200521607,-1,-2,1,-2,-2,-2,-2,-2
1523207200521607,-2,1,0,2,-2,0,-2,-2
1523207200536594,-1,-1,-4,0,0,2,1,-1
1523207200536594,1,-2,2,-2,-4,-3,-2,-1
1523207200536594,-1,-2,-1,-4,-4,-2,-2,-2
1523207200536594,-2,4,-1,2,2,2,0,-2
1523207200558645,0,-3,0,1,2,-1,-1,0
1523207200558645,-1,-2,0,-1,-4,-4,-3,0
1523207200559390,-3,-2,-9,-4,-5,-5,-4,-3
1523207200559390,-1,-1,1,0,-1,-3,-1,0
1523207200572461,0,0,-1,2,3,4,2,1
1523207200572461,-1,0,-8,3,6,6,3,1
1523207200581639,-2,0,22,-4,-3,-2,-1,0
1523207200581639,-1,-1,0,-3,-4,-3,-2,-1
1523207200595487,-1,-1,-8,-2,-4,-4,-4,-3
1523207200595487,-1,-1,1,-2,-2,-2,-3,-1
1523207200596490,-1,0,-2,4,3,2,1,-2
1523207200596490,0,1,12,0,-2,-1,-1,0
1523207200618829,0,-1,-14,-4,-3,-1,-1,-1
1523207200618829,-1,-3,11,-2,0,1,-1,0
1523207200619552,-1,1,-6,1,2,1,3,1
1523207200619552,2,-3,2,1,-1,-3,-3,-1
1523207200632863,-5,-2,16,-3,-3,-1,-1,-3
1523207200632863,-2,-4,-9,0,2,1,-1,-1
1523207200640849,1,-1,-2,-2,-3,-1,-3,-1
1523207200640849,0,-2,-6,-2,-2,-1,-1,0
1523207200655646,0,1,-2,-2,-3,-2,-2,-1
1523207200655646,-1,0,-3,0,-2,-2,-2,-2
1523207200656651,-1,0,11,0,1,0,0,0
1523207200656651,-1,-2,-20,-3,-3,-2,-2,-2
1523207200678743,-2,-1,-2,-1,0,-1,1,-1
1523207200678743,-1,0,-2,0,-1,1,1,-1
1523207200679757,0,-1,-1,-2,-3,-4,-2,-2
1523207200679757,-1,-1,-1,-4,-5,-4,-3,0
1523207200693001,2,1,1,2,0,1,2,-2
1523207200693001,1,-3,-3,0,1,2,2,0
1523207200701082,-2,-2,-6,-2,-4,-1,0,-2
1523207200701082,-3,0,0,-2,-3,-2,-2,-1
1523207200716075,-1,-2,1,-1,-3,-2,-4,1
1523207200716075,1,2,-1,1,-2,-2,0,-1
1523207200716814,-1,-3,-5,2,-1,-3,-2,-1
1523207200716814,-1,-1,6,1,2,2,1,-2
1523207200738087,-2,0,-3,2,1,1,2,1
1523207200738087,-2,0,1,-5,-5,-3,-3,-2
1523207200738868,-1,-2,-5,-3,-2,-2,-2,-2
1523207200738868,0,-4,-6,1,0,-1,-2,-1
1523207200753206,0,0,1,1,0,0,0,-1
1523207200753206,-2,-2,-7,-2,1,-1,1,-3
1523207200761218,-1,5,18,-1,1,0,-1,0
1523207200761218,-2,-4,-28,-2,-3,-3,-1,-2
1523207200776229,-4,2,16,-2,-1,-1,-1,-3
1523207200776229,0,0,-4,1,0,-1,0,1
1523207200776972,-1,-1,5,0,0,1,1,-1
1523207200776972,0,2,-1,-1,1,0,-1,2
1523207200798024,-1,0,-5,-2,-2,-2,-1,-1
1523207200798024,-1,0,2,-3,-3,-3,-2,-2
1523207200799028,1,-1,-15,0,-1,-2,-1,0
1523207200799028,-2,-1,3,0,0,1,1,-1
1523207200812333,1,-2,-4,2,1,0,0,0
1523207200812333,0,-1,1,-1,1,0,0,0
1523207200821392,0,-4,-7,-1,0,0,-1,0
1523207200821392,0,-2,3,-4,-1,-2,-1,0
1523207200836409,-1,0,-2,-4,-6,-6,-4,-1
1523207200836409,-2,-1,0,-1,-1,-2,-1,-1
1523207200836409,-1,-2,-4,0,3,3,1,0
1523207200836409,-1,-1,7,1,1,0,-1,-1
1523207200858441,0,-1,-4,-1,-1,-2,-1,-1
1523207200858441,0,1,3,-2,-4,-2,-3,1
1523207200859187,0,-3,-5,0,-1,1,-1,-1
1523207200859187,-1,0,2,0,0,1,0,0
1523207200881536,0,1,-4,2,0,2,0,1
1523207200881536,0,-3,14,-3,-2,-3,-1,-3
1523207200882250,-1,-1,1,-2,-2,-3,-3,-3
1523207200882250,-2,0,-3,-1,-1,-1,-1,-1
1523207200896406,-1,0,2,0,-1,0,0,0
1523207200896406,-1,0,-7,0,1,-1,-2,2
1523207200896406,1,-1,3,0,0,0,0,0
1523207200896406,-1,0,7,-2,-2,0,-3,-1
1523207200918601,2,-2,-5,-3,-3,-2,-2,-3
1523207200918601,-2,-2,0,1,0,-2,-1,-2
1523207200919349,-2,-1,-6,2,-1,1,1,0
1523207200919349,-1,-2,-4,-3,-3,-3,-3,0
1523207200941684,1,-1,0,-3,-4,-6,-4,-2
1523207200941684,-2,-2,-18,2,5,5,1,-1
1523207200942410,0,0,4,1,4,5,1,2
1523207200942410,-1,4,-1,-3,-3,-1,-1,-4
1523207200955478,-3,-7,4,-1,-4,-4,-2,1
1523207200955478,-1,0,-1,-3,-7,-5,-4,-2
1523207200956447,-1,0,-4,1,1,-1,0,0
1523207200956447,0,0,1,2,2,2,2,0
1523207200978504,0,-2,-10,-2,0,-2,-2,0
1523207200978504,-1,-1,4,-2,-4,-6,-2,-3
1523207200979506,-1,-2,-2,-1,0,-1,-1,-1
1523207200979506,-1,-2,5,0,-1,-1,0,-1
1523207201001827,-2,0,-6,-2,-1,0,0,-2
1523207201001827,0,-1,-2,0,1,0,1,0
1523207201002570,0,0,3,-3,-1,-1,0,-1
1523207201002570,-1,-3,-19,-2,-2,-2,-2,-2
1523207201015888,-3,-2,8,0,1,2,1,0
1523207201015888,1,0,4,-2,-5,-3,-2,-1
1523207201016607,-2,-1,-4,-3,-4,-6,-5,-3
1523207201016607,-2,-1,6,3,1,2,2,1
1523207201038668,0,-1,0,-1,-1,-2,-1,-1
1523207201038668,-1,-1,-2,1,2,3,2,0
1523207201038668,1,-1,1,1,1,1,-1,0
1523207201038668,-1,-2,4,-3,-4,-4,-4,-2
1523207201061726,-1,3,-7,0,1,1,-1,0
1523207201061726,3,5,-1,1,-1,1,0,0
1523207201062728,-5,-7,-16,-7,-7,-6,-3,-4
1523207201062728,-1,-1,4,-4,-2,-3,-2,-2
1523207201076040,-2,0,2,3,1,0,0,-2
1523207201076040,-1,3,0,1,0,-1,-1,0
1523207201076766,-1,0,1,1,0,2,0,-2
1523207201076766,0,-2,-1,-2,-2,0,0,-1
1523207201099091,-1,-2,-1,-4,-3,-3,-2,-1
1523207201099091,0,-4,0,1,1,2,0,1
1523207201099091,-1,1,-2,0,2,0,1,0
1523207201099091,0,-2,1,0,0,1,-2,0
1523207201121887,-1,-1,-9,-5,-4,-3,-2,-1
1523207201121887,-3,-3,0,-2,-2,-2,-3,-2
1523207201121887,-2,-2,0,1,1,2,0,1
1523207201121887,1,-1,-1,2,1,2,-1,2
1523207201144181,-1,-2,5,-3,-1,-1,-1,-1
1523207201144181,-1,-2,-3,-3,-4,-6,-2,-2
1523207201144951,-1,-1,-2,1,-6,-3,-3,-1
1523207201144951,-1,0,4,1,1,0,0,-1
1523207201158229,1,-1,-2,-1,1,2,0,-1
1523207201158229,-2,-1,-5,-1,-1,-3,-1,1
1523207201158986,-1,-2,1,-2,-3,-3,-2,-1
1523207201158986,-3,-1,-5,0,0,-1,-2,-2
1523207201182281,-2,-1,-2,0,1,0,-1,0
1523207201182281,-1,-1,0,-1,1,0,1,-2
1523207201182281,-1,-2,-1,-4,-4,-5,-1,0
1523207201182281,-1,-1,2,-3,-5,-5,-3,-3
1523207201196363,-2,1,-5,4,4,2,2,0
1523207201196363,0,0,4,-2,-2,1,-3,-1
1523207201196363,-2,-1,-4,-3,-1,-4,-4,-3
1523207201196363,1,1,0,2,1,1,1,-1
1523207201218427,-2,0,5,1,3,3,1,-1
1523207201218427,0,-2,-5,-2,-2,0,0,-1
1523207201219145,1,2,1,-2,-4,-1,-3,-1
1523207201219145,-2,-5,18,-4,-5,-5,-3,-2
1523207201241481,0,-4,-31,-2,-2,-3,-2,0
1523207201241481,-1,-1,0,0,-2,-1,-2,-1
1523207201242207,1,0,0,1,0,-3,1,-1
1523207201242207,-4,-4,5,-4,0,1,0,-3
1523207201255240,1,-1,2,-1,2,2,1,2
1523207201255240,-1,-2,-2,-3,-4,-1,-1,-2
1523207201257246,-3,-2,-2,-2,-1,0,-1,0
1523207201257246,1,1,-10,0,-2,0,-1,0
1523207201278302,-1,-1,4,-4,-3,-5,-3,0
1523207201278302,-2,-1,-7,0,0,1,2,0
1523207201279304,-1,1,0,2,4,2,1,-1
1523207201279304,-1,1,-9,0,0,0,-2,0
1523207201301668,-3,-2,3,-2,-2,-1,-1,-4
1523207201301668,0,-1,1,0,-2,-3,-3,0
1523207201302368,-2,-3,-1,-5,-6,-4,-2,0
1523207201302368,1,-1,-5,1,0,-2,0,-1
1523207201316564,-1,0,5,5,4,2,1,-3
1523207201316564,-4,-2,0,-3,-3,-3,0,-1
1523207201316564,-2,-1,1,-2,-2,0,-2,-1
1523207201316564,-1,-1,-7,0,0,-2,-1,0
1523207201338496,2,1,1,-1,-3,-1,-1,1
1523207201338496,0,-2,5,1,5,5,1,0
1523207201339463,-2,-3,-5,-3,-2,-2,-3,-2
1523207201339463,0,2,-3,-3,-5,-4,-3,-2
1523207201361522,-1,-4,5,-1,-1,1,-1,-1
1523207201361522,2,6,5,1,2,-1,-1,1
1523207201362525,-1,-2,-12,-2,-1,-3,-1,-2
1523207201362525,-3,-2,1,-4,0,-2,0,-2
1523207201376611,-1,1,-3,2,-2,0,0,1
1523207201376611,0,0,-5,0,-2,-3,-2,-3
1523207201376611,0,1,14,2,2,2,-1,-2
1523207201376611,0,-1,-6,-1,-2,-3,0,1
1523207201398917,-2,0,-2,-2,-4,-4,-2,0
1523207201398917,-3,-7,-11,1,4,5,2,1
1523207201398917,0,1,-3,0,-1,-1,-1,-1
1523207201398917,-1,-1,-1,-1,-1,1,-1,-1
1523207201421717,-1,-2,4,-4,-4,-4,-2,-3
1523207201421717,-2,-1,2,-5,-7,-7,-3,-2
1523207201422683,-2,-3,-5,1,3,0,2,-1
1523207201422683,1,-1,6,4,5,2,4,1
1523207201435980,1,1,-4,-1,0,0,0,-2
1523207201435980,-1,-2,-6,-4,-4,-4,-3,-3
1523207201436724,-1,-1,4,0,-3,-1,-1,-2
1523207201436724,-1,0,-3,-1,-1,0,-2,-1
1523207201459051,-1,-1,-2,-1,-3,-2,-2,-1
1523207201459051,-2,-3,-2,-3,-3,-4,-2,-1
1523207201459051,-2,-2,0,2,0,0,0,-2
1523207201459051,-2,0,-2,-1,0,1,0,0
1523207201482160,0,0,-4,-2,-2,-1,-1,-1
1523207201482160,0,-1,5,1,1,-2,0,-2
1523207201482160,0,-5,-7,-1,0,1,-1,1
1523207201482160,-1,1,-2,-2,-2,-2,-2,-1
1523207201495881,-1,0,4,0,-2,-2,-1,-1
1523207201495881,1,1,-2,-2,-1,0,0,-1
1523207201504101,0,0,2,0,1,-1,1,0
1523207201504101,0,-3,-3,-2,-2,-3,-2,-2
1523207201519033,-1,-4,4,-4,-1,-3,-2,0
1523207201519033,-1,0,-2,3,1,0,-1,-1
1523207201519033,-1,2,9,0,-1,1,0,-2
1523207201519033,-1,-7,-8,-1,-1,2,-1,-1
1523207201542258,-1,-1,-3,-2,-1,-2,-2,-1
1523207201542258,-1,-3,0,-1,-1,1,-1,-1
1523207201542258,-1,0,-6,-1,0,0,0,1
1523207201542258,0,0,-2,0,-1,-3,-2,-1
1523207201555038,-1,0,-1,1,2,2,0,0
1523207201555038,-2,-2,-4,-4,-3,0,0,-1
1523207201563335,-1,0,0,-3,-7,-5,-5,-3
1523207201563335,1,0,-1,2,1,0,0,0
1523207201578349,-1,1,0,4,4,3,2,-2
1523207201578349,-1,0,8,-1,-2,-1,1,-1
1523207201579102,-3,-3,-17,-2,-3,-2,-1,-1
1523207201579102,-1,0,12,-2,-3,-1,-1,0
1523207201602239,0,-5,-3,-1,-2,-3,-2,-1
1523207201602239,0,-1,0,-2,0,-1,-2,-2
1523207201602239,-1,0,5,-2,-2,-1,1,-2
1523207201602239,-1,-2,-5,1,4,1,-1,0
1523207201615474,0,0,-2,-3,-3,-1,0,-1
1523207201615474,-2,-2,2,-4,-6,-6,-5,-2
1523207201623422,2,-1,2,2,2,0,-1,-2
1523207201623422,1,0,-1,-1,-1,2,2,0
1523207201638258,-2,-1,-1,-2,-2,-1,-1,0
1523207201638258,0,1,-2,1,3,0,-1,1
1523207201639261,0,0,-9,-4,-3,-4,-2,-1
1523207201639261,-2,-4,5,-4,-2,-2,-3,-2
1523207201661319,-1,-1,-4,-2,1,-1,-1,0
1523207201661319,1,-2,-4,0,-2,0,-1,-1
1523207201662322,-2,-1,1,-1,0,-1,0,-1
1523207201662322,-2,-1,-3,1,0,-1,-1,0
1523207201675653,0,2,1,-6,-7,-5,-3,-2
1523207201675653,-2,1,0,0,3,3,0,-3
1523207201683659,1,0,-3,2,3,5,1,1
1523207201683659,-2,1,2,-3,-3,-3,-1,-1
1523207201698697,-2,-1,15,0,-3,-2,-2,-1
1523207201698697,-1,-4,-28,-2,-2,-2,-1,0
1523207201699422,-2,-1,10,-1,0,0,-2,-1
1523207201699422,0,-1,-13,1,2,1,1,-1
1523207201721480,-1,3,10,-1,-2,0,0,0
1523207201721480,-1,-1,4,-3,-3,-1,-1,0
1523207201722483,0,-2,-3,0,-3,-2,1,0
1523207201722483,-2,-1,0,0,-2,-2,-2,-2
1523207201735812,-2,-1,-9,2,4,2,0,-2
1523207201735812,-1,-1,3,-1,-1,-1,-2,-2
1523207201743838,-1,0,-1,-5,-4,-2,-2,-1
1523207201743838,1,1,1,-3,-3,-2,-1,-3
1523207201758858,1,-2,-6,0,0,2,1,-1
1523207201758858,-2,-1,1,-1,-1,0,1,0
1523207201758858,0,-2,3,-2,-2,-4,-2,1
1523207201758858,-1,-1,1,-4,-3,-1,-1,-1
1523207201781935,-1,-4,-8,1,-2,-1,-1,-1
1523207201781935,1,-1,3,4,6,1,2,0
1523207201782643,-1,0,-2,1,0,3,-1,0
1523207201782643,0,-1,-1,-5,-4,-4,-2,-2
1523207201795677,-3,0,4,-1,3,2,2,0
1523207201795677,0,1,5,-1,0,0,1,1
1523207201803887,0,-3,-14,-2,-2,-3,-3,-2
1523207201803887,-2,2,5,2,2,0,2,0
1523207201819019,-1,-3,-5,-5,-6,-6,-5,-2
1523207201819019,-1,1,4,1,-2,-3,-1,-3
1523207201819019,0,-5,-9,1,0,3,1,-2
1523207201819019,0,-3,11,1,1,0,-1,1
1523207201842087,0,-1,-12,-4,-2,-3,-3,-2
1523207201842087,-2,-1,6,0,-1,-3,1,-1
1523207201842087,-1,2,7,-1,-3,-2,-4,-1
1523207201842087,0,1,-13,1,0,0,0,1
1523207201864155,0,-4,2,1,2,2,3,1
1523207201864155,-1,2,14,-2,-2,-2,-1,0
1523207201864864,-1,-1,1,-3,-2,-6,0,0
1523207201864864,-2,-3,-4,-2,-3,-1,-1,-2
1523207201877894,-2,2,1,0,-1,-3,-1,1
1523207201877894,-1,-3,-11,-2,-5,-2,-3,0
1523207201878897,-1,0,5,1,3,0,1,-1
1523207201878897,0,-1,1,2,0,3,1,-2
1523207201902274,0,-1,-3,-1,-3,-1,-2,-1
1523207201902274,-1,-2,-1,-2,-4,-2,-3,-3
1523207201902274,-1,0,2,0,1,1,1,1
1523207201902274,0,0,-4,-4,-5,-5,-2,-1
1523207201924302,-1,-1,0,-2,-1,-1,-1,0
1523207201924302,-1,-1,-6,2,1,1,1,-2
1523207201925021,-2,-1,0,-1,-1,0,0,-1
1523207201925021,-1,-1,-2,-2,-2,-3,-2,-1
1523207201938055,-2,0,-2,2,-1,2,0,-1
1523207201938055,-3,-2,-4,-2,-5,-4,-2,-2
1523207201939055,-1,-1,-2,3,1,0,1,-1
1523207201939055,-1,0,-1,0,1,3,0,-1
1523207201962120,1,-1,-2,-2,-2,-2,-3,0
1523207201962120,-1,0,-3,-2,1,-1,-1,1
1523207201962120,0,-2,-1,-5,-2,-5,-3,-2
1523207201962120,-1,-1,0,-1,-2,-2,-3,-3
1523207201984466,-1,0,0,-1,1,0,-1,-1
1523207201984466,0,-1,-5,0,-1,0,-1,-2
1523207201985183,-3,1,7,-3,-2,-2,-2,-2
1523207201985183,-1,-1,1,-1,2,-1,-2,0
1523207201998376,-1,-3,-5,-4,-2,0,-2,0
1523207201998376,0,-1,5,0,-1,-2,-2,1
1523207201999218,-1,-1,-19,-2,-3,-4,-2,-1
1523207201999218,-2,-5,12,2,0,1,0,-2
1523207202021275,0,0,-1,2,3,2,2,0
1523207202021275,-2,-1,-5,-5,-3,-1,-2,-1
1523207202021275,2,2,6,1,1,2,0,-1
1523207202021275,-1,-1,-7,-3,0,-1,-2,0
1523207202044623,-2,0,-1,-3,-2,-2,-2,-2
1523207202044623,1,-2,4,-3,-1,0,-1,1
1523207202044623,-1,-2,-1,-2,-5,-2,-4,-2
1523207202044623,-1,-1,-8,-1,-2,-2,2,0
1523207202058626,-1,-2,2,-2,2,-1,-1,0
1523207202058626,0,-1,1,1,3,2,1,-2
1523207202059377,-3,-3,2,-2,-3,-3,-2,1
1523207202059377,0,0,-4,-2,-3,-4,-3,-2
1523207202081457,-2,1,2,4,3,3,1,-1
1523207202081457,-3,-1,-4,-3,0,0,-1,-3
1523207202081457,0,-2,0,-3,-4,-1,-2,-1
1523207202081457,-1,-1,-2,-1,0,-2,0,1
1523207202103609,0,-1,1,-2,-3,0,1,-2
1523207202103609,-1,-1,-4,-2,-2,-2,-2,-1
1523207202104497,-1,-2,0,0,0,1,0,-1
1523207202104497,-1,-1,0,-4,-4,-5,-3,-2
1523207202118818,-1,-2,-2,-1,0,-3,-3,0
1523207202118818,-2,-1,0,3,6,5,2,0
1523207202119539,-1,-2,-3,-3,-1,-1,-1,0
1523207202119539,0,3,11,-3,-3,-2,-2,-3
1523207202141612,-3,-5,2,3,2,1,2,1
1523207202141612,-1,-2,-2,-2,-5,-7,-4,-2
1523207202141612,0,-1,3,-2,-3,-3,-3,-3
1523207202141612,0,0,-3,3,3,4,2,1
1523207202164703,0,3,7,-1,-2,1,-2,0
1523207202164703,-1,-1,-1,-5,-4,-3,-2,0
1523207202164703,-2,-1,-2,0,-2,0,2,-2
1523207202164703,-2,0,7,3,3,1,0,2
1523207202178831,0,-3,-24,2,3,6,2,-1
1523207202178831,-5,-2,5,-4,-3,-4,-3,-4
1523207202178831,1,-2,-5,-4,-4,-4,-2,-2
1523207202178831,-2,-1,-3,-2,-3,-4,-2,-2
1523207202201072,-1,-1,-7,-2,-3,-3,0,1
1523207202201072,-1,-1,-5,0,1,-1,0,0
1523207202201757,-2,0,5,0,-1,-1,-1,-1
1523207202201757,-1,-1,-6,1,0,-1,1,-3
1523207202224125,0,-1,-1,1,2,1,0,1
1523207202224125,1,3,6,1,-1,2,1,0
1523207202224820,-2,-4,-6,-1,-1,-1,0,-1
1523207202224820,-1,0,-8,-4,-4,-2,-3,-1
1523207202237851,-3,-2,7,-4,-5,-5,-3,-3
1523207202237851,0,-1,-2,-3,0,-1,0,-1
1523207202238855,1,0,-4,2,3,2,0,0
1523207202238855,-1,-3,-1,-1,-2,-1,-1,-2
1523207202260912,-1,0,3,2,-4,-3,-1,-1
1523207202260912,-1,-3,-6,0,-2,-1,-1,0
1523207202261914,-2,-2,-2,-1,1,-1,0,-1
1523207202261914,-1,-1,0,-1,-2,0,-1,-1
1523207202285273,-1,1,4,-2,-3,-2,-1,-2
1523207202285273,1,-3,0,0,0,-1,1,0
1523207202285273,-1,1,1,-1,-1,0,-1,2
1523207202285273,1,1,18,1,0,-1,-1,-3
1523207202298280,-1,-6,-31,-3,1,3,1,-1
1523207202298280,0,0,7,-1,-3,-2,-1,-3
1523207202299013,-1,-1,1,-2,-1,-3,-2,-1
1523207202299013,-1,-1,-4,0,-1,0,0,0
1523207202321112,-1,1,5,0,-2,-1,0,0
1523207202321112,0,-1,-9,-4,-3,-3,-3,-2
1523207202321112,-1,4,17,0,-3,-2,1,-1
1523207202321112,-1,-5,-29,-2,0,2,2,0
1523207202344133,-3,-3,20,-2,-3,-3,-2,-2
1523207202344133,-1,1,-7,0,1,-1,1,1
1523207202345135,-2,-3,13,-1,-2,-3,-2,-3
1523207202345135,0,1,-3,-1,-2,-2,-2,-1
1523207202358416,0,-1,-2,1,2,2,1,-1
1523207202358416,-3,-2,-2,-1,-2,-1,-2,-1
1523207202359172,-1,0,-5,-1,-1,1,-1,-1
1523207202359172,-2,-2,1,-1,0,0,-2,1
1523207202381382,0,-1,1,-2,-4,-3,-3,-3
1523207202381382,-3,-1,-1,1,0,0,0,-1
1523207202381382,1,-1,-8,1,3,2,2,-1
1523207202381382,0,0,-1,-2,-2,1,0,-1
1523207202403653,-1,-1,0,-3,-5,-6,-4,-1
1523207202403653,0,-1,-3,1,-2,-3,-3,-2
1523207202404656,0,-1,-4,0,0,1,-1,-1
1523207202404656,-1,-1,-1,0,1,-1,0,-1
1523207202418963,0,3,-1,0,0,-2,-3,0
1523207202418963,-1,-2,-2,-2,-4,-1,-2,-3
1523207202418963,0,-1,-5,-1,2,0,-1,0
1523207202418963,-2,-2,-1,-1,-1,1,-1,-1
1523207202441042,-2,1,3,-3,-1,-2,0,-2
1523207202441042,-1,-1,-6,-1,1,1,-1,1
1523207202441757,-1,-2,0,-1,-3,0,-3,-1
1523207202441757,-2,-1,1,-1,-2,-2,-2,0
1523207202464084,1,-3,-4,-2,-2,-3,-2,-2
1523207202464084,-1,0,3,0,-3,1,1,-1
1523207202464817,-1,-3,-4,1,1,-2,1,0
1523207202464817,-2,-1,-2,-4,-2,-1,-3,-1
1523207202477851,0,-2,-5,1,-4,-2,-1,0
1523207202477851,-2,0,2,0,2,0,-1,-1
1523207202486178,1,0,-6,0,0,2,1,1
1523207202486178,0,-1,2,-1,-3,-2,-3,-1
1523207202501224,-1,0,0,-2,3,2,3,-1
1523207202501224,-2,-3,-8,0,-4,-3,-2,-1
1523207202501916,-3,0,3,-1,-3,-2,-1,-2
1523207202501916,1,-1,-3,-2,-2,-3,-2,-1
1523207202532227,-2,-1,3,1,1,0,-1,-1
1523207202532227,-1,1,-2,2,6,6,3,3
1523207202532227,-2,-3,-10,-4,-3,0,-3,-3
1523207202532227,-1,1,0,0,-4,-4,-3,-1
1523207202538008,1,-2,-1,-1,-2,-1,-2,-3
1523207202538008,0,1,-7,-1,-1,-1,-1,-2
1523207202546308,-1,4,4,2,0,-2,0,1
1523207202546308,-4,-15,-3,-5,-2,-3,-1,-2
1523207202560678,-1,0,-3,0,-1,-2,-2,-2
1523207202560678,-1,-1,3,-1,-2,-1,1,-1
1523207202561434,-2,0,1,-1,-4,-3,-2,0
1523207202561434,1,1,0,-2,-2,-2,-2,-1
1523207202584650,0,0,0,3,5,2,4,0
1523207202584650,-1,-2,0,-2,1,-2,0,-1
1523207202584650,-1,-3,-1,-3,-3,-1,-1,-2
1523207202584650,-2,0,-8,-1,-4,-3,0,-1
1523207202597806,-1,-3,6,-1,-1,-3,-4,-1
1523207202597806,-1,1,-1,-1,-1,2,-1,1
1523207202606604,-1,-3,-3,-1,0,1,1,2
1523207202606604,0,2,-3,0,-1,1,-2,1
1523207202620589,0,-1,0,-1,-2,-1,-2,-1
1523207202620589,-2,-3,1,-2,0,-3,0,0
1523207202621591,0,0,-2,-2,-2,-5,-2,-1
1523207202621591,-2,-2,8,-1,-2,0,1,-2
1523207202643963,-2,-1,-8,-5,-5,-1,-1,0
1523207202643963,-2,-1,-1,0,-1,-3,-4,-2
1523207202644653,-2,-4,-7,2,6,5,3,0
1523207202644653,0,4,11,1,1,1,1,1
1523207202657946,-1,0,-2,-3,-5,-4,-2,-3
1523207202657946,1,-3,-1,-2,-3,-2,0,-1
1523207202665980,1,7,2,0,-2,-1,-3,-1
1523207202665980,-4,-7,4,-4,-1,-2,-2,-3
1523207202681060,-1,-1,3,0,-1,0,-1,-1
1523207202681060,0,-1,-1,2,2,1,0,-1
1523207202681753,-1,-1,2,-1,-1,0,0,0
1523207202681753,1,4,-5,0,0,2,1,0
1523207202703811,0,0,-3,-3,-6,-5,-3,-1
1523207202703811,-2,-1,-3,-2,-2,-2,-3,-2
1523207202704813,0,-1,-1,3,3,5,3,0
1523207202704813,1,0,-4,1,0,0,-2,-1
1523207202718132,-1,-1,-2,-3,-3,-2,-2,-2
1523207202718132,1,-1,-1,0,-1,0,-2,-1
1523207202726139,-2,-1,0,-2,-2,-2,0,-1
1523207202726139,-2,0,-4,-2,-2,-2,-2,-2
1523207202741196,-2,-1,1,2,2,2,-1,0
1523207202741196,0,0,0,1,-1,1,0,0
1523207202741913,-1,-4,-2,-5,-4,-6,-4,-2
1523207202741913,0,0,-4,1,0,0,-1,0
1523207202764235,-2,-1,-3,-1,-1,-2,-1,0
1523207202764235,-2,2,0,1,3,3,3,-1
1523207202764973,1,-1,-8,-1,-2,-1,-2,0
1523207202764973,-2,-1,19,-5,-5,-4,-4,-3
1523207202786316,0,-1,-2,2,1,2,1,-1
1523207202786316,1,1,-2,1,-1,-2,0,0
1523207202787033,-2,-3,-4,-1,-3,-2,-3,-1
1523207202787033,0,1,-4,-1,0,-1,1,1
1523207202801410,-2,-3,-1,-1,-3,0,-2,-1
1523207202801410,0,-2,3,-3,-1,-4,-2,-1
1523207202801410,1,-1,0,-2,1,-1,0,-1
1523207202801410,-1,2,-8,3,0,1,0,0
1523207202824358,1,1,-1,0,0,-2,1,-2
1523207202824358,0,-2,-4,-2,-5,-2,-1,-1
1523207202825134,-1,-1,-1,-3,-2,-2,-1,-1
1523207202825134,-1,-3,-6,1,-2,0,0,-2
1523207202847239,-3,-2,1,0,1,2,2,1
1523207202847239,-1,-3,-6,-1,-2,-3,-2,0
1523207202847239,-1,-1,2,-2,-2,-5,-1,-2
1523207202847239,0,-2,-1,-2,-3,-2,-1,0
1523207202861228,0,-1,0,0,0,-1,-2,-1
1523207202861228,0,0,-1,2,3,2,2,-1
1523207202861228,0,0,0,-3,-1,2,-1,-2
1523207202861228,-1,-1,-5,-3,-1,-2,-1,-1
1523207202884572,-1,0,-3,-2,-3,-2,-2,-1
1523207202884572,-1,-2,2,-1,-2,-2,-1,-3
1523207202884572,0,-2,-1,-3,-2,-1,0,0
1523207202884572,-2,0,-6,-2,-2,-1,-2,0
1523207202906633,-1,-1,4,-2,-2,-3,-1,0
1523207202906633,0,-2,-8,-4,-3,-2,-4,-1
1523207202907356,-1,0,1,1,0,1,1,0
1523207202907356,0,1,-5,-3,2,-1,1,0
1523207202920388,-1,-2,0,-3,-3,1,-1,1
1523207202920388,-2,-1,1,0,-2,0,-1,0
1523207202921388,0,-2,2,-1,-2,-1,-2,-1
1523207202921388,-1,1,1,-1,0,-1,-3,-1
1523207202944543,0,-2,-6,0,-1,-1,-1,-2
1523207202944543,-1,1,0,-2,-3,-3,-1,-3
1523207202944543,0,-1,-2,0,-3,-2,-1,0
1523207202944543,-2,1,1,-2,-2,-3,-1,-1
1523207202966768,-1,0,2,0,3,3,3,1
1523207202966768,-1,-5,-8,-2,-1,-1,0,1
1523207202967513,-1,0,5,0,-2,-2,0,-2
1523207202967513,1,-2,-3,1,-1,-1,0,0
1523207202981596,0,-3,-5,-1,-1,-3,-2,-2
1523207202981596,-1,0,2,-3,-3,-3,-3,0
1523207202981596,-1,0,-4,2,1,1,0,0
1523207202981596,0,-3,-1,0,-1,-1,0,-1
1523207203003607,-1,0,0,-1,0,0,-3,-1
1523207203003607,0,-1,-3,-2,-1,-1,-1,-2
1523207203004609,-1,0,2,-5,-7,-5,-5,-1
1523207203004609,-2,-5,-7,0,0,-2,-2,-1
1523207203026670,-2,1,-3,5,7,8,6,2
1523207203026670,-1,-2,7,-3,-3,0,-2,-1
1523207203027672,-1,-3,-6,-4,-2,-2,-2,-2
1523207203027672,-1,-2,-3,-3,-3,0,-2,-2
1523207203040971,-1,-1,0,-1,0,-3,-1,-1
1523207203040971,-1,0,-1,1,2,1,1,1
1523207203041709,-3,-3,-5,-2,-2,-1,-1,-1
1523207203041709,2,-1,-1,-1,-2,-5,-2,0
1523207203064059,-2,-4,1,0,-4,-3,-2,-2
1523207203064059,-1,4,-15,-2,3,2,4,0
1523207203064770,1,-7,-10,-2,-1,-2,-3,-1
1523207203064770,-3,0,-23,1,2,2,2,-1
1523207203086828,-1,0,21,-3,-2,0,1,0
1523207203086828,0,-1,2,-3,-2,-2,-3,-2
1523207203086828,-1,0,1,0,-1,-1,-1,0
1523207203086828,0,2,1,1,1,-1,0,1
1523207203101185,-1,-3,-2,-3,-1,-2,-2,-2
1523207203101185,-2,-3,-2,-1,-1,-2,1,-3
1523207203101869,-1,2,2,2,0,0,0,-2
1523207203101869,-3,-3,3,1,0,2,2,0
1523207203124188,0,-2,-10,-2,-3,-2,-3,-2
1523207203124188,0,-3,6,-2,-1,-3,-3,0
1523207203124930,-2,-1,2,-1,-2,-3,-1,1
1523207203124930,0,0,4,-3,0,-3,-2,-2
1523207203147222,0,0,-5,1,0,0,0,0
1523207203147222,0,0,-2,0,0,1,-2,1
1523207203147996,0,0,1,1,3,3,2,0
1523207203147996,0,0,2,-1,-5,-2,-1,0
1523207203160024,-1,-3,-7,-4,-2,-4,-2,-1
1523207203160024,1,0,3,0,-2,0,0,0
1523207203169046,1,-2,-4,-1,-2,0,-1,0
1523207203169046,2,1,9,0,-1,0,-1,0
1523207203184366,-2,-2,-6,-3,-3,-3,-2,-3
1523207203184366,-2,-2,0,2,-1,-2,0,-1
1523207203185092,-1,0,5,-1,-1,0,0,-1
1523207203185092,-1,-1,-7,2,4,2,1,0
1523207203206437,1,1,0,-4,-4,-3,-1,-1
1523207203206437,-2,-3,-2,-2,-2,-1,-3,-1
1523207203208151,-1,0,2,2,0,-1,1,0
1523207203208151,-1,-2,0,-4,-7,-3,-1,-3
1523207203220182,-2,-2,-3,0,1,-1,0,-2
1523207203220182,-2,0,0,2,6,4,1,1
1523207203229207,-1,1,-2,-2,-1,-1,-3,-1
1523207203229207,-1,-3,0,-3,-2,0,-2,1
1523207203244545,-1,-1,-5,-3,-2,-2,-4,0
1523207203244545,0,0,0,-4,-4,-3,-1,0
1523207203245250,-2,-2,0,0,1,1,1,-3
1523207203245250,-1,0,1,0,-3,-3,-1,1
1523207203266623,-1,0,0,-2,-1,-1,-2,-2
1523207203266623,2,-1,2,4,7,5,2,0
1523207203268310,-1,1,-6,-1,-2,0,0,-1
1523207203268310,0,-2,4,-3,-5,-3,-2,-2
1523207203280640,-2,-1,-3,1,-1,-2,-1,-2
1523207203280640,-1,-1,-4,0,-3,0,-1,-1
1523207203289368,-1,-3,-2,-1,0,-1,1,-2
1523207203289368,0,-1,2,0,-1,1,1,1
1523207203303403,-2,-1,-1,-4,-5,-3,-3,-1
1523207203303403,-2,-1,1,-1,-3,-7,-4,-2
1523207203305416,-2,1,-4,2,3,2,2,2
1523207203305416,-2,-2,9,-4,-1,-1,-1,-1
1523207203326466,0,0,-2,-1,-3,-2,-1,0
1523207203326466,0,-2,-3,-4,-5,-4,-3,-2
1523207203328470,-1,1,1,2,4,4,2,1
1523207203328470,0,0,-3,1,3,1,-1,-4
1523207203340715,-2,-1,-1,0,-1,-1,-2,-1
1523207203340715,-2,-2,3,-3,-3,-4,-3,0
1523207203349532,-1,-2,-10,-3,-5,-5,-4,-2
1523207203349532,0,0,-2,1,3,2,0,-1
1523207203364624,0,-3,2,2,0,-1,1,0
1523207203364624,-1,-1,0,-3,-2,-4,-3,-2
1523207203365571,2,-1,-2,0,0,-1,-1,-1
1523207203365571,-3,-1,-4,-2,1,2,-1,1
1523207203386624,-2,-1,1,-4,-5,-4,-3,-1
1523207203386624,0,-3,-5,0,-2,0,-1,-1
1523207203387628,-2,2,-1,3,6,6,3,1
1523207203387628,-1,-3,0,-2,0,-1,-1,-2
1523207203400752,-2,-1,1,-1,-2,-2,1,1
1523207203400752,-1,-1,-2,-4,-5,-5,-3,-1
1523207203408948,0,0,-5,-2,-5,-5,-2,0
1523207203408948,-3,-1,-6,2,3,2,1,-2
1523207203424611,-1,0,10,1,3,5,1,2
1523207203424611,-1,-2,-5,-2,-2,0,-2,-1
1523207203426991,-1,0,10,-2,-2,-2,-2,-3
1523207203426991,-3,0,-3,-1,-4,-3,-2,1
1523207203447212,-1,-4,-7,-2,-2,-3,-3,-2
1523207203447212,-1,1,3,2,1,2,1,-2
1523207203448789,-2,-2,-1,-2,0,1,-1,-1
1523207203448789,0,-4,0,-3,-3,-1,-2,-2
1523207203460858,-1,1,-6,-3,-1,-2,-1,-2
1523207203460858,0,-1,0,-2,-2,-2,-1,0
1523207203469241,-2,-4,-4,-1,-2,-2,-2,-2
1523207203469241,0,-2,-1,3,1,0,1,-1
1523207203484276,0,1,1,1,0,1,1,1
1523207203484276,-4,-2,-2,-1,-1,-1,-1,-1
1523207203485888,-1,-1,0,-2,-1,-3,-2,-3
1523207203485888,-1,1,-1,-2,-1,-2,-3,-2
1523207203507299,0,-2,-7,0,1,-1,-1,-1
1523207203507299,0,0,3,-1,-1,0,-2,-1
1523207203507948,-3,-2,-2,-3,-3,-1,-2,-3
1523207203507948,1,-1,2,2,2,1,1,-1
1523207203520014,-2,-3,1,-1,-1,1,-2,-3
1523207203520014,-1,-2,-6,-1,-2,-1,-1,0
1523207203529008,0,-1,2,-2,-6,-7,-4,-2
1523207203529008,1,0,-4,-2,-4,-3,-1,1
1523207203544230,0,0,-1,3,4,4,1,-3
1523207203544230,2,0,0,4,6,5,3,4
1523207203545047,-1,-1,1,-5,-2,-1,-2,-2
1523207203545047,-1,0,0,-2,-1,-4,-1,-1
1523207203567196,-4,-1,-2,-3,-5,-4,-3,-3
1523207203567196,-3,-2,-2,-2,-6,-4,-1,-1
1523207203568109,-1,0,-2,-1,-2,-3,-1,1
1523207203568109,-2,-1,-2,0,0,0,1,0
1523207203580397,0,-1,-1,2,3,2,0,0
1523207203580397,0,-2,1,-1,-1,0,0,-2
1523207203589164,1,-2,0,2,2,1,1,0
1523207203589164,-1,-2,-3,-2,-3,0,-1,-1
1523207203604202,-1,-2,-1,-3,-4,-5,-3,-1
1523207203604202,-1,0,-1,2,1,-1,-1,-1
1523207203605205,-1,-2,-1,1,0,0,-1,-1
1523207203605205,-1,-2,1,-1,-2,-1,0,0
1523207203626472,-1,0,-3,-2,-5,-1,-2,-2
1523207203626472,-2,-1,0,1,1,2,0,-2
1523207203628269,1,2,0,0,2,1,0,0
1523207203628269,-2,1,-3,-1,-1,1,-1,-2
1523207203640496,0,-1,1,0,-1,-3,0,-2
1523207203640496,-1,-2,-2,-4,-4,-4,-4,-1
1523207203649325,-2,-2,-3,-3,-2,-2,-1,-1
1523207203649325,1,-1,-1,-1,-1,-2,-3,0
1523207203664580,-1,1,0,1,1,1,0,-1
1523207203664580,0,1,0,1,0,1,-1,0
1523207203665368,-2,-2,0,-2,-2,-1,-1,-1
1523207203665368,-1,-1,0,-3,-3,-2,-1,-1
1523207203686429,-3,-2,0,-1,-1,0,-1,1
1523207203686429,1,0,-3,-1,0,-1,1,-1
1523207203688427,0,1,-1,0,-1,1,0,-1
1523207203688427,-3,-3,2,-3,-3,-4,-1,-4
1523207203700787,0,-2,-2,1,1,-1,-1,0
1523207203700787,-1,1,-2,-1,-1,-2,-2,-1
1523207203709484,-2,0,1,-2,0,1,0,-1
1523207203709484,-1,-2,-7,0,0,2,0,-1
1523207203724627,1,1,4,-2,-3,-2,-2,-1
1523207203724627,-1,-1,0,-3,0,0,0,-1
1523207203725526,-1,-2,0,-2,-2,-2,-3,0
1523207203725526,-2,-2,-10,0,0,-1,-2,-1
1523207203746821,-1,-1,4,-2,-1,-1,-1,-3
1523207203746821,-1,-2,-5,-1,-4,-3,-2,-1
1523207203747586,-3,-2,5,0,-1,-2,-2,-1
1523207203747586,0,1,3,2,3,1,0,-1
1523207203768894,-2,-1,-6,1,-1,1,1,2
1523207203768894,-1,-2,-7,-1,0,0,-2,-1
1523207203770646,-2,-2,-4,-1,-2,-1,-1,-1
1523207203770646,-2,-2,-4,-1,-1,-2,-1,0
1523207203783944,1,8,21,-1,-2,-2,1,1
1523207203783944,-6,-6,-21,-4,-3,-2,-2,-2
1523207203785687,3,0,2,1,0,-1,0,1
1523207203785687,-2,-2,-1,-2,-3,-2,0,-1
1523207203806989,1,2,10,0,-5,-3,-4,-2
1523207203806989,0,-1,5,2,0,-1,-1,-3
1523207203807752,1,2,-3,6,8,7,5,1
1523207203807752,2,0,8,-2,0,1,-1,1
1523207203829077,-3,-7,-16,-4,-3,-4,-4,-1
1523207203829077,-2,2,6,-3,-2,-2,0,0
1523207203830806,-4,-4,-8,-3,-4,-7,-4,-3
1523207203830806,0,0,0,2,1,0,-1,-2
1523207203843848,-1,-2,-8,-2,0,0,-1,1
1523207203843848,0,-2,-3,-3,-5,-3,-3,-1
1523207203845845,0,1,8,4,4,5,3,-1
1523207203845845,-1,2,-3,-2,0,0,1,1
1523207203867137,-3,-3,-7,-5,-3,-5,-4,-2
1523207203867137,0,-2,6,0,2,1,0,0
1523207203867912,-2,-2,-6,-5,-4,-2,-3,0
1523207203867912,-2,-2,0,-3,-2,-4,-2,-2
1523207203889250,0,-2,-5,2,4,4,2,-2
1523207203889250,0,0,3,1,1,1,0,-1
1523207203890965,-1,-3,-9,-3,-4,-4,-2,-3
1523207203890965,-1,-1,1,-2,-6,-2,-4,-2
1523207203903005,-1,-2,0,-1,-1,-2,-3,-2
1523207203903005,-1,-2,-2,3,6,4,3,1
1523207203910025,-1,0,0,0,2,1,-1,0
1523207203910025,-2,-2,10,-3,-1,-1,-3,-2
1523207203926063,0,-1,-3,-2,-1,0,0,-3
1523207203926063,-1,-1,-3,-3,-7,-5,-3,-2
1523207203928064,-2,-2,-3,-2,-4,-3,-2,-3
1523207203928064,1,0,8,3,3,2,2,1
1523207203949382,1,-1,-18,-1,0,-1,0,-1
1523207203949382,-1,2,-5,-3,-2,-2,0,-2
1523207203950124,1,-3,3,0,0,-4,-2,-1
1523207203950124,-1,1,-3,1,1,2,3,-1
1523207203963410,-2,0,1,-2,-1,-2,-2,-1
1523207203963410,1,3,3,0,-1,-1,-1,-2
1523207203970175,-3,-9,-15,-2,-1,2,1,-1
1523207203970175,1,-3,-6,0,-4,-4,-4,0
1523207203986219,-1,-1,-1,1,1,0,0,0
1523207203986219,0,0,6,-3,-3,-3,-2,0
1523207203988224,0,2,-2,-2,-4,-3,-2,-1
1523207203988224,-1,0,23,1,2,1,0,-1
1523207204009526,-4,-2,0,-4,-1,-2,1,-1
1523207204009526,0,-1,8,1,-1,-2,1,-1
1523207204010284,0,1,-4,0,-1,1,-1,0
1523207204010284,0,-1,-3,-2,0,0,-2,1
1523207204023515,-2,4,12,-1,-4,-3,-2,-2
1523207204023515,0,-3,-9,0,0,1,0,0
1523207204030484,-1,2,22,-4,-3,-3,-2,-1
1523207204030484,1,0,-10,-1,-1,-2,-1,0
1523207204046624,0,2,3,2,1,1,1,0
1523207204046624,-2,-7,-3,-3,-1,-1,-1,-1
1523207204048385,0,2,-4,2,1,1,1,0
1523207204048385,-3,-2,-9,-3,-2,-2,-1,1
1523207204068630,0,-1,1,-2,-1,0,0,0
1523207204068630,-1,2,0,1,1,0,-3,0
1523207204070442,-2,1,7,-3,-5,-4,-3,-1
1523207204070442,-1,-1,2,0,-2,0,-1,-3
1523207204083760,0,-9,-26,1,0,1,0,0
1523207204083760,-3,0,2,-1,-1,-2,1,-1
1523207204090718,-1,-4,1,-1,-2,-3,-1,-3
1523207204090718,0,0,-8,-2,1,2,0,-1
1523207204106775,-1,-3,6,-2,0,-2,-1,1
1523207204106775,1,0,1,-4,-5,-5,-5,0
1523207204108543,-1,1,-1,2,2,4,1,-1
1523207204108543,-2,-2,3,2,2,1,2,-1
1523207204129670,-3,-1,-3,-2,-3,-3,-3,-1
1523207204129670,-1,-1,-1,-4,-2,-2,-3,-1
1523207204130604,-1,0,-3,-1,-1,-3,-1,-1
1523207204130604,0,-2,-7,-1,-1,0,-1,-1
1523207204143781,-2,-2,1,-3,-2,1,-2,-2
1523207204143781,0,0,-5,0,-2,-1,0,0
1523207204150711,0,-3,-3,-2,-4,-5,-1,0
1523207204150711,-1,-2,-5,-4,-2,-2,-1,-2
1523207204167003,1,-1,-4,3,6,4,5,3
1523207204167003,-2,-2,15,-2,-2,2,0,-2
1523207204167706,0,-1,-9,-1,-2,-1,-5,0
1523207204167706,-1,0,-5,-1,-2,0,-1,-2
1523207204189060,1,1,3,-1,-4,-4,-4,-2
1523207204189060,-2,-4,-8,-2,-1,-2,0,-1
1523207204190763,-1,-1,15,-1,-1,0,0,-1
1523207204190763,0,-4,-34,-3,-3,-4,-1,0
1523207204203796,-1,0,2,1,1,-2,-2,-2
1523207204203796,0,1,1,3,1,1,1,1
1523207204209817,-1,1,-2,-3,-2,-2,0,-2
1523207204209817,1,1,9,1,-1,0,1,0
1523207204226992,-2,-2,-7,-1,1,0,-1,0
1523207204226992,-1,1,-4,0,2,1,1,-1
1523207204227863,0,-2,0,0,-1,2,1,0
1523207204227863,-1,-1,6,0,-1,-1,-2,-2
1523207204249183,-1,0,-3,0,-2,0,-2,-2
1523207204249183,-2,-4,-4,-2,-2,-3,-2,-3
1523207204250922,1,0,-2,0,1,1,-2,-1
1523207204250922,-1,3,2,-2,0,1,1,0
1523207204263217,-1,-4,-1,-3,-5,-4,-5,-2
1523207204263217,-2,0,0,0,-1,-1,0,0
1523207204271977,-1,2,7,-1,1,0,-1,-1
1523207204271977,-4,-8,-28,-6,-5,-4,-4,-3
1523207204286019,-2,-1,9,0,0,-1,0,-2
1523207204286019,1,0,-2,3,4,5,3,0
1523207204288020,-2,0,0,-3,-2,-2,-3,-2
1523207204288020,1,-1,4,2,0,1,-1,-1
1523207204309080,-1,1,8,-3,-2,-2,-2,0
1523207204309080,-2,-2,-6,-4,-5,-5,-3,-3
1523207204310085,-2,-3,-3,0,0,-1,1,-1
1523207204310085,1,1,7,1,-2,-1,0,0
1523207204323316,-2,-4,-7,-2,-3,-2,0,0
1523207204323316,0,-2,-4,0,-1,-2,-3,0
1523207204332139,-2,-1,-7,1,3,0,1,-2
1523207204332139,-2,0,4,-2,0,1,-2,-1
1523207204346460,0,2,-11,-1,0,2,2,1
1523207204346460,-1,-2,4,-2,-4,-4,-3,-2
1523207204348184,-1,1,-4,-1,-3,-6,-3,-2
1523207204348184,0,-5,-8,2,4,1,2,-1
1523207204369241,-1,-2,2,1,1,3,3,-2
1523207204369241,1,0,-1,-2,-2,0,-1,0
1523207204370240,2,-4,5,-4,-4,-3,-2,-1
1523207204370240,-2,1,2,-2,-4,-4,-4,-2
1523207204383274,0,-1,-2,2,2,0,2,0
1523207204383274,-1,-2,2,0,0,2,1,-1
1523207204391526,-1,-2,-4,-2,-1,1,-1,1
1523207204391526,0,0,8,-1,-3,-3,-2,-2
1523207204406581,0,-3,-2,-1,1,-1,-2,-2
1523207204406581,0,1,-4,1,0,-2,-1,-1
1523207204408340,0,-2,-7,-1,-3,-1,0,-2
1523207204408340,-3,1,0,-1,-3,-1,-2,1
1523207204429397,-2,0,3,2,1,1,-2,-2
1523207204429397,0,0,0,0,-1,1,0,0
1523207204430401,-1,-1,-6,1,1,1,0,0
1523207204430401,-2,-2,10,-5,-6,-3,-1,-2
1523207204443446,-1,-3,-8,-2,-3,-7,-3,-3
1523207204443446,-2,1,6,3,4,5,4,1
1523207204451573,1,-1,-3,-4,-5,-2,-3,2
1523207204451573,-2,-5,-13,1,-1,-2,-2,-2
1523207204474603,-1,0,19,0,2,3,2,2
1523207204474603,-2,-3,-5,-6,-6,-4,-4,-2
1523207204475521,-1,0,-1,-2,1,-2,-1,-2
1523207204475521,-1,0,-1,-1,1,0,-1,0
1523207204489556,1,2,1,-2,-3,-4,-4,-3
1523207204489556,-4,-12,-23,-1,-1,-1,-1,0
1523207204490561,-3,1,4,0,-3,-1,2,0
1523207204490561,0,0,6,0,2,0,0,-1
1523207204502592,-1,-1,-4,-1,0,1,-1,-1
1523207204502592,2,2,2,-2,-2,-3,-3,-1
1523207204511615,-1,-2,-5,-3,-2,-1,-3,-1
1523207204511615,-1,-2,-2,0,2,1,0,-1
1523207204526659,0,-1,-8,-1,1,1,1,0
1523207204526659,-1,-2,2,-2,-3,-1,-1,-2
1523207204528659,-1,-3,9,-1,-1,0,0,-1
1523207204528659,-1,0,-2,-2,-5,-4,-2,0
1523207204548969,-1,-5,-3,-1,-2,-1,0,-2
1523207204548969,-1,0,1,-1,1,0,-1,0
1523207204550720,-1,-3,-7,-3,-1,-4,-2,-4
1523207204550720,-1,-2,2,-1,-2,0,-1,0
1523207204563016,-1,-1,-1,-1,0,1,-1,-1
1523207204563016,-1,-1,-2,-3,-2,-1,0,0
1523207204571776,-3,0,0,-1,-2,-2,-1,-1
1523207204571776,0,0,0,-1,0,-1,-1,-3
1523207204586814,0,1,-1,3,3,1,0,2
1523207204586814,-1,1,3,-1,0,-1,-2,-1
1523207204588820,-1,-6,-5,-3,-2,-2,-2,-4
1523207204588820,-2,-1,8,-4,-8,-7,-5,-2
1523207204608875,-1,2,-6,0,1,0,1,-1
1523207204608875,-1,2,5,3,6,4,3,2
1523207204610881,0,2,11,-1,-3,-1,-1,-1
1523207204610881,-2,-4,-44,-6,-3,-2,-4,-3
1523207204623142,-2,-1,16,1,-2,-3,-1,-1
1523207204623142,1,-1,0,0,-3,-2,0,-2
1523207204631938,1,-2,-5,1,0,1,0,-1
1523207204631938,0,-1,7,1,-1,-1,0,-1
1523207204647265,-2,0,6,-4,-4,-4,-3,-2
1523207204647265,-3,-1,-6,2,2,1,0,0
1523207204647979,-1,-1,-1,3,0,0,1,1
1523207204647979,1,0,5,0,0,0,0,-2
1523207204669037,1,-3,-9,-4,-3,-3,-3,0
1523207204669037,-1,0,6,-2,-3,-2,-2,-1
1523207204670038,-2,-1,-4,-3,1,-1,-2,-1
1523207204670038,-1,-3,-6,0,0,-2,-1,0
1523207204691349,-2,0,2,-3,-4,-4,-2,-2
1523207204691349,-1,-1,1,-2,-1,-1,0,0
1523207204693100,-1,0,-8,1,3,3,0,1
1523207204693100,0,1,4,-2,0,2,0,-1
1523207204707134,-1,-4,-5,-4,-4,-2,-3,-2
1523207204707134,-1,0,-2,-4,-6,-6,-3,-2
1523207204708138,0,-3,-2,-1,1,1,1,-1
1523207204708138,0,0,7,3,4,1,3,0
1523207204729435,2,-1,-5,-2,-4,-4,-2,-1
1523207204729435,0,-2,-1,1,3,2,0,-2
1523207204730197,-1,1,-2,-2,0,2,1,1
1523207204730197,-3,0,-3,-3,-2,-3,-2,-2
1523207204751390,-2,-2,3,0,-1,-1,-1,-1
1523207204751390,-1,-3,-2,0,0,-1,0,-1
1523207204753257,0,-5,-8,-1,0,-1,-1,0
1523207204753257,0,0,2,0,0,1,1,-1
1523207204766542,-1,-1,5,-4,-3,-4,-4,-4
1523207204766542,-3,2,17,-1,-4,-2,-1,-1
1523207204768297,-1,-2,-34,-1,1,0,0,-1
1523207204768297,0,0,5,2,2,2,1,1
1523207204789575,-3,-2,6,1,1,1,1,-1
1523207204789575,0,-3,1,-4,-4,-2,-2,-2
1523207204790357,-2,-1,3,-2,-1,-1,0,-2
1523207204790357,-1,-3,-6,-4,-3,-2,-2,-2
1523207204811672,0,1,-2,0,-1,0,1,-1
1523207204811672,0,-2,-4,-1,-2,-1,0,1
1523207204813416,-1,-2,1,-1,-5,-7,-5,-2
1523207204813416,-2,-2,2,2,4,3,1,-3
1523207204826743,-2,-2,-6,3,5,7,3,2
1523207204826743,-2,-1,2,-5,-2,-1,-2,-1
1523207204828457,0,-1,1,-5,-7,-6,-4,-2
1523207204828457,-2,-4,2,-1,-1,-3,-1,-2
1523207204849573,0,-1,-5,1,-1,2,-1,1
1523207204849573,-1,-3,-11,-2,-3,-2,-2,-2
1523207204850520,1,1,5,0,-3,-2,0,-1
1523207204850520,-3,1,20,1,1,1,1,-1
1523207204871832,-2,-3,-32,-1,-1,-1,-1,-2
1523207204871832,0,0,0,1,0,-1,-1,-1
1523207204872582,-1,-1,5,-1,-1,-1,-4,-2
1523207204872582,0,1,2,-3,-6,-3,-1,-1
1523207204885610,-2,-3,0,-2,-5,-5,-3,-3
1523207204885610,-2,-3,-3,2,4,3,3,0
1523207204892632,-2,1,2,-1,0,1,2,2
1523207204892632,0,-1,-8,-1,-1,-1,-1,-1
1523207204908672,-1,2,4,-2,-2,-2,0,-2
1523207204908672,0,-1,-7,0,-3,-2,-3,-3
1523207204910675,-1,-1,5,1,1,0,0,-1
1523207204910675,-1,-3,-5,-1,2,0,1,0
1523207204931973,-1,-1,2,-2,-2,-1,-3,2
1523207204931973,-1,-1,-2,-2,-3,-3,-3,-1
1523207204932734,-2,-3,0,-2,-5,-4,-2,0
1523207204932734,0,1,-1,0,2,1,0,-2
1523207204946013,-1,-1,2,3,4,4,3,1
1523207204946013,-2,-5,-11,-3,-1,-3,-1,-3
1523207204952786,0,-1,10,-2,-1,1,-1,-1
1523207204952786,-1,-2,-3,-4,-6,-7,-4,-1
1523207204968833,0,-1,2,-1,-3,-6,-4,-3
1523207204968833,-1,2,0,4,4,4,2,2
1523207204970836,0,-2,-5,0,1,0,0,0
1523207204970836,-2,2,25,-3,-5,-2,-2,-1
1523207204991892,-1,-3,-34,-3,-3,-1,-2,-1
1523207204991892,1,3,0,2,0,0,1,0
1523207204992896,-4,-3,16,-3,-2,-5,-2,-2
1523207204992896,-1,-1,8,0,-1,-1,-3,-1
1523207205006177,-2,0,5,-4,-4,-3,-4,-1
1523207205006177,-2,0,-3,-1,0,0,-2,-3
1523207205012948,0,0,-11,2,5,3,3,1
1523207205012948,-1,-2,-7,1,-1,1,0,0
1523207205030039,-1,-2,9,-1,-3,-3,-1,-1
1523207205030039,-1,-4,-4,-1,-3,-4,-2,0
1523207205031002,-1,1,6,0,-2,-1,0,-1
1523207205031002,0,-1,-10,-2,-1,-4,-2,-1
1523207205051124,0,2,5,0,1,0,1,0
1523207205051124,0,3,18,0,0,0,-1,-2
1523207205053059,-2,-7,-45,-5,-4,-3,-1,-2
1523207205053059,1,-2,-4,-1,0,2,-1,0
1523207205066321,-1,0,5,1,2,1,0,-1
1523207205066321,0,1,7,-1,-1,0,-1,0
1523207205073190,0,-1,8,-1,-1,-2,-2,-2
1523207205073190,-2,-3,-14,0,-2,-3,-3,1
1523207205089366,-4,2,23,1,-2,-2,-1,-1
1523207205089366,0,-4,-19,-1,0,1,-1,0
1523207205090158,0,1,-5,0,-3,-2,-2,0
1523207205090158,1,-2,-2,-1,-2,-2,0,-1
1523207205111488,2,3,1,0,2,2,1,1
1523207205111488,-1,-4,13,0,-3,-2,0,-2
1523207205113220,-2,-2,-17,-2,0,-1,-1,1
1523207205113220,-2,0,17,0,-1,-1,0,-1
1523207205126252,-3,-3,-13,-3,-3,-3,-1,-2
1523207205126252,-1,0,6,-2,-4,-6,-4,-4
1523207205133355,0,1,8,5,4,5,2,0
1523207205133355,-1,-1,-5,1,3,4,1,1
1523207205149678,-1,-3,-2,-3,-2,-2,-2,-1
1523207205149678,-2,-1,-9,-3,-3,-4,-3,-2
1523207205150313,0,1,5,0,-1,-3,-3,0
1523207205150313,-1,-1,-9,0,2,2,1,0
1523207205171541,-3,-3,0,-1,1,0,2,0
1523207205171541,1,-2,-8,-4,-4,-3,-2,-2
1523207205173375,-2,0,5,0,2,3,1,-2
1523207205173375,-2,-2,-5,-3,-4,0,0,-2
1523207205185432,2,-2,-4,-2,-1,0,-3,0
1523207205185432,-1,-2,-4,-1,-2,0,-1,2
1523207205194436,-2,0,10,-1,-1,-1,-1,-1
1523207205194436,0,-1,-5,-1,-2,-2,-2,-1
1523207205209707,-2,-1,-2,0,-2,-2,-3,-4
1523207205209707,-2,-2,-7,-1,0,0,1,-1
1523207205215738,-1,-1,6,-1,-2,-1,1,-1
1523207205215738,-2,-2,-17,-3,-1,-2,-1,0
1523207205231753,-1,0,4,0,-1,-1,0,1
1523207205231753,0,-5,-5,0,1,-1,-1,0
1523207205233538,0,2,17,0,0,2,-1,-1
1523207205233538,-2,-2,-31,-5,-4,-4,-3,-2
1523207205245769,-1,-2,-2,-2,-4,-2,-2,-3
1523207205245769,0,2,14,-2,-2,-3,-2,-2
1523207205254589,0,-6,-7,2,-1,-2,-1,-1
1523207205254589,0,-2,6,-1,4,2,1,0
1523207205268638,0,1,2,0,4,3,1,-1
1523207205268638,-2,0,-2,-4,-2,0,-2,-1
1523207205270634,0,-1,-4,-2,-5,-3,-2,-2
1523207205270634,0,1,11,1,-1,-2,0,-1
1523207205291935,-1,-4,-11,1,1,-1,1,1
1523207205291935,1,-1,4,0,1,1,1,-1
1523207205292693,0,-1,-6,-4,-2,-3,-1,0
1523207205292693,-2,-2,1,0,-3,-3,-3,-1
1523207205305869,-2,-1,1,0,-1,0,2,-2
1523207205305869,-1,1,-6,0,1,1,1,-2
1523207205313980,0,0,1,-1,-2,-2,-2,0
1523207205313980,-1,-2,2,0,0,0,0,1
1523207205329079,-1,-3,-2,-3,-5,-5,-4,-2
1523207205329079,-1,1,-1,-1,0,-2,-2,0
1523207205330792,-3,-2,-5,1,0,0,0,-2
1523207205330792,1,0,3,0,-1,0,-1,-1
1523207205351856,2,0,1,3,1,0,-1,2
1523207205351856,-1,-5,-13,-1,2,3,1,1
1523207205352850,0,2,8,-4,-4,-4,-2,-1
1523207205352850,-1,-1,12,0,-4,-5,-2,-2
1523207205365886,-2,1,-6,-2,-2,-3,-2,-2
1523207205365886,0,-3,-18,-1,-1,-3,0,0
1523207205374066,0,-1,-2,0,-1,-2,-2,-1
1523207205374066,0,0,6,0,2,1,1,-2
1523207205389159,0,1,0,-1,1,1,0,-3
1523207205389159,-2,0,-1,-1,-4,-4,-1,-1
1523207205390953,-2,-2,-1,1,0,-1,-1,-1
1523207205390953,0,0,-5,2,4,2,3,1
1523207205412167,0,-1,0,-3,-2,-1,-3,-1
1523207205412167,-2,-1,1,-1,-2,0,-1,0
1523207205413014,-1,-2,-3,-3,-3,-3,-1,0
1523207205413014,-1,0,2,-1,-3,-1,-3,-1
1523207205425267,-1,-1,-4,1,-1,-2,-2,0
1523207205425267,0,0,2,0,-1,-2,-2,-2
1523207205434070,-1,2,7,0,-1,0,1,0
1523207205434070,-2,-3,-4,-1,0,-2,-1,-2
1523207205449342,1,-2,-6,0,3,3,3,0
1523207205449342,-1,1,6,-1,-1,1,1,-1
1523207205451112,-2,-1,-3,-3,-1,-2,-3,0
1523207205451112,-1,0,-14,-2,-3,-2,-2,-1
1523207205472169,-1,3,6,0,-5,-4,-2,-2
1523207205472169,-1,-2,7,1,2,-1,0,-1
1523207205473172,-2,-2,-9,-2,0,0,-2,-1
1523207205473172,-1,0,6,2,0,1,-21,-1
1523207205485210,-2,-3,5,0,4,3,24,0
1523207205485210,0,2,-5,-1,-3,-2,-4,-1
1523207205494228,-1,-2,11,0,-1,0,1,0
1523207205494228,-2,0,-10,-6,-5,-4,-5,-4
1523207205509493,-1,-2,-3,0,-2,-2,-8,-2
1523207205509493,0,0,-4,1,1,-1,2,7
1523207205510273,-1,-3,-1,0,-1,-1,-3,-12
1523207205510273,-2,-2,0,0,1,0,2,-1
1523207205531596,-1,-1,-3,-1,1,2,0,0
1523207205531596,-2,0,3,-1,-3,0,1,1
1523207205533331,-1,1,-8,-3,-6,-7,-7,2
1523207205533331,-2,-1,-3,2,3,0,7,0
1523207205545725,0,0,7,0,0,2,-3,0
1523207205545725,-1,-2,2,-2,-2,-2,-6,-2
1523207205554387,-2,-1,-9,0,-2,0,2,0
1523207205554387,0,-1,0,-2,-4,-1,2,-4
1523207205569426,0,-3,0,-3,-3,-6,-7,-1
1523207205569426,-1,1,1,-1,1,1,1,-4
1523207205570430,0,0,14,-1,-1,-1,2,0
1523207205570430,0,-7,-18,-4,-4,-3,0,0
1523207205591488,-1,-2,-2,4,6,5,-1,1
1523207205591488,-2,-1,-2,-2,-1,-2,-1,-2
1523207205593489,-1,1,2,-1,-2,0,0,-1
1523207205593489,-1,1,1,-2,-4,-2,0,0
1523207205605773,0,1,0,-4,-5,-4,-7,-4
1523207205605773,-1,-1,-1,2,0,0,0,-3
1523207205614558,-1,-2,-5,1,3,3,3,4
1523207205614558,0,1,4,-3,-1,-1,1,-1
1523207205628851,-2,-3,-7,-1,-3,-4,-2,0
1523207205628851,-1,2,1,-3,-4,-4,-4,-1
1523207205630594,1,0,-1,0,1,-1,-2,-1
1523207205630594,-1,2,-1,1,6,4,2,1
1523207205651670,-2,0,4,-2,-4,-2,-4,-1
1523207205651670,0,-4,0,-1,-2,-1,-1,-2
1523207205652648,-2,-1,-5,-1,0,-1,-1,1
1523207205652648,0,-2,4,-2,-2,-3,-3,-2
1523207205674706,-1,1,6,-1,-2,-2,0,-1
1523207205674706,-2,0,-18,-3,-2,-1,-2,-1
1523207205675710,-1,-3,-2,0,-1,1,1,-1
1523207205675710,0,0,6,1,1,0,2,-1
1523207205688924,-1,-1,-4,-4,-3,-4,-3,-3
1523207205688924,0,-2,2,1,1,1,1,0
1523207205690749,-1,0,-2,1,0,1,0,-2
1523207205690749,-3,-5,-14,-4,-2,-1,-1,-2
1523207205712041,-2,-1,25,-1,-4,-3,-2,-1
1523207205712041,0,-2,-18,-1,-2,-2,-1,-3
1523207205712811,-1,0,-2,-2,0,-1,-1,0
1523207205712811,-2,0,7,3,2,4,2,1
1523207205733904,-1,-4,-13,0,1,0,-1,-1
1523207205733904,1,1,11,1,1,1,0,0
1523207205735868,-2,-4,-9,-5,-5,-5,-2,0
1523207205735868,0,0,0,0,-3,-3,-3,-2
1523207205749161,0,-2,-12,-1,1,1,1,-2
1523207205749161,-2,3,14,-2,0,0,-2,-2
1523207205750908,0,-1,-5,-1,-1,-1,-2,-2
1523207205750908,-3,0,7,-4,-4,-3,-4,-2
1523207205772147,1,-2,-9,0,-2,1,3,-1
1523207205772147,0,-3,2,0,0,-1,1,-1
1523207205772967,0,2,6,0,2,-1,0,-1
1523207205772967,-1,-3,-20,-3,-3,-3,-2,-1
1523207205794021,-1,1,1,-2,-4,-4,-5,-1
1523207205794021,-2,-4,-5,0,2,1,0,-2
1523207205796027,0,-1,10,0,0,1,1,0
1523207205796027,0,2,3,-1,-4,-3,-1,-1
1523207205808260,-1,-1,-5,-4,-2,-1,-2,-1
1523207205808260,0,-2,-11,2,0,0,1,1
1523207205815374,-3,-1,2,-2,-5,-2,-2,-1
1523207205815374,-2,-3,10,-2,-1,-2,-1,-1
1523207205832125,0,2,-3,2,3,0,0,0
1523207205832125,-2,-1,0,-1,0,-1,-1,-1
1523207205833146,-1,0,-7,-1,0,-1,-1,-3
1523207205833146,0,1,3,0,-2,-2,-1,-1
1523207205854416,-3,-4,-9,-2,-2,-2,-3,-3
1523207205854416,0,2,11,-2,-3,-3,-4,-2
1523207205855195,0,-2,-3,2,1,1,-1,0
1523207205855195,0,0,-3,0,2,0,-1,-1
1523207205867264,0,-1,3,1,2,2,3,1
1523207205867264,1,4,1,-2,-4,-1,-1,0
1523207205876276,-3,-9,-5,-5,-7,-3,-4,-2
1523207205876276,-2,1,5,-1,-2,-3,-2,-2
1523207205891583,-3,-3,2,-2,-4,-3,-1,-1
1523207205891583,1,1,21,2,5,3,2,0
1523207205893287,-1,-3,-40,-2,1,1,-2,1
1523207205893287,0,-1,3,-1,-1,2,0,-2
1523207205914696,-1,-1,-5,-5,-4,-3,-1,-2
1523207205914696,-3,-4,-2,-3,-8,-6,-6,-1
1523207205915348,-1,1,10,3,2,1,-1,-2
1523207205915348,0,0,-7,2,7,5,2,1
1523207205928637,-1,-1,-1,-4,-1,-1,-1,-2
1523207205928637,-2,1,6,0,-4,-2,-1,-1
1523207205935401,0,0,0,-4,-2,-3,-2,0
1523207205935401,-1,-3,-4,-2,-4,-4,-4,-2
1523207205951456,0,2,3,1,1,-1,0,-2
1523207205951456,0,-1,-2,1,3,0,1,-1
1523207205953445,-1,0,-1,0,0,1,0,-1
1523207205953445,-2,0,10,-3,-1,0,-1,-1
1523207205974657,-2,-4,-11,-2,-2,-1,-3,-1
1523207205974657,-1,-2,-5,-4,-5,-5,-4,-3
1523207205975507,0,-1,3,1,0,-2,0,-1
1523207205975507,1,-3,-3,5,6,5,3,2
1523207205988835,-1,1,0,-1,-1,0,-2,-3
1523207205988835,-1,-3,-9,-3,-3,-3,-4,-2
1523207205995789,0,0,1,-2,-4,-2,-1,-1
1523207205995789,-3,-1,-1,-2,-2,-2,-2,-2
1523207206011866,-1,-2,-2,2,4,2,2,1
1523207206011866,-1,0,14,-1,-1,-1,-2,-2
1523207206013607,-1,0,0,-1,-3,-3,-3,-1
1523207206013607,-1,-2,-2,1,-3,-1,-3,-1
1523207206033699,0,0,1,-1,2,0,-1,2
1523207206033699,-2,-4,-6,-1,-2,-2,0,-2
1523207206035665,0,0,6,-1,-1,-1,-1,1
1523207206035665,-3,-4,-12,-2,-2,-3,-1,-3
1523207206048938,0,-1,11,0,1,0,0,1
1523207206048938,0,1,-12,1,3,3,1,-1
1523207206055011,-2,-2,6,0,4,2,0,0
1523207206055011,-2,-1,-5,-3,-5,-4,-3,-1
1523207206071956,-2,-1,5,-3,-6,-6,-4,-3
1523207206071956,-2,0,1,2,1,2,1,-1
1523207206072765,0,1,-5,4,4,5,2,-2
1523207206072765,0,0,5,-2,0,-2,-1,-1
1523207206093829,-1,-2,-4,-2,-1,-1,-1,0
1523207206093829,-2,-1,1,-3,-3,-3,-2,0
1523207206095825,-2,-1,-7,-3,-2,-2,-2,-2
1523207206095825,0,0,15,-2,-1,1,-2,1
1523207206108910,-1,1,-6,1,-3,-1,-2,0
1523207206108910,1,-4,-19,-2,-1,-3,-3,-2
1523207206115929,-1,0,4,-1,0,-2,0,0
1523207206115929,-1,0,0,0,0,-1,2,1
1523207206131976,-1,-1,-4,-2,-1,-1,0,-1
1523207206131976,0,-1,1,-1,0,0,0,-2
1523207206138194,-1,-1,3,-1,-1,-1,-1,0
1523207206138194,0,-1,-5,0,-1,-2,-1,0
1523207206154173,-2,-3,-3,-2,0,1,0,-1
1523207206154173,0,-2,-3,-1,-4,0,-1,0
1523207206155985,-1,1,9,-1,-2,-1,1,-1
1523207206155985,-1,-7,-16,-1,-1,0,0,-1
1523207206168017,0,-2,5,-2,-2,-3,-3,-1
1523207206168017,-2,-3,-3,-1,-2,-3,-2,-1
1523207206177041,-3,1,2,0,0,-1,-3,2
1523207206177041,-1,1,3,-1,-3,-1,5,-4
1523207206192082,-1,1,-3,3,1,2,-3,-2
1523207206192082,-1,-1,0,-1,3,2,1,1
1523207206193085,-2,-2,-5,-3,-4,0,-1,-3
1523207206193085,-2,-1,-2,-1,-1,-1,-1,0
1523207206214441,-1,-1,-4,-2,-2,-3,-1,-1
1523207206214441,0,1,8,1,3,1,0,2
1523207206215143,-2,-4,-7,-2,-1,-1,-1,1
1523207206215143,-1,-1,-7,14,0,-2,-3,-2
1523207206228408,-3,-1,13,-14,-1,-1,0,-2
1523207206228408,-2,-2,-8,-3,-10,-1,-3,0
1523207206236197,0,-1,-7,-5,-2,1,0,-2
1523207206236197,0,-2,3,0,1,-1,-4,-2
1523207206251238,0,1,-3,8,3,1,0,-1
1523207206251238,0,-3,-6,-1,1,-1,-1,-1
1523207206253244,0,3,-14,-3,-2,-3,0,-2
1523207206253244,-1,-3,6,-5,-5,-2,-2,-2
1523207206274546,-2,2,1,3,1,-3,-1,2
1523207206274546,-1,-5,-22,-6,-2,-2,-1,-2
1523207206275306,0,0,8,2,-1,-3,-4,-1
1523207206275306,1,1,4,-2,3,2,-1,2
1523207206288375,-1,-2,-5,-2,-2,-1,-1,1
1523207206288375,0,0,9,0,-2,-3,-1,-1
1523207206296518,-2,-3,2,-2,-3,-3,-2,-3
1523207206296518,-3,-1,-1,-4,1,0,-1,-2
1523207206311630,0,-3,-13,2,6,7,1,-1
1523207206311630,-2,4,7,0,0,-1,-1,-1
1523207206313408,-2,-1,1,-1,-3,-2,0,0
1523207206313408,-2,0,-2,-5,-5,-5,-3,-1
1523207206334460,1,0,-3,-2,-7,-7,-3,0
1523207206334460,0,-2,-2,1,2,1,0,0
1523207206335483,-1,-2,-2,2,0,-1,0,-1
1523207206335483,-1,0,2,-1,-1,0,-2,-1
1523207206347815,-2,-3,-3,2,1,2,0,0
1523207206347815,0,0,-2,-1,-1,-2,0,-2
1523207206356518,-1,-3,13,-4,-4,-1,-1,-2
1523207206356518,1,0,-6,-3,-3,-3,0,-1
1523207206371761,1,0,17,-2,-1,-2,1,-1
1523207206371761,-3,-5,-10,-1,-3,0,-1,-2
1523207206373563,-2,1,1,-1,0,-2,-2,-1
1523207206373563,-2,-2,-6,0,-1,-1,0,1
1523207206394620,-2,-2,-1,1,1,4,3,0
1523207206394620,1,-1,3,1,0,0,2,0
1523207206395622,-2,-1,-4,-2,-3,-1,-2,-1
1523207206395622,0,-1,-1,-5,-3,0,-3,-3
1523207206416731,0,0,3,-5,-4,-6,-3,-3
1523207206416731,0,-1,-8,0,-2,-1,1,0
1523207206417704,-1,-4,-5,0,1,0,-1,1
1523207206417704,0,1,3,1,3,1,2,1
1523207206431923,-1,-1,-6,-2,-3,-2,-1,-1
1523207206431923,-2,-2,7,-2,-2,-3,-1,-1
1523207206432722,1,1,18,2,3,1,-1,-2
1523207206432722,0,-4,-47,-2,1,2,1,0
1523207206454045,-2,-2,11,-3,-2,-1,-5,-1
1523207206454045,0,-2,0,-1,-4,-2,-2,0
1523207206455782,0,1,-11,-3,-3,-3,-1,-1
1523207206455782,-2,-1,20,1,-1,-2,-1,0
1523207206477105,1,2,-9,1,-1,-2,-1,-2
1523207206477105,-2,-5,-13,-3,1,-3,-2,-1
1523207206477842,-2,-3,10,0,1,1,2,-2
1523207206477842,0,-1,-5,-2,-2,-1,-1,-2
1523207206492035,-2,-3,-7,0,-1,-1,-1,-2
1523207206492035,0,3,8,-2,-2,-1,-1,-1
1523207206492883,-1,-1,-8,-1,0,-1,-1,-1
1523207206492883,-1,1,7,2,2,2,2,1
1523207206514243,-4,-1,-3,-4,-3,-3,-1,-1
1523207206514243,-2,1,-1,-2,0,-1,-3,-2
1523207206515943,-1,-3,-9,-1,-1,-1,-3,-1
1523207206515943,-1,1,3,-3,-4,-4,-4,-1
1523207206528265,-1,-1,-5,-2,-1,-2,-1,-2
1523207206528265,0,1,15,3,2,3,0,0
1523207206536998,0,-2,-11,1,0,2,2,0
1523207206536998,0,-1,2,1,1,1,-1,1
1523207206551039,-1,-2,17,-3,-2,-3,-3,0
1523207206551039,-1,-1,3,-3,-3,-3,-2,-2
1523207206553039,0,0,0,-3,-4,-1,-1,-2
1523207206553039,0,0,-3,-2,-2,-3,-2,-3
1523207206574097,-1,-3,-6,2,3,3,3,0
1523207206574097,-1,0,1,1,3,2,1,1
1523207206575098,0,0,-7,-1,-1,0,-2,-3
1523207206575098,-2,-2,1,-5,-5,-4,-2,-1
1523207206597211,-2,0,-6,-4,-8,-5,-5,-2
1523207206597211,-1,0,-1,2,4,2,1,0
1523207206598169,0,3,0,5,7,5,4,2
1523207206598169,-1,-5,-3,-2,-3,-1,-3,-2
1523207206611494,-2,-1,-3,0,-1,0,-1,-1
1523207206611494,-2,0,1,-2,-3,-3,-1,0
1523207206613200,0,-3,0,-4,-4,-4,-2,-3
1523207206613200,0,1,5,3,6,5,3,0
1523207206634255,-1,-4,-8,-3,-2,-2,-4,-2
1523207206634255,-2,-1,-6,-4,-6,-7,-4,-1
1523207206635259,-2,-2,0,-1,-3,-3,-2,1
1523207206635259,-1,-1,3,4,2,2,1,-1
1523207206656550,1,0,-3,-1,-2,-1,-1,-1
1523207206656550,-1,-3,-2,-3,-2,-1,-2,-2
1523207206658320,-1,-1,0,1,1,-1,0,0
1523207206658320,-2,-1,-4,-2,-4,-2,-1,-2
1523207206671650,-1,-2,-5,-1,0,0,-1,-2
1523207206671650,-1,0,0,2,2,2,1,-2
1523207206673361,0,0,-1,-1,0,-1,-1,-2
1523207206673361,0,2,7,1,2,3,0,0
1523207206694607,-1,-5,-15,0,-2,0,-1,1
1523207206694607,-2,-2,-2,-5,-3,-4,-4,-1
1523207206695419,-2,-2,1,-3,-3,-5,-3,-3
1523207206695419,-2,1,4,-3,-3,-4,-1,-1
1523207206716543,-2,-3,-11,2,0,1,0,1
1523207206716543,-1,0,3,0,0,0,-1,0
1523207206718480,-1,-3,-4,0,0,1,0,1
1523207206718480,-2,0,2,-3,-5,-5,-3,-2
1523207206731554,-1,0,-1,-2,-1,-3,-3,-2
1523207206731554,1,-3,-1,0,1,2,1,-1
1523207206737835,-1,0,0,1,0,0,-1,1
1523207206737835,0,-1,15,-3,-4,-2,-2,-3
1523207206754663,-2,-1,-1,1,2,1,0,-2
1523207206754663,0,1,-1,1,-2,-2,0,-1
1523207206755581,-2,0,-2,-5,-4,-2,-4,-1
1523207206755581,-1,-4,-8,-4,-1,-4,-3,0
1523207206776910,-1,0,5,0,1,-1,0,0
1523207206776910,-1,-1,-3,2,0,0,0,1
1523207206778641,-1,0,9,-1,-2,-2,0,-1
1523207206778641,-3,-4,-11,-2,-4,-3,-1,-3
1523207206790674,1,2,13,2,2,1,3,-3
1523207206790674,1,-1,-5,1,-2,0,-1,-1
1523207206797956,-1,0,7,0,-3,-1,-1,-2
1523207206797956,-2,-3,-14,-3,3,1,2,-1
1523207206813978,0,0,1,0,-2,-2,-1,0
1523207206813978,-2,0,0,-1,-2,-2,0,-1
1523207206815745,-1,0,3,-2,-4,-1,-2,0
1523207206815745,0,-3,-2,3,3,1,-1,1
1523207206836796,-1,-2,-2,-1,1,2,0,-2
1523207206836796,-2,-2,13,-3,-2,-3,-1,-3
1523207206837796,0,-4,-38,-4,-3,-2,-2,-1
1523207206837796,-1,-2,5,1,0,-1,-1,-1
1523207206850831,0,1,-1,0,2,2,0,-1
1523207206850831,-2,0,3,-3,-5,-3,-2,-1
1523207206858037,-1,-4,2,-1,-3,-4,-2,-3
1523207206858037,-1,-2,-3,1,3,2,2,0
1523207206874146,0,-1,4,-2,-2,-1,-4,-1
1523207206874146,0,-1,-6,1,1,3,2,-1
1523207206875898,-1,-3,-3,-3,-3,-2,-2,-2
1523207206875898,-2,0,7,-4,-6,-6,-4,-2
1523207206897129,0,0,8,0,0,-2,2,0
1523207206897129,0,-2,-7,-2,-1,0,1,0
1523207206897961,-1,1,3,-1,-2,-1,-3,0
1523207206897961,0,-2,-14,4,5,4,2,0
1523207206911359,-2,-5,-13,-4,0,0,0,-2
1523207206911359,-2,-2,-2,-1,-2,-4,-4,-1
1523207206918016,1,1,6,1,0,1,2,-1
1523207206918016,-1,-2,-4,-6,-7,-5,-4,-1
1523207206934087,-2,1,4,0,-4,-2,-1,1
1523207206934087,0,1,0,1,3,1,1,-1
1523207206936058,0,-3,-10,1,2,2,1,-1
1523207206936058,-1,-1,4,0,-3,-2,-3,-2
1523207206956405,-2,-2,1,-1,-1,-2,1,1
1523207206956405,-2,-1,-2,-2,-1,-2,-1,-1
1523207206958120,-1,0,9,-1,0,0,-2,0
1523207206958120,0,0,-3,-2,-2,-2,-1,-3
1523207206971444,-1,0,-4,-1,-2,-4,-2,-1
1523207206971444,0,-1,2,1,-1,-1,-1,-1
1523207206978382,0,-1,-1,2,5,0,2,1
1523207206978382,-2,-2,-5,-2,-2,-2,-2,0
1523207206994500,-2,0,1,-2,-4,-3,-3,-2
1523207206994500,0,-2,-3,0,0,0,-1,-1
1523207206995217,-2,-1,-1,-3,-1,-2,-1,1
1523207206995217,0,1,2,1,0,0,0,-2
1523207207016285,-1,-1,-1,-1,-1,0,0,1
1523207207016285,-2,-1,-7,-1,0,-1,-1,0
1523207207018275,0,-1,7,-2,-6,-3,-2,-1
1523207207018275,-1,0,1,0,-1,-3,-1,-1
1523207207031350,-1,0,-4,3,6,5,3,0
1523207207031350,-2,-1,-2,-2,-1,-1,-3,-1
1523207207037575,-1,-1,0,-1,-1,0,0,-2
1523207207037575,0,0,-1,-4,-5,-4,-4,-2
1523207207054594,1,2,-1,1,0,-1,-1,-1
1523207207054594,-2,-6,8,-1,-1,1,0,0
1523207207055376,-2,-2,-9,-1,-2,-3,-4,-2
1523207207055376,-1,-2,5,0,0,0,1,0
1523207207076653,0,1,-9,1,-2,-1,-1,-1
1523207207076653,-2,-4,5,-1,0,-1,-1,-1
1523207207078441,0,-1,-3,-1,0,-1,-2,-1
1523207207078441,0,0,-5,-2,-1,-2,-2,-1
1523207207090646,1,-2,0,-4,-6,-4,-5,-1
1523207207090646,0,0,-6,1,0,0,0,-1
1523207207099494,-2,-1,1,2,0,2,2,0
1523207207099494,-1,-1,0,0,0,1,1,-2
1523207207114545,-1,-3,1,-4,-3,-4,-2,-1
1523207207114545,0,1,-20,0,-1,-2,-2,-1
1523207207115539,-1,1,18,1,0,0,2,0
1523207207115539,-3,1,13,0,-2,-2,-1,-1
1523207207136839,-1,-2,-11,0,2,2,1,0
1523207207136839,0,1,-2,-2,-1,0,-1,0
1523207207138596,-2,-1,-5,-2,-2,-1,-2,-2
1523207207138596,-2,-9,-2,1,0,0,-1,0
1523207207150627,-2,0,13,0,-7,-4,-4,-3
1523207207150627,-1,1,1,-2,-3,-2,-1,-3
1523207207158652,1,0,-5,-1,1,1,-1,1
1523207207158652,-1,-1,-4,-1,0,1,0,-1
1523207207173691,-2,-1,-3,-2,2,-1,1,-1
1523207207173691,-1,0,-3,-3,0,-2,-1,-2
1523207207175694,0,-1,0,1,-1,-1,-1,-1
1523207207175694,-1,2,-7,-1,-1,-1,0,-1
1523207207197048,-1,-2,-2,-1,-2,-1,0,-1
1523207207197048,-2,0,8,0,1,2,1,0
1523207207197754,-2,-1,-3,1,-1,0,0,-3
1523207207197754,0,-2,-1,-1,-1,-1,0,0
1523207207210834,0,-3,0,-2,-2,-4,-3,0
1523207207210834,0,0,1,-2,-1,4,1,1
1523207207218808,-2,-2,-5,0,0,-1,-2,0
1523207207218808,0,0,4,0,0,-3,-2,-2
1523207207233849,0,0,-7,-1,-8,1,-2,0
1523207207233849,0,-2,15,-2,-4,-17,-2,-2
1523207207235861,0,0,-5,2,7,5,2,-1
1523207207235861,1,2,-1,0,0,3,1,-1
1523207207257208,0,-1,3,0,2,2,-1,-1
1523207207257208,0,-1,-6,1,-4,0,0,-1
1523207207257914,-1,2,-2,-2,-6,-5,-2,1
1523207207257914,-2,-8,-4,-4,-4,-6,-4,-2
1523207207270204,-1,0,4,3,4,4,2,-2
1523207207270204,-2,1,-5,1,3,5,2,0
1523207207279024,-2,-1,1,-5,-6,-8,-5,-2
1523207207279024,-2,2,-5,2,5,4,1,1
1523207207294011,0,-2,-4,-4,-4,-3,-2,-1
1523207207294011,-1,-1,6,-2,-1,-3,0,-1
1523207207295011,-1,-1,-1,-1,-4,0,-2,0
1523207207295011,-2,-2,-9,-6,-7,-4,-3,-1
1523207207316068,-3,0,13,1,3,-2,0,-1
1523207207316068,0,-1,-6,2,4,2,1,-2
1523207207318078,-2,0,7,-4,-5,-4,-3,-2
1523207207318078,-1,1,0,2,2,2,0,-1
1523207207330438,-1,-2,17,2,3,1,1,0
1523207207330438,1,-4,-32,-2,-4,-1,-6,0
1523207207339130,-2,-2,10,-3,-1,-1,0,-1
1523207207339130,1,3,3,2,0,-3,0,1
1523207207354414,-2,-1,-3,-5,-3,-3,-3,-2
1523207207354414,-1,-2,-9,1,-2,-1,-2,0
1523207207355177,-1,-3,-21,-2,0,2,0,-1
1523207207355177,0,0,4,0,0,0,1,0
1523207207376513,1,6,-22,-4,-4,-4,-1,-1
1523207207376513,-1,-7,2,-3,-4,-4,-2,-4
1523207207378233,2,0,-3,5,7,4,4,0
1523207207378233,-1,1,10,0,0,0,0,-1
1523207207390484,-1,-1,-20,-2,-2,-2,-2,-1
1523207207390484,-3,2,14,-5,-3,-4,-3,-1
1523207207399291,-4,-8,-4,-5,-3,-4,-1,-3
1523207207399291,-2,-2,-10,-2,-1,0,-2,-1
1523207207414681,1,2,12,1,2,1,2,1
1523207207414681,-1,2,3,-2,0,-1,-1,-1
1523207207415346,0,-1,2,-1,-2,-1,-1,-1
1523207207415346,1,0,-6,2,0,-3,-2,0
1523207207436624,-2,-4,-6,-1,1,-1,-2,-2
1523207207436624,-1,-1,5,0,1,1,0,0
1523207207438392,0,2,1,0,-2,-1,0,1
1523207207438392,-2,-3,-10,-4,-3,-5,-1,-1
1523207207450469,-2,-1,4,-4,-3,-4,-3,-1
1523207207450469,0,-1,-1,1,0,1,1,-1
1523207207459448,-1,1,9,0,0,0,0,-2
1523207207459448,0,-1,-9,-2,-1,0,-1,1
1523207207474543,-4,-4,17,-1,-2,-1,0,-2
1523207207474543,1,0,-8,-2,-1,2,2,-2
1523207207475494,-1,-2,-4,2,4,2,-1,-2
1523207207475494,-1,-1,3,-1,1,0,1,-1
1523207207496786,-2,0,3,-2,-4,-5,-3,-1
1523207207496786,-2,-1,2,-3,-3,-3,-2,0
1523207207498556,1,1,-3,2,-1,-1,0,2
1523207207498556,0,1,1,-2,-1,-1,-3,-4
1523207207510704,0,-5,-7,-2,-2,-3,-2,-1
1523207207510704,-3,-2,-2,-3,-3,-5,-3,-2
1523207207525650,-1,-2,-7,0,3,2,2,1
1523207207525650,-2,2,18,0,2,0,-1,1
1523207207533644,-2,-5,-42,-4,-3,0,-1,-2
1523207207533644,-1,0,9,0,-4,-1,-2,-1
1523207207535651,1,-1,-9,-2,-4,-5,-2,-2
1523207207535651,0,-5,-9,-3,-3,0,0,-1
1523207207556710,1,1,6,5,6,5,1,-1
1523207207556710,-1,0,1,1,1,3,0,0
1523207207557709,-3,-5,-4,-4,-5,-3,-3,-3
1523207207557709,-1,-2,-2,-4,-6,-5,-3,-1
1523207207579017,-1,-1,8,0,-2,-2,0,-4
1523207207579017,0,-2,-5,2,4,1,2,0
1523207207580771,-2,-2,-6,-1,-1,1,-2,-2
1523207207580771,-1,-2,1,-1,1,1,0,-1
1523207207594178,-1,0,3,-1,-2,-1,-4,-1
1523207207594178,-2,-2,2,-2,-4,-5,-3,-1
1523207207595811,-1,1,-1,-1,-4,-5,-2,-1
1523207207595811,-2,0,20,2,1,0,-2,-2
1523207207616866,0,1,-2,3,6,5,5,3
1523207207616866,-1,-3,-3,-2,0,0,-2,0
1523207207617869,-2,-1,-4,-2,-4,-1,-2,0
1523207207617869,-1,-2,-7,-2,-2,-1,-1,-1
1523207207639144,-1,-2,6,-2,-6,-5,-2,-2
1523207207639144,-1,0,-1,-2,-1,-2,-2,-1
1523207207640931,2,0,3,0,0,-1,1,-2
1523207207640931,0,-1,-3,0,1,0,0,0
1523207207654987,-2,0,0,-1,2,0,-1,0
1523207207654987,0,1,-7,1,-3,-1,0,1
1523207207660202,-3,-5,15,-7,-5,-5,-4,-2
1523207207660202,-1,2,7,-1,-4,-5,-1,-2
1523207207677029,0,0,-11,-1,0,-1,1,0
1523207207677029,-1,-6,-7,1,2,2,0,-1
1523207207678033,1,0,-6,2,4,3,0,1
1523207207678033,0,0,0,-1,-2,-1,-1,-2
1523207207699132,-3,-2,1,-5,-5,-4,-4,0
1523207207699132,-1,-1,1,-2,-3,-4,-3,-3
1523207207700089,0,-3,-1,-2,-2,-2,-1,-1
1523207207700089,-1,-2,-7,0,1,-1,-2,0
1523207207713216,-1,-1,0,3,0,3,1,-1
1523207207713216,-2,3,1,-2,-1,0,0,-1
1523207207720144,-3,-1,3,-2,-1,-2,-2,-2
1523207207720144,-1,-1,-8,-2,-6,-5,-2,-2
1523207207737187,-1,-3,3,-1,-3,-5,-2,-1
1523207207737187,-2,-1,-3,2,4,7,4,1
1523207207738191,0,0,1,-2,0,1,-2,-1
1523207207738191,-2,0,-3,-3,-2,1,-1,-1
1523207207759527,0,-2,-6,-2,-1,-2,-4,-1
1523207207759527,-2,-1,7,-2,-4,-5,-1,-3
1523207207760249,-1,0,-4,0,0,-2,-2,0
1523207207760249,0,0,13,3,3,2,2,0
1523207207773283,-1,-1,-27,-3,-2,0,-1,-1
1523207207773283,1,1,7,-3,-3,-1,-1,-1
1523207207780574,-1,-2,1,0,-2,-2,-2,-1
1523207207780574,-2,0,-3,0,-1,-2,-2,1
1523207207795344,-2,1,8,2,1,1,0,0
1523207207795344,-2,0,-2,-1,-2,-4,-2,-1
1523207207804367,0,-2,-6,-2,-3,-3,0,-3
1523207207804367,-3,-1,-5,-4,-1,-2,-2,-2
1523207207819552,0,-3,5,-1,-2,0,3,-1
1523207207819552,1,0,-8,-1,-4,-4,-2,-2
1523207207820413,-1,1,2,1,5,5,0,0
1523207207820413,0,-2,-3,0,5,5,0,0
1523207207833442,-3,-1,4,-5,-4,-6,-1,1
1523207207833442,-1,-2,-2,-1,-1,-2,-1,-1
1523207207840463,-2,0,-3,0,-4,-3,1,-3
1523207207840463,-2,1,1,-3,-5,-12,-4,-3
1523207207856544,-2,-4,6,-1,-3,5,-1,-3
1523207207856544,-1,-1,4,2,3,4,3,1
1523207207858512,-1,0,0,-1,-1,-2,-4,2
1523207207858512,1,-3,-21,-2,-4,0,-2,1
1523207207879619,-2,1,6,-3,-3,-9,-3,-2
1523207207879619,-2,-4,-6,0,1,1,-1,0
1523207207880570,0,2,24,3,3,4,6,-1
1523207207880570,-1,-6,-45,-5,-2,-2,0,-2
1523207207893892,-1,1,5,-3,-4,-5,-4,-2
1523207207893892,0,-3,-3,0,1,1,-1,-2
1523207207900619,2,-1,-8,1,-1,-3,-1,0
1523207207900619,0,1,17,-1,-1,0,1,-1
1523207207916662,0,-2,-9,-1,8,3,0,-2
1523207207916662,-1,-1,-3,-2,-5,-5,-1,-3
1523207207917668,-2,-1,-1,-2,-2,8,-2,-1
1523207207917668,0,1,22,0,-4,-13,-1,0
1523207207938953,0,-3,-5,1,-1,1,0,0
1523207207938953,-1,-1,7,-3,3,0,-2,0
1523207207940735,-3,-3,-12,-4,-4,-3,0,-2
1523207207940735,0,-1,-9,0,2,6,0,-1
1523207207954085,-1,3,17,1,0,1,1,-1
1523207207954085,0,1,1,-1,-1,-1,1,1
1523207207960782,0,-2,-2,-4,-6,-5,-4,-2
1523207207960782,-3,-2,-2,2,2,3,0,-2
1523207207977053,-1,-3,0,2,0,-3,0,0
1523207207977053,-2,-1,-10,-3,-5,-1,-2,0
1523207207977828,-2,-2,7,-2,-5,-5,-1,-1
1523207207977828,0,-1,21,3,1,1,-1,-1
1523207207998936,0,-5,-34,-3,0,1,1,1
1523207207998936,-1,1,8,-1,-1,-2,-2,-2
1523207208000892,-2,-5,-8,-4,-1,-4,-3,-1
1523207208000892,-1,-3,3,-1,-5,-1,-3,-2
1523207208013184,-1,2,-4,4,3,5,3,0
1523207208013184,0,0,1,-1,2,2,0,0
1523207208021945,0,-1,-1,0,0,-3,0,-2
1523207208021945,-2,0,-11,-3,-3,-1,-1,0
1523207208037034,-2,-6,4,-3,-4,-5,-4,-2
1523207208037034,-1,1,-9,1,0,-3,-1,-1
1523207208037988,0,3,4,2,2,2,1,1
1523207208037988,-2,0,-6,-1,1,1,0,0
1523207208059274,0,0,3,-1,0,-1,-1,-2
1523207208059274,0,-3,1,-2,-4,-5,-2,-2
1523207208061047,-2,-1,1,0,-2,-2,0,-1
1523207208061047,-2,0,-2,1,5,1,1,0
1523207208073117,0,1,3,-1,-2,0,0,0
1523207208073117,-1,-2,0,-2,-3,-1,-1,0
1523207208082105,-2,-2,-3,-4,-5,-6,-5,-3
1523207208082105,0,-3,-11,0,3,3,3,-2
1523207208096490,0,1,1,2,4,3,2,1
1523207208096490,0,-3,-3,-4,-2,1,-2,-2
1523207208098151,-1,-3,-4,-2,0,-1,-1,1
1523207208098151,0,-1,2,-4,-7,-7,-4,-1
1523207208119466,-2,-1,4,0,-4,-4,-5,-3
1523207208119466,-1,1,-1,3,6,3,3,-1
1523207208120208,0,-1,-6,-2,0,0,-2,0
1523207208120208,-1,0,0,-1,-1,0,-1,-2
1523207208132236,-3,-4,8,-6,-4,-4,-2,-1
1523207208132236,-1,-1,-4,-2,-5,-4,-4,-1
1523207208141262,-1,0,2,0,-1,-2,0,-2
1523207208141262,-1,0,0,3,6,3,2,0
1523207208156539,0,3,11,6,8,6,4,3
1523207208156539,-3,-6,-5,-9,-6,-4,-3,-1
1523207208158306,-1,-1,-6,-1,-1,0,-1,-1
1523207208158306,0,-1,-2,-5,-6,-4,-4,0
1523207208179605,-1,-3,-9,-1,-4,-5,-3,-3
1523207208179605,0,-2,9,4,3,2,2,-1
1523207208180368,-2,-1,-6,-1,0,0,-1,1
1523207208180368,0,-1,4,-2,-1,0,1,0
1523207208192661,0,-2,-11,-2,-3,-2,-3,-1
1523207208192661,0,3,-4,-1,0,-1,-1,0
1523207208201420,-1,-4,-9,-2,-1,-2,-2,-2
1523207208201420,-2,1,13,2,-3,0,-1,-1
1523207208216467,-2,0,-1,-2,-2,-1,0,1
1523207208216467,-3,1,-7,1,-3,-1,-1,-3
1523207208218466,0,-2,3,-1,2,2,0,0
1523207208218466,-1,-2,-7,-2,-1,-2,-2,-2
1523207208239558,-2,2,-2,-1,-3,-3,-3,-2
1523207208239558,-2,0,1,-4,-5,-6,-3,-1
1523207208240526,-1,2,-1,3,1,0,1,-1
1523207208240526,0,0,3,2,5,4,2,0
1523207208252554,-4,-2,-6,-4,-3,-1,-1,1
1523207208252554,-2,-4,-3,-1,-1,-3,-1,-2
1523207208261581,-1,0,2,-1,-3,-3,-1,-1
1523207208261581,0,-1,-2,-2,-5,-4,-4,-1
1523207208276900,0,-1,2,-4,-5,-3,-2,0
1523207208276900,-1,-3,-5,-1,1,0,-3,0
1523207208277624,-1,-2,4,-1,3,2,2,0
1523207208277624,-2,-1,-3,0,0,-3,-2,0
1523207208298679,-1,-3,13,1,1,0,0,-2
1523207208298679,1,-1,-31,-2,-3,-2,-3,0
1523207208300684,0,-1,3,0,1,0,-1,-1
1523207208300684,0,0,5,1,-1,0,1,-2
1523207208312971,0,-2,-4,-4,-5,-3,-4,-3
1523207208312971,0,0,8,2,2,1,2,2
1523207208321742,-1,-1,-5,1,-1,0,-2,-1
1523207208321742,-3,-3,-9,-3,-3,0,-2,0
1523207208337003,0,0,7,-1,-2,-1,-4,0
1523207208337003,1,-2,-2,1,1,1,2,-1
1523207208337783,-1,2,9,-3,-2,0,-1,-1
1523207208337783,-2,-1,0,-1,-2,-1,-3,0
1523207208359954,1,-3,-5,0,3,1,0,-2
1523207208359954,-1,-1,4,0,-1,-2,-1,-1
1523207208360849,-1,-2,-3,-4,-2,-5,-2,-1
1523207208360849,1,-3,-7,0,0,1,-1,-1
1523207208373083,-1,1,4,1,2,1,2,0
1523207208373083,0,-1,3,0,-1,0,0,0
1523207208381902,-1,0,-2,0,-2,-1,-2,-2
1523207208381902,-1,0,-2,-2,-1,2,-2,-2
1523207208397163,1,-2,-17,-1,-2,-3,-2,-1
1523207208397163,0,0,12,-2,-2,-3,-1,-1
1523207208397945,-1,0,-5,1,0,2,1,0
1523207208397945,0,1,3,-2,-3,-4,-1,-1
1523207208419236,0,0,4,-2,-1,-1,-1,0
1523207208419236,-1,-2,-9,-3,-1,-3,-3,-2
1523207208421004,0,0,1,1,-2,-5,-2,-1
1523207208421004,-1,1,-3,0,2,-1,3,-1
1523207208433035,-1,-1,3,-1,-3,-3,-1,-1
1523207208433035,-3,0,-5,-5,-5,-5,-5,-2
1523207208442060,-1,0,1,0,2,1,0,-2
1523207208442060,1,-1,8,5,8,7,4,2
1523207208457128,-3,-1,-7,-3,-5,-3,-3,-1
1523207208457128,-2,-1,8,-1,-2,-1,-1,0
1523207208458104,1,-1,-16,0,0,0,-2,-2
1523207208458104,-1,-2,-2,-3,-3,-4,-3,0
1523207208479438,-1,0,5,-2,0,-1,-1,-2
1523207208479438,1,2,-2,2,-3,-2,-1,0
1523207208480162,-5,-8,-6,-3,-2,-1,-1,0
1523207208480162,-2,2,2,0,-2,-2,-2,-2
1523207208502270,-1,-3,-4,0,-1,1,0,0
1523207208502270,-2,-1,-1,-1,-3,-3,-3,0
1523207208503224,-1,-1,-1,-1,-3,-4,-1,-1
1523207208503224,0,-1,3,1,1,1,2,0
1523207208516297,-2,0,-5,-4,1,-2,0,-1
1523207208516297,-1,-2,1,-1,0,0,0,-2
1523207208518261,0,0,9,0,-1,0,-1,-1
1523207208518261,-2,-4,-19,-3,-2,0,1,-1
1523207208539539,-1,2,9,1,0,2,-1,-2
1523207208539539,0,-1,-1,0,0,-1,-1,-1
1523207208540322,0,-1,-1,-2,-3,-3,-1,0
1523207208540322,1,-2,-1,-2,-5,-4,-3,-2
1523207208561675,-2,-2,-7,0,-2,-3,-2,0
1523207208561675,0,-2,3,2,0,3,1,-2
1523207208563382,-1,-2,1,0,4,3,1,0
1523207208563382,-1,-1,0,-2,-2,-1,-3,-1
1523207208576683,1,-1,-1,0,-1,1,1,0
1523207208576683,-3,-2,0,-3,-6,-5,-2,0
1523207208578423,1,3,2,-1,-5,-5,-1,-2
1523207208578423,-1,-6,-8,0,1,0,-1,-1
1523207208599477,-1,-3,-1,2,4,3,3,-1
1523207208599477,0,0,14,0,-3,-1,0,0
1523207208600480,-2,-4,-33,-2,-1,-1,-2,-1
1523207208600480,0,3,8,-2,-2,-1,-1,0
1523207208621681,0,-1,1,-3,-4,-4,-3,-2
1523207208621681,-2,1,-4,1,4,2,1,-1
1523207208623542,0,0,9,0,0,0,0,0
1523207208623542,-1,0,1,-2,-4,-4,-5,-3
1523207208636627,0,-3,-12,0,-1,-2,-2,0
1523207208636627,0,-1,1,0,3,3,1,-2
1523207208642890,0,1,13,-1,-2,-2,-2,0
1523207208642890,-1,-2,-8,-2,-2,-2,-2,-1
1523207208658942,-1,-1,2,-1,-3,-3,-2,0
1523207208658942,-1,-2,-4,0,-1,-2,-3,-3
1523207208660648,-1,1,9,1,3,2,1,0
1523207208660648,-1,-2,-19,-4,-1,-2,1,-2
1523207208681697,1,0,3,0,-1,-2,-2,-3
1523207208681697,-2,-1,-1,-5,-4,-2,0,-2
1523207208682698,-1,-2,0,0,0,-1,0,-1
1523207208682698,1,0,-8,-2,-1,0,-2,-1
1523207208695990,-1,1,2,-2,-2,-1,-2,-2
1523207208695990,2,-1,-11,2,3,3,0,0
1523207208703095,0,-1,5,0,1,1,0,0
1523207208703095,-3,-3,-1,-4,-3,-2,-3,0
1523207208719055,0,-3,-1,-2,-4,-6,-2,-1
1523207208719055,2,0,-3,2,1,0,2,1
1523207208720801,0,0,-2,-1,0,-2,1,0
1523207208720801,0,2,5,-1,-1,-1,0,0
1523207208742073,-6,-3,-3,-3,-4,0,-1,-1
1523207208742073,0,0,2,-2,-3,-4,-5,-3
1523207208742862,-1,-1,2,1,6,2,3,2
1523207208742862,-1,0,4,1,1,1,0,-1
1523207208756129,-1,2,1,-1,0,0,-1,-1
1523207208756129,-3,-1,-4,-2,0,0,-2,-2
1523207208763182,-1,-4,-7,-4,-5,-3,-3,-2
1523207208763182,-2,1,18,-1,-2,-1,-1,-2
1523207208779218,-1,1,5,0,-3,-2,-2,-2
1523207208779218,-1,-1,3,0,1,0,1,1
1523207208780960,-1,0,-3,-2,-2,-1,-2,-1
1523207208780960,-2,-1,3,-1,0,-2,0,-3
1523207208802156,1,2,-6,1,1,2,1,1
1523207208802156,-5,-7,41,-6,-5,-4,-2,-2
1523207208803021,-2,2,-25,-3,-5,-3,-2,-2
1523207208803021,-2,-3,-2,0,1,1,0,0
1523207208816100,-1,0,2,6,7,3,2,0
1523207208816100,-1,1,1,-1,0,-1,0,0
1523207208823075,-1,-5,-2,-4,-7,-8,-5,-3
1523207208823075,0,-1,6,-1,-3,-2,0,-2
1523207208839155,1,-3,-6,-1,-2,0,2,-1
1523207208839155,-1,-1,-20,1,-1,-1,-2,2
1523207208840116,-1,-2,20,0,2,2,2,0
1523207208840116,2,-1,-11,1,2,1,0,1
1523207208862177,-1,-2,0,-4,-2,-3,-3,-1
1523207208862177,0,-2,-11,-1,-1,-1,-1,-1
1523207208863186,-2,-2,0,1,-1,1,0,-1
1523207208863186,1,-1,2,2,-2,-3,-2,1
1523207208876451,-2,-2,6,-2,-1,0,0,0
1523207208876451,-1,1,-7,1,1,0,-1,-1
1523207208882238,0,-1,-1,0,-1,0,-2,-1
1523207208882238,-1,-3,4,-3,-1,-2,-1,-2
1523207208899274,0,-2,-4,-4,-1,-3,-1,-1
1523207208899274,-1,-4,-12,-1,-3,-4,0,-1
1523207208900277,0,1,7,0,0,4,0,0
1523207208900277,-2,0,-5,0,-2,-4,-1,-1
1523207208921591,0,0,-4,-3,-2,0,-3,-1
1523207208921591,-2,-3,3,-2,-1,1,1,-3
1523207208923339,0,1,-3,1,-1,-2,-1,-2
1523207208923339,2,2,6,-1,0,1,0,1
1523207208935681,-3,-4,-10,0,-3,-1,-2,-3
1523207208935681,1,2,6,0,-2,0,-1,-1
1523207208943394,1,-2,-12,-2,-1,-1,-1,-3
1523207208943394,0,1,2,0,0,0,0,0
1523207208958460,-3,0,-1,0,2,0,-1,-1
1523207208958460,1,0,-1,-3,-2,-1,-2,1
1523207208959434,-3,-2,-2,-4,-4,-5,-4,-3
1523207208959434,-2,-2,-3,0,-1,0,0,-1
1523207208980720,0,-3,-2,-1,0,1,1,1
1523207208980720,-2,0,-7,-4,-3,-4,-2,-1
1523207208981495,0,-2,2,0,-1,-4,-2,0
1523207208981495,-1,0,-3,2,0,1,0,-1
1523207209004555,-1,-2,-4,-1,0,-1,0,-2
1523207209004555,0,1,1,-2,-3,2,-2,-2
1523207209004555,-1,-2,-3,-3,-2,-3,-2,-1
1523207209004555,-3,-3,1,-3,-3,-4,-3,-3
1523207209018590,-1,-1,-3,0,2,1,0,-2
1523207209018590,-2,0,-3,-2,-1,-2,-1,-1
1523207209018590,0,0,3,1,0,1,1,-1
1523207209018590,1,-3,-7,-1,-3,0,-1,0
1523207209040652,-1,-3,2,-1,0,-2,-2,1
1523207209040652,-3,-1,0,-1,0,-1,0,0
1523207209041652,-1,-3,-2,-2,-2,-1,-1,-3
1523207209041652,-1,0,-1,-2,-1,-4,-2,-1
1523207209063965,1,-1,-2,-2,-3,-1,-2,-1
1523207209063965,1,0,-3,2,3,2,2,1
1523207209064719,-2,0,4,1,1,0,1,0
1523207209064719,-1,1,-2,-2,2,1,1,1
1523207209078801,-2,2,6,-1,-4,-1,-3,-1
1523207209078801,-2,-2,-8,-4,-6,-6,-2,-2
1523207209078801,0,-1,1,1,-3,0,-2,1
1523207209078801,-1,-2,1,-2,-2,-2,0,-1
1523207209100808,-2,-1,-3,-1,-1,-2,-1,0
1523207209100808,-1,0,3,1,2,2,2,-2
1523207209101818,-1,-1,-4,-1,4,2,1,-1
1523207209101818,0,-2,2,-2,-3,0,-1,-1
1523207209123873,1,3,-3,-4,-5,-4,-2,0
1523207209123873,-2,-3,-2,-1,0,0,-2,-3
1523207209124873,-1,-1,-1,-2,-1,-2,1,-1
1523207209124873,-2,-2,5,0,1,-1,-1,-2
1523207209138931,0,-1,-6,0,1,1,1,-2
1523207209138931,-1,-1,1,-2,-4,-4,-3,-1
1523207209138931,-2,-1,-6,-2,-2,-1,-1,-2
1523207209138931,1,0,3,3,4,2,2,1
1523207209161200,0,-2,1,-2,-3,-2,-1,-1
1523207209161200,1,1,-3,0,1,1,0,0
1523207209161975,-2,-5,-5,-3,-1,-2,-4,0
1523207209161975,-3,-2,-2,-4,-3,-4,-2,-2
1523207209185291,-2,-1,-3,-3,-2,-4,-2,-2
1523207209185291,-1,-3,0,2,3,0,1,-2
1523207209185291,0,2,3,3,4,3,3,0
1523207209185291,-1,-2,-6,-3,-5,-3,-3,0
1523207209198070,-2,-2,0,0,0,0,-1,-1
1523207209198070,-2,-4,-6,-1,1,2,0,1
1523207209199077,1,1,9,-1,-1,-1,-1,0
1523207209199077,-1,-4,-6,-1,0,-1,-2,0
1523207209221372,-2,-2,3,-1,-4,-2,-2,-2
1523207209221372,0,-1,0,-3,-6,-5,-2,-3
1523207209221372,-1,-1,-2,-3,-2,-3,-1,-2
1523207209221372,0,0,-1,2,2,3,1,-1
1523207209244571,0,-1,3,0,2,2,2,1
1523207209244571,-1,-2,-6,0,2,1,-1,-1
1523207209245195,-3,-1,11,-2,-3,-3,-2,0
1523207209245195,-1,0,-1,-5,-8,-6,-5,-3
1523207209258444,-1,-1,-4,0,0,-2,-1,-2
1523207209258444,-1,-2,1,1,0,2,1,1
1523207209259232,0,-1,-6,0,0,-1,-2,-1
1523207209259232,-3,-2,3,-3,-2,-1,-1,-1
1523207209281290,-1,1,5,0,0,1,-1,1
1523207209281290,-1,-6,-13,-3,-4,-3,0,-2
1523207209281290,-1,-1,-1,0,-3,-3,0,-1
1523207209281290,0,1,-2,5,5,4,2,0
1523207209304654,0,-2,-10,-1,1,2,1,1
1523207209304654,-2,0,6,-2,-5,-3,-3,-1
1523207209304654,0,-2,-5,-4,-3,-4,-1,-2
1523207209304654,0,-2,-5,-3,-4,-3,-2,0
1523207209318655,1,-1,1,-1,-5,-4,-2,-2
1523207209318655,0,4,6,0,3,0,-1,1
1523207209319394,1,-1,-6,2,2,4,0,-1
1523207209319394,0,0,4,-3,-3,-3,0,-1
1523207209341502,-1,-2,0,-2,-3,-1,-1,-2
1523207209341502,-2,-1,-4,-3,-4,-4,-2,-1
1523207209341502,-1,-3,19,-3,-4,-4,-4,-1
1523207209341502,-1,1,-4,4,7,5,5,0
1523207209364511,-1,-2,1,-1,2,0,-1,-2
1523207209364511,-2,0,-5,1,0,-3,-1,-2
1523207209364511,1,2,-1,-4,-3,-3,-2,-2
1523207209364511,-4,-4,-6,-2,-5,-4,-4,-3
1523207209378822,0,-2,5,2,4,1,1,1
1523207209378822,1,3,5,0,1,4,1,1
1523207209379551,-3,-6,-11,-3,-3,-3,0,-2
1523207209379551,-2,1,5,-3,-3,-1,-1,-2
1523207209400605,-1,1,-5,0,-1,-1,-1,0
1523207209400605,-1,-2,6,-1,-3,-5,-4,-2
1523207209401610,0,0,-10,3,4,4,2,2
1523207209401610,-1,0,1,-2,-1,-1,-1,0
1523207209423671,-2,-1,-4,-3,-3,-3,-2,-3
1523207209423671,0,-3,-3,-1,2,3,1,0
1523207209424673,-2,0,2,-1,0,0,0,0
1523207209424673,-1,-1,4,-3,-2,-3,-3,-3
1523207209438923,0,-1,-11,-1,-1,-1,-1,-2
1523207209438923,-3,0,8,-2,-2,-2,-3,-1
1523207209438923,0,1,-14,0,-2,-2,-3,-1
1523207209438923,-4,-3,16,-3,-1,-3,-2,-1
1523207209461062,1,0,0,1,0,-2,-3,-1
1523207209461062,0,0,-5,-2,-3,-3,0,-1
1523207209461774,0,0,-6,-1,1,-1,1,-1
1523207209461774,0,-1,-8,-1,-1,1,0,0
1523207209483847,-2,-1,3,0,0,-1,0,0
1523207209483847,-2,-4,-3,-3,-3,-2,-2,-2
1523207209484835,0,0,4,-2,-2,-3,-2,-2
1523207209484835,0,2,-4,4,2,2,0,0
1523207209497875,-1,0,5,-1,1,1,1,1
1523207209497875,1,-2,-7,-1,0,-2,0,-1
1523207209498872,-2,-2,1,-3,-2,-1,-2,-1
1523207209498872,-1,-2,-6,0,-1,-1,-2,1
1523207209521215,-1,0,-1,0,-4,0,0,0
1523207209521215,0,0,3,0,-1,-2,0,-3
1523207209521930,-1,-1,-3,1,0,1,0,0
1523207209521930,-1,-1,4,-2,-1,-1,-1,-1
1523207209543988,0,2,-6,0,-2,-3,-3,-2
1523207209543988,-2,-6,1,1,1,3,1,-1
1523207209543988,-1,0,-3,-2,-3,-1,0,-3
1523207209543988,-2,-2,-8,1,0,-1,0,-1
1523207209558318,0,0,-5,0,1,-2,-3,-2
1523207209558318,-2,1,18,-2,-2,-2,-3,-1
1523207209559029,-1,-1,-4,-1,0,3,-1,0
1523207209559029,0,0,3,-4,-4,-3,-2,0
1523207209581088,-2,-1,-2,-3,-2,0,-2,-2
1523207209581088,-1,1,-9,2,1,1,-1,1
1523207209582093,-2,-1,6,3,3,0,2,-1
1523207209582093,0,1,0,0,-2,-2,-1,-1
1523207209603341,-2,-2,-1,-1,-2,-2,-2,-3
1523207209603341,0,0,-4,-1,-4,-4,-3,-2
1523207209604147,-3,-2,2,-5,-5,-4,-4,-1
1523207209604147,0,-2,-10,1,1,2,1,-2
1523207209618231,-2,-3,3,-1,-1,-1,1,0
1523207209618231,-1,2,7,-2,0,1,0,-1
1523207209619187,-2,-10,-20,-3,-1,1,0,-1
1523207209619187,-1,0,-3,0,0,0,0,-3
1523207209641455,-2,-2,4,-2,-1,0,0,0
1523207209641455,1,-1,-3,-4,-2,-3,-2,-2
1523207209641455,0,0,4,-2,-2,-5,-5,-1
1523207209641455,-1,-1,-2,1,0,-2,-2,-1
1523207209663540,2,-1,2,-1,-3,0,0,1
1523207209663540,-1,0,-5,0,0,-2,-3,-2
1523207209664306,0,0,-3,2,0,-1,0,-1
1523207209664306,-2,0,-2,-1,-1,-1,-2,-1
1523207209678621,1,1,-1,0,1,1,0,-1
1523207209678621,-1,-1,-1,0,-3,0,-1,-1
1523207209679350,0,-1,0,-4,-2,-2,-2,-2
1523207209679350,0,1,1,-4,-1,-4,-2,-2
1523207209700407,0,-2,-3,-2,-5,-5,-3,0
1523207209700407,-1,-1,-5,2,5,4,3,0
1523207209701409,1,2,11,4,6,7,3,-1
1523207209701409,-1,0,5,-5,-3,0,-1,-1
1523207209723766,-1,0,-3,-2,-4,-3,-4,-1
1523207209723766,-3,-6,15,-5,-6,-5,-4,-1
1523207209724468,-2,1,-31,2,1,0,1,-1
1523207209724468,0,-3,4,0,1,0,-1,0
1523207209738714,0,1,4,-1,-2,-2,-1,-3
1523207209738714,-2,-1,-3,-1,0,-2,0,0
1523207209739509,-1,1,11,-1,0,-1,-1,-1
1523207209739509,-2,0,-7,-3,-1,-1,0,-2
1523207209760848,-2,-2,-10,-1,0,0,0,0
1523207209760848,1,0,1,0,0,-2,-2,-1
1523207209761566,-1,-3,-3,1,-1,0,1,0
1523207209761566,-1,-3,13,-2,-4,-5,-4,-1
1523207209783623,-3,-2,4,0,2,1,2,2
1523207209783623,-1,1,-8,0,3,3,3,1
1523207209783623,-2,-1,5,-2,-2,-3,-2,-1
1523207209783623,-2,-3,-9,-3,-4,-3,-2,-1
1523207209798667,-2,-3,-2,-1,0,-1,-1,-3
1523207209798667,0,1,-3,1,1,3,0,-2
1523207209798667,-2,-1,2,-1,-2,-2,-1,0
1523207209798667,0,-1,-1,0,1,-1,-2,1
1523207209820965,-3,0,-1,-2,-2,0,-2,-2
1523207209820965,-2,-1,-4,-2,-1,-2,0,-1
1523207209821727,0,2,8,-1,-3,-2,-1,0
1523207209821727,0,0,-9,0,-3,0,-2,0
1523207209843929,0,-2,-5,-3,-3,-3,-2,-1
1523207209843929,0,0,-1,1,0,1,0,0
1523207209843929,1,1,8,1,2,3,2,0
1523207209843929,-1,-1,-8,-2,-1,0,-1,-1
1523207209858839,0,0,1,1,0,-1,-1,-2
1523207209858839,-2,-3,-3,-1,-4,-4,-4,-3
1523207209858839,0,-2,-2,-3,-5,-5,-4,-2
1523207209858839,-1,-1,-4,2,0,0,1,1
1523207209880884,-1,0,2,-1,-2,0,-1,0
1523207209880884,0,-2,-2,0,2,3,1,-1
1523207209881887,-1,-4,-5,-3,-2,-3,-2,-2
1523207209881887,-3,-1,-8,-2,-2,-1,0,-2
1523207209904012,-1,0,10,-2,-3,-2,-2,-1
1523207209904012,-3,-4,-4,-2,-5,-4,-2,-1
1523207209904012,0,3,2,1,-2,-1,0,1
1523207209904012,0,-3,16,4,5,6,3,0
1523207209918985,-3,-4,-43,-3,0,0,1,-1
1523207209918985,0,0,2,-4,-3,-3,-2,-2
1523207209918985,-2,0,7,-4,-4,-4,-3,-1
1523207209918985,-1,0,1,-6,-6,-4,-3,-2
1523207209941273,0,0,5,2,1,0,0,0
1523207209941273,-1,2,2,1,2,2,2,-1
1523207209942052,-2,-3,-11,-1,0,-1,-2,-2
1523207209942052,1,0,-3,1,1,1,-1,2
1523207209963340,-1,-2,5,-5,-3,-1,-1,-1
1523207209963340,-1,1,-6,-2,-4,-1,-1,0
1523207209964114,-3,-1,2,2,2,0,-1,-1
1523207209964114,-1,-1,-4,0,-1,-2,0,-2
1523207209978220,0,1,4,1,-1,-2,-2,-1
1523207209978220,0,0,-1,-1,-2,-2,-2,-1
1523207209986403,-2,-2,7,0,2,4,2,-1
1523207209986403,-1,3,-2,-1,-2,-1,-1,0
1523207210001490,-3,-6,-6,0,-2,-2,-1,-2
1523207210001490,2,0,3,-3,-3,-4,-3,-2
1523207210001490,0,-2,-2,1,0,-3,-3,-2
1523207210001490,0,0,-6,2,1,2,1,-1
1523207210023271,0,1,6,0,0,1,0,-1
1523207210023271,-1,-2,-2,-1,-1,1,-1,2
1523207210024266,0,-2,-5,-5,-3,-5,-2,0
1523207210024266,0,-1,3,1,-2,-3,-2,-1
1523207210037536,2,-2,-8,-1,2,1,-1,-1
1523207210037536,-1,-2,-3,0,1,1,1,0
1523207210046448,1,0,0,0,-3,-1,-1,0
1523207210046448,-4,0,0,-3,-3,-3,-1,-2
1523207210061491,-1,0,8,-2,-3,-4,-2,-1
1523207210061491,-1,-3,-21,2,3,0,1,0
1523207210061491,-2,-1,18,-1,0,2,-2,-3
1523207210061491,1,-2,-7,-3,-2,-1,-2,0
1523207210083425,0,2,1,0,0,-1,-1,0
1523207210083425,2,2,14,-1,-1,2,2,-1
1523207210084430,-3,-9,-28,-4,-3,-3,-1,-2
1523207210084430,-1,1,9,-1,-1,0,1,-2
1523207210097465,-1,0,1,-2,-1,-1,-1,0
1523207210097465,-1,0,6,-1,-3,-3,-4,-1
1523207210106482,1,2,-2,0,-1,0,-1,0
1523207210106482,1,-3,0,-1,0,-2,-2,-2
1523207210120764,-1,-3,3,1,2,0,1,0
1523207210120764,-4,1,-10,-4,-2,-3,0,-1
1523207210121521,0,2,12,-1,-1,-3,-3,-2
1523207210121521,-2,0,-9,-2,-1,-1,1,0
1523207210143806,-1,-1,10,-2,-4,-2,-1,-2
1523207210143806,0,-4,-3,-3,-3,-1,-2,-1
1523207210143806,-1,0,-4,0,-1,1,-2,-1
1523207210143806,-2,-3,-4,1,1,0,0,0
1523207210157641,-1,-1,-11,-1,0,-1,-2,0
1523207210157641,0,-2,4,-2,-2,-4,-3,-2
1523207210165638,0,0,-3,1,4,4,4,1
1523207210165638,-1,0,1,-1,-2,1,-2,0
1523207210180689,-2,1,-5,-1,-3,-2,-2,-2
1523207210180689,-1,-3,-1,-3,-2,-2,-1,-1
1523207210181682,-2,0,-1,-3,-4,-4,-3,-1
1523207210181682,0,1,-2,2,2,2,0,-1
1523207210203864,-2,-7,8,1,3,5,5,1
1523207210203864,-1,0,-12,-3,-4,-3,-5,-2
1523207210203864,0,-2,2,0,0,-2,1,0
1523207210203864,-1,-1,-1,-1,0,0,1,-2
1523207210217983,0,0,-5,-1,-3,-2,0,-1
1523207210217983,-1,0,7,0,0,0,0,-1
1523207210226026,0,-1,0,-3,-2,-3,-4,-2
1523207210226026,-3,-1,-8,-1,0,-1,0,-1
1523207210240845,-1,-1,1,0,0,0,-2,-2
1523207210240845,1,-3,-3,0,-3,0,-1,-1
1523207210241841,-2,0,-2,-4,-4,-3,-3,-1
1523207210241841,0,-3,-4,-1,0,0,0,1
1523207210263124,-2,0,22,-1,-3,1,-1,0
1523207210263124,-3,-1,-24,-1,0,0,0,-2
1523207210263901,-1,-1,1,-1,-2,-2,0,-1
1523207210263901,-2,0,0,0,-1,-1,-1,-1
1523207210278160,0,-1,-1,-3,-2,-3,-1,-2
1523207210278160,-1,-1,1,0,-2,-2,-1,-3
1523207210286197,-1,1,0,1,3,2,2,1
1523207210286197,0,-4,3,-3,-3,-3,-2,-1
1523207210301259,-2,-4,-25,-2,0,-1,-2,-2
1523207210301259,-1,-1,9,-1,1,0,-2,-2
1523207210302003,0,1,-3,-2,-1,-3,-2,-1
1523207210302003,-1,1,10,-4,-3,-4,-2,-1
1523207210323069,-2,1,-3,2,0,-2,-1,-1
1523207210323069,-1,-1,7,2,4,2,3,2
1523207210324059,-1,-2,-3,-2,-3,0,-1,-2
1523207210324059,0,-2,-9,-4,-4,-4,-2,0
1523207210338100,-2,0,-1,2,2,0,0,-2
1523207210338100,-1,2,1,2,4,3,4,2
1523207210346356,0,-1,0,-1,-1,0,0,-2
1523207210346356,-1,-1,-5,-3,-3,-3,-2,-2
1523207210361444,0,0,0,-4,-5,-3,-3,-2
1523207210361444,0,-1,3,1,-1,0,-1,-1
1523207210361444,0,-1,-5,0,3,1,0,2
1523207210361444,-2,-1,-3,-1,-2,-1,-3,-3
1523207210383238,1,2,10,0,-1,0,1,-1
