timestamp,emg1,emg2,emg3,emg4,emg5,emg6,emg7,emg8
1523209630949934,-2,0,-55,-39,-1,-1,-4,-5
1523209630949934,2,-3,-5,29,8,4,2,0
1523209630957948,-5,-3,43,-29,-10,-4,-3,-3
1523209630957948,1,10,-3,-21,-2,-1,0,-1
1523209630972988,-5,-15,12,-4,-2,-3,-3,-4
1523209630972988,-2,2,39,8,-2,-4,-1,0
1523209630973990,2,8,-6,-1,2,1,0,1
1523209630973990,0,5,-21,-2,0,1,1,1
1523209630995047,-2,-2,24,-12,-8,-4,-1,-1
1523209630995047,-7,-9,-48,-27,-5,-3,-1,-3
1523209630996048,0,9,-15,29,0,-1,-2,0
1523209630996048,2,-17,21,-2,-5,-2,0,-4
1523209631010088,4,7,13,-32,-1,4,2,1
1523209631010088,4,9,66,47,19,14,4,3
1523209631018108,-8,-12,-63,-29,0,1,-2,-2
1523209631018108,1,-3,-5,-23,-7,-5,-1,0
1523209631033149,-7,-11,-15,22,-2,-5,-4,-4
1523209631033149,-1,8,23,-16,-7,-4,2,3
1523209631034149,-6,6,36,35,-2,1,1,-3
1523209631034149,-4,-24,-45,-30,0,-1,-3,-3
1523209631055217,9,35,20,7,8,2,-2,3
1523209631055217,-6,-23,-28,-5,-3,-2,-1,-4
1523209631056209,4,-4,10,13,-2,-1,-1,0
1523209631056209,-4,0,10,-16,-6,-4,-2,-1
1523209631070252,-4,-7,-32,-16,-12,-9,-4,-6
1523209631070252,0,2,23,0,-14,-1,1,-2
1523209631078267,2,-6,-10,15,16,4,1,-1
1523209631078267,3,12,20,-5,18,16,4,1
1523209631093308,2,-5,-28,-2,-7,-9,0,0
1523209631093308,-3,2,11,10,6,-1,-2,-1
1523209631093308,-1,-3,14,-8,-14,-6,-5,0
1523209631093308,-3,-4,-27,4,-11,-8,-5,-4
1523209631115366,2,-14,14,13,17,8,2,0
1523209631115366,-3,-7,-38,-14,2,5,2,0
1523209631116368,-1,1,0,-10,-6,-3,0,-1
1523209631116368,0,5,-32,3,-2,-1,0,1
1523209631129403,-3,0,2,-5,-10,-5,-3,-3
1523209631129403,2,0,3,5,-6,-8,-2,-1
1523209631138426,2,-8,-24,-20,1,-2,-1,0
1523209631138426,2,-8,9,6,2,-2,2,1
1523209631153470,-7,18,14,8,4,5,1,-1
1523209631153470,-8,-15,-13,-27,-3,-4,-6,-5
1523209631153470,-1,2,-17,-8,-2,-2,-1,-2
1523209631153470,2,9,-14,-5,-11,-6,-1,-2
1523209631175526,3,-2,-17,-9,-7,-5,-3,-1
1523209631175526,-2,3,11,9,3,0,-2,-1
1523209631176527,2,1,-2,6,-1,3,2,1
1523209631176527,-3,-7,-11,4,12,4,1,-1
1523209631190567,-3,-9,7,-1,-1,2,-2,-3
1523209631190567,4,11,16,-9,-4,-4,-2,2
1523209631191569,-4,-16,-65,4,-11,-9,-6,-3
1523209631191569,-3,-2,41,-16,-4,-1,1,-2
1523209631212624,0,0,18,10,7,3,1,1
1523209631212624,1,2,-11,-18,-1,0,0,0
1523209631213627,6,6,72,10,2,1,0,0
1523209631213627,-5,1,27,14,0,-3,-4,-2
1523209631235687,0,-2,1,-4,-7,-4,-4,-2
1523209631235687,-4,-6,11,12,1,1,-2,-1
1523209631236694,2,15,0,0,8,5,2,1
1523209631236694,-6,-20,-42,-13,-6,-4,-1,-4
1523209631249960,0,0,27,-4,-2,6,2,1
1523209631249960,-1,-3,-8,-1,-5,-14,-3,-2
1523209631257744,-3,-3,6,4,0,1,0,-1
1523209631257744,0,8,4,3,8,1,-8,-1
1523209631272785,-2,-1,-18,-6,9,9,11,1
1523209631272785,-1,-3,-11,2,1,6,0,-2
1523209631273788,-2,-1,41,-6,-7,-6,-1,0
1523209631273788,-2,-6,-57,-12,-13,-6,-4,-2
1523209631296064,-2,1,-1,-2,-1,-4,-5,-2
1523209631296064,-2,1,21,-6,-4,-1,-2,-2
1523209631296064,-1,-6,-26,-3,-6,-5,-1,0
1523209631296064,2,0,-27,5,4,0,-1,2
1523209631309921,-4,3,45,0,-2,-4,-1,-3
1523209631309921,-5,-10,-11,3,4,4,2,-1
1523209631318141,-2,0,-18,-2,-6,0,-2,-1
1523209631318141,2,7,19,-13,-1,-1,-1,0
1523209631333181,2,1,-24,2,-2,-5,-5,-4
1523209631333181,3,4,29,13,5,2,1,1
1523209631333946,-6,-14,-57,-23,-8,-1,-1,-4
1523209631333946,-1,0,11,-1,2,7,3,2
1523209631355005,-2,4,25,20,16,2,0,1
1523209631355005,-1,2,9,8,-7,-2,-1,0
1523209631356006,-1,-1,11,-1,-8,-5,-6,-3
1523209631356006,-3,-2,-8,-1,-7,-4,4,-2
1523209631370047,1,-4,7,-6,8,5,-1,3
1523209631370047,0,1,-24,-6,2,2,0,0
1523209631378063,-2,-2,22,-1,2,-2,-4,-1
1523209631378063,-1,0,10,19,-13,-9,-4,-1
1523209631393343,-5,-3,28,-25,-7,-3,-3,0
1523209631393343,-1,-6,-46,7,14,4,2,0
1523209631394105,3,7,20,5,3,5,-1,1
1523209631394105,2,3,10,5,6,2,10,-1
1523209631415162,0,-5,5,1,-7,-4,-2,-2
1523209631415162,2,6,-31,-9,-7,-4,-4,-1
1523209631416166,-3,-4,2,14,8,1,2,-1
1523209631416166,-5,-1,-37,-30,-3,-3,-7,-4
1523209631430202,-4,-9,11,-11,-11,-4,-2,0
1523209631430202,-5,-19,5,-3,-8,-6,-1,-3
1523209631438224,0,5,3,7,9,3,3,1
1523209631438224,1,-1,16,5,-4,-2,-5,-2
1523209631453310,0,3,-3,5,-5,-5,0,-3
1523209631453310,-1,2,-33,-11,-7,-3,-4,-2
1523209631453310,-1,-6,27,4,5,1,1,1
1523209631453310,-2,-4,-15,2,6,7,2,0
1523209631475322,1,1,-17,2,9,4,-1,1
1523209631475322,0,0,29,4,0,-3,-1,-1
1523209631476325,-1,2,-44,-20,-13,-4,-2,-4
1523209631476325,0,0,2,3,-3,-7,1,-1
1523209631489359,-1,-2,-21,1,-3,1,-2,-1
1523209631489359,2,3,19,-2,3,-1,-4,3
1523209631498609,0,0,13,14,-7,-4,-1,-3
1523209631498609,-4,-12,-8,-5,-3,0,-3,-2
1523209631512420,0,-2,-2,3,2,-3,-4,-3
1523209631512420,0,1,-2,-5,-1,0,8,-2
1523209631513424,1,2,2,-3,-2,-3,0,1
1523209631513424,-2,3,12,-1,-6,-7,-7,0
1523209631535483,-1,-3,-57,5,1,1,1,-1
1523209631535483,-5,-17,12,1,1,5,-1,0
1523209631536488,2,10,20,2,8,5,1,1
1523209631536488,3,4,-8,21,8,2,2,-1
1523209631549754,-4,-11,-54,-55,-17,-7,-4,-3
1523209631549754,0,3,27,0,-4,-4,-5,-2
1523209631557542,-2,-6,-51,10,0,-2,2,-2
1523209631557542,-1,0,66,6,-2,3,0,0
1523209631572581,1,3,17,17,9,1,-1,0
1523209631572581,-1,2,-25,-9,-6,-3,-1,-1
1523209631573583,-1,-1,19,-5,-4,-4,-3,-1
1523209631573583,1,3,-3,4,8,4,0,1
1523209631595879,-2,-3,-4,-4,-1,2,2,0
1523209631595879,-2,5,-1,-1,-5,-6,-3,-1
1523209631596644,-3,-3,19,4,-5,-5,-3,-2
1523209631596644,-1,0,-15,-15,-12,-6,-2,-2
1523209631609679,-1,-5,-9,-2,-4,-5,-1,-1
1523209631609679,3,5,17,20,15,6,1,1
1523209631617936,-1,0,-15,2,7,8,1,1
1523209631617936,-1,0,-1,-5,3,0,0,-1
1523209631632741,-2,-9,0,2,-7,-4,-4,-3
1523209631632741,-1,4,-9,-11,-9,-5,-4,-2
1523209631633742,-2,-6,16,4,-3,-1,1,-2
1523209631633742,-3,-3,-21,-19,-2,-3,0,-3
1523209631655803,-1,3,14,1,0,0,0,1
1523209631655803,0,-1,-14,6,0,0,-2,-3
1523209631655803,-1,-2,32,-12,-2,-1,-2,1
1523209631655803,-1,2,6,5,0,0,-1,0
1523209631669889,0,8,21,4,0,-1,1,-2
1523209631669889,-1,1,10,-3,-4,1,0,0
1523209631677861,0,6,-15,-4,-3,-3,-3,-1
1523209631677861,2,-4,-9,2,1,-1,-3,-3
1523209631692940,-2,0,10,1,-1,1,1,0
1523209631692940,1,0,3,4,4,1,2,0
1523209631693903,-1,0,-11,-7,-4,-2,-1,-1
1523209631693903,-2,-2,26,-1,-6,-7,-4,-2
1523209631715198,1,0,-16,14,2,0,1,-1
1523209631715198,1,6,49,-9,0,2,0,3
1523209631715968,-7,-22,-105,-17,0,0,-4,-4
1523209631715968,-1,4,24,5,3,2,0,-1
1523209631730000,1,4,67,9,-10,-7,-3,-2
1523209631730000,1,-1,-27,-1,0,-4,0,-2
1523209631738020,-1,1,-38,-7,6,3,1,1
1523209631738020,0,-2,10,5,2,2,1,-1
1523209631753067,0,-5,-31,-6,-4,0,-2,0
1523209631753067,-1,2,1,-1,-4,-2,-1,-2
1523209631754070,-3,-8,49,1,-3,-4,0,-2
1523209631754070,0,-6,-21,1,-3,-1,1,0
1523209631775122,1,6,17,7,3,2,-1,-1
1523209631775122,1,1,-10,0,2,1,-2,0
1523209631776123,-3,-5,7,-3,-3,-5,-1,-2
1523209631776123,0,3,9,3,3,1,1,1
1523209631790160,-2,-7,-3,-5,-5,-3,-1,-4
1523209631790160,-1,-2,-10,2,1,-1,-2,-1
1523209631798416,3,6,18,0,1,-1,-1,-1
1523209631798416,-2,-2,-10,-6,-9,-4,-1,1
1523209631813220,-2,-5,-57,3,6,4,1,-2
1523209631813220,-4,-4,21,-1,-2,1,-1,-1
1523209631813220,0,5,12,14,-9,-2,-2,-3
1523209631813220,-2,-2,25,-20,0,-2,-1,-1
1523209631835282,-2,2,0,-4,-3,-1,0,-1
1523209631835282,3,-1,6,13,2,2,-1,-2
1523209631836286,-1,-1,12,-13,7,3,0,1
1523209631836286,0,6,-5,6,0,-3,-3,-1
1523209631858373,-7,-26,-40,-6,-6,-6,-3,-2
1523209631858373,-3,-1,-2,-3,-8,-2,-4,-1
1523209631859342,2,6,5,5,1,0,0,2
1523209631859342,-3,1,2,5,1,2,0,-1
1523209631873380,5,10,92,8,12,6,3,3
1523209631873380,-2,-4,-33,-15,-4,-4,-2,-2
1523209631874384,0,-5,12,9,-6,-4,-2,-2
1523209631874384,-1,2,-8,-6,-3,-3,-2,0
1523209631895676,0,4,7,8,-9,-7,-5,-2
1523209631895676,-1,-2,51,-1,1,-1,1,-2
1523209631896440,1,3,3,-3,5,4,0,1
1523209631896440,0,-1,-19,3,1,1,0,0
1523209631918500,1,4,4,-2,-2,0,0,1
1523209631918500,-2,-8,-34,0,-4,-4,-1,-1
1523209631919509,0,0,-8,-16,-1,-1,-1,-1
1523209631919509,-2,-4,15,7,2,0,0,-1
1523209631933578,0,2,-28,-5,-7,-7,-3,0
1523209631933578,-5,-8,-89,-29,-16,-11,-6,-3
1523209631933578,1,1,24,19,-1,4,2,-1
1523209631933578,2,3,-5,9,22,13,5,2
1523209631955598,-1,1,32,-10,3,2,-2,-1
1523209631955598,-1,-3,1,12,0,-1,-1,-3
1523209631956600,0,2,-17,-8,-14,-10,-5,0
1523209631956600,-1,-6,-17,-15,-11,-6,-4,-3
1523209631978659,0,-7,-33,-1,-5,-9,-4,-4
1523209631978659,-1,5,74,5,1,0,0,0
1523209631979662,-3,-14,-94,-1,3,5,2,-1
1523209631979662,0,1,39,8,7,1,-1,-1
1523209631992698,-2,0,-12,-13,-9,0,0,-1
1523209631992698,0,-2,31,2,8,5,1,1
1523209631993700,1,-2,-2,6,5,2,-1,-1
1523209631993700,1,3,21,1,-6,-3,-2,-1
1523209632015757,-2,4,-85,-23,-9,-4,-3,-3
1523209632015757,-1,-3,-33,-1,3,-1,1,-1
1523209632015757,0,6,34,-3,0,-3,0,-1
1523209632015757,-2,-6,-30,-6,-14,-8,-3,-4
1523209632038819,2,3,41,8,9,4,0,-1
1523209632038819,-1,4,2,14,1,3,0,1
1523209632039827,-2,-1,7,-3,-2,-3,-2,-2
1523209632039827,0,-6,-24,-27,-9,-3,-1,-1
1523209632052862,0,-1,17,6,8,2,1,-2
1523209632052862,0,0,18,2,4,3,3,0
1523209632053864,0,1,35,6,-3,-2,-2,-1
1523209632053864,-3,3,-27,6,-2,-2,-2,-2
1523209632074915,-4,-8,-5,-7,-4,1,-1,-3
1523209632074915,0,1,-11,-12,-5,-6,-4,0
1523209632075918,0,2,7,0,-2,-7,-2,-1
1523209632075918,1,7,24,12,1,1,-1,0
1523209632098989,-4,-9,-8,3,12,6,2,-2
1523209632098989,-2,0,-55,5,-1,1,0,-2
1523209632098989,0,3,24,-6,-7,-5,-3,-3
1523209632098989,-3,-5,-7,-6,-6,-5,-3,0
1523209632113018,-2,0,-4,9,-7,-5,-3,-1
1523209632113018,0,-1,-2,-6,-1,-1,1,1
1523209632114019,-3,-10,-2,-4,-2,0,-1,-1
1523209632114019,-1,-4,-6,3,8,0,-1,0
1523209632135077,-1,2,19,-2,-6,-3,-1,0
1523209632135077,0,4,13,5,1,-1,-2,-1
1523209632136085,-2,1,-6,3,0,1,-1,-3
1523209632136085,-1,-2,-1,-8,-6,1,0,0
1523209632158137,0,-1,4,-4,3,-2,1,0
1523209632158137,-2,-3,9,-5,-3,-3,-2,-1
1523209632159139,0,-3,-21,7,-2,-2,-2,0
1523209632159139,-2,-3,3,-18,-11,-1,-1,-2
1523209632173176,-1,-2,16,8,9,3,2,1
1523209632173176,1,-1,-23,-3,-3,-1,-1,-1
1523209632174178,-1,0,1,-3,6,3,1,-2
1523209632174178,-5,-20,19,13,-6,-3,-2,-1
1523209632195236,0,0,-26,-10,-6,-4,-5,-1
1523209632195236,-1,-2,-17,-20,0,2,0,-2
1523209632196237,-4,-1,33,4,7,-1,-1,-1
1523209632196237,2,7,86,21,4,0,1,1
1523209632218298,-2,-1,-56,-13,-10,-7,-2,-2
1523209632218298,-1,-5,16,-3,-8,-6,-3,-3
1523209632219302,-1,-2,-10,-1,-1,-2,-2,-1
1523209632219302,1,5,2,-5,0,2,2,2
1523209632233342,2,2,42,36,12,5,2,1
1523209632233342,-1,0,-17,-43,1,3,0,0
1523209632233342,0,-3,2,-2,-7,0,1,-2
1523209632233342,-4,-2,-41,-4,2,-4,-5,-4
1523209632255397,0,-4,12,1,-12,-5,-2,0
1523209632255397,0,-3,13,24,9,2,1,2
1523209632256397,-1,0,-29,-21,-2,1,0,0
1523209632256397,0,-1,-45,-4,-4,-2,-1,-1
1523209632278457,1,3,19,-4,-5,-5,-4,-2
1523209632278457,-1,0,22,7,-6,-6,-4,-4
1523209632279459,0,0,-22,-9,0,2,0,1
1523209632279459,3,13,40,12,12,4,2,-2
1523209632293584,-7,-15,-23,-11,-1,1,-1,-1
1523209632293584,2,4,26,24,-4,-5,-3,0
1523209632293584,-2,-3,-23,-19,-11,-5,-1,-2
1523209632293584,-2,0,43,-1,13,7,-1,1
1523209632315554,3,4,-12,6,13,4,0,1
1523209632315554,-1,0,11,3,-8,-5,-4,-3
1523209632316558,0,1,22,7,-14,-5,-1,0
1523209632316558,-4,-8,-66,-15,-4,-4,-4,-2
1523209632338616,1,5,43,5,-1,1,-1,-1
1523209632338616,-2,-2,8,21,-2,-6,-2,-1
1523209632339619,-1,0,-9,-15,-12,-10,-2,-3
1523209632339619,0,-3,-40,-8,5,8,5,1
1523209632352665,1,2,11,11,24,11,3,1
1523209632352665,-1,0,-5,0,2,1,-1,0
1523209632353660,-3,-1,53,14,-3,-4,-5,-1
1523209632353660,-3,-6,-39,-3,-21,-13,-7,-2
1523209632375715,-2,1,6,-21,-11,-6,-2,-4
1523209632375715,-3,-10,-15,0,0,1,1,-1
1523209632375715,0,2,7,-5,6,5,2,0
1523209632375715,2,4,37,8,-1,-2,-4,-1
1523209632399013,-3,-8,-47,-14,-10,-9,-4,-3
1523209632399013,-1,-2,4,-5,-4,-2,-1,-1
1523209632399779,2,6,52,16,4,4,0,2
1523209632399779,-1,-2,-53,-3,3,-2,-2,-3
1523209632411811,-2,-8,-42,-17,-4,0,1,0
1523209632411811,0,4,-40,-1,8,5,2,1
1523209632420835,-3,-4,2,0,3,0,-3,-2
1523209632420835,1,1,10,8,-4,-5,-4,-2
1523209632435876,0,3,38,1,-7,-5,-5,0
1523209632435876,0,-6,-28,-16,-6,-3,1,-2
1523209632435876,2,2,-11,9,2,-1,-3,-1
1523209632435876,-3,-7,-20,7,3,2,9,0
1523209632458962,2,4,-2,5,5,1,-15,-1
1523209632458962,-2,-3,13,-3,4,-1,17,-1
1523209632458962,0,-1,-4,1,1,-5,-2,-1
1523209632458962,0,2,13,-7,-8,0,-3,-2
1523209632471976,0,0,18,-1,-8,0,0,-1
1523209632471976,0,4,17,5,5,2,-5,-1
1523209632479992,-4,-13,-40,-2,-2,0,-2,-2
1523209632479992,-1,-3,6,-11,1,-2,2,-1
1523209632496074,-1,3,7,9,-7,-5,-2,0
1523209632496074,-2,-1,8,0,-3,-6,-8,-1
1523209632496074,-1,-1,-23,-39,11,7,5,1
1523209632496074,0,4,28,7,2,2,-8,-2
1523209632519101,-1,-1,-16,-2,-4,-6,5,-3
1523209632519101,2,2,4,-1,-6,1,-4,-3
1523209632519101,0,3,46,13,12,4,5,1
1523209632519101,-3,-1,7,2,-6,-1,1,-2
1523209632532131,2,7,1,-3,6,6,1,2
1523209632532131,-1,-3,-18,-1,-4,-2,-6,-1
1523209632540152,3,6,16,5,-4,-2,5,0
1523209632540152,-4,-16,-42,-12,-10,-7,-5,-1
1523209632555193,-4,5,65,10,-3,4,1,-5
1523209632555193,-1,-1,-19,1,6,-4,1,3
1523209632556194,-3,-2,-28,9,2,4,-4,-3
1523209632556194,5,4,28,0,9,4,4,3
1523209632578253,-2,-5,-25,-12,-3,-4,1,-3
1523209632578253,-1,-1,19,-1,-6,-3,-4,-2
1523209632579256,-2,0,11,4,-10,-10,-3,-2
1523209632579256,-4,1,3,-4,-11,-6,2,0
1523209632592291,1,-2,-10,5,5,0,-3,0
1523209632592291,-1,0,-2,-14,7,6,1,0
1523209632600549,0,0,3,5,-2,-4,-3,0
1523209632600549,-3,-2,-4,-11,-9,-5,-4,-4
1523209632615589,-1,-4,5,-1,-4,-8,-3,-2
1523209632615589,-1,-2,-18,9,-8,-1,2,1
1523209632616354,2,5,26,1,9,2,-2,-1
1523209632616354,-2,-8,-41,-12,6,7,2,0
1523209632638413,-2,-6,-9,0,2,-2,0,-3
1523209632638413,-1,-3,-13,6,4,-2,-1,-1
1523209632639416,-3,-3,-9,-8,-12,-3,-4,-3
1523209632639416,-2,0,-28,-5,-3,-7,-3,-2
1523209632652459,-2,0,9,-5,-12,-8,-2,-2
1523209632652459,1,4,70,0,-2,5,-1,-1
1523209632660472,-2,-8,-73,9,21,5,1,0
1523209632660472,2,3,23,-1,-5,-5,-4,1
1523209632675512,-5,-8,-11,-8,-3,1,1,-1
1523209632675512,-1,1,-4,-15,1,-2,-2,0
1523209632676555,-3,-5,1,-8,-8,0,-3,-3
1523209632676555,1,3,8,13,10,2,1,0
1523209632698810,0,1,13,5,2,1,1,0
1523209632698810,-2,-2,-12,-2,-4,-3,1,0
1523209632699575,-1,-1,-1,-2,-4,-5,-1,-1
1523209632699575,-1,-1,-4,-1,-3,-4,-3,-2
1523209632712611,0,2,6,4,-3,-2,-1,1
1523209632712611,-1,-10,-17,-5,-3,-3,-1,-1
1523209632720632,-2,-4,-33,-15,-13,-6,-2,0
1523209632720632,0,6,56,7,1,5,-3,-3
1523209632735677,-1,0,-8,1,7,-6,3,1
1523209632735677,2,2,17,14,21,12,3,0
1523209632736679,0,2,16,2,-7,-2,-1,-3
1523209632736679,0,-1,3,-4,-7,-4,-2,-1
1523209632758734,1,-1,-79,-17,0,1,-2,1
1523209632758734,-4,-1,35,12,-12,-7,-4,-3
1523209632759735,-2,-6,-43,-34,-3,-4,-4,-2
1523209632759735,1,1,-11,15,4,3,3,1
1523209632781827,2,4,19,4,12,10,3,3
1523209632781827,0,0,-6,19,-2,-2,-4,-1
1523209632781827,-1,-3,-8,-32,-5,-3,-3,-1
1523209632781827,-1,1,6,0,-11,-9,-5,-4
1523209632796058,-2,-6,19,1,0,-3,-2,-1
1523209632796058,-2,-2,4,-1,0,0,1,-2
1523209632796058,0,3,38,12,3,-2,-1,-1
1523209632796058,-2,-6,-40,-23,-8,-3,-1,-1
1523209632818897,-1,-1,24,8,9,2,1,0
1523209632818897,-1,1,-9,-10,-7,-4,-4,-4
1523209632819898,0,-4,15,19,2,2,2,0
1523209632819898,-1,4,31,3,3,-1,0,0
1523209632840953,-2,-4,-62,-6,-9,2,-1,-2
1523209632840953,0,-2,2,-6,-1,0,0,0
1523209632841955,0,-1,3,9,2,2,-1,0
1523209632841955,0,3,7,4,-1,-3,-1,0
1523209632854994,-1,-5,8,-3,-7,-5,-4,-1
1523209632854994,-1,-1,-44,-18,-5,-2,-2,-1
1523209632855991,2,2,23,1,-2,-2,1,-1
1523209632855991,-4,-5,-13,1,-5,-7,-4,-3
1523209632879054,-1,2,26,12,10,2,2,-1
1523209632879054,0,0,-8,-4,1,8,4,0
1523209632879054,-2,-3,-23,2,0,-8,-3,-1
1523209632879054,-1,-3,9,-4,2,3,1,1
1523209632901118,0,0,-48,-6,-13,-3,-3,-2
1523209632901118,-3,2,34,5,8,2,-2,-1
1523209632902118,-2,-10,-53,2,-2,-1,-2,-2
1523209632902118,0,-1,10,-7,-8,-9,-3,-1
1523209632915383,-1,-3,19,-1,-14,-4,-1,-2
1523209632915383,1,-1,-8,0,15,6,1,2
1523209632916151,1,3,16,26,13,11,3,2
1523209632916151,-4,-8,-55,-24,-10,-5,-2,-2
1523209632938209,1,2,16,9,0,1,0,0
1523209632938209,-1,1,3,-8,-7,-4,-1,-1
1523209632939211,-2,3,23,5,-1,-2,-1,-2
1523209632939211,1,0,7,7,8,5,-1,0
1523209632961310,-2,-4,-7,-4,-12,-7,-5,-3
1523209632961310,-3,-3,-3,7,-8,-6,-2,-2
1523209632962274,2,1,-17,-3,7,6,2,1
1523209632962274,3,2,42,11,2,1,0,1
1523209632975347,-2,-3,-10,-8,-3,-1,0,0
1523209632975347,2,3,9,5,7,0,0,0
1523209632976311,-3,-3,-23,-8,-11,0,-3,-1
1523209632976311,0,5,-17,1,15,5,1,0
1523209632998604,-3,-6,1,-8,-18,-9,-5,-2
1523209632998604,-1,-6,-13,-10,-13,-8,-4,-2
1523209632999371,1,5,7,6,12,3,2,0
1523209632999371,0,-2,9,4,1,2,2,-2
1523209633021430,-1,4,27,8,7,3,0,0
1523209633021430,-2,-2,-45,-12,-1,3,-2,-2
1523209633021430,-3,-2,16,-6,-11,-19,-5,-2
1523209633021430,-1,1,-12,4,0,3,2,0
1523209633035470,-1,2,17,-3,1,0,-2,1
1523209633035470,0,-1,23,2,-1,0,0,-2
1523209633036477,1,1,10,0,-2,6,1,0
1523209633036477,-2,1,5,1,1,-3,-2,0
1523209633058568,-1,-7,-17,-3,-8,-5,-1,-1
1523209633058568,1,0,0,-1,2,-2,-2,0
1523209633059531,-2,-3,-9,-6,1,0,0,-2
1523209633059531,-1,0,30,5,-8,-3,-3,-3
1523209633081780,-1,0,17,-2,14,5,0,-3
1523209633081780,-1,3,6,2,-10,-9,-3,0
1523209633081780,-3,-3,20,-13,-7,-3,-2,-1
1523209633081780,-1,-8,-80,1,12,8,2,1
1523209633095862,-2,1,15,7,-4,0,-1,0
1523209633095862,-1,-1,-1,-3,7,0,1,-1
1523209633096631,-1,0,-6,0,-11,-3,-4,-1
1523209633096631,-2,-2,2,-15,-8,-2,-1,-2
1523209633118692,-1,2,13,9,5,2,-1,-1
1523209633118692,-2,-5,-47,-3,-1,-3,-1,-1
1523209633119691,0,-2,-4,-1,-13,-5,-4,-2
1523209633119691,-2,1,15,0,3,0,0,0
1523209633140748,3,0,-9,3,12,3,1,1
1523209633140748,-2,-1,8,-4,-11,-6,-4,-3
1523209633141750,2,2,15,4,1,1,1,-1
1523209633141750,0,-2,-5,2,-7,-1,-2,-1
1523209633155790,-6,-14,-78,-37,-2,-2,-1,-2
1523209633155790,-1,5,26,6,-4,-1,-1,-1
1523209633155790,-1,-3,11,-1,3,-2,-2,1
1523209633155790,-1,-3,7,9,-6,-5,-1,-2
1523209633178849,2,8,28,2,1,1,0,0
1523209633178849,1,-2,-6,-2,3,0,0,0
1523209633179851,-1,-4,-14,-7,-5,-5,-3,-2
1523209633179851,-1,-3,0,-2,-7,-2,-1,0
1523209633200910,0,6,0,6,18,7,2,2
1523209633200910,-1,-5,-1,7,3,6,1,1
1523209633201916,0,4,-1,-3,8,9,2,1
1523209633201916,0,-1,37,-2,-7,-15,-5,-4
1523209633216029,-3,-14,-84,-9,-11,-7,-2,-3
1523209633216029,-2,-1,8,4,0,0,-3,0
1523209633216029,-1,0,12,5,-3,2,1,1
1523209633216029,-1,-1,-10,-6,3,3,-1,-1
1523209633239233,2,5,41,17,3,-1,-1,-1
1523209633239233,0,-1,-28,-18,-2,-2,1,1
1523209633239233,-2,-7,0,0,-1,1,-1,-3
1523209633239233,-1,-1,1,-1,1,-1,-1,0
1523209633261067,3,2,27,3,0,-4,-3,-1
1523209633261067,-3,-1,3,4,0,-1,0,-2
1523209633262072,-2,1,13,-4,-9,-9,-4,-1
1523209633262072,-1,-1,-1,-1,-10,-6,-3,-2
1523209633275105,2,4,21,17,16,12,7,2
1523209633275105,0,-2,-7,-7,8,6,2,1
1523209633276106,-1,-3,-3,-2,-1,-2,-1,-1
1523209633276106,-1,-1,-11,-2,-7,-5,-5,-2
1523209633299259,-3,-4,-1,-3,-17,-9,-6,-5
1523209633299259,0,-1,-1,-12,4,-1,0,-2
1523209633299259,0,-1,14,7,0,-2,-2,-1
1523209633299259,1,1,-15,3,3,5,2,0
1523209633321227,-1,4,30,-7,4,1,-1,0
1523209633321227,-4,-6,-31,-1,-10,-7,-3,-3
1523209633322229,-2,-1,9,1,1,-2,-3,-2
1523209633322229,0,-2,14,-2,-2,-4,-2,-1
1523209633335271,-1,-2,-24,-8,-6,0,0,0
1523209633335271,0,-1,25,8,-2,-2,-1,0
1523209633336283,-1,1,-34,-10,-3,-6,-3,-3
1523209633336283,0,0,15,2,0,0,3,1
1523209633358327,0,-1,-26,-9,9,4,0,1
1523209633358327,-1,-2,3,-4,-2,-4,-5,-2
1523209633359329,-1,-1,-19,3,-8,0,-1,-1
1523209633359329,-2,2,16,0,7,5,1,1
1523209633381622,-1,0,6,-3,-12,-5,-2,1
1523209633381622,-2,-4,3,-2,-8,-8,-25,-3
1523209633382389,-2,3,16,4,11,7,37,1
1523209633382389,-1,-4,-10,-10,-8,-5,-4,-1
1523209633395467,-1,-3,-7,-2,1,0,1,1
1523209633395467,1,3,14,7,4,5,-3,-1
1523209633402450,0,0,-10,4,15,2,-9,-1
1523209633402450,-2,-4,-15,-10,-8,-1,-1,-1
1523209633418495,-1,0,12,-3,-3,0,1,-3
1523209633418495,-1,-6,-4,5,-2,2,6,0
1523209633419490,1,0,3,0,5,1,-6,-1
1523209633419490,-2,0,0,5,3,0,1,-2
1523209633441547,-2,-2,-17,-5,-15,-7,-8,-2
1523209633441547,1,3,29,2,2,0,4,-2
1523209633441547,2,2,-28,-13,5,1,-1,1
1523209633441547,-2,-4,12,8,0,-2,-2,-3
1523209633454582,-1,3,4,0,-2,-2,-3,-3
1523209633454582,0,4,-8,6,2,2,6,1
1523209633462841,1,0,22,3,-6,-4,-7,-1
1523209633462841,0,7,42,-1,4,3,-2,0
1523209633478647,-5,-21,-33,-11,-11,-5,1,-4
1523209633478647,-1,3,28,6,7,-1,4,0
1523209633479649,-2,-4,-43,-4,-8,-2,-4,-2
1523209633479649,1,1,-4,-1,1,-2,0,-2
1523209633500706,-2,2,28,7,2,6,2,1
1523209633500706,0,0,-22,-19,-19,-15,-2,-1
1523209633501710,0,-3,24,2,1,1,-3,-1
1523209633501710,-2,-4,-12,-2,7,0,-2,-1
1523209633514976,-1,4,-9,2,-4,-1,-2,-1
1523209633514976,-3,-4,-12,-4,-6,-3,-2,-1
1523209633522762,-2,-2,5,-3,-6,-4,2,1
1523209633522762,-1,-3,-9,2,3,1,-2,-2
1523209633538804,0,1,22,-1,5,4,1,0
1523209633538804,-2,-3,-32,-8,3,4,0,-1
1523209633540062,-3,-4,8,-2,-6,-7,-5,-3
1523209633540062,0,1,-5,-3,0,0,-1,0
1523209633560865,-2,-1,-14,2,-13,-11,-1,-2
1523209633560865,-2,-6,-12,1,4,4,1,0
1523209633562869,-1,2,5,6,6,5,1,0
1523209633562869,-1,2,0,-10,-6,-1,-1,-1
1523209633574902,-1,1,67,5,6,-2,-4,-3
1523209633574902,-1,-4,-43,2,-8,-3,-2,0
1523209633583157,-2,3,21,-2,-5,-2,-3,-2
1523209633583157,0,-2,15,7,5,4,3,2
1523209633599200,-2,-7,-32,-7,-4,-4,-4,-2
1523209633599200,-1,2,21,1,-7,-4,-2,-1
1523209633599200,-3,-6,-7,-3,-4,0,-1,-1
1523209633599200,0,-1,-20,1,2,4,2,1
1523209633621031,0,3,8,0,5,2,-1,1
1523209633621031,0,-4,-11,0,2,-1,0,-2
1523209633622026,-1,-1,-7,-9,-1,3,0,-1
1523209633622026,-1,0,-1,6,8,3,1,0
1523209633635066,-1,-1,-36,-1,-7,-3,-2,-1
1523209633635066,-1,2,48,1,-6,-5,-5,-4
1523209633644085,-1,-1,-14,-7,-3,-3,-3,-1
1523209633644085,-4,-3,-50,-11,2,1,-1,-1
1523209633658122,1,0,4,3,6,1,0,-1
1523209633658122,-2,-1,4,3,1,1,1,0
1523209633665376,-1,-3,-10,-3,-8,-4,-3,-3
1523209633665376,0,-2,2,-2,1,-3,-1,-1
1523209633681419,2,0,-9,5,-1,5,4,0
1523209633681419,-2,1,9,-2,11,5,0,0
1523209633683188,0,-2,3,2,-5,-4,-1,-1
1523209633683188,-1,-3,-7,-4,-11,-7,-4,-1
1523209633703248,-1,-1,16,0,-9,-6,-3,0
1523209633703248,-1,5,4,-10,0,1,2,0
1523209633705247,-3,-8,28,0,-1,-2,0,-1
1523209633705247,-2,-3,-45,2,-2,-5,-3,-3
1523209633718288,-3,-1,7,-1,-1,-2,-1,-1
1523209633718288,2,2,12,6,3,2,2,2
1523209633724298,-1,-1,-7,2,2,-2,0,0
1523209633724298,-2,2,28,-7,-5,-2,-2,-3
1523209633741345,0,-3,-12,-4,-2,-2,-1,1
1523209633741345,-2,-3,-12,-1,-2,-4,-1,-2
1523209633742348,1,3,-19,1,-4,2,0,1
1523209633742348,-1,-4,16,4,11,5,1,-2
1523209633763638,0,3,-1,1,1,-1,0,0
1523209633763638,-3,-3,3,-8,-13,-9,-5,-4
1523209633765408,0,0,-5,-5,-8,-3,-2,0
1523209633765408,0,1,6,3,-2,-1,0,1
1523209633777439,1,-1,-4,-1,9,6,0,-1
1523209633777439,0,2,32,1,-2,0,1,-1
1523209633784468,-2,-2,-6,4,3,0,0,-2
1523209633784468,-2,-3,-13,-2,-7,-3,-2,-1
1523209633801512,-2,3,4,-6,-12,-7,-4,-2
1523209633801512,-2,-6,-12,-3,0,-3,-1,-1
1523209633802505,0,4,-21,4,13,6,2,1
1523209633802505,0,-1,32,-5,-2,-2,-2,-2
1523209633823562,0,0,0,8,5,4,5,1
1523209633823562,-2,-5,13,6,-5,-2,-1,0
1523209633825570,-4,-4,-62,-15,-8,-8,-6,-2
1523209633825570,-1,-2,25,-2,-10,-3,-1,-1
1523209633837599,0,3,15,1,25,7,0,1
1523209633837599,-2,-6,-52,-1,-10,-3,-2,-2
1523209633844854,-1,0,24,4,-5,-5,0,-2
1523209633844854,0,4,2,2,-5,-2,0,0
1523209633860661,-1,-4,-10,-4,-2,-1,-1,-3
1523209633860661,1,4,10,0,8,7,1,1
1523209633862666,1,0,19,6,6,5,-2,1
1523209633862666,-1,1,-41,-11,-5,-3,-3,-1
1523209633883723,-1,-6,1,-5,-8,-4,-3,-3
1523209633883723,-1,-2,-4,-6,2,-1,-1,-2
1523209633884727,-1,-2,-20,-3,0,-1,-2,0
1523209633884727,0,1,0,6,4,1,1,0
1523209633897994,-1,0,-5,-3,-4,-5,-1,-1
1523209633897994,1,4,8,3,4,3,1,0
1523209633904778,0,-1,2,1,-2,0,-2,0
1523209633904778,0,-4,7,1,-3,-3,-2,-1
1523209633920820,-3,-2,-8,-1,-8,-5,-1,-2
1523209633920820,-1,0,-1,-5,0,-3,-2,-2
1523209633922825,-1,4,20,-1,2,2,3,-1
1523209633922825,0,-3,-9,7,10,2,-2,0
1523209633944116,-2,-1,16,-3,-14,-6,-2,-3
1523209633944116,0,0,-8,1,-3,-3,-2,1
1523209633945896,0,1,9,-1,0,0,0,-2
1523209633945896,1,0,-10,-3,-5,-1,-1,0
1523209633957920,-1,-2,10,-3,1,-2,-3,-1
1523209633957920,-2,-4,5,-3,7,1,0,-2
1523209633965167,-2,1,-12,5,0,-1,-2,-1
1523209633965167,-3,0,34,-5,1,1,-2,-1
1523209633980980,-1,2,-33,-1,2,5,1,2
1523209633980980,-2,-5,19,1,-8,-2,-3,0
1523209633982985,-1,0,6,5,-4,-10,-3,-2
1523209633982985,0,-2,6,1,-4,1,0,1
1523209634004048,-1,-3,-26,-14,2,-3,-2,-2
1523209634004048,-2,3,5,4,1,2,1,-1
1523209634005043,0,-3,8,1,-10,-1,-3,-1
1523209634005043,1,2,9,0,6,3,1,0
1523209634018087,-1,-1,12,5,5,4,2,2
1523209634018087,0,-4,-35,-6,-11,-6,-3,-3
1523209634025099,-2,-2,16,-3,-2,-4,-2,-1
1523209634025099,-2,-5,-20,-3,-6,0,-1,-1
1523209634041375,0,1,12,8,17,6,1,0
1523209634041375,-1,3,-16,-4,-12,-6,-2,-1
1523209634043146,-2,-2,6,0,-5,-2,-2,-1
1523209634043146,-2,-2,18,-2,-1,2,3,-2
1523209634064245,0,0,8,-2,-5,-3,-1,-1
1523209634064245,1,0,-8,1,9,4,1,1
1523209634065204,0,-3,-7,-5,-1,1,-2,0
1523209634065204,-2,1,7,-4,-7,-7,-3,-3
1523209634078239,0,-2,14,3,-6,0,0,-1
1523209634078239,0,-1,3,5,18,6,1,-1
1523209634084258,0,1,6,-11,-4,2,0,0
1523209634084258,-2,-3,-63,-6,0,-3,0,0
1523209634101305,-2,2,32,7,-8,-5,-4,-2
1523209634101305,0,1,-11,-2,-3,-2,-1,-2
1523209634102311,0,-6,-23,3,13,5,3,-1
1523209634102311,-3,-3,1,-19,-8,-2,0,-2
1523209634123357,0,-2,-6,-1,-4,-3,-2,-2
1523209634123357,0,-1,0,3,-1,0,0,-1
1523209634125364,2,2,21,10,-1,-5,-2,-2
1523209634125364,0,-3,-5,-1,-6,-2,-1,0
1523209634138399,-1,-1,-18,-1,10,2,1,-2
1523209634138399,-2,-3,18,3,4,4,-2,1
1523209634145429,-1,5,-13,-9,-3,-3,-4,0
1523209634145429,-3,-7,-25,1,-4,-1,-3,0
1523209634161459,-2,-1,-12,-5,-5,-4,-1,-2
1523209634161459,1,1,30,1,-11,-5,-3,-2
1523209634162461,-2,-5,-55,-17,-4,-4,-3,-2
1523209634162461,2,3,-2,11,11,4,3,1
1523209634183521,1,-3,4,3,3,-1,0,0
1523209634183521,-2,2,-3,-4,-6,-2,-1,-2
1523209634185533,0,3,27,1,4,2,0,-1
1523209634185533,-1,0,-18,1,-2,-2,-4,-1
1523209634197791,-3,-6,-11,-4,-8,-4,-2,-1
1523209634197791,-1,0,-8,-3,-3,1,0,1
1523209634212831,-2,-2,17,-1,2,-2,-1,-3
1523209634212831,1,1,30,11,3,-1,1,1
1523209634220618,0,-2,-25,-10,-4,-3,0,-2
1523209634220618,-2,-4,-7,-10,-8,-4,-1,-2
1523209634222622,-2,-1,0,1,-9,-3,0,0
1523209634222622,0,0,0,-4,5,1,-3,0
1523209634243913,0,-2,5,6,9,2,0,-1
1523209634243913,0,1,2,2,-5,-2,0,0
1523209634245824,-2,-3,-8,-9,3,0,-2,-1
1523209634245824,2,1,-6,4,3,2,0,1
1523209634256714,-1,1,-10,-3,-6,-2,-2,0
1523209634256714,-2,-4,-10,-18,-1,-3,-3,-3
1523209634266749,0,4,58,8,-5,-2,0,0
1523209634266749,-3,-3,-13,-16,-15,-6,-3,-3
1523209634281817,2,4,35,10,18,5,0,3
1523209634281817,0,0,-16,10,2,1,0,0
1523209634282783,-1,-3,10,-7,0,0,-1,-1
1523209634282783,0,2,-3,-2,0,0,0,1
1523209634303838,-1,0,-2,-7,-2,-4,-3,-1
1523209634303838,1,2,11,4,1,0,1,-1
1523209634304841,0,-3,3,0,1,2,-1,0
1523209634304841,0,1,4,0,-7,-4,-5,-2
1523209634316875,-2,-4,-12,0,1,2,0,0
1523209634316875,-2,-1,-3,-2,0,-1,0,-1
1523209634325899,0,-1,-19,2,1,0,0,-2
1523209634325899,-3,-4,3,-2,-5,-4,-2,-1
1523209634340937,-1,0,16,2,-6,-5,-4,-2
1523209634340937,-1,-2,-19,-1,-2,0,-1,-2
1523209634342945,0,2,26,8,0,-1,1,1
1523209634342945,-5,-15,-80,-29,-8,-4,-4,-6
1523209634364206,-1,4,22,8,11,7,3,0
1523209634364206,0,0,11,0,1,-1,-2,0
1523209634365000,-2,-4,4,4,-3,-4,-3,-2
1523209634365000,0,1,-16,14,-4,-2,0,-2
1523209634377033,-1,-1,-3,-14,-11,-3,1,-1
1523209634377033,-1,-4,-17,-4,2,1,0,-1
1523209634386058,-1,-1,-24,-7,-7,-2,-4,-1
1523209634386058,1,2,26,13,4,-8,0,0
1523209634401103,-2,0,21,-11,-9,0,-2,-2
1523209634401103,0,0,14,9,3,-2,-2,-1
1523209634403102,0,-1,-16,1,4,7,3,1
1523209634403102,-2,0,28,2,4,3,-1,-1
1523209634423156,-2,-2,-26,-5,-13,-7,-3,-3
1523209634423156,0,-1,7,-3,-14,-5,-4,-1
1523209634425161,-2,-2,-12,-1,18,6,2,-1
1523209634425161,2,1,-19,0,3,3,0,-1
1523209634437192,0,0,15,-10,0,1,1,0
1523209634437192,-3,-8,-7,-19,-13,-8,-3,-4
1523209634446215,1,1,14,5,-7,-4,-2,-1
1523209634446215,-1,0,11,6,2,3,2,2
1523209634461256,-1,-1,4,7,1,-1,-2,-2
1523209634461256,0,-1,3,3,-1,-3,-1,0
1523209634463332,-2,-1,1,-5,-4,-4,-2,-2
1523209634463332,-1,-1,17,2,1,0,0,1
1523209634483314,-2,1,-34,-16,-6,0,1,-1
1523209634483314,-3,-2,13,8,13,5,1,-1
1523209634485329,-1,-1,-11,-4,-10,1,0,-1
1523209634485329,-1,-1,-26,-10,1,-7,1,-2
1523209634497588,0,1,41,15,-3,-1,-2,0
1523209634497588,0,1,-34,-3,1,2,0,-1
1523209634506375,-2,-3,-1,0,-7,0,-2,-2
1523209634506375,1,2,23,3,15,5,0,-1
1523209634521415,-2,-3,-9,-7,-7,-2,-4,-1
1523209634521415,2,-1,10,-2,-1,-2,-1,0
1523209634522418,0,0,7,3,-9,-5,-3,-2
1523209634522418,-1,-1,-1,-5,-8,-1,-1,0
1523209634543709,-1,-2,-8,3,1,-1,0,-2
1523209634543709,0,0,9,0,6,2,0,0
1523209634545479,0,1,-11,1,7,1,0,0
1523209634545479,2,1,20,-1,-11,1,1,1
1523209634557552,0,-1,13,11,14,-2,-2,-3
1523209634557552,-4,-2,-7,-7,-14,-5,-2,-2
1523209634566541,0,-2,2,-2,-4,-4,-2,0
1523209634566541,-1,-2,16,5,1,0,-3,-3
1523209634581779,-2,-2,-19,1,-2,2,1,0
1523209634581779,-2,-1,-4,0,0,1,-1,-1
1523209634582581,0,3,-32,-1,10,1,1,1
1523209634582581,-4,-8,20,-18,-11,-6,-5,-5
1523209634603636,0,-3,-19,-5,-13,-9,-4,-3
1523209634603636,-2,-2,-14,6,5,-1,1,-1
1523209634605640,2,2,28,-2,1,3,0,2
1523209634605640,0,0,-12,1,5,4,0,-1
1523209634617681,0,2,21,7,4,0,-1,-1
1523209634617681,-1,-2,-21,-19,-5,-4,-4,-2
1523209634626697,-1,0,24,11,-6,0,0,-1
1523209634626697,-1,-1,-27,-2,-1,-3,-2,-2
1523209634640734,0,-1,-19,0,4,0,-1,-2
1523209634640734,0,2,6,9,-5,-1,-2,-1
1523209634642740,-2,-7,-11,-14,-2,-3,-4,-3
1523209634642740,-2,2,-26,-3,1,0,1,0
1523209634664029,-1,0,-11,2,2,4,3,-1
1523209634664029,-1,1,16,-1,1,-1,-1,-1
1523209634664797,-4,-3,-12,-3,0,-3,-2,-1
1523209634664797,-1,0,4,0,-6,-2,-3,0
1523209634685853,-2,-3,-25,-4,1,1,-1,-1
1523209634685853,0,0,6,3,7,3,2,1
1523209634687858,-2,-4,-1,-3,-5,-4,-4,-2
1523209634687858,0,1,6,2,-4,-2,-1,1
1523209634700899,0,-2,8,-8,-11,-6,-2,-1
1523209634700899,-1,-1,-23,3,6,6,0,-1
1523209634702898,1,0,2,-6,7,10,2,1
1523209634702898,-2,-3,3,-5,-4,-12,-3,-2
1523209634723955,-1,-4,-56,-1,-5,-1,1,0
1523209634723955,-2,-4,31,-3,-7,-5,-4,0
1523209634724957,-2,-3,12,6,-6,-6,-3,-3
1523209634724957,0,-1,-25,4,5,10,3,-1
1523209634746248,0,1,30,-6,4,5,0,2
1523209634746248,-1,-4,6,3,1,-3,-1,0
1523209634748225,-2,-2,8,0,1,-3,-1,-1
1523209634748225,-1,-1,20,-1,-8,-4,-3,-1
1523209634761055,-2,-1,0,3,-9,-5,0,-1
1523209634761055,1,3,-6,1,8,5,3,1
1523209634763058,-1,-2,-37,-2,-2,-2,-1,-2
1523209634763058,2,0,17,5,6,3,0,-2
1523209634784120,0,4,11,-2,-2,-3,-3,-2
1523209634784120,-5,-8,-39,-15,-19,-12,-6,-5
1523209634785119,0,11,-14,-5,-8,-8,-2,-3
1523209634785119,-4,-19,12,11,16,8,3,2
1523209634806175,3,14,-11,-2,3,3,-1,1
1523209634806175,-1,-2,28,4,-8,-4,-3,-1
1523209634808180,-2,-1,-19,-7,-8,-5,-2,0
1523209634808180,0,4,-6,1,3,0,-4,-2
1523209634820213,-1,-3,11,1,-2,-3,-2,0
1523209634820213,-1,-2,17,3,9,8,1,-1
1523209634827228,-3,-6,-37,-12,-6,-8,-1,0
1523209634827228,1,6,14,5,1,0,1,1
1523209634843506,-4,-8,17,-4,-4,-3,-12,-2
1523209634843506,1,5,-10,-4,-8,-3,14,1
1523209634845276,-3,-8,5,7,6,10,1,0
1523209634845276,-2,1,6,-4,1,-3,1,0
1523209634866336,-2,-1,0,-3,-8,-8,-8,-3
1523209634866336,-3,-5,-6,-5,-9,-4,-6,-2
1523209634867340,1,1,17,5,4,-4,0,-2
1523209634867340,-1,1,-2,6,-2,0,-4,-2
1523209634880605,-2,-4,-7,-5,12,9,4,-1
1523209634880605,2,0,-8,-1,-2,-5,-3,-2
1523209634887387,0,0,11,2,0,4,4,-1
1523209634887387,0,0,-2,-4,-5,0,-4,-2
1523209634903430,-4,-5,-59,-19,-7,-11,0,-3
1523209634903430,-1,2,8,7,16,7,1,-1
1523209634905438,1,1,13,1,-2,3,-4,0
1523209634905438,-1,2,0,-3,-7,-4,-1,0
1523209634926492,-1,-1,-2,-3,-13,-6,1,-2
1523209634926492,-2,-7,-31,-3,2,-1,-1,0
1523209634927495,0,0,-5,5,1,2,1,0
1523209634927495,-1,2,22,-1,4,2,0,-1
1523209634948808,-2,-7,-34,-12,-7,-5,-1,-3
1523209634948808,0,6,29,4,-9,-4,-4,-1
1523209634950560,-2,-7,-17,9,21,7,1,0
1523209634950560,-1,-3,-30,-5,-2,-2,-1,-1
1523209634963629,1,1,32,9,7,3,1,2
1523209634963629,1,1,13,-4,-5,-3,-3,-2
1523209634965600,-3,-2,0,-5,-12,-1,-1,0
1523209634965600,0,3,4,-4,4,-2,1,0
1523209634985651,-1,-6,-24,-4,-3,0,0,-2
1523209634985651,-2,3,29,7,5,2,-1,-1
1523209634987655,0,0,-1,-5,-10,-5,-2,-1
1523209634987655,-2,-1,8,3,6,0,-2,-2
1523209635000696,-3,-1,4,-5,-13,3,-2,-2
1523209635000696,1,2,10,8,1,-11,-1,-1
1523209635006706,0,-5,-28,-14,5,1,0,-1
1523209635006706,-2,0,11,-3,-9,-3,-2,-2
1523209635023752,-1,0,20,10,-1,-5,-2,-2
1523209635023752,-3,-2,-8,-4,-7,-2,-4,-2
1523209635024755,1,4,-4,4,15,8,3,1
1523209635024755,0,-2,-11,0,-2,2,1,-1
1523209635046829,-1,-2,30,-1,-6,-4,-2,0
1523209635046829,-3,-2,-33,-2,-5,-4,-3,-2
1523209635047814,-1,3,44,-4,-7,-6,-1,-3
1523209635047814,0,-2,2,-4,-5,-1,1,0
1523209635060890,0,3,2,4,11,2,-1,0
1523209635060890,-1,-2,-2,2,8,3,-1,1
1523209635066878,-3,-4,0,-4,-14,-9,-5,-1
1523209635066878,-1,-1,-3,1,6,4,2,0
1523209635083916,-1,3,10,6,-2,4,3,0
1523209635083916,-3,-10,-47,-9,-1,1,-1,0
1523209635084915,-1,1,16,4,-6,-4,-4,-3
1523209635084915,-3,-5,-15,-12,-4,-7,-2,-2
1523209635105970,0,-2,-7,9,5,3,0,2
1523209635105970,1,2,10,-2,6,-2,0,-1
1523209635107975,1,4,27,9,2,-2,-3,-1
1523209635107975,-1,-3,-30,-5,-16,-6,-3,-2
1523209635120010,0,1,1,-3,1,7,3,1
1523209635120010,-1,-2,-2,3,18,7,0,0
1523209635127065,-1,-1,-4,-1,-8,-6,-3,-1
1523209635127065,-1,-1,-1,5,-5,0,-2,1
1523209635144225,0,-3,-13,-7,3,1,0,-1
1523209635144225,0,0,-5,-9,-2,1,-3,-1
1523209635145072,-1,2,-10,4,2,2,-1,-1
1523209635145072,-3,-4,58,5,0,-3,-5,-3
1523209635166136,-3,-5,-78,-20,-9,-8,-2,-2
1523209635166136,0,0,12,0,-9,0,1,0
1523209635168135,0,1,20,9,21,11,3,0
1523209635168135,2,2,2,-4,0,3,1,-1
1523209635180376,-2,-4,20,-2,-12,-7,-6,-3
1523209635180376,0,2,-5,0,-9,-16,-3,-2
1523209635189193,1,2,3,-1,3,7,3,2
1523209635189193,-1,1,0,-1,10,3,1,0
1523209635203229,-2,-7,-27,-11,-11,-5,-4,-2
1523209635203229,0,0,16,11,-1,7,2,2
1523209635205233,-2,-5,-19,-15,-1,-6,-3,-2
1523209635205233,0,3,42,23,-7,-4,-3,-2
1523209635226525,-2,-3,-31,-18,-1,-1,0,-3
1523209635226525,-2,-1,4,-7,-3,-3,-2,-2
1523209635228350,-1,-4,-25,-4,-12,-3,1,-1
1523209635228350,2,1,5,5,16,8,3,0
1523209635239325,-1,4,41,20,0,2,-2,-1
1523209635239325,-4,-6,-31,-15,-15,-20,-3,-4
1523209635248556,-1,0,5,2,4,9,2,1
1523209635248556,-3,-2,-30,-10,6,1,-2,-1
1523209635263623,0,-1,46,13,-11,-5,-1,0
1523209635263623,-1,1,-2,1,20,14,3,-1
1523209635265399,-1,-2,5,-4,-7,-6,-3,-1
1523209635265399,-2,-1,-5,-7,-17,-8,-2,-2
1523209635286449,1,-1,-7,-4,9,-2,-2,0
1523209635286449,-3,-2,56,-1,-10,-3,-2,-1
1523209635287496,-3,-1,-4,0,-11,-8,-3,-2
1523209635287496,-2,-1,10,-3,-4,-2,-1,-1
1523209635299489,-1,1,-23,-1,12,5,2,0
1523209635299489,0,-2,11,-2,-1,2,1,1
1523209635308507,-1,-8,-76,-12,-4,1,-3,-2
1523209635308507,-1,1,2,0,1,-1,0,-1
1523209635323547,0,5,35,2,-2,0,-1,-3
1523209635323547,-3,-5,-30,2,-7,-7,-1,-1
1523209635325553,-1,3,7,-6,-4,-3,-3,-1
1523209635325553,-2,-3,-26,1,6,-2,-1,-1
1523209635346674,0,-1,4,2,2,5,0,-2
1523209635346674,1,3,3,5,3,4,-2,-1
1523209635347611,-3,-2,14,-10,-5,-3,-1,-3
1523209635347611,-1,-4,-11,-2,-6,-1,-3,-2
1523209635359684,0,0,-9,2,6,1,1,-1
1523209635359684,0,-2,12,-4,7,4,-1,-2
1523209635368667,0,-2,-1,5,-8,-8,-3,-2
1523209635368667,-1,-2,-5,-10,2,-2,-4,-3
1523209635383714,0,0,15,9,5,0,1,3
1523209635383714,-2,-1,-22,-6,-7,3,0,0
1523209635384710,0,6,27,4,3,7,0,-2
1523209635384710,-1,-4,-27,2,0,-5,1,1
1523209635405766,-2,-6,-2,-9,-2,-8,-4,-1
1523209635405766,0,-2,0,-4,-8,-1,-1,-1
1523209635407771,0,-2,-9,3,8,-2,-1,-1
1523209635407771,0,4,7,-3,-15,-2,1,0
1523209635419846,1,6,10,11,18,9,2,1
1523209635419846,-1,-6,-20,-4,1,2,-3,-2
1523209635428828,-4,-1,2,-8,-15,-9,-3,-4
1523209635428828,-2,-3,9,-3,-3,-6,-4,-3
1523209635444104,0,1,-10,4,-7,-3,0,0
1523209635444104,1,0,-9,-7,4,3,1,0
1523209635445896,-2,0,10,7,6,7,1,-1
1523209635445896,-1,-4,-28,-14,-11,-14,-3,-2
1523209635465929,-1,2,22,11,13,6,-1,0
1523209635465929,-1,3,-17,3,-8,-2,-1,0
1523209635467931,0,-1,3,0,-1,-4,-1,0
1523209635467931,-1,-2,2,4,4,3,1,0
1523209635480003,-3,-3,-11,-5,-3,1,-1,0
1523209635480003,-2,0,13,10,-1,-2,0,0
1523209635488987,0,1,-14,-8,-2,-5,-2,0
1523209635488987,-1,-6,-26,-5,-6,-3,-2,-2
1523209635504026,-1,0,-3,-4,-4,-5,-1,0
1523209635504026,1,2,16,8,3,5,2,1
1523209635505030,0,-1,1,-3,4,0,1,2
1523209635505030,-1,2,22,7,7,4,-3,-1
1523209635526320,-2,-5,-5,0,-3,1,2,1
1523209635526320,-1,1,-9,-9,-5,-3,-4,-2
1523209635528091,-1,-3,-11,3,3,-2,-4,0
1523209635528091,-4,-1,-17,-9,-9,-5,-2,-3
1523209635540122,-3,-4,-10,-4,-6,-5,-3,-2
1523209635540122,1,6,28,18,16,11,3,1
1523209635549152,-3,-5,-14,-9,-10,-7,-1,-2
1523209635549152,-1,-1,8,-7,3,1,0,1
1523209635563419,-1,0,17,2,-9,-5,-3,-2
1523209635563419,-4,-4,-61,-18,-7,-6,-3,-2
1523209635565189,-1,1,17,6,2,8,1,1
1523209635565189,3,6,42,11,15,8,1,2
1523209635586245,-2,-9,-41,-8,-5,-3,0,-2
1523209635586245,-2,-3,-8,-10,-4,-5,-2,-3
1523209635588314,-2,-2,3,-6,-10,-6,-2,-3
1523209635588314,1,2,-2,8,7,0,0,-1
1523209635608305,1,0,5,4,11,6,1,0
1523209635608305,-1,-3,15,-3,-7,-5,-3,-2
1523209635610309,-2,-10,-38,-8,-9,-7,-3,-2
1523209635610309,0,3,-6,-4,-1,2,0,0
1523209635623384,-2,-1,8,-8,-4,-4,-3,-1
1523209635623384,-1,-1,-2,2,-3,4,0,0
1523209635625349,1,1,-1,9,11,-6,2,1
1523209635625349,-1,1,-3,6,3,9,2,1
1523209635646640,-2,1,-4,-6,-3,-3,-4,-2
1523209635646640,-2,-1,19,0,-8,-6,-3,-3
1523209635647406,-1,1,-2,-2,1,3,0,1
1523209635647406,-2,-5,-2,-5,-11,-8,-2,-2
1523209635668465,-2,1,7,5,1,-3,0,-1
1523209635668465,-2,2,17,2,5,1,1,0
1523209635670470,1,-3,9,-1,0,3,0,0
1523209635670470,-4,-4,-37,-7,2,-5,-2,-3
1523209635683511,-1,-1,15,-1,-13,-4,-3,0
1523209635683511,0,-1,5,6,6,0,0,0
1523209635685510,-1,2,-7,5,5,2,0,0
1523209635685510,-2,-6,-21,-9,-8,0,-2,-1
1523209635706589,-1,-1,27,9,-9,-5,-2,-1
1523209635706589,0,1,-34,-12,1,2,0,-2
1523209635707567,1,-4,9,6,10,0,1,1
1523209635707567,2,0,19,3,-1,2,3,-1
1523209635728623,0,2,-16,0,2,-1,0,-1
1523209635728623,-2,0,-3,-4,-16,-12,-6,-3
1523209635730828,-3,2,7,-3,-10,1,0,-3
1523209635730828,1,1,-1,7,14,6,0,0
1523209635742898,-1,-2,-11,1,13,4,1,-1
1523209635742898,-1,-3,7,-5,-6,-1,-2,-2
1523209635749681,0,0,-1,-3,-2,-2,-2,1
1523209635749681,0,1,7,0,-11,-5,-3,-1
1523209635765728,-1,2,1,-5,2,1,0,-1
1523209635765728,-2,-7,-9,3,3,-2,0,0
1523209635767728,-2,-2,10,-2,-10,-7,-3,-3
1523209635767728,-2,-2,17,-1,-1,-1,1,1
1523209635788823,1,0,-30,-8,2,2,0,1
1523209635788823,1,-2,21,3,-2,-3,-1,-1
1523209635789788,0,0,8,2,2,0,-1,1
1523209635789788,1,1,7,1,-3,0,-1,-1
1523209635802820,-1,-3,-24,-7,1,4,1,0
1523209635802820,0,0,-11,-4,1,-1,-3,-2
1523209635809841,-1,1,18,3,2,0,-1,-2
1523209635809841,-2,-3,-21,-2,-6,-3,-2,-2
1523209635826117,-1,-4,-2,3,1,-1,-2,-1
1523209635826117,0,2,10,-2,-2,3,-1,-1
1523209635827887,-1,0,-4,-2,0,-7,-2,-3
1523209635827887,-2,1,6,2,15,8,1,0
1523209635848947,0,-3,11,-1,-3,-1,2,-1
1523209635848947,0,0,8,3,1,1,2,0
1523209635849950,0,-2,-19,-5,-5,-6,-5,-3
1523209635849950,-1,-1,7,-10,-11,-7,-1,-1
1523209635861978,0,-1,0,4,0,3,3,2
1523209635861978,-1,-3,-26,-4,2,0,-2,-1
1523209635871002,0,-2,-6,-4,-4,-1,-1,1
1523209635871002,0,2,-2,-1,-6,-7,-3,-1
1523209635886041,-1,-2,22,3,-8,-4,-3,-2
1523209635886041,-3,-6,-16,-19,-4,-3,0,-1
1523209635888048,1,0,14,8,6,6,4,1
1523209635888048,-2,-3,-19,-5,5,2,-2,0
1523209635908100,0,1,8,-1,0,-4,-2,-3
1523209635908100,0,-1,-15,7,-5,-3,-2,-1
1523209635910106,-2,2,16,-5,-1,0,-1,-2
1523209635910106,0,-6,11,2,-12,-2,-1,-1
1523209635923380,0,-2,-25,-10,-4,-3,-2,0
1523209635923380,-2,-6,-17,5,12,2,2,1
1523209635930348,-1,-3,3,0,0,4,1,-1
1523209635930348,0,0,-5,4,-3,-3,-3,-1
1523209635946437,0,1,18,-4,-6,-6,-2,0
1523209635946437,0,0,2,2,0,4,-1,1
1523209635947204,-1,-1,26,-2,-3,-5,-3,-2
1523209635947204,-3,-4,-12,-4,-2,-3,-1,-2
1523209635968265,-1,-1,-2,4,4,6,3,-1
1523209635968265,1,1,13,-1,-2,-4,0,-2
1523209635970266,0,-2,-13,0,6,6,3,0
1523209635970266,-1,-1,-12,1,0,-2,-1,-1
1523209635983308,-2,1,6,-1,0,-3,-3,-1
1523209635983308,-3,-4,-18,-1,-10,-3,-3,-2
1523209635989318,-3,-1,-1,-5,-2,-5,-4,-1
1523209635989318,-1,-2,-9,-4,-8,-4,-2,-1
1523209636006362,-1,-3,-5,3,10,2,-1,0
1523209636006362,0,3,0,-2,3,5,1,-1
1523209636007375,-2,-1,-4,1,-1,2,0,0
1523209636007375,0,4,16,9,7,2,-1,1
1523209636028420,-1,-2,6,-3,-9,-2,-3,-1
1523209636028420,-2,-1,32,-10,-6,-7,-4,-2
1523209636030426,1,-3,-46,0,7,4,2,0
1523209636030426,0,1,9,-1,0,0,0,-2
1523209636043523,-1,4,11,0,-7,-5,-2,-3
1523209636043523,1,0,-24,1,-3,-9,-2,-1
1523209636049476,1,-1,-12,1,3,5,0,1
1523209636049476,-1,-2,12,2,10,7,2,0
1523209636066525,-1,-2,-13,-3,1,3,-2,-1
1523209636066525,-2,-1,21,5,-2,-1,-1,-2
1523209636067525,-1,1,-27,-14,-19,-14,-6,-3
1523209636067525,-1,-2,-2,-4,-2,-4,-2,-2
1523209636088581,-1,4,3,2,5,4,4,2
1523209636088581,-1,-2,-11,4,6,3,2,1
1523209636090585,-1,-2,18,3,1,1,-2,0
1523209636090585,0,-1,-4,-7,-10,-10,-5,-3
1523209636102618,-3,-3,26,-2,-14,-10,-4,-2
1523209636102618,1,6,31,12,16,8,4,2
1523209636111849,-2,-4,-10,1,-2,-2,-2,-1
1523209636111849,-4,-5,-32,-12,-1,-4,-1,-1
1523209636126719,0,-1,6,-2,0,0,-1,1
1523209636126719,-2,0,-9,0,-5,0,-2,-1
1523209636127683,-1,2,24,4,12,1,0,-1
1523209636127683,-1,-1,9,1,-6,-1,0,-1
1523209636148750,-1,-2,-13,-4,-9,-6,-3,-3
1523209636148750,-1,-1,11,3,5,-1,-1,0
1523209636149749,0,1,-8,-5,-2,3,3,0
1523209636149749,-1,-2,-16,-4,-1,-3,-2,0
1523209636162874,-1,0,-10,-7,-2,-3,-2,-4
1523209636162874,-1,-1,-5,-1,-3,0,1,1
1523209636170801,-1,0,28,3,2,-1,-2,-2
1523209636170801,0,-3,-27,0,-2,7,0,-1
1523209636185838,-1,-2,7,-4,-2,-9,-1,-1
1523209636185838,-1,-1,-7,-3,1,-1,-2,-2
1523209636187845,0,1,31,-6,-6,-1,-2,0
1523209636187845,1,2,-14,4,7,4,3,1
1523209636208905,-1,-1,-5,-6,-4,2,-1,-1
1523209636208905,-1,-1,16,10,-8,-7,-4,-1
1523209636210907,-2,1,-26,-15,-7,-5,-1,-1
1523209636210907,1,2,17,10,4,3,1,1
1523209636221935,-1,2,18,3,12,5,1,0
1523209636221935,0,-1,-20,-3,-2,-1,-2,-2
1523209636231081,-1,0,51,11,0,-3,-2,-2
1523209636231081,-1,1,-1,-8,-6,-4,-2,-2
1523209636246234,0,-1,-15,1,2,3,0,0
1523209636246234,0,-2,14,-1,-3,1,-3,0
1523209636248007,-2,-4,-26,-3,-1,-3,-2,-3
1523209636248007,0,0,24,-2,1,-4,-4,2
1523209636268057,-2,-3,-29,-6,-6,1,-2,-4
1523209636268057,-1,-1,-16,-3,9,4,1,0
1523209636270063,0,-2,-9,2,-1,3,1,-1
1523209636270063,1,2,14,-1,-3,-4,-2,0
1523209636282094,-2,-6,-24,0,-11,-10,-5,-3
1523209636282094,0,0,26,-6,-12,-2,0,-1
1523209636291119,1,-4,-31,4,11,10,1,1
1523209636291119,-2,2,25,10,10,-3,3,1
1523209636306157,-1,0,-8,-4,-8,-3,-3,-1
1523209636306157,-3,-4,9,-5,-8,-5,-3,-1
1523209636307174,1,4,31,16,14,6,3,1
1523209636307174,-4,-9,-72,-17,-7,1,-4,-2
1523209636329242,-2,2,20,-3,-8,-6,-1,-1
1523209636329242,-2,-3,-13,-4,-3,-6,-3,-2
1523209636330222,1,2,11,2,5,5,-1,0
1523209636330222,-2,-4,-7,4,-6,-1,-2,-4
1523209636342254,0,-3,22,7,2,-7,-2,-1
1523209636342254,-4,-3,-63,-21,-6,2,-3,-2
1523209636351287,-2,3,-1,1,-7,-15,-3,0
1523209636351287,-2,-2,12,-4,2,1,-3,-1
1523209636366323,0,3,21,6,11,10,3,2
1523209636366323,-1,-6,-47,-7,-1,-3,-4,-2
1523209636367321,-4,-6,25,-8,-34,-2,-2,-3
1523209636367321,0,2,-4,7,34,-4,2,0
1523209636388377,0,1,9,11,4,8,2,0
1523209636388377,0,2,28,7,4,0,0,-2
1523209636390382,-1,-5,-29,-16,-8,-10,-5,-3
1523209636390382,-3,-1,13,-6,-29,-10,-5,-4
1523209636402414,-1,-3,-2,-3,4,-4,-2,-2
1523209636402414,-1,-1,-26,1,9,7,4,1
1523209636411437,0,-1,-14,12,10,9,4,2
1523209636411437,1,3,74,-4,-1,-1,-3,-1
1523209636426479,-4,-6,-35,-15,-21,-9,-4,-5
1523209636426479,1,5,33,15,19,7,3,2
1523209636427481,-4,-3,-19,-13,-3,-1,-2,-1
1523209636427481,-2,-1,2,0,-2,0,0,0
1523209636448537,-2,-3,-14,-2,-3,-4,-2,-2
1523209636448537,-1,0,11,1,-17,-11,-2,-2
1523209636450543,0,6,12,4,6,-3,-2,0
1523209636450543,0,-4,-7,-4,5,7,4,-1
1523209636462809,-2,0,-10,-7,2,3,-2,0
1523209636462809,0,0,-9,-1,-4,-3,-2,-1
1523209636471599,-1,0,7,6,8,-1,-2,-2
1523209636471599,-1,-3,-26,-9,-8,1,-1,-1
1523209636485635,0,-1,2,-7,-1,-4,0,-1
1523209636485635,1,2,33,9,6,9,0,0
1523209636487639,-1,-2,-19,-5,-7,-7,1,-1
1523209636487639,0,2,7,1,1,2,-2,1
1523209636508699,0,-2,-6,10,4,0,-1,0
1523209636508699,-1,0,3,-8,-6,-5,-3,-2
1523209636509905,-2,-2,-3,1,5,0,0,-1
1523209636509905,-1,-2,-27,-1,-10,-3,-3,0
1523209636530755,3,4,31,3,15,8,5,3
1523209636530755,-3,-6,-64,-10,-12,-6,-3,-4
1523209636532765,-2,-3,25,-2,-9,-4,-3,-1
1523209636532765,-1,-1,11,6,-2,-6,-1,0
1523209636546030,0,-2,5,-4,-3,-5,-3,-2
1523209636546030,-4,-2,-51,-13,-1,1,1,-1
1523209636547801,0,-1,12,3,3,4,0,-1
1523209636547801,-1,-1,-17,-4,4,-2,-3,0
1523209636568855,-1,-2,1,7,-12,-5,-2,-2
1523209636568855,-2,0,29,4,1,2,2,2
1523209636569859,2,-2,-4,-1,17,4,0,0
1523209636569859,0,0,-3,4,-7,0,0,0
1523209636590916,-1,0,-10,-12,-10,-5,-2,-1
1523209636590916,1,0,27,9,11,-5,-2,-3
1523209636592921,0,2,5,3,2,3,2,-1
1523209636592921,-2,-8,-3,-2,-8,6,-1,-2
1523209636605955,0,0,-19,-4,3,-5,1,0
1523209636605955,2,2,50,11,-3,-2,-3,-1
1523209636607960,-2,-4,-29,-6,-3,-3,-1,0
1523209636607960,-1,2,18,-4,0,-2,-1,-2
1523209636629221,-2,-2,-16,-2,0,3,2,-1
1523209636629221,0,0,31,5,-3,0,-2,-1
1523209636630018,0,2,-5,7,8,2,-1,0
1523209636630018,-2,-5,-5,-10,-4,-2,0,-1
1523209636651077,-2,-4,-37,-6,-4,-2,-2,0
1523209636651077,-1,0,39,-2,-1,-5,-2,-1
1523209636653081,-1,0,0,-1,-6,-3,-3,-1
1523209636653081,-1,-1,-27,-10,-7,-3,-2,-2
1523209636666117,1,1,23,12,6,5,2,0
1523209636666117,-1,-3,-30,-21,1,4,0,-1
1523209636668121,-1,-2,-2,0,-6,4,0,-2
1523209636668121,1,4,4,8,16,3,1,1
1523209636688173,-5,-2,34,-2,-8,2,-2,-2
1523209636688173,-1,-2,-9,-1,-15,-18,-4,-1
1523209636690190,2,0,-7,-6,-3,-3,-2,0
1523209636690190,1,4,9,14,12,2,2,0
1523209636711235,-1,-2,-7,-11,2,4,0,1
1523209636711235,-2,-3,-17,1,-7,-3,-3,-1
1523209636712238,-5,-4,5,-10,-14,-8,-3,-4
1523209636712238,1,0,11,5,1,-2,-1,0
1523209636725271,-1,0,-17,-3,5,1,0,-2
1523209636725271,-1,-2,2,-7,0,-2,-2,-1
1523209636732302,-4,-1,-18,-1,-6,-5,-3,-1
1523209636732302,-4,-4,15,1,-5,-2,0,-1
1523209636748337,1,2,-1,-3,10,3,0,0
1523209636748337,-3,1,-4,-2,-5,3,2,0
1523209636750341,-1,-4,-37,-2,-5,-2,0,-2
1523209636750341,-1,-1,7,-3,6,-3,-3,-2
1523209636771394,-3,-4,-12,-4,-17,-9,-5,-2
1523209636771394,-1,-1,4,-4,-19,-15,-3,0
1523209636772397,1,0,4,5,22,19,4,2
1523209636772397,2,3,15,18,37,16,5,2
1523209636785432,-1,-2,9,-10,-9,0,0,-2
1523209636785432,-3,-3,-16,-12,-9,-7,-5,-1
1523209636792688,-3,-2,11,-15,-35,-20,-8,-4
1523209636792688,-3,-8,-4,-8,-18,-8,-3,-4
1523209636808493,2,8,32,22,30,12,4,2
1523209636808493,0,-2,-2,10,11,8,3,1
1523209636810498,0,-2,-3,-5,-5,-5,-1,-1
1523209636810498,-2,-4,-40,-7,-10,-2,-4,-1
1523209636830594,-2,0,-6,-4,-8,-9,-4,-2
1523209636830594,1,-1,32,17,-8,-2,-1,-2
1523209636832560,0,-2,-33,-6,15,6,1,1
1523209636832560,-1,3,1,-10,-5,-4,-2,-2
1523209636845828,-3,-5,3,4,-11,-6,-3,-3
1523209636845828,0,2,-10,2,9,3,1,0
1523209636852610,1,2,30,13,2,3,1,-1
1523209636852610,-3,-5,-19,-11,-14,-4,-2,-1
1523209636868653,1,0,-25,3,14,6,0,1
1523209636868653,0,-1,23,5,17,9,2,-1
1523209636874904,0,1,6,-6,-8,-6,-4,-3
1523209636874904,0,0,-7,1,3,1,0,-1
1523209636890712,-2,-2,0,-6,-7,-2,-3,-2
1523209636890712,-1,-2,-10,-6,-6,-5,-4,-2
1523209636892717,0,-2,-3,2,9,0,1,-1
1523209636892717,1,3,22,-1,-9,-1,1,1
1523209636905751,-1,0,-9,4,1,1,1,0
1523209636905751,-2,-2,0,-9,-2,-5,-2,-2
1523209636912845,-2,-1,21,3,-13,-8,-3,-2
1523209636912845,0,-1,-14,1,1,6,4,1
1523209636929046,0,1,2,0,16,1,1,0
1523209636929046,-2,0,-9,-2,-6,3,-1,-1
1523209636929815,-1,-2,4,5,1,-10,-5,-2
1523209636929815,-2,0,16,6,-10,-10,-5,-3
1523209636950871,2,1,9,11,12,11,6,4
1523209636950871,-3,-3,-45,-9,5,5,0,-2
1523209636952878,-1,1,4,-2,-8,1,-1,-1
1523209636952878,-3,-4,6,-5,-12,-14,-6,-2
1523209636964940,-3,-3,-12,-8,-17,-13,-5,-5
1523209636964940,0,3,17,16,20,13,6,3
1523209636972162,1,-2,-30,-6,14,9,4,2
1523209636972162,-3,-2,5,-7,-4,-3,-2,-2
1523209636989012,-4,-3,-33,-18,-16,-10,-6,-4
1523209636989012,-1,0,10,2,-10,-6,-3,-1
1523209636989976,0,-2,13,-1,3,-1,-1,-2
1523209636989976,0,0,-17,-1,4,2,0,0
1523209637011267,0,-1,13,0,-7,-5,-2,-1
1523209637011267,2,3,0,3,8,6,0,1
1523209637013036,-1,-1,-18,-1,4,4,2,1
1523209637013036,0,0,8,1,-1,2,0,-1
1523209637026069,-6,-3,27,-5,-18,-9,-4,-3
1523209637026069,-2,3,-31,-15,-1,-5,-1,-1
1523209637032097,-1,-3,23,6,21,7,1,1
1523209637032097,-2,-1,1,9,-6,0,0,-1
1523209637049134,1,0,4,1,-3,0,-2,-1
1523209637049134,-2,-3,13,-8,-12,-9,-3,-1
1523209637050135,-3,-4,-35,-11,-15,-9,-3,-3
1523209637050135,0,5,32,9,11,3,2,0
1523209637071190,-1,-3,-15,-3,14,5,1,0
1523209637071190,0,0,16,6,3,3,-1,1
1523209637072194,-3,-4,-26,-4,-7,0,-1,-1
1523209637072194,-1,-2,-6,-7,-8,1,-1,-2
1523209637084384,-1,0,1,-4,-9,-18,-5,-5
1523209637084384,0,-2,8,1,-12,-7,0,-2
1523209637093485,0,2,-6,4,9,16,7,0
1523209637093485,2,2,-12,7,33,16,3,2
1523209637108291,-1,-4,-10,-1,-11,-1,0,0
1523209637108291,-1,1,12,-1,4,-1,-2,0
1523209637110295,-2,-3,0,-10,-29,-19,-6,-1
1523209637110295,0,1,-27,-3,1,1,-2,-3
1523209637131356,1,1,14,3,6,5,0,1
1523209637131356,-1,-5,-3,1,-8,-7,-2,-3
1523209637132358,1,3,11,-1,-1,-9,-4,-2
1523209637132358,-1,0,-3,-3,-10,1,0,0
1523209637145387,1,-3,-29,8,12,10,3,2
1523209637145387,0,-2,22,10,16,8,1,1
1523209637153410,-2,-3,-36,-11,-2,-2,-4,-3
1523209637153410,-3,-5,20,-9,-22,-9,-3,-2
1523209637168451,0,1,14,1,-9,-12,-3,-3
1523209637168451,0,0,8,6,7,6,1,1
1523209637170455,1,3,12,3,7,5,1,0
1523209637170455,-3,-5,-34,-17,-3,-10,-4,-3
1523209637191511,-2,-6,-9,-2,-2,4,0,-1
1523209637191511,-3,2,-17,-2,-2,1,0,0
1523209637192513,-1,-5,19,4,5,-6,-2,-2
1523209637192513,-2,-2,0,-7,-16,-13,-5,-1
1523209637204585,0,2,14,1,-8,1,0,0
1523209637204585,1,3,-25,0,25,9,5,4
1523209637213608,-1,-2,22,-1,-5,4,-2,-2
1523209637213608,1,1,16,3,0,-1,1,-1
1523209637228845,-4,-5,-8,-10,-9,-11,-6,-3
1523209637228845,-1,-2,14,-4,-11,-5,-3,-6
1523209637230615,0,1,-3,-6,-3,2,4,3
1523209637230615,0,0,-12,11,8,-1,0,0
1523209637250669,2,4,26,5,7,11,3,0
1523209637250669,0,-1,-27,-17,6,-1,-2,-2
1523209637252673,-1,0,-8,1,-13,-6,-5,-1
1523209637252673,-3,-2,2,-8,-4,-5,-2,-1
1523209637264707,-1,0,-5,6,-2,-2,1,2
1523209637264707,-2,-4,22,2,3,3,1,0
1523209637273728,-1,-4,13,3,3,-3,-3,-1
1523209637273728,1,3,-19,-9,-5,-1,0,1
1523209637288770,-2,-2,-15,-7,0,-2,-2,-2
1523209637288770,-3,-3,-7,0,-9,-4,-3,-2
1523209637289772,-1,2,15,4,-1,0,-1,-1
1523209637289772,1,0,5,4,8,1,-1,-1
1523209637311064,-1,-1,-9,0,8,4,1,-1
1523209637311064,-1,-4,-21,-6,-9,-2,-3,-2
1523209637312833,-1,1,5,2,-10,-14,-4,-2
1523209637312833,0,-1,18,8,9,6,1,1
1523209637324917,0,0,-12,-4,14,8,2,1
1523209637324917,-1,-2,2,5,-6,0,-3,-1
1523209637333890,-1,1,6,1,4,7,1,-1
1523209637333890,-1,-1,-6,-7,-11,-7,-4,-4
1523209637348934,-2,-5,-4,-7,-8,-9,-3,-3
1523209637348934,1,0,9,4,4,0,1,1
1523209637349931,-1,-2,-8,-3,3,1,1,0
1523209637349931,-2,-3,0,1,-5,-4,-3,-2
1523209637371224,0,3,8,3,-4,-1,1,-1
1523209637371224,-2,0,4,-6,-4,-7,-4,-1
1523209637373229,-1,-2,-3,-3,-10,-7,-2,-2
1523209637373229,-1,-1,20,7,11,13,6,0
1523209637385025,0,0,3,8,19,6,0,3
1523209637385025,-2,0,-2,-7,-15,-5,-4,-4
1523209637394049,-3,-7,-26,-15,-20,-16,-4,0
1523209637394049,0,3,13,13,14,0,-3,0
1523209637408088,0,1,10,-1,1,5,0,0
1523209637408088,-4,-6,-34,-21,-13,-8,-3,-1
1523209637410091,0,0,11,6,0,-1,-2,-1
1523209637410091,-1,-3,-34,-2,-1,1,2,0
1523209637431150,-1,2,21,9,2,-6,-2,1
1523209637431150,-1,-1,-5,0,-7,-6,-2,-2
1523209637433153,-2,-3,-4,-13,-10,0,-1,-2
1523209637433153,-1,-4,-27,3,22,6,2,-2
1523209637445323,-1,1,0,3,2,3,2,-1
1523209637445323,0,-1,-7,-3,-12,-5,-3,-2
1523209637454209,-1,-5,-2,3,2,0,-2,-4
1523209637454209,-2,0,-15,-3,-7,-4,-2,0
1523209637468247,-2,-4,5,-3,-20,-13,-4,-3
1523209637468247,0,-4,-7,-8,12,8,4,-1
1523209637470252,2,3,-24,11,22,11,7,3
1523209637470252,1,-3,22,2,9,6,1,0
1523209637491309,-2,-2,8,-3,-14,-6,-5,-1
1523209637491309,-2,1,16,3,-8,-3,-2,-1
1523209637492315,-2,1,5,-1,7,3,-1,-2
1523209637492315,-2,-4,10,-14,-16,-9,-2,-1
1523209637513395,-1,-1,-17,-4,-11,-5,-3,-2
1523209637513395,-1,-1,12,1,-8,-5,-1,-1
1523209637515378,1,1,-1,7,22,13,5,1
1523209637515378,1,3,8,5,-3,3,2,1
1523209637528641,1,-1,17,6,11,3,-2,-1
1523209637528641,-2,-5,-27,-14,-9,-2,0,-2
1523209637530414,-2,-4,-1,-16,-17,-14,-9,-4
1523209637530414,-3,-4,17,-5,-20,-7,-3,-3
1523209637551467,1,3,7,9,19,7,2,0
1523209637551467,0,0,-10,9,23,8,2,0
1523209637552469,0,4,10,5,-3,0,-1,1
1523209637552469,-3,-6,-6,-17,-11,-1,-3,-3
1523209637573761,-2,-4,-13,-7,-12,-9,-3,-1
1523209637573761,1,9,30,12,13,3,0,-2
1523209637575531,0,-2,-3,0,4,1,-2,0
1523209637575531,0,2,1,9,-1,-4,-2,-1
1523209637588566,-1,-2,5,-13,-12,2,1,-3
1523209637588566,-1,-4,-19,3,8,0,1,0
1523209637590571,0,-2,3,-1,-3,-4,-1,-1
1523209637590571,0,6,33,1,-7,-3,0,-1
1523209637611771,-1,-3,-33,2,11,5,0,1
1523209637611771,-2,1,30,-2,-4,-4,-2,0
1523209637612629,-2,3,9,-2,-8,-6,-3,-1
1523209637612629,0,0,-25,0,-2,-5,-2,-1
1523209637633691,-3,-1,28,-3,-1,-1,-1,-2
1523209637633691,-2,-2,2,2,-6,0,0,-1
1523209637634690,1,1,-6,3,13,5,2,2
1523209637634690,-1,1,-6,-4,-2,0,-3,-4
1523209637647728,-2,-9,-31,-3,4,9,-1,0
1523209637647728,-1,0,38,1,-9,-15,-5,0
1523209637654744,-1,4,-6,-9,-12,-1,-1,-1
1523209637654744,-3,-10,-26,2,2,-4,-1,-1
1523209637670784,-2,2,-44,-4,-8,-1,0,-1
1523209637670784,-1,-5,-32,0,13,9,0,-1
1523209637672791,0,1,31,4,0,-1,-2,-3
1523209637672791,-2,0,-19,-2,-14,-10,-4,-4
1523209637694081,0,-2,1,-2,-3,-3,2,1
1523209637694081,-1,-4,-18,7,4,3,-1,-2
1523209637695884,0,5,0,-3,-1,0,0,2
1523209637695884,-3,-9,-7,-3,4,4,-2,-3
1523209637707885,1,4,6,1,-8,-5,-2,-2
1523209637707885,-1,-1,-17,-18,-3,1,-1,1
1523209637714903,-2,-4,24,7,8,3,-2,-1
1523209637714903,-1,1,3,1,-5,1,-2,-1
1523209637730977,0,0,31,0,-1,-14,-2,1
1523209637730977,0,3,14,3,-16,-2,2,-1
1523209637732952,-3,-8,-28,-1,15,3,0,-3
1523209637732952,1,6,-1,1,3,4,1,3
1523209637754007,-1,-2,-30,-1,3,5,1,-1
1523209637754007,-2,-3,-13,-9,-13,-6,-3,-4
1523209637755008,0,0,-3,6,-7,-2,0,0
1523209637755008,-1,-2,-2,6,24,10,1,-1
1523209637768044,-2,-1,2,-7,-4,-2,-2,-1
1523209637768044,0,2,17,9,-2,-1,-1,-1
1523209637775297,-1,-2,-10,-6,-3,-3,-2,-1
1523209637775297,-1,-2,9,0,-4,-3,-1,-1
1523209637791105,-3,-3,-14,0,-1,0,0,-1
1523209637791105,-3,0,6,0,5,-2,-2,-1
1523209637793111,-3,-5,-24,-1,-8,-3,-1,-3
1523209637793111,1,1,4,-5,-1,0,2,2
1523209637813162,0,2,18,-2,0,-2,-3,-2
1523209637813162,-1,-3,-37,-2,-3,-2,-1,-1
1523209637815171,-2,-2,-12,-3,-8,-3,-3,-1
1523209637815171,1,3,37,1,-8,-11,-2,0
1523209637828438,-1,-2,-27,-2,22,11,2,0
1523209637828438,2,-1,6,4,2,3,2,0
1523209637834222,-1,2,14,-5,-11,-3,-1,-2
1523209637834222,-2,-4,-6,-6,-3,-7,-4,-3
1523209637851265,-2,2,39,4,-5,-1,-1,-1
1523209637851265,0,-3,-12,4,8,5,1,1
1523209637852266,-1,1,19,2,6,3,1,1
1523209637852266,-3,-5,-5,1,-9,-2,-3,0
1523209637873558,-2,-4,-6,-13,-10,-5,-2,-2
1523209637873558,-1,1,11,-1,1,0,-2,-2
1523209637875328,0,-1,4,-2,-3,-4,-2,1
1523209637875328,0,0,-13,-2,0,0,-2,-1
1523209637888363,-3,-1,23,1,-7,-5,-4,-4
1523209637888363,-1,5,1,1,2,1,4,1
1523209637895414,-2,-8,15,4,4,3,1,-1
1523209637895414,-1,-1,-7,-12,-1,1,-2,-1
1523209637911659,1,1,-14,1,0,-3,-2,0
1523209637911659,-1,0,29,-3,-9,-2,-4,-3
1523209637912426,-1,1,-5,-7,-15,-18,-2,-3
1523209637912426,3,1,26,19,30,16,6,2
1523209637933527,0,-2,-33,-5,4,2,-1,0
1523209637933527,-1,-4,-3,-3,-4,-3,-2,-1
1523209637935487,0,2,18,1,-2,1,-2,-1
1523209637935487,-4,-3,-32,-12,-20,-12,-3,-3
1523209637947522,1,1,8,9,-4,-3,1,1
1523209637947522,0,1,-8,6,17,8,0,1
1523209637954578,-2,-3,-9,-6,-4,-1,-2,-1
1523209637954578,2,1,15,3,-3,-2,0,-1
1523209637970582,-4,-3,2,2,0,4,-1,-1
1523209637970582,-1,0,-16,-6,-4,-4,-2,-1
1523209637972586,-1,-1,-13,0,3,2,1,0
1523209637972586,-1,-2,15,-3,-1,0,-2,-1
1523209637993877,-2,-6,-16,-7,-12,-8,-3,-2
1523209637993877,-1,1,22,-2,1,3,-1,0
1523209637995820,2,-1,-45,5,17,0,0,2
1523209637995820,-3,1,14,-1,-7,1,-2,-2
1523209638007680,0,1,14,4,2,-2,1,-1
1523209638007680,-2,0,36,3,-14,-5,0,-1
1523209638015701,-1,-5,-49,1,12,11,1,-1
1523209638015701,-3,-2,-12,-8,-7,-5,-2,0
1523209638030742,-1,-4,6,-3,-10,-3,-1,-2
1523209638030742,2,4,-2,8,15,3,3,1
1523209638032746,-1,1,0,-4,-6,-3,-4,0
1523209638032746,-2,-7,-34,-5,-4,-5,-3,-2
1523209638053804,0,3,-2,-2,-6,-5,-3,-1
1523209638053804,0,-5,-10,-1,-3,-5,-1,0
1523209638054805,1,5,24,-3,1,2,0,-1
1523209638054805,-1,3,1,4,-2,3,-2,-1
1523209638066837,-2,-6,-15,-10,10,0,0,-1
1523209638066837,-2,-3,-23,-4,-8,1,-1,-1
1523209638076071,-2,-4,13,3,-8,-15,-2,-2
1523209638076071,2,7,-17,3,6,5,1,1
1523209638090900,1,2,53,6,5,4,1,1
1523209638090900,-1,-4,-49,-5,-2,-2,0,-2
1523209638096918,-4,-7,2,-3,-11,-3,-3,-3
1523209638096918,-2,-4,-15,-7,-2,-5,-1,-3
1523209638113975,-1,2,2,-7,1,-1,-1,-1
1523209638113975,0,1,13,2,-8,-5,-3,-2
1523209638114971,0,2,18,7,12,8,3,0
1523209638114971,-2,-7,5,-3,-4,-2,-1,-1
1523209638127231,0,2,-5,3,1,-1,-2,-1
1523209638127231,-3,-3,-1,-6,-7,-5,-2,-3
1523209638136021,0,-1,-4,-3,-7,-2,-1,0
1523209638136021,0,-2,-3,-7,3,1,0,-2
1523209638151060,1,1,0,2,1,4,-1,0
1523209638151060,-1,-3,14,9,0,-9,-1,-2
1523209638153066,0,0,-11,-7,-5,4,2,0
1523209638153066,-2,2,14,4,20,8,0,1
1523209638174192,-2,-4,-30,-2,-9,-6,-3,-2
1523209638174192,-3,1,38,-6,-10,-6,-5,-4
1523209638175124,-2,3,-2,-1,5,1,-2,-3
1523209638175124,1,0,0,1,1,3,2,2
1523209638187196,-1,2,24,15,-2,-1,-1,-1
1523209638187196,-1,-5,-61,-15,13,5,0,-1
1523209638196179,-1,-5,-7,-1,-7,-3,0,-2
1523209638196179,0,3,21,3,-12,-7,-4,-2
1523209638211455,0,-4,-22,4,-5,-5,-3,-1
1523209638211455,0,-1,23,1,0,1,1,-1
1523209638212223,1,2,-1,-6,7,0,0,0
1523209638212223,-1,-4,-29,-1,-6,-5,-2,-2
1523209638233280,-1,1,19,4,3,1,-1,0
1523209638233280,-1,0,2,-2,2,10,-1,2
1523209638235285,0,-1,-2,4,-1,-7,-2,0
1523209638235285,-2,3,20,3,3,0,0,0
1523209638247319,-2,-4,-9,-16,-14,-6,-3,-4
1523209638247319,-1,2,9,2,-2,-5,-3,-1
1523209638256341,-1,0,1,7,7,1,-2,-2
1523209638256341,-1,-3,5,-4,-13,-4,-1,-1
1523209638271616,1,-1,-28,-4,16,5,1,0
1523209638271616,-2,2,-13,2,5,4,3,0
1523209638273384,-3,-3,20,-4,-13,-5,-4,-4
1523209638273384,-2,-3,-2,-1,-8,-10,-2,-3
1523209638293674,-1,0,-2,-6,-14,-4,-1,0
1523209638293674,3,5,2,9,17,7,4,1
1523209638295444,-5,-14,-20,-9,-3,-5,-2,-1
1523209638295444,0,2,12,8,-2,3,1,1
1523209638307478,-3,-2,4,-9,1,0,0,0
1523209638307478,-2,-3,-9,-6,-11,-3,-4,-1
1523209638316502,1,3,-4,2,-4,-9,-2,-1
1523209638316502,-1,-3,19,-8,-12,-5,-4,-2
1523209638331544,1,-2,-11,12,15,8,4,-1
1523209638331544,-2,-3,-25,-4,8,3,0,0
1523209638332543,1,1,-2,-4,-5,3,-3,0
1523209638332543,0,0,-5,0,-2,-4,0,-2
1523209638353599,-2,3,38,-4,-11,-6,-2,-3
1523209638353599,-2,-2,3,0,0,-1,1,-1
1523209638355605,0,1,7,-1,5,3,-1,0
1523209638355605,0,-7,-15,-5,-2,-3,-3,-2
1523209638367635,1,0,10,2,-1,-2,-2,0
1523209638367635,0,-4,5,0,-7,-4,0,-2
1523209638376811,1,2,-18,-8,-4,1,1,-2
1523209638376811,-2,-1,1,5,17,8,2,1
1523209638390698,-1,-2,-3,-1,-1,0,0,0
1523209638390698,-2,-4,8,-1,-13,-12,-7,-4
1523209638392703,0,4,6,-4,-10,-4,0,-1
1523209638392703,0,-1,8,1,11,8,2,0
1523209638413758,-1,0,-16,3,15,5,2,1
1523209638413758,-1,0,-5,-2,-1,5,0,-2
1523209638414768,1,0,15,5,-5,-12,-3,-1
1523209638414768,-2,-3,0,-11,-7,-7,-2,-2
1523209638435819,-1,-3,-19,-8,-9,-2,-1,-2
1523209638435819,0,-1,9,5,2,1,-1,0
1523209638437822,2,-1,-1,2,7,6,0,1
1523209638437822,1,1,-13,0,-3,-6,-4,-1
1523209638450857,0,1,6,6,2,0,0,0
1523209638450857,-1,-1,17,-3,2,0,0,1
1523209638452862,-2,-4,-66,-8,-6,2,0,-2
1523209638452862,-1,0,0,3,-1,-5,-2,-2
1523209638474167,0,-2,0,-8,-10,-7,-3,-1
1523209638474167,0,0,5,7,1,-1,2,1
1523209638474921,-1,1,10,5,11,5,3,0
1523209638474921,-1,0,-6,-5,-5,0,-1,-2
1523209638495976,-3,-7,-20,-5,-10,-6,-5,-3
1523209638495976,1,-1,5,-2,6,-2,-3,-1
1523209638497987,-1,-3,1,0,-3,3,0,-1
1523209638497987,-1,1,2,5,2,-6,1,0
1523209638511252,-2,2,-32,-12,-11,-6,-4,0
1523209638511252,-3,-10,-5,-2,-5,-7,-2,0
1523209638513025,-1,4,21,8,19,16,4,0
1523209638513025,-1,-2,-8,-1,2,4,-1,-1
1523209638533077,0,-3,-4,2,-4,-8,-2,-3
1523209638533077,-3,1,-15,-6,-11,-4,-2,-2
1523209638535081,-2,-3,13,-17,-3,-8,-3,-1
1523209638535081,-2,-1,-20,-2,-7,0,-1,-1
1523209638556141,2,6,33,13,11,5,3,2
1523209638556141,-1,-6,-37,-9,-8,-3,-3,-2
1523209638558143,-2,1,7,-1,4,-1,-1,-3
1523209638558143,0,0,11,-3,-2,1,-1,1
1523209638571412,-3,-8,-12,-6,-10,-5,-5,-4
1523209638571412,-1,4,2,6,-2,-7,1,-1
1523209638573334,0,-4,-10,6,4,12,3,1
1523209638573334,0,2,52,6,17,4,-2,1
1523209638593470,-1,-4,-42,-8,-8,-5,-3,-2
1523209638593470,-1,-2,17,-7,-7,-5,-4,-2
1523209638595240,-2,-2,9,-5,-13,-13,-5,-3
1523209638595240,0,-2,-31,0,-10,0,0,-2
1523209638616298,0,3,9,6,22,10,3,1
1523209638616298,-1,-4,8,-3,-5,-4,-1,0
1523209638617300,-1,-2,-18,-3,-10,1,0,-2
1523209638617300,0,1,8,3,14,3,1,-1
1523209638630336,-2,-1,-19,-5,-5,11,0,-1
1523209638630336,-2,0,-13,-3,-6,-21,0,-2
1523209638637353,1,8,26,9,1,3,3,2
1523209638637353,-4,-16,-7,-3,-1,2,-2,-1
1523209638653395,-1,-1,4,2,-5,0,0,-2
1523209638653395,1,1,7,-3,15,8,-2,0
1523209638655402,-2,-3,0,-2,-11,-7,-5,-2
1523209638655402,-1,0,-1,-1,-3,-5,1,-2
1523209638676692,0,1,13,1,-5,-3,-1,-2
1523209638676692,-2,4,20,-1,-11,-1,-1,-3
1523209638677459,2,0,-15,4,14,-2,-1,0
1523209638677459,0,-2,-29,-1,2,1,-1,1
1523209638690494,-3,-3,16,-1,-1,-6,1,2
1523209638690494,-1,0,-13,4,-10,-3,1,-2
1523209638697520,-4,-9,-77,-16,8,4,0,-1
1523209638697520,2,7,18,6,5,10,1,1
1523209638713557,-1,-3,15,-5,-9,-11,-1,-1
1523209638713557,1,-4,1,5,5,2,-2,0
1523209638715561,-2,-1,-2,0,-9,-5,-3,-2
1523209638715561,-1,-2,-11,-6,-12,-5,-1,0
1523209638735615,-2,-3,-8,-2,9,-4,-3,-2
1523209638735615,0,5,-3,5,-1,4,1,-2
1523209638737620,0,-4,23,4,1,-3,1,0
1523209638737620,-3,-1,-37,-14,-9,-5,-2,-3
1523209638750653,0,-1,11,4,2,1,0,0
1523209638750653,-1,-6,-14,-7,1,0,-4,0
1523209638757673,0,3,25,0,-8,-5,-3,-1
1523209638757673,0,-1,-3,0,-5,-5,-2,-2
1523209638773949,-1,1,-10,-2,2,3,2,-1
1523209638773949,1,1,-8,-2,7,7,0,3
1523209638775812,-1,-4,-4,-4,-4,-5,-2,-1
1523209638775812,-1,-2,22,0,-10,-5,-3,-2
1523209638795772,-2,-2,-8,-2,3,-4,-2,-2
1523209638795772,-2,-3,17,-1,-6,6,0,-2
1523209638797790,1,3,34,10,23,6,3,2
1523209638797790,-1,-2,-75,-8,-7,-3,-3,-1
1523209638810994,0,2,25,3,-2,1,-2,0
1523209638810994,0,-3,7,-1,-4,-1,-2,-2
1523209638816831,-2,-1,-6,-6,-11,-7,-3,-3
1523209638816831,-1,2,25,1,-3,-3,-2,-2
1523209638833874,0,-1,18,3,1,3,2,1
1523209638833874,-1,-3,-16,6,15,1,-1,-1
1523209638834877,1,2,-7,-3,-7,0,0,-1
1523209638834877,-1,-3,3,3,7,3,1,0
1523209638855933,-1,-6,-4,-7,-1,-4,-3,-1
1523209638855933,0,1,-1,1,-9,-5,-1,0
1523209638857938,-4,-8,-43,-3,-13,-8,-4,-2
1523209638857938,-3,0,2,-12,-3,-3,0,0
1523209638871017,2,1,16,13,16,8,4,3
1523209638871017,0,0,-1,-5,5,3,2,-1
1523209638877224,-1,-4,-15,-5,-11,-2,-6,-3
1523209638877224,-2,-1,19,-14,-21,-21,-6,-3
1523209638894163,0,0,-44,11,15,8,2,1
1523209638894163,-2,0,4,3,26,12,3,2
1523209638895038,0,0,13,2,-8,-3,-1,0
1523209638895038,-4,-4,0,-3,-2,-3,-4,-3
1523209638916095,-1,-2,-5,-11,-13,-8,-4,-3
1523209638916095,0,3,2,0,-3,-2,0,0
1523209638918102,-4,-6,-10,2,8,3,-1,-1
1523209638918102,1,1,9,9,11,6,3,0
1523209638930131,-2,-1,9,-3,-8,-7,-2,-1
1523209638930131,-3,-3,-15,-14,-24,-16,-8,-2
1523209638939159,0,2,35,3,-13,-10,-2,-3
1523209638939159,1,1,-7,22,35,28,13,3
1523209638953212,-3,-5,-43,-8,21,12,1,-1
1523209638953212,-2,-2,17,-4,-11,-5,-4,-1
1523209638955202,-1,0,11,-4,-9,0,-4,-3
1523209638955202,-1,-4,9,-10,-22,-24,-7,-3
1523209638976488,-2,1,-7,2,-5,-2,-3,-4
1523209638976488,-2,-1,-7,4,7,5,2,1
1523209638978341,1,3,8,6,6,7,5,2
1523209638978341,-2,-3,-29,-1,15,9,1,0
1523209638989288,-3,-3,26,-8,-16,-9,-3,-2
1523209638989288,-1,-5,-23,-8,-15,-13,-5,-3
1523209638998315,-2,2,19,0,-3,1,1,0
1523209638998315,0,0,-25,0,11,6,1,1
1523209639013352,1,1,9,1,-2,-2,0,0
1523209639013352,-2,-3,2,-3,-3,-4,-3,-3
1523209639015357,1,2,9,1,5,0,0,1
1523209639015357,1,0,20,4,10,10,2,2
1523209639036452,-2,-1,5,-2,-6,-5,-4,-1
1523209639036452,-2,0,-6,-9,-13,-9,-5,-3
1523209639037418,-2,-2,-5,3,6,-7,1,-2
1523209639037418,1,2,9,-7,-15,2,0,0
1523209639049451,-1,-3,-18,2,13,10,2,-1
1523209639049451,1,0,-7,3,0,5,2,0
1523209639058471,-1,-1,-6,-3,11,-1,-2,-2
1523209639058471,-2,-4,13,1,-5,-6,-1,-1
1523209639073747,0,2,11,0,-3,-1,0,1
1523209639073747,-1,-2,16,-5,-8,-5,-2,0
1523209639075516,-4,-1,3,-4,-1,-3,-2,-2
1523209639075516,1,-1,-10,1,-3,-1,-3,-1
1523209639096574,-1,4,16,0,-3,-4,-1,-2
1523209639096574,-3,-2,1,2,10,5,1,-1
1523209639097581,0,2,39,3,-3,2,-1,-1
1523209639097581,-3,-2,-47,-10,-4,-3,-3,-2
1523209639109845,0,-3,-21,-3,-8,-6,-3,-1
1523209639109845,-1,2,2,2,-2,1,-1,1
1523209639118633,0,-3,-2,-2,5,7,0,-1
1523209639118633,-1,1,42,3,-3,-10,-1,0
1523209639133674,1,0,-12,-4,4,-5,-1,1
1523209639133674,-3,-3,-24,-4,-19,-6,-1,-2
1523209639134674,0,0,-10,4,24,9,1,0
1523209639134674,-2,0,2,-2,-6,-2,-3,-3
1523209639155729,-4,-3,5,-4,-14,-7,-4,-4
1523209639155729,2,3,11,3,10,-2,1,2
1523209639157736,-1,-5,-14,-13,-28,-10,-3,-1
1523209639157736,0,-1,9,14,20,6,1,-1
1523209639170003,0,0,23,5,7,7,3,3
1523209639170003,-1,1,-2,-4,-8,-5,-2,-3
1523209639178791,-1,-3,-21,-9,-22,-10,-5,-4
1523209639178791,0,4,39,2,5,2,0,0
1523209639194069,-1,-2,-13,-6,5,5,1,0
1523209639194069,-2,-4,-34,-3,0,-3,0,-2
1523209639194833,-2,1,5,-1,-2,-1,-1,1
1523209639194833,-3,-3,11,-8,-21,-15,-5,-2
1523209639215891,0,2,2,10,10,-1,-1,0
1523209639215891,1,2,35,6,12,13,5,0
1523209639217895,-2,-6,-25,1,14,7,0,-1
1523209639217895,0,1,11,-1,-5,-1,-3,-2
1523209639229936,-4,-8,-32,-14,-24,-10,-5,-3
1523209639229936,0,-1,1,-2,-2,-2,-3,-1
1523209639238951,-1,3,-2,9,15,9,1,0
1523209639238951,0,0,24,-1,0,2,0,-2
1523209639253991,-3,-5,12,-3,-13,-6,-4,-4
1523209639253991,-1,-1,4,-2,2,-3,-2,-1
1523209639254995,0,-2,6,-1,-6,-2,1,0
1523209639254995,-2,-1,-28,4,12,5,2,0
1523209639276284,0,1,4,-5,-6,-5,-3,-1
1523209639276284,-2,-2,-15,-3,-13,-3,-3,-1
1523209639278055,1,0,20,2,11,4,1,-2
1523209639278055,-1,-4,-9,3,4,5,-2,0
1523209639290087,0,-3,5,-1,-6,-10,-1,-3
1523209639290087,-1,-2,1,6,14,9,4,0
1523209639299111,-1,1,20,-4,-9,-2,-1,2
1523209639299111,0,-3,-14,0,-6,0,-1,-1
1523209639313151,-4,-5,-18,-7,4,3,-1,-3
1523209639313151,-2,0,46,-2,-11,-12,-4,-3
1523209639315154,-1,1,-5,-3,-11,-9,-1,-1
1523209639315154,0,0,-9,6,2,5,3,1
1523209639336249,0,3,-2,-3,14,6,1,2
1523209639336249,0,-4,-1,-1,-1,-2,-1,-1
1523209639337213,-1,0,-33,-4,-5,-5,-4,-1
1523209639337213,-2,-5,-36,-8,-11,-11,-5,-3
1523209639349289,0,2,6,1,-7,3,2,0
1523209639349289,0,2,1,7,22,10,3,2
1523209639359395,-1,-6,-5,0,-5,-1,-3,-1
1523209639359395,-4,-8,-28,-5,-7,-8,-4,-3
1523209639373307,-2,0,5,-1,-8,-3,-1,0
1523209639373307,-1,-3,-2,-6,-4,0,-2,-1
1523209639379329,1,0,5,7,5,1,0,0
1523209639379329,-2,2,4,1,6,-4,2,-1
1523209639396370,2,-1,13,5,2,5,0,1
1523209639396370,-3,2,4,-4,-6,-4,-2,-1
1523209639397379,-2,-1,6,-1,-10,-10,-5,-1
1523209639397379,-3,-5,-8,-21,-6,-2,-3,-1
1523209639418428,-1,5,14,10,6,6,6,1
1523209639418428,-1,-6,-26,0,4,0,-1,0
1523209639420436,-3,0,2,-4,4,1,1,0
1523209639420436,-2,2,11,-1,-4,-2,-2,-2
1523209639433468,1,-2,1,-2,-4,-5,-1,-1
1523209639433468,-1,-3,-1,-3,-1,-2,-4,-1
1523209639435475,-1,-5,-15,-1,-4,-3,-4,-3
1523209639435475,0,3,-5,0,-3,0,-1,-1
1523209639456529,0,1,13,6,10,8,1,1
1523209639456529,-2,0,-16,1,3,2,1,-2
1523209639457533,-1,-3,-20,-1,1,-2,0,0
1523209639457533,0,-1,22,2,-9,-5,-4,-1
1523209639478586,0,0,15,1,4,2,-1,-2
1523209639478586,-1,-4,-12,-10,-12,1,-2,-1
1523209639480599,-1,0,29,2,7,-6,0,0
1523209639480599,0,0,15,1,0,1,-2,1
1523209639493863,-4,-5,-31,-4,-8,-5,-4,-2
1523209639493863,0,0,-11,7,3,3,2,0
1523209639495635,-2,1,11,-3,1,7,0,-1
1523209639495635,1,1,38,15,3,2,-1,-1
1523209639515687,-2,0,-36,-16,-11,-12,-6,-4
1523209639515687,-3,-10,-29,-12,-19,-7,-2,-4
1523209639517692,4,3,1,15,33,13,5,3
1523209639517692,-1,2,-18,-2,2,2,0,0
1523209639538748,-2,-1,27,3,-8,-4,-4,-2
1523209639538748,-3,-3,-13,-4,-6,-6,-3,-3
1523209639539751,-1,-2,-12,-10,-30,-13,-6,-3
1523209639539751,-1,1,0,-4,6,9,4,-1
1523209639552788,1,-3,0,15,32,9,2,2
1523209639552788,-2,0,23,-2,-9,-7,-2,0
1523209639560039,-4,-1,-9,-5,-8,-1,-5,-3
1523209639560039,-2,-2,-15,-11,-10,-12,0,-1
1523209639576081,-2,-5,1,2,-5,0,1,-1
1523209639576081,2,4,31,6,17,8,3,2
1523209639577851,-2,-4,-69,-5,-6,-6,-4,-2
1523209639577851,-3,-4,-1,-4,-4,1,-2,-1
1523209639598908,1,3,11,-2,0,2,1,1
1523209639598908,0,1,-4,9,3,-3,-2,-1
1523209639599910,-3,-3,-17,3,1,3,2,-3
1523209639599910,1,1,-25,-15,-1,1,0,-1
1523209639612947,-2,-5,11,-1,-4,-4,-1,0
1523209639612947,-2,1,7,-3,-4,-8,-6,-2
1523209639619964,-2,-1,15,-7,-21,-9,-4,-1
1523209639619964,1,-1,13,6,6,4,1,-1
1523209639636044,1,1,-14,3,20,9,2,2
1523209639636044,-2,1,4,-2,-4,-2,-1,-1
1523209639638011,-2,-4,-2,-5,1,-1,0,-1
1523209639638011,0,-3,-13,-15,-12,-6,-2,-2
1523209639659170,-1,-2,-13,-8,-20,-8,-5,-3
1523209639659170,1,1,11,7,16,9,4,1
1523209639660070,2,3,55,17,19,10,3,1
1523209639660070,-2,-4,-24,-11,-6,-6,-3,-4
1523209639673339,-3,-1,7,-7,-22,-5,-2,-4
1523209639673339,-2,0,-5,2,5,-12,-2,-2
1523209639680130,1,1,34,1,1,3,1,-2
1523209639680130,-2,-4,2,6,7,5,2,1
1523209639696165,0,1,-19,-1,3,7,0,0
1523209639696165,-1,-3,-15,-3,1,0,-2,-2
1523209639697172,-2,-2,-12,-4,-4,-4,-2,-2
1523209639697172,-1,-1,-11,-6,-6,-9,-6,-3
1523209639718224,-2,-3,-6,1,-11,-6,-1,-2
1523209639718224,-1,-1,25,6,9,7,2,1
1523209639720229,0,-1,-19,-6,7,5,0,1
1523209639720229,0,3,7,4,-3,-2,-3,-1
1523209639733264,-1,2,37,14,12,2,0,-1
1523209639733264,0,-2,-46,-15,-9,-3,-1,-1
1523209639740283,-1,-4,-4,-5,-5,-6,-4,0
1523209639740283,1,0,19,5,-6,1,2,0
1523209639755324,0,1,-11,-2,10,0,-2,0
1523209639755324,-2,1,25,0,-6,-1,-3,-1
1523209639756326,-4,-4,4,-5,-5,-5,-1,-2
1523209639756326,-2,-3,-13,1,-9,-9,-3,-2
1523209639777617,2,1,8,1,6,5,3,0
1523209639777617,-1,-4,-16,5,16,13,4,2
1523209639778383,-1,2,9,-3,-5,-4,-2,-1
1523209639778383,-2,-1,5,5,-4,-4,-4,-1
1523209639792421,-2,-4,-9,-15,-20,-14,-5,-2
1523209639792421,-3,-5,-45,-8,-12,-2,-1,-1
1523209639800442,2,5,5,8,33,15,3,0
1523209639800442,-1,0,5,6,2,0,0,1
1523209639815484,-5,-5,-32,-9,-10,-7,-3,-3
1523209639815484,0,0,-1,-3,1,-3,-1,0
1523209639816488,-1,0,6,-7,-16,-9,-3,-2
1523209639816488,0,2,5,5,8,8,2,-2
1523209639837542,1,-1,-19,4,12,5,1,1
1523209639837542,-1,1,27,2,-4,-1,-1,-2
1523209639838544,0,-1,-6,-3,-7,-4,-2,1
1523209639838544,0,0,9,-5,0,-6,-3,-3
1523209639852583,-2,-1,19,0,-9,0,0,-2
1523209639852583,-1,-4,-45,-8,5,3,0,0
1523209639860839,0,-2,16,2,2,2,0,0
1523209639860839,-1,0,8,0,-3,-1,-1,-2
1523209639875878,-2,-3,19,5,0,-5,-4,-2
1523209639875878,-3,-4,-17,-16,-13,-4,-1,-3
1523209639875878,0,0,-2,2,5,1,0,-1
1523209639875878,0,-1,-9,7,19,8,2,2
1523209639897702,-1,0,43,2,-5,-1,-1,-2
1523209639897702,0,-2,10,1,-9,-8,-5,-3
1523209639898706,0,1,-18,-10,-11,-1,-1,-1
1523209639898706,-2,-6,-5,0,6,3,1,-2
1523209639911747,3,5,15,7,13,4,0,2
1523209639911747,-1,-3,-19,-7,-9,-2,-4,-3
1523209639920998,-3,-3,-27,-9,-2,-2,1,0
1523209639920998,0,2,3,8,-2,-2,-2,2
1523209639935830,-3,-3,-32,-27,-9,-2,-1,-3
1523209639935830,1,1,0,10,8,5,2,0
1523209639935830,-1,0,9,3,-2,-2,-2,-1
1523209639935830,-1,-3,-13,-4,-9,-6,-2,-2
1523209639958096,1,-3,-11,5,5,0,1,-1
1523209639958096,-1,-2,34,-8,-13,-4,-4,-2
1523209639958864,-2,1,-21,6,-5,-7,2,0
1523209639958864,0,0,-6,6,31,13,1,1
1523209639980925,-1,1,0,-4,-7,-1,-2,-1
1523209639980925,0,-3,17,-1,1,0,0,0
1523209639981926,-2,-4,-13,-2,-13,-7,-5,-3
1523209639981926,-4,-5,-7,-26,-21,-10,-5,-3
1523209639995964,-2,-1,2,9,6,2,3,1
1523209639995964,0,4,31,9,4,-1,1,2
1523209639995964,-1,-5,-22,-10,-10,-6,-3,-2
1523209639995964,1,2,3,2,-7,-3,0,0
1523209640018024,0,1,-6,6,19,12,2,1
1523209640018024,-1,0,-31,0,3,1,-1,1
1523209640019025,-1,-3,40,1,0,-5,-4,-2
1523209640019025,-3,-2,-6,-8,-13,-6,-5,-3
1523209640032061,0,-1,0,-2,-12,-3,-1,-2
1523209640032061,3,5,23,11,22,5,2,0
1523209640040315,-4,-6,-52,-16,-5,-1,-2,-2
1523209640040315,0,-2,2,-1,0,4,-1,-1
1523209640055119,-1,0,12,4,-8,-4,-3,0
1523209640055119,-2,-1,-18,-3,-6,-9,-3,-2
1523209640056123,1,6,18,3,4,9,3,0
1523209640056123,-1,-4,7,-1,3,-3,-2,-1
1523209640078180,-3,-4,-32,-13,-9,-2,-1,0
1523209640078180,1,0,10,6,0,1,1,0
1523209640078180,-1,0,7,4,-3,-4,-2,-2
1523209640078180,1,-1,11,2,4,6,1,0
1523209640092259,1,0,-3,-9,-1,-3,-2,-2
1523209640092259,-3,-3,-8,-3,-8,-5,-1,-2
1523209640100240,-2,-1,4,-2,-5,1,1,0
1523209640100240,0,2,12,9,8,4,0,0
1523209640115280,-3,-3,-30,-2,6,-1,-2,-1
1523209640115280,-2,0,25,-3,-7,-4,-1,-2
1523209640116282,-2,0,-2,-3,6,3,-1,-2
1523209640116282,0,0,-3,-1,0,3,0,-2
1523209640137349,0,2,31,5,-3,-6,-1,-1
1523209640137349,-1,-1,0,-3,-6,-3,-3,-2
1523209640138340,-1,-4,1,-3,0,1,0,-1
1523209640138340,0,1,4,2,7,3,-1,0
1523209640152378,0,-2,-5,4,-2,-3,2,0
1523209640152378,0,0,-13,0,2,-1,-2,-2
1523209640160634,-2,4,17,-3,-1,-2,0,-1
1523209640160634,0,0,10,0,-6,-2,-1,-2
1523209640175675,-2,-5,-38,-1,1,0,-2,-3
1523209640175675,-3,-3,4,-8,-9,-3,-2,-1
1523209640176441,1,3,-5,-2,1,1,-2,-2
1523209640176441,-1,0,-14,-2,-6,-3,2,0
1523209640197498,-2,-2,5,5,8,3,-2,-1
1523209640197498,1,3,7,2,3,1,3,1
1523209640198502,-1,-7,-25,-10,-7,-6,-2,-2
1523209640198502,-1,-1,11,0,-9,-4,-2,0
1523209640212542,0,-2,-2,-5,-4,-5,-2,-2
1523209640212542,-1,-1,-18,1,-3,0,-4,-2
1523209640220559,-1,-3,27,5,1,-2,-3,-2
1523209640220559,-1,2,-6,8,5,-3,2,1
1523209640235600,-2,3,19,-6,8,10,3,2
1523209640235600,0,-4,-5,-1,-1,-3,-1,-1
1523209640236602,0,-1,22,3,0,-1,-2,-2
1523209640236602,-3,-3,-21,-8,-18,-12,-7,-4
1523209640257893,-1,0,3,0,-9,-6,-1,-2
1523209640257893,-1,2,20,7,12,7,1,1
1523209640258659,3,3,7,2,1,0,0,1
1523209640258659,-6,-9,-49,-11,7,3,1,-1
1523209640280720,-1,0,3,-1,-1,0,-1,-2
1523209640280720,-3,-3,-18,-2,-7,-5,-3,-3
1523209640281722,-3,-1,-2,4,-7,-5,-1,0
1523209640281722,-1,3,26,-4,-7,-6,-3,-2
1523209640295764,-1,0,-2,0,9,6,4,-1
1523209640295764,0,0,3,0,-4,1,-2,0
1523209640296763,-1,1,-19,2,1,2,0,-1
1523209640296763,-1,-5,-45,-9,8,4,0,1
1523209640317820,-2,-1,9,-1,-7,-3,-5,-1
1523209640317820,1,3,20,1,-2,-2,-1,-1
1523209640318822,-2,-4,-15,1,3,-1,1,1
1523209640318822,-2,-1,5,-3,-6,-5,-2,-1
1523209640340920,0,-1,-4,-8,-11,-7,-2,-2
1523209640340920,0,-2,-18,-7,0,3,-1,-1
1523209640341883,0,-1,12,4,-7,-8,0,-3
1523209640341883,3,5,21,21,34,22,9,4
1523209640354916,-1,-2,-19,-6,8,2,-2,-2
1523209640354916,-1,-2,-7,-5,-11,-4,-3,-2
1523209640355919,-3,-5,-35,-14,-8,-4,-5,-3
1523209640355919,0,3,21,4,-23,-10,-4,-2
1523209640377977,1,0,18,6,14,4,0,0
1523209640377977,0,1,9,2,5,2,-1,0
1523209640378986,-1,-2,12,-2,1,0,-3,-2
1523209640378986,-2,1,-8,-4,-4,-4,-1,-2
1523209640401038,0,-4,-7,-4,-13,-7,-5,-2
1523209640401038,-1,0,-10,-5,-3,-3,-1,-2
1523209640402042,0,4,17,9,14,5,1,1
1523209640402042,-2,-6,-5,0,0,8,1,-2
1523209640415076,-2,-1,-6,-1,1,-10,-2,-1
1523209640415076,-2,-2,-1,-5,-5,0,-2,-1
1523209640416078,0,1,-3,4,4,1,-2,1
1523209640416078,-2,-5,16,-16,-13,-11,-3,-3
1523209640438137,1,0,-55,-3,-5,0,1,-1
1523209640438137,-2,-3,-3,4,3,5,2,1
1523209640439140,1,2,10,-3,3,0,1,1
1523209640439140,-3,-4,-6,-5,-14,-9,-5,-5
1523209640461239,-1,1,47,4,5,1,0,-2
1523209640461239,1,3,-30,2,4,-1,0,0
1523209640462203,-3,-13,-1,-6,-2,-1,-3,-2
1523209640462203,-1,2,1,0,-17,-7,-3,-2
1523209640476416,0,1,4,5,19,9,2,0
1523209640476416,-2,0,-5,-2,1,0,-1,-1
1523209640483257,-1,0,-5,1,-2,-2,1,-2
1523209640483257,-1,-1,-5,-3,1,-6,-5,-3
1523209640498297,-1,2,33,2,-18,-5,-1,-2
1523209640498297,-2,-5,-36,-7,11,10,3,-1
1523209640498297,-1,0,-6,-2,1,2,-2,0
1523209640498297,-2,-3,-4,-5,-7,-6,-2,-1
1523209640521594,-1,-1,0,-4,-11,-6,-4,-2
1523209640521594,1,4,50,17,3,-1,1,1
1523209640521594,-1,0,-43,-9,8,6,2,-1
1523209640521594,0,-6,-9,1,10,0,1,-2
1523209640535397,-1,-4,14,-6,-14,-10,-4,-2
1523209640535397,-2,-1,6,-6,-20,-10,-2,-1
1523209640536400,0,1,-27,12,24,15,1,1
1523209640536400,3,6,24,5,12,8,3,3
1523209640558495,-4,-4,-3,-13,-11,-6,-2,0
1523209640558495,0,-2,30,10,-1,-2,-2,-2
1523209640558495,-1,-2,-13,-10,-11,-6,-4,-1
1523209640558495,-3,-2,-35,-14,-4,-2,-2,-2
1523209640581520,1,-2,-15,4,-8,-6,-3,0
1523209640581520,0,1,21,-2,3,1,0,-1
1523209640581520,0,3,25,11,0,1,2,0
1523209640581520,-2,-5,-16,-13,4,2,1,0
1523209640595564,1,3,15,16,4,4,1,0
1523209640595564,-2,-1,-46,-9,-1,-4,-5,-1
1523209640596562,0,-4,-7,-18,-14,-12,-4,-3
1523209640596562,-1,0,18,5,-17,-10,-2,-3
1523209640617655,1,0,0,7,20,14,5,0
1523209640617655,1,1,33,20,17,13,4,2
1523209640618616,-2,-2,-30,-17,-9,1,-4,-2
1523209640618616,0,1,-7,-2,-15,-17,-5,-2
1523209640640676,-1,-1,4,1,1,1,-1,0
1523209640640676,-5,-5,-41,-4,-11,-11,-4,-3
1523209640641678,-2,-1,-8,2,-2,4,0,0
1523209640641678,2,3,-3,9,24,12,1,3
1523209640655716,-3,-4,-22,-8,-6,-4,-1,-2
1523209640655716,-1,-2,7,-11,-8,-10,-5,-2
1523209640655716,-2,-1,29,5,-13,-8,-2,-2
1523209640655716,0,1,-2,7,8,2,1,0
1523209640677773,1,4,-3,1,-1,3,4,1
1523209640677773,0,1,43,3,8,2,-2,1
1523209640678785,-2,-4,-9,-14,-4,-5,-3,-3
1523209640678785,0,-4,-14,3,0,0,0,-1
1523209640701848,1,-2,16,-1,-5,0,-1,-1
1523209640701848,-1,-1,-11,1,-6,-2,-2,-2
1523209640702842,-1,1,0,-4,8,2,2,0
1523209640702842,-2,0,14,-12,-1,5,-1,-3
1523209640714872,-4,-3,2,-6,-20,-19,-7,-3
1523209640714872,1,2,23,10,19,7,1,0
1523209640715877,-1,-3,-14,13,-3,-1,1,-1
1523209640715877,-1,-3,8,-2,3,3,-1,0
1523209640737934,0,1,-9,-5,-5,0,-2,-2
1523209640737934,-2,-5,-15,-7,2,-2,-1,-3
1523209640738939,0,4,31,6,-2,-2,3,1
1523209640738939,-3,-2,6,-4,-3,0,1,-1
1523209640760995,-1,-1,-15,1,3,0,-2,0
1523209640760995,-1,-2,-8,-10,-12,-7,-3,-1
1523209640762002,-2,-2,25,3,5,1,-1,0
1523209640762002,0,3,16,19,-11,-5,-2,0
1523209640776052,-4,-2,-45,-14,17,9,4,0
1523209640776052,-3,-3,-9,2,1,2,1,-1
1523209640776052,-1,-2,-16,-2,-7,-4,-3,-2
1523209640776052,-1,-1,14,-8,-9,-7,-3,-3
1523209640798098,-2,-3,-12,4,1,0,0,-1
1523209640798098,1,3,31,0,-2,1,1,1
1523209640799096,0,1,18,5,12,7,1,-1
1523209640799096,-3,-3,-37,-11,-1,-3,-3,-1
1523209640821390,0,-1,27,-2,-7,-8,-4,-1
1523209640821390,-4,-4,-11,-9,-7,0,0,-2
1523209640822158,-1,0,9,6,3,-5,-2,-1
1523209640822158,1,1,18,1,0,4,1,-2
1523209640835211,-1,-1,4,-2,0,1,1,-1
1523209640835211,-1,1,-15,-4,-9,-6,-2,-4
1523209640836195,0,3,5,4,-2,1,0,0
1523209640836195,-1,-2,-4,0,2,1,0,-1
1523209640858460,2,0,3,4,1,0,-3,-1
1523209640858460,-1,0,0,-7,-4,-6,-2,1
1523209640858460,-1,-5,-16,1,-5,-1,-1,-3
1523209640858460,1,0,4,-2,8,2,1,2
1523209640881315,-2,0,-24,-8,-6,-4,-2,-2
1523209640881315,-1,0,19,13,12,2,-2,0
1523209640881315,1,-1,-3,-6,-2,-2,-2,-1
1523209640881315,-3,-2,1,6,-3,-3,-2,-1
1523209640895593,-1,1,22,3,-2,-2,0,-1
1523209640895593,-3,-3,-35,-11,-4,-2,-1,-2
1523209640896359,0,2,25,-1,2,2,2,0
1523209640896359,0,-3,1,0,3,0,-2,0
1523209640918460,-1,-3,-8,-3,5,5,-3,1
1523209640918460,1,3,0,-3,-10,-2,-2,-2
1523209640918460,-2,-4,9,0,-5,-15,-2,1
1523209640918460,1,3,11,-5,-11,0,0,1
1523209640941475,-2,-1,-9,10,16,3,-1,-3
1523209640941475,0,-3,9,1,6,4,1,1
1523209640941475,1,1,12,4,-10,-2,-3,0
1523209640941475,-2,-3,-11,-10,-10,-6,-2,-3
1523209640954510,0,-1,-8,2,-1,0,1,0
1523209640954510,0,2,31,5,6,4,1,-1
1523209640962539,-3,-2,-13,-6,-2,-2,-2,-2
1523209640962539,-1,1,23,0,-4,-1,-1,-1
1523209640977573,0,-5,-52,-5,-4,-4,-1,-2
1523209640977573,1,0,-4,-2,1,-2,-1,-2
1523209640978579,2,-2,-28,5,7,9,3,0
1523209640978579,1,2,30,6,9,4,-1,1
1523209641000632,-2,-4,-3,-11,-14,-7,-5,-3
1523209641000632,-2,-3,-13,-4,-9,-9,-3,-3
1523209641000632,0,-1,-4,2,2,2,0,1
1523209641000632,1,-1,-9,9,-2,2,-1,-1
1523209641014670,-3,0,16,-11,0,0,1,-1
1523209641014670,-1,-8,-22,0,1,1,-1,1
1523209641022925,-2,-3,9,-6,1,-2,-2,-3
1523209641022925,-2,1,-10,-4,-5,-5,-3,-1
1523209641037730,0,-2,19,9,8,-1,0,1
1523209641037730,-1,0,-50,-5,0,1,-2,-2
1523209641038734,-2,-4,3,-4,-7,-3,-2,-1
1523209641038734,-2,-1,-12,-5,2,2,-2,0
1523209641060791,0,2,21,4,-5,-4,-2,-3
1523209641060791,0,1,25,5,-3,-3,0,0
1523209641060791,-2,-2,-12,0,-2,-2,-4,0
1523209641060791,-2,-2,38,3,-3,-3,0,0
1523209641075064,0,0,-12,-16,1,6,1,0
1523209641075064,-1,1,17,1,2,-3,-2,-2
1523209641082851,-3,-3,-28,-7,-12,-4,-2,-2
1523209641082851,1,2,7,11,16,1,1,-1
1523209641097890,-2,-2,31,1,-10,-6,-3,0
1523209641097890,-1,-3,-22,-20,-18,-7,-1,-1
1523209641098893,1,2,6,6,10,5,1,0
1523209641098893,1,-2,-22,12,22,12,4,2
1523209641120991,-3,-1,-37,-3,-13,3,-1,-1
1523209641120991,-2,0,-8,-6,-3,-16,-4,-3
1523209641120991,-1,3,20,-3,-4,-3,-3,-1
1523209641120991,-1,-5,-19,-8,-2,2,1,-1
1523209641134989,-2,-3,-5,8,3,-1,-1,-2
1523209641134989,-2,0,15,1,-11,-2,-2,-1
1523209641143250,0,1,11,6,2,3,2,-1
1523209641143250,0,2,-10,-5,6,-1,-1,1
1523209641158285,-1,-1,11,-4,-8,-6,-2,-1
1523209641158285,-1,-1,14,1,-2,0,-1,0
1523209641159053,-1,-1,1,-1,8,2,-1,0
1523209641159053,-1,-2,8,3,-17,-7,-4,-2
1523209641180109,-1,-1,-24,-2,3,0,1,-1
1523209641180109,1,4,6,5,18,11,5,2
1523209641181113,-3,-9,-45,-24,-3,-2,-1,-2
1523209641181113,-4,0,10,0,-16,-8,-3,-3
1523209641195152,1,1,-1,4,8,1,0,0
1523209641195152,-1,-1,15,5,-5,-1,-4,-2
1523209641203172,0,-2,-5,1,-9,-2,-3,-1
1523209641203172,0,-2,12,-6,0,-8,-3,-2
1523209641218213,0,-3,-57,-15,7,1,1,0
1523209641218213,-1,0,-11,2,0,7,0,0
1523209641219315,-1,0,17,-3,-3,-2,-1,-1
1523209641219315,-1,-2,-37,-1,0,-1,-2,-1
1523209641240503,0,2,26,4,-3,-4,-1,0
1523209641240503,-1,-1,-2,0,-8,-10,-2,-1
1523209641241271,0,2,-29,-7,-5,-2,-3,0
1523209641241271,-2,-7,-19,-1,3,6,3,-1
1523209641263330,-1,2,26,13,17,5,1,0
1523209641263330,-1,-2,-6,0,-1,-2,-1,-2
1523209641264333,-1,-1,22,3,-4,-4,-3,-1
1523209641264333,-1,1,-12,-11,-3,-3,-1,1
1523209641278371,-2,-1,-10,5,0,3,0,-2
1523209641278371,-1,-5,-4,-1,-3,-1,0,-1
1523209641278371,-2,1,9,3,-2,-3,-2,-1
1523209641278371,0,4,31,5,6,0,1,-1
1523209641300428,-2,-6,-32,-22,-17,-3,-5,-3
1523209641300428,0,0,-9,0,1,-10,-2,-1
1523209641301432,2,4,57,14,5,6,5,1
1523209641301432,-6,-15,-89,-29,-6,0,-4,-3
1523209641323725,0,7,65,13,11,4,1,2
1523209641323725,-3,-1,-35,-13,-10,-2,-4,-2
1523209641324492,-2,-3,3,2,6,-5,-3,-2
1523209641324492,0,2,20,5,-14,-10,-2,-2
1523209641337528,-3,-1,8,-8,-12,-3,0,-1
1523209641337528,0,-2,9,18,10,0,-1,0
1523209641338530,1,8,0,-2,15,11,4,0
1523209641338530,-3,-8,-52,-2,5,10,1,0
1523209641360589,1,0,6,0,-3,-7,-4,-3
1523209641360589,-2,2,5,-4,-9,-2,-1,-1
1523209641361597,-2,-2,15,1,-15,-10,-4,-3
1523209641361597,0,1,0,4,-4,-8,-5,-2
1523209641383649,-1,-3,-10,-10,-3,0,0,0
1523209641383649,0,-2,-7,-1,7,7,2,2
1523209641384653,0,-4,-4,-1,9,-1,1,-1
1523209641384653,0,3,17,2,0,1,0,0
1523209641397689,1,0,0,5,-6,-5,-3,0
1523209641397689,0,2,16,-2,3,6,2,-1
1523209641398690,-1,-4,-17,-7,-6,-3,-4,-1
1523209641398690,0,1,17,-4,-8,-10,-4,-2
1523209641420793,-1,-2,-17,-8,-20,-11,-3,-3
1523209641420793,2,2,-4,12,17,13,5,4
1523209641420793,2,2,2,12,32,20,4,4
1523209641420793,0,1,-10,-3,-1,-1,-1,-1
1523209641443808,-1,-3,7,-6,-11,-8,-4,-2
1523209641443808,-4,-6,-17,-24,-25,-16,-7,-4
1523209641444822,-1,-2,-11,2,-10,-7,-2,-2
1523209641444822,2,6,29,9,17,10,4,1
1523209641458082,-1,-7,-18,5,11,4,0,-1
1523209641458082,-2,1,26,-7,-12,-7,-4,-4
1523209641458849,-1,-3,-18,-8,-9,-2,0,-2
1523209641458849,0,-4,25,9,0,-8,-1,0
1523209641480911,-2,0,-54,-1,-5,1,0,0
1523209641480911,-2,-7,-23,-3,6,0,-1,0
1523209641480911,0,0,12,2,-3,4,1,0
1523209641480911,-1,0,-17,0,5,2,-2,0
1523209641503972,0,1,22,6,2,0,0,0
1523209641503972,-2,0,7,-3,-12,-11,-4,-4
1523209641503972,-3,-1,-5,-3,-12,-6,-2,-3
1523209641503972,-1,-2,-40,-13,-4,1,1,-1
1523209641518047,1,3,32,9,15,6,0,-2
1523209641518047,0,-4,-6,6,9,3,1,0
1523209641519010,-1,0,-1,-2,2,1,0,-1
1523209641519010,-2,-2,19,3,-8,-4,-2,-3
1523209641540300,-3,-2,13,-8,-11,-2,-1,-2
1523209641540300,-1,1,-9,2,3,-4,-2,-1
1523209641541069,1,0,9,11,2,0,0,-1
1523209641541069,-1,-3,2,-2,3,5,1,0
1523209641563128,-1,-3,-22,-8,-5,-9,-3,-4
1523209641563128,0,2,-2,4,-6,0,1,-1
1523209641564130,0,-3,23,0,11,0,-2,-1
1523209641564130,0,3,5,3,3,3,0,-1
1523209641578168,-2,-4,-3,-1,-5,1,-2,0
1523209641578168,-2,0,1,0,-11,-5,0,-1
1523209641578168,0,-1,-16,-8,-1,-1,-3,-1
1523209641578168,-2,1,12,6,7,0,-1,-1
1523209641600229,1,4,35,12,8,5,3,0
1523209641600229,-3,-3,-44,-20,-8,-3,-3,-2
1523209641601228,-3,-6,-11,-4,-16,-7,-2,-2
1523209641601228,0,-1,1,-5,-8,-7,-6,-1
1523209641623523,-3,-2,17,-3,-10,-8,-4,-2
1523209641623523,-1,1,6,11,20,10,5,1
1523209641624288,0,3,-49,2,13,12,5,3
1523209641624288,-1,-3,9,-4,-3,3,-1,-3
1523209641638487,-2,-2,-10,-14,-11,-12,-5,-2
1523209641638487,-1,-3,-3,-17,-12,-8,-4,-1
1523209641638487,-2,-2,12,1,-6,-2,-3,-3
1523209641638487,0,-1,15,11,13,7,2,0
1523209641660384,-1,0,-33,-6,2,4,0,0
1523209641660384,-1,-3,10,1,0,0,2,0
1523209641661393,-2,-1,4,-7,-11,-12,-4,-2
1523209641661393,-2,0,8,-6,-14,-9,-2,-1
1523209641683446,1,1,8,4,4,4,2,-1
1523209641683446,-1,-7,-3,7,11,4,0,-1
1523209641684449,-2,0,21,-3,-7,-5,0,-1
1523209641684449,0,0,11,-3,-3,-1,-1,-2
1523209641697483,0,0,-5,2,0,5,3,0
1523209641697483,0,4,-3,6,10,3,0,-1
1523209641698486,-2,-2,9,-1,-6,-6,-6,-1
1523209641698486,-2,-1,-43,-20,-6,-6,-2,-1
1523209641720780,-1,-2,17,2,2,1,0,0
1523209641720780,2,5,30,11,2,1,0,-1
1523209641721547,-4,-5,-13,-10,-10,-6,-4,-2
1523209641721547,-1,0,24,5,-3,-1,-1,-1
1523209641743606,-1,-4,-42,-3,-1,-8,-4,1
1523209641743606,0,1,4,4,5,1,-2,0
1523209641744613,-1,-4,-27,-2,-3,4,-1,-2
1523209641744613,0,0,-6,4,15,4,2,-1
1523209641757809,-1,2,14,2,-2,6,2,-1
1523209641757809,0,-3,17,2,6,2,-1,-2
1523209641765705,-1,-1,-28,-4,-16,-8,-3,0
1523209641765705,-4,-2,-3,-8,-4,1,-1,0
1523209641780709,-1,-2,15,6,2,-3,0,1
1523209641780709,-2,1,-15,-4,-9,-5,-2,0
1523209641780709,1,-1,1,-2,0,0,0,-1
1523209641780709,0,1,8,4,8,3,1,0
1523209641803767,-1,-1,8,6,-3,4,-1,-1
1523209641803767,-2,-6,-7,-10,-6,-9,-1,-2
1523209641804769,-1,0,18,8,20,12,1,-1
1523209641804769,0,0,-12,2,-10,-2,0,1
1523209641817804,-3,-1,0,-6,-3,-1,-3,-3
1523209641817804,0,-3,9,-1,-10,-3,-3,-2
1523209641818807,0,3,21,5,-5,-7,-2,-1
1523209641818807,-3,-11,-47,-15,-4,-3,-2,-2
1523209641840099,2,3,26,11,14,7,2,0
1523209641840099,-3,-2,1,-10,-5,2,-3,-2
1523209641840865,-1,0,3,1,5,-3,-1,-1
1523209641840865,0,2,17,4,-6,-3,-1,-1
1523209641863928,-2,-5,-24,-4,-5,-4,-1,-1
1523209641863928,-1,3,14,5,16,7,1,0
1523209641863928,2,-1,5,1,4,4,-2,0
1523209641863928,-2,-1,-23,-7,-14,-8,-5,-4
1523209641876967,-1,-3,-15,-21,-6,-5,-3,-1
1523209641876967,1,1,11,13,14,10,2,2
1523209641884982,-1,1,-29,-4,-1,-2,0,1
1523209641884982,-3,-3,24,5,0,-2,-2,0
1523209641900025,0,3,29,6,1,-2,1,1
1523209641900025,-2,-2,-39,-8,-14,-6,-2,-1
1523209641901024,0,-3,-28,-7,1,1,2,-2
1523209641901024,1,3,25,1,-3,-4,-4,0
1523209641924183,-1,2,5,-1,0,-10,-2,-2
1523209641924183,0,-1,3,0,-9,-2,-3,-1
1523209641924183,-1,-3,14,0,2,-3,-2,-2
1523209641924183,1,-3,-22,5,2,7,2,0
1523209641937121,0,-3,-22,-2,5,3,-1,0
1523209641937121,-3,-1,10,-9,-10,-6,-3,-2
1523209641945150,-1,1,5,8,4,0,1,1
1523209641945150,-1,-4,18,-6,-8,-6,-3,-2
1523209641960186,-1,-1,-7,2,-6,-1,-1,0
1523209641960186,0,0,13,1,9,-1,1,0
1523209641961188,-1,-3,-43,-7,-2,2,-3,-1
1523209641961188,2,6,32,9,8,3,3,1
1523209641983245,-4,-1,2,6,0,0,-1,-2
1523209641983245,-2,-5,-8,-13,-14,-11,-5,-3
1523209641984248,-2,-1,32,0,-1,5,1,-1
1523209641984248,1,1,-31,3,6,-6,1,0
1523209641997282,-1,-2,-9,-3,1,1,-3,-3
1523209641997282,-1,-3,-5,2,-12,-1,-1,0
1523209642005304,-2,1,-7,-8,4,-3,-1,-2
1523209642005304,-1,0,3,-1,-8,1,-1,-1
1523209642020343,0,0,14,1,-4,-3,-1,-1
1523209642020343,-3,-3,-10,-6,0,2,0,-3
1523209642021346,0,-1,-11,9,17,7,3,1
1523209642021346,-3,-1,2,-4,-3,1,-1,-2
1523209642043405,-1,-2,11,0,-4,-4,-3,-3
1523209642043405,-2,0,-1,-4,2,-1,-2,-3
1523209642044412,-1,-2,18,1,-9,-4,-1,0
1523209642044412,-1,-1,10,-1,2,2,-1,-2
1523209642057675,1,0,-11,-3,2,0,-1,0
1523209642057675,-1,-7,-32,-2,-2,-3,-3,-1
1523209642065461,-3,-2,22,-4,-4,-2,-1,-2
1523209642065461,0,-3,-22,2,10,2,0,0
1523209642080502,-1,2,40,1,-6,1,1,-2
1523209642080502,-1,-6,-28,0,2,2,1,-1
1523209642081504,-2,-3,-21,-3,7,0,1,-1
1523209642081504,0,1,-2,-10,-6,0,-2,-1
1523209642103563,-1,-5,-12,6,11,0,-1,-2
1523209642103563,0,6,12,3,0,2,0,-1
1523209642104569,0,2,29,2,-11,-5,-2,-1
1523209642104569,-2,-4,-24,-7,-8,-6,-2,-3
1523209642117601,0,0,-6,1,1,1,0,-2
1523209642117601,0,-2,0,-1,-2,-1,0,0
1523209642125856,-1,0,0,2,7,1,-1,0
1523209642125856,0,1,3,2,1,-2,-1,0
1523209642140717,-3,-3,-33,-10,-9,-5,-3,-2
1523209642140717,0,0,1,1,-8,-4,-2,-2
1523209642140717,1,1,26,0,4,-1,0,-1
1523209642140717,-2,-4,-26,7,-2,-1,-2,-1
1523209642163723,-3,-2,-4,-8,6,3,3,-1
1523209642163723,0,-2,-9,-4,-6,0,0,1
1523209642164725,-1,-6,-16,0,4,2,-1,0
1523209642164725,0,2,29,5,0,-3,-3,-2
1523209642185781,-2,-2,7,-2,-15,-8,-4,-1
1523209642185781,-2,-3,-12,-3,-3,-6,-3,-3
1523209642186785,-2,-1,1,1,-8,0,1,-2
1523209642186785,0,-1,-5,-5,13,7,5,2
1523209642199818,-1,0,9,-1,-1,4,-1,-1
1523209642199818,1,-2,-11,-2,6,1,-1,-2
1523209642200821,-2,1,1,-2,-14,-6,-3,-3
1523209642200821,-1,-3,-12,-3,-4,-4,-2,-1
1523209642224132,1,4,8,-2,4,-3,0,1
1523209642224132,0,0,11,4,-2,0,1,0
1523209642224132,-1,-3,-4,0,-6,0,-3,-2
1523209642224132,-1,-2,-33,-6,14,3,1,-1
1523209642245941,1,0,-3,5,-4,-2,-2,-1
1523209642245941,-2,0,29,10,3,1,-1,1
1523209642246944,-1,-3,-57,-18,-10,-6,-3,1
1523209642246944,-2,-2,24,6,3,4,0,-1
1523209642259982,-1,-1,15,4,0,0,-1,0
1523209642259982,-1,2,18,-13,-12,-11,-4,-3
1523209642260988,-1,-2,-34,5,2,4,3,0
1523209642260988,1,3,4,8,16,14,2,2
1523209642283041,-1,1,26,-3,-6,0,-2,-2
1523209642283041,-2,-1,-9,1,-9,-13,-3,-1
1523209642284043,0,-1,11,0,2,2,-1,-1
1523209642284043,-2,1,21,3,-5,-6,-3,-2
1523209642306336,-1,-3,-18,-3,1,2,1,-3
1523209642306336,-2,-2,5,-3,-1,0,0,-1
1523209642307103,-1,1,9,-4,-11,-6,-2,-2
1523209642307103,-2,-1,6,3,2,-1,0,0
1523209642320376,1,-3,-12,5,5,0,-2,0
1523209642320376,-1,1,27,1,2,1,-1,-1
1523209642321139,1,-2,-3,1,6,1,1,1
1523209642321139,1,2,7,0,-18,-2,-1,1
1523209642343203,-3,-7,-2,-9,7,-2,-2,-3
1523209642343203,-1,-2,-8,3,3,1,0,-2
1523209642344208,-3,0,24,-4,-8,-7,-3,-4
1523209642344208,-3,-3,-7,-3,-10,-7,-3,-5
1523209642366261,0,4,-25,0,-4,-7,-2,0
1523209642366261,-2,-7,-19,1,-2,5,3,0
1523209642366261,-1,1,-10,8,26,14,3,-1
1523209642366261,0,1,44,-6,-5,-1,0,0
1523209642380297,-3,-7,-47,-7,-7,-4,-2,-1
1523209642380297,0,-1,6,0,-2,-2,-4,-1
1523209642381319,0,-3,7,-7,-21,-17,-5,-1
1523209642381319,-2,-1,1,3,-2,-3,-2,-3
1523209642403359,1,2,19,9,19,14,6,3
1523209642403359,0,2,7,-5,5,6,0,-1
1523209642404363,-1,-3,4,-3,-9,-5,-1,-3
1523209642404363,-1,-3,-12,-10,-8,-7,-3,-3
1523209642426423,1,1,16,0,-9,-6,-3,0
1523209642426423,2,-1,-26,-1,10,5,3,-1
1523209642426423,-2,-1,-23,-5,2,-4,-2,0
1523209642426423,-3,-11,-1,-16,-16,-8,-3,-4
1523209642440693,-3,-1,3,8,14,14,6,-1
1523209642440693,2,2,18,13,12,8,2,2
1523209642441512,-2,2,26,-4,-10,-8,-5,-3
1523209642441512,-4,-7,-46,-13,-18,-12,-6,-1
1523209642463519,1,1,24,3,-13,-1,0,3
1523209642463519,-1,3,-30,10,31,15,4,0
1523209642464524,-2,-9,21,-10,-9,-9,-1,-2
1523209642464524,-1,3,1,6,8,5,0,1
1523209642485579,1,-2,-13,-5,-12,-8,-5,-2
1523209642485579,-2,-1,4,1,-3,1,1,-1
1523209642486580,1,1,-4,1,3,1,0,0
1523209642486580,-1,2,-3,-1,-7,-6,-1,-2
1523209642500657,0,-1,0,5,3,-1,-1,-1
1523209642500657,-1,-1,-13,-18,-8,-9,-3,0
1523209642500657,-3,-3,0,2,-3,5,1,-2
1523209642500657,1,2,10,12,28,15,5,2
1523209642523914,-1,-1,3,-2,5,3,1,0
1523209642523914,-3,-1,-5,0,-12,-8,-3,-2
1523209642524682,-1,0,5,-2,-10,-6,-3,-1
1523209642524682,-2,-1,0,0,-5,-6,-4,-2
1523209642545738,-1,-2,10,-1,-6,-2,0,-1
1523209642545738,-3,-3,18,-4,-9,-5,-4,-3
1523209642547743,1,0,-3,2,15,5,3,3
1523209642547743,0,-6,-30,2,2,5,0,-1
1523209642560780,-3,0,-4,-2,-2,-4,-2,-3
1523209642560780,-1,0,17,-5,-11,-5,-4,-1
1523209642560780,-1,2,11,-2,-9,-5,-3,-3
1523209642560780,-1,1,-11,3,-3,-1,1,0
1523209642583839,-4,-9,-56,-13,5,-1,0,-2
1523209642583839,0,2,-4,4,6,1,0,0
1523209642583839,-1,-3,12,-3,-6,0,-1,-2
1523209642583839,-1,-3,-19,-8,-9,-11,-4,-2
1523209642606132,-2,-2,-20,-5,0,3,2,-2
1523209642606132,1,3,31,11,20,10,4,2
1523209642606899,-1,2,3,1,-4,-5,-4,-1
1523209642606899,-3,-1,-1,-6,-11,-6,-3,-1
1523209642620977,-1,-1,-24,-1,-5,-6,-3,-3
1523209642620977,-2,-5,-11,-12,-6,-5,-2,-2
1523209642620977,0,-1,-22,3,4,2,0,0
1523209642620977,-1,-4,17,-4,-11,-8,-4,-2
1523209642644012,4,9,28,12,2,0,3,1
1523209642644012,-1,-2,-9,0,13,11,3,1
1523209642645008,-2,-1,-14,2,6,3,1,0
1523209642645008,-1,1,4,-8,-9,-3,-3,-1
1523209642666058,-1,0,20,-3,-12,-11,-4,-2
1523209642666058,-1,-4,-16,-3,-8,-10,-2,-2
1523209642667062,1,2,9,0,-5,1,-1,1
1523209642667062,1,-1,-3,10,27,14,6,1
1523209642680096,-2,2,-8,-7,-2,3,-2,-1
1523209642680096,-1,-2,-3,-6,-12,-8,-5,-2
1523209642689118,-2,-3,-23,-9,-7,-8,-3,-2
1523209642689118,1,1,21,7,4,2,2,-1
1523209642703155,0,2,35,6,14,6,0,1
1523209642703155,0,-1,-20,1,-10,-2,-3,-2
1523209642705162,-2,-4,6,-14,-8,-9,-3,-3
1523209642705162,1,0,-13,-2,6,3,1,-2
1523209642726218,1,-2,0,9,8,3,1,0
1523209642726218,-1,5,25,4,-6,-3,-2,-1
1523209642727223,-1,-1,-3,0,4,3,-2,-1
1523209642727223,-3,-3,0,-6,-13,-7,-3,-2
1523209642740335,-2,-1,-8,-8,-7,-7,-4,-1
1523209642740335,1,-1,-11,0,-10,-3,-1,1
1523209642748277,-2,-4,-55,4,20,10,4,1
1523209642748277,1,-1,13,4,3,5,1,1
1523209642763315,-2,-1,7,-1,-5,-6,-3,-3
1523209642763315,-4,-4,6,-7,-16,-12,-4,-3
1523209642765321,0,3,-7,0,-1,4,3,2
1523209642765321,-1,-2,-8,3,15,4,0,1
1523209642785377,-2,-3,1,-5,-12,-10,-3,-2
1523209642785377,0,-1,1,-3,-6,-1,-1,-1
1523209642792392,-1,3,26,9,-12,-11,0,0
1523209642792392,1,3,8,4,19,9,0,-1
1523209642799413,0,-3,0,-4,-2,1,-1,0
1523209642799413,-2,-5,-21,-6,7,2,1,-2
1523209642808534,0,0,-7,3,-3,-4,-3,-2
1523209642808534,-2,-2,-12,-9,-12,-7,-2,-1
1523209642823474,-3,3,34,6,0,-1,0,-1
1523209642823474,-1,-1,-9,4,7,0,-2,-1
1523209642825480,0,-3,0,-3,1,1,1,1
1523209642825480,-2,1,0,0,-6,-4,-1,-1
1523209642845540,-1,-1,-10,0,13,10,2,1
1523209642845540,-1,-1,0,-3,-8,-2,-2,1
1523209642847539,0,-2,1,1,-1,1,-2,-2
1523209642847539,-1,0,-8,-6,-6,-7,-5,0
1523209642859570,-3,-2,-11,-5,-13,-8,-2,0
1523209642859570,0,3,38,8,-1,3,1,0
1523209642868595,-1,0,-30,-15,9,7,-1,-1
1523209642868595,-1,-4,12,5,-3,0,1,0
1523209642883636,0,-3,-10,8,19,6,-1,0
1523209642883636,-1,-1,22,-1,-5,-5,-2,-2
1523209642885641,-2,1,6,8,-5,1,0,-1
1523209642885641,-1,0,5,-13,-13,-3,-3,-1
1523209642905929,-2,-1,-2,-8,-7,-3,-1,-1
1523209642905929,-1,-1,-20,5,8,1,-1,-1
1523209642907699,-1,-5,4,-1,-4,1,0,-2
1523209642907699,-1,-3,-13,5,13,2,-1,-1
1523209642919970,-1,-3,3,-2,-13,-5,-2,-3
1523209642919970,-1,-1,-3,-5,0,-1,0,-2
1523209642928756,1,1,35,4,4,3,1,0
1523209642928756,-2,-3,-58,-9,-11,-7,-3,-2
1523209642943802,-1,-1,-10,-10,4,-1,-1,-2
1523209642943802,-2,2,0,-1,-2,-2,1,0
1523209642944803,-2,-8,-17,-5,-10,-6,-1,-2
1523209642944803,2,5,48,15,20,16,4,1
1523209642965855,-1,-2,-45,-13,-11,-10,-3,-1
1523209642965855,-1,-5,-19,5,12,1,-1,0
1523209642967860,-1,-3,-28,4,-2,-1,-2,-1
1523209642967860,-3,0,25,-8,-21,-11,-4,-3
1523209642979890,0,-2,2,0,-7,0,-1,-2
1523209642979890,-1,1,1,1,0,2,3,0
1523209642988914,-1,-1,38,3,6,0,-2,-1
1523209642988914,-1,-4,-47,-8,-2,-6,-3,-2
1523209643003955,-1,-3,-36,-8,-8,-2,-1,0
1523209643003955,1,-2,4,-1,8,6,1,2
1523209643004958,1,1,28,4,1,-2,-2,0
1523209643004958,-2,-8,-9,-2,-2,2,0,0
1523209643026019,-1,1,16,3,0,-1,-2,-2
1523209643026019,-2,-2,-17,-6,-11,-7,-5,-1
1523209643028031,-3,0,-7,-4,-12,-7,-3,-2
1523209643028031,0,-1,8,5,6,0,1,1
1523209643040281,1,-1,-2,8,19,14,3,0
1523209643040281,0,-2,-3,-1,2,-3,-1,0
1523209643049076,-3,0,34,-9,-11,-10,-4,-3
1523209643049076,0,2,10,3,-7,-7,-5,-1
1523209643063112,-1,-3,8,-2,-7,-3,1,-1
1523209643063112,-1,-1,11,2,4,3,-1,-1
1523209643065117,0,0,-16,-5,10,6,2,2
1523209643065117,-1,0,-25,-3,-6,1,0,-2
1523209643086174,-2,-2,29,8,3,1,-1,-1
1523209643086174,-1,1,-8,-13,-14,-9,-5,-4
1523209643088237,-1,-7,-17,1,-4,-4,0,-1
1523209643088237,0,1,21,-2,-16,-6,-3,-2
1523209643099210,1,4,16,13,34,14,4,2
1523209643099210,0,-4,-13,6,8,9,2,0
1523209643108467,0,2,-6,2,4,-1,-2,-2
1523209643108467,-2,-2,6,-5,-12,-6,-4,-3
1523209643123508,-3,-2,9,-3,-27,-10,-5,-3
1523209643123508,0,-5,-4,-13,-3,-9,-1,-1
1523209643125278,1,1,-35,5,14,9,1,0
1523209643125278,-3,-5,1,-6,0,1,1,0
1523209643146334,-2,-2,-8,-5,-10,-3,-1,-1
1523209643146334,0,3,14,6,9,5,1,0
1523209643147339,-2,-7,-4,-8,-13,-8,-3,-3
1523209643147339,-1,-1,-18,-4,-5,-5,-1,-2
1523209643168627,0,1,-3,2,-1,0,-1,0
1523209643168627,1,0,-1,5,21,10,2,0
1523209643170398,-2,3,17,1,-4,-2,-2,-1
1523209643170398,1,-3,6,3,8,3,1,0
1523209643183432,-1,1,16,-3,-4,-1,-2,-1
1523209643183432,-1,1,8,-7,-10,0,-2,-1
1523209643185437,-1,-4,-6,-1,-7,-14,-4,-3
1523209643185437,1,0,28,6,-3,-3,-1,0
1523209643206629,-2,0,-17,-16,-3,-7,-1,-1
1523209643206629,-2,-2,-6,4,2,0,-1,-2
1523209643207496,-1,3,4,0,-1,2,0,-1
1523209643207496,-1,2,3,-1,1,0,-1,-1
1523209643228559,0,0,2,5,3,-2,-2,-1
1523209643228559,-2,-3,17,-1,-11,-4,-2,-2
1523209643230557,-1,-2,0,-2,10,4,0,1
1523209643230557,0,0,-17,-2,5,1,0,0
1523209643243600,-2,-3,-14,3,3,3,0,1
1523209643243600,0,1,19,-5,-14,-7,-3,-2
1523209643245602,-1,1,-1,-2,-8,-3,-3,-1
1523209643245602,-2,-5,-6,2,-4,-3,-2,-1
1523209643265653,1,-1,-8,-5,9,4,-1,-3
1523209643265653,0,-1,-17,3,-8,-7,1,1
1523209643267656,0,4,16,3,17,7,1,0
1523209643267656,-1,-2,-12,0,-1,4,-1,0
1523209643288947,-3,-5,-4,1,-3,-7,-4,-3
1523209643288947,-2,-4,-18,-9,-12,-9,-5,-2
1523209643289714,1,-1,-18,-8,-15,-2,-1,-1
1523209643289714,0,-1,19,8,13,2,2,-1
1523209643302750,0,0,0,3,5,1,-1,1
1523209643302750,-2,-1,13,0,0,3,1,-2
1523209643309768,-1,-3,14,1,1,1,0,1
1523209643309768,-5,-6,-26,-9,-11,-7,-4,-3
1523209643325815,-1,-3,-17,-12,-11,-7,-3,0
1523209643325815,-1,3,-18,6,7,1,-2,-3
1523209643327824,1,1,1,-1,-3,-1,2,-1
1523209643327824,0,-2,16,5,4,4,3,1
1523209643348871,-4,-1,20,-2,0,1,-2,-2
1523209643348871,-1,-4,-34,-7,-9,-4,-3,-1
1523209643349874,-3,-1,-10,-3,-7,-9,-2,-2
1523209643349874,1,4,-4,3,-6,2,0,1
1523209643362909,-1,1,22,8,25,8,3,0
1523209643362909,-2,-7,-20,-4,-4,-2,-2,-1
1523209643370162,-1,-2,14,-2,-12,1,-1,-3
1523209643370162,1,3,3,3,14,0,-1,0
1523209643385971,-1,-6,-13,-4,-16,-6,-1,-2
1523209643385971,1,2,19,8,5,1,2,0
1523209643387976,-2,0,-4,-4,-6,-3,-1,-2
1523209643387976,0,0,-15,-4,-3,-2,-1,-1
1523209643408264,-3,-2,1,5,3,-1,-1,-4
1523209643408264,0,3,10,2,7,0,0,2
1523209643410039,-2,-4,-20,-5,-3,1,-3,-2
1523209643410039,-1,-2,3,-3,-5,-4,-2,0
1523209643423304,1,3,20,8,-4,3,1,1
1523209643423304,-1,-4,10,-3,6,7,3,0
1523209643430087,1,5,-33,-10,-1,-3,0,1
1523209643430087,-5,-6,6,-9,-3,-8,-5,-3
1523209643446129,-1,-1,-18,0,0,-4,-1,0
1523209643446129,-2,3,14,-2,-11,-5,-2,-2
1523209643447132,0,-1,12,11,8,8,-1,0
1523209643447132,-1,2,23,0,-4,-4,-1,-2
1523209643468425,-2,-10,-54,-21,-21,-8,-2,-1
1523209643468425,2,3,13,6,14,3,1,0
1523209643470193,-1,-6,3,0,4,2,-1,0
1523209643470193,0,3,23,0,-3,-5,-4,-2
1523209643483228,1,1,-51,-3,-5,-4,-3,-3
1523209643483228,-1,-4,-39,-12,-1,2,1,-1
1523209643490306,0,0,24,11,11,6,2,0
1523209643490306,0,-2,-8,-1,-1,2,0,0
1523209643506525,-2,3,26,5,-6,-5,-3,0
1523209643506525,-2,0,-2,1,-15,-9,-4,-1
1523209643507291,-4,-3,-5,-6,-3,-5,-4,-3
1523209643507291,1,1,-1,-1,6,2,0,1
1523209643528355,0,5,21,5,5,1,3,-1
1523209643528355,-3,-7,-16,-4,4,5,-1,0
1523209643530357,-2,-5,19,1,-8,-3,-2,-2
1523209643530357,-1,0,-9,-5,1,7,2,-1
1523209643543437,0,-4,-45,-13,0,-1,-3,0
1523209643543437,-3,-3,50,8,-8,-6,-3,-2
1523209643549404,1,2,-2,0,3,1,1,-1
1523209643549404,-3,-3,-22,-4,-7,-4,-3,-1
1523209643566658,1,3,58,6,2,1,1,0
1523209643566658,-2,-5,-28,-26,-9,-2,-3,-2
1523209643567453,1,-2,-20,4,2,-3,-2,0
1523209643567453,-2,2,11,3,-3,-1,-1,-2
1523209643588743,1,0,10,5,8,8,2,0
1523209643588743,0,1,15,10,8,0,-1,0
1523209643590513,-2,1,21,-4,-7,-1,-1,-1
1523209643590513,0,-4,-37,-10,-6,-10,-1,-2
1523209643602547,-2,-6,-4,-4,-8,-5,-3,-1
1523209643602547,-2,0,-2,0,-3,-2,-2,-2
1523209643609596,2,3,2,6,18,9,5,1
1523209643609596,-2,-8,-44,10,6,6,1,0
1523209643625613,-2,3,4,-14,-7,-5,-2,-3
1523209643625613,0,0,4,-3,-12,-11,-5,-3
1523209643627618,-3,0,3,3,-7,-4,-2,-1
1523209643627618,0,-1,12,-15,2,3,1,-1
1523209643648670,-2,-6,-1,8,1,-2,-1,-1
1523209643648670,0,-1,8,-5,-5,-3,-2,-3
1523209643649673,-1,0,13,2,-5,-3,-3,-1
1523209643649673,-1,1,-3,2,9,-2,-3,-1
1523209643661704,-2,-5,-20,-2,-8,2,0,0
1523209643661704,-2,0,33,2,9,11,2,1
1523209643670963,0,-3,-27,2,11,-4,1,2
1523209643670963,-1,2,20,-1,-8,-4,-4,-1
1523209643685768,-1,-1,22,-5,-8,-8,-4,-2
1523209643685768,-1,0,-22,6,-6,-2,-1,-2
1523209643687772,0,-1,10,-5,3,2,0,-2
1523209643687772,1,1,4,7,5,1,1,0
1523209643708835,-1,0,15,19,0,-1,-2,-1
1523209643708835,0,-1,-48,-17,4,6,3,2
1523209643709836,-3,-3,-2,-2,-2,-3,-3,-1
1523209643709836,-1,1,20,3,-6,-4,-2,-1
1523209643722864,-1,-2,-1,-1,2,-1,-2,-1
1523209643722864,-1,-1,1,9,-7,-7,-4,-2
1523209643730887,0,0,-9,-6,-6,-5,-1,0
1523209643730887,-2,-2,28,-2,6,6,0,-2
1523209643745928,-3,-6,-26,-9,-15,-5,-1,0
1523209643745928,0,-1,-10,3,6,-1,2,1
1523209643747932,2,2,7,12,28,17,4,2
1523209643747932,-2,2,35,-6,-16,-8,-6,-1
1523209643769157,-2,-9,-25,-8,-5,-3,-2,-4
1523209643769157,-1,1,13,0,-2,0,0,0
1523209643769995,-4,-1,-10,3,-10,-6,-4,-2
1523209643769995,-1,-1,-32,-2,5,-1,1,0
1523209643782063,0,1,5,0,-2,4,2,1
1523209643782063,0,2,9,6,9,2,-1,-2
1523209643791047,-2,-5,-32,-16,-9,-3,-3,-3
1523209643791047,-3,-4,20,-6,-7,-5,-3,-2
1523209643806086,-1,1,-17,-6,-10,-6,-4,-1
1523209643806086,0,-4,-17,5,16,7,2,-2
1523209643808091,0,4,32,4,-7,3,2,0
1523209643808091,-2,-1,3,-1,8,9,0,-2
1523209643828148,1,3,-7,4,7,-6,3,0
1523209643828148,-1,-3,47,-3,-5,-5,-3,0
1523209643830150,-2,-4,-26,-14,-14,-9,-4,-4
1523209643830150,-3,-1,5,1,-10,-6,0,-1
1523209643842191,0,4,-9,-3,8,1,-1,-2
1523209643842191,-1,2,9,14,3,3,3,2
1523209643851206,-2,-8,-30,-13,11,4,0,-2
1523209643851206,1,2,9,4,-7,1,1,0
1523209643866246,-4,-3,-36,-9,-5,-4,-5,-1
1523209643866246,-1,1,-2,-6,-13,-10,-3,-3
1523209643867250,-2,-3,-13,-6,-7,-7,-3,-3
1523209643867250,0,-4,-18,2,5,-3,-3,-2
1523209643888540,3,4,18,5,12,5,4,2
1523209643888540,-3,-5,10,-10,-3,-1,-2,-2
1523209643890311,1,3,4,6,-1,1,1,0
1523209643890311,1,2,9,6,4,2,2,-2
1523209643902344,-2,0,-5,-8,2,3,0,-1
1523209643902344,0,-4,-40,-3,-7,4,-1,-1
1523209643911367,-3,2,47,-2,-11,-20,-4,-2
1523209643911367,1,-2,15,0,-9,-5,-3,-1
1523209643926411,-4,-3,-13,-8,-2,5,5,0
1523209643926411,2,3,1,14,21,6,0,-1
1523209643927418,-2,-5,-23,-7,1,4,0,-1
1523209643927418,1,5,8,4,-2,-2,0,0
1523209643948466,-2,-2,29,-3,-16,-10,-6,-3
1523209643948466,0,-1,3,-1,-7,-5,-3,-2
1523209643950472,-2,-3,-14,-9,3,3,1,-2
1523209643950472,0,1,-17,13,23,12,5,1
1523209643962508,0,-2,37,-4,-1,-1,-3,-2
1523209643962508,-1,-1,-15,-10,-13,-10,0,-2
1523209643971525,-2,-5,33,2,-11,1,-1,0
1523209643971525,0,0,-5,2,9,7,0,0
1523209643986583,-1,-2,0,2,1,3,-3,-2
1523209643986583,-1,1,4,-2,-11,-17,-4,-2
1523209643987568,2,2,-1,6,2,3,1,2
1523209643987568,-3,-5,-15,-12,-5,-7,-4,-2
1523209644008626,1,2,-1,15,8,7,3,0
1523209644008626,-1,-3,2,-4,6,5,1,-1
1523209644010637,1,2,1,2,5,4,-1,-2
1523209644010637,-3,-5,-58,-13,-9,-8,-3,-2
1523209644022806,0,2,35,-2,-7,-8,-4,-3
1523209644022806,-3,-7,-40,-7,-5,-1,-2,-2
1523209644031688,0,-1,-10,5,3,-1,0,0
1523209644031688,-1,1,10,3,4,3,0,0
1523209644045768,-2,0,16,-2,2,-3,-1,-2
1523209644045768,-2,-9,-46,-16,-8,3,1,0
1523209644047728,-1,1,6,1,-1,0,-1,1
1523209644047728,-2,-1,45,0,10,0,-2,-1
1523209644069020,-3,-4,-18,-5,-2,1,1,0
1523209644069020,-1,3,3,3,-2,-3,-4,-1
1523209644070830,-2,-1,-12,-4,-18,-9,-4,-3
1523209644070830,0,-1,14,-8,-16,-8,-1,-2
1523209644090843,0,0,17,4,5,-3,0,0
1523209644090843,-2,-3,-6,-3,-11,-6,-3,-3
1523209644092853,2,1,19,16,18,7,3,2
1523209644092853,-1,-2,-33,0,13,14,4,2
1523209644106118,1,-2,3,-4,2,-1,0,1
1523209644106118,0,5,24,-4,-8,-5,-2,-1
1523209644107888,-4,-8,-2,-2,-12,-10,-4,-5
1523209644107888,-2,-1,-6,-9,-11,-12,-7,-2
1523209644128944,-3,-7,-36,-10,-15,-8,-4,-3
1523209644128944,1,5,18,12,11,11,5,0
1523209644129946,1,-1,-19,4,28,24,5,3
1523209644129946,1,1,5,6,2,-8,0,-2
1523209644151003,-1,-2,-23,-2,-9,-2,-4,-1
1523209644151003,-1,-3,19,-6,-10,-8,-7,-2
1523209644153009,-3,-3,-9,-10,-16,-11,-8,-4
1523209644153009,-1,-7,-54,-4,-5,2,1,0
1523209644166043,0,7,10,5,20,10,4,2
1523209644166043,0,-3,10,9,7,0,-1,1
1523209644168049,1,-1,22,-2,-9,-6,-2,-2
1523209644168049,-2,-4,-34,-13,-11,-7,-2,-2
1523209644189143,0,2,19,9,-4,-2,0,-1
1523209644189143,0,1,-9,-1,6,9,4,2
1523209644190107,-2,-1,12,-1,10,-1,0,0
1523209644190107,1,2,19,5,-9,-1,-1,-1
1523209644211164,-1,-1,6,6,17,10,2,-2
1523209644211164,0,-3,-13,-1,-4,-4,-1,-1
1523209644212165,-1,1,-15,-16,-17,-9,-3,-2
1523209644212165,0,0,27,8,-11,-3,-2,-1
1523209644226213,-2,-1,-9,-21,-7,-7,-3,-2
1523209644226213,0,3,2,10,13,5,2,3
1523209644227212,1,0,10,9,9,5,4,0
1523209644227212,-1,0,21,0,-1,2,-1,-1
1523209644248261,-1,-1,-4,-2,-4,1,-4,-2
1523209644248261,-2,-2,4,-8,-14,-11,-3,-3
1523209644250270,-4,-1,-3,4,-1,0,1,-1
1523209644250270,0,1,-4,1,13,10,4,2
1523209644271559,2,6,0,2,-3,-4,0,0
1523209644271559,-6,-11,3,-9,-11,-7,-3,-4
1523209644273345,0,1,-21,0,-3,-3,-2,0
1523209644273345,0,-3,0,2,9,6,1,-2
1523209644285361,-1,-1,4,-3,5,-2,3,1
1523209644285361,0,0,3,1,1,-3,-2,1
1523209644292381,-2,3,2,-9,-17,-10,-7,-4
1523209644292381,-3,-3,-8,-7,-14,-10,-4,0
1523209644308426,-2,-5,-41,5,4,4,0,0
1523209644308426,1,3,17,0,7,4,1,-3
1523209644310440,-2,-5,-26,0,5,2,1,0
1523209644310440,-1,-1,8,-4,-6,-1,-1,-2
1523209644330480,0,-1,8,-1,-1,-3,-3,-1
1523209644330480,-2,-3,-6,5,-4,-1,0,0
1523209644332485,0,1,-33,-12,-7,-4,-2,1
1523209644332485,2,3,12,14,13,6,2,0
1523209644345525,-2,-15,-26,-5,-4,-1,-1,-2
1523209644345525,-1,8,25,-4,-6,-7,-4,-3
1523209644352538,-1,-3,24,2,-7,-4,-1,-2
1523209644352538,-3,-4,-38,-8,-5,2,-1,-2
1523209644368581,-2,0,23,6,7,2,0,-3
1523209644368581,1,1,-10,2,8,3,2,1
1523209644370605,0,2,16,10,9,4,-1,1
1523209644370605,-3,-2,-11,-18,-8,-8,-2,-2
1523209644390640,-1,0,-10,2,-7,0,-2,0
1523209644390640,-3,-6,-15,-7,-3,-1,-3,-2
1523209644392652,-1,0,6,-2,-9,-10,-3,-1
1523209644392652,0,-1,0,-6,-11,-1,-2,1
1523209644405680,0,1,10,13,30,13,0,3
1523209644405680,0,2,-6,3,6,5,2,1
1523209644412699,-1,-2,34,-3,-6,-3,-2,-2
1523209644412699,-3,-8,-17,0,-9,-8,-3,-2
1523209644428741,-1,0,-6,-9,-15,-3,0,-1
1523209644428741,0,-2,1,4,10,4,-1,0
1523209644429743,0,-4,-14,-6,1,7,0,-3
1523209644429743,-2,3,-5,0,-7,-10,-1,-2
1523209644450839,-3,-4,4,-9,0,-6,-2,-1
1523209644450839,1,1,2,5,7,4,0,2
1523209644452805,-2,0,-13,3,-1,0,0,-2
1523209644452805,-2,-6,5,-4,-4,-2,0,-1
1523209644465072,1,2,7,5,4,0,0,-1
1523209644465072,-1,-2,10,-4,-6,-4,-1,0
1523209644472091,0,0,13,0,0,-3,-1,-1
1523209644472091,0,2,0,-1,2,-1,0,-1
1523209644489127,0,1,6,3,1,2,0,-1
1523209644489127,0,-2,-4,-4,-5,0,-3,0
1523209644489904,-2,-1,-1,-1,2,0,-1,0
1523209644489904,0,-1,7,0,1,-2,-3,1
1523209644510963,-1,0,5,-9,-20,-11,-4,-1
1523209644510963,-2,-8,-22,0,1,-2,-1,0
1523209644512965,1,4,48,16,15,8,5,2
1523209644512965,-2,0,-59,-16,-2,3,-2,-2
1523209644525001,-2,2,29,-2,-3,-7,-2,-2
1523209644525001,-2,-5,-33,-3,-8,-3,-1,1
1523209644532056,-1,-1,-9,1,7,1,-1,-1
1523209644532056,-2,-1,28,4,-10,-4,-1,-1
1523209644549063,-1,-1,19,2,2,2,0,0
1523209644549063,0,4,-43,-4,7,3,1,-2
1523209644555076,-1,-2,15,-5,-5,-1,-1,-2
1523209644555076,-1,2,28,6,2,-1,0,-1
1523209644571354,-2,-5,-34,-13,-11,-6,-3,-2
1523209644571354,-2,-1,22,0,-6,-6,-1,-4
1523209644573246,0,1,-31,-2,0,0,0,0
1523209644573246,3,6,39,18,9,3,1,0
1523209644584155,-4,-17,-83,-22,-10,0,-1,-2
1523209644584155,1,4,52,4,5,-3,-3,0
1523209644593180,-1,-4,-18,-4,-12,1,-3,-1
1523209644593180,-2,-2,9,1,12,-1,1,0
1523209644608219,3,10,41,16,14,6,2,1
1523209644608219,-1,-6,-19,-1,-4,-3,-3,-2
1523209644610231,-2,-1,-12,-12,-16,-6,-3,-3
1523209644610231,1,-4,-14,4,18,2,-3,-1
1523209644631281,0,7,59,1,-15,-3,-2,1
1523209644631281,-3,-7,-32,-5,-1,1,3,-1
1523209644632283,0,3,37,12,1,0,0,-1
1523209644632283,0,2,-35,-8,10,5,1,0
1523209644644318,-1,-6,3,-8,2,1,-1,-3
1523209644644318,0,1,30,-4,-12,-2,-1,0
1523209644653338,-2,-4,-2,-7,-4,-8,-2,-2
1523209644653338,-2,-6,-55,-10,-10,-4,-3,-1
1523209644668616,1,6,41,16,6,-1,-1,-3
1523209644668616,0,5,15,14,2,1,0,2
1523209644670383,-1,-2,-14,-7,3,3,2,-1
1523209644670383,0,2,42,2,0,-1,0,-1
1523209644691442,-2,-5,-55,-10,-11,-7,-4,-3
1523209644691442,1,3,19,14,6,4,2,0
1523209644692446,-2,-5,-3,-15,-5,-7,-4,-1
1523209644692446,-1,-3,12,6,-13,-7,-2,-2
1523209644704474,-1,2,13,5,1,5,2,1
1523209644704474,-1,-1,-23,-12,5,-1,-2,0
1523209644713498,0,1,14,13,4,-6,-3,0
1523209644713498,0,-2,-23,6,-1,4,5,0
1523209644728542,1,0,-33,-15,16,8,2,1
1523209644728542,-4,-3,-2,-6,-12,-9,-5,-4
1523209644730543,-1,2,8,0,-8,-2,-2,-1
1523209644730543,0,0,18,5,-6,-4,-4,-1
1523209644750637,1,6,36,12,6,-1,0,0
1523209644750637,-3,-11,-56,-18,-9,-3,-3,-2
1523209644752602,-2,-6,-35,-10,-11,-8,-4,-4
1523209644752602,0,4,34,5,1,1,2,1
1523209644764869,-1,-5,-7,6,4,4,1,-1
1523209644764869,3,8,39,7,11,6,2,0
1523209644773656,-3,-6,-82,-17,-1,-1,-2,-3
1523209644773656,-3,-4,44,-9,-12,-7,-6,-3
1523209644788933,-3,-2,-32,-15,-8,-3,-1,-1
1523209644788933,0,3,26,6,-11,-6,-2,-1
1523209644789700,0,0,-8,3,12,6,1,0
1523209644789700,0,2,-16,-5,2,-1,-1,-2
1523209644810756,-2,-2,-7,2,-13,-5,-4,-2
1523209644810756,-1,-3,13,-3,3,9,1,-1
1523209644812761,1,3,19,10,9,-2,4,1
1523209644812761,-1,-4,3,-7,2,3,-1,0
1523209644824799,-1,3,20,20,2,-8,-4,-2
1523209644824799,-3,-7,-76,-29,-13,-5,-3,-2
1523209644833818,0,0,20,3,6,4,-1,0
1523209644833818,0,1,13,5,-8,-5,-4,-4
1523209644848857,-1,-6,20,-3,-7,-3,0,1
1523209644848857,1,3,17,10,10,4,0,1
1523209644849861,-2,-3,12,-7,7,5,1,0
1523209644849861,-1,2,21,18,1,2,0,-1
1523209644871155,-1,-5,-70,-17,-9,-4,-4,-3
1523209644871155,-1,3,19,3,-4,-6,-1,-2
1523209644872921,-1,-6,-8,-4,-9,-5,-5,-2
1523209644872921,0,1,-13,4,8,4,1,0
1523209644884954,0,0,14,7,7,3,2,0
1523209644884954,-1,-1,-8,-6,-2,-7,-3,-2
1523209644893978,0,-1,-34,-10,-10,-4,-1,-1
1523209644893978,1,3,-20,-3,9,4,1,1
1523209644909022,-1,-6,-3,-3,-5,-3,-1,0
1523209644909022,0,1,30,-3,-1,-2,-1,-1
1523209644910027,-2,5,8,4,-9,-5,-1,0
1523209644910027,-1,-8,-21,-6,-1,-2,-2,0
1523209644931081,7,8,8,4,2,-4,-4,-2
1523209644931081,-2,3,-3,-4,-7,2,0,-2
1523209644933081,-6,-13,-16,11,17,12,2,0
1523209644933081,0,-4,-32,-11,2,-2,-2,-2
1523209644945113,-2,-4,10,5,-2,-5,-1,-1
1523209644945113,0,1,5,0,-7,-5,-5,0
1523209644953134,-2,2,-9,-16,-6,-4,-2,-3
1523209644953134,0,-2,-12,-2,-9,-2,-1,-1
1523209644969175,-1,-2,-11,-5,-6,-6,-5,-2
1523209644969175,-4,-2,11,16,4,2,4,0
1523209644970179,3,6,57,15,20,13,5,3
1523209644970179,-7,-11,-56,-26,-3,-4,-2,-5
1523209644991242,-3,1,43,-7,-10,-5,-3,-3
1523209644991242,1,-5,-42,-9,-11,-11,-6,-3
1523209644992244,0,1,50,24,-4,-1,-1,0
1523209644992244,0,5,-59,-15,9,5,6,2
1523209645004271,-2,-2,13,3,8,7,1,0
1523209645004271,-2,0,11,2,6,3,-2,-2
1523209645013504,0,-2,-14,-5,-12,-8,-3,-2
1523209645013504,-2,0,31,10,-10,-6,-4,-2
1523209645028335,-2,-2,-18,-13,-4,1,-2,-2
1523209645028335,1,-1,-7,0,3,4,-1,0
1523209645030339,1,-1,2,2,2,-6,0,-2
1523209645030339,-2,-2,19,6,-10,-1,-2,0
1523209645051398,-1,-5,-36,-6,8,3,1,1
1523209645051398,0,-1,19,0,6,2,-1,0
1523209645052399,0,-1,-15,-8,-12,-6,-3,-3
1523209645052399,1,3,39,6,-5,-1,2,-1
1523209645073689,-2,-4,-36,7,10,5,2,-1
1523209645073689,3,5,28,5,14,8,3,0
1523209645075466,-6,-8,-57,-27,-11,-5,-4,-3
1523209645075466,-1,-2,18,5,-6,-7,-3,-1
1523209645088729,0,2,13,-2,-17,-4,0,-2
1523209645088729,-2,-3,-14,-2,16,7,1,1
1523209645090501,2,6,27,11,14,6,2,0
1523209645090501,-1,-1,33,14,-3,-1,-2,-1
1523209645110559,0,0,-21,-29,-13,-10,-3,-3
1523209645110559,-1,-3,-17,-7,-12,-7,-1,-2
1523209645112558,-1,0,24,8,5,3,2,0
1523209645112558,-2,-3,-36,0,1,-1,-2,-2
1523209645133616,-1,-1,17,14,-1,5,0,0
1523209645133616,-3,-4,-16,-18,-14,-15,-5,-2
1523209645135618,2,3,-4,9,1,5,2,2
1523209645135618,1,1,24,4,21,10,1,0
1523209645148655,-2,3,4,2,-5,-4,-3,-2
1523209645148655,-3,-4,-14,3,-8,-2,-4,-3
1523209645149658,-2,-1,-5,-21,-17,-11,-6,-4
1523209645149658,-2,-8,-29,-13,-3,-6,-3,-2
1523209645171714,-1,0,40,15,4,7,2,1
1523209645171714,1,3,24,15,27,11,7,0
1523209645172718,0,-1,-9,0,-7,-1,1,1
1523209645172718,-1,-1,-32,-8,-6,-3,-3,-1
1523209645193774,-2,-3,-10,6,-3,-4,-2,-3
1523209645193774,0,-1,12,1,-4,-1,0,-3
1523209645194776,0,-1,9,-7,0,-1,-1,0
1523209645194776,-2,-6,-32,-12,-7,-7,-3,-2
1523209645207811,-2,-5,-14,-12,-6,-9,-3,-4
1523209645207811,1,1,16,16,-2,5,4,2
1523209645215065,-1,-3,-44,-9,21,9,1,-2
1523209645215065,1,5,50,8,-6,-2,-1,0
1523209645230874,-2,0,1,-1,3,-2,-2,0
1523209645230874,-4,-5,2,-10,-13,-8,-5,-2
1523209645232878,-1,-2,-38,-12,-5,-4,-2,-1
1523209645232878,-2,4,53,9,4,0,1,-1
1523209645253933,2,-1,-15,-5,-2,-5,-1,1
1523209645253933,0,4,-20,6,-5,4,-1,0
1523209645254975,-2,-2,21,11,16,5,1,1
1523209645254975,-1,-2,5,2,7,7,0,-2
1523209645268206,-3,-5,-36,-21,-11,-6,-3,-2
1523209645268206,-3,-4,-37,-12,-10,-5,-3,-1
1523209645274992,1,0,6,8,3,1,-1,-1
1523209645274992,-1,-2,-2,0,-3,2,3,0
1523209645291036,0,0,-10,0,-1,-3,-2,-3
1523209645291036,-1,2,-24,-13,-11,-8,-3,-2
1523209645293037,-3,0,23,-1,-8,-1,-1,1
1523209645293037,1,1,-6,1,18,6,1,1
1523209645314092,0,0,14,11,4,3,1,1
1523209645314092,-3,-5,7,-18,-1,-5,-3,-3
1523209645315097,-2,2,28,6,-13,-4,-4,-2
1523209645315097,-1,-1,-46,-22,-15,-12,-1,-1
1523209645328130,0,1,28,17,25,12,3,0
1523209645328130,-1,0,20,6,6,3,2,-2
1523209645334147,-1,-5,-9,0,-8,-5,-3,-1
1523209645334147,-1,-4,-15,-6,-15,-5,-3,-3
1523209645351427,-1,3,8,-8,-8,-4,-3,-2
1523209645351427,-1,0,-4,4,-2,-4,0,-1
1523209645353278,0,-1,3,7,10,7,2,0
1523209645353278,0,-2,-14,-5,-9,-1,-1,1
1523209645373485,1,-4,-26,-1,0,-2,-2,1
1523209645373485,-1,6,34,-4,2,1,0,-1
1523209645375258,-2,-8,-16,1,-9,-6,-3,-1
1523209645375258,-2,0,17,5,4,-2,-2,0
1523209645388477,-1,1,17,5,-4,0,0,0
1523209645388477,-1,-5,-25,-7,-4,-7,-3,-1
1523209645394313,1,2,4,5,-2,-4,1,-1
1523209645394313,-3,0,7,-2,-3,2,1,0
1523209645411353,-1,-4,-14,-1,6,3,-1,1
1523209645411353,2,-1,11,6,11,12,0,1
1523209645412354,0,3,-2,2,2,-8,0,0
1523209645412354,-2,-4,-9,1,-4,-1,-2,-3
1523209645433411,-2,1,19,-7,-12,-8,-4,-3
1523209645433411,-1,-4,12,5,-9,-7,-2,-2
1523209645435417,-2,-3,2,-9,-5,0,0,-1
1523209645435417,4,5,24,4,21,12,5,2
1523209645447448,-1,-1,-3,-8,0,2,1,1
1523209645447448,-3,-8,-61,5,2,-3,-1,-2
1523209645454506,-3,-4,-11,-5,-13,-8,-4,-3
1523209645454506,-2,-1,19,2,-14,-9,-5,-1
1523209645471650,0,3,-4,5,14,10,4,1
1523209645471650,0,1,11,2,14,3,0,1
1523209645472514,-1,0,13,1,-6,-2,-2,-3
1523209645472514,-1,-3,-34,-5,-4,-2,-4,-1
1523209645493572,-3,-3,-2,-2,-13,-7,-2,-3
1523209645493572,-3,-2,14,-1,-7,2,1,-1
1523209645495575,3,3,-9,-1,20,10,3,0
1523209645495575,0,-1,-1,1,1,-3,-4,0
1523209645507612,-1,-4,-1,1,-9,-8,-4,0
1523209645507612,-2,-1,11,-2,-2,-3,-1,-2
1523209645514861,0,0,-17,-11,3,3,1,1
1523209645514861,-1,2,63,3,0,0,0,-3
1523209645530670,-2,-2,1,4,1,-2,1,2
1523209645530670,1,-2,-1,-2,-8,-7,-4,-1
1523209645532674,-1,1,-3,-14,-12,-4,-4,-2
1523209645532674,-1,-3,-9,3,2,-3,-2,-2
1523209645553771,0,3,14,3,8,9,1,-1
1523209645553771,-1,-5,12,5,1,-6,4,1
1523209645554951,-3,-2,-10,4,-4,1,-1,-1
1523209645554951,-2,-2,-22,-20,4,0,0,-1
1523209645567810,-1,-2,-8,2,0,-1,-1,-1
1523209645567810,-1,1,9,-5,-8,-6,-5,-2
1523209645575789,-2,-5,-27,7,-4,-7,-1,-1
1523209645575789,-1,-1,-8,6,1,1,2,-1
1523209645590831,0,0,3,-2,-1,1,0,1
1523209645590831,0,2,28,0,11,9,2,2
1523209645592834,-2,-4,-18,-6,-4,-5,-2,-2
1523209645592834,-2,0,6,9,-2,-1,-2,-1
1523209645613891,-3,-1,-14,-7,3,-1,-1,-1
1523209645613891,-2,-4,-3,-3,-14,-9,-2,-4
1523209645614892,-1,5,32,2,-1,-3,-3,0
1523209645614892,0,-2,-53,-23,0,1,2,1
1523209645626932,-1,-6,9,3,-3,-3,-2,-1
1523209645626932,-2,-3,-20,-4,-6,-5,-3,-2
1523209645635950,-1,-3,25,10,-12,-1,-1,-1
1523209645635950,2,5,24,11,29,16,3,1
1523209645651225,1,0,3,-4,8,-6,0,-2
1523209645651225,0,-3,-10,2,1,3,0,0
1523209645652994,-2,-5,-23,-12,-15,-4,-2,-1
1523209645652994,-3,-3,7,2,-7,-6,-1,-1
1523209645674053,-2,-3,-34,-13,-14,-1,-3,-3
1523209645674053,3,8,39,19,14,6,1,1
1523209645675060,-1,-4,-13,-4,8,3,2,0
1523209645675060,-3,-4,7,-7,-14,-7,-3,-3
1523209645687322,-1,-1,14,2,-2,-3,-2,-1
1523209645687322,-2,1,-16,-15,-6,-3,-2,-3
1523209645696109,0,1,27,3,4,-4,-3,-1
1523209645696109,0,0,-11,-1,-14,-6,-2,-4
1523209645711150,1,0,35,15,24,15,7,2
1523209645711150,1,-1,16,27,15,11,0,2
1523209645712151,-1,-4,-38,-33,-7,-3,-4,-2
1523209645712151,-2,0,6,-5,-12,-8,-4,-1
1523209645733208,0,1,25,10,-10,-5,1,-1
1523209645733208,-1,-3,-68,-17,-2,2,-1,0
1523209645735212,-2,-2,4,12,0,-1,-1,0
1523209645735212,0,1,7,2,10,1,0,-1
1523209645747480,-2,0,-39,-17,-8,-2,-2,-3
1523209645747480,-1,1,-7,8,3,0,-2,1
1523209645756268,-2,-4,9,3,-1,-4,-4,-2
1523209645756268,-2,-3,-37,-18,-18,-8,-2,-1
1523209645771543,2,1,23,18,13,6,1,1
1523209645771543,-2,-3,11,-26,0,-6,-3,-3
1523209645772310,-2,-2,-16,-2,-11,-6,-1,-2
1523209645772310,-2,0,35,11,2,-2,-2,-1
1523209645793412,-1,-2,-16,-3,-3,-8,-3,-3
1523209645793412,-1,1,3,8,0,6,2,0
1523209645795373,2,6,29,22,28,14,7,3
1523209645795373,-2,-3,-39,-18,-6,-5,-4,-3
1523209645807412,-4,-4,1,-13,-21,-9,-5,-2
1523209645807412,0,-6,-29,-13,-5,-10,-5,-3
1523209645816428,2,1,22,8,1,2,-3,-1
1523209645816428,0,-1,14,11,8,-1,0,0
1523209645830506,-2,-2,-37,-5,-7,-3,1,0
1523209645830506,0,-4,5,1,4,2,1,0
1523209645832471,-3,-6,-18,-13,-4,-2,-2,-2
1523209645832471,1,-4,9,5,0,4,1,0
1523209645853526,-2,2,44,-7,-5,-2,-4,0
1523209645853526,-1,-1,-21,9,-8,-7,-2,-1
1523209645855532,-1,3,-1,-12,-4,-4,-1,0
1523209645855532,-4,-6,-38,-12,-9,-3,-2,-3
1523209645867799,0,1,5,9,25,16,6,3
1523209645867799,-2,1,11,3,1,4,0,0
1523209645876590,-1,0,40,2,-10,-8,-3,-2
1523209645876590,-2,3,-1,-4,-11,-10,-4,-4
1523209645890633,2,1,-9,5,-4,-2,-2,1
1523209645890633,0,-1,43,17,13,5,0,-1
1523209645892631,-1,-6,-35,1,1,-1,-1,0
1523209645892631,-1,3,18,-13,-7,-3,-2,-2
1523209645913686,-1,-1,1,-1,0,1,-2,-2
1523209645913686,0,3,21,5,-5,1,1,-1
1523209645914689,0,-2,8,8,2,-8,-2,0
1523209645914689,2,2,8,13,9,10,1,0
1523209645926731,-2,-2,-1,-1,6,0,-1,-2
1523209645926731,-2,-2,-10,-16,-15,-5,-2,-4
1523209645935746,-3,-5,-7,-3,-3,-3,-1,-1
1523209645935746,0,0,18,4,3,5,4,3
1523209645951020,0,-3,-42,-3,7,5,-1,-2
1523209645951020,0,-1,-16,-5,0,-6,-2,-1
1523209645952791,-2,3,12,-13,-19,-5,-2,-2
1523209645952791,-1,-2,-34,-3,12,0,0,1
1523209645973853,-1,2,7,6,2,0,1,0
1523209645973853,-3,-7,14,-1,-4,-5,-2,0
1523209645975863,0,3,-7,-9,3,2,0,-1
1523209645975863,2,2,23,14,0,1,1,-1
1523209645995904,-3,-9,-17,-10,-14,-9,-6,-4
1523209645995904,-2,1,-17,-10,-14,-7,-2,0
1523209645997910,1,3,-2,12,17,5,3,2
1523209645997910,0,-1,-5,1,7,2,0,0
1523209646010945,-3,-2,-19,-8,-12,-9,-5,-1
1523209646010945,-2,1,-3,-11,-18,-6,-1,-4
1523209646013177,1,3,20,23,2,8,2,0
1523209646013177,-2,-6,-30,-15,22,6,3,0
1523209646033003,-2,-1,-5,-15,-9,-2,-2,-2
1523209646033003,1,-1,-12,-7,-3,-3,-1,-2
1523209646035010,2,7,22,13,-6,-4,-1,0
1523209646035010,-2,-5,-21,-13,-7,-1,-2,-1
1523209646056318,-2,-3,0,2,-4,-7,-1,-3
1523209646056318,-1,1,19,4,-2,0,0,0
1523209646058074,-1,-7,-21,-4,7,3,1,0
1523209646058074,2,3,36,18,2,3,0,-1
1523209646070338,-1,-2,-26,-8,-5,-5,0,-1
1523209646070338,0,-2,-20,1,-5,-3,-1,-2
1523209646077120,1,3,15,7,5,-3,-3,-1
1523209646077120,0,-4,-33,-16,-13,-6,-2,-1
1523209646093167,-4,-3,12,4,-1,-3,-1,-2
1523209646093167,0,2,8,9,11,17,5,3
1523209646095169,-2,-3,0,4,10,-2,0,0
1523209646095169,0,4,-20,-4,-6,-3,-3,0
1523209646116225,-1,-3,2,2,-6,-7,-7,-2
