timestamp,emg1,emg2,emg3,emg4,emg5,emg6,emg7,emg8
1523054126415345,-3,-8,-17,2,2,0,3,1
1523054126415345,1,2,4,1,0,-1,3,1
1523054126416369,2,0,-2,-2,-3,-2,4,0
1523054126416369,0,-2,-5,-2,-2,0,3,1
1523054126416850,1,6,4,1,1,1,-2,-1
1523054126416850,-4,-9,7,-1,-1,-1,-1,-8
1523054126417906,-1,-5,-11,-4,-1,0,8,2
1523054126417906,-1,1,-4,0,-1,-1,-6,14
1523054126428433,0,0,3,-1,-1,0,4,5
1523054126428433,1,1,3,-3,-4,2,6,-7
1523054126437918,1,2,0,7,5,3,0,-1
1523054126437918,-9,-9,11,-14,-14,-14,-25,-16
1523054126443419,0,-3,-7,-1,1,6,24,2
1523054126443419,1,1,-3,-2,2,-1,-5,-23
1523054126458962,1,0,2,1,-3,-2,-4,26
1523054126458962,2,3,-2,3,4,3,20,-4
1523054126468488,-1,-2,2,-2,-4,-2,-5,2
1523054126468488,-2,-3,-5,-3,-2,-3,-26,-12
1523054126482076,-3,-8,-13,-2,0,0,8,-8
1523054126482076,2,0,15,0,-1,0,3,1
1523054126490044,-1,-2,-8,-4,-2,-4,-3,-4
1523054126490044,1,6,-2,0,0,0,10,10
1523054126503148,-2,-4,5,-2,-2,-2,-3,0
1523054126503148,0,1,-3,2,3,4,1,2
1523054126544189,2,-2,19,-1,-2,-1,5,25
1523054126544189,-2,-4,-38,-3,-1,0,11,-13
1523054126545190,-1,0,24,2,1,5,8,11
1523054126545190,-1,-1,7,-1,-5,-4,-2,3
1523054126545693,-2,-2,9,-4,-3,-1,9,-12
1523054126545693,0,1,2,2,0,-2,-21,-18
1523054126548252,-5,-7,-9,-9,-4,-5,7,-10
1523054126548252,0,1,-22,3,2,2,7,24
1523054126557222,-3,-3,-17,-6,-8,-5,-2,3
1523054126557222,0,1,16,4,2,1,-3,14
1523054126563295,0,-1,-8,-1,-1,0,9,-8
1523054126563295,-2,1,13,-2,-2,-1,-12,-7
1523054126570760,-1,-2,-9,-1,0,-4,-15,-12
1523054126570760,-1,6,-3,-1,2,1,-1,-3
1523054126585800,1,-4,12,3,1,1,-1,10
1523054126585800,-1,-7,-4,-5,-4,-1,18,-2
1523054126593349,0,3,-2,1,-1,-2,-15,-7
1523054126593349,0,-6,1,-2,-2,-1,-1,3
1523054126616882,-2,8,-7,-1,0,2,-1,5
1523054126616882,0,5,35,1,0,0,-8,-10
1523054126617885,0,-5,-40,-1,1,-1,1,-2
1523054126617885,-2,-1,0,2,1,-1,-3,11
1523054126631419,0,0,-2,-2,-2,-2,1,-7
1523054126631419,1,-4,-9,-4,-1,6,12,-2
1523054126631921,-2,4,8,1,4,1,-1,3
1523054126631921,-3,-8,6,-1,-3,-2,6,0
1523054126653980,-2,-1,-5,-1,-5,-3,-13,-4
1523054126653980,-2,-1,-8,-3,-2,-5,-8,-4
1523054126654482,2,0,2,4,3,1,1,2
1523054126654482,-1,3,1,-4,-3,-1,5,-2
1523054126677041,0,-1,-1,1,0,-2,-6,-2
1523054126677041,0,4,-7,-1,0,-2,-2,3
1523054126678044,-1,-4,4,-2,-5,-2,-4,-3
1523054126678044,0,6,7,3,3,5,1,-1
1523054126691134,-2,-4,-10,0,-2,0,-3,1
1523054126691134,0,3,-9,1,0,1,3,-3
1523054126692134,1,3,18,0,0,0,1,-3
1523054126692134,-1,-3,-19,-3,-1,-5,-5,-1
1523054126722163,-1,-3,0,-4,-1,1,20,1
1523054126722163,-4,-13,-8,-2,0,-3,-2,-5
1523054126722664,0,10,-23,3,3,0,-12,-2
1523054126722664,-9,-19,-5,-12,-15,-7,-8,-4
1523054126737202,0,5,1,6,6,-1,-5,13
1523054126737202,0,-3,12,-4,-4,-6,-9,11
1523054126737705,2,3,5,8,2,4,10,-4
1523054126737705,0,-1,-27,-10,-4,4,2,1
1523054126751240,-1,-2,-17,4,-2,-2,-12,-13
1523054126751240,4,14,74,16,11,7,-6,-47
1523054126752241,-17,-28,-73,-27,-14,-7,11,23
1523054126752241,3,6,24,0,-4,-4,-14,13
1523054126773798,3,-1,-30,-1,1,-4,-14,-4
1523054126773798,-4,-3,17,-10,-3,-3,-14,-10
1523054126774801,3,4,24,8,3,3,21,-32
1523054126774801,-2,1,3,3,3,2,11,19
1523054126796914,0,2,32,7,-1,-2,-10,-64
1523054126796914,1,3,25,-2,0,-2,-11,119
1523054126797917,-12,-26,-62,-35,-16,-11,-13,-12
1523054126797917,3,2,-5,1,0,-2,21,-2
1523054126811400,-1,7,24,7,6,3,-4,-4
1523054126811400,-1,1,-10,10,2,-2,-34,-67
1523054126811901,-1,-1,2,-4,-2,-2,-6,26
1523054126811901,-1,-2,28,0,-2,-1,3,-15
1523054126834460,-2,-3,9,-8,-6,-5,-13,29
1523054126834460,-2,-8,-9,-1,-1,-1,19,-14
1523054126834460,9,20,-27,15,12,3,-7,7
1523054126834460,-7,-12,-44,-8,-7,-3,0,-37
1523054126857253,0,-2,10,-2,-2,1,22,60
1523054126857253,1,-1,-81,-8,-1,-2,-2,6
1523054126858222,-1,3,84,1,-1,3,13,-1
1523054126858222,-2,-4,-94,-12,0,-2,-12,-42
1523054126871559,-6,-14,-21,-11,-8,-1,57,-72
1523054126871559,1,5,-8,8,2,-2,-17,121
1523054126872632,-2,0,90,9,1,-5,-27,-33
1523054126872632,0,2,-55,-7,4,2,-10,-7
1523054126893886,-6,-12,8,-1,-5,-7,-32,-23
1523054126893886,-1,-1,-14,-3,-1,1,43,-60
1523054126894621,4,5,23,14,7,5,24,38
1523054126894621,-9,-9,-13,-19,-13,-12,-28,14
1523054126917181,2,-2,-13,3,2,5,-3,20
1523054126917181,-4,-11,18,-7,-4,-2,5,-12
1523054126917757,1,-2,27,12,3,0,-1,22
1523054126917757,3,3,-15,-3,2,3,18,-17
1523054126930796,0,1,-10,-6,-3,-2,2,-1
1523054126930796,-3,-6,-33,-2,-2,-7,-16,42
1523054126938816,-2,-6,15,0,-3,4,10,-25
1523054126938816,3,8,68,11,8,3,0,21
1523054126953890,-2,5,13,1,-1,2,12,-70
1523054126953890,-1,0,4,2,-3,-1,-3,-8
1523054126954876,0,-1,-19,-4,1,4,13,10
1523054126954876,0,5,42,13,3,2,30,60
1523054126978422,0,-2,4,-4,-2,-9,-77,15
1523054126978422,7,10,-13,-2,-1,1,4,-58
1523054126979424,-8,-11,-27,-13,-11,-9,-12,28
1523054126979424,4,1,19,6,-1,0,10,17
1523054126990453,3,8,1,0,0,-2,18,43
1523054126990453,4,0,-12,6,3,3,7,9
1523054126998763,-7,-6,-34,-16,-8,-8,-26,-72
1523054126998763,-4,-3,7,3,2,1,-8,-22
1523054127014268,6,7,11,1,2,1,1,52
1523054127014268,-3,-2,42,7,0,-1,-18,-46
1523054127014773,-7,-10,-56,-17,-7,-1,3,-12
1523054127014773,-1,-2,48,7,1,2,22,15
1523054127036855,0,0,-53,-6,0,-2,-17,-1
1523054127036855,-6,1,14,0,1,2,1,-11
1523054127038485,-1,-3,12,14,10,2,-4,7
1523054127038485,4,2,4,-12,-9,0,0,11
1523054127051366,35,10,13,-3,-1,3,42,-2
1523054127051366,-48,-2,-44,-8,-4,1,-23,-26
1523054127058923,16,16,23,5,2,-10,-26,-3
1523054127058923,-4,-6,-5,3,2,-2,17,60
1523054127074069,6,-1,4,-6,1,6,-6,29
1523054127074069,15,-5,5,-1,-5,-17,-20,-8
1523054127074605,-1,0,-2,-6,-2,24,76,0
1523054127074605,6,18,4,4,0,-4,-38,-17
1523054127097164,1,9,10,8,1,0,46,53
1523054127097164,-8,18,-9,-3,-2,1,-15,-43
1523054127097633,-25,-54,-10,-2,-1,-16,-42,-45
1523054127097633,2,-25,-8,-6,-2,-1,10,-8
1523054127110706,12,50,10,-4,-1,-4,-9,-10
1523054127110706,18,-27,7,6,2,3,3,10
1523054127118688,-7,44,-4,1,-4,-19,-20,24
1523054127118688,-15,-7,5,0,2,23,38,-24
1523054127133727,-26,-24,-20,-2,-3,-11,-48,-49
1523054127133727,18,12,-2,-8,-7,-1,24,80
1523054127134732,6,11,3,2,1,-2,-44,-48
1523054127134732,7,16,8,7,6,5,37,-5
1523054127156789,-10,-9,-7,2,0,8,14,-18
1523054127156789,3,-6,-2,-5,-1,-2,19,3
1523054127157793,2,-5,2,2,1,10,30,32
1523054127157793,2,8,1,1,-3,-6,-14,-14
1523054127179350,-6,-16,1,-3,-3,0,-12,-8
1523054127179350,-12,-12,-2,-4,0,-8,22,0
1523054127180353,5,3,9,3,2,13,-18,10
1523054127180353,0,-1,-8,-1,-2,-8,-28,-19
1523054127193944,-15,-15,-4,-4,-3,-6,-20,-44
1523054127193944,1,-4,-11,-11,-7,-2,0,53
1523054127194894,6,10,18,3,0,-7,-2,9
1523054127194894,0,0,-14,3,4,-4,-21,-9
1523054127216950,-7,-2,7,0,-1,-4,3,1
1523054127216950,-2,4,-15,0,0,9,-3,-27
1523054127217953,6,-11,0,-2,0,4,41,23
1523054127217953,-4,-6,-14,2,-4,-5,-22,-10
1523054127230486,-2,-8,5,-3,1,-6,-18,2
1523054127230486,-2,8,8,-1,-3,-7,-7,-17
1523054127239009,-4,6,2,0,0,1,-42,-81
1523054127239009,-1,-17,-5,1,0,-2,23,95
1523054127254047,1,-2,-2,-2,-1,-2,8,-1
1523054127254047,1,6,24,3,2,4,2,-14
1523054127254550,-3,-5,-35,5,3,-2,-6,-12
1523054127254550,-6,-5,-6,-11,-8,-9,-30,-41
1523054127277118,1,-5,17,-1,-4,6,8,28
1523054127277118,-9,1,11,4,4,2,15,7
1523054127277613,-5,-8,-48,-23,-9,-15,-3,11
1523054127277613,1,1,23,3,3,1,-22,25
1523054127290646,-1,-6,-29,-5,1,0,13,10
1523054127290646,11,12,35,9,1,-1,-5,-29
1523054127298667,-13,-4,-14,-2,1,16,49,17
1523054127298667,-1,1,-21,-1,-4,-3,-19,-54
1523054127313707,-1,11,68,7,2,3,6,-62
1523054127313707,-10,-32,-52,-20,-9,-10,-33,104
1523054127314710,12,11,20,8,3,-1,13,25
1523054127314710,11,29,100,13,12,8,-22,-37
1523054127337270,-31,-57,-43,-42,-25,-15,-18,-22
1523054127337270,4,8,18,6,6,6,26,-26
1523054127337774,5,5,92,6,0,7,53,37
1523054127337774,0,6,14,18,2,-3,-32,33
1523054127359328,-3,-1,-41,-10,-3,0,13,-60
1523054127359328,4,4,78,2,-7,-7,2,17
1523054127360331,-11,-28,-128,-36,-10,-4,-17,35
1523054127360331,1,13,121,17,3,1,17,-6
1523054127373867,3,13,-9,12,8,7,84,-7
1523054127373867,-10,-16,-80,-17,-9,-17,-99,13
1523054127374870,39,62,127,68,28,5,45,2
1523054127374870,-34,-75,-126,-97,-37,-5,32,-74
1523054127398432,3,7,24,14,2,-6,42,67
1523054127398432,3,33,71,36,20,7,-45,-110
1523054127399434,-24,-51,-56,-34,-29,-28,-40,121
1523054127399434,16,20,32,10,7,6,-19,17
1523054127419488,3,2,25,0,-2,2,-14,-75
1523054127419488,-5,3,14,5,5,6,32,11
1523054127420491,10,15,35,12,7,-7,-102,27
1523054127420491,-9,-21,-108,-15,-8,-10,16,-41
1523054127434027,19,35,94,45,22,18,18,50
1523054127434027,-29,-59,-87,-69,-34,-25,5,-84
1523054127434528,-11,-9,34,-10,-4,9,43,-32
1523054127434528,1,6,15,9,0,-11,-42,48
1523054127457088,3,12,27,13,6,-1,-21,-38
1523054127457088,5,5,-15,4,5,3,12,33
1523054127457591,-1,-4,-31,-4,2,24,68,-18
1523054127457591,-4,-5,-35,-19,-11,-15,-31,-45
1523054127479648,-1,-6,-27,0,3,8,19,79
1523054127479648,3,1,21,4,0,4,-27,-2
1523054127480150,2,9,38,-2,-1,-5,-26,-31
1523054127480150,6,16,127,32,10,-2,17,6
1523054127493686,-10,-13,-74,-20,-8,-5,-48,-85
1523054127493686,-3,-4,-16,-2,-4,1,23,29
1523054127494689,13,20,12,27,12,10,38,63
1523054127494689,-4,-6,-55,-14,-1,4,25,-11
1523054127515784,-2,-3,13,-9,-9,-12,-22,7
1523054127515784,8,8,23,15,7,10,36,-30
1523054127524770,-6,-5,-27,-9,-6,-10,-52,-70
1523054127524770,1,6,16,9,5,-2,8,4
1523054127539307,-5,-14,-25,-8,-1,5,16,58
1523054127539307,10,15,-7,8,4,0,10,-2
1523054127541314,-8,-12,0,-14,-7,1,-17,-24
1523054127541314,-4,-8,-40,3,-2,2,31,19
1523054127561868,20,12,51,9,3,1,-3,-3
1523054127561868,-28,-1,28,-1,1,7,33,38
1523054127563872,6,-14,-46,-10,-4,-11,-20,24
1523054127563872,3,10,28,8,2,4,2,-12
1523054127575904,-15,-5,-27,-7,-2,-4,-21,-6
1523054127575904,36,3,-20,-2,-4,-6,-3,45
1523054127584929,-60,2,14,-4,-3,-8,19,46
1523054127584929,18,1,-10,-3,-2,-10,-36,-60
1523054127599523,-5,-9,10,11,6,12,-5,50
1523054127599523,-7,-10,-8,-16,-7,-10,-29,-79
1523054127600972,45,26,14,6,2,3,-27,7
1523054127600972,-23,-8,-1,1,-1,-9,-5,45
1523054127622061,-40,-46,-17,-9,-5,-2,8,-14
1523054127622061,24,23,14,5,0,2,-11,-24
1523054127623533,5,-40,-10,-2,-1,0,10,-32
1523054127623533,-2,1,3,5,5,8,17,19
1523054127635564,2,30,-3,-9,-5,-9,-20,10
1523054127635564,-31,-50,-8,-3,-2,0,14,-8
1523054127644589,13,21,5,1,-2,-1,8,-12
1523054127644589,16,19,8,6,0,6,16,16
1523054127659627,5,11,1,-4,-5,-3,-6,5
1523054127659627,2,0,-2,0,-1,1,2,17
1523054127661133,30,0,1,0,-1,7,14,-33
1523054127661133,-46,-7,9,2,2,4,22,-50
1523054127682187,-1,7,0,4,4,-6,-70,88
1523054127682187,-2,-11,-10,-5,-3,6,29,11
1523054127683727,6,-3,0,-2,-3,-3,-6,-46
1523054127683727,4,6,-6,-2,-3,2,4,6
1523054127695777,2,-14,1,-5,-5,-8,1,-4
1523054127695777,1,6,-2,1,0,-2,-8,8
1523054127704747,-19,-6,-8,1,2,-1,-1,46
1523054127704747,12,1,-5,-4,0,0,11,-12
1523054127718785,-1,0,13,-2,-6,-17,-50,-23
1523054127718785,7,10,-9,4,4,16,61,-9
1523054127725805,-12,1,-24,-4,-1,6,1,-44
1523054127725805,2,-6,-5,-3,-4,-3,-5,29
1523054127743352,18,6,-2,5,7,5,11,-13
1523054127743352,-5,6,64,-2,-5,-10,-23,13
1523054127745355,-12,-5,-40,-7,-5,-1,-5,-13
1523054127745355,-1,-8,-6,-12,-8,-3,-8,-39
1523054127755900,3,10,-8,6,3,0,18,33
1523054127755900,-5,-5,14,-12,-5,-6,-20,-13
1523054127764907,3,21,48,11,6,10,54,35
1523054127764907,-5,-23,-17,-6,-9,-5,-4,-22
1523054127778945,0,3,11,0,-1,0,-11,12
1523054127778945,2,12,41,18,8,-5,-13,1
1523054127785964,-3,-13,-49,-28,-10,-5,-1,-25
1523054127785964,-3,-4,48,4,7,23,28,-40
1523054127802007,-2,-5,20,2,-3,-1,-4,29
1523054127802007,2,-3,-74,-5,-4,1,20,52
1523054127803511,-2,3,47,5,0,-7,-33,-35
1523054127803511,7,10,-13,10,5,-5,-9,38
1523054127824066,1,-1,4,-4,-3,3,5,-18
1523054127824066,-1,4,-42,-1,3,0,-20,-47
1523054127830637,-11,-10,68,-3,-7,-7,14,-43
1523054127830637,5,7,-7,13,5,-5,-46,110
1523054127839667,-1,-13,-69,-25,-10,-16,-1,-34
1523054127839667,3,15,28,23,11,8,2,-9
1523054127841111,-11,-14,-42,-13,-5,-8,-12,-45
1523054127841111,4,10,64,15,2,5,61,45
1523054127862227,-4,-5,0,-8,-1,0,-49,0
1523054127862227,-4,-10,-23,-18,-10,-1,-17,-25
1523054127863726,2,4,-7,16,6,3,11,18
1523054127863726,0,-1,15,-9,0,-7,-5,-42
1523054127884727,2,4,-26,7,-2,2,30,8
1523054127884727,0,3,73,7,4,4,15,73
1523054127886232,-9,-15,-45,-15,-6,-6,-13,-7
1523054127886232,9,19,71,17,6,7,3,38
1523054127899265,-6,-18,-49,-28,-12,-4,28,-40
1523054127899265,-2,-5,26,-7,-3,2,29,32
1523054127901270,0,10,49,17,5,-12,-104,12
1523054127901270,-5,-15,-87,-26,-6,3,28,-20
1523054127921825,0,9,27,8,2,-6,-15,-44
1523054127921825,1,2,38,6,3,5,21,14
1523054127923831,-3,-11,-47,-11,-7,-2,25,-12
1523054127923831,0,1,-65,2,-1,-6,-59,8
1523054127944384,5,9,113,18,11,3,10,-27
1523054127944384,-12,-23,20,-31,-20,-29,-16,-7
1523054127946390,2,7,50,11,5,4,-3,9
1523054127946390,-1,-4,-1,-9,-7,-5,-13,-3
1523054127959479,4,6,31,10,4,8,30,14
1523054127959479,1,4,-8,8,-2,-8,-30,-46
1523054127960929,5,14,82,13,12,18,56,33
1523054127960929,-16,-32,15,-32,-21,-18,-31,-42
1523054127981985,-1,2,11,4,2,-6,-24,16
1523054127981985,-3,-5,-54,-9,-1,2,-2,-10
1523054127983489,1,3,-7,5,-2,-1,12,-49
1523054127983489,5,8,-25,8,7,7,5,68
1523054128004546,-4,-5,0,-7,-5,0,17,-47
1523054128004546,-3,-2,-1,6,0,3,21,79
1523054128006050,8,15,43,11,4,1,11,14
1523054128006050,-16,-33,-80,-47,-20,-3,-7,-40
1523054128020588,-2,-2,-16,1,0,0,-10,-2
1523054128020588,4,8,4,10,6,3,7,-31
1523054128025601,-3,-4,1,3,-2,-2,2,8
1523054128025601,6,16,24,16,6,-3,-19,10
1523054128042675,3,-7,-42,-10,-3,9,43,13
1523054128042675,-6,-10,-33,-5,-4,3,9,-57
1523054128044184,3,8,45,9,8,1,-5,46
1523054128044184,-10,-14,-35,-19,-12,-13,-31,-70
1523054128064705,-2,5,-6,2,-2,-3,-6,-11
1523054128064705,2,5,4,8,5,2,-11,55
1523054128066209,-4,-11,-25,-10,-6,-5,-6,7
1523054128066209,8,17,43,20,11,5,19,-15
1523054128078742,0,1,3,-1,-4,-3,2,-3
1523054128078742,-9,-14,-6,-6,-5,-4,-4,-63
1523054128085763,-5,-8,-35,-1,1,-1,-6,45
1523054128085763,1,0,7,7,3,2,14,13
1523054128101805,-1,-2,-12,-8,-4,-6,-42,-10
1523054128101805,10,3,-3,1,-1,-3,-18,29
1523054128103809,-16,-1,-25,-8,-3,0,5,-23
1523054128103809,4,-4,21,5,1,-3,6,0
1523054128124397,-2,-4,9,1,-3,5,-1,33
1523054128124397,14,10,11,-5,-1,-3,7,-13
1523054128126375,0,4,-11,-8,-8,-20,-22,11
1523054128126375,6,6,12,14,8,8,23,25
1523054128138902,-36,5,-2,-5,3,7,59,70
1523054128138902,4,-9,-11,-3,-6,-5,-49,-20
1523054128145921,-11,-5,-26,-7,-2,-7,-22,-51
1523054128145921,4,6,3,-2,-4,-1,0,-76
1523054128162020,-5,-53,0,6,0,-7,17,73
1523054128162020,11,45,6,2,0,5,18,-35
1523054128163469,-32,-49,-11,1,3,12,-6,32
1523054128163469,-7,8,3,0,-5,4,34,-32
1523054128184524,29,48,4,0,3,-1,-9,-20
1523054128184524,-19,-22,-7,0,4,-7,-37,3
1523054128186028,28,13,-9,0,-3,7,48,-11
1523054128186028,-5,1,8,7,6,0,-13,44
1523054128199063,3,-15,-7,-5,-5,-5,-9,-29
1523054128199063,2,12,-2,-1,-2,1,5,17
1523054128205634,6,8,-9,-7,-4,7,12,-10
1523054128205634,-3,-7,8,-1,-3,-10,-22,9
1523054128222123,2,18,4,4,0,6,-5,-16
1523054128222123,-8,-18,-7,1,4,7,-7,-13
1523054128223629,-5,-11,-6,-2,-3,-4,-16,-4
1523054128223629,4,5,1,-3,-2,-5,-6,12
1523054128244704,-1,-6,2,2,-2,-3,-21,-22
1523054128244704,-7,-6,-3,-2,-1,0,18,16
1523054128246224,7,6,17,3,1,1,-1,-8
1523054128246224,-3,4,-25,-8,-3,-6,-23,8
1523054128258220,-1,-2,12,3,2,1,13,-10
1523054128258220,-4,-13,-17,-2,-2,5,24,5
1523054128267245,3,16,33,0,-3,-4,1,-16
1523054128267245,-1,0,9,-1,-2,-2,-22,-11
1523054128282283,1,-7,64,-2,-4,-8,-47,65
1523054128282283,-3,-14,-32,-14,-8,-5,5,-29
1523054128283788,2,6,-4,3,4,0,-30,-33
1523054128283788,3,9,38,8,4,7,49,14
1523054128304342,-6,-28,13,1,-2,0,1,-30
1523054128304342,-3,7,-49,-7,-1,-2,-16,-22
1523054128306348,0,-5,51,-8,-6,-5,19,39
1523054128306348,-13,-29,-34,-14,-5,-9,-89,-19
1523054128318380,2,19,7,5,5,2,24,-20
1523054128318380,8,7,71,11,4,11,6,16
1523054128327405,-8,-17,-39,-11,-5,1,35,0
1523054128327405,8,11,-1,4,1,2,23,21
1523054128341999,0,1,-34,-7,-4,6,15,8
1523054128341999,-6,-7,-2,1,-5,-11,-18,-55
1523054128343448,0,1,-21,-7,-3,1,-1,17
1523054128343448,3,3,52,12,3,2,32,57
1523054128364559,0,2,-54,-7,1,-7,-84,-53
1523054128364559,-7,-6,21,-4,-7,-13,-1,-54
1523054128366008,5,11,12,12,0,6,15,36
1523054128366008,3,-6,-79,-7,3,4,17,-6
1523054128378073,-13,-19,-61,-15,-9,-6,11,-46
1523054128378073,10,27,91,15,9,0,-11,49
1523054128387064,-11,-30,-16,-26,-15,-13,-23,-53
1523054128387064,8,19,103,35,10,10,44,74
1523054128402104,-10,-7,-13,-27,-14,-15,-68,-5
1523054128402104,-8,-12,-26,-5,-3,-1,-8,6
1523054128403607,4,15,20,13,6,-4,-4,0
1523054128403607,-2,-5,-26,-8,-3,-1,40,-35
1523054128424664,6,7,26,12,3,-5,-30,38
1523054128424664,-1,-2,-4,-4,-2,3,49,50
1523054128426168,4,0,20,-2,1,3,-11,-14
1523054128426168,-4,-4,-75,-5,-3,-2,-6,-25
1523054128438252,7,15,67,12,10,7,34,7
1523054128438252,-8,-11,-28,4,-9,-6,0,-77
1523054128447224,1,3,-13,8,4,-4,-15,77
1523054128447224,-1,4,100,9,3,-1,-10,-23
1523054128462264,-1,-4,-27,-3,1,5,24,-57
1523054128462264,4,-3,-1,-6,-2,4,23,32
1523054128463768,-2,-2,-4,-8,-6,-14,-52,-7
1523054128463768,-5,-1,12,2,0,6,-35,-40
1523054128484322,2,-5,-19,-1,0,4,38,27
1523054128484322,-1,-2,-17,-7,-2,-7,-6,-4
1523054128486327,1,-1,-28,1,3,10,28,5
1523054128486327,-3,-3,-2,-2,0,-8,-20,1
1523054128498378,-2,-2,-69,-8,-8,-1,7,17
1523054128498378,-5,-8,-14,-7,-3,0,6,26
1523054128507427,5,13,7,10,4,-1,3,-17
1523054128507427,1,-3,17,-3,0,1,5,-30
1523054128522023,-2,-1,22,4,-5,-3,10,-32
1523054128522023,5,12,53,13,5,3,-12,87
1523054128523472,-1,3,-9,2,4,1,-8,-17
1523054128523472,-9,-18,-59,-21,-12,-7,-6,-25
1523054128544529,1,2,38,3,0,1,7,1
1523054128544529,-1,5,-13,5,1,-5,4,-64
1523054128546034,1,-1,0,4,4,2,-13,37
1523054128546034,6,6,2,-5,0,0,24,24
1523054128567090,2,4,29,6,1,1,-39,-4
1523054128567090,-6,-14,-89,-19,-3,-2,-1,-15
1523054128568593,-1,6,8,-3,-1,-1,34,-76
1523054128568593,1,-1,-13,4,-1,2,-9,100
1523054128582183,1,-5,8,-6,-3,-6,16,-3
1523054128582183,4,11,30,10,7,0,-17,-14
1523054128583635,-4,-8,-30,-11,-7,-5,-7,-29
1523054128583635,-5,-4,-24,-6,-4,-10,-25,-85
1523054128604724,5,8,-13,7,2,6,14,107
1523054128604724,3,2,3,-4,-1,0,9,31
1523054128606194,-4,-19,-4,-1,-1,7,17,-4
1523054128606194,-6,-2,5,0,-2,-8,-50,-65
1523054128618224,10,26,2,-2,-2,-1,21,-21
1523054128618224,-5,-10,-3,-2,0,0,0,20
1523054128627248,2,14,-7,2,1,0,1,-21
1523054128627248,1,9,13,4,2,-1,12,17
1523054128641846,-18,-42,-15,-4,-2,-6,-10,-32
1523054128641846,-17,-57,-10,-7,-3,-2,-16,9
1523054128643849,-4,70,7,2,-1,1,-1,63
1523054128643849,58,26,7,-3,0,1,3,-20
1523054128664348,-15,24,15,-4,-2,2,10,-7
1523054128664348,-34,-70,-28,-13,-13,-13,-23,-27
1523054128666352,-57,42,-5,0,3,-3,-9,12
1523054128666352,19,29,0,-3,-5,-23,1,8
1523054128678384,49,50,18,7,6,29,2,13
1523054128678384,1,11,23,7,-35,10,21,3
1523054128687408,16,-42,-10,-1,42,-4,-15,-21
1523054128687408,-15,-3,-7,-5,5,15,-2,21
1523054128701448,-8,-30,2,3,3,-19,1,-15
1523054128701448,5,12,4,-1,-6,-6,-35,-4
1523054128707997,7,-13,3,-9,-22,8,6,-3
1523054128707997,-17,-8,-2,1,1,-3,39,12
1523054128724507,-8,-25,-8,0,2,-2,-8,-20
1523054128724507,9,23,3,1,9,2,-10,8
1523054128726012,10,-2,-2,-5,-12,-11,-10,-2
1523054128726012,-18,-23,16,3,7,6,-2,0
1523054128738044,-9,-7,-21,-4,-9,-5,-10,-14
1523054128738044,10,35,5,2,9,8,31,6
1523054128747068,3,-20,7,1,-1,-6,4,-9
1523054128747068,-8,-11,-8,-3,-12,-1,3,11
1523054128761605,-9,4,7,-1,-3,-11,-38,-3
1523054128761605,6,22,-35,3,11,5,1,-3
1523054128768123,7,-23,49,-3,-7,4,10,-16
1523054128768123,-25,-3,4,2,-3,2,-8,25
1523054128784667,6,5,-18,0,0,-3,5,-63
1523054128784667,-7,10,20,7,10,5,20,99
1523054128786174,0,-19,-92,-14,-14,-11,-54,-9
1523054128786174,2,4,9,4,4,6,5,-23
1523054128807390,-4,-5,14,-2,0,0,5,-60
1523054128807390,9,12,12,-1,0,-3,13,7
1523054128808731,2,2,-5,7,3,4,25,10
1523054128808731,-6,-10,-2,-2,-4,-6,-12,6
1523054128821265,-3,-4,-12,-2,-1,2,15,16
1523054128821265,8,0,-29,-2,2,0,-14,-35
1523054128828786,-1,4,41,-3,-4,-4,15,18
1523054128828786,-1,-9,-27,2,0,0,-3,-25
1523054128844724,-3,7,24,0,3,8,31,17
1523054128844724,-3,-16,-7,-9,-9,-6,-20,71
1523054128846333,6,-7,1,2,1,-2,2,-6
1523054128846333,-2,3,11,-1,-2,-3,9,-7
1523054128866888,2,5,-5,10,4,8,24,-3
1523054128866888,-4,6,79,-5,-4,-9,-39,-72
1523054128868891,-12,-27,-59,-37,-16,-11,-10,17
1523054128868891,2,1,21,13,-2,-2,15,12
1523054128881960,6,15,42,16,11,-1,-62,62
1523054128881960,-13,-29,23,-29,-20,-5,68,-69
1523054128883430,6,15,53,15,5,4,13,35
1523054128883430,-3,0,63,-2,-4,-7,-58,-23
1523054128904519,-3,-9,-72,-10,-2,3,38,-31
1523054128904519,6,17,33,18,11,-4,-34,59
1523054128905990,-1,-6,-14,-6,-4,0,2,-47
1523054128905990,3,9,42,4,2,9,35,22
1523054128927045,-1,1,43,9,2,-2,-6,-36
1523054128927045,-9,-15,-88,-23,-11,-6,9,52
1523054128928549,2,5,-40,15,7,1,-66,20
1523054128928549,2,2,29,-19,0,0,1,-20
1523054128941586,-12,-28,-50,-23,-15,-12,-29,1
1523054128941586,11,20,29,9,9,15,57,-43
1523054128948101,0,3,59,13,1,-3,-41,48
1523054128948101,2,3,-19,6,5,9,34,12
1523054128964704,-7,-7,-69,-13,-6,-8,-62,-16
1523054128964704,0,3,-16,7,5,8,13,-21
1523054128966150,-2,-4,-24,-5,-3,-5,18,8
1523054128966150,-2,-4,-39,-7,-5,-17,-30,-63
1523054128987396,3,8,112,16,4,2,17,61
1523054128987396,-12,-21,-84,-24,-9,-20,-65,-43
1523054128988714,-3,5,49,7,0,5,27,-29
1523054128988714,-1,-5,-7,-4,-2,-6,6,3
1523054129001243,2,4,39,2,-2,8,14,-22
1523054129001243,7,15,-15,16,10,0,-44,62
1523054129008625,-7,-9,59,-3,-8,-14,14,-17
1523054129008625,-1,-9,-42,-12,-5,8,7,-14
1523054129025112,-5,-9,-46,-7,-6,-1,15,30
1523054129025112,4,9,35,8,6,5,26,-41
1523054129026312,2,4,11,3,1,0,-11,-6
1523054129026312,-2,3,-26,2,5,3,8,17
1523054129047422,-2,0,51,-9,-6,-12,35,16
1523054129047422,-1,-6,21,6,3,12,61,7
1523054129049373,-4,-3,-40,-7,-4,-6,-70,-7
1523054129049373,2,5,46,8,1,-2,2,2
1523054129061219,1,5,-10,-5,3,0,18,11
1523054129061219,-5,-3,15,-2,-1,-2,10,-42
1523054129069928,5,10,18,10,5,8,21,37
1523054129069928,0,-2,-37,2,-2,0,-9,37
1523054129084465,-3,-6,61,-2,-6,-7,-35,-20
1523054129084465,1,14,44,7,3,3,-5,-3
1523054129085971,-11,-24,-92,-31,-14,-7,-15,-55
1523054129085971,0,2,2,-4,-4,-2,-2,-32
1523054129107026,-4,-4,5,4,3,1,17,106
1523054129107026,8,15,14,-2,-3,-10,-44,3
1523054129113098,-4,-4,-3,6,6,5,-11,-46
1523054129113098,-11,3,-29,-6,2,13,40,28
1523054129120614,-3,-12,-34,1,1,0,11,-36
1523054129120614,2,8,20,1,-2,-7,-27,-72
1523054129129586,0,-3,-25,-1,2,13,58,74
1523054129129586,25,2,13,0,-3,-11,-89,54
1523054129144624,-42,-9,1,4,2,0,-38,-12
1523054129144624,8,4,-21,-3,-3,9,66,14
1523054129146129,4,11,23,2,3,1,18,-42
1523054129146129,-2,-3,4,-5,-5,-1,9,28
1523054129167185,7,29,-22,-5,-2,-1,3,15
1523054129167185,16,-21,-12,-2,-3,-9,-28,-44
1523054129168690,-22,-18,5,2,-2,-7,5,6
1523054129168690,-16,36,1,-2,-2,1,7,-8
1523054129181279,7,-56,-18,-4,-2,-11,-37,-30
1523054129181279,-5,34,8,2,0,4,-9,12
1523054129188242,24,16,15,0,-3,-2,14,29
1523054129188242,-6,-3,-1,1,5,-3,-14,-70
1523054129204786,2,6,-2,-2,-3,-1,16,-11
1523054129204786,2,0,4,1,2,-3,-15,32
1523054129206290,-3,-1,3,6,3,7,5,-20
1523054129206290,2,-12,-9,-2,-3,-6,6,25
1523054129226843,2,24,-3,-3,-3,1,-13,-31
1523054129226843,-6,-40,-1,-1,-2,3,8,4
1523054129228848,-6,10,-1,-1,2,-5,-7,15
1523054129228848,1,-32,1,-1,0,5,9,-3
1523054129240927,13,19,4,3,2,-6,4,-10
1523054129240927,-6,3,-11,-2,-3,6,17,5
1523054129249404,-1,3,6,1,0,5,31,20
1523054129249404,3,-1,4,0,0,-8,-29,11
1523054129264483,0,-6,-6,0,0,8,38,-2
1523054129264483,-8,-1,-1,-1,2,-1,-5,-3
1523054129265949,1,-3,3,-1,-2,-3,-12,-19
1523054129265949,-5,-4,12,0,-1,-1,0,-1
1523054129287005,7,8,-26,6,4,5,7,13
1523054129287005,-15,-24,-17,-20,-12,-9,-16,27
1523054129288509,3,-2,20,14,5,1,1,-17
1523054129288509,-5,-10,-58,-23,-11,-9,-4,23
1523054129300541,-1,4,7,1,-2,-4,-5,-46
1523054129300541,4,4,4,8,4,-2,-30,57
1523054129309565,7,29,89,5,0,2,-14,-20
1523054129309565,-15,-36,-4,-6,-2,4,43,-25
1523054129324605,0,-2,23,-6,-3,-1,11,-18
1523054129324605,-2,-3,10,5,4,-4,-53,12
1523054129326109,4,5,52,-2,1,-4,-10,-1
1523054129326109,4,8,14,2,-1,2,55,-10
1523054129347164,2,-2,15,0,0,4,-23,12
1523054129347164,-9,-3,11,-1,-2,2,51,-97
1523054129348669,-3,-3,-62,3,-2,-5,-50,86
1523054129348669,20,39,113,31,16,13,15,10
1523054129360701,-29,-70,-65,-56,-27,-17,7,-19
1523054129360701,7,22,28,11,2,-2,10,23
1523054129369724,-1,-8,-48,-4,-3,-4,-15,-70
1523054129369724,-6,-1,26,-6,-2,-3,-8,43
1523054129384763,10,15,-6,20,7,3,26,5
1523054129384763,-4,-4,-26,-7,4,8,-16,16
1523054129386268,-12,-27,-128,-35,-12,-10,1,-24
1523054129386268,1,5,38,17,1,-1,25,17
1523054129406824,9,19,17,15,8,1,-98,4
1523054129406824,-6,-14,10,-23,-7,-1,0,-17
1523054129408882,8,19,116,26,10,3,18,44
1523054129408882,-11,-18,-99,-24,-11,-2,-12,-33
1523054129420859,4,5,-34,-8,3,7,27,16
1523054129420859,-3,2,29,5,-2,-3,-7,16
1523054129429883,0,3,43,6,1,-7,-41,-86
1523054129429883,0,-11,-74,-10,-4,16,47,57
1523054129444424,2,11,35,17,3,-5,15,31
1523054129444424,5,5,-59,-2,3,-8,-82,20
1523054129446648,-7,-17,-54,-22,-12,-6,21,-18
1523054129446648,3,5,28,6,0,-7,-18,-16
1523054129474504,2,7,12,13,7,8,22,9
1523054129474504,0,3,-83,-1,2,0,1,-13
1523054129476007,-9,-16,36,-11,-11,-4,17,4
1523054129476007,1,12,57,11,-2,-14,-62,-48
1523054129481307,0,-6,-39,-5,-2,2,30,49
1523054129481307,4,6,53,10,1,1,55,-2
1523054129489544,1,2,22,2,5,0,-8,39
1523054129489544,-6,-17,-68,-21,-6,-3,6,-47
1523054129504978,0,3,27,0,-1,4,17,3
1523054129504978,3,3,13,5,-2,-3,-1,-15
1523054129506588,-1,5,23,5,2,13,32,-80
1523054129506588,-10,-18,-6,-6,-7,-8,-19,104
1523054129527184,2,1,29,3,4,0,-12,-14
1523054129527184,-4,-4,-22,-3,0,4,16,-31
1523054129528649,6,2,3,11,1,6,33,19
1523054129528649,6,18,12,23,8,-4,-69,0
1523054129540734,-12,-21,-57,-38,-12,-8,-25,-28
1523054129540734,-4,-8,49,-3,-6,-6,33,3
1523054129549703,-1,0,1,1,3,3,3,19
1523054129549703,3,5,37,6,3,1,17,-22
1523054129564742,1,1,-18,-5,1,-3,-14,5
1523054129564742,0,2,57,8,-1,0,-2,-19
1523054129566250,-5,-9,-55,-13,-5,-11,7,66
1523054129566250,0,-1,-88,-2,1,3,13,4
1523054129587302,-1,3,22,7,-1,-2,-9,-60
1523054129587302,-1,-2,-4,-5,0,-3,5,29
1523054129588808,0,-4,-9,-2,0,8,12,-10
1523054129588808,1,5,59,4,1,1,-26,-2
1523054129600893,-1,1,9,0,1,-2,-10,-11
1523054129600893,-2,-5,-14,0,-3,6,39,0
1523054129609864,2,15,18,9,3,-4,-48,-12
1523054129609864,-2,-10,-72,-23,-5,-6,-8,18
1523054129624401,3,4,20,11,0,5,20,31
1523054129624401,2,0,9,-1,-1,6,30,-9
1523054129626406,-1,0,24,4,0,2,-41,7
1523054129626406,-2,5,53,8,3,-2,-5,-67
1523054129646996,-2,-2,-4,0,-1,-7,-28,58
1523054129646996,4,-7,-17,-9,-3,-2,10,33
1523054129648467,-6,-11,-12,-6,-2,2,67,-23
1523054129648467,-4,-3,-15,-7,-5,-10,-79,-28
1523054129660499,0,-5,26,4,-1,0,21,-4
1523054129660499,-2,0,-10,6,4,5,28,8
1523054129669522,4,4,-27,-13,-7,3,22,-36
1523054129669522,-2,-1,9,0,-3,-6,20,-2
1523054129684619,-6,0,6,-2,-2,-6,-63,9
1523054129684619,-10,-3,-7,3,1,2,0,-40
1523054129686066,8,-6,-3,-3,-4,-6,-29,35
1523054129686066,4,4,17,-2,-1,2,33,4
1523054129707121,-5,-1,2,3,-1,-2,-14,-12
1523054129707121,15,9,-2,2,-1,-5,1,-34
1523054129708682,9,2,-1,-5,-7,-8,-15,92
1523054129708682,-22,-29,-3,-3,0,1,-10,3
1523054129729683,5,-8,-2,-1,2,4,24,-85
1523054129729683,-5,3,-8,-1,0,-9,-41,32
1523054129731185,5,-1,1,3,0,-5,-16,-14
1523054129731185,8,29,8,-1,0,9,50,-4
1523054129744752,-20,-29,-10,-8,-11,-10,-12,-10
1523054129744752,23,17,8,3,0,2,5,22
1523054129746282,8,48,3,8,6,-4,-46,1
1523054129746282,-10,-39,2,1,-1,5,11,28
1523054129767282,-38,-49,-8,-5,-3,5,17,-55
1523054129767282,0,32,-8,-6,-3,-4,-39,24
1523054129768787,-1,-29,-16,-6,-4,-3,32,-41
1523054129768787,11,28,5,5,3,-2,-8,0
1523054129789936,18,9,8,5,6,3,23,47
1523054129789936,-4,-8,3,-1,-3,-1,-10,-14
1523054129791703,-14,-11,-7,-2,0,5,13,-11
1523054129791703,3,-6,1,-7,-6,1,19,-6
1523054129803914,10,12,0,1,-3,-7,-1,25
1523054129803914,-1,0,-1,-3,-2,-2,-19,-18
1523054129811063,-22,-21,-9,1,1,-3,-11,-16
1523054129811063,-3,-17,-2,1,1,-5,-11,1
1523054129827295,13,34,-3,-4,-1,6,15,6
1523054129827295,-7,-19,-5,-2,0,-4,-13,-2
1523054129828445,-3,-7,-3,0,1,2,4,-2
1523054129828445,1,6,0,-2,1,2,5,-10
1523054129849502,5,9,2,5,2,6,29,19
1523054129849502,-1,-2,8,-2,-3,-1,5,8
1523054129851004,-2,1,-22,-2,-3,6,18,-27
1523054129851004,2,5,-4,4,3,0,-1,18
1523054129864100,4,2,-2,-5,0,-2,5,10
1523054129864100,-5,5,36,6,1,0,-8,-3
1523054129870610,-3,-15,-4,-15,-9,-10,1,-12
1523054129870610,-7,16,18,5,1,-3,-19,-93
1523054129887157,-4,-11,-79,-10,-5,-3,18,36
1523054129887157,2,0,24,6,5,6,35,94
1523054129888605,-1,-9,-8,-2,-1,0,-64,-14
1523054129888605,6,6,32,8,3,11,38,-14
1523054129909662,4,13,-23,5,4,-2,-19,-26
1523054129909662,-14,-21,-22,-6,-9,-11,-3,-62
1523054129911199,4,15,-22,9,2,0,22,42
1523054129911199,1,-11,-23,-14,-4,-1,-9,5
1523054129923697,2,11,71,19,4,2,17,29
1523054129923697,4,-3,-6,4,1,1,-17,-14
1523054129930774,2,-1,21,0,1,0,-1,2
1523054129930774,0,3,-53,-2,-2,-4,-17,-13
1523054129947260,-5,-11,-62,-11,-6,-8,1,70
1523054129947260,-3,0,15,1,0,-5,-9,-29
1523054129948764,-3,1,82,-1,-1,-2,24,-21
1523054129948764,0,-4,-12,5,6,4,19,-36
1523054129969376,-1,-2,61,-9,-9,-8,-4,21
1523054129969376,-6,-13,-85,-10,0,3,-14,1
1523054129971373,3,11,37,12,2,-2,27,35
1523054129971373,13,30,127,19,9,0,-86,3
1523054129983859,-13,-39,-75,-25,-12,-8,3,-60
1523054129983859,-9,-13,17,-3,-7,-10,-51,46
1523054129990877,4,2,27,1,2,-6,46,-8
1523054129990877,-2,-9,-78,-9,-5,7,14,54
1523054130007183,5,20,69,21,7,3,10,-49
1523054130007183,0,2,5,-9,0,-4,29,55
1523054130008424,-8,-15,-119,-15,-3,8,-46,15
1523054130008424,-3,-7,11,-6,-6,-7,3,-15
1523054130030044,9,19,78,10,6,4,-13,-11
1523054130030044,-13,-18,-8,-15,-13,-11,17,-83
1523054130031738,2,6,14,7,2,0,-3,80
1523054130031738,-3,-8,1,-7,-3,-5,30,50
1523054130044408,1,3,18,3,1,3,-9,-33
1523054130044408,2,6,-8,3,2,3,-14,-14
1523054130051188,3,3,18,3,5,6,3,-39
1523054130051188,-10,-15,43,-9,-12,-15,-65,-40
1523054130067080,0,-1,-17,-4,0,5,39,47
1523054130067080,2,0,2,9,7,3,-35,-2
1523054130068584,-2,2,-21,-2,-1,-2,-36,-71
1523054130068584,1,2,34,2,-2,-4,39,101
1523054130089640,-3,-10,-35,-14,-8,-4,-8,0
1523054130089640,3,3,19,8,5,2,9,-36
1523054130091145,-6,-4,15,4,-1,6,7,-16
1523054130091145,-2,-2,-21,-2,-1,-5,-11,-29
1523054130103678,-9,-8,0,-4,-6,-10,-36,-4
1523054130103678,4,7,29,1,2,10,34,29
1523054130110695,-5,-7,25,-8,-11,-16,-17,-18
1523054130110695,1,7,-7,4,3,6,20,13
1523054130127252,-1,-1,-14,3,1,8,-8,15
1523054130127252,0,-3,6,-1,1,2,-1,-36
1523054130128744,-1,-2,-9,-3,-5,-2,16,-7
1523054130128744,-3,5,-5,-1,-2,-4,-47,21
1523054130149300,-1,-4,11,2,1,-6,-6,-25
1523054130149300,0,-2,-7,-4,-4,5,15,22
1523054130151303,-13,-5,-13,-2,0,-2,15,-73
1523054130151303,14,-5,-15,-7,-2,-3,23,20
1523054130163894,-18,-5,-3,-5,-2,-9,-41,8
1523054130163894,-2,9,-5,-1,-1,-3,5,7
1523054130170855,7,-14,-19,0,2,11,56,7
1523054130170855,-2,6,-10,3,1,0,-29,-20
1523054130186898,1,1,6,-4,-3,-3,-13,-36
1523054130186898,8,5,1,-5,-5,-6,3,1
1523054130188402,-19,-14,3,0,2,8,11,107
1523054130188402,3,-23,-8,-3,-4,-3,7,-93
1523054130209512,-1,18,-4,7,6,10,13,45
1523054130209512,-17,-8,4,-5,-5,-8,-37,-16
1523054130210963,7,20,4,1,-1,-8,-16,11
1523054130210963,1,0,-6,2,2,2,9,26
1523054130222995,16,18,5,2,3,5,26,-9
1523054130222995,-13,-26,-8,0,-1,-6,-28,-17
1523054130232021,-10,-6,2,2,2,4,-8,-3
1523054130232021,-2,2,-23,-5,-1,-3,8,-4
1523054130247059,9,9,8,0,-4,-1,10,-19
1523054130247059,3,6,-4,0,2,1,7,29
1523054130248562,5,2,-1,-3,-5,-10,-43,-9
1523054130248562,-4,-5,1,-2,0,5,15,-4
1523054130269673,-10,-16,-2,-3,-5,-9,0,11
1523054130269673,3,0,-10,-1,2,8,-13,-1
1523054130271124,6,3,-3,0,0,7,18,-4
1523054130271124,-5,6,13,0,-1,-2,5,-1
1523054130283155,-2,-8,-32,-2,-1,-2,-6,6
1523054130283155,4,3,20,-3,-2,-6,-3,-2
1523054130292179,-2,1,-19,3,2,2,2,-10
1523054130292179,-6,-2,20,-1,-2,2,8,12
1523054130307218,1,-4,-14,-5,-3,1,-1,-1
1523054130307218,5,8,5,4,2,0,3,-2
1523054130308724,-2,-12,14,-10,-6,-8,-8,1
1523054130308724,-6,-2,-18,-5,-3,4,-5,0
1523054130329281,6,9,67,13,6,3,-1,-1
1523054130329281,-6,-17,-95,-17,-8,-5,5,-3
1523054130331321,1,2,-66,-1,-4,-5,-12,2
1523054130331321,-2,-3,55,7,0,-5,-17,-23
1523054130343314,-1,-5,21,-9,-8,-1,30,22
1523054130343314,2,1,-8,3,1,-4,-2,2
1523054130352395,2,3,68,4,7,15,6,-9
1523054130352395,-1,-1,-8,-1,-5,-6,1,37
1523054130366877,2,-6,-78,7,7,2,4,10
1523054130366877,-4,0,37,-10,-6,-2,4,-33
1523054130368882,-1,3,-11,0,-3,-9,-26,67
1523054130368882,-2,-5,-24,-5,-4,-9,-31,23
1523054130389493,5,4,60,4,5,10,-7,-33
1523054130389493,2,-2,-17,-2,-1,0,8,42
1523054130390942,-3,7,51,10,-1,0,41,-75
1523054130390942,-6,-15,-99,-13,-3,6,-19,35
1523054130402974,-5,-5,-24,-2,-8,-19,10,40
1523054130402974,3,-9,-14,0,4,8,25,-54
1523054130411997,3,17,27,4,1,0,88,41
1523054130411997,-3,1,36,2,-1,-9,-72,-9
1523054130427037,-4,0,69,7,-4,-8,-15,-17
1523054130427037,2,1,-44,-9,5,3,30,14
1523054130428541,-4,-13,-95,-9,-7,2,16,-40
1523054130428541,7,21,89,18,7,5,57,1
1523054130449598,-12,-23,-57,-20,-15,-10,-43,-2
1523054130449598,7,20,120,26,6,4,6,0
1523054130451103,-5,-16,-105,-21,-5,-7,-37,11
1523054130451103,1,2,21,4,7,2,-2,-41
1523054130463134,-2,6,32,4,-1,-3,-2,-52
1523054130463134,4,5,12,13,5,10,6,60
1523054130472159,0,-9,41,-11,-10,-6,24,90
1523054130472159,1,4,13,2,-1,-5,-70,-50
1523054130487252,-7,-8,-105,-13,1,0,5,-53
1523054130487252,-7,-6,22,-6,-8,-15,-13,-48
1523054130488702,4,10,47,17,6,3,-17,-5
1523054130488702,-1,-7,-23,-5,-3,1,47,25
1523054130509757,5,11,77,4,4,6,20,9
1523054130509757,-6,-8,-60,-12,-7,-9,-58,-22
1523054130511261,2,-2,-10,5,0,-4,-16,-6
1523054130511261,-2,0,7,-1,-5,0,42,-2
1523054130523351,4,9,43,18,10,8,-16,-21
1523054130523351,-7,-13,-43,-27,-9,0,18,-5
1523054130532318,1,7,85,7,-2,-1,-13,35
1523054130532318,-4,-11,-69,-15,-3,-8,-29,-13
1523054130546913,-2,-2,29,2,1,5,43,44
1523054130546913,-2,-3,-43,-8,-3,-7,-28,-63
1523054130548861,1,2,19,0,-1,2,2,8
1523054130548861,-2,2,-21,-1,1,-5,-32,-36
1523054130569471,3,7,97,7,-1,3,-14,13
1523054130569471,-3,-2,54,11,0,4,22,29
1523054130570920,-4,-11,-57,-11,-4,-9,-31,-39
1523054130570920,4,9,14,5,6,10,47,13
1523054130583455,0,1,-60,-10,-6,-2,9,-35
1523054130583455,-2,1,18,13,1,-5,4,31
1523054130591978,0,1,41,4,2,-2,-8,24
1523054130591978,-3,-13,0,-3,-1,7,15,-11
1523054130607016,-1,-4,-28,-7,-3,-1,1,-3
1523054130607016,-4,1,18,-4,-4,-2,11,31
1523054130608520,1,0,-28,2,2,-6,-4,-16
1523054130608520,0,0,14,-4,-4,0,-23,7
1523054130629576,-9,-15,-48,-12,-4,-1,47,2
1523054130629576,4,15,8,2,0,0,-30,15
1523054130631080,3,-4,9,-2,0,-4,-16,-19
1523054130631080,-16,0,-15,-5,-5,-3,17,-2
1523054130643113,1,-5,-3,-3,0,0,-43,-24
1523054130643113,0,4,0,4,5,15,38,14
1523054130652136,7,21,-3,-18,-12,-9,-18,-26
1523054130652136,3,-23,-1,2,-1,-3,1,44
1523054130667178,2,-6,-23,5,2,4,-7,-47
1523054130667178,-16,-10,8,-1,-4,-17,-94,-30
1523054130668681,14,-17,-10,-4,2,8,19,51
1523054130668681,-17,15,-2,-6,-7,-7,5,-90
1523054130689737,14,27,-3,-4,-2,-8,26,69
1523054130689737,-3,-24,-1,6,2,-2,12,-59
1523054130691242,-35,-47,-4,-4,-5,7,34,75
1523054130691242,38,42,5,-3,-1,-7,-31,-71
1523054130712296,1,-27,0,4,7,1,-11,63
1523054130712296,-36,-4,-7,-7,-2,-1,19,-43
1523054130713855,4,-29,-13,-9,-6,-6,-21,-23
1523054130713855,18,6,5,2,0,3,42,60
1523054130726836,-4,13,-6,1,-3,-1,19,27
1523054130726836,21,7,5,4,0,-7,-66,41
1523054130728840,1,14,8,4,4,3,22,-36
1523054130728840,-13,-16,-3,-4,-3,4,-6,24
1523054130749396,-1,6,-3,-3,-4,9,7,-23
1523054130749396,3,-9,-5,-3,1,0,33,17
1523054130751402,-9,16,4,2,1,-3,-29,-51
1523054130751402,-4,-5,1,1,0,-5,-1,18
1523054130771955,-4,-5,-4,-1,0,2,7,-3
1523054130771955,0,1,0,-4,-1,6,-6,11
1523054130773459,3,12,2,5,1,-7,-24,-43
1523054130773459,-6,-11,-4,-2,-2,-1,3,10
1523054130785525,-4,-7,-4,-1,-3,-9,-9,1
1523054130785525,3,4,0,0,4,18,43,-3
1523054130794515,5,14,23,1,3,-3,-19,-3
1523054130794515,-9,-22,-29,-9,-7,-2,24,5
1523054130809613,-4,2,-1,-4,-3,-4,-12,6
1523054130809613,6,8,26,0,-5,-7,1,-17
1523054130811060,-4,1,10,6,6,7,3,-11
1523054130811060,-6,-2,1,0,3,-2,7,9
1523054130832115,3,4,58,-4,0,-4,-21,-12
1523054130832115,2,1,-27,1,-1,-3,7,-12
1523054130833619,-9,-19,-53,-18,-6,3,8,7
1523054130833619,1,2,-35,1,1,-7,-2,-6
1523054130846154,-7,-9,0,-9,-5,-4,-9,-43
1523054130846154,10,14,39,9,3,1,33,72
1523054130853225,-3,-4,6,0,-2,6,24,-10
1523054130853225,-2,3,52,8,3,-1,-3,-11
1523054130869724,-6,-14,-106,-15,-5,-7,-36,13
1523054130869724,1,3,40,-1,-1,-2,7,-37
1523054130871233,-1,3,32,-7,-2,-8,-21,5
1523054130871233,1,2,84,4,-2,4,38,12
1523054130892276,-6,-7,-31,-4,-6,-4,-4,-13
1523054130892276,-1,-3,43,3,0,-2,-3,16
1523054130893781,-1,2,-46,-2,1,-8,-23,-88
1523054130893781,3,3,-34,5,3,9,53,77
1523054130906347,-6,-8,26,-6,-10,-13,-66,15
1523054130906347,3,6,2,5,2,-3,7,-23
1523054130913331,-2,3,69,4,0,11,14,-11
1523054130913331,-2,-2,-6,-3,-1,2,6,-33
1523054130929375,3,5,42,5,2,-1,27,16
1523054130929375,-5,-13,-31,-9,-6,-6,-24,-3
1523054130931379,5,9,31,7,2,1,-13,14
1523054130931379,-2,1,44,-1,-3,1,23,19
1523054130951991,1,0,-21,1,5,3,-7,15
1523054130951991,6,8,62,11,1,6,-14,1
1523054130953941,-6,-9,-81,-20,-7,-7,-10,11
1523054130953941,-5,-11,29,-3,-5,-6,-30,-37
1523054130966473,3,13,45,10,6,4,25,-39
1523054130966473,-10,-12,-1,-13,-10,-2,1,76
1523054130972989,2,0,20,10,-6,-9,4,13
1523054130972989,-2,-1,-8,-2,1,0,-22,-16
1523054130989533,-2,3,-10,2,0,4,20,-20
1523054130989533,0,1,7,6,4,-4,-27,66
1523054130991072,5,8,-42,-1,1,-1,-22,24
1523054130991072,-7,-15,-18,-5,-6,12,60,-23
1523054131012095,1,3,16,9,7,2,-15,10
1523054131012095,0,-1,-8,-9,-5,-9,-17,-50
1523054131013599,-2,0,16,4,0,5,28,6
1523054131013599,1,2,-33,5,2,2,-6,10
1523054131026132,-1,1,-49,-1,2,3,11,-30
1523054131026132,0,-1,-21,1,-1,2,20,14
1523054131033150,3,12,92,13,3,-2,-18,-5
1523054131033150,-9,-17,-4,-24,-12,-13,-23,-26
1523054131049699,2,6,34,9,3,-2,3,15
1523054131049699,0,-3,-19,-3,3,8,18,-36
1523054131051199,-3,0,-2,-6,-1,-1,11,2
1523054131051199,0,-1,-36,2,0,-4,-23,46
1523054131072254,1,0,-1,-1,-4,-3,5,18
1523054131072254,-3,-7,-78,-7,-3,0,-1,-21
1523054131073757,-2,-3,65,-1,-1,-1,-2,-26
1523054131073757,-2,-2,-50,-4,-2,-1,-16,-13
1523054131094314,-4,-7,-19,-3,-1,1,1,13
1523054131094314,0,1,13,-2,-2,-3,9,-16
1523054131096318,3,5,-62,1,1,0,0,-21
1523054131096318,-5,-9,-14,0,1,-3,-8,-67
1523054131109392,2,-1,27,-4,-4,1,4,78
1523054131109392,-2,-2,0,-2,3,11,34,-5
1523054131111386,1,3,-13,2,-1,-6,-47,18
1523054131111386,-3,-3,52,-4,-3,-5,-8,-14
1523054131131913,-7,-13,-57,-9,-4,-3,-4,-80
1523054131131913,4,6,1,-5,0,14,34,22
1523054131133416,-2,-7,-23,2,-3,1,39,-4
1523054131133416,1,3,17,3,1,2,-25,54
1523054131146451,-1,2,21,5,0,0,2,-1
1523054131146451,-5,-8,-18,-5,-1,-8,-14,24
1523054131153471,9,16,-7,-11,-11,-8,-31,-45
1523054131153471,-12,1,1,5,3,-2,40,4
1523054131169514,-4,7,13,0,-1,-3,-10,2
1523054131169514,42,4,-2,7,2,3,-4,92
1523054131171018,-68,-9,-7,0,1,6,31,9
1523054131171018,-4,-14,8,-4,0,-7,-73,-53
1523054131192074,1,1,-7,-4,-2,-2,3,-30
1523054131192074,15,15,5,-4,-4,-4,4,-4
1523054131193578,30,3,12,7,4,8,5,37
1523054131193578,-20,20,-7,6,-1,-7,-27,-8
1523054131206110,-32,-60,-11,-14,-6,5,31,72
1523054131206110,15,36,-1,-4,-6,-14,-47,-68
1523054131214634,5,-28,3,20,13,9,17,27
1523054131214634,12,17,5,0,0,5,14,-62
1523054131229672,8,17,-7,-12,-9,-10,-35,25
1523054131229672,-25,-19,-2,-3,-6,-7,-8,-51
1523054131231178,12,33,-1,-3,-7,-7,-2,6
1523054131231178,15,-11,0,-1,1,-8,-40,43
1523054131252233,5,15,14,8,1,0,21,-11
1523054131252233,-7,4,-4,2,1,2,33,-22
1523054131253742,-7,-13,-2,-1,3,1,-12,-15
1523054131253742,5,-10,-6,-2,-4,-4,24,30
1523054131265770,2,2,7,0,-4,-4,-23,-21
1523054131265770,-12,-9,4,4,5,0,-8,-3
1523054131274792,-3,-10,-8,-8,-5,-8,-5,9
1523054131274792,4,10,2,-1,-2,5,24,10
1523054131289369,5,-2,-1,2,2,0,2,2
1523054131289369,-14,-16,0,0,-2,-1,-2,-2
1523054131291357,0,-4,0,-5,-6,-9,-15,-19
1523054131291357,3,1,-8,-2,2,16,25,22
1523054131312123,-2,4,9,5,0,-1,-3,-27
1523054131312123,-7,-13,-3,-6,-1,-7,-10,0
1523054131314052,-3,-5,-2,0,-1,-2,4,-5
1523054131314052,2,6,-6,4,1,-3,-18,2
1523054131325667,5,8,69,11,7,6,2,6
1523054131325667,-6,-6,-40,-4,-8,-4,-16,-12
1523054131334452,11,13,66,21,14,12,30,18
1523054131334452,-20,-40,-64,-59,-26,-13,-1,-2
1523054131349492,1,3,12,11,3,-3,-6,-10
1523054131349492,-1,3,46,8,6,2,7,5
1523054131351602,-5,-7,-31,-6,-5,-9,-20,-17
1523054131351602,8,12,-8,27,18,10,17,13
1523054131372079,-4,-11,-27,-21,-10,-4,-24,-9
1523054131372079,-1,3,6,7,-2,-17,-20,-5
1523054131373557,1,1,-19,-6,0,9,22,7
1523054131373557,0,4,-7,8,2,2,3,-25
1523054131385587,4,1,-1,3,4,2,12,28
1523054131385587,-3,-3,-17,-5,-2,0,-10,38
1523054131394613,10,3,25,9,3,7,41,52
1523054131394613,-12,5,-34,7,3,-5,-75,-41
1523054131408649,-9,-13,4,-28,-15,-13,26,-30
1523054131408649,-3,-1,19,8,4,5,-10,-10
1523054131415681,-3,-3,-15,-9,-4,-7,-13,-17
1523054131415681,9,12,38,10,1,5,44,32
1523054131432250,-1,-11,-45,-6,2,3,-11,-29
1523054131432250,-3,0,49,8,4,4,8,21
1523054131433771,-7,-17,-74,-29,-16,-8,11,8
1523054131433771,4,4,60,7,4,10,24,0
1523054131445747,-5,0,0,6,-1,-3,-29,-56
1523054131445747,-1,-5,-1,-2,-2,-6,-17,30
1523054131454773,2,4,24,10,7,9,13,-18
1523054131454773,-3,-6,21,-9,-5,-8,-5,21
1523054131469347,2,3,5,8,4,2,8,-12
1523054131469347,-2,1,-45,-8,-6,-6,-7,-24
1523054131471352,0,4,1,0,0,-2,-6,15
1523054131471352,-1,-6,41,-6,-4,-1,23,-12
1523054131491870,1,5,-1,8,-1,-2,-22,23
1523054131491870,-1,-2,-19,-2,0,0,10,1
1523054131493876,-1,0,9,-1,-2,-2,-16,-43
1523054131493876,1,-3,-13,1,0,-2,13,13
1523054131505907,3,5,-14,-2,3,6,-14,13
1523054131505907,-5,-7,22,-7,-7,3,25,16
1523054131514932,0,1,1,4,1,0,-23,-19
1523054131514932,-3,-6,-21,-15,-10,-2,-16,-29
1523054131529471,-1,0,23,7,3,-7,-11,-5
1523054131529471,0,1,-14,0,-2,-2,1,10
1523054131531477,1,1,21,-3,2,4,17,1
1523054131531477,-6,-13,-59,-6,-4,-9,-12,-4
1523054131553034,-1,3,4,2,-1,3,4,13
1523054131553034,1,1,15,-2,1,-2,13,-17
1523054131554037,-4,-7,-20,-8,-5,-5,-41,3
1523054131554037,9,16,63,17,9,5,11,28
1523054131574803,-7,-15,-54,-22,-12,-2,15,-14
1523054131574803,-3,-5,-11,-4,-5,-2,-1,-37
1523054131576095,1,3,23,6,5,3,-12,68
1523054131576095,-2,-4,4,0,-1,1,33,-58
1523054131589660,0,2,-10,1,0,3,-19,54
1523054131589660,0,-2,-42,-3,-1,-2,19,-18
1523054131591165,-6,-6,-25,-12,-9,-16,-30,-72
1523054131591165,1,-2,-8,4,2,14,63,56
1523054131612190,-1,-2,18,2,1,-3,-1,1
1523054131612190,-2,1,-5,-1,0,4,-11,21
1523054131613696,1,-4,2,0,0,-3,1,-26
1523054131613696,-1,-4,-11,-3,-3,-13,-44,1
1523054131634750,-7,7,11,8,2,-5,19,11
1523054131634750,-2,-2,10,-1,1,14,22,-47
1523054131636256,0,1,-18,-9,-9,-8,6,4
1523054131636256,7,1,19,2,-2,-12,-69,-46
1523054131649792,5,7,-2,-1,0,-1,28,60
1523054131649792,3,-4,-1,-9,4,1,3,-13
1523054131651797,22,9,3,-5,-4,-8,4,69
1523054131651797,-27,-36,-8,7,2,6,-2,29
1523054131671883,2,30,13,-3,-1,8,10,-115
1523054131671883,15,17,-10,-7,-5,-8,-16,93
1523054131673854,-42,-2,18,4,2,9,30,-87
1523054131673854,59,2,9,11,9,5,-19,69
1523054131694464,-25,-70,-18,-9,-6,-8,-45,-32
1523054131694464,-2,1,4,-1,0,-2,4,17
1523054131696414,27,-2,-13,-10,-6,-3,10,31
1523054131696414,-42,21,-1,-5,-6,-11,-37,-33
1523054131708949,4,16,10,12,8,7,23,13
1523054131708949,5,8,1,-3,-3,-17,-38,-18
1523054131715466,9,2,4,0,-2,1,-17,-19
1523054131715466,-5,-5,-7,-2,2,0,25,-8
1523054131732010,8,4,-1,-2,-4,3,5,19
1523054131732010,-10,-12,-1,-1,-2,-9,-34,-29
1523054131733515,-6,-1,-3,0,2,10,21,21
1523054131733515,-3,-2,-1,-5,-3,3,22,9
1523054131754569,6,3,0,-3,1,-5,-2,15
1523054131754569,-3,-1,2,2,-3,-16,-18,-28
1523054131756073,-6,-8,1,2,-2,1,-7,8
1523054131756073,-1,1,-9,-5,-1,-2,-1,-5
1523054131768662,3,-1,-8,2,1,2,8,3
1523054131768662,1,-2,13,-3,-2,4,2,-2
1523054131775625,-12,-9,1,-2,-4,-5,-2,-1
1523054131775625,2,4,-16,2,-1,-7,-8,2
1523054131792243,4,8,-4,3,6,12,64,11
1523054131792243,-14,-12,56,-10,-6,6,10,-25
1523054131793733,1,-1,-6,-2,1,0,5,35
1523054131793733,6,6,-41,-3,-2,-2,-21,-11
1523054131814730,1,-6,-54,-5,-5,-8,-17,0
1523054131814730,2,7,44,15,9,11,15,0
1523054131816235,-4,-8,-17,-6,3,3,14,-8
1523054131816235,0,5,56,1,-4,-5,-17,-66
1523054131828769,-8,-15,-34,-25,-8,0,2,82
1523054131828769,-2,-6,25,-2,-4,1,17,-43
1523054131835786,-6,1,-9,6,2,-6,-13,85
1523054131835786,4,9,91,3,1,-4,-27,14
1523054131851828,-1,-12,-34,-10,-5,0,-19,-57
1523054131851828,0,0,-2,1,-1,-2,-4,15
1523054131853834,3,6,25,10,5,0,5,-11
1523054131853834,1,3,69,-1,2,1,30,-16
1523054131874389,-16,-20,2,-14,-13,3,6,12
1523054131874389,4,6,5,10,5,1,-8,15
1523054131875892,-3,-7,-34,-6,-4,-2,-33,-30
1523054131875892,8,2,-3,6,3,7,20,32
1523054131888929,-2,13,30,14,3,-5,-39,-63
1523054131888929,-2,-2,-28,4,3,4,25,51
1523054131895945,1,5,39,7,1,2,1,-7
1523054131895945,-9,-21,-55,-36,-16,-9,-19,-45
1523054131911990,3,5,34,11,2,-14,-11,1
1523054131911990,-1,-1,-22,-2,-1,5,8,5
1523054131913494,3,8,11,7,4,-7,-29,12
1523054131913494,-1,3,-60,8,4,0,10,12
1523054131934548,-1,-1,56,-6,-6,-4,-14,-10
1523054131934548,1,2,5,6,0,8,12,-16
1523054131936053,0,-4,-12,-1,-2,-1,4,-5
1523054131936053,-17,-23,-105,-29,-15,-8,13,-32
1523054131949087,3,7,10,2,-1,-6,-13,-15
1523054131949087,5,11,2,9,9,1,-17,109
1523054131955606,-7,-28,-36,-11,-7,1,14,-25
1523054131955606,-4,-1,7,-3,-3,1,5,-25
1523054131972148,4,10,-4,7,7,2,-8,8
1523054131972148,-3,-4,-33,-10,-7,-4,17,-21
1523054131973707,-1,3,18,3,2,-5,-27,-28
1523054131973707,4,13,51,11,4,3,9,17
1523054131994709,-5,-19,-61,-18,-4,-2,24,16
1523054131994709,-2,-4,8,2,-4,-4,-31,-35
1523054131996249,2,8,44,-3,0,8,36,16
1523054131996249,-7,-12,-48,-2,-6,-5,-1,-2
1523054132008770,3,9,34,6,3,-1,-20,-16
1523054132008770,-1,3,-1,7,5,1,-2,6
1523054132015798,-5,-8,11,-12,-9,4,-2,-20
1523054132015798,2,9,38,13,6,3,0,21
1523054132031809,3,2,-29,4,6,8,17,14
1523054132031809,-8,-17,-70,-27,-14,-13,-21,-20
1523054132033849,1,5,-7,9,5,0,-9,40
1523054132033849,0,0,29,-9,-4,-2,12,-6
1523054132054367,3,4,26,10,3,4,4,7
1523054132054367,2,2,-10,4,2,-5,0,-22
1523054132056372,-7,-11,6,-24,-9,-4,11,-18
1523054132056372,2,4,13,8,2,2,9,15
1523054132068907,2,4,17,6,4,-1,-22,-9
1523054132068907,-4,-7,-20,-6,-2,-4,-12,24
1523054132075926,1,2,16,7,2,5,25,-22
1523054132075926,1,3,10,3,2,-2,-5,14
1523054132092026,1,-1,3,-5,-5,8,67,-3
1523054132092026,0,3,42,9,4,8,-2,3
1523054132093473,-6,-14,-73,-19,-9,-8,-3,42
1523054132093473,2,2,9,0,-1,0,-11,-10
1523054132114528,-3,2,-5,6,1,-9,-27,24
1523054132114528,7,-7,4,-3,-4,5,27,-22
1523054132116032,-17,5,3,3,1,3,9,-41
1523054132116032,-6,-5,-18,-3,-2,-10,-15,9
1523054132128064,7,8,5,-6,-5,-2,-20,-35
1523054132128064,2,-1,0,-1,0,4,15,27
1523054132137088,2,1,8,0,-4,-17,-42,-2
1523054132137088,-4,-4,-7,3,3,14,28,25
1523054132152129,-9,-8,13,-2,-4,-10,-11,34
1523054132152129,1,-1,4,-4,1,7,38,39
1523054132153633,17,12,-7,3,0,-3,-41,10
1523054132153633,12,6,0,4,-1,-1,-62,53
1523054132174708,-2,-16,0,1,2,-4,5,-85
1523054132174708,-52,-18,-13,-6,-6,-1,3,-65
1523054132176230,9,0,4,-1,-2,-3,-4,77
1523054132176230,13,3,0,1,0,1,26,18
1523054132188225,-1,-2,10,6,1,2,-6,8
1523054132188225,16,-8,-5,-11,-7,-5,-10,-18
1523054132197249,-12,17,7,4,4,13,53,-75
1523054132197249,-3,-8,-5,-2,-4,-6,-11,4
1523054132212155,-5,-3,-2,0,-4,-1,2,42
1523054132212155,-2,-7,-3,2,-1,-5,-20,-100
1523054132213794,-1,0,1,3,2,-4,-6,53
1523054132213794,9,4,3,-4,-1,0,14,-40
1523054132234465,-20,6,2,1,3,-4,-28,42
1523054132234465,12,1,1,-2,-3,-13,-24,-64
1523054132236710,6,-7,5,0,0,4,22,41
1523054132236710,-4,3,-4,-2,0,-3,11,-23
1523054132248384,4,0,2,-1,-1,1,5,-5
1523054132248384,7,1,4,-3,-1,-6,-22,17
1523054132256907,-4,-6,-13,0,-2,-2,-2,-40
1523054132256907,-6,-3,-4,-1,0,0,-1,-9
1523054132271947,2,0,-1,-4,-6,-22,-43,21
1523054132271947,2,7,-2,2,4,19,42,26
1523054132274072,-4,-2,19,1,0,0,2,-69
1523054132274072,-12,-8,-23,-6,-2,0,2,53
1523054132294544,9,3,-15,-4,-2,-1,-5,-15
1523054132294544,-5,-1,-16,3,1,-3,-5,5
1523054132296011,0,-4,-2,4,-2,-6,-15,-9
1523054132296011,3,5,25,7,3,3,7,-15
1523054132308077,-10,-17,-42,-21,-9,-1,21,-7
1523054132308077,3,6,-1,2,0,-3,-12,36
1523054132317067,7,17,52,10,7,12,17,-6
1523054132317067,-13,-49,5,-18,-13,-11,-15,-12
1523054132332106,-2,16,-8,4,4,12,16,10
1523054132332106,-1,-1,8,-3,0,3,8,5
1523054132333611,-2,-4,9,-2,1,-5,-17,-8
1523054132333611,11,13,-55,0,1,1,-14,2
1523054132354666,-14,-17,17,-2,-10,-5,3,-7
1523054132354666,1,4,37,6,2,3,26,-37
1523054132356226,-1,-5,-32,-11,-1,-6,-27,57
1523054132356226,-6,-2,19,2,-3,0,9,10
1523054132368202,5,4,-36,8,7,-4,-6,-71
1523054132368202,-4,-9,-99,-18,-8,1,28,62
1523054132377228,4,6,53,13,4,-2,-12,-4
1523054132377228,-3,-2,-16,-19,-4,0,21,-28
1523054132392266,5,5,33,14,5,1,7,-1
1523054132392266,-4,-12,22,2,-1,-5,-65,3
1523054132393770,5,11,-21,-5,-2,4,33,3
1523054132393770,-9,-14,-42,-4,-6,-3,-42,-17
1523054132414327,16,26,91,22,10,16,88,26
1523054132414327,-11,-33,-92,-25,-5,-5,11,0
1523054132416356,-2,-3,-20,10,-2,5,-12,-6
1523054132416356,3,19,34,10,9,-5,-7,-60
1523054132428362,-2,-6,25,-5,-12,-11,-26,60
1523054132428362,8,23,122,23,8,2,0,12
1523054132437406,-11,-21,-19,-25,-13,-10,5,-40
1523054132437406,1,9,-34,8,3,0,-3,-2
1523054132451927,2,-4,-6,1,2,0,-23,23
1523054132451927,-7,-4,-32,-15,-7,-6,2,-77
1523054132453930,-1,0,-3,11,6,1,4,91
1523054132453930,2,4,66,4,3,5,34,26
1523054132474486,8,-2,-43,-11,1,4,-14,-25
1523054132474486,-12,7,71,11,3,-2,7,2
1523054132475991,-5,-11,1,-7,-10,-7,-33,-47
1523054132475991,-1,0,-32,2,0,-4,-11,19
1523054132488022,-6,-1,33,0,-2,3,11,5
1523054132488022,6,13,37,2,3,-1,-6,0
1523054132497048,-6,-21,-74,-21,-10,-6,-20,26
1523054132497048,-2,4,69,7,1,0,-5,14
1523054132512126,5,4,26,4,3,11,3,-36
1523054132512126,2,-1,-56,-4,-3,-1,0,7
1523054132513590,-7,-6,31,2,-6,-10,-9,-31
1523054132513590,1,-1,-25,5,5,5,13,-5
1523054132534680,-3,-1,22,-6,-2,3,0,0
1523054132534680,0,-2,-21,0,-1,-4,-32,78
1523054132536151,8,10,76,8,5,3,19,-22
1523054132536151,-6,-6,13,-7,-4,-3,-11,-16
1523054132557205,0,6,6,6,4,0,13,-38
1523054132557205,2,0,8,0,-6,-7,7,38
1523054132558709,1,1,51,4,3,-10,-61,0
1523054132558709,1,8,36,11,1,6,45,-12
1523054132572245,-8,-17,-92,-22,-9,-9,-20,-4
1523054132572245,-1,-1,24,8,1,1,14,-27
1523054132573749,-3,-7,-65,-13,-3,7,45,6
1523054132573749,-1,-2,-6,-7,-6,-6,-64,-1
1523054132593861,-1,2,-10,-1,-1,-2,5,11
1523054132593861,2,2,-8,1,0,-2,-2,-4
1523054132594868,-5,-4,-33,1,-1,4,41,0
1523054132594868,1,3,-7,-9,-5,-8,-14,43
1523054132616363,1,-9,21,1,2,4,31,3
1523054132616363,-3,2,-27,0,0,-1,-17,-56
1523054132617365,7,6,17,5,2,0,-4,25
1523054132617365,-6,-12,-5,-12,-7,11,45,2
1523054132631404,-9,0,-10,0,-1,-4,-16,17
1523054132631404,16,3,14,-1,-3,1,1,-19
1523054132631904,-2,-5,-7,3,2,4,22,-50
1523054132631904,9,6,-19,-5,-3,-8,-5,74
1523054132653996,25,4,4,-4,0,-3,-26,54
1523054132653996,-30,-7,2,-5,-2,3,-22,-48
1523054132654466,9,1,1,-4,0,-1,4,-21
1523054132654466,-52,-15,4,8,1,1,9,74
1523054132676522,57,-6,14,11,6,2,4,-93
1523054132676522,-36,2,-4,-12,-6,0,2,76
1523054132677025,-23,0,-13,10,2,-7,-4,4
1523054132677025,31,5,0,-4,0,6,4,-22
1523054132690561,-5,8,-5,-5,-4,-13,-5,20
1523054132690561,4,-8,6,2,0,13,3,-29
1523054132699084,10,-5,7,2,1,0,-6,16
1523054132699084,-10,-24,-6,1,-1,-6,0,-61
1523054132713623,-5,10,-8,-5,-5,-8,-22,13
1523054132713623,6,19,13,1,-2,-18,-41,-4
1523054132714626,-29,-19,0,-7,-4,-5,-9,4
1523054132714626,3,3,-1,5,3,4,-4,-21
1523054132736236,-18,-19,-2,-1,-1,-2,4,9
1523054132736236,5,2,-1,-1,1,11,48,3
1523054132737239,17,13,5,3,0,0,-29,-8
1523054132737239,5,1,-2,-5,-2,-9,-10,-16
1523054132750721,-17,-1,-3,2,0,3,0,-8
1523054132750721,6,-2,5,4,0,-10,-7,16
1523054132758743,-2,-4,-7,-11,-8,-12,-42,-13
1523054132758743,4,5,11,3,6,8,28,-1
1523054132773781,-18,-1,-16,-5,-6,-4,-6,8
1523054132773781,6,-9,-20,-3,0,-3,-2,7
1523054132774784,3,5,4,3,2,3,6,-9
1523054132774784,-4,4,0,-1,-1,-2,-15,-10
1523054132796343,-2,-2,-8,-4,-2,3,7,5
1523054132796343,5,-4,-25,5,0,-13,-5,3
1523054132797345,1,0,25,-8,-7,13,14,-6
1523054132797345,-5,3,2,3,5,-5,24,-43
1523054132810880,0,-2,-54,-3,8,10,16,76
1523054132810880,8,-5,-39,2,0,0,-9,-11
1523054132818950,-10,-2,45,-11,-8,-21,-29,-10
1523054132818950,10,0,-17,8,-2,3,7,-15
1523054132833988,-16,-1,38,-1,-5,-6,28,-17
1523054132833988,21,4,69,13,4,4,-8,8
1523054132834490,-3,-2,-46,-12,1,4,-1,-30
1523054132834490,21,-12,-60,-13,-8,-4,6,56
1523054132856548,48,17,55,13,4,-4,-32,-37
1523054132856548,-23,-10,-50,-8,2,6,15,27
1523054132857052,17,9,-31,9,5,9,14,-4
1523054132857052,19,8,26,3,-3,-3,5,-11
1523054132870588,-17,-8,-72,-3,-2,3,9,-4
1523054132870588,-12,2,12,0,-1,-5,-27,-9
1523054132879108,12,4,14,7,0,1,25,7
1523054132879108,-17,6,73,7,3,2,-8,2
1523054132893701,-11,-29,-90,-32,-17,-13,-33,-7
1523054132893701,7,9,52,4,1,-1,25,-13
1523054132894704,-8,8,53,14,10,14,27,21
1523054132894704,-7,-10,-12,-13,-10,-11,-22,-6
1523054132916209,-12,6,89,9,1,2,22,1
1523054132916209,3,-14,-48,-16,-6,-4,-48,7
1523054132917244,2,10,93,12,6,3,1,-5
1523054132917244,-15,-10,-37,-14,-4,0,0,-15
1523054132930746,7,1,13,9,-1,-2,14,41
1523054132930746,-21,-5,-2,-10,-3,0,-13,3
1523054132938767,6,-8,-96,0,-4,-7,-7,-10
1523054132938767,1,13,30,23,10,11,-10,9
1523054132953807,-11,-15,-62,-37,-10,-2,-13,-54
1523054132953807,6,-2,54,12,-1,5,54,44
1523054132954810,-5,-1,-2,2,-1,-7,-36,44
1523054132954810,1,-3,-22,-6,2,3,70,-31
1523054132976369,-3,6,20,16,8,7,-37,-14
1523054132976369,4,8,50,-1,-4,-1,22,2
1523054132977371,-1,-4,-47,-15,-2,1,16,-10
1523054132977371,-4,-3,28,5,-5,-8,-33,-4
1523054132991409,7,12,38,11,4,0,11,-4
1523054132991409,-4,-11,1,-20,-9,-9,-15,-33
1523054132991911,4,10,18,8,5,10,62,21
1523054132991911,-3,-4,17,2,1,2,-5,45
1523054133013970,-3,-7,-49,-4,-3,0,-4,10
1523054133013970,1,-5,-43,-8,-6,-5,-13,-40
1523054133014471,-8,-10,-58,-9,-6,-14,0,2
1523054133014471,0,4,-1,-3,3,9,-8,33
1523054133036527,-5,-3,41,1,-6,-1,14,-18
1523054133036527,5,3,0,7,6,3,30,29
1523054133037029,-4,-3,18,1,-2,-11,-100,-35
1523054133037029,4,9,4,-1,5,3,6,-16
1523054133050565,-12,-12,19,-6,-11,-9,-5,7
1523054133050565,2,4,-2,8,6,4,30,-36
1523054133059088,0,-6,32,-3,-6,5,12,-30
1523054133059088,1,2,1,7,1,-6,-19,53
1523054133073628,8,17,29,23,16,11,15,-19
1523054133073628,-18,-39,-85,-53,-24,-22,-40,-1
1523054133074630,6,6,-58,3,6,5,10,-31
1523054133074630,-7,-6,21,-8,-7,0,46,-16
1523054133096188,1,7,21,4,4,5,12,25
1523054133096188,3,5,10,10,1,-8,-100,-27
1523054133097190,-11,-8,5,2,2,-6,13,20
1523054133097190,-3,-4,-18,-15,-5,1,0,-30
1523054133110763,0,-1,-36,-6,-2,-6,21,5
1523054133110763,5,15,40,19,9,21,90,-80
1523054133118747,-2,-9,1,-8,-4,1,16,117
1523054133118747,-7,-9,-14,-6,-3,-13,-73,7
1523054133133840,4,1,35,7,5,4,24,-88
1523054133133840,1,5,-1,-1,-4,-4,-48,3
1523054133134845,7,-11,20,4,-1,2,2,-44
1523054133134845,-27,-1,-10,-1,-1,-4,2,-76
1523054133156383,74,10,-13,-18,-6,-4,-44,78
1523054133156383,-71,-24,11,11,3,-1,20,-103
1523054133157349,-32,5,-13,-7,-3,-4,50,105
1523054133157349,76,13,9,0,-1,-4,-73,50
1523054133170885,-34,-4,4,-6,-2,6,25,-71
1523054133170885,28,10,5,-6,-2,0,-18,24
1523054133178963,-8,-8,17,-4,-3,-14,-4,-48
1523054133178963,-8,1,-11,-1,1,1,15,-19
1523054133193947,-20,-2,-2,-3,-5,-2,-1,46
1523054133193947,31,1,-2,1,-1,-1,36,80
1523054133194448,4,3,2,1,3,6,-6,-5
1523054133194448,-18,-14,-8,-4,-5,2,50,-23
1523054133216507,-5,-1,-9,1,0,-2,-48,-9
1523054133216507,-1,8,12,4,0,-4,10,-5
1523054133217009,4,8,-5,-7,-8,-6,-87,-6
1523054133217009,-3,-9,-4,4,0,-5,56,70
1523054133230544,-12,-4,6,-1,1,4,-1,-23
1523054133230544,-2,3,0,5,9,5,-3,32
1523054133239066,22,8,5,-1,-3,-1,5,-39
1523054133239066,-2,3,-6,-5,-2,-5,-13,-3
1523054133253605,-9,-6,-3,0,-2,-8,-12,8
1523054133253605,6,2,-2,-1,0,4,-2,31
1523054133254608,-1,-3,13,2,0,-3,-17,-44
1523054133254608,-14,-7,-33,-7,-4,-4,-25,-12
1523054133276167,-5,0,4,1,0,-1,13,19
1523054133276167,7,0,-4,-1,1,5,15,-3
1523054133277168,-2,-3,2,-5,-6,-3,3,-8
1523054133277168,-4,3,27,2,0,8,30,-2
1523054133290705,2,-3,-12,0,1,-1,4,7
1523054133290705,7,2,4,1,0,0,-10,8
1523054133298761,-1,7,16,8,4,7,15,4
1523054133298761,-18,-8,-45,-8,-7,-11,-55,-13
1523054133313766,-1,4,87,13,3,4,1,-19
1523054133313766,-12,-23,-56,-34,-14,-14,-18,37
1523054133314770,12,8,9,7,7,9,34,-3
1523054133314770,2,2,20,2,0,2,15,-19
1523054133336325,-7,3,7,6,2,-2,-16,-10
1523054133336325,-2,2,-11,9,2,2,8,-69
1523054133336827,0,-3,18,-3,-2,-3,18,47
1523054133336827,6,-1,-7,-8,0,1,-14,33
1523054133350863,-7,-10,-10,-5,1,3,9,5
1523054133350863,5,5,3,2,0,-8,-24,-11
1523054133358886,0,-7,-90,-6,-3,3,31,-31
1523054133358886,5,17,66,22,12,11,7,-5
1523054133373927,-11,-20,-54,-24,-12,-16,-43,-3
1523054133373927,-2,-8,-24,-6,-3,4,42,22
1523054133374428,2,15,45,15,7,3,-43,-40
1523054133374428,-12,-19,-79,-21,-13,-16,-1,16
1523054133396486,6,7,-1,8,4,4,7,19
1523054133396486,-5,1,24,1,-1,7,17,-94
1523054133396987,3,3,-13,7,1,-4,47,122
1523054133396987,6,-3,17,-2,-2,-8,-62,-25
1523054133410524,-2,1,-12,-3,2,1,-22,-43
1523054133410524,5,6,9,6,3,0,-4,-11
1523054133419045,-3,-3,6,-3,4,20,55,-44
1523054133419045,-2,-1,10,3,-4,-1,-6,-13
1523054133434085,-1,-2,10,-5,-6,-6,15,22
1523054133434085,5,9,37,10,5,-2,-20,29
1523054133434587,-5,-6,46,-2,-7,-8,-48,3
1523054133434587,-6,-9,-12,-11,-1,1,14,-39
1523054133456145,1,6,24,9,2,3,25,59
1523054133456145,12,17,22,20,13,11,37,34
1523054133457148,-12,-24,-71,-23,-13,-11,-30,-40
1523054133457148,2,8,28,9,3,-1,-43,67
1523054133479707,1,1,5,-2,1,-3,22,-27
1523054133479707,0,0,5,2,0,5,-16,11
1523054133480209,-1,-2,-5,-3,1,-6,-12,-45
1523054133480209,3,9,21,9,3,-3,19,-28
1523054133493744,-7,-11,21,-11,-7,7,24,11
1523054133493744,-7,-16,-10,-9,-11,-10,-9,25
1523054133494747,0,2,37,0,-2,-3,-31,-12
1523054133494747,2,3,-87,2,5,3,26,-4
1523054133516308,0,3,37,-1,-1,-5,-13,8
1523054133516308,4,6,3,9,4,4,39,59
1523054133517311,-5,-8,-31,-23,-2,7,23,18
1523054133517311,0,-6,24,-11,-9,-2,-2,52
1523054133540045,3,7,40,17,5,-3,-48,-23
1523054133540045,-4,-8,-8,-15,-8,-7,-2,-44
1523054133540371,-3,-3,-19,2,-5,-13,-28,13
1523054133540371,-2,3,-15,1,6,-3,-5,-19
1523054133553905,-7,-16,-79,-13,-5,12,36,-32
1523054133553905,1,4,30,4,0,-1,-1,23
1523054133554408,4,10,14,12,2,-8,12,-24
1523054133554408,-7,-14,-39,-23,-6,-1,-21,5
1523054133576714,2,1,-14,0,-4,-8,-12,17
1523054133576714,-2,1,8,2,2,-6,-23,-49
1523054133577602,3,-1,-16,1,-2,10,51,75
1523054133577602,-4,-4,-5,-7,-1,-8,-59,-27
1523054133599567,3,6,-7,6,3,-2,-4,-51
1523054133599567,-4,-13,-45,-15,-5,0,-7,62
1523054133600530,-1,4,12,1,-2,-1,-7,-87
1523054133600530,1,6,36,6,-3,-2,11,12
1523054133614065,8,5,-4,0,3,7,29,34
1523054133614065,-5,1,109,9,0,-1,-2,-24
1523054133614568,-8,-13,-15,-16,-8,-3,-23,-10
1523054133614568,4,8,54,6,1,2,21,17
1523054133636124,-9,-7,-8,-7,-2,1,-5,-24
1523054133636124,-2,1,6,6,0,-2,-12,7
1523054133637126,2,0,0,-1,1,-5,-12,18
1523054133637126,3,1,-2,4,2,9,22,-19
1523054133660187,-3,-2,-11,-1,0,-3,16,0
1523054133660187,-1,-8,-25,0,0,-3,-20,12
1523054133660690,7,7,21,2,3,2,-10,14
1523054133660690,-20,-15,-10,6,2,8,44,-26
1523054133673760,2,-1,1,-4,-4,0,-23,-18
1523054133673760,1,1,-27,-4,0,-1,32,14
1523054133674763,-3,-7,-6,-5,-3,-9,-56,1
1523054133674763,8,20,9,3,-2,-7,3,-15
1523054133696283,19,8,7,3,-2,-5,-12,49
1523054133696283,0,-13,-9,4,4,12,56,-61
1523054133697320,-22,-15,1,-2,-1,5,20,-7
1523054133697320,-3,0,2,1,0,-2,1,8
1523054133719344,-5,3,1,-4,-5,-8,1,5
1523054133719344,12,17,-15,-8,-5,-7,-41,6
1523054133720381,0,5,13,6,4,-1,-4,8
1523054133720381,-2,-10,1,-1,2,7,41,-11
1523054133733917,-14,-8,-16,-5,-2,-5,-15,-6
1523054133733917,3,1,-1,-3,-5,-2,9,-3
1523054133734886,3,5,2,1,-1,1,-7,33
1523054133734886,4,0,1,-4,-2,-2,-15,-4
1523054133756443,-1,-3,-2,-1,-3,-5,-3,-8
1523054133756443,-5,1,-7,-4,-4,-3,-13,-74
1523054133756945,1,-1,10,3,-1,1,-4,93
1523054133756945,2,0,4,3,1,4,32,16
1523054133779506,-1,-4,-24,-1,0,1,35,-44
1523054133779506,-9,-4,-2,-2,-1,-7,-93,1
1523054133780535,2,-3,-4,-7,-6,-4,-41,-37
1523054133780535,6,0,6,-1,-1,-8,-26,-5
1523054133794043,-4,-2,2,-1,3,6,37,22
1523054133794043,-5,-1,-18,-5,-1,-1,30,8
1523054133794546,0,-9,-5,2,2,3,5,-26
1523054133794546,3,5,18,1,-4,-4,-4,9
1523054133816605,-6,-14,-44,-8,-5,4,-12,-6
1523054133816605,-2,10,-5,2,2,-2,-1,23
1523054133817107,8,9,45,7,4,6,12,-6
1523054133817107,-12,-19,-45,-20,-10,-9,-10,-23
1523054133839664,4,12,67,10,5,-1,-13,7
1523054133839664,-3,-6,18,2,-4,-3,1,24
1523054133840166,1,4,-14,1,0,-6,23,-11
1523054133840166,1,5,-5,5,0,1,-4,-12
1523054133853703,-10,-16,-26,-19,-10,-8,-26,-17
1523054133853703,-2,-6,-18,0,-4,-1,7,29
1523054133854706,7,7,55,4,1,0,-10,20
1523054133854706,1,3,31,6,2,1,-6,-22
1523054133876303,-1,-4,-83,-9,-3,-3,-11,10
1523054133876303,5,8,84,13,7,2,3,-14
1523054133877310,-14,-17,-1,-25,-16,-1,21,-33
1523054133877310,4,8,45,10,2,-3,-16,34
1523054133899323,-2,-1,-30,5,0,-5,-24,-51
1523054133899323,2,0,36,-5,0,5,18,85
1523054133900326,1,2,3,4,1,-4,1,-12
1523054133900326,-1,6,-32,-6,-3,-2,-5,-22
1523054133913920,-1,-11,23,7,3,6,21,-1
1523054133913920,3,9,-11,9,4,-1,-5,-3
1523054133914865,-9,-17,-77,-12,-8,-3,34,-27
1523054133914865,-4,-1,12,-5,-4,-3,-73,-10
1523054133936456,3,12,75,12,3,-3,10,-1
1523054133936456,5,-1,-25,0,0,1,2,41
1523054133936925,2,-1,-37,-13,-1,3,33,-18
1523054133936925,-13,-19,-26,-5,-3,5,25,27
1523054133959541,7,13,52,14,3,-7,-15,65
1523054133959541,0,-7,23,-7,-2,3,6,-12
1523054133960531,-6,2,1,2,-4,-10,-73,-36
1523054133960531,4,9,56,11,9,5,16,-40
1523054133973019,-8,-17,-40,-16,-9,-2,1,0
1523054133973019,0,3,-31,1,-3,-7,-6,-5
1523054133981542,1,3,39,2,2,-1,2,-20
1523054133981542,-5,-8,-10,-2,-7,-6,0,-12
1523054133996083,2,3,12,7,4,6,32,92
1523054133996083,-3,-9,-29,-12,-4,-12,-40,-46
1523054133997118,-1,4,0,1,4,3,-19,-28
1523054133997118,-4,-4,-6,-2,1,2,-15,-51
1523054134019645,3,10,5,11,6,9,78,47
1523054134019645,-5,-13,-59,-20,-10,-5,-36,4
1523054134020145,3,0,24,1,0,-2,20,12
1523054134020145,2,4,26,7,1,-3,4,19
1523054134033682,-9,-9,14,-17,-8,-10,-29,-44
1523054134033682,-3,7,35,13,5,9,20,-39
1523054134034685,6,15,80,20,5,-4,-14,63
1523054134034685,-7,-26,-51,-25,-16,-10,14,56
1523054134056278,5,15,100,12,7,4,14,-94
1523054134056278,-4,-5,-42,0,-1,-5,-50,108
1523054134057280,-1,-1,-24,-6,-1,-3,13,-8
1523054134057280,4,11,-10,5,3,2,26,-12
1523054134079303,2,2,9,3,1,-2,-11,-1
1523054134079303,-9,-14,1,-14,-9,-7,-29,-62
1523054134080307,-5,-13,-87,-18,-5,-2,29,4
1523054134080307,3,6,3,5,3,2,-12,-69
1523054134093339,-1,0,-20,1,-2,1,22,86
1523054134093339,0,-3,40,-3,-2,-2,-56,-30
1523054134101363,4,5,-2,8,3,2,7,9
1523054134101363,-5,-10,-2,-12,-7,-12,-87,-19
1523054134116401,2,5,-82,1,2,0,-5,-47
1523054134116401,-8,-11,-30,-14,-7,5,39,-10
1523054134116903,-1,-4,-4,-4,-4,-9,-32,33
1523054134116903,4,4,4,5,1,3,45,-11
1523054134139462,-1,0,5,-7,-5,-11,-49,44
1523054134139462,-1,-4,-1,8,4,5,13,25
1523054134139965,-2,-4,-7,-1,1,6,19,-34
1523054134139965,-3,-1,11,5,1,-2,18,-4
1523054134152998,-10,-3,-1,-3,-1,2,-6,4
1523054134152998,2,0,1,-5,-4,1,45,-57
1523054134161556,-1,-1,14,4,-2,-5,-17,-46
1523054134161556,-3,-6,8,3,1,-5,-4,127
1523054134176561,5,-4,-13,-7,-3,-2,-29,10
1523054134176561,3,15,10,2,0,11,53,-64
1523054134177063,-8,-8,8,6,0,-2,-31,42
1523054134177063,12,2,-10,-5,-3,-2,15,3
1523054134199681,-2,1,-6,-4,-3,-4,-21,-31
1523054134199681,-1,-2,8,5,2,-5,19,32
1523054134200125,-9,0,-4,-7,-4,-6,-43,-3
1523054134200125,2,-19,-6,-3,-2,2,-4,19
1523054134213158,-1,1,6,-7,-5,-1,-12,-50
1523054134213158,6,18,5,6,6,10,23,-11
1523054134221234,-3,0,-1,2,0,2,4,14
1523054134221234,-3,4,-11,-1,1,-2,-11,-42
1523054134236274,-3,-10,-3,0,-4,-3,1,-1
1523054134236274,8,4,1,1,1,-4,-36,23
1523054134237277,1,-2,-3,3,-1,3,54,0
1523054134237277,2,7,4,-4,-1,0,1,3
1523054134258781,-4,-7,-1,2,4,0,-9,-12
1523054134258781,-5,-2,-2,-5,-5,-7,-9,11
1523054134259806,1,-3,4,0,0,2,12,11
1523054134259806,-3,-2,1,0,2,4,11,-15
1523054134273318,1,5,-4,-3,-2,2,0,23
1523054134273318,-5,-8,0,-4,-4,-7,-1,16
1523054134281339,0,-1,-2,-2,-2,-7,-9,-25
1523054134281339,4,7,1,2,4,8,14,11
1523054134296380,-4,-7,3,-2,0,-7,-15,-20
1523054134296380,-4,-6,-7,-4,-4,-4,3,1
1523054134296882,4,2,-5,-1,-2,3,1,1
1523054134296882,-4,4,20,2,0,-2,-1,-6
1523054134319441,-6,-5,-43,-4,-1,2,0,5
1523054134319441,1,3,12,1,-1,0,27,3
1523054134320481,2,3,0,-2,0,-2,-9,-2
1523054134320481,-6,-7,-24,2,0,3,2,-2
1523054134333031,-1,6,40,1,0,2,8,-8
1523054134333031,3,-2,-15,-3,7,3,17,10
1523054134341558,-2,-4,0,3,-3,-12,-40,-9
1523054134341558,0,5,-13,1,0,1,7,4
1523054134356540,5,1,8,-1,-4,-4,16,-2
1523054134356540,0,-4,-41,-7,-2,3,5,12
1523054134357042,2,8,64,6,5,-2,-4,1
1523054134357042,-3,-6,-3,-4,-6,0,-14,-21
1523054134379603,-3,-1,-6,1,-3,-1,5,-48
1523054134379603,-5,-2,-9,5,3,-3,-1,28
1523054134380105,5,5,-37,5,3,5,35,53
1523054134380105,-2,-5,39,-7,-5,-4,-12,11
1523054134393139,-2,-8,-16,-11,-5,-8,-24,-2
1523054134393139,-5,-3,-5,0,2,9,-4,-104
1523054134401158,-2,6,46,5,-1,3,16,71
1523054134401158,-3,-7,-24,-1,-3,-5,13,1
1523054134416199,3,4,1,5,1,1,29,-15
1523054134416199,-1,-2,53,4,0,-14,-112,-7
1523054134417201,-3,-8,1,-7,-8,-2,34,-29
1523054134417201,4,18,93,21,8,4,19,6
1523054134439260,-14,-30,-93,-35,-12,-2,-3,11
1523054134439260,4,15,93,20,4,1,-8,-29
1523054134440264,-7,-16,2,-12,0,1,12,-14
1523054134440264,1,-5,-82,-10,-9,-7,9,94
1523054134461821,5,3,-10,8,2,5,-1,62
1523054134461821,-7,-4,-8,-4,-1,0,-64,-11
1523054134462823,-3,-4,-59,-4,0,4,-36,-50
1523054134462823,-3,-2,17,-7,-4,-2,25,-53
1523054134476358,2,8,8,3,3,-2,-6,-2
1523054134476358,-1,-6,-11,-4,-5,3,72,10
1523054134476861,4,6,-1,8,2,2,-10,53
1523054134476861,-2,-3,-12,-6,-2,-3,-40,3
1523054134499420,6,10,22,14,6,7,7,-11
1523054134499420,-6,-10,-11,-17,-7,-4,11,6
1523054134500423,3,8,-1,11,4,9,44,-56
1523054134500423,-4,2,32,-6,-2,-11,-42,-72
1523054134522044,1,-2,-21,2,-1,-3,21,119
1523054134522044,2,-2,-27,6,6,10,56,20
1523054134523008,5,15,93,12,5,-2,-53,-37
1523054134523008,-15,-26,-36,-26,-18,-17,2,-11
1523054134536518,3,11,39,15,9,5,-14,-124
1523054134536518,2,4,53,1,-1,-4,14,57
1523054134537020,-4,-13,36,-8,-8,-3,18,45
1523054134537020,6,12,41,15,9,10,-2,-41
1523054134559582,-9,-21,-32,-22,-9,4,86,-4
1523054134559582,3,5,7,6,-2,-10,-71,78
1523054134560083,-4,-10,-47,-16,-5,-6,14,-19
1523054134560083,2,6,20,8,4,1,12,-25
1523054134582195,0,-1,6,3,-1,-1,-1,7
1523054134582195,-10,-16,-46,-19,-8,-10,-20,-28
1523054134582642,0,1,-17,-4,-2,-4,-6,21
1523054134582642,-3,0,-7,1,3,9,-16,18
1523054134596178,0,4,37,9,5,5,-22,-29
1523054134596178,3,5,-14,5,1,2,13,26
1523054134597180,-5,-12,-8,-15,-8,-10,-39,-21
1523054134597180,-1,-3,-12,-4,-1,4,40,8
1523054134619740,-4,1,8,4,-4,-8,-53,-26
1523054134619740,-1,2,-1,3,2,-1,14,13
1523054134620242,-2,-5,-16,-5,-7,-2,10,15
1523054134620242,2,2,-4,1,-1,1,13,-39
1523054134642304,-3,-3,9,-4,-4,-5,4,77
1523054134642304,2,3,1,3,3,-1,-20,-46
1523054134642803,4,5,-17,4,7,10,38,-8
1523054134642803,-2,-2,13,-3,-2,-2,-2,3
1523054134656396,1,1,1,0,-4,-4,0,-17
1523054134656396,-4,-6,-3,0,-5,3,46,8
1523054134656839,0,0,-5,-3,1,6,-17,-45
1523054134656839,-3,-2,-22,-1,-1,-9,-21,49
1523054134679400,1,-8,15,-3,-3,-6,-19,-13
1523054134679400,-5,2,3,0,-2,2,22,-17
1523054134680456,-3,-5,-8,2,1,-3,-14,18
1523054134680456,2,3,-11,-2,1,5,23,-33
1523054134702016,5,0,15,2,1,1,-32,53
1523054134702016,-15,-6,-7,-9,-7,-10,-16,-40
1523054134703021,8,3,-9,5,4,1,-10,1
1523054134703021,-20,-4,-4,-4,-3,0,-5,-15
1523054134716498,15,13,3,0,5,4,30,-9
1523054134716498,2,-3,-8,-8,-5,1,-14,-30
1523054134717001,-11,-5,-4,-2,-4,-8,-5,38
1523054134717001,10,-4,3,7,4,-2,-1,34
1523054134747081,-8,0,2,-1,-1,7,-16,-24
1523054134747081,4,8,-3,-1,0,-2,7,67
1523054134747582,8,1,4,-1,-2,0,0,-24
1523054134747582,3,0,-6,-1,-1,1,11,8
1523054134762119,-10,-12,-2,-2,-3,-4,-12,-46
1523054134762119,0,1,-2,0,0,-8,-1,4
1523054134762625,-3,3,-2,1,2,3,9,27
1523054134762625,2,5,-5,0,-1,10,4,6
1523054134776158,1,-4,3,-6,-4,-9,-4,22
1523054134776158,0,-4,-1,0,1,1,-16,-51
1523054134777161,-1,2,-5,-2,-2,3,28,-14
1523054134777161,1,-5,0,-1,-1,-5,-19,0
1523054134798718,-14,-12,0,0,-1,-4,-21,29
1523054134798718,6,-1,0,-2,-1,-2,3,-2
1523054134799762,-4,0,-3,1,1,1,0,-44
1523054134799762,2,1,-4,-1,0,4,25,72
1523054134822279,1,3,2,-2,-3,-5,-26,-18
1523054134822279,0,-4,-2,-1,-3,0,14,-19
1523054134822782,-2,-2,8,0,-4,-7,-17,-22
1523054134822782,-2,0,-15,0,5,3,7,15
1523054134836371,1,2,-4,2,-2,4,43,62
1523054134836371,2,0,-10,2,0,1,-33,4
1523054134837319,1,0,-11,-2,-3,-3,2,2
1523054134837319,-1,8,54,4,3,-1,-5,-29
1523054134858878,-10,-19,-80,-18,-6,-10,-7,-32
1523054134858878,4,1,2,1,2,0,14,10
1523054134859911,-1,2,29,10,-1,-10,-13,7
1523054134859911,-7,-14,-77,-20,-7,2,29,-39
1523054134881975,6,7,21,3,1,2,13,37
1523054134881975,2,0,1,-2,-4,-6,-7,-7
1523054134882974,-2,2,10,1,4,8,16,0
1523054134882974,-2,-3,-51,1,2,-4,-22,-14
1523054134896478,-3,-2,54,-4,-6,2,-2,-24
1523054134896478,-4,0,3,1,-4,0,43,-33
1523054134896979,3,3,-12,-4,2,-2,-60,40
1523054134896979,5,4,28,12,-1,0,41,27
1523054134919540,-3,0,-20,1,2,7,5,-63
1523054134919540,3,2,30,10,4,8,-1,54
1523054134920542,-3,-10,-81,-24,-7,1,30,-46
1523054134920542,-6,-7,23,-3,-9,-20,-76,50
1523054134942099,5,5,20,2,4,3,17,-11
1523054134942099,0,7,25,10,5,2,-1,-31
1523054134942601,-11,-16,-3,-12,-9,-3,29,-12
1523054134942601,4,6,1,3,1,-5,0,76
1523054134956137,-8,-9,-9,-8,-4,-12,-94,-41
1523054134956137,1,2,50,10,0,3,10,6
1523054134957139,0,-3,-13,0,0,-4,2,5
1523054134957139,-2,-4,1,-9,-2,-4,14,-40
1523054134979698,7,17,58,18,7,-4,-22,6
1523054134979698,-2,-8,-12,-6,0,16,49,28
1523054134980202,-5,-3,6,5,0,-2,-19,-19
1523054134980202,0,-1,67,-3,-3,0,-11,-13
1523054135002259,3,1,-23,-3,3,5,51,20
1523054135002259,-2,1,-6,-1,-3,-8,-62,-71
1523054135002761,-4,-13,-54,-21,-8,-5,16,92
1523054135002761,0,-2,-80,2,3,10,12,0
1523054135016296,4,8,25,10,4,-4,9,-3
1523054135016296,-2,-8,-85,-11,-1,-10,-62,-29
1523054135017298,9,19,92,17,9,7,21,5
1523054135017298,-5,-5,14,-5,-2,3,11,-17
1523054135039410,-5,-4,-22,-6,-6,-3,26,-19
1523054135039410,-1,0,-8,-1,1,-6,3,27
1523054135040414,2,4,19,5,-2,-5,-27,-23
1523054135040414,-3,-3,-11,-8,-2,-3,-20,-55
1523054135062420,3,4,13,8,5,14,42,87
1523054135062420,-3,-6,15,-2,-1,-3,-18,18
1523054135063421,6,7,6,7,6,4,5,-27
1523054135063421,-9,-11,52,-7,-12,-5,-16,-3
1523054135075956,-8,-9,-72,-11,-8,-13,-69,40
1523054135075956,2,0,31,-1,2,15,71,18
1523054135084030,0,0,3,4,1,-1,-6,-8
1523054135084030,4,6,2,13,4,-1,-10,-36
1523054135099575,-4,-2,2,-6,-3,-9,-12,-28
1523054135099575,-4,-8,-25,-6,-4,-2,-14,10
1523054135100519,-2,3,12,0,-3,-1,26,-3
1523054135100519,3,6,54,9,6,2,-8,-59
1523054135122077,-5,-20,-69,-17,-7,-2,9,59
1523054135122077,-3,-2,9,-2,-2,-7,-23,-40
1523054135122578,0,0,7,1,2,0,-10,-1
1523054135122578,0,7,9,4,1,-7,-7,7
1523054135135613,1,-5,-2,-3,-1,8,37,-30
1523054135135613,-4,-1,13,0,-1,-6,-2,-4
1523054135143634,-1,-2,-14,3,-1,-5,-9,1
1523054135143634,1,-1,-31,-7,-7,-8,-9,35
1523054135158227,1,12,27,7,3,2,3,-29
1523054135158227,-2,1,-17,-6,-5,-2,-3,20
1523054135167197,-3,-7,-7,-7,-3,-1,-19,-2
1523054135167197,-2,-1,-14,0,1,0,2,7
1523054135182237,3,4,17,-2,-2,7,21,-23
1523054135182237,-5,3,5,2,-1,-7,-8,32
1523054135182740,12,2,-17,-7,-4,-1,-4,-25
1523054135182740,9,3,-4,2,0,-3,-8,7
1523054135195774,-4,-7,7,-4,-2,-12,-26,-11
1523054135195774,-1,-3,-19,-2,-3,-2,-8,48
1523054135203794,8,16,7,-8,-3,3,-2,-30
1523054135203794,-7,-12,2,14,8,5,19,28
1523054135219394,-11,-4,12,-2,-4,-4,-33,-40
1523054135219394,11,-3,-7,-5,-1,-2,17,36
1523054135220393,2,16,-3,5,-1,-6,1,-1
1523054135220393,-10,-22,-9,-3,2,10,7,-9
1523054135241954,-17,-27,-1,-2,-1,2,14,-45
1523054135241954,0,2,0,0,2,4,14,25
1523054135242955,-8,-11,-4,-1,-1,-6,-23,16
1523054135242955,10,18,-6,-3,-1,3,17,-4
1523054135255934,2,3,14,8,3,-1,-2,7
1523054135255934,-3,-6,-8,-10,-7,-8,8,-36
1523054135263956,1,-2,3,5,3,15,48,27
1523054135263956,-13,-3,-7,-8,-8,-8,-27,-32
1523054135279008,6,7,5,-1,1,2,25,18
1523054135279008,1,0,-2,1,1,-8,-47,-26
1523054135279497,-4,-2,-3,2,3,7,11,17
1523054135279497,-3,-5,-4,-3,-1,-3,6,-11
1523054135302611,3,2,4,-1,-4,-4,-27,6
1523054135302611,-4,2,-5,-4,-3,-9,-24,-27
1523054135303060,-7,-9,2,4,5,6,48,8
1523054135303060,3,-1,-3,-2,1,8,21,11
1523054135315594,5,6,8,2,0,-2,-9,4
1523054135315594,-1,-4,-6,-3,-4,-2,8,1
1523054135323615,-2,-4,-2,-5,-6,-12,-29,-12
1523054135323615,4,7,7,-3,-4,-6,-17,6
1523054135338653,-1,-2,-23,3,6,11,15,-21
1523054135338653,-6,-4,10,3,0,3,29,-23
1523054135339658,-3,0,16,3,2,0,5,-55
1523054135339658,4,1,-46,-4,-3,-2,-43,110
1523054135361716,1,-4,9,-17,-8,-5,3,11
1523054135361716,0,1,8,5,2,5,18,-27
1523054135362772,-7,-3,13,3,0,-3,-20,-49
1523054135362772,-2,1,-20,3,3,3,23,-14
1523054135384276,-3,0,26,2,-6,-2,0,6
1523054135384276,6,10,26,-4,0,3,8,9
1523054135385278,-3,-9,-1,-2,-3,-5,0,1
1523054135385278,0,8,48,0,-1,2,11,-7
1523054135399352,2,1,-24,2,5,-2,-21,13
1523054135399352,-3,-4,-3,8,-2,1,-8,-13
1523054135400355,2,4,16,1,2,8,18,7
1523054135400355,-2,-7,-44,-4,1,0,5,9
1523054135421875,5,13,46,8,0,0,5,-7
1523054135421875,-7,-9,-9,-6,-1,-1,-12,-46
1523054135422879,-6,-7,-27,-2,-3,-7,-21,71
1523054135422879,3,0,28,1,-3,2,44,36
1523054135444936,5,3,-45,-4,0,-2,-47,16
1523054135444936,-4,-11,-35,-8,-5,4,25,-10
1523054135445438,-2,-1,26,-2,-4,-5,-27,-39
1523054135445438,-2,1,-2,2,4,9,31,-20
1523054135458974,0,4,-16,11,2,-7,-7,19
1523054135458974,0,3,45,-3,1,8,-22,-6
1523054135459476,2,-3,-57,-7,-1,-1,24,-12
1523054135459476,-2,1,73,10,0,-3,-43,1
1523054135482035,-8,-10,-6,-7,-11,-13,7,-1
1523054135482035,10,21,110,19,8,5,24,39
1523054135483539,-15,-28,-81,-20,-13,-9,-15,-13
1523054135483539,6,13,72,10,3,1,-20,-23
1523054135504595,-7,-15,3,-14,-3,-1,12,-2
1523054135504595,4,9,-33,13,3,-13,-21,-20
1523054135506099,2,1,47,-6,-6,8,8,32
1523054135506099,-2,-8,-32,-8,-4,-12,6,23
1523054135518165,-3,-2,-4,-6,-2,3,-6,12
1523054135518165,-1,-2,-13,-4,-5,-7,2,-14
1523054135527155,-1,-3,-9,-3,-1,-9,-36,-3
1523054135527155,-6,-4,-44,-2,1,-1,8,-90
1523054135542210,1,2,15,3,1,0,-21,45
1523054135542210,5,2,-16,4,2,3,18,53
1523054135543699,-10,-20,-57,-33,-12,-2,-1,-54
1523054135543699,0,4,14,6,2,1,-17,30
1523054135564755,1,3,12,2,1,-7,14,-29
1523054135564755,-5,-6,-22,-4,0,4,-16,-7
1523054135566293,4,14,83,23,8,-5,-6,-1
1523054135566293,-2,-7,-26,-17,-12,-2,38,-13
1523054135578291,-6,-10,-44,-6,-1,4,9,-17
1523054135578291,-4,-5,-25,-13,-7,1,11,29
1523054135587372,6,13,29,17,8,0,21,-16
1523054135587372,-3,-4,51,7,1,0,-20,27
1523054135602357,8,11,84,6,5,7,21,3
1523054135602357,-9,-14,6,-10,-10,-7,10,-48
1523054135603859,-1,1,-37,6,5,2,-28,37
1523054135603859,-2,-7,-12,-11,-5,-6,-15,-14
1523054135624467,7,13,45,15,9,14,-1,-76
1523054135624467,-3,-7,-45,-4,-4,-2,15,62
1523054135625919,-3,-7,-41,-9,-9,-11,-26,-20
1523054135625919,2,1,-21,-4,-1,-7,-23,7
1523054135637951,1,7,4,11,5,6,65,35
1523054135637951,-4,-7,-3,-3,0,-9,-95,-37
1523054135646975,-1,2,8,-2,-1,3,22,46
1523054135646975,3,2,-6,5,1,-2,-17,-12
1523054135662015,-8,-14,-2,-9,0,3,-10,-22
1523054135662015,2,6,11,-3,-6,-4,28,16
1523054135663520,-5,-11,13,5,3,8,35,15
1523054135663520,1,1,-7,-10,-5,1,3,-22
1523054135684574,-3,1,-18,1,-7,-17,-50,14
1523054135684574,0,0,-13,0,5,6,45,-2
1523054135686079,-1,0,30,3,0,2,-13,-73
1523054135686079,1,2,-25,-2,0,1,18,82
1523054135698611,-10,-9,-17,-4,-7,-8,-15,2
1523054135698611,14,11,15,4,1,6,5,6
1523054135705630,10,11,-12,-10,-9,-14,-20,73
1523054135705630,-13,3,-1,-5,-1,6,29,-1
1523054135722175,1,-11,-14,0,-2,-5,-37,-48
1523054135722175,-13,7,-3,-13,-4,14,29,1
1523054135723732,6,-18,11,9,3,-6,-53,-7
1523054135723732,10,22,-14,-5,-2,4,35,29
1523054135744232,-12,-21,0,-4,-4,0,17,5
1523054135744232,7,-7,-10,-1,-1,-6,12,-59
1523054135746275,-4,16,3,-3,-2,0,-10,68
1523054135746275,0,-17,0,3,1,-1,-20,-25
1523054135758270,2,10,-10,3,0,-3,-15,-29
1523054135758270,-14,-29,-5,-3,0,0,8,-2
1523054135767294,0,2,-2,-2,-1,6,17,-5
1523054135767294,0,-1,0,3,0,-7,-21,-32
1523054135781832,10,15,-4,-3,-3,-1,9,36
1523054135781832,0,-2,-3,0,1,-6,-32,6
1523054135783838,2,9,12,7,2,-3,-6,-12
1523054135783838,-5,-12,-2,0,-1,7,11,17
1523054135804392,0,5,-7,-6,-4,4,21,8
1523054135804392,0,2,2,1,0,-5,-18,0
1523054135805897,-6,-4,0,-2,-1,-4,14,-15
1523054135805897,0,-2,-1,-2,1,-6,-18,-36
1523054135817928,-4,-6,-13,-2,0,1,-8,4
1523054135817928,1,4,0,0,-1,-2,11,14
1523054135826953,0,-2,2,0,0,2,-19,-2
1523054135826953,-4,-5,-6,-5,-1,-2,-4,-18
1523054135841994,3,2,-1,0,1,1,-6,2
1523054135841994,-2,-4,-14,-5,-5,-5,-11,3
1523054135843498,0,2,3,-3,0,3,20,-5
1523054135843498,-1,-3,-17,1,-1,-1,-12,-62
1523054135864607,1,2,13,4,3,6,19,52
1523054135864607,2,10,-2,-1,-2,-1,-17,-9
1523054135866057,-4,-14,20,5,1,3,15,-27
1523054135866057,0,3,-24,1,4,-1,-12,16
1523054135878089,-4,-5,-12,-5,-8,-3,11,-40
1523054135878089,4,9,49,14,6,3,-1,24
1523054135887114,-5,-8,-74,-15,-5,-6,-2,-1
1523054135887114,-1,0,33,3,-4,-1,-9,-27
1523054135902152,1,8,18,5,5,1,3,20
1523054135902152,-6,-10,40,-14,-4,-2,-12,0
1523054135903691,-4,3,3,1,-4,-9,-2,-83
1523054135903691,-2,-9,-90,-8,-2,2,5,108
1523054135924714,5,3,90,-1,-2,-11,-31,40
1523054135924714,1,-2,-32,1,0,3,-14,-41
1523054135926217,2,9,-3,4,6,0,11,0
1523054135926217,-6,-3,25,1,-1,-3,-5,-13
1523054135938303,-1,8,74,2,1,1,-9,-17
1523054135938303,-2,-16,-116,-12,-5,-3,23,51
1523054135947274,4,7,19,8,1,-1,-16,11
1523054135947274,4,15,73,7,4,-1,8,-40
1523054135961814,-9,-15,-29,3,-5,-7,16,19
1523054135961814,1,7,31,16,8,10,46,-62
1523054135963819,-3,-6,-43,-19,-9,3,-19,82
1523054135963819,9,9,88,8,5,-5,18,-13
1523054135984373,2,-1,-26,0,2,4,2,-13
1523054135984373,-4,-9,-57,-14,-7,-6,34,2
1523054135985875,3,12,21,21,9,-3,-48,-47
1523054135985875,-8,-19,-88,-20,-8,-3,-21,30
1523054135998409,-8,-11,-68,-28,-7,14,38,-52
1523054135998409,1,7,39,7,0,0,11,0
1523054136006932,5,10,-5,1,5,4,31,-12
1523054136006932,-6,-19,-58,-7,-6,-5,-15,83
1523054136021973,4,8,17,10,3,-1,12,-5
1523054136021973,-7,-20,-80,-25,-7,-5,-16,-18
1523054136023477,2,5,41,3,0,1,-6,14
1523054136023477,-1,4,14,2,5,4,17,-61
1523054136044532,-4,-4,1,2,-6,-13,-40,-11
1523054136044532,6,15,69,13,4,9,1,26
1523054136046037,-6,-12,-9,-7,-4,-4,-12,6
1523054136046037,0,3,34,1,-3,-1,4,-22
1523054136067129,6,-2,-46,-2,1,3,47,73
1523054136067129,-1,3,3,13,5,-7,-76,9
1523054136068610,-10,-19,-18,-31,-9,3,25,-14
1523054136068610,2,7,30,6,0,4,16,-15
1523054136082186,4,9,29,8,1,-4,-12,-15
1523054136082186,-9,-12,-52,-13,-12,-7,25,-21
1523054136083637,4,0,-5,9,4,10,46,38
1523054136083637,0,3,14,2,5,-1,-13,5
1523054136104713,1,-2,-7,-1,-2,0,32,27
1523054136104713,-1,-2,15,-1,1,-1,-29,33
1523054136106254,-1,-1,-37,-1,0,-2,-12,-23
1523054136106254,-1,3,-17,-7,-5,-4,-2,-15
1523054136118228,-2,-5,-5,11,7,10,-3,-31
1523054136118228,-3,-2,46,-9,-7,-12,-44,-51
1523054136127254,-1,-2,21,2,0,3,63,22
1523054136127254,-3,0,-6,1,2,8,-15,24
1523054136141792,-2,-4,-29,-14,-5,-8,5,-12
1523054136141792,-1,6,31,12,8,8,-3,-3
1523054136143795,-4,-6,0,-5,-8,-14,-34,-11
1523054136143795,3,-4,0,-6,-5,-7,-1,-6
1523054136164351,-3,-4,12,2,2,5,13,-7
1523054136164351,-4,-4,3,3,2,-11,-5,-13
1523054136166356,-1,1,17,0,-2,-5,-1,5
1523054136166356,-1,-2,-3,4,0,9,39,16
1523054136178391,-4,-8,-5,-6,-1,2,1,-27
1523054136178391,-4,0,0,-1,-3,-3,-2,13
1523054136186912,14,-1,2,8,4,3,-8,25
1523054136186912,-8,11,-3,-5,-5,-10,-34,-26
1523054136202007,-13,-24,-7,-8,-3,2,0,-31
1523054136202007,-5,17,5,4,2,7,42,7
1523054136203456,8,7,15,1,3,5,-3,36
1523054136203456,-17,-23,-7,-5,-2,-8,-2,-43
1523054136224564,33,25,-2,-7,-4,-2,-17,20
1523054136224564,-17,-26,4,-2,-3,-3,-12,-15
1523054136226016,4,23,8,5,2,-3,-25,-9
1523054136226016,-12,-39,-15,-12,-7,-9,-19,3
1523054136238048,-4,3,-11,0,-1,0,-22,-2
1523054136238048,11,14,7,-3,-3,-2,-8,8
1523054136247071,-3,4,3,3,4,3,3,-11
1523054136247071,1,1,6,5,2,-2,3,5
1523054136261609,-5,1,0,-4,-8,-5,0,-7
1523054136261609,4,-3,-2,0,1,2,-5,17
1523054136268181,-6,-6,5,0,-1,3,10,4
1523054136268181,7,8,-2,0,-1,6,12,-10
1523054136284670,-5,-6,-2,-2,-2,-8,-22,1
1523054136284670,6,8,-1,-2,-3,-10,-1,10
1523054136286175,-5,-13,-3,-2,1,7,27,-3
1523054136286175,1,2,1,0,2,-8,-24,-7
1523054136298260,0,4,-2,1,0,-3,-8,-1
1523054136298260,0,-5,2,-1,-1,-1,11,9
1523054136307287,-4,-2,-5,-1,-1,-6,-16,-12
1523054136307287,3,3,-18,-1,-3,-3,-3,4
1523054136321322,-1,4,8,1,0,-1,8,11
1523054136321322,1,-2,-1,3,4,4,-10,-45
1523054136328288,-4,-6,14,-3,-7,-10,-3,48
1523054136328288,3,9,0,2,0,4,8,6
1523054136344331,2,8,26,13,9,5,1,-10
1523054136344331,-14,-29,-87,-29,-17,-11,0,-10
1523054136346337,1,10,36,8,4,3,10,11
1523054136346337,-2,-14,-50,-7,-4,-2,11,99
1523054136366891,0,0,9,-3,-2,-8,-53,5
1523054136366891,10,9,25,7,7,8,10,15
1523054136368895,-7,-9,-33,-5,-2,-4,-21,-53
1523054136368895,-3,3,30,-3,-3,-2,18,-34
1523054136381929,-3,-7,-59,-1,4,3,16,8
1523054136381929,-2,2,13,3,-1,-3,-31,0
1523054136383434,-2,-9,-28,-5,-4,-1,13,-13
1523054136383434,1,10,48,13,3,-2,-26,-46
1523054136404548,-4,-8,-43,-12,-2,-2,10,37
1523054136404548,0,-2,30,-6,-5,-2,7,22
1523054136405993,5,11,11,4,4,3,18,-6
1523054136405993,-6,-12,18,-14,-9,-11,-98,-10
1523054136427049,0,8,28,2,1,0,-3,-26
1523054136427049,-1,-7,-1,9,5,3,11,-40
1523054136428554,-4,-1,4,-2,-4,-4,15,59
1523054136428554,6,7,8,-1,1,6,29,-13
1523054136442144,0,7,81,14,6,4,27,-38
1523054136442144,-8,-23,-76,-33,-11,-2,7,57
1523054136443594,-4,-10,13,-13,-13,-12,-37,-42
1523054136443594,5,10,23,13,7,-11,-39,-27
1523054136464649,-4,-7,16,2,-2,7,16,27
1523054136464649,10,26,84,24,12,-1,11,-6
1523054136466155,-14,-24,-70,-25,-11,-6,-13,-8
1523054136466155,4,6,-15,2,-4,-7,18,16
1523054136487209,-6,-8,18,-14,-7,-7,-9,-10
1523054136487209,3,14,26,19,4,-2,-28,7
1523054136488714,-2,-7,-1,-3,-2,-7,-6,-1
1523054136488714,1,-1,10,3,1,5,19,-4
1523054136501281,-3,-6,-106,-13,-1,-3,-49,-16
1523054136501281,5,11,87,15,-1,6,26,25
1523054136508303,-3,-9,-40,-6,-1,-6,-13,-8
1523054136508303,-3,-2,-7,-4,0,7,19,-78
1523054136524308,4,10,34,14,1,-7,-4,104
1523054136524308,1,6,87,7,3,-4,-9,18
1523054136526313,-9,-13,15,-20,-7,2,-5,-75
1523054136526313,-2,1,-45,2,0,1,9,22
1523054136546869,-1,-4,-38,-5,-6,-7,18,-31
1523054136546869,6,10,-44,11,10,11,-27,1
1523054136548906,0,-1,-23,3,1,-2,7,17
1523054136548906,-2,-3,-4,-5,-1,7,-26,-34
1523054136561409,-2,1,22,6,1,-2,21,17
1523054136561409,-1,-6,23,-9,-6,1,26,26
1523054136567978,5,5,-1,6,2,2,6,-10
1523054136567978,-6,-4,13,2,-1,-9,-62,2
1523054136584525,2,0,8,7,7,12,19,-9
1523054136584525,0,-2,-8,-2,-4,-2,16,-96
1523054136585973,0,-4,-12,-9,-5,-4,7,108
1523054136585973,-1,1,13,3,-6,-1,55,-61
1523054136607082,-1,0,49,-2,1,-1,-30,58
1523054136607082,-1,0,-29,5,4,1,5,-29
1523054136608533,-10,-10,-42,-18,-7,-9,-39,-42
1523054136608533,5,3,-24,-1,1,6,62,41
1523054136621566,8,17,99,21,6,-2,-92,-34
1523054136621566,-20,-30,-44,-43,-21,-19,-28,-6
1523054136628085,9,5,85,19,5,11,59,-32
1523054136628085,-1,-3,-50,-11,0,2,-22,26
1523054136644630,-5,-16,-69,-14,-10,-6,40,22
1523054136644630,8,14,-5,12,5,4,16,-37
1523054136646133,-1,2,18,-2,1,10,17,21
1523054136646133,-4,-7,-6,-3,-2,-1,-8,-2
1523054136667207,-7,-5,-11,-3,-3,-10,-45,-43
1523054136667207,-1,-3,-56,-1,1,6,23,8
1523054136668694,1,5,-7,6,2,1,8,11
1523054136668694,6,6,24,1,-1,-7,6,34
1523054136681282,-6,0,-32,-10,-5,-2,14,5
1523054136681282,7,2,11,-1,0,-6,-5,-53
1523054136688301,-1,11,28,12,5,1,-19,-11
1523054136688301,4,0,18,3,1,1,-2,51
1523054136704288,-4,0,-12,-11,-8,2,22,-30
1523054136704288,-2,-25,-16,1,1,2,-8,41
1523054136706292,-30,-4,11,1,-3,-10,-27,-18
1523054136706292,18,46,1,7,6,13,46,4
1523054136726847,1,-39,-21,-12,-3,10,36,24
1523054136726847,2,3,-2,-1,-2,1,-5,-8
1523054136728854,-27,-33,-7,4,0,-5,-28,-1
1523054136728854,7,24,19,-5,-3,-2,8,7
1523054136740909,23,31,16,11,8,6,11,-20
1523054136740909,-11,-23,-1,0,0,1,-2,45
1523054136749908,5,-9,5,2,0,4,7,-29
1523054136749908,-38,-77,-25,-11,-9,-9,-13,0
1523054136764501,6,0,-8,-8,-7,-7,-10,-18
1523054136764501,15,27,-3,-6,-6,-3,-5,16
1523054136766006,21,33,11,3,3,2,9,9
1523054136766006,4,14,12,2,1,-7,-43,-96
1523054136787008,-4,-5,-3,6,6,14,64,84
1523054136787008,-8,-10,-1,-4,-2,-8,-32,12
1523054136788513,7,7,8,5,2,7,3,-14
1523054136788513,-7,-10,2,-4,-2,-6,-14,-1
1523054136800543,-7,-4,-5,-5,-6,-9,-17,-39
1523054136800543,-7,-2,-9,-4,-4,-3,1,6
1523054136809567,6,6,4,3,3,-6,-4,18
1523054136809567,-3,-9,0,0,2,0,-3,0
1523054136824664,-6,7,-2,0,-2,-4,2,-14
1523054136824664,0,6,20,0,-2,5,10,-9
1523054136826170,2,-5,-39,-8,-4,-11,-11,23
1523054136826170,3,5,2,5,3,11,51,15
1523054136847167,-9,-7,8,-8,-5,-10,-70,-89
1523054136847167,-3,-4,-9,-8,-5,-7,-10,87
1523054136848672,7,1,-16,-1,0,0,10,9
1523054136848672,0,2,42,7,5,13,33,-3
1523054136860704,-1,1,-70,-2,2,-2,1,-29
1523054136860704,-4,-3,52,1,-2,0,13,-39
1523054136869729,-4,-4,14,-8,-11,-19,-38,-42
1523054136869729,1,-1,3,-3,-1,7,67,96
1523054136884768,-1,-1,10,7,1,-9,-91,4
1523054136884768,3,4,4,-4,-1,3,-1,-11
1523054136886319,6,15,64,24,8,7,20,23
1523054136886319,-11,-17,-1,-33,-13,-1,-20,-58
1523054136906826,-5,-6,36,9,-3,1,25,5
1523054136906826,1,9,-20,2,2,-10,-19,51
1523054136908831,1,-5,-8,-7,-6,6,17,-32
1523054136908831,2,10,43,14,7,-9,-62,-58
1523054136921364,-1,-1,-33,2,-1,1,13,47
1523054136921364,-4,-16,40,-13,-1,-2,-18,-47
1523054136929887,-5,3,65,12,-3,5,37,-46
1523054136929887,8,10,36,10,3,-5,-22,108
1523054136944426,-3,-12,-62,-27,-14,-9,25,16
1523054136944426,6,22,-6,32,15,2,-84,-78
1523054136945930,-7,-16,-58,-27,-4,-1,18,37
1523054136945930,-8,-9,20,-15,-11,-7,9,4
1523054136966986,1,2,-25,2,4,-2,13,-32
1523054136966986,7,19,62,25,10,21,82,39
1523054136968490,-13,-27,-115,-41,-17,-7,-31,-12
1523054136968490,-2,1,15,13,4,5,13,-42
1523054136980524,3,4,50,0,1,2,12,87
1523054136980524,-3,-5,-23,0,-4,-9,-49,-12
1523054136989548,5,9,22,7,8,9,16,-63
1523054136989548,6,8,-5,13,2,9,34,120
1523054137004586,-13,-22,20,-25,-15,-10,-41,-46
1523054137004586,0,4,7,3,2,1,21,-44
1523054137006092,5,12,61,15,6,-6,-21,37
1523054137006092,-4,-14,-52,-9,-6,1,36,-3
1523054137027146,5,14,61,17,11,11,16,-15
1523054137027146,-9,-12,-120,-23,-11,-9,-9,2
1523054137028650,4,5,33,8,3,13,34,4
1523054137028650,-1,-2,-15,-3,0,-5,-19,-26
1523054137040682,-2,-2,4,-4,-1,-8,-11,5
1523054137040682,0,-1,27,-2,-3,9,45,15
1523054137049706,3,4,-27,5,3,-4,-31,9
1523054137049706,2,8,77,12,4,0,-10,-5
1523054137063781,-8,-16,-76,-13,-9,-5,19,-108
1523054137063781,0,3,29,3,-2,2,55,112
1523054137070762,3,8,58,14,4,-1,-45,17
1523054137070762,4,0,51,-1,5,17,11,-59
1523054137086805,-4,6,88,5,-6,-2,7,-27
1523054137086805,-6,-6,-15,-6,-2,-9,1,-34
1523054137088810,0,6,49,17,5,4,-10,26
1523054137088810,0,-4,-97,-9,-4,-11,-18,-12
1523054137100842,3,7,45,9,8,11,-1,57
1523054137100842,-8,-16,-106,-27,-10,-8,-11,-10
1523054137109866,7,6,49,1,0,0,36,19
1523054137109866,-5,-2,-23,-3,-4,-15,-110,36
1523054137124406,10,9,-2,4,5,12,50,15
1523054137124406,-1,7,32,3,0,-3,7,26
1523054137125910,-9,-20,-21,-4,-6,-9,-57,-61
1523054137125910,5,8,65,5,0,2,31,-9
1523054137146965,-1,-7,-31,-8,-2,-3,-5,31
1523054137146965,2,5,46,11,3,0,-5,-24
1523054137148470,-2,-4,-34,-7,1,13,53,9
1523054137148470,-3,3,10,4,-1,-5,-2,5
1523054137160502,-3,-2,10,1,0,-4,-22,12
1523054137160502,-3,3,-16,-10,-4,-4,-5,-50
1523054137169525,-2,-4,-15,-4,-5,-10,-6,13
1523054137169525,-7,-4,-38,-5,-2,-3,28,-78
1523054137184621,1,2,-4,3,1,5,0,21
1523054137184621,5,-6,-15,-10,-5,0,0,44
1523054137186070,1,7,-16,0,4,9,39,0
1523054137186070,-6,0,-24,-6,-4,-7,-44,0
1523054137207125,-18,-5,-3,5,1,-4,17,-59
1523054137207125,81,6,26,-1,-1,-1,-2,15
1523054137208666,-90,-16,-4,5,-1,-5,-7,33
1523054137208666,49,-10,-22,-10,-5,-1,12,-17
1523054137220661,26,30,13,8,0,-2,2,68
1523054137220661,-15,26,5,2,-1,-14,-24,-70
1523054137229685,-13,-67,-24,-10,-3,16,-30,-6
1523054137229685,-17,-13,-27,-12,-6,0,18,-2
1523054137243723,-3,20,5,2,8,8,9,25
1523054137243723,5,-6,6,5,1,-2,4,18
1523054137250742,36,48,-4,-5,-3,-11,0,5
1523054137250742,-20,-6,8,4,0,-1,1,-25
1523054137266784,7,-18,-1,-3,-5,-12,-29,-3
1523054137266784,-21,1,-3,0,-2,5,16,-7
1523054137268789,8,1,0,-4,-4,-8,2,-11
1523054137268789,-2,-2,-8,1,1,1,-11,41
1523054137289345,-2,-1,0,-2,-1,4,45,-26
1523054137289345,-17,-11,-3,0,0,1,1,-7
1523054137291350,8,1,-3,-1,-3,-5,-13,18
1523054137291350,3,-1,-6,-2,0,-7,-4,4
1523054137303883,0,1,-1,-3,-2,3,6,-25
1523054137303883,-18,-16,4,-1,1,1,-7,4
1523054137310401,19,5,-4,-1,0,-1,6,2
1523054137310401,-3,9,-3,-2,-2,-10,-12,-4
1523054137326977,-7,-10,11,-1,1,3,-17,-13
1523054137326977,-6,-10,-12,-4,-2,8,19,20
1523054137328448,10,10,-1,2,1,2,14,-1
1523054137328448,-7,-3,4,-5,-7,-9,-9,-11
1523054137349558,-4,-8,-3,-6,-4,-3,9,4
1523054137349558,0,1,-2,8,8,4,-52,-1
1523054137351008,5,0,3,-10,-7,-5,3,-17
1523054137351008,-5,-1,-1,4,1,6,13,-4
1523054137364042,-4,-11,-8,-13,-6,-10,-10,5
1523054137364042,0,1,3,3,-3,-1,-27,33
1523054137370614,7,4,6,6,4,3,5,22
1523054137370614,-5,-8,1,-9,-8,-1,11,-18
1523054137387161,-1,1,0,1,1,-4,-23,-9
1523054137387161,-6,-1,-3,1,3,0,-3,-29
1523054137388630,3,3,26,-1,-2,-5,-18,38
1523054137388630,-1,-5,-11,-2,-3,8,28,15
1523054137409664,4,19,54,17,13,5,-9,-46
1523054137409664,-19,-32,-10,-19,-18,-11,12,2
1523054137411170,8,7,8,6,1,-4,-2,9
1523054137411170,5,13,-25,3,8,11,42,-1
1523054137423760,-10,-16,6,-12,-11,-13,-23,11
1523054137423760,2,12,40,11,8,5,-4,-44
1523054137430757,2,4,21,8,4,8,13,8
1523054137430757,-11,-24,-34,-25,-15,-19,-38,30
1523054137447264,8,5,-58,2,3,8,34,15
1523054137447264,-2,3,73,6,0,2,39,-20
1523054137448812,-4,0,29,0,-4,-9,-102,-22
1523054137448812,1,8,21,9,7,0,-13,-2
1523054137469324,-1,0,-1,4,1,14,38,3
1523054137469324,1,-2,-68,-3,-1,4,27,4
1523054137471328,5,10,33,6,7,6,17,-21
1523054137471328,1,-2,70,0,1,-7,-16,2
1523054137483920,2,11,87,17,4,1,-12,6
1523054137483920,-19,-40,-96,-45,-25,-17,2,-5
1523054137490912,3,6,-16,4,4,3,28,3
1523054137490912,1,6,-20,9,6,1,-11,4
1523054137506922,6,8,32,14,3,-3,-3,7
1523054137506922,2,4,-50,0,4,0,6,-9
1523054137508427,-4,-12,-57,-20,-9,-9,-59,35
1523054137508427,-7,-11,-66,-9,-5,5,28,-57
1523054137529483,0,1,-12,-1,0,-1,-22,25
1523054137529483,4,11,95,13,3,-1,-36,43
1523054137530987,-5,-12,-40,-16,-7,-7,24,-28
1523054137530987,5,14,45,13,10,7,13,-11
1523054137544021,-4,-7,-30,-3,-5,-2,12,5
1523054137544021,2,-2,-66,-6,0,-1,13,10
1523054137550538,5,9,63,14,7,3,20,-17
1523054137550538,-8,-16,-42,-14,-12,-8,-24,26
1523054137567138,-1,2,6,-1,-2,-5,9,-31
1523054137567138,1,6,42,2,3,0,-8,33
1523054137568627,-1,-9,-26,-2,-2,0,11,-11
1523054137568627,6,14,73,13,6,1,-19,-9
1523054137589643,-5,-11,2,-10,-5,1,8,-11
1523054137589643,1,8,35,9,-4,-11,-61,-55
1523054137591201,-2,-4,-36,3,3,18,66,31
1523054137591201,-7,-15,-78,-27,-10,3,42,-80
1523054137603682,-1,-2,-18,-6,-5,-9,-2,108
1523054137603682,0,-1,42,-1,0,-2,-8,-25
1523054137610701,6,13,78,18,2,-4,-24,-63
1523054137610701,-10,-18,-44,-15,-4,6,56,-54
1523054137627243,-8,-9,18,-13,-5,-3,-58,49
1523054137627243,6,3,-11,2,0,-1,41,-8
1523054137628749,-8,-7,13,-8,-7,-9,-28,-17
1523054137628749,5,4,4,13,4,1,8,12
1523054137649302,-7,-11,1,-11,-1,4,15,-40
1523054137649302,1,6,-12,10,2,-4,-68,25
1523054137651307,0,-2,-43,-9,-2,-4,-9,-8
1523054137651307,3,8,58,10,3,-2,-16,29
1523054137663842,2,0,-22,-4,-2,2,21,-25
1523054137663842,-1,-3,-3,-6,0,7,48,86
1523054137670893,1,0,-4,3,-1,-3,-22,11
1523054137670893,-2,-5,15,-6,-4,-9,-31,-28
1523054137686965,0,4,-9,5,4,-1,17,44
1523054137686965,-6,-5,3,0,0,10,16,-14
1523054137688908,-7,-6,-22,-15,-11,-22,-43,-16
1523054137688908,10,12,12,12,11,19,75,94
1523054137709517,-3,-14,2,-5,-5,-12,-112,-97
1523054137709517,5,-2,-3,-11,-7,-5,22,-28
1523054137710966,-7,0,-1,7,4,7,94,-26
1523054137710966,3,6,12,-1,-5,-7,-73,100
1523054137722999,-7,-4,-25,-12,-7,-9,29,-73
1523054137722999,8,-8,3,8,6,5,-4,-10
1523054137732024,8,-2,-1,-6,-5,-2,-20,-40
1523054137732024,-3,9,10,8,4,7,8,19
1523054137747095,-13,-15,-15,-1,-2,-9,6,-36
1523054137747095,8,13,-4,-2,-3,-2,1,1
1523054137748567,-7,-2,6,5,2,5,7,-12
1523054137748567,5,-3,4,-3,2,3,-37,26
1523054137769622,1,-15,-5,-1,-3,-3,8,24
1523054137769622,-14,-8,-4,-5,-2,-4,8,-4
1523054137771180,8,13,-5,-5,-3,-5,25,15
1523054137771180,-9,4,3,-1,-5,-5,-13,-20
1523054137783222,11,-1,0,3,3,1,-8,19
1523054137783222,-1,-1,13,3,2,-1,0,-25
1523054137792182,-7,-2,-9,-5,-3,-12,-11,22
1523054137792182,-2,-6,2,3,2,20,31,-47
1523054137807223,7,11,-2,0,0,5,26,21
1523054137807223,0,0,1,-2,0,4,2,13
1523054137808725,-11,-16,-2,-4,1,1,-5,4
1523054137808725,4,-1,3,-3,-4,-9,-11,-13
1523054137829282,-5,2,-3,-2,-1,-2,23,-28
1523054137829282,-7,6,-1,0,0,0,4,7
1523054137831287,6,-5,-1,0,0,2,-10,31
1523054137831287,-4,-7,0,-1,-1,-8,-6,-26
1523054137843375,-1,6,-5,0,-1,7,0,5
1523054137843375,-3,-2,-2,-2,-4,-7,-18,9
1523054137852342,2,2,-2,0,2,7,9,-2
1523054137852342,-4,-1,4,-2,-3,-4,20,-79
1523054137866939,-1,5,4,3,-1,-6,-25,83
1523054137866939,4,-6,-15,-5,-3,-3,5,-5
1523054137868908,-3,-3,-6,0,-1,4,-22,-16
1523054137868908,-4,1,-5,-2,-3,-11,-20,-8
1523054137889440,-2,-6,17,-1,-3,-5,8,-26
1523054137889440,4,9,-1,17,11,13,43,-1
1523054137890946,-18,-30,-78,-37,-19,-11,-16,-22
1523054137890946,1,5,26,10,2,-6,0,45
1523054137902977,1,1,-30,-7,1,-2,-2,-22
1523054137902977,-3,0,17,0,-2,0,-4,-17
1523054137912001,5,9,20,6,3,1,-15,44
1523054137912001,0,-4,-4,0,3,3,1,11
1523054137927095,-2,-3,-15,-5,-4,3,17,-21
1523054137927095,-2,1,4,-1,-1,-5,-13,-31
1523054137928545,1,2,-8,3,2,-3,-5,22
1523054137928545,5,7,74,9,3,-4,-8,34
1523054137949602,-6,-10,-55,-5,-4,10,35,37
1523054137949602,-1,-5,-11,-3,-1,1,-18,-54
1523054137951159,1,6,49,3,-1,3,26,32
1523054137951159,-1,-5,-8,0,-1,-12,-54,35
1523054137963138,4,4,37,-5,-2,-9,11,-36
1523054137963138,-6,-6,-4,5,0,0,4,24
1523054137972162,2,7,15,11,2,1,15,-7
1523054137972162,-5,-4,-23,-7,-5,-2,-1,-20
1523054137987209,-4,-5,-43,-12,-5,-15,-33,4
1523054137987209,-6,-8,-9,-7,-7,-4,-22,-14
1523054137988759,1,1,32,-1,2,5,31,-38
1523054137988759,0,1,-16,-3,-1,0,13,4
1523054138009261,-1,1,23,7,0,-3,-7,31
1523054138009261,-5,-3,-58,-7,-2,-5,-15,-86
1523054138011319,-1,2,12,2,0,3,14,111
1523054138011319,-1,-5,-11,-3,-5,-10,-27,33
1523054138023351,-2,-3,33,2,0,9,24,-69
1523054138023351,2,8,12,7,3,-7,1,-2
1523054138032334,-4,-6,42,-4,-3,-3,9,-41
1523054138032334,-4,-2,26,-3,-2,7,23,-17
1523054138046859,-2,-5,21,-9,-3,-11,-66,4
1523054138046859,-3,-1,7,1,-3,10,56,-27
1523054138048364,5,13,-6,20,13,-9,-36,40
1523054138048364,-5,-17,-42,-22,-12,-7,-45,0
1523054138069473,-2,3,-24,6,2,1,0,-41
1523054138069473,0,-3,-3,-10,-4,-5,-20,40
1523054138070924,-2,-9,-63,-10,-5,-2,-9,-38
1523054138070924,4,16,54,13,9,5,34,62
1523054138082957,-11,-32,-110,-49,-14,5,9,-64
1523054138082957,2,13,108,20,3,-2,15,102
1523054138091980,7,13,71,19,7,2,-81,-32
1523054138091980,-9,-21,-59,-31,-9,-1,56,-70
1523054138107021,6,19,30,19,9,5,2,93
1523054138107021,-4,-3,44,-4,-2,-7,-40,9
1523054138108524,-2,-10,-118,-18,-5,-2,24,-108
1523054138108524,5,15,-9,22,11,3,-19,80
1523054138129634,1,5,127,8,5,2,27,24
1523054138129634,-1,-12,24,-2,-7,-12,-22,-34
1523054138131085,0,7,45,11,1,4,30,72
1523054138131085,-3,0,2,3,0,-3,12,-56
1523054138143117,-3,0,-10,13,-1,-18,-40,-38
1523054138143117,5,4,-24,3,7,18,6,68
1523054138152141,-9,-12,-13,-9,-4,1,27,-24
1523054138152141,1,1,3,2,-5,7,46,-85
1523054138167179,0,3,2,4,-4,-16,-103,96
1523054138167179,5,-2,-25,-5,1,0,60,6
1523054138168685,-7,-14,3,-4,-2,-2,-13,-2
1523054138168685,0,-2,-17,-6,-2,4,2,-23
1523054138189741,-4,-1,14,7,3,10,38,-25
1523054138189741,-2,3,-15,-6,-4,-3,-8,26
1523054138191245,-4,-3,2,1,1,3,11,-89
1523054138191245,2,4,8,5,-2,-10,-40,69
1523054138211853,1,2,-10,-7,-3,2,12,-22
1523054138211853,2,-12,-11,-3,1,-3,6,98
1523054138213858,21,19,5,-4,-2,-3,5,17
1523054138213858,-21,-6,3,-3,-4,-16,-62,-70
1523054138226340,-3,-13,-4,5,3,7,-36,14
1523054138226340,-6,7,-16,-6,0,1,31,-58
1523054138233357,6,-9,13,0,-2,-6,-10,-20
1523054138233357,-1,4,-4,-1,0,4,29,82
1523054138249453,-16,-30,-7,0,2,1,2,-94
1523054138249453,0,13,-2,1,1,-3,-21,19
1523054138250903,-3,-11,-2,-4,-4,-1,-5,-17
1523054138250903,3,18,7,1,-1,0,17,28
1523054138271992,26,45,5,9,4,5,19,9
1523054138271992,-34,-58,-12,-6,-2,1,-4,-31
1523054138273464,-10,-1,-13,-9,-9,-11,-28,6
1523054138273464,5,-3,-9,-1,0,0,31,12
1523054138286533,5,15,4,2,4,0,3,-49
1523054138286533,13,9,1,0,-1,10,0,45
1523054138293015,5,9,2,-1,-4,-5,-26,60
1523054138293015,-4,-14,2,-4,-3,-4,-10,-48
1523054138309559,-2,-6,-5,-3,0,7,38,0
1523054138309559,7,18,3,1,1,-3,-7,-38
1523054138311067,-16,-14,-6,0,2,3,-2,15
1523054138311067,4,0,11,3,-1,2,-4,6
1523054138332151,3,7,-16,-3,-3,-6,-2,4
1523054138332151,-3,-6,-32,-5,-4,-10,-26,-7
1523054138333659,0,3,-15,2,2,21,82,25
1523054138333659,2,-4,33,-2,3,0,-19,-42
1523054138345654,1,7,-12,10,5,4,17,90
1523054138345654,-4,-7,40,-12,-3,-4,9,-36
1523054138354680,-5,-10,24,-4,-10,-12,-8,42
1523054138354680,7,11,4,9,4,9,-35,9
1523054138369721,0,3,31,5,5,5,18,-21
1523054138369721,-10,-20,-69,-20,-11,-8,-21,-20
1523054138371224,-1,6,29,-7,-2,-10,7,-8
1523054138371224,-4,-7,-7,-2,-2,1,9,-8
1523054138391777,4,14,62,27,4,-4,-10,11
1523054138391777,-4,-14,-85,-36,-8,-3,-38,-14
1523054138393783,-4,-4,48,5,0,-4,34,-71
1523054138393783,-2,-7,-2,0,-2,-2,-8,111
1523054138406317,-2,-4,40,-5,-1,-5,-25,0
1523054138406317,10,22,53,16,6,1,17,-34
1523054138413359,-4,1,-43,3,3,11,-1,-22
1523054138413359,-5,-8,10,-6,-5,-5,28,-54
1523054138429379,3,3,40,-4,-2,3,16,53
1523054138429379,1,4,23,17,3,-3,-54,13
1523054138430882,-4,-10,-1,-14,-4,-8,-20,4
1523054138430882,-1,6,54,12,2,-3,-19,-31
1523054138451939,1,-2,-82,-2,2,7,20,-5
1523054138451939,-10,-14,-8,-18,-13,-8,15,-34
1523054138453443,7,11,33,10,7,1,-32,40
1523054138453443,4,12,68,21,4,-7,-34,0
1523054138466477,-17,-44,-88,-59,-19,-12,25,-35
1523054138466477,5,12,88,18,3,10,27,8
1523054138472995,1,4,15,7,5,-5,-55,65
1523054138472995,3,1,17,0,5,5,26,-13
1523054138489575,-6,-6,-7,-5,-9,-13,-33,-22
1523054138489575,3,8,3,11,8,18,66,-20
1523054138491078,-5,-9,-33,-16,-7,3,25,1
1523054138491078,4,8,2,12,3,-1,-11,-31
1523054138512134,2,-3,-82,-9,0,8,24,41
1523054138512134,-6,-1,13,1,-3,-13,-70,-12
1523054138513603,0,6,56,7,-1,-2,7,-14
1523054138513603,-3,-10,-49,-20,-6,3,16,22
1523054138526135,6,16,22,28,11,2,-1,-21
1523054138526135,-13,-22,-17,-33,-16,-10,9,-67
1523054138533155,5,8,-3,12,4,1,6,109
1523054138533155,-6,-19,-75,-22,-6,2,53,0
1523054138549697,-4,-5,34,-3,-5,-4,-7,-39
1523054138549697,9,15,10,26,14,8,10,22
1523054138551201,-3,-7,15,-10,-6,-2,22,-47
1523054138551201,-3,-7,5,-9,-6,-8,-13,-16
1523054138571758,3,3,-10,4,-2,1,21,43
1523054138571758,4,2,-22,-3,2,0,0,34
1523054138573799,0,-2,-16,0,0,1,-4,-39
1523054138573799,-1,2,29,2,-1,1,-24,14
1523054138586297,-6,-5,9,-5,-5,-9,-33,-28
1523054138586297,7,14,-3,9,7,5,21,29
1523054138593336,-6,-5,18,-3,-6,-8,-34,4
1523054138593336,-1,-8,-4,-7,0,5,42,-14
1523054138609357,-4,0,39,2,-5,-6,-8,-1
1523054138609357,-3,-5,-19,-2,-2,-9,-96,41
1523054138610861,2,-1,7,8,8,8,3,-29
1523054138610861,-1,-3,-23,-2,-1,-5,2,-11
1523054138632419,0,-2,7,0,0,9,21,-21
1523054138632419,3,7,9,-7,-6,-4,14,-55
1523054138633923,-5,-12,-31,-2,0,-8,-20,86
1523054138633923,-3,-3,9,1,1,6,12,-31
1523054138646455,-4,-1,2,2,1,-3,-19,-10
1523054138646455,11,1,11,-3,-2,5,47,-20
1523054138652974,-15,-6,-9,-3,-5,-8,-85,-42
1523054138652974,-6,1,-23,-6,0,-2,38,35
1523054138669516,6,-5,24,1,-1,-1,24,64
1523054138669516,-2,-12,2,3,0,-1,-27,42
1523054138671020,20,35,-13,-6,-4,2,44,-28
1523054138671020,-21,-40,7,9,3,-3,-1,-7
1523054138692076,-5,19,-3,-6,-3,-4,-38,14
1523054138692076,-8,-26,9,-1,-2,-6,1,-22
1523054138693581,8,1,-11,-1,2,4,37,0
1523054138693581,9,19,-3,-3,-5,-6,-38,-4
1523054138706167,3,3,9,2,1,-5,-7,-22
1523054138706167,-7,-6,0,1,-1,-2,3,36
1523054138713186,3,-5,-3,1,3,6,2,-21
1523054138713186,0,12,-6,-1,1,2,-11,-8
1523054138729692,-5,-3,-1,-3,-1,-2,-1,-15
1523054138729692,2,11,5,0,1,13,35,51
1523054138731181,-10,-18,-10,-8,-3,-4,-1,-31
1523054138731181,6,4,9,-2,-2,-6,-30,-1
1523054138752238,0,-3,-2,1,-3,-4,-9,16
1523054138752238,-4,5,2,-1,-2,-5,8,-47
1523054138753777,-2,1,0,3,6,6,36,38
1523054138753777,-1,2,-7,-6,-5,-5,-45,17
1523054138765774,-2,-5,5,-3,0,2,-6,-28
1523054138765774,-2,-1,-1,0,-3,-4,12,-9
1523054138774797,-6,-1,-4,-2,-2,0,-2,-45
1523054138774797,2,1,-1,3,5,2,-3,44
1523054138789389,-1,-6,3,0,-1,4,16,-4
1523054138789389,-5,2,-9,-3,0,-8,-25,-23
1523054138791340,3,4,6,0,-3,7,-2,57
1523054138791340,6,3,-32,-1,-2,2,21,3
1523054138811897,6,7,46,14,12,9,12,-40
1523054138811897,-7,-11,-27,-17,-11,-9,-4,21
1523054138813399,1,4,9,8,1,-5,-13,-32
1523054138813399,2,5,-49,2,5,2,-15,-9
1523054138825933,-14,-24,-23,-28,-18,-9,-3,-21
1523054138825933,6,15,20,15,7,2,10,36
1523054138834455,-6,-9,-23,-11,-1,-2,-7,-14
1523054138834455,7,15,40,15,1,0,-6,-23
1523054138849833,-4,-21,-106,-25,-12,-7,12,27
1523054138849833,8,17,109,17,9,7,-1,-14
1523054138851000,-10,-24,-86,-21,-11,-8,6,8
1523054138851000,-2,2,41,-1,-2,1,7,-31
1523054138872091,3,14,69,16,7,-4,-23,12
1523054138872091,-7,-15,-8,-14,-9,-7,-23,-41
1523054138873596,12,19,40,17,9,6,23,31
1523054138873596,-11,-22,-84,-30,-11,-1,-32,-21
1523054138885627,5,14,44,24,8,2,18,7
1523054138885627,0,7,10,5,0,1,-10,-38
1523054138894617,-1,2,-2,3,1,-3,-14,9
1523054138894617,3,2,84,5,-3,-2,27,45
1523054138909710,-8,-22,-74,-22,-10,-1,-3,8
1523054138909710,2,6,11,7,4,3,19,52
1523054138911161,-3,-6,33,-5,-1,-3,2,-50
1523054138911161,-5,0,38,5,-3,-7,4,4
1523054138931714,-1,-1,-44,-4,1,-8,-20,-21
1523054138931714,7,11,22,17,8,3,43,22
1523054138933719,-8,-14,-91,-31,-11,6,-40,-11
1523054138933719,-2,-14,-81,-8,-3,1,18,37
1523054138945752,-1,4,69,4,1,-2,-29,26
1523054138945752,-3,-8,-30,-6,0,-4,-32,-82
1523054138954777,6,17,78,17,8,4,34,94
1523054138954777,0,-2,-16,-15,-7,-6,-34,-68
1523054138969407,-6,-13,-34,-2,-5,-5,5,19
1523054138969407,3,4,3,7,6,12,31,12
1523054138971380,2,1,9,3,-2,-1,9,-40
1523054138971380,-5,-8,7,-2,-4,-20,-34,-18
1523054138991933,7,11,36,14,6,13,47,18
1523054138991933,1,5,56,7,3,1,-11,5
1523054138993439,-12,-19,-10,-21,-15,-15,0,-74
1523054138993439,-6,-4,-17,4,-6,-3,29,79
1523054139005468,4,6,25,-1,0,-6,-56,-8
1523054139005468,1,-2,-29,-4,-4,-1,20,10
1523054139014493,-2,5,11,19,10,8,-12,76
1523054139014493,4,-2,-36,-13,-4,4,40,-38
1523054139029532,-3,3,-1,8,2,-2,-11,-34
1523054139029532,-2,-2,-34,-3,0,4,7,-15
1523054139031094,-4,-11,-54,-19,-9,-6,23,-21
1523054139031094,-5,0,10,0,-3,-5,-17,2
1523054139052130,4,0,1,5,5,5,-8,-13
1523054139052130,-4,-12,-42,-13,-6,-8,13,28
1523054139053635,7,14,42,11,4,2,-8,-12
1523054139053635,2,6,44,7,4,-10,-35,-3
1523054139065683,-2,-3,-48,-10,0,26,96,1
1523054139065683,-5,-5,5,-5,-6,-6,-19,6
1523054139074654,0,1,0,3,-2,-3,-17,15
1523054139074654,0,1,13,-1,2,4,-10,18
1523054139089694,-2,0,21,7,2,0,23,-23
1523054139089694,-4,-9,-19,-6,-6,-4,-14,36
1523054139091197,0,-6,6,0,0,5,0,-45
1523054139091197,-4,-3,1,3,1,4,62,47
1523054139111751,1,3,9,-3,-3,5,-67,9
1523054139111751,-1,-1,-12,-3,0,4,8,-21
1523054139113757,-9,-7,0,-1,-4,-3,-9,-26
1523054139113757,20,5,15,8,4,9,31,35
1523054139125789,-9,3,-11,-6,-3,-16,-54,-13
1523054139125789,-7,-25,-7,-4,-6,-15,-14,9
1523054139134849,-7,9,12,6,5,11,26,-9
1523054139134849,5,6,2,-5,-3,0,-19,-42
1523054139149351,-5,13,11,2,-4,-17,-21,-28
1523054139149351,24,44,-1,-3,-2,12,11,76
1523054139150855,-13,-58,-2,-6,-3,-3,7,4
1523054139150855,-16,5,-2,-2,-3,-6,-16,-62
1523054139171913,-3,-6,-5,-4,-4,-6,-9,10
1523054139171913,0,17,4,-1,0,-7,-24,-11
1523054139173918,11,19,5,4,0,-2,-26,15
1523054139173918,17,23,6,6,5,14,25,-9
1523054139194505,-12,-40,-1,-2,-2,-8,-3,2
1523054139194505,-18,-33,-10,-1,0,-1,1,-2
1523054139196010,11,35,6,-2,-4,-5,7,8
1523054139196010,-5,-12,-1,-2,0,-6,-40,5
1523054139209011,1,6,2,-6,-5,-12,-2,-22
1523054139209011,3,-1,-1,0,0,14,40,9
1523054139215584,-4,-7,0,2,0,-6,15,-42
1523054139215584,-9,-13,0,6,4,2,-47,22
1523054139232073,7,8,0,-3,-5,-10,19,27
1523054139232073,0,-1,1,-3,-1,6,12,-27
1523054139233577,-1,-1,-30,-3,-1,-6,-43,0
1523054139233577,1,1,-1,-3,-2,1,29,2
1523054139254633,3,3,-6,2,1,3,11,10
1523054139254633,-3,0,37,3,2,-4,-40,-27
1523054139256192,-13,-22,-46,-23,-14,-3,26,1
1523054139256192,-2,-2,26,2,0,-2,-10,11
1523054139268221,8,10,21,15,5,9,3,1
1523054139268221,-10,-13,26,-19,-6,-8,9,-61
1523054139277193,6,12,30,6,2,-4,-29,57
1523054139277193,1,-7,-69,-5,1,12,10,-20
1523054139291734,-5,-6,35,-9,-2,6,23,-6
1523054139291734,2,5,-76,-1,-1,-10,-31,0
1523054139293773,2,-2,-19,-3,2,8,22,-2
1523054139293773,-2,-1,40,2,-4,-6,-10,-13
1523054139314345,1,5,22,3,9,12,17,-45
1523054139314345,-1,-6,-47,-1,-2,-13,-52,52
1523054139316350,-1,-12,5,-12,-10,7,21,16
1523054139316350,-2,3,8,6,2,-1,12,1
1523054139328883,5,6,-60,0,3,7,23,-48
1523054139328883,-6,-3,89,10,-4,-3,0,5
1523054139335849,-5,1,7,13,4,-7,-18,-18
1523054139335849,4,3,5,5,2,-5,-14,26
1523054139351947,-10,-14,30,-20,-14,-15,-30,4
1523054139351947,5,10,10,16,6,10,39,-10
1523054139353395,-5,-10,-98,-29,-11,-15,-24,-20
1523054139353395,-3,-5,60,1,-2,9,46,-3
1523054139374452,-2,-7,-18,1,2,-5,-15,6
1523054139374452,-3,-3,-8,-4,-1,-1,29,51
1523054139375955,7,17,73,18,8,-3,-44,-12
1523054139375955,1,1,-3,-4,-2,-1,19,43
1523054139389046,0,-7,-36,-10,-7,-2,-12,34
1523054139389046,1,0,-34,0,4,2,-4,-37
1523054139395542,12,28,127,31,11,15,45,2
1523054139395542,-14,-22,-106,-34,-14,-13,-35,-55
1523054139412050,-4,-9,0,1,-8,-3,19,35
1523054139412050,0,5,35,7,2,-8,-82,-38
1523054139413554,5,6,27,8,2,7,21,27
1523054139413554,2,1,4,5,3,6,-1,-18
1523054139434612,2,2,13,4,6,5,18,9
1523054139434612,-3,-4,-17,-8,-5,-5,18,1
1523054139436115,-3,-4,-38,-3,-3,-5,5,11
1523054139436115,-2,-6,30,-6,-5,1,-15,5
1523054139448648,3,7,65,0,-1,9,16,7
1523054139448648,-6,-15,-29,-20,-7,-2,14,6
1523054139455667,-2,-5,-17,-3,0,-4,-5,-37
1523054139455667,-8,-4,9,7,-5,-7,7,-4
1523054139472210,2,3,12,6,1,2,-8,27
1523054139472210,-4,-2,20,4,-1,1,19,8
1523054139473773,5,2,-43,-1,3,5,-37,-4
1523054139473773,4,6,8,7,5,-2,-10,-8
1523054139494305,-2,-5,-46,-5,-4,-11,-17,-62
1523054139494305,-1,-2,2,-1,-2,8,36,41
1523054139496311,0,5,72,12,2,-9,-19,22
1523054139496311,-14,-24,-13,-26,-8,-7,-49,-21
1523054139508809,-4,3,19,5,4,-3,3,-108
1523054139508809,7,9,28,0,-1,-5,18,102
1523054139515826,11,16,59,21,9,11,10,8
1523054139515826,-23,-43,-74,-46,-25,-15,-11,-31
1523054139531927,3,8,28,6,4,4,17,10
1523054139531927,-3,-2,14,-4,-2,-10,-46,-49
1523054139533375,-4,-4,-19,-2,-2,-2,16,-52
1523054139533375,7,14,3,18,11,10,25,21
1523054139554429,-1,-8,-48,-19,-13,-5,-23,73
1523054139554429,3,5,-16,2,1,-4,-19,-30
1523054139555933,-6,-6,-12,-4,-1,1,-17,-19
1523054139555933,8,5,-29,-5,0,12,80,39
1523054139568969,-1,7,21,8,0,-11,-8,14
1523054139568969,-2,-6,2,2,2,1,-42,-14
1523054139575487,5,0,-17,-9,-5,1,44,21
1523054139575487,-1,9,23,7,1,-11,-21,-75
1523054139592031,-5,-9,-13,-3,-3,3,2,79
1523054139592031,-12,-19,-18,-4,-3,4,33,3
1523054139593535,6,16,3,-7,-1,-4,-14,-18
1523054139593535,1,-17,19,15,8,23,63,-8
1523054139614628,0,2,-19,-2,-1,-4,12,-7
1523054139614628,-1,11,-18,-9,-8,-25,-88,-51
1523054139616095,-23,-44,3,-4,-2,7,37,34
1523054139616095,19,40,28,13,9,3,-32,-74
1523054139628125,17,2,6,3,-3,-13,-24,105
1523054139628125,-6,7,-5,5,8,27,99,43
1523054139637149,-10,-39,-21,-17,-9,-4,10,-63
1523054139637149,1,31,4,-2,-2,-15,-94,32
1523054139652691,-13,-22,-6,-1,1,6,-14,-45
1523054139652691,12,7,4,-1,-3,-5,-3,-21
1523054139654194,4,-1,-18,-5,-4,-6,30,33
1523054139654194,-8,-14,5,5,1,-3,1,3
1523054139674248,2,7,-2,-7,-6,-16,-62,-15
1523054139674248,6,14,10,7,6,16,43,1
1523054139676255,-7,-2,-10,-2,-1,4,-2,-2
1523054139676255,3,-1,-8,4,-1,-5,16,35
1523054139688285,-1,4,2,1,1,-1,-14,2
1523054139688285,0,-6,-1,-5,-1,3,32,-7
1523054139697310,-4,-1,-11,0,2,-1,-10,-6
1523054139697310,-4,-3,2,3,-1,1,2,12
1523054139711848,0,6,-1,-3,-3,1,18,-18
1523054139711848,-4,-10,-1,-2,-3,-7,-30,-14
1523054139713855,6,11,5,-2,-5,-15,-15,18
1523054139713855,0,-1,2,-2,3,12,20,11
1523054139734408,-9,-9,12,-4,-2,5,25,-22
1523054139734408,3,4,3,4,0,-5,-13,-19
1523054139735913,-3,4,19,0,1,-1,-14,-8
1523054139735913,6,2,-50,-9,-5,-4,18,81
1523054139747944,6,3,17,3,1,6,18,-23
1523054139747944,-7,-10,36,-2,-4,-4,-19,-14
1523054139764488,2,11,37,3,2,6,21,-39
1523054139764488,-2,3,-4,11,3,-6,-55,-13
1523054139772008,2,-2,27,-6,-2,5,72,33
1523054139772008,2,-2,-95,3,-1,-4,-44,-8
1523054139773553,4,13,49,22,9,5,4,-8
1523054139773553,-4,-1,-2,-22,-9,-9,17,0
1523054139794602,-5,-12,-10,9,3,4,-16,-16
1523054139794602,1,4,7,9,2,6,21,-2
1523054139796074,-4,-14,-110,-27,-4,-5,-21,12
1523054139796074,-4,-1,88,6,-1,0,32,-1
1523054139808105,6,18,80,18,8,9,-11,-10
1523054139808105,-11,-25,-78,-41,-10,-4,7,-30
1523054139817131,-7,-2,28,13,-7,-9,-33,-66
1523054139817131,5,2,15,7,2,-9,-25,86
1523054139832168,1,-2,-62,-7,2,6,20,-26
1523054139832168,2,3,100,9,0,1,8,19
1523054139833672,1,-1,-102,-17,-5,-7,-11,18
1523054139833672,-5,-13,-85,-19,-3,1,38,-51
1523054139854728,-1,9,46,14,3,5,-27,4
1523054139854728,3,9,5,11,4,-6,-23,43
1523054139856233,-3,-7,45,-21,-6,-8,-5,-7
1523054139856233,-4,-3,51,12,-4,4,-23,-23
1523054139868264,-4,-11,-97,-20,-2,2,42,27
1523054139868264,3,6,26,5,2,1,5,-38
1523054139877289,-6,-6,32,-4,-7,-7,-8,62
1523054139877289,8,10,-31,9,5,2,10,-57
1523054139891829,-7,-9,10,-7,-4,1,7,79
1523054139891829,-14,-13,28,-8,-7,-20,-92,6
1523054139893834,6,2,-11,3,-1,3,50,12
1523054139893834,-1,2,23,4,1,-9,-101,-17
1523054139914387,-6,-12,-96,-20,-8,-10,47,-56
1523054139914387,1,2,18,3,-1,1,17,25
1523054139915892,5,9,53,4,2,0,6,35
1523054139915892,-6,-8,32,0,-4,0,26,-102
1523054139928426,-1,7,37,4,3,3,-18,69
1523054139928426,14,16,18,17,7,6,11,4
1523054139936949,-14,-26,-63,-31,-14,-4,-17,-34
1523054139936949,3,3,20,8,3,4,23,29
1523054139951989,-1,7,68,12,3,-5,-26,-52
1523054139951989,2,-2,-92,-10,-1,3,24,-15
1523054139953493,-4,-6,-25,-8,0,18,48,55
1523054139953493,1,0,10,0,-3,-9,-3,31
1523054139974547,2,-4,-7,-3,-3,-8,-52,-25
1523054139974547,-2,-4,-12,-4,3,8,22,2
1523054139976053,4,12,10,3,-1,-9,-30,-34
1523054139976053,-4,-8,-49,-8,-4,-2,11,28
1523054139988117,4,6,22,12,2,4,3,12
1523054139988117,6,13,70,15,8,6,8,-25
1523054139997108,-12,-18,-67,-16,-10,-9,-32,-12
1523054139997108,-1,0,39,3,-2,0,16,17
1523054140012201,0,1,-18,-6,-5,-9,13,-25
1523054140012201,-3,0,-2,2,0,1,10,-46
1523054140013652,1,4,21,12,5,-5,-42,57
1523054140013652,-1,-3,-4,-8,-2,3,17,2
1523054140034708,-5,-5,-2,-2,-3,-3,6,-33
1523054140034708,-5,-6,1,-8,-6,0,4,12
1523054140036212,7,12,16,8,1,-6,-20,-17
1523054140036212,3,-3,6,-3,-1,4,8,21
1523054140048243,-15,-14,-2,-5,-3,-10,-49,-93
1523054140048243,8,5,3,-4,-3,1,40,76
1523054140057269,-12,24,20,5,0,-5,-8,-5
1523054140057269,-14,-53,-10,1,0,5,46,-30
1523054140071807,12,12,-6,-2,0,1,-44,8
1523054140071807,-15,-7,-22,-11,-8,-6,3,73
1523054140073811,10,-24,14,7,0,-8,-43,-39
1523054140073811,3,44,9,5,6,8,56,20
1523054140094366,-3,-30,-1,0,1,11,9,65
1523054140094366,4,-9,3,-11,-6,-6,-10,-24
1523054140095871,-15,-4,5,1,0,4,27,-12
1523054140095871,6,10,3,6,1,-3,-67,-5
1523054140116928,9,27,0,-5,-4,11,44,6
1523054140116928,-12,-11,-1,2,-1,-8,-41,21
1523054140118432,10,15,0,-3,-1,5,53,-9
1523054140118432,5,-2,-1,-2,-3,-8,-36,-26
1523054140131464,-7,5,-1,-1,-1,-13,-32,18
1523054140131464,5,12,3,-1,-1,11,36,-27
1523054140138020,4,-4,6,5,3,5,3,4
1523054140138020,-7,-7,-5,-3,-2,-6,-24,18
1523054140154580,3,10,-2,-7,-5,-1,8,-9
1523054140154580,-13,-21,3,1,1,-3,-4,-36
1523054140156031,1,1,3,6,2,1,-13,-10
1523054140156031,1,2,-16,-2,-2,-4,-6,36
1523054140177086,-3,-10,7,-1,-2,4,37,-14
1523054140177086,2,2,-3,-4,-2,-8,-52,-1
1523054140178591,1,0,-2,2,0,1,2,16
1523054140178591,-4,5,17,-1,-3,-10,-33,-29
1523054140191126,-5,-12,-29,-3,2,-1,3,-14
1523054140191126,3,2,-8,4,7,19,50,5
1523054140198179,-3,-3,-21,-7,-9,-5,-4,0
1523054140198179,2,3,5,8,-2,-5,-8,-9
1523054140214686,-4,-7,-24,-9,-4,-8,-14,1
1523054140214686,-2,-3,-31,-5,-1,-9,-13,-15
1523054140216248,-2,0,51,2,-2,-11,-17,-2
1523054140216248,-1,-10,-65,-11,-1,12,23,1
1523054140236745,0,7,26,9,2,-4,-29,2
1523054140236745,1,4,-50,2,3,1,4,-18
1523054140238750,-1,-13,-54,-19,-5,-2,14,2
1523054140238750,-2,1,28,7,0,-3,19,13
1523054140251317,6,8,41,4,5,0,-70,-2
1523054140251317,-11,-26,-10,-19,-18,-9,2,-21
1523054140258302,7,11,7,13,9,11,6,5
1523054140258302,-2,3,7,-4,-1,-1,16,-11
1523054140274347,4,9,65,11,7,6,20,21
1523054140274347,-11,-20,61,-17,-19,-20,-21,-13
1523054140276350,1,2,2,-2,1,8,49,54
1523054140276350,0,1,14,4,4,-3,-40,-1
1523054140296961,4,10,82,15,5,-11,-5,-4
1523054140296961,-2,-3,-64,-8,2,11,-1,4
1523054140298914,10,13,-53,12,8,5,-5,-24
1523054140298914,-22,-41,-43,-59,-30,-22,-20,33
1523054140311445,-4,-6,-74,-7,-5,-3,28,-2
1523054140311445,9,22,127,29,8,-4,-12,-43
1523054140317962,-11,-26,-67,-25,-9,-2,32,26
1523054140317962,1,12,46,12,5,-3,-41,-58
1523054140334648,-3,-10,-16,-10,-6,-5,-9,-35
1523054140334648,0,2,-6,2,1,4,48,96
1523054140336011,7,11,-9,12,7,4,-9,-15
1523054140336011,2,1,-12,-3,-1,-5,-12,-29
1523054140357067,-11,-16,-70,-15,-14,1,48,-27
1523054140357067,8,13,19,16,9,11,19,-8
1523054140358571,-5,-5,31,1,-3,-10,-108,-17
1523054140358571,2,4,9,1,4,6,33,18
1523054140371288,-1,2,45,9,-1,0,-5,-79
1523054140371288,2,0,-42,-6,1,2,10,39
1523054140378191,-3,-10,-6,-3,-4,1,38,72
1523054140378191,0,4,79,11,2,3,-24,-21
1523054140394665,3,5,-10,0,1,-1,-7,6
1523054140394665,-8,-13,-19,-19,-11,-11,-10,-29
1523054140396170,-2,5,40,-2,-1,-1,3,-26
1523054140396170,7,10,25,15,8,8,16,24
1523054140417226,-3,-11,-68,-9,-6,-4,9,25
1523054140417226,0,0,6,0,4,6,0,4
1523054140418729,8,21,104,30,12,5,-12,-30
1523054140418729,-14,-32,-76,-39,-21,-8,14,-3
1523054140431262,-3,4,26,8,1,0,-15,14
1523054140431262,0,6,12,7,4,-2,1,0
1523054140438315,1,4,45,5,0,-2,3,9
1523054140438315,5,7,16,10,9,5,-29,3
1523054140454323,-4,-9,-24,-12,-8,-3,22,14
1523054140454323,1,5,25,12,3,-2,-41,-18
1523054140455828,-10,-21,-59,-31,-13,-6,25,-6
1523054140455828,-1,4,-3,1,-3,-3,2,-42
1523054140476886,-2,-2,-14,-1,1,0,-18,-28
1523054140476886,8,7,28,4,4,3,25,61
1523054140478388,-5,-7,-35,-13,-8,-2,0,-25
1523054140478388,2,3,-42,6,7,9,-5,-5
1523054140491424,-4,-6,-13,-7,-6,-7,28,-18
1523054140491424,3,7,28,8,4,-1,-75,-41
1523054140497941,5,9,53,14,4,-6,-2,24
1523054140497941,-4,-8,-24,-6,-3,-1,13,0
1523054140514485,2,5,59,5,4,11,17,29
1523054140514485,8,14,54,21,7,2,6,2
1523054140515989,-23,-42,-99,-48,-23,-12,-5,-21
1523054140515989,0,1,34,-4,-2,-1,32,-11
1523054140537044,7,11,49,12,8,10,10,43
1523054140537044,-2,-2,36,-3,-5,-14,-68,-12
1523054140538584,1,4,7,6,1,0,5,-13
1523054140538584,1,6,-16,5,7,6,43,-85
1523054140551584,-6,-14,-25,-6,-5,-1,7,124
1523054140551584,0,-5,-40,-15,-7,-1,30,-26
1523054140558101,6,6,19,11,2,-4,-29,-33
1523054140558101,-6,-5,-5,-1,-4,-9,-9,14
1523054140574644,0,6,12,6,6,13,7,-38
1523054140574644,-9,-7,-42,-10,-8,-20,-75,-12
1523054140576149,8,13,36,8,4,7,64,17
1523054140576149,4,-7,5,8,3,26,65,48
1523054140597204,6,24,-18,-7,-2,0,4,-4
1523054140597204,-33,-43,-29,-12,-9,-30,-66,-16
1523054140598708,4,2,-1,3,4,17,34,44
1523054140598708,-15,-4,3,-1,-1,-8,-27,-73
1523054140610774,3,-11,-5,3,1,-5,-9,12
1523054140610774,29,45,-13,-11,-5,-7,19,12
1523054140619799,-22,-22,17,12,5,16,8,28
1523054140619799,10,21,-6,0,-3,-4,1,49
1523054140634303,1,8,0,-7,-3,-6,-20,-7
1523054140634303,5,25,-4,4,2,9,32,-26
1523054140636308,4,-14,-1,-1,-1,-9,-43,-36
1523054140636308,-2,25,0,2,0,2,6,-4
1523054140656863,-11,-38,-17,-16,-12,-14,-34,-39
1523054140656863,-8,-25,-14,-6,-1,7,39,8
1523054140658367,6,8,5,3,2,-2,6,-11
1523054140658367,4,3,2,3,-1,-4,-10,32
1523054140670400,2,17,6,1,-3,-7,-24,-18
1523054140670400,-12,-22,-8,1,2,9,-10,-71
1523054140679924,0,3,-1,0,-2,-3,11,73
1523054140679924,2,-14,-5,-3,1,-2,-23,42
1523054140694517,-2,3,-2,3,2,2,18,-7
1523054140694517,2,0,-3,-6,-4,0,11,-4
1523054140695969,-6,-1,-3,-4,-5,-11,-20,-48
1523054140695969,4,1,0,0,-4,-12,-41,12
1523054140717024,-4,-5,-2,6,7,7,12,-11
1523054140717024,-2,-6,-1,-1,-1,-10,-10,12
1523054140718528,-3,1,4,-1,-3,2,-11,-17
1523054140718528,-3,-8,-34,-10,-5,-5,2,6
1523054140730614,1,-4,1,-2,-3,2,-1,6
1523054140730614,1,5,-2,6,2,4,32,9
1523054140739583,-6,-9,-47,-15,-12,-5,25,2
1523054140739583,0,-3,20,3,0,-5,-27,-11
1523054140754662,0,-2,-27,1,5,6,5,-2
1523054140754662,1,5,-12,3,1,5,18,-14
1523054140756181,2,4,-44,-9,-2,0,6,20
1523054140756181,3,2,10,12,6,10,37,32
1523054140777194,-9,-6,52,-10,-7,-8,-9,-48
1523054140777194,-5,-14,-90,-17,-6,3,25,33
1523054140778689,6,11,99,6,1,-3,-16,8
1523054140778689,-4,-3,-2,1,0,-10,-20,-1
1523054140790719,-2,-3,9,-6,-3,-8,-11,0
1523054140790719,6,7,69,12,6,17,2,28
1523054140799799,-2,3,48,6,2,-8,-3,-35
1523054140799799,-2,-1,-29,-2,-4,-1,-29,-21
1523054140814335,-3,-4,16,-5,-4,0,8,37
1523054140814335,-1,-2,-30,4,-1,-2,-27,17
1523054140816287,-1,-12,-98,-15,0,7,31,-16
1523054140816287,1,4,49,13,6,12,64,-27
1523054140836842,2,1,-28,4,1,-1,-22,18
1523054140836842,-1,-4,25,-5,-4,2,14,31
1523054140838848,3,9,-50,0,1,-1,-29,-9
1523054140838848,-8,-20,-88,-21,-12,-21,-36,-20
1523054140850379,0,2,3,-2,3,8,32,-24
1523054140850379,1,5,93,13,2,-1,11,6
1523054140859917,-5,-9,-18,-17,-8,-7,-45,21
1523054140859917,3,-3,-20,-1,1,-3,7,8
1523054140874442,16,28,71,29,18,14,11,11
1523054140874442,-33,-53,-5,-51,-35,-26,-17,-55
1523054140875946,7,13,63,21,13,9,0,34
1523054140875946,-3,-1,-4,-4,-2,-7,-50,-21
1523054140897003,8,9,61,15,5,11,45,40
1523054140897003,2,4,-32,11,3,-4,1,-44
1523054140898507,0,4,12,9,1,8,1,-1
1523054140898507,-6,-12,-28,-21,-8,5,5,-17
1523054140910577,3,7,-17,4,0,-4,1,17
1523054140910577,6,13,113,11,9,6,4,6
1523054140919563,-13,-20,-10,-23,-12,-18,-12,-37
1523054140919563,10,18,103,28,15,17,15,31
1523054140934602,-10,-18,-30,-20,-12,-6,-12,-44
1523054140934602,4,3,-16,4,2,3,12,25
1523054140936107,7,15,22,13,2,-2,-19,25
1523054140936107,-1,1,11,-6,-3,1,-7,3
1523054140957162,-15,-20,-15,-16,-12,-11,-37,-106
1523054140957162,3,7,-47,8,3,2,44,112
1523054140958667,1,2,39,9,2,-4,-71,-17
1523054140958667,4,1,-3,-5,0,1,18,-17
1523054140970699,-3,-5,-16,-4,-6,-2,-22,-11
1523054140970699,5,8,10,7,7,10,36,-32
1523054140979723,0,2,41,-3,-3,10,38,-14
1523054140979723,-12,-27,-57,-36,-16,-8,-11,36
1523054140994297,5,9,5,10,7,-9,-16,14
1523054140994297,-3,-7,-11,-4,4,16,19,-14
1523054140996302,-1,1,28,2,-1,-5,-31,3
1523054140996302,-4,-2,-8,7,1,-20,-55,3
1523054141016823,-1,-3,-11,-5,-4,-2,7,-11
1523054141016823,-5,-8,-87,-22,-10,-3,-1,19
1523054141018827,7,10,3,19,7,-1,22,8
1523054141018827,-8,-7,56,-14,-7,-8,-36,-31
1523054141030858,-2,-8,-66,-11,-10,-11,-72,23
1523054141030858,0,7,50,5,2,7,32,-46
1523054141039882,0,2,13,0,-1,-4,7,-41
1523054141039882,2,0,-32,8,6,13,28,67
1523054141054420,-5,-4,7,-9,-8,-16,-9,21
1523054141054420,-1,-3,-5,-5,-3,-3,-24,-46
1523054141055925,0,2,-8,-1,1,1,-8,5
