timestamp,emg1,emg2,emg3,emg4,emg5,emg6,emg7,emg8
1523144254641824,-11,-12,44,-1,-4,0,-3,14
1523144254641824,8,9,-76,-5,3,12,26,-22
1523144254657422,-7,-7,65,5,-5,-8,-11,23
1523144254657422,7,3,-16,5,7,5,-14,-17
1523144254657866,-3,-15,4,-12,-11,-7,-2,21
1523144254657866,-11,1,39,1,-3,-11,-20,-73
1523144254679926,3,2,-33,2,4,9,1,0
1523144254679926,-6,-9,-79,-2,-1,-4,1,41
1523144254681431,12,11,77,15,7,2,-3,2
1523144254681431,-8,-10,-45,-8,-5,0,22,-30
1523144254693463,3,-3,16,0,0,4,6,70
1523144254693463,6,21,102,15,5,-1,10,-35
1523144254702486,-18,-36,-85,-35,-17,-7,-18,-70
1523144254702486,4,11,36,6,1,-5,-10,35
1523144254717256,-2,-2,-17,-2,-1,-5,-17,-17
1523144254717256,3,-4,40,-3,3,8,21,54
1523144254719030,15,27,83,29,8,3,-22,2
1523144254719030,-18,-37,-69,-40,-18,-7,-3,-17
1523144254739815,1,0,30,-2,1,-3,-2,26
1523144254739815,-4,11,64,10,2,3,-20,-92
1523144254741590,-7,-25,-52,-26,-11,-9,-4,5
1523144254741590,7,20,27,18,6,3,-16,21
1523144254753622,-9,-27,-122,-16,-7,-7,2,12
1523144254753622,11,-4,-4,-2,-6,-3,8,47
1523144254762648,13,21,60,15,11,8,29,5
1523144254762648,-31,-9,5,1,-2,-5,-40,-50
1523144254777188,5,4,43,6,1,-5,-14,13
1523144254777188,-4,-5,-28,-7,-4,-4,4,55
1523144254779194,-1,-8,-71,-9,-4,1,15,-4
1523144254779194,16,4,2,2,0,-2,14,2
1523144254799926,5,14,34,6,3,12,29,22
1523144254799926,-1,-16,-11,-6,-2,-2,-3,5
1523144254801249,-15,0,-8,3,4,0,-15,-70
1523144254801249,4,-3,-5,-9,-2,-4,8,96
1523144254822453,-7,1,9,-3,-2,2,10,-122
1523144254822453,3,4,-36,-1,-3,-3,-12,61
1523144254824339,7,4,48,9,2,1,8,14
1523144254824339,2,5,-33,4,6,4,13,-5
1523144254837499,3,-3,-8,-7,-4,1,-24,31
1523144254837499,-7,-8,-7,-1,-4,-2,5,-59
1523144254838850,-1,8,26,7,2,-4,-19,-4
1523144254838850,0,-3,4,1,-1,-1,2,15
1523144254859930,4,5,33,3,5,11,35,17
1523144254859930,-3,4,44,4,2,-2,-11,-26
1523144254861416,-6,-18,-90,-17,-4,0,-3,36
1523144254861416,10,13,56,13,2,-2,-6,-19
1523144254882522,-5,-6,-11,-4,-2,-4,-7,2
1523144254882522,-7,0,15,-3,-2,-4,-13,15
1523144254883970,1,6,37,1,1,3,8,-61
1523144254883970,-5,-14,-30,-13,-10,-7,-5,33
1523144254896505,-6,-4,4,4,1,-8,-16,-33
1523144254896505,5,8,-26,0,2,2,5,36
1523144254903522,5,1,-7,4,-4,-9,-2,76
1523144254903522,-3,3,4,-1,1,8,10,-38
1523144254920093,-3,10,36,8,2,-4,-11,-44
1523144254920093,2,1,14,1,1,0,3,18
1523144254921571,-3,-12,-29,-14,-9,-6,-2,0
1523144254921571,0,0,15,4,0,-2,-2,-1
1523144254942214,2,0,-19,1,2,1,3,37
1523144254942214,-4,-5,-25,-2,2,2,2,-44
1523144254944130,5,-9,45,9,2,6,-15,23
1523144254944130,10,5,-1,-1,-1,4,34,66
1523144254956715,-7,-7,25,1,-3,-3,0,-32
1523144254956715,-10,-3,-40,-13,-6,-1,-6,-49
1523144254963718,-3,14,18,5,1,0,2,10
1523144254963718,4,-18,29,2,2,4,3,14
1523144254979772,4,-5,-12,0,2,-3,-9,5
1523144254979772,5,-30,-17,-6,-2,2,21,86
1523144254981228,-3,8,-3,-2,-4,-5,-4,-93
1523144254981228,6,10,20,3,2,1,-17,46
1523144255002346,5,-8,-37,-7,-4,-7,0,31
1523144255002346,-3,15,13,-2,1,2,-4,-3
1523144255003790,-13,-18,10,3,2,3,7,9
1523144255003790,3,-19,-8,-5,-2,-7,-9,-27
1523144255016823,-16,-8,-11,-1,1,4,0,-4
1523144255016823,11,9,-24,-1,-4,-4,-4,-37
1523144255023342,46,9,34,-1,-3,-1,-5,27
1523144255023342,-85,29,-18,0,0,-5,-8,-52
1523144255039932,40,-5,33,-2,-4,-2,-2,23
1523144255039932,0,-34,-39,-5,-1,0,6,7
1523144255041391,36,22,-25,1,-1,-3,-5,30
1523144255041391,-4,2,56,-7,-7,0,-3,5
1523144255062443,2,12,-31,-2,7,-1,-5,-4
1523144255062443,-21,1,11,-5,-5,-5,-4,-16
1523144255063948,-2,0,2,-4,-3,-2,3,7
1523144255063948,4,5,-71,4,7,2,5,1
1523144255076502,-9,15,69,-2,-7,1,-3,1
1523144255076502,2,-4,13,1,-1,-7,-7,-19
1523144255083501,-15,-3,-7,0,2,0,-6,24
1523144255083501,17,3,-1,0,-1,8,-1,5
1523144255099542,-7,5,36,-1,-2,-3,13,21
1523144255099542,-2,-18,-60,-3,1,-2,-15,-112
1523144255101551,-40,-3,46,1,-5,-9,-12,59
1523144255101551,10,-7,-4,2,3,1,6,24
1523144255122156,27,-13,-40,-2,-2,3,9,42
1523144255122156,-1,15,30,2,-1,-1,3,2
1523144255124110,2,0,-9,-4,-3,-3,-13,-35
1523144255124110,4,1,63,0,0,-10,-14,-42
1523144255136188,-15,-13,-92,-8,-4,0,-6,6
1523144255136188,6,17,60,7,-2,0,3,20
1523144255145168,-5,-13,-80,-7,2,0,8,-23
1523144255145168,4,4,81,14,0,-2,-1,3
1523144255159702,-6,-3,-40,-11,-1,5,19,-19
1523144255159702,2,-13,-29,-8,-6,-6,0,65
1523144255161207,2,20,32,16,10,10,16,-57
1523144255161207,-2,-17,-45,-11,-8,-12,-28,-11
1523144255182304,-8,8,46,14,1,-3,-3,21
1523144255182304,-12,-18,-78,-11,0,10,11,12
1523144255183769,-11,7,28,5,0,1,14,-17
1523144255183769,10,2,19,4,2,-1,-1,8
1523144255195798,2,-5,-17,-5,-4,-9,-12,-69
1523144255195798,-4,-3,-25,3,0,-5,-3,50
1523144255204822,5,-3,73,-1,-3,0,-2,11
1523144255204822,10,14,13,0,-1,5,9,-18
1523144255219974,-7,-13,-2,-7,-6,-7,-19,7
1523144255219974,5,16,17,1,4,5,11,-19
1523144255221443,2,-3,20,2,1,2,10,24
1523144255221443,2,7,-12,3,3,1,-4,-11
1523144255242528,-19,-24,42,-20,-12,-5,5,-9
1523144255242528,9,19,93,14,6,0,-26,-29
1523144255244001,-5,-5,-8,-5,-3,0,7,27
1523144255244001,3,-21,-41,-11,-4,6,34,115
1523144255256594,-13,6,-10,0,0,-2,-20,-109
1523144255256594,-14,-8,-62,-7,-4,-7,-14,76
1523144255263603,0,12,91,15,7,7,8,-18
1523144255263603,-2,2,-63,-12,-3,-5,-9,-4
1523144255279646,1,-14,-39,0,-6,-4,7,51
1523144255279646,10,21,127,15,7,4,-4,-25
1523144255281602,-11,-26,-117,-27,-10,-7,-9,11
1523144255281602,-1,3,50,1,-5,-1,15,-20
1523144255302215,-1,11,34,7,11,12,6,-10
1523144255302215,14,11,35,10,2,1,-6,67
1523144255304162,-21,-9,-75,-3,-2,1,-12,-71
1523144255304162,-7,-14,24,-3,-5,-8,-30,-1
1523144255316229,0,2,17,-5,-1,5,23,14
1523144255316229,-5,-2,-40,-7,-4,-2,15,-72
1523144255324716,-9,5,82,11,-1,-14,-26,28
1523144255324716,8,-28,-78,-20,-6,-5,-11,-16
1523144255339805,2,6,41,9,3,-2,-18,46
1523144255339805,4,7,27,-2,-2,3,16,8
1523144255341258,-8,-17,-75,-18,-5,-2,6,-3
1523144255341258,0,18,65,14,2,-8,15,-26
1523144255362315,17,17,59,5,8,14,15,65
1523144255362315,-18,-23,-80,-17,-11,-10,-21,-108
1523144255363818,14,6,3,3,0,5,13,58
1523144255363818,-2,7,51,3,2,0,2,-14
1523144255375855,6,2,-3,5,4,-2,-5,20
1523144255375855,-9,-5,5,-3,-3,-3,5,-15
1523144255384875,-5,1,45,1,-3,-7,-14,-14
1523144255384875,1,-2,-1,-3,0,2,-2,22
1523144255399915,-9,-11,-85,-14,-7,-7,5,-23
1523144255399915,1,-7,-25,-6,-1,-1,-18,24
1523144255401419,10,4,11,3,0,3,17,40
1523144255401419,-5,-6,-14,-3,-2,-2,-14,-50
1523144255422513,-6,-2,-4,5,0,-3,-16,-4
1523144255422513,1,3,-14,-5,-1,-3,7,9
1523144255423980,1,-8,-42,-5,-6,-3,-13,4
1523144255423980,8,13,11,7,4,5,0,-12
1523144255436010,7,7,-14,0,-3,-6,-6,20
1523144255436010,5,-9,33,9,4,7,17,23
1523144255445035,4,26,-4,1,0,-3,-18,-71
1523144255445035,-10,-26,4,-5,-1,3,-7,51
1523144255459851,4,17,30,3,0,-3,-7,-48
1523144255459851,-3,-7,-24,-6,-5,-8,-3,52
1523144255461356,10,29,28,3,2,4,7,-1
1523144255461356,-15,-28,-52,-2,-2,-6,0,-29
1523144255482411,-8,2,-8,-4,-2,1,-1,23
1523144255482411,5,1,27,-1,-1,-3,7,-9
1523144255483917,-4,-5,-33,-4,-3,8,0,-6
1523144255483917,-18,-10,-11,4,3,-1,0,-3
1523144255495948,-1,-27,20,0,-1,-3,0,-19
1523144255495948,6,10,7,0,-2,0,-7,-20
1523144255504972,1,-18,-50,0,1,-1,5,16
1523144255504972,7,16,3,-2,-2,0,-6,1
1523144255520111,-6,-2,15,3,-1,0,3,-13
1523144255520111,-8,-1,-28,0,0,-2,-10,-8
1523144255521729,8,-34,63,-2,0,0,8,27
1523144255521729,-1,18,-15,-5,-6,-2,-4,-10
1523144255542360,-1,15,-20,-2,-2,-4,-7,0
1523144255542360,-2,-17,-6,-4,0,1,2,13
1523144255543865,-7,3,8,6,7,-4,-5,-17
1523144255543865,3,2,11,0,-1,2,8,-16
1523144255555897,-3,-7,-22,-3,0,-3,-8,-9
1523144255555897,0,0,23,-2,-3,-4,-9,14
1523144255564921,11,-3,-4,-1,-3,2,18,61
1523144255564921,-1,7,5,2,0,-1,-3,-72
1523144255580111,0,5,-5,-4,1,-5,-10,-21
1523144255580111,6,-1,4,0,0,1,-2,29
1523144255581465,-5,14,-4,-1,-2,1,14,5
1523144255581465,-9,-29,-16,-5,-5,-7,-32,6
1523144255602581,-2,-6,5,3,-1,3,7,33
1523144255602581,-2,-4,-14,-1,-3,-5,-2,-46
1523144255604025,5,12,42,-5,-2,-5,-12,39
1523144255604025,3,12,25,2,0,15,28,7
1523144255616242,-5,-14,-34,-1,-2,0,4,-30
1523144255616242,-5,1,-43,-2,0,5,-5,20
1523144255625081,-6,-12,-32,-4,-7,-9,-7,-14
1523144255625081,3,5,-51,0,2,0,5,-7
1523144255639622,-1,1,45,2,-5,-2,-1,25
1523144255639622,8,21,35,12,6,6,17,23
1523144255641625,1,-22,-9,-17,-4,-1,9,-51
1523144255641625,2,13,52,14,6,1,1,14
1523144255662181,-1,4,-62,-5,1,-3,-24,-60
1523144255662181,3,-3,-29,0,-6,-11,-8,11
1523144255664186,2,8,51,9,-2,-1,5,23
1523144255664186,-2,3,-15,-3,-1,2,11,20
1523144255676219,-2,-15,-59,2,-1,1,2,7
1523144255676219,-12,-12,-21,0,1,6,23,-5
1523144255684740,10,-8,-35,0,-2,-3,-16,-34
1523144255684740,9,19,44,7,2,-3,-8,5
1523144255699780,1,15,71,7,2,-1,-3,13
1523144255699780,-7,-18,-116,-15,-6,-4,3,-19
1523144255701284,-6,2,63,5,2,2,2,24
1523144255701284,6,10,30,0,-3,-5,2,93
1523144255722393,-16,-21,-36,-20,-5,6,3,-105
1523144255722393,-2,5,64,0,0,-1,-3,76
1523144255723844,-6,1,25,-7,-3,-4,-8,-7
1523144255723844,5,-12,-38,-6,-5,2,15,24
1523144255744899,-2,-19,-28,-13,-7,-4,21,68
1523144255744899,-4,14,74,8,4,3,-6,-98
1523144255746404,-6,10,-73,3,4,2,-14,-33
1523144255746404,-10,-23,14,-8,-7,-11,-23,-37
1523144255759941,14,24,120,18,7,10,28,57
1523144255759941,-2,-13,-63,-23,-9,-7,-20,0
1523144255761444,7,-2,0,8,2,4,18,73
1523144255761444,-7,9,12,1,1,-5,-23,-58
1523144255782502,-15,-5,-33,-6,-5,-8,-11,-56
1523144255782502,3,13,64,13,3,-2,-6,23
1523144255784010,-4,-15,-110,-17,-4,-5,-10,-9
1523144255784010,3,-4,-36,-10,-1,8,23,30
1523144255805066,2,12,87,18,3,1,-12,14
1523144255805066,14,3,13,-5,0,2,4,4
1523144255806566,-11,-27,-9,-19,-12,-9,0,24
1523144255806566,-7,4,37,3,3,-1,1,-89
1523144255820102,-6,2,-2,0,1,-8,-34,-26
1523144255820102,4,9,48,8,3,1,11,27
1523144255821614,6,11,27,7,1,3,-9,-11
1523144255821614,-6,-25,-106,-19,-7,-5,0,22
1523144255842208,11,15,36,10,4,4,14,-3
1523144255842208,-21,-21,-93,-18,-8,-6,-22,-42
1523144255844165,0,3,-2,7,5,7,16,33
1523144255844165,6,8,61,11,0,-2,2,-10
1523144255864723,-3,-8,-69,-13,-7,-7,7,36
1523144255864723,-5,0,23,-2,-3,-3,-7,-22
1523144255866223,3,7,14,4,1,0,0,-4
1523144255866223,5,12,-24,12,5,4,1,29
1523144255879803,-12,-19,-66,-11,-6,-4,-3,-53
1523144255879803,0,17,116,19,5,-2,-5,1
1523144255881265,-14,-31,-94,-21,-9,-8,4,-14
1523144255881265,9,7,43,2,1,1,5,47
1523144255902437,8,8,19,0,3,0,6,29
1523144255902437,-3,-3,29,4,-2,-1,5,-6
1523144255903929,2,0,2,-1,-2,-4,-12,-1
1523144255903929,-11,-16,-51,-8,-5,-2,-6,-63
1523144255924988,-2,0,14,-1,-1,1,-5,41
1523144255924988,12,-2,-24,-3,1,0,8,-36
1523144255926489,1,17,41,6,2,-1,4,24
1523144255926489,-4,-11,-16,-5,-3,-7,-2,2
1523144255939026,-2,-3,15,2,0,-4,-9,-15
1523144255939026,0,-3,-28,-2,-1,-1,6,15
1523144255946084,9,11,19,2,-2,4,5,-11
1523144255946084,-12,-25,35,0,2,-1,-4,-11
1523144255962585,-5,1,-11,0,-1,-1,-2,13
1523144255962585,-16,-4,44,-4,0,0,7,24
1523144255964090,1,4,-12,-2,-2,-5,-18,-32
1523144255964090,8,7,2,-1,1,0,2,2
1523144255984691,9,10,-17,0,2,0,-8,25
1523144255984691,-9,1,-8,-3,-1,1,2,-5
1523144255986649,-8,23,18,7,2,4,1,-35
1523144255986649,4,-2,24,-1,-2,-4,-13,24
1523144255999225,-2,-4,-3,2,-2,2,4,0
1523144255999225,13,16,-35,-6,-4,-5,-3,22
1523144256006206,-9,-6,13,-3,0,-4,0,-25
1523144256006206,0,4,-30,-2,-2,1,11,17
1523144256022280,1,-7,7,1,0,2,-3,-1
1523144256022280,-1,-3,-13,-3,-3,-3,-6,-14
1523144256024256,1,3,25,4,0,1,6,13
1523144256024256,-7,-1,-17,-3,-1,-4,-4,-2
1523144256044810,-2,-17,7,-5,-4,-1,-1,-6
1523144256044810,1,-5,4,-1,0,-1,-4,-1
1523144256046309,0,-3,-12,2,2,4,-1,2
1523144256046309,0,4,-1,-2,-3,-1,-5,-9
1523144256058367,-1,4,12,-1,-1,-1,2,-7
1523144256058367,2,-5,-14,-1,-1,3,3,0
1523144256067369,-6,-4,2,4,2,3,6,-5
1523144256067369,-2,5,-20,-2,-4,-3,-2,-3
1523144256082640,1,-10,23,0,1,0,1,8
1523144256082640,1,-7,15,-3,1,2,-1,17
1523144256083910,9,8,43,0,-2,-1,0,47
1523144256083910,-3,-5,8,1,1,3,6,-90
1523144256104772,-3,6,-42,-2,-7,-5,4,71
1523144256104772,-12,-13,3,3,-1,-3,-7,-90
1523144256106271,0,4,-31,0,-3,-4,-7,22
1523144256106271,5,-3,15,-3,0,-2,2,49
1523144256119346,5,11,10,1,0,2,9,-3
1523144256119346,7,6,-7,0,1,-1,-6,13
1523144256125827,-8,-20,-32,-5,-2,-3,1,-2
1523144256125827,-1,10,12,4,1,1,1,-7
1523144256142376,-2,-4,-26,-7,-1,-1,3,-18
1523144256142376,-1,-9,-12,-2,-5,-5,-5,17
1523144256143872,-6,20,112,11,2,-3,-13,-32
1523144256143872,-5,-19,-107,-26,-7,-3,-2,3
1523144256164926,-3,-5,58,1,0,0,-1,25
1523144256164926,-4,-2,25,4,-2,-3,-1,-10
1523144256166431,-9,-16,-31,-2,-4,-4,8,-27
1523144256166431,11,24,82,17,5,5,4,38
1523144256179464,-23,-57,-94,-49,-18,-19,-16,-30
1523144256179464,3,12,58,2,-1,3,12,-11
1523144256185983,-9,-6,-34,6,1,1,-5,-24
1523144256185983,-1,8,55,14,4,4,-18,32
1523144256202025,11,19,6,16,5,4,8,-31
1523144256202025,-6,-15,-70,-14,-8,-5,-7,4
1523144256204031,7,0,45,3,0,0,6,50
1523144256204031,2,6,1,-5,-1,1,2,-67
1523144256224584,6,16,11,20,1,-3,5,92
1523144256224584,-15,-27,-71,-26,-7,6,8,-56
1523144256226590,1,-3,24,3,0,-4,-1,19
1523144256226590,-8,9,58,14,4,1,2,-46
1523144256238866,0,-8,-57,-15,-4,1,0,6
1523144256238866,8,17,51,14,5,1,1,-28
1523144256247648,9,5,-10,2,3,1,9,61
1523144256247648,-8,-20,0,-7,-12,-5,-14,19
1523144256262441,12,40,127,29,11,6,-4,-25
1523144256262441,-23,-41,-128,-31,-14,-16,-26,-45
1523144256263690,5,2,70,3,4,9,21,-6
1523144256263690,7,14,36,6,4,-1,11,48
1523144256285322,7,-2,-23,2,-4,-1,1,-53
1523144256285322,11,24,90,24,9,5,10,95
1523144256286767,-12,-39,-114,-43,-17,-10,-25,-52
1523144256286767,5,0,11,2,-2,-6,15,58
1523144256298516,-17,3,52,1,-1,3,-34,-72
1523144256298516,-7,-6,-58,-8,2,-7,-19,-3
1523144256307306,-3,5,48,2,-2,3,9,-18
1523144256307306,9,-3,-29,-8,-4,-1,7,37
1523144256322287,8,-3,-4,-3,-2,0,16,75
1523144256322287,6,8,70,8,3,0,0,-29
1523144256324387,-10,2,1,4,2,0,-18,-40
1523144256324387,-16,-25,-122,-20,-10,-9,-30,-46
1523144256345050,2,8,18,5,0,-2,11,-3
1523144256345050,3,5,37,6,2,2,7,35
1523144256346353,17,19,20,4,5,1,6,29
1523144256346353,-7,-3,65,9,-2,1,5,-30
1523144256358385,10,-1,55,10,3,-7,0,61
1523144256358385,-10,-16,-76,-17,-7,7,30,-5
1523144256367409,-27,-7,24,5,0,-3,-31,-41
1523144256367409,5,17,64,8,5,4,-7,32
1523144256382450,-9,-19,-84,-25,-9,-7,-3,2
1523144256382450,19,20,68,13,3,0,4,62
1523144256383953,6,-1,-43,1,-2,-1,11,4
1523144256383953,-14,-15,-53,-14,-3,-5,3,-51
1523144256405185,3,13,-7,13,8,9,8,4
1523144256405185,-5,-8,-32,-6,-5,-9,-19,-15
1523144256406515,3,2,1,-3,-2,-1,0,-15
1523144256406515,-1,-5,-15,0,1,8,18,35
1523144256418544,2,5,29,4,3,0,11,-19
1523144256418544,12,18,24,11,3,2,-6,-5
1523144256427570,-4,-11,-11,-9,-5,-3,-6,18
1523144256427570,20,5,8,1,0,-2,3,87
1523144256442107,-21,-13,-17,-7,-3,-7,-28,-128
1523144256442107,-8,-1,40,4,1,4,7,62
1523144256444113,1,-8,22,-3,0,-2,-1,24
1523144256444113,5,4,-44,-4,-2,-6,-5,-2
1523144256465144,4,-27,27,-8,-1,6,15,57
1523144256465144,-6,12,-27,0,-1,-2,-10,-75
1523144256466264,-14,-12,-19,-5,-6,-7,-9,7
1523144256466264,15,7,-8,-1,0,-2,2,-32
1523144256478294,-4,-3,-16,-2,-3,-5,-11,7
1523144256478294,-4,-5,33,0,-2,0,7,20
1523144256487318,10,2,-23,4,4,2,4,31
1523144256487318,-17,11,-39,0,-1,0,-7,-101
1523144256502358,5,16,76,-4,-5,-6,-12,16
1523144256502358,-5,-20,-46,-4,-2,-2,0,34
1523144256503863,-1,0,-36,-4,0,-3,-3,-56
1523144256503863,-7,1,6,-1,-1,-3,-6,53
1523144256524439,16,8,-13,-1,0,-3,-5,-2
1523144256524439,-11,4,17,2,1,0,-3,-2
1523144256532439,11,-1,23,-2,-1,2,2,18
1523144256532439,-6,-9,7,-2,-3,-3,-3,-13
1523144256538704,-3,7,-10,0,-3,0,-1,-1
1523144256538704,0,1,4,1,2,-4,-3,6
1523144256547479,-5,-16,-15,-1,-1,0,9,-3
1523144256547479,0,-2,29,-2,-2,-2,-6,-3
1523144256562518,-9,-2,-30,-3,-2,0,-1,-10
1523144256562518,7,-4,-6,-3,-5,-7,-8,9
1523144256564022,-2,8,9,0,1,5,10,-8
1523144256564022,-2,-1,20,3,2,6,-1,-4
1523144256584889,-5,-11,2,-4,-2,-3,2,3
1523144256584889,3,-10,-25,0,-1,2,12,16
1523144256586516,9,-10,22,1,-1,-2,-8,79
1523144256586516,-20,-3,-1,-3,-3,-7,-17,-95
1523144256598546,-9,-4,-18,1,0,2,4,53
1523144256598546,5,-5,1,-4,-1,-4,-1,12
1523144256607571,0,-1,-31,-1,1,1,0,-7
1523144256607571,6,1,32,-3,-2,0,9,44
1523144256622985,-6,-5,-11,-6,-3,-5,-16,-17
1523144256622985,-2,5,-5,4,0,-4,-13,-44
1523144256624115,4,16,6,0,2,1,1,-3
1523144256624115,-1,-14,-27,-4,-1,2,1,6
1523144256644785,-1,10,66,3,3,1,-1,-15
1523144256644785,3,13,73,8,2,4,1,2
1523144256646576,-1,-23,-80,-26,-11,-6,0,-10
1523144256646576,0,2,42,-3,-5,-7,-10,-33
1523144256658607,2,7,4,-3,-2,4,14,19
1523144256658607,9,-19,-16,4,3,3,1,13
1523144256667632,-19,12,18,7,4,3,4,-34
1523144256667632,3,-1,62,4,0,-6,-2,30
1523144256690061,3,-15,-69,-11,-2,4,10,11
1523144256690061,13,30,68,7,2,3,2,74
1523144256691193,-23,-26,-94,-27,-16,-15,-16,-98
1523144256691193,-2,0,7,5,1,3,-28,50
1523144256705230,5,18,95,21,8,2,-5,-15
1523144256705230,-16,-36,-100,-35,-13,-9,3,14
1523144256706234,14,8,70,5,3,2,8,31
1523144256706234,2,7,21,7,3,3,1,-32
1523144256727289,-9,-13,-68,-9,-4,-10,-24,-19
1523144256727289,-4,2,52,0,1,11,13,-16
1523144256729299,5,9,23,4,-1,1,1,16
1523144256729299,-1,-4,-21,-1,0,-4,8,6
1523144256742330,-1,2,8,4,2,2,-6,-27
1523144256742330,-2,-1,-19,-10,-5,-4,-3,-6
1523144256743835,7,7,-11,9,2,0,-2,62
1523144256743835,-1,2,35,-3,-1,5,15,-36
1523144256765081,-25,-21,-62,-13,-7,-9,-27,-43
1523144256765081,4,11,30,12,3,-3,-5,32
1523144256766395,-2,-11,34,-12,-4,4,15,-9
1523144256766395,2,4,-19,4,4,-1,-2,13
1523144256787832,10,9,-18,1,1,0,11,19
1523144256787832,-10,-6,-43,-1,-6,-8,-12,-35
1523144256788959,11,30,115,20,8,4,-4,10
1523144256788959,-10,-32,-50,-26,-13,-7,8,6
1523144256801863,-3,4,28,0,-2,8,13,-27
1523144256801863,10,6,40,7,7,4,14,123
1523144256808506,-8,-5,-11,7,-3,-1,-12,-109
1523144256808506,-3,1,-31,4,2,-1,-5,72
1523144256824818,-2,5,51,8,0,-5,0,-8
1523144256824818,1,-15,-90,-22,-9,-6,-4,13
1523144256826323,2,0,5,4,3,2,-6,5
1523144256826323,-7,-2,-14,-2,-1,5,-4,-41
1523144256847880,7,1,19,3,2,4,17,27
1523144256847880,-1,4,4,-3,0,2,-1,-31
1523144256853687,-6,-2,14,-3,-5,-9,-7,-36
1523144256853687,-1,-8,-21,-3,1,-2,-1,26
1523144256862332,8,-3,-10,6,5,4,6,75
1523144256862332,-10,3,36,6,0,1,-8,-120
1523144256868637,-2,-2,-27,-5,0,-7,-14,24
1523144256868637,9,19,74,13,2,-1,8,25
1523144256885277,-7,-16,-72,-12,-7,-8,-5,-16
1523144256885277,3,7,102,18,6,-3,1,8
1523144256886709,-13,-26,-89,-25,-9,-3,8,28
1523144256886709,3,6,9,1,0,-5,-27,-23
1523144256907764,2,4,14,-3,-1,-2,5,12
1523144256907764,-2,5,-27,3,-1,3,7,10
1523144256908769,1,0,4,6,2,-3,-2,-30
1523144256908769,-1,-6,4,-3,1,3,6,36
1523144256922223,-8,-1,1,-7,-5,-5,-11,-47
1523144256922223,-8,-1,-44,-4,-2,0,-7,-25
1523144256928242,7,-1,42,4,1,-2,0,20
1523144256928242,1,-2,-35,-6,-3,0,12,9
1523144256944834,-5,-11,-55,-2,0,0,-6,8
1523144256944834,-1,-3,23,-2,-1,-1,0,-13
1523144256946290,1,19,-1,0,-2,-4,1,16
1523144256946290,6,-6,-10,-1,0,0,8,-14
1523144256967759,10,37,6,1,-1,0,-4,10
1523144256967759,-26,-50,2,-5,-4,-1,-6,-17
1523144256968852,-9,-46,-28,-1,0,-2,-3,9
1523144256968852,4,20,34,-1,-2,-1,-2,-3
1523144256981847,6,7,2,0,1,0,2,-1
1523144256981847,5,24,-18,-1,2,-1,2,12
1523144256989007,-6,-4,34,3,-1,1,-10,-14
1523144256989007,0,-12,-24,1,0,0,5,-8
1523144257005145,-2,0,7,-1,-2,-1,-2,6
1523144257005145,1,8,-45,-1,-2,-2,0,0
1523144257006994,-3,-27,8,-1,1,-1,-8,13
1523144257006994,-4,-1,-57,-6,-2,0,4,-12
1523144257027470,-1,2,17,-1,-1,-2,-3,-5
1523144257027470,7,8,-2,-2,-2,-4,-4,-2
1523144257028976,2,19,2,3,2,5,15,12
1523144257028976,-1,4,-9,-2,-4,1,-11,-3
1523144257041506,-7,-22,21,-1,1,-3,-3,-5
1523144257041506,5,-2,4,-1,-1,-5,-3,1
1523144257048525,0,20,-2,0,-1,-4,-7,13
1523144257048525,-6,-11,11,2,0,0,5,-3
1523144257064891,-2,-5,0,-3,-3,1,0,4
1523144257064891,4,2,16,-1,-2,1,13,15
1523144257066573,-1,7,-7,0,1,1,-4,-36
1523144257066573,-6,-7,-19,1,2,-2,-5,3
1523144257087782,1,1,-25,1,0,-1,-1,-36
1523144257087782,1,7,-5,-7,-6,-2,3,7
1523144257089454,5,8,-6,3,-1,-1,-4,64
1523144257089454,0,3,-8,-1,0,3,7,12
1523144257101170,-19,-15,-3,-1,0,-4,0,-83
1523144257101170,2,-1,5,1,1,0,-15,15
1523144257110196,2,9,12,0,1,3,16,-1
1523144257110196,4,1,6,-1,-1,-6,-9,28
1523144257124727,8,-5,1,-1,0,4,25,38
1523144257124727,-4,5,7,-4,-3,-5,-3,-30
1523144257126739,-1,-8,19,1,-1,-2,-12,2
1523144257126739,-1,-2,-26,-5,-2,1,2,-2
1523144257147291,2,0,21,1,-1,-2,-3,29
1523144257147291,-4,5,6,4,1,-4,-9,-40
1523144257148794,1,3,-19,1,3,2,4,5
1523144257148794,-10,-23,-43,-8,-7,-8,0,-17
1523144257161827,4,9,56,4,1,-2,-10,15
1523144257161827,1,2,-53,-9,-4,1,-7,-1
1523144257175934,-3,6,85,3,-1,-4,-2,5
1523144257175934,-3,-15,-10,1,2,0,-17,-3
1523144257185155,-2,5,8,3,0,0,-2,-11
1523144257185155,8,-2,46,8,2,5,16,108
1523144257186457,-9,7,-66,-22,-11,-4,5,-116
1523144257186457,-2,8,38,0,-1,-8,-26,34
1523144257207244,-3,-19,-6,-10,-7,-4,-3,34
1523144257207244,-4,-12,-31,-10,-4,-5,-7,7
1523144257209019,16,23,30,12,6,6,21,26
1523144257209019,-10,-22,4,-6,-10,-4,6,-5
1523144257221786,3,7,51,4,0,1,0,2
1523144257221786,2,7,35,2,4,3,14,-65
1523144257229811,-4,-12,-12,2,-5,-12,-25,27
1523144257229811,8,28,68,15,9,12,17,-34
1523144257244851,-9,-21,-117,-26,-8,-1,5,20
1523144257244851,0,0,7,11,1,-4,-9,-17
1523144257246354,-1,-11,3,-4,-1,0,-5,7
1523144257246354,7,11,-23,-2,3,0,3,31
1523144257267635,-1,-12,-48,-1,-3,-3,2,-22
1523144257267635,-15,4,29,5,2,-3,-4,-30
1523144257268914,-9,-17,-58,-12,1,2,-2,-11
1523144257268914,3,4,27,2,-1,-1,10,17
1523144257281060,8,12,21,4,4,4,7,5
1523144257281060,4,-5,-33,-6,-2,-1,-2,1
1523144257290083,3,6,42,9,-1,-1,-2,46
1523144257290083,-16,-12,-39,-9,-7,-10,-17,-71
1523144257305123,8,12,45,12,6,0,5,35
1523144257305123,-6,-8,-19,-3,0,4,-12,-69
1523144257306637,-4,-3,-2,-3,-1,-2,-5,26
1523144257306637,10,5,-49,-2,3,1,-3,14
1523144257327187,-4,-9,54,1,-3,-2,-4,25
1523144257327187,-1,5,56,3,-1,-1,18,9
1523144257329189,10,11,-84,-10,-4,-5,-17,-25
1523144257329189,-10,-8,65,6,1,4,-5,-54
1523144257340974,-2,2,8,3,3,0,6,9
1523144257340974,7,-4,-4,-4,-1,0,-7,85
1523144257350000,3,8,10,4,2,4,6,-77
1523144257350000,-4,3,-5,-4,-4,-2,7,52
1523144257364769,-4,1,-25,1,0,-1,1,-8
1523144257364769,-1,0,-11,-1,-2,-5,-12,-6
1523144257366544,-1,-11,11,0,-1,0,5,26
1523144257366544,3,12,0,-1,-1,-4,-5,3
1523144257387098,-2,-16,-28,-4,-2,0,-9,-22
1523144257387098,-2,0,13,1,2,4,11,16
1523144257389103,-2,-12,38,-2,-4,0,2,33
1523144257389103,-1,2,-29,-5,-1,-2,-8,-43
1523144257401135,-12,-7,-10,1,-1,-1,-4,2
1523144257401135,-3,4,-1,-6,-6,-3,0,-15
1523144257416175,-3,-8,4,-4,-2,-4,-8,-1
1523144257416175,2,-4,4,1,1,0,7,24
1523144257424700,12,10,-7,0,-1,-5,-12,-6
1523144257424700,0,-3,4,-2,1,1,-2,-22
1523144257426709,-12,7,7,3,0,3,8,23
1523144257426709,8,2,-45,-6,-2,3,11,32
1523144257447270,-10,0,25,-2,-4,-10,-16,-37
1523144257447270,0,-44,-13,2,0,6,5,21
1523144257449278,6,7,8,-1,-3,-4,-1,-23
1523144257449278,-6,3,-3,-1,-2,-3,-4,-24
1523144257460808,-6,5,-2,-1,-1,1,-5,-8
1523144257460808,0,-5,-13,-3,-3,-5,-4,46
1523144257469830,-5,0,24,1,1,1,10,0
1523144257469830,-3,2,4,0,-4,-3,-4,12
1523144257484869,1,-3,-8,-3,2,0,-1,-15
1523144257484869,-11,12,3,-3,-4,-6,-11,-9
1523144257486373,-3,-16,-7,2,1,3,-1,17
1523144257486373,2,-17,12,-2,-1,0,4,11
1523144257507931,5,19,-10,1,0,-1,13,-11
1523144257507931,5,4,-25,-1,-2,1,-13,-8
1523144257508935,-1,-11,9,0,1,-2,2,-2
1523144257508935,-4,0,-1,0,2,1,-1,-8
1523144257520967,4,-7,6,-2,-2,-2,-2,15
1523144257520967,2,5,-19,0,-1,-5,-1,-18
1523144257529990,-9,0,-35,-3,0,2,1,-1
1523144257529990,7,2,61,-1,-1,-3,-10,-2
1523144257545033,-4,-1,-22,-2,-3,2,1,6
1523144257545033,-5,-5,4,-3,-1,-4,-4,-18
1523144257546534,3,7,-1,-2,-2,-2,0,8
1523144257546534,-1,3,18,1,0,-1,6,-9
1523144257567589,-2,-5,-28,4,-2,-3,-4,0
1523144257567589,-2,5,60,3,1,5,-1,6
1523144257569094,-2,-10,7,-8,-4,-4,-4,-10
1523144257569094,1,5,56,7,0,-2,-1,-28
1523144257589648,-6,-19,-82,-17,-6,1,3,5
1523144257589648,-1,-1,-5,3,1,-3,3,-2
1523144257591155,2,4,-2,1,-1,0,5,19
1523144257591155,-3,1,-1,-5,-3,6,13,-9
1523144257604690,3,16,61,7,3,2,1,18
1523144257604690,-3,-19,-68,-6,-3,-3,-1,-12
1523144257606193,2,-3,-26,-4,-1,-1,-4,8
1523144257606193,-2,2,0,5,3,-1,-1,-22
1523144257627261,-8,-16,25,-2,-2,0,3,-34
1523144257627261,1,7,71,-8,-1,3,3,33
1523144257629265,7,6,-13,5,-1,-4,-6,-31
1523144257629265,-4,-10,-34,-4,-5,-3,-8,37
1523144257649808,4,9,32,4,3,4,18,11
1523144257649808,-1,-4,-18,-3,-2,-5,-2,-20
1523144257651312,2,5,54,8,5,8,11,21
1523144257651312,-9,-12,-55,-15,-10,-11,-15,-4
1523144257664849,-1,-1,-25,-2,-2,-4,-7,-8
1523144257664849,-1,-1,3,-1,-1,-3,-3,-1
1523144257666353,7,11,27,9,2,2,0,14
1523144257666353,-2,5,37,1,-1,0,-5,-43
1523144257687408,-11,-24,-74,-20,-7,-10,-11,17
1523144257687408,6,1,2,7,3,6,10,37
1523144257688917,-10,1,-1,2,-1,-3,-6,-74
1523144257688917,-3,-6,-20,-4,0,0,8,19
1523144257709972,5,8,50,5,-1,-2,-16,7
1523144257709972,9,20,0,6,3,3,11,1
1523144257711473,-4,-22,-16,-15,-7,-9,-6,50
1523144257711473,-3,16,35,13,5,5,16,-55
1523144257725008,-7,-27,-48,-22,-8,-4,-7,-6
1523144257725008,3,14,-16,-1,-1,5,12,17
1523144257726513,5,10,38,4,0,-5,-4,17
1523144257726513,0,-5,-30,-2,1,-5,-18,-8
1523144257747081,3,20,22,12,4,-1,3,15
1523144257747081,-11,-15,-45,-15,-10,-12,-15,-50
1523144257749084,5,-8,-30,-6,-2,5,31,100
1523144257749084,-7,-2,25,4,1,2,-13,-67
1523144257769639,-4,7,25,11,2,-3,-17,0
1523144257769639,-11,-30,-59,-24,-7,-7,-13,0
1523144257771667,6,6,10,4,0,4,0,2
1523144257771667,6,8,19,6,0,0,9,35
1523144257784180,-7,-7,21,-2,-7,-14,7,-12
1523144257784180,2,7,39,14,8,12,9,-11
1523144257791196,-10,-21,-96,-21,-8,-9,-25,-32
1523144257791196,3,5,28,1,2,3,2,35
1523144257807240,7,13,27,10,4,5,2,-15
1523144257807240,-8,-12,-28,-5,-7,-9,-3,-1
1523144257809246,7,4,14,4,4,3,12,51
1523144257809246,5,12,46,3,1,0,3,-76
1523144257829799,-14,-22,-68,-13,-9,-3,-4,21
1523144257829799,10,15,58,9,4,5,13,40
1523144257831304,-18,-13,-32,-1,-1,-7,-5,-82
1523144257831304,-8,-7,-20,-4,-2,-9,-25,-34
1523144257844337,10,12,40,7,4,4,15,22
1523144257844337,-3,-1,-10,-4,-4,-1,-13,-8
1523144257850860,9,11,72,6,0,9,22,38
1523144257850860,-5,-20,-49,-21,-6,-2,5,34
1523144257867404,-7,3,-5,-6,-2,0,6,-45
1523144257867404,0,5,33,3,1,1,5,7
1523144257868904,1,9,32,12,2,-2,-7,-7
1523144257868904,2,-7,-30,-3,-1,0,6,22
1523144257889960,11,8,8,3,0,2,0,67
1523144257889960,-9,1,7,3,2,2,24,-101
1523144257891464,-11,0,15,0,1,-1,-18,-15
1523144257891464,-1,-3,-43,-3,-6,-5,-16,-11
1523144257903996,6,-6,-75,-9,-4,5,12,45
1523144257903996,9,6,8,4,0,-3,-2,13
1523144257911015,2,8,-12,-2,-1,-2,12,19
1523144257911015,-16,-20,9,0,1,-2,-23,-46
1523144257927058,-11,0,35,5,0,-3,-14,-74
1523144257927058,2,-9,-38,-6,-3,-1,1,81
1523144257929064,13,2,-17,-6,-1,1,2,-13
1523144257929064,7,11,-8,5,0,2,18,40
1523144257949620,-18,7,-13,-1,2,-3,-27,-29
1523144257949620,-10,-12,-10,2,-1,-6,-14,-1
1523144257951625,-3,-13,6,-1,0,-2,-9,0
1523144257951625,15,21,-16,-1,-4,-5,15,67
1523144257964158,-27,-28,23,5,6,8,5,-37
1523144257964158,14,-2,9,-1,-4,0,-5,6
1523144257970675,3,19,-33,-2,-3,-2,-3,-9
1523144257970675,4,-6,25,-2,-1,-2,2,23
1523144257987220,12,5,55,3,-3,-2,-4,-10
1523144257987220,-7,1,-72,-6,-4,-8,-4,-16
1523144257988723,-3,-11,13,-3,-5,-1,2,15
1523144257988723,5,16,3,0,2,5,2,-14
1523144258009780,-5,3,9,0,10,-7,1,0
1523144258009780,-13,-22,11,3,1,-6,-23,-10
1523144258011282,0,-7,-14,-1,-3,-3,2,-27
1523144258011282,-4,-11,-33,-7,-4,4,7,15
1523144258024318,11,16,3,5,2,7,3,22
1523144258024318,1,-2,18,-3,-3,0,-4,-18
1523144258030835,-6,0,-7,0,1,-6,-13,-25
1523144258030835,0,-5,12,-1,-1,-1,9,19
1523144258047378,10,-11,2,-3,-1,2,11,-3
1523144258047378,-5,1,11,0,-2,-1,1,-5
1523144258048885,-8,-12,-11,0,-2,-1,-7,-10
1523144258048885,9,8,1,1,1,1,5,13
1523144258069939,8,20,-11,-2,-2,3,10,30
1523144258069939,-15,-13,-6,0,-1,-2,2,-47
1523144258071443,-12,-20,3,-1,0,-1,-18,-8
1523144258071443,-3,-1,-18,-2,-2,-1,2,4
1523144258083513,9,8,17,-4,-4,-5,0,6
1523144258083513,1,11,18,0,-1,-5,3,19
1523144258092544,9,4,20,-1,-3,2,8,-15
1523144258092544,-7,-11,-2,-1,1,0,-4,2
1523144258107076,3,-3,16,0,-2,-3,-10,0
1523144258107076,2,0,-46,-4,2,4,13,0
1523144258109087,-2,4,3,-3,-3,-2,-3,-10
1523144258109087,-2,2,5,2,0,-2,-4,11
1523144258129637,-1,-8,-10,-2,-4,0,1,-10
1523144258129637,3,4,17,1,-1,-1,-2,36
1523144258131641,-6,7,-7,-3,-1,-1,-2,-69
1523144258131641,-4,-9,-5,-1,0,-3,-3,48
1523144258143674,-1,-1,-13,0,-1,-1,24,1
1523144258143674,-11,-7,10,0,0,-3,-17,-100
1523144258152696,-1,7,-11,-2,0,-2,-6,27
1523144258152696,4,1,12,0,-1,-2,-3,0
1523144258167235,5,-4,30,2,-2,-6,-3,46
1523144258167235,1,-1,-55,-7,0,2,5,4
1523144258168741,-5,-4,-11,-3,-3,7,17,-6
1523144258168741,-1,-13,5,1,0,1,-7,-19
1523144258189798,1,9,-30,1,0,3,0,21
1523144258189798,3,-12,10,-7,-8,-10,-7,5
1523144258191319,1,10,-14,3,9,11,-3,3
1523144258191319,-11,-9,-4,-4,-4,3,9,4
1523144258203332,11,17,114,19,3,0,-6,-23
1523144258203332,-9,-10,-28,-19,-7,-7,-15,-1
1523144258212356,5,2,-72,-3,-1,-3,9,69
1523144258212356,-2,10,81,9,3,4,11,-98
1523144258227397,-8,-13,-73,-24,-4,0,-10,11
1523144258227397,11,7,49,8,-2,-2,2,75
1523144258228901,5,13,85,10,2,4,31,-37
1523144258228901,-7,3,-18,2,4,5,-37,4
1523144258249954,-20,-40,-76,-27,-12,-14,-25,-42
1523144258249954,0,12,67,9,5,0,7,9
1523144258251460,-2,-12,-26,-11,-5,-8,-22,29
1523144258251460,6,10,41,11,4,3,16,24
1523144258263494,9,5,33,6,4,2,12,19
1523144258263494,4,-2,-20,-2,1,7,13,28
1523144258272515,-4,15,-14,4,0,-5,-20,-75
1523144258272515,-16,-26,-50,-21,-13,-10,-4,-6
1523144258287055,-3,-16,-9,5,0,-2,-10,24
1523144258287055,14,7,18,1,1,4,13,43
1523144258289060,-5,3,65,9,1,1,-18,-75
1523144258289060,-7,1,-29,-4,-3,-6,-3,13
1523144258310117,7,13,-44,-4,-4,1,6,3
1523144258310117,3,16,26,13,5,6,3,-4
1523144258311619,-2,-10,-2,-4,-4,-11,-43,-24
1523144258311619,0,-3,12,0,-2,-9,-9,11
1523144258323150,-15,-27,-47,-18,-8,-4,9,-30
1523144258323150,2,11,29,6,1,1,-9,15
1523144258332174,1,-11,20,0,0,-1,5,7
1523144258332174,6,9,-17,-5,-1,10,33,35
1523144258347215,3,19,26,11,5,-3,-14,0
1523144258347215,-20,-8,-6,-3,-5,-7,-5,-62
1523144258349220,3,-5,-15,-7,-3,0,2,66
1523144258349220,2,-3,-13,-3,-2,-9,-9,7
1523144258369781,-22,-13,-34,-5,-1,7,2,-66
1523144258369781,0,-6,-71,-6,-3,0,-1,7
1523144258371279,1,8,59,6,-1,0,16,2
1523144258371279,-3,-11,-73,-5,1,-5,-24,3
1523144258383311,2,6,85,13,1,4,12,13
1523144258383311,-22,-40,-94,-18,-5,1,0,-17
1523144258392334,-3,-2,18,1,-1,-9,-11,0
1523144258392334,9,11,25,6,4,10,24,14
1523144258407377,6,1,-3,-3,-5,-7,8,21
1523144258407377,0,25,33,6,2,-1,-22,-70
1523144258409386,0,-8,-32,-6,-3,-6,7,28
1523144258409386,-1,-6,1,-4,-3,-3,-11,-16
1523144258429935,0,-4,-12,7,1,1,-1,6
1523144258429935,12,12,29,2,-3,-1,6,41
1523144258431441,2,2,-22,-4,-2,2,11,-21
1523144258431441,3,-7,24,3,2,0,-4,35
1523144258443470,-10,16,18,-2,-2,3,4,-69
1523144258443470,-7,-9,7,0,3,-1,-2,21
1523144258452502,-10,-25,-21,-2,-3,-4,0,1
1523144258452502,-4,-1,17,3,0,4,9,24
1523144258467534,19,-9,37,2,1,-4,-13,8
1523144258467534,1,-7,-85,-2,-1,0,4,-20
1523144258469039,6,10,37,-2,0,1,2,20
1523144258469039,-3,6,-11,-6,-3,-3,-4,-15
1523144258489593,-21,0,-7,-1,-2,-5,-9,-16
1523144258489593,11,-5,28,3,1,0,4,16
1523144258491600,-5,-17,-17,-1,-2,-6,-7,-4
1523144258491600,6,-2,-8,-3,-2,-2,4,30
1523144258503629,0,11,-10,0,2,-3,-19,-92
1523144258503629,5,13,29,1,1,8,27,42
1523144258512655,-10,1,-12,-3,0,3,4,-16
1523144258512655,1,2,6,-3,-2,-3,1,-7
1523144258527694,19,3,-2,2,1,-1,-5,57
1523144258527694,1,17,14,2,1,1,-9,-30
1523144258529199,-12,0,-2,-1,-2,2,6,-7
1523144258529199,-17,-19,3,-1,-1,1,4,-26
1523144258549753,0,-10,-2,1,0,-1,-5,24
1523144258549753,12,16,3,-4,-6,-6,-6,-6
1523144258551258,7,-6,-7,1,5,4,6,19
1523144258551258,4,14,4,2,-1,-1,-5,-26
1523144258563290,0,-1,-12,0,-1,1,1,20
1523144258563290,-5,-4,18,1,0,-4,-8,-8
1523144258572313,-5,6,-5,-1,-5,-6,-19,-8
1523144258572313,1,-6,-9,-5,-3,-2,14,-20
1523144258587352,-3,-6,3,0,2,1,5,10
1523144258587352,-2,-2,15,-1,1,1,-6,-7
1523144258588856,4,-2,-10,-1,-3,-4,-8,35
1523144258588856,-3,0,-4,-2,-2,-4,-22,-78
1523144258609920,-1,-2,-3,-4,-1,-1,3,11
1523144258609920,-15,-13,14,2,-1,-4,-3,-5
1523144258611417,14,8,25,0,1,1,-3,11
1523144258611417,0,-3,16,1,1,0,-4,15
1523144258632472,-4,0,-18,-2,2,2,6,0
1523144258632472,-2,1,19,-1,0,-3,-8,8
1523144258633978,13,10,24,7,3,15,40,102
1523144258633978,-23,-22,-49,-14,-5,-8,-13,-76
1523144258647011,-8,11,57,1,-3,-8,-27,-10
1523144258647011,18,-3,1,2,0,-1,-8,20
1523144258649017,-3,-2,-31,0,-5,1,8,3
1523144258649017,16,11,5,1,2,0,0,55
1523144258669571,1,2,-17,1,-2,1,7,2
1523144258669571,1,-13,15,-2,-3,-3,0,-29
1523144258671578,1,-3,-65,-6,0,-2,1,-26
1523144258671578,4,12,68,8,2,1,3,39
1523144258692177,-12,-11,-56,-7,-2,-10,-28,-81
1523144258692177,2,13,76,10,0,-2,15,21
1523144258694181,-16,-35,-85,-22,-8,-5,-12,-27
1523144258694181,0,9,17,4,-2,-10,-24,9
1523144258706714,10,1,7,0,1,9,38,30
1523144258706714,-3,16,-29,-3,-3,-4,-6,0
1523144258713232,7,12,61,6,2,9,6,34
1523144258713232,1,1,-50,0,-1,-2,7,-6
1523144258729775,-25,1,31,0,-7,-10,-39,-51
1523144258729775,-1,-1,1,-2,2,0,-4,-3
1523144258731279,-3,-8,10,0,1,-1,3,27
1523144258731279,7,3,51,8,2,1,14,26
1523144258752344,12,5,-10,-4,-1,-2,-3,33
1523144258752344,-15,-23,-91,-19,-10,-3,23,-15
1523144258753848,-5,7,30,7,2,-6,-35,-58
1523144258753848,5,2,47,4,2,4,9,24
1523144258766878,0,-16,4,-10,-2,-5,7,8
1523144258766878,2,20,30,14,3,-5,-22,-14
1523144258773392,-4,-19,-33,-13,-6,0,12,7
1523144258773392,-3,-3,-10,-3,-1,2,12,22
1523144258789940,19,18,76,11,6,10,29,96
1523144258789940,-11,4,6,-2,0,-3,-5,-82
1523144258791440,-7,14,34,9,1,-5,-22,11
1523144258791440,-3,-2,-16,-1,-3,-11,-21,19
1523144258812496,9,7,21,3,4,26,53,49
1523144258812496,6,-6,-39,-4,1,3,12,41
1523144258814000,-8,-6,-59,-6,-6,-10,-13,-41
1523144258814000,-3,-8,-26,-5,-3,6,8,-24
1523144258826533,-10,-4,10,1,1,-7,-7,10
1523144258826533,2,-24,-39,-10,-4,-2,-3,-11
1523144258833551,2,10,32,1,0,-2,-4,-13
1523144258833551,-4,-5,-12,-2,-1,0,-11,-5
1523144258849596,10,-2,-15,-2,-2,-2,1,18
1523144258849596,-2,9,42,5,1,9,11,23
1523144258851599,-23,-17,-22,-12,-6,-10,-29,-20
1523144258851599,6,5,-8,4,2,-3,2,60
1523144258872163,-5,1,-27,-1,-4,-4,-14,-18
1523144258872163,1,-11,10,-2,2,3,11,52
1523144258873662,11,13,59,5,2,7,24,1
1523144258873662,-11,-13,-56,-10,-4,-1,-8,-41
1523144258886702,1,-6,-12,-3,-3,-7,-22,-19
1523144258886702,-1,-18,19,3,0,1,1,25
1523144258893713,2,1,4,-2,-4,-7,-6,-28
1523144258893713,2,4,36,7,1,6,16,-25
1523144258909761,3,-5,-5,0,-2,-1,6,69
1523144258909761,-1,4,-13,-4,-4,-10,-37,-58
1523144258911260,-11,-9,8,0,-1,3,11,-54
1523144258911260,-2,-6,-4,-4,-5,-2,-1,-7
1523144258932314,-4,-23,-89,-11,1,-3,2,-3
1523144258932314,-4,10,52,6,-1,0,11,82
1523144258933820,19,5,10,1,4,-1,5,-25
1523144258933820,-11,-6,-19,-5,-3,-3,-14,-17
1523144258946351,-6,3,36,3,-1,2,-7,-48
1523144258946351,-1,5,-11,-3,-2,-4,-9,-1
1523144258953370,-1,-6,-36,-4,-2,4,24,87
1523144258953370,1,1,19,1,-1,-5,-10,-58
1523144258969937,-10,12,11,6,3,2,2,-12
1523144258969937,7,-4,-37,-8,-3,2,-1,-11
1523144258971418,-1,14,22,2,-2,2,9,32
1523144258971418,-10,-16,27,3,1,2,10,79
1523144258992474,8,2,-16,-6,-3,-6,-14,-109
1523144258992474,-12,-8,-16,-1,-4,-3,3,24
1523144258993979,-11,-11,4,2,1,-1,-13,-30
1523144258993979,60,20,-6,-6,-3,-5,-7,5
1523144259006511,3,-7,0,1,2,1,10,86
1523144259006511,-9,-5,7,1,-3,0,5,-42
1523144259013531,30,9,8,4,0,-1,-6,2
1523144259013531,13,4,1,-3,3,0,-4,7
1523144259029574,-20,-14,-4,-2,-3,-5,-5,-18
1523144259029574,-21,-29,10,-2,-8,-1,3,17
1523144259031580,4,-4,-10,-2,7,4,5,19
1523144259031580,2,11,-5,0,4,1,-2,-33
1523144259052637,0,-3,4,-2,-1,0,0,23
1523144259052637,-3,-7,-5,-1,-1,-2,-6,-5
1523144259054641,-7,8,3,-4,-9,-4,-4,-18
1523144259054641,-12,-4,2,1,-3,3,5,8
1523144259066170,-4,4,2,4,-1,-2,-3,-3
1523144259066170,9,0,-1,-4,-1,-4,-7,-6
1523144259075195,0,7,-3,0,-1,0,-1,1
1523144259075195,-13,-1,-2,2,1,-6,-9,12
1523144259089734,-5,-12,-8,-4,-5,2,-3,4
1523144259089734,4,6,-7,-9,-1,1,-5,-16
1523144259091238,-22,-5,-2,0,1,-4,-10,-4
1523144259091238,27,-3,-3,-4,-3,-2,-1,-4
1523144259112295,1,17,-1,2,-6,-6,-15,-11
1523144259112295,-1,3,0,3,10,4,15,45
1523144259113799,-6,4,0,1,0,-2,3,-40
1523144259113799,-17,-2,-14,0,-4,-4,-6,0
1523144259125833,6,1,2,-6,1,2,4,2
1523144259125833,12,13,10,0,-2,-4,-4,-6
1523144259134856,-13,-5,2,0,0,0,4,28
1523144259134856,-11,-2,-12,-1,-2,2,0,-9
1523144259149897,17,12,23,3,1,5,23,1
1523144259149897,-9,0,-18,-7,-4,2,13,26
1523144259151398,11,-2,9,1,-2,-4,1,41
1523144259151398,-36,-18,17,-6,-7,-6,-40,-84
1523144259172452,4,7,41,10,7,4,2,42
1523144259172452,-20,-3,-12,-4,0,-3,-15,-6
1523144259173958,48,13,44,7,0,5,29,53
1523144259173958,-19,-23,-98,-17,-8,0,13,46
1523144259185992,-7,11,63,4,-2,-10,-24,-103
1523144259185992,7,3,-4,7,5,3,3,0
1523144259195014,-18,-30,-69,-14,-7,-2,-5,-23
1523144259195014,2,34,61,16,8,3,17,34
1523144259209552,-6,-40,-97,-16,-5,-7,-19,-32
1523144259209552,-3,12,51,9,-2,-7,-4,5
1523144259211559,-2,12,-42,-3,-2,0,-4,33
1523144259211559,5,-10,13,1,3,-1,-3,-71
1523144259232113,-7,8,23,2,1,-3,-4,65
1523144259232113,16,-1,-12,0,-1,0,3,23
1523144259234117,-10,-10,4,3,-4,-5,-11,-58
1523144259234117,7,3,3,0,1,8,24,66
1523144259246148,-2,-10,-59,-6,-5,-6,-7,5
1523144259246148,-8,-14,-6,-3,-7,-1,-2,-36
1523144259255175,5,17,-7,7,15,3,5,-30
1523144259255175,-13,-15,-19,-5,-8,-8,-11,-14
1523144259269713,5,7,65,5,5,6,2,16
1523144259269713,15,18,2,1,-1,-2,-2,34
1523144259271216,-2,11,28,2,-5,1,-4,24
1523144259271216,1,4,13,2,5,1,19,-31
1523144259292272,-9,-13,-33,-5,-1,0,-11,-60
1523144259292272,3,3,36,3,2,2,-8,-3
1523144259293777,0,4,4,0,-2,-3,-3,13
1523144259293777,11,2,32,1,-1,-1,-13,17
1523144259305810,1,1,-35,-13,-11,-1,17,82
1523144259305810,-18,2,74,2,0,-1,-16,-112
1523144259314833,-13,-10,-16,-4,-2,-1,-5,23
1523144259314833,26,13,51,6,-1,0,8,18
1523144259329873,2,5,10,2,4,1,7,31
1523144259329873,-1,-20,-110,-18,-7,-9,-13,6
1523144259331377,-7,-9,9,-4,-2,1,5,0
1523144259331377,-6,16,29,8,2,2,8,-2
1523144259352432,-9,-18,-23,-5,-4,-5,-8,-53
1523144259352432,13,5,33,5,4,-4,-6,24
1523144259353936,-29,-26,6,-15,-9,5,12,-15
1523144259353936,6,6,21,1,1,5,9,118
1523144259365969,-14,-5,21,-1,4,-3,-10,-105
1523144259365969,0,-5,3,0,-1,-2,-4,34
1523144259374992,7,4,4,0,-1,-4,-12,-18
1523144259374992,-14,-6,-68,-10,-2,2,2,-1
1523144259389531,15,12,94,7,-1,2,13,41
1523144259389531,-5,-24,32,1,0,5,8,-5
1523144259391537,11,11,21,2,-1,-4,-7,-4
1523144259391537,-15,-13,-9,-4,-4,-5,-6,-15
1523144259412091,2,3,-35,-1,3,0,-2,-16
1523144259412091,0,7,-20,-3,1,-1,9,-8
1523144259414096,0,-7,38,7,0,2,-2,1
1523144259414096,4,-2,-17,-2,-3,-3,0,-2
1523144259426128,3,-3,-7,-2,-2,0,7,60
1523144259426128,-8,1,0,-2,-3,-1,-15,-66
1523144259435152,-8,-5,-11,-3,0,-3,-1,5
1523144259435152,1,4,-12,-2,0,-4,-11,-10
1523144259449693,-2,-2,-1,0,0,1,-1,24
1523144259449693,31,4,-60,-3,-3,-2,-1,48
1523144259451198,-13,-9,34,-2,-1,2,9,-11
1523144259451198,-5,-2,2,1,0,-2,-7,-29
1523144259472254,-1,6,-1,2,-2,0,5,21
1523144259472254,-6,6,2,1,0,-2,-7,-3
1523144259473756,14,-7,-6,-3,-2,-4,-8,-9
1523144259473756,-2,-6,-4,-2,-4,-2,0,-3
1523144259485788,-2,-3,-1,-3,-1,3,13,1
1523144259485788,-6,14,3,-2,-1,-2,9,-13
1523144259494812,-3,5,-10,-1,0,1,0,-5
1523144259494812,-5,-12,8,-2,-2,1,1,-8
1523144259509851,3,4,-27,-2,-5,-7,-8,-3
1523144259509851,-4,-9,8,1,1,4,7,-11
1523144259511356,2,4,-6,-1,-1,-3,-7,12
1523144259511356,-2,-6,-5,0,-1,-1,-3,-4
1523144259532412,3,10,0,-2,-2,-1,-4,-17
1523144259532412,-5,-10,1,-2,-2,-2,0,5
1523144259533915,6,10,-2,1,0,-1,0,6
1523144259533915,-5,-10,-2,-2,-1,-3,-6,-10
1523144259554985,6,-2,-2,0,-2,-2,-1,2
1523144259554985,-7,9,6,0,-2,1,1,4
1523144259556477,1,-8,-8,0,-2,-2,-3,4
1523144259556477,1,-1,-1,-3,-1,-1,0,-8
1523144259569009,-4,3,-1,4,0,2,-6,-2
1523144259569009,11,3,1,0,-2,-2,1,5
1523144259577532,-3,13,-6,2,1,0,-9,-2
1523144259577532,-9,-17,-3,-4,-3,-3,12,8
1523144259592071,-5,-15,0,0,0,0,-6,2
1523144259592071,-11,-12,-3,-1,-1,2,13,-22
1523144259594077,10,4,-3,-2,-1,-3,-1,35
1523144259594077,3,14,4,0,-1,-5,-13,-81
1523144259614635,6,15,-6,-2,-2,-1,-4,89
1523144259614635,-29,-3,-4,-2,-1,-5,-7,-69
1523144259616636,10,4,3,1,0,4,18,-7
1523144259616636,7,-1,-17,-3,-1,1,-1,13
1523144259629672,-11,-5,3,-2,-2,-7,-19,-24
1523144259629672,1,3,-3,1,4,4,3,26
1523144259631176,0,-7,0,-2,-2,3,12,10
1523144259631176,17,10,34,3,1,3,12,27
1523144259652231,-2,-6,2,-1,-1,-2,-1,-23
1523144259652231,-3,-2,3,-7,-3,-2,-8,-7
1523144259653736,-12,3,53,10,3,0,-2,21
1523144259653736,43,-10,-78,-19,-6,-1,6,-12
1523144259674797,-71,-11,-15,-3,-2,-2,-17,-45
1523144259674797,32,8,35,5,1,-3,-5,17
1523144259676298,-8,-5,6,-4,-3,0,9,4
1523144259676298,-9,4,18,7,0,-2,-2,20
1523144259689329,10,-7,-19,-1,-1,-5,2,2
1523144259689329,0,12,77,8,2,10,15,7
1523144259695851,-8,-33,-107,-26,-8,-9,-12,18
1523144259695851,-21,-1,-21,3,1,2,8,2
1523144259712391,3,0,2,-1,-3,-6,-28,-31
1523144259712391,3,-3,15,6,0,0,-9,-10
1523144259713895,16,20,51,8,3,-6,-15,9
1523144259713895,0,-17,-72,-15,-6,7,37,116
1523144259734951,-6,-13,-21,-2,0,0,18,-73
1523144259734951,-4,10,52,2,-1,-10,-42,33
1523144259736464,-8,-4,-73,-2,-1,-5,-14,-45
1523144259736464,-21,-20,3,0,-2,1,-8,0
1523144259748989,16,19,66,4,4,8,36,71
1523144259748989,-8,-12,-66,-7,-5,-5,3,-22
1523144259756010,5,12,25,0,2,1,0,-23
1523144259756010,-17,5,7,2,-4,-11,-15,-18
1523144259772550,6,-17,-26,-2,2,2,-4,-6
1523144259772550,6,-4,-13,-8,-2,-7,-12,14
1523144259774058,-2,7,14,-2,-1,4,23,3
1523144259774058,5,16,40,7,2,-4,-13,-32
1523144259794616,13,32,103,17,4,9,18,22
1523144259794616,-32,-53,-58,-28,-16,-12,-9,6
1523144259796615,7,7,67,1,0,-1,-6,-6
1523144259796615,-4,4,50,1,1,3,11,-9
1523144259809151,-1,12,22,12,3,2,-2,-31
1523144259809151,23,7,2,1,3,7,17,43
1523144259816166,-19,-4,19,8,-4,-6,-19,-35
1523144259816166,-5,-15,-57,-15,-3,1,7,19
1523144259832211,-2,1,6,-7,-4,-4,2,42
1523144259832211,-7,3,-53,-7,-7,-7,6,-43
1523144259833713,2,-13,-42,-4,7,5,-3,30
1523144259833713,14,27,46,13,5,-2,-13,-9
1523144259854778,6,-12,-14,-4,-4,-1,13,55
1523144259854778,-8,-20,-54,-14,-2,0,-26,-57
1523144259856274,7,2,12,2,-3,-5,-4,60
1523144259856274,-27,0,30,1,-1,-2,-14,-113
1523144259869309,10,-6,-35,-9,-3,-5,-4,34
1523144259869309,15,29,68,19,7,5,11,31
1523144259875827,-6,-13,-25,-3,-2,2,6,-3
1523144259875827,9,0,-17,-3,1,-1,-1,23
1523144259892372,-1,-5,-11,-7,-5,-2,-6,-24
1523144259892372,-8,0,-26,3,4,-3,-12,-31
1523144259893873,3,1,-3,0,-3,2,9,8
1523144259893873,6,-1,29,2,0,-2,-8,98
1523144259914929,-12,-13,7,-3,1,2,0,-122
1523144259914929,-7,3,-30,1,0,0,0,57
1523144259916440,6,7,7,-3,-3,-2,4,0
1523144259916440,0,-3,3,-2,-2,-1,2,15
1523144259928966,15,12,-28,1,0,-3,-3,52
1523144259928966,-3,4,32,4,2,11,30,-2
1523144259935985,-1,-9,24,-4,-5,-11,-30,-29
1523144259935985,-4,-1,37,4,2,-4,-18,4
1523144259952029,-1,-2,-20,-6,1,3,8,1
1523144259952029,12,6,36,6,1,3,19,22
1523144259954036,-4,0,-16,-3,-4,-6,-20,2
1523144259954036,10,14,10,4,2,4,10,-2
1523144259974587,-8,-18,-5,-5,-4,-9,-6,-43
1523144259974587,-17,1,10,-3,-4,-7,-31,-6
1523144259976092,12,16,-18,1,2,2,3,15
1523144259976092,-16,-23,18,-4,-3,0,2,-17
1523144259989126,7,1,-10,0,-1,2,13,34
1523144259989126,3,9,-20,-1,-1,0,2,10
1523144259996144,-8,0,15,-1,-2,-5,0,-39
1523144259996144,0,7,-3,1,0,0,2,5
1523144260012190,-9,-2,2,-4,-1,2,7,35
1523144260012190,-1,4,-17,-6,-3,-4,-3,-35
1523144260014194,-7,7,5,1,1,-3,-13,-58
1523144260014194,-3,-11,-16,-3,-1,-1,-4,-12
1523144260034748,-6,-5,-11,-1,-2,-5,-12,11
1523144260034748,7,-2,19,3,0,0,0,26
1523144260036253,2,-4,0,0,-1,0,10,3
1523144260036253,-1,7,-7,-3,-3,-2,-7,-18
1523144260048285,-1,-1,0,-2,-1,-2,-11,-10
1523144260048285,-4,-20,18,2,2,-1,-4,-14
1523144260057309,7,8,-6,-6,-3,-1,10,9
1523144260057309,-2,12,-17,-5,-3,5,-4,-7
1523144260072351,-4,-7,6,0,-1,-2,-14,3
1523144260072351,-4,-15,-5,-2,-3,-2,4,5
1523144260073854,-2,-7,-5,2,1,1,3,10
1523144260073854,3,4,3,0,1,-3,-4,-6
1523144260094908,-1,3,-1,-4,-2,-2,0,-5
1523144260094908,1,0,-3,-1,-1,-1,-1,5
1523144260096412,3,-5,-1,-1,-1,0,-6,8
1523144260096412,-7,-4,-2,-1,-1,-1,6,-11
1523144260108444,-4,2,-6,0,-3,-6,-15,-9
1523144260108444,-8,3,-6,-2,0,-4,9,10
1523144260117469,16,-8,0,-1,1,6,8,21
1523144260117469,-3,3,6,1,-3,-4,-8,-13
1523144260132507,-15,-7,-4,-2,-2,-5,-10,-33
1523144260132507,2,-9,-6,-3,0,1,3,11
1523144260134015,-8,-4,0,-1,0,1,5,3
1523144260134015,13,2,-9,-1,-1,-5,-10,17
1523144260155067,2,-6,12,0,1,8,27,23
1523144260155067,0,6,10,1,0,2,-6,-6
1523144260156574,-13,6,33,6,0,-5,-15,-38
1523144260156574,7,-8,-1,-8,2,10,27,21
1523144260168609,10,20,-9,3,1,-4,-13,46
1523144260168609,-12,-1,40,-3,-6,-11,-19,-40
1523144260177628,-4,7,-17,3,2,-3,-6,12
1523144260177628,-4,-4,60,5,-1,-6,-14,-16
1523144260192168,12,-9,-63,-14,-3,1,16,52
1523144260192168,4,-1,-18,-5,-4,-4,12,13
1523144260193674,-4,6,47,6,3,2,-8,-21
1523144260193674,4,13,-11,3,4,-1,-6,10
1523144260214727,-16,-43,-57,-23,-15,-12,-14,-25
1523144260214727,14,22,69,8,3,8,26,33
1523144260216232,-11,-15,-20,-6,-5,-4,-1,-9
1523144260216232,3,4,17,7,4,10,13,4
1523144260228263,12,34,127,23,10,2,-5,-3
1523144260228263,-16,-46,-128,-35,-13,-7,-11,-26
1523144260237288,6,3,60,3,-2,-1,11,41
1523144260237288,-3,6,52,5,0,0,-18,-46
1523144260252328,-10,-22,-55,-13,-4,-1,0,-29
1523144260252328,4,10,49,9,4,0,-11,19
1523144260253831,10,3,44,-4,-1,6,17,20
1523144260253831,-24,-41,-91,-25,-11,-14,-14,16
1523144260274887,0,13,34,10,1,6,19,-90
1523144260274887,3,5,-9,7,6,4,-1,9
1523144260276391,-4,-10,-56,-10,-4,-10,-15,20
1523144260276391,11,31,88,14,5,7,9,10
1523144260288422,-9,-33,-92,-18,-9,-11,-14,3
1523144260288422,5,15,27,4,2,5,15,12
1523144260297447,-2,-1,53,12,0,-3,5,8
1523144260297447,-6,-5,-10,-5,-4,-6,2,-23
1523144260312487,3,14,43,10,4,5,4,-23
1523144260312487,2,0,-10,4,1,2,1,10
1523144260313992,-3,-6,-40,-3,-3,-8,-15,6
1523144260313992,-1,-9,-14,-1,0,4,16,15
1523144260334548,6,8,127,18,5,5,-1,15
1523144260334548,-16,-34,-105,-19,-11,-11,-13,-19
1523144260336554,4,14,63,6,3,7,15,6
1523144260336554,3,-9,-19,-2,0,0,2,53
1523144260348583,4,16,21,3,2,-3,-2,6
1523144260348583,-3,13,17,1,2,9,-15,-87
1523144260357606,-14,-23,-28,-5,-2,-5,-15,-8
1523144260357606,2,8,51,3,0,-3,-2,-7
1523144260372148,-4,-9,-60,-12,-4,-7,1,40
1523144260372148,9,10,35,8,6,6,13,51
1523144260373651,-4,-6,-47,-9,-6,-1,0,-50
1523144260373651,1,3,6,3,1,0,-7,-2
1523144260394707,3,6,13,2,0,4,12,-15
1523144260394707,-5,2,-27,-6,-4,-7,-1,15
1523144260396212,-3,-8,-10,-9,-4,0,3,-11
1523144260396212,-3,-15,-8,-4,-2,-6,-11,5
1523144260408745,-7,1,30,3,-1,-3,-8,-17
1523144260408745,6,6,-61,-10,-7,-7,-1,13
1523144260417267,5,15,39,-1,2,0,1,6
1523144260417267,-5,-5,-52,-4,-2,0,6,-8
1523144260432306,-3,2,8,-2,0,-3,-9,-12
1523144260432306,5,20,34,7,0,-2,0,-8
1523144260433811,3,7,-4,0,-2,3,9,37
1523144260433811,6,-10,10,-2,-2,-3,-2,-16
1523144260454865,3,34,-2,0,0,1,0,-9
1523144260454865,-15,-36,20,1,0,-5,-13,13
1523144260456372,-2,-24,-47,-4,-2,-6,-17,2
1523144260456372,-4,-11,6,0,1,9,20,-1
1523144260477425,8,11,10,1,0,0,6,19
1523144260477425,2,-6,11,-3,-1,-4,-6,-13
1523144260478930,-2,9,-19,-1,-1,2,9,-1
1523144260478930,4,8,-20,-3,-3,-1,-4,-9
1523144260492467,6,-2,11,2,-2,-5,-20,3
1523144260492467,-16,-35,17,-2,2,2,3,6
1523144260493972,2,7,9,0,-1,0,5,-17
1523144260493972,0,11,-4,-2,-3,-7,-12,-5
1523144260514524,1,-11,-20,-3,0,4,8,10
1523144260514524,10,21,25,4,1,3,2,-1
1523144260516531,-5,-4,-14,-2,0,1,-2,-6
1523144260516531,-5,-5,-6,-3,-3,-6,-11,-11
1523144260537087,-1,8,2,0,1,-3,-5,11
1523144260537087,1,-3,-1,0,-1,3,16,-4
1523144260539093,-3,-4,-2,2,1,4,7,-6
1523144260539093,-6,-3,-14,-2,-3,-4,-10,-3
1523144260552126,0,-9,-8,0,0,-3,-2,0
1523144260552126,0,3,16,2,0,1,-3,-2
1523144260554130,0,1,-13,-4,-2,-4,-3,-4
1523144260554130,-2,1,5,-1,-1,-2,6,-3
1523144260574684,-4,-13,-3,-1,-3,1,5,5
1523144260574684,-1,-8,-29,-5,-3,-6,-8,-5
1523144260576189,-4,3,31,5,4,4,1,2
1523144260576189,-1,3,-13,0,2,3,-5,-6
1523144260597245,0,9,-12,-4,-3,-9,-20,-7
1523144260597245,-5,-12,14,0,-1,2,14,6
1523144260598750,1,-12,1,-3,-4,-11,-19,-2
1523144260598750,0,10,-13,0,1,3,10,-7
1523144260611784,-2,10,35,-1,-1,-1,-8,8
1523144260611784,-2,7,-8,0,-2,-2,-2,-14
1523144260618303,2,6,-1,0,-1,-2,0,-5
1523144260618303,-2,-6,31,3,1,-3,-15,16
1523144260634848,-4,2,-26,-13,-6,-2,11,-19
1523144260634848,2,-10,-55,-1,1,2,5,0
1523144260636348,2,-3,-15,3,2,3,12,27
1523144260636348,-3,-2,54,-7,-6,-5,-11,-62
1523144260657404,0,-3,4,6,1,4,7,18
1523144260657404,-3,1,-40,-8,-6,-8,-12,5
1523144260658909,5,6,9,1,1,-1,-11,-4
1523144260658909,-2,-14,-17,2,-5,4,31,30
1523144260671442,6,-2,43,3,5,11,24,80
1523144260671442,-12,6,42,0,-2,-12,-29,-108
1523144260678462,-4,-6,-108,-5,-2,4,10,40
1523144260678462,-3,-12,40,0,-1,-5,-13,9
1523144260694504,2,-1,-1,0,0,-1,1,-3
1523144260694504,18,25,23,12,7,4,4,44
1523144260696508,-10,-13,5,3,-5,-5,0,-28
1523144260696508,2,6,12,3,3,8,9,-8
1523144260717064,-2,-25,-83,-14,-5,-5,1,5
1523144260717064,13,22,74,6,3,5,0,84
1523144260719069,-16,-1,9,0,0,-3,-6,-106
1523144260719069,-9,-26,-47,-3,-2,-8,-36,11
1523144260731601,-5,-11,-31,2,-1,-3,-14,-15
1523144260731601,3,1,-11,-3,-1,9,33,65
1523144260739124,-3,1,49,0,-2,-6,-12,-40
1523144260739124,0,12,-30,-1,-2,-3,-3,-16
1523144260754165,3,7,74,11,7,-2,-8,-12
1523144260754165,-12,-37,-94,-18,-12,-4,8,-8
1523144260754666,8,4,40,-3,-1,5,27,77
1523144260754666,-2,10,36,3,1,-4,-26,-51
1523144260776723,-5,-6,-20,0,-2,-3,-18,-78
1523144260776723,-4,13,67,4,0,-4,-3,48
1523144260777225,-4,-2,-35,-4,-2,-1,-10,-34
1523144260777225,2,-7,-38,-3,-4,-11,-1,35
1523144260790760,4,1,-52,-3,-1,4,22,30
1523144260790760,2,9,43,2,1,2,-5,-22
1523144260799282,5,1,92,9,3,5,2,12
1523144260799282,-3,-6,-98,-13,-4,-3,3,19
1523144260814332,-8,-10,22,-1,-7,-6,-7,-10
1523144260814332,0,2,-1,-3,-1,-6,-7,-2
1523144260814823,-6,1,8,-3,-1,1,10,11
1523144260814823,12,12,49,7,2,5,4,88
1523144260836382,-15,-6,-28,-7,-3,-6,-5,-91
1523144260836382,0,4,23,3,2,9,13,49
1523144260837383,2,-5,-1,-3,-2,-3,13,35
1523144260837383,2,11,46,3,4,0,-6,-6
1523144260850920,-2,-18,-80,-24,-9,-7,-5,43
1523144260850920,1,2,84,10,1,-5,-1,-37
1523144260858942,-1,2,-11,-3,0,0,-2,-9
1523144260858942,4,9,42,6,3,7,26,6
1523144260873993,2,12,51,9,4,-3,-19,9
1523144260873993,-10,-25,-95,-11,-6,-1,1,-41
1523144260874996,2,-1,-8,-3,-4,-5,-9,18
1523144260874996,-2,-2,-8,-3,-2,-2,-7,-15
1523144260896553,0,3,-1,5,2,2,0,8
1523144260896553,3,10,49,-3,-1,-3,-12,-14
1523144260897556,1,2,-43,-1,1,1,-3,5
1523144260897556,-13,-25,-13,-13,-7,-6,1,-15
1523144260911091,0,-1,-14,0,-1,-5,-12,1
1523144260911091,3,3,-5,2,0,-3,2,-9
1523144260919121,6,4,62,-1,0,0,1,9
1523144260919121,1,10,-89,-1,-1,0,3,-13
1523144260934161,-7,-29,-16,-9,-6,-4,1,17
1523144260934161,-13,-30,1,0,-4,-9,-19,-29
1523144260934655,1,-4,-36,-1,0,5,11,0
1523144260934655,1,14,-5,0,1,0,-4,-4
1523144260956712,0,-9,40,2,2,4,8,8
1523144260956712,-1,12,27,1,1,0,-6,-1
1523144260957214,-2,-11,-40,-4,-2,-4,-1,-4
1523144260957214,-3,-2,34,-1,-1,1,-1,-6
1523144260970750,8,18,17,4,-1,1,-2,6
1523144260970750,4,14,-19,-4,-1,-1,5,-4
1523144260979273,-10,-6,10,1,1,-7,-19,-5
1523144260979273,2,6,30,-1,-1,-6,-7,17
1523144260994314,-6,-6,-18,2,2,12,25,-5
1523144260994314,0,-2,-20,-3,-1,1,-4,-4
1523144260994816,6,16,-4,-2,-1,-4,-6,0
1523144260994816,-4,-20,12,-2,1,-1,-8,-5
1523144261016373,-1,-5,0,-1,-1,-2,0,4
1523144261016373,6,16,-26,1,-2,0,3,1
1523144261017375,-1,4,34,-4,-2,0,-4,0
1523144261017375,-4,12,-4,-2,-3,-3,0,-10
1523144261030910,2,4,20,2,2,-2,-5,1
1523144261030910,-14,-24,-25,-5,-3,-4,-5,-5
1523144261038934,0,-11,-18,-2,-1,-2,-8,1
1523144261038934,1,0,-5,1,0,5,13,-6
1523144261053975,5,29,42,2,-1,-3,-7,-1
1523144261053975,3,4,0,1,0,2,6,0
1523144261054978,-3,-12,-18,0,1,0,0,4
1523144261054978,-3,-20,-27,-7,-4,-4,-2,-7
1523144261076534,2,6,16,1,-1,-6,0,9
1523144261076534,1,-4,0,2,3,10,19,40
1523144261077534,-6,0,15,-3,-5,-4,-8,-66
1523144261077534,-1,1,-33,1,0,-1,-6,10
1523144261091070,1,12,28,-3,-3,-2,-1,0
1523144261091070,-1,-14,-13,-1,2,-2,-2,6
1523144261099092,1,2,12,1,1,1,-6,25
1523144261099092,4,10,-7,-1,0,-1,3,11
1523144261114133,-10,-13,12,2,1,4,14,-43
1523144261114133,6,16,36,3,2,0,-1,6
1523144261114634,6,16,-21,-4,-1,2,7,11
1523144261114634,0,0,-4,3,-2,-2,-4,-3
1523144261136694,-1,-5,-16,-2,0,-2,-15,-11
1523144261136694,-2,8,34,3,-2,-5,0,-20
1523144261137194,-3,-14,-66,-13,-4,0,1,5
1523144261137194,0,-4,33,-3,-2,-1,2,1
1523144261150731,6,10,43,5,2,5,5,20
1523144261150731,0,-5,-35,-2,0,-2,-3,5
1523144261159253,-1,2,33,6,1,3,8,-18
1523144261159253,-1,2,37,2,1,1,-1,8
1523144261174292,-10,-18,-51,-7,-7,-7,6,3
1523144261174292,6,4,11,-4,-3,0,-11,7
1523144261174794,-4,-12,-24,-8,-3,-3,-4,-8
1523144261174794,-5,-3,-63,-2,-1,-6,-13,-36
1523144261196350,1,-5,34,2,2,11,18,-5
1523144261196350,1,0,29,4,0,-1,-6,12
1523144261197354,-2,-6,-55,-1,-2,0,10,7
1523144261197354,-4,-8,44,-3,-2,-5,-10,-15
1523144261210889,7,4,-40,-2,1,-1,-4,30
1523144261210889,-5,3,9,2,-1,-2,-10,-45
1523144261218913,-5,-25,-23,-3,-2,-3,2,34
1523144261218913,-3,2,31,-2,0,1,-5,-63
1523144261233953,11,17,-19,3,4,3,-4,30
1523144261233953,-6,-18,-13,1,-4,-7,8,52
1523144261234975,-5,11,49,5,0,-3,-29,-69
1523144261234975,-1,3,46,6,0,4,15,9
1523144261256512,3,3,-33,-5,-3,-2,-13,2
1523144261256512,-2,-8,-24,-8,-1,2,7,5
1523144261257514,8,12,27,6,0,-4,-5,50
1523144261257514,-5,-13,-60,-8,-4,-2,9,-16
1523144261271048,-3,6,31,5,0,-5,-13,-4
1523144261271048,-2,-2,24,-4,-1,-1,-4,-13
1523144261279070,2,-13,-14,-2,-2,3,11,53
1523144261279070,9,16,41,7,3,0,-4,-21
1523144261294114,-6,0,2,-1,2,0,-11,20
1523144261294114,-19,-20,-75,-16,-8,-10,-22,-111
1523144261294613,7,12,66,7,1,-2,-7,20
1523144261294613,6,1,4,-2,-1,5,18,48
1523144261316673,-12,-24,-49,-12,-8,-10,-20,-34
1523144261316673,4,10,23,5,3,4,15,48
1523144261317173,0,4,-12,-1,1,-2,-6,-17
1523144261317173,-1,-1,-9,1,-3,0,0,16
1523144261331209,-3,-18,26,0,-1,4,15,-15
1523144261331209,5,14,-34,2,3,0,-7,-15
1523144261339232,-5,-8,1,-2,-5,-7,-4,-5
1523144261339232,1,-3,-3,-1,-2,1,3,27
1523144261354270,4,14,98,7,3,2,8,27
1523144261354270,-8,-10,-28,-12,-6,-5,-23,-76
1523144261354776,0,6,16,7,4,1,5,-4
1523144261354776,-2,-3,-4,-2,-4,-6,-10,-4
1523144261376831,6,8,19,4,-1,2,8,16
1523144261376831,3,0,11,1,1,4,6,43
1523144261377335,-7,9,17,2,1,7,18,-47
1523144261377335,-9,-4,-23,-7,-4,-6,-9,-36
1523144261390869,-1,-17,-44,-7,-1,-5,-7,23
1523144261390869,3,5,23,2,0,-3,3,3
1523144261398890,-2,-5,-21,-6,-4,-1,-3,-4
1523144261398890,0,-12,-11,2,4,2,4,30
1523144261413931,-3,2,6,-1,-4,-3,0,-19
1523144261413931,3,-1,-5,1,-2,1,4,0
1523144261414933,-2,-5,2,-3,-3,-4,-6,13
1523144261414933,0,-1,6,-4,0,0,0,-1
1523144261436492,0,5,-56,2,2,-1,-4,-12
1523144261436492,-4,-1,20,-2,-2,-3,-1,3
1523144261437492,0,2,-19,-7,-4,-4,-3,-4
1523144261437492,2,0,43,0,-2,-1,0,13
1523144261459552,-5,-3,-13,1,-2,-3,-2,-24
1523144261459552,4,13,0,4,2,2,3,15
1523144261460554,-3,-11,-1,-6,-1,-3,-2,0
1523144261460554,1,4,-21,-1,2,2,2,-6
1523144261474125,0,-12,20,-4,-3,-1,4,1
1523144261474125,-9,6,32,3,2,-1,-12,0
1523144261474626,4,0,-45,-3,-1,-4,-11,2
1523144261474626,-4,-11,-4,3,2,5,8,2
1523144261496687,2,13,0,-6,-5,0,10,-7
1523144261496687,-2,10,-1,-1,0,-4,-10,5
1523144261497187,-3,7,7,1,1,2,0,-8
1523144261497187,-13,-28,-23,-3,-3,-7,-10,-3
1523144261519746,5,0,8,-1,0,0,6,-3
1523144261519746,4,3,-6,-1,0,-3,-2,-2
1523144261520748,-1,1,6,-1,1,-3,4,4
1523144261520748,4,17,-5,-1,-3,1,2,-3
1523144261534288,-3,-10,4,1,2,5,15,1
1523144261534288,3,-5,-5,0,-1,-4,-1,0
1523144261534787,-1,-4,-3,1,0,3,8,6
1523144261534787,2,2,14,-1,-1,-4,1,0
1523144261556343,-9,7,-21,1,-1,0,-5,-13
1523144261556343,-2,-21,-39,-4,-1,-2,-3,0
1523144261557346,3,1,34,2,-1,1,0,3
1523144261557346,1,8,-13,-3,-1,-2,-6,0
1523144261578904,4,13,13,-1,-1,1,-4,1
1523144261578904,-5,-13,-18,1,2,1,0,-1
1523144261579905,1,4,29,1,-3,0,-6,-3
1523144261579905,0,-2,-14,-4,-2,-1,3,10
1523144261593943,-1,-3,13,-1,-1,-4,-9,-13
1523144261593943,3,0,8,1,-1,3,6,36
1523144261594946,-7,-7,-16,-4,-3,-5,-10,-66
1523144261594946,-3,3,2,-3,-2,-3,-8,7
1523144261616502,-3,-1,-5,-2,-1,-3,-9,8
1523144261616502,6,12,67,1,-1,0,4,1
1523144261617505,-4,-14,-99,-10,-4,2,1,24
1523144261617505,-3,6,25,4,-1,-8,-17,-25
1523144261640067,0,-4,-37,-2,0,0,0,-5
1523144261640067,4,5,21,1,1,3,5,12
1523144261640569,6,10,59,4,2,0,-3,14
1523144261640569,-13,-34,-37,-3,-5,-4,-2,-40
1523144261654106,1,-1,-27,-4,0,-4,-9,18
1523144261654106,-2,-5,14,-2,-5,-1,10,-2
1523144261655107,-3,2,14,-5,-3,-6,-5,-14
1523144261655107,-1,2,3,4,7,2,-5,-12
1523144261676663,2,2,12,1,-2,-2,3,-7
1523144261676663,1,-3,-61,-4,-1,-1,4,16
1523144261677165,4,-8,6,2,-2,-2,6,33
1523144261677165,-1,11,23,2,-2,3,-7,-25
1523144261699729,-9,-6,21,-2,-4,-3,-9,6
1523144261699729,5,12,-1,5,0,-1,-6,-47
1523144261700728,-2,-10,-19,3,4,9,29,70
1523144261700728,-4,0,-50,-9,-3,-1,10,-8
1523144261714263,-1,-5,9,-2,-8,-12,-6,6
1523144261714263,-7,-3,46,7,3,3,-5,-26
1523144261714766,2,3,-16,-1,4,-1,-9,6
1523144261714766,5,5,-22,-1,-2,4,8,23
1523144261736824,5,8,34,7,13,9,-10,10
1523144261736824,0,-2,-28,-5,-9,-2,20,27
1523144261737325,-7,-2,41,7,1,6,16,-30
1523144261737325,3,-1,7,-7,-10,-6,5,64
1523144261759886,-3,-1,-34,-9,-4,-3,-20,-111
1523144261759886,-3,7,127,24,9,-1,-12,42
1523144261760386,-13,-38,-84,-23,-12,-8,-20,-2
1523144261760386,6,6,52,0,0,-4,8,39
1523144261773923,1,7,89,11,5,13,41,1
1523144261773923,-14,-19,-112,-21,-6,-5,-3,-21
1523144261774925,13,26,74,10,1,-2,-2,2
1523144261774925,-1,-2,-15,-1,1,-1,-2,3
1523144261796482,-9,-24,-35,-16,-15,-15,-18,10
1523144261796482,1,1,3,1,4,4,5,-6
1523144261797485,6,15,0,5,2,4,4,-9
1523144261797485,4,3,29,3,2,-1,-10,-10
1523144261820045,2,0,-61,-5,-11,-11,-6,15
1523144261820045,-5,-12,-27,-6,-5,-5,-5,-12
1523144261820547,-2,5,11,4,8,0,-28,-18
1523144261820547,0,3,11,3,3,6,29,16
1523144261834084,1,-4,8,-2,2,2,12,26
1523144261834084,3,-2,-37,-9,-4,-2,-13,12
1523144261835085,-10,-21,48,-1,-6,-3,11,-19
1523144261835085,-3,4,13,1,1,-7,-39,-67
1523144261856645,-10,-2,13,0,1,1,16,-31
1523144261856645,6,10,-25,-1,-2,-5,-10,32
1523144261857143,1,0,-7,1,1,0,5,-14
1523144261857143,-2,-8,-36,-6,-2,2,5,11
1523144261879706,7,9,9,6,2,0,-2,43
1523144261879706,-3,5,39,0,1,8,23,-10
1523144261880712,2,5,-19,-6,-2,-2,-1,-16
1523144261880712,1,2,14,1,-4,-1,-8,24
1523144261894241,-6,1,18,-1,0,-6,-20,-51
1523144261894241,-3,-5,-40,-13,-3,1,12,-9
1523144261894745,-4,-8,-32,-7,-8,-6,-2,16
1523144261894745,7,12,48,6,5,0,-3,27
1523144261916803,-6,-9,-7,-2,-3,3,5,-18
1523144261916803,3,10,-3,-2,-6,-6,-10,-32
1523144261917304,-4,2,2,4,2,-4,-2,33
1523144261917304,-5,-9,-41,-5,-6,-3,-3,-74
1523144261939865,3,-1,21,3,8,1,1,31
1523144261939865,3,5,14,0,-2,1,11,18
1523144261940364,4,6,4,-3,-2,-4,-7,-2
1523144261940364,-2,2,-18,0,-1,1,8,1
1523144261953402,1,0,-21,-5,-3,1,4,22
1523144261953402,-2,-7,16,1,0,2,0,-18
1523144261961422,1,9,12,-6,-1,-2,-6,5
1523144261961422,-4,-9,-2,0,-1,-1,-1,2
1523144261976461,4,0,-2,5,6,6,-2,1
1523144261976461,-11,-19,6,-2,-3,-1,-1,-3
1523144261977470,-9,-11,0,3,3,2,-1,-28
1523144261977470,6,0,-5,-6,-5,-5,1,41
1523144261999522,-7,-8,-6,-5,-7,-12,-18,-37
1523144261999522,0,-2,16,3,3,-2,-8,0
1523144262000526,1,0,-12,0,-2,-1,-2,-3
1523144262000526,1,-5,0,-5,-1,3,10,-4
1523144262013560,-2,-4,13,2,0,2,-3,24
1523144262013560,10,10,-4,-1,0,-3,-4,-7
1523144262021585,-11,13,-8,-10,-4,2,8,-1
1523144262021585,-5,-18,1,2,0,-5,-15,2
1523144262036622,11,-7,-16,-5,-3,-1,2,5
1523144262036622,-23,5,2,5,-1,-5,-7,-23
1523144262037624,5,-13,1,4,-2,-6,-10,18
1523144262037624,6,10,1,-1,2,12,21,-2
1523144262059682,-9,27,-19,-2,-2,-3,-2,-3
1523144262059682,7,-21,3,-4,-4,-1,-4,14
1523144262060686,2,19,-1,0,3,-7,-8,-6
1523144262060686,-15,-14,0,3,0,4,12,-5
1523144262073722,3,3,-5,-4,-2,2,6,8
1523144262073722,4,12,-2,-5,-2,1,7,-1
1523144262081744,1,-7,-13,1,1,-3,-10,4
1523144262081744,0,1,0,3,3,-7,-14,-6
1523144262096781,-6,1,7,-3,-3,-4,-21,-12
1523144262096781,1,-4,-4,-1,1,1,4,19
1523144262097295,8,-8,13,1,-3,4,24,28
1523144262097295,-5,5,8,-2,-4,-10,-32,-61
1523144262119845,-7,-3,-9,-1,-2,0,-3,9
1523144262119845,0,-3,1,-2,1,-2,-4,-4
1523144262120346,2,2,27,3,-1,-6,-11,7
1523144262120346,3,7,-44,-6,-4,1,19,39
1523144262133379,-1,-5,19,0,-4,-6,5,-8
1523144262133379,3,1,-7,3,-1,1,-2,-6
1523144262141400,-6,-14,-55,-10,-2,-5,-12,-13
1523144262141400,-2,2,20,0,1,4,-7,-1
1523144262156440,4,5,-14,3,1,8,21,16
1523144262156440,-3,3,50,6,1,-3,-3,-35
1523144262157442,-13,-21,-32,-7,-7,-4,-8,-5
1523144262157442,0,-6,18,-3,-2,-8,-8,0
1523144262179508,-1,-2,26,4,-1,2,4,-1
1523144262179508,5,8,13,-2,-1,-4,-11,10
1523144262180507,1,-12,41,8,0,7,15,-6
1523144262180507,-7,-10,-51,-13,0,-2,-11,14
1523144262193542,-10,8,19,4,0,-2,5,-35
1523144262193542,17,-13,-29,-4,1,-6,-1,8
1523144262201572,9,10,27,1,-1,-2,-11,39
1523144262201572,-1,11,9,5,4,10,23,-62
1523144262216603,-1,-19,-64,-8,-1,0,4,29
1523144262216603,-27,-12,-5,-10,-10,-14,-45,-79
1523144262217104,2,16,-34,-3,-1,4,11,14
1523144262217104,10,-4,51,8,1,-2,8,47
1523144262239665,17,7,2,-5,1,7,22,21
1523144262239665,0,-1,6,1,0,-2,3,13
1523144262240668,6,14,17,2,1,3,5,-26
1523144262240668,-10,-1,-22,-4,-6,1,11,12
1523144262253703,-2,-15,15,-4,-1,-7,-16,-24
1523144262253703,4,8,2,4,4,5,5,36
1523144262261723,-6,-10,-23,-9,-3,-3,13,-20
1523144262261723,9,9,-11,-3,-6,-2,8,40
1523144262276764,-4,-2,3,1,1,-7,-18,-36
1523144262276764,-12,5,28,4,-1,0,-4,-20
1523144262277265,-4,-14,4,2,-3,-3,-6,0
1523144262277265,6,11,34,3,3,7,-2,9
1523144262299827,2,-16,-94,-13,-2,1,-1,54
1523144262299827,-5,-8,9,2,2,0,5,-5
1523144262300328,-11,5,40,1,1,7,25,-61
1523144262300328,-4,-12,-7,3,-3,-7,-18,13
1523144262313362,-9,-18,-57,-7,-4,-7,-10,-26
1523144262313362,12,7,5,2,0,4,41,58
1523144262321384,-5,2,-17,2,-3,-5,-20,15
1523144262321384,-3,-4,-26,-4,-2,-3,-2,-88
1523144262336423,4,22,93,11,5,5,7,7
1523144262336423,-12,-12,-57,-13,-2,5,4,-8
1523144262337426,5,-1,29,1,-3,-4,-2,67
1523144262337426,-7,2,41,1,-3,-7,-5,-45
1523144262359986,1,-1,-21,1,7,5,5,-26
1523144262359986,3,2,9,-2,-2,4,15,36
1523144262360488,4,4,-2,-2,3,6,5,24
1523144262360488,1,1,52,2,1,-5,-14,1
1523144262382046,-10,-14,-53,-12,-10,-6,-6,-8
1523144262382046,-1,6,27,0,-2,-9,-18,-52
1523144262383046,-12,0,-24,-1,1,-7,-17,-24
1523144262383046,19,-6,-11,-3,-1,7,24,33
1523144262396586,6,18,57,12,0,-1,2,52
1523144262396586,-13,-25,-58,-12,-6,-5,-12,-60
1523144262397586,-1,-9,13,3,-1,-2,5,34
1523144262397586,-8,1,22,0,3,9,14,-72
1523144262419645,-4,0,-27,-2,-3,-6,-7,40
1523144262419645,7,4,7,-2,0,3,0,54
1523144262420649,1,12,19,0,-4,-2,-4,-82
1523144262420649,-4,-10,-45,-3,1,-7,-20,46
1523144262442205,6,0,33,-1,0,7,19,-21
1523144262442205,-1,2,6,2,-3,-4,-4,31
1523144262443209,4,8,2,-4,-4,-3,-4,-17
1523144262443209,-1,3,-7,-1,2,-3,-3,12
1523144262456742,-5,-3,-3,-3,-3,-8,-28,-4
1523144262456742,-5,6,-5,2,3,6,3,25
1523144262457244,18,-8,-4,-5,-5,-2,-4,0
1523144262457244,-14,-14,-20,-2,-5,1,-1,12
1523144262479804,11,8,22,3,4,-1,-3,-4
1523144262479804,2,-1,4,0,0,-1,-2,-8
1523144262480820,-13,0,-14,-3,1,1,1,-20
1523144262480820,4,5,-8,-2,-4,-7,-7,25
1523144262502376,3,-11,19,0,-3,0,0,-4
1523144262502376,-5,3,-8,-1,-1,-1,-1,8
1523144262502877,-6,4,-13,-3,-2,-2,-1,-60
1523144262502877,-2,-13,-4,-3,0,-4,-9,-6
1523144262516413,1,0,4,1,-4,-2,1,7
1523144262516413,13,5,-13,-3,0,-1,1,0
1523144262517416,-15,12,-2,0,2,1,0,-6
1523144262517416,14,7,7,2,-3,-2,-3,26
1523144262539474,6,5,5,-1,-3,-2,-2,22
1523144262539474,-17,8,-1,1,-3,-2,-4,-81
1523144262540478,-13,-1,3,1,-2,-8,-20,6
1523144262540478,-4,-37,-5,-4,-2,-1,-6,0
1523144262562037,0,7,-8,-1,0,4,12,15
1523144262562037,12,14,3,0,-1,0,1,4
1523144262563038,4,7,-3,0,-3,-5,-5,-3
1523144262563038,-3,17,-6,-1,-4,5,15,11
1523144262576574,1,-8,3,3,3,-6,-11,-33
1523144262576574,-8,-7,0,0,-2,-5,-4,5
1523144262577075,3,-7,-6,-1,0,15,40,27
1523144262577075,-8,3,-1,1,-3,2,4,5
1523144262599138,-9,-3,6,-3,-2,-3,-3,-21
1523144262599138,1,-11,1,1,0,2,-2,0
1523144262600135,6,-7,-7,1,-1,-1,-7,30
1523144262600135,-5,8,4,-1,1,0,-3,-27
1523144262622194,-2,5,0,-1,-2,-1,3,-2
1523144262622194,11,0,-2,0,-3,1,13,107
1523144262623197,-14,-13,-5,-5,-3,-4,-23,-101
1523144262623197,-1,9,2,3,4,-2,-5,15
1523144262636740,-9,-3,1,0,-2,-3,-8,4
1523144262636740,4,-5,3,0,-1,-2,9,24
1523144262637242,11,8,-7,-3,-1,-1,9,32
1523144262637242,-5,1,16,0,-2,-1,7,-13
1523144262659293,-9,-8,-18,-4,0,6,10,-12
1523144262659293,10,2,11,2,-2,5,7,-17
1523144262659796,-1,3,8,-3,-1,-2,-1,20
1523144262659796,-3,-3,-11,-1,-1,-8,-16,-37
1523144262682354,0,-2,42,3,1,3,3,9
1523144262682354,-5,-5,-36,-7,-2,0,-6,-23
1523144262682856,-4,-9,-16,-3,-3,-6,-9,-2
1523144262682856,6,7,64,5,0,-2,-6,20
1523144262696403,-4,-1,-51,-4,2,-1,-2,-3
1523144262696403,-2,3,43,5,2,-1,-2,-14
1523144262697395,2,1,-18,-1,-1,-15,-29,-6
1523144262697395,1,13,71,11,3,12,34,-9
1523144262718952,-5,-11,-60,-13,-5,-3,-3,18
1523144262718952,-4,-11,-27,-11,-1,-2,-14,24
1523144262719956,-9,-3,20,4,1,-3,-25,-62
1523144262719956,2,6,-11,0,1,-2,-7,45
1523144262742516,0,6,52,3,-4,1,0,1
1523144262742516,7,-5,-11,-2,-3,0,3,22
1523144262743017,-2,-15,-30,-7,-3,2,17,21
1523144262743017,5,5,4,2,0,-1,-11,-5
1523144262756552,-12,8,16,9,4,1,-3,-37
1523144262756552,6,1,-34,-5,1,-2,-9,-6
1523144262757558,-9,-5,21,2,-1,10,31,21
1523144262757558,0,-7,-20,-7,-3,-10,-7,-31
1523144262779111,2,1,14,4,1,-4,-21,2
1523144262779111,-14,-16,27,7,-2,-2,11,-16
1523144262779613,13,6,10,1,3,5,-4,18
1523144262779613,3,-8,-76,-11,-5,-2,19,126
1523144262802182,-1,5,75,6,-2,-7,-22,-92
1523144262802182,-11,1,-9,-7,-2,4,8,-8
1523144262803176,-1,-29,-50,-15,-5,3,23,62
1523144262803176,27,4,19,1,0,-3,-22,7
1523144262816722,-89,-27,-109,-19,-8,-6,1,-48
1523144262816722,11,18,73,7,-1,-4,-8,-3
1523144262817214,9,-5,-22,-1,-2,2,5,11
1523144262817214,-5,9,27,3,4,4,8,-36
1523144262839274,4,-9,-64,-15,-7,-2,4,17
1523144262839274,3,-3,-8,-2,0,-1,-11,-1
1523144262839775,-1,19,70,13,4,3,11,109
1523144262839775,-29,-35,-26,-17,-9,-11,-45,-100
1523144262862336,9,16,59,7,3,-3,-8,62
1523144262862336,13,-10,-6,-4,-5,2,12,13
1523144262862835,20,11,2,3,4,-2,1,10
1523144262862835,3,14,-13,4,6,8,19,2
1523144262876371,7,-10,-6,-4,-7,-8,-5,-2
1523144262876371,-7,-11,3,1,0,-1,8,15
1523144262877374,-9,5,13,-3,-4,-1,-11,-59
1523144262877374,1,6,-27,1,0,1,3,-2
1523144262898932,26,13,54,11,5,5,6,6
1523144262898932,-9,-12,-82,-14,-7,-6,-9,5
1523144262899940,3,-29,44,4,2,4,12,-23
1523144262899940,-9,-5,-36,-9,-4,-5,-13,80
1523144262922494,10,16,65,5,-1,-5,-9,-72
1523144262922494,-7,-9,-59,-4,3,2,-2,14
1523144262922995,4,5,9,-1,-1,-1,-8,-9
1523144262922995,-1,-1,-10,-4,-3,-6,-3,29
1523144262936535,3,-5,-17,-2,1,6,30,30
1523144262936535,22,3,42,6,0,-6,-21,-19
1523144262937535,-11,-1,-31,-2,-2,-3,-2,-27
1523144262937535,-8,-3,9,0,0,-1,1,-7
1523144262959092,-3,1,7,-4,-4,-3,-10,-9
1523144262959092,-12,5,-46,-4,-1,-2,10,-11
1523144262960094,11,10,18,3,2,1,-3,60
1523144262960094,3,10,14,0,-4,0,4,-62
1523144262982153,9,-2,-13,0,-1,-8,-12,33
1523144262982153,-3,21,26,1,1,9,16,3
1523144262983155,-17,-1,-17,-3,-1,-6,-14,-7
1523144262983155,-2,-13,-6,0,0,2,12,-8
1523144262996189,24,0,-12,-3,-2,0,9,59
1523144262996189,-8,2,16,1,0,-1,-10,-72
1523144263004213,-20,-6,-7,-1,-4,-7,-11,-1
1523144263004213,-2,-5,-3,-5,-5,-2,7,8
1523144263019249,15,-3,-16,2,4,9,17,45
1523144263019249,-17,-6,40,2,-2,-4,-10,-21
1523144263019755,11,-2,-18,-2,-2,-4,-9,-14
1523144263019755,-14,-9,3,2,-2,-5,-10,-42
1523144263042313,4,3,-10,-2,0,10,7,10
1523144263042313,0,10,7,0,-2,-4,-5,23
1523144263042816,1,3,0,-1,-1,1,8,1
1523144263042816,-9,-6,3,0,-1,0,1,-14
1523144263055850,-5,-12,-7,-3,2,-5,-10,21
1523144263055850,1,-15,1,0,0,2,2,-33
1523144263064371,4,6,7,-2,0,3,11,-11
1523144263064371,19,6,-8,-2,-3,-3,-10,38
1523144263078910,-9,-9,-5,-1,-3,1,4,-18
1523144263078910,-1,-11,15,2,-2,-5,-10,21
1523144263079912,-8,-1,-5,-1,-2,-1,6,2
1523144263079912,-6,12,-1,-2,-2,2,4,-28
1523144263102471,2,-9,-4,1,-2,-7,-15,-10
1523144263102471,9,5,-20,-1,0,1,9,3
1523144263102974,-10,0,34,-3,-5,-5,-14,-6
1523144263102974,-3,-6,-3,0,2,3,2,-11
1523144263116013,5,-21,17,1,-2,1,7,92
1523144263116013,-8,5,-12,-4,-4,-6,-20,-100
1523144263124032,4,6,-10,1,-2,0,7,13
1523144263124032,-1,-3,-13,-1,1,-5,-13,27
1523144263139070,-11,10,10,0,1,-3,1,11
1523144263139070,-4,2,-4,1,-1,-1,8,-4
1523144263140072,23,-7,-5,0,1,-1,-5,6
1523144263140072,-5,-12,-67,-7,0,-5,-6,-14
1523144263162131,3,4,33,4,-4,-3,-1,-20
1523144263162131,10,9,56,7,5,11,32,57
1523144263163133,-20,-8,-38,-15,-6,-11,-34,-68
1523144263163133,13,6,25,5,2,3,9,10
1523144263176169,11,26,38,12,9,4,6,4
1523144263176169,-20,-39,-91,-21,-15,-9,-14,-25
1523144263184191,0,17,92,10,3,3,2,40
1523144263184191,8,6,63,1,0,6,14,40
1523144263199230,-15,-10,-69,-8,-5,-1,-3,-93
1523144263199230,11,36,126,28,7,-5,1,101
1523144263199733,-39,-46,-128,-33,-9,-4,0,41
1523144263199733,50,-12,37,-7,-6,-1,-16,-79
1523144263222294,-50,17,103,7,2,2,5,19
1523144263222294,-4,-8,-93,-20,-6,-4,-9,10
1523144263223293,13,5,-3,13,2,-2,9,-5
1523144263223293,5,20,3,18,8,7,9,45
1523144263235831,10,-25,-34,-22,-11,-2,4,-31
1523144263235831,13,30,86,21,12,6,-5,21
1523144263243847,-7,-21,-21,-26,-11,-8,-11,-47
1523144263243847,-14,-11,-106,-9,-5,-1,1,-6
1523144263258888,2,13,9,8,5,2,4,44
1523144263258888,3,-7,-28,-10,-1,3,12,-4
1523144263259891,11,13,70,15,3,1,2,-24
1523144263259891,-35,-5,31,0,-3,-8,-26,-17
1523144263282452,13,-7,-42,-5,-2,1,15,80
1523144263282452,3,4,23,0,-1,-2,-29,-34
1523144263282958,14,14,55,11,5,-3,-12,25
1523144263282958,-8,-22,-97,-16,-5,13,28,100
1523144263306015,5,13,37,6,0,-3,-3,-96
1523144263306015,-15,-6,69,6,0,-5,-28,91
1523144263307017,-16,-17,-98,-16,-2,-3,-4,10
1523144263307017,-21,11,100,14,5,-7,-17,-4
1523144263319052,35,-10,-85,-16,-1,4,1,31
1523144263319052,-6,-2,43,0,-4,0,20,-14
1523144263320053,7,16,67,15,3,3,-2,-57
1523144263320053,2,-6,-77,-22,-9,-4,14,26
1523144263342113,-3,11,42,9,2,-3,-8,-11
1523144263342113,-8,-38,-128,-17,-9,-2,29,8
1523144263343114,-6,11,13,5,2,-1,-25,-44
1523144263343114,15,21,106,15,7,-1,18,37
1523144263364674,-10,-14,-45,-9,-9,-5,-36,-85
1523144263364674,28,3,-16,-5,0,-3,-14,58
1523144263365673,-55,-35,-79,-26,-11,-4,28,5
1523144263365673,-6,7,61,5,0,-8,-9,-29
1523144263379208,5,-3,6,-3,0,-4,-21,-45
1523144263379208,-6,-5,-2,2,-1,1,12,11
1523144263379710,23,11,2,7,5,7,13,30
1523144263379710,4,-3,-11,-3,-3,0,4,8
1523144263402269,-17,-6,-10,-4,-2,-3,9,7
1523144263402269,17,22,23,9,3,6,11,-16
1523144263403274,7,-4,-7,-1,-6,0,12,15
1523144263403274,-4,-11,-53,-4,-2,-6,-18,-53
1523144263424833,6,9,24,5,3,3,5,31
1523144263424833,-8,0,12,2,0,-1,-1,-31
1523144263425332,9,-16,6,3,1,-1,-5,39
1523144263425332,-5,4,1,0,-1,4,14,-10
1523144263439370,-16,3,-50,-4,-4,1,7,15
1523144263439370,-32,-9,1,-8,-2,-7,-22,-29
1523144263439872,13,1,10,6,1,1,-1,10
1523144263439872,-5,-2,3,1,-2,-4,-11,-7
1523144263462430,-12,4,32,6,3,1,7,28
1523144263462430,45,46,-47,-8,-3,0,8,-25
1523144263462932,-33,-28,12,1,0,-1,-1,-9
1523144263462932,-11,-83,-5,-3,-5,-3,-3,-4
1523144263484990,10,12,-5,-1,-1,-2,-1,23
1523144263484990,-13,-11,4,1,0,-1,4,3
1523144263485492,38,52,12,0,3,0,2,2
1523144263485492,16,31,-17,0,1,0,1,-13
1523144263499028,-4,-23,46,-4,-4,-1,4,28
1523144263499028,2,0,-10,-3,-4,-2,-5,-16
1523144263500031,-4,4,6,0,-1,-3,-3,13
1523144263500031,-9,-21,-2,-3,-1,-1,-6,-8
1523144263522092,16,9,-6,-2,1,-1,-10,15
1523144263522092,-24,-11,9,1,0,-5,-25,-32
1523144263523093,2,7,4,-1,-1,5,23,31
1523144263523093,-3,7,11,-1,-2,-1,-8,-40
1523144263544650,-9,-2,-25,-2,-1,-2,-1,-8
1523144263544650,8,-18,-2,-3,-2,-3,13,72
1523144263545653,-4,1,19,2,-1,-3,-8,-40
1523144263545653,-11,21,5,4,0,0,-16,45
1523144263559186,-4,-17,-62,-10,-7,-8,2,12
1523144263559186,-8,-2,10,1,0,1,-4,4
1523144263559689,10,1,5,2,-1,0,7,38
1523144263559689,7,16,15,0,-1,0,11,-13
1523144263582250,-7,-11,12,-1,-3,-7,-5,-20
1523144263582250,0,-8,-16,2,2,5,-1,-24
1523144263583252,5,2,19,-3,-2,-6,-11,-17
1523144263583252,7,10,17,2,3,13,24,38
1523144263604811,-4,-4,-8,0,-3,-2,-6,-30
1523144263604811,-6,4,21,-3,-2,-4,-17,-54
1523144263605311,5,-8,-52,-4,-2,2,-10,5
1523144263605311,-7,-6,-20,-3,-5,-11,-5,-7
1523144263618850,18,15,25,4,4,1,1,41
1523144263618850,4,12,85,10,4,6,14,9
1523144263619850,-5,-15,-63,-10,0,1,-3,-2
1523144263619850,5,0,-4,4,0,2,3,20
1523144263642410,-1,-14,27,0,-2,-1,-10,-52
1523144263642410,-21,7,37,-7,-7,-14,-13,2
1523144263642911,-6,-6,25,7,-1,-7,-28,8
1523144263642911,19,19,86,11,7,7,36,89
1523144263665976,-15,-23,-117,-15,-2,5,-9,-90
1523144263665976,23,25,112,23,6,-2,16,52
1523144263667981,2,-1,-60,-24,-6,-9,-1,3
1523144263667981,-11,-15,7,-3,-6,-5,-10,-3
1523144263678508,26,45,125,23,13,26,92,51
1523144263678508,-15,-50,-128,-31,-14,-17,-32,-17
1523144263687530,0,15,23,15,4,-1,-8,-9
1523144263687530,5,1,10,2,4,11,-36,-10
1523144263702070,-4,10,70,14,2,7,1,-3
1523144263702070,1,-11,-84,-11,-3,-5,2,27
1523144263704072,-6,-4,-20,-1,-2,4,26,-39
1523144263704072,-13,5,-15,-4,0,-2,-22,-55
1523144263724633,-3,-1,20,5,-1,-5,-28,-3
1523144263724633,12,14,-29,16,6,4,12,71
1523144263726133,4,-12,37,-8,-6,9,22,14
1523144263726133,-11,-16,-68,-18,-6,-6,-13,-80
1523144263738666,-22,-5,-32,-2,-3,-16,-31,-3
1523144263738666,5,6,69,5,3,-5,-16,-15
1523144263747190,5,4,23,4,2,6,5,39
1523144263747190,14,9,-13,7,0,4,31,57
1523144263762228,7,4,-1,-3,-1,-5,-18,-8
1523144263762228,-17,-15,-11,-7,-3,1,9,-51
1523144263763733,6,18,50,11,5,3,-4,16
1523144263763733,-6,-9,-66,-9,0,0,10,4
1523144263784788,3,-3,26,1,-4,2,14,4
1523144263784788,5,-3,15,-2,0,5,30,87
1523144263786293,-9,6,38,8,0,-5,-39,-114
1523144263786293,-3,2,22,2,2,-9,-9,49
1523144263798323,-1,-6,-9,-9,-4,0,6,37
1523144263798323,9,2,-29,1,-1,7,15,30
1523144263807348,1,-7,-14,-6,-5,-1,10,10
1523144263807348,-23,-6,-29,-11,-9,-24,-31,-106
1523144263822388,-9,-7,-26,-12,-1,1,-8,-1
1523144263822388,3,18,94,17,8,10,0,-29
1523144263823893,-4,-27,-94,-20,-8,-11,4,54
1523144263823893,10,7,64,6,-2,-2,-24,27
1523144263844948,-9,-17,-107,-15,-5,-1,39,-14
1523144263844948,-7,11,35,-3,-1,-3,-18,-36
1523144263846453,0,-7,28,5,2,-1,4,5
1523144263846453,6,3,12,0,0,6,6,24
1523144263858483,7,-1,27,0,-3,-8,-7,60
1523144263858483,-10,-9,-41,-5,-3,12,2,-40
1523144263867507,-6,9,33,3,-3,-10,-28,-48
1523144263867507,3,-2,12,3,0,-8,3,32
1523144263882549,-7,-18,-67,-9,-3,8,-23,-9
1523144263882549,-4,-9,-24,-8,-4,-5,9,16
1523144263884053,6,7,19,2,0,1,17,24
1523144263884053,-2,2,28,5,1,1,6,-18
1523144263904611,3,6,14,2,0,-6,-8,40
1523144263904611,-1,-9,-14,-5,-4,0,-11,-70
1523144263906112,-15,8,5,1,2,1,9,21
1523144263906112,9,-12,-8,-4,0,0,1,-41
1523144263918644,3,-11,0,0,1,6,5,37
1523144263918644,15,-1,-4,-8,-4,-2,-3,-4
1523144263927668,-60,14,16,9,5,0,1,-43
1523144263927668,65,1,-16,-5,-1,6,7,70
1523144263942207,-68,-10,25,2,-2,-10,-14,-36
1523144263942207,10,-24,-7,-2,-3,-5,-4,-9
1523144263943711,6,4,-14,-1,0,0,-20,37
1523144263943711,-1,-8,-2,-4,-4,-8,18,-12
1523144263964767,0,-9,24,8,4,10,23,-15
1523144263964767,10,11,-1,-3,-3,-2,26,11
1523144263966271,-6,-7,-15,-3,-2,-5,-15,0
1523144263966271,-15,1,-9,-4,-3,1,-2,10
1523144263978303,26,4,21,-1,-2,-6,-15,32
1523144263978303,-21,-12,-11,-2,-1,-6,-7,-36
1523144263987328,29,-13,5,-1,-1,7,-3,8
1523144263987328,-3,0,3,2,0,0,5,6
1523144264002367,7,32,0,0,-2,-8,-8,-14
1523144264002367,-17,-14,-7,-1,-1,0,-8,15
1523144264003872,17,-18,0,-2,-5,-10,-10,-1
1523144264003872,-15,0,-2,0,0,5,6,-10
1523144264024926,10,5,-13,-1,-1,-2,-6,19
1523144264024926,-5,22,8,0,0,0,-14,-45
1523144264026432,7,5,2,1,1,-3,0,-9
1523144264026432,45,-6,-6,-4,-2,-3,1,3
1523144264038462,32,5,5,-1,-2,-4,3,-7
1523144264038462,11,0,-3,-2,0,3,-12,5
1523144264047487,1,-5,-4,0,0,0,-4,9
1523144264047487,0,2,-4,-1,-4,-10,-14,-14
1523144264062027,-12,-5,0,-2,-1,-1,-10,-1
1523144264062027,15,-1,-3,2,0,-2,1,90
1523144264064031,-3,-4,3,1,-1,3,3,-93
1523144264064031,-36,5,-4,-3,1,-2,-21,75
1523144264084588,17,1,9,0,-1,3,6,4
1523144264084588,-17,-2,-5,-2,0,-3,-3,12
1523144264086592,4,-6,-19,-1,0,0,15,46
1523144264086592,-14,12,40,1,-4,-5,0,-41
1523144264107147,3,-10,-59,-4,1,1,-5,1
1523144264107147,15,4,7,3,0,-5,0,-53
1523144264108651,-6,3,1,-2,-2,0,0,47
1523144264108651,-8,2,28,0,0,2,6,-23
1523144264122186,-7,6,-11,3,3,0,-4,-18
1523144264122186,-18,-20,-103,-8,-6,-10,-20,-5
1523144264123690,20,23,71,5,4,9,30,78
1523144264123690,-9,-3,-35,5,4,3,-5,-42
1523144264144748,-58,-14,49,-7,-13,-16,-44,-11
1523144264144748,20,6,-7,3,3,3,-15,32
1523144264146252,37,3,-20,-5,-1,0,7,-25
1523144264146252,-25,10,41,8,4,6,32,63
1523144264158284,14,-2,-7,-6,-3,-5,-2,-22
1523144264158284,-7,4,67,4,2,3,0,-22
1523144264167311,-9,-8,-82,-7,-3,-6,2,11
1523144264167311,6,-4,11,-2,-1,2,-3,-29
1523144264182348,11,2,0,5,2,5,24,2
1523144264182348,-18,-6,34,-5,-7,-9,-10,-27
1523144264183852,3,11,12,3,3,2,-4,16
1523144264183852,8,8,20,10,3,6,5,-24
1523144264204907,-7,-32,-98,-23,-13,-11,-8,22
1523144264204907,-1,0,-5,-3,-2,0,18,37
1523144264206411,-21,7,68,12,3,3,-5,-16
1523144264206411,-9,-7,-6,-3,-1,-7,-22,-68
1523144264227477,4,-11,57,-18,-4,-4,-9,-12
1523144264227477,6,4,32,5,2,7,15,32
1523144264228970,10,-10,-67,-9,-5,-5,2,13
1523144264228970,-7,-2,73,9,1,-1,1,13
1523144264242005,8,1,-53,-12,-1,-5,-3,7
1523144264242005,1,-7,-24,-5,-3,4,9,3
1523144264244012,5,11,59,10,6,6,6,13
1523144264244012,-5,23,37,13,6,6,5,-48
1523144264264564,-17,-26,-77,-23,-11,-11,-1,-5
1523144264264564,-20,-1,3,5,1,-8,-9,-13
1523144264266570,7,10,29,4,1,1,-16,20
1523144264266570,7,-26,-83,-27,-12,-13,22,35
1523144264287129,21,19,79,26,10,8,-13,-33
1523144264287129,-12,12,9,3,2,3,-3,-42
1523144264289131,-15,-32,20,-19,-14,-4,-5,16
1523144264289131,9,-6,-69,-8,-4,-2,1,2
1523144264303170,5,17,0,8,5,9,19,36
1523144264303170,25,-3,87,2,-2,1,20,32
1523144264308683,-4,3,-9,1,3,0,-1,-45
1523144264308683,-14,-4,-40,-3,-1,-6,-31,-13
1523144264324727,3,2,13,10,-1,2,13,3
1523144264324727,1,4,-15,1,1,0,7,0
1523144264326731,0,1,-13,0,0,1,8,59
1523144264326731,-16,-15,-39,-11,-7,-7,-4,-49
1523144264346283,4,15,101,13,5,4,-6,-13
1523144264346283,6,-10,-31,-10,-7,-2,1,19
1523144264354805,-7,1,0,3,-1,-3,-2,5
1523144264354805,19,2,1,7,2,5,-2,-23
1523144264362327,8,5,-10,6,1,0,2,104
1523144264362327,-5,-6,-69,-9,-2,0,10,-110
1523144264363829,-15,-1,30,4,-1,-5,-12,-1
1523144264363829,-1,-14,-43,-12,-5,-2,-8,33
1523144264384884,6,2,12,0,-1,-2,0,17
1523144264384884,0,-1,10,-3,-1,-2,6,26
1523144264386390,-1,-1,0,1,-1,-4,-10,-42
1523144264386390,-7,-2,24,-3,-1,2,2,2
1523144264407444,9,-6,-20,-5,-3,-2,2,-14
1523144264407444,4,11,22,3,2,-4,-14,18
1523144264408948,-1,-15,-25,-3,-2,3,14,5
1523144264408948,-4,7,13,-1,-2,-3,4,-14
1523144264421484,12,0,-17,1,-1,-1,-24,-30
1523144264421484,-29,-3,28,1,0,-4,-3,-69
1523144264428509,-1,-1,-23,-4,-4,-7,-15,55
1523144264428509,-11,6,4,2,1,1,11,38
1523144264444543,9,1,19,4,3,3,6,-16
1523144264444543,3,-3,-19,-5,-2,0,-6,-11
1523144264446548,-13,-4,-15,-5,-2,-5,-8,-21
1523144264446548,6,-4,4,1,0,2,1,32
1523144264467112,-8,8,6,-2,-2,-4,-6,-26
1523144264467112,5,1,-1,0,0,5,11,49
1523144264469111,-5,-8,-9,-2,-2,-6,-2,-8
1523144264469111,-26,5,6,3,1,5,0,-6
1523144264481642,14,-1,-21,-4,-5,-8,-3,6
1523144264481642,9,1,15,0,0,-4,3,62
1523144264488661,10,8,-9,-2,-2,-3,-2,42
1523144264488661,-7,-7,4,-3,-1,-4,-19,-92
1523144264504706,-15,3,-4,0,1,2,4,74
1523144264504706,10,11,-4,1,1,3,8,77
1523144264506211,-12,-4,-5,-4,-2,0,14,-89
1523144264506211,15,0,-8,0,-3,-5,-17,55
1523144264527266,-10,6,6,0,1,-5,-35,-84
1523144264527266,4,0,-6,0,-2,-1,-16,-3
1523144264528771,5,-6,-2,-3,0,4,21,7
1523144264528771,2,-12,-6,-1,0,0,-9,28
1523144264541802,-7,12,10,-2,-1,-11,-7,-39
1523144264541802,-20,-7,-9,0,0,5,1,6
1523144264548335,-1,-15,-5,-4,-2,-2,-7,-20
1523144264548335,8,-13,3,-2,-1,-3,12,90
1523144264564863,-12,-3,4,0,3,2,-10,-75
1523144264564863,-1,2,-8,-3,-5,-8,-22,10
1523144264566369,-8,15,-2,2,3,7,7,13
1523144264566369,13,4,6,1,0,1,7,21
1523144264587423,4,-2,-10,2,-1,0,23,61
1523144264587423,-10,0,-2,-3,-1,-1,1,-46
1523144264588936,-5,-7,-4,-1,-1,-1,-3,-31
1523144264588936,4,-1,2,-3,-2,1,-3,8
1523144264601461,-7,6,-3,-1,-1,-4,4,-15
1523144264601461,0,2,-7,-1,1,5,-1,-24
1523144264608481,6,0,0,-1,-2,0,2,37
1523144264608481,3,7,-7,-1,-1,1,-2,-34
1523144264624523,-3,-1,9,-2,-4,-4,10,-7
1523144264624523,-1,-10,-9,-1,-1,-9,-17,-12
1523144264626527,11,15,29,4,2,3,3,28
1523144264626527,-1,-18,-37,-7,-4,-2,5,20
1523144264647091,-6,-4,19,1,-2,0,-12,-44
1523144264647091,3,-2,12,3,3,2,-3,9
1523144264649087,0,-18,-54,-9,-7,-9,-7,21
1523144264649087,7,29,106,18,8,11,5,-14
1523144264661623,-15,-54,-101,-42,-15,-4,5,-14
1523144264661623,-1,3,60,2,-2,-2,-18,23
1523144264668641,10,12,51,4,2,3,10,-18
1523144264668641,-5,2,-12,1,-1,-5,13,-29
1523144264684683,-5,1,-9,6,2,-1,-27,27
1523144264684683,4,-6,15,-6,0,3,8,-17
1523144264686188,1,-7,-49,-1,-2,1,-16,-18
1523144264686188,-3,4,15,-4,-3,-5,5,29
1523144264707246,4,9,47,4,2,7,16,14
1523144264707246,-10,-21,-53,-9,-7,-6,-4,-18
1523144264708749,14,15,94,7,3,5,11,39
1523144264708749,-16,-9,-25,-15,-7,-16,-21,-71
1523144264721781,-1,7,53,9,4,10,15,-21
1523144264721781,-3,-24,-75,-16,-10,-14,0,32
1523144264728301,-6,-1,34,2,0,1,5,-31
1523144264728301,12,9,23,4,1,-2,-5,23
1523144264744844,-4,-3,25,0,1,3,-1,-6
1523144264744844,3,9,38,8,-1,0,9,1
1523144264746347,3,8,-33,2,4,3,3,7
1523144264746347,-6,-14,-89,-11,-6,-6,2,9
1523144264767402,8,5,40,9,2,-1,-17,17
1523144264767402,7,21,72,18,10,12,15,38
1523144264768907,-28,-38,-84,-34,-16,-21,-28,-99
1523144264768907,9,17,90,9,3,9,13,20
1523144264780941,-1,-6,-59,-2,-5,-6,5,43
1523144264780941,6,2,-80,-1,0,-1,7,40
1523144264789963,0,8,52,11,3,8,12,-82
1523144264789963,-16,2,39,8,1,-3,-40,-1
1523144264804501,-1,-23,-109,-24,-3,0,7,50
1523144264804501,10,9,127,10,-2,-2,-11,-12
1523144264806515,9,21,82,15,6,3,10,49
1523144264806515,14,18,54,7,2,5,7,-11
1523144264827061,-20,-37,-11,-19,-14,-7,15,12
1523144264827061,-6,5,55,5,3,0,-14,-40
1523144264829068,-8,-9,-22,-10,-4,-1,13,22
1523144264829068,8,20,44,21,8,-2,-10,-53
1523144264841099,6,16,39,11,6,12,11,13
1523144264841099,10,3,-5,-1,-2,-2,15,91
1523144264850123,-20,-40,-87,-38,-17,-10,-17,-85
1523144264850123,-8,-17,-43,-15,-6,5,-2,84
1523144264864663,5,15,21,11,5,-3,-3,6
1523144264864663,-2,-21,-34,-22,-8,-2,-10,10
1523144264866669,19,31,61,28,9,5,21,71
1523144264866669,-14,-24,-55,-11,-2,-6,-36,-47
1523144264887227,-4,-1,-19,-6,-5,-11,-21,-72
1523144264887227,8,18,0,10,5,-3,8,8
1523144264888726,11,3,14,8,4,5,1,33
1523144264888726,-3,-12,1,-11,-4,2,27,29
1523144264900762,-3,12,33,9,2,-4,-20,-43
1523144264900762,-1,9,41,8,4,-1,-13,-30
1523144264909782,-6,-8,-93,-13,-8,-3,-11,-1
1523144264909782,1,-13,-26,-9,-6,1,14,63
1523144264924826,12,13,84,18,11,12,13,-4
1523144264924826,-11,-11,-50,-9,-6,-5,4,-22
1523144264926328,-7,-4,-12,0,1,-2,-12,3
1523144264926328,7,11,41,2,1,-1,7,-1
1523144264947381,-8,-7,-34,-8,-5,-4,-18,-31
1523144264947381,-2,2,2,-5,-4,-5,-11,-31
1523144264948888,10,-7,13,2,2,10,15,32
1523144264948888,3,1,-15,-3,-1,0,4,-5
1523144264960918,4,0,14,-1,-2,3,12,17
1523144264960918,-7,-15,-27,-5,-3,-5,-5,-18
1523144264969944,13,15,44,8,-2,-7,-5,29
1523144264969944,-17,-18,-25,-2,-2,2,0,-49
1523144264984984,-2,-3,6,-4,0,-3,-3,3
1523144264984984,-3,-1,7,-1,2,-1,-6,-16
1523144264986486,-3,0,-3,-5,-2,-2,5,10
1523144264986486,1,-4,-6,-3,-3,-2,10,49
1523144265007042,-4,-14,6,-4,1,0,-6,-57
1523144265007042,-6,-1,-4,1,2,1,-2,12
1523144265009046,-8,-12,3,-5,-1,-3,-13,-11
1523144265009046,5,4,-15,-1,-1,-3,-6,-11
1523144265021078,9,14,19,4,-2,-1,24,53
1523144265021078,-7,-2,-12,-2,-1,0,-4,-41
1523144265030102,-6,-7,4,2,0,2,-7,-16
1523144265030102,-3,-1,3,3,-2,0,2,-2
1523144265044642,-3,-9,-8,-1,-2,-3,1,34
1523144265044642,-7,-2,-9,-3,-2,4,5,-12
1523144265046146,-3,1,8,0,-3,-9,-19,-12
1523144265046146,4,2,2,-2,-4,-4,0,-1
1523144265067200,4,16,5,2,2,0,3,8
1523144265067200,-11,-20,-8,-3,1,2,-11,-7
1523144265068705,1,8,11,1,-1,-2,-4,-1
1523144265068705,-1,-2,-6,-6,-5,-8,-7,-8
1523144265080745,-3,6,-1,-1,2,-1,2,9
1523144265080745,6,6,5,1,3,-1,-6,2
1523144265089762,-2,-1,-2,-2,0,4,3,19
1523144265089762,-1,0,-4,-1,-2,-1,-4,-17
1523144265104802,-2,2,-3,-1,-4,-4,-8,23
1523144265104802,-7,-5,1,-1,-2,4,17,-70
1523144265106307,1,-1,0,0,0,-5,-7,25
1523144265106307,-6,-3,-6,-2,-1,3,2,-45
1523144265127362,1,3,8,6,1,2,8,37
1523144265127362,2,-4,-5,0,-3,-3,-13,4
1523144265128866,-3,0,6,-3,-1,-2,0,-1
1523144265128866,4,6,-3,-2,0,1,4,28
1523144265140898,-2,-11,-5,-3,-5,-5,-4,-13
1523144265140898,0,3,-17,-1,-2,-1,6,-14
1523144265149923,-11,-2,15,-2,0,-2,-1,3
1523144265149923,0,0,-2,0,3,11,12,32
1523144265164459,-1,3,7,-2,0,2,-19,-60
1523144265164459,5,1,1,-3,-2,-3,1,49
1523144265166467,-5,-11,-3,0,-4,4,16,-15
1523144265166467,10,-8,-11,-4,-3,-7,-6,-10
1523144265187020,1,0,-2,0,0,-3,2,20
1523144265187020,6,5,29,3,0,-3,5,16
1523144265189025,-1,20,43,9,6,-3,-13,-9
1523144265189025,-12,-32,-85,-24,-6,2,1,-15
1523144265209584,-11,1,52,7,-1,6,19,13
1523144265209584,12,19,-13,12,6,4,-11,18
1523144265211584,-15,-38,-69,-26,-15,-14,-17,-29
1523144265211584,7,22,101,15,5,6,22,35
1523144265224621,-9,-13,-82,-16,-3,-5,-18,-62
1523144265224621,-2,-6,15,-1,-2,-1,6,45
1523144265226125,13,24,66,11,4,7,10,-22
1523144265226125,-10,-7,-66,-8,-3,-4,-14,-12
1523144265247182,-5,-21,-14,-7,-5,-7,2,18
1523144265247182,5,9,54,1,2,1,11,6
1523144265248684,4,-1,3,-4,-2,-4,-6,13
1523144265248684,-4,6,16,8,0,-4,-26,-54
1523144265269743,6,10,24,5,2,-2,-15,15
1523144265269743,-6,-9,-41,-11,-4,2,13,-3
1523144265271244,5,4,-37,-1,1,6,5,7
1523144265271244,2,1,22,11,-1,-9,-17,43
1523144265284784,-1,-1,4,-5,3,11,25,-63
1523144265284784,1,-3,18,2,-2,0,-2,13
1523144265286289,3,2,5,-1,1,5,14,70
1523144265286289,-10,1,5,-2,-1,-5,-12,-103
1523144265307341,1,0,2,-4,-2,-1,-12,40
1523144265307341,-2,-6,16,2,1,-1,2,-16
1523144265308846,4,7,-2,8,3,2,2,33
1523144265308846,6,-6,-57,-6,-7,-6,14,30
1523144265329899,0,6,46,7,-1,-2,-4,-27
1523144265329899,-10,-12,-72,-20,-4,-2,5,-8
1523144265331403,-2,-2,14,1,-3,-12,-33,-9
1523144265331403,2,4,35,4,5,4,-6,-52
1523144265343952,7,7,43,3,2,1,11,31
1523144265343952,-10,-18,-70,-10,-9,-17,-28,-5
1523144265350955,3,3,-29,3,6,8,15,-7
1523144265350955,4,1,33,3,0,-3,11,70
1523144265366997,0,2,62,4,-2,-2,0,-37
1523144265366997,-16,-15,-86,-21,-5,-5,-8,-19
1523144265369003,3,1,42,5,1,6,3,-79
1523144265369003,3,4,18,7,2,2,1,39
1523144265389558,1,-5,-64,-8,-4,-6,10,4
1523144265389558,3,-3,-3,3,-2,8,16,28
1523144265391563,-5,-3,0,-3,-3,-11,-6,20
1523144265391563,-2,-1,-22,-4,1,8,-3,-52
1523144265404098,3,1,-16,2,1,0,-20,36
1523144265404098,2,7,72,7,1,0,7,-31
1523144265411115,-2,5,24,7,0,1,-6,-14
1523144265411115,-2,-25,-63,-20,-9,-8,-1,84
1523144265427158,-3,7,17,4,1,1,10,-58
1523144265427158,-5,2,20,-1,-1,-2,-19,-42
1523144265429165,-1,-2,4,3,0,-2,-11,21
1523144265429165,6,7,27,4,3,9,6,45
1523144265449718,-8,-7,-26,-4,-2,1,13,-51
1523144265449718,6,2,18,5,2,2,5,17
1523144265451227,-5,-3,-16,-9,-3,-1,-5,-13
1523144265451227,4,0,-11,-3,0,-5,-12,2
1523144265464258,4,-4,-15,1,-1,4,18,57
1523144265464258,5,6,27,5,4,8,12,0
1523144265470774,-12,-7,-8,-4,-4,-5,-5,-3
1523144265470774,5,1,9,2,0,-2,-6,-65
1523144265487318,-2,-5,-6,-1,0,-1,-5,59
1523144265487318,3,7,0,-1,-1,-3,-7,5
1523144265488822,-12,-10,-11,-6,-4,0,-1,-31
1523144265488822,-3,1,10,-1,-1,0,-2,-16
1523144265509879,3,1,-12,-1,-2,-2,-10,15
1523144265509879,0,-4,7,-1,-2,-2,2,21
1523144265511382,0,-2,-16,-4,-1,0,4,-10
1523144265511382,-9,-1,11,1,-1,-3,1,-25
1523144265523924,7,5,-9,-1,1,-3,-4,39
1523144265523924,-13,0,1,2,0,-4,3,-18
1523144265530943,3,2,-6,-2,-2,-2,-4,5
1523144265530943,-5,-4,5,-3,-2,-3,-1,-9
1523144265547479,4,-2,-3,-3,-2,-1,0,49
1523144265547479,3,4,1,2,1,1,-1,-50
1523144265548982,0,0,-10,-2,0,0,0,0
1523144265548982,3,7,4,0,-1,-2,-5,21
1523144265569538,-5,5,-7,-1,0,5,7,-1
1523144265569538,-5,-26,3,-1,-1,0,2,9
1523144265571542,5,-8,-7,-2,-5,-7,-3,32
1523144265571542,-10,0,0,-1,-1,5,-2,-33
1523144265584081,5,8,1,-1,0,-2,-12,-39
1523144265584081,-2,19,-3,1,-2,-1,-8,16
1523144265591095,-1,-9,2,0,1,1,2,-12
1523144265591095,-1,3,-4,-5,-5,-5,-2,26
1523144265607140,-1,-6,-2,0,0,3,15,-19
1523144265607140,3,11,-6,3,2,4,-7,1
1523144265608641,1,-7,0,-1,1,-2,-7,1
1523144265608641,-2,-7,3,1,0,-1,5,-4
1523144265629697,-5,-2,-3,-3,-2,-5,-11,-5
1523144265629697,4,1,4,-2,-3,-6,-2,1
1523144265631202,-1,6,-13,0,1,3,8,4
1523144265631202,0,-2,2,-2,1,-3,-5,-2
1523144265644236,-1,-7,-1,-2,-2,4,9,12
1523144265644236,-2,-4,2,-1,-1,-6,-5,-22
1523144265650753,0,3,-1,-1,0,2,4,8
1523144265650753,2,-1,1,0,-1,-2,1,-4
1523144265667296,0,-4,1,0,-3,-6,-6,18
1523144265667296,-6,-2,-2,-3,-3,-8,1,-53
1523144265668802,-2,4,33,6,0,-1,-2,-1
1523144265668802,4,1,-58,-5,1,0,-5,27
1523144265689859,-6,-14,-27,-3,-3,-2,-3,-18
1523144265689859,3,-2,16,2,0,1,7,34
1523144265691364,2,3,-2,-1,0,-3,-4,-18
1523144265691364,1,4,92,9,2,-1,6,4
1523144265704900,5,7,4,5,4,0,-3,-1
1523144265704900,-17,-41,-104,-33,-18,-14,-6,-9
1523144265719938,2,7,48,5,3,6,0,1
1523144265719938,0,13,35,0,3,3,10,1
1523144265727457,0,6,-28,4,3,1,0,-7
1523144265727457,-4,-7,12,-2,-6,-3,-12,4
1523144265728961,3,2,5,-3,-1,4,9,7
1523144265728961,-5,-5,-9,-4,-3,-7,-9,-17
1523144265749519,0,8,54,8,7,5,-2,-1
1523144265749519,3,1,-34,-5,0,0,-1,22
1523144265751521,-4,-7,-22,-7,-8,-7,-10,-5
1523144265751521,-4,1,15,2,-3,-1,-11,-20
1523144265763554,-5,-4,-36,-6,-4,-8,-4,1
1523144265763554,2,1,14,2,3,5,-1,8
1523144265772577,3,0,-7,-8,-9,-7,1,2
1523144265772577,0,-7,-24,-4,3,0,3,13
1523144265787117,-2,3,17,8,1,3,3,-45
1523144265787117,5,9,76,27,1,1,5,55
1523144265788620,-11,-24,-108,-52,10,1,-2,-83
1523144265788620,3,-2,23,14,-4,-1,-1,34
1523144265809677,-6,1,34,-11,8,2,-2,-30
1523144265809677,-7,-8,-17,-20,-10,-8,-20,12
1523144265811180,8,16,86,23,5,5,-2,17
1523144265811180,0,-12,-58,-2,-8,-17,-19,12
1523144265823216,-2,-6,-5,-10,-6,5,23,10
1523144265823216,6,19,43,9,9,5,16,-12
1523144265832237,-6,-7,-8,3,-12,-6,-5,13
1523144265832237,-5,-4,-38,-9,2,6,-18,-16
1523144265847279,1,-6,25,8,-4,-14,-22,14
1523144265847279,2,7,-20,-2,1,2,12,-4
1523144265848782,8,32,53,27,10,15,22,5
1523144265848782,-14,-43,-25,-28,-11,-7,-10,6
1523144265869835,6,10,74,-1,-3,-3,-16,-19
1523144265869835,0,-1,76,7,5,10,8,-67
1523144265871341,-15,-1,70,2,-1,-11,-29,40
1523144265871341,-8,-20,-92,-15,-5,1,18,32
1523144265883371,-3,-9,-8,-4,-8,-5,2,13
1523144265883371,7,1,37,2,4,-1,-3,21
1523144265892396,4,4,1,4,0,0,19,45
1523144265892396,2,24,57,10,6,0,-21,-106
1523144265907436,-6,-21,-47,-21,-9,-4,-3,11
1523144265907436,3,1,4,5,1,-2,-5,25
1523144265908940,-9,-8,-30,0,-3,-4,9,-72
1523144265908940,-4,6,8,4,1,5,10,17
1523144265929997,9,3,-4,6,1,-1,-6,-3
1523144265929997,9,7,-37,-1,1,4,9,90
1523144265931503,1,-13,-31,-7,-6,2,-5,-81
1523144265931503,-10,5,36,1,-2,-6,2,35
1523144265943533,-3,3,7,3,0,2,5,17
1523144265943533,-2,-3,-18,-4,-1,2,3,3
1523144265952557,7,2,-26,-5,-3,-2,-1,26
1523144265952557,4,0,13,3,2,2,4,-25
1523144265967098,-2,0,-11,-1,-1,2,4,36
1523144265967098,-5,-7,-38,-4,-1,-9,-28,-72
1523144265969102,-1,-4,25,1,0,-1,13,49
1523144265969102,-2,6,13,6,1,0,-8,-24
1523144265989658,-5,0,-36,-4,-3,-6,-2,4
1523144265989658,-2,6,3,1,-1,-4,-5,0
1523144265991161,4,-9,-15,-1,0,-5,-3,41
1523144265991161,25,18,-15,-4,-4,-3,-2,-32
1523144266003195,-9,-18,3,-1,1,2,11,36
1523144266003195,-7,2,1,3,1,-2,-4,-23
1523144266012215,-2,0,-17,-1,-1,0,-8,-30
1523144266012215,-2,4,5,2,-2,3,10,59
1523144266027254,-5,-2,-8,-2,-2,-4,-12,-26
1523144266027254,-2,1,-2,-1,-3,-3,-1,-22
1523144266028758,-5,-3,-10,-3,0,4,1,5
1523144266028758,1,-8,10,0,0,-1,13,7
1523144266049815,7,-1,2,0,-2,-3,-3,-12
1523144266049815,-5,4,3,-3,-1,-3,-9,-20
1523144266051320,4,6,1,1,0,1,-3,27
1523144266051320,-2,2,1,1,1,3,3,8
1523144266063352,-11,-6,-4,1,0,1,-15,-51
1523144266063352,2,-32,-7,-3,-3,-2,17,54
1523144266072376,0,7,-6,-2,-5,-5,-7,-56
1523144266072376,-3,10,6,0,-1,-4,-3,16
1523144266087414,2,5,-1,2,3,4,-3,3
1523144266087414,0,7,1,0,0,9,18,-10
1523144266088920,-4,-12,-7,-3,-2,-5,-4,14
1523144266088920,0,-5,6,-2,-2,-4,6,-14
1523144266109474,-2,2,-4,0,-3,-2,-4,1
1523144266109474,-1,6,4,0,0,-1,-5,-11
1523144266111479,1,-2,-5,-1,-4,-1,0,11
1523144266111479,-3,-5,-2,-1,2,1,0,-4
1523144266123520,3,1,0,-1,0,0,1,-1
1523144266123520,2,4,-2,0,-2,0,-5,7
1523144266132537,-5,-6,-6,-3,-2,-1,-5,-15
1523144266132537,-3,-1,5,-2,-1,9,10,-8
1523144266147576,-1,-2,2,0,-2,-4,0,8
1523144266147576,-1,0,7,0,-4,1,1,-4
1523144266149079,-1,-5,12,3,4,1,0,6
1523144266149079,2,-2,-22,1,0,0,-1,6
1523144266169634,2,4,1,0,-1,1,23,44
1523144266169634,-12,-1,15,-2,-2,-5,-38,-71
1523144266171138,2,8,11,4,-1,-3,4,12
1523144266171138,4,3,71,10,8,4,1,-28
1523144266192193,-4,-23,-106,-31,-13,-7,7,37
1523144266192193,4,-2,39,4,0,0,16,6
1523144266193698,-13,-2,-2,-2,-1,-4,-20,-27
1523144266193698,0,13,53,12,2,-8,-19,22
1523144266207233,-1,-13,-67,-10,-3,1,0,-26
1523144266207233,-3,-9,41,-8,-5,-5,4,39
1523144266208738,2,-7,-50,-5,-2,0,-2,1
1523144266208738,2,10,31,5,1,0,12,12
1523144266229796,-3,5,42,-1,-1,-7,-11,-33
1523144266229796,3,8,11,10,6,4,-8,-1
1523144266231297,1,-2,36,-1,-4,-6,3,21
1523144266231297,-6,-14,-77,-18,-7,-3,-8,8
1523144266252354,-2,0,-3,3,-2,7,29,-12
1523144266252354,-1,0,6,4,3,0,4,-37
1523144266253858,1,3,5,2,0,3,10,21
1523144266253858,3,7,1,6,3,-1,17,-4
1523144266267393,-7,-12,-42,-10,-5,-5,-20,21
1523144266267393,-1,4,14,-5,-4,3,16,-18
1523144266268899,4,3,12,5,-3,-8,-12,50
1523144266268899,-11,-24,-86,-20,8,4,-11,-79
1523144266289954,0,14,37,15,0,0,-10,16
1523144266289954,3,-3,-35,-2,-2,-6,6,46
1523144266291460,0,-2,8,-4,-4,11,15,-46
1523144266291460,-7,1,11,-10,-13,-9,-23,-4
1523144266312013,-5,6,81,17,14,2,7,-24
1523144266312013,-2,-9,-103,-13,-8,-5,-10,21
1523144266314019,3,-4,-19,-3,0,-3,16,32
1523144266314019,3,-2,4,0,-4,1,5,18
1523144266326551,1,13,41,2,-1,1,-1,-8
1523144266326551,8,13,88,16,7,4,4,47
1523144266333570,-19,-28,-101,-26,-7,-6,-19,-94
1523144266333570,3,9,85,6,-3,8,11,33
1523144266349617,7,10,57,4,0,-3,15,25
1523144266349617,-6,-13,-91,-6,-2,-2,-2,-10
1523144266351123,1,6,34,8,4,-3,-10,14
1523144266351123,1,-2,-9,-2,-3,-5,21,12
1523144266372175,-9,-4,5,0,-2,-1,-17,-60
1523144266372175,6,12,19,1,6,5,-1,5
1523144266373677,2,3,-20,4,1,-2,-1,5
1523144266373677,-6,3,1,5,-3,-6,-8,-18
1523144266386713,3,-14,-4,-5,-1,1,-7,23
1523144266386713,-5,-3,-4,-3,-3,-7,-19,-28
1523144266393732,0,3,22,2,-2,2,1,13
1523144266393732,3,-4,3,1,1,1,11,39
1523144266409772,-3,2,-11,1,0,1,-16,-57
1523144266409772,-7,-2,-2,-1,-1,-5,-8,5
1523144266411278,2,1,29,-3,-2,-4,5,10
1523144266411278,4,6,-58,1,2,1,-7,-5
1523144266432333,-1,-4,50,-1,-3,3,17,20
1523144266432333,3,-3,-22,-9,-5,2,4,1
1523144266433837,-6,-1,-10,-3,0,-4,-3,-18
1523144266433837,8,2,24,3,2,3,-4,-12
1523144266446370,0,12,-23,-2,1,-3,-8,-14
1523144266446370,-8,-18,3,-1,-3,-1,-6,-10
1523144266453389,1,-3,30,3,-1,3,9,-7
1523144266453389,-1,4,-19,-5,-3,-2,2,40
1523144266469932,4,8,-26,-1,-1,-2,-12,-38
1523144266469932,1,2,15,-2,-2,1,11,26
1523144266471437,-1,-2,8,-2,-2,-4,-16,-18
1523144266471437,-5,-12,-53,-7,-2,-2,-5,1
1523144266491992,9,0,29,3,-1,2,17,38
1523144266491992,0,7,-9,-1,0,-3,-7,-6
1523144266493997,-1,-2,-3,0,1,-2,-5,-3
1523144266493997,3,12,2,0,0,5,22,25
1523144266506534,5,12,-7,3,4,5,-3,-32
1523144266506534,-6,-4,35,-5,-5,-10,-8,-7
1523144266513549,2,13,-13,-2,1,7,7,25
1523144266513549,-9,-28,-1,-15,-10,-2,0,-7
1523144266530093,-1,11,-18,8,9,3,1,-16
1523144266530093,2,6,1,9,7,8,4,4
1523144266531597,-2,-5,-35,-3,-29,-16,-9,-13
1523144266531597,-7,-6,5,-3,22,5,-2,1
1523144266552154,-5,-5,-4,-10,-22,-17,-19,16
1523144266552154,6,9,-8,2,3,4,-16,-7
1523144266553658,-3,-13,-4,-3,4,9,11,13
1523144266553658,-3,4,41,2,-16,-13,-11,-31
1523144266574711,1,-6,-17,0,6,10,13,36
1523144266574711,-1,-3,-35,-2,4,5,7,0
1523144266576217,-2,-4,18,0,-6,-12,-9,-2
1523144266576217,-9,-7,19,0,-4,-1,-15,-74
1523144266589752,4,7,33,-1,3,-8,-6,9
1523144266589752,-3,-13,-5,0,-5,-8,-7,22
1523144266591256,-2,6,-17,-3,6,11,18,-18
1523144266591256,4,1,-5,3,1,-4,-7,18
1523144266612311,-4,-7,-18,-2,-1,-2,-1,14
1523144266612311,-3,4,29,-3,-2,-1,6,-14
1523144266613816,3,1,0,-1,2,-7,-15,5
1523144266613816,2,5,1,-1,0,4,6,-3
1523144266625847,-1,6,16,-2,-5,0,-1,22
1523144266625847,1,-4,-12,-3,0,2,4,-21
1523144266634872,-2,-4,15,0,5,1,0,-10
1523144266634872,-8,10,25,2,-5,-11,-31,-34
1523144266649911,-3,-24,18,-2,1,2,12,21
1523144266649911,3,7,10,1,-4,-9,-5,-6
1523144266651417,-2,-24,-91,-22,-5,1,11,48
1523144266651417,6,7,52,4,-1,-1,-3,6
1523144266672471,-15,-5,55,4,-1,-6,-23,-72
1523144266672471,-1,-7,-87,-1,0,-2,1,13
1523144266673976,0,4,47,4,-1,-6,-6,-5
1523144266673976,-2,-14,-20,-11,-3,1,17,35
1523144266686007,8,22,93,18,7,-1,-6,5
1523144266686007,-3,-7,-42,-13,-7,0,1,-17
1523144266695033,-1,1,-14,-8,-3,-7,-13,-1
1523144266695033,-1,-9,-84,1,1,5,3,-1
1523144266709570,3,11,28,10,4,-1,-5,3
1523144266709570,8,21,98,16,1,8,27,51
1523144266711577,-3,-33,-78,-34,-8,0,7,8
1523144266711577,-17,-1,50,2,0,-7,-7,-77
1523144266732131,3,26,-84,10,10,3,-30,-5
1523144266732131,-17,-34,-4,-9,-16,-16,-22,26
1523144266734148,3,19,127,14,5,4,22,-15
1523144266734148,13,4,-24,4,1,2,7,52
1523144266745669,2,-3,-25,1,-2,-1,13,74
1523144266745669,-1,6,-6,-2,4,5,-3,-113
1523144266754695,5,9,-1,11,3,-4,2,71
1523144266754695,6,3,-57,6,2,5,-22,-37
1523144266769732,-10,-13,-9,-13,-7,-3,21,29
1523144266769732,-22,-17,-53,-7,-3,-14,-40,-58
1523144266771235,2,-1,11,-2,0,5,3,5
1523144266771235,12,20,59,10,2,-1,17,40
1523144266792293,-3,-32,-71,-24,-11,-1,-15,81
1523144266792293,6,13,48,2,5,3,8,7
1523144266793794,-18,5,78,14,6,-4,-21,-128
1523144266793794,-8,-27,-42,-17,-7,-2,-5,74
1523144266805826,5,-9,9,-8,-3,1,24,2
1523144266805826,4,17,57,10,2,1,6,44
1523144266814852,4,1,-17,1,1,0,-12,-11
1523144266814852,-2,-7,1,-3,-2,0,6,-7
1523144266829891,-2,-10,-4,-7,-4,-7,-2,4
1523144266829891,-6,0,-5,-1,-3,-3,-2,-91
1523144266831396,-2,-2,-46,2,0,-3,-13,0
1523144266831396,5,6,26,1,2,4,13,31
1523144266852450,3,-5,-53,-7,-1,-1,-4,-31
1523144266852450,-17,-15,37,-5,-3,1,2,92
1523144266853956,-5,5,13,-3,-1,-3,-21,-94
1523144266853956,-4,4,26,3,2,-7,-19,27
1523144266865988,6,6,8,5,-1,0,5,22
1523144266865988,8,-4,-27,-9,-2,3,7,46
1523144266875011,1,4,-6,3,-2,4,20,27
1523144266875011,-5,1,14,3,2,-3,0,-16
1523144266889554,-7,-11,-21,-6,-5,-6,-3,-50
1523144266889554,4,1,-2,-1,0,3,6,2
1523144266891555,1,-4,14,4,1,-1,-4,24
1523144266891555,0,-5,-29,-6,-5,-3,1,-31
1523144266912112,-6,-18,-29,-7,-1,-3,1,8
1523144266912112,4,11,66,10,3,-1,-8,-56
1523144266914116,2,-4,-69,-17,-1,1,2,55
1523144266914116,-12,-19,-11,-9,-9,-9,-6,-23
1523144266926146,5,14,48,7,1,3,3,35
1523144266926146,-12,-8,-5,-2,-1,-3,5,-68
1523144266934672,6,11,65,11,3,-6,-20,22
1523144266934672,-1,-2,-23,-6,-2,6,10,10
1523144266949711,1,2,-21,-7,-4,-6,-4,3
1523144266949711,13,-1,5,3,3,7,2,31
1523144266951218,-5,-1,-16,-2,-3,4,5,-22
1523144266951218,-3,-6,-2,1,0,-2,0,-15
1523144266972269,0,8,27,4,-4,1,2,-43
1523144266972269,-4,-13,-26,-7,-4,-1,14,40
1523144266973775,-3,-4,1,0,-4,-8,-11,-24
1523144266973775,0,2,9,1,0,0,-6,10
1523144266985807,-14,8,12,1,1,-1,-4,-47
1523144266985807,17,-2,-11,-5,-4,-7,-7,15
1523144266994832,-19,-9,-16,0,-1,-1,9,2
1523144266994832,11,1,-2,1,1,2,2,1
1523144267009870,-3,0,14,-3,-2,0,4,24
1523144267009870,-8,3,-12,-2,1,-2,-11,-58
1523144267011375,9,4,7,3,1,3,12,80
1523144267011375,-2,-2,6,-2,-4,-5,-11,-69
1523144267032430,-17,-5,1,-2,-2,-5,-6,-1
1523144267032430,7,-10,-24,-1,0,0,6,67
1523144267033934,5,-7,5,1,-3,0,-9,-36
1523144267033934,-7,4,17,2,2,5,5,33
1523144267045968,7,-2,-11,0,-1,0,4,-8
1523144267045968,-2,8,8,0,-3,-4,-10,-14
1523144267054989,0,1,-4,1,1,2,10,27
1523144267054989,-8,0,-19,-4,-7,-4,-13,-15
1523144267069529,-2,-21,9,-2,-1,-3,-7,-24
1523144267069529,3,8,0,2,1,0,-1,16
1523144267071534,0,5,-3,-1,-2,0,-1,-2
1523144267071534,-3,-19,6,-1,0,0,11,6
1523144267092093,3,0,-3,-2,-4,-6,0,-1
1523144267092093,-1,-2,-13,-1,-2,-3,11,58
1523144267094094,1,5,29,-2,-1,-3,-1,-80
1523144267094094,-3,14,-1,0,-1,-4,-21,35
1523144267114648,-1,-5,-3,-1,2,2,6,30
1523144267114648,-6,-3,-10,-1,-2,-2,-9,-7
1523144267116155,2,-3,0,3,-1,5,9,39
1523144267116155,2,0,5,-2,-3,-2,6,-8
1523144267129691,4,1,3,0,-1,0,1,-13
1523144267129691,3,7,29,3,-1,-3,1,11
1523144267131193,-6,-3,0,0,2,0,-1,5
1523144267131193,-4,0,-38,-6,-1,-5,-16,-22
1523144267152249,1,1,-14,-1,-1,1,-4,14
1523144267152249,-1,8,23,8,2,3,7,-24
1523144267153752,-11,-19,-49,-18,-10,-11,-24,-8
1523144267153752,10,17,65,13,8,4,14,13
1523144267174809,-6,-17,-3,-12,-7,4,1,34
1523144267174809,0,5,2,-3,0,10,16,-52
1523144267176313,-11,-6,6,2,-2,-6,-17,7
1523144267176313,9,28,127,24,8,9,-1,12
1523144267189848,-5,-25,-110,-33,-11,-7,-4,-27
1523144267189848,2,-1,71,6,-2,-8,-17,61
1523144267191353,7,19,87,13,7,15,38,-43
1523144267191353,3,0,31,-3,1,0,-2,-2
1523144267212411,-5,-5,-44,2,-4,-9,-14,-17
1523144267212411,-1,-7,-23,-7,-3,-4,1,14
1523144267213924,2,-2,14,0,1,-4,4,44
1523144267213924,-3,1,-4,5,-1,0,-11,-78
1523144267234969,12,18,33,14,7,13,15,66
1523144267234969,-8,-12,-73,-13,-5,-1,12,-63
1523144267236472,-8,0,32,-7,-3,-4,-16,-40
1523144267236472,-1,-6,-37,-4,-1,2,8,67
1523144267249007,3,-2,-82,2,-3,-6,-3,41
1523144267249007,-9,-1,-26,-6,-2,-2,-14,-70
1523144267256024,12,15,59,15,4,5,17,59
1523144267256024,-13,-23,-56,-15,-6,-7,-16,-41
1523144267272573,0,6,41,3,0,-3,6,-23
1523144267272573,8,10,-14,6,2,1,2,52
1523144267274074,6,-12,-21,-6,-4,-3,4,93
1523144267274074,-17,2,39,-4,-6,-14,-16,-86
1523144267294629,-8,-8,-22,-1,-2,0,-9,67
1523144267294629,-3,-3,13,-3,0,1,2,33
1523144267296133,7,10,42,7,2,1,-19,21
1523144267296133,0,-27,-86,-27,-9,-7,10,44
1523144267309166,3,7,117,-3,1,9,11,-29
1523144267309166,6,13,91,13,4,2,-3,-30
1523144267315682,-21,-38,-106,-37,-16,-8,-14,-56
1523144267315682,-3,8,50,10,3,1,-23,12
1523144267332230,5,10,54,6,5,4,-7,-18
1523144267332230,-6,-12,-9,-3,-5,-7,-3,-9
1523144267333731,9,16,-7,15,6,2,10,13
1523144267333731,1,-4,-42,-2,1,10,23,7
1523144267354788,-6,-10,3,-11,-5,-5,-22,-21
1523144267354788,16,17,64,10,4,8,29,91
1523144267356292,-12,-7,-38,-2,-5,-5,-6,-99
1523144267356292,-11,-15,-15,-14,-7,-7,-12,16
1523144267369326,9,8,64,5,2,-1,17,35
1523144267369326,2,-5,-56,-8,-3,1,-5,11
1523144267375843,-7,5,-19,1,-1,-5,-1,-36
1523144267375843,-7,-2,34,-3,0,-3,-38,-22
1523144267392388,-7,-9,-27,-2,-1,-5,-2,-16
1523144267392388,1,-4,13,1,-1,0,18,16
1523144267393892,9,10,30,6,2,7,8,35
1523144267393892,7,3,49,9,-1,-2,15,29
1523144267414449,-2,24,57,14,5,6,6,-67
1523144267414449,-14,-33,-128,-23,-9,-13,-26,31
1523144267416452,13,17,94,15,5,7,21,-34
1523144267416452,6,7,39,5,1,3,19,88
1523144267428987,-16,-8,-35,-7,-4,-13,-30,-114
1523144267428987,-16,-10,-23,4,1,-2,-20,-30
1523144267436003,7,-2,-35,-6,-1,1,7,101
1523144267436003,1,-10,-38,-4,-4,0,21,-39
1523144267452045,3,4,20,3,1,-1,4,-17
1523144267452045,-7,-4,-9,-8,-4,-6,-13,35
1523144267454051,-8,-10,-34,-11,-6,-9,-12,-60
1523144267454051,2,1,-5,-3,-2,1,2,31
1523144267474608,2,-2,-2,5,0,-2,-9,45
1523144267474608,-2,8,-3,-1,3,5,10,-51
1523144267476111,-1,-14,-8,-2,-3,-5,-15,45
1523144267476111,5,4,1,4,2,4,16,17
1523144267489147,-9,7,-27,-4,-2,-6,-19,-73
1523144267489147,6,-9,67,0,-1,1,-1,31
1523144267496164,5,16,-37,-5,-2,-4,-5,6
1523144267496164,1,5,-11,-1,0,-4,-3,14
1523144267512208,-5,-24,7,-3,-1,6,9,-11
1523144267512208,3,4,22,-1,-5,-2,-4,-12
1523144267513712,0,4,-7,3,5,8,13,-8
1523144267513712,-9,-4,19,0,-1,0,-4,-2
1523144267534767,13,-12,-22,-2,-3,-2,10,11
1523144267534767,7,17,25,-1,-2,-3,-5,-33
1523144267536272,-7,-3,9,-1,-2,-4,-13,-2
1523144267536272,3,1,-34,1,-1,2,-3,-11
1523144267548803,0,27,43,1,2,10,9,16
1523144267548803,-7,-18,-6,0,-2,-4,-6,-20
1523144267555822,0,-8,-1,-3,-4,-3,0,24
1523144267555822,3,3,10,0,0,0,-6,-29
1523144267572366,-1,-6,-47,4,3,-1,3,15
1523144267572366,1,3,-5,1,0,1,-3,3
1523144267573871,-4,8,-9,-3,-3,-2,-4,-9
1523144267573871,-2,-10,23,-1,-2,1,-5,-11
1523144267594926,-3,-4,8,-1,-1,-5,-9,12
1523144267594926,-2,10,-7,0,0,-8,-11,0
1523144267596430,-6,-7,-1,2,-2,8,7,-18
1523144267596430,10,-11,-29,-7,-2,-2,4,26
1523144267608465,10,9,34,-1,-2,4,13,121
1523144267608465,-25,-4,-19,-2,-2,-6,-24,-105
1523144267617486,-2,-6,34,1,0,-5,-12,88
1523144267617486,-3,8,4,1,-1,-4,-3,16
1523144267632028,-2,-11,-45,-8,-5,0,22,25
1523144267632028,14,0,-19,0,1,4,15,12
1523144267634030,-6,-2,-11,-4,-1,-4,-4,-36
1523144267634030,-2,-18,8,-1,0,-4,3,-17
1523144267654585,4,10,23,6,2,-1,-12,-46
1523144267654585,-4,-10,-31,-7,-5,0,2,7
1523144267656090,0,3,3,3,0,1,3,-20
1523144267656090,4,11,17,4,0,-2,-3,17
1523144267668623,-7,-6,-14,-7,-4,-5,1,-22
1523144267668623,-2,4,62,6,5,5,0,6
1523144267677646,2,-10,8,-11,-1,7,4,13
1523144267677646,-9,-17,-9,-13,-8,-7,4,-2
1523144267692186,-4,6,73,9,-1,-9,-16,-28
1523144267692186,-4,-3,-50,-8,-2,2,-4,10
1523144267693690,7,10,4,5,2,-4,-3,0
1523144267693690,-3,-1,-10,-3,-3,1,3,-6
1523144267714753,4,-3,8,-4,-6,0,6,90
1523144267714753,1,14,93,11,2,-4,3,-67
1523144267716252,-16,-24,-106,-21,-7,-7,-20,-27
1523144267716252,0,7,70,11,4,3,7,12
1523144267728301,1,-1,-45,0,5,0,-2,3
1523144267728301,7,0,20,4,-1,0,6,38
1523144267737305,3,1,48,0,-3,-2,2,-8
1523144267737305,-3,6,-39,0,-2,4,-4,-13
1523144267752345,-11,-29,-85,-14,-9,-9,-10,0
1523144267752345,5,18,54,19,8,13,25,24
1523144267753851,-5,-6,-10,-11,-5,-12,-27,-51
1523144267753851,7,-6,-30,-5,1,3,8,106
1523144267774904,-9,13,86,11,3,-4,-25,-127
1523144267774904,-22,-23,-124,-25,-3,-6,-28,22
1523144267776410,6,3,84,15,1,-1,14,44
1523144267776410,8,12,-2,5,6,1,-6,7
1523144267788441,5,0,18,-1,-1,8,38,52
1523144267788441,-1,-5,44,-6,-5,-5,2,-9
1523144267797464,-6,-4,-16,0,1,-1,0,-29
1523144267797464,-3,2,-37,-8,-1,-2,-10,-24
1523144267812007,7,4,20,4,0,2,12,41
1523144267812007,6,-1,-17,1,-2,-2,3,22
1523144267814010,0,16,37,14,6,6,-21,-50
1523144267814010,-13,-20,-50,-15,-9,-8,-1,-35
1523144267834567,-2,2,-9,0,1,-2,4,55
1523144267834567,0,-3,5,-2,-1,-2,-16,-5
1523144267836571,6,2,3,2,-1,-2,13,5
1523144267836571,-2,9,19,6,-1,6,-4,-35
1523144267848602,1,3,-21,-1,3,4,3,3
1523144267848602,3,-12,-39,-4,-6,-7,7,18
1523144267857626,0,5,12,1,0,1,8,12
1523144267857626,-1,-1,-11,2,0,-3,-2,9
1523144267872165,5,-1,5,-3,-2,0,5,33
1523144267872165,-7,3,38,4,2,2,-10,-100
1523144267873668,0,12,-22,8,4,-2,-10,53
1523144267873668,-13,-30,-14,-12,-13,-11,-5,6
1523144267894723,1,2,24,2,1,2,-9,-7
1523144267894723,3,3,7,1,2,2,15,20
1523144267896228,3,-2,4,0,-2,-1,1,8
1523144267896228,4,10,15,5,4,2,6,-12
1523144267908261,-3,-3,-23,-2,-3,0,-5,-19
1523144267908261,0,-4,-2,-1,-5,-2,-3,27
1523144267917287,-9,-4,-7,-10,-4,-2,-3,-28
1523144267917287,4,9,-27,3,0,0,3,2
1523144267932325,-6,5,-10,-5,-4,-5,-13,-47
1523144267932325,-5,-15,-19,-2,2,2,0,40
1523144267933829,-1,-13,33,-5,-2,4,10,21
1523144267933829,1,2,6,0,0,-1,-1,-27
1523144267953884,-3,5,-2,1,-2,-4,-8,-20
1523144267953884,4,-1,2,-4,-1,-2,0,10
1523144267962404,-1,-3,-26,-2,-2,0,20,22
1523144267962404,1,8,14,0,1,1,-9,-28
1523144267968423,-7,-8,-6,-4,-1,-3,-9,-3
1523144267968423,0,-6,6,0,0,2,2,14
1523144267977444,3,-5,-16,-3,-4,-5,-6,-10
1523144267977444,7,24,25,8,5,4,8,22
1523144267991984,-16,-10,-8,-5,-3,-1,-4,-13
1523144267991984,-16,-24,-17,-5,-6,-7,-9,-17
1523144267993989,-3,-18,-6,-3,-4,-2,-1,13
1523144267993989,7,10,8,0,-2,-2,0,6
1523144268014543,3,5,2,0,1,1,-2,-15
1523144268014543,2,21,5,2,3,6,-13,1
1523144268016549,3,-12,-9,-3,0,6,30,6
1523144268016549,-1,-2,12,-2,-3,-7,9,39
1523144268037103,-1,-2,-2,1,0,9,-4,-81
1523144268037103,-4,9,12,-1,-4,-9,-17,18
1523144268039108,-1,-16,-8,-2,0,7,9,26
1523144268039108,-7,-7,-25,-2,-4,-6,-2,-35
1523144268052145,4,-2,19,0,-1,-2,4,48
1523144268052145,9,4,3,1,-1,0,13,1
1523144268053650,0,5,-11,1,2,-1,-13,-3
1523144268053650,-9,-6,6,-1,-2,-3,1,-4
1523144268074704,-2,-6,-2,-2,-4,-3,-6,-2
1523144268074704,1,-2,-2,-3,-3,-1,2,-14
1523144268076208,0,11,9,-3,-1,-4,-4,7
1523144268076208,-5,-14,-14,-1,0,1,-14,-10
1523144268097265,3,6,3,1,2,6,14,-5
1523144268097265,3,1,12,-4,-1,-1,1,33
1523144268098771,0,5,-20,3,-1,-1,-8,-40
1523144268098771,0,-8,14,-3,-1,-3,1,29
1523144268111801,4,2,21,3,0,-5,1,21
1523144268111801,-21,-4,-14,-7,-3,-2,-7,-35
1523144268118319,0,-1,-8,0,-1,-9,-16,31
1523144268118319,2,18,20,5,6,13,24,-14
1523144268134862,9,-2,32,6,0,0,-5,57
1523144268134862,1,-11,5,-11,-10,-6,-3,-14
1523144268136368,-12,-4,-33,-7,-4,-6,-11,-48
1523144268136368,0,-6,-19,-10,-2,-2,-13,6
1523144268157424,3,7,61,10,1,1,15,3
1523144268157424,16,16,41,10,6,3,5,11
1523144268158927,-11,-8,-51,-6,-2,-8,-26,-18
1523144268158927,3,-5,10,4,5,11,23,9
1523144268172463,-2,1,-6,-2,1,1,-1,6
1523144268172463,-6,-16,-99,-15,-6,-1,-5,-11
1523144268173968,12,14,94,8,1,-2,5,70
1523144268173968,1,11,58,6,3,-1,-13,-82
1523144268194521,-20,-45,-88,-30,-18,-19,-17,-16
1523144268194521,-3,10,55,8,5,0,6,6
1523144268196527,10,9,-41,7,4,9,18,60
1523144268196527,-10,-5,-8,-5,-7,-3,-24,-61
1523144268217084,4,8,23,3,4,-2,-7,17
1523144268217084,17,23,91,17,6,1,-5,3
1523144268218586,-18,-33,-81,-28,-11,0,14,-6
1523144268218586,16,6,35,0,0,-2,5,57
1523144268239643,-7,0,-8,7,1,-4,-9,-86
1523144268239643,0,-1,-43,-1,1,0,-1,31
1523144268241147,11,11,82,6,3,3,5,25
1523144268241147,-10,-7,-52,-7,-4,-7,-17,-35
1523144268254685,-9,-10,-17,-5,-3,-1,-14,-3
1523144268254685,5,5,34,7,3,8,22,20
1523144268256188,9,27,74,15,7,3,-1,-38
1523144268256188,-18,-42,-50,-27,-18,-15,-16,69
1523144268277241,3,4,35,5,1,7,9,-23
1523144268277241,-7,-2,20,1,0,-1,-6,-34
1523144268278747,1,2,26,1,1,-1,-13,-7
1523144268278747,7,10,9,7,4,1,6,25
1523144268291780,7,1,-35,-3,1,6,38,48
1523144268291780,1,-6,22,-6,-4,-8,-11,-4
1523144268298299,-8,-8,-88,-5,-4,-9,-15,-85
1523144268298299,-3,7,29,2,0,15,12,39
1523144268314850,3,2,14,2,-2,-1,11,-29
1523144268314850,-5,-9,-99,-10,-4,-12,-17,10
1523144268316347,4,8,52,5,2,2,7,13
1523144268316347,-2,-7,9,2,1,-2,-1,-2
1523144268337402,1,3,-18,-6,-1,-2,-4,4
1523144268337402,1,11,94,13,-1,1,7,12
1523144268338908,-11,-23,-47,-28,-10,-7,-9,-17
1523144268338908,0,0,23,4,4,1,1,-9
1523144268351440,4,10,94,6,2,3,-2,73
1523144268351440,-18,-32,-119,-35,-15,-13,-21,-121
1523144268358460,-5,0,41,2,-2,-1,-7,28
1523144268358460,1,10,33,4,-1,-3,2,-13
1523144268375002,-2,-7,-7,-8,-5,-8,-8,-5
1523144268375002,7,10,44,13,8,10,1,44
1523144268376507,-4,-17,-73,-15,-5,-4,-7,-8
1523144268376507,-4,6,66,5,-1,-2,3,-8
1523144268397060,1,-11,-103,-25,-7,-6,-17,-12
1523144268397060,-2,-2,23,2,-2,2,1,19
1523144268399067,0,7,46,6,2,2,3,-5
1523144268399067,5,7,-3,3,1,-4,5,15
1523144268411603,-2,-1,-18,0,-1,-4,-10,-10
1523144268411603,-7,4,-2,-5,-3,7,16,-16
1523144268418618,1,-2,-1,6,2,4,-7,2
1523144268418618,-8,-16,-34,-2,0,1,5,-14
1523144268434667,4,-7,8,7,-1,2,12,88
1523144268434667,10,7,-21,0,2,6,23,-60
1523144268436166,-8,26,21,6,-1,-1,-17,-16
1523144268436166,-14,-17,-37,-4,-3,1,7,24
1523144268457223,0,-7,12,2,-1,-6,-8,7
1523144268457223,10,-3,-26,-3,-1,-1,2,32
1523144268458725,6,-5,-3,-7,-1,-1,8,-20
1523144268458725,-3,6,-20,-1,-3,-6,-21,-14
1523144268471759,-8,25,14,2,-1,1,2,-22
1523144268471759,-9,-1,-35,1,0,-4,-2,33
1523144268478277,5,5,5,4,0,-5,2,5
1523144268478277,3,-4,-17,-3,1,1,10,-13
1523144268494839,-5,11,-15,1,3,1,-9,-28
1523144268494839,-13,-11,-1,-1,-4,-4,-1,-8
1523144268496325,-5,-31,3,3,1,-2,-9,6
1523144268496325,2,4,5,0,-3,-4,-6,-5
1523144268517382,-1,-4,-6,-2,1,4,15,-7
1523144268517382,0,14,13,2,2,3,-1,3
1523144268518886,-2,-5,0,0,1,6,0,12
1523144268518886,0,-10,-7,-1,-1,-3,-3,-4
1523144268530943,4,-4,3,-3,-1,-4,-13,-21
1523144268530943,0,7,5,-1,-2,-5,-3,15
1523144268540127,-2,-4,5,-2,-3,-3,-1,1
1523144268540127,4,0,-8,-2,-1,1,2,-3
1523144268554665,-10,-5,-14,0,-1,2,-7,-14
1523144268554665,-4,-21,14,1,0,1,-6,0
1523144268556172,9,14,-5,-1,-2,-2,2,20
1523144268556172,-3,-14,30,-1,0,1,0,-14
1523144268577226,-2,8,-3,2,-4,-6,2,-4
1523144268577226,3,-11,-20,-2,-1,-7,-9,15
1523144268578729,0,-5,3,2,-1,3,5,-1
1523144268578729,-3,9,6,1,1,0,-1,-5
1523144268590760,4,6,8,3,2,2,3,-3
1523144268590760,-1,1,-3,3,1,-3,-7,7
1523144268599788,-1,-9,-27,-8,-3,-3,1,-9
1523144268599788,0,-4,-15,-2,-1,-2,-5,1
1523144268614826,1,-4,4,-2,-1,-3,-10,-7
1523144268614826,1,10,14,3,1,4,8,1
1523144268616331,-3,-10,2,2,-1,-4,-2,-3
1523144268616331,7,7,-15,-6,-3,-3,-6,11
1523144268637384,0,2,10,4,5,11,3,0
1523144268637384,-9,-11,24,-5,-6,-6,-1,0
1523144268638891,-5,5,-11,5,3,2,-4,-41
1523144268638891,0,-2,-23,-6,-4,-2,-15,2
1523144268650922,1,1,31,1,-2,-2,5,14
1523144268650922,-1,-6,11,-2,-1,2,6,14
1523144268659944,-1,5,13,-3,-3,-1,3,13
1523144268659944,-1,-5,-6,0,-2,4,22,-4
1523144268674487,1,-18,-18,-4,1,-1,-5,18
1523144268674487,-7,2,-10,-7,-2,-3,-23,-50
1523144268676490,-2,2,8,0,1,-2,1,-51
1523144268676490,2,6,5,3,1,0,-5,12
1523144268697047,0,0,-1,-1,-4,-9,4,5
1523144268697047,4,3,18,7,5,14,19,30
1523144268699049,-3,-9,1,-14,-3,2,5,24
1523144268699049,-3,-3,-40,3,-1,-4,-8,-8
1523144268711082,3,4,23,1,1,0,4,-15
1523144268711082,-2,6,21,-2,-1,-3,-11,-1
1523144268720106,-3,-11,-4,-4,-2,0,-7,7
1523144268720106,3,14,73,3,0,5,28,1
1523144268734645,-3,-8,-53,-8,-3,-3,-15,-5
1523144268734645,14,11,34,12,3,0,8,64
1523144268736149,0,4,-44,1,1,2,8,-25
1523144268736149,-19,-19,-1,-4,-3,-10,-39,-17
1523144268757204,-6,5,67,9,-1,-10,-18,0
1523144268757204,-2,-15,-77,-11,-5,2,6,-5
1523144268758708,5,3,5,0,1,4,19,49
1523144268758708,8,4,14,-2,0,3,9,10
1523144268770745,6,13,61,11,2,-3,6,14
1523144268770745,-7,-11,-72,-12,-4,1,-1,-48
1523144268779765,-14,-9,7,-1,-5,-8,-13,8
1523144268779765,2,8,-19,-4,1,4,5,-26
1523144268795308,-1,-10,6,-2,0,0,5,22
1523144268795308,7,8,53,8,3,1,-7,30
1523144268796811,-8,-18,-67,-20,-6,-4,-8,-19
1523144268796811,6,6,44,2,0,-2,0,33
1523144268817365,2,-4,37,2,-2,3,15,1
1523144268817365,-16,-10,-60,-6,-3,-6,-22,-98
1523144268818868,8,12,48,2,1,-4,-13,-3
1523144268818868,0,-7,2,6,-1,-9,-20,12
1523144268830900,6,4,-29,-5,1,11,21,39
1523144268830900,7,-3,6,2,1,-4,23,99
1523144268839924,-5,21,88,12,1,-4,-22,-97
1523144268839924,-11,-20,-66,-20,-7,-2,1,41
1523144268854963,-1,-2,-41,-3,-2,-3,-12,-27
1523144268854963,-1,2,32,-2,-1,-2,14,19
1523144268856472,14,14,72,16,2,6,15,81
1523144268856472,-6,-17,-79,-18,-6,-7,1,2
1523144268877023,-28,-8,-9,-3,-5,-14,-61,-95
1523144268877023,10,27,62,8,4,5,1,-12
1523144268879029,-15,-33,-58,-13,-12,-10,4,22
1523144268879029,10,15,35,13,3,-1,-2,9
1523144268891060,4,-4,-40,-6,-3,8,21,13
1523144268891060,2,4,21,2,-1,-5,-6,24
1523144268900085,-7,-1,-6,4,3,-2,1,-53
1523144268900085,-1,1,25,6,3,2,9,-28
1523144268914623,-6,-10,-40,-6,-5,-6,-9,7
1523144268914623,-3,-16,-83,-18,-5,-3,-1,3
1523144268916132,10,12,32,6,4,5,15,49
1523144268916132,-7,-11,-21,-5,-3,3,13,-38
1523144268937184,-1,5,34,3,2,-7,-25,-12
1523144268937184,1,-4,16,2,0,3,0,5
1523144268938687,-6,-1,-34,-3,-2,0,-1,-4
1523144268938687,1,6,17,2,-3,-9,-15,-9
1523144268950721,2,-1,-1,0,3,9,23,9
1523144268950721,-1,-8,-5,2,1,1,-4,2
1523144268959743,9,3,1,-4,0,3,4,47
1523144268959743,-5,5,5,3,-2,-1,-15,-80
1523144268974787,-3,-5,-10,-7,-4,1,-1,27
1523144268974787,0,9,-5,0,-4,-6,5,-11
1523144268976290,-7,-6,1,0,-1,-1,-24,-20
1523144268976290,6,-11,9,2,1,0,-4,37
1523144268997344,-2,-13,-8,0,0,1,8,15
1523144268997344,-3,10,19,-1,1,2,0,-54
1523144268998848,-6,2,-69,-2,-3,-3,-2,16
1523144268998848,0,7,11,-3,2,0,0,11
1523144269019903,8,10,-3,1,1,4,2,8
1523144269019903,-1,-8,14,0,-2,-1,-7,11
1523144269021409,-8,-3,-5,2,1,-4,-1,-31
1523144269021409,-7,-19,-7,-3,-1,-5,-19,22
1523144269034568,-12,-7,-2,0,1,2,12,-1
1523144269034568,-5,-25,-9,-2,-3,-4,-3,7
1523144269036573,3,21,10,-4,-4,-4,-10,-10
1523144269036573,9,15,3,0,-3,-3,7,-4
1523144269057130,7,-5,11,1,3,2,8,7
1523144269057130,-7,-2,-2,3,2,-2,-3,-6
1523144269058633,-4,-7,9,2,0,1,-2,-4
1523144269058633,1,3,10,-1,-1,1,5,17
1523144269079689,-1,-2,-20,-3,-6,-6,-5,-28
1523144269079689,-6,-11,5,-1,-2,0,-15,-7
1523144269081193,5,-3,4,-1,-2,-2,2,22
1523144269081193,0,9,-4,1,1,7,20,-2
1523144269094730,-3,3,1,-2,-3,-3,-7,-12
1523144269094730,5,13,-10,-3,-3,-4,-2,-2
1523144269096233,1,-1,-9,1,4,5,5,18
1523144269096233,-16,0,43,-4,-5,-6,-10,-35
1523144269117290,7,3,7,-2,1,1,-2,1
1523144269117290,0,-9,-6,-3,-4,-7,-3,11
1523144269118794,4,5,-2,-2,-1,1,1,1
1523144269118794,-3,3,-16,2,2,3,0,-9
1523144269139848,-2,-2,0,0,-2,0,6,-3
1523144269139848,4,7,13,-1,-3,3,5,-7
1523144269141353,0,-10,-1,-3,-3,-5,1,12
1523144269141353,-2,-4,1,0,0,5,1,-33
1523144269153886,-1,3,-16,-1,0,-1,-4,4
1523144269153886,5,2,-6,-1,-2,-3,-3,2
1523144269160904,2,1,5,3,2,6,15,15
1523144269160904,5,10,-1,2,0,2,7,14
1523144269177448,-14,-22,-28,-8,-6,-11,-16,-14
1523144269177448,0,2,8,2,2,3,-1,-37
1523144269178957,0,5,8,0,-2,-4,-8,19
1523144269178957,1,8,53,5,4,0,-7,-12
1523144269199507,-3,-16,-8,-8,-3,-1,4,7
1523144269199507,1,5,-11,3,1,0,6,3
1523144269201513,-2,-10,10,1,-4,-1,-2,14
1523144269201513,-1,-10,-74,-19,-8,-9,-6,26
1523144269214054,-5,1,23,-4,-2,2,1,-40
1523144269214054,5,8,94,12,8,8,20,68
1523144269221065,-14,-33,-91,-24,-9,-8,-16,-120
1523144269221065,1,10,35,8,5,3,-3,30
1523144269237109,4,3,38,6,2,0,10,21
1523144269237109,-4,-10,-38,-9,-8,-7,-13,-8
1523144269239113,9,15,-26,7,2,8,19,73
1523144269239113,-12,-16,-6,1,-1,-6,-11,-113
1523144269259671,-4,4,34,2,-1,1,-5,14
1523144269259671,4,2,-30,0,0,1,-6,-3
1523144269261675,2,1,29,-2,-2,-6,-2,32
1523144269261675,4,4,-41,0,0,7,19,14
1523144269274205,0,-9,9,0,0,-3,-4,0
1523144269274205,-9,-9,-9,-2,-4,-3,-4,-14
1523144269280724,3,3,9,-4,0,-3,-2,-10
1523144269280724,-1,-6,-34,0,-3,-4,-10,32
1523144269297270,4,6,-2,0,1,-1,4,-13
1523144269297270,1,12,3,-6,-3,-4,8,0
1523144269298773,6,3,65,11,2,1,3,20
1523144269298773,-5,-15,-13,-14,-1,-1,3,-4
1523144269319827,9,7,-19,-1,-3,1,7,31
1523144269319827,-3,1,31,-1,-1,-4,-4,-65
1523144269321333,-11,-6,3,-4,-6,-10,-34,40
1523144269321333,-1,18,58,11,3,-4,11,-58
1523144269333864,-10,-18,-66,-8,-3,-1,-23,-34
1523144269333864,3,-8,-6,-1,0,3,17,45
1523144269348403,9,12,47,8,4,3,4,-6
1523144269348403,0,-2,-52,-12,-7,-3,2,35
1523144269357428,1,8,59,14,4,3,6,14
1523144269357428,-5,-5,-8,-9,-3,-5,-13,-1
1523144269358932,1,4,-3,7,-1,1,3,-29
1523144269358932,-4,-10,-11,-12,-7,2,2,10
1523144269379988,-1,1,-82,-2,-3,-4,-1,37
1523144269379988,0,3,27,0,2,2,-6,-23
1523144269381497,-9,3,20,-2,2,1,-1,-82
1523144269381497,2,-11,-18,-1,-5,-14,-34,55
1523144269394028,-4,4,16,-2,-1,0,0,-43
1523144269394028,-7,-7,0,3,0,1,2,8
1523144269401043,13,-5,-24,-8,0,3,26,48
1523144269401043,1,-3,6,6,-2,-2,0,19
1523144269417086,0,2,38,5,1,-7,-17,-52
1523144269417086,-4,-2,-59,-6,-5,-6,-6,21
