timestamp,emg1,emg2,emg3,emg4,emg5,emg6,emg7,emg8
1523149617167909,17,4,12,2,1,-1,2,30
1523149617167909,-1,2,-1,-6,-5,-7,-7,-15
1523149617169412,30,8,-12,0,-3,-2,1,4
1523149617169412,9,6,3,3,-9,-2,0,20
1523149617182448,-7,-18,13,2,7,3,1,-4
1523149617182448,-44,0,2,-6,1,-7,-4,-37
1523149617189465,13,13,-19,-6,-3,-3,-3,5
1523149617189465,11,16,4,2,-28,-3,0,9
1523149617205507,21,11,0,3,26,14,3,-4
1523149617205507,-34,-19,-9,-3,12,-1,-1,-21
1523149617207012,6,-3,5,1,3,0,-2,7
1523149617207012,8,-2,7,-4,9,-4,-2,0
1523149617228074,-3,0,-16,-2,-19,-7,-4,-13
1523149617228074,17,5,14,2,-5,1,-3,4
1523149617229576,-3,-2,53,-2,1,-3,16,6
1523149617229576,14,-2,-48,-3,-1,0,-3,-7
1523149617242119,-10,12,55,3,0,-2,0,-7
1523149617242119,12,-6,-76,-1,-2,-2,-9,-2
1523149617249125,-2,-2,-2,-1,-5,0,15,2
1523149617249125,11,4,20,-2,1,-2,-3,1
1523149617265668,-14,-7,-12,-3,0,-2,2,6
1523149617265668,9,1,11,5,1,3,2,-11
1523149617267172,12,-2,-23,-5,-7,-1,-19,-11
1523149617267172,-18,-1,-3,0,6,1,17,-12
1523149617288239,21,-3,3,4,-1,-1,-4,30
1523149617288239,-53,-2,-7,-12,-10,-6,-4,-64
1523149617289743,14,7,2,7,6,4,-12,15
1523149617289743,9,-9,-51,-10,1,-2,-1,15
1523149617302286,-1,7,69,11,0,1,-12,0
1523149617302286,20,-8,-47,-15,-11,-1,26,21
1523149617309283,4,3,26,12,6,3,2,57
1523149617309283,-33,-4,6,-8,-1,-9,-26,-86
1523149617325830,-2,-15,-46,0,-11,-12,-9,31
1523149617325830,23,9,42,8,4,6,15,28
1523149617327334,-10,0,-56,-4,1,3,1,-36
1523149617327334,30,15,15,7,7,7,-13,31
1523149617348461,-16,-22,-57,-6,-8,-5,-18,26
1523149617348461,1,7,23,3,1,2,32,-34
1523149617349966,17,6,39,6,-2,-1,-7,3
1523149617349966,-12,2,29,21,6,1,-4,16
1523149617362511,-27,-10,-38,-37,-9,-7,-35,-50
1523149617362511,25,-4,-34,-6,-1,-1,6,42
1523149617369063,28,12,56,26,8,9,3,38
1523149617369063,-33,-21,-71,-28,-16,-17,-60,-47
1523149617385569,-1,10,76,28,12,8,47,51
1523149617385569,-28,-8,-38,-28,-6,-3,-13,-4
1523149617387066,30,-5,-25,1,-5,-5,19,-13
1523149617387066,54,9,39,9,6,10,-19,127
1523149617408118,-91,-12,-7,-3,-6,-9,-33,-109
1523149617408118,15,4,34,15,1,-1,18,18
1523149617409625,-10,-6,-30,-15,-5,-5,-18,14
1523149617409625,31,4,2,-3,0,3,25,21
1523149617422694,34,9,9,4,0,5,25,24
1523149617422694,-8,2,41,18,2,0,-10,-15
1523149617429175,-17,-8,-40,-38,-8,-4,-26,-24
1523149617429175,-3,-8,-9,10,1,2,32,6
1523149617445721,-30,-7,-6,-4,-1,2,13,-22
1523149617445721,-4,2,10,5,-2,-3,-21,-29
1523149617447224,24,26,116,47,16,9,10,32
1523149617447224,-27,-42,-71,-69,-27,-20,-7,-43
1523149617468020,-2,4,14,-7,-2,0,4,0
1523149617468020,12,1,42,9,1,-1,-12,49
1523149617469445,-19,-6,-9,3,-4,-3,-9,-42
1523149617469445,12,12,20,9,6,3,-12,-4
1523149617481978,24,-1,-8,0,1,4,39,17
1523149617481978,-24,-8,-19,-6,-3,-1,-11,-45
1523149617491002,5,-4,-30,-17,-7,-3,1,8
1523149617491002,-23,-2,27,9,0,-1,-7,-19
1523149617505541,19,4,-23,-5,0,0,-9,-3
1523149617505541,3,6,12,9,4,4,-8,10
1523149617507047,-8,-8,-4,-13,-6,-2,13,12
1523149617507047,26,7,8,7,0,1,10,9
1523149617528100,-23,-2,39,4,-2,-4,-9,5
1523149617528100,-15,8,10,7,3,-3,-5,-9
1523149617529604,-9,-28,-69,-25,-9,-7,-13,-19
1523149617529604,11,4,17,5,1,0,16,7
1523149617542960,19,14,6,4,3,2,1,21
1523149617542960,16,4,30,-1,-4,-3,-12,-24
1523149617550982,-1,-2,-32,-11,-4,-1,5,21
1523149617550982,1,2,38,11,5,2,6,-27
1523149617565649,21,-8,-39,-8,-3,-2,-9,-5
1523149617565649,-38,-11,-7,-2,-3,-1,-5,-13
1523149617567153,6,2,12,7,3,2,9,13
1523149617567153,-12,-1,-5,-3,-2,-1,-6,-18
1523149617588439,16,14,-33,-1,-1,-1,4,16
1523149617588439,23,-12,5,-4,-1,-1,8,15
1523149617589714,4,-2,20,-2,-4,-3,-10,-17
1523149617589714,-8,11,14,8,3,3,-2,10
1523149617601964,12,-7,-36,-6,-3,-3,3,-37
1523149617601964,-4,5,-4,1,-1,-1,-13,11
1523149617610765,-3,8,-17,-3,-1,-2,20,9
1523149617610765,26,10,24,6,4,1,6,17
1523149617625567,-57,-18,2,2,-4,-1,-11,-27
1523149617625567,27,-1,-16,-9,-3,-1,5,24
1523149617627041,-17,9,5,3,0,-3,-9,-17
1523149617627041,21,-9,0,1,0,4,0,-3
1523149617648666,-68,0,23,3,3,1,3,-1
1523149617648666,23,19,-18,-9,-3,-2,-1,3
1523149617650168,-23,-23,3,-2,-3,-2,-9,-9
1523149617650168,16,23,-5,0,-1,-1,2,-7
1523149617661525,11,2,-3,-3,-2,-1,9,14
1523149617661525,-32,-87,-17,-2,-1,0,-8,-7
1523149617678068,6,27,3,3,0,-1,13,-2
1523149617678068,6,1,-5,-2,1,2,5,10
1523149617685090,31,15,8,2,-1,-3,-10,25
1523149617685090,-75,7,-5,-3,-3,-4,-18,-73
1523149617693109,7,-13,-15,-1,2,0,7,11
1523149617693109,-27,-10,23,4,1,1,4,5
1523149617708154,32,13,38,2,2,4,3,18
1523149617708154,20,9,-31,-4,-1,3,14,23
1523149617709654,-25,-12,16,-3,-4,-4,-21,-3
1523149617709654,-38,-1,-26,-3,-4,-6,-7,-55
1523149617721684,30,-11,9,-1,-1,-4,-17,34
1523149617721684,4,7,9,4,2,0,10,1
1523149617730709,5,6,12,-1,3,-4,-3,-15
1523149617730709,7,-4,-2,3,1,1,9,33
1523149617745878,-1,-10,-17,-8,-4,-2,-15,-25
1523149617745878,27,17,31,9,5,5,11,33
1523149617747254,-3,-10,-47,-19,-8,-5,-16,30
1523149617747254,-23,-2,37,19,4,2,15,-65
1523149617768437,-2,-1,-21,-10,1,0,-20,-22
1523149617768437,-1,-5,4,10,-6,-6,10,22
1523149617769813,9,8,34,7,2,5,29,0
1523149617769813,-8,4,16,0,3,1,-6,-1
1523149617782087,-5,-12,-38,-19,-8,-3,-2,-15
1523149617782087,-1,-6,-49,-15,-8,-6,-3,5
1523149617790871,2,-5,6,4,1,0,-9,-4
1523149617790871,6,-1,-5,0,-2,0,11,22
1523149617805916,-2,12,46,19,2,0,3,-18
1523149617805916,8,12,41,-5,6,8,-6,6
1523149617807413,-27,-25,-78,-9,-8,-9,-19,-18
1523149617807413,7,-1,-6,-6,-4,-3,-5,-14
1523149617828280,25,5,-18,1,3,2,-9,-2
1523149617828280,-8,18,89,22,9,4,16,87
1523149617829784,-46,-26,-60,-24,-13,-11,-12,-93
1523149617829784,6,0,34,3,2,-1,-3,35
1523149617841816,9,-2,0,7,-1,-3,0,0
1523149617841816,25,10,16,0,-3,1,-4,8
1523149617850842,8,12,33,8,4,6,9,-14
1523149617850842,-9,-6,-4,1,-2,-6,5,12
1523149617865880,6,-15,-53,-15,-4,-5,6,46
1523149617865880,-21,1,-18,-2,-1,-3,-11,-77
1523149617867386,13,4,13,7,2,3,0,7
1523149617867386,11,-6,-34,-10,-5,-4,-3,43
1523149617887899,-26,6,37,7,2,0,7,-43
1523149617887899,22,2,-13,-1,1,-1,-5,15
1523149617889902,6,-5,-32,-12,-8,-5,7,14
1523149617889902,-20,1,19,6,3,3,-13,-47
1523149617902119,15,-3,-25,-9,-3,1,9,44
1523149617902119,-7,-12,-39,-13,-6,-7,-32,-21
1523149617910956,-12,6,25,10,3,4,25,-26
1523149617910956,10,-2,-4,-1,-2,-1,-2,17
1523149617925495,-8,-4,32,2,-2,-3,4,-4
1523149617925495,0,-4,-17,-6,-3,-2,-23,-25
1523149617927500,14,6,-25,-4,2,5,15,70
1523149617927500,3,-1,-1,-11,-5,-3,-1,-6
1523149617948295,-31,-3,19,11,2,0,-9,-43
1523149617948295,11,-1,-17,-2,-5,-5,1,25
1523149617953812,22,9,37,5,2,2,-2,25
1523149617953812,-32,-10,-43,-11,-1,0,-2,-23
1523149617970893,-7,10,66,22,4,-1,-5,-23
1523149617970893,-4,-8,-79,-32,-9,-6,6,3
1523149617972391,3,1,13,2,0,-2,-5,2
1523149617972391,10,5,29,9,3,-1,-13,11
1523149617985427,1,-10,-42,-12,-8,-2,17,5
1523149617985427,-2,1,26,5,2,3,0,-6
1523149617987431,-3,1,-13,-6,0,-1,9,-3
1523149617987431,-1,-6,0,10,-4,-5,-8,0
1523149618008222,10,2,11,0,3,1,-2,22
1523149618008222,-17,-4,-5,-3,1,0,-5,-40
1523149618009491,-13,-3,14,5,0,1,-8,-15
1523149618009491,3,2,-5,-5,0,1,8,7
1523149618031049,3,0,-22,-6,-3,-2,-2,-2
1523149618031049,5,-2,11,4,-3,-4,4,19
1523149618032052,7,4,18,7,3,0,-9,10
1523149618032052,-3,-10,-15,-13,-4,-1,1,0
1523149618045586,-15,2,-21,-7,-1,-3,-17,-38
1523149618045586,-12,12,27,5,4,-2,2,-5
1523149618047090,0,-22,-5,3,0,1,-8,-2
1523149618047090,4,2,-25,-8,-3,-1,3,7
1523149618068440,17,6,39,-2,-3,0,-3,11
1523149618068440,-6,-3,8,9,2,3,4,2
1523149618069797,-1,9,16,-3,1,0,6,-3
1523149618069797,25,11,6,-3,-3,-2,-1,67
1523149618091093,-57,-21,-53,-3,2,0,-6,-91
1523149618091093,10,5,10,0,0,-1,5,1
1523149618092356,-1,-7,3,-3,-3,-3,-8,-11
1523149618092356,-4,-15,-17,-4,-2,0,3,0
1523149618104894,12,15,40,4,-1,-2,5,35
1523149618104894,-39,-7,-8,-4,-4,-2,0,-21
1523149618111911,10,0,-11,0,1,-2,-16,-9
1523149618111911,-3,14,8,-1,-1,-2,12,-16
1523149618127951,6,-1,-1,-2,1,-1,3,25
1523149618127951,-1,-7,-34,-2,-2,0,0,-3
1523149618129455,5,3,20,0,0,-1,-2,10
1523149618129455,-6,-3,-15,-1,0,-1,-7,-23
1523149618150511,-5,-5,12,-3,-6,-4,-1,-5
1523149618150511,18,6,6,1,-1,0,6,18
1523149618152018,-9,0,-29,-1,-1,-1,2,-11
1523149618152018,-1,-1,45,-2,-1,-1,-3,-11
1523149618165052,9,-2,-23,0,0,0,-15,15
1523149618165052,-3,-7,16,-2,-1,1,27,-7
1523149618171611,-3,2,32,5,0,-1,-16,1
1523149618171611,-6,-6,-85,-8,0,0,12,-9
1523149618188109,36,-5,-19,-9,-3,-1,7,67
1523149618188109,-29,-7,-37,-1,-2,-3,-8,-15
1523149618189615,-20,1,26,2,-3,0,-13,-41
1523149618189615,-7,-4,7,2,2,-2,-12,-30
1523149618210669,6,6,38,5,0,0,-3,-17
1523149618210669,33,0,-25,-4,-2,-3,8,50
1523149618212174,4,8,50,1,2,0,8,23
1523149618212174,-8,-18,6,-7,-3,-1,-12,1
1523149618224706,1,9,7,4,0,0,10,0
1523149618224706,7,2,33,-4,1,1,-6,-7
1523149618231724,0,2,6,4,0,-1,-5,-3
1523149618231724,-12,-2,-33,-4,-5,-4,-6,13
1523149618248270,-4,-4,9,6,2,0,-3,-20
1523149618248270,9,8,28,0,-1,2,2,5
1523149618249774,-6,-9,-38,-3,-2,-3,-8,4
1523149618249774,5,3,-1,5,-2,-2,3,-22
1523149618269886,-4,5,-12,5,6,3,1,14
1523149618269886,0,-8,28,10,2,-2,-18,-14
1523149618270882,9,1,20,4,3,3,42,27
1523149618270882,-2,4,-24,-9,-1,0,0,4
1523149618284420,-6,-4,36,7,-3,-5,-6,-10
1523149618284420,7,4,-3,3,0,1,-4,1
1523149618292387,9,2,33,2,-5,-3,-4,12
1523149618292387,5,4,79,5,1,2,-12,-16
1523149618307434,-51,-14,-53,-20,-4,-3,11,-35
1523149618307434,5,7,41,12,5,1,1,17
1523149618307929,-1,4,-9,-7,2,1,-6,-8
1523149618307929,8,-20,-66,-28,-14,-11,-5,12
1523149618330041,12,3,18,0,0,1,-4,19
1523149618330041,-19,-9,3,-2,-3,-4,-3,-15
1523149618330997,3,7,-4,0,3,0,-3,-2
1523149618330997,2,10,28,9,4,3,14,29
1523149618344081,11,-2,-1,-6,-2,0,0,-19
1523149618344081,-20,-12,-62,-9,-5,-7,-14,-48
1523149618352592,-8,0,-10,7,-1,1,0,-24
1523149618352592,8,-3,13,0,0,-3,-4,10
1523149618367337,-33,-16,-75,-24,-8,-7,2,-11
1523149618367337,20,3,9,4,1,2,-8,2
1523149618368666,11,7,36,10,4,6,13,14
1523149618368666,-26,-15,-35,-7,-5,-5,-2,-28
1523149618389924,20,5,21,7,2,1,-3,36
1523149618389924,4,2,4,-7,-3,-3,-1,-10
1523149618391025,-6,-6,-34,-8,-4,-5,-18,-9
1523149618391025,8,6,32,12,5,4,9,2
1523149618404381,-7,-4,-4,-9,-3,-3,-3,14
1523149618404381,-12,-5,-22,-8,-1,-1,4,-18
1523149618412872,2,-3,-17,-7,-1,-5,-11,8
1523149618412872,7,17,68,24,8,6,5,4
1523149618427263,7,-11,-45,-11,-11,-9,-3,-12
1523149618427263,-11,-1,-1,-3,-1,-3,-4,23
1523149618428266,-14,-6,-17,-11,-3,-2,-4,-6
1523149618428266,-8,3,8,3,5,3,6,-42
1523149618449824,10,10,52,22,9,5,5,21
1523149618449824,-7,-7,-41,-22,-5,-1,-2,-32
1523149618450827,0,-13,-43,-13,-9,-9,-14,3
1523149618450827,1,-1,-10,-6,-4,-3,-4,28
1523149618464579,-23,-2,7,9,0,-3,-5,-8
1523149618464579,11,10,41,12,4,3,0,17
1523149618479904,-1,-5,-47,-4,0,0,8,4
1523149618479904,0,4,60,-3,-3,-3,0,-11
1523149618487424,16,4,-3,3,2,5,7,10
1523149618487424,-7,-5,7,0,-2,0,-6,4
1523149618488429,1,-4,-3,2,-2,1,7,-2
1523149618488429,8,-4,1,-2,-2,-2,-3,21
1523149618510307,-20,6,11,2,1,0,-6,-30
1523149618510307,9,-1,-20,0,-1,-1,2,0
1523149618511310,-12,-2,29,-3,-3,-2,-8,8
1523149618511310,-5,0,-12,-1,0,-1,-3,-21
1523149618524594,14,-2,9,-2,-1,-2,-5,-1
1523149618524594,6,-2,17,-1,-2,-2,3,11
1523149618532367,9,9,-14,3,3,1,1,5
1523149618532367,0,6,-13,-1,-1,0,0,34
1523149618547405,-30,-13,64,5,0,-2,-5,-74
1523149618547405,5,-8,-93,-5,-2,-2,2,14
1523149618548409,0,-8,55,-2,-2,-2,1,-4
1523149618548409,4,8,-5,-4,1,0,-1,0
1523149618570087,16,-2,-6,-1,-2,0,4,20
1523149618570087,-11,4,40,6,1,-2,1,2
1523149618570846,28,7,-10,1,-1,1,1,-10
1523149618570846,-51,-17,-34,-1,1,0,-7,-24
1523149618584592,23,6,-6,-1,0,2,11,43
1523149618584592,11,3,6,-1,-2,2,5,-12
1523149618592401,-36,4,-16,0,-1,-3,-7,-3
1523149618592401,7,-6,36,2,-2,-3,-3,-25
1523149618607442,12,0,-27,-2,-2,-1,1,8
1523149618607442,-1,1,69,3,1,0,-3,18
1523149618608446,11,5,-72,1,1,0,-5,-1
1523149618608446,1,3,18,0,-3,-2,9,-1
1523149618630012,-9,4,6,4,-2,0,-5,-3
1523149618630012,16,-8,-12,-5,-1,-2,-1,7
1523149618630786,-7,-5,25,-4,-2,-2,-1,-6
1523149618630786,3,-1,-13,-2,-4,-2,-5,-5
1523149618644322,4,-14,-8,0,3,2,4,4
1523149618644322,-4,6,17,25,-1,-1,-10,-3
1523149618652344,-2,-3,20,-43,-2,1,-1,-9
1523149618652344,-3,-4,-14,-7,-1,-1,-2,-1
1523149618667203,10,13,60,-2,-1,-2,-2,6
1523149618667203,0,6,-46,17,0,-4,0,-3
1523149618668206,-11,-23,12,-19,-3,-2,-1,4
1523149618668206,2,4,-41,-5,3,0,0,-27
1523149618690019,-1,-3,26,66,-1,0,-7,-5
1523149618690019,-1,3,-10,-49,-3,0,8,2
1523149618690770,7,7,5,22,1,0,-7,4
1523149618690770,8,3,-32,-2,-1,1,5,21
1523149618704304,-6,0,22,12,2,-1,-9,-25
1523149618704304,-2,-3,24,5,-1,0,15,17
1523149618712323,6,-1,3,3,-3,-1,-4,-1
1523149618712323,2,-1,8,7,-1,0,11,31
1523149618727361,10,4,19,-17,2,3,-7,17
1523149618727361,14,-7,-32,-2,-2,-1,1,-4
1523149618728384,-60,-8,37,-6,0,-3,-6,-73
1523149618728384,12,2,4,9,2,1,4,44
1523149618749958,-4,-1,-23,-31,-9,-5,0,-13
1523149618749958,14,2,24,-2,0,0,-5,15
1523149618750924,11,2,-18,11,-2,2,15,18
1523149618750924,-7,-5,-38,0,0,0,-11,-17
1523149618764459,0,-3,4,3,1,-3,2,10
1523149618764459,-13,-6,7,-14,-5,-3,-18,-19
1523149618772739,7,2,-22,14,1,0,15,-2
1523149618772739,0,5,10,6,0,-1,-10,-7
1523149618787521,5,1,36,-27,-5,0,7,17
1523149618787521,-6,3,34,21,6,0,-3,-2
1523149618788024,-11,-1,37,8,-2,-1,2,-6
1523149618788024,3,-11,-84,-24,-4,-2,-5,-6
1523149618809857,2,4,-4,7,4,2,14,0
1523149618809857,-4,0,-12,-3,-3,-2,-14,1
1523149618811077,19,8,8,10,2,3,26,27
1523149618811077,-19,-16,-12,-19,-11,-6,-7,-12
1523149618825900,-17,0,-14,3,-1,-6,-8,-18
1523149618825900,-2,-8,-52,-17,-5,-4,0,-5
1523149618832658,18,0,-31,4,3,0,-6,3
1523149618832658,4,9,112,12,2,2,-3,21
1523149618847711,8,2,-54,-11,-1,1,4,0
1523149618847711,-23,-15,-40,-10,-8,-5,-3,-1
1523149618847959,-2,3,26,7,-1,-4,-19,-37
1523149618847959,7,4,9,10,7,4,0,1
1523149618870264,6,-3,18,-10,-1,1,8,22
1523149618870264,-4,16,104,23,9,7,13,3
1523149618870735,-3,-15,-51,-19,-10,-8,-15,5
1523149618870735,0,1,0,0,-1,-4,-7,-17
1523149618892793,-1,-6,-36,-2,0,0,-11,-5
1523149618892793,7,6,41,4,1,4,15,-1
1523149618893796,-4,-8,84,-19,-6,-4,-4,6
1523149618893796,1,-1,13,0,-2,-3,2,-9
1523149618907484,-5,-4,-23,-5,-2,-1,-6,43
1523149618907484,-6,0,4,4,0,-1,-1,-66
1523149618908335,-26,2,-7,0,-2,-2,-12,-28
1523149618908335,7,-1,-11,1,1,3,-1,3
1523149618930128,7,4,13,3,2,3,5,12
1523149618930128,9,-7,-60,-11,-1,-3,9,32
1523149618930559,-8,-2,-18,5,-3,-3,-4,-8
1523149618930559,-1,0,5,-2,-1,0,-3,-10
1523149618953238,-5,-4,-27,-2,1,0,-6,-26
1523149618953238,-2,5,34,3,-2,-1,-4,7
1523149618953620,12,-4,6,-7,1,-2,-3,13
1523149618953620,-7,-1,14,4,1,1,20,1
1523149618967655,0,2,46,-5,-2,-2,-6,-10
1523149618967655,-2,-6,-75,0,-1,0,-3,2
1523149618968158,3,-9,-14,1,-1,0,1,11
1523149618968158,-5,5,-18,-4,-3,-5,-7,-8
1523149618989829,-3,-5,-24,-5,-2,-3,0,-9
1523149618989829,-2,13,49,1,-1,0,-3,-4
1523149618990718,0,-22,-74,1,1,0,-2,4
1523149618990718,-2,-9,-23,-5,-4,-3,-5,-5
1523149619013391,-2,-12,-49,-4,-1,1,4,-8
1523149619013391,-2,-1,20,-2,-1,0,0,3
1523149619013779,7,13,-7,3,3,3,0,11
1523149619013779,-4,4,19,-2,-2,-4,-2,-5
1523149619027468,-3,-5,28,0,-2,-4,-2,-7
1523149619027468,-4,-21,-68,-9,-6,-6,-8,-4
1523149619027969,3,6,34,0,3,3,5,8
1523149619027969,1,3,-4,3,-2,-2,-3,-4
1523149619050115,-4,7,-1,13,4,-1,2,-4
1523149619050115,2,-11,18,1,-3,4,3,5
1523149619050528,1,3,-4,16,-5,-8,-8,-4
1523149619050528,-1,-5,13,-20,1,4,0,2
1523149619073088,-1,14,-13,-9,-4,-5,-6,-6
1523149619073088,-9,-35,10,23,3,1,1,0
1523149619074091,0,2,8,5,0,-1,1,3
1523149619074091,2,-2,-26,8,-2,-2,-3,-3
1523149619087488,11,10,58,10,0,-2,0,4
1523149619087488,-5,-7,-76,-22,-2,-2,-3,-7
1523149619088131,0,-8,-60,-8,2,4,4,5
1523149619088131,-3,-1,28,-1,-2,-2,-3,0
1523149619109684,4,1,2,-10,-4,-2,-6,-7
1523149619109684,-7,8,-43,-9,1,0,2,-1
1523149619110651,2,11,26,-4,0,1,-2,-9
1523149619110651,2,-7,-15,3,2,3,8,5
1523149619132885,-13,-9,-16,-7,-2,-3,-3,-4
1523149619132885,6,9,35,2,-1,-3,-9,-3
1523149619133211,7,4,13,3,1,1,0,6
1523149619133211,2,5,-14,-4,-2,-2,12,46
1523149619147248,-3,-3,-11,-3,-1,-1,-4,-25
1523149619147248,-10,-4,51,-3,-2,-5,-4,-67
1523149619148250,-1,19,41,-3,-2,-3,-13,1
1523149619148250,3,-5,-12,-2,-5,-4,-5,2
1523149619169752,0,-14,-73,-7,-2,-2,5,29
1523149619169752,10,13,52,2,-1,-1,4,21
1523149619170755,-6,-7,-29,-4,1,0,1,-6
1523149619170755,-4,-3,22,1,-2,-1,-13,-18
1523149619193258,-2,-7,17,2,-1,-2,6,-1
1523149619193258,-1,6,-10,-2,0,2,1,3
1523149619193759,7,1,12,-2,0,0,7,30
1523149619193759,-2,-3,-1,-1,-4,-2,-6,-52
1523149619207816,-15,1,-21,0,-2,-2,-7,-22
1523149619207816,6,0,-3,-1,0,1,-3,43
1523149619208299,-28,-6,8,-4,-2,-3,0,-60
1523149619208299,11,1,-4,1,1,-2,3,16
1523149619229824,1,-1,-7,0,1,1,-9,-6
1523149619229824,2,-1,5,2,-2,-2,7,17
1523149619230827,10,3,7,14,2,3,3,26
1523149619230827,-16,-11,-4,-19,-7,-5,-7,-14
1523149619253702,-5,-4,-54,-2,-4,-3,-1,-5
1523149619253702,4,4,10,-2,2,1,-2,4
1523149619253702,1,-4,52,-3,-3,-4,-2,5
1523149619253702,-4,3,15,7,3,1,-1,-13
1523149619267188,2,-3,5,-1,-1,0,-5,7
1523149619267188,3,6,14,5,-1,0,4,-6
1523149619268192,-4,-9,-54,-16,-6,-3,-2,-9
1523149619268192,-3,-5,-24,-1,-3,-5,-6,10
1523149619290103,1,3,41,3,3,1,0,8
1523149619290103,-7,-8,-93,-7,-3,-5,4,-12
1523149619290704,2,-4,3,-12,-7,-4,-2,-1
1523149619290704,-1,2,12,7,4,3,-3,1
1523149619313661,-5,0,17,0,-4,0,-5,-12
1523149619313661,-1,4,59,6,0,-3,-8,-2
1523149619314268,1,-2,-34,-5,0,0,5,10
1523149619314268,4,3,-1,-3,0,-1,2,7
1523149619327496,-6,1,28,9,2,3,6,-8
1523149619327496,11,2,10,0,2,1,3,42
1523149619328260,-24,-8,-18,-2,-3,-6,-16,-41
1523149619328260,-7,2,25,0,4,2,4,-33
1523149619350153,16,4,8,0,-2,0,-3,20
1523149619350153,4,1,-2,3,-3,-1,-1,17
1523149619350751,-10,1,39,4,2,0,-1,-61
1523149619350751,3,-3,-52,0,-2,-2,-10,16
1523149619373657,3,-3,-13,-7,-1,0,2,10
1523149619373657,6,-7,-33,-18,-6,-2,14,14
1523149619373657,18,5,16,14,3,6,6,49
1523149619373657,-7,1,12,2,1,1,-5,-21
1523149619387554,-9,-1,19,1,0,-1,0,-26
1523149619387554,4,2,-10,0,1,1,-5,1
1523149619388163,-8,-2,16,-6,-1,-1,-3,-7
1523149619388163,-4,-3,13,-2,-1,-1,0,-9
1523149619410490,11,0,-5,-2,-2,-3,6,26
1523149619410490,-12,1,17,0,-1,-3,-8,-31
1523149619410490,11,-2,-15,-2,0,0,0,17
1523149619410490,11,4,30,7,0,1,8,30
1523149619433454,-16,-5,-41,-11,-1,-2,-7,-11
1523149619433454,-9,-8,17,-4,-4,-2,-15,-34
1523149619434054,2,-2,-21,-2,-2,-1,-5,10
1523149619434054,3,6,14,12,3,3,22,15
1523149619447589,-7,-9,-32,-19,-5,-2,-2,-11
1523149619447589,1,0,10,4,-1,-1,0,4
1523149619448091,11,3,2,-2,-3,-1,0,21
1523149619448091,-11,-2,21,2,0,-2,-10,11
1523149619470193,-8,-2,-5,2,3,1,1,-54
1523149619470193,-1,1,-4,-3,0,-3,-19,-1
1523149619470998,3,1,11,-1,1,3,28,16
1523149619470998,6,-1,-12,-4,-4,-3,-3,-2
1523149619492982,19,-1,1,2,-1,-2,3,46
1523149619492982,-19,-1,-6,1,-2,-1,-9,-51
1523149619493982,-4,0,-16,1,0,-2,-9,-16
1523149619493982,-4,-2,-3,-3,-1,-1,-5,5
1523149619507014,0,3,12,-2,-2,-1,4,-1
1523149619507014,3,-4,-7,0,0,0,6,7
1523149619515036,6,1,13,3,1,2,0,19
1523149619515036,-8,-5,-14,-6,-4,-1,-4,-16
1523149619530078,0,1,-15,-7,-4,-3,-4,10
1523149619530078,4,-10,-24,4,-2,-6,-3,19
1523149619530578,-33,-4,-6,-4,-5,-6,-7,-60
1523149619530578,3,-4,-20,-4,1,-1,-6,-6
1523149619552374,-5,5,34,10,2,-1,0,-6
1523149619552374,5,-3,-49,-9,-2,1,4,23
1523149619553139,8,-2,-27,-2,0,0,-3,11
1523149619553139,-2,0,78,3,-1,-2,-2,-9
1523149619567174,-7,-4,4,-4,-2,-2,-2,3
1523149619567174,-6,-4,-10,-4,-2,-1,0,-5
1523149619575109,10,-3,-6,-2,-4,-5,-6,8
1523149619575109,-4,5,5,0,1,2,1,-5
1523149619590150,31,-3,4,-2,0,1,1,11
1523149619590150,-67,7,1,-2,0,-2,-3,-16
1523149619590651,30,2,14,0,0,-1,2,0
1523149619590651,-17,-1,-25,1,2,2,0,15
1523149619613211,3,-11,-5,-2,-5,-7,-3,-24
1523149619613211,10,-2,5,0,0,1,0,-5
1523149619614388,-24,4,1,-4,-8,-10,-8,-2
1523149619614388,26,-11,-29,-1,0,3,6,15
1523149619626752,-19,7,-2,0,-2,-2,-4,-7
1523149619626752,7,15,28,1,0,0,2,-3
1523149619634768,1,-1,8,0,3,2,1,16
1523149619634768,8,-9,-23,-7,-4,-4,-3,14
1523149619649810,-21,0,-2,-1,-2,-1,-5,-38
1523149619649810,5,-6,11,-1,-2,-2,0,-7
1523149619650811,23,10,-4,0,0,1,0,21
1523149619650811,-6,-8,-27,-2,-2,-4,-2,-10
1523149619673225,0,-3,18,2,0,4,1,16
1523149619673225,-11,-8,-2,1,0,-2,-1,-10
1523149619673873,-2,12,41,2,1,1,2,0
1523149619673873,-4,-6,-33,-5,-3,-2,2,10
1523149619686907,3,-1,34,0,-3,-2,0,-1
1523149619686907,-4,-33,-25,-2,-2,-2,-10,-29
1523149619694928,-23,-3,0,3,2,2,3,5
1523149619694928,34,6,-5,-2,-3,-1,0,-1
1523149619709930,5,-1,34,-1,-1,0,-1,19
1523149619709930,-12,16,22,-1,-2,-2,-7,-17
1523149619710435,-13,-7,-5,2,-1,2,3,-15
1523149619710435,-13,-2,-6,-2,-5,-2,3,-5
1523149619732731,12,4,-7,3,4,3,-2,22
1523149619732731,13,-5,4,1,4,4,5,11
1523149619733185,-4,-6,18,-4,-4,-3,-4,-7
1523149619733185,1,13,34,8,3,-1,-3,2
1523149619747222,-7,-7,-27,-11,-7,-5,0,0
1523149619747222,5,9,13,2,0,-2,2,19
1523149619755250,-4,-4,17,6,3,0,-13,-39
1523149619755250,-2,-3,-44,-8,1,1,17,-2
1523149619769782,-8,-2,-30,-2,-2,-2,-2,-6
1523149619769782,9,-2,4,10,0,-2,0,13
1523149619771183,15,-1,-32,-8,-6,0,12,42
1523149619771183,9,4,47,5,-1,-2,-12,11
1523149619792848,-76,-11,4,-5,-4,-8,-15,-80
1523149619792848,22,10,15,7,5,4,0,-10
1523149619793849,-9,-18,-29,-3,-5,-6,-1,-2
1523149619793849,-1,4,1,-10,-5,1,0,16
1523149619807334,24,0,-30,-7,-1,0,9,40
1523149619807334,2,2,18,4,-2,-2,-3,2
1523149619814855,-3,0,12,1,-1,1,-1,2
1523149619814855,-5,-4,-13,-1,1,1,-3,-8
1523149619829897,9,3,25,8,3,4,-2,0
1523149619829897,0,4,27,5,-2,0,4,-2
1523149619830899,4,-10,-75,-22,-7,-4,-5,-2
1523149619830899,-5,-3,-72,0,-2,-2,-10,2
1523149619852456,6,0,-14,-2,2,2,6,-16
1523149619852456,16,1,-12,-3,2,0,11,42
1523149619852958,-32,-1,20,2,-2,-2,-12,-52
1523149619852958,-15,0,38,12,2,-3,-10,-30
1523149619875558,12,-4,-46,-7,-3,-2,0,22
1523149619875558,8,3,10,-2,1,2,5,4
1523149619876525,11,-1,-35,0,1,2,2,18
1523149619876525,-6,-2,60,-8,-4,-3,-7,-13
1523149619898273,3,3,7,11,4,2,8,0
1523149619898273,3,-5,-21,-11,-6,-3,-4,7
1523149619899415,4,3,3,1,0,0,0,8
1523149619899415,-6,-1,1,1,0,-2,-2,-5
1523149619913514,6,4,12,6,1,0,-3,-9
1523149619913514,-12,-9,-25,-16,-6,-3,-1,0
1523149619913618,-1,2,-33,4,2,0,6,-16
1523149619913618,3,1,6,0,-1,1,-4,10
1523149619936084,-10,4,16,1,1,-1,-2,-9
1523149619936084,-2,-4,-14,1,1,0,-7,-4
1523149619936179,18,3,31,0,-1,0,3,17
1523149619936179,2,-5,-6,-4,-5,-3,8,16
1523149619949714,-3,-1,1,3,-1,-1,-6,7
1523149619949714,-2,5,24,4,1,0,-3,-10
1523149619950722,1,-6,-60,-16,-2,-3,-6,10
1523149619950722,12,4,21,4,-1,2,6,-5
1523149619972275,1,-2,3,-1,-2,-2,5,8
1523149619972275,-6,-2,-8,-3,-1,-2,-19,-5
1523149619973277,5,6,49,14,3,3,17,-20
1523149619973277,-13,-12,-55,-17,-5,-4,-8,-2
1523149619994834,-7,1,7,1,-1,-1,0,-27
1523149619994834,5,1,-8,-4,-4,-3,-1,20
1523149620002353,-10,0,17,3,0,-1,-5,-11
1523149620002353,-2,-4,1,0,1,0,1,-15
1523149620009876,-3,0,42,2,-2,-2,2,12
1523149620009876,3,-1,-39,-5,-3,0,3,-6
1523149620010880,-5,-1,72,5,-1,-1,-5,11
1523149620010880,-2,0,-41,-4,-2,-2,6,-4
1523149620032437,9,-1,-17,-1,0,0,-3,14
1523149620032437,-5,-5,-1,-3,0,-1,2,-6
1523149620032936,-5,2,0,1,-2,-3,-4,-6
1523149620032936,-6,1,12,1,0,-2,-3,6
1523149620055496,-15,-3,0,3,0,-3,-5,-16
1523149620055496,-8,-3,11,-6,-4,-3,-1,-16
1523149620056502,9,-1,-15,6,1,2,0,22
1523149620056502,-6,2,23,2,2,0,0,-14
1523149620070035,3,-1,-14,-4,-1,1,-5,-32
1523149620070035,1,3,21,4,1,1,11,1
1523149620070537,-1,-1,-14,-3,-3,-1,-4,5
1523149620070537,5,4,60,-3,-2,-1,2,2
1523149620092594,3,-4,-12,1,-1,-2,-9,16
1523149620092594,-3,6,26,6,2,3,13,-1
1523149620093107,0,-12,-46,-11,-6,-3,-1,-1
1523149620093107,-2,-1,-21,4,0,-2,-1,9
1523149620115655,2,0,-1,-5,0,-2,-2,-7
1523149620115655,0,-7,1,-4,-3,-1,-6,-14
1523149620116157,-2,2,27,6,3,0,-3,5
1523149620116157,7,2,-4,0,-2,0,4,-4
1523149620129699,-2,-7,25,-2,-3,-2,0,22
1523149620129699,-12,-9,-71,-4,-3,-6,-13,-15
1523149620130697,-1,23,3,-3,0,0,7,-7
1523149620130697,25,-15,43,7,2,1,-1,6
1523149620152254,-28,-4,-15,-4,-2,0,3,34
1523149620152254,-6,-28,8,-1,-1,0,0,-29
1523149620153256,12,-4,20,0,0,-1,-3,1
1523149620153256,-47,27,-29,-4,-1,-2,-3,2
1523149620176384,40,-23,7,-3,0,-2,1,-6
1523149620176384,1,13,4,-3,-4,-6,-5,8
1523149620176888,-24,-15,-21,-1,1,2,0,3
1523149620176888,24,15,-7,-2,1,2,1,-7
1523149620189917,5,-4,-12,-1,-4,0,1,5
1523149620189917,10,8,6,-2,-3,-5,-6,9
1523149620190418,-39,-34,-4,-4,-3,-3,-4,-19
1523149620190418,28,17,4,1,5,6,9,12
1523149620212480,-54,-16,-19,-3,-5,-4,-3,-12
1523149620212480,10,13,1,1,-1,1,1,3
1523149620212981,11,1,7,3,3,4,3,12
1523149620212981,0,-1,-8,-2,-3,-4,-8,-12
1523149620235537,3,9,-15,-1,-2,-5,-3,-1
1523149620235537,0,-21,19,2,0,0,2,5
1523149620236540,7,17,-8,-4,-5,-7,-5,-4
1523149620236540,-18,-12,-9,1,1,0,-2,-10
1523149620250077,13,7,43,1,1,1,2,4
1523149620250077,-7,2,-31,-1,-3,-2,0,14
1523149620250580,33,11,34,14,0,0,0,-2
1523149620250580,-49,-42,-102,-43,-12,-7,-20,-20
1523149620272136,11,6,27,8,3,1,14,9
1523149620272136,3,10,27,-2,0,2,5,5
1523149620273138,9,2,0,1,-2,-2,-1,16
1523149620273138,11,3,55,22,1,0,2,5
1523149620295697,-4,0,-60,-18,-7,-6,-9,-25
1523149620295697,-5,1,-7,-2,1,-1,-2,1
1523149620296199,-1,-2,-24,-4,1,2,-2,-9
1523149620296199,6,5,89,17,1,-1,5,10
1523149620309741,1,2,-15,-9,-4,-2,-5,27
1523149620309741,2,0,-2,5,6,0,1,-14
1523149620310738,9,2,13,0,1,0,1,21
1523149620310738,-24,-8,-41,-15,-5,-5,-5,-6
1523149620332303,4,7,50,12,3,0,-12,-51
1523149620332303,6,2,11,-3,-1,2,0,18
1523149620333299,-5,5,20,1,0,0,7,7
1523149620333299,15,4,-34,-8,-2,2,8,4
1523149620355358,4,-11,-37,3,-2,-6,-1,18
1523149620355358,-10,1,-34,0,2,2,-5,23
1523149620356365,-6,-4,9,-6,-5,-3,-8,-13
1523149620356365,11,9,45,18,2,1,2,5
1523149620369896,0,4,-4,-4,0,1,-1,-9
1523149620369896,6,-19,-74,-34,-14,-6,-3,19
1523149620370397,-20,3,21,6,0,-1,2,-24
1523149620370397,-9,-6,-17,-2,2,1,-5,-7
1523149620392460,7,3,67,5,-3,0,-3,-2
1523149620392460,3,5,12,2,0,0,7,-3
1523149620393461,9,3,35,12,4,2,-9,15
1523149620393461,-33,-33,-90,-46,-15,-12,-4,-10
1523149620415519,8,7,4,6,3,2,-7,-10
1523149620415519,13,8,44,8,4,4,14,-10
1523149620416518,6,-2,-3,-1,-3,0,6,41
1523149620416518,-10,-1,9,1,-1,-2,-12,-60
1523149620429053,-21,-2,-15,6,2,-2,-2,6
1523149620429053,-6,-2,13,5,0,-1,-8,-16
1523149620437577,7,1,-55,-12,-3,-3,-2,-5
1523149620437577,22,4,26,13,4,3,9,46
1523149620452114,-2,2,-2,-1,2,2,5,4
1523149620452114,-13,-10,-31,-15,-6,-5,-5,-37
1523149620453117,10,3,29,-3,2,3,1,38
1523149620453117,-5,4,17,9,1,-2,2,-34
1523149620475685,-3,-10,-37,-6,-7,-5,-8,-14
1523149620475685,-14,4,13,10,4,2,-4,-13
1523149620476683,-3,-2,7,-2,1,0,5,-6
1523149620476683,12,0,-1,-6,-5,-4,-5,48
1523149620489213,20,6,0,1,1,3,5,60
1523149620489213,-34,-5,11,1,1,-2,-11,-68
1523149620497236,-10,-8,-10,1,-2,-3,4,-34
1523149620497236,3,1,1,-2,-1,0,-5,-24
1523149620512275,24,9,-5,-3,-2,0,12,32
1523149620512275,8,2,12,0,-2,-3,-16,35
1523149620513278,-13,0,-4,-3,-1,-1,12,-23
1523149620513278,3,-5,-7,1,-2,-3,-4,2
1523149620535337,-4,0,5,2,-1,1,2,3
1523149620535337,4,-4,-17,-1,-4,-2,1,0
1523149620536339,-15,-2,-6,-25,-3,1,-7,-24
1523149620536339,14,9,41,17,4,2,1,21
1523149620549374,-21,-14,-29,41,4,-3,-6,-36
1523149620549374,21,10,19,6,-1,-1,5,16
1523149620557395,-27,-17,-42,-12,-5,-4,-12,2
1523149620557395,0,2,-1,-14,-1,2,3,4
1523149620572437,-4,2,-12,-21,-1,1,-2,-14
1523149620572437,4,-23,1,12,3,1,4,11
1523149620572936,9,4,-22,-3,-3,-3,-4,4
1523149620572936,-2,-7,-7,1,0,1,1,-5
1523149620595495,1,2,31,1,-1,1,2,10
1523149620595495,-7,5,-4,-7,-4,-2,0,-15
1523149620596498,12,-8,30,1,-1,-4,-8,13
1523149620596498,-24,-7,-19,4,0,-3,-9,-48
1523149620609032,10,3,0,-5,-1,0,0,13
1523149620609032,3,6,0,-4,1,-1,10,13
1523149620617557,6,3,15,7,0,-1,1,1
1523149620617557,10,18,2,4,-1,-2,-4,22
1523149620632093,-13,-27,-5,-14,-2,0,-4,-36
1523149620632093,-2,1,1,-3,-1,0,0,6
1523149620633097,-2,19,-8,7,0,0,-2,-11
1523149620633097,18,-10,0,0,0,-2,4,14
1523149620655657,-26,-10,-1,-12,0,-1,-1,2
1523149620655657,22,-7,5,0,-1,-2,-4,5
1523149620656158,29,-1,-12,4,0,-1,-2,-2
1523149620656158,-55,24,8,-2,-4,-1,1,-4
1523149620669192,8,0,-4,-2,-3,-3,-4,2
1523149620669192,-9,3,8,4,2,-1,-1,0
1523149620677217,18,-7,0,-2,-3,0,2,15
1523149620677217,17,-4,-39,-4,1,-1,0,20
1523149620692258,-49,-1,-45,-5,-3,-4,-7,-67
1523149620692258,1,5,21,0,-1,0,-2,-12
1523149620693256,-8,0,-8,-3,-1,-1,0,-3
1523149620693256,9,-4,14,3,1,-2,1,21
1523149620715317,6,7,3,-1,-2,-3,1,-5
1523149620715317,-5,-15,-13,-3,-2,0,-1,10
1523149620716318,-17,-1,15,0,1,0,-2,-10
1523149620716318,13,-1,5,4,-2,1,1,18
1523149620729855,25,14,17,-3,1,4,3,16
1523149620729855,-17,3,-4,-2,-5,-4,-2,2
1523149620737374,-6,-8,2,-1,-1,-6,-3,-3
1523149620737374,13,0,13,2,3,3,-3,-10
1523149620752414,-36,0,7,0,-1,-1,4,-15
1523149620752414,-1,0,2,-1,-1,-1,-3,24
1523149620753425,-25,-9,-21,-3,-3,-6,-8,-68
1523149620753425,12,-2,4,1,-6,-11,-6,7
1523149620775482,18,3,-2,-6,6,10,8,10
1523149620775482,10,0,-3,3,-1,-1,4,16
1523149620776477,6,5,4,2,0,1,1,37
1523149620776477,-1,-3,14,7,2,1,-3,-19
1523149620798035,-17,-5,-28,-15,-4,-5,-9,-6
1523149620798035,-7,4,12,5,-2,-4,-2,-13
1523149620799037,13,2,-1,-10,-3,-1,-5,2
1523149620799037,9,5,13,16,7,7,7,11
1523149620812573,-20,-18,-43,-16,-10,-9,-10,8
1523149620812573,-9,4,18,4,1,0,-4,-43
1523149620813079,-2,-2,-5,-2,-3,0,-3,0
1523149620813079,4,-7,-27,-9,-6,-1,3,17
1523149620835635,16,5,60,11,2,-2,0,1
1523149620835635,-5,-1,-52,-10,-2,-1,-3,-18
1523149620836136,7,-1,15,9,0,1,2,56
1523149620836136,-8,-4,-20,-20,-5,-2,-1,-48
1523149620858197,-11,5,29,13,0,-2,-3,-8
1523149620858197,-6,-11,-52,-21,-5,-6,-9,-22
1523149620859200,16,9,36,6,4,2,7,28
1523149620859200,-8,-8,-21,-7,-4,-1,7,-16
1523149620872231,3,1,8,-1,-2,-3,-8,7
1523149620872231,-1,-1,12,3,2,0,6,-23
1523149620873235,-9,-3,-11,6,1,-1,0,-1
1523149620873235,-1,-3,-12,-14,-4,-2,-6,3
1523149620895295,31,8,15,9,2,3,-1,26
1523149620895295,-2,-1,2,-9,-1,4,12,14
1523149620896298,-2,-4,-17,-2,-2,-5,-9,-19
1523149620896298,0,2,37,10,0,0,1,-3
1523149620917853,10,0,-17,-6,-3,-1,0,16
1523149620917853,-25,-7,-24,-5,-3,-5,-12,-21
1523149620918856,-7,1,10,3,1,2,5,-14
1523149620918856,-3,-1,2,-3,1,-1,-8,-9
1523149620932894,6,2,14,11,1,1,2,3
1523149620932894,12,0,3,-5,-2,0,-1,24
1523149620939912,-4,-5,-23,-10,-6,-3,5,-10
1523149620939912,0,1,-10,1,0,-2,-10,-6
1523149620955453,-8,3,25,6,2,0,2,19
1523149620955453,-7,-6,-8,-8,-4,-3,-4,-53
1523149620956457,-7,-5,-17,3,1,1,-7,-7
1523149620956457,0,1,1,-2,0,1,12,9
1523149620978014,10,1,6,1,-2,-4,-4,9
1523149620978014,1,5,19,1,-1,-1,7,24
1523149620979015,13,4,13,11,4,1,-9,8
1523149620979015,-35,-13,-28,-9,-4,-3,-6,-51
1523149620992554,5,-10,-64,-11,-5,-3,-2,-5
1523149620992554,12,6,56,9,0,1,-4,31
1523149620993055,-8,-2,-4,-8,-3,-1,-3,-35
1523149620993055,14,7,53,13,4,3,2,27
1523149621015616,2,0,-6,-3,-1,0,6,5
1523149621015616,-8,-7,-43,-10,-4,-2,-9,-5
1523149621016116,4,0,36,0,0,0,4,5
1523149621016116,-3,-1,6,-1,-1,-1,-1,3
1523149621038202,3,7,42,12,3,1,5,-14
1523149621038202,9,0,9,-15,0,0,7,23
1523149621038679,-1,-5,0,5,-1,0,-3,-3
1523149621038679,7,0,-8,0,-1,-1,6,28
1523149621052212,-23,-3,-3,-5,-4,-2,1,-25
1523149621052212,0,6,27,17,5,2,-4,9
1523149621053218,-16,-5,-28,-9,-2,-3,0,-44
1523149621053218,3,0,-8,-3,-2,1,-6,18
1523149621075773,18,1,-10,1,0,2,4,16
1523149621075773,4,0,25,4,-1,-1,-1,18
1523149621076274,-11,-5,-19,-8,-2,-3,-1,1
1523149621076274,0,-2,1,3,0,-2,-3,-14
1523149621097832,-2,-4,1,-8,-2,-2,0,13
1523149621097832,-4,12,-5,1,-1,-1,-5,-16
1523149621098836,-4,-19,24,0,0,1,4,3
1523149621098836,1,7,-34,-6,-2,-1,-5,-5
1523149621112371,29,-13,-17,-5,0,0,3,14
1523149621112371,-65,-3,-7,0,0,0,1,-10
1523149621113374,28,26,-5,0,2,-1,-8,-6
1523149621113374,-16,-36,20,2,-2,-2,4,-29
1523149621135432,11,-9,-15,-7,-4,-2,2,20
1523149621135432,18,6,3,6,0,-2,2,23
1523149621136435,-5,34,-20,-8,-4,-2,-10,-14
1523149621136435,-23,-14,-17,-2,1,-2,-4,-10
1523149621157995,13,3,-3,2,0,0,-5,-5
1523149621157995,18,-9,0,0,-1,1,0,-3
1523149621158997,-6,-3,-6,-1,-4,-2,2,17
1523149621158997,-13,16,9,0,-3,-1,-2,2
1523149621172531,9,-3,17,-1,1,1,-2,-23
1523149621172531,8,4,-11,0,-3,-1,-5,18
1523149621173034,2,-6,-9,-1,0,0,2,-6
1523149621173034,23,-3,11,1,-1,0,0,3
1523149621195592,-43,0,-12,0,-2,-1,-6,-11
1523149621195592,23,-1,-4,0,-1,1,2,-4
1523149621197098,-7,-16,-1,0,0,1,0,1
1523149621197098,-7,1,6,1,-1,-3,1,-1
1523149621218153,11,8,3,-1,-2,-3,-2,2
1523149621218153,2,2,-1,-1,2,1,2,-1
1523149621219656,-16,-10,5,-3,-4,-2,0,-1
1523149621219656,17,13,-8,0,1,0,3,14
1523149621231689,5,-3,1,-1,0,-1,0,7
1523149621231689,-45,-9,-7,1,1,-2,-6,-37
1523149621240718,2,-6,-27,-5,-1,-1,2,11
1523149621240718,4,5,3,-1,0,-2,0,7
1523149621255780,1,1,-21,-2,-2,-2,-2,-12
1523149621255780,7,-6,55,3,-5,-4,-7,0
1523149621257275,11,-2,-6,-3,-2,-3,17,36
1523149621257275,-21,-6,-21,-4,-1,-1,-10,-42
1523149621285852,-23,1,12,5,4,2,7,-24
1523149621285852,14,5,12,-3,3,2,1,12
1523149621287354,-5,-4,-2,-1,-4,-6,-8,-9
1523149621287354,11,9,25,-5,-3,0,2,22
1523149621291865,-6,-14,-36,-3,-5,-6,-8,-4
1523149621291865,5,4,24,12,4,5,6,7
1523149621300890,-3,-7,-87,-11,-2,1,-3,-6
1523149621300890,-11,7,15,5,1,-1,-3,-37
1523149621315433,-5,-16,-58,-8,-3,-5,-10,-21
1523149621315433,18,4,2,-7,-7,-5,-1,9
1523149621316933,-3,4,-1,7,1,0,-5,10
1523149621316933,-8,-2,36,4,2,3,8,-8
1523149621337992,-3,-6,-45,-10,-8,-4,-2,1
1523149621337992,11,3,5,7,0,-2,-1,21
1523149621339495,-4,-7,28,-5,-2,-2,-5,-31
1523149621339495,-14,-4,-24,-9,-5,-4,-2,-18
1523149621352028,6,16,84,14,6,6,7,16
1523149621352028,-3,-13,-78,-27,-8,-2,-4,-2
1523149621361056,4,2,33,11,1,-1,-1,3
1523149621361056,-9,-2,2,3,0,0,-2,8
1523149621375594,5,2,-17,-3,-1,0,3,11
1523149621375594,-2,-6,-10,-3,-1,-3,7,-5
1523149621377096,3,2,11,-3,0,1,-9,23
1523149621377096,-30,-9,-11,-4,-2,-2,4,-24
1523149621398150,1,11,66,19,7,4,-6,-4
1523149621398150,-6,-6,-33,-17,-4,-3,-4,-10
1523149621399655,1,-6,20,-5,-4,-4,2,7
1523149621399655,16,6,-19,12,3,1,-12,26
1523149621411688,-6,-4,79,-9,-5,-2,12,-2
1523149621411688,0,-2,4,-4,-1,0,-10,7
1523149621420712,-1,-4,-7,3,-2,1,20,-6
1523149621420712,-6,-2,-19,-7,1,-1,-7,-4
1523149621435749,2,4,-6,1,0,1,0,15
1523149621435749,-1,-4,-26,-1,-4,-3,-1,-15
1523149621437255,7,2,11,1,-1,-1,-4,13
1523149621437255,7,2,31,1,-2,-1,1,11
1523149621458398,-3,1,-25,0,4,2,1,-27
1523149621458398,-18,-3,24,4,-2,-2,-4,-15
1523149621459899,-8,-1,-22,-8,-3,-2,-5,-14
1523149621459899,14,-1,-1,3,-1,0,-3,17
1523149621471929,3,-4,-19,-5,-4,-3,3,16
1523149621471929,-1,-1,-3,4,1,-2,1,-1
1523149621480954,-3,3,20,1,1,3,-1,-11
1523149621480954,11,-3,-17,-4,-2,-1,-1,5
1523149621495494,-6,-2,12,-4,-4,-5,-9,-4
1523149621495494,5,4,-16,8,1,-1,6,-2
1523149621502009,8,0,-13,-3,1,2,2,36
1523149621502009,-31,-10,1,-12,-4,-5,0,-33
1523149621518141,4,1,-14,1,0,0,-4,4
1523149621518141,-1,-2,6,4,3,1,4,16
1523149621519643,-10,0,18,2,-2,-1,-8,-20
1523149621519643,13,1,-14,0,-2,-1,1,17
1523149621531674,1,-2,5,-5,-4,-4,-2,-4
1523149621531674,20,2,17,4,1,0,3,35
1523149621540698,-19,-7,-4,1,0,-1,-4,-32
1523149621540698,1,-4,-15,-3,-3,-2,0,0
1523149621563322,-4,0,-17,-3,-1,2,-1,1
1523149621563322,16,0,16,-1,1,1,1,8
1523149621564830,2,1,-9,-2,-2,-3,-4,-11
1523149621564830,-8,-13,2,-4,-4,-3,1,-3
1523149621578364,4,-1,-2,1,1,2,1,5
1523149621578364,17,9,-27,-6,-3,-3,-3,12
1523149621579868,-18,-5,6,-1,-3,-2,-4,-40
1523149621579868,14,7,22,2,1,-1,-1,18
1523149621591903,0,0,-8,-1,-2,-2,-3,5
1523149621591903,-1,9,24,0,1,1,-1,-15
1523149621600923,-43,-13,-50,-3,-1,-3,-1,-9
1523149621600923,22,1,8,1,-1,1,1,5
1523149621615465,-15,-4,8,-2,-1,-1,-2,1
1523149621615465,-16,-3,-3,1,-2,-2,0,-12
1523149621616967,42,19,33,2,-1,0,-1,11
1523149621616967,-12,-10,-13,-2,0,-1,-1,4
1523149621638029,3,-9,-17,-5,0,-4,-2,-7
1523149621638029,-21,-6,-6,1,1,0,-2,-13
1523149621639527,0,4,-4,3,2,2,0,6
1523149621639527,13,3,-11,1,-2,3,11,7
1523149621652060,7,0,-38,-5,-3,-2,-1,-8
1523149621652060,-3,-11,26,4,3,2,-1,18
1523149621660581,-2,-1,-29,-2,1,1,3,-28
1523149621660581,-30,-7,-50,-8,-4,-6,-9,-28
1523149621675668,-9,-4,22,-2,-4,-3,-3,-4
1523149621675668,1,0,-5,0,1,-1,1,-2
1523149621677127,9,-5,-1,-2,-1,0,8,31
1523149621677127,12,4,44,5,2,2,-3,25
1523149621698315,-16,-2,-10,-4,-4,-5,-14,-56
1523149621698315,-7,-1,-12,2,0,-1,5,-5
1523149621699813,11,4,36,0,0,1,1,29
1523149621699813,-2,0,-12,1,-2,-3,2,-10
1523149621711967,1,1,-5,0,-4,-2,-3,24
1523149621711967,4,0,10,1,-1,0,-6,-17
1523149621720987,5,-2,28,-1,1,0,4,27
1523149621720987,11,7,8,2,-3,2,7,16
1523149621735525,-24,-3,8,3,-2,-2,-5,-32
1523149621735525,-8,-11,-47,-8,-3,-2,6,-49
1523149621737028,-4,8,105,9,2,-4,-16,6
1523149621737028,1,-17,-38,0,-2,-3,-5,11
1523149621758194,11,9,19,-5,0,-2,-26,1
1523149621758194,4,2,9,1,0,6,28,21
1523149621759698,4,14,-25,11,2,5,16,21
1523149621759698,-10,-18,-27,-16,-6,-4,-2,-42
1523149621780753,8,10,15,14,5,5,14,11
1523149621780753,-6,-15,-52,-18,-9,-6,-30,14
1523149621782261,-6,-4,-12,5,-2,-4,-7,-60
1523149621782261,-7,9,9,-5,1,0,-9,18
1523149621795442,6,3,-57,3,1,1,6,-5
1523149621795442,-6,-4,14,5,0,-1,3,1
1523149621797385,12,1,13,1,-1,-3,-3,14
1523149621797385,9,6,-12,-7,0,3,4,26
1523149621817992,-11,-3,30,4,0,-2,-3,-19
1523149621817992,2,0,-22,-8,-4,-5,-6,-4
1523149621819946,-4,-8,-12,-5,-3,-1,5,0
1523149621819946,5,3,20,7,1,1,-2,4
1523149621840513,-9,-1,-14,-3,0,1,6,-4
1523149621840513,-7,-4,-37,-8,-3,-4,-13,-10
1523149621842012,-6,-10,-30,-5,-3,0,6,-2
1523149621842012,6,9,26,2,0,-5,-7,14
1523149621855539,-6,-3,-1,-4,-1,0,12,-23
1523149621855539,7,2,16,3,0,2,-8,9
1523149621857046,-22,-9,-21,-9,-5,-6,-11,-16
1523149621857046,8,9,36,17,5,1,4,6
1523149621878662,3,-9,-31,-20,-4,-2,-5,22
1523149621878662,-7,4,29,11,0,0,4,-15
1523149621884178,11,-5,-54,-12,-4,-2,0,23
1523149621884178,-3,2,40,0,0,-1,0,-3
1523149621900708,5,-1,-9,-1,0,0,0,6
1523149621900708,-20,4,28,1,0,-3,2,-19
1523149621902167,2,-4,-10,-6,-2,-2,-10,-1
1523149621902167,-3,3,45,2,-2,-1,0,-1
1523149621915201,1,-4,-16,0,-2,-2,-2,-13
1523149621915201,3,5,48,1,1,2,-6,-3
1523149621921718,-9,-9,-79,-5,-2,-4,-1,-17
1523149621921718,5,1,11,-1,0,0,1,11
1523149621938280,17,0,-48,-4,2,4,22,43
1523149621938280,-29,-6,15,5,-1,-1,-3,-19
1523149621939764,-12,1,33,0,2,-1,-13,-35
1523149621939764,-6,-3,-29,-2,-2,-3,-3,-11
1523149621960820,11,1,17,2,-2,-3,-7,31
1523149621960820,6,7,10,4,2,4,12,5
1523149621962325,-3,-18,8,-1,-1,0,5,13
1523149621962325,0,0,-20,-3,-1,2,1,0
1523149621975033,-3,0,32,3,-1,-2,-7,-16
1523149621975033,-1,-2,-18,-4,1,-3,-5,-3
1523149621981548,10,10,49,6,0,3,2,12
1523149621981548,-3,-6,-39,-14,-3,-2,-7,-23
1523149621998098,-2,-4,14,2,-1,-2,-8,9
1523149621998098,5,5,17,3,2,1,20,6
1523149621999539,0,-1,-12,-1,-1,-1,-1,4
1523149621999539,-1,1,-2,4,1,-1,-5,-13
1523149622020768,-15,-7,-27,-18,-6,-4,-5,-6
1523149622020768,6,2,21,1,-3,-1,-8,-7
1523149622022213,5,8,5,3,1,1,3,21
1523149622022213,-6,-7,-11,1,0,0,-1,-31
1523149622034805,-1,0,27,4,1,0,0,-4
1523149622034805,3,-11,-61,-3,-3,0,-4,10
1523149622041826,-1,3,6,-2,-3,-3,-2,-2
1523149622041826,7,11,36,3,2,2,3,6
1523149622058314,2,0,-30,0,-3,0,4,27
1523149622058314,-10,-13,-9,-3,-1,-4,-8,-44
1523149622059814,-1,1,3,-2,-2,-3,1,0
1523149622059814,27,-1,-13,-4,-4,-4,-2,11
1523149622080870,-25,2,47,6,4,1,-5,-16
1523149622080870,-27,0,3,1,-2,-1,10,1
1523149622082373,12,-3,-11,-1,-2,0,-8,-10
1523149622082373,-34,4,17,1,-4,-3,7,-10
1523149622094907,12,46,-15,-1,0,1,3,12
1523149622094907,-6,-54,26,-4,-3,-3,-12,-3
1523149622101925,-9,5,-31,2,1,0,-2,-11
1523149622101925,14,27,-53,-3,-2,-1,2,11
1523149622118509,-16,-46,-17,2,-1,0,-2,-9
1523149622118509,-6,-11,17,-5,-4,-5,-4,7
1523149622119975,-1,6,24,0,-1,-1,1,-2
1523149622119975,8,-7,-1,0,-2,-2,-2,1
1523149622140528,4,22,8,-1,-2,-1,0,-3
1523149622140528,33,18,-37,-2,2,0,-1,17
1523149622142033,-9,-19,8,-3,-3,2,3,-4
1523149622142033,1,4,8,-1,-1,-3,-4,-2
1523149622155072,-6,-10,-13,0,0,-3,-1,-8
1523149622155072,-3,6,-8,0,1,3,1,9
1523149622162085,2,14,5,1,-6,-5,-7,-4
1523149622162085,-9,-8,-13,-2,0,3,-1,-1
1523149622178127,1,-11,26,-2,-3,-2,5,7
1523149622178127,12,16,53,9,2,-1,-5,3
1523149622179632,-7,-12,-64,-11,-4,-4,2,7
1523149622179632,-8,-9,14,-1,1,0,1,-9
1523149622200686,-9,-23,-23,-9,-7,-7,-4,-12
1523149622200686,13,27,26,7,4,2,0,10
1523149622202192,-3,-4,-28,1,2,2,0,4
1523149622202192,-11,-16,-23,-11,-6,-2,-2,-7
1523149622214725,7,7,11,0,1,-1,-2,-4
1523149622214725,1,8,-19,1,-1,-1,-2,2
1523149622221743,-5,-5,11,-6,0,0,-7,-5
1523149622221743,2,-2,15,10,2,0,14,10
1523149622238024,12,2,-10,-3,0,1,3,13
1523149622238024,-1,-5,9,2,-5,-5,-13,10
1523149622239791,-13,-2,42,3,3,-1,12,-59
1523149622239791,-8,-11,13,3,0,-1,-10,-2
1523149622260916,6,3,33,13,1,0,0,5
1523149622260916,-2,-3,-87,-14,-1,0,4,10
1523149622262386,9,-17,41,4,2,3,1,24
1523149622262386,1,-2,-25,-3,-2,-4,-6,18
1523149622274471,-35,-15,11,5,1,-2,0,-53
1523149622274471,7,-1,-29,-19,-3,-1,-14,2
1523149622283407,12,12,-3,-1,-2,-1,11,14
1523149622283407,1,-6,-17,-4,-2,-3,-5,10
1523149622298195,-6,-1,8,5,1,0,-10,-10
1523149622298195,11,5,12,-4,-1,1,12,75
1523149622299594,-34,-10,-39,-1,-3,-7,-20,-102
1523149622299594,12,5,56,16,4,1,4,18
1523149622320708,5,5,-7,-9,-4,-3,-3,10
1523149622320708,-14,5,1,3,-2,-2,-2,-35
1523149622322154,8,-1,27,1,1,4,8,42
1523149622322154,-3,2,-4,-8,-1,0,-13,-14
1523149622334237,-6,-5,-26,1,0,-3,-3,-47
1523149622334237,9,7,35,13,2,0,6,11
1523149622343210,7,-3,-23,-19,-7,-5,-6,7
1523149622343210,0,12,-23,-1,-1,1,-1,8
1523149622358251,5,-8,29,-4,-3,2,6,-20
1523149622358251,13,-7,2,5,-2,-3,1,20
1523149622359754,-22,6,-2,-2,1,-2,-8,3
1523149622359754,-15,-8,14,0,1,0,-6,-19
1523149622380811,17,7,-5,-7,-4,0,10,44
1523149622380811,-4,-7,3,-5,-3,-2,-3,-25
1523149622382315,14,1,-27,-1,-1,0,1,27
1523149622382315,-7,-4,-16,-12,-2,0,-12,-15
1523149622394348,6,3,10,11,3,2,16,19
1523149622394348,0,9,84,18,6,6,2,-12
1523149622403372,-10,-26,-20,-16,-11,-9,-7,10
1523149622403372,2,-2,-2,-2,0,0,3,-7
1523149622417965,7,9,2,4,-1,2,-6,13
1523149622417965,-16,-18,44,6,1,0,4,-22
1523149622419918,4,8,-6,0,-1,-1,-4,1
1523149622419918,0,0,-5,0,-2,-2,6,13
1523149622440471,-7,-2,9,1,-2,-1,-3,-24
1523149622440471,-10,-6,-32,-10,-4,-4,0,4
1523149622441973,12,8,25,8,4,1,-4,-13
1523149622441973,-7,-11,-3,-8,-6,-5,-2,-6
1523149622454506,5,0,-86,-4,2,-1,4,27
1523149622454506,-1,2,3,-2,-1,-2,-5,-16
1523149622463028,3,5,-19,3,5,4,2,2
1523149622463028,2,0,5,-6,-6,-3,13,7
1523149622478229,-3,-1,10,-4,-2,-2,-11,-7
1523149622478229,5,4,-39,-2,-2,1,-3,-11
1523149622479682,3,4,32,8,-1,1,15,39
1523149622479682,-22,2,-1,1,2,-2,-12,-65
1523149622500418,28,-5,28,-5,-3,-2,-4,13
1523149622500418,-23,-3,-17,-2,-3,-2,0,-2
1523149622502418,16,2,26,3,-3,-3,-7,17
1523149622502418,4,1,-15,1,-1,-2,2,9
1523149622514453,-10,-13,28,-1,1,-1,1,-3
1523149622514453,8,7,17,-2,0,0,-3,-3
1523149622522974,14,-11,-48,-5,-4,-2,-1,3
1523149622522974,-27,-9,0,-2,-1,-1,-3,-16
1523149622538070,-2,10,15,3,1,1,-2,3
1523149622538070,17,-8,-37,-12,-6,-5,-1,24
1523149622539518,-26,-1,3,1,-1,-1,-2,-25
1523149622539518,13,4,-5,4,0,-1,-1,18
1523149622560576,-7,0,-3,-2,-2,-1,-3,-13
1523149622560576,-9,-18,-23,0,1,-1,2,-5
1523149622562078,-12,-2,-10,-2,-3,-2,-1,-3
1523149622562078,20,5,-19,2,0,-2,-4,0
1523149622574112,-7,-9,16,1,0,0,-2,9
1523149622574112,4,-9,56,1,-2,-3,0,-7
1523149622583134,-11,-2,-24,-6,-1,-1,-3,-9
1523149622583134,-1,11,26,4,-1,1,5,10
1523149622598224,28,35,-11,-1,-1,-2,0,10
1523149622598224,-24,-40,-22,-1,1,0,0,-10
1523149622599680,-60,-16,-11,4,4,2,-2,-12
1523149622599680,22,8,69,35,-2,0,0,7
1523149622620733,11,3,-37,-33,-5,-6,-4,-9
1523149622620733,6,48,26,2,0,0,-2,-4
1523149622622239,17,14,49,15,6,2,0,7
1523149622622239,9,-8,-13,24,-1,-1,-1,5
1523149622634269,-26,-12,-39,-25,-6,-2,-4,-5
1523149622634269,3,-3,11,-21,-2,-2,-1,3
1523149622643294,19,-2,-3,0,-3,1,0,2
1523149622643294,-13,9,3,2,-1,-3,-1,-1
1523149622658338,-1,0,7,15,-2,0,-2,5
1523149622658338,-6,-3,-31,-7,0,-1,-1,-4
1523149622659838,9,5,21,9,2,2,3,0
1523149622659838,-7,-12,-9,-24,-1,0,-5,-3
1523149622680854,-6,-9,-5,6,-1,-1,-2,0
1523149622680854,4,-7,18,11,0,-3,-5,1
1523149622682142,6,8,-41,-5,-3,-1,-3,-4
1523149622682142,0,-4,-2,-12,-2,-1,-1,2
1523149622703197,-4,-6,-20,5,2,2,-1,1
1523149622703197,-8,3,-16,5,-2,-2,-3,-3
1523149622704702,4,0,-26,-8,-2,-1,0,2
1523149622704702,-1,-10,0,-14,-1,1,0,1
1523149622718239,-4,-6,-23,7,0,-1,0,-3
1523149622718239,-4,-2,-62,-5,-2,-1,-3,-1
1523149622719742,3,0,19,-6,-2,-1,4,18
1523149622719742,1,-2,-5,-1,0,-1,-3,-28
1523149622740800,-3,7,40,6,-3,-2,-1,-1
1523149622740800,5,4,5,0,-1,-2,-7,7
1523149622742302,4,-7,-4,-6,-3,-1,13,-2
1523149622742302,16,8,-4,2,4,1,4,29
1523149622763098,-23,-1,14,-6,2,3,-2,-23
1523149622763098,-16,-13,-17,0,-4,-5,-4,-27
1523149622764890,10,4,-14,-8,-3,-4,-10,15
1523149622764890,13,-9,-35,-3,1,2,7,26
1523149622777924,7,1,24,5,2,-1,2,-17
1523149622777924,-8,1,35,5,2,1,-2,-23
1523149622780051,1,-4,0,-1,-2,-2,-6,-8
1523149622780051,-6,1,-6,-3,-2,0,5,32
1523149622800692,9,-5,8,0,-4,-5,-5,-1
1523149622800692,-2,-6,-27,-7,-4,-1,0,16
1523149622802533,-5,-4,15,-13,-5,-4,-2,-21
1523149622802533,-14,-3,-7,-8,-3,-1,-1,4
1523149622823045,4,0,-70,9,2,1,3,25
1523149622823045,-7,-9,13,0,-3,-2,-11,-43
1523149622825050,17,7,8,4,2,5,11,20
1523149622825050,8,1,-12,-3,0,0,1,-13
1523149622837582,-46,-6,55,3,-4,-6,-7,-6
1523149622837582,16,7,-52,-6,-3,-2,1,-13
1523149622844556,-3,9,22,5,3,1,-3,14
1523149622844556,-3,-9,-8,-9,-5,-4,-5,-33
1523149622860407,21,13,68,8,3,4,5,60
1523149622860407,7,-4,-71,-13,-5,-1,1,25
1523149622861908,-20,-1,15,10,1,-3,-7,-2
1523149622861908,-10,-2,19,-4,-2,-6,-5,-51
1523149622882462,-14,-14,-21,-11,-4,-3,-5,-17
1523149622882462,9,10,43,4,1,0,8,31
1523149622890487,13,3,40,3,1,3,5,-4
1523149622890487,4,-1,40,2,0,0,-2,19
1523149622897744,-2,-13,-82,-6,0,-1,2,-10
1523149622897744,6,11,28,18,6,7,3,3
1523149622904521,-4,-7,-29,-19,-7,-4,-7,-19
1523149622904521,-8,1,24,5,0,0,-6,7
1523149622920832,7,3,-4,-6,-2,-2,10,-24
1523149622920832,0,3,91,6,-1,1,3,33
1523149622922299,-17,-12,-71,-7,-4,-7,-14,-56
1523149622922299,-7,-3,-8,-3,1,3,5,14
1523149622942852,9,0,5,3,1,2,1,4
1523149622942852,22,6,-24,-3,3,4,4,31
1523149622944858,-25,-2,78,7,0,1,-2,-26
1523149622944858,-13,-10,-47,-11,-6,-6,-12,-4
1523149622957415,4,-5,11,-1,-2,-1,-1,9
1523149622957415,-13,-7,16,1,3,0,1,-21
1523149622964421,16,4,9,6,2,0,0,20
1523149622964421,3,8,-9,3,1,2,5,-4
1523149622980694,-6,-10,53,-8,-10,-7,-6,2
1523149622980694,15,3,-18,-1,-1,-3,-6,-8
1523149622982558,-22,-2,-2,-7,-2,0,6,-1
1523149622982558,2,0,-14,3,1,1,10,17
1523149623003252,3,4,-38,-6,-2,-4,-8,-27
1523149623003252,-1,-1,23,1,0,0,-1,-9
1523149623004515,10,2,8,2,2,1,-1,28
1523149623004515,-28,-7,-2,-5,-4,-5,-3,-58
1523149623017790,14,5,-12,4,1,1,0,20
1523149623017790,-10,-4,0,-6,-6,-7,-4,-16
1523149623024109,9,-3,11,5,0,1,2,21
1523149623024109,7,0,-10,-2,-3,-3,-4,20
1523149623040629,-4,-10,41,2,3,2,-1,-20
1523149623040629,-7,-2,-3,2,-1,0,1,-5
1523149623042122,11,2,-8,-2,-3,-3,0,7
1523149623042122,-12,1,-67,-8,-3,-1,-6,-11
1523149623063179,9,0,21,1,1,-1,-4,-12
1523149623063179,-12,11,-33,-1,1,0,3,1
1523149623064678,-7,-21,9,-9,-7,-7,-8,-3
1523149623064678,3,-8,-46,-1,2,1,4,-4
1523149623077209,-16,5,-30,3,3,4,5,18
1523149623077209,38,-2,-9,-5,-1,0,3,2
1523149623084471,5,7,-29,0,-1,-1,0,20
1523149623084471,-9,5,40,1,-3,-6,-11,-50
1523149623100272,-3,1,20,1,-3,0,-2,1
1523149623100272,3,4,-4,-3,-4,0,0,1
1523149623102277,-27,-15,-2,-2,3,2,1,-9
1523149623102277,31,23,26,2,-1,0,-1,29
1523149623122832,2,-5,-20,-2,-2,-3,-2,-5
1523149623122832,-13,-3,8,-4,-1,-3,-2,-12
1523149623124837,9,6,8,3,-1,-2,-3,-3
1523149623124837,17,10,114,9,3,2,2,7
1523149623137080,-23,-15,-47,-14,-2,-1,-1,-3
1523149623137080,11,13,31,15,-3,-1,0,10
1523149623145895,-13,-4,12,0,0,0,1,-13
1523149623145895,-6,-22,2,2,1,2,3,12
1523149623160485,14,18,20,3,1,2,1,2
1523149623160485,-9,-13,20,-3,-1,-1,2,11
1523149623161936,-5,-13,-106,-2,-1,-2,0,6
1523149623161936,-6,4,38,6,0,0,-1,-47
1523149623183232,13,13,10,-12,-2,-1,-1,10
1523149623183232,-9,-12,-27,-30,0,-1,1,10
1523149623184497,-3,7,-35,-4,-3,-3,-1,-8
1523149623184497,7,-8,-23,-6,-2,-1,0,34
1523149623197264,-23,-8,-4,2,-3,-3,-3,-25
1523149623197264,2,10,25,12,4,2,-3,0
1523149623205552,3,0,-4,-10,-4,-1,4,5
1523149623205552,-16,-16,-81,-5,0,-2,-3,9
1523149623220801,4,-3,-1,5,0,-2,-1,-5
1523149623220801,2,3,-15,0,1,0,1,8
1523149623222095,7,1,38,8,2,-1,-1,4
1523149623222095,-3,-3,-36,-1,-1,2,2,23
1523149623243205,-14,-5,28,-8,-3,-2,-1,-38
1523149623243205,-9,-5,5,-2,-4,-5,-7,-18
1523149623244655,12,12,57,15,5,0,-3,-11
1523149623244655,-4,-3,-28,-17,-8,-6,-3,-3
1523149623256689,6,-6,16,1,-2,-2,0,16
1523149623256689,6,12,27,5,2,2,1,8
1523149623265712,-10,1,88,8,-1,1,0,-15
1523149623265712,8,0,-54,-13,-5,-3,-4,3
1523149623280286,-4,-15,-7,10,1,1,5,14
1523149623280286,-5,-8,-14,-5,-3,-1,-5,-26
1523149623282470,-10,3,6,9,2,1,-3,-5
1523149623282470,16,8,11,-10,3,2,6,16
1523149623303382,-1,-3,-43,-3,-5,-5,-5,13
1523149623303382,-17,-6,-9,1,-2,-5,-2,-11
1523149623304816,1,-2,6,-4,0,1,0,-29
1523149623304816,-4,1,-36,4,3,3,1,-17
1523149623317065,14,5,-10,-7,-1,-2,-1,37
1523149623317065,-7,-9,-25,-1,-4,-3,0,-20
1523149623325872,6,3,57,1,-1,-1,-4,7
1523149623325872,-5,-4,-54,2,-2,-1,2,-2
1523149623340412,2,4,23,1,4,2,2,5
1523149623340412,4,-1,23,0,-2,0,2,29
1523149623341914,-3,-6,-25,-10,-3,-1,-2,-8
1523149623341914,4,3,110,6,0,-2,-1,1
1523149623363213,11,6,12,-1,0,-1,1,-13
1523149623363213,1,-3,-22,2,-1,-2,0,41
1523149623364977,-28,-8,-5,-9,-4,-4,-11,-87
1523149623364977,-1,-2,36,8,3,-3,-3,2
1523149623377057,11,4,15,9,4,3,1,22
1523149623377057,-3,-5,-31,-14,-3,-1,-3,-8
1523149623386056,18,-8,-13,2,-2,-3,2,41
1523149623386056,-6,2,38,5,-1,-1,0,-4
1523149623400570,-6,-4,8,3,-2,-3,-8,-19
1523149623400570,3,2,3,-2,-3,-2,5,12
1523149623402078,4,1,-61,1,5,3,-1,8
1523149623402078,-8,-3,39,-3,0,1,-2,-15
1523149623423214,-2,-6,-77,-2,-4,-3,-5,9
1523149623423214,-7,4,23,3,2,1,-2,-16
1523149623424719,7,0,-13,-5,-3,-2,2,19
1523149623424719,1,0,-6,2,-1,-1,-1,-5
1523149623436752,3,7,44,1,-2,1,2,2
1523149623436752,-12,1,-15,-2,1,4,1,-21
1523149623445774,1,2,0,1,-2,-4,-3,18
1523149623445774,-5,-6,2,-5,-3,-3,0,-33
1523149623460312,-16,0,10,1,0,-1,-6,-15
1523149623460312,0,0,8,0,2,-1,-1,0
1523149623462319,12,0,4,6,1,1,2,26
1523149623462319,-2,-1,5,6,3,2,0,11
1523149623483115,-1,-1,-18,-8,-2,-1,2,16
1523149623483115,1,3,41,9,-1,-1,-3,0
1523149623484930,0,-4,-56,-10,-4,-2,-2,-10
1523149623484930,-2,1,13,-2,-1,-2,-4,-1
1523149623505518,0,4,-7,4,4,4,3,-7
1523149623505518,7,5,38,10,2,-1,0,8
1523149623506990,-9,-10,-46,-19,-8,-7,-3,1
1523149623506990,-2,-1,7,-2,2,2,-1,-12
1523149623520764,-6,-3,10,0,0,0,-3,-10
1523149623520764,-1,-2,-20,-3,-1,-1,-1,-3
1523149623522030,7,4,43,-1,-1,1,1,1
1523149623522030,7,-2,-24,7,-1,-1,3,21
1523149623543085,10,-6,-33,-5,-4,-4,0,16
1523149623543085,-26,-8,38,-2,-1,-1,-6,-24
1523149623544591,-28,-8,-65,2,-1,-2,-7,-60
1523149623544591,4,6,44,5,1,2,-1,14
1523149623556623,1,-3,-30,-12,-5,-4,-3,-9
1523149623556623,9,0,24,-4,-2,-2,2,19
1523149623565645,6,2,48,4,2,0,4,16
1523149623565645,-9,1,3,0,-2,-1,-3,-12
1523149623580685,3,-1,2,0,0,-2,-1,-2
1523149623580685,11,-5,-43,-5,-4,-4,2,-2
1523149623582190,-19,1,24,1,0,1,-5,3
1523149623582190,-17,-6,15,-7,-5,-2,-5,-49
1523149623603019,-2,4,27,-6,1,0,1,4
1523149623603019,19,1,-19,-1,-1,0,-1,5
1523149623604792,-14,-4,5,0,1,-3,-5,10
1523149623604792,4,0,-42,-1,0,2,10,24
1523149623625581,-7,-12,7,-2,-5,-2,-6,-12
1523149623625581,-5,-4,-12,0,1,1,-2,-13
1523149623627351,32,12,7,-1,-2,0,4,30
1523149623627351,-18,2,-13,-4,-1,-2,-6,-16
1523149623640619,-28,-29,-35,-7,-4,-4,-3,-17
1523149623640619,13,2,-29,-2,0,-1,-3,-8
1523149623642389,14,3,29,3,2,2,4,4
1523149623642389,13,0,-6,-5,-4,-1,0,30
1523149623663408,4,0,24,4,0,2,2,6
1523149623663408,-23,-7,-13,-2,-1,-2,-4,-17
1523149623664709,7,5,-8,-1,1,2,3,16
1523149623664709,5,-1,9,19,-1,-3,-7,-4
1523149623685932,-12,0,-2,-1,1,0,-2,-28
1523149623685932,-3,1,-17,-2,-4,0,-3,2
1523149623687269,-1,-18,14,-4,-3,-2,1,-7
1523149623687269,2,-1,-12,-4,1,-1,-1,14
1523149623700822,12,16,17,20,1,-2,2,9
1523149623700822,-21,-22,-11,13,-3,-1,-2,-10
1523149623702309,-6,8,-5,-6,-2,-1,0,-20
1523149623702309,-1,-5,14,-9,-4,-4,-5,4
1523149623722812,3,-4,13,4,2,2,0,10
1523149623722812,5,9,9,3,2,0,2,3
1523149623724819,4,2,5,7,2,3,1,3
1523149623724819,-6,-9,-28,-11,-5,-3,-5,-4
1523149623744369,3,11,-17,-9,-3,-3,0,-6
1523149623744369,9,-2,-18,-5,-1,-3,-1,1
1523149623753391,-25,-2,-2,-2,-1,-3,-5,-12
1523149623753391,3,-1,11,-8,2,-1,6,3
1523149623759909,2,1,-13,12,0,1,-11,-16
1523149623759909,-3,-4,40,-34,-4,1,4,5
1523149623767084,8,0,0,1,-1,-2,3,10
1523149623767084,-2,3,2,1,0,0,-4,2
1523149623783756,0,1,67,0,0,0,8,3
1523149623783756,-13,-8,-10,4,-2,-4,-6,-7
1523149623785263,12,2,11,-5,-2,0,-4,3
1523149623785263,-10,-3,7,-3,0,-3,11,17
1523149623805873,1,-6,-33,-19,-8,-6,-29,-4
1523149623805873,11,6,-4,3,-3,2,19,26
1523149623806872,-14,-2,2,4,1,-4,-5,-37
1523149623806872,8,2,13,11,0,0,-4,-1
1523149623820142,-5,-3,-43,-16,7,1,4,2
1523149623820142,5,10,10,17,6,2,-3,10
1523149623826940,1,-22,-94,-32,-19,-6,-8,6
1523149623826940,1,4,36,10,13,1,5,-16
1523149623843247,-13,1,20,-1,-1,-4,1,2
1523149623843247,1,-1,0,4,-7,-5,-13,-13
1523149623844752,3,-6,11,2,5,3,14,10
1523149623844752,-3,0,-74,-9,-1,0,-10,-13
1523149623865546,-3,5,98,9,2,1,11,-2
1523149623865546,0,-3,-21,-13,-2,-3,-5,15
1523149623867312,3,1,56,12,-3,-4,-11,20
1523149623867312,-29,-3,-46,-6,0,1,15,-39
1523149623879845,1,-6,-24,-4,-7,-2,5,-5
1523149623879845,-1,-1,-23,-3,-1,-2,-16,4
1523149623887105,16,11,50,8,6,3,10,22
1523149623887105,5,-6,-32,1,-3,-1,-6,-9
1523149623903148,-5,-7,-45,-14,-10,-6,-8,-1
1523149623903148,-8,1,-5,3,0,0,3,-28
1523149623904911,3,1,-11,-3,3,3,3,7
1523149623904911,13,0,16,3,0,-3,-4,17
1523149623925894,2,2,-8,6,0,1,-3,-14
1523149623925894,-12,-9,-36,-11,-12,-3,-4,-7
1523149623927158,-1,4,51,5,7,-3,-38,-7
1523149623927158,7,3,22,-3,-1,6,51,30
1523149623939931,9,4,13,1,3,0,0,13
1523149623939931,-1,-7,-14,1,3,-1,-6,-23
1523149623946952,-29,1,9,1,-3,-3,-16,-62
1523149623946952,0,-5,14,1,-7,-1,8,-2
1523149623963456,14,7,3,6,6,1,7,25
1523149623963456,12,-3,27,-1,0,-3,4,25
1523149623964760,-10,0,17,0,-1,-1,7,-16
1523149623964760,1,-10,-58,-7,-11,-6,-23,2
1523149623985959,2,3,20,11,3,3,2,-8
1523149623985959,0,-1,-1,-17,9,4,9,10
1523149623987320,3,-1,7,2,0,-2,3,12
1523149623987320,-4,-1,1,-5,-2,-4,-17,-8
1523149624000086,-2,1,15,5,-12,-2,-5,2
1523149624000086,-13,5,30,10,2,-1,-14,-20
1523149624006659,4,-4,-34,-14,-6,-1,27,15
1523149624006659,-1,-2,-17,-3,3,-3,-8,-1
1523149624021960,5,1,6,-1,-7,1,0,22
1523149624021960,9,11,31,8,4,1,2,-20
1523149624030640,-11,-3,-12,4,-2,0,2,-6
1523149624030640,-30,-11,-18,1,-4,-4,-16,-30
1523149624045678,-8,-4,-51,-16,-1,-3,-6,-3
1523149624045678,8,4,4,5,-5,-1,5,18
1523149624047184,19,2,3,4,7,4,6,25
1523149624047184,16,6,50,0,8,3,-1,18
1523149624059955,-46,-11,-73,-4,0,-3,-5,-36
1523149624059955,-4,-10,-12,-2,-3,-3,7,0
1523149624066968,6,7,-28,1,-6,-2,-2,-7
1523149624066968,-1,0,47,-3,-17,-3,-6,9
1523149624083279,9,-32,2,5,21,2,7,-1
1523149624083279,-4,1,8,0,-1,0,-2,-6
1523149624084783,-1,-2,-35,-5,-2,-3,-1,18
1523149624084783,-10,5,26,0,-1,1,-7,8
1523149624105603,0,8,21,1,-5,-1,10,-17
1523149624105603,1,5,-18,-2,-7,-1,-1,4
1523149624107107,1,-9,27,5,11,3,1,4
1523149624107107,5,-22,-10,-4,0,-1,-4,5
1523149624119607,-6,3,-4,-6,-6,-1,-4,5
1523149624119607,9,0,-10,1,2,2,-1,-2
1523149624128201,-21,10,-4,-4,-4,-2,-5,1
1523149624128201,10,2,-26,-6,-4,-5,-4,-5
1523149624143239,-7,-5,13,1,0,2,-8,7
1523149624143239,-3,2,59,1,-2,-1,19,-18
1523149624144745,6,-7,-26,-7,-4,-3,-8,-2
1523149624144745,-3,6,17,0,-4,1,-1,-5
1523149624165932,30,11,-4,0,-1,-3,1,22
1523149624165932,-13,-30,12,-2,2,2,-2,11
1523149624167304,3,5,-9,2,2,2,-1,-6
1523149624167304,2,-18,-3,5,2,1,11,13
1523149624179606,-11,1,-3,-4,-7,-4,-13,-56
1523149624179606,0,8,7,3,1,3,10,3
1523149624188391,4,-2,-31,-5,-8,-3,-6,-10
1523149624188391,-1,9,-14,-1,3,0,-6,6
1523149624203304,-2,-13,17,1,1,-1,-11,4
1523149624203304,-7,-2,-22,-5,-5,-4,-4,-7
1523149624204562,-1,-7,14,0,-1,1,0,-9
1523149624204562,4,13,40,2,1,1,-3,-2
1523149624225857,-2,0,-27,-1,-1,2,9,7
1523149624225857,-11,0,-13,2,3,-3,-15,-9
1523149624227124,3,-1,-6,-2,-3,-6,1,2
1523149624227124,-1,2,17,0,-2,-2,-7,-3
1523149624239153,15,7,13,1,2,4,7,15
1523149624239153,13,0,-16,0,-2,1,-6,16
1523149624248178,-30,-5,-13,-7,-1,-2,7,-18
1523149624248178,-1,0,-15,-1,3,0,-4,-1
1523149624263456,-9,1,9,1,-5,-10,-12,-23
1523149624263456,18,19,24,18,-1,1,4,36
1523149624264777,14,-10,-11,-26,-4,4,6,-1
1523149624264777,-29,-18,-54,-8,-8,-5,8,-37
1523149624285578,9,11,26,10,3,3,2,36
1523149624285578,1,-1,12,-15,-1,-4,-11,-6
1523149624287338,16,3,-3,10,-5,-2,0,41
1523149624287338,-7,2,4,2,0,2,5,-27
1523149624299583,-17,-5,-12,-4,2,-3,-36,-34
1523149624299583,-1,4,-7,-3,-3,3,55,9
1523149624308394,15,9,22,9,5,5,10,12
1523149624308394,6,4,18,5,0,0,4,13
1523149624322932,-19,-23,-88,-32,-17,-11,-16,-7
1523149624322932,0,0,12,8,2,-2,-16,-29
1523149624324436,-4,-2,17,8,-1,-4,-10,16
1523149624324436,3,-1,2,2,4,0,-2,-8
1523149624345607,13,9,77,8,0,7,19,2
1523149624345607,3,-12,-54,-12,-4,-4,-9,42
1523149624347111,-12,-9,-16,-1,-5,-5,-1,-31
1523149624347111,-7,7,32,7,3,1,-15,-59
1523149624359378,15,4,4,-1,-4,1,17,46
1523149624359378,-8,-7,-44,-19,7,1,-7,-43
1523149624368167,19,2,37,17,6,2,4,7
1523149624368167,-42,-3,23,-3,-1,-3,-3,-21
1523149624383452,7,-2,-60,-14,-1,-3,-8,-8
1523149624383452,-8,-7,5,7,-6,-4,-6,10
1523149624385001,-3,9,9,3,4,3,-7,-52
1523149624385001,15,-8,-30,-5,-2,-2,0,20
1523149624405745,2,2,24,7,3,1,13,10
1523149624405745,-2,3,5,1,-3,-3,-10,15
1523149624407018,-9,-5,-10,-8,-4,-3,-8,-27
1523149624407018,19,12,17,2,4,5,2,32
1523149624419615,-4,1,7,8,0,-5,-1,9
1523149624419615,-6,-8,-40,-4,-3,-1,0,-34
1523149624428073,-12,3,5,-4,-4,-4,-5,4
1523149624428073,13,-4,11,0,4,1,-2,22
1523149624443322,6,-2,-8,-2,-2,0,0,-3
1523149624443322,-11,1,6,-2,2,-1,-8,-14
1523149624444617,5,0,-9,-1,-2,1,17,22
1523149624444617,8,4,-15,-6,-4,-1,-3,16
1523149624465905,-2,13,85,16,9,6,8,5
1523149624465905,-16,-26,-68,-21,-15,-11,-9,-23
1523149624467178,-5,-1,19,-2,0,-5,-25,-2
1523149624467178,12,-2,2,0,-2,0,28,27
1523149624479208,-6,-2,10,2,3,-1,0,-9
1523149624479208,-2,5,18,8,-1,3,-5,-1
1523149624487994,-8,-6,-36,-8,2,-1,-3,3
1523149624487994,1,-1,-3,-2,-3,-4,-8,-4
1523149624503326,-4,5,23,2,-4,-1,1,6
1523149624503326,-12,-13,-20,-21,0,0,3,-35
1523149624504799,8,-1,12,4,-6,-4,-9,5
1523149624504799,-2,2,10,0,-6,-4,6,6
1523149624525615,0,-1,-31,-6,-1,-2,2,-2
1523149624525615,0,5,63,13,11,6,-3,-5
1523149624527121,-1,2,8,0,0,1,7,6
1523149624527121,-4,-6,-45,-6,-4,-3,-7,-8
1523149624548178,-5,0,10,-1,-6,-7,-5,-7
1523149624548178,1,2,-1,2,-8,-1,-1,10
1523149624549943,-6,-3,-2,-1,-12,0,-10,-9
1523149624549943,5,8,-7,2,19,5,11,11
1523149624562981,1,-24,-18,-5,-2,-2,-5,-3
1523149624562981,5,6,1,6,3,2,6,15
1523149624564482,-1,-9,-39,-3,-7,-5,-3,4
1523149624564482,4,-16,40,0,-11,-1,-5,-4
1523149624585544,-8,-1,-9,1,6,2,-2,-5
1523149624585544,11,1,-2,-1,-4,-3,-4,23
1523149624587045,-1,2,7,0,4,0,11,16
1523149624587045,-16,29,0,-3,-2,-3,-12,-38
1523149624608155,17,-26,-12,-5,0,0,4,-6
1523149624608155,-6,-23,-35,1,-1,-4,-7,12
1523149624609603,-14,-2,-35,-6,1,-1,0,-33
1523149624609603,6,0,-28,-1,-2,-2,0,7
1523149624623139,-2,18,30,-1,-4,1,-5,-4
1523149624623139,-2,19,47,5,-1,0,0,-7
1523149624624644,5,-17,-62,-5,2,0,0,10
1523149624624644,-11,-19,-8,-5,-6,-4,-4,6
1523149624645758,-5,-2,-25,0,0,1,1,-5
1523149624645758,6,4,14,3,2,0,-4,5
1523149624647204,-3,10,18,-1,-2,0,4,-1
1523149624647204,-3,1,0,0,1,-1,-8,-3
1523149624668268,1,-3,5,2,1,1,18,18
1523149624668268,-5,8,19,-1,-14,-2,-7,-18
1523149624669764,2,-11,-45,-8,-1,-3,-6,5
1523149624669764,8,5,9,-1,0,2,12,1
1523149624683365,-4,5,5,2,1,-1,-8,-14
1523149624683365,-6,-2,-11,-6,-5,-3,-2,-14
1523149624684872,0,-6,30,2,-3,-1,4,9
1523149624684872,0,-5,1,-1,2,0,-9,3
1523149624705429,-5,4,-19,-2,-6,-4,-3,-6
1523149624705429,-2,0,16,2,3,-2,-9,-2
1523149624707436,4,4,91,6,2,3,13,4
1523149624707436,-5,-5,-32,-10,0,-1,-3,-2
1523149624728048,-8,1,51,-2,-5,0,-1,-8
1523149624728048,4,-1,-10,0,1,-1,-2,6
1523149624729493,0,5,54,0,1,-2,-5,-5
1523149624729493,-2,-3,-4,0,-6,-6,-5,1
1523149624742587,-3,-1,-19,-6,0,0,6,1
1523149624742587,3,0,-2,1,6,0,-1,1
1523149624749045,-2,7,36,4,3,2,4,4
1523149624749045,-4,-5,-39,1,-5,-3,9,-3
1523149624765647,-2,-2,-17,-8,-3,-3,-9,-7
1523149624765647,2,-2,-18,-5,3,0,2,1
1523149624767091,-14,-2,11,18,-2,-6,-21,-18
1523149624767091,6,-6,-7,5,-4,-1,9,4
1523149624788151,13,8,3,-29,4,-1,5,7
1523149624788151,-15,2,29,16,3,3,-2,-4
1523149624789652,-3,-11,-89,-60,-17,-11,-10,-3
1523149624789652,7,5,55,39,1,4,-4,7
1523149624802251,-5,5,16,99,31,7,7,-5
1523149624802251,5,-6,-5,-59,-9,-8,-38,-12
1523149624809262,-10,-6,-69,-96,-25,-6,36,-5
1523149624809262,-5,-1,28,32,-1,-6,-61,-8
1523149624825749,25,18,34,90,14,10,71,30
1523149624825749,-31,13,18,-43,13,6,-18,-7
1523149624827254,-21,-51,-15,-10,-13,-11,-10,6
1523149624827254,-10,3,15,-13,12,3,13,5
1523149624848307,13,-8,34,82,8,9,-39,-3
1523149624848307,1,-1,-33,71,-14,-6,43,6
1523149624849813,1,16,41,101,30,1,-2,6
1523149624849813,3,6,-20,-65,-24,-9,3,-11
1523149624862405,-15,-1,11,-46,-8,4,-14,-2
1523149624862405,7,-9,70,6,15,2,14,5
1523149624869378,8,14,-40,99,-25,3,-9,-5
1523149624869378,3,7,49,-14,27,4,14,-1
1523149624893100,-6,-3,-27,-42,-19,-12,-35,-22
1523149624893100,2,0,-21,-16,-5,-1,23,12
1523149624894546,11,7,26,9,4,0,5,-5
1523149624894546,-3,-1,19,44,0,0,-12,1
1523149624908140,-10,0,-40,-49,-19,-7,11,0
1523149624908140,7,2,-5,-5,-1,-5,-22,0
1523149624909588,4,9,70,85,16,6,-12,0
1523149624909588,-6,-14,-69,4,-14,-3,17,1
1523149624922620,14,-2,-24,-109,-7,-6,1,-12
1523149624922620,-39,-20,-47,35,-6,-2,30,0
1523149624929197,19,14,16,-6,12,6,-19,-13
1523149624929197,-1,6,65,14,6,4,10,16
1523149624945740,-7,-18,-102,-10,-18,-15,-6,-5
1523149624945740,0,2,24,15,0,-2,-12,-4
1523149624947186,0,6,19,-54,-2,3,8,5
1523149624947186,-3,-1,25,-17,-8,-1,-4,-9
1523149624967890,-6,-1,-38,1,9,4,3,9
1523149624967890,24,8,-6,-16,-9,0,3,42
1523149624969839,-30,-16,-1,-16,15,0,-9,-76
1523149624969839,10,-2,15,-5,-12,-6,-6,17
1523149624982532,-17,2,12,16,-5,-2,-5,-19
1523149624982532,14,1,24,0,2,-2,-6,7
1523149624988987,16,0,-8,-19,-10,-4,2,58
1523149624988987,-17,-4,-20,4,5,3,-2,-65
1523149625005590,0,-4,22,-11,0,-1,-2,11
1523149625005590,12,2,-9,3,-1,2,-11,-16
1523149625007036,-6,0,-3,-17,-1,-2,14,47
1523149625007036,3,-1,32,-10,-3,-6,-1,9
1523149625028241,-6,-17,-72,4,1,-1,-12,-22
1523149625028241,2,-3,5,0,-3,0,-2,-21
1523149625029685,8,2,-4,-3,4,7,15,-3
1523149625029685,10,-9,-22,-7,-2,-2,-7,46
1523149625041776,-34,4,44,8,-4,-2,-2,-36
1523149625041776,3,-4,-6,6,-1,-1,-4,-4
1523149625050737,2,0,-19,-14,1,-1,-12,0
1523149625050737,-1,-1,-17,-3,-1,-3,-7,10
1523149625065777,11,-6,17,1,-2,1,19,17
1523149625065777,-6,2,-21,-6,-4,-4,0,-9
1523149625067283,-7,3,1,-2,3,-1,-9,-11
1523149625067283,3,0,-32,-1,-2,0,1,-4
1523149625087837,5,0,29,2,-7,-3,-8,2
1523149625087837,-5,0,81,3,8,2,-4,2
1523149625089842,2,-7,-66,-5,-6,-4,-3,-10
1523149625089842,-1,14,-7,0,2,2,11,8
1523149625101903,-1,1,17,2,5,1,-12,5
1523149625101903,1,-2,-16,-3,-6,-2,8,5
1523149625110898,0,0,2,-4,0,-2,-9,12
1523149625110898,-4,-6,1,-4,1,-1,-1,-56
1523149625125505,3,4,5,3,-4,-4,-2,40
1523149625125505,-5,5,17,3,2,2,-9,-34
1523149625126940,-6,-9,-28,-15,-8,-5,-1,-13
1523149625126940,10,-6,-14,-1,-1,0,-5,22
1523149625148108,-42,-3,12,-1,0,-3,-1,-41
1523149625148108,10,-1,-13,5,4,1,1,17
1523149625149612,2,4,26,-1,2,2,3,3
1523149625149612,4,-6,-18,-7,-6,-1,3,18
1523149625161761,27,18,39,7,3,0,-11,11
1523149625161761,-13,-14,-85,-18,-5,-1,7,6
1523149625170669,-10,-3,10,3,-4,-2,-4,-17
1523149625170669,-2,3,5,2,-3,0,-4,-1
1523149625185357,2,-8,-16,3,4,0,10,-3
1523149625185357,2,6,20,7,-1,0,-10,-1
1523149625187363,0,-20,-71,-38,-11,-11,-24,-8
1523149625187363,1,-6,15,-1,-6,-4,20,28
1523149625208023,9,-1,19,-1,-2,-1,-2,22
1523149625208023,-33,-2,-4,7,3,0,2,-58
1523149625209951,13,16,59,8,3,7,8,11
1523149625209951,-10,-17,-56,-15,-7,-9,-24,-30
1523149625221453,21,3,-11,-1,2,2,9,46
1523149625221453,-11,-7,6,-5,-9,-5,-11,-18
1523149625230476,-8,10,49,15,5,4,5,-38
1523149625230476,-4,-3,-17,-4,0,0,-1,6
1523149625245623,8,-1,-2,-4,-2,0,-1,6
1523149625245623,1,-1,1,3,-2,-3,-4,12
1523149625247021,-2,4,7,0,4,0,12,15
1523149625247021,11,11,29,10,8,4,4,-3
1523149625268282,-18,-12,-22,-8,-19,-9,-16,-25
1523149625268282,11,-5,-23,-15,17,-1,2,24
1523149625269580,12,-7,14,8,3,4,8,27
1523149625269580,-18,-2,-11,-5,-4,0,-1,-39
1523149625282115,-8,4,7,-4,0,-1,-11,-9
1523149625282115,5,5,8,2,-6,-1,1,1
1523149625290638,-8,-6,-19,-4,-1,-4,-1,3
1523149625290638,1,9,46,9,4,-1,-9,5
1523149625305910,-5,-25,0,-4,2,3,12,3
1523149625305910,9,1,-3,3,-5,-2,0,7
1523149625307182,12,15,45,11,8,3,-3,12
1523149625307182,-26,-16,-46,-1,-4,-4,5,-30
1523149625328453,11,20,39,13,3,1,6,13
1523149625328453,-13,-31,-91,-37,-13,-12,-13,-29
1523149625329989,11,9,39,10,-3,2,6,6
1523149625329989,10,3,28,1,2,3,3,77
1523149625342026,-37,0,7,-1,-2,-4,-15,-96
1523149625342026,6,6,27,13,1,2,7,-3
1523149625351132,-6,-3,-37,-12,-3,-4,7,-16
1523149625351132,9,-2,-10,-3,-5,-2,-3,40
1523149625365778,9,1,-5,-4,-2,1,9,24
1523149625365778,2,-3,24,6,6,5,-7,1
1523149625367578,-14,-11,-29,-4,-7,-4,-11,-15
1523149625367578,5,-6,57,-3,-2,0,1,-3
1523149625387854,0,0,-52,-5,0,-2,-4,4
1523149625387854,5,-6,39,7,1,2,3,2
1523149625389859,-5,1,39,4,1,0,1,13
1523149625389859,-12,-12,-65,-6,0,-4,6,-11
1523149625402149,-3,5,11,-2,2,-1,-9,-55
1523149625402149,7,2,5,2,-2,2,7,31
1523149625410671,2,2,-14,-3,0,-1,-4,14
1523149625410671,-4,-2,30,2,3,4,8,-19
1523149625425903,6,5,47,-1,-5,-5,-11,10
1523149625425903,2,1,-85,-3,-4,0,7,17
1523149625427223,-22,-5,27,4,-1,0,-2,-9
1523149625427223,41,6,-14,2,2,0,-6,-25
1523149625448457,-21,-5,29,1,1,-1,0,16
1523149625448457,8,4,-16,0,-3,-4,2,0
1523149625450053,-19,3,-4,-9,-5,-4,-2,-11
1523149625450053,10,-15,-11,-1,-2,1,-6,-6
1523149625462056,-29,2,-3,-3,1,0,8,6
1523149625462056,5,9,25,3,2,0,-6,-6
1523149625470436,2,-17,-18,-6,-11,-5,-6,-10
1523149625470436,-3,11,7,3,11,3,6,7
1523149625485510,0,-9,-3,0,-2,0,-6,6
1523149625485510,6,12,-16,-6,-3,-2,0,-2
1523149625486985,4,5,-26,0,3,-1,7,3
1523149625486985,-16,-14,13,-1,-5,-2,-4,-13
1523149625508302,21,-2,-35,-3,-1,-1,-1,12
1523149625508302,-22,4,-18,3,3,1,-1,-1
1523149625510074,31,-6,8,-3,-7,-3,6,4
1523149625510074,-13,6,42,-1,-2,-1,-15,-17
1523149625530928,10,18,-41,1,1,1,20,8
1523149625530928,-4,-16,65,3,-6,-3,-2,7
1523149625532554,-6,-6,-35,-2,5,-1,-7,-10
1523149625532554,-9,7,-72,-5,-3,0,-3,-10
1523149625545901,20,3,3,-3,-1,0,-3,16
1523149625545901,-1,5,43,1,1,-1,-3,-14
1523149625547179,-8,10,-20,0,2,-2,-3,-2
1523149625547179,-2,-6,-18,-2,-2,-3,-7,0
1523149625568220,0,-4,2,0,-2,-1,-2,-5
1523149625568220,2,-4,-20,-5,-4,0,10,7
1523149625569489,-4,1,40,1,3,1,-7,6
1523149625569489,1,13,-35,4,-3,-4,3,-4
1523149625590545,9,-15,-26,-5,0,1,0,21
1523149625590545,-9,2,22,-2,-3,-4,-2,-42
1523149625592050,3,-1,-8,-1,-2,-4,-12,28
1523149625592050,-8,2,30,0,-16,-3,-5,-36
1523149625605820,1,1,6,0,3,-1,3,-1
1523149625605820,6,1,8,2,-2,0,4,17
1523149625607089,8,1,-37,0,2,2,4,20
1523149625607089,11,4,-4,-1,-2,-1,-1,25
1523149625628354,-32,-7,25,-3,-6,-4,-4,-64
1523149625628354,9,-1,-1,1,5,2,-4,7
1523149625629649,-2,3,10,4,-2,-1,-1,-8
1523149625629649,2,2,41,1,1,-2,-2,19
1523149625650694,14,0,3,-9,0,0,7,14
1523149625650694,-9,-9,-2,-3,-2,-3,-7,4
1523149625651972,2,3,-28,-1,-2,-1,1,-2
1523149625651972,0,0,9,4,4,-2,-8,7
1523149625664809,-3,7,4,12,3,0,-1,-21
1523149625664809,1,1,-18,-10,-3,2,-1,20
1523149625672000,-11,-28,-51,-8,-3,-4,3,-13
1523149625672000,-4,1,17,-2,0,0,0,6
1523149625695813,8,0,-24,-1,-1,-2,-4,23
1523149625695813,-5,5,12,5,1,-2,1,-51
1523149625697083,-11,4,39,-3,-1,-1,-10,-15
1523149625697083,-4,-3,21,4,1,-1,3,-11
1523149625710852,8,1,18,3,-1,2,9,30
1523149625710852,2,-6,-26,-9,-4,-2,-10,7
1523149625712122,-8,0,23,3,-2,-1,2,-15
1523149625712122,-5,-1,-10,-2,0,-4,-14,-5
1523149625724788,9,6,-31,-3,-6,1,8,14
1523149625724788,-1,1,22,-5,2,0,-1,3
1523149625731909,12,7,15,1,2,3,7,-6
1523149625731909,-16,-3,-20,7,1,-4,-5,9
1523149625748219,-20,-11,-11,-13,-6,-6,-7,-28
1523149625748219,2,-2,-39,-13,-3,-3,4,28
1523149625749723,7,1,26,7,-3,-2,-10,-23
1523149625749723,7,7,13,5,4,5,15,32
1523149625770928,-15,-3,32,3,3,-1,-11,-59
1523149625770928,1,-3,-9,-5,-13,-4,-4,-21
1523149625772283,9,3,5,2,21,5,9,55
1523149625772283,7,4,27,-2,-1,0,-6,18
1523149625784816,-10,-3,-6,-2,-1,-3,-11,-14
1523149625784816,1,16,49,23,5,1,4,2
1523149625791835,4,-30,-87,-27,-16,-7,-8,17
1523149625791835,-12,-7,-9,-8,0,0,-5,-44
1523149625808459,9,0,14,10,7,3,40,77
1523149625808459,-24,1,10,5,-3,-5,-20,-47
1523149625810059,13,11,10,-1,-2,4,23,16
1523149625810059,18,2,-18,3,2,1,4,3
1523149625830911,-18,2,41,14,0,1,-11,-61
1523149625830911,-18,-28,-93,-37,-12,-9,-22,21
1523149625832407,-1,5,33,5,-2,0,21,-1
1523149625832407,9,9,3,-1,0,0,-12,7
1523149625844947,11,-19,-67,-18,-7,-4,-3,45
1523149625844947,-18,4,33,9,5,3,25,-56
1523149625851958,-6,9,21,5,2,-1,-18,-12
1523149625851958,1,2,-9,-3,-5,-2,-2,3
1523149625868435,16,3,-5,-11,-5,-1,4,27
1523149625868435,4,3,53,19,5,2,1,43
1523149625869825,-30,-16,-68,-17,-11,-10,-17,-76
1523149625869825,-3,-2,-22,-7,-1,0,7,4
1523149625890560,18,7,36,4,2,1,1,21
1523149625890560,6,-8,-33,-14,-6,-4,2,18
1523149625892385,3,3,23,6,-8,-3,-4,6
1523149625892385,-36,-1,36,5,21,6,1,-63
1523149625904918,0,-24,-55,-20,-5,-2,-8,-4
1523149625904918,15,15,9,5,2,6,18,10
1523149625912098,4,-4,-22,-7,-3,-4,-7,42
1523149625912098,-11,-5,-16,-5,-9,-5,5,-39
1523149625928196,6,11,42,9,2,0,-2,20
1523149625928196,3,-1,-13,1,1,-1,-2,-19
1523149625930094,-3,2,11,-1,-3,2,4,-11
1523149625930094,9,-5,-1,-6,0,2,9,24
1523149625950725,-9,4,39,24,4,0,-12,-22
1523149625950725,7,-9,-72,-22,-10,-4,-9,29
1523149625952043,3,3,48,4,-2,-2,-4,-3
1523149625952043,-11,-3,-26,-4,-7,-6,-6,-15
1523149625965078,-1,-4,10,1,2,0,3,3
1523149625965078,9,5,14,6,5,3,-2,16
1523149625971596,7,0,-10,-1,1,2,12,-18
1523149625971596,-18,-3,17,-2,-3,-4,-3,14
1523149625988141,-2,6,12,1,-3,-1,-11,-30
1523149625988141,3,-12,-26,1,-1,-3,8,14
1523149625989646,13,15,100,14,9,5,-2,27
1523149625989646,-14,-17,-36,-16,-15,-9,-1,-29
1523149626010760,1,1,21,0,-2,-3,-1,3
1523149626010760,-2,-4,-27,3,4,1,-2,-7
1523149626012205,-1,10,98,3,2,1,-5,4
1523149626012205,9,10,-12,-1,-1,3,6,11
1523149626024404,-4,-25,-31,-6,-2,1,-1,-8
1523149626024404,-5,10,24,3,0,-2,-18,-10
1523149626033382,-9,-8,-53,-3,0,-2,8,-7
1523149626033382,7,3,4,4,0,-2,-10,10
1523149626047986,-10,-7,-49,-5,-2,-1,8,-13
1523149626047986,8,-3,43,2,1,1,0,13
1523149626049426,-8,1,-41,-2,-2,-4,-4,-11
1523149626049426,9,9,0,-1,-2,-2,-3,0
1523149626070482,-8,-4,-40,-1,-1,0,-1,6
1523149626070482,13,12,19,2,-2,-1,5,-6
1523149626071984,-10,-1,-35,-7,-2,-2,-5,-9
1523149626071984,-5,-29,55,2,0,-2,7,7
1523149626084518,5,11,17,-1,-1,0,-1,1
1523149626084518,-18,-19,-38,-5,-3,0,0,-5
1523149626093041,5,-6,-14,-6,-4,-4,-9,-5
1523149626093041,5,8,42,4,2,1,2,4
1523149626108140,-6,-14,7,-1,-1,-1,10,4
1523149626108140,-2,9,38,1,-2,-2,-9,-9
1523149626109585,-5,2,-29,1,-1,0,0,-1
1523149626109585,-1,3,-48,-3,-3,-1,-3,0
1523149626130780,4,1,13,-1,-1,-2,-6,-2
1523149626130780,8,2,-6,-1,1,0,3,21
1523149626132235,-4,1,-13,-1,0,-2,-17,-27
1523149626132235,-10,6,78,8,3,3,14,-3
1523149626144365,-2,10,-53,-8,-3,-3,-10,-13
1523149626144365,-1,-2,42,3,-2,-1,1,1
1523149626153389,5,-9,-5,-1,0,-1,-3,5
1523149626153389,3,-1,-12,0,2,-1,9,6
1523149626168271,4,12,17,2,0,0,-4,3
1523149626168271,-7,-9,0,-2,0,-2,0,0
1523149626169569,0,-6,2,1,1,0,-2,-5
1523149626169569,7,-6,-45,0,-2,0,-3,14
1523149626190864,1,1,6,-2,-2,-3,-8,-1
1523149626190864,-1,2,-4,0,1,1,15,11
1523149626192130,-3,-6,-2,0,0,-2,3,3
1523149626192130,1,6,9,8,1,3,-6,-7
1523149626204161,-4,-11,-38,-16,-7,-7,-8,4
1523149626204161,-3,3,30,8,3,2,4,-11
1523149626212973,5,2,-21,-7,1,4,4,23
1523149626212973,-2,-7,-32,-2,-5,-6,-6,-22
1523149626228257,-8,-2,17,-3,-3,-6,-7,-25
1523149626228257,7,2,-11,-4,-1,-2,2,11
1523149626229517,8,13,103,22,6,4,8,-2
1523149626229517,-1,-27,-98,-36,-11,-6,-9,2
1523149626250817,2,3,53,11,0,-3,-10,5
1523149626250817,-5,2,30,1,0,1,9,1
1523149626252078,2,2,13,10,-1,-1,-6,9
1523149626252078,14,20,54,7,11,10,3,-25
1523149626264109,-13,-18,-57,-16,-11,-10,-9,-6
1523149626264109,-1,-1,-19,2,-2,-4,-7,-5
1523149626279388,2,5,-16,-4,-5,-1,7,7
1523149626279388,-3,-16,22,11,3,2,9,21
1523149626288173,-2,3,-4,-2,3,4,8,-4
1523149626288173,4,4,28,-1,-3,-1,-16,-8
1523149626289683,-8,-4,-28,-7,-3,-2,7,-4
1523149626289683,2,8,11,-1,-1,0,6,27
1523149626310944,-2,6,-6,1,2,5,3,-43
1523149626310944,-14,-9,-9,0,-1,0,-8,-5
1523149626312472,9,-3,-27,-8,-3,-2,-4,8
1523149626312472,-18,-3,-7,0,-2,-3,-12,-12
1523149626324506,1,1,14,7,3,1,7,32
1523149626324506,5,11,30,11,3,1,2,-16
1523149626333294,-15,-19,-65,-18,-10,-7,-9,-13
1523149626333294,9,-1,-21,-4,-4,-3,-8,1
1523149626348435,9,9,78,11,4,4,7,2
1523149626348435,-6,-6,-54,0,0,2,-2,51
1523149626349841,-10,-10,-30,-13,0,-2,-3,-45
1523149626349841,7,4,22,6,1,0,14,37
1523149626370588,-29,1,-16,-13,-3,-4,-11,-66
1523149626370588,-3,-9,-13,-3,-8,-8,-6,-17
1523149626371895,6,3,22,5,2,1,4,2
1523149626371895,3,3,-2,2,-1,-4,-4,5
1523149626384474,10,-2,31,10,6,3,3,35
1523149626384474,-2,-5,-27,-11,-4,-2,5,-13
1523149626393505,6,5,9,-1,0,-1,3,17
1523149626393505,-11,-7,-20,-4,0,0,-3,-28
1523149626408191,-20,1,-9,3,-2,-2,-3,1
1523149626408191,-3,-3,-10,-13,-3,-3,-11,-17
1523149626410059,1,7,59,17,3,-1,-5,1
1523149626410059,7,3,-67,-24,-7,-4,6,19
1523149626430714,21,-1,-27,-4,-1,1,1,42
1523149626430714,-13,4,16,2,1,-1,0,-33
1523149626432057,-11,2,27,11,4,3,0,-9
1523149626432057,-7,-20,-37,-18,-12,-10,-12,-8
1523149626453315,14,2,6,1,0,1,0,8
1523149626453315,7,8,37,11,5,4,7,58
1523149626454820,-10,-6,-33,-17,-5,0,-5,-48
1523149626454820,-5,1,29,6,-1,-3,-14,-17
1523149626468071,11,-1,-56,-1,-2,-2,18,22
1523149626468071,1,-5,4,1,1,-1,-2,4
1523149626469859,2,-4,18,2,0,1,2,34
1523149626469859,-10,2,23,7,5,2,2,-42
1523149626490914,3,-6,-19,-10,-3,-2,-8,25
1523149626490914,-5,3,17,3,0,1,-1,-41
1523149626492453,9,8,-25,-11,-5,-3,-1,30
1523149626492453,-4,-14,-5,5,2,-2,-4,-19
1523149626513160,-2,3,19,6,2,-1,3,3
1523149626513160,7,2,-9,-10,-5,-4,-4,9
1523149626514979,0,8,40,2,-2,-3,-3,-8
1523149626514979,-10,-10,-13,3,0,1,1,28
1523149626528195,0,-10,-15,-6,-3,-2,-4,0
1523149626528195,0,-11,-7,-4,-3,-6,-5,-51
1523149626530018,-20,-4,-12,1,-1,-2,0,7
1523149626530018,12,19,28,4,2,2,4,9
1523149626549760,-3,0,36,3,1,1,-3,-30
1523149626549760,-2,-11,-94,-15,-5,-3,-3,6
1523149626558094,7,-1,29,5,4,4,6,19
1523149626558094,-6,-5,8,1,-2,0,-2,-13
1523149626573315,0,-3,-5,1,0,-1,-14,-3
1523149626573315,9,4,-29,-1,-2,1,9,24
1523149626574638,-14,-15,-20,-6,-4,-3,-4,-25
1523149626574638,3,-2,9,1,1,0,-3,11
1523149626586670,6,13,4,-1,-4,-2,-2,12
1523149626586670,-37,2,34,5,3,2,-4,-49
1523149626595696,31,-4,-52,-3,-1,0,0,21
1523149626595696,-9,9,19,-2,-1,-1,-3,-18
1523149626610895,7,-14,9,1,-1,-1,0,1
1523149626610895,5,6,12,-5,-1,-1,0,0
1523149626612239,-9,-20,14,4,0,2,3,6
1523149626612239,4,9,79,3,0,-1,-1,8
1523149626633417,-3,6,-24,-4,-3,-1,6,-5
1523149626633417,-2,-9,2,-1,-1,-1,-8,0
1523149626634797,-7,1,-21,-4,-2,-5,1,0
1523149626634797,8,-2,7,-1,-2,0,6,14
1523149626647532,-13,-8,-22,-2,-3,-1,-2,-23
1523149626647532,5,1,11,2,-1,0,2,16
1523149626654495,-1,6,37,4,0,-3,-16,-7
1523149626654495,0,-3,-106,-5,-1,1,8,-6
1523149626670591,-3,5,36,2,0,0,-2,-5
1523149626670591,4,-6,28,-2,-3,-2,1,14
1523149626672398,0,2,-37,-3,-2,-2,-6,-11
1523149626672398,0,-2,13,1,1,1,-3,1
1523149626693651,-3,-1,33,0,2,1,6,-5
1523149626693651,5,-4,17,1,0,1,-9,3
1523149626695492,-7,1,17,1,-2,-3,-7,-12
1523149626695492,2,-1,-47,-2,-1,-2,5,12
1523149626707688,-3,-2,-23,-6,-5,-5,-2,-4
1523149626707688,0,1,-15,1,0,-1,-4,-5
1523149626714509,0,-1,-3,-1,0,-1,-1,-3
1523149626714509,0,3,15,2,-1,1,-7,-3
1523149626730751,-1,4,9,-1,3,1,12,3
1523149626730751,1,-5,-8,5,1,0,-3,1
1523149626732057,1,-1,50,-1,-4,-3,7,3
1523149626732057,8,-7,-16,-6,-5,-4,-3,10
1523149626753114,-21,-2,-13,-1,1,-2,-8,-48
1523149626753114,-10,1,13,3,3,1,-1,2
1523149626754618,3,2,11,8,1,2,9,-1
1523149626754618,7,5,17,2,1,0,-6,8
1523149626767720,19,13,100,14,2,3,8,23
1523149626767720,-5,-13,-89,-20,-8,-8,-3,24
1523149626774170,-7,-1,80,-17,-3,0,-3,-44
1523149626774170,-2,0,29,18,2,-1,-1,10
1523149626790712,-10,-9,-45,-12,-5,-3,-8,-6
1523149626790712,6,7,39,10,3,3,7,-7
1523149626792218,4,2,-42,5,2,0,-4,21
1523149626792218,-8,-13,-19,-15,-10,-7,-3,-4
1523149626813410,2,-1,-12,-5,0,2,3,-6
1523149626813410,13,6,23,5,0,0,-1,22
1523149626814778,-2,-22,-120,-23,-8,-6,-1,32
1523149626814778,-20,7,36,7,3,4,-1,-95
1523149626827492,2,9,39,17,5,5,-2,108
1523149626827492,-32,-32,-73,-31,-16,-14,-29,-119
1523149626835835,6,14,18,7,3,2,6,20
1523149626835835,21,6,-15,2,1,-1,2,33
1523149626850408,10,-2,-2,-2,0,-2,5,11
1523149626850408,8,8,19,4,4,4,4,17
1523149626852379,-5,0,24,-2,-1,0,0,-19
1523149626852379,-5,-7,-34,-4,-3,-1,-3,40
1523149626872979,3,4,11,8,2,2,-3,-66
1523149626872979,-5,4,27,3,0,1,3,5
1523149626874940,-15,-20,-126,-20,-11,-11,-14,-29
1523149626874940,-1,8,40,5,2,0,10,40
1523149626887500,4,-4,-41,-16,-1,-2,-3,1
1523149626887500,-1,-5,8,12,-5,-4,-1,-17
1523149626894491,4,8,38,12,4,3,5,-19
1523149626894491,7,-2,-14,-9,-1,0,-4,35
1523149626910591,-3,3,21,-1,0,0,-2,6
1523149626910591,-6,-8,-38,-13,-1,-2,2,-7
1523149626912039,17,6,19,7,2,2,7,26
1523149626912039,8,1,43,0,-2,0,-1,-6
1523149626933156,-14,-2,6,7,-2,-4,2,-3
1523149626933156,-12,0,-5,4,2,0,-2,-16
1523149626934596,-6,-11,-50,-21,-8,-5,-7,9
1523149626934596,18,1,14,2,0,-2,-2,12
1523149626946699,-4,-2,-13,-6,-3,-1,8,-28
1523149626946699,13,10,48,10,6,5,3,23
1523149626955653,-5,-3,15,10,2,3,3,1
1523149626955653,-8,-3,-70,-23,-4,1,0,-13
1523149626970692,-2,-9,-22,6,-7,-6,-11,2
1523149626970692,9,7,37,2,0,-1,3,24
1523149626972200,9,2,1,1,0,0,9,17
1523149626972200,-20,-1,17,-1,-1,-2,-2,-30
1523149626993280,-8,-6,-67,-5,-1,-2,-9,-53
1523149626993280,10,-4,53,1,4,1,3,19
1523149626994759,-1,14,42,8,2,2,-4,6
1523149626994759,-3,-9,35,3,-1,-4,-6,-6
1523149627006955,1,-3,-39,-12,-4,2,11,7
1523149627006955,-3,-1,-60,-3,-2,-2,-1,1
1523149627015432,-1,3,1,3,-2,-2,-6,-2
1523149627015432,-4,-2,8,0,-2,-2,-3,-9
1523149627030541,0,3,-7,0,-1,-2,-6,3
1523149627030541,0,4,23,-2,0,0,-2,2
1523149627031977,-9,-11,35,-1,0,0,3,-6
1523149627031977,-4,-4,10,-1,-1,-1,10,-9
1523149627053032,0,1,-53,-2,-2,-3,-4,7
1523149627053032,0,-12,-22,1,-3,0,-3,4
1523149627054539,-4,-4,-8,-4,-2,-3,-2,-14
1523149627054539,-7,1,-3,4,1,3,-5,-8
1523149627066630,5,-3,30,-4,-1,0,-2,7
1523149627066630,2,2,25,0,-1,-1,3,9
1523149627075594,-8,7,14,1,-2,-1,-5,-7
1523149627075594,3,-1,-21,-4,-3,-1,-1,-4
1523149627090630,0,-4,35,2,-2,-1,0,7
1523149627090630,0,6,-17,-3,-3,-1,-5,2
1523149627092137,-3,5,-3,4,2,2,-1,-4
1523149627092137,0,-1,84,-1,-3,-2,-2,-8
1523149627113260,3,3,-9,-2,-3,-2,-5,5
1523149627113260,-9,-2,17,-1,-1,-2,1,-3
1523149627114697,2,1,-8,1,-1,-3,-2,-2
1523149627114697,0,6,2,1,0,0,0,-3
1523149627126796,-2,-5,23,-3,-1,-3,-4,0
1523149627126796,0,2,26,0,0,0,4,4
1523149627135753,-3,3,-5,2,-1,1,-2,-6
1523149627135753,-2,2,-29,1,0,-1,-10,-3
1523149627150828,-2,-11,-2,-2,-2,-3,-2,2
1523149627150828,1,6,-8,-2,-2,0,5,-4
1523149627152296,-2,-9,2,-3,-3,-2,9,0
1523149627152296,-1,-2,-29,1,1,0,-3,-3
1523149627172850,-3,-2,12,-1,-1,0,-4,-5
1523149627172850,2,-3,-31,0,1,-1,-1,6
1523149627174856,12,3,36,3,-1,-1,-3,10
1523149627174856,-9,-7,-47,-2,-2,-3,-1,0
1523149627187074,-27,-4,-12,-4,-2,-4,-7,-47
1523149627187074,5,3,5,3,-1,-1,-4,4
1523149627195912,0,-12,-29,-5,-1,1,-1,-1
1523149627195912,14,4,40,3,1,0,6,24
1523149627210915,7,1,-20,2,0,1,1,9
1523149627210915,-4,-8,-13,-6,-2,-2,0,-8
1523149627212236,-8,-2,3,0,1,-1,-2,-1
1523149627212236,-5,-1,-4,-5,-3,-2,-5,-9
1523149627233291,5,1,9,-1,-3,-2,1,9
1523149627233291,0,1,6,-2,-1,-1,2,2
1523149627234796,-2,-2,-1,2,1,0,0,0
1523149627234796,-4,0,-19,-2,-3,-1,-3,-11
1523149627246828,0,3,-1,1,0,1,3,2
1523149627246828,1,-4,-19,-4,-3,-2,1,4
1523149627255851,-3,0,-4,-4,-2,-2,-14,-10
1523149627255851,-7,-6,-23,0,-2,-1,4,-9
1523149627270390,3,-4,0,-3,0,-2,-3,8
1523149627270390,-2,6,61,5,2,1,0,0
1523149627272396,-1,-3,-59,0,-2,1,0,-2
1523149627272396,7,-4,-30,-9,-3,-2,-1,9
1523149627293185,7,0,37,-1,-1,0,0,18
1523149627293185,-35,-5,-7,1,-2,-3,-10,-53
1523149627295005,2,0,19,-7,-1,0,0,2
1523149627295005,0,-1,45,9,0,0,-1,-6
1523149627307080,5,-1,-23,-4,-4,0,2,22
1523149627307080,9,4,-5,-2,1,1,4,17
1523149627316013,-3,0,-47,6,0,-2,-3,-10
1523149627316013,4,7,77,6,3,3,2,8
1523149627330206,0,-11,-44,-9,-7,-5,-5,4
1523149627330206,-26,-12,-46,-11,-7,-8,-11,-36
1523149627330550,13,5,19,6,1,3,11,24
1523149627330550,14,2,-15,2,1,0,-1,17
1523149627360832,-53,2,37,7,2,1,0,-49
1523149627360832,17,-3,-20,-8,-4,-1,-1,24
1523149627361132,4,-5,-6,-3,-2,-3,-2,4
1523149627361132,-2,6,-2,5,3,2,0,-1
1523149627375371,9,-5,-3,-11,-2,-2,-5,6
1523149627375371,1,-5,-45,-13,-7,-3,10,10
1523149627376172,-2,7,48,12,3,0,-2,0
1523149627376172,2,4,80,1,-2,-1,0,-8
1523149627390255,-2,-6,-10,-5,-3,-3,-7,-10
1523149627390255,14,8,26,9,4,4,6,10
1523149627390712,0,-13,-39,-14,-6,-7,-4,33
1523149627390712,-57,-5,-5,0,1,-3,-12,-58
1523149627412504,13,11,29,7,4,5,-4,-4
1523149627412504,13,-11,-39,-4,-3,-5,3,37
1523149627413271,-6,6,68,4,0,1,-1,-19
1523149627413271,17,-1,-52,-8,-2,-1,6,26
1523149627434827,-6,-5,-18,-5,-3,-5,-4,5
1523149627434827,0,5,24,11,2,2,-1,-19
1523149627435831,8,-1,-16,-3,-1,1,0,-1
1523149627435831,0,-5,13,0,-2,-3,-12,26
1523149627450065,-19,2,20,3,-1,-1,16,-69
1523149627450065,11,2,10,2,2,1,0,14
1523149627450871,9,-6,-15,-8,-4,-1,-1,0
1523149627450871,-21,-8,-6,-4,-2,-4,-2,2
1523149627472624,15,8,26,12,5,1,-3,-9
1523149627472624,8,4,42,2,-1,1,0,55
1523149627473430,-26,-10,-60,-22,-6,-4,-6,-105
1523149627473430,16,-3,-47,-6,-3,-3,1,13
1523149627495174,10,4,4,0,1,-1,0,28
1523149627495174,-6,0,62,3,-1,-1,-2,-4
1523149627495489,8,6,8,5,4,2,-1,27
1523149627495489,-4,-2,-6,2,-4,1,8,-17
1523149627510193,-4,-3,-29,-5,-3,-2,-3,7
1523149627510193,4,0,5,0,2,0,-4,-9
1523149627510530,-1,4,15,5,2,-2,-2,16
1523149627510530,0,1,21,-6,-1,-3,-2,-17
1523149627532613,4,-11,-32,-1,-1,-1,0,14
1523149627532613,-4,-3,-17,-2,-5,-4,-5,6
1523149627533090,-4,5,18,1,1,-3,0,-3
1523149627533090,0,-5,24,-2,0,-1,0,-8
1523149627554842,8,-3,-24,-3,-2,-1,-3,15
1523149627554842,-5,1,-9,0,0,0,-2,-19
1523149627555650,-8,-6,1,1,-1,-2,-1,-5
1523149627555650,10,6,3,2,1,1,1,3
1523149627569688,4,3,16,1,-3,-1,1,10
1523149627569688,-8,-18,-32,-6,-2,-3,-3,-17
1523149627570692,0,2,18,1,-2,-2,0,10
1523149627570692,-5,-3,-40,-3,1,0,0,-3
1523149627592444,-1,-1,13,-1,-2,0,-1,1
1523149627592444,-4,2,-5,-3,0,1,0,-7
1523149627593250,2,0,4,1,-1,0,-1,5
1523149627593250,0,-4,-17,-3,-2,-1,-2,-3
1523149627614807,-3,2,3,-2,-2,-2,-2,2
1523149627614807,2,10,44,6,1,1,0,-2
1523149627615808,-4,-10,57,-8,-4,-2,-5,-3
1523149627615808,2,5,-3,-1,2,3,6,-1
1523149627629847,0,-1,10,0,-1,-2,0,4
1523149627629847,1,0,25,2,-1,-1,2,-3
1523149627630348,-2,-4,-22,3,-1,0,-4,0
1523149627630348,0,0,-37,-2,-2,-2,0,-4
1523149627652604,4,8,76,7,2,0,3,8
1523149627652604,-2,-3,-25,-5,0,-3,-4,-6
1523149627652908,-1,2,13,1,-2,0,2,0
1523149627652908,0,-4,-5,-1,0,0,-3,0
1523149627676417,-2,0,-12,0,0,1,1,-8
1523149627676417,-2,-1,-9,-3,-3,-1,-7,-4
1523149627677419,1,0,-21,1,1,1,2,4
1523149627677419,-9,-3,-3,-2,-1,-4,-3,-9
1523149627689947,-5,-4,12,-3,-1,-1,-5,-3
1523149627689947,-2,-1,15,-3,-4,-4,8,-1
1523149627690753,-1,-6,2,-6,-4,-3,-10,-1
1523149627690753,6,3,-22,3,1,2,8,6
1523149627712669,0,2,68,2,-1,0,0,3
1523149627712669,-4,-5,-95,-8,-1,-1,-3,-6
1523149627713061,-3,-1,-5,0,0,-2,0,0
1523149627713061,1,3,46,0,-1,-1,-9,-4
1523149627735120,2,-5,-58,-4,-1,0,0,4
1523149627735120,-2,0,10,3,1,0,0,-4
1523149627735627,-1,-2,-12,-1,-1,0,1,-3
1523149627735627,1,-1,-6,-3,-2,-1,-5,0
1523149627749931,3,2,24,7,2,0,4,3
1523149627749931,-4,-5,-15,-9,-6,-4,-8,2
1523149627750706,0,1,-18,-1,5,1,-3,-3
1523149627750706,-2,-2,11,-1,-1,-1,9,5
1523149627772502,-1,-1,-40,-4,-4,-3,7,2
1523149627772502,-1,2,50,8,4,0,-4,-2
1523149627773503,-3,1,-27,-1,-2,-3,-2,-5
1523149627773503,0,-2,-23,-2,-3,-1,-3,7
1523149627803353,-1,1,24,-3,-3,-1,-4,-2
1523149627803353,2,0,1,2,1,0,3,-2
1523149627803847,-3,-2,-6,-4,-1,-2,-3,-1
1523149627803847,2,2,17,2,1,0,0,-3
1523149627810098,-2,-1,-23,0,0,0,-2,0
1523149627810098,-2,-4,-17,-10,-1,-1,0,-1
1523149627810366,4,9,55,15,3,2,3,2
1523149627810366,-7,-13,-77,-23,-7,-6,-8,-5
1523149627832424,-4,-6,-14,-6,-3,-4,-3,-1
1523149627832424,1,2,2,2,-2,1,0,1
1523149627833431,2,-1,9,1,0,0,2,2
1523149627833431,1,-1,10,0,-1,-2,0,-2
1523149627855148,-2,-2,-16,-3,-2,-2,-3,-1
1523149627855148,0,3,12,1,-1,0,0,-1
1523149627855485,0,0,9,4,0,0,1,-2
1523149627855485,0,-1,0,-8,-2,0,-1,-2
1523149627878461,-1,-1,-11,0,1,-1,0,-2
1523149627878461,3,4,17,7,2,0,0,0
1523149627878801,0,3,38,5,1,3,1,4
1523149627878801,-1,-3,-15,-2,-2,-3,-4,4
1523149627892572,0,0,4,-6,-1,0,-1,-4
1523149627892572,-4,-3,2,7,1,-1,-2,-2
1523149627893340,0,2,7,-2,1,1,3,0
1523149627893340,1,1,11,6,2,-2,-4,-4
1523149627915131,5,2,9,-2,-1,1,-5,7
1523149627915131,3,0,-5,-1,-2,-1,4,5
1523149627916022,-10,-6,-27,-8,-2,-2,1,-3
1523149627916022,8,6,30,6,1,2,3,39
1523149627930172,-20,-22,-83,-21,-11,-9,-13,-67
1523149627930172,4,2,0,0,1,2,-2,7
1523149627930939,12,-2,-10,-2,-3,-2,-2,41
1523149627930939,-22,-3,-7,0,0,-1,-4,-36
1523149627952732,18,10,61,8,3,3,6,37
1523149627952732,0,-4,-25,-8,-3,-1,-3,-3
1523149627952998,-7,-7,-54,-7,-3,-3,-1,-14
1523149627952998,17,8,65,8,1,2,6,18
1523149627975057,1,2,6,0,1,2,3,8
1523149627975057,-20,-8,1,-10,-6,-4,-5,-8
1523149627975559,3,5,7,5,1,1,-1,-27
1523149627975559,1,-1,67,-1,-3,1,-2,-4
1523149627989305,-1,1,24,11,3,0,-4,3
1523149627989305,-10,-7,-60,-16,-8,-5,-2,-6
1523149627997558,8,-1,-3,-2,-2,-3,3,23
1523149627997558,-2,-3,-2,3,-1,-1,-2,-9
1523149628012366,3,3,11,2,0,-1,-2,0
1523149628012366,12,1,5,3,3,5,5,19
1523149628012868,-17,-3,15,-2,-2,-1,-6,-25
1523149628012868,-7,-4,-46,-3,-2,-4,-9,-21
1523149628034672,3,-1,-16,-2,-1,-1,12,24
1523149628034672,3,0,10,4,1,-1,-8,-11
1523149628035682,-2,-4,-12,-4,-1,-2,3,-4
1523149628035682,1,3,-15,-3,0,-2,-2,-3
1523149628049413,-4,-3,-6,-4,-1,-2,-3,0
1523149628049413,-3,1,29,1,1,0,0,-9
1523149628057269,0,-1,-6,-4,-3,-3,1,-2
1523149628057269,2,-4,-74,-5,-1,0,-1,30
1523149628072505,-7,4,2,1,-1,-2,-2,-45
1523149628072505,-3,-7,-3,-1,-1,-2,0,0
1523149628073511,0,-7,-8,-2,0,-1,-4,2
1523149628073511,0,-1,-5,-1,-1,-1,2,-2
1523149628094831,-4,2,-11,-2,-2,0,0,7
1523149628094831,2,8,18,0,-1,-2,-1,-3
1523149628095833,-1,2,-4,-2,-2,0,-3,-1
1523149628095833,-4,1,0,1,-1,-1,0,-5
1523149628109582,0,-4,-4,0,2,3,-1,6
1523149628109582,1,-3,5,2,-2,-1,0,-4
1523149628117390,-1,-1,2,-3,-2,-4,-3,1
1523149628117390,-1,7,-4,1,-1,1,-2,-3
1523149628132665,0,-3,13,2,-1,-3,-4,3
1523149628132665,0,-2,-65,-4,0,1,5,3
1523149628132933,-1,-3,25,-2,-3,1,1,0
1523149628132933,3,-2,16,-1,-1,1,-1,-5
1523149628155214,-5,-1,-26,-3,-4,-3,-4,-5
1523149628155214,-1,5,75,4,-1,-1,2,4
1523149628155993,-2,-5,-3,-1,0,2,-1,-3
1523149628155993,1,-8,-61,-3,-2,-2,-1,-4
1523149628169028,4,5,95,6,3,3,0,6
1523149628169028,-2,-1,-60,-7,-5,-4,-4,-3
1523149628177551,-3,1,12,-2,0,-4,-1,1
1523149628177551,-1,0,21,0,-2,-2,-3,-3
1523149628192329,4,-1,-4,-1,1,0,-1,7
1523149628192329,5,-2,2,3,0,-2,-3,12
1523149628193093,-27,-2,-9,-1,-2,-2,-3,-44
1523149628193093,-3,-9,10,-4,-2,-3,3,2
1523149628215155,-3,-2,-23,-3,-1,0,-1,1
1523149628215155,9,0,10,-1,1,0,1,11
1523149628215417,10,1,-21,-1,0,2,-1,35
1523149628215417,-17,-3,12,3,1,-5,-5,-51
1523149628229193,3,2,-72,1,1,2,4,28
1523149628229193,7,-4,21,-4,-2,-3,1,-5
1523149628237714,-10,-2,16,4,1,-3,-6,-17
1523149628237714,10,6,48,4,3,4,1,14
1523149628252519,-12,-15,-43,-7,-5,-6,-8,-17
1523149628252519,-3,1,-4,1,-1,-2,-4,2
1523149628253278,13,-2,-24,-5,-1,-1,1,12
1523149628253278,3,2,31,4,2,-1,2,11
1523149628274834,-3,2,2,0,1,1,1,-2
1523149628274834,3,2,7,0,-1,0,0,2
1523149628275868,1,1,35,0,-3,-1,4,1
1523149628275868,-13,-5,-9,-6,-1,0,-10,-17
1523149628289557,2,-1,2,-3,1,1,8,-2
1523149628289557,-8,-9,-16,-7,-5,-4,-4,-13
1523149628297571,11,6,23,8,1,1,-4,15
1523149628297571,-8,-1,-22,-5,-1,0,7,-1
1523149628312109,0,-5,-16,-7,-3,-3,-4,-5
1523149628312109,-2,0,8,2,0,0,0,0
1523149628313112,5,-3,-10,-5,-2,-2,2,-1
1523149628313112,7,1,6,3,-2,0,0,20
1523149628334719,14,1,4,-1,1,2,1,45
1523149628334719,-43,-3,7,0,0,-1,-6,-81
1523149628335723,-1,-3,9,2,-1,-3,-7,-8
1523149628335723,8,5,-17,3,1,-2,-2,8
1523149628358281,-4,-15,-38,-20,-9,-6,-6,-7
1523149628358281,17,4,6,4,2,3,12,41
1523149628358783,-2,1,-2,-1,1,1,-3,26
1523149628358783,-12,-5,7,-3,-1,0,-1,-48
1523149628372558,5,6,11,8,0,-1,-8,4
1523149628372558,9,-1,-2,0,-3,0,0,12
1523149628373321,-23,-3,3,-5,-2,-3,-6,-37
1523149628373321,17,-7,-50,-9,-3,-3,9,35
1523149628395247,9,-1,9,-1,-2,-3,-7,20
1523149628395247,-35,2,22,7,1,0,-5,-74
1523149628395660,1,-8,-19,-12,-6,-6,-1,7
1523149628395660,2,0,-24,0,1,1,-3,5
1523149628418220,-3,4,7,0,2,1,5,-13
1523149628418220,10,-2,10,2,0,-1,-8,31
1523149628418722,2,6,37,8,3,4,3,1
1523149628418722,-7,-7,-21,-10,-8,-4,2,-9
1523149628432303,-2,-6,-31,-1,-2,-5,-11,-8
1523149628432303,14,5,24,6,2,3,12,47
1523149628433306,-24,-7,-42,-14,-4,-3,-2,-36
1523149628433306,4,2,23,7,2,0,-7,14
1523149628454788,-3,4,23,1,1,2,10,-7
1523149628454788,7,0,4,-3,-1,-3,-11,19
1523149628455595,10,0,-4,1,-1,1,6,13
1523149628455595,-12,-3,-1,-3,-3,-2,2,-17
1523149628478351,-4,5,21,4,3,1,0,-10
1523149628478351,-4,-4,-5,-11,-2,-2,-1,0
1523149628478656,4,-12,-53,-4,-7,-7,-5,9
1523149628478656,1,5,9,-1,1,0,-3,1
1523149628500458,0,2,11,1,1,0,-1,-7
1523149628500458,-2,3,10,5,1,2,14,9
1523149628501460,17,8,20,5,3,2,-4,-6
1523149628501460,-11,-10,28,-3,-3,-5,3,-13
1523149628514736,-2,2,-4,4,1,-1,-5,-34
1523149628514736,7,-5,-51,-9,-2,1,8,10
1523149628515739,5,0,35,0,-2,2,6,14
1523149628515739,9,1,24,5,1,1,-4,36
1523149628538420,-12,-3,-64,-5,-2,-1,5,-31
1523149628538420,-1,-5,10,-2,0,-4,-19,-13
1523149628538800,0,0,11,-2,-1,-1,3,-11
1523149628538800,4,3,2,0,1,1,0,8
1523149628552535,-4,0,83,0,-1,-1,3,10
1523149628552535,-5,-9,-60,-5,-3,-1,-2,-10
1523149628553519,-3,2,-8,3,1,-1,2,0
1523149628553519,-1,1,-6,-4,-2,-2,-5,-10
1523149628574940,0,0,20,2,-1,-1,-3,2
1523149628574940,10,3,6,-1,-2,-2,-1,-3
1523149628576020,-7,-3,0,-4,-3,-2,-4,28
1523149628576020,-22,-2,-10,1,0,-1,-4,-84
1523149628597956,3,-1,-11,0,-1,-1,-2,3
1523149628597956,4,14,15,1,-1,1,-2,3
1523149628598961,-1,-26,-86,-6,-2,-1,3,8
1523149628598961,13,1,-3,-1,-3,-1,-5,30
1523149628612504,-8,-2,0,-2,-2,-1,-3,-16
1523149628612504,-3,-1,4,-4,1,-1,6,-1
1523149628613004,5,10,29,2,0,2,-4,1
1523149628613004,-1,-2,-20,1,0,0,2,3
1523149628635057,4,-1,28,-1,-3,0,0,6
1523149628635057,-2,2,14,-1,-1,-2,-3,3
1523149628635559,-5,5,4,1,-1,0,-1,-14
1523149628635559,5,14,35,-2,1,0,1,11
1523149628658237,-5,-5,-30,-1,-1,-1,4,7
1523149628658237,-8,-23,27,1,0,-2,-9,-13
1523149628658739,-3,-6,6,-3,-2,-3,0,-8
1523149628658739,2,-2,-7,-1,-1,0,0,4
1523149628673780,2,14,19,2,0,0,-2,5
1523149628673780,-4,7,26,1,1,1,-4,-8
1523149628674782,0,-3,-5,-2,-2,-3,1,-4
1523149628674782,1,1,-22,-1,-1,-1,3,15
1523149628694943,-4,1,26,5,1,-1,-5,-6
1523149628694943,0,-4,-29,-4,-1,0,-3,0
1523149628695838,1,6,23,-1,-1,-3,4,-2
1523149628695838,-3,-7,-9,-2,-3,0,-1,-1
1523149628717897,-2,-5,-5,-1,-2,-3,-7,-2
1523149628717897,-1,-1,-4,3,-1,-1,6,-1
1523149628718901,0,8,-49,1,-1,0,-7,-4
1523149628718901,-6,-10,-1,0,-2,-2,-1,-1
1523149628732548,-2,-6,2,1,-3,-1,-10,-5
1523149628732548,3,5,-4,-7,0,2,12,12
1523149628732939,-4,-6,-7,0,-3,-7,-6,-8
1523149628732939,3,-2,21,4,1,1,6,3
1523149628754995,-1,-1,-20,-2,-2,0,-12,2
1523149628754995,1,5,25,6,1,0,2,-3
1523149628755498,-4,0,15,0,1,2,0,-5
1523149628755498,-5,-6,-22,-4,-4,-3,0,2
1523149628778665,0,1,24,2,-1,-2,11,2
1523149628778665,-1,1,-10,6,-1,-2,-13,-7
1523149628779581,3,0,7,-6,3,4,7,1
1523149628779581,-2,-3,11,9,-2,-4,-10,-7
1523149628792595,-3,-6,-22,-14,-3,-3,-8,2
1523149628792595,-3,-9,-46,-10,-7,-3,19,-4
1523149628793097,3,13,62,12,4,2,-8,-1
1523149628793097,-3,-10,-28,-10,-6,-3,2,-5
1523149628814654,3,5,24,11,7,3,-14,-2
1523149628814654,0,-1,25,-7,-4,-2,-2,24
1523149628815660,-10,-14,-67,-7,-2,-4,13,-25
1523149628815660,7,6,23,3,4,5,3,2
1523149628838325,16,-3,-15,-3,-2,1,-6,37
1523149628838325,-33,2,5,4,1,-1,-3,-72
1523149628838719,2,-4,22,-5,-4,-2,3,16
1523149628838719,9,7,26,7,3,-2,-9,14
1523149628852361,-11,-14,-75,-17,-9,-7,2,-17
1523149628852361,19,7,15,9,4,3,2,27
1523149628853283,2,-6,-34,-14,-7,-6,-10,9
1523149628853283,-8,1,15,7,2,-1,-1,-19
1523149628874815,3,5,29,4,1,2,3,-23
1523149628874815,-4,-3,-2,-2,-3,-3,-18,-5
1523149628875816,3,-1,12,4,0,-1,9,7
1523149628875816,21,6,4,-6,-2,0,3,38
1523149628898377,-50,-3,12,4,0,-2,1,-42
1523149628898377,-12,-13,-10,-8,-5,-7,-11,-16
1523149628898878,5,6,13,8,3,3,-11,-6
1523149628898878,7,0,-24,-3,-2,0,6,23
1523149628912521,-11,-7,-5,-6,-4,-3,14,-6
1523149628912521,11,6,36,7,1,1,1,6
1523149628912917,3,-1,-15,-5,-1,0,-3,50
1523149628912917,-9,-5,-6,1,0,-2,-7,-34
1523149628934975,12,1,-20,-1,1,-1,-2,22
1523149628934975,-11,0,15,3,-2,-3,-7,-37
1523149628935477,10,4,-8,-8,0,3,0,-4
1523149628935477,-6,-5,3,7,-3,-1,-5,20
1523149628958142,11,2,-16,-2,0,0,-1,-8
1523149628958142,-11,-5,-23,-6,-3,-1,15,9
1523149628958537,-1,1,46,5,1,-1,-10,-14
1523149628958537,-10,-4,-14,-8,-1,0,2,-14
1523149628971679,13,6,25,5,1,0,-5,16
1523149628971679,10,-4,-41,-5,-3,-2,-7,14
1523149628980106,-1,3,17,2,1,-1,-3,-12
1523149628980106,-3,-4,-9,-9,-4,-1,4,-4
1523149628995134,8,-4,-4,7,0,-6,1,3
1523149628995134,3,-2,8,0,0,2,1,21
1523149628995637,-12,-4,-28,-5,-3,-2,2,-29
1523149628995637,1,3,52,-1,-1,-2,-3,10
1523149629025781,0,-6,-46,-8,-1,2,-3,18
1523149629025781,6,-6,-70,-11,-3,-3,6,-7
1523149629026218,0,-2,21,1,-3,-4,-2,3
1523149629026218,-22,-5,-1,-3,-1,0,6,-24
1523149629031839,4,2,34,2,1,1,4,8
1523149629031839,15,6,-11,1,2,1,-9,16
1523149629039860,14,-3,-6,-3,-2,-2,-1,12
1523149629039860,-22,-7,-20,-5,-2,-4,-6,-28
1523149629054941,-1,2,10,2,-2,-2,3,2
1523149629054941,-1,21,23,0,1,0,-4,-2
1523149629055442,-3,-16,-73,-2,-2,-3,0,2
1523149629055442,3,2,44,2,-1,0,-10,2
1523149629078108,-7,-11,-78,-7,-3,-3,5,-21
1523149629078108,4,21,16,1,1,-1,-9,3
1523149629079004,-12,-15,29,1,1,0,12,2
1523149629079004,6,-3,-17,-3,-1,-2,-13,-3
1523149629091644,4,7,11,-2,-2,0,10,7
1523149629091644,-3,-12,0,2,-2,-1,-3,0
1523149629100059,-8,5,0,1,-1,0,1,-12
1523149629100059,6,-2,-17,-3,-2,-2,1,15
1523149629115109,0,5,15,-2,0,-2,-3,-3
1523149629115109,-5,-6,11,4,2,4,1,-12
1523149629115602,-3,3,4,-1,-2,2,2,-5
1523149629115602,1,-1,-8,-2,-1,-1,4,-3
1523149629138268,-3,4,9,1,-3,-4,-5,-6
1523149629138268,-5,-1,-12,-4,-2,-2,3,3
1523149629138664,-2,1,-7,-2,0,-2,-9,-1
1523149629138664,3,6,-8,0,0,0,6,0
1523149629151698,-1,-5,-14,1,1,2,-3,-5
1523149629151698,-1,7,17,-3,-2,-2,-11,7
1523149629159718,-2,2,11,4,2,0,9,-1
1523149629159718,-2,-1,3,-2,-5,-3,-6,-9
1523149629174759,-3,4,10,-3,-1,-3,1,4
1523149629174759,-1,-22,-14,-1,-1,-2,0,3
1523149629175762,-2,10,25,1,-1,0,-5,-5
1523149629175762,1,-13,-39,-2,0,-1,-5,-3
1523149629198064,-2,-2,-29,-3,-2,0,9,2
1523149629198064,-2,0,6,-3,-1,-2,-4,-10
1523149629198823,-1,-2,4,-2,-3,-3,-5,-4
1523149629198823,1,6,4,1,2,2,0,4
1523149629211857,0,-1,28,0,-1,1,0,0
1523149629211857,-2,-7,-12,-2,-2,-3,7,-4
1523149629220250,-1,-1,-9,-1,-1,-3,-23,1
1523149629220250,0,3,13,1,0,0,17,0
1523149629234698,-4,-4,37,-1,-1,-1,-3,-3
1523149629234698,0,-5,6,-2,-1,-2,3,-2
1523149629235702,-1,3,-1,3,-1,-1,-3,3
1523149629235702,3,5,15,3,1,1,8,3
1523149629258001,-1,-6,-3,-4,-2,0,4,0
1523149629258001,-1,-3,-7,-2,-1,-2,-7,-4
1523149629258764,-3,2,7,2,0,1,2,0
1523149629258764,3,0,20,-2,0,1,-2,2
1523149629271798,-14,-11,7,-3,-4,-5,-7,-17
1523149629271798,10,3,0,3,1,1,-1,3
1523149629279819,14,5,72,6,1,-1,7,47
1523149629279819,-20,-10,-59,-4,1,0,-5,-51
1523149629294889,4,7,11,2,1,3,-7,11
1523149629294889,-5,-11,-39,-14,-7,-6,-7,-4
1523149629295941,-3,-1,4,4,-1,0,15,-6
1523149629295941,17,2,19,-1,1,1,-3,27
1523149629318117,3,4,17,8,2,-1,3,3
1523149629318117,-7,0,-5,-2,-2,1,-5,-16
1523149629318924,7,1,-10,-1,3,0,-5,-1
1523149629318924,-6,-9,-41,-7,-5,-4,0,-1
1523149629340637,-1,0,10,-1,-1,-3,-11,-7
1523149629340637,3,5,32,4,1,1,14,11
1523149629341646,-6,-3,-10,4,-2,1,-4,-17
1523149629341646,-1,3,-35,-2,-1,-2,-4,1
1523149629355170,0,1,48,10,4,0,-3,-3
1523149629355170,4,0,-17,-3,2,1,13,11
1523149629355521,-13,-20,-73,-28,-11,-7,-9,-15
1523149629355521,-2,-2,-3,-7,-4,-1,6,3
1523149629378387,6,-1,-56,0,-2,-2,-7,15
1523149629378387,-5,-1,29,8,1,-2,-8,-9
1523149629378785,9,-1,-18,-1,1,1,6,9
1523149629378785,-14,5,48,10,0,-1,-4,-8
1523149629400344,-11,-9,-27,-17,-6,-4,-6,-10
1523149629400344,1,-2,-18,-4,-1,0,1,5
1523149629401345,1,6,8,6,1,-1,-8,-6
1523149629401345,16,4,75,3,1,1,3,18
1523149629414880,-12,-8,-19,0,-2,-3,-1,-7
1523149629414880,-5,-1,4,-1,-1,-1,-1,-7
1523149629415882,3,4,44,9,-1,-1,-6,-1
1523149629415882,7,4,-1,1,3,-1,-2,12
1523149629438097,-10,6,45,9,5,4,5,-20
1523149629438097,-13,-23,-56,-18,-15,-12,-10,2
1523149629438944,-2,7,66,3,3,1,1,16
1523149629438944,-3,-4,3,-3,-2,-3,-3,-38
1523149629459654,8,2,33,4,1,3,4,5
1523149629459654,6,5,8,9,2,1,-3,17
1523149629467525,-4,-2,-21,-9,-2,-3,1,-8
1523149629467525,-7,-4,-7,2,0,0,-7,7
1523149629474694,7,-3,-29,-8,-4,-1,3,-7
1523149629474694,-27,-4,13,4,1,-1,-9,-14
1523149629475542,-16,-1,-6,-3,0,-1,1,-15
1523149629475542,7,0,-25,0,2,2,20,20
1523149629498262,9,-3,-7,0,-3,-3,-5,4
1523149629498262,20,11,76,5,1,1,3,21
1523149629499102,-9,-12,-67,-8,-5,-6,-10,-21
1523149629499102,-2,-6,-3,-1,-2,-2,-1,21
1523149629520808,-3,2,20,0,1,-1,5,-27
1523149629520808,-2,-5,-5,-4,-3,0,-1,-5
1523149629521162,4,5,3,1,1,1,-6,-2
1523149629521162,3,-7,-9,-2,-3,0,-2,-6
1523149629534699,8,-10,-28,-10,-4,0,-2,31
1523149629534699,-15,14,25,7,2,2,-5,-34
1523149629535701,0,-11,38,1,-1,-1,0,-6
1523149629535701,-10,-14,-64,-11,-5,-6,-15,-11
1523149629558380,0,-9,-3,-2,2,-1,5,11
1523149629558380,6,0,-7,-5,-1,-3,8,11
1523149629558763,3,2,5,2,0,4,4,4
1523149629558763,-5,1,21,1,-1,-1,-6,3
1523149629580826,1,9,0,0,-1,-2,-1,-3
1523149629580826,2,-4,-14,-2,0,-2,3,11
1523149629581322,-3,-7,-7,-5,-3,-1,0,-5
1523149629581322,2,1,1,0,-1,1,-3,0
1523149629594859,-2,11,-16,0,1,1,-2,-5
1523149629594859,3,3,-8,-1,1,0,3,1
1523149629595372,-4,0,-1,1,-1,-3,1,4
1523149629595372,-1,-8,9,1,0,-1,-7,-7
1523149629618076,-1,5,7,-2,-1,0,1,4
1523149629618076,0,-2,-5,-2,-2,-1,-1,-5
1523149629618923,2,-4,25,1,0,0,-4,1
1523149629618923,1,2,-21,0,0,0,0,-4
1523149629640636,-2,10,-1,-3,-2,-2,-2,-2
1523149629640636,-1,-17,-7,0,-2,-1,-5,3
1523149629641483,-1,12,2,1,-1,1,2,0
1523149629641483,-1,11,56,3,1,-2,0,-2
1523149629655018,-7,-25,-58,-7,-4,-4,-21,-7
1523149629655018,1,-1,24,1,3,4,35,13
1523149629655521,0,2,-25,-4,-3,-3,-7,-3
1523149629655521,0,5,-2,1,-3,-2,2,-3
1523149629678236,-1,1,26,2,1,-1,-3,4
1523149629678236,1,1,11,-2,0,-1,-9,-1
1523149629679083,-2,-5,-32,-1,-1,0,9,-6
1523149629679083,1,5,28,-2,-3,-1,-10,9
1523149629700641,1,4,29,3,0,3,19,3
1523149629700641,1,-7,-52,-5,-6,-3,-11,-6
1523149629701142,-15,1,28,6,1,1,-4,-10
1523149629701142,2,-3,-28,-6,-4,-2,1,-6
1523149629714833,-2,-2,22,-2,-1,-2,1,0
1523149629714833,4,4,38,1,1,2,-5,6
1523149629715680,3,-9,-101,-5,-1,-1,-3,-1
1523149629715680,-2,3,40,-2,0,0,2,-2
1523149629738239,-4,-6,-30,1,-1,-4,0,4
1523149629738239,3,2,0,-7,-1,0,3,-2
1523149629738746,11,0,16,8,-2,-1,-1,46
1523149629738746,-18,-1,4,-1,1,0,-7,-68
1523149629760818,-15,-12,-9,3,-3,-4,-1,-21
1523149629760818,-1,-1,-30,-3,-3,-2,-12,-13
1523149629761301,8,4,21,-3,0,3,2,19
1523149629761301,10,1,-4,4,1,2,8,27
1523149629774838,3,2,18,0,-1,-1,5,17
1523149629774838,1,-1,-13,-4,-2,-5,-23,6
1523149629775339,-7,-3,10,-2,1,-3,20,-52
1523149629775339,-2,-5,-20,-9,-3,-1,1,19
1523149629798399,0,3,10,9,0,-1,-14,-31
1523149629798399,-2,-2,-25,2,-1,-2,-2,6
1523149629798901,9,-12,-61,-13,-4,-6,-12,12
1523149629798901,-3,0,42,6,-1,-1,6,0
1523149629820614,-4,0,-40,-7,-1,2,-6,1
1523149629820614,6,6,21,9,5,1,4,10
1523149629821617,-3,0,15,0,-3,-1,12,-8
1523149629821617,-1,0,9,0,0,-1,-3,-3
1523149629834996,-1,-5,-35,-14,-6,-1,-7,25
1523149629834996,-21,1,32,-1,1,3,9,-48
1523149629835499,-5,-4,-29,-3,-2,-3,-15,-11
1523149629835499,12,5,12,7,1,1,-12,20
1523149629858715,23,4,10,1,1,3,23,44
1523149629858715,-28,-12,-56,-27,-10,-8,-17,-56
1523149629859633,1,11,72,21,7,7,3,5
1523149629859633,2,-11,-73,-23,-7,-5,-3,6
1523149629888298,0,-4,-27,-7,-4,-3,-15,-4
1523149629888298,23,7,37,5,2,1,21,35
1523149629888640,-10,0,17,2,-1,0,2,-3
1523149629888640,-24,4,22,4,3,1,-6,-36
1523149629894318,3,-1,9,11,-1,-4,-2,1
1523149629894318,4,-5,-15,1,-2,0,-6,32
1523149629902336,-5,3,13,0,-1,2,3,-12
1523149629902336,9,2,-23,-8,-1,1,0,0
1523149629918314,-2,0,13,3,3,-1,-1,35
1523149629918314,4,-2,2,9,0,2,12,-13
1523149629918720,-15,1,27,1,2,-1,-5,-5
1523149629918720,-27,-10,-42,-4,-4,-5,-12,-54
1523149629940831,11,6,31,1,1,0,-5,-17
1523149629940831,14,-4,-22,-3,-4,-4,-3,39
1523149629941280,-13,6,45,3,1,2,-8,-17
1523149629941280,1,-12,-34,-1,-5,-4,4,16
1523149629954473,-8,-1,0,-5,-2,-1,-13,0
1523149629954473,3,4,25,8,1,-1,10,-31
1523149629962508,10,-1,-2,-5,-3,-3,5,19
1523149629962508,5,0,-56,-6,-2,-1,-8,10
1523149629978050,-16,-2,9,2,-1,2,15,-21
1523149629978050,-1,-7,-44,-1,-2,-1,-11,18
1523149629978897,5,-4,-9,-9,-4,-4,-12,-19
1523149629978897,-11,-5,-2,6,1,-1,12,-11
1523149630000455,6,1,9,-7,-1,-1,-5,-5
1523149630000455,-2,3,3,1,-1,-1,-3,6
1523149630001458,15,-2,-17,-7,-3,-2,1,23
1523149630001458,19,4,51,10,3,2,-2,11
1523149630014432,-17,0,4,-1,-3,-2,1,-3
1523149630014432,-6,0,-26,-1,1,0,-2,-22
1523149630022740,0,-4,-12,-5,-3,-3,-8,11
1523149630022740,7,11,102,7,0,-1,-4,-58
1523149630038392,0,-19,-82,-10,-3,-3,8,17
1523149630038392,-5,0,17,-1,1,-2,-10,-2
1523149630038784,19,-4,-3,-3,0,2,9,23
1523149630038784,7,2,3,-3,0,0,-5,28
1523149630060607,-29,10,5,2,0,-1,1,-30
1523149630060607,-3,-6,23,5,0,0,-7,-10
1523149630061344,-8,-30,-2,-2,-1,-2,-3,-9
1523149630061344,9,-12,20,-2,-1,-1,1,12
1523149630074509,17,9,2,-4,0,0,1,15
1523149630074509,-13,7,-4,-1,-2,-4,-9,-15
1523149630082400,-5,16,13,0,-2,-2,6,-25
1523149630082400,-2,-1,-21,-1,-2,1,6,30
1523149630098443,11,-14,19,3,1,4,17,7
1523149630098443,3,11,16,0,-2,-1,1,11
1523149630098943,-4,7,69,5,-1,-3,-6,-10
1523149630098943,-10,-23,-116,-11,-3,-2,-4,16
1523149630120859,5,1,6,-2,-1,-1,0,-10
1523149630120859,0,6,10,1,0,-2,-2,-9
1523149630121232,-8,-5,-26,-1,-1,-1,-10,4
1523149630121232,-2,-5,48,2,0,-2,9,9
1523149630134268,-1,5,43,2,0,-1,-6,-16
1523149630134268,-5,-18,-29,-5,-2,1,3,-1
1523149630142289,4,4,-34,-1,1,-1,-12,7
1523149630142289,-1,11,14,1,0,-1,15,1
1523149630165583,-3,-5,-8,-3,-1,-4,-12,2
1523149630165583,-1,-3,13,1,-2,0,5,-3
1523149630166588,2,3,-25,-2,2,2,4,2
1523149630166588,-4,2,1,1,0,1,-9,1
1523149630180835,-2,2,44,4,-2,0,8,-3
1523149630180835,1,0,-6,0,-4,-1,-1,7
1523149630181126,0,7,-10,-4,-3,-3,-1,-5
1523149630181126,-7,-19,41,0,1,0,-3,0
1523149630194192,0,-5,-18,-1,-1,-1,-3,-7
1523149630194192,9,26,-1,2,3,4,3,8
1523149630202715,9,-40,-9,-4,-3,0,4,31
1523149630202715,-55,4,13,-1,-3,-7,-14,-81
1523149630217963,7,2,-15,0,0,-1,-6,3
1523149630217963,2,-6,-9,0,-1,1,10,0
1523149630218758,10,16,7,-1,1,1,1,23
1523149630218758,17,8,-21,-1,0,2,0,22
1523149630240632,-6,-7,29,0,0,-3,8,12
1523149630240632,-9,-5,-6,-2,-3,-2,-18,-45
1523149630242534,-1,7,6,1,0,0,7,4
1523149630242534,9,-4,-26,-1,0,3,4,17
1523149630263156,-12,1,-11,-1,-3,-4,-14,-21
1523149630263156,6,-4,20,-2,0,-2,1,23
1523149630264543,-6,2,-17,0,0,-3,-6,-11
1523149630264543,4,2,-2,-3,-3,-3,1,-23
1523149630276935,10,8,23,9,2,3,4,11
1523149630276935,-9,-10,7,-18,-3,-1,-1,10
1523149630285487,-3,-9,-23,-5,-3,-4,-14,-25
1523149630285487,-8,9,32,4,4,2,13,9
1523149630299730,6,3,24,-3,0,5,18,13
1523149630299730,-1,-16,-55,-6,-5,-9,-7,7
1523149630308239,5,9,23,6,3,3,4,1
1523149630308239,-8,3,-1,1,-2,-3,-15,-4
1523149630323394,-14,1,13,-3,-2,0,-4,-26
1523149630323394,0,-7,-25,0,-2,0,-2,11
1523149630324782,7,3,-10,1,2,3,15,21
1523149630324782,17,8,32,2,1,2,1,15
1523149630336986,1,-1,-44,3,1,-1,-16,-13
1523149630336986,-3,-2,13,5,-3,-1,21,9
1523149630346030,0,-8,-57,-24,-7,-5,-2,-5
1523149630346030,13,7,22,3,2,3,1,37
1523149630360737,-41,-7,-5,-2,-1,-4,-13,-84
1523149630360737,7,2,14,1,2,1,-9,2
1523149630362073,1,6,15,2,0,-1,3,-6
1523149630362073,26,1,-15,1,0,2,5,33
1523149630382818,-24,-11,-37,-13,-9,-7,-9,22
1523149630382818,-10,2,22,7,2,-1,-6,-25
1523149630384824,-12,4,44,10,1,0,-2,-50
1523149630384824,4,-10,-64,-21,-8,-5,-9,6
1523149630396982,23,0,3,4,2,2,7,19
1523149630396982,1,4,19,1,0,0,1,11
1523149630405879,-5,7,45,17,2,2,0,9
1523149630405879,1,-13,-87,-23,-7,-3,-1,-7
1523149630420587,14,3,19,2,1,1,-1,39
1523149630420587,-25,-9,-70,-3,-5,-3,-5,-56
1523149630422490,8,2,14,5,1,0,-7,16
1523149630422490,-9,1,16,6,2,1,1,-7
1523149630443147,-3,-6,-1,-5,-4,-5,2,-16
1523149630443147,24,14,48,1,3,4,-3,46
1523149630444537,-23,-28,-84,-8,-9,-9,-9,-11
1523149630444537,-22,3,30,11,5,0,0,-53
1523149630457719,23,4,-4,-5,1,1,7,79
1523149630457719,2,6,39,12,4,3,-7,-54
1523149630464445,-1,-2,-16,-14,-4,-2,-4,2
1523149630464445,3,-7,-38,-4,-3,-2,-4,26
1523149630480842,10,7,11,5,3,6,18,-30
1523149630480842,24,3,19,3,0,0,8,78
1523149630482326,-56,-13,-36,-15,-6,-7,-14,-50
1523149630482326,-31,-1,20,5,-1,-3,-7,-91
1523149630503394,7,5,9,3,-2,-2,-8,5
1523149630503394,3,-2,-13,1,-1,0,2,0
1523149630504885,26,9,5,-4,3,5,10,33
1523149630504885,9,-2,21,17,2,-2,-7,29
1523149630517589,-6,-1,32,-4,-1,-1,-6,-22
1523149630517589,-11,-5,-7,-9,-3,-4,3,0
1523149630524293,2,2,9,2,0,1,-7,-6
1523149630524293,2,6,23,1,-2,1,5,14
1523149630540835,5,-2,-1,-2,-3,-1,-3,0
1523149630540835,-3,-5,-8,-2,-2,-1,-2,-5
1523149630542173,4,1,20,4,1,-1,1,0
1523149630542173,0,1,2,-6,-1,-1,-6,1
1523149630563395,-3,-1,-12,-3,-1,0,14,0
1523149630563395,-7,-5,24,2,-3,-3,-7,-6
1523149630564733,-2,-7,-80,-3,-2,-1,-2,-7
1523149630564733,6,-5,16,-9,-5,-4,12,24
1523149630577637,-4,14,-1,2,2,1,-9,-6
1523149630577637,-10,-30,-41,-9,-3,-1,-2,-9
1523149630584486,13,12,79,8,0,1,7,8
1523149630584486,-3,1,-66,-9,-3,1,-6,-5
1523149630600529,-8,-9,5,-2,-1,-2,-1,5
1523149630600529,-2,-18,-47,0,0,1,2,-3
1523149630602035,2,12,-9,1,0,1,-3,1
1523149630602035,0,-22,-1,-1,-3,-1,-3,3
1523149630623089,0,2,-4,0,-2,-3,0,-12
1523149630623089,4,19,-22,1,3,2,-1,25
1523149630624595,-3,-32,60,2,-2,-3,-2,-23
1523149630624595,2,46,18,0,1,-2,-6,18
1523149630637696,-9,-34,-30,0,-2,1,-10,-41
1523149630637696,3,10,25,-1,-1,2,10,-1
1523149630644315,-3,-17,-82,-6,-2,0,-4,3
1523149630644315,11,-9,17,1,-1,-3,10,22
1523149630660849,10,13,-2,2,1,0,-6,32
1523149630660849,-21,-4,5,-8,-5,-3,-12,-53
1523149630662194,3,5,11,-2,1,0,8,6
1523149630662194,5,2,11,-1,0,0,-2,-3
1523149630683249,-11,-1,-15,-4,-2,-3,-2,-6
1523149630683249,7,-3,3,0,-2,-1,5,12
1523149630684754,-1,9,60,-2,1,-3,-10,-1
1523149630684754,-6,-13,-50,0,-1,0,12,-5
1523149630696693,6,-2,34,0,-2,-2,0,9
1523149630696693,-2,7,24,-1,1,-3,-10,0
1523149630705739,-4,2,10,1,1,1,-1,-4
1523149630705739,-1,-1,21,-1,-3,-2,-6,2
1523149630720820,0,1,9,1,0,3,0,-4
1523149630720820,-1,-3,-23,-7,-4,-4,-4,9
1523149630722284,2,3,-8,-2,-2,-3,10,-10
1523149630722284,-14,-6,-3,1,1,-2,-9,-15
1523149630743338,3,4,-9,1,0,-1,-5,6
1523149630743338,-3,-1,15,0,0,-1,3,-1
1523149630744843,8,4,-13,-3,0,1,-2,19
1523149630744843,5,-1,-1,-4,-3,0,5,1
1523149630765586,-2,-2,13,0,-1,-1,-4,2
1523149630765586,6,-1,-28,-1,-1,-1,-5,-13
1523149630767089,-16,-5,-44,-5,1,1,1,-2
1523149630767089,2,-1,23,2,1,1,-4,1
1523149630780853,-1,-1,-28,-9,-4,-2,-4,-1
1523149630780853,-6,2,23,7,1,2,11,0
1523149630782319,7,5,7,-2,-1,1,6,7
1523149630782319,-7,-1,25,7,-2,-3,-16,20
1523149630803043,1,-1,-6,1,1,-4,-8,-14
1523149630803043,-4,3,12,-2,0,-2,-2,-15
1523149630804944,4,4,3,-7,-2,-1,-6,1
1523149630804944,4,-7,-40,-4,-5,-4,10,8
1523149630816997,-16,-7,12,4,-3,-4,-7,-2
1523149630816997,-2,2,-29,-1,2,2,3,7
1523149630825624,1,1,18,10,2,-1,-5,0
1523149630825624,21,9,21,1,4,5,5,14
1523149630840837,-3,-10,-52,-21,-7,-5,-2,0
1523149630840837,-7,5,41,12,4,3,-4,-29
1523149630842169,-11,-16,-51,-20,-8,-1,5,-5
1523149630842169,2,2,10,9,0,-3,-15,-4
1523149630863329,6,0,4,-2,-2,-2,4,-4
1523149630863329,1,0,14,-11,-2,-3,11,70
1523149630864728,3,5,0,8,0,-1,-5,-15
1523149630864728,0,2,20,1,0,1,1,-28
1523149630876933,-22,-5,6,1,2,-2,-12,-19
1523149630876933,-7,-2,17,4,-2,-2,-7,-3
1523149630885786,3,4,21,1,1,-1,-3,17
1523149630885786,2,0,-1,-1,1,2,5,-10
1523149630900324,11,10,38,10,2,1,9,33
1523149630900324,-6,-11,-51,-8,-6,-5,-13,-16
1523149630902329,-2,3,28,8,0,-2,24,-4
1523149630902329,4,-7,-46,-17,-5,-4,-10,30
1523149630923397,-15,1,19,12,3,4,23,-31
1523149630923397,-14,-2,14,-4,-2,-3,-13,-11
1523149630924890,9,8,38,19,3,3,0,17
1523149630924890,3,-5,-64,-28,-6,-4,-12,-6
1523149630936920,9,-4,-14,6,-1,-2,5,21
1523149630936920,-4,2,73,-7,-3,-2,-1,-43
1523149630945996,-7,-5,-34,0,-1,-1,-2,0
1523149630945996,-15,-4,15,9,3,-2,-11,3
1523149630968051,6,-1,-16,-9,-2,0,11,-15
1523149630968051,18,3,23,12,2,3,4,22
1523149630970009,0,-6,-45,-16,-2,2,-5,25
1523149630970009,-21,-3,50,4,-3,-5,-6,-62
1523149630983211,-1,-9,-48,-16,-7,-3,-3,-3
1523149630983211,7,4,-9,4,4,1,4,27
1523149630984728,-7,0,32,3,0,-2,-5,-19
1523149630984728,4,0,-5,3,1,1,7,7
1523149630997127,-1,-1,-10,-5,-3,-4,-11,-1
1523149630997127,5,4,4,0,-1,-1,5,1
1523149631005473,2,1,-14,0,0,-1,-4,9
1523149631005473,-10,-9,56,-11,-5,-5,1,-6
1523149631020683,0,-1,-59,4,4,2,-5,-2
1523149631020683,1,-4,20,-5,-5,-1,0,4
1523149631022016,-3,-2,18,-2,-1,-5,-10,-12
1523149631022016,-1,1,0,4,2,1,6,-5
1523149631043394,3,6,32,2,2,1,0,5
1523149631043394,-3,-7,-43,-7,-2,-2,-15,-7
1523149631044912,1,-4,-19,-6,-3,-1,7,1
1523149631044912,-3,3,6,7,2,3,2,-3
1523149631056970,-8,7,102,6,-2,1,-3,15
1523149631056970,-13,-13,-66,-11,-4,-3,-9,-38
1523149631065484,1,8,87,2,-2,-2,-2,-5
1523149631065484,5,-16,-87,-1,0,-1,0,31
1523149631080849,-3,-8,44,-3,-3,-2,-6,-34
1523149631080849,5,8,8,3,1,2,6,8
1523149631082218,2,-4,5,-3,-2,-1,0,-3
1523149631082218,-10,-2,-10,-1,-3,1,2,-13
1523149631103300,4,-6,-45,-2,1,-2,-6,20
1523149631103300,-3,2,3,0,-2,-3,-3,-23
1523149631104777,1,-1,-14,-5,-3,-2,0,-3
1523149631104777,3,-2,-13,-2,-3,-4,-3,1
1523149631116982,1,0,-4,-3,2,1,1,-2
1523149631116982,-2,-12,16,-1,0,0,-2,2
1523149631125855,-13,-11,13,1,-2,-4,-1,-1
1523149631125855,0,-6,9,0,0,-1,-2,-8
1523149631140565,6,-2,-4,-5,-2,-1,-5,5
1523149631140565,-1,2,-2,0,-1,0,7,10
1523149631142398,-4,9,-59,-2,0,-1,-7,-9
1523149631142398,0,1,33,3,-3,-1,5,1
1523149631162953,4,10,8,0,-1,1,-7,-3
1523149631162953,3,-3,-9,-1,-3,-2,4,7
1523149631164457,-3,-6,-1,-2,0,-1,-1,-4
1523149631164457,0,4,8,-1,-2,-1,-2,-3
1523149631185755,5,6,7,3,1,2,2,7
1523149631185755,7,9,18,1,2,2,0,6
1523149631187018,-9,-3,6,0,-1,-1,-9,-5
1523149631187018,-20,-2,-5,-2,-1,-2,-5,-30
1523149631199814,-3,2,26,1,-3,-2,6,2
1523149631199814,6,-6,0,-2,-1,-1,-3,7
1523149631207046,8,-1,24,-2,-1,1,3,10
1523149631207046,5,6,-5,4,-1,-1,-7,14
1523149631223136,-3,-1,22,4,1,0,5,-8
1523149631223136,-5,0,2,0,-1,-1,-1,-1
1523149631224641,5,2,0,-4,-2,0,2,0
1523149631224641,3,9,18,3,0,1,1,21
1523149631245696,-11,-13,-14,-3,-3,-4,-5,-41
1523149631245696,9,1,-1,4,-1,-1,-4,8
1523149631247701,6,0,-18,-6,-1,-1,13,37
1523149631247701,-2,-4,-1,-3,1,-1,2,-50
1523149631260736,-15,12,36,9,1,1,-6,-6
1523149631260736,-4,-12,-73,-25,-8,-7,3,8
1523149631262241,-1,0,27,9,-1,-3,-6,-9
1523149631262241,22,4,17,2,2,1,4,38
1523149631283029,-5,-5,-28,-4,0,-3,-3,13
1523149631283029,-14,7,39,10,2,2,-1,-50
1523149631284802,4,0,-23,1,0,2,1,9
1523149631284802,-6,-11,-61,-21,-8,-9,-7,-3
1523149631305849,7,1,4,2,0,1,3,-2
1523149631305849,2,-1,-41,-2,-2,-2,1,14
1523149631307122,-5,-3,-15,-3,-1,-1,0,-5
1523149631307122,2,7,37,11,5,6,-2,-2
1523149631319905,1,-5,-23,-6,-3,-1,-1,3
1523149631319905,-6,-3,-4,-2,-3,-3,-8,3
1523149631326939,6,4,12,-2,0,-2,4,-13
1523149631326939,-3,4,19,9,4,1,-3,17
1523149631343201,-15,1,29,-6,-2,0,-3,-28
1523149631343201,2,-14,-20,-15,-8,-6,7,7
1523149631344738,-3,1,29,3,-2,-2,-13,-15
1523149631344738,2,-4,-12,-7,-3,-1,12,31
1523149631365292,6,2,0,9,3,1,-6,31
1523149631365292,-13,6,32,6,3,-1,-12,-84
1523149631367299,3,-4,-13,-4,-3,-4,-12,1
1523149631367299,4,-2,-2,2,-1,-1,4,5
1523149631380225,11,-1,-26,0,3,6,21,26
1523149631380225,-3,0,20,3,0,1,1,24
1523149631386764,-8,-6,6,-3,-3,-4,-3,-5
1523149631386764,7,4,18,-4,4,3,-2,-15
1523149631403301,-13,-7,-36,-2,-2,-6,-5,-16
1523149631403301,17,1,12,4,-2,0,-2,38
1523149631404612,-3,5,24,8,2,1,8,40
1523149631404612,-28,-5,1,-6,-6,-5,-12,-88
1523149631425457,12,-3,-43,-19,-4,-4,3,18
1523149631425457,-1,11,42,14,7,6,7,-24
1523149631427268,-11,-14,-49,-9,-8,-7,-20,32
1523149631427268,4,3,4,4,-1,2,18,18
1523149631439802,9,4,37,8,2,3,-3,22
1523149631439802,4,-5,-46,-9,-4,-5,6,11
1523149631447014,5,2,-11,-8,0,1,4,21
1523149631447014,-4,-4,8,0,-5,-3,-10,-12
1523149631463426,-19,-2,13,6,-1,-3,-5,-23
1523149631463426,18,5,14,8,2,2,3,33
1523149631464866,9,-2,-18,-10,-1,-1,-1,8
1523149631464866,-19,-4,17,2,0,-1,-3,-80
1523149631485421,7,-2,2,-1,-4,-3,-2,15
1523149631485421,-5,-3,-8,-5,-3,0,-8,5
1523149631486924,4,-2,-16,-2,1,-1,10,-30
1523149631486924,7,2,11,4,2,0,1,59
1523149631499673,3,-2,-3,-1,-4,-3,-8,-12
1523149631499673,-12,1,-4,-6,1,1,-2,0
1523149631506887,-5,-4,-8,2,-3,-4,-1,-22
1523149631506887,3,0,-14,3,1,-1,-7,3
1523149631523314,-7,-3,11,-4,-3,-2,13,-1
1523149631523314,6,1,7,3,1,-2,-5,13
1523149631524936,-5,8,56,12,3,4,5,-18
1523149631524936,8,-5,-34,-18,-5,-4,-5,22
1523149631553010,3,-6,-14,-1,-2,-5,-12,-15
1523149631553010,-2,1,-8,1,0,-1,6,0
1523149631554940,-5,0,43,1,1,0,-4,4
1523149631554940,2,1,4,-3,-1,0,-4,2
1523149631560033,12,1,-3,-1,-1,1,-5,-4
1523149631560033,-22,-8,24,-5,-5,-4,0,-12
1523149631566851,6,3,-19,0,0,0,0,-13
1523149631566851,9,4,5,4,-1,0,-3,21
1523149631582895,-28,-8,-37,-8,-3,-4,-4,-45
1523149631582895,8,0,4,2,0,-1,10,12
1523149631584900,9,1,-18,-1,-1,1,-4,-9
1523149631584900,-8,6,-30,-2,-2,-1,9,33
1523149631605650,-12,-20,-1,-2,-2,-3,-13,-23
1523149631605650,1,9,2,1,1,0,1,-1
1523149631607524,-6,-6,-6,0,-1,0,-7,-21
1523149631607524,6,1,21,1,1,0,11,12
1523149631620189,8,-6,-52,-5,-1,1,4,28
1523149631620189,5,18,5,-1,0,-2,-7,-6
1523149631627024,-20,-34,10,-3,-3,-4,-3,-19
1523149631627024,-5,-1,-1,4,-2,-4,-5,-7
1523149631643251,0,0,-20,-1,0,0,1,5
1523149631643251,1,-11,31,0,0,-1,-2,-10
1523149631644766,4,13,-34,-3,0,0,2,4
1523149631644766,-2,-1,-5,-2,1,-1,-4,-5
1523149631665590,3,4,42,2,-1,0,-3,-1
1523149631665590,-1,1,-37,-5,-1,-1,-2,5
1523149631667093,-4,8,14,0,0,-3,-2,-1
1523149631667093,-4,-9,-12,0,0,-2,-1,-12
1523149631679326,7,9,-8,-1,0,0,5,10
1523149631679326,-6,-10,1,0,0,0,-8,-3
1523149631688149,-2,-1,19,-3,-2,-1,3,-5
1523149631688149,-1,2,-72,-5,-3,-2,-5,-8
1523149631703103,1,0,26,0,0,-1,6,2
1523149631703103,-4,-10,26,0,0,-1,-10,0
1523149631704912,-2,-4,-22,1,2,1,-4,-4
1523149631704912,1,0,27,0,-2,1,1,4
1523149631725680,-1,3,-18,-2,-1,0,-1,2
1523149631725680,-3,0,-17,-4,-5,-4,-1,-5
1523149631727184,3,4,8,1,1,-1,0,-2
1523149631727184,-3,-6,0,-4,-3,-1,-6,1
1523149631739412,0,4,-6,-1,1,1,8,10
1523149631739412,1,-5,9,1,-4,-2,0,-5
1523149631748240,-7,0,-8,-2,-2,-2,6,-6
1523149631748240,3,0,9,3,2,2,-4,-1
1523149631762979,-1,-1,11,-2,-1,-3,-6,-4
1523149631762979,-1,-3,-8,-2,-1,-3,-1,-1
1523149631769493,2,5,28,2,0,0,-3,3
1523149631769493,1,-5,-42,-11,-4,-1,1,-1
1523149631785535,9,1,-38,2,2,4,-1,23
1523149631785535,-7,-7,11,-10,-2,-1,-2,0
1523149631787345,-27,-2,-14,1,-3,-5,-9,-51
1523149631787345,-5,-2,33,3,2,1,0,-5
1523149631799091,15,4,40,6,1,1,2,-3
1523149631799091,0,5,-51,-11,0,3,7,5
1523149631808328,12,-6,-23,1,-1,-1,-3,41
1523149631808328,-8,2,56,2,-1,-1,9,-50
1523149631822977,-1,5,-17,-12,-4,-3,-1,-5
1523149631822977,-2,-7,-5,8,-1,-5,-3,1
1523149631824480,1,-2,13,-1,-1,-2,-9,-7
1523149631824480,7,9,22,3,3,3,5,19
1523149631845536,-9,-11,-29,-7,-4,-4,-13,-4
1523149631845536,-1,1,33,8,0,0,2,-18
1523149631847040,0,-1,-24,-10,-5,-1,2,9
1523149631847040,7,6,41,18,6,0,-5,8
1523149631859275,5,7,51,-6,-1,2,4,3
1523149631859275,-1,-11,-49,-7,-5,-3,-1,12
1523149631868355,2,1,23,3,1,-1,4,14
1523149631868355,-23,-3,2,-3,-2,-2,-8,-50
1523149631883394,9,3,-14,1,1,0,4,-1
1523149631883394,-16,-2,31,-2,-3,-4,-14,2
1523149631884397,0,-2,-17,-4,-2,-1,3,-45
1523149631884397,7,-2,-4,-4,-3,0,5,10
1523149631905849,0,-3,-9,1,-2,-3,-5,6
1523149631905849,20,5,11,6,6,2,4,40
1523149631907395,-7,1,25,7,0,0,2,-9
1523149631907395,-1,-19,-79,-36,-12,-7,-5,58
1523149631919123,-28,-1,24,7,1,0,-5,-74
1523149631919123,7,7,14,3,3,4,4,-17
1523149631928167,7,-4,-13,-6,-3,-2,-1,41
1523149631928167,4,0,-12,4,-2,-2,0,-16
1523149631943175,8,0,9,2,0,-2,-1,36
1523149631943175,-10,-5,-19,-7,0,0,-3,-18
1523149631944480,-1,3,20,8,3,3,5,-1
1523149631944480,5,1,-6,-3,-1,0,7,18
1523149631965293,-1,1,52,8,0,-2,-8,6
1523149631965293,-11,-17,-64,-14,-10,-7,-4,-32
1523149631967297,13,3,-6,2,-1,1,11,18
1523149631967297,17,2,24,8,1,2,-4,51
1523149631979529,-40,-7,-10,-6,-1,-3,-6,-96
1523149631979529,-9,-3,-18,-3,-2,-4,-4,14
1523149631988352,-4,-3,-11,-6,-2,0,-8,-9
1523149631988352,-7,-2,1,4,1,-2,-2,-8
1523149632003590,16,3,6,0,0,1,3,45
1523149632003590,0,4,-3,9,1,1,2,-4
1523149632005445,-4,-4,-32,-20,-3,-2,-6,-11
1523149632005445,-1,2,15,10,1,2,0,-4
1523149632025652,2,-2,-15,-4,-1,0,-3,6
1523149632025652,6,2,27,-1,0,0,6,18
1523149632027522,1,1,-2,1,0,-2,-6,-4
1523149632027522,-7,-6,-77,-5,-2,-3,-3,-21
1523149632039184,1,-8,-15,-4,-6,-4,4,12
1523149632039184,5,5,22,0,0,-2,-18,-8
1523149632048011,3,5,37,5,1,3,23,14
1523149632048011,-8,-8,10,-6,-3,-5,-9,-15
1523149632063254,3,-7,-14,-3,-4,-4,2,6
1523149632063254,-4,4,-1,2,1,-1,5,4
1523149632064557,8,17,-5,0,0,-3,-7,14
1523149632064557,-15,-15,9,-3,-3,-2,-3,-50
1523149632085523,2,1,8,2,2,1,2,10
1523149632085523,6,7,21,-2,0,2,3,13
1523149632087333,0,4,-5,-1,-2,-1,-10,0
1523149632087333,8,-12,13,3,0,1,10,15
1523149632108465,2,2,-14,-2,-2,-1,-2,2
1523149632108465,-3,4,9,0,-1,0,-1,-12
1523149632110039,-1,8,-14,-2,-2,-4,-5,-7
1523149632110039,-1,-4,4,0,-2,-1,-3,4
