timestamp,emg1,emg2,emg3,emg4,emg5,emg6,emg7,emg8
1523147575434652,1,7,17,-67,-4,-8,9,22
1523147575434652,3,1,-16,-32,-6,0,-29,-18
1523147575436158,-11,1,-3,11,-1,3,4,24
1523147575436158,-7,-29,-2,45,8,-1,0,-7
1523147575448186,-4,-5,-26,-77,-16,-7,-3,-15
1523147575448186,17,9,-6,-5,-3,-5,9,10
1523147575457211,-3,-14,2,-14,-4,1,-4,-20
1523147575457211,5,25,3,-8,-3,0,-3,6
1523147575472251,-20,-12,-5,13,-3,-2,-5,17
1523147575472251,-2,-6,-14,-21,1,0,2,8
1523147575473755,-4,17,10,3,-3,-3,-2,0
1523147575473755,20,2,28,19,2,-2,1,7
1523147575494815,8,3,-9,42,9,2,-4,-5
1523147575494815,-9,-17,-11,-1,-4,-1,4,-7
1523147575496316,5,14,8,-7,-1,-3,2,9
1523147575496316,-9,-16,-21,-39,-9,-4,-11,-6
1523147575508350,-1,18,46,41,5,1,1,4
1523147575508350,3,-15,-25,-13,1,1,2,1
1523147575517370,4,2,-3,2,-4,-4,5,-18
1523147575517370,9,-17,-3,4,4,2,-5,17
1523147575532415,0,4,16,11,-2,-3,-4,6
1523147575532415,-2,9,10,27,4,1,2,10
1523147575533917,-9,-16,-30,-80,-16,-5,-3,-9
1523147575533917,0,11,5,7,1,-2,-2,-10
1523147575554473,-45,-14,-6,19,5,1,5,27
1523147575554473,33,10,14,21,3,3,-3,-3
1523147575560988,7,7,9,-6,-3,-2,-6,-6
1523147575560988,-6,-4,6,33,1,-3,-2,4
1523147575568509,4,1,-30,-56,-3,2,0,-9
1523147575568509,-20,-24,-2,-2,-4,4,5,-3
1523147575577532,-28,-6,-20,12,-1,0,-1,2
1523147575577532,42,23,0,-12,-3,0,1,3
1523147575592072,61,-24,-3,28,8,0,-2,-4
1523147575592072,-53,11,15,-19,0,-2,-2,-6
1523147575594078,-5,2,22,6,-8,-1,0,6
1523147575594078,-19,-13,-10,-4,8,-1,-6,0
1523147575614633,17,26,6,4,-1,0,6,-39
1523147575614633,1,-13,-1,-24,-9,-4,-2,66
1523147575616137,69,45,24,-6,-3,-6,-17,-25
1523147575616137,-11,24,32,-5,-10,0,7,-5
1523147575628167,-46,-29,-12,7,-2,-1,-8,-3
1523147575628167,52,-55,-82,-29,-2,-7,-5,-22
1523147575638703,-44,3,-6,11,6,3,5,1
1523147575638703,16,48,5,-9,-2,-1,2,52
1523147575652238,79,-10,24,13,2,-1,6,-7
1523147575652238,29,-35,7,-5,-10,-7,-10,-13
1523147575654238,-72,-52,-43,14,7,-3,-13,17
1523147575654238,-9,-7,-10,-4,-7,-7,2,-23
1523147575674794,8,10,18,5,10,23,9,37
1523147575674794,-31,56,-34,-22,-8,-7,3,-33
1523147575676294,51,20,33,-1,10,-2,3,-8
1523147575676294,47,-30,8,8,-7,11,-3,-6
1523147575688326,6,-2,-4,-7,-9,-11,-9,0
1523147575688326,-22,0,31,14,0,-3,0,-5
1523147575697351,55,3,-5,17,-1,2,3,8
1523147575697351,-9,-6,-4,21,8,-1,2,-7
1523147575711387,-26,-13,-59,-46,-15,-11,-7,4
1523147575711387,26,17,15,14,9,6,5,-1
1523147575718407,-21,-8,10,30,-1,-8,-5,7
1523147575718407,-18,-22,-1,28,5,3,2,5
1523147575734450,-3,-1,-22,-25,-5,-2,-6,-15
1523147575734450,-29,5,23,11,-6,-2,4,15
1523147575736454,-2,3,-10,-34,-7,-6,-3,-16
1523147575736454,-19,10,49,101,24,-2,2,-8
1523147575757100,-23,-12,-41,53,-7,12,-5,-10
1523147575757100,10,18,10,50,8,7,11,-8
1523147575758515,-2,-1,27,64,3,1,9,9
1523147575758515,26,-18,-34,-68,-6,-8,-4,-3
1523147575771595,-23,17,33,23,4,-9,-8,23
1523147575771595,-19,-10,-18,-36,-16,-2,-4,-7
1523147575778119,-3,-23,-3,7,11,6,5,-22
1523147575778119,-19,3,3,8,10,14,4,15
1523147575795034,-8,2,2,1,-18,-4,-2,-11
1523147575795034,7,15,19,37,4,-1,1,3
1523147575796452,3,-3,-15,-64,-16,-9,-7,9
1523147575796452,-25,-10,-15,0,4,-3,-5,-12
1523147575817141,-1,7,11,0,6,-9,-5,-7
1523147575817141,-1,7,10,3,5,9,1,-6
1523147575819017,-4,-7,-6,35,9,2,3,1
1523147575819017,-23,-6,-9,-24,-13,-4,-6,-1
1523147575840069,7,9,-11,-54,-12,-2,-2,-9
1523147575840069,-7,2,15,10,6,-11,-7,0
1523147575841075,-9,-9,-44,5,-5,5,6,2
1523147575841075,2,11,-28,-45,-18,-1,-2,-2
1523147575854608,1,-22,-6,9,1,-5,0,0
1523147575854608,-12,5,4,-14,4,0,-2,-8
1523147575856112,0,-5,17,33,5,5,1,3
1523147575856112,-11,-5,-19,-45,-14,-7,-4,-10
1523147575877169,5,30,20,19,7,2,4,2
1523147575877169,31,-19,-28,-36,-4,2,2,14
1523147575878676,-18,0,8,32,-1,-1,-11,-10
1523147575878676,-22,6,5,28,-1,-5,0,-12
1523147575891708,-12,-23,-3,-55,2,1,0,-6
1523147575891708,2,11,7,13,-6,-3,-8,7
1523147575898476,-10,4,-4,-15,-1,-4,1,0
1523147575898476,7,4,5,2,1,1,1,-4
1523147575914767,2,-12,-20,-25,-10,-6,-5,-11
1523147575914767,6,15,2,25,4,0,3,-3
1523147575916274,-1,-5,-4,-22,-4,-3,-4,-9
1523147575916274,-7,-22,4,-5,-1,-1,-2,4
1523147575937354,3,7,26,61,17,5,7,-3
1523147575937354,-2,-15,-11,-29,-12,-1,-3,-3
1523147575938833,-2,4,-4,9,0,-2,1,6
1523147575938833,2,1,1,-2,-7,-3,-4,-7
1523147575951367,-9,-11,-33,-70,-11,-8,-7,-3
1523147575951367,-3,3,-4,9,4,3,0,-2
1523147575958406,11,1,25,38,6,5,2,14
1523147575958406,15,-9,-18,-29,-11,-4,-2,0
1523147575974427,1,1,16,45,10,-3,1,-1
1523147575974427,-5,13,10,-19,-2,-2,-5,-4
1523147575976431,-20,-22,-14,3,-2,3,4,-5
1523147575976431,-8,-2,2,3,3,3,9,-4
1523147575997489,26,-3,14,12,-1,1,-8,16
1523147575997489,24,3,-10,14,6,-3,0,-17
1523147575998991,-7,-1,-12,-44,-6,0,-3,-3
1523147575998991,-2,1,-10,-5,-4,-3,-3,-3
1523147576011527,-12,2,25,32,3,2,3,3
1523147576011527,-4,-7,-15,-41,-1,-4,0,-10
1523147576018544,16,0,3,-4,1,1,1,5
1523147576018544,-1,-1,-6,7,4,4,2,8
1523147576034590,0,2,-5,4,-2,-1,1,-10
1523147576034590,-17,-9,-8,6,-5,-3,-8,9
1523147576036092,16,10,-5,-19,-5,-4,-1,-6
1523147576036092,-10,8,13,21,7,1,1,6
1523147576057149,1,3,4,16,5,2,3,-2
1523147576057149,2,-3,6,17,3,-1,-1,1
1523147576058654,-13,-9,-4,-36,-16,-5,-3,8
1523147576058654,9,-5,-6,-5,3,1,2,-2
1523147576071774,-11,-9,-8,-8,-6,-5,-5,-3
1523147576071774,3,8,11,-11,-4,-3,0,0
1523147576086227,39,46,32,1,-2,0,-1,-3
1523147576086227,16,3,9,-2,-11,-8,-9,13
1523147576094749,-12,-25,-36,-15,-5,-2,2,24
1523147576094749,-37,-7,0,30,11,5,4,-27
1523147576096250,44,7,20,11,-1,-3,-6,37
1523147576096250,-33,-16,-14,-5,3,-2,-3,0
1523147576117306,1,6,-4,-5,-18,-8,2,-12
1523147576117306,22,-7,-28,-19,-5,1,-11,-5
1523147576118812,-86,28,5,-2,4,0,1,-10
1523147576118812,-4,14,15,6,7,5,7,16
1523147576131551,-33,-51,21,10,14,6,6,-28
1523147576131551,-60,-10,-46,-13,-20,-8,-2,-4
1523147576138363,59,22,17,4,8,3,-5,-23
1523147576138363,29,-81,-50,-2,0,-4,-14,23
1523147576154406,-33,44,11,-5,-4,0,-11,-9
1523147576154406,30,-7,6,-7,-9,-5,8,-9
1523147576156411,-42,-2,-6,-19,-11,-8,-6,-31
1523147576156411,61,22,58,19,-4,-1,3,-10
1523147576177482,18,-3,2,-2,6,5,9,-34
1523147576177482,67,27,10,2,-1,-5,-3,-1
1523147576178971,38,10,-16,4,1,3,1,58
1523147576178971,-67,13,-16,-7,-2,0,-4,-16
1523147576191510,27,2,8,-1,1,-3,-6,-27
1523147576191510,-2,-15,-11,-17,-6,-5,-6,18
1523147576198239,12,-20,-8,27,0,-2,5,0
1523147576198239,25,15,-6,-68,-5,3,4,-17
1523147576214857,2,4,-9,-5,-4,-4,-4,32
1523147576214857,-26,5,33,20,13,8,7,10
1523147576216290,-12,-29,-31,-11,-3,1,-4,-20
1523147576216290,8,15,33,55,8,4,7,10
1523147576237342,-15,1,-23,-75,-11,-6,-6,-1
1523147576237342,-6,-10,-7,-4,3,3,-1,12
1523147576238846,3,-13,-9,20,0,4,2,0
1523147576238846,2,13,46,83,4,2,1,-5
1523147576250878,7,-8,-54,-39,-32,-9,-2,8
1523147576250878,-4,1,10,32,-7,-7,-4,-12
1523147576259907,-7,-3,10,18,7,-15,-11,6
1523147576259907,-18,-1,-2,17,5,15,-2,1
1523147576274645,12,7,27,22,5,-6,3,-3
1523147576274645,-8,2,18,-15,1,10,0,6
1523147576276446,-6,-12,-5,21,1,2,2,-21
1523147576276446,1,0,-20,-80,-5,-8,-3,-10
1523147576297003,14,19,1,-1,5,5,6,34
1523147576297003,-3,7,14,26,-14,-11,-4,-7
1523147576298510,-4,-14,-3,-33,1,0,0,-5
1523147576298510,3,6,8,18,-10,-7,-3,-10
1523147576311076,6,-8,3,64,13,4,-1,6
1523147576311076,-9,6,8,12,12,5,4,-1
1523147576319559,1,-7,10,-5,6,2,-4,5
1523147576319559,-3,-1,2,36,-4,-4,-1,-5
1523147576334601,6,-1,4,-22,-5,-3,0,8
1523147576334601,4,-3,11,-5,7,3,-1,6
1523147576336104,-14,-8,-25,2,-2,-1,6,-10
1523147576336104,23,8,-32,-39,0,-1,0,-3
1523147576357170,17,14,38,122,6,-3,-8,16
1523147576357170,7,-10,-30,-84,-15,-7,-5,-1
1523147576358665,-14,-6,-16,14,1,5,7,-9
1523147576358665,-18,-30,-19,6,-5,-4,0,-4
1523147576370700,-10,-5,-9,-9,2,3,-4,-4
1523147576370700,9,2,5,16,1,-4,-4,-4
1523147576379719,-3,8,3,-20,-10,-6,-4,-5
1523147576379719,6,7,3,-17,-2,0,0,6
1523147576395311,2,6,9,-12,8,4,2,-9
1523147576395311,-18,-23,-9,12,4,3,3,1
1523147576396766,-1,-10,-22,-29,-8,-3,-5,-1
1523147576396766,-4,12,30,25,7,-3,-5,-3
1523147576417324,5,-11,-29,-6,-3,-4,-2,3
1523147576417324,-5,0,-2,37,6,7,5,-5
1523147576418824,6,-2,5,-5,-6,0,1,7
1523147576418824,-5,3,1,5,2,-4,-1,1
1523147576430859,-10,0,-7,-15,-14,-7,-4,-7
1523147576430859,16,-2,-18,-23,-1,-1,-1,-1
1523147576439881,-6,1,6,16,3,-1,-3,1
1523147576439881,-6,-14,-19,-21,-1,3,-1,-7
1523147576454417,-13,-9,13,8,0,-3,-2,-2
1523147576454417,28,0,-6,13,0,-1,-7,1
1523147576456425,-6,0,-3,-23,-5,-2,2,7
1523147576456425,7,5,-10,9,-1,-2,1,0
1523147576476979,9,9,13,14,7,5,0,-2
1523147576476979,-23,-18,1,-15,-1,-1,4,-15
1523147576478986,9,-6,5,8,4,0,-5,15
1523147576478986,-5,-12,1,-1,-5,-3,-3,-11
1523147576491015,0,10,19,0,1,1,3,2
1523147576491015,-13,-4,-5,27,4,1,-2,-3
1523147576499538,2,4,-2,-4,-2,-5,0,-9
1523147576499538,-5,0,-18,-12,-2,5,2,3
1523147576514579,-1,-5,9,-5,1,1,-1,-3
1523147576514579,-2,6,5,-8,-4,-7,-2,6
1523147576516082,-1,-14,0,-8,-3,0,1,-29
1523147576516082,-5,8,-4,12,0,-5,-4,32
1523147576537140,6,5,1,1,3,0,3,-3
1523147576537140,-16,9,15,-29,-10,-4,-4,4
1523147576538642,-1,1,1,-16,-9,-2,-1,-6
1523147576538642,-21,2,0,-19,-1,-2,-2,-17
1523147576550676,23,-17,1,17,2,1,-2,18
1523147576550676,-10,18,-9,0,-3,-2,2,-13
1523147576559698,0,4,4,14,4,2,-4,12
1523147576559698,13,-5,4,-4,1,-2,-4,7
1523147576574738,-32,-10,-8,-9,1,-3,-1,-16
1523147576574738,27,0,-10,2,-7,-1,4,10
1523147576576242,52,23,33,6,-3,-2,1,-9
1523147576576242,24,-18,-16,31,10,8,13,4
1523147576597298,-24,-1,1,1,-3,-3,-13,4
1523147576597298,21,21,29,-17,7,3,4,3
1523147576598802,-50,-9,20,-6,-16,-5,-3,-24
1523147576598802,59,1,-45,37,15,11,14,9
1523147576610833,-16,-13,-6,-6,-4,-4,-9,48
1523147576610833,-37,-29,-42,7,-5,-1,2,-9
1523147576620097,25,4,-3,4,4,-3,-10,11
1523147576620097,-17,23,29,-7,-8,-5,-8,-22
1523147576634396,25,-10,10,12,2,0,3,-13
1523147576634396,10,23,23,-11,13,7,8,-18
1523147576640916,-42,-24,-72,12,-5,-4,-1,-13
1523147576640916,-10,-1,3,-20,-11,-6,-13,-18
1523147576657053,0,-27,-5,-16,-2,2,0,-11
1523147576657053,10,15,45,83,16,7,10,-2
1523147576658964,-31,-10,-30,-79,-9,1,3,-7
1523147576658964,21,-20,12,11,-6,-7,1,6
1523147576679059,14,43,3,-11,-2,-3,-4,9
1523147576679059,5,-5,13,21,3,3,6,27
1523147576679517,2,10,47,108,21,1,-1,26
1523147576679517,-13,-16,-71,-74,-38,-9,7,3
1523147576693575,-19,1,-10,-9,-10,-6,-5,39
1523147576693575,12,-14,-3,8,-6,-6,-23,3
1523147576701577,-5,-6,-11,-20,6,3,6,-1
1523147576701577,-12,9,23,28,13,7,-1,-12
1523147576716618,11,10,7,11,2,-3,7,-15
1523147576716618,-11,-10,-19,-42,-2,-1,-5,9
1523147576717124,2,-3,33,107,18,11,3,12
1523147576717124,-31,-12,-34,-41,-25,-12,-9,-14
1523147576739182,13,0,-12,34,-4,-2,10,-17
1523147576739182,-6,7,29,26,6,1,-12,9
1523147576739685,20,5,-10,7,-3,-8,1,-2
1523147576739685,3,-1,12,-12,11,6,0,10
1523147576754217,-38,0,14,100,16,1,1,-14
1523147576754217,-6,-21,-33,-25,-19,-7,-8,-6
1523147576754718,2,-1,-7,-7,-8,-1,3,-5
1523147576754718,5,11,24,23,18,1,-2,11
1523147576776279,-14,-7,-3,7,-8,3,1,-4
1523147576776279,-12,0,17,-2,2,-4,0,-4
1523147576777278,21,9,4,-30,1,5,2,14
1523147576777278,-27,0,-17,-38,-18,-9,-6,-15
1523147576798865,3,6,9,1,1,-2,-2,30
1523147576798865,-2,-5,3,9,10,3,4,-23
1523147576799838,7,-22,-50,-31,-20,-6,0,10
1523147576799838,-10,13,34,21,7,5,5,7
1523147576813922,0,1,-8,-28,-1,-10,-8,-26
1523147576813922,-2,-3,-8,5,0,8,1,4
1523147576814880,0,9,26,55,14,0,-1,7
1523147576814880,-3,1,-26,-67,-17,-5,-5,-9
1523147576836443,8,-1,-4,28,-6,4,18,-7
1523147576836443,5,-2,-15,14,-7,-8,-23,-15
1523147576837440,-7,-11,4,-24,-4,-4,-3,7
1523147576837440,-15,-24,-37,8,-2,-1,-5,-6
1523147576859042,-8,-2,4,-41,6,4,-1,-23
1523147576859042,1,0,-6,-5,-3,-9,11,24
1523147576859999,-12,11,7,-70,-5,8,-6,-34
1523147576859999,4,-16,20,31,4,-5,-3,14
1523147576874037,1,2,-6,-3,1,0,-6,-10
1523147576874037,15,-3,-20,-20,-8,-5,7,5
1523147576874542,20,0,15,85,8,0,-1,-8
1523147576874542,8,4,-2,-41,-13,-8,2,4
1523147576896630,-1,4,-3,42,3,2,-9,-20
1523147576896630,-5,5,11,-46,-9,-3,-2,0
1523147576897100,-18,-12,4,12,2,0,-2,0
1523147576897100,2,13,0,32,12,3,0,-2
1523147576919707,4,-12,3,-26,-5,0,1,3
1523147576919707,-10,-9,-8,-1,-6,-5,-3,-5
1523147576920158,-3,6,-7,-40,-3,-4,3,-3
1523147576920158,7,10,17,31,13,4,-2,-2
1523147576934197,9,7,10,-30,-8,-2,0,2
1523147576934197,-16,6,10,29,-1,-6,-18,-10
1523147576934698,-9,-13,-12,39,4,1,4,-10
1523147576934698,-20,-14,-36,-41,-19,-9,-5,37
1523147576956756,-41,-15,-21,-4,1,3,0,-1
1523147576956756,10,0,-2,11,3,7,9,11
1523147576957258,4,15,8,9,0,-2,1,-6
1523147576957258,27,16,23,33,8,0,-6,-20
1523147576978814,3,-28,-1,-23,-6,-3,-3,2
1523147576978814,-10,-2,-20,37,1,1,6,10
1523147576979817,11,-19,-54,-128,-32,-11,-10,-2
1523147576979817,6,17,33,33,8,0,3,-4
1523147576993853,11,2,-7,-2,1,0,2,1
1523147576993853,5,-13,-11,23,4,1,2,5
1523147576994856,-7,9,21,-1,2,-1,-5,1
1523147576994856,-2,-7,-2,13,2,1,1,-14
1523147577016414,-21,16,11,-3,-7,-4,-7,6
1523147577016414,-9,-1,7,-25,-5,-2,1,-4
1523147577017416,0,4,-10,24,7,4,5,16
1523147577017416,4,7,12,-12,-3,-2,-2,-4
1523147577038974,0,-25,-32,-10,4,1,0,4
1523147577038974,5,2,2,11,-2,2,0,-4
1523147577039978,-9,46,50,-5,-7,-7,-1,-3
1523147577039978,-4,-16,3,-6,2,2,-3,-2
1523147577054013,-23,-22,-34,4,-5,-3,0,-14
1523147577054013,-4,-4,-3,-10,-1,-4,-2,-7
1523147577054516,14,2,-2,11,4,2,-1,-14
1523147577054516,-12,-8,8,15,9,7,7,6
1523147577076584,50,27,13,1,-4,-5,-1,-4
1523147577076584,-19,8,-6,-33,-5,-3,-9,4
1523147577077076,10,10,24,7,-2,0,-2,-1
1523147577077076,-9,-49,-26,17,4,1,-1,5
1523147577099156,-22,-25,-16,-29,-8,-4,-6,-11
1523147577099156,-29,16,-2,-2,-2,-4,-3,-14
1523147577099637,33,-7,4,7,-1,2,6,-4
1523147577099637,42,21,-2,7,-1,-2,-1,16
1523147577114178,16,27,-2,-10,3,-2,-11,-14
1523147577114178,-3,10,13,-2,-2,-4,14,-4
1523147577114676,-5,-56,-11,4,2,3,-12,7
1523147577114676,-48,11,-8,-14,-16,-8,-1,3
1523147577136736,-11,6,-24,2,1,2,-5,-1
1523147577136736,23,-55,-27,2,-5,-13,2,-11
1523147577137237,6,22,7,9,10,8,2,16
1523147577137237,7,-25,14,7,-7,3,0,-11
1523147577158795,39,-4,29,13,0,1,1,10
1523147577158795,-31,3,-12,0,0,-1,-4,5
1523147577166316,-16,10,-5,-2,0,-10,0,-9
1523147577166316,-17,-13,15,7,7,6,0,-2
1523147577173834,0,38,29,69,9,8,1,-11
1523147577173834,-59,-5,-17,-54,-12,-2,-3,-13
1523147577174836,12,5,-4,35,-3,-7,-14,6
1523147577174836,7,13,-24,-12,-6,-2,0,-12
1523147577196897,-4,-13,56,78,26,5,17,24
1523147577196897,-7,-9,-43,-74,-27,-9,-14,-61
1523147577197897,4,-7,-3,52,3,1,0,36
1523147577197897,-5,0,11,12,2,-1,-6,-8
1523147577218956,-2,-6,-49,-82,-21,-10,-5,-19
1523147577218956,32,1,36,75,22,12,12,8
1523147577219955,-18,-17,-43,-94,-16,-6,1,-13
1523147577219955,3,16,13,43,9,1,0,5
1523147577233494,19,9,9,-50,-10,-4,-2,9
1523147577233494,-9,12,5,-64,-5,1,-3,3
1523147577241514,-14,-12,9,103,11,3,3,-12
1523147577241514,0,2,3,9,-1,-3,-7,18
1523147577256723,9,5,-4,-32,-6,-5,-2,-8
1523147577256723,4,-3,11,39,8,3,-2,12
1523147577257221,-2,4,16,38,8,2,3,-16
1523147577257221,5,3,-6,-39,-8,-12,3,-10
1523147577279279,0,3,35,118,22,14,8,19
1523147577279279,15,-14,-55,-89,-38,-17,-11,8
1523147577279784,-12,0,-7,2,-3,0,2,-25
1523147577279784,19,-9,-4,7,7,-1,-1,11
1523147577293396,-8,2,14,17,1,0,1,3
1523147577293396,6,5,12,22,15,5,-1,8
1523147577301340,5,-8,-16,-39,-10,-5,-1,-19
1523147577301340,0,-5,-26,-31,-7,-3,-2,19
1523147577316377,-25,-1,-1,8,5,0,-4,-21
1523147577316377,14,3,25,69,9,1,-4,6
1523147577317380,-12,-14,-26,-66,-7,0,-3,7
1523147577317380,15,9,16,62,10,2,3,-8
1523147577338995,-7,-9,-24,-52,-13,-5,1,12
1523147577338995,0,9,11,50,10,5,-1,-13
1523147577339941,5,3,6,-3,1,-4,2,2
1523147577339941,-13,5,17,16,1,3,8,11
1523147577353481,-3,-2,-3,-8,0,-1,-10,-17
1523147577353481,10,-2,4,-4,-1,-3,1,6
1523147577361551,0,13,20,25,9,4,2,11
1523147577361551,-4,-10,-14,-1,-2,0,-1,-11
1523147577376541,-11,-11,7,48,-1,-2,3,27
1523147577376541,12,7,12,15,6,1,-3,1
1523147577377040,-4,-1,-10,-46,-11,-4,-3,-5
1523147577377040,-6,6,15,11,0,0,-2,-7
1523147577399097,13,3,-11,-18,-3,-2,-1,-11
1523147577399097,-10,4,21,63,13,9,5,26
1523147577399600,20,8,5,39,5,-2,0,8
1523147577399600,4,3,-18,-47,-12,-5,-4,-28
1523147577413192,-4,-12,4,14,-2,-5,-10,7
1523147577413192,31,0,-18,-43,-10,-6,0,4
1523147577421657,-13,-7,7,30,4,4,3,-14
1523147577421657,-4,-5,-7,-11,-1,-2,-6,4
1523147577436697,2,9,12,20,4,3,6,-14
1523147577436697,8,1,0,29,-4,-2,7,-3
1523147577437200,-7,-12,-32,-125,-22,-6,-9,12
1523147577437200,-19,5,14,53,12,5,1,-6
1523147577459262,-8,-2,-3,-6,-7,-7,-1,-8
1523147577459262,-8,-17,-5,26,7,4,9,11
1523147577459762,-9,-7,-24,9,-7,-4,-12,-14
1523147577459762,-5,-3,-10,-3,-7,-5,-3,-1
1523147577473352,4,8,-11,-99,-15,-1,3,-7
1523147577473352,-1,9,3,-11,-3,-8,-10,-20
1523147577481319,-7,4,5,45,8,5,6,0
1523147577481319,4,0,11,13,-3,-2,-4,7
1523147577496410,1,4,-13,-47,-3,-4,-2,3
1523147577496410,0,14,10,-6,3,2,5,1
1523147577497360,3,-10,38,59,6,4,4,6
1523147577497360,-19,-3,-45,-32,-15,-5,-10,-22
1523147577518916,-1,-9,-20,5,-3,-2,1,-2
1523147577518916,2,8,4,-9,-8,-4,-4,-14
1523147577519919,1,4,-1,4,5,2,4,0
1523147577519919,15,7,31,62,12,5,3,4
1523147577533454,-25,-5,-8,-2,-1,0,1,-7
1523147577533454,2,-10,5,34,1,1,-6,-1
1523147577541477,21,11,-18,-45,-18,-7,-3,6
1523147577541477,-12,-5,-19,-71,-6,-1,3,-6
1523147577556570,-3,4,4,5,-2,0,-3,-4
1523147577556570,16,-7,10,9,1,-2,0,7
1523147577557018,-10,2,9,24,7,-1,0,6
1523147577557018,23,-9,5,-14,3,2,2,4
1523147577579124,7,-4,-17,-1,-8,-5,-2,9
1523147577579124,-38,-12,-9,-9,-6,-6,-11,-2
1523147577579578,-7,6,10,-6,3,1,0,-1
1523147577579578,-4,12,17,-8,-1,0,1,-6
1523147577593167,13,-43,-17,16,4,1,5,-4
1523147577593167,-5,-4,-14,-14,-6,-4,-5,41
1523147577601642,-17,-2,-30,-24,-14,-7,-7,-18
1523147577601642,27,-16,16,10,0,-3,10,1
1523147577616676,-31,29,27,30,8,3,-23,46
1523147577616676,-2,13,-10,-13,-1,-1,2,-6
1523147577617179,52,18,23,-7,0,-2,-4,-7
1523147577617179,-45,2,2,5,0,0,11,-8
1523147577638738,0,-10,11,-4,-1,0,2,-52
1523147577638738,-32,-51,-29,-22,-4,-5,-20,-57
1523147577639738,11,-18,-41,14,13,7,8,15
1523147577639738,-16,31,39,7,-6,-6,1,-6
1523147577662325,39,8,-30,-4,0,-3,-3,-3
1523147577662325,-6,9,11,-7,-4,0,10,9
1523147577662803,7,-9,3,10,3,-1,10,-1
1523147577662803,-50,-9,-13,-2,-2,2,-4,0
1523147577676335,9,13,-14,4,-3,3,6,19
1523147577676335,0,19,38,32,5,0,3,-4
1523147577677339,-33,-19,-8,-39,-12,-7,2,-7
1523147577677339,31,17,-27,-16,-2,-4,-25,72
1523147577698899,-16,1,23,11,8,2,5,-9
1523147577698899,9,0,5,23,6,-2,1,12
1523147577699898,-21,3,21,39,4,0,-2,-15
1523147577699898,6,-1,-5,-9,-1,-3,-4,-15
1523147577722250,4,-9,-14,-23,-8,-7,-2,-4
1523147577722250,31,15,-4,-40,-5,5,8,14
1523147577722699,6,11,10,57,8,0,-7,13
1523147577722699,-20,-18,-21,-47,-16,-3,-2,-30
1523147577736736,4,-4,-27,-71,-18,-9,-6,31
1523147577736736,0,-5,-13,-15,2,8,2,-15
1523147577737236,0,-3,-2,11,-7,-5,-4,18
1523147577737236,22,4,29,102,19,5,10,-3
1523147577758848,-16,-21,-57,-89,-44,-17,-8,-8
1523147577758848,0,5,-4,33,0,-3,-3,-28
1523147577759797,-1,2,35,84,17,4,-5,48
1523147577759797,-2,-13,-33,-54,-14,-7,-7,-24
1523147577782858,8,12,14,34,13,5,1,21
1523147577782858,21,4,41,34,8,2,6,11
1523147577783362,-4,10,-1,-44,-6,-2,-2,-3
1523147577783362,-2,-6,2,17,9,4,1,-13
1523147577796560,-45,-19,14,69,13,0,-5,-40
1523147577796560,5,-6,-8,30,-1,0,-2,28
1523147577797016,-18,-17,-55,-66,-27,-14,-9,-9
1523147577797016,8,7,12,49,6,-1,4,12
1523147577819128,10,7,-7,-53,3,12,8,-15
1523147577819128,-14,-2,13,34,6,-5,7,-8
1523147577819576,14,6,14,-5,2,9,-1,23
1523147577819576,10,-13,-23,-35,-7,-3,0,16
1523147577842190,13,8,19,36,1,-3,-6,-4
1523147577842190,-5,4,-9,-45,-4,-4,0,-1
1523147577843138,-7,-12,10,29,11,2,5,-7
1523147577843138,-19,-11,-10,-42,-9,-2,-8,-16
1523147577856675,10,9,16,34,11,5,10,17
1523147577856675,3,-7,-16,-36,-11,-6,-8,1
1523147577857177,1,9,13,16,1,0,4,-6
1523147577857177,-9,-14,-11,19,1,3,-4,-6
1523147577878787,-2,20,29,27,4,-3,4,-10
1523147577878787,1,-11,-18,-8,-3,1,0,34
1523147577879739,0,5,0,-28,-10,-2,-3,-13
1523147577879739,12,14,14,22,3,1,1,4
1523147577902379,-4,-17,4,-11,-7,-7,-6,2
1523147577902379,-22,-6,-43,-88,-16,-4,-6,-18
1523147577902884,-3,-5,0,13,4,2,0,-28
1523147577902884,5,-8,-6,18,4,-2,2,28
1523147577916539,-13,14,15,-32,-11,-5,-1,3
1523147577916539,14,21,31,64,9,-1,1,11
1523147577917037,-31,-21,-9,1,3,7,-8,-58
1523147577917037,16,-10,-34,-13,-6,-4,-7,-3
1523147577939145,8,-7,-1,24,4,1,1,-4
1523147577939145,-11,-10,-15,-11,0,2,5,-12
1523147577939597,6,18,12,-1,-3,-5,-7,17
1523147577939597,2,6,14,-17,-2,3,2,-3
1523147577962215,3,-16,-41,-60,-6,-2,-7,0
1523147577962215,-1,7,12,25,3,0,1,-7
1523147577963159,7,-2,-4,1,-3,-3,4,4
1523147577963159,-10,1,18,46,5,3,-3,5
1523147577976694,-11,-12,12,30,3,-2,-1,-7
1523147577976694,-1,2,13,-18,1,4,-2,-7
1523147577977196,-6,8,-12,-29,-6,-3,1,9
1523147577977196,-13,-10,-6,-14,-2,-1,0,-7
1523147577998759,-1,8,-1,12,-1,-2,1,4
1523147577998759,-1,-39,-16,27,5,-2,0,5
1523147577999758,-2,-20,-1,7,2,-3,-4,-7
1523147577999758,1,14,-2,7,2,0,0,-10
1523147578022316,-6,14,14,11,0,-1,0,0
1523147578022316,28,5,25,4,0,0,-2,-7
1523147578022825,-23,-17,-9,0,1,2,9,4
1523147578022825,6,6,-3,-19,-9,-6,-17,8
1523147578036356,7,-16,19,22,7,3,-1,5
1523147578036356,-10,6,-17,-2,-10,-6,-4,-4
1523147578037358,0,22,-5,-19,-3,-3,-2,-5
1523147578037358,-31,-6,13,13,11,3,8,-26
1523147578058968,17,-46,-26,40,10,8,3,42
1523147578058968,27,4,-13,-19,-5,1,-6,-14
1523147578059916,1,8,2,-9,-2,-1,-2,13
1523147578059916,-38,35,28,-3,3,4,1,-11
1523147578082477,37,-22,-6,8,7,4,3,-9
1523147578082477,-66,-55,-14,-18,-9,-7,-8,-12
1523147578082981,-66,-6,-72,-9,-19,-12,-22,38
1523147578082981,26,36,48,-8,8,5,2,-9
1523147578096568,5,13,19,-9,-2,0,9,45
1523147578096568,-5,6,-53,-3,-26,-16,-29,40
1523147578097016,16,-7,47,10,3,2,3,-29
1523147578097016,-3,17,9,-6,-9,-9,5,27
1523147578119192,12,52,23,1,4,3,-5,-2
1523147578119192,44,26,31,7,17,6,0,-10
1523147578119696,-49,-41,-49,-24,-13,-10,-8,6
1523147578119696,21,-16,-5,21,1,1,-6,-32
1523147578141252,40,2,-6,-8,-4,-3,7,46
1523147578141252,-21,16,29,14,9,7,21,-9
1523147578142255,21,9,16,-4,8,2,-13,-27
1523147578142255,0,-15,-15,41,1,-2,10,-45
1523147578156296,-14,-5,-22,-33,-5,0,-12,19
1523147578156296,4,-1,8,3,-2,-2,3,48
1523147578157294,25,22,24,2,6,6,21,-8
1523147578157294,16,-8,14,64,8,-4,-59,-22
1523147578178851,-46,11,-31,-43,-13,-8,-16,-16
1523147578178851,1,-18,-25,-2,-3,4,34,-37
1523147578179854,22,2,3,-5,-1,0,16,-40
1523147578179854,34,7,-5,-53,1,5,-10,70
1523147578201457,-22,3,25,56,8,1,6,-45
1523147578201457,-46,-12,-42,-103,-21,-12,-17,-45
1523147578202417,9,-4,1,23,0,-1,-2,-9
1523147578202417,6,-9,-5,8,5,9,38,-45
1523147578217455,39,19,28,25,6,5,1,27
1523147578217455,28,2,-11,15,3,-5,-27,-16
1523147578223970,-22,-2,5,12,-2,-2,-13,9
1523147578223970,6,-6,-9,26,-1,-4,7,0
1523147578239012,-9,-11,-8,-14,-1,-4,4,-29
1523147578239012,4,2,-2,-20,3,5,6,18
1523147578240035,20,17,32,79,15,3,6,-21
1523147578240035,-10,-20,-45,-63,-15,-7,-10,19
1523147578262312,-18,-15,-6,19,-6,1,-3,-34
1523147578262312,-7,2,19,32,-14,-10,-1,21
1523147578263074,14,19,31,2,20,-6,-3,-3
1523147578263074,-10,-16,-8,-37,-31,2,12,14
1523147578275846,-10,-1,-1,46,28,11,2,-8
1523147578275846,4,6,5,3,-2,-1,-1,-13
1523147578284132,3,0,-4,-21,4,7,19,9
1523147578284132,-3,0,-4,20,4,-9,-9,-1
1523147578307429,0,11,-10,18,-8,-3,-8,19
1523147578307429,-5,1,-22,-35,-14,-3,-5,-20
1523147578307693,8,2,2,0,-5,-2,3,-1
1523147578307693,-14,-9,-13,-15,3,-2,2,54
1523147578322232,-10,-25,-3,16,-10,-6,-5,-34
1523147578322232,6,7,6,-33,11,6,8,3
1523147578323247,-6,-9,-17,-25,-13,-7,-12,1
1523147578323247,10,16,0,-54,-4,8,4,-3
1523147578335768,3,0,22,9,6,1,3,-1
1523147578335768,12,4,18,19,6,-3,1,-3
1523147578344030,6,-12,38,64,5,1,-4,22
1523147578344030,-5,-10,-18,56,3,-4,-1,-7
1523147578359330,9,-24,-33,21,1,-1,4,-5
1523147578359330,-4,-1,-18,10,7,2,-4,-4
1523147578359833,0,11,0,3,-4,1,1,1
1523147578359833,1,-1,15,13,6,-3,-4,-6
1523147578381891,-4,6,-2,-38,-10,-4,-2,-3
1523147578381891,1,9,20,25,9,1,1,6
1523147578382896,3,-5,-19,-36,-4,2,-5,3
1523147578382896,-4,-3,7,26,4,-3,5,3
1523147578396153,-5,2,-4,-12,-8,-4,-16,-39
1523147578396153,-2,-8,-2,-35,-1,4,10,15
1523147578403954,-9,-2,-24,-52,-15,-6,-6,6
1523147578403954,-4,-7,-7,-8,-5,-5,-4,-12
1523147578418990,-2,7,24,77,11,3,7,-26
1523147578418990,-3,1,10,24,7,3,-7,10
1523147578419491,-1,0,-18,-28,-5,-3,-5,14
1523147578419491,1,-7,6,2,-2,-2,3,-3
1523147578442053,-10,-1,-5,1,-4,-8,-7,-5
1523147578442053,3,2,21,52,12,9,1,18
1523147578443054,-3,-9,-31,-76,-23,-4,3,3
1523147578443054,6,4,8,2,4,3,-3,30
1523147578456096,4,3,0,-7,1,0,4,13
1523147578456096,-3,9,-7,16,-1,-6,-3,-5
1523147578464322,0,-15,-3,3,2,6,3,0
1523147578464322,-19,-3,17,1,-1,-1,3,18
1523147578478887,-1,25,16,-31,-8,-3,2,-3
1523147578478887,-4,1,27,35,5,0,3,6
1523147578479651,0,-15,-14,-9,-4,-5,-5,2
1523147578479651,-9,5,-6,4,-7,-5,3,-22
1523147578502216,-10,-10,-10,-32,-3,-1,-1,-15
1523147578502216,10,8,12,31,3,-2,-2,3
1523147578502716,-1,8,8,24,10,1,2,0
1523147578502716,3,-12,-10,-9,0,3,-4,2
1523147578516249,-5,0,-3,-4,3,-2,1,-2
1523147578516249,3,-11,-29,-39,-23,-5,13,-30
1523147578523770,-19,5,10,5,6,2,-29,45
1523147578523770,-2,21,-6,-20,-1,2,3,-9
1523147578538811,2,-30,-25,10,5,6,5,8
1523147578538811,-15,-6,9,8,6,2,0,-5
1523147578539811,-37,11,42,13,7,1,9,-10
1523147578539811,-1,-28,-66,-15,-8,-8,-9,-14
1523147578562371,-23,37,-13,-6,-2,1,-4,36
1523147578562371,22,-24,9,-11,0,-5,-13,-8
1523147578563375,-64,22,24,-14,-2,3,13,5
1523147578563375,73,-7,-18,26,2,1,4,39
1523147578584431,6,-3,-11,-31,-18,-12,-25,-14
1523147578584431,-3,10,0,3,-5,-3,-5,-29
1523147578585437,-5,14,-22,1,-5,-1,4,-9
1523147578585437,52,-17,19,13,16,11,6,12
1523147578598969,-37,-13,4,-7,2,2,20,6
1523147578598969,1,31,7,-6,-3,1,-7,24
1523147578599974,38,-6,-20,0,6,-2,3,-32
1523147578599974,-12,3,-16,-8,-19,-8,-14,-5
1523147578621530,21,-16,-2,-11,-3,-2,-12,-46
1523147578621530,-34,-17,-17,14,1,0,-6,11
1523147578622030,42,36,17,7,1,1,12,-21
1523147578622030,3,-31,9,-6,8,-2,5,26
1523147578644593,26,-11,-38,-34,-24,-18,-24,12
1523147578644593,24,-2,9,13,6,2,-1,-13
1523147578645601,83,9,-11,31,9,6,6,16
1523147578645601,-74,-7,3,-47,-13,-10,-3,-12
1523147578659129,-57,39,14,26,7,3,1,-43
1523147578659129,16,-25,-5,-5,-3,-3,-1,30
1523147578659632,13,4,34,88,15,7,7,3
1523147578659632,34,18,-10,-35,-2,4,9,11
1523147578681187,-12,-30,3,-6,-2,5,14,8
1523147578681187,6,-8,-56,-78,-19,-9,-9,22
1523147578682191,-31,-19,4,-38,-10,-5,-5,17
1523147578682191,6,15,32,39,3,-5,-12,-58
1523147578704752,26,-15,-4,11,4,-2,-7,38
1523147578704752,13,20,-8,39,4,2,19,3
1523147578705251,-28,-31,-11,-20,3,6,-10,-22
1523147578705251,6,6,-11,-62,-11,-4,2,-18
1523147578718788,4,24,24,13,1,1,-8,26
1523147578718788,-6,3,17,62,2,-13,-7,-29
1523147578719791,-46,-66,-29,-37,3,8,-4,-22
1523147578719791,-24,-9,2,39,9,3,-1,-17
1523147578741348,48,12,23,10,-3,15,36,-15
1523147578741348,-16,6,22,-17,-1,3,-17,3
1523147578742370,14,1,9,57,-4,-10,-11,17
1523147578742370,-19,11,-15,-68,-7,-6,-4,7
1523147578764408,-3,-28,-14,44,1,-6,5,-11
1523147578764408,-18,6,20,69,19,8,8,0
1523147578765412,0,-1,-22,-37,-12,-5,3,-79
1523147578765412,19,18,65,127,26,12,-2,77
1523147578778950,-9,-15,-45,-73,-15,-7,-5,0
1523147578778950,-12,-9,1,10,-45,-6,-1,-17
1523147578779965,3,1,-12,29,1,-12,-6,-5
1523147578779965,-19,-11,-19,-59,-20,-3,-3,-25
1523147578802018,2,5,9,-33,19,6,5,13
1523147578802018,-1,-1,-10,39,21,9,9,21
1523147578803013,0,7,6,29,-20,-10,-9,20
1523147578803013,-15,7,-16,-83,-13,-7,-2,-19
1523147578824575,-6,-21,17,51,-2,-2,0,17
1523147578824575,-21,-15,-10,-36,-1,-6,-7,-35
1523147578825572,57,5,12,30,15,4,4,21
1523147578825572,32,-26,33,43,28,16,14,8
1523147578839108,-2,9,-3,73,-4,-8,-11,-10
1523147578839108,0,-11,39,83,18,8,9,18
1523147578839609,-48,-22,-69,-113,-38,-16,-19,-11
1523147578839609,-15,17,-4,62,1,-5,-3,-7
1523147578861693,35,30,17,-33,-4,-4,0,6
1523147578861693,-6,4,-3,-19,3,2,1,2
1523147578862170,4,27,8,32,26,16,6,21
1523147578862170,-21,-5,-7,-22,-10,-5,0,-28
1523147578892253,-22,-18,-39,-35,-10,-1,-3,5
1523147578892253,-4,2,-11,-40,-4,-7,-4,-12
1523147578892750,-7,21,11,-19,1,0,1,-16
1523147578892750,3,8,4,9,-3,-1,-3,9
1523147578898767,7,3,37,60,15,4,1,0
1523147578898767,9,-3,-18,-74,-7,-7,-1,6
1523147578899771,11,-7,1,12,-17,-10,-2,4
1523147578899771,-18,-19,-9,35,8,11,2,-8
1523147578921326,-8,-4,-9,-53,4,3,2,-1
1523147578921326,9,8,-11,-28,-4,1,0,2
1523147578922330,-3,-12,19,15,-1,-2,3,4
1523147578922330,-14,3,5,7,-4,-8,-9,-18
1523147578944894,-6,0,39,67,5,1,-1,3
1523147578944894,-1,-19,-56,14,-2,-2,-2,-4
1523147578945390,50,-9,-17,-28,-6,-1,0,16
1523147578945390,-50,22,0,29,8,-2,-3,-12
1523147578958927,6,-14,-3,4,1,-4,-2,-7
1523147578958927,-15,10,38,81,6,0,0,3
1523147578959931,-7,-2,13,38,7,6,7,24
1523147578959931,21,-11,-5,14,-8,-5,-6,-18
1523147578981990,-3,12,-19,-63,-4,-2,1,-7
1523147578981990,-7,6,15,-2,5,0,-2,1
1523147578982991,2,9,-9,-6,3,1,4,-12
1523147578982991,12,4,13,15,-3,-3,-7,14
1523147579004550,-22,-28,-52,-63,-20,-11,-9,-5
1523147579004550,10,3,3,-33,-3,3,9,-46
1523147579005553,11,-19,26,52,15,4,-9,38
1523147579005553,6,-19,0,-3,-1,0,6,-9
1523147579019086,7,8,13,26,8,0,0,4
1523147579019086,-9,-12,4,51,4,-1,-3,-8
1523147579019589,-23,-6,-57,-61,-31,-12,-5,-22
1523147579019589,-2,9,9,-2,-6,-6,-1,1
1523147579042147,1,11,13,20,1,1,-2,10
1523147579042147,-1,-11,-8,-30,11,1,0,7
1523147579042649,-10,11,37,42,8,-4,-3,-5
1523147579042649,13,9,-21,-85,-8,1,1,11
1523147579064709,-39,1,-13,-2,0,9,4,-19
1523147579064709,0,49,11,-9,-15,-7,-4,27
1523147579065210,-23,-26,24,12,8,4,2,-4
1523147579065210,41,1,-11,1,-2,-3,-1,7
1523147579078746,-64,34,16,-5,4,-1,2,1
1523147579078746,-1,-48,-18,-19,-8,-1,-6,2
1523147579079749,55,25,-36,-24,-6,-1,14,-2
1523147579079749,-38,0,28,21,13,0,-14,-39
1523147579102307,-5,-16,31,0,-8,-1,-8,-18
1523147579102307,-16,-29,-56,-11,-3,3,12,26
1523147579102809,-18,28,68,-3,20,-2,-27,-66
1523147579102809,43,35,3,14,-18,-7,12,30
1523147579124367,13,-69,-24,2,-5,-5,8,-6
1523147579124367,43,6,7,-27,-3,-1,-6,3
1523147579125370,-33,4,10,15,7,3,4,-8
1523147579125370,-22,50,88,1,2,-2,-6,79
1523147579138906,56,-70,-81,-13,-13,-5,-21,-30
1523147579138906,9,-15,-3,-28,-17,-15,-7,-2
1523147579139911,-10,80,21,8,7,3,5,10
1523147579139911,5,20,36,10,4,10,16,-28
1523147579161466,-15,35,-16,-18,-6,-3,1,36
1523147579161466,-16,-29,-19,0,5,1,-5,-26
1523147579168986,-2,-17,-34,-6,-10,-2,2,3
1523147579168986,-1,-2,23,9,3,1,-3,-17
1523147579184526,29,43,51,11,11,3,3,13
1523147579184526,-12,26,-1,-9,-2,-2,2,-30
1523147579185533,-45,-11,-7,-35,-11,-7,-18,0
1523147579185533,46,-6,-27,60,1,-3,0,16
1523147579198063,-8,-22,4,11,7,4,4,-23
1523147579198063,13,15,36,39,4,-1,-7,22
1523147579206586,-10,-12,-11,-37,-20,-5,13,-14
1523147579206586,-26,-46,-33,34,2,-5,-17,-6
1523147579221626,2,19,1,62,9,0,-1,0
1523147579221626,11,19,-5,-33,1,11,12,3
1523147579222132,11,-17,0,18,6,2,3,-5
1523147579222132,-26,-34,-42,27,-7,-5,-2,-26
1523147579244694,-13,21,8,-7,-7,-5,0,4
1523147579244694,17,12,32,22,-1,-2,-8,27
1523147579245692,9,-25,4,35,10,4,8,24
1523147579245692,-18,-1,15,36,7,-3,-5,-32
1523147579258223,3,-4,-43,-37,-22,-2,-3,-35
1523147579258223,22,11,8,58,18,2,6,60
1523147579266249,45,-22,-13,1,-7,1,9,12
1523147579266249,-32,-8,-17,-8,-3,-4,-12,-21
1523147579282288,16,10,-2,-45,-6,-4,-2,2
1523147579282288,-7,-11,-11,-30,-9,-10,1,-21
1523147579282792,15,12,16,34,-1,5,-5,24
1523147579282792,10,-3,-20,0,2,-2,9,17
1523147579304847,7,-4,-29,-85,-20,1,-3,7
1523147579304847,-8,1,2,-1,-1,2,1,-36
1523147579305348,-7,-7,4,6,-3,-5,-6,60
1523147579305348,16,-2,-8,-25,-4,-1,3,-4
1523147579318384,-21,7,23,67,16,1,0,7
1523147579318384,-26,-12,-18,-80,-15,-6,-18,-36
1523147579326404,-3,9,-26,17,0,1,7,-19
1523147579326404,3,-9,17,31,9,12,11,-17
1523147579341947,-15,1,11,67,11,0,-2,14
1523147579341947,-2,2,1,28,-8,-1,-1,1
1523147579342949,-3,10,23,6,4,-4,-10,-30
1523147579342949,-4,-12,-25,-13,-2,-2,0,-6
1523147579364506,8,-18,-1,-52,-3,-1,-2,6
1523147579364506,-4,7,19,30,12,3,5,-4
1523147579365510,0,1,0,39,-2,-2,-1,19
1523147579365510,-1,-4,-40,-76,-19,-8,-4,9
1523147579378041,5,-7,-8,-15,13,2,-5,-6
1523147579378041,1,11,10,-5,-12,7,2,-3
1523147579386564,17,9,12,34,3,-1,6,3
1523147579386564,-5,-7,-8,-81,-15,-5,-3,5
1523147579402115,0,21,7,30,2,-6,-4,4
1523147579402115,-6,-54,-21,-5,9,5,5,3
1523147579403109,-8,-21,20,6,-3,-1,-7,-12
1523147579403109,1,-9,2,16,3,2,2,4
1523147579424666,6,9,17,79,11,-2,-1,-2
1523147579424666,-4,1,-40,-51,-32,-15,-7,8
1523147579425167,-1,2,-15,-8,-2,1,-4,-13
1523147579425167,-1,-3,46,62,10,2,-3,25
1523147579438201,7,-12,13,108,15,6,8,5
1523147579438201,-2,8,-18,22,3,-2,-3,-9
1523147579446224,1,6,31,79,12,4,2,-7
1523147579446224,1,12,-32,-28,6,2,3,1
1523147579462265,-4,1,-20,-79,-19,-5,-1,-5
1523147579462265,2,10,33,68,15,2,1,-2
1523147579462767,-7,-19,-71,-128,-25,-9,7,-6
1523147579462767,10,8,25,42,11,3,-9,-3
1523147579484324,-36,12,24,12,-5,2,-6,-6
1523147579484324,-9,-5,1,6,3,-3,-3,7
1523147579485328,-10,-2,-19,-38,-1,2,5,14
1523147579485328,3,16,18,22,7,4,1,-1
1523147579498363,7,-4,-16,-54,-16,-5,-4,4
1523147579498363,-14,-12,-14,-11,-1,-2,-3,4
1523147579506384,4,-43,-1,36,5,0,-2,-10
1523147579506384,-13,-2,-13,-23,-10,-9,-4,-2
1523147579521928,25,5,3,-5,-4,7,5,5
1523147579521928,8,17,12,17,10,2,4,-6
1523147579522932,-2,-3,11,-15,-4,-6,-9,3
1523147579522932,-14,-4,-37,-21,-11,0,1,-23
1523147579544487,12,-15,17,27,11,-1,6,6
1523147579544487,5,10,2,-9,-3,0,0,2
1523147579545491,-20,6,-9,5,2,-1,-6,-10
1523147579545491,24,-1,13,-25,-2,-4,-1,15
1523147579567045,-5,1,7,-5,-2,-15,-7,-8
1523147579567045,-8,27,10,6,-10,11,10,-1
1523147579569055,20,-28,-12,-8,-1,-7,-24,27
1523147579569055,-46,2,-32,23,7,3,-5,-19
1523147579580580,15,20,17,-10,-3,-2,0,10
1523147579580580,-3,-17,-14,-8,-5,-11,-9,-17
1523147579589605,4,26,-16,-14,-3,0,3,-20
1523147579589605,-16,-12,12,-13,1,0,7,11
1523147579604647,26,10,11,5,0,0,-3,11
1523147579604647,-16,25,43,-9,0,5,10,-10
1523147579606151,13,74,27,-29,-16,-8,-2,-36
1523147579606151,1,-26,-14,4,-3,-5,-19,13
1523147579627208,-18,13,25,5,-7,0,-6,-13
1523147579627208,-4,22,-3,0,11,4,21,14
1523147579628710,-10,-1,24,-1,4,2,-21,-37
1523147579628710,31,19,-17,-4,-3,-2,2,-29
1523147579640743,-3,-22,-17,-1,9,5,3,24
1523147579640743,23,-8,-15,-9,-5,-5,-6,-9
1523147579649773,18,-27,-11,6,-5,-1,13,-11
1523147579649773,-24,-42,-19,-1,-4,-4,-2,84
1523147579664805,-49,40,32,10,19,16,34,29
1523147579664805,34,15,8,-3,-2,-7,-12,-14
1523147579666311,28,-69,-72,-15,-7,-1,4,-51
1523147579666311,12,-10,17,17,5,1,-3,46
1523147579686864,30,1,-15,-6,-5,0,-1,-51
1523147579686864,-97,-43,-20,-3,-4,-7,-15,56
1523147579688868,4,22,22,12,4,1,4,5
1523147579688868,-5,34,-9,-26,-11,-5,8,-42
1523147579700900,47,3,-17,21,-5,-3,-3,39
1523147579700900,27,12,10,-27,-5,2,0,8
1523147579709926,-27,-10,12,45,6,1,0,20
1523147579709926,4,0,-11,-77,-10,1,29,29
1523147579724965,49,6,15,2,-7,-6,-16,-11
1523147579724965,-56,-43,18,56,14,4,6,-40
1523147579726470,-3,-5,-3,21,2,-1,-9,25
1523147579726470,33,11,-19,-65,-25,-8,0,-2
1523147579747023,-29,-19,-4,51,5,1,2,-18
1523147579747023,-2,6,-43,-65,-11,-5,-6,-27
1523147579748528,21,30,12,49,5,2,6,40
1523147579748528,10,-19,5,-32,-1,6,16,3
1523147579762066,-8,-34,-50,-7,-3,-7,-9,-17
1523147579762066,-41,7,29,105,10,3,-15,-6
1523147579770085,-36,-18,-18,-53,-5,-6,5,3
1523147579770085,30,15,19,50,5,-4,-17,-30
1523147579784624,27,18,-2,-29,6,7,2,49
1523147579784624,22,-13,6,29,-26,-1,5,-21
1523147579786134,-2,-8,18,-49,7,0,-2,2
1523147579786134,-8,-12,-11,33,2,2,5,-17
1523147579807184,-22,-6,7,42,11,-11,-15,-28
1523147579807184,23,8,9,-64,-6,1,1,9
1523147579808688,-6,6,-26,-17,-12,-12,-12,1
1523147579808688,-28,-34,-17,36,2,5,-2,-25
1523147579820722,-36,11,-4,-42,-6,-6,-12,-24
1523147579820722,17,-4,-1,29,6,-5,-11,-5
1523147579829743,3,1,-3,-24,-4,9,5,4
1523147579829743,2,26,14,2,13,3,8,-46
1523147579844785,-20,-11,26,24,-13,-2,-6,98
1523147579844785,14,3,-31,-6,3,-6,-2,-6
1523147579846291,-11,-6,0,-38,-5,3,8,-9
1523147579846291,8,10,26,58,19,6,-3,8
1523147579867356,-16,-13,7,38,0,1,1,-38
1523147579867356,34,5,-7,-33,-11,-2,-1,20
1523147579868849,-55,-18,-12,49,21,-1,-3,4
1523147579868849,7,25,16,-7,-9,-3,-9,-16
1523147579881381,9,-9,-16,1,-2,-7,5,-15
1523147579881381,23,1,3,-98,-21,3,8,30
1523147579888400,2,-29,13,127,34,4,3,-4
1523147579888400,-8,12,18,50,18,-6,-8,4
1523147579904445,5,46,2,-124,-37,2,4,-16
1523147579904445,-19,-102,-45,106,35,-8,-5,-2
1523147579906448,4,-9,13,11,-24,0,11,-3
1523147579906448,15,-1,-17,-100,-6,-6,-16,11
1523147579927005,-1,-21,-20,-1,1,3,2,-18
1523147579927005,-29,31,42,49,10,3,0,-13
1523147579928509,21,20,-19,-31,-8,2,0,6
1523147579928509,-9,-31,-30,81,4,-3,-1,-14
1523147579941547,-14,-19,11,58,16,4,4,-16
1523147579941547,21,74,33,-18,-7,4,3,20
1523147579948059,2,-49,-13,-65,-8,-6,-3,-33
1523147579948059,-11,21,-23,0,-9,-3,-13,1
1523147579963600,-4,0,4,1,-3,-5,-4,-24
1523147579963600,6,-5,-23,-28,-10,-4,0,-6
1523147579972124,-23,25,8,-4,-1,0,0,16
1523147579972124,35,5,43,51,3,1,2,8
1523147579987164,-21,-45,-76,-104,-38,-10,-4,-7
1523147579987164,40,-34,7,53,10,-4,0,15
1523147579988669,5,24,45,107,16,4,-10,7
1523147579988669,-31,-31,-62,-128,-38,-13,-6,-14
1523147580000701,1,17,36,110,32,7,3,7
1523147580000701,6,13,13,-12,3,7,9,15
1523147580009723,8,12,-20,-46,-12,-2,-3,1
1523147580009723,-23,-26,29,36,11,-1,-2,-13
1523147580024764,15,2,9,20,13,-3,-7,16
1523147580024764,1,11,-11,-39,-9,5,9,-4
1523147580026268,25,23,27,30,11,-3,3,26
1523147580026268,-32,-29,-6,18,-9,6,15,-20
1523147580047322,-30,2,-15,-28,1,-2,-16,-23
1523147580047322,42,13,8,-9,-9,-6,-9,-25
1523147580048831,-5,5,13,12,-4,-3,-4,31
1523147580048831,-3,3,-10,-68,-3,1,3,-7
1523147580060858,-36,-18,2,4,2,4,14,13
1523147580060858,-23,36,19,15,-1,-3,-7,7
1523147580069882,-8,-3,-41,-34,-7,-1,-4,-30
1523147580069882,1,-13,9,27,-4,-5,-2,12
1523147580084421,2,10,4,5,7,-2,1,-27
1523147580084421,-34,25,-11,-3,2,1,5,16
1523147580086428,-17,44,-1,-46,-14,-3,-4,51
1523147580086428,-20,15,2,28,12,2,-2,8
1523147580106981,2,-46,4,8,-7,1,1,-1
1523147580106981,-13,-8,-6,1,0,-1,0,-23
1523147580108992,31,-10,-16,17,12,2,2,-17
1523147580108992,22,15,14,18,11,2,10,38
1523147580120517,-42,8,-22,-32,-24,-6,-8,-23
1523147580120517,19,8,6,-9,-5,-11,-7,25
1523147580130044,34,22,16,7,3,7,3,14
1523147580130044,9,5,1,-4,-10,-8,-15,50
1523147580144582,84,68,-31,2,13,4,10,5
1523147580144582,-67,-64,-27,8,-5,-9,-20,-35
1523147580146086,-26,-46,-20,-35,-7,-3,9,-25
1523147580146086,15,50,17,21,0,-1,-11,-27
1523147580167148,-22,-19,10,-14,-6,-2,3,3
1523147580167148,40,21,-1,2,1,-2,7,-29
1523147580168647,43,21,49,-5,3,1,0,-23
1523147580168647,-3,-21,-16,-10,-11,-7,-17,-2
1523147580180679,1,-7,9,7,0,-4,-10,-3
1523147580180679,25,-12,-21,-7,5,4,18,24
1523147580189703,-13,-20,-6,-8,-12,-5,-6,7
1523147580189703,-40,-10,8,-4,0,-2,-14,62
1523147580204742,48,32,29,-2,-2,-1,1,3
1523147580204742,2,-35,-25,-14,-2,0,-3,18
1523147580206247,-4,-22,-35,-12,-6,-4,6,9
1523147580206247,-1,15,35,60,14,5,2,-49
1523147580227304,-24,-20,6,-19,0,-1,-12,11
1523147580227304,10,10,7,4,2,5,-2,16
1523147580228808,40,-11,-18,2,-3,-1,8,5
1523147580228808,-69,-23,-10,-22,-9,-17,2,-53
1523147580240839,-17,-11,8,22,6,10,-14,-39
1523147580240839,-3,15,39,66,20,9,5,-11
1523147580249863,25,0,-31,-30,-13,-10,-10,-7
1523147580249863,41,4,1,37,5,1,13,1
1523147580263903,4,9,-1,-7,-3,-2,3,36
1523147580263903,-2,-1,13,9,4,-2,-5,19
1523147580278460,-32,-5,-2,29,11,10,-2,-27
1523147580278460,8,12,41,38,14,17,9,13
1523147580286963,-6,-17,-29,7,-5,-8,3,-16
1523147580286963,7,-11,16,55,2,-2,-1,17
1523147580288967,-29,26,-20,-69,-15,-15,-11,-11
1523147580288967,3,-17,-23,-34,-6,1,-2,44
1523147580300999,-4,-6,40,52,15,6,0,-2
1523147580300999,-10,-8,-28,-43,-9,-11,-10,-18
1523147580309626,10,18,67,69,10,7,2,24
1523147580309626,12,0,-58,-76,-28,-1,2,-15
1523147580324673,-50,-9,11,32,4,-11,4,-12
1523147580324673,-23,-8,-20,-17,0,1,-9,5
1523147580326171,-10,-10,24,24,6,4,4,-12
1523147580326171,32,6,31,37,15,5,4,-2
1523147580347225,36,-7,14,-43,-8,3,19,6
1523147580347225,-26,-4,-24,40,-1,-6,-9,-18
1523147580348732,-1,9,22,77,20,2,-3,-17
1523147580348732,9,-1,-23,-18,-13,-10,-2,-20
1523147580360761,16,4,2,21,5,8,3,26
1523147580360761,-3,-3,2,-38,-1,3,3,-3
1523147580369785,-18,-4,1,19,-6,-1,-6,6
1523147580369785,-10,-5,8,-21,2,-5,-2,-10
1523147580384823,7,1,-16,0,-9,-3,1,7
1523147580384823,1,3,-16,23,-8,-4,-3,-4
1523147580386329,-27,-11,-4,62,0,-5,-7,-42
1523147580386329,-20,-28,-44,-104,-18,-7,-2,3
1523147580407383,73,21,7,30,3,1,2,6
1523147580407383,-9,9,26,24,5,4,3,4
1523147580408890,-13,-16,-30,-125,-23,-11,-7,4
1523147580408890,-2,-1,-15,3,4,3,7,-1
1523147580429539,26,10,2,-13,3,2,-1,34
1523147580429539,-17,-7,1,-25,-9,-6,-4,-18
1523147580431043,6,-16,-10,-16,-3,-4,-8,20
1523147580431043,4,5,12,34,2,-1,-7,-6
1523147580444645,-14,-3,-17,-26,-2,-2,2,-6
1523147580444645,8,-5,-2,-29,-10,-3,1,-5
1523147580446649,-13,-2,-27,-31,-9,0,1,6
1523147580446649,5,2,17,14,3,1,4,-19
1523147580467206,-17,-9,-47,-43,-20,-13,-16,3
1523147580467206,14,5,17,28,8,3,2,-14
1523147580468708,-9,2,-6,-15,-4,1,3,18
1523147580468708,1,11,13,50,14,0,-3,-3
1523147580489937,-4,4,14,-3,-22,0,4,-8
1523147580489937,-33,-10,-8,-47,14,2,2,4
1523147580491439,-14,18,27,52,13,7,4,9
1523147580491439,-17,-10,-6,91,4,-3,0,-36
1523147580504571,-20,-11,-28,-87,-21,-11,-9,-3
1523147580504571,-2,-27,-4,-25,-15,-4,0,8
1523147580506076,7,11,-7,33,14,1,-2,7
1523147580506076,3,14,25,11,7,5,2,2
1523147580527134,-14,-6,6,1,-6,0,1,-5
1523147580527134,13,0,-4,19,6,-2,-1,-14
1523147580528636,5,2,-25,-62,-14,-6,-2,-17
1523147580528636,13,-3,-5,-3,-4,2,-2,14
1523147580548689,-8,1,20,93,17,5,1,-4
1523147580548689,-1,5,-20,-79,-23,-10,-9,-13
1523147580557211,0,-19,-1,29,7,2,2,-3
1523147580557211,-3,16,5,-20,-10,-4,-1,9
1523147580564731,-24,32,-3,-25,2,-2,-1,-9
1523147580564731,-7,-75,-6,31,24,6,-4,28
1523147580566235,16,7,-4,-24,-28,-4,-2,-24
1523147580566235,23,29,-1,-8,8,-4,2,4
1523147580587291,-17,6,21,16,16,0,-6,11
1523147580587291,0,31,-8,-3,-18,-6,-6,-3
1523147580588795,-12,-23,-20,-11,8,1,0,-8
1523147580588795,4,-10,5,-11,3,5,-3,2
1523147580609849,7,20,20,19,-3,-5,0,-8
1523147580609849,-11,-33,-38,-1,7,6,15,16
1523147580611355,3,-6,-20,19,8,2,-7,-22
1523147580611355,-27,43,3,-15,0,1,4,-8
1523147580623933,22,-25,28,-5,-3,0,9,-29
1523147580623933,30,26,-47,-10,-23,-13,-14,22
1523147580630906,36,14,43,-1,11,1,-2,-30
1523147580630906,-31,42,-5,-16,-9,-9,3,-5
1523147580647450,49,-25,-12,-16,-4,-1,-2,-26
1523147580647450,28,17,21,16,11,2,-6,14
1523147580648954,28,49,36,-1,-10,-7,-9,31
1523147580648954,8,-67,-36,-15,-3,0,-9,8
1523147580669554,-66,-10,-1,9,5,-5,15,22
1523147580669554,62,40,47,-2,-4,1,-10,-71
1523147580671013,3,-21,-50,-11,-3,-4,16,53
1523147580671013,7,14,7,-7,-5,-4,-18,-2
1523147580684160,45,19,-17,-5,2,3,4,28
1523147580684160,10,41,107,-2,-19,-2,7,-10
1523147580690635,-58,-34,-61,12,12,0,3,-8
1523147580690635,13,-8,-5,2,-6,1,-3,-12
1523147580707221,-12,10,-31,-14,-8,-2,-7,-8
1523147580707221,5,-5,9,2,0,-1,1,-18
1523147580708680,-15,5,48,29,5,3,0,-34
1523147580708680,33,-34,-10,-5,1,5,14,-35
1523147580729741,-30,10,-4,12,4,-1,-5,6
1523147580729741,-39,14,13,20,12,8,-1,29
1523147580731240,4,-5,8,-20,-14,-3,-3,6
1523147580731240,4,-25,-7,19,3,-1,-5,1
1523147580743317,8,-2,-9,-46,-9,-4,7,-12
1523147580743317,-27,-15,-31,25,6,4,1,0
1523147580752299,-8,7,40,50,16,3,2,-5
1523147580752299,-9,16,5,-33,-10,-3,-4,6
1523147580767335,2,-31,-8,-1,2,8,3,-21
1523147580767335,-5,4,-40,25,0,-3,6,15
1523147580768841,14,5,41,70,2,-2,-13,23
1523147580768841,31,6,18,-35,0,-4,22,21
1523147580789896,-51,-30,-35,-5,-18,-9,-41,-16
1523147580789896,-9,-16,-7,35,11,5,-3,-97
1523147580791405,-40,5,-9,-31,-8,-1,14,67
1523147580791405,9,14,25,35,1,-3,-14,-28
1523147580803431,14,2,10,30,4,-5,0,-1
1523147580803431,4,-4,6,-1,14,1,13,7
1523147580812456,-5,-4,-25,-72,-24,-3,-22,-8
1523147580812456,-29,-8,8,64,6,3,6,18
1523147580834514,13,-9,-16,-32,1,-3,-6,-5
1523147580834514,2,14,27,24,2,2,-6,22
1523147580836520,6,-51,6,38,10,6,15,-5
1523147580836520,-32,-36,-55,-52,-14,-7,-10,10
1523147580849558,28,17,-2,-4,-11,6,8,17
1523147580849558,-9,19,12,27,1,-2,6,15
1523147580851560,-10,-49,-51,-60,-8,-7,-13,-32
1523147580851560,-15,-7,-24,-50,-6,-1,-2,-21
1523147580864094,-2,-2,20,38,13,2,2,-4
1523147580864094,19,-5,3,17,2,-2,4,20
1523147580870618,10,25,10,-1,-7,-2,-3,-6
1523147580870618,-14,-1,8,13,5,2,-4,-39
1523147580887236,21,6,33,95,16,12,16,37
1523147580887236,1,-17,-86,-116,-38,-12,-10,-4
1523147580888660,-2,13,10,64,3,-4,-3,-19
1523147580888660,-11,-3,-2,53,4,1,0,3
1523147580909794,2,1,-3,-1,1,-4,-3,0
1523147580909794,-13,-1,7,-25,-3,3,-1,-4
1523147580911220,-7,3,-8,-32,-5,-3,1,-13
1523147580911220,21,9,40,88,17,4,3,18
1523147580923298,-12,-8,-29,-18,-19,-9,-6,-7
1523147580923298,-27,-1,-3,-5,-8,0,-5,-4
1523147580932275,12,4,2,-13,-5,-5,-4,-6
1523147580932275,-8,-1,-1,39,12,0,-1,9
1523147580947313,-10,-33,-11,-35,5,-1,-2,-6
1523147580947313,21,10,13,0,1,-4,6,7
1523147580948819,15,22,31,11,-2,-4,-4,-6
1523147580948819,-27,-41,-36,-37,-10,2,1,3
1523147580969874,-18,-5,-13,-8,5,0,0,-10
1523147580969874,5,0,-25,-33,-7,-3,1,-5
1523147580971379,-4,7,20,30,16,7,0,-13
1523147580971379,-2,15,31,35,3,-2,2,15
1523147580983409,-12,-18,-58,-102,-34,-16,-11,-15
1523147580983409,1,-7,8,51,9,3,-1,-9
1523147580992436,-6,15,8,23,1,1,3,5
1523147580992436,9,-2,-5,-2,-1,0,-1,5
1523147581007019,9,-11,23,31,2,1,3,6
1523147581007019,-5,0,-12,-38,0,-2,-5,-27
1523147581008978,0,-10,-25,-7,-3,-6,-14,2
1523147581008978,11,8,-24,-97,-17,-5,-1,-11
1523147581029539,12,33,34,54,22,6,1,-3
1523147581029539,-7,4,15,6,-6,2,8,22
1523147581031539,-12,-20,5,20,1,8,21,-68
1523147581031539,4,-2,-14,-20,-9,-7,-26,33
1523147581043570,-2,7,11,32,4,0,-1,-28
1523147581043570,-10,-12,-2,42,19,-5,0,2
1523147581052095,2,5,-33,-60,-23,-3,-14,-12
1523147581052095,5,12,22,33,2,4,16,-8
1523147581067135,2,-8,-1,-36,4,4,-2,16
1523147581067135,-2,-15,2,18,6,2,6,-46
1523147581068638,3,16,10,-11,-7,-6,-5,23
1523147581068638,-4,-7,6,-34,-4,-3,-1,-26
1523147581089768,0,-5,1,5,1,-1,8,19
1523147581089768,-5,6,-12,-12,-2,-4,-38,-23
1523147581091198,4,-15,-27,-3,-23,-6,20,52
1523147581091198,18,2,1,20,-2,1,-15,32
1523147581103275,-10,26,44,7,5,8,31,-37
1523147581103275,7,7,23,-1,1,5,33,55
1523147581112256,-14,20,-20,5,6,-3,-72,-7
1523147581112256,-10,-38,-65,-13,-12,-11,0,6
1523147581127344,42,0,7,-7,4,4,3,7
1523147581127344,-4,-23,-2,3,-6,1,6,-27
1523147581128798,25,48,20,-6,5,-1,7,14
1523147581128798,52,-14,-4,-9,6,4,44,-9
1523147581149853,28,32,-22,-3,-1,-12,-26,-14
1523147581149853,16,33,-32,-24,-14,-6,-6,45
1523147581151358,-39,-64,-28,-6,0,3,14,-64
1523147581151358,34,73,46,5,-4,-5,-42,-44
1523147581163390,-2,-4,12,-6,-4,-7,8,56
1523147581163390,56,-17,-29,0,-11,-9,-10,-44
1523147581172413,20,0,-2,-9,-5,-6,5,46
1523147581172413,-4,-22,6,8,1,1,-8,36
1523147581186452,8,26,-37,-9,-2,4,2,-5
1523147581186452,3,-4,18,-1,3,-3,-34,-12
1523147581193467,25,20,27,19,14,4,12,2
1523147581193467,-46,-24,3,4,-1,2,7,-51
1523147581209514,3,-30,7,8,3,1,-13,11
1523147581209514,-32,-37,-46,-2,-8,-2,8,-25
1523147581211015,-6,-42,6,1,4,6,12,30
1523147581211015,3,26,34,6,11,-2,-3,4
1523147581223050,-20,5,-2,23,1,1,0,-26
1523147581223050,-14,-5,-2,-6,-7,2,10,30
1523147581232071,-12,-4,-4,20,5,-5,-7,-14
1523147581232071,-19,-10,-29,-12,1,4,23,-27
1523147581247112,29,-2,29,43,4,-5,-47,35
1523147581247112,-11,7,12,-6,1,1,-2,15
1523147581248617,16,15,32,95,16,7,8,-1
1523147581248617,-12,-9,-17,33,-12,-9,-4,-4
1523147581269672,-9,-7,5,46,5,1,7,16
1523147581269672,-2,-1,12,-10,-1,-3,-12,20
1523147581271176,-1,12,30,6,18,10,4,-35
1523147581271176,-38,-21,-41,-81,-13,-4,-9,-35
1523147581283208,-17,-15,-17,-19,-11,-7,-24,84
1523147581283208,-9,9,25,-1,-2,3,24,-26
1523147581298249,-34,-4,1,18,0,-1,-1,14
1523147581298249,28,10,16,17,0,-5,-10,6
1523147581307327,-20,7,-18,-55,-6,-9,3,-46
1523147581307327,-3,-13,14,66,7,5,2,-4
1523147581308777,-30,-3,-43,-84,-8,2,5,14
1523147581308777,7,-4,17,40,4,1,3,16
1523147581329831,-3,0,11,8,-3,-1,8,-12
1523147581329831,14,2,0,-4,0,-8,-3,19
1523147581331336,12,5,-6,-48,-32,-4,4,-41
1523147581331336,6,-22,-39,6,11,4,9,91
1523147581343423,-11,0,-10,-16,1,5,0,-7
1523147581343423,-8,-7,20,60,15,4,-6,0
1523147581352393,9,-4,3,-1,-1,-3,-4,14
1523147581352393,-14,6,-19,-1,-4,-4,-2,-59
1523147581366980,0,-11,-3,30,-5,-4,2,1
1523147581366980,-8,6,-11,-49,1,8,12,10
1523147581368935,2,-14,-32,-9,4,-4,-5,45
1523147581368935,9,6,45,59,5,2,5,9
1523147581390041,-6,3,-12,-55,-9,0,-5,-21
1523147581390041,-9,-4,-22,5,-6,-6,-11,-9
1523147581391496,-1,10,19,76,7,-3,-1,-26
1523147581391496,3,-13,-9,-83,-16,-4,-1,2
1523147581412105,0,-3,0,16,-5,-4,2,-19
1523147581412105,-6,9,-6,-17,-1,-3,0,4
1523147581413556,2,-6,-7,-28,-3,-4,5,-45
1523147581413556,29,12,14,44,8,7,-18,48
1523147581427142,-5,0,11,-6,-4,-2,14,-13
1523147581427142,26,-4,2,-7,-5,7,5,11
1523147581428595,4,4,-2,-6,-2,-7,-10,-23
1523147581428595,-15,-6,-15,-16,-2,0,2,13
1523147581449652,-3,-10,3,54,6,3,5,-65
1523147581449652,-9,-1,-10,-16,-9,-12,-7,7
1523147581451156,0,-3,-15,-22,-1,7,2,6
1523147581451156,-11,8,22,13,3,-5,1,-3
1523147581472210,8,-5,-10,1,0,3,-3,3
1523147581472210,-21,1,25,11,7,4,7,-21
1523147581473717,10,7,57,46,22,9,12,33
1523147581473717,-9,-2,-40,-5,-13,-8,-9,-26
1523147581487250,-3,-6,-5,24,0,0,0,7
1523147581487250,-32,6,2,-15,-9,-9,-2,-16
1523147581488758,6,1,-13,-35,-5,-3,7,9
1523147581488758,5,5,37,8,6,7,-12,8
1523147581509809,1,6,13,18,5,1,4,-4
1523147581509809,4,-3,-21,-31,-5,-4,-1,21
1523147581511315,-3,-18,-19,-5,-7,0,-9,64
1523147581511315,-37,6,8,8,3,0,7,-11
1523147581532369,-25,-13,-9,-32,-7,-2,-6,-7
1523147581532369,3,-18,-10,11,3,-3,-5,-6
1523147581533875,14,21,-1,0,-5,-6,0,-10
1523147581533875,10,-18,-24,-19,-3,1,4,36
1523147581546410,-38,-4,13,19,3,1,-4,10
1523147581546410,53,21,22,-13,1,1,1,3
1523147581553429,3,20,21,-3,-5,-7,-7,-10
1523147581553429,-13,-6,-13,11,-4,-7,2,-20
1523147581568967,17,0,16,-15,-2,9,16,-10
1523147581568967,7,-5,-6,19,-3,-4,-17,71
1523147581577491,-57,1,0,-14,-8,-1,-3,-17
1523147581577491,59,20,21,8,2,-2,1,-35
1523147581592084,-16,-11,-15,-21,-9,-13,-19,58
1523147581592084,36,-3,13,2,-2,-4,1,-13
1523147581593535,15,-19,-33,-7,-6,0,4,-16
1523147581593535,12,2,13,-5,-2,-5,-5,23
1523147581605615,23,10,-25,-1,-13,-4,6,-10
1523147581605615,-28,-8,-6,16,12,11,6,-14
1523147581614590,27,-38,16,-3,-6,-9,-11,-38
1523147581614590,-22,-51,-40,24,5,6,-7,24
1523147581637201,26,8,-20,-20,0,-2,-16,-19
1523147581637201,-31,-1,24,8,2,2,-3,-69
1523147581638653,2,-4,-12,-3,0,-5,11,78
1523147581638653,-7,22,22,-13,-14,-3,-5,44
1523147581652244,19,9,18,-2,0,-2,-3,-30
1523147581652244,6,-1,-48,-9,-5,-4,-4,37
1523147581653694,-12,9,0,9,7,1,-5,26
1523147581653694,25,28,18,-15,0,3,29,-3
1523147581665775,-75,7,-31,-3,3,-6,-24,-21
1523147581665775,-10,-7,53,-9,-11,-6,12,-67
1523147581674752,-2,-31,-43,-8,-8,-9,-21,36
1523147581674752,-51,14,16,8,8,9,7,-13
1523147581689788,34,2,6,0,2,4,12,9
1523147581689788,1,24,-2,44,7,3,6,8
1523147581691297,19,1,-23,-50,-13,-2,2,-33
1523147581691297,-1,-7,8,24,0,-5,-9,-21
1523147581712853,-8,25,28,19,10,7,15,-1
1523147581712853,13,-9,-24,5,-8,-1,-9,15
1523147581714355,30,4,-6,92,13,4,9,66
1523147581714355,-58,-17,-54,-100,-26,-15,-17,-36
1523147581726437,-9,8,53,68,17,3,6,-25
1523147581726437,-5,-5,-29,-11,-11,-7,-8,13
1523147581733419,15,1,-11,-47,0,5,5,-26
1523147581733419,30,2,-5,-6,-3,-5,9,-48
1523147581749450,8,-19,-15,-69,-13,5,-9,86
1523147581749450,-8,-10,8,67,14,14,0,-46
1523147581750952,-15,-8,-21,-98,-25,-11,-13,8
1523147581750952,7,10,28,37,1,-1,-11,-11
1523147581772183,-20,-17,-1,-22,-4,-11,-3,-33
1523147581772183,9,7,8,-9,-3,-11,-4,25
1523147581773640,-21,7,8,14,15,15,7,-86
1523147581773640,-1,1,7,20,-2,9,8,80
1523147581786670,16,-4,-23,-30,-16,-8,23,51
1523147581786670,-4,-4,5,-59,-13,-7,-24,-10
1523147581793238,-35,-5,-34,34,-2,-4,2,-45
1523147581793238,8,3,-7,7,6,-5,-7,-43
1523147581809798,5,0,31,62,19,6,5,11
1523147581809798,10,-10,-41,-61,-23,-4,7,0
1523147581811237,-3,12,43,35,5,3,3,-4
1523147581811237,3,18,3,-63,14,-3,-3,-29
1523147581832320,-8,-1,-12,15,-13,-10,-1,5
1523147581832320,15,8,25,2,15,25,9,-1
1523147581833797,-9,-18,-2,9,4,1,-2,0
1523147581833797,-7,11,23,72,18,9,-2,-7
1523147581846330,16,14,16,23,9,-12,-2,-31
1523147581846330,-18,-42,-27,-6,-7,0,-2,22
1523147581853409,-2,-1,-33,13,-14,-6,-2,-10
1523147581853409,7,7,24,82,10,-3,17,28
1523147581869891,5,-24,-27,-21,-7,5,-25,1
1523147581869891,-15,19,30,69,12,-2,8,-35
1523147581871396,-6,-13,-22,-26,-11,-4,-12,25
1523147581871396,4,-6,13,-6,6,1,-4,-56
1523147581892001,-2,-15,-38,-29,-18,-5,3,18
1523147581892001,-20,-17,0,23,0,5,-2,9
1523147581893959,7,16,21,-24,3,-4,0,-23
1523147581893959,0,-19,-31,-8,-7,0,0,9
1523147581905987,-3,-16,-10,-42,-14,1,1,-16
1523147581905987,-4,14,20,33,12,-5,0,11
1523147581915012,3,-12,21,54,10,1,10,-6
1523147581915012,0,-1,-3,-19,-14,-4,-6,32
1523147581929555,0,-7,24,56,12,4,4,-5
1523147581929555,-8,-12,-51,-93,-10,-14,-3,3
1523147581931056,5,24,15,6,2,6,2,5
1523147581931056,5,9,9,-1,-7,-6,5,3
1523147581952161,2,19,29,29,10,9,0,-11
1523147581952161,1,3,-6,-4,-4,-6,-3,3
1523147581953616,-6,-6,-9,11,3,-2,-4,-19
1523147581953616,-6,-16,-32,-100,-17,-4,-8,47
1523147581965695,5,19,6,-16,2,-3,-5,-6
1523147581965695,-13,8,10,2,2,1,3,-16
1523147581974671,3,2,-1,-5,-3,-5,7,42
1523147581974671,-18,-7,12,30,10,14,2,-16
1523147581989761,-2,2,-22,18,1,-2,-3,1
1523147581989761,-2,-3,-20,-27,-6,-5,-2,30
1523147581991216,-1,-5,28,21,5,-2,-4,-17
1523147581991216,6,8,10,-1,-3,-3,5,-3
1523147582012270,4,-15,-21,-7,4,4,4,5
1523147582012270,1,12,19,23,-2,0,-1,-6
1523147582013776,2,4,-5,-19,-2,-2,-4,-7
1523147582013776,26,-1,-9,5,-5,-4,-7,-7
1523147582025868,-22,-7,5,-5,-1,0,-4,-14
1523147582025868,5,0,3,9,4,1,2,6
1523147582034832,-5,5,7,1,-2,2,-3,0
1523147582034832,16,4,5,7,8,2,-2,-8
1523147582049871,-7,-13,0,-19,-13,-3,1,-6
1523147582049871,8,3,-4,12,-10,-8,-4,6
1523147582051376,23,2,7,-5,7,2,1,6
1523147582051376,-66,-10,9,6,-4,-2,-4,-17
1523147582071984,-15,5,-17,-4,27,2,5,-8
1523147582071984,10,-40,6,4,-8,1,13,32
1523147582073935,-16,37,8,-22,-22,-2,-12,16
1523147582073935,-21,-48,-2,9,3,4,16,-22
1523147582085967,-49,56,19,-15,-9,-2,-9,-3
1523147582085967,-82,-14,-14,10,11,1,16,10
1523147582094994,27,30,16,10,10,2,-23,-1
1523147582094994,2,-10,-5,-10,-11,-11,-21,24
1523147582109083,15,38,2,5,-3,7,26,-18
1523147582109083,-5,-17,-8,2,12,-1,1,23
1523147582115548,-7,-46,-38,-17,-11,-7,-2,-45
1523147582115548,-11,11,19,21,6,0,-26,-56
1523147582132140,30,19,1,-20,-5,-3,13,19
1523147582132140,10,-67,22,-12,-5,-4,-10,-44
1523147582133595,-8,82,-17,2,-3,1,6,16
1523147582133595,22,17,9,6,8,0,2,30
1523147582145628,-5,-26,-76,-8,-2,-4,-3,-47
1523147582145628,15,28,1,8,-2,6,-5,-10
1523147582154650,-36,5,7,2,15,-4,-4,21
1523147582154650,2,-10,-5,-8,-12,-4,1,-30
1523147582169187,28,12,40,51,7,0,-3,24
1523147582169187,7,23,-68,-94,-35,-8,-6,10
1523147582175825,-9,-27,4,17,12,0,0,-13
1523147582175825,8,28,11,31,-5,0,8,3
1523147582192365,9,-32,-17,-23,-11,0,-7,-1
1523147582192365,39,30,41,70,21,3,-5,-4
1523147582193754,7,-28,-22,15,-6,1,6,-13
1523147582193754,-3,-4,-24,-22,-10,-5,6,-13
1523147582222335,-12,-47,-39,-31,-14,-13,-9,4
1523147582222335,11,18,12,-10,11,8,0,8
1523147582223834,-22,-14,12,22,-11,-12,-20,-25
1523147582223834,14,-5,-18,-19,9,4,14,41
1523147582228847,3,0,25,28,-1,17,-3,-6
1523147582228847,28,34,7,-31,-10,-12,3,7
1523147582235984,-29,-51,-1,2,7,3,-1,6
1523147582235984,27,-11,-21,-23,-10,-9,-18,-6
1523147582252025,-2,15,24,-16,2,-7,1,12
1523147582252025,-8,-3,-3,61,16,8,1,-32
1523147582253913,20,2,3,10,-9,-5,-1,-12
1523147582253913,4,19,16,18,4,0,2,1
1523147582266008,13,-22,18,80,12,4,-2,11
1523147582266008,13,12,11,6,2,0,-1,4
1523147582274969,1,-13,-25,4,-8,-8,1,-8
1523147582274969,5,-4,3,-4,-4,3,6,24
1523147582289625,-11,-8,-13,-12,1,5,2,-16
1523147582289625,-16,2,38,104,25,5,4,-30
1523147582291513,13,-18,-26,-118,-36,1,10,17
1523147582291513,-18,7,-19,31,4,-3,-9,-13
1523147582313072,2,-3,2,-10,-2,-13,2,-38
1523147582313072,0,-6,1,-37,-6,4,-18,59
1523147582314576,10,13,18,42,11,7,6,8
1523147582314576,-13,-1,6,25,3,5,19,-22
1523147582334749,9,-9,12,15,2,-7,-24,48
1523147582334749,-11,-7,-66,-97,-32,-11,-10,-23
1523147582336134,21,22,30,66,7,2,3,2
1523147582336134,20,10,3,38,1,2,-2,20
1523147582349785,-43,-56,-43,-70,-20,-9,-2,-19
1523147582349785,-20,3,8,-21,1,-3,1,-19
1523147582351173,8,21,5,-10,2,0,3,8
1523147582351173,-21,-20,-17,-56,-8,-4,-6,-7
1523147582372340,13,21,36,38,8,8,8,14
1523147582372340,-3,-18,-43,-55,-29,-12,-8,-4
1523147582373736,-16,-3,-5,-12,4,-3,2,-16
1523147582373736,7,19,15,17,12,4,1,12
1523147582394885,6,6,22,63,3,6,0,2
1523147582394885,-14,-18,-24,-62,-12,-5,0,3
1523147582396293,-4,-2,16,34,7,1,-3,-6
1523147582396293,-11,-16,-17,2,-7,-6,-7,1
1523147582409860,6,4,-11,-60,-8,1,0,17
1523147582409860,4,16,27,52,7,1,-2,-17
1523147582411333,9,0,22,-15,-3,-5,-4,21
1523147582411333,-1,-23,-32,5,-2,-5,-6,-14
1523147582432388,-2,12,-9,-14,1,-5,2,-15
1523147582432388,13,13,15,39,2,4,3,11
1523147582433892,-22,-21,-12,-38,1,-2,-3,-20
1523147582433892,-11,3,7,-10,-6,-2,-8,-6
1523147582454563,17,13,19,89,14,1,1,5
1523147582454563,-2,2,-10,-21,2,-3,1,0
1523147582456502,-10,-19,-17,-20,-20,-1,1,3
1523147582456502,1,-3,-6,6,-2,0,-1,-1
1523147582469488,-36,-10,-15,-5,4,-4,-2,-8
1523147582469488,5,12,46,127,19,1,-2,-14
1523147582471497,0,-5,-10,-5,-3,1,6,20
1523147582471497,-11,-4,0,8,-1,2,15,-14
1523147582499684,2,2,-3,-23,-4,-4,-14,9
1523147582499684,2,15,17,37,16,3,1,-6
1523147582501074,12,-14,2,14,1,0,0,3
1523147582501074,-4,2,-3,-11,-2,4,5,-3
1523147582514607,1,-4,-9,-19,-4,0,0,-13
1523147582514607,2,-3,17,-15,-7,2,5,15
1523147582516112,27,22,25,6,5,0,-1,-13
1523147582516112,4,-3,-5,-7,2,-3,-5,5
1523147582529147,-2,-12,-20,-18,-7,-5,-4,-11
1523147582529147,-4,-5,-14,-11,4,-2,-4,7
1523147582535780,-15,-10,-14,-11,-9,-6,-4,-15
1523147582535780,-1,4,55,26,9,6,2,4
1523147582552208,20,-20,2,7,13,6,13,17
1523147582552208,-10,-2,-7,-8,-14,-4,-1,-13
1523147582553714,-52,42,69,-5,-5,0,7,-24
1523147582553714,-11,-11,-50,-43,1,0,-20,9
1523147582574862,-28,3,11,39,4,5,10,-24
1523147582574862,-3,12,-11,-4,4,3,1,-33
1523147582576272,-6,45,9,1,-2,-3,6,-27
1523147582576272,62,-2,44,-27,-2,0,-23,39
1523147582588805,-4,-1,-23,0,-4,-6,6,7
1523147582588805,-74,-100,-17,44,22,9,-8,-40
1523147582595823,25,56,25,4,-8,-5,-6,55
1523147582595823,-31,30,-36,5,9,3,2,4
1523147582611867,89,76,-21,-29,-14,-11,-9,-28
1523147582611867,20,4,33,-10,11,2,2,-1
1523147582613871,7,-65,-55,10,-3,2,16,-18
1523147582613871,-27,-12,13,16,3,2,-1,-15
1523147582634427,1,-65,25,-22,-14,-10,-26,55
1523147582634427,-26,3,5,-4,-13,-7,2,22
1523147582636534,13,38,-41,-9,7,0,-11,-20
1523147582636534,8,17,9,13,2,-2,19,-29
1523147582648487,-47,10,17,-24,-13,-2,6,14
1523147582648487,1,0,-17,-8,-11,-6,2,0
1523147582656986,14,-61,7,31,19,3,-9,-10
1523147582656986,-4,-10,0,-3,-12,-3,2,1
1523147582672258,1,26,10,4,9,2,6,-4
1523147582672258,9,11,-27,-11,-17,-6,-4,25
1523147582674072,-3,-17,-8,-1,-8,3,2,3
1523147582674072,13,0,-17,8,-2,0,2,-10
1523147582694827,-6,8,-11,6,4,0,-6,-11
1523147582694827,20,13,-7,-48,-10,-1,-3,-6
1523147582696091,-5,-13,7,1,11,-3,-8,9
1523147582696091,0,4,7,-3,-4,0,7,15
1523147582708327,3,-22,13,49,0,0,0,-6
1523147582708327,16,14,-1,-15,-3,1,-1,20
1523147582717147,-2,-2,16,67,3,0,-3,0
1523147582717147,-7,-25,-16,16,-5,-16,-3,5
1523147582732421,-4,20,-8,-56,6,24,14,22
1523147582732421,29,24,60,73,18,5,-2,-6
1523147582733690,1,-3,-20,-37,-9,-2,-2,-33
1523147582733690,-2,14,-18,-15,-15,-10,-7,6
1523147582754944,-25,-13,1,5,-5,-9,-2,25
1523147582754944,7,3,3,22,-1,1,9,-10
1523147582756250,-14,-37,-25,-23,2,2,-12,-5
1523147582756250,12,37,16,-17,-10,-2,3,-17
1523147582777305,12,-27,24,43,3,-2,1,-4
1523147582777305,-34,-4,-22,-57,0,-1,-1,7
1523147582778810,8,-1,-32,-31,-12,-5,3,20
1523147582778810,17,5,3,70,17,9,2,3
1523147582792431,-16,-18,-19,-39,-4,-5,-7,-23
1523147582792431,9,3,-6,-14,-8,-8,-5,-2
1523147582794015,2,-6,-5,-11,2,3,5,2
1523147582794015,-19,-11,-10,-16,-6,-3,-4,1
1523147582814905,6,23,4,-27,-4,-2,-7,-11
1523147582814905,4,-4,-20,44,11,-2,1,-2
1523147582816410,1,21,13,-30,-3,-5,-4,2
1523147582816410,4,17,-8,-21,-15,-1,3,11
1523147582828442,-1,-7,10,38,-1,-3,-3,-13
1523147582828442,1,3,-12,-5,-1,-2,0,2
1523147582837467,-9,5,2,4,7,2,0,0
1523147582837467,15,9,15,8,3,-1,-3,0
1523147582852162,2,-17,7,15,-4,-4,1,-8
1523147582852162,-12,-9,-19,-54,-7,-1,-3,-4
1523147582854076,-9,12,0,21,5,4,1,11
1523147582854076,-2,-12,22,1,4,-1,-3,-5
1523147582874735,12,16,-7,-3,0,-5,-2,2
1523147582874735,5,-4,4,-25,-5,-1,1,-3
1523147582876571,2,10,-4,0,-9,-2,-2,2
1523147582876571,-16,-27,-15,-13,-1,-3,-2,-1
1523147582888259,7,11,-3,15,1,-4,-5,-10
1523147582888259,7,11,10,20,5,1,-2,6
1523147582897125,-1,-5,-13,13,4,-2,-2,0
1523147582897125,-10,-21,-4,-2,-2,3,-2,-13
1523147582912164,-5,-6,-19,-11,-8,-1,-4,-13
1523147582912164,3,4,12,27,0,-5,-1,9
1523147582913670,6,1,15,-18,-6,-3,-1,9
1523147582913670,-1,-6,-38,-45,2,1,1,-2
1523147582934881,-11,1,-6,-3,1,2,-3,-65
1523147582934881,8,-6,-7,-3,-9,-5,-4,45
1523147582936230,0,15,17,15,-2,-3,-2,0
1523147582936230,-1,-4,-4,2,9,1,2,-4
1523147582948262,-1,-16,-7,-5,-4,-1,4,4
1523147582948262,-8,-1,14,-10,-8,-2,-2,-27
1523147582957287,8,-1,47,13,6,4,4,9
1523147582957287,-4,7,-1,13,1,-2,-5,1
1523147582972403,2,7,7,23,8,4,3,15
1523147582972403,-3,-2,2,34,1,0,-1,-10
1523147582973830,-3,-20,4,-80,-27,-9,-4,18
1523147582973830,-1,-7,-57,41,3,1,3,-5
1523147582994516,0,10,14,48,9,1,3,11
1523147582994516,-1,7,1,19,2,-1,-2,-8
1523147582996390,4,-37,27,10,4,-2,-5,-1
1523147582996390,-5,-7,-15,-31,-9,-5,1,-4
1523147583008525,-11,-2,-17,-11,2,1,-1,-23
1523147583008525,11,19,-23,-13,-3,-1,-7,-21
1523147583017445,-15,-41,-50,6,-3,-2,0,4
1523147583017445,-1,-9,27,9,-5,-5,-12,4
1523147583032140,-2,14,21,4,4,4,7,-4
1523147583032140,-4,-25,-1,-15,3,3,10,9
1523147583033488,25,36,-4,22,6,1,-6,-12
1523147583033488,5,20,18,3,-4,1,-1,-12
1523147583054701,0,8,9,-22,-10,-7,-5,10
1523147583054701,-1,-32,-4,15,9,5,6,12
1523147583056548,-1,-1,4,29,4,1,5,8
1523147583056548,6,7,4,3,3,2,4,6
1523147583068235,0,-35,14,-23,-8,-6,-7,10
1523147583068235,1,11,0,0,-5,-2,-1,7
1523147583077103,-23,24,-3,2,3,-3,2,-18
1523147583077103,20,-34,32,6,2,1,4,-8
1523147583092809,0,27,-14,-23,-20,-6,-5,8
1523147583092809,4,-76,-8,3,-2,-2,0,-29
1523147583094091,-17,13,-30,-4,-4,-6,-8,13
1523147583094091,-17,-16,-20,-13,4,1,-1,-1
1523147583114644,34,10,12,-5,1,0,-7,-26
1523147583114644,-33,16,-23,-7,-8,-4,1,2
1523147583116148,-49,47,31,24,15,3,7,-24
1523147583116148,-32,-11,19,1,1,-1,-8,15
1523147583128181,-9,-52,-39,3,4,2,4,13
1523147583128181,-36,-23,-29,-15,0,-2,-2,14
1523147583137204,11,-17,29,23,10,5,5,23
1523147583137204,54,51,-5,-4,-8,-5,-5,-28
1523147583152280,-26,9,-18,-10,-8,-2,-1,69
1523147583152280,32,-19,-43,-23,-14,-11,-25,-12
1523147583158424,20,10,-9,-3,-2,0,3,43
1523147583158424,51,52,-4,-10,1,3,21,44
1523147583174946,-10,-10,-14,-5,1,-2,-14,-36
1523147583174946,37,19,20,2,3,0,6,-13
1523147583176309,53,6,-38,-16,-5,0,-6,-1
1523147583176309,-46,-21,34,8,-5,-5,-4,3
1523147583188497,3,4,3,10,6,2,9,11
1523147583188497,8,7,4,10,6,4,8,9
1523147583197365,-5,-16,2,3,-10,-1,0,-24
1523147583197365,-6,-28,-23,-17,-3,-7,-7,0
1523147583211403,5,6,18,1,7,8,10,1
1523147583211403,-10,13,22,23,2,2,-4,1
1523147583218563,-15,-5,14,35,4,-1,1,-7
1523147583218563,-11,-13,-7,-2,2,2,-1,-3
1523147583234463,-6,10,-12,-24,1,-6,-5,0
1523147583234463,-12,12,-26,-53,-9,-7,-2,-4
1523147583236539,8,-13,-35,-44,-12,-6,-4,-9
1523147583236539,-13,4,6,61,8,1,-5,3
1523147583248591,-1,7,22,-31,6,6,5,-12
1523147583248591,1,6,-14,-5,-5,0,8,-1
1523147583257022,-15,-1,13,20,-9,-13,-8,-5
1523147583257022,-30,-11,0,24,20,7,-8,4
1523147583271718,1,13,1,-43,-17,-5,6,17
1523147583271718,-32,-38,31,12,8,7,-8,8
1523147583278079,7,6,-9,-3,-10,-10,-3,-15
1523147583278079,-9,1,19,17,2,3,13,20
1523147583293781,6,21,-28,-37,-3,2,-12,2
1523147583293781,26,21,11,20,-2,-3,2,3
1523147583302674,6,-11,9,12,2,5,-2,-1
1523147583302674,-2,-12,2,-12,2,-4,-8,-12
1523147583317340,-10,-6,-22,-10,-10,-6,1,-12
1523147583317340,1,13,9,5,-1,1,0,-4
1523147583318686,-1,-1,-16,-32,3,4,-2,5
1523147583318686,2,15,-20,4,-9,-3,-3,-30
1523147583332381,17,13,4,37,4,-1,3,6
1523147583332381,27,6,26,8,2,-1,-4,6
1523147583333727,-36,-18,-63,-34,-4,5,1,-9
1523147583333727,10,-2,-2,-13,-8,-5,-5,-3
1523147583354892,-21,3,9,23,5,-2,-9,-22
1523147583354892,-6,-2,-18,-4,-6,-4,-9,-1
1523147583356288,5,-4,36,23,7,4,6,1
1523147583356288,12,-3,-19,-21,-15,-3,-1,-2
1523147583377205,-13,-16,-11,-59,-9,-7,-3,13
1523147583377205,-26,17,16,15,2,-3,0,-17
1523147583378549,-2,-4,-7,2,4,4,5,-8
1523147583378549,-10,0,1,-16,-9,-4,-10,-10
1523147583391740,6,-3,24,68,7,-2,-2,-13
1523147583391740,-23,-42,-4,-16,-3,5,5,-12
1523147583398601,21,2,-6,-10,-2,-4,-4,23
1523147583398601,3,1,4,4,-1,2,2,-10
1523147583414802,-23,-24,4,26,-2,-3,-1,-2
1523147583414802,-11,3,-29,-17,-10,-6,-3,-5
1523147583416150,-2,-6,-10,-25,-1,-1,-1,-16
1523147583416150,-24,1,14,-7,-5,-2,-6,-4
1523147583437367,58,0,-4,6,-3,-2,3,7
1523147583437367,-15,5,3,27,10,3,0,5
1523147583438711,2,-1,36,52,7,0,-3,-8
1523147583438711,-8,-3,0,1,-3,-5,0,4
1523147583451241,4,-13,-9,1,1,3,6,1
1523147583451241,2,17,-6,14,7,1,3,-1
1523147583458261,4,11,40,77,10,1,-1,6
1523147583458261,8,-6,-48,-79,-21,-7,-6,-11
1523147583474804,-17,-11,6,31,4,1,3,-15
1523147583474804,17,10,16,4,2,0,0,20
1523147583476362,-28,-4,-4,5,3,0,1,-8
1523147583476362,6,1,9,19,-8,-2,-4,3
1523147583496864,8,-5,-21,-53,-13,-4,-6,-21
1523147583496864,17,8,-4,-19,-3,0,1,12
1523147583498868,2,0,-10,-21,0,1,4,3
1523147583498868,-15,-9,22,24,7,-1,-1,-7
1523147583511401,-1,6,12,-10,-1,-5,-5,-2
1523147583511401,3,-6,-19,7,-7,-8,-4,-7
1523147583518420,8,-4,4,20,-1,1,-4,2
1523147583518420,19,-1,-6,-35,-4,0,6,11
1523147583534501,1,4,14,30,8,5,3,8
1523147583534501,-20,-1,5,-14,-1,0,1,-5
1523147583536548,-4,-4,-10,-5,0,-1,-2,-2
1523147583536548,2,4,4,1,-6,-4,-2,-2
1523147583557025,11,-1,-8,0,-5,-3,-3,5
1523147583557025,-2,2,2,-4,0,-1,-1,-3
1523147583559091,14,7,-9,-38,-5,-3,-2,0
1523147583559091,29,7,14,26,16,6,5,1
1523147583579600,-29,-31,8,-4,0,-1,-2,4
1523147583579600,33,30,5,-13,-14,-7,-3,-7
1523147583581092,-7,-81,-7,-6,-5,-6,-1,18
1523147583581092,34,35,10,3,10,4,12,19
1523147583594624,27,13,11,2,-1,-4,-12,-12
1523147583594624,5,-24,-22,21,0,-1,-3,-2
1523147583596136,28,-9,6,-9,2,0,-5,-9
1523147583596136,21,44,-11,-1,10,1,5,2
1523147583617184,57,-1,-8,-4,-23,-4,5,6
1523147583617184,25,51,55,15,16,10,5,-42
1523147583618688,-11,-31,1,22,8,1,-2,9
1523147583618688,-19,-20,-64,-5,-31,-10,7,-21
1523147583630721,-34,-25,-33,8,1,-2,0,-22
1523147583630721,49,26,-27,-25,-6,-11,-23,-9
1523147583639743,-27,39,9,-12,-5,0,3,-3
1523147583639743,16,-8,-10,5,-4,1,-1,21
1523147583654782,47,14,8,4,0,-7,-11,20
1523147583654782,-42,-31,-10,4,6,22,50,-34
1523147583656288,-30,-25,-6,-7,-4,-8,-28,25
1523147583656288,17,-6,31,35,18,11,6,-32
1523147583677079,-41,2,-6,-47,-7,-8,-24,32
1523147583677079,-13,-12,16,24,8,-1,-17,-5
1523147583678850,-2,39,-33,-2,-3,1,15,-4
1523147583678850,-9,-18,31,73,12,2,-6,10
1523147583690987,52,8,-15,-19,-9,0,10,11
1523147583690987,-89,3,13,-25,-6,-6,-9,12
1523147583705769,12,22,-11,7,-1,-2,-2,-42
1523147583705769,-64,-30,0,-11,-3,-7,-6,17
1523147583714554,-17,13,17,38,11,1,7,-22
1523147583714554,9,-29,-4,26,-2,-6,-4,31
1523147583716057,19,19,-27,-68,-18,1,6,4
1523147583716057,-10,-15,1,-11,2,4,2,-13
1523147583737131,-11,7,27,67,10,4,2,9
1523147583737131,13,-10,-41,-100,-14,-9,-6,-3
1523147583738618,-5,6,48,106,15,6,2,8
1523147583738618,-1,2,-35,-38,-16,-10,-11,-7
1523147583750650,-27,-5,-13,-4,-5,-3,-2,-10
1523147583750650,-1,5,27,47,4,3,2,19
1523147583759958,1,1,2,-15,0,-2,1,-13
1523147583759958,-24,-7,4,-21,-2,-5,-3,-6
1523147583774998,0,1,-10,-58,-10,-1,1,-1
1523147583774998,15,-12,-37,-2,-7,-2,-1,6
1523147583776621,7,0,15,-24,-5,-3,-3,3
1523147583776621,-2,2,9,29,2,-3,-6,-13
1523147583797064,-20,-13,-13,-70,-15,-4,2,1
1523147583797064,6,7,13,45,6,-1,0,3
1523147583798562,-6,-2,1,4,2,3,2,0
1523147583798562,22,11,9,-13,-4,0,2,12
1523147583810593,-10,-10,14,59,13,2,3,6
1523147583810593,24,-14,-1,-56,-8,-2,0,0
1523147583819629,-53,4,-7,-36,-2,-4,-4,-18
1523147583819629,4,8,5,-20,-1,-2,1,4
1523147583834911,4,6,6,17,8,3,-3,-5
1523147583834911,-2,3,-4,-15,-2,-3,-2,-15
1523147583836175,51,19,-2,11,-3,-3,-2,6
1523147583836175,-16,-30,8,10,7,7,2,2
1523147583857472,-9,-8,-29,-10,-2,2,3,-1
1523147583857472,-10,6,14,6,-12,-5,-5,-6
1523147583858736,-1,-7,8,12,7,-1,-2,-8
1523147583858736,1,8,-12,-5,-2,-3,-4,8
1523147583870767,6,12,39,119,11,6,8,2
1523147583870767,-27,-21,-25,-43,-3,0,-5,3
1523147583887312,4,-14,-52,-59,-19,-10,-8,-3
1523147583887312,20,9,12,5,0,-1,-5,4
1523147583894833,-10,-1,7,28,13,-1,0,-5
1523147583894833,21,9,-5,-1,0,-2,-4,9
1523147583896339,-31,-3,-14,2,-5,2,6,6
1523147583896339,-18,-17,-14,-16,12,5,2,-7
1523147583917393,8,5,-1,-27,-10,-2,-3,-4
1523147583917393,4,5,-14,21,0,-4,-1,4
1523147583918895,11,-1,13,3,-2,-3,-3,-9
1523147583918895,-10,-2,21,4,3,-1,-3,16
1523147583930966,14,13,-22,-15,-9,-6,-3,-12
1523147583930966,7,13,12,13,5,6,2,21
1523147583939951,-9,-40,-11,10,9,3,1,23
1523147583939951,-5,6,5,21,-12,-9,-4,-8
1523147583955231,-12,-16,-14,-93,-17,0,6,4
1523147583955231,-11,7,15,25,6,0,-1,-10
1523147583956497,19,2,24,57,3,1,-5,-13
1523147583956497,1,8,-22,-30,-7,-2,-4,-1
1523147583977097,-17,-29,-18,-15,1,-7,-6,-3
1523147583977097,-10,2,23,7,-1,-4,-1,-11
1523147583978602,-6,14,15,-4,0,3,5,3
1523147583978602,0,-12,-7,5,0,0,-1,-8
1523147583990634,-13,-5,-14,3,-2,-1,-1,-9
1523147583990634,4,-16,6,31,8,5,2,4
1523147583999657,15,15,3,0,-3,-5,-3,-3
1523147583999657,-1,-5,2,-7,-3,-2,1,-4
1523147584015198,-65,-3,11,14,4,-1,-5,-5
1523147584015198,-18,-21,-22,4,1,3,0,-6
1523147584016201,1,-13,-2,-13,1,1,7,-13
1523147584016201,10,4,-13,2,-10,-3,-11,4
1523147584037256,28,3,-9,0,4,5,3,-1
1523147584037256,-19,23,7,-3,-1,-1,4,1
1523147584038764,-4,13,-1,-6,1,0,3,-9
1523147584038764,-7,9,1,-13,0,0,0,-14
1523147584050794,15,15,44,21,0,-2,-4,-22
1523147584050794,-11,-18,7,-10,4,2,11,25
1523147584059817,33,9,-31,11,-8,-5,-21,11
1523147584059817,-34,-16,5,-5,-3,-3,-8,-7
1523147584074989,-85,-21,-3,-4,0,3,3,1
1523147584074989,94,20,-5,2,1,-3,-5,1
1523147584076606,29,33,-15,-4,-5,-4,8,5
1523147584076606,5,-47,-19,-41,-3,-2,7,-25
1523147584096925,16,13,-5,9,4,1,-20,61
1523147584096925,-83,1,5,-7,-4,-5,26,31
1523147584098921,45,-6,32,3,-3,3,-15,-50
1523147584098921,15,1,-44,10,-9,-10,-16,73
1523147584110953,11,-7,-17,-3,-2,-5,-1,-26
1523147584110953,20,10,-2,-12,-5,-3,-4,7
1523147584119976,-4,5,24,0,1,-4,1,-18
1523147584119976,17,-12,24,7,2,4,23,10
1523147584134211,9,41,0,10,5,3,11,29
1523147584134211,-20,-14,3,2,-3,-3,-30,-25
1523147584141138,-23,3,12,9,5,2,9,6
1523147584141138,24,-28,-9,-2,-2,2,-10,-18
1523147584164596,-2,-26,-16,19,6,4,23,-2
1523147584164596,-22,8,-21,27,6,2,-7,-35
1523147584166100,-37,-20,1,8,1,-2,3,13
1523147584166100,32,7,3,-13,-4,-4,0,-27
1523147584179644,36,-2,17,11,2,-1,0,11
1523147584179644,16,-9,11,-8,2,5,4,8
1523147584181140,-47,14,-25,-35,-10,-5,-5,-6
1523147584181140,-1,16,15,23,3,0,0,22
1523147584194174,9,-14,-6,-3,-7,-3,-7,-18
1523147584194174,7,-15,2,23,5,1,-3,-7
1523147584200933,-23,-14,-27,-41,-10,-7,-3,8
1523147584200933,-8,21,4,-5,5,-1,1,-10
1523147584217236,-13,3,8,5,-3,-4,-4,-6
1523147584217236,-4,7,3,9,0,-2,-2,-15
1523147584218740,15,-8,2,14,10,15,8,15
1523147584218740,-26,10,24,54,7,2,-1,-13
1523147584239983,19,-2,-36,-27,-19,-14,-6,-7
1523147584239983,14,-6,-5,-10,-9,-10,-8,6
1523147584241300,-8,-24,-10,6,-2,-4,-5,-7
1523147584241300,1,6,9,16,8,6,-1,-6
1523147584254333,-13,9,9,-14,1,0,-2,-5
1523147584254333,11,4,-9,-48,-5,0,6,7
1523147584260851,5,-4,-23,-78,-11,-1,-2,8
1523147584260851,-24,11,4,24,-1,-2,1,-4
1523147584277396,13,-1,14,31,7,-1,-7,-14
1523147584277396,-11,-8,-3,-17,-6,-3,3,-3
1523147584279108,6,11,40,68,14,6,-4,27
1523147584279108,-8,-4,-7,-84,-18,-4,4,-38
1523147584299491,-7,-8,-43,-50,-12,-8,-17,7
1523147584299491,3,1,25,101,15,-1,-5,5
1523147584301461,-9,-15,-53,-73,-34,-18,-6,-9
1523147584301461,6,7,15,46,4,6,17,-2
1523147584314619,-1,1,12,31,8,9,-7,-25
1523147584314619,-4,6,1,-2,-9,-5,-7,-1
1523147584316120,1,-10,13,-8,5,-6,0,2
1523147584316120,5,2,-24,-8,1,-2,-5,8
1523147584337183,1,16,16,5,4,1,7,-2
1523147584337183,-3,-13,13,37,6,5,5,1
1523147584338685,-8,-9,-2,17,2,3,2,-7
1523147584338685,10,0,5,-8,2,-2,-5,7
1523147584359791,13,16,60,105,30,15,16,-22
1523147584359791,-14,-8,-48,-28,-26,-12,-13,-3
1523147584361240,-4,-15,2,57,3,-4,1,23
1523147584361240,-9,-13,-19,13,3,2,-8,-10
1523147584374280,-5,1,-1,10,0,1,9,-1
1523147584374280,6,11,12,-13,8,4,-5,-13
1523147584380791,0,-2,-23,-37,-3,2,3,-12
1523147584380791,-2,3,2,-1,-3,-4,-10,8
1523147584397335,7,-5,-9,-31,-10,-3,-2,7
1523147584397335,1,-3,6,-18,-1,-1,5,0
1523147584398840,1,9,9,39,8,2,0,-2
1523147584398840,-4,-13,6,11,6,5,2,-1
1523147584419895,-25,-9,-2,-18,-2,0,2,8
1523147584419895,-3,11,-1,2,-2,-2,-2,6
1523147584421400,-11,3,-6,-10,0,1,2,-3
1523147584421400,8,9,16,28,2,-2,0,3
1523147584433932,-23,5,-29,-46,-14,-5,0,-6
1523147584433932,-20,-21,1,19,1,0,-5,1
1523147584442455,6,17,28,-40,-3,-3,-4,-18
1523147584442455,19,12,-8,19,-4,-2,3,13
1523147584457046,-20,-4,-2,2,0,3,-3,37
1523147584457046,-7,0,-2,-13,-1,-1,0,-14
1523147584458504,1,-2,-5,2,-3,-4,-2,-2
1523147584458504,4,-10,-15,-23,-4,-1,0,17
1523147584479555,22,2,13,-6,-3,-5,-4,3
1523147584479555,4,8,2,-12,3,2,7,-12
1523147584481057,-6,-15,12,30,6,1,0,8
1523147584481057,-19,3,9,-4,-4,0,-4,-22
1523147584494095,4,-11,-24,-27,-7,-2,-1,-5
1523147584494095,14,-4,-2,19,1,-1,-1,8
1523147584500611,10,5,7,12,1,-2,-1,-3
1523147584500611,-8,4,-8,-24,-7,-4,-4,-4
1523147584517156,2,7,18,18,1,-2,-5,1
1523147584517156,2,-7,-7,-18,-6,-1,1,5
1523147584518658,18,1,-1,11,-4,-3,-5,-4
1523147584518658,26,10,-12,-1,-4,-2,-2,-1
1523147584539267,-30,2,-7,-8,-3,1,1,-7
1523147584539267,52,27,6,3,9,5,4,-3
1523147584545728,-69,-12,-17,5,-9,0,1,16
1523147584545728,53,-6,-3,-21,-5,-6,-6,-5
1523147584553759,40,-30,27,12,17,3,-1,20
1523147584553759,-21,42,-1,-7,-2,1,9,13
1523147584560769,10,-6,-27,22,15,9,0,-24
1523147584560769,-53,7,11,3,-3,-6,-18,-11
1523147584577318,62,-19,-14,-13,-6,-12,-5,-15
1523147584577318,7,-9,-2,-2,3,9,6,5
1523147584578819,34,35,29,-3,-8,-8,4,11
1523147584578819,-6,-57,4,-3,0,3,3,-2
1523147584599373,63,0,-62,-9,-6,0,-1,-17
1523147584599373,-29,1,22,-1,3,-1,-6,27
1523147584601378,-6,36,-20,-6,0,9,6,9
1523147584601378,64,28,51,-5,-4,-10,-11,1
1523147584613409,-86,-20,3,-1,-15,-10,1,-44
1523147584613409,35,-2,-27,4,-2,-5,-15,21
1523147584622432,49,20,25,0,10,3,11,-15
1523147584622432,4,5,-14,22,9,11,17,91
1523147584637178,19,-34,12,0,-9,-16,-23,-36
1523147584637178,-45,-15,-39,-23,-19,-13,-9,-77
1523147584639069,-24,-73,-2,-16,-4,-11,-9,92
1523147584639069,32,44,-28,3,3,14,7,-33
1523147584659567,6,41,13,-1,0,-1,4,7
1523147584659567,27,-31,35,83,14,6,5,21
1523147584661052,5,-10,-9,-7,-8,-13,-11,-39
1523147584661052,-51,13,-20,-5,-10,-17,4,-14
1523147584673589,-21,-10,7,15,11,22,8,41
1523147584673589,-1,-15,13,-5,-1,-1,-2,-20
1523147584682091,-9,14,-2,-9,2,2,0,-15
1523147584682091,-21,-10,-6,-8,5,-3,0,0
1523147584697132,-6,9,-8,41,-4,0,-6,-6
1523147584697132,-14,-2,17,-22,-1,0,3,-4
1523147584698636,-4,-7,-20,7,-6,-1,-5,-14
1523147584698636,-16,-12,9,10,2,0,-1,-1
1523147584719692,-1,13,17,28,3,0,4,5
1523147584719692,0,1,-8,22,1,-2,3,2
1523147584721196,-11,-5,5,-13,2,2,-4,10
1523147584721196,-19,-4,21,68,11,6,-4,-27
1523147584733430,-4,-17,-47,-122,-20,-8,-2,4
1523147584733430,-3,5,-9,-8,-4,-4,-3,-1
1523147584742251,-27,1,4,22,1,-5,-1,-16
1523147584742251,-13,-10,1,2,1,8,4,-10
1523147584757291,-8,-5,-17,-14,-12,-4,0,16
1523147584757291,12,-5,3,-5,0,3,9,-4
1523147584758797,-15,4,-11,-7,-4,-5,-16,11
1523147584758797,80,0,-1,-35,-2,0,1,-3
1523147584779362,-19,19,39,75,18,7,5,7
1523147584779362,27,32,-68,-114,-45,-17,-16,-32
1523147584781356,-29,-8,12,73,7,4,5,-3
1523147584781356,-14,-6,-18,32,4,0,-2,0
1523147584793389,-4,22,8,11,5,4,1,-13
1523147584793389,-9,-13,-5,10,4,0,6,9
1523147584802411,17,-7,10,5,6,7,-2,21
1523147584802411,-7,12,3,-18,-6,-4,1,0
1523147584817451,-5,-2,0,-19,0,-4,1,3
1523147584817451,-11,-3,26,23,14,5,3,-51
1523147584818957,3,0,-13,-28,-3,3,-4,29
1523147584818957,-11,-9,-21,-30,-5,-7,-4,-7
1523147584839717,1,3,19,25,2,-1,1,-6
1523147584839717,-8,13,24,31,1,-2,-14,19
1523147584841593,-3,-11,-3,-2,-9,-4,0,26
1523147584841593,-20,3,9,16,-2,-4,-3,-19
1523147584853622,-6,2,-13,-59,-3,4,4,-8
1523147584853622,-5,-22,-40,-75,-15,-5,-2,21
1523147584862575,3,25,20,15,11,5,9,-28
1523147584862575,-51,-41,-35,-23,-16,-10,-7,7
1523147584877113,21,26,21,3,7,-2,-2,21
1523147584877113,-2,-8,-18,-58,-9,-5,-1,-6
1523147584878617,9,3,5,25,1,4,1,-17
1523147584878617,-4,-5,4,6,4,1,11,1
1523147584899672,1,6,-1,40,1,2,-17,-12
1523147584899672,-22,-11,7,-40,3,4,4,-1
1523147584901175,20,1,-13,-19,-1,-4,9,11
1523147584901175,0,23,22,-6,-4,-3,-20,25
1523147584913207,4,-56,2,-5,-1,-6,3,-2
1523147584913207,5,-1,6,32,4,-7,2,21
1523147584922231,-9,-4,-13,-1,-3,5,3,-33
1523147584922231,1,4,13,10,8,11,13,-6
1523147584937449,-6,4,-14,3,-1,-4,-8,16
1523147584937449,-13,-6,7,14,0,-3,-5,-15
1523147584938775,2,-9,-1,-5,-4,-6,1,-16
1523147584938775,-5,-27,-19,-17,-5,-5,-2,3
1523147584959526,5,22,-28,-23,-6,0,1,-7
1523147584959526,9,4,0,22,2,5,3,14
1523147584961339,4,11,14,-5,-2,-3,-5,-12
1523147584961339,0,2,26,12,9,1,-2,0
1523147584973568,-8,6,4,24,-1,1,1,-2
1523147584973568,4,4,28,52,13,7,5,4
1523147584982393,8,0,7,33,-3,-2,-4,-2
1523147584982393,-7,21,-7,7,-2,-4,-4,-20
1523147584997435,-5,-15,2,47,7,5,8,-8
1523147584997435,-19,-6,-2,13,9,11,6,-28
1523147584998935,4,-12,-10,-15,-5,-7,-15,54
1523147584998935,2,-4,6,-16,-8,-2,-1,-4
1523147585019990,15,0,-1,13,3,-3,-3,-1
1523147585019990,6,-2,-11,2,-3,-3,-4,-3
1523147585020994,-2,6,-4,-17,1,1,3,-21
1523147585020994,-3,0,-9,-1,1,-3,2,5
1523147585033567,-29,-3,20,-23,-7,-3,-2,0
1523147585033567,43,40,-9,-7,1,1,0,16
1523147585042049,-22,-14,3,-21,-7,-5,-3,-21
1523147585042049,24,3,19,5,4,2,0,7
1523147585057090,-3,-32,1,24,7,7,14,1
1523147585057090,16,-76,2,29,4,-2,3,19
1523147585059094,54,-6,-8,17,5,2,-2,-25
1523147585059094,-51,-51,3,-24,-12,-9,0,8
1523147585079773,40,26,60,14,-6,0,3,6
1523147585079773,-31,71,19,-54,-13,-8,1,-1
1523147585081155,28,-67,-30,7,-9,-9,-24,-25
1523147585081155,38,56,43,-41,-7,-3,14,-30
1523147585103755,11,-91,12,-5,3,-4,-9,26
1523147585103755,-24,-12,-42,-8,-2,-6,-22,-47
1523147585105219,-28,27,21,17,-3,0,6,-70
1523147585105219,-7,16,-22,-5,1,4,-4,47
1523147585116253,-14,30,1,-15,0,-2,0,1
1523147585116253,-47,-30,-27,-12,-5,0,9,14
1523147585123320,14,25,19,-10,2,-1,5,-1
1523147585123320,-16,8,-24,28,5,0,-12,-48
1523147585139942,-28,36,-38,-2,0,0,9,-27
1523147585139942,-21,-27,25,20,-4,-10,-10,47
1523147585141441,-37,31,3,-3,6,8,4,-20
1523147585141441,37,-14,0,-2,-7,0,10,23
1523147585162061,4,-43,-35,-23,2,-1,-8,2
1523147585162061,-3,11,-15,-7,-4,4,8,-25
1523147585163500,-1,-1,16,20,4,-5,-3,31
1523147585163500,-2,20,-10,0,1,-3,-7,-6
1523147585176535,-9,33,3,-4,1,5,6,-2
1523147585176535,18,0,12,25,5,4,-4,9
1523147585183552,-5,-11,18,31,-1,-5,2,23
1523147585183552,-15,-42,-8,-14,6,16,0,10
1523147585199595,0,23,-19,-20,-7,-7,-3,-8
1523147585199595,18,-3,18,45,4,-4,-2,8
1523147585201100,-7,-10,-33,-66,-11,-2,-3,16
1523147585201100,-22,-17,10,43,2,-8,4,-23
1523147585222481,11,0,-5,5,-4,-3,-6,-17
1523147585222481,0,3,3,-23,2,6,-2,1
1523147585224107,1,-22,-3,-1,-2,-3,0,-2
1523147585224107,20,-6,-3,38,1,-5,-8,-18
1523147585236445,18,-9,-12,-84,-16,-2,12,33
1523147585236445,40,-27,-19,5,0,-4,-18,-10
1523147585242962,19,-22,6,7,-2,0,9,31
1523147585242962,-6,8,0,-12,-2,-2,-7,-13
1523147585259508,1,-6,3,20,-2,2,-5,-1
1523147585259508,24,22,18,12,3,2,9,13
1523147585261014,-19,8,-12,-23,-4,3,7,-2
1523147585261014,2,-21,4,8,4,-1,-2,-1
1523147585282301,-11,-9,27,15,1,-2,-4,5
1523147585282301,-19,4,-21,-72,-16,-3,2,0
1523147585283571,-20,8,-12,35,5,1,-6,-8
1523147585283571,-15,-15,-19,-4,2,0,2,2
1523147585297608,-7,31,49,112,10,-3,-7,-13
1523147585297608,-12,-26,-1,40,-3,-3,-2,-2
1523147585303646,7,15,6,27,3,3,4,6
1523147585303646,10,0,-27,-49,-16,-6,-1,8
1523147585319665,-7,29,7,19,13,5,-1,-5
1523147585319665,29,5,10,14,7,4,8,-30
1523147585321171,-17,52,-1,-10,0,-2,-19,45
1523147585321171,9,48,41,50,9,6,9,6
1523147585349747,-1,-35,-53,-57,-18,-13,-13,-16
1523147585349747,-17,-3,1,17,-1,-4,2,-12
1523147585351252,8,4,2,16,8,7,8,-14
1523147585351252,7,18,10,1,2,-1,-1,8
1523147585356764,-27,2,10,-17,-6,-3,-3,-1
1523147585356764,-8,12,-9,5,4,1,0,4
1523147585363409,-3,-40,19,56,9,0,1,-7
1523147585363409,-10,2,-19,-65,-13,-4,-5,5
1523147585379854,4,-22,-25,-15,-2,-1,1,-6
1523147585379854,-9,-7,16,14,-1,1,-4,8
1523147585381333,1,11,20,29,5,0,1,-6
1523147585381333,2,-13,-17,-9,-8,-6,-4,-4
1523147585402387,-2,5,-4,47,8,2,-1,-5
1523147585402387,-8,-11,-24,-54,-12,-3,-2,1
1523147585403976,8,3,0,-8,-3,-3,1,-6
1523147585403976,1,-8,2,9,0,0,2,1
1523147585416550,3,-8,-9,-26,-7,-5,-2,5
1523147585416550,-2,10,14,13,0,-1,-3,5
1523147585423526,-9,-6,-20,-49,-8,-3,-4,-15
1523147585423526,-5,-12,10,20,-4,-2,0,6
1523147585439777,23,-7,24,19,1,-1,0,0
1523147585439777,-20,1,-39,2,-1,-3,-3,-7
1523147585441155,-2,2,-19,-58,-14,-4,-2,-5
1523147585441155,0,1,-6,-18,3,2,0,-1
1523147585462309,-4,8,-3,-11,-7,-1,-2,0
1523147585462309,0,6,2,13,0,-3,1,8
1523147585463719,36,-46,-11,57,6,3,4,3
1523147585463719,-22,14,-9,8,-1,-3,-4,1
1523147585476249,-4,15,-10,28,3,-2,-2,-4
1523147585476249,-49,-40,-8,-68,-14,-7,-7,-17
1523147585483363,24,25,19,9,4,3,6,7
1523147585483363,17,-5,-4,25,-1,-1,-1,-5
1523147585499870,-11,-10,-37,-30,-2,-2,-4,-2
1523147585499870,-4,9,26,58,15,7,5,6
1523147585501316,-3,26,51,-8,-4,-1,5,-3
1523147585501316,3,-38,-28,-60,-8,-4,-4,37
1523147585522873,-13,-19,0,28,4,2,-13,-14
1523147585522873,30,7,-9,-66,-8,-1,1,-2
1523147585524121,34,-5,-37,-30,2,0,-1,3
1523147585524121,-25,-9,26,23,1,0,4,-9
1523147585536689,4,21,4,23,4,7,12,14
1523147585536689,24,4,18,62,2,-6,-14,14
1523147585543322,-34,1,-17,-67,-8,1,5,-24
1523147585543322,-25,-50,-31,-2,-2,-1,-2,-25
1523147585559502,13,52,45,-10,2,0,5,-1
1523147585559502,-47,-62,-6,17,14,7,8,28
1523147585561510,54,15,29,27,-2,-3,-28,25
1523147585561510,-61,33,44,21,15,10,10,-16
1523147585582199,-20,-38,-32,-47,-14,-12,-13,4
1523147585582199,-29,50,-25,4,-10,5,31,-25
1523147585583598,11,43,36,19,13,8,11,18
1523147585583598,49,-47,-28,-3,-14,-14,-27,-20
1523147585595633,29,48,16,-1,-3,-5,-8,-23
1523147585595633,59,-12,-7,-6,12,4,-13,28
1523147585604654,-35,2,11,46,7,1,12,0
1523147585604654,-24,46,8,-19,-7,-4,-7,-8
1523147585619798,-77,-80,-39,-55,-10,-4,2,-10
1523147585619798,64,20,-15,14,3,1,-2,-13
1523147585621200,-26,-18,-20,-64,-8,-5,-3,-20
1523147585621200,-7,3,7,18,4,0,-2,18
1523147585641348,-12,1,17,10,2,1,4,8
1523147585641348,-43,15,11,37,-2,-3,-5,-10
1523147585642253,24,-11,-15,-16,-7,-5,4,9
1523147585642253,10,-5,-13,-32,-12,-9,-6,-7
1523147585663909,9,-26,17,52,5,1,-3,-20
1523147585663909,4,11,-20,-107,-21,-9,-4,-1
1523147585664815,-15,8,8,55,3,-1,-1,-27
1523147585664815,31,7,0,14,10,8,8,-5
1523147585678853,-32,4,-10,25,2,-3,1,14
1523147585678853,-1,-8,20,21,2,-8,-8,-17
1523147585679854,-26,-20,-29,-15,2,-3,4,5
1523147585679854,0,10,12,35,5,12,10,16
1523147585701447,1,2,31,-26,13,9,1,-7
1523147585701447,-21,-3,13,42,-5,3,4,25
1523147585702412,-4,-33,-5,24,2,-6,6,-21
1523147585702412,30,10,14,33,4,4,-11,55
1523147585723971,26,9,8,55,4,-2,6,-15
1523147585723971,24,5,-36,-68,-12,-6,-1,11
1523147585724974,2,-4,-5,-8,9,-10,-19,-4
1523147585724974,9,6,38,124,8,7,11,-13
1523147585739107,12,-13,-37,-28,-37,-14,-12,0
1523147585739107,-7,-3,-35,-46,-5,-5,-1,0
1523147585740013,-24,-14,-17,23,-28,1,-6,9
1523147585740013,-32,10,48,87,39,-6,5,-7
1523147585761668,21,-23,-94,-96,-60,-13,-4,10
1523147585761668,-36,-1,25,87,5,-2,-5,-19
1523147585762071,-5,0,15,34,14,3,-3,1
1523147585762071,-7,18,35,52,16,6,1,-14
1523147585775608,4,-3,-30,-44,-16,-7,-4,-11
1523147585775608,12,1,7,31,6,3,1,28
1523147585783224,30,7,37,47,17,7,1,1
1523147585783224,-12,-10,-55,-16,-21,-4,-2,-12
1523147585798672,-16,2,42,88,23,1,-2,8
1523147585798672,3,-10,-7,-4,-4,-1,-2,-13
1523147585799673,26,17,31,51,17,7,12,16
1523147585799673,12,5,-8,-67,-8,-5,-8,6
1523147585829872,15,4,6,6,16,3,0,6
1523147585829872,-28,-5,-26,-93,-27,1,-2,-17
1523147585830377,-12,2,10,26,0,1,6,-24
1523147585830377,-28,-4,-27,-49,-7,-6,4,30
1523147585843914,2,6,-1,-6,-12,-7,-25,1
1523147585843914,17,12,53,68,22,-9,-3,-6
1523147585844918,-14,-13,-35,-66,-30,15,4,-1
1523147585844918,-10,-5,-22,-67,19,-9,-2,-14
1523147585858952,-19,5,29,36,-28,9,13,0
1523147585858952,-14,-6,13,26,12,-7,1,6
1523147585859956,5,21,-11,-46,-11,-9,-9,-3
1523147585859956,25,-9,-5,4,-6,-2,0,-1
1523147585881613,37,13,8,14,23,2,4,2
1523147585881613,-26,-11,2,3,-12,4,-3,-21
1523147585882014,-4,-24,-26,2,0,-6,-3,-30
1523147585882014,-12,9,-24,-47,-18,-2,2,30
1523147585904807,34,17,14,6,22,4,12,10
1523147585904807,-14,0,33,70,-17,1,-4,-24
1523147585905213,12,-12,-44,-38,24,4,-10,12
1523147585905213,-22,-9,12,36,-29,-2,3,-22
1523147585919325,-14,2,-32,-64,-15,-8,-1,11
1523147585919325,65,10,18,13,19,6,5,17
1523147585919830,-20,15,34,33,8,-2,3,15
1523147585919830,-26,-20,-18,-27,-20,-7,-4,-24
1523147585941609,-8,14,16,-8,15,10,-2,0
1523147585941609,19,-16,-30,-67,-23,-25,-13,-1
1523147585942390,-5,0,-1,-19,-1,18,3,5
1523147585942390,16,34,11,-18,1,0,-1,2
1523147585964644,-8,-33,-2,59,16,11,5,13
1523147585964644,20,-3,8,9,13,-2,4,-5
1523147585965451,-23,-43,5,-10,-18,-11,-9,-8
1523147585965451,31,54,1,21,8,3,-1,13
1523147585978986,-4,-35,0,-5,-1,1,14,11
1523147585978986,11,-33,-47,-11,-8,5,-5,-25
1523147585980023,-72,19,-4,-29,-18,-14,-2,31
1523147585980023,38,-56,44,66,8,6,0,-34
1523147586001551,17,7,14,36,16,-2,-1,-17
1523147586001551,-25,-9,-47,1,-8,1,-3,-1
1523147586002055,13,13,7,8,-15,-7,-13,3
1523147586002055,27,4,5,-5,13,-3,2,-19
1523147586024112,-14,-1,-15,-31,-16,-8,-15,-9
1523147586024112,-5,3,0,19,5,4,-1,18
1523147586024614,-9,-3,17,16,6,-1,5,-34
1523147586024614,62,-27,-28,-22,-3,4,1,28
1523147586038191,15,1,-16,-2,34,2,-2,-9
1523147586038191,-15,63,86,-9,-11,-3,1,30
1523147586046674,-62,-33,-7,-9,-8,-7,6,35
1523147586046674,4,64,24,-12,-2,3,4,-37
1523147586061707,-105,-56,-16,30,7,0,-19,-22
1523147586061707,-15,32,14,5,6,-2,-4,-19
1523147586062208,46,18,-24,-30,-5,-3,7,10
1523147586062208,-35,-19,21,8,3,0,-2,11
1523147586083831,31,21,7,19,-4,0,8,21
1523147586083831,-4,-15,-47,-73,-20,-2,2,-8
1523147586084772,15,2,-3,22,-3,-3,-4,18
1523147586084772,-27,-4,-24,-22,-7,-5,5,3
1523147586107331,-22,-2,-11,15,-15,-4,4,-77
1523147586107331,4,-34,25,28,13,8,10,13
1523147586107833,45,8,20,40,6,2,-7,25
1523147586107833,-44,-26,-64,-93,-22,-10,-10,21
1523147586121423,4,28,3,29,-2,0,3,-35
1523147586121423,14,14,14,45,12,6,1,-13
1523147586122370,22,-3,-9,16,2,-1,-3,-17
1523147586122370,-17,-9,12,11,2,-3,-10,-43
1523147586143929,17,6,3,-39,5,-1,-4,38
1523147586143929,6,-6,-17,-15,-5,2,5,-14
1523147586144929,22,5,7,20,8,1,2,10
1523147586144929,28,13,28,10,7,7,7,50
1523147586158468,-9,-6,-4,-35,-5,-6,-3,1
1523147586158468,-3,-6,-16,-2,-6,-6,-6,9
1523147586166548,-49,-11,-46,-32,-30,-10,-6,-44
1523147586166548,8,-3,14,55,6,-2,-7,61
1523147586181760,18,10,-2,5,-2,3,0,-15
1523147586181760,27,10,15,-26,9,5,31,73
1523147586182527,-29,-17,-32,26,1,-5,-40,-29
1523147586182527,23,-9,-25,-15,-10,-5,-1,-20
1523147586204822,2,11,6,-11,-9,-2,5,20
1523147586204822,-9,3,32,83,17,3,-10,-14
1523147586205589,7,-3,-24,-58,-8,-2,8,-14
1523147586205589,-7,-20,-22,6,-4,-3,-3,-12
1523147586219329,3,10,38,50,10,3,-3,-2
1523147586219329,-14,6,-21,-24,-8,-2,-3,-25
1523147586219833,8,17,27,22,9,0,4,-1
1523147586219833,-8,-37,-12,35,-1,1,-4,-17
1523147586241623,-15,-6,-4,-14,-15,-6,-3,-5
1523147586241623,-10,-11,-30,-63,-3,-1,-6,8
1523147586242395,8,11,-8,-24,-4,-1,2,6
1523147586242395,-2,15,28,47,7,0,3,-6
1523147586264171,-4,-3,1,-23,-7,-3,0,15
1523147586264171,-2,-11,4,54,10,2,-5,-23
1523147586264477,9,20,15,0,2,0,9,19
1523147586264477,-2,6,-35,-68,-12,-3,-17,-40
1523147586279174,31,-25,-6,29,-3,-1,5,4
1523147586279174,-4,-6,-6,-36,-12,-8,-14,-8
1523147586280019,7,0,20,40,10,6,7,-6
1523147586280019,-15,-2,-2,-14,-4,-3,5,-7
1523147586301682,0,-8,-3,-5,1,-1,-1,10
1523147586301682,-1,-3,5,22,6,2,-7,-17
1523147586302078,2,-6,7,12,-1,-2,6,-9
1523147586302078,5,2,-1,1,1,-2,-7,7
1523147586324138,-8,8,-16,2,0,-2,-4,6
1523147586324138,-3,-14,21,43,9,-3,2,4
1523147586324639,1,6,8,55,14,4,-4,-11
1523147586324639,-4,-1,-3,-15,-11,-7,5,32
1523147586339176,-5,2,-7,-10,0,-3,-4,-3
1523147586339176,8,15,30,76,22,2,2,0
1523147586339678,-18,-18,-35,-94,-35,1,4,-26
1523147586339678,-2,0,-12,33,5,1,10,57
1523147586361239,-5,-8,5,21,-3,1,-13,-1
1523147586361239,28,14,-12,-28,-12,-11,-8,1
1523147586362241,-4,-48,-10,5,6,-3,-9,-10
1523147586362241,-12,12,20,4,3,3,6,-47
1523147586385301,19,9,3,-32,-2,2,5,16
1523147586385301,2,-10,-2,3,-3,0,-6,73
1523147586385803,4,10,24,-3,2,-4,1,4
1523147586385803,-7,-14,-27,-9,-5,1,-10,-32
1523147586398932,0,6,-6,11,5,-2,5,4
1523147586398932,-6,4,-10,-18,-4,4,3,-26
1523147586399840,3,12,3,9,-1,-1,-3,6
1523147586399840,1,-10,5,-9,1,-1,-3,25
1523147586421623,-1,8,8,-3,-2,-1,3,-3
1523147586421623,-9,13,6,-4,-1,-1,-6,5
1523147586422129,-2,0,18,-3,8,7,2,-17
1523147586422129,2,7,-5,9,-5,9,13,-1
1523147586444215,0,6,9,-3,3,4,0,4
1523147586444215,-25,0,10,-17,-4,6,0,-32
1523147586444690,-7,-11,35,107,15,-22,-14,17
1523147586444690,1,-12,-50,-80,-24,6,-8,1
1523147586458725,-13,0,2,7,-5,-4,3,8
1523147586458725,11,-39,-28,9,-6,-12,-4,21
1523147586459730,-24,13,4,-5,1,6,0,-15
1523147586459730,-13,8,18,68,20,3,3,5
1523147586481383,5,18,-7,12,-9,-5,6,-14
1523147586481383,-4,3,5,20,-1,6,13,-37
1523147586482290,38,34,-6,19,-1,0,-3,4
1523147586482290,10,-39,-19,-74,-18,-6,9,17
1523147586503946,-14,-13,-4,-34,1,0,-6,-31
1523147586503946,-15,17,12,13,-1,-4,-27,18
1523147586504850,18,-46,-17,-5,-3,0,3,-17
1523147586504850,23,-1,33,57,5,-6,-8,14
1523147586519161,48,21,-59,-94,-24,-8,-9,-28
1523147586519161,-25,-10,-7,-11,-3,2,8,-7
1523147586519666,57,64,38,-27,-9,0,13,8
1523147586519666,-10,-32,21,26,4,-3,-9,27
1523147586541224,33,-28,1,-9,1,2,11,17
1523147586541224,-31,1,-8,19,5,1,2,-16
1523147586542226,-19,-33,-86,-47,-15,-2,-12,43
1523147586542226,31,30,28,18,8,4,13,-8
1523147586563784,-65,-27,-3,17,1,2,22,0
1523147586563784,35,2,25,-21,-2,-5,-50,-35
1523147586564787,-52,41,11,11,4,3,3,-83
1523147586564787,-92,-60,-14,-15,3,-4,-4,25
1523147586578919,-23,1,30,31,10,2,-13,-18
1523147586578919,92,33,-47,-16,-25,-2,7,21
1523147586579827,-8,-41,-19,-22,-4,-2,5,-17
1523147586579827,7,-4,-29,4,-1,-8,-22,-10
1523147586601481,-31,-4,-25,4,0,-5,-1,4
1523147586601481,-9,21,28,3,3,-1,11,16
1523147586602434,31,4,18,6,3,1,-5,30
1523147586602434,19,33,1,-7,-2,1,10,-33
1523147586624044,7,-8,7,23,3,-2,-8,19
1523147586624044,-2,15,-5,-12,-1,-1,12,-20
1523147586624945,4,-15,0,2,2,-1,1,65
1523147586624945,-16,22,13,-3,2,0,-4,-22
1523147586639083,3,5,19,28,0,-3,-12,9
1523147586639083,-20,-23,-9,-24,0,-1,5,-32
1523147586639985,-28,1,-12,-35,-3,0,-1,4
1523147586639985,2,-13,-17,21,2,-2,-3,-16
1523147586661625,0,27,33,49,6,2,-2,11
1523147586661625,-9,-34,-44,-39,-16,-9,3,-7
1523147586662044,-11,-2,8,49,4,0,-3,-2
1523147586662044,22,25,22,39,8,5,6,7
1523147586684102,5,7,16,61,13,6,0,-1
1523147586684102,-7,-2,39,90,23,8,8,4
1523147586684607,20,-9,-16,19,-4,-6,-2,9
1523147586684607,-5,12,-16,-75,-19,-6,-20,-46
1523147586699144,-5,1,10,-5,5,2,17,-2
1523147586699144,-13,-1,22,34,16,7,-1,34
1523147586699644,1,-4,-17,-18,-5,-3,-2,1
1523147586699644,33,12,24,26,2,-3,-1,4
1523147586721302,3,-35,-27,-22,-7,-5,-10,3
1523147586721302,0,-7,-26,-52,-12,-6,0,-11
1523147586722205,7,9,58,105,21,6,8,4
1523147586722205,-17,-33,-32,-15,-16,-12,-7,-8
1523147586743861,8,9,-16,12,-8,1,-4,-9
1523147586743861,-7,4,21,69,12,8,5,5
1523147586744767,0,-14,-13,-58,-4,1,-6,-1
1523147586744767,-15,11,5,-15,1,-1,1,-7
1523147586758300,5,7,5,-7,-2,-3,-1,6
1523147586758300,1,-4,-9,-21,-3,-4,-6,0
1523147586766418,-12,2,-14,-26,-3,0,2,-4
1523147586766418,-1,11,16,11,-2,0,3,2
1523147586781361,-2,-1,-9,-22,-3,0,-1,21
1523147586781361,-10,-2,-1,-3,-5,-4,-3,4
1523147586782365,14,14,28,42,6,-1,0,-13
1523147586782365,-23,-5,-19,-4,-2,-2,0,22
1523147586804023,-11,1,12,23,4,-1,-21,13
1523147586804023,22,3,1,-19,-3,-1,1,-8
1523147586804924,-17,2,3,12,0,-2,1,0
1523147586804924,9,4,6,29,4,0,1,-8
1523147586818497,2,-9,-23,-72,-13,-6,1,-11
1523147586818497,-8,-2,3,-16,-5,-6,-4,5
1523147586826579,-7,-7,-29,-74,-9,-2,-6,-8
1523147586826579,10,9,9,36,10,6,5,-3
1523147586841522,-2,4,11,6,0,1,0,-4
1523147586841522,-6,-14,-10,-6,-2,0,-1,-2
1523147586842024,4,-3,26,75,5,0,0,4
1523147586842024,-7,14,-20,-89,-28,-7,-5,-6
1523147586864147,-5,-31,5,41,0,-2,4,0
1523147586864147,-2,-10,-43,25,-2,-1,-6,-3
1523147586864584,-6,-19,0,9,-1,1,0,-12
1523147586864584,5,8,3,2,7,5,5,5
1523147586878219,14,31,21,-25,-2,-2,-2,-10
1523147586878219,-13,-1,3,-16,-3,-1,7,-7
1523147586886670,-12,-14,-23,-34,-12,-10,-13,38
1523147586886670,4,0,10,15,7,-1,0,-26
1523147586901681,25,7,4,4,5,4,15,23
1523147586901681,-21,-2,8,1,3,5,-5,-25
1523147586902184,2,10,1,-10,2,1,-1,-10
1523147586902184,-9,-7,-4,16,1,-2,1,3
1523147586923842,8,6,0,16,3,-2,-9,-8
1523147586923842,-15,-13,1,-45,-5,-1,8,14
1523147586924744,-2,-12,-17,-24,-9,-4,-8,-8
1523147586924744,-3,-2,13,11,0,0,-2,-7
1523147586938378,-14,-12,-14,-17,-1,-1,-1,-13
1523147586938378,14,9,-7,9,-3,0,0,8
1523147586946400,-64,-63,-10,-14,-5,-3,-6,-29
1523147586946400,3,13,1,4,2,0,6,42
1523147586961438,14,7,-2,-4,0,2,-3,5
1523147586961438,3,10,23,16,0,-1,6,-6
1523147586962345,25,18,-1,-11,-3,0,7,2
1523147586962345,-10,-22,-3,4,-1,-3,-25,-51
1523147586983997,-38,-12,-6,-2,-3,-5,-6,-6
1523147586983997,7,34,-12,0,2,0,4,-23
1523147586984904,48,-4,11,-8,-4,-2,-10,30
1523147586984904,-7,-2,11,4,-4,-1,9,18
1523147586998439,47,-12,-11,-14,-6,-2,1,21
1523147586998439,9,-23,20,5,11,0,-6,-39
1523147587006560,-88,-23,-50,-13,-36,-8,-2,-11
1523147587006560,61,26,1,8,8,6,0,27
1523147587021501,31,-16,-10,-12,-3,-5,-6,24
1523147587021501,-28,7,12,13,-1,1,20,-10
1523147587022417,10,27,12,-2,5,-1,-4,-23
1523147587022417,-3,27,0,-2,6,-5,-20,-8
1523147587044194,-55,-33,-42,-17,-23,-5,-13,-36
1523147587044194,12,-13,-23,0,0,0,7,17
1523147587044478,21,45,14,9,13,4,21,19
1523147587044478,-14,-2,20,1,-8,-2,-7,61
1523147587058295,3,79,19,9,14,3,8,-9
1523147587058295,41,4,-16,-13,-9,-6,-20,10
1523147587066798,-43,-29,-27,-4,0,-6,-15,-42
1523147587066798,1,8,10,-4,6,0,7,-24
1523147587081721,-5,-11,33,29,11,5,7,23
1523147587081721,27,-16,-18,13,-8,1,6,23
1523147587082096,-12,50,2,29,7,0,-7,-13
1523147587082096,-27,-50,-54,-75,-14,-6,1,-19
1523147587104226,-12,10,25,4,1,-1,-3,-33
1523147587104226,7,-5,18,2,1,-1,-1,-5
1523147587104657,53,5,31,60,14,5,3,23
1523147587104657,-20,-12,4,4,-2,-3,-4,-14
1523147587127373,-14,0,5,46,2,-2,3,-16
1523147587127373,-13,1,-18,-59,-6,-4,-9,-50
1523147587128219,14,-11,3,12,-3,-3,0,68
1523147587128219,20,13,16,25,5,8,10,-14
1523147587141253,19,-8,-18,-79,-13,-3,2,-2
1523147587141253,-25,-7,-23,-13,0,-1,-8,-8
1523147587142257,5,-3,7,15,1,-1,-5,-12
1523147587142257,-4,-8,0,22,1,2,8,0
1523147587163976,-4,-8,5,32,5,1,2,12
1523147587163976,-15,-6,-9,-40,-16,-11,-14,4
1523147587164817,0,1,4,-35,-3,-2,2,0
1523147587164817,9,-2,-2,12,5,3,5,59
1523147587187877,-28,-9,-27,-40,-19,-9,-1,9
1523147587187877,-7,6,17,54,5,1,-7,-12
1523147587188380,-43,-8,6,2,-1,1,13,-44
1523147587188380,31,-3,-6,12,2,-2,-29,-13
1523147587201707,-39,6,5,14,0,2,2,-5
1523147587201707,4,-12,-7,-12,-3,-3,-2,35
1523147587202054,7,3,35,65,11,1,8,18
1523147587202054,-24,-14,-66,-48,-20,-7,2,-33
1523147587224142,18,0,13,55,10,3,-2,-9
1523147587224142,-18,2,-14,-57,-9,-3,-1,-1
1523147587224615,10,5,3,4,0,-2,-11,-16
1523147587224615,10,23,82,122,33,10,11,-9
1523147587247330,10,-9,-64,-13,-21,-11,-6,-10
1523147587247330,-18,-19,18,115,3,-4,-14,79
1523147587247675,12,14,-4,-78,-12,1,1,-13
1523147587247675,-7,-15,-8,57,2,-4,1,-7
1523147587261713,-1,1,11,-1,8,5,4,-18
1523147587261713,14,16,21,22,10,8,6,21
1523147587262215,4,-11,-21,-56,-8,-3,-3,-2
1523147587262215,-6,1,3,-8,-8,-7,-7,-6
1523147587284429,9,-5,7,1,1,0,7,39
1523147587284429,6,6,8,8,6,2,-2,-20
1523147587291292,13,3,29,71,13,3,-2,18
1523147587291292,-8,-16,-57,-122,-33,-9,2,-19
1523147587307361,8,5,7,6,3,0,1,-12
1523147587307361,8,5,7,14,4,-2,-10,56
1523147587307836,-31,-26,-39,-4,-6,-5,-13,-13
1523147587307836,-6,0,20,7,-1,-2,-10,-18
1523147587321534,6,4,4,-22,-2,-2,-2,-45
1523147587321534,1,-5,1,19,-3,-3,6,-4
1523147587322375,1,-3,-18,-21,-3,-2,-4,3
1523147587322375,-18,-7,-22,-52,-10,-3,10,-53
1523147587343931,11,3,21,58,8,2,-17,18
1523147587343931,3,5,1,0,-2,2,7,-29
1523147587344952,9,17,15,3,1,-2,3,-12
1523147587344952,7,12,36,45,15,5,9,20
1523147587374512,-19,-27,-26,26,1,1,9,-1
1523147587374512,8,19,-15,-30,-10,-7,-4,23
1523147587375518,2,-1,23,40,4,0,0,-8
1523147587375518,9,13,27,65,15,4,2,29
1523147587381681,-10,9,-17,-97,-30,-13,-6,-14
1523147587381681,-7,-10,2,42,5,3,15,17
1523147587382033,43,12,-10,4,-1,1,2,16
1523147587382033,15,6,0,-9,2,-2,-9,-23
1523147587403940,12,0,2,1,5,2,1,3
1523147587403940,-6,-30,-1,-25,-8,-4,1,-29
1523147587404784,3,11,-23,1,-2,-1,5,29
1523147587404784,-15,-22,4,-19,-4,0,1,5
1523147587427352,15,6,3,13,7,-1,-7,7
1523147587427352,-1,-24,-15,-25,-6,-1,-6,-19
1523147587427844,-10,-5,-18,-17,0,-1,1,-6
1523147587427844,5,3,-2,12,-1,-3,-4,13
1523147587441381,25,1,3,-5,0,-1,-1,-1
1523147587441381,-2,27,30,14,0,1,1,-15
1523147587442384,-1,-21,-19,-25,-9,-2,-1,-6
1523147587442384,-1,-9,-5,-9,-7,-3,-1,0
1523147587464067,15,9,33,48,11,5,1,2
1523147587464067,9,5,-22,-45,-7,-5,-5,-10
1523147587464442,-4,-55,-11,0,2,0,-1,-6
1523147587464442,39,26,1,-10,-9,-5,0,4
1523147587487135,-19,-14,19,18,19,4,7,-3
1523147587487135,19,-23,-45,-11,-27,-7,-22,-10
1523147587488004,18,21,22,-5,1,-4,-7,1
1523147587488004,8,-2,-19,12,6,6,7,14
1523147587501655,4,15,20,-8,-3,-3,-1,-6
1523147587501655,-40,-11,-21,2,11,7,12,-26
1523147587502044,23,38,30,-13,-2,-6,-19,10
1523147587502044,-27,-24,-20,7,-5,-2,-16,40
1523147587524109,-6,17,-6,-12,-24,-7,9,19
1523147587524109,6,21,26,-9,7,2,-8,-4
1523147587524602,-29,-31,-10,-8,0,3,10,-13
1523147587524602,-30,-24,-37,14,14,2,7,-32
1523147587547352,8,-22,-41,-18,-4,-4,-20,15
1523147587547352,-32,4,40,19,0,1,14,14
1523147587547823,51,33,25,-15,1,6,23,-106
1523147587547823,-2,-14,-26,-21,-15,-12,-48,26
1523147587561378,-3,-37,-11,41,3,-2,-11,-5
1523147587561378,8,17,34,-1,3,0,0,-30
1523147587562362,-26,14,-8,19,-4,-5,-1,24
1523147587562362,-1,-20,-4,-28,-6,0,15,-9
1523147587584045,-52,28,-16,-26,-4,0,10,0
1523147587584045,3,-16,-18,-9,-6,-5,-18,13
1523147587584980,-36,11,22,21,16,2,-5,25
1523147587584980,19,-18,-2,2,-11,-7,8,15
1523147587607108,-6,-6,-7,0,-6,6,-2,8
1523147587607108,-3,0,14,40,19,-12,-3,-14
1523147587607985,2,-11,-34,-90,-17,-2,-2,12
1523147587607985,20,19,23,42,14,20,18,-8
1523147587621652,10,3,14,-31,10,13,13,-18
1523147587621652,6,12,0,13,-4,3,4,12
1523147587622021,2,-10,-8,39,-6,-12,-18,-28
1523147587622021,-18,3,-3,-56,-15,-21,-13,-24
1523147587644156,-2,0,4,5,4,6,17,38
1523147587644156,-5,-1,-19,-42,-6,-3,1,12
1523147587644580,-16,-22,-17,14,-10,-6,-22,-6
1523147587644580,-10,11,19,16,9,1,4,-37
1523147587667266,3,-5,9,17,5,-3,0,8
1523147587667266,19,4,-6,-1,0,4,8,-9
1523147587668180,6,5,10,8,4,3,7,9
1523147587668180,5,8,-9,-13,-5,0,0,-14
1523147587680677,-7,-7,-15,1,-4,-6,-5,-16
1523147587680677,-2,-1,1,0,-3,-2,-3,0
1523147587689198,-16,-8,-19,-46,-3,1,5,13
1523147587689198,0,38,33,47,10,5,5,22
1523147587704238,3,-30,18,87,11,-1,-6,-4
1523147587704238,-17,1,-22,-44,-20,-9,-9,5
1523147587704740,3,-14,-3,32,8,7,27,46
1523147587704740,9,13,9,17,0,-4,-27,-13
1523147587726886,-30,13,-6,-14,-4,-7,-9,-18
1523147587726886,4,5,14,12,9,6,8,3
1523147587727802,33,-5,-1,4,-1,0,-5,7
1523147587727802,-11,-3,18,54,6,4,9,10
1523147587740879,15,8,-21,-115,-24,-5,-5,-1
1523147587740879,-1,-23,1,54,14,4,1,-15
1523147587749028,-18,1,-32,-13,-11,-5,-2,-20
1523147587749028,9,-2,29,45,7,4,10,18
1523147587772094,12,4,16,-6,3,-2,-5,-6
1523147587772094,8,6,-9,-7,1,1,5,11
1523147587772965,8,18,36,58,5,2,-3,-42
1523147587772965,-32,7,-37,-83,-17,-6,-1,42
1523147587787130,-18,-69,-17,51,6,2,6,-38
1523147587787130,0,5,-20,-6,-4,-4,-15,-2
1523147587788005,0,0,-7,14,3,-1,-1,-5
1523147587788005,0,10,15,-7,1,-2,-1,3
1523147587800664,-5,22,13,-11,-4,-1,5,-6
1523147587800664,-5,-13,-3,-17,-1,0,10,-7
1523147587809178,-9,1,9,4,2,1,-7,1
1523147587809178,5,-15,-14,2,4,1,5,-20
1523147587824102,7,15,-6,-19,-4,-5,-9,17
1523147587824102,7,-1,18,13,4,6,4,-8
1523147587824603,3,2,-6,1,-5,-3,3,16
1523147587824603,-7,-12,-3,26,0,0,8,21
1523147587847290,16,1,-14,-10,-4,-4,-11,-7
1523147587847290,2,20,67,106,21,4,4,8
1523147587847664,-23,-32,-77,-51,-35,-11,-10,-13
1523147587847664,5,1,4,30,-1,1,1,-9
1523147587860700,-74,6,17,42,4,1,-3,-2
1523147587860700,1,10,-15,12,5,0,3,-11
1523147587869222,0,-8,17,-23,2,-3,-7,5
1523147587869222,-4,-8,-20,-22,-5,-4,-5,-22
1523147587884260,14,9,14,-16,-6,-3,2,10
1523147587884260,-3,-7,-25,-45,-9,-1,0,-2
1523147587884762,-6,8,21,-2,6,-1,1,-5
1523147587884762,-9,-6,-14,-21,0,6,2,-11
1523147587907323,16,2,0,7,2,0,0,0
1523147587907323,2,-15,-36,-17,-15,-6,-6,7
1523147587907824,12,4,4,2,2,1,1,4
1523147587907824,9,-6,10,4,10,2,0,-3
1523147587920859,13,-1,4,-6,-2,-2,0,8
1523147587920859,0,16,26,0,0,-2,-1,0
1523147587929006,14,4,-5,-8,4,1,-1,7
1523147587929006,-30,-45,-20,-17,-13,-5,-6,-31
1523147587943945,10,22,-8,14,4,2,3,8
1523147587943945,9,-3,19,-8,-4,-2,0,-3
1523147587944979,-68,-60,-44,11,6,5,12,2
1523147587944979,-9,4,15,-11,0,-3,-9,-2
1523147587967112,37,13,23,10,17,9,1,8
1523147587967112,-7,18,-5,-7,-15,-5,-3,6
1523147587967984,17,14,18,4,0,-3,-3,-3
1523147587967984,-19,-18,6,-10,5,-5,-2,-4
1523147587980644,-40,36,-16,-8,-13,-7,-7,-17
1523147587980644,-17,8,40,0,11,6,7,-14
1523147587989070,10,-9,-11,-4,-13,-1,3,47
1523147587989070,1,29,18,6,0,-1,-2,3
1523147588004172,-8,10,-5,-8,4,-2,-1,-8
1523147588004172,27,-17,-12,-3,3,0,10,-10
1523147588004680,29,69,33,2,0,-2,-2,8
1523147588004680,-13,-33,-28,1,3,1,-9,-12
1523147588027287,-7,13,28,-7,-6,-1,1,20
1523147588027287,43,-58,-31,5,-5,0,-3,7
1523147588027733,-39,-21,-17,-2,4,1,10,13
1523147588027733,5,10,16,-5,6,-3,-2,-19
1523147588050292,-6,-9,2,4,-1,-1,-5,3
1523147588050292,14,-11,-4,2,-3,-3,3,23
1523147588050795,25,-4,32,59,16,6,0,-15
1523147588050795,-20,-2,-54,-70,-22,-8,-5,-5
1523147588063830,-13,-35,-24,3,-5,-5,-5,-10
1523147588063830,-13,4,1,13,6,4,-1,2
1523147588064833,22,47,11,5,4,3,-3,8
1523147588064833,-17,17,49,108,7,3,7,5
1523147588086954,8,-27,-83,-85,-52,-17,-8,-2
1523147588086954,12,21,-16,31,-9,-9,-11,3
1523147588087895,4,8,24,57,7,0,-2,-28
1523147588087895,18,-5,7,27,2,4,6,9
1523147588109511,23,-10,-6,-65,2,2,1,-3
1523147588109511,-40,1,-9,8,4,0,-5,-13
1523147588110454,-34,-23,-17,-62,-14,-10,-14,-22
1523147588110454,33,1,11,-34,-2,-2,3,15
1523147588123991,70,12,10,46,10,11,11,22
1523147588123991,-31,5,1,-20,-1,2,6,5
1523147588124993,8,-6,9,12,6,5,9,-22
1523147588124993,-52,-16,3,40,-3,-3,1,19
1523147588147096,5,5,-23,-86,-10,-6,-13,-47
1523147588147096,-1,-4,-5,15,-4,-5,0,22
1523147588148056,5,11,16,21,2,2,2,-30
1523147588148056,-1,5,-29,-45,-10,-4,3,-1
1523147588169612,-11,1,42,92,23,8,9,9
1523147588169612,-7,-1,-25,-85,-14,-2,-1,-20
1523147588170617,-24,-18,-20,6,-6,-3,-7,14
1523147588170617,49,30,58,93,25,9,3,2
1523147588184151,-27,-33,-34,63,5,-3,-3,-1
1523147588184151,5,5,-4,36,1,-2,-5,-4
1523147588184651,20,13,56,83,15,6,4,16
1523147588184651,-10,-28,-75,-60,-29,-11,-11,-12
1523147588207210,18,15,39,60,14,1,-2,-6
1523147588207210,-10,8,6,8,3,-1,-2,1
1523147588207713,6,-13,6,22,11,5,3,5
1523147588207713,19,15,22,-11,4,3,2,0
1523147588229773,-23,6,21,60,4,-2,-4,-8
1523147588229773,-12,-38,-39,-23,-25,-12,-10,-8
1523147588230272,-2,2,-16,-22,-10,-5,-3,-6
1523147588230272,-20,-2,-5,-24,-2,-1,0,8
1523147588243867,58,6,-3,-10,-3,-1,2,10
1523147588243867,-80,9,25,33,16,4,-2,-8
1523147588244814,12,-5,-17,-68,-10,-2,-3,-13
1523147588244814,3,15,9,33,-15,0,3,4
1523147588266930,-32,-15,5,-4,-1,-3,0,0
1523147588266930,17,9,-8,-13,4,3,1,-2
1523147588267873,-11,-23,-24,-48,-13,-6,-6,4
1523147588267873,3,7,6,15,8,2,-1,-9
1523147588289931,-13,-21,-4,-30,-4,0,-3,5
1523147588289931,19,-10,14,27,4,1,0,-1
1523147588290432,-5,10,-13,16,4,-1,1,4
1523147588290432,10,-19,8,-3,-3,-1,-2,0
1523147588304170,-4,8,-13,32,4,2,2,0
1523147588304170,-2,-8,-5,-10,-1,-2,0,7
1523147588304470,-7,-18,2,0,-3,-1,-3,-8
1523147588304470,26,24,0,13,2,-3,-2,-3
1523147588327532,-36,15,2,-26,-11,-3,-1,2
1523147588327532,20,18,29,55,13,8,2,0
1523147588328534,-2,-48,-15,-19,-8,-3,-2,6
1523147588328534,-26,22,-6,-14,-1,-5,-5,-10
1523147588349829,-10,-16,-5,-8,-7,-7,-6,-10
1523147588349829,21,7,9,-5,1,-3,-4,0
1523147588350593,2,10,-2,20,6,5,4,2
1523147588350593,2,1,-18,-31,-14,-2,-1,-2
1523147588364127,9,2,12,3,10,2,-1,0
1523147588364127,-4,-11,-20,3,-5,-6,-3,-5
1523147588364630,1,21,-9,-21,-8,-5,-4,1
1523147588364630,25,9,14,6,6,0,-2,-1
1523147588387435,10,17,24,3,-1,-1,3,7
1523147588387435,-14,-35,-19,-2,5,1,-1,-7
1523147588387692,-2,49,-35,-22,-8,-7,4,-4
1523147588387692,-22,14,15,2,-2,-4,-11,-11
1523147588409754,4,-4,3,-2,-8,-3,-1,1
1523147588409754,-23,-24,23,-9,5,7,2,-1
1523147588410254,4,-76,-40,-8,1,4,6,-36
1523147588410254,56,74,-11,0,-4,-2,-5,20
1523147588424826,-27,-25,32,55,29,19,13,-1
1523147588424826,26,34,-7,4,-14,-2,1,7
1523147588432312,23,4,13,-10,-16,-2,-5,-3
1523147588432312,7,-64,-5,-1,-16,-11,-4,-25
1523147588448000,-18,-14,14,-2,20,2,3,12
1523147588448000,22,-48,-24,-6,-7,-1,10,-47
1523147588448353,16,113,15,24,12,2,1,33
1523147588448353,-29,46,7,-8,-29,-1,4,-6
1523147588469641,49,-6,-6,-30,0,-10,-36,1
1523147588469641,-95,-89,13,13,-1,1,0,-22
1523147588470435,19,93,34,10,17,4,4,15
1523147588470435,-31,-74,-17,-15,-2,-3,-4,-23
1523147588483997,-80,-31,-24,-6,-14,-1,7,23
1523147588483997,17,33,25,-3,2,0,-1,7
1523147588484479,4,-45,-7,-2,-11,-6,-14,0
1523147588484479,9,-17,-4,23,38,5,8,13
1523147588507034,18,13,-13,0,-14,-3,6,3
1523147588507034,19,15,-11,-10,-6,-4,-3,19
1523147588508038,-21,-7,14,-2,-1,-1,1,8
1523147588508038,1,-7,5,-3,10,1,2,-8
1523147588529647,10,14,-16,5,-4,-5,1,-18
1523147588529647,9,29,-10,-40,-13,-9,-9,1
1523147588531098,-2,-19,14,45,1,1,1,-11
1523147588531098,1,-17,-30,-83,7,4,3,15
1523147588543243,8,17,-22,-29,-21,-5,-7,-14
1523147588543243,30,64,72,105,36,13,6,25
1523147588552153,-26,-53,-78,-23,-43,-17,-16,-8
1523147588552153,7,12,5,65,-2,1,2,5
1523147588566192,7,11,14,40,3,3,6,0
1523147588566192,5,4,-8,-57,-3,-5,-8,-6
1523147588573208,-16,5,11,-19,-4,1,0,-6
1523147588573208,4,1,11,-14,5,0,-2,4
1523147588589939,17,12,-2,3,7,-3,3,-12
1523147588589939,1,-9,-10,1,-7,-3,0,26
1523147588591260,-5,-25,3,-12,8,5,0,-1
1523147588591260,3,43,-21,-27,-12,0,0,-30
1523147588603528,8,38,17,-6,0,1,-2,33
1523147588603528,-2,17,-2,12,-1,-4,-6,-13
1523147588612313,-3,-4,-1,-37,0,-2,-1,7
1523147588612313,2,-12,1,16,2,-3,-3,-1
1523147588627091,-3,-12,-8,19,1,-1,1,-28
1523147588627091,11,39,-8,-28,-8,-2,3,15
1523147588628857,-5,35,4,15,5,-3,-12,-14
1523147588628857,28,0,19,16,7,4,5,14
1523147588649616,-11,-44,-27,-30,-17,-8,-7,-6
1523147588649616,-2,-12,-7,-17,-6,0,-2,1
1523147588650915,-3,-16,19,49,20,5,5,5
1523147588650915,-8,11,22,19,-10,-2,-1,6
1523147588663505,14,45,-44,-30,-17,-8,-9,-8
1523147588663505,4,10,-16,-4,8,2,0,-6
1523147588672553,-4,-11,-15,-6,-7,-3,2,-3
1523147588672553,-7,-10,7,57,5,1,-2,3
1523147588687245,-25,-44,11,-33,-4,4,5,3
1523147588687245,-27,9,-12,-27,-12,-7,-7,-7
1523147588689089,9,-6,6,1,11,-1,-2,0
1523147588689089,4,-14,-10,-14,-4,2,3,9
1523147588709571,5,31,19,18,2,-1,0,-7
1523147588709571,3,-19,-10,-1,-4,0,-3,4
1523147588711598,-9,-12,6,-24,2,3,4,-2
1523147588711598,-11,-3,6,21,5,-2,-3,1
1523147588723207,-3,-17,-29,-41,1,-2,-2,-4
1523147588723207,0,-9,0,23,-8,0,0,-7
1523147588732133,7,10,5,10,4,-1,0,1
1523147588732133,0,-9,-5,-5,2,0,1,2
1523147588747096,4,3,8,12,1,-2,-1,2
1523147588747096,12,3,30,49,11,2,2,3
1523147588749051,-8,-23,-38,-42,-21,-6,-4,-4
1523147588749051,-3,-2,-41,-49,-11,-10,-8,-5
1523147588769616,-6,-49,11,15,4,2,0,3
1523147588769616,-5,-12,-10,17,5,0,1,-4
1523147588771548,-2,6,27,45,5,0,1,-5
1523147588771548,-22,-31,-11,-74,-9,-4,-1,-1
1523147588783152,12,16,0,1,-8,2,0,0
1523147588783152,-3,22,5,-11,0,-1,-4,-5
1523147588792219,1,-4,12,9,1,-2,-1,3
1523147588792219,2,14,13,-9,-7,1,0,-1
1523147588807260,3,-1,0,27,6,0,2,-1
1523147588807260,2,-7,-3,2,3,0,1,2
1523147588808764,-1,11,-3,-28,-7,-2,-3,-1
1523147588808764,0,9,13,86,13,4,4,3
1523147588829864,-2,-12,3,-35,-14,-1,-2,-2
1523147588829864,1,-12,-9,-9,-5,-1,0,1
1523147588831324,6,11,-5,19,3,-2,-3,-2
1523147588831324,3,-9,0,2,3,-1,-3,-1
1523147588843393,1,6,7,7,5,-1,-2,-1
1523147588843393,0,3,-16,-17,-7,-2,-2,-5
1523147588852386,8,-23,12,2,0,0,2,2
1523147588852386,-3,-2,7,23,3,1,1,1
1523147588867422,-3,0,-17,-33,-7,-1,-3,-8
1523147588867422,-25,20,-4,-10,-2,-5,0,9
1523147588868926,-4,-1,3,11,11,4,4,-7
1523147588868926,-2,-20,-11,-7,-16,-2,-5,-6
1523147588889602,2,1,8,28,5,0,-2,0
1523147588889602,8,9,10,25,8,4,1,-4
1523147588891110,-19,9,-10,-38,-4,-1,1,0
1523147588891110,-3,4,9,21,6,-2,-4,-7
1523147588903201,-7,8,15,-7,-4,-6,-4,0
1523147588903201,7,-16,-12,-21,-4,-1,0,-5
1523147588912166,-4,4,-9,7,-6,-3,-3,8
1523147588912166,-3,-13,2,0,1,1,2,-2
1523147588927254,-26,-10,-1,9,0,-1,-2,-7
1523147588927254,-1,28,-10,-1,-4,-6,-6,-8
1523147588928711,22,-8,0,1,4,0,1,3
1523147588928711,-36,12,5,-20,-3,-1,0,1
1523147588949766,-62,-31,-15,16,11,4,6,-29
1523147588949766,91,78,9,-21,-9,-3,0,38
1523147588951271,92,37,28,8,-11,-11,-10,9
1523147588951271,-22,-28,6,-17,-6,-3,-11,17
1523147588972325,33,8,7,28,14,2,2,-34
1523147588972325,-12,-11,10,0,2,9,28,0
1523147588973859,-83,-2,-9,10,14,0,-22,22
1523147588973859,106,22,-10,22,-15,-7,-2,21
1523147588987366,1,10,-13,-43,1,-4,-15,21
1523147588987366,-93,-73,-1,-1,-10,-4,1,-41
1523147588988872,55,-22,9,10,5,1,3,-1
1523147588988872,-51,-3,-32,-1,6,2,4,-17
1523147589009484,62,26,-6,19,5,0,0,-2
1523147589009484,50,46,-16,0,-5,4,3,12
1523147589011430,-89,-5,16,-10,1,-2,2,-76
1523147589011430,18,-19,16,3,5,2,15,-7
1523147589031986,58,25,12,0,-14,-3,-10,28
1523147589031986,3,58,-18,-27,9,-3,-3,-12
1523147589033488,14,-5,-9,0,-24,-8,-11,5
1523147589033488,2,-45,-33,-15,-7,5,15,0
1523147589045688,-107,23,35,10,4,2,-8,-22
1523147589045688,49,-38,-2,33,8,-3,-13,-17
1523147589054607,-21,-28,-7,-17,-1,1,7,20
1523147589054607,25,19,-46,-48,-8,-7,-4,-1
1523147589069825,-19,-21,4,-20,-3,-1,4,14
1523147589069825,-52,-55,-2,-8,2,2,-1,-70
1523147589071335,9,20,11,22,16,10,8,0
1523147589071335,13,31,28,5,-3,-1,-9,29
1523147589091994,-48,-17,-14,0,-6,-6,0,-5
1523147589091994,-3,-19,25,75,4,-4,-18,-19
1523147589093893,3,1,-22,-7,-13,-6,5,3
1523147589093893,-7,3,19,33,18,6,6,-1
1523147589105990,4,21,-9,4,-1,14,-1,-29
1523147589105990,-5,-21,13,8,-2,-6,2,36
1523147589114951,-2,-3,-2,-17,-7,1,-2,12
1523147589114951,-11,8,1,-4,1,-2,-7,0
1523147589130112,-6,-20,-2,15,4,-4,8,2
1523147589130112,-21,-1,0,-13,-9,-4,-6,19
1523147589132010,23,4,-31,-57,-16,-10,-5,-8
1523147589132010,-30,8,23,35,6,-6,-10,-32
1523147589159584,1,-49,-38,-72,-29,-8,0,10
1523147589159584,-8,-12,-5,6,-4,4,6,16
1523147589161088,-6,1,-1,11,3,0,0,4
1523147589161088,-5,4,20,3,3,-1,-3,-7
1523147589166730,15,0,-7,11,2,-9,-6,11
1523147589166730,-6,-7,-2,-83,-13,-6,-7,10
1523147589173119,-5,-8,-10,-34,-4,3,4,-13
1523147589173119,30,13,-1,-2,4,5,0,4
1523147589189663,66,14,3,17,-7,-7,-5,8
1523147589189663,-3,-14,-7,6,4,-3,-1,-14
1523147589191169,-4,8,20,37,14,12,4,-9
1523147589191169,-7,-9,-27,-83,-24,-6,0,27
1523147589212232,20,7,2,38,3,-2,3,7
1523147589212232,3,13,44,91,24,14,-6,13
1523147589213729,-37,-16,-49,-4,-22,-19,-6,26
1523147589213729,13,-10,17,63,11,2,0,-4
1523147589226795,-10,-9,-6,13,0,1,7,2
1523147589226795,-4,3,12,17,5,-2,-2,-4
1523147589233577,-2,-4,21,18,7,0,1,-5
1523147589233577,9,13,-16,-55,-17,-8,-6,-8
1523147589249938,-6,4,9,14,4,1,2,3
1523147589249938,-3,-9,-12,-9,0,3,3,0
1523147589251574,19,10,6,-28,-3,3,1,5
1523147589251574,-22,-9,-20,-23,-9,-5,3,-6
1523147589271946,13,8,7,14,3,2,-9,-8
1523147589271946,-59,-5,-20,-33,-10,-5,-2,-2
1523147589273951,2,0,19,50,7,4,2,-3
1523147589273951,4,21,15,33,9,2,-1,2
1523147589286695,7,9,1,-27,1,-1,2,7
1523147589286695,19,5,-8,-1,-6,-2,-1,5
1523147589293003,-14,-23,-11,-7,-1,3,0,-13
1523147589293003,-35,-21,4,13,3,1,1,-36
1523147589309546,23,-4,6,19,3,0,0,46
1523147589309546,8,0,-41,-94,-27,-10,-5,-1
1523147589311061,-4,-11,15,29,5,-1,-1,-3
1523147589311061,1,0,-16,-30,-2,-1,-1,-8
1523147589332307,-1,-6,3,-13,0,2,4,-9
1523147589332307,4,-2,7,21,7,0,2,4
1523147589334113,3,0,-4,-6,-4,-4,-1,3
1523147589334113,-4,-4,-12,-13,-7,-4,-5,3
1523147589346645,-9,-1,8,9,5,0,4,-5
1523147589346645,-5,1,7,6,6,2,1,-1
1523147589353161,11,8,3,3,-2,0,-2,-4
1523147589353161,4,-3,-2,28,4,-2,-2,0
1523147589369925,-14,-3,-5,-14,-3,-2,-2,-9
1523147589369925,13,1,-2,2,-4,-3,1,3
1523147589371210,-2,0,-2,-10,-9,-2,-6,-5
1523147589371210,2,-3,-6,-16,-4,0,-3,6
1523147589392266,2,1,3,20,8,7,4,0
1523147589392266,-30,-9,-23,-70,-13,-7,-1,3
1523147589393771,17,19,12,32,4,-3,-7,-16
1523147589393771,-1,-5,6,-11,-5,-4,-3,26
1523147589406303,8,-2,-9,-13,-3,-2,-2,-11
1523147589406303,-4,1,8,26,6,4,5,-14
1523147589413419,-3,15,8,-2,1,1,6,52
1523147589413419,-30,0,4,24,4,-1,-3,-14
1523147589430039,0,-11,-15,-39,-10,-4,-2,-7
1523147589430039,10,-6,2,16,0,-4,-4,5
1523147589431633,6,8,-4,-10,1,0,5,-7
1523147589431633,14,-8,19,36,7,3,2,-8
1523147589452099,-15,-3,-22,-12,-4,-2,0,9
1523147589452099,0,-3,-3,-21,-4,-2,-4,-10
1523147589454105,-3,21,2,1,5,0,-1,-6
1523147589454105,-4,0,0,14,2,-3,-1,0
1523147589465875,-21,0,13,40,4,-1,0,-16
1523147589465875,7,2,-1,-29,2,-1,1,-15
1523147589475160,-25,-39,-11,21,8,2,-10,-14
1523147589475160,-10,9,13,19,1,3,2,66
1523147589489700,-5,10,-11,-75,-23,-8,-7,-12
1523147589489700,-19,-4,17,25,5,-2,5,-25
1523147589491205,-19,-45,-2,-8,-3,0,-2,11
1523147589491205,-13,-47,0,6,6,2,9,-22
1523147589512462,51,22,6,43,0,-3,-26,-66
1523147589512462,12,41,8,-46,4,0,4,122
1523147589513764,-40,-51,-11,28,-11,-2,15,5
1523147589513764,-78,-6,-15,-2,1,-4,-5,-71
1523147589525777,-43,-19,-8,-7,2,1,-11,-22
1523147589525777,8,-51,-34,50,3,-5,-17,-26
1523147589534598,15,56,56,-13,14,4,10,-4
1523147589534598,39,8,-25,-18,-18,-1,-2,-3
1523147589549793,-39,-64,35,35,23,8,14,6
1523147589549793,25,-65,-82,-26,-35,-13,2,-43
1523147589551142,30,24,45,-3,11,8,1,-4
1523147589551142,113,31,11,9,5,-5,-18,62
1523147589572353,35,4,-44,-28,-15,-12,-9,-12
1523147589572353,20,6,13,26,6,-1,-20,-12
1523147589573704,17,24,-27,-15,-9,-5,-14,-24
1523147589573704,48,-3,1,-31,-7,-4,7,12
1523147589585895,23,-1,2,17,3,2,7,-35
1523147589585895,99,29,24,7,4,0,4,98
1523147589594758,-11,-15,-8,2,-2,3,-11,-19
1523147589594758,-77,-13,-13,24,-19,-3,0,-23
1523147589609904,-25,21,-3,-14,7,-15,5,31
1523147589609904,-44,-13,12,17,16,13,4,-30
1523147589611303,10,17,-15,-34,-26,-2,7,38
1523147589611303,20,-3,4,9,21,7,0,16
1523147589631954,-22,-7,3,-12,-12,3,3,22
1523147589631954,-6,20,10,-19,11,-17,-6,-22
1523147589633864,11,-9,-9,13,5,1,-5,-10
1523147589633864,-8,18,4,50,-18,10,9,-17
1523147589645623,6,-1,-36,-77,-1,-10,-7,15
1523147589645623,-38,14,24,27,-11,1,-5,-11
1523147589654588,0,0,20,53,9,-3,3,3
1523147589654588,-16,-20,-8,-6,-13,-7,-8,-30
1523147589670664,5,15,15,30,2,4,-2,14
1523147589670664,-6,-7,-7,5,1,6,3,0
1523147589675647,-9,-6,0,-26,-12,2,1,-5
1523147589675647,5,3,-2,33,24,-1,2,-11
1523147589692249,-31,-12,-12,9,1,-3,-6,-61
1523147589692249,8,14,19,-16,-15,-5,-14,-20
1523147589693692,29,-1,-2,27,35,-14,-8,21
1523147589693692,-10,9,1,-56,-30,24,8,-33
1523147589714789,1,11,14,36,3,4,4,37
1523147589714789,-12,-1,-4,40,0,-1,-1,3
1523147589716253,-10,-4,-21,-72,-17,-6,-2,-18
1523147589716253,-18,-23,-11,-34,9,-7,-3,14
1523147589729405,11,20,16,22,-1,1,0,18
1523147589729405,-6,8,12,25,6,6,13,-10
1523147589731410,-9,-5,-25,6,-9,-2,-3,-27
1523147589731410,47,40,16,12,10,-2,8,43
1523147589752030,35,-2,5,-36,-9,1,-4,6
1523147589752030,-17,-4,-19,-27,-3,-2,9,-4
1523147589753969,-13,-5,-3,2,-9,-4,-17,17
1523147589753969,5,9,-1,-3,3,-4,-2,-7
1523147589766001,-1,1,5,1,-7,4,11,13
1523147589766001,21,4,4,35,12,4,3,-4
1523147589774526,25,-11,-8,1,1,3,5,8
1523147589774526,41,3,5,16,8,-4,-4,8
1523147589789566,-4,5,3,-29,-13,-3,1,16
1523147589789566,-15,-11,-16,-6,-5,2,-6,-4
1523147589791069,-7,-4,8,19,-2,0,5,0
1523147589791069,-16,4,-1,-2,10,-3,-6,-5
1523147589812125,-2,-7,13,10,-6,1,3,-5
1523147589812125,-17,2,-7,13,-11,-16,-4,-2
1523147589813632,-6,2,-11,-30,16,11,3,0
1523147589813632,-9,-7,-8,-4,-8,-5,0,-6
1523147589825660,9,-5,-3,9,9,2,2,8
1523147589825660,-3,3,10,1,-3,2,0,8
1523147589834685,-2,5,0,2,-10,-10,-2,-2
1523147589834685,-26,-15,-5,-32,-3,-7,-7,-3
1523147589849810,3,-10,-31,-37,1,1,1,1
1523147589849810,-1,1,5,-18,-3,2,3,-16
1523147589851230,30,1,21,43,5,2,6,1
1523147589851230,-64,11,-15,-40,-5,0,-2,18
1523147589872284,-44,4,7,29,-1,-5,5,0
1523147589872284,3,-27,-7,-6,6,5,-5,22
1523147589873790,-1,-4,-12,-19,-2,1,-10,-9
1523147589873790,0,1,21,25,-2,-2,-7,-18
1523147589885926,-1,7,11,-35,-12,-2,2,5
1523147589885926,-11,-4,-32,-14,3,-3,1,-7
1523147589894846,-32,-8,-12,9,-2,2,2,-5
1523147589894846,-12,-3,7,-8,-4,-5,-4,7
1523147589909410,2,12,16,30,4,0,-2,-1
1523147589909410,1,5,12,-10,-5,-2,-3,-4
1523147589911389,3,-20,-22,20,-4,-6,-2,2
1523147589911389,13,5,15,19,11,-2,2,-11
1523147589932051,5,-1,-1,-8,0,2,-2,0
1523147589932051,3,6,7,2,-2,1,1,-4
1523147589934008,-20,4,2,-14,-3,2,1,-1
1523147589934008,4,-2,-8,-3,0,-1,3,-2
1523147589954610,-4,-7,-2,45,8,-2,-6,-6
1523147589954610,51,1,10,-5,-4,3,2,8
