timestamp,emg1,emg2,emg3,emg4,emg5,emg6,emg7,emg8
1523148575016768,7,-2,-13,8,1,-1,-1,4
1523148575016768,-3,-1,-5,-10,7,1,0,2
1523148575018777,10,0,6,23,-3,-1,1,-4
1523148575018777,-29,-3,0,-4,2,0,-4,-8
1523148575030340,4,-6,-17,-31,-8,-4,-3,0
1523148575030340,7,0,2,-19,-2,-2,-1,0
1523148575039327,-3,-5,-6,10,-2,-1,0,2
1523148575039327,8,3,1,3,-2,3,2,-1
1523148575054367,9,2,4,4,3,0,1,3
1523148575054367,4,-8,9,56,7,4,3,5
1523148575055873,-10,-5,-3,-11,-6,-4,-3,-5
1523148575055873,-8,-1,-3,3,-4,-4,-4,-5
1523148575084454,2,-4,-2,0,0,-1,-1,0
1523148575084454,5,0,-3,-3,-1,2,1,4
1523148575086464,-7,3,15,27,3,-1,-2,-2
1523148575086464,0,-5,-18,-42,-10,-4,-3,-3
1523148575090465,16,5,13,13,3,-2,2,4
1523148575090465,3,0,-2,-16,-4,-1,0,-2
1523148575099493,-27,-10,-8,0,-7,-2,-2,2
1523148575099493,18,6,4,16,0,0,-2,-2
1523148575114026,-9,-2,-15,-68,-9,-2,-1,-5
1523148575114026,-33,4,-14,-42,-4,-2,-2,-6
1523148575120543,-6,3,8,22,5,2,4,-2
1523148575120543,11,4,3,11,-1,-1,2,5
1523148575136586,13,-12,-2,18,1,2,-1,-3
1523148575136586,-2,16,0,0,1,-2,0,3
1523148575138591,-8,12,10,-2,1,-1,0,8
1523148575138591,-14,-6,-6,7,-1,-3,-3,-16
1523148575150625,26,3,3,-5,-4,-3,-1,15
1523148575150625,-11,-21,-4,6,-3,-1,-3,-20
1523148575159648,34,-16,-11,-11,-3,-1,-1,13
1523148575159648,-21,-5,1,-4,0,0,-2,-5
1523148575173685,-7,13,19,54,5,2,1,0
1523148575173685,14,6,-42,-50,-13,-7,-5,1
1523148575180703,7,-3,2,-4,2,3,2,-2
1523148575180703,12,-5,-3,-2,-1,-2,0,2
1523148575196745,-5,-6,-3,9,1,0,4,7
1523148575196745,-27,-12,14,16,4,1,-4,-3
1523148575198251,23,30,-3,-6,-2,0,4,9
1523148575198251,18,-6,-4,-20,-2,1,4,-18
1523148575210282,-46,12,9,18,6,1,-6,-2
1523148575210282,-55,-56,-6,-4,-5,-3,-8,-27
1523148575219307,-22,-16,-16,-20,-8,-5,-8,-9
1523148575219307,15,5,3,7,1,-1,-1,8
1523148575233849,11,-7,3,0,-2,-1,6,0
1523148575233849,10,12,15,4,2,1,4,3
1523148575240364,-7,6,12,17,8,0,-4,-3
1523148575240364,-12,-5,-15,-10,-19,-4,0,3
1523148575256905,-5,-4,14,-4,2,0,-4,-9
1523148575256905,27,21,0,-1,3,1,1,15
1523148575258411,2,-3,1,11,1,1,1,-6
1523148575258411,-14,-1,-2,1,1,-2,-2,10
1523148575279466,5,3,0,1,1,0,-1,-2
1523148575279466,23,9,11,4,4,1,2,7
1523148575280971,27,-3,5,6,0,0,1,0
1523148575280971,-17,6,4,-1,8,1,-1,3
1523148575294506,-6,-5,-13,-6,-4,-2,-4,-1
1523148575294506,1,-11,4,4,5,-1,1,0
1523148575296010,-18,1,-3,2,-2,1,2,-4
1523148575296010,2,5,8,-4,-1,2,2,4
1523148575316565,-17,7,3,-1,-1,-3,-2,5
1523148575316565,12,-12,-6,16,5,4,1,-5
1523148575318571,-26,-5,-11,-11,0,-4,-3,2
1523148575318571,35,7,4,4,-1,-2,1,-4
1523148575339124,-27,14,11,2,3,-2,-1,7
1523148575339124,-10,-7,13,24,-1,2,-3,-12
1523148575341131,-7,-7,-11,16,-1,-2,1,-2
1523148575341131,5,8,-10,-4,4,-1,0,2
1523148575354166,0,-39,-5,0,-10,-4,-5,-2
1523148575354166,0,-1,-19,-5,-2,-2,-1,-3
1523148575356172,-7,-4,16,55,4,-5,-4,-9
1523148575356172,0,-9,-28,-76,-15,-4,-2,2
1523148575376736,22,8,-2,2,3,2,3,3
1523148575376736,-3,12,2,-3,-4,-1,0,-2
1523148575378230,7,-9,-4,-12,-6,-2,-4,-3
1523148575378230,-8,7,24,38,5,-1,-2,0
1523148575399286,5,-2,-19,-54,-9,-4,-4,-7
1523148575399286,15,2,-4,-10,-3,-2,0,10
1523148575400790,2,9,1,-2,2,0,0,-3
1523148575400790,-8,1,9,-26,1,3,0,-5
1523148575413824,31,2,-1,28,5,1,2,5
1523148575413824,-13,5,11,19,3,-2,-3,-5
1523148575420342,1,-6,-30,-80,-13,-5,-6,-6
1523148575420342,-4,-8,-10,15,-4,-2,-4,-2
1523148575436886,3,-1,-2,11,3,2,3,-6
1523148575436886,15,7,7,18,0,0,4,19
1523148575438390,-2,2,8,6,1,1,2,0
1523148575438390,-14,-13,-21,-48,-11,-5,-3,-2
1523148575459496,2,3,-20,-52,-13,-7,-4,-4
1523148575459496,-2,-5,5,27,2,-3,1,9
1523148575460950,-3,2,2,-24,-2,2,-4,-12
1523148575460950,4,4,11,43,6,0,2,5
1523148575472982,10,9,23,46,10,3,3,3
1523148575472982,-10,8,28,80,20,3,3,-4
1523148575482006,-16,-21,-29,21,-9,-5,-5,-7
1523148575482006,6,-7,-5,36,1,-2,-5,0
1523148575497045,-14,11,15,26,4,2,0,-16
1523148575497045,15,-5,1,-16,1,1,-1,3
1523148575498550,16,11,10,10,-5,0,7,11
1523148575498550,-20,-22,-3,14,1,-3,-4,-3
1523148575519609,-12,-10,-15,-29,-5,-3,-7,-15
1523148575519609,3,15,-8,-27,-4,1,-1,0
1523148575521111,3,-10,4,13,1,-2,-1,2
1523148575521111,5,4,-2,-11,-6,0,-1,-1
1523148575533642,4,3,-2,-40,-5,1,5,6
1523148575533642,-3,-1,-14,-31,-9,-3,-4,1
1523148575540703,-2,-3,-1,16,7,2,0,-1
1523148575540703,1,10,10,21,7,1,1,1
1523148575556704,-3,-4,0,-30,-6,-2,-4,-4
1523148575556704,0,-2,-12,-24,-9,-4,-2,1
1523148575558709,-2,5,-1,3,3,-1,-2,-1
1523148575558709,-1,0,3,-4,-2,-2,0,1
1523148575579263,-3,-4,2,12,-4,1,3,1
1523148575579263,0,-12,-14,-18,-1,0,-2,-3
1523148575580770,-1,-1,13,-9,3,-1,-1,-1
1523148575580770,1,2,-5,0,6,1,-3,-6
1523148575593802,0,-3,-1,24,2,0,1,9
1523148575593802,19,5,-13,-11,-7,-3,-1,-2
1523148575600321,4,2,-1,8,-1,-1,1,4
1523148575600321,5,14,21,11,6,2,0,1
1523148575616865,-23,-19,-21,2,-1,-3,-4,-5
1523148575616865,-25,-9,-10,-18,-5,-2,-1,-4
1523148575618368,22,10,3,10,0,-2,-4,-14
1523148575618368,-10,-3,-24,-51,-12,-3,1,6
1523148575639476,9,-4,-5,-5,-1,-1,-5,-2
1523148575639476,34,14,6,-16,-1,-1,-1,-3
1523148575640929,-17,-13,8,-9,-3,-1,0,6
1523148575640929,22,15,14,20,3,0,-2,6
1523148575653462,3,-8,-4,10,4,0,-1,-10
1523148575653462,-25,-11,-12,-9,-16,-7,-5,-9
1523148575668001,-26,1,5,8,2,1,-2,-21
1523148575668001,1,-9,-5,1,-1,-2,-3,-3
1523148575677223,3,1,9,6,3,0,1,7
1523148575677223,13,9,-1,-4,-3,-4,0,-1
1523148575678528,-40,41,16,-3,4,5,6,12
1523148575678528,80,26,3,-1,0,-1,0,1
1523148575699586,-29,3,14,0,2,0,1,-1
1523148575699586,-60,-26,-14,-4,-6,-3,-5,-14
1523148575701090,102,30,-9,-5,0,1,2,23
1523148575701090,-22,-55,-15,-4,-5,-1,1,-6
1523148575713621,31,29,12,11,1,-4,-6,4
1523148575713621,29,-16,14,1,9,6,8,15
1523148575720641,-41,-19,-75,-14,-12,-9,-9,-22
1523148575720641,-14,3,5,5,4,2,0,-2
1523148575736684,26,12,18,8,1,0,-1,-3
1523148575736684,-12,7,36,3,1,5,1,-11
1523148575738688,13,-4,11,4,4,0,2,17
1523148575738688,1,1,-27,-9,-17,-7,-6,-15
1523148575759280,-47,-21,-25,0,-3,-4,-2,-3
1523148575759280,3,6,21,8,8,1,-2,-6
1523148575760785,-10,-4,15,6,11,2,1,7
1523148575760785,-17,5,-3,0,-5,-1,3,9
1523148575772817,10,-2,-11,-2,-7,0,4,8
1523148575772817,12,7,-12,1,1,-1,-1,8
1523148575781841,-29,-21,9,1,-3,-2,-2,-11
1523148575781841,-68,-13,-3,-16,-5,-7,-8,-6
1523148575796881,1,-5,6,21,6,2,-3,-14
1523148575796881,17,28,-16,-24,-1,1,2,6
1523148575798385,21,2,30,79,4,2,1,12
1523148575798385,-12,-9,-30,-38,-15,-10,-8,-4
1523148575819441,-8,-4,-9,-39,-6,-2,-2,-2
1523148575819441,10,6,1,63,10,1,0,-1
1523148575820944,12,-3,8,-24,-1,4,4,2
1523148575820944,1,4,15,63,12,2,1,-1
1523148575832977,-10,-15,-46,-91,-25,-8,-4,-4
1523148575832977,-10,-7,-9,5,-4,-4,-1,-2
1523148575842002,5,-6,-5,-11,-5,-3,-2,-7
1523148575842002,5,0,19,20,3,0,1,5
1523148575857041,1,4,6,29,3,-2,2,0
1523148575857041,5,3,3,-12,-1,-1,-4,3
1523148575858545,-14,-9,-7,-9,-6,-5,-5,-10
1523148575858545,11,11,17,9,11,4,0,-4
1523148575879099,25,8,7,4,1,2,3,13
1523148575879099,4,-8,0,13,-3,-4,0,4
1523148575881104,-38,-4,8,-14,-1,-2,-5,-23
1523148575881104,-15,-20,-52,-98,-20,-5,-4,-7
1523148575893137,11,7,17,49,7,3,2,13
1523148575893137,26,-1,22,69,10,2,0,3
1523148575902162,-4,-9,-14,29,-1,-2,-5,0
1523148575902162,10,15,13,4,2,1,5,-6
1523148575916699,4,3,38,63,13,3,-3,7
1523148575916699,-2,-18,-35,-67,-20,-6,-4,-2
1523148575918705,-5,5,-6,19,-1,-2,0,-2
1523148575918705,10,8,7,4,-1,0,0,3
1523148575939260,-7,7,27,49,7,0,0,-6
1523148575939260,-5,-9,-23,-64,-6,-2,-2,3
1523148575945274,3,0,-9,-23,-4,-3,-1,-2
1523148575945274,0,4,0,29,4,-1,1,0
1523148575952796,0,-7,-19,-90,-16,-6,-4,-5
1523148575952796,-16,6,9,13,4,-2,-2,-8
1523148575961820,3,-23,-28,-23,-3,0,-1,2
1523148575961820,4,9,5,-28,2,0,-1,4
1523148575976859,5,-3,3,56,7,1,1,-3
1523148575976859,-13,15,27,29,3,1,1,-3
1523148575978365,1,-15,-35,-40,-10,-5,-4,-1
1523148575978365,0,-11,-6,39,2,-1,0,0
1523148575999447,-6,-5,4,11,0,-2,-3,-4
1523148575999447,-3,-4,-8,-15,-3,-2,-3,-2
1523148576000951,13,16,30,14,3,-1,1,8
1523148576000951,-4,-5,11,12,2,2,2,-2
1523148576012983,-5,-2,-16,-2,-2,-2,1,-2
1523148576012983,-6,-2,-10,-11,-3,-1,0,-2
1523148576022008,5,5,17,12,5,2,3,3
1523148576022008,-5,-7,-6,-54,-1,4,1,0
1523148576037049,1,0,-13,1,-8,-3,-4,-1
1523148576037049,-1,-2,5,4,1,-1,0,-5
1523148576038552,-10,-2,-6,0,-3,-2,-2,-1
1523148576038552,2,3,13,27,6,3,2,2
1523148576059106,-4,5,2,-12,-1,0,1,-5
1523148576059106,2,-13,-10,6,-2,-1,-1,1
1523148576061112,2,4,6,-41,-7,-4,-2,-2
1523148576061112,-15,-7,-17,4,2,-1,-2,2
1523148576073145,1,1,-11,-2,-1,-1,2,3
1523148576073145,-4,-5,-6,-3,-2,-1,-2,-3
1523148576082174,-1,1,9,7,2,3,-1,-1
1523148576082174,5,3,4,12,0,-2,-1,-1
1523148576096706,-5,-8,-8,-19,-6,-4,-4,-5
1523148576096706,-2,0,-4,2,1,-2,-2,1
1523148576098714,-6,-4,1,9,-4,1,1,3
1523148576098714,-4,0,-10,-9,-6,-6,-5,-9
1523148576119268,-2,-1,0,-2,2,0,-2,-2
1523148576119268,-2,-3,-19,-11,-6,-1,1,1
1523148576120771,13,13,16,-4,0,-1,0,0
1523148576120771,-3,-15,-18,-1,-8,-6,-3,-2
1523148576132803,-6,-14,1,0,-3,-2,1,-1
1523148576132803,-5,5,-9,-14,-8,-7,-4,-6
1523148576141828,6,-1,3,0,3,0,1,5
1523148576141828,-8,-18,-4,4,5,0,0,-1
1523148576156866,31,11,2,2,-5,-2,-2,-11
1523148576156866,5,-3,-7,3,6,3,2,-1
1523148576158371,13,-19,3,-1,-5,-5,-1,-4
1523148576158371,-33,-27,-11,1,1,-2,-2,0
1523148576179427,5,35,6,7,9,4,2,6
1523148576179427,-5,-18,-10,-2,-3,-3,5,5
1523148576180931,44,20,11,0,-1,-1,-10,-5
1523148576180931,-41,2,9,3,0,0,1,-1
1523148576201986,-26,-2,1,-11,-4,0,-1,-3
1523148576201986,0,6,20,6,-1,-2,-3,-7
1523148576203491,-10,1,-16,-3,-4,-1,1,-2
1523148576203491,-24,3,7,17,7,4,1,-8
1523148576216525,-5,0,-24,-10,-7,-6,-6,-1
1523148576216525,-5,16,24,4,4,2,7,0
1523148576223042,-10,-31,-9,25,11,5,5,34
1523148576223042,26,11,-11,-6,-11,-5,-5,-6
1523148576239085,8,-9,-7,6,3,0,-1,5
1523148576239085,-10,7,-24,-38,-7,-5,-8,-17
1523148576241090,-7,-17,-1,15,3,0,3,-9
1523148576241090,30,17,33,24,5,3,3,12
1523148576261645,2,-22,-8,-14,-3,-1,4,7
1523148576261645,-4,7,16,50,3,0,-6,2
1523148576263652,-24,4,-21,-38,-9,-6,-4,-14
1523148576263652,10,2,-11,-35,-5,-5,-5,-3
1523148576276689,3,0,1,-45,-6,2,3,6
1523148576276689,-3,-11,-1,25,1,-2,-3,-3
1523148576278692,-4,9,11,20,4,1,0,-8
1523148576278692,36,15,43,92,19,10,10,15
1523148576299246,-19,-13,-38,-1,-11,-8,-9,3
1523148576299246,-4,-3,0,0,-3,-4,-3,-4
1523148576300750,-6,-2,-3,-11,-4,-3,-6,-1
1523148576300750,16,16,18,8,4,-1,0,1
1523148576321815,5,3,18,12,4,3,3,2
1523148576321815,-11,-8,-8,-19,-2,0,1,-3
1523148576323311,-12,4,0,13,0,-3,-4,-14
1523148576323311,0,0,1,-11,-4,-1,-2,0
1523148576336358,2,-13,-20,-58,-9,-5,-3,-7
1523148576336358,4,-7,-3,4,-3,-1,-2,14
1523148576342871,-4,4,5,-7,0,2,2,-8
1523148576342871,5,-3,-13,-17,-9,-5,-4,-5
1523148576359411,-21,1,6,18,5,4,2,-10
1523148576359411,12,1,-6,-42,-5,-1,-2,3
1523148576360911,-1,-4,4,0,-4,-2,-2,3
1523148576360911,0,13,21,38,4,0,0,-1
1523148576381968,-4,-19,-19,15,-6,-4,-1,0
1523148576381968,-10,-2,-20,19,-3,1,0,-3
1523148576383472,19,4,0,44,7,2,0,5
1523148576383472,-4,-5,-14,-24,-13,-6,-3,-5
1523148576396506,5,21,39,38,8,-1,-1,-2
1523148576396506,-1,-6,12,-6,-1,0,0,1
1523148576403209,-5,3,-8,-25,-3,1,1,-8
1523148576403209,13,-6,-5,-9,5,0,3,9
1523148576419569,15,3,3,3,0,-3,-8,-10
1523148576419569,-16,0,0,10,-2,-1,0,-1
1523148576421073,-3,1,-13,-60,-11,-3,0,5
1523148576421073,-14,-9,-6,9,-2,-1,-1,-10
1523148576441937,-2,-3,-8,-57,-8,-2,1,-2
1523148576441937,14,-1,-4,10,-1,-1,-1,3
1523148576443441,3,-1,10,23,2,-1,1,3
1523148576443441,-10,-3,-10,-14,-5,-2,-2,-6
1523148576456196,-8,-11,-15,-12,-6,-4,-1,-6
1523148576456196,5,8,15,11,4,2,0,3
1523148576463211,-1,6,8,40,2,-1,-2,1
1523148576463211,5,-5,-5,-59,-11,0,1,3
1523148576479765,-8,-8,-25,18,-5,-5,-5,-3
1523148576479765,0,-11,-15,14,0,-1,0,-8
1523148576480760,-1,-2,-6,6,-3,-3,-1,5
1523148576480760,-1,1,6,36,6,-1,-2,-2
1523148576502562,4,9,15,13,4,4,3,1
1523148576502562,-14,0,-6,-46,-8,-1,0,-4
1523148576503821,35,-6,-6,-6,-3,-2,-5,-7
1523148576503821,-5,2,1,-7,-1,-1,-1,-2
1523148576516353,-19,3,3,-12,-1,-1,-2,2
1523148576516353,-5,6,4,14,4,-1,-2,1
1523148576523424,0,5,7,2,2,2,1,-2
1523148576523424,-2,-1,-16,-18,-5,0,-2,-1
1523148576539415,0,-5,3,19,2,-1,1,0
1523148576539415,0,2,8,8,2,-1,-2,3
1523148576540923,-13,3,4,3,-1,-2,0,0
1523148576540923,-17,-8,-4,-7,-3,-3,-2,-3
1523148576562021,10,-4,-19,-49,-10,-3,-4,-2
1523148576562021,5,3,7,9,0,1,1,-1
1523148576563479,-6,-2,2,1,-1,2,3,1
1523148576563479,0,-4,-17,-5,-3,-3,-3,-3
1523148576576011,-35,1,3,31,6,0,-1,-4
1523148576576011,6,-14,8,18,0,-1,-4,-1
1523148576583031,15,9,-23,-78,-16,-6,-5,-5
1523148576583031,-10,4,16,28,6,1,0,2
1523148576599574,15,-2,13,14,2,1,2,3
1523148576599574,3,-1,-12,-10,-3,-2,-2,-3
1523148576601079,-18,-2,4,28,5,2,0,2
1523148576601079,13,-6,-1,4,-3,-1,-1,0
1523148576621687,-7,5,2,4,0,0,-1,-3
1523148576621687,3,-2,0,-53,-7,-3,-1,-2
1523148576623691,-5,-7,-10,9,1,-3,0,1
1523148576623691,-1,-12,-10,10,-1,-2,-2,-4
1523148576636485,10,-2,14,19,4,0,3,4
1523148576636485,-6,-3,-1,2,1,1,-1,0
1523148576643244,-5,1,2,-1,-1,-1,-2,-1
1523148576643244,4,1,0,3,1,-1,-1,-2
1523148576659287,25,1,16,7,1,1,2,2
1523148576659287,-8,1,-7,-4,0,-1,0,1
1523148576660790,-1,-3,8,44,2,1,1,2
1523148576660790,11,-5,-19,-26,-5,-1,-4,-4
1523148576682118,-11,-5,4,-6,-2,-2,-2,0
1523148576682118,4,-2,-10,-8,-2,0,-2,-3
1523148576683674,-1,3,18,35,8,4,0,1
1523148576683674,-12,5,7,26,1,-1,-2,-2
1523148576695653,41,-13,-14,-51,-8,-3,-1,0
1523148576695653,49,17,-4,-2,1,-2,-2,1
1523148576705180,-11,6,-16,-2,-7,-6,-4,-6
1523148576705180,-10,-6,15,-12,-4,0,1,-2
1523148576719268,-3,8,13,14,4,1,-2,-1
1523148576719268,-35,-16,-11,23,-1,1,2,1
1523148576719268,35,0,-2,-34,-5,-3,-3,5
1523148576719268,-10,37,-14,-9,-8,-2,-1,-3
1523148576741275,15,-14,-4,12,0,0,-1,0
1523148576741275,16,-23,-2,0,20,4,0,1
1523148576741778,-69,1,-9,8,8,0,-2,0
1523148576741778,-21,-3,13,0,4,0,0,1
1523148576764338,-1,11,-24,13,-3,-5,-5,-11
1523148576764338,60,33,14,2,1,-1,5,23
1523148576765338,-22,-33,-18,-21,-10,-4,-6,-14
1523148576765338,37,17,-4,-2,3,-2,-4,2
1523148576779416,-65,-50,-4,-2,3,0,-2,-1
1523148576779416,3,-8,-5,0,-10,-6,-5,-13
1523148576779878,24,14,4,-5,-1,-3,3,4
1523148576779878,5,0,4,-3,0,-1,-1,8
1523148576801219,32,19,27,4,-9,-1,0,0
1523148576801219,-31,1,-15,-10,-10,-3,-2,-9
1523148576801938,-6,-19,-16,-3,-4,-3,-1,-3
1523148576801938,10,-5,8,-25,0,0,2,1
1523148576824495,13,11,-13,-3,2,-1,-3,3
1523148576824495,-29,-10,-15,-59,-12,-1,1,-2
1523148576825000,2,19,33,45,17,8,4,2
1523148576825000,-10,-23,-35,-64,-16,-6,-4,-7
1523148576838536,-2,1,-5,31,5,1,-1,-2
1523148576838536,14,7,11,-12,-2,0,-1,1
1523148576839538,-28,-1,0,23,-4,-5,-4,-12
1523148576839538,33,3,9,26,6,4,4,8
1523148576861379,-19,1,-2,-28,-7,-1,-1,-3
1523148576861379,-5,6,30,88,12,3,0,-2
1523148576862101,24,-7,-23,-50,-13,-5,-2,3
1523148576862101,-15,-10,1,27,-1,-3,1,-10
1523148576883655,-21,6,-5,7,3,2,3,2
1523148576883655,-8,-6,-1,4,0,-1,-7,-3
1523148576884659,0,-2,3,-20,-6,-4,-1,-6
1523148576884659,13,4,6,9,3,2,2,4
1523148576898695,9,1,-4,7,1,1,1,1
1523148576898695,-21,-1,-1,-29,-1,0,2,5
1523148576899197,-4,-3,1,-22,-6,-1,-3,-23
1523148576899197,-8,-9,-1,18,1,-5,-4,-3
1523148576921367,31,13,14,16,0,-3,-2,5
1523148576921367,-18,-22,-15,-32,-8,-1,0,-5
1523148576921755,16,2,11,32,5,2,1,11
1523148576921755,-12,1,1,29,2,-1,-3,-4
1523148576945586,-4,-7,-18,-49,-4,1,4,-8
1523148576945586,-2,8,16,23,3,0,-5,6
1523148576945819,-1,-9,-20,-46,-11,-7,-3,1
1523148576945819,-9,-8,-4,2,0,5,-1,-3
1523148576958870,-5,-2,-2,1,-1,-2,-5,-9
1523148576958870,-5,1,23,46,7,-1,3,4
1523148576959357,3,-1,-4,-14,0,1,-1,-1
1523148576959357,-3,4,-2,-8,-4,-4,-1,-2
1523148576980943,-12,-14,3,57,9,3,0,-1
1523148576980943,-7,5,-14,-41,-7,-2,-1,-4
1523148576981944,6,-2,13,92,19,4,0,0
1523148576981944,-4,-7,-12,-47,-18,-7,-2,-1
1523148577004270,4,5,-7,10,-1,-3,-1,3
1523148577004270,-14,3,12,26,-1,-6,-3,-11
1523148577004503,4,9,37,74,18,9,7,13
1523148577004503,-8,-12,-23,47,1,-2,-4,-10
1523148577018727,-3,5,11,21,3,0,0,5
1523148577018727,-7,-10,-18,-3,-6,-1,-3,-3
1523148577019544,-5,2,5,-11,-3,-1,-1,1
1523148577019544,10,8,13,2,5,1,1,-4
1523148577041117,-7,0,-11,-39,-7,-5,-1,0
1523148577041117,7,0,1,11,5,1,-1,-5
1523148577042102,-4,-4,-5,-66,-7,-1,1,1
1523148577042102,-3,-1,-10,-14,-4,-3,-1,1
1523148577063663,-9,2,-2,-2,0,0,-2,-7
1523148577063663,11,-7,5,-6,-3,-3,-1,13
1523148577064663,4,0,-22,-12,-6,-3,-3,-1
1523148577064663,-7,-5,12,-19,4,3,-1,2
1523148577078702,2,2,9,5,3,0,-2,-6
1523148577078702,3,3,2,10,0,-1,3,6
1523148577079201,1,-4,-9,-19,-9,-6,-5,6
1523148577079201,-6,-2,-1,16,2,1,2,-2
1523148577101263,-4,0,1,5,-4,0,-1,0
1523148577101263,5,3,-1,-9,-1,-2,0,-6
1523148577101763,-2,0,2,-2,-5,-2,0,-4
1523148577101763,0,1,-2,-14,-3,-3,-2,1
1523148577124099,-3,1,1,-4,-1,-1,-3,1
1523148577124099,0,2,-13,-3,-2,1,0,-6
1523148577124322,7,-12,-6,-6,-1,-1,-1,1
1523148577124322,-4,-5,4,4,1,0,-1,-1
1523148577139030,-5,-3,-3,-11,-4,-3,-1,0
1523148577139030,1,5,9,9,3,-1,0,0
1523148577139364,-3,-3,14,25,4,0,-2,-2
1523148577139364,-3,5,-8,-28,-4,-1,-1,-1
1523148577160918,1,-2,3,-2,-4,-5,-4,-3
1523148577160918,1,0,-11,-4,-4,1,-1,-6
1523148577161921,12,5,6,5,1,2,1,1
1523148577161921,19,7,24,20,1,1,1,0
1523148577183529,-14,-24,-8,-8,5,0,-3,2
1523148577183529,-6,-2,-21,-10,-9,-5,-5,-9
1523148577184481,16,0,-7,-9,-11,-1,2,6
1523148577184481,-37,17,13,-10,-10,-4,-3,-11
1523148577198569,-1,6,1,0,2,1,0,3
1523148577198569,73,-6,17,5,7,0,-1,2
1523148577199521,-17,5,3,-8,-2,-1,-2,-6
1523148577199521,21,11,13,5,2,0,-1,-1
1523148577221100,5,3,-14,-10,-18,-8,-6,2
1523148577221100,-20,-7,4,-4,10,1,-2,0
1523148577222082,-9,19,18,10,8,1,3,6
1523148577222082,26,-15,-39,-12,-9,-10,-8,4
1523148577243675,-21,16,2,3,-3,-2,1,-9
1523148577243675,2,-24,-7,3,4,1,-6,-17
1523148577244658,38,4,0,-4,7,-1,-4,9
1523148577244658,-51,-10,-32,-1,-14,-2,2,-12
1523148577258729,9,-19,9,7,4,1,1,19
1523148577258729,1,21,11,5,-2,-2,4,2
1523148577259681,12,-11,-10,-2,3,-1,-1,0
1523148577259681,-4,12,15,-6,-10,0,0,-3
1523148577281239,-6,13,8,-6,7,3,2,4
1523148577281239,-19,-8,-9,1,-8,2,2,-5
1523148577281740,4,-2,-8,4,-1,-2,-4,-6
1523148577281740,16,-11,-9,-23,5,-4,-2,5
1523148577304299,-44,-5,-10,19,7,4,1,-9
1523148577304299,-20,11,14,-9,-5,3,2,2
1523148577304801,-13,-4,-2,23,-12,-3,2,-4
1523148577304801,-8,1,-3,-4,1,-1,-4,3
1523148577318870,-22,-8,-6,-47,-6,-3,-1,-16
1523148577318870,12,1,4,40,7,-4,-3,14
1523148577319340,-26,-6,-23,-54,-8,2,0,-14
1523148577319340,0,-4,15,8,10,4,1,2
1523148577340937,24,6,25,63,6,4,3,2
1523148577340937,-14,-8,-59,-72,-30,-11,-4,-4
1523148577341900,12,-5,-3,12,-6,-5,-2,27
1523148577341900,-49,-10,18,40,14,2,-5,-22
1523148577363459,3,-4,-8,1,0,1,-3,-16
1523148577363459,-8,0,2,5,2,-1,-2,7
1523148577364462,17,7,8,4,-1,0,-1,2
1523148577364462,23,-2,-14,-19,-4,0,2,13
1523148577378498,7,3,0,-2,2,-5,-3,7
1523148577378498,-2,2,10,12,-13,-3,0,-9
1523148577379501,-9,-9,-12,-23,-9,-2,-1,2
1523148577379501,2,4,4,-2,7,8,4,2
1523148577401727,12,-4,-7,-63,-10,-5,-4,3
1523148577401727,-8,-2,4,49,13,0,-1,-12
1523148577402062,-10,1,-3,3,5,-1,-8,-17
1523148577402062,-1,-14,-11,-13,-17,-5,3,-2
1523148577423617,9,2,-14,-20,-8,-2,0,1
1523148577423617,9,5,18,38,12,1,-2,5
1523148577424621,-18,-7,4,13,4,-1,0,-7
1523148577424621,53,5,11,32,8,3,1,8
1523148577438659,-1,-2,-13,7,-7,-2,-2,-4
1523148577438659,-4,5,3,-8,2,2,5,11
1523148577439802,-6,0,16,85,11,2,0,-1
1523148577439802,-24,-21,-35,-45,-17,-9,-6,-18
1523148577461615,11,3,15,40,3,-4,-3,2
1523148577461615,-4,0,-14,-23,-2,-1,0,-12
1523148577462221,-4,9,12,17,6,5,1,0
1523148577462221,1,1,1,-6,-1,-4,0,10
1523148577484169,-2,1,7,24,2,-3,0,-3
1523148577484169,-8,-8,-8,-31,-4,-2,-3,-3
1523148577484280,-8,2,-4,-30,-7,-3,0,-11
1523148577484280,4,-7,7,37,7,2,-1,7
1523148577498819,-5,-6,-20,-59,-10,-3,-3,-4
1523148577498819,14,1,7,30,3,2,3,7
1523148577499320,-11,-5,-17,-32,-5,-3,-1,-3
1523148577499320,-9,7,-1,-20,-4,-4,-5,-8
1523148577521377,7,-6,9,48,7,2,0,4
1523148577521377,3,-1,3,-3,1,-2,0,0
1523148577521880,1,-4,-5,-20,-4,-2,-3,-1
1523148577521880,0,5,7,13,8,4,2,3
1523148577544439,-1,9,0,1,-5,-1,2,1
1523148577544439,-8,-13,-1,-29,-2,0,-2,-2
1523148577544439,0,-1,1,-7,-3,-3,-2,-7
1523148577544439,5,6,14,33,9,1,1,4
1523148577559168,0,-3,-13,-69,-3,4,3,1
1523148577559168,-4,0,-8,-3,-2,-2,-2,-3
1523148577559480,3,-4,1,15,1,-2,2,-2
1523148577559480,1,5,7,2,-1,-2,-3,4
1523148577581037,2,-2,8,24,6,1,1,2
1523148577581037,-7,-11,-15,-2,-2,-1,-3,-5
1523148577582541,3,-3,-6,-15,-4,-1,-2,0
1523148577582541,-2,3,-12,-25,-2,-2,-3,-3
1523148577612118,4,6,21,28,-3,-4,0,0
1523148577612118,-3,3,-3,-17,-7,1,3,3
1523148577612621,1,1,-2,1,1,2,-1,-1
1523148577612621,-2,-2,-2,7,2,-1,-2,-1
1523148577618638,1,-12,-7,4,-4,-3,-2,2
1523148577618638,-5,2,8,2,2,-1,-4,-6
1523148577619638,-3,-2,1,8,-4,-2,-1,0
1523148577619638,2,6,12,-4,1,0,3,-1
1523148577641720,-4,-2,-11,-23,1,-4,-4,-4
1523148577641720,2,4,6,9,-2,-2,-2,-1
1523148577641720,-7,-12,-19,-7,-1,-1,-3,-2
1523148577641720,-3,-2,-3,8,-2,-3,-2,-4
1523148577663759,24,-4,15,32,12,5,2,3
1523148577663759,-25,-3,-22,-7,-11,-4,-1,-1
1523148577664941,-2,-3,5,-15,0,-4,-1,-2
1523148577664941,-1,6,26,10,6,2,1,1
1523148577678835,8,9,6,3,-10,-5,-6,-10
1523148577678835,7,17,44,5,12,2,0,3
1523148577679298,-15,-4,-14,-9,-8,-3,-1,-4
1523148577679298,-7,-18,-5,1,0,-2,-2,-14
1523148577701357,-24,6,-29,0,2,-2,0,14
1523148577701357,-17,-17,6,-10,-12,-1,-1,7
1523148577701860,-12,20,-4,1,4,-3,-1,-7
1523148577701860,50,2,-26,16,0,2,3,4
1523148577723916,-31,-26,11,-10,-18,-6,-1,-9
1523148577723916,13,-3,-42,3,-15,-7,-13,-20
1523148577724420,-10,2,10,0,4,2,3,-23
1523148577724420,-103,4,0,-4,7,4,10,-27
1523148577737954,28,17,-28,-9,-9,-7,-14,54
1523148577737954,29,-4,-13,3,2,-3,-6,8
1523148577745976,10,-15,3,-6,-10,-4,-4,-15
1523148577745976,39,-3,-11,-5,-7,0,-1,3
1523148577761706,-3,-9,26,9,1,2,4,-21
1523148577761706,-52,-12,-12,-10,1,0,1,-6
1523148577762019,36,-1,-8,19,5,-1,-3,6
1523148577762019,-16,-2,-8,-16,2,-2,-4,11
1523148577784101,8,4,11,7,10,4,3,-6
1523148577784101,8,9,12,14,5,1,1,8
1523148577784578,-3,-3,4,-20,-3,-3,2,5
1523148577784578,19,-3,3,8,3,-5,-6,5
1523148577798114,-4,4,-3,-11,-11,4,4,-2
1523148577798114,12,-2,8,14,4,-3,-2,-14
1523148577806753,-6,7,2,16,4,-2,-4,8
1523148577806753,1,-2,-4,8,-5,-2,-3,6
1523148577821678,-6,-6,-21,-66,-4,-3,-3,-12
1523148577821678,-1,6,32,65,14,4,5,4
1523148577822179,4,-5,-10,-10,-5,-1,-1,7
1523148577822179,-2,0,9,-32,-2,-1,-3,4
1523148577844063,19,-3,2,33,10,1,-1,-11
1523148577844063,29,2,-2,-6,-2,1,3,6
1523148577844238,-46,8,9,6,6,5,-1,-7
1523148577844238,31,-15,-9,-16,-16,-9,-7,-11
1523148577857838,-14,7,5,15,4,3,2,4
1523148577857838,-10,-6,-16,-44,-11,-4,1,3
1523148577866295,38,4,19,33,3,0,0,5
1523148577866295,-5,-6,-5,-9,-2,0,-1,0
1523148577889598,-10,-10,-3,24,1,-2,-2,-5
1523148577889598,33,14,7,-19,0,1,-1,13
1523148577890359,-27,1,-6,-21,-5,0,2,4
1523148577890359,-8,-17,-3,9,0,4,3,7
1523148577903647,-8,-1,-24,-55,-10,-9,-12,-11
1523148577903647,2,-8,5,10,5,4,4,-7
1523148577904397,4,-5,-2,-12,-2,1,1,0
1523148577904397,-3,4,-21,-19,-16,-3,0,3
1523148577917933,14,3,3,37,9,1,0,2
1523148577917933,-37,1,2,-9,-1,0,0,-10
1523148577926204,11,1,-9,-9,-3,-5,-5,-3
1523148577926204,-34,3,28,37,8,1,3,-1
1523148577942146,10,2,17,14,10,5,5,-6
1523148577942146,0,0,-23,-17,-6,-5,-3,13
1523148577942498,-2,2,17,1,-1,1,0,-5
1523148577942498,31,10,0,11,8,3,0,5
1523148577964055,-9,-5,-1,37,1,-1,-1,-5
1523148577964055,1,-3,0,-16,-2,-4,-5,-7
1523148577964559,4,-6,-6,13,0,0,1,6
1523148577964559,7,7,7,45,4,-1,-2,-2
1523148577978093,-18,-2,-2,31,1,1,0,-1
1523148577978093,-4,-18,-22,-13,-11,-6,-4,-5
1523148577986353,-1,2,0,23,-3,-3,0,4
1523148577986353,-3,0,6,3,1,-1,-2,-3
1523148578001155,4,3,11,17,5,-1,0,1
1523148578001155,0,8,9,1,2,1,0,-1
1523148578001656,1,-11,-10,-10,-4,0,0,3
1523148578001656,-2,10,13,44,6,2,0,0
1523148578023959,-3,-15,-24,-102,-19,-7,-3,-6
1523148578023959,5,4,0,12,3,0,-2,2
1523148578024215,-10,-9,-4,0,-4,-1,-3,0
1523148578024215,-6,-5,-3,-5,2,0,-2,-3
1523148578046856,-15,-3,12,-20,0,1,0,1
1523148578046856,1,7,-12,7,1,-4,-3,-6
1523148578047857,1,-6,-10,-9,0,1,1,0
1523148578047857,-8,-4,-21,-19,-6,-4,-5,-6
1523148578061560,2,0,7,76,8,1,0,9
1523148578061560,-2,6,2,-55,-8,-1,0,-1
1523148578061895,0,9,17,-1,2,-3,-3,-1
1523148578061895,1,-14,-7,12,0,0,1,-1
1523148578084044,9,9,-8,14,-3,-4,-1,-3
1523148578084044,2,-1,12,24,3,0,0,-1
1523148578084454,1,0,14,-18,-4,-2,-3,-3
1523148578084454,-6,-14,-12,-9,-3,-4,-4,-2
1523148578107213,-1,-6,-30,-37,-8,-3,-4,-3
1523148578107213,2,11,5,9,2,2,0,1
1523148578107516,2,-7,15,56,6,1,0,-2
1523148578107516,-2,-3,-15,-50,-13,-8,-3,-1
1523148578121255,-4,0,11,21,3,2,2,-4
1523148578121255,1,-5,1,5,0,1,-1,-4
1523148578122055,6,7,-5,39,5,0,0,2
1523148578122055,0,-2,-6,-30,-7,-1,0,1
1523148578143612,1,-1,-4,-25,2,-1,-2,-1
1523148578143612,-2,2,4,4,-3,-4,-1,-3
1523148578144614,-4,-4,-5,-22,-3,-2,-1,2
1523148578144614,1,6,15,1,0,-1,-1,-1
1523148578167540,1,7,1,-17,2,1,-2,-1
1523148578167540,-4,-3,9,1,0,-1,-2,-3
1523148578168180,-6,-17,-22,-35,-7,-2,-1,-1
1523148578168180,0,0,1,-31,-16,4,1,1
1523148578181213,-3,-5,-9,45,20,-8,-5,-5
1523148578181213,3,9,19,17,4,0,-2,0
1523148578181713,29,12,-20,-20,-12,1,1,3
1523148578181713,-20,9,4,-24,-16,2,-1,-2
1523148578204140,10,-6,16,49,24,-3,-4,-3
1523148578204140,18,-3,-17,-33,7,3,-2,1
1523148578204273,-5,15,6,-14,-9,-3,-3,-5
1523148578204273,-22,7,6,27,15,2,0,-9
1523148578227185,1,20,4,-43,-33,-4,2,13
1523148578227185,-16,-45,2,18,14,2,1,2
1523148578227839,-1,17,9,-13,-11,-1,-3,-2
1523148578227839,34,-11,-22,-4,7,-1,-3,13
1523148578241371,-65,-31,-5,15,14,7,7,1
1523148578241371,-28,21,-19,-14,-32,-13,-8,-12
1523148578241873,-17,-11,6,-7,3,-3,-1,-31
1523148578241873,-6,11,2,14,2,-4,0,37
1523148578263431,25,11,7,-8,-6,-1,-7,3
1523148578263431,4,0,-2,8,3,2,3,4
1523148578264435,-51,1,1,-11,-9,-5,-5,-3
1523148578264435,-6,-19,-38,8,4,-3,-1,-17
1523148578286993,12,-13,-26,-14,-7,3,2,-2
1523148578286993,-11,-1,18,-8,-2,2,0,1
1523148578287496,21,-13,7,45,14,2,2,3
1523148578287496,-19,6,15,-46,-1,-3,-2,-9
1523148578301032,-4,8,1,-8,-6,2,1,3
1523148578301032,4,-5,-13,-48,-5,-2,0,-7
1523148578302034,2,0,13,35,9,1,1,6
1523148578302034,12,0,8,20,1,1,-1,-3
1523148578323855,7,-1,-11,-41,-8,-2,-1,-8
1523148578323855,-2,-16,-4,11,-3,-1,-2,-1
1523148578324599,6,0,4,24,3,0,0,2
1523148578324599,-5,-4,-7,-7,-3,-2,-3,-7
1523148578346654,4,11,15,-25,-12,-4,-3,-2
1523148578346654,11,0,-3,13,4,1,1,5
1523148578347655,5,4,14,46,11,3,-1,6
1523148578347655,7,-14,-15,-38,-12,-6,-5,-12
1523148578361242,9,0,-8,7,1,1,2,-1
1523148578361242,4,4,7,27,0,-3,0,5
1523148578362193,5,-7,-19,-34,-4,-1,-1,1
1523148578362193,7,15,30,34,0,1,3,-3
1523148578383752,1,-5,10,7,-3,0,-2,-1
1523148578383752,20,-3,-34,-33,-10,-4,-5,-4
1523148578384259,3,3,-11,9,7,-1,-1,3
1523148578384259,3,1,11,8,8,0,-1,-1
1523148578406849,-5,-3,-6,-25,-8,-4,-4,-12
1523148578406849,-3,11,20,44,4,0,0,-4
1523148578407851,2,-6,-12,-12,-4,-1,-1,3
1523148578407851,-2,-12,-19,-35,-9,-2,-3,-4
1523148578421350,-3,4,3,38,7,-2,-3,-4
1523148578421350,-3,5,14,-1,5,2,-1,-1
1523148578421853,1,-4,-10,-20,-11,-7,-3,-2
1523148578421853,5,0,-2,-10,-2,4,3,3
1523148578444131,3,-9,3,-32,-11,-4,-1,3
1523148578444131,-14,-16,-7,-1,-3,-2,-1,-2
1523148578444412,2,5,2,-8,-1,-1,-4,-2
1523148578444412,3,4,18,25,7,1,1,1
1523148578466973,5,6,9,47,7,3,3,3
1523148578466973,-3,6,-23,-22,-11,-5,-4,-4
1523148578467975,-4,-21,-11,-39,-6,-5,-2,-1
1523148578467975,4,6,21,48,9,2,1,1
1523148578481548,-5,-2,1,29,3,1,1,0
1523148578481548,0,6,3,15,1,-1,1,1
1523148578482013,0,3,10,9,2,0,0,0
1523148578482013,-1,-1,-2,8,-5,-4,-4,-9
1523148578504251,0,-5,-10,-7,-3,-1,0,6
1523148578504251,1,-2,-1,1,2,3,2,1
1523148578504573,1,-1,1,-50,-2,1,-1,-1
1523148578504573,-4,0,6,3,0,0,0,1
1523148578527446,0,7,-3,-9,-2,0,-2,-5
1523148578527446,1,1,9,6,3,2,-2,-3
1523148578527636,0,-17,-17,4,-1,0,4,1
1523148578527636,-2,0,-2,-2,-2,-5,-5,-3
1523148578541169,-1,2,-6,-21,-2,-2,-3,-4
1523148578541169,2,5,14,29,10,4,2,4
1523148578548945,1,10,5,16,-5,-2,-1,0
1523148578548945,-4,-12,-24,-53,-11,-3,-4,-1
1523148578564119,-2,0,6,12,0,-2,-2,-3
1523148578564119,1,5,-1,1,0,-1,0,0
1523148578564234,-4,-7,-2,-7,-1,-2,-2,-4
1523148578564234,0,-2,-17,-27,-6,-1,0,0
1523148578588823,4,1,0,0,1,-1,0,-2
1523148578588823,-4,-4,-15,-18,-3,-3,-1,0
1523148578589298,-4,-2,8,18,1,0,-1,0
1523148578589298,2,8,1,-1,-1,-1,1,0
1523148578601700,-2,-3,4,3,1,-2,-1,0
1523148578601700,-3,-3,4,2,-1,-2,-3,-3
1523148578601833,-2,5,0,-6,-7,-1,-2,-2
1523148578601833,2,3,7,30,0,0,1,2
1523148578623893,-11,-4,12,-5,-4,3,2,0
1523148578623893,12,-21,-18,-12,1,-1,-3,-3
1523148578624393,2,1,-14,-3,6,0,0,-2
1523148578624393,-3,10,0,-2,-3,-4,-4,-3
1523148578646952,-2,3,14,-11,1,-5,-2,-2
1523148578646952,-3,-10,-20,19,-8,0,4,4
1523148578647954,3,-6,23,-5,7,4,0,0
1523148578647954,0,1,-14,-25,-7,-4,-2,-3
1523148578660747,4,32,19,-16,0,-2,-2,-3
1523148578660747,-9,-24,24,14,6,5,6,5
1523148578669197,-10,-36,-12,-2,-8,-1,-1,-4
1523148578669197,38,-6,20,43,21,10,9,11
1523148578683800,-51,17,-21,2,-13,-3,-3,-4
1523148578683800,-13,-3,-15,-17,-2,-5,-3,-4
1523148578684552,6,24,-40,-23,-16,-5,-3,-6
1523148578684552,-3,-45,-13,89,19,7,13,-16
1523148578707613,8,-33,-6,18,3,6,0,37
1523148578707613,4,31,14,2,-4,-5,-6,-8
1523148578707613,-2,-15,-14,12,6,2,1,5
1523148578707613,-14,4,-16,-7,3,3,-1,-8
1523148578721382,15,-18,-14,14,1,0,2,5
1523148578721382,-11,-11,-16,-9,-4,-2,-2,0
1523148578728672,-6,0,33,9,3,1,2,-6
1523148578728672,4,10,-7,-69,-14,-6,-7,14
1523148578744114,3,-14,-42,-68,-14,-5,-2,-13
1523148578744114,40,13,9,-38,-12,-7,-5,0
1523148578744215,-66,9,4,-11,0,-1,-1,-2
1523148578744215,-12,-8,7,25,-1,-4,-4,-12
1523148578767174,8,3,21,54,12,4,5,-11
1523148578767174,-7,-3,-16,-33,-9,-2,-8,12
1523148578767774,21,8,11,23,10,4,2,1
1523148578767774,0,-1,4,18,-6,-3,-2,-2
1523148578780307,3,5,11,5,1,0,1,-8
1523148578780307,-7,1,-15,1,1,1,3,-7
1523148578789330,11,0,7,15,0,-2,-2,-1
1523148578789330,-4,5,11,-12,-2,-2,-4,5
1523148578803869,7,-5,-16,-9,-2,-4,-4,-7
1523148578803869,-9,-1,16,29,4,-1,0,-5
1523148578804372,7,1,-22,-46,-10,-3,-2,5
1523148578804372,-2,7,8,8,-2,1,-1,-1
1523148578827321,5,1,6,26,8,-1,-1,1
1523148578827321,-12,-9,-16,-17,-4,-3,-3,-7
1523148578827431,5,8,1,11,4,0,-2,0
1523148578827431,-1,-4,-4,0,2,1,2,2
1523148578841003,5,-1,24,72,5,1,1,-4
1523148578841003,-6,-7,-42,-72,-27,-9,-5,0
1523148578848729,-2,1,1,13,-8,-4,0,-4
1523148578848729,-1,4,-7,0,3,2,0,0
1523148578863792,-4,-13,-23,-5,-10,-7,-4,-4
1523148578863792,8,1,28,36,12,5,3,1
1523148578864531,10,11,2,-39,-6,-2,-1,-1
1523148578864531,-5,7,9,8,-3,-3,-1,-3
1523148578886985,-3,-6,-1,-31,-2,-2,1,3
1523148578886985,2,2,-3,0,7,4,1,0
1523148578887594,-2,4,6,17,-1,0,0,-5
1523148578887594,0,-9,5,1,1,0,0,4
1523148578901008,3,3,-13,-43,-4,2,-5,-4
1523148578901008,-8,-6,9,37,9,2,1,-3
1523148578909029,4,-3,15,40,5,1,1,5
1523148578909029,5,7,-4,-36,3,3,3,3
1523148578924215,-11,-6,-23,-59,-12,-7,-4,-4
1523148578924215,-14,2,16,12,-4,-3,-3,-5
1523148578924215,28,-1,-10,13,-1,1,-1,1
1523148578924215,-11,-3,20,-9,-1,-1,-2,-4
1523148578946749,4,0,-1,16,2,0,0,1
1523148578946749,0,8,9,22,5,1,1,3
1523148578947752,0,-6,-9,-10,-3,-3,-3,-2
1523148578947752,5,-11,-8,23,1,0,1,3
1523148578961052,-3,-4,2,-10,0,1,-1,-2
1523148578961052,-1,-3,5,15,1,-2,-2,-8
1523148578968809,-9,-4,-5,-19,-4,4,1,-1
1523148578968809,1,3,-13,-21,-11,-8,-5,-1
1523148578983847,0,9,19,52,7,2,2,2
1523148578983847,0,-1,-13,-68,-7,-3,-1,-5
1523148578984350,-2,-5,-10,-14,-5,-7,-4,4
1523148578984350,-1,8,5,8,-1,-4,-2,-3
1523148579007310,-5,-7,-8,-8,-4,-1,-2,0
1523148579007310,-1,-3,-4,0,1,1,2,1
1523148579007913,-1,-1,1,-6,3,-1,-2,0
1523148579007913,1,2,-7,-29,-5,-2,-5,-4
1523148579029470,-5,10,7,16,-1,-2,-1,-7
1523148579029470,-3,1,11,14,0,1,0,2
1523148579030562,-7,-3,-10,-15,-5,-4,-1,-1
1523148579030562,-6,-7,-6,30,3,0,-1,-1
1523148579043911,13,0,2,-53,-6,-2,-1,-1
1523148579043911,1,11,14,27,1,-2,-1,1
1523148579044510,-2,0,2,7,3,-1,-2,0
1523148579044510,-8,-8,1,17,1,1,0,-1
1523148579066825,-3,-2,-9,19,1,0,0,0
1523148579066825,4,1,-9,-4,-11,-3,-2,-2
1523148579067572,0,-7,-10,5,5,0,-2,-2
1523148579067572,1,2,2,-17,-10,-4,-2,0
1523148579089702,-3,-6,9,6,6,4,2,-1
1523148579089702,4,7,1,11,2,-1,-2,0
1523148579090131,-7,-1,2,-1,3,-1,0,1
1523148579090131,-2,-12,-5,2,-4,0,-1,-2
1523148579103916,1,1,1,-14,-7,-5,-4,-4
1523148579103916,-2,-2,1,16,8,2,1,2
1523148579104769,0,-10,-6,-28,-12,0,1,1
1523148579104769,41,-7,-37,-17,3,0,-1,4
1523148579126729,-21,17,30,0,1,-1,0,1
1523148579126729,-28,-29,-26,-16,-1,0,-4,-5
1523148579127731,52,25,-3,5,-10,-3,2,5
1523148579127731,3,28,26,3,-6,-3,-3,-8
1523148579149677,30,25,10,6,-1,6,3,9
1523148579149677,15,-18,-11,1,14,-2,-2,3
1523148579150294,-50,-33,-40,-5,-10,-6,-6,-4
1523148579150294,-25,-2,22,3,3,1,2,-8
1523148579163826,74,30,-4,-4,-11,-5,-1,10
1523148579163826,-18,12,9,1,9,2,0,-19
1523148579164330,24,4,2,-7,-10,-3,1,-11
1523148579164330,-29,-25,-30,-11,-15,-8,-9,26
1523148579187415,-12,-12,16,17,13,2,-4,-7
1523148579187415,17,0,6,-1,-6,-1,3,7
1523148579187893,-9,1,25,-4,2,0,4,-6
1523148579187893,17,7,-8,4,3,-5,-10,-16
1523148579209448,-14,-3,-3,-8,-2,-2,1,-2
1523148579209448,0,3,0,8,-4,0,-2,-3
1523148579210453,1,7,2,-2,4,-1,0,0
1523148579210453,0,4,9,6,6,3,5,0
1523148579224263,-63,-24,-10,20,-2,-2,-3,-2
1523148579224263,11,3,-13,-50,-14,-7,-5,-4
1523148579224489,-2,-5,-22,-65,-10,-1,-3,0
1523148579224489,-11,-1,-3,29,6,2,4,-3
1523148579247229,-7,-16,-33,-55,-12,-6,-4,-9
1523148579247229,0,1,16,23,4,1,4,11
1523148579247549,51,13,1,71,8,1,-3,15
1523148579247549,-21,-15,-26,-89,-20,-5,-2,0
1523148579277127,-4,-1,0,23,3,-1,-4,-13
1523148579277127,18,9,13,-8,-4,-2,-2,-8
1523148579277630,-1,-2,9,58,12,1,2,6
1523148579277630,12,13,12,-1,-2,-1,1,3
1523148579283852,1,-5,4,30,6,0,-2,-4
1523148579283852,4,1,-6,7,-1,3,2,8
1523148579284790,-23,1,11,16,5,1,-5,-9
1523148579284790,0,-1,0,2,-1,-1,1,13
1523148579306892,-16,-7,-11,-20,-4,-2,0,-6
1523148579306892,-6,-4,-7,2,-2,-2,-4,-9
1523148579307711,-10,1,-7,-23,-1,3,4,-2
1523148579307711,3,11,6,4,4,2,0,-6
1523148579329268,18,-3,-4,-14,-5,-3,-1,8
1523148579329268,-3,-4,-6,12,1,-2,-1,-1
1523148579330271,-19,-9,-23,-85,-15,-6,-3,4
1523148579330271,4,-11,-2,14,11,4,2,-4
1523148579343807,2,-8,4,35,3,1,0,3
1523148579343807,-8,2,7,2,-1,-5,-5,-2
1523148579344308,-7,2,16,26,5,4,0,-1
1523148579344308,-1,-3,-6,6,1,-2,-1,-10
1523148579366866,5,-8,-18,-41,-6,-3,2,6
1523148579366866,-3,0,8,17,1,3,0,1
1523148579367870,-1,-1,4,-6,0,-3,-1,0
1523148579367870,-1,2,1,11,0,1,0,-5
1523148579389427,3,2,-1,-1,0,2,1,-6
1523148579389427,11,2,1,9,-5,-2,-4,11
1523148579389929,-12,-1,1,-6,6,4,3,6
1523148579389929,-3,-2,4,22,-1,-3,-1,-2
1523148579403516,-15,-4,-15,-5,-7,-7,-6,-13
1523148579403516,1,-3,1,-9,-3,-2,-1,-2
1523148579404518,1,6,8,20,8,0,0,-6
1523148579404518,7,5,15,11,-3,-1,0,6
1523148579427026,0,-7,-16,-39,-4,2,-1,3
1523148579427026,-4,-1,5,26,-1,-2,1,-2
1523148579427529,-4,-4,-13,-34,-6,-4,-4,-6
1523148579427529,-2,2,5,-13,-1,-3,-5,-4
1523148579449588,1,4,13,33,6,0,1,0
1523148579449588,1,3,0,-24,-2,2,1,-1
1523148579450090,4,-2,5,20,2,-3,-1,5
1523148579450090,-17,-14,-17,1,-5,-4,-6,-15
1523148579463773,-1,4,4,6,2,0,2,-1
1523148579463773,1,1,1,0,-1,-2,-2,2
1523148579464628,0,2,9,10,-1,1,-1,-5
1523148579464628,2,-1,8,34,5,1,1,1
1523148579486687,-4,-9,-19,-16,-6,-6,-5,0
1523148579486687,-4,5,3,-16,0,0,-1,-1
1523148579487688,-2,5,5,-9,-3,-3,-3,-4
1523148579487688,-1,-7,-7,11,1,-2,0,-1
1523148579509247,-3,-7,-20,-60,-4,-2,-3,0
1523148579509247,-1,-2,5,-5,-6,1,-1,-2
1523148579510249,-3,2,-15,7,-1,-2,-1,-4
1523148579510249,1,3,14,-18,-2,-1,0,2
1523148579524046,1,4,9,4,-2,-3,0,2
1523148579524046,-5,-5,-8,1,3,2,-2,-2
1523148579524288,-2,-4,-6,-22,-5,1,0,-3
1523148579524288,-3,-3,-16,-52,-4,-3,-2,0
1523148579546977,3,8,10,31,2,1,-1,2
1523148579546977,-2,-4,5,0,1,-2,-2,-1
1523148579547348,0,9,11,20,2,3,2,0
1523148579547348,-1,-12,1,-3,1,0,2,1
1523148579569406,0,-3,9,52,8,2,0,-1
1523148579569406,-5,-4,-25,-38,-6,-6,-6,-5
1523148579570690,2,-2,9,11,-2,-1,0,-1
1523148579570690,2,4,4,-2,1,2,2,1
1523148579583502,1,2,8,27,4,2,-1,0
1523148579583502,-4,-13,-21,18,2,1,1,1
1523148579591620,1,-2,4,-3,-6,-4,-4,-3
1523148579591620,0,6,6,5,-1,-1,-2,-1
1523148579607006,-2,-4,-14,-18,-3,-1,0,0
1523148579607006,0,4,-3,-5,-5,-1,0,-1
1523148579607509,-7,-10,-11,-13,-2,-4,-4,-4
1523148579607509,5,14,8,1,-2,0,0,-1
1523148579629821,2,6,3,0,0,-1,2,3
1523148579629821,-4,-7,-17,-1,3,-1,-2,-3
1523148579630067,-4,-2,-13,13,-6,-2,-1,-3
1523148579630067,-4,18,6,4,-1,-2,-3,2
1523148579643102,-1,-12,-9,-2,-4,-1,2,-5
1523148579643102,-35,-24,-32,-12,-11,-3,1,-3
1523148579652379,-10,3,-5,-6,-15,-5,-6,-6
1523148579652379,11,15,9,9,2,3,6,4
1523148579667062,5,22,16,-7,-1,-1,-4,4
1523148579667062,-40,17,-8,3,-1,1,6,4
1523148579668894,3,-26,14,6,14,5,3,-24
1523148579668894,-20,-17,-31,-18,-21,-11,-13,30
1523148579689478,23,25,25,-8,-6,-1,0,14
1523148579689478,12,11,49,23,30,10,4,-7
1523148579691427,0,-16,-47,-16,-27,-9,-6,2
1523148579691427,9,-6,-2,0,-2,-1,0,-21
1523148579703600,-13,-32,-1,9,9,5,2,-9
1523148579703600,45,23,17,-1,-3,-4,-2,15
1523148579711785,9,7,8,2,10,1,1,8
1523148579711785,-2,-12,3,4,1,2,-1,-12
1523148579727133,-1,4,-7,-3,-5,-3,-3,34
1523148579727133,30,-4,6,2,-4,-1,4,-11
1523148579728331,-25,3,10,21,3,0,-2,8
1523148579728331,-42,-10,-12,-2,-1,0,-2,-11
1523148579749385,78,5,-9,-31,-3,-5,-5,-11
1523148579749385,-18,-11,-10,3,-3,-2,-4,1
1523148579750889,19,4,25,39,10,3,7,16
1523148579750889,11,5,5,-19,-2,-2,-3,-3
1523148579763330,-73,-21,15,66,10,1,0,-20
1523148579763330,-8,-14,-13,-19,-16,-7,-5,3
1523148579771946,4,16,26,51,9,-1,-1,-16
1523148579771946,-1,-10,-11,8,-4,-1,1,-3
1523148579786985,22,5,2,54,7,4,2,-5
1523148579786985,6,1,-7,-35,-7,0,1,5
1523148579788490,-10,1,-2,1,7,-1,-2,9
1523148579788490,-4,-2,3,20,6,0,-1,-11
1523148579809945,-18,-8,-4,-21,-7,-4,0,7
1523148579809945,-5,2,10,20,4,0,0,-2
1523148579811050,14,2,-12,-40,-8,-3,1,-1
1523148579811050,4,-6,0,-10,0,0,-3,-1
1523148579832499,-5,3,10,17,3,-1,2,-4
1523148579832499,2,-4,-12,-20,-6,-2,-3,-5
1523148579833611,-11,-3,-9,-10,-3,-2,-1,-1
1523148579833611,9,-4,-1,-3,3,-2,-1,8
1523148579847321,-9,6,7,3,0,5,3,0
1523148579847321,-5,-6,-7,30,0,-3,-4,-3
1523148579848649,-7,-6,-3,-30,-5,-3,-4,-7
1523148579848649,0,5,0,17,7,3,-1,-3
1523148579870711,2,-8,-18,-23,-14,-6,-2,4
1523148579870711,-4,-1,5,10,2,3,1,0
1523148579872212,-2,-8,-6,-28,-9,-1,0,-2
1523148579872212,2,7,15,32,6,0,2,-4
1523148579892315,-6,-8,-16,-52,-9,-6,-5,-6
1523148579892315,-1,-5,-16,-10,-4,-1,-1,2
1523148579893268,-1,0,7,21,6,-2,-1,7
1523148579893268,8,5,0,7,-2,-1,1,2
1523148579907331,-27,-10,-58,-94,-25,-9,-6,-18
1523148579907331,-9,1,11,0,-3,-6,0,11
1523148579909021,6,12,9,15,3,1,-2,-6
1523148579909021,4,-18,-7,-30,-3,-4,-1,3
1523148579929737,4,2,6,-18,3,4,5,3
1523148579929737,18,1,13,19,6,2,-1,-9
1523148579930869,-4,-1,1,10,1,2,-2,0
1523148579930869,2,6,4,30,-1,-1,0,7
1523148579951925,-11,-5,-18,-13,-8,-5,-6,-13
1523148579951925,3,2,3,1,2,2,2,-2
1523148579953429,1,-3,-4,-15,3,1,5,-1
1523148579953429,4,4,1,11,-2,-2,-3,0
1523148579966963,-1,-7,7,-2,3,-1,0,-2
1523148579966963,-7,0,3,-9,-6,-3,-2,-1
1523148579968468,19,-1,-2,-13,-2,1,-2,2
1523148579968468,0,2,0,-10,-5,-2,-1,7
1523148579989912,2,2,8,18,3,-2,-4,-4
1523148579989912,2,-14,-7,0,6,2,1,4
1523148579991029,-9,3,3,4,-4,-3,-4,-10
1523148579991029,-1,-6,-8,-37,-1,1,2,7
1523148580011585,4,4,9,14,3,1,-1,5
1523148580011585,-4,2,6,19,3,0,-3,-9
1523148580013589,-1,-2,-7,2,0,-1,1,1
1523148580013589,-1,2,0,-6,-1,-1,1,-5
1523148580026625,-2,-2,-16,18,5,3,1,-3
1523148580026625,0,-1,-4,10,-5,-3,0,2
1523148580028628,-23,4,19,47,4,0,-1,-4
1523148580028628,1,-10,-23,-14,-10,-4,-3,-8
1523148580049684,0,1,5,26,3,-2,-5,-2
1523148580049684,1,8,8,-7,-1,1,0,-2
1523148580051189,0,0,4,-3,3,1,-1,4
1523148580051189,-7,1,10,20,2,2,-2,-4
1523148580079502,0,-3,-4,-1,-1,-1,1,1
1523148580079502,1,1,-1,0,-3,-4,-5,-3
1523148580081321,2,-4,-9,-20,-9,-5,-2,-2
1523148580081321,-1,0,8,13,6,4,2,1
1523148580086627,0,0,-8,-46,-11,-6,-3,0
1523148580086627,-4,0,-6,-8,-5,-3,-4,-10
1523148580093300,2,-1,-3,-4,-1,0,-1,3
1523148580093300,1,5,8,-10,-3,-2,-1,-1
1523148580109844,-5,-3,4,22,3,2,1,1
1523148580109844,-3,-6,-7,9,-1,0,0,-1
1523148580110847,2,0,-8,-23,-2,1,1,-1
1523148580110847,0,1,6,3,2,0,0,-3
1523148580132406,-1,-14,-4,11,-2,-2,1,0
1523148580132406,21,2,16,-8,-1,-4,-1,-1
1523148580133407,-2,-3,-27,-8,-3,-1,-3,-3
1523148580133407,-6,-15,-8,-3,0,-1,-2,-1
1523148580145941,-7,-13,20,21,3,1,1,0
1523148580145941,9,16,-8,-4,-14,-1,1,4
1523148580152961,-6,-21,-5,-2,-2,-3,-1,-12
1523148580152961,1,0,-16,3,-1,0,2,7
1523148580169786,9,4,19,10,8,2,-1,-2
1523148580169786,-10,9,-1,-5,1,-3,-3,-1
1523148580171008,-5,-7,4,0,-1,0,-1,1
1523148580171008,-6,-1,3,-9,-5,-5,-5,-7
1523148580192389,-13,22,9,-4,-5,1,0,8
1523148580192389,-62,-44,-14,22,8,5,4,-8
1523148580193569,50,33,-4,-9,-5,-3,-6,-2
1523148580193569,-4,-15,25,17,32,5,-1,-6
1523148580206729,35,34,7,-12,-15,-3,2,15
1523148580206729,-13,8,9,-3,2,-2,-4,-10
1523148580213264,-61,-47,-59,-10,-18,-8,-7,-19
1523148580213264,-27,27,21,8,2,0,-2,-5
1523148580229833,21,-2,0,-5,10,0,-1,-2
1523148580229833,19,35,-19,-7,6,2,-3,18
1523148580231166,-23,-4,6,-5,-15,-3,5,2
1523148580231166,3,18,-4,-2,-10,-3,-3,-5
1523148580252318,-19,-3,10,12,5,1,-2,1
1523148580252318,-2,-14,-1,-7,-3,-1,5,-2
1523148580254019,10,12,13,-1,7,1,1,24
1523148580254019,10,-4,-6,-5,-5,-2,-2,1
1523148580266653,-9,-4,-12,17,-6,-6,-5,-9
1523148580266653,-3,-15,-3,-29,-2,1,-3,-4
1523148580273170,7,7,20,-8,8,3,1,-2
1523148580273170,5,-13,-6,16,-2,-1,6,3
1523148580289699,26,4,-5,-5,2,0,2,9
1523148580289699,-14,-8,-5,1,-5,-5,-8,-19
1523148580290826,3,0,12,29,9,0,-1,8
1523148580290826,6,3,-16,-26,-12,-3,-1,4
1523148580311881,-2,-9,-34,-89,-15,-5,-2,-7
1523148580311881,13,3,13,11,2,1,0,3
1523148580314031,14,1,3,-15,3,3,2,11
1523148580314031,-6,-4,-1,12,-2,0,-2,-4
1523148580326421,-29,-19,-15,67,8,2,-1,-14
1523148580326421,13,-7,-10,-46,-8,-5,-2,1
1523148580333556,0,-5,-3,-29,-3,-3,-4,-1
1523148580333556,16,5,3,8,1,2,2,4
1523148580349874,-2,1,12,0,0,2,1,-1
1523148580349874,-5,4,4,19,2,1,-3,-3
1523148580350987,8,4,4,21,-1,-1,-1,-1
1523148580350987,-15,-5,-7,-19,-2,-3,-5,-7
1523148580372408,1,1,9,4,1,0,1,-1
1523148580372408,3,0,2,13,3,1,1,6
1523148580373547,-5,4,-1,4,-4,-4,-1,-9
1523148580373547,-8,-13,-18,-54,-9,-1,-3,0
1523148580386620,-3,6,10,14,4,2,-2,-1
1523148580386620,13,-2,-10,-36,-6,-2,0,5
1523148580393100,-8,-2,-5,-42,1,1,0,-5
1523148580393100,4,-3,-1,32,-4,-4,-4,0
1523148580409140,-1,1,-3,-16,-2,-3,-5,-6
1523148580409140,7,2,10,11,-1,2,2,2
1523148580411146,-1,-5,-17,-24,-8,-3,-2,-4
1523148580411146,-5,0,8,38,0,-4,0,-3
1523148580432053,-4,-8,-22,-68,-14,-5,0,2
1523148580432053,0,3,7,14,3,-3,-5,1
1523148580433205,-1,-3,9,32,1,0,-1,-4
1523148580433205,3,2,6,15,1,0,0,1
1523148580445237,1,-8,-8,-22,-8,-5,-5,-6
1523148580445237,4,2,-2,16,-1,-1,1,3
1523148580454260,7,8,21,30,12,7,5,1
1523148580454260,-13,-10,-19,-12,-7,-5,-3,-4
1523148580469301,3,1,12,57,7,1,2,4
1523148580469301,1,3,12,23,3,2,0,1
1523148580470805,-1,-6,-2,-12,0,-2,-2,-5
1523148580470805,7,4,7,-1,-1,0,1,-1
1523148580491862,-8,-5,-1,-13,-2,0,-1,-6
1523148580491862,3,2,-7,-25,-7,-2,2,4
1523148580493365,0,5,11,67,11,2,-1,3
1523148580493365,-4,-9,-32,-112,-21,-8,-5,-3
1523148580505396,-3,0,-15,20,0,-1,-1,2
1523148580505396,-7,-1,13,8,3,-1,0,-4
1523148580514421,-1,2,-11,-3,-6,-2,-2,0
1523148580514421,1,-4,-9,1,-1,1,1,-4
1523148580529461,-2,0,26,-11,6,1,0,1
1523148580529461,2,-3,-12,-9,-6,-1,1,-2
1523148580530966,-1,6,6,0,-3,0,1,-1
1523148580530966,3,-6,-8,-18,5,1,0,2
1523148580552038,1,5,5,14,0,0,-2,-1
1523148580552038,-6,-4,0,15,3,1,3,1
1523148580553526,0,0,-4,-29,0,-2,-4,-4
1523148580553526,0,13,14,27,1,-1,-4,-1
1523148580565558,-2,-15,-7,32,1,1,-1,0
1523148580565558,-1,4,-6,-28,-7,-5,-3,-4
1523148580574582,-1,-9,0,-12,-3,0,1,2
1523148580574582,-5,-4,-15,-16,0,1,2,-2
1523148580589787,0,13,-8,11,-2,-1,-3,-5
1523148580589787,3,1,24,71,8,1,-2,2
1523148580591390,-5,-1,-23,-72,-17,-10,-5,-8
1523148580591390,1,-2,8,8,2,-5,-4,0
1523148580611681,-2,11,0,-8,-6,4,3,-1
1523148580611681,-5,-15,-19,-11,-8,-3,-1,-3
1523148580613684,-1,9,5,1,-4,-2,-3,-2
1523148580613684,1,3,9,1,4,-2,-1,-7
1523148580625716,1,2,8,9,2,-3,-1,1
1523148580625716,0,5,5,-8,0,-2,-2,-3
1523148580634857,-3,-11,-3,-8,-2,-2,-2,0
1523148580634857,-3,-3,4,20,5,3,3,1
1523148580649521,2,0,1,19,-1,0,1,1
1523148580649521,0,-9,-4,11,8,2,1,1
1523148580651442,-9,-13,-8,8,-2,-1,-1,0
1523148580651442,-1,4,-17,5,-4,0,-1,-1
1523148580672025,-4,-6,4,-12,0,1,3,0
1523148580672025,-4,-3,-34,-19,-17,-5,-3,-1
1523148580673915,-2,8,-1,4,4,-3,0,0
1523148580673915,13,-4,19,5,1,0,-1,2
1523148580685617,-31,-1,3,-4,-11,-4,-2,-1
1523148580685617,14,34,23,-4,7,2,2,-1
1523148580694400,-30,-44,-1,11,-2,1,1,-2
1523148580694400,-22,6,-22,7,-2,-3,-4,0
1523148580709230,56,8,10,-14,-1,-2,-2,5
1523148580709230,-37,-27,15,0,-7,-3,-2,-10
1523148580710732,16,36,8,0,-2,1,3,14
1523148580710732,-41,-59,9,8,12,3,4,-4
1523148580732148,26,33,-4,-4,3,-4,-6,-8
1523148580732148,-55,-26,-26,-17,-5,-2,2,-13
1523148580733293,-3,7,-20,2,-6,-3,-5,-4
1523148580733293,24,5,-10,2,-5,-2,0,13
1523148580745387,-112,18,10,5,3,0,-5,-10
1523148580745387,16,10,-2,0,5,3,1,-19
1523148580754414,41,12,7,8,3,0,1,32
1523148580754414,24,15,-11,0,-12,-4,-3,-3
1523148580769451,44,-26,-19,-3,-4,-1,4,4
1523148580769451,12,27,18,-1,4,0,-5,0
1523148580770956,-52,-20,2,7,6,4,3,-9
1523148580770956,47,17,12,2,-2,-3,-5,-7
1523148580792010,16,-12,5,9,-1,-1,0,1
1523148580792010,-13,-19,-13,-16,-8,-2,1,9
1523148580793516,-60,-10,-4,3,0,-2,-1,-10
1523148580793516,-46,16,18,27,5,1,1,6
1523148580805935,-14,-15,-12,-45,-5,-4,-2,-8
1523148580805935,24,2,2,-5,4,0,2,9
1523148580814573,34,6,13,42,2,0,-3,-8
1523148580814573,-22,-3,-6,-24,-4,2,3,-5
1523148580829987,-5,-13,-1,13,-1,0,-1,2
1523148580829987,13,3,21,29,9,5,0,8
1523148580831116,27,12,18,6,9,3,3,0
1523148580831116,-15,-14,-20,14,-4,-4,-7,-5
1523148580852372,13,1,11,56,5,0,2,4
1523148580852372,13,1,-7,1,-4,-4,-3,2
1523148580853977,-11,1,11,26,8,-1,-3,-12
1523148580853977,22,1,5,-5,5,0,1,0
1523148580866079,4,-4,4,-20,-7,3,1,0
1523148580866079,-11,0,3,17,3,-2,-3,-1
1523148580874733,10,-8,-14,-31,-9,-4,-3,1
1523148580874733,7,3,3,-8,-2,1,2,0
1523148580889822,0,-4,-6,7,3,-3,-3,0
1523148580889822,-10,3,5,28,2,-1,-2,-8
1523148580891275,11,-18,-38,-82,-22,-6,-3,-2
1523148580891275,4,1,0,10,1,0,-1,3
1523148580911830,-25,3,7,9,5,0,0,-5
1523148580911830,-2,-6,-21,-40,-15,-4,-2,1
1523148580913335,11,9,10,12,-1,-3,-4,-5
1523148580913335,-4,-2,8,35,4,1,1,-1
1523148580941910,1,-13,-24,-45,-6,1,1,1
1523148580941910,-1,-1,17,8,6,-1,-2,4
1523148580943415,1,2,-3,18,3,1,-1,-3
1523148580943415,22,-1,1,-11,-12,-4,-1,3
1523148580949432,0,-7,-16,-37,-7,-2,-3,-3
1523148580949432,7,-6,-6,-15,-1,-2,-2,3
1523148580950935,-17,4,11,30,2,-1,0,-4
1523148580950935,-3,-4,-9,-40,-6,-2,-1,-3
1523148580972361,3,1,-1,21,4,-1,0,3
1523148580972361,-37,-9,-7,2,-2,-3,-2,-6
1523148580974026,24,-8,-19,-12,-2,0,-1,-1
1523148580974026,-24,-2,-1,-9,-3,-2,-1,-3
1523148580994553,9,15,19,18,2,-1,-3,-3
1523148580994553,-3,-10,-17,6,-3,-5,-6,-2
1523148580996055,7,0,14,23,2,-4,-4,-6
1523148580996055,-6,-3,3,41,6,5,4,10
1523148581009088,2,-8,-7,9,4,0,5,-2
1523148581009088,11,6,4,-8,-7,-2,-7,-1
1523148581011094,0,12,3,-3,-4,-12,0,0
1523148581011094,6,-5,-2,5,6,0,5,-2
1523148581032524,-6,1,11,19,9,40,16,7
1523148581032524,12,9,-1,3,-1,-4,2,2
1523148581033654,-13,-6,-4,-22,-6,-2,-6,-5
1523148581033654,6,14,14,16,3,-9,-5,-3
1523148581054855,7,-17,-15,-2,-3,-12,-5,2
1523148581054855,-6,-13,-18,-6,-4,-12,-7,-6
1523148581056265,6,6,1,-34,-7,1,-5,2
1523148581056265,40,-2,2,10,5,-6,4,4
1523148581069249,60,13,8,24,2,11,-2,-3
1523148581069249,10,-4,4,-14,-1,1,2,0
1523148581075982,-6,-5,-9,18,0,-5,-1,0
1523148581075982,2,7,4,18,-1,-1,-4,0
1523148581092092,-4,4,-8,-20,-7,-12,-6,-2
1523148581092092,-5,4,-10,-19,-4,-1,-2,-3
1523148581093314,6,-12,-1,13,2,4,3,2
1523148581093314,-9,-1,-1,-12,-4,3,-6,-3
1523148581114730,-13,-11,0,-22,-6,-12,0,-1
1523148581114730,3,5,2,20,9,2,1,0
1523148581115874,-8,-20,-13,12,6,11,7,5
1523148581115874,-9,0,1,-14,-5,-3,-5,-5
1523148581128908,-19,0,1,2,-1,-14,-12,-6
1523148581128908,8,-7,-2,-12,-1,4,4,2
1523148581135796,-4,7,-2,-2,2,3,3,-1
1523148581135796,-3,-3,-2,4,-1,4,4,1
1523148581151969,-8,-3,1,0,2,-4,0,0
1523148581151969,2,-5,11,4,2,7,0,0
1523148581153474,14,2,9,52,5,-8,-7,-1
1523148581153474,-26,-4,-21,-71,-19,-4,-8,-9
1523148581174529,-12,0,-7,1,-3,-13,-4,-1
1523148581174529,3,2,3,10,-1,-5,-2,2
1523148581176033,-4,2,5,-8,-3,11,5,3
1523148581176033,27,6,4,14,12,12,4,1
1523148581189161,9,-8,4,3,-9,5,1,1
1523148581189161,-4,-4,-12,-5,-3,-3,-1,-1
1523148581195839,-16,-7,-4,-11,1,-4,-5,-2
1523148581195839,4,4,5,-17,-10,-6,-3,-3
1523148581211125,-12,5,10,2,2,-1,-2,-4
1523148581211125,21,-4,7,11,4,7,3,3
1523148581219649,48,16,-23,-12,-8,-9,-3,-6
1523148581219649,-8,-7,44,21,20,4,-1,3
1523148581234864,-1,-1,-21,-5,-6,-2,-2,-3
1523148581234864,-16,-19,-13,-1,-2,-4,2,4
1523148581236512,-4,24,-16,-16,2,-3,-4,-11
1523148581236512,-4,-36,-18,-1,-32,-6,4,9
1523148581248727,-17,5,8,6,3,-1,-5,-6
1523148581248727,20,-2,16,10,5,3,12,-17
1523148581255643,-3,-17,20,6,6,4,-5,-12
1523148581255643,-11,30,-15,-2,8,-3,-6,3
1523148581272351,-49,-14,1,-3,-3,-5,-8,-15
1523148581272351,-14,-19,-9,-15,-5,-2,2,-3
1523148581273978,-13,19,8,-9,-4,-1,-4,1
1523148581273978,-4,-5,6,9,6,-1,-2,-9
1523148581293347,25,-7,-11,0,-1,1,2,5
1523148581293347,-10,17,24,0,9,3,6,-2
1523148581301869,-4,-14,-11,-5,-4,-3,-2,-29
1523148581301869,-2,12,-19,-22,-10,-6,-5,48
1523148581308887,-2,7,23,3,1,-4,1,9
1523148581308887,-1,8,10,3,-4,1,9,-38
1523148581315797,-9,-16,-9,-5,-3,1,4,71
1523148581315797,1,8,-1,6,-1,1,-23,-43
1523148581331949,-5,-2,-11,-8,4,6,9,-6
1523148581331949,-5,-3,-30,-24,-10,-7,-16,-12
1523148581333453,6,7,25,29,-1,-3,9,15
1523148581333453,-8,-10,-1,23,5,-3,9,-20
1523148581354906,4,1,-19,-61,-18,-7,-14,15
1523148581354906,0,1,-11,-3,-6,-3,-4,0
1523148581356013,-5,3,19,85,9,2,0,-12
1523148581356013,-7,-13,-36,-50,-22,-14,-7,0
1523148581368423,3,2,26,68,16,7,9,-8
1523148581368423,0,3,-10,-9,-6,2,-4,20
1523148581377069,-7,-5,0,-11,0,-6,-4,-51
1523148581377069,7,2,20,30,9,3,7,29
1523148581391607,5,-1,-5,-4,-5,-11,-13,3
1523148581391607,-9,-3,-1,1,6,4,2,-4
1523148581393612,1,-3,-6,-21,-1,6,2,-6
1523148581393612,5,7,11,6,3,0,4,8
1523148581414413,3,-3,9,7,2,1,2,-3
1523148581414413,-1,2,-12,8,-2,-9,-11,6
1523148581416360,-3,-4,7,23,1,-1,-3,5
1523148581416360,-3,-1,-10,-28,-10,-4,3,-9
1523148581427703,2,4,4,23,4,0,3,3
1523148581427703,3,3,7,23,8,3,-2,12
1523148581437610,-3,3,-5,-5,-10,-6,1,5
1523148581437610,-10,-15,-24,-11,1,-1,-3,-15
1523148581451767,2,-1,1,15,3,4,1,3
1523148581451767,0,0,-6,-30,-7,-6,-4,-2
1523148581453271,-6,-5,-22,-70,-11,-3,-4,-1
1523148581453271,7,10,26,40,14,8,1,-8
1523148581474829,-6,-5,-14,-6,-1,-3,3,0
1523148581474829,-4,-17,-4,-10,0,1,-2,-7
1523148581475831,2,-2,-4,0,1,-2,0,16
1523148581475831,2,-4,1,-1,0,1,7,-3
1523148581497407,5,2,1,17,-1,1,4,4
1523148581497407,2,9,16,-2,1,0,-6,-28
1523148581498391,-8,-5,-13,-20,-13,-5,-3,17
1523148581498391,2,5,0,3,-4,-1,-3,8
1523148581512039,1,3,6,-21,0,-1,2,-4
1523148581512039,-4,-12,-33,-30,-10,-6,-2,-1
1523148581513433,-6,2,-12,-15,-1,-1,1,-7
1523148581513433,2,4,4,-22,0,0,-1,2
1523148581534487,0,8,2,-29,-5,0,-4,0
1523148581534487,-1,-13,8,15,0,1,-1,16
1523148581535990,-5,3,10,-1,6,-2,-1,-14
1523148581535990,-8,-1,-1,6,-1,1,1,-2
1523148581548022,5,0,1,9,6,1,0,-3
1523148581548022,-7,2,-5,20,0,-2,1,3
1523148581557049,13,1,-1,9,3,-4,-3,-6
1523148581557049,-5,-4,7,16,0,9,3,0
1523148581572086,-6,-4,-6,-14,-5,-4,-3,-2
1523148581572086,2,5,17,41,4,-2,-3,7
1523148581573591,7,-4,-10,-33,-9,-2,-3,0
1523148581573591,-2,-2,3,5,0,-2,-3,-5
1523148581594145,-6,-2,-9,-9,-4,-4,-2,-7
1523148581594145,0,7,2,16,2,10,0,8
1523148581596166,-1,-7,7,3,3,3,2,4
1523148581596166,1,-1,-6,-3,1,6,4,-11
1523148581608182,-5,-4,-10,0,-2,-3,-2,7
1523148581608182,2,5,5,16,-2,-5,-2,-3
1523148581617206,-2,-8,-4,-30,-10,-4,-4,-2
1523148581617206,-1,6,-5,-4,-3,-2,-6,-4
1523148581631796,-4,-30,-14,14,2,-5,0,-3
1523148581631796,1,7,-3,-16,-1,1,-4,7
1523148581633251,2,6,16,29,3,6,6,3
1523148581633251,-2,-9,-5,5,0,-10,-4,0
1523148581654356,0,3,-5,-8,-6,2,-2,-3
1523148581654356,19,6,-2,-14,-3,-11,-4,3
1523148581655810,1,-6,-9,-29,0,3,0,0
1523148581655810,-5,8,16,2,4,3,3,-6
1523148581668101,-16,11,-7,-6,-4,-4,-3,-1
1523148581668101,-9,-5,-3,-1,-6,0,-1,-1
1523148581676867,-5,5,0,17,2,-5,-1,-3
1523148581676867,-22,-20,0,1,8,1,-3,-9
1523148581692174,85,15,16,-14,1,0,-1,10
1523148581692174,-13,10,12,9,10,4,6,4
1523148581693411,-11,-20,-32,7,-5,-4,-3,-4
1523148581693411,-20,1,-16,-5,-3,-9,-5,-5
1523148581714466,2,5,14,5,-1,0,2,-24
1523148581714466,1,-8,-21,-6,8,0,1,17
1523148581715970,22,21,15,11,16,-1,-9,18
1523148581715970,19,14,35,-5,0,3,2,-15
1523148581727917,-43,-15,-50,-4,-8,-2,-4,-12
1523148581727917,37,-22,2,-14,-10,-7,-2,10
1523148581744460,-9,-31,-7,14,-4,0,2,-1
1523148581744460,17,-3,10,10,0,1,3,-26
1523148581752365,5,40,17,5,3,1,-2,19
1523148581752365,-19,-6,-8,-8,-8,-4,0,-11
1523148581753483,-23,-5,17,4,-2,3,-1,-10
1523148581753483,-10,-18,13,-3,-6,-4,-2,47
1523148581775040,80,2,-21,2,8,1,-2,-23
1523148581775040,-6,5,0,-3,-7,0,-4,-3
1523148581776043,-12,-4,-16,-7,-4,-2,-1,-10
1523148581776043,22,12,-2,-4,-5,-4,3,13
1523148581788115,-42,-20,1,-4,2,1,0,3
1523148581788115,13,16,4,-2,-1,1,-1,12
1523148581797141,15,-10,5,19,1,-5,0,3
1523148581797141,-15,-8,-27,-32,-9,1,-4,-1
1523148581810674,-30,-7,3,-3,-3,-2,-1,-18
1523148581810674,1,-7,20,18,2,0,-1,-9
1523148581819699,2,14,16,25,3,-2,1,-3
1523148581819699,24,-1,-13,-24,0,-2,-1,3
1523148581834620,-25,-12,-19,-69,-15,-3,-2,9
1523148581834620,1,5,6,36,3,3,6,1
1523148581836268,-34,0,0,0,6,3,0,-7
1523148581836268,-1,1,-18,-47,-13,-6,-5,0
1523148581857331,7,0,11,8,-2,-1,1,4
1523148581857331,-9,-6,-12,-10,-5,-6,0,6
1523148581858303,2,6,3,14,6,3,-2,-10
1523148581858303,-6,0,17,38,2,1,-1,3
1523148581871337,-7,-1,16,-5,-3,-2,-5,15
1523148581871337,-10,-16,-20,-34,-7,-3,-3,-10
1523148581878354,16,13,5,2,3,1,2,-5
1523148581878354,-3,-5,-14,7,-2,-1,0,-7
1523148581894719,-16,0,13,2,1,2,3,-5
1523148581894719,-6,-1,-2,15,0,-3,-4,0
1523148581896404,7,4,1,-31,-6,-2,-3,-3
1523148581896404,24,0,-15,-8,1,3,4,-9
1523148581916957,-3,-3,8,18,3,0,-1,12
1523148581916957,-7,1,14,13,4,2,-1,-20
1523148581918462,-13,-14,-35,-52,-13,-6,-1,39
1523148581918462,-8,6,13,51,6,0,-1,-10
1523148581931996,-3,-4,-2,-23,-3,-3,-2,-6
1523148581931996,-10,7,9,-35,-4,0,2,8
1523148581933501,0,-2,11,46,5,3,1,-15
1523148581933501,17,-4,-15,-62,-8,-3,-2,3
1523148581954557,-3,-6,-6,62,8,0,1,-2
1523148581954557,-17,2,-33,-89,-19,-6,-4,-2
1523148581960572,2,1,18,46,3,1,3,0
1523148581960572,-11,-1,-23,-33,-10,-4,-3,1
1523148581976618,-1,-13,-8,-27,-3,0,1,-4
1523148581976618,6,7,11,25,6,2,-1,-13
1523148581978621,10,-1,7,5,-2,0,1,4
1523148581978621,-4,6,9,16,5,-1,-2,-1
1523148581991656,0,-7,-3,14,-6,-5,-5,-2
1523148581991656,-7,-1,-12,-21,-1,-2,-1,-4
1523148581998453,9,12,8,4,4,2,5,2
1523148581998453,-15,-6,15,13,2,-2,-4,1
1523148582013715,1,4,-4,8,1,0,2,-2
1523148582013715,8,2,13,13,7,3,3,4
1523148582021737,3,-18,-4,1,0,-3,-5,-4
1523148582021737,7,3,-15,12,-2,-1,0,0
1523148582036777,-16,3,3,14,2,1,1,1
1523148582036777,11,-20,-14,-21,-9,-7,-6,0
1523148582038282,-3,15,10,-22,-2,-1,-1,-4
1523148582038282,-3,-6,-3,13,1,0,1,6
1523148582051815,1,-2,9,4,-2,2,1,3
1523148582051815,-28,15,13,26,5,2,2,0
1523148582057833,-2,-4,-16,-4,-3,-4,-4,-4
1523148582057833,-8,-4,-2,7,6,1,-1,-1
1523148582074877,5,4,-8,-10,-7,-2,0,-2
1523148582074877,20,10,31,60,10,1,1,4
1523148582075881,-5,0,-25,-43,-14,-5,-5,-5
1523148582075881,-10,1,3,31,1,0,1,-5
1523148582097439,3,-2,-11,-58,-7,-4,-3,-1
1523148582097439,3,-2,-2,11,0,0,1,3
1523148582098441,-4,-1,0,3,0,0,-1,-1
1523148582098441,-2,-4,-10,-51,-9,-3,-5,-3
1523148582110973,2,-7,-4,13,2,1,2,3
1523148582110973,-5,-1,-10,3,0,-3,-4,-3
1523148582118278,24,2,7,0,8,0,1,1
1523148582118278,-4,-10,-1,1,-2,0,3,0
1523148582134923,-9,-3,7,24,5,-1,0,-1
1523148582134923,-2,-2,-7,-10,-7,-4,-3,-4
1523148582136041,-6,-2,0,-1,-2,0,-1,1
1523148582136041,-1,4,16,25,4,-1,-3,-2
1523148582156961,0,4,-5,-3,-6,-5,-2,-3
1523148582156961,6,8,-2,2,0,-3,-1,0
1523148582158605,-10,-5,-8,-8,-3,-3,-2,-4
1523148582158605,-4,-7,18,8,-1,1,-1,3
1523148582171658,9,7,-14,-9,2,1,-3,-4
1523148582171658,-13,-10,-3,-16,-3,-1,-2,-2
1523148582178152,24,16,25,-10,-5,-1,1,-4
1523148582178152,-18,13,15,9,11,2,3,3
1523148582194806,29,17,-7,-3,-10,-4,-4,0
1523148582194806,6,9,18,11,3,-4,-3,-9
1523148582196223,-3,-49,-2,-3,12,2,1,6
1523148582196223,-27,16,-10,0,-8,-2,3,-68
1523148582217000,53,17,32,8,13,2,-5,21
1523148582217000,-53,-6,-8,-7,-10,-4,-6,-2
1523148582218890,4,8,12,-1,-5,-3,-1,-1
1523148582218890,5,-10,-18,0,1,0,3,-4
1523148582231536,-22,-18,-10,2,-4,-3,-1,-15
1523148582231536,21,6,-1,-11,-9,-3,-5,3
1523148582237863,-2,3,-4,1,-1,2,2,-9
1523148582237863,-6,-5,-4,1,-2,4,4,15
1523148582254599,-30,-12,-3,5,5,-1,-2,-15
1523148582254599,12,-1,3,-3,-1,-7,-8,38
1523148582256373,-33,-16,-16,-4,-13,-1,-1,-12
1523148582256373,14,-6,-18,-5,3,-3,-3,21
1523148582276916,7,-3,-8,4,0,0,0,10
1523148582276916,-4,-4,0,2,3,4,7,-27
1523148582278919,2,13,3,10,3,0,0,10
1523148582278919,43,13,9,14,-1,-2,-3,22
1523148582290655,-25,-6,-1,-22,-11,0,0,-11
1523148582290655,-24,-12,-10,6,8,1,3,-1
1523148582299475,1,12,-10,4,2,-1,0,1
1523148582299475,-6,-8,12,28,-2,-3,-3,2
1523148582314700,-2,-2,6,-8,0,3,2,1
1523148582314700,-30,-13,-20,-9,-3,3,1,-9
1523148582316050,14,4,-11,-17,-2,-2,-3,8
1523148582316050,-8,-4,-9,-22,-5,-3,-3,-9
1523148582337282,-6,4,19,53,6,1,1,1
1523148582337282,29,-2,-13,-48,-5,0,1,5
1523148582338580,4,2,16,39,6,1,1,-3
1523148582338580,-22,-1,-13,-36,-8,-4,-6,5
1523148582350816,-3,-4,-12,3,2,2,5,-3
1523148582350816,-11,-12,4,-13,-5,-2,-7,-5
1523148582359636,-13,5,-3,8,-7,-7,-8,-11
1523148582359636,1,-3,-5,-3,1,-4,-2,-3
1523148582374406,23,5,11,16,5,0,-1,12
1523148582374406,14,15,46,120,28,9,10,10
1523148582376179,-20,-14,-54,-97,-27,-9,-8,-15
1523148582376179,4,-3,0,11,-1,1,-2,-4
1523148582396919,-7,-4,-2,-8,5,1,2,9
1523148582396919,14,4,13,16,-2,-2,-4,-10
1523148582398238,-16,10,21,8,-2,1,1,4
1523148582398238,5,-7,9,24,5,1,-1,0
1523148582410271,-2,-1,13,-9,-1,2,2,-2
1523148582410271,3,1,-13,25,-1,-1,-1,0
1523148582419295,3,9,24,58,11,-1,-1,4
1523148582419295,-9,-10,-27,-56,-15,-1,-3,2
1523148582434583,6,2,10,15,7,1,1,1
1523148582434583,3,1,-9,-14,-1,1,0,-5
1523148582435838,13,-9,-12,-34,-3,-3,-1,7
1523148582435838,16,5,25,38,11,0,-1,-3
1523148582456894,-9,-3,-7,9,-3,1,2,0
1523148582456894,14,-14,-36,-44,-16,-4,-3,-11
1523148582458399,1,-11,-31,-42,-4,-1,-5,-1
1523148582458399,-3,7,4,5,2,-1,0,2
1523148582470641,-4,-4,-1,-1,-6,-8,-5,-3
1523148582470641,-32,2,1,-7,-4,-1,0,-5
1523148582479455,1,-3,-2,5,4,0,3,6
1523148582479455,4,-4,2,-6,-3,0,-1,1
1523148582494660,-9,2,8,2,0,2,1,-3
1523148582494660,14,-1,2,13,-1,-1,-1,3
1523148582495999,4,-5,5,11,2,-1,0,-4
1523148582495999,-5,10,-8,2,-4,-3,-1,0
1523148582517197,-1,-10,-21,-68,-15,-7,-6,-6
1523148582517197,6,3,0,-4,2,0,0,0
1523148582518559,-3,-4,5,19,5,2,1,1
1523148582518559,-1,-4,-1,18,1,-1,0,-10
1523148582530591,-2,1,1,23,-3,-5,-3,7
1523148582530591,6,-1,-2,-16,3,1,1,1
1523148582539659,-4,-5,-10,-11,-4,1,-2,-4
1523148582539659,3,-2,-2,14,5,4,2,1
1523148582554153,-2,12,4,1,-4,-4,-4,-3
1523148582554153,-14,-4,-7,-16,-4,-3,-3,-6
1523148582556159,6,3,27,61,8,-2,0,0
1523148582556159,-2,-7,-8,-21,-6,-3,-2,1
1523148582576714,1,-1,0,2,2,0,-4,-4
1523148582576714,6,4,-3,-9,-6,-1,-1,3
1523148582578217,-5,-7,0,1,-4,0,1,-1
1523148582578217,3,0,-1,26,4,3,0,0
1523148582590249,-6,-12,-14,-30,-4,1,0,-5
1523148582590249,-4,4,-11,15,-3,-2,0,1
1523148582605340,-6,-6,4,-5,1,-1,0,0
1523148582605340,0,3,35,-4,8,-1,-3,0
1523148582614313,-15,-8,4,26,2,6,2,-3
1523148582614313,-6,1,-1,-9,-2,1,2,2
1523148582615818,6,-8,-26,-14,9,-4,-3,-7
1523148582615818,12,26,-1,-25,-12,-5,-2,2
1523148582636873,-29,-3,-6,14,-5,1,3,-5
1523148582636873,24,30,23,-18,-8,-4,-2,5
1523148582638378,-5,9,46,4,12,4,0,-5
1523148582638378,-24,-16,-58,-17,-16,-7,-7,-2
1523148582659433,27,7,-36,-10,-2,0,1,2
1523148582659433,3,18,12,14,17,8,8,17
1523148582660939,32,24,-1,-1,-20,-2,1,22
1523148582660939,-8,-5,-12,-2,1,-2,-8,-40
1523148582674142,-40,-41,8,-7,-7,-5,-12,-30
1523148582674142,41,-17,-16,-3,-6,-4,-5,-1
1523148582680490,33,3,12,6,6,8,8,13
1523148582680490,19,10,1,3,8,2,2,17
1523148582697041,25,11,15,-26,-11,-7,-3,5
1523148582697041,3,3,-2,4,-2,-1,-4,-14
1523148582698539,7,-8,5,16,6,0,2,9
1523148582698539,-5,-5,4,-39,-9,-1,-1,5
1523148582710570,19,-3,-16,15,6,-1,0,0
1523148582710570,-11,-13,1,-44,-1,2,3,-4
1523148582719594,-18,8,-9,29,-3,-1,-2,-10
1523148582719594,-9,-4,10,9,-3,-2,3,13
1523148582733630,-20,13,19,18,7,1,-1,6
1523148582733630,1,-13,-1,0,-5,-4,-3,0
1523148582740648,-37,-7,-3,59,12,3,2,-16
1523148582740648,6,-8,3,1,-7,1,-4,-13
1523148582756692,-2,-1,5,60,10,-2,-1,-5
1523148582756692,-2,-8,-24,-20,-6,-4,0,6
1523148582758198,4,-4,6,-5,-8,-4,-4,-6
1523148582758198,-18,-4,-1,24,12,2,2,-5
1523148582779782,9,5,-4,2,0,-3,-3,7
1523148582779782,-8,-4,11,36,-1,-2,-2,1
1523148582780758,-6,-3,-24,-46,-5,-5,-7,-6
1523148582780758,11,-4,-3,-3,-3,2,5,4
1523148582793791,4,-5,-5,-23,-2,-2,2,-9
1523148582793791,-19,9,-6,-26,-12,-8,-9,-1
1523148582800950,-38,-5,4,-2,-6,-3,-3,-2
1523148582800950,-16,5,-18,-16,1,2,5,-25
1523148582817243,23,9,25,15,1,0,-5,16
1523148582817243,3,-23,-16,-34,-9,-5,-4,-5
1523148582819050,-2,3,-16,-4,-2,0,0,4
1523148582819050,-8,6,27,88,16,1,0,-3
1523148582839913,-36,-20,-76,-92,-37,-11,-6,-36
1523148582839913,33,16,-2,46,2,-1,-4,6
1523148582840916,9,1,-5,-9,-6,-2,0,10
1523148582840916,15,1,19,31,8,-1,0,15
1523148582854452,-6,-12,7,9,3,0,1,-4
1523148582854452,-29,4,-2,-31,-1,1,2,-4
1523148582855957,-2,0,8,18,4,1,0,-12
1523148582855957,-2,-9,-37,-95,-22,-8,-8,-4
1523148582884532,1,2,5,21,4,2,1,0
1523148582884532,-8,-6,7,8,-3,-4,-1,4
1523148582886038,6,2,-1,-27,-3,-3,-4,4
1523148582886038,1,-16,-1,-5,1,1,1,5
1523148582899473,-28,5,6,-6,3,2,3,4
1523148582899473,6,-14,-7,19,9,4,5,2
1523148582900977,0,1,3,-16,-7,-4,-3,-4
1523148582900977,1,-6,1,-31,-4,-2,-2,4
1523148582914512,8,7,5,15,4,-1,-1,6
1523148582914512,37,0,32,49,0,4,3,-6
1523148582916017,-13,-1,-25,-37,-14,-6,-3,6
1523148582916017,-6,-4,-20,-55,-6,-2,-2,-8
1523148582937377,12,4,2,10,6,-2,0,11
1523148582937377,-15,-10,0,7,-1,0,-2,-5
1523148582938584,7,-1,8,10,-3,2,0,-3
1523148582938584,5,4,-1,12,-6,-6,-5,4
1523148582959633,5,-2,6,8,5,2,2,3
1523148582959633,-9,1,-1,15,10,3,1,-4
1523148582961138,-5,-9,-20,-32,-11,-5,-2,-6
1523148582961138,0,5,17,28,2,4,4,6
1523148582974170,13,11,5,7,-3,-2,1,3
1523148582974170,-14,-12,-1,6,8,-1,-3,-4
1523148582980693,0,-4,-20,-61,-13,0,-3,-5
1523148582980693,2,1,-3,25,11,-2,-3,3
1523148582997297,3,-2,-6,-28,-7,-2,0,-2
1523148582997297,-1,1,1,3,0,2,2,2
1523148582998865,-2,-1,0,19,5,-3,-2,-5
1523148582998865,-3,-2,7,-9,-1,1,0,1
1523148583019792,5,2,26,53,12,2,1,1
1523148583019792,-7,-2,-62,-93,-33,-6,-2,-3
1523148583020796,-9,-6,-3,29,6,-1,-3,-2
1523148583020796,0,-1,-1,26,0,0,0,0
1523148583034231,-4,3,6,13,0,-3,-3,0
1523148583034231,-2,4,1,-39,-5,-6,-5,-6
1523148583040849,1,5,2,-17,2,5,4,-4
1523148583040849,4,-2,23,7,1,1,1,13
1523148583057224,-12,-11,-14,-4,-2,0,1,-1
1523148583057224,-10,-14,-11,-40,-2,-4,-3,-3
1523148583058333,1,-20,-10,8,-4,-1,-3,-2
1523148583058333,4,33,30,26,11,3,1,-2
1523148583079389,0,-13,-14,-31,-8,-2,-4,-2
1523148583079389,-5,-6,-3,33,-23,-1,-1,1
1523148583080894,0,19,1,19,27,1,-1,1
1523148583080894,-3,-14,-9,-10,-5,-3,-2,-5
1523148583093426,4,13,-21,-43,-5,-1,-1,1
1523148583093426,0,-3,13,15,13,-2,-3,-6
1523148583101071,3,-3,13,6,-4,-6,0,2
1523148583101071,-14,-11,-8,4,-2,-4,-3,-2
1523148583116971,7,6,9,9,-4,7,1,-1
1523148583116971,0,-9,14,7,16,1,0,2
1523148583118476,30,42,7,4,-6,1,0,3
1523148583118476,-18,7,-17,-3,-7,-2,-3,-13
1523148583139532,-3,-1,7,-1,-1,-3,-1,1
1523148583139532,44,-11,19,12,-9,2,1,-5
1523148583141037,35,-33,1,2,1,1,0,14
1523148583141037,14,-67,-34,-31,-22,-7,-4,2
1523148583162091,-29,-21,-6,7,3,-2,-6,-24
1523148583162091,-17,24,-7,11,-2,-11,0,-3
1523148583163596,-15,-25,-21,-2,-7,5,-4,-8
1523148583163596,13,21,7,5,9,-7,0,0
1523148583177335,1,-29,-11,3,5,2,7,9
1523148583177335,51,26,1,16,20,17,2,7
1523148583178635,-32,-27,8,-6,-5,-7,1,1
1523148583178635,-8,19,17,12,25,0,-3,1
1523148583199189,7,12,1,-7,-27,4,5,-3
1523148583199189,-31,52,-2,1,0,-4,1,7
1523148583201480,14,20,16,10,9,5,1,14
1523148583201480,-13,-5,-12,-18,-31,-3,-6,-14
1523148583213729,40,39,3,8,9,-6,-1,4
1523148583213729,-3,-11,-1,22,11,6,3,-6
1523148583221751,-27,58,4,-5,-3,-8,-9,-27
1523148583221751,-11,16,6,5,-5,-3,3,8
1523148583237165,24,54,-15,-11,-2,-7,0,24
1523148583237165,-44,-23,-4,4,-9,-3,-7,-21
1523148583239062,-15,-13,6,5,11,-3,-9,-20
1523148583239062,8,14,-19,-7,-9,4,2,-4
1523148583259386,13,13,21,7,3,3,3,4
1523148583259386,5,-12,24,5,8,2,2,11
1523148583260853,-5,-46,-40,-5,-11,-14,2,0
1523148583260853,16,7,4,10,-1,13,2,4
1523148583273544,-56,-36,-9,-9,1,-1,-3,-11
1523148583273544,-7,10,6,11,-4,-6,-1,-2
1523148583281910,-8,-27,9,-7,-2,0,-2,-10
1523148583281910,-16,-4,12,13,15,0,-1,-4
1523148583296949,-2,-6,-14,-16,-13,-6,-7,5
1523148583296949,-4,-8,3,33,8,6,7,0
1523148583298454,16,15,13,2,-4,4,2,9
1523148583298454,6,6,15,47,4,0,3,1
1523148583319911,-10,-13,-15,-27,4,1,-5,-6
1523148583319911,-6,-19,-23,-10,0,-8,-7,-8
1523148583321015,18,7,10,25,-6,-2,6,3
1523148583321015,7,-4,-14,-44,-13,-4,-10,-1
1523148583333314,1,-15,10,24,5,0,-1,-8
1523148583333314,-3,49,12,36,0,1,2,8
1523148583342072,-12,-6,-5,-15,6,1,-2,-5
1523148583342072,-1,-12,-8,-6,6,-2,-3,-17
1523148583357487,-14,0,5,3,-13,-8,-2,4
1523148583357487,17,3,-1,15,6,3,0,8
1523148583358614,7,6,10,-47,-7,-1,0,-3
1523148583358614,-15,-14,-36,-67,-17,-8,-4,3
1523148583379633,14,8,22,24,11,4,11,1
1523148583379633,-19,-18,-13,30,2,5,-7,-12
1523148583381383,1,-1,-24,-21,-4,-2,-4,3
1523148583381383,-9,-5,6,16,4,-4,0,-3
1523148583392791,5,-2,19,9,9,6,4,0
1523148583392791,-3,-5,3,-14,-7,-7,-6,-4
1523148583401816,-2,-3,1,28,6,4,4,1
1523148583401816,9,-23,-33,-11,-7,-3,2,8
1523148583417094,-5,5,6,14,5,4,-1,5
1523148583417094,4,1,34,-12,1,1,2,-2
1523148583418362,-3,-14,4,47,0,-1,-3,0
1523148583418362,7,7,3,28,8,1,0,4
1523148583439918,7,0,-17,-11,-3,-1,-1,2
1523148583439918,-4,0,-3,-36,-1,-1,0,-8
1523148583441421,-5,-15,-7,5,-6,-2,0,3
1523148583441421,2,10,23,23,-2,-1,-3,2
1523148583452952,3,-17,-14,-28,-4,-5,-4,6
1523148583452952,6,-4,-10,15,-1,-2,-3,1
1523148583461976,-20,15,18,-18,4,-1,1,-13
1523148583461976,-7,-4,-27,-2,-6,0,0,2
1523148583477239,2,-2,10,27,-1,-3,-6,-6
1523148583477239,15,-7,1,-21,-7,-4,-2,3
1523148583478520,-13,12,31,96,20,7,3,6
1523148583478520,-5,-3,-17,-19,-4,0,-1,-8
1523148583499574,-3,-2,-4,3,0,-2,-2,-8
1523148583499574,10,-7,15,27,7,4,6,17
1523148583501081,-5,0,1,-3,0,-2,-2,-8
1523148583501081,-4,-7,-20,-19,1,-1,-1,-6
1523148583513509,0,30,6,3,-2,-4,-8,0
1523148583513509,0,8,8,20,4,1,1,2
1523148583522136,14,-1,-1,-18,-5,-2,1,11
1523148583522136,6,11,24,5,2,0,-1,3
1523148583536908,-12,-9,0,24,4,1,1,-11
1523148583536908,-4,-14,-39,-79,-24,-10,-4,-4
1523148583538875,4,11,-21,-41,-10,-3,-2,4
1523148583538875,3,-9,2,-13,-2,0,4,5
1523148583559233,-2,-13,7,9,1,-4,-3,-8
1523148583559233,-10,-7,-5,-5,-1,1,-2,-5
1523148583561449,1,-20,-5,-18,-4,1,1,1
1523148583561449,2,4,18,12,2,7,2,-4
1523148583572770,-2,-10,-8,-5,2,0,-1,-3
1523148583572770,-15,-6,-19,-9,-8,-7,-2,-6
1523148583582295,4,7,-1,-9,-2,-2,-2,-2
1523148583582295,6,10,20,36,3,2,4,3
1523148583597337,-3,-5,14,-17,0,0,0,-3
1523148583597337,-5,-3,-21,-6,-9,-8,-3,-5
1523148583598339,0,-1,-10,-6,1,8,-1,0
1523148583598339,-5,-9,7,14,4,-1,-3,-3
1523148583619395,0,-7,-2,20,-3,-1,0,-1
1523148583619395,-6,-4,-7,-40,-8,-5,-5,-1
1523148583620899,3,-3,-9,2,1,-1,-1,0
1523148583620899,-3,8,13,5,0,0,-2,-3
1523148583632929,17,-5,-16,-21,10,1,0,1
1523148583632929,0,-39,5,17,-4,1,-2,-2
1523148583641954,-7,-1,-14,-3,-1,-3,-4,0
1523148583641954,-1,5,9,-10,-6,-1,-1,-1
1523148583656993,11,-4,-27,-15,-14,-6,0,1
1523148583656993,-29,-8,8,10,12,3,2,-5
1523148583658499,-5,8,10,-15,-2,-3,-4,-4
1523148583658499,9,-21,-6,10,11,1,-1,2
1523148583679568,-49,-7,4,7,3,-2,-3,-7
1523148583679568,28,-14,-29,-5,-3,2,2,2
1523148583681079,-3,-11,2,5,-7,-5,-1,-6
1523148583681079,34,83,26,-3,14,-1,-2,9
1523148583701613,-21,-29,-17,-16,-25,-5,6,10
1523148583701613,59,-20,-26,-4,6,1,-7,-3
1523148583703619,-17,0,-6,10,2,1,2,3
1523148583703619,34,-7,-6,-10,-13,-3,-6,-14
1523148583716653,-14,17,3,1,14,4,-3,-11
1523148583716653,-1,12,23,2,-6,-3,3,11
1523148583718657,-23,22,-25,-16,-12,-5,-4,-1
1523148583718657,3,4,1,1,1,-1,2,9
1523148583739213,-38,-50,23,3,6,1,-3,-12
1523148583739213,-7,-23,22,9,2,4,2,-14
1523148583741219,12,-29,-6,-3,-2,1,-1,-3
1523148583741219,-34,-16,-7,-3,3,4,6,6
1523148583761772,11,-9,-1,10,0,-1,-3,5
1523148583761772,50,13,6,6,-1,-3,-1,-2
1523148583763278,-9,4,16,-5,-8,-5,0,8
1523148583763278,-63,1,9,3,-3,0,-1,-10
1523148583776865,8,-5,-8,-4,-5,0,-2,-7
1523148583776865,-48,16,8,22,10,-1,-4,-14
1523148583778317,-18,-4,0,-26,-2,-1,1,4
1523148583778317,6,-17,-29,1,-3,-4,-3,2
1523148583799411,35,27,3,8,-1,0,1,12
1523148583799411,-45,3,0,6,-1,-3,0,-6
1523148583800878,13,3,15,34,9,5,3,0
1523148583800878,-17,-12,-16,-32,-9,-5,-2,-1
1523148583821934,15,10,-2,-29,3,1,0,4
1523148583821934,15,11,-6,6,-1,-4,0,-2
1523148583823437,-11,4,9,2,-3,-5,-6,-3
1523148583823437,25,-11,3,-32,-8,1,0,-2
1523148583836972,1,19,-10,5,-1,3,1,-6
1523148583836972,-6,-14,-1,8,6,0,-1,15
1523148583838479,21,7,5,4,-3,1,0,-2
1523148583838479,-6,-8,13,31,-2,-2,-5,-4
1523148583859532,-2,-1,-19,-45,-9,-5,-4,-5
1523148583859532,-10,15,-7,-16,-3,-1,1,2
1523148583861039,6,-12,-7,28,10,-1,1,3
1523148583861039,-8,2,-9,13,-6,-3,-7,-20
1523148583881784,13,3,6,-7,-1,-1,-1,-2
1523148583881784,11,2,-10,-28,-9,2,1,4
1523148583883598,31,3,9,-2,1,2,4,4
1523148583883598,15,2,5,-5,2,-3,-2,-2
1523148583896130,4,2,-8,-3,-4,-3,-3,-2
1523148583896130,-43,9,7,-29,-5,-4,-3,-14
1523148583903148,12,-3,7,101,14,4,-1,3
1523148583903148,-20,-17,-43,-81,-28,-10,-5,2
1523148583920037,4,9,20,69,10,1,1,2
1523148583920037,17,5,9,20,4,2,1,9
1523148583921550,-12,1,-6,-27,-15,-4,-4,-8
1523148583921550,-5,-11,-11,16,8,1,3,1
1523148583941547,0,3,22,36,5,1,-1,0
1523148583941547,3,-2,12,81,5,-2,-4,-4
1523148583943556,-9,1,-25,-95,-17,-3,-2,-7
1523148583943556,7,0,20,98,12,2,2,3
1523148583964886,-19,2,1,21,-8,-1,1,-1
1523148583964886,3,-1,12,18,6,1,0,1
1523148583966119,8,23,5,-10,5,1,0,3
1523148583966119,14,-6,4,-21,-5,-2,0,2
1523148583980040,-11,-21,-12,11,3,2,2,-4
1523148583980040,-11,7,-4,-27,-1,0,-2,-5
1523148583981151,3,-1,1,5,-6,-5,-2,1
1523148583981151,-27,10,11,8,4,5,-1,-4
1523148584002339,-4,-11,-14,-19,-5,-5,-4,-5
1523148584002339,-4,2,-18,-48,-13,-3,-2,-1
1523148584003212,-8,-21,-15,-14,-6,-4,-3,-6
1523148584003212,-5,-4,3,3,2,-2,-1,1
1523148584016247,8,11,6,-10,1,1,2,1
1523148584016247,-2,6,0,-6,-5,-1,1,2
1523148584023265,-6,-15,-8,-26,-3,-4,0,-3
1523148584023265,10,3,8,8,11,5,0,2
1523148584039702,7,13,3,-8,-9,-8,-3,0
1523148584039702,3,-13,-10,-3,5,7,1,1
1523148584040812,-2,1,8,32,2,-1,-1,-3
1523148584040812,0,-4,9,1,-4,-1,1,2
1523148584062370,0,-5,-6,-24,-3,-2,-3,-2
1523148584062370,1,7,1,14,-1,-3,-2,0
1523148584063372,-16,5,0,3,1,-1,0,-4
1523148584063372,-2,-26,-17,3,-2,-3,-2,0
1523148584076275,-6,6,0,-10,-2,-3,-2,-1
1523148584076275,-1,0,7,4,-2,-1,3,-1
1523148584083493,8,8,-2,-2,3,0,-2,-1
1523148584083493,16,9,8,-13,-5,-5,-1,2
1523148584099848,-9,-8,-15,6,1,1,0,0
1523148584099848,4,-4,6,-7,-3,-1,-1,2
1523148584100972,3,-4,-8,2,1,-2,-2,-1
1523148584100972,-12,1,-10,6,1,-1,-2,-3
1523148584122528,-9,-3,11,-6,-2,0,-1,-2
1523148584122528,59,44,6,1,1,2,3,6
1523148584123531,-4,-32,-7,0,1,-1,-3,0
1523148584123531,-57,-7,8,1,-2,1,2,-2
1523148584136464,-14,-5,20,5,15,4,-2,-1
1523148584136464,37,14,-15,-11,-9,-4,-2,-1
1523148584143085,12,5,-9,2,-3,-2,-3,-2
1523148584143085,-11,-52,-3,-1,0,-5,-4,-1
1523148584159626,45,8,0,-7,2,1,-1,-1
1523148584159626,-45,-32,5,1,1,0,1,5
1523148584161130,-23,12,42,6,11,2,-1,-7
1523148584161130,-16,8,-17,-7,-6,1,-1,0
1523148584181880,-19,15,-20,-5,-5,-2,0,-21
1523148584181880,-36,-20,-10,-3,0,-3,-2,7
1523148584183974,-6,5,3,0,4,2,-2,16
1523148584183974,69,6,10,-3,-3,-1,3,-29
1523148584195872,-22,23,12,2,-7,-4,-8,22
1523148584195872,-21,8,-4,-1,-1,0,-3,-12
1523148584204747,15,-18,11,1,-3,-1,2,-14
1523148584204747,35,6,-20,0,-3,-2,-2,51
1523148584219813,-7,-35,8,8,11,4,3,-10
1523148584219813,-26,14,9,-3,-9,-2,3,-31
1523148584221291,-1,-10,-37,-8,-15,-4,-11,16
1523148584221291,12,-28,11,0,0,-1,0,-15
1523148584242083,14,-7,0,-1,1,2,3,5
1523148584242083,21,6,-3,-5,-7,-2,1,28
1523148584243350,16,15,14,8,3,-1,1,-25
1523148584243350,-34,-15,-16,-2,-4,-3,-1,-10
1523148584256142,-43,8,-10,-15,-7,-3,-3,2
1523148584256142,13,-15,10,7,5,1,0,-8
1523148584271925,-31,26,-13,-8,-5,0,0,1
1523148584271925,17,9,3,2,3,0,-7,9
1523148584279848,12,-7,8,37,-1,-3,-1,4
1523148584279848,-17,-11,-39,-87,-19,-8,-12,-20
1523148584281192,-1,-17,-7,19,0,0,3,6
1523148584281192,-9,30,37,48,14,5,2,5
1523148584302005,14,-13,-40,-76,-21,-8,-2,-12
1523148584302005,11,-5,2,26,6,1,2,11
1523148584303511,-17,5,-4,3,2,-1,-2,-9
1523148584303511,11,12,13,28,5,3,3,-1
1523148584316043,15,5,-4,-12,-6,-1,-2,5
1523148584316043,7,-16,-12,-11,0,-4,-8,-6
1523148584324566,3,1,5,-2,0,0,0,4
1523148584324566,-6,10,5,-20,-1,1,3,-7
1523148584339507,8,-5,-6,7,0,0,2,11
1523148584339507,-5,-14,2,1,4,0,-1,1
1523148584341111,7,28,57,107,23,6,4,1
1523148584341111,-26,-27,-68,-77,-37,-14,-8,-8
1523148584362360,14,4,-13,4,-5,-1,-1,5
1523148584362360,-5,-3,8,36,3,1,3,2
1523148584363673,14,-3,7,9,1,-2,-2,0
1523148584363673,-6,9,-8,-35,2,-2,-3,-7
1523148584375901,-11,0,11,15,6,8,7,2
1523148584375901,0,-4,8,31,3,-3,-3,-2
1523148584384798,8,-6,-18,-66,-16,-5,-1,2
1523148584384798,5,12,7,-4,5,0,-2,6
1523148584399767,-13,-8,-8,-20,-6,-5,-6,-19
1523148584399767,-5,1,11,66,15,6,3,6
1523148584401269,-8,-3,-32,-105,-27,-11,-4,-2
1523148584401269,5,-7,-4,4,3,2,2,-1
1523148584422356,9,6,17,52,10,0,0,1
1523148584422356,-9,-12,-5,-16,-6,0,-1,-2
1523148584423329,2,-6,-19,-57,-12,-4,-4,0
1523148584423329,-6,-7,-7,14,0,0,0,-3
1523148584435361,4,4,33,57,7,0,0,0
1523148584435361,-2,-3,-49,-91,-29,-9,-4,-3
1523148584444387,0,2,-8,24,5,3,1,0
1523148584444387,5,9,21,25,9,2,-1,-1
1523148584459656,-1,-13,-7,10,0,0,-1,-5
1523148584459656,4,9,14,38,3,-4,-3,-2
1523148584460931,-2,-20,-10,-9,5,3,0,-3
1523148584460931,-7,-1,-29,-91,-17,-2,-1,-4
1523148584482217,10,5,21,5,1,0,0,4
1523148584482217,2,1,9,13,5,1,0,1
1523148584483489,-7,-12,-8,39,-1,-3,-3,-6
1523148584483489,-4,-24,-6,-20,-2,-3,-1,-3
1523148584495907,6,3,-10,-28,-4,-4,-1,0
1523148584495907,13,7,1,-17,-5,-2,-2,3
1523148584504549,-24,-7,12,35,7,1,-1,-4
1523148584504549,2,10,12,21,0,0,1,-1
1523148584520483,4,-1,-14,-8,-2,0,-2,1
1523148584520483,2,-5,1,-1,1,-2,1,0
1523148584521918,9,10,6,2,3,2,2,1
1523148584521918,-1,7,12,33,3,-2,-2,-2
1523148584541141,-10,-6,-9,-21,-4,-1,-1,-5
1523148584541141,-2,10,22,73,14,4,1,0
1523148584549667,0,-3,-13,-46,-15,-6,-3,-1
1523148584549667,-11,4,15,33,5,1,2,0
1523148584556181,1,-8,-25,-22,-3,-5,-5,-2
1523148584556181,-2,0,0,-7,1,1,-3,0
1523148584564704,5,4,14,16,2,1,0,0
1523148584564704,2,7,6,18,4,3,1,1
1523148584579656,-2,-3,4,15,3,2,2,0
1523148584579656,-5,-3,-2,-20,-4,-1,-1,-1
1523148584581521,-1,-1,-1,-2,-7,-4,0,-1
1523148584581521,3,3,5,10,0,-1,-1,0
1523148584602195,-3,-2,4,11,0,0,0,-2
1523148584602195,-5,-6,-18,-32,-4,-3,-3,-3
1523148584603308,4,8,9,10,3,1,-1,0
1523148584603308,2,1,11,26,5,2,-1,1
1523148584616126,-5,-5,-3,-33,-8,-3,0,-2
1523148584616126,-20,2,0,-18,4,-2,-2,-1
1523148584624364,-30,-9,-8,2,-9,-3,-2,-3
1523148584624364,-7,-11,-16,2,-1,-2,-2,-1
1523148584639402,7,9,2,7,0,-1,-3,-2
1523148584639402,0,7,6,17,5,0,2,0
1523148584640908,-20,-11,-1,14,5,0,-1,3
1523148584640908,-1,7,13,-6,2,1,-3,-1
1523148584661964,0,-11,-16,11,-10,0,-1,0
1523148584661964,5,7,2,-2,-4,-1,0,-1
1523148584663467,36,3,3,13,3,5,4,7
1523148584663467,3,4,4,12,7,-2,-1,2
1523148584684523,20,2,27,-3,1,-3,-2,-6
1523148584684523,-3,11,3,-2,10,2,-1,4
1523148584686030,13,-1,-22,-9,-9,-3,0,1
1523148584686030,-16,-5,-19,-3,-2,-2,0,-7
1523148584698600,12,61,22,-28,-3,-4,-10,-19
1523148584698600,4,-31,-8,-9,-11,-4,1,9
1523148584705631,-21,-8,17,-9,0,0,-3,-19
1523148584705631,-6,-2,-30,-10,-5,-5,-3,-15
1523148584721623,-51,12,-12,-3,-11,-10,-13,28
1523148584721623,22,9,-17,7,2,3,5,-10
1523148584723126,5,14,16,-2,4,-3,-1,13
1523148584723126,-14,20,-3,0,-4,-1,-5,-18
1523148584744233,7,-70,-56,-10,-14,-3,6,-6
1523148584744233,67,42,43,-3,3,0,-6,10
1523148584745686,17,-76,-38,-1,-4,-3,2,0
1523148584745686,-53,-2,4,-2,-4,3,6,24
1523148584759223,48,-49,1,14,7,1,0,-11
1523148584759223,-104,11,-9,-7,-2,-2,-4,-13
1523148584760726,7,39,12,16,2,-4,-2,-10
1523148584760726,37,-9,19,17,2,-2,1,9
1523148584781781,-5,0,-4,-8,0,4,6,6
1523148584781781,12,-10,12,19,-5,0,0,5
1523148584783287,-4,4,1,-33,-7,-5,-8,0
1523148584783287,-3,-1,14,33,2,-2,-2,-8
1523148584804343,-21,5,-5,-15,1,1,1,0
1523148584804343,10,-5,-8,-10,-3,-3,-2,-7
1523148584805847,-4,10,15,55,13,8,4,3
1523148584805847,23,-19,-49,-67,-24,-9,-5,2
1523148584826953,-2,18,36,85,17,2,2,0
1523148584826953,-8,-25,-45,-70,-31,-10,-7,-5
1523148584828408,2,-1,-10,-4,-4,-2,-1,-1
1523148584828408,-1,2,8,6,-4,-1,-2,-1
1523148584841943,-2,8,10,17,7,2,0,0
1523148584841943,-8,-11,-4,-2,0,1,1,-4
1523148584843448,-3,2,-9,-36,-1,1,3,4
1523148584843448,16,11,27,46,9,5,1,-1
1523148584864502,-14,-10,-41,-95,-18,-9,-7,-9
1523148584864502,7,-8,-5,34,3,-3,-1,0
1523148584866042,-1,6,4,16,1,1,1,-2
1523148584866042,4,-1,4,4,6,-1,0,-2
1523148584878576,-3,0,6,21,-2,-2,1,1
1523148584878576,-5,-5,2,-20,-2,2,-2,0
1523148584885609,1,3,3,16,0,-2,-3,-3
1523148584885609,5,2,1,-19,-2,-3,-1,2
1523148584902103,-6,-3,-17,-55,-6,-3,-2,-1
1523148584902103,-6,0,11,19,6,1,1,-6
1523148584903607,-3,1,0,16,2,0,-2,0
1523148584903607,6,1,13,17,3,2,1,1
1523148584924162,1,2,-4,6,2,-1,-2,2
1523148584924162,-1,5,-3,-1,-3,-3,-2,-3
1523148584926174,1,-2,2,-1,2,2,-1,-4
1523148584926174,-1,-1,-6,-9,-6,-4,-3,1
1523148584939071,0,5,38,45,5,2,1,-1
1523148584939071,-4,-9,-36,-24,-3,-3,-2,-2
1523148584945718,-1,0,-6,-11,-2,-3,-1,1
1523148584945718,1,-2,-10,-8,-3,-3,-2,-4
1523148584962305,0,5,7,23,5,2,0,1
1523148584962305,2,1,17,15,4,5,3,2
1523148584963265,0,1,4,17,3,0,-3,-1
1523148584963265,-3,-9,-16,-21,-12,-3,-2,-1
1523148584984847,-4,-2,-4,-17,-3,-3,-1,-1
1523148584984847,2,2,12,16,4,2,1,2
1523148584986470,1,0,-9,-10,1,2,-2,2
1523148584986470,-3,0,2,10,0,-1,-1,0
1523148584999223,-1,2,-7,-5,-3,-2,-3,-3
1523148584999223,6,-3,28,30,4,2,2,4
1523148585005996,-4,3,-23,-42,-9,-6,-2,-2
1523148585005996,1,-14,-3,-10,1,2,-2,0
1523148585022275,-3,-3,-7,-6,-4,-5,-2,-2
1523148585022275,0,3,17,31,8,4,0,1
1523148585023384,-2,-1,8,-4,-5,-2,-2,-1
1523148585023384,0,2,1,30,5,1,1,-1
1523148585044438,-3,-3,-23,-33,-7,-3,-2,-3
1523148585044438,-1,-4,-16,-8,-2,-4,-2,-3
1523148585045943,-1,1,7,19,-5,-3,-2,-2
1523148585045943,0,4,11,20,5,1,2,-1
1523148585059084,-4,-1,5,25,1,3,0,0
1523148585059084,-6,-9,-46,-84,-18,-12,-9,-4
1523148585065753,1,-5,8,23,2,2,1,0
1523148585065753,-1,-14,-12,1,-3,-5,-2,-2
1523148585082442,1,7,-4,21,-4,4,3,3
1523148585082442,-2,-1,34,11,3,-1,-1,0
1523148585083544,-5,0,-3,14,6,-6,-4,-2
1523148585083544,5,20,18,-52,-3,10,2,0
1523148585104994,1,-5,-11,-5,5,1,1,0
1523148585104994,0,7,-6,3,-2,-2,-2,-3
1523148585106603,-4,-5,10,-21,-4,-2,0,0
1523148585106603,-3,-8,-4,16,7,-2,-2,-3
1523148585119015,-1,-1,-11,-30,-12,0,-1,-3
1523148585119015,1,-1,3,6,2,2,0,0
1523148585125653,2,14,10,-14,9,1,0,1
1523148585125653,-3,-23,-20,-5,-6,0,1,1
1523148585142330,0,2,10,17,7,-1,3,-1
1523148585142330,0,0,3,1,-4,-4,-3,1
1523148585143704,-4,-10,-17,-2,-9,0,0,0
1523148585143704,0,0,13,26,16,1,-1,-1
1523148585164759,-2,-6,-9,-30,-11,-5,-5,-4
1523148585164759,4,17,15,25,2,4,3,2
1523148585166263,14,-35,17,4,27,4,-1,-2
1523148585166263,2,10,-4,-15,-31,-3,0,1
1523148585178505,-30,-33,-4,14,-13,-3,-2,0
1523148585178505,13,50,27,-9,3,-3,-4,-10
1523148585186929,-35,-76,-62,-9,-6,-9,-7,-11
1523148585186929,6,33,20,-6,16,-2,-3,-4
1523148585201967,53,-10,-11,18,9,5,7,17
1523148585201967,-3,-114,-37,-10,-6,0,-1,-3
1523148585203472,-22,26,-25,-9,-23,-7,2,-26
1523148585203472,-8,-20,-23,-1,0,-5,-7,29
1523148585224526,42,14,-6,-12,2,1,-2,-6
1523148585224526,-21,11,8,12,4,1,1,3
1523148585226031,37,-8,20,12,1,-2,-6,-1
1523148585226031,-26,-14,-11,-19,6,3,3,-21
1523148585238083,-2,11,-54,-8,-26,-6,3,-20
1523148585238083,-10,-9,-30,1,3,-2,-8,20
1523148585247088,-27,26,21,-10,-7,-2,0,2
1523148585247088,7,15,6,-2,4,-2,-3,-7
1523148585262014,-15,7,44,2,15,0,-4,-4
1523148585262014,18,28,2,6,1,1,5,-5
1523148585263129,9,20,-3,-8,-4,2,0,9
1523148585263129,10,-3,-11,-7,-7,-4,-1,0
1523148585285039,-16,4,20,12,7,1,-2,-4
1523148585285039,1,-7,-2,-6,-6,-2,0,3
1523148585286467,7,14,12,6,-1,4,1,10
1523148585286467,-11,-3,23,13,7,2,2,-7
1523148585297951,-8,-14,-8,52,4,-3,-6,1
1523148585297951,-7,4,7,-33,1,-3,-2,-5
1523148585306745,-1,-6,-6,23,1,1,2,-1
1523148585306745,8,12,-3,-8,-5,-3,0,-3
1523148585322314,0,1,15,13,6,-1,-1,8
1523148585322314,-7,-1,-6,-5,-3,-2,-2,-3
1523148585323289,-4,2,-2,13,0,-1,-2,-9
1523148585323289,-2,-15,1,5,-3,2,0,1
1523148585351866,-5,19,-4,-44,-3,-2,-2,2
1523148585351866,10,-45,-1,15,-5,-4,-1,-1
1523148585353369,0,5,6,9,0,0,2,7
1523148585353369,-3,1,-35,-86,-22,-8,-5,0
1523148585357880,0,3,16,1,6,3,1,-5
1523148585357880,-1,13,4,24,5,1,0,-10
1523148585366907,-1,4,15,38,6,3,1,13
1523148585366907,7,-8,3,1,1,-2,-4,-2
1523148585382445,-12,-4,6,11,1,0,-1,0
1523148585382445,0,-17,-6,-20,-4,-2,-2,-4
1523148585383951,-4,18,-13,15,3,1,-1,-6
1523148585383951,-2,3,6,1,-4,-4,-1,-1
1523148585404505,-3,-6,-8,-32,-4,-4,-4,-3
1523148585404505,-6,6,2,23,5,2,4,-1
1523148585406010,6,-1,8,-17,-6,-2,-2,0
1523148585406010,3,-17,11,28,1,0,1,-1
1523148585418041,-9,3,-9,-1,0,-1,1,-1
1523148585418041,2,1,-12,-18,-6,-4,-4,3
1523148585427070,1,2,1,-29,0,2,1,-2
1523148585427070,-10,-1,-1,1,-5,1,1,-5
1523148585441972,0,-10,-2,9,2,-1,-4,1
1523148585441972,1,18,28,103,10,6,5,0
1523148585443610,-3,-16,-38,-38,-13,-7,-5,-5
1523148585443610,-5,4,-3,15,-3,-3,-4,-3
1523148585464842,2,5,18,21,2,3,3,3
1523148585464842,2,12,13,1,7,4,1,1
1523148585466242,6,10,35,59,21,8,5,5
1523148585466242,-4,-3,-4,55,-6,-5,-4,-4
1523148585478202,-3,3,1,32,0,-3,-2,-2
1523148585478202,-1,0,-13,-17,-7,-3,-3,-2
1523148585486726,0,5,16,5,1,0,3,2
1523148585486726,3,4,-4,-26,5,4,1,1
1523148585501771,2,8,15,-14,0,2,0,-3
1523148585501771,-4,-11,1,3,3,0,1,6
1523148585503772,-4,-9,-37,-39,-9,-6,-3,-7
1523148585503772,-3,3,4,-8,-1,-2,-2,-4
1523148585524323,0,-1,17,83,10,1,1,0
1523148585524323,-4,1,-37,-106,-25,-11,-6,-5
1523148585526229,-2,-6,3,1,-2,-2,-3,-1
1523148585526229,2,-2,-8,-10,-2,-3,0,2
1523148585538267,1,4,10,10,8,3,1,0
1523148585538267,-2,1,-2,4,0,-1,-2,-2
1523148585546786,-2,-7,-14,-10,-4,0,-2,-2
1523148585546786,2,5,5,-36,-1,1,1,-1
1523148585561829,-3,-6,-6,-26,-6,-3,-3,0
1523148585561829,-2,1,-8,5,-13,-3,-1,-1
1523148585563331,3,17,8,-24,-10,-4,-4,-2
1523148585563331,5,10,2,27,6,3,-1,2
1523148585584703,-15,-37,-34,-28,-11,-5,-6,-7
1523148585584703,-1,-1,1,-33,-4,-4,0,-2
1523148585586514,5,9,7,30,11,3,2,1
1523148585586514,6,10,9,6,1,3,2,2
1523148585598168,2,2,-4,-19,-7,-3,-1,1
1523148585598168,-7,-1,-2,28,4,-1,-5,-3
1523148585606905,-4,-14,-15,-23,-8,-3,-3,-2
1523148585606905,-5,0,4,27,5,-3,-1,-1
1523148585621843,-2,-5,-19,-52,-5,-1,-1,-3
1523148585621843,-1,-12,8,21,9,5,4,1
1523148585628310,-6,-4,-19,-13,-3,-2,-3,-1
1523148585628310,2,-45,-13,19,0,0,-1,1
1523148585644904,-8,30,13,-29,-5,-5,-4,-5
1523148585644904,-18,-19,-30,20,0,3,6,1
1523148585646010,6,-32,27,19,8,3,2,4
1523148585646010,8,33,-5,-6,-4,-2,0,1
1523148585666919,1,-5,14,2,6,4,2,2
1523148585666919,-21,-45,-67,-5,-11,-8,-5,-9
1523148585668569,-9,18,-14,-5,2,4,6,-1
1523148585668569,-33,51,-7,-10,-18,-13,-10,-3
1523148585681483,-8,-76,-28,52,18,8,9,18
1523148585681483,33,39,31,30,12,0,1,-1
1523148585688120,4,40,17,15,2,-1,3,0
1523148585688120,-27,-32,-18,-7,1,0,-10,-2
1523148585704853,-9,10,-11,-19,-24,-6,3,-24
1523148585704853,-20,62,7,2,8,5,-2,-8
1523148585706168,50,-62,18,8,1,-5,-5,23
1523148585706168,22,12,-13,-3,-1,2,4,4
1523148585727223,-8,22,13,-1,-10,-8,-4,-12
1523148585727223,61,9,34,-2,-6,6,12,36
1523148585728735,-54,-40,-36,-19,-15,-9,-10,-27
1523148585728735,-31,-5,-2,-12,2,-4,-6,-19
1523148585741630,25,21,19,13,14,5,-1,4
1523148585741630,8,-21,24,-6,-4,-4,-2,-3
1523148585748782,-17,-21,-2,-10,-3,-1,-1,15
1523148585748782,11,-19,8,11,6,4,7,7
1523148585764196,-9,7,3,-18,-6,-4,-3,-5
1523148585764196,3,8,0,-15,2,0,-5,-7
1523148585764324,8,39,2,1,-1,0,0,-3
1523148585764324,4,50,18,9,-1,-1,0,-4
1523148585785881,10,-16,-3,15,1,-2,-5,3
1523148585785881,-18,-16,4,-18,0,-2,-3,-7
1523148585786884,-5,7,-29,-72,-16,-5,-3,-3
1523148585786884,7,-8,0,-12,2,1,1,-2
1523148585800418,5,12,-3,23,0,-1,-1,7
1523148585800418,-5,3,9,0,2,0,-1,0
1523148585808941,-9,-2,-14,-56,-13,-7,-3,-9
1523148585808941,13,-6,11,-16,2,1,2,3
1523148585823482,4,-4,4,34,1,4,3,5
1523148585823482,-25,-16,-13,-9,-8,-9,-11,-13
1523148585824483,16,25,39,94,18,4,5,0
1523148585824483,-5,-30,-47,-99,-17,-7,0,-1
1523148585845927,0,4,3,9,4,3,-2,5
1523148585845927,-4,10,9,27,1,-2,6,-3
1523148585846932,1,7,2,11,-1,1,-9,1
1523148585846932,4,-6,15,48,8,3,3,3
1523148585860518,-4,-5,-7,-14,-7,-4,-2,-8
1523148585860518,-4,0,-12,-33,-5,-3,-4,7
1523148585868838,-1,-16,-3,0,-1,-3,-1,-4
1523148585868838,-3,1,13,32,7,0,-3,1
1523148585883527,-2,3,1,-18,-4,0,-5,-5
1523148585883527,5,-1,18,49,8,3,2,1
1523148585884531,-10,27,-28,21,3,-1,-1,-7
1523148585884531,5,-5,7,20,-5,-2,-2,3
1523148585906086,-3,0,-7,6,0,-1,2,0
1523148585906086,-4,-5,-26,-73,-13,-6,-5,-4
1523148585907089,-2,-3,-1,-3,-1,-1,-1,-1
1523148585907089,2,-8,6,39,2,1,-1,-1
1523148585920625,-1,12,4,-11,-1,-4,-4,-1
1523148585920625,0,-10,-15,-61,-11,-1,-2,-2
1523148585936218,6,-1,-4,-1,-5,-1,1,0
1523148585936218,-1,-3,-5,-13,-2,-1,-1,1
1523148585944027,4,10,19,9,2,1,2,6
1523148585944027,-10,-10,-4,41,6,-2,-2,-5
1523148585944190,0,1,3,-13,-4,-1,0,-6
1523148585944190,4,-5,9,27,7,0,0,5
1523148585966247,-2,-5,-15,-70,-16,-5,-3,-1
1523148585966247,5,6,10,20,2,1,0,0
1523148585967249,4,15,21,19,5,3,6,1
1523148585967249,1,12,20,48,6,0,-3,-2
1523148585989310,-12,-48,-54,-49,-4,-5,-3,-7
1523148585989310,1,8,-11,1,-5,-3,1,8
1523148585990311,-6,-34,2,-13,-6,-2,-5,-7
1523148585990311,2,4,5,-7,0,0,1,-2
1523148586003847,1,3,8,0,2,2,-5,-1
1523148586003847,-1,-8,-5,0,1,0,0,-2
1523148586004350,3,10,16,35,5,2,3,3
1523148586004350,-3,-5,-16,-41,-7,-3,-1,-3
1523148586026407,-4,-5,-3,18,-2,-3,0,-1
1523148586026407,0,0,13,52,5,-2,-2,-2
1523148586026909,-3,8,1,-43,-4,-3,-4,1
1523148586026909,-5,-10,-3,-47,-11,-4,-1,-3
1523148586040445,1,3,-27,-9,2,-3,-1,2
1523148586040445,1,7,6,19,3,3,-1,-3
1523148586048467,1,2,6,19,2,1,0,3
1523148586048467,0,-8,13,-20,0,0,1,-1
1523148586063506,2,2,7,11,1,0,1,1
1523148586063506,1,2,-6,-3,2,1,0,-4
1523148586064509,-1,-15,-22,3,6,3,4,6
1523148586064509,-7,-17,-8,4,-6,-6,-10,-7
1523148586086390,1,9,20,14,2,-1,-1,-1
1523148586086390,-1,-4,-1,-4,-2,-1,-2,-1
1523148586086996,2,3,-1,9,6,2,3,-3
1523148586086996,-1,24,-17,-10,-5,-5,-2,-7
1523148586100530,-1,6,22,4,-4,-2,-2,5
1523148586100530,-4,12,13,-7,-2,-3,-2,-6
1523148586108911,-3,-9,-5,-7,-2,-3,-4,-1
1523148586108911,0,6,-1,15,10,5,0,1
1523148586123591,-5,-1,2,-10,-10,-3,-3,-12
1523148586123591,-1,1,-10,-6,-8,-3,-1,-1
1523148586124594,0,6,10,10,-2,-3,-2,0
1523148586124594,3,-20,0,22,20,8,3,4
1523148586146151,2,-17,-22,38,9,4,9,-5
1523148586146151,-12,-23,-14,-11,-9,-3,-5,-3
1523148586146653,4,0,18,20,3,2,0,9
1523148586146653,15,-15,-60,-5,-8,-6,-1,7
1523148586160690,5,43,1,-16,-12,-8,-10,24
1523148586160690,10,6,-2,-7,7,0,5,-23
1523148586169078,-43,19,6,-17,-41,-14,-8,-35
1523148586169078,-5,45,26,1,8,6,-1,2
1523148586183751,-16,-32,-34,14,8,4,1,-7
1523148586183751,18,14,1,-4,-2,1,0,40
1523148586184254,-3,-10,11,-14,12,8,7,-24
1523148586184254,71,44,37,-22,-11,-9,-1,10
1523148586214700,-60,-48,-40,0,-7,-5,4,-20
1523148586214700,-14,6,11,15,7,-1,0,47
1523148586215337,3,-23,1,-2,2,5,17,13
1523148586215337,-37,-16,1,-10,-14,-10,-15,11
1523148586229374,24,-16,-5,-8,8,0,-16,-27
1523148586229374,-4,-3,-17,0,-7,-5,-8,-20
1523148586230446,5,-7,4,-5,4,-4,-5,10
1523148586230446,-21,-16,5,15,-4,0,8,0
1523148586244304,8,26,26,-20,0,0,4,-2
1523148586244304,0,-6,-2,3,3,3,2,-4
1523148586244413,13,16,-7,-14,-2,-2,-5,4
1523148586244413,-13,-12,-8,-4,-5,2,4,-17
1523148586266365,4,4,13,39,7,-1,-1,8
1523148586266365,1,1,12,-26,-7,2,2,-20
1523148586266975,5,-3,-11,-11,2,-3,-8,9
1523148586266975,-3,-8,16,81,13,4,-1,-4
1523148586289534,3,7,0,26,-3,-1,-2,7
1523148586289534,6,-2,21,45,12,5,6,2
1523148586290036,-3,-3,-26,-2,-7,-7,-4,4
1523148586290036,-8,-8,-20,-14,-1,1,-2,-14
1523148586304073,6,14,20,-27,-6,-2,7,4
1523148586304073,-13,-8,6,9,2,-2,-7,-11
1523148586304575,-3,-4,-2,25,0,-3,-4,-8
1523148586304575,9,3,1,-16,-4,-3,-2,-21
1523148586327001,10,8,11,-29,-3,0,4,45
1523148586327001,-5,-13,-11,-23,-3,0,0,1
1523148586327635,5,5,-2,5,6,0,-4,11
1523148586327635,-8,-8,-7,-2,-4,-2,-2,-3
1523148586349595,-12,8,3,-19,-4,-4,-4,-28
1523148586349595,5,7,12,-26,-2,0,-3,-10
1523148586350197,4,-3,-17,-12,0,-2,0,-7
1523148586350197,-5,-1,-2,-22,-6,-3,2,25
1523148586363730,1,0,11,28,3,-1,-9,-10
1523148586363730,-2,5,3,-4,-7,-5,-2,2
1523148586364735,5,-1,17,35,5,5,3,-8
1523148586364735,-5,-8,-23,-40,-7,-3,-2,-5
1523148586386219,0,-2,-5,7,4,1,4,11
1523148586386219,2,-2,1,12,1,0,0,-5
1523148586387515,-1,1,-3,1,1,2,-4,-4
1523148586387515,-3,1,5,37,4,-1,0,-4
1523148586401042,1,-2,-7,-20,-13,-1,-1,0
1523148586401042,-1,5,-5,7,-1,-3,4,-5
1523148586409109,-1,-2,-1,-14,-8,-4,-4,5
1523148586409109,-5,-13,3,28,5,1,-1,-5
1523148586423818,4,4,-3,-48,-6,0,-2,-1
1523148586423818,-2,-4,-6,2,0,-2,-1,-9
1523148586424325,-1,3,1,5,4,0,6,-3
1523148586424325,1,-4,-1,4,1,1,-6,-5
1523148586446775,3,2,-10,-7,-2,-1,0,-5
1523148586446775,0,-2,-2,2,0,0,-2,5
1523148586446881,-1,5,10,-6,0,-1,0,-4
1523148586446881,2,-4,1,14,0,2,7,8
1523148586460919,0,7,1,14,2,-2,-2,3
1523148586460919,-1,0,-2,10,1,-1,-4,-1
1523148586468440,-2,3,-13,-18,-12,-6,-5,1
1523148586468440,-1,4,-4,-27,0,3,2,-20
1523148586491999,0,-10,-8,5,-2,0,-3,-19
1523148586491999,-8,-26,-30,-43,-13,-9,-3,28
1523148586492505,2,3,17,-8,4,1,-1,3
1523148586492505,0,5,4,-2,-3,-6,0,-2
1523148586506037,2,2,-2,-4,-1,0,1,-9
1523148586506037,-10,-11,0,19,4,0,0,-8
1523148586507041,-2,-2,6,17,1,1,-3,-5
1523148586507041,1,2,-6,-25,-3,-2,-1,9
1523148586520958,5,3,16,13,6,3,0,7
1523148586520958,0,6,-6,-6,-4,-3,-4,-4
1523148586528965,-6,-11,-10,2,2,-3,-3,2
1523148586528965,-2,-7,-3,-9,0,6,0,-2
1523148586544262,1,1,1,1,-4,-2,4,9
1523148586544262,0,2,-4,-12,0,-1,-6,-12
1523148586544641,-2,0,-4,-11,-2,-3,-4,-12
1523148586544641,3,-5,15,9,0,-8,-5,10
1523148586566199,-3,0,19,75,12,6,0,1
1523148586566199,-8,-13,-47,-86,-26,-6,1,-9
1523148586567387,2,-16,-13,18,6,4,2,10
1523148586567387,0,10,6,14,-4,-1,-5,-5
1523148586589261,-3,-10,-3,3,2,-5,-3,-2
1523148586589261,6,6,11,61,8,-2,0,-1
1523148586590263,-5,-12,-25,-45,-11,-3,-3,-4
1523148586590263,-4,2,-14,-67,-11,-4,-2,-7
1523148586604177,-2,-2,-1,-9,2,2,-2,-4
1523148586604177,4,11,27,32,10,5,1,2
1523148586604299,-4,-5,-7,-8,-8,-3,-1,-2
1523148586604299,3,8,2,14,3,0,-1,5
1523148586626358,1,5,3,-29,-1,-3,-1,-5
1523148586626358,-4,2,14,19,5,2,0,-3
1523148586626861,1,-8,3,25,8,2,3,4
1523148586626861,-7,12,-44,-23,-28,-11,-3,-3
1523148586649825,0,-5,-10,3,-1,-3,0,3
1523148586649825,15,22,32,5,18,5,-2,-1
1523148586650423,-12,-23,-54,-1,-44,-15,-7,-3
1523148586650423,24,-4,-12,-2,-8,-1,1,-1
1523148586664155,12,1,-8,-2,4,-2,-2,-2
1523148586664155,-34,15,67,34,24,7,1,7
1523148586664459,8,-3,36,-16,7,2,3,-4
1523148586664459,27,-31,-7,-2,16,0,-2,-5
1523148586686524,-16,-32,-69,-25,-40,-19,-11,2
1523148586686524,-13,-23,23,-18,5,3,0,-18
1523148586687021,42,83,17,22,2,-3,-4,25
1523148586687021,5,-17,85,30,25,6,6,12
1523148586709436,-14,-14,-17,5,4,5,0,-45
1523148586709436,10,-15,-27,-6,-17,-8,-1,28
1523148586710682,16,-8,-17,-4,3,-1,-3,11
1523148586710682,13,18,8,14,8,4,6,9
1523148586723568,-27,17,27,-1,9,1,-10,-22
1523148586723568,5,5,-15,-4,-12,-4,5,10
1523148586724571,-2,-11,-12,-10,-6,-1,0,-16
1523148586724571,-25,7,-5,9,3,1,4,-6
1523148586746500,37,13,11,-2,-2,0,4,26
1523148586746500,-4,-29,-26,-16,-13,-4,-4,0
1523148586747132,-18,-2,26,10,16,3,-2,-11
1523148586747132,-11,-6,-16,3,-7,-6,-10,-18
1523148586768950,-15,12,24,3,7,7,12,6
1523148586768950,47,35,-8,7,3,-2,-1,20
1523148586769190,-46,-12,8,-4,2,1,2,-3
1523148586769190,-16,-9,-10,22,-7,-5,-7,-11
1523148586783979,13,2,-6,-26,-12,-7,-3,3
1523148586783979,9,11,1,-1,2,1,0,13
1523148586784230,2,0,7,4,7,3,0,-6
1523148586784230,-5,-8,-24,-38,-18,-6,-1,2
1523148586806085,-13,-10,22,47,15,5,3,12
1523148586806085,-20,-19,-35,-35,-9,-3,-9,-32
1523148586807087,-1,9,11,2,0,-1,0,0
1523148586807087,0,7,10,18,-4,1,2,11
1523148586828644,1,-1,-3,-11,1,-2,-1,-3
1523148586828644,-15,-4,1,3,-5,-2,-5,-24
1523148586829717,7,-9,14,23,0,-2,-2,5
1523148586829717,-2,3,3,16,12,4,0,-4
1523148586843426,1,3,3,-18,-8,1,6,4
1523148586843426,4,-1,-16,-39,-11,-3,-4,-7
1523148586851233,-8,-2,4,24,8,1,0,-1
1523148586851233,-9,-2,-13,-6,0,1,-1,5
1523148586866325,8,-4,2,16,3,-3,-8,4
1523148586866325,-14,-3,5,4,-1,1,3,-12
1523148586867039,3,0,6,13,-7,-1,-7,31
1523148586867039,-10,-1,-10,-38,-10,-3,0,-18
1523148586888594,15,3,3,-2,0,-2,3,13
1523148586888594,-5,-2,2,21,-2,-2,-4,-5
1523148586889597,0,1,1,39,12,6,6,-32
1523148586889597,-5,-11,-22,13,-6,-5,-8,13
1523148586903633,-5,-1,-5,4,1,-2,-4,6
1523148586903633,2,0,12,43,6,2,2,-1
1523148586904637,-8,0,-26,-79,-7,-1,3,-16
1523148586904637,1,-1,8,17,2,-1,-3,2
1523148586926194,-1,3,-6,12,2,-1,0,-5
1523148586926194,1,-10,-25,33,5,0,-3,2
1523148586926695,5,4,8,20,0,1,0,6
1523148586926695,-4,-4,-8,-60,-9,-5,-1,-4
1523148586949254,-6,0,-1,-15,-2,-2,-4,-1
1523148586949254,6,17,25,49,9,3,5,0
1523148586950257,-4,-22,-13,-16,-6,-3,-3,7
1523148586950257,-3,2,-6,-5,-4,-4,0,-7
1523148586963822,-4,6,16,43,10,3,0,-9
1523148586963822,-2,-8,-21,-38,-9,-5,0,4
1523148586964296,1,0,-1,0,-3,0,-4,-8
1523148586964296,1,5,35,52,11,4,1,-3
1523148586986353,5,-2,11,66,1,2,2,7
1523148586986353,-5,-7,-33,-81,-17,-8,-10,-4
1523148586986857,-1,-2,-11,18,-1,-1,3,-3
1523148586986857,-2,-1,-13,-58,-6,-1,0,1
1523148587009416,-2,6,16,15,8,5,0,-2
1523148587009416,3,-2,-3,-72,-13,-5,3,1
1523148587010716,-5,4,-5,-25,-7,-5,-3,-8
1523148587010716,-2,-7,4,58,6,1,0,5
1523148587023454,-3,3,5,-33,-7,0,6,-18
1523148587023454,2,1,8,-6,2,-1,-2,10
1523148587024456,-3,-3,-5,-10,-11,-6,-7,-3
1523148587024456,0,11,2,19,1,-3,0,15
1523148587046761,-7,-14,-14,-20,-8,-6,-5,-7
1523148587046761,-2,2,8,51,10,4,5,-14
1523148587047266,3,2,-1,7,2,2,-4,10
1523148587047266,2,3,1,1,3,1,-1,3
1523148587069822,-3,-14,-18,-19,-3,-3,-3,-5
1523148587069822,4,8,27,39,1,-2,0,9
1523148587070285,-11,-17,-39,-83,-20,-8,-5,-3
1523148587070285,-2,5,3,7,4,4,1,-14
1523148587084245,-15,-4,-1,12,0,1,-3,4
1523148587084245,11,-18,-15,36,3,1,1,-4
1523148587084375,8,2,16,15,4,3,6,5
1523148587084375,-2,13,1,-12,-6,-4,-3,-2
1523148587106227,-3,0,-21,-24,-5,-3,-4,6
1523148587106227,-4,-2,4,-25,-5,-1,0,-5
1523148587107378,1,17,10,9,6,0,1,-3
1523148587107378,5,-5,12,6,4,2,2,-1
1523148587129288,1,5,4,13,5,0,-3,3
1523148587129288,-7,-6,-20,7,-9,-4,-3,1
1523148587130291,2,-3,-10,-35,-6,-4,-2,0
1523148587130291,-2,8,14,10,2,2,0,-4
1523148587143827,-3,0,9,-17,2,-1,0,4
1523148587143827,-4,-11,-11,9,-6,-2,2,-1
1523148587144328,-16,-21,-16,28,15,5,2,0
1523148587144328,-2,10,7,2,-6,-1,2,-1
1523148587166760,-3,-8,-36,-16,-10,-3,-4,2
1523148587166760,-21,15,17,14,22,3,-6,-9
1523148587166760,19,13,7,19,-16,-4,0,-3
1523148587166760,0,-11,-9,-6,-1,-1,2,-9
1523148587189326,-50,17,-13,-7,2,-1,-8,10
1523148587189326,-13,-72,-33,-20,-12,-6,-4,-6
1523148587190327,-5,-24,31,9,16,3,-1,5
1523148587190327,-4,23,-17,-13,-15,-6,2,-4
1523148587203239,3,-13,17,14,12,4,2,0
1523148587203239,29,17,-4,0,8,-3,-3,0
1523148587211264,-22,12,23,6,8,2,-1,-2
1523148587211264,3,-39,-46,-5,-43,-10,-1,1
1523148587226256,14,3,8,-8,-9,-2,4,26
1523148587226256,-7,6,2,0,0,-1,-4,2
1523148587226885,7,17,32,9,4,-1,5,-12
1523148587226885,2,-5,-13,2,17,2,-8,7
1523148587249010,11,5,-7,-10,-8,-4,-5,-11
1523148587249010,-12,9,13,4,-4,1,1,-7
1523148587249441,-3,6,-6,-6,-1,-2,-2,6
1523148587249441,-3,-1,11,12,8,3,0,-12
1523148587263501,2,-9,2,2,-6,-3,-2,-10
1523148587263501,-12,5,10,-37,1,4,3,11
1523148587270956,9,10,-14,20,-3,-3,-1,-7
1523148587270956,-22,-16,-24,-71,-11,-6,-6,3
1523148587286497,18,0,3,28,3,1,2,-15
1523148587286497,-6,17,17,5,1,1,0,-8
1523148587287001,9,-1,-20,11,-10,-4,-3,-21
1523148587287001,10,1,17,20,8,1,0,73
1523148587308882,-8,-6,3,-38,-4,-2,1,-7
1523148587308882,9,12,-5,-28,-1,2,5,2
1523148587309514,-7,-4,-8,-8,-3,-3,-1,1
1523148587309514,0,-8,17,24,14,5,-1,-26
1523148587324553,1,3,12,12,-2,-1,0,-6
1523148587324553,10,-9,-16,4,-7,-5,0,12
1523148587331464,0,-1,-3,-16,0,1,1,-2
1523148587331464,-7,2,-4,8,1,-3,-5,-19
1523148587346537,10,2,-2,-11,2,1,3,12
1523148587346537,2,0,3,-2,-9,-4,-8,-15
1523148587347000,-7,-1,4,14,0,0,-1,7
1523148587347000,8,11,4,-50,-2,0,0,-2
1523148587368820,-1,-24,-3,3,-3,-2,-1,1
1523148587368820,-6,6,5,18,10,3,4,-1
1523148587369325,1,4,9,31,0,0,0,1
1523148587369325,7,-5,17,26,5,0,3,9
1523148587383251,7,0,-15,-40,-11,-5,-9,-14
1523148587383251,-1,-2,-1,22,3,-1,2,1
1523148587391694,3,5,-3,-10,1,3,-3,-4
1523148587391694,-14,7,6,8,-3,-2,0,-2
1523148587405919,-16,-4,9,12,1,1,-1,3
1523148587405919,7,-14,7,33,6,3,1,-15
1523148587407453,5,-1,-20,-7,-1,-2,-3,6
1523148587407453,-30,-2,-3,-8,-2,-2,-6,3
1523148587429240,-2,2,2,26,-1,0,4,1
1523148587429240,3,0,-23,-49,-16,-8,-3,-1
1523148587429484,-7,-5,-1,12,5,1,0,-19
1523148587429484,10,1,8,-6,0,1,1,-5
1523148587443559,4,11,9,-10,-4,-2,-2,0
1523148587443559,-2,0,1,34,0,-3,-2,4
1523148587451419,1,-5,-7,-52,-7,-3,-3,6
1523148587451419,8,9,15,54,10,1,1,-2
1523148587466323,1,-5,-15,-49,-13,-3,-3,-4
1523148587466323,10,-2,6,0,4,2,1,2
1523148587467082,-13,0,-7,-10,-9,-2,-1,-1
1523148587467082,10,-1,7,64,8,2,-3,1
1523148587489096,-2,4,-12,-31,-1,-1,0,-4
1523148587489096,-2,6,3,-10,-1,-1,-2,1
1523148587490105,4,-10,0,4,-2,-3,-1,10
1523148587490105,4,7,-4,-19,-2,0,-2,-10
1523148587511895,-3,-19,-14,22,2,-2,-1,-2
1523148587511895,-3,-17,-17,-29,-5,-2,-4,5
1523148587512658,1,9,3,-15,-1,-2,0,1
1523148587512658,1,-4,17,-4,-4,0,1,-5
1523148587526717,2,9,5,8,2,1,-1,0
1523148587526717,2,13,1,11,4,1,2,0
1523148587526717,-9,-9,-2,18,1,1,1,0
1523148587526717,-4,-14,-9,-15,-2,-5,-3,-8
1523148587549821,2,6,22,59,7,0,0,-2
1523148587549821,-6,-10,-21,-1,-7,-3,-1,-1
1523148587550261,6,18,15,25,5,1,0,4
1523148587550261,4,3,-2,20,5,0,-1,6
1523148587571637,-4,2,-5,-39,-5,0,-1,-4
1523148587571637,0,6,18,-8,-4,-3,-4,-9
1523148587572603,0,1,-8,-31,-3,0,0,-1
1523148587572603,-3,-10,-21,-8,2,-1,0,4
1523148587586544,10,15,6,-14,-5,-2,-2,3
1523148587586544,3,15,35,63,9,3,2,5
1523148587586639,-9,-18,-22,-37,-6,-5,-4,-11
1523148587586639,-13,-4,8,-8,2,1,-2,-16
1523148587610003,4,7,9,12,1,0,2,7
1523148587610003,3,1,1,-10,-6,-4,-8,3
1523148587610207,5,11,26,59,12,3,0,6
1523148587610207,-8,-21,-26,14,-9,0,-2,-12
1523148587639864,2,-7,-9,18,4,1,0,-2
1523148587639864,0,3,-2,-19,-1,-1,0,-1
1523148587640284,2,-2,20,22,2,1,2,1
1523148587640284,-1,-9,-17,-69,-12,-4,-1,0
1523148587646687,-5,-6,-18,-39,-4,-2,-4,-6
1523148587646687,3,-5,-3,5,1,-1,2,4
1523148587646687,-4,-5,-5,-5,-6,-5,-6,3
1523148587646687,6,7,-4,-2,-1,0,3,0
1523148587670002,0,10,28,25,0,-1,-1,-4
1523148587670002,-6,-3,2,-13,-10,-5,-2,-5
1523148587670002,-1,-3,-9,-9,-1,-1,-3,2
1523148587670002,0,8,4,0,2,1,-1,1
1523148587692336,-1,-3,11,-1,16,3,1,-3
1523148587692336,1,-4,-29,-7,-13,-3,0,-5
1523148587692566,-41,-12,1,-11,-9,-3,-1,3
1523148587692566,-6,-1,19,17,4,1,4,3
1523148587706676,20,4,-7,-13,1,2,-3,-6
1523148587706676,-37,7,11,5,15,5,5,-6
1523148587706676,19,9,21,15,7,0,-4,-8
1523148587706676,-27,-30,-40,-22,-10,-5,-1,28
1523148587729619,-10,-11,-3,-3,-8,-1,-1,-1
1523148587729619,-7,30,7,3,7,7,11,1
1523148587730244,57,12,4,-8,-8,-5,-9,-5
1523148587730244,75,34,-2,-10,4,-4,-9,-16
1523148587752115,-26,-20,-6,5,3,0,0,-3
1523148587752115,3,-7,-26,-3,3,-4,-7,10
1523148587752723,-26,-23,-20,-11,-14,-6,-1,-10
1523148587752723,31,12,11,3,-3,0,3,0
1523148587766714,-8,12,-16,12,-2,-1,2,3
1523148587766714,27,-9,29,4,1,5,0,6
1523148587766714,-15,-3,-3,-5,1,-2,-1,-4
1523148587766714,-2,-6,4,1,-5,-3,-3,4
1523148587788779,-2,0,-1,-4,-8,-2,1,-2
1523148587788779,-15,-8,13,6,6,1,-2,-4
1523148587789278,3,-6,-10,6,1,0,1,10
1523148587789278,-19,1,5,-10,-8,-1,2,-2
1523148587810758,-10,-6,-10,-17,-1,-4,-3,4
1523148587810758,9,4,16,86,12,4,-1,-4
1523148587819135,2,-14,-69,-59,-31,-13,-5,-7
1523148587819135,-27,4,11,34,5,4,3,5
1523148587826249,0,-12,6,27,7,3,-1,8
1523148587826249,3,-4,-8,-3,-8,-6,-10,-10
1523148587826751,-4,2,15,41,12,6,4,3
1523148587826751,-24,-4,1,-5,10,1,0,-10
1523148587849507,0,-5,-37,-91,-34,-10,-5,-4
1523148587849507,7,-8,-14,-13,-6,-3,3,7
1523148587849811,2,10,21,30,15,4,5,1
1523148587849811,-12,-9,-25,-39,-11,-3,-5,-14
1523148587870930,22,10,20,68,14,4,2,9
1523148587870930,-1,-13,-21,-68,-11,-6,-3,-15
1523148587879224,-19,-1,-2,-24,-6,-2,-6,-2
1523148587879224,10,-8,26,56,14,3,1,-7
1523148587886371,1,-2,-6,6,-1,-2,0,2
1523148587886371,-10,0,-21,-56,-11,-6,-4,-5
1523148587886974,2,-8,-1,0,8,3,11,-11
1523148587886974,1,5,12,19,-1,-2,-13,13
1523148587909475,1,2,-12,29,-2,1,-2,-12
1523148587909475,-1,-15,-23,-15,-5,-3,-3,6
1523148587910673,1,6,10,1,3,2,3,-3
1523148587910673,3,12,9,22,-4,1,1,-4
1523148587932372,2,-18,13,14,10,2,2,4
1523148587932372,-1,4,2,38,3,-1,-2,-1
1523148587932537,-10,-14,-68,-88,-40,-11,-8,0
1523148587932537,-2,6,8,110,8,0,1,-11
1523148587946821,-6,7,6,-37,-11,-4,-3,9
1523148587946821,10,7,13,21,3,1,3,7
1523148587946821,-14,-10,15,9,11,6,-1,-11
1523148587946821,17,-3,-19,-39,-4,-5,-1,1
1523148587969492,-6,9,4,24,-2,-1,2,26
1523148587969492,-13,-5,11,9,6,2,1,-9
1523148587970098,6,13,21,64,5,6,2,1
1523148587970098,33,-8,-33,-93,-8,-10,-8,-13
1523148587992046,-7,-4,14,28,10,3,-1,-20
1523148587992046,-19,7,-3,-16,-4,-1,-3,-2
1523148587992659,11,12,18,-5,3,-1,0,14
1523148587992659,7,-3,3,56,11,2,4,8
1523148588006569,14,5,-11,-39,-4,-2,1,-10
1523148588006569,-6,1,9,27,-10,-3,-2,5
1523148588007199,7,-14,-7,12,3,1,2,-1
1523148588007199,-18,-3,-14,-53,-1,-3,-3,6
1523148588028704,6,-2,1,-20,-5,-2,-4,-1
1523148588028704,4,-1,-2,31,4,1,3,-7
1523148588029706,1,11,27,58,8,2,-1,5
1523148588029706,-11,-11,-15,-22,-17,-1,2,-2
1523148588052424,-9,-6,-7,38,6,1,-1,-10
1523148588052424,9,2,5,-14,-6,-1,1,10
1523148588052526,-1,2,9,-20,-2,-3,-4,-6
1523148588052526,-9,-1,3,21,7,3,2,7
1523148588066562,-3,-11,-36,-81,-17,-6,-2,-9
1523148588066562,3,-1,-7,3,7,1,-1,-23
1523148588067065,3,10,1,37,1,-5,-5,29
1523148588067065,-11,4,12,7,-6,1,3,-3
1523148588089175,8,8,18,51,12,4,4,-3
1523148588089175,5,8,1,-24,-5,-4,-4,0
1523148588090177,-11,-10,-24,25,6,-1,-2,-5
1523148588090177,-7,7,12,-38,-11,-2,0,-4
1523148588112127,5,-5,1,15,0,-4,-3,4
1523148588112127,2,-1,1,6,0,2,1,8
1523148588112739,2,-9,-1,-16,-3,-1,1,-5
1523148588112739,-7,-16,-13,13,-1,0,1,4
1523148588125520,1,-1,6,21,8,-2,-4,-5
1523148588125520,0,-2,-3,1,1,-2,-2,2
1523148588134136,-10,-1,8,-6,-2,-1,-2,-3
1523148588134136,1,1,-8,-14,3,-3,-3,-7
1523148588157290,-5,-2,8,-6,-18,-6,-2,1
1523148588157290,4,-14,-23,7,8,-1,-1,3
1523148588157794,13,2,11,-14,7,1,0,-3
1523148588157794,-14,11,12,-1,2,1,-4,2
1523148588171833,-1,6,27,0,10,4,2,-2
1523148588171833,-25,-32,-28,0,-20,-8,-5,0
1523148588173155,23,14,-39,-18,-23,-7,0,-2
1523148588173155,23,-31,-6,-9,-14,-5,3,5
1523148588185769,-7,-7,-50,22,4,5,0,22
1523148588185769,-28,6,41,-12,14,0,-7,-22
1523148588194083,18,-17,20,3,3,-2,-4,13
1523148588194083,-35,44,-5,-4,-7,0,10,7
1523148588208993,17,13,31,4,3,0,-7,-15
1523148588208993,-42,-9,-4,-5,-9,-2,-2,25
1523148588209433,-12,-17,-9,-7,-1,-1,-1,7
1523148588209433,-2,9,15,7,4,1,1,-10
1523148588232173,2,-9,-13,-3,15,3,3,0
1523148588232173,6,25,21,-12,-10,-1,0,-11
1523148588232494,-2,-15,-9,-1,-4,-2,-1,-12
1523148588232494,-3,-7,-1,2,-4,-1,-3,0
1523148588245924,-8,2,11,34,18,0,-1,-1
1523148588245924,36,3,-8,-62,-18,-2,0,2
1523148588253549,-1,16,-3,-14,-4,2,3,7
1523148588253549,-15,-21,-8,11,6,-1,-7,-12
1523148588268878,-11,-12,3,3,-8,-4,-4,-12
1523148588268878,-19,8,2,21,5,4,4,-8
1523148588269541,7,3,15,8,-3,1,0,5
1523148588269541,-30,-10,-52,-76,-11,-6,-11,-20
1523148588292368,12,15,19,43,3,1,5,0
1523148588292368,16,-16,-17,14,-1,3,3,21
1523148588292830,3,9,18,88,21,5,5,1
1523148588292830,18,4,2,-37,-20,0,1,8
1523148588305863,-25,-13,-34,-64,-22,-12,-8,-13
1523148588305863,24,4,-11,40,11,-1,2,0
1523148588313794,4,0,-6,-7,-2,0,-4,-6
1523148588313794,-3,4,19,48,10,0,-3,16
1523148588329834,-28,-3,8,-4,-5,-3,-4,-6
1523148588329834,1,1,-7,-25,1,3,0,-7
1523148588330300,-1,7,3,-14,2,-1,0,1
1523148588330300,2,-5,1,5,0,0,-1,-10
1523148588352359,-6,-5,-5,-16,-2,-1,2,-26
1523148588352359,15,3,8,1,0,1,-5,18
1523148588352862,-20,-1,0,20,5,1,1,7
1523148588352862,10,-2,-1,4,3,-3,-3,-5
1523148588365396,7,1,5,-6,-3,0,4,10
1523148588365396,-1,-14,0,-2,-1,-3,-4,-11
1523148588373916,-3,-1,-3,-12,-2,-1,-1,-6
1523148588373916,8,3,17,17,3,0,0,-2
1523148588389710,8,-2,-5,-11,-4,0,-2,10
1523148588389710,4,7,17,36,3,-1,3,-5
1523148588389958,-10,-7,-18,-45,-10,-6,-5,0
1523148588389958,-4,1,5,-33,1,1,2,-6
1523148588412306,5,1,11,3,-4,-2,-4,2
1523148588412306,5,-1,-5,28,4,-1,1,8
1523148588412810,-11,-10,-18,-68,-10,-4,-4,-9
1523148588412810,6,0,-2,26,2,0,0,5
1523148588434902,10,4,0,4,4,5,5,6
1523148588434902,-11,-5,-6,-23,-3,-3,-4,-9
1523148588434902,-1,3,14,20,0,-2,-1,-10
1523148588434902,1,-3,4,63,7,-2,-2,6
1523148588449805,7,-1,-9,-14,-4,-2,-3,5
1523148588449805,3,-1,-1,5,-1,-2,-2,-16
1523148588449907,-3,6,16,27,3,1,0,3
1523148588449907,-7,-8,-14,-59,-8,-3,-3,-8
1523148588472051,4,3,19,68,11,4,3,3
1523148588472051,3,-2,-8,-45,-5,-1,0,-7
1523148588473187,-2,-5,-21,9,1,-2,-2,7
1523148588473187,6,-4,-1,24,0,-2,-4,-2
1523148588494846,0,9,11,-3,-4,-2,-2,3
1523148588494846,-1,-6,8,5,-1,0,-1,0
1523148588495026,-5,-11,-11,-26,-3,-3,-1,-7
1523148588495026,1,-4,-7,-23,-1,-1,-1,1
1523148588508926,-4,0,0,5,1,1,1,0
1523148588508926,15,-1,10,38,6,1,0,5
1523148588509565,-4,3,-10,-28,-2,-1,1,-5
1523148588509565,-1,0,1,1,-1,-1,-1,2
1523148588532339,2,1,-11,-22,-12,-5,-5,-4
1523148588532339,2,8,43,86,20,6,5,6
1523148588532627,-13,-28,-79,-64,-48,-16,-10,-5
1523148588532627,5,6,1,39,-2,-2,-1,-4
1523148588554183,-11,-10,-10,14,2,0,1,5
1523148588554183,-4,-2,-7,10,-1,-1,-3,-4
1523148588556188,3,10,26,22,12,6,1,1
1523148588556188,1,0,-2,-20,-3,-1,-1,1
1523148588569102,-2,-6,-20,-37,-11,-3,-1,-3
1523148588569102,-5,-2,-9,-39,-5,-4,-4,8
1523148588569223,1,4,9,7,9,3,2,-4
1523148588569223,0,5,-3,-42,-9,-3,-2,-3
1523148588592362,1,-3,6,21,7,2,0,0
1523148588592362,0,2,-12,-36,-7,-2,-1,0
1523148588592832,3,17,21,7,3,1,-1,-3
1523148588592832,-3,-12,8,48,10,3,1,1
1523148588614913,-4,-4,-11,-31,-6,-5,-4,-6
1523148588614913,-3,0,-2,-19,-7,-3,-2,-3
1523148588614913,1,-1,6,33,10,2,-1,1
1523148588614913,-1,5,-11,5,1,0,0,-2
1523148588629134,0,-11,-10,-4,-5,0,-2,-2
1523148588629134,-5,-1,-11,-20,-5,-3,-1,-6
1523148588629430,-3,-4,-11,5,-7,-4,-1,1
1523148588629430,-2,1,10,-6,3,0,-2,1
1523148588652388,2,3,1,-17,-12,-2,0,0
1523148588652388,-4,3,-4,7,-4,-2,-1,-2
1523148588653493,-4,-16,23,25,21,5,2,0
1523148588653493,-19,-23,-25,-12,-20,-7,-2,-3
1523148588673937,-3,-2,-5,6,3,-1,-2,-2
1523148588673937,0,17,23,-15,2,-3,-5,-4
1523148588682069,-31,-13,5,-3,-3,2,3,-2
1523148588682069,18,33,0,3,11,6,3,7
1523148588688086,12,9,23,1,-12,0,1,0
1523148588688086,2,-10,-35,-26,-11,-6,-3,-8
1523148588697110,35,7,6,4,7,1,2,7
1523148588697110,-9,-6,3,-4,-10,-1,-3,-2
1523148588712651,-10,1,-35,-14,3,-2,-2,-2
1523148588712651,0,12,20,6,-1,0,0,0
1523148588713654,7,-3,14,5,0,2,-1,-6
1523148588713654,13,2,-1,9,-2,0,3,6
1523148588734862,3,4,16,3,5,0,-1,-2
1523148588734862,4,-13,-10,2,2,1,-1,0
1523148588736213,-12,2,-9,3,0,-5,-5,-8
1523148588736213,-2,6,22,2,6,5,8,4
1523148588748537,-20,-8,-8,2,-1,8,3,4
1523148588748537,-14,-10,-6,13,1,0,0,-4
1523148588756768,-6,-1,-1,-16,-12,-6,-6,-4
1523148588756768,14,12,-1,-32,-5,-20,-5,2
1523148588771807,-4,-24,-10,-17,-1,11,1,-10
1523148588771807,-3,2,12,45,6,3,3,4
1523148588773312,3,7,-15,-68,-9,-2,-2,0
1523148588773312,-1,-3,7,64,9,4,-1,0
1523148588794366,4,6,-1,2,2,-10,-4,2
1523148588794366,2,-6,-4,18,-7,-4,0,2
1523148588796558,-7,-4,-17,-72,-11,-1,0,0
1523148588796558,-7,-7,-18,-25,-7,-4,-3,-7
1523148588807904,2,3,-4,-9,3,0,0,1
1523148588807904,0,-3,0,10,0,4,1,2
1523148588816929,1,1,4,49,9,1,2,-5
1523148588816929,-2,-6,1,-14,-1,1,-5,12
1523148588831967,10,4,-1,-7,-3,-8,1,4
1523148588831967,13,0,-4,-26,-2,1,-3,-2
1523148588833472,-41,-7,7,38,4,0,2,2
1523148588833472,-12,-4,-4,-22,-3,-1,-8,-31
1523148588854528,3,-2,10,32,3,-1,-1,2
1523148588854528,-6,3,21,54,9,0,2,-1
1523148588856033,17,6,-11,-50,-15,-6,-2,6
1523148588856033,-6,-5,2,9,4,1,0,0
1523148588868064,-4,8,5,30,3,0,-1,-8
1523148588868064,9,-3,-13,-82,-12,-4,-3,6
1523148588877090,3,-2,-7,30,1,-2,-5,-1
1523148588877090,-6,1,11,10,7,1,1,0
1523148588892355,3,-6,-12,-17,-10,-6,-4,-5
1523148588892355,-3,4,-4,10,4,1,1,1
1523148588893631,2,-2,0,11,2,1,1,-3
1523148588893631,7,9,17,42,6,2,-1,9
1523148588914688,2,-12,-16,-72,-18,-7,-3,12
1523148588914688,-19,-20,-33,-39,-11,-6,-8,-8
1523148588916191,-7,-1,8,17,2,3,12,-17
1523148588916191,11,1,-3,12,4,0,-13,14
1523148588928363,-2,6,10,27,2,-2,-2,-6
1523148588928363,1,-10,-6,-26,-5,-4,0,7
1523148588937249,9,7,-3,8,2,-1,0,-3
1523148588937249,-1,-5,7,-35,-5,-1,4,-7
1523148588952323,16,11,30,94,17,5,4,4
1523148588952323,2,-28,-63,-90,-26,-10,-7,-7
1523148588953290,-36,12,20,73,10,2,-3,-5
1523148588953290,-3,-18,-39,-62,-29,-7,0,-5
1523148588974847,-2,3,6,45,6,-2,-4,3
1523148588974847,-12,5,34,69,13,5,6,-1
1523148588975851,15,-2,-11,-10,-2,-1,-6,7
1523148588975851,-4,-2,5,-1,3,-1,1,-1
1523148588988385,-6,5,-6,-35,-3,1,0,-10
1523148588988385,-3,5,10,5,-1,1,2,3
1523148588996908,5,-4,-2,-24,-6,-3,-3,6
1523148588996908,-6,-9,-9,-15,0,-3,-3,-5
1523148589012330,-5,-10,-7,-8,-2,-1,0,-3
1523148589012330,2,14,7,0,4,1,1,-6
1523148589013452,9,-1,-5,-30,-6,-2,-2,10
1523148589013452,9,2,8,28,4,3,3,0
1523148589034885,-5,0,6,-29,-4,-1,-1,-5
1523148589034885,-16,-7,-6,11,-1,-1,-4,-8
1523148589036011,12,4,6,43,4,1,1,6
1523148589036011,-10,-14,-27,-58,-9,-3,-3,-8
1523148589048043,-3,-2,-5,-14,-2,-3,-3,1
1523148589048043,8,7,25,33,8,3,0,2
1523148589057067,2,-7,3,23,2,0,0,-2
1523148589057067,2,11,13,12,-1,1,1,1
1523148589071964,-2,-8,-2,5,-2,1,0,3
1523148589071964,-1,-2,-21,-16,-5,-4,-3,-4
1523148589073611,-2,4,5,-26,-5,-2,-2,-4
1523148589073611,0,-3,-1,36,6,0,1,2
1523148589094735,-3,-3,-5,-19,3,2,0,-4
1523148589094735,-2,6,2,35,2,-3,-3,-1
1523148589096377,1,-5,2,-11,-3,-3,-4,-2
1523148589096377,-2,5,7,9,1,2,2,-2
1523148589108399,3,-2,0,7,1,-1,0,1
1523148589108399,1,-1,15,33,7,2,1,3
1523148589116760,4,-3,-9,10,0,-1,-4,-5
1523148589116760,-1,-2,-4,-14,-6,-3,-2,-2
1523148589132329,-1,8,7,5,2,0,0,-2
1523148589132329,6,3,13,11,7,1,2,0
1523148589133309,-4,-1,-20,-16,-4,-3,-2,-4
1523148589133309,-5,-9,0,3,3,1,-1,-2
1523148589154363,0,5,-6,2,-1,-1,-1,0
1523148589154363,-3,3,18,-11,-5,-3,-3,1
1523148589155868,0,0,-9,27,-6,-3,-1,-1
1523148589155868,1,-2,-23,23,8,3,4,2
1523148589168301,-3,1,0,5,2,-2,-3,-3
1523148589168301,-4,-38,0,11,4,0,1,1
1523148589177302,4,16,7,-12,2,3,0,0
1523148589177302,-15,-22,-14,18,17,6,5,0
1523148589192372,-29,4,25,3,-8,-4,-5,-9
1523148589192372,70,33,-28,-23,9,4,3,4
1523148589193346,-16,8,22,-17,-16,-6,-5,2
1523148589193346,-8,-19,22,-4,-4,-1,1,-2
1523148589214902,-17,-11,-53,-9,0,0,3,-5
1523148589214902,-1,33,-3,-2,-2,-6,-13,-14
1523148589216475,-7,-47,28,18,12,6,1,7
1523148589216475,42,8,-23,-6,-6,-3,0,2
1523148589236999,-58,-34,-69,-3,-3,-7,-7,-19
1523148589236999,-31,8,-9,-15,-12,-4,7,-5
1523148589239044,-12,3,5,0,-1,1,-6,-24
1523148589239044,-6,20,30,14,6,-1,-9,26
1523148589251500,21,9,5,-10,-4,-5,-4,-18
1523148589251500,13,-6,-1,-4,0,-2,5,45
1523148589265537,-40,4,0,-5,-1,2,3,-5
1523148589265537,-7,-7,13,3,1,-1,2,-15
1523148589274937,31,8,17,1,-2,0,1,2
1523148589274937,-11,-9,-2,-8,0,5,-5,-12
1523148589276067,32,-2,4,18,3,-3,3,5
1523148589276067,-7,7,-15,-34,-11,-7,-7,-4
1523148589288100,3,-3,8,9,-2,0,-3,9
1523148589288100,-13,-2,23,-1,-1,-1,1,-8
1523148589297121,25,-4,-32,49,8,0,-1,6
1523148589297121,-14,-1,-24,-1,-5,-3,-1,-14
1523148589311159,10,-3,0,-47,-11,-7,-5,5
1523148589311159,-14,-9,7,32,5,0,-2,-4
1523148589318177,7,4,7,-29,-5,-3,-1,-1
1523148589318177,6,6,28,56,5,3,4,5
1523148589334722,5,-5,27,44,8,1,1,3
1523148589334722,-8,-7,-19,-23,-8,-2,-5,-4
1523148589335725,6,14,33,12,12,4,4,6
1523148589335725,-8,-4,-32,29,-10,-6,-5,-9
1523148589348507,7,2,15,47,8,5,5,10
1523148589348507,0,-6,-9,11,-4,-2,1,-4
1523148589356782,0,1,8,18,5,0,0,-2
1523148589356782,2,2,14,-16,2,0,-1,4
1523148589371317,2,1,-8,-29,-8,-2,-2,4
1523148589371317,1,4,1,12,1,-1,-2,-7
1523148589377836,0,-11,-23,-18,-6,-7,-3,9
1523148589377836,-3,-6,-19,-37,-8,-1,-2,-3
1523148589394783,2,-1,-5,-14,-9,-8,-2,-1
1523148589394783,-9,-1,-8,-50,-5,3,1,-6
1523148589396462,-10,-4,0,-4,-2,-2,-4,-11
1523148589396462,0,-3,-15,-52,-15,-6,-2,-4
1523148589416940,-3,0,6,11,6,1,-3,12
1523148589416940,3,-5,3,12,-1,-1,-2,0
1523148589418444,-2,1,-7,1,0,1,1,-6
1523148589418444,1,-1,20,53,4,1,2,2
1523148589431376,3,10,11,-8,4,3,2,-7
1523148589431376,-5,-1,-7,-29,-7,-4,-6,-13
1523148589438499,9,-1,3,5,-2,0,-3,13
1523148589438499,-4,-9,9,30,0,-1,-2,-4
1523148589454040,-11,3,-10,-63,-9,-3,-3,-2
1523148589454040,-2,-8,-1,20,1,-4,-2,-2
1523148589456045,1,5,1,-23,-2,-3,-1,-6
1523148589456045,3,9,9,-32,2,1,-1,-1
1523148589476600,-1,-1,0,24,0,-2,0,8
1523148589476600,1,4,11,10,0,1,0,9
1523148589478103,3,-8,-15,-29,-6,-5,-5,-1
1523148589478103,-9,11,13,24,2,2,-2,-4
1523148589491639,6,-10,-12,2,-2,-1,-2,0
1523148589491639,-12,-2,-18,-26,-4,-4,-3,-15
1523148589493143,18,8,19,50,8,2,1,12
1523148589493143,7,1,-16,-60,-11,-2,3,0
1523148589514832,-9,-10,-1,21,1,0,-3,-1
1523148589514832,-13,-3,0,21,1,-2,-2,-16
1523148589516506,-7,-7,-19,-3,-7,-2,-2,-3
1523148589516506,9,3,9,11,1,-2,-1,4
1523148589544466,14,3,-3,-22,-4,1,0,3
1523148589544466,19,-1,-6,-16,-2,0,2,17
1523148589546456,-13,5,-3,0,1,1,1,-4
1523148589546456,-2,-22,-5,-18,0,0,0,-3
1523148589551297,-2,-2,1,22,4,0,1,-3
1523148589551297,1,5,12,29,5,1,0,1
1523148589557815,1,-1,-17,-32,-9,-4,-2,-2
1523148589557815,-11,5,9,14,3,-1,-1,-1
1523148589574729,-6,6,-9,-7,-12,-4,-4,-13
1523148589574729,-3,6,1,-20,-4,-1,-2,3
1523148589575864,0,-23,1,26,0,0,1,0
1523148589575864,1,-5,-22,-6,0,-1,-4,5
1523148589596921,-6,-6,13,20,8,3,-1,-4
1523148589596921,3,2,13,0,-5,-3,-3,0
1523148589598423,0,7,6,1,-3,-1,0,-2
1523148589598423,-10,0,10,13,-1,-4,-5,-4
1523148589611712,2,2,-5,-9,0,2,2,-2
1523148589611712,0,0,-9,11,-2,-1,0,1
1523148589617976,-9,-7,-12,-63,-7,-2,-4,-4
1523148589617976,3,1,4,15,2,0,0,-2
1523148589634518,-5,5,1,-13,-3,-1,0,4
1523148589634518,4,-17,-14,5,-1,-1,1,3
1523148589636024,-6,-15,-21,12,0,-2,-1,-4
1523148589636024,0,10,9,-4,-2,0,1,0
1523148589656975,-1,-20,-3,4,3,0,0,2
1523148589656975,-3,8,-6,2,1,0,-3,0
1523148589658582,-1,13,-11,-7,2,-1,-1,-2
1523148589658582,13,-37,-23,3,2,0,-3,-3
1523148589671349,-8,10,8,1,3,-1,-2,1
1523148589671349,42,3,31,9,1,0,3,8
1523148589678135,-50,59,23,-29,-10,-6,-6,-14
1523148589678135,9,-10,-10,-4,-6,-4,-3,-5
1523148589694848,28,1,6,-5,-4,0,1,1
1523148589694848,-43,10,9,-10,-5,-2,0,-4
1523148589696182,88,18,7,11,6,3,1,13
1523148589696182,26,-14,-18,-3,-8,-6,-5,-10
1523148589717141,-43,-22,-10,0,-1,-2,-1,17
1523148589717141,-21,-44,-8,2,9,2,0,2
1523148589718243,46,-14,-17,10,-14,-2,4,-6
1523148589718243,-9,22,29,5,6,1,-5,-4
1523148589730668,51,9,13,13,10,6,8,1
1523148589730668,-21,-21,-10,-7,-7,-6,-4,-13
1523148589739254,-23,-15,3,8,12,3,1,15
1523148589739254,1,8,-4,-5,-1,0,2,4
1523148589754294,46,23,8,-1,-4,-2,2,-2
1523148589754294,-3,7,0,7,9,2,-3,3
1523148589756494,-17,-17,-2,-4,-7,-6,-8,-21
1523148589756494,-23,14,5,3,1,-1,2,-7
1523148589776853,19,-10,-6,-4,-3,0,-2,3
1523148589776853,19,8,3,0,-2,1,0,6
1523148589778358,-14,-10,-8,-13,-3,-4,-2,-1
1523148589778358,2,16,14,11,0,2,5,5
1523148589790953,-33,-7,-18,-50,-8,-5,-3,-12
1523148589790953,-2,-1,-15,11,-3,-4,-1,-5
1523148589800072,1,12,42,78,15,4,2,5
1523148589800072,-10,-11,-23,24,-5,-8,-8,-4
1523148589813991,-16,-2,4,40,5,2,1,-7
1523148589813991,-5,7,-11,-44,-12,-3,-2,-3
1523148589827990,7,-8,8,52,8,1,0,5
1523148589827990,-13,-7,-6,-51,-8,-3,0,-1
1523148589837014,-14,3,3,26,2,0,-5,-6
1523148589837014,17,2,-5,-11,-8,-4,-2,3
1523148589838517,-18,-3,0,-1,2,4,4,-3
1523148589838517,9,-5,-12,-12,-5,0,0,2
1523148589851453,-13,2,-2,0,-1,-2,-1,-5
1523148589851453,4,2,0,4,1,1,-1,6
1523148589858070,-15,-27,-10,-35,-9,-5,-2,-9
1523148589858070,-9,6,17,19,5,1,5,-2
1523148589874503,2,4,-1,-24,-8,-6,-3,0
1523148589874503,0,-6,2,-5,0,-3,-1,-4
1523148589876008,-5,7,15,54,14,7,4,2
1523148589876008,2,-4,-20,-57,-10,-3,-2,5
1523148589897435,5,-1,-2,28,5,-2,0,-6
1523148589897435,-5,-4,-16,-17,-8,0,-2,-5
1523148589898441,-11,-1,-3,-2,-3,-3,-4,-3
1523148589898441,5,0,3,-9,1,2,1,1
1523148589910998,-20,-6,-7,-18,-11,-8,-4,-1
1523148589910998,10,4,15,36,7,1,5,1
1523148589919498,-2,-1,-27,-48,-11,-6,-10,-5
1523148589919498,-17,10,29,22,7,2,1,2
1523148589934467,-9,-20,-29,-89,-16,-5,-5,-10
1523148589934467,3,4,5,30,1,-1,0,8
1523148589935972,-13,4,7,1,2,3,5,4
1523148589935972,-13,-1,4,24,2,0,-3,-3
1523148589956981,0,1,-3,24,0,-1,-1,-1
1523148589956981,-2,-2,0,2,0,-1,-3,-6
1523148589958487,6,4,7,8,0,-1,1,1
