timestamp,emg1,emg2,emg3,emg4,emg5,emg6,emg7,emg8
1523145385734410,-1,-2,-1,-6,1,2,-2,-2
1523145385734410,0,-3,-7,-7,4,-9,-1,-1
1523145385736418,-1,0,1,-9,-18,14,4,0
1523145385736418,-1,6,11,1,17,-11,-2,0
1523145385756971,-1,-1,-3,12,5,3,-1,-4
1523145385756971,0,-3,-3,-5,-19,-6,-1,-1
1523145385758473,-7,-10,-9,-1,25,-3,-2,-6
1523145385758473,-3,1,-2,-11,1,-3,-2,3
1523145385770523,0,2,-4,-4,-14,-2,1,1
1523145385770523,2,5,10,1,12,4,0,0
1523145385779530,-1,-5,-17,-33,-13,-6,-3,-3
1523145385779530,3,7,16,66,6,3,2,-1
1523145385794568,-6,-1,-3,-45,3,-4,-3,-4
1523145385794568,0,-8,-23,-14,-8,-2,2,1
1523145385796073,1,4,21,50,17,6,3,0
1523145385796073,3,13,27,65,30,8,5,4
1523145385817141,5,-4,-10,-21,-9,0,1,3
1523145385817141,0,4,3,1,5,3,1,0
1523145385818639,3,-9,-21,-69,-26,-8,-5,-2
1523145385818639,-13,-11,-18,-27,-15,-10,-7,-7
1523145385830666,3,3,6,27,11,4,2,3
1523145385830666,0,-6,-10,-27,-22,-8,-5,-5
1523145385839689,-6,6,38,112,61,19,9,4
1523145385839689,1,2,-7,-33,-20,-5,-2,4
1523145385854729,1,0,-5,-13,-5,-2,-2,-4
1523145385854729,-6,-11,-22,-85,-13,-13,-7,-5
1523145385856233,4,4,2,53,-27,1,-1,-8
1523145385856233,-2,-2,5,33,13,1,-1,-4
1523145385876789,-5,-4,-8,-72,-15,-4,-2,11
1523145385876789,3,11,14,44,19,7,3,3
1523145385878796,0,-6,11,41,21,5,1,-6
1523145385878796,-1,-3,-12,-61,-20,-8,-3,-3
1523145385890823,-1,0,0,12,4,-1,-5,-8
1523145385890823,-4,-4,0,18,7,-1,0,0
1523145385899852,-2,2,8,-8,6,-1,-2,2
1523145385899852,2,-2,-9,-31,-24,-2,-1,-4
1523145385914390,-3,0,11,-10,-4,-3,-3,-7
1523145385914390,-2,-1,-1,26,9,3,-1,1
1523145385916394,-2,-3,-17,-32,-12,-5,-3,-2
1523145385916394,2,2,-2,-8,-4,-2,-1,1
1523145385936947,-3,-4,1,13,-2,-4,-3,-5
1523145385936947,-3,-5,-11,-39,-13,-3,-2,0
1523145385938452,2,3,9,11,8,2,3,9
1523145385938452,0,6,-5,-37,-2,-3,-1,-5
1523145385950988,0,-12,8,58,12,1,1,1
1523145385950988,-3,2,11,14,2,-1,-2,-4
1523145385959508,-1,-4,-16,-39,3,-1,-3,-3
1523145385959508,-1,-1,-1,-4,-2,-3,-3,-1
1523145385974548,-1,0,0,-25,-3,-2,-2,-2
1523145385974548,0,0,6,16,-6,0,1,0
1523145385976053,-5,-3,-10,0,-10,-5,-4,-1
1523145385976053,-3,-5,-10,20,14,-2,-1,0
1523145385996605,0,3,-2,-7,8,-1,-1,-2
1523145385996605,0,3,10,7,8,1,0,1
1523145386003123,1,-2,-8,-31,-17,-6,-2,1
1523145386003123,-4,-4,-9,-30,-19,-4,-2,-2
1523145386010645,-2,-1,-3,11,0,0,-2,-2
1523145386010645,1,6,-1,14,11,3,1,0
1523145386019668,-1,-13,-11,-45,-28,-7,-6,-2
1523145386019668,8,6,20,28,13,4,1,1
1523145386034707,-6,-1,-9,0,-6,0,3,1
1523145386034707,-1,2,5,-14,13,-1,0,-3
1523145386036211,0,1,-6,-4,-33,-2,-1,-2
1523145386036211,-2,-5,2,18,32,3,0,1
1523145386057267,3,4,3,43,3,2,1,3
1523145386057267,-2,-4,-9,-28,-10,-2,-1,-1
1523145386058773,-5,0,2,12,5,-3,1,-1
1523145386058773,-2,-5,-3,-31,-19,-4,-4,-6
1523145386070804,2,3,3,56,8,2,0,-2
1523145386070804,0,0,3,10,0,2,1,-2
1523145386079827,-2,-4,-13,-54,-7,-3,-3,-2
1523145386079827,0,8,15,87,10,2,0,1
1523145386094868,-4,-4,-3,-42,-11,-4,-4,-4
1523145386094868,-1,-8,-9,2,-5,-1,-2,-1
1523145386096373,1,7,6,12,5,1,0,2
1523145386096373,-1,1,0,-23,-5,-2,0,1
1523145386116929,-3,-5,-11,-16,-7,-3,-2,-2
1523145386116929,-1,1,6,24,1,1,0,-1
1523145386118430,-2,-5,2,-14,6,-2,-1,-3
1523145386118430,-2,-4,-9,-14,-9,-4,-2,-1
1523145386130465,2,3,7,10,7,1,-1,0
1523145386130465,-1,-1,-1,-12,-5,-1,-1,-1
1523145386147006,-2,-2,-6,8,4,-1,2,1
1523145386147006,0,-1,3,-7,-1,-2,3,1
1523145386154529,-3,-4,-7,-15,-16,-8,-10,-13
1523145386154529,0,-4,-6,-1,1,3,3,5
1523145386156036,0,-2,1,-1,3,0,-3,-4
1523145386156036,0,0,4,11,0,1,-1,1
1523145386177087,-1,1,0,-20,-3,-2,1,5
1523145386177087,-3,2,0,1,-4,-3,-4,-4
1523145386178593,3,0,-2,1,5,2,2,7
1523145386178593,-5,-7,-4,-9,-8,-7,-9,-14
1523145386190624,3,3,1,-5,2,2,5,3
1523145386190624,-2,-1,-1,4,2,2,0,-1
1523145386199648,-1,0,2,4,-1,-1,1,3
1523145386199648,0,1,-3,-10,-2,0,-1,0
1523145386213699,-4,-6,-9,-4,-1,-4,-2,-3
1523145386213699,-1,4,11,4,-2,-3,-1,-1
1523145386222223,-2,-7,1,-4,2,1,1,0
1523145386222223,1,5,-4,-5,-4,0,1,0
1523145386236761,0,2,7,1,2,0,-2,-4
1523145386236761,-3,-5,-12,-7,-1,-4,-1,-1
1523145386238768,4,6,0,1,-1,-1,-1,0
1523145386238768,-3,-4,0,6,1,1,-1,-1
1523145386259324,-1,-1,0,3,5,4,3,3
1523145386259324,5,5,5,-5,5,3,0,2
1523145386261326,-3,-1,-3,4,-2,-5,-3,-7
1523145386261326,0,-3,-6,-12,-13,-2,0,3
1523145386274361,-2,2,-14,-81,-10,-3,-3,-3
1523145386274361,-2,0,25,105,29,7,1,-1
1523145386275866,0,-3,-3,-40,-11,-3,-3,-3
1523145386275866,-3,-6,-17,-73,-22,-9,-5,-5
1523145386296924,3,9,28,89,31,6,3,1
1523145386296924,1,-3,-15,15,-1,0,0,4
1523145386298426,-1,-4,3,-58,-5,-1,-2,-1
1523145386298426,-5,-2,-15,-2,-15,-7,-4,-6
1523145386310461,-4,-12,2,-27,1,0,-2,0
1523145386310461,12,3,10,30,7,2,1,2
1523145386319481,-11,-4,-25,9,-21,-8,-4,-3
1523145386319481,-1,-1,5,-37,5,2,1,1
1523145386334520,6,4,1,-11,2,2,4,3
1523145386334520,-4,-4,-9,-24,3,-4,-3,-3
1523145386336026,0,2,-3,-18,-29,-4,-1,-4
1523145386336026,0,-8,-1,19,10,2,0,0
1523145386357083,-6,-2,-5,10,-9,-5,-1,-3
1523145386357083,-3,-13,-22,-65,-23,-9,-4,-5
1523145386358593,7,15,29,50,35,9,7,6
1523145386358593,4,0,-13,-22,-2,-3,-3,-1
1523145386379644,-1,2,3,-43,-13,-2,-1,2
1523145386379644,0,-4,-4,47,15,4,1,-2
1523145386381146,-3,-1,10,44,10,2,1,-3
1523145386381146,-1,1,4,19,1,0,-3,-7
1523145386394681,0,1,-12,-13,-2,-2,-2,4
1523145386394681,-4,2,8,-59,-30,-3,-2,-5
1523145386396185,-4,-13,-16,-12,-5,-6,-6,1
1523145386396185,7,8,28,41,32,10,7,7
1523145386417241,-6,-8,-26,-37,-31,-11,-8,-10
1523145386417241,-4,1,0,-4,0,-2,-1,-8
1523145386418746,-4,-4,-1,14,4,0,1,9
1523145386418746,-2,1,-3,-27,-13,-4,0,-2
1523145386439300,-1,-3,-4,23,-8,-2,-1,0
1523145386439300,-4,-3,-11,-77,-19,-6,-7,-6
1523145386441305,4,9,21,26,22,8,1,-3
1523145386441305,-4,-5,-9,7,6,-1,0,2
1523145386454339,-1,-1,2,18,-6,1,3,0
1523145386454339,-3,2,1,-20,-9,-1,-1,-2
1523145386455845,-1,-2,-26,-72,-18,-9,-7,-6
1523145386455845,0,5,21,87,18,5,3,5
1523145386476903,1,-5,-5,-1,14,3,-2,-2
1523145386476903,-4,0,-8,-33,-10,-4,-2,1
1523145386478908,-2,0,4,25,14,3,0,-2
1523145386478908,-4,-4,-7,8,2,-1,-1,-3
1523145386499461,-2,-1,-2,-34,-11,-6,-4,-1
1523145386499461,1,2,-1,-5,14,1,3,8
1523145386500965,1,5,14,17,1,1,0,-1
1523145386500965,-5,-7,-13,0,-8,-2,-2,-1
1523145386514000,3,5,11,28,7,3,0,-4
1523145386514000,-1,0,-1,-7,-3,-2,-1,0
1523145386520515,-4,-6,-9,-14,-9,-4,-3,-3
1523145386520515,4,3,8,27,-10,4,1,-1
1523145386537061,-2,-1,0,4,12,1,0,3
1523145386537061,0,-6,-1,11,3,-1,0,1
1523145386538564,-1,-3,-9,-41,-14,-7,-4,-4
1523145386538564,0,3,4,30,11,0,0,0
1523145386559620,-2,0,-8,6,-5,-1,-2,-3
1523145386559620,-1,-5,1,13,-2,0,0,-1
1523145386561126,-2,-7,-20,-24,-1,-2,-4,0
1523145386561126,-2,1,0,-33,-10,-3,-2,-1
1523145386573659,1,-4,0,21,7,0,-1,0
1523145386573659,1,3,0,7,1,-2,0,-4
1523145386580679,0,1,2,6,1,1,0,-1
1523145386580679,-2,-4,-10,-19,-8,-1,-1,0
1523145386597221,0,4,10,13,6,0,0,1
1523145386597221,-2,-2,3,10,4,2,-3,-1
1523145386598731,-1,-2,0,21,-7,-2,-1,-2
1523145386598731,-1,0,1,-13,11,-1,-2,0
1523145386619279,0,-3,-3,-15,-8,1,5,3
1523145386619279,-2,3,4,4,-3,-1,-5,-7
1523145386621284,1,6,-10,1,-2,1,3,2
1523145386621284,-2,-11,6,7,-6,-3,-9,-4
1523145386633818,0,2,-1,-7,-17,-1,-1,-7
1523145386633818,1,6,1,17,22,6,6,13
1523145386640836,1,-2,-6,-1,-5,-1,1,3
1523145386640836,-2,7,11,-26,-6,-2,-1,-1
1523145386656881,-1,0,7,6,1,-6,-3,-6
1523145386656881,-1,-12,-16,8,-19,-5,-2,2
1523145386664902,0,4,8,-1,9,2,1,0
1523145386664902,0,3,-2,-14,-12,-2,2,0
1523145386679439,-1,-4,-15,4,3,0,-2,-2
1523145386679439,1,4,12,-10,-16,-5,-5,-3
1523145386681446,-2,-4,0,5,0,1,0,-1
1523145386681446,-4,-4,-5,-5,-1,-4,-2,-1
1523145386702101,-5,-9,-11,1,5,-4,-4,-4
1523145386702101,-2,0,1,-4,-23,1,2,0
1523145386703604,-5,-8,-5,15,8,-2,-3,-6
1523145386703604,-6,4,5,-4,5,-1,-6,-12
1523145386717143,-4,0,9,0,-1,1,0,8
1523145386717143,4,1,-4,5,7,0,3,6
1523145386718644,1,2,8,-19,-3,0,0,3
1523145386718644,0,-2,-14,-5,-12,-6,-1,-5
1523145386739200,-6,-8,-20,-27,3,-5,-4,-8
1523145386739200,-4,-2,15,65,15,10,3,-3
1523145386741204,2,-4,-2,11,4,0,-3,-2
1523145386741204,-1,-7,-33,-105,-21,-12,-6,-4
1523145386753737,3,11,42,80,19,10,3,4
1523145386753737,-10,-10,-18,-45,-8,-7,-4,-5
1523145386760756,-5,-7,-9,-35,2,-1,-5,-7
1523145386760756,5,5,6,13,-6,-1,1,4
1523145386776800,-7,-6,-22,-100,-36,-10,-3,2
1523145386776800,13,17,41,101,69,16,9,6
1523145386778804,-5,-8,-17,-30,-30,-9,-6,-8
1523145386778804,-12,-4,-1,-20,9,-1,-4,-9
1523145386799362,3,2,-1,-18,1,3,2,5
1523145386799362,3,0,-17,-75,-12,-12,-4,4
1523145386801364,4,3,13,50,-9,8,8,14
1523145386801364,1,-10,-15,16,-13,-7,-2,-3
1523145386813899,-2,4,15,-15,7,4,-1,-9
1523145386813899,-10,-4,-13,-28,-6,-6,-6,-14
1523145386820415,5,11,14,-15,2,-2,2,8
1523145386820415,-2,-12,-18,-17,16,3,-1,0
1523145386836959,0,-5,-6,13,-24,-6,-4,-5
1523145386836959,2,2,-2,-26,19,1,-1,-3
1523145386838463,3,8,22,99,24,8,1,-4
1523145386838463,-4,-1,-1,-21,-11,0,2,3
1523145386859520,-2,-9,-19,-25,-5,-4,0,4
1523145386859520,7,4,5,-22,-9,1,4,6
1523145386861023,-2,-2,2,-2,11,-4,-4,-10
1523145386861023,0,9,12,9,-2,4,1,1
1523145386873056,3,-7,-7,87,20,4,1,-1
1523145386873056,-5,-11,-8,-53,-33,-10,-6,-4
1523145386882098,-5,-7,-17,-69,-9,-7,-5,-5
1523145386882098,1,6,8,114,25,8,5,5
1523145386904639,2,9,23,-28,5,2,0,1
1523145386904639,-10,-7,-11,6,-2,-1,-2,-3
1523145386906143,0,-4,-7,-15,-13,-3,-2,-1
1523145386906143,2,1,7,-30,-6,1,2,2
1523145386919679,-2,-2,-13,-13,-12,-7,-5,-2
1523145386919679,0,1,6,40,13,4,-1,-5
1523145386921183,1,4,8,0,8,1,-1,6
1523145386921183,-3,-4,1,-30,-7,-2,-1,-1
1523145386933216,-2,-1,-1,14,-11,-4,-2,-5
1523145386933216,6,1,2,-22,28,4,0,1
1523145386942240,-7,-3,-7,-48,-10,-3,-2,-6
1523145386942240,5,0,-8,10,1,1,0,1
1523145386956779,-6,-6,8,-40,-2,-6,-3,-1
1523145386956779,3,13,10,44,12,5,-1,-5
1523145386958783,-5,-11,-11,-26,-10,-3,0,1
1523145386958783,1,0,-1,-29,0,0,1,2
1523145386979337,7,7,-1,84,20,5,2,4
1523145386979337,-5,-7,-4,-6,-15,-3,0,-1
1523145386981344,0,0,10,-14,10,1,-2,-4
1523145386981344,-2,-3,1,7,-10,-1,-2,-1
1523145386992877,3,0,-15,-10,13,0,1,4
1523145386992877,0,-2,0,-4,-13,-2,-1,0
1523145387002399,-5,-4,-25,-93,-30,-10,-4,-2
1523145387002399,9,13,46,102,58,18,7,3
1523145387016941,-3,-3,-4,-27,-1,0,-2,-2
1523145387016941,-4,-3,-16,-18,-17,-4,-3,0
1523145387018442,4,2,10,0,11,0,1,-6
1523145387018442,-4,-7,-22,-21,-23,-5,-4,2
1523145387039498,2,4,15,60,29,8,2,3
1523145387039498,8,-3,1,-10,-10,-2,-1,0
1523145387041002,-11,-2,-5,29,5,-2,-3,-3
1523145387041002,2,1,4,-17,-9,-4,0,-1
1523145387053034,-4,-9,-12,2,-3,-1,-1,-2
1523145387053034,-2,-2,0,-76,-22,-10,-5,-4
1523145387062061,5,6,20,127,32,10,5,4
1523145387062061,0,-3,-6,-26,-3,-4,-1,3
1523145387077098,-4,-4,-15,-57,-16,-6,-1,-4
1523145387077098,-2,0,3,-4,0,-1,-1,-4
1523145387078602,-1,-3,-7,-18,-6,-2,-3,-4
1523145387078602,-3,-3,-7,-7,-14,-3,-3,-3
1523145387099660,2,2,16,-1,11,-1,1,3
1523145387099660,-2,-6,-6,4,-22,-2,-1,-3
1523145387101164,0,1,-1,20,4,1,0,-1
1523145387101164,-3,-2,-3,-9,-16,-4,-3,-3
1523145387113200,-2,-3,-6,-26,-2,-2,-5,-4
1523145387113200,-4,-4,0,20,8,-1,-2,1
1523145387122219,-1,-2,-7,-19,-7,-3,3,2
1523145387122219,-3,1,-7,8,10,-2,-6,-13
1523145387136756,0,3,15,-9,16,0,0,-1
1523145387136756,0,4,2,5,1,-1,5,13
1523145387138762,0,-4,-9,4,2,0,-6,-10
1523145387138762,0,0,-1,-8,3,0,5,7
1523145387159317,-5,0,-9,-1,-10,-3,-4,-5
1523145387159317,-4,-4,-4,6,1,-3,-8,-14
1523145387161321,0,1,10,-10,-2,-4,-4,-1
1523145387161321,4,4,6,1,5,6,6,-5
1523145387173354,0,-13,-16,-5,-11,-2,7,21
1523145387173354,2,5,-15,7,2,9,-3,-4
1523145387182379,0,-5,3,-3,-4,-4,1,6
1523145387182379,-2,-1,0,-5,-2,-7,-8,-7
1523145387204438,-2,0,-1,-6,-8,3,-2,-9
1523145387204438,-6,-3,9,7,0,-5,-5,-7
1523145387205942,-8,-6,-7,-2,1,-1,-2,0
1523145387205942,8,5,-1,-13,-14,-9,0,4
1523145387219476,-8,-6,-9,18,17,2,-1,-3
1523145387219476,1,-2,-3,-1,-13,-3,2,3
1523145387226996,1,1,0,0,35,5,-1,-4
1523145387226996,-5,-6,10,19,20,-3,-3,-3
1523145387249558,-1,1,-7,-32,-34,-1,-1,-10
1523145387249558,-2,-4,-4,-3,-4,-1,2,6
1523145387251061,3,2,8,1,-10,-1,5,9
1523145387251061,1,2,-17,-49,1,-3,-4,5
1523145387256576,29,15,20,63,28,8,4,2
1523145387256576,-22,-8,-16,-96,-38,-14,-6,-9
1523145387263095,2,7,28,92,72,17,8,0
1523145387263095,-4,-7,-12,-38,-28,-1,-3,-2
1523145387279638,-1,3,14,-4,-15,-6,-5,-9
1523145387279638,6,0,-19,-77,-21,-6,-2,1
1523145387281142,10,12,19,66,16,7,3,3
1523145387281142,-11,-14,-7,-35,-5,-2,-3,-5
1523145387302197,-19,-6,-25,-80,-30,-12,-6,-3
1523145387302197,13,9,22,90,32,9,6,6
1523145387303702,-7,-9,-31,-95,-58,-15,-10,-7
1523145387303702,-1,5,16,25,32,8,6,3
1523145387317237,-2,-3,13,13,-3,0,1,3
1523145387317237,2,-3,-15,30,6,-2,-7,-9
1523145387318742,-1,1,-1,4,-20,1,1,0
1523145387318742,5,5,12,8,1,2,0,-3
1523145387339296,-4,-14,-17,-58,-15,-6,0,12
1523145387339296,8,2,10,9,34,3,0,-3
1523145387341301,-2,0,0,-16,-6,-1,1,1
1523145387341301,-5,1,-16,0,-13,-3,-4,-8
1523145387360852,-2,0,13,-3,0,-2,-6,-11
1523145387360852,-1,-7,-12,47,3,-3,0,3
1523145387369877,4,3,5,-3,-4,4,-1,-1
1523145387369877,0,0,-2,-20,-4,-2,0,6
1523145387376896,0,4,3,9,4,3,6,12
1523145387376896,-1,-4,0,-3,-2,-2,1,2
1523145387378405,-5,-7,-13,-2,-19,-10,-7,-8
1523145387378405,1,-1,14,41,-2,1,-3,-5
1523145387399462,-3,1,-1,-1,-2,-3,-5,-10
1523145387399462,-3,-4,2,-30,5,1,0,-5
1523145387400966,0,-8,-13,-47,-26,-5,3,15
1523145387400966,-1,0,6,21,3,2,-2,-3
1523145387422016,-2,-2,0,25,11,-3,-3,-4
1523145387422016,-5,0,1,-6,-18,2,1,-2
1523145387423521,-3,0,-8,-13,-2,-2,-2,-4
1523145387423521,-12,-5,0,4,-12,-1,0,2
1523145387436053,-4,-8,-19,-66,0,-2,-3,-6
1523145387436053,1,9,21,30,-1,2,0,3
1523145387443072,3,-3,-6,-14,14,-2,-1,0
1523145387443072,3,-1,-13,-31,-16,-5,-1,2
1523145387459615,4,11,6,4,-6,2,-2,-2
1523145387459615,-11,-7,-8,16,13,1,-1,-1
1523145387461120,2,4,1,-23,-9,-3,-2,0
1523145387461120,2,-3,-18,-40,-22,-6,-2,-3
1523145387482181,3,7,30,117,40,12,5,0
1523145387482181,-2,-5,-10,-51,-12,-5,-3,2
1523145387483681,-3,-3,-2,7,-1,0,-2,-3
1523145387483681,-3,1,7,16,9,2,-1,-1
1523145387496222,-2,2,-11,-22,-14,-5,-3,-2
1523145387496222,8,4,4,-18,-4,-5,0,0
1523145387503232,-13,-4,3,10,-7,0,1,1
1523145387503232,-3,-8,-11,0,-6,-5,-4,-6
1523145387519277,3,5,13,36,14,4,1,2
1523145387519277,3,-3,1,-8,11,1,0,-1
1523145387521280,2,3,0,-20,1,0,-1,-3
1523145387521280,-1,-7,-7,15,-2,0,1,0
1523145387541836,-5,-6,-12,-48,-12,-6,-3,-4
1523145387541836,-3,4,12,51,1,4,0,1
1523145387543840,0,-1,-9,-31,16,-1,-1,-4
1523145387543840,4,4,23,73,21,7,3,4
1523145387556376,-1,-6,-12,-17,-1,-3,-1,-2
1523145387556376,-3,0,-2,-30,-16,-3,-1,0
1523145387563390,0,1,2,13,-5,1,2,1
1523145387563390,-3,-1,-3,-14,2,-5,-4,-8
1523145387586955,0,-4,-6,13,3,0,3,2
1523145387586955,0,-1,-2,-6,14,2,0,0
1523145387588459,-3,1,-1,-8,-7,0,-1,-4
1523145387588459,1,-2,4,25,4,0,0,1
1523145387602496,-1,0,1,-8,-9,-2,-2,1
1523145387602496,-4,-1,-6,-4,-5,-1,0,-2
1523145387604005,-8,-3,0,9,1,-3,-4,-1
1523145387604005,-1,1,-2,-9,4,2,0,1
1523145387616532,-1,0,-9,-14,-15,-3,-1,-1
1523145387616532,4,-5,-2,16,17,1,1,-2
1523145387623051,-1,-3,-6,-7,-10,-3,-4,-5
1523145387623051,2,1,9,-3,4,-1,9,10
1523145387639595,-3,3,-3,-1,-4,-5,-11,-12
1523145387639595,-2,-5,3,-2,-5,-1,-6,-4
1523145387641099,4,-1,-7,2,-2,0,2,3
1523145387641099,0,1,-1,-13,0,1,2,4
1523145387661652,1,6,6,0,-1,-1,-2,-7
1523145387661652,-1,-5,-4,2,-5,-4,-5,0
1523145387668170,-3,-4,8,-1,-3,-4,1,2
1523145387668170,-1,-4,-9,-8,2,-1,-5,-2
1523145387676195,7,-1,3,4,4,10,4,4
1523145387676195,-5,-1,-2,-8,-6,-3,-3,-4
1523145387683212,1,2,-3,0,0,-1,-4,-4
1523145387683212,0,-4,-10,1,-4,-7,-5,-3
1523145387699255,-10,1,13,3,5,-6,0,3
1523145387699255,-1,0,-1,-5,-8,1,0,-2
1523145387701259,3,0,3,4,-11,-2,-1,-4
1523145387701259,-5,-7,-9,2,35,4,-2,-5
1523145387722315,-1,-15,-10,-3,23,-1,2,8
1523145387722315,0,9,6,-4,-23,2,-1,-5
1523145387723819,-4,-4,3,-10,-8,-2,-1,-2
1523145387723819,-8,3,0,-3,-10,-6,-8,-22
1523145387744374,-1,-4,-11,-7,-11,-2,0,13
1523145387744374,9,7,-6,-21,-7,-4,12,27
1523145387746380,4,-3,4,55,56,13,-1,-4
1523145387746380,-10,1,13,6,-2,5,1,-1
1523145387759414,-8,-8,-18,-76,-35,-16,-9,-17
1523145387759414,-6,-1,6,60,25,1,0,-5
1523145387760918,5,11,16,19,-12,5,0,3
1523145387760918,-6,-18,-33,-39,-35,-13,-5,-1
1523145387781978,5,13,46,111,58,19,8,3
1523145387781978,-11,-2,-18,-84,-27,-8,-6,-3
1523145387783477,-8,-9,-23,-90,-23,-9,-2,-2
1523145387783477,22,19,34,87,45,15,8,9
1523145387795510,-12,-17,-20,-104,-36,-8,-3,-1
1523145387795510,-5,-2,-8,-40,-15,-9,-6,-8
1523145387804535,6,10,16,54,27,9,7,3
1523145387804535,-7,-9,-28,-102,-41,-13,-9,-4
1523145387819577,15,1,5,61,3,0,-1,-1
1523145387819577,3,5,22,77,34,11,2,-4
1523145387821079,-6,-10,-29,-75,-33,-14,-7,-7
1523145387821079,5,4,13,38,13,7,6,16
1523145387842138,1,6,3,-13,-2,2,1,1
1523145387842138,-2,-2,-6,-37,-14,-3,-6,-8
1523145387843639,2,-4,-4,38,3,-5,-5,-7
1523145387843639,0,7,-2,-23,-13,2,2,1
1523145387855669,7,-1,-9,-9,9,-1,-4,-4
1523145387855669,-1,-2,9,72,10,4,5,2
1523145387864700,-2,4,7,-17,-8,-1,0,2
1523145387864700,-3,-5,-9,-33,-7,-7,-5,-2
1523145387879734,-3,2,-6,-10,-15,-1,1,2
1523145387879734,4,1,-4,-3,-3,-2,-4,-4
1523145387881239,-3,-4,-5,19,14,-1,1,2
1523145387881239,-5,-6,-6,-43,-20,-7,-2,-9
1523145387901792,1,1,0,58,9,2,3,3
1523145387901792,0,-9,-6,1,11,1,-1,-2
1523145387903798,-1,-3,-2,-4,2,-2,-1,-3
1523145387903798,-3,1,7,1,-13,1,0,6
1523145387915830,-11,-5,-14,-65,-29,-10,-6,-7
1523145387915830,2,2,7,65,39,6,3,3
1523145387924853,3,2,1,-20,2,0,0,-1
1523145387924853,0,-1,-6,-13,-1,-4,-4,-4
1523145387939392,0,-1,0,12,5,3,-1,1
1523145387939392,-3,4,-7,-36,0,-5,-1,0
1523145387941398,-4,-6,-9,8,-6,-2,-2,-8
1523145387941398,-1,-1,2,-22,3,-1,-5,-9
1523145387961955,5,-3,2,29,6,1,2,6
1523145387961955,5,1,-7,-33,-19,-4,3,15
1523145387963456,-4,-2,5,-9,-3,0,0,-2
1523145387963456,-4,-4,-23,-10,-28,-4,-2,-4
1523145387975490,3,2,5,-20,25,2,-1,-11
1523145387975490,-3,0,15,73,23,6,1,-4
1523145387984515,5,4,1,-3,-22,0,0,5
1523145387984515,-1,0,-4,-3,-13,-3,-1,2
1523145387999553,-1,-7,4,-13,-3,-4,-2,0
1523145387999553,-2,-2,-7,-49,-10,-6,-5,-5
1523145388001057,-5,-7,-9,6,-10,-4,-2,1
1523145388001057,1,4,5,20,39,2,0,0
1523145388022113,-3,5,16,28,-14,6,3,0
1523145388022113,-5,-2,-3,-28,-14,-1,-2,-6
1523145388023617,-4,-8,-17,-4,-2,-3,0,4
1523145388023617,2,0,1,-12,5,-2,0,-4
1523145388035649,-3,-2,-10,-19,-13,-5,-2,-1
1523145388035649,-2,-3,-7,-34,-10,-3,-4,-4
1523145388044674,7,-1,-6,-49,-18,-6,-2,-4
1523145388044674,-8,8,46,103,53,13,7,4
1523145388059718,-1,-3,-13,-12,10,-2,-3,-1
1523145388059718,3,1,2,-3,-29,0,-3,-5
1523145388061218,0,2,-5,-21,12,-2,-1,1
1523145388061218,-2,-7,-7,-30,-44,-8,0,7
1523145388081774,-5,1,2,33,23,2,-1,-6
1523145388081774,4,-5,-7,-23,0,-4,-1,1
1523145388083776,-6,-1,1,21,-5,2,-1,-2
1523145388083776,4,3,4,-3,-11,0,-3,0
1523145388095808,-2,-4,-8,-4,-6,-4,-9,-9
1523145388095808,-3,-3,-1,-27,-14,-6,-10,-43
1523145388104832,1,3,9,18,2,3,18,57
1523145388104832,3,-2,-5,4,18,2,7,18
1523145388119372,-2,-2,-7,-8,-16,-5,0,6
1523145388119372,1,0,5,-2,-15,3,-4,3
1523145388120875,-3,8,15,22,22,5,-7,-26
1523145388120875,1,-3,-15,3,7,3,-3,-12
1523145388141933,-13,-8,1,-24,-18,-6,-1,-2
1523145388141933,-9,-5,3,7,-12,-10,-11,-24
1523145388143439,1,3,7,3,-4,3,-1,-20
1523145388143439,3,1,-2,-4,-8,-1,4,50
1523145388155470,5,-1,-3,-6,-5,5,27,33
1523145388155470,3,6,3,14,17,14,16,52
1523145388164496,-2,-4,0,-4,10,-5,-7,-17
1523145388164496,-5,0,3,-4,-1,-8,-18,-41
1523145388179567,0,-6,-5,6,26,-3,-7,-13
1523145388179567,3,-7,-16,-11,-19,-3,3,9
1523145388181054,0,6,4,3,14,0,-5,-2
1523145388181054,1,-4,-5,-6,-18,-4,-5,-20
1523145388202106,4,11,10,5,-4,2,-1,-5
1523145388202106,-3,-3,-1,-12,-1,-1,6,7
1523145388203612,-5,-8,-11,3,13,-2,-2,0
1523145388203612,-5,0,-9,-4,-6,-2,-1,-16
1523145388224666,-5,-8,7,-3,-6,-5,-6,-4
1523145388224666,2,-7,-18,-45,5,-1,1,14
1523145388226171,16,16,15,70,0,-1,-2,-2
1523145388226171,10,26,8,-13,11,3,5,11
1523145388239705,-6,-8,-33,-107,-67,-16,-11,-13
1523145388239705,-31,-59,28,121,96,21,4,-14
1523145388241210,-10,-7,-20,-46,-4,-4,-4,-1
1523145388241210,8,-5,-33,-77,-39,-12,-2,4
1523145388261766,24,41,51,121,57,21,8,7
1523145388261766,-1,21,-16,-128,-47,-14,-5,-5
1523145388263772,-22,-22,-11,3,-19,-4,-1,0
1523145388263772,-22,-8,9,5,22,6,3,-6
1523145388284325,-12,-3,-9,-48,-12,-9,-3,-4
1523145388284325,2,-2,4,69,0,0,-1,-1
1523145388286330,2,5,0,-1,30,5,1,2
1523145388286330,-8,-3,-6,-47,-21,-8,-4,-4
1523145388299365,-7,-1,17,107,38,10,4,4
1523145388299365,4,8,-2,-19,-5,-2,-3,-2
1523145388300869,-3,-5,-20,-118,-59,-16,-9,-11
1523145388300869,15,0,38,127,55,18,8,11
1523145388321924,-1,-9,-7,-54,-2,-1,-1,-2
1523145388321924,8,17,-4,-20,-8,-5,-2,-6
1523145388323439,0,-6,-2,-8,3,-2,2,6
1523145388323439,-5,-6,7,-23,0,-1,-7,-19
1523145388344484,-1,-6,-18,-43,-24,-4,-5,-4
1523145388344484,8,10,11,50,37,4,9,21
1523145388345989,3,1,5,14,-24,5,10,30
1523145388345989,-5,-11,-3,8,-6,-2,-4,-6
1523145388359528,-4,-1,-5,7,-5,-1,-5,-6
1523145388359528,-1,1,-9,-41,-17,-7,-8,-18
1523145388361031,0,0,7,3,15,1,-1,-6
1523145388361031,-8,0,-2,0,-13,-3,-2,-3
1523145388382087,-1,-6,-5,-18,-36,-5,-6,-7
1523145388382087,-6,9,1,-15,11,1,1,1
1523145388383590,-9,-10,12,20,5,0,0,-1
1523145388383590,-2,-1,-10,4,-5,-2,-1,0
1523145388404645,4,-2,-9,-38,-7,-6,-5,-4
1523145388404645,-12,1,-4,29,-26,-3,-2,2
1523145388406150,9,5,20,45,33,5,3,-3
1523145388406150,9,6,5,-12,-15,-1,-1,-1
1523145388418682,2,-4,-9,5,17,-2,3,9
1523145388418682,-8,-4,10,-8,-6,3,-2,1
1523145388425701,-4,-7,-15,-14,-6,-6,-8,-14
1523145388425701,5,-2,2,7,1,6,5,7
1523145388441744,4,-2,-10,-44,-13,-4,-1,3
1523145388441744,4,4,19,95,22,5,2,0
1523145388443752,8,1,-13,-54,-8,-3,-3,-6
1523145388443752,-14,-7,-7,3,13,-2,-1,1
1523145388464304,-2,-4,-12,-5,-32,-4,-5,-5
1523145388464304,3,0,5,-29,-11,-5,-3,-1
1523145388466309,2,7,10,14,3,2,0,0
1523145388466309,8,-2,-24,-81,-14,-9,-6,-7
1523145388478843,-5,-1,31,60,40,14,5,-4
1523145388478843,7,-1,-8,-57,-1,-1,2,13
1523145388485861,3,3,0,-8,-9,1,1,6
1523145388485861,1,-9,-3,-36,3,-3,-2,-1
1523145388501904,-8,-3,-9,4,4,-1,-3,-8
1523145388501904,0,-5,-6,7,-13,-5,-2,-10
1523145388503408,1,1,0,5,-1,2,-2,-1
1523145388503408,-8,-7,-3,-4,-7,-3,0,1
1523145388524464,2,1,6,23,-6,0,1,1
1523145388524464,0,-3,-2,8,24,1,-1,-2
1523145388525969,0,0,-13,-20,-26,-5,0,0
1523145388525969,-2,5,29,26,29,5,1,0
1523145388539002,-3,-9,-22,8,-8,-3,0,2
1523145388539002,5,7,1,-9,9,-2,-1,-3
1523145388545545,-3,-1,-2,-7,-7,-2,-2,-4
1523145388545545,1,-1,-2,14,-1,-2,0,-2
1523145388569583,-1,1,7,-25,-2,0,0,3
1523145388569583,-2,-9,-13,2,-1,-3,-1,-2
1523145388571088,-8,-3,-1,12,7,-4,-6,-8
1523145388571088,2,2,-3,4,-9,1,2,2
1523145388584127,2,5,1,-13,28,1,-3,-1
1523145388584127,-2,-2,-10,-22,-42,-5,-4,-6
1523145388592145,2,-5,2,3,26,3,0,2
1523145388592145,3,-1,2,18,5,0,0,2
1523145388598662,-2,-2,-10,-14,-5,-6,-3,1
1523145388598662,-5,-3,-3,4,-24,-7,-10,-13
1523145388605680,3,5,4,6,7,14,4,5
1523145388605680,-4,-4,-8,-7,-15,-7,-1,3
1523145388621724,-1,-1,0,5,6,3,6,8
1523145388621724,-4,4,7,3,7,5,-11,-13
1523145388623729,-7,-9,-1,-11,-5,-9,-2,-5
1523145388623729,-3,-2,-8,6,4,-18,-4,-1
1523145388644285,0,4,0,-6,-5,9,-3,-4
1523145388644285,2,-1,3,-7,0,-5,2,6
1523145388646287,-4,4,0,-1,-12,-11,-4,-4
1523145388646287,3,-8,1,0,-14,13,2,2
1523145388658822,-10,-7,-8,7,22,-3,2,4
1523145388658822,1,4,-5,-7,9,5,-1,-1
1523145388665339,-2,3,-1,1,-11,-1,-4,-9
1523145388665339,-9,1,-3,-5,-10,-13,-4,-1
1523145388681882,8,2,11,6,-21,-8,-1,3
1523145388681882,0,-8,-13,-16,-3,7,3,3
1523145388683387,-4,-11,-4,-7,-14,-5,-1,-2
1523145388683387,2,4,2,3,26,2,-3,-7
1523145388704446,-9,-1,-3,-17,-12,-3,-4,-6
1523145388704446,-8,-1,9,24,24,3,2,-2
1523145388705947,8,-3,0,5,2,-3,1,2
1523145388705947,-6,-3,-16,-40,-29,0,0,7
1523145388718982,2,3,25,55,28,10,3,1
1523145388718982,6,-9,-39,-97,-38,-18,-6,-2
1523145388725500,0,12,44,90,59,18,5,2
1523145388725500,2,-7,-20,-88,-7,1,-3,-3
1523145388742043,-1,2,4,-29,-2,-2,3,5
1523145388742043,-1,-5,-15,-78,-14,-8,-3,-3
1523145388743547,-3,3,-2,32,-9,0,1,0
1523145388743547,8,14,15,33,15,7,2,0
1523145388764609,-11,-17,-30,-73,-32,-11,-5,-6
1523145388764609,-5,-3,24,85,19,8,3,1
1523145388766107,-3,0,-14,-70,-23,-7,-4,-3
1523145388766107,-12,-2,7,81,1,-3,-1,-7
1523145388778142,-4,-2,-6,-30,-6,-3,-4,-7
1523145388778142,13,15,30,92,35,11,6,8
1523145388787164,2,-5,-10,-24,6,-2,1,12
1523145388787164,13,0,-7,-16,-26,-1,0,2
1523145388802206,-12,1,8,-4,1,-1,-4,-3
1523145388802206,-5,-3,-5,7,-7,-3,-2,-2
1523145388803708,-1,8,-2,-1,-9,-3,-2,-6
1523145388803708,1,-19,-12,27,14,2,-1,-2
1523145388824763,4,0,-6,-11,-3,-3,0,1
1523145388824763,-1,-2,1,-12,-11,-5,-1,-4
1523145388826267,-2,-1,-16,-53,-13,-4,-1,-1
1523145388826267,1,10,26,44,19,3,1,-1
1523145388838299,7,-2,2,12,-8,1,0,-3
1523145388838299,-12,-10,-18,-35,-10,-6,-2,-3
1523145388847326,-6,-1,3,-25,-6,-3,-5,-12
1523145388847326,-1,1,1,25,21,7,-1,3
1523145388861865,11,4,4,17,6,1,6,8
1523145388861865,2,5,-1,-102,-30,-6,2,16
1523145388863869,4,3,9,78,33,5,3,-3
1523145388863869,-6,-11,5,-29,-21,0,-3,-8
1523145388884421,6,-3,-5,-14,20,-3,-7,-13
1523145388884421,-11,-5,-18,-46,-13,-5,-4,-5
1523145388885926,-5,1,4,39,5,0,0,3
1523145388885926,-9,0,-2,-5,-2,-2,-4,-6
1523145388897962,9,5,8,5,-6,-1,0,2
1523145388897962,-3,-8,-19,-45,-3,-6,-3,-1
1523145388906982,3,1,14,37,15,5,-1,-1
1523145388906982,1,9,6,16,-5,0,2,2
1523145388922022,-7,-15,-27,-33,-10,-5,-4,-3
1523145388922022,1,6,12,14,4,0,1,-3
1523145388923527,-5,-2,2,24,-4,-1,0,-4
1523145388923527,1,2,5,-16,10,-1,-4,-2
1523145388944585,1,2,0,18,1,5,6,16
1523145388944585,1,0,-8,-21,6,-4,-3,-5
1523145388946087,1,-2,7,38,-12,6,5,9
1523145388946087,2,-2,4,29,12,2,1,-3
1523145388958121,-17,-5,-12,-13,-28,-11,-8,-13
1523145388958121,3,0,9,40,42,7,0,-2
1523145388967145,-1,-3,-16,-78,-22,-8,-4,-1
1523145388967145,-3,-6,-3,34,1,-3,1,-2
1523145388982182,1,4,9,2,1,2,0,0
1523145388982182,1,1,-4,-5,1,2,1,1
1523145388983687,-9,-9,-27,-102,-29,-11,-5,-5
1523145388983687,3,8,23,38,37,11,8,10
1523145389004241,-1,8,13,1,-6,0,-6,-7
1523145389004241,-13,-17,-16,-33,-21,-3,-2,-2
1523145389006247,1,4,6,47,13,2,0,1
1523145389006247,1,0,-5,-84,-18,-3,-5,-3
1523145389018278,-4,-1,-3,-30,4,-3,-1,1
1523145389018278,3,9,15,38,14,2,0,-1
1523145389027301,1,-12,-33,-128,-60,-12,-8,-6
1523145389027301,3,2,15,60,34,8,5,2
1523145389041841,6,5,12,32,12,2,-1,-6
1523145389041841,-5,-2,-1,-16,-16,-2,-1,0
1523145389043344,2,-10,-7,33,11,0,2,6
1523145389043344,-1,-2,-12,-17,-17,-7,-3,-3
1523145389064401,1,0,-5,-17,0,-1,-1,2
1523145389064401,1,0,8,22,-10,-2,-3,-5
1523145389066406,0,2,8,39,35,5,2,3
1523145389066406,-2,9,18,-28,-13,-5,-5,-3
1523145389077940,0,-14,-26,8,0,0,-1,-5
1523145389077940,2,-5,-1,5,-24,-4,0,3
1523145389086963,-9,3,10,32,29,5,1,-4
1523145389086963,-1,-6,-18,-33,-27,-5,1,8
1523145389102007,-7,-2,-2,-12,-3,-5,-9,-14
1523145389102007,3,5,10,50,32,6,4,1
1523145389103505,3,1,0,-17,-18,-3,0,9
1523145389103505,-3,-5,-20,-22,20,0,-5,-13
1523145389124562,1,-3,9,-1,6,1,17,20
1523145389124562,-1,5,6,6,-22,-7,-12,-9
1523145389126066,-1,-12,-12,-6,-9,-13,-5,-10
1523145389126066,-2,2,-5,-9,12,2,-2,-7
1523145389138096,0,-6,-2,14,2,13,9,26
1523145389138096,2,3,8,6,-4,8,9,11
1523145389147123,4,12,1,-13,-2,15,3,2
1523145389147123,-6,-12,3,-4,-13,-11,-14,-26
1523145389162663,-4,-7,2,4,-5,-16,-14,-19
1523145389162663,1,3,-14,5,7,-14,-2,0
1523145389168180,0,9,21,0,-1,9,-1,-2
1523145389168180,9,-1,-21,-13,-6,-3,-1,6
1523145389184720,-9,-4,2,12,23,0,-2,-8
1523145389184720,0,-1,-1,5,16,3,-1,1
1523145389186225,9,3,-2,2,0,-4,0,-3
1523145389186225,-1,5,1,-10,-10,-1,1,4
1523145389206780,-21,0,1,-26,-19,-8,-3,-1
1523145389206780,7,-6,1,39,25,5,1,0
1523145389208784,-8,-3,-3,-5,-16,0,-6,-13
1523145389208784,-2,-5,-11,-53,-17,-5,0,7
1523145389221819,12,11,11,14,2,0,3,13
1523145389221819,-3,-2,-8,-24,-37,-1,-2,-1
1523145389223826,-7,-4,1,-80,1,-8,-6,-9
1523145389223826,-1,-9,-6,1,13,2,3,2
1523145389244881,9,10,3,-2,-21,-1,-1,-3
1523145389244881,-12,-15,-32,-52,-22,-10,-6,-9
1523145389250399,26,16,57,59,58,15,7,11
1523145389250399,-1,-4,-20,-71,-22,-7,-3,-4
1523145389266939,-6,-6,-19,-68,-19,-4,-4,-5
1523145389266939,9,3,8,16,14,3,0,0
1523145389268445,-12,-7,-27,-7,-23,-7,-5,-1
1523145389268445,-13,-9,7,30,-10,-6,-3,0
1523145389281979,10,23,37,82,32,13,7,5
1523145389281979,-5,-11,-11,-55,-21,-3,-1,-4
1523145389283484,15,8,-20,-64,-7,-11,-5,-4
1523145389283484,6,18,61,109,90,27,17,21
1523145389304542,-11,-9,-26,-77,-23,-12,-14,-20
1523145389304542,-11,-10,-12,-10,12,1,-1,-4
1523145389306043,9,-3,-14,-44,-13,-6,5,15
1523145389306043,-1,3,-28,-76,-67,-7,-3,2
1523145389334623,1,-13,-2,11,12,-1,-2,-4
1523145389334623,6,8,17,37,3,-1,-3,-8
1523145389336123,-12,-9,0,46,-2,1,-4,-14
1523145389336123,1,1,3,43,24,1,-2,-2
1523145389341137,3,0,-2,20,0,6,7,9
1523145389341137,0,-2,-11,-109,-37,-9,0,18
1523145389348157,-9,-10,-4,54,24,1,0,-1
1523145389348157,-7,-2,12,58,9,-2,-2,-7
1523145389364700,2,1,-6,-2,-4,-1,-2,-6
1523145389364700,-2,1,0,-33,-24,0,-3,-6
1523145389366204,-4,-3,-1,52,22,0,-1,-3
1523145389366204,3,7,8,-18,-10,-2,2,-3
1523145389386759,-10,-19,-22,-25,4,-3,-4,-1
1523145389386759,-12,-1,6,62,16,1,1,4
1523145389388766,-9,-9,-12,5,-13,-3,-2,-4
1523145389388766,2,-3,-10,-53,-20,-4,-9,-10
1523145389401297,1,6,9,0,-3,-1,6,8
1523145389401297,-2,-4,3,14,5,0,-1,-5
1523145389408316,-5,3,4,-20,24,0,0,4
1523145389408316,-1,-6,-22,-35,-20,-7,-6,-5
1523145389424358,2,5,11,24,3,-1,-2,-8
1523145389424358,5,7,8,41,24,6,1,2
1523145389425873,0,-6,-6,-31,-30,-4,-2,-2
1523145389425873,1,1,-6,18,34,-1,0,5
1523145389446918,-5,-9,-19,-85,-64,-7,-5,-4
1523145389446918,10,9,18,43,71,11,2,0
1523145389448423,-14,-10,-18,-63,-30,-8,-5,-1
1523145389448423,0,6,28,33,16,7,6,8
1523145389461460,3,-7,-7,-19,-3,-3,-5,-3
1523145389461460,-1,-1,-3,-3,-10,-4,-1,-6
1523145389467975,-3,-7,-8,-24,-15,-5,-6,-4
1523145389467975,-3,0,-7,-50,-41,-7,-2,4
1523145389484519,5,7,9,69,41,6,-1,-2
1523145389484519,-1,-2,5,-18,-12,-2,2,-1
1523145389486023,4,6,26,107,29,8,5,3
1523145389486023,-5,-9,-14,-36,-32,-6,-4,-5
1523145389507081,0,1,0,6,11,1,-1,0
1523145389507081,-5,-1,-5,-30,4,-6,-3,-3
1523145389508586,-2,3,-3,-25,-37,1,2,4
1523145389508586,2,-8,-14,5,5,-1,-1,-3
1523145389521618,-14,-7,-8,-50,-11,-4,-4,-4
1523145389521618,-2,3,20,54,48,10,2,-1
1523145389528135,2,4,6,0,2,0,0,2
1523145389528135,3,-1,-7,4,-5,2,1,3
1523145389544678,4,4,-2,-14,7,-3,1,-3
1523145389544678,-3,3,-7,-21,-39,-6,-6,-2
1523145389546183,-8,-13,-4,27,38,4,0,-3
1523145389546183,-2,-1,-2,-12,-2,-2,-2,0
1523145389566737,2,6,13,13,7,0,0,-1
1523145389566737,4,2,0,-13,-12,1,1,0
1523145389568744,1,2,-5,-21,-23,-5,-3,6
1523145389568744,-4,-7,-16,-15,25,2,-7,-18
1523145389581276,1,3,7,11,-15,0,1,4
1523145389581276,5,-8,-12,30,-13,-2,19,23
1523145389588296,0,3,11,-37,36,2,-8,-13
1523145389588296,-5,-1,2,4,-12,-5,2,5
1523145389604339,-3,0,1,16,-3,-5,-22,-35
1523145389604339,-1,-1,-11,-22,-15,-13,1,5
1523145389606344,-1,6,2,4,-3,-5,-5,-7
1523145389606344,-1,-5,1,5,1,24,12,7
1523145389626897,2,2,3,12,-12,-4,9,13
1523145389626897,-1,-1,-7,-7,19,-2,-13,-17
1523145389628402,0,0,16,-4,-3,1,12,21
1523145389628402,-4,-16,-11,1,-8,5,-15,-23
1523145389640437,1,0,-6,-9,3,-10,-2,3
1523145389640437,-4,-5,-17,0,-24,-1,2,2
1523145389649457,4,-1,43,-6,-8,9,-2,-9
1523145389649457,7,0,-20,12,-2,-9,3,6
1523145389664496,-5,-3,8,-4,21,7,5,10
1523145389664496,-3,-2,5,1,-24,-10,-11,-10
1523145389666002,-1,-7,-18,3,58,9,2,-1
1523145389666002,-8,-3,-1,-6,-12,-6,-4,0
1523145389687057,8,8,5,9,-14,1,0,1
1523145389687057,-2,3,2,-24,6,1,-2,-8
1523145389688562,1,1,-9,34,-44,-4,1,1
1523145389688562,0,2,3,-68,-4,-7,2,11
1523145389700595,-5,1,-1,87,10,6,-1,-4
1523145389700595,-1,-1,-6,-72,-17,2,0,-4
1523145389709619,10,-3,-9,12,-21,-7,-3,1
1523145389709619,-6,7,29,56,36,2,0,-4
1523145389724656,1,-7,-32,-100,-20,-7,-3,0
1523145389724656,3,-4,14,47,9,3,-4,-1
1523145389726162,1,6,-6,32,-11,-5,-3,-3
1523145389726162,1,-12,-11,-39,-24,-10,-5,-2
1523145389747218,-12,0,31,101,46,18,8,5
1523145389747218,-10,-13,-32,-120,-44,-12,-8,-9
1523145389748722,8,5,0,86,39,7,5,2
1523145389748722,-1,11,14,-26,-14,-2,-1,0
1523145389760754,-1,-21,-40,-122,-35,-19,-9,-9
1523145389760754,21,14,37,91,61,15,7,5
1523145389769778,-12,-7,1,-31,-10,-1,0,2
1523145389769778,3,7,4,8,-3,-2,0,-3
1523145389784317,-2,-9,-20,-110,-29,-14,-10,-12
1523145389784317,-7,-8,5,50,29,5,1,8
1523145389786322,3,9,11,-11,5,4,2,-2
1523145389786322,-3,-3,-4,-24,-8,1,1,4
1523145389806876,1,5,3,-16,11,1,2,-1
1523145389806876,-3,-9,-12,-13,-18,-4,-6,-11
1523145389808381,-10,-3,-12,-47,-11,-7,-3,-3
1523145389808381,-5,-11,-15,-52,-21,-5,-3,6
1523145389820414,-3,2,11,50,19,5,0,-6
1523145389820414,3,6,6,1,-1,3,1,2
1523145389829440,4,-8,-16,-43,-5,-5,-5,-1
1523145389829440,-4,4,7,-9,-17,-3,-1,-2
1523145389844479,0,-2,-4,4,-15,-4,2,8
1523145389844479,0,0,1,14,2,2,1,0
1523145389845985,1,0,1,7,1,-1,0,-1
1523145389845985,-1,1,-2,-2,13,-2,-2,-7
1523145389867036,2,0,3,37,14,5,0,6
1523145389867036,-4,3,5,-3,1,-2,-4,-13
1523145389868540,3,-5,-10,-34,-41,-10,2,3
1523145389868540,9,9,15,33,39,7,3,1
1523145389880575,-19,-12,-7,74,11,4,4,-3
1523145389880575,-8,-1,-14,-21,32,-3,-6,-4
1523145389889597,-1,2,9,4,-17,-1,-2,0
1523145389889597,3,-9,-10,14,8,1,0,-3
1523145389904636,8,10,12,-11,-2,3,1,4
1523145389904636,0,-2,-6,-40,-16,-4,1,9
1523145389906140,-7,-2,-7,18,1,2,-2,-4
1523145389906140,-1,5,1,16,9,-4,0,-3
1523145389927197,0,-7,6,-6,-11,-1,-1,-2
1523145389927197,-2,-1,-5,-15,20,0,0,1
1523145389928702,2,-5,-15,-2,-9,-5,-6,-8
1523145389928702,-3,2,11,18,-10,-2,-2,-1
1523145389940733,7,4,1,-4,0,0,2,2
1523145389940733,-4,1,5,6,36,0,1,1
1523145389949758,-4,-3,-4,-49,-23,-2,-2,-2
1523145389949758,3,-4,-5,-13,13,1,0,-2
1523145389964295,-2,3,-7,1,0,-1,1,5
1523145389964295,2,2,15,4,-22,-1,-3,-4
1523145389966300,-5,-4,-13,-30,-7,-3,-1,-1
1523145389966300,2,7,20,100,27,6,3,2
1523145389986856,-2,-5,-5,-24,-3,-2,-3,-3
1523145389986856,5,1,-7,-13,-20,3,3,0
1523145389988360,0,-1,3,-14,5,-1,3,13
1523145389988360,-18,1,-8,-42,-25,-9,-5,-7
1523145390000391,3,-5,-8,-25,6,0,-1,-1
1523145390000391,-3,4,17,81,6,4,2,2
1523145390009415,3,-3,-4,-55,-4,-4,-4,-8
1523145390009415,0,4,11,6,8,2,2,2
1523145390024458,-2,-6,-7,-31,-6,-1,-1,-1
1523145390024458,-6,-6,-12,-3,-9,-3,-4,-3
1523145390025960,0,4,11,2,-5,0,1,-1
1523145390025960,3,0,-8,-2,15,1,1,0
1523145390047021,0,3,1,24,-11,1,-1,-4
1523145390047021,-2,-8,-8,-84,-31,-9,-3,-2
1523145390049022,2,7,22,99,35,8,4,2
1523145390049022,-2,-6,-12,-55,-9,-3,-2,-5
1523145390069579,-7,-11,-18,-27,-18,-8,-4,-4
1523145390069579,3,9,21,24,17,9,8,9
1523145390071080,-7,-5,-19,-80,-10,-8,-5,-7
1523145390071080,-2,-4,-8,-4,-19,-4,-3,-3
1523145390084616,1,1,3,-42,-7,-3,-2,-3
1523145390084616,0,-1,-8,10,5,-3,0,1
1523145390086120,-5,-7,-9,4,-8,-3,-1,-1
1523145390086120,2,-6,-6,-24,-1,0,-1,1
1523145390107176,2,10,16,76,41,5,3,0
1523145390107176,-1,-2,-7,2,-14,-1,-4,-3
1523145390108683,0,2,5,12,5,2,3,5
1523145390108683,0,-2,-7,-22,-12,-4,-12,-13
1523145390129235,0,-2,10,15,-4,-2,1,5
1523145390129235,-1,1,2,-4,0,5,0,1
1523145390131239,-2,-6,-12,-22,-8,-4,-3,-3
1523145390131239,1,1,-1,7,-24,-4,10,16
1523145390144775,0,11,1,20,17,1,-8,-8
1523145390144775,-6,-14,-5,5,7,-4,2,-4
1523145390146279,-5,-5,-4,-23,-26,-12,-13,-14
1523145390146279,3,3,-3,20,34,5,17,17
1523145390166835,-6,-6,7,-1,-8,20,-4,-2
1523145390166835,3,4,-3,-3,-30,-16,-6,-3
1523145390168841,1,-1,-2,4,16,2,-3,-1
1523145390168841,-1,9,8,20,-5,4,-8,-6
1523145390189395,4,-5,3,-12,-5,-10,5,4
1523145390189395,-5,-5,-6,-8,-14,7,-7,-8
1523145390190899,5,2,2,0,0,-4,4,3
1523145390190899,-1,-5,-14,15,-3,-7,-9,-11
1523145390204435,-7,-6,-4,-24,-1,-4,0,0
1523145390204435,-15,-5,-4,-17,-17,-5,-1,-3
1523145390205939,2,0,-4,25,38,4,5,7
1523145390205939,1,5,15,-6,-4,5,0,-2
1523145390226998,3,2,-2,4,14,-1,-3,-5
1523145390226998,11,4,-7,-16,9,-6,0,2
1523145390228498,-16,-13,-5,-16,-1,6,-1,-8
1523145390228498,-2,-6,-13,-39,-27,-5,-4,1
1523145390249554,5,7,14,66,15,3,5,7
1523145390249554,4,2,-9,-5,6,-4,-2,0
1523145390251059,7,8,13,-9,-7,7,2,1
1523145390251059,-6,-10,-16,-81,-36,-12,-8,-10
1523145390263097,1,6,19,81,28,10,8,2
1523145390263097,-6,-11,-22,-9,7,-2,-2,1
1523145390272115,-2,-1,-6,46,-12,-6,-2,-2
1523145390272115,5,8,30,83,47,12,5,3
1523145390287154,-4,-3,-22,-128,-49,-16,-11,-4
1523145390287154,8,4,22,52,17,9,4,6
1523145390288658,-2,-4,-12,-36,-4,-3,-3,-1
1523145390288658,6,-6,-12,-30,-16,-7,-4,-4
1523145390309714,-22,-9,-14,-5,-2,-5,-2,-3
1523145390309714,2,0,-4,-11,-18,-1,-2,-1
1523145390311219,3,2,16,17,35,1,-1,1
1523145390311219,-5,-11,-30,-55,-7,-5,-3,-2
1523145390323251,13,-9,-20,-42,-37,-8,-2,-3
1523145390323251,7,8,34,63,52,12,2,-4
1523145390332274,-12,0,-14,-73,-20,-5,-3,-6
1523145390332274,9,5,26,89,27,6,5,15
1523145390347315,5,9,18,54,25,11,8,7
1523145390347315,-4,-5,-18,-55,-32,-8,-3,0
1523145390348819,2,-6,-28,-58,-33,-10,-5,-9
1523145390348819,-14,1,31,94,46,8,3,-6
1523145390369373,-2,-3,-15,-45,-20,-12,-15,-26
1523145390369373,3,3,6,11,-4,3,6,9
1523145390370879,-5,-7,-12,-20,1,0,7,30
1523145390370879,-3,2,-9,-76,-41,-7,0,2
1523145390382908,2,4,13,85,25,5,0,3
1523145390382908,-10,-4,-10,-38,-10,-6,-12,-28
1523145390392433,1,-1,4,11,-7,-2,3,3
1523145390392433,-4,-10,-20,-1,-12,-6,-5,-1
1523145390406976,-2,7,22,15,21,5,0,-2
1523145390406976,-1,0,-26,-36,-33,-9,-6,-12
1523145390408477,0,-1,25,59,16,7,2,8
1523145390408477,4,-4,-1,-8,-17,-3,-3,-7
1523145390429537,-3,-1,-15,-73,-29,-2,2,11
1523145390429537,-5,-1,2,16,18,0,2,7
1523145390431039,-17,2,-1,10,1,-2,-5,-10
1523145390431039,3,5,8,4,9,7,2,-3
1523145390444077,1,-4,-7,-42,-32,-5,-2,-4
1523145390444077,0,3,13,92,19,1,4,9
1523145390450591,8,0,5,-13,-14,1,-2,-7
1523145390450591,-6,-5,-14,-40,22,-5,-4,-4
1523145390467133,-8,-7,-13,-19,6,-2,-1,1
1523145390467133,1,-1,3,-54,-11,0,2,5
1523145390468638,3,3,13,20,11,1,-3,-4
1523145390468638,-2,-4,-15,0,-13,-4,-3,-4
1523145390490198,-4,0,-2,11,20,4,0,2
1523145390490198,-3,-3,2,-43,-38,-5,-2,2
1523145390491698,3,5,3,38,17,2,-1,-4
1523145390491698,-3,-5,-8,-30,1,-2,-4,-3
1523145390503731,3,-4,0,9,10,-2,1,-1
1523145390503731,-4,5,3,5,3,0,-3,-3
1523145390510749,1,-8,-8,2,3,1,-1,-2
1523145390510749,-2,2,6,-5,-11,-4,-4,0
1523145390526791,1,0,-6,-13,-27,-7,-2,0
1523145390526791,-8,-2,7,30,77,10,2,0
1523145390528797,2,3,-1,-16,-16,-2,3,2
1523145390528797,-2,0,4,4,-4,-1,-3,-3
1523145390549353,-1,4,7,3,-3,-1,3,-2
1523145390549353,3,-6,3,1,-1,1,-1,1
1523145390551360,-8,-8,-13,1,-1,-3,-2,-7
1523145390551360,-1,3,5,-1,3,2,1,2
1523145390563390,3,2,2,11,25,0,-1,4
1523145390563390,3,1,-2,-5,-27,1,0,5
1523145390571413,-1,2,-2,-3,7,-2,-6,-5
1523145390571413,3,-1,3,20,-24,-1,1,-1
1523145390586450,-1,0,7,-21,-46,-8,-3,-1
1523145390586450,2,4,-5,-5,2,2,-2,-5
1523145390586952,-5,-7,-2,-2,16,0,-4,-9
1523145390586952,-2,-1,1,2,-26,-1,4,9
1523145390609009,7,-6,-3,16,27,4,1,-5
1523145390609009,-5,1,4,-9,-16,0,0,2
1523145390609512,1,-7,-12,2,-19,-5,-1,-3
1523145390609512,-1,3,-12,-4,14,-1,-8,-15
1523145390623047,-3,-5,9,1,9,-3,1,5
1523145390623047,0,1,-2,-4,-38,-9,-1,1
1523145390631570,5,4,9,3,86,4,1,7
1523145390631570,-1,0,-2,-13,-4,6,6,2
1523145390646110,-5,-2,-5,26,15,4,-5,-6
1523145390646110,-1,-3,-2,-9,10,-4,-2,-3
1523145390647112,9,5,7,-7,-17,-3,0,-2
1523145390647112,-9,-12,-13,3,0,4,-2,0
1523145390668676,1,8,3,-10,-10,-8,-2,0
1523145390668676,2,-1,-1,9,0,-2,-1,-1
1523145390669675,-1,0,-3,-2,-21,-5,-4,-1
1523145390669675,-2,0,1,-10,-7,-13,-6,-2
1523145390683210,0,-6,-7,7,-2,-1,-1,4
1523145390683210,0,-5,-2,-15,8,-4,-2,-3
1523145390691230,-3,3,0,-10,18,5,2,1
1523145390691230,4,4,2,-6,3,4,5,5
1523145390706270,0,2,11,23,-2,0,-1,2
1523145390706270,-10,-12,-30,-74,-38,-11,-10,-13
1523145390707272,-2,8,28,72,18,4,4,-1
1523145390707272,4,2,1,-26,6,-5,3,12
1523145390728830,2,-5,-16,-5,-19,-3,-1,4
1523145390728830,0,2,11,66,51,14,6,0
1523145390729831,-6,-7,-26,-128,-66,-15,-6,3
1523145390729831,-6,-5,10,21,9,3,0,-11
1523145390742867,8,-7,-25,-53,-24,-5,-4,-5
1523145390742867,-8,-3,12,-13,2,1,-4,1
1523145390751389,0,-1,-9,-8,7,3,0,-5
1523145390751389,-16,-12,0,-49,-38,-9,-14,-6
1523145390766430,-1,-3,-18,-64,14,-4,-1,-4
1523145390766430,-13,1,11,31,-2,5,1,-5
1523145390766931,-6,14,25,14,-4,4,3,1
1523145390766931,-7,-19,-22,-11,-4,-4,0,4
1523145390797011,-8,1,0,-27,-8,-4,-4,-6
1523145390797011,5,-1,-5,24,4,-3,-2,2
1523145390797512,2,3,8,4,-21,1,2,3
1523145390797512,2,7,-2,-6,3,-2,-6,-8
1523145390819575,-7,-7,1,-11,1,-2,-2,-2
1523145390819575,9,4,18,24,12,9,4,6
1523145390820074,2,-6,-13,-3,-6,-3,-7,-17
1523145390820074,7,3,1,22,-15,-6,0,19
1523145390826091,2,3,14,-2,74,13,3,-3
1523145390826091,3,-1,-2,10,-5,-2,1,0
1523145390827093,-5,-9,-23,-68,-38,-9,-5,0
1523145390827093,7,9,16,77,18,8,3,-9
1523145390848647,-4,-4,1,0,6,1,4,18
1523145390848647,1,-3,-16,-42,-25,-6,-1,3
1523145390849651,5,1,5,72,6,4,-2,-8
1523145390849651,-6,-3,-2,-32,-4,-6,-3,-5
1523145390872210,2,2,9,39,-5,2,-1,-3
1523145390872210,4,-1,-3,-28,-8,-2,-3,-7
1523145390872713,-2,-5,-8,-23,-11,-5,-2,5
1523145390872713,5,5,0,-14,8,3,2,1
1523145390886250,-2,-1,-2,30,10,0,-4,-5
1523145390886250,-4,0,5,1,-23,-4,-2,2
1523145390887251,5,1,9,16,38,5,3,2
1523145390887251,4,0,-5,-2,-7,-2,2,1
1523145390908811,-3,0,-15,-13,-32,-3,-1,-2
1523145390908811,-2,-7,-6,-35,2,-6,-3,-5
1523145390909812,1,4,10,24,14,4,2,8
1523145390909812,6,2,8,42,22,6,1,-3
1523145390931873,-2,0,0,-29,-27,-5,-3,-5
1523145390931873,4,5,-2,-4,0,0,0,4
1523145390932874,-11,-7,-7,-17,5,-6,-3,-1
1523145390932874,-3,-2,0,15,5,3,-2,-1
1523145390946412,-4,-3,-7,-37,-28,-2,0,-1
1523145390946412,-1,-4,-3,-2,3,-1,1,0
1523145390946910,-2,2,4,-1,24,2,-1,-2
1523145390946910,-5,-8,1,-34,4,-5,0,1
1523145390968968,2,3,6,15,-1,1,1,-3
1523145390968968,0,-2,-12,-50,-10,-4,-4,-5
1523145390969470,0,-2,-2,30,-7,0,0,2
1523145390969470,2,4,-1,27,3,0,-4,-3
1523145390992029,-9,-11,-19,-29,-8,-4,-3,-2
1523145390992029,0,6,12,46,19,3,1,3
1523145390992531,-1,2,-7,-61,-25,-9,-3,-1
1523145390992531,-5,-3,5,13,15,3,1,-1
1523145391006070,-1,-5,10,33,13,1,0,-5
1523145391006070,1,0,-9,-14,-5,-2,-2,0
1523145391007073,-2,-4,-7,2,-12,0,1,3
1523145391007073,3,2,-6,-49,-10,-4,-1,-3
1523145391029131,9,7,5,8,13,-1,-2,-3
1523145391029131,-7,-5,-6,-5,-25,-3,-2,0
1523145391029631,5,4,7,42,15,5,2,2
1523145391029631,-8,-5,9,-51,-12,-3,-2,-6
1523145391051689,-1,5,5,56,15,3,1,-2
1523145391051689,1,1,-1,7,15,-1,1,8
1523145391052692,-2,-5,-5,-20,-21,-5,-1,-4
1523145391052692,-4,1,-14,-44,1,-5,-5,-5
1523145391066728,-2,2,13,65,10,3,2,0
1523145391066728,-8,-8,-7,-16,-2,-1,2,1
1523145391073747,-4,0,-2,-1,-23,-5,-6,-5
1523145391073747,2,-4,1,12,17,5,6,-3
1523145391088786,-3,-1,-4,-24,-4,-2,-5,1
1523145391088786,5,2,1,15,9,0,6,8
1523145391089289,-3,-5,1,2,-13,-3,0,1
1523145391089289,-4,-1,-8,24,-10,-7,-10,-12
1523145391112853,0,-1,-1,-41,-4,6,-4,-6
1523145391112853,-1,-1,5,13,-1,-4,1,0
1523145391113356,0,-6,-5,-6,15,-4,0,-4
1523145391113356,0,-1,-3,3,-22,-6,-1,-1
1523145391126389,1,6,5,0,45,26,6,3
1523145391126389,0,-13,1,0,8,8,-3,-1
1523145391126891,-3,-4,-1,7,11,0,-2,-5
1523145391126891,0,0,-4,6,-5,2,-1,4
1523145391148947,-4,-3,-1,-14,-19,-19,-4,-2
1523145391148947,-3,5,-6,-6,-22,-32,-7,-8
1523145391149449,1,-16,2,1,18,38,1,-2
1523145391149449,2,2,0,13,28,8,8,6
1523145391172008,-6,-2,-4,-18,-74,-15,-10,-5
1523145391172008,8,9,13,0,83,-7,2,3
1523145391172510,-10,3,-2,-10,-52,-3,-4,-3
1523145391172510,-4,-20,-28,-7,-8,-5,-1,-2
1523145391186046,3,7,14,-14,2,10,4,4
1523145391186046,8,1,-4,14,-36,-12,-5,-2
1523145391187050,0,10,10,-4,7,-9,0,1
1523145391187050,2,8,11,11,43,8,0,-5
1523145391209108,-9,-16,-26,-3,-54,-12,-3,-2
1523145391209108,-5,2,11,6,32,12,2,8
1523145391209610,1,-2,-6,-23,-26,-1,-2,-6
1523145391209610,-4,-3,-12,-38,-21,-6,-1,7
1523145391232169,9,7,30,82,35,11,5,1
1523145391232169,-3,-2,-17,-65,-26,4,-4,-8
1523145391232671,-8,-12,-25,-31,-14,-6,-4,-3
1523145391232671,4,14,29,59,33,1,3,2
1523145391246709,1,-6,-37,-32,-13,-15,-7,-3
1523145391246709,9,-3,31,93,44,21,4,-2
1523145391247709,0,-3,-17,-101,-10,-11,-2,-2
1523145391247709,-6,8,19,25,-4,-2,-1,-1
1523145391268766,-8,-13,-41,-97,-13,-6,0,2
1523145391268766,-16,0,24,71,6,8,1,-5
1523145391276287,8,5,6,72,30,0,1,6
1523145391276287,20,-7,-12,-121,-31,-7,-4,1
1523145391291831,1,5,-10,-6,-4,-6,-5,-5
1523145391291831,-9,1,0,-55,4,3,-1,-3
1523145391292829,0,-16,-30,-58,-3,-8,-2,-3
1523145391292829,-5,4,15,71,5,6,1,1
1523145391306366,6,-3,9,-4,6,-1,1,0
1523145391306366,2,1,-8,24,-9,0,-1,-7
1523145391306868,5,14,29,62,24,7,8,14
1523145391306868,-3,-6,-22,-90,-29,-11,-7,1
1523145391328926,1,1,23,58,8,5,2,-2
1523145391328926,-2,-5,-15,-11,-22,-2,-7,-4
1523145391329428,-5,1,4,-2,26,-2,-2,-7
1523145391329428,1,2,-5,9,-8,0,2,9
1523145391351987,0,1,10,-17,21,1,2,12
1523145391351987,-1,-1,-5,16,-29,-2,-8,-17
1523145391352989,1,-3,-8,-12,-6,-3,3,-6
1523145391352989,-5,-4,-3,-27,-6,-4,8,31
1523145391366527,-2,1,15,60,14,4,-1,-6
1523145391366527,-2,-5,-16,-42,-15,-8,-5,0
1523145391367029,0,1,-1,10,-18,-2,-8,-9
1523145391367029,-3,-3,2,19,40,6,-1,-13
1523145391388585,-14,-4,-6,-19,-6,-4,-3,-1
1523145391388585,-1,1,4,-28,-9,-5,1,4
1523145391389590,-3,-4,-9,22,2,-2,-4,-4
1523145391389590,-3,-3,-2,6,-9,-3,-3,-4
1523145391411145,-1,5,-7,-32,-9,-3,1,2
1523145391411145,5,-13,-9,2,-8,2,0,-3
1523145391412148,-9,10,17,-67,0,-6,-4,-6
1523145391412148,5,-5,-4,68,-22,4,2,3
1523145391426189,6,2,5,28,17,4,4,4
1523145391426189,-2,1,0,-1,-9,1,2,1
1523145391427189,1,-1,1,-38,-12,-6,-4,1
1523145391427189,-4,8,5,73,-9,0,-3,-10
1523145391448746,6,-4,5,-24,-1,-7,-3,-6
1523145391448746,-8,-6,-17,-43,-12,2,1,3
1523145391449748,0,-4,1,37,2,9,-1,2
1523145391449748,-3,-5,-6,-15,9,-1,-6,-13
1523145391471306,-2,0,2,-8,-8,-4,-2,1
1523145391471306,8,-1,-4,10,14,-1,3,8
1523145391472308,1,-1,2,19,4,-3,-4,-1
1523145391472308,-9,-3,-3,-26,-10,-1,-4,-5
1523145391486346,-5,-3,-11,-21,-16,-4,0,-1
1523145391486346,-2,-4,-12,-34,4,0,-1,-4
1523145391486847,0,3,11,48,5,3,3,3
1523145391486847,4,-1,-2,-19,-7,0,1,0
1523145391508904,-4,-1,-2,-4,11,0,1,-2
1523145391508904,-4,4,2,2,-17,-4,-1,-1
1523145391509406,4,-1,6,4,3,-3,3,4
1523145391509406,-2,-3,0,-5,9,2,-2,-4
1523145391531465,-2,0,0,-16,-2,1,-1,-4
1523145391531465,0,-2,-6,6,3,2,-1,3
1523145391531967,1,1,-3,-12,-9,-2,1,-1
1523145391531967,1,-3,-3,-19,-10,-6,-1,-1
1523145391546506,0,-3,-4,9,2,-3,-4,-5
1523145391546506,0,3,-2,-25,12,-4,-2,-3
1523145391547008,0,1,2,37,5,0,3,4
1523145391547008,1,6,7,-10,-9,-6,-1,-5
1523145391568564,1,-2,-4,39,23,11,0,-1
1523145391568564,2,2,8,-8,-8,-3,0,3
1523145391569566,-3,0,-7,2,26,-6,-2,-3
1523145391569566,0,8,14,8,8,-5,-1,-2
1523145391591123,-6,-14,-18,-5,-3,-2,-3,-5
1523145391591123,2,3,2,-13,-43,10,12,15
1523145391592127,-3,-7,-5,6,-16,1,-1,2
1523145391592127,-6,-5,-7,-12,2,-6,-6,-8
1523145391606166,-1,0,-3,-8,-2,-25,-7,-4
1523145391606166,6,4,-2,4,-15,-6,-7,-15
1523145391607167,-3,-5,4,13,45,27,10,13
1523145391607167,-3,-5,-6,-2,-18,2,0,3
1523145391629385,2,0,-2,-17,4,7,0,-1
1523145391629385,-1,2,2,16,-2,-5,-9,-7
1523145391629885,8,1,-2,14,31,-14,-7,-5
1523145391629885,-23,-10,-4,6,58,7,2,1
1523145391651442,0,6,7,-24,-83,-5,-3,-1
1523145391651442,-8,-8,0,-2,2,-8,-2,-2
1523145391651944,1,1,1,-10,17,5,-1,-1
1523145391651944,4,1,-5,1,-19,2,2,2
1523145391665481,2,3,5,-5,27,-5,-1,-8
1523145391665481,-22,-13,-10,29,7,2,-2,-7
1523145391674001,2,-6,-10,-15,18,-9,-1,7
1523145391674001,13,5,-11,-60,-26,0,0,9
1523145391688542,14,20,45,49,42,35,14,10
1523145391688542,-3,1,-11,-83,-17,-3,-3,-9
1523145391689544,-24,-17,-36,-39,-51,-22,-12,-17
1523145391689544,5,10,36,32,22,8,3,0
1523145391711102,-10,-17,-50,-116,-43,-21,-10,-4
1523145391711102,10,11,58,127,86,25,12,9
1523145391712104,2,13,8,-105,-45,-5,0,0
1523145391712104,-9,-19,-63,-100,-39,-15,-9,-8
1523145391725640,-7,12,55,80,43,13,6,6
1523145391725640,29,0,-17,-90,3,-9,-2,1
1523145391733662,-15,-10,-25,-80,-49,-12,-9,-8
1523145391733662,5,16,44,127,51,18,12,8
1523145391748702,-12,-14,-31,-54,-15,-10,-7,-8
1523145391748702,-6,-12,-41,-112,-51,-19,-11,-4
1523145391749704,19,23,67,127,59,27,15,11
1523145391749704,-13,-4,-18,-106,-39,-15,-11,-10
1523145391771264,5,-6,-6,93,6,-1,1,1
1523145391771264,-6,6,10,1,6,1,0,1
1523145391772264,3,-7,-23,-58,-33,-8,-3,-2
1523145391772264,-6,-1,3,47,6,0,-2,1
1523145391785799,4,6,23,71,16,6,4,0
1523145391785799,0,0,-1,-16,0,0,0,-2
1523145391793820,-3,-1,4,31,3,0,-1,-3
1523145391793820,10,-3,-18,-33,-5,-6,-2,-1
1523145391808863,3,4,17,8,15,6,3,9
1523145391808863,-9,-1,1,17,-26,-4,2,4
1523145391809364,-4,-4,-8,-9,-13,-5,-5,-7
1523145391809364,0,-3,3,-24,2,-2,-2,-10
1523145391831922,-5,-2,-16,-46,-2,-6,-8,-7
1523145391831922,-1,-4,-1,17,-15,-11,-4,-6
1523145391832425,3,3,7,-13,30,16,5,3
1523145391832425,2,-2,6,35,28,4,1,-1
1523145391845461,-5,0,-2,-17,-11,-5,-2,0
1523145391845461,1,5,0,14,7,1,-1,1
1523145391853982,5,-4,-6,-2,-12,-6,-1,1
1523145391853982,-15,-7,1,7,-11,0,-1,-1
1523145391869021,3,-1,-8,-30,-2,0,1,0
1523145391869021,-3,-1,-2,-10,7,-3,-1,0
1523145391869523,-3,-3,2,25,-6,-1,-2,-1
1523145391869523,7,0,-1,-3,-3,2,0,1
1523145391891079,-7,-8,-16,-35,-16,-7,-2,-1
1523145391891079,4,2,7,-12,-4,2,1,1
1523145391892082,4,-2,-5,1,-7,-3,-3,-3
1523145391892082,-2,4,10,15,6,2,0,1
1523145391905621,-5,-12,-24,-53,-25,-8,-4,0
1523145391905621,-5,-2,5,23,20,1,-1,-5
1523145391913644,-1,-1,-1,1,0,-4,-2,-2
1523145391913644,5,2,-6,-9,-25,-2,0,0
1523145391928682,3,-5,6,13,15,2,1,6
1523145391928682,0,1,-2,21,5,3,1,2
1523145391929686,-2,2,4,18,-6,1,-1,-2
1523145391929686,1,0,-2,-18,6,-1,-1,-5
1523145391951241,0,5,-1,-13,-12,-1,0,-3
1523145391951241,-2,-7,-12,-20,-13,-3,-1,0
1523145391952245,-3,-4,-3,34,10,2,0,-2
1523145391952245,4,4,16,15,8,0,2,2
1523145391965778,2,1,1,-7,4,-1,0,2
1523145391965778,1,-7,-11,-30,-20,-3,-3,-4
1523145391973801,-4,4,8,-8,1,-3,-1,0
1523145391973801,3,-5,-5,20,-10,-3,-3,-2
1523145391988839,1,1,11,47,25,6,3,0
1523145391988839,-5,2,3,-20,-1,-3,-6,-6
1523145391989342,7,0,-11,-18,-27,-4,0,1
1523145391989342,-6,1,13,1,21,1,0,-1
1523145392011401,-3,0,-13,-32,-18,-8,-5,-3
1523145392011401,-2,-5,5,9,5,2,3,4
1523145392011902,-11,-1,4,20,8,2,0,-2
1523145392011902,-4,-3,-6,6,-16,-6,-5,-6
1523145392034462,2,-3,-2,-30,-2,-5,-2,-1
1523145392034462,4,1,9,6,8,5,4,7
1523145392035463,-4,0,-1,-3,4,-6,-6,-9
1523145392035463,-5,-7,-14,-15,-45,-3,-2,4
1523145392048499,-1,2,11,-9,30,4,3,3
1523145392048499,-2,0,-1,35,-5,-10,-2,-8
1523145392049501,5,3,2,-8,79,6,10,18
1523145392049501,-2,-2,-6,-10,-35,3,-10,-14
1523145392071058,0,-4,-4,-3,-42,-8,-6,-7
1523145392071058,-1,2,0,10,10,-18,-2,5
1523145392072061,-5,-7,-4,-24,-32,14,0,-5
1523145392072061,-3,0,-8,-15,16,-6,-1,-1
1523145392094624,-1,1,14,19,23,26,12,10
1523145392094624,-3,-9,-14,0,-46,8,-5,-9
1523145392095124,0,7,5,13,0,-12,-4,-1
1523145392095124,-3,4,1,-4,31,-19,3,7
1523145392109163,-2,-5,-4,-6,-38,-3,-7,-7
1523145392109163,-3,4,11,5,11,0,0,2
1523145392110165,-3,-2,-3,0,5,-5,-5,-6
1523145392110165,3,0,1,-19,-34,-3,-2,-1
1523145392131221,-1,-4,-13,16,30,-6,2,3
1523145392131221,0,1,11,8,8,5,1,0
1523145392132223,-1,-5,-4,8,-8,0,-1,-5
1523145392132223,8,2,-4,-42,-18,-6,-7,-5
1523145392154281,-8,0,0,12,-34,-1,2,8
1523145392154281,4,-3,-13,-10,23,5,5,2
1523145392155283,-8,-7,5,-2,-15,1,-6,-7
1523145392155283,3,-1,6,38,26,9,3,-3
1523145392168819,-3,2,0,-23,-8,-6,-5,-8
1523145392168819,5,2,4,4,-3,5,3,10
1523145392169320,-3,3,-16,-87,-37,-14,-2,2
1523145392169320,0,-12,7,93,51,9,3,-1
1523145392191378,-4,0,-2,-16,10,2,1,-5
1523145392191378,-8,-5,-22,-30,-24,-15,-7,-10
1523145392191881,8,1,40,53,31,10,5,3
1523145392191881,-6,-4,-36,-128,-46,-11,-8,-3
1523145392214440,-1,3,19,122,54,17,5,3
1523145392214440,4,4,6,26,-8,-2,-1,2
1523145392215442,-18,-17,-65,-103,-50,-22,-10,-6
1523145392215442,16,25,98,118,98,35,19,12
1523145392228979,-1,-5,-28,-128,-60,-26,-12,-7
1523145392228979,4,-4,-16,-90,14,4,3,-4
1523145392229481,-20,3,19,42,4,2,0,3
1523145392229481,-1,-7,-4,27,3,-1,-3,-4
1523145392251041,-25,-7,-4,-52,-13,-9,-5,-11
1523145392251041,6,8,26,51,12,3,-2,-1
1523145392252041,17,-9,-13,52,31,7,5,14
1523145392252041,-2,-3,-37,-85,-43,-17,-6,1
1523145392274600,4,4,27,117,19,10,3,-1
1523145392274600,-4,5,-2,-36,29,2,0,-2
1523145392275102,-6,-7,-15,-23,-25,-5,-7,-9
1523145392275102,-6,-4,0,24,15,-7,-2,-4
1523145392288639,7,-2,-8,-65,-11,9,-2,6
1523145392288639,-9,-7,-10,4,-14,-3,-1,1
1523145392289641,12,7,8,7,22,2,-3,-9
1523145392289641,0,0,13,67,29,10,3,3
1523145392311200,4,6,-14,-70,-14,-7,1,4
1523145392311200,-2,-4,-5,0,2,1,0,1
1523145392312202,6,-1,10,7,-5,5,3,4
1523145392312202,-5,-4,-14,-51,-28,-5,-7,-3
1523145392334259,-1,-5,-9,30,-3,-6,-6,-8
1523145392334259,-3,-1,4,11,1,0,0,2
1523145392335264,-5,3,3,-15,-21,-4,0,-1
1523145392335264,1,6,-9,-21,32,-1,1,-2
1523145392348797,5,-14,-4,20,3,6,1,1
1523145392348797,-3,-3,-7,-9,-12,-3,-3,-2
1523145392349800,2,0,2,-16,-1,-7,1,1
1523145392349800,2,0,-9,-3,-30,7,0,-2
1523145392371359,-5,3,2,31,61,3,2,0
1523145392371359,8,4,4,13,4,7,2,-2
1523145392371860,-2,3,16,-3,1,2,-4,-6
1523145392371860,-4,-5,-12,-27,-22,-4,1,4
1523145392394420,5,-1,-6,-47,-12,-8,-3,-4
1523145392394420,-6,-9,-14,-6,-20,-12,-3,-2
1523145392395422,-8,3,13,58,17,6,3,4
1523145392395422,-10,-8,-14,-112,-39,-11,-7,-4
1523145392408959,5,7,27,110,-4,4,1,-3
1523145392408959,0,3,-9,-45,22,-1,-1,3
1523145392409459,5,-4,-7,-17,-16,0,0,0
1523145392409459,-4,-3,-9,16,-5,-3,-1,-4
1523145392431017,1,-2,-11,-34,-25,-3,-2,-2
1523145392431017,-2,2,13,13,8,-2,-3,-4
1523145392432020,1,1,-1,-7,-8,-3,-1,-2
1523145392432020,1,2,5,42,21,6,4,5
1523145392453579,8,2,-4,-4,22,-4,-5,-3
1523145392453579,-3,-1,6,9,-21,2,-1,-1
1523145392461600,2,1,-4,13,-3,0,0,-1
1523145392461600,-5,-2,-1,-6,-10,-4,-2,-2
1523145392469119,-3,-4,-12,-38,8,-2,-1,0
1523145392469119,2,4,4,32,-8,3,2,0
1523145392469621,-2,3,-2,63,18,3,0,-3
1523145392469621,-3,-1,-7,-57,-32,-5,-4,-1
1523145392491177,12,9,29,81,69,5,5,4
1523145392491177,-7,-6,-12,-28,-11,-2,-3,-5
1523145392492183,5,-1,-3,-18,-9,-2,-1,2
1523145392492183,0,1,4,28,19,3,3,1
1523145392514739,-6,0,-3,-43,-29,-9,-5,-5
1523145392514739,-3,-5,-4,-22,-2,-3,-2,0
1523145392515241,1,-1,-4,25,20,4,0,2
1523145392515241,0,-3,1,10,0,-3,-1,0
1523145392528780,-4,-3,-1,-33,-22,0,0,0
1523145392528780,0,3,10,24,3,-1,-2,-2
1523145392529780,-5,-11,-24,-50,-12,-5,-3,-2
1523145392529780,0,1,2,16,-7,-1,-1,1
1523145392551337,-12,-3,-12,-1,-6,0,-1,-6
1523145392551337,-1,-2,8,-5,-2,-4,-3,1
1523145392552340,1,3,8,-38,-10,-2,2,3
1523145392552340,-1,-3,0,5,2,-1,1,-2
1523145392574399,5,2,-4,-1,2,-2,-3,-4
1523145392574399,-3,-1,-8,-8,13,-2,-2,-3
1523145392575402,-5,-1,3,-23,-14,-6,-12,-12
1523145392575402,4,-9,-1,39,23,3,2,6
1523145392587935,-3,1,-1,-14,-24,-1,-1,-1
1523145392587935,2,0,-1,-5,6,-5,-3,-6
1523145392596457,-2,2,3,5,1,12,6,11
1523145392596457,-2,-5,-5,-9,16,-1,-4,-9
1523145392610995,-1,-1,-4,-5,-36,-1,2,8
1523145392610995,3,4,3,10,-14,5,-1,-4
1523145392611998,-3,-2,-4,-3,-3,-5,-5,-7
1523145392611998,3,8,-12,-2,-4,-2,-1,0
1523145392634558,-7,-21,9,10,20,3,6,7
1523145392634558,3,5,5,9,1,2,1,3
1523145392635059,0,0,-3,-11,-9,-5,0,-3
1523145392635059,1,-7,-10,-7,-20,4,-4,-3
1523145392657628,1,1,-3,-3,12,-7,-4,-4
1523145392657628,0,-13,-15,-4,7,0,-3,-4
1523145392658623,-7,-1,6,-8,-5,-10,-1,1
1523145392658623,-5,3,1,0,-27,10,0,-1
1523145392671157,-5,-8,-2,-1,-16,-4,-3,-5
1523145392671157,-3,1,3,-6,-12,1,0,-1
1523145392672160,0,-9,-5,7,45,5,-1,-3
1523145392672160,1,8,13,-14,-16,-6,-1,3
1523145392694718,0,3,-6,-4,1,-6,-3,-1
1523145392694718,-6,-2,-18,-50,-67,-10,-8,-7
1523145392695222,3,4,21,58,54,10,4,6
1523145392695222,-5,-5,-14,-83,-14,-9,-4,0
1523145392708254,14,12,16,71,35,9,6,10
1523145392708254,3,5,12,7,17,3,3,2
1523145392716276,0,-9,-30,-114,-38,-13,-11,-17
1523145392716276,-15,-10,18,127,26,6,5,-1
1523145392731316,2,1,-25,-128,-5,-7,-5,-5
1523145392731316,-8,14,37,50,18,-4,0,1
1523145392731817,9,-3,7,78,8,12,4,-1
1523145392731817,-2,-8,-23,-85,-13,-12,-9,-13
1523145392754385,-2,0,-8,-76,-16,0,2,10
1523145392754385,6,8,16,75,35,6,4,5
1523145392755390,-2,-4,-14,-25,-19,-6,-4,2
1523145392755390,1,-1,-3,-71,-22,-7,-1,1
1523145392767912,-4,10,26,114,47,13,2,-4
1523145392767912,-10,-14,-26,-74,-9,-6,-4,-3
1523145392776436,0,5,4,-3,-2,-6,-2,2
1523145392776436,4,-1,-1,-37,-17,1,8,3
1523145392791477,-5,-5,-1,12,-8,3,-9,-15
1523145392791477,2,-6,-3,-28,11,2,1,3
1523145392791977,-4,0,1,27,-2,-1,2,-14
1523145392791977,1,3,3,-40,6,-5,-2,11
1523145392814538,6,2,-5,34,-22,-3,1,12
1523145392814538,-2,-6,-9,-12,-11,1,1,8
1523145392815039,-10,0,-2,-31,0,-3,-3,2
1523145392815039,3,1,5,32,17,1,-3,-17
1523145392828076,-5,-9,0,-8,-15,-5,0,-5
1523145392828076,4,1,-6,-11,-12,-1,3,4
1523145392836095,-1,6,-2,-18,-16,-1,2,5
1523145392836095,-2,-7,0,49,9,0,-4,-2
1523145392851137,-4,1,2,11,3,-2,-4,-5
1523145392851137,2,-6,-14,-39,-4,0,-3,-8
1523145392852139,-1,1,7,41,-16,-2,-2,2
1523145392852139,1,11,12,33,17,6,-2,-2
1523145392874698,-4,-17,-27,-51,-11,-5,-2,-6
1523145392874698,13,3,-4,9,9,1,0,1
1523145392875200,-12,-1,-3,-37,-26,-5,-2,0
1523145392875200,1,0,-8,-18,-2,-3,-3,-1
1523145392888234,2,2,9,24,4,3,3,2
1523145392888234,1,-2,8,35,27,1,0,-5
1523145392896256,-4,3,13,49,17,5,2,2
1523145392896256,0,-1,7,-7,10,0,1,3
1523145392911297,1,4,-19,-63,-16,-6,-5,-4
1523145392911297,-6,-8,5,54,13,1,2,0
1523145392912296,2,1,-4,-20,-4,-2,-2,-4
1523145392912296,-3,1,10,22,-13,0,1,-1
1523145392934356,-2,-1,-13,-42,-19,-8,-3,0
1523145392934356,-5,1,2,20,2,0,-1,-1
1523145392935359,0,-8,-12,-45,1,-2,-1,-4
1523145392935359,5,4,9,53,32,6,6,6
1523145392956919,1,-1,-2,-9,3,-1,-4,-2
1523145392956919,-4,2,1,16,9,-2,-2,-3
1523145392957925,5,3,8,-26,-11,3,4,3
1523145392957925,-2,-4,-10,-13,-5,-2,-1,-2
1523145392971454,-2,0,7,16,4,-1,0,-4
1523145392971454,-7,-5,-4,-1,-9,0,-2,-1
1523145392971955,0,-1,-4,-7,9,-1,0,3
1523145392971955,2,-7,-17,-13,7,-4,-2,-6
1523145392994517,0,3,13,28,0,7,1,3
1523145392994517,-8,1,-10,-37,-20,-2,-3,-2
1523145392995017,2,-8,-1,16,7,-3,-3,-1
1523145392995017,-1,2,-5,-22,-25,-3,-1,-4
1523145393017075,-2,-1,-1,2,14,4,-2,-5
1523145393017075,1,1,-6,-13,-4,-1,-1,-3
1523145393017578,2,1,0,9,14,4,1,-2
1523145393017578,-1,-3,0,1,5,-2,1,3
1523145393031114,0,2,4,2,-10,-2,1,2
1523145393031114,0,-2,-2,6,7,1,3,5
1523145393032116,-6,-11,-10,-2,-19,-7,-14,-15
1523145393032116,-1,0,0,-2,25,0,0,-6
1523145393054677,-1,-2,0,10,-3,0,4,16
1523145393054677,-3,4,-2,-13,7,-4,-8,-7
1523145393055180,1,0,0,0,5,-8,-4,-1
1523145393055180,-3,9,23,11,-13,1,-2,1
1523145393077238,-2,-9,-24,1,-14,-1,3,-16
1523145393077238,2,2,1,-13,2,1,-4,3
1523145393077739,5,5,-5,-1,-10,-6,10,3
1523145393077739,-4,-6,5,7,0,10,-1,10
1523145393091274,0,5,8,6,12,7,1,-1
1523145393091274,-1,-7,-1,-8,-9,-6,0,0
1523145393092276,-1,-4,-10,1,-6,-4,-11,-16
1523145393092276,1,-4,-11,1,-3,-2,5,9
1523145393114336,-4,1,5,-3,0,-8,-6,-4
1523145393114336,-2,-8,-13,1,-4,0,-3,-9
1523145393115338,1,8,23,-2,-1,-1,3,8
1523145393115338,-2,-1,-13,-16,-2,-4,-6,-9
1523145393136895,-2,4,18,17,-10,-2,-3,0
1523145393136895,-5,-19,-17,-5,-23,-5,0,2
1523145393137897,0,-2,-7,-8,18,6,3,6
1523145393137897,0,-9,-8,-2,-1,3,-1,-4
1523145393151432,4,6,0,-8,1,-7,-2,1
1523145393151432,3,2,0,-60,-32,0,2,1
1523145393151935,-2,-2,-4,7,-10,1,-3,-1
1523145393151935,-3,-2,11,57,-1,-2,-1,-7
1523145393174495,-10,-5,-8,-68,12,-4,-6,-3
1523145393174495,5,3,17,85,24,7,4,3
1523145393174996,-4,-11,-24,-89,-15,-3,-3,1
1523145393174996,10,14,23,21,13,4,6,9
1523145393197054,13,-4,-18,-30,-19,-8,-4,-5
1523145393197054,-3,-8,2,-73,-23,-13,-8,-8
1523145393197556,-3,15,30,-12,23,11,5,3
1523145393197556,-14,-9,-38,-125,-35,-11,-3,-7
1523145393211594,1,-8,-13,14,-3,-6,-1,0
1523145393211594,5,16,28,38,60,15,4,-2
1523145393212097,-5,-13,-24,-37,-12,-12,-9,-11
1523145393212097,6,14,22,64,8,-3,0,12
1523145393234654,16,10,9,28,14,5,4,10
1523145393234654,-12,-16,-27,-54,-24,-7,-7,-5
1523145393235157,-9,9,23,64,16,9,7,10
1523145393235157,8,-7,-19,-34,-12,-6,-8,-15
1523145393257215,-18,-4,1,0,-4,0,-3,-8
1523145393257215,-2,-7,-16,-48,-15,-6,-3,-5
1523145393257716,11,10,20,83,24,8,10,24
1523145393257716,-1,-8,-14,-82,-31,-5,-7,-4
1523145393271252,3,3,3,16,-14,-3,-2,-4
1523145393271252,-4,7,26,62,34,9,0,-10
1523145393272254,-1,-11,-22,-83,5,-5,1,-3
1523145393272254,-1,2,0,18,-1,0,6,28
1523145393294315,-6,-8,6,-28,8,2,0,1
1523145393294315,-5,2,-21,-38,-31,-6,-6,-4
1523145393295318,8,-3,-1,39,-5,-8,-15,-18
1523145393295318,0,0,5,25,11,3,4,-6
1523145393316874,-11,-3,-10,-73,4,2,5,3
1523145393316874,6,-7,10,87,18,0,4,10
1523145393317878,1,4,4,9,-5,3,2,3
1523145393317878,-1,-2,-5,-34,-15,-6,-15,-21
1523145393331913,-1,0,-12,-47,-11,-5,-7,-8
1523145393331913,2,4,4,43,0,2,8,12
1523145393332417,-3,-5,5,56,4,5,-2,-5
1523145393332417,-7,-7,-2,28,23,4,0,-4
1523145393354476,7,3,13,24,5,1,0,-2
1523145393354476,-16,5,-1,-25,-9,-2,-1,2
1523145393355490,4,1,-10,-33,-23,-7,-5,-4
1523145393355490,-3,-9,-6,2,38,4,0,0
1523145393377035,-4,1,0,-22,-6,0,-1,2
1523145393377035,11,6,9,19,24,10,3,-1
1523145393378036,-5,-3,-10,-37,-16,-7,-2,0
1523145393378036,-7,0,15,-2,-17,-1,0,-3
1523145393391070,1,-2,-2,-1,2,-3,-4,-4
1523145393391070,-2,-2,-17,-62,21,-5,-4,-2
1523145393392075,1,0,12,78,8,5,7,6
1523145393392075,-2,0,2,16,9,-4,-4,-7
1523145393414634,0,-1,-6,8,-3,1,0,0
1523145393414634,-1,-1,1,-39,-25,-10,-4,0
1523145393415136,-6,-9,-16,3,-4,0,-5,-5
1523145393415136,-1,-1,-3,-7,5,-3,-3,-26
1523145393437194,-3,2,8,34,-14,1,11,38
1523145393437194,2,2,-6,-49,14,-3,-1,-2
1523145393438700,4,1,-6,5,-3,1,1,2
1523145393438700,-4,0,6,44,-6,0,0,-1
1523145393451232,-1,-4,-7,-5,11,2,-3,-16
1523145393451232,4,0,6,9,0,-1,-1,-1
1523145393452234,-8,-5,-5,-50,-9,-4,-4,-2
1523145393452234,6,3,0,31,-14,-5,-1,2
1523145393474294,-7,-1,10,62,27,5,1,-3
1523145393474294,4,-4,-14,-21,-22,-2,4,8
1523145393476301,0,3,7,-6,-12,0,-6,-12
1523145393476301,-5,-5,0,-4,-19,-6,0,8
1523145393496853,2,-5,-1,-10,0,-1,2,-1
1523145393496853,-7,-4,-9,2,-30,-2,-10,-15
1523145393498358,7,5,1,-21,3,-1,5,7
1523145393498358,-3,-2,-5,-16,-9,0,-2,1
1523145393510395,-5,-3,0,6,-4,-7,-5,-10
1523145393510395,-3,-1,2,9,8,1,-1,0
1523145393519413,-2,3,2,-11,1,-3,0,-4
1523145393519413,8,5,3,-15,-17,6,5,26
1523145393534453,2,4,6,12,-15,0,0,-1
1523145393534453,-2,-2,-5,-10,-23,-2,-1,-3
1523145393535959,-5,-2,-4,-5,12,-1,-2,-2
1523145393535959,-4,-3,0,4,5,-3,0,-2
1523145393557015,-1,2,0,-13,-3,-3,-7,-11
1523145393557015,0,-3,5,14,5,1,3,7
1523145393558516,-2,-6,-1,-6,-28,-4,-6,-6
1523145393558516,-3,-2,-16,-22,-4,-6,-3,-7
1523145393570548,8,6,14,7,19,9,4,4
1523145393570548,-12,-15,-5,2,-4,-10,5,6
1523145393579573,6,4,3,4,0,21,2,-3
1523145393579573,5,2,3,-11,-2,8,5,10
1523145393594615,-9,-7,-1,21,10,-3,-2,-5
1523145393594615,11,13,10,-7,22,-2,-1,-6
1523145393596119,-4,-8,-2,-10,-16,-11,2,8
1523145393596119,-6,-1,-8,-8,13,4,-5,-5
1523145393617173,4,3,-5,-4,-14,4,1,-1
1523145393617173,-1,-9,-2,31,14,2,1,-1
1523145393618677,-6,-1,-2,-15,-27,-17,-8,-4
1523145393618677,4,-1,0,8,36,-2,2,-8
1523145393630710,-4,-3,-7,-5,-21,1,4,10
1523145393630710,2,7,-1,-1,0,3,-1,-5
1523145393639750,-13,0,0,-7,-1,-3,-1,1
1523145393639750,-10,-5,-7,-8,-4,-4,-2,-6
1523145393653770,6,3,-6,-69,-18,-7,-1,1
1523145393653770,-1,-15,-23,41,-25,0,-3,1
1523145393660789,3,10,30,38,25,7,2,-1
1523145393660789,1,-1,11,20,4,2,2,2
1523145393676832,-4,-7,-34,-72,-29,-13,-10,-9
1523145393676832,-11,12,34,54,41,17,8,7
1523145393678336,-2,-3,-16,-29,-5,-5,-4,-5
1523145393678336,-6,-15,-35,-77,-41,-15,-10,-8
1523145393690368,-23,2,23,96,29,4,2,1
1523145393690368,20,3,17,14,30,8,3,1
1523145393699393,10,3,1,-21,-9,-2,2,4
1523145393699393,9,4,0,-43,32,3,-4,0
1523145393713929,-1,-9,-20,-26,-42,-6,-2,-5
1523145393713929,-15,-2,-12,-30,-1,-7,-6,-8
1523145393720447,10,-8,-17,-68,-10,-9,-6,-5
1523145393720447,11,4,54,78,68,22,11,11
1523145393736992,-12,0,2,-52,-10,-5,-4,-5
1523145393736992,-2,-7,-9,-84,-22,-8,-4,-1
1523145393738495,10,7,3,39,25,7,2,6
1523145393738495,-3,4,-2,2,-15,-7,-6,0
1523145393750531,3,-5,8,46,32,2,-1,-16
1523145393750531,1,8,3,-7,-17,-2,-5,-11
1523145393759553,0,-9,-22,-39,-9,-4,9,23
1523145393759553,-7,-2,-1,17,-27,-5,-4,-5
1523145393774592,3,6,9,30,24,4,1,1
1523145393774592,-2,-6,-6,-56,-34,-8,-7,-8
1523145393776098,2,0,8,36,23,1,-3,-16
1523145393776098,-6,4,2,45,26,8,9,18
1523145393797151,12,-4,-1,-41,13,1,-6,-12
1523145393797151,-6,-11,-31,-16,-12,-8,-1,-6
1523145393798659,-3,4,16,46,4,-1,-6,-13
1523145393798659,5,2,-7,-44,-26,-2,11,31
1523145393810691,-9,0,-5,11,-6,-2,0,3
1523145393810691,5,1,2,9,-11,3,1,2
1523145393819712,-15,-12,-3,0,-4,-2,-4,-12
1523145393819712,19,7,-7,-7,-2,-6,-9,-19
1523145393834752,-2,-6,-1,22,15,1,0,1
1523145393834752,3,6,11,39,15,1,0,5
1523145393836256,-4,-5,-23,-51,-33,-4,0,8
1523145393836256,-8,1,4,-12,8,-5,-3,-6
1523145393856825,5,-5,5,10,-37,-2,0,4
1523145393856825,0,-4,-4,35,58,3,-1,-1
1523145393858815,-1,-2,9,-58,1,-3,-2,-1
1523145393858815,-2,4,4,67,4,5,2,-1
1523145393870851,5,1,0,3,7,-1,-1,0
1523145393870851,0,4,-1,-58,-30,-9,-2,0
1523145393879371,-4,-9,-1,23,45,11,5,6
1523145393879371,-11,-9,-9,-39,-35,-1,-2,-9
1523145393894410,2,-2,-8,-23,-7,-6,-3,2
1523145393894410,0,1,-3,0,-11,-2,0,1
1523145393895918,-3,2,-5,-6,3,-5,-2,-1
1523145393895918,-4,-3,1,-8,-5,-2,1,-5
1523145393916971,1,0,0,-8,7,1,-5,-5
1523145393916971,-3,-7,-10,4,-14,-4,-1,3
1523145393918475,-1,-1,-6,-30,-9,-4,0,2
1523145393918475,-5,2,12,69,1,0,-5,-7
1523145393939534,3,-1,2,25,3,3,4,8
1523145393939534,-8,-1,4,-8,2,-3,-4,-3
1523145393941034,2,-1,4,-5,-19,-1,-2,-1
1523145393941034,6,-2,-16,0,1,0,-2,-3
1523145393954573,-3,0,-2,-2,-2,-3,0,2
1523145393954573,1,2,-9,-52,0,-2,-3,-3
1523145393956074,-6,1,24,79,11,3,2,0
1523145393956074,-5,-9,-14,-34,-6,-7,-5,-4
1523145393977130,0,0,-3,-49,-13,-3,0,-3
1523145393977130,3,4,23,101,24,10,5,3
1523145393978634,1,3,-12,-34,-7,-4,-3,0
1523145393978634,-2,-1,-1,-17,-3,-1,-3,-2
1523145393999691,-3,-7,-1,3,2,-2,-2,-2
1523145393999691,-1,-4,-13,-34,-15,-5,-6,-7
1523145394001194,-2,0,1,26,-2,1,1,-2
1523145394001194,3,1,5,5,5,0,2,7
1523145394014731,2,-2,-8,-15,3,-1,1,0
1523145394014731,-2,2,3,0,-5,-1,-2,-2
1523145394016235,-1,-1,4,24,-3,0,-3,-6
1523145394016235,-5,-4,-15,-34,-7,-5,-4,-7
1523145394036790,-2,-4,-2,8,8,1,7,13
1523145394036790,-6,-3,0,14,-30,-9,-11,-13
1523145394038795,4,1,4,7,59,9,5,5
1523145394038795,2,10,-1,-20,-8,-1,-1,-6
1523145394059355,0,-2,-1,26,18,3,-1,-7
1523145394059355,-14,-10,13,0,-10,-1,2,13
1523145394060854,-11,-11,-29,-25,-39,-13,-6,-6
1523145394060854,1,7,7,-29,-20,2,9,8
1523145394073888,-1,5,8,34,20,1,-6,-4
1523145394073888,5,8,-4,-15,-17,-1,-8,-9
1523145394080406,-3,-1,-7,1,-11,-2,1,0
1523145394080406,-5,-8,4,-13,14,-4,3,2
1523145394096949,8,9,7,22,-63,-5,2,11
1523145394096949,4,-2,-6,-3,43,7,3,2
1523145394102966,2,4,4,9,-10,0,-2,-2
1523145394102966,6,-10,-13,6,9,-3,-7,-12
1523145394119509,-1,-7,-11,-16,5,-2,-1,-7
1523145394119509,-2,1,5,-5,-14,-2,-1,-1
1523145394121014,-2,3,-1,6,1,0,0,0
1523145394121014,-10,-2,1,4,-6,-2,-1,1
1523145394133547,-3,0,-1,-15,3,-4,-3,-4
1523145394133547,-6,4,3,8,20,2,5,5
1523145394140566,-11,-5,-13,-15,-12,1,-1,-2
1523145394140566,8,-13,-26,-4,-9,-3,-4,4
1523145394157110,2,7,13,5,-1,0,-1,-1
1523145394157110,3,-3,-32,-104,-20,-10,-3,-2
1523145394158615,10,19,53,91,39,11,8,7
1523145394158615,-12,-8,5,-9,21,4,-3,-7
1523145394179670,-7,-10,-37,-69,-24,-8,-7,-7
1523145394179670,-1,-4,14,1,3,1,3,6
1523145394181176,7,2,0,41,25,3,0,3
1523145394181176,2,4,6,-38,-14,-4,-1,0
1523145394193708,-12,-4,3,-13,-20,-3,-3,-6
1523145394193708,1,0,4,3,8,2,2,-2
1523145394200728,-4,-6,-21,-91,-42,-11,-8,-5
1523145394200728,8,-1,3,-1,16,1,-1,-3
1523145394216767,-8,-13,-22,-67,-15,-7,-6,-7
1523145394216767,-24,-3,-6,41,-9,-5,-1,-4
1523145394218773,-1,2,12,1,4,0,-1,-1
1523145394218773,1,0,2,-3,-12,-1,-2,-4
1523145394239328,4,6,13,18,35,5,1,5
1523145394239328,5,-3,4,-16,-21,-1,0,-2
1523145394240832,0,-6,-19,-46,-4,-6,-3,9
1523145394240832,-4,5,-3,-55,-17,-4,-6,-12
1523145394253867,2,3,23,103,25,10,3,1
1523145394253867,7,-3,-7,-16,-1,-1,-1,4
1523145394260886,2,-3,-5,-29,-4,-2,-3,-5
1523145394260886,-3,-4,-9,4,-17,-5,1,3
1523145394276929,4,0,3,12,11,3,3,2
1523145394276929,2,2,-3,2,5,-2,-4,-10
1523145394278433,-12,-10,-2,0,-32,-2,1,-2
1523145394278433,-3,2,0,43,12,1,-1,4
1523145394299488,-5,-2,0,-39,-4,-2,-1,0
1523145394299488,3,4,12,33,5,1,-3,-2
1523145394300993,10,-8,-46,-99,-35,-6,-3,-14
1523145394300993,-5,8,47,104,72,16,16,18
1523145394314027,4,-1,-9,-65,-42,-5,-6,-6
1523145394314027,-1,-5,-11,-7,10,1,2,9
1523145394328064,5,6,25,27,14,1,-3,-5
1523145394328064,2,-2,-15,-41,-20,-6,-5,-8
1523145394337087,-7,0,-3,22,0,-3,3,4
1523145394337087,3,-1,1,10,-9,2,0,-4
1523145394338598,-2,-1,0,14,14,-1,-1,0
1523145394338598,-6,-9,-8,1,-5,-8,-3,-1
1523145394359650,-2,3,12,12,-13,-1,-2,4
1523145394359650,24,-5,-15,-52,0,0,0,-3
1523145394361155,-8,1,8,16,-2,0,0,1
1523145394361155,0,2,10,46,-1,0,-3,0
1523145394373186,2,1,-10,-4,20,2,0,-5
1523145394373186,-11,2,9,5,-4,-1,0,-2
1523145394382210,0,-8,-13,-6,7,-3,0,2
1523145394382210,2,1,-4,-22,-1,1,-3,-3
1523145394396747,0,-1,2,-2,-24,-3,-1,-2
1523145394396747,-3,1,3,22,14,0,3,2
1523145394398751,3,-1,-5,-7,-5,-1,0,2
1523145394398751,-6,-9,-15,-18,-14,-4,-2,-3
1523145394419307,-4,-3,5,20,11,1,-3,-6
1523145394419307,7,5,18,61,31,8,4,10
1523145394421312,3,6,3,-6,1,3,3,6
1523145394421312,-1,-4,-15,-48,-7,-5,-3,-5
1523145394433344,8,-2,-9,-29,-34,-7,-3,0
1523145394433344,-42,-8,-2,1,12,0,-4,-6
1523145394441870,3,-1,0,18,-6,-1,-1,-3
1523145394441870,1,2,-2,-25,-2,-1,-1,-3
1523145394456910,-6,-2,8,21,16,-2,-2,0
1523145394456910,12,3,10,52,4,3,4,8
1523145394458416,-1,-4,-4,5,6,-3,-3,-2
1523145394458416,-2,2,-5,-23,-25,-2,-2,1
1523145394479471,0,-3,-2,-8,25,2,0,-1
1523145394479471,6,2,-1,-28,-22,-9,-1,-3
1523145394480974,-3,1,11,24,25,6,3,1
1523145394480974,3,-2,6,35,6,0,-3,-3
1523145394502028,-1,-1,-10,-17,18,-1,-3,-5
1523145394502028,2,-9,-23,-90,-69,-11,-5,-2
1523145394503532,4,7,25,90,77,11,4,4
1523145394503532,-2,0,1,-27,-15,-2,2,9
1523145394517068,11,-2,-5,-14,-1,0,5,13
1523145394517068,4,-3,-8,-20,-12,-7,-8,-14
1523145394518572,-16,-3,-3,-20,-36,-8,-4,-7
1523145394518572,12,2,3,22,2,-2,-6,-11
1523145394539628,-3,-7,-4,11,20,3,6,2
1523145394539628,9,2,1,7,13,0,-3,-6
1523145394541137,1,-5,-17,-2,-15,0,-2,8
1523145394541137,-1,4,22,7,7,0,9,13
1523145394553164,11,-4,-18,1,-14,-2,-6,-7
1523145394553164,-6,4,3,2,-2,2,-2,-6
1523145394562188,-13,-5,-2,-5,-5,-1,-3,-7
1523145394562188,-7,1,-4,-23,-6,3,-4,-10
1523145394576731,3,3,6,19,32,3,10,21
1523145394576731,1,5,-3,6,-8,-1,2,5
1523145394578733,8,-16,-1,-2,8,-2,-8,-11
1523145394578733,-2,9,11,-12,-35,-6,-1,5
1523145394599286,-9,-8,-8,-6,-17,-3,-7,-15
1523145394599286,7,-6,-9,9,8,1,-2,0
1523145394601292,-14,-2,-7,-12,2,-3,-2,-1
1523145394601292,-6,-1,1,-5,-38,-5,-2,-6
1523145394613323,13,2,-11,7,12,-3,-4,-1
1523145394613323,-8,-7,11,-14,0,-2,1,4
1523145394622348,9,0,-6,1,-20,-2,0,-7
1523145394622348,22,-2,-6,14,19,2,-2,-1
1523145394636887,-21,9,9,-8,-21,2,3,6
1523145394636887,4,-10,-13,-1,-4,-4,-2,-6
1523145394638891,-7,-3,1,-13,74,5,2,4
1523145394638891,8,-11,-19,-27,-13,-6,-3,0
1523145394659456,1,9,29,17,14,7,1,-1
1523145394659456,-10,-5,-9,-65,2,0,-2,-1
1523145394660950,-2,-1,-1,-36,-46,-9,-6,-9
1523145394660950,-25,-15,-44,-123,-11,-12,-6,-2
1523145394672985,-4,1,22,82,26,9,3,-3
1523145394672985,-2,10,22,60,8,5,-3,-1
1523145394682006,6,-1,-17,-107,-53,-7,3,9
1523145394682006,16,2,-1,89,33,8,2,2
1523145394697047,-28,-8,-11,-74,-36,-14,-7,-8
1523145394697047,11,2,-4,58,25,3,1,2
1523145394698550,1,2,20,-7,-7,4,3,4
1523145394698550,25,-5,-25,-74,-16,-8,-7,-7
1523145394719606,-29,-11,1,20,11,-3,-3,-6
1523145394719606,-8,19,35,46,20,10,5,1
1523145394721113,5,-11,-30,-79,-35,-12,-5,-4
1523145394721113,-2,8,34,106,48,15,7,4
1523145394733143,-11,-6,-21,-89,-26,-10,-6,-3
1523145394733143,-16,-12,-24,-63,-12,-6,-7,-13
1523145394742169,0,4,6,89,19,6,2,1
1523145394742169,-10,6,21,53,-20,3,9,19
1523145394757207,11,-2,0,-20,29,2,2,3
1523145394757207,-1,-2,-4,-22,-2,-2,-1,-5
1523145394758711,-9,-2,-1,-15,-2,-5,-6,-13
1523145394758711,-10,-5,-6,-12,13,-4,-4,-9
1523145394779265,13,0,-5,18,-15,3,-1,0
1523145394779265,-3,-7,-20,-41,-21,-11,-3,1
1523145394781270,11,6,13,29,20,7,4,2
1523145394781270,-32,-1,10,45,7,0,-1,-1
1523145394793302,2,4,-3,6,-2,1,-1,1
1523145394793302,16,-9,-19,-54,-23,-6,-2,-2
1523145394802326,-3,3,21,46,-4,-2,0,3
1523145394802326,6,1,0,-41,7,4,-2,-2
1523145394816865,9,1,-2,40,10,-1,-1,-5
1523145394816865,-4,-2,5,22,-9,1,3,4
1523145394818369,-3,1,-7,-38,-22,-7,-3,-2
1523145394818369,0,4,12,63,27,3,-1,-5
1523145394839425,-3,-5,2,-12,-10,-3,0,1
1523145394839425,2,2,-4,-28,-3,0,-3,3
1523145394840929,2,-8,-5,13,5,1,1,2
1523145394840929,-6,-5,-8,-31,-18,-5,-5,-5
1523145394861987,4,1,-7,-26,-12,-1,-1,-1
1523145394861987,-5,-1,10,47,7,7,-1,-1
1523145394863489,-17,3,3,-26,10,2,-2,-1
1523145394863489,6,-4,-9,-23,-1,-6,-3,0
1523145394877025,-2,-3,-9,-23,-18,-1,1,0
1523145394877025,-5,1,12,2,-2,-5,-2,-2
1523145394878529,12,10,3,-3,-9,-2,-2,-2
1523145394878529,-24,-15,-9,11,41,6,6,0
1523145394899589,15,5,12,9,6,0,-3,-3
1523145394899589,0,-2,-12,-25,1,-3,1,0
1523145394901089,-23,-10,-3,33,-2,-1,-3,-4
1523145394901089,5,4,7,5,-11,-2,-5,1
1523145394922145,2,-3,-12,-25,-1,-5,-3,-1
1523145394922145,1,0,5,72,6,3,1,1
1523145394923651,5,-1,-9,-33,-4,-4,-1,-2
1523145394923651,1,2,0,-5,-2,0,-2,-3
1523145394936684,1,-1,6,26,4,1,2,0
1523145394936684,10,-1,-9,-38,-11,-6,-3,-2
1523145394938690,9,-1,-3,-5,-8,4,2,1
1523145394938690,-16,-4,-4,9,0,1,-1,-2
1523145394959756,5,2,3,-4,-2,-1,-1,0
1523145394959756,-21,-4,-4,-5,-11,-6,-2,-2
1523145394961250,6,-1,5,30,17,0,1,4
1523145394961250,16,4,2,19,-15,0,2,0
1523145394981804,-3,1,-3,-7,2,-1,-2,-3
1523145394981804,1,1,6,3,2,0,1,1
1523145394983308,-9,-4,-3,2,-5,-2,-3,-2
1523145394983308,4,1,-1,-35,-6,-2,0,0
1523145394996342,0,-6,-4,13,6,-3,-2,-2
1523145394996342,9,-3,-4,1,13,1,3,4
1523145395002862,-4,1,-1,-9,-4,-4,-12,-14
1523145395002862,23,-1,4,-11,-10,-1,2,1
1523145395019407,-16,-1,0,11,20,-2,-3,-3
1523145395019407,3,0,-5,-1,-29,-2,0,-1
1523145395020907,11,3,3,-18,20,7,8,9
1523145395020907,-12,-3,-2,7,-7,-5,-6,-4
1523145395041976,-4,-2,-3,-17,-17,-8,-14,-16
1523145395041976,5,-5,-11,9,26,11,8,16
1523145395043482,-2,0,9,3,5,0,5,3
1523145395043482,-8,-4,-7,-5,-11,-4,-5,-13
1523145395056014,4,3,1,-3,5,-2,8,17
1523145395056014,-6,5,9,1,-3,-6,-7,-8
1523145395063029,0,1,-6,-3,-26,1,7,7
1523145395063029,1,-1,-6,-14,6,2,3,7
1523145395079575,-3,3,9,11,-3,5,-3,-7
1523145395079575,18,2,5,2,18,-5,-6,-16
1523145395081080,-3,-6,-4,1,-36,-7,-3,9
1523145395081080,-1,-3,2,-11,13,0,-3,-1
1523145395102134,-4,6,0,10,1,0,1,-1
1523145395102134,-15,-9,-5,-5,2,4,1,0
1523145395103639,16,-1,-2,-10,-16,-7,-5,-6
1523145395103639,-18,-4,-8,-3,8,-5,-2,-4
1523145395124694,0,-1,5,-5,-18,2,2,1
1523145395124694,-4,-3,0,-13,1,-4,-4,-2
1523145395126201,1,0,-8,-21,-3,-1,3,-3
1523145395126201,1,0,-14,-31,-10,-10,-5,-1
1523145395139735,14,17,39,74,24,20,9,2
1523145395139735,-14,-15,-16,-18,-7,0,-2,0
1523145395141238,16,-7,-35,-56,-25,-14,-11,-5
1523145395141238,-19,10,24,73,31,10,4,1
1523145395161794,-6,-3,-2,-56,-4,-5,-2,-3
1523145395161794,-24,-6,-8,-47,-35,-18,-9,-10
1523145395163799,-17,3,32,86,54,18,4,3
1523145395163799,17,6,-17,-113,-19,-7,1,11
1523145395176332,8,-6,-10,-15,-42,-10,-7,-4
1523145395176332,-23,-3,-11,47,15,2,0,1
1523145395182851,-10,-5,-3,57,2,-3,-5,-9
1523145395182851,-3,1,6,-21,-15,-3,-6,-10
1523145395199392,11,1,4,9,14,1,0,4
1523145395199392,17,-10,-50,-127,-62,-17,-8,-4
1523145395200897,1,6,51,72,53,20,10,3
1523145395200897,-7,4,7,-26,2,3,1,2
1523145395229473,5,-10,-39,-116,-35,-15,-6,-2
1523145395229473,0,2,16,27,21,4,2,1
1523145395230977,-7,2,12,84,51,10,2,-5
1523145395230977,7,-6,-11,-20,-22,-3,-4,3
1523145395236491,-7,-3,-7,-57,-3,-4,3,17
1523145395236491,3,8,19,86,38,10,5,5
1523145395243011,-3,3,-6,-60,-44,-7,-3,0
1523145395243011,3,0,9,39,60,4,-1,-9
1523145395259570,-12,-15,-40,-58,-11,-7,-9,-14
1523145395259570,11,11,29,50,22,10,8,10
1523145395261072,3,-5,-11,-27,3,-8,-7,0
1523145395261072,7,-5,-11,-3,-37,-4,-6,-16
1523145395282128,-4,1,0,-51,-5,-2,1,-8
1523145395282128,8,5,16,74,8,2,9,18
1523145395283634,-1,3,-3,-18,11,1,1,3
1523145395283634,2,-10,-6,-27,-24,-5,0,5
1523145395296165,-16,-3,9,51,17,4,-5,-10
1523145395296165,2,-2,-13,-46,-9,-2,-5,-6
1523145395303187,22,5,1,-35,-35,-7,-3,2
1523145395303187,-5,2,10,49,12,0,-2,-3
1523145395319227,3,-2,6,33,4,3,3,1
1523145395319227,-5,-1,-5,-35,7,-2,-4,-5
1523145395321232,-4,-7,-20,-43,-40,-6,-3,0
1523145395321232,5,0,0,-27,14,0,-4,-3
1523145395341795,-2,3,15,77,29,4,4,5
1523145395341795,5,-3,-8,-20,-4,0,-2,4
1523145395343792,-16,-13,-19,-95,-13,-7,-6,-10
1523145395343792,6,10,30,102,-1,9,6,4
1523145395355824,5,-2,-1,12,37,2,1,3
1523145395355824,-4,0,0,-37,-20,-4,-4,-6
1523145395364849,5,-1,0,5,12,0,-1,-1
1523145395364849,-7,-5,-15,-36,4,-4,-1,3
1523145395379392,1,4,-1,11,-25,-4,-2,-1
1523145395379392,-2,-3,4,6,20,2,0,-2
1523145395381395,0,-3,-5,6,-3,-1,2,0
1523145395381395,1,-4,-9,-27,-17,-5,-7,-9
1523145395401947,0,-3,3,16,2,0,1,3
1523145395401947,0,-4,-2,1,-7,-4,-3,-2
1523145395403452,-3,-1,-3,12,7,-2,-2,0
1523145395403452,-1,-4,-15,-24,-3,-3,1,0
1523145395415482,13,0,14,-1,6,-2,0,-2
1523145395415482,-8,0,2,-22,-18,-2,-3,-4
1523145395424511,-5,-12,-18,-3,22,-2,-2,-1
1523145395424511,-5,2,13,5,-2,2,3,1
1523145395439547,-8,-2,-8,-1,-4,-4,-4,-3
1523145395439547,-8,3,6,-3,-6,0,2,1
1523145395441055,0,3,4,-16,13,0,0,2
1523145395441055,-6,-3,-20,-19,-13,-2,-6,-8
1523145395462107,-8,-10,2,13,8,5,5,4
1523145395462107,5,0,6,-2,-3,2,-1,-4
1523145395463611,-3,0,0,9,-32,-4,-2,-2
1523145395463611,-2,-3,2,16,21,-3,-6,-5
1523145395475647,-1,3,3,20,0,-2,-4,-6
1523145395475647,5,-2,-5,-1,9,8,11,15
1523145395484667,-10,-1,5,7,11,-2,-3,-9
1523145395484667,3,-1,4,-1,-10,4,17,21
1523145395499708,-8,-8,-15,-9,8,-3,-6,-5
1523145395499708,-2,-2,-1,-17,-18,-9,-4,-3
1523145395501212,-26,3,4,17,-4,-5,-12,-17
1523145395501212,3,2,3,-13,20,1,-7,-3
1523145395521766,-1,1,-2,6,-20,3,12,12
1523145395521766,-3,-1,-1,1,8,-3,-2,-3
1523145395523771,13,6,4,14,14,2,2,4
1523145395523771,-6,-4,3,-8,-14,-7,-5,-7
1523145395535302,-9,-6,-5,-18,-17,-4,-8,-11
1523145395535302,5,-5,-5,10,-15,-1,-1,2
1523145395544828,-2,3,-1,-1,69,5,2,1
1523145395544828,-1,-5,-10,-5,-8,4,4,1
1523145395559367,-4,1,10,-6,5,-5,-3,0
1523145395559367,2,6,-1,1,-18,-4,-6,-8
1523145395560870,-5,-7,0,-14,-24,-1,2,6
1523145395560870,-4,-3,-12,-5,-4,-4,1,-3
1523145395581925,0,4,5,10,26,-3,-3,-6
1523145395581925,5,2,-8,-6,-5,1,0,10
1523145395583434,12,3,10,31,-17,0,4,6
1523145395583434,-4,-1,-11,-50,17,-2,0,-2
1523145395595464,11,2,10,60,-47,-2,-3,-4
1523145395595464,-12,-7,-10,-64,-4,-13,-6,-14
1523145395604485,0,1,1,64,-12,0,-2,-4
1523145395604485,-25,-7,0,-43,9,-1,-1,1
1523145395619529,10,13,18,-43,-14,2,3,9
1523145395619529,6,0,-10,-47,-14,-8,-7,-5
1523145395621030,7,-13,-16,11,15,5,1,1
1523145395621030,1,6,21,81,16,9,4,3
1523145395642086,-18,-11,-27,-108,-19,-11,-6,-4
1523145395642086,15,14,22,74,21,9,5,3
1523145395643590,-14,-7,-4,-51,-15,-2,-1,-2
1523145395643590,4,-9,-10,20,-3,-4,-4,-3
1523145395655630,-9,-1,-4,32,17,6,3,3
1523145395655630,-16,-10,-2,-53,-9,-4,-3,-1
1523145395664654,2,7,22,29,18,0,-1,-3
1523145395664654,-9,-1,-13,-41,-35,-6,-2,-1
1523145395679687,2,-2,-13,56,24,3,-6,-13
1523145395679687,-7,-3,-4,-46,-10,-6,-9,-34
1523145395681193,4,2,-9,24,-7,0,10,53
1523145395681193,2,3,5,7,-9,-2,4,9
1523145395701744,3,2,2,-26,1,-4,-2,1
1523145395701744,-3,-1,7,41,14,5,0,-4
1523145395703749,0,0,-7,-43,-27,-6,-5,-24
1523145395703749,15,-1,8,31,4,1,-1,1
1523145395715781,-6,-7,-10,-16,-18,-3,-3,3
1523145395715781,2,2,1,5,26,5,-5,-25
1523145395724806,-3,0,1,2,-9,-5,3,3
1523145395724806,3,-1,-4,-1,-5,-1,-3,5
1523145395739344,11,0,-1,-13,4,-1,-2,-3
1523145395739344,-8,5,4,37,4,0,1,10
1523145395740848,4,-10,-8,-41,-10,0,-2,-9
1523145395740848,-7,-3,8,4,-1,-3,-4,-4
1523145395761906,5,7,4,-5,2,-2,0,-2
1523145395761906,-14,-15,-26,13,-5,4,2,11
1523145395763410,5,9,9,-28,-27,-7,-6,-4
1523145395763410,20,-4,-6,-6,-13,-4,-4,-8
1523145395775441,-20,2,4,-8,1,1,1,0
1523145395775441,-9,-7,-19,-23,0,-5,3,9
1523145395784465,-5,2,9,48,7,7,0,-5
1523145395784465,4,-2,-4,-35,1,-3,-2,1
1523145395799511,5,5,7,-18,-7,2,3,2
1523145395799511,6,-2,0,11,8,1,1,4
1523145395801012,-5,-5,-13,-34,-6,-7,-5,-10
1523145395801012,-2,9,4,10,4,0,0,-2
1523145395822064,-3,-16,0,40,34,5,2,3
1523145395822064,-2,3,3,-16,-29,-2,0,3
1523145395823570,-3,-4,0,25,2,-2,-2,-4
1523145395823570,-1,3,6,37,9,4,2,-3
1523145395844626,0,-1,-7,-27,-14,-4,-1,-2
1523145395844626,3,-2,7,22,1,-1,-2,0
1523145395846129,-3,0,-5,-35,25,-1,-1,-2
1523145395846129,0,-1,-8,-24,-27,-3,1,-6
1523145395859665,11,-1,3,31,40,2,-1,0
1523145395859665,-21,-8,2,-23,-5,-7,-3,2
1523145395861170,4,5,-1,-56,-16,-1,0,2
1523145395861170,-1,-1,7,94,29,5,1,0
1523145395881724,-1,2,9,56,-6,0,0,0
1523145395881724,11,8,5,-26,-2,-1,-2,4
1523145395883733,-4,-7,-11,-9,8,-5,-1,-2
1523145395883733,0,-1,-2,-34,-18,-2,-2,-4
1523145395904284,-2,0,-8,-34,-39,-2,0,-4
1523145395904284,5,2,12,26,21,1,2,2
1523145395906288,-3,-5,4,41,-5,2,0,2
1523145395906288,-1,0,-1,-26,13,-3,-5,-3
1523145395918822,-2,-2,-12,-26,-7,-2,-4,-1
1523145395918822,7,1,-2,-17,-4,0,-1,-1
1523145395925844,-4,3,4,29,17,3,-1,-3
1523145395925844,-5,-5,-5,-22,-9,-3,0,0
1523145395941885,-3,-5,-9,-48,0,-3,1,1
1523145395941885,3,4,11,55,12,6,2,1
1523145395943389,7,2,0,-4,-1,-2,-1,4
1523145395943389,-2,-1,1,0,-14,1,-2,-1
1523145395964444,-6,-2,-4,-2,-3,-1,-2,-6
1523145395964444,7,-1,-4,13,34,0,0,4
1523145395965949,0,0,-1,-9,-11,-6,3,6
1523145395965949,-7,-4,-6,-16,1,-2,-4,-3
1523145395978981,-2,0,3,14,-4,-2,0,3
1523145395978981,-3,-3,0,-4,-8,-1,-2,-8
1523145395985501,4,-1,-7,-22,-12,-1,1,-2
1523145395985501,-5,1,-5,-2,7,-5,-15,-11
1523145396002043,-2,-1,3,9,-18,-3,0,-5
1523145396002043,10,0,0,2,4,3,-1,3
1523145396003547,-10,-2,-5,-9,-4,-1,1,0
1523145396003547,4,-4,-1,6,0,-3,2,-1
1523145396024608,1,5,5,-1,-23,-5,-2,1
1523145396024608,1,0,-4,14,14,2,1,7
1523145396026112,-1,-1,-5,-10,5,4,-12,-17
1523145396026112,-2,-5,-15,10,29,2,9,9
1523145396038642,-10,4,9,-2,-2,-2,-6,-12
1523145396038642,-4,4,4,-22,-26,-6,-2,-4
1523145396045661,-3,-7,-12,8,14,2,-1,2
1523145396045661,-24,-2,1,-2,-8,-6,-5,-9
1523145396061703,10,5,6,-3,-5,4,-2,-1
1523145396061703,-4,6,15,12,-7,-2,12,14
1523145396063709,-6,-18,-29,-9,-53,-8,-3,-4
1523145396063709,11,10,18,-3,11,-2,-3,1
1523145396084263,0,-8,-17,-22,4,-4,-5,-7
1523145396084263,-12,-2,3,-6,-14,0,-10,-34
1523145396086268,7,9,21,72,26,-4,3,24
1523145396086268,-6,-16,-25,-100,-20,1,-5,-23
1523145396098301,17,7,15,69,6,6,23,66
1523145396098301,-5,3,13,82,36,9,4,9
1523145396107324,5,0,-26,-110,-33,-16,-18,-32
1523145396107324,3,10,37,123,55,16,18,25
1523145396121863,-5,-8,-25,-58,-15,-2,-12,-28
1523145396121863,22,-5,-17,-17,-18,-8,-3,6
1523145396123368,6,19,58,127,77,29,19,16
1523145396123368,-14,-10,-13,-114,-39,-11,-17,-15
1523145396144425,-11,-11,-36,-58,-22,-13,-9,-13
1523145396144425,16,3,15,56,35,11,8,6
1523145396145927,-3,-8,5,-17,-15,-3,-5,-10
1523145396145927,38,5,-8,-26,-17,-4,1,6
1523145396158961,-27,-4,9,-39,25,0,2,-1
1523145396158961,-17,-12,-19,-7,-16,-5,-7,-7
1523145396165480,-1,1,-4,-3,-6,0,1,-3
1523145396165480,3,-3,-14,-72,-24,-4,1,5
1523145396182023,2,9,41,106,63,15,7,-2
1523145396182023,-4,-3,-6,-97,-16,-7,-12,-30
1523145396183528,0,0,-2,-36,-1,1,5,25
1523145396183528,-1,0,-3,-8,-12,-3,10,40
1523145396204601,-1,-7,-23,-35,7,-12,-11,-19
1523145396204601,-6,-2,3,20,-28,5,-1,-6
1523145396206104,6,3,9,27,24,4,6,2
1523145396206104,-5,-9,-25,-31,-48,-8,-4,-11
1523145396218639,-5,-6,6,51,-4,-4,-3,-1
1523145396218639,-1,-1,-1,20,17,0,-4,-4
1523145396225657,1,-2,-9,-63,-18,-7,-7,-16
1523145396225657,-11,0,10,35,9,0,-2,-1
1523145396241700,5,-6,-1,16,7,4,2,4
1523145396241700,-22,-2,-12,-37,-10,-2,-4,-9
1523145396243704,-2,-2,-6,-20,-38,-7,4,7
1523145396243704,2,3,4,26,53,6,-3,-9
1523145396264257,-1,-3,1,-10,-4,3,2,0
1523145396264257,7,-6,-23,-114,-27,-14,-6,7
1523145396266262,2,4,26,108,46,6,2,3
1523145396266262,-9,1,5,-23,-12,0,0,-5
1523145396279297,10,-3,-18,-36,-22,-3,0,2
1523145396279297,3,-3,-9,-11,25,0,0,6
1523145396287322,16,-1,-3,-19,-1,-4,-3,-8
1523145396287322,-17,-3,3,11,11,-2,-1,-5
1523145396301858,-1,1,1,35,-26,1,-2,-5
1523145396301858,-8,-6,9,30,5,-1,7,8
1523145396303867,1,-3,-9,26,21,2,-8,-14
1523145396303867,10,6,-1,22,-22,0,-4,-10
1523145396324424,2,5,3,-42,28,0,8,19
1523145396324424,-7,-6,4,26,-5,-2,4,5
1523145396325928,-13,-5,-11,-36,-21,-4,-9,-11
1523145396325928,4,4,8,13,19,0,0,-1
1523145396337954,-6,3,-1,-6,-13,-4,-4,-9
1523145396337954,7,-1,-6,-14,-16,-3,-3,4
1523145396346979,-3,3,9,20,8,4,5,3
1523145396346979,6,-4,-10,23,-8,-2,-1,-2
1523145396362017,-11,-6,-2,-10,4,-3,-3,-1
1523145396362017,5,10,15,15,9,1,1,4
1523145396363522,19,0,-15,-36,-24,-4,-1,-3
1523145396363522,-11,-12,-26,-93,-31,-11,-4,-4
1523145396384578,8,13,53,116,84,25,11,8
1523145396384578,-4,-5,-14,-72,-26,-8,-8,-6
1523145396386082,-4,0,-1,3,-4,-3,-3,-2
1523145396386082,1,-1,-7,-84,-24,-5,-1,4
1523145396398115,4,2,17,52,-11,1,-1,-2
1523145396398115,-1,3,3,8,44,2,-2,-1
1523145396407139,-7,-7,-11,-39,-6,-2,-1,2
1523145396407139,-11,2,11,31,9,3,-3,0
1523145396422178,-4,-5,-25,-56,-25,-10,-5,-7
1523145396422178,5,4,12,31,6,4,4,4
1523145396423682,-7,-9,-1,-27,-17,-5,-6,-4
1523145396423682,13,4,-2,28,16,1,1,1
1523145396444236,1,-6,-6,15,-9,0,-1,-4
1523145396444236,-2,0,-4,-6,-13,-6,-1,-2
1523145396446241,-13,-3,-13,-45,1,-2,-1,2
1523145396446241,0,1,11,29,-20,-3,-14,-50
1523145396458274,5,2,2,-15,55,5,18,69
1523145396458274,10,0,-12,-21,10,-1,2,3
1523145396466797,-12,-3,0,1,-16,-5,3,6
1523145396466797,15,-1,7,46,59,9,0,1
1523145396481836,-12,-5,-10,-38,-24,-11,-12,-33
1523145396481836,1,0,-5,-8,-31,-3,-1,-1
1523145396483341,-3,5,17,-7,0,-4,-4,-6
1523145396483341,-4,0,1,19,34,-1,2,8
1523145396504399,0,4,-13,-37,-46,-3,-1,-5
1523145396504399,-2,-10,-6,19,-2,8,0,4
1523145396505902,2,11,1,-13,-33,-11,6,4
1523145396505902,-7,-5,-3,13,-16,-17,-19,-32
1523145396517934,11,7,14,5,32,24,2,11
1523145396517934,-11,-4,-6,4,3,3,30,43
1523145396526957,2,3,-2,-5,8,11,-2,-3
1523145396526957,-5,-3,1,-1,-22,-4,4,10
1523145396541996,-37,-16,-25,-9,-7,-13,-10,-16
1523145396541996,11,1,9,8,23,-1,-13,-22
1523145396543501,-4,-9,7,-1,15,-2,-2,0
1523145396543501,-6,3,9,8,8,2,6,13
1523145396564558,8,0,0,-7,-41,-4,-7,-14
1523145396564558,9,9,5,-14,-8,-1,-1,4
1523145396566060,2,-7,-11,13,16,-1,-2,-5
1523145396566060,-2,6,8,-1,-3,5,0,2
1523145396578093,3,-3,-2,-27,-32,-8,1,-3
1523145396578093,0,1,-6,9,-27,-7,-8,-13
1523145396587116,16,-8,-9,-37,34,4,2,0
1523145396587116,-5,3,12,78,-1,11,8,16
1523145396602157,3,-1,-18,-34,-9,-11,-5,-3
1523145396602157,-5,-1,11,32,17,6,-2,-2
1523145396603665,-4,9,-5,-40,-32,-9,-6,-7
1523145396603665,-4,-16,-1,40,20,7,8,11
1523145396624718,0,-5,-4,-31,3,-5,-5,-6
1523145396624718,9,1,-11,-88,-25,-9,-10,-14
1523145396626222,-21,2,-15,-70,-17,-7,-2,-4
1523145396626222,-1,-11,3,2,14,8,7,6
1523145396638253,8,11,13,23,14,-1,-3,-5
1523145396638253,-1,4,8,-5,10,2,-3,-5
1523145396647278,-9,-9,-23,-49,-31,-9,-5,2
1523145396647278,1,-2,-21,-48,-13,-4,-2,-1
1523145396661816,-1,5,36,88,28,13,8,3
1523145396661816,-6,-3,-13,-22,-6,-2,-1,2
1523145396663821,2,1,-6,10,-8,-3,-2,-2
1523145396663821,-12,7,25,44,26,3,-4,-9
1523145396684375,2,-5,-4,-69,-18,1,1,3
1523145396684375,-2,-4,-10,-54,-6,-6,-1,-1
1523145396685879,4,-3,-1,-29,-3,3,0,4
1523145396685879,9,-2,-8,17,-26,-4,0,5
1523145396697914,2,1,-10,-3,14,-3,0,-1
1523145396697914,-14,-3,14,84,19,5,0,-5
1523145396706938,-6,-7,0,-15,-18,-5,-11,-11
1523145396706938,7,0,-12,-32,-2,-6,-7,-28
1523145396721978,-8,-4,-10,-53,-21,-4,16,45
1523145396721978,4,7,29,86,40,6,5,6
1523145396723480,-4,0,8,29,-2,8,0,0
1523145396723480,-1,1,-10,-43,-15,-4,0,1
1523145396744536,-1,-5,-6,7,2,-5,-13,-13
1523145396744536,-1,-7,-13,-31,-21,-5,-6,-19
1523145396746041,46,7,13,41,25,2,1,-1
1523145396746041,-29,-9,-13,-35,-20,-3,-3,5
1523145396767096,5,5,12,50,23,2,-1,-3
1523145396767096,-16,-7,-13,-42,-52,-8,-4,-3
1523145396768600,-6,-1,7,34,18,0,4,0
1523145396768600,5,0,-5,-51,-25,-2,0,7
1523145396782135,0,-8,-4,-18,-5,-5,-6,-9
1523145396782135,-2,-4,-8,-7,8,-1,0,2
1523145396783640,3,5,9,70,11,4,2,10
1523145396783640,6,8,-10,-7,2,-6,-2,-11
1523145396804696,-6,-13,-8,-5,4,5,-1,-11
1523145396804696,9,1,0,2,-8,5,-3,-3
1523145396806202,-18,-6,-8,-38,5,-3,1,4
1523145396806202,9,1,8,26,-3,1,2,12
1523145396826756,-8,4,-1,-32,0,-5,-6,-12
1523145396826756,2,3,6,11,14,0,0,2
1523145396828760,-14,-7,-12,37,0,0,0,-2
1523145396828760,-2,-1,-1,-8,7,-1,-1,1
1523145396841794,-3,4,1,-36,-39,-3,1,-5
1523145396841794,-3,-3,-8,-24,38,-2,0,1
1523145396843799,-18,-7,-14,-57,-41,-13,-6,-10
1523145396843799,13,4,25,53,39,12,4,8
1523145396864355,-2,0,-10,-32,-5,-4,0,2
1523145396864355,-3,1,5,0,-11,-2,-2,-7
1523145396865859,3,3,-5,-8,12,1,-2,-1
1523145396865859,14,-10,-15,-46,-13,-7,-4,-5
1523145396886923,5,3,6,41,6,2,-1,0
1523145396886923,1,-1,-1,19,-4,-3,-3,6
1523145396888923,0,7,15,35,11,3,3,-11
1523145396888923,-5,0,-10,-62,-25,-6,-4,-1
1523145396901453,-1,-10,-10,45,17,1,0,-1
1523145396901453,-3,-2,-2,-62,-18,-5,-3,0
1523145396907978,0,4,18,81,24,9,3,6
1523145396907978,-5,-3,-12,-24,-19,-6,-2,0
1523145396924516,5,6,10,13,13,2,-1,-4
1523145396924516,-7,-6,-27,-97,-27,-10,-4,-4
1523145396926019,5,11,46,104,51,19,11,10
1523145396926019,-4,0,-4,-43,-11,-2,0,-1
1523145396947075,-6,-7,-8,-50,-12,-5,-4,-4
1523145396947075,-5,-8,-4,-11,-3,-3,-2,-4
1523145396948580,-2,-4,-6,-29,-11,-3,-3,0
1523145396948580,-7,-3,3,19,10,2,2,2
1523145396961112,7,1,-1,5,-4,0,1,-1
1523145396961112,2,3,8,4,2,0,0,2
1523145396968134,-3,-11,-26,-65,-25,-8,-7,-8
1523145396968134,-5,5,18,100,26,4,2,3
1523145396984673,-1,0,2,-11,-14,-1,5,5
1523145396984673,-5,0,-2,-7,2,-4,-4,-3
1523145396986189,-12,-3,-4,-13,-24,-7,-12,-11
1523145396986189,1,-2,-3,-1,2,-2,-2,-3
1523145397006735,2,-1,-3,-10,-13,-8,0,2
1523145397006735,-2,1,-2,46,9,0,-12,-11
1523145397008738,8,6,12,-24,18,10,8,-9
1523145397008738,4,-1,-1,10,-5,3,15,47
1523145397021271,-5,-4,-10,-9,-7,-12,-6,-12
1523145397021271,9,7,9,24,31,10,2,-1
1523145397028290,-9,-5,-3,-10,21,-4,-5,-3
1523145397028290,-9,-17,-23,-30,-27,-8,-6,-7
1523145397044334,1,7,10,-1,-8,-1,-17,-17
1523145397044334,-4,-4,3,13,-10,1,11,6
1523145397045844,7,0,-10,-11,-17,0,6,7
1523145397045844,3,27,35,10,22,0,3,-4
1523145397066895,-14,-38,-64,-11,1,-4,-12,-2
1523145397066895,22,7,11,5,-8,-1,-10,-7
1523145397068397,-9,-11,-6,0,-15,-3,-3,1
1523145397068397,2,2,0,-25,3,1,5,1
1523145397081432,12,8,7,6,-11,-3,3,-6
1523145397081432,-4,-2,-4,14,11,-1,2,-1
1523145397087949,5,3,-3,-2,-1,-3,-1,5
1523145397087949,-8,-4,-6,-5,-5,0,-3,-7
1523145397104997,22,8,12,2,6,3,1,0
1523145397104997,-13,-9,-2,10,-4,3,1,3
1523145397106499,-7,0,-7,-60,0,-9,-2,7
1523145397106499,-7,-1,13,62,-18,1,-9,-19
1523145397127053,-4,-3,-9,-26,1,-5,-2,-5
1523145397127053,16,12,27,39,41,19,17,25
1523145397128558,5,10,8,74,3,-1,-1,-2
1523145397128558,-2,-23,-42,-99,-7,-10,-8,-11
1523145397141094,-9,-2,9,49,-6,-4,-1,-4
1523145397141094,-1,1,-2,64,5,4,4,3
1523145397149615,15,-14,-25,-104,-37,-18,-10,-3
1523145397149615,8,11,45,117,52,22,9,4
1523145397165658,-7,15,18,-56,-3,2,2,1
1523145397165658,-13,-15,-56,-114,-65,-28,-15,-10
1523145397167662,8,1,46,120,52,20,10,8
1523145397167662,9,-2,-18,-32,-15,-9,-5,2
1523145397186711,-4,-4,-1,-30,1,5,5,6
1523145397186711,-13,1,13,7,13,2,-2,-6
1523145397188718,-4,-2,-25,-105,-22,-12,-3,1
1523145397188718,10,-1,0,14,-32,-3,-1,1
1523145397200750,10,2,12,23,22,6,1,2
1523145397200750,15,0,-4,-13,-12,-3,2,5
1523145397209773,-16,-7,-14,45,-23,-6,-4,-17
1523145397209773,24,12,35,69,73,17,17,41
1523145397224312,-23,-6,-21,-30,-20,-6,-6,-1
1523145397224312,-8,-3,3,-5,5,-1,-3,-4
1523145397226317,-4,-4,-8,0,-25,-3,-6,-13
1523145397226317,-7,-2,-12,-51,-4,-4,-11,-18
1523145397246875,4,3,-10,-2,-8,-4,3,1
1523145397246875,-3,-2,5,-1,23,-1,1,8
1523145397248378,0,7,13,23,1,6,-6,-11
1523145397248378,-16,-4,-10,-53,-22,-9,-1,3
1523145397260910,12,-7,-4,26,14,1,5,9
1523145397260910,-14,-4,4,12,-40,-6,-12,-23
1523145397269435,-10,-2,0,-6,0,2,1,7
1523145397269435,0,-2,-15,-26,-5,-3,-8,-10
1523145397284472,22,6,17,-2,43,6,2,2
1523145397284472,-16,-8,-29,-35,-19,-6,-2,1
1523145397285981,9,1,10,-7,-2,0,-1,1
1523145397285981,-18,-5,-4,9,-18,-4,-4,-13
1523145397307033,-2,-1,-2,-14,-7,-5,-1,6
1523145397307033,-3,-1,-8,-42,-9,-3,-2,-5
1523145397308541,9,1,1,21,60,10,6,6
1523145397308541,4,11,5,30,24,7,3,-4
1523145397320569,-8,-13,7,51,-4,1,0,-10
1523145397320569,13,3,0,-25,15,3,3,13
1523145397329592,-11,-4,-9,-36,-11,-6,-3,-5
1523145397329592,-3,-5,-23,-104,-37,-11,-4,0
1523145397344632,-9,9,22,90,21,7,4,0
1523145397344632,9,-2,11,81,9,4,3,5
1523145397346139,2,-1,-11,-38,-8,-4,-2,-3
1523145397346139,6,-2,3,-24,-17,-5,-5,-7
1523145397366691,6,-1,-17,-36,-14,-2,-5,-4
1523145397366691,-18,-16,20,-12,-7,-3,-7,-8
1523145397368696,4,-4,-21,-72,-21,-9,-3,-2
1523145397368696,4,3,27,117,32,12,7,4
1523145397380731,2,5,-4,-63,-13,-5,-2,3
1523145397380731,-7,6,5,25,18,2,3,-5
1523145397389753,-3,-3,-3,-21,-19,-3,-1,2
1523145397389753,-3,-3,-10,-29,-11,-8,-2,-2
1523145397404291,-8,-9,-19,22,-10,-2,0,0
1523145397404291,12,9,17,16,25,10,4,-3
1523145397406297,-5,-1,0,-24,-7,-2,2,4
1523145397406297,-3,-3,-2,19,0,1,0,-1
1523145397426855,6,4,-10,-64,2,-4,-5,-2
1523145397426855,-5,11,18,68,3,4,3,-9
1523145397428356,-3,-7,-15,-22,0,0,0,8
1523145397428356,-5,-5,-22,-108,-28,-13,-6,-4
1523145397440387,-3,8,38,69,52,14,6,6
1523145397440387,1,0,-8,-74,-17,-7,-5,-4
1523145397449412,2,-2,5,34,8,2,-1,-1
1523145397449412,-6,0,-7,-23,-17,-7,-4,-6
1523145397464451,-4,-8,-6,10,-3,0,-5,-9
1523145397464451,3,5,-4,-4,23,0,-1,-5
1523145397465956,-5,-1,7,25,-17,0,4,24
1523145397465956,2,-6,-3,-5,-13,-1,-2,-2
1523145397487014,-11,2,-1,1,-20,-7,-7,-7
1523145397487014,11,0,1,19,6,4,7,9
1523145397488514,-4,9,-1,0,-9,-5,-8,-18
1523145397488514,-7,-20,-20,0,-26,-8,-4,-7
1523145397500548,-13,5,1,-3,24,3,0,13
1523145397500548,4,-1,-6,-26,-28,0,-14,-37
1523145397509571,2,-7,-3,15,-4,4,19,28
1523145397509571,4,8,19,6,21,-1,6,14
1523145397524613,1,4,-14,-4,-17,1,-12,-17
1523145397524613,-2,-19,5,-5,15,4,4,11
1523145397526116,10,4,2,0,-12,-6,-11,-10
1523145397526116,-9,3,1,20,20,8,10,13
1523145397547172,-9,-1,-4,-25,-18,-13,-8,-12
1523145397547172,3,-14,-19,-17,5,-4,-1,4
1523145397548677,-12,2,-17,24,-15,-3,-4,-9
1523145397548677,5,-12,17,16,36,-2,-2,-4
1523145397560709,-6,3,-1,-23,-37,-4,3,0
1523145397560709,5,-2,-3,8,47,9,6,10
1523145397569732,4,3,10,10,24,2,-1,-1
1523145397569732,-7,5,-11,-4,-2,-4,-10,-7
1523145397584269,-1,0,-2,-13,-19,3,2,0
1523145397584269,10,-2,2,-5,-27,-9,-1,21
1523145397586275,-10,0,6,8,22,-4,-2,-19
1523145397586275,-5,0,-6,3,24,16,-6,-13
1523145397606829,12,-2,6,-14,-1,-3,1,42
1523145397606829,-9,-2,-22,-83,-43,-13,-14,-39
1523145397608334,-2,2,21,86,21,3,0,0
1523145397608334,-65,-10,-18,-35,-26,-4,-9,-38
1523145397620874,-5,1,9,9,-14,-3,1,1
1523145397620874,-2,-12,-16,17,-10,-8,0,10
1523145397629390,-8,-3,1,-39,-3,7,0,3
1523145397629390,8,2,12,11,-1,-1,2,6
1523145397644431,-11,-6,-22,6,-8,-6,0,0
1523145397644431,-5,6,-3,-116,-31,-9,-3,-1
1523145397645935,1,-3,30,108,64,14,5,-2
1523145397645935,11,9,0,-57,-24,2,4,8
1523145397666990,-4,0,-9,-104,-21,-10,-6,-14
1523145397666990,0,-13,-23,-71,5,-7,-2,2
1523145397668494,14,11,16,42,11,0,4,15
1523145397668494,20,-6,-19,-86,-41,-8,-9,-20
1523145397689553,6,12,34,127,68,14,12,16
1523145397689553,19,6,-4,-1,12,5,7,14
1523145397691057,-18,-6,-18,-73,-68,-12,-11,-6
1523145397691057,17,10,19,49,52,4,3,8
1523145397704590,4,-10,9,24,6,5,0,-11
1523145397704590,-7,0,1,42,-20,-2,-1,-1
1523145397706097,11,1,-10,-44,-5,-1,-2,-5
1523145397706097,4,0,9,-42,-15,-8,-7,-5
1523145397727149,1,-9,-23,-8,-5,1,-2,-1
1523145397727149,-14,0,0,25,32,4,6,7
1523145397728654,5,7,-3,-58,7,-4,-3,-21
1523145397728654,-7,-11,-1,28,-18,2,-2,15
1523145397749711,2,-1,-2,-35,6,-1,-2,3
1523145397749711,-16,2,21,97,11,0,-4,-13
1523145397751217,9,-7,-34,-128,-20,-11,-7,-11
1523145397751217,6,13,33,127,44,11,7,0
1523145397764751,3,-5,-15,-25,-3,-2,1,0
1523145397764751,-3,-3,-9,-49,-47,-6,-3,3
1523145397766254,-9,-5,-10,-20,24,2,2,8
1523145397766254,16,1,3,32,7,1,-1,7
1523145397786810,-39,-2,0,-26,-20,-4,-3,-12
1523145397786810,22,11,9,-3,0,2,-1,-4
1523145397788814,-19,1,2,10,-30,-8,-3,2
1523145397788814,7,-9,-26,-68,-11,-6,-2,0
1523145397809871,-1,-5,11,86,29,5,0,-9
1523145397809871,3,17,30,94,-2,11,10,7
1523145397811375,5,-11,-10,-20,-8,0,-6,1
1523145397811375,-3,9,8,-20,-9,-3,3,6
1523145397823909,8,-5,-12,-64,-16,-8,-5,-5
1523145397823909,-7,-2,-6,3,11,-4,-3,0
1523145397830426,5,-3,-3,1,-11,2,1,-1
1523145397830426,-8,0,20,65,6,-1,-1,-3
1523145397846969,-10,-8,-8,-19,64,4,1,-5
1523145397846969,7,6,-3,-15,-16,-2,0,1
1523145397848473,-15,-2,2,8,3,-1,0,2
1523145397848473,-5,-13,-22,-54,-10,-7,-4,-4
1523145397869532,-1,-3,5,38,-13,-2,-2,-1
1523145397869532,2,1,7,51,24,2,1,6
1523145397871035,2,1,7,-8,-2,0,2,2
1523145397871035,-15,-1,-6,3,-7,0,0,-4
1523145397884067,10,10,11,-15,-9,0,-2,-3
1523145397884067,-3,-7,-11,-58,-7,-5,-5,-8
1523145397890585,6,-1,-9,20,-33,-9,-2,5
1523145397890585,-21,-9,-3,5,38,6,2,2
1523145397907129,12,-1,-2,9,-5,-5,-4,-5
1523145397907129,0,7,14,-13,-19,6,5,14
1523145397908634,15,3,-7,-16,-3,-1,1,-2
1523145397908634,-16,-12,-20,-4,-26,-5,-6,-12
1523145397929187,7,1,8,-37,-10,-4,-2,-1
1523145397929187,-9,-13,-22,-19,-6,-3,-5,-9
1523145397931192,3,7,15,62,12,6,3,2
1523145397931192,9,5,-7,-39,-12,-4,-1,-15
1523145397943726,-2,0,2,2,-3,1,1,3
1523145397943726,-2,-2,-1,-17,-11,-2,5,36
1523145397950746,-2,-4,-1,5,15,1,6,-10
1523145397950746,-3,-1,-3,6,0,-4,-18,-27
1523145397966787,1,-2,-1,-7,-14,-2,-3,-30
1523145397966787,4,3,8,23,18,3,17,64
1523145397968792,-4,-4,-1,-15,-10,-3,-9,-27
1523145397968792,1,-2,1,-7,-10,-5,4,21
1523145397989350,5,1,-1,17,22,3,4,4
1523145397989350,-6,-5,-9,-10,5,-1,-7,-28
1523145397991355,-10,-3,5,6,6,-4,-14,-9
1523145397991355,5,5,4,0,-5,1,-4,-6
1523145398003886,-1,3,-8,-9,-15,-5,-1,-4
1523145398003886,-3,-4,5,9,13,0,-5,-6
1523145398010403,-2,-16,-19,-2,4,-3,5,10
1523145398010403,4,16,10,9,-4,-3,2,16
1523145398026948,-4,-14,5,-11,-20,4,-3,6
1523145398026948,1,10,-18,1,27,4,-2,-11
1523145398028451,1,-9,15,0,-34,-10,-12,-9
1523145398028451,12,15,11,3,32,6,6,-1
1523145398049514,-4,-4,-3,-5,-23,-1,13,33
1523145398049514,8,4,5,-18,-4,-5,-9,-21
1523145398051012,5,3,-1,13,0,3,0,3
1523145398051012,-10,-5,-10,-5,-10,-4,3,7
1523145398063545,-9,-4,5,12,11,-3,-7,-13
1523145398063545,-7,-7,-3,-5,-45,-4,-4,-18
1523145398070563,5,5,-6,-3,60,7,4,14
1523145398070563,3,-5,2,3,-1,1,2,3
1523145398087116,-5,1,-8,-28,19,-1,-1,-5
1523145398087116,-6,-10,-21,-71,-19,-9,-2,-5
1523145398088614,10,17,42,77,21,18,9,7
1523145398088614,-6,-9,-17,-50,-15,-6,-3,-1
1523145398109675,3,3,0,-25,-20,-1,-3,-2
1523145398109675,-8,-2,-14,-65,7,-11,-6,-5
1523145398111174,-16,-2,1,15,10,-2,0,-1
1523145398111174,14,11,61,119,64,25,9,-2
1523145398123206,10,3,-15,-84,-8,-7,-4,7
1523145398123206,-8,-8,-1,-35,-8,3,3,5
1523145398132227,-13,6,5,11,-7,0,1,-2
1523145398132227,-7,-14,-41,-42,-34,-12,-4,5
1523145398147269,7,0,2,42,10,-2,-4,-11
1523145398147269,-10,3,28,96,35,12,-1,-8
1523145398148773,15,-15,-26,-114,-64,-15,-4,1
1523145398148773,0,0,-6,1,68,-2,-1,0
1523145398169328,4,8,31,38,7,14,9,5
1523145398169328,-20,-14,-29,-44,0,-3,-4,-9
1523145398170832,-1,5,-4,-36,-17,-1,0,14
1523145398170832,-8,-10,-21,-8,-51,-15,-10,-29
1523145398182863,0,-11,-39,-115,-21,-11,-5,13
1523145398182863,22,23,71,127,78,27,12,9
1523145398191887,-12,-6,-16,-107,-22,-11,-5,-12
1523145398191887,2,-4,-12,-94,6,4,1,16
1523145398206926,-3,5,6,20,-17,3,-1,-8
1523145398206926,3,0,1,37,-5,-2,-2,4
1523145398208430,-5,-5,-16,-37,7,-8,-4,-1
1523145398208430,4,3,12,24,-29,0,-3,-3
1523145398229490,-5,1,9,39,32,3,8,1
1523145398229490,-5,0,-15,-78,-25,-11,-8,-9
1523145398230990,7,2,0,0,13,5,4,2
1523145398230990,4,5,33,90,29,13,2,3
1523145398243023,14,1,-3,-10,-7,-2,-4,-1
1523145398243023,-2,-15,-22,-61,-36,-12,-4,-5
1523145398252048,5,6,-9,-56,-5,-6,-1,-2
1523145398252048,-21,-2,12,44,-24,-2,2,2
1523145398267086,3,9,9,-9,49,4,-1,-4
1523145398267086,7,0,-9,-21,-1,2,-2,-3
1523145398268592,-1,-10,-10,5,-5,1,4,7
1523145398268592,9,-2,-18,-64,-36,-10,-7,-3
1523145398289648,-6,0,2,23,-16,-5,-4,-6
1523145398289648,-3,1,10,22,10,-3,-6,-9
1523145398291152,-6,-5,0,36,-6,3,-2,-7
1523145398291152,1,-1,-11,-20,-26,-3,3,5
1523145398303183,-2,-4,-7,-2,38,5,4,3
1523145398303183,-7,-3,4,3,-10,2,-2,-4
1523145398312207,4,7,4,20,7,-1,-2,-3
1523145398312207,-1,-8,-16,2,-14,-7,-3,0
1523145398326745,-3,0,5,69,-6,-1,-1,3
1523145398326745,17,5,7,18,3,5,7,14
1523145398328750,-1,-2,15,24,16,2,-3,-7
1523145398328750,-10,-8,-20,-76,-4,-2,0,-1
1523145398349808,-11,-9,-11,-16,-14,-7,-3,-1
1523145398349808,-18,-6,-30,-80,-30,-13,-10,-16
1523145398351311,1,14,47,111,39,17,9,9
1523145398351311,4,1,9,-115,10,1,2,9
1523145398362843,-6,-5,-9,-76,-30,-4,-4,-20
1523145398362843,7,1,2,29,-26,-7,-1,-1
1523145398372368,-12,-14,-24,-36,-9,-1,-2,-4
1523145398372368,0,-1,1,22,7,-1,1,1
1523145398386904,-5,4,12,26,-14,2,1,5
1523145398386904,8,0,-12,-10,-21,-5,-1,-5
1523145398388410,-9,-6,-14,-12,-17,-10,-4,-2
1523145398388410,3,3,15,47,21,10,6,1
1523145398409466,4,-5,-9,-17,-35,-2,-1,3
1523145398409466,-1,4,6,-6,26,0,-1,-5
1523145398410975,5,3,2,-9,5,-1,-1,3
1523145398410975,-3,-10,-19,2,-3,0,2,1
1523145398423002,6,-2,9,4,1,-5,-4,-2
1523145398423002,2,-2,-2,-12,1,6,1,2
1523145398432025,1,1,8,16,5,1,2,-3
1523145398432025,-6,-1,-4,5,-33,-10,-7,-14
1523145398447066,6,3,-2,-5,9,1,-6,-5
1523145398447066,-1,-1,6,11,-6,0,2,-2
1523145398448570,7,-1,-5,-13,-20,-2,2,16
1523145398448570,0,-2,-4,-10,-25,-1,-1,-18
1523145398469627,-2,0,-1,1,2,-6,-10,-15
1523145398469627,-3,2,7,-1,12,-4,-7,-39
1523145398471129,-4,-5,-9,-6,0,-1,20,84
1523145398471129,2,2,-3,3,15,2,6,22
1523145398483164,-2,-4,-3,2,1,1,1,-15
1523145398483164,-7,-2,-3,-5,-2,-5,-2,24
1523145398492187,1,-6,-13,-8,1,5,-3,-26
1523145398492187,5,5,9,12,9,1,10,21
1523145398507226,-5,-1,-8,-10,-1,-4,-5,0
1523145398507226,3,6,19,4,-2,-5,-10,-17
1523145398508730,-4,-14,-3,0,5,-4,-7,-21
1523145398508730,-4,1,14,-2,6,-2,-3,-2
1523145398529284,-3,0,-13,-5,-3,1,2,-2
1523145398529284,-1,-7,-3,3,8,2,8,12
1523145398530788,-1,4,6,-4,9,-2,-5,-11
1523145398530788,12,1,4,-12,4,1,-4,-9
1523145398543321,18,5,3,27,7,2,3,1
1523145398543321,-8,-2,-3,-8,-20,-9,3,13
1523145398551845,1,1,-2,2,-38,1,-4,-6
1523145398551845,0,-7,-21,-58,-37,-10,-10,-17
1523145398566384,0,4,20,46,36,6,9,23
1523145398566384,-3,-1,-16,-26,-16,-12,-5,3
1523145398573403,-16,0,-1,-39,1,-3,-10,-28
1523145398573403,-1,2,-7,-63,33,1,4,11
1523145398589445,5,6,46,62,24,12,6,11
1523145398589445,-25,-6,5,10,14,9,5,1
1523145398590950,20,-6,-38,-107,-36,-17,-10,-16
1523145398590950,-22,1,15,47,11,0,-3,-2
1523145398612005,-11,-9,-2,39,9,7,4,4
1523145398612005,19,20,49,93,54,17,6,5
1523145398613510,16,-20,-33,-55,0,-6,-6,-5
1523145398613510,0,-5,9,122,-21,2,0,-5
1523145398626543,-6,2,14,-20,13,0,-2,3
1523145398626543,9,-4,-36,-79,-33,-7,-4,-1
1523145398633063,-6,18,36,81,30,11,10,8
1523145398633063,-6,-5,-10,-80,-21,-7,-2,-1
1523145398649605,-9,-10,-25,-43,-24,-7,-5,-5
1523145398649605,19,-5,-19,-89,-37,-6,0,0
1523145398651109,-10,5,29,63,72,10,3,3
1523145398651109,3,4,-13,-26,17,1,-3,-8
1523145398671664,-6,0,2,-29,-4,-5,-5,-13
1523145398671664,-6,1,12,-18,1,6,4,-7
1523145398673669,4,1,-3,11,3,3,9,26
1523145398673669,-3,-4,-5,-14,-16,-7,-2,5
1523145398686703,3,-1,-18,-9,-22,-11,0,3
1523145398686703,-11,-10,-11,14,-1,-2,-8,-27
1523145398688709,-3,5,10,48,-20,-3,-8,-5
1523145398688709,8,9,5,7,16,9,1,-15
1523145398709264,-16,-22,-34,-98,-22,-15,-10,-9
1523145398709264,4,-3,1,98,33,7,12,39
1523145398711269,2,8,10,-59,-23,-2,0,8
1523145398711269,-23,-3,-10,-12,16,-4,-5,-1
1523145398731825,9,8,20,52,7,7,1,-8
1523145398731825,-9,-2,-4,-11,-9,-1,0,-8
1523145398733830,-6,-6,-17,-61,-12,-5,-7,-17
1523145398733830,9,9,25,61,47,6,1,-3
1523145398746865,-25,-4,-7,-20,-24,-1,1,-11
1523145398746865,0,0,4,-18,2,0,3,31
1523145398748370,3,1,-4,33,-8,0,2,-1
1523145398748370,-1,-6,-8,-21,-16,-5,-4,-4
1523145398769425,3,-4,-18,-83,-7,-6,-3,7
1523145398769425,-6,8,20,108,28,6,-2,-12
1523145398770928,-8,-10,-13,-27,-18,-6,-7,-10
1523145398770928,3,1,1,-7,-29,-4,0,8
1523145398791986,2,1,1,-30,33,5,3,2
1523145398791986,-3,-4,-21,-51,-46,-11,-7,-6
1523145398793488,9,2,15,31,5,-3,-3,-7
1523145398793488,-4,-7,-7,-16,14,6,2,3
1523145398806020,2,9,16,-19,-59,-6,-3,1
1523145398806020,-3,-15,-27,-53,8,-7,-3,-10
1523145398813041,1,1,11,38,-18,-2,-6,-1
1523145398813041,12,-1,-8,4,4,-4,0,4
1523145398830085,15,0,-7,-21,-33,-4,1,5
1523145398830085,-9,-8,-2,5,40,2,-1,-1
1523145398835603,-12,-4,-2,-14,0,-4,-12,-18
1523145398835603,29,2,-1,-7,-15,-1,-1,2
1523145398859663,-16,-6,-6,17,-5,-1,0,2
1523145398859663,2,0,4,-2,40,8,-1,-4
1523145398861169,1,0,0,-10,-5,-2,3,0
1523145398861169,-7,-5,-1,25,-14,-6,-5,-6
1523145398866183,7,-2,-2,5,11,2,-1,1
1523145398866183,-8,6,5,-25,-34,-3,0,5
1523145398873199,-7,-6,-8,-3,15,0,3,4
1523145398873199,-5,-4,-5,-11,-7,-4,-5,-3
1523145398889242,-9,-1,2,36,31,2,-2,-5
1523145398889242,2,-2,-3,-16,-18,1,-3,-4
1523145398891247,2,1,-2,3,6,3,6,4
1523145398891247,-17,3,-7,-6,-4,-3,1,0
1523145398911802,-4,-13,10,-7,-1,-5,-8,-12
1523145398911802,7,6,0,5,-24,-4,-5,-18
1523145398913307,5,3,-5,-23,-2,1,6,17
1523145398913307,7,0,-5,9,3,3,7,17
1523145398926342,0,1,-11,-39,-9,-2,-6,-3
1523145398926342,1,3,20,62,-3,4,2,0
1523145398932859,-9,0,2,-5,42,1,-8,-21
1523145398932859,-8,-7,-4,-10,-12,-4,-11,-16
1523145398949403,4,2,-7,-3,-8,0,4,7
1523145398949403,1,-6,-9,-24,-17,-6,-8,-10
1523145398950906,1,2,1,14,3,5,9,13
1523145398950906,-1,-1,5,-3,4,-1,0,-1
1523145398971967,0,-3,-3,21,0,-3,-4,-2
1523145398971967,-3,2,1,-11,23,-8,-18,-36
1523145398973467,3,2,3,16,-7,8,24,58
1523145398973467,-3,-5,-5,-14,-1,3,7,22
1523145398986500,3,9,1,15,7,0,-5,-17
1523145398986500,-3,-8,-11,-1,-13,-8,-1,2
1523145398993034,-11,6,21,-25,21,-5,-36,-75
1523145398993034,-2,-9,-7,29,-19,-10,-14,-47
1523145399009581,16,6,1,3,46,15,43,89
1523145399009581,7,3,0,-13,13,4,26,28
1523145399011085,-3,-3,-2,-4,-47,11,-5,-34
1523145399011085,-4,-1,-4,-1,48,-2,-6,-8
1523145399032138,-8,1,7,20,20,-5,-23,-56
1523145399032138,-2,-4,-9,-19,-39,-3,-7,-9
1523145399033642,1,-3,-3,1,5,-7,-1,-4
1523145399033642,-9,-1,-2,7,-10,-1,1,24
1523145399045673,15,4,9,1,31,-2,3,5
1523145399045673,-5,-6,-7,-8,14,0,11,14
1523145399054698,-6,-6,-9,-3,-31,11,-2,-3
1523145399054698,6,4,3,4,-22,-3,-6,-19
1523145399069237,-9,3,-1,-7,-14,-9,-9,-15
1523145399069237,-1,-25,-14,38,4,-3,-20,-55
1523145399071242,11,1,-11,-59,1,-9,28,72
1523145399071242,-13,3,19,63,20,15,26,36
1523145399092298,10,8,-8,-107,-79,-3,-3,-1
1523145399092298,-7,13,36,61,46,9,-15,-35
1523145399093801,-2,-3,1,-29,-2,-12,-27,-89
1523145399093801,4,-7,-23,-106,-20,-5,23,50
1523145399106335,-29,-24,-28,-29,-38,-9,15,31
1523145399106335,-21,1,18,25,57,15,2,-4
1523145399113354,1,-3,-23,-81,-4,-9,-5,1
1523145399113354,-2,-14,-35,-72,-82,-24,-27,-39
1523145399129396,3,19,48,73,59,20,-4,-30
1523145399129396,9,-3,-22,-128,-45,-13,3,30
1523145399130901,-22,4,-8,-11,-21,-12,-5,-3
1523145399130901,-6,6,22,35,28,8,-4,-18
1523145399151956,10,-4,-6,-41,-12,-3,0,11
1523145399151956,17,2,-15,-48,-36,-8,5,21
1523145399153461,-23,11,19,71,53,5,1,3
1523145399153461,12,8,32,43,46,16,1,-8
1523145399165491,-8,-7,-14,-20,-6,-2,-1,-7
1523145399165491,6,2,-14,-107,-21,-7,-2,13
1523145399174526,10,-6,-1,38,11,2,3,5
1523145399174526,1,1,9,10,10,1,-2,-3
1523145399190056,5,-3,5,33,14,4,2,-7
1523145399190056,-13,-6,-29,-84,-50,-18,-12,-4
1523145399191561,13,4,27,77,18,12,11,15
1523145399191561,3,2,10,18,2,7,-2,-2
1523145399212118,-8,-8,-19,-36,-25,-7,-9,-30
1523145399212118,-3,-2,-15,-74,-28,-8,6,29
1523145399213620,4,2,23,71,53,10,9,9
1523145399213620,4,7,8,-25,8,2,-4,-5
1523145399225652,11,-6,-32,-97,-41,-14,-12,-18
1523145399225652,-12,-5,34,127,35,8,1,0
1523145399234680,4,-4,-3,-13,-6,-3,-2,5
1523145399234680,-24,9,-15,-61,-19,-7,-1,-7
1523145399249216,0,-10,-26,-50,-27,-9,-5,4
1523145399249216,7,8,32,127,56,17,9,2
1523145399251220,7,-5,-6,-87,-32,-1,-4,3
1523145399251220,-28,-10,-29,-88,-38,-16,-10,-16
1523145399271776,3,10,23,98,22,9,4,11
1523145399271776,3,-3,-17,-79,-4,-4,-5,-3
1523145399273279,1,-3,-1,54,17,5,1,-9
1523145399273279,7,2,-1,1,-10,-6,-4,-9
1523145399285812,-9,-11,-4,-26,-6,-2,-1,4
1523145399285812,5,4,8,57,29,9,8,19
1523145399294335,5,-5,-14,-83,-37,-10,-4,-4
1523145399294335,-7,4,15,-15,13,1,-3,-3
1523145399309376,4,6,10,4,19,3,1,-21
1523145399309376,-4,-16,-28,-57,-35,-7,8,39
1523145399310879,-10,-13,-15,3,-18,-10,-7,-7
1523145399310879,11,8,40,93,58,16,0,-13
1523145399331936,-5,6,-11,-63,-13,-4,-1,7
1523145399331936,11,2,-6,-34,-12,-2,-6,-17
1523145399333440,-23,-14,-29,-88,-33,-15,-4,4
1523145399333440,3,-4,9,34,14,6,1,-1
1523145399345472,-3,0,1,-8,-1,-3,-3,1
1523145399345472,3,-3,-14,17,-14,-6,-3,-7
1523145399355000,7,9,20,36,23,7,5,9
1523145399355000,6,-5,-16,-61,-21,-7,-4,-16
1523145399369539,-6,-2,2,11,14,0,2,12
1523145399369539,-10,-4,-8,-20,-27,-4,-5,-11
1523145399371040,5,7,7,-29,-22,-8,-8,-13
1523145399371040,-2,-13,-17,27,20,0,3,11
1523145399392094,-3,-2,-17,-27,-22,-4,-1,2
1523145399392094,0,1,33,69,38,7,2,-13
1523145399393600,2,3,7,11,-2,-3,-7,-2
1523145399393600,5,1,-9,-40,-16,1,10,8
1523145399405639,10,0,7,25,15,2,2,9
1523145399405639,-6,3,-9,-20,0,-5,-13,-30
1523145399414656,13,-3,-2,-3,8,1,0,5
1523145399414656,9,-4,-1,-5,-4,-8,-5,7
1523145399429701,-22,-12,-10,9,-9,-1,-1,-7
1523145399429701,4,7,14,0,-6,2,0,0
1523145399431201,-5,-5,-11,-9,7,1,0,-14
1523145399431201,5,-1,-11,-24,-22,-4,-2,1
1523145399452757,7,2,10,17,5,-1,-2,0
1523145399452757,-2,-2,-2,-5,1,0,7,1
1523145399459776,-8,-4,-8,-8,-5,-5,-20,-12
1523145399459776,2,1,4,2,13,3,8,13
1523145399465791,-1,3,8,19,6,4,21,39
1523145399465791,-9,-4,-6,-15,-7,-4,-21,-46
1523145399481833,-4,-1,-5,-20,-16,-4,17,47
1523145399481833,1,3,9,4,-1,-2,1,-4
1523145399489355,-5,-11,-26,4,7,-5,-21,-28
1523145399489355,-3,4,13,-14,-12,-3,10,16
1523145399490859,1,3,-2,4,9,21,3,-15
1523145399490859,-2,4,1,-18,-37,-19,-17,-7
1523145399511914,-1,6,27,22,86,10,6,-28
1523145399511914,3,2,-8,-11,-21,4,9,56
1523145399513424,18,-4,-11,1,4,17,4,9
1523145399513424,-17,-6,-4,-2,-16,1,8,4
1523145399534477,4,5,3,0,23,-6,-9,-18
1523145399534477,-2,3,-8,-31,-8,-18,-5,-8
1523145399535977,2,-10,2,5,28,26,1,-5
1523145399535977,9,7,-10,-12,-9,-5,-15,-35
1523145399549518,3,0,12,12,-24,7,25,58
1523145399549518,12,-4,6,22,34,0,0,-5
1523145399551020,-16,7,2,-19,-26,-19,-2,4
1523145399551020,-5,-11,-14,9,29,-3,-11,-18
1523145399572076,1,3,-2,21,-43,-2,-8,-19
1523145399572076,11,10,12,13,18,11,11,24
1523145399573579,-1,0,-21,-75,-39,-21,-7,-21
1523145399573579,-1,1,35,89,73,14,10,10
1523145399593632,8,-1,-10,-59,-27,-3,-3,10
1523145399593632,-26,-11,-15,44,-60,-9,-10,-12
1523145399594635,-4,8,19,-7,-1,4,3,-5
1523145399594635,4,-13,-32,-71,-26,-8,1,4
1523145399608170,11,20,38,20,23,10,1,-2
1523145399608170,-16,-22,-34,-128,-32,-7,-10,-18
1523145399616193,3,-2,-14,-59,-10,-16,-5,-3
1523145399616193,-7,7,7,-19,10,7,6,8
1523145399631231,-13,-8,-17,-27,-39,-8,-8,-5
1523145399631231,3,-13,-5,-38,2,-5,-6,-10
1523145399632234,-5,-12,-31,-82,-61,-27,-10,-10
1523145399632234,-4,6,40,76,78,28,14,13
1523145399653790,-5,5,0,-71,-7,-9,-3,8
1523145399653790,0,-13,-38,-51,-30,-13,-10,-11
1523145399654794,9,19,60,113,63,28,15,12
1523145399654794,1,-5,-36,-128,-67,-18,-9,-10
1523145399668332,-11,-3,13,91,24,6,-2,-8
1523145399668332,-10,-5,-11,-65,-13,-2,-3,-14
1523145399676353,11,0,-11,-15,-5,-4,4,21
1523145399676353,-13,2,36,97,38,10,10,18
1523145399691391,-9,-8,-15,-24,-9,-6,-16,-26
1523145399691391,22,6,-20,-103,-16,-13,-10,-7
1523145399691893,-16,2,38,127,79,17,6,-23
1523145399691893,7,-6,3,-62,-40,-8,-2,34
1523145399713449,2,-10,-26,-45,-5,-3,9,25
1523145399713449,1,10,14,-5,-13,5,0,-17
1523145399714453,2,4,11,53,10,-1,-7,-13
1523145399714453,-6,-8,-37,-87,-33,-13,-7,-13
1523145399728992,-6,-10,0,-5,14,4,-1,-10
1523145399728992,-16,11,37,127,70,14,7,12
1523145399736513,-4,-6,-19,-42,-21,-11,-8,-9
1523145399736513,10,-4,-28,-94,-55,-10,3,13
1523145399751050,0,13,40,95,64,20,8,3
1523145399751050,-17,-4,7,-19,5,6,4,0
1523145399752054,-18,-11,-33,-110,-25,-12,-7,-1
1523145399752054,12,10,39,123,21,9,4,1
1523145399773611,4,-14,-28,-38,-30,-7,-3,-5
1523145399773611,8,7,4,30,10,4,6,11
1523145399774616,-3,3,9,1,10,2,2,4
1523145399774616,-2,-6,-11,-44,-20,-11,-12,-17
1523145399788658,-1,4,-3,-5,-12,-4,-3,1
1523145399788658,1,-5,4,57,18,5,3,0
1523145399789661,0,-1,-20,-33,-23,-10,-3,-1
1523145399789661,-4,-9,2,-12,6,3,1,-4
1523145399811210,11,-4,-14,-35,-45,-11,-7,-5
1523145399811210,7,10,22,92,66,13,5,1
1523145399812214,-8,-6,-4,-8,30,-1,-3,0
1523145399812214,-22,-1,-12,-6,-4,-3,0,-1
1523145399833770,2,0,6,18,-43,0,0,-3
1523145399833770,0,-5,-9,-53,-15,-6,-7,-3
1523145399834772,1,-6,-19,-30,-30,-8,-2,1
1523145399834772,7,10,33,118,67,18,2,-5
1523145399848813,0,-6,-15,-88,-21,-9,-5,-7
1523145399848813,2,9,0,-53,-19,-3,4,11
1523145399849312,4,-3,3,51,8,3,2,1
1523145399849312,-11,-9,-15,-35,-18,-9,-4,1
1523145399871377,-6,-6,-8,-13,2,-4,-5,-16
1523145399871377,21,3,11,36,-10,0,3,4
1523145399871875,-9,-4,-9,-28,18,-1,-3,0
1523145399871875,6,-4,-12,-39,-11,-7,-5,-5
1523145399893934,-5,3,9,77,14,0,-1,-5
1523145399893934,-1,-1,2,-6,33,0,-1,0
1523145399894433,-3,-2,5,-17,-43,1,2,3
1523145399894433,3,1,5,20,17,6,-1,1
1523145399908970,-3,-3,-8,-2,13,-1,2,8
1523145399908970,-2,2,-2,-48,-8,-2,-2,-4
1523145399909472,1,-2,1,10,-15,-4,-1,0
1523145399909472,5,-2,-7,-9,-6,-2,0,-5
1523145399931531,-2,7,8,-13,3,0,0,4
1523145399931531,-3,-5,-2,5,-8,2,0,3
1523145399932032,19,8,3,-15,68,10,-2,-4
1523145399932032,-10,-2,-5,-14,-17,1,-1,0
1523145399953591,-9,-6,-5,-8,27,-7,-6,-3
1523145399953591,-6,1,1,20,-38,7,3,-1
1523145399954595,-5,-5,2,3,-9,0,-5,-18
1523145399954595,5,-3,-10,-17,-3,-2,0,-19
1523145399968629,-1,-2,1,5,-11,-9,4,45
1523145399968629,8,5,4,-2,18,-1,11,27
1523145399969633,-4,-5,-5,-20,-15,-2,-1,7
1523145399969633,2,-1,-7,2,-18,8,-6,-9
1523145399991192,-8,-6,-7,-20,-9,4,1,-29
1523145399991192,-2,5,7,7,-3,-4,-7,-17
1523145399992193,-1,-7,19,27,21,5,-1,5
1523145399992193,-3,-1,-12,-25,-36,-5,16,14
1523145400014251,3,3,1,14,24,-5,-2,1
1523145400014251,-3,1,0,-25,8,22,-9,-2
1523145400015254,-5,-8,-11,-11,-38,7,24,-13
1523145400015254,5,10,8,20,62,-10,-11,-5
1523145400028287,-4,-16,-16,-10,-61,-9,-13,7
1523145400028287,54,1,-1,11,10,-4,1,0
1523145400036311,-32,-5,5,0,8,-3,-5,4
1523145400036311,-8,6,20,-12,0,-3,-2,-3
1523145400051349,-5,1,-7,-15,-19,11,7,-3
1523145400051349,7,-7,14,16,2,-13,-7,-6
1523145400051851,20,10,-2,5,0,-5,-1,6
1523145400051851,-33,-1,-4,-5,-15,-2,-7,-16
1523145400073909,7,11,9,-14,30,1,2,22
1523145400073909,-15,0,-3,1,-21,0,4,1
1523145400074411,-9,-1,2,40,50,2,0,4
1523145400074411,-2,-4,-18,-34,-46,-14,-6,4
1523145400096970,7,2,27,71,30,16,8,-11
1523145400096970,-20,-7,-1,46,21,2,-1,-8
1523145400097973,-12,1,-11,-77,-39,-13,-10,4
1523145400097973,9,-1,9,8,17,0,-2,-3
1523145400111007,-3,-9,-22,-55,-27,-7,-4,-6
1523145400111007,17,10,2,-15,22,-2,-4,-8
1523145400112011,-39,-6,-22,-63,-25,-8,-9,-12
1523145400112011,18,-1,3,26,-20,-3,4,23
1523145400134070,-4,-1,-2,16,15,1,1,-8
1523145400134070,-14,-14,0,-24,15,1,0,1
1523145400134572,24,1,-25,-55,-61,-15,-13,-15
1523145400134572,7,-15,21,59,31,10,1,1
1523145400157131,-4,7,8,29,16,-5,0,8
1523145400157131,-13,0,-3,-11,7,3,-3,-16
1523145400157633,24,-4,-29,-46,-31,-11,-1,30
1523145400157633,24,19,37,51,57,18,10,-5
1523145400171185,-8,-7,-15,-93,-28,-8,-9,-4
1523145400171185,-16,-3,-1,-10,2,-4,-8,-24
1523145400172174,1,0,4,-16,29,4,4,22
1523145400172174,-4,-11,-40,-120,-62,-19,-8,5
1523145400193729,11,11,34,73,18,11,7,3
1523145400193729,-10,-3,-30,-103,-41,-17,-5,-5
1523145400194730,3,1,20,68,13,14,-5,-25
1523145400194730,-1,5,13,60,66,9,-5,-12
1523145400208266,-2,-4,-9,-66,-21,-4,3,9
1523145400208266,-8,-5,-8,-46,-16,-5,4,15
1523145400216297,14,14,18,73,22,-4,-3,0
1523145400216297,-5,-13,-34,-73,-43,-6,-6,-18
1523145400231328,-5,3,19,104,26,10,10,1
1523145400231328,-3,-1,-1,21,5,0,0,11
1523145400231830,4,-3,-6,-52,-32,-10,-2,-1
1523145400231830,-16,7,9,3,11,3,0,0
1523145400253888,-5,-4,-15,-11,25,-5,-11,-13
1523145400253888,18,7,27,77,-4,13,9,6
1523145400254390,-5,-7,8,15,37,8,5,-1
1523145400254390,4,0,-15,-49,-35,-13,-5,3
1523145400267927,2,0,9,-14,33,-2,-5,-12
1523145400267927,-19,-14,-27,5,-6,-5,-2,-3
1523145400276448,6,1,12,-10,-4,1,1,-5
1523145400276448,-4,-7,5,-8,7,3,-2,7
1523145400290987,4,2,1,-2,17,3,6,25
1523145400290987,0,4,-7,-28,-28,-5,-7,-9
1523145400291990,-11,-1,0,-23,0,-9,-2,-2
1523145400291990,-10,-8,-17,-34,-49,5,-7,-13
1523145400313547,-7,4,17,57,15,4,-2,-14
1523145400313547,-2,1,6,1,13,-5,-1,1
1523145400314550,-2,-6,-17,-18,-12,2,1,0
1523145400314550,-14,0,4,-27,-16,-8,0,1
1523145400328085,10,3,5,9,10,6,0,12
1523145400328085,9,3,0,-15,0,-3,-1,-8
1523145400336110,-18,-6,-5,20,-11,-3,-1,-8
1523145400336110,20,14,16,30,35,4,7,18
1523145400351148,-12,-23,-28,-27,-25,-2,-3,-6
1523145400351148,1,5,8,-5,22,2,1,7
1523145400352151,7,-8,-15,21,-5,0,4,6
1523145400352151,-4,0,-13,-16,-17,-8,-9,-12
1523145400373706,-7,-5,-7,-63,-20,-8,-7,-11
1523145400373706,-7,-1,-13,-27,-30,-9,-4,1
1523145400374709,5,14,36,57,35,12,2,2
1523145400374709,8,-4,-4,-38,5,-1,1,0
1523145400388245,6,4,-9,-45,-9,-2,4,15
1523145400388245,-10,-10,-12,-6,0,-8,-2,1
1523145400396267,3,3,4,-12,-11,1,-11,-21
1523145400396267,-2,-5,-12,22,-41,-9,2,13
1523145400411307,9,1,6,-14,-11,-8,-10,-18
1523145400411307,-1,0,5,28,-6,-1,3,3
1523145400411809,-2,0,2,29,51,2,-10,-11
1523145400411809,-1,14,12,-5,-18,4,8,-1
1523145400433868,-2,-28,-27,-21,-21,-11,-13,-14
1523145400433868,0,5,8,12,11,-7,1,0
1523145400434368,-2,5,6,-12,-38,10,10,25
1523145400434368,1,-5,-16,-6,9,0,-1,-15
1523145400449913,-1,13,14,0,-17,-5,-1,-12
1523145400449913,9,8,9,15,29,36,2,-8
1523145400456426,-18,-12,-8,-10,-22,-18,11,58
1523145400456426,1,10,25,1,17,2,1,1
1523145400471469,-25,-16,-40,6,56,-7,-11,-17
