timestamp,emg1,emg2,emg3,emg4,emg5,emg6,emg7,emg8
1523055481075100,3,15,-6,0,-3,-1,0,0
1523055481075100,-1,-2,3,-4,4,0,-2,-1
1523055481084125,0,-7,0,-7,0,-1,-2,0
1523055481084125,-1,6,-1,3,-2,-1,-1,-5
1523055481085629,-4,-9,-4,2,-3,-2,-2,4
1523055481085629,0,1,-4,-3,-4,-2,-2,-7
1523055481097656,-2,-5,1,-1,-2,-3,-2,3
1523055481097656,0,-1,-4,0,-2,-1,-1,0
1523055481109195,1,14,3,-3,0,1,0,-3
1523055481109195,2,-13,-4,-4,-3,-2,-2,-1
1523055481122724,-3,-9,-7,0,-1,-1,-1,-1
1523055481122724,-1,6,1,-2,-2,-4,-1,1
1523055481129243,-1,-11,-4,2,0,0,-1,1
1523055481129243,-7,-6,1,4,0,-1,2,-1
1523055481143783,5,6,1,-1,4,1,1,1
1523055481143783,-1,0,-5,-3,-2,-1,-4,-4
1523055481145786,4,6,-1,0,-4,-3,-3,0
1523055481145786,-4,-1,3,-1,0,-1,1,-1
1523055481157885,-2,-1,-1,-3,-3,0,0,0
1523055481157885,0,-7,0,-1,-2,-1,-2,0
1523055481169415,1,3,2,-1,1,-2,-1,0
1523055481169415,1,9,-1,0,-3,-1,-2,-3
1523055481181448,-1,1,-1,0,1,-1,0,-2
1523055481181448,-3,-7,-3,-3,-4,-2,-1,-1
1523055481189468,-4,-16,-1,-2,-2,-1,0,-1
1523055481189468,1,5,4,-1,1,2,0,2
1523055481202503,-2,-1,-5,1,-3,-1,-1,-4
1523055481202503,2,9,-9,3,2,0,2,-1
1523055481236596,-1,2,-8,-5,-1,-4,-3,-2
1523055481236596,-3,-7,-1,-5,-6,-8,-9,0
1523055481237598,2,1,-1,1,-1,0,-3,1
1523055481237598,-1,-1,1,0,3,10,14,-2
1523055481240605,-2,-6,-4,-6,-10,-17,-15,-2
1523055481240605,7,5,3,5,4,3,6,20
1523055481242615,-1,-1,-1,-5,-2,-4,-5,-4
1523055481242615,-3,-5,-3,-3,-1,-3,-4,-3
1523055481249127,-3,1,2,5,7,13,9,-7
1523055481249127,-4,-1,-3,-2,-2,1,-1,-10
1523055481263165,1,-1,0,-1,0,-3,1,-1
1523055481263165,-1,3,-1,1,1,0,-4,-4
1523055481270184,-3,-10,-1,-1,0,1,0,-1
1523055481270184,-1,0,-3,-1,0,-3,-5,-3
1523055481277203,-2,-6,-3,0,0,0,5,1
1523055481277203,0,4,-1,-2,-4,-6,-5,0
1523055481292753,2,3,2,0,1,-1,0,5
1523055481292753,2,-2,0,-3,-1,0,2,-4
1523055481299762,-3,-2,-1,2,-1,2,-1,-3
1523055481299762,0,10,-4,0,-2,-4,-2,1
1523055481308795,-1,-16,1,-4,-2,-3,-1,0
1523055481308795,-5,-1,-2,9,1,4,3,-1
1523055481323383,2,5,5,-6,3,1,-4,-1
1523055481323383,1,0,6,6,1,-1,-3,0
1523055481329842,-1,18,-5,-9,-11,0,2,2
1523055481329842,0,-10,4,7,14,2,1,-4
1523055481337362,-22,-29,-18,0,-7,-4,-3,-5
1523055481337362,0,-2,-7,-12,-9,-2,1,2
1523055481352402,7,20,19,12,17,2,-2,-5
1523055481352402,-3,0,-3,-4,-10,-4,0,2
1523055481359923,5,10,3,15,0,-3,-1,-1
1523055481359923,-5,-20,-3,-6,5,3,0,-3
1523055481368948,-9,-8,-4,-3,-9,-3,-2,-2
1523055481368948,6,18,2,-7,-1,-3,-2,0
1523055481383017,1,17,4,-3,10,4,2,-2
1523055481383017,-3,-28,-12,-4,-14,-3,-1,-2
1523055481390016,5,9,1,3,1,1,0,0
1523055481390016,2,-4,-1,-4,1,-1,-1,1
1523055481397522,-1,3,2,-16,-8,-4,-2,-1
1523055481397522,2,13,3,5,-2,-4,-3,-1
1523055481412597,-4,-13,-3,4,8,3,3,0
1523055481412597,4,6,-2,-2,-6,-1,0,-1
1523055481420137,4,13,-1,-2,-1,0,1,1
1523055481420137,-8,-16,-3,-3,-2,-3,-3,-7
1523055481429163,-1,-12,-5,0,-1,-1,-3,-1
1523055481429163,-2,6,0,-1,0,0,-1,0
1523055481443145,2,-1,-2,0,1,1,1,3
1523055481443145,-2,5,5,1,6,0,-2,0
1523055481450163,-1,5,-2,0,-5,-1,0,-2
1523055481450163,-3,-4,-3,-3,-3,-1,-2,-3
1523055481457683,-2,-8,-8,-11,-7,-3,-1,-1
1523055481457683,5,15,3,2,4,1,-2,0
1523055481472222,-2,-1,9,2,1,1,0,2
1523055481472222,-8,-14,-4,-3,-3,-2,-1,-4
1523055481480242,3,2,3,4,-4,0,-1,1
1523055481480242,1,3,-2,-3,-2,-1,-1,0
1523055481488765,3,8,-1,-1,-3,-3,-2,-1
1523055481488765,-5,-10,3,-1,4,2,-3,-2
1523055481503804,-3,-13,-5,0,0,-3,-1,-5
1523055481503804,1,11,1,2,2,-1,-1,1
1523055481509878,-1,18,1,-3,-3,1,0,-4
1523055481509878,-5,-19,-4,-2,-5,-2,-2,-4
1523055481517397,-2,-3,-5,-2,-2,-2,-2,-3
1523055481517397,-2,-6,4,-2,4,-5,-5,-1
1523055481532382,0,1,-5,-4,1,-2,2,3
1523055481532382,-1,0,-3,-2,-5,-1,-2,-5
1523055481539902,1,3,4,5,4,4,-1,1
1523055481539902,-1,-6,-5,-2,-3,2,3,-2
1523055481548927,-7,-14,-6,-1,-4,-2,-4,-5
1523055481548927,-3,6,2,-11,2,-2,-3,-2
1523055481562964,2,1,3,-4,-1,-2,-1,0
1523055481562964,1,10,0,2,-3,-2,-1,2
1523055481569982,1,-10,-2,-2,-3,1,-1,1
1523055481569982,2,11,-5,4,-5,-2,1,-2
1523055481577502,0,-23,-3,0,-1,-3,-2,-2
1523055481577502,4,21,5,-7,1,-1,-4,-1
1523055481592543,-11,-13,-6,-4,-4,-3,-1,-1
1523055481592543,-1,-5,-3,-2,3,-1,-1,-1
1523055481600061,3,25,9,4,-4,0,1,2
1523055481600061,-3,-34,-6,1,1,2,-1,0
1523055481609145,4,7,0,-3,-1,-2,-1,-3
1523055481609145,-4,2,1,2,-1,2,1,-1
1523055481623127,-1,-4,-2,-1,0,-2,-1,-2
1523055481623127,5,9,1,0,-3,-1,-2,-1
1523055481630141,1,-1,-1,-2,0,-2,-1,0
1523055481630141,-1,-6,-2,-1,-2,-1,-1,1
1523055481637661,-4,-4,1,-1,1,0,-2,-1
1523055481637661,-7,-11,-3,0,-4,-1,0,-2
1523055481652702,-2,0,0,0,0,-4,-1,-3
1523055481652702,4,6,0,0,1,-4,-1,-2
1523055481660221,-2,8,-3,-2,0,1,0,1
1523055481660221,-5,-7,-6,-3,-1,-1,-1,0
1523055481668744,4,-4,0,0,-1,-1,-1,0
1523055481668744,1,15,3,-1,-2,0,0,-1
1523055481683282,-4,-25,-5,-1,-4,-2,-3,-4
1523055481683282,-3,3,-1,1,0,-2,0,0
1523055481689799,-2,-5,-1,-2,-1,2,0,-3
1523055481689799,5,14,2,-1,1,0,-1,-2
1523055481697320,-5,-1,-3,-2,-5,-1,-8,-11
1523055481697320,-1,-5,0,-1,-3,1,1,5
1523055481712359,-1,-5,-1,-1,-1,-2,0,5
1523055481712359,-6,-8,-2,1,-1,-4,-2,1
1523055481719879,1,-1,-7,-5,-3,-5,2,0
1523055481719879,3,6,14,0,-2,-2,-3,1
1523055481728904,3,1,-6,1,1,0,0,-2
1523055481728904,-1,3,3,-2,-5,0,-2,-3
1523055481742941,-1,-4,-2,-4,0,-2,0,-2
1523055481742941,0,8,-3,0,-3,0,-3,-5
1523055481749959,1,-5,-1,0,2,-1,-3,3
1523055481749959,-2,-13,-2,0,-2,-2,0,-2
1523055481757480,0,12,1,-1,1,0,2,1
1523055481757480,-3,-15,-6,-6,-3,-4,0,-4
1523055481772520,-4,-5,-2,-1,-2,-1,-2,-2
1523055481772520,-2,-1,-4,-1,0,1,0,-1
1523055481780040,2,9,3,-2,-1,0,-2,4
1523055481780040,3,9,-4,1,0,1,2,1
1523055481789064,-9,-13,3,-9,-10,-8,-6,-7
1523055481789064,-10,-25,-6,12,2,4,1,1
1523055481803102,3,-1,-2,-3,8,1,0,2
1523055481803102,4,5,2,3,0,0,0,-3
1523055481810176,0,15,-8,-8,-5,-4,-4,-1
1523055481810176,0,-16,9,15,12,0,-3,-4
1523055481817639,-4,-1,-6,-1,-9,-1,0,1
1523055481817639,4,7,-7,1,5,0,-2,5
1523055481832681,-3,9,7,0,2,4,3,-9
1523055481832681,8,-6,-9,-6,-8,-2,0,5
1523055481840201,-5,-10,4,1,8,1,1,-3
1523055481840201,3,6,2,-3,-2,-4,-2,-3
1523055481849225,4,10,-1,1,0,-1,1,5
1523055481849225,-3,-18,-7,-7,0,0,0,-1
1523055481863261,-7,4,2,15,-1,-3,-4,-5
1523055481863261,7,9,3,-6,-3,-1,-1,-3
1523055481869780,1,-9,-1,4,1,2,0,0
1523055481869780,-2,7,0,-7,-3,-5,0,-3
1523055481885821,4,5,0,-5,-2,2,3,5
1523055481885821,-13,-23,-3,4,0,0,-2,-5
1523055481892338,-1,-4,-2,1,1,0,-1,0
1523055481892338,3,5,-3,-3,-3,-1,-2,-1
1523055481899858,-3,7,5,-2,-4,0,1,2
1523055481899858,-8,-7,-4,-2,1,1,0,-6
1523055481908883,-2,-22,-2,-4,0,-3,-3,-2
1523055481908883,-2,15,4,-2,-1,0,0,2
1523055481923422,3,0,-2,-5,-2,-3,-2,-2
1523055481923422,2,7,-4,2,-2,0,-1,2
1523055481929940,-2,-3,-3,2,0,0,-1,0
1523055481929940,1,12,-2,-4,3,-1,-3,-4
1523055481945534,0,-3,2,-2,-1,-1,0,-4
1523055481945534,-4,2,3,-2,-1,-1,-2,0
1523055481952555,-1,-4,-7,-4,-3,-1,-1,-1
1523055481952555,-7,-4,-2,-3,-2,-2,3,1
1523055481960020,3,1,-3,-1,-4,-2,0,0
1523055481960020,-2,-2,1,1,-1,0,0,-1
1523055481969043,5,20,3,0,2,1,-1,0
1523055481969043,-7,-5,-1,-2,-2,-4,-4,-5
1523055481983082,-6,-14,-9,-3,1,0,-1,-1
1523055481983082,1,-8,-2,-4,-1,-1,3,0
1523055481990099,-1,-2,2,6,-1,-1,-2,0
1523055481990099,5,23,9,-4,0,-1,-1,-2
1523055482005693,-3,-16,-3,1,-5,-3,-3,-3
1523055482005693,-3,8,-1,-3,0,0,0,-4
1523055482012685,6,-1,0,2,0,1,2,5
1523055482012685,-11,-29,-7,-2,-4,-2,-2,-1
1523055482020179,1,8,2,1,2,-3,-2,0
1523055482020179,0,1,0,0,-1,-1,-2,-1
1523055482029203,-3,5,-1,-1,2,4,3,1
1523055482029203,-3,-11,-5,0,-2,-1,-2,-4
1523055482043295,3,1,3,-2,0,-2,-1,0
1523055482043295,-9,-17,-2,1,0,-1,-2,1
1523055482049757,0,2,-7,-5,-6,-5,-3,-3
1523055482049757,2,-4,-6,-5,2,1,-1,0
1523055482065800,3,8,3,-2,0,3,0,-4
1523055482065800,0,8,5,-1,-1,-3,-3,1
1523055482072318,1,-11,-2,-5,-4,-4,-3,1
1523055482072318,3,7,1,3,-1,0,2,6
1523055482079837,-2,1,-4,2,-3,2,2,-6
1523055482079837,0,-3,-2,-1,0,-2,-2,-2
1523055482088863,-6,-9,-1,0,2,0,1,-1
1523055482088863,6,4,-2,-2,0,1,-1,0
1523055482102900,-1,10,1,-1,0,-1,1,2
1523055482102900,-5,-12,-3,-2,-4,-1,0,-1
1523055482109918,-3,-12,-6,-1,-1,-1,-2,-5
1523055482109918,2,2,1,1,-3,-3,-1,-1
1523055482125463,-5,-5,-2,0,1,2,2,1
1523055482125463,-4,-11,-12,-4,-3,-3,-1,-3
1523055482132478,1,2,6,-1,-3,-3,-2,1
1523055482132478,3,8,1,3,1,1,4,-2
1523055482140000,-2,-3,-1,-1,-1,-1,-3,-1
1523055482140000,0,0,-3,-1,0,0,-2,-1
1523055482149022,0,6,1,0,-1,0,1,-3
1523055482149022,-1,0,1,-1,-2,-1,0,-1
1523055482163059,1,0,-2,-3,-1,-3,-1,2
1523055482163059,-2,-1,2,2,2,1,1,-1
1523055482170078,-1,2,-1,-1,-1,-2,1,-1
1523055482170078,4,7,2,-2,-2,-1,-5,-2
1523055482185619,-1,-9,-1,0,0,2,0,3
1523055482185619,-6,-4,-4,-4,-4,-5,-4,-6
1523055482192638,-2,3,-4,0,1,2,0,-1
1523055482192638,-2,-4,0,-4,-4,-6,-4,-3
1523055482208180,1,-5,1,2,2,3,5,4
1523055482208180,2,1,-5,-3,-1,0,1,2
1523055482214696,0,-2,0,-1,1,1,-2,-2
1523055482214696,-5,5,-14,1,0,1,-3,-4
1523055482222718,-2,-6,16,-2,-4,-5,-4,-3
1523055482222718,-4,2,3,-2,-2,-1,0,0
1523055482231241,-2,-3,1,0,-1,-3,-4,-2
1523055482231241,-3,-13,-3,0,-2,-1,-2,1
1523055482245779,2,13,-1,-1,0,-2,-2,-3
1523055482245779,6,9,3,1,1,2,1,0
1523055482252297,-3,3,-1,-3,-2,-1,-3,-1
1523055482252297,-3,-7,-3,-5,-3,-1,1,-1
1523055482268339,-1,-5,-6,1,-1,-3,-1,-4
1523055482268339,0,7,8,-8,1,0,-2,-2
1523055482274856,2,1,-3,7,1,-1,1,-1
1523055482274856,3,0,4,6,2,-1,0,0
1523055482291402,-23,-19,-7,-3,0,1,-1,0
1523055482291402,7,-11,-1,-3,-1,0,-1,-4
1523055482292905,2,26,13,-1,2,0,-4,-1
1523055482292905,-5,-10,-5,-7,-5,0,0,0
1523055482305439,6,3,-9,13,3,1,-1,-3
1523055482305439,-3,-3,0,1,0,-2,-3,0
1523055482312457,-4,-3,-1,-2,-4,-4,1,0
1523055482312457,-1,-1,-2,-7,2,1,0,-1
1523055482327998,7,-6,-4,-4,1,0,-2,1
1523055482327998,-8,10,-2,-4,-3,-2,0,-1
1523055482335017,19,17,1,1,-3,1,2,4
1523055482335017,1,-2,0,8,2,-1,-1,-6
1523055482351060,-7,-11,-11,-11,-9,-8,-3,-4
1523055482351060,6,6,8,-4,5,0,-1,-1
1523055482353065,-6,-18,-5,-3,-2,-1,-3,-4
1523055482353065,-3,-6,2,1,-3,-2,1,2
1523055482365599,6,14,0,0,-2,0,-3,2
1523055482365599,6,8,-7,2,-4,-2,0,-2
1523055482372616,-6,-6,-3,-5,2,-1,-2,-3
1523055482372616,-7,-6,0,-2,0,-1,-1,-2
1523055482388215,-2,10,4,2,1,-2,-3,-3
1523055482388215,-3,-2,-6,3,-4,-3,-1,3
1523055482395178,2,12,1,-2,-2,1,1,-1
1523055482395178,-7,1,0,0,2,0,0,-2
1523055482411221,0,-16,-5,-5,-7,-2,-2,-1
1523055482411221,-2,-8,-4,3,0,1,-1,2
1523055482412723,-3,-2,-8,-1,-2,-2,0,-1
1523055482412723,7,12,5,0,0,3,0,4
1523055482425759,-3,-3,1,-1,1,-3,-2,-6
1523055482425759,-5,-7,0,-5,0,-1,-2,-1
1523055482432276,-2,-9,0,0,-3,-1,-3,-3
1523055482432276,-1,6,2,-1,-1,-2,-3,1
1523055482448319,-3,-5,-4,1,0,3,-1,0
1523055482448319,-3,-19,-5,2,2,3,2,-1
1523055482454835,-4,-4,-3,0,-3,-3,0,1
1523055482454835,1,-2,5,-3,1,-1,0,-1
1523055482471379,4,39,4,0,-1,-1,0,-3
1523055482471379,-7,-47,-12,-1,-4,-5,-3,-4
1523055482472884,-3,-7,-5,-1,-1,0,1,0
1523055482472884,4,7,-2,2,-5,-1,0,5
1523055482485471,1,1,3,0,4,2,1,-4
1523055482485471,-5,18,3,0,0,-2,-1,-4
1523055482492471,-6,-17,-3,-1,0,-3,-3,-4
1523055482492471,2,3,-2,1,-1,-2,-2,-1
1523055482507977,-3,-8,0,-5,-4,-1,0,3
1523055482507977,1,10,-3,0,-4,-2,1,-1
1523055482514995,-1,-5,2,-3,2,2,2,-1
1523055482514995,-1,10,-1,-1,-3,-4,-3,-3
1523055482531562,3,2,-2,-4,-2,-3,-2,1
1523055482531562,0,-9,-1,-3,-1,0,0,1
1523055482533098,-4,12,0,0,-3,-3,-2,-1
1523055482533098,-4,0,-2,-3,0,2,1,-2
1523055482545577,-1,2,-3,-4,-1,-4,-2,-3
1523055482545577,1,-1,2,1,-1,0,-1,1
1523055482552595,-3,-7,0,4,-1,0,1,1
1523055482552595,-2,-3,1,0,-2,-2,0,-1
1523055482568137,1,-9,2,-2,2,3,3,0
1523055482568137,0,24,3,2,-2,0,-2,-3
1523055482575161,-2,-2,-2,-1,-3,-2,0,-1
1523055482575161,-1,1,-4,-5,1,1,2,-1
1523055482591253,-3,-16,5,6,-2,-2,-2,5
1523055482591253,1,1,1,-3,-1,0,1,-1
1523055482593204,2,2,-1,0,1,1,1,-1
1523055482593204,-3,-17,-12,-2,-3,-1,-2,-3
1523055482605236,-5,-16,-4,-2,-1,-1,-1,-2
1523055482605236,5,16,8,-2,2,0,1,1
1523055482613759,-6,-3,-3,0,0,-2,-1,-2
1523055482613759,4,6,0,0,-3,-4,-1,0
1523055482628298,-2,-5,-1,-1,-1,-1,-1,-2
1523055482628298,-4,-2,-5,2,0,-2,-2,-1
1523055482634814,4,-5,2,-1,1,-1,0,0
1523055482634814,0,7,2,-1,2,-3,0,-2
1523055482658879,-4,-5,-6,-2,-2,-1,0,-2
1523055482658879,1,3,-3,-1,-1,0,-2,0
1523055482660383,-3,10,8,-3,-1,0,-2,-3
1523055482660383,-4,-19,-10,-3,-1,-2,-2,-2
1523055482665897,1,1,0,1,-3,-2,-1,-1
1523055482665897,0,-2,-4,-2,-2,-1,-1,-1
1523055482672414,2,3,1,-2,-2,1,1,0
1523055482672414,-5,-1,1,0,-3,1,-1,-5
1523055482687956,1,9,0,-1,0,-3,-2,-1
1523055482687956,-6,-9,-2,1,0,-1,3,-2
1523055482694976,-3,-6,-4,-2,-1,-5,-3,2
1523055482694976,2,2,1,-2,-1,-3,-2,3
1523055482711520,-1,-2,-3,-2,0,0,-4,1
1523055482711520,-3,0,-1,-1,0,1,0,-3
1523055482713023,0,-4,-1,0,0,3,1,-3
1523055482713023,-2,1,2,0,-1,-1,-1,-2
1523055482725591,0,1,1,-3,-2,-3,0,0
1523055482725591,-1,-3,-2,-1,-2,-4,-2,-4
1523055482732611,2,-4,-3,-2,1,0,-4,1
1523055482732611,-2,2,0,-1,-3,-1,-1,0
1523055482748117,1,4,0,-1,-4,0,1,3
1523055482748117,-2,6,3,2,2,-2,0,1
1523055482755136,-6,-13,-5,-4,-2,-3,-1,-2
1523055482755136,-6,-25,-5,-3,0,0,0,-2
1523055482771177,0,-9,-5,-4,-5,-1,0,-2
1523055482771177,0,-3,6,3,2,-1,-3,0
1523055482773184,2,8,2,2,-2,0,-1,-1
1523055482773184,2,15,-6,-2,-2,-2,-2,0
1523055482785717,-5,-4,1,-4,-4,-1,1,-2
1523055482785717,-1,-1,3,9,-2,-2,-5,1
1523055482792234,-5,-13,-6,-8,2,0,-1,0
1523055482792234,1,-6,6,3,-1,-1,1,1
1523055482808277,3,21,5,-8,-1,0,1,-1
1523055482808277,-5,-24,-11,4,-1,0,0,0
1523055482814850,0,17,4,-1,-3,-3,-3,-2
1523055482814850,-11,-26,-6,-6,-6,-2,-1,-2
1523055482831337,13,19,0,14,7,4,1,0
1523055482831337,-12,-10,3,-8,4,1,-1,-3
1523055482832845,1,3,-5,-15,-6,1,-2,0
1523055482832845,6,17,-1,-4,-2,0,-1,2
1523055482844873,-1,-22,-5,0,-3,-4,-3,-1
1523055482844873,1,7,-6,-9,-1,-1,-1,2
1523055482853897,-6,-28,-13,-1,-2,-5,-6,-7
1523055482853897,0,10,9,14,-2,-1,-2,-7
1523055482867935,-3,14,3,-4,1,-2,-1,-1
1523055482867935,-1,-15,-2,-1,1,3,-2,-3
1523055482874954,-2,-13,-9,-6,-5,-4,-1,1
1523055482874954,6,8,4,0,0,1,2,3
1523055482891498,-1,-8,-7,4,6,-1,-1,0
1523055482891498,6,29,15,-3,-2,0,-1,1
1523055482893002,1,32,9,6,0,0,0,1
1523055482893002,-7,-61,-14,-5,-1,-1,-5,-4
1523055482905033,-2,9,1,-1,-3,0,1,-2
1523055482905033,7,0,-6,-1,0,0,2,3
1523055482914058,5,8,7,10,2,1,1,-1
1523055482914058,1,27,4,-3,1,-2,-1,1
1523055482928095,-6,-17,-4,-1,0,-1,-2,-2
1523055482928095,2,4,-3,-7,-6,-4,-1,1
1523055482935113,0,1,-1,3,1,-1,-2,-4
1523055482935113,-6,1,-6,-3,1,0,-2,-2
1523055482951213,3,-12,-5,-3,0,0,0,0
1523055482951213,1,6,-4,1,-1,-2,0,0
1523055482953165,-3,-10,-3,1,-6,-4,-1,0
1523055482953165,0,15,3,-10,2,2,2,-1
1523055482965196,-5,4,4,8,-2,-1,-3,-1
1523055482965196,-2,-4,-1,-1,0,-1,0,-5
1523055482974218,-2,0,-4,-2,2,-1,0,1
1523055482974218,1,-8,-1,-2,-2,-1,-1,0
1523055482988311,-2,-3,-5,-4,-4,1,1,-1
1523055482988311,-7,-12,2,-1,-3,-1,0,1
1523055482995275,-5,-27,-7,-1,3,-1,0,-2
1523055482995275,2,19,-4,-2,-3,-3,-1,-2
1523055483011318,2,11,10,-3,8,2,-1,3
1523055483011318,2,9,-3,2,-3,2,1,-2
1523055483012821,-8,-29,-4,-5,-3,1,-1,-2
1523055483012821,-3,-5,-2,4,-2,-2,-2,-1
1523055483024907,-1,1,-4,0,-6,-3,-1,-2
1523055483024907,1,2,6,-14,13,3,-2,-1
1523055483033878,4,11,2,2,-3,-3,0,2
1523055483033878,-6,-1,-5,-1,2,0,3,-3
1523055483048918,-6,-13,-7,4,-6,-5,-6,-5
1523055483048918,2,6,-5,-2,-4,0,-1,1
1523055483054989,-3,-1,3,1,-3,-2,-2,-2
1523055483054989,3,7,2,-11,4,-1,-2,2
1523055483070473,-2,0,0,2,2,0,-2,-1
1523055483070473,-2,0,-2,1,-10,-8,-3,-2
1523055483071476,1,0,-1,-4,2,0,-2,-3
1523055483071476,2,1,-3,5,13,4,0,1
1523055483093067,-4,5,4,-7,-8,-1,0,0
1523055483093067,1,-16,-5,0,-4,-5,-2,-1
1523055483094071,2,12,1,-2,-4,0,3,0
1523055483094071,-2,11,0,2,-5,-6,-5,1
1523055483109079,3,-13,-4,-5,6,4,7,-2
1523055483109079,0,14,-1,4,-2,-1,-1,-1
1523055483115094,-4,-17,1,2,1,0,-1,1
1523055483115094,1,10,-3,0,-3,-1,-3,-1
1523055483130187,3,12,3,-1,0,-5,0,1
1523055483130187,-4,-6,-9,-3,-6,-1,-1,1
1523055483137654,-1,1,2,0,4,-1,-3,-3
1523055483137654,-1,-9,1,-1,-2,-1,-1,1
1523055483153195,-3,0,-7,-1,-2,-1,-2,-3
1523055483153195,-2,-10,-1,0,0,-1,-2,-2
1523055483153697,-2,4,1,-1,0,0,-1,-1
1523055483153697,-1,-7,3,0,2,1,0,-2
1523055483169237,-4,-3,-6,-3,-4,0,2,0
1523055483169237,-3,-7,5,0,2,1,0,-6
1523055483175253,2,11,-5,1,-3,-8,-7,3
1523055483175253,3,6,-3,0,-1,-1,-3,-3
1523055483189791,-1,-5,-4,-3,-2,-1,6,3
1523055483189791,-1,-9,-3,0,1,4,3,3
1523055483197312,3,9,-3,-2,0,-2,-4,-1
1523055483197312,-2,-4,4,0,-2,0,-4,-3
1523055483213355,-3,-6,-7,-2,-1,-2,-5,-7
1523055483213355,-3,5,-5,2,-2,0,1,-2
1523055483213857,1,7,5,0,-1,1,4,0
1523055483213857,0,-7,-2,-2,-4,-3,-1,-1
1523055483228896,-6,-12,1,-1,3,0,-4,-1
1523055483228896,3,4,-1,-2,-3,-4,-2,-1
1523055483234946,2,16,-5,-2,2,0,-1,-2
1523055483234946,-1,-6,5,2,-1,-1,0,-1
1523055483249953,0,-2,2,-2,-2,-1,-2,0
1523055483249953,-2,4,-3,-1,1,-1,-1,0
1523055483257471,-4,-12,1,0,-4,-4,-1,-2
1523055483257471,1,1,1,1,3,0,3,0
1523055483273016,2,-1,0,1,-5,-1,-3,-1
1523055483273016,-1,-1,2,-10,0,-3,-4,-1
1523055483274015,0,0,-4,11,-2,1,-1,-1
1523055483274015,-1,-2,-2,3,-5,-1,0,-2
1523055483289056,1,11,4,0,3,1,-3,-1
1523055483289056,-3,-15,-8,-2,-4,-3,0,-1
1523055483295107,-4,-3,2,-5,-1,-2,-2,-2
1523055483295107,-2,-20,-11,4,-2,1,2,-1
1523055483310144,-1,13,0,-8,-6,-1,-3,1
1523055483310144,4,7,1,9,10,-2,-2,-4
1523055483317665,0,-9,-3,-7,-1,2,2,0
1523055483317665,-5,-12,-3,7,-1,0,1,0
1523055483333226,-7,-18,2,-12,4,0,-3,-2
1523055483333226,10,10,-1,8,-2,1,2,4
1523055483334175,-5,18,10,6,7,2,-1,-3
1523055483334175,-3,-6,-1,-11,-6,-2,-2,1
1523055483348716,-1,10,-2,2,-1,-4,2,-3
1523055483348716,-1,-5,-3,-10,0,-2,-2,-3
1523055483354731,1,-6,-1,-3,-4,-1,3,1
1523055483354731,-5,4,-4,-6,-3,-4,-2,-1
1523055483369803,3,-5,-4,2,-5,-2,-3,1
1523055483369803,-1,10,7,-1,1,-1,-3,0
1523055483377290,3,-3,-2,-1,-4,-1,-1,-2
1523055483377290,-3,19,3,3,6,5,5,-1
1523055483393338,-4,-27,-5,-4,-6,-5,-4,-5
1523055483393338,0,3,-3,-1,-4,-2,-2,2
1523055483393835,-2,3,3,-1,0,0,-1,0
1523055483393835,-1,-10,-2,-2,-1,0,-2,-2
1523055483408932,-5,-9,-1,0,2,0,0,-2
1523055483408932,-1,0,1,-1,-2,0,0,-2
1523055483414947,1,1,0,3,-1,-1,-3,0
1523055483414947,0,6,1,-3,-3,-2,-3,-1
1523055483430041,4,7,-4,0,-1,-1,0,0
1523055483430041,-5,-8,1,3,-1,-2,-1,-2
1523055483437563,-5,-15,-9,-4,2,0,0,0
1523055483437563,2,2,1,-4,0,-1,0,-1
1523055483453050,5,5,0,3,0,1,-3,-1
1523055483453050,-3,-2,0,-2,-5,-3,0,-2
1523055483454051,1,-7,-5,1,-1,0,-1,0
1523055483454051,-2,-3,1,-1,0,-2,-4,-1
1523055483469095,4,6,-2,0,-4,-3,1,2
1523055483469095,-6,-17,0,-5,3,-1,0,-3
1523055483475107,-1,0,2,-3,2,-2,-2,-3
1523055483475107,5,-2,-1,0,-5,-2,-1,3
1523055483490149,-5,-2,-1,3,1,3,1,-2
1523055483490149,2,13,-2,-3,-3,-1,-1,0
1523055483497668,-4,-16,-5,-6,-2,0,-2,-3
1523055483497668,0,0,1,2,0,-3,-2,-1
1523055483513210,-1,7,4,2,2,2,1,0
1523055483513210,0,-2,-1,-4,-2,0,-1,0
1523055483513711,1,-2,-3,-1,-3,-2,-2,0
1523055483513711,-4,6,-2,-7,1,-1,-3,-5
1523055483528752,0,-2,3,1,-6,-2,2,0
1523055483528752,-3,-10,-3,6,0,0,-2,-2
1523055483534767,2,2,0,-5,0,-4,-3,-2
1523055483534767,-2,-17,-2,3,2,-1,-1,-2
1523055483549807,-2,22,4,1,2,-1,-1,1
1523055483549807,-6,-1,-4,1,-4,-2,-3,-5
1523055483557327,0,-3,-5,-1,-4,-1,0,-2
1523055483557327,2,-6,-5,1,-2,-1,-1,0
1523055483572868,-1,-3,4,-3,5,1,-3,-2
1523055483572868,0,-3,-4,-2,-2,0,1,2
1523055483573872,-3,8,1,1,-3,1,-1,0
1523055483573872,-5,-6,0,1,1,0,1,-3
1523055483588912,-3,-5,-5,-4,-3,-3,-1,-1
1523055483588912,0,-13,-4,2,0,-5,-1,0
1523055483594926,1,8,6,-1,0,0,0,1
1523055483594926,-4,-9,-3,-1,-3,-2,-3,-3
1523055483610024,2,0,0,0,1,2,-1,1
1523055483610024,-1,7,2,-2,-1,0,0,1
1523055483617486,0,-9,-5,-1,-2,-4,-1,-2
1523055483617486,5,9,1,-2,-3,-2,-1,0
1523055483633029,-3,-4,0,0,-1,0,-2,-1
1523055483633029,-3,-5,3,-2,1,4,1,0
1523055483634032,-3,0,-6,1,-2,-1,-1,-1
1523055483634032,-3,-1,1,-2,-1,-2,-2,-3
1523055483649070,-2,-3,-2,-2,0,0,1,-3
1523055483649070,0,-11,-6,-1,-1,1,-4,-2
1523055483655086,-1,2,10,2,3,1,-1,0
1523055483655086,2,0,-5,-3,-3,-2,-5,-1
1523055483678149,2,2,-4,-4,-7,-13,-4,7
1523055483678149,3,9,3,1,5,4,4,3
1523055483679150,-3,-11,-3,-1,-3,0,1,-4
1523055483679150,1,6,-1,-3,-3,0,1,-2
1523055483693221,-4,-2,0,-1,-1,2,-1,-6
1523055483693221,-1,3,-2,-3,-4,-6,-5,-4
1523055483693691,0,-1,-3,2,1,-1,0,0
1523055483693691,-1,2,3,-3,0,-3,-2,2
1523055483708729,-3,-4,-5,0,-3,-1,-2,-9
1523055483708729,1,3,4,-4,-2,-3,-1,1
1523055483714746,-1,2,2,-1,2,0,0,-2
1523055483714746,-4,-11,-2,-1,-3,0,2,0
1523055483729843,5,6,-1,0,0,0,-1,2
1523055483729843,-4,-8,-6,-1,-1,0,0,0
1523055483737359,-5,8,3,-3,-1,1,-3,-6
1523055483737359,8,7,-1,1,1,-1,1,2
1523055483753347,-3,-3,-1,-1,-1,0,-1,-1
1523055483753347,-3,2,-5,-1,-6,-2,-3,-3
1523055483753849,-1,-5,0,1,0,-3,-3,1
1523055483753849,-3,1,4,3,4,2,-1,-2
1523055483768889,4,3,-3,4,-6,-1,-1,-1
1523055483768889,0,5,3,0,0,-1,3,2
1523055483774963,-4,-1,-7,-15,-11,-6,0,-1
1523055483774963,-2,-14,-7,4,-5,-3,-2,-1
1523055483789945,0,10,14,0,13,-1,-4,-4
1523055483789945,1,-1,0,6,-1,-3,-2,-1
1523055483797464,-3,-4,-4,-2,-2,-1,0,0
1523055483797464,-3,5,2,0,-3,-3,0,-2
1523055483813060,0,-12,-9,-10,-9,-2,0,2
1523055483813060,3,13,3,2,0,-4,-5,-2
1523055483814062,3,3,-1,-6,-2,0,-1,-1
1523055483814062,-8,-26,0,8,8,1,-1,-1
1523055483829050,-2,-3,-3,-2,-2,1,-2,1
1523055483829050,-1,0,2,-1,5,3,0,-1
1523055483835121,6,-1,-4,0,-3,-2,1,3
1523055483835121,3,12,-4,-7,-2,-1,1,2
1523055483850106,-5,-8,1,2,1,-3,-3,-4
1523055483850106,-1,2,1,-3,-4,-3,-2,-1
1523055483857624,-1,2,-1,7,1,1,0,0
1523055483857624,-2,0,1,-1,-2,0,0,-2
1523055483873167,-2,-18,-6,-2,4,1,2,0
1523055483873167,0,16,-5,-3,-6,-2,-2,-3
1523055483874170,-5,-32,-9,-5,-2,-3,-2,-2
1523055483874170,-6,9,7,-5,2,3,-1,-3
1523055483889210,0,-3,-4,-2,-3,0,0,1
1523055483889210,0,-9,-1,-1,-1,0,0,-1
1523055483894725,-2,3,4,3,3,2,-1,0
1523055483894725,8,9,1,-5,-4,-3,-1,-1
1523055483909821,0,16,3,-3,-3,-2,2,2
1523055483909821,-8,-20,-8,3,1,-1,-1,-4
1523055483917340,-2,3,1,1,2,0,-2,-2
1523055483917340,-1,-2,-1,-4,0,0,0,-2
1523055483933328,3,4,2,0,-5,-2,-1,3
1523055483933328,5,16,4,2,-1,1,1,2
1523055483933829,-7,-16,-6,3,6,0,-1,-4
1523055483933829,-4,-3,-2,-2,-4,-2,-3,-2
1523055483948869,2,9,1,-2,4,2,1,-3
1523055483948869,4,-6,2,-6,-6,-6,-3,0
1523055483954886,4,16,0,2,-1,-1,0,2
1523055483954886,-2,0,-4,2,0,-3,-2,0
1523055483969978,-12,-15,-4,0,-2,-1,0,-3
1523055483969978,-1,-2,-7,-6,-1,-2,-3,-2
1523055483977444,5,9,0,-7,-1,1,-1,1
1523055483977444,-4,5,-2,0,0,-1,0,0
1523055483992984,2,-13,-1,-3,-3,-3,-3,-1
1523055483992984,-2,-3,3,0,6,1,2,-1
1523055483993988,4,5,2,4,-2,-1,-1,0
1523055483993988,-1,2,-4,-4,-3,1,0,0
1523055484009028,-6,-22,-7,-2,2,-2,-4,-7
1523055484009028,0,-2,-1,-3,-4,2,0,-1
1523055484015044,-5,-2,-3,0,-3,-2,0,-1
1523055484015044,7,5,-1,-3,-2,-1,0,2
1523055484030138,1,6,1,2,1,1,1,0
1523055484030138,0,-5,2,-1,2,-1,-2,-2
1523055484037605,-3,2,-1,4,2,2,0,0
1523055484037605,-9,-21,-6,-1,-6,-3,-1,-3
1523055484052692,1,7,-2,-4,0,-2,-1,1
1523055484052692,1,15,1,-2,-3,-2,0,0
1523055484060166,1,13,6,-2,-2,-1,-1,-1
1523055484060166,-5,-23,-5,0,0,0,-1,-2
1523055484069189,-3,-11,-3,3,-1,1,1,1
1523055484069189,-4,-3,-1,-6,4,3,2,-1
1523055484075205,2,9,0,0,-4,-5,-4,-2
1523055484075205,6,16,5,2,1,2,1,0
1523055484089782,1,-5,-4,1,-3,-2,0,0
1523055484089782,-8,-3,-2,4,1,-1,-1,0
1523055484097264,1,-13,-6,-3,1,1,2,1
1523055484097264,-4,7,7,0,3,-2,-2,-2
1523055484112304,0,-2,1,-2,0,-2,0,0
1523055484112304,5,4,-2,-2,-6,-2,-1,1
1523055484119856,2,4,2,-1,-4,-4,-3,0
1523055484119856,-3,-2,-2,-1,1,0,0,0
1523055484128848,-1,1,2,-1,0,0,-2,-1
1523055484128848,2,1,-1,-1,-3,-1,-1,-1
1523055484134864,-1,8,1,-2,-1,0,2,0
1523055484134864,-3,-19,-9,-3,-3,-3,-3,-3
1523055484149902,0,4,3,1,1,0,0,0
1523055484149902,-4,-4,-2,-2,-2,-4,-2,-2
1523055484157424,0,3,-1,0,2,1,0,0
1523055484157424,-1,1,4,-3,-4,-1,-1,0
1523055484172463,1,11,-4,-3,-2,-3,-4,-2
1523055484172463,3,-9,0,-1,-4,-3,-2,-2
1523055484180036,0,6,-5,0,1,0,0,1
1523055484180036,-7,-15,-2,-2,2,0,2,1
1523055484195526,1,1,-2,-2,-1,0,2,4
1523055484195526,-4,-4,0,0,0,2,-2,1
1523055484196527,1,-2,2,-3,-4,0,-3,-4
1523055484196527,4,1,-6,-2,0,-4,-4,-3
1523055484210116,-1,3,-1,-3,-6,-2,-1,-1
1523055484210116,-1,-3,1,2,0,0,1,-4
1523055484217584,-3,-11,-2,-1,-1,1,-3,-1
1523055484217584,-2,3,2,0,-1,-1,-1,-1
1523055484232622,2,5,3,-1,-1,1,-1,1
1523055484232622,-2,-4,-3,-1,-1,0,0,0
1523055484240143,-4,-15,-2,-3,0,-1,-1,-4
1523055484240143,7,21,-1,-1,-4,-3,-2,-1
1523055484255684,-4,-5,6,0,1,-1,-1,-2
1523055484255684,-1,1,-3,0,3,2,0,-1
1523055484256688,-7,-24,-3,0,2,2,2,1
1523055484256688,-2,14,3,0,-2,-1,-1,-1
1523055484269721,1,-3,-5,4,-2,0,0,-2
1523055484269721,-1,-6,1,-1,0,0,-1,-2
1523055484277243,4,22,5,-5,3,0,-1,-3
1523055484277243,-7,-32,-9,3,-5,0,-1,-1
1523055484292309,-2,-1,0,-9,2,-1,-2,-2
1523055484292309,-2,-4,-7,5,-3,-1,0,-2
1523055484299803,-1,1,0,-5,-5,-3,0,-1
1523055484299803,3,7,5,6,4,0,-2,-1
1523055484315846,-4,-8,-14,-18,-9,-3,-1,0
1523055484315846,-5,-14,8,27,9,-3,-5,-5
1523055484316347,1,6,-4,-2,-4,0,1,3
1523055484316347,9,4,3,-9,1,0,1,-2
1523055484329883,-23,-3,-2,1,-3,1,-1,0
1523055484329883,0,5,-4,-21,-8,0,-1,-2
1523055484337403,-3,-2,-3,12,-6,-4,-4,0
1523055484337403,0,8,3,4,4,1,1,-1
1523055484352497,-7,-23,-7,-11,1,-2,-4,-4
1523055484352497,-5,2,-1,-1,-1,-1,3,0
1523055484359961,7,3,-2,-1,-1,-2,-1,-2
1523055484359961,3,14,2,-2,-4,-1,-1,3
1523055484375505,6,1,0,5,5,0,-1,-1
1523055484375505,-5,-5,-4,-2,-7,-6,-4,-3
1523055484376506,-1,0,-1,-3,-2,-1,2,0
1523055484376506,-2,-6,1,-1,-2,-1,0,-1
1523055484390080,1,6,1,7,3,0,0,-1
1523055484390080,3,13,6,0,-2,-1,0,1
1523055484397563,-4,-29,-7,-4,-2,-1,-2,-2
1523055484397563,0,9,-4,-3,0,-1,-1,-3
1523055484412603,-1,-13,1,4,0,0,-2,-4
1523055484412603,2,2,-4,-1,7,3,1,3
1523055484420121,1,2,0,1,-1,-3,0,0
1523055484420121,-4,-3,-5,-1,-5,-5,-2,1
1523055484435663,7,15,3,4,-2,0,-1,0
1523055484435663,-1,-3,-2,-4,-5,0,-2,1
1523055484436666,-6,-9,2,-3,1,-3,-4,-2
1523055484436666,-2,8,-2,0,3,2,2,-5
1523055484450202,-1,2,-2,1,-3,-2,-2,-4
1523055484450202,-1,-4,-4,-1,-4,-1,2,0
1523055484457722,1,-2,-1,-2,-1,0,-2,-1
1523055484457722,7,28,9,-3,-1,1,-2,5
1523055484472261,-4,-31,-9,0,-3,-4,-2,-3
1523055484472261,-24,-19,-5,-6,0,-6,-4,-5
1523055484479780,2,1,-2,3,0,1,0,-2
1523055484479780,-1,-5,-2,0,-1,-1,0,-1
1523055484495824,3,14,6,1,1,-1,1,1
1523055484495824,5,0,-2,2,-3,-3,-1,0
1523055484496326,-5,-11,-4,-8,-1,-3,-3,-3
1523055484496326,-10,-13,-3,1,-2,-1,-3,-1
1523055484509918,3,-3,-2,-2,-1,-1,-1,-1
1523055484509918,5,1,2,-2,-2,1,0,2
1523055484517382,0,11,3,1,0,-1,-1,1
1523055484517382,1,-9,-6,-3,-3,-2,-4,-3
1523055484532420,-1,-13,-1,4,2,0,2,0
1523055484532420,5,10,-1,3,-3,-4,-3,-2
1523055484539941,0,23,5,-3,1,2,2,-4
1523055484539941,-3,-30,-5,-4,-1,0,-1,0
1523055484555484,-1,4,-2,-1,0,-1,1,2
1523055484555484,2,8,1,-4,1,1,2,-1
1523055484556485,-2,-17,-9,-1,-5,-5,0,-1
1523055484556485,-1,4,2,2,3,3,3,-1
1523055484570021,1,6,1,-5,0,-1,-2,-2
1523055484570021,4,2,1,-2,1,1,2,1
1523055484577594,0,2,1,0,-2,-2,-2,-1
1523055484577594,-2,3,1,1,1,-2,0,-1
1523055484592582,-3,-11,-5,-2,-8,-3,-2,-1
1523055484592582,-5,-1,0,-3,3,1,-1,-1
1523055484600158,-2,-13,-5,-4,-3,-1,-3,-3
1523055484600158,-2,-17,-2,3,2,-2,-1,-3
1523055484615642,6,24,3,0,1,2,0,2
1523055484615642,0,-7,-4,-1,-2,-4,-2,-3
1523055484616644,1,2,-1,-3,-3,-2,-1,1
1523055484616644,3,11,2,-2,1,0,-3,0
1523055484630182,-5,-5,0,2,0,-1,-2,-3
1523055484630182,-2,-3,-3,-3,-1,1,-1,0
1523055484637701,1,6,2,1,-1,-1,0,0
1523055484637701,-4,-3,-3,-1,-3,-2,-1,-3
1523055484652239,7,7,0,-4,0,0,0,1
1523055484652239,7,3,0,-2,-3,-1,0,-3
1523055484659761,-15,-14,-4,1,1,-1,1,0
1523055484659761,21,14,6,-3,-5,-1,1,-1
1523055484675804,2,14,-1,-1,0,3,-2,0
1523055484675804,-6,-20,-2,-2,1,-1,-1,-1
1523055484676304,1,25,-4,-1,-1,-4,-4,-4
1523055484676304,-7,-39,-7,-3,-2,-2,-1,5
1523055484689873,-6,-7,0,1,0,-1,4,0
1523055484689873,-2,-4,-1,2,2,-1,-5,0
1523055484697393,2,3,3,-2,-1,-2,-1,1
1523055484697393,-8,1,-3,0,-1,-2,-2,-3
1523055484712457,2,-1,-1,-2,-1,-3,-1,-2
1523055484712457,-2,-1,-8,1,-2,-1,2,-4
1523055484719974,2,-6,-1,0,3,0,0,0
1523055484719974,-3,7,1,-1,1,0,0,-3
1523055484735461,2,-5,2,-1,-1,-1,0,0
1523055484735461,3,9,1,0,-1,0,1,2
1523055484736466,-6,-9,0,-1,0,0,-1,-9
1523055484736466,2,13,-2,-2,-2,-2,-2,-1
1523055484750036,-5,-24,-1,1,0,-1,-1,-2
1523055484750036,1,0,-3,-1,-1,0,0,2
1523055484757527,5,-2,0,2,0,0,0,2
1523055484757527,-4,-4,1,-1,-2,-2,-1,-1
1523055484772618,0,22,-3,0,-2,-3,-3,-3
1523055484772618,2,-19,-3,-4,-5,-3,-1,-3
1523055484780133,-16,-6,-2,2,0,1,1,1
1523055484780133,-1,3,2,-10,3,-1,-4,-2
1523055484795623,3,17,1,-5,-3,0,2,2
1523055484795623,-6,-7,3,6,-1,-3,-3,-3
1523055484796625,7,-6,-2,3,-1,-1,-3,1
1523055484796625,-8,-6,-16,2,-12,-1,1,1
1523055484810167,-3,16,3,-19,8,1,-1,-1
1523055484810167,-8,-32,-2,-3,0,-3,-2,-3
1523055484817680,4,7,0,15,-2,1,2,1
1523055484817680,4,7,7,1,0,-1,-3,-2
1523055484832721,8,-1,-3,3,-6,0,-1,2
1523055484832721,-3,13,0,-20,-8,-4,-3,-7
1523055484839740,0,6,3,5,8,5,0,0
1523055484839740,-5,-5,-10,2,-3,-1,2,-3
1523055484855815,-5,-28,-7,-5,-6,-3,-1,0
1523055484855815,-3,4,6,4,3,-1,-3,1
1523055484856283,-10,-23,-9,-13,-2,1,2,-3
1523055484856283,15,27,3,-3,-2,-3,-2,0
1523055484869872,-26,-11,3,6,1,-2,-2,-4
1523055484869872,6,19,-2,0,0,1,0,1
1523055484877394,0,0,0,0,-3,-2,-2,-1
1523055484877394,-3,-12,1,-1,1,-1,1,-3
1523055484892378,3,3,-1,1,-1,-3,-1,-2
1523055484892378,1,0,0,4,-2,2,1,-1
1523055484899898,-1,8,2,-9,-2,-3,-3,-4
1523055484899898,0,-6,-5,-5,0,-3,0,1
1523055484915478,1,-8,-4,0,-1,-1,-2,-1
1523055484915478,2,14,3,0,0,1,0,7
1523055484916479,3,-3,-2,-4,-4,-1,-5,-6
1523055484916479,-7,-9,-5,0,0,-1,-2,-3
1523055484930032,1,-8,-1,0,-1,-2,-1,-2
1523055484930032,-1,-3,-1,4,0,0,0,1
1523055484937498,0,8,-3,-6,0,1,2,1
1523055484937498,0,-6,-1,2,-3,-3,-2,-3
1523055484952539,-4,-6,2,5,2,2,0,-2
1523055484952539,-3,-16,-7,-3,-1,0,-2,-2
1523055484960060,1,-4,0,1,1,-2,-1,0
1523055484960060,1,5,2,0,0,2,0,2
1523055484975599,2,10,2,0,-4,-4,-2,1
1523055484975599,0,-4,-6,-2,-2,-3,-3,-4
1523055484976657,-4,-8,0,-4,-3,-3,-3,0
1523055484976657,2,9,3,-3,5,0,-1,0
1523055484990189,-1,11,-1,3,3,3,-1,0
1523055484990189,-6,-24,-8,0,-5,-3,-1,0
1523055484997660,4,1,0,-1,-5,-2,2,0
1523055484997660,-4,-2,2,2,2,0,-1,-2
1523055485012698,1,-1,-2,-3,-2,0,-2,-1
1523055485012698,-5,3,-3,-2,-1,-1,-1,-4
1523055485019718,0,-2,-1,0,0,1,-1,1
1523055485019718,3,-1,0,0,1,2,0,3
1523055485034814,1,-3,-3,4,-2,-2,-1,0
1523055485034814,-2,16,2,-1,2,0,1,-3
1523055485043314,1,-7,1,-1,0,0,0,-1
1523055485043314,-1,-5,-4,-1,-8,-1,0,-2
1523055485049835,-3,16,1,-5,1,-2,-3,-1
1523055485049835,6,8,-1,0,1,0,2,4
1523055485057317,-6,-7,2,0,-4,-3,-2,-1
1523055485057317,-4,-6,-1,0,0,-1,-1,-1
1523055485072411,4,-3,-2,3,-3,0,3,0
1523055485072411,1,5,7,-1,1,1,-2,-3
1523055485079933,-4,12,-2,0,1,-1,-2,-1
1523055485079933,-4,-11,-7,-3,0,-1,1,-3
1523055485094972,-2,-3,-3,-2,-2,-2,-2,-1
1523055485094972,2,4,1,4,0,1,0,2
1523055485102993,0,-4,-1,-4,-3,0,-1,-2
1523055485102993,-11,-9,-1,0,3,0,-1,-1
1523055485118017,9,3,2,0,1,0,-3,0
1523055485118017,-4,8,-4,-2,-3,-2,-3,-1
1523055485119018,2,-1,-3,0,0,1,0,-1
1523055485119018,4,19,2,3,2,2,1,-1
1523055485132519,-5,-21,-5,0,-2,-1,0,-3
1523055485132519,-2,-6,1,0,0,-1,-1,-2
1523055485140095,0,-14,-9,-3,-3,-5,-1,-2
1523055485140095,1,15,3,-1,-2,0,0,-1
1523055485155078,1,-4,0,0,-3,-2,-1,-1
1523055485155078,0,5,0,-1,-2,-2,0,1
1523055485163135,1,3,4,2,0,-1,-2,-1
1523055485163135,-4,2,-7,-4,0,1,1,-2
1523055485178140,3,4,-1,0,-1,0,0,-3
1523055485178140,0,-9,0,-2,-3,-4,-6,0
1523055485179165,-1,15,3,-1,-1,1,0,0
1523055485179165,-10,-18,2,2,0,-1,-3,-3
1523055485192679,0,-6,-5,-1,-2,0,0,0
1523055485192679,7,12,-1,-2,-2,-1,3,-4
1523055485200199,-2,-8,-1,0,-1,-3,-6,2
1523055485200199,-1,-11,-2,-3,-3,-7,-1,-1
1523055485214796,1,18,3,-1,-2,-2,1,-3
1523055485214796,2,-11,-3,-2,1,1,0,2
1523055485223259,0,-4,-6,0,-2,-1,1,-2
1523055485223259,4,0,-1,-1,1,2,-2,-1
1523055485238301,-2,-1,1,-1,-1,-1,-2,0
1523055485238301,0,1,-1,1,-2,1,0,1
1523055485238809,-8,-18,-5,-4,-2,0,0,-4
1523055485238809,-3,7,1,0,-1,0,-2,0
1523055485252336,4,-3,-4,-2,0,0,-1,2
1523055485252336,-6,-10,-1,-4,-1,0,0,-3
1523055485259890,0,12,-1,3,2,0,0,1
1523055485259890,-5,-15,-2,-1,-2,-3,-2,-2
1523055485274897,-3,0,1,1,-2,-3,0,-1
1523055485274897,-3,-3,-3,0,0,-1,-3,-3
1523055485283419,10,15,5,-1,-2,-1,0,-1
1523055485283419,-23,-1,1,-7,2,-2,-1,-3
1523055485297957,-5,-18,-12,-1,-5,-2,-1,0
1523055485297957,1,0,-1,1,-2,-2,-1,-4
1523055485298960,3,1,-2,2,-2,-1,0,0
1523055485298960,12,42,4,6,-2,1,2,2
1523055485312496,-9,-59,-12,-18,1,0,-1,-3
1523055485312496,-3,10,3,4,2,-2,-2,-1
1523055485320017,-3,-1,-8,3,-5,-1,1,2
1523055485320017,-4,-18,-11,-17,-6,-4,-3,-1
1523055485335056,2,20,11,23,7,1,-5,-1
1523055485335056,2,-1,-2,-3,-5,4,4,-4
1523055485343079,-22,-11,3,-6,-1,-3,-5,-7
1523055485343079,5,-1,-1,5,-5,-3,0,3
1523055485358119,0,9,-6,-12,-2,-1,-1,-1
1523055485358119,-3,-27,6,1,5,-3,-4,-2
1523055485359122,3,14,0,5,-3,-2,-3,1
1523055485359122,1,6,2,0,1,1,0,-3
1523055485372657,-1,7,3,0,-2,0,-1,-3
1523055485372657,-4,-12,-4,2,-2,-1,-3,1
1523055485380176,-2,2,-13,-8,-1,-1,-1,2
1523055485380176,7,-11,-2,4,1,1,1,-2
1523055485395216,2,11,4,0,1,-1,0,-1
1523055485395216,-3,8,-2,-6,-3,-2,-1,1
1523055485403292,1,-22,0,-1,2,0,0,-1
1523055485403292,5,2,2,-4,-1,-1,-1,0
1523055485418279,-11,7,2,2,1,3,1,-1
1523055485418279,-2,-19,-12,-6,-3,-2,0,-3
1523055485418779,1,-6,4,0,2,1,0,0
1523055485418779,1,-1,-2,3,-4,-3,-1,0
1523055485432373,-3,-11,-3,-2,-4,-1,-1,-2
1523055485432373,0,8,4,-5,3,-2,-1,1
1523055485439889,-1,-1,3,5,1,0,-1,-1
1523055485439889,1,-1,-3,3,-4,-4,-2,1
1523055485454876,1,14,-2,-2,-1,-1,-3,1
1523055485454876,-2,8,3,1,2,-1,2,-2
1523055485463399,2,2,-3,-3,-3,-2,1,1
1523055485463399,2,-5,-2,-5,-1,0,0,-4
1523055485477973,-3,-10,-3,-3,0,1,2,2
1523055485477973,1,15,3,1,-2,1,-1,1
1523055485478940,3,2,2,-2,1,-1,2,0
1523055485478940,-4,-7,0,0,-4,0,-1,0
1523055485492509,0,8,-2,0,-2,-5,-3,-1
1523055485492509,0,8,3,-2,3,0,-1,0
1523055485499995,-3,-8,1,-2,0,-1,-2,-3
1523055485499995,2,8,-3,-3,-2,-3,-2,-2
1523055485515035,-1,-8,-4,2,-3,0,-2,-4
1523055485515035,0,-2,1,-2,-3,-2,-2,0
1523055485523112,0,-2,-4,-3,-3,-1,0,-2
1523055485523112,-2,-2,2,3,3,0,1,-2
1523055485538168,-3,8,3,-7,0,0,0,-1
1523055485538168,-1,1,-5,4,-4,-3,-1,0
1523055485538668,-2,-11,-3,-5,-5,-3,-2,-3
1523055485538668,2,-6,-1,0,1,0,-1,-1
1523055485552705,-1,-7,-4,0,-4,-1,-1,-1
1523055485552705,1,4,3,2,-1,1,-2,2
1523055485559724,1,2,-1,1,-2,0,2,-4
1523055485559724,-1,7,1,-1,1,0,-2,-2
1523055485574763,-1,-15,-6,-5,-4,-1,-2,0
1523055485574763,-2,-7,-4,-2,0,-1,-2,0
1523055485583288,3,12,5,-1,2,2,-1,2
1523055485583288,-2,-10,-5,-3,-5,-3,-3,-4
1523055485598328,1,3,0,-1,2,0,-1,-1
1523055485598328,0,-5,-6,4,-4,-2,-1,-1
1523055485598829,-3,-10,-2,-3,1,-3,-2,-2
1523055485598829,-2,14,0,-3,-3,-2,-1,0
1523055485612363,-2,-7,-1,2,-4,-1,-2,-1
1523055485612363,1,-5,2,-2,-4,-3,-2,-1
1523055485619884,5,15,3,-2,1,0,0,1
1523055485619884,-4,-8,-4,2,2,1,0,-1
1523055485634925,1,-2,-2,-1,-3,-1,2,0
1523055485634925,-8,-19,-5,-2,-4,-2,1,-3
1523055485642978,-9,-11,-1,-3,3,1,-1,-3
1523055485642978,2,-3,1,0,2,-2,-1,-1
1523055485658039,3,12,7,3,-4,-2,0,-1
1523055485658039,-2,0,-3,-2,5,1,1,-4
1523055485658989,-2,-4,-1,0,-6,-2,-4,-1
1523055485658989,2,0,0,-1,0,0,-4,-4
1523055485672581,2,6,1,-2,0,0,-1,0
1523055485672581,0,0,-5,-3,-4,-4,-3,1
1523055485680098,-2,12,-6,0,0,-1,-2,-6
1523055485680098,-4,-16,-1,-2,-1,-1,1,2
1523055485695085,0,6,-6,-3,-2,-1,0,-4
1523055485695085,-5,-2,5,-2,-1,5,2,-5
1523055485703107,4,-6,-2,2,-2,-1,-1,5
1523055485703107,-3,1,0,-3,-2,-3,-1,5
1523055485718182,2,-2,-3,0,0,-2,-3,0
1523055485718182,-4,7,0,0,0,-2,-3,-4
1523055485719148,2,0,0,0,-1,2,0,-1
1523055485719148,6,1,-4,0,0,3,3,0
1523055485732684,-3,-1,2,1,0,1,-2,1
1523055485732684,3,4,-5,-3,-3,-2,-1,3
1523055485740205,-11,-16,-2,0,-1,-2,-1,-7
1523055485740205,1,-2,-3,-2,1,-1,0,-2
1523055485754743,-4,-5,1,1,-1,-2,1,0
1523055485754743,1,4,2,1,3,1,-2,-4
1523055485763266,1,2,-2,-4,-5,-3,-3,1
1523055485763266,-2,-2,-2,0,-1,2,1,-1
1523055485778307,-6,-5,-1,-1,2,0,-3,-5
1523055485778307,0,-1,-1,0,-2,-3,-2,1
1523055485778808,-1,-3,1,2,-1,0,0,1
1523055485778808,-5,-9,-1,-3,-1,0,1,-4
1523055485792344,-1,10,2,-1,-3,0,0,-2
1523055485792344,11,7,-2,0,3,-2,-1,4
1523055485799864,-6,-21,-11,1,-10,-2,1,-2
1523055485799864,-1,14,7,-4,0,0,-3,-3
1523055485814903,4,-12,-4,-2,-1,0,-1,0
1523055485814903,0,-1,3,0,0,2,1,2
1523055485823426,-2,6,0,0,2,2,1,-1
1523055485823426,-5,-6,-6,0,-5,-3,-3,-5
1523055485837965,14,5,5,-2,-2,-2,-4,-2
1523055485837965,-3,20,-9,-9,-2,1,1,1
1523055485838967,-5,-15,3,-2,5,-4,-5,-3
1523055485838967,0,1,-2,-5,2,1,2,2
1523055485852537,-6,14,-1,-1,-5,-1,3,-1
1523055485852537,-1,-26,-5,-3,-5,-2,-1,-1
1523055485860024,2,20,1,-13,-6,0,1,2
1523055485860024,1,7,4,14,4,0,-1,-1
1523055485875117,-6,-13,-1,1,-1,-2,-4,-3
1523055485875117,-4,11,0,-9,-7,-5,-3,-3
1523055485883084,10,12,5,1,8,-1,0,1
1523055485883084,-4,-9,-2,-2,-3,-1,-3,-1
1523055485898125,-3,6,-1,0,0,-1,2,0
1523055485898125,-7,-13,-7,5,-4,-2,-1,-2
1523055485899127,-4,-19,-4,1,-2,-2,-3,-3
1523055485899127,4,24,7,-1,0,-2,0,1
1523055485912692,-2,-10,-6,-3,1,0,2,1
1523055485912692,-2,-14,-7,-1,1,-1,-1,-6
1523055485920184,0,13,2,0,1,0,0,-1
1523055485920184,0,-2,-1,-3,-5,1,0,-1
1523055485934867,-1,2,5,1,-1,-1,-2,1
1523055485934867,-4,-2,1,2,0,-2,0,-1
1523055485943333,1,2,0,6,1,0,0,-1
1523055485943333,-3,-8,-4,1,2,1,-3,-3
1523055485957370,-5,-12,-5,-6,-1,-1,-1,-2
1523055485957370,6,3,1,5,-2,-2,-1,0
1523055485965894,-6,6,-1,-3,-2,-1,1,1
1523055485965894,-1,-15,-6,-3,-3,-4,-2,-1
1523055485972445,2,7,-2,1,-1,-3,-2,-2
1523055485972445,-1,0,-1,0,-1,0,0,1
1523055485979930,5,14,0,3,-5,-1,-2,0
1523055485979930,3,5,4,-1,-1,0,0,2
1523055485995004,-9,-14,-2,-1,-1,0,2,-1
1523055485995004,0,-2,-2,-5,2,1,-1,-2
1523055486002992,-4,-10,-1,-1,0,-1,-1,1
1523055486002992,-4,0,-4,-5,-4,-2,-2,-5
1523055486017531,3,8,6,5,0,-1,-2,0
1523055486017531,-1,2,3,1,2,0,-3,0
1523055486025611,-3,-7,-2,-3,-1,-1,-1,-3
1523055486025611,2,-8,-1,1,-1,-1,-1,1
1523055486032570,-1,8,0,-1,-1,-4,-2,0
1523055486032570,-4,-6,-1,-1,-1,0,-1,-1
1523055486040090,-1,-9,-6,3,-1,0,-1,-2
1523055486040090,2,7,4,-7,-1,1,-2,1
1523055486055132,1,1,-3,17,4,1,0,1
1523055486055132,2,12,1,-2,-5,-1,1,1
1523055486063185,-10,-33,-7,-3,0,0,-1,-2
1523055486063185,-1,-14,-5,-1,-2,-2,-2,-4
1523055486077691,0,21,3,-2,-3,-1,-3,-2
1523055486077691,2,-10,-5,-8,1,-3,-3,-1
1523055486085713,-3,-9,-4,-3,-2,-2,-2,-2
1523055486085713,-7,-4,-2,-1,-1,-1,-1,0
1523055486100806,-4,-32,-3,-5,1,0,0,0
1523055486100806,7,23,4,5,0,0,2,2
1523055486101254,2,9,3,-2,-4,0,1,0
1523055486101254,-3,-4,-3,1,-2,-1,1,-2
1523055486114790,-2,4,-4,0,-4,-2,-2,-3
1523055486114790,-4,-11,-1,-12,1,0,-2,-2
1523055486123314,6,11,2,-1,2,-1,1,0
1523055486123314,1,-1,2,1,3,0,0,3
1523055486137349,2,8,0,-6,-4,1,0,-1
1523055486137349,-6,-26,-4,2,-3,-2,-3,-4
1523055486145871,-1,4,-2,-3,-1,-1,-2,-3
1523055486145871,-5,-6,-5,-2,-1,-2,0,-1
1523055486160411,2,-8,0,-1,2,1,0,-2
1523055486160411,-2,8,2,-1,0,-2,-4,-1
1523055486161413,-1,2,0,1,-2,-2,-2,-1
1523055486161413,1,0,-2,4,0,-2,-1,-2
1523055486174983,-4,-4,3,-3,1,-1,-1,-4
1523055486174983,-1,6,-3,1,-1,-2,1,-2
1523055486182972,-1,8,0,-1,-2,-1,1,2
1523055486182972,0,-21,-6,-5,-2,2,4,2
1523055486197509,-3,1,-1,-3,0,-1,-2,-3
1523055486197509,-5,-10,-6,0,-2,0,-5,-6
1523055486205531,-2,-4,-2,1,0,1,0,-4
1523055486205531,5,10,-1,-1,1,5,3,5
1523055486220571,2,1,-3,-4,-3,-6,2,9
1523055486220571,3,-5,2,3,2,1,-4,6
1523055486221575,-3,0,1,1,1,1,-5,-7
1523055486221575,-5,-4,-2,2,0,-1,1,-5
1523055486235109,-2,3,2,-8,-10,-12,0,-2
1523055486235109,3,-4,3,4,3,3,6,9
1523055486243169,1,1,2,-2,-3,0,-2,-1
1523055486243169,-3,0,3,-1,2,-1,-5,-4
1523055486257670,-5,-10,-6,0,1,1,0,-8
1523055486257670,1,3,2,1,-3,-2,0,1
1523055486265690,3,4,-1,1,-2,-3,-1,3
1523055486265690,-2,1,-6,-2,-4,-3,-3,-3
1523055486280788,-1,-20,-7,0,2,0,0,0
1523055486280788,0,17,4,-1,-1,1,-1,-3
1523055486281734,-5,-18,-4,0,-3,-3,-1,0
1523055486281734,2,19,0,1,-3,-7,-2,-1
1523055486294768,2,-10,1,-3,3,2,2,2
1523055486294768,-2,2,2,-3,2,-1,-3,-3
1523055486303293,-1,-4,-2,2,-6,-2,-2,-1
1523055486303293,-2,7,-1,-4,5,0,0,0
1523055486317368,-4,-1,3,1,3,3,1,-2
1523055486317368,0,-18,-9,3,-7,0,0,2
1523055486325894,-4,1,-4,-20,-8,-2,-1,0
1523055486325894,-1,-16,3,12,8,-2,-6,-4
1523055486340425,1,4,-4,10,-3,2,-2,-1
1523055486340425,3,15,-2,-11,-6,-3,1,-2
1523055486341393,2,2,3,16,11,3,3,3
1523055486341393,-4,-5,-2,-7,-6,0,0,2
1523055486354929,3,13,2,-7,-1,-2,-2,1
1523055486354929,2,20,6,5,0,-1,-1,-3
1523055486362949,-6,-26,-7,-14,-6,-2,-1,1
1523055486362949,-12,-19,-7,-5,-1,0,0,-3
1523055486377544,3,-7,-3,2,-1,0,-3,1
1523055486377544,1,11,0,1,-1,2,-1,-1
1523055486385563,5,21,7,4,5,-1,1,-2
1523055486385563,4,5,1,2,-4,-3,-3,2
1523055486400551,1,-6,-4,-8,-1,2,0,3
1523055486400551,-6,8,3,6,4,-1,-1,-6
1523055486401553,2,-3,-3,-2,1,-3,-2,-2
1523055486401553,-3,-18,-4,5,-5,-1,2,-1
1523055486415090,4,14,1,-5,-3,1,2,-1
1523055486415090,2,7,2,-1,1,-3,-2,0
1523055486423167,-8,-17,-5,3,-2,-5,-3,-3
1523055486423167,-1,5,-8,-5,-1,-1,0,-1
1523055486437649,-1,-9,2,-4,-7,-4,-1,-2
1523055486437649,1,1,1,-3,3,0,0,-2
1523055486445672,0,1,-1,2,-4,-2,0,-2
1523055486445672,9,20,4,-5,2,1,-1,3
1523055486460709,-6,-5,-2,3,1,-1,-2,-4
1523055486460709,-5,-20,-7,-4,0,1,2,-2
1523055486461211,2,17,0,-5,-5,-3,-3,-1
1523055486461211,0,-9,0,-5,-1,-1,-2,-2
1523055486474748,0,10,3,3,5,1,1,-2
1523055486474748,0,-13,-3,-2,-6,-4,-2,4
1523055486483271,-4,3,0,3,2,-2,-3,-3
1523055486483271,-2,-7,-3,-3,-9,-3,0,-4
1523055486497809,3,20,0,0,-1,-4,-4,-2
1523055486497809,-3,-21,-2,-9,1,-3,-3,-1
1523055486505831,-1,-8,-1,14,2,0,0,-2
1523055486505831,-5,-8,-3,-5,-3,-1,-1,1
1523055486520871,3,18,2,-5,-2,-2,-3,-1
1523055486520871,-8,-22,-5,0,2,-1,1,-1
1523055486521373,-5,-5,-3,-5,-1,0,2,0
1523055486521373,3,6,6,4,1,-2,-1,-1
1523055486534961,-2,-2,-1,-2,-4,0,0,0
1523055486534961,3,8,-1,1,-4,-2,0,-1
1523055486542928,0,-1,-3,-2,-6,-2,-3,-1
1523055486542928,-8,-17,1,-2,3,-1,-3,-5
1523055486557467,-2,-8,3,5,4,1,0,1
1523055486557467,-5,19,-5,-1,-6,-2,-2,-2
1523055486565546,-2,-37,-10,-4,-4,-2,-2,-2
1523055486565546,2,18,1,3,-1,2,0,0
1523055486580565,2,-8,1,-3,2,-1,-1,-2
1523055486580565,0,4,4,3,-1,-1,-1,-1
1523055486581571,4,9,3,-1,2,-1,0,2
1523055486581571,-5,-8,-2,2,-3,-3,-1,1
1523055486595068,-3,-13,-7,1,-2,0,-1,-3
1523055486595068,-26,-13,1,2,-4,-3,0,2
1523055486603090,11,31,2,-7,4,2,-1,-2
1523055486603090,18,-8,-2,2,-3,-4,-2,2
1523055486617685,-5,7,-5,0,-2,1,1,-1
1523055486617685,1,-6,-3,-1,-4,-2,-3,-5
1523055486625650,24,26,-2,-3,3,1,-1,3
1523055486625650,-50,-60,1,-3,0,2,5,-2
1523055486640794,14,-10,0,-4,-3,-2,-1,1
1523055486640794,-1,7,-7,0,0,-1,-2,-5
1523055486641296,-1,-25,-2,0,-2,-1,-3,2
1523055486641296,15,24,-1,5,3,2,3,-1
1523055486654830,-8,-11,-3,0,0,-1,1,-1
1523055486654830,5,-5,3,1,1,0,-3,-3
1523055486663354,8,5,9,-2,-2,-1,1,6
1523055486663354,-3,15,3,-3,0,1,-5,-6
1523055486677390,-10,-15,-4,-4,-7,-4,-3,1
1523055486677390,20,12,-1,0,3,2,2,4
1523055486685466,2,24,9,-1,0,-1,0,-2
1523055486685466,-6,-27,-15,-1,-1,-2,-1,1
1523055486700451,0,24,10,3,2,-1,-5,-12
1523055486700451,2,-24,-4,-4,-4,-5,-7,-8
1523055486701490,-2,8,-5,-3,-6,-6,5,19
1523055486701490,2,22,10,-2,-1,1,0,10
1523055486715458,-3,-20,-9,0,1,2,0,-6
1523055486715458,-1,-4,-1,-3,3,3,1,-3
1523055486723491,-13,13,-2,-2,-5,1,0,-16
1523055486723491,-2,-14,-6,-3,-4,-4,-3,-5
1523055486737684,14,3,1,1,0,-1,0,6
1523055486737684,-16,-1,0,-1,-1,0,-1,-5
1523055486745665,-8,-19,-1,3,-2,-3,-1,-3
1523055486745665,7,16,1,0,0,-3,0,1
1523055486760703,1,5,-1,-1,0,1,-1,0
1523055486760703,1,-8,-1,-2,-2,-2,3,2
1523055486761706,-2,11,-1,1,0,-2,-2,-1
1523055486761706,4,14,1,-2,0,1,-2,-3
1523055486774799,-13,-14,-4,1,-2,-3,-2,-3
1523055486774799,1,-7,-1,-2,-3,-1,-1,4
1523055486783263,-6,1,2,-1,4,0,0,-3
1523055486783263,1,-23,-1,0,-2,-1,-2,-3
1523055486797947,-5,12,1,-8,0,0,2,2
1523055486797947,5,2,1,1,-1,-2,-1,2
1523055486805823,4,10,-2,3,-5,-1,0,-2
1523055486805823,-3,-17,-6,-4,-2,-3,-4,-3
1523055486820813,-1,17,7,-19,7,-2,-3,0
1523055486820813,-3,-37,-17,0,-3,0,1,2
1523055486822063,-4,-7,-2,7,0,0,0,-3
1523055486822063,4,34,6,-11,2,-3,-3,-2
1523055486834849,2,-20,3,23,-2,0,3,3
1523055486834849,1,29,-15,-16,2,2,1,-3
1523055486843421,-11,-40,15,15,-2,3,1,1
1523055486843421,0,-10,-16,-10,-8,-2,0,0
1523055486857408,2,3,2,-13,8,-2,-2,3
1523055486857408,2,17,4,14,3,6,7,-4
1523055486865430,2,4,-11,-3,-2,2,0,0
1523055486865430,-4,3,-1,4,-4,-4,-3,-2
1523055486880472,-3,-21,-9,-4,-6,-5,-2,-2
1523055486880472,8,16,7,-5,0,-2,-3,6
1523055486881474,-4,7,3,8,3,-4,-6,-4
1523055486881474,7,1,4,-2,-6,1,0,-1
1523055486895011,-3,7,-6,6,-4,-2,0,-1
1523055486895011,-3,0,0,2,0,-2,-5,2
1523055486903031,-3,-7,9,-17,6,4,12,-3
1523055486903031,-5,2,-11,-4,-6,-7,-20,-2
1523055486917568,0,12,6,-1,-7,-2,0,0
1523055486917568,-3,-12,-6,4,-4,-4,0,-3
1523055486925624,-6,-6,-2,-6,-3,-4,-8,-2
1523055486925624,5,-10,-8,6,3,4,10,3
1523055486940131,3,12,-3,-3,0,2,1,-2
1523055486940131,0,-3,6,-3,-4,-4,-8,-2
1523055486948184,-1,13,-3,-3,-1,-1,2,-1
1523055486948184,-1,-3,-5,-1,-3,-1,3,0
1523055486955169,-9,-27,-6,-2,-1,-3,-5,-5
1523055486955169,0,-5,5,3,0,-1,2,0
1523055486963190,5,-4,-6,-3,0,2,-1,0
1523055486963190,-5,15,8,2,3,0,2,1
1523055486977729,-1,-2,-1,3,-3,-1,1,-2
1523055486977729,-4,6,2,-3,-1,-1,1,0
1523055486985750,0,7,-3,-4,-1,0,-1,1
1523055486985750,-4,-13,-1,-6,-1,-3,-5,0
1523055486999787,3,9,0,-1,-3,1,2,0
1523055486999787,-3,-4,2,-3,0,-4,-4,-6
1523055487008312,1,7,-3,-1,2,-2,-3,1
1523055487008312,-2,-1,4,1,1,-1,1,-1
1523055487023851,-1,-4,-6,-1,-2,1,-1,2
1523055487023851,1,12,4,-1,0,2,0,2
1523055487024353,-10,-31,-8,-5,-6,-5,-7,-6
1523055487024353,3,-1,1,0,3,0,2,-1
1523055487037390,-1,-3,0,0,0,0,-1,-1
1523055487037390,2,10,2,1,3,-2,-2,2
1523055487045409,-2,1,-3,-1,-6,-3,1,0
1523055487045409,-2,4,-2,-1,-5,0,-1,-3
1523055487059947,-2,-20,-7,-1,-3,-4,-4,-1
1523055487059947,-4,-5,-1,-3,-1,-1,-2,-1
1523055487067970,-2,-2,-4,3,-1,-2,-4,-3
1523055487067970,2,18,7,1,1,1,2,-2
1523055487084011,-2,6,2,1,1,0,-1,-1
1523055487084011,-2,-16,-6,-2,-5,-3,-3,-2
1523055487084520,5,18,-1,-2,0,1,0,2
1523055487084520,-1,-8,-2,0,-3,-1,-5,-4
1523055487097547,-5,-4,-2,-1,2,1,2,0
1523055487097547,-4,-14,-7,-1,-1,-1,-1,-1
1523055487105569,3,6,9,-3,0,0,-1,1
1523055487105569,2,6,4,4,3,1,0,3
1523055487120109,-1,3,-5,-1,-5,-2,-3,-3
1523055487120109,-3,-17,-6,-5,-4,-2,2,-1
1523055487128128,-3,-9,-5,-1,0,0,-1,-1
1523055487128128,6,22,5,1,0,0,0,-1
1523055487143671,-6,-3,-4,-4,-3,-2,-2,-2
1523055487143671,5,17,3,1,2,0,-2,1
1523055487144673,-7,-19,-4,-1,-3,-1,-1,-2
1523055487144673,-4,-5,-2,-1,1,-2,1,-2
1523055487157707,2,13,6,1,0,-1,-2,-1
1523055487157707,-3,-15,-5,-1,-3,0,0,-4
1523055487165729,6,13,-3,-2,-1,1,0,0
1523055487165729,-7,-15,-11,-2,2,2,1,-1
1523055487179767,1,1,8,1,1,4,-1,2
1523055487179767,-3,-6,-6,-5,-3,-6,1,1
1523055487188290,5,6,0,-2,2,-1,-6,-3
1523055487188290,-1,-12,-5,-1,-5,-5,-4,0
1523055487203836,-2,-1,-2,1,1,3,9,0
1523055487203836,6,13,2,1,1,3,0,6
1523055487204834,-8,-11,-3,-3,-1,-1,-1,-2
1523055487204834,-2,2,-1,2,1,-1,-4,-6
1523055487217367,-2,-4,-1,-4,-2,-3,-5,-2
1523055487217367,0,12,5,-1,0,1,2,-3
1523055487225889,-4,-9,-3,2,1,-1,0,-2
1523055487225889,-3,-24,-2,-1,-2,0,-1,0
1523055487239926,-4,5,0,0,-1,-2,2,1
1523055487239926,3,4,0,0,0,1,-1,-3
1523055487247948,0,-2,-2,-4,-1,-2,2,0
1523055487247948,-3,1,-1,0,-2,-1,0,-3
1523055487263991,1,-1,-4,-2,-2,-2,-1,-1
1523055487263991,-5,0,-3,1,-3,-4,-4,-3
1523055487264493,-2,-10,1,-4,0,-2,-5,-2
1523055487264493,12,10,5,2,2,0,2,3
1523055487277526,-3,9,-6,4,-2,-1,-3,-2
1523055487277526,0,-22,-6,-9,-3,0,-4,-1
1523055487285548,-3,-7,-2,3,-5,-3,2,1
1523055487285548,-1,11,1,-6,-6,-2,2,1
1523055487300088,-2,-2,2,-3,7,0,-3,-2
1523055487300088,-4,10,-1,14,-4,-2,-3,-8
1523055487309112,-6,-10,-1,-4,1,-1,2,1
1523055487309112,16,36,5,1,-7,-3,-4,-4
1523055487322646,-4,4,1,-7,3,0,-2,5
1523055487322646,3,-36,-6,0,3,1,1,1
1523055487331705,6,12,0,-9,-8,-1,-1,-2
1523055487331705,-13,-25,0,15,1,-1,-1,-1
1523055487337687,13,22,0,-3,-1,0,-1,0
1523055487337687,4,2,2,-1,1,-2,-2,2
1523055487346710,-4,-2,1,8,-1,-1,-2,-3
1523055487346710,-3,-8,0,-9,-3,-5,-3,1
1523055487360247,-1,-8,3,4,-1,1,1,-3
1523055487360247,-5,7,-8,0,-5,-1,-1,0
1523055487368771,-1,-1,-1,-4,-2,-1,-2,1
1523055487368771,-5,11,5,7,9,2,0,-3
1523055487382305,-7,-30,-11,0,-3,-3,-4,-5
1523055487382305,-1,23,10,-2,1,-1,0,0
1523055487391330,-5,-3,-8,2,-3,-3,-1,-1
1523055487391330,-7,-37,-10,-5,5,1,1,-2
1523055487397345,-3,1,2,-4,-3,-1,-2,-4
1523055487397345,-2,2,-2,-1,3,1,1,2
1523055487406369,8,21,2,3,0,-2,-2,1
1523055487406369,-2,6,2,1,0,1,-2,1
1523055487419906,-2,-16,-3,0,-3,-1,-1,1
1523055487419906,-2,-3,-1,0,-3,-4,-2,-3
1523055487428930,2,4,6,-1,4,2,-1,1
1523055487428930,-4,6,-5,-6,-2,-1,0,-1
1523055487442465,4,5,2,-1,-1,0,5,0
1523055487442465,-1,2,2,-1,-2,-3,-7,-4
1523055487451491,-5,-2,-3,1,-2,1,1,1
1523055487451491,0,4,-7,-4,-4,-2,-2,-1
1523055487457505,-2,-11,-2,0,-4,-3,-2,-1
1523055487457505,-2,2,-4,-1,-2,1,2,1
1523055487466563,-5,1,6,2,5,0,-2,1
1523055487466563,11,9,6,-11,5,2,5,-4
1523055487480100,-9,-5,-11,2,-3,-3,-1,-8
1523055487480100,0,-9,1,-3,-3,-1,-1,0
1523055487489093,-2,0,-4,3,-4,-2,0,-3
1523055487489093,1,0,1,0,-3,-3,0,3
1523055487502627,2,14,5,0,0,0,-3,1
1523055487502627,-4,-6,-1,-4,0,-1,-2,-1
1523055487511651,-4,-11,-4,1,0,-1,1,-4
1523055487511651,8,13,3,-4,-2,-3,-3,-2
1523055487517667,-3,4,-1,0,-1,-3,0,-1
1523055487517667,-7,-30,-3,-5,-2,-2,0,-2
1523055487526712,0,13,-1,-1,-4,-3,-2,-3
1523055487526712,-8,-25,-8,-4,2,2,-3,-2
1523055487539726,4,8,-2,1,-5,-2,-2,0
1523055487539726,6,27,6,0,2,2,2,2
1523055487548749,-10,-30,-6,-3,-1,-1,-2,-5
1523055487548749,1,15,1,3,-5,-3,1,1
1523055487562339,2,-5,0,-2,0,-2,-2,0
1523055487562339,-4,-9,-2,-2,1,-4,-3,-3
1523055487571308,0,-13,-2,1,2,4,2,-2
1523055487571308,-7,5,3,1,-1,-1,0,-2
1523055487577326,2,2,-5,-2,-3,-2,-3,-1
1523055487577326,-3,-2,1,1,0,0,2,-1
1523055487586349,3,17,0,-3,-3,-2,-1,-1
1523055487586349,1,-19,-5,1,2,-1,-1,1
1523055487599939,-3,-2,0,1,3,0,2,-2
1523055487599939,-3,-6,-1,-2,-4,-2,-2,-3
1523055487608910,2,8,-8,0,2,3,2,-2
1523055487608910,-2,9,7,1,0,2,1,2
1523055487622445,-3,-14,-6,-6,-9,-12,-8,-4
1523055487622445,6,17,5,2,4,5,4,3
1523055487631470,-10,-14,-10,-3,-2,-8,-12,-10
1523055487631470,0,-5,-7,-4,-1,-1,2,-1
1523055487637539,-2,-4,-3,-2,-5,-5,0,1
1523055487637539,5,3,-1,-1,-2,-2,-2,9
1523055487646568,2,2,4,-4,-4,-2,1,-1
1523055487646568,-4,-7,1,2,0,3,-6,-4
1523055487660044,-7,2,2,0,1,3,-1,-6
1523055487660044,-6,-5,-7,1,-6,-3,-4,-5
1523055487669071,14,2,3,1,-1,-3,1,1
1523055487669071,-4,0,-5,0,-1,0,-1,-4
1523055487682604,0,-3,1,0,0,2,2,3
1523055487682604,-4,-9,-1,0,1,-1,0,-5
1523055487691629,-1,-1,1,0,3,3,1,2
1523055487691629,2,4,-1,-1,-2,-4,-1,2
1523055487697647,2,2,-2,2,-1,0,-2,0
1523055487697647,-8,-9,-2,-2,-1,-2,-1,-2
1523055487706669,-2,-2,-1,-1,-1,-2,0,0
1523055487706669,-3,-16,0,-1,-1,-3,-2,-4
1523055487720206,9,14,1,3,-2,0,1,1
1523055487720206,-18,-12,3,-7,0,-1,0,-3
1523055487728727,-3,3,4,1,1,2,-1,3
1523055487728727,-10,-21,-10,-2,-1,-1,-2,0
1523055487742319,7,-4,-2,-2,0,-2,-2,-8
1523055487742319,12,12,-2,2,-5,0,2,6
1523055487751288,-1,6,3,-5,3,-2,1,-4
1523055487751288,-8,-1,11,9,2,-6,-6,-6
1523055487757303,-8,1,-6,-7,-6,2,2,3
1523055487757303,6,-26,-10,7,0,-2,-2,0
1523055487766328,-2,29,6,-9,1,-1,-4,0
1523055487766328,6,10,-1,-6,0,2,5,1
1523055487779918,0,-10,2,0,5,2,-1,-1
1523055487779918,1,20,-9,-10,-12,-2,0,1
1523055487788889,-4,-23,2,3,3,-5,-3,0
1523055487788889,-1,5,2,6,3,5,0,-2
1523055487802424,-4,10,-1,-6,-2,-2,-2,1
1523055487802424,6,-10,0,6,3,-1,-2,-6
1523055487811448,-3,-9,-5,-8,-5,-1,-1,1
1523055487811448,4,18,1,-1,2,-2,2,1
1523055487817464,-3,12,6,6,-3,0,-1,2
1523055487817464,-1,-5,-1,-4,2,0,-1,1
1523055487826501,-3,2,-4,-3,-4,-2,0,-1
1523055487826501,3,-6,-9,6,-6,-1,-1,0
1523055487840023,0,-4,-4,-3,-1,-3,-3,-2
1523055487840023,-2,-6,-16,-5,3,0,-1,-2
1523055487849084,1,-5,10,3,-2,1,0,-2
1523055487849084,-3,0,-2,-5,-4,-1,0,-2
1523055487862583,-6,-3,1,2,-2,-3,-2,-1
1523055487862583,1,11,4,-3,4,1,-3,-3
1523055487871609,-2,-21,-12,5,-4,-1,1,1
1523055487871609,0,9,-1,-3,-4,-1,-1,1
1523055487877678,-6,-19,2,-2,7,1,-1,-3
1523055487877678,-1,-2,4,4,0,-2,-2,0
1523055487886649,0,6,0,1,-3,-2,1,0
1523055487886649,0,5,-2,-4,3,-1,-2,-1
1523055487900185,-2,-7,-2,-5,-2,1,-1,-1
1523055487900185,-4,3,1,1,-1,-2,-1,2
1523055487909209,10,13,1,-3,0,5,1,0
1523055487909209,-5,-11,-5,-5,-3,-2,-2,-2
1523055487922244,-3,4,-4,4,3,0,1,-3
1523055487922244,-2,1,1,-4,0,0,-2,0
1523055487931266,-1,-2,-4,-1,-4,-3,-2,1
1523055487931266,-3,11,4,-2,-1,-2,0,2
1523055487937284,7,-1,7,-6,1,2,0,2
1523055487937284,-4,-17,-1,1,-2,-2,-2,-2
1523055487946308,-7,-17,-11,1,0,-1,-2,-3
1523055487946308,2,1,-1,0,-5,-3,0,-3
1523055487959896,-1,10,3,1,5,-1,-1,-2
1523055487959896,-2,-4,-3,-2,-5,-1,1,-3
1523055487968869,0,-9,3,-1,-2,-3,-3,1
1523055487968869,1,-6,-3,-4,-2,0,0,-1
1523055487983407,-4,-1,-5,3,-4,-1,0,-1
1523055487983407,-1,-3,3,-6,6,-1,-1,-2
1523055487989982,-4,7,-4,-1,-1,-2,0,-3
1523055487989982,-2,-18,-5,2,-2,0,-1,1
1523055488006468,4,-1,-2,1,-2,-1,-1,1
1523055488006468,0,11,5,-2,-1,0,-1,-1
1523055488007971,-6,3,0,0,0,0,0,0
1523055488007971,-4,-25,-5,-4,1,0,-3,-2
1523055488020006,-1,-2,-2,0,-6,-4,-2,0
1523055488020006,-2,0,-5,1,2,3,2,1
1523055488029065,4,0,0,1,0,-1,-2,-4
1523055488029065,3,9,-1,0,-2,-1,1,1
1523055488043117,-1,14,-2,0,0,0,-2,-1
1523055488043117,-2,-9,0,-1,-3,-2,-1,-2
1523055488050136,3,7,1,-2,-2,-1,0,0
1523055488050136,-3,-8,1,0,-1,-3,-1,1
1523055488066125,1,-5,-6,-2,2,0,1,-2
1523055488066125,5,21,4,2,-2,0,-1,0
1523055488068132,-1,-2,0,-2,1,1,-2,1
1523055488068132,-1,8,1,2,-1,0,-3,-3
1523055488080173,0,-7,-4,-1,-1,-2,-1,0
1523055488080173,-4,-4,-3,-4,-4,-2,0,-2
1523055488089213,-2,-6,-4,-2,0,2,1,-1
1523055488089213,6,22,4,-2,-1,-3,-3,-3
1523055488103278,-9,-18,-2,-1,-1,0,-1,0
1523055488103278,0,-1,-5,-3,-2,-3,1,-1
1523055488109795,-2,-1,0,-1,-2,-2,0,0
1523055488109795,1,3,5,-2,-1,0,-3,-1
1523055488126286,1,-9,-4,-2,-2,-1,-1,-1
1523055488126286,-1,4,5,1,-2,-2,-2,-4
1523055488127791,-1,-13,-3,-3,-1,0,0,-2
1523055488127791,-3,-1,-2,-1,-2,-3,0,0
1523055488139875,3,-3,-6,-2,-2,3,-3,-2
1523055488139875,-1,2,9,0,1,1,1,-1
1523055488148845,-1,2,-2,0,-3,-3,2,4
1523055488148845,-1,-4,-2,-2,-2,-5,-5,-2
1523055488163385,-2,-1,1,1,1,0,3,5
1523055488163385,-3,0,-6,0,1,1,-2,-3
1523055488169956,-1,3,0,-2,-2,-3,1,-4
1523055488169956,-2,-6,-4,-2,2,2,2,2
1523055488186500,-3,0,0,-1,-2,-3,-3,-3
1523055488186500,0,1,-2,-1,-7,-3,-5,-3
1523055488187951,0,0,0,0,2,0,-2,-1
1523055488187951,-5,-7,-3,-1,0,0,0,-1
1523055488200037,0,1,1,-2,0,-2,-1,-4
1523055488200037,-1,1,0,0,2,0,0,-1
1523055488209045,-1,3,-1,-1,-2,0,-1,1
1523055488209045,-3,-11,-7,-2,0,-2,-2,-5
1523055488223096,2,-11,-1,-2,-5,-1,-2,0
1523055488223096,2,1,-1,1,2,-1,0,1
1523055488230061,-3,8,4,-3,-2,-4,-3,-1
1523055488230061,2,-6,-3,-3,0,0,-1,-2
1523055488246158,-2,2,-1,1,-4,-2,-1,0
1523055488246158,-2,-3,-4,-3,-1,3,-1,1
1523055488248147,4,-3,2,-2,1,3,1,-1
1523055488248147,-2,1,5,3,4,2,3,1
1523055488260141,-4,-3,-2,-2,-6,-2,-1,-2
1523055488260141,2,14,3,-1,0,-3,-4,0
1523055488269166,-2,-20,-11,-4,-5,-3,-1,0
1523055488269166,-8,-12,4,1,6,-1,-6,-3
1523055488283202,7,1,-3,11,-10,-4,1,4
1523055488283202,-7,3,2,-15,-6,-2,0,-5
1523055488289721,-4,-33,6,28,19,5,-1,-4
1523055488289721,-3,11,-4,-15,-13,0,0,1
1523055488306298,3,6,4,-10,1,-3,-5,-5
1523055488306298,2,-2,-2,0,-8,-4,-1,1
1523055488307770,-7,-8,-6,-5,-5,-4,-2,-2
1523055488307770,6,0,-1,5,0,1,3,0
1523055488319800,0,15,5,-6,6,1,0,-1
1523055488319800,-5,-5,0,4,-1,0,0,0
1523055488328824,-4,-14,-7,-6,-5,-3,-5,-5
1523055488328824,-8,15,0,2,-3,-2,-2,-2
1523055488343370,18,-9,-10,-5,-6,-3,-1,-3
1523055488343370,1,15,4,7,-4,-3,-2,1
1523055488349918,-7,-8,0,-10,4,-1,-2,-1
1523055488349918,1,-6,-3,1,0,2,1,2
1523055488366426,-4,11,9,1,2,-1,0,1
1523055488366426,-2,-12,-6,3,4,0,-1,-4
1523055488367929,4,4,-2,1,-7,-2,0,-1
1523055488367929,-1,5,-1,0,-6,-3,-2,-1
1523055488379960,-4,-2,1,1,4,3,1,-1
1523055488379960,-3,-14,-5,-1,1,0,-1,1
1523055488388985,-1,11,-5,-3,-7,-6,-3,-3
1523055488388985,2,-8,6,-2,0,0,-1,-1
1523055488403021,-6,-6,-2,3,2,0,1,-2
1523055488403021,1,5,0,1,1,0,1,0
1523055488410040,5,14,0,-5,-2,-1,-2,3
1523055488410040,3,2,-1,0,2,-1,0,0
1523055488426083,-7,-21,-8,-3,-4,-1,0,0
1523055488426083,-3,-9,-1,1,-1,0,0,0
1523055488428088,1,8,3,4,1,0,1,1
1523055488428088,-3,-3,-2,4,2,-3,-4,-4
1523055488440120,1,16,3,-4,-1,1,2,2
1523055488440120,2,-4,-1,-2,1,0,-1,2
1523055488449146,-2,-3,-4,-2,-2,-1,1,1
1523055488449146,5,11,1,-2,-4,-2,1,-2
1523055488462682,-6,-1,0,-1,-5,-4,-2,-2
1523055488462682,-5,-29,-10,-4,1,-3,-2,-7
1523055488471715,1,12,3,-1,-2,2,0,-1
1523055488471715,0,2,0,2,-3,-2,-1,-3
1523055488486297,-8,2,2,1,2,0,-2,-1
1523055488486297,6,13,-1,-4,-2,0,2,0
1523055488487747,-4,-17,-4,-3,0,-2,-3,-4
1523055488487747,1,2,-1,1,2,-1,1,1
1523055488499833,-1,1,-4,-1,-1,1,-1,0
1523055488499833,-3,-1,-1,-1,-2,0,-1,0
1523055488508803,-1,4,3,0,3,1,-3,-2
1523055488508803,0,3,-1,-2,-1,-1,-1,-2
1523055488522394,-5,-8,-1,1,1,-2,-3,-3
1523055488522394,2,9,-3,2,-4,-1,0,-1
1523055488531364,1,-10,-3,0,1,1,0,0
1523055488531364,-3,-18,-3,-2,2,0,-1,0
1523055488546403,-1,6,-1,2,-1,-1,1,-1
1523055488546403,-2,-11,-1,0,0,-2,-1,1
1523055488547912,2,13,-2,-3,-3,-4,-1,0
1523055488547912,-3,-6,0,-1,0,0,-1,-1
1523055488559939,8,5,4,-3,0,0,0,0
1523055488559939,2,11,-1,1,-1,-1,-2,1
1523055488568963,-6,-24,-6,-1,-3,-1,0,-3
1523055488568963,0,-5,-5,-4,-5,-4,-2,-2
1523055488582500,-1,4,0,0,0,-1,-2,-2
1523055488582500,3,12,4,-1,-1,-1,0,0
1523055488591525,-5,0,2,2,3,0,0,-1
1523055488591525,-3,3,-6,-4,-4,-2,-2,-2
1523055488606563,1,0,1,-2,0,1,-1,-1
1523055488606563,-3,-10,1,-1,-1,-1,-2,-2
1523055488608069,5,32,2,-4,-4,-1,-1,1
1523055488608069,-5,-21,-7,-1,-2,-1,-3,-2
1523055488620100,-4,-16,-3,-2,1,-2,0,-4
1523055488620100,-2,-4,-2,-1,0,0,-2,-2
1523055488629157,0,3,3,-1,-2,-2,1,-3
1523055488629157,2,16,3,-1,-2,0,2,5
1523055488642698,-7,-14,-7,1,0,0,-2,-3
1523055488642698,-4,-12,-1,-6,-4,-8,-11,-2
1523055488651683,3,3,-4,1,2,6,4,-2
1523055488651683,-2,-2,0,0,-1,3,5,6
1523055488666222,2,-5,-7,-8,-8,-14,-2,4
1523055488666222,0,0,2,4,5,3,1,1
1523055488667727,-2,9,3,-1,-2,-1,-6,-8
1523055488667727,0,-10,-6,-2,-1,0,-1,-5
1523055488679757,-2,0,0,2,1,4,1,4
1523055488679757,-4,6,-2,-1,-1,-3,-1,-1
1523055488688782,-1,0,0,-2,-1,-2,-1,1
1523055488688782,-3,-3,1,0,-1,-2,-3,-4
1523055488702321,3,4,2,-1,0,1,-1,-1
1523055488702321,0,-4,-1,-3,-2,-1,2,-1
1523055488711343,2,4,1,1,0,-1,0,2
1523055488711343,-4,7,-1,-3,-2,-3,-3,-2
1523055488726417,0,-18,-3,-1,0,-1,-1,-3
1523055488726417,-1,4,0,0,0,0,2,0
1523055488727887,-2,-2,-3,-1,0,-2,0,-2
1523055488727887,2,-8,0,-1,-4,-2,-2,-1
1523055488739955,-3,19,4,4,3,2,-1,-1
1523055488739955,15,3,2,-1,2,1,0,2
1523055488748977,4,-12,-2,4,-3,-5,1,2
1523055488748977,-5,13,9,-2,8,1,1,-1
1523055488771501,0,4,-6,-3,-3,1,-1,-2
1523055488771501,-5,-14,-8,-3,-3,2,1,0
1523055488773008,9,15,5,10,-2,-3,-2,-2
1523055488773008,-4,-1,-6,-10,5,3,1,-2
1523055488785540,1,-12,-3,2,-3,-3,-2,-2
1523055488785540,-9,-1,-3,1,0,2,4,-1
1523055488792592,-2,-3,-4,-11,-3,0,-3,-2
1523055488792592,-11,-25,-8,11,-3,-4,-3,-3
1523055488800114,4,-5,-1,-8,1,-1,0,-4
1523055488800114,-25,-6,-4,-7,-7,-3,-1,0
1523055488809141,5,14,7,6,6,0,0,1
1523055488809141,3,-5,-2,-6,-4,-2,-1,1
1523055488822638,-9,-7,-2,-2,-1,-1,-1,-1
1523055488822638,2,-16,-3,1,-2,-4,-1,-2
1523055488831663,2,18,-1,-6,-2,0,1,0
1523055488831663,-7,-5,-1,-3,-4,-1,-1,1
1523055488845758,5,15,2,3,-2,-3,0,-3
1523055488845758,4,6,0,3,-1,-2,-2,-2
1523055488852719,-13,-14,-1,-5,3,-1,-4,-3
1523055488852719,2,17,-1,-1,-9,-2,-1,0
1523055488859736,4,-24,-10,-1,-2,-4,0,2
1523055488859736,6,18,9,1,2,0,-1,-2
1523055488868762,-8,-15,-8,-2,1,-1,0,1
1523055488868762,4,-6,1,4,0,-1,-3,0
1523055488882333,-1,13,4,4,-3,0,-2,1
1523055488882333,2,-2,-1,-7,5,-2,-1,-3
1523055488891322,0,5,8,-3,-5,-2,-2,0
1523055488891322,2,8,-3,3,0,-3,1,1
1523055488905861,-8,-2,1,-2,0,0,-3,-2
1523055488905861,2,-3,-4,1,-1,1,-1,1
1523055488912376,-1,2,0,-1,-3,-3,-2,-2
1523055488912376,1,6,1,1,-3,-3,-2,-1
1523055488928958,-4,-17,-13,-5,-5,-1,-2,1
1523055488928958,-1,-11,2,-6,5,0,1,-5
1523055488930461,0,-7,-1,0,3,3,2,-1
1523055488930461,-5,-3,2,-4,-2,0,0,1
1523055488942458,-3,6,-1,2,0,0,-1,-1
1523055488942458,-4,-15,-3,-3,-4,-4,-3,0
1523055488951483,7,11,-3,-2,-6,-4,-1,-1
1523055488951483,0,-5,1,-1,4,1,-2,-2
1523055488965520,4,18,3,-1,-2,0,3,1
1523055488965520,-2,-13,-4,4,-2,0,-1,-1
1523055488972538,-4,-9,-1,3,-4,-1,-2,0
1523055488972538,-3,-13,-8,-2,-3,-2,-1,-3
1523055488996155,1,20,4,-9,1,-2,0,1
1523055488996155,-5,-7,-1,14,1,-2,-3,-3
1523055488998105,-4,-6,1,1,-1,-2,-1,0
1523055488998105,0,14,2,-1,-1,0,0,-1
1523055489002671,-2,-32,-6,-4,0,-2,-1,0
1523055489002671,2,10,0,-3,-3,-1,-1,-3
1523055489011641,-6,3,-3,-1,2,2,0,0
1523055489011641,-5,-34,-7,1,-1,-1,-1,-5
1523055489025733,0,7,3,2,2,1,0,-2
1523055489025733,4,15,-1,-2,-2,-3,0,4
1523055489032697,0,2,-1,1,-3,1,2,0
1523055489032697,-2,-11,-2,-7,2,-1,0,-2
1523055489048776,-3,17,4,0,-4,-2,-1,-1
1523055489048776,-6,-10,-7,-2,-2,-1,-3,-3
1523055489050245,-3,-14,-3,-9,1,-2,0,-1
1523055489050245,2,11,3,4,-4,-3,0,1
1523055489062276,0,6,1,2,1,-1,0,-2
1523055489062276,-3,3,-1,-3,0,2,0,2
1523055489071300,-2,-2,-5,-1,-1,-3,-2,-3
1523055489071300,2,0,0,-4,0,-1,-2,-3
1523055489085840,-5,-6,-2,4,-1,-2,-2,-1
1523055489085840,0,0,2,-1,-2,-1,0,1
1523055489092356,2,-3,1,2,0,3,1,-1
1523055489092356,1,6,3,0,-1,-3,-1,2
1523055489108901,0,3,0,-1,1,-1,-3,-3
1523055489108901,0,-1,0,1,3,0,1,-1
1523055489110440,-7,-6,-9,-2,-1,-5,-2,-3
1523055489110440,1,8,3,-2,-4,-3,-1,-1
1523055489122490,-3,-7,-1,-3,0,1,1,-4
1523055489122490,0,0,1,-2,-2,0,-2,-2
1523055489131514,1,-1,-7,-1,-2,-5,-10,-1
1523055489131514,0,5,-4,-2,-1,-4,-1,-6
1523055489145497,4,16,3,1,1,2,1,4
1523055489145497,-3,-13,-5,-5,-6,-7,-4,0
1523055489152552,-3,-7,-1,0,1,2,2,-1
1523055489152552,0,2,0,-1,3,5,-1,-2
1523055489169062,-4,-11,-1,1,-2,-3,0,-4
1523055489169062,5,15,-1,-3,0,1,4,4
1523055489170598,0,2,3,-1,3,1,1,1
1523055489170598,0,3,-1,1,-2,0,-2,1
1523055489182597,-4,-9,-6,-3,-5,-3,-5,-4
1523055489182597,-5,2,0,1,-4,-1,-3,-3
1523055489191658,1,-6,-5,-2,-3,-2,-2,0
1523055489191658,3,7,4,2,3,0,0,0
1523055489205691,-1,2,-1,0,2,-1,3,0
1523055489205691,-6,-32,-11,-2,-4,-3,-3,-4
1523055489212675,7,8,3,-1,-1,0,3,-1
1523055489212675,-1,-7,-2,-3,-2,-1,-2,1
1523055489228755,1,17,1,-2,-1,-2,-2,-1
1523055489228755,0,11,2,1,2,2,2,-3
1523055489230224,-6,-10,-6,-4,-5,-3,0,-1
1523055489230224,-1,-5,-3,-7,-2,-3,-2,0
1523055489242254,-3,-19,-1,-2,-1,-2,-3,-1
1523055489242254,3,14,2,3,2,2,0,-2
1523055489251281,-1,7,3,-2,0,2,1,1
1523055489251281,3,2,0,5,2,-1,0,0
1523055489265819,-3,19,-1,-12,-4,-1,1,0
1523055489265819,-6,-38,-10,-2,-3,-4,-6,-6
1523055489272336,-1,-5,-6,1,-8,0,-2,1
1523055489272336,1,16,1,-6,1,3,1,0
1523055489288879,1,-5,5,-2,3,-1,-3,-1
1523055489288879,5,17,3,0,0,0,1,3
1523055489290385,-5,5,1,0,-3,-2,-1,0
1523055489290385,-6,-20,-5,4,-4,-1,-3,-3
1523055489302414,-4,-7,-3,2,1,0,-1,2
1523055489302414,16,32,2,-2,1,-1,0,0
1523055489311440,-25,-35,2,3,-1,-2,-4,-6
1523055489311440,-2,12,4,-7,-2,-1,0,-1
1523055489325476,1,5,-10,0,-3,1,0,0
1523055489325476,-6,-36,-9,1,-5,-4,-4,-3
1523055489332549,9,26,-1,0,1,0,2,-1
1523055489332549,-10,-28,1,-4,0,-3,-3,0
1523055489349041,8,3,6,-2,-2,-1,2,0
1523055489349041,-1,38,8,11,0,0,0,1
1523055489350546,2,-32,-10,-7,-1,-4,-1,-1
1523055489350546,-1,4,0,1,2,1,0,-2
1523055489362629,-2,-7,-1,4,-1,0,0,-1
1523055489362629,2,5,1,-8,-4,-2,-1,0
1523055489371603,-5,-3,6,1,1,-1,-2,0
1523055489371603,6,6,-14,3,2,-1,1,-1
1523055489385693,-2,5,5,-3,2,-1,-2,-1
1523055489385693,-3,-7,-3,0,-2,-2,1,-1
1523055489392656,4,10,1,-2,2,2,0,-2
1523055489392656,2,7,-2,1,-5,-1,-1,-1
1523055489408697,0,-28,-9,3,-3,-3,-2,-2
1523055489408697,-1,6,6,-9,2,0,-2,-1
1523055489410202,2,5,2,-6,1,-2,-1,-1
1523055489410202,0,0,-4,4,-4,-1,0,-2
1523055489422735,-1,3,-3,-2,-3,0,-2,-1
1523055489422735,-3,-4,-2,-1,-3,0,0,1
1523055489431257,0,0,-1,1,-1,-1,-1,0
1523055489431257,6,0,3,-2,2,2,0,2
1523055489445796,0,4,-1,5,-3,0,1,1
1523055489445796,-4,-4,-5,-1,-1,0,0,-2
1523055489452315,-5,-7,1,-6,2,0,-3,-2
1523055489452315,2,19,-2,-2,0,1,1,0
1523055489468912,-5,-8,0,-2,-1,-2,-1,-1
1523055489468912,4,7,1,1,-2,-3,-3,-6
1523055489470362,5,11,1,3,0,0,0,2
1523055489470362,-3,-10,2,4,-2,-3,-1,1
1523055489482395,2,14,-2,0,1,0,-3,-1
1523055489482395,-6,-25,0,-6,2,-3,-1,-2
1523055489491472,-3,8,1,0,-4,-3,-3,1
1523055489491472,0,-12,-6,-2,-1,-1,-1,-2
1523055489505454,3,-9,0,3,-3,-1,2,1
1523055489505454,-2,13,5,0,1,0,0,1
1523055489512475,0,-16,-4,-2,-3,-3,-3,-4
1523055489512475,-1,5,5,5,0,-1,-1,-3
1523055489529017,-2,-7,-1,-3,-4,-4,-3,-2
1523055489529017,-4,2,-4,-8,1,1,0,-1
1523055489530521,4,-6,-4,-2,-3,-1,0,2
1523055489530521,-4,4,-1,-4,-5,-2,-3,0
1523055489542608,-1,3,-2,-1,-1,-3,-2,-3
1523055489542608,-1,-12,0,-1,0,-1,-2,0
1523055489551580,1,16,4,-2,2,-1,-1,-1
1523055489551580,-11,-7,-3,-1,-2,0,0,-1
1523055489565615,3,-9,-5,-2,-2,0,-1,0
1523055489565615,0,20,0,4,0,0,-1,0
1523055489572688,-4,-29,-6,0,-1,-1,-2,-1
1523055489572688,0,5,3,-2,0,-1,-2,0
1523055489588713,-8,-18,-4,-2,2,0,-3,-2
1523055489588713,-1,-1,-2,0,-2,-1,0,2
1523055489590721,7,24,4,1,-2,-3,-1,-1
1523055489590721,3,-1,5,-2,0,-2,-2,-1
1523055489602715,-4,-5,-12,-2,1,0,-2,-3
1523055489602715,-6,-13,3,2,2,0,1,-1
1523055489611238,-3,-3,-4,-2,-6,-1,-1,-2
1523055489611238,-2,-7,-1,0,-1,-1,2,-6
1523055489625830,-3,6,0,-2,0,-1,-2,-1
1523055489625830,-1,-6,-4,0,-4,-5,-2,-2
1523055489632346,0,3,-2,-1,-4,-10,-11,2
1523055489632346,3,-2,0,-2,-1,2,4,5
1523055489648872,-5,-4,4,0,0,5,5,-3
1523055489648872,1,-6,-5,0,0,5,8,-3
1523055489650343,-2,2,1,-1,-5,-6,-8,-2
1523055489650343,6,2,-4,-2,-2,-5,-2,10
1523055489662374,-3,1,4,2,3,-2,-2,-2
1523055489662374,0,3,1,-5,-4,-2,0,-3
1523055489671451,-3,0,-5,-1,1,5,7,-5
1523055489671451,-4,5,1,0,-1,-2,-3,-4
1523055489685434,5,-15,-4,-1,-2,-3,0,-2
1523055489685434,0,-2,-1,-2,-3,-3,-3,1
1523055489692506,-3,-6,-1,0,3,4,2,0
1523055489692506,-3,0,-2,-2,-1,0,0,0
1523055489708998,2,6,2,1,2,-1,0,1
1523055489708998,2,-5,-3,0,-2,-3,-3,-1
1523055489710502,-1,-2,0,0,0,0,0,0
1523055489710502,-3,-6,-8,1,-1,-2,-1,-3
1523055489722588,1,9,9,-4,3,5,1,0
1523055489722588,1,3,3,-7,0,2,-1,2
1523055489731558,-1,1,-7,-3,-3,2,5,1
1523055489731558,-2,-17,-1,2,4,-2,-2,-5
1523055489745595,1,12,-4,-4,-5,-2,-3,-4
1523055489745595,-6,-5,-7,-7,-5,-2,-3,0
1523055489752613,-4,-22,6,0,8,0,0,-4
1523055489752613,1,9,-7,2,-11,-5,-4,1
1523055489768154,7,1,-2,-1,-9,-5,-5,-1
1523055489768154,-26,-10,7,5,5,2,1,1
1523055489774671,4,14,-8,-11,-6,1,1,2
1523055489774671,-1,-2,11,1,3,2,0,-5
1523055489782692,-3,4,1,4,4,-1,1,0
1523055489782692,2,-5,-7,1,-7,0,1,1
1523055489791719,-10,6,1,-1,4,-3,-3,-3
1523055489791719,1,-3,1,-3,-4,-2,-1,-1
1523055489805813,0,6,0,0,-1,-3,0,1
1523055489805813,1,-24,-7,-3,0,-2,-2,-4
1523055489812325,-3,12,3,1,-1,-4,-2,-1
1523055489812325,8,-6,-9,-5,-1,-1,3,5
1523055489828315,-4,6,6,-2,1,-1,-4,-4
1523055489828315,0,-11,-7,4,1,-2,-3,-1
1523055489834831,1,2,8,4,-2,1,0,0
1523055489834831,-6,-3,4,-3,-4,-1,-1,-2
1523055489851377,0,-5,-10,-5,0,-1,-1,1
1523055489851377,-2,-11,1,4,3,-1,-1,-2
1523055489852881,4,2,0,0,-3,-2,0,-1
1523055489852881,-3,-6,1,-1,3,1,1,-1
1523055489865916,-3,5,1,2,-2,0,0,2
1523055489865916,7,21,4,-2,-2,-1,-1,-1
1523055489872431,-4,-31,-9,1,-4,0,-2,-1
1523055489872431,3,21,4,-3,0,1,0,0
1523055489887974,-8,-32,-11,-1,-1,-2,2,-3
1523055489887974,5,6,-1,-4,0,-1,-2,-2
1523055489894992,6,7,4,2,2,0,1,-1
1523055489894992,-6,0,-3,0,-4,-2,-3,-2
1523055489911537,-5,-29,-7,0,-5,-1,-1,-2
1523055489911537,2,6,-3,-5,-2,0,1,-1
1523055489913039,0,-3,0,0,0,-2,0,1
1523055489913039,2,10,1,3,1,0,-2,-3
1523055489925607,1,16,7,-4,1,-1,-1,0
1523055489925607,0,-13,1,2,-3,-2,-2,-1
1523055489932594,2,7,0,-4,3,1,-1,-1
1523055489932594,-5,3,-3,1,-2,0,1,-3
1523055489948133,-7,-26,-4,1,0,1,-2,0
1523055489948133,5,19,-2,0,-3,0,0,1
1523055489955179,-2,-3,3,1,1,0,-1,-2
1523055489955179,-5,-10,-1,-2,1,0,-2,-1
1523055489971230,1,10,6,3,0,0,1,1
1523055489971230,5,16,4,-5,-3,-2,-2,1
1523055489972700,-1,-2,-10,-2,-5,0,-3,-1
1523055489972700,0,-2,0,-1,1,-1,-2,0
1523055489985733,-5,-8,0,2,-1,-1,1,0
1523055489985733,-5,-5,2,0,4,-1,-3,-4
1523055489992753,2,15,0,-1,-5,1,2,1
1523055489992753,4,0,2,2,2,-1,-1,-1
1523055490008293,-2,23,2,-5,-5,-3,-4,-2
1523055490008293,-8,-39,-14,-6,0,-5,-1,-2
1523055490014812,-11,-28,-4,-3,0,-2,-4,-5
1523055490014812,3,7,1,1,-3,-2,0,3
1523055490031391,8,28,0,-1,-1,-1,1,3
1523055490031391,1,3,5,3,0,-1,-1,1
1523055490032860,-7,-3,-1,-1,-2,-1,-1,-2
1523055490032860,-1,-18,-6,-6,-1,0,-3,-3
1523055490045893,-1,-7,1,-2,1,-1,-1,-1
1523055490045893,4,10,2,2,-3,2,-1,-1
1523055490052465,9,13,1,-1,1,0,0,1
1523055490052465,-5,16,1,-4,0,-1,-1,-3
1523055490067952,-5,-30,-7,-3,1,-2,0,-2
1523055490067952,1,8,1,0,-2,-3,-1,0
1523055490075025,-5,0,-2,1,-3,-1,0,-1
1523055490075025,0,-8,-8,-4,-2,-3,-1,-3
1523055490091514,2,10,5,-1,-1,0,-1,1
1523055490091514,-2,5,-1,1,2,2,1,-2
1523055490093073,-4,-20,-3,1,-3,0,-2,-1
1523055490093073,-2,6,-1,-4,-3,-2,1,-5
1523055490105553,1,-9,-1,3,3,-1,-6,-2
1523055490105553,-1,15,2,-3,-2,-3,-3,3
1523055490112570,2,0,-6,-3,-6,-6,-5,-2
1523055490112570,-1,-8,3,0,-1,0,7,11
1523055490128111,2,-6,-2,1,1,4,5,1
1523055490128111,-3,9,8,-1,0,0,-2,-6
1523055490135170,-4,-12,-4,-5,0,-2,-6,-5
1523055490135170,-2,-8,-4,-3,-5,-1,-4,-1
1523055490151174,1,5,-3,-1,-2,-3,1,-1
1523055490151174,-1,3,-3,2,2,2,-1,-2
1523055490152679,-1,3,-5,0,-1,-2,1,-5
1523055490152679,-2,-2,-2,-2,-1,-1,-3,-3
1523055490165712,-1,-1,-5,-4,-4,-4,0,0
1523055490165712,1,-1,0,-1,1,1,1,0
1523055490172732,-3,-5,-2,1,1,2,1,4
1523055490172732,-1,-5,-5,-2,-1,-3,-3,0
1523055490188310,0,-6,-3,-1,-1,-3,-1,-1
1523055490188310,-1,4,-5,-1,-6,-3,-1,0
1523055490194844,-1,-1,2,0,-1,1,-2,0
1523055490194844,-2,19,-2,3,-2,-1,-2,-1
1523055490211390,-4,-20,2,-9,0,1,0,-2
1523055490211390,0,-5,1,1,-2,0,2,1
1523055490212899,5,13,-2,0,-3,-4,0,1
1523055490212899,-6,10,3,-2,7,2,0,-1
1523055490225370,0,-10,-4,1,-2,-2,0,0
1523055490225370,1,10,-7,3,-9,-4,0,1
1523055490232389,-7,-37,-8,-15,3,2,2,-2
1523055490232389,0,14,11,15,3,-5,-7,-6
1523055490247930,4,15,-1,-2,-5,0,0,1
1523055490247930,-9,-16,-7,-9,-6,-2,-3,-3
1523055490254949,-3,-19,-8,-6,-8,-4,-2,-3
1523055490254949,-2,-11,1,14,7,2,-4,-1
1523055490271528,-2,8,3,1,0,2,-2,-1
1523055490271528,3,-3,0,-1,-2,1,1,0
1523055490272999,2,13,6,-1,-3,1,0,0
1523055490272999,3,-11,-5,-12,-6,-2,0,1
1523055490285531,-2,7,3,4,3,-2,-4,-3
1523055490285531,-6,-11,-4,-5,0,0,2,-2
1523055490292551,-4,-16,-4,-2,-2,-5,-2,-1
1523055490292551,-2,1,1,2,1,2,3,0
1523055490308091,5,-1,-5,-10,4,0,-2,1
1523055490308091,0,-5,4,-4,1,1,-2,1
1523055490315109,-2,17,4,7,4,2,1,0
1523055490315109,-4,-10,-6,-2,0,0,-2,-3
1523055490332156,-5,-18,-6,1,-5,-2,0,-3
1523055490332156,-1,7,4,5,5,1,-3,-2
1523055490333659,4,3,-1,2,-2,0,1,2
1523055490333659,2,3,2,-2,-3,0,2,-1
1523055490345745,-2,10,4,-1,2,0,-1,-2
1523055490345745,2,-1,3,2,2,-2,0,-1
1523055490352711,2,19,1,3,-1,-2,-2,-1
1523055490352711,-9,-19,-9,-8,-3,-1,0,-2
1523055490368251,-3,-10,-2,-8,-4,-3,-3,-3
1523055490368251,2,4,4,3,4,1,0,-1
1523055490374802,3,11,3,0,-5,-2,-1,1
1523055490374802,6,16,2,-3,0,-1,1,0
1523055490391350,0,-14,-1,7,-4,-3,-1,-1
1523055490391350,-5,10,-5,-4,0,-1,0,1
1523055490392852,-1,-16,0,-1,-2,-2,0,-1
1523055490392852,0,-12,-5,1,-4,-2,-1,-1
1523055490404848,-4,13,7,-1,0,0,1,-1
1523055490404848,1,-12,0,0,0,-1,-1,0
1523055490413872,-1,27,-4,3,1,0,-2,-1
1523055490413872,-4,-43,-11,-5,-3,-4,-2,-1
1523055490427911,4,11,2,3,-7,-2,-1,0
1523055490427911,-5,-14,-8,-1,-3,-3,-4,-2
1523055490434930,-1,14,4,-4,3,2,0,-3
1523055490434930,4,11,0,-6,-3,-2,-2,0
1523055490451474,-6,-1,-4,-2,2,0,-1,-2
1523055490451474,-2,-12,-2,-1,-2,-1,-1,1
1523055490452977,5,7,0,3,-4,0,1,1
1523055490452977,2,4,1,-8,-4,-2,-2,1
1523055490465008,-7,-8,-4,2,3,2,1,0
1523055490465008,7,16,3,-1,0,-1,-1,-5
1523055490474034,-11,-17,8,2,-5,0,0,-4
1523055490474034,-4,-18,-8,0,-4,-1,0,-2
1523055490488070,1,-9,-3,-1,-2,-1,0,1
1523055490488070,-2,9,0,0,-4,-1,0,1
1523055490495122,3,-5,0,-2,3,-1,0,-2
1523055490495122,0,12,2,0,-2,-3,-4,-2
1523055490511133,0,0,-3,-4,-1,0,-1,-1
1523055490511133,1,0,-3,1,0,1,0,-1
1523055490513138,-3,-4,3,-2,4,-2,-1,-2
1523055490513138,-5,-8,-2,-1,-3,0,0,-2
1523055490524668,2,8,2,3,-2,-4,0,0
1523055490524668,-1,1,-6,0,0,0,1,-1
1523055490534193,2,-4,-6,-5,-3,-3,-3,0
1523055490534193,1,1,2,1,0,0,1,-2
1523055490548230,-4,-3,-1,-4,-3,-1,-3,-2
1523055490548230,-3,-13,-1,0,0,-2,1,0
1523055490554748,2,10,3,-3,-3,-1,-2,2
1523055490554748,-2,-12,0,0,4,0,1,-2
1523055490571292,0,10,1,-2,-8,-5,-1,-2
1523055490571292,1,10,7,0,-1,-1,0,-1
1523055490572797,-1,0,-8,0,0,0,0,2
1523055490572797,-5,-32,-10,-4,-4,-1,-5,-3
1523055490584827,0,-3,3,1,-2,0,-1,-2
1523055490584827,-2,1,-5,-3,-1,1,4,0
1523055490593851,-2,3,-1,-1,-1,-3,-7,-3
1523055490593851,5,18,7,1,1,0,-4,-1
1523055490607888,1,1,-2,-3,-3,-10,-3,3
1523055490607888,2,-3,-1,-4,-1,2,5,6
1523055490616467,-1,-7,0,3,0,1,3,-1
1523055490616467,-4,8,0,-2,-1,-2,2,-2
1523055490631452,-1,-1,-1,1,0,3,-3,-5
1523055490631452,-2,-4,0,-4,-1,-3,-4,-4
1523055490632992,-2,-8,-2,-3,-2,-3,-1,1
1523055490632992,1,4,-1,1,2,-1,0,-1
1523055490644988,-1,0,-1,-1,1,-1,2,0
1523055490644988,-5,-7,-1,-2,-1,0,-3,0
1523055490654013,1,-1,-2,-1,-3,-1,-3,-2
1523055490654013,1,6,1,-1,1,-2,0,0
1523055490668051,-6,-4,1,-1,3,1,2,-1
1523055490668051,-5,-8,-2,1,0,-3,-2,-3
1523055490675068,3,-3,-1,-4,-2,0,-1,-1
1523055490675068,1,25,0,2,1,0,0,0
1523055490690608,0,-9,-5,-3,-1,1,1,1
1523055490690608,-1,0,-1,-1,1,-2,-3,-2
1523055490697627,-1,-8,-4,4,-1,-3,1,-1
1523055490697627,-5,-12,-2,0,0,1,0,2
1523055490705149,4,12,8,-5,4,0,-1,-1
1523055490705149,-3,3,-2,1,-4,0,-2,0
1523055490714173,-6,-8,-4,-1,-4,-2,1,-2
1523055490714173,-1,9,3,-1,5,-1,0,-3
1523055490728210,-5,-23,-10,-6,-6,-2,-1,-2
1523055490728210,5,21,5,-4,-1,-1,-2,-2
1523055490734727,4,1,0,9,1,-2,-2,2
1523055490734727,3,7,-6,-3,-4,-1,0,3
1523055490758789,-4,-4,0,-2,3,3,-1,-1
1523055490758789,2,0,1,2,-1,0,-1,-1
1523055490760294,-7,3,4,-9,-1,-1,-1,-2
1523055490760294,1,3,-1,5,1,-2,1,-2
1523055490764805,-5,-27,-8,3,-2,-2,-1,0
1523055490764805,-4,-4,-12,-8,-6,-5,-3,-4
1523055490773831,0,10,8,0,10,0,-3,-4
1523055490773831,3,6,4,5,-2,-1,-2,0
1523055490788370,-1,12,1,-3,-3,-1,-2,-1
1523055490788370,-4,-13,-5,7,1,2,1,0
1523055490794885,0,8,-3,-6,-7,0,2,2
1523055490794885,-5,-19,-8,-9,-2,-2,-4,0
1523055490810428,2,17,-1,0,0,0,-4,-9
1523055490810428,-3,-4,2,-2,2,-3,-3,0
1523055490817446,-4,-5,-1,4,0,1,0,0
1523055490817446,-1,-8,-1,-5,-5,-3,-3,-1
1523055490833990,4,7,-1,6,0,0,1,1
1523055490833990,-3,5,5,-6,2,1,0,-3
1523055490835495,-8,-27,-10,-2,-4,-1,-1,-3
1523055490835495,2,9,3,3,-2,0,-1,0
1523055490848027,-1,-6,0,1,-2,0,0,2
1523055490848027,4,7,2,3,-1,0,-1,2
1523055490855101,-4,-5,1,0,3,2,0,0
1523055490855101,-6,-7,-4,2,-5,-1,-1,-3
1523055490870623,0,15,4,-2,3,-2,-3,-3
1523055490870623,1,-19,-7,-3,-3,-3,-1,0
1523055490877640,1,3,-3,-2,-1,0,3,3
1523055490877640,-1,-7,-6,-2,-3,-3,-3,-2
1523055490893650,0,10,6,-7,-5,-4,-2,-1
1523055490893650,-2,-1,-1,6,4,1,-1,-2
1523055490895655,4,0,5,-4,3,1,-2,-3
1523055490895655,0,10,1,-2,0,1,0,2
1523055490908225,-7,-24,-10,0,-5,-3,0,-2
1523055490908225,1,3,1,-6,-1,1,1,-2
1523055490915208,-4,-10,-6,0,-2,-3,-2,-2
1523055490915208,-3,-17,-1,1,1,-1,-3,-2
1523055490930749,2,19,5,-3,1,0,0,0
1523055490930749,-3,-4,2,3,-3,-4,-2,-1
1523055490937266,2,18,-1,0,1,-3,-4,-2
1523055490937266,0,1,0,-1,0,0,0,-1
1523055490953810,2,-10,-5,3,-1,-2,-2,0
1523055490953810,-4,7,0,-5,-1,-2,0,0
1523055490955315,-3,-13,-4,1,-2,1,-1,0
1523055490955315,1,-4,-2,-2,-3,0,3,-2
1523055490968349,-2,0,0,-5,-5,-5,-3,-4
1523055490968349,-2,-2,1,3,5,1,0,-2
1523055490974919,4,8,-4,-5,-2,-2,-3,-2
1523055490974919,-4,-16,-3,-4,-5,-2,-1,1
1523055490990406,-5,21,5,3,1,3,1,2
1523055490990406,-1,-32,-8,-2,-2,-2,-3,-2
1523055490997426,1,20,3,-3,-2,-3,-2,0
1523055490997426,-3,-18,-3,-1,1,-1,1,-2
1523055491014024,2,2,-2,0,-2,-2,-2,0
1523055491014024,2,14,1,1,-5,-3,-4,-1
1523055491015474,2,0,1,-4,0,-1,-1,0
1523055491015474,2,12,-2,-5,-2,-3,-2,0
1523055491028006,-5,-14,-1,0,-1,-1,1,-1
1523055491028006,-2,-7,-5,-1,-1,1,0,-1
1523055491035027,2,2,2,2,5,2,2,-3
1523055491035027,-1,7,2,1,1,-1,-3,-2
1523055491050621,0,-8,-2,-2,0,0,0,1
1523055491050621,1,3,-2,-2,-1,0,1,1
1523055491057586,-7,0,3,3,0,0,1,-1
1523055491057586,-5,0,0,-1,-1,-1,-2,-3
1523055491073629,-1,-16,-8,0,2,2,-1,-1
1523055491073629,0,11,0,-4,-3,-2,0,-4
1523055491075634,0,-5,-3,-1,-3,-1,0,0
1523055491075634,-1,9,5,-1,2,-1,0,0
1523055491088203,1,-3,-2,1,1,0,-2,-1
1523055491088203,-4,2,0,-2,-2,-2,0,-1
1523055491095185,-4,-10,0,-2,-2,1,-1,-2
1523055491095185,0,-4,-7,-3,-5,-1,0,-3
1523055491110728,4,14,1,2,2,2,-2,0
1523055491110728,-5,-9,-4,-2,-3,0,-6,-1
1523055491117244,-1,-6,0,-1,-1,-2,6,8
1523055491117244,-3,-6,-2,0,0,-1,-1,-2
1523055491133842,-4,-4,-4,-4,-3,0,0,-5
1523055491133842,-3,4,4,1,0,-1,-5,-8
1523055491135294,0,-7,-1,1,-1,-2,1,1
1523055491135294,0,0,1,-2,-1,-1,-1,4
1523055491148354,0,0,0,-1,-3,-3,-2,4
1523055491148354,2,1,1,1,4,1,0,-2
1523055491154845,-8,-3,-3,-2,-8,-4,-5,-6
1523055491154845,-3,-1,-3,-2,2,1,1,-3
1523055491170888,1,3,3,1,0,-2,-1,-1
1523055491170888,1,8,-2,-1,0,0,2,5
1523055491177458,-9,-19,-13,-5,0,0,-4,-4
1523055491177458,1,-5,1,-2,1,1,-2,0
1523055491193947,4,16,0,0,-1,-1,-2,-1
1523055491193947,1,-6,0,1,-4,-2,0,0
1523055491195452,4,1,0,1,0,0,0,1
1523055491195452,-4,0,-3,2,1,-3,-3,-1
1523055491207987,-4,-4,-1,-5,-5,-4,1,-3
1523055491207987,-2,-2,3,-8,3,-1,0,4
1523055491215005,4,8,-4,4,-4,0,-1,0
1523055491215005,5,19,-1,-11,-8,-2,-1,2
1523055491230545,-4,3,18,26,20,1,-2,-4
1523055491230545,-4,-6,-12,-6,-6,3,7,-1
1523055491237565,-6,-20,-10,-4,-4,-2,-5,-1
1523055491237565,0,-5,3,-1,6,2,0,-1
1523055491253606,-1,5,-2,-5,-7,2,3,3
1523055491253606,-2,-7,-1,-2,2,-2,-5,-6
1523055491255647,5,13,3,5,-3,-1,2,1
1523055491255647,-7,-10,-6,1,-3,-2,1,-2
1523055491268146,-6,-25,-11,-7,-8,-4,-1,-1
1523055491268146,-5,-5,6,5,8,2,0,1
1523055491275165,-3,22,2,-11,-5,-1,-1,-3
1523055491275165,-1,-13,-4,0,-2,1,-4,-3
1523055491290706,-3,-23,-7,1,-1,2,0,-1
1523055491290706,6,0,-5,2,-8,-4,-3,0
1523055491297224,-1,-4,4,3,7,-1,-2,-1
1523055491297224,-2,5,5,3,0,-1,1,0
1523055491313768,-1,7,-4,-8,-9,-4,-3,0
1523055491313768,0,-7,-3,0,-2,0,-1,0
1523055491315272,-1,-5,-2,-1,3,-1,-1,-2
1523055491315272,-3,-7,-1,1,-6,-3,-2,-1
1523055491327304,-2,7,-2,-1,-2,0,0,1
1523055491327304,-2,3,3,-3,-1,-4,-1,-1
1523055491336328,0,4,4,3,3,-3,-4,-2
1523055491336328,-3,0,-8,2,-4,-1,0,0
1523055491350865,-3,-15,-3,-2,2,1,-2,-2
1523055491350865,2,5,3,0,-6,-1,1,2
1523055491357382,-3,-4,-2,-12,0,-3,-5,-1
1523055491357382,10,41,8,13,6,1,-1,2
1523055491373928,-2,-18,-3,-2,-5,-3,-1,-2
1523055491373928,-7,-2,-2,-2,-1,-1,-1,-2
1523055491375432,0,-15,-3,1,-3,0,0,-2
1523055491375432,0,2,-1,-4,-5,-2,-3,-1
1523055491387464,0,8,0,-2,4,-4,-4,-1
1523055491387464,-2,-7,0,-3,3,2,0,0
1523055491396541,0,-9,-3,-3,-7,-4,-3,-5
1523055491396541,3,0,1,1,1,0,0,1
1523055491410578,1,18,1,4,-2,0,0,1
1523055491410578,-6,-19,-7,-6,-1,-3,-3,-1
1523055491417543,1,0,3,1,-2,0,0,0
1523055491417543,-4,-7,1,0,4,1,1,-4
1523055491433586,2,-5,-5,-7,-4,-2,-1,0
1523055491433586,5,26,2,2,1,4,3,1
1523055491435592,4,6,-5,0,1,3,0,1
1523055491435592,-3,-2,-1,1,-2,-1,-2,0
1523055491447624,-5,-7,2,-6,-2,-2,-2,0
1523055491447624,-6,-15,-7,8,2,-2,-4,-4
1523055491456681,3,-1,2,-3,-4,-1,0,1
1523055491456681,0,7,0,-4,0,1,0,0
1523055491470720,-4,5,-5,2,1,0,0,-2
1523055491470720,0,-1,-3,-3,-7,-5,-4,-3
1523055491477704,-5,-8,-2,-2,2,2,0,-1
1523055491477704,0,-7,-4,-7,-7,-5,-2,-3
1523055491493747,4,15,4,-2,3,1,1,1
1523055491493747,-4,-8,0,-5,1,-4,-2,-2
1523055491495251,0,5,-3,3,4,1,1,-1
1523055491495251,-3,-15,-3,-5,-2,-1,0,0
1523055491507283,2,0,-1,3,0,0,0,-1
1523055491507283,2,20,2,-4,0,1,-1,2
1523055491516306,0,-5,-2,1,-1,-2,0,-1
1523055491516306,-6,-8,-2,-4,-2,-2,-3,-3
1523055491530851,-4,-30,-5,-5,-1,1,-3,-1
1523055491530851,1,11,5,4,1,0,0,2
1523055491537363,1,9,2,4,-2,-3,-1,1
1523055491537363,-2,3,-1,-1,2,1,0,-1
1523055491553961,0,3,0,-4,-6,-3,-2,-2
1523055491553961,-3,-5,-5,-5,-3,-2,0,-1
1523055491555412,-2,-6,-4,-2,-5,-4,-1,1
1523055491555412,2,4,4,1,2,0,-1,1
1523055491567441,-4,2,0,3,1,-2,-2,-2
1523055491567441,-3,-20,-5,0,0,1,1,-2
1523055491576465,2,14,1,-3,-3,-1,-2,0
1523055491576465,2,5,-3,-1,1,-1,-1,-2
1523055491591566,-1,-5,-4,1,-1,-1,-1,-1
1523055491591566,-4,-15,-3,3,-3,1,0,-3
1523055491597524,0,6,3,-2,1,0,-1,1
1523055491597524,-2,-2,3,-1,-1,-2,-1,-2
1523055491612563,2,2,-4,-3,-3,0,0,0
1523055491612563,1,2,-1,-2,2,-2,-1,1
1523055491620116,-6,-7,-1,2,2,4,6,-4
1523055491620116,0,-5,0,0,0,3,-5,-1
1523055491635624,2,9,0,-3,-4,-17,-9,3
1523055491635624,-3,3,4,4,2,0,1,-5
1523055491636126,-6,-17,-5,-2,-2,-1,-4,1
1523055491636126,3,4,-5,-1,-2,-1,11,10
1523055491651665,-2,0,0,-1,3,2,-2,-7
1523055491651665,1,4,-1,-3,-9,-6,-4,-1
1523055491657215,1,5,1,3,3,0,0,-4
1523055491657215,-3,-4,-2,-3,-3,0,-2,-6
1523055491672275,-2,-2,-1,-4,-1,-1,0,1
1523055491672275,-1,-2,-1,-1,-1,-1,0,-1
1523055491679794,-4,-1,0,3,2,-1,-2,-2
1523055491679794,0,-5,-2,-2,-3,-4,-2,1
1523055491695826,-2,1,-1,0,0,3,2,-2
1523055491695826,-1,-3,0,2,0,2,1,0
1523055491696286,-1,-3,-1,-5,-3,-3,-2,-1
1523055491696286,-1,-1,-2,1,1,-1,-3,-2
1523055491711324,-1,-3,-1,-2,1,1,1,-1
1523055491711324,4,11,3,-2,-2,-1,-2,1
1523055491717395,-1,2,-3,-1,0,-2,-3,1
1523055491717395,-8,-28,-11,-5,-4,-2,-4,-3
1523055491732383,0,3,-1,3,-4,0,-2,-3
1523055491732383,0,0,1,-2,0,-1,-1,2
1523055491739907,2,10,7,1,3,-1,-2,-1
1523055491739907,0,6,-3,0,-4,0,-1,-1
1523055491755496,-2,-5,4,-7,5,2,0,-2
1523055491755496,3,6,-1,12,4,3,2,2
1523055491756499,-2,0,4,-4,-2,-1,-1,-1
1523055491756499,2,19,-5,7,-11,-3,0,-1
1523055491771485,-8,-41,-5,-17,2,0,-1,-2
1523055491771485,-5,16,-7,13,2,-1,0,-4
1523055491777555,-1,-28,-15,-10,-13,-6,-2,-1
1523055491777555,6,26,17,9,5,2,1,2
1523055491792542,5,-5,-5,-12,3,2,1,1
1523055491792542,-7,-5,5,-4,-1,-2,-2,-2
1523055491800063,-8,-15,-8,-1,-2,-2,-4,-5
1523055491800063,-3,-9,-9,-8,-6,-4,-2,-2
1523055491815605,2,21,6,9,-2,0,-2,-1
1523055491815605,-1,-9,0,-2,3,0,-2,1
1523055491816607,-2,-4,-5,-3,-4,-1,-1,-1
1523055491816607,0,-17,-2,-6,-2,-2,-1,0
1523055491831647,-1,13,4,3,-2,-2,0,0
1523055491831647,2,0,-3,-5,-3,0,-1,0
1523055491837663,3,11,3,4,-2,-2,1,0
1523055491837663,-5,-13,-4,3,4,0,0,-5
1523055491852700,-2,8,-7,3,0,0,-2,-1
1523055491852700,2,-11,0,-8,-7,-4,-3,-3
1523055491860222,-4,5,4,1,2,0,-1,0
1523055491860222,5,11,4,-1,4,-1,0,0
1523055491875762,-2,-12,-5,5,-1,-2,1,-2
1523055491875762,2,14,0,-3,-2,-3,-2,-1
1523055491876263,-1,3,2,0,3,4,2,0
1523055491876263,-9,-15,-7,-6,-4,-3,-4,-5
1523055491891304,-2,-11,5,5,-1,0,0,-1
1523055491891304,1,-8,-3,1,-2,-1,-1,-1
1523055491897375,0,5,1,-3,1,0,-2,-1
1523055491897375,-5,5,1,1,-1,0,-1,1
1523055491912359,1,13,2,4,2,1,1,-1
1523055491912359,-1,-17,-3,-7,-2,-2,-2,-3
1523055491919934,6,12,-3,0,0,-3,-1,0
1523055491919934,-6,-18,1,-4,1,-2,-2,-3
1523055491935422,-1,1,-5,-1,-10,-2,0,-1
1523055491935422,-1,-4,0,-1,2,1,-1,0
1523055491936425,-1,3,-1,-5,3,0,-1,-2
1523055491936425,-1,2,4,14,2,0,-1,-1
1523055491951464,2,12,-1,-4,-5,-2,0,-1
1523055491951464,-2,-8,-3,-2,2,2,-2,-2
1523055491957479,-5,0,-5,-4,-4,0,-2,-2
1523055491957479,0,-15,-4,-7,-1,-1,0,-1
1523055491972574,1,5,2,4,1,0,-1,1
1523055491972574,-6,0,-2,-1,-5,-3,1,0
1523055491980039,-1,-7,6,4,2,-1,-2,0
1523055491980039,2,6,-4,-7,0,0,-1,0
1523055491995583,0,-2,-5,-4,-1,-1,-1,-1
1523055491995583,-1,-1,2,10,3,0,1,0
1523055492002636,2,0,-1,2,-1,0,-1,-1
1523055492002636,2,7,3,5,-3,-2,-2,-2
1523055492011678,-5,-2,0,-9,2,0,-1,1
1523055492011678,4,15,-1,-4,-5,-2,-2,-2
1523055492017694,-4,-14,-8,3,-1,-1,-1,-1
1523055492017694,-1,3,1,-5,1,-1,-1,-1
1523055492032680,-6,-14,0,2,4,1,0,-1
1523055492032680,-1,6,-2,-3,-3,-1,-2,0
1523055492040201,5,18,4,-1,-2,-1,0,0
1523055492040201,-2,-19,-7,-1,-3,-1,0,1
1523055492055742,1,1,1,2,0,-3,-1,-2
1523055492055742,-7,-5,-2,-4,-2,1,-3,-2
1523055492056244,5,3,-2,0,-2,0,-1,0
1523055492056244,-2,4,-3,-5,-2,-1,-1,-1
1523055492071284,-6,-25,-8,1,-3,-2,-2,-2
1523055492071284,3,-3,-2,-3,-2,-3,-1,-2
1523055492077300,-2,-1,3,-1,-1,-1,-3,-3
1523055492077300,2,14,4,2,4,1,-1,-1
1523055492092393,5,3,0,1,-2,-1,-2,1
1523055492092393,-3,4,-4,-3,-3,-2,1,-1
1523055492099858,-4,-20,-3,-2,-3,-2,0,0
1523055492099858,-2,8,2,-3,1,0,-1,-1
1523055492115401,-1,-3,1,0,-1,-2,-4,-1
1523055492115401,1,2,-4,-1,-3,-1,0,-1
1523055492116403,-1,5,2,0,2,1,2,-1
1523055492116403,-2,-7,1,0,-3,-1,-2,-1
1523055492131442,-3,3,-1,0,-1,-5,-4,-2
1523055492131442,1,0,0,0,1,2,2,-1
1523055492137458,-1,-4,-1,-3,-3,-4,1,0
1523055492137458,1,2,0,-3,-2,0,0,1
1523055492152500,-2,3,-2,0,-2,0,-4,-4
1523055492152500,1,-4,0,1,-1,-4,-4,-1
1523055492160018,-2,-1,-1,0,-1,-5,-3,-2
1523055492160018,0,0,-2,-3,-1,0,2,0
1523055492175617,1,9,2,0,0,0,5,2
1523055492175617,-2,-12,-2,-3,-3,-2,-3,-5
1523055492176624,-1,-4,-1,0,-1,2,-1,-1
1523055492176624,-2,2,1,0,-4,-2,-2,0
1523055492191603,0,4,-4,-4,-4,-2,-2,1
1523055492191603,0,0,0,-2,0,1,1,1
1523055492197618,1,-6,0,-2,-3,-1,-1,-1
1523055492197618,1,12,0,-1,0,-1,-2,-1
1523055492212660,-2,-16,-4,-2,-1,-2,-3,-1
1523055492212660,-3,5,1,-1,2,-1,1,-1
1523055492219677,-8,-32,-7,0,3,1,-1,-1
1523055492219677,-8,-11,-5,2,-2,-2,-2,1
1523055492235721,5,15,5,-3,-1,0,0,-2
1523055492235721,0,-6,-2,3,-1,0,0,0
1523055492236223,1,8,1,-3,-2,-2,-3,-2
1523055492236223,6,11,5,6,2,0,0,1
1523055492251762,-6,-3,-6,-10,-5,-1,4,1
1523055492251762,-8,-21,-11,3,-1,-1,-1,-2
1523055492257277,3,24,6,1,-4,0,-1,1
1523055492257277,3,7,-10,-7,-9,-2,0,-1
1523055492272319,-2,-18,-3,-2,5,-1,-3,-1
1523055492272319,7,16,12,7,2,-2,-1,1
1523055492279838,-3,-21,-10,-14,-2,-2,1,-2
1523055492279838,-2,3,8,5,0,-2,-4,-1
1523055492295381,-5,15,-2,-7,-5,0,1,-1
1523055492295381,4,-28,-6,-8,-1,-2,-2,-6
1523055492296383,4,21,7,4,2,-1,-1,1
1523055492296383,6,-4,-6,-9,-2,-1,1,-1
1523055492311422,-5,4,-2,1,0,-1,-2,-1
1523055492311422,-5,-9,-2,3,-1,-2,-1,-2
1523055492317437,-3,25,9,-5,2,0,-2,0
1523055492317437,-7,-37,-4,-1,1,1,-1,-2
1523055492332479,4,2,1,8,-6,-1,0,0
1523055492332479,2,14,-1,-1,-4,-2,1,2
1523055492339999,0,10,5,-3,-1,0,0,-3
1523055492339999,-5,-6,-3,-1,1,-2,0,-1
1523055492355538,-3,-14,-6,4,5,-1,-1,-3
1523055492355538,-1,6,1,-5,-2,-1,-1,2
1523055492356541,-3,-8,-7,1,-4,-1,-3,0
1523055492356541,-1,5,3,0,2,-2,-2,-2
1523055492371618,-1,4,6,-2,-2,-2,0,-2
1523055492371618,-3,-6,-6,-5,-5,-3,-1,-2
1523055492377651,2,0,-2,3,-2,-3,-1,1
1523055492377651,1,15,4,-1,3,2,0,-2
1523055492392638,-6,-24,-6,1,-1,0,0,-3
1523055492392638,2,7,3,-1,1,1,0,0
1523055492400159,-3,13,1,6,0,-1,-1,-2
1523055492400159,3,-27,-3,-5,-1,-4,-2,2
1523055492415701,2,7,2,-1,1,-1,-1,3
1523055492415701,14,14,2,3,0,2,3,1
1523055492416203,-6,-8,-2,-3,-2,-1,0,0
1523055492416203,6,17,2,6,1,0,1,-3
1523055492431242,-14,-29,-6,-1,-1,-4,-2,-6
1523055492431242,-4,-5,-5,-7,1,-2,-3,-1
1523055492437310,7,-8,-5,0,-2,0,0,1
1523055492437310,-3,13,2,-3,-3,0,-1,-1
1523055492452298,0,4,3,-1,0,0,-2,1
1523055492452298,-3,10,-2,1,-3,-3,0,-1
1523055492459817,-3,-15,-3,-1,-1,-2,-2,-2
1523055492459817,-6,-11,-1,-4,-3,-2,-3,-3
1523055492475357,3,19,6,5,5,1,-1,0
1523055492475357,-3,-6,-10,-3,-7,0,-1,-1
1523055492476361,-1,-8,-2,-3,1,-1,-2,-1
1523055492476361,-4,-2,4,-2,-5,-3,0,-2
1523055492491441,9,20,0,0,-3,-2,-1,-1
1523055492491441,-4,-9,-1,0,-1,-3,-1,2
1523055492497470,-5,-11,-6,3,-3,-1,1,-1
1523055492497470,0,2,-1,-5,-1,-3,-3,-2
1523055492512456,1,-1,3,-2,1,1,0,0
1523055492512456,-4,3,7,3,2,0,-2,0
1523055492519979,-1,-2,-6,-5,-4,-4,-3,-2
1523055492519979,-4,1,-7,-5,-4,-3,0,-1
1523055492535517,3,-3,0,-2,0,-1,-2,1
1523055492535517,-3,2,-2,0,-2,0,1,-1
1523055492536520,1,19,5,4,2,1,0,0
1523055492536520,0,0,-2,-2,0,0,-1,-1
1523055492551561,-3,-24,-5,-3,-5,-1,-1,-2
1523055492551561,2,10,5,2,-2,1,0,-1
1523055492557576,0,0,0,-2,2,-1,0,0
1523055492557576,-1,-8,-11,-2,-3,-5,-2,-1
1523055492572618,-3,0,-3,-3,1,-1,-1,-1
1523055492572618,-1,0,2,-2,1,-2,-2,-2
1523055492580137,-2,-2,-1,-3,-3,0,0,-1
1523055492580137,0,12,-1,3,3,2,0,0
1523055492595199,4,-2,-6,-3,-4,-4,-2,-1
1523055492595199,-1,-5,-1,-2,2,1,1,0
1523055492602709,-2,-2,0,1,-2,-1,-2,-2
1523055492602709,-3,-6,2,-1,0,-1,0,0
1523055492611722,5,18,2,1,-2,-1,0,1
1523055492611722,-2,2,1,0,-1,1,0,0
1523055492617237,-10,-21,-13,-3,0,0,-2,-3
1523055492617237,-3,-19,-1,0,0,2,-2,-4
1523055492632277,-1,5,1,-1,-3,-8,-8,-4
1523055492632277,3,1,4,0,-1,2,1,1
1523055492639832,2,6,1,-3,-2,-2,-4,1
1523055492639832,-4,-3,-2,-1,-1,-2,3,-1
1523055492654835,0,-2,0,0,0,4,6,5
1523055492654835,1,1,-2,-1,-1,3,-6,-1
1523055492662409,2,-4,2,1,-2,-10,5,14
1523055492662409,3,7,1,-2,-2,0,0,2
1523055492671381,-5,-4,-2,1,-1,1,0,-10
1523055492671381,-8,-15,-5,-2,-1,1,-1,-9
1523055492677395,-1,-1,-2,1,-2,3,-3,-10
1523055492677395,3,2,0,-2,-1,-1,-2,2
1523055492692435,1,2,0,-3,-4,-2,3,1
1523055492692435,-4,-4,-2,-3,0,-2,0,0
1523055492699955,0,-1,-1,-1,-3,-3,1,-2
1523055492699955,-2,-1,1,0,1,-2,-1,0
1523055492714996,0,2,0,2,-4,-2,-3,1
1523055492714996,-1,-4,2,-6,1,-3,-2,0
1523055492722517,3,1,0,-3,0,-2,-2,-2
1523055492722517,-2,-9,-5,0,-3,1,-2,-2
1523055492738056,-4,10,0,-6,2,-1,-4,-4
1523055492738056,-1,-12,-8,-2,-6,-3,0,1
1523055492739059,2,1,0,6,1,0,1,0
1523055492739059,-2,2,2,-8,-5,-2,-3,-2
1523055492752597,3,10,-7,11,-5,-3,1,2
1523055492752597,-6,2,9,-12,13,-2,-4,-2
1523055492760117,-2,-4,-13,-6,-5,2,-1,-3
1523055492760117,0,-11,5,3,5,0,-1,-1
1523055492775180,4,20,5,1,-1,3,1,3
1523055492775180,1,15,-4,5,-8,-4,0,1
1523055492782676,-3,-16,-1,-2,4,1,0,1
1523055492782676,-2,3,6,5,2,1,4,-7
1523055492798218,2,-1,1,-8,1,4,-11,1
1523055492798218,7,-7,-5,16,0,-3,-1,-3
1523055492798719,-17,14,9,1,-3,-2,-2,-1
1523055492798719,13,-20,-17,-7,-5,-6,-4,-5
1523055492812755,-7,8,5,-1,1,0,-3,-1
1523055492812755,-3,-23,-12,-7,-9,-4,0,-4
1523055492819808,5,0,-2,3,0,-1,-7,0
1523055492819808,0,18,8,1,-3,0,1,2
1523055492834868,-7,-7,-5,-7,2,-2,-1,-4
1523055492834868,-9,-23,1,-1,-1,-1,-1,-1
1523055492842388,3,0,-1,-4,-2,-1,3,-1
1523055492842388,-1,20,2,1,-1,-3,-8,1
1523055492857877,-3,-38,-6,0,-5,-3,1,-1
1523055492857877,-5,3,1,2,1,-1,-1,-2
1523055492858880,1,-4,0,-1,3,1,-7,-4
1523055492858880,3,2,-3,3,1,2,-1,1
1523055492872415,-1,10,0,-3,1,0,4,1
1523055492872415,-7,-17,-7,-4,-4,-3,-3,-2
1523055492879935,4,-6,-4,-1,-1,1,1,-2
1523055492879935,-4,6,1,4,0,0,-1,1
1523055492894975,3,-7,2,-3,2,-2,-1,-1
1523055492894975,0,29,1,-2,0,0,-2,-3
1523055492902495,-7,-30,-2,2,-3,-2,0,-2
1523055492902495,-4,0,0,-2,1,2,0,0
1523055492918036,0,-5,-1,2,-2,-1,2,0
1523055492918036,7,11,2,-3,-4,-2,-1,1
1523055492919040,-1,6,-6,1,-2,-4,-2,0
1523055492919040,-9,-14,-9,-2,-4,0,3,1
1523055492932574,-3,1,6,-10,8,-1,-5,-10
1523055492932574,6,14,2,2,-1,-1,0,1
1523055492940094,1,6,0,-3,-3,-1,1,-1
1523055492940094,-1,-2,-1,1,-3,-2,-1,1
1523055492955136,-1,12,-2,2,-7,-4,-2,0
1523055492955136,-8,-27,-8,0,3,1,1,-2
1523055492962654,3,16,5,-1,4,0,0,-2
1523055492962654,-1,12,0,-5,1,2,-2,-1
1523055492978197,1,-9,-4,-12,-4,-2,0,-2
1523055492978197,-1,0,-1,15,-2,-2,-4,-3
1523055492978699,1,6,-4,0,-5,-1,2,0
1523055492978699,2,0,-2,0,0,-1,2,1
1523055492992735,0,-1,-3,1,-3,-1,-1,-1
1523055492992735,-3,-6,-3,-6,-3,1,1,0
1523055492999788,0,-3,2,-2,1,-1,-2,-1
1523055492999788,9,23,5,-3,-3,-1,-2,0
1523055493014794,-3,-12,-5,3,-2,0,1,1
1523055493014794,-2,-11,1,-2,-3,-2,-2,-1
1523055493022314,3,11,-3,-4,3,-1,1,1
1523055493022314,-1,-17,-5,-1,-4,-6,-3,-4
1523055493038356,-4,-5,-3,4,-2,1,3,2
1523055493038356,2,4,1,2,-1,2,2,1
1523055493038892,-9,-6,2,-7,4,3,-1,-4
1523055493038892,0,-12,-5,13,-1,0,0,-2
1523055493052394,5,9,-5,0,-3,1,0,0
1523055493052394,-8,-6,-2,-8,-4,-2,-1,-2
1523055493059967,-1,-5,1,3,-1,0,-1,1
1523055493059967,-2,-13,-4,-4,-1,-1,-3,-1
1523055493074955,1,-6,2,4,-1,-2,-1,0
1523055493074955,3,11,0,-4,0,0,0,2
1523055493082532,-3,3,-1,-1,-3,-1,0,-1
1523055493082532,-3,-3,-2,-4,-1,-1,-1,0
1523055493098015,-1,-3,-3,3,-1,-1,-6,-7
1523055493098015,5,13,0,-3,-1,3,18,4
1523055493099017,-3,4,-1,2,0,0,15,-1
1523055493099017,-13,-34,-7,-4,0,-6,-20,2
1523055493112607,6,9,2,-2,-2,-1,-20,-2
1523055493112607,3,8,2,-2,0,-2,0,2
1523055493120074,-6,-17,-2,1,-2,-3,-12,-25
1523055493120074,1,17,7,0,-2,5,16,5
1523055493135171,5,-8,-7,-4,-1,-3,15,38
1523055493135171,-1,4,0,2,3,5,8,0
1523055493142689,1,0,-1,-1,-2,5,-13,-8
1523055493142689,-1,0,-3,-6,-7,-18,-16,-12
1523055493158228,-2,-8,2,-1,2,3,4,-7
1523055493158228,-2,-4,0,3,3,2,-3,-1
1523055493158678,-3,-3,-1,-3,-4,-3,3,3
1523055493158678,-1,-1,1,-1,-1,1,-3,-10
1523055493172213,7,22,4,4,1,0,3,-3
1523055493172213,-3,-9,-4,-4,-1,-5,-7,1
1523055493179733,-5,-10,-7,-2,-4,-4,-2,-1
1523055493179733,6,6,1,-2,-1,3,3,4
1523055493194773,-18,2,-1,-1,-3,-5,-6,-7
1523055493194773,-1,-20,-2,-1,-1,2,-5,-4
1523055493202326,13,22,8,1,0,-2,-2,2
1523055493202326,-6,-10,-8,1,3,2,4,3
1523055493218336,1,2,0,0,0,2,3,-6
1523055493218336,0,14,-2,-6,-3,-6,-8,-6
1523055493218837,-2,-28,-8,0,-2,-1,2,6
1523055493218837,1,6,2,3,-1,3,3,5
1523055493232372,-4,-5,7,-7,8,1,-4,-12
1523055493232372,3,9,0,-1,-4,0,-2,3
1523055493239893,6,14,5,-3,0,-2,0,10
1523055493239893,3,11,6,0,8,6,4,-4
1523055493254975,-10,-20,-16,-6,-11,-6,-3,-5
1523055493254975,2,-2,2,11,3,-2,-2,-1
1523055493262452,1,-1,4,7,7,1,-2,0
1523055493262452,-2,-3,-4,-5,-7,-3,-4,-4
1523055493277994,0,7,8,-7,1,-2,-2,0
1523055493277994,-1,-4,-8,-1,0,0,-1,1
1523055493278998,-1,3,-1,8,-2,-1,-1,-1
1523055493278998,-9,-3,-1,-6,1,-3,-1,-4
1523055493292532,24,22,-2,4,-4,1,8,0
1523055493292532,-27,-18,-4,-8,-2,-2,-10,-4
1523055493300052,3,2,1,-7,2,-1,1,2
1523055493300052,-4,-2,1,1,-3,-2,-1,0
1523055493315092,-8,-14,-5,3,0,1,8,-2
1523055493315092,0,-5,-1,-5,1,-3,-6,-5
1523055493322612,2,-13,-8,-7,-5,-1,4,-1
1523055493322612,0,9,1,6,-1,-1,-16,9
1523055493338208,3,-7,3,-1,1,2,4,-2
1523055493338208,2,6,9,1,-3,-2,2,-2
1523055493338656,-17,-17,-14,-4,-5,-3,-8,-4
1523055493338656,10,-7,-7,-8,-3,0,12,-1
1523055493352692,-1,3,6,3,-2,-4,-7,-1
1523055493352692,7,7,3,-2,-2,0,-2,-1
1523055493359710,3,11,2,-3,-3,0,2,2
1523055493359710,-4,-10,-3,5,3,1,0,-1
1523055493374751,-5,-12,-3,1,0,1,-3,2
1523055493374751,3,13,2,-1,0,1,0,-1
1523055493382271,3,12,3,-2,-3,-2,2,1
1523055493382271,-1,-2,-1,-1,0,0,1,-3
1523055493397814,-2,-4,-3,-1,-3,-1,-5,-1
1523055493397814,4,9,2,0,0,-1,4,-1
1523055493398849,-7,-21,-7,-1,-3,0,-1,-2
1523055493398849,-5,-7,0,-9,-2,-2,-2,-4
1523055493412350,-5,-2,-8,1,2,-1,1,0
1523055493412350,3,8,3,-2,-4,-5,-2,0
1523055493419871,-3,-3,0,3,2,3,-1,-1
1523055493419871,14,-5,1,8,6,1,0,4
1523055493434944,-4,5,-4,-21,-16,-5,-2,-2
1523055493434944,-3,-14,-6,-2,0,-2,-2,1
1523055493442468,2,-4,1,-1,1,-1,0,0
1523055493442468,-5,13,-4,3,-3,-1,-1,-12
1523055493457972,-13,-46,-12,5,9,1,-3,-2
1523055493457972,4,16,9,-5,-3,-3,-2,-2
1523055493458977,6,9,2,-6,-3,-4,-3,2
1523055493458977,-1,-11,0,-6,-2,-1,-1,1
1523055493472511,0,13,1,2,-2,-2,0,1
1523055493472511,-10,-9,-1,-2,0,-3,-3,-6
1523055493480032,3,3,0,-2,2,1,-1,-1
1523055493480032,-3,0,-8,1,1,0,2,2
1523055493495071,-5,-10,6,1,-3,-4,-2,-3
1523055493495071,1,2,1,2,0,-3,0,3
1523055493502592,-6,-9,-1,-1,4,3,3,1
1523055493502592,3,19,-2,5,-1,-1,2,3
1523055493517633,6,-3,-2,-3,0,-3,-3,0
1523055493517633,1,14,1,-1,3,3,3,1
1523055493525652,-3,-7,-1,1,-2,-2,-1,-3
1523055493525652,-4,-4,-1,-4,-6,-1,-2,-2
1523055493532172,2,9,1,4,3,1,1,3
1523055493532172,2,6,-2,3,0,2,2,0
1523055493539691,2,17,-4,-8,-4,-4,-4,-3
1523055493539691,-8,-37,-7,2,1,-2,0,-3
1523055493554784,-1,11,6,3,-2,0,-1,-1
1523055493554784,1,-7,-4,-3,-1,1,-1,1
1523055493562305,4,6,0,2,-4,-6,-2,1
1523055493562305,-4,2,-1,0,0,1,2,-2
1523055493577343,2,1,0,-4,0,1,-1,-1
1523055493577343,-6,-14,-4,-1,-1,3,2,-1
1523055493585828,-4,-3,4,0,0,-4,-1,-2
1523055493585828,1,10,7,-7,-4,-3,0,-1
1523055493592384,-5,-8,-3,2,4,3,-1,-5
1523055493592384,0,-6,-8,2,-2,0,3,-1
1523055493599849,2,11,-3,-3,-5,-8,-5,3
1523055493599849,5,0,-1,-2,1,2,0,2
1523055493614892,-4,7,3,-1,-2,-4,-7,-7
1523055493614892,-3,-21,-14,0,1,4,3,2
1523055493622413,2,6,13,4,4,6,12,-3
1523055493622413,-8,-17,-5,-7,-7,-17,-13,0
1523055493637449,6,17,0,5,3,5,-2,7
1523055493637449,3,-3,-1,-3,-2,-3,-2,0
1523055493645525,-3,-6,-4,-1,-2,-1,0,-6
1523055493645525,-1,9,4,3,7,6,4,-5
1523055493660511,-4,-6,-4,-5,-5,-2,2,-3
1523055493660511,0,4,2,1,-1,-4,-1,-3
1523055493661513,-2,-14,-7,0,-1,-1,-2,1
1523055493661513,-2,1,0,-4,-1,1,0,-2
1523055493675105,2,2,-3,-2,-2,-3,0,-1
1523055493675105,2,4,2,-1,-2,0,0,2
1523055493682570,-1,-3,-4,-1,-3,-3,-4,-5
1523055493682570,0,1,1,-1,1,1,-2,-1
1523055493697611,-2,-9,-2,0,1,-1,2,1
1523055493697611,1,12,1,-2,-1,-1,-2,0
1523055493705631,0,8,-2,1,0,-2,-2,0
1523055493705631,-4,-23,-4,-3,-6,-6,-3,-1
1523055493720673,-6,3,0,-1,4,2,4,-2
1523055493720673,6,-2,-2,5,-1,-3,-4,-1
1523055493721174,-4,-1,4,-4,4,2,1,0
1523055493721174,6,6,-10,-8,-9,-2,1,-5
1523055493734765,0,13,2,-15,-1,-5,-2,-1
1523055493734765,-18,-23,-9,-4,4,2,1,-1
1523055493742228,7,10,0,2,1,3,0,2
1523055493742228,-1,-7,-5,1,-7,-3,-1,-3
1523055493757325,-2,-5,0,11,6,2,1,1
1523055493757325,9,18,8,-11,-4,-3,-5,-2
1523055493765827,2,6,-3,-3,-7,-4,-2,-1
1523055493765827,-8,-11,-3,-5,1,-3,-1,-2
1523055493780330,-3,22,-8,1,-6,-3,-3,-2
1523055493780330,5,-20,10,6,1,0,-1,-3
1523055493781333,-3,3,1,3,1,-2,-2,1
1523055493781333,9,14,-2,2,1,2,2,1
1523055493794922,9,25,6,-5,-3,-4,-1,4
1523055493794922,-5,-28,-9,7,-2,-4,-4,-8
1523055493802390,-28,-21,1,-8,-1,2,-3,-4
1523055493802390,3,17,3,4,1,2,12,2
1523055493817483,-3,-9,1,-6,1,-3,-20,-4
1523055493817483,5,8,-3,6,0,2,1,1
1523055493825451,1,0,1,-2,-2,-1,2,1
1523055493825451,-8,-19,-4,4,-1,2,-5,-1
1523055493840491,-5,-13,0,-4,0,3,6,0
1523055493840491,-2,13,-2,-4,-6,-5,-2,-1
1523055493841547,12,-11,-12,2,-3,-3,-5,-2
1523055493841547,-2,13,9,-5,3,3,3,0
1523055493855029,-2,-29,-8,2,-3,-2,4,-5
1523055493855029,-3,-1,0,0,0,0,-5,-2
1523055493862583,-4,12,-1,2,-2,0,0,-2
1523055493862583,-4,-21,-5,-2,-3,-1,-4,-3
1523055493877589,3,-6,1,3,-2,1,1,3
1523055493877589,0,14,2,-2,-3,-3,-2,1
1523055493885611,0,1,-6,-4,1,1,1,0
1523055493885611,-2,-19,0,-6,-1,-3,-6,-2
1523055493900650,-2,-2,-2,10,-2,-1,-1,-4
1523055493900650,-4,4,0,-8,0,0,3,0
1523055493901652,8,4,-2,2,-4,-3,1,0
1523055493901652,-3,17,2,0,1,-2,-4,-2
1523055493914690,5,-4,1,1,1,0,3,0
1523055493914690,-5,-6,-3,-6,-1,0,-1,-2
1523055493922710,1,-2,-5,-1,-5,-4,-3,-3
1523055493922710,0,9,1,2,1,0,1,2
1523055493937247,0,2,-4,-10,-7,-2,2,0
1523055493937247,-2,12,5,15,5,-1,0,0
1523055493945771,-3,-22,1,-9,6,3,-2,-2
1523055493945771,1,3,0,0,-2,0,0,-2
1523055493960812,4,19,0,-4,-2,-2,-2,2
1523055493960812,1,-5,-9,-6,-4,-4,-2,1
1523055493961366,-9,-37,-6,2,-3,-3,-1,-2
1523055493961366,5,15,5,-2,1,0,-1,1
1523055493974901,-5,-2,0,2,0,0,0,-2
1523055493974901,-1,-3,-3,-1,-5,-2,0,-1
1523055493982367,0,12,6,-2,7,-1,0,0
1523055493982367,1,-1,-4,-3,-4,-1,2,1
1523055493997408,-3,-16,-4,1,0,-1,-3,-2
1523055493997408,0,10,2,-6,-1,-2,-1,0
1523055494005428,-1,-12,-3,11,0,-1,0,-2
1523055494005428,0,9,6,-5,8,0,0,-4
1523055494020470,-3,9,1,3,-2,-1,-1,-2
1523055494020470,-8,-42,-8,-7,-3,-1,-1,-4
1523055494021473,-2,11,2,-3,0,3,1,1
1523055494021473,3,7,-1,4,-2,-2,-3,1
1523055494035041,0,-4,-2,-3,2,0,-2,-3
1523055494035041,2,9,3,1,0,0,0,1
1523055494042527,0,2,-4,-2,-3,-2,-2,0
1523055494042527,-2,-3,-2,0,1,1,1,-1
1523055494057569,-3,9,2,-4,2,-1,-1,0
1523055494057569,-2,-11,-3,0,-5,-3,0,-2
1523055494065623,-4,-2,0,-2,-2,-1,-2,0
1523055494065623,0,-2,0,-3,-4,-4,-2,-2
1523055494080629,-1,5,-8,-1,1,3,3,0
1523055494080629,-2,2,7,-1,3,2,2,-2
1523055494081633,-2,-3,-2,-4,-9,-17,-10,0
1523055494081633,-1,-3,-1,2,0,-1,-5,3
1523055494095178,-2,-12,-1,1,-2,-3,-3,-3
1523055494095178,-4,8,-3,0,-2,2,2,-10
1523055494102689,0,-8,-3,-1,2,7,0,-4
1523055494102689,1,1,-5,-4,-8,-9,2,8
1523055494117728,4,-8,0,1,3,1,2,5
1523055494117728,-2,-5,-2,-3,-4,-7,-7,-3
1523055494125804,1,10,3,3,1,7,1,-3
1523055494125804,-6,-3,-2,1,1,3,1,-3
1523055494140788,1,-9,-8,-2,-7,-6,-5,-3
1523055494140788,3,4,13,-2,-3,0,-1,2
1523055494141292,-5,9,-4,-3,0,-3,-3,-3
1523055494141292,0,-4,-2,0,1,0,1,-4
1523055494154828,-2,6,-3,-2,-3,-2,-1,1
1523055494154828,0,-9,-6,-1,0,-2,-2,-1
1523055494162346,1,8,4,-3,-4,-4,-1,2
1523055494162346,0,5,4,2,0,2,1,-1
1523055494177387,-8,-10,0,-2,0,0,0,-2
1523055494177387,-1,12,0,0,2,0,-3,-1
1523055494185407,0,-14,-1,-1,-4,0,1,1
1523055494185407,-7,0,-4,0,1,-1,-3,-2
1523055494200447,7,-32,-3,-1,0,-1,-2,-3
1523055494200447,1,10,-4,-2,-2,-3,-2,2
1523055494201450,5,7,-4,0,-4,-2,-1,0
1523055494201450,-15,-17,5,-6,1,0,-3,-3
1523055494214988,5,8,-3,-4,-2,-1,0,1
1523055494214988,3,-1,2,2,3,2,1,2
1523055494222508,-7,-24,-6,4,-6,-2,0,0
1523055494222508,4,28,-3,-2,-6,-1,-3,-2
1523055494237546,0,8,7,6,8,4,-1,-1
1523055494237546,-6,-25,-7,0,-3,-1,1,2
1523055494245567,4,18,5,-9,-2,-3,-1,0
1523055494245567,-4,-23,-7,23,-2,-2,-1,-1
1523055494260608,5,12,4,-4,-5,-5,-1,-1
1523055494260608,6,1,-3,-2,4,-3,-1,6
1523055494261109,-1,12,2,-11,1,2,1,-3
1523055494261109,3,-6,-4,-6,-4,1,0,-5
1523055494275149,-11,-9,0,5,-2,-2,-1,-2
1523055494275149,8,3,-9,-17,-6,-2,-3,-1
1523055494282668,-8,-13,2,13,2,-1,0,1
1523055494282668,-5,-9,0,-5,2,-1,0,1
1523055494297205,-2,-4,0,1,-4,-1,0,-3
1523055494297205,-6,9,0,-5,1,0,-2,-4
1523055494305729,4,-5,-6,0,-4,-2,-2,-1
1523055494305729,5,6,1,5,-2,-2,-1,0
1523055494320796,-4,7,4,-8,2,0,1,3
1523055494320796,-10,-23,-1,2,-1,1,0,0
1523055494321271,-3,4,1,8,6,0,-2,-2
1523055494321271,4,-1,3,-6,-2,-2,-1,0
1523055494334859,2,12,-3,-3,-3,-1,-3,-3
1523055494334859,-2,1,-1,-4,-3,-3,-2,-5
1523055494342380,-17,-11,-5,3,3,0,-1,-1
1523055494342380,-4,-20,-5,-6,4,5,3,0
1523055494357367,4,16,2,-2,-3,-1,-1,0
1523055494357367,-5,3,0,5,-2,-2,-3,-4
1523055494365441,2,9,7,-3,1,-2,2,2
1523055494365441,-3,-12,-3,-1,-1,-3,-3,-5
1523055494380428,-9,13,-1,-1,0,2,-1,-1
1523055494380428,0,-22,-5,7,-4,-1,0,1
1523055494381466,5,6,-6,-5,-1,2,0,-1
1523055494381466,2,6,4,-3,-4,-3,-3,1
1523055494394967,4,-1,2,3,-1,0,-1,0
1523055494394967,0,18,2,1,-2,1,-1,-1
1523055494402540,-1,-28,-5,1,6,1,0,-2
1523055494402540,-1,11,2,-2,-3,-1,1,-3
1523055494417525,-6,-27,-9,-3,-1,-1,-3,-2
1523055494417525,2,18,3,1,-1,-1,0,1
1523055494425546,5,1,-3,-2,-3,-1,0,1
1523055494425546,9,23,1,1,1,-1,-2,1
1523055494440587,-10,-33,-3,-8,-5,-4,0,-1
1523055494440587,-8,-13,-2,13,9,2,-1,-3
1523055494441589,2,-4,-1,-2,-6,-1,-2,-1
1523055494441589,-1,-5,-3,-3,-4,-1,-3,-3
1523055494455125,5,28,3,0,1,-2,-1,1
1523055494455125,-9,-34,-13,-6,-3,-3,-3,-2
1523055494462647,4,13,5,-1,-1,-3,-2,0
1523055494462647,0,8,-3,2,1,0,0,0
1523055494477239,-5,-7,-7,0,-3,-1,3,3
1523055494477239,2,14,1,-2,-4,-3,-4,-1
1523055494485708,5,14,3,-3,-3,-3,1,-3
1523055494485708,-1,-11,-1,-7,1,0,-1,-2
1523055494523862,-1,5,2,3,3,0,-2,0
1523055494523862,-1,-14,-1,-2,1,3,2,1
1523055494525367,2,13,0,-5,-2,1,-2,-3
1523055494525367,2,-1,1,-2,-5,-2,-3,-1
1523055494537398,3,0,-3,3,1,-2,0,-3
1523055494537398,-3,-13,-4,-2,-4,-3,-1,1
1523055494546369,-5,0,2,-3,3,0,-1,0
1523055494546369,-1,-5,-2,7,3,2,-1,-1
1523055494561463,1,0,6,-1,-3,-1,-2,-3
1523055494561463,-4,-10,-1,-5,-4,1,0,-2
1523055494562970,0,-4,-6,-1,-3,-3,-5,0
1523055494562970,1,10,1,-2,-1,-2,-1,2
1523055494576448,-4,-24,-6,-3,2,-1,-1,-2
1523055494576448,4,24,2,-2,-1,-2,0,-1
1523055494577952,0,-12,1,-1,-2,-1,2,-3
1523055494577952,-5,-2,-2,0,-2,0,-1,0
1523055494591490,-5,-3,0,5,1,6,-2,-6
1523055494591490,4,13,1,-2,-4,-4,-2,1
1523055494592994,1,3,-1,-1,-2,-5,4,10
1523055494592994,-3,0,1,-3,0,-1,-3,-1
1523055494605079,1,3,-5,-3,-4,-2,-4,-3
1523055494605079,-1,0,0,1,1,4,-1,-4
1523055494614050,-2,3,-1,0,-1,4,3,-4
1523055494614050,-2,-10,0,0,0,0,-3,-1
1523055494628643,1,-3,-5,-2,-4,-5,2,6
1523055494628643,-1,2,-1,1,2,0,-1,-1
1523055494630593,-3,-8,-2,1,-3,0,-4,-4
1523055494630593,-1,2,1,-1,1,2,2,-1
1523055494651148,0,3,-1,-3,-4,0,-5,-2
1523055494651148,-3,-10,-2,-2,-5,-5,-2,-1
1523055494653154,-3,0,0,-2,2,-2,-2,0
1523055494653154,1,-6,-2,1,-1,-1,0,-3
1523055494664717,1,12,4,-1,-2,-4,-1,3
1523055494664717,-1,-10,-3,0,0,-3,0,4
1523055494674209,-5,9,1,1,1,4,1,-1
1523055494674209,-17,-10,-4,-5,-2,0,1,2
1523055494688747,5,-3,4,3,2,2,2,2
1523055494688747,5,18,7,6,10,9,4,3
1523055494690251,-12,-9,1,3,0,0,-3,-5
1523055494690251,-4,-27,-8,2,1,0,-4,-5
1523055494711309,12,23,-2,-3,-4,-1,0,1
1523055494711309,-7,0,10,-2,3,0,0,-3
1523055494712812,11,0,1,5,4,3,0,2
1523055494712812,2,3,0,-2,-6,-3,0,3
1523055494724881,-4,-29,-8,-1,6,-3,-2,-2
1523055494724881,1,18,-3,-4,-5,-1,1,0
1523055494733869,-3,-15,-7,-3,-1,-4,-6,-5
1523055494733869,-1,-9,-3,-12,0,0,2,3
1523055494748946,6,15,1,-8,5,1,0,-2
1523055494748946,8,4,1,-9,-4,0,5,2
1523055494750412,-6,-25,-5,0,-6,-3,-1,1
1523055494750412,9,28,14,20,11,4,5,-4
1523055494771467,-9,-18,-7,-6,-2,-2,-4,-8
1523055494771467,7,24,-3,-8,-4,-2,-3,-1
1523055494772971,-4,-36,-14,-10,-6,-4,-4,-3
1523055494772971,3,0,0,3,-1,-4,-1,3
1523055494785037,-8,8,9,0,1,2,0,-1
1523055494785037,2,8,-2,2,-2,-3,-2,-5
1523055494794029,-18,-3,2,-4,-3,-3,-3,-1
1523055494794029,-1,2,-5,-4,-6,-4,-2,-1
1523055494808590,7,11,-1,-3,-3,-3,1,0
1523055494808590,-12,-31,-3,4,2,-2,-2,-5
1523055494810597,4,42,7,-1,1,1,0,-2
1523055494810597,-13,-54,-17,-5,-5,-6,-3,-6
1523055494831151,-7,3,1,5,-3,0,0,0
1523055494831151,3,0,-2,-10,2,-2,-1,0
1523055494832655,6,15,6,15,5,1,2,4
1523055494832655,2,14,0,-5,-5,0,0,-4
1523055494845189,-2,-6,-1,8,-4,-6,-4,-3
1523055494845189,0,-5,2,-1,-3,-3,-1,-1
1523055494853710,1,17,3,-3,0,1,-2,-1
1523055494853710,1,-3,-4,-4,-1,-1,-1,1
1523055494868751,0,-6,-5,-13,-4,-2,-1,0
1523055494868751,-9,-12,2,9,0,0,-1,-4
1523055494870255,17,19,2,-7,1,-2,-1,0
1523055494870255,-23,8,0,-9,3,2,-1,-3
1523055494891364,-11,-40,-10,8,-3,-4,-2,-4
1523055494891364,-1,13,-2,-11,-4,-1,1,2
1523055494892868,13,-12,0,7,-1,-1,-2,-3
1523055494892868,5,27,8,-6,-1,0,-2,-2
1523055494904846,-4,-7,-3,11,2,0,1,0
1523055494904846,-3,-10,-6,1,1,1,0,0
1523055494913871,-6,-5,-3,0,-5,-3,-1,0
1523055494913871,8,8,5,4,3,1,-1,2
1523055494928945,-4,-6,-1,-10,-1,1,0,-5
1523055494928945,-2,-4,-5,6,0,-2,-4,-3
1523055494930415,7,-8,4,-19,-3,-3,0,1
1523055494930415,-13,12,0,14,2,1,0,-3
1523055494951471,0,4,-2,-6,-1,-1,-1,-1
1523055494951471,-2,-4,-1,1,0,-1,-2,-4
1523055494953030,-6,-13,-8,-4,-2,-1,0,-2
1523055494953030,6,-11,-5,-4,-6,-4,-1,1
1523055494974031,6,11,2,-3,0,0,1,1
1523055494974031,-6,-5,1,-10,0,1,-3,-4
1523055494975535,-8,2,-2,11,-1,-2,-3,-1
1523055494975535,6,-10,3,-2,-3,-2,1,1
1523055494988570,1,14,1,-7,4,-1,-1,-1
1523055494988570,3,2,0,1,-1,3,4,3
1523055494990575,-6,-6,-2,-2,0,-1,1,-2
1523055494990575,5,-3,-5,-4,-1,-1,-2,0
1523055495011130,-4,-10,1,4,0,1,-1,-1
1523055495011130,2,-3,0,5,0,-3,-1,1
1523055495013134,-3,13,0,-5,-4,-1,-3,-3
1523055495013134,-1,-3,-3,0,-3,-3,-1,-1
1523055495033690,-2,-17,-5,-4,-5,-3,-1,-3
1523055495033690,3,5,0,1,1,-1,-1,1
1523055495035193,6,4,-1,-3,-4,-2,1,2
1523055495035193,3,5,0,0,4,0,0,0
1523055495048765,-10,-5,-3,3,2,0,0,-2
1523055495048765,4,19,-2,-1,-2,0,1,0
1523055495050235,2,3,2,-1,-1,1,-1,-1
1523055495050235,-1,-1,3,-3,-2,-1,-3,0
1523055495071343,9,-6,-5,-2,-2,0,2,-1
1523055495071343,-17,-2,1,0,-1,-2,-4,-3
1523055495072795,-4,-7,1,-1,5,1,0,-2
1523055495072795,1,5,1,0,-1,-1,1,-1
1523055495093849,4,4,-1,2,1,3,1,4
1523055495093849,3,9,-1,-1,-1,1,-1,-2
1523055495095408,-8,-21,-9,-5,-3,-8,-3,-3
1523055495095408,-1,-6,-2,0,0,-3,-1,1
1523055495107887,4,13,6,-1,3,3,0,3
1523055495107887,-2,-10,-1,-3,-4,1,0,-1
1523055495114906,4,7,1,0,1,0,-3,-2
1523055495114906,-2,1,-2,-1,-5,0,1,-5
1523055495131451,-7,-2,-1,-1,-2,-2,-3,-2
1523055495131451,0,-13,-5,-1,-3,-4,0,1
1523055495132955,0,-3,-3,3,4,5,5,-2
1523055495132955,2,-12,1,-3,-1,0,-7,-2
1523055495154011,6,10,-4,-3,-3,-5,-5,3
1523055495154011,-2,-5,-1,-9,-1,0,1,2
1523055495155567,6,6,4,7,-4,-5,0,1
1523055495155567,-26,-12,1,2,7,7,2,-6
1523055495168047,-10,-11,-4,-3,-4,-2,-5,-6
1523055495168047,12,9,-1,0,-3,-3,-6,-7
1523055495175066,-9,-19,-6,-9,-5,-4,-2,-4
1523055495175066,3,8,-7,0,-1,-2,-2,-1
1523055495191109,-5,-4,-4,-6,1,-2,-2,-2
1523055495191109,-5,-5,1,10,-7,-8,-2,-3
1523055495193114,-2,26,2,-13,-8,2,1,-1
1523055495193114,5,5,-1,-5,-5,-6,-2,0
1523055495213668,-3,-33,-5,4,3,-2,-3,-3
1523055495213668,5,-11,-3,7,4,2,1,2
1523055495215675,-4,3,-3,4,-6,-5,-4,-1
1523055495215675,5,13,5,-18,7,-2,-2,-2
1523055495228206,9,-12,-5,3,-7,-3,-2,2
1523055495228206,-2,2,-8,-10,-9,-3,-2,2
1523055495234724,-5,-40,-7,19,2,2,1,-4
1523055495234724,-9,-8,3,-1,-1,0,-2,-5
1523055495251322,20,31,3,-10,-5,-3,0,-2
1523055495251322,0,-14,1,18,2,-1,-1,3
1523055495252772,-1,15,-2,-8,-1,1,1,5
1523055495252772,3,-10,-7,-4,-5,-2,0,1
1523055495273827,-5,1,-3,5,-6,-1,0,-3
1523055495273827,-3,4,1,-9,-2,0,1,-2
1523055495275332,2,10,5,2,6,-2,-4,-2
1523055495275332,2,4,1,12,3,1,0,1
1523055495288367,-14,-4,-8,-6,-8,0,-3,0
1523055495288367,-8,-37,-7,5,3,-3,-1,-3
1523055495294939,1,0,-1,-7,0,-2,-2,1
1523055495294939,6,20,-3,-4,-6,-1,0,4
1523055495311429,-8,-33,-4,-3,-3,1,-1,-4
1523055495311429,0,16,3,1,6,5,3,3
1523055495312935,-7,-5,1,-8,0,3,1,1
1523055495312935,11,0,1,3,-2,-2,-2,0
1523055495333989,-2,21,6,2,-1,2,2,1
1523055495333989,4,5,5,-3,1,0,0,-1
1523055495335533,0,2,2,6,0,0,-2,1
1523055495335533,-2,-17,-15,-3,-7,-5,-3,-4
1523055495348082,2,9,10,2,3,2,2,0
1523055495348082,-4,-5,0,-15,0,0,-2,-3
1523055495355045,0,6,-5,10,-4,0,0,-2
1523055495355045,2,6,1,0,-6,-2,2,1
1523055495371086,-1,7,7,5,5,-2,-1,-1
1523055495371086,0,10,0,-6,-2,-1,-2,-1
1523055495373092,2,4,-2,-8,2,2,2,1
1523055495373092,-4,-16,-5,3,0,-1,0,-4
1523055495393646,1,-3,2,8,4,1,2,0
1523055495393646,1,10,5,-1,-4,-3,-1,-3
1523055495395653,-2,-3,-3,-5,2,-1,-2,0
1523055495395653,8,9,8,10,6,2,0,-3
1523055495408222,3,10,-4,-7,1,3,0,0
1523055495408222,-9,-28,-11,-1,-3,-2,0,-1
1523055495414737,2,-7,0,-5,2,1,-1,-2
1523055495414737,0,4,-2,1,-4,-2,-2,1
1523055495431282,-3,28,7,-2,-2,-3,0,0
1523055495431282,7,-9,-1,-4,2,-2,-5,-4
1523055495432752,-4,-7,1,3,-1,0,-1,2
1523055495432752,-16,-6,-6,-8,-2,-1,-1,-4
1523055495453807,-2,-15,1,10,4,-1,-3,-3
1523055495453807,3,16,-2,-5,-1,1,4,2
1523055495455310,5,-12,-4,-5,-3,-4,-2,-2
1523055495455310,-1,25,7,1,2,2,-1,-1
1523055495467343,0,-8,-3,-2,-1,-3,-2,-2
1523055495467343,0,5,-3,-7,-1,-1,-1,-1
1523055495476367,-3,9,6,7,3,-1,-2,-3
1523055495476367,9,-24,-6,-4,-4,0,0,4
1523055495515973,2,17,0,-5,1,-1,1,-1
1523055495515973,-5,-27,-3,2,3,2,-1,-3
1523055495517477,2,16,-2,-6,-1,1,3,0
1523055495517477,2,-1,0,-3,-3,-3,0,-3
1523055495521991,-5,1,0,1,2,2,0,1
1523055495521991,-6,-4,-6,0,-1,0,0,-2
1523055495523492,-3,-9,-1,-1,0,1,-1,-2
1523055495523492,-3,-5,2,2,7,1,-3,0
1523055495524496,3,6,-1,-3,-3,-2,-2,-1
1523055495524496,-2,-1,3,0,-2,-2,0,-3
1523055495528009,-4,-11,-5,-1,-1,0,-1,-3
1523055495528009,-3,-12,-3,0,0,-2,-2,-3
1523055495542597,-4,6,-2,-4,-3,-2,-4,-2
1523055495542597,4,12,1,2,-4,-2,-2,0
1523055495550567,1,1,5,1,-1,-2,-1,-1
1523055495550567,-6,2,-3,-4,-1,-2,0,-1
1523055495566106,-6,-28,-11,-3,0,0,-1,-7
1523055495566106,-1,1,0,0,-6,-3,-5,1
1523055495567109,3,5,-1,-2,-1,-3,-1,0
1523055495567109,2,14,2,0,-2,-1,-1,2
1523055495579642,-1,0,-1,-1,-2,-1,0,-1
1523055495579642,-4,-15,0,1,2,-1,0,-2
1523055495588164,-3,16,-1,-4,1,2,2,-3
1523055495588164,-7,-38,-10,-2,-2,2,-1,-11
1523055495602704,4,5,3,-5,-6,-7,-8,3
1523055495602704,0,-2,-1,0,-1,-4,2,8
1523055495610725,5,5,-1,0,3,2,1,2
1523055495610725,-12,0,-2,0,-1,-1,-1,-4
1523055495626265,1,9,3,-1,3,3,2,-5
1523055495626265,-2,-13,-3,-1,-3,-2,-5,-5
1523055495627298,-9,-19,-5,-1,-1,-4,-1,-6
1523055495627298,3,-2,-2,-1,-1,0,2,3
1523055495639857,-1,-4,4,2,-1,0,3,1
1523055495639857,2,19,3,3,2,2,0,1
1523055495648326,-1,-6,-4,-3,-4,-3,-2,-2
1523055495648326,0,2,-2,0,0,-1,-6,-5
1523055495662365,-1,7,1,-1,-1,-2,4,2
1523055495662365,5,8,-3,-2,-1,3,1,7
1523055495670884,1,-6,-1,2,0,-2,0,3
1523055495670884,0,5,0,-2,-4,-2,-2,0
1523055495686427,1,7,-4,1,0,0,3,1
1523055495686427,-4,-17,-4,0,3,5,3,-7
1523055495686928,-1,4,0,-1,-1,1,-1,-2
1523055495686928,-1,4,2,1,3,0,1,6
1523055495699963,6,3,0,-4,-3,-3,-3,-4
1523055495699963,-8,17,6,-2,2,-3,-4,-4
1523055495707983,4,-4,-2,1,-4,-2,-2,2
1523055495707983,4,-5,-4,-7,-4,-1,3,1
1523055495722576,-7,-3,10,2,8,0,-3,-4
1523055495722576,0,-16,-6,1,-1,-1,-1,0
1523055495730544,5,21,-2,-6,-9,-3,2,0
1523055495730544,-3,-3,4,-5,3,1,-2,-1
1523055495746085,3,-18,-5,-3,6,2,0,-1
1523055495746085,1,10,-1,-8,-8,-5,-3,0
1523055495747088,-4,0,-3,2,-3,0,1,-3
1523055495747088,3,8,-6,-4,-7,-5,-2,-3
1523055495760121,0,-10,1,7,4,0,1,3
1523055495760121,2,-1,-3,-3,0,2,0,1
1523055495768144,-37,-45,-7,-3,-2,0,1,-4
1523055495768144,2,-3,5,-5,3,1,-2,-2
1523055495782181,3,16,4,4,1,0,-2,4
1523055495782181,0,3,-2,7,2,2,3,-4
1523055495790739,2,-4,0,-6,-3,-3,-2,2
1523055495790739,13,35,4,1,3,1,-1,-3
1523055495806244,-9,1,2,4,-3,2,2,0
1523055495806244,4,-7,-3,-1,-2,-2,1,3
1523055495807247,-1,9,1,-4,0,-2,-2,0
1523055495807247,0,-31,-9,2,0,-1,1,0
1523055495819780,3,7,-3,-3,-8,-3,-2,-1
1523055495819780,-3,12,6,-5,0,-2,0,-2
1523055495828303,14,19,10,4,4,1,-2,-1
1523055495828303,2,13,-5,2,2,-2,0,-2
1523055495842340,-33,-22,-9,-5,-6,-2,0,-3
1523055495842340,1,-6,2,0,-2,-3,-1,-3
1523055495850865,2,2,3,-4,6,0,-1,-2
1523055495850865,-2,8,3,-3,-2,-1,0,2
1523055495864902,6,-15,-3,-2,0,-1,-1,0
1523055495864902,-1,15,1,0,0,-2,0,0
1523055495873959,3,0,-2,-3,-3,1,-3,-3
1523055495873959,-2,-3,-1,0,-1,1,-1,1
1523055495879941,2,-12,-3,-4,-2,-3,-2,-3
1523055495879941,-5,0,2,12,0,1,-4,-3
1523055495888966,10,8,-2,-4,4,2,1,2
1523055495888966,-8,-23,-6,2,-6,-6,-2,0
1523055495902502,6,18,1,-5,1,0,1,-1
1523055495902502,-5,-16,-3,-2,-4,-2,0,-3
1523055495911527,-2,-7,-3,8,2,-1,-2,-1
1523055495911527,0,10,9,1,5,1,0,2
1523055495925061,1,5,-1,0,-2,0,2,-2
1523055495925061,-2,3,-3,-3,0,0,-1,-3
1523055495934119,23,-15,-4,-1,-1,0,-1,2
1523055495934119,-8,1,-2,-9,-4,-2,0,0
1523055495940102,3,5,-2,11,3,0,0,0
1523055495940102,1,1,3,-3,-1,0,-1,1
1523055495949126,-5,-18,-1,1,-4,-2,-1,-2
1523055495949126,-1,6,0,-1,-2,0,1,-1
1523055495971220,2,-13,-2,-4,-4,-3,-2,-1
1523055495971220,4,15,4,-1,2,0,0,-3
1523055495972688,-8,3,-1,-4,-2,-4,-2,-1
1523055495972688,-3,-38,-14,1,-2,-1,-1,-2
1523055495993781,-4,7,2,-4,-6,-4,-2,-3
1523055495993781,-5,-14,-3,0,5,2,-1,-1
1523055495995250,-2,8,0,-1,-6,-5,-1,-1
1523055495995250,7,11,7,0,-2,0,1,1
1523055496007315,-5,-2,-3,-8,1,1,0,-1
1523055496007315,-1,-6,-7,-4,-6,-3,0,-2
1523055496016304,-6,-3,0,1,2,3,-1,-3
1523055496016304,5,19,5,3,0,-2,0,0
1523055496031399,4,11,-1,0,-2,-1,0,2
1523055496031399,-4,-14,-3,-1,-1,-2,-1,2
1523055496032850,-9,-11,-5,-2,-4,-5,-1,-2
1523055496032850,1,-9,1,2,-2,-1,1,-2
1523055496053959,-7,-3,-1,-4,-2,-1,-2,-1
1523055496053959,5,10,-2,-1,1,1,-1,-2
1523055496055462,-6,8,-3,-4,-1,-3,-3,-4
1523055496055462,-5,-19,-2,2,2,1,1,0
1523055496067439,0,1,1,0,-2,-2,-2,-1
1523055496067439,1,-15,-5,-3,-2,-1,2,4
1523055496076465,-2,6,0,1,0,-1,0,-2
1523055496076465,-3,5,0,-1,-2,-1,0,-1
1523055496091503,1,-2,-6,-2,-1,-1,-2,-5
1523055496091503,4,-8,-7,-5,-5,-4,-2,3
1523055496093008,6,7,2,0,0,0,3,0
1523055496093008,-11,-7,-1,3,1,-2,-2,-4
1523055496113562,-3,-12,-4,-4,-4,-3,2,-1
1523055496113562,2,17,4,-1,-1,-1,-3,-2
1523055496115570,-6,-13,-1,-1,-2,-2,-2,2
1523055496115570,3,13,-2,-2,-1,0,2,-1
1523055496127599,11,-4,0,1,2,-1,-3,3
1523055496127599,-11,-3,-3,0,-3,-2,-4,-6
1523055496136658,10,10,2,0,2,-4,-5,-4
1523055496136658,1,9,2,-2,-2,-4,-2,-2
1523055496151200,-1,-4,-1,-2,-2,1,1,3
1523055496151200,-10,-5,1,0,1,1,-2,2
1523055496152666,5,-27,-9,0,2,3,2,0
1523055496152666,0,1,-2,-1,-2,-1,-2,-3
1523055496173722,-2,-3,0,-1,0,1,1,1
1523055496173722,7,14,4,1,0,-2,-2,-2
1523055496175226,-4,1,-2,-2,1,-3,-1,-2
1523055496175226,-5,-12,-8,-4,-4,-2,-4,-3
1523055496187258,-10,-15,-3,-2,-1,-2,-1,-3
1523055496187258,23,19,3,1,-1,1,0,-5
1523055496196283,-6,1,-3,-6,-6,-1,2,1
1523055496196283,4,9,4,-20,5,1,-2,2
1523055496211325,-20,-5,3,38,0,-2,-5,-3
1523055496211325,-3,-4,-7,4,1,0,2,0
1523055496212829,-3,1,3,-11,6,2,-3,0
1523055496212829,-2,-9,2,4,-12,-3,-3,-4
1523055496233884,6,15,-2,-23,3,-2,0,-4
1523055496233884,47,25,-10,-16,-19,-5,1,8
1523055496235424,-64,-31,-1,23,11,1,-1,-12
1523055496235424,-9,-18,3,-6,12,2,1,3
1523055496256497,8,5,-2,2,-4,3,1,-4
1523055496256497,-16,18,6,1,-7,-5,-6,-7
1523055496258001,17,-21,-11,-19,-9,-3,2,7
1523055496258001,6,17,2,-2,0,-4,-2,0
1523055496271530,-6,-32,-5,4,1,-1,-3,-2
1523055496271530,-4,-15,-1,-4,4,1,3,7
1523055496272989,12,32,6,5,-4,-1,-3,2
1523055496272989,-9,-10,-3,11,1,-1,0,1
1523055496293541,21,8,-1,-9,-2,-3,-1,0
1523055496293541,-20,4,-4,2,0,-1,-1,-5
1523055496295547,12,-29,-6,0,-1,-3,-3,-4
1523055496295547,1,9,1,4,-2,0,-1,0
1523055496316155,4,29,3,-5,1,-1,1,1
1523055496316155,-12,-50,-5,0,1,1,-1,-3
1523055496318153,7,41,6,4,2,0,-1,1
1523055496318153,8,-4,-8,-5,-5,-2,-3,1
1523055496331198,-11,-36,-3,0,-1,-2,-2,-3
1523055496331198,-6,4,3,2,5,0,-1,-4
1523055496333149,3,1,-1,-2,-5,-4,-2,1
1523055496333149,-1,2,-5,3,-3,1,1,0
1523055496353703,-4,4,-2,0,0,-2,0,0
1523055496353703,-5,-5,2,-1,2,-1,-1,-1
1523055496355207,-2,-10,1,-4,0,0,0,1
1523055496355207,-2,10,-1,2,0,0,0,0
1523055496376261,9,5,1,0,-3,3,1,0
1523055496376261,3,0,-3,0,1,-2,0,0
1523055496377765,-5,-3,-2,-2,-2,2,1,1
1523055496377765,15,15,2,1,-2,1,1,0
1523055496390800,-8,-15,-4,-1,2,0,-2,-2
1523055496390800,0,8,5,0,-2,-1,0,-1
1523055496397371,0,3,1,-2,3,2,0,-3
1523055496397371,-5,-14,-3,1,-1,-2,-2,-4
1523055496413917,4,32,-2,-9,-6,-3,-1,1
1523055496413917,-9,-16,-1,-4,2,0,1,-3
1523055496415367,-6,-12,0,1,0,-4,-2,-3
1523055496415367,-1,6,-1,-3,1,6,3,2
1523055496436421,-9,-29,-8,-11,-7,-3,-3,-2
1523055496436421,-7,13,6,17,9,2,1,-1
1523055496437925,23,17,0,-2,-7,-3,-2,1
1523055496437925,0,1,-4,-2,-4,-3,-2,0
1523055496450515,-3,3,4,0,-3,-2,0,-1
1523055496450515,-4,-18,-4,0,-3,-2,-1,-1
1523055496457479,8,15,1,-8,-1,-1,-1,-1
1523055496457479,4,22,2,0,-4,-3,-3,-4
1523055496474021,-9,-16,-3,1,-3,-1,0,-3
1523055496474021,5,0,0,-5,-3,-1,-1,0
1523055496475527,-10,0,1,4,4,2,-2,-3
1523055496475527,-6,-8,2,1,-3,-1,-1,0
