timestamp,emg1,emg2,emg3,emg4,emg5,emg6,emg7,emg8
1523182612833133,-39,2,-5,-5,1,4,14,-10
1523182612833133,-12,7,20,47,7,-2,0,-11
1523182612834135,0,-14,-16,-54,-6,-3,-4,-24
1523182612834135,22,5,3,-18,1,0,-4,50
1523182612855211,-51,-8,0,-8,2,0,-6,-56
1523182612855211,15,8,6,25,-2,2,4,11
1523182612856214,41,2,-6,23,-3,-3,3,38
1523182612856214,-14,-10,-2,-15,3,0,-2,-27
1523182612869249,14,6,3,-7,-7,-2,-2,11
1523182612869249,-15,22,2,29,4,1,-1,-37
1523182612870251,-13,-30,-8,-20,0,3,0,32
1523182612870251,-6,3,-18,-39,-5,-3,2,23
1523182612892309,52,-1,9,33,-2,-5,-10,-15
1523182612892309,-18,-5,-1,-21,0,-2,9,-14
1523182612893312,-27,7,7,31,3,4,-6,24
1523182612893312,-27,-5,-17,-33,-4,1,18,-41
1523182612915372,0,-4,-26,-58,-10,-5,-24,-28
1523182612915372,30,12,23,0,6,0,24,10
1523182612916377,-49,-3,-26,-38,-9,-6,-10,-7
1523182612916377,-12,-11,10,67,1,-3,-7,-6
1523182612929410,-5,13,9,35,3,2,12,19
1523182612929410,27,2,-5,-52,-3,-2,-7,-29
1523182612930412,9,4,15,21,6,2,4,3
1523182612930412,-30,-29,8,72,7,3,9,11
1523182612952980,-12,-32,-10,-111,-6,-1,-16,-10
1523182612952980,-41,-6,-8,-78,-8,-3,-9,26
1523182612952980,15,12,17,32,6,3,22,-71
1523182612952980,11,24,31,16,9,1,-24,55
1523182612976292,32,0,-5,4,-1,-1,11,14
1523182612976292,29,-6,-13,84,-8,-7,-11,12
1523182612977294,-17,-2,19,24,11,4,3,21
1523182612977294,-58,-1,-37,-49,-29,-7,6,-37
1523182612989326,6,17,27,109,19,6,9,-22
1523182612989326,-54,1,-10,-60,-11,-4,-22,-1
1523182612990328,-53,-5,-8,3,-10,-6,-12,-51
1523182612990328,63,12,19,39,17,1,-4,18
1523182613012386,-28,-3,5,-11,-5,-2,11,30
1523182613012386,-21,-53,-6,-1,-3,1,3,-22
1523182613013389,32,-6,4,59,4,-2,-6,43
1523182613013389,-34,-12,22,-7,10,7,11,38
1523182613035453,35,42,-44,-74,-24,-9,5,-16
1523182613035453,7,15,-6,21,9,7,6,-2
1523182613036460,2,-2,-2,-22,-10,-4,-2,-26
1523182613036460,-29,-4,-7,4,2,1,9,-33
1523182613050005,35,11,38,107,15,2,-13,-13
1523182613050005,0,6,-1,-22,-7,-4,-4,-11
1523182613050503,63,9,-5,-1,-5,-3,9,6
1523182613050503,-38,11,-11,-11,-5,-3,-10,-48
1523182613072568,20,9,37,121,20,3,11,23
1523182613072568,-8,-1,-55,-81,-22,-7,-11,3
1523182613073570,2,-12,-1,22,-5,-2,13,73
1523182613073570,60,17,-1,0,-4,0,-2,-3
1523182613095632,-53,-41,24,-6,1,-4,-9,-5
1523182613095632,10,-9,20,14,7,1,11,13
1523182613096631,-81,-1,-12,-31,-6,-4,-11,-34
1523182613096631,17,-1,-2,-19,-1,2,1,28
1523182613109666,33,-17,-12,-8,2,-3,-2,-15
1523182613109666,-13,11,-2,-24,-11,1,8,57
1523182613110669,70,23,17,-7,12,8,25,0
1523182613110669,-51,-25,-29,33,-10,-9,-38,-60
1523182613132736,-4,-13,-26,-61,-22,-5,-8,25
1523182613132736,17,2,10,29,9,3,6,12
1523182613133730,14,-1,-4,33,3,-7,-19,-45
1523182613133730,35,-1,0,30,6,-1,4,67
1523182613155337,-52,-7,-8,-21,-3,-6,-8,-49
1523182613155337,16,3,0,-8,-15,-4,-2,64
1523182613156338,-30,-15,-1,-22,-5,1,-9,35
1523182613156338,-23,6,-17,-10,3,4,8,-20
1523182613169373,1,16,31,39,12,5,0,22
1523182613169373,-61,-17,24,59,11,5,-3,-75
1523182613170376,-13,-5,-28,-16,-15,-6,-7,-62
1523182613170376,-39,-32,12,-21,-8,-5,24,21
1523182613193478,4,-6,-5,-13,18,8,-5,37
1523182613193478,30,-7,2,30,0,-8,-18,-71
1523182613193478,-12,5,14,16,6,1,-9,-54
1523182613193478,6,-10,-14,-41,-21,-8,-2,31
1523182613214728,33,-14,15,14,8,7,23,30
1523182613214728,8,-10,10,-24,-4,0,-1,-6
1523182613222517,-14,-13,-8,-1,-8,-7,-21,-8
1523182613222517,40,15,4,-25,6,3,6,26
1523182613229610,-10,-3,-35,-4,-7,0,0,-20
1523182613229610,-2,3,8,47,5,-5,-17,5
1523182613237594,7,-6,13,-42,3,4,17,19
1523182613237594,-4,25,-9,13,-6,-4,-12,22
1523182613253140,-27,-9,-29,-86,-17,-10,-11,-33
1523182613253140,-16,39,4,12,7,3,18,-5
1523182613253140,-57,9,2,37,6,3,15,11
1523182613253140,19,2,11,47,4,-4,-5,16
1523182613275203,37,4,-14,-77,-15,-2,0,8
1523182613275203,-6,29,-3,-9,-2,1,-8,34
1523182613276205,-11,-17,20,11,1,6,18,-9
1523182613276205,20,-4,15,29,6,0,-15,-39
1523182613289278,-21,7,-14,3,-4,-4,11,17
1523182613289278,38,-11,-12,-20,-6,-3,-5,41
1523182613297263,23,19,-23,-2,0,-5,-27,-8
1523182613297263,-4,7,6,-35,-2,-5,1,-5
1523182613313348,-24,7,6,42,1,4,-3,0
1523182613313348,30,-19,0,-1,4,4,20,9
1523182613313348,-50,7,-4,14,-1,0,-7,12
1523182613313348,-23,8,-21,-11,-7,-3,-5,5
1523182613335362,30,-11,7,53,-8,-8,-7,26
1523182613335362,-36,-8,-7,2,6,-3,-9,-52
1523182613336368,-12,5,5,-31,-11,3,-13,6
1523182613336368,50,-4,-5,1,-4,-5,-5,-8
1523182613349410,-44,8,5,-26,4,4,15,24
1523182613349410,6,-5,3,9,11,1,0,-15
1523182613357434,25,10,5,34,-5,-10,-1,20
1523182613357434,-20,-19,0,-2,3,11,13,29
1523182613372475,16,-20,-23,-12,-17,-8,-13,-5
1523182613372475,74,0,0,26,3,-5,-8,-50
1523182613373477,114,2,-13,-28,4,3,7,68
1523182613373477,12,1,35,60,4,-1,-3,-61
1523182613395537,17,-4,22,22,-4,-1,9,11
1523182613395537,-110,-14,-23,-5,-11,-5,-9,-4
1523182613396539,-3,-24,36,15,-2,-4,-5,-49
1523182613396539,15,-27,-16,-9,4,-1,-4,16
1523182613408571,58,12,16,17,7,2,-15,-26
1523182613408571,7,14,-6,-2,-7,-2,2,9
1523182613417594,-20,-23,4,42,10,1,-2,-2
1523182613417594,36,-2,-9,1,-9,-1,-4,17
1523182613431632,4,5,4,12,1,-2,-10,-33
1523182613431632,23,-23,-14,-9,-2,-1,14,29
1523182613432635,-11,-4,-1,20,6,5,9,48
1523182613432635,-33,18,-5,-30,-1,-3,-21,-91
1523182613455327,-3,5,-20,-2,-13,-7,13,29
1523182613455327,-29,5,-9,-36,-2,1,-6,-4
1523182613456332,-30,-2,-2,-39,0,2,2,3
1523182613456332,-1,0,-2,-30,0,0,6,-37
1523182613469366,-80,7,-21,-19,-7,-5,-4,-3
1523182613469366,-28,-4,27,98,20,2,-1,8
1523182613477623,20,-9,-34,-94,-20,-5,1,14
1523182613477623,28,-4,19,39,1,-1,6,3
1523182613492429,25,1,-1,21,7,-1,-4,-17
1523182613492429,5,-1,-3,-27,-4,-4,-10,-23
1523182613492429,4,-4,12,46,6,0,-16,8
1523182613492429,-71,-2,-16,-52,-5,1,6,-81
1523182613515490,8,-15,0,-17,5,4,20,61
1523182613515490,4,-2,18,14,-5,-5,0,6
1523182613516494,-8,4,-1,56,1,0,1,-11
1523182613516494,-29,-18,-14,-72,-6,2,5,-7
1523182613529587,-18,-4,28,41,12,4,-6,-26
1523182613529587,-7,0,-6,-19,-8,-8,-4,-4
1523182613537547,-32,8,-12,-6,1,-2,11,-10
1523182613537547,-2,-1,14,50,10,1,-3,73
1523182613552091,-9,-2,0,1,-8,-5,-5,-13
1523182613552091,103,-17,-16,-23,-21,-8,-10,-36
1523182613553096,-9,18,-12,-23,10,5,-6,-34
1523182613553096,-4,24,3,17,-3,-2,1,-14
1523182613575896,-18,7,-5,18,3,-5,-34,44
1523182613575896,-2,-31,24,-16,0,7,3,44
1523182613576662,-61,15,-12,1,-3,-4,-2,-9
1523182613576662,41,-4,19,15,3,-2,1,-6
1523182613597720,-6,26,-14,-21,-11,0,3,2
1523182613597720,-24,24,-8,-4,-2,1,-1,-64
1523182613598727,43,-7,-2,-18,2,6,10,20
1523182613598727,-45,-3,7,11,2,-7,-34,33
1523182613611757,3,-7,-14,-95,-12,-5,-2,-42
1523182613611757,16,2,-2,6,-2,-2,-1,-17
1523182613612804,39,-6,2,10,-4,-3,2,-6
1523182613612804,9,16,-7,14,1,-4,2,-1
1523182613635824,-30,-23,8,28,13,9,10,34
1523182613635824,10,27,-1,12,3,3,-10,-71
1523182613635824,70,-1,-8,-27,-7,-9,-10,46
1523182613635824,28,-7,-9,0,-5,1,15,4
1523182613657891,-35,-15,13,72,17,7,0,-52
1523182613657891,-63,3,6,-82,1,5,6,35
1523182613658894,4,-7,-1,17,-14,-7,-7,-1
1523182613658894,44,2,-18,-11,-8,-7,4,15
1523182613671935,15,-2,20,51,1,-1,-6,-124
1523182613671935,-8,-26,-5,28,10,3,4,32
1523182613672931,-71,-10,-19,-52,-7,-7,-6,30
1523182613672931,-20,-9,2,-6,-8,3,11,42
1523182613695030,36,-9,6,11,-2,-1,8,11
1523182613695030,-8,-1,7,33,0,-8,3,8
1523182613695992,28,1,4,-22,14,31,13,-4
1523182613695992,-31,-2,-3,31,3,10,14,30
1523182613718050,8,11,11,-12,1,-9,-11,9
1523182613718050,27,11,11,15,-13,-13,-3,36
1523182613719053,70,-12,-10,2,5,12,6,28
1523182613719053,1,14,-6,-2,6,0,-6,-1
1523182613732092,6,-17,-11,-40,-17,-9,-16,2
1523182613732092,55,-4,-12,32,1,-5,-4,6
1523182613733098,26,18,18,-15,-8,-14,10,20
1523182613733098,28,7,-3,-14,-9,-4,-25,21
1523182613754675,21,-42,4,-14,-3,-4,6,6
1523182613754675,-25,-4,-10,-1,2,6,-1,-21
1523182613761934,33,-3,17,20,10,4,-7,14
1523182613761934,-1,-19,-18,25,10,-3,-1,-9
1523182613777972,-31,6,-15,-6,-13,-13,18,-24
1523182613777972,19,27,-17,-25,-10,2,-37,-12
1523182613778740,-29,7,18,-4,2,-7,8,-35
1523182613778740,-42,1,12,-6,-12,-7,-8,-18
1523182613791774,-5,13,2,26,-5,2,-5,-4
1523182613791774,4,17,-18,-48,1,17,40,67
1523182613792779,-42,-23,-13,43,-1,-12,-20,-73
1523182613792779,32,9,0,-54,-1,-5,-3,-4
1523182613815841,-31,9,-16,-4,-2,0,10,59
1523182613815841,-36,-5,0,39,16,2,-1,-23
1523182613816840,51,-12,-6,-22,-20,-14,-10,-37
1523182613816840,-22,11,2,5,-1,1,4,56
1523182613837897,-38,-3,-7,-10,1,-4,-12,-65
1523182613837897,12,2,-13,38,0,8,9,37
1523182613838906,-71,1,10,46,2,-7,-9,-79
1523182613838906,-21,-4,11,37,6,8,-1,-9
1523182613851939,29,27,-14,-28,6,0,-8,-19
1523182613851939,7,4,-2,4,-15,-1,23,43
1523182613867488,-22,-10,-7,-3,-11,-8,-5,-14
1523182613867488,-15,-12,17,42,14,-1,-5,-114
1523182613875510,35,12,-30,-65,15,16,20,77
1523182613875510,-14,-6,23,29,4,-6,-4,-39
1523182613876518,-41,-10,-31,-86,-13,1,17,72
1523182613876518,49,12,3,-14,0,1,14,39
1523182613897568,-34,0,19,48,3,2,-1,-1
1523182613897568,-15,-3,-15,-23,12,1,-13,-81
1523182613899573,-9,10,17,22,10,5,5,-6
1523182613899573,-44,-11,-35,-20,-17,2,3,-6
1523182613911605,39,-16,10,37,19,6,-3,16
1523182613911605,-43,-15,-3,-97,-14,-5,-8,-16
1523182613920628,-20,16,4,9,-8,-10,-31,3
1523182613920628,13,-10,-9,2,0,-6,16,17
1523182613935670,-7,16,3,28,-1,-2,-9,15
1523182613935670,61,14,11,21,3,-6,-1,5
1523182613936672,29,-21,3,16,7,11,8,79
1523182613936672,46,7,-29,-57,-7,-3,-12,-32
1523182613957740,-47,-25,27,2,-11,-9,-22,-47
1523182613957740,-21,2,-10,19,3,-7,6,101
1523182613959746,-37,22,0,-11,-4,-1,17,-27
1523182613959746,19,7,5,21,-3,2,-10,40
1523182613971778,88,-2,-12,25,3,3,7,6
1523182613971778,0,-10,-14,-24,-8,-11,1,-37
1523182613980801,3,-1,-5,-29,-15,-2,-7,-3
1523182613980801,-37,-11,34,17,13,3,2,-6
1523182613994839,1,3,-2,-1,-4,-6,-6,-21
1523182613994839,-29,2,19,21,-2,11,10,56
1523182613996844,-28,4,0,26,14,5,-21,-73
1523182613996844,-17,-31,-4,3,-9,-5,10,-3
1523182614017901,-26,19,-16,-35,-11,-5,3,-10
1523182614017901,-34,-29,17,21,8,3,-13,27
1523182614018904,40,6,-16,7,0,2,-4,-59
1523182614018904,-16,2,15,19,5,-3,11,44
1523182614031943,32,-3,-19,-28,-12,-5,5,18
1523182614031943,-5,-6,-10,-29,1,-2,13,2
1523182614040468,-8,3,-3,-2,-10,2,-14,-12
1523182614040468,13,-8,1,25,7,-2,-25,-12
1523182614055538,-10,-1,0,-27,-6,-2,-19,-45
1523182614055538,15,-24,17,3,-12,-5,1,-28
1523182614056540,-24,-7,-16,-9,2,-5,-3,19
1523182614056540,13,-1,15,10,-8,-6,2,-26
1523182614077598,-28,-9,10,1,9,10,3,-9
1523182614077598,-12,19,16,68,8,3,-13,-19
1523182614079607,17,10,-12,-60,-1,1,10,50
1523182614079607,-20,-17,-10,-26,-7,-5,-23,-52
1523182614091641,-1,5,-7,14,-7,-6,10,46
1523182614091641,-30,-20,11,-8,7,9,3,-17
1523182614100658,15,-2,-6,21,5,2,10,-14
1523182614100658,74,28,-1,13,1,-4,3,64
1523182614115708,5,-8,-19,-72,-14,-8,1,-3
1523182614115708,13,4,1,17,1,-6,-14,-51
1523182614116702,-17,2,4,-1,-7,-5,6,35
1523182614116702,65,1,2,0,19,15,13,52
1523182614137756,8,6,-15,25,-2,-2,-2,20
1523182614137756,28,17,0,-14,-22,-8,2,-4
1523182614139766,-41,-12,1,11,16,-4,-20,-5
1523182614139766,-30,-31,-6,-5,-7,0,-7,-38
1523182614151797,0,2,0,-28,4,1,16,64
1523182614151797,8,1,-10,-9,-3,-3,-9,11
1523182614160077,11,22,10,18,4,6,20,7
1523182614160077,11,-15,7,5,-5,-1,-1,-23
1523182614175350,-15,6,8,-3,5,1,-2,-33
1523182614175350,-7,-1,7,-13,-4,-3,5,-17
1523182614177118,8,4,4,13,-1,-8,9,66
1523182614177118,-16,39,1,-16,-14,-5,0,-38
1523182614198178,-42,-51,14,14,15,12,3,-1
1523182614198178,38,28,-20,-13,2,-2,4,17
1523182614199183,15,-15,25,7,-5,-3,3,-10
1523182614199183,-117,17,-10,-23,-1,1,2,-39
1523182614211211,33,41,-6,18,-1,-2,-16,-6
1523182614211211,5,-3,-1,-3,3,-4,11,33
1523182614220233,33,-24,-8,17,-1,-2,-10,-18
1523182614220233,-61,-27,-18,-13,0,2,14,18
1523182614235275,-2,-18,-8,1,-9,-8,-15,-33
1523182614235275,-18,5,-5,-5,-1,-6,-13,-23
1523182614237279,-32,6,-4,7,1,2,2,-5
1523182614237279,67,-19,4,-6,5,4,-4,25
1523182614257383,33,14,-12,-7,-6,-4,11,3
1523182614257383,67,1,25,7,11,11,-2,-6
1523182614259350,2,-4,-5,-1,-20,-11,3,34
1523182614259350,2,6,-10,0,18,-2,-5,-19
1523182614271383,-6,18,12,1,4,8,9,7
1523182614271383,-13,-2,12,-12,-11,-9,-12,-5
1523182614280404,24,9,3,21,-17,-8,0,-25
1523182614280404,94,20,-8,-9,8,20,20,17
1523182614295445,-79,-14,8,10,2,0,4,-60
1523182614295445,-40,-24,-29,-13,-6,-6,-11,-11
1523182614297454,-10,-3,-3,-10,10,10,1,-1
1523182614297454,-23,6,-1,-17,-13,-20,-9,-24
1523182614317507,-20,1,-7,13,-23,-15,11,17
1523182614317507,55,-7,27,30,26,39,8,-22
1523182614319509,-59,21,-11,-5,6,0,2,-5
1523182614319509,-16,2,-8,-30,-8,-13,-12,28
1523182614331549,19,29,-12,16,4,5,4,59
1523182614331549,20,-2,-27,-16,-17,-20,-1,15
1523182614340609,19,-7,3,6,5,4,-8,-18
1523182614340609,67,-11,26,25,3,2,0,34
1523182614355647,10,-20,-11,-18,7,4,-9,-4
1523182614355647,-41,14,-6,5,-30,-18,6,39
1523182614356654,13,11,3,9,23,20,9,9
1523182614356654,13,-5,-25,-18,-14,-8,4,-20
1523182614377711,61,-13,4,1,6,0,-29,28
1523182614377711,25,-13,12,11,2,2,10,-3
1523182614379717,-28,-19,7,-15,-10,-19,-16,-29
1523182614379717,-36,12,5,4,-11,-7,11,19
1523182614391748,-38,-8,13,11,5,21,7,-35
1523182614391748,34,37,0,-1,32,21,8,24
1523182614406788,70,5,-13,-7,-19,-22,-18,52
1523182614406788,-95,-25,19,14,7,4,-9,-27
1523182614414809,-34,17,9,9,-2,-11,4,-5
1523182614414809,2,-7,-9,-25,-7,-8,-9,4
1523182614416814,1,27,15,11,-5,3,11,-10
1523182614416814,-34,-10,-26,-60,-10,5,-2,-11
1523182614437873,54,-15,-11,6,2,-11,-6,-16
1523182614437873,-57,-28,-1,-15,-1,1,-10,-44
1523182614439877,-11,-1,0,2,-4,2,2,13
1523182614439877,19,-31,-3,11,5,-3,10,29
1523182614451411,-16,0,-2,24,-10,-13,-18,-28
1523182614451411,24,-4,-22,-20,-24,-10,14,29
1523182614460942,-94,-18,-17,-38,24,19,-12,-37
1523182614460942,-51,35,9,53,3,-4,-6,-18
1523182614475215,-6,-34,-3,-52,-19,4,13,23
1523182614475215,-11,71,-25,22,14,-3,-16,15
1523182614476985,6,-32,21,5,-16,-7,12,30
1523182614476985,34,-4,34,85,6,3,-11,-62
1523182614498044,-6,-3,-8,14,-3,-12,-13,14
1523182614498044,-22,-19,13,14,-7,0,1,-18
1523182614499047,58,-27,-14,19,-1,4,2,12
1523182614499047,36,33,15,39,12,1,-2,-9
1523182614520100,12,21,-14,-5,18,12,0,-22
1523182614520100,29,8,11,-44,-31,-16,-11,42
1523182614522105,69,-4,13,32,18,2,3,-16
1523182614522105,-6,-15,-17,-51,-17,-11,-17,-16
1523182614535140,-49,-9,-12,-13,-14,-7,8,15
1523182614535140,-35,-18,7,13,18,11,10,-60
1523182614537144,13,19,1,-9,-8,-18,-7,14
1523182614537144,9,26,-14,-6,2,27,-6,-6
1523182614557735,-47,-12,-10,13,17,10,6,-5
1523182614557735,-89,-22,-25,-32,-1,-2,-3,-53
1523182614559742,17,7,-3,-9,-1,-5,8,-11
1523182614559742,-59,-20,9,-20,-1,-10,2,35
1523182614580800,-9,23,32,55,0,-5,-1,-14
1523182614580800,-31,15,1,-22,-14,12,0,-12
1523182614581805,-33,-12,-25,-12,8,-1,-8,-40
1523182614581805,-34,-7,-41,-39,-14,-7,1,14
1523182614594835,91,0,24,4,6,-6,-5,2
1523182614594835,9,-20,-8,20,5,-2,-17,33
1523182614596840,-40,14,-17,-38,-7,0,2,16
1523182614596840,38,10,-14,44,6,-7,-7,-24
1523182614617896,53,2,-11,-35,-9,-2,7,13
1523182614617896,14,-22,6,37,1,-10,4,22
1523182614619902,41,-8,-23,-15,-9,12,11,4
1523182614619902,-1,-11,15,29,24,12,8,-2
1523182614640463,-77,19,-5,-52,-19,-16,-14,-29
1523182614640463,23,0,9,3,-3,-11,8,5
1523182614641965,-6,14,12,52,-12,-1,-3,8
1523182614641965,9,-23,-21,-52,9,7,-26,-9
1523182614655503,-6,-10,14,-2,-13,-8,11,26
1523182614655503,-34,11,27,23,1,4,-19,-9
1523182614657067,28,-18,22,45,11,-12,-2,-31
1523182614657067,-49,0,-44,-69,-24,18,12,-38
1523182614677354,-21,-12,14,16,8,-1,-17,21
1523182614677354,37,14,11,34,13,-10,7,64
1523182614685141,-15,24,-1,-1,-15,-27,-12,-21
1523182614685141,-19,-2,38,47,-16,18,27,55
1523182614700180,-12,-5,-14,2,52,50,-6,-21
1523182614700180,-51,-36,-4,-87,-27,-17,-3,-15
1523182614702186,-18,-25,14,56,16,-3,1,37
1523182614702186,-13,-13,-9,-3,-53,-45,-1,-41
1523182614714220,30,-13,-2,34,-3,8,-7,-2
1523182614714220,6,25,-6,25,10,2,1,-5
1523182614721239,-36,-9,5,9,20,5,0,-12
1523182614721239,14,21,14,-28,-3,3,19,32
1523182614737281,7,12,-10,7,1,-2,1,-44
1523182614737281,15,-26,10,54,17,18,2,0
1523182614739284,-27,-4,-24,-92,-35,-19,-16,-39
1523182614739284,29,-8,10,3,-2,-6,1,-18
1523182614760587,33,25,16,-27,0,4,17,70
1523182614760587,0,-29,-16,-50,3,-11,-13,-32
1523182614762359,-19,41,-20,39,-19,-6,6,-1
1523182614762359,-75,33,2,-70,1,13,24,-11
1523182614774625,45,-26,46,33,23,10,-17,41
1523182614774625,-23,20,1,9,0,-4,-11,-10
1523182614781413,-25,-24,18,12,5,2,-3,2
1523182614781413,3,-6,12,52,16,-7,-9,-4
1523182614797459,0,12,-6,-23,-22,-3,17,-7
1523182614797459,42,-6,-51,5,9,22,19,13
1523182614799462,-9,3,10,-21,3,8,-3,-17
1523182614799462,50,20,6,55,23,-16,-17,5
1523182614820514,-12,-49,0,4,-22,-26,9,4
1523182614820514,-9,4,-8,-4,-3,24,11,-25
1523182614821555,8,-12,-15,11,28,37,5,-18
1523182614821555,-13,8,-18,-14,-3,-8,-19,48
1523182614843078,7,5,0,61,-12,-24,1,-65
1523182614843078,-35,-8,11,10,-15,-35,-27,-50
1523182614844587,1,-10,-24,-42,-51,-33,-9,-6
1523182614844587,38,-12,-1,19,41,77,41,24
1523182614857663,-24,4,-21,-6,2,0,-1,-21
1523182614857663,32,27,8,24,13,11,1,-6
1523182614859665,-5,6,18,-6,11,-22,-16,-2
1523182614859665,106,2,-1,27,-36,-34,7,16
1523182614880723,-31,-22,-28,-76,15,34,18,-6
1523182614880723,1,9,-3,22,14,5,12,32
1523182614881728,40,-7,23,-43,-3,-5,-9,4
1523182614881728,-56,-28,-5,-43,-14,-14,-8,-40
1523182614894757,75,31,-3,-2,-10,-1,-16,-4
1523182614894757,-39,0,-26,-36,-15,-26,-9,-15
1523182614901778,-22,-18,25,56,18,29,21,2
1523182614901778,-29,-38,7,-16,24,19,-12,-29
1523182614917824,-67,11,7,2,-11,-20,7,0
1523182614917824,89,-7,2,12,-8,2,8,56
1523182614919824,42,13,33,28,4,5,7,30
1523182614919824,19,23,21,13,9,-10,-18,-25
1523182614939877,14,23,-31,-20,-25,-17,-1,23
1523182614939877,3,0,39,72,35,12,1,-35
1523182614942400,-8,10,-45,-89,-1,24,16,12
1523182614942400,-10,-43,-2,31,-28,-12,-28,1
1523182614954924,3,6,6,10,21,-1,-6,-9
1523182614954924,-9,2,-10,58,-9,-3,4,15
1523182614961817,12,-11,-11,-73,-12,-1,1,5
1523182614961817,6,35,-60,-36,-5,-10,-3,18
1523182614978097,-44,-14,9,7,-6,-5,-1,-55
1523182614978097,-22,-10,13,10,-7,-6,0,11
1523182614979895,0,-2,3,25,5,-2,-20,-14
1523182614979895,-5,4,-6,16,-1,-1,8,36
1523182614999962,-48,-9,17,45,8,5,5,-30
1523182614999962,-23,2,-43,-81,-14,2,-7,7
1523182615001925,52,13,-24,-44,-15,-10,11,57
1523182615001925,5,-7,33,17,2,0,-2,-72
1523182615013961,-9,-32,6,87,23,14,12,41
1523182615013961,45,11,-3,-90,-9,-1,-12,-43
1523182615022979,51,27,-24,17,-7,-3,9,52
1523182615022979,16,2,-48,-38,-25,-17,-6,4
1523182615038020,-9,-3,-14,-2,-4,-3,-11,18
1523182615038020,57,-22,34,77,14,3,16,27
1523182615039022,10,7,24,47,4,5,-15,1
1523182615039022,-8,7,17,100,20,-3,-4,4
1523182615060093,-26,-32,-41,-101,-29,-5,-15,-10
1523182615060093,40,5,-23,-32,-14,-7,8,37
1523182615062096,-128,-3,0,60,18,10,-28,-103
1523182615062096,-18,8,30,29,15,-2,-14,-38
1523182615074365,31,0,-25,-64,-22,-17,9,51
1523182615074365,-16,-1,33,61,15,4,-1,1
1523182615083155,0,-21,28,25,8,9,16,9
1523182615083155,4,10,-55,-58,-9,2,-5,-17
1523182615098199,19,16,9,51,15,7,11,78
1523182615098199,-38,28,-2,-5,-12,-8,-5,-18
1523182615099204,-33,-17,13,68,15,-6,-4,-13
1523182615099204,-20,-31,30,-60,-14,2,7,19
1523182615120253,30,0,-5,-55,-15,-2,-4,-23
1523182615120253,-7,1,-13,31,-2,-2,-1,14
1523182615122298,-50,1,-5,35,7,-5,3,-20
1523182615122298,2,-31,42,13,10,0,12,4
1523182615134288,5,20,-5,-48,-8,-1,-16,-24
1523182615134288,-46,-8,-17,-91,-6,9,9,10
1523182615143317,62,2,11,23,3,-2,0,-15
1523182615143317,-75,-5,-15,-21,-14,-12,3,49
1523182615156854,-10,19,36,109,16,13,5,-22
1523182615156854,-17,-15,-11,5,20,8,-4,10
1523182615165315,2,-12,7,-38,-4,10,12,5
1523182615165315,41,12,10,25,-1,-5,-6,24
1523182615180365,-5,6,5,9,-1,-5,-26,-23
1523182615180365,40,-12,12,75,-10,-14,-5,-43
1523182615182361,-1,26,-23,-100,-9,-3,-9,22
1523182615182361,2,0,0,57,6,1,-6,5
1523182615194388,4,9,19,89,9,-1,0,-1
1523182615194388,-32,-7,1,21,-18,-4,-7,-34
1523182615202408,76,18,-7,48,0,1,-5,41
1523182615202408,-41,19,11,-25,8,3,29,-33
1523182615217449,57,-6,0,-45,-7,-10,-6,23
1523182615217449,26,4,22,35,7,3,5,-12
1523182615219454,-13,-25,13,93,5,-1,0,-36
1523182615219454,3,8,-46,10,-21,-12,-10,4
1523182615240510,6,21,-25,35,3,1,15,13
1523182615240510,9,39,32,70,15,6,-4,4
1523182615242020,-40,-55,-20,-14,-27,-21,-12,-50
1523182615242020,50,19,-1,-33,19,9,-17,81
1523182615254333,-61,-9,-53,-124,-27,-5,-24,-52
1523182615254333,-8,16,1,1,-11,-4,2,39
1523182615263047,46,32,9,19,8,3,-4,-2
1523182615263047,-42,-18,45,-18,8,1,-7,-93
1523182615278324,-13,-22,14,3,-7,2,21,-6
1523182615278324,-60,5,-9,-45,6,6,5,31
1523182615279091,39,-6,-21,-30,-3,0,17,31
1523182615279091,24,0,-20,-1,-13,-5,-15,-20
1523182615300149,28,39,37,90,18,0,5,-33
1523182615300149,-11,-40,-17,-94,-1,4,-10,-3
1523182615302151,-80,-12,-17,-49,-10,-2,5,-30
1523182615302151,25,-5,-25,-49,-17,-4,7,13
1523182615314183,-24,3,6,9,-4,-4,-5,-5
1523182615314183,-37,-6,10,61,5,0,-13,57
1523182615323247,-21,25,9,103,5,4,-9,14
1523182615323247,6,-13,-24,-48,-7,-5,4,1
1523182615338247,-1,-30,49,105,25,7,26,103
1523182615338247,-62,-12,-64,-66,-29,-17,-5,-128
1523182615339250,-21,2,22,31,12,-1,-26,-23
1523182615339250,-17,41,8,37,-20,-7,18,-18
1523182615359849,13,41,27,127,33,16,-18,20
1523182615359849,18,-66,-83,-115,-26,-2,-4,-2
1523182615361855,-27,-7,-25,98,1,-8,0,-9
1523182615361855,-29,9,10,-12,11,10,2,-44
1523182615374123,94,4,3,-82,-24,-13,6,54
1523182615374123,2,1,13,42,7,-3,2,-18
1523182615382910,-12,-30,5,-8,-9,-6,-6,91
1523182615382910,10,-2,-3,15,10,5,-18,10
1523182615397960,-32,-20,-9,-69,-7,-6,8,-16
1523182615397960,-21,12,14,6,-1,0,-1,-62
1523182615398961,-2,-6,-28,-106,-17,-3,-6,-27
1523182615398961,70,0,30,105,19,6,7,39
1523182615420010,37,-25,2,-15,0,2,-9,-6
1523182615420010,28,30,9,8,-1,1,13,-4
1523182615422015,-29,7,-18,-26,3,-3,1,-2
1523182615422015,19,-1,-6,26,-9,-12,-11,20
1523182615434053,-45,-21,-14,-1,0,0,-9,-44
1523182615434053,17,37,11,67,-5,5,6,22
1523182615443078,31,21,2,-38,-2,0,29,62
1523182615443078,-19,-20,-5,-63,-7,-2,-13,-30
1523182615458224,-73,-14,-2,29,7,-1,9,-31
1523182615458224,12,0,28,-30,1,-5,-10,15
1523182615459226,39,13,1,15,3,0,3,13
1523182615459226,-75,5,-44,-59,-14,0,-3,-4
1523182615480281,6,10,-11,-30,-2,-6,3,-3
1523182615480281,16,-17,8,15,-2,-5,8,-12
1523182615482287,3,28,27,12,-1,12,10,-24
1523182615482287,39,-8,31,125,28,6,11,35
1523182615502342,-71,-9,-26,45,-15,-5,-16,-62
1523182615502342,40,-7,0,28,7,7,6,42
1523182615504346,-11,-16,1,2,-9,-11,-9,5
1523182615504346,-11,7,23,124,11,0,1,8
1523182615518423,-6,-6,-53,-128,-16,-1,-19,-24
1523182615518423,-20,0,10,28,-9,-13,-2,14
1523182615520388,3,21,21,47,25,22,10,14
1523182615520388,-107,-35,-29,-109,-14,-1,0,-38
1523182615540444,16,17,8,39,1,-3,-1,35
1523182615540444,-36,-10,-5,19,1,-2,-3,-1
1523182615541952,26,1,-29,-51,-14,-11,-35,-15
1523182615541952,49,35,3,32,10,6,5,46
1523182615563081,-25,-28,-1,-11,-6,-6,4,0
1523182615563081,9,-12,1,-14,2,-5,-17,-60
1523182615564082,34,-3,-1,37,-10,-5,1,15
1523182615564082,32,18,-3,33,8,7,7,3
1523182615578355,10,-20,16,97,11,1,-9,-23
1523182615578355,-21,-2,-2,-82,-14,2,4,-21
1523182615579121,0,-36,9,31,0,-5,7,-1
1523182615579121,-39,-6,9,-17,-13,-10,-3,25
1523182615600179,50,4,-1,14,13,13,8,25
1523182615600179,8,20,27,41,19,12,23,-20
1523182615602183,-14,-15,-4,-13,0,3,-8,-38
1523182615602183,-21,-49,-4,-61,-7,-3,-3,-7
1523182615622236,9,13,4,12,1,-4,-6,-51
1523182615622236,32,8,-22,-12,-10,-6,5,32
1523182615624241,-16,0,30,41,11,4,16,9
1523182615624241,36,17,-20,-45,-2,11,-4,-60
1523182615637307,26,0,-13,39,-8,-6,-12,-29
1523182615637307,73,3,7,10,9,2,-16,12
1523182615644299,11,-7,-7,-19,-8,-9,22,46
1523182615644299,-11,-17,-20,-50,-5,-5,8,10
1523182615660032,6,10,-12,-54,-6,3,12,23
1523182615660032,-7,-24,-19,-20,-2,1,-5,54
1523182615662034,-102,4,25,45,9,2,1,-36
1523182615662034,-44,-12,-19,-42,-7,-7,2,-1
1523182615682094,33,21,-6,36,-3,-7,-5,30
1523182615682094,8,-4,21,65,15,-1,-3,19
1523182615690110,10,6,-31,-42,-26,-10,-4,-19
1523182615690110,4,1,30,91,19,8,6,2
1523182615697128,-56,-14,-13,-67,-8,9,11,-2
1523182615697128,27,24,-13,37,-2,-4,-17,74
1523182615704146,-26,-26,11,-4,0,1,11,-65
1523182615704146,38,1,13,94,0,-11,-24,5
1523182615720228,-17,2,-16,-93,-11,-2,4,12
1523182615720228,33,20,17,56,13,3,-5,-6
1523182615722235,39,-27,20,4,4,6,5,35
1523182615722235,-15,7,-11,3,-24,-13,-15,-21
1523182615743394,-10,-1,74,127,16,1,2,21
1523182615743394,8,16,-84,-128,-15,8,0,-7
1523182615744255,-21,16,-2,53,8,-2,-20,20
1523182615744255,40,16,53,95,22,5,4,21
1523182615757290,-8,5,-45,9,-36,-13,-2,-28
1523182615757290,-45,-3,56,118,16,1,-11,18
1523182615764313,16,-7,-62,-63,-28,-12,-11,9
1523182615764313,-18,3,12,34,1,-8,0,-3
1523182615780350,17,22,-30,-69,10,9,5,41
1523182615780350,-51,-34,27,-25,2,-5,-4,-61
1523182615782355,16,-17,-9,13,-25,-14,-13,-54
1523182615782355,20,19,22,56,7,9,-4,-50
1523182615802409,48,0,8,92,6,3,0,99
1523182615802409,25,0,70,11,10,7,11,15
1523182615804414,-68,-15,-86,-55,11,0,2,-48
1523182615804414,-38,-3,-69,-91,-34,-12,10,-74
1523182615817448,33,-16,36,17,12,-1,-20,13
1523182615817448,6,-6,-38,-56,-2,7,-10,1
1523182615823699,-26,24,39,-38,0,7,-9,-3
1523182615823699,-17,0,-18,-15,4,-8,-1,6
1523182615840510,-38,1,11,25,0,-4,9,-66
1523182615840510,18,9,-9,55,-4,-8,13,20
1523182615841512,37,-3,13,-44,-6,6,6,35
1523182615841512,15,13,-17,25,23,16,-8,6
1523182615862568,-62,0,3,-94,-1,-6,-18,-84
1523182615862568,27,-21,-16,-15,-29,-15,14,-16
1523182615864578,13,3,-64,-50,-18,-2,-4,15
1523182615864578,31,-35,120,78,13,10,21,28
1523182615877795,35,24,17,127,24,3,-10,-21
1523182615877795,-20,-57,-1,-71,-19,-2,4,34
1523182615883624,7,-20,2,74,0,-5,-3,-30
1523182615883624,27,9,-16,-57,-12,-7,10,15
1523182615900668,8,-10,19,74,15,4,6,42
1523182615900668,-86,3,-55,-49,-29,-4,-39,-42
1523182615901671,19,-5,82,72,16,4,3,-15
1523182615901671,55,-2,-1,8,-9,-1,-4,62
1523182615922963,-40,-29,-10,0,5,-7,-12,-78
1523182615922963,-35,27,37,118,24,7,26,-73
1523182615924733,-6,-2,-45,-23,-17,-10,-18,52
1523182615924733,-8,-4,-28,-15,-16,-7,-7,-41
1523182615936769,26,-27,75,35,25,15,22,50
1523182615936769,-20,-7,-16,-40,-1,0,-4,-8
1523182615944020,40,17,-45,-23,-6,-8,3,-27
1523182615944020,-10,-15,18,22,0,3,2,-4
1523182615959826,-51,5,-63,-27,-16,9,-3,-34
1523182615959826,-19,-5,32,21,12,-1,-5,73
1523182615961832,44,15,0,14,6,0,-9,36
1523182615961832,10,5,-84,-110,-31,-17,-13,-37
1523182615982887,-24,-21,45,23,1,-1,-4,21
1523182615982887,-3,27,-12,53,7,1,8,4
1523182615983891,-48,-42,15,-38,1,-1,3,-37
1523182615983891,90,-4,46,69,14,-5,-1,93
1523182615996926,28,7,17,23,-11,-4,-8,16
1523182615996926,73,-13,-32,-28,-7,9,22,95
1523182616005949,-60,10,29,97,8,-2,-12,-37
1523182616005949,-65,12,-12,-49,-3,-5,-15,-95
1523182616020025,-16,-35,7,7,-10,-10,-7,-4
1523182616020025,51,28,2,3,2,1,-6,8
1523182616021992,86,17,14,3,0,2,4,56
1523182616021992,-65,1,12,4,7,2,23,-19
1523182616043283,-27,43,-42,-79,-10,-6,-2,1
1523182616043283,39,-17,56,127,16,3,2,-36
1523182616044050,-8,-11,-46,-115,-25,8,8,15
1523182616044050,2,-27,-12,86,-4,-12,-28,-76
1523182616057125,-26,3,5,25,4,0,16,29
1523182616057125,-120,-15,-70,-76,-21,-11,-14,-51
1523182616071160,-5,4,41,53,22,-1,12,19
1523182616071160,-25,-9,2,3,0,-1,-4,19
1523182616080146,-2,-11,5,15,-18,-13,-6,-5
1523182616080146,-22,17,-5,-67,8,13,1,-66
1523182616082152,2,19,29,51,17,0,5,15
1523182616082152,-46,10,-18,-7,5,10,4,30
1523182616103207,-13,9,-65,-20,-16,-12,-10,-57
1523182616103207,63,39,35,59,0,-6,20,74
1523182616104213,-72,-16,6,-4,-4,-5,-18,-50
1523182616104213,26,-9,22,73,13,2,-2,-14
1523182616116244,-18,-17,-45,-114,-15,-4,2,-13
1523182616116244,10,-21,8,18,-15,-9,-18,-33
1523182616125269,-7,19,-22,22,6,6,16,27
1523182616125269,24,11,20,6,2,1,12,87
1523182616140307,12,8,12,61,14,5,0,23
1523182616140307,-74,-20,-27,-23,-18,-9,-22,-22
1523182616142313,8,-3,9,96,21,2,11,27
1523182616142313,12,9,-56,-111,-11,0,-9,-33
1523182616162365,12,7,12,46,-12,-10,4,-12
1523182616162365,-38,3,-37,-38,1,2,1,31
1523182616164376,69,32,18,13,0,3,6,64
1523182616164376,-44,-11,-14,8,1,-4,1,-65
1523182616176637,56,-14,22,4,3,4,6,8
1523182616176637,28,-23,44,16,14,-1,17,49
1523182616185427,79,38,11,34,-15,-9,9,-47
1523182616185427,32,33,25,43,2,3,-32,30
1523182616200504,20,4,-6,56,7,0,-14,-15
1523182616200504,-12,-3,18,-6,9,3,0,-36
1523182616201468,57,-3,-1,-24,-9,0,16,74
1523182616201468,95,24,28,13,-3,-1,3,-12
1523182616222761,-11,25,31,95,25,4,-2,-16
1523182616222761,14,-4,-30,-72,-11,-5,-10,4
1523182616224530,-80,-22,-29,-92,-23,-1,7,-24
1523182616224530,-75,-23,-59,-46,-16,-5,6,3
1523182616245587,54,1,40,30,5,5,-10,38
1523182616245587,-8,-7,15,60,9,-3,1,-21
1523182616246589,26,-12,19,-19,7,5,4,-62
1523182616246589,-86,-14,22,22,4,3,6,33
1523182616260628,33,6,-26,-59,-3,0,-14,3
1523182616260628,-4,-18,-36,-7,-11,-7,-10,0
1523182616261629,-45,-17,4,-10,-6,-3,-17,29
1523182616261629,-2,6,-2,18,5,3,4,32
1523182616282685,-11,15,-29,-28,-8,-5,4,-13
1523182616282685,26,-6,47,74,-3,-3,-7,-17
1523182616284691,-28,-28,-17,-26,7,0,-2,3
1523182616284691,99,6,-7,-46,-15,-1,11,29
1523182616296722,-56,-27,-11,-24,-5,-3,-7,-71
1523182616296722,-24,-17,-49,-53,-10,-5,2,-5
1523182616305785,8,18,31,44,9,4,-5,-18
1523182616305785,12,-5,-20,7,2,0,-1,90
1523182616319822,-20,-3,13,-22,0,0,-3,-51
1523182616319822,61,10,-17,-4,9,4,-4,84
1523182616321789,6,9,-20,0,-18,-11,-7,-54
1523182616321789,30,9,25,0,5,6,11,86
1523182616341841,-15,-30,-21,-13,-8,-1,5,4
1523182616341841,49,31,20,16,5,1,-3,-62
1523182616350865,-51,-10,20,24,8,-5,-9,-40
1523182616350865,-45,2,9,-15,-7,-4,-20,-93
1523182616356882,-41,13,-1,-52,-3,11,23,80
1523182616356882,3,7,-24,55,-7,-3,5,-27
1523182616365907,36,10,1,15,2,1,-1,23
1523182616365907,0,-2,27,93,16,4,10,-14
1523182616379948,-8,15,-8,5,-5,-3,2,23
1523182616379948,9,-19,-17,-20,-3,-1,18,-66
1523182616381951,-22,-15,-13,10,6,-3,-11,25
1523182616381951,-29,4,47,97,1,1,9,-46
1523182616403003,37,19,-48,-88,-3,3,-4,-71
1523182616403003,-10,-7,-5,34,-2,-4,0,22
1523182616404007,-12,0,36,18,2,-3,-12,-3
1523182616404007,42,-13,5,18,9,7,-3,-24
1523182616425298,40,-1,-15,-38,-5,-5,20,-5
1523182616425298,26,13,6,-30,-14,-1,-18,28
1523182616427069,21,15,14,92,16,5,4,33
1523182616427069,-40,-5,-43,-110,-19,-8,-7,-42
1523182616440104,8,-15,6,41,1,-6,-8,10
1523182616440104,-34,10,27,94,19,9,5,3
1523182616442109,14,-27,-35,-71,-27,-10,-3,5
1523182616442109,35,3,-21,1,-2,1,2,46
1523182616463165,-1,-12,2,13,7,-8,-27,-4
1523182616463165,-85,7,22,-22,-4,-4,-18,13
1523182616464169,-54,6,13,-11,-5,-2,-14,-65
1523182616464169,-8,-6,-6,23,23,3,7,8
1523182616485223,-47,-9,-26,-52,-28,-8,-7,5
1523182616485223,-30,-41,0,-14,-6,-3,-17,-23
1523182616487229,58,40,6,0,11,9,5,13
1523182616487229,-43,-31,-12,-15,-6,-4,1,-28
1523182616500302,12,16,31,118,43,6,-14,45
1523182616500302,-37,-3,1,-37,-32,-13,3,-20
1523182616502269,-35,-25,-10,-24,-12,-1,12,6
1523182616502269,-3,12,-21,-4,-1,-2,-8,-27
1523182616523559,2,-30,54,45,-6,-1,5,-25
1523182616523559,3,8,-9,-17,14,3,-9,-63
1523182616525460,4,-1,-27,-12,-1,-3,-17,19
1523182616525460,29,0,44,37,-2,-3,-8,75
1523182616545385,-10,4,-39,-45,-4,2,11,-4
1523182616545385,12,-11,7,15,-1,-3,-5,-43
1523182616547392,4,-6,9,18,0,2,21,52
1523182616547392,-20,5,63,-41,9,4,3,-30
1523182616559421,-1,-4,0,-15,-26,3,12,4
1523182616559421,46,25,26,94,33,-1,-14,8
1523182616566438,70,-2,-38,-22,-9,-4,-12,74
1523182616566438,-35,-24,22,-2,-9,-6,-17,-21
1523182616582482,6,-8,-70,-64,-12,-3,-3,25
1523182616582482,-19,3,14,-16,6,9,35,19
1523182616584487,-70,-3,40,52,5,-2,-17,-32
1523182616584487,8,18,-44,-24,5,0,-2,12
1523182616605587,40,0,20,-5,-8,-5,-17,-6
1523182616605587,9,-20,5,5,-5,-2,6,17
1523182616606546,-17,4,-40,-7,15,0,4,-38
1523182616606546,8,-12,-4,-17,-19,-4,-1,21
1523182616619624,3,22,20,-13,-10,-5,3,8
1523182616619624,16,6,4,-5,-3,-1,19,30
1523182616627794,8,4,34,29,10,4,-14,-42
1523182616627794,41,-10,-21,1,-5,-1,-4,-33
1523182616642877,34,15,41,52,9,0,17,26
1523182616642877,75,-4,-54,-32,2,5,6,38
1523182616644685,-24,48,-28,-51,-18,-9,17,-61
1523182616644685,7,11,39,59,9,7,6,-33
1523182616665702,-20,0,-35,-82,-15,-7,-18,-15
1523182616665702,-26,-12,-4,34,-1,-3,2,53
1523182616666705,-3,-5,-7,16,-1,1,10,-2
1523182616666705,11,-4,-20,-11,-1,-5,0,-23
1523182616679741,-66,-10,12,13,12,4,11,15
1523182616679741,-2,16,9,-27,2,0,-6,-26
1523182616686758,-1,-14,-21,-24,-10,-3,1,8
1523182616686758,2,4,3,31,-3,-2,-4,-16
1523182616702801,13,-8,52,36,14,6,-4,50
1523182616702801,-41,0,-63,-7,-19,-5,-5,-51
1523182616704806,38,4,29,37,21,4,7,-7
1523182616704806,17,-7,-37,-57,-4,-1,2,73
1523182616725916,26,-11,-14,-29,-23,-12,-9,-39
1523182616725916,-49,3,63,63,20,3,2,-16
1523182616726865,-23,-19,5,-50,-15,-3,-3,11
1523182616726865,-41,14,-21,6,4,0,2,4
1523182616739902,3,2,-36,-50,2,2,1,-16
1523182616739902,3,4,35,-5,-8,-1,5,-20
1523182616746921,-31,-33,19,57,8,1,-9,8
1523182616746921,10,12,22,-2,-8,-6,-15,27
1523182616762971,-10,-4,22,19,22,0,-8,0
1523182616762971,61,-17,-54,-84,-24,-1,22,22
1523182616763970,-65,2,-15,14,8,2,-12,-74
1523182616763970,8,-12,-5,18,10,7,8,13
1523182616785059,23,14,40,42,-4,1,14,29
1523182616785059,26,-10,-17,0,5,-1,-8,-7
1523182616787027,23,2,8,-1,-15,-6,-6,8
1523182616787027,-38,0,-14,-44,1,-2,11,18
1523182616800059,12,4,-15,2,-2,-1,-14,-63
1523182616800059,-25,10,25,-18,-7,-8,-24,-3
1523182616806076,70,7,-78,-22,-6,0,23,80
1523182616806076,-125,-11,57,18,-1,-4,-23,-126
1523182616823167,38,-2,-5,23,9,3,-10,-10
1523182616823167,14,9,15,14,3,0,-3,28
1523182616829188,15,-10,21,-8,1,0,9,12
1523182616829188,30,4,-64,5,-4,0,21,42
1523182616845183,-19,2,-75,-7,-4,-1,11,-5
1523182616845183,-16,13,12,42,2,-5,-11,10
1523182616847193,-5,-12,7,-23,-5,-4,-28,28
1523182616847193,22,-10,0,-4,-2,1,5,13
1523182616859218,-31,-11,12,7,-6,-4,-8,16
1523182616859218,15,2,-12,-6,-2,-2,-6,28
1523182616866239,27,16,18,1,5,4,6,-13
1523182616866239,-6,-9,1,-4,-6,-4,-3,-17
1523182616882322,16,-10,-16,1,-5,-6,-4,13
1523182616882322,-29,19,1,15,-2,-3,-5,-21
1523182616884285,-43,-17,13,-45,-2,1,1,-99
1523182616884285,77,18,6,14,1,-3,-5,45
1523182616905382,-75,-49,26,10,3,7,20,16
1523182616905382,-43,-16,4,-6,-1,2,-1,-33
1523182616907344,-6,35,0,17,8,1,-4,22
1523182616907344,0,-21,-27,-3,-15,-7,-4,-57
1523182616918599,7,19,-1,-6,-1,-2,4,3
1523182616918599,30,-3,26,-15,0,3,10,-13
1523182616928402,-49,-1,-44,8,-1,1,-22,-7
1523182616928402,-39,-6,11,-1,6,5,3,29
1523182616943439,26,22,7,22,-4,-2,-3,-7
1523182616943439,-14,0,-17,-8,-1,-3,-7,-23
1523182616944445,68,-3,11,11,-8,-6,4,18
1523182616944445,36,28,57,32,9,5,21,17
1523182616965501,-10,1,-53,-15,-11,-4,-11,25
1523182616965501,26,-21,3,4,1,-6,-14,13
1523182616966502,20,-26,37,2,3,-1,11,15
1523182616966502,15,2,-54,-29,-12,-5,-1,14
1523182616978535,24,20,23,9,5,1,-3,-11
1523182616978535,-2,-15,-6,14,4,2,20,-66
1523182616987596,-11,-1,-12,-1,-3,-2,-37,31
1523182616987596,4,-33,30,14,6,4,4,-29
1523182617002598,26,-14,-26,-27,-4,-5,8,24
1523182617002598,-10,15,-39,-51,-13,-6,-9,13
1523182617004607,64,-6,22,37,11,5,21,58
1523182617004607,-71,-20,-12,-42,-18,-9,-5,-20
1523182617032679,-61,-4,54,17,1,-4,-18,-39
1523182617032679,22,-8,-11,-10,0,0,19,60
1523182617034684,63,7,15,2,-1,0,17,35
1523182617034684,-24,13,22,21,8,0,-21,44
1523182617038732,-26,-24,2,17,3,3,11,36
1523182617038732,14,10,35,-61,-12,-1,-9,30
1523182617047722,-49,-8,-15,-2,1,-2,6,-1
1523182617047722,7,-14,-26,6,-7,-5,-20,19
1523182617062765,-17,-8,-15,15,4,-2,-2,10
1523182617062765,-26,5,17,-27,-13,-1,-9,-21
1523182617064764,-41,37,-81,-24,-10,-13,-21,-114
1523182617064764,17,-9,56,7,6,1,7,-54
1523182617084818,-8,14,-15,3,-6,-1,1,-8
1523182617084818,-16,-68,91,86,24,13,6,-13
1523182617086822,-21,-60,9,-44,-4,3,12,-15
1523182617086822,2,36,-17,13,7,0,4,22
1523182617098893,-5,-1,13,-96,-20,-6,-12,-20
1523182617098893,19,28,-66,18,-1,-1,3,-5
1523182617107877,-51,-9,21,21,-1,-4,-10,14
1523182617107877,-36,-8,-17,15,2,-1,-20,-38
1523182617123152,54,50,-17,12,8,4,28,-41
1523182617123152,43,25,38,26,5,4,7,-19
1523182617123921,43,46,-4,1,-6,-4,5,-106
1523182617123921,36,26,-18,-21,-4,2,22,74
1523182617144979,14,-44,82,31,2,-4,-73,103
1523182617144979,-13,7,-35,-18,-8,-10,-14,-21
1523182617146981,-4,5,17,14,7,8,29,40
1523182617146981,2,-10,-29,-2,-7,-4,18,-103
1523182617159016,-65,-4,8,-1,-1,-1,37,37
1523182617159016,-10,26,-35,-11,-4,1,-10,22
1523182617168038,-18,-23,32,-2,0,-4,-34,-6
1523182617168038,34,-21,-2,-4,-6,-7,-24,22
1523182617183077,54,-5,-18,14,-2,-4,8,32
1523182617183077,-93,-14,-24,-53,-17,-19,-55,-64
1523182617184081,1,38,-38,6,-5,-5,-9,24
1523182617184081,-2,-43,56,-20,0,3,5,-52
1523182617205176,40,18,-24,5,8,8,34,36
1523182617205176,26,-23,-6,8,5,4,17,36
1523182617207180,-27,-20,-24,12,-1,0,10,-42
1523182617207180,-10,36,-20,-2,1,1,12,21
1523182617219174,-27,-13,5,-24,0,2,-3,-43
1523182617219174,14,-8,-4,8,-4,-7,-15,-59
1523182617228199,17,-12,60,0,-1,-3,13,33
1523182617228199,35,-31,-13,7,-5,-7,-10,85
1523182617243396,-29,23,-23,0,-2,-2,4,-64
1523182617243396,3,22,-1,19,4,0,2,-33
1523182617244240,41,-6,-2,-39,-7,0,27,1
1523182617244240,16,31,-13,1,0,3,0,-1
1523182617265297,69,-9,8,12,7,5,-32,40
1523182617265297,57,42,25,-3,-2,-6,-14,105
1523182617267301,-5,-8,-5,17,1,-2,-9,-54
1523182617267301,-34,12,4,-28,2,4,9,-62
1523182617279334,7,-14,6,-2,2,2,-23,-37
1523182617279334,11,-56,-17,30,11,4,-6,33
1523182617288397,-98,19,50,-2,-5,-10,-25,-83
1523182617288397,54,8,-36,-3,-5,-5,30,32
1523182617302395,19,3,58,11,3,4,14,40
1523182617302395,14,38,-47,1,2,9,48,37
1523182617308410,-16,-29,-11,-18,4,5,-25,8
1523182617308410,-50,-12,-35,4,-3,-5,-31,-78
1523182617325695,4,-5,6,6,-1,-1,24,43
1523182617325695,-28,12,20,-29,-1,3,1,7
1523182617326473,57,-9,-30,-20,-5,0,1,127
1523182617326473,19,26,18,3,0,0,-3,26
1523182617347557,-73,1,-14,6,1,1,20,-120
1523182617347557,-56,-19,18,4,-1,-6,-37,39
1523182617349522,8,4,-90,-13,-2,4,22,-8
1523182617349522,19,23,-3,-7,-4,-7,-10,5
1523182617362565,-52,-26,47,18,5,-2,-1,-38
1523182617362565,-22,-36,-46,-19,-5,-4,9,-31
1523182617364560,62,11,12,12,2,3,0,33
1523182617364560,-45,-13,7,11,2,1,-6,-84
1523182617385615,44,37,-25,-13,-8,-7,-6,73
1523182617385615,-20,5,14,-1,-2,-3,2,23
1523182617386625,58,2,36,9,2,0,-8,62
1523182617386625,5,9,-47,-7,-2,1,35,7
1523182617407677,10,21,36,-2,-1,2,14,-75
1523182617407677,41,15,13,8,4,6,-5,39
1523182617409682,-62,2,-3,2,1,-2,6,-112
1523182617409682,-47,-31,-22,0,-2,-1,-12,74
1523182617422714,32,-46,10,7,3,-1,-7,-21
1523182617422714,6,-5,-12,-15,-4,-1,11,6
1523182617424737,-8,23,-24,30,12,9,29,-96
1523182617424737,-39,14,-45,-58,-7,0,-23,-58
1523182617444774,-22,1,-62,-9,-6,-6,-13,-76
1523182617444774,40,-2,8,-1,-4,-4,-45,-20
1523182617446781,-24,10,33,26,3,0,-1,25
1523182617446781,-33,-20,14,-40,-4,-1,25,63
1523182617468070,-12,14,-41,5,-3,-6,-18,-50
1523182617468070,-19,-19,34,5,1,3,19,-58
1523182617469840,-23,8,-28,-9,-10,-11,-8,7
1523182617469840,29,9,7,6,-3,-3,-16,-21
1523182617482874,18,21,20,-5,-4,-2,-11,48
1523182617482874,22,-12,32,12,2,-1,20,52
1523182617484888,-58,-7,12,-9,-6,-4,-55,-3
1523182617484888,46,12,31,41,12,7,5,-14
1523182617504933,-91,-16,-32,-31,0,5,42,-52
1523182617504933,22,42,36,39,6,1,-23,-40
1523182617506940,-9,21,-58,-25,-10,-3,-1,-3
1523182617506940,-29,-30,18,20,1,0,-40,-41
1523182617527993,-33,15,22,3,0,-2,-34,48
1523182617527993,19,-44,21,5,-1,-1,-1,64
1523182617530003,-8,29,-19,9,0,1,34,63
1523182617530003,28,15,44,-44,-7,-7,-14,-10
1523182617542032,39,-13,-33,8,1,4,21,24
1523182617542032,-28,6,-11,-3,0,3,18,-39
1523182617549090,-26,-54,-5,-32,-6,-12,-30,-37
1523182617549090,24,-7,-1,14,-8,-7,34,0
1523182617565096,42,6,-20,-13,-4,-6,-6,18
1523182617565096,-42,-3,-31,-2,-5,-7,26,35
1523182617567098,3,24,-13,1,2,2,18,80
1523182617567098,-8,12,4,14,6,2,-1,-31
1523182617588154,-4,-4,14,-2,1,1,-15,-64
1523182617588154,8,7,-46,-14,-2,-3,-16,31
1523182617589157,39,24,-16,0,1,7,37,-16
1523182617589157,-44,-38,25,31,-4,-4,-34,66
1523182617602191,-43,-79,76,28,2,-5,-14,-19
1523182617602191,-2,5,-37,-81,-8,1,-20,-10
1523182617609210,28,-21,20,-9,-2,-2,-1,68
1523182617609210,-25,20,30,17,2,-3,1,-30
1523182617625491,-5,18,-10,1,-1,3,8,-52
1523182617625491,-14,-19,11,6,-1,0,21,30
1523182617627259,16,-13,90,21,5,4,29,-53
1523182617627259,-38,-15,2,13,12,14,-6,10
1523182617647355,28,29,-19,-31,-9,-6,15,-2
1523182617647355,-27,-37,14,13,4,-5,-2,-102
1523182617649317,-69,-19,9,13,-1,0,-30,-79
1523182617649317,2,0,-19,-4,-11,-3,25,91
1523182617662354,23,0,-25,-2,-2,-5,-16,-40
1523182617662354,-24,1,42,17,4,-1,-5,-114
1523182617669369,-27,-28,-20,16,-4,-13,-1,21
1523182617669369,9,-5,-6,-13,0,3,30,27
1523182617685451,45,30,-12,-16,-2,3,5,75
1523182617685451,9,45,-49,-8,-5,1,14,16
1523182617686415,36,-4,8,5,-4,-5,5,-12
1523182617686415,49,23,7,5,4,1,-6,-32
1523182617707707,-7,6,4,8,-2,0,14,5
1523182617707707,23,-11,34,31,4,-3,-32,7
1523182617709477,-21,-17,10,-42,-7,-4,-20,16
1523182617709477,-22,0,-83,-3,1,-1,-8,69
1523182617722515,-16,7,21,17,-1,-2,-25,84
1523182617722515,-47,-10,-12,8,-2,-5,13,-31
1523182617736550,92,-1,13,-1,1,6,-14,1
1523182617736550,1,-11,11,-7,4,4,-10,-20
1523182617745572,11,-16,51,9,0,1,9,5
1523182617745572,-30,-8,-4,-11,-8,-2,18,-44
1523182617746579,-6,2,-19,11,3,-2,-22,0
1523182617746579,14,-1,1,-34,-5,-3,1,-64
1523182617767869,3,-21,-16,-7,0,-2,7,9
1523182617767869,57,21,-8,-3,3,9,24,57
1523182617769676,2,4,15,1,-7,-10,-26,21
1523182617769676,2,-9,-6,30,1,-7,-9,-17
1523182617781668,-11,9,-11,-25,0,1,14,26
1523182617781668,-5,14,-3,0,-1,0,5,-4
1523182617788688,-9,6,9,-2,0,3,5,35
1523182617788688,-60,10,-12,19,0,-4,7,-42
1523182617805732,-7,-10,-24,-40,-4,-7,-31,36
1523182617805732,32,-1,-5,-8,-7,-4,2,-38
1523182617806735,-25,-5,33,13,3,5,17,-39
1523182617806735,44,-20,-22,-8,-10,-8,-35,-14
1523182617827792,17,22,-18,18,4,0,3,-122
1523182617827792,-4,-2,26,10,5,1,-18,27
1523182617829801,-26,-17,10,-6,-1,0,-4,-68
1523182617829801,-13,-27,-15,-62,-10,-4,2,55
1523182617842830,-45,-1,-6,28,3,6,16,85
1523182617842830,-32,2,-19,-11,-7,-7,-23,-64
1523182617848892,13,0,-31,18,2,-3,-9,-15
1523182617848892,-23,-3,30,4,3,6,14,-101
1523182617864891,55,7,-8,18,0,0,4,60
1523182617864891,34,2,-5,-7,-1,3,8,46
1523182617866896,-48,21,35,15,6,3,-7,-27
1523182617866896,20,-13,39,8,11,10,7,-20
1523182617887952,-7,-22,7,-12,-5,-2,25,-7
1523182617887952,-4,-2,3,19,8,3,-12,11
1523182617888954,90,11,-43,-26,-6,-1,13,80
1523182617888954,-10,21,-3,4,-5,-7,1,-58
1523182617910011,-21,-39,28,10,-1,1,7,55
1523182617910011,7,-23,-3,-16,-5,-4,1,15
1523182617912017,-14,2,-34,-2,0,-6,-5,0
1523182617912017,107,13,4,-4,-3,3,12,64
1523182617925288,54,35,-12,-38,-4,-3,-2,45
1523182617925288,-49,-18,-29,17,2,1,0,-28
1523182617927056,-3,-6,-35,1,-3,-3,11,-14
1523182617927056,-20,-16,58,19,3,2,21,31
1523182617948112,-45,11,-18,9,-5,-9,-24,-121
1523182617948112,4,-15,2,-6,1,4,13,-13
1523182617949114,38,3,7,0,2,4,8,42
1523182617949114,-43,17,-14,-15,-6,-10,-14,-6
1523182617961146,-59,-24,-18,4,3,3,-18,-18
1523182617961146,22,10,-5,-6,4,5,-6,-52
1523182617970169,-46,2,16,11,-3,-5,-5,2
1523182617970169,-1,15,9,12,3,2,3,9
1523182617985210,39,-5,7,25,0,1,2,-12
1523182617985210,31,20,-13,-50,-7,-4,26,-18
1523182617987215,-26,-31,21,6,-1,-4,-27,-72
1523182617987215,25,-5,-26,-17,-5,-1,-5,50
1523182618007268,10,3,30,22,0,-1,-17,44
1523182618007268,-4,4,5,-19,0,-1,13,14
1523182618015289,-4,-3,-51,-24,-7,-4,0,-24
1523182618015289,-4,-13,11,7,-8,-10,6,-58
1523182618021308,-32,-5,-4,24,7,3,-3,-17
1523182618021308,-15,-4,-3,-23,-8,-2,-5,-6
1523182618030623,5,21,21,5,2,5,1,0
1523182618030623,-12,-12,-56,-9,-7,-5,-3,-14
1523182618045662,29,30,-51,7,-1,-3,25,-10
1523182618045662,-6,13,2,7,-2,0,-39,21
1523182618046660,16,-5,15,6,1,-2,-3,53
1523182618046660,73,10,17,30,2,-8,-29,-8
1523182618067956,-59,-16,10,-35,-6,-3,4,-31
1523182618067956,-54,-4,3,18,-3,-6,-8,-14
1523182618069721,28,15,-45,-7,3,3,1,48
1523182618069721,-27,6,-10,-68,-10,1,4,48
1523182618081752,29,-18,-9,-19,1,1,-3,4
1523182618081752,-2,-16,4,13,-1,-5,9,-76
1523182618090777,52,-3,13,13,8,7,2,-1
1523182618090777,37,0,20,16,1,-1,12,-52
1523182618104814,-9,-2,-69,-11,-1,3,-23,23
1523182618104814,21,-16,-10,4,2,3,0,-13
1523182618106821,-33,2,35,3,-1,-5,-24,52
1523182618106821,1,-3,17,-9,0,4,3,4
1523182618127880,50,-3,4,-14,-2,-3,-3,-33
1523182618127880,38,-2,29,42,2,-2,-9,127
1523182618129883,-53,6,-59,-42,-9,-4,-2,-50
1523182618129883,-16,2,27,35,9,4,16,38
1523182618140910,-10,2,26,-13,-11,-6,-4,-31
1523182618140910,2,24,-5,15,3,-1,4,-4
1523182618149933,-5,2,26,2,-4,1,40,-63
1523182618149933,4,5,-18,29,6,4,-41,9
1523182618164978,61,3,33,-15,-3,0,17,18
1523182618164978,-45,-15,-20,3,3,3,-11,15
1523182618166979,-16,-13,-31,-18,-14,-19,-7,-111
1523182618166979,22,-9,5,15,1,2,0,29
1523182618188035,50,13,-12,13,2,1,-10,-26
1523182618188035,14,18,30,5,1,2,10,75
1523182618189039,-2,9,47,-36,-3,3,4,8
1523182618189039,-57,-30,-15,-7,4,3,11,-17
1523182618201071,-10,-23,-35,-3,-1,-6,2,19
1523182618201071,48,18,20,10,-4,1,-1,48
1523182618210094,0,-3,-7,-14,-2,1,-8,-48
1523182618210094,-21,22,1,18,-4,-8,-8,-5
1523182618225370,-32,-3,15,12,1,-4,5,65
1523182618225370,-21,-23,-9,-65,-6,1,8,-58
1523182618227138,34,-8,8,30,3,1,-21,91
1523182618227138,12,2,5,12,-2,-2,-25,14
1523182618248197,-75,-13,-41,-40,-8,-10,-13,-69
1523182618248197,69,0,9,21,9,5,1,-27
1523182618249198,5,8,43,10,1,1,4,83
1523182618249198,-50,-12,-22,-14,4,2,7,-52
1523182618261235,-29,2,29,44,-5,-1,16,34
1523182618261235,-19,7,-27,-9,-2,-3,-9,-13
1523182618270253,21,6,62,6,3,2,5,-73
1523182618270253,14,-4,-3,-13,-9,-1,-3,23
1523182618293406,12,22,28,11,5,7,13,6
1523182618293406,-43,0,-67,-8,-5,-12,-9,-56
1523182618294319,-6,-3,-22,28,2,3,13,12
1523182618294319,-9,-14,17,-23,2,0,2,80
1523182618307352,15,0,15,0,1,-1,-5,-47
1523182618307352,88,21,46,11,-6,1,1,8
1523182618309358,-72,-15,-26,-1,1,-5,8,-59
1523182618309358,48,4,-7,-5,0,-4,-35,60
1523182618330414,-27,-7,-59,-7,-6,-5,-25,-24
1523182618330414,25,8,5,-15,1,1,2,65
1523182618331418,22,-10,-36,20,-3,0,18,-34
1523182618331418,16,3,13,-19,-4,-4,16,6
1523182618345457,-8,2,9,-32,-3,3,-2,-32
1523182618345457,-2,-3,-10,10,-1,-3,-30,-3
1523182618346458,-48,-6,-4,10,-2,-4,15,98
1523182618346458,-17,11,-16,-30,-2,3,20,23
1523182618367601,28,-21,14,19,5,1,-51,46
1523182618367601,-73,-3,12,-1,-6,-8,9,2
1523182618369519,51,-16,8,-10,4,1,0,-81
1523182618369519,-50,35,-29,35,-2,0,-11,-87
1523182618390572,11,12,37,-4,2,0,6,40
1523182618390572,-20,7,46,3,6,6,1,31
1523182618391575,20,-33,-21,-23,-7,1,-10,77
1523182618391575,-34,22,4,19,-1,-9,-8,-108
1523182618404611,8,-9,-15,-7,3,3,15,-6
1523182618404611,-33,8,-21,13,3,4,33,-96
1523182618412643,52,7,37,5,1,3,-29,23
1523182618412643,-52,-7,10,-2,-4,-6,-7,-15
1523182618427676,-38,13,68,-31,-4,0,-6,8
1523182618427676,1,-18,0,6,0,-3,16,17
1523182618429684,16,25,2,-3,-1,-4,12,7
1523182618429684,35,-34,12,-13,2,8,15,-23
1523182618450740,-37,7,-13,-8,-9,-7,-27,-81
1523182618450740,15,7,-14,-3,-1,0,-1,43
1523182618451737,-102,-20,0,12,-3,-3,16,-85
1523182618451737,45,26,20,-19,0,0,-7,39
1523182618464771,-1,5,30,47,7,2,23,-32
1523182618464771,-32,-12,-30,-59,-10,-6,29,8
1523182618471792,-46,-14,-2,37,7,7,-31,22
1523182618471792,17,15,-33,2,6,6,22,8
1523182618487832,5,8,13,3,-2,-1,25,-38
1523182618487832,-20,-19,4,9,1,-2,-12,7
1523182618489839,-28,-45,3,-20,-4,-7,-24,-35
1523182618489839,72,8,-5,15,0,2,8,11
1523182618509893,-8,1,-42,-7,-4,-3,19,8
1523182618509893,-4,1,4,15,-3,-1,-12,-31
1523182618511903,50,-2,6,-29,-4,0,11,76
1523182618511903,18,-27,1,0,0,1,-11,-37
1523182618525166,3,-13,-23,-6,0,0,-1,-6
1523182618525166,-62,-10,21,20,3,-4,-3,-60
1523182618530946,23,18,-20,-33,-8,2,5,1
1523182618530946,-4,9,-17,20,-1,3,17,27
1523182618547994,27,16,-19,-41,-7,-6,2,22
1523182618547994,99,-13,-12,-5,-4,-1,-5,46
1523182618549003,-8,28,2,-6,0,1,-22,4
1523182618549003,-27,2,6,11,5,1,-5,-51
1523182618571092,-30,-69,-34,0,-10,-8,11,86
1523182618571092,10,1,20,29,-1,2,-27,14
1523182618572057,44,23,-11,-12,1,-1,8,-16
1523182618572057,-8,-4,-9,17,-3,-2,0,-23
1523182618584088,-66,-28,1,9,-1,-4,0,40
1523182618584088,0,4,-1,1,-4,-8,-16,-31
1523182618591106,5,8,-2,-20,-2,-3,9,0
1523182618591106,-4,0,19,-21,-6,-4,2,65
1523182618608158,25,21,3,16,9,8,-6,-28
1523182618608158,-27,-10,-16,-9,-4,-6,-31,-21
1523182618609155,47,22,18,24,3,-3,-28,-41
1523182618609155,-13,-25,16,2,-4,-6,-5,13
1523182618630212,40,17,6,6,6,6,23,28
1523182618630212,-47,7,4,-6,0,-4,-17,-39
1523182618632216,-6,6,-18,8,2,-1,4,-30
1523182618632216,-23,-11,3,-8,1,1,-11,-49
1523182618644253,25,0,2,0,-4,-2,-18,0
1523182618644253,-28,-5,-3,7,7,7,19,-24
1523182618651305,57,-5,-7,-6,1,2,-5,41
1523182618651305,53,8,11,2,-1,0,6,22
1523182618668405,-6,4,24,10,6,5,21,2
1523182618668405,3,-20,-1,-43,-6,-3,-24,-14
1523182618669314,5,8,4,36,-1,-2,-1,-27
1523182618669314,35,-5,-8,4,2,2,38,29
1523182618690369,11,15,7,-11,-1,3,-18,-1
1523182618690369,62,-3,-8,21,-3,-5,-10,3
1523182618691373,-27,-7,5,-9,-1,1,-5,-27
1523182618691373,-22,-36,-33,-20,-11,-7,-5,21
1523182618704409,-6,-5,14,10,-1,-4,-9,-30
1523182618704409,-4,6,-4,-1,-2,-1,42,94
1523182618711425,39,12,11,-15,-7,-4,-2,11
1523182618711425,-21,5,-18,-9,-4,-2,-11,-7
1523182618727470,1,-7,13,-10,4,4,-3,-17
1523182618727470,-4,12,6,16,0,-2,6,17
1523182618729481,-45,4,-5,-23,-5,-1,4,-53
1523182618729481,52,4,13,20,1,0,-5,84
1523182618750570,-38,-8,-34,-42,-12,-9,-20,-54
1523182618750570,-26,3,7,-11,-8,-6,0,32
1523182618751533,-71,-15,6,35,1,-1,14,85
1523182618751533,-1,1,-8,-11,-4,-3,-14,-30
1523182618772590,4,18,5,27,5,0,-9,-9
1523182618772590,67,-4,-28,5,-11,-6,2,-29
1523182618774595,-2,-12,-16,-5,3,1,-11,18
1523182618774595,-33,-4,44,1,3,1,11,6
1523182618787629,15,8,-24,14,-2,0,0,8
1523182618787629,-5,9,-4,0,6,2,12,13
1523182618789634,14,10,4,-19,-6,4,7,7
1523182618789634,-20,22,-2,7,3,-5,-3,-28
1523182618810692,-3,-7,-37,-48,-12,-8,-9,-7
1523182618810692,-38,26,15,18,8,6,-6,-59
1523182618811699,40,-7,-26,-12,-2,-1,-2,74
1523182618811699,4,-1,-5,30,5,-1,-11,-38
1523182618823764,25,-4,-19,1,-4,-5,-16,46
1523182618823764,3,-7,36,-17,-4,0,-8,-1
1523182618832749,-7,-12,10,14,1,0,11,-10
1523182618832749,-8,-17,-67,-37,-2,1,-2,-50
1523182618847790,-1,6,51,30,5,0,4,25
1523182618847790,-45,-29,38,-36,1,6,7,-7
1523182618849833,-9,1,-34,5,-1,-3,-3,-22
1523182618849833,17,-1,16,15,0,1,9,23
1523182618869849,-9,-13,-5,-7,1,5,-14,-33
1523182618869849,-8,-2,-15,-15,-1,-2,-9,-29
1523182618871852,-8,-10,24,11,3,-1,3,-5
1523182618871852,-15,11,-5,-4,-2,-1,-8,5
1523182618884139,16,13,-24,6,0,-2,5,-27
1523182618884139,-9,-17,2,56,3,-1,2,7
1523182618893161,-40,-13,-29,-96,-16,-7,-22,-35
1523182618893161,22,-3,0,-14,-3,-2,-1,25
1523182618908203,16,14,22,15,6,4,15,29
1523182618908203,-19,-14,-40,1,2,2,-5,36
1523182618909204,-23,-2,38,23,1,-5,-2,-29
1523182618909204,-27,6,18,15,0,-1,-1,-9
1523182618930259,-7,-13,-13,-14,-8,-3,11,31
1523182618930259,70,2,-22,-27,1,1,22,-30
1523182618932265,-22,0,-20,-2,3,6,-2,36
1523182618932265,1,-3,0,-14,-1,1,-7,27
1523182618944305,12,4,3,19,-1,1,-9,-56
1523182618944305,-27,-16,-43,8,0,-2,5,23
1523182618953322,-12,0,15,27,8,3,-8,-43
1523182618953322,-9,-3,35,12,0,-1,-5,2
1523182618967360,-16,0,-50,-26,-7,-5,-4,-8
1523182618967360,7,24,1,-8,1,2,-1,8
1523182618969363,0,-9,21,11,-2,-3,-4,-32
1523182618969363,-14,-3,-35,-3,-2,2,0,0
1523182618990420,-24,-6,19,-3,-2,-2,-7,14
1523182618990420,23,8,19,2,1,1,8,24
1523182618991630,16,-3,-43,-1,-3,-6,14,81
1523182618991630,-40,18,87,86,12,3,13,-55
1523182619003455,45,-10,-42,-85,-12,-3,-3,-8
1523182619003455,7,-1,-36,21,-20,-6,7,-10
1523182619013486,4,-2,24,56,17,8,21,21
1523182619013486,47,-4,-5,-37,-1,-2,4,-41
1523182619027522,-14,-3,18,113,19,-1,-21,-32
1523182619027522,-20,-4,31,-103,-17,-7,0,-22
1523182619029531,35,24,11,14,-2,5,4,14
1523182619029531,-79,0,-9,-28,-2,-1,-3,26
1523182619050580,-12,-13,38,57,11,-2,0,-28
1523182619050580,9,-7,-60,-91,-20,-19,-18,5
1523182619051582,-35,13,4,13,3,14,5,-27
1523182619051582,27,-6,-16,-20,-3,-2,1,47
1523182619063616,-7,-4,-18,-13,0,2,2,16
1523182619063616,-19,3,57,68,16,5,-2,17
1523182619072640,29,-18,28,-36,-11,-10,0,-17
1523182619072640,-49,-7,-20,-6,-2,-3,-15,-57
1523182619087679,-7,31,31,-20,-16,-1,11,27
1523182619087679,46,-15,54,33,11,4,0,30
1523182619089684,-16,-12,-5,-22,-6,-9,-3,-17
1523182619089684,-6,0,-20,3,1,2,-8,-42
1523182619110748,33,0,2,6,2,-1,-3,35
1523182619110748,23,5,-8,-1,1,3,12,40
1523182619111748,15,-10,-17,27,-1,3,2,15
1523182619111748,-11,-19,21,-59,-6,-6,3,-10
1523182619123774,27,0,-26,0,-4,-2,-5,10
1523182619123774,-39,-4,3,22,4,3,-3,-8
1523182619132800,15,4,-7,-9,-12,-10,-7,-5
1523182619132800,29,-7,-7,19,-6,-3,3,29
1523182619147839,-12,-12,-13,2,1,2,10,0
1523182619147839,3,7,15,-19,3,7,-13,-38
1523182619149844,49,-5,10,63,9,-4,1,32
1523182619149844,9,11,-12,-22,-8,-2,-9,9
1523182619169898,5,2,6,-9,5,1,-1,-35
1523182619169898,-8,3,-13,25,-8,-8,-10,10
1523182619171903,-46,16,-5,-21,1,-3,-8,-26
1523182619171903,18,-2,-4,33,0,1,2,29
1523182619183937,-20,-5,-14,-49,-1,0,9,-10
1523182619183937,13,13,53,21,5,2,0,-32
1523182619192958,-2,-13,-17,-18,-3,0,2,0
1523182619192958,-11,10,-8,-30,-7,-6,2,-3
1523182619208233,-32,0,34,50,6,2,12,17
1523182619208233,-7,-13,9,16,1,0,-7,-27
1523182619209001,-6,3,-19,-35,-8,-1,-9,-18
1523182619209001,30,0,-10,31,10,7,9,-28
1523182619230057,0,-3,17,-17,-2,-3,-7,28
1523182619230057,-40,5,0,-15,-6,0,5,15
1523182619232062,-7,3,-27,2,6,1,-5,-32
1523182619232062,-18,-5,20,-2,-3,-3,-3,6
1523182619253198,36,4,64,3,7,0,3,2
1523182619253198,23,9,4,113,17,-2,-6,32
1523182619254208,-19,-15,-45,-102,-1,-3,0,-39
1523182619254208,-3,-8,-2,82,-24,6,3,-11
1523182619268158,21,-33,-59,4,-13,-9,-1,21
1523182619268158,3,-4,13,9,5,3,0,7
1523182619269161,19,11,14,-90,-10,-1,-6,-2
1523182619269161,91,0,19,5,24,2,-5,16
1523182619290218,7,3,-31,64,-8,-10,9,36
1523182619290218,57,5,-26,-47,-14,-1,-1,15
1523182619292222,-47,-35,-18,29,7,-5,-13,-65
1523182619292222,2,16,15,-34,-2,-2,-8,-9
1523182619312278,-28,-2,12,-13,-1,3,-7,-38
1523182619312278,-6,-7,-6,-37,3,0,6,8
1523182619314281,-21,-4,-16,14,2,4,9,37
1523182619314281,-22,-10,-6,4,-8,-8,-4,-1
1523182619328322,-8,2,9,-14,2,6,1,-8
1523182619328322,38,8,-9,-23,-9,-3,-6,-7
1523182619329321,27,-15,34,70,6,4,1,4
1523182619329321,-35,9,-24,53,5,-6,-3,6
1523182619350377,-4,9,-18,-68,-11,-6,-3,-3
1523182619350377,-24,-9,10,26,6,1,-8,-18
1523182619351380,39,16,14,-5,-3,3,8,21
1523182619351380,2,14,-30,47,6,3,8,53
1523182619373476,23,-13,36,35,6,1,-8,-11
1523182619373476,-49,-13,-35,-48,-12,-12,-13,-44
1523182619374440,26,11,38,-48,-5,-6,4,23
1523182619374440,-22,-3,29,46,17,8,4,-23
1523182619386474,-27,-2,-27,-13,7,11,-2,-23
1523182619386474,6,15,24,-33,3,7,4,-3
1523182619401513,23,-4,2,45,-12,-11,-4,17
1523182619401513,-22,-1,13,-45,-4,-5,-8,16
1523182619410542,-37,9,-18,-20,1,3,4,-6
1523182619410542,-41,-16,0,47,7,-2,-12,-21
1523182619411542,-44,4,14,-7,-12,-3,11,-2
1523182619411542,32,6,-16,-25,-6,3,23,-12
1523182619432595,-47,-6,7,29,4,-2,-7,-38
1523182619432595,-37,-12,-27,-40,-6,3,-14,21
1523182619434600,-17,-13,-3,36,6,-5,-9,-17
1523182619434600,-1,-9,-14,18,-7,-6,0,12
1523182619446638,0,11,6,-43,-7,-1,10,10
1523182619446638,-6,4,-10,16,3,0,2,-54
1523182619453652,-7,-1,-11,22,-2,3,3,4
1523182619453652,11,-30,14,-16,6,4,-6,21
1523182619470696,22,16,5,-1,-11,-5,-5,15
1523182619470696,-7,-10,-19,53,4,-5,-1,3
1523182619471699,30,18,35,-59,2,0,-4,25
1523182619471699,25,-8,-15,-39,-20,-9,-7,-16
1523182619492921,0,15,2,62,11,2,4,30
1523182619492921,47,1,8,4,-2,6,9,35
1523182619494766,-5,-15,5,25,1,-4,-7,-24
1523182619494766,-45,1,15,-28,-4,-7,-12,-34
1523182619507029,4,8,26,43,2,7,14,30
1523182619507029,27,17,-1,-42,-4,-2,-16,-17
1523182619513815,-69,-11,-47,-31,-6,-10,-27,-66
1523182619513815,13,-8,-15,-10,-20,-11,-6,-5
1523182619529861,1,3,-1,2,-2,-4,-5,-14
1523182619529861,17,1,-9,15,2,7,21,36
1523182619531859,23,15,10,20,8,8,19,17
1523182619531859,-41,-6,10,-7,15,2,-4,17
1523182619553152,-6,9,22,-15,-3,1,1,24
1523182619553152,7,5,8,27,-2,-7,-5,-3
1523182619553918,41,-13,-20,8,0,5,9,50
1523182619553918,-10,9,-66,28,1,-7,-21,-109
1523182619566993,-43,-35,-18,17,-4,-2,2,69
1523182619566993,28,2,-7,-55,-5,4,3,88
1523182619573973,-80,17,-23,92,7,-9,-21,-83
1523182619573973,25,-10,17,43,-12,-4,-3,15
1523182619590247,62,-6,-26,-65,-10,-7,0,22
1523182619590247,-81,-49,3,58,15,5,12,-101
1523182619592019,33,4,2,-47,-1,7,0,127
1523182619592019,-10,-2,23,-34,4,7,2,-11
1523182619613076,-17,-25,-29,-18,-13,-11,-2,18
1523182619613076,-5,12,10,13,-4,-8,1,11
1523182619614077,11,9,5,23,-4,1,-2,-44
1523182619614077,-15,-11,27,-26,13,4,6,21
1523182619627112,38,-4,-27,-64,-7,1,-7,-37
1523182619627112,23,5,17,71,-4,-8,-11,-28
1523182619634131,2,-8,10,61,9,6,26,-2
1523182619634131,33,1,-20,-20,-11,-3,-20,12
1523182619650172,-16,16,22,10,11,6,-17,22
1523182619650172,41,-25,-29,-27,-13,-11,-9,-7
1523182619652179,14,20,-2,-14,3,-1,-2,-39
1523182619652179,16,19,31,21,9,4,13,32
1523182619680253,-67,-24,1,-10,9,-1,-6,-77
1523182619680253,-28,6,-38,-24,-18,-5,-2,16
1523182619682258,46,0,-2,-60,3,7,7,66
1523182619682258,-56,-6,-24,-42,-13,-4,7,18
1523182619687311,-32,-4,16,-23,-12,-13,-9,-70
1523182619687311,-35,16,-25,-63,2,7,-7,-28
1523182619694299,-56,-3,36,23,18,6,16,1
1523182619694299,-20,30,-34,-24,-4,10,7,-39
1523182619710338,-28,-23,-42,57,-26,-13,-2,33
1523182619710338,8,18,61,97,13,-9,-15,-20
1523182619712345,19,-8,-8,25,-9,1,1,10
1523182619712345,17,4,-14,-33,4,-3,-2,23
1523182619732395,66,32,23,-48,7,17,27,28
1523182619732395,-22,-21,-17,-17,2,-2,-9,-47
1523182619734397,-45,-24,-1,-16,-6,-9,-31,-48
1523182619734397,16,-6,-7,14,6,-6,-8,79
1523182619746472,7,-5,30,111,5,4,-1,-39
1523182619746472,-7,16,-16,-53,-10,1,15,56
1523182619755454,8,14,-10,-39,-8,-2,5,20
1523182619755454,-8,2,-3,3,3,2,-6,-6
1523182619770532,34,14,-2,-26,6,5,-3,-6
1523182619770532,62,-1,20,15,8,3,3,5
1523182619771505,-8,-31,-22,-35,-21,-10,-7,-20
1523182619771505,-8,-16,56,36,3,1,31,20
1523182619792677,4,7,-14,17,11,0,-33,-2
1523182619792677,-11,-9,4,-28,-11,-6,-10,-35
1523182619794559,28,-27,23,32,-2,1,2,87
1523182619794559,0,-3,-6,4,-4,-5,3,-48
1523182619806821,78,10,5,92,7,-10,-19,-45
1523182619806821,-26,-25,-3,-100,-7,6,7,-7
1523182619815613,25,24,-11,112,-5,-2,-2,17
1523182619815613,-14,4,-13,6,-9,-2,-1,-1
1523182619830654,-13,12,17,54,16,3,0,-11
1523182619830654,-11,13,23,-22,-11,0,6,53
1523182619831656,119,-5,6,96,18,5,20,43
1523182619831656,-66,-24,2,-17,-12,-10,-34,-81
1523182619852715,-32,-3,-12,-36,-7,-3,6,-12
1523182619852715,99,12,-39,-34,3,5,16,104
1523182619854718,-3,-1,5,-31,-8,-4,0,-23
1523182619854718,-6,1,12,14,4,3,-4,-36
1523182619866982,-33,-20,45,94,27,3,7,16
1523182619866982,-92,-9,-34,77,-22,-9,-1,-16
1523182619875773,-80,-9,-34,-4,-14,-6,-19,7
1523182619875773,5,18,-24,31,4,3,-6,26
1523182619890046,-57,-7,68,71,17,3,-1,-18
1523182619890046,-10,-13,-28,-51,-10,-12,-14,-98
1523182619890814,2,-13,-14,-74,-12,-3,7,-62
1523182619890814,52,12,25,76,16,2,-6,71
1523182619911879,-15,0,-24,-128,-18,4,12,2
1523182619911879,-92,5,4,42,1,-3,0,1
1523182619912882,37,10,63,3,23,5,-14,-72
1523182619912882,37,20,36,20,15,12,16,24
1523182619934942,60,-11,-45,-127,-40,-9,17,34
1523182619934942,-5,17,36,127,29,-10,-8,33
1523182619934942,-11,7,-16,-8,-6,24,11,-44
1523182619934942,-9,-9,33,29,10,-9,-8,-29
1523182619949972,2,-3,49,111,21,9,0,5
1523182619949972,20,-6,-55,-54,-36,-5,3,49
1523182619949972,-2,-6,-2,27,9,-4,10,13
1523182619949972,8,3,16,72,3,1,-9,-19
1523182619972033,10,11,-52,-91,-34,-14,-11,-9
1523182619972033,61,-19,8,59,37,1,-7,-43
1523182619973032,48,-15,-15,12,-7,1,34,127
1523182619973032,43,1,-40,-47,-23,-20,-19,-93
1523182619995092,-7,-6,19,4,1,-13,-13,-17
1523182619995092,18,23,3,-49,15,15,19,60
1523182619995092,-11,22,5,-45,-31,-8,-30,6
1523182619995092,-37,-13,-7,-23,-15,-6,5,32
1523182620010138,-16,9,3,4,10,9,-2,-40
1523182620010138,66,2,64,103,17,14,13,-11
1523182620010138,-38,-8,-55,94,4,-9,13,48
1523182620010138,-62,-20,9,39,3,-3,-1,-27
1523182620032189,47,8,-57,31,4,6,-3,10
1523182620032189,-99,-9,6,19,-15,-5,4,7
1523182620033194,-62,-22,-3,-102,-25,-15,-27,-128
1523182620033194,27,-5,-15,-47,11,10,12,37
1523182620054248,-16,7,8,52,-4,-12,7,-6
1523182620054248,-2,-2,-11,-6,18,15,12,59
1523182620055251,-65,11,-1,-21,11,0,-18,-19
1523182620055251,36,6,10,-60,12,9,1,-18
1523182620069288,65,-23,-11,19,-25,-9,0,29
1523182620069288,-21,-1,11,-36,-18,-6,0,-44
1523182620070290,-61,-12,-11,14,1,-7,-21,-4
1523182620070290,0,-4,25,-39,-13,-8,-3,22
1523182620092347,3,5,-73,-6,10,11,4,-6
1523182620092347,-20,-14,-2,16,-7,-9,-7,-84
1523182620093354,45,16,28,58,20,2,4,57
1523182620093354,-19,10,-12,-43,-22,-4,1,-11
1523182620114407,-15,-2,-3,-73,5,8,-2,-17
1523182620114407,95,-3,10,4,-9,-6,-1,5
1523182620115410,-35,9,9,-15,3,-2,-4,-61
1523182620115410,16,-9,-8,27,-1,10,12,64
1523182620129448,-44,12,13,9,13,-3,-9,-56
1523182620129448,20,17,-11,-24,-15,-4,5,35
1523182620130449,8,-3,2,3,-1,2,0,-3
1523182620130449,17,14,29,19,16,4,0,22
1523182620160532,4,2,-11,2,-3,2,10,23
1523182620160532,-53,17,-25,3,4,3,11,-52
1523182620161536,18,-6,23,10,-3,-6,-13,46
1523182620161536,-33,-19,-12,11,-2,-2,6,-16
1523182620174802,85,-42,-60,-64,-35,-17,-11,7
1523182620174802,65,11,8,4,3,-5,-24,-26
1523182620175569,1,-3,9,97,11,8,18,8
1523182620175569,5,3,4,-12,6,-1,-2,8
1523182620189606,-28,-4,71,49,9,-2,-4,5
1523182620189606,66,-20,19,-33,-15,10,4,-17
1523182620190611,-21,-1,-11,9,-3,-14,-26,-83
1523182620190611,52,-5,-42,-25,-19,-6,0,51
1523182620211667,-83,-8,22,10,13,1,4,21
1523182620211667,18,3,-3,38,15,8,2,31
1523182620212669,-8,4,24,24,2,-1,3,-33
1523182620212669,-14,-7,-36,-69,-9,-2,-10,-17
1523182620234729,1,11,-7,-49,-17,-1,22,68
1523182620234729,-56,-6,-33,50,6,-8,-16,-8
1523182620235730,19,-10,-4,-56,-4,4,22,-16
1523182620235730,-23,14,-16,35,-22,-6,-24,-38
1523182620249767,-66,26,37,55,10,5,4,7
1523182620249767,-73,-12,10,4,-6,-6,-6,6
1523182620250809,-11,3,-48,-76,-6,-4,-1,-13
1523182620250809,-13,2,23,123,16,6,16,2
1523182620271827,13,4,-22,-87,-16,-3,-11,-19
1523182620271827,53,-15,-30,-60,-13,-14,-26,27
1523182620272829,-7,20,20,33,2,2,1,42
1523182620272829,-41,-7,-5,17,0,-6,-15,-72
1523182620294891,-27,-6,-2,21,4,1,-13,-10
1523182620294891,-18,-12,7,23,3,4,28,20
1523182620294891,111,7,-24,-19,-1,-1,21,92
1523182620294891,13,1,-5,-44,-3,6,8,7
1523182620309933,-15,7,10,24,7,-3,-7,-33
1523182620309933,31,-15,2,-18,-22,-13,0,6
1523182620310932,18,12,25,32,-2,2,7,19
1523182620310932,-20,-8,-23,35,12,2,6,2
1523182620331985,-14,2,-18,-70,5,-1,-14,-55
1523182620331985,-14,0,1,-19,-33,-7,-8,-46
1523182620332989,65,1,3,1,-12,-3,2,90
1523182620332989,8,-9,-5,67,12,2,0,0
1523182620355184,0,-22,9,-46,-8,0,3,-5
1523182620355184,-13,12,-9,35,18,6,-7,-61
1523182620355184,-27,-8,1,0,-2,1,9,20
1523182620355184,30,-22,-11,-34,-8,-5,-2,10
1523182620369084,7,30,-3,57,13,5,-1,15
1523182620369084,-60,8,28,0,12,-3,5,-26
1523182620370087,-117,-12,-6,-69,-15,-6,-42,-43
1523182620370087,45,5,11,15,-10,-3,12,57
1523182620392189,16,4,12,44,-2,-5,-8,-6
1523182620392189,28,19,-10,7,7,4,-4,25
1523182620393152,-54,-8,-7,13,13,4,-4,-116
1523182620393152,-17,8,12,-13,-9,-1,-4,-37
1523182620414204,0,-19,15,23,-5,-8,-1,68
1523182620414204,19,9,-1,8,6,7,-2,-6
1523182620415246,45,6,21,32,16,3,6,39
1523182620415246,-50,-6,-1,-75,-19,-5,-11,-66
1523182620429245,5,0,-36,68,6,1,8,-17
1523182620429245,-28,1,14,2,3,3,32,106
1523182620430247,-36,8,10,3,3,-5,-20,-80
1523182620430247,-18,2,-13,-50,-19,-3,5,-24
1523182620452306,-8,-19,-29,-2,-3,-1,-5,74
1523182620452306,-19,7,8,2,8,1,-20,10
1523182620453308,-22,-6,-19,-9,1,0,-2,-22
1523182620453308,-19,17,0,23,-1,-3,-4,-3
1523182620474596,15,5,-7,-36,-5,1,27,17
1523182620474596,-49,-23,-48,-35,-19,-5,-16,-46
1523182620475365,32,1,45,43,8,1,0,-4
1523182620475365,32,-7,9,23,16,4,3,40
1523182620489404,21,8,21,17,3,5,9,17
1523182620489404,-38,-11,-37,1,4,4,8,33
1523182620490408,29,10,24,21,-8,-9,-13,-25
1523182620490408,-19,-9,-4,-22,-12,-5,4,24
1523182620512467,-7,0,-1,34,8,4,-5,-3
1523182620512467,6,-7,-1,-42,-2,-1,-6,-7
1523182620512467,-32,-3,-6,28,-4,4,-1,16
1523182620512467,-19,5,-17,-21,-3,-3,11,82
1523182620534525,-66,-10,29,8,-3,-3,-15,-33
1523182620534525,18,23,29,9,4,-2,-12,-34
1523182620535527,-14,-2,-29,-24,-8,-2,8,-9
1523182620535527,106,-17,13,19,9,2,-5,-13
1523182620549565,43,8,-9,-20,-14,-3,-4,-31
1523182620549565,45,19,3,-3,-2,-2,14,63
1523182620550567,-12,4,4,3,3,0,-7,-15
1523182620550567,-4,4,-14,-31,1,0,-7,22
1523182620571622,24,-14,6,14,-4,-2,-4,-25
1523182620571622,33,11,33,13,4,3,11,51
1523182620572625,31,3,-36,-24,-7,-2,5,11
1523182620572625,-27,-2,-1,24,5,-7,-23,-45
1523182620594685,3,-3,-33,-17,-2,2,-5,-10
1523182620594685,1,-11,48,23,6,-1,-7,-43
1523182620595687,63,10,-6,-42,-17,-1,11,30
1523182620595687,11,-4,-2,18,1,1,10,-8
1523182620609726,-71,4,-33,5,3,-4,-7,-41
1523182620609726,11,-18,-17,-6,-1,-1,-10,-14
1523182620610731,8,-4,5,-10,-1,-1,15,17
1523182620610731,14,18,15,17,7,4,5,0
1523182620631785,-9,-9,7,9,5,-3,-8,-18
1523182620631785,0,-3,-5,-15,-8,-2,3,-7
1523182620632786,-21,-30,7,36,0,-1,-6,72
1523182620632786,-19,7,-37,-44,-12,-7,-5,-43
1523182620655076,86,17,30,7,5,1,13,64
1523182620655076,-40,-3,4,-27,-4,-2,3,-26
1523182620655076,18,0,-19,2,4,-2,-9,-37
1523182620655076,-23,-4,14,27,7,-3,-8,-24
1523182620668881,-1,5,24,5,-8,-4,-3,0
1523182620668881,-1,-2,-19,15,8,0,3,-11
1523182620676908,26,-18,-10,-36,-13,0,5,20
1523182620676908,-87,-2,6,-13,5,-1,-1,-11
1523182620691980,11,1,-5,22,6,2,1,-47
1523182620691980,-30,-4,22,77,16,3,2,20
1523182620692950,84,-6,-37,-105,-21,-6,-3,6
1523182620692950,7,7,22,27,3,5,3,15
1523182620715006,3,1,0,-7,-1,2,11,9
1523182620715006,-4,1,-2,32,11,-1,-22,-17
1523182620716007,-67,6,-7,2,-13,-6,-1,-2
1523182620716007,-9,-14,0,-27,5,0,2,32
1523182620730046,6,2,7,-18,-18,-2,3,8
1523182620730046,41,12,2,6,3,0,3,17
1523182620730046,-103,-8,-9,-57,0,-6,-13,-51
1523182620730046,73,14,-6,-6,0,-2,11,5
1523182620752142,6,-10,6,10,1,2,-7,18
1523182620752142,-22,8,-9,0,-3,0,-1,-4
1523182620753105,-7,8,10,0,5,1,2,2
1523182620753105,20,2,15,26,1,2,8,17
1523182620774161,-38,2,-23,-22,-7,-5,-6,-17
1523182620774161,45,-9,-16,-8,-9,-2,2,0
1523182620775163,0,13,26,23,8,4,2,-3
1523182620775163,-12,-4,-14,41,6,-1,-3,0
1523182620789201,39,-4,-16,-16,-10,-4,-4,-4
1523182620789201,-22,-7,-12,-34,-11,-8,-11,-2
1523182620797226,38,1,3,39,5,2,5,-23
1523182620797226,-29,-10,-10,-7,0,3,-1,32
1523182620812265,-8,-16,33,10,8,5,9,37
1523182620812265,-35,7,8,13,4,-3,-2,-12
1523182620813265,-20,-6,-17,-34,-8,-4,-3,-17
1523182620813265,34,6,-14,49,6,7,11,-7
1523182620835324,2,9,-39,-75,-7,0,13,65
1523182620835324,16,-24,14,-15,-5,-2,-9,-29
1523182620836326,-12,7,41,46,9,-1,-5,-9
1523182620836326,8,8,13,-19,-4,0,-2,-3
1523182620848358,-51,4,12,89,-1,-2,0,-2
1523182620848358,-13,-1,6,21,-5,0,2,-27
1523182620857615,-64,-35,-9,59,19,-2,-5,-33
1523182620857615,1,12,11,89,16,2,-8,-5
1523182620872424,-5,-41,-10,-99,-18,-5,-3,-20
1523182620872424,-5,-2,-8,-83,-23,-3,4,17
1523182620872424,-33,14,3,21,-4,1,4,15
1523182620872424,-14,-30,33,67,4,-4,-7,-5
1523182620894487,42,-8,-29,65,8,-2,-13,-53
1523182620894487,28,7,-37,-56,-12,-1,8,74
1523182620895486,47,9,14,-57,-3,2,5,19
1523182620895486,34,-8,-4,-10,-5,3,13,42
1523182620908527,-7,4,3,-9,5,-5,-19,-58
1523182620908527,-9,-12,10,22,1,-3,-11,-53
1523182620917544,34,22,-13,8,0,-1,2,-2
1523182620917544,-17,-2,-25,-102,-20,-5,-6,67
1523182620931581,4,0,13,31,13,2,6,19
1523182620931581,-5,4,15,39,5,0,1,-5
1523182620932582,-13,8,11,24,-3,-1,-5,0
1523182620932582,2,-9,-25,-24,1,-3,-6,-47
1523182620954875,0,13,-14,4,-10,-1,-1,-8
1523182620954875,-13,-23,26,62,4,-2,3,10
1523182620955643,27,8,0,0,-3,4,11,-6
1523182620955643,-46,4,14,17,9,-3,-14,-54
1523182620968689,-21,2,2,14,2,2,-3,8
1523182620968689,-23,17,14,27,15,5,5,-34
1523182620977709,37,8,-6,-14,2,3,1,68
1523182620977709,22,7,-11,-2,-12,-4,1,-11
1523182620991776,-13,-1,12,-16,8,3,3,-5
1523182620991776,42,5,6,11,-2,-1,5,25
1523182620992750,-51,-34,-25,-11,-10,-9,-10,-27
1523182620992750,-22,5,11,21,5,3,-3,-8
1523182621014801,16,14,1,-2,-6,-1,6,16
1523182621014801,11,-12,-5,-20,3,0,-2,4
1523182621015804,20,2,-7,57,5,-2,-7,-6
1523182621015804,33,1,-11,-100,-18,-4,7,37
1523182621028846,-27,-5,30,76,11,2,1,-43
1523182621028846,-6,-6,-9,-29,-6,-4,-19,-3
1523182621036860,62,9,-4,-5,2,0,8,46
1523182621036860,1,-19,9,43,6,-6,-3,-48
1523182621052132,-9,-3,-20,-67,-10,1,-12,-18
1523182621052132,-3,-1,-12,-23,-5,0,-2,-3
1523182621052901,-7,3,-3,-33,-23,-4,5,-4
1523182621052901,-2,1,0,12,-1,-1,11,79
1523182621074961,-49,-20,22,24,11,-3,-2,-4
1523182621074961,-8,-9,-9,18,13,1,0,-18
1523182621075963,7,1,3,-2,-7,0,0,13
1523182621075963,-26,-11,-2,-28,-6,0,1,-46
1523182621089000,8,-1,-18,15,0,-1,0,-3
1523182621089000,-32,8,25,58,4,-1,-11,-23
1523182621097022,-43,-9,-36,-76,-8,-2,-6,-25
1523182621097022,-3,-6,-12,-61,-23,-5,-7,-17
1523182621112061,57,11,-5,-32,-8,-6,6,31
1523182621112061,108,1,-13,0,-9,-1,-8,15
1523182621113062,-43,-9,9,25,12,2,-4,-29
1523182621113062,-47,0,1,38,3,-2,-7,-11
1523182621134119,6,-2,-24,-41,-11,-4,-1,4
1523182621134119,15,21,3,-32,-2,3,8,-9
1523182621135121,-9,-2,28,78,20,3,-1,34
1523182621135121,-9,-8,-43,-40,-19,-6,-17,-48
1523182621158222,-12,-1,33,57,10,0,-2,34
1523182621158222,-47,-5,-16,-2,-6,-5,12,1
1523182621158222,28,-12,-12,30,1,-3,-8,-22
1523182621158222,-14,2,4,-24,-7,1,37,86
1523182621172219,-47,-1,5,-11,7,0,-19,-15
1523182621172219,-39,9,19,8,-7,-6,-13,-36
1523182621173224,57,12,5,-15,-2,1,19,34
1523182621173224,-28,1,2,-16,-7,-3,-11,-60
1523182621194283,-27,-4,1,-2,-2,0,9,16
1523182621194283,59,-7,-4,3,7,3,15,20
1523182621195281,-25,8,2,1,3,2,-11,-27
1523182621195281,35,22,32,36,12,6,-2,-5
1523182621217377,7,-11,-22,-68,-13,-3,-1,2
1523182621217377,-31,-16,-12,-20,-2,1,-9,-37
1523182621218342,-23,16,-1,33,14,0,3,41
1523182621218342,-29,-8,15,3,-3,0,-9,4
1523182621232379,18,5,-11,-7,-2,-3,14,-39
1523182621232379,-12,-10,-17,-26,-8,-2,-3,35
1523182621233383,15,-7,7,7,12,3,0,-16
1523182621233383,27,10,3,23,5,3,3,18
1523182621254670,-7,5,15,17,-5,-2,3,-9
1523182621254670,-13,-2,0,-6,-2,-2,-5,-3
1523182621255438,-42,-3,8,7,-1,-3,-5,-37
1523182621255438,10,-27,-22,23,8,1,0,-3
1523182621277551,16,3,-20,-50,-6,-2,-5,2
1523182621277551,70,12,6,47,-2,0,12,37
1523182621278503,-26,-14,-17,-80,0,-3,-14,-22
1523182621278503,17,11,-15,-89,-25,-7,-13,-10
1523182621292554,4,6,-8,53,10,1,3,-5
1523182621292554,-58,1,-8,-7,-3,-1,-4,2
1523182621292554,3,-2,16,21,0,1,9,11
1523182621292554,-4,-2,1,26,14,2,1,-10
1523182621314597,-24,-22,-17,-26,-18,-11,-13,-46
1523182621314597,30,5,10,-11,2,0,5,27
1523182621315601,-46,-5,-2,18,-9,-5,-13,17
1523182621315601,0,-8,5,16,5,-4,2,11
1523182621337662,8,5,13,14,0,1,1,-8
1523182621337662,-7,5,-9,35,9,3,0,3
1523182621338663,21,-18,-33,-101,-16,-2,3,-3
1523182621338663,-18,18,-10,3,-2,2,-6,-53
1523182621352737,-9,-14,1,13,6,0,-17,23
1523182621352737,-31,1,-5,-5,2,-4,-4,-11
1523182621352737,19,3,5,18,-4,1,6,12
1523182621352737,4,11,-2,16,6,2,-3,-13
1523182621374795,82,29,41,-27,-3,4,9,37
1523182621374795,-51,-6,-9,67,5,-2,5,-30
1523182621375761,-3,-23,0,-56,-9,-7,-19,-28
1523182621375761,0,-4,-7,12,-2,-4,0,0
1523182621397818,10,-1,13,31,6,-1,-1,14
1523182621397818,26,6,22,-26,-7,0,3,5
1523182621398822,-15,-8,-1,41,3,0,20,71
1523182621398822,-12,-2,10,13,-3,0,3,6
1523182621411858,76,-13,-8,-6,-1,-3,-5,15
1523182621411858,-44,-10,3,-9,-5,-3,4,-40
1523182621412859,2,3,4,3,-10,-6,-9,-47
1523182621412859,-19,-3,-20,-11,4,2,-4,6
1523182621434917,-26,6,16,29,8,2,3,31
1523182621434917,19,-10,-19,-23,-5,3,3,14
1523182621441936,30,15,-13,15,-1,0,9,-14
1523182621441936,12,-4,8,7,1,-3,-4,9
1523182621457979,-21,4,5,7,2,2,6,-22
1523182621457979,14,-5,-46,-3,0,-1,-6,10
1523182621458989,6,8,13,-20,0,3,3,10
1523182621458989,16,3,3,13,-5,-4,-2,12
1523182621472016,-34,-25,-12,-34,1,1,-1,-27
1523182621472016,-1,-8,6,-11,1,-1,3,36
1523182621473017,43,32,-10,29,0,-1,-2,-11
1523182621473017,-57,-5,12,-4,2,1,0,-6
1523182621494075,63,24,0,12,-1,1,-7,-19
1523182621494075,-16,1,-9,-26,-8,-8,-25,24
1523182621495077,-19,-14,11,18,4,0,-8,2
1523182621495077,22,32,1,-6,-1,-4,11,-14
1523182621518138,-25,14,17,10,1,5,-5,63
1523182621518138,-10,2,14,-3,0,1,-4,-34
1523182621518138,69,32,14,16,1,-3,-7,0
1523182621518138,10,-31,-7,-7,0,-2,0,11
1523182621532178,13,-5,-9,1,-6,-4,0,-21
1523182621532178,-14,-10,-12,-13,0,-1,1,2
1523182621533181,-20,-23,11,-3,-4,1,-3,-16
1523182621533181,0,-5,5,3,7,0,0,3
1523182621554473,28,-1,36,37,-5,-7,1,-5
1523182621554473,-2,3,-28,-75,-9,-3,-6,-31
1523182621555252,3,7,-1,-20,-4,-2,9,28
1523182621555252,24,1,-2,29,5,5,2,37
1523182621577297,-92,-33,-25,-32,0,1,-2,-22
1523182621577297,-7,-2,33,23,-7,0,10,-17
1523182621578300,-19,-2,12,30,9,-1,-9,-43
1523182621578300,-6,4,-9,-15,-6,0,-10,-2
1523182621592336,-13,-10,-2,44,8,0,-9,13
1523182621592336,18,18,-15,-66,-9,-3,1,-2
1523182621593342,17,-27,-13,3,-3,-2,0,-12
1523182621593342,-32,-6,29,18,4,1,-7,-39
1523182621614395,-17,24,-4,-11,1,0,15,-23
1523182621614395,-5,-12,2,0,0,-1,1,15
1523182621622417,36,3,-5,7,-6,0,-16,5
1523182621622417,32,-24,-12,-7,6,-7,-18,-22
1523182621637456,17,-10,-11,-1,-10,-2,2,14
1523182621637456,-7,9,-20,35,6,2,6,-3
1523182621638498,-87,-6,2,-56,-9,-5,13,-44
1523182621638498,30,-21,25,-3,-2,1,4,14
1523182621652679,-25,-8,-2,-22,-1,0,3,26
1523182621652679,45,7,17,62,13,7,9,-2
1523182621652679,-24,-22,-21,-23,-3,-4,-16,-25
1523182621652679,-46,20,14,-20,-11,-7,1,-33
1523182621674563,23,8,-14,-9,-6,-5,-15,37
1523182621674563,20,-3,7,10,0,0,1,37
1523182621675579,-7,-8,-3,19,5,1,5,-20
1523182621675579,13,-19,8,38,1,-2,0,62
1523182621697615,43,-4,-22,-64,-15,-4,-1,-6
1523182621697615,-32,-6,0,-7,0,-4,-20,-28
1523182621698618,31,-2,0,14,3,1,20,45
1523182621698618,-10,12,-29,-3,1,1,15,13
1523182621720677,-59,-20,6,18,-2,-6,-24,-85
1523182621720677,17,19,-17,10,-5,-3,-2,5
1523182621720677,-9,-10,-9,-35,-7,1,-5,18
1523182621720677,-3,17,-4,-5,-1,2,4,-7
1523182621734719,-12,0,6,-11,-2,1,7,24
1523182621734719,-10,1,-7,19,3,-1,-4,-32
1523182621735717,-35,2,-8,-6,-1,-1,-12,-17
1523182621735717,0,-4,-5,-5,-2,0,-1,5
1523182621757813,13,20,5,15,-3,-3,21,69
1523182621757813,51,-16,14,5,-4,-4,-9,-33
1523182621758782,3,8,-29,-45,-10,-6,-6,-6
1523182621758782,-2,-14,-9,-13,-1,2,8,-17
1523182621771814,56,4,-2,57,11,2,9,5
1523182621771814,-22,-6,-4,-88,-13,-1,-11,8
1523182621779834,41,-3,9,34,-1,-3,-3,87
1523182621779834,-35,23,-19,-17,-6,-6,1,-17
1523182621794876,24,-3,-14,3,-1,2,-9,-17
1523182621794876,16,0,8,15,6,2,13,29
1523182621794876,-10,4,9,11,-2,4,-4,-34
1523182621794876,-26,0,-35,9,-4,-6,-22,-37
1523182621817935,-66,-3,21,17,7,1,4,-19
1523182621817935,7,-12,-7,-41,-10,-5,5,50
1523182621818938,1,15,9,18,4,3,19,-17
1523182621818938,17,-43,3,14,0,-3,-16,33
1523182621830970,-42,5,-34,-20,-8,-2,-20,-34
1523182621830970,-8,15,24,8,2,-4,5,-70
1523182621840174,15,-7,13,4,-2,0,2,62
1523182621840174,-6,-20,3,15,1,4,6,-6
1523182621855177,68,3,-36,-52,-8,-9,-24,-73
1523182621855177,0,2,-9,18,6,3,-2,-14
1523182621855177,5,0,5,12,3,4,7,5
1523182621855177,75,-26,18,0,2,-1,-4,-18
1523182621878095,-5,16,9,0,-3,-2,0,9
1523182621878095,-41,-12,26,23,0,2,19,15
1523182621878095,84,18,8,17,3,-4,-6,-28
1523182621878095,-5,10,-30,-88,-18,-5,-7,-27
1523182621901250,-48,-9,7,8,2,4,22,-30
1523182621901250,37,-15,-2,7,1,-5,-14,42
1523182621901250,7,-13,3,-6,5,6,8,56
1523182621901250,-68,7,-3,4,-7,-4,-11,-50
1523182621914191,104,39,10,8,5,-7,0,30
1523182621914191,-87,15,-41,-55,-12,0,14,90
1523182621915194,-52,3,10,54,5,-5,-19,-72
1523182621915194,22,32,-26,-49,0,7,13,46
1523182621938349,35,-20,24,36,-1,3,4,11
1523182621938349,7,3,-4,-34,-1,-2,-7,-14
1523182621938349,-73,21,-33,12,0,-6,-24,-14
1523182621938349,-31,-16,-9,-1,9,8,23,62
1523182621951525,-110,-10,4,25,-5,-8,-20,-62
1523182621951525,6,1,-10,27,11,3,3,12
1523182621959320,-15,-37,0,23,-13,-9,-2,-77
1523182621959320,25,28,30,39,13,6,-9,10
1523182621974349,-51,-11,-39,62,-20,-6,5,45
1523182621974349,-25,0,-1,69,-4,-6,-18,-60
1523182621975357,-47,-34,-8,40,4,1,2,-23
1523182621975357,-6,17,34,51,10,2,0,16
1523182621997415,-6,4,-3,-22,8,9,13,53
1523182621997415,50,-11,2,-11,1,-1,-2,-14
1523182621998415,-4,0,0,23,7,3,5,5
1523182621998415,7,-8,11,-3,-17,-6,-4,-23
1523182622011451,-20,16,-1,-46,5,1,2,-3
1523182622011451,-37,4,22,23,6,8,13,-30
1523182622019471,-29,58,4,-26,2,2,3,48
1523182622019471,6,-11,-12,5,-7,-6,14,-28
1523182622034549,-25,7,16,-13,7,8,4,-3
1523182622034549,35,-17,15,21,13,3,-7,-10
1523182622035514,26,-4,-5,-34,-9,-2,3,0
1523182622035514,7,12,-8,-18,-4,-4,8,37
1523182622057573,-13,-12,16,19,6,-1,2,-21
1523182622057573,-20,11,12,62,-2,-11,-20,-29
1523182622058575,-40,-13,-50,-86,-25,0,-7,-40
1523182622058575,29,-1,3,35,18,1,1,40
1523182622080634,51,-3,1,17,-5,5,-1,-12
1523182622080634,-7,3,0,8,7,9,2,47
1523182622080634,3,-22,9,-13,-9,-7,3,6
1523182622080634,-9,3,3,-2,4,-5,-15,-29
1523182622094672,-1,-6,2,-30,3,1,-1,11
1523182622094672,31,-10,-3,-32,-16,-8,-3,1
1523182622095673,20,4,4,10,10,7,6,5
1523182622095673,37,-5,3,-12,-3,-3,-9,-56
1523182622117738,39,-4,0,4,2,-4,-7,4
1523182622117738,-16,8,0,10,-1,3,8,-12
1523182622118736,102,-8,7,-7,5,2,-7,17
1523182622118736,114,-4,-5,31,-10,-10,2,42
1523182622140025,2,10,3,7,-7,-1,15,-20
1523182622140025,-20,-12,-11,-16,-3,-4,-15,-69
1523182622140823,-47,19,15,12,8,-3,3,33
1523182622140823,-13,0,-4,-20,-3,2,-5,-3
1523182622155063,-7,-13,-6,-8,-3,-1,-14,-5
1523182622155063,9,-2,4,13,1,1,3,14
1523182622155063,11,9,3,5,1,-3,-10,12
1523182622155063,-23,7,1,66,3,1,-1,-10
1523182622177893,-21,-5,-21,-55,-19,-11,-1,19
1523182622177893,18,4,3,1,4,4,4,21
1523182622178895,-64,-19,-2,10,-1,-2,-8,-48
1523182622178895,-24,17,-3,-4,-4,-5,-7,-5
1523182622199950,24,4,14,27,9,3,-5,5
1523182622199950,33,-1,-15,-53,-12,-8,-3,14
1523182622200951,6,-7,0,3,1,1,8,-6
1523182622200951,-17,1,11,20,7,3,0,-9
1523182622215012,-4,-27,-9,-58,-3,1,9,24
1523182622215012,28,5,-3,-13,-6,-4,-7,-64
1523182622215012,-28,-1,-2,5,-1,-2,4,48
1523182622215012,1,-5,8,13,4,4,10,27
1523182622238292,40,0,-24,-55,-11,-9,-21,-35
1523182622238292,-26,-22,13,35,11,0,-2,-6
1523182622238292,-15,-17,-14,-71,-9,-3,2,-7
1523182622238292,-8,7,-8,7,-13,0,1,6
1523182622260119,22,7,8,35,14,8,11,17
1523182622260119,-44,5,5,23,-8,-2,5,3
1523182622261113,-14,-5,-11,8,0,-6,-12,-6
1523182622261113,0,-8,10,10,9,2,3,20
1523182622274148,-3,-9,15,64,-5,-3,5,25
1523182622274148,-12,5,-15,-73,-10,-2,-10,-30
1523182622275151,14,12,22,68,9,6,13,-61
1523182622275151,29,-10,-8,-19,-5,-4,-17,31
1523182622297216,6,13,21,96,16,5,7,72
1523182622297216,-9,-7,-34,-94,-14,-4,-1,-20
1523182622298211,-11,-5,4,11,-9,-9,-29,-84
1523182622298211,-24,-2,13,47,2,-3,-3,51
1523182622320309,-34,-26,-42,-92,-9,-3,-9,-18
1523182622320309,24,-1,-12,45,-8,-5,1,31
1523182622321275,-46,1,5,20,9,4,4,31
1523182622321275,2,7,-2,-3,-7,-1,4,-12
1523182622334309,-77,-2,38,83,17,2,-10,-64
1523182622334309,9,-25,-20,-65,-11,-1,5,52
1523182622335311,34,5,-10,-6,-7,-1,6,22
1523182622335311,-66,4,20,25,10,0,-3,-42
1523182622357367,13,2,-18,-48,-16,-2,5,15
1523182622357367,4,11,-12,80,0,-4,4,1
1523182622358380,38,-9,2,27,2,-1,-29,-62
1523182622358380,-16,-11,-17,-39,1,6,3,9
1523182622380431,17,8,24,85,16,-1,-1,-7
1523182622380431,-7,-6,-28,-71,-23,-10,-9,-11
1523182622381463,28,6,-22,-85,-12,-2,11,54
1523182622381463,60,-2,2,5,-3,3,10,5
1523182622394468,-45,-21,-16,-10,1,-3,-11,-27
1523182622394468,-11,3,16,18,8,-1,-1,43
1523182622395470,19,1,14,78,1,-1,12,55
1523182622395470,19,-19,-31,-128,-17,-8,-7,-69
1523182622417529,15,18,3,-14,1,-1,4,36
1523182622417529,16,-4,20,34,5,-3,-6,6
1523182622418532,-24,-11,14,98,10,0,-7,-56
1523182622418532,-37,-18,-41,-92,-17,-5,-6,-32
1523182622440598,48,3,-11,18,-20,-5,14,-12
1523182622440598,-17,14,15,66,16,5,-1,39
1523182622440598,11,3,3,-10,1,1,5,-4
1523182622440598,-5,18,19,60,12,0,-3,-13
1523182622454864,9,-3,-10,-31,-3,-2,-4,-17
1523182622454864,10,-13,-5,-33,-10,-3,-1,-13
1523182622455630,17,8,26,47,15,6,18,48
1523182622455630,-11,-8,-30,-82,-17,-6,-6,-13
1523182622477689,-12,9,-9,-38,-1,-5,-7,-16
1523182622477689,-32,11,14,50,5,8,-2,-29
1523182622478691,-64,-8,-17,-73,-3,1,2,29
1523182622478691,-2,-4,12,47,-1,-4,5,4
1523182622500848,-20,-7,-1,7,-3,-4,-3,-8
1523182622500848,-18,2,11,34,14,10,4,-14
1523182622500848,33,-2,1,19,1,0,-6,2
1523182622500848,-1,-5,-15,-27,-7,-6,-2,5
1523182622514789,-20,-4,19,68,2,-8,-7,3
1523182622514789,49,4,-10,-48,-8,-8,8,5
1523182622515791,9,13,2,36,0,18,4,2
1523182622515791,9,-6,7,57,4,0,-6,19
1523182622538088,26,7,8,49,3,-4,-6,-5
1523182622538088,-15,-1,9,-3,8,-2,-1,-20
1523182622538851,19,-10,-17,-33,-7,-3,4,-12
1523182622538851,13,3,6,2,-2,0,-4,9
1523182622559914,13,-8,5,6,2,-3,-14,-44
1523182622559914,68,1,-2,33,-10,-13,-3,-25
1523182622560913,-42,-12,-9,-36,3,4,-8,10
1523182622560913,-13,0,13,38,-14,-11,4,22
1523182622574949,2,3,4,-6,26,32,16,23
1523182622574949,-1,3,8,22,6,15,3,19
1523182622574949,16,3,-5,6,-7,-12,-6,-11
1523182622574949,-19,3,19,73,13,-1,-7,-31
1523182622598010,-23,-4,-22,-84,-31,-16,-6,-7
1523182622598010,-28,-3,-4,25,-4,-4,-2,2
1523182622599014,65,14,-2,-23,-1,2,13,44
1523182622599014,-4,-20,4,27,6,0,-8,-44
1523182622620107,-4,-3,1,-15,0,-3,-1,-7
1523182622620107,-14,19,-12,93,22,9,6,38
1523182622621070,2,15,-30,-68,-48,-28,-17,-28
1523182622621070,-6,-9,11,43,15,9,0,-10
1523182622634105,-3,9,1,-43,-3,0,-1,-7
1523182622634105,-4,-3,-15,-20,-6,-4,0,35
1523182622635107,-1,7,16,26,4,-2,10,31
1523182622635107,-21,9,11,66,12,0,-1,-20
1523182622658170,8,4,-42,-111,-11,9,2,6
1523182622658170,-20,-4,11,36,-1,-7,8,1
1523182622658170,18,-12,4,2,0,-7,-18,11
1523182622658170,8,16,0,-35,2,17,14,13
1523182622680228,11,4,22,77,11,-2,-1,46
1523182622680228,-12,0,14,-34,6,0,-8,-54
1523182622681230,3,-15,-17,-13,-12,-9,0,0
1523182622681230,-12,-12,-6,-11,-3,3,3,0
1523182622694266,4,-15,-12,10,-4,-7,-5,-12
1523182622694266,0,-1,3,-21,-8,2,-3,4
1523182622702518,9,17,61,127,40,10,14,26
1523182622702518,-49,-32,-82,-102,-47,-21,-21,-53
1523182622717327,-15,-7,5,108,-9,-6,-3,-13
1523182622717327,-3,0,22,62,10,2,-3,7
1523182622718328,-13,-8,-16,-35,-2,6,2,-13
1523182622718328,28,12,16,85,8,1,6,20
1523182622740387,-4,0,6,15,-1,2,5,19
1523182622740387,-5,0,-27,-27,-8,-1,-1,-10
1523182622741390,-2,-7,5,-2,2,-3,-7,-69
1523182622741390,-2,-27,-2,-32,-3,-5,-15,36
1523182622754521,-21,17,-2,-8,-3,-6,-2,-16
1523182622754521,25,12,-5,-72,3,0,-10,28
1523182622762448,-35,-18,-7,-2,-4,4,7,-26
1523182622762448,-47,3,-1,-25,1,-3,-4,-22
1523182622777485,-27,0,24,57,9,-1,-4,12
1523182622777485,-3,-16,-3,-7,-3,2,4,7
1523182622778488,20,7,-8,-34,-8,-2,3,9
1523182622778488,16,5,3,26,1,0,3,20
1523182622800779,-10,8,17,52,8,3,3,-23
1523182622800779,-34,-32,14,50,2,0,-4,-30
1523182622801549,-13,8,-22,-35,-12,-1,0,28
1523182622801549,19,20,42,103,21,7,8,-15
1523182622813584,1,-14,-8,3,-10,-3,-4,-3
1523182622813584,23,-2,-12,42,-10,-6,15,32
1523182622823607,56,13,11,91,5,-2,-8,-46
1523182622823607,12,-7,-27,-109,-12,2,-5,29
1523182622837881,63,-6,-20,17,-2,-1,11,-28
1523182622837881,-53,-12,26,59,13,5,7,-20
1523182622839652,-22,12,25,43,13,2,9,40
1523182622839652,-36,-21,-58,-110,-24,-8,-11,-44
1523182622860708,-19,-1,-34,2,-14,-6,-8,-16
1523182622860708,18,-5,6,11,-4,-2,-3,2
1523182622861709,30,13,-9,-6,0,-1,-8,-22
1523182622861709,11,-27,51,126,22,2,3,11
1523182622873747,-25,-8,-30,-108,-17,-6,1,8
1523182622873747,13,5,-17,0,-8,-1,2,14
1523182622882767,-21,-1,25,80,15,8,1,19
1523182622882767,3,40,18,68,17,0,-10,-16
1523182622898808,0,-15,-32,-43,-29,-10,-3,5
1523182622898808,6,12,-3,1,-9,-7,-12,-14
1523182622899811,-24,-21,-18,-30,-13,-9,-6,17
1523182622899811,19,15,22,17,4,5,18,26
1523182622919865,7,20,29,31,27,7,10,61
1523182622919865,-70,-17,-3,-2,-8,-14,-27,-108
1523182622921869,15,-30,-27,-29,-9,-1,-5,-17
1523182622921869,-38,12,-39,-109,-14,6,14,24
1523182622933940,-3,22,30,-29,7,4,0,3
1523182622933940,-9,8,-2,20,-5,-4,9,4
1523182622942930,-17,2,14,23,5,0,1,-1
1523182622942930,-15,2,-1,16,0,2,2,-1
1523182622957964,30,-18,-3,-13,-3,-2,3,23
1523182622957964,-51,7,18,-24,6,0,2,-13
1523182622958972,-28,7,1,-34,-1,0,-3,15
1523182622958972,47,-5,13,45,6,1,8,46
1523182622980024,-95,-17,0,-20,-2,-2,-32,-117
1523182622980024,58,8,-18,-1,-4,-4,2,78
1523182622982037,27,0,9,16,5,3,-2,-28
1523182622982037,19,7,10,6,2,0,4,59
1523182622994063,14,-1,-6,-10,-2,3,7,55
1523182622994063,-3,9,4,-14,1,1,-16,-42
1523182623010105,-59,-7,-9,-43,-4,1,-1,0
1523182623010105,-18,-6,-3,-18,-6,-4,-4,-17
1523182623018126,15,7,23,90,14,4,5,-3
1523182623018126,13,-25,-33,-98,-18,-3,-3,6
1523182623019129,17,0,5,43,1,-3,5,-7
1523182623019129,6,1,8,14,-3,1,-1,-9
1523182623040184,3,7,8,32,10,2,-2,4
1523182623040184,37,16,48,91,25,11,13,10
1523182623042195,-59,-33,-70,-39,-40,-18,-34,-73
1523182623042195,-1,1,-52,-70,-22,-15,-12,1
1523182623062242,19,-19,-10,36,-1,0,6,50
1523182623062242,83,23,11,42,8,3,5,46
1523182623064248,14,-10,7,18,7,2,2,-13
1523182623064248,-38,6,10,13,1,-4,-3,-16
1523182623077284,25,-9,-2,-17,-2,1,14,-14
1523182623077284,21,0,6,7,9,8,5,56
1523182623079287,-40,5,-12,-53,-12,-5,-5,-46
1523182623079287,-45,-18,-4,17,-8,-6,-8,-22
1523182623100580,49,5,1,16,1,-2,-2,27
1523182623100580,11,14,-13,4,-4,1,3,-15
1523182623102446,33,24,2,2,6,2,8,49
1523182623102446,-18,-1,9,47,5,2,-10,-69
1523182623122402,-36,14,-13,-33,-8,-2,-4,-25
1523182623122402,16,-23,26,-8,4,3,5,30
1523182623124407,30,3,7,44,0,-6,-14,-20
1523182623124407,49,8,-2,6,1,3,6,0
1523182623137443,-9,-11,13,33,2,-2,-3,-57
1523182623137443,-57,9,-15,-18,-4,-4,-12,-14
1523182623139448,-21,13,11,-5,4,3,14,58
1523182623139448,-19,-7,42,18,9,5,10,19
1523182623160510,-11,4,6,-3,3,4,-16,-36
1523182623160510,-34,-7,-16,4,-7,-4,0,-24
1523182623161505,35,22,22,23,10,7,8,71
1523182623161505,66,63,-54,-34,-8,-3,7,25
1523182623184568,-62,-38,5,26,-6,-7,-21,-40
1523182623184568,36,-24,34,20,0,-4,-18,-16
1523182623185571,78,12,-21,11,3,3,8,27
1523182623185571,59,-23,38,6,3,-4,9,16
1523182623196601,30,16,-1,-5,-1,1,4,2
1523182623196601,-18,-39,-39,-28,-3,-1,1,-26
1523182623203851,-2,37,-48,-25,-15,-11,13,8
1523182623203851,42,29,-6,-26,-10,-6,-19,-31
1523182623220668,-4,9,6,74,8,-4,3,-12
1523182623220668,-48,-10,-27,-17,-22,-11,-5,106
1523182623221667,-12,-57,13,56,8,5,8,-11
1523182623221667,-106,8,-45,-87,-17,-13,-23,-69
1523182623242732,10,-21,26,26,6,0,-16,3
1523182623242732,65,31,-8,-49,-1,4,8,-13
1523182623244728,-50,-19,5,3,2,1,-27,-62
1523182623244728,25,-63,19,51,7,-1,12,-18
1523182623256759,-32,5,-14,-83,-14,-4,28,96
1523182623256759,-80,27,-15,18,1,-3,-28,-35
1523182623263779,29,-6,-10,-13,7,5,18,77
1523182623263779,-78,3,45,81,18,12,15,-65
1523182623288075,29,11,-44,-75,-21,-6,14,92
1523182623288075,-36,1,16,35,-3,-6,-16,-48
1523182623288845,-22,-14,38,32,14,9,23,31
1523182623288845,-24,-34,-3,30,3,0,-11,8
1523182623303117,-22,1,-24,4,0,-9,-20,-80
1523182623303117,-7,18,31,4,5,7,12,-74
1523182623304966,23,-16,31,53,3,0,7,52
1523182623304966,25,37,-41,-63,-8,2,27,99
1523182623316920,3,-27,24,29,1,-1,9,-65
1523182623316920,98,12,5,4,9,0,3,61
1523182623323942,-63,13,-75,-76,-31,-16,-29,-104
1523182623323942,-29,-62,40,-7,4,6,9,-31
1523182623339980,30,25,21,19,9,11,1,31
1523182623339980,-56,-8,15,21,2,-6,-7,-75
1523182623341990,66,10,-7,57,0,-11,-19,-32
1523182623341990,18,36,-42,-64,-17,-9,-18,8
1523182623363044,36,-1,-4,-25,-4,2,1,-13
1523182623363044,69,1,-23,18,2,4,12,67
1523182623364044,-55,7,32,-15,1,1,-23,-25
1523182623364044,67,-13,44,72,11,2,-1,9
1523182623377080,-36,-27,6,20,6,5,-3,-45
1523182623377080,40,-1,-44,-37,-13,-1,63,-41
1523182623384098,51,7,22,6,7,4,-39,60
1523182623384098,-14,24,-1,17,0,-7,-21,-1
1523182623400373,4,6,-37,-11,-12,-6,-8,-3
1523182623400373,-74,-66,51,-39,2,4,19,-39
1523182623402146,-44,-16,-18,-17,5,9,12,-2
1523182623402146,18,11,15,17,3,0,3,23
1523182623423200,-7,-2,29,99,20,3,10,35
1523182623423200,-9,15,-101,-83,-37,-15,-42,-56
1523182623424208,4,20,5,38,0,-1,20,33
1523182623424208,-55,4,-42,-6,-8,-9,-37,-70
1523182623437240,105,-25,49,28,6,5,62,41
1523182623437240,-16,23,24,29,13,5,-43,0
1523182623444258,-15,-33,3,-46,-5,-9,1,-101
1523182623444258,13,-6,-12,-12,-11,0,7,25
1523182623460302,13,27,-18,-9,3,-5,-38,-29
1523182623460302,10,-10,41,-28,4,5,-4,78
1523182623462305,-1,18,-23,-48,-12,-1,10,-11
1523182623462305,-16,-9,-37,24,7,-5,2,33
1523182623482359,-8,19,2,12,12,2,-15,3
1523182623482359,-3,6,-12,-18,-19,-1,25,85
1523182623484364,-35,23,-2,-27,-2,-11,-17,-107
1523182623484364,77,39,3,9,-4,-1,24,88
1523182623496397,-61,-41,4,9,6,6,9,-22
1523182623496397,12,-6,-20,-63,-9,-7,2,-117
1523182623505420,58,26,50,99,19,15,21,87
1523182623505420,46,-22,-22,-44,-13,0,13,-75
1523182623521463,-32,52,14,15,2,-5,-11,-37
1523182623521463,30,-11,28,43,20,1,18,3
1523182623523478,-65,-26,-56,-88,-30,-13,-37,-32
1523182623523478,3,-36,30,60,5,-1,-9,-16
1523182623542524,21,28,-13,-64,-12,1,-1,56
1523182623542524,-39,7,9,44,11,11,3,3
1523182623544524,-30,-24,40,54,14,5,28,13
1523182623544524,-24,24,-8,-2,6,4,8,79
1523182623565581,-42,-16,-18,-31,-22,-16,-22,-85
1523182623565581,4,-16,56,127,24,6,-2,33
1523182623566583,-20,-14,-15,-30,-1,5,9,-41
1523182623566583,-18,-5,-39,12,-18,-8,-15,-36
1523182623580621,28,-13,34,23,8,2,4,40
1523182623580621,-22,-3,-18,94,0,-6,-20,-22
1523182623581623,-18,12,12,-21,3,-2,24,49
1523182623581623,10,2,15,-33,-1,5,-12,-10
1523182623602911,13,-50,-34,-89,-17,-4,4,15
1523182623602911,-18,0,-11,-1,3,2,-1,27
1523182623604684,-15,-19,11,33,6,-2,-9,-64
1523182623604684,-11,24,4,27,2,-2,-38,28
1523182623616716,28,-16,-19,15,-5,-1,-3,55
1523182623616716,-9,6,25,-22,-7,-3,-1,-16
1523182623625741,22,20,1,-8,-5,-2,-7,66
1523182623625741,5,11,24,-2,11,5,19,-29
1523182623639778,-21,-12,-19,32,5,2,5,34
1523182623639778,-51,14,-13,20,-8,-11,-20,-81
1523182623641786,28,-4,-22,-81,-11,-5,3,9
1523182623641786,2,-33,4,-16,4,1,-3,15
1523182623662879,62,9,-4,26,-11,-4,-13,-35
1523182623662879,-3,36,-39,-24,-4,-4,-6,25
1523182623663841,-37,-12,19,64,1,-6,-15,-38
1523182623663841,-9,-18,-21,-19,-4,-7,2,4
1523182623676876,-44,24,-22,-118,-4,3,5,21
1523182623676876,-19,-52,-14,12,-10,-8,-10,46
1523182623684900,37,35,4,42,4,0,-9,17
1523182623684900,31,-5,7,27,12,5,4,-4
1523182623700172,-42,27,19,23,-8,2,27,-41
1523182623700172,-53,-25,-16,-47,-5,-6,3,-36
1523182623701944,51,-15,3,-80,-4,4,6,9
1523182623701944,-41,-19,-82,-104,-38,-11,-3,-25
1523182623723040,22,0,3,85,7,0,5,-9
1523182623723040,14,14,14,23,4,3,-5,-13
1523182623724001,-5,-7,24,40,1,1,3,-80
1523182623724001,49,14,26,62,16,6,0,72
1523182623736033,-12,-10,-18,-25,1,-2,-20,-9
1523182623736033,34,-9,-19,-126,-30,-9,1,19
1523182623745057,-51,-7,-9,38,10,9,16,25
1523182623745057,16,-4,42,79,6,3,10,-50
1523182623760102,35,25,-3,12,0,0,11,96
1523182623760102,-85,-36,-11,-29,2,-7,-34,-55
1523182623762104,-1,4,17,84,9,-1,25,76
1523182623762104,-3,-14,-37,-108,-31,-5,4,-15
1523182623783159,-16,-23,30,54,9,3,28,38
1523182623783159,32,-7,1,44,6,5,25,44
1523182623784163,-19,15,-4,-10,3,2,-5,-16
1523182623784163,-26,7,33,52,10,2,-1,-7
1523182623796194,-8,-24,-8,-6,6,4,-8,-4
1523182623796194,62,42,0,-40,-2,4,13,50
1523182623805255,-80,-30,-9,14,-8,-10,-21,-88
1523182623805255,29,1,14,28,0,-5,2,13
1523182623820260,-18,-7,0,-45,-5,0,-11,23
1523182623820260,-52,29,-3,64,6,5,6,-27
1523182623822264,22,1,-44,-30,-19,-10,-7,0
1523182623822264,-57,-15,3,-4,10,3,-27,-17
1523182623842322,19,2,1,56,-7,-10,-20,-40
1523182623842322,54,-16,12,16,5,6,13,30
1523182623844321,46,3,-7,-7,-6,-2,10,37
1523182623844321,-6,10,-8,-13,-10,-11,-2,-52
1523182623856393,6,12,-8,11,7,3,12,45
1523182623856393,-54,3,13,52,3,-3,-37,0
1523182623865379,40,-30,-19,-106,-22,-5,-21,7
1523182623865379,-61,6,7,55,22,12,17,-18
1523182623880418,-34,0,-8,-47,-12,-6,-30,-86
1523182623880418,25,36,23,71,5,1,9,-26
1523182623881423,-60,-28,-19,-16,-10,-9,-12,28
1523182623881423,-11,16,-2,-15,0,2,-6,-29
1523182623902710,-2,26,-22,-4,-3,-2,13,11
1523182623902710,-13,-39,-3,23,1,-3,-11,-14
1523182623904480,-2,17,-10,-33,3,2,5,8
1523182623904480,40,20,-15,-83,-4,2,17,54
1523182623916514,-94,2,-22,15,-18,-8,-13,-90
1523182623916514,83,1,40,-42,-9,-8,2,24
1523182623925540,22,5,24,56,19,11,0,44
1523182623925540,58,6,23,49,6,6,13,36
1523182623940580,-6,58,-12,-89,2,0,1,-75
1523182623940580,-16,-36,-25,-17,-6,-4,-30,-18
1523182623941582,1,4,27,66,1,-1,-5,-31
1523182623941582,-43,-25,4,38,5,3,0,-6
1523182623962636,21,22,7,51,0,0,-1,29
1523182623962636,36,36,-25,-26,-2,3,18,45
1523182623964643,-53,16,-6,-1,2,-6,-14,-75
1523182623964643,8,-30,6,41,-1,-9,-2,36
1523182623985699,50,39,-3,-19,0,0,17,35
1523182623985699,22,-79,-18,-42,-7,-3,-8,0
1523182623986701,5,-6,7,68,8,3,6,-7
1523182623986701,16,13,7,-8,-2,-6,-9,-27
1523182623999734,15,-51,2,9,-3,-1,-5,4
1523182623999734,29,70,2,-19,3,4,28,41
1523182624006759,9,0,9,15,3,1,8,0
1523182624006759,4,-17,-30,-66,-14,-6,-8,15
1523182624022797,4,-12,7,30,10,3,-2,35
1523182624022797,-21,49,5,36,1,0,-6,-40
1523182624024803,6,-16,-8,-45,-6,-5,-8,-1
1523182624024803,-3,-2,28,1,-8,-2,-2,39
1523182624045861,-18,-11,14,-7,1,-2,-11,-7
1523182624045861,-29,-26,-1,6,3,0,5,-34
1523182624046859,41,42,12,-15,-1,2,-2,18
1523182624046859,-22,-43,-23,24,4,1,-1,6
1523182624059894,-15,-2,0,-16,-9,-8,-17,-86
1523182624059894,10,0,12,23,4,-1,5,48
1523182624061900,-69,-20,-25,-49,-15,-4,-5,17
1523182624061900,-12,21,-4,-27,3,4,-1,-32
1523182624082955,56,3,27,18,2,1,-3,-47
1523182624082955,-53,-21,-24,-9,3,-2,6,1
1523182624083960,54,1,-4,-3,-3,-1,-5,-47
1523182624083960,-17,1,-4,27,-4,-7,4,24
1523182624105249,-43,-21,-9,-50,-6,-3,-6,2
1523182624105249,30,24,21,-6,-1,3,6,17
1523182624107020,-35,-9,10,27,8,1,2,-48
1523182624107020,9,-11,-11,-14,-7,-3,-2,-8
1523182624120056,-41,-27,-6,7,9,6,0,25
1523182624120056,-34,5,9,15,-1,-4,6,-19
1523182624126076,-34,-13,-21,-12,-3,4,-5,50
1523182624126076,-3,-5,11,16,2,-2,-2,-21
1523182624143116,5,15,7,17,2,4,8,38
1523182624143116,-26,-23,-5,-18,4,4,-1,-42
1523182624144118,-1,-19,13,16,4,-2,-6,49
1523182624144118,23,52,-2,-26,-3,0,-7,15
1523182624173199,-7,-55,-4,-7,6,1,-3,-2
1523182624173199,45,1,17,0,-14,-10,2,63
1523182624174203,80,2,-18,-8,-5,-1,17,41
1523182624174203,-16,23,25,40,5,0,-7,-34
1523182624179212,1,-8,-10,-34,0,0,0,23
1523182624179212,-9,-6,-16,-19,-5,-2,-5,-41
1523182624186231,-7,9,6,-29,-2,0,9,7
1523182624186231,40,-30,-14,6,2,-2,11,73
1523182624203344,-25,-4,-10,4,-15,-9,-7,-61
1523182624203344,0,14,12,10,9,2,-3,-17
1523182624204277,-5,-4,6,4,1,0,19,38
1523182624204277,51,4,-36,-58,-11,-4,-13,30
1523182624225335,-11,25,20,13,2,-3,-1,24
1523182624225335,-31,12,-13,-9,4,1,-19,-32
1523182624226338,2,-60,18,11,-16,-5,11,-49
1523182624226338,15,11,8,9,4,-5,-2,-38
1523182624239373,28,-29,3,5,1,2,7,48
1523182624239373,-18,13,-4,2,-3,0,-4,-13
1523182624246392,22,18,-19,-4,-1,-4,-8,-6
1523182624246392,-13,-1,12,0,-5,-2,6,-24
1523182624262432,29,-16,-16,15,2,5,10,53
1523182624262432,-31,-2,38,31,6,5,6,-47
1523182624264437,-10,5,-8,0,6,-2,-11,-13
1523182624264437,26,-8,-7,-6,-7,-1,-2,-3
1523182624285495,14,31,3,9,5,-1,-6,-9
1523182624285495,28,-51,-25,-5,-8,0,6,-4
1523182624286498,15,16,16,26,8,2,-16,72
1523182624286498,-41,18,-5,-3,-2,-2,-10,-31
1523182624299766,30,11,3,-2,-6,-4,-3,-51
1523182624299766,25,-7,-12,-16,-9,-1,10,24
1523182624306553,51,3,-12,-15,-5,-3,6,3
1523182624306553,24,-9,7,2,3,5,6,-18
1523182624323597,14,-12,-5,12,-3,-3,-6,-20
1523182624323597,30,21,-5,-30,-2,0,-5,-48
1523182624324597,-36,-16,-32,-3,-6,-7,-7,1
1523182624324597,-1,0,9,5,2,1,8,20
1523182624345653,-13,17,5,23,6,-3,-3,1
1523182624345653,-35,-14,15,-10,-5,-10,-9,-28
1523182624346657,27,19,-21,-52,-15,9,5,-27
1523182624346657,-20,-18,2,24,9,2,6,-4
1523182624359695,-7,23,-6,-10,-3,1,1,4
1523182624359695,27,0,9,14,1,-3,3,36
1523182624366710,-1,22,5,-27,-2,-1,6,-1
1523182624366710,3,-11,3,6,-2,-2,-18,-23
1523182624382752,-9,-13,-14,-12,-4,-5,-13,29
1523182624382752,-21,-8,0,0,-4,2,23,30
1523182624384757,-34,-36,24,21,17,13,8,3
1523182624384757,-14,39,-24,-1,-9,-2,16,60
1523182624405043,1,1,13,9,-9,-11,-16,-26
1523182624405043,26,-1,1,-9,3,-2,-5,30
1523182624406816,8,5,-23,-8,-1,-8,-4,4
1523182624406816,-2,-18,17,0,4,1,-4,-28
1523182624419852,-80,-12,4,18,11,3,-7,-92
1523182624419852,2,-4,-31,1,-16,-7,-5,63
1523182624425912,-23,21,7,-34,-9,-3,-9,-42
1523182624425912,7,-2,4,-11,0,2,10,32
1523182624442914,88,2,-21,-15,-5,0,26,49
1523182624442914,-34,9,-3,10,6,-2,-3,-43
1523182624443915,-58,-2,29,23,7,2,-8,-72
1523182624443915,14,-28,4,16,-2,0,-12,-14
1523182624464975,-23,-6,9,-22,-7,-5,12,-23
1523182624464975,71,-11,-51,25,11,11,8,47
1523182624466978,8,12,8,9,-5,-11,-3,24
1523182624466978,-23,3,-2,1,-5,-5,1,-27
1523182624479008,-12,8,-12,-21,-4,2,0,2
1523182624479008,-1,6,3,-7,-4,-7,-1,6
1523182624488031,23,9,3,49,3,1,0,15
1523182624488031,-35,-5,-3,-18,5,1,-11,-15
1523182624503305,24,-7,-7,-37,-2,1,-7,15
1523182624503305,-38,12,4,3,-6,3,-2,-15
1523182624504075,50,2,15,16,12,5,2,31
1523182624504075,-4,-3,-5,0,-3,-2,12,27
1523182624525132,-21,-78,8,4,0,4,5,19
1523182624525132,-16,-11,6,-17,-8,-9,-16,-37
1523182624527139,18,10,-9,0,3,-1,-5,9
1523182624527139,12,19,8,9,5,3,12,16
1523182624539168,-14,4,2,50,5,1,-3,5
1523182624539168,-27,-52,-31,-62,-8,-5,-5,-20
1523182624548192,-9,24,1,11,-5,-3,-3,-23
1523182624548192,0,13,3,-8,3,1,7,41
1523182624562230,-1,7,16,18,-4,-3,-6,5
1523182624562230,-21,-21,31,0,3,0,6,-45
1523182624570250,53,-22,-19,-17,-14,-7,12,66
1523182624570250,35,20,-3,-4,6,6,-4,1
1523182624585293,-43,1,17,1,-1,0,-2,0
1523182624585293,28,18,0,4,3,-3,-5,-16
1523182624587415,-20,-39,-8,-15,-10,-5,-5,-26
1523182624587415,-55,-11,-6,4,-2,0,-2,-13
1523182624599466,26,47,-2,1,6,6,16,-38
1523182624599466,-25,30,6,12,6,5,-21,4
1523182624608356,-21,29,3,7,2,1,0,-1
1523182624608356,-20,-8,3,-2,-8,-6,-1,-44
1523182624622391,-45,-20,3,-1,3,1,-9,-9
1523182624622391,1,-2,-5,-9,-1,0,2,7
1523182624624398,-19,-11,-1,9,0,1,-2,-6
1523182624624398,110,18,5,-1,2,1,0,-10
1523182624645451,88,34,-17,-19,-6,-5,4,61
1523182624645451,-39,-10,17,20,7,2,-20,-46
1523182624646456,-8,-11,-2,-6,4,-2,-12,-81
1523182624646456,-6,-32,-14,-3,-16,-9,-6,64
1523182624658486,-2,-60,-3,-2,3,9,22,19
1523182624658486,66,22,7,-13,-9,-3,-13,37
1523182624667510,-4,45,14,18,8,3,-5,-23
1523182624667510,-30,-18,-9,-5,-3,-5,-7,-47
1523182624682548,36,-17,9,0,-2,0,10,43
1523182624682548,9,15,-21,26,12,1,-4,49
1523182624684556,-79,-6,19,-50,-20,-10,0,-15
1523182624684556,-44,5,-12,-6,-6,-4,-10,-37
1523182624705643,-21,-8,-10,11,-1,-3,-10,-5
1523182624705643,-17,2,-7,-4,-1,-5,8,-57
1523182624706613,55,-16,-15,8,2,-3,2,49
1523182624706613,10,54,15,21,4,3,5,-46
1523182624718645,-3,-21,-18,-35,-4,-2,4,-52
1523182624718645,-16,-21,-5,15,-11,-6,-13,8
1523182624727668,-12,-1,-11,2,-4,-3,-3,-8
1523182624727668,4,-10,9,26,9,1,-4,-6
1523182624742709,-12,42,-5,-34,-7,-5,-13,-52
1523182624742709,-1,5,-4,-50,-11,0,10,9
1523182624744714,89,-18,18,-5,-5,-1,9,51
1523182624744714,-49,-16,-47,12,-3,-5,-17,-111
1523182624764767,12,17,26,-6,9,0,4,58
1523182624764767,-38,46,-44,2,-4,-6,-10,2
1523182624766773,-61,-11,30,-21,0,3,-4,-13
1523182624766773,9,13,8,-38,-5,-3,10,-8
1523182624778805,-27,-21,-14,16,-1,3,-1,27
1523182624778805,39,-27,2,22,11,1,13,-18
1523182624787828,-84,1,-38,-41,-4,-1,6,3
1523182624787828,49,3,18,15,2,4,3,22
1523182624803103,-32,17,-26,-51,-14,-11,-26,31
1523182624803103,-39,-11,17,5,-1,-1,-20,-61
1523182624803881,-24,-10,6,58,13,3,0,-25
1523182624803881,56,-10,-24,15,-4,-2,6,55
1523182624824930,4,8,-15,-79,-11,3,2,10
1523182624824930,38,1,0,27,1,0,21,44
1523182624826932,41,-8,27,18,3,0,2,30
1523182624826932,-33,-46,1,-1,1,2,0,-25
1523182624838968,9,21,24,88,15,3,3,-9
1523182624838968,-15,-12,-6,-83,-19,-5,6,-7
1523182624847994,11,9,-18,20,-2,-1,-25,0
1523182624847994,9,-9,-5,-3,-3,-3,5,55
1523182624863029,69,6,1,14,1,1,10,9
1523182624863029,-42,-21,17,8,-1,-3,-18,-24
1523182624864032,21,2,11,28,-2,-5,0,18
1523182624864032,-7,7,33,-4,1,-1,2,-10
1523182624885088,-14,-5,-17,-52,-5,-4,-9,-14
1523182624885088,-12,-12,2,32,0,3,7,61
1523182624887094,3,-9,-20,-43,-10,-3,21,47
1523182624887094,-61,-24,7,2,2,-4,-15,-30
1523182624908152,29,10,13,33,6,-4,-16,39
1523182624908152,-8,8,-14,-48,-12,-7,8,5
1523182624909151,22,4,-6,2,2,2,23,-15
1523182624909151,-15,10,-26,-22,1,3,-30,37
1523182624922186,-12,-36,51,32,3,1,6,-62
1523182624922186,107,10,-12,3,-5,-8,1,-24
1523182624924195,-54,-16,-37,-45,-9,-7,-21,-63
1523182624924195,0,6,31,35,10,1,5,11
1523182624944245,-40,-19,-79,-88,-27,-3,2,-55
1523182624944245,-23,16,1,63,13,9,8,109
1523182624953269,-21,9,11,24,0,-8,-33,-110
1523182624953269,11,2,-16,2,9,-5,11,58
1523182624968346,-52,-19,-4,-1,-23,-14,-6,-15
1523182624968346,-34,-9,19,-22,12,26,5,57
1523182624969312,-3,10,10,9,-4,1,4,50
1523182624969312,19,23,-9,7,-4,-5,-18,-52
1523182624982346,2,5,9,41,13,-2,-1,0
1523182624982346,-2,-22,61,19,1,-4,1,-20
1523182624984351,27,0,11,22,10,5,-3,3
1523182624984351,16,-6,9,-29,-10,0,4,-17
1523182625005407,-21,18,7,16,6,1,-15,-87
1523182625005407,-52,-22,-37,-23,-3,-1,10,-80
1523182625006412,82,16,-17,-11,-12,-14,-16,29
1523182625006412,-38,-21,13,-4,-2,-3,12,-32
1523182625027466,-10,0,-19,16,0,-4,5,-8
1523182625027466,32,4,4,19,-1,-2,-11,-8
1523182625029472,-41,5,-3,-14,-2,0,43,20
1523182625029472,-12,2,-6,15,3,5,-31,57
1523182625042506,13,-15,19,12,4,11,-4,37
1523182625042506,17,38,-6,19,0,-8,2,-85
1523182625044511,28,-5,-9,12,3,7,25,-28
1523182625044511,-13,47,12,41,1,-4,-37,-41
1523182625065569,-101,-64,45,0,8,-1,26,85
1523182625065569,12,38,-22,0,1,-3,-36,46
1523182625066571,11,14,37,19,7,10,-1,-31
1523182625066571,-23,-20,-29,22,-7,-4,-10,-49
1523182625087860,23,16,-29,-59,-4,0,-3,-12
1523182625087860,4,30,-9,-12,6,4,15,9
1523182625089630,2,-13,-1,13,-10,-8,-7,27
1523182625089630,-11,-51,-6,-47,-10,-4,24,23
1523182625102704,18,20,6,38,0,1,0,-12
1523182625102704,1,-26,1,18,-1,-6,5,-22
1523182625108683,-115,9,-7,-18,10,8,-16,-14
1523182625108683,-10,15,9,-24,-10,0,33,62
1523182625124729,-21,14,0,32,-3,-5,0,22
1523182625124729,-21,-35,-9,-74,-12,-11,-17,-23
1523182625126729,-9,-6,12,64,8,-5,-9,-8
1523182625126729,-1,-7,-74,-83,-26,-9,4,25
1523182625146782,-9,17,2,10,5,5,31,79
1523182625146782,-33,-7,5,9,1,4,-13,-13
1523182625155093,38,-15,-5,19,3,-1,26,7
1523182625155093,-15,-7,-11,-12,5,3,-35,-17
1523182625162150,73,31,-1,-3,-6,-4,-25,-29
1523182625162150,-23,-39,3,5,3,11,11,-38
1523182625169368,-20,-16,-12,-15,-2,-4,-6,11
1523182625169368,60,1,40,56,8,-1,32,32
1523182625185175,-11,-28,-36,-2,0,-7,-20,-97
1523182625185175,-44,-5,-11,-50,-9,-11,-21,28
1523182625187178,13,13,14,-6,-10,0,-20,-40
1523182625187178,23,22,14,4,-5,-3,1,-12
1523182625207280,-1,-12,54,30,-3,-4,2,23
1523182625207280,22,-3,-9,32,11,1,16,-10
1523182625209236,-15,0,-20,-3,-6,1,2,-30
1523182625209236,-81,-76,6,-38,2,9,18,-19
1523182625230292,-20,14,19,5,3,4,9,51
1523182625230292,-46,14,19,68,8,-6,-18,-82
1523182625232297,-4,-3,10,-59,-9,0,-6,53
1523182625232297,-38,7,-20,-9,-3,-3,-12,-52
1523182625245373,-15,-1,-20,23,1,0,-19,47
1523182625245373,-26,-7,12,-1,2,8,34,114
1523182625246377,-3,8,11,40,18,6,-13,-41
1523182625246377,-16,16,22,-8,3,1,16,-45
1523182625268393,-18,-29,-4,-19,-11,-8,-44,-43
1523182625268393,81,18,21,-3,-6,-4,5,105
1523182625269397,25,-6,-22,-4,-1,-1,16,-16
1523182625269397,-17,3,35,51,10,7,3,23
1523182625282472,36,-4,-32,-58,-8,-2,5,15
1523182625282472,-1,9,5,24,-2,-6,-18,1
1523182625289452,-5,-18,-19,-24,-11,-3,-2,-28
1523182625289452,53,19,-13,-55,-15,-14,-21,99
1523182625305497,10,7,-5,28,11,6,20,-98
1523182625305497,-58,-19,-26,-15,-14,-14,-30,61
1523182625306496,-4,20,-9,-17,1,-1,13,-67
1523182625306496,66,6,22,35,4,-3,-25,-20
1523182625327551,39,47,-42,-36,-6,5,11,40
1523182625327551,10,17,0,3,-5,-5,8,-6
1523182625329556,-17,-15,-13,-9,2,-1,27,-39
1523182625329556,-51,-3,-37,-2,-8,-3,-32,4
1523182625341595,49,1,7,10,0,-5,-13,-20
1523182625341595,76,5,15,28,2,0,-11,-30
1523182625348841,48,11,-1,-47,6,9,12,116
1523182625348841,-48,-8,3,30,8,9,6,-98
1523182625365652,-1,9,3,75,10,11,-6,-49
1523182625365652,60,20,-12,8,9,24,-1,49
1523182625366654,-65,17,8,1,-4,-13,-115,-88
1523182625366654,-21,-29,47,30,8,3,82,-48
1523182625387948,-15,-13,10,-17,0,-1,-22,-68
1523182625387948,-25,-31,14,-11,4,6,51,53
1523182625389720,-11,8,-8,25,3,3,34,-37
1523182625389720,31,22,-38,-5,2,-4,-73,44
1523182625401985,-12,1,-18,-86,-23,-6,33,67
1523182625401985,-69,-31,-13,23,-8,-15,-33,-91
1523182625410772,1,-17,1,6,-6,-10,-38,-11
1523182625410772,-6,-4,-49,-59,-11,2,53,70
1523182625424852,-12,-23,-8,8,-5,-9,13,97
1523182625424852,32,41,3,-31,2,3,2,-39
1523182625426814,-28,-48,12,72,6,-2,1,68
1523182625426814,-26,18,-31,-70,-21,-8,-9,-38
1523182625447870,22,-5,-6,16,2,0,-4,-6
1523182625447870,-11,5,6,-3,-4,1,25,70
1523182625449977,-30,35,-3,12,-5,-14,24,36
1523182625449977,-61,-19,27,19,3,3,-2,25
1523182625460908,12,-9,-16,-39,-10,3,-13,3
1523182625460908,-46,-6,-15,-14,-3,-5,-19,-99
1523182625469929,42,-5,25,2,3,2,29,15
1523182625469929,39,-3,5,25,7,1,-32,-45
1523182625484973,-97,-6,42,30,9,-2,-6,-60
1523182625484973,9,35,-34,-9,-8,-1,19,-54
1523182625486976,100,0,3,-1,-6,0,-29,108
1523182625486976,19,40,13,-22,2,-3,-3,-8
1523182625508030,-57,-23,10,15,9,4,11,-88
1523182625508030,61,-20,-33,-5,-6,-5,-18,32
1523182625509033,-69,-11,8,14,-5,-2,-23,-69
1523182625509033,-2,-18,10,-28,-1,0,26,9
1523182625521070,-5,25,-30,-4,-4,-7,-28,59
1523182625521070,43,-25,42,6,8,4,26,91
1523182625530168,-11,5,-4,4,-2,2,-13,-51
1523182625530168,-12,-4,-9,21,7,1,8,8
1523182625545130,-7,-12,-11,-1,-21,-14,14,26
1523182625545130,-16,-9,33,13,4,2,-8,-78
1523182625547134,2,10,-5,-46,0,4,12,11
1523182625547134,71,11,12,17,8,9,24,24
1523182625568264,11,13,-8,1,-8,-9,-42,-36
1523182625568264,-38,-20,41,33,6,0,-10,-60
1523182625569194,-1,26,2,-31,0,4,21,48
1523182625569194,8,0,-27,-35,-8,-7,14,-32
1523182625581225,9,14,37,25,8,4,19,59
1523182625581225,-19,2,-38,-4,-8,-7,-5,-55
1523182625590250,-23,-8,-11,0,2,-2,-10,3
1523182625590250,-66,-3,13,20,-5,-4,-18,-94
1523182625605294,-19,-2,-15,1,6,5,10,0
1523182625605294,40,27,10,-12,-3,1,21,42
1523182625607299,7,-6,-8,3,-3,0,14,70
1523182625607299,-12,-12,-3,23,0,-7,-18,-7
1523182625627350,30,-1,-7,14,5,-1,1,-28
1523182625627350,-100,25,1,0,-9,0,15,-38
1523182625629354,96,5,-12,-19,-5,-1,-16,19
1523182625629354,18,11,-7,38,-5,-7,-9,55
1523182625641426,-18,-13,15,5,10,0,9,-17
1523182625641426,21,-16,2,-16,2,7,9,-14
1523182625650408,-51,-26,-17,1,-5,-1,8,-34
1523182625650408,24,-5,26,4,0,0,23,-24
1523182625665448,55,14,-1,-21,2,7,-13,22
1523182625665448,-51,-6,-9,12,-1,-14,-40,-23
1523182625666453,-12,0,14,8,2,1,-3,-50
1523182625666453,31,0,-9,18,6,3,13,12
1523182625687743,66,0,-2,-34,-15,-5,-31,-30
1523182625687743,33,-20,3,-8,8,7,8,52
1523182625689521,-24,0,-18,-90,-15,-3,-11,1
1523182625689521,-18,-1,22,72,-1,-1,-9,9
1523182625701780,-10,-6,-8,19,-1,-6,48,20
1523182625701780,25,17,3,-3,-3,-7,-17,28
1523182625710568,32,-9,6,-2,6,-2,-11,-41
1523182625710568,5,-27,-39,-62,-7,1,-5,-66
1523182625725608,-27,5,13,-2,-5,5,13,-22
1523182625725608,43,16,0,27,13,8,24,59
1523182625726611,11,31,22,-3,-7,-5,13,16
1523182625726611,-34,-15,-25,-16,1,4,-15,-29
1523182625747709,-15,4,-5,-9,5,-8,18,-50
1523182625747709,18,36,32,58,16,14,-1,-71
1523182625749673,39,11,-17,24,-7,2,2,68
1523182625749673,-30,-29,-13,-4,5,-7,-13,-76
1523182625761705,-52,-32,-6,-115,-19,-1,-5,-62
1523182625761705,-100,-13,2,77,24,0,-11,-58
1523182625770770,-23,-3,2,4,-31,-4,11,-18
1523182625770770,23,33,24,-14,-1,-1,-4,73
1523182625785769,12,32,-1,-21,-8,0,15,3
1523182625785769,50,-50,15,15,3,-14,-3,33
1523182625786772,-35,-27,1,2,21,8,7,-2
1523182625786772,-30,-8,-11,37,0,3,8,1
1523182625807829,29,3,-32,30,-6,-7,14,-53
1523182625807829,-21,-16,-19,-61,-22,-7,-32,-9
1523182625808830,-69,-34,1,30,1,-11,-29,-120
1523182625808830,21,-7,1,-64,6,3,2,25
1523182625821867,-53,1,11,74,-14,-6,-5,2
1523182625821867,63,18,-10,-18,5,2,0,36
1523182625829886,41,12,26,4,4,3,11,-10
1523182625829886,-35,-12,-2,0,-1,-3,-14,36
1523182625844927,-27,-39,-13,-10,3,-2,-23,13
1523182625844927,-6,11,2,18,-2,1,11,-25
1523182625846932,42,8,-4,-32,-2,4,3,-83
1523182625846932,49,35,-4,-28,3,14,24,-14
1523182625867992,-50,40,29,57,13,0,-30,-58
1523182625867992,-39,-11,-15,-50,0,2,-20,-66
1523182625874003,-29,-43,-32,25,-10,-10,-8,40
1523182625874003,-23,13,-6,1,11,5,20,-12
1523182625890052,27,6,17,19,0,1,-6,60
1523182625890052,-20,16,13,-16,5,4,24,-63
1523182625892051,57,0,-30,-42,-11,-2,-4,114
1523182625892051,61,17,-22,24,1,-5,-16,-21
1523182625905091,-4,-17,17,-4,1,1,-6,9
1523182625905091,-11,-19,-12,-3,-2,-2,22,43
1523182625907113,1,45,17,0,-13,0,-16,-5
1523182625907113,-6,16,-27,15,-7,-6,5,-30
1523182625928147,50,5,-18,0,11,5,-8,89
1523182625928147,1,8,-1,-11,-13,-1,14,-73
1523182625929150,-93,-29,-18,-10,7,-4,-9,-9
1523182625929150,32,-12,49,40,1,-7,-29,33
1523182625950444,20,-25,-52,-21,-7,-2,31,48
1523182625950444,35,-13,-8,-8,-8,2,-6,86
1523182625952432,-69,-15,31,17,3,-5,-1,-77
1523182625952432,-28,0,11,12,0,-7,-12,-39
1523182625965247,71,6,7,62,18,20,21,-23
1523182625965247,41,-4,-30,3,-21,-7,-7,89
1523182625967442,-2,1,-4,-2,2,-1,12,-22
1523182625967442,-18,7,2,-9,-7,-6,-8,-5
1523182625987304,9,-1,30,30,8,-7,-4,-7
1523182625987304,7,22,-9,-21,-11,4,16,-7
1523182625989315,-68,-9,-3,-18,-5,-9,2,28
1523182625989315,62,26,4,7,6,10,5,75
1523182626010368,-72,-11,-16,-20,-6,-6,-38,-87
1523182626010368,-24,-22,21,-36,-1,-6,-14,-53
1523182626011409,1,18,-11,23,3,1,30,-12
1523182626011409,51,20,15,9,-3,4,5,9
1523182626024447,11,17,-5,-53,-15,-5,-2,10
1523182626024447,6,-16,9,51,10,1,-4,18
1523182626031423,11,15,-6,0,13,8,5,-40
1523182626031423,-18,-46,-14,-12,-21,-7,3,32
1523182626047467,-34,-2,18,-6,-8,-8,-17,-32
1523182626047467,58,-10,11,31,2,1,0,-10
1523182626049470,-17,-14,12,8,27,9,-4,-2
1523182626049470,-47,16,-52,-98,-31,-17,-13,-57
1523182626070564,-36,-5,19,15,10,5,-7,21
1523182626070564,-37,12,8,26,9,1,-6,32
1523182626071533,13,-6,-2,-37,8,5,7,27
1523182626071533,0,-3,37,76,-3,-3,-4,2
1523182626084601,13,2,-8,-73,-12,-5,10,-25
1523182626084601,-2,0,-38,-117,-18,-11,2,-85
1523182626091582,39,-4,-1,44,8,8,-19,14
1523182626091582,-4,-1,9,62,18,1,-4,-42
1523182626107669,12,-1,-20,-26,-9,-3,3,22
1523182626107669,-19,1,-14,-33,-3,-5,-3,-20
1523182626109631,-32,5,-4,8,-11,2,15,-42
1523182626109631,45,12,18,-38,1,8,21,39
1523182626129685,-46,0,9,20,8,-2,-24,-70
1523182626129685,9,-7,-23,-37,-11,-8,-10,35
1523182626131687,9,13,13,106,4,-6,-9,-42
1523182626131687,17,-8,-9,-43,-18,0,24,108
1523182626144761,-3,3,-16,45,16,10,19,23
1523182626144761,-80,-5,26,24,-6,-5,-15,-82
1523182626151978,23,-8,-4,-38,5,-4,-10,29
1523182626151978,-45,-23,-8,-9,-8,-4,-2,-45
1523182626168021,5,1,1,-19,-11,-4,16,27
1523182626168021,86,-43,-29,15,-3,0,5,35
1523182626169789,-66,-3,25,33,7,-5,-14,-99
1523182626169789,-11,-18,32,-11,15,6,-10,-17
1523182626189852,24,-8,-21,6,-27,-15,-9,-5
1523182626189852,4,4,-12,-53,-10,6,8,15
1523182626191848,45,2,-6,-1,-4,-3,3,73
1523182626191848,3,2,16,6,13,2,-4,-42
1523182626204936,-9,-31,18,45,24,9,-3,-9
1523182626204936,-13,9,3,7,-18,-5,-2,-6
1523182626211901,38,5,24,-13,0,1,2,2
1523182626211901,39,-20,-1,-20,-2,9,30,-56
1523182626227946,95,42,5,26,1,5,-2,50
1523182626227946,-98,-8,12,34,7,-11,-22,-43
1523182626228946,7,15,-19,-24,-1,0,-6,-2
1523182626228946,-12,-25,4,7,-6,-9,-12,-15
1523182626250240,23,4,-4,-22,-8,-1,7,-12
1523182626250240,72,7,14,-3,1,4,10,22
1523182626252008,23,7,6,24,-9,-4,-9,29
1523182626252008,-27,-5,-25,-59,-6,-1,-11,-5
1523182626264050,6,-3,-14,2,3,-5,-3,17
1523182626264050,-24,16,5,14,0,-5,-8,19
1523182626271063,-29,-3,-3,0,-1,4,11,4
1523182626271063,64,21,-11,19,2,0,-6,29
1523182626288106,-41,-28,24,11,1,-2,4,-14
1523182626288106,8,7,0,-25,-11,-2,5,-12
1523182626289111,40,-6,-7,-6,-8,-3,8,7
1523182626289111,7,-17,-20,10,2,1,0,3
1523182626310203,-5,16,0,0,8,1,-7,-15
1523182626310203,-1,11,10,12,5,3,6,9
1523182626312168,50,-21,-14,10,-5,6,8,-13
1523182626312168,-119,12,-13,38,10,1,10,-5
1523182626324206,48,-12,3,-13,-16,-1,-15,78
1523182626324206,5,-1,-13,20,4,-4,-7,8
1523182626339250,-15,14,14,11,-1,-2,-2,24
1523182626339250,-25,16,2,-1,9,11,-17,-119
1523182626347261,-48,-52,-4,81,-1,-12,-14,80
1523182626347261,7,-2,0,-17,-12,-4,-4,-2
1523182626349268,0,9,-5,-5,10,3,-6,-9
1523182626349268,3,-12,19,40,-2,-4,-3,-13
1523182626370365,10,14,-32,-120,-3,-4,-1,-37
1523182626370365,8,-2,-19,8,0,0,4,25
1523182626372332,19,4,21,21,-4,-4,5,11
1523182626372332,-44,17,21,-2,-1,-4,-8,-56
1523182626383358,-51,33,-16,-13,5,2,-12,-81
1523182626383358,-25,-16,-18,17,-2,-2,15,63
1523182626392381,-13,14,-28,-58,-7,0,9,-35
1523182626392381,-11,-6,44,-8,-7,-10,4,125
1523182626407422,63,38,37,18,3,7,15,36
1523182626407422,-47,-11,-7,25,16,2,-20,-126
1523182626409427,-70,-20,-5,-4,-9,1,-4,63
1523182626409427,-3,-26,-3,8,4,-15,-14,56
1523182626430527,-35,-7,25,33,3,3,16,-9
1523182626430527,-46,32,-12,-34,3,3,-2,-22
1523182626431486,48,-15,2,11,0,2,-9,11
1523182626431486,-4,7,-16,45,6,-3,-12,-28
1523182626443517,-41,-19,-5,-3,-25,-6,25,63
1523182626443517,-15,5,-20,-73,-8,-4,-10,-97
1523182626452710,-2,-10,-12,34,5,-1,10,42
1523182626452710,41,-30,8,6,-2,5,-3,4
1523182626467582,-15,4,-16,17,6,-9,-20,-64
1523182626467582,45,-29,48,36,3,-1,5,60
1523182626469586,0,-13,16,-51,-6,0,9,-23
1523182626469586,4,18,-32,-65,-4,2,9,14
1523182626490642,25,10,-10,12,12,12,31,-29
1523182626490642,-61,-10,-11,-8,-18,-14,-26,8
1523182626491648,77,31,-12,-44,-4,-7,-10,108
1523182626491648,-98,-9,1,46,4,2,-20,-76
1523182626503789,57,-3,9,-4,-2,6,2,-19
1523182626503789,62,22,2,-28,2,7,-2,34
1523182626512701,3,-1,-14,23,2,-3,6,-35
1523182626512701,36,-10,-39,32,-14,-4,-5,4
1523182626527743,15,-6,-26,-96,-16,-9,-11,-1
1523182626527743,13,10,12,34,14,6,18,36
1523182626529745,-38,5,20,6,3,2,-2,-34
1523182626529745,32,-22,9,-4,2,1,14,17
1523182626550800,-92,-1,-1,27,9,6,-7,-46
1523182626550800,68,8,-14,52,5,6,16,61
1523182626551806,-44,-21,-19,-40,-16,-16,-31,-122
1523182626551806,-7,16,-22,-56,-18,-13,-18,-18
1523182626563837,16,-7,15,22,9,4,-5,-24
1523182626563837,5,11,5,4,-2,4,8,87
1523182626572871,-13,-55,66,70,18,12,25,-7
1523182626572871,-6,15,6,19,-2,1,-2,-25
1523182626587911,-5,-6,-3,-54,-10,-10,-20,-7
1523182626587911,15,-17,11,2,10,11,20,-16
1523182626589909,44,34,-30,44,9,0,11,53
1523182626589909,-18,-12,-5,-75,-13,-6,17,-54
1523182626608956,-34,8,23,66,9,3,-23,-44
1523182626608956,52,-27,-38,-95,-22,-13,8,32
1523182626617981,8,-4,4,39,0,-2,1,-14
1523182626617981,27,-8,30,24,8,3,20,61
1523182626624045,-5,12,11,51,5,3,0,-21
1523182626624045,-119,-10,-36,-94,-20,-8,-20,20
1523182626633021,78,-14,-8,-86,-20,7,19,61
1523182626633021,0,-3,-7,68,1,-11,-34,-16
1523182626648298,-30,-5,-4,44,1,-3,6,-77
1523182626648298,-54,1,9,71,-7,-5,-10,30
1523182626649063,48,40,-10,-62,3,2,4,60
1523182626649063,48,15,-1,-48,-1,13,26,11
1523182626670125,-15,-25,-30,-1,-12,-12,-32,-42
1523182626670125,19,14,24,53,16,2,-8,0
1523182626672130,-36,-8,-32,-21,-14,-9,-26,0
1523182626672130,12,6,50,41,13,14,40,73
1523182626684156,-47,29,34,-20,6,-1,-5,-37
1523182626684156,-2,-11,-20,-44,-10,-6,-2,-112
1523182626693180,10,-10,25,72,-3,-2,-9,19
1523182626693180,-82,-22,-19,35,10,1,6,-49
1523182626707221,44,-8,-7,-40,-14,-3,-4,108
1523182626707221,-10,17,39,49,10,2,12,1
1523182626709223,-94,-19,-32,-6,-7,-2,22,-49
1523182626709223,-54,42,2,25,5,0,-41,-13
1523182626730279,21,-8,0,-55,-2,-1,1,23
1523182626730279,13,-7,31,124,5,2,31,-18
1523182626732288,7,14,-16,115,13,3,-37,6
1523182626732288,22,21,-32,-127,-15,-4,-36,49
1523182626744316,-25,12,39,58,4,4,33,36
1523182626744316,-22,-1,0,1,11,1,-26,-43
1523182626752573,-84,-30,24,-102,-13,3,19,-42
1523182626752573,1,10,20,50,12,1,-6,-19
1523182626767615,20,4,-70,-3,-13,-5,6,63
1523182626767615,33,-37,8,-21,5,7,20,-4
1523182626769384,6,9,75,7,-6,-4,-21,-39
1523182626769384,-31,-46,-6,2,4,-7,-8,-45
1523182626790440,-24,15,-14,17,1,0,7,-74
1523182626790440,-10,3,27,46,14,4,-14,13
1523182626791442,-4,17,-46,-25,-12,-11,1,-41
1523182626791442,-1,-39,58,39,12,11,23,34
1523182626812539,68,45,-36,-22,-13,-6,3,44
1523182626812539,-3,45,-31,33,4,-4,-4,-73
1523182626814503,-39,-22,-16,-85,-28,-22,-37,47
1523182626814503,89,-17,-32,51,-18,-14,-5,-5
1523182626826575,19,-39,31,31,6,2,-7,12
1523182626826575,86,16,-10,14,4,5,14,46
1523182626833556,-22,-6,-4,28,14,2,7,-53
1523182626833556,-28,9,-7,-70,-16,-3,0,-14
1523182626850774,-36,-79,34,18,17,11,14,-1
1523182626850774,24,65,-37,-101,-19,-9,1,40
1523182626851603,16,-2,18,71,14,13,11,18
1523182626851603,-77,-7,-31,-18,0,-3,-12,22
1523182626872699,95,14,10,33,-20,-13,-24,51
1523182626872699,-41,-43,26,-47,2,2,-5,-30
1523182626874665,6,15,-43,-30,1,6,16,-7
1523182626874665,-39,4,11,51,11,3,15,-22
1523182626886695,-8,20,-22,-47,-6,-6,-24,-16
1523182626886695,-32,-6,-3,16,-4,-3,-4,0
1523182626895760,40,15,-13,25,5,0,-17,-14
1523182626895760,-11,-12,-6,10,3,1,4,-68
1523182626909801,-23,2,-10,-20,-5,-5,15,-54
1523182626909801,18,-30,23,37,1,6,8,48
1523182626911762,-48,11,28,66,14,6,4,-30
1523182626911762,-22,40,-39,-94,-21,-7,-1,28
1523182626932817,3,-13,11,16,-3,-10,6,69
1523182626932817,41,-36,2,-64,-3,0,-28,-38
1523182626934822,46,-6,-7,41,6,-4,2,-19
1523182626934822,33,0,18,37,-4,-2,-3,17
1523182626946854,-5,9,6,-5,4,3,18,-30
1523182626946854,-50,1,-51,-5,6,5,-11,-61
1523182626953877,-22,16,-10,3,-11,-7,-10,21
1523182626953877,16,17,-8,-51,-7,-2,9,-50
1523182626969917,-11,8,3,6,3,1,2,12
1523182626969917,1,4,14,29,2,-6,-4,11
1523182626971927,18,16,33,89,13,5,-18,7
1523182626971927,22,0,-65,-93,-35,-8,7,15
1523182626992977,-41,23,23,13,6,3,-16,-16
1523182626992977,-39,7,11,41,-8,-11,-9,-32
1523182626993980,60,-15,10,11,11,6,24,67
1523182626993980,-34,-13,24,-32,-5,-4,10,-28
1523182627007034,48,-12,30,31,3,2,2,-5
1523182627007034,6,-28,43,17,2,1,-4,-6
1523182627014033,-1,28,-57,-61,-6,-2,17,-21
1523182627014033,10,-42,56,96,20,7,-8,-16
1523182627030077,-1,-3,-59,-92,-1,1,4,-17
1523182627030077,1,13,8,4,-4,5,11,15
1523182627032122,-15,-20,-23,-81,-13,-10,4,23
1523182627032122,-34,9,2,26,-3,-6,-10,-47
