timestamp,emg1,emg2,emg3,emg4,emg5,emg6,emg7,emg8
1523179989954480,15,29,16,12,43,41,10,5
1523179989954480,-5,16,10,7,13,2,6,1
1523179989955482,-4,-21,9,6,7,-2,2,5
1523179989955482,-6,7,-6,-11,-34,-7,-6,-2
1523179989967514,5,-28,-19,-23,-39,-20,-3,-2
1523179989967514,5,-9,-3,9,61,18,-4,-2
1523179989976539,-8,23,6,7,0,2,-6,-2
1523179989976539,2,-4,-10,-37,-70,-10,-4,-12
1523179989991580,3,20,17,44,69,-5,-3,-1
1523179989991580,4,-3,5,10,-53,-4,8,-1
1523179989993585,29,-13,-17,-6,28,7,-1,23
1523179989993585,-9,-14,-7,-9,-12,7,15,1
1523179990013641,-20,1,-8,-31,-43,1,-15,-13
1523179990013641,-1,9,7,37,11,-10,-8,1
1523179990015650,-15,-3,1,-26,-28,-33,-10,-18
1523179990015650,29,-11,-9,-30,30,12,15,24
1523179990027677,15,1,1,11,50,-1,-13,42
1523179990027677,-34,17,10,4,10,11,25,-4
1523179990036698,9,2,1,4,-34,-11,1,-15
1523179990036698,-1,-2,-1,0,12,7,-9,6
1523179990051741,-4,-18,-5,0,-8,-22,-7,-13
1523179990051741,18,2,-4,-16,-20,32,2,13
1523179990052747,-8,-3,-1,3,33,10,12,1
1523179990052747,4,8,12,6,-12,-11,-8,-7
1523179990073797,-1,4,10,60,-24,19,5,-6
1523179990073797,-7,-10,-25,-65,-37,-48,-24,2
1523179990075803,-6,3,-4,18,76,0,11,-1
1523179990075803,0,-4,-4,37,-46,19,-12,-10
1523179990096863,-6,3,3,-23,-15,13,4,0
1523179990096863,-2,6,8,20,-20,-16,-7,-2
1523179990097864,-3,-6,-12,-8,-1,-5,-9,-1
1523179990097864,0,-3,8,14,32,-21,-12,-3
1523179990111898,-9,-10,-16,-8,1,16,12,-3
1523179990111898,4,0,7,-9,27,9,-6,-16
1523179990112903,3,-1,-3,-11,-11,-6,-6,4
1523179990112903,-3,3,-4,-3,-56,-3,-13,-7
1523179990133957,-6,2,8,-6,13,21,13,6
1523179990133957,36,-3,-12,26,88,43,8,9
1523179990135962,-32,-1,5,-9,-65,20,-2,20
1523179990135962,-27,-6,-6,0,12,-20,-4,-53
1523179990148010,2,6,-1,-25,-19,-38,-12,-6
1523179990148010,0,-4,-8,-24,-76,-16,-15,-3
1523179990157018,21,5,22,53,114,44,15,11
1523179990157018,11,-4,-1,1,-7,42,10,25
1523179990179079,-10,-2,-8,-23,-33,2,-13,-11
1523179990179079,-8,-1,0,2,12,-18,3,-13
1523179990181085,3,-3,-4,9,-107,-36,-8,-3
1523179990181085,-9,-2,-7,-40,17,-2,1,5
1523179990194117,8,4,2,6,62,-5,5,0
1523179990194117,-13,-9,8,18,-60,5,10,8
1523179990196122,-1,1,-2,3,20,-6,0,-9
1523179990196122,3,0,4,21,29,-2,-3,-2
1523179990207153,0,-4,-11,-16,-48,-8,-6,-4
1523179990207153,-1,6,14,26,-17,-20,10,4
1523179990224198,-4,-2,2,-4,45,33,0,-5
1523179990224198,2,-2,0,-2,1,1,-3,10
1523179990231217,1,6,13,0,-24,-21,-4,-3
1523179990231217,-14,-12,-21,11,19,4,-2,-3
1523179990233221,5,9,8,-50,2,21,19,1
1523179990233221,4,3,-2,13,-7,-6,-1,3
1523179990254278,3,-3,-1,-10,18,6,-3,16
1523179990254278,-10,1,4,23,36,43,1,-20
1523179990255282,2,-4,-7,-8,-52,-24,-4,-2
1523179990255282,0,-1,-6,-6,26,18,-2,3
1523179990267314,-3,-3,-6,3,-59,-13,2,-5
1523179990267314,-1,0,1,-25,58,-30,-19,-16
1523179990276335,-4,-4,-6,19,-62,-12,0,5
1523179990276335,-5,4,6,6,21,-7,-4,-2
1523179990290373,-1,-3,-2,7,-25,-13,4,-3
1523179990290373,9,-3,-2,-3,-14,4,4,11
1523179990297410,-10,-4,-1,-8,37,-3,-12,-14
1523179990297410,-10,-3,2,20,-45,-48,-8,-9
1523179990314438,5,6,-3,-6,48,44,10,2
1523179990314438,1,5,3,-4,2,23,10,17
1523179990315439,6,0,6,4,-48,-6,-2,-1
1523179990315439,5,-4,-10,6,-5,23,20,12
1523179990327511,-12,-8,-4,-16,-23,-25,-20,-8
1523179990327511,-1,2,-1,0,17,-13,-8,-4
1523179990336495,-5,-5,-8,-3,-1,5,-4,4
1523179990336495,3,-3,-6,-4,15,41,11,6
1523179990351538,-5,2,1,-3,19,-8,3,-22
1523179990351538,0,1,7,15,12,4,-1,9
1523179990353542,-1,-5,-9,0,49,-14,-6,-10
1523179990353542,-6,-5,1,-9,0,-18,-7,-7
1523179990374600,6,1,-2,14,-12,-6,9,13
1523179990374600,-4,-5,-9,7,-25,-7,1,1
1523179990375600,3,5,5,-16,-86,2,6,-5
1523179990375600,3,-7,-14,-33,-36,-30,-11,3
1523179990387631,-5,5,12,24,11,2,3,-9
1523179990387631,-3,-2,3,0,26,-9,6,6
1523179990396655,0,-4,-5,0,4,9,-2,-2
1523179990396655,8,-5,-6,4,-27,-8,-5,10
1523179990411699,1,-2,0,-23,-10,-15,-8,-21
1523179990411699,-14,5,3,-1,-2,28,4,19
1523179990412700,-21,-1,-5,-6,16,7,-15,-37
1523179990412700,13,4,11,13,23,-7,4,16
1523179990433753,15,0,-2,1,18,4,4,10
1523179990433753,7,-3,-9,-7,-9,18,3,1
1523179990435759,-9,-4,-3,-29,-2,-12,0,-1
1523179990435759,-4,4,6,23,59,39,-6,-3
1523179990457048,5,7,19,88,38,-1,-4,-4
1523179990457048,-9,-2,-22,-68,38,-37,-8,-5
1523179990458860,4,-19,-37,-37,-6,15,10,13
1523179990458860,-4,4,14,17,-40,-12,6,-10
1523179990471857,-4,-2,-9,-22,-4,0,-8,0
1523179990471857,-1,2,13,19,1,-20,-11,-5
1523179990472859,-1,-1,-4,33,33,-21,-2,-4
1523179990472859,-2,-10,-11,-40,-9,-10,-22,-7
1523179990494014,10,27,22,-71,-59,51,37,22
1523179990494014,6,0,-9,13,0,-18,-6,1
1523179990495924,-2,6,21,27,-4,-7,2,-9
1523179990495924,-10,-14,-4,77,38,-18,-14,-8
1523179990516975,-13,-15,-26,-51,-27,-24,5,4
1523179990516975,9,4,7,-22,-6,13,1,0
1523179990517978,0,1,-16,22,1,-8,-3,4
1523179990517978,0,2,32,43,32,-14,7,-7
1523179990532017,-7,-5,-13,-27,-21,-7,-24,-6
1523179990532017,5,5,14,-10,-46,15,17,6
1523179990533017,4,-3,-5,19,35,-6,-2,5
1523179990533017,-5,1,-7,-32,-2,-2,-2,-7
1523179990554309,-6,-13,-10,-29,-71,-42,-8,-4
1523179990554309,-12,-16,-36,-21,-7,10,-10,-15
1523179990556079,8,18,36,19,78,16,8,9
1523179990556079,16,6,11,10,-2,4,4,26
1523179990576134,-20,-1,-16,-32,-58,-66,-24,-46
1523179990576134,-2,-15,-18,71,96,29,10,6
1523179990578137,12,3,4,-53,-89,2,9,12
1523179990578137,-4,4,-3,62,98,12,12,2
1523179990591173,10,4,14,12,6,6,-8,5
1523179990591173,-8,4,23,6,-61,-18,-9,-11
1523179990593180,-6,-3,-2,-4,18,-6,-8,-6
1523179990593180,9,-7,-28,-105,-124,-36,-8,6
1523179990614248,-4,-1,2,76,78,35,13,-4
1523179990614248,11,14,28,11,7,0,-10,5
1523179990615239,-20,-9,-20,9,-19,7,8,14
1523179990615239,-17,-7,-3,-26,20,-12,-22,-41
1523179990636291,20,-9,-27,-60,67,13,11,22
1523179990636291,-16,2,12,49,-97,-23,-4,-23
1523179990638298,6,7,18,-3,-71,-53,-13,-6
1523179990638298,-14,-9,-22,-30,-32,41,6,7
1523179990651373,16,-16,3,37,-5,9,10,9
1523179990651373,26,22,23,7,89,28,17,13
1523179990657349,4,-3,-8,-14,-27,9,-14,2
1523179990657349,-18,2,-4,-3,42,12,10,-20
1523179990674395,-21,-5,1,-21,-19,6,-1,-15
1523179990674395,-1,-10,-10,3,10,24,-6,5
1523179990675396,-1,4,1,16,-19,-25,-1,-8
1523179990675396,11,-8,-3,-23,-20,13,1,11
1523179990696456,-11,3,10,47,59,19,0,7
1523179990696456,12,-8,-21,-61,-47,-37,-21,10
1523179990698458,13,-2,-4,-15,35,15,1,-8
1523179990698458,-28,5,9,31,47,0,-7,-4
1523179990711535,0,-8,-19,-9,-31,-11,6,-9
1523179990711535,-14,6,7,-6,-5,-7,12,-6
1523179990717508,-15,-9,5,8,52,7,-4,-30
1523179990717508,10,14,8,3,11,16,10,32
1523179990734555,33,3,6,4,8,-9,-6,20
1523179990734555,-22,-5,-7,-12,-12,3,33,-11
1523179990736587,5,0,7,6,18,30,-5,13
1523179990736587,-11,3,7,19,-10,1,1,-17
1523179990756848,27,4,-7,-7,-35,-46,-8,-1
1523179990756848,-37,-11,-11,-11,-3,-4,-15,13
1523179990758617,8,7,2,-7,-9,-23,33,17
1523179990758617,-43,-16,-20,-49,-17,1,5,-32
1523179990769647,-3,1,5,11,-17,57,-1,1
1523179990769647,2,-12,-9,-5,-21,-34,-11,-45
1523179990779675,25,5,1,52,-25,4,-11,58
1523179990779675,12,7,-3,-68,68,-2,-33,-12
1523179990793711,6,2,20,71,37,4,-15,11
1523179990793711,-9,-6,-10,-27,-84,-47,-2,-17
1523179990795719,-25,-16,-23,-63,-33,-3,-26,-66
1523179990795719,-26,-14,-12,7,-104,-59,8,-2
1523179990816773,9,12,26,38,91,63,33,21
1523179990816773,55,21,21,29,25,48,-6,45
1523179990817775,21,-3,-3,3,-73,-24,8,37
1523179990817775,29,5,9,14,15,28,8,15
1523179990829813,-47,-11,-25,-46,-56,-24,-9,-42
1523179990829813,40,-5,-6,2,54,-14,-21,11
1523179990838831,-57,-3,-6,-24,27,38,19,-48
1523179990838831,3,-7,-7,13,13,23,10,-35
1523179990854104,-18,-12,-13,-104,-32,-28,-10,8
1523179990854104,36,7,13,63,26,18,-25,17
1523179990855876,-20,9,11,35,13,3,30,11
1523179990855876,5,2,8,13,2,-8,16,58
1523179990876931,1,11,24,2,-10,-9,-20,-33
1523179990876931,-25,-10,-33,-43,-24,50,14,-10
1523179990877937,70,-8,3,-11,29,-25,-31,32
1523179990877937,-28,-1,-4,10,-34,1,26,-57
1523179990889965,-13,-12,-25,-28,65,17,-20,-18
1523179990889965,-39,6,18,-36,-38,-27,-6,-27
1523179990898991,9,11,16,88,45,-1,-26,31
1523179990898991,71,18,20,17,-1,-3,-5,52
1523179990914044,-24,-14,-31,-24,-109,-35,-4,24
1523179990914044,47,-7,-7,-33,-32,-32,9,9
1523179990916036,-83,-7,-12,-30,11,20,3,-70
1523179990916036,23,0,-4,-11,-75,15,-8,0
1523179990936089,7,9,18,35,27,-35,-11,20
1523179990936089,-26,-11,-24,-23,14,13,-8,-12
1523179990938094,53,8,23,36,-2,22,54,54
1523179990938094,-36,-11,-9,-12,-27,-10,-4,-9
1523179990951130,-54,-13,-25,-41,-20,-15,-6,-84
1523179990951130,-8,12,27,94,28,17,7,16
1523179990957145,73,26,31,56,-11,2,3,54
1523179990957145,-20,7,19,19,67,19,4,19
1523179990974192,21,-5,-9,8,10,-4,-1,9
1523179990974192,-26,-20,-26,-46,-59,-6,-1,-3
1523179990975194,-34,-23,-29,-56,-38,-28,-8,-54
1523179990975194,9,8,25,90,95,3,-29,11
1523179990996254,2,8,13,7,-117,31,84,9
1523179990996254,32,16,22,55,47,-2,6,-11
1523179990998254,-23,-2,24,53,13,6,-26,24
1523179990998254,25,-8,-22,-45,16,-5,4,11
1523179991010286,-21,-2,-7,3,-10,-5,-11,7
1523179991010286,12,-10,-10,-24,6,19,1,-4
1523179991019311,-29,-15,-34,-41,-46,-20,4,-51
1523179991019311,-31,4,13,22,-21,-12,-18,-15
1523179991034350,19,-3,9,32,22,4,-1,16
1523179991034350,4,1,0,-23,12,-11,-9,33
1523179991035352,9,-9,-15,-25,62,10,-6,-32
1523179991035352,-51,-10,-21,-52,-61,-38,9,-32
1523179991056409,12,-1,4,30,-32,-18,-30,5
1523179991056409,10,6,15,6,19,-26,13,10
1523179991058415,18,2,4,23,30,26,-6,35
1523179991058415,15,-1,-7,1,-21,7,10,-10
1523179991070489,26,-1,0,-14,8,-8,-10,4
1523179991070489,-31,-4,-5,-32,-16,-19,6,19
1523179991079474,-15,-2,-7,-31,-32,19,-5,-49
1523179991079474,-8,-4,-17,-24,-5,-15,-12,-35
1523179991094510,36,8,18,-5,-30,10,9,12
1523179991094510,4,11,18,69,-29,19,5,7
1523179991095514,1,5,3,-17,-18,-8,0,7
1523179991095514,-34,-5,-3,15,18,5,-42,-6
1523179991116569,1,-5,-17,-32,49,-15,28,11
1523179991116569,-8,-6,-12,-25,41,32,-5,-29
1523179991118576,5,2,10,-36,28,-12,3,-7
1523179991118576,25,-6,-28,15,57,-1,-11,21
1523179991130608,-18,0,37,83,3,4,-3,-19
1523179991130608,16,7,5,4,-26,25,20,25
1523179991139630,-5,-5,-8,-21,-10,21,1,2
1523179991139630,22,12,4,-15,-16,-8,14,13
1523179991153670,-13,-6,-9,-13,73,37,-19,4
1523179991153670,-15,-7,-11,-32,-99,-51,-12,-21
1523179991155673,-11,-14,-21,-10,90,25,-16,-18
1523179991155673,-11,-1,19,33,-87,11,62,13
1523179991176729,7,8,9,-15,-27,10,-2,-11
1523179991176729,2,-3,6,-13,-7,-37,-7,-6
1523179991177732,-22,5,-11,33,28,-13,-6,18
1523179991177732,18,-11,-16,-30,-23,-43,3,56
1523179991189764,-23,-8,-18,-46,-53,-8,-1,-33
1523179991189764,-22,-1,2,35,-31,-14,-33,-22
1523179991206808,-18,-6,-6,3,38,-12,-42,-25
1523179991206808,5,-4,9,39,77,-1,2,1
1523179991213839,26,13,6,29,-46,-8,7,51
1523179991213839,0,-5,-15,-52,13,-19,-4,-14
1523179991215835,-2,0,2,16,-4,5,11,13
1523179991215835,-11,-2,4,-16,-50,-29,-35,-10
1523179991236890,4,-2,-5,-28,36,-9,-5,-15
1523179991236890,-13,-2,-13,27,20,21,-6,-31
1523179991237897,20,1,14,8,33,10,8,11
1523179991237897,12,13,30,23,65,20,1,11
1523179991249924,3,5,-3,16,-42,-8,24,19
1523179991249924,6,1,-7,-22,21,20,11,15
1523179991258948,-9,-4,-10,-30,-31,-32,-8,-4
1523179991258948,26,-9,-15,-35,-98,22,4,11
1523179991273992,-60,-1,3,4,17,-21,-43,-60
1523179991273992,-3,-1,15,56,127,23,-3,2
1523179991275993,12,0,-6,-26,-60,-28,26,16
1523179991275993,23,-6,-9,0,-8,11,11,-14
1523179991297054,3,3,6,51,-22,-1,0,24
1523179991297054,-27,-12,-19,-58,-67,6,14,-24
1523179991298054,15,-5,-9,-33,-50,-3,-26,32
1523179991298054,13,32,47,99,70,22,23,-15
1523179991310088,20,6,-4,-46,73,-17,-10,14
1523179991310088,-20,-20,-13,-36,-97,-35,-14,-7
1523179991319107,22,3,-5,-14,27,6,15,13
1523179991319107,-25,-21,-27,-53,-4,-2,-16,-25
1523179991334147,-14,4,2,24,32,21,10,-24
1523179991334147,18,15,14,36,35,-3,1,40
1523179991335149,1,0,10,-36,-27,-23,-7,-22
1523179991335149,1,1,-4,-34,-22,28,-3,29
1523179991357208,0,-8,1,51,56,22,18,-26
1523179991357208,1,-8,-16,-12,97,6,34,14
1523179991358212,-58,-1,7,32,-128,-21,-7,-85
1523179991358212,45,16,7,-14,-13,3,-1,54
1523179991370283,3,-2,-7,-37,-67,-40,-21,23
1523179991370283,1,-4,3,10,-2,-10,-2,10
1523179991379274,-8,-3,-8,-3,69,16,-2,-9
1523179991379274,-28,-11,-5,-4,-10,11,2,-46
1523179991394412,26,1,-5,3,-19,-2,-8,25
1523179991394412,-8,2,-6,12,-3,20,7,-22
1523179991395319,8,0,19,42,34,-2,-3,24
1523179991395319,-12,-5,-17,-28,-27,-16,-6,-28
1523179991416366,15,-9,-12,7,-64,-3,2,44
1523179991416366,16,10,17,-4,40,16,-7,-7
1523179991418372,28,-4,-19,-21,-96,22,15,12
1523179991418372,-33,9,16,6,87,-1,14,0
1523179991439427,-58,-12,0,13,62,42,-9,-66
1523179991439427,6,-4,-9,-31,-30,-34,-19,-11
1523179991440430,14,2,1,10,-54,-15,4,43
1523179991440430,46,-4,-5,8,53,-5,-11,47
1523179991454675,1,1,0,-15,1,9,8,-35
1523179991454675,-93,-1,3,3,-34,-28,-10,-54
1523179991455469,6,-3,2,-20,-17,-5,7,3
1523179991455469,23,6,-7,20,-56,-6,-7,-6
1523179991483544,29,-1,9,5,71,-5,-1,48
1523179991483544,7,-2,-4,-6,-37,-8,1,-8
1523179991485553,-19,4,10,-11,12,-1,9,-19
1523179991485553,3,-9,-21,17,-10,-22,-8,-6
1523179991498585,3,-4,-6,-29,-9,-14,-10,-2
1523179991498585,5,0,4,15,-37,-7,-2,3
1523179991500589,3,-5,-13,-10,96,42,-8,13
1523179991500589,-15,9,26,15,62,34,11,-10
1523179991513631,8,7,8,22,18,14,13,3
1523179991513631,18,0,1,-12,19,24,-4,-5
1523179991515630,-29,-2,-4,8,-5,-26,-11,-6
1523179991515630,1,-11,-14,-21,-41,-19,-16,-12
1523179991536686,-11,-12,-18,-18,68,-9,7,-4
1523179991536686,6,9,5,7,-55,11,20,34
1523179991537689,22,4,9,24,15,1,-27,-2
1523179991537689,-29,-11,-3,-12,-37,1,55,21
1523179991558745,-8,-4,-2,14,-9,-5,-6,-8
1523179991558745,13,-4,3,15,23,11,2,-23
1523179991564761,7,9,-6,-6,-22,-7,12,23
1523179991564761,-3,-9,-19,-53,-80,-20,-16,-1
1523179991573784,3,3,9,26,41,5,6,-2
1523179991573784,19,0,4,23,59,-2,-13,38
1523179991579809,-13,-7,-6,-11,-16,-7,-12,-23
1523179991579809,-16,8,17,23,43,20,-1,-48
1523179991596845,-16,-10,-32,-36,-84,-32,-13,9
1523179991596845,1,-5,-12,-60,8,-8,-17,-23
1523179991597850,34,-1,15,73,-5,-13,6,41
1523179991597850,9,6,-3,-34,-84,18,21,3
1523179991618942,-16,8,10,-5,50,1,-16,-42
1523179991618942,-5,-10,-22,-11,-22,4,-5,-1
1523179991620910,-9,0,10,2,60,-13,-4,8
1523179991620910,-13,-6,2,2,-72,-58,-27,-47
1523179991632940,17,5,-3,4,-2,27,14,37
1523179991632940,17,2,5,6,38,24,-19,26
1523179991639962,-16,-2,-4,-32,-23,-6,21,-28
1523179991639962,14,-5,-11,-21,65,-6,-16,18
1523179991657117,-7,-4,1,44,-42,13,8,-14
1523179991657117,-15,0,1,22,27,-87,-29,12
1523179991658008,-3,-3,-1,-1,-33,53,10,-19
1523179991658008,-12,1,2,-25,-3,-1,8,-16
1523179991679071,11,-1,-7,-52,-63,-1,-2,23
1523179991679071,29,1,11,-19,11,29,22,31
1523179991681069,-39,-10,-13,-16,-10,-16,-11,-70
1523179991681069,-6,5,-1,21,29,-7,-8,8
1523179991693342,14,5,8,28,-19,-7,8,26
1523179991693342,19,1,2,-39,11,24,-21,34
1523179991700126,-15,-5,-4,19,6,-14,23,-29
1523179991700126,-9,-4,-3,-17,5,41,-9,-17
1523179991716162,23,1,-8,-60,93,-22,2,27
1523179991716162,-10,7,22,71,-9,0,24,-17
1523179991718167,38,0,-10,-13,-1,20,-40,70
1523179991718167,-59,-8,-2,-14,-20,-25,-13,-89
1523179991739223,-22,-12,-12,-3,-25,-28,-15,-16
1523179991739223,11,-2,-20,-36,1,-1,22,13
1523179991740226,19,13,25,-5,63,12,6,21
1523179991740226,34,-2,-2,37,28,-12,2,44
1523179991760514,-35,-1,-5,-22,4,36,10,-31
1523179991760514,-24,-3,4,8,21,-26,-15,-42
1523179991769304,0,-9,-14,-16,-52,-12,9,3
1523179991769304,11,1,10,7,-8,3,-11,16
1523179991776324,8,-1,-1,13,15,5,-3,7
1523179991776324,-20,-3,0,10,-26,-22,1,-26
1523179991778335,-12,-3,-15,-18,-18,-18,1,-15
1523179991778335,21,3,18,75,7,9,14,23
1523179991799390,11,13,18,2,-43,-2,1,25
1523179991799390,-9,-9,-21,-12,-46,0,-3,5
1523179991800386,-2,5,19,-1,-49,-24,-13,-7
1523179991800386,-20,-10,-39,-32,44,-11,-4,-33
1523179991813476,18,-10,16,5,-19,16,-10,24
1523179991813476,2,6,-7,24,-33,23,6,-7
1523179991820440,-26,-4,-3,29,-83,-34,-4,-1
1523179991820440,2,-1,6,-30,1,30,1,-20
1523179991836483,4,2,-15,8,5,-1,1,-2
1523179991836483,29,-3,0,-60,-6,8,24,22
1523179991838487,-10,-1,-6,61,43,9,-4,-29
1523179991838487,15,1,13,16,-71,-18,-4,34
1523179991859642,-29,0,1,10,10,10,-5,-20
1523179991859642,9,9,18,20,6,20,-5,-19
1523179991860546,8,-3,-15,-20,28,20,16,18
1523179991860546,16,-10,-14,-19,-11,-31,-17,13
1523179991873581,-26,2,7,2,-35,-36,-6,-37
1523179991873581,13,-7,-11,-14,9,10,6,24
1523179991880603,-4,4,14,9,21,-2,6,-24
1523179991880603,-8,1,-4,12,53,-12,-20,-4
1523179991896654,12,-4,-11,-37,-63,-25,-9,26
1523179991896654,0,-2,-7,-34,-39,-8,3,-4
1523179991897645,-17,-2,8,16,0,-4,-1,0
1523179991897645,-12,4,10,33,-28,-11,5,-15
1523179991918740,16,2,1,17,105,36,6,-21
1523179991918740,1,-2,-6,7,13,-17,7,-6
1523179991920707,-20,-4,-5,-39,-27,10,-3,39
1523179991920707,10,-1,-8,-21,-10,8,-3,-6
1523179991933742,17,0,4,22,-71,-41,-3,21
1523179991933742,-50,-4,-3,10,-12,1,-12,-31
1523179991939757,34,-3,-7,13,78,3,-6,16
1523179991939757,-22,5,17,14,9,-9,15,-20
1523179991957035,14,-3,-1,-16,-11,-30,-6,17
1523179991957035,-11,1,12,6,3,12,-3,-25
1523179991958810,32,0,-27,-17,56,-22,-8,13
1523179991958810,-6,-8,-14,-92,-42,-15,-37,42
1523179991978863,-24,-7,-4,13,-42,13,39,-36
1523179991978863,-4,10,27,43,28,-1,0,-9
1523179991980866,6,2,5,-18,-52,-10,-1,-10
1523179991980866,-6,2,2,-5,71,17,-4,-9
1523179991992901,31,-8,-26,-30,26,15,-8,11
1523179991992901,-12,-1,-6,-13,-60,15,-11,8
1523179992001922,8,-3,2,-1,-42,11,4,17
1523179992001922,-64,-11,-8,-6,-60,-26,4,-29
1523179992016962,-13,1,-4,7,93,37,-3,-12
1523179992016962,58,10,18,13,14,6,9,52
1523179992017966,-5,6,-3,-9,-33,-22,-10,-27
1523179992017966,70,-3,-6,13,-32,28,7,75
1523179992039020,-106,-6,4,8,43,-5,-4,-108
1523179992039020,4,-10,-18,-4,-41,7,-6,-25
1523179992041026,8,-1,3,-29,49,23,-3,62
1523179992041026,-23,-11,-20,10,18,0,6,-26
1523179992053291,29,9,20,13,44,28,1,36
1523179992053291,32,9,10,42,1,5,7,11
1523179992062091,-31,3,9,-8,-15,1,8,-18
1523179992062091,26,4,-15,-3,14,12,-1,6
1523179992077181,17,-9,2,-18,-39,-20,-14,15
1523179992077181,-59,-8,-9,-6,-65,-26,-1,-43
1523179992078130,-4,-6,-6,-1,66,4,-5,15
1523179992078130,-8,-5,-1,-7,-30,-9,-2,-37
1523179992099183,0,-3,-14,-22,-36,-16,-14,0
1523179992099183,21,2,17,19,41,-19,-3,26
1523179992100185,24,14,13,75,20,22,7,0
1523179992100185,-18,-8,-2,1,0,13,4,12
1523179992113225,25,7,2,4,-5,0,-10,-6
1523179992113225,-9,-6,-12,-11,48,14,0,48
1523179992122244,-65,-11,-14,-32,-50,-18,-10,-78
1523179992122244,35,3,9,22,7,-2,11,3
1523179992136280,37,8,-2,-15,-15,8,-18,45
1523179992136280,-5,-2,-4,-9,-67,-30,-4,-26
1523179992138290,5,0,13,17,100,3,-1,6
1523179992138290,-29,0,16,23,-36,25,6,-18
1523179992159573,-4,-6,-18,-22,-10,21,11,-2
1523179992159573,10,5,-8,-2,27,4,-8,7
1523179992160377,16,-1,-1,-16,-104,-34,-13,-2
1523179992160377,6,2,3,-3,10,-11,-3,-4
1523179992172376,1,0,4,14,-27,-23,4,24
1523179992172376,-31,-8,-13,-31,1,41,-3,-30
1523179992181399,14,-1,1,14,-24,12,8,4
1523179992181399,3,11,12,4,40,2,1,9
1523179992196447,0,-1,-1,9,-28,-7,-1,8
1523179992196447,4,-8,-6,22,21,-12,-3,11
1523179992198444,-14,-4,-8,-56,-7,2,-3,-38
1523179992198444,-20,5,5,-5,-56,-14,30,15
1523179992219501,20,-3,6,21,5,3,-12,11
1523179992219501,-59,-1,-1,-33,-11,20,3,-51
1523179992220504,32,-11,-17,-16,37,-18,-4,7
1523179992220504,-3,2,20,5,10,-12,9,35
1523179992232535,-30,1,-1,-20,-91,18,23,-38
1523179992232535,22,1,0,3,81,-6,3,24
1523179992241560,4,-1,-7,-14,-66,-7,2,-12
1523179992241560,7,-1,-13,-15,17,3,-14,17
1523179992256834,-12,0,4,9,50,8,-3,-10
1523179992256834,0,1,1,9,-33,-10,-1,-12
1523179992258604,1,0,5,10,11,33,0,15
1523179992258604,42,-5,-6,7,-1,-11,-8,3
1523179992278669,-49,-6,-10,-8,40,-8,-4,-33
1523179992278669,-10,4,16,22,11,-21,4,-26
1523179992280664,-14,-2,3,17,-6,-5,-9,13
1523179992280664,-8,-7,-16,-29,6,3,-4,-6
1523179992292695,43,1,8,14,-60,-13,5,41
1523179992292695,21,-2,-16,-50,-36,-12,10,18
1523179992301720,-5,2,12,59,28,-29,11,29
1523179992301720,-25,-7,-9,0,8,1,-49,-17
1523179992316761,-36,-1,3,-12,0,-18,-2,-69
1523179992316761,34,1,-1,10,78,21,8,57
1523179992318766,21,9,1,7,-57,2,7,12
1523179992318766,5,2,-8,-23,-1,-1,4,12
1523179992338818,-5,-9,4,25,-10,-21,3,0
1523179992338818,10,-9,-11,0,-36,5,-13,-5
1523179992340824,-65,-9,-18,-52,16,-1,-7,-60
1523179992340824,20,6,15,68,52,8,6,0
1523179992353092,-1,4,-4,-1,-11,22,-1,6
1523179992353092,8,-1,15,7,-23,-26,2,6
1523179992361887,8,-6,-23,-33,-13,6,-1,5
1523179992361887,-10,1,5,-36,-33,-23,-3,-13
1523179992376920,29,3,9,13,-15,-13,-1,32
1523179992376920,-29,-5,-13,34,-2,-14,-6,-28
1523179992377923,-19,-1,4,-13,30,8,-8,-31
1523179992377923,-8,2,-4,2,-58,-2,0,-2
1523179992398979,3,-3,4,3,87,6,2,11
1523179992398979,-4,-1,-6,-30,-14,2,-3,0
1523179992400983,25,3,-6,-2,-15,52,1,3
1523179992400983,-4,0,6,28,46,10,12,19
1523179992421036,9,2,-4,-20,13,16,-3,21
1523179992421036,1,-3,-5,37,-31,-19,-10,5
1523179992423048,-43,-3,-3,-13,29,-16,4,-64
1523179992423048,13,2,9,9,-29,-17,-6,-7
1523179992436078,1,0,-9,19,37,-14,-8,6
1523179992436078,-4,1,9,-3,26,11,10,-5
1523179992438081,38,1,3,-12,-61,-31,-7,50
1523179992438081,-1,-6,-17,-27,32,44,10,-9
1523179992459372,-8,-4,-6,-40,-42,-31,-11,-7
1523179992459372,-33,6,13,58,84,53,2,-33
1523179992461142,17,-1,4,3,-62,-8,3,16
1523179992461142,-10,-6,-14,-16,-3,-11,-4,12
1523179992481195,27,8,6,-22,-38,-12,3,28
1523179992481195,8,-10,-15,-8,6,-3,0,2
1523179992483203,4,-3,9,42,57,25,-7,12
1523179992483203,-32,-1,5,4,-48,-4,7,-63
1523179992496241,7,9,1,7,57,34,10,4
1523179992496241,9,-1,-4,-44,-34,7,1,11
1523179992498242,-6,2,14,49,55,11,1,-2
1523179992498242,20,-4,-4,22,-11,-14,-6,13
1523179992519338,4,-3,-7,-13,-3,7,-2,5
1523179992519338,-40,0,15,-13,-18,2,-1,-57
1523179992520299,24,2,-16,-30,38,-14,-1,32
1523179992520299,6,1,3,-11,-8,-10,-5,3
1523179992541357,-12,-4,6,48,62,55,10,-18
1523179992541357,-6,-3,-6,3,16,-10,-6,-5
1523179992543360,28,4,-1,1,-46,3,4,32
1523179992543360,-13,-3,-4,19,115,14,-1,-15
1523179992556490,-16,0,3,14,-16,6,1,-24
1523179992556490,43,1,-4,-10,-3,-18,-7,58
1523179992562458,-79,-4,-3,-9,-24,-6,-1,-100
1523179992562458,20,3,-5,-25,0,7,-4,21
1523179992579467,3,-9,-5,30,-39,-6,0,-2
1523179992579467,7,1,-5,-17,7,0,-4,30
1523179992580460,16,0,-4,-4,-76,-15,3,25
1523179992580460,5,1,-1,-16,7,2,3,-11
1523179992601518,-15,1,14,54,-13,-13,-8,-11
1523179992601518,9,-2,-6,-19,37,-21,-3,1
1523179992603521,-2,-5,-9,-8,-2,-5,-1,-9
1523179992603521,-6,2,11,-27,-28,-3,-17,1
1523179992615555,16,-6,-11,-33,-26,-28,2,42
1523179992615555,-39,-7,-9,-9,-24,-7,-4,-76
1523179992622573,33,6,21,28,-72,-2,1,31
1523179992622573,0,-1,-10,-7,49,-13,0,22
1523179992638614,-8,-1,5,41,-6,-24,-7,-24
1523179992638614,3,1,3,-26,11,-9,2,14
1523179992640620,-14,-2,-2,-8,127,66,3,-11
1523179992640620,11,0,-6,-13,-120,-25,-5,3
1523179992661684,-11,2,-4,-25,37,9,-4,5
1523179992661684,36,-3,-4,-4,15,12,6,42
1523179992662688,-67,-4,1,6,1,-29,0,-98
1523179992662688,-2,-1,-3,-33,54,33,9,13
1523179992675715,0,-3,-11,-33,-11,-1,7,5
1523179992675715,3,6,18,67,-37,3,-8,6
1523179992682732,32,1,-8,-22,-12,-17,-6,46
1523179992682732,-2,-1,3,4,28,23,8,3
1523179992698775,-33,-8,-12,-33,-68,-17,-9,-57
1523179992698775,3,-2,1,-34,-7,-34,-18,19
1523179992700781,23,7,-9,10,23,1,-1,35
1523179992700781,-19,0,4,58,-59,-22,-5,-40
1523179992721836,2,-6,-2,-5,2,-3,0,2
1523179992721836,-3,2,-7,-43,-59,-8,-3,2
1523179992722839,10,0,13,45,42,24,5,21
1523179992722839,-28,-4,8,-1,49,-16,-2,-59
1523179992735873,23,1,2,-12,-2,-19,-5,26
1523179992735873,-11,-2,-10,-9,49,26,11,1
1523179992743132,-15,-2,-6,-16,-43,-20,-14,-21
1523179992743132,20,4,4,22,53,0,2,19
1523179992759167,-2,-8,-19,-38,-7,1,-2,-2
1523179992759167,18,9,10,47,-9,-30,-5,20
1523179992760939,-10,-6,6,-7,65,21,14,-15
1523179992760939,-4,-9,-10,-3,-94,-37,-11,-13
1523179992780992,24,-1,-9,-31,-11,1,0,40
1523179992780992,-65,-4,7,49,26,-3,-9,-75
1523179992782998,7,1,-2,20,26,7,5,2
1523179992782998,11,-7,2,-17,-51,-12,-8,26
1523179992796063,11,11,13,0,34,11,8,3
1523179992796063,15,-5,-8,-21,-18,9,5,8
1523179992803264,2,-4,-3,8,37,12,-8,17
1523179992803264,-36,1,-2,1,13,26,-1,-58
1523179992819133,15,2,-11,-33,11,9,-8,28
1523179992819133,-8,4,18,-2,-17,-14,2,-21
1523179992821099,7,-5,-18,-13,-24,-4,0,7
1523179992821099,18,-7,-9,-10,-19,-17,3,32
1523179992842194,-33,-1,-4,-8,69,7,-2,-31
1523179992842194,-7,-7,-10,-32,-28,11,0,-19
1523179992843157,20,6,4,-1,-56,-5,0,23
1523179992843157,19,4,3,18,-15,-1,2,17
1523179992856428,-4,1,4,25,-55,-18,-1,-13
1523179992856428,-18,-2,-4,-13,36,25,6,-12
1523179992870231,-22,-11,-7,-18,-13,-4,-6,-13
1523179992870231,21,4,-9,-7,92,41,8,40
1523179992879255,-9,-5,3,-3,-73,-13,-6,-23
1523179992879255,25,1,-10,-1,0,5,2,23
1523179992880258,-9,4,18,8,-5,-31,-7,-23
1523179992880258,-15,-4,0,-9,11,9,-1,-9
1523179992901313,-1,-1,5,33,78,23,4,11
1523179992901313,0,0,-7,32,-84,-5,11,6
1523179992903317,12,5,2,3,63,2,-3,12
1523179992903317,-4,-1,-13,-16,-1,-17,-1,-19
1523179992915349,3,-3,4,16,12,-19,-11,11
1523179992915349,-18,-8,-3,-12,-40,-20,-9,-10
1523179992924374,6,-2,-5,-28,-15,-1,1,13
1523179992924374,-17,0,-1,-29,-72,-1,-2,-30
1523179992939415,19,2,11,59,48,-6,0,34
1523179992939415,-10,3,7,39,1,-4,-9,-33
1523179992940416,10,-3,-1,-11,37,17,11,24
1523179992940416,-38,0,-2,-33,-30,-5,-3,-34
1523179992961480,10,-3,-6,-16,-5,-11,-4,10
1523179992961480,15,3,11,6,-18,30,12,21
1523179992963479,-6,-7,-10,-14,-19,10,-3,-24
1523179992963479,9,4,11,40,66,-2,-8,9
1523179992975512,-15,-4,-9,-25,-54,2,3,8
1523179992975512,28,6,-3,-11,-4,9,6,29
1523179992984536,-5,-3,2,-11,-9,-31,-5,-13
1523179992984536,-4,-4,-8,6,-14,0,-7,2
1523179992998572,-3,-5,2,11,-40,-1,3,-9
1523179992998572,0,-2,-9,-15,66,16,-1,-2
1523179993000577,-11,1,-1,-17,1,4,2,-1
1523179993000577,-5,3,6,30,-40,-10,-5,-19
1523179993021632,-7,2,8,-43,0,21,8,-21
1523179993021632,14,1,2,45,-9,-11,1,31
1523179993022637,8,-4,-4,-8,27,12,7,14
1523179993022637,14,-2,-12,-23,-15,-5,-6,7
1523179993034667,-27,-5,-10,-12,35,7,-3,-31
1523179993034667,19,-2,-4,-43,-12,-18,-8,27
1523179993043693,-43,-5,-1,-16,-96,-38,-19,-57
1523179993043693,11,-3,-4,6,25,-6,-5,27
1523179993058966,-15,1,22,3,22,-1,-9,-35
1523179993058966,-2,-8,-39,-3,-69,-40,-7,-10
1523179993060741,46,13,23,53,36,11,16,54
1523179993060741,9,1,-4,-31,50,14,12,20
1523179993081793,-8,-1,-3,-24,78,-5,-3,-18
1523179993081793,-16,4,24,35,-16,-7,-6,-18
1523179993082795,-8,-6,-9,-5,-21,-1,-10,-12
1523179993082795,13,-13,-12,-15,-10,4,1,27
1523179993094838,-17,7,0,11,-16,15,5,-27
1523179993094838,-9,-9,1,-18,27,7,-12,-14
1523179993103995,2,-1,-5,13,46,-1,16,3
1523179993103995,-14,-1,15,33,-5,18,0,-25
1523179993118891,14,-2,-16,-27,-35,4,-2,15
1523179993118891,10,0,-3,-9,-9,5,0,36
1523179993120897,-6,-7,-3,-24,-45,-23,-11,-11
1523179993120897,-2,2,3,33,-11,0,5,8
1523179993142193,-10,1,2,2,9,-15,5,-17
1523179993142193,1,-4,1,0,20,3,-1,-14
1523179993143958,-7,3,5,8,-55,4,-2,9
1523179993143958,14,2,1,10,76,31,6,13
1523179993155221,-4,2,-14,-35,-18,5,4,13
1523179993155221,27,-2,16,22,72,17,2,31
1523179993164011,-33,-12,-19,-35,-46,2,-10,-42
1523179993164011,-20,6,0,-20,-53,-29,-8,-45
1523179993179061,-3,-2,6,23,-15,9,2,13
1523179993179061,5,1,-11,11,14,-3,7,13
1523179993181057,-4,1,12,0,97,0,-8,-11
1523179993181057,14,-6,-5,38,-62,0,1,15
1523179993202150,11,-1,-2,-4,-74,-11,0,10
1523179993202150,-24,0,-9,-32,-3,-11,-2,-31
1523179993203116,21,10,5,6,-22,5,1,13
1523179993203116,-11,-4,19,38,24,7,0,-6
1523179993215146,7,-6,-16,-26,73,0,-7,8
1523179993215146,5,-1,-2,19,-64,-29,-2,12
1523179993224170,-39,-1,8,3,-31,-19,-4,-59
1523179993224170,25,6,-7,-15,92,7,5,47
1523179993239210,29,7,8,12,8,-11,-2,19
1523179993239210,-18,-4,-7,-52,15,17,-1,2
1523179993241254,14,-7,-3,24,-69,-25,-3,17
1523179993241254,-22,-11,-3,9,-32,-11,-3,-31
1523179993261279,-11,-6,-5,9,-39,-16,-3,-22
1523179993261279,6,5,6,25,24,-3,-17,1
1523179993263276,12,3,-3,-2,29,9,-3,8
1523179993263276,-9,-2,-1,-32,-29,-6,-2,-6
1523179993275346,10,-2,-2,18,-28,1,-1,11
1523179993275346,-9,-3,-19,-74,-58,1,9,-14
1523179993284331,16,-7,-12,33,90,10,-11,39
1523179993284331,-16,4,11,8,-39,-2,14,-51
1523179993299374,-29,-1,4,10,94,11,9,-35
1523179993299374,26,12,13,5,-61,0,7,46
1523179993300374,7,-5,-17,-54,-5,-15,-1,11
1523179993300374,15,2,3,-6,67,28,12,28
1523179993321431,-9,-3,-5,48,-62,-20,-15,-30
1523179993321431,-21,-16,-1,-53,46,19,-2,-35
1523179993323435,7,9,3,13,-27,9,-1,12
1523179993323435,11,4,19,44,27,26,-5,14
1523179993343489,-10,0,-3,7,-2,9,4,-3
1523179993343489,-8,-9,-6,-8,21,-28,-17,-13
1523179993345500,5,-6,-17,-37,-24,11,9,15
1523179993345500,-3,4,-5,-51,-20,-33,-20,-5
1523179993359531,6,7,21,45,-8,-13,10,9
1523179993359531,-12,-4,-9,31,-28,20,7,-21
1523179993360536,13,-10,11,0,-10,12,-1,11
1523179993360536,-26,-3,-9,-13,54,-13,1,-20
1523179993381591,13,5,-11,-41,-16,-13,-7,17
1523179993381591,-3,-8,-7,51,56,29,3,-8
1523179993383596,-11,1,15,-11,19,-18,-12,-25
1523179993383596,35,5,-5,-4,-46,12,12,55
1523179993404662,7,9,11,-4,22,46,8,7
1523179993404662,-10,0,1,6,3,-22,0,-19
1523179993405654,-13,-12,-16,-26,10,-13,-9,-8
1523179993405654,7,1,2,-18,-59,-10,1,5
1523179993419690,1,5,23,27,-24,1,4,8
1523179993419690,-6,4,3,8,20,-2,-11,-14
1523179993421695,-6,-6,-11,21,21,-14,2,-4
1523179993421695,-3,-3,-1,-27,-71,-7,-7,-2
1523179993441985,2,-12,-30,-17,-32,-20,-8,5
1523179993441985,9,-2,12,3,21,7,1,8
1523179993442753,-15,3,9,5,-34,-27,8,-21
1523179993442753,-7,2,20,27,42,28,-2,2
1523179993463808,-22,1,-8,-22,-92,-16,-3,-35
1523179993463808,6,-7,-14,-7,-12,-3,0,12
1523179993465813,40,10,4,-41,3,2,7,40
1523179993465813,-39,-7,-7,48,24,-11,-8,-27
1523179993478856,12,-4,6,14,74,-8,1,16
1523179993478856,0,7,4,-21,-46,3,-3,-10
1523179993484901,3,4,-6,-33,-24,-1,-3,1
1523179993484901,9,0,-3,29,48,-18,-3,-3
1523179993502141,6,-4,8,29,28,31,-1,16
1523179993502141,-7,0,-4,-11,37,-11,-6,-23
1523179993502911,-27,5,5,25,2,20,10,-20
1523179993502911,4,-4,-6,-33,-25,-14,-1,2
1523179993524008,-7,-4,-15,-43,-32,-21,-12,-6
1523179993524008,12,-2,1,5,6,3,4,15
1523179993525974,-2,5,19,66,-14,46,11,4
1523179993525974,4,-7,-25,-12,29,-26,-5,6
1523179993538005,18,8,24,55,-34,20,12,13
1523179993538005,-26,0,-4,-36,-26,-13,-7,-20
1523179993545033,13,1,6,6,24,51,6,-4
1523179993545033,-24,-6,-14,-17,-26,6,7,-7
1523179993562101,37,-8,-14,-38,-5,-7,5,47
1523179993562101,-26,-6,-4,-9,-49,-18,6,-53
1523179993563073,-27,-1,-3,13,-2,-13,-4,5
1523179993563073,25,9,15,9,41,13,2,16
1523179993584129,10,-1,-3,5,-12,-8,-8,6
1523179993584129,11,-1,4,4,32,16,6,20
1523179993585131,-14,-6,-11,-13,-2,-21,-6,-18
1523179993585131,6,-7,-26,-69,-94,-22,-8,0
1523179993598167,-30,-1,23,58,48,-4,-9,-11
1523179993598167,3,1,-2,-2,-13,-9,3,-5
1523179993605418,6,1,-7,19,62,27,3,7
1523179993605418,-6,-5,-1,-19,-44,-16,-8,-12
1523179993621238,-8,-2,-8,15,-57,20,-5,-13
1523179993621238,15,-2,-11,-43,17,-16,-1,16
1523179993623233,-1,0,2,-15,-27,-20,-7,4
1523179993623233,22,-1,5,42,-15,-13,2,29
1523179993644292,-39,-6,-19,-97,-2,5,2,-58
1523179993644292,0,7,30,71,22,23,6,30
1523179993645297,7,-2,-5,5,-13,-5,-7,-1
1523179993645297,-3,1,-1,-4,10,-6,-4,0
1523179993658324,-2,-1,-5,-46,-22,-15,-10,-6
1523179993658324,-8,-4,-12,-6,-2,-1,1,-2
1523179993665348,7,1,0,9,39,-18,-7,-1
1523179993665348,6,5,3,-13,-16,5,0,5
1523179993681386,-3,-9,-16,-30,32,-8,-1,2
1523179993681386,-7,1,19,61,-28,22,6,-4
1523179993683431,17,-1,-12,-7,-75,-20,-2,13
1523179993683431,-13,-3,-4,-23,100,19,0,-42
1523179993704682,-5,12,3,24,11,-4,2,10
1523179993704682,20,-2,7,-3,19,10,-1,33
1523179993706453,-5,-2,-3,-16,27,-32,-3,-9
1523179993706453,-4,-2,-6,13,-51,62,7,-14
1523179993718523,19,-6,-3,-17,-20,-18,-7,24
1523179993718523,-43,-3,-10,-34,4,-18,-7,-62
1523179993725737,-4,0,17,80,35,10,-4,9
1523179993725737,12,-2,-1,-67,-17,-2,14,11
1523179993741779,-5,3,12,108,75,15,4,-14
1523179993741779,16,2,-11,-37,-84,-5,-3,15
1523179993743551,9,-8,-6,-44,21,-3,0,7
1523179993743551,-36,-4,7,16,-58,-1,-8,-35
1523179993763647,13,4,11,17,11,-8,-3,8
1523179993763647,6,1,-6,-3,50,-1,-2,8
1523179993765609,9,-8,-15,-30,-33,10,7,6
1523179993765609,-14,-2,10,47,-13,-31,-4,-5
1523179993778646,-1,-9,-19,-78,-16,-7,-8,-3
1523179993778646,-12,-2,15,56,-16,-7,-5,-21
1523179993784661,1,4,3,-13,31,3,2,-1
1523179993784661,3,0,-9,1,28,-20,-10,2
1523179993801946,-1,-7,-8,-24,-62,2,6,6
1523179993801946,9,-5,-10,3,7,-14,-1,13
1523179993802708,-2,-1,-9,-40,-49,-2,-1,-8
1523179993802708,-13,5,30,84,57,2,2,-3
1523179993823764,-14,0,-16,-14,-5,-15,-4,-18
1523179993823764,15,-5,-11,-21,41,16,-5,36
1523179993825769,-28,1,-1,-5,40,-8,-2,-51
1523179993825769,12,-4,-6,-8,-26,-1,0,11
1523179993837802,-4,0,10,-14,16,28,16,0
1523179993837802,9,0,16,88,81,2,-2,7
1523179993846825,-7,2,-12,-8,-46,-3,-5,0
1523179993846825,9,-8,-20,-42,-78,-22,-5,10
1523179993861872,2,2,19,59,109,27,1,-2
1523179993861872,-5,-1,-13,-20,-102,-8,3,-9
1523179993862870,-5,1,16,1,53,12,1,3
1523179993862870,-1,-1,-8,-7,-2,5,1,6
1523179993883925,9,1,1,-8,-57,-8,-3,-4
1523179993883925,2,0,-10,-6,23,2,-2,10
1523179993885931,0,0,4,28,-18,26,7,1
1523179993885931,17,-5,-13,2,3,-9,-13,29
1523179993897961,-40,-1,16,16,-42,3,-1,-53
1523179993897961,-3,6,-1,-33,-32,-1,-7,-5
1523179993906986,2,-12,-6,17,30,6,-14,-3
1523179993906986,25,5,9,8,32,22,7,37
1523179993929050,-22,2,0,29,59,26,3,-24
1523179993929050,-5,-1,-3,-34,-61,-38,-18,-12
1523179993931049,14,0,6,25,0,27,2,28
1523179993931049,-17,1,6,3,-19,-9,-6,-17
1523179993944089,14,0,9,-7,17,-14,1,19
1523179993944089,8,0,-17,-42,16,4,2,-3
1523179993946091,-17,-7,1,9,-43,-13,0,-28
1523179993946091,-3,2,4,48,13,-23,-3,-9
1523179993958266,3,-2,-1,-4,-35,-3,1,18
1523179993958266,10,-5,-4,-6,-22,-11,7,19
1523179993966143,-7,3,9,-22,49,11,8,-12
1523179993966143,-15,1,-7,-37,-112,-58,-17,-27
1523179993981182,10,2,-4,20,84,35,5,23
1523179993981182,-9,-3,-2,-35,-78,18,6,-11
1523179993983190,8,0,7,60,-12,-25,-5,9
1523179993983190,1,-2,-2,-25,10,2,-2,13
1523179994004479,-7,-1,3,-14,60,15,7,-37
1523179994004479,-21,2,-5,21,88,11,-9,-12
1523179994005246,1,-5,-14,-37,-35,-8,-4,3
1523179994005246,13,2,15,1,68,35,9,9
1523179994017317,13,-3,-11,15,-64,-36,-11,28
1523179994017317,-5,1,15,20,-11,4,7,-41
1523179994026310,-22,1,2,-44,-16,-30,-6,24
1523179994026310,-3,-1,-34,-11,105,81,13,-9
1523179994041580,5,-6,11,-19,-65,-36,-6,0
1523179994041580,9,9,11,5,65,-23,-16,0
1523179994043356,19,-1,-8,29,0,42,18,31
1523179994043356,-10,5,15,3,17,0,7,-30
1523179994064405,-3,-5,-4,29,-1,-14,-9,-1
1523179994064405,-7,-7,-13,-3,-36,19,-7,2
1523179994065407,-5,2,9,-21,14,-6,-9,-9
1523179994065407,12,5,-15,10,33,24,15,13
1523179994077448,-3,-9,-1,7,-53,2,0,-4
1523179994077448,2,7,8,8,46,-2,1,4
1523179994086462,-5,-3,-14,-44,-37,-10,-6,-12
1523179994086462,-5,-5,14,52,12,-25,-10,-8
1523179994101738,11,8,4,-50,-33,11,6,16
1523179994101738,29,-3,-12,-24,52,-9,4,41
1523179994103508,-58,1,12,41,-50,-5,8,-68
1523179994103508,13,-4,-8,-44,11,-4,-9,-1
1523179994123563,-9,-6,-17,-41,-101,-17,-1,1
1523179994123563,-22,-2,13,31,36,-16,10,-21
1523179994125567,13,-4,-8,-19,-21,-6,-12,-18
1523179994125567,17,1,-8,-35,-34,-28,-2,26
1523179994137600,-2,3,-13,33,38,7,0,23
1523179994137600,0,-1,12,-15,-34,-3,1,-3
1523179994146624,9,-6,3,28,44,6,9,9
1523179994146624,-22,-5,-8,-35,-36,-2,-1,-34
1523179994161664,21,7,-15,-6,-7,-8,-4,7
1523179994161664,-6,-10,7,42,-47,5,8,5
1523179994162668,16,4,-4,-48,20,2,-13,14
1523179994162668,-31,-2,16,30,26,-10,0,-32
1523179994183722,6,2,-11,19,54,13,-1,7
1523179994183722,2,2,6,10,-26,-3,1,-5
1523179994185727,8,5,0,0,14,34,0,12
1523179994185727,20,-8,-7,-31,-91,-18,9,38
1523179994197760,-18,-2,-3,4,86,19,0,-36
1523179994197760,-50,-4,-10,-26,-117,-47,-20,-41
1523179994206781,24,0,5,25,14,-5,3,24
1523179994206781,-8,-1,11,65,10,1,-2,-3
1523179994222058,11,-4,2,0,-11,-24,-6,3
1523179994222058,10,0,-10,-16,11,13,4,20
1523179994222827,8,5,4,20,-4,-12,-2,1
1523179994222827,-28,-5,-7,-23,46,4,6,-11
1523179994243887,-3,-5,10,-11,-41,-16,3,-2
1523179994243887,2,-5,-15,-4,37,29,2,1
1523179994245887,-2,-6,-10,-39,-27,-31,-5,-3
1523179994245887,6,6,21,43,0,6,-9,8
1523179994258153,-5,-3,-11,-11,-75,-27,-2,-8
1523179994258153,9,-4,-7,-29,21,2,0,11
1523179994266944,2,-5,-12,8,20,12,0,17
1523179994266944,-8,3,10,-8,29,-5,-11,-48
1523179994281981,-6,-2,0,-9,19,-1,-7,36
1523179994281981,11,-3,0,-6,18,5,4,10
1523179994282985,-8,-5,-13,-15,-60,-33,-5,-5
1523179994282985,-1,-3,-10,-37,-18,54,10,0
1523179994304276,7,2,19,57,48,9,3,-19
1523179994304276,-16,1,9,21,9,7,-9,-13
1523179994306048,6,-2,-3,-12,-28,2,2,7
1523179994306048,15,-1,-9,-4,11,-9,-3,18
1523179994326105,-3,3,2,-12,4,1,-1,-14
1523179994326105,6,4,15,30,43,-23,-1,3
1523179994328132,-16,-6,-8,-5,-22,9,-3,-24
1523179994328132,14,-2,-2,-28,8,15,0,28
1523179994341372,6,-2,-8,10,-4,3,-17,16
1523179994341372,-10,1,-15,-37,50,14,13,-35
1523179994343147,-11,2,30,54,36,6,-2,-9
1523179994343147,3,-5,-25,-12,-87,-12,-2,5
1523179994364200,-5,-3,-6,-30,24,3,-1,1
1523179994364200,6,-1,5,21,9,11,-4,7
1523179994365203,-8,-6,-14,-10,-30,-34,-4,-14
1523179994365203,7,3,14,42,72,18,0,-1
1523179994386259,-15,1,-1,-29,-57,-17,7,-10
1523179994386259,4,-5,-14,-29,-38,-22,-5,-7
1523179994388264,-9,-2,7,44,23,4,21,10
1523179994388264,-4,-1,5,20,29,-28,-13,-3
1523179994401464,-5,0,-8,-38,-37,27,5,-11
1523179994401464,21,5,7,7,0,17,7,14
1523179994408358,8,0,-8,10,-15,5,-3,11
1523179994408358,-7,0,-5,-25,-13,-5,6,-5
1523179994424596,22,-5,-2,-20,-1,-19,-9,13
1523179994424596,-34,-6,9,33,40,7,-1,-20
1523179994430376,5,8,1,9,69,66,13,-13
1523179994430376,3,5,10,-4,-9,7,3,18
1523179994446419,6,0,-10,9,7,4,7,-8
1523179994446419,-6,-2,5,9,-70,9,0,5
1523179994448424,0,3,-2,-31,3,-8,-8,2
1523179994448424,5,-9,-6,-11,-27,-38,-23,-11
1523179994461467,-4,-3,7,39,-3,41,22,15
1523179994461467,5,-3,1,14,41,-30,-15,-4
1523179994467477,-30,4,3,-7,26,8,10,-9
1523179994467477,15,6,2,-5,-45,20,8,8
1523179994483517,20,-5,-3,-25,5,-15,-5,3
1523179994483517,-1,-8,-23,-13,16,33,7,23
1523179994485524,14,1,6,40,-2,5,-8,-10
1523179994485524,-39,-5,-7,-18,35,7,1,-33
1523179994506814,5,6,9,15,-11,8,7,10
1523179994506814,16,3,-6,4,-41,-10,6,8
1523179994507582,16,-3,2,-15,58,-25,-12,17
1523179994507582,-10,-6,-12,9,-24,3,-1,-13
1523179994520618,-20,-5,2,-1,37,-10,-2,-24
1523179994520618,-1,-2,-2,-15,-38,-1,-7,1
1523179994527640,25,1,-4,-2,-17,7,-1,26
1523179994527640,-37,-5,-5,22,-26,-40,-5,-48
1523179994543683,-9,2,-4,-37,-17,6,-6,-6
1523179994543683,9,4,22,50,7,-10,-1,-1
1523179994545686,27,12,-1,-13,-16,-12,4,43
1523179994545686,36,-4,-7,-23,10,-6,5,28
1523179994566777,-42,-7,-3,-4,66,-1,-7,-32
1523179994566777,-22,-5,-13,-8,-6,7,1,-8
1523179994567741,-5,-12,-5,-45,-53,-12,-6,-20
1523179994567741,-10,5,-5,18,-19,-5,-8,-13
1523179994580776,8,-1,2,11,-65,-24,0,9
1523179994580776,16,2,2,-8,-28,7,-1,6
1523179994587794,-2,0,-8,-7,17,-10,2,-2
1523179994587794,13,3,5,-9,58,15,1,29
1523179994603837,11,0,2,39,-19,-8,-14,-6
1523179994603837,-40,-6,-10,-26,-12,-12,-10,-44
1523179994605843,2,-2,4,19,-99,16,7,1
1523179994605843,9,6,7,4,10,9,4,10
1523179994626904,1,1,13,30,79,13,-3,9
1523179994626904,20,-1,-14,-23,-24,-33,-2,19
1523179994627902,-10,-8,-6,-20,1,-13,-9,-20
1523179994627902,-22,-8,0,25,-42,4,8,-19
1523179994641171,-7,1,-1,-9,-62,-42,-18,12
1523179994641171,-2,1,-6,-19,-11,15,3,4
1523179994647958,-9,-3,-1,-4,16,-14,-8,-11
1523179994647958,21,-1,4,-1,7,12,4,15
1523179994663997,1,-2,-5,-10,34,4,-1,-6
1523179994663997,-7,-1,7,-5,-37,-9,-1,-1
1523179994666002,-11,-5,-15,-20,-15,-11,-5,-7
1523179994666002,5,-3,0,-1,3,-15,-5,9
1523179994686057,-2,0,-8,-2,-8,10,4,-4
1523179994686057,10,0,11,24,32,4,1,13
1523179994688062,-8,-2,-3,-29,-52,-24,-3,-16
1523179994688062,-5,1,-6,18,50,6,-3,1
1523179994701096,-2,-2,9,-45,-20,0,-1,0
1523179994701096,5,0,-18,52,38,12,3,6
1523179994708348,9,-10,9,-1,16,16,-5,15
1523179994708348,-25,1,3,-14,-44,-24,-2,-42
1523179994723157,-3,1,-8,-21,2,68,21,7
1523179994723157,12,-3,2,25,-1,-2,0,7
1523179994724157,13,4,3,5,24,-10,-9,12
1523179994724157,-15,-4,-7,3,42,0,-3,-8
1523179994746216,6,4,6,7,55,-12,-4,-3
1523179994746216,15,0,1,-15,-43,-10,-2,19
1523179994746216,-39,3,1,21,35,18,6,-30
1523179994746216,8,-1,-2,33,-10,-20,-4,28
1523179994760275,-3,-3,0,-16,-16,-18,3,-14
1523179994760275,10,1,7,8,32,4,-15,14
1523179994768275,-12,-4,-11,-30,-4,-7,17,-11
1523179994768275,1,2,19,14,-19,-25,-15,-6
1523179994783316,1,-4,-20,1,-40,-11,0,1
1523179994783316,-3,3,5,-16,33,15,11,2
1523179994784317,-5,0,2,5,-48,-29,-6,-13
1523179994784317,-1,0,0,-26,-98,14,2,-7
1523179994806616,3,-1,-6,3,41,-13,-14,1
1523179994806616,-3,-1,5,-49,-24,8,2,-16
1523179994807379,16,5,5,62,36,9,-4,21
1523179994807379,-11,-3,-4,-35,11,20,8,-4
1523179994820413,21,1,4,2,-3,3,-19,6
1523179994820413,-45,-3,-7,3,-14,-14,-1,-39
1523179994828436,11,-3,-10,-21,68,8,-2,19
1523179994828436,27,2,0,0,-5,-22,-5,7
1523179994843480,-11,-2,-2,12,36,8,3,10
1523179994843480,-35,-10,1,10,-3,-15,-5,-21
1523179994844484,15,5,7,-4,-39,-3,-6,5
1523179994844484,1,-2,-13,-21,5,0,0,2
1523179994865536,22,3,13,38,-19,-22,1,30
1523179994865536,-14,-3,-9,-22,77,10,3,-49
1523179994866536,-16,-5,1,16,-31,-25,0,-9
1523179994866536,14,0,1,-11,38,-6,6,24
1523179994880573,-11,0,6,4,-67,-7,-8,-11
1523179994880573,16,-1,-1,-31,6,-5,6,13
1523179994888594,2,3,-1,-2,-13,29,11,-11
1523179994888594,3,-3,-5,-9,43,3,-4,14
1523179994903778,-13,-3,-8,1,-7,6,3,-5
1523179994903778,13,4,8,28,-27,4,-4,10
1523179994904675,-14,-6,-9,-9,-15,-17,-4,-28
1523179994904675,11,-2,-1,-8,-11,7,2,14
1523179994925699,-13,2,19,46,45,4,-4,-17
1523179994925699,9,-2,-9,-17,-14,7,-3,10
1523179994926700,2,5,0,-15,34,4,2,6
1523179994926700,-14,-9,3,4,-79,17,3,-8
1523179994939770,-2,-3,-20,-22,-16,7,2,1
1523179994939770,4,1,5,-11,-17,2,8,1
1523179994948754,35,3,-2,4,14,-11,-5,39
1523179994948754,-51,1,7,14,-11,-5,-11,-72
1523179994962792,-1,0,4,7,24,2,3,5
1523179994962792,19,-2,-7,3,-54,-15,2,24
1523179994963795,-2,1,2,4,5,21,3,-4
1523179994963795,12,3,9,0,-45,25,-1,16
1523179994985853,-12,-11,-17,-49,36,24,6,-16
1523179994985853,3,3,8,72,24,10,-1,3
1523179994986856,-21,-3,6,-3,-27,-22,-4,-19
1523179994986856,10,-8,-10,-37,7,19,-3,-8
1523179994999892,11,7,-3,17,-34,3,5,8
1523179994999892,-12,1,8,-37,-14,-22,-13,4
1523179995008916,-7,-4,-7,-19,22,-21,1,-3
1523179995008916,11,1,-2,33,89,35,5,18
1523179995022953,-30,-7,-7,-13,10,-15,-11,-45
1523179995022953,2,-3,-6,-20,5,7,0,6
1523179995023954,-3,-1,5,9,-13,-3,-7,-7
1523179995023954,1,-7,-16,-36,-10,-35,-8,4
1523179995046013,14,-3,-2,-2,-83,-12,-11,13
1523179995046013,-5,0,6,29,27,16,8,-7
1523179995047024,-8,-2,-5,5,-16,30,-10,-1
1523179995047024,9,-5,-7,1,-7,-30,3,10
1523179995069075,-9,-8,-11,-25,-9,-38,-12,-16
1523179995069075,-5,3,22,15,-48,-22,-6,-11
1523179995070077,0,-2,-19,-1,48,34,8,6
1523179995070077,4,3,12,12,-54,-21,-5,7
1523179995083113,2,0,-5,-12,16,10,-1,1
1523179995083113,-2,1,-10,-25,-28,-14,2,-2
1523179995084115,2,0,5,15,31,-5,4,5
1523179995084115,-13,-3,-2,-2,-19,-2,-7,-13
1523179995106408,-4,1,16,68,21,16,10,3
1523179995106408,6,-5,-9,-13,54,9,-3,2
1523179995106408,-4,1,0,-27,-40,-13,-5,2
1523179995106408,0,-4,-9,-14,-15,-22,-3,2
1523179995129234,-1,0,-1,-4,-12,-5,9,3
1523179995129234,7,-3,-2,26,-9,8,-3,9
1523179995130236,-8,-4,0,-13,-33,-9,-6,-15
1523179995130236,-5,-1,-8,-26,13,-7,0,4
1523179995143295,3,2,1,0,-17,-22,4,-4
1523179995143295,2,1,0,83,112,37,1,7
1523179995144273,12,3,7,-17,-92,9,11,12
1523179995144273,-3,-1,3,18,-10,-2,-10,-7
1523179995165330,-9,-6,-12,-40,7,24,-6,8
1523179995165330,-8,-1,-6,-19,-4,2,3,-17
1523179995166332,3,-3,1,9,22,-5,-3,-10
1523179995166332,4,6,4,10,12,13,3,6
1523179995189394,-7,-1,3,4,69,2,2,1
1523179995189394,3,-1,1,-22,-44,-2,-4,1
1523179995190397,-3,-3,-6,5,24,-3,0,6
1523179995190397,14,3,1,-26,23,-7,12,5
1523179995203666,6,1,11,53,-4,-7,-1,2
1523179995203666,-11,-3,-6,6,37,-5,-7,-11
1523179995204434,1,0,4,0,-10,-4,13,-2
1523179995204434,19,7,3,3,28,11,6,20
1523179995225495,-21,-3,-9,-26,-37,-26,-6,-18
1523179995225495,0,1,3,-40,-57,-3,-6,1
1523179995226497,-1,-3,-1,24,51,7,-10,0
1523179995226497,-10,-1,2,1,-30,-17,2,-13
1523179995248553,10,1,4,42,54,28,10,7
1523179995248553,1,-2,-7,-30,34,1,-4,-3
1523179995249553,0,3,-5,-17,-95,-30,-11,7
1523179995249553,14,-1,5,20,52,40,20,15
1523179995263592,-22,-1,-8,-55,-31,-18,-13,-7
1523179995263592,-1,-3,14,65,-8,-11,5,-8
1523179995264594,1,-3,6,11,80,44,3,18
1523179995264594,-9,-8,-19,-15,-21,22,9,-11
1523179995285650,10,1,5,5,-21,2,-6,8
1523179995285650,-4,-1,-12,-36,-18,-7,1,-3
1523179995286653,0,-5,1,17,10,4,-6,-2
1523179995286653,-7,1,13,40,62,20,1,-4
1523179995308710,3,-2,-13,-29,5,9,4,5
1523179995308710,-2,-1,-4,-18,-29,-1,7,0
1523179995309718,-3,-1,-3,-49,20,-11,-12,-12
1523179995309718,-11,-1,3,39,-14,-3,-2,-4
1523179995323753,15,2,6,-16,-83,-27,-9,16
1523179995323753,-13,-2,3,10,51,33,8,-31
1523179995323753,7,-1,-13,-29,-37,-14,0,2
1523179995323753,-3,-3,-6,18,41,15,-3,-11
1523179995345809,7,-1,-2,-12,-53,-27,2,13
1523179995345809,22,5,-1,-12,-37,-34,-18,29
1523179995346814,-26,-3,0,-9,34,-13,-3,-14
1523179995346814,-20,1,4,9,12,6,-1,-29
1523179995369874,7,3,5,13,12,51,14,-5
1523179995369874,5,-2,-6,-38,-17,-16,0,11
1523179995369874,10,-4,-1,44,32,20,8,9
1523179995369874,1,3,-3,-61,-56,-28,-10,4
1523179995382911,-7,0,7,50,39,5,-5,-2
1523179995382911,-12,-1,-2,2,3,-5,4,-13
1523179995383911,0,1,-1,-5,-28,2,4,-1
1523179995383911,6,-4,1,-12,28,-31,-23,-6
1523179995406008,8,0,3,-23,4,3,5,2
1523179995406008,-9,-4,-16,2,18,5,-1,-5
1523179995406972,0,0,3,13,-73,-21,-6,-3
1523179995406972,-1,0,-3,-7,-65,-18,-4,1
1523179995429031,18,2,7,35,11,-36,-7,-3
1523179995429031,-20,0,4,7,14,4,2,-10
1523179995430035,-10,0,-5,-37,-16,-1,-18,-6
1523179995430035,5,-3,-1,50,32,-5,7,11
1523179995443077,-4,-1,0,-5,12,11,5,-11
1523179995443077,7,-1,-6,-26,9,0,-9,5
1523179995444082,-3,-2,-2,3,38,-6,0,-9
1523179995444082,-7,0,-5,-55,-66,-23,-9,0
1523179995466169,9,2,6,79,37,36,12,-5
1523179995466169,4,-1,3,-5,5,-2,4,21
1523179995467132,-2,-1,5,-6,-52,-8,2,-3
1523179995467132,-8,-4,-10,3,50,-7,-6,-15
1523179995489191,-11,-2,-11,-64,-26,-3,-2,-5
1523179995489191,7,1,13,54,-30,7,-1,15
1523179995490194,-2,-4,0,7,19,11,0,5
1523179995490194,8,-2,-3,19,41,13,14,14
1523179995503463,-16,-2,7,-16,-56,7,-1,-19
1523179995503463,-2,-3,-4,-12,71,21,-6,-8
1523179995504230,5,3,-3,3,-41,-10,4,-1
1523179995504230,-1,-7,-9,-18,-36,-7,-1,4
1523179995526308,-1,-4,-13,-18,35,-12,-7,-1
1523179995526308,-2,0,5,-20,-10,17,-1,-5
1523179995526308,0,2,-4,16,11,9,8,0
1523179995526308,-2,1,-5,-31,-48,2,-7,-6
1523179995548348,-3,-6,2,7,5,-30,-1,-3
1523179995548348,9,1,-5,15,-29,-12,1,14
1523179995549353,-2,-1,-3,9,29,-6,-19,-5
1523179995549353,0,8,13,12,-32,5,13,3
1523179995563390,11,-2,-11,-29,62,3,-7,7
1523179995563390,-2,0,-3,1,-37,-25,-9,4
1523179995564393,-25,-1,0,-11,32,24,8,-26
1523179995564393,-1,-8,-5,3,-17,-9,-4,-6
1523179995585454,-2,-1,1,-1,-21,20,-1,2
1523179995585454,5,-5,-8,-9,-3,-13,-8,-1
1523179995586449,6,-4,-4,12,-14,-31,2,1
1523179995586449,-10,0,5,31,40,11,-5,-5
1523179995609523,-3,4,3,-26,-14,-10,-5,-7
1523179995609523,-4,-5,-8,-8,18,32,11,-2
1523179995609523,20,3,4,-11,4,1,0,24
1523179995609523,-16,0,4,39,42,0,-13,-8
1523179995623550,-3,-4,-5,-6,-21,0,19,-13
1523179995623550,-11,1,-2,3,-58,-30,-1,-11
1523179995624551,9,1,3,-35,-75,9,3,8
1523179995624551,9,2,4,17,28,-5,-5,10
1523179995645607,-7,4,5,2,-16,-10,-6,3
1523179995645607,-7,-4,-5,-5,26,-14,-3,-9
1523179995646610,-3,-1,-2,-2,15,11,10,-3
1523179995646610,8,3,0,-24,-12,3,2,17
1523179995668667,1,-2,1,11,-11,-1,1,-10
1523179995668667,-2,-2,-3,-4,-12,1,-2,-6
1523179995668667,-5,-3,-4,-21,25,0,-8,-5
1523179995668667,-3,-3,9,58,-18,-12,0,-5
1523179995682706,4,-2,-10,-24,18,16,2,10
1523179995682706,-5,7,11,16,-68,-13,7,-14
1523179995690872,10,-2,-4,19,7,2,3,14
1523179995690872,-10,-1,6,-6,-7,1,-5,-15
1523179995706006,-6,-3,-3,-2,83,49,1,-4
1523179995706006,-2,-1,4,-5,-10,-6,-9,6
1523179995706769,5,2,-13,-11,-5,-16,-3,10
1523179995706769,3,-5,9,-11,32,12,2,-1
1523179995728827,2,0,-6,27,40,-18,-7,3
1523179995728827,-3,-2,-3,-29,-10,-1,3,-7
1523179995729830,-3,8,10,45,5,0,-2,-2
1523179995729830,3,-5,-7,-28,-7,0,-3,-5
1523179995743876,7,-2,0,-4,33,-2,-7,17
1523179995743876,8,3,2,-9,-44,10,21,0
1523179995743876,-23,-2,9,47,88,5,-13,-25
1523179995743876,-2,4,1,-18,-2,-10,-7,-2
1523179995765965,4,-1,0,-22,-11,-1,1,-6
1523179995765965,13,1,-11,23,39,15,-5,27
1523179995766929,0,-4,-2,-9,-63,-38,-9,2
1523179995766929,6,1,-3,1,-38,14,18,5
1523179995787984,-8,2,9,-5,-22,2,-7,-14
1523179995787984,3,0,-2,-1,16,-14,-7,-4
1523179995788989,21,-4,-8,-12,22,-15,-6,32
1523179995788989,-65,-9,-10,-43,-76,1,3,-76
1523179995803027,11,7,2,59,-48,2,7,18
1523179995803027,1,-5,-6,-14,14,-4,-1,5
1523179995804027,6,6,16,25,43,20,9,4
1523179995804027,18,-1,-16,-34,-14,1,-6,22
1523179995826092,-7,-4,-4,16,-7,-16,1,1
1523179995826092,-3,-2,-4,0,18,-10,-11,-9
1523179995826092,-6,-4,-8,-52,-35,6,-1,-14
1523179995826092,4,2,11,43,-10,14,12,5
1523179995848186,-16,5,4,8,49,1,-14,-12
1523179995848186,8,2,7,17,-2,1,-3,21
1523179995849147,-7,-6,0,-2,-45,-15,4,-23
1523179995849147,-2,2,-7,-32,50,9,2,9
1523179995862182,13,-1,1,2,-82,-43,-4,1
1523179995862182,-5,-1,-4,-12,26,21,6,-7
1523179995871441,-13,-6,-6,-6,12,3,-4,-12
1523179995871441,2,-3,1,13,-21,-5,-10,3
1523179995886245,-3,-5,-8,-12,-3,-3,-3,9
1523179995886245,9,4,4,-29,33,74,8,-6
1523179995886245,-8,-6,-11,61,1,8,5,2
1523179995886245,20,3,-1,2,-13,-15,-7,27
1523179995908306,-16,1,-2,-26,-28,7,3,-16
1523179995908306,-12,-5,1,10,-10,-41,-16,-12
1523179995909328,-6,-3,-12,-21,20,-7,-3,-10
1523179995909328,3,-1,4,31,48,-6,-6,10
1523179995922343,10,-2,-4,-12,-50,-23,1,-9
1523179995922343,-20,-1,-3,-13,-15,-11,-1,-3
1523179995930363,1,4,12,23,-14,-10,-3,-3
1523179995930363,13,-1,-5,-17,30,-24,-10,11
1523179995945404,8,2,2,-3,13,34,10,5
1523179995945404,-15,-7,-8,-16,18,-18,-8,-21
1523179995946405,-4,-6,6,5,-39,10,-1,2
1523179995946405,-3,-2,-2,-15,23,2,2,-10
1523179995968469,-5,-9,-12,-4,-17,0,0,9
1523179995968469,15,4,3,-3,-67,-6,13,15
1523179995969467,9,5,5,2,111,7,-1,7
1523179995969467,7,-1,-3,-8,-18,-5,5,1
1523179995982502,-19,-3,5,15,10,-3,-12,-21
1523179995982502,-3,-2,0,30,24,3,-6,-8
1523179995990628,2,0,3,6,-49,-11,1,-6
1523179995990628,5,-1,-5,-1,7,5,2,8
1523179996005796,0,0,-2,-29,-61,-19,0,7
1523179996005796,1,-5,0,2,7,13,0,0
1523179996006564,4,0,-5,-2,-25,-10,-5,9
1523179996006564,-12,-3,-6,7,6,0,1,-23
1523179996028624,5,-3,7,-3,19,-5,-6,5
1523179996028624,-13,1,-4,-11,16,1,5,-15
1523179996028624,-6,1,1,2,-26,7,-1,17
1523179996028624,7,-2,-6,-7,6,17,3,4
1523179996042665,-4,-2,12,52,42,6,1,-2
1523179996042665,6,-1,1,14,39,10,-8,0
1523179996050918,0,-3,-7,-32,18,-21,-4,-9
1523179996050918,1,-2,-8,-3,28,13,2,10
1523179996065763,-15,-3,-10,-18,-32,-13,1,-12
1523179996065763,8,0,5,-13,18,9,-4,11
1523179996066725,-2,0,-2,11,21,-12,-14,-9
1523179996066725,17,-1,2,-4,-23,16,15,15
1523179996087783,-24,-3,-11,-26,5,2,5,-2
1523179996087783,16,3,6,19,-34,-22,-2,4
1523179996088784,-11,-3,-3,-49,21,9,0,-19
1523179996088784,2,-1,2,46,-13,-28,-10,3
1523179996103058,6,0,2,11,37,15,1,-7
1523179996103058,-5,1,4,0,-26,4,-5,2
1523179996110846,8,-1,-4,4,-49,1,24,7
1523179996110846,-9,4,5,-1,58,14,-21,0
1523179996125892,-1,-2,-5,-4,8,-1,-5,-9
1523179996125892,0,-5,1,-18,68,-1,-11,1
1523179996126888,-5,0,6,36,-48,30,8,-17
1523179996126888,-9,-8,-4,-41,-26,-7,2,-3
1523179996147979,25,4,4,34,48,-12,-5,18
1523179996147979,-27,-2,-5,-7,-64,-26,2,-13
1523179996148945,19,-2,-11,-50,12,-11,-10,18
1523179996148945,-35,-1,1,40,-45,2,-2,-61
1523179996171238,2,2,3,-15,55,-14,-4,7
1523179996171238,19,-3,-9,3,11,2,1,10
1523179996172008,-18,-6,-8,-23,0,-8,-2,-8
1523179996172008,-1,-3,-1,13,0,-12,6,-4
1523179996186044,6,3,4,2,-41,-14,-4,16
1523179996186044,-1,1,-3,16,-32,-11,0,-12
1523179996187045,13,2,-6,-21,1,12,4,13
1523179996187045,-6,-1,5,-15,-4,4,-10,11
1523179996208108,8,1,-1,-5,-47,-15,-1,-10
1523179996208108,-15,-4,-3,2,50,9,3,-1
1523179996209106,1,-1,3,3,3,-30,-16,-16
1523179996209106,-5,0,-5,-17,-16,21,8,5
1523179996231162,-2,4,9,44,-10,-2,-14,-10
1523179996231162,12,4,-2,-53,-51,-4,0,23
1523179996232166,-11,-5,6,46,86,16,1,-5
1523179996232166,-4,-3,-15,-43,-63,-70,-26,-9
1523179996246243,0,-8,-13,-27,44,27,16,8
1523179996246243,0,-1,-5,3,-43,1,-2,-5
1523179996246243,11,7,2,-4,-34,-7,0,3
1523179996246243,-12,-4,6,0,21,7,0,-6
1523179996268262,-4,-2,-6,-12,2,1,-2,-3
1523179996268262,5,-2,-7,8,13,-2,-5,5
1523179996269264,-12,4,18,25,-53,23,10,4
1523179996269264,11,-1,-3,5,-24,-18,-1,-6
1523179996291329,-2,-2,-1,-6,7,-11,-5,6
1523179996291329,-3,-2,3,26,2,22,15,-7
1523179996292350,7,-2,-8,-38,17,-3,-2,0
1523179996292350,0,-1,1,17,-77,-10,-7,-2
1523179996306410,0,0,3,1,68,59,12,7
1523179996306410,2,-4,-1,6,-43,-40,-9,11
1523179996306410,-2,4,12,7,-32,4,4,-1
1523179996306410,4,0,-4,-31,9,2,19,6
1523179996328421,-13,3,8,38,-2,-11,-6,-32
1523179996328421,5,-5,-14,-2,26,-4,-4,7
1523179996329423,-19,-7,-5,-5,34,42,4,-8
1523179996329423,14,7,5,12,3,3,13,-9
1523179996351718,6,0,-1,-9,-34,-1,-4,10
1523179996351718,-9,-4,-1,-41,-20,3,-2,9
1523179996352485,-5,-3,-3,38,-14,-23,-11,-8
1523179996352485,6,0,4,0,38,4,-3,11
1523179996365521,6,-2,2,10,6,-5,1,9
1523179996365521,-1,1,0,-4,-17,-2,-1,-19
1523179996366523,8,-2,-12,-46,-21,-26,-11,19
1523179996366523,-23,0,1,8,18,16,3,-24
1523179996388582,-3,3,1,-14,-27,13,5,-2
1523179996388582,-4,-2,-3,0,-2,-7,-1,-6
1523179996389745,5,-2,-3,24,2,-13,-9,3
1523179996389745,8,-2,1,24,26,4,-7,11
1523179996411642,-13,-5,-8,-14,17,12,3,-6
1523179996411642,6,4,8,17,59,19,5,2
1523179996412645,8,0,-9,-19,-39,3,6,12
1523179996412645,-7,4,4,6,38,-3,-11,-3
1523179996425682,4,-7,-9,-23,-23,-12,-3,1
1523179996425682,-23,-1,3,26,50,0,2,-12
1523179996426683,8,3,8,11,9,23,17,-10
1523179996426683,-5,3,0,-8,-18,-11,-2,6
1523179996448743,-1,-7,-8,-27,-77,-28,-4,6
1523179996448743,11,-1,4,-8,4,0,-9,8
1523179996448743,-4,-1,5,67,54,-4,7,-16
1523179996448743,-8,-2,-2,-11,33,32,3,6
1523179996471804,8,3,-7,-6,32,-11,-12,5
1523179996471804,-3,0,-3,-3,-70,-13,0,-5
1523179996471804,4,-1,7,12,1,10,-12,3
1523179996471804,-2,-4,-7,-3,-1,-1,5,-24
1523179996485841,-3,5,4,1,12,15,10,3
1523179996485841,-2,-2,-6,-47,-18,-17,-4,2
1523179996486842,-8,-3,3,43,16,0,-4,-10
1523179996486842,12,0,3,3,-7,7,-7,18
1523179996508906,-5,-1,-8,-16,-62,16,9,-11
1523179996508906,-5,-1,3,6,-29,-11,0,-8
1523179996508906,-17,-6,-5,-31,28,-22,-8,-6
1523179996508906,17,-2,-14,-21,-89,17,13,22
1523179996530960,3,-3,6,21,21,-6,-3,-4
1523179996530960,-4,1,2,32,5,4,-1,-2
1523179996531963,-6,-4,-2,-22,-7,-13,-18,1
1523179996531963,-12,-5,-2,-3,-21,-6,-3,-26
1523179996546000,1,-2,3,-7,34,-27,4,11
1523179996546000,15,4,10,33,34,21,3,7
1523179996547002,-2,2,-7,-33,2,3,3,11
1523179996547002,-6,-7,-8,9,18,2,-2,2
1523179996568058,0,-3,3,13,18,1,-6,-10
1523179996568058,-2,-7,4,13,-24,-3,2,-9
1523179996569061,6,6,6,-35,-20,1,1,13
1523179996569061,-3,4,-5,4,35,0,5,-12
1523179996591120,-14,-6,-3,8,30,11,0,-8
1523179996591120,2,-4,-6,17,17,4,2,4
1523179996592127,10,1,3,-12,-8,26,5,3
1523179996592127,11,-2,-3,-11,-21,-8,-4,17
1523179996606395,-12,0,0,-4,-40,-12,1,-1
1523179996606395,-14,1,-2,-2,10,18,-4,-28
1523179996606395,1,-3,-3,0,-7,-8,0,-1
1523179996606395,-5,-3,1,-11,61,-3,-1,3
1523179996628220,11,0,-9,-9,-47,-15,-7,7
1523179996628220,4,-1,5,0,26,3,-5,4
1523179996629221,-12,-2,-9,-34,-16,-5,0,-16
1523179996629221,-6,-2,5,-14,34,11,-9,-4
1523179996651279,-7,4,3,49,29,-5,-1,1
1523179996651279,2,-5,-4,17,-27,-10,8,7
1523179996652283,-2,-5,-5,-8,-58,-22,-1,-7
1523179996652283,5,-2,-5,-33,17,-17,-3,6
1523179996665316,3,0,-2,-9,9,14,8,-3
1523179996665316,11,8,4,-5,14,1,-7,9
1523179996666322,-16,-2,0,7,20,-21,-11,-5
1523179996666322,-7,-8,-7,14,-84,-18,2,-13
1523179996688614,-4,-4,-4,-25,6,-3,-5,-7
1523179996688614,-1,3,-1,16,4,-14,-4,-6
1523179996689436,4,-2,-15,-21,23,11,-4,13
1523179996689436,-13,-10,-12,22,49,-10,8,-19
1523179996711440,9,3,4,-14,-8,10,-1,0
1523179996711440,-7,-1,-8,-35,-18,-18,-4,-1
1523179996712443,7,1,7,20,21,11,3,10
1523179996712443,1,0,12,2,86,-7,-14,2
1523179996725520,4,-4,-9,-5,-41,-5,-1,-5
1523179996725520,5,6,12,14,58,10,2,12
1523179996726481,-24,-5,-11,6,-17,5,-4,-32
1523179996726481,11,1,2,-1,-19,3,2,7
1523179996748539,-4,-3,-2,-1,-8,7,3,0
1523179996748539,3,1,-1,-23,-14,34,-10,-3
1523179996749543,11,8,11,24,29,12,5,7
1523179996749543,-1,-2,-2,0,-25,17,7,2
1523179996771832,-2,-3,-5,-37,19,0,-7,-1
1523179996771832,-1,-4,0,69,-19,-2,11,-1
1523179996772810,-6,-1,-4,0,15,1,0,-10
1523179996772810,8,3,6,1,11,25,-4,8
1523179996785783,-5,-5,-15,-15,-40,-11,3,1
1523179996785783,-3,1,16,26,0,-3,-2,-5
1523179996793892,5,-1,-2,-2,14,-14,-4,12
1523179996793892,3,7,2,5,-9,12,3,9
1523179996808700,-4,-2,1,1,-41,-20,-7,-3
1523179996808700,-12,-5,-6,-31,-17,-6,-3,-9
1523179996809701,8,1,5,13,-22,-11,4,5
1523179996809701,0,-1,-2,-5,-48,-2,-3,5
1523179996831797,-2,0,2,10,47,11,-3,-11
1523179996831797,-6,-7,-13,-18,31,-8,-4,-3
1523179996831797,3,-2,3,-28,-23,16,-1,0
1523179996831797,3,-1,-6,4,-14,-12,14,3
1523179996845814,-3,2,15,40,7,5,0,2
1523179996845814,0,-1,-8,-17,80,1,0,-7
1523179996853962,0,3,3,-5,-56,-9,-1,-2
1523179996853962,-1,-1,-4,-12,-6,-20,-8,-3
1523179996868910,1,-1,-3,-3,11,34,1,16
1523179996868910,-4,-2,-8,-21,-46,-14,-3,0
1523179996868910,5,3,7,13,25,9,1,10
1523179996868910,-11,-1,-5,-5,-7,-3,-9,-22
1523179996891920,-1,-6,-3,-4,26,2,-1,-5
1523179996891920,10,-1,-2,-20,-82,-19,-2,21
1523179996891920,-14,0,5,34,6,2,4,-19
1523179996891920,2,1,5,7,-1,-1,-4,9
1523179996904953,18,3,0,-9,65,-5,-3,1
1523179996904953,-41,-4,0,-1,-48,1,-12,-24
1523179996912975,5,-4,-7,-31,-36,-18,19,-4
1523179996912975,0,3,5,16,12,8,-3,4
1523179996928015,5,0,1,17,-47,-3,3,4
1523179996928015,10,-2,-2,5,29,8,-3,6
1523179996929018,-9,-3,-8,-8,-18,0,-5,-11
1523179996929018,1,0,2,-8,-34,-10,-3,2
1523179996952119,5,1,-2,-29,18,-2,-4,9
1523179996952119,1,0,1,22,18,13,15,-4
1523179996952119,-16,-3,1,11,6,-6,-9,-11
1523179996952119,2,-4,-9,-17,-71,-19,3,0
1523179996965152,-6,4,8,11,-16,-21,-7,-6
1523179996965152,2,-1,-3,-16,-10,-13,1,2
1523179996973136,6,-5,-10,-5,21,13,-1,11
1523179996973136,7,-1,7,2,22,6,-8,7
1523179996988407,-16,2,-2,-5,-9,-18,-4,-20
1523179996988407,3,-1,-1,-10,10,3,2,-4
1523179996989177,2,1,1,-23,1,-5,-6,-3
1523179996989177,-1,-2,3,26,-28,-5,-7,6
1523179997011239,-4,-4,4,18,-55,-7,3,-13
1523179997011239,11,4,-2,-7,2,3,-1,7
1523179997012240,-2,2,-3,-6,7,7,2,0
1523179997012240,5,1,-5,-7,22,1,-5,7
1523179997034298,-28,-10,-11,-29,5,9,4,-14
1523179997034298,-3,-3,4,21,-17,-15,-8,-5
1523179997034298,10,6,4,-9,62,21,-1,2
1523179997034298,4,2,-1,11,16,-8,1,0
1523179997048334,15,4,2,-11,-1,-1,0,29
1523179997048334,-12,-2,-15,-21,-44,-11,-1,-25
1523179997049338,0,-7,-4,12,4,-1,-1,7
1523179997049338,-2,-7,-3,3,6,6,3,-3
1523179997071632,-6,-3,-2,-11,-11,-1,-9,-8
1523179997071632,-16,-4,0,-13,27,-16,-4,-4
1523179997072400,12,7,4,38,-29,2,-4,-3
1523179997072400,1,12,21,19,63,7,7,5
1523179997085433,5,-6,-13,-11,-37,-10,-1,5
1523179997085433,4,-1,8,-8,-36,-8,-4,5
1523179997093454,-9,-6,-18,-6,3,-12,-4,-4
1523179997093454,-5,-3,3,-25,-34,5,2,-10
1523179997116516,4,-5,-19,4,-25,-29,-10,4
1523179997116516,10,3,8,12,18,19,6,18
1523179997117519,-13,4,5,-6,49,8,0,-31
1523179997117519,-4,-5,-8,-7,-55,-21,-9,-4
1523179997131557,-1,-2,-2,4,20,13,1,1
1523179997131557,4,-7,-15,-14,-21,-11,-15,6
1523179997132558,16,-1,3,3,-16,-17,1,9
1523179997132558,0,6,8,14,55,40,5,2
1523179997154654,-49,-10,-8,-8,-3,7,-5,-25
1523179997154654,10,9,6,10,30,22,5,11
1523179997154654,4,0,1,-2,-1,-20,-4,8
1523179997154654,3,-9,-5,-6,11,1,5,-1
1523179997168887,12,3,1,7,10,2,0,19
1523179997168887,4,-2,-1,-8,-29,31,6,-22
1523179997168887,10,5,7,14,57,14,7,14
1523179997168887,1,3,-5,10,-25,-12,-2,-4
1523179997191716,-4,2,10,4,39,19,2,-13
1523179997191716,-4,-3,-7,-10,-22,-7,-1,2
1523179997191716,-13,-8,-9,-11,-8,-16,9,-7
1523179997191716,-7,-6,-14,-10,-9,16,-7,-4
1523179997213774,5,5,10,19,11,-7,12,0
1523179997213774,0,6,13,17,68,38,0,2
1523179997214779,-1,-2,-4,-8,-74,-3,-5,4
1523179997214779,1,1,-2,7,26,-9,1,11
1523179997227814,7,-6,-8,-24,-12,-30,-5,-4
1523179997227814,3,-4,-9,19,-14,-7,1,3
1523179997228815,4,1,11,-6,9,0,-3,7
1523179997228815,-30,-2,-6,-17,20,-13,-12,-27
1523179997252111,13,2,3,-1,-81,12,-1,5
1523179997252111,0,-4,3,-7,16,-20,2,3
1523179997252111,7,-6,-12,-2,45,14,-4,13
1523179997252111,6,1,-3,0,-55,-21,-1,6
1523179997273935,1,2,0,3,4,19,12,-14
1523179997273935,-20,-11,-12,-13,-75,-50,-6,-14
1523179997274937,-7,-1,8,1,-76,15,1,0
1523179997274937,-3,-6,-3,-6,7,-9,-5,-8
1523179997288974,9,4,2,14,37,-7,-3,14
1523179997288974,6,5,3,-5,-4,-1,1,0
1523179997288974,-11,-5,-13,-17,0,-2,0,-8
1523179997288974,10,2,15,61,40,20,2,8
1523179997311033,-10,1,11,15,-32,11,2,-7
1523179997311033,-1,-3,-5,-1,117,2,-2,-4
1523179997312037,-7,-1,-1,-5,-113,-15,-4,-10
1523179997312037,8,1,-4,-21,8,3,2,11
1523179997341115,0,-4,-10,-18,53,-6,-8,-3
1523179997341115,9,2,14,71,41,-9,-5,16
1523179997342116,-21,-9,-7,-16,-41,-18,-8,-18
1523179997342116,2,5,6,0,15,7,2,3
1523179997348133,-1,-7,-13,-44,-12,14,2,-16
1523179997348133,-3,0,-8,-17,-9,18,7,3
1523179997349134,6,2,17,50,70,-25,-6,-3
1523179997349134,3,-1,-4,-45,-16,29,0,-12
1523179997371427,-12,0,-1,-9,7,-19,-2,10
1523179997371427,8,-1,4,1,-24,5,4,5
1523179997372196,-4,0,-5,-12,1,-9,-3,-2
1523179997372196,19,-2,-8,-2,1,3,-2,0
1523179997394490,-26,-5,1,8,0,-2,2,-14
1523179997394490,-1,-1,-7,-20,38,-13,-1,3
1523179997395296,-7,-4,-3,2,14,-3,-1,-4
1523179997395296,0,4,8,10,-13,-6,-2,-1
1523179997408291,19,5,1,9,14,7,-1,8
1523179997408291,-6,-1,3,-7,-39,-6,-2,-3
1523179997409294,-1,1,-7,-12,5,19,2,-2
1523179997409294,-11,-12,-18,-57,9,-12,-4,-2
1523179997431355,7,0,9,76,11,-12,-2,9
1523179997431355,-11,3,8,-23,-29,20,3,-27
1523179997432355,2,1,-5,-12,14,-3,-8,5
1523179997432355,-1,0,-3,-1,-16,-4,2,2
1523179997454611,4,1,-1,-13,9,-3,-1,2
1523179997454611,6,-3,-11,-7,-15,1,-3,9
1523179997454611,-17,2,6,8,52,23,7,-25
1523179997454611,-11,-1,-2,2,-6,-37,-5,-8
1523179997468451,8,-2,-2,-10,-17,21,2,2
1523179997468451,12,5,0,9,13,-1,-6,25
1523179997469454,13,-3,4,-7,-54,-7,4,-7
1523179997469454,-16,-2,-7,-9,64,4,-11,5
1523179997491515,-10,-3,1,-13,1,-14,-2,-19
1523179997491515,-8,-1,0,57,-9,-1,-1,-22
1523179997492516,5,3,5,-18,27,-2,9,10
1523179997492516,8,-3,-5,-8,-15,-19,-6,-1
1523179997513610,6,-1,-3,0,-30,-1,-2,11
1523179997513610,-3,2,2,-11,33,23,7,2
1523179997514574,4,0,1,13,-8,-15,-6,3
1523179997514574,-7,-5,-1,10,43,17,3,-5
1523179997528610,-1,-2,-13,-19,33,-18,-9,2
1523179997528610,-4,-1,6,0,-16,15,1,-9
1523179997528610,2,-2,-7,2,-33,-11,-7,10
1523179997528610,4,0,-1,-4,-44,-7,4,-4
1523179997551907,-19,5,14,17,-9,-5,0,-18
1523179997551907,4,-6,-14,-8,13,-11,-6,4
1523179997552675,0,-1,-3,-10,-21,5,-5,6
1523179997552675,-5,-4,-4,-1,-30,-2,12,-8
1523179997573732,6,0,3,29,-17,14,-5,-7
1523179997573732,14,0,2,-17,0,-15,0,22
1523179997574736,-34,-2,-4,-3,2,22,2,-38
1523179997574736,9,-2,-9,-6,-12,-5,1,23
1523179997587770,-2,-4,-6,-15,10,-17,-10,-4
1523179997587770,-7,4,15,12,-39,-1,5,-4
1523179997588770,6,-3,-7,1,-2,-22,-10,-1
1523179997588770,-2,3,13,23,19,41,3,-2
1523179997611833,13,3,3,-9,1,14,3,15
1523179997611833,-7,-9,-16,-24,-36,-27,-8,-8
1523179997611833,2,-3,1,9,32,10,4,6
1523179997611833,-11,-3,-2,-3,-16,-14,-4,-15
1523179997633892,7,1,-5,-12,-27,0,0,8
1523179997633892,-2,1,0,15,29,3,0,-7
1523179997635896,6,3,11,7,19,12,1,1
1523179997635896,-3,-10,-6,-1,-45,-7,-4,1
1523179997647930,3,-1,-2,4,76,34,8,-2
1523179997647930,-3,4,0,-11,10,-20,2,-2
1523179997656953,5,0,-4,-3,-4,-11,-4,8
1523179997656953,-5,2,1,-2,-40,-36,-9,-1
1523179997671994,1,-3,-1,5,14,5,3,5
1523179997671994,-8,-5,-10,-17,-11,4,1,-3
1523179997672998,-6,-2,4,10,50,1,2,-15
1523179997672998,1,-1,1,-1,-32,-8,12,1
1523179997694050,6,2,0,-8,-9,19,1,5
1523179997694050,10,0,2,15,-5,-10,-7,13
1523179997696056,-7,-5,-4,-8,-13,37,9,-3
1523179997696056,-2,-1,0,-5,-64,-34,-12,-6
1523179997708089,-14,-6,-10,-16,32,-17,-4,-20
1523179997708089,6,2,3,-4,-7,15,4,6
1523179997717112,10,1,-2,-13,-28,-10,0,20
1523179997717112,-19,-4,-1,-8,33,36,8,-33
1523179997731150,6,6,10,18,-1,4,-2,16
1523179997731150,-10,-6,-9,-15,-2,-4,-5,-18
1523179997733157,11,-2,-5,3,-27,-2,-1,20
1523179997733157,-12,1,1,-6,68,8,-1,-14
1523179997754444,3,0,-3,-10,-29,0,2,6
1523179997754444,-8,-1,-5,-17,18,0,-12,-14
1523179997755213,-3,-5,-3,5,-52,2,-2,-1
1523179997755213,14,3,13,49,52,1,1,23
1523179997767246,-8,3,6,19,-45,-10,-1,-23
1523179997767246,-8,-1,-3,-8,-3,-21,-11,-6
1523179997776276,6,0,-7,-12,50,9,3,11
1523179997776276,5,0,-1,-4,-13,-1,-6,2
1523179997791311,-4,-7,-4,-2,12,-6,-6,0
1523179997791311,-4,-2,-2,-7,-18,6,1,-1
1523179997793315,0,4,-1,1,8,-4,-1,-10
1523179997793315,13,0,-4,4,5,19,2,16
1523179997814372,-14,-4,-2,-4,35,-6,-6,-4
1523179997814372,5,-1,-1,8,3,45,16,-1
1523179997815375,-12,-3,-5,-37,30,-2,-4,-5
1523179997815375,9,4,6,40,24,-15,-12,7
1523179997827444,-2,-1,-8,-16,-25,-7,1,-3
1523179997827444,-6,-4,-5,-12,-13,4,2,-4
1523179997836429,5,-2,-3,15,65,-7,-4,1
1523179997836429,-2,-4,-4,-22,-11,16,-1,-3
1523179997851469,5,2,7,24,-8,-8,1,5
1523179997851469,-1,-2,-5,-25,35,7,-2,1
1523179997853479,-3,0,-2,30,5,9,1,2
1523179997853479,4,-3,-7,-30,-5,-21,-4,8
1523179997874533,-28,-5,-7,-5,-43,-26,-3,-43
1523179997874533,13,10,14,2,5,8,4,11
1523179997876537,-2,-6,-10,-2,18,-13,-3,1
1523179997876537,-2,0,0,6,-22,25,8,-4
1523179997887565,1,-1,-1,-12,5,5,-1,5
1523179997887565,-2,-2,-3,4,-15,-25,-8,0
1523179997896589,0,-2,4,-4,-20,8,8,-7
1523179997896589,0,1,-3,-21,-23,-15,-1,1
1523179997911631,4,-4,0,23,40,26,1,10
1523179997911631,-16,-8,-8,-20,-24,-24,7,-26
1523179997912632,-1,1,4,-1,17,-5,-4,3
1523179997912632,-3,1,6,7,-40,-15,-4,1
1523179997933688,10,1,-7,-7,-33,-11,4,10
1523179997933688,2,-1,-1,-23,-5,-3,-7,0
1523179997935693,6,-2,2,-13,-62,-12,-5,16
1523179997935693,-28,-3,-11,-10,-15,-12,1,-48
1523179997947960,10,0,-3,-21,7,-13,-10,19
1523179997947960,1,1,5,44,41,16,-4,-9
1523179997956752,-6,-2,1,-17,-23,6,0,-7
1523179997956752,-10,0,-1,9,24,12,1,-3
1523179997971791,17,3,0,2,-3,-1,-2,21
1523179997971791,-7,-2,6,0,-17,0,-3,-13
1523179997972795,29,0,2,6,-44,5,4,38
1523179997972795,-35,-4,2,0,16,8,-3,-43
1523179997994083,-10,0,-5,5,30,20,-5,-3
1523179997994083,16,4,0,-9,-33,-5,6,33
1523179997995854,-8,-1,1,-5,78,1,-9,-15
1523179997995854,16,-2,-6,13,-5,-8,-2,23
1523179998007886,-6,-2,-1,1,-51,-33,-7,-23
1523179998007886,1,1,-3,15,83,20,0,8
1523179998016910,-11,-6,-7,-3,-55,5,4,-11
1523179998016910,7,-2,3,14,49,11,0,10
1523179998031950,1,-3,-2,-14,33,28,3,6
1523179998031950,-15,-2,-10,-9,-18,-8,0,-14
1523179998032955,15,5,5,14,-31,-15,-3,3
1523179998032955,-16,-1,2,-7,-29,-5,-1,-7
1523179998054243,-6,-5,-2,9,54,-15,-7,-13
1523179998054243,17,0,-8,-42,-63,-8,2,22
1523179998056016,4,-1,6,30,-11,-13,1,9
1523179998056016,22,6,10,27,-6,-1,6,27
1523179998076119,-32,-5,-6,-20,-49,-36,-6,-40
1523179998076119,-10,-4,-8,-2,-4,6,-6,-15
1523179998078071,-5,1,-5,-21,12,-9,-6,-9
1523179998078071,22,-2,-6,-7,-5,-16,-3,26
1523179998091108,-3,-2,7,12,-13,-2,1,-4
1523179998091108,-24,-4,-8,-5,-17,-5,-6,-24
1523179998093114,0,5,11,21,93,7,-4,9
1523179998093114,4,1,-2,5,-61,-3,12,1
1523179998114169,10,5,-2,-9,-25,0,1,16
1523179998114169,1,-8,3,7,9,-18,-5,2
1523179998115171,-3,-5,-2,-3,-14,5,-4,-7
1523179998115171,-30,-6,-9,-14,101,5,-9,-35
1523179998136226,14,1,2,-7,-57,2,1,28
1523179998136226,18,11,6,13,17,7,9,20
1523179998138232,-8,0,-7,-18,-41,2,2,-12
1523179998138232,2,-4,6,-2,18,2,-4,4
1523179998151507,0,-10,-14,-11,-37,-39,-1,-4
1523179998151507,-2,-1,-1,6,-3,8,-1,-6
1523179998153272,-9,1,2,25,-37,-6,0,-8
1523179998153272,-1,5,7,4,52,4,-9,-12
1523179998174334,-5,1,3,-23,-10,32,5,-7
1523179998174334,10,-4,4,38,-10,-12,-3,14
1523179998175331,-7,-8,-9,-7,-6,-27,0,-4
1523179998175331,7,0,-8,-21,-78,9,-2,14
1523179998196621,7,5,10,15,74,18,1,11
1523179998196621,0,-1,0,1,10,8,1,-4
1523179998198392,-1,-4,-8,-20,0,0,-4,-2
1523179998198392,-8,-3,3,12,12,15,2,-8
1523179998210424,0,-3,5,-11,0,-5,-3,2
1523179998210424,-7,0,1,7,4,22,1,-10
1523179998217443,10,5,3,12,-7,-13,-3,4
1523179998217443,14,2,2,-14,28,9,7,18
1523179998233486,-11,-1,3,49,9,15,4,-10
1523179998233486,1,-4,-1,-17,50,12,-8,-1
1523179998235491,-4,-4,-5,-5,-24,-24,-3,-3
1523179998235491,4,-1,-7,-23,-21,-26,-10,8
1523179998256549,-2,1,6,-1,-82,-19,5,-12
1523179998256549,-8,-5,-1,11,33,-13,-8,-11
1523179998257549,-11,-3,-5,-21,-24,24,5,-22
1523179998257549,7,-2,0,17,-11,-8,3,11
1523179998270819,-1,-1,-1,-35,21,34,3,2
1523179998270819,9,1,3,41,-8,-9,3,6
1523179998277604,-12,-1,2,-10,4,-1,2,-13
1523179998277604,-11,-5,3,2,-2,-6,-11,-15
1523179998294647,-4,-3,-12,0,8,-7,-4,-12
1523179998294647,-4,-1,-6,-20,-61,-3,2,-3
1523179998295650,14,2,-2,5,93,14,4,29
1523179998295650,-2,1,-2,3,21,-1,4,-2
1523179998316706,14,-1,-1,-10,-54,6,4,12
1523179998316706,-14,-1,-3,-10,6,-11,-7,-12
1523179998317711,-14,0,3,6,-7,-34,-7,-27
1523179998317711,-10,-6,-9,-11,6,-3,-1,-1
1523179998330746,4,5,5,9,51,8,3,9
1523179998330746,12,-4,-5,-9,-32,-23,-3,14
1523179998337762,-2,2,5,-6,-18,18,-4,-1
1523179998337762,-5,-6,1,26,3,14,4,6
1523179998354045,4,-2,-3,5,33,-8,-8,11
1523179998354045,-11,-4,-3,-10,-30,-15,0,-28
1523179998355814,-11,-3,-10,-15,36,-11,-6,-6
1523179998355814,2,3,3,1,-25,7,14,-2
1523179998376868,7,-4,-2,-1,-21,-20,-1,13
1523179998376868,-8,-2,-3,-7,26,4,-6,-7
1523179998377869,0,-1,4,11,-5,16,0,-6
1523179998377869,12,2,6,-2,23,-2,-2,9
1523179998390903,-6,0,-5,3,3,18,6,7
1523179998390903,3,1,1,-5,-20,-19,2,12
1523179998397923,3,-7,-10,-6,-3,1,-6,-2
1523179998397923,-8,-2,-5,-17,-10,-1,9,-23
1523179998413966,-7,5,6,14,9,-16,-8,-18
1523179998413966,11,2,0,-3,0,3,2,11
1523179998415975,-5,-3,4,6,-17,19,1,1
1523179998415975,-2,-7,-9,-9,67,-15,-5,-3
1523179998436025,0,-7,-2,-1,-63,-5,1,1
1523179998436025,5,2,-2,-1,30,13,3,9
1523179998438028,4,1,-6,-8,-18,-14,-5,5
1523179998438028,-1,3,7,17,-66,-27,-6,-2
1523179998451299,-2,-4,-1,2,76,4,1,-4
1523179998451299,-6,-6,-7,-5,-23,-14,-11,2
1523179998458081,10,6,-2,-19,8,19,8,6
1523179998458081,-3,-2,-6,-5,-50,3,-6,-9
1523179998474126,13,-1,6,20,-21,-7,-4,1
1523179998474126,-38,-1,-1,-3,2,8,10,-36
1523179998475128,6,2,3,8,26,-14,0,16
1523179998475128,3,-4,-3,-8,-27,6,-6,5
1523179998496416,-3,0,-3,-8,-58,-1,-4,3
1523179998496416,0,-8,-6,-5,12,-3,-3,-4
1523179998498188,-1,0,0,15,31,8,-1,-6
1523179998498188,-1,1,-3,-10,-50,-8,4,4
1523179998511226,3,3,1,-4,93,24,12,11
1523179998511226,10,5,9,11,-26,3,3,2
1523179998518281,-8,0,-1,-9,-53,-8,2,-8
1523179998518281,1,-1,4,5,28,16,-2,0
1523179998534285,-7,-6,-13,-15,23,0,-5,-12
1523179998534285,9,-1,3,-3,-12,3,-8,11
1523179998535286,-3,-6,-4,4,2,2,0,-4
1523179998535286,-3,-2,-5,-13,-88,13,-1,-4
1523179998556344,-8,0,-4,-6,12,3,13,-11
1523179998556344,10,7,7,0,25,5,5,15
1523179998558349,4,-3,1,-7,4,1,-1,13
1523179998558349,-8,-4,3,5,11,-12,-9,-15
1523179998570615,2,-5,-11,-2,-7,-6,-14,-1
1523179998570615,-22,0,-1,2,-23,10,4,-24
1523179998579404,-3,0,6,10,18,1,3,-8
1523179998579404,19,0,-2,0,16,-18,-4,31
1523179998594443,-18,1,-4,-7,1,17,1,-19
1523179998594443,0,3,1,-10,4,-9,0,-1
1523179998595447,9,0,2,0,-13,-6,3,13
1523179998595447,-7,-4,-6,-3,23,23,5,-12
1523179998616503,8,-2,9,5,-8,-24,-11,4
1523179998616503,-1,-4,-8,-3,2,6,0,5
1523179998618508,-3,2,-2,10,34,-4,0,-1
1523179998618508,5,4,-4,-8,-80,11,-6,4
1523179998630540,-1,-3,-5,-13,-47,-25,6,2
1523179998630540,1,-5,-2,27,35,19,0,-3
1523179998639567,-8,-5,-3,-10,22,-3,-6,-13
1523179998639567,4,0,0,23,2,-18,-4,2
1523179998654637,-10,-1,1,-19,31,2,3,-4
1523179998654637,12,4,12,15,-21,-20,-1,8
1523179998655607,-3,-6,-8,-6,-9,17,4,2
1523179998655607,-6,0,-2,2,85,-11,-4,-1
1523179998676665,1,0,-3,9,-16,7,-5,-7
1523179998676665,-11,-5,-4,-12,-5,7,1,-1
1523179998677666,26,-5,-4,-6,-17,-4,-3,29
1523179998677666,-33,0,-5,-11,40,-14,2,-37
1523179998689699,7,4,9,19,-17,9,-11,1
1523179998689699,-3,-1,-4,-14,-40,-24,-6,-5
1523179998698726,-5,-4,-5,8,14,9,-3,-5
1523179998698726,6,-2,2,-1,-38,-12,-2,9
1523179998713762,0,1,-2,11,72,25,2,0
1523179998713762,-2,-6,-4,-14,-78,-11,5,-5
1523179998715768,-8,-1,-3,16,-22,-24,-5,-15
1523179998715768,4,1,0,-16,8,18,5,13
1523179998736823,1,3,2,-8,-11,10,3,8
1523179998736823,0,-3,0,5,38,0,-5,0
1523179998737825,-2,0,4,-7,-25,-3,0,-4
1523179998737825,1,0,2,10,25,14,4,-2
1523179998750093,-4,0,-1,-4,-11,-30,-10,-6
1523179998750093,4,-2,-4,-2,23,15,0,3
1523179998758882,0,2,5,-9,6,13,2,6
1523179998758882,-5,-1,2,2,10,7,-1,-16
1523179998772920,1,-5,-8,-1,-9,-7,11,-3
1523179998772920,-2,-1,0,-3,2,-2,-4,2
1523179998781943,-15,0,-2,-1,-1,-2,-3,-19
1523179998781943,27,4,0,-2,5,2,0,33
1523179998796215,-12,1,5,-4,9,-4,-3,-9
1523179998796215,0,0,1,11,2,-2,0,-3
1523179998797986,6,-1,-5,-3,5,1,6,11
1523179998797986,-5,-6,-7,-11,-10,-13,-7,-9
1523179998810016,0,-1,0,0,20,-2,-3,-2
1523179998810016,-2,0,-3,0,30,8,-2,-4
1523179998819043,-8,1,4,3,8,-18,-5,-5
1523179998819043,2,1,-1,-3,17,29,6,-1
1523179998834088,10,0,4,2,16,-7,1,12
1523179998834088,-4,2,0,-12,26,-3,-2,-11
1523179998835086,-5,1,-2,4,-43,3,-8,-5
1523179998835086,-9,-3,-3,-14,-17,-11,10,-18
1523179998856140,0,-5,-8,-1,-39,0,-5,13
1523179998856140,14,0,2,-7,-11,-14,-7,16
1523179998858145,1,0,9,0,-16,-10,0,7
1523179998858145,-9,-7,-6,-7,-44,-6,-10,-8
1523179998870412,1,-1,4,6,24,19,4,-14
1523179998870412,-1,-4,-8,-3,-69,-5,0,6
1523179998879200,-1,3,1,1,35,21,7,-6
1523179998879200,-2,2,4,6,-53,-1,-2,2
1523179998894476,5,4,3,2,33,3,4,9
1523179998894476,-1,-3,1,5,40,17,-1,0
1523179998895244,-11,-1,2,-9,-4,12,4,-12
1523179998895244,7,-6,-8,3,-21,-17,0,10
1523179998916299,-2,-2,-3,-10,-20,-15,-3,-5
1523179998916299,6,2,-3,-15,-18,-11,-2,14
1523179998918306,-10,-3,-2,8,-18,-13,-11,-22
1523179998918306,-7,-3,1,7,41,-17,6,-12
1523179998930337,3,-3,-6,-6,-50,13,-4,21
1523179998930337,-12,5,2,5,34,4,4,-18
1523179998939363,11,-2,-1,-1,9,-15,-4,18
1523179998939363,-2,2,1,5,-9,3,-3,5
1523179998954605,-1,-6,-3,-5,-7,-15,-4,1
1523179998954605,-1,3,6,9,-36,1,4,-2
1523179998955404,-1,-2,-4,14,20,9,-2,-3
1523179998955404,11,4,3,0,6,-11,-7,15
1523179998976500,-32,1,2,1,-33,-16,1,-38
1523179998976500,-1,-4,-8,-1,19,7,1,2
1523179998978467,-4,-1,1,-2,-62,-4,2,3
1523179998978467,15,2,6,9,-35,0,5,21
1523179998998519,5,-1,-5,-5,-54,-16,-6,-2
1523179998998519,-2,-1,3,3,80,10,-5,1
1523179999000525,-3,-8,-14,-22,-36,-22,-8,-6
1523179999000525,1,3,3,12,26,17,11,-1
1523179999013559,2,0,7,31,24,-9,-8,-2
1523179999013559,0,0,0,-1,-52,-5,0,2
1523179999015563,12,0,-2,-4,-8,-11,-4,14
1523179999015563,-18,-1,-5,-22,36,7,-6,-21
1523179999036619,-5,-4,0,5,28,35,2,-8
1523179999036619,4,-4,-2,1,16,2,5,-1
1523179999037826,-5,0,-4,-24,53,11,6,-3
1523179999037826,1,-4,-6,4,-89,-33,-9,3
1523179999059681,-3,4,7,6,17,6,7,1
1523179999059681,5,-1,-1,-8,-13,-16,-2,2
1523179999060684,-3,-2,-4,-8,-39,0,1,-5
1523179999060684,-2,0,2,6,101,11,-4,-6
1523179999073719,7,-3,-10,-12,-40,-24,-14,13
1523179999073719,-12,-1,-1,0,-22,3,8,-15
1523179999075724,-5,-1,5,9,6,-30,-6,-10
1523179999075724,1,0,-1,1,61,59,8,-1
1523179999096818,3,-1,0,2,-49,5,3,6
1523179999096818,2,-1,-4,-13,-41,-29,-13,7
1523179999097782,0,3,1,7,51,0,-2,-4
1523179999097782,-6,-1,0,2,16,-3,2,-5
1523179999119073,5,5,3,4,6,-4,2,12
1523179999119073,-5,-2,-4,1,5,0,-5,-10
1523179999120843,2,-4,2,-20,6,11,-1,6
1523179999120843,2,-5,-10,14,-14,-33,-12,2
1523179999133878,-12,2,3,8,49,21,9,-20
1523179999133878,-2,1,1,0,-18,13,-3,2
1523179999135884,5,0,-4,-14,4,-7,-2,6
1523179999135884,-3,3,7,-2,72,19,-4,-10
1523179999156939,2,-2,-3,-12,-70,-9,0,3
1523179999156939,4,-4,-2,22,34,1,-4,5
1523179999157942,-8,0,-1,6,7,10,5,-11
1523179999157942,3,-2,-1,-21,-48,-23,-7,2
1523179999179234,-5,-3,2,13,33,8,-2,-7
1523179999179234,-1,1,-1,3,47,1,0,-4
1523179999181003,18,5,2,8,-33,2,-2,30
1523179999181003,-1,0,1,-3,-11,14,17,-15
1523179999193035,-20,-5,-8,-21,-5,-13,-13,-29
1523179999193035,0,-3,-2,-5,46,-8,-5,16
1523179999200055,-1,-4,-7,3,-38,16,23,2
1523179999200055,-1,-2,0,7,-41,17,1,8
1523179999216096,7,-3,4,-17,-1,-25,-3,6
1523179999216096,-3,-2,4,1,-31,1,1,-13
1523179999218101,-1,-2,-9,-14,17,-18,-7,-1
1523179999218101,-1,1,-1,8,30,7,2,-1
1523179999239159,6,2,0,6,-17,5,4,0
1523179999239159,-4,-4,-7,-18,-35,-14,-6,-3
1523179999240160,-1,-1,5,16,63,12,-4,-7
1523179999240160,-4,-6,-3,-11,-32,-19,-6,0
1523179999254414,0,-2,-11,-6,6,-2,-5,5
1523179999254414,1,2,0,3,25,34,8,-7
1523179999260214,2,0,8,22,17,1,-2,8
1523179999260214,-8,2,0,-15,-4,-14,-16,-16
1523179999276257,5,0,-1,10,21,-1,14,9
1523179999276257,2,0,5,-2,-24,-12,-1,0
1523179999278262,-6,-5,-6,-13,-18,4,-1,-13
1523179999278262,-1,-2,-7,-18,-22,-18,-9,4
1523179999299317,2,2,1,7,11,8,-6,7
1523179999299317,6,-3,-4,-6,-42,-3,0,9
1523179999300419,-25,-5,-4,-6,38,-20,-6,-42
1523179999300419,0,3,3,7,3,-12,1,15
1523179999313355,-3,-4,-4,-9,56,2,-3,5
1523179999313355,-1,-3,2,-1,-42,-8,5,-1
1523179999320606,0,-2,-9,-5,-31,-16,-9,5
1523179999320606,-5,-2,-1,8,23,8,-9,-17
1523179999336415,-1,1,-5,2,15,-6,2,-6
1523179999336415,12,6,8,-6,-8,-4,0,10
1523179999338427,6,0,11,3,6,26,8,14
1523179999338427,-4,-5,-22,-8,23,-28,-8,-8
1523179999358475,0,-1,0,6,-105,-45,-2,5
1523179999358475,-11,-2,-4,-17,7,11,-12,-19
1523179999360482,-5,3,1,32,-43,-2,-3,-5
1523179999360482,1,-4,-6,-30,-10,6,4,5
1523179999373515,3,6,17,37,22,-9,-9,-1
1523179999373515,-4,-3,-12,-22,69,-4,2,-1
1523179999380759,4,1,9,11,-43,16,0,4
1523179999380759,0,-4,1,0,-7,5,11,5
1523179999396576,-1,-4,-16,-40,21,18,5,-4
1523179999396576,-3,-1,0,14,4,-3,0,-4
1523179999398582,-1,0,4,5,4,2,0,4
1523179999398582,-3,-1,10,18,67,0,-3,-7
1523179999419637,8,1,-4,-6,-86,6,-5,11
1523179999419637,10,4,1,3,-51,-3,6,21
1523179999420640,-26,-8,-12,-25,38,-18,-4,-36
1523179999420640,8,1,5,14,-39,-10,-4,4
1523179999433675,-24,-3,3,4,41,21,2,-26
1523179999433675,1,-4,-6,10,27,6,-3,10
1523179999439739,27,9,-3,1,-3,1,10,42
1523179999439739,-5,0,8,-8,-44,-5,-4,-6
1523179999456736,4,-7,-3,-2,50,14,14,26
1523179999456736,-13,-4,-11,-10,-15,-2,-6,-31
1523179999457739,-5,2,9,40,38,9,-3,-12
1523179999457739,6,1,0,3,-23,7,7,9
1523179999479030,4,-5,-9,-14,19,-5,-9,3
1523179999479030,-13,-1,1,-3,5,12,3,-16
1523179999480800,2,-3,-1,-7,-7,-18,-6,0
1523179999480800,3,4,1,2,9,35,1,7
1523179999492832,5,-5,-2,-6,-11,-9,0,4
1523179999492832,-6,-3,-1,-6,5,-24,-5,-6
1523179999501856,-8,-6,-3,-7,-49,16,-8,-17
1523179999501856,-1,1,4,13,39,-7,-1,-1
1523179999517029,-2,2,-3,-4,-13,1,-2,-6
1523179999517029,11,-1,-3,-5,-9,-11,8,16
1523179999517898,2,-1,-3,-20,-70,-4,-4,-1
1523179999517898,-5,1,4,-16,8,9,-4,-6
1523179999538957,2,1,0,18,28,-2,-1,-5
1523179999538957,3,-1,1,23,1,-5,-6,7
1523179999540961,-7,-3,-4,7,-12,-3,-2,-11
1523179999540961,5,-3,-6,-9,-11,-27,-5,20
1523179999553226,-7,-2,-3,-24,-9,2,-5,-14
1523179999553226,-2,2,9,17,21,18,1,-2
1523179999562015,-1,1,-2,-6,11,-12,-1,-2
1523179999562015,1,-5,-6,-7,-92,-3,4,0
1523179999577057,-5,2,5,4,39,-6,2,-8
1523179999577057,0,-2,-4,0,5,-11,-8,-5
1523179999579071,3,-1,-6,-31,-16,-3,11,12
1523179999579071,-2,0,-4,-19,-17,-9,-6,-10
1523179999599114,-7,-5,3,39,72,10,-1,-3
1523179999599114,-3,0,-1,-9,-4,28,8,-3
1523179999600122,11,5,4,8,97,35,2,11
1523179999600122,-5,-5,-6,-11,-44,-4,3,2
1523179999612190,-3,-5,-10,-31,-13,-9,-7,-18
1523179999612190,4,3,2,31,-13,-23,-2,7
1523179999621174,-7,-2,-7,-13,-10,18,-8,-14
1523179999621174,8,4,10,18,17,-4,9,19
1523179999636214,4,5,7,8,13,9,1,6
1523179999636214,-3,-8,-11,-12,-23,-7,-2,1
1523179999638221,12,1,-2,3,41,1,1,8
1523179999638221,-34,-6,-9,-4,-32,-38,-11,-48
1523179999659274,4,-1,2,-8,-24,12,0,8
1523179999659274,-1,1,4,-23,1,2,-1,5
1523179999660277,5,-3,-1,30,-17,-7,2,7
1523179999660277,4,-2,4,0,85,1,-3,-1
1523179999672547,-1,2,-2,-9,-55,12,1,4
1523179999672547,-5,-3,-4,-1,43,4,9,-7
1523179999681333,-3,2,4,-14,-21,-16,0,-1
1523179999681333,6,-1,-3,3,57,39,7,2
1523179999696608,-9,-4,-3,0,-63,-13,-5,-5
1523179999696608,1,-5,-2,-1,-44,-24,-11,2
1523179999698380,-2,2,-1,-9,72,17,4,-9
1523179999698380,2,3,5,19,-19,16,2,3
1523179999719579,4,-1,6,-14,-38,4,2,5
1523179999719579,-8,0,6,32,54,2,3,-9
1523179999720436,4,-5,-7,-8,-27,8,-4,12
1523179999720436,4,2,-12,-11,21,5,2,1
1523179999732508,-5,-4,-2,-6,-9,-17,-9,-8
1523179999732508,5,2,8,5,65,16,10,1
1523179999741494,-5,-5,-7,-13,8,-17,-4,-4
1523179999741494,-3,0,1,8,-15,-8,-3,-5
1523179999756535,-1,-5,-8,-19,20,-22,-8,2
1523179999756535,0,2,11,16,16,4,4,1
1523179999757536,4,-2,0,-7,-27,-18,-6,14
1523179999757536,-8,-3,-9,-24,2,2,-1,-30
1523179999779633,3,1,3,19,-18,-16,-1,1
1523179999779633,1,0,-8,-23,-8,-1,-7,5
1523179999780597,-6,0,6,12,-24,-15,-2,-4
1523179999780597,5,2,0,-6,-7,-5,-10,9
1523179999792629,-4,-6,-3,18,-16,1,3,2
1523179999792629,5,-5,-7,-24,59,9,-10,11
1523179999801654,-15,0,9,32,30,-18,-4,-37
1523179999801654,-8,0,0,1,12,-7,13,4
1523179999816693,4,4,-5,-32,-19,-11,-10,1
1523179999816693,0,-3,-5,9,-29,3,-3,-3
1523179999817695,1,-10,-11,-27,-9,-15,-8,6
1523179999817695,4,0,9,14,-20,8,4,5
1523179999838753,-4,-3,-1,13,30,17,4,-1
1523179999838753,-6,-1,-7,-13,-63,-20,-1,-19
1523179999840757,-3,4,4,-1,-5,-3,0,-7
1523179999840757,13,1,-5,-5,-37,-10,-3,10
1523179999853024,8,2,2,0,100,20,4,22
1523179999853024,-5,-2,1,9,17,-4,1,-6
1523179999861813,-7,-8,-17,-27,-52,3,-1,-4
1523179999861813,-2,3,14,30,-15,7,4,-8
1523179999876853,2,0,7,9,51,-3,0,-3
1523179999876853,-10,-2,-3,-6,-18,12,2,-9
1523179999877855,0,1,-2,-14,-8,47,-5,3
1523179999877855,0,-5,-6,11,42,-8,6,14
1523179999898913,0,-1,-2,3,1,6,-1,-8
1523179999898913,-2,5,5,-9,-51,-3,2,5
1523179999900917,-1,-3,-1,-17,-38,-16,-3,-13
1523179999900917,-1,-2,-3,23,25,30,-8,5
1523179999912948,6,3,-1,3,8,-8,3,6
1523179999912948,0,0,2,-3,5,2,2,-4
1523179999921973,6,6,6,25,63,32,13,13
1523179999921973,-6,-11,-11,-30,-57,-23,-10,-11
1523179999937046,-14,-6,-8,-4,-43,-1,-2,-18
1523179999937046,4,3,3,6,43,13,-1,5
1523179999938030,-2,-4,-5,-5,1,4,0,-1
1523179999938030,1,-2,2,-2,9,-5,-5,3
1523179999959072,2,2,-3,-7,-32,-19,0,3
1523179999959072,0,0,-5,-21,-14,-9,-8,1
1523179999960074,5,4,9,40,19,-1,1,9
1523179999960074,-1,-2,-2,-2,1,4,-1,-4
1523179999982149,-5,-9,-6,-18,-5,-15,-5,-7
1523179999982149,-4,-5,-3,6,-21,-17,-7,-6
1523179999983137,0,-2,-4,-5,-60,12,4,1
1523179999983137,-1,4,3,-3,11,-3,-3,-5
1523179999996170,-1,3,-1,-3,4,-6,1,-3
1523179999996170,1,-4,-4,-7,-11,-6,0,3
1523179999998176,5,1,3,2,-36,-12,-1,8
1523179999998176,-6,-3,-7,-11,-22,-21,-6,-13
1523180000019466,-7,0,0,0,-48,16,-2,-11
1523180000019466,8,5,8,24,72,-10,-3,6
1523180000020233,-1,-2,-2,-6,-15,-16,-1,3
1523180000020233,2,-2,-5,-18,-70,-19,-4,9
1523180000041291,1,3,0,15,82,59,12,2
1523180000041291,-8,-5,-9,-23,-44,-2,-6,-12
1523180000043299,-6,2,5,22,0,-12,0,-7
1523180000043299,12,-1,-1,-23,-15,-14,-2,6
1523180000055327,-21,-6,2,17,-5,-25,-4,-4
1523180000055327,2,-1,-5,-9,-51,23,3,1
1523180000062345,-1,0,2,-1,32,16,6,3
1523180000062345,6,-1,-2,-7,49,11,-6,-7
1523180000079575,-7,3,7,18,-15,-15,0,1
1523180000079575,-10,-7,-6,-22,-15,5,-8,-3
1523180000080393,1,-2,4,5,-51,-30,1,-2
1523180000080393,23,1,-7,28,26,10,-1,-1
1523180000101685,3,5,-3,-11,16,13,2,6
1523180000101685,-21,-5,2,1,8,-2,2,2
1523180000103455,-6,-5,1,-9,-34,-25,-15,-16
1523180000103455,-5,0,-1,-1,-2,5,15,-1
1523180000115488,23,1,-4,-9,57,-2,-7,2
1523180000115488,5,3,-2,-5,-93,-31,0,2
1523180000122510,-3,-3,3,-3,52,-10,1,3
1523180000122510,-5,-9,-7,-23,1,13,-3,-2
1523180000138549,-3,-3,4,28,-14,-5,2,-1
1523180000138549,4,1,-6,-17,-16,-9,-9,-1
1523180000140554,-2,3,-2,18,4,-18,-9,-1
1523180000140554,-17,3,3,-5,47,32,12,-11
1523180000161610,1,-6,-9,-1,-103,-16,-10,5
1523180000161610,2,-2,4,8,106,13,1,-5
1523180000162612,-1,-3,-4,3,-6,6,-1,1
1523180000162612,-5,-1,-1,0,75,21,3,2
1523180000175650,-11,-2,0,-18,-7,-1,16,-9
1523180000175650,9,-3,-3,36,-2,12,2,-5
1523180000183192,6,0,-4,1,22,-14,-19,14
1523180000183192,-8,-1,7,-3,-4,17,6,-3
1523180000198999,4,0,7,21,-7,-6,-1,0
1523180000198999,6,0,-7,-26,-26,-24,-4,3
1523180000201045,-5,0,2,16,87,29,15,-6
1523180000201045,1,1,-3,5,-16,-13,-10,7
1523180000222059,1,-5,-3,-30,10,-13,-2,-3
1523180000222059,-14,-1,5,-2,-15,18,11,-18
1523180000223062,-3,-5,-9,-20,3,5,-22,5
1523180000223062,-2,6,6,18,8,17,0,1
1523180000236098,-4,-2,-2,-5,-29,-20,-5,-3
1523180000236098,8,4,5,9,14,-4,-2,8
1523180000243237,2,-10,-19,-32,-76,-11,-6,1
1523180000243237,-9,1,18,47,17,-13,10,-7
1523180000259158,-8,-2,-8,-5,2,11,-5,-7
1523180000259158,5,3,-1,-16,-68,-39,-7,10
1523180000260194,3,7,11,5,68,44,8,-2
1523180000260194,2,-8,-1,22,43,-3,-6,8
1523180000281453,-7,-3,-10,0,-7,-6,3,-7
1523180000281453,32,0,5,22,12,12,-2,13
1523180000283222,-27,0,-4,-20,-1,1,24,-14
1523180000283222,-1,3,0,-11,-57,-23,-2,-2
1523180000296256,9,4,8,4,27,15,-5,10
1523180000296256,-5,-6,-16,-4,34,14,-8,-6
1523180000303273,10,-1,0,-4,6,-21,1,1
1523180000303273,0,-5,2,-3,-10,4,-7,-1
1523180000319555,-7,-3,-7,-12,-10,-12,-3,-18
1523180000319555,-19,-6,-4,-2,118,30,2,-10
1523180000320320,-8,6,12,40,0,-3,-1,3
1523180000320320,10,5,-2,-16,-25,-10,-2,10
1523180000341434,9,0,3,-7,-8,3,-1,7
1523180000341434,-4,1,1,3,-29,-18,-1,-11
1523180000343381,-6,-5,0,-24,-4,15,-1,3
1523180000343381,13,-6,-15,-13,-33,-32,-7,3
1523180000355478,-19,1,-3,-9,-9,0,-1,1
1523180000355478,3,1,6,14,-14,10,3,-2
1523180000362433,-3,-7,-9,-12,-36,-25,-7,-15
1523180000362433,-4,0,0,-5,-42,17,6,2
1523180000378473,10,1,1,1,77,2,-1,13
1523180000378473,-2,2,5,4,-7,4,1,-6
1523180000380481,-1,-1,0,4,62,-5,-5,10
1523180000380481,-12,-6,-4,-11,-32,-11,-5,-20
1523180000401773,-3,-2,-2,-4,51,15,-13,17
1523180000401773,-15,-4,-14,-17,24,-5,3,-14
1523180000403540,13,1,-3,8,0,5,12,3
1523180000403540,9,9,9,-6,27,-4,-7,5
1523180000415574,-7,-1,5,13,-3,-12,-3,-14
1523180000415574,21,-2,1,9,50,28,6,46
1523180000422592,-58,-7,-9,10,-73,-14,0,-84
1523180000422592,-7,-8,-14,-18,-15,-20,-18,-3
1523180000438688,19,6,10,16,92,34,14,19
1523180000438688,0,2,0,-8,-71,-29,-8,-3
1523180000446656,17,-1,1,-9,-5,5,0,19
1523180000446656,-8,-4,2,7,-16,-32,-11,-19
1523180000461695,-5,-5,-12,-7,-56,-21,-5,-3
1523180000461695,13,10,10,15,-17,-7,15,8
1523180000462698,8,1,-3,-12,-9,-10,-7,8
1523180000462698,-4,0,-2,-13,19,15,4,-2
1523180000474731,0,-8,-4,-8,-88,-8,-4,-5
1523180000474731,-10,-2,2,-5,-18,-10,-5,-2
1523180000483755,5,0,-10,-18,-29,-28,-13,4
1523180000483755,16,0,-3,2,7,12,5,21
1523180000498795,-45,-3,-5,-16,-39,2,1,-44
1523180000498795,-8,-3,-3,11,75,26,1,-18
1523180000500800,14,-1,9,-15,-43,7,0,9
1523180000500800,18,-2,-6,7,38,-7,2,25
1523180000521855,22,3,1,1,4,0,2,10
1523180000521855,6,-1,-2,3,-82,-28,2,4
1523180000522859,-16,-3,-12,-11,9,4,12,-7
1523180000522859,-2,0,4,8,25,43,7,-12
1523180000535126,1,2,4,-3,-6,-34,-7,1
1523180000535126,-33,-10,-9,-6,-36,-2,-10,-12
1523180000543915,21,3,7,-1,-17,2,3,22
1523180000543915,-18,-5,-8,-38,-38,-6,-1,-13
1523180000558954,45,4,3,10,58,22,3,20
1523180000558954,-1,5,2,-2,-4,1,17,10
1523180000560961,-37,-3,-3,-3,30,23,-12,-46
1523180000560961,-18,-9,13,24,-52,2,-5,6
1523180000582040,2,-3,-11,-24,65,22,9,17
1523180000582040,38,13,6,1,-67,-14,6,18
1523180000583018,17,-4,-14,-11,94,46,-2,17
1523180000583018,-36,-2,5,12,10,-5,13,-39
1523180000595052,21,4,5,19,-37,-1,-5,17
1523180000595052,-13,6,8,15,-13,16,-2,-12
1523180000604077,3,-2,-4,-5,-1,-22,-2,8
1523180000604077,-3,-5,-3,13,10,-6,-10,-3
1523180000620117,1,-4,-2,-9,-95,6,5,-8
1523180000620117,-25,-5,-8,-2,75,17,-3,-7
1523180000621123,2,-3,-5,-11,-26,-29,-9,10
1523180000621123,22,8,6,11,30,31,7,18
1523180000641173,-5,2,7,12,-10,-21,0,-8
1523180000641173,-9,-7,-2,-23,9,1,-17,-19
1523180000643178,-10,-5,1,25,-30,-19,-6,-3
1523180000643178,15,3,-6,-22,22,-9,-4,15
1523180000655211,-3,0,-5,2,81,-13,-3,-27
1523180000655211,-38,-1,1,-15,-71,-7,-8,-10
1523180000664234,21,8,12,13,8,4,15,46
1523180000664234,-4,-1,1,16,3,-33,1,-1
1523180000679509,-10,-11,-17,-29,-52,-31,-14,-8
1523180000679509,3,-9,-12,-14,-19,-22,-13,-24
1523180000681280,-4,-1,8,12,45,-15,-1,-29
1523180000681280,22,24,10,1,8,50,16,55
1523180000701568,3,-4,1,8,43,15,-1,0
1523180000701568,-2,-5,0,1,-17,-21,-7,-1
1523180000703339,-8,-1,-5,-2,53,3,-5,-15
1523180000703339,-6,-6,-10,-19,-42,-22,-8,-23
1523180000715371,-13,-3,-1,2,-78,-18,-11,-1
1523180000715371,3,-3,-2,-10,49,46,11,2
1523180000724395,7,-8,-9,-5,8,6,-4,2
1523180000724395,-5,-2,3,33,19,-8,-9,-5
1523180000738674,-10,1,-6,-14,2,4,14,-1
1523180000738674,3,-2,-3,5,12,3,-2,-2
1523180000740437,7,2,5,-14,-32,-3,-3,8
1523180000740437,-3,-6,-9,-19,-11,-16,-7,-11
1523180000761531,-23,-7,6,10,17,11,-12,-11
1523180000761531,38,3,-1,-7,0,-3,1,47
1523180000763498,-6,6,-1,15,-63,-3,2,-16
1523180000763498,-22,-11,-14,-19,-10,-13,-9,-24
1523180000775530,-5,1,8,5,-25,2,8,9
1523180000775530,-7,-3,3,8,33,-3,4,-20
1523180000784554,4,-3,-7,-8,36,5,-1,7
1523180000784554,8,-3,-1,-12,-94,-6,3,5
1523180000798632,5,5,6,-6,25,-6,-9,-2
1523180000798632,-1,-1,2,43,63,23,15,-3
1523180000800597,0,0,0,-3,-5,22,5,8
1523180000800597,-11,-2,-3,-8,1,-18,-5,-32
1523180000821654,2,-4,-7,-13,1,0,2,13
1523180000821654,11,7,-3,-5,7,-25,-9,13
1523180000822655,2,0,6,0,-48,8,-1,-12
1523180000822655,5,1,7,10,78,9,3,13
1523180000835711,4,-2,-5,2,18,17,2,-9
1523180000835711,-16,-4,3,3,-13,-19,-8,-3
1523180000843711,-15,-3,-3,2,10,2,-3,-21
1523180000843711,4,-1,-6,-8,-17,-29,-15,-1
1523180000858751,0,6,0,-2,74,32,7,-6
1523180000858751,14,-2,1,1,-27,15,1,32
1523180000860757,-1,1,10,13,44,7,3,11
1523180000860757,-1,-8,-8,-23,-30,4,0,-4
1523180000882034,-5,1,1,35,78,-29,7,-20
1523180000882034,-5,0,-2,-7,-47,1,-4,3
1523180000882815,-1,1,4,5,-49,15,2,3
1523180000882815,-3,-4,-4,-3,44,4,6,-1
1523180000903872,7,0,-5,-14,-48,-13,-9,9
1523180000903872,-10,2,-2,1,27,6,3,-39
1523180000905877,8,-1,6,10,-6,-28,-2,17
1523180000905877,5,4,1,-1,-9,7,3,13
1523180000919148,-6,-4,0,-6,-13,13,-3,4
1523180000919148,-7,-2,-3,10,10,3,0,-2
1523180000920919,-7,-5,-12,-26,-55,-20,-7,-22
1523180000920919,-16,-5,2,11,113,27,4,-10
1523180000941973,2,-2,-3,-3,-40,20,0,11
1523180000941973,3,-2,-5,-23,-50,-58,-20,-5
1523180000942975,5,0,-4,3,8,5,11,2
1523180000942975,1,4,4,4,28,-23,9,13
1523180000964032,-1,-2,1,0,7,6,6,-16
1523180000964032,-8,-1,0,-4,34,1,-20,-5
1523180000966036,7,3,5,10,2,-10,-7,5
1523180000966036,-6,-4,-6,-5,-51,-2,-3,-10
1523180000979072,-14,-3,-4,-3,-62,-19,-5,-6
1523180000979072,17,0,-6,-18,34,15,4,11
1523180000981078,8,-1,4,0,-20,-8,-1,17
1523180000981078,-20,-1,7,17,-5,11,1,-29
1523180001002367,1,-1,-4,-5,-54,2,-1,-3
1523180001002367,3,-2,-2,-2,-38,-10,-1,4
1523180001003134,-1,-2,-8,-19,11,-7,-3,9
1523180001003134,15,-2,-7,-9,-28,3,-3,15
1523180001024191,-7,1,4,19,75,9,-8,-5
1523180001024191,18,1,6,6,-51,-5,16,0
1523180001025193,-17,-5,-6,1,48,27,-4,-19
1523180001025193,-10,0,-6,-17,-31,-12,-6,-6
1523180001038230,7,3,4,1,61,6,8,12
1523180001038230,6,-3,-2,7,9,4,-1,5
1523180001045247,10,1,4,2,3,20,1,14
1523180001045247,-15,-7,-7,2,-60,-30,-7,-29
1523180001061330,1,4,6,-10,-71,16,1,1
1523180001061330,-15,-3,-5,2,9,31,4,-16
1523180001063295,15,3,2,2,13,2,9,27
1523180001063295,19,2,1,-5,-24,0,-2,26
1523180001084562,-31,-6,-3,17,7,-2,-7,-40
1523180001084562,-10,0,1,-8,-23,3,-4,-19
1523180001085352,-3,-2,-5,3,-16,-15,2,4
1523180001085352,15,-2,-4,-1,15,-8,7,15
1523180001098428,21,-2,-1,-20,-22,-21,3,19
1523180001098428,-35,-6,-4,-8,-12,0,-2,-15
1523180001105408,-4,2,4,25,23,-13,-7,0
1523180001105408,-4,-6,-4,-8,34,8,-3,-23
1523180001121457,4,3,-2,10,-69,-19,-4,5
1523180001121457,9,3,1,2,28,-8,0,20
1523180001123455,-4,-4,-8,-32,-58,9,9,1
1523180001123455,5,-4,1,22,-14,0,-6,11
1523180001143550,-22,-1,-6,-8,-6,-1,4,-21
1523180001143550,-4,-1,6,10,57,3,9,-11
1523180001145514,0,2,-2,-9,1,9,-6,-9
1523180001145514,7,8,6,4,-3,-1,-13,19
1523180001158547,18,3,4,-6,-20,4,7,17
1523180001158547,-4,-4,-2,6,-23,-4,-3,1
1523180001165567,0,-5,-10,-26,-25,-20,-5,-6
1523180001165567,-14,-2,3,14,98,19,7,-17
1523180001181847,0,2,3,11,53,-1,-3,-9
1523180001181847,12,4,-6,-22,-46,-30,-15,31
1523180001183614,-10,-7,1,10,6,-3,-4,-15
1523180001183614,5,-2,-5,-11,-73,0,1,9
1523180001203670,4,-3,-5,-8,37,7,1,-1
1523180001203670,9,0,-3,-7,32,-13,2,5
1523180001205674,-27,1,0,6,34,18,1,-39
1523180001205674,0,3,3,-1,-37,4,-11,7
1523180001218936,-5,-8,-6,-13,-18,-19,5,8
1523180001218936,20,1,-3,-12,10,35,7,15
1523180001224726,-8,2,0,6,25,-2,0,11
1523180001224726,10,-1,-1,-6,-6,8,-1,-5
1523180001240805,-18,1,6,0,-11,-6,-12,-1
1523180001240805,-1,-6,-2,-1,20,6,0,-28
1523180001247786,6,4,2,8,-39,-4,-8,0
1523180001247786,-9,-2,-6,-9,-40,-14,4,-3
1523180001263870,8,-1,-2,3,-81,-12,2,22
1523180001263870,-6,-1,5,3,-5,-3,1,-4
1523180001265834,3,-5,-5,15,55,-10,-5,-12
1523180001265834,12,-2,-7,-45,19,11,0,9
1523180001278890,-18,-5,-8,-6,7,-10,12,-16
1523180001278890,-11,7,13,34,30,10,-9,-18
1523180001285119,23,7,5,-3,-30,-18,8,48
1523180001285119,2,3,4,-5,58,30,3,7
1523180001302060,1,-5,0,6,-27,-13,-8,-14
1523180001302060,22,-3,-6,-12,19,9,0,9
1523180001302932,-37,-2,2,6,-28,-10,-1,-50
1523180001302932,-36,-8,-2,16,19,1,-4,-23
1523180001323989,4,-5,-6,-11,102,21,-4,9
1523180001323989,37,19,11,1,-84,-4,2,38
1523180001325994,32,2,4,6,48,41,8,21
1523180001325994,-5,0,0,3,-34,8,5,5
1523180001338025,1,-4,-3,-4,-42,-16,0,-20
1523180001338025,-29,-6,-4,9,99,43,-25,-28
1523180001347049,-15,-5,-3,-16,-25,-13,-1,11
1523180001347049,13,0,-5,-3,21,-9,2,2
1523180001361133,-24,0,2,1,9,-2,-7,3
1523180001361133,-5,-5,-10,-17,-59,-27,1,-17
1523180001363093,6,-3,-5,5,17,42,5,-2
1523180001363093,-6,1,6,12,-28,-14,-10,-2
1523180001384150,20,2,7,9,17,15,3,4
1523180001384150,-2,1,4,21,-9,-16,10,26
1523180001386152,-9,-1,1,3,-13,-30,-14,-22
1523180001386152,3,-6,-11,-34,7,5,7,6
1523180001397221,13,0,-2,15,7,12,-17,20
1523180001397221,-38,-5,1,-11,-15,-12,0,-46
1523180001406206,7,-5,-6,-3,-13,-13,-2,14
1523180001406206,4,4,1,0,19,3,-1,-3
1523180001421248,15,0,2,-3,-25,-35,-8,11
1523180001421248,-17,-7,-4,5,13,-1,0,8
1523180001423252,-14,-5,-6,-13,-6,-11,-9,-26
1523180001423252,-2,1,2,24,-25,-6,9,-8
1523180001444306,4,0,1,-12,-24,0,2,-17
1523180001444306,38,1,-4,2,-18,-10,2,34
1523180001445310,-25,0,-3,-11,-12,-19,-3,6
1523180001445310,-15,0,6,4,7,1,-5,-21
1523180001457344,4,-3,-5,3,-36,15,-3,4
1523180001457344,9,5,9,3,-16,-10,6,-12
1523180001466366,6,-3,-4,5,31,-6,1,4
1523180001466366,-4,-6,-7,-10,-19,-19,-5,3
1523180001481641,-2,4,13,38,-15,13,1,4
1523180001481641,-10,-7,-11,-15,-6,-1,-5,-16
1523180001483412,8,4,7,6,16,18,6,3
1523180001483412,11,-1,-3,-2,-47,-11,5,17
1523180001504472,2,1,-2,-18,42,15,1,-3
1523180001504472,-7,-3,-1,7,11,-2,2,5
1523180001505470,6,-2,1,-1,3,-5,0,12
1523180001505470,-13,-1,3,10,24,-5,-7,-34
1523180001517738,-2,-4,-14,-48,-26,0,4,2
1523180001517738,-3,4,20,79,8,-9,-1,0
1523180001526528,14,-5,-5,-1,-73,4,-4,21
1523180001526528,-19,-5,-3,-4,-3,-7,-13,-39
1523180001541567,12,7,0,5,47,24,26,48
1523180001541567,9,1,-4,-25,14,-4,-3,-4
1523180001543572,-6,1,-2,-12,18,14,2,-3
1523180001543572,-7,-7,3,28,-11,-17,-8,-1
1523180001563625,-8,-6,-8,-14,0,-17,-7,-23
1523180001563625,3,-7,-12,-18,-7,-6,-7,11
1523180001565630,4,8,8,7,-30,5,4,-6
1523180001565630,-6,-3,-3,-12,39,12,0,-13
1523180001577897,0,3,6,9,27,-4,-6,8
1523180001577897,6,-2,-3,-18,-14,15,11,11
1523180001586688,9,-3,-10,-15,17,0,-5,11
1523180001586688,-4,4,9,-2,-57,-2,11,-1
1523180001601961,-5,-3,-6,3,22,6,-2,-5
1523180001601961,-1,-1,-4,-6,9,14,-3,-5
1523180001602730,-11,-4,-2,-12,71,5,-4,-9
1523180001602730,10,3,5,17,-40,11,1,13
1523180001623785,-5,3,1,6,-13,-10,5,-13
1523180001623785,-8,-5,-7,-17,-1,2,-5,-3
1523180001625790,7,-1,2,1,-15,-10,-5,-5
1523180001625790,14,6,7,14,19,-22,3,12
1523180001637824,-10,-5,-1,-11,-9,12,-5,-9
1523180001637824,1,0,-6,8,6,-3,-8,-1
1523180001646846,11,9,6,1,-18,-6,9,28
1523180001646846,4,1,0,0,16,-2,3,12
1523180001661885,-13,-9,-2,-5,36,-2,-11,-15
1523180001661885,-7,-5,-4,-15,-41,-12,15,-8
1523180001662889,-4,-6,-8,4,-17,-21,-11,-22
1523180001662889,17,6,3,5,4,16,5,26
1523180001684181,5,1,1,-5,36,0,1,11
1523180001684181,-24,-5,0,-2,-43,-13,-5,-30
1523180001685951,0,-7,-9,-1,-21,-21,-6,-5
1523180001685951,6,2,-6,-14,17,13,4,5
1523180001698021,5,0,0,12,-75,-21,-3,7
1523180001698021,2,2,6,15,28,17,0,11
1523180001707007,7,-1,-4,-10,-30,-11,-4,1
1523180001707007,-31,-6,-12,-14,8,-25,-15,-25
1523180001721046,11,-1,3,3,1,13,10,-1
1523180001721046,-21,-2,3,25,35,0,1,-10
1523180001723048,13,-1,1,-13,9,15,-8,9
1523180001723048,13,5,-1,4,3,9,19,9
1523180001752126,3,-2,0,1,47,8,0,6
1523180001752126,-11,-5,-4,-8,-70,-38,-14,-45
1523180001753131,-3,2,-1,3,14,8,2,6
1523180001753131,7,4,-3,-16,30,10,0,32
1523180001767165,-4,0,3,12,3,-7,-3,-7
1523180001767165,7,2,-2,-18,-14,-2,-2,11
1523180001768168,-14,-3,5,12,-23,-8,1,-28
1523180001768168,3,-3,-4,-14,-7,19,-3,2
1523180001781440,25,1,-7,1,-39,-18,-1,38
1523180001781440,-46,-4,-6,-17,-26,-4,-4,-69
1523180001783209,-4,-2,-4,3,4,10,-8,-2
1523180001783209,-3,-6,-2,-5,1,-2,1,-1
1523180001804270,4,-5,-6,-8,-30,-21,-10,-2
1523180001804270,10,0,-3,-11,38,15,8,27
1523180001805268,-4,1,5,20,-39,4,7,-2
1523180001805268,9,-2,3,0,9,-18,-1,6
1523180001818301,-1,2,-1,6,19,10,6,-18
1523180001818301,1,0,2,1,73,-8,-7,10
1523180001826324,-7,0,-5,-7,-69,2,-2,-6
1523180001826324,10,-5,-5,10,48,-19,-5,19
1523180001840360,-29,-2,-1,-11,-31,-40,2,-43
1523180001840360,21,-2,-7,-7,13,7,3,24
1523180001847380,-6,0,-4,-4,-4,-14,4,-5
1523180001847380,-2,1,0,8,36,43,-12,-8
1523180001864424,4,-1,0,-10,-68,7,0,13
1523180001864424,-1,2,5,11,-11,-6,-4,-1
1523180001865427,-5,-2,4,4,46,-8,-1,-10
1523180001865427,6,2,0,1,22,17,-7,6
1523180001886482,-24,-2,0,-1,57,2,-3,-18
1523180001886482,13,-3,1,-5,-33,-4,-3,16
1523180001888488,21,3,-4,16,118,27,9,17
1523180001888488,-23,1,3,11,-32,-8,-3,-19
1523180001902524,-10,-9,-2,-6,-13,9,-11,-21
1523180001902524,26,6,3,-25,-13,16,20,48
1523180001903535,-13,-5,-5,-15,-30,-31,-9,-16
1523180001903535,-1,-7,-10,3,64,38,-2,-4
1523180001923582,-22,-4,-1,-7,-48,-15,-3,-24
1523180001923582,11,3,-6,-18,-44,-11,-3,8
1523180001925588,7,2,6,31,10,-2,5,8
1523180001925588,10,-2,0,-15,-26,-16,-3,-12
1523180001946643,-17,-2,1,0,-9,5,4,23
1523180001946643,1,-5,0,5,45,32,-6,7
1523180001947647,3,-3,-8,-15,-62,-13,-2,-12
1523180001947647,-17,-4,-3,-1,7,-29,-4,1
1523180001961684,-1,5,2,8,-1,20,9,-11
1523180001961684,-8,-2,4,-5,14,54,5,-9
1523180001962689,4,-4,-6,-9,-31,1,1,2
1523180001962689,6,1,-3,-15,-6,-19,-5,-7
1523180001983978,9,0,3,23,-51,25,4,15
1523180001983978,-7,0,-4,11,18,-10,-3,-3
1523180001985748,-9,-3,5,-16,22,-11,-6,-12
1523180001985748,0,-4,-1,-8,-17,-3,-5,-4
1523180002006801,12,4,-1,30,67,22,-1,15
1523180002006801,-8,1,0,6,21,0,15,-13
1523180002007805,7,7,7,-19,1,0,1,20
1523180002007805,-10,7,4,5,-45,3,4,-8
1523180002020841,10,-6,-13,-22,30,-28,-18,4
1523180002020841,2,-11,4,23,9,-11,-7,2
1523180002028096,-45,-13,-16,-8,-9,3,-5,-50
1523180002028096,15,12,4,1,-21,3,7,27
1523180002043903,11,8,2,-5,-37,-20,2,0
1523180002043903,6,5,14,-12,52,-2,-3,11
1523180002045907,16,-9,-4,2,19,-19,-12,19
1523180002045907,-30,-5,-3,12,-56,5,7,-37
1523180002067056,7,3,0,-4,41,39,14,3
1523180002067056,0,-3,-5,-7,-10,-16,-11,8
1523180002067966,-2,-1,3,5,-17,5,-1,3
1523180002067966,2,-4,-4,14,49,1,3,-6
1523180002081238,7,2,4,-12,-60,-32,-9,7
1523180002081238,-4,-1,-3,0,-52,-7,-2,-4
1523180002088018,-1,1,0,-5,33,13,7,-1
1523180002088018,2,-3,-4,13,-8,0,-6,-2
1523180002104106,-2,-4,3,-16,7,-10,-10,-23
1523180002104106,-14,2,2,26,-29,-33,-3,-10
1523180002106066,15,0,3,16,6,16,5,23
1523180002106066,-9,-7,-12,-12,25,-17,-3,-9
1523180002127123,19,1,5,13,28,50,-14,23
1523180002127123,-25,-2,-3,-6,-36,-9,6,-44
1523180002128126,0,3,-6,-24,16,-3,-2,5
1523180002128126,-7,-6,0,1,-14,-10,-2,-3
1523180002141160,4,-4,-6,-4,74,9,0,1
1523180002141160,-2,-6,-11,-13,-95,-5,-15,4
1523180002147177,9,9,6,9,30,21,22,-6
1523180002147177,-8,0,8,-7,2,-2,-12,-20
1523180002164221,-9,-5,-9,-16,-6,-27,-3,15
1523180002164221,15,4,-7,-3,-16,-9,-2,13
1523180002166227,-13,-9,-5,0,-6,4,-2,-3
1523180002166227,-5,-2,0,-4,-66,-27,-8,-16
1523180002186285,3,-1,-2,-1,30,23,12,-27
1523180002186285,-2,3,2,-10,-27,-6,10,8
1523180002188285,10,2,4,9,5,9,1,14
1523180002188285,9,-2,-4,-7,-14,7,0,22
1523180002201554,-31,0,-1,-10,-53,-24,-7,-19
1523180002201554,21,2,3,20,63,32,0,12
1523180002209343,-5,-7,-13,-24,-20,-35,-8,-24
1523180002209343,5,-3,-3,-8,0,4,-1,24
1523180002224381,-1,-7,-13,-2,-38,-19,13,4
1523180002224381,1,0,5,14,-5,-13,-6,-4
1523180002225385,-3,-6,-5,-13,-59,-14,-10,2
1523180002225385,1,0,7,22,3,-8,-6,-14
1523180002246439,-27,-4,-8,-11,-1,-16,-11,-16
1523180002246439,8,1,-4,-2,23,-8,-4,11
1523180002248463,-2,2,8,14,-21,18,0,-16
1523180002248463,8,-1,1,-2,28,22,11,22
1523180002260478,11,2,-2,-7,10,-3,-2,5
1523180002260478,-19,-7,-8,5,10,-11,-8,-14
1523180002267731,6,2,8,15,41,13,2,2
1523180002267731,-7,-1,-3,-14,-3,1,2,-4
1523180002284560,-7,1,4,9,-45,-15,0,-13
1523180002284560,6,1,0,-9,36,8,-6,-1
1523180002285546,-5,-7,-9,-6,8,16,-2,20
1523180002285546,2,0,-8,-1,-40,-9,1,-6
1523180002306600,-5,1,8,2,63,7,3,-8
1523180002306600,7,0,2,-3,19,6,0,9
1523180002308604,-9,-4,-6,-11,-38,-29,-6,-8
1523180002308604,5,-2,-11,-22,-23,13,4,-1
1523180002320639,-5,-5,-7,14,8,6,6,15
1523180002320639,6,2,1,7,26,20,-11,5
1523180002327891,-4,3,6,6,-39,-9,-3,-13
1523180002327891,-8,-3,7,6,32,-7,2,-5
1523180002343738,25,-1,-1,-8,-18,11,-4,11
1523180002343738,-3,-1,-3,-7,9,3,2,-7
1523180002345710,-33,-2,-2,-1,-18,-8,-4,-20
1523180002345710,11,-3,-3,7,43,19,9,3
1523180002366996,13,12,10,1,26,10,-8,41
1523180002366996,-1,-7,-6,-12,-20,-15,-1,-6
1523180002367762,2,-2,-3,-4,-18,-22,-3,0
1523180002367762,-10,-5,-8,-9,-17,2,-1,-26
1523180002380797,3,0,2,19,26,0,-8,4
1523180002380797,4,3,-2,-22,6,26,13,10
1523180002388817,6,5,9,16,67,-7,-4,-1
1523180002388817,-5,-2,5,-11,-1,8,3,6
1523180002403904,-6,-3,-2,27,-44,13,11,-13
1523180002403904,-8,0,-2,17,-7,-15,-10,-10
1523180002405866,10,1,0,-7,-26,5,5,8
1523180002405866,10,2,4,-7,9,-4,-8,23
1523180002426949,-30,-14,-12,-19,72,5,-6,-27
1523180002426949,-11,-1,-2,-6,-22,-36,3,-8
1523180002427921,6,1,0,-1,5,23,0,17
1523180002427921,12,3,1,8,-22,-17,0,3
1523180002439954,0,-8,-8,-12,33,-18,-12,-3
1523180002439954,-9,-6,-2,-2,-62,0,1,-20
1523180002448979,14,8,2,12,-25,1,0,31
1523180002448979,-1,0,-1,-12,60,10,-6,-3
1523180002464019,14,0,6,20,-27,-8,-3,10
1523180002464019,-34,-4,-5,-5,41,-1,-12,-36
1523180002466022,-7,-7,-3,-9,-29,17,6,-9
1523180002466022,0,1,-9,-1,-13,5,5,0
1523180002486078,11,6,3,-6,5,-32,-7,8
1523180002486078,3,3,5,-2,87,22,21,8
1523180002488083,-2,-3,-4,-7,-8,-5,6,-9
1523180002488083,1,0,2,8,18,-10,-8,4
1523180002500350,-12,-10,-7,-7,-19,-5,4,-12
1523180002500350,14,1,0,-6,-45,19,-4,21
1523180002509138,-1,3,3,0,24,10,-4,-12
1523180002509138,-2,-2,-5,-3,-44,-24,-4,-6
1523180002524178,-5,3,4,-11,10,24,5,-24
1523180002524178,4,2,0,12,4,-18,1,19
1523180002525180,5,-7,-5,-14,24,-12,-6,18
1523180002525180,-13,-4,-5,9,-21,13,-2,-21
1523180002546277,-1,1,4,2,-11,13,6,-8
1523180002546277,12,1,3,3,6,6,-8,-10
1523180002548281,-17,1,-3,-3,22,16,5,24
1523180002548281,-3,-2,-1,-5,-27,-28,-2,0
1523180002560276,10,-1,-2,-2,-83,9,-2,29
1523180002560276,-13,-3,-4,-15,-38,-52,-10,-49
1523180002569303,2,-3,-8,-9,-32,-14,-1,-8
1523180002569303,-3,-1,1,2,5,-2,2,2
1523180002584573,-1,-3,-2,-3,19,-7,-8,2
1523180002584573,12,-4,-1,15,-30,4,-3,18
1523180002585341,-11,3,5,-8,-30,-15,-5,-23
1523180002585341,-3,-1,-2,-5,34,-4,-5,-7
1523180002606397,-10,-6,-2,3,-73,5,6,-14
1523180002606397,5,-4,-4,-11,31,0,2,29
1523180002608444,5,9,1,21,52,-4,-6,-6
1523180002608444,7,1,-2,-1,-47,21,6,4
1523180002620447,-12,1,0,-18,-36,-20,-4,-16
1523180002620447,-11,-5,2,18,-36,11,2,-17
1523180002629458,13,0,2,10,56,-2,-10,28
1523180002629458,-5,-3,-1,-1,-29,-23,-9,-7
1523180002643535,2,-1,4,0,48,26,4,2
1523180002643535,-4,-5,-5,-3,20,-3,0,2
1523180002645504,7,0,-3,-16,-4,-3,5,-7
1523180002645504,0,5,2,-5,68,9,-10,0
1523180002666792,-6,2,3,19,6,-14,5,-1
1523180002666792,-4,-1,-2,-9,8,-1,-5,-11
1523180002668562,9,-4,-1,9,18,-4,0,-1
1523180002668562,-13,1,2,-10,-49,-25,-5,0
1523180002680730,-3,-4,-8,-12,-29,-29,-3,-2
1523180002680730,8,0,2,-2,-2,5,5,15
1523180002688621,-5,-2,-7,3,8,13,-9,-1
1523180002688621,-21,-3,-2,-7,2,1,13,-28
1523180002703658,7,1,0,10,30,13,4,-3
1523180002703658,9,4,4,-5,-29,6,5,13
1523180002705661,0,-6,-3,-8,-56,-7,1,-1
1523180002705661,3,-2,1,-3,54,-3,-4,20
1523180002726755,-2,2,1,6,-81,21,5,-5
1523180002726755,-3,-5,-5,-9,51,-4,-9,-5
1523180002727718,1,0,-2,-1,2,-4,2,-16
1523180002727718,-2,-1,1,5,-27,-6,-1,1
1523180002739750,3,1,1,-8,6,2,-3,4
1523180002739750,-7,-1,-2,-1,50,-8,-5,-3
1523180002748775,-3,-2,2,15,0,25,-3,0
1523180002748775,-6,-1,3,11,36,19,2,-14
1523180002763821,13,4,-4,-11,-13,-33,-3,18
1523180002763821,30,1,-4,-8,-88,-21,-3,9
1523180002765820,-42,-2,9,-3,46,9,2,-7
1523180002765820,5,-3,0,13,-21,18,10,-9
1523180002786875,14,1,-1,0,43,0,-13,12
1523180002786875,-22,0,-3,-3,7,10,-1,-14
1523180002787881,14,-2,-4,-12,-40,-34,-9,-2
1523180002787881,-9,-4,0,-1,33,16,3,-21
1523180002808936,-6,-3,-8,-8,-23,-20,-14,9
1523180002808936,11,6,15,21,-1,18,37,24
1523180002810940,6,3,0,-13,-3,3,-13,-12
1523180002810940,-8,-5,-7,-6,-7,-16,-1,4
1523180002823975,3,2,2,13,3,10,0,-16
1523180002823975,-1,-9,-10,-6,60,-7,-11,-12
1523180002825981,-7,-5,0,6,-14,3,5,14
1523180002825981,7,2,0,2,-10,-2,0,-3
1523180002846034,2,-4,-4,-19,31,10,12,5
1523180002846034,-11,-6,-2,-3,-44,3,-3,-8
1523180002848039,-15,2,4,15,28,-3,5,-12
1523180002848039,16,2,1,-17,2,54,4,26
1523180002869103,-7,-2,-6,-5,23,-12,-3,-2
1523180002869103,-13,1,2,9,-7,-14,-9,-26
1523180002870099,23,1,-5,-16,-46,3,8,24
1523180002870099,6,-3,-2,7,100,-16,-5,19
1523180002884372,-14,-3,5,1,-44,11,17,-21
1523180002884372,1,3,-4,-13,-18,-2,-8,5
1523180002885138,-5,-3,-12,-10,3,3,6,-26
1523180002885138,-3,-1,3,3,-4,-17,-7,0
1523180002906192,29,-3,-4,0,-33,-9,-6,30
1523180002906192,-50,-1,-2,-10,3,-35,-16,-59
1523180002908200,8,3,6,6,20,-16,-4,0
1523180002908200,4,-4,-6,-4,-28,13,-1,2
1523180002929489,3,2,3,6,15,-8,-2,18
1523180002929489,12,2,2,0,-2,25,0,20
1523180002931258,-2,0,-4,5,-7,-4,-3,-1
1523180002931258,-6,-1,-1,-7,-28,-24,0,-17
1523180002943292,-12,-7,2,14,-4,-19,-6,-12
1523180002943292,11,-4,-5,-1,-34,11,-5,23
1523180002950310,-4,-3,-3,-5,21,17,1,-17
1523180002950310,-5,0,0,6,-43,-22,-7,5
1523180002966353,-7,-1,1,-1,39,12,2,-5
1523180002966353,7,-7,-12,-12,-77,28,6,3
1523180002968361,7,0,-2,-4,22,-2,-10,-22
1523180002968361,-2,4,4,6,-12,7,15,26
1523180002988413,11,11,10,-12,-38,-8,-5,6
1523180002988413,4,-2,-3,2,-11,-15,-5,14
1523180002990418,-31,-7,-1,-19,0,5,-2,-32
1523180002990418,13,4,-4,1,16,-10,1,4
1523180003003452,-15,0,-6,-11,-20,29,-7,-16
1523180003003452,-1,-4,5,31,14,8,17,3
1523180003010469,19,2,1,-3,-39,-13,5,13
1523180003010469,-18,0,1,-6,31,11,-8,-7
1523180003026751,-8,-6,-3,4,53,-10,-5,-6
1523180003026751,9,3,6,-3,31,18,11,11
1523180003028518,5,-1,-7,1,-1,10,-12,5
1523180003028518,-6,-3,-5,0,-33,-19,3,0
1523180003048612,3,-1,1,-3,-9,-5,-1,-15
1523180003048612,-11,-2,-1,1,-1,-22,-7,-11
1523180003050577,-1,-5,-5,7,33,-6,1,13
1523180003050577,11,-1,1,-14,-38,-1,-6,-11
1523180003063612,-12,-4,-5,-2,2,2,5,-5
1523180003063612,2,10,5,0,-2,-16,-3,3
1523180003077884,-2,-3,0,-19,-26,-6,-1,2
1523180003077884,6,-5,-2,10,-13,19,1,20
1523180003086677,-7,-2,-1,0,1,-9,2,-36
1523180003086677,2,0,3,1,-39,-10,-5,9
1523180003087675,1,-1,-2,16,69,26,8,4
1523180003087675,-3,1,-7,-16,-35,-1,-4,-6
1523180003108772,-12,1,1,3,8,-10,-3,-4
1523180003108772,13,-7,-4,-9,5,7,3,17
1523180003110738,-2,2,-2,-11,-11,-9,-3,-8
1523180003110738,7,-5,-6,-4,-10,-6,-1,10
1523180003122770,-4,6,0,-3,-4,13,5,-1
1523180003122770,-10,-1,-5,-2,20,3,-15,-11
1523180003130790,6,-4,6,16,-12,-6,5,7
1523180003130790,9,-6,-1,2,47,12,-1,-4
1523180003147058,2,5,1,8,2,17,0,17
1523180003147058,-18,0,0,-4,12,-4,-4,-37
1523180003147836,-1,-2,4,5,-23,-6,1,14
1523180003147836,-6,0,0,6,6,-5,0,-20
1523180003168900,6,-7,-8,-13,-5,-6,-5,21
1523180003168900,17,5,6,15,36,18,8,0
1523180003170897,-4,3,-3,-11,-44,2,3,6
1523180003170897,-3,2,3,1,-13,-11,-3,-3
1523180003183932,3,-2,7,3,6,-12,-8,-8
1523180003183932,-6,-8,-13,-16,-26,-21,-3,-5
1523180003189948,-2,-1,-2,9,33,12,7,-2
1523180003189948,5,4,4,-1,4,-1,0,-8
1523180003205990,5,-1,0,2,-26,-11,0,5
1523180003205990,-19,-2,-7,-17,51,-11,-7,-13
1523180003207996,11,2,9,29,-27,-13,-4,12
1523180003207996,-1,1,3,10,63,34,3,5
1523180003229106,-6,-3,-2,-6,-3,-13,-4,-5
1523180003229106,0,-3,-3,-9,-44,0,-7,-3
1523180003231055,-2,-4,-5,-9,44,5,-3,-9
1523180003231055,6,1,0,-8,-15,-13,2,29
1523180003243143,-1,-2,-2,-1,-15,-20,-9,-9
1523180003243143,-4,-1,4,-2,-25,-9,17,-5
1523180003250109,-11,-4,-3,-4,-20,-1,-7,0
1523180003250109,10,2,-4,-2,-2,-7,1,-1
1523180003266385,-7,-4,-4,1,-17,-1,-4,-1
1523180003266385,-5,-3,0,13,21,-5,-9,-5
1523180003268157,7,8,13,15,14,76,15,5
1523180003268157,8,-1,-6,-5,-27,-20,-7,8
1523180003289212,-8,1,-4,-8,35,22,2,6
1523180003289212,-14,0,2,6,37,-15,2,-10
1523180003290214,-5,-4,0,4,-57,-30,-14,-4
1523180003290214,11,-3,-8,-6,-42,-19,-6,8
1523180003302253,-9,0,2,-2,25,14,1,-12
1523180003302253,12,-9,-5,-8,15,2,5,-4
1523180003311270,-3,1,-10,-10,16,-18,1,-3
1523180003311270,-5,2,6,7,-2,-8,-9,-1
1523180003326545,0,-1,-1,-11,-12,-4,9,-5
1523180003326545,5,1,1,-11,-5,-1,-9,15
1523180003328315,-1,-6,-9,-9,-73,-44,-18,-9
1523180003328315,-28,-6,-1,0,-19,19,5,-22
1523180003349371,9,2,2,9,4,-13,-6,17
1523180003349371,-2,0,-3,2,29,13,-11,0
1523180003350374,16,1,0,-17,-17,-30,-5,13
1523180003350374,-3,-3,-2,-3,10,0,-2,0
1523180003362445,-13,-7,-10,-5,8,3,-2,-10
1523180003362445,5,7,8,8,7,-3,-2,-19
1523180003371430,-26,-9,0,0,15,3,-4,-1
1523180003371430,12,4,-3,-2,-17,5,-2,13
1523180003386471,7,-1,-5,1,34,-13,0,7
1523180003386471,6,4,-1,-4,-27,-18,-2,12
1523180003388475,-2,0,3,4,30,14,3,-1
1523180003388475,-10,-4,0,-6,26,11,-2,-18
1523180003408575,1,-1,-1,13,-8,-3,14,10
1523180003408575,5,3,-2,8,-5,10,2,14
1523180003410535,-21,1,5,-4,10,-10,2,-29
1523180003410535,2,-3,-5,-2,-34,-9,2,5
1523180003422567,16,4,3,7,4,7,-2,8
1523180003422567,-11,-6,-3,-9,2,12,6,-15
1523180003431590,10,2,2,18,32,38,8,13
1523180003431590,2,0,-3,-5,10,-8,-10,-13
1523180003446865,-13,-2,6,4,-44,-18,12,-14
1523180003446865,0,-4,-5,-8,9,64,2,14
1523180003447674,14,-1,-9,3,26,-21,-12,9
1523180003447674,-15,-2,7,3,11,13,5,-15
1523180003468691,17,3,0,-3,-2,-6,-5,12
1523180003468691,2,2,0,-3,4,-15,-3,8
1523180003470694,-4,0,4,4,-51,-6,4,-8
1523180003470694,0,-1,-4,-7,33,-2,-1,-4
1523180003482961,1,0,6,2,0,-4,-7,17
1523180003482961,-3,-3,-4,-1,27,11,8,3
1523180003491750,0,-4,-7,-13,-26,8,-9,0
1523180003491750,9,-2,2,2,-4,-23,0,-2
1523180003506790,-20,-6,-5,-13,-16,-11,-5,-26
1523180003506790,-1,0,0,16,7,-15,-4,3
1523180003507792,7,2,3,-1,4,0,3,10
1523180003507792,-3,-3,-2,-8,87,35,1,1
1523180003529083,8,-1,-1,11,-14,-28,-10,-2
1523180003529083,4,0,-2,-8,-26,-3,3,9
1523180003531082,-7,-4,-2,-5,-6,-3,-3,-8
1523180003531082,-8,-1,-3,2,-16,-28,-12,3
1523180003542934,-5,-4,-6,-8,20,11,10,-10
1523180003542934,20,3,4,5,18,-2,-2,18
1523180003551912,-19,-3,1,0,-59,-4,7,-31
1523180003551912,4,0,1,3,-19,0,-6,1
1523180003567032,-7,3,-1,-9,11,-8,-8,-5
1523180003567032,-1,-3,-2,1,-52,-9,5,7
1523180003567954,1,0,-1,-8,3,-5,0,-6
1523180003567954,-1,-1,-1,4,8,-12,-1,-4
1523180003589009,2,-2,-4,-19,-94,14,-1,2
1523180003589009,-11,0,0,2,37,-3,-2,-23
1523180003591013,12,3,-3,-10,4,5,0,12
1523180003591013,-9,0,1,-2,-42,-9,4,2
1523180003603045,21,-4,-4,0,42,11,-7,32
1523180003603045,-19,-3,1,-7,-52,0,-3,-46
1523180003612069,-29,-10,-9,-4,-2,-21,-14,-4
1523180003612069,14,7,1,7,26,38,8,12
1523180003627109,6,-1,-4,2,6,-3,-1,7
1523180003627109,-8,-6,-3,-5,29,-2,-6,4
1523180003628112,12,2,4,6,5,7,-2,0
1523180003628112,-9,1,2,8,28,10,5,4
1523180003650232,-1,0,-2,2,-33,-8,5,-8
1523180003650232,14,-2,-3,-4,22,-2,-14,6
1523180003651175,-10,1,-6,-23,-11,-8,-2,-1
1523180003651175,-13,-4,2,15,10,13,2,-22
1523180003662203,-7,-2,0,-4,-46,18,10,-30
1523180003662203,1,0,-1,6,57,4,-4,32
1523180003671226,1,-5,-5,-7,14,-11,-5,-5
1523180003671226,6,-3,-2,-15,-46,-7,-1,8
1523180003694330,-5,2,3,22,67,15,17,-3
1523180003694330,14,4,0,-3,-100,-20,3,10
1523180003696293,7,-1,-5,3,36,19,11,6
1523180003696293,-9,0,6,-5,-17,-12,2,-4
1523180003709326,-4,-5,-1,-6,31,7,-11,-5
1523180003709326,-8,-4,-7,-1,-3,17,6,-12
1523180003710331,15,-1,-4,8,7,10,4,2
1523180003710331,-4,0,-3,-9,-16,-14,-1,-19
1523180003731386,-1,0,0,6,51,-15,2,16
1523180003731386,-12,-5,2,-6,11,-3,-19,-16
1523180003731386,10,3,3,-8,-69,-25,-2,5
1523180003731386,-4,-8,-10,-7,14,-13,-9,-2
1523180003745423,-11,-3,-5,-10,41,21,6,-12
1523180003745423,13,3,2,16,13,20,7,15
1523180003746426,-3,1,3,2,19,-6,-2,6
1523180003746426,5,2,4,3,-50,-28,-8,9
1523180003768491,-14,-4,-1,-6,-6,-8,-6,-20
1523180003768491,-2,-8,-13,-13,-47,-25,-2,5
1523180003768491,10,1,2,4,-9,46,12,0
1523180003768491,-13,3,7,21,38,10,3,-10
1523180003790545,8,1,0,-3,-7,-7,-2,0
1523180003790545,-6,-4,-2,-3,6,-15,3,4
1523180003791546,-4,1,-5,-9,28,-2,-8,-3
1523180003791546,6,3,5,-3,-40,1,-5,9
1523180003805583,-2,-4,-4,-3,-17,-1,10,1
1523180003805583,-1,1,8,-1,-12,-17,-2,-17
1523180003806587,-8,1,-4,2,32,7,3,18
1523180003806587,1,0,-4,-12,-16,3,-4,-5
1523180003828703,1,1,-1,-4,-7,5,-7,15
1523180003828703,11,0,7,-7,-8,-6,1,4
1523180003828703,-8,1,-2,11,51,11,2,-35
1523180003828703,-20,-1,1,3,-56,-36,-8,-17
1523180003850794,2,-1,-3,-6,-35,-16,-10,-5
1523180003850794,1,0,-2,-3,57,4,2,10
1523180003851709,12,0,5,-1,-4,-2,-2,10
1523180003851709,3,-2,-5,3,11,-9,1,8
1523180003865979,3,2,3,-13,34,23,-12,-2
1523180003865979,7,8,7,10,-74,31,15,2
1523180003866746,1,-3,-1,-9,24,-13,-6,1
1523180003866746,-15,-5,-1,9,-41,-24,-4,-12
1523180003887802,10,-7,-5,0,6,2,1,15
1523180003887802,-18,4,1,-4,-40,7,-1,-31
1523180003888805,0,0,-4,2,53,-13,-18,16
1523180003888805,12,4,-1,-5,-7,12,16,0
1523180003910864,3,-1,2,4,-32,-9,-5,3
1523180003910864,-14,-5,-5,-3,-8,-21,-4,-6
1523180003911866,-6,-1,4,14,-53,-20,6,-1
1523180003911866,10,-1,0,3,68,-2,-15,3
1523180003926139,-6,3,-1,1,36,-12,1,8
1523180003926139,2,0,-3,-6,53,24,4,0
1523180003927119,6,-7,-3,11,-40,-7,9,8
1523180003927119,-9,2,-1,-21,14,4,-2,-3
1523180003948004,20,0,-1,4,6,-1,1,6
1523180003948004,-27,-1,-1,-6,-9,6,2,-25
1523180003948965,0,-2,-1,1,53,-3,-4,8
1523180003948965,9,-2,-3,4,-30,21,5,-4
1523180003980046,-14,-2,-1,-1,-25,-3,-5,-14
1523180003980046,12,-7,-7,-7,-2,-30,-7,14
1523180003980046,2,4,2,-7,-51,3,0,3
1523180003980046,1,4,3,3,-10,-4,6,-8
1523180003986067,-7,0,4,-1,54,-16,-10,-6
1523180003986067,-5,-7,-7,2,-11,-4,-8,4
1523180003986067,-11,-6,0,-17,-30,-7,-4,-25
1523180003986067,7,0,-3,4,27,19,5,20
1523180004008123,3,-1,-3,1,-36,-1,-1,-3
1523180004008123,-3,-2,-3,-4,6,-19,-3,-9
1523180004009126,30,-1,-5,-1,-11,-14,-7,25
1523180004009126,-66,-6,2,-3,-3,11,-3,-58
1523180004031330,-1,-1,1,7,9,34,1,-5
1523180004031330,11,-3,-7,-12,-29,-6,4,-3
1523180004031330,-15,0,1,22,72,20,4,-6
1523180004031330,20,-2,-1,-7,-94,-31,-7,17
1523180004046331,6,5,6,6,73,10,5,11
1523180004046331,-8,-1,-2,0,-10,-2,-13,-5
1523180004046331,6,0,5,2,11,-7,1,5
1523180004046331,-4,-5,-6,0,48,-2,-4,-8
1523180004068284,-11,2,-1,-2,-1,-25,-1,-4
1523180004068284,12,1,1,0,-25,4,-1,15
1523180004069288,-5,-3,-5,-8,-8,4,-1,-13
1523180004069288,3,-6,-10,8,52,14,4,9
1523180004090379,23,3,3,-13,-96,-38,-18,28
1523180004090379,-27,-3,2,16,15,22,12,-39
1523180004091344,-19,3,5,6,-20,3,4,0
1523180004091344,22,-1,-4,-7,-9,-16,-1,11
1523180004105442,-14,-2,-6,-6,-1,4,-1,-10
1523180004105442,4,4,6,4,-3,20,-5,3
1523180004106384,-8,-6,-8,-9,32,-14,1,-10
1523180004106384,1,-5,-6,-9,-27,-18,2,-12
1523180004128677,4,1,0,3,48,24,5,9
1523180004128677,12,4,9,8,47,-5,-4,23
1523180004129444,-18,-5,-2,-9,-40,-5,0,-35
1523180004129444,8,2,-2,2,33,1,1,23
1523180004150501,-15,-5,-7,-9,-70,-2,-5,-15
1523180004150501,-4,-3,-1,-4,3,6,5,-3
1523180004151504,13,0,-4,-11,-25,-6,-8,8
1523180004151504,-23,-1,1,2,-24,-16,-6,-12
1523180004165778,1,-1,2,3,-11,9,-1,-22
1523180004165778,12,-1,0,-1,-28,-25,-12,34
1523180004166543,4,3,0,-1,-15,6,7,9
1523180004166543,5,-4,-5,-7,-29,2,-13,-4
1523180004188635,-5,-1,-3,3,16,-5,4,-7
1523180004188635,-3,1,0,5,26,5,6,-9
1523180004188635,-3,1,-3,-4,-16,-7,-7,-7
1523180004188635,9,1,2,-2,31,39,1,19
1523180004210662,-11,-7,3,10,-11,-10,13,-9
1523180004210662,-7,-3,3,3,25,-2,-4,-18
1523180004211666,-4,-4,-10,-7,-12,3,2,2
1523180004211666,16,8,1,-4,23,4,8,14
1523180004225938,1,0,1,-4,-49,-3,0,18
1523180004225938,-4,-6,-7,-13,24,-2,-9,-32
1523180004226703,-17,4,6,19,-22,-1,10,-33
1523180004226703,6,-2,0,9,5,6,5,39
1523180004247800,5,0,-4,0,10,-2,3,-2
1523180004247800,4,2,4,2,-13,-12,-5,9
1523180004248762,5,-13,-10,-12,30,12,-8,1
1523180004248762,-24,-8,-7,1,22,4,1,-37
1523180004270821,-3,0,-3,-10,-84,-26,-8,-3
1523180004270821,2,5,3,2,29,1,-3,7
1523180004271823,0,1,-2,-2,-20,-21,3,6
1523180004271823,10,-3,-4,-9,63,11,-2,17
1523180004285905,-14,-7,-3,-12,51,0,-8,-21
1523180004285905,-3,5,2,10,-47,-16,-5,1
1523180004286864,15,3,9,9,14,3,6,17
1523180004286864,1,0,0,-1,1,-8,-1,15
1523180004307919,-15,-4,-3,-4,36,13,-3,-23
1523180004307919,3,-5,-6,-13,-8,-23,1,7
1523180004308921,5,6,12,9,-19,10,4,-2
1523180004308921,-6,-2,-5,-5,-13,1,2,11
1523180004331215,8,0,1,4,-1,12,1,5
1523180004331215,-5,-3,-6,-7,31,13,3,-9
1523180004331983,3,-2,-4,-4,-24,-10,-18,4
1523180004331983,7,0,9,-1,-4,9,4,-22
1523180004345018,-21,-7,-10,-10,-73,-15,-5,-6
1523180004345018,4,-4,-6,-1,49,11,9,15
1523180004353038,-7,-4,-1,-11,22,-3,-10,-10
1523180004353038,0,1,2,2,-35,-20,3,-12
1523180004368086,1,4,4,6,52,8,0,11
1523180004368086,8,0,0,-1,-31,-5,-4,8
1523180004369084,-18,-2,-5,-7,1,20,9,-5
1523180004369084,4,-1,3,1,4,-9,-5,1
1523180004391160,1,-4,3,2,-4,7,-3,-14
1523180004391160,-2,-3,-10,-7,11,17,6,0
1523180004391160,-2,1,-1,-4,-9,-12,1,-9
1523180004391160,19,2,1,16,4,3,-5,24
1523180004405179,-16,-3,-4,-3,-2,-2,7,-22
1523180004405179,-1,3,7,17,-27,-19,-4,3
1523180004413200,26,1,1,1,34,6,1,29
1523180004413200,-34,-3,-1,-4,-12,-1,-1,-41
1523180004428476,11,3,-1,2,-5,-8,-1,8
1523180004428476,-3,1,-1,-8,20,2,-8,-4
1523180004429241,-2,-3,-4,-5,-28,13,4,0
1523180004429241,5,0,2,-2,-35,-8,-1,5
1523180004451303,11,2,2,5,20,8,-1,17
1523180004451303,-2,-1,1,4,6,-3,-1,-1
1523180004451303,-5,1,-3,-7,5,18,-6,-5
1523180004451303,-5,-5,-1,-3,30,8,3,-5
1523180004465572,-1,-1,-6,-17,-17,7,-1,-15
1523180004465572,2,0,-7,-9,0,6,0,-8
