timestamp,emg1,emg2,emg3,emg4,emg5,emg6,emg7,emg8
51544299737,18,23,-19,-8,1,-2,6,27
51544299737,-34,-12,-28,31,0,1,-8,22
51544300247,41,5,-1,-2,2,-1,-8,5
51544300247,7,4,-10,-9,3,3,-3,37
51544301076,-39,-14,1,-19,-6,-3,1,-77
51544301076,26,12,0,-27,3,0,8,11
51544301862,27,-5,-5,12,-9,-2,10,24
51544301862,-25,1,4,-1,-2,-4,-30,-48
51544307856,-4,-14,4,3,3,2,4,27
51544307856,8,5,-1,-12,0,-2,8,2
51544322029,-7,2,20,-1,1,-1,-2,-15
51544322029,2,8,18,6,-6,-2,13,7
51544327657,10,-31,-8,-5,-3,1,14,0
51544327657,43,21,-5,-28,1,0,-21,-29
51544343257,-26,-6,-30,25,-6,-3,-27,12
51544343257,-63,-3,36,7,-2,-2,-2,1
51544351339,-3,4,2,8,1,-4,-1,12
51544351339,-50,-9,-4,-1,-8,-9,-2,-15
51544358269,14,7,18,-19,10,4,12,-1
51544358269,21,1,-5,-9,9,2,-12,-11
51544372736,3,1,34,38,-13,2,9,44
51544372736,21,-7,2,13,25,-7,-33,-28
51544381274,-36,-6,32,-11,-31,-6,11,-2
51544381274,-19,-28,7,3,0,-4,-3,-16
51544420781,4,1,10,15,10,6,10,-9
51544420781,-33,-16,-13,-11,-1,2,-1,8
51544421674,18,2,8,-4,6,2,-5,2
51544421674,26,-8,-33,-38,1,1,-18,7
51544422545,-17,-6,-4,15,-8,-8,-30,-46
51544422545,-27,21,7,14,-1,-1,-2,9
51544425519,71,5,-2,-27,-3,-4,6,-4
51544425519,-69,-9,-3,-13,9,-1,2,7
51544432462,20,-2,2,15,-10,-4,-2,28
51544432462,11,1,1,-2,1,3,-4,-17
51544440461,12,-14,27,13,3,6,6,-17
51544440461,79,16,-17,11,10,-3,7,17
51544447516,-48,-9,22,-5,-21,1,18,14
51544447516,4,10,2,9,21,-3,-18,2
51544463029,25,-19,6,-7,-30,-5,20,-19
51544463029,-35,-8,20,-4,-11,-2,-10,-13
51544469781,-15,-18,2,10,6,-3,1,6
51544469781,48,7,-5,-18,-6,-1,0,-11
51544477422,-71,-13,-7,7,12,1,-13,19
51544477422,3,9,-1,5,-4,-1,8,-8
51544492280,13,8,7,-15,2,2,-16,-16
51544492280,3,-9,7,-1,-1,0,9,10
51544500440,-60,19,-3,36,3,-2,8,22
51544500440,34,-4,-12,-1,-6,-2,-1,-3
51544507231,-54,7,-6,-12,6,0,7,-1
51544507231,-7,6,19,-18,-2,-1,-16,-15
51544522922,-8,-21,31,44,3,0,-2,14
51544522922,18,4,16,14,-1,1,-2,-3
51544529783,21,11,1,-16,1,-2,4,6
51544529783,30,0,-3,-17,5,4,12,-19
51544537466,4,20,-24,-15,-6,-2,-17,-8
51544537466,8,-17,39,11,7,-3,8,28
51544552311,7,5,-11,0,6,-4,-13,-20
51544552311,-42,-25,-6,1,-10,3,15,19
51544560523,69,31,0,-26,18,0,-2,-47
51544560523,9,6,-5,-6,-27,-3,-28,-12
51544567364,20,5,-6,-32,-1,0,16,21
51544567364,-3,-13,-12,-12,7,-5,5,35
51544583121,-31,-3,-19,38,-14,-4,6,-40
51544583121,43,12,14,3,20,8,11,-2
51544589778,-38,-15,-37,-22,-17,-11,-49,21
51544589778,1,12,8,-8,-6,-4,9,-17
51544604750,-18,0,-11,-49,5,1,-7,16
51544604750,36,0,0,-41,5,-5,8,5
51544612251,-46,-9,6,102,-16,-4,-16,-19
51544612251,-23,-13,-4,21,-3,-6,1,-6
51544621268,44,1,-15,-76,3,-2,-8,26
51544621268,-64,-32,-18,12,-3,3,19,-18
51544627255,28,0,16,-40,33,10,29,-4
51544627255,-22,-8,-63,35,-22,-9,4,46
51544643736,-60,-22,-8,56,4,-7,-14,-14
51544643736,-36,-16,5,23,-44,-10,-11,-13
51544649727,53,12,-2,-63,30,17,55,31
51544649727,-1,7,13,30,-5,5,-23,-5
51544664767,-12,1,-29,-30,0,0,19,-65
51544664767,71,2,5,30,-1,8,-10,-41
51544672249,-80,-3,-16,-83,7,-4,-17,0
51544672249,39,1,20,44,-12,-12,-4,18
51544681222,-17,1,-12,-21,-8,-10,-6,33
51544681222,-13,5,16,21,4,-7,-10,-30
51544687280,101,-3,-14,4,-21,2,25,32
51544687280,4,24,17,-36,29,7,16,-22
51544703756,33,-11,-24,20,-17,-18,-32,15
51544703756,-97,6,29,1,8,2,13,1
51544709906,64,-13,-45,16,-13,0,-33,-31
51544709906,-41,-21,-22,-28,-10,2,12,0
51544724886,10,3,53,20,14,13,21,29
51544724886,13,26,-17,-56,10,1,13,13
51544732414,-33,-5,-2,53,-7,-9,-18,8
51544732414,-26,-1,8,-14,-9,-6,-7,-57
51544741221,23,-6,10,-36,4,1,-2,-1
51544741221,-2,6,-32,-35,-7,-5,1,10
51544747464,-41,18,35,42,-18,2,18,7
51544747464,59,8,5,1,34,14,-22,4
51544763717,-35,-18,-17,-31,0,2,-1,-2
51544763717,6,5,4,-9,4,-2,-6,19
51544769780,-47,-16,15,18,-1,-2,-9,-8
51544769780,56,14,-2,-22,-4,-3,5,8
51544784720,-31,1,-5,25,5,5,10,5
51544784720,-10,-21,2,17,-1,-2,-20,-7
51544792227,27,1,13,8,5,-3,-6,20
51544792227,-2,-3,8,1,-7,-5,-11,-6
51544801253,23,6,29,14,-1,5,24,45
51544801253,-31,0,5,14,-2,-2,-8,-7
51544807354,3,3,-4,-15,2,-1,1,-40
51544807354,-22,-13,-9,-17,-3,-1,5,19
51544823746,5,19,6,-55,3,2,-15,-29
51544823746,-1,11,-66,93,-17,-6,2,-2
51544830013,78,-7,39,-3,2,2,-3,35
51544830013,-7,8,2,10,-4,1,-2,-41
51544844923,-80,-4,-21,1,-7,-4,-10,-4
51544844923,17,15,14,-41,15,3,-2,3
51544852416,-19,-18,19,0,-1,-4,-1,-37
51544852416,7,-17,-69,8,-7,-6,-1,17
51544861263,23,11,59,-2,-4,1,9,15
51544861263,6,-5,-78,-38,3,1,7,24
51544867502,18,9,7,17,-1,-3,1,-23
51544867502,-5,-5,34,1,4,4,2,7
51544883823,6,1,-7,-13,-3,-2,-11,-4
51544883823,-18,-13,15,26,-2,1,3,3
51544889722,4,1,-19,-12,5,1,-3,11
51544889722,75,19,-4,-14,-2,-4,3,-10
51544904939,-72,-15,-20,26,-4,-2,-13,-9
51544904939,15,-4,35,-15,3,0,-10,9
51544912440,-19,-3,-20,-17,-7,-3,1,-1
51544912440,-13,7,20,10,-2,-2,-6,13
51544921267,49,-16,6,6,0,-2,3,2
51544921267,-32,-3,10,15,0,-4,2,-26
51544927359,-9,6,-9,-1,1,-3,-5,-2
51544927359,-46,-7,-1,-3,-4,-1,-3,-5
51544943775,53,-7,11,9,2,2,6,34
51544943775,4,1,5,-5,2,3,-2,-17
51544949840,-5,-7,2,7,1,-5,-4,-5
51544949840,-13,16,9,5,1,1,11,1
51544964928,41,3,-32,-1,-1,-1,-1,2
51544964928,-32,-11,38,3,1,0,3,17
51544972437,44,21,2,2,1,-1,-12,-26
51544972437,-42,-24,-15,-17,-4,-4,2,7
51544981214,25,-4,-16,9,-8,-2,-6,-5
51544981214,12,-8,-19,-23,2,0,-10,-3
51544987432,36,7,-6,-8,-4,1,17,0
51544987432,-73,-7,2,-3,-2,-3,-13,-5
51545003819,-27,11,-4,2,1,1,-1,-11
51545003819,22,-17,30,43,-4,-4,0,-3
51545009813,-18,-20,-60,-9,0,1,7,19
51545009813,31,7,14,2,-2,1,0,2
51545033087,-19,14,3,5,-4,-6,5,-8
51545033087,49,18,-29,-24,-1,-1,0,-10
51545033705,-34,-14,34,11,-2,-5,-7,-4
51545033705,55,-3,9,-6,-5,-2,-9,-16
51545041269,-45,-17,-21,3,-1,-3,10,12
51545041269,66,12,26,1,10,4,8,23
51545047402,-26,4,-5,-23,-6,-6,5,-1
51545047402,35,7,-14,-24,-7,-3,14,11
51545063776,20,-24,25,9,2,-2,-19,-27
51545063776,-28,7,-15,0,-1,0,4,-1
51545069972,27,7,15,8,6,7,12,25
51545069972,-59,-11,-9,13,5,2,-3,-21
51545084954,12,16,0,-5,-5,0,-1,3
51545084954,-26,16,18,1,-2,-2,4,10
51545092429,-5,-19,-30,-16,0,2,25,2
51545092429,5,0,16,15,0,-3,-21,0
51545101226,17,0,-4,1,-2,0,-7,-1
51545101226,-40,0,3,-6,-2,-3,-11,-16
51545114827,-14,8,14,-2,-1,-1,-1,-9
51545114827,35,15,-1,3,-1,0,9,3
51545123741,-9,-1,5,6,2,-4,12,11
51545123741,39,12,4,0,0,0,-11,1
51545129775,-18,-2,-17,-9,-4,-4,-4,-4
51545129775,27,-15,4,-5,-1,-1,-22,13
51545144912,-44,-1,-1,-3,-2,-3,-7,-14
51545144912,1,5,-9,-2,-1,-1,21,8
51545152374,-9,0,11,7,-2,-1,-14,-15
51545152374,-60,-4,31,3,-1,-2,48,-3
51545161262,84,5,-16,-5,0,-3,-7,17
51545161262,-27,-5,-10,-10,-1,-4,-26,-35
51545174886,8,21,-11,4,1,-1,-14,-17
51545174886,17,11,-4,-3,2,0,10,24
51545183678,45,-2,6,1,-1,3,17,-19
51545183678,-74,-16,26,-4,-6,-4,-8,13
51545189869,16,-4,-20,-5,-1,-3,-9,0
51545189869,54,6,20,9,5,2,-14,-19
51545204862,-13,1,-6,1,0,-1,-2,5
51545204862,2,-1,7,-4,-2,-1,-6,-7
51545212314,-17,-7,7,0,0,-1,-2,15
51545212314,3,-7,-18,-2,-1,-1,-4,-29
51545221228,-11,-2,-1,4,1,5,29,-6
51545221228,1,-14,-13,-6,-1,-3,-26,30
51545234886,15,-1,16,8,3,0,0,15
51545234886,12,-8,-31,-9,-3,-2,-12,-7
51545243816,-29,-2,7,1,-1,2,-14,-3
51545243816,-4,9,-6,4,0,1,29,-15
51545249809,8,0,-8,-8,-11,-1,-1,10
51545249809,-20,-7,4,3,1,1,-3,9
51545264748,-49,-7,-6,-14,-6,-6,-51,-62
51545264748,5,-12,-5,3,0,3,19,16
51545272397,-2,6,9,4,3,-1,13,34
51545272397,24,5,5,8,3,1,-7,-5
51545282658,12,8,2,2,-1,2,36,21
51545282658,-46,-29,-14,-12,-1,-3,-21,-20
51545294888,72,6,29,22,7,3,1,-16
51545294888,-20,-5,17,-17,-7,-5,7,29
51545303771,34,3,-10,7,2,-2,-9,-16
51545303771,2,-13,-19,-23,-5,-4,4,2
51545309753,22,5,5,1,-5,0,-6,-15
51545309753,-42,8,9,1,2,-3,1,16
51545324854,-40,0,18,8,2,-3,-18,-7
51545324854,22,-6,-24,-5,-13,-5,1,-1
51545332369,-32,-7,-2,5,2,11,-2,-17
51545332369,-2,7,-17,-5,9,7,-2,-2
51545341297,3,9,-6,-10,-4,-3,8,-10
51545341297,-15,-2,-19,4,9,2,5,23
51545354773,-74,-3,-4,-13,-14,-11,2,14
51545354773,35,-5,-14,0,-11,-5,-5,-26
51545363772,-27,-10,-6,-2,0,-2,1,17
51545363772,23,14,19,6,-4,-4,5,5
51545378066,-31,-36,15,0,6,6,-22,-21
51545378066,24,4,6,3,0,0,9,2
51545384771,-17,0,4,1,-1,-1,1,-7
51545384771,62,-4,4,3,3,0,-12,-2
51545392366,-19,4,-11,-5,2,-3,0,-5
51545392366,-52,-16,-9,3,0,-3,-1,10
51545407336,-14,-1,0,-5,-2,2,2,35
51545407336,24,23,9,8,5,3,3,-13
51545414864,-45,-7,-18,-11,0,-5,11,2
51545414864,63,-3,-3,1,-5,-4,-23,-13
51545430423,-2,3,-4,-8,-4,-3,10,6
51545430423,-17,-7,0,0,2,4,-5,7
51545431335,64,12,-2,4,2,-1,1,-18
51545431335,-4,-9,-15,1,-3,2,10,14
51545444778,23,2,-3,-3,-1,-2,-11,-4
51545444778,21,13,10,3,2,0,9,-15
51545452346,-12,-3,-3,-2,-5,-3,-21,-14
51545452346,-41,0,-2,-3,-2,0,20,20
51545467344,92,-3,-7,1,-1,-1,-1,21
51545467344,-32,-15,13,1,-2,-1,2,-9
51545474895,-4,23,-7,-3,4,4,-10,5
51545474895,6,11,-4,-4,-3,-3,-6,-11
51545490499,42,-5,1,-1,-1,-1,0,4
51545490499,-24,-5,-4,-1,-1,-4,-6,-26
51545491227,-25,-7,5,1,-6,-2,-9,15
51545491227,74,9,7,5,0,2,10,7
51545504833,-42,4,0,1,-1,0,10,6
51545504833,24,-5,-11,-9,-2,-2,-31,-17
51545512372,4,2,-1,-1,-2,-5,-14,3
51545512372,25,4,7,6,2,1,-13,5
51545528675,-66,-9,-6,1,-1,2,-1,-15
51545528675,-43,-15,-3,0,-5,2,18,32
51545534975,10,13,4,-3,-4,-3,3,-11
51545534975,-30,-5,-1,0,-3,-2,-13,-10
51545550560,20,-12,13,8,1,3,7,-1
51545550560,3,9,10,-4,0,0,-1,6
51545551242,3,-5,-7,1,0,-2,14,12
51545551242,10,-5,0,-3,0,-1,18,5
51545564850,-84,6,-6,-3,0,0,-10,-21
51545564850,48,4,-9,1,-4,-5,2,-16
51545572418,-50,-19,-1,-6,0,1,-9,-13
51545572418,-10,-6,2,-1,1,3,14,-21
51545587401,26,2,-3,0,1,-2,1,24
51545587401,-11,0,1,2,-5,-1,-10,9
51545594928,62,6,4,3,1,0,15,5
51545594928,-41,-8,-12,-3,-1,-2,-3,-8
51545610505,-33,-9,-2,-6,-3,-4,-5,-15
51545610505,19,1,-3,0,1,1,6,17
51545611242,-30,-7,-3,3,-1,-3,4,-9
51545611242,0,5,5,1,0,-2,-3,-24
51545624952,38,0,-2,0,1,-3,-6,-2
51545624952,13,10,6,1,1,-2,-5,0
51545632500,50,-2,0,1,0,1,2,15
51545632500,-46,-9,-6,-4,-6,-5,3,-12
51545647330,-1,3,9,2,-1,-2,-21,-10
51545647330,-9,4,4,1,-1,-3,-1,-7
51545654934,6,7,-1,-4,0,2,-3,-10
51545654934,-1,4,6,0,0,0,-8,-2
51545670597,35,2,-6,-1,0,-1,14,13
51545670597,-25,-12,-16,-6,-2,-2,1,-8
51545671232,-24,-7,9,6,-1,1,1,-10
51545671232,14,-7,11,-4,2,1,-8,0
51545684887,19,0,-3,-1,-4,-2,-8,20
51545684887,7,-2,-1,-3,-1,-2,1,-1
51545692327,-13,5,-8,2,4,2,26,16
51545692327,10,-6,-8,-4,-2,-1,-5,8
51545707422,-31,2,7,2,-2,0,15,-6
51545707422,8,0,2,-1,3,1,-6,-3
51545714804,23,-7,-5,-4,1,-2,-4,1
51545714804,-1,1,0,5,0,-1,-8,9
51545730522,12,3,1,-1,-1,-1,16,11
51545730522,4,5,-4,3,2,0,-13,0
51545731159,-17,-3,-4,-2,-2,-2,-1,-3
51545731159,-38,-12,7,-8,-2,0,12,8
51545744826,87,-11,-9,6,-2,-1,1,6
51545744826,-55,-11,-1,-3,-2,-5,8,-17
51545752444,59,3,2,-2,-4,-6,2,-1
51545752444,33,16,5,0,2,-1,-11,14
51545767475,-35,-10,-8,-5,1,-1,3,-8
51545767475,-11,-12,-1,-2,-3,-1,1,1
51545774893,13,4,-1,-2,-1,-1,-4,5
51545774893,-19,1,-6,2,1,3,-13,-6
51545790566,25,5,1,-1,0,1,-8,-8
51545790566,-18,4,-3,-3,-1,2,1,-18
51545791140,22,-19,4,1,0,1,-1,-3
51545791140,0,-3,-3,2,1,3,1,22
51545804849,0,2,-17,-11,-4,-2,-2,-28
51545804849,-33,-8,0,0,-2,-3,-28,11
51545812417,34,-2,-7,-11,-1,-2,31,-3
51545812417,-13,-3,-1,2,1,0,-2,-7
51545827424,14,7,6,-1,-1,1,-6,-3
51545827424,52,12,5,5,-1,2,32,29
51545834902,-39,11,-2,5,3,0,-35,1
51545834902,29,1,-4,0,-1,-2,7,6
51545850488,-41,-4,3,-3,0,-4,-13,-3
51545850488,28,4,-1,0,0,-2,8,-8
51545851236,2,1,3,2,-2,-1,-5,-4
51545851236,-72,-8,-3,-4,-4,-6,10,-8
51545864757,36,10,0,1,-1,0,0,17
51545864757,-43,-9,-1,0,2,3,-4,7
51545872282,26,3,5,-2,-1,0,9,1
51545872282,24,2,-7,-5,-2,-1,-8,-4
51545887430,-30,-6,3,2,-2,0,8,-5
51545887430,21,6,-1,-1,-2,-3,-14,-8
51545894978,-20,-9,-7,-10,-5,-1,0,10
51545894978,-4,2,-6,-2,0,-5,-8,-12
51545910561,24,2,1,1,-1,-1,-5,-4
51545910561,-20,-9,8,-2,2,1,16,-7
51545911176,-6,3,-5,1,0,0,-13,4
51545911176,20,4,-3,-2,-3,-4,-9,9
51545924952,5,-7,22,5,5,0,-12,-2
51545924952,20,-7,-9,-5,2,2,1,-4
51545932416,-93,-2,-4,-3,-4,-2,6,-18
51545932416,44,-1,2,2,2,3,-30,-2
51545947340,40,10,-1,5,5,1,14,-17
51545947340,-88,-8,-6,-11,-5,-3,-9,-24
51545954975,40,-4,-1,-5,-1,-2,9,8
51545954975,-6,-1,-5,-1,-3,-1,16,-8
51545970521,-4,2,-2,-4,-5,-1,-3,5
51545970521,67,7,4,5,0,0,0,12
51545971220,-15,-3,-2,3,3,2,-4,4
51545971220,54,0,-6,-3,1,-3,1,-31
51545984936,-63,-3,-9,-3,-2,-2,-6,-1
51545984936,-23,-8,4,2,-1,1,23,20
51545992420,-7,-6,-5,-4,-4,-7,-34,6
51545992420,29,4,5,1,-1,-1,-4,2
51546007193,-73,-7,-7,-9,0,-1,-3,-15
51546007193,45,16,-3,1,-1,0,-3,-1
51546014716,-42,-3,5,0,-1,1,1,-16
51546014716,-20,-4,-3,-1,-2,2,0,7
51546030516,40,1,-2,2,1,1,-5,11
51546030516,-1,-2,1,0,1,3,9,-17
51546031147,48,12,-2,3,-1,2,3,28
51546031147,-91,-11,-9,-1,-3,-3,-11,-6
51546044869,102,6,5,0,2,2,8,38
51546044869,-70,-8,-5,-7,-6,-5,-17,-70
51546052204,24,6,0,-2,-5,-8,-7,-5
51546052204,-21,-12,-9,0,3,4,17,-4
51546067408,30,6,0,-1,-4,-3,-19,6
51546067408,23,0,1,2,1,0,1,27
51546074751,27,-2,3,3,3,3,2,-10
51546074751,-55,-3,3,-2,-2,-3,3,9
51546089717,-13,-9,-1,1,0,-3,-16,-15
51546089717,-4,-2,-9,-4,0,3,4,8
51546098064,31,0,-3,0,1,0,1,11
51546098064,12,-2,0,-4,-1,-2,33,-22
51546104721,-42,-10,-5,-2,-2,-5,13,-3
51546104721,16,10,-15,-5,-3,-5,-29,-28
51546112353,-3,-14,2,1,0,0,11,15
51546112353,26,6,2,-1,0,2,2,10
51546127235,-17,-1,-4,-4,-4,1,2,-7
51546127235,48,2,-2,-1,-2,-2,1,15
51546134792,-40,-6,-2,1,3,3,4,-14
51546134792,31,4,2,0,-3,-2,-11,-2
51546149848,-43,-3,0,0,-2,-2,-1,-7
51546149848,-3,-4,3,2,4,3,-3,15
51546157902,71,12,15,2,-1,0,2,-3
51546157902,-103,-6,-1,-5,-5,-2,-5,-13
51546164862,-27,-25,7,-3,1,-1,-8,0
51546164862,-14,1,14,-2,-3,-4,13,-4
51546172373,12,7,-3,0,-2,-2,-8,-13
51546172373,82,2,-3,0,4,3,-5,1
51546187405,-46,0,-1,1,0,-1,1,7
51546187405,14,1,-5,1,-2,-2,-3,0
51546194888,-38,-10,-3,-2,-1,0,2,-7
51546194888,-3,1,2,1,-1,-2,-12,5
51546209756,1,2,-6,-1,-1,0,19,-25
51546209756,-1,-5,-3,1,0,-1,-16,27
51546217967,68,-4,10,2,0,0,-2,-2
51546217967,-40,-17,-4,-2,-3,0,24,2
51546224918,58,5,-1,1,0,1,-16,0
51546224918,14,12,-2,-4,-2,-5,-7,-2
51546232436,-32,-8,-5,-2,1,-3,-7,-25
51546232436,25,1,-1,-2,-2,0,-13,7
51546247157,13,0,0,-2,-2,2,-4,0
51546247157,-28,8,5,1,-3,3,24,21
51546254659,21,-1,-5,0,0,1,-14,-4
51546254659,-7,2,1,-2,-3,-5,4,20
51546269695,-15,8,-16,-2,-3,0,9,2
51546269695,100,9,31,6,0,2,7,11
51546277929,-111,-23,-14,-2,0,3,-11,7
51546277929,74,3,6,0,-3,-1,-19,-25
51546292811,21,1,-1,-7,-9,-8,-17,-12
51546292811,22,-9,-10,-2,-2,-3,15,6
51546293648,15,9,1,-2,-3,-5,3,15
51546293648,18,2,3,3,2,1,-7,3
51546307172,-3,-5,-1,1,5,3,-5,-5
51546307172,-15,-7,-5,-4,-1,2,25,-1
51546323132,16,3,15,9,5,2,5,23
51546323132,41,15,-5,-1,-1,2,0,-1
51546329795,-40,-1,3,-1,0,-2,7,-7
51546329795,-4,-10,-4,-2,-2,-5,-11,12
51546337970,-13,0,-8,-3,-3,-3,10,-20
51546337970,-46,-7,2,-2,-1,-5,-1,6
51546353016,-1,4,4,3,1,0,12,15
51546353016,-2,-2,-5,3,4,0,-33,-32
51546353629,-19,-9,-8,-8,-9,-8,-8,17
51546353629,-7,8,1,-2,-1,-1,4,-28
51546367155,1,-2,-2,1,4,2,-6,6
51546367155,-20,-3,-7,3,3,1,-30,-7
51546374860,16,2,6,-5,-5,2,24,11
51546374860,0,-3,2,1,-1,-2,0,-1
51546389700,1,-7,-4,-3,-6,-6,-7,7
51546389700,42,6,-3,0,0,0,5,-13
51546398074,4,-4,-4,-1,-1,-3,-8,-10
51546398074,-51,1,-4,-4,1,0,6,-3
51546421192,6,7,1,-4,-7,-3,-13,5
51546421192,36,-12,15,5,3,5,16,4
51546421903,-32,3,-7,-2,-3,0,-1,-16
51546421903,9,0,2,1,0,-1,5,4
51546427287,24,2,-4,-4,-4,-5,-15,-4
51546427287,-48,-13,-9,-1,-2,1,12,32
51546434853,3,11,4,1,0,0,2,-10
51546434853,-27,-13,-7,1,-2,-1,-20,4
51546449655,-25,-3,1,-3,-1,-4,-6,-32
51546449655,35,7,3,-3,-1,0,-8,9
51546458104,-104,-19,-6,0,-2,0,-3,-14
51546458104,77,9,-5,-2,3,4,15,34
51546472886,-49,-6,1,1,4,4,7,-12
51546472886,-67,6,-4,2,-5,-4,-22,-23
51546473702,127,16,0,-2,-1,-3,23,16
51546473702,-8,-7,-3,-11,-3,-2,-14,-12
51546488656,-46,-16,-6,-1,-1,-1,1,-25
51546488656,10,10,-1,-4,-2,-5,-4,7
51546494665,-18,7,-7,-1,-1,-1,-8,3
51546494665,0,-8,7,5,0,0,-8,5
51546509673,3,-1,-5,-2,0,2,9,20
51546509673,-9,-13,3,2,-1,0,6,-17
51546517922,29,-1,-6,-5,1,-1,15,6
51546517922,-2,-4,4,3,-2,-3,-15,-21
51546532905,7,28,4,5,-2,-3,-2,-3
51546532905,-33,-13,-18,-21,-1,-5,7,18
51546533650,-28,-6,2,6,3,2,-3,-22
51546533650,69,3,-2,-1,-3,-1,-10,8
51546547145,11,-5,3,3,4,0,10,-15
51546547145,4,1,2,2,1,2,-19,-14
51546554717,3,-3,6,-3,-1,-1,-7,7
51546554717,-56,-5,-8,-6,-2,-3,-20,-17
51546569672,88,1,0,1,-6,-4,-7,12
51546569672,10,2,1,0,-1,-2,32,8
51546577908,62,-6,1,0,-1,1,-4,8
51546577908,-81,-1,3,8,2,1,18,-8
51546593371,44,-4,3,-4,0,1,-16,12
51546593371,37,9,-12,-3,-2,-2,2,4
51546594209,-1,1,2,6,0,-2,4,10
51546594209,-42,4,-1,-4,-2,0,11,3
51546607269,-10,1,4,-2,0,1,5,9
51546607269,42,6,-2,-3,-4,-3,-1,15
51546614679,-52,-5,5,-4,-5,-3,-10,-16
51546614679,95,6,-21,2,0,-1,16,-6
51546629792,-111,-30,-2,4,-1,-1,-19,-7
51546629792,-13,-5,-5,-5,-2,1,-11,7
51546638072,-8,6,-4,-12,-6,-2,2,-19
51546638072,-5,-9,3,-1,2,0,-8,-8
51546652905,-29,22,0,4,1,7,25,9
51546652905,44,-6,2,8,0,-2,-34,-10
51546653689,1,-3,-8,-6,-3,-4,5,14
51546653689,21,-2,4,0,-1,-1,-4,1
51546667296,30,-6,-6,-8,-1,-4,0,7
51546667296,-44,3,8,7,-2,0,6,-1
51546674908,16,9,2,0,2,4,-11,-7
51546674908,20,2,5,2,-1,0,0,8
51546698760,13,-2,-6,-5,-3,-2,10,4
51546698760,-81,-25,6,0,0,0,6,-9
51546699331,79,8,4,3,0,-2,-20,-14
51546699331,-20,-1,2,-6,-4,-3,1,11
51546712807,38,2,1,-2,-1,2,14,22
51546712807,13,5,3,-1,-2,-1,0,-3
51546713588,-31,4,-1,4,4,2,-10,-10
51546713588,66,4,3,2,0,1,14,-7
51546727148,24,1,-2,1,0,1,-15,11
51546727148,28,5,-10,-3,-4,-2,1,-12
51546734636,3,-8,15,3,4,3,12,13
51546734636,-73,1,-1,-4,-5,-1,9,-9
51546749688,42,9,4,0,-3,-3,16,5
51546749688,-7,-10,-5,0,-2,-3,-11,-17
51546757888,-86,-16,6,2,-2,-3,-2,3
51546757888,-25,-17,-5,-4,-1,-3,-25,-14
51546772820,5,6,6,-1,0,1,17,-3
51546772820,-27,5,7,0,0,0,-7,19
51546773622,60,0,-7,-2,-1,-5,-3,-9
51546773622,-19,-3,1,3,0,-2,1,12
51546787216,-29,-12,-4,1,3,-1,-14,-15
51546787216,42,11,-1,-6,0,0,10,10
51546794873,-48,-5,-10,1,-3,-2,-4,-2
51546794873,25,6,6,2,2,3,23,2
51546809879,-27,-7,-4,1,0,0,-4,9
51546809879,7,7,-7,-13,-3,-4,-9,-15
51546818038,38,-5,-3,-4,1,4,11,9
51546818038,11,21,8,-3,2,1,-12,1
51546832893,-34,5,3,2,0,1,16,5
51546832893,49,-3,-4,0,-2,-1,15,-8
51546833616,-66,1,-12,-6,-6,-7,-13,-15
51546833616,82,6,-1,0,1,-2,-14,9
51546847199,-46,-11,0,0,1,-2,2,-7
51546847199,10,4,-1,3,4,3,2,-1
51546854652,-31,-1,-9,0,0,1,20,-9
51546854652,28,-6,-2,0,0,1,-11,3
51546869793,-10,1,-4,-6,-2,0,5,1
51546869793,-42,-14,-3,1,-1,-1,-1,-12
51546877982,37,10,12,0,-2,-1,13,-1
51546877982,-35,-27,-9,-4,-4,-6,-13,7
51546892958,59,2,1,5,1,-1,-10,-11
51546892958,-101,2,1,-1,-2,-2,-3,-10
51546893838,39,-5,-2,-3,4,6,-4,12
51546893838,35,-2,-1,8,-2,2,0,-6
51546907357,-6,7,-5,-6,-4,-2,-10,-6
51546907357,-22,-1,1,2,-3,1,-5,4
51546914815,5,-8,-2,3,-2,-2,-9,1
51546914815,23,-5,-23,-7,-2,-4,13,3
51546929849,5,-3,-1,-1,1,-1,-18,-16
51546929849,109,1,6,-8,-5,-4,15,22
51546938039,-80,-9,-4,-3,-3,1,3,-4
51546938039,-37,10,2,3,-2,0,5,2
51546952870,60,-1,-5,1,-1,1,-1,14
51546952870,9,3,0,6,3,4,-6,0
51546953640,50,17,4,-8,-6,-4,6,5
51546953640,-28,-6,5,1,-1,0,-14,-7
51546967302,21,-1,-5,-1,-5,-4,-1,-2
51546967302,12,2,-2,-1,-1,-1,3,21
51546974843,0,-5,-2,1,1,0,0,-17
51546974843,-56,-9,-5,-4,2,1,-17,-16
51546989801,18,-8,5,-1,-4,-3,2,6
51546989801,-25,-4,-2,0,-2,-1,-10,8
51546998057,-41,-7,-3,5,1,-1,-6,-21
51546998057,17,-4,2,-9,-6,-2,1,0
51547012253,-6,-6,-6,0,2,0,9,0
51547012253,-29,-8,-5,-3,1,-2,-10,7
51547020335,-7,-15,14,5,1,-1,3,2
51547020335,47,10,0,-7,-1,-2,5,-6
51547027296,-38,-2,-2,-2,-4,-3,-15,-22
51547027296,5,-4,-5,1,1,1,15,-12
51547034799,54,17,-4,-2,-1,1,-2,15
51547034799,-68,-9,-3,1,-1,-4,8,-13
51547049787,82,7,8,2,-1,-1,-10,14
51547049787,-85,-2,1,4,-2,-4,3,-21
51547057956,8,-1,-9,-8,-4,-2,-9,-5
51547057956,10,1,3,1,0,-2,2,-1
51547072206,-10,3,-7,-6,5,4,2,-3
51547072206,-19,-17,-3,-1,-3,-2,5,-6
51547080519,15,20,-4,0,-1,0,-16,3
51547080519,29,4,0,0,-2,-3,-1,29
51547087330,-88,-7,2,5,-1,0,5,-24
51547087330,21,-2,-1,-1,-1,-1,-10,9
51547095446,-32,-1,-6,-6,-5,-4,-3,-21
51547095446,16,-10,17,6,2,-1,0,-14
51547109905,32,7,-3,-2,-2,-3,-12,9
51547109905,47,15,2,1,1,1,-6,-9
51547118059,-25,-17,-3,-2,-2,-2,8,9
51547118059,17,5,2,1,-2,-2,-1,4
51547132311,-53,-9,-2,-4,-2,1,-16,-21
51547132311,-11,5,2,0,-1,-1,16,11
51547148589,7,-2,0,-3,0,0,-11,-11
51547148589,-7,3,-5,0,-3,-3,10,7
51547150122,55,2,3,-5,-4,-7,-5,-7
51547150122,25,-4,-11,-4,-3,-1,1,-4
51547155499,-83,-3,-2,2,4,1,5,-8
51547155499,27,6,-7,-6,-4,-2,9,8
51547169824,-28,-13,23,1,0,0,6,9
51547169824,27,4,-4,-4,-1,0,-9,-24
51547177918,81,-2,-2,3,0,-1,3,26
51547177918,-21,0,1,3,2,2,-6,-26
51547192322,44,11,-8,-3,-4,3,18,5
51547192322,-50,-11,0,-2,-6,-6,-17,7
51547200466,27,1,-1,-2,0,2,5,-29
51547200466,-60,-2,-4,-2,-3,-1,4,6
51547216153,63,0,-10,-4,-2,-3,-7,24
51547216153,3,-4,10,3,4,1,13,6
51547216940,-19,-5,-7,-3,-1,0,0,-4
51547216940,-32,0,0,1,1,1,-14,-7
51547229755,-14,-9,-11,-2,1,3,5,-2
51547229755,63,7,-1,0,-5,-4,8,-2
51547238135,-14,-4,-6,-4,-1,-1,-5,11
51547238135,50,-1,-1,4,5,6,13,7
51547252296,-25,9,-2,2,1,-4,-19,-18
51547252296,20,5,-4,-4,-3,-2,-3,13
51547260407,-16,6,10,-2,-2,-4,-7,-4
51547260407,-44,-7,-5,0,0,1,-4,-1
51547276118,66,1,23,2,-2,-2,15,-3
51547276118,-13,-2,-2,5,3,0,0,-11
51547276937,-40,-7,-3,-2,-3,-2,0,8
51547276937,12,-1,-3,0,0,-4,-7,-7
51547289669,0,-1,-5,-2,-2,-2,-1,9
51547289669,-50,0,1,-3,1,0,1,-20
51547297850,40,-3,1,-1,1,3,0,36
51547297850,-1,1,-5,-4,-2,-4,-17,-14
51547312322,2,-1,-10,0,-1,0,16,3
51547312322,0,-10,3,1,1,6,16,9
51547320500,56,0,-4,-2,-4,-4,-19,-3
51547320500,-30,0,-4,-2,0,0,-2,-3
51547336210,40,2,-12,-6,-5,-1,-7,1
51547336210,-57,3,1,-4,-3,-4,-7,-24
51547336833,-17,-3,-2,0,-2,-2,4,-9
51547336833,23,-4,2,0,2,3,3,5
51547349779,-66,-5,-2,2,0,-2,-1,-11
51547349779,72,1,-7,2,-1,0,-1,5
51547357967,-30,-2,-1,-5,-5,-6,-3,-10
51547357967,34,7,9,-1,-1,-2,7,9
51547372374,-42,-4,1,2,-1,1,-7,4
51547372374,35,3,-6,-1,2,1,-2,9
51547380544,11,-3,-1,1,-1,0,2,4
51547380544,-44,-18,3,-4,-6,-6,-9,5
51547396048,25,9,2,-2,-2,-3,2,5
51547396048,-13,2,25,6,3,1,4,-5
51547396783,42,5,3,3,0,2,16,-13
51547396783,17,4,-5,-3,-2,-4,-26,-13
51547409623,-98,-10,0,1,1,3,22,17
51547409623,-4,-1,-5,-5,-3,-1,-1,-5
51547418648,12,-14,12,0,-1,0,5,-2
51547418648,-12,-1,1,2,2,3,-3,4
51547432213,-38,-4,-4,-1,0,0,8,2
51547432213,-11,2,-11,-2,-1,-1,-14,-7
51547441167,43,16,5,2,1,1,-8,12
51547441167,-69,-16,-3,-1,-4,-1,14,-7
51547454693,-22,-15,-3,-6,-4,-6,-11,-10
51547454693,-17,2,-7,0,2,0,2,4
51547463648,-10,3,2,-2,-3,-2,-17,11
51547463648,16,5,-1,1,1,1,3,-4
51547469849,3,1,-6,-5,0,1,-7,10
51547469849,-22,-7,1,-1,-1,-2,-8,0
51547478686,24,13,-2,0,0,-4,9,-3
51547478686,21,-12,13,-6,-6,-6,7,-3
51547492277,26,-8,-10,-1,0,-2,-2,4
51547492277,-2,-3,-3,-4,-4,-2,-5,-8
51547501124,0,-3,-5,-1,1,1,-9,8
51547501124,73,17,0,0,-2,1,13,6
51547514757,-72,-9,-1,3,2,-2,-11,-25
51547514757,-13,-22,-2,-3,0,-4,7,4
51547530505,5,3,-1,1,1,1,-3,-7
51547530505,18,-1,-7,-4,-1,-2,-4,-6
51547531143,15,-3,4,2,2,3,3,8
51547531143,18,4,0,2,-1,-1,-11,-6
51547538647,-79,-2,-1,0,-3,-9,-5,-10
51547538647,-12,-2,-5,0,4,2,-6,-6
51547552301,64,17,8,-3,-3,-2,11,3
51547552301,-11,-11,-2,-1,-1,1,-3,-12
51547561148,16,-5,-7,0,2,1,-8,21
51547561148,-40,0,-5,0,0,-1,12,22
51547574813,-12,-4,4,2,2,0,2,-40
51547574813,-26,-1,-7,-3,-3,-4,-4,13
51547583694,-49,-8,0,-2,0,3,13,-3
51547583694,50,12,-5,-1,-5,-4,7,5
51547589812,37,6,4,4,2,4,-12,-3
51547589812,50,4,-2,-1,-2,2,20,7
51547598641,-34,-3,-1,2,0,-2,-9,-32
51547598641,-5,-3,0,-4,-4,-2,-1,9
51547612180,-19,-6,-8,-3,-2,0,-5,-6
51547612180,20,4,-5,1,-2,-2,7,8
51547621222,52,-1,1,1,2,2,5,-2
51547621222,-67,-8,-9,0,1,1,-23,-8
51547635458,-8,2,2,-3,-5,-3,-5,1
51547635458,-70,-1,1,-1,-1,-1,-8,-3
51547642221,69,1,-9,-3,0,1,3,6
51547642221,-22,3,6,1,2,1,-3,-4
51547649765,38,2,-1,-1,-5,-2,17,20
51547649765,9,-3,1,2,2,1,-9,-4
51547658680,6,-1,-1,-3,-3,1,3,15
51547658680,44,-8,2,2,0,1,-5,-14
51547672167,-53,2,-1,-3,-3,-3,4,16
51547672167,61,-3,-1,-4,-2,-2,10,6
51547681173,-27,11,3,2,-1,1,-2,7
51547681173,87,0,-5,-3,-2,-3,5,10
51547695399,-21,-12,4,1,0,-4,-23,-28
51547695399,-12,1,1,1,1,1,-16,19
51547702144,-22,0,-1,-2,-1,-3,20,-5
51547702144,-19,-17,-4,-3,0,-1,-3,8
51547709685,3,-6,-13,-5,-3,-2,-4,-14
51547709685,57,13,7,-2,-3,-3,4,-4
51547718647,-23,-5,0,0,-2,-4,-18,-9
51547718647,2,-4,-4,-1,-2,-1,14,-2
51547732272,28,2,-1,-1,-1,-3,5,8
51547732272,-75,-4,-7,-3,0,0,0,-26
51547741177,50,-9,-8,-6,-4,-5,-17,12
51547741177,-64,3,1,1,3,2,-2,-3
51547755394,43,5,5,2,2,3,2,3
51547755394,32,5,0,-2,-5,-2,6,17
51547762098,14,7,-2,-1,1,-2,0,-13
51547762098,-54,6,6,-2,-6,-2,-15,-36
51547769809,3,-1,-1,1,2,0,15,25
51547769809,-6,-6,2,-1,-2,-3,-24,-13
51547778694,-69,-7,-8,0,3,0,7,4
51547778694,8,-3,-2,2,0,0,4,15
51547792240,4,6,2,-3,0,-2,-9,-17
51547792240,64,6,1,-6,-5,-5,-2,-4
51547807270,-57,-14,-3,0,-2,-2,8,15
51547807270,14,-1,1,4,3,1,-9,-9
51547816192,-23,-1,8,0,0,-1,-4,-4
51547816192,-33,2,-2,2,3,-2,2,-18
51547817650,53,7,5,-1,0,0,-10,-9
51547817650,39,-11,-9,-5,-4,-3,7,10
51547829719,-7,5,-7,-1,1,-3,-1,5
51547829719,-6,2,-4,0,2,0,-4,-6
51547838672,77,6,3,1,-1,5,17,-1
51547838672,-67,-5,-8,-2,-1,-1,-2,3
51547852117,-18,11,-7,-6,-4,-1,0,0
51547852117,-21,-10,-3,2,1,3,10,2
51547861170,41,6,1,-6,-6,-2,9,8
51547861170,-53,-6,2,-2,0,-3,-2,-11
51547876130,56,-2,-1,-2,-3,-3,-7,3
51547876130,-37,0,1,-1,-2,0,7,2
51547877629,13,-20,2,-2,-3,-1,-5,7
51547877629,36,2,-3,-3,-2,0,9,-3
51547889873,5,-4,-1,-2,-1,-1,-17,-3
51547889873,4,3,1,5,0,0,37,13
51547898664,-7,7,-1,1,0,-2,-5,-11
51547898664,-14,11,29,3,4,2,3,14
51547912212,31,7,-1,-4,-1,0,-3,-3
51547912212,-36,-27,-5,-8,-4,-4,-8,-1
51547921127,40,8,-7,-4,1,-1,-3,-24
51547921127,52,0,11,5,0,-3,-3,4
51547936180,-31,-8,1,0,-1,-1,10,4
51547936180,-22,7,1,0,-1,1,-11,-21
51547937648,43,1,-7,-5,-4,-4,-13,2
51547937648,-46,0,-7,-2,-3,-3,-6,9
51547949800,10,-16,-2,1,-1,-1,5,-15
51547949800,41,5,-4,-1,1,2,-4,20
51547958678,-32,4,4,1,-2,-3,-1,-2
51547958678,-38,-6,-3,-1,-1,-3,-5,0
51547972292,-20,-8,-5,-3,-4,-3,-5,0
51547972292,-5,-5,2,1,0,1,4,4
51547981107,-1,7,1,-1,-2,-2,2,6
51547981107,26,1,-5,0,1,1,0,3
51547995350,-39,3,-4,-2,-4,-5,-1,-6
51547995350,9,3,-2,-1,-2,-4,-12,0
51548002353,-60,-8,0,2,1,0,-15,-12
51548002353,68,-7,-7,-1,-1,2,6,21
51548009817,-17,-3,-20,0,3,3,0,-19
51548009817,-9,-19,13,3,1,0,-1,-8
51548018627,-37,-3,-3,-4,-4,-2,8,9
51548018627,82,15,-3,-2,-2,-2,-6,4
51548032131,-2,4,0,1,1,0,-14,-8
51548032131,21,0,-4,3,2,-1,1,0
51548041133,-11,-4,-6,-2,1,1,18,15
51548041133,-22,-7,-5,-3,-2,0,-8,-29
51548055364,29,10,11,-1,0,-1,-6,16
51548055364,45,6,-1,-1,-4,-4,-20,-7
51548062255,-71,-15,1,3,2,0,8,5
51548062255,15,5,-4,-5,-4,-4,17,4
51548069747,-6,-2,3,2,-2,-2,-19,-2
51548069747,-5,4,-6,-4,1,2,-3,3
51548086152,46,3,4,2,2,3,-4,-5
51548086152,-33,-5,-6,-5,-5,-3,-7,-3
51548092305,-37,8,3,1,2,1,11,2
51548092305,1,-4,0,-2,-1,0,16,-4
51548101112,-6,0,-11,-4,-4,-1,-4,7
51548101112,-55,-5,1,3,0,-1,-3,-16
51548115453,64,4,3,-1,-3,-1,6,11
51548115453,-8,8,-2,-5,-4,-5,4,11
51548122248,-77,-9,19,1,-1,-1,-10,-17
51548122248,-12,2,8,3,0,1,-4,-5
51548138493,37,4,-3,4,4,2,11,11
51548138493,43,-3,3,1,0,0,-6,2
51548140077,29,-1,1,1,-4,-4,-2,-1
51548140077,72,12,-6,-1,1,0,3,4
51548152127,-93,-26,2,-2,-3,-1,5,-5
51548152127,-20,-5,-5,-1,1,1,-5,-6
51548161114,20,3,-8,2,2,0,1,-2
51548161114,19,-3,-4,-10,-3,-4,-2,-13
51548175315,3,7,-1,0,-1,0,5,17
51548175315,29,-6,-6,-1,0,1,37,5
51548182101,-85,-7,-2,3,2,0,-20,-1
51548182101,17,-2,-1,0,1,1,1,-6
51548198487,-15,-2,-7,-5,-3,-2,-7,3
51548198487,-70,-10,3,-1,-2,-1,9,1
51548200092,70,-6,4,-1,-3,-5,-8,-10
51548200092,16,6,-3,1,-1,-2,-6,2
51548212163,-4,-8,-6,-2,4,5,26,11
51548212163,39,-9,1,-2,-3,-2,-14,-11
51548221166,-44,-3,-15,-6,-4,-2,-9,-12
51548221166,9,0,6,2,-2,-2,-6,3
51548235385,16,-2,-4,-2,-2,-3,-8,-2
51548235385,16,5,-3,1,0,-1,-3,4
51548242295,4,7,5,-1,-2,-1,-2,-3
51548242295,6,-7,-16,-1,2,0,15,9
51548258631,-72,-10,5,-2,-6,-4,-20,-24
51548258631,10,11,3,-2,-1,0,12,30
51548260097,-10,1,-4,-3,2,1,2,6
51548260097,4,11,6,5,2,1,-9,-18
51548272307,-51,-18,-4,-1,-1,-1,4,7
51548272307,-46,0,-3,-3,-2,-5,-24,-25
51548281163,-63,11,-2,0,0,1,-1,3
51548281163,63,-1,8,-1,-2,-2,21,15
51548295491,17,-2,-1,2,3,4,6,-2
51548295491,-17,-1,5,0,0,-1,-16,3
51548302135,40,-2,-4,0,-1,2,5,-9
51548302135,-14,2,0,-2,-2,-3,-18,-24
51548318632,62,4,1,-2,-4,-5,7,14
51548318632,-5,5,3,2,2,5,-5,-1
51548320269,1,-3,2,1,0,2,8,0
51548320269,11,-3,1,-5,-5,-1,6,-7
51548332248,14,4,-1,-1,-4,-3,-10,11
51548332248,-28,3,-4,0,-2,-2,2,-22
51548341091,-10,-7,-1,2,3,1,0,3
51548341091,-34,5,-3,0,-1,-1,-4,-4
51548355490,63,2,-2,-3,-2,-1,-5,2
51548355490,-7,-11,-19,-7,-6,-3,-6,-13
51548362240,18,5,-1,-1,-1,-2,4,1
51548362240,-14,-6,0,0,-5,-4,-1,15
51548378607,-19,9,-2,1,2,0,-10,-37
51548378607,24,-12,9,4,-2,-2,20,33
51548380127,12,1,-2,-3,-4,-6,2,-28
51548380127,-12,-7,3,1,3,2,3,38
51548392249,-11,5,-1,0,3,2,3,8
51548392249,96,17,-2,-2,-2,-3,-11,-8
51548401081,-81,-16,-11,-4,-4,-4,0,-5
51548401081,14,3,7,2,1,-2,0,-6
51548415498,32,-1,-8,-3,-1,-1,-4,-5
51548415498,-45,-10,8,0,0,-1,-8,-4
51548422216,74,4,7,0,-2,2,2,14
51548422216,-11,-8,-7,-1,-1,0,1,6
51548438545,3,2,-2,-4,-6,-7,2,-14
51548438545,2,0,-6,0,0,2,-4,2
51548440150,26,1,0,2,0,0,2,-9
51548440150,-37,-8,0,-3,-1,0,-15,-4
51548452090,83,7,4,-1,-2,-2,1,-13
51548452090,-79,-10,-2,-5,-4,-4,-5,-2
51548461150,-25,4,-2,1,3,3,10,19
51548461150,38,-8,-1,1,2,0,2,4
51548475295,-35,-10,3,2,-1,1,4,3
51548475295,-61,3,-11,-3,-3,-2,-21,-28
51548482259,23,3,-5,0,-1,0,19,1
51548482259,-35,4,-1,-2,0,-3,6,4
51548498599,62,-1,3,-1,-1,2,-11,8
51548498599,-6,-5,9,1,-1,-1,27,18
51548500126,48,-3,-1,1,-1,0,-13,-8
51548500126,-40,-2,-3,-5,-3,-2,1,-9
51548512173,55,0,1,3,0,1,12,7
51548512173,-17,2,-11,-2,-2,-3,-21,-8
51548521126,11,-4,-2,-1,3,2,-6,4
51548521126,74,15,1,-3,-5,-3,10,-12
51548535462,-97,-18,-4,-2,1,1,-9,15
51548535462,54,9,-3,-1,-1,4,11,20
51548542277,-10,9,5,1,-2,0,0,-3
51548542277,-39,4,1,-1,-4,-2,2,-9
51548558512,-22,-7,-6,-1,2,0,0,-20
51548558512,1,10,4,3,0,0,1,-3
51548560142,19,0,-10,-3,-4,-1,-5,-1
51548560142,-49,-4,2,4,1,3,9,13
51548572283,-6,4,-9,-5,-5,-4,-7,-18
51548572283,29,-2,-2,-4,-3,-4,-7,4
51548581203,16,12,1,-4,-2,-3,-6,-2
51548581203,-11,-1,-5,2,2,1,-16,-11
51548595511,-8,-6,-1,-3,-3,-2,15,11
51548595511,13,-10,2,1,0,-2,11,4
51548602186,-41,-10,-1,-1,-1,-2,2,-11
51548602186,21,-6,0,-4,-3,-3,-15,-12
51548618654,-29,7,7,1,-1,1,-5,0
51548618654,-22,-7,-2,-4,-2,-3,-14,-11
51548620099,-19,-4,8,2,1,-1,17,19
51548620099,-2,-13,-4,-1,2,0,-25,-15
51548641122,12,15,-20,-1,1,1,-5,5
51548641122,-4,-9,5,2,2,1,8,-24
51548642657,13,4,1,-3,-4,-4,-10,6
51548642657,-40,-8,-4,0,1,1,4,5
51548655484,-36,-3,-2,0,-2,-2,7,3
51548655484,31,8,-1,-1,-2,-2,-9,8
51548662227,14,-12,-1,0,2,1,-5,-6
51548662227,-1,8,-1,-5,-5,-4,-7,2
51548678503,34,4,16,3,2,2,4,1
51548678503,-58,-3,-5,-1,-5,-5,8,5
51548680068,-12,3,2,1,0,2,-9,-17
51548680068,41,4,-10,-5,-4,-3,6,21
51548692259,16,-1,7,1,1,-1,4,4
51548692259,13,3,1,4,2,2,-5,-1
51548701122,36,4,-3,-3,-4,-3,2,3
51548701122,21,6,1,-1,3,3,5,8
51548715326,22,-5,0,-1,-1,-1,-5,-1
51548715326,-2,-4,8,-2,0,1,13,0
51548722266,-37,-7,-1,0,-1,-4,-8,-4
51548722266,-19,-4,-2,1,0,-1,5,8
51548738458,62,2,-1,-5,-3,-5,-14,-41
51548738458,-53,-22,8,4,3,4,1,12
51548740088,61,1,-12,-4,-5,-5,-16,-5
51548740088,11,-11,6,0,0,2,24,14
51548752208,-82,0,-3,0,-1,-1,-29,-11
51548752208,-3,0,-9,-2,0,3,2,1
51548761125,43,8,0,-4,-6,-3,-4,1
51548761125,36,-1,1,3,1,0,-5,-1
51548775485,-7,4,-4,-4,-5,-2,13,16
51548775485,-39,8,1,2,1,4,7,-4
51548782238,17,-12,3,0,0,1,5,3
51548782238,32,7,-1,-4,-2,-2,-4,-5
51548798471,-28,-4,5,1,1,-1,4,-3
51548798471,32,7,-1,-3,-2,-4,-22,-12
51548800198,-40,-9,-1,2,3,3,22,25
51548800198,13,-5,-4,-2,-3,-1,3,2
51548812212,-46,0,2,0,2,-1,-4,-10
51548812212,15,-5,-3,-1,0,-3,-9,2
51548821136,7,5,0,-1,-2,-2,8,6
51548821136,-42,-7,-2,0,1,1,1,-21
51548835492,6,-4,2,2,2,-1,-14,20
51548835492,53,2,-8,-5,-4,-5,-3,-3
51548842217,-62,-3,3,-1,-1,-2,-9,-2
51548842217,39,1,-4,2,2,1,-14,-14
51548858674,-8,4,-3,-1,-2,-1,14,-3
51548858674,6,10,-1,-1,0,-1,4,5
51548860111,5,1,-5,-3,-2,-5,-14,2
51548860111,-74,-7,-3,-4,-1,-4,-14,-6
51548872288,28,-1,-4,0,1,0,13,4
51548872288,62,6,1,-1,0,1,2,9
51548881098,-83,-11,1,2,-2,-4,-3,-18
51548881098,-8,5,-5,2,2,3,-5,4
51548895297,18,-6,10,-1,-3,-1,0,-9
51548895297,-16,-4,-4,-2,-2,-2,-5,-11
51548902118,14,0,-2,-4,2,4,0,-4
51548902118,0,-2,4,0,-3,-3,9,-7
51548917939,-46,-9,-6,0,2,0,-8,17
51548917939,20,-13,2,2,4,2,-3,-4
51548924802,21,1,2,-2,-4,-1,-6,-25
51548924802,-35,6,-4,-3,-4,-6,2,6
51548932265,27,3,1,0,1,0,5,-1
51548932265,-13,-4,-2,0,1,-1,0,0
51548941138,5,6,0,-2,0,-3,0,6
51548941138,13,9,2,-1,-3,-3,-2,12
51548955356,-13,-5,-6,0,1,4,-9,-4
51548955356,-74,0,-1,-2,-4,-5,-1,-20
51548962338,34,-3,-6,-1,1,1,8,19
51548962338,-21,-10,-8,-4,-3,0,-2,-9
51548977920,-1,29,-15,-1,-2,-1,1,-7
51548977920,34,4,-9,-1,2,3,0,10
51548984859,52,9,3,0,-4,-4,-8,0
51548984859,-110,-17,-3,0,1,0,11,-7
51548992256,-15,-19,13,1,-2,1,32,7
51548992256,44,1,0,0,-1,1,-4,-11
51549001149,33,7,-3,-2,-5,-2,3,15
51549001149,13,12,6,1,-1,-3,-7,-11
51549015375,32,11,-24,-7,-4,-3,-9,-8
51549015375,-30,-16,13,4,0,0,-1,-5
51549022144,-54,2,8,1,5,5,13,9
51549022144,44,-12,2,-2,0,1,-5,-4
51549037969,33,9,-1,2,0,-4,-1,16
51549037969,-58,3,-11,-5,-5,-2,-1,-1
51549044792,16,-1,-3,0,1,2,-2,3
51549044792,55,4,-3,-1,-2,-1,5,-10
51549052232,-57,-15,11,1,-1,-1,-6,-1
51549052232,32,-1,-4,-3,-1,-5,-1,-8
51549061119,-71,-7,1,2,1,1,3,-5
51549061119,61,2,-2,-2,-2,-2,4,16
51549075380,10,-9,3,2,0,-3,-10,-1
51549075380,-66,0,-15,-7,-3,-3,7,-5
51549082056,-14,-5,9,6,4,2,-6,-26
51549082056,63,16,-16,-3,-1,-2,1,31
51549097771,-8,-24,18,-3,-4,-1,-6,-8
51549097771,10,-3,0,3,2,0,-1,2
51549104608,-8,-7,-21,-12,-6,-3,-10,-4
51549104608,-33,-5,-2,2,4,4,-7,-9
51549120945,88,8,-5,-1,-1,-1,9,15
51549120945,0,10,2,-2,-4,-5,1,12
51549122591,33,-8,-7,1,2,0,2,1
51549122591,-99,-14,3,1,1,3,4,-11
51549135237,-11,2,-4,0,-1,0,-4,-7
51549135237,-32,2,6,4,-1,-2,-23,-23
51549142100,19,-5,-4,-3,-4,-4,19,10
51549142100,-14,-1,3,-2,-1,-1,-2,1
51549157736,-8,0,-1,-1,-1,2,3,-4
51549157736,28,5,-14,-6,-5,-6,0,20
51549164600,-30,-11,-8,-1,-3,-3,-19,-14
51549164600,-2,0,3,3,3,1,-9,-15
51549180928,4,-4,6,-1,-3,2,12,3
51549180928,-5,7,-1,1,3,1,13,11
51549182602,20,7,-1,0,0,-1,-26,-6
51549182602,20,2,-1,-3,-2,-2,-6,-6
51549195303,-26,-3,-5,-2,1,0,2,-13
51549195303,27,-5,1,1,-2,0,-13,0
51549202074,-78,-23,27,5,3,3,8,-6
51549202074,68,5,3,-1,-3,0,-15,-17
51549217759,54,-3,-4,-2,0,0,7,28
51549217759,45,9,11,0,-2,1,10,-1
51549224604,-58,-12,-11,-2,-2,-3,-14,-13
51549224604,-2,5,3,1,-1,-1,-6,-17
51549240912,-5,3,-17,-2,0,0,3,1
51549240912,22,-17,5,-1,-2,2,13,15
51549242590,12,11,-3,-3,1,-2,-2,2
51549242590,26,-8,1,-2,-3,-1,1,10
51549263434,77,22,-5,0,0,1,-2,3
51549263434,-117,-37,-16,-1,1,0,-4,-16
51549265076,29,4,2,-4,-1,-1,7,-5
51549265076,-3,14,18,-1,-5,-5,-9,-9
51549277747,-17,2,8,3,2,-2,3,-6
51549277747,43,5,1,-2,-1,-3,-6,-14
51549284606,83,2,5,-2,-3,-2,4,5
51549284606,-100,-15,-6,-4,-2,-3,0,7
51549300912,11,-10,-1,-2,0,-1,-8,1
51549300912,-28,5,6,-2,-2,-3,9,-21
51549302591,-17,5,-10,1,2,0,-13,-5
51549302591,16,-1,-7,-2,-2,-2,16,15
51549315242,-30,-6,8,-1,-4,-5,-23,-19
51549315242,95,10,0,2,1,2,6,32
51549322051,-82,-22,-14,-2,-4,-3,14,-30
51549322051,14,-13,11,6,2,0,-6,3
51549337739,-32,-8,4,-9,-5,-2,-8,-3
51549337739,40,0,3,2,0,0,-2,11
51549344527,-50,13,3,1,2,4,0,11
51549344527,25,-2,-9,-3,-5,-1,16,3
51549359986,-18,-2,-21,-1,1,0,-10,-3
51549359986,-6,6,6,2,2,1,3,-4
51549368582,-17,1,-2,-4,-5,-1,2,11
51549368582,-17,-2,-9,-3,-2,-2,10,4
51549375226,1,1,10,2,2,1,-3,0
51549375226,11,9,-4,-5,-3,1,-8,-10
51549382032,32,-1,2,2,-2,-1,2,8
51549382032,44,3,-4,0,0,1,-7,27
51549397741,4,4,4,0,0,1,13,-29
51549397741,-90,-21,-1,-1,-2,-4,-13,-17
51549404617,24,14,0,-2,-2,0,7,18
51549404617,14,5,0,2,0,-1,0,-10
51549420881,42,-11,13,5,1,-2,2,16
51549420881,-35,4,2,1,3,2,2,8
51549422487,56,4,2,-4,-3,-4,-13,1
51549422487,-83,6,-22,-2,0,0,15,-11
51549435277,-8,-3,-5,0,-5,0,-3,-7
51549435277,-5,3,-1,0,0,1,-1,1
51549442046,61,-1,9,3,1,2,12,1
51549442046,-25,7,-1,-2,0,-3,-19,3
51549457750,65,12,4,-1,3,4,9,-5
51549457750,-37,-9,3,-3,-3,-3,-10,5
51549464588,24,2,-3,3,2,0,-6,-3
51549464588,11,-7,4,-1,-1,-1,22,3
51549480885,-8,0,-3,0,-1,-2,-16,-2
51549480885,35,10,4,-3,-3,-4,-2,3
51549482580,8,-3,0,1,3,2,0,9
51549482580,-39,-5,0,-2,-2,-2,-9,-25
51549495205,-63,-2,-2,-2,-2,-3,6,16
51549495205,68,-2,-10,0,2,-3,4,-2
51549502017,-9,1,-1,-1,1,0,-4,-13
51549502017,27,-19,8,-3,-4,-5,-12,-13
51549517709,6,10,-5,1,3,0,0,22
51549517709,-17,-5,-2,-4,-5,2,-7,-21
51549524504,29,1,2,0,2,1,16,7
51549524504,-67,-11,1,0,0,-1,-6,-6
51549541382,15,-2,-1,-2,-7,-7,-1,-3
51549541382,-13,0,-4,0,-1,-2,-12,-21
51549542940,45,-4,-4,-1,-4,-3,0,9
51549542940,36,10,3,2,0,4,0,10
51549555294,-32,-10,-7,-5,-2,-1,7,4
51549555294,24,1,0,-1,0,0,-25,-20
51549562079,-12,-7,-10,-3,-3,-1,-4,-9
51549562079,-53,-9,-3,-1,-1,-1,-2,3
51549577799,-20,-5,-3,-1,-1,-2,3,0
51549577799,48,2,1,0,1,0,15,15
51549584637,8,1,-6,-1,0,-1,12,12
51549584637,-43,7,1,-2,0,2,-3,-23
51549600934,24,-8,-5,-4,-3,-2,-2,4
51549600934,-6,11,-12,-3,-2,-2,11,9
51549602604,-52,-21,9,2,2,-2,-30,-20
51549602604,116,7,-5,-5,-7,-5,3,14
51549614536,24,13,9,-4,-4,-3,-13,-18
51549614536,8,-5,-5,-3,-1,1,4,13
51549623606,-59,0,-7,-2,-2,-5,-7,1
51549623606,29,-4,1,1,-2,-3,8,-6
51549645964,-38,-9,-4,2,2,1,-15,-4
51549645964,-7,19,-5,2,1,2,19,19
51549647647,87,17,2,-2,-4,-2,-6,-1
51549647647,-56,-12,-2,3,7,7,4,2
51549661057,-5,3,4,-1,-4,-1,11,38
51549661057,-6,-11,-15,0,0,1,-16,-19
51549662648,-36,-12,5,-1,-1,1,20,5
51549662648,35,9,-6,-1,-2,1,-4,-3
51549674702,3,4,4,2,2,2,3,-7
51549674702,61,-6,0,-1,-2,-2,-1,2
51549683638,-16,-7,-2,0,-1,-1,-8,-8
51549683638,35,-1,-1,-3,-4,-3,-2,-5
51549697845,5,5,-4,1,-1,-1,2,-2
51549697845,-60,-4,-1,2,2,1,-1,12
51549704781,10,-1,9,0,-2,-1,-7,-20
51549704781,25,16,8,4,4,0,-9,7
51549721054,-28,-12,-8,-4,-4,-1,21,2
51549721054,-13,2,4,-3,-5,-6,-10,-15
51549722673,25,-3,-5,-5,-2,-1,1,21
51549722673,-13,-4,-5,-5,-3,-4,-12,-9
51549734807,-81,-5,3,0,2,-1,-2,-28
51549734807,15,-21,13,2,3,1,2,24
51549743613,-38,6,-2,-2,0,1,4,-4
51549743613,81,-2,1,-3,-5,-3,5,-5
51549757854,-13,12,-16,-2,-2,-1,-36,-11
51549757854,-20,-8,19,-1,-2,-1,17,6
51549764850,12,-3,-3,-2,0,-1,-7,-10
51549764850,31,7,-4,-1,3,-1,-11,13
51549781183,-20,-21,10,4,4,3,16,-7
51549781183,-6,4,-2,1,0,-1,-2,-1
51549782611,-21,5,-6,-1,0,-1,-8,0
51549782611,10,-17,12,0,-1,-2,9,7
51549794741,-21,4,0,1,2,2,-9,-7
51549794741,-40,-2,-3,-2,-4,-1,-3,2
51549803646,-17,2,4,0,-5,-3,7,-21
51549803646,-31,-2,-9,-2,0,0,4,-1
51549817869,-3,-2,0,-1,-3,-1,4,2
51549817869,59,2,3,-1,2,3,-3,-7
51549824805,-34,0,-8,-1,-1,-2,-3,1
51549824805,-25,-7,-5,-1,-1,1,1,15
51549840430,43,8,0,2,2,1,5,-3
51549840430,4,-1,-7,-1,-1,0,-23,-10
51549847247,-39,2,4,-2,-1,4,20,33
51549847247,20,6,3,-1,-3,-2,3,-13
51549854741,-3,-10,-4,-6,-4,-11,-9,-27
51549854741,28,-3,-5,1,-2,-4,12,1
51549863625,-84,-4,3,1,1,-1,-21,-20
51549863625,-41,-7,-2,2,0,2,2,2
51549877940,64,24,-18,0,-3,-2,-9,15
51549877940,-6,13,24,0,-1,-2,11,7
51549884742,22,-3,-4,3,-1,1,0,10
51549884742,0,15,-16,-5,-2,3,17,-10
51549900488,-41,-7,6,-2,-1,-3,-7,-10
51549900488,-36,-3,-12,-3,-2,-3,-10,-16
51549907190,69,4,1,-4,-2,-1,18,20
51549907190,13,1,2,0,1,-2,-10,7
51549914689,-14,-5,-1,1,-1,0,-12,-5
51549914689,13,1,-4,-1,-2,-2,9,-6
51549923620,33,2,2,-1,1,0,7,13
51549923620,-44,-5,-5,-1,-1,-3,-15,-21
51549937925,-84,1,4,3,4,1,12,15
51549937925,60,1,-5,-4,-3,0,3,34
51549944739,32,-7,-3,-11,-9,-10,-8,-35
51549944739,-31,-13,-2,0,2,0,0,4
51549960294,53,1,3,-1,-1,1,4,8
51549960294,-11,-2,-3,1,0,-2,-8,1
51549967149,-59,-4,-7,3,1,-1,3,-4
51549967149,-26,-3,3,-1,-2,0,-1,1
51549974808,3,7,-5,-4,-3,-4,-10,-1
51549974808,-4,-36,11,0,2,1,-1,-11
51549983651,108,10,2,-2,-2,-2,-6,3
51549983651,-56,6,6,1,-2,-3,-5,4
51549997812,28,-9,-4,0,-3,1,1,-1
51549997812,-74,1,-7,-3,-2,-3,-13,-29
51550004835,12,-3,0,1,1,1,1,-3
51550004835,-24,-2,7,0,-1,2,8,17
51550020251,100,9,0,-2,-4,-2,6,-7
51550020251,-97,-15,-9,-3,-2,0,-3,9
51550027315,28,8,2,2,-5,-4,-5,16
51550027315,14,-5,-8,-3,-2,-1,9,-19
51550043639,-17,-8,-1,-1,0,0,-10,7
51550043639,35,13,-3,-4,-2,-2,4,-4
51550045081,-27,3,2,2,2,0,-10,-4
51550045081,50,4,0,-1,-3,-5,1,11
51550057966,-31,-7,-2,-1,1,1,2,1
51550057966,37,2,1,1,-1,1,-3,8
51550064780,-98,-3,0,1,0,0,-11,-18
51550064780,41,4,-1,-3,-1,-1,11,3
51550080458,-18,-7,-4,-3,-2,-3,-2,13
51550080458,-14,17,5,1,2,2,0,-18
51550094840,42,-7,-5,0,0,1,1,1
51550094840,0,-8,-21,-5,-1,-1,-9,-2
51550103550,-24,-13,12,2,-1,0,0,-15
51550103550,26,0,-13,-2,0,2,13,27
51550105030,21,7,4,-5,-7,-6,-10,-6
51550105030,-28,-8,5,-2,-2,0,-19,-13
51550118023,46,1,-8,-2,1,2,3,9
51550118023,30,5,-3,0,0,0,-5,-21
51550124758,26,1,-9,4,4,3,-13,-6
51550124758,-63,-10,2,-2,-1,0,15,6
51550140434,-65,2,0,0,0,-2,10,-4
51550140434,27,1,8,-2,-4,-3,-15,-12
51550147172,26,0,-6,-4,-1,-2,16,5
51550147172,-8,0,12,4,2,0,-11,9
51550163456,46,4,2,-1,0,0,-4,7
51550163456,31,7,-2,0,-1,-2,3,9
51550164999,-74,-9,-5,-2,1,-3,5,-21
51550164999,48,3,3,1,1,0,4,23
51550177913,-20,1,-18,-8,-7,-5,8,2
51550177913,56,4,7,1,-4,-4,-8,7
51550184783,-15,-9,-5,-3,2,1,-5,-6
51550184783,-2,-1,-14,-2,0,2,2,-7
51550200306,-28,6,5,-3,-1,-2,10,-18
51550200306,77,-2,-5,-2,-2,-3,2,14
51550207236,-51,-1,0,-2,-3,-4,-4,-1
51550207236,12,2,-2,3,1,3,7,-2
51550223600,44,-4,1,-3,-1,-3,-10,0
51550223600,-98,-2,0,-1,1,0,1,1
51550225038,8,-1,-2,2,2,2,3,6
51550225038,-22,2,4,-1,-1,-4,-13,-22
51550238610,48,-5,-4,-3,-7,-3,2,20
51550238610,4,-3,0,3,3,3,-4,-8
51550244734,-71,-16,-4,-2,-3,-3,-3,-16
51550244734,43,-11,14,-3,-1,0,2,2
51550259780,46,11,2,2,1,1,-6,2
51550259780,-110,-10,-10,-5,-2,-2,4,-12
51550267180,66,-3,-1,-1,1,1,5,6
51550267180,54,4,-1,-2,-1,0,3,11
51550282837,-75,-28,16,4,3,1,-8,-8
51550282837,12,0,-3,-1,0,1,0,14
51550283560,34,10,3,1,0,-1,-6,-2
51550283560,0,12,-1,-5,-4,-4,7,4
51550305403,1,5,0,3,2,0,-12,-23
51550305403,-27,0,-14,-3,-1,-3,2,0
51550305985,23,-3,10,0,-1,-2,-9,1
51550305985,-12,4,-8,-4,-3,0,8,-6
51550319792,72,6,-6,0,2,3,4,3
51550319792,-40,-5,-1,-3,-1,-2,4,-6
51550327280,22,10,0,1,0,2,-5,-6
51550327280,-18,-6,-4,1,-1,1,-7,-11
51550342799,4,-5,-6,-4,-3,1,15,14
51550342799,32,-2,3,1,-1,0,-1,-6
51550343573,-74,-8,-2,-2,-3,2,-5,-18
51550343573,-8,-2,2,3,1,-1,1,12
51550358620,29,6,3,-3,-1,-1,-3,-7
51550358620,-32,0,3,1,4,2,11,19
51550364694,-49,-27,5,-3,-6,-4,12,-1
51550364694,15,7,-4,-1,2,-2,-15,-10
51550379623,-18,-3,-2,3,5,0,-5,3
51550379623,-4,-5,4,-2,-4,-4,-2,-22
51550387231,19,-4,-1,-3,-2,-3,-3,31
51550387231,-86,6,10,1,1,-1,-5,-17
51550402929,2,4,-10,-3,-5,-2,2,-6
51550402929,27,3,3,4,2,2,-2,1
51550403517,81,2,-7,4,5,1,-3,9
51550403517,-30,-3,-4,-2,-2,-4,-6,0
51550418626,32,0,-6,-3,-2,-3,-1,6
51550418626,27,4,0,-1,-2,-3,-15,-9
51550424669,-13,-6,6,2,2,3,4,-2
51550424669,-25,-6,-10,-5,-4,-3,-3,6
51550439661,-36,-5,4,-1,0,0,-9,-12
51550439661,16,2,3,0,0,0,0,14
51550447198,-8,4,-8,-3,-1,-1,7,-11
51550447198,0,-9,-1,-1,-2,-1,-3,-5
51550462854,-82,-9,-1,-3,-5,-6,-16,12
51550462854,-35,-17,23,0,2,0,-10,0
51550463530,0,16,6,6,1,-1,19,5
51550463530,40,-8,1,1,0,2,12,7
51550478495,12,5,-3,-3,0,1,-2,-10
51550478495,-19,6,-4,1,-1,-3,-7,-4
51550484796,-4,18,-2,0,0,2,12,13
51550484796,9,3,6,2,3,-3,-5,-3
51550499698,10,1,0,-4,-1,1,0,0
51550499698,12,4,-12,-2,-5,-5,-5,-6
51550507197,-41,-11,0,0,1,0,-11,-22
51550507197,65,9,-4,-1,-1,-2,6,3
51550522855,-29,-8,0,0,0,-1,-9,-11
51550522855,-10,5,-4,-1,0,0,16,-5
51550523548,26,-10,-7,-5,-3,-3,-15,1
51550523548,-31,4,0,0,1,3,8,-9
51550538542,-26,-8,1,-2,-2,-3,1,14
51550538542,43,3,1,-1,0,2,5,-2
51550544664,11,0,-5,-5,-1,0,-13,-15
51550544664,29,7,1,1,-3,-1,7,19
51550559644,13,-11,17,4,0,2,8,0
51550559644,-46,-4,-19,-2,-2,1,8,-6
51550567168,7,19,-5,-3,0,-1,-20,6
51550567168,-13,-13,7,1,0,1,-4,11
51550582913,18,5,-11,0,1,1,-6,-16
51550582913,15,-8,-4,-5,-3,-4,16,17
51550583529,-74,0,-1,2,0,-1,-16,-14
51550583529,-29,-5,-10,-6,-5,-2,-9,-24
51550598617,25,6,-1,1,2,-1,7,9
51550598617,21,18,-7,3,3,3,-6,8
51550604741,19,-1,-1,-8,-6,-6,8,-7
51550604741,30,0,-2,-2,-2,-1,1,-3
51550619684,-41,-1,1,-3,-5,-7,-20,4
51550619684,44,-9,0,0,3,3,15,6
51550627228,13,-2,-6,1,0,-1,13,14
51550627228,19,-10,13,4,3,1,-9,-6
51550642908,-7,-7,6,0,-3,-2,3,2
51550642908,17,-6,-14,-7,-3,-1,-1,-11
51550643552,-36,-6,7,-1,-4,-4,-4,-4
51550643552,-22,-2,-5,-4,-2,-4,-7,-4
51550658630,-26,1,1,1,1,2,1,-13
51550658630,21,-2,2,-1,-3,-2,-2,-4
51550664812,28,-3,-1,-3,0,2,6,-1
51550664812,-76,-3,-5,-1,-3,-2,-9,5
51550679805,27,1,-2,-2,0,0,-4,-9
51550679805,-14,-2,4,3,3,5,-5,17
51550687236,25,-1,19,1,2,1,4,-17
51550687236,64,4,-1,-2,-4,-2,-3,10
51550702708,4,17,-7,-3,-4,-5,-11,-20
51550702708,-15,-13,2,-1,0,2,19,28
51550703575,22,9,1,2,1,1,-1,4
51550703575,21,4,-7,-1,0,0,4,0
51550718509,14,-20,16,3,-1,-2,0,-9
51550718509,-17,1,2,-1,-3,-4,-21,-22
51550724632,23,-2,-8,1,-1,1,7,28
51550724632,10,5,-1,-4,-2,-4,-5,-9
51550739634,-1,7,-8,-1,-2,1,10,6
51550739634,-67,-11,-3,-3,-1,-2,-3,-24
51550747040,-7,-2,1,1,0,1,-13,-12
51550747040,34,-9,2,0,-2,0,-5,6
51550762844,-28,-2,-12,-3,1,-3,-2,-9
51550762844,55,5,5,2,1,0,-11,3
51550763461,-46,-15,-6,-3,-3,0,-2,-12
51550763461,-11,-3,-7,0,1,0,4,16
51550778522,57,14,-1,-4,-2,2,5,-2
51550778522,-65,-6,21,4,0,0,-10,-13
51550784707,76,10,-5,-1,-1,1,1,16
51550784707,-40,-10,-3,-2,0,2,-2,-9
51550799543,12,-5,3,3,1,1,5,14
51550799543,15,10,-5,-5,-4,-3,-5,-10
51550807189,-23,-18,1,-1,0,-1,7,11
51550807189,-32,-8,10,3,1,1,6,-14
51550822111,61,5,-6,-1,-2,-2,8,14
51550822111,-13,1,-6,-1,-1,-5,-11,-10
51550829716,-15,3,0,-2,-3,-4,1,-4
51550829716,22,9,-2,0,4,1,3,13
51550838617,-31,-14,-2,3,6,6,15,12
51550838617,-18,-4,3,0,-4,-4,4,-34
51550844705,25,0,1,1,-2,-3,-6,3
51550844705,-63,-5,-3,-3,0,-2,-3,-2
51550859726,-17,-1,0,-1,0,-2,1,4
51550859726,-6,-8,-7,-4,-3,-1,-3,42
51550867244,-1,7,7,1,-3,-2,16,-26
51550867244,52,5,-2,0,-2,-1,-1,-20
51550882239,-92,-7,-4,-7,-6,-3,-27,-17
51550882239,84,2,-10,-1,-4,-4,16,34
51550889743,56,-1,13,1,2,2,-14,-26
51550889743,-67,-17,-8,-3,-2,0,2,-2
51550898534,-3,-1,1,-1,-1,-1,5,-1
51550898534,44,5,-3,-1,-3,-3,-8,-8
51550904635,-72,-4,-9,-4,-6,-6,-11,8
51550904635,49,9,-4,1,3,1,6,2
51550919728,-20,-2,10,1,-2,0,0,-14
51550919728,-51,-6,-14,-2,2,3,-1,-7
51550927114,19,5,-4,-1,0,0,6,13
51550927114,-11,5,0,-1,-2,-3,-16,-4
51550942233,17,1,-8,-4,-3,-4,5,3
51550942233,9,2,5,-2,-3,2,-1,27
51550949653,-6,-4,-1,3,3,2,16,-19
51550949653,88,-9,-7,-2,-3,-3,-20,11
51550965341,21,5,1,-1,0,2,25,-2
51550965341,-21,-5,1,-3,-5,-7,-20,-17
51550966040,-27,-4,-4,-1,-2,-1,-6,0
51550966040,-13,-2,0,-1,0,-1,26,16
51550979782,0,1,4,1,3,2,-9,8
51550979782,-2,-3,11,0,-1,0,-3,-6
51550987259,-46,5,-18,-3,-4,-4,-13,5
51550987259,6,1,-1,-3,-4,0,-10,-34
51551002185,-73,-21,-6,-1,-5,2,32,25
51551002185,14,12,1,0,1,0,-6,-13
51551009647,30,-5,-5,-3,-2,-2,-3,17
51551009647,46,6,1,-1,-2,-3,-20,-2
51551025245,-23,-4,-3,0,4,1,-9,-2
51551025245,-46,-26,0,1,2,1,4,-21
51551026038,51,16,-2,2,1,1,8,3
51551026038,6,-4,0,0,-4,-3,7,18
51551039688,12,-2,0,0,-2,-4,-3,-23
51551039688,46,-2,0,-4,-4,-6,-10,-10
51551047160,-63,-6,5,-2,2,2,12,12
51551047160,-39,-13,-1,1,4,1,-20,-20
51551062057,56,13,-2,4,1,-1,4,7
51551062057,-45,-5,-4,-7,-4,-4,-4,-19
51551069592,-6,-4,-1,-3,-2,-4,3,7
51551069592,-1,2,-8,-1,1,-1,8,6
51551085309,17,-4,-2,-1,-2,-2,-18,-15
51551085309,57,8,8,5,2,1,-1,17
51551086106,-17,-7,-7,-1,-2,0,-5,3
51551086106,3,0,-1,2,-1,-1,5,-5
51551099621,-11,13,-2,-3,-2,-4,-13,-2
51551099621,-5,4,1,2,3,2,1,2
51551107131,3,-6,2,2,0,2,4,5
51551107131,-18,3,1,-1,-4,-1,-10,2
51551121976,24,-2,6,-1,0,-1,4,-34
51551121976,48,6,-2,-2,2,1,6,5
51551129645,-71,-13,-1,-5,-4,-6,-17,-14
51551129645,-14,4,1,1,2,0,10,10
51551145304,20,-7,-4,-5,-2,2,1,20
51551145304,-21,-22,6,-3,-5,-2,3,-12
51551146080,59,18,-1,-5,-3,-1,8,10
51551146080,0,1,10,-3,-3,-4,-4,-18
51551159671,18,1,-2,1,1,0,-19,15
51551159671,-8,5,-5,-2,-2,-2,15,4
51551167153,66,-5,2,-1,0,0,-11,17
51551167153,-51,2,-4,-5,-2,-2,8,-1
51551182144,5,-7,25,3,1,0,4,-4
51551182144,-19,-1,-4,4,1,1,-12,2
51551189697,-11,0,-6,-1,-2,-2,3,-7
51551189697,47,8,0,-1,-1,3,-2,-1
51551205181,-54,5,-13,-3,-3,-5,-1,-8
51551205181,22,11,4,-1,-1,1,1,12
51551206154,-11,-14,1,2,3,4,7,-9
51551206154,-30,2,-1,-1,-4,1,-7,3
51551219695,-49,-13,-9,-1,-2,-2,-5,2
51551219695,34,11,1,-4,-6,0,1,1
51551227259,-31,2,-3,2,2,-1,-2,-4
51551227259,0,-5,1,0,-1,0,9,-12
51551242132,41,-2,-3,0,-1,-2,-10,11
51551242132,5,-1,-1,-3,-5,-2,8,4
51551249611,48,3,5,0,1,2,-13,-1
51551249611,44,17,-3,3,-1,-3,9,21
51551265309,-53,-12,-1,1,3,1,4,-5
51551265309,-58,-5,-7,-1,-1,-3,-22,-28
51551266053,26,9,-3,-3,0,-2,5,5
51551266053,-5,-8,8,1,0,-3,-13,-9
51551279700,88,5,15,3,2,0,-6,-5
51551279700,-52,-6,-4,-1,-2,-3,7,13
51551287189,-5,-2,-4,-3,-3,-1,1,-4
51551287189,-12,-7,1,4,1,2,-5,0
51551302075,30,10,-9,-3,-4,-4,-7,12
51551302075,12,-10,-8,-3,0,0,12,7
51551309609,25,7,8,1,-2,-5,3,9
51551309609,-10,-9,-5,-5,2,1,11,-31
51551325430,8,1,-4,-3,-4,-4,-1,4
51551325430,-17,0,-2,2,3,3,-3,-21
51551325988,37,0,-3,-1,-3,-3,4,16
51551325988,-26,-4,-3,0,0,-1,-14,-20
51551339706,-26,-4,-9,-4,-1,-4,-2,7
51551339706,-28,-2,3,3,1,0,4,1
51551347173,46,4,0,0,0,1,-10,-10
51551347173,-65,-11,-2,-2,-1,-4,1,-3
51551362185,42,-3,-5,-3,-3,0,0,-9
51551362185,-6,4,-7,-3,-2,-4,4,-1
51551369721,-61,-13,1,-2,-5,-3,-14,-2
51551369721,24,3,3,-2,-3,-2,1,18
51551385360,-52,1,-2,-2,-2,1,2,-5
51551385360,96,-2,-5,1,0,-1,5,21
51551386020,-13,-7,-6,-5,-2,1,-2,-15
51551386020,-8,5,6,0,-1,-3,-6,-10
51551399534,15,18,0,0,-1,-1,10,21
51551399534,-36,5,-6,-2,0,1,2,-8
51551407199,-72,-6,5,3,0,-4,-18,1
51551407199,38,0,3,-1,-2,1,-3,2
51551422194,26,-2,3,2,-1,2,3,-7
51551422194,-57,-4,0,-2,0,1,6,4
51551429583,-6,2,-6,-1,0,0,5,-12
51551429583,30,-4,-7,1,1,3,-2,25
51551445173,-92,-11,-7,-3,-4,-5,-15,-30
51551445173,58,10,7,1,-1,4,17,7
51551446110,-51,-7,0,3,1,2,6,3
51551446110,6,0,-2,-6,-5,-5,-1,-2
51551459469,15,6,4,-1,1,1,1,0
51551459469,-21,-10,4,1,1,-1,-7,-2
51551467206,-7,4,0,0,0,3,7,-4
51551467206,66,-5,9,2,-2,-3,-9,-11
51551482045,-19,-2,-6,-4,-3,-3,-3,2
51551482045,-19,-2,-3,-3,-1,-3,10,9
51551489523,26,5,14,0,1,-3,1,-3
51551489523,-21,2,-9,-2,0,-1,-22,14
51551505327,62,-1,-2,-1,0,-1,9,-26
51551505327,-36,-10,2,0,0,-2,-18,-28
51551506025,53,8,-5,-5,-5,-4,0,22
51551506025,4,-3,-5,-2,0,0,2,-25
51551519785,-9,-25,13,-3,-3,-4,-14,16
51551519785,-55,5,-11,-1,0,0,-9,-2
51551527169,76,0,-4,-2,0,0,9,15
51551527169,-42,-8,-3,-1,1,0,-3,3
51551542223,18,4,-13,-2,-2,0,6,5
51551542223,-4,-13,3,0,-1,0,-9,-8
51551549732,20,4,0,-2,0,-1,-8,20
51551549732,-73,-6,-2,-1,2,4,14,-34
51551565305,26,0,8,2,3,2,-34,20
51551565305,23,-1,-4,-3,-2,-2,29,-31
51551566031,9,8,-5,1,1,0,0,25
51551566031,-1,-11,22,1,2,3,25,-59
51551579672,10,12,-9,-5,-5,-5,5,7
51551579672,42,5,-2,-2,1,-1,-34,-2
51551587183,0,-13,0,-3,-4,-1,23,3
51551587183,18,1,1,2,-1,-5,-12,32
51551602048,-32,-3,-5,0,2,2,23,-1
51551602048,55,-2,9,-4,-2,0,-8,20
51551609697,-78,0,-9,-1,-4,-3,-12,-21
51551609697,58,3,-10,1,1,0,-20,3
51551625337,-77,0,4,-5,-5,-4,2,10
51551625337,50,11,-1,3,2,0,4,19
51551626098,-50,-11,0,0,1,3,-3,-37
51551626098,1,6,-6,-1,-1,0,6,32
51551639801,28,0,3,4,4,0,-4,-16
51551639801,3,10,-4,-2,-5,-2,-1,-3
51551647171,-14,-7,-2,-1,-1,0,-10,-2
51551647171,17,8,-2,-1,-2,-1,17,25
51551662225,11,4,11,0,-4,-1,4,-12
51551662225,-47,-13,1,2,1,2,-2,3
51551669724,-6,-2,-2,-1,-2,-1,32,8
51551669724,11,1,-7,-5,-6,-3,-13,-15
51551693529,-23,-1,-13,1,1,4,-2,-6
51551693529,-31,-7,-4,-7,-7,-6,-19,-1
51551694155,-10,-17,15,1,-4,-4,-18,-19
51551694155,-9,9,-3,-2,-2,-2,32,8
51551699828,-88,-17,-13,1,1,0,-7,-11
51551699828,70,12,9,1,0,0,1,6
51551707138,29,12,-10,-2,-1,-2,-3,-5
51551707138,-25,-15,6,-1,-1,-4,-6,5
51551722090,35,2,-6,-1,1,-1,-3,8
51551722090,-30,-6,-7,0,1,-2,0,-14
51551729776,-11,-3,-5,-2,1,0,-17,-7
51551729776,-46,4,-8,-4,-5,-4,-4,-3
51551744502,-38,-10,7,3,3,3,13,4
51551744502,4,5,0,-4,-5,-4,3,3
51551752760,51,10,-5,-2,-2,-1,-2,3
51551752760,-37,-12,-1,0,2,4,-10,-12
51551759518,-45,-5,-6,-5,-3,-3,-12,-22
51551759518,-5,-11,-11,-3,-1,-3,22,0
51551767171,15,-6,4,5,0,-1,2,11
51551767171,69,3,-4,0,2,1,0,11
51551782206,32,17,2,-3,-5,-2,0,6
51551782206,-32,-6,-5,1,1,0,-8,-6
51551789712,10,3,-10,-3,-5,-3,-5,-13
51551789712,-35,5,7,4,1,-3,-2,1
51551804716,51,-4,6,-5,-6,-4,2,17
51551804716,-9,2,1,-2,0,0,2,2
51551812845,21,-3,-3,-2,-1,1,10,-1
51551812845,-11,-7,-1,-3,-1,-1,-8,23
51551819526,-20,-11,-6,-1,-2,0,-3,-6
51551819526,18,5,3,-1,-3,-3,-9,-2
51551827166,-86,-15,-1,-3,-1,-4,5,-15
51551827166,65,-5,-4,2,2,-1,-1,-2
51551842203,-58,-2,-4,-1,-1,-1,-7,-7
51551842203,25,0,2,2,-1,0,12,-1
51551849674,45,-2,4,3,2,2,-17,-6
51551849674,-83,7,-6,-8,-7,-5,0,18
51551864508,35,-11,14,2,1,1,8,-21
51551864508,-1,4,5,3,-1,1,-13,2
51551872960,-29,13,-1,2,0,0,-6,1
51551872960,22,-1,-3,-5,-5,-1,10,4
51551879681,21,8,-2,1,-1,-3,-8,-17
51551879681,35,13,-2,4,4,2,2,15
51551887157,-10,-9,15,-2,-5,-4,0,-1
51551887157,-7,8,0,0,-1,-2,-4,27
51551902122,21,6,-2,2,2,4,-1,-2
51551902122,7,-5,-3,-2,-1,0,3,6
51551909619,8,2,-7,-2,0,0,8,-9
51551909619,-41,0,1,-1,-1,-1,-2,-14
51551924765,67,12,1,0,-2,-3,-19,4
51551924765,-37,-20,-9,-1,-3,-5,15,22
51551932826,8,2,0,0,0,0,-1,0
51551932826,24,0,-28,-7,0,1,3,-5
51551947890,-64,0,3,5,7,2,6,3
51551947890,42,2,-4,-3,-2,-4,-6,-20
51551948464,-32,0,10,2,1,0,-9,9
51551948464,37,-17,-1,-6,-4,-3,-14,-20
51551962215,13,11,-3,-2,-4,-2,20,12
51551962215,-55,-5,4,-3,-2,-3,-9,0
51551969630,27,2,-9,-2,-1,-2,-6,3
51551969630,-53,-17,5,1,-2,1,-2,-11
51551984618,37,0,4,-2,-2,-2,-1,8
51551984618,-24,-3,3,2,3,0,-11,-5
51551992715,7,-3,4,3,2,1,1,-5
51551992715,7,3,4,-1,-3,-4,-6,-10
51552007852,20,-3,-5,-4,-3,-2,3,25
51552007852,-51,-4,-4,-1,-1,2,-1,-28
51552008401,-21,-4,-2,-1,-1,1,-1,-31
51552008401,7,12,3,4,3,1,8,18
51552022110,52,8,3,-1,-1,-1,5,5
51552022110,-2,-5,2,1,0,-1,-5,2
51552029659,-7,-2,-2,-3,-1,-1,-15,-13
51552029659,11,5,-1,-2,-1,-1,0,0
51552044583,75,18,-13,-4,-2,1,8,0
51552044583,10,-7,2,2,0,2,4,13
51552052816,12,0,-5,-5,-4,-2,-5,-9
51552052816,-33,-7,-1,-1,-4,-3,6,-1
51552067851,-1,4,-4,-2,0,-3,-18,10
51552067851,-37,-12,1,-1,1,2,0,-10
51552068419,-12,1,0,-1,-2,-1,12,9
51552068419,57,-12,3,2,4,5,-10,-19
51552082181,-42,0,4,-3,-3,-3,-16,0
51552082181,-4,5,-2,0,-1,2,13,-5
51552089682,-1,2,2,-2,-3,-6,-18,4
51552089682,-1,-3,2,2,1,1,4,-5
51552104681,-18,-8,-2,1,0,2,-3,0
51552104681,15,2,8,-4,-6,-2,5,-11
51552112873,-27,7,-6,0,-1,-2,-4,-1
51552112873,21,16,-10,-7,-8,-6,0,6
51552127804,-81,-18,4,0,4,1,-2,-11
51552127804,97,6,-4,0,-2,2,17,24
51552128473,-41,-13,-2,0,0,1,4,-5
51552128473,-5,5,-12,-2,-5,-5,-3,20
51552142218,-57,-14,-4,-3,-1,-4,-1,-35
51552142218,20,-2,1,-2,0,-1,-8,-11
51552149620,10,6,1,-3,-1,1,12,29
51552149620,2,2,-2,2,0,-1,-1,5
51552164712,33,4,4,-1,-2,-2,7,-5
51552164712,10,11,-8,1,-1,-1,-11,19
51552172834,6,-2,-10,-1,0,-2,0,-7
51552172834,-19,5,9,0,1,-2,1,1
51552187687,15,-11,-2,-5,-4,-4,1,3
51552187687,-10,1,5,-2,0,-3,-9,-9
51552188667,68,6,-1,-2,0,-1,7,4
51552188667,-16,-12,-1,1,3,3,2,-1
51552202080,7,9,-3,1,1,0,-6,-6
51552202080,-82,-4,-16,-8,-3,-5,-6,-5
51552209560,16,-4,-1,-4,-1,-4,-10,-2
51552209560,2,0,4,3,5,3,2,-5
51552224703,38,-3,0,1,-1,-1,14,5
51552224703,49,-9,-10,-3,-1,-2,-4,-9
51552232857,-39,-13,1,2,0,1,4,7
51552232857,-17,-4,2,-2,-4,-4,-11,-8
51552247857,-12,3,-6,-2,1,-2,0,6
51552247857,41,10,3,4,0,-2,-5,-6
51552248459,8,-14,0,-4,-3,-4,-3,-7
51552248459,-38,6,4,6,5,5,4,1
51552262187,30,7,-4,1,-2,2,3,3
51552262187,-42,-3,6,-3,-3,-4,-11,-14
51552269623,-56,-1,8,4,3,0,7,-3
51552269623,50,4,0,-3,-3,-3,-10,2
51552284655,2,-2,5,1,-1,-3,11,-5
51552284655,-12,6,-6,-3,-4,0,7,9
51552292878,18,3,1,2,1,1,-11,5
51552292878,25,1,-6,-2,0,0,-9,-11
51552307834,-11,0,-2,2,2,1,5,-1
51552307834,8,9,-14,-4,-4,-4,-7,7
51552308482,34,-2,-5,-1,-1,-1,17,14
51552308482,-23,2,-3,-2,-2,-2,-11,-8
51552322140,-12,-32,25,4,2,6,-6,-11
51552322140,-4,-2,1,0,-1,1,9,-6
51552329618,-5,1,-3,-2,-2,0,-3,6
51552329618,8,-8,-3,-2,-1,0,7,-2
51552344645,-42,6,-21,-3,1,2,0,-7
51552344645,33,9,3,3,1,-3,-8,0
51552352881,-19,-4,-1,-3,0,3,3,-5
51552352881,26,9,4,1,-3,-2,7,12
51552367723,15,-6,-6,-4,-2,-1,-5,-3
51552367723,24,-21,14,7,5,3,1,-13
51552368502,-13,7,0,-9,-9,-7,-19,-1
51552368502,23,-7,-5,-2,-3,-3,21,6
51552382165,-2,2,-1,3,0,0,-9,1
51552382165,12,-4,-3,1,2,2,9,11
51552389649,-23,-1,0,0,-1,-3,-6,-16
51552389649,24,-2,5,0,-2,0,17,0
51552404695,21,2,-1,-1,-1,-3,-9,2
51552404695,-92,-3,-3,-4,-3,-4,-11,-13
51552412835,4,0,-2,1,1,3,0,16
51552412835,7,6,4,1,1,0,-3,-12
51552427863,-13,4,-7,-4,-3,-5,1,-1
51552427863,82,8,4,-3,-2,-1,0,22
51552428420,-58,-9,-2,-1,0,-1,13,14
51552428420,-19,1,6,-1,2,0,-25,-46
51552442163,6,-10,4,1,-2,-3,-1,9
51552442163,52,12,-3,-1,-2,-5,3,5
51552449691,-13,-15,10,7,6,7,11,12
51552449691,25,3,-2,-2,-3,-1,-7,-1
51552464609,-23,-1,-10,-3,0,-1,3,5
51552464609,-16,-3,-4,-2,-1,-2,-1,2
51552472756,27,11,7,1,-1,-2,-3,-10
51552472756,11,-5,-2,-1,-2,2,2,18
51552487631,2,-6,-2,-4,-5,-3,-4,-8
51552487631,11,-1,2,0,0,-1,-1,10
51552488595,-50,5,-6,1,-1,-2,-10,-33
51552488595,-16,-12,-1,0,0,0,1,3
51552502069,60,10,-2,-2,-4,0,4,2
51552502069,-89,-13,-2,0,0,1,-14,0
51552509609,-24,-5,-3,-1,-1,-1,-13,-5
51552509609,-50,-4,-4,0,-1,-3,5,18
51552524520,26,0,0,0,-1,2,-13,-20
51552524520,-5,1,4,1,1,-1,10,5
51552532720,35,8,0,-2,-2,0,8,-4
51552532720,-64,-1,-12,-1,-1,1,-11,-7
51552547782,37,-13,4,-2,-2,-2,6,2
51552547782,-29,-10,2,0,-3,1,1,-6
51552548472,16,1,-2,0,-1,-2,-14,9
51552548472,-23,8,-10,-2,-1,1,20,2
51552562092,-29,9,-12,-5,-3,-2,-3,-5
51552562092,32,-9,3,0,0,-1,-7,9
51552570332,-27,-4,0,1,1,4,16,-23
51552570332,26,-3,3,-1,-2,-1,-8,-7
51552584706,-64,9,-2,0,-1,-2,-3,-2
51552584706,10,-2,-3,-6,-2,-3,-3,-2
51552592718,45,3,-6,-2,-2,-3,3,9
51552592718,-16,-5,4,2,4,0,-6,-8
51552607665,-94,-10,6,1,-1,-1,2,21
51552607665,17,1,0,2,1,0,7,-14
51552608463,28,-2,2,-1,-1,-2,-6,10
51552608463,16,5,0,-3,-3,-1,10,-4
51552622117,5,-13,-2,0,1,0,-15,2
51552622117,-9,4,0,-1,-1,-2,-3,-9
51552630302,21,6,-3,-3,-2,-3,2,-1
51552630302,5,4,-5,-5,-5,-5,11,-1
51552644685,18,10,25,4,2,1,-11,-12
51552644685,-4,-2,0,0,0,2,5,-3
51552652830,18,-3,-2,2,1,-1,2,-9
51552652830,11,-7,10,0,-1,-3,-14,9
51552667204,23,14,-4,1,1,0,11,12
51552667204,-16,-1,-2,-5,-5,-3,-9,-18
51552675278,-39,0,2,-3,-3,-2,5,1
51552675278,-34,-17,-5,-1,3,-1,-5,-14
51552682195,-33,-6,-3,-1,0,-1,-9,-10
51552682195,-5,9,-2,0,0,-3,9,23
51552690336,5,-4,-7,0,1,1,1,-1
51552690336,-2,-3,0,-3,-4,-1,-1,0
51552704666,-14,-15,8,1,1,0,-2,7
51552704666,21,-6,-3,-2,0,0,5,-10
51552712803,-5,1,1,1,-2,-2,-7,-3
51552712803,19,6,0,-2,-1,-2,-5,0
51552727255,25,3,-1,-3,-1,0,9,4
51552727255,-18,8,-1,-1,-2,1,-6,-1
51552735307,30,-15,4,-1,-3,-2,6,13
51552735307,-56,-7,0,1,0,-3,-8,-6
51552742039,9,2,-15,-1,1,-1,4,8
51552742039,-9,-2,0,-2,-6,-5,4,-3
51552750281,49,10,0,-3,-1,-1,-15,-19
51552750281,55,7,18,1,1,3,22,31
51552764556,-44,-10,-4,-3,-4,-1,2,-14
51552764556,56,17,3,3,4,5,15,-3
51552772731,-82,-12,-4,2,1,4,1,0
51552772731,49,3,-5,2,1,-2,-21,-4
51552787152,20,-6,3,0,-2,-1,0,0
51552787152,-20,-16,5,2,0,0,-1,4
51552795302,82,7,-6,-5,-2,1,10,13
51552795302,-22,5,-2,0,1,2,3,-3
51552802017,6,7,-7,-1,1,2,2,-6
51552802017,-19,2,-8,-6,-6,-5,-13,-2
51552810300,32,-4,5,4,1,-1,-1,11
51552810300,-21,-14,-6,-2,-3,-3,1,-18
51552824674,-6,7,-1,-3,-3,-5,2,5
51552824674,-30,-7,-12,0,2,-2,-5,-7
51552832876,-9,-20,7,0,2,-1,-16,-1
51552832876,50,5,-3,-4,-3,-3,4,-4
51552847172,-50,-14,-6,-4,-3,0,9,-9
51552847172,10,13,14,5,2,-4,-14,-9
51552855392,-91,-8,-7,-10,-6,-2,-2,-20
51552855392,58,7,-2,-2,-5,-4,-3,19
51552870862,-2,-7,1,4,4,2,4,8
51552870862,4,10,2,0,0,3,4,7
51552871614,-36,-3,-4,1,5,0,-3,-15
51552871614,51,-1,-3,-5,0,4,-5,0
51552884683,21,-2,-6,-3,-5,-2,7,7
51552884683,14,-7,-2,1,1,-1,3,6
51552892741,24,23,-20,-2,0,0,1,-3
51552892741,-35,2,-5,2,1,0,-3,-1
51552907036,38,8,5,-6,-6,-4,-12,-3
51552907036,10,-10,-2,1,2,1,3,-3
51552915328,-40,3,0,-9,-8,-6,0,8
51552915328,29,-3,-1,4,0,-2,-9,-5
51552930996,9,11,-1,-6,-5,-6,-9,4
51552930996,-4,1,4,1,2,2,-15,-10
51552931672,13,-2,0,-1,-2,-1,14,13
51552931672,1,-6,-3,-2,-1,0,6,-5
51552944579,30,-9,0,4,3,1,-10,-8
51552944579,3,-5,-4,-4,-2,-1,-22,-1
51552952846,42,4,5,6,1,0,6,14
51552952846,-53,-6,-11,-4,-4,-1,0,-12
51552967004,83,-2,27,3,1,2,5,4
51552967004,-69,-4,-2,-1,-4,-3,-9,-20
51552975403,33,-3,16,4,0,0,-4,13
51552975403,-9,5,-1,-3,1,0,4,-4
51552991049,-8,1,-9,-2,0,2,-14,14
51552991049,30,0,-9,-4,-3,-1,18,11
51552991652,-11,9,-3,-1,0,-1,5,-33
51552991652,-47,-18,3,3,2,1,-14,1
51553004493,-33,4,-7,-1,0,1,5,-6
51553004493,-46,-4,4,-2,-4,-2,4,7
51553012694,-2,-3,-9,1,-1,-2,0,-1
51553012694,-34,1,2,1,2,1,-5,-6
51553027065,33,-4,-6,0,-1,-1,-3,-5
51553027065,-26,-8,0,-4,-3,-3,-1,3
51553035948,2,-3,-4,-4,-3,-2,2,-2
51553035948,24,11,2,0,-2,-3,-1,11
51553049526,-65,-9,-7,2,1,-2,-11,-7
51553049526,-37,3,-1,-3,2,2,8,-2
51553058450,57,2,3,-2,-4,-2,-13,10
51553058450,-48,-5,-1,-2,-3,-4,8,-3
51553064612,16,5,-6,-1,1,-1,3,10
51553064612,7,-3,-2,0,2,-1,-1,-10
51553073488,-41,-6,16,2,1,0,-6,-4
51553073488,18,-18,21,-1,0,0,1,-2
51553087073,-42,3,-2,-1,-2,-2,2,9
51553087073,35,13,5,-2,-3,-4,-1,0
51553095983,-5,-6,-5,0,2,1,-6,-4
51553095983,16,3,-9,-3,-3,-1,12,5
51553109665,-47,0,-3,3,5,2,5,19
51553109665,49,-9,2,-6,-8,-5,-6,-23
51553118448,-1,5,-10,-5,-5,-5,0,0
51553118448,3,4,-6,3,2,0,-5,0
51553124643,-8,-9,-3,-8,-4,-2,-7,-5
51553124643,25,1,-3,-3,-5,-4,8,6
51553133448,7,-5,2,0,3,2,-4,-5
51553133448,-51,-2,-4,0,-2,0,4,10
51553147535,19,6,6,5,2,3,-5,-24
51553147535,-5,-3,-5,1,1,-1,-2,13
51553155947,38,0,-1,-1,-1,0,2,7
51553155947,-84,-2,9,-2,-2,-1,1,-12
51553170290,34,5,-9,-1,0,0,-8,-13
51553170290,11,-10,4,2,3,2,8,12
51553177135,18,3,0,-3,-5,-2,-1,-1
51553177135,10,2,-9,-5,-4,-3,0,-3
51553184637,-18,1,-1,-1,-1,-5,2,0
51553184637,27,-5,-5,2,5,3,2,0
51553193495,0,34,-27,2,4,3,-3,1
51553193495,58,2,-3,1,1,-2,-1,11
51553206973,-17,-3,-1,-5,-5,-3,-8,-42
51553206973,13,5,3,0,-5,-6,-17,-1
51553215985,31,2,3,-1,1,4,17,24
51553215985,-10,-7,-5,1,0,2,-2,-4
51553230340,-5,-1,4,0,-2,-3,10,4
51553230340,63,0,-10,1,2,4,2,10
51553237049,3,-1,0,-2,-3,-6,-7,-17
51553237049,25,-5,-3,-3,-2,-2,-9,7
51553244616,18,-5,4,-1,-4,-2,4,-16
51553244616,-66,2,1,3,1,0,2,-11
51553253505,-9,-8,-10,-3,-2,-5,-4,-9
51553253505,-3,0,1,-5,-3,-2,0,4
51553267113,66,0,-8,1,-2,-2,-10,19
51553267113,-9,-10,10,1,-2,0,-1,6
51553275970,-38,6,-9,-1,-3,-3,2,-14
51553275970,-24,-4,2,1,3,1,-16,-4
51553290334,-4,5,-4,-3,0,1,21,8
51553290334,-46,-10,-6,-4,-4,-3,-10,-15
51553297212,-21,-13,0,-3,1,1,25,53
51553297212,60,7,10,4,0,-1,3,-24
51553304635,-20,13,0,-2,-2,-1,-4,9
51553304635,-64,1,-11,-9,-4,-2,-8,-28
51553313469,74,-6,9,1,2,1,-4,-10
51553313469,23,8,-10,-2,-3,-1,5,8
51553327099,-15,-7,3,3,2,2,-8,14
51553327099,30,6,-18,-5,0,-3,-5,-26
51553335952,-55,-6,9,2,-2,-2,-11,-12
51553335952,-12,-6,-4,-2,-1,-1,-2,3
51553350974,2,6,12,-3,-3,-1,5,5
51553350974,59,15,-1,2,2,2,10,5
51553352433,-108,-20,6,0,1,2,-13,-18
51553352433,85,-6,-4,-1,-1,0,0,17
51553364665,39,18,-14,-6,-5,-6,16,14
51553364665,0,-9,5,2,3,1,4,3
51553373429,-32,-7,-14,-6,-6,-4,-7,-7
51553373429,-3,0,4,1,-1,-1,-4,-19
51553387162,1,-5,-5,-3,1,2,10,12
51553387162,5,1,5,2,0,-1,-2,15
51553395922,-72,-17,-5,-2,-2,-1,-5,-11
51553395922,-1,4,2,-3,-2,-1,2,6
51553410889,32,-6,-2,0,-1,-5,-14,-19
51553410889,-3,-7,1,0,-2,-1,0,10
51553412392,9,-5,5,2,1,1,-4,-22
51553412392,-55,-5,0,-1,0,1,12,10
51553424667,-32,13,-6,-2,-3,-2,-3,-11
51553424667,34,2,1,-2,-1,-1,-6,-8
51553433451,63,5,-2,-2,-3,-3,15,11
51553433451,91,15,12,3,3,2,-14,8
51553447080,-92,-19,0,3,2,3,10,-1
51553447080,-71,-19,-6,-5,-5,-3,-15,1
51553455930,11,3,-2,-1,0,1,-1,-12
51553455930,-38,-2,-3,-1,-4,-4,-13,-18
51553470864,20,-8,6,2,2,3,4,6
51553470864,2,6,2,1,-2,-3,-1,-3
51553472432,6,-8,5,1,4,2,3,26
51553472432,-38,4,-8,-5,-3,0,-3,-20
51553484586,-21,-6,-3,0,1,-1,-11,-18
51553484586,-13,3,2,-1,-2,-5,4,18
51553493439,24,10,-3,-1,-2,-3,-8,0
51553493439,12,-3,-1,2,2,0,13,11
51553507157,30,1,3,0,-3,-2,-8,1
51553507157,-4,-2,-2,-3,-1,0,6,-3
51553515921,-5,9,3,-1,-2,-2,-4,9
51553515921,13,5,-9,0,-2,-2,-1,-1
51553530979,-7,-13,-8,-4,0,-1,5,-13
51553530979,48,7,3,3,1,3,0,1
51553532398,-61,-8,-2,-2,-2,-3,-13,0
51553532398,-41,9,-6,-1,1,1,10,-3
51553544628,38,-1,1,-1,0,-1,-4,15
51553544628,12,2,-2,2,3,3,6,4
51553553467,-20,3,-3,-2,-2,-2,-6,-25
51553553467,-35,-1,0,0,-1,-4,7,13
51553567134,24,-23,16,-1,-4,-5,-2,7
51553567134,-35,5,-3,0,3,2,-11,-9
51553575967,103,-13,13,0,-3,2,12,8
51553575967,-56,-10,2,-3,-2,0,-8,6
51553590902,-34,7,-7,-4,0,-3,5,-7
51553590902,-12,-2,2,-4,-4,-4,-15,-13
51553592426,65,14,5,3,-1,0,13,13
51553592426,-65,-7,1,-3,-2,-4,-11,-16
51553604590,8,-2,-4,0,0,0,9,18
51553604590,15,11,0,1,2,2,0,-6
51553613419,-72,0,-4,-3,-1,-1,-5,-2
51553613419,97,8,2,0,-2,-1,0,8
51553627073,-49,-6,1,-1,-5,-1,-13,-23
51553627073,-15,-3,-6,-2,-2,1,12,31
51553635919,41,-3,-4,-1,-2,-3,5,-9
51553635919,47,-6,0,0,-3,-3,-4,-1
51553650273,-29,-3,-1,1,-1,-3,-19,-10
51553650273,12,-5,-1,1,0,-1,3,13
51553657083,-16,2,-3,-1,0,2,5,4
51553657083,48,-8,2,-2,-2,0,1,-15
51553664699,-3,16,3,2,-1,-1,3,10
51553664699,-80,-17,-2,-2,-1,-1,5,-6
51553673432,27,0,11,3,-1,-3,-3,4
51553673432,-18,-3,1,-1,-2,-2,1,-15
51553687181,13,-1,-2,-1,-1,2,1,-2
51553687181,85,6,-3,-1,-1,-4,6,8
51553695899,7,-9,-7,-7,1,3,-6,5
51553695899,-97,-5,-5,0,-1,0,-3,-2
51553710282,45,10,3,-3,-1,0,8,4
51553710282,13,-2,0,1,1,-1,6,-4
51553717138,31,-1,-3,-2,-3,-5,-21,-5
51553717138,14,-5,-4,1,1,1,5,39
51553724611,56,-1,13,0,0,-2,3,-27
51553724611,25,2,-4,0,1,1,-9,-9
51553733417,-97,-21,-13,-5,-3,-4,8,1
51553733417,-16,-3,-1,-1,-1,-4,-7,-14
51553747142,15,-4,-10,0,2,1,-11,5
51553747142,-7,1,2,-2,-3,-2,13,5
51553755904,41,11,3,3,1,0,-4,-11
51553755904,-4,0,0,-5,-2,-3,-9,1
51553770176,-27,-13,-6,-4,-3,-1,-13,-1
51553770176,-3,4,2,0,-1,0,9,-5
51553777174,17,1,-3,1,0,-1,11,21
51553777174,23,5,-6,1,1,-2,-12,-8
51553784631,-9,-41,15,2,0,-1,-3,-4
51553784631,12,1,2,0,-3,1,1,-10
51553793394,36,7,3,-3,-4,-2,-8,-4
51553793394,-40,-4,-13,-6,0,1,7,21
51553807107,-63,-4,-4,1,0,-1,-2,-12
51553807107,19,-3,5,3,0,0,-8,14
51553815903,27,0,1,-4,-1,3,-4,-42
51553815903,-65,-8,-4,-1,-3,-6,0,-15
51553830326,32,20,6,3,3,2,-13,12
51553830326,-41,-12,-8,-3,-3,-1,2,-2
51553837167,-11,12,-3,-3,-1,-2,-4,3
51553837167,18,-5,2,3,0,0,-1,-10
51553853478,-12,7,-14,0,3,4,13,20
51553853478,-4,2,5,1,-2,-1,-8,-17
51553854930,2,1,2,-1,-5,-4,-1,4
51553854930,-13,-5,-1,3,3,3,-5,-2
51553867050,51,10,-3,0,-3,-2,0,7
51553867050,-5,-5,6,-1,1,1,5,11
51553875920,18,2,-11,1,4,3,-2,-10
51553875920,6,-25,44,2,-4,0,9,12
51553890111,-8,1,-6,-3,-3,-3,-9,-23
51553890111,9,4,-3,-5,-2,-3,-11,5
51553897118,4,5,2,-1,-1,-3,7,7
51553897118,9,17,-19,0,4,6,5,-5
51553913346,36,3,-2,-1,-5,-3,7,6
51553913346,-11,-3,2,-1,-4,-3,-5,-24
51553914883,-27,1,-2,3,4,2,5,12
51553914883,35,7,-10,-1,-3,-4,-3,0
51553927138,-24,-3,14,-4,-3,-3,19,2
51553927138,-32,-1,-12,-1,1,2,6,8
51553935894,-24,-10,5,4,3,2,-17,-14
51553935894,37,2,-6,-5,-4,-2,7,-13
51553950193,-46,-2,-9,-2,0,-3,-28,-18
51553950193,-2,0,4,-1,-2,-1,19,12
51553957182,8,5,-11,-4,0,0,13,19
51553957182,19,0,10,3,0,0,-2,5
51553973490,-32,-3,-9,2,1,1,-4,-9
51553973490,18,8,3,-1,0,-2,-9,-2
51553974982,-27,-11,-12,-3,-1,2,5,8
51553974982,6,-2,-12,-1,2,1,3,6
51553987146,4,11,-1,-2,-1,-2,0,2
51553987146,1,-11,1,3,-1,-1,-7,-4
51553995923,11,-1,3,2,-2,-3,-3,2
51553995923,-6,-24,8,-3,-1,-2,-1,-1
51554010165,-8,5,-1,-3,-3,1,3,3
51554010165,24,-1,-4,-2,2,-1,-5,6
51554017121,-24,-2,0,-1,-2,-3,-7,-21
51554017121,-15,-1,-5,-4,-3,0,-1,-2
51554033299,52,5,14,3,1,1,-2,14
51554033299,-95,-8,1,-1,0,2,16,7
51554034871,-46,-2,-13,-3,-1,-5,-17,-11
51554034871,1,9,-13,-2,-2,0,-13,-28
51554047170,34,-14,-5,1,0,0,6,-2
51554047170,-3,4,0,-3,-5,-1,8,14
51554055881,52,8,9,1,1,3,-4,-8
51554055881,-16,15,3,1,0,-4,2,-1
51554070150,-13,-1,-5,1,1,-4,-12,-6
51554070150,70,8,-4,-6,-5,2,8,-2
51554084553,-57,-17,3,1,-2,1,27,21
51554084553,10,4,-3,-3,-2,-2,-15,4
51554093492,12,5,0,-3,-5,-2,2,4
51554093492,-13,-3,-7,-1,3,0,-13,-14
51554094929,12,-15,5,-5,-7,-2,3,-4
51554094929,-43,-2,-11,-1,-1,-2,-11,7
51554107052,-13,-10,12,1,-2,0,23,17
51554107052,14,1,-8,1,2,0,-5,1
51554115913,-38,6,0,-4,-2,-1,-3,-16
51554115913,-1,-4,-7,-2,0,0,11,1
51554130322,12,-2,-5,-1,0,1,-18,-15
51554130322,-28,-12,0,3,3,-1,1,8
51554136921,48,9,4,0,-2,0,5,11
51554136921,8,1,3,-2,-2,-3,-15,-26
51554153362,20,3,-13,-2,2,-2,7,19
51554153362,3,-1,-1,2,-1,-5,-5,1
51554155494,2,0,4,3,0,-3,-14,-18
51554155494,-38,-5,5,0,2,1,3,18
51554167066,-5,-3,-5,-5,-3,-3,-5,-4
51554167066,-3,1,3,1,-2,-4,14,-13
51554175897,-16,5,-7,-4,-1,-3,-5,32
51554175897,47,-7,5,-1,-4,-2,6,-4
51554190256,9,7,14,6,4,2,-5,-11
51554190256,2,-6,-4,-3,-3,-6,-5,-4
51554196983,-5,16,-9,-4,-4,-2,-3,-3
51554196983,34,-20,20,3,-4,-2,12,13
51554213419,-30,-8,-3,-1,3,1,-3,-4
51554213419,21,8,-4,-1,-1,0,-7,-9
51554214926,8,-1,1,0,-3,0,3,9
51554214926,25,19,-14,-3,3,1,0,0
51554227079,44,4,0,-1,-4,-1,-1,4
51554227079,-22,-5,7,-3,-5,-4,-12,-4
51554235912,-4,-16,-3,0,3,-2,3,-17
51554235912,-19,8,1,-2,-2,-4,-10,-14
51554250329,44,-1,-4,1,1,2,-3,11
51554250329,-49,-5,-3,-3,-1,1,10,25
51554257150,-10,2,6,-2,-1,1,0,-24
51554257150,39,4,-6,-3,-2,-2,0,4
51554273436,-49,0,-8,-1,0,-3,-3,-15
51554273436,85,2,3,0,1,1,-20,4
51554274877,-2,-32,6,-1,-4,-8,-8,-4
51554274877,-39,-12,3,0,1,4,6,-10
51554287110,53,5,-16,-3,-3,-3,11,12
51554287110,-24,-4,1,1,-1,3,-4,-2
51554295884,-1,4,-4,-3,-3,1,6,3
51554295884,28,5,-4,0,4,3,-1,-2
51554310109,-15,6,6,-4,-3,-1,5,-13
51554310109,-18,-6,-12,-4,-2,-3,-21,7
51554317101,11,-1,-2,0,-1,2,6,-5
51554317101,-68,-2,6,-1,-4,-1,14,4
51554333393,-33,4,2,0,1,0,0,-1
51554333393,44,-4,-3,0,1,1,4,-10
51554334852,25,5,2,0,0,0,-4,-1
51554334852,18,-16,3,-2,-3,-1,2,14
51554346997,-1,-2,-5,1,-2,-2,0,-9
51554346997,-19,1,7,0,1,0,1,-9
51554355926,37,5,-1,3,9,2,0,20
51554355926,-71,-13,-1,-1,-6,1,5,-26
51554370296,-25,-6,-4,-4,-7,-3,-16,-13
51554370296,1,9,0,0,-1,-5,4,0
51554377017,-31,-6,-5,0,-2,-3,-5,9
51554377017,-1,1,-5,1,5,0,-9,-8
51554393419,-6,-3,1,-3,-1,-2,5,5
51554393419,-33,-4,-1,-2,-2,-2,-6,-12
51554394899,-33,-1,-15,-2,0,-1,3,4
51554394899,42,9,0,-1,-4,-6,-18,3
51554407059,-48,-47,11,4,4,3,7,-6
51554407059,30,-10,-6,-4,-2,0,-7,-15
51554415886,39,12,1,-3,-3,-2,-6,5
51554415886,14,8,0,-1,0,-1,-1,1
51554430274,14,10,-1,1,1,0,-3,7
51554430274,-48,-11,2,2,2,1,9,15
51554436990,-30,-7,2,-1,-4,-1,-1,-7
51554436990,-29,-2,-5,0,2,-4,-3,-5
51554453432,71,18,3,-5,-3,-2,-9,-3
51554453432,12,2,0,2,1,1,9,3
51554454849,-58,-7,-4,-2,-3,0,-3,-4
51554454849,51,-1,-3,-2,-2,-2,1,4
51554467060,-35,2,-7,0,-1,0,-1,8
51554467060,-3,10,-8,-4,-3,-3,-7,-13
51554475928,-33,-18,7,1,-1,3,3,16
51554475928,30,2,1,-1,-1,1,19,-19
51554490107,6,4,-4,1,1,-1,5,7
51554490107,18,3,2,-4,-3,-4,3,-7
51554496896,-29,3,-2,-2,-3,-3,-8,-4
51554496896,52,2,0,0,3,3,1,4
51554513427,-110,-12,-2,-2,-3,0,3,7
51554513427,81,3,2,5,2,1,0,-2
51554514872,44,7,0,-1,-2,-3,1,-5
51554514872,15,1,-2,-1,-3,-4,-11,-9
51554526911,-12,1,-2,-1,0,0,15,13
51554526911,-9,-6,-20,-4,-1,1,-8,9
51554535898,-1,-24,15,4,1,3,-1,-18
51554535898,-5,4,4,-3,-4,-4,-4,13
51554550285,45,-7,-6,-6,-4,-5,-11,-7
51554550285,-53,27,-6,1,-1,0,-4,-4
51554557025,93,9,-11,-3,2,0,-10,1
51554557025,-121,-15,-4,-4,-4,-1,18,-3
51554572744,42,-1,-10,0,-1,0,-7,14
51554572744,-8,0,14,1,-2,-2,-1,-16
51554579533,-20,5,-1,1,0,-3,-3,13
51554579533,-5,4,-1,1,1,2,-4,-3
51554587120,-19,7,3,1,0,-2,-1,-28
51554587120,-13,-13,0,0,-1,-2,1,-5
51554595895,8,1,1,-6,-2,-3,0,6
51554595895,-17,-3,-6,1,2,-1,-3,10
51554610072,-11,-2,3,-3,-2,-3,1,-7
51554610072,-14,-3,3,0,-2,-1,-1,6
51554617069,-21,2,0,1,0,2,1,2
51554617069,13,4,-12,-1,1,-1,-7,-4
51554632630,48,5,4,-3,-4,-2,-9,-6
51554632630,-13,-9,-4,-3,-5,-2,13,17
51554639555,36,6,-9,-1,-1,-1,1,-2
51554639555,-79,4,4,0,0,-2,3,4
51554647030,3,-15,-3,-2,1,0,-1,16
51554647030,-32,0,-1,0,-2,1,-2,-3
51554655891,37,7,-6,-1,0,1,2,-10
51554655891,30,-5,2,-2,-4,-4,-18,-1
51554670286,-31,7,5,2,1,1,13,5
51554670286,-1,-4,6,-2,0,0,-15,-18
51554677139,-22,-6,3,0,-1,-2,-9,-10
51554677139,37,-1,-6,1,-1,0,14,22
51554692719,-18,4,2,-4,-4,0,-5,-1
51554692719,56,-6,6,3,4,2,2,4
51554699641,25,15,10,0,-3,-3,-3,-2
51554699641,0,-6,2,-3,-1,-2,-6,1
51554707071,-44,-7,-12,2,5,3,4,-9
51554707071,-35,-25,5,-1,-1,-2,4,0
51554715872,-12,0,-10,-2,1,1,13,-3
51554715872,30,-1,5,1,-2,0,6,7
51554730232,4,14,0,-1,-2,-4,-1,9
51554730232,45,9,0,-2,-4,-4,-3,-10
51554744589,-46,-11,-11,-2,1,0,-5,-11
51554744589,56,-3,-3,1,0,2,0,6
51554752818,-14,-1,-3,2,0,0,-7,-16
51554752818,-4,0,-2,-4,-5,-1,13,11
51554759594,-4,2,0,1,0,2,-2,6
51554759594,19,3,2,2,0,1,4,-11
51554775969,26,-7,3,-2,-2,0,4,-3
51554775969,96,18,-3,2,-1,-1,-3,12
51554777310,-31,-13,0,-4,-3,-4,-5,-10
51554777310,-20,-11,2,-3,1,-1,-7,-8
51554790116,9,-22,3,-2,0,-2,-11,-9
51554790116,-29,3,-3,1,5,3,17,17
51554796991,56,3,0,-3,-6,-8,-7,-3
51554796991,3,-3,0,0,3,-2,-15,-15
51554812645,19,12,-11,-4,-1,1,3,1
51554812645,-100,-24,5,-2,-1,-1,-7,-28
51554819402,0,3,3,0,-1,0,3,-2
51554819402,-11,5,-3,-1,-3,-4,-5,4
51554835752,39,2,-5,-5,-5,-4,0,13
51554835752,0,0,-7,-3,0,1,-3,13
51554837335,-95,-8,-6,-4,-2,-5,12,-46
51554837335,19,2,3,-2,-1,-1,-6,10
51554850099,12,-6,3,5,8,5,13,8
51554850099,-14,0,9,-5,-7,-7,-24,-11
51554857183,16,-8,-1,1,1,0,-13,17
51554857183,42,7,-2,0,-1,0,18,9
51554872824,-81,-46,36,5,-1,0,2,-5
51554872824,30,17,-6,-3,-4,-5,-15,7
51554879382,14,12,-19,-4,-1,-1,4,9
51554879382,-32,-16,6,3,2,2,-8,-16
51554895887,-18,9,-13,-3,0,-1,5,8
51554895887,51,-3,-4,1,1,0,-4,-11
51554897341,-52,-22,-12,-5,-5,-5,-19,-4
51554897341,-53,-21,7,1,2,5,16,16
51554910104,-3,8,-3,-1,-2,-1,-11,-16
51554910104,23,-6,17,1,0,-1,15,10
51554917074,73,18,1,1,3,0,3,18
51554917074,-45,4,-8,-2,-3,-3,1,-28
51554932872,-29,-6,1,-2,-3,-2,-10,1
51554932872,-94,4,-13,-2,0,-1,-2,-14
51554939481,65,-2,7,1,2,2,2,4
51554939481,20,9,1,-2,-4,-5,4,-9
51554955744,21,19,-5,0,-1,1,-1,10
51554955744,3,1,-8,-3,0,0,7,5
51554957265,-32,-6,8,3,2,2,7,-7
51554957265,12,11,-4,-3,-4,-1,-16,9
51554970258,-22,-10,-12,-3,-5,-2,-3,-39
51554970258,-15,20,19,5,0,-1,-2,-1
51554977127,75,19,-5,-4,-1,5,3,8
51554977127,-69,-21,-4,0,-1,1,-6,-8
51554992680,40,8,4,1,-1,-4,6,20
51554992680,29,-10,-10,3,2,1,-1,-4
51554999424,28,1,23,3,-1,-2,-2,-4
51554999424,25,11,-4,-1,3,2,-4,-4
51555015944,-14,-9,-5,-4,-3,-3,15,7
51555015944,-8,-1,-5,-5,-4,-5,-8,6
51555017365,-26,2,-4,-2,-2,-4,-12,2
51555017365,41,6,3,1,2,-1,4,2
51555030215,-1,0,5,0,-2,-4,2,10
51555030215,-17,-16,-8,0,2,0,-3,-19
51555036979,-36,-9,0,-1,1,3,5,20
51555036979,19,8,8,-1,-7,-7,-7,-5
51555052581,35,7,-8,-1,3,2,-5,-16
51555052581,-13,-5,4,-1,-1,0,-4,8
51555059489,25,31,-12,-1,-2,-2,-4,-4
51555059489,-70,-13,-12,-3,0,1,9,-7
51555075876,104,6,-1,-2,-1,-2,-18,7
51555075876,-24,-4,15,2,5,3,-9,-12
51555077394,20,-5,1,0,-4,-1,18,16
51555077394,-3,5,1,0,-4,-3,-3,-18
51555090281,12,10,-1,-1,1,-1,6,4
51555090281,26,1,-15,-6,-6,-5,-6,4
51555097002,-38,-12,0,2,2,3,10,3
51555097002,63,6,1,-2,-3,-3,5,20
51555112743,-56,-3,-5,-2,1,0,2,-23
51555112743,-42,2,6,-2,-6,-4,-6,15
51555119548,26,-2,5,3,2,-4,0,-5
51555119548,1,3,-10,-7,-7,-2,-15,15
51555135891,-35,-17,-7,3,4,1,-3,-24
51555135891,13,-4,-4,0,-2,2,10,-2
51555137349,-10,-7,2,-3,-3,-1,-5,1
51555137349,-9,1,3,2,2,1,-10,-17
51555150268,-18,19,0,-3,-2,-2,1,18
51555150268,45,2,-12,-4,0,-1,10,5
51555156999,-21,3,-1,1,-2,-1,-13,-9
51555156999,17,13,-12,-3,-3,0,4,12
51555172872,73,-8,-1,-2,-7,-4,-7,-2
51555172872,-21,-5,2,1,-2,-2,-3,9
51555179543,-44,-6,-1,-1,2,3,-2,-21
51555179543,39,2,-6,0,2,2,5,9
51555195755,40,6,3,1,-1,2,7,10
51555195755,-71,-15,-5,-1,-3,-3,-6,-7
51555197285,-16,-13,-5,-3,-2,-2,-1,17
51555197285,7,-6,7,1,0,4,0,-21
51555209680,-34,-9,2,-1,2,1,-8,2
51555209680,105,-6,2,0,-2,-1,12,5
51555218386,-17,7,6,0,-4,-6,-8,-13
51555218386,-38,-12,3,-1,0,0,7,5
51555232672,24,1,-2,-1,-3,-5,-4,-13
51555232672,21,0,-8,-3,0,0,-10,1
51555239356,-46,-1,-11,-3,-1,-1,-7,4
51555239356,37,-15,15,2,0,-2,-5,-5
51555255888,-73,2,-4,-1,-2,-3,2,5
51555255888,-16,-5,-16,1,1,-1,-13,-22
51555257324,36,-9,12,4,3,4,16,14
51555257324,-53,-8,-9,-2,1,-1,1,14
51555269387,-9,-1,-2,-1,-1,0,7,-1
51555269387,13,15,1,-2,0,-2,7,6
51555278423,15,-4,3,0,-1,0,-3,12
51555278423,-5,-3,-13,-4,-3,-8,-3,-31
51555292610,-25,-22,27,4,2,-1,-14,1
51555292610,31,10,6,-3,-5,-2,-5,-3
51555299578,49,-2,-7,-4,-4,-2,6,-7
51555299578,-37,-10,-2,2,5,3,0,13
51555315921,-3,-1,-8,-1,0,0,0,-1
51555315921,-3,-5,-1,3,2,0,-2,-10
51555317358,-20,9,5,-3,-3,-4,1,-6
51555317358,46,5,-1,-1,-4,-2,-3,8
51555329362,-80,9,-4,-4,0,2,6,6
51555329362,52,-6,-2,1,3,2,-7,-1
51555338387,-52,4,-2,-4,-3,-3,-5,-16
51555338387,-8,-2,0,0,0,1,-2,1
51555352682,89,11,-4,1,0,3,-2,16
51555352682,92,-1,-13,-6,-6,-3,3,2
51555359482,28,-4,-4,-1,-2,-1,-8,-23
51555359482,4,7,-1,-1,-2,-5,-2,2
51555375717,76,-2,-1,3,1,0,-10,15
51555375717,-70,4,2,1,2,4,7,-47
51555377322,-4,-14,-8,-4,-1,0,0,-2
51555377322,11,1,5,1,-2,-1,-2,8
51555389445,-39,1,-5,2,0,-1,14,-11
51555389445,54,10,5,-2,-2,2,-5,11
51555398403,-30,1,-1,1,0,-3,-4,3
51555398403,16,-2,1,-2,-1,2,1,-3
51555412756,1,-2,-2,-1,-2,0,5,10
51555412756,-58,1,-8,1,5,4,3,0
51555419532,6,-15,7,0,-2,0,-1,5
51555419532,-45,0,-6,-2,0,1,2,0
51555435874,22,-6,-1,-2,-7,-6,-17,-35
51555435874,24,21,-14,-5,-4,-3,6,21
51555437262,-21,-10,2,2,2,1,2,13
51555437262,-47,-3,-1,-2,-1,-1,2,-6
51555449494,47,16,4,-4,-2,-1,1,18
51555449494,-51,-16,3,-4,-3,-4,-9,-36
51555458392,51,8,20,4,2,-1,2,-7
51555458392,-28,-10,-2,-1,-2,-5,-14,2
51555473114,76,15,-1,3,3,2,8,2
51555473114,-54,-17,0,-3,-6,-4,6,16
51555479310,50,8,-4,-1,0,0,12,0
51555479310,44,1,2,1,3,3,-14,-4
51555495716,0,-12,-3,-2,-1,-2,-1,-3
51555495716,13,0,2,1,0,-3,5,17
51555497331,-4,5,-6,-1,-3,-1,-9,-14
51555497331,35,-7,-4,1,2,0,11,5
51555509533,-72,-10,8,2,3,2,-2,-3
51555509533,-21,-7,3,2,2,2,2,12
51555518363,-31,-5,-7,-3,-3,-3,-13,-4
51555518363,29,19,-5,-4,-4,-4,5,3
51555532604,24,3,0,-1,-3,-4,-6,-3
51555532604,23,-17,8,1,-1,-2,-3,-26
51555539485,34,12,-1,3,3,3,2,29
51555539485,-87,-3,-1,1,1,-4,3,17
51555555203,31,-9,-9,-4,-5,-1,-7,-52
51555555203,-56,-3,7,3,4,1,0,6
51555562030,56,-16,0,-1,-2,-1,8,-4
51555562030,57,5,3,0,-4,-2,-5,-4
51555569536,-43,-3,-19,-6,-3,-4,-5,7
51555569536,8,7,7,4,0,2,1,3
51555578401,-13,-4,-3,-3,-1,0,-6,-9
51555578401,18,7,-2,0,-3,-1,1,6
51555592706,-36,-15,-3,-1,4,-1,-8,-11
51555592706,22,8,2,-5,-6,-3,-11,-5
51555599345,24,10,3,-1,-3,2,23,16
51555599345,-31,-26,-4,-2,-1,1,-4,6
51555615117,-105,2,2,1,0,-2,3,3
51555615117,7,-3,-6,-3,-2,-3,3,9
51555621891,-5,0,-6,1,-2,-2,-13,-8
51555621891,-31,-15,16,3,0,3,2,-8
51555629474,83,0,-1,-2,-2,3,9,36
51555629474,-38,0,-4,0,1,-2,1,-12
51555638384,-40,3,-1,-1,-2,-1,4,-25
51555638384,-18,6,-7,1,1,0,-5,-6
51555652763,-27,-1,0,-1,-1,-2,-1,7
51555652763,12,-3,2,-1,0,-2,-7,-9
51555659482,21,5,-10,-2,-2,-1,-1,9
51555659482,-12,8,2,-1,-2,-2,-5,-17
51555675170,10,-6,1,1,4,1,10,-12
51555675170,53,8,-3,-5,-3,-4,-31,1
51555682009,-128,-14,-5,-1,-1,-4,20,23
51555682009,91,5,-2,0,2,-1,-3,-8
51555689493,-33,-1,0,-1,-3,-4,0,-8
51555689493,-17,-11,-4,0,1,0,3,-3
51555698376,-7,0,-5,-3,0,1,-11,-9
51555698376,18,2,25,-2,-2,-1,1,9
51555712711,-34,-4,-3,-4,-3,-1,0,-2
51555712711,-13,-1,1,2,-1,0,8,8
51555719580,21,-8,-2,-1,-2,-3,-10,-11
51555719580,4,-2,-10,0,1,2,8,7
51555735068,-20,-1,2,-3,-5,-5,-6,2
51555735068,25,0,11,0,-1,4,9,2
51555742035,0,0,-4,-3,-3,-4,-15,5
51555742035,-4,-6,-2,0,0,0,3,-13
51555758352,20,-4,0,0,2,1,5,37
51555758352,15,7,-8,0,-2,0,10,-28
51555759829,-23,3,0,1,2,-1,-25,-7
51555759829,-5,21,-8,-6,-8,-4,3,-4
51555772678,34,6,-2,-1,-2,0,0,-2
51555772678,-7,-5,-2,1,1,-1,9,11
51555779594,-14,-1,-1,-2,-1,1,-4,-8
51555779594,11,-5,-5,2,1,-2,-4,6
51555795238,0,-1,2,0,-2,0,-3,-2
51555795238,-30,10,7,-7,-4,-3,-2,-8
51555801886,53,-7,3,0,2,2,-2,-6
51555801886,-46,-12,-10,-5,-2,0,9,6
51555818391,-15,-4,3,2,1,-1,-8,-12
51555818391,-7,-5,-3,1,1,2,-1,-2
51555819849,71,-3,-10,-6,-5,-4,3,10
51555819849,-62,-2,12,4,3,2,-5,-20
51555832737,74,-2,17,2,0,-1,1,-11
51555832737,-2,8,-13,-6,-3,-1,2,22
51555839388,-44,-6,2,0,0,2,6,1
51555839388,44,-7,-8,0,1,0,3,11
51555854536,-21,4,-8,-4,0,0,-3,-19
51555854536,-10,-2,-5,-1,-3,-6,-9,-1
51555862013,74,15,5,-3,-1,0,7,-5
51555862013,-20,-5,-2,0,1,0,2,7
51555877743,-48,-12,-3,-6,-4,-5,-13,4
51555877743,66,-6,-6,0,-1,2,10,8
51555878311,-65,-4,-2,0,-1,-2,-17,-9
51555878311,38,-7,9,-1,-2,-1,18,9
51555893310,36,12,0,-2,1,0,-5,-12
51555893310,-23,-11,-5,-1,0,-2,-4,0
51555899547,-13,-7,0,1,-1,0,5,1
51555899547,-4,2,-1,-4,-2,-1,-13,-6
51555914603,42,16,3,0,-1,1,-1,15
51555914603,1,-8,1,-1,0,-1,10,-19
51555922039,-53,-2,-2,6,5,0,8,10
51555922039,-27,7,-8,-5,-5,-2,-3,-18
51555937639,2,-4,-18,4,3,1,1,10
51555937639,46,-6,27,1,1,0,-9,-2
51555938324,-52,-16,-5,-2,2,0,-5,-18
51555938324,28,8,-8,-3,-2,-2,-5,6
51555953329,-9,-10,-4,-3,2,3,4,-3
51555953329,2,9,-1,-2,-5,-3,0,4
51555959466,-23,-1,-2,-1,-2,-4,-13,-16
51555959466,42,-1,-3,0,-1,-1,-1,0
51555974458,-66,6,3,2,-3,-3,-14,-19
51555974458,9,-7,0,0,1,-3,8,14
51555982019,21,6,1,0,-1,2,3,1
51555982019,24,-2,-6,-3,-4,-3,4,-2
51555997603,-23,-3,3,1,2,0,3,-2
51555997603,-61,3,-8,1,2,3,-3,0
51555998362,62,5,0,0,-3,-3,5,1
51555998362,-92,-7,1,-3,0,-1,-6,-22
51556013308,49,-4,1,-2,-4,-2,-1,3
51556013308,2,16,-3,-2,-4,-2,-2,12
51556019577,28,5,-3,1,-2,0,-8,-1
51556019577,10,-3,-1,0,2,-1,4,-4
51556034418,-1,0,1,-3,-3,-1,7,10
51556034418,-45,-10,-6,-1,-1,-3,-14,-9
51556042018,35,-13,18,0,0,0,2,7
51556042018,14,6,-4,1,1,0,-4,0
51556057678,-19,-1,-4,1,-1,0,2,7
51556057678,1,-3,0,2,0,-2,-5,-5
51556058354,-19,-2,-5,-2,1,0,-5,-2
51556058354,-4,-2,2,1,-1,1,3,9
51556073358,-2,8,8,-2,-2,-2,-5,-15
51556073358,33,3,-2,-1,0,-1,6,17
51556079509,33,4,1,1,0,-2,9,11
51556079509,12,4,7,-1,-2,-2,-12,-10
51556094507,3,-6,-11,-2,-1,-1,0,-12
51556094507,42,12,-2,1,-1,-2,1,-2
51556101884,-45,-1,-1,0,-2,-2,-5,-4
51556101884,-6,-8,-8,0,2,-1,-3,20
51556117535,-19,4,0,-4,-5,-5,9,-5
51556117535,7,-10,2,0,1,-2,-23,-13
51556118356,-5,-1,0,-3,0,-1,19,14
51556118356,-32,-3,2,1,-1,-1,-15,-11
51556133850,58,-3,-4,-2,-4,-5,-8,14
51556133850,-37,-8,-5,2,4,6,23,6
51556139486,-72,11,-3,-5,-3,-2,-7,-5
51556139486,0,1,-1,0,0,-1,-2,4
51556154515,-4,8,1,2,-1,2,-3,0
51556154515,24,0,-3,-1,-2,2,0,-4
51556162042,15,0,0,-1,0,1,1,8
51556162042,-9,-11,7,1,2,3,9,-4
51556177651,-18,-2,1,-4,-4,-2,5,-3
51556177651,-15,-4,-2,-1,-2,0,-5,-16
51556178339,24,1,-3,-1,-2,-1,2,3
51556178339,-37,6,-1,-1,-3,-4,-6,-14
51556193359,-11,-7,-4,-1,2,0,5,10
51556193359,14,5,1,-2,-2,-2,-3,-4
51556199556,-7,-1,20,1,-2,-3,-7,20
51556199556,35,0,-3,-1,2,0,-2,-34
51556214532,-17,4,0,3,1,0,1,-4
51556214532,-77,-13,1,-2,0,-3,-7,1
51556221891,50,-2,-13,-2,-1,0,7,-22
51556221891,50,5,0,1,0,-1,14,25
51556237484,-61,-7,0,-2,-1,-1,-6,4
51556237484,6,-2,3,-2,-1,-1,-4,-12
51556238303,-15,-3,-2,-3,-4,-1,-4,-11
51556238303,-1,6,0,-1,-2,-1,-2,5
51556253377,55,-12,-12,-3,-1,-1,-7,5
51556253377,12,10,2,1,1,-1,15,-8
51556259427,-4,-9,-5,-1,-1,-2,-9,-13
51556259427,2,-5,0,-3,-2,0,3,3
51556274446,1,13,-12,-4,-2,-2,-13,-11
51556274446,-19,-11,7,2,2,2,7,6
51556281992,11,17,-8,0,0,1,2,25
51556281992,52,11,-4,-2,-2,-2,-1,-39
51556305217,-14,-7,-5,4,2,3,8,1
51556305217,15,1,-2,-2,-2,0,-3,6
51556305860,-11,-9,-7,-1,-1,-3,-1,5
51556305860,25,7,25,2,1,0,-5,-5
51556313352,-41,-15,10,-4,-2,-2,-8,-12
51556313352,-11,-4,-4,-6,-5,-5,25,18
51556319446,25,-7,1,-1,-1,2,-7,-10
51556319446,-52,-8,-9,1,0,-2,-9,-8
51556334448,17,-3,1,1,-1,-1,1,19
51556334448,2,-2,-1,-2,-1,-1,-6,-25
51556341853,-27,8,-1,-3,-1,1,-4,-12
51556341853,-13,7,-6,-2,-3,0,8,12
51556357651,-57,-13,1,1,3,-1,3,-3
51556357651,16,2,-5,-1,-5,-4,-6,15
51556358327,-4,-4,-1,-2,-2,-3,-4,0
51556358327,23,-2,-1,0,-2,-1,-9,-2
51556373304,56,5,5,0,-1,1,17,17
51556373304,9,-9,-4,0,2,4,-9,3
51556379472,-61,-14,-1,-1,-4,-4,-7,-11
51556379472,11,-1,-3,-4,-2,-4,-4,7
51556394450,12,7,6,-2,-3,-6,-8,-8
51556394450,12,-12,9,0,2,1,-6,-11
51556401845,-17,5,-3,1,2,2,5,3
51556401845,-19,-3,-9,-1,0,0,-5,-2
51556417584,91,9,-5,-2,-2,-3,3,3
51556417584,-69,1,4,-2,-1,-2,-6,-1
51556418343,26,-1,2,-3,-3,-4,7,-7
51556418343,-15,-15,-4,-1,1,0,6,19
51556433342,7,5,-9,-5,-3,-1,-12,-24
51556433342,-5,-2,-3,-1,-3,-1,9,31
51556439503,16,-1,-3,-1,-2,-1,-6,-39
51556439503,2,3,-1,-2,0,-1,0,13
51556454488,53,-7,1,0,-2,1,2,8
51556454488,-65,5,-7,0,1,-1,-4,-29
51556461836,16,-1,0,1,3,1,3,13
51556461836,12,0,0,1,0,0,0,1
51556478312,20,-13,-1,-2,0,-1,-2,-4
51556478312,40,2,-2,-2,-4,-3,-3,6
51556484394,47,6,1,0,-2,1,1,1
51556484394,-73,-11,-5,-4,-3,-5,-4,-17
51556493423,-12,-1,-4,2,-1,-1,4,9
51556493423,0,2,-2,-1,0,0,-2,8
51556499420,7,-8,4,0,2,0,-2,-2
51556499420,3,-20,18,3,-2,-1,-5,5
51556514464,-61,0,1,1,3,2,7,-23
51556514464,69,-6,-10,-2,-2,0,5,2
51556522013,-35,7,0,1,0,-2,-14,8
51556522013,26,4,-4,-3,-2,0,10,17
51556536871,-63,-1,2,1,1,-2,-10,-17
51556536871,-43,9,12,-1,-1,0,-11,-16
51556544489,-26,-8,-7,-3,-2,0,18,12
51556544489,65,6,-4,-3,-2,-1,5,-11
51556553347,39,10,6,2,-1,1,-6,14
51556553347,16,0,-3,5,4,1,-8,8
51556559271,-12,3,-1,-4,-5,-3,-8,-12
51556559271,34,3,18,0,-1,-1,-1,0
51556574455,-26,1,-1,0,-1,2,5,2
51556574455,12,2,3,-4,-3,-5,6,-3
51556581974,11,9,2,3,3,2,-1,0
51556581974,83,10,-2,-1,-2,1,4,11
51556596863,-41,-7,2,-5,-3,-5,-4,-12
51556596863,20,-2,-1,-2,0,1,-6,9
51556604419,-42,-5,-7,1,-1,-2,-3,-28
51556604419,20,1,-2,0,-3,1,7,17
51556620154,-41,-3,-13,-5,1,0,-9,-17
51556620154,50,-15,10,1,-3,-2,-2,13
51556620782,44,3,3,-3,0,-2,11,-32
51556620782,-45,-8,-9,0,0,0,-9,-5
51556634502,33,2,0,-1,-2,-2,5,26
51556634502,-19,11,-6,-4,-4,-3,-4,-16
51556642048,39,0,3,1,1,0,-1,11
51556642048,0,-3,-2,-1,-2,-1,0,-4
51556656925,-32,-8,-10,0,0,-3,-18,-9
51556656925,38,10,0,-2,-2,-1,0,-7
51556664529,-24,-4,-1,-2,-3,-3,0,10
51556664529,-37,-4,-13,-3,-3,-4,-12,1
51556680057,-25,3,4,3,2,2,8,0
51556680057,18,4,-4,0,-2,-2,-7,-6
51556680870,-11,-7,-8,-2,-2,-2,1,14
51556680870,55,9,20,1,-1,-1,-1,-11
51556694469,-33,-13,-3,-1,0,3,11,16
51556694469,-40,-9,-3,3,2,1,-3,-7
51556701822,77,6,0,-1,0,-2,-6,-15
51556701822,-60,-3,-8,0,0,2,8,3
51556716837,118,9,8,-7,-7,-4,-4,1
51556716837,-38,4,-1,-3,-2,-3,-9,-11
51556724443,12,-1,-1,-1,2,-1,-3,21
51556724443,6,-1,-3,-5,3,1,-1,2
51556740124,-10,3,3,-1,-4,-2,0,-8
51556740124,4,-3,-3,0,2,2,4,11
51556740742,51,1,3,0,-5,-2,0,10
51556740742,-62,-8,-9,0,0,-2,-3,-8
51556754508,-13,-6,-4,-2,-2,-3,-3,-11
51556754508,-8,-3,-2,0,2,0,-9,-20
51556762015,-33,4,-3,-1,-2,-1,14,16
51556762015,-23,-1,-4,-3,-2,-3,4,-6
51556776990,2,-3,1,2,3,2,5,8
51556776990,43,2,-1,-4,-4,-2,10,29
51556784440,5,6,4,5,4,3,-9,-41
51556784440,42,3,0,-5,-4,-4,-16,10
51556800150,-20,-7,-1,1,2,2,8,-4
51556800150,16,4,2,0,3,1,6,3
51556800767,-31,-11,-1,-5,-3,-2,-4,11
51556800767,-1,0,-1,3,5,4,0,-11
51556814398,52,1,-7,1,-2,0,-2,6
51556814398,-75,-9,10,3,2,1,3,-7
51556822060,17,-1,-5,-8,-7,-3,-6,7
51556822060,30,1,0,0,4,0,1,7
51556836846,-27,-5,-6,-5,-3,-3,-3,-11
51556836846,-41,-8,-4,2,0,0,-1,3
51556844403,-2,-1,-1,2,0,-1,2,5
51556844403,-30,6,1,1,0,0,-5,-10
51556860041,15,-12,17,3,1,3,26,37
51556860041,-62,0,-3,-3,0,-2,-7,-21
51556860756,-17,-7,-2,-4,-2,-1,-7,5
51556860756,0,2,-2,-2,-6,-4,-9,9
51556874436,-13,6,5,0,3,-1,3,-32
51556874436,19,-3,-4,-3,-2,-3,2,17
51556881944,-9,0,-2,1,1,3,-3,-20
51556881944,-59,-7,-3,1,1,1,13,-9
51556896953,-22,5,-2,-3,-3,-4,-13,3
51556896953,83,10,-1,-3,-4,-2,3,7
51556904456,-73,-16,-4,1,4,-1,4,9
51556904456,15,17,-8,0,0,1,-8,-19
51556920106,-11,1,-4,-3,-3,-2,1,0
51556920106,7,0,-3,0,-1,1,1,-2
51556920767,-22,10,-4,0,0,1,2,4
51556920767,49,-8,1,-2,-1,-2,-2,-14
51556934437,-13,-5,-3,-2,0,-1,-3,13
51556934437,-23,8,1,0,0,-1,-5,-7
51556941968,39,-4,-1,0,0,-1,15,-5
51556941968,-25,-5,0,1,-3,-3,-6,10
51556956816,41,1,-4,0,0,0,-9,-1
51556956816,24,-3,5,1,-1,-1,1,-5
51556964490,-12,-8,-4,-3,-3,-1,-15,-4
51556964490,-28,4,-8,-3,-2,-3,9,-1
51556980014,-48,-6,9,3,0,0,14,-5
51556980014,-3,-12,-12,-5,-1,-1,-8,-6
51556980753,-27,-2,4,0,-1,-2,1,14
51556980753,0,-2,-4,-3,-5,-5,-5,-9
51556994394,43,4,-9,-1,1,1,-8,-8
51556994394,-27,2,4,-2,-1,1,10,15
51557001970,-57,-12,-3,0,0,-2,-3,-31
51557001970,75,-5,2,-2,1,3,7,26
51557016946,8,6,4,2,0,-4,-13,-23
51557016946,-17,-7,-6,3,-1,-2,1,-7
51557024393,44,9,5,-1,1,1,-2,14
51557024393,-32,-6,3,-1,0,-1,-9,-5
51557040112,-11,-3,-7,-2,-2,-3,-7,-19
51557040112,33,1,3,1,0,-1,5,16
51557040826,25,0,0,-3,-4,-3,4,3
51557040826,-58,-8,-1,0,0,0,-5,5
51557054445,-31,-1,-2,-3,-2,-1,-4,-18
51557054445,37,-3,7,-4,-3,-2,-6,-8
51557061954,-7,5,4,4,3,0,-11,0
51557061954,15,5,-2,-5,-7,-4,24,9
51557076787,-5,-5,1,0,0,0,3,10
51557076787,-4,3,-4,-1,-2,-3,-5,2
51557084460,12,3,5,0,-1,-2,-3,-34
51557084460,26,-3,-8,-1,2,1,-25,-12
51557100021,-6,5,19,3,-1,0,21,27
51557100021,-8,-20,6,4,3,3,3,-5
51557100742,37,12,-7,-4,-5,-2,5,11
51557100742,51,-12,-5,-3,-1,-2,-5,15
51557114477,25,-8,-1,-1,0,1,-7,-11
51557114477,-30,-5,-6,0,-1,-1,-14,-6
51557121954,5,3,3,-2,-3,-1,13,18
51557121954,-10,1,6,-3,-2,-2,6,-2
51557136958,14,7,-9,-1,-1,2,-5,4
51557136958,33,6,-3,-1,-1,-4,2,-6
51557144416,-2,-13,0,0,1,-1,-4,2
51557144416,11,4,-4,-5,-6,-2,-3,-10
51557160212,-7,-3,-7,-1,1,-1,4,12
51557160212,62,11,-2,0,-1,0,4,-8
51557160751,-75,-10,-5,0,1,1,-15,-3
51557160751,12,4,1,0,0,-1,6,13
51557174409,-6,-2,1,-4,-5,-6,-8,-7
51557174409,12,2,-2,-2,-1,-1,9,5
51557181946,78,2,-4,-2,-3,-2,-5,21
51557181946,-86,-10,6,3,5,6,-4,-36
51557196814,-14,-5,-6,-4,-3,-3,1,6
51557196814,-1,5,-8,-2,-2,-1,1,4
51557204486,-29,-2,25,1,1,-1,-1,-2
51557204486,12,9,-3,4,0,1,3,12
51557220127,1,2,-3,-4,-3,-3,-12,-15
51557220127,-21,-3,-5,-1,-1,-1,-6,-16
51557220746,-6,6,-7,-3,-1,-1,16,1
51557220746,6,-4,-1,0,0,-4,-8,1
51557242653,-15,-12,-4,2,2,2,-4,-8
51557242653,19,5,5,4,2,3,-1,4
51557243325,-28,3,-16,-9,-3,0,-5,10
51557243325,-2,-4,4,0,-1,-1,2,15
51557256959,-2,-5,-7,2,0,0,-1,-24
51557256959,6,7,-3,-1,0,-2,-12,-7
51557264441,-18,-9,-13,-1,2,0,13,0
51557264441,19,-6,1,-1,0,3,3,14
51557280023,5,3,-3,-5,-4,-4,-11,-25
51557280023,-22,-7,-3,-1,-2,-2,-4,-2
51557280767,32,6,6,3,-3,0,3,10
51557280767,4,-4,-7,-2,1,0,7,1
51557294379,-18,1,6,0,0,-1,-2,-2
51557294379,18,5,-3,-2,-3,-2,-2,-3
51557301817,-67,-8,1,2,-2,-2,0,-16
51557301817,36,10,-11,-4,0,0,5,6
51557316767,-2,-5,0,1,0,1,-4,16
51557316767,34,4,-5,-1,-1,0,4,2
51557324335,-53,-2,14,0,-1,-2,-4,-10
51557324335,-82,-13,-2,0,-3,0,5,-7
51557340051,22,8,-2,-2,-1,-1,3,4
51557340051,9,-1,-1,-4,-3,-5,-7,-4
51557340937,-13,-10,-8,-3,-1,0,-5,-3
51557340937,7,0,3,-1,-1,-3,1,-11
51557354445,6,-2,0,-3,-2,-2,-4,11
51557354445,-38,-3,1,0,-2,0,10,-3
51557361851,24,-1,2,3,0,-1,7,0
51557361851,-10,-2,3,-5,-1,-2,-8,-4
51557376907,-2,1,0,1,2,0,0,8
51557376907,55,4,-5,-2,-2,-2,0,3
51557384443,-31,-9,-1,-1,-1,0,-6,-6
51557384443,15,-4,-4,-1,-3,-5,-5,6
51557399264,98,10,1,1,2,1,4,6
51557399264,-119,-17,-2,-1,-3,-2,-6,-1
51557407469,59,4,-13,-3,-2,-1,-5,-8
51557407469,24,9,2,-2,-3,-3,-11,-14
51557414411,8,-11,-6,2,1,1,2,17
51557414411,-11,2,3,-2,1,2,1,6
51557421832,28,-3,-4,-2,-1,-1,0,-1
51557421832,0,-1,0,1,2,3,0,3
51557436885,12,7,1,-2,-5,-3,12,-1
51557436885,-54,-22,15,2,1,0,-16,-17
51557444429,-7,14,-7,4,1,-3,-12,4
51557444429,-3,-4,13,2,2,2,-4,14
51557459446,43,-12,2,-2,0,-1,8,-23
51557459446,89,11,-4,-3,-1,1,12,8
51557467656,2,-12,-4,-2,-1,-1,-2,-6
51557467656,-4,0,4,2,0,-1,-6,-8
51557474387,-27,6,-2,-2,1,2,-7,8
51557474387,-64,-6,-7,-4,-2,-4,6,-11
51557481937,45,3,5,-2,1,-2,-17,5
51557481937,-24,5,-7,-1,-3,-3,14,-5
51557496920,-22,-6,-1,-1,-2,-1,4,11
51557496920,3,4,-4,-1,0,0,-1,0
51557504358,12,-1,3,2,-1,1,4,-15
51557504358,-16,-6,1,0,-2,-3,0,7
51557519330,38,6,-2,-2,-3,-4,-8,-1
51557519330,-46,-8,1,1,0,0,-3,-16
51557527528,7,-8,0,-2,0,1,11,15
51557527528,24,9,1,-1,-2,-2,-9,-32
51557534426,-35,-14,-2,-2,-3,-1,7,13
51557534426,50,7,-2,-1,0,1,-1,16
51557541981,27,-1,-1,1,-1,0,7,-4
51557541981,-49,-4,-1,-3,-4,-2,-2,-2
51557556969,28,14,-7,-1,-2,-1,-15,-6
51557556969,-26,-4,-9,-2,-3,0,19,20
51557564450,-16,3,-1,-1,-1,-1,-12,-6
51557564450,-19,-8,-14,-2,-2,-1,12,6
51557579387,14,4,11,0,-1,-3,1,-8
51557579387,-39,-20,10,2,1,-2,-15,6
51557587554,82,10,0,-4,-5,-3,4,-2
51557587554,21,2,-4,-2,0,0,-6,-15
51557602635,-65,-4,-2,-2,-3,-2,-6,1
51557602635,34,10,1,-1,-1,-3,4,-7
51557603280,39,-10,8,4,3,2,-3,8
51557603280,-25,-8,0,1,0,-2,1,1
51557617003,-37,4,2,-5,-4,-2,4,-12
51557617003,-3,-3,0,1,0,-1,-7,10
51557624459,-14,5,-4,1,2,0,8,-11
51557624459,70,5,-2,-2,0,1,-7,11
51557639445,10,-4,-5,-2,-1,-3,-3,-8
51557639445,31,17,-1,-7,-4,-4,8,-3
51557647616,-92,-17,-4,-4,-4,-4,-7,-2
51557647616,50,-1,3,1,0,2,3,2
51557662554,-43,-10,-5,1,4,1,-2,10
51557662554,5,7,-5,-2,-5,-3,-5,-9
51557663246,-22,-3,-5,-5,-4,-6,-4,-19
51557663246,-6,-2,-2,-1,0,-2,-3,1
51557676946,1,-1,2,2,2,1,4,-7
51557676946,-20,0,-2,1,-1,3,1,18
51557684464,1,6,-3,-1,5,1,-3,-4
51557684464,4,-4,19,-1,-1,0,19,6
51557699438,-27,-1,-4,-2,-2,-2,-11,-10
51557699438,3,-3,0,1,3,3,6,-8
51557707669,23,-4,-5,-2,-1,-2,-8,2
51557707669,-2,22,1,-3,-2,-3,-5,-1
51557722592,-34,-13,-2,0,-1,0,-2,4
51557722592,9,-17,-2,0,1,-1,5,-10
51557723283,-12,4,-6,0,-3,1,-5,7
51557723283,10,-6,-6,1,2,-1,-9,5
51557736963,20,4,2,-7,-7,-2,8,-20
51557736963,-76,-5,-2,-1,0,-2,-7,-2
51557744434,6,1,3,1,2,0,7,-1
51557744434,13,-6,-6,-3,-5,-4,-4,18
51557759513,12,-3,-6,3,3,2,0,9
51557759513,17,-17,4,0,-1,-1,-13,1
51557767571,24,-3,0,-3,-2,0,11,-10
51557767571,-45,-4,0,0,-3,-3,-6,-9
51557782580,13,10,-2,-1,0,2,4,4
51557782580,6,-2,-4,-5,-4,-5,-4,-7
51557783276,-31,-4,1,0,-1,-1,-5,8
51557783276,-15,-6,-5,0,2,4,13,0
51557797024,35,12,-4,-1,0,2,-9,6
51557797024,10,-1,1,2,2,1,16,15
51557804408,21,9,4,-4,-7,-4,-3,-2
51557804408,27,-4,-8,-4,-3,-2,-5,8
51557819414,-55,-2,-1,1,-2,-5,5,-21
51557819414,6,6,-5,0,0,0,-9,-4
51557827560,-33,-5,17,4,1,3,13,12
51557827560,114,-8,-6,-4,-4,-3,-5,-10
51557842603,30,1,-2,-4,0,0,-11,-17
51557842603,-83,-10,-8,-1,-3,-3,7,0
51557843249,14,-2,-5,-1,2,0,-4,9
51557843249,2,0,-1,-1,1,-2,-5,-1
51557864932,-69,5,3,0,1,-1,1,2
51557864932,13,4,1,1,1,4,0,-14
51557865801,7,0,-6,-1,-1,-1,1,13
51557865801,-50,-1,2,-2,-3,-2,2,-11
51557879321,23,-6,-1,1,-1,-1,6,14
51557879321,64,4,-2,-2,-1,-2,-5,14
51557887606,-41,2,3,-1,0,-3,-15,-16
51557887606,-28,2,-3,3,3,3,9,4
51557902598,26,3,1,-3,-3,-1,7,10
51557902598,32,-23,17,1,-1,-2,0,-18
51557903209,-48,-9,-4,1,0,-2,-10,4
51557903209,-12,3,-2,-1,-1,-2,-8,-14
51557916963,-22,-3,-2,0,0,-1,-15,-20
51557916963,-2,1,-2,-2,0,1,11,32
51557924528,49,22,0,-1,-2,0,10,1
51557924528,-42,-10,5,0,1,-1,7,-1
51557939551,-9,-13,5,-1,-2,0,-5,8
51557939551,-45,2,-2,-5,-5,-3,-17,-31
51557947552,3,-8,-6,-1,0,-1,6,9
51557947552,2,5,-2,2,2,2,3,-3
51557962631,36,-5,-1,1,0,-1,6,20
51557962631,-21,9,17,3,1,-1,-5,-5
51557963292,21,1,-4,-6,-6,-1,-5,-11
51557963292,6,-3,-5,-2,-1,-1,-7,-25
51557976969,12,4,1,1,-1,-2,0,-18
51557976969,33,7,-7,2,0,0,2,31
51557984454,-12,-9,-2,0,-1,-1,0,17
51557984454,6,-1,3,0,1,1,-1,-17
51557999290,-26,7,-1,-1,-3,-3,1,1
51557999290,14,6,-7,2,3,1,-5,-19
51558007640,44,-3,-2,-6,-4,-5,1,2
51558007640,16,-23,13,4,2,3,2,19
51558022602,-13,0,5,-5,-3,-5,-7,-4
51558022602,9,-2,-6,-1,1,2,-1,-12
51558023302,-19,-3,-1,4,2,-2,-16,-8
51558023302,32,-6,1,-5,-5,-4,-3,21
51558036957,-37,14,5,-3,-2,1,-3,7
51558036957,46,3,-2,-1,-3,-2,12,3
51558044442,57,9,1,-1,1,0,-8,-1
51558044442,-25,0,-7,-1,1,1,-10,-23
51558059424,50,-14,3,5,4,2,7,19
51558059424,-45,-3,-8,-3,-2,0,-4,1
51558067611,29,6,-2,0,-1,-1,-3,16
51558067611,-95,9,-5,-3,0,-2,2,-26
51558082551,16,-2,19,3,1,1,0,11
51558082551,67,6,-1,-3,-1,0,0,-6
51558083257,-28,-17,-4,-2,-1,1,5,-9
51558083257,-43,2,2,-1,-2,-2,-8,1
51558096883,7,-1,-7,0,-3,-2,2,-18
51558096883,5,-11,-7,-1,2,4,9,24
51558105065,-27,-4,5,0,0,-1,7,-14
51558105065,-14,0,-5,0,-2,1,9,12
51558119270,30,3,-6,-2,-3,-1,-3,-5
51558119270,25,12,11,-1,-5,-6,-8,-2
51558127604,-57,-8,-8,1,3,0,-8,-9
51558127604,23,-1,-6,-5,-1,0,6,28
51558142595,-6,-3,1,1,1,-2,-5,-24
51558142595,-39,-2,-13,-2,-3,-2,-1,5
51558143300,6,7,-4,0,-1,0,3,-17
51558143300,-25,-4,3,-2,-4,-1,2,15
51558156874,61,-1,-7,2,3,1,0,12
51558156874,-85,-10,-5,-7,-5,-4,-35,-26
51558165053,9,-2,-2,-3,-3,-3,23,4
51558165053,120,16,-4,2,3,0,-3,-1
51558179463,-124,-15,-1,-4,-4,-3,6,1
51558179463,19,-1,3,0,-1,1,2,11
51558187612,10,-3,-15,0,-2,1,-6,-11
51558187612,-56,-8,3,-2,-4,-4,-10,-13
51558202487,38,-3,-9,-2,0,-2,1,15
51558202487,9,6,0,0,-2,-3,8,-10
51558203412,-46,2,6,2,3,2,4,0
51558203412,56,9,-10,-5,-2,-1,-8,-1
51558216885,-34,-2,-2,0,-3,-2,-13,-13
51558216885,-21,-12,0,0,0,-2,19,13
51558225066,45,2,1,-2,-1,3,5,7
51558225066,-17,2,0,0,-1,0,-9,-3
51558248250,25,1,-2,-2,0,-2,-5,-8
51558248250,-21,-2,-1,-2,-3,-3,2,-8
51558248890,7,-1,1,0,-4,-2,2,10
51558248890,15,2,1,3,1,3,7,5
51558262474,21,-3,-6,-4,-3,0,8,2
51558262474,31,1,0,0,2,0,-6,-5
51558263394,-10,3,3,-4,-4,-6,-2,-1
51558263394,-22,-4,-4,1,3,3,5,17
51558277016,54,15,-10,-1,-1,-2,0,-21
51558277016,-53,-2,-2,-5,-4,-1,0,-7
51558285070,12,-10,2,-1,-1,0,-9,1
51558285070,-22,4,-3,-1,0,-1,3,8
51558299446,0,-5,2,-2,0,-2,-15,2
51558299446,54,6,0,1,0,-1,5,19
51558307680,5,-2,-2,1,0,-2,-1,-12
51558307680,-43,-12,-2,-2,-3,-4,3,-17
51558322560,-51,-8,-9,3,4,4,5,7
51558322560,3,0,15,-2,-1,-1,-3,-3
51558323188,17,-12,14,2,-4,-2,-10,7
51558323188,-68,-7,-1,-3,-6,-6,-9,-26
51558336887,26,-3,1,0,-1,0,7,6
51558336887,3,6,-8,0,1,-2,-6,-2
51558345120,30,8,-4,-5,-2,-3,3,-3
51558345120,52,-1,1,3,2,1,0,5
51558359756,-22,2,4,-2,0,0,-7,-1
51558359756,-10,-7,-3,1,1,-2,10,10
51558367638,0,4,0,-1,-1,1,-11,1
51558367638,-30,-5,4,0,0,0,-6,-21
51558381914,6,3,-1,0,2,1,18,19
51558381914,85,0,-3,1,-1,1,13,7
51558390122,-90,-11,-3,-1,0,-2,-10,-15
51558390122,13,7,-1,0,0,1,8,-1
51558405767,-32,-2,3,0,-2,0,-10,36
51558405767,-44,-1,-1,-2,-5,-5,-19,-53
51558406487,20,-7,-4,-2,-2,-5,4,17
51558406487,9,3,2,0,-2,-2,-1,-6
51558419913,-6,-4,-2,1,2,1,1,-4
51558419913,38,6,1,-2,-2,-1,2,9
51558427565,-37,-19,-2,-4,2,0,1,-6
51558427565,-39,6,-18,-3,-1,0,-8,-4
51558441942,62,-28,26,6,-2,-2,1,2
51558441942,-80,-4,-7,0,-1,-2,-6,3
51558449964,71,13,1,-3,-3,-2,11,4
51558449964,-39,-3,-1,-1,2,-2,-6,-3
51558456914,12,8,-7,-2,-1,-1,-8,1
51558456914,-4,-7,-5,1,0,-1,-10,-6
51558465078,22,-4,2,5,3,1,9,20
51558465078,-20,4,6,-1,0,1,-1,9
51558479402,38,12,0,-3,-4,-3,3,3
51558479402,-58,-4,4,0,1,1,-4,-2
51558487540,26,11,-7,0,0,0,-6,-3
51558487540,40,-1,1,0,-2,-2,6,10
51558501721,28,2,-5,-1,0,1,-3,-11
51558501721,-67,-10,-2,-1,2,1,-3,-6
51558510099,14,2,-1,-1,-1,-1,2,-1
51558510099,83,0,3,0,-5,-4,-9,-5
51558525813,-28,-10,-7,-1,4,3,14,-5
51558525813,84,23,-5,1,-2,1,-18,3
51558526445,-32,20,-5,-2,-4,-4,9,-12
51558526445,48,-10,20,3,3,-1,-1,6
51558539260,-32,-3,-12,-7,-5,-5,-2,-5
51558539260,41,7,2,1,-1,1,-4,5
51558547607,0,-5,-6,1,1,3,8,-4
51558547607,-14,7,-4,-2,-5,-4,-1,7
51558561889,16,6,-1,1,1,-2,-1,-14
51558561889,-33,-14,3,-4,-3,-3,10,13
51558570176,2,-2,-1,-3,-2,1,-14,-5
51558570176,-8,-9,4,1,-1,0,15,27
51558585854,-45,-9,0,-2,-3,-2,-8,-36
51558585854,45,10,6,0,1,0,5,-9
51558586383,-7,18,-14,-2,-2,-4,-7,-3
51558586383,-17,-6,1,-2,-1,0,-1,-3
51558599371,-43,2,-8,-1,0,1,-7,4
51558599371,50,1,-4,-4,-6,-3,16,-11
51558607497,-37,-4,0,-2,-2,-3,-16,12
51558607497,-5,-3,-7,-3,-4,-4,-8,-18
51558621959,63,9,5,2,2,2,8,31
51558621959,-69,-9,-5,-3,-1,-3,7,-16
51558630068,-26,0,2,0,-1,-2,2,4
51558630068,27,-1,-6,0,1,-1,-7,-12
51558645813,43,14,-10,-2,-4,-4,-1,3
51558645813,-19,-1,23,5,0,3,-2,16
51558646414,-80,-17,1,0,1,-2,-3,-32
51558646414,42,7,-9,-3,1,4,7,23
51558659312,31,-2,0,-3,-5,-5,-10,-20
51558659312,-14,1,-5,0,1,0,-2,4
51558668249,-67,-13,2,-2,-2,-2,-10,-3
51558668249,-5,-12,-2,-4,-3,-2,7,8
51558681855,-41,-22,-1,3,3,3,-2,-5
51558681855,64,1,-5,-1,-1,0,-1,8
51558690758,55,-2,4,1,-2,1,-1,-6
51558690758,-105,2,-12,-9,-6,-7,1,-12
51558705111,-15,-6,-1,-2,-1,-3,-1,-10
51558705111,16,4,-3,1,0,-1,2,11
51558711953,9,-4,0,-1,1,0,6,-13
51558711953,-8,19,-2,2,1,-1,-15,-15
51558719456,-25,-5,2,1,1,0,19,21
51558719456,-1,-9,-7,-4,-4,-3,-8,-9
51558728241,23,17,4,-2,-3,-4,-6,3
51558728241,25,4,0,1,1,-1,3,-1
51558741934,-65,16,-11,-3,-4,-2,-7,-7
51558741934,17,-19,8,3,4,1,-11,-3
51558750753,73,1,-4,-4,-5,-1,4,29
51558750753,-33,4,1,0,-2,-2,0,-14
51558765120,35,-7,-6,-1,-2,-2,0,18
51558765120,-23,2,-16,-4,0,-4,-3,-16
51558771923,-37,-17,11,4,5,5,10,3
51558771923,-11,-5,7,1,-2,0,-6,-3
51558779398,85,5,0,-1,-1,-2,-3,-2
51558779398,-37,7,-20,-3,-3,-3,10,24
51558788249,17,-2,5,0,1,-1,3,-2
51558788249,-45,-20,-4,0,1,2,-9,-6
51558801830,-37,5,9,-1,0,-2,3,-3
51558801830,23,5,-4,-2,0,-2,6,12
51558810714,89,6,-4,-2,0,-3,-14,8
51558810714,38,-4,0,0,0,-1,6,2
51558825615,-60,-10,5,-4,-3,-2,-6,4
51558825615,-48,-2,2,-1,1,3,-2,-26
51558827201,24,0,-4,0,-3,-4,-7,7
51558827201,41,-4,0,-1,-3,-1,9,3
51558839459,-82,-1,3,0,-1,-1,-1,-13
51558839459,77,12,5,-3,-2,0,-7,8
51558848276,-40,-3,-2,0,0,-1,2,-10
51558848276,0,-4,-4,-2,2,0,-6,-1
51558861980,47,-1,-7,-2,-2,-1,-3,7
51558861980,-19,2,-4,-1,1,1,3,8
51558870750,-23,13,2,2,0,1,6,5
51558870750,74,3,3,-1,0,-1,2,0
51558885915,-24,3,2,-3,-5,-4,-3,0
51558885915,-16,-12,1,1,-2,-3,-3,-11
51558887267,26,-2,6,1,2,1,-4,-3
51558887267,-27,-7,-23,-3,2,0,5,3
51558899235,101,6,7,2,4,4,3,19
51558899235,-64,-20,2,-5,-10,-8,-5,-16
51558908227,-46,1,-3,-3,0,1,7,-1
51558908227,90,6,-6,-1,-1,-3,-9,-6
51558921822,-20,0,-6,3,2,0,-5,-21
51558921822,-8,-8,0,-2,-1,2,-8,-2
51558930709,-6,-7,-29,-1,2,1,-1,8
51558930709,-16,11,50,4,-4,-3,11,13
51558945756,-102,-14,-8,-1,-2,-5,-6,-20
51558945756,77,11,3,1,4,4,3,7
51558947199,-22,-13,-6,-6,-6,-3,-4,-7
51558947199,-9,4,-9,-3,-2,1,-10,-9
51558959471,11,2,-1,-3,-2,-1,0,-8
51558959471,48,5,2,3,1,1,19,32
51558968251,-71,-5,0,3,2,0,3,-14
51558968251,-17,-1,-6,-1,-5,-4,-17,-5
51558981831,46,0,2,-1,1,0,8,3
51558981831,-56,-9,-4,-3,-2,0,-11,-21
51558990745,74,5,-13,-4,-3,-1,2,6
51558990745,-12,3,1,2,3,4,12,7
51559005610,-34,-3,-5,1,-1,0,-3,-4
51559005610,66,24,0,4,1,-1,-4,-15
51559007202,-69,0,-7,-2,-1,-2,-11,5
51559007202,-56,-9,-4,-2,-2,-2,1,-7
51559019291,50,9,5,-1,-3,0,1,3
51559019291,-26,-13,-2,-2,0,-2,-8,28
51559028221,87,11,8,1,-3,-3,-1,6
51559028221,-19,-12,-7,4,7,4,-2,-16
51559041879,81,1,0,-6,-4,-4,-8,-8
51559041879,-32,-13,2,1,0,2,3,7
51559050697,43,9,3,-6,-6,-5,-9,-2
51559050697,13,-5,-7,-3,1,4,23,14
51559073077,-69,-8,-1,-1,0,2,2,8
51559073077,49,-2,-3,-2,-2,-2,1,-10
51559074639,16,-1,7,3,2,2,-11,-10
51559074639,-56,-5,-1,1,-2,-1,1,-6
51559079230,-40,-19,9,-1,-3,-4,-4,5
51559079230,54,-3,13,3,0,2,-1,-14
51559088148,-6,5,17,-1,-1,-1,9,-9
51559088148,-62,-12,-3,-1,-3,0,-2,14
51559101748,72,4,0,-1,2,-2,-1,17
51559101748,-30,5,1,-2,-1,-3,-2,-15
51559110721,32,2,1,3,1,1,-1,15
51559110721,-21,-3,3,-3,-1,-2,-1,-19
51559125645,12,-2,-6,-3,-3,0,6,12
51559125645,-46,-4,-13,-4,-2,-4,-6,-9
51559127197,-24,-10,1,4,2,1,-5,-6
51559127197,121,19,-4,-3,-1,-1,0,8
51559139527,-90,-6,-7,-3,-2,-4,-9,-22
51559139527,50,-1,3,0,-2,0,10,17
51559148214,-25,-13,1,-3,-3,0,10,11
51559148214,-27,-2,-4,-1,2,-2,-18,-16
51559161698,35,5,3,1,1,1,-5,11
51559161698,11,6,-7,-5,-2,0,-5,13
51559170715,-59,-17,2,1,1,0,26,2
51559170715,47,4,-2,-1,-3,-1,-4,1
51559186053,-24,3,-4,-1,-3,-2,4,-8
51559186053,1,9,-1,-5,-4,-4,-7,-7
51559187632,-2,-5,-3,-2,-1,1,-7,-12
51559187632,3,-5,-3,-4,-5,-3,-1,12
51559199262,-7,5,-1,3,2,1,-9,-13
51559199262,79,3,2,1,2,6,23,7
51559208165,-37,-11,-3,-6,-2,-6,-18,1
51559208165,45,11,6,3,0,1,4,-1
51559221911,38,-4,-3,-3,0,-1,2,2
51559221911,30,-9,-9,-1,-1,0,-6,-3
51559230730,-21,-3,-3,0,-4,-3,-4,-2
51559230730,3,3,1,0,0,-2,5,18
51559245645,44,5,0,-1,-2,-2,-3,-11
51559245645,-102,-7,-1,0,0,-2,8,-11
51559247626,8,-3,-6,-3,-1,-1,-14,-9
51559247626,6,-1,2,-1,-3,-3,-2,-3
51559259168,24,11,-1,0,0,2,8,20
51559259168,-59,-2,5,1,-2,1,-4,-4
51559268178,-2,-6,-5,-2,-1,-1,4,-1
51559268178,-15,-4,4,1,-1,0,0,8
51559281669,-24,1,6,-1,0,0,-4,0
51559281669,-41,-7,2,-2,-5,-6,-7,-15
51559290820,48,10,-4,-5,-3,-3,-3,-2
51559290820,-22,-12,-3,1,3,4,-1,3
51559305056,-59,3,2,-1,-3,-4,4,-8
51559305056,-17,-9,-3,1,0,-2,-12,1
51559320195,81,10,-4,0,-1,-1,2,5
51559320195,-22,3,-1,-3,-3,-4,8,3
51559320698,15,-3,-2,0,0,1,0,-1
51559320698,25,10,-4,-1,-3,-2,-5,14
51559328221,-21,1,3,4,2,0,4,-11
51559328221,-2,-6,-4,-3,-1,-2,-8,-22
51559341814,8,-7,0,-1,-1,-1,4,5
51559341814,-57,-8,-5,-4,-5,-7,-7,-15
51559356925,-11,-7,7,3,3,4,5,6
51559356925,60,0,-1,-1,-4,0,-1,15
51559365067,-21,-4,-4,-1,-2,-2,-6,-4
51559365067,100,12,3,1,1,1,-10,-18
51559371791,-110,-11,-4,0,0,0,22,-9
51559371791,-19,0,-3,-5,-3,-8,-20,3
51559379169,-19,6,-8,-2,-1,-3,-7,0
51559379169,16,-1,-2,0,1,0,-3,3
51559388211,1,7,-1,-3,-4,-1,4,-14
51559388211,0,-2,3,1,0,2,-4,-1
51559401722,-1,-5,-5,1,0,3,13,-4
51559401722,4,5,2,3,-1,-2,-5,-6
51559410720,-18,6,0,0,1,-2,-10,20
51559410720,-4,-8,-4,0,-2,-1,3,-39
51559425065,23,13,3,3,1,2,-2,-4
51559425065,17,1,2,-4,-1,-2,4,20
51559431941,-36,-6,1,-4,-4,-4,-12,-21
51559431941,6,4,-3,-1,-2,-2,14,12
51559439300,-44,-7,-3,2,2,2,-11,-9
51559439300,44,-8,1,-1,-1,1,5,1
51559448176,28,2,-4,-2,1,0,-1,6
51559448176,-49,3,1,-1,-3,-5,-8,-11
51559461809,19,-16,-7,-6,-4,-3,5,-2
51559461809,-23,-3,-7,0,1,3,-1,-1
51559470664,35,1,-1,-1,0,0,-1,-4
51559470664,21,-1,1,-2,-2,1,-9,-2
51559484872,-9,-1,3,-1,-2,0,13,2
51559484872,-25,7,1,-1,-3,-3,-7,18
51559491680,-41,-3,-4,2,1,1,7,-24
51559491680,0,9,-5,-1,2,2,0,15
51559508096,61,1,0,-1,-3,-2,-4,8
51559508096,18,-1,0,-1,2,2,2,0
51559509710,-15,5,-2,-2,-3,-3,-5,-13
51559509710,48,-1,3,0,0,0,-9,20
51559521693,16,12,-13,-4,-1,-1,22,-22
51559521693,-13,-5,20,2,0,1,9,23
51559530708,23,3,-1,-1,0,2,-3,9
51559530708,-1,-4,-6,0,2,0,-1,-10
51559545031,-26,-6,-1,1,0,0,-7,10
51559545031,-21,-3,-5,-1,-1,-1,1,-10
51559551849,43,11,1,-3,-6,-5,-1,0
51559551849,-10,-2,3,-3,-4,-4,0,6
51559568039,50,4,3,1,2,-1,-6,3
51559568039,-109,-14,-13,-5,-5,-6,-14,-26
51559569646,29,-11,6,0,1,1,7,41
51559569646,23,5,-3,0,1,0,4,-14
51559581883,-20,-4,1,0,0,-1,-10,-8
51559581883,66,1,-3,-2,-3,-2,-3,-1
51559590812,-44,-5,-4,-2,-1,-2,-7,-3
51559590812,73,-3,-2,-3,-2,-3,-6,-5
51559605042,-26,-6,5,1,-1,0,-1,1
51559605042,57,7,-1,1,5,4,-3,5
51559611891,26,0,0,2,-2,-3,-1,5
51559611891,-30,-14,3,-2,-1,-1,-3,-3
51559635635,14,5,0,0,-3,1,2,22
51559635635,-32,-5,-5,1,1,-1,-1,-23
51559637224,23,-1,0,1,1,2,0,-4
51559637224,16,-1,-3,-3,-4,-5,-4,-23
51559641679,-52,-8,-6,-6,-1,-3,-1,26
51559641679,-32,1,-5,-2,0,1,5,-7
51559650681,14,-2,3,4,3,3,0,4
51559650681,-25,-7,5,0,-3,-3,-11,-5
51559664893,28,7,-3,-4,-5,-2,-10,-16
51559664893,-15,2,-3,-2,0,-2,3,1
51559671675,-15,0,-5,2,3,3,3,-8
51559671675,18,11,-7,-3,-3,0,-3,26
51559688007,-20,-9,5,4,2,-2,-7,-35
51559688007,-1,-11,-11,-9,-6,-2,5,-3
51559689621,0,0,4,0,-5,-3,-15,7
51559689621,-48,3,-3,3,1,3,15,1
51559701753,-8,-2,-3,-4,-2,-1,-6,9
51559701753,-14,-2,-3,-1,-4,-3,-2,14
51559710652,-49,-22,7,2,1,-2,1,6
51559710652,10,6,-2,-2,0,0,7,-15
51559724827,-9,-11,3,1,0,-1,-7,-12
51559724827,28,1,5,3,0,5,4,-1
51559731679,18,7,-7,-7,-7,-4,0,3
51559731679,-14,-2,1,3,3,-1,0,2
51559747988,-38,-7,-1,1,0,-1,1,-10
51559747988,8,4,2,3,1,0,-1,7
51559749633,-1,-3,-3,-2,-1,-3,3,-4
51559749633,3,-4,-6,-2,0,0,-3,-7
51559761650,20,9,-3,-1,-1,-1,2,-5
51559761650,-39,-9,-1,0,1,-1,-8,5
51559770737,52,-4,-2,-2,-2,-3,-11,-8
51559770737,-21,-3,2,-2,-4,-2,21,19
51559784903,65,-2,-7,-3,-3,-3,-7,11
51559784903,-15,3,1,1,-1,-1,3,0
51559791720,-14,1,-2,1,1,3,-5,-15
51559791720,-57,-18,3,-3,-1,-1,4,1
51559808057,29,-14,8,1,1,2,6,7
51559808057,14,-4,1,-6,-6,-10,-9,-3
51559809655,44,15,-1,-1,0,-1,1,-1
51559809655,-8,3,-4,3,3,4,-3,-8
51559821698,6,0,-4,-2,1,-1,-3,8
51559821698,-58,-6,1,0,2,-1,-1,-4
51559830658,9,6,-3,-3,-4,-2,-1,-7
51559830658,8,0,-1,-3,-1,-1,-6,7
51559844860,-5,8,-1,0,-1,-2,-1,23
51559844860,-49,-8,-1,0,3,3,-2,-45
51559851648,37,-6,-2,-6,-5,-2,4,8
51559851648,-4,4,-4,-1,0,-1,-3,1
51559868188,6,2,0,-1,-3,-4,-7,-11
51559868188,-22,4,4,2,-1,-4,-9,13
51559869626,-94,-1,-4,-2,3,2,4,-17
51559869626,36,-4,-2,-2,-2,-2,-7,-7
51559881813,17,1,-1,-3,-2,-3,0,11
51559881813,36,4,-1,1,-1,1,2,-3
51559890692,6,-7,-1,-1,-3,-1,-2,6
51559890692,-23,6,-1,0,2,1,-11,-4
51559913157,-28,1,1,0,-1,0,2,1
51559913157,82,0,0,-2,-2,0,-2,-17
51559914700,-102,-1,-4,-5,-5,-7,-5,-7
51559914700,-2,6,2,3,1,1,2,-9
51559928209,-25,-3,-5,-2,-1,0,-1,-3
51559928209,26,-3,-2,-2,-2,-3,6,21
51559929672,69,0,2,1,1,-2,2,-5
51559929672,-4,-10,-4,-2,-3,-3,7,17
51559941757,-86,-8,-1,1,1,1,2,-13
51559941757,-69,0,-1,-4,-4,0,-2,4
51559950641,16,4,0,2,3,3,-2,3
51559950641,25,2,3,-2,0,3,-2,-2
51559964975,27,-18,13,2,6,2,6,9
51559964975,-2,-3,1,1,1,-1,-2,-6
51559971824,54,3,-3,-2,-2,-1,1,-6
51559971824,-3,-5,-1,-1,-2,-3,-8,-3
51559988218,-7,2,-9,-2,-1,-2,1,4
51559988218,53,9,2,-1,-1,-2,0,-19
51559989692,-46,-3,0,-3,1,2,-3,6
51559989692,35,-3,-2,-1,-1,-1,0,9
51560001653,-27,-1,-12,-2,-2,0,4,-11
51560001653,29,-3,4,3,0,-1,3,3
51560010798,39,8,2,0,0,2,2,5
51560010798,-28,-12,-5,-5,-4,-6,-5,-12
51560025055,-12,-11,-7,-2,1,1,-2,14
51560025055,18,-2,0,1,2,4,7,8
51560031711,12,-4,0,0,0,-1,-4,-6
51560031711,6,4,-2,-1,-2,-3,9,17
51560048224,64,8,6,-1,-1,-1,-11,-7
51560048224,-14,-2,-1,-2,0,-2,-5,2
51560049804,-22,-5,1,2,0,1,2,7
51560049804,25,-3,-3,1,-2,0,-3,-4
51560061919,-22,10,4,-5,-5,-4,1,-16
51560061919,13,-13,13,3,2,1,2,9
51560070671,-30,4,-1,1,0,0,-3,-7
51560070671,-74,-3,-2,0,1,0,12,-8
51560084889,20,11,-4,0,0,-2,-2,-5
51560084889,20,6,-1,-4,-3,-1,-11,-6
51560091906,2,-9,-3,-2,0,-4,2,4
51560091906,-15,0,7,3,4,4,2,1
51560108306,43,5,-2,-3,-2,-3,0,-14
51560108306,81,5,-7,0,1,0,-4,14
51560109688,-71,-11,-8,-3,-3,-3,1,-11
51560109688,26,2,2,-2,-3,-3,-6,14
51560121646,-11,-5,0,-1,0,2,6,-59
51560121646,-16,5,-9,0,0,0,-5,9
51560130770,37,-1,-3,-3,-5,-5,5,16
51560130770,-9,5,-1,0,0,-3,-18,-22
51560145034,67,-1,3,0,-5,1,-1,21
51560145034,-76,-5,-20,-6,-3,-5,-1,-11
51560151753,-6,-2,4,0,1,1,-1,-11
51560151753,5,-7,-6,-3,-3,-5,9,18
51560168035,20,1,-5,1,-1,-1,-17,-3
51560168035,-2,6,-3,-4,-4,-3,1,-6
51560169643,-34,-3,2,-2,-1,-2,8,8
51560169643,-21,-2,-1,2,5,5,1,-6
51560181823,6,-12,17,3,1,-2,-6,15
51560181823,-80,-10,-3,-2,-1,0,10,-19
51560190695,30,2,0,1,1,-2,-13,-6
51560190695,23,9,2,-1,-2,-1,2,19
51560204935,-55,-10,2,-1,-3,-2,2,-5
51560204935,22,0,4,1,0,1,-1,6
51560211868,22,1,2,-1,-2,-1,-1,-14
51560211868,6,-3,-13,-1,-1,1,0,-12
51560227366,-41,3,-10,2,3,2,5,27
51560227366,17,-15,0,-1,2,0,-11,-8
51560234270,-17,-7,-4,-4,-3,-3,2,5
51560234270,17,1,1,-1,-3,-2,-8,-3
51560241824,15,5,0,-3,-1,1,-4,-1
51560241824,-2,-3,4,0,-2,-1,3,16
51560250650,-37,-3,-4,1,-1,1,-1,-13
51560250650,18,1,0,-1,1,0,2,-16
51560265032,-14,7,-4,-1,0,2,2,17
51560265032,-34,-2,1,-3,-4,-6,-1,-18
51560271769,41,2,2,0,1,0,-19,3
51560271769,19,3,-7,-2,-2,-1,10,-9
51560287401,-21,9,-10,0,-1,-1,0,0
51560287401,29,1,8,1,0,-1,4,11
51560294325,-105,-14,-4,-2,-4,-5,-4,-10
51560294325,-15,-12,-2,-1,2,0,-4,21
51560301764,31,-1,-11,-2,-3,-3,2,-60
51560301764,-7,5,1,0,-1,-2,-6,1
51560310670,3,14,-3,0,0,1,6,17
51560310670,9,-4,2,-2,-3,0,0,9
51560325033,-33,-2,3,1,-1,-3,-6,1
51560325033,20,-7,-3,-1,0,2,-2,-2
51560331861,33,1,2,0,-1,0,4,-5
51560331861,-21,-1,2,0,-2,-3,-9,-13
51560347453,7,-8,1,-2,0,-2,0,10
51560347453,32,5,-2,2,-1,0,3,-1
51560362482,45,5,-3,0,1,1,-2,16
51560362482,-44,-7,0,0,0,1,-4,-14
51560363111,25,4,8,-2,-3,-3,0,16
51560363111,-15,3,-10,-3,-2,0,-2,4
51560370690,-71,-6,-7,-5,-4,-2,1,6
51560370690,11,4,9,2,-1,-1,-5,-19
51560384854,52,6,-2,-2,-1,-1,-5,12
51560384854,-18,-4,-5,-3,-1,1,2,4
51560391656,27,-4,-4,-3,-3,-2,7,25
51560391656,7,14,-4,-3,-3,-6,-5,-25
51560407332,-28,-6,-15,-1,2,-1,-3,8
51560407332,41,11,-1,1,1,1,6,8
51560414169,-15,-7,11,0,-4,-3,-11,-23
51560414169,-2,-12,4,0,1,3,5,11
51560430543,28,3,1,-1,-5,-2,5,-6
51560430543,1,8,-2,0,-3,-4,-3,2
51560432138,-6,-6,-5,-1,0,-2,-2,-6
51560432138,-1,-4,-3,-1,2,3,4,1
51560444828,-13,2,8,1,-2,-2,-6,-2
51560444828,13,-1,0,-1,0,0,2,1
51560451696,-13,-1,0,2,2,-1,-2,-8
51560451696,27,6,1,-3,-2,-2,4,13
51560467554,-1,-9,0,-1,0,1,-4,1
51560467554,-63,-4,-1,-1,0,0,-8,-22
51560474227,32,-5,-4,0,0,0,14,21
51560474227,9,8,1,-1,-1,0,2,4
51560490594,35,3,2,0,2,0,-6,-13
51560490594,-11,-11,-3,-3,-2,-5,-7,-4
51560492197,31,20,4,2,2,0,-2,-8
51560492197,-16,-8,2,3,1,2,3,-13
51560504842,-9,-21,6,-3,-4,0,5,31
51560504842,4,-3,1,-1,-3,-1,0,-7
51560511642,49,5,-8,-1,2,0,3,5
51560511642,-106,-10,-1,-1,2,0,-5,-5
51560527510,49,1,3,4,0,-1,3,4
51560527510,9,14,5,0,-2,0,6,7
51560534289,-26,-11,-3,-5,-6,-3,-4,-11
51560534289,26,2,-8,-2,1,1,1,7
51560550688,-51,-7,-7,-3,-1,-2,-3,-18
51560550688,-1,-5,0,3,1,0,-1,-4
51560552152,-15,-6,3,-1,0,0,-7,-2
51560552152,10,1,0,-4,-5,-5,-4,-4
51560564846,83,12,0,0,2,0,4,20
51560564846,-77,-17,-5,-4,-3,-2,-11,-24
51560573140,49,-15,4,3,3,4,14,7
51560573140,13,7,-1,-3,-6,-9,-12,11
51560587602,15,7,5,1,-1,0,-5,-4
51560587602,-52,0,-6,-3,-1,-1,8,26
51560594427,0,-13,15,6,3,2,-3,-4
51560594427,-10,-3,-1,-1,-3,-2,-1,-7
51560610743,-36,-3,-2,-6,-4,-3,-2,-8
51560610743,86,8,-1,-4,-2,-1,0,-8
51560612217,-29,3,-3,-2,-3,-2,-7,-4
51560612217,-9,11,-2,0,-3,-2,-2,-1
51560624847,-46,-4,-1,2,2,0,4,-6
51560624847,-7,-5,1,1,-1,0,2,5
51560639150,63,8,-8,-3,-1,-3,-4,4
51560639150,-40,-10,4,1,1,3,10,-15
51560647446,23,-6,-23,-7,-5,-4,-8,13
51560647446,-81,-11,14,4,3,-2,-6,-3
51560654325,-10,17,3,-1,-2,0,4,-8
51560654325,61,4,-3,-3,-1,-2,-7,13
51560670613,-94,-10,-6,-4,0,-1,-1,-57
51560670613,-11,-2,-7,-2,0,0,7,18
51560672121,-17,-4,-2,0,-2,-2,-7,-17
51560672121,-16,-2,2,-3,-5,-4,-8,3
51560684843,35,-2,4,1,2,4,14,10
51560684843,38,-1,-4,-3,-2,-3,-9,-14
51560691760,15,0,-7,0,0,-1,-14,-8
51560691760,-33,-16,-2,0,-1,0,12,-2
51560707323,28,10,4,-4,-4,-2,-10,14
51560707323,40,7,-15,-5,-2,-2,-10,-3
51560714167,8,-6,-4,-2,-1,0,13,22
51560714167,-15,-1,3,1,-2,-3,-10,-19
51560730598,-31,6,3,3,1,1,-1,-5
51560730598,27,1,3,1,2,1,-1,9
51560732070,-15,9,-12,-3,-1,-1,-2,-7
51560732070,-30,-10,2,-1,2,3,4,2
51560745048,-17,3,-3,-2,0,1,3,5
51560745048,19,0,5,-2,-3,-2,-6,-4
51560751731,-24,-2,-1,-1,-1,-1,1,-4
51560751731,95,8,1,0,1,-1,-3,10
51560767510,-103,-17,-6,-2,-1,0,-4,-9
51560767510,29,6,1,1,0,-1,0,2
51560774345,9,5,23,2,-1,-3,-10,-4
51560774345,31,0,-4,-6,-2,0,9,6
51560790667,-14,-4,1,1,0,-1,-6,5
51560790667,6,-2,-2,-1,-1,0,9,8
51560792149,50,4,-1,0,-3,-3,-2,-4
51560792149,-33,2,-1,-1,0,0,-4,-8
51560804948,60,1,-2,0,1,0,-1,-2
51560804948,4,0,-3,-3,-2,-1,8,8
51560811705,-52,-3,-3,-1,-1,-2,-6,-17
51560811705,78,0,2,1,1,-2,-3,14
51560827647,55,16,-5,-4,-2,-2,0,-7
51560827647,-11,-16,5,4,4,4,7,17
51560834305,44,0,1,-2,-2,1,3,4
51560834305,-100,-9,-1,-1,-3,-2,5,-38
51560850675,-4,2,4,1,-1,-2,-10,7
51560850675,5,3,-2,1,0,-1,4,-3
51560852065,55,2,0,0,-1,-2,-2,10
51560852065,-27,-5,-6,1,0,-1,0,10
51560864983,61,2,4,2,1,0,-2,-2
51560864983,-43,-5,-4,-3,-3,-2,6,-20
51560871818,0,-9,-11,-2,1,3,-3,5
51560871818,-3,0,-8,-2,-2,-3,-11,-14
51560887560,-42,-1,1,1,0,-1,2,3
51560887560,10,-2,3,-3,-4,-3,-1,8
51560894349,-19,-9,-4,-4,-1,-1,-2,-10
51560894349,68,6,1,2,1,-1,1,15
51560910243,-48,-8,-2,-1,0,2,5,9
51560910243,-3,-3,-2,-2,-1,-1,-5,-6
51560916669,-86,3,15,2,0,-1,5,-2
51560916669,-13,-3,-1,-3,-3,1,-7,10
51560924183,21,-6,0,-1,-4,-4,8,-4
51560924183,40,16,-6,0,2,0,-4,-7
51560933176,-32,-5,0,-4,-3,-2,-1,5
51560933176,44,7,1,-1,-2,-1,1,7
51560947528,-65,-6,-5,-3,-1,-2,-8,-6
51560947528,40,-8,7,2,0,-2,-7,-5
51560954165,13,2,-3,-2,-4,-2,2,-7
51560954165,-88,-7,-2,-1,1,3,4,-1
51560970525,-17,-4,-4,-2,0,0,3,3
51560970525,61,4,0,0,-2,-4,-11,-9
51560972117,-5,-5,-2,0,0,-2,4,9
51560972117,-17,-8,3,2,2,1,-7,-1
51560984250,30,11,-5,-5,-4,-5,-6,-7
51560984250,-123,1,3,-4,-3,-1,9,-1
51560993165,34,-3,0,1,1,2,-1,13
51560993165,20,6,-3,0,-3,-3,-1,-3
51561007500,-17,-7,0,1,1,3,3,-3
51561007500,19,4,-1,0,-2,0,3,15
51561014413,-40,-7,-12,-1,2,-2,-7,-23
51561014413,24,10,3,-1,0,-1,7,10
51561030512,53,1,9,-1,-2,-6,-10,-17
51561030512,-39,-9,-6,-4,-4,-1,14,21
51561032119,-4,1,-1,0,0,1,-3,-5
51561032119,-6,-10,-6,1,2,2,-4,-7
51561044295,40,14,6,0,-3,-1,3,7
51561044295,-9,-6,-3,-2,1,-3,-17,-22
51561053189,76,2,-2,-4,-1,0,16,29
51561053189,-7,0,-1,-2,-4,-6,-9,-9
51561067424,15,-3,1,2,0,3,7,12
51561067424,34,14,-6,-1,0,0,-5,-9
51561074333,8,1,3,1,-1,1,4,-5
51561074333,-11,-3,-1,0,0,0,-19,-8
51561090520,-65,-9,-7,-3,-2,-4,-3,2
51561090520,4,-1,-4,-2,-1,0,-2,-9
51561092099,24,5,-3,-2,-4,-4,-4,11
51561092099,7,9,2,0,0,-2,6,-3
51561104311,2,-16,-2,0,2,0,-1,-3
51561104311,-13,2,8,0,-1,-1,-3,6
51561113263,35,6,-5,-2,-2,-1,-14,-25
51561113263,12,-17,2,0,1,-1,0,-4
51561127439,-10,0,-1,-3,-2,0,5,-4
51561127439,13,-5,-4,4,0,0,1,12
51561134235,13,5,5,0,-1,-4,-11,4
51561134235,-33,-3,-5,-4,-3,0,14,7
51561150676,8,-6,-2,-3,-3,-4,-3,-8
51561150676,-34,-1,0,-1,-3,-1,0,-3
51561152054,-46,0,-3,0,0,-1,3,-9
51561152054,32,7,-1,-1,-4,-1,-4,1
51561164120,2,-5,0,2,2,2,5,11
51561164120,34,10,6,4,3,1,-2,-1
51561173147,-83,-21,-5,-6,-3,-3,-15,-47
51561173147,0,-5,-1,0,0,2,11,14
51561187338,-13,2,-1,-4,-2,-3,-4,2
51561187338,39,1,-9,-2,1,0,-3,-8
51561194103,10,-17,15,6,2,2,6,26
51561194103,21,10,0,-1,-2,-1,-3,-9
51561209835,0,-2,-8,0,1,2,0,-5
51561209835,-46,-6,21,2,-1,-1,5,2
51561216643,-47,6,-1,-3,-3,-1,-3,4
51561216643,-42,-7,-5,-5,-5,-5,-3,1
51561224095,44,0,-2,-1,-3,-3,-3,-5
51561224095,14,3,-4,0,-1,-1,-2,-4
51561233139,-8,-1,-1,2,0,-2,6,33
51561233139,59,9,4,1,4,1,-1,-20
51561247434,-96,-9,-7,-3,-4,-4,-6,-11
51561247434,29,-3,1,0,-1,0,17,3
51561254293,-31,1,-1,-2,0,0,-15,-35
51561254293,5,-6,-5,-2,-1,-2,3,13
51561269827,18,5,2,0,-2,-3,3,7
51561269827,13,-3,-4,-2,-1,0,0,-4
51561276802,32,5,-3,0,2,1,1,9
51561276802,-60,-7,5,1,-3,-3,0,-8
51561284399,45,1,4,1,2,3,-2,-10
51561284399,-4,0,-4,-2,-2,-3,-4,22
51561293171,23,6,-12,-2,-1,3,6,-7
51561293171,7,-2,0,-4,-4,-2,-11,7
51561307587,-10,4,4,1,3,0,0,-1
51561307587,53,-2,-11,-1,-1,0,1,-1
51561314334,27,3,1,3,3,-1,1,11
51561314334,-25,3,-11,-2,-1,0,0,-1
51561330004,-7,-6,21,3,-3,-5,1,1
51561330004,32,5,2,-1,2,2,-16,-4
51561336906,-12,-2,-2,-2,-3,-2,10,0
51561336906,84,-10,-3,1,1,1,-16,1
51561344095,-9,6,-2,1,0,1,18,-4
51561344095,-23,-3,-3,0,-1,-2,-12,-10
51561353205,57,1,2,-1,0,0,19,18
51561353205,-89,1,4,-3,-3,-3,-14,-10
51561367407,-7,-5,-9,-2,4,4,0,12
51561367407,-3,-5,0,-3,-4,-3,0,-6
51561374307,-24,-3,-5,-3,-3,-2,-15,-21
51561374307,77,6,-7,-1,-1,0,20,15
51561389920,29,10,-1,-2,-5,-3,-7,9
51561389920,-94,-17,-5,2,1,-1,6,4
51561396782,-24,-8,-1,2,-1,-2,1,5
51561396782,99,9,2,0,1,2,-6,-5
51561413118,-2,5,-10,-3,-2,-4,-1,1
51561413118,23,-16,12,3,2,0,-7,-5
51561414811,-3,3,-5,-3,-3,-4,3,1
51561414811,40,0,10,2,-2,-1,6,11
51561427561,-11,6,-5,-4,0,-1,-2,-1
51561427561,-54,-3,-6,-1,-2,-3,3,-1
51561434417,-13,-5,-3,2,2,0,-17,-28
51561434417,39,12,7,-1,-2,-3,7,22
51561450037,-30,-15,-1,-1,-1,-1,-4,-3
51561450037,6,12,0,-2,-4,-1,-1,-13
51561456653,-54,-2,4,0,1,1,-10,-5
51561456653,-12,9,-3,1,0,0,8,2
51561473538,-15,-11,-2,-1,0,0,6,-17
51561473538,21,0,-4,-3,-3,-3,0,8
51561475123,12,11,-2,0,-2,-1,-3,3
51561475123,-45,-3,-9,-3,-2,-1,-1,-1
51561488174,4,-13,8,5,0,1,-12,-2
51561488174,-8,-7,-1,0,4,3,0,5
51561494362,71,5,2,-3,-4,-2,16,10
51561494362,-42,-3,3,0,0,-4,-6,-25
51561509168,15,-3,2,-2,-2,-3,-6,4
51561509168,-16,2,-2,-2,1,1,0,-3
51561516660,43,4,7,1,-3,-2,-7,-4
51561516660,-40,-26,-7,-4,-2,-1,-1,13
51561532476,11,21,-22,-4,-3,-3,-3,-12
51561532476,-3,4,-1,-2,-3,-3,-7,-26
51561533092,-20,-15,-6,-2,0,-3,8,15
51561533092,33,8,0,1,3,0,-10,-10
51561548204,0,0,-1,-2,1,1,3,13
51561548204,6,-1,-5,-3,-3,0,7,16
51561554172,-85,-6,-3,-3,-5,-3,2,-23
51561554172,6,-7,-4,0,-1,-2,-12,5
51561569327,-6,-4,4,1,0,1,-2,-9
51561569327,118,10,9,-5,-3,-2,-9,6
51561576822,-86,-7,1,0,-2,2,11,2
51561576822,-29,0,-2,-1,-1,-3,-1,-1
51561592305,55,5,0,1,0,1,7,9
51561592305,-16,-14,8,1,-4,-4,-3,-4
51561593266,-12,5,-5,-1,0,1,-4,-2
51561593266,31,0,1,0,-2,1,0,20
51561608187,-11,-4,6,0,-1,0,-5,-38
51561608187,-36,4,-6,0,-1,-1,-12,-25
51561614288,66,-3,2,-2,-1,-3,12,45
51561614288,-67,-8,-8,-4,-6,-5,-6,-31
51561629160,-42,2,3,1,1,2,12,16
51561629160,-10,-5,-6,0,0,-3,-10,-19
51561636802,29,3,0,3,2,1,-9,12
51561636802,51,-10,8,-2,-2,1,0,-9
51561652453,1,-2,-5,-4,-1,-2,-2,-2
51561652453,-35,-7,-10,1,-3,0,13,11
51561653089,-69,-8,1,-1,0,-3,-10,-21
51561653089,8,7,18,1,0,1,7,7
51561668123,22,3,-1,-3,-2,-2,-12,-6
51561668123,34,-1,4,-3,0,1,-2,18
51561674402,20,12,-8,0,-2,0,2,-6
51561674402,-25,-3,-8,1,-1,0,-4,-8
51561689059,-14,-6,-5,-3,-2,-5,5,10
51561689059,2,11,0,-7,-4,-5,-6,2
51561696769,64,-2,0,1,-1,3,2,-10
51561696769,-55,-5,-9,-3,2,2,-3,-6
51561712334,65,9,5,0,-2,-2,-2,10
51561712334,-40,-14,-9,1,4,2,9,6
51561713273,-18,-5,-2,-4,0,0,-5,5
51561713273,11,-1,-2,1,0,0,10,-19
51561728139,-17,4,-1,-1,-3,-1,-18,-3
51561728139,32,6,2,-2,1,0,9,3
51561734258,-15,-7,-1,-1,-1,0,-2,-9
51561734258,-25,3,-7,-3,1,1,3,-3
51561749135,-23,-2,-1,-2,0,-1,0,8
51561749135,26,3,0,0,-3,-2,-2,-7
51561756793,23,14,7,-1,-1,0,-1,9
51561756793,27,-5,-7,-4,-3,-5,-3,-2
51561772453,-3,-4,-2,1,0,0,4,-4
51561772453,-17,1,2,1,-5,-2,-4,3
51561773079,16,-1,0,-1,3,1,-7,-9
51561773079,-60,-2,-1,-2,-1,1,8,13
51561788242,79,5,-7,-1,-1,1,-3,-4
51561788242,-101,-19,-5,-3,-4,-5,9,1
51561794235,14,-2,-3,0,-2,-4,-8,3
51561794235,-38,5,3,2,-2,-2,-8,-15
51561809285,-18,-10,-4,-2,1,1,5,8
51561809285,4,8,0,1,2,2,-1,4
51561816761,77,2,-3,-2,-2,-3,7,17
51561816761,-32,-1,1,-1,-2,0,-4,-9
51561832500,-25,-16,7,4,-1,0,-1,-13
51561832500,-8,0,-5,-4,-2,-1,-2,24
51561833093,-19,-3,0,-2,-1,-3,-1,-27
51561833093,-20,2,-18,0,3,2,14,18
51561856230,73,0,0,-3,-5,-4,-8,-5
