timestamp,emg1,emg2,emg3,emg4,emg5,emg6,emg7,emg8
1523207394029224,3,3,13,9,6,3,19,-5
1523207394029224,-7,-16,-1,16,1,2,13,-2
1523207394030224,0,-1,7,1,4,5,2,1
1523207394030224,1,-1,5,-1,-1,7,-9,4
1523207394031228,-3,-1,25,0,0,-7,-10,-2
1523207394031228,2,3,-47,-32,-6,-1,-7,-1
1523207394038279,1,1,0,11,-2,-4,-1,0
1523207394038279,-5,-9,18,-4,0,-1,4,-1
1523207394041256,-3,0,21,-7,-6,-4,-6,-3
1523207394041256,-1,1,14,4,-1,-4,-1,-1
1523207394051462,0,1,-16,-8,-6,-5,-2,0
1523207394051462,5,8,7,4,0,0,1,-1
1523207394056523,2,1,-19,-11,2,4,8,4
1523207394056523,-10,-11,30,31,1,-1,-13,-3
1523207394072621,0,2,-51,-29,-3,1,20,3
1523207394072621,-1,-6,-21,1,-1,-3,5,-8
1523207394080355,2,4,-4,-2,3,2,-4,2
1523207394080355,8,14,5,-2,0,-1,-10,4
1523207394095396,-9,-22,24,29,-3,-2,-4,-5
1523207394095396,-3,-1,-18,-19,-10,-8,5,1
1523207394103418,-3,-4,-29,-5,5,3,-1,1
1523207394103418,4,6,16,7,9,7,1,0
1523207394116465,0,4,-2,5,2,1,-4,0
1523207394116465,-1,-1,-2,2,0,-2,-4,-2
1523207394159704,1,2,37,-1,1,0,-4,1
1523207394159704,-3,-9,-1,-13,-10,-5,-5,-1
1523207394162572,-3,-7,5,6,1,-7,-4,-4
1523207394162572,2,3,-5,-1,3,4,0,-1
1523207394163578,2,13,12,14,-1,2,4,-1
1523207394163578,0,-4,76,21,9,3,-5,2
1523207394164578,-1,1,-40,-52,-4,-2,8,-1
1523207394164578,-1,-2,9,6,0,-1,-3,-1
1523207394169959,-3,-6,-23,10,-8,-2,-5,-1
1523207394169959,1,3,-35,-1,3,-5,1,-2
1523207394176994,-1,3,44,23,-1,0,-8,-4
1523207394176994,-2,-11,-33,-19,-4,-1,11,1
1523207394183979,2,4,41,18,3,2,-3,0
1523207394183979,-3,-5,-68,-29,-5,2,-11,2
1523207394199014,-1,-1,6,3,-2,-1,11,-2
1523207394199014,5,5,12,5,-4,-5,-5,0
1523207394207004,-5,-4,-3,-7,-2,-3,-2,-1
1523207394207004,2,3,19,-8,5,8,-1,0
1523207394229789,0,-3,-2,8,-2,0,-17,0
1523207394229789,-2,-9,-15,12,-2,-6,28,-4
1523207394230755,6,10,-19,-20,0,-1,-19,-6
1523207394230755,10,3,5,10,3,-3,28,13
1523207394245116,3,1,8,-1,0,6,-5,3
1523207394245116,-1,-2,4,-22,-12,-5,-20,4
1523207394245797,1,2,-18,-14,4,1,-19,-7
1523207394245797,-16,-6,-12,18,-5,-1,24,-7
1523207394268064,-1,2,10,19,1,-2,-11,-7
1523207394268064,4,3,2,-18,1,0,1,-5
1523207394268863,-9,-28,11,-15,-1,-2,5,6
1523207394268863,30,8,10,8,-2,1,-19,1
1523207394290916,-56,-11,-8,5,-3,-2,15,2
1523207394290916,-3,-1,35,-5,1,-5,-31,-8
1523207394290916,6,-8,-30,6,0,1,14,22
1523207394290916,3,3,23,-2,-1,-5,14,-43
1523207394305073,-26,-26,-2,2,1,1,26,9
1523207394305073,-3,14,-18,2,2,11,-19,-18
1523207394305073,14,-37,33,1,-6,-14,-14,1
1523207394305073,-61,-5,-17,2,-2,-5,35,8
1523207394328275,88,10,-13,-15,0,6,-18,-12
1523207394328275,-64,-6,-7,19,4,-7,6,0
1523207394329018,6,21,-50,-10,-8,-4,-1,1
1523207394329018,34,1,-4,-13,-1,3,-5,-4
1523207394350274,-29,9,7,-3,1,0,-4,10
1523207394350274,1,-6,-7,36,4,8,19,4
1523207394351076,22,14,-3,6,2,0,-1,-10
1523207394351076,-18,-23,1,-25,-6,-5,15,11
1523207394364112,-52,3,10,-37,-5,-2,-1,-37
1523207394364112,76,-3,-19,7,1,10,47,21
1523207394365115,10,-2,-34,46,-4,-15,-19,-1
1523207394365115,38,-1,-3,-33,-6,1,0,-20
1523207394387196,122,10,-21,-4,1,-4,1,-1
1523207394387196,-117,-19,4,-18,0,-5,-16,-3
1523207394388179,13,12,20,0,3,12,-2,18
1523207394388179,-4,0,-1,15,2,-5,-8,13
1523207394410486,18,14,-19,13,2,-1,-12,15
1523207394410486,50,21,35,-13,-6,-6,44,-7
1523207394411241,2,1,1,-22,1,3,35,-13
1523207394411241,-24,9,-8,41,1,4,-30,-9
1523207394424528,-57,-10,30,-37,-4,-4,-16,5
1523207394424528,-18,8,-15,2,-4,-5,-21,-8
1523207394425273,-28,-11,4,6,7,4,61,-5
1523207394425273,-18,1,39,-21,-5,-1,9,-11
1523207394447331,41,1,-25,37,3,2,34,7
1523207394447331,-23,-9,-3,-5,-5,-10,-34,-13
1523207394447331,-21,3,-9,-2,-2,4,37,5
1523207394447331,22,-13,-4,-32,2,1,-21,0
1523207394470534,-3,-8,0,44,-1,4,23,9
1523207394470534,14,3,2,-16,-5,-3,-16,-18
1523207394471396,-1,-6,2,-8,4,3,3,4
1523207394471396,19,4,-2,20,-2,-2,-26,0
1523207394484713,41,-22,13,-20,-6,-6,-16,-31
1523207394484713,122,10,-20,39,3,1,5,35
1523207394485432,-102,-33,26,-20,-6,-3,-52,-17
1523207394485432,93,20,11,-8,1,5,68,13
1523207394507604,-14,-2,-17,27,-2,-5,-20,-8
1523207394507604,7,1,6,20,4,-1,-23,-1
1523207394507604,37,-5,-26,-52,-7,-3,9,12
1523207394507604,-50,-1,-2,32,-2,-1,-28,4
1523207394530551,-88,7,13,-13,-2,-5,-12,-11
1523207394530551,28,2,-4,-7,1,4,-20,5
1523207394530551,-82,-1,-12,7,-5,-10,-1,-10
1523207394530551,9,-2,-16,-7,2,-1,-35,-4
1523207394543819,15,-8,-6,-12,-3,6,16,14
1523207394543819,-25,-5,-1,-17,-1,-4,-3,16
1523207394551806,-15,-3,10,18,2,1,-35,-16
1523207394551806,-8,1,-8,11,-3,-11,0,9
1523207394567651,17,-1,-3,-6,0,1,36,-14
1523207394567651,-18,-7,37,-7,1,3,-16,-1
1523207394567651,120,-31,-29,10,0,2,34,7
1523207394567651,-97,-5,5,-3,-1,-7,-5,5
1523207394590711,44,25,19,-13,-4,-6,-28,-36
1523207394590711,-14,-19,-4,-5,-2,2,27,-7
1523207394590711,72,31,32,-1,-1,-3,-39,11
1523207394590711,-4,18,-22,-6,-3,-8,-13,-14
1523207394604043,22,6,1,-2,1,2,-1,28
1523207394604043,3,21,-2,7,0,2,19,-14
1523207394611768,-31,-24,19,-10,2,2,-21,6
1523207394611768,38,10,-13,-7,-7,1,14,1
1523207394627092,-34,-11,1,-46,-3,-1,-4,14
1523207394627092,-52,-18,-6,1,-4,-3,5,-16
1523207394627815,-32,10,-17,2,2,4,5,-3
1523207394627815,-12,-2,-9,5,0,-4,-38,-7
1523207394650907,7,-6,-15,13,1,-4,13,26
1523207394650907,-7,-14,-3,-22,-5,-2,-31,-5
1523207394650907,-36,10,2,5,-2,2,35,1
1523207394650907,54,13,6,-1,1,0,-10,-8
1523207394663916,-14,-21,-7,10,-3,-2,-22,15
1523207394663916,13,2,-2,-7,-1,-7,-24,1
1523207394672069,-42,36,-9,12,-1,-3,-1,-17
1523207394672069,117,-19,40,-1,-2,2,-8,21
1523207394686972,-52,17,-36,14,-3,-6,1,-16
1523207394686972,49,-13,11,-11,-2,0,3,0
1523207394687974,-20,-5,-42,-5,-2,-7,-15,-5
1523207394687974,33,1,-19,14,-1,4,33,14
1523207394710303,-13,8,43,-3,2,4,-1,-5
1523207394710303,-78,0,-23,12,0,4,36,3
1523207394711032,12,42,27,-5,2,3,14,-9
1523207394711032,-37,-12,-10,1,-4,-3,13,20
1523207394724295,-2,-5,-12,3,-3,-1,-11,-8
1523207394724295,66,-3,0,23,4,5,16,13
1523207394732367,-76,-20,50,-6,-2,0,-21,-7
1523207394732367,-7,9,-19,-1,3,2,-18,-6
1523207394748227,-48,-1,28,7,5,2,0,14
1523207394748227,60,-15,-66,-32,-18,-10,-7,1
1523207394748227,37,-14,5,47,0,-6,-17,-4
1523207394748227,-8,0,7,-51,-10,-7,-25,-14
1523207394770332,-39,7,-36,14,4,4,21,26
1523207394770332,-66,-19,45,-4,4,3,16,-34
1523207394771198,-4,-7,-25,8,1,0,23,8
1523207394771198,25,11,-11,11,2,4,-9,8
1523207394784512,-39,-45,6,31,-1,-8,-36,1
1523207394784512,31,29,8,-13,2,4,32,8
1523207394792247,93,7,-20,-31,-5,-4,1,3
1523207394792247,-75,-15,4,26,2,-4,-14,-16
1523207394808311,50,4,8,-24,-2,1,26,18
1523207394808311,-36,1,12,37,4,1,-7,-3
1523207394808311,46,-1,2,-30,-2,-4,-12,-3
1523207394808311,41,1,2,17,1,7,-1,15
1523207394830371,52,7,-11,15,-8,-15,5,-70
1523207394830371,-12,11,-3,-45,-7,-2,27,10
1523207394831355,31,2,-7,8,4,3,10,11
1523207394831355,-59,-29,9,16,3,4,-5,-17
1523207394844601,-9,7,-6,-12,1,6,-2,8
1523207394844601,-65,-2,13,12,-1,-5,-18,1
1523207394852414,-25,4,0,0,-1,-4,-2,-57
1523207394852414,-47,-4,4,-19,-5,-6,9,-6
1523207394867495,30,1,4,2,1,3,-17,1
1523207394867495,-51,-16,-25,-7,-1,-1,-4,3
1523207394868449,-28,-12,4,0,-6,-3,-1,17
1523207394868449,21,7,-1,-12,0,-3,14,2
1523207394890545,37,2,4,-4,2,3,7,10
1523207394890545,23,8,21,11,-1,-1,-19,7
1523207394890545,85,3,-10,-9,-2,5,-11,2
1523207394890545,-106,-8,-9,-31,1,8,59,-7
1523207394903542,-5,-22,-2,35,-8,-3,5,7
1523207394903542,38,0,7,-75,-5,-1,-16,-4
1523207394912573,13,1,-1,23,5,4,8,25
1523207394912573,-65,1,10,9,1,-4,-31,-5
1523207394927606,66,-13,-24,-5,-1,4,20,16
1523207394927606,-19,-1,-1,12,2,0,-21,-7
1523207394928613,-62,-18,-5,-9,-9,-10,-20,10
1523207394928613,60,11,-1,-1,-2,-11,-18,-25
1523207394950699,-32,14,3,-12,0,-2,-3,-6
1523207394950699,8,6,-10,1,2,-1,-27,2
1523207394951672,44,-12,3,36,4,5,21,-16
1523207394951672,67,-35,43,-20,-3,4,-2,17
1523207394963702,-48,22,21,14,-3,3,6,-22
1523207394963702,-1,-10,-61,-7,-1,-5,43,1
1523207394971723,-40,4,31,16,1,1,19,7
1523207394971723,9,1,-18,-5,-3,-4,-20,-11
1523207394987765,-39,-4,12,-1,4,0,-16,-8
1523207394987765,-18,1,3,26,4,5,-10,-19
1523207394988770,-15,0,-9,-40,-8,-7,10,-9
1523207394988770,69,18,1,16,2,2,4,7
1523207395011103,1,-5,-19,-19,-4,-6,-19,-2
1523207395011103,-40,5,22,26,1,-4,-30,-12
1523207395011103,-2,1,-49,-12,0,2,-6,-8
1523207395011103,33,1,8,5,-1,1,34,16
1523207395033289,17,-20,7,-20,-1,-2,-18,-9
1523207395033289,78,2,11,8,2,0,0,18
1523207395033888,-68,-4,-1,29,-3,-2,3,18
1523207395033888,-12,-1,-18,-75,-6,-4,-13,-3
1523207395047234,38,15,-12,5,2,-1,-2,-6
1523207395047234,3,-4,4,33,-5,-6,14,-1
1523207395055376,37,-2,3,-66,-5,2,-2,19
1523207395055376,18,20,-8,32,3,3,-23,-19
1523207395070236,-16,-36,6,-13,-5,-8,-9,-22
1523207395070236,48,9,0,-8,1,-2,-8,0
1523207395071992,-62,-1,15,16,2,1,-13,-23
1523207395071992,-10,-8,-12,3,-5,-10,1,5
1523207395093334,51,18,-8,-15,2,5,-29,-2
1523207395093334,17,22,3,8,-1,0,13,-7
1523207395094050,-49,-26,-2,5,2,-1,-15,-30
1523207395094050,-46,-4,-12,3,-1,1,17,2
1523207395106375,-4,8,9,7,-2,-2,-13,11
1523207395106375,-36,0,-6,-9,-1,0,-5,8
1523207395115293,61,26,11,1,2,2,33,-3
1523207395115293,41,6,2,9,-2,-3,-4,12
1523207395129146,-31,-4,-8,0,-3,0,2,6
1523207395129146,-53,-7,0,-10,-2,-4,4,7
1523207395138169,35,5,-1,3,2,0,20,0
1523207395138169,-13,-10,-4,26,0,1,-9,-7
1523207395152461,-53,2,-10,-48,-6,-3,12,-12
1523207395152461,25,-22,15,-2,-2,2,21,21
1523207395154208,19,-13,12,9,0,-3,-46,-19
1523207395154208,-36,-10,-33,-7,0,0,34,18
1523207395175566,28,9,6,14,1,1,14,14
1523207395175566,-29,1,0,-16,-4,-6,-29,-12
1523207395177270,-30,1,-6,1,3,1,-11,-5
1523207395177270,54,4,10,7,1,-1,-27,-10
1523207395189578,0,-8,-5,-5,-3,-5,7,-5
1523207395189578,-14,-1,-11,5,1,0,12,-13
1523207395197576,-6,-14,7,2,-1,-1,-10,4
1523207395197576,-60,2,-2,-7,-3,-2,9,-2
1523207395212369,36,-3,1,8,1,0,4,3
1523207395212369,48,14,1,5,-2,-1,4,3
1523207395214372,0,-3,-7,-2,-4,-5,-32,4
1523207395214372,-22,-19,9,-13,0,1,-25,-17
1523207395235427,41,11,-20,4,-1,-2,46,27
1523207395235427,34,-2,2,24,0,5,-20,-29
1523207395236426,-18,16,-2,-34,-3,-6,-5,-17
1523207395236426,65,1,-2,11,-3,-2,5,7
1523207395249462,19,3,4,3,1,1,-35,9
1523207395249462,-54,-12,-31,-1,-4,-4,15,8
1523207395257760,32,-3,12,3,-1,0,23,19
1523207395257760,17,9,-19,2,-1,-5,-51,-14
1523207395272791,-68,11,5,-6,-3,1,27,18
1523207395272791,42,2,4,-8,1,-1,7,10
1523207395274531,-7,7,-6,0,-4,-4,-21,13
1523207395274531,-18,-1,7,1,3,2,14,5
1523207395295586,47,0,3,-15,-1,-4,-55,-3
1523207395295586,-87,-40,6,38,1,3,43,-26
1523207395296586,106,-17,8,-49,-1,4,-1,9
1523207395296586,-26,5,-6,26,1,-5,19,10
1523207395308886,-26,-3,5,-52,-4,-2,-19,-14
1523207395308886,12,1,6,1,2,2,-7,3
1523207395317695,-29,4,-11,12,-1,-3,-14,-10
1523207395317695,9,5,4,-6,-5,-4,16,-6
1523207395332898,-4,-6,-11,14,0,3,28,-3
1523207395332898,29,-10,-13,-17,-4,-7,-51,7
1523207395334688,-61,20,4,10,0,4,26,5
1523207395334688,53,-3,11,2,0,2,0,-6
1523207395355900,-9,16,14,1,0,-2,1,-9
1523207395355900,48,13,12,-3,0,-3,-40,-13
1523207395356750,-36,-5,21,14,1,-1,-2,33
1523207395356750,-62,-11,0,-3,2,2,21,-17
1523207395369022,54,15,-17,9,-3,-3,6,-2
1523207395369022,26,-2,1,-8,-2,0,-4,15
1523207395377804,-31,3,10,10,-2,-2,-3,-11
1523207395377804,-24,13,-5,-2,-1,-3,-8,2
1523207395392844,-1,-45,28,19,4,4,10,21
1523207395392844,37,15,-16,-30,-6,-5,-4,8
1523207395393850,39,11,-14,11,-1,-1,6,-10
1523207395393850,1,4,-3,-8,0,5,-15,18
1523207395414901,-49,7,-10,3,-1,-7,16,-32
1523207395414901,44,-5,6,3,0,1,-6,2
1523207395416908,9,1,-15,-12,-4,0,17,4
1523207395416908,14,1,-2,-9,-2,-2,8,7
1523207395428938,14,6,-3,-1,-1,0,11,16
1523207395428938,21,15,9,2,2,0,-3,-1
1523207395437962,-27,-20,5,-11,-7,-8,-14,-14
1523207395437962,1,-2,-7,3,0,0,0,-1
1523207395453001,46,-6,-4,12,4,8,1,-4
1523207395453001,-43,11,14,-8,-1,-4,6,7
1523207395455043,20,-16,-45,34,-4,-1,1,9
1523207395455043,1,-4,-3,-97,-9,-5,-26,-5
1523207395475498,-22,-3,-7,6,1,0,6,-5
1523207395475498,-4,-2,14,10,1,3,-5,23
1523207395477067,4,20,-4,15,7,8,12,-22
1523207395477067,7,-10,25,29,0,-4,-12,0
1523207395489507,-30,-17,-20,-19,-11,-10,-47,-19
1523207395489507,69,-2,3,-10,-1,4,18,0
1523207395498122,-6,-14,-21,7,0,-4,-6,-2
1523207395498122,9,21,2,-10,6,6,29,-7
1523207395513628,-20,-2,-11,53,-5,-7,-26,4
1523207395513628,-29,-17,11,-82,-10,0,33,7
1523207395514166,-38,-4,5,13,2,-7,-14,-19
1523207395514166,10,-4,-1,27,3,3,13,-30
1523207395535482,-60,-6,9,-1,0,-1,-2,-1
1523207395535482,-67,-6,-17,11,-4,-2,30,-8
1523207395537229,98,-25,11,-14,-2,2,12,7
1523207395537229,-12,2,0,-8,0,-1,0,8
1523207395558312,58,5,6,4,3,6,26,21
1523207395558312,30,10,-8,23,-1,-3,-4,-19
1523207395559288,26,6,0,-7,0,3,3,25
1523207395559288,-83,-16,20,11,-3,-3,9,7
1523207395571503,65,3,-32,-11,-7,-6,-25,-2
1523207395571503,-48,-6,-15,3,3,4,-3,11
1523207395580340,-31,1,11,1,0,0,-2,-3
1523207395580340,-8,-13,-10,31,3,2,8,19
1523207395595386,-41,13,9,-33,0,0,-11,-5
1523207395595386,35,-13,28,1,-4,-3,-20,-3
1523207395596384,33,30,-41,-12,-1,-6,-8,-14
1523207395596384,23,-20,-20,22,-6,-7,-13,0
1523207395617646,-2,4,9,-41,-3,0,19,-5
1523207395617646,17,8,12,33,6,2,3,-11
1523207395619448,28,1,8,-16,-4,2,-1,13
1523207395619448,103,23,-8,-6,1,3,-12,5
1523207395632701,39,0,9,19,1,0,-6,-2
1523207395632701,-55,2,-16,-9,-3,-5,-18,-36
1523207395634486,-62,-5,3,4,0,3,10,-29
1523207395634486,34,5,4,-3,-5,-5,1,5
1523207395655797,-6,7,-3,17,-1,-2,-8,-14
1523207395655797,-9,-36,-4,-37,-2,0,0,-4
1523207395656545,10,-2,7,5,2,0,-14,22
1523207395656545,-86,-8,3,3,-3,-1,2,-22
1523207395677619,64,11,-3,21,-2,-1,12,1
1523207395677619,119,26,-16,-9,2,3,8,27
1523207395679626,-36,-11,12,2,2,2,9,-3
1523207395679626,8,-11,-2,-9,-1,-1,-20,-10
1523207395692727,-58,-5,-9,2,1,-2,3,1
1523207395692727,-2,13,25,22,-2,-3,-8,11
1523207395698935,12,-8,15,-21,-8,-6,-6,-15
1523207395698935,3,8,-1,5,0,2,-8,1
1523207395715748,-21,-1,9,-10,0,1,3,-35
1523207395715748,-43,-3,-6,18,-1,1,-29,-9
1523207395716705,47,8,-1,-11,0,-1,34,-13
1523207395716705,1,-5,-3,-4,-5,-2,-12,15
1523207395738017,-71,-32,11,-9,1,2,2,-1
1523207395738017,65,16,-10,23,-3,-1,-2,-2
1523207395739764,-23,1,-6,-12,-2,-3,-12,8
1523207395739764,21,-2,-6,7,4,2,16,4
1523207395751804,41,-8,-11,-12,0,2,0,13
1523207395751804,-6,17,-13,1,-2,-7,-6,-44
1523207395759069,17,-1,-1,12,2,1,-19,11
1523207395759069,-10,2,8,11,-5,-8,11,-13
1523207395775074,54,3,11,-7,-9,-3,-10,17
1523207395775074,-39,1,-26,19,2,1,12,36
1523207395776873,-90,-26,19,-38,-4,-6,-4,-19
1523207395776873,-42,9,-1,11,1,3,40,-5
1523207395798138,-9,1,-8,-4,2,-1,-20,-8
1523207395798138,-35,-19,1,8,1,-2,2,-3
1523207395798928,39,13,10,19,2,1,-4,3
1523207395798928,-51,-18,-38,-19,-3,-2,-28,-28
1523207395811960,-22,10,-25,0,4,0,46,8
1523207395811960,32,6,14,-15,-1,0,10,6
1523207395819196,-39,6,-4,4,-5,-4,-18,25
1523207395819196,-4,3,9,-3,2,4,-30,8
1523207395835021,45,14,22,17,1,-5,17,-3
1523207395835021,34,-14,-50,-40,-9,-3,-1,2
1523207395837023,-1,12,-17,-1,-3,-3,12,4
1523207395837023,-60,0,0,9,-1,1,-3,-25
1523207395858270,-14,-7,-29,-28,-1,2,-11,28
1523207395858270,-16,-8,26,23,3,-4,7,-26
1523207395859090,24,2,-26,-6,-5,0,0,0
1523207395859090,29,-4,10,-10,-1,0,0,11
1523207395872360,-41,-24,4,15,3,1,20,-9
1523207395872360,0,0,4,-7,-1,-3,-20,4
1523207395879134,29,9,3,5,-2,-1,22,0
1523207395879134,-10,-15,-3,0,0,0,-10,-27
1523207395895181,28,2,-2,-5,0,14,6,-11
1523207395895181,0,-3,-17,1,-3,-12,-18,30
1523207395897184,-3,-5,8,-9,-6,-3,-11,-5
1523207395897184,56,0,-5,2,1,-2,14,28
1523207395917476,-4,8,10,-4,-5,-4,-33,-42
1523207395917476,-4,1,-4,-3,-2,5,18,-12
1523207395919242,-5,-5,4,13,6,4,-20,12
1523207395919242,-26,14,8,-12,-1,-6,2,9
1523207395932418,6,-6,-9,10,-5,-2,2,4
1523207395932418,-42,10,9,-8,0,0,-4,21
1523207395946320,23,-1,-5,1,-1,-2,2,-12
1523207395946320,-29,15,8,4,1,1,-6,12
1523207395955588,20,11,26,0,4,-5,-5,-12
1523207395955588,-35,-2,5,19,-1,2,-22,-26
1523207395956349,60,-17,-18,-29,-7,-6,15,24
1523207395956349,54,10,-3,27,0,-1,-6,-1
1523207395977401,60,9,21,14,-2,4,11,15
1523207395977401,-85,-13,-43,-57,-9,-4,26,20
1523207395979403,-26,7,10,32,5,3,-23,-13
1523207395979403,56,-1,16,-12,-4,-2,11,11
1523207395992685,-3,14,0,2,-2,-6,-10,0
1523207395992685,-3,-5,7,18,4,8,-8,-4
1523207395999462,2,3,12,5,0,-1,-7,-14
1523207395999462,2,1,-18,-14,-3,-2,18,18
1523207396015731,-20,-8,-7,1,2,0,25,-13
1523207396015731,-21,10,15,-2,-3,-5,2,-11
1523207396016502,1,-32,2,-8,0,-1,2,1
1523207396016502,-5,11,1,-5,-1,0,-10,-12
1523207396037807,-23,-3,3,-4,-4,-6,-26,1
1523207396037807,30,-5,-6,2,-1,-3,-15,-3
1523207396039566,-52,-11,-15,-4,0,6,62,-29
1523207396039566,1,-9,-3,-2,-6,-6,-11,4
1523207396051611,4,-5,-1,3,3,3,1,22
1523207396051611,-3,-21,23,3,2,5,14,3
1523207396060620,-42,-8,-39,-12,-10,-10,-36,-10
1523207396060620,-79,-12,-9,-6,-2,-5,-8,-29
1523207396075888,-10,-4,0,-5,-2,-1,7,21
1523207396075888,16,14,1,3,2,-2,7,1
1523207396076669,51,1,9,5,7,7,6,10
1523207396076669,2,-6,-6,6,-3,1,-1,-8
1523207396097985,-10,-5,-4,-1,0,-2,-17,-10
1523207396097985,4,7,0,2,-1,-2,-5,-1
1523207396099722,26,6,5,-4,0,-2,1,6
1523207396099722,-6,-9,2,1,-1,1,8,9
1523207396111753,-40,-6,4,2,-2,0,-16,19
1523207396111753,38,0,0,-4,-1,-4,-12,-2
1523207396120795,-41,6,3,9,-2,-1,-2,-2
1523207396120795,23,-4,2,-6,2,0,-5,-29
1523207396134823,11,4,-6,-5,-4,-4,3,3
1523207396134823,-29,-8,2,3,0,1,-13,-10
1523207396136820,21,6,5,-1,-1,-3,-4,3
1523207396136820,53,1,-3,-5,-3,-2,11,21
1523207396158135,-30,-7,-4,1,0,-4,-5,-12
1523207396158135,13,3,-6,-6,-1,-2,5,4
1523207396158888,-23,8,12,2,-1,-3,-29,2
1523207396158888,8,7,9,-1,1,3,14,9
1523207396172966,-28,-5,-10,-4,-2,-6,-21,-16
1523207396172966,21,-14,15,5,1,3,33,6
1523207396179939,-24,6,-19,-5,-2,-1,0,24
1523207396179939,25,7,-5,-19,-1,-3,-8,-36
1523207396194978,3,-7,8,17,-1,0,-10,3
1523207396194978,21,12,-3,-10,0,6,10,13
1523207396196980,-66,8,-16,6,-1,0,-2,-40
1523207396196980,59,-1,19,-10,-7,-6,-17,1
1523207396218244,40,10,-31,-2,-4,-2,19,9
1523207396218244,13,-2,1,2,-2,-1,-7,-7
1523207396219041,34,16,1,8,3,3,15,20
1523207396219041,-40,-1,-3,3,5,8,8,0
1523207396231328,-50,-10,2,3,-2,-3,-29,-16
1523207396231328,0,-3,0,-1,-3,-7,13,-1
1523207396240128,-54,-21,5,-7,-3,-3,19,20
1523207396240128,-10,7,-8,10,1,-3,4,-31
1523207396255398,43,5,8,-10,4,9,15,27
1523207396255398,-19,1,-3,0,-2,-4,-12,-27
1523207396257145,25,-1,-4,-12,-5,-2,-1,2
1523207396257145,-10,3,10,3,-3,-1,-11,27
1523207396278196,-44,9,5,-5,0,0,13,-47
1523207396278196,-34,0,-4,-6,-1,-1,13,10
1523207396279197,1,-7,-3,6,-4,-2,-12,-29
1523207396279197,3,-6,-4,-8,-4,-2,-5,14
1523207396291470,-76,1,-1,-7,-3,-7,-13,-15
1523207396291470,10,-6,1,2,0,4,-22,-3
1523207396300254,69,9,6,0,0,-4,13,9
1523207396300254,-6,-1,-7,4,1,1,1,2
1523207396315534,27,-7,2,-1,2,1,4,-1
1523207396315534,18,-18,-7,9,-6,-7,-24,35
1523207396316303,45,-12,7,-5,5,8,4,-21
1523207396316303,-112,-15,3,-4,-3,-6,-12,-18
1523207396338355,63,-1,1,1,-1,-2,17,7
1523207396338355,-10,-12,7,12,0,-1,-4,-4
1523207396339359,33,-5,5,-6,0,-1,-5,9
1523207396339359,16,-2,-3,1,0,2,1,18
1523207396351643,26,-5,1,-4,0,3,-2,8
1523207396351643,-81,3,-10,-6,-4,-3,-6,-25
1523207396360547,4,5,4,1,-1,-1,11,7
1523207396360547,-2,-6,0,1,3,0,-6,-14
1523207396375857,24,5,-8,-1,-3,-3,-12,15
1523207396375857,34,5,-1,-8,1,-1,2,-13
1523207396376591,-10,0,2,6,0,0,-12,13
1523207396376591,-47,-9,-7,3,-1,-4,2,-7
1523207396399651,24,6,3,2,1,3,7,0
1523207396399651,39,6,-4,-2,-1,-1,9,13
1523207396400654,1,-1,1,-5,-6,-3,-10,-3
1523207396400654,-7,-7,-5,-2,-4,-4,4,21
1523207396411681,-5,4,-2,-1,1,-3,-22,-21
1523207396411681,13,-7,8,-2,0,0,4,12
1523207396420704,-21,-4,-1,9,0,0,-5,-16
1523207396420704,60,-18,8,-21,-2,2,-5,-2
1523207396435749,21,0,17,8,2,4,10,18
1523207396435749,8,6,-57,-10,-4,-3,12,-26
1523207396436751,-98,-3,3,9,-4,-7,-24,-37
1523207396436751,-11,-10,-1,-12,1,1,5,13
1523207396458116,36,-2,5,-2,0,4,27,-2
1523207396458116,6,8,11,11,3,3,-18,9
1523207396459811,27,1,2,-4,2,2,-7,-6
1523207396459811,-19,0,-24,2,-4,-2,-5,-12
1523207396480929,-16,2,-3,-5,-3,-6,-11,-34
1523207396480929,-13,3,-3,-6,-2,-1,14,14
1523207396481872,98,4,-8,1,1,-2,0,15
1523207396481872,-22,-14,19,11,3,0,-6,4
1523207396503196,-50,-9,-9,-3,-2,0,-17,8
1523207396503196,-11,-11,1,3,0,2,21,-2
1523207396503928,61,10,6,6,-1,-1,3,20
1523207396503928,-49,6,-7,9,-1,1,7,3
1523207396517967,-89,-21,-10,-6,-9,-7,-1,-15
1523207396517967,-21,-9,19,0,4,6,17,-4
1523207396518967,2,4,-1,-6,-4,-5,-42,16
1523207396518967,37,3,-1,2,2,3,34,17
1523207396540260,-44,-8,-1,-10,2,-1,-29,-68
1523207396540260,60,12,10,13,-5,-3,2,11
1523207396542030,4,4,-15,-36,-1,0,14,6
1523207396542030,7,1,13,18,-3,-1,-10,4
1523207396555349,-40,-5,-13,-17,-1,-1,-11,15
1523207396555349,6,2,5,-1,0,-2,-9,-8
1523207396557069,-19,-1,1,3,-1,-3,11,15
1523207396557069,51,15,0,-9,0,1,-8,-1
1523207396578142,29,-3,-4,5,-2,0,6,4
1523207396578142,-13,-8,-2,0,0,-1,-17,-14
1523207396579127,-32,-4,7,7,-2,0,15,11
1523207396579127,-1,8,-8,8,0,-2,-21,-10
1523207396600393,39,7,2,-13,0,2,28,10
1523207396600393,-5,-2,0,-6,-4,-4,-18,-36
1523207396602187,14,-8,0,0,0,-2,-18,-26
1523207396602187,0,7,-3,0,-1,-3,8,1
1523207396614474,8,11,-5,7,-1,-3,-7,-9
1523207396614474,61,10,-1,-8,-1,-4,-8,-15
1523207396621519,-98,-8,2,-5,-1,-2,0,-1
1523207396621519,84,6,-13,15,-1,-1,4,-7
1523207396637287,-20,-16,10,5,2,2,-3,35
1523207396637287,-12,4,5,-13,-2,-1,5,-8
1523207396639286,15,5,2,12,0,-3,-6,8
1523207396639286,-21,-6,-21,-10,1,-6,-18,-12
1523207396660343,34,-4,2,25,-1,2,23,6
1523207396660343,-15,-25,13,-29,1,0,10,14
1523207396661345,-19,-12,-20,-1,-3,3,28,0
1523207396661345,9,7,3,-9,-4,-6,-28,-11
1523207396674670,37,2,-2,1,-2,-4,-6,22
1523207396674670,-4,2,-1,10,-1,-3,-11,-46
1523207396681642,-31,-4,-1,-5,-3,-1,-1,-18
1523207396681642,18,-7,9,-4,1,3,14,4
1523207396697707,88,1,1,2,0,1,9,0
1523207396697707,-81,-11,-6,4,-4,-4,-13,11
1523207396699452,78,10,0,-6,-1,-2,-4,-9
1523207396699452,0,-7,-2,-2,-6,1,-7,-6
1523207396720740,12,29,-1,-5,-3,-7,-21,-6
1523207396720740,1,-2,1,3,0,1,-19,4
1523207396721507,1,-32,9,5,1,1,-1,15
1523207396721507,-70,-13,8,-2,1,1,6,-1
1523207396734546,-7,-5,0,-3,-2,0,1,9
1523207396734546,14,11,-4,4,1,-2,-8,20
1523207396741845,5,14,1,1,0,0,2,-1
1523207396741845,75,7,7,-1,1,3,5,21
1523207396757873,-116,-37,-4,-6,-2,-4,-24,-58
1523207396757873,56,-1,-6,7,2,2,-1,3
1523207396759613,67,1,-3,-1,-2,2,36,13
1523207396759613,-1,6,4,-5,-3,-5,-5,-10
1523207396779662,8,9,1,1,1,3,0,26
1523207396779662,-27,5,-11,-4,-4,-2,11,16
1523207396781665,7,-7,-5,-3,-4,-6,-19,55
1523207396781665,-19,-3,-8,-5,-3,-5,-18,-27
1523207396794705,-13,-4,-11,0,-2,-3,17,32
1523207396794705,32,-12,-15,-1,2,2,-3,-16
1523207396801860,80,0,-2,-2,0,1,9,67
1523207396801860,-93,2,10,1,-2,-3,9,-49
1523207396817775,67,-13,42,1,0,1,15,-13
1523207396817775,72,20,-13,-2,1,5,10,19
1523207396819766,35,26,15,4,-4,-4,-9,-1
1523207396819766,31,8,-46,-21,-5,-4,-2,6
1523207396840887,-31,0,-13,-6,-10,-6,5,0
1523207396840887,91,15,-9,7,4,2,-9,-26
1523207396841827,-78,3,38,-4,-1,4,10,-16
1523207396841827,2,-14,23,2,-8,-8,-9,11
1523207396855121,65,20,-7,-4,4,-3,-15,-11
1523207396855121,-116,-14,2,-8,-14,-12,-4,15
1523207396860881,-25,-4,-30,0,2,0,-25,-68
1523207396860881,54,0,-6,1,7,4,17,35
1523207396877936,-41,-8,-5,-1,-1,1,9,-10
1523207396877936,-29,-3,14,7,2,1,3,-6
1523207396878923,-19,-8,3,-1,0,2,-13,-21
1523207396878923,85,9,-3,0,-2,1,29,15
1523207396900216,46,-6,-7,0,2,4,20,-1
1523207396900216,56,11,5,0,1,-4,-5,-30
1523207396901985,-69,-3,-7,-2,-3,0,-13,-15
1523207396901985,25,-4,-12,-3,-2,-6,-13,-5
1523207396915222,-39,11,11,7,3,5,6,13
1523207396915222,9,-28,-12,-12,-8,-5,-7,18
1523207396921282,2,4,-9,2,3,4,13,-29
1523207396921282,-36,-6,9,1,3,2,-11,-5
1523207396938271,-29,16,-8,-2,-3,-8,-41,3
1523207396938271,-17,-4,14,5,4,2,-4,14
1523207396939086,-29,-6,-22,-3,-2,-2,-21,-16
1523207396939086,-32,4,3,0,0,2,14,-8
1523207396960142,42,-18,-9,-4,0,2,12,16
1523207396960142,40,11,-2,1,-2,1,8,42
1523207396962148,48,3,-5,-2,-2,1,7,-10
1523207396962148,-15,-5,1,0,-1,-6,-40,9
1523207396974412,-18,1,-1,-2,-5,-6,-22,-28
1523207396974412,-5,4,-17,-6,-1,-1,12,5
1523207396983200,-13,3,12,6,-1,-2,12,5
1523207396983200,-4,0,-5,-7,-2,3,11,20
1523207396997625,-5,3,-7,7,-1,-1,-14,4
1523207396997625,-6,2,15,2,2,2,33,14
1523207396999378,66,13,1,-1,0,-3,-7,-3
1523207396999378,-4,-6,6,-1,1,2,-1,7
1523207397020430,-12,-6,1,-4,-4,-5,-4,-37
1523207397020430,-43,-2,6,-1,-1,-1,-8,-6
1523207397021432,41,-14,-6,-3,0,-1,-2,-1
1523207397021432,25,-6,16,6,-2,0,4,11
1523207397034475,69,0,-3,-1,0,2,7,1
1523207397034475,-19,-3,-5,-2,-3,-2,-18,-8
1523207397042765,-24,-7,-5,-3,-1,0,8,4
1523207397042765,-33,-3,-10,1,0,-1,1,-17
1523207397057766,-10,-11,6,-4,0,1,0,13
1523207397057766,84,12,-1,2,1,2,27,5
1523207397059534,-111,-15,-6,-1,-1,0,-16,-29
1523207397059534,9,15,-4,-1,0,-1,6,-16
1523207397080803,2,8,13,2,-2,-4,-3,10
1523207397080803,-10,-6,6,-5,-2,-2,-11,-15
1523207397081594,15,-14,-21,1,-1,-2,0,20
1523207397081594,-14,-12,-17,-5,-4,-4,0,25
1523207397093624,-20,-8,-20,-2,0,0,0,2
1523207397093624,-23,0,-4,1,-2,-4,-15,-9
1523207397102812,-3,7,11,0,-1,-1,9,4
1523207397102812,3,0,-5,-1,1,0,-3,-3
1523207397117904,5,-1,0,-4,-2,-3,-4,11
1523207397117904,-80,-13,-3,-3,-3,-2,-9,-5
1523207397119692,13,5,2,-1,0,1,12,-2
1523207397119692,63,-6,7,3,2,5,-1,-4
1523207397140869,-122,-10,-1,-1,1,5,8,14
1523207397140869,40,-1,-4,1,2,1,12,-30
1523207397141754,28,12,1,-2,-1,-1,-21,54
1523207397141754,-29,4,12,1,0,-2,-6,-34
1523207397154039,-10,-6,-8,-3,-1,-3,-13,-11
1523207397154039,21,-4,2,2,-1,0,-7,17
1523207397169101,-1,1,-1,-1,0,-2,10,3
1523207397169101,71,13,19,3,2,1,4,20
1523207397177852,56,-7,-27,-5,-2,0,5,4
1523207397177852,-16,-17,9,3,-1,0,-2,12
1523207397178851,9,6,2,-1,-1,-3,-4,-23
1523207397178851,17,8,3,-1,-1,-2,-10,4
1523207397199908,-83,-3,5,-2,-3,0,29,3
1523207397199908,-15,1,-13,-5,-3,-2,2,-28
1523207397201916,4,-3,9,1,-2,-2,0,-5
1523207397201916,-55,-12,-2,0,0,-1,-10,-5
1523207397214209,16,3,0,-1,1,0,-12,7
1523207397214209,-7,7,-2,-3,-4,-7,-10,6
1523207397222975,-2,-7,-2,0,1,2,10,-8
1523207397222975,-40,-5,-9,-1,-2,-2,1,-5
1523207397238275,20,4,8,0,1,0,-3,-6
1523207397238275,-56,-4,7,0,-3,1,15,20
1523207397239012,20,-11,8,-3,-1,-4,-22,-8
1523207397239012,53,-1,33,9,4,5,17,18
1523207397260065,53,-13,-40,-16,-11,-11,16,-14
1523207397260065,13,-4,10,-1,-1,-1,-10,-4
1523207397262076,-9,-1,-7,-3,-3,-2,-3,8
1523207397262076,-15,-11,-3,1,1,2,-6,6
1523207397274385,43,13,-11,0,1,0,-16,-2
1523207397274385,27,12,19,-1,2,1,0,5
1523207397283131,8,-1,14,4,-3,-2,6,-8
1523207397283131,-32,5,-24,-5,-2,-5,-23,-13
1523207397298219,3,3,15,8,0,3,18,7
1523207397298219,-14,-1,-8,-7,-2,-6,-25,-7
1523207397299177,-51,-2,-4,1,3,4,0,-16
1523207397299177,-118,-21,13,-4,-10,-8,-9,-57
1523207397320461,19,-1,8,3,1,-3,-6,25
1523207397320461,1,1,-6,2,0,1,1,3
1523207397322231,34,4,-7,-4,-1,-2,3,-7
1523207397322231,7,0,-5,-1,-1,4,15,30
1523207397334265,-6,16,3,-1,-4,1,3,-14
1523207397334265,-11,-3,-5,2,-1,0,10,2
1523207397343289,17,3,-5,-5,-4,0,6,1
1523207397343289,-8,-1,-10,-2,0,0,-4,11
1523207397358334,5,1,9,-2,-1,-9,-25,-18
1523207397358334,-12,7,-8,1,1,3,-5,-8
1523207397359332,52,14,1,1,0,-2,12,12
1523207397359332,4,2,-5,-5,-3,0,12,6
1523207397380602,-39,-13,5,3,1,2,1,14
1523207397380602,-40,0,-5,-3,-4,-6,-23,-61
1523207397381393,-39,-11,-12,-5,-2,-1,0,-1
1523207397381393,-32,7,6,2,-4,-2,5,-6
1523207397402711,15,-3,-4,-1,2,-1,-9,27
1523207397402711,70,0,-7,-2,2,5,11,21
1523207397404455,-45,9,-4,-3,-4,-2,-11,-41
1523207397404455,45,2,-17,-4,-1,-2,0,-3
1523207397417696,-29,-7,23,-4,-3,-1,-21,16
1523207397417696,-12,-3,-15,6,0,2,14,13
1523207397419490,23,-11,10,-2,0,-2,-9,2
1523207397419490,-54,-13,-14,0,-3,-3,-21,-7
1523207397440771,55,17,5,-2,2,3,15,-14
1523207397440771,-35,-8,3,-1,-2,-4,3,-7
1523207397441557,3,6,-2,2,-2,-3,-1,6
1523207397441557,36,0,4,-6,-2,-1,-8,-5
1523207397462855,-10,-1,-8,-3,-4,-2,4,-2
1523207397462855,66,7,2,1,3,-1,-36,2
1523207397464611,-23,-1,7,3,3,4,49,-18
1523207397464611,65,1,-18,-5,-3,-5,-3,0
1523207397477650,-56,-10,10,2,1,-1,-3,-18
1523207397477650,10,-6,-15,-4,-1,0,-4,7
1523207397479654,16,4,1,4,3,2,-14,32
1523207397479654,15,8,12,-1,2,1,7,-28
1523207397500707,54,-4,-11,-2,-2,-3,-2,-1
1523207397500707,-26,-7,21,-1,-3,-4,-8,2
1523207397501712,-8,3,-10,4,2,3,-8,2
1523207397501712,31,5,5,-3,-2,-2,26,14
1523207397523024,35,13,-10,1,2,0,2,1
1523207397523024,-3,-4,-8,-5,0,2,12,11
1523207397524770,6,-11,25,1,-9,-10,-20,-33
1523207397524770,18,-27,-24,1,3,3,12,9
1523207397537060,12,-3,-2,-3,2,2,-4,-11
1523207397537060,16,9,1,2,0,-2,5,27
1523207397543823,27,-5,-6,-5,-4,-3,0,7
1523207397543823,-78,-1,-9,-1,-2,0,-6,-3
1523207397559918,7,0,31,0,0,0,-8,23
1523207397559918,-29,-5,-13,-1,-2,2,35,-10
1523207397561868,11,-4,-5,-3,0,-1,-9,8
1523207397561868,-25,3,6,-1,0,-1,-20,-13
1523207397582932,-93,-3,-6,0,-2,0,11,8
1523207397582932,-2,0,9,-2,-2,0,-20,3
1523207397584931,-29,-9,-11,-6,-7,-7,6,-24
1523207397584931,31,14,-5,-3,-1,2,10,20
1523207397597254,-18,-4,6,2,-1,0,27,-8
1523207397597254,-23,-5,-1,3,1,0,-6,-10
1523207397611000,-30,1,12,0,-2,-1,-19,1
1523207397611000,-34,-18,-49,-2,-1,-4,-19,-8
1523207397620259,62,5,-2,-3,-1,-1,-2,-6
1523207397620259,-73,4,-1,-2,-2,-4,-10,-2
1523207397622030,59,8,-8,2,3,2,4,20
1523207397622030,-14,25,34,0,-3,1,-1,4
1523207397643089,-45,-12,-30,-1,-2,0,-4,-11
1523207397643089,7,4,-6,2,3,2,16,-7
1523207397644091,-1,-11,-9,-8,-4,-8,-29,-44
1523207397644091,33,-1,9,2,0,-1,29,6
1523207397657364,0,0,-4,1,0,-2,-21,10
1523207397657364,70,6,8,-2,-1,3,28,3
1523207397664374,-19,3,-19,-5,-3,-4,-7,19
1523207397664374,50,-20,18,5,3,4,6,10
1523207397680396,46,14,-10,-2,-4,-3,-5,-13
1523207397680396,47,0,25,-2,0,-3,-14,-5
1523207397682188,-52,-13,-13,1,2,3,4,7
1523207397682188,-3,2,-2,-2,-2,-2,0,-7
1523207397703410,6,-4,4,2,1,1,0,1
1523207397703410,-47,-6,3,-2,-3,-3,-7,-5
1523207397704249,-44,10,4,0,0,-1,10,12
1523207397704249,-13,-6,-2,-2,-2,-2,-6,7
1523207397717476,8,-1,-1,-1,-3,-2,-3,4
1523207397717476,-64,-9,-12,-2,-3,-3,1,-24
1523207397724508,27,-16,-1,-2,-2,4,23,18
1523207397724508,-36,-7,-5,1,0,-4,4,26
1523207397740600,5,-43,21,2,0,0,4,5
1523207397740600,22,11,-11,1,1,1,-5,8
1523207397741347,49,2,2,-1,0,-2,-11,3
1523207397741347,-21,13,4,-4,0,-1,3,-3
1523207397762667,-12,-1,-10,-3,-1,-3,-14,-17
1523207397762667,-3,-4,-3,-4,-3,-4,-10,-8
1523207397764413,-46,-2,17,2,3,3,-2,-8
1523207397764413,31,-1,-5,-1,-1,2,2,-16
1523207397777444,-38,17,-6,-3,-4,-3,-3,8
1523207397777444,-40,-10,-3,-2,-3,-1,6,2
1523207397783698,-6,6,1,0,1,-4,-8,9
1523207397783698,31,1,18,-1,-3,0,1,-37
1523207397800789,-49,4,-11,1,2,2,5,-16
1523207397800789,24,-8,13,1,1,2,18,10
1523207397801505,36,9,1,-2,-8,-8,-4,-6
1523207397801505,-7,2,-2,-4,-1,-1,-7,11
1523207397822583,20,0,0,-1,-1,2,-1,7
1523207397822583,-33,2,-6,1,-1,-3,-24,-29
1523207397824568,-10,-25,0,2,1,3,15,3
1523207397824568,90,10,-4,-2,0,-1,-9,-7
1523207397837738,-30,-1,6,0,-1,1,8,-29
1523207397837738,44,2,-7,0,-4,-3,-10,15
1523207397843619,53,-5,-4,0,2,6,13,10
1523207397843619,54,-2,-2,3,-1,-2,2,18
1523207397860666,-58,-8,-3,-4,0,-1,-6,-5
1523207397860666,29,2,-2,-3,-4,-5,0,-7
1523207397861664,-2,5,-4,-1,0,-2,-9,-6
1523207397861664,14,3,0,1,-1,0,-6,17
1523207397882723,36,8,-1,-2,-2,-3,15,6
1523207397882723,-10,-5,-1,0,1,1,5,6
1523207397889060,-67,-1,2,2,2,2,-1,5
1523207397889060,-13,-6,-7,-7,-3,-4,-12,-21
1523207397897008,77,7,-2,0,1,3,0,7
1523207397897008,10,1,9,-2,-2,0,2,1
1523207397905040,-47,5,-4,-1,1,2,-7,6
1523207397905040,-68,-3,2,-2,-3,-5,1,-14
1523207397920829,-9,-13,-19,-5,-5,-6,-6,13
1523207397920829,32,6,-1,4,1,0,-20,-6
1523207397921830,42,-11,5,1,0,1,8,-1
1523207397921830,-15,-2,9,-2,-4,-2,-2,3
1523207397942881,19,-2,1,1,0,0,-9,13
1523207397942881,-17,-7,-7,-2,-2,1,1,15
1523207397943882,12,9,-4,0,0,-3,-29,-8
1523207397943882,-1,-5,4,2,3,-1,-2,4
1523207397957023,-28,5,0,-1,-1,-1,20,-25
1523207397957023,65,34,-1,3,2,0,-10,11
1523207397965230,-10,-7,-2,-5,-5,-3,-1,-4
1523207397965230,-8,3,-6,-1,1,1,-3,-5
1523207397980191,-32,-4,2,-3,-3,0,-20,-6
1523207397980191,-8,-6,-5,-2,-2,-4,21,-5
1523207397981985,41,6,1,-2,0,1,14,-16
1523207397981985,-35,-4,-4,-1,-4,-1,-5,13
1523207398003276,12,-5,3,3,2,3,7,1
1523207398003276,22,5,-2,-7,-5,-5,-7,-28
1523207398004045,-16,7,-5,1,2,0,-2,7
1523207398004045,14,-4,15,0,-1,0,-1,-7
1523207398016319,53,5,-21,-1,-1,-2,-3,5
1523207398016319,54,-5,1,4,3,2,5,33
1523207398025245,-40,-9,1,-7,-7,-7,6,-22
1523207398025245,21,-3,4,4,4,1,-12,-8
1523207398040389,4,-6,9,0,1,2,3,7
1523207398040389,44,2,-8,-4,-1,-2,1,12
1523207398042145,1,-1,-2,-1,-1,1,2,13
1523207398042145,41,9,-14,-2,-2,-2,13,2
1523207398063246,3,-3,13,-4,-5,-7,-43,7
1523207398063246,-60,-16,-6,-1,-1,3,42,-16
1523207398064206,-3,6,3,-1,-4,-3,0,10
1523207398064206,81,3,-12,-2,-1,0,-9,-44
1523207398077241,10,-1,-3,-1,3,-3,4,0
1523207398077241,-76,-8,19,2,0,-1,4,-5
1523207398085304,62,41,-13,-1,-3,-1,6,4
1523207398085304,-45,-9,-1,0,-1,1,-5,19
1523207398100508,-16,-1,0,0,-2,0,-2,-13
1523207398100508,-20,0,5,2,1,1,-5,-7
1523207398102303,27,-3,8,0,3,2,7,35
1523207398102303,-7,-22,-20,-6,-4,-6,6,-12
1523207398123367,-28,3,4,1,1,0,6,-7
1523207398123367,-36,-7,-12,2,0,0,-10,-2
1523207398124371,-3,-5,2,2,-1,-2,-14,2
1523207398124371,4,13,8,0,-1,-4,-12,8
1523207398136681,41,-7,-16,-4,-5,-3,17,-14
1523207398136681,98,10,-3,-3,-3,0,-27,-12
1523207398145424,-13,-13,-8,-7,-6,-6,-10,20
1523207398145424,-26,-14,5,1,1,4,18,4
1523207398167649,-33,8,1,-2,-5,-6,-3,0
1523207398167649,-3,2,-2,-2,-2,-1,0,-1
1523207398169484,5,-8,-2,1,0,-2,-23,-16
1523207398169484,-25,5,-5,-3,-2,1,29,5
1523207398182734,30,35,-8,-2,-2,-3,8,17
1523207398182734,14,-39,5,-4,-5,-3,1,-6
1523207398184522,-85,-9,2,-3,0,1,9,-27
1523207398184522,-40,6,11,0,-1,0,16,-21
1523207398196820,-55,-3,7,1,3,1,-29,-4
1523207398196820,22,23,-14,-1,-2,1,26,-6
1523207398205578,73,6,-16,-3,-2,-8,-29,23
1523207398205578,-51,-6,2,1,2,2,0,-4
1523207398220910,22,-7,7,-5,-4,-4,-1,2
1523207398220910,-30,9,-5,0,-2,-3,-9,-10
1523207398221623,35,-10,4,2,2,4,4,-13
1523207398221623,10,1,-2,-3,-1,-4,-10,15
1523207398242689,61,2,-14,-1,1,0,-5,-7
1523207398242689,-9,-5,2,-4,-1,-4,-15,10
1523207398244683,-69,2,-4,-1,-1,-3,14,-23
1523207398244683,7,-4,5,0,-1,-5,-36,15
1523207398256953,24,2,2,3,2,1,16,-13
1523207398256953,-30,-7,-4,-2,-1,-3,-19,10
1523207398265742,13,3,-3,0,-1,4,21,-12
1523207398265742,-7,3,-3,-2,-2,-4,0,3
1523207398280904,0,-3,5,1,0,0,-21,8
1523207398280904,-34,-10,-5,1,1,2,-8,14
1523207398281783,-61,-24,-6,2,1,3,26,-1
1523207398281783,-11,8,-5,-4,-4,-3,-1,-29
1523207398303110,39,-25,-2,-2,-4,-5,-9,15
1523207398303110,-34,-4,0,-2,1,-1,7,3
1523207398303841,1,7,2,-2,-3,-1,8,7
1523207398303841,-13,-9,-3,0,0,0,-20,-6
1523207398316107,-128,-28,14,0,2,3,29,-13
1523207398316107,12,7,-14,1,1,-1,-7,-38
1523207398325160,32,1,2,-3,-2,-1,-4,-4
1523207398325160,-11,-3,-5,-1,-1,-4,0,13
1523207398340984,23,-18,12,6,2,3,-25,-21
1523207398340984,16,5,6,1,-1,-3,27,28
1523207398341942,-32,-1,0,-1,-1,-4,-13,-3
1523207398341942,35,11,9,0,0,2,11,-2
1523207398363212,4,9,-3,-3,-3,-1,5,26
1523207398363212,70,-13,-2,-4,-1,0,-19,-41
1523207398364002,-57,-2,-3,1,-2,-2,0,3
1523207398364002,3,-35,8,1,-1,3,-8,3
1523207398385312,14,11,-8,-3,0,-4,5,11
1523207398385312,-15,7,0,-2,-3,0,3,-13
1523207398387063,47,13,7,-1,-3,-3,-11,-2
1523207398387063,-1,4,-25,-3,-1,-2,16,2
1523207398399314,48,11,0,-1,0,1,2,-6
1523207398399314,-17,-1,0,-2,-3,-2,-15,19
1523207398407121,14,-1,2,0,1,0,-10,0
1523207398407121,-20,-13,7,4,1,3,1,-15
1523207398423410,-64,-20,0,-1,-4,-4,-11,-3
1523207398423410,42,12,-13,-4,-2,-2,9,11
1523207398424161,24,-4,2,-1,0,3,4,-10
1523207398424161,31,11,-3,-1,0,-3,1,4
1523207398446263,-3,11,-11,-1,1,-4,2,-4
1523207398446263,-48,-7,8,0,-1,-1,3,-35
1523207398447223,6,6,-2,-1,-2,2,-1,2
1523207398447223,-19,8,-11,-1,-1,-5,-27,7
1523207398460279,4,-4,-3,-4,-1,2,26,9
1523207398460279,63,8,5,1,-1,-1,4,36
1523207398462261,-30,16,5,1,1,-2,0,-17
1523207398462261,-90,-8,-7,-5,-3,0,9,-11
1523207398482316,28,6,-6,-3,-3,-1,-14,-9
1523207398482316,-14,-14,8,-1,-1,-3,-4,13
1523207398484322,-32,-1,-9,-2,-4,-2,16,3
1523207398484322,58,-11,7,2,1,2,-6,18
1523207398505629,-22,5,3,1,-1,0,2,-5
1523207398505629,-15,13,-24,-7,-4,-5,-16,-6
1523207398506381,26,-28,7,6,3,0,3,5
1523207398506381,-26,10,6,-4,-4,-2,-9,-12
1523207398519670,64,4,-3,1,1,0,13,22
1523207398519670,-11,-6,12,2,0,1,-7,0
1523207398526434,-12,-17,-1,-1,-2,-3,-24,7
1523207398526434,41,16,-3,1,-2,-2,7,-6
1523207398542474,-87,9,2,1,-1,0,0,-13
1523207398542474,-52,-3,0,0,0,-1,-4,-14
1523207398544479,65,16,-1,-4,-4,-3,-3,1
1523207398544479,-3,-16,-1,1,-2,1,5,9
1523207398565761,-21,-16,-4,-2,-1,2,-6,-14
1523207398565761,-4,-3,2,0,-2,-2,2,2
1523207398566541,17,21,-9,-3,-3,-2,10,-2
1523207398566541,36,6,-6,-4,-1,-1,-6,11
1523207398579804,46,-10,4,3,1,4,8,-8
1523207398579804,33,-3,2,0,-1,0,-13,-1
1523207398586872,52,-4,1,-2,-2,2,14,5
1523207398586872,26,1,1,-2,-1,-2,24,10
1523207398602854,19,1,0,-1,-2,-3,-12,31
1523207398602854,37,4,-5,0,2,1,22,-12
1523207398604642,-2,9,0,1,-1,-3,-9,-11
1523207398604642,-20,23,-12,0,0,1,-3,-19
1523207398624926,16,1,-6,-3,-1,-5,-19,-1
1523207398624926,-69,-9,-1,1,-3,-2,7,4
1523207398626697,-41,-44,9,2,3,0,-15,2
1523207398626697,22,11,-4,-2,-3,-1,2,18
1523207398639975,-58,9,-5,-4,-4,-5,-13,-67
1523207398639975,-27,-7,-3,1,2,0,-5,20
1523207398646894,-10,0,-13,-6,-3,-4,-5,-13
1523207398646894,56,-9,-8,-1,-2,-3,-9,14
1523207398662994,1,-5,6,2,0,1,6,-2
1523207398662994,9,-2,3,-2,-2,2,1,-1
1523207398663799,12,9,3,-2,-2,0,-2,1
1523207398663799,25,-5,-10,-1,0,0,7,20
1523207398685095,-89,-9,-3,-2,-2,-1,-7,-30
1523207398685095,38,-1,0,-2,0,-2,5,0
1523207398686861,13,28,4,-2,-3,-1,-7,8
1523207398686861,-53,-7,-2,-1,-2,-1,-7,-13
1523207398700029,20,-7,2,-1,-1,-3,-4,13
1523207398700029,-29,-15,10,0,-4,-1,6,21
1523207398707083,-15,0,-8,-2,0,-2,-25,-30
1523207398707083,-60,10,3,-5,-2,-3,31,2
1523207398723288,14,-2,-4,2,0,1,1,-12
1523207398723288,20,13,-5,-7,-5,-5,-18,-12
1523207398723957,36,-4,-6,-1,1,1,5,12
1523207398723957,6,0,2,1,-2,-2,-16,-15
1523207398745278,37,12,-4,1,2,0,12,22
1523207398745278,6,-1,3,0,1,1,3,6
1523207398747018,-28,0,-1,-2,-4,-2,-5,7
1523207398747018,25,-2,0,0,-2,1,-1,-46
1523207398760056,11,18,4,-1,-3,-3,9,1
1523207398760056,82,-8,-6,1,3,3,-9,20
1523207398766292,30,0,0,-4,-5,0,24,12
1523207398766292,51,-28,15,1,1,-2,14,16
1523207398783246,23,7,-4,-2,1,-3,-12,6
1523207398783246,-8,9,-5,-1,0,1,1,-6
1523207398784118,42,2,5,1,1,2,4,14
1523207398784118,-86,-4,-9,-8,-8,-5,-16,-1
1523207398805406,29,-20,9,0,0,-2,2,-19
1523207398805406,-36,-24,11,5,5,4,3,-4
1523207398807180,-8,-2,-5,-2,0,-1,-1,-1
1523207398807180,10,3,2,2,1,0,-12,-12
1523207398819463,-26,-14,-5,0,-4,-4,-3,22
1523207398819463,8,0,-6,-8,-3,-1,17,10
1523207398834298,-68,-5,1,4,1,0,8,-31
1523207398834298,9,-1,11,3,3,2,1,1
1523207398842271,-6,9,-7,-4,-1,-1,-4,-5
1523207398842271,37,2,4,0,-2,-2,-7,-5
1523207398844276,-55,-1,-7,-1,-3,-4,-2,4
1523207398844276,55,23,-4,-5,-3,-1,-6,30
1523207398865332,-15,-9,1,-1,-3,-3,0,-25
1523207398865332,-27,4,-4,-2,-3,-5,-10,-6
1523207398866334,11,-2,-1,-1,2,0,7,7
1523207398866334,-36,-9,-2,1,1,2,-2,-2
1523207398879412,1,4,-5,-6,-4,-2,1,23
1523207398879412,-55,2,-1,-2,-1,0,1,-28
1523207398887639,-45,-8,0,0,0,1,-4,-10
1523207398887639,4,-32,2,4,1,0,-1,16
1523207398902668,-2,30,-1,-2,-2,-3,5,-21
1523207398902668,43,-1,-1,-2,-1,-4,-10,-5
1523207398904442,-46,-4,-1,4,3,3,18,10
1523207398904442,-32,2,-1,-6,-5,-2,-14,-20
1523207398925495,-14,8,1,5,3,5,3,21
1523207398925495,4,-11,11,0,0,-1,9,-4
1523207398926494,61,10,-5,0,-1,-4,1,22
1523207398926494,75,9,-1,-2,-2,-1,-5,-22
1523207398938781,-23,-10,-2,-5,-2,-3,-5,6
1523207398938781,98,14,-3,5,3,1,-9,9
1523207398947599,-8,-12,3,-2,-3,-2,-10,-37
1523207398947599,15,-4,-7,-3,1,0,7,-8
1523207398962814,23,-14,2,-1,0,-1,-11,-35
1523207398962814,-16,7,-4,3,-1,-1,-4,9
1523207398964597,44,-6,5,-4,-3,-1,-10,14
1523207398964597,-54,14,-3,-2,-3,-5,0,-8
1523207398985871,3,-3,5,-2,-3,0,-9,12
1523207398985871,-43,-10,-11,-5,-3,-1,0,-7
1523207398986664,-34,14,-1,-2,-1,0,-2,-13
1523207398986664,11,-7,-10,-5,-4,-1,9,8
1523207398998703,-16,-8,-5,-3,-2,-5,-15,-15
1523207398998703,-58,1,-1,-3,-5,-5,3,-1
1523207399007719,9,-15,1,0,1,0,-8,4
1523207399007719,64,6,1,3,1,0,7,13
1523207399022994,42,3,-7,-3,-2,1,18,21
1523207399022994,-64,-25,0,-2,-1,0,-4,11
1523207399023755,-49,-5,-4,0,-2,-2,-8,-21
1523207399023755,-12,5,6,-1,1,0,2,3
1523207399045819,18,-7,0,-1,-2,-4,-9,-2
1523207399045819,15,14,0,-2,-1,0,2,13
1523207399046822,74,-3,-1,1,-1,0,1,5
1523207399046822,-22,-16,9,3,-1,-2,-9,1
1523207399058859,-2,-5,2,1,3,4,25,22
1523207399058859,-14,1,-5,1,0,2,4,-16
1523207399067876,22,4,-2,0,-3,-5,-13,-17
1523207399067876,-76,-11,12,7,3,4,0,7
1523207399083130,-29,6,-9,0,2,5,4,-27
1523207399083130,62,-3,4,0,2,-1,-12,-11
1523207399083917,17,12,-2,-3,-1,1,12,-1
1523207399083917,-3,-8,-1,2,-1,-2,-4,3
1523207399105990,-6,11,-5,1,-1,0,-2,14
1523207399105990,-13,7,-5,-5,-5,-6,-4,-1
1523207399106975,-34,-8,0,3,4,1,-17,-28
1523207399106975,21,-4,-6,-6,-5,-3,1,-18
1523207399119317,20,-9,5,3,-2,-3,5,42
1523207399119317,10,4,-7,-2,-3,0,7,-32
1523207399128029,-9,-1,-2,-2,-5,-5,-8,5
1523207399128029,90,11,-7,-3,0,0,9,24
1523207399143075,-55,-14,1,-1,-1,1,-6,-15
1523207399143075,-32,-10,0,1,1,1,-1,-23
1523207399144076,31,1,-3,-2,0,-2,4,25
1523207399144076,-36,-12,9,1,2,0,-11,-14
1523207399165129,41,15,-7,-5,-3,-6,5,0
1523207399165129,-70,-2,-9,-1,-1,0,-1,9
1523207399167132,-19,-10,0,3,4,10,13,-33
1523207399167132,-19,12,-5,-2,-4,-2,-13,-14
1523207399179363,1,-4,3,0,-2,-3,-4,12
1523207399179363,5,4,1,-1,-1,-3,-8,4
1523207399188195,6,5,-2,0,-1,-3,7,0
1523207399188195,-13,-1,-6,-4,-2,-1,-7,16
1523207399203419,-60,24,-5,3,2,0,-4,-56
1523207399203419,23,-2,-7,-6,-4,-2,4,14
1523207399204234,-76,-2,2,0,-1,-2,-6,17
1523207399204234,-7,5,-3,-1,-1,0,1,22
1523207399225288,-2,-12,5,-5,-4,-4,1,-45
1523207399225288,72,5,2,3,-1,0,-5,7
1523207399226296,10,-1,-4,-4,-2,1,15,36
1523207399226296,-25,5,-10,-2,-2,-1,-3,-43
1523207399239541,0,-7,-1,-3,0,0,-7,23
1523207399239541,-5,4,-2,4,2,0,3,-7
1523207399247635,23,10,-3,-8,-8,-7,-12,-16
1523207399247635,80,8,-1,-1,-2,-2,1,19
1523207399263432,-26,-6,-5,-3,-3,-3,0,22
1523207399263432,36,0,2,-4,-6,-7,-18,-24
1523207399264395,-57,0,2,3,1,0,-11,15
1523207399264395,-26,-2,0,-1,1,-1,4,-25
1523207399285690,-32,-10,-1,-5,-3,-4,-15,-4
1523207399285690,-25,-3,-2,4,3,2,-4,4
1523207399286455,66,-5,-2,-5,-2,1,-2,21
1523207399286455,-23,-9,-4,1,1,-1,24,-16
1523207399307749,48,-7,3,1,2,4,0,18
1523207399307749,8,8,0,-6,-6,-5,-2,3
1523207399309550,64,4,-2,2,3,2,-12,-22
1523207399309550,0,4,8,-4,-4,0,16,25
1523207399322721,57,-13,-2,1,3,2,5,7
1523207399322721,7,5,1,-1,0,-4,-3,5
1523207399329601,21,-18,3,1,0,-1,6,-5
1523207399329601,-21,-3,-4,1,-1,-3,-15,4
1523207399345826,-40,2,0,-1,-3,-1,-2,-47
1523207399345826,2,-3,8,-3,-1,-2,2,13
1523207399346612,-56,-4,-4,-1,-1,1,2,-39
1523207399346612,77,16,-7,-3,-3,-5,-40,-42
1523207399367928,-5,-10,4,0,2,3,29,35
1523207399367928,-1,-9,4,-1,0,4,14,-5
1523207399369671,-54,7,-2,-2,-4,-7,-3,-1
1523207399369671,-50,-12,-10,-1,1,4,-3,19
1523207399382843,59,9,-5,-1,-1,4,20,29
1523207399382843,-29,-12,1,1,-1,1,-5,-25
1523207399384711,10,6,6,-1,0,-2,1,-15
1523207399384711,-25,-8,-2,2,1,0,11,-2
1523207399405813,-9,6,0,0,-3,-5,-22,-22
1523207399405813,-29,0,-6,-1,0,0,10,21
1523207399406772,13,-1,-3,-2,-3,-2,2,9
1523207399406772,35,1,3,0,0,3,4,9
1523207399428091,20,-6,-1,-3,-5,-6,-23,-35
1523207399428091,-36,0,-3,-2,0,0,3,4
1523207399428832,9,2,1,1,3,1,-3,9
1523207399428832,10,-5,-3,-6,-4,-3,3,32
1523207399440943,18,8,2,2,0,1,-23,32
1523207399440943,2,-1,-1,1,-1,1,7,14
1523207399450103,-9,-8,-2,1,0,2,-6,4
1523207399450103,-65,-2,1,-2,0,2,0,16
1523207399465179,25,-9,-4,-3,-3,-2,-2,24
1523207399465179,13,-8,-4,-6,-10,-15,-27,-15
1523207399465179,19,0,2,2,3,5,17,13
1523207399465179,-35,3,4,-1,-2,-2,-9,-39
1523207399487149,-2,23,-11,-3,-2,-1,13,26
1523207399487149,-8,-10,4,4,4,3,13,5
1523207399487988,42,21,-3,-1,-1,-1,10,30
1523207399487988,40,-16,7,1,-1,-4,-3,-66
1523207399501027,18,9,4,-1,0,-2,-3,1
1523207399501027,-11,4,-3,5,5,3,5,3
1523207399509045,66,9,-6,-8,-5,-4,-3,-5
1523207399509045,-21,-6,-6,-1,-2,0,-26,-16
1523207399524253,-53,-23,1,-2,-5,-4,17,-10
1523207399524253,2,0,0,2,0,1,-3,18
1523207399525086,-23,-12,-4,-3,-1,-4,-23,-35
1523207399525086,35,13,2,-1,0,-6,-4,-3
1523207399547429,-7,-4,0,0,2,2,-1,-15
1523207399547429,60,1,-11,-3,-1,-1,-1,21
1523207399555270,-29,-7,4,-3,-2,-1,-3,9
1523207399555270,63,8,-1,-2,-1,0,5,-37
1523207399561319,-57,-13,-3,0,-1,-6,-16,0
1523207399561319,-7,-19,15,3,6,11,29,-1
1523207399569458,-54,-4,-2,-2,-2,0,14,1
1523207399569458,-40,-1,-5,-1,-1,-1,8,35
1523207399584247,39,-3,9,2,4,2,2,-8
1523207399584247,31,6,-4,-5,-4,-4,-15,-14
1523207399585248,-39,-9,-2,1,1,-2,7,1
1523207399585248,47,3,6,1,1,0,9,21
1523207399607504,-17,7,2,1,-1,1,-11,-10
1523207399607504,40,-4,-5,-6,-1,-4,6,38
1523207399607504,4,6,-7,-1,-1,-1,1,33
1523207399607504,59,-5,4,4,4,1,-4,14
1523207399630594,-10,-6,-6,-7,-8,-5,7,1
1523207399630594,15,8,2,1,-1,2,-13,-5
1523207399631370,-19,-10,-3,-4,-3,-3,-8,-14
1523207399631370,31,0,-5,1,-4,-2,7,33
1523207399644706,12,-1,2,0,1,1,3,9
1523207399644706,-33,6,0,0,-2,-5,-12,-20
1523207399645412,-9,-1,-1,1,0,2,17,-4
1523207399645412,-64,-16,0,2,1,1,8,0
1523207399667737,-29,10,-3,-2,1,0,-14,-26
1523207399667737,68,10,4,-1,-2,-3,-13,2
1523207399667737,-43,15,11,1,-2,-2,2,-51
1523207399667737,-93,-4,-5,-5,-2,-3,-4,-12
1523207399681748,3,-2,-3,1,0,3,1,-5
1523207399681748,33,3,-2,1,-2,1,11,6
1523207399689775,-45,-5,1,-2,-3,-6,-11,-8
1523207399689775,6,5,1,-1,-1,2,-7,-8
1523207399704836,-90,-17,8,3,4,2,9,20
1523207399704836,-65,-2,-3,-1,2,2,-7,-25
1523207399705566,89,1,-5,-2,-1,0,5,32
1523207399705566,43,0,2,-2,1,-1,-3,7
1523207399727702,-50,-6,-10,-7,-5,-3,-3,-58
1523207399727702,-7,-4,-3,-1,-2,-5,-17,-22
1523207399727702,-46,-3,6,3,4,5,4,13
1523207399727702,6,7,1,-1,-3,-3,-11,-11
1523207399741664,71,1,-1,-2,0,-1,4,38
1523207399741664,-28,-7,-6,1,1,4,9,1
1523207399749683,87,3,-6,0,-4,-4,-9,-14
1523207399749683,-18,-1,-6,-2,-4,-2,4,-40
1523207399764722,5,-3,-11,-10,-3,2,-6,8
1523207399764722,-59,-48,6,0,-4,-2,0,-7
1523207399765724,2,1,10,2,3,3,11,32
1523207399765724,-79,-7,-9,-11,-6,-7,-7,-49
1523207399787017,62,10,-5,3,-2,-4,13,6
1523207399787017,26,9,-2,-1,-1,-1,5,2
1523207399787788,-2,-10,-9,-8,-5,-6,-22,-4
1523207399787788,-58,-10,2,0,-1,2,12,13
1523207399802057,21,17,10,6,1,-1,1,2
1523207399802057,-36,9,-7,-7,-3,-2,6,4
1523207399809843,-10,-9,0,5,4,3,5,4
1523207399809843,-64,-21,-6,2,0,-1,-4,20
1523207399824888,33,7,-6,-2,-2,-3,-23,-10
1523207399824888,5,1,-8,2,-1,-2,-6,5
1523207399824888,4,0,-4,-4,-7,-8,4,-9
1523207399824888,35,1,5,3,4,3,0,38
1523207399847225,-52,-11,-7,-13,-1,1,-5,1
1523207399847225,-26,-18,11,-4,-3,-1,8,-20
1523207399847945,71,-26,1,4,1,2,1,-6
1523207399847945,12,7,9,3,-5,-5,-14,12
1523207399862033,109,15,9,4,2,3,11,18
1523207399862033,-83,-20,-4,-8,-4,-1,-1,6
1523207399870007,4,-3,1,0,-2,-1,6,-34
1523207399870007,26,-10,11,-3,5,8,11,12
1523207399884277,12,6,2,2,-4,-7,-9,-19
1523207399884277,20,10,-2,-4,-1,-1,-2,17
1523207399885051,-35,4,-2,-5,-6,-4,-10,-10
1523207399885051,-32,-1,-12,1,2,-2,-5,1
1523207399907272,-27,3,-3,3,-1,3,12,-10
1523207399907272,10,9,-4,-4,-3,-6,-15,-23
1523207399908104,8,4,-5,-1,1,-3,-1,-19
1523207399908104,90,20,-2,-1,-4,-2,3,-4
1523207399921345,-98,-23,2,-4,-1,-1,-17,12
1523207399921345,6,15,4,9,1,3,24,4
1523207399930168,8,8,-2,-7,-4,-4,-17,5
1523207399930168,-13,-4,1,1,2,3,6,5
1523207399944453,67,2,0,-4,-2,1,9,34
1523207399944453,-6,-2,0,1,0,-4,-14,-14
1523207399945209,-1,-2,-1,-2,-4,-7,-8,15
1523207399945209,47,7,-8,-1,-1,-3,-11,2
1523207399967401,-31,-2,6,6,2,0,5,-24
1523207399967401,-53,3,-7,-8,-5,-1,-10,5
1523207399967401,-28,-39,-2,3,2,-2,-7,-20
1523207399967401,11,17,-10,-9,-9,-10,-17,-12
1523207399981533,116,8,-2,4,1,-1,12,14
1523207399981533,-29,-1,-1,0,0,0,-6,16
1523207399989573,-6,-4,-2,-4,-3,0,-10,-9
1523207399989573,-6,-2,-2,0,-1,0,0,3
1523207400004356,-22,4,2,4,0,-5,-8,-39
1523207400004356,90,4,-4,-1,-1,0,3,8
1523207400005359,0,19,-4,-3,-2,1,3,22
1523207400005359,-56,-13,3,-2,-1,-5,-1,-37
1523207400027694,-17,-6,-1,6,0,2,10,2
1523207400027694,66,11,3,7,5,4,2,16
1523207400027694,-1,8,2,1,-3,-2,-10,-17
1523207400027694,-3,-8,4,-5,-5,-6,-6,24
1523207400041458,52,-2,-2,-3,2,0,-9,-33
1523207400041458,42,3,-6,-3,-8,-11,5,24
1523207400049701,-6,-8,11,4,6,6,4,30
1523207400049701,36,5,-8,-2,1,10,39,12
1523207400064518,-14,18,-2,0,-2,-4,-10,17
1523207400064518,22,-12,6,-8,-2,0,-1,-27
1523207400065518,-4,1,-8,-2,-4,-4,-8,-4
1523207400065518,12,-4,-4,1,-2,-4,18,65
1523207400087678,-49,-11,3,-3,-2,-1,-6,-13
1523207400087678,-21,0,-2,5,5,4,5,-14
1523207400087678,67,9,-1,-3,0,1,3,56
1523207400087678,-15,-10,-3,5,5,3,-11,-38
1523207400101917,5,-3,1,-4,-4,-4,3,36
1523207400101917,-40,-4,5,-2,0,-1,-4,-37
1523207400109897,44,14,-4,1,2,-3,-13,-23
1523207400109897,-28,-6,-6,-5,-2,1,3,-11
1523207400124677,-44,-5,-12,0,0,-2,-4,-15
1523207400124677,27,12,-3,-1,2,3,7,4
1523207400125681,-99,-8,9,-6,-4,-1,1,-7
1523207400125681,17,9,-1,-1,-1,-2,-5,-8
1523207400147019,-13,-6,-2,-8,-5,-3,-14,-2
1523207400147019,1,11,-8,0,-3,-3,-1,20
1523207400147739,23,23,-4,5,4,1,6,-3
1523207400147739,-49,-15,6,-6,1,-2,-8,22
1523207400162051,-69,-25,-4,7,7,6,11,-7
1523207400162051,-30,0,-6,-9,-7,-4,-20,-29
1523207400170107,17,-7,-3,-3,-6,-6,13,1
1523207400170107,-26,9,7,1,-3,-3,-6,10
1523207400185128,79,-3,7,4,5,3,-6,13
1523207400185128,-37,-8,6,-6,-6,-3,15,-5
1523207400185128,7,-6,-5,0,-1,-1,-6,-24
1523207400185128,-4,12,2,6,3,1,0,-3
1523207400207059,-5,-19,8,-5,-6,-3,10,21
1523207400207059,-70,-6,-1,-2,-3,-2,-8,-28
1523207400207899,3,-9,-5,-5,-3,-3,2,1
1523207400207899,19,10,1,6,2,1,1,21
1523207400230209,23,6,-4,-3,-5,-5,-6,4
1523207400230209,12,-13,-3,2,5,6,7,16
1523207400230960,-21,2,2,2,-1,1,6,-33
1523207400230960,12,-3,-14,-11,-8,-5,-15,-7
1523207400245215,-36,-1,0,1,0,0,6,-7
1523207400245215,100,14,-2,0,0,-2,-3,2
1523207400245215,6,-1,4,4,4,3,0,22
1523207400245215,-47,-11,-4,-3,-3,-3,4,-37
1523207400267383,-10,30,-4,-3,-3,0,16,-41
1523207400267383,6,4,-2,2,-1,-1,-7,0
1523207400268060,-28,-1,2,3,-1,-2,-10,6
1523207400268060,-6,-24,15,-3,-3,-3,-4,-4
1523207400290294,-1,-2,-14,-4,-4,-1,7,-3
1523207400290294,-71,-2,1,4,1,0,17,11
1523207400291118,-55,-5,0,-3,-1,0,2,1
1523207400291118,36,8,-8,-1,-3,-4,-21,-58
1523207400304462,2,1,5,-2,-3,0,6,20
1523207400304462,43,3,-15,-2,1,1,-11,4
1523207400305159,-3,-10,-9,-5,-1,3,15,40
1523207400305159,21,0,-6,1,0,-2,-5,-9
1523207400327515,6,-6,0,-8,-3,-9,-15,-10
1523207400327515,-8,2,6,6,0,-3,-8,-11
1523207400328221,7,3,0,-3,-1,-2,-3,1
1523207400328221,2,5,-4,-10,-5,0,12,15
1523207400350584,36,-2,6,5,3,3,-16,-10
1523207400350584,28,-2,1,-5,-1,2,38,-8
1523207400351282,22,1,2,1,-1,-1,-8,52
1523207400351282,-1,-23,-8,-8,-5,-5,-4,13
1523207400364634,20,-2,1,4,2,2,-11,-19
1523207400364634,49,-10,6,0,0,-1,-11,43
1523207400365316,0,-1,7,10,1,-1,-2,6
1523207400365316,6,-8,8,-4,-1,-2,12,-6
1523207400387668,-1,6,-7,0,-2,-4,-31,19
1523207400387668,22,-14,-6,3,2,5,2,-37
1523207400387668,-78,-6,1,-1,-1,-7,-15,-53
1523207400387668,2,9,-2,4,-5,-5,3,11
1523207400410717,32,2,2,0,0,3,12,13
1523207400410717,-56,7,18,0,0,2,0,-51
1523207400411442,55,6,-7,-7,-5,-3,-5,-7
1523207400411442,-2,9,0,3,1,0,6,-8
1523207400424535,-67,-7,1,-4,-4,-4,6,-7
1523207400424535,3,8,-6,-1,-2,-3,-6,30
1523207400425537,-28,14,3,-4,-3,3,14,-13
1523207400425537,75,7,0,2,-1,-1,-8,21
1523207400447311,-4,2,-4,4,3,0,2,5
1523207400447311,5,-4,0,-3,-4,-5,-19,4
1523207400448023,12,-13,-7,-5,-3,-3,16,0
1523207400448023,-20,0,8,0,-1,-3,1,5
1523207400470380,-5,-11,-2,-7,-4,-2,12,10
1523207400470380,30,8,2,-1,0,-2,-15,-51
1523207400471084,47,9,2,1,2,2,1,9
1523207400471084,-37,-10,3,9,1,1,8,-2
1523207400485224,-11,-7,-6,-5,-3,2,-2,8
1523207400485224,48,-4,0,1,0,-1,-1,11
1523207400485224,16,-18,-7,-10,-9,-2,11,-17
1523207400485224,-2,9,3,7,4,5,-11,7
1523207400507180,2,-27,1,-9,-6,-9,5,1
1523207400507180,-33,0,1,-1,-1,0,-6,15
1523207400507180,0,-7,-5,0,2,1,11,-7
1523207400507180,73,5,0,-1,1,2,-3,17
1523207400530504,-4,4,-3,1,-5,-7,-2,-10
1523207400530504,49,3,1,-1,-1,2,14,19
1523207400531245,-23,0,0,5,-1,-4,-11,-23
1523207400531245,-16,-8,-4,-6,1,3,-3,0
1523207400544549,51,17,-5,3,2,2,1,7
1523207400544549,-45,3,-1,0,-4,-3,8,-23
1523207400545284,17,-2,-5,1,-1,-5,-23,17
1523207400545284,-13,5,2,1,2,6,16,34
1523207400567634,75,-2,5,1,0,-1,-10,-8
1523207400567634,-64,-13,-7,-4,-2,-5,-13,35
1523207400567634,-34,-12,-2,-3,-5,-3,-4,-27
1523207400567634,-59,19,-8,-1,0,-2,-2,3
1523207400590403,14,-9,-5,0,1,-1,-1,-9
1523207400590403,-5,-1,-3,1,-2,-1,-9,8
1523207400590403,14,23,-5,2,1,0,27,21
1523207400590403,28,-20,1,3,-3,-3,-4,15
1523207400604710,-62,-12,9,2,2,4,-3,-53
1523207400604710,-13,3,-2,-1,0,0,4,-8
1523207400605443,3,-4,0,0,1,-1,-19,-1
1523207400605443,-30,3,-1,0,-3,0,9,-28
1523207400627548,-20,-12,15,4,3,-1,-1,-9
1523207400627548,-2,-3,9,-4,0,-1,-15,26
1523207400627548,77,11,2,0,1,3,21,-5
1523207400627548,-47,-4,-9,-11,-7,-6,-21,-19
1523207400650850,-18,2,-2,-7,-4,-3,-3,-23
1523207400650850,-32,-4,-10,-2,1,1,10,-9
1523207400650850,-3,-4,-2,-4,-5,-3,-14,22
1523207400650850,4,-3,0,-1,3,5,4,-3
1523207400664908,15,8,-8,-5,-7,-8,-22,-33
1523207400664908,3,-18,4,3,0,0,2,0
1523207400665603,-79,-5,-8,-2,2,4,-3,-14
1523207400665603,38,12,-11,1,1,-4,-11,-14
1523207400686964,-29,-13,-7,-2,-2,1,4,14
1523207400686964,20,19,-3,-1,-2,-4,14,-12
1523207400687662,-2,1,6,2,3,2,-16,-34
1523207400687662,11,-9,-2,-4,-4,-6,1,10
1523207400710913,7,14,5,8,4,5,11,15
1523207400710913,69,-3,-5,-4,-4,-2,-9,30
1523207400710913,-22,-1,-1,-1,0,2,5,-11
1523207400710913,70,15,5,-2,-2,-3,3,-7
1523207400724758,-10,-8,-5,1,1,2,3,17
1523207400724758,1,-8,-3,-1,-3,0,10,2
1523207400725901,53,6,6,-1,-1,-6,-24,-15
1523207400725901,-50,-20,-4,-1,-2,-2,-6,-8
1523207400747134,87,18,3,-1,-1,-3,17,36
1523207400747134,-19,2,-11,-5,-1,-3,-9,-36
1523207400747821,-60,-4,3,2,1,1,6,32
1523207400747821,-40,4,-7,-1,2,-1,-13,-19
1523207400771154,-34,-19,9,1,-1,-1,1,-19
1523207400771154,3,-30,6,2,-4,-1,10,36
1523207400771887,24,-4,2,-10,-5,-1,-4,0
1523207400771887,3,-4,3,2,1,-1,-4,6
1523207400785250,-8,1,-9,-1,2,4,5,36
1523207400785250,-47,11,-2,-4,-2,-9,-20,-74
1523207400785250,67,9,-5,1,0,3,9,9
1523207400785250,-27,0,5,-3,1,-1,16,-2
1523207400806978,78,11,0,-1,-1,3,-13,6
1523207400806978,0,10,-4,3,0,-1,8,17
1523207400807980,-13,-6,0,-2,-5,-3,-1,6
1523207400807980,62,8,-1,0,0,2,4,-22
1523207400830304,-12,1,-1,1,2,-4,3,14
1523207400830304,-13,6,6,-1,-1,0,-3,0
1523207400831041,-28,-16,-8,0,1,-2,-7,-5
1523207400831041,-9,-6,0,-1,-4,-3,-18,-13
1523207400844363,-76,5,-8,-5,-3,-2,2,-7
1523207400844363,-60,-4,1,6,2,2,-2,-18
1523207400852385,29,-1,-2,-5,-3,-3,1,47
1523207400852385,-3,-10,12,3,0,1,5,-34
1523207400867433,-68,-4,-6,-5,-4,-5,-8,-2
1523207400867433,16,7,-1,-2,0,-2,-5,4
1523207400868141,27,2,3,1,0,1,-1,-9
1523207400868141,-81,-8,-7,-2,-2,-2,13,6
1523207400890200,23,1,2,2,-2,-1,7,13
1523207400890200,22,-5,-8,-8,-1,-2,-5,-10
1523207400891201,-37,0,-3,1,1,-1,-6,-10
1523207400891201,85,17,5,0,-1,3,19,-2
1523207400904537,32,-5,-4,2,2,4,-3,18
1523207400904537,8,7,-3,-3,-5,-5,-25,-2
1523207400912551,51,-1,-1,-3,-1,-3,24,-72
1523207400912551,13,7,-9,-2,-1,-4,-15,15
1523207400927563,21,-23,5,-2,-4,3,6,-12
1523207400927563,30,2,-2,6,4,-1,14,26
1523207400927563,0,2,4,-7,-4,-2,-15,1
1523207400927563,-27,-19,4,-1,-4,-3,-7,5
1523207400950659,9,19,-2,-1,1,-1,-4,-15
1523207400950659,-39,-27,-1,-3,-2,1,-9,5
1523207400951362,-46,-2,-5,-5,-4,-6,9,5
1523207400951362,-10,-7,5,1,4,4,8,6
1523207400964449,8,9,4,1,-1,-3,-3,24
1523207400964449,-22,-8,-3,-3,0,-2,-6,-16
1523207400972715,-18,-2,-2,2,1,-2,-9,41
1523207400972715,11,8,-2,4,0,0,-7,10
1523207400987755,-8,-3,-6,-4,-3,-4,-20,-36
1523207400987755,65,8,1,3,3,-1,4,-11
1523207400987755,2,3,-2,-5,-3,-1,-4,12
1523207400987755,17,7,5,0,-2,-5,-8,-10
1523207401010657,-31,-12,0,6,2,1,1,12
1523207401010657,10,4,5,-8,-6,-4,-11,-8
1523207401010657,-10,-3,10,12,3,2,5,19
1523207401010657,-59,1,4,-9,-1,3,8,-4
1523207401023555,45,9,-2,1,0,-2,2,-8
1523207401023555,18,20,-7,1,0,0,-9,18
1523207401032774,55,-28,-17,-2,-1,-2,25,12
1523207401032774,0,4,0,1,0,0,-6,8
1523207401055929,-43,-3,-9,-1,0,1,3,10
1523207401055929,46,-8,-1,0,-1,2,5,11
1523207401055929,1,4,-2,-1,-1,1,-13,3
1523207401055929,-65,-12,-10,2,-1,-5,6,1
1523207401070892,24,3,-10,-8,-7,-8,-9,-34
1523207401070892,9,-3,3,1,1,3,12,47
1523207401070892,12,11,5,6,-1,-2,-4,-8
1523207401070892,28,-24,-1,-7,-1,2,-9,22
1523207401084004,-110,-3,5,-3,-3,1,28,-4
1523207401084004,-104,-3,7,8,4,2,33,-45
1523207401092786,-46,-4,-3,-12,-6,-4,-13,-23
1523207401092786,7,4,-5,0,1,-3,-5,23
1523207401106775,76,-2,-7,-1,-3,-2,-18,-10
1523207401106775,23,-2,-5,-5,-5,0,-1,6
1523207401107775,-14,4,-5,1,2,-2,4,-15
1523207401107775,28,5,-1,3,0,0,3,-20
1523207401129835,-11,-7,6,-5,-2,-1,0,20
1523207401129835,-75,-17,-13,2,-2,-7,-13,-9
1523207401130838,0,-18,7,-5,-2,-3,-2,-18
1523207401130838,46,9,1,0,3,4,8,41
1523207401144089,-24,-7,3,0,0,-2,-10,-53
1523207401144089,15,9,2,5,-1,0,-11,0
1523207401152191,-55,-8,-7,-4,-4,-2,5,17
1523207401152191,-19,10,0,-2,2,3,10,-82
1523207401167226,20,-1,-12,-10,-6,-5,-12,56
1523207401167226,1,0,8,5,2,0,-4,17
1523207401167938,103,17,3,2,2,3,13,4
1523207401167938,-8,1,-3,-2,-4,0,-7,-2
1523207401189996,11,1,-1,-4,-1,-7,7,-10
1523207401189996,16,8,0,-2,0,3,-6,20
1523207401190997,62,19,-11,1,0,1,5,-2
1523207401190997,55,2,-11,-6,-5,-4,-4,-32
1523207401213056,16,4,2,5,3,0,-8,5
1523207401213056,38,-1,-7,-7,-2,-2,-3,19
1523207401213056,-57,-12,-1,2,1,2,9,1
1523207401213056,52,-1,-3,-6,-6,-7,-11,13
1523207401227357,-59,10,9,3,3,6,3,-20
1523207401227357,35,0,-3,-7,-5,-8,-4,-29
1523207401228098,56,13,2,2,-1,-1,-16,-20
1523207401228098,16,-1,-1,-1,-1,1,-5,26
1523207401250452,-94,-28,2,3,0,1,27,-6
1523207401250452,84,1,3,-1,-2,-3,0,-18
1523207401251157,-21,9,1,1,-2,-1,-14,26
1523207401251157,-16,-8,2,3,-1,-5,1,3
1523207401272511,42,11,-1,2,2,3,-1,9
1523207401272511,-76,-8,0,-1,2,1,5,-8
1523207401273216,-53,-13,-5,-4,-1,-1,4,-3
1523207401273216,-34,-8,-7,1,-2,-2,-14,-3
1523207401287483,6,-3,-4,-4,-3,-3,-2,0
1523207401287483,-31,5,-1,-2,-3,-1,23,26
1523207401287483,-21,-1,16,10,7,3,-3,4
1523207401287483,-23,3,-8,-3,0,6,8,26
1523207401310312,30,7,-4,-5,-5,-5,1,5
1523207401310312,-50,-10,-5,-7,-3,-3,-11,-14
1523207401311316,1,-21,9,5,1,-1,-11,-10
1523207401311316,0,9,4,5,5,3,17,17
1523207401333397,-43,-9,11,0,-6,-5,-5,4
1523207401333397,5,3,2,8,2,1,-15,-39
1523207401333397,-8,-2,1,-10,-5,-1,10,10
1523207401333397,52,-2,0,1,1,-2,-17,11
1523207401347690,-9,5,2,-2,0,0,-10,-40
1523207401347690,-36,2,-2,-2,0,-1,-6,26
1523207401347690,22,0,-2,0,-5,-5,-15,-46
1523207401347690,-82,-9,8,-3,-2,-1,1,5
1523207401370818,28,6,-6,-2,-5,-2,-3,-7
1523207401370818,42,-8,2,1,2,0,-2,-20
1523207401370818,0,6,-15,-3,-2,0,4,34
1523207401370818,-26,5,4,4,1,-2,-6,-48
1523207401392844,-41,-13,-2,-3,1,1,-7,15
1523207401392844,-20,-1,5,-8,-7,-1,11,-8
1523207401393541,-3,3,-4,-2,-1,-1,-10,9
1523207401393541,-3,-3,-11,-1,-6,-4,-7,8
1523207401406570,2,13,-1,3,4,1,-13,-3
1523207401406570,9,-3,-1,-2,-4,0,-3,-18
1523207401407574,-76,-2,14,-1,0,-4,-15,-34
1523207401407574,11,8,-5,-3,-4,-4,-3,-6
1523207401429878,73,0,0,4,8,5,12,-1
1523207401429878,-2,-1,-3,-5,-3,1,3,56
1523207401430640,-40,5,-10,0,-2,3,18,-35
1523207401430640,11,-5,2,-4,-4,-2,-4,-6
1523207401452964,9,-2,-1,0,-4,-2,0,13
1523207401452964,63,1,7,7,8,4,5,15
1523207401453696,61,0,2,0,2,3,20,23
1523207401453696,-43,-19,0,-5,-2,0,8,-20
1523207401466990,-68,-9,-11,-3,-4,-1,11,9
1523207401466990,-5,-1,0,-2,-4,-1,-4,-25
1523207401467735,-16,-17,5,-1,2,0,-18,-18
1523207401467735,59,8,0,2,1,-5,5,24
1523207401498042,-49,-15,-9,-7,-2,-2,-13,-44
1523207401498042,-24,-9,-1,-7,-2,0,11,3
1523207401498817,2,7,-1,3,2,1,-2,17
1523207401498817,-16,-3,-5,-8,-5,2,9,-2
1523207401513115,81,0,8,2,-2,-7,-17,-6
1523207401513115,10,24,-12,-1,-3,-4,-4,38
1523207401513859,11,-7,-7,-3,0,2,-9,-1
1523207401513859,-49,2,3,3,1,-3,-2,-24
1523207401527146,22,-5,-3,5,2,4,-7,20
1523207401527146,-38,-6,-1,-7,-6,-4,4,-62
1523207401527896,40,6,4,2,2,-1,8,18
1523207401527896,126,6,-10,-6,-3,-4,-11,3
1523207401549952,10,12,-6,-3,-3,-5,4,41
1523207401549952,-37,-21,1,8,7,10,3,-18
1523207401550954,-37,4,-8,-7,-7,-10,-17,14
1523207401550954,-47,-5,2,1,-1,1,4,-23
1523207401573014,4,4,0,-1,-2,-6,-1,-5
1523207401573014,-17,-2,-4,3,0,-1,-3,30
1523207401573014,79,9,-15,-5,-4,-6,6,-12
1523207401573014,-74,-20,9,5,3,3,-5,-23
1523207401587368,17,3,-7,-1,-1,4,19,23
1523207401587368,-12,-4,-1,0,-2,-1,-4,0
1523207401588053,-43,-11,7,1,0,-2,1,-24
1523207401588053,39,-5,6,1,-1,-2,-2,19
1523207401611434,13,2,8,-4,-1,1,-10,-14
1523207401611434,-96,-26,-16,-9,-7,-8,9,-46
1523207401611434,43,-23,9,4,2,3,0,0
1523207401611434,12,10,-9,0,-2,0,0,11
1523207401633435,-10,-10,-15,-8,-7,-4,-1,-35
1523207401633435,68,15,3,1,4,3,-8,26
1523207401633435,16,15,-1,-2,-4,-3,-6,6
1523207401633435,23,-1,-5,-5,-3,-6,-20,1
1523207401647209,-2,7,4,8,4,4,4,17
1523207401647209,-51,-8,-5,-3,-5,-9,-11,-71
1523207401648213,59,5,-1,2,-1,0,1,21
1523207401648213,3,-2,12,1,3,3,9,24
1523207401670545,21,0,-1,-9,-3,2,-5,5
1523207401670545,0,2,3,-4,-1,-1,-4,-14
1523207401671273,-71,-7,14,4,-1,-4,4,5
1523207401671273,18,-3,-11,-7,0,1,-1,-7
1523207401693356,55,1,-7,-5,1,1,12,67
1523207401693356,-34,10,-3,-1,1,-1,1,14
1523207401693356,-37,-16,6,-3,-1,2,-23,-23
1523207401693356,33,30,-2,-2,-3,-6,3,29
1523207401707371,-16,-4,5,6,0,-4,-5,-9
1523207401707371,55,2,-4,-5,-4,-5,-13,46
1523207401707371,46,7,-7,-4,-4,-1,1,-29
1523207401707371,-20,-15,13,6,3,-1,-4,-26
1523207401730432,-12,-5,8,2,0,2,16,-31
1523207401730432,33,6,3,2,2,4,3,21
1523207401730432,57,1,-9,-1,-1,1,-3,-5
1523207401730432,-55,-7,-4,2,-1,-5,-22,-4
1523207401752767,-7,-2,-1,1,-2,1,19,-14
1523207401752767,-23,-11,1,-2,-3,1,2,11
1523207401753494,-42,2,0,-1,-1,1,14,-27
1523207401753494,44,-4,-5,-4,-4,0,-7,-17
1523207401775876,-104,-13,9,4,-2,-4,-10,-15
1523207401775876,97,12,-1,0,-3,-4,-11,13
1523207401775876,-59,-25,1,2,-2,1,6,4
1523207401775876,4,8,-5,0,0,-1,6,-32
1523207401789589,-24,-8,5,-5,0,-2,-32,-13
1523207401789589,91,8,9,1,2,1,15,-10
1523207401790589,-23,14,-11,-1,-1,0,5,22
1523207401790589,9,-8,1,-2,0,3,25,2
1523207401812650,28,7,0,4,2,-4,-21,1
1523207401812650,14,1,-11,-8,-5,-1,5,0
1523207401813650,72,-23,4,3,3,0,-10,10
1523207401813650,31,3,2,1,-1,-5,-5,29
1523207401826940,-5,0,2,3,1,0,10,-12
1523207401826940,-35,-6,0,-1,1,0,-10,2
1523207401835010,-35,10,-12,-2,-3,-2,11,24
1523207401835010,13,-12,-2,-4,0,5,12,-32
1523207401850886,18,2,-7,-4,-2,-3,-15,10
1523207401850886,46,-1,54,-1,-5,-5,-17,-12
1523207401850886,-63,-4,-39,-3,-3,-7,-11,24
1523207401850886,-1,16,-17,1,2,5,3,-16
1523207401872811,30,-1,55,-3,-7,-5,17,14
1523207401872811,-45,-9,-60,-10,-4,0,7,-13
1523207401873811,15,15,11,-2,2,3,-13,5
1523207401873811,-104,-9,-7,5,-7,-7,2,-6
1523207401887062,32,7,-2,-1,4,5,26,-8
1523207401887062,48,-10,3,8,4,1,-1,21
1523207401895156,40,11,-4,-2,0,1,-1,-25
1523207401895156,40,3,48,-4,-10,-7,-23,17
1523207401910958,-67,-7,-13,-2,2,0,-5,-10
1523207401910958,-6,8,-3,6,2,-2,-4,2
1523207401910958,-46,-7,-16,-9,-2,0,-1,-13
1523207401910958,-1,-13,10,3,5,5,11,31
1523207401932970,72,17,-3,-5,-6,-4,-17,-5
1523207401932970,-34,-4,-3,1,-4,-5,-8,-12
1523207401932970,42,10,14,3,1,1,7,-33
1523207401932970,-10,4,-11,-2,3,3,21,9
1523207401947054,37,-9,-23,-7,-8,-11,-33,6
1523207401947054,9,-4,-5,3,1,3,1,15
1523207401955242,-110,-20,3,1,0,2,11,-10
1523207401955242,82,0,-17,-8,-4,-5,-17,-9
1523207401970330,66,1,-13,7,4,5,9,-16
1523207401970330,-59,-2,13,-1,-6,-4,-2,-11
1523207401971073,-13,-14,6,-15,-10,-10,-4,33
1523207401971073,-59,-12,4,2,2,5,8,15
1523207401993388,10,0,-12,4,2,-1,11,9
1523207401993388,-15,-22,14,-13,-2,2,-2,-49
1523207401993388,38,7,22,9,1,-2,-14,-3
1523207401993388,-14,-2,-23,-5,-1,-5,-14,14
1523207402006165,-29,-1,12,0,1,5,9,-3
1523207402006165,32,12,-25,2,-2,-3,-4,-4
1523207402014383,7,-2,-11,-1,-1,-3,-13,-10
1523207402014383,-3,-7,30,6,-1,4,57,17
1523207402030229,-69,-1,-46,-16,-6,-5,-6,1
1523207402030229,32,8,18,3,3,2,1,10
1523207402031228,-61,-14,-29,-8,-3,1,0,1
1523207402031228,-49,6,-17,1,-1,-5,-21,1
1523207402053412,22,-7,5,-1,-2,0,3,5
1523207402053412,-26,6,-11,7,1,-2,4,-1
1523207402053412,17,-13,0,-3,-6,-5,-10,-3
1523207402053412,17,-9,-4,-4,-1,4,8,-9
1523207402066599,-16,3,-4,0,-1,-5,-10,6
1523207402066599,2,5,17,0,-3,-4,-10,-3
1523207402074345,42,18,4,8,4,-2,4,13
1523207402074345,25,6,-17,-5,-4,-4,-12,-22
1523207402090388,75,-2,6,0,-1,-2,-5,-11
1523207402090388,-5,-4,-16,4,0,1,-1,9
1523207402091405,35,19,10,1,3,1,3,25
1523207402091405,26,-2,-6,-7,-3,-3,-20,-32
1523207402112447,8,0,-3,-2,0,-1,-6,-1
1523207402112447,19,-2,2,-3,-1,-5,-7,9
1523207402113450,-1,15,30,4,-2,1,5,-12
1523207402113450,66,3,-19,5,2,1,-2,8
1523207402135791,-53,10,-15,3,5,4,15,19
1523207402135791,-3,-1,65,-5,-6,-4,-1,15
1523207402135791,-10,-10,-27,-1,1,-2,1,-14
1523207402135791,-57,-4,-2,2,3,0,-3,-15
1523207402150819,-4,0,-1,-2,0,2,-5,-4
1523207402150819,-48,-16,-24,-6,-3,-3,10,2
1523207402150819,-46,3,10,-2,-1,1,-1,1
1523207402150819,12,2,3,-7,-5,-8,-24,21
1523207402172608,5,-2,-3,0,-4,-6,-5,-46
1523207402172608,-25,0,-8,-5,0,0,15,2
1523207402173607,75,19,-3,1,0,0,-9,10
1523207402173607,-53,-2,-5,-3,-1,-2,1,-1
1523207402194929,-20,-11,16,0,-4,1,10,22
1523207402194929,16,15,-7,2,2,3,-5,-8
1523207402195668,24,-7,-26,-4,-4,-4,-3,-3
1523207402195668,50,6,9,3,2,-1,-3,-21
1523207402210963,-6,-8,-1,1,-1,-2,-11,11
1523207402210963,34,8,-14,-2,-3,-1,20,-23
1523207402210963,59,2,-15,-6,-2,-3,-12,-40
1523207402210963,-1,-1,18,2,-3,-2,-2,-4
1523207402233042,-27,-7,4,2,-1,2,4,9
1523207402233042,-1,2,-15,-1,0,1,-8,10
1523207402233770,59,-4,16,-3,-3,-2,-2,2
1523207402233770,30,-17,7,7,2,1,16,4
1523207402255129,20,-2,-1,-3,-2,2,2,-5
1523207402255129,4,-1,-21,0,2,3,-5,4
1523207402256829,24,4,9,0,-2,2,12,30
1523207402256829,13,8,-3,-6,-5,-4,-18,19
1523207402270142,72,7,-7,-1,0,0,0,-40
1523207402270142,8,-9,4,-3,-3,-1,-15,-12
1523207402270868,-2,2,2,0,4,4,17,33
1523207402270868,3,-3,-15,-9,-3,-4,-22,-10
1523207402293178,-48,12,17,1,2,0,3,19
1523207402293178,-9,-2,-8,0,1,0,-4,6
1523207402293933,-14,5,4,4,0,-1,-7,3
1523207402293933,-79,-11,-15,-10,-1,4,0,9
1523207402315248,7,-7,6,-2,-1,-2,-7,-5
1523207402315248,-12,-3,1,2,-5,-6,-11,-13
1523207402316992,-19,8,5,-1,2,2,2,10
1523207402316992,26,13,-8,0,-1,0,12,2
1523207402329290,50,-3,-4,1,-2,-4,-4,16
1523207402329290,22,7,16,3,-2,-1,6,2
1523207402338045,-40,-10,1,-1,-2,-4,-6,8
1523207402338045,-6,3,3,-2,-4,-2,-9,-10
1523207402353367,-16,-7,7,1,-3,-2,-9,9
1523207402353367,-35,-15,12,-5,-2,1,38,20
1523207402354089,-13,-2,0,1,0,0,-7,8
1523207402354089,10,1,5,4,0,1,-4,-23
1523207402375420,5,3,-3,2,-1,-6,-11,-13
1523207402375420,-25,0,-8,-1,1,3,-12,5
1523207402377152,-26,-6,-10,-3,-5,-1,20,-5
1523207402377152,-21,-11,7,0,3,3,8,10
1523207402389183,-89,-8,-2,-5,-4,-1,7,-37
1523207402389183,29,2,-7,0,-1,-2,-5,-6
1523207402398207,22,-10,-1,3,1,0,3,-11
1523207402398207,43,26,6,6,0,-1,-4,14
1523207402412505,-21,0,-6,-3,-3,-2,2,-11
1523207402412505,11,-6,-5,1,3,4,11,-18
1523207402414248,-77,-13,-4,-1,-1,-1,-11,-28
1523207402414248,-3,-6,0,-6,-5,-6,-9,17
1523207402435620,-13,1,13,4,4,7,21,11
1523207402435620,-29,3,-1,-8,-1,0,-7,1
1523207402436306,107,5,2,-3,-3,-3,-4,-4
1523207402436306,62,6,-3,2,0,1,3,-1
1523207402449588,16,4,8,3,3,1,-2,18
1523207402449588,79,-8,-3,-3,-1,-4,-9,1
1523207402457363,-23,-7,-12,-8,-4,-3,-1,-19
1523207402457363,-34,-22,7,-1,0,-1,3,-3
1523207402472405,7,-2,0,0,-1,1,-18,-25
1523207402472405,9,9,1,2,0,0,14,35
1523207402474411,-21,4,-14,-2,1,1,-19,1
1523207402474411,-32,-22,27,-3,-4,0,26,13
1523207402495464,-6,2,-17,-2,-2,-3,-13,-15
1523207402495464,-54,-9,-5,-6,-5,-3,-7,-8
1523207402497472,-13,0,2,2,-1,-4,-8,-6
1523207402497472,-91,-9,-34,-1,0,-2,-6,-19
1523207402509752,-29,0,-7,1,1,1,18,9
1523207402509752,-42,4,5,2,-3,0,-1,-40
1523207402516803,14,-25,11,0,1,-4,-4,52
1523207402516803,29,8,3,6,0,1,-1,12
1523207402532821,25,-3,-2,0,-1,-1,-3,2
1523207402532821,-1,-4,-13,-1,-1,-2,-6,-13
1523207402534567,-12,-12,6,-1,1,6,11,-8
1523207402534567,6,1,-1,1,0,-3,-23,-28
1523207402554883,12,-6,-3,-10,-3,1,10,22
1523207402554883,-22,-14,-1,0,0,-2,-12,45
1523207402556628,43,4,2,0,-4,-6,-12,-30
1523207402556628,25,-1,-10,-7,0,1,1,18
1523207402568925,-31,0,-3,1,-3,2,1,-4
1523207402568925,-16,0,-2,-1,-1,0,-2,4
1523207402577684,-22,13,-4,-2,-3,-1,6,10
1523207402577684,37,1,1,-1,3,2,7,-6
1523207402592952,-59,-17,5,4,3,-2,-9,13
1523207402592952,5,13,-1,-4,-3,-2,4,-41
1523207402593728,48,13,-6,2,1,0,-2,7
1523207402593728,11,1,3,-2,-2,0,7,-16
1523207402615788,-7,-18,5,-3,-4,-4,-3,-5
1523207402615788,61,11,3,2,1,3,-2,9
1523207402616789,-47,-11,0,-6,-2,-2,3,-12
1523207402616789,-78,4,1,2,1,1,1,4
1523207402628819,48,-1,-6,2,2,-1,3,5
1523207402628819,19,-4,5,-9,-4,-5,-7,-28
1523207402637844,12,5,-6,2,-3,-2,-1,-2
1523207402637844,6,6,0,-5,-5,-5,-7,-8
1523207402653208,-4,6,-1,-4,0,0,5,11
1523207402653208,58,3,4,7,1,-1,0,39
1523207402653885,4,1,-11,-4,-4,-1,8,-7
1523207402653885,-50,-3,-2,-1,3,4,-2,32
1523207402675245,32,9,2,-1,-3,-4,-7,24
1523207402675245,69,3,-6,0,2,3,3,2
1523207402676947,64,9,-2,0,-1,1,2,-5
1523207402676947,-16,-14,9,3,2,-1,21,-1
1523207402688980,38,-2,-6,-7,-4,1,-5,-5
1523207402688980,-28,-4,-4,-1,-3,-4,-9,13
1523207402698001,1,-4,3,6,0,2,4,-11
1523207402698001,33,17,7,-1,-4,-2,3,24
1523207402713252,69,18,-9,-3,-3,-3,11,4
1523207402713252,-35,-8,0,3,1,0,-3,-6
1523207402714049,-36,-3,4,-2,0,-3,0,-2
1523207402714049,125,7,-7,-2,-2,-2,-8,20
1523207402735388,-61,-3,-5,-7,-3,1,-8,-43
1523207402735388,-7,0,3,0,-3,-1,1,-2
1523207402737106,-47,-8,1,0,-1,-3,-10,-54
1523207402737106,-78,-14,-4,0,0,-1,2,-26
1523207402749138,14,7,5,0,-1,-3,-2,11
1523207402749138,44,-6,-6,-7,-2,-4,-1,-10
1523207402758164,-60,-2,2,0,1,-1,1,11
1523207402758164,16,-2,-2,-1,-2,-3,-12,-12
1523207402772202,13,7,-4,-3,0,2,6,-2
1523207402772202,-16,2,-2,-1,2,2,-1,4
1523207402774205,3,6,-4,-4,-4,-2,-4,4
1523207402774205,26,1,-6,3,1,0,-3,-10
1523207402795521,0,9,10,4,0,-1,-5,5
1523207402795521,-25,-1,-4,1,1,3,2,-2
1523207402796264,8,0,1,0,-2,1,-10,21
1523207402796264,-85,-18,-11,-8,-8,-9,2,-52
1523207402809503,41,0,0,-1,1,-2,-6,-37
1523207402809503,-20,-1,0,0,-1,-3,-3,-25
1523207402817596,-23,-3,2,-1,-3,-5,-15,1
1523207402817596,67,9,2,-4,-2,3,18,11
1523207402832638,24,-8,-1,3,-2,-3,7,12
1523207402832638,-19,-6,6,3,0,2,-11,-22
1523207402834365,34,-6,-1,3,5,5,46,26
1523207402834365,6,4,-8,-3,-2,-1,-13,-4
1523207402855420,-42,-7,1,-2,-2,-2,-2,-11
1523207402855420,20,-7,7,5,0,0,0,21
1523207402856424,19,1,-2,-3,1,-1,4,-1
1523207402856424,-74,-21,0,0,-2,2,20,8
1523207402869510,23,2,3,-5,-2,-2,-8,-4
1523207402869510,-85,-4,-7,-3,1,1,4,-58
1523207402883834,37,5,6,-2,0,-3,-4,4
1523207402883834,65,1,-5,1,0,-2,-14,-34
1523207402892832,-52,1,-3,-8,-4,-2,-6,-1
1523207402892832,11,-1,-13,-2,-1,0,6,3
1523207402894594,0,-2,3,0,-2,-2,-4,19
1523207402894594,9,7,8,3,2,1,3,-13
1523207402915939,-12,-8,-2,-2,0,-2,-6,16
1523207402915939,75,-10,-5,-3,-4,-8,-10,4
1523207402916655,-56,-6,-2,2,3,7,22,-3
1523207402916655,-15,6,-7,-3,-4,-3,-16,17
1523207402928936,20,-13,2,8,4,2,2,-10
1523207402928936,-61,3,-2,-3,-4,-3,-6,-15
1523207402937709,31,-4,4,0,-3,-5,9,-2
1523207402937709,-62,-8,14,2,0,-5,-13,-2
1523207402953027,-50,-10,-7,-5,-4,0,2,-8
1523207402953027,62,4,-4,1,2,2,-1,58
1523207402953756,52,1,-3,-4,-1,0,-14,6
1523207402953756,8,16,4,5,-1,-1,5,8
1523207402975213,16,1,-10,-2,-3,-1,9,14
1523207402975213,5,1,8,2,2,3,5,18
1523207402976813,-77,4,-4,-1,-4,-7,-43,-24
1523207402976813,73,-3,-2,3,6,10,47,38
1523207402988847,24,3,2,2,1,-1,-16,-13
1523207402988847,-92,-2,1,-5,-3,-4,6,-41
1523207402997870,14,-2,-8,-2,0,-1,-14,7
1523207402997870,73,-2,-6,2,3,-1,-16,13
1523207403012910,-108,-9,1,4,-2,-7,-1,20
1523207403012910,2,5,0,-3,-3,-1,-2,-15
1523207403013910,0,-3,-1,2,0,-1,-1,-7
1523207403013910,-17,-19,-7,-5,-3,-5,-9,-45
1523207403035238,-17,-3,18,7,-2,0,5,14
1523207403035238,34,12,7,4,5,2,-11,12
1523207403036976,-96,-9,-3,-3,-3,-1,3,0
1523207403036976,30,0,3,-3,-2,-2,-18,-1
1523207403049292,42,3,-5,1,0,1,-6,16
1523207403049292,19,-3,5,-1,-5,-6,-12,-23
1523207403058034,-45,-9,-5,-1,-2,2,17,4
1523207403058034,-19,9,-1,-2,0,0,-4,6
1523207403073067,25,4,-8,-8,-2,-2,0,-21
1523207403073067,40,7,-2,-1,-3,-2,4,26
1523207403074082,46,5,-6,-2,0,2,-1,-8
1523207403074082,-5,0,-1,0,0,1,-7,-13
1523207403095129,18,6,-1,-4,-2,1,9,-6
1523207403095129,-19,-8,-6,-2,0,1,6,35
1523207403097133,15,-2,11,1,-6,-6,-4,-54
1523207403097133,-29,-6,3,1,2,3,-1,-7
1523207403118269,17,-13,0,-4,-3,-2,-5,4
1523207403118269,-51,0,-4,1,1,1,12,33
1523207403119191,-40,-8,8,5,3,5,8,-32
1523207403119191,-36,9,-6,-6,-7,-7,-6,29
1523207403132533,62,6,-6,0,-1,-2,-6,-16
1523207403132533,-1,-34,7,4,3,-2,-2,21
1523207403134232,5,-4,-6,-8,0,1,-4,5
1523207403134232,-69,-10,-7,-1,-1,-3,7,-17
1523207403155292,-81,1,4,0,2,1,-8,-15
1523207403155292,-3,13,-6,-4,-4,0,4,9
1523207403161568,84,4,5,3,0,0,23,20
1523207403161568,44,6,-2,-1,1,4,1,44
1523207403178348,-6,-7,-3,4,-1,-7,-7,-27
1523207403178348,65,10,0,0,2,2,3,-23
1523207403179352,-5,-13,-5,-14,-4,-1,-18,-2
1523207403179352,95,12,-3,0,-4,-5,-3,-3
1523207403193388,-32,9,4,6,0,-5,-8,0
1523207403193388,-51,-15,7,1,2,-1,6,-17
1523207403194393,34,2,-5,2,1,2,13,38
1523207403194393,10,-1,0,1,-1,-3,-15,-22
1523207403215724,-15,-1,-5,-4,0,2,6,2
1523207403215724,14,10,-7,0,-2,-3,2,-16
1523207403216453,51,8,5,5,1,2,-6,13
1523207403216453,-56,-19,-6,-4,-2,-1,4,-14
1523207403238508,-55,-7,-8,-5,-1,-1,-6,-1
1523207403238508,-1,16,-7,-4,-3,-4,-5,-14
1523207403239510,39,-5,3,6,1,-2,-4,-20
1523207403239510,14,12,2,2,1,4,5,30
1523207403252715,72,6,-3,-4,1,3,-3,-21
1523207403252715,-8,-11,-5,-1,-1,-3,4,7
1523207403258815,-68,17,-9,0,-2,-5,0,13
1523207403258815,-8,-2,4,-4,-3,-5,-7,-10
1523207403275884,42,-4,-4,-2,-5,-1,9,20
1523207403275884,-27,-11,2,1,0,3,-1,-14
1523207403276611,-6,3,-5,-4,-3,-3,-8,-3
1523207403276611,-18,0,2,2,-2,-1,7,-9
1523207403297950,44,0,-13,-1,-1,-1,-10,36
1523207403297950,41,9,-1,-4,-3,1,3,39
1523207403298673,3,8,-5,-5,-2,-5,-34,-24
1523207403298673,-46,-11,-1,3,-2,-5,7,-16
1523207403311962,-22,-1,4,1,1,2,3,14
1523207403311962,18,9,1,-3,-1,-3,-14,-4
1523207403318997,-30,-12,3,9,6,0,0,22
1523207403318997,66,6,-3,-5,-2,-1,-11,13
1523207403335873,49,-7,-3,2,0,1,12,-24
1523207403335873,29,-4,-2,-6,-5,-4,-9,-6
1523207403336773,19,9,10,-1,-2,-5,-2,-11
1523207403336773,12,0,7,5,2,6,12,12
1523207403358237,-73,-1,-4,-5,-6,-4,-10,-27
1523207403358237,27,2,-11,-3,0,4,8,22
1523207403358831,-90,-15,-4,-5,-5,-7,5,-71
1523207403358831,-11,-7,6,-5,0,-1,-2,2
1523207403371867,-26,35,-4,-1,3,2,-9,17
1523207403371867,-19,-25,7,0,0,2,-20,-47
1523207403379034,-17,0,-4,-4,-2,-4,0,-2
1523207403379034,10,5,-2,-2,-3,-4,-7,23
1523207403394925,34,-2,2,2,-2,-1,16,-9
1523207403394925,-86,-4,-2,3,4,3,-2,-12
1523207403396931,98,-1,-10,-5,-6,1,9,-4
1523207403396931,55,4,1,1,-1,-4,-7,-14
1523207403418275,-54,-27,-7,1,0,-4,-13,5
1523207403418275,13,-7,-4,-4,-3,-3,11,-3
1523207403418989,14,1,-4,-2,-3,4,3,13
1523207403418989,-61,-2,-3,-4,-2,-4,-7,25
1523207403432299,66,5,5,2,-3,-5,-2,-40
1523207403432299,8,11,-2,-1,-4,-5,-4,12
1523207403440044,-4,-6,1,1,3,4,-2,0
1523207403440044,26,-2,-1,-1,-1,0,-5,-9
1523207403455083,-34,3,-3,2,4,2,4,31
1523207403455083,-20,6,-1,-3,-3,-5,0,-13
1523207403457090,-14,7,1,-4,-2,1,8,22
1523207403457090,-29,-2,-14,-1,-1,-2,-8,-28
1523207403477407,19,-7,8,-1,-2,0,0,2
1523207403477407,-45,1,2,5,1,-4,-7,9
1523207403479147,19,3,-2,3,1,2,0,10
1523207403479147,-35,-18,4,-2,1,-1,-4,-13
1523207403492459,-21,7,4,3,4,2,5,-10
1523207403492459,62,-10,2,-6,-2,-2,-7,-17
1523207403499485,49,1,5,2,2,-2,8,4
1523207403499485,-15,-5,1,-5,-5,-1,1,-8
1523207403515551,17,-1,3,1,-1,0,-1,16
1523207403515551,-58,-19,-6,-3,-2,-2,-1,-11
1523207403521263,0,-3,-8,0,0,1,-11,5
1523207403521263,26,-2,-2,3,3,2,-1,-4
1523207403537625,-55,-13,-3,-5,-4,-4,-3,8
1523207403537625,48,15,-2,2,-4,-2,-1,13
1523207403539306,-100,5,-2,-1,-3,-4,3,-19
1523207403539306,-69,-9,-1,-11,-5,-3,5,-8
1523207403552651,30,-8,9,4,2,2,-9,-29
1523207403552651,43,8,-7,1,1,1,8,-22
1523207403559411,-63,-24,15,4,0,0,-5,22
1523207403559411,89,18,-2,2,-3,-3,0,14
1523207403575650,-6,-1,-2,-3,-3,-3,-16,19
1523207403575650,17,8,-1,-11,-5,-3,6,10
1523207403576406,56,2,-1,1,2,1,25,29
1523207403576406,-3,5,9,10,2,1,-4,-19
1523207403597658,-3,-4,-6,-13,-8,-4,-4,-2
1523207403597658,61,-3,13,1,0,-5,-12,1
1523207403599470,16,5,-9,-6,0,0,-3,15
1523207403599470,22,-2,1,0,-1,-3,-9,-21
1523207403611783,-31,15,6,8,2,-1,7,-46
1523207403611783,-16,-2,-13,1,-2,1,-2,10
1523207403620527,50,-2,-7,-5,-2,-3,-7,-8
1523207403620527,-10,-14,0,-4,-3,-2,-5,-9
1523207403635849,29,-8,11,5,2,2,7,35
1523207403635849,-31,24,-7,-1,-2,0,2,-1
1523207403636567,40,4,-4,-3,-2,-3,-12,-10
1523207403636567,-50,3,-6,1,1,2,7,11
1523207403657881,-43,-5,-2,-2,1,4,19,-23
1523207403657881,-4,-25,1,0,1,0,7,13
1523207403659628,-52,-3,12,6,2,2,-6,22
1523207403659628,-62,-3,-1,-1,0,0,1,-1
1523207403671661,27,-2,-15,-16,-10,-9,4,-45
1523207403671661,26,-5,-9,-1,0,0,3,10
1523207403680687,68,3,-2,-1,-4,-2,0,37
1523207403680687,-19,-7,0,5,1,-1,-27,-21
1523207403694986,-6,-13,-9,-1,-2,-1,5,7
1523207403694986,9,2,9,-2,-1,-2,4,1
1523207403696726,34,2,-4,0,1,1,-3,-19
1523207403696726,-47,-9,-8,-7,-3,2,9,57
1523207403718060,-23,7,0,4,1,0,7,-9
1523207403718060,32,4,0,-3,1,0,-16,-8
1523207403718789,-94,-15,-11,-1,-3,-4,-6,-8
1523207403718789,45,12,4,1,2,7,30,10
1523207403732057,84,13,-6,-1,-3,-4,-14,50
1523207403732057,-50,-16,-3,-1,-2,-7,2,-2
1523207403740045,-9,-1,-5,1,-2,0,-11,-9
1523207403740045,15,-2,-3,-4,0,2,0,-5
1523207403754880,-31,-5,-2,-2,-1,0,-4,9
1523207403754880,-1,0,0,3,3,2,-9,20
1523207403756885,-43,-1,4,1,1,-1,10,39
1523207403756885,15,15,-7,-7,-4,1,29,-25
1523207403777944,25,2,3,3,1,-2,-13,10
1523207403777944,56,2,1,4,0,2,-3,5
1523207403778943,-57,-5,1,-3,-1,-2,-1,-51
1523207403778943,27,0,-4,-2,0,-3,-4,37
1523207403791268,-6,-3,4,-1,1,1,-4,-12
1523207403791268,0,1,1,0,-1,0,7,3
1523207403800163,24,0,-1,-5,-4,-3,-5,-12
1523207403800163,14,3,-2,4,1,-1,-28,-1
1523207403815340,86,27,-9,-4,2,8,17,7
1523207403815340,-88,-26,-15,-15,-7,-7,-12,-75
1523207403817046,32,3,0,-4,-6,-10,-35,-64
1523207403817046,-21,-5,-2,0,-2,-6,-2,4
1523207403837381,4,3,-2,3,0,-1,-5,7
1523207403837381,34,8,5,7,3,5,9,24
1523207403839107,38,2,0,-1,0,4,11,-5
1523207403839107,10,2,1,0,-3,-2,-7,-25
1523207403851398,-32,-10,2,-2,-4,-3,-3,15
1523207403851398,-8,0,0,1,-1,0,9,4
1523207403860159,-27,-8,-5,0,-1,0,-9,-7
1523207403860159,87,9,11,7,7,2,4,-54
1523207403875431,32,-18,-12,-11,-5,-4,16,9
1523207403875431,-28,-3,7,1,1,-3,-13,-17
1523207403876206,57,8,2,-8,-5,-1,-1,14
1523207403876206,-19,-5,-1,0,-3,-1,0,15
1523207403898261,-6,0,-2,11,3,-2,-4,3
1523207403898261,11,6,4,3,-3,2,3,-3
1523207403899266,-12,-8,-3,1,1,0,7,13
1523207403899266,-7,4,1,0,-1,3,15,6
1523207403911494,-20,-7,-5,-5,-1,1,-10,-23
1523207403911494,0,8,1,-1,-1,0,-2,28
1523207403920322,-60,-5,1,1,0,3,9,14
1523207403920322,0,-23,4,2,-1,-3,-7,-2
1523207403935637,8,-20,9,1,-2,-4,2,16
1523207403935637,-87,0,2,-3,-4,-2,-6,-55
1523207403941627,86,-3,-4,1,-1,1,-17,15
1523207403941627,-26,0,-6,-7,-9,-13,-3,-77
1523207403957718,-46,-1,-9,-4,-1,-2,-17,-17
1523207403957718,115,13,0,2,1,-2,4,36
1523207403959428,28,8,2,-2,1,-4,-4,13
1523207403959428,11,0,-3,-4,-2,-1,-4,1
1523207403971455,24,6,1,1,-1,2,3,8
1523207403971455,-1,-7,-11,-5,-5,-2,-11,-26
1523207403980483,-31,7,4,3,4,3,3,-6
1523207403980483,68,-7,-13,-9,-7,-4,-13,21
1523207403995672,-60,7,5,1,-2,-2,-3,-27
1523207403995672,10,0,-1,2,-2,1,3,20
1523207403997528,-58,-8,0,-1,-1,0,9,4
1523207403997528,43,5,2,2,2,-1,-9,-26
1523207404017844,-46,-9,1,-1,-4,-4,-5,-28
1523207404017844,-1,0,2,1,0,0,-5,7
1523207404019585,17,5,-1,1,-1,2,9,-14
1523207404019585,-45,3,-2,-2,1,0,1,30
1523207404040773,26,-3,1,3,0,-4,-11,7
1523207404040773,-42,-2,-1,6,2,3,28,-4
1523207404041645,8,-4,4,-1,1,2,20,43
1523207404041645,-18,8,4,0,1,4,0,2
1523207404054678,43,-5,-3,-7,-7,-14,-49,-46
1523207404054678,11,3,4,4,-4,-5,15,-8
1523207404056683,32,1,8,1,-3,-2,-22,-27
1523207404056683,-27,-3,0,4,4,2,5,36
1523207404077740,26,9,1,2,3,5,29,46
1523207404077740,12,-4,-4,-6,-1,-5,-19,1
1523207404078742,-11,-3,-5,-2,-3,-4,0,-5
1523207404078742,0,-3,-1,0,-1,1,-4,-1
1523207404100072,-4,-1,0,-2,0,3,4,14
1523207404100072,-24,-7,-1,-2,2,-1,-3,1
1523207404101802,-6,-1,-3,-3,-3,-1,8,-6
1523207404101802,-11,-1,-3,1,-1,0,-2,13
1523207404115839,33,-10,13,0,2,4,-3,18
1523207404115839,-99,-5,-8,-8,-2,4,28,-17
1523207404116844,88,40,-6,-4,-2,-5,1,-37
1523207404116844,101,5,2,0,2,1,9,1
1523207404137901,3,-5,-1,-2,-3,-3,-8,5
1523207404137901,-3,8,7,4,1,2,-1,11
1523207404138902,-55,-20,-5,-4,-3,-5,-17,-26
1523207404138902,14,-2,-2,-3,-4,-4,14,2
1523207404160205,-74,-8,-4,0,3,1,3,-6
1523207404160205,37,-11,-4,-7,-4,-7,-10,61
1523207404161964,36,-5,-1,2,1,1,6,16
1523207404161964,-11,-3,0,0,0,-1,-1,5
1523207404175215,-25,8,1,4,2,3,2,-4
1523207404175215,66,-2,-1,-4,1,3,0,12
1523207404182059,-103,-38,16,7,3,-1,3,-20
1523207404182059,-33,0,-15,-11,-7,-4,-27,-7
1523207404198280,85,-3,2,8,2,2,7,12
1523207404198280,-16,2,2,-3,-5,-3,-14,2
1523207404199062,55,4,-4,0,-1,3,21,49
1523207404199062,60,2,3,2,-1,-1,4,10
1523207404220386,28,1,-5,-3,-5,-3,-14,-9
1523207404220386,89,3,-1,3,0,0,-3,-4
1523207404222130,-78,-15,-13,-8,-4,1,15,-20
1523207404222130,4,-9,2,-5,-3,0,0,-8
1523207404235209,-2,10,-4,-3,-2,-3,0,-3
1523207404235209,-24,10,-1,-7,0,1,-2,-25
1523207404241449,33,10,-3,1,0,-1,-3,14
1523207404241449,-6,4,5,2,2,4,7,29
1523207404258250,20,10,1,-2,0,2,10,-24
1523207404258250,-50,-21,-4,-6,-7,-6,-20,-27
1523207404259223,-45,6,0,1,-2,-4,-11,-16
1523207404259223,42,1,-4,-2,-1,-2,8,-20
1523207404280590,-28,-3,-4,-3,-1,0,12,49
1523207404280590,-30,-13,2,5,3,2,1,-12
1523207404282281,30,4,-9,-6,-1,-2,-15,-5
1523207404282281,-84,-22,-11,5,0,0,-4,37
1523207404294315,-20,8,2,0,0,1,7,25
1523207404294315,39,4,-4,-3,-3,-2,2,2
1523207404301642,0,-1,4,1,-3,0,1,-17
1523207404301642,-108,-16,-6,0,-2,-3,-7,-15
1523207404317657,40,7,-7,-1,0,-1,-8,-1
1523207404317657,12,4,-6,-2,1,-1,-4,32
1523207404319382,12,1,1,2,-1,-3,-5,-29
1523207404319382,29,6,1,-5,-2,-4,-24,-24
1523207404340699,51,3,-2,-4,-3,-3,21,2
1523207404340699,1,-6,-4,6,2,-2,-8,-30
1523207404341440,40,13,-6,-5,-2,-3,-3,4
1523207404341440,-43,17,-9,0,0,-1,-7,-12
1523207404354476,-128,-27,-11,-6,-5,-6,-17,-16
1523207404354476,45,5,3,6,4,0,8,-1
1523207404361494,49,20,-5,1,-3,-3,3,26
1523207404361494,-22,-2,1,-1,-2,-2,12,-4
1523207404377784,13,-3,11,3,-1,-2,-14,4
1523207404377784,-28,12,4,-5,-4,-1,1,1
1523207404379540,-12,-12,1,1,0,0,-12,-3
1523207404379540,-50,2,6,0,-2,-2,8,-8
1523207404400906,49,-2,3,1,0,0,-11,16
1523207404400906,-106,-20,-9,-1,-1,-2,-6,-27
1523207404401604,91,17,-3,0,2,-1,-5,6
1523207404401604,-74,-23,3,1,2,4,22,-18
1523207404414940,35,2,-11,-11,-6,-3,-8,-10
1523207404414940,49,2,2,3,0,-1,-5,-31
1523207404421652,-29,5,2,-2,-2,-2,6,21
1523207404421652,39,2,3,2,0,-1,-4,9
1523207404437696,-8,-1,-7,-2,-1,2,16,-5
1523207404437696,31,12,1,2,1,1,-2,19
1523207404438698,-67,-18,-1,-2,-1,0,-6,-12
1523207404438698,-45,3,2,1,2,-1,-10,-28
1523207404460010,29,5,7,0,-1,1,17,-31
1523207404460010,-76,-19,-11,-12,-6,-5,-5,-38
1523207404461760,34,10,3,2,5,3,-3,6
1523207404461760,18,5,6,1,0,0,-14,-4
1523207404475065,-32,-12,-7,-4,-4,-2,4,52
1523207404475065,-7,6,-1,-3,-3,-4,-9,-5
1523207404481927,4,-9,-1,0,-2,-2,-1,-1
1523207404481927,26,-5,-1,0,-1,-1,-3,8
1523207404498136,-13,2,1,-3,3,2,0,-10
1523207404498136,17,-7,5,4,-2,2,0,9
1523207404498857,-46,-9,6,-6,-5,-5,-4,11
1523207404498857,76,4,-13,-7,-3,0,10,-11
1523207404520228,-23,1,2,6,1,-2,-7,7
1523207404520228,1,12,2,2,1,0,4,19
1523207404521918,12,-8,-2,-3,-3,-1,5,-3
1523207404521918,-25,-13,9,1,1,2,-1,-1
1523207404534221,11,7,2,-2,-2,-3,-4,-17
1523207404534221,17,1,-5,3,2,3,2,34
1523207404542975,2,4,-7,-1,-3,2,-4,-41
1523207404542975,5,-17,-2,-7,-5,-5,8,4
1523207404558255,16,-11,-3,0,-1,-3,-5,-21
1523207404558255,-7,-18,0,2,0,-4,-7,2
1523207404559016,2,-3,-6,-3,-4,-1,-4,3
1523207404559016,8,3,-8,0,-1,0,-7,10
1523207404580335,-63,-4,0,-1,0,-1,2,-25
1523207404580335,-1,5,3,2,-1,0,5,7
1523207404582081,16,-9,1,-1,1,1,1,8
1523207404582081,-56,-10,-1,-3,-5,-6,-2,5
1523207404594111,22,0,4,1,1,3,4,58
1523207404594111,18,9,-4,-1,0,-1,-3,-5
1523207404603138,44,-4,-7,0,2,1,0,18
1523207404603138,-23,-11,20,1,2,5,-6,-8
1523207404618253,53,9,-1,-9,-6,-2,-6,-33
1523207404618253,62,5,-7,-1,-1,-3,2,-8
1523207404619177,-33,-2,1,-3,-5,-6,8,30
1523207404619177,119,12,1,7,0,-3,0,28
1523207404640483,1,1,4,0,0,2,1,-1
1523207404640483,89,0,5,-4,-2,-4,-9,-37
1523207404641239,-64,-7,1,4,3,3,1,-14
1523207404641239,22,10,-6,-2,0,1,4,9
1523207404653347,-12,4,-4,2,3,1,-2,-5
1523207404653347,-4,-5,8,-5,-4,1,5,16
1523207404662595,8,6,1,0,-4,-4,-2,-3
1523207404662595,26,-9,-3,-1,1,3,1,33
1523207404677333,-43,10,-2,-4,-5,-6,-27,-12
1523207404677333,-87,-13,-9,-8,-6,-2,7,3
1523207404679337,-23,-6,-1,-2,0,1,-8,-7
1523207404679337,0,-11,-10,-3,-3,-2,-6,-3
1523207404700685,44,-2,-7,1,-1,-1,8,-24
1523207404700685,-6,5,2,1,2,5,8,20
1523207404701395,9,-5,2,-7,-6,-5,-6,-9
1523207404701395,16,-2,-3,0,-1,-5,-26,-14
1523207404714558,18,-20,3,-5,-2,0,10,-17
1523207404714558,-9,4,2,7,3,-3,20,15
1523207404722692,-24,6,-4,-3,1,7,23,3
1523207404722692,51,6,-2,2,-3,-6,-7,2
1523207404737490,-6,-3,-6,-5,1,5,0,-11
1523207404737490,-15,-4,-4,-2,-5,-2,-22,11
1523207404739498,-44,-4,3,5,2,1,18,-31
1523207404739498,2,5,3,1,2,5,40,-2
1523207404760552,-19,-1,3,1,1,-3,-4,18
1523207404760552,-15,-4,-3,-3,-2,-3,3,-8
1523207404761555,-20,0,-1,2,0,1,-9,9
1523207404761555,-48,-8,5,-2,-1,1,12,6
1523207404774612,0,7,0,1,0,3,-6,-12
1523207404774612,118,-13,3,2,3,-2,3,31
1523207404782724,-30,-26,6,-2,-6,-10,-16,-38
1523207404782724,-28,15,-1,2,-1,-1,-10,11
1523207404797845,81,7,0,2,-3,-2,1,45
1523207404797845,-84,-12,1,-6,-5,-2,-11,-28
1523207404799656,61,7,-6,4,4,0,-1,17
1523207404799656,11,5,-7,-7,-3,-4,-20,0
1523207404819907,63,-1,1,5,0,-5,-9,-26
1523207404819907,-1,8,1,5,1,3,-16,-11
1523207404827006,-15,3,-3,-3,-1,-3,-2,0
1523207404827006,-21,3,-6,-1,-2,-2,-5,-7
1523207404834042,-25,-8,-5,-4,-2,2,8,-14
1523207404834042,-16,-2,-2,-4,-3,-3,4,4
1523207404842771,22,8,4,3,1,1,-8,2
1523207404842771,75,1,-15,-14,-6,0,18,-9
1523207404858034,-22,-3,-1,2,-1,-1,5,21
1523207404858034,16,1,1,0,0,3,14,10
1523207404858815,6,-3,-11,-4,-2,-1,-7,9
1523207404858815,-19,5,2,3,0,-1,-10,-15
1523207404880920,-22,-4,-6,-4,-1,-4,-8,5
1523207404880920,40,4,-1,0,1,0,-13,-9
1523207404881880,-15,3,1,2,4,2,13,-4
1523207404881880,-1,-39,16,4,2,1,4,25
1523207404893908,-40,-8,4,1,-3,-6,-9,-27
1523207404893908,-70,-6,-2,2,-3,-7,-15,8
1523207404902940,1,-4,-4,-4,-2,-2,-6,21
1523207404902940,38,8,2,-3,-2,-5,-3,-51
1523207404918215,-31,1,2,3,2,1,13,22
1523207404918215,-18,3,0,0,-1,-2,-5,-9
1523207404918974,-11,-12,-2,-2,-3,-1,6,5
1523207404918974,-5,7,-9,0,1,-1,-16,-13
1523207404940282,-51,-5,-3,-4,-2,3,16,0
1523207404940282,-60,-4,-6,-5,-5,-6,-13,13
1523207404942035,-71,-6,4,-5,-3,-6,-22,-58
1523207404942035,-31,-1,-3,2,0,2,-1,-5
1523207404963356,-3,2,-5,1,1,0,-5,6
1523207404963356,13,0,2,-3,-3,0,0,-6
1523207404964095,46,3,-1,3,5,7,14,61
1523207404964095,-59,-12,1,-4,-2,-4,-1,-34
1523207404978280,-6,6,0,-3,-3,-3,-4,-5
1523207404978280,6,-5,2,-1,1,3,9,-6
1523207404979134,37,10,0,-5,-3,-5,-13,1
1523207404979134,9,13,-7,-3,-1,3,20,37
1523207405000462,35,-8,-11,-4,-3,-7,-12,-6
1523207405000462,-29,-9,2,-3,1,4,0,2
1523207405002194,44,0,-4,2,1,1,4,-19
1523207405002194,-24,8,1,0,1,1,9,-7
1523207405023299,-18,4,0,-2,1,0,2,9
1523207405023299,25,-3,-11,-7,-5,-3,-7,-20
1523207405024255,2,-5,0,0,-1,-3,-8,-16
1523207405024255,3,10,4,3,-2,-7,-11,8
1523207405037328,10,7,0,-5,-1,5,3,5
1523207405037328,30,11,3,5,5,1,21,8
1523207405039294,41,13,-5,-8,-2,0,-10,25
1523207405039294,20,-6,5,-1,-1,3,23,17
1523207405060351,-11,6,-3,2,-2,-3,-7,-11
1523207405060351,36,0,-9,-1,-1,-2,-16,-8
1523207405061351,56,3,5,2,1,6,28,47
1523207405061351,-84,-12,4,4,-3,-6,-21,-12
1523207405082687,-1,-4,9,1,-1,-3,-6,-35
1523207405082687,-54,-6,0,-1,-2,1,18,14
1523207405084415,48,3,-3,2,0,3,-2,-2
1523207405084415,7,-4,-8,-13,-2,3,-4,8
1523207405105707,13,-5,-1,1,-1,4,2,44
1523207405105707,24,20,0,2,-3,-8,2,-33
1523207405106474,-56,-9,5,7,1,-2,-6,-25
1523207405106474,87,5,1,-8,-1,-4,-24,7
1523207405120508,-8,2,3,-1,-1,-2,20,2
1523207405120508,-41,-9,-2,-6,-3,2,0,39
1523207405121511,-124,-11,1,4,-1,-4,-11,-4
1523207405121511,-65,18,-8,-2,-4,0,7,-3
1523207405142801,-24,-9,6,-1,2,-1,-19,-16
1523207405142801,7,-11,14,2,1,1,-1,1
1523207405144574,24,-6,-3,-6,-4,-2,-2,3
1523207405144574,18,0,-6,5,-1,-4,-14,6
1523207405157607,-5,0,-7,4,1,-1,1,-2
1523207405157607,-6,8,-7,5,1,0,3,22
1523207405163935,95,5,4,0,-1,-1,-2,-7
1523207405163935,-33,-17,2,5,0,4,21,-11
1523207405180867,32,5,-13,-3,0,-2,0,-9
1523207405180867,-10,-10,9,-1,1,2,-10,-7
1523207405181673,-40,-5,-11,-4,-3,-5,-11,4
1523207405181673,103,5,-2,2,2,-2,-5,-8
1523207405202927,-51,-11,-2,1,-1,-2,-6,-25
1523207405202927,19,-2,-4,-4,-3,-1,11,22
1523207405204732,-37,-1,-1,-5,-3,0,-3,16
1523207405204732,-3,-3,2,1,-3,-4,-12,-7
1523207405217067,13,6,5,2,1,3,8,15
1523207405217067,-11,3,-7,-1,1,1,-10,-18
1523207405224034,13,-9,3,3,3,4,19,-9
1523207405224034,-15,-22,-6,-6,-8,-10,-4,8
1523207405240064,-1,-1,0,-2,2,0,2,14
1523207405240064,20,12,-5,-2,-3,0,2,11
1523207405241832,-80,-13,-8,-6,-3,-2,15,-24
1523207405241832,6,2,-3,-6,-2,-3,-11,-26
1523207405263189,1,-6,1,-2,-6,-3,-1,1
1523207405263189,2,-5,6,1,0,-2,-6,-6
1523207405263891,8,-4,-2,-1,-1,-2,-14,7
1523207405263891,41,3,-1,2,2,3,9,32
1523207405276926,-75,-7,-2,-2,-6,-5,-12,-18
1523207405276926,18,5,-3,1,2,-4,-23,15
1523207405284250,21,13,12,3,2,4,29,-27
1523207405284250,-27,8,5,-4,4,9,5,-23
1523207405300255,-41,-6,-3,-8,-4,-8,-24,-23
1523207405300255,-29,-10,-10,-3,-8,-7,5,-10
1523207405301993,12,4,1,-2,-1,-6,-16,-14
1523207405301993,-24,0,0,3,-1,0,1,5
1523207405323319,-19,-1,4,3,2,2,9,15
1523207405323319,13,5,-3,-7,-3,0,2,-18
1523207405324051,15,3,-8,0,-2,-4,-10,-2
1523207405324051,-1,1,1,1,1,1,8,5
1523207405337123,20,-20,3,0,1,4,-3,-1
1523207405337123,6,2,4,5,5,5,10,-3
1523207405344309,-97,-25,-8,-9,-8,-9,-12,-22
1523207405344309,10,5,0,0,-1,-1,1,-3
1523207405360147,37,9,1,-8,-6,-4,8,2
1523207405360147,-41,-1,-2,-2,-1,-2,-2,-12
1523207405362150,58,3,11,3,1,0,4,38
1523207405362150,0,-5,1,2,1,0,-3,18
1523207405383478,-38,1,-7,-3,-1,-2,-2,-3
1523207405383478,-10,-3,-2,-2,0,1,0,10
1523207405384213,-2,8,-3,-1,-1,5,10,2
1523207405384213,-2,-9,-3,-3,-1,-3,-8,0
1523207405397552,49,12,-2,0,-1,-3,13,10
1523207405397552,16,-12,2,3,4,4,1,-25
1523207405403263,-80,-28,-7,-2,-5,-1,-20,-62
1523207405403263,80,20,-5,3,-2,-7,-12,21
1523207405420343,56,-14,-5,-5,-3,2,23,-19
1523207405420343,17,-11,3,-1,-7,-12,-21,-72
1523207405421309,33,1,-8,-4,2,0,-5,37
1523207405421309,-50,7,1,1,1,2,0,-37
1523207405442592,-20,7,-3,2,1,1,-9,17
1523207405442592,16,6,-6,-1,0,0,8,28
1523207405444371,14,-6,1,3,2,-1,-8,5
1523207405444371,-3,18,10,0,1,3,5,3
1523207405456731,52,4,-3,-2,2,2,-9,-6
1523207405456731,18,-1,-3,-5,2,2,1,-10
1523207405465429,12,5,0,-2,-4,-4,-6,34
1523207405465429,21,-29,10,2,0,0,11,-33
1523207405480783,-57,-5,-10,0,-5,-5,-8,-18
1523207405480783,4,1,-4,-2,-3,-2,-1,13
1523207405481470,18,13,1,3,2,1,9,-45
1523207405481470,18,-1,-5,-6,-3,-2,6,25
1523207405502665,14,4,3,4,4,3,-9,24
1523207405502665,13,0,4,0,-1,1,-1,-1
1523207405504529,-61,-2,-1,2,2,-3,0,-9
1523207405504529,41,-3,3,0,1,3,-5,18
1523207405516865,-69,-15,3,0,0,-2,-8,-21
1523207405516865,-43,-2,3,-4,-6,-8,-10,41
1523207405525592,49,-1,-11,-4,-6,-2,-4,-8
1523207405525592,3,0,-7,-6,-2,1,1,22
1523207405540784,59,1,11,0,-1,-1,8,7
1523207405540784,33,3,-1,0,1,2,6,-2
1523207405541629,-94,-6,2,1,-1,0,-8,-3
1523207405541629,-32,-7,-7,0,0,-2,-4,2
1523207405562958,21,14,-1,-2,-1,2,9,-2
1523207405562958,0,0,-7,-1,-1,2,5,-7
1523207405563689,95,8,4,-1,-2,-2,0,76
1523207405563689,7,20,-10,-10,-10,-8,-19,-77
1523207405577041,-8,-9,-2,-2,-3,-4,-20,2
1523207405577041,-30,6,3,2,1,-4,2,26
1523207405585749,23,6,-11,-5,-1,0,-11,-7
1523207405585749,-26,-10,-2,0,-1,2,15,28
1523207405600900,0,-2,0,-3,-5,-3,-8,-14
1523207405600900,1,-5,-6,-2,-3,-1,21,-8
1523207405601790,-19,-2,5,2,5,3,8,6
1523207405601790,-30,-13,4,5,-3,-6,-14,-24
1523207405623172,55,-12,-4,-1,0,4,23,-10
1523207405623172,28,-6,-4,-4,-1,0,5,14
1523207405623847,-15,2,11,-2,-1,-4,-4,2
1523207405623847,62,6,-8,2,0,-2,6,-23
1523207405635925,-20,1,5,3,-1,-2,-1,9
1523207405635925,-7,-9,-4,-3,-3,-4,-10,7
1523207405645180,21,6,-5,2,0,1,-2,-19
1523207405645180,17,5,0,5,3,5,13,35
1523207405660177,38,-3,2,-6,-1,0,-1,20
1523207405660177,-24,3,-1,-2,-2,-3,-15,-32
1523207405661949,-29,-8,-6,-2,-1,3,24,5
1523207405661949,16,-3,-5,3,1,-3,-17,23
1523207405683294,-30,4,-6,-3,-1,-4,-7,-18
1523207405683294,-8,-2,8,3,0,-4,-10,-39
1523207405684007,-7,-19,-5,-3,-3,0,-15,-37
1523207405684007,-21,18,5,2,1,-2,-2,7
1523207405696309,-18,-27,6,-3,1,2,4,14
1523207405696309,41,-2,-6,-6,-2,-4,-22,-16
1523207405705197,-17,-2,2,-3,-4,-3,5,-11
1523207405705197,-25,-3,-8,-10,-5,-4,-13,-26
1523207405720140,-41,8,-2,5,2,1,-12,-4
1523207405720140,-41,1,1,0,-1,4,20,5
1523207405722107,35,4,-3,-2,-1,-4,-21,-3
1523207405722107,41,-3,3,-1,0,2,7,52
1523207405742414,65,17,-3,0,-2,-5,11,-26
1523207405742414,2,-7,-2,-1,0,1,-18,9
1523207405744165,-62,0,-2,0,-1,-2,35,2
1523207405744165,10,-9,-5,-2,-4,-2,-9,-2
1523207405756489,17,0,0,6,2,2,-3,26
1523207405756489,31,8,-1,-1,2,3,8,8
1523207405765222,21,0,-4,0,-1,0,6,11
1523207405765222,36,-7,-4,-3,-1,0,-1,-7
1523207405780553,-38,1,2,-4,-4,-5,-9,16
1523207405780553,-7,1,5,3,1,4,20,8
1523207405781267,-19,3,-7,-6,-4,-6,-28,-56
1523207405781267,-9,-2,4,1,3,3,11,24
1523207405802432,-9,5,-3,-1,-2,-3,0,-3
1523207405802432,126,-4,-1,-5,-2,0,-3,8
1523207405804326,107,3,8,-2,-1,1,-6,41
1523207405804326,-18,6,-3,-2,-2,-3,7,-31
1523207405816616,39,7,-4,1,3,2,9,8
1523207405816616,-9,-4,7,6,2,-1,-11,27
1523207405825385,7,-12,-14,-2,0,1,-1,-43
1523207405825385,-49,-6,7,-4,1,-1,15,-2
1523207405840681,-31,0,-1,0,-2,-4,-2,-19
1523207405840681,-25,2,-4,-2,-7,-8,-5,-29
1523207405841426,31,2,-5,-2,-3,0,8,57
1523207405841426,-44,-10,2,0,1,1,-8,8
1523207405862753,-11,-6,-5,-3,1,0,-5,-17
1523207405862753,-9,3,-4,5,2,1,-3,14
1523207405864489,-33,-4,-1,-1,0,-2,-14,-39
1523207405864489,-47,-3,0,-1,-1,-4,0,-6
1523207405876520,58,12,1,1,-1,0,13,24
1523207405876520,10,-10,-10,2,2,2,-10,5
1523207405885543,-49,-1,12,0,1,2,-2,1
1523207405885543,25,-9,-1,-3,-4,-6,-16,4
1523207405900859,-25,-9,-2,-1,-2,0,0,-17
1523207405900859,-36,2,4,1,1,1,8,40
1523207405901586,10,3,2,0,3,1,19,-17
1523207405901586,-12,12,-6,0,-1,-2,-10,4
1523207405922891,-26,-6,0,-1,-2,2,3,2
1523207405922891,-14,-5,-3,-14,-3,0,9,-22
1523207405923649,-53,33,5,4,4,4,7,3
1523207405923649,49,3,-2,1,-2,-3,6,-39
1523207405945881,-14,-3,-8,-6,-7,-6,-23,24
1523207405945881,-31,-6,4,0,-2,-1,-3,-46
1523207405946706,-56,-12,0,-8,-4,-10,-18,-17
1523207405946706,-14,-4,4,3,5,6,19,-9
1523207405959740,-8,-13,0,2,0,1,-2,4
1523207405959740,12,1,-3,1,1,2,8,10
1523207405961745,43,4,-1,-1,-2,-4,-10,34
1523207405961745,7,-6,-16,-8,-4,-2,-14,-29
1523207405983088,-32,-4,-7,2,2,7,18,-9
1523207405983088,-10,-2,0,2,-1,-5,-19,-41
1523207405983803,26,-10,0,-7,-10,-12,-14,15
1523207405983803,-8,-2,2,4,0,-2,-3,20
1523207406005120,7,1,1,-1,3,-1,5,-3
1523207406005120,53,0,-4,-1,-2,-3,0,10
1523207406006865,62,9,-6,1,1,6,13,15
1523207406006865,45,1,8,3,1,-4,4,25
1523207406018944,-1,4,1,-1,-1,-4,-17,-14
1523207406018944,-1,8,0,-3,-4,-3,-2,-6
1523207406027003,-5,-4,3,-3,-3,-2,-14,0
1523207406027003,-16,-14,5,-1,-2,3,18,-2
1523207406043225,33,3,-1,0,-1,0,-9,7
1523207406043225,-86,-7,1,-4,0,-1,5,-1
1523207406043965,-7,-4,-5,2,-2,0,13,22
1523207406043965,-91,-13,-5,-5,-4,-7,-19,-66
1523207406065284,87,18,8,3,1,-1,-4,30
1523207406065284,-60,-8,1,-3,1,4,20,-11
1523207406067026,15,-1,-3,0,-1,-5,9,14
1523207406067026,-69,-3,-1,1,-1,2,-1,33
1523207406080200,-3,4,-1,-1,0,1,11,7
1523207406080200,89,15,-2,-2,0,-3,-16,23
1523207406086074,-21,-6,5,1,-1,0,2,-18
1523207406086074,33,15,-6,-3,0,0,-4,17
1523207406103119,19,-9,2,-5,-2,-1,2,-22
1523207406103119,13,9,2,-1,-3,0,-7,-5
1523207406104121,-64,-12,-4,1,3,6,1,-5
1523207406104121,5,-3,-5,-5,-6,-6,-3,-1
1523207406125449,-7,-15,-4,-9,-4,-5,-8,-45
1523207406125449,-74,-6,1,7,3,-3,-9,-39
1523207406126182,16,-5,-7,-3,-2,-2,16,14
1523207406126182,49,7,-2,4,2,5,2,40
1523207406139482,-28,-1,2,2,0,-1,-3,-10
1523207406139482,9,-4,-4,-6,-5,-2,10,13
1523207406146504,65,4,-4,2,2,3,-9,-1
1523207406146504,-79,-4,2,-2,-1,-5,-11,0
1523207406163564,-16,3,-4,0,-3,-3,5,19
1523207406163564,72,3,-4,0,-4,-4,-9,12
1523207406164285,33,13,6,0,1,2,0,12
1523207406164285,-53,-29,-1,0,-1,1,14,-13
1523207406185417,-93,-34,0,-4,0,-2,-38,-14
1523207406185417,-34,-1,2,3,0,0,3,7
1523207406186343,19,3,-4,-2,-2,-1,2,38
1523207406186343,-21,-2,-4,-1,-2,-3,-12,-27
1523207406199629,-1,1,0,0,0,1,1,2
1523207406199629,60,-3,-5,-4,-2,-2,-3,44
1523207406214447,-108,-17,6,2,2,1,-14,-39
1523207406214447,98,8,2,-2,-2,-1,10,32
1523207406222686,1,5,-3,5,-1,-2,4,-54
1523207406222686,-58,-2,-3,-7,-4,-7,-10,-22
1523207406224443,69,7,2,-2,0,2,-2,-37
1523207406224443,51,7,4,-1,-2,-1,7,-5
1523207406245740,-9,-4,-9,0,1,0,-2,9
1523207406245740,5,-3,5,-1,-3,1,15,5
1523207406246501,-11,-4,-5,-2,2,1,-10,1
1523207406246501,87,20,3,-2,-1,2,-9,-13
1523207406259537,-6,5,-9,-4,-1,-6,16,10
1523207406259537,-12,-18,8,4,4,4,-7,-2
1523207406266861,8,6,1,0,-1,-1,-5,36
1523207406266861,-71,-11,-5,-5,-6,-5,-9,9
1523207406282876,26,10,3,2,-3,2,18,35
1523207406282876,4,35,-7,-2,0,-1,-4,-14
1523207406284601,-1,-7,2,-2,-5,-5,9,-5
1523207406284601,-75,-1,2,1,2,2,-6,-11
1523207406305898,40,6,-3,-4,-5,-3,-20,-63
1523207406305898,-24,-10,8,0,-1,0,10,4
1523207406306664,-23,1,4,3,-1,1,22,20
1523207406306664,-14,4,-2,-1,1,3,7,-20
1523207406319733,15,4,0,-1,0,-3,-8,-7
1523207406319733,6,-7,9,7,2,0,-6,42
1523207406326797,-32,-4,-2,1,-3,-4,-10,-33
1523207406326797,49,-2,-1,0,-1,4,3,15
1523207406342758,-20,1,0,-5,-5,-2,6,34
1523207406342758,-1,-5,-6,-1,0,-1,1,-15
1523207406343760,-2,1,0,2,-2,-2,-3,-8
1523207406343760,-25,-16,4,1,-1,-1,-1,6
1523207406365085,8,4,-1,-6,-1,0,3,-4
1523207406365085,77,5,-9,-4,-3,-4,-13,10
1523207406366823,-45,-26,-6,-5,-1,-3,-19,-69
1523207406366823,-37,8,0,0,0,-4,18,-11
1523207406380110,74,-7,-9,-2,-1,3,2,46
1523207406380110,-27,-6,-3,-4,-2,3,16,-20
1523207406385874,1,8,-5,-1,-3,-6,-19,-15
1523207406385874,5,0,1,-5,-4,-4,-7,-2
1523207406402954,-20,4,4,2,0,-1,-4,10
1523207406402954,29,3,-3,4,2,4,10,19
1523207406403920,-4,4,-12,-2,1,5,5,22
1523207406403920,-77,-17,-9,1,-2,-1,12,-23
1523207406425256,0,5,10,-2,-1,-3,-9,-7
1523207406425256,-60,-2,-11,-1,-3,0,-10,0
1523207406426980,7,2,2,-5,-3,-5,5,31
1523207406426980,108,-1,4,2,2,-1,-16,-5
1523207406439298,71,-1,-2,2,3,4,25,-6
1523207406439298,-63,-6,0,-6,-4,-5,5,-52
1523207406448040,-16,-4,-2,0,0,2,-1,4
1523207406448040,2,12,1,-5,-2,-2,-10,2
1523207406463226,-22,-19,-4,-1,-5,-6,-14,-8
1523207406463226,-5,-5,-1,1,0,-2,-5,9
1523207406464083,27,8,-3,2,-2,-1,9,0
1523207406464083,5,1,3,-1,-3,-2,-18,-17
1523207406492419,-40,4,11,9,2,1,3,-2
1523207406492419,-1,3,-6,-4,-4,-2,13,11
1523207406494158,36,4,5,1,1,1,-20,-10
1523207406494158,-22,-12,-18,-2,-3,-5,28,24
1523207406499458,-5,2,2,-1,0,2,-3,1
1523207406499458,-15,2,1,-2,-1,-1,-1,-12
1523207406508197,52,2,-1,-2,1,2,10,-3
1523207406508197,-50,2,2,-1,-3,-5,-21,19
1523207406522311,17,-2,2,-2,0,3,12,12
1523207406522311,-23,-2,-1,0,-1,-1,10,-11
1523207406530257,-9,0,1,-3,-1,-5,-4,-11
1523207406530257,1,-1,-5,1,-1,3,3,-14
1523207406545598,-29,-9,-10,-2,-1,0,-4,23
1523207406545598,-14,-3,-5,-9,1,4,0,-5
1523207406546297,21,-3,5,-2,-3,-1,3,48
1523207406546297,106,8,1,1,-2,-3,-10,-11
1523207406558572,-89,-13,-3,-6,-3,-1,-3,-4
1523207406558572,-21,-1,3,3,-2,-3,-6,-46
1523207406568356,75,2,0,-2,-5,-10,-13,43
1523207406568356,-55,5,2,-5,5,7,8,16
1523207406582666,-16,-4,-3,4,0,-2,-8,0
1523207406582666,9,-2,2,1,2,1,-6,7
1523207406584402,-44,1,-1,-5,-1,0,-1,-32
1523207406584402,-1,-11,3,3,1,-3,4,3
1523207406605741,-1,7,-5,-7,-3,-2,1,1
1523207406605741,36,11,2,0,-2,-3,-2,7
1523207406606460,30,-4,-2,-1,-2,0,9,43
1523207406606460,42,-1,0,-4,-4,-5,-7,-1
1523207406618491,-18,-4,-1,-1,0,0,3,-7
1523207406618491,40,1,-1,2,2,-4,-14,-20
1523207406627769,-17,9,2,0,1,1,-9,-10
1523207406627769,-45,-11,-4,-8,-4,-1,14,-5
1523207406642555,36,-2,-5,-6,-6,-7,-3,-8
1523207406642555,25,0,1,3,0,1,-8,-9
1523207406644559,-74,-9,-7,-1,-3,-1,14,28
1523207406644559,-2,11,-2,2,0,-2,-13,-15
1523207406665908,7,-4,5,1,3,-1,-9,-8
1523207406665908,1,-2,-11,-10,-3,1,8,19
1523207406666619,-58,-11,5,2,-1,0,-1,-45
1523207406666619,-85,-13,-5,-3,-4,-1,-4,-11
1523207406678915,-7,3,0,0,-4,-7,-1,0
1523207406678915,8,-2,4,-3,1,0,-11,-12
1523207406687673,-16,-10,4,6,7,8,24,-14
1523207406687673,14,2,1,3,2,0,-18,-7
1523207406702750,5,4,-6,-5,-3,-2,-10,-35
1523207406702750,-21,-2,2,-3,-4,-5,8,11
1523207406703718,-39,-15,-13,-2,1,0,0,-3
1523207406703718,58,-13,6,5,3,-1,-1,18
1523207406725022,31,9,-5,-3,-1,1,-3,5
1523207406725022,-17,-6,0,2,1,1,-11,23
1523207406726779,9,5,1,0,-1,-2,-7,-1
1523207406726779,25,4,-7,-7,-4,-3,-5,-49
1523207406739065,-41,-5,-1,0,-2,-2,-7,18
1523207406739065,-59,-37,1,4,1,-3,-5,22
1523207406747835,-8,14,4,-4,-1,-2,-9,-21
1523207406747835,-15,-2,0,-4,-1,1,7,24
1523207406769894,-8,-1,9,4,0,-1,-5,2
1523207406769894,51,14,-6,-1,0,0,7,-17
1523207406771898,74,-4,-4,-4,-3,-4,-16,23
1523207406771898,-54,4,-4,2,0,3,19,2
1523207406784954,18,-5,2,1,1,-1,2,21
1523207406784954,-17,-3,0,-3,-1,1,-5,14
1523207406786937,22,0,-6,-3,-2,-1,22,11
1523207406786937,4,8,0,-3,-1,-5,-12,0
1523207406799252,-7,1,-2,0,0,4,10,-12
1523207406799252,-19,10,-6,-2,-3,-4,-17,-89
1523207406807995,-92,-2,1,-7,-4,-2,11,-6
1523207406807995,-16,-15,5,3,1,0,-4,8
1523207406823267,-31,-1,-2,3,0,-3,4,-13
1523207406823267,41,5,5,-6,-3,-1,1,25
1523207406824037,13,5,5,0,-1,-1,-20,-40
1523207406824037,53,10,0,6,2,2,6,-1
1523207406845094,-29,-7,3,-2,0,3,3,8
1523207406845094,-10,2,-4,0,-5,-7,-4,4
1523207406847097,17,-3,4,2,0,0,2,-10
1523207406847097,-76,-2,3,0,2,5,27,21
1523207406868201,84,7,-2,-3,1,0,-3,-6
1523207406868201,11,-2,2,-3,-1,4,-2,72
1523207406869158,-7,-1,-1,-2,-5,-8,-20,5
1523207406869158,6,-5,-5,-1,-1,-2,-8,10
1523207406883436,9,15,0,5,0,0,2,4
1523207406883436,-11,-4,-2,-3,-1,1,12,3
1523207406884201,45,-1,-8,-1,-3,-1,-13,14
1523207406884201,-3,1,0,-2,-1,-1,13,2
1523207406905521,81,25,-2,0,0,1,0,33
1523207406905521,-53,3,0,3,4,-2,-14,-22
1523207406906258,16,-5,-2,1,-1,1,9,3
1523207406906258,2,-5,6,-8,-2,-3,-14,-13
1523207406927582,-7,-9,-4,-4,-2,0,7,0
1523207406927582,9,2,-1,2,1,0,2,46
1523207406929317,-4,8,5,2,1,-2,1,-45
1523207406929317,5,-1,-8,0,-4,-5,-8,16
1523207406942351,52,2,13,3,3,5,1,32
1523207406942351,6,-7,-2,-3,-5,-4,3,1
1523207406944356,42,5,4,-1,1,1,0,12
1523207406944356,27,4,-6,-2,-3,-2,2,-5
1523207406965680,-38,-5,-7,-2,-1,2,5,8
1523207406965680,-25,-14,-1,-3,-3,-3,0,-37
1523207406966414,-42,-2,-6,-2,-1,0,1,-20
1523207406966414,71,-6,-8,-1,-1,-1,-10,1
1523207406987675,-19,-5,-4,-2,-1,0,1,17
1523207406987675,-30,1,-3,-5,-3,-2,-5,-81
1523207406989474,-31,-6,2,1,-1,0,-1,7
1523207406989474,-4,-13,2,-1,1,0,-1,-4
1523207407001506,8,-3,-1,-1,-5,-6,-10,-39
1523207407001506,40,-1,1,-1,0,3,10,44
1523207407008527,-31,-2,7,3,2,2,-1,14
1523207407008527,-6,-1,2,-3,-5,-1,-15,-42
1523207407024833,52,3,1,5,0,-4,-5,-2
1523207407024833,-61,-12,8,-2,-1,1,1,-9
1523207407026573,-49,-9,-4,0,-4,-1,5,37
1523207407026573,30,-4,0,1,0,0,7,8
1523207407047888,-36,-3,-6,-8,-5,-4,1,-7
1523207407047888,48,10,-2,8,4,1,-5,-9
1523207407049638,-51,-1,-6,-4,-2,-2,8,-14
1523207407049638,-21,-6,-5,-5,-7,-9,-28,-8
1523207407061924,-64,-11,-1,-1,0,0,22,6
1523207407061924,40,9,-2,3,1,1,-4,-9
1523207407068685,-48,-5,2,-2,-2,-2,-13,-38
1523207407068685,-1,3,-1,3,3,4,16,69
1523207407084749,60,10,3,-1,0,4,-2,-6
1523207407084749,15,1,-4,-4,-5,-5,-4,7
1523207407086733,40,-4,1,3,0,-2,-2,-3
1523207407086733,42,0,-3,-2,1,4,5,9
1523207407108022,-73,-4,-5,-2,0,1,-3,34
1523207407108022,18,4,2,0,-4,-7,-11,-50
1523207407108794,34,10,-18,-6,-3,0,-1,-6
1523207407108794,-31,5,6,1,-4,-14,-26,-94
1523207407122067,-16,-17,-3,-4,1,-1,-2,16
1523207407122067,31,16,4,-2,-2,1,14,28
1523207407129115,6,-5,-14,-5,-4,-6,23,14
1523207407129115,-27,3,0,5,5,5,-5,20
1523207407145157,8,10,3,1,-3,-4,-7,-21
1523207407145157,-32,-10,-2,-9,-3,-2,-11,22
1523207407146896,-23,3,1,1,2,4,5,-2
1523207407146896,24,6,13,1,1,0,-3,7
1523207407167991,-34,-12,0,-1,-2,-4,-15,-28
1523207407167991,-4,-2,-7,2,1,1,6,1
1523207407168954,38,3,-10,1,-3,-2,-5,17
1523207407168954,-37,-14,14,-4,-1,3,7,24
1523207407182235,-63,0,-12,-2,-1,-4,-7,-63
1523207407182235,-65,-14,2,1,0,3,1,-57
1523207407189270,17,-5,4,1,1,0,5,31
1523207407189270,-7,5,-8,1,-2,-3,-1,-54
1523207407205324,-62,-14,-6,-2,-2,2,13,22
1523207407205324,54,2,1,2,-2,-4,-22,-5
1523207407207054,30,9,2,3,4,6,15,0
1523207407207054,18,0,-7,-2,-3,-4,-14,21
1523207407228183,-10,-3,4,-2,0,3,11,-20
1523207407228183,69,3,-6,2,-2,-5,-15,16
1523207407229112,43,4,5,3,4,2,6,1
1523207407229112,6,4,-9,1,2,0,3,-1
1523207407242428,11,3,1,0,-3,-2,-9,-22
1523207407242428,1,-5,8,5,3,1,7,47
1523207407249451,48,-9,1,-4,-2,-4,-23,6
1523207407249451,-87,-3,-10,-3,-9,-7,0,-36
1523207407265477,31,3,4,-1,0,2,-1,-2
1523207407265477,-47,1,-5,-8,-6,-3,2,18
1523207407266214,10,0,3,1,0,1,-2,-10
1523207407266214,10,-9,4,-1,-3,-4,-3,27
1523207407288268,54,-2,1,2,2,-2,-23,33
1523207407288268,13,16,-6,0,0,2,9,-2
1523207407289272,-26,-12,3,-6,-3,-2,-18,-40
1523207407289272,-6,-3,-7,-1,1,5,27,25
1523207407302306,-46,-11,0,-3,-2,-4,-9,-33
1523207407302306,49,9,-6,-5,0,0,10,5
1523207407308553,-42,3,7,4,0,1,-1,-14
1523207407308553,121,6,3,1,1,2,-3,16
1523207407325369,-31,3,-2,0,-3,-4,-8,-15
1523207407325369,-33,-6,-1,0,-1,0,12,-8
1523207407327375,13,2,1,-2,-1,-1,-8,-1
1523207407327375,-65,-10,-1,-3,0,-1,-2,-13
1523207407347695,26,-14,4,4,0,3,13,43
1523207407347695,-64,-37,-11,1,0,-3,-12,2
1523207407349434,25,-4,-4,-6,-6,0,7,6
1523207407349434,55,1,-2,-1,1,1,6,-5
1523207407361762,27,9,0,-8,-3,-2,-3,-15
1523207407361762,9,-6,2,0,-2,-2,1,0
1523207407370487,-27,-2,-9,-3,-5,-2,-3,-4
1523207407370487,14,-4,0,-2,-4,-5,-11,0
1523207407385526,42,1,-3,-4,-2,1,19,37
1523207407385526,-37,-5,4,-2,-1,-1,2,-44
1523207407386530,31,11,1,2,2,-4,-4,20
1523207407386530,-32,11,-10,-2,3,4,12,-26
1523207407407824,96,-6,-5,-4,-4,-2,-8,11
1523207407407824,-27,4,-2,-1,-2,-5,-6,27
1523207407409593,-24,-3,-1,-5,-5,-2,-3,-18
1523207407409593,25,-1,-5,0,1,3,-8,9
1523207407421915,-7,8,2,3,-1,-1,-7,-42
1523207407421915,41,-4,-7,-4,1,3,13,8
1523207407430652,-16,-29,4,-2,-3,-2,-7,-4
1523207407430652,17,-2,2,-1,1,0,-10,26
1523207407445858,-88,-16,0,-4,-5,-6,-6,-79
1523207407445858,31,1,6,0,-1,-2,-10,16
1523207407446691,47,13,-13,-6,-1,4,42,53
1523207407446691,-123,-17,-2,-5,-6,-7,-10,34
1523207407467746,25,13,5,4,-1,-3,-7,-1
1523207407467746,25,10,-2,0,2,2,2,-14
1523207407468751,-17,-7,-5,0,0,-5,-25,-23
1523207407468751,38,15,1,0,-5,-4,-3,-5
1523207407482021,28,10,-3,0,-1,1,0,36
1523207407482021,16,-6,-9,-5,-4,0,5,-6
1523207407490071,-71,13,5,4,3,3,-8,-10
1523207407490071,41,-2,3,-5,3,3,-1,7
1523207407505110,-44,-2,-8,1,-2,-6,-10,-4
1523207407505110,-13,15,-2,0,-3,-3,-8,-37
1523207407506852,18,-4,-6,1,-1,-4,-3,5
1523207407506852,-31,10,5,2,2,3,25,-14
1523207407528176,-5,-8,-7,1,-1,2,-8,84
1523207407528176,-5,4,2,-2,-1,-3,-4,14
1523207407528908,68,10,3,2,0,1,15,-11
1523207407528908,-76,-20,-5,-10,-10,-10,-33,-15
1523207407541249,12,0,-2,-4,2,1,18,12
1523207407541249,-35,-4,0,-2,0,-1,2,18
1523207407550156,17,-2,2,0,1,0,-16,-12
1523207407550156,64,5,-2,-3,-4,-1,8,12
1523207407565307,-32,2,2,-2,2,0,4,-15
1523207407565307,-8,-4,-3,2,-1,-3,-3,19
1523207407567012,-27,-13,7,-2,-4,-7,-10,-19
1523207407567012,-97,-8,-10,2,4,5,11,-15
1523207407588194,-11,1,-1,-4,-1,-3,-13,-6
1523207407588194,11,-9,14,1,-4,1,13,-35
1523207407589071,-20,-2,-3,0,0,0,-13,-1
1523207407589071,11,-6,3,-2,-3,0,2,-15
1523207407601100,47,8,-1,-1,2,0,-21,-15
1523207407601100,-10,-5,-1,0,-1,-1,3,20
1523207407610125,-2,-23,-1,-1,-1,2,13,20
1523207407610125,-26,7,1,-1,-3,-7,-5,-32
1523207407625397,28,-6,5,2,1,1,2,-5
1523207407625397,-21,-5,3,-2,2,1,-10,24
1523207407626171,-19,-8,-5,-6,-3,0,12,-28
1523207407626171,47,5,-6,1,-2,0,-14,-15
1523207407648274,-25,2,-3,-3,-1,-4,-2,21
1523207407648274,-13,0,0,-7,-4,-4,-10,-36
1523207407649228,8,-5,-6,-6,-5,-5,-9,13
1523207407649228,-14,8,2,3,3,4,-3,8
1523207407661261,-11,6,3,3,-3,1,9,-8
1523207407661261,25,1,-15,-10,-2,0,-2,-25
1523207407670285,5,14,1,-6,-3,-3,-3,24
1523207407670285,-33,-4,-5,4,1,1,13,21
1523207407685325,47,-18,2,0,-4,-4,-13,-37
1523207407685325,-7,3,4,2,0,-1,3,21
1523207407686326,2,1,1,3,0,-1,-5,27
1523207407686326,28,-1,-7,-2,0,3,15,9
1523207407708385,-2,-1,-4,-3,1,3,3,7
1523207407708385,40,3,-5,4,-3,-4,2,11
1523207407709389,-82,-3,-3,-1,1,3,-4,6
1523207407709389,30,-6,1,3,-2,-7,-12,8
1523207407721702,36,-5,-11,-4,-4,-3,-3,9
1523207407721702,6,2,-3,3,1,-2,-6,-6
1523207407730448,4,4,3,1,0,0,15,-21
1523207407730448,11,5,-3,-7,-4,-3,6,6
1523207407745753,-17,-1,6,-2,0,0,4,-4
1523207407745753,-72,-2,-12,-3,-1,0,-6,50
1523207407746487,8,0,-1,7,2,-3,8,-16
1523207407746487,15,2,4,-1,1,4,-7,-28
1523207407767542,-17,-31,2,0,-1,-3,-3,39
1523207407767542,-8,3,10,1,1,5,15,-40
1523207407769550,29,13,-5,0,-1,0,-8,13
1523207407769550,-51,-3,-4,1,2,-2,5,-5
1523207407790876,8,0,0,1,2,1,6,-7
1523207407790876,34,8,11,1,-2,-2,3,14
1523207407791609,49,4,-2,0,-1,-1,-13,-24
1523207407791609,38,-1,1,3,3,2,9,13
1523207407805841,-15,8,1,1,-3,-4,-7,-19
1523207407805841,1,-7,-4,-2,0,0,-10,12
1523207407806652,32,11,-4,-4,-2,0,20,6
1523207407806652,-68,-7,10,0,1,0,-3,-26
1523207407827967,29,3,-5,-2,-1,-1,3,-13
1523207407827967,29,-1,-4,2,1,-1,-9,14
1523207407828709,-52,-7,-4,-5,-3,-4,-2,-67
1523207407828709,53,-4,-10,-1,-4,0,-7,9
1523207407850823,-66,-15,-2,-9,-4,-4,2,-3
1523207407850823,-31,0,-3,4,2,-1,-2,-9
1523207407851766,42,9,2,1,0,2,-7,0
1523207407851766,-25,2,4,4,1,2,3,4
1523207407865108,-48,13,-7,-1,0,0,5,-4
1523207407865108,45,-8,-2,-6,-1,0,4,-1
1523207407866808,-11,1,4,4,2,-2,-11,13
1523207407866808,16,-10,-9,-12,-11,-8,-25,-36
1523207407888139,-57,-1,-3,-1,0,0,34,-22
1523207407888139,-65,-1,0,-1,-3,-2,-24,-1
1523207407888868,1,-19,3,-1,-1,-1,16,-16
1523207407888868,8,-5,4,1,1,-3,-15,8
1523207407910204,8,-4,7,0,0,3,3,26
1523207407910204,-17,-7,-6,1,1,1,9,6
1523207407911929,51,7,5,-5,-1,1,-7,6
1523207407911929,-16,-7,4,-1,-1,-2,-1,15
1523207407924220,29,2,0,-4,-4,-3,-7,5
1523207407924220,21,9,2,5,3,7,-4,-23
1523207407931979,-63,2,-3,-1,-2,-8,-30,26
1523207407931979,40,9,0,4,3,5,44,11
1523207407948276,107,9,-6,-4,-1,1,-8,16
1523207407948276,-26,-4,7,-1,-1,-5,1,-18
1523207407949026,-45,-21,1,-3,-6,-5,-14,-59
1523207407949026,-45,-2,-10,-4,-3,-6,-19,-12
1523207407970336,-14,2,-7,-1,1,1,10,-4
1523207407970336,-22,-3,-2,-3,2,1,0,-7
1523207407972087,15,3,-7,0,-1,-1,14,21
1523207407972087,49,8,5,5,1,-1,0,10
1523207407984118,-8,1,7,1,-1,-1,-4,-8
1523207407984118,23,-14,-14,-4,-3,-6,-11,-24
1523207407991138,-42,-10,6,-2,0,-1,2,28
1523207407991138,10,2,-3,-3,-1,0,1,-15
1523207408007446,15,2,-7,2,1,-4,2,21
1523207408007446,74,10,5,1,0,4,16,20
1523207408009185,-40,-7,-5,-7,-6,-5,-14,-4
1523207408009185,-8,-4,6,1,1,0,10,19
1523207408030242,-50,-24,5,2,3,5,0,-26
1523207408030242,21,-5,-1,-4,-6,-8,0,71
1523207408032329,65,4,-7,-4,2,5,14,4
1523207408032329,-34,-2,-7,-3,-3,1,-15,11
1523207408044549,-63,1,1,-1,-3,-4,-1,-22
1523207408044549,23,0,4,0,-2,-4,2,1
1523207408051299,-52,-9,-2,2,-1,0,1,-6
1523207408051299,2,8,-8,-4,0,-1,-4,5
1523207408067339,-16,-4,-5,-6,-4,-2,-14,5
1523207408067339,-50,2,1,-1,-1,0,-3,-30
1523207408069346,28,16,-3,1,-2,-4,-2,20
1523207408069346,52,5,-2,1,0,0,5,4
1523207408090665,-16,-4,5,0,3,1,-6,-45
1523207408090665,-14,3,-12,-4,1,-2,7,-24
1523207408091403,-78,-12,7,5,-1,-2,-6,4
1523207408091403,68,6,0,-2,-1,-2,1,-2
1523207408104600,105,26,-10,0,1,-1,-9,47
1523207408104600,-47,-2,-6,-5,-3,-1,-6,-17
1523207408111743,127,12,0,-3,0,5,21,6
1523207408111743,-101,-11,-1,-1,-4,-5,-12,-19
1523207408127776,9,5,7,7,2,-1,-4,20
1523207408127776,8,-8,-2,-3,-2,-2,-9,-8
1523207408129507,-8,-4,-5,-2,0,-4,-20,-11
1523207408129507,75,4,-1,-3,0,0,17,-1
1523207408149829,0,-10,-1,-2,-4,0,1,-10
1523207408149829,10,29,-1,2,-1,2,-2,-54
1523207408151562,-76,-4,6,3,5,2,3,-13
1523207408151562,-19,-10,0,0,1,-2,-15,-8
1523207408164846,-12,1,-1,3,-1,-3,5,0
1523207408164846,63,-6,4,3,-1,0,-5,-27
1523207408171862,53,10,-4,1,-1,-3,14,65
1523207408171862,-49,-4,3,3,2,1,3,-16
1523207408187886,-54,-12,-3,-5,-3,-3,-4,-12
1523207408187886,-67,-16,3,3,1,0,-16,20
1523207408188664,51,2,-12,-6,-2,0,-4,-9
1523207408188664,2,-5,-5,0,0,2,30,16
1523207408210041,3,0,2,-2,-2,-3,-1,16
1523207408210041,61,7,1,1,-1,-3,-1,9
1523207408210041,-31,4,5,3,1,0,2,-24
1523207408210041,-48,-11,-5,-4,-4,-2,-10,40
1523207408224067,18,-14,10,-1,-1,2,-5,22
1523207408224067,-13,8,-8,0,-5,-4,25,32
1523207408232052,18,-34,6,-1,4,4,-9,-20
1523207408232052,34,10,1,-4,-3,0,1,40
1523207408247114,7,3,-3,1,0,-4,-9,-17
1523207408247114,29,-1,2,0,0,0,-9,15
1523207408247822,6,3,-5,1,2,4,18,16
1523207408247822,-15,7,5,-1,0,-3,-7,-3
1523207408270138,-30,12,-5,-1,-5,-4,-14,-46
1523207408270138,20,7,-7,-5,-3,-2,-7,15
1523207408270138,19,-18,3,-1,-2,1,0,-1
1523207408270138,-2,0,-3,-3,-2,-3,-6,-40
1523207408293151,22,0,-2,2,3,-2,6,4
1523207408293151,-34,-7,1,0,-1,1,3,-3
1523207408293151,-30,7,-4,-2,-3,-4,3,-29
1523207408293151,-3,-1,1,4,2,3,-15,6
1523207408307233,13,-6,0,-4,0,4,6,-12
1523207408307233,-32,-9,-1,-3,-3,-2,1,9
1523207408307980,-40,-1,-9,-4,-5,-5,-12,-41
1523207408307980,30,-2,5,-1,-1,-4,1,-7
1523207408330186,-41,-10,-1,-4,-1,1,5,-10
1523207408330186,-48,-5,2,2,4,3,10,-18
1523207408330186,4,14,1,-5,-2,-1,-8,18
1523207408330186,-12,-6,1,0,0,-1,-25,4
1523207408344373,18,16,-7,-6,-3,-1,32,-35
1523207408344373,27,1,2,-5,-3,-6,-13,-1
1523207408352100,-35,-4,-7,-1,0,0,-3,17
1523207408352100,-11,-8,-1,2,0,1,-1,-15
1523207408367136,-12,1,-9,-6,-6,-6,-18,-3
1523207408367136,48,-1,5,4,0,0,3,9
1523207408368140,10,1,-10,-8,-4,-4,4,34
1523207408368140,30,7,-1,1,0,1,16,-9
1523207408389444,-12,-11,-3,5,3,5,-3,17
1523207408389444,24,0,-3,-3,-2,-5,4,2
1523207408390204,-101,-12,3,-3,-3,-4,-16,-9
1523207408390204,31,10,-4,-2,-2,-5,5,14
1523207408404525,-40,-25,-1,0,-1,1,-2,-8
1523207408404525,-6,-1,0,1,1,2,-5,-56
1523207408412537,-51,-12,2,-3,-1,-4,14,26
1523207408412537,-3,-4,-6,-6,-1,-1,-18,-23
1523207408427417,87,14,4,4,4,10,49,47
1523207408427417,9,-6,-7,-4,-4,-5,-17,33
1523207408434314,26,-9,5,1,-3,-2,6,13
1523207408434314,11,6,-3,0,-1,-4,-12,15
1523207408449625,-20,-21,-6,-1,-3,-5,-32,6
1523207408449625,-13,-33,-5,-8,-3,3,18,10
1523207408450358,-22,8,5,5,1,4,-10,0
1523207408450358,80,3,-3,-1,-1,-3,1,1
1523207408464522,-2,7,3,4,-1,-2,-13,32
1523207408464522,-17,3,-6,-7,-1,0,13,5
1523207408472687,15,2,2,2,3,2,1,-3
1523207408472687,34,-8,4,-2,-3,-1,-7,-47
1523207408487495,-14,7,2,-2,0,-3,-14,31
1523207408487495,-21,4,0,1,-1,0,17,-17
1523207408487495,-30,-2,-6,2,-2,-4,-17,-45
1523207408487495,-16,14,-5,-5,-5,-3,6,10
1523207408509794,14,3,5,0,-1,-4,-8,-14
1523207408509794,0,0,10,4,3,3,-11,14
1523207408510521,78,13,1,0,3,8,15,-32
1523207408510521,-41,-20,3,-1,-1,-3,-21,14
1523207408523851,0,-18,-7,-6,-6,-8,-3,-70
1523207408523851,-58,-5,-1,-2,-2,-1,-15,-3
1523207408532647,43,29,-10,1,-2,-5,16,22
1523207408532647,-27,-12,2,2,1,2,-3,-17
1523207408547615,-38,-2,0,1,0,0,3,4
1523207408547615,59,-3,-11,-2,-3,-5,-37,1
1523207408547615,59,17,2,1,1,0,13,47
1523207408547615,-65,-13,-8,-6,-5,-1,21,-17
1523207408569976,4,3,2,0,-2,-7,-13,-8
1523207408569976,7,12,-5,2,1,1,1,0
1523207408569976,-27,-9,-19,0,0,-1,-16,-1
1523207408569976,-17,-10,5,0,0,0,2,12
1523207408583712,51,11,1,-3,1,3,-1,-7
1523207408583712,10,6,1,-2,-2,-2,-12,29
1523207408591938,-1,-10,4,0,-2,1,11,-14
1523207408591938,-63,0,-11,-5,0,1,4,-10
1523207408607037,-21,-26,4,4,3,4,12,-12
1523207408607037,-20,-8,1,0,-2,-5,5,8
1523207408607779,-18,-9,-1,0,1,-1,-11,-22
1523207408607779,31,-10,17,-2,-4,-3,-5,2
1523207408630111,15,17,1,1,0,3,3,9
1523207408630111,-17,10,-1,1,1,0,10,-58
1523207408630111,105,2,9,2,1,4,15,38
1523207408630111,-41,3,-3,-5,-3,-2,4,6
1523207408653151,54,5,-9,-1,-1,-1,-16,25
1523207408653151,-32,-13,12,-1,-3,4,40,3
1523207408653151,-6,8,0,-3,-1,-5,-31,-66
1523207408653151,12,5,-1,-6,1,2,10,18
1523207408666932,-12,3,-3,-3,-3,0,1,-24
1523207408666932,32,11,-2,0,-1,-1,1,49
1523207408667935,-60,-9,1,-7,-4,-1,-2,8
1523207408667935,0,3,4,7,1,-2,-1,-2
1523207408690041,52,14,-3,-2,1,0,6,10
1523207408690041,-87,-44,1,-3,-3,0,-5,-67
1523207408690041,9,12,-1,1,-1,1,5,5
1523207408690041,35,14,5,6,4,1,-3,-2
1523207408713340,-33,-5,-2,-6,-8,-4,-2,-8
1523207408713340,35,7,-6,1,1,-3,-13,10
1523207408713340,7,-10,2,-3,0,0,0,19
1523207408713340,-65,-6,-4,-3,-2,3,20,-22
1523207408727401,-100,2,-6,2,0,-2,-13,-38
1523207408727401,35,9,-4,-3,-2,0,-4,3
1523207408728095,8,-6,1,-1,0,-1,4,-7
1523207408728095,63,4,-9,-6,-2,-3,-13,11
1523207408749432,25,-6,5,-2,0,-2,5,11
1523207408749432,20,7,-5,-2,0,1,-6,2
1523207408750156,35,-3,3,-3,-1,-3,-4,13
1523207408750156,16,-1,1,4,0,-4,-15,-36
1523207408772471,-1,5,-8,-3,-2,3,17,25
1523207408772471,-18,1,8,4,-1,-3,-6,-45
1523207408773219,84,5,-1,-9,-10,-10,-34,-12
1523207408773219,1,-7,3,3,-1,1,19,51
1523207408787537,-10,-14,-1,0,1,-2,-8,24
1523207408787537,-34,12,5,5,3,2,8,-9
1523207408787537,-46,-8,-8,-2,-3,-1,-2,-5
1523207408787537,9,8,-6,-1,-1,-5,-9,-17
1523207408809604,1,2,1,2,0,0,12,11
1523207408809604,90,17,-11,-3,-3,-3,-9,25
1523207408810316,-21,-1,-4,0,1,-1,11,-19
1523207408810316,19,-6,-13,-1,-1,0,-2,15
1523207408832642,32,13,-5,-7,-3,-1,8,12
1523207408832642,-3,-2,-1,-1,-1,-5,-6,2
1523207408833376,-32,0,-11,-4,0,1,-7,-41
1523207408833376,17,6,-2,2,0,-2,3,-5
