timestamp,emg1,emg2,emg3,emg4,emg5,emg6,emg7,emg8
1523209374280902,3,-3,-36,-13,5,-5,46,4
1523209374280902,-33,-18,12,0,-23,-27,-30,-3
1523209374295941,0,1,11,29,-3,0,12,-9
1523209374295941,-6,1,16,-16,2,6,9,-4
1523209374296944,14,-3,-36,21,63,19,-12,16
1523209374296944,7,5,-1,12,-15,2,5,3
1523209374318009,12,1,11,-6,-14,1,0,8
1523209374318009,-25,-19,-5,-17,5,5,-7,-14
1523209374320005,-33,-20,-79,-17,-12,-8,-16,-14
1523209374320005,17,12,51,7,-7,-1,9,-3
1523209374332044,27,40,33,44,21,14,17,17
1523209374332044,12,23,-53,-35,18,6,4,9
1523209374341062,-65,-76,2,8,-21,-8,-17,-19
1523209374341062,7,22,-39,-16,-19,-15,-7,-7
1523209374355100,-13,-24,31,12,2,0,4,-1
1523209374355100,20,9,64,22,23,16,8,8
1523209374362117,33,31,-57,-13,-1,-1,-19,3
1523209374362117,-17,-9,32,-4,-22,-6,-19,-11
1523209374378162,3,-9,-64,3,12,-4,27,11
1523209374378162,11,14,23,11,1,-6,9,7
1523209374380165,-12,-6,63,-9,-1,6,3,-12
1523209374380165,-9,3,69,-2,-2,1,-8,9
1523209374392199,6,-6,-79,11,-10,-8,-14,-17
1523209374392199,-10,-37,18,-4,0,-4,-5,5
1523209374401221,8,37,-11,3,4,2,-1,3
1523209374401221,17,9,7,7,11,2,11,3
1523209374416263,-21,-15,29,2,-6,7,-19,-4
1523209374416263,20,-13,26,-7,5,4,26,3
1523209374417268,-38,-10,-21,-6,-6,-2,-33,-4
1523209374417268,6,10,6,6,-4,-11,35,5
1523209374438366,-7,6,7,3,0,-1,-2,-7
1523209374438366,9,0,-8,7,-6,-7,-21,2
1523209374440328,24,17,36,4,-3,1,4,9
1523209374440328,-14,0,-28,-6,3,7,-4,-5
1523209374452358,38,-7,-27,-4,-7,1,-29,12
1523209374452358,-55,-33,4,-20,-7,-21,21,-18
1523209374461383,28,2,-27,6,14,11,11,11
1523209374461383,7,4,22,9,0,2,-6,0
1523209374475453,-4,4,-27,-24,-14,3,3,0
1523209374475453,-5,12,24,42,5,4,-16,3
1523209374477424,-6,-16,-1,-18,-9,-10,13,-9
1523209374477424,10,5,4,16,13,9,0,1
1523209374498540,-16,-8,-54,-13,5,-3,-6,-9
1523209374498540,-11,-5,24,-1,3,10,3,3
1523209374499488,19,-3,-1,-2,2,-3,-8,2
1523209374499488,17,14,24,7,-19,-13,20,5
1523209374511516,-57,-6,-8,5,-2,-2,-9,-15
1523209374511516,-2,1,-24,-1,0,1,-11,1
1523209374520548,16,6,-23,18,-1,-6,12,12
1523209374520548,3,-12,14,-3,1,-2,-7,-2
1523209374535577,3,7,-7,10,-11,-12,4,-2
1523209374535577,4,-1,-6,-15,-3,0,-3,-6
1523209374537583,-2,-4,-39,6,7,9,-4,-1
1523209374537583,46,-1,3,-10,-1,-3,-6,1
1523209374558641,-6,-1,36,11,-2,-10,4,-6
1523209374558641,-3,6,-33,-18,-43,-25,-13,-2
1523209374559642,17,11,15,-3,18,19,3,1
1523209374559642,-13,-6,14,33,53,16,1,1
1523209374571908,5,1,-59,-31,5,13,10,3
1523209374571908,7,-7,-4,-5,-8,-5,4,1
1523209374580698,-15,10,-18,-4,-31,-19,-5,-13
1523209374580698,-6,-37,-16,-20,-26,-13,-16,0
1523209374595741,-35,11,42,-11,2,-1,-9,-1
1523209374595741,-16,-8,-14,-19,-13,-19,19,-6
1523209374601754,20,6,-28,17,22,14,0,4
1523209374601754,-23,-13,1,-16,-4,8,-2,-7
1523209374617801,23,10,11,15,16,13,3,6
1523209374617801,0,4,-8,4,11,11,-13,0
1523209374619802,-9,-10,56,9,-9,-14,8,-2
1523209374619802,-1,11,-77,-7,-7,-10,-1,-2
1523209374631835,-1,-1,108,-31,-22,-9,-2,0
1523209374631835,7,1,-20,9,10,2,-39,2
1523209374640858,-8,-7,8,-2,-3,-5,50,-14
1523209374640858,-4,16,-24,6,-11,-3,-3,3
1523209374654956,-7,-15,21,6,8,2,-11,0
1523209374654956,5,3,-35,7,21,8,14,4
1523209374662209,2,-14,36,-14,-5,-2,-16,4
1523209374662209,-9,-1,15,5,-7,-3,-1,-3
1523209374678256,-3,-14,-16,17,3,-3,7,-8
1523209374678256,24,-8,-84,-23,5,6,-6,3
1523209374680021,-33,-8,36,-1,-10,-4,-5,-1
1523209374680021,-15,-6,-33,-9,-19,-11,-14,-9
1523209374692098,8,5,-14,8,17,3,19,4
1523209374692098,-4,-14,35,20,3,10,11,-5
1523209374701078,27,24,38,-1,5,7,-12,8
1523209374701078,-11,-17,-59,-12,-6,-10,-9,-7
1523209374715119,-7,4,78,-5,-7,-7,-2,-8
1523209374715119,9,10,-12,7,-5,2,17,9
1523209374722369,-9,-19,-3,5,13,5,-4,-7
1523209374722369,16,2,11,4,-2,5,-18,11
1523209374738214,1,-24,-28,-3,-5,-10,13,-1
1523209374738214,-1,9,17,9,-2,-6,-10,-14
1523209374740181,10,28,27,-23,-4,-1,-6,2
1523209374740181,-17,-14,-48,18,10,4,1,-4
1523209374761237,5,3,-9,-24,-5,-1,-5,0
1523209374761237,23,11,46,1,0,-3,6,13
1523209374762240,-28,-33,-70,-10,-8,-7,-16,-18
1523209374762240,4,10,0,-10,8,0,3,-1
1523209374775510,7,8,41,18,4,4,-6,6
1523209374775510,-48,-2,-33,-23,-2,-2,14,-16
1523209374782295,33,-6,9,-7,-11,-5,-6,15
1523209374782295,-4,3,21,8,-6,-5,11,2
1523209374798341,2,-9,-33,28,-1,-2,-14,-1
1523209374798341,-5,5,-25,-2,3,-5,-18,-6
1523209374799345,-3,5,28,-3,-21,-9,-11,0
1523209374799345,-13,3,56,-31,-23,-5,-7,3
1523209374820394,16,9,19,91,52,26,30,7
1523209374820394,0,2,27,-57,24,25,-15,2
1523209374822400,9,19,-46,95,21,8,25,8
1523209374822400,-28,-37,46,-28,-36,-20,-9,-13
1523209374835436,-10,-1,22,-17,-30,-10,-59,-9
1523209374835436,-32,-26,0,19,2,-17,89,11
1523209374843456,80,14,1,7,-1,-8,-23,-10
1523209374843456,-33,25,30,-16,21,20,-20,23
1523209374858496,44,14,-5,65,-12,-23,34,24
1523209374858496,20,-32,20,-78,-12,-5,-66,-13
1523209374859497,-65,-13,-33,4,-2,0,4,-4
1523209374859497,62,14,7,-21,5,-1,43,-7
1523209374880561,-14,-34,-47,-34,5,7,-8,-28
1523209374880561,-28,17,1,42,-4,5,-69,42
1523209374882585,-2,-8,-35,-37,-7,-13,59,-25
1523209374882585,0,-3,-1,-4,7,7,-4,-11
1523209374895648,59,-17,15,-15,-3,14,21,-2
1523209374895648,65,-9,35,-4,-4,3,48,4
1523209374901611,-65,-14,-2,13,-8,-17,-26,-4
1523209374901611,1,-3,-37,21,9,0,-11,-4
1523209374918655,4,-8,21,-29,-3,0,1,9
1523209374918655,-1,5,-25,35,-7,-5,13,-1
1523209374919658,36,13,36,-14,6,13,-1,19
1523209374919658,2,16,-13,14,-1,-4,15,-5
1523209374940715,55,12,0,-27,-8,-11,-32,1
1523209374940715,-70,2,-36,7,5,5,3,-7
1523209374942764,-26,-8,4,15,-4,5,5,-7
1523209374942764,-10,5,-12,-37,-1,-5,3,2
1523209374954753,-42,-1,21,-23,3,-3,-26,-1
1523209374954753,33,-2,-36,73,-4,-1,10,12
1523209374963777,-29,-6,-20,-34,-9,-7,-12,-14
1523209374963777,31,16,44,9,1,3,-5,-16
1523209374978049,14,14,-68,-5,4,-3,12,51
1523209374978049,35,20,20,24,-3,4,11,-48
1523209374984831,-9,-41,20,-23,-3,-2,-45,-24
1523209374984831,-56,-26,-62,6,-3,3,31,15
1523209375000876,31,13,-13,-5,-3,-3,-2,-5
1523209375000876,-55,20,61,-11,-2,-7,-14,29
1523209375001876,93,24,-15,-4,4,-2,-29,19
1523209375001876,-13,-15,4,5,-2,1,-1,-9
1523209375014917,34,-4,-28,-4,-6,0,-8,-4
1523209375014917,-39,-4,26,-26,-3,1,15,-35
1523209375022166,51,4,5,-2,-1,2,4,53
1523209375022166,-76,12,-1,7,5,0,-15,-12
1523209375038014,-91,-34,2,-4,-9,-9,10,-28
1523209375038014,48,-18,-2,-9,1,-6,-98,24
1523209375039979,-33,-8,5,5,7,14,69,-37
1523209375039979,48,35,-32,2,-2,-8,8,-2
1523209375061034,-106,-13,-14,-15,-7,1,-7,-21
1523209375061034,16,-25,9,8,1,-6,-3,-1
1523209375062035,-21,9,10,-8,-3,2,44,-6
1523209375062035,35,-20,22,-12,2,6,-18,23
1523209375075306,-10,36,12,-16,3,2,34,-17
1523209375075306,37,12,-3,24,-3,3,-5,-5
1523209375082092,-61,-5,-18,-28,-3,2,-9,12
1523209375082092,28,-2,19,26,-2,0,-2,-17
1523209375098179,-68,2,-6,-41,-8,-10,24,-3
1523209375098179,-9,1,-40,-13,-3,-4,-4,-14
1523209375100139,18,-19,28,15,5,1,-26,10
1523209375100139,-31,-10,-18,-2,1,0,-28,12
1523209375121323,31,10,23,3,2,2,25,-21
1523209375121323,-71,-10,20,33,-1,0,38,16
1523209375122195,-39,-17,-37,-53,-6,-7,-40,-25
1523209375122195,1,1,16,17,2,-2,25,12
1523209375135231,42,0,31,17,2,-1,-26,-4
1523209375135231,48,25,2,-42,-3,2,21,14
1523209375142250,3,-2,21,30,0,-8,-31,-39
1523209375142250,0,-4,-30,3,-2,-3,-4,5
1523209375158293,-9,-20,24,-18,-1,3,-9,9
1523209375158293,4,3,-7,0,-2,-2,-14,-21
1523209375160298,-23,19,14,22,2,-1,-31,28
1523209375160298,68,-9,-10,-11,-1,1,26,9
1523209375181356,26,11,-10,-1,-2,-6,9,9
1523209375181356,-22,-5,-11,4,1,-3,14,-6
1523209375182359,12,-19,-16,-7,1,1,4,31
1523209375182359,-25,18,48,30,0,-2,-57,-34
1523209375195631,12,-4,-70,-18,-5,-5,27,13
1523209375195631,34,3,3,-29,-2,-2,-16,-10
1523209375201406,51,29,-9,10,0,7,3,20
1523209375201406,-16,-11,18,-44,-4,-6,22,4
1523209375218452,-97,-2,1,45,7,3,-16,-1
1523209375218452,35,-6,-12,-36,-6,-3,5,-12
1523209375219458,-58,-7,16,-5,-1,-3,-28,-31
1523209375219458,48,-2,-47,2,1,-9,17,4
1523209375240512,28,0,12,8,0,3,-15,-21
1523209375240512,18,5,11,27,5,6,27,26
1523209375242517,-82,4,-25,-65,-10,-10,-7,-11
1523209375242517,48,-7,39,44,-3,4,18,-19
1523209375255550,31,11,18,-28,-9,-1,29,19
1523209375255550,-43,-13,17,59,11,4,-14,-3
1523209375262568,28,0,0,-65,-7,0,23,8
1523209375262568,-37,-2,-8,32,1,-6,-19,-5
1523209375277610,14,8,-21,-31,-3,-8,-21,-33
1523209375277610,18,-3,-9,-5,-1,-1,-6,-6
1523209375285631,-2,0,-1,22,1,4,17,11
1523209375285631,-15,-1,8,-12,3,2,-2,-9
1523209375300717,-25,9,11,38,6,9,-14,10
1523209375300717,-33,-10,-36,-46,-6,-5,20,-10
1523209375302677,56,7,43,25,-5,-5,-17,-16
1523209375302677,8,7,-66,-19,3,0,24,12
1523209375314730,-1,-25,9,-1,-9,-5,-48,-12
1523209375314730,-36,17,-1,18,0,0,25,34
1523209375323733,2,-3,-19,-24,1,4,17,7
1523209375323733,12,-26,6,1,0,-3,-31,-24
1523209375338775,-79,-25,-2,1,-3,-1,31,-25
1523209375338775,25,6,100,-1,-4,-2,-5,8
1523209375339775,15,5,-81,28,-3,-17,-52,-12
1523209375339775,-71,-4,14,-24,3,12,82,15
1523209375360831,-39,3,80,-6,2,4,4,10
1523209375360831,-9,0,-1,-3,-7,-7,-33,-33
1523209375361834,6,8,39,40,0,3,26,2
1523209375361834,49,2,-25,-34,-11,-9,-58,17
1523209375382896,19,-8,-27,2,4,-1,-4,21
1523209375382896,0,10,2,7,0,-1,0,-7
1523209375384895,16,17,45,-4,-4,0,37,2
1523209375384895,27,5,55,-4,1,0,-13,-4
1523209375397935,54,6,-51,29,0,0,7,14
1523209375397935,-48,-16,-22,-33,-2,-4,-17,4
1523209375399934,9,-25,-17,-30,-5,-2,-20,-18
1523209375399934,-53,0,-9,21,-4,-4,8,-1
1523209375420993,-28,1,19,7,3,2,-6,13
1523209375420993,-64,3,-20,0,3,0,-2,23
1523209375421993,-27,-42,-15,4,3,0,27,-8
1523209375421993,18,5,-50,-11,-5,-1,-13,-4
1523209375434026,43,-18,-37,-15,-3,0,-23,3
1523209375434026,8,4,8,3,0,-2,-25,-3
1523209375443049,-47,10,10,55,4,1,19,22
1523209375443049,13,13,42,-1,5,1,-9,23
1523209375458088,-31,-32,-11,14,-3,-8,-20,-17
1523209375458088,20,7,0,-30,-3,4,1,-8
1523209375460095,-20,-4,-8,34,-7,-5,-25,-7
1523209375460095,18,4,-8,-59,-4,-2,33,-6
1523209375481154,-87,2,5,-10,1,-1,31,35
1523209375481154,12,-9,4,49,-1,-5,-10,-18
1523209375482153,14,-2,10,-50,1,1,-6,-6
1523209375482153,-27,-15,-5,16,3,-1,-38,-3
1523209375494186,35,14,20,6,2,7,27,6
1523209375494186,-37,-9,-31,-35,3,-4,1,-25
1523209375503209,73,-22,40,17,-9,-4,-8,32
1523209375503209,-28,13,-11,16,-3,-3,-27,-33
1523209375518249,67,3,-45,-52,-8,-11,-4,9
1523209375518249,103,6,72,11,2,2,11,4
1523209375520253,-87,11,-98,-2,12,12,16,-24
1523209375520253,-15,-24,70,16,-13,-15,8,15
1523209375540309,-18,11,93,40,-1,5,-14,13
1523209375540309,-7,-10,-19,-8,-8,-9,4,-17
1523209375542312,55,25,1,0,6,3,23,7
1523209375542312,26,12,-18,15,8,7,20,5
1523209375554345,-29,1,1,-16,-3,-10,-24,-17
1523209375554345,1,-3,1,21,3,7,20,3
1523209375563373,-6,18,22,34,-1,0,33,19
1523209375563373,-20,-14,5,-32,-5,-2,-14,-32
1523209375578626,96,-2,-14,19,-1,0,1,-15
1523209375578626,-109,-23,18,-19,6,14,-2,-30
1523209375579413,93,-8,-17,4,-3,-13,-24,-5
1523209375579413,-9,14,21,13,-4,4,48,21
1523209375600467,-17,21,-68,-34,-4,0,-19,-8
1523209375600467,73,-2,2,19,2,4,-9,0
1523209375602472,-56,6,28,-12,-2,-1,7,7
1523209375602472,-40,-37,29,-16,-2,0,-21,-9
1523209375614509,36,-4,-16,95,6,3,2,-11
1523209375614509,30,-4,-63,-24,-9,-14,-19,33
1523209375623527,-17,0,19,-32,-3,1,7,-10
1523209375623527,10,7,-40,3,3,6,-19,10
1523209375638569,-22,5,13,-6,5,-2,9,-39
1523209375638569,-4,-2,-23,24,-3,0,9,-23
1523209375639571,106,10,-13,-4,-2,-7,-39,2
1523209375639571,-48,7,-32,9,6,10,12,22
1523209375660681,-26,-4,23,-28,1,0,-13,-14
1523209375660681,70,0,-23,15,-6,-7,7,10
1523209375662635,2,-15,-62,-56,-2,-1,-17,-13
1523209375662635,-5,-8,-5,57,-2,-5,-28,7
1523209375674664,-41,-22,-26,-33,-6,-5,31,21
1523209375674664,5,8,14,18,1,5,-2,-2
1523209375683688,-64,19,35,12,0,1,-13,10
1523209375683688,33,-16,-23,7,0,-5,-2,-38
1523209375697964,29,-3,5,-2,-2,1,-7,-2
1523209375697964,-34,6,-31,-16,-6,-9,-39,-8
1523209375699731,-88,11,22,-19,-4,-2,34,0
1523209375699731,33,17,18,-33,-5,-4,2,-16
1523209375720788,8,1,-8,-1,1,3,0,-7
1523209375720788,2,24,-59,3,5,13,-6,28
1523209375722792,40,0,35,-20,-3,-5,9,-13
1523209375722792,-12,-18,-71,-15,-3,1,4,21
1523209375734824,29,13,-9,33,-1,-13,-8,12
1523209375734824,-34,-5,71,-27,0,1,9,-9
1523209375743848,85,10,18,29,6,8,-5,17
1523209375743848,-87,-21,44,0,-2,-1,10,-10
1523209375757886,-10,-3,-71,-18,2,3,-37,5
1523209375757886,-3,-16,19,-23,-16,-16,39,-1
1523209375759890,27,-2,22,45,4,4,7,-1
1523209375759890,41,20,60,-8,5,1,-13,8
1523209375781187,6,-28,-72,24,-1,-4,-8,-48
1523209375781187,34,-7,8,-20,-3,-7,-19,1
1523209375781950,-9,1,-10,1,-2,1,-19,-10
1523209375781950,3,2,-5,-17,-1,5,18,19
1523209375803008,8,17,4,-17,0,1,21,27
1523209375803008,-19,-9,11,64,-8,-5,-32,-11
1523209375805011,17,-2,-12,-53,-1,-11,-10,-13
1523209375805011,27,9,16,20,4,2,-19,-8
1523209375818049,42,13,32,-24,0,1,32,28
1523209375818049,-33,-7,12,-12,3,3,14,-8
1523209375820051,-23,-3,0,15,-5,-4,-29,-4
1523209375820051,26,-3,50,-13,-4,-2,-18,-5
1523209375841107,28,3,13,-20,-4,-5,16,2
1523209375841107,47,27,9,5,10,8,-1,-26
1523209375842110,-7,-28,43,39,-6,-4,8,17
1523209375842110,33,18,-9,-58,-7,-7,-4,-4
1523209375863172,-64,-21,32,38,2,5,-3,-5
1523209375863172,41,2,9,2,5,5,22,23
1523209375865171,-30,-9,27,-12,2,4,16,4
1523209375865171,7,2,-98,48,4,0,-17,-17
1523209375878205,56,30,39,-16,-8,-3,11,46
1523209375878205,-38,-4,-1,-59,-6,1,10,-14
1523209375880215,-30,-4,-41,50,-1,-8,-6,-1
1523209375880215,-59,-8,-23,-1,0,-5,-41,-21
1523209375900263,60,-12,36,-1,2,0,32,2
1523209375900263,-77,-10,-13,4,3,2,9,25
1523209375902269,27,9,43,-28,1,1,5,-44
1523209375902269,24,-5,-6,28,-5,-4,-15,-10
1523209375923560,-69,-2,11,3,0,-2,-27,-9
1523209375923560,-17,-4,9,-11,-3,-5,-7,-28
1523209375925453,60,22,-19,29,9,8,29,36
1523209375925453,5,-10,-21,1,-8,-3,32,37
1523209375936524,41,-18,-54,-16,-6,-5,-12,-10
1523209375936524,-45,7,10,-11,4,5,-24,-35
1523209375945571,-16,4,-17,10,2,-9,24,33
1523209375945571,119,3,14,17,7,8,22,-9
1523209375960788,-77,-5,-6,-13,-4,-5,-8,-9
1523209375960788,77,-2,-12,42,0,-2,-17,78
1523209375962562,-49,-6,-12,-28,4,0,-16,-42
1523209375962562,22,26,-24,-14,-7,-6,2,17
1523209375983612,70,17,21,-20,1,6,4,-6
1523209375983612,-57,-9,-9,54,0,-6,0,25
1523209375984613,-40,0,8,-25,-1,2,-1,-10
1523209375984613,-24,4,31,5,5,1,13,6
1523209375997660,-46,5,-23,21,-6,-2,-7,-33
1523209375997660,7,1,-41,-45,-4,-3,3,-8
1523209376005670,16,-14,6,-19,-7,-3,-20,13
1523209376005670,-60,2,9,49,3,0,31,-23
1523209376019708,95,-1,-14,-76,-2,-2,-16,33
1523209376019708,7,-2,4,30,2,-3,-3,-20
1523209376028730,6,-11,-48,-7,-11,-2,4,-21
1523209376028730,-20,-24,-8,-21,1,-2,-10,-5
1523209376042769,-39,-8,21,-3,4,7,-6,-4
1523209376042769,70,5,-28,7,2,0,19,-14
1523209376044773,101,8,-15,-20,-1,0,-14,54
1523209376044773,-16,6,43,17,-1,-4,-20,-28
1523209376057809,53,17,-10,21,-4,-1,3,8
1523209376057809,-11,-21,-15,-29,-1,-5,-25,-13
1523209376064828,30,-10,15,37,0,5,32,1
1523209376064828,-21,9,11,-50,-3,-4,6,-9
1523209376080878,-30,4,34,25,0,1,-6,4
1523209376080878,24,11,5,4,-4,0,-14,-41
1523209376081875,-62,-11,-5,-17,3,1,-4,-23
1523209376081875,-49,-5,25,15,3,0,3,-1
1523209376102931,21,4,-9,-13,-4,-3,9,-7
1523209376102931,3,22,18,30,-2,-3,-39,15
1523209376104934,-20,-5,-18,-17,-2,4,20,-5
1523209376104934,61,-1,-15,-32,-1,3,-8,10
1523209376117971,-34,-6,7,39,4,-2,5,-25
1523209376117971,1,-2,-2,-32,-1,1,-13,23
1523209376125026,-29,-3,-16,57,1,-1,11,-14
1523209376125026,39,6,57,-78,-11,-6,-16,27
1523209376141030,64,-1,-46,20,0,4,15,42
1523209376141030,29,-15,21,-1,-4,-8,27,-45
1523209376142031,4,1,7,3,1,0,-32,-10
1523209376142031,-22,-4,12,20,4,5,25,-4
1523209376163094,-24,-23,12,-1,3,0,-13,0
1523209376163094,-71,-5,-31,-9,0,1,6,29
1523209376165093,3,-7,38,10,3,-3,-21,-1
1523209376165093,-79,0,-13,12,-4,-1,15,28
1523209376178210,-50,7,-4,-26,4,4,-3,-8
1523209376178210,-1,-10,42,75,1,-3,18,14
1523209376184145,42,-17,-27,-103,-14,-8,-12,4
1523209376184145,-73,-16,-48,2,-11,-13,-1,-4
1523209376201191,-11,4,52,27,5,-1,-8,-15
1523209376201191,50,8,-3,-33,-2,-6,-8,-55
1523209376202193,-48,2,12,21,4,4,-16,-9
1523209376202193,2,-5,-18,22,1,4,16,-4
1523209376223486,50,-7,14,-41,-8,-6,-13,0
1523209376223486,-22,11,-9,-10,1,7,22,-15
1523209376225254,-17,-18,4,8,-11,-3,-10,18
1523209376225254,21,13,1,37,5,4,-11,-9
1523209376237324,-38,-18,-25,-48,-12,-2,-26,-27
1523209376237324,67,9,-25,-32,-2,-5,43,48
1523209376246315,-17,10,-1,13,0,0,-3,11
1523209376246315,12,4,14,-7,3,0,5,4
1523209376261362,40,-6,-6,17,-4,-2,-15,-25
1523209376261362,-102,-11,-56,-31,-5,-2,-10,27
1523209376262354,3,-3,4,21,5,3,12,-41
1523209376262354,52,13,-31,27,-1,-1,-14,0
1523209376283409,-66,-13,28,10,-1,-6,2,18
1523209376283409,37,-12,45,20,2,0,-17,2
1523209376284410,32,22,-9,-9,4,2,15,-28
1523209376284410,17,-29,-25,10,-7,-4,-37,9
1523209376296444,-95,-2,42,-14,-5,-5,44,-25
1523209376296444,-10,-14,-4,17,7,5,1,14
1523209376305466,-4,5,5,2,-6,-6,-19,-30
1523209376305466,-8,-4,14,-53,-2,2,4,-18
1523209376320507,0,17,-13,67,3,3,5,48
1523209376320507,20,0,12,-36,-7,-6,-4,-13
1523209376322512,-12,10,18,-50,-3,-3,0,10
1523209376322512,38,11,-18,-1,4,0,4,15
1523209376343806,-24,-36,-58,-7,-8,-7,-8,-12
1523209376343806,-4,-3,-7,28,1,1,12,4
1523209376344571,2,-18,22,64,8,7,-18,29
1523209376344571,69,6,-2,-34,-4,-8,39,45
1523209376356603,14,25,44,2,6,7,-2,-36
1523209376356603,-100,-8,-18,-29,-5,-6,-33,-64
1523209376365629,-14,-1,-36,47,-1,-7,15,13
1523209376365629,62,-11,23,-23,-12,-10,-17,-8
1523209376380675,-19,-11,-6,5,2,1,-6,-25
1523209376380675,85,8,1,-17,-1,4,-8,17
1523209376382672,-115,-5,4,24,5,0,16,36
1523209376382672,-50,3,-61,-21,-5,0,-14,-74
1523209376402726,78,13,26,9,2,1,-41,16
1523209376402726,-25,-8,46,4,-3,-1,56,6
1523209376404730,-8,0,-51,-53,-8,-2,-7,6
1523209376404730,20,-2,-2,-5,-4,-2,-9,7
1523209376416762,-71,1,6,-26,9,0,-10,-10
1523209376416762,74,-2,1,106,4,3,-13,-1
1523209376425785,21,5,25,-56,-10,-6,-11,4
1523209376425785,-3,-10,-56,15,-8,-10,-6,-10
1523209376440827,43,16,-25,10,5,6,20,42
1523209376440827,86,10,46,-8,7,2,6,78
1523209376441829,0,-27,20,4,-2,-5,-13,-28
1523209376441829,-18,13,-11,-20,-3,-2,-22,3
1523209376462893,79,-9,1,34,-5,-1,15,7
1523209376462893,-15,2,-35,-40,-7,-4,8,37
1523209376464890,12,0,20,-35,-1,8,4,0
1523209376464890,-95,-8,-20,0,2,-1,-14,-69
1523209376477159,19,10,25,16,-3,-2,-18,4
1523209376477159,-40,-1,-37,-31,-3,-2,27,-11
1523209376485948,73,-7,-40,26,0,-2,-16,-7
1523209376485948,-67,-12,-5,27,4,3,32,25
1523209376500987,-24,7,36,-21,-7,-7,11,-51
1523209376500987,-54,-4,-10,-6,0,-1,-25,-11
1523209376501990,28,30,-6,2,3,-1,-25,-59
1523209376501990,24,-18,-9,13,8,13,93,58
1523209376523279,-18,-19,-17,41,1,0,-10,2
1523209376523279,34,-23,52,-46,-12,-7,-34,-31
1523209376525051,-32,0,-11,12,-1,0,24,23
1523209376525051,12,20,61,45,13,12,-23,3
1523209376537082,13,-49,-91,-78,-15,-12,21,-3
1523209376537082,-63,11,65,43,7,-2,4,1
1523209376546112,37,7,-26,-13,-5,3,0,12
1523209376546112,-6,-19,50,-5,-4,-5,-26,-15
1523209376560144,94,20,-8,-22,4,0,-3,27
1523209376560144,-10,-4,-103,33,-1,4,-14,-43
1523209376562150,21,2,46,3,-6,-6,-3,3
1523209376562150,19,8,28,-8,0,-4,4,-16
1523209376583207,-16,6,-10,-8,0,2,6,6
1523209376583207,2,1,20,-6,-1,-4,-22,6
1523209376585211,-47,-3,-23,32,3,3,25,-11
1523209376585211,47,19,14,17,-1,2,-23,-5
1523209376597255,-27,7,17,33,1,0,0,-6
1523209376597255,1,2,-10,-42,-7,-6,-5,-18
1523209376606266,-23,3,-29,-7,1,0,-11,17
1523209376606266,-43,10,-22,-10,4,3,5,12
1523209376620303,-30,6,76,30,2,4,23,26
1523209376620303,20,-19,-97,-31,-2,4,17,33
1523209376622308,4,-7,1,-11,-4,-4,-13,-5
1523209376622308,7,-34,33,38,1,-7,-17,5
1523209376643366,-36,15,-30,19,5,5,54,1
1523209376643366,-9,-7,18,-20,1,-1,-20,0
1523209376644369,13,11,2,39,3,1,34,-11
1523209376644369,29,-3,-63,-53,-6,-4,-10,14
1523209376656400,-43,-2,0,22,-2,-2,-25,-9
1523209376656400,5,4,-1,-28,-10,-1,23,27
1523209376665423,71,4,4,8,1,0,2,-6
1523209376665423,10,7,-5,-19,-2,-3,-13,-6
1523209376680464,5,-3,-10,-11,-1,0,-19,22
1523209376680464,-21,10,34,44,10,0,6,-31
1523209376682469,-15,-3,16,-19,-4,-3,-8,13
1523209376682469,30,6,21,-54,-7,0,10,33
1523209376703524,-18,-41,-63,15,-1,-3,-28,-11
1523209376703524,-16,2,86,-34,-5,-4,-15,-2
1523209376704527,-32,-2,-5,-12,6,4,11,-16
1523209376704527,7,11,2,23,2,-3,15,-2
1523209376725583,39,7,-2,-29,-1,-3,-10,-5
1523209376725583,-7,3,73,66,-5,-1,-9,0
1523209376727588,57,-15,-43,-28,-3,-3,-4,-14
1523209376727588,58,22,-11,11,0,0,3,14
1523209376740623,-15,-32,-96,-19,1,4,-7,4
1523209376740623,54,22,-8,-2,-6,-11,-15,-9
1523209376742629,38,-5,-14,-11,-5,-4,8,27
1523209376742629,-91,4,-7,24,1,6,12,23
1523209376763685,89,-7,45,-11,2,0,4,17
1523209376763685,-12,4,-40,17,4,6,-24,3
1523209376764687,-17,-28,70,-41,-19,-14,-6,-10
1523209376764687,19,-4,17,52,2,3,9,-2
1523209376785743,-70,16,-20,-53,-13,-15,-44,-14
1523209376785743,-14,-2,-17,-15,4,7,32,-4
1523209376787749,-40,11,29,7,2,-1,-8,-7
1523209376787749,-56,-28,13,23,3,3,-10,-13
1523209376800783,38,10,16,-66,0,1,11,10
1523209376800783,112,10,30,43,-5,-6,-9,-12
1523209376802789,28,5,6,-47,-2,7,12,43
1523209376802789,8,-2,4,-1,-2,-7,-11,-50
1523209376822842,-36,27,-4,37,7,4,2,-24
1523209376822842,-19,-5,-49,-26,-1,0,-1,-1
1523209376824848,-20,2,-7,21,4,-2,6,4
1523209376824848,-26,2,-28,2,-4,0,-1,8
1523209376845911,44,2,18,-9,-14,-9,-13,-8
1523209376845911,-102,-18,-17,21,7,4,24,20
1523209376846909,-32,0,1,34,4,3,-11,-6
1523209376846909,39,15,-25,-62,1,1,0,23
1523209376859941,-119,-5,47,1,-3,-7,-19,-61
1523209376859941,-23,-5,15,25,-7,-7,-26,-44
1523209376866959,-22,-1,-20,32,10,5,9,-11
1523209376866959,9,-20,-18,-24,-3,-5,-14,26
1523209376883001,0,-3,14,13,-4,-2,7,5
1523209376883001,20,2,3,-33,5,0,-7,12
1523209376885007,-16,-7,26,18,-5,1,18,-22
1523209376885007,45,4,19,10,-4,-9,-11,-12
1523209376906063,8,0,-12,10,1,4,10,17
1523209376906063,-15,8,-20,3,-4,0,-2,-19
1523209376907066,28,14,-36,7,2,-4,-8,-11
1523209376907066,-69,-6,54,-8,-4,-1,-2,42
1523209376920100,23,-5,-10,-2,-1,6,30,7
1523209376920100,-62,-1,-20,19,3,1,-13,37
1523209376927118,-24,-5,0,25,-1,0,-2,-16
1523209376927118,39,-1,1,-54,-15,-11,-20,-21
1523209376943162,-27,-13,-11,20,8,5,18,17
1523209376943162,58,-1,-36,-14,-4,-2,13,17
1523209376945167,9,1,4,-5,1,1,26,15
1523209376945167,-47,1,-39,34,4,3,14,-17
1523209376966223,53,-1,24,0,-7,-1,-8,6
1523209376966223,-4,3,23,-19,-2,-4,16,-34
1523209376967226,-17,-1,24,-14,-6,-8,-29,23
1523209376967226,-24,-7,-32,-3,-4,-5,5,-40
1523209376980264,38,-1,-54,-9,4,2,-7,-6
1523209376980264,-34,12,11,40,4,3,25,9
1523209376987278,10,6,-16,-56,-6,-1,-1,7
1523209376987278,-10,6,35,9,4,4,-8,-41
1523209377003322,33,13,-12,-6,-2,-6,-14,-4
1523209377003322,10,-11,1,24,-3,2,12,7
1523209377005326,35,13,-26,-54,-1,-5,-29,22
1523209377005326,26,-9,9,33,5,5,45,-9
1523209377025378,-43,3,8,6,-5,-5,-8,-13
1523209377025378,-12,-19,-39,-26,-3,2,-6,7
1523209377027384,-112,-11,-33,11,2,-1,-1,-34
1523209377027384,108,12,-4,15,2,1,-25,5
1523209377040421,-99,-9,39,-8,-2,-1,35,9
1523209377040421,57,5,13,-47,-3,-2,-4,7
1523209377046442,-29,-10,-9,-4,-7,0,8,-16
1523209377046442,-54,11,-9,2,5,0,-12,-7
1523209377063484,15,6,-15,53,4,1,9,10
1523209377063484,98,5,4,-26,-6,-3,-2,29
1523209377064485,24,-11,-19,-23,5,0,-2,0
1523209377064485,11,-14,83,37,-5,2,-5,-7
1523209377085540,0,-5,-2,-21,0,-2,-4,52
1523209377085540,-32,1,8,-13,-3,-5,-17,-64
1523209377087550,57,8,-17,-9,-6,-5,-2,2
1523209377087550,8,-6,-18,4,2,5,9,18
1523209377099584,-59,-2,17,3,2,-1,14,-8
1523209377099584,-22,-17,-3,28,-4,-1,-12,-5
1523209377106606,-42,10,-5,-18,1,2,14,10
1523209377106606,-2,-3,-32,-8,-7,-7,-19,-4
1523209377123642,92,7,-12,-51,-5,-3,-14,-22
1523209377123642,-44,-5,14,-2,3,3,16,3
1523209377124647,60,-2,17,31,5,8,27,16
1523209377124647,-16,-3,-18,5,-6,-4,9,-2
1523209377145704,-16,-4,-17,-36,-6,-4,-4,-41
1523209377145704,-7,0,-10,28,4,-3,-10,35
1523209377147706,-6,4,-3,13,-2,0,-26,40
1523209377147706,65,-16,-12,8,8,5,20,-21
1523209377159738,5,-6,52,19,1,-5,-20,20
1523209377159738,33,4,-37,4,3,0,1,-1
1523209377166757,34,-11,-35,54,-1,3,-7,-3
1523209377166757,-116,-1,-45,-42,2,-6,-1,-20
1523209377182798,15,-3,32,5,-8,2,0,14
1523209377182798,64,41,-3,-15,9,2,-18,2
1523209377184803,31,-3,48,74,-2,-5,36,-21
1523209377184803,-5,-9,-19,-46,-5,-3,-4,-13
1523209377205860,3,15,19,10,3,-1,-14,-45
1523209377205860,13,0,-11,19,5,5,10,15
1523209377206863,-55,-21,42,-20,-12,-14,-20,7
1523209377206863,90,27,61,-31,-4,-3,-11,-30
1523209377218895,-92,-25,-42,18,2,-2,-5,37
1523209377218895,31,-1,7,-22,-4,-8,1,-24
1523209377228926,-28,3,-16,13,5,1,-32,-2
1523209377228926,-15,-5,71,10,-5,-5,-1,19
1523209377242958,71,9,-91,-1,1,2,-11,0
1523209377242958,-55,-15,35,-11,1,3,6,-20
1523209377244963,-47,-6,-14,-9,-1,-6,-18,7
1523209377244963,20,2,-16,-5,0,-1,-21,23
1523209377266023,-20,-6,29,23,1,4,32,-67
1523209377266023,46,-5,-20,2,-2,1,-3,-11
1523209377267024,13,-4,-29,-31,-5,0,8,5
1523209377267024,-9,-2,20,-12,-3,-6,-23,2
1523209377279059,-17,8,-8,-17,8,2,5,23
1523209377279059,48,-8,-7,12,-9,-6,-7,16
1523209377288077,5,0,6,0,-3,1,1,-40
1523209377288077,-37,-3,-34,-21,3,6,-5,-11
1523209377303119,1,14,-18,67,4,2,6,-27
1523209377303119,-81,-17,52,-51,-5,-1,17,19
1523209377305123,40,6,16,-8,0,-1,-18,54
1523209377305123,59,22,23,1,-3,-6,1,-5
1523209377325183,-15,-9,-30,38,1,-1,11,18
1523209377325183,76,23,45,-19,5,4,-11,-4
1523209377327181,-31,8,-1,60,0,0,-8,-5
1523209377327181,27,-13,13,-35,2,3,17,20
1523209377339213,-87,-33,-8,-20,-2,-8,-15,-5
1523209377339213,8,-2,6,59,-1,-4,-29,-19
1523209377348238,48,8,-71,-68,-2,0,10,13
1523209377348238,-37,8,11,34,-1,2,12,40
1523209377363277,6,-5,5,-14,-11,-9,-27,-5
1523209377363277,-36,-8,12,-17,-2,0,-6,29
1523209377365282,15,-9,-61,14,7,2,40,-43
1523209377365282,-63,-22,2,7,-1,-4,-11,1
1523209377385337,31,28,-3,-21,1,-2,-4,22
1523209377385337,-10,-20,-20,13,0,0,-2,2
1523209377387342,19,8,24,4,-6,-3,-10,0
1523209377387342,39,4,14,19,5,-1,-24,9
1523209377399373,52,0,-26,-8,-4,4,41,-4
1523209377399373,-127,-73,-44,7,-8,-3,9,-12
1523209377408398,35,3,61,-67,-2,-1,-45,-21
1523209377408398,-72,-3,-25,32,1,3,30,-6
1523209377423679,38,0,-2,-24,-2,-4,-3,-16
1523209377423679,88,18,-8,-7,0,-3,9,24
1523209377425512,-90,-17,36,9,-1,4,8,-46
1523209377425512,30,-4,-3,-1,-2,-2,-12,20
1523209377445497,-17,-21,-3,-29,-2,0,-15,0
1523209377445497,7,7,-17,39,-1,0,27,-6
1523209377447502,10,10,54,-34,-2,-3,-16,2
1523209377447502,-10,0,-52,1,-2,-2,-3,-9
1523209377459748,45,1,-14,-1,-2,0,2,27
1523209377459748,-46,13,10,-18,-4,-6,3,-10
1523209377468558,-36,-20,2,20,-1,-4,-11,22
1523209377468558,-68,-18,-22,30,0,-2,-12,-35
1523209377483598,72,11,27,-12,-1,3,10,8
1523209377483598,2,-6,-26,-3,2,0,-10,27
1523209377484600,-22,-17,30,-22,0,1,12,1
1523209377484600,53,9,26,-10,1,5,16,6
1523209377505656,-45,10,5,23,-2,-9,-22,2
1523209377505656,17,15,40,-13,3,7,11,-20
1523209377507663,-13,11,-2,26,3,-1,12,-1
1523209377507663,63,8,-25,-12,-5,-3,10,32
1523209377519693,52,-9,6,3,-3,-1,-18,-41
1523209377519693,-13,-17,-10,16,-8,-8,-3,-7
1523209377528733,72,-3,-12,-24,-2,5,-9,-1
1523209377528733,-20,-1,-5,-22,-5,-3,39,-4
1523209377543837,13,12,-14,15,3,-1,2,17
1523209377543837,3,0,-19,-9,-2,1,-10,6
1523209377544762,-1,4,2,-19,-3,-1,13,-57
1523209377544762,7,5,-21,15,-1,0,-12,13
1523209377565816,-32,-5,-60,-6,1,-2,-20,-24
1523209377565816,40,-7,68,8,-5,-1,35,-12
1523209377566819,13,15,-43,12,6,1,-20,28
1523209377566819,-62,1,20,-3,-3,-3,-2,-50
1523209377579854,-53,0,-3,-12,-2,1,-4,-5
1523209377579854,-34,5,-13,11,3,1,0,-2
1523209377587877,23,-31,-13,20,0,0,-20,18
1523209377587877,34,14,19,-29,-7,-8,16,9
1523209377602915,-2,-9,-28,16,-1,3,15,28
1523209377602915,7,2,0,-28,0,-3,-28,-3
1523209377604920,-56,-31,-19,1,-2,-1,24,0
1523209377604920,29,4,28,14,10,10,8,-9
1523209377626210,13,-13,-19,16,-1,-4,-6,-26
1523209377626210,13,27,77,-24,-2,-3,5,23
1523209377626978,30,4,-52,0,-3,-5,-21,-16
1523209377626978,59,-29,-15,10,-3,-5,-25,-11
1523209377648035,-3,20,50,34,4,1,21,6
1523209377648035,-44,-10,-79,-39,-5,3,-25,-59
1523209377650039,54,30,46,7,0,-4,16,-29
1523209377650039,-5,-7,-31,11,2,-4,-25,4
1523209377663110,15,-22,78,-21,-3,2,5,4
1523209377663110,-30,22,-15,18,2,-2,-20,-9
1523209377665079,34,11,-22,9,-6,-1,10,32
1523209377665079,-25,-13,-7,-67,-4,1,11,-16
1523209377686136,39,-4,-22,27,0,-2,24,2
1523209377686136,-36,-9,-14,18,-5,-3,2,56
1523209377687139,49,8,29,-15,1,-1,-3,-27
1523209377687139,8,7,42,19,-1,0,-28,29
1523209377708195,-48,-17,-72,-38,-9,-6,-12,-9
1523209377708195,104,1,24,21,5,5,20,31
1523209377710442,-43,10,16,20,4,2,-4,-21
1523209377710442,17,6,26,-11,-4,-1,-16,3
1523209377723471,-27,1,45,35,-3,-2,5,14
1523209377723471,67,0,-40,-10,-1,0,6,13
1523209377725239,-110,-13,-7,-56,0,-1,-25,16
1523209377725239,50,2,-11,9,-2,0,36,10
1523209377746303,-54,11,39,0,0,0,-15,18
1523209377746303,21,14,-10,-2,-2,-4,-6,-42
1523209377747300,-1,9,28,35,7,4,5,18
1523209377747300,-26,8,-11,-12,0,0,-12,-14
1523209377768353,72,10,44,-16,2,4,12,28
1523209377768353,28,-10,-1,9,3,0,1,7
1523209377770458,-2,-12,-4,-5,-7,-8,-15,11
1523209377770458,5,6,-34,4,-1,2,6,-29
1523209377783394,23,15,-3,-2,0,1,-9,-26
1523209377783394,17,-2,16,-24,0,-3,-11,18
1523209377784397,52,20,19,27,-3,-2,37,-36
1523209377784397,18,-31,-33,7,5,5,-10,14
1523209377805453,24,34,38,-4,-7,-4,-27,-32
1523209377805453,5,-19,-4,32,2,1,25,-3
1523209377807460,17,-7,5,-20,-3,-5,-1,16
1523209377807460,-27,7,3,6,-3,0,5,-9
1523209377828518,-13,-6,-23,-19,0,-5,-12,19
1523209377828518,64,6,-13,34,-2,-2,-14,-3
1523209377829524,-94,-7,11,-17,-5,-3,-7,-4
1523209377829524,-17,15,-2,22,5,2,13,-18
1523209377842551,58,-15,-36,-46,-5,-5,-44,7
1523209377842551,-35,11,-17,-18,-9,-10,8,-24
1523209377849570,-30,-11,69,27,11,9,8,15
1523209377849570,-12,6,-16,11,-5,-6,-9,30
1523209377865614,-4,2,-38,0,-4,-2,-32,5
1523209377865614,-78,-13,-77,-33,-6,-5,4,-12
1523209377867626,53,-6,-9,-13,-4,-1,6,-1
1523209377867626,53,-4,15,16,3,0,-10,42
1523209377888673,-61,-12,2,-33,-3,-2,29,-49
1523209377888673,-6,-8,6,45,2,-1,-13,10
1523209377889677,-23,-2,-23,-3,-4,0,0,-16
1523209377889677,56,5,-1,-14,2,1,0,0
1523209377901747,-10,-10,-42,16,1,-2,8,2
1523209377901747,-20,3,37,0,0,1,-9,-20
1523209377911753,18,10,-26,-15,0,7,25,21
1523209377911753,-52,-20,-21,-2,-1,-6,-7,-23
1523209377925006,41,10,35,-1,-2,5,41,24
1523209377925006,-53,-13,-34,-45,-14,-7,-34,-20
1523209377925771,3,13,7,10,7,-1,-5,16
1523209377925771,-73,-7,7,-21,-6,-6,-19,-73
1523209377947833,-78,2,29,22,7,2,-5,31
1523209377947833,-28,-3,15,-15,2,1,31,-32
1523209377947833,-21,-16,-30,35,-8,-8,-21,-6
1523209377947833,-67,-6,43,-53,-5,-1,14,1
1523209377961870,30,0,-24,8,6,-2,0,4
1523209377961870,13,-3,2,4,4,2,-2,0
1523209377970127,11,-2,-37,4,0,1,-16,7
1523209377970127,-20,23,7,6,3,2,31,-46
1523209377984931,-5,-19,22,-5,-14,-7,3,0
1523209377984931,-13,4,-61,-16,3,2,-2,33
1523209377985933,67,-1,8,23,5,-2,-7,-8
1523209377985933,-23,-13,-2,-4,-7,-3,-13,1
1523209378008158,-12,10,29,-9,0,-1,-13,-6
1523209378008158,86,9,78,-35,-1,-2,25,-19
1523209378008158,-22,-8,-10,-20,-4,-2,-14,4
1523209378008158,28,-2,-30,20,1,-1,-6,34
1523209378022265,-55,-13,11,21,2,4,-1,-58
1523209378022265,6,1,3,8,-3,-3,-16,-10
1523209378030049,26,23,13,-1,-4,-2,-9,1
1523209378030049,-24,-10,-2,-13,-2,-7,12,11
1523209378045090,86,0,-8,11,-2,1,10,26
1523209378045090,-54,-2,21,2,3,6,4,5
1523209378046099,58,6,17,-9,-4,-4,-20,-34
1523209378046099,-58,-10,-12,39,-5,-3,34,9
1523209378067148,0,4,4,2,2,0,-1,-27
1523209378067148,2,9,-19,-17,0,-2,-23,-2
1523209378068150,-1,-21,50,52,0,1,4,13
1523209378068150,32,-7,-22,-53,-2,6,7,14
1523209378082188,-17,9,-27,-12,2,-1,15,12
1523209378082188,-57,-29,5,16,5,6,8,-14
1523209378090209,43,21,-8,-3,-1,-5,-10,5
1523209378090209,-1,5,2,29,2,-5,-14,-3
1523209378105251,0,-5,38,-49,-7,-4,-16,-12
1523209378105251,20,-5,-20,2,-3,-1,12,14
1523209378106253,-102,-18,-21,-15,-2,1,-9,-32
1523209378106253,19,-17,52,4,-2,-8,20,35
1523209378127306,5,4,-94,13,7,6,-8,-11
1523209378127306,-14,-5,31,-3,-10,-3,-9,6
1523209378128310,-5,6,-12,-24,-1,-3,-19,9
1523209378128310,62,4,12,9,-2,4,0,7
1523209378142350,-47,6,14,-18,2,-1,19,8
1523209378142350,2,3,13,-10,0,1,1,9
1523209378150370,-7,4,-15,17,-8,-8,-6,15
1523209378150370,53,-4,-79,-27,-4,-2,2,-38
1523209378165409,42,-8,5,15,0,3,-2,37
1523209378165409,54,15,-15,-17,-2,-4,-2,23
1523209378165409,43,-1,-11,-5,6,2,13,5
1523209378165409,4,2,52,4,-10,-2,-3,13
1523209378187468,-93,7,-24,18,-3,-4,-24,-3
1523209378187468,25,13,-13,-9,1,-4,1,31
1523209378188472,-12,-3,-3,-4,1,2,19,-1
1523209378188472,9,12,17,-3,6,4,-15,36
1523209378201510,39,4,-58,-7,0,-5,-14,-2
1523209378201510,-41,-7,19,4,2,2,11,-24
1523209378210527,-19,3,17,31,-4,-1,3,4
1523209378210527,-6,-8,-2,-14,0,-4,-15,1
1523209378225629,35,-3,53,-10,2,3,11,-11
1523209378225629,-83,-18,3,43,-7,-7,-4,-36
1523209378225629,1,-10,26,-73,-12,-6,1,14
1523209378225629,2,12,-17,27,4,4,-3,-23
1523209378247628,-49,-26,14,2,-1,-1,-3,16
1523209378247628,-20,9,-3,-26,4,6,1,-12
1523209378248630,-69,-11,1,34,2,4,12,-14
1523209378248630,-15,6,27,-14,-4,-1,-24,3
1523209378261666,-13,9,-3,2,-3,-7,1,-9
1523209378261666,4,-1,-44,4,2,-2,38,4
1523209378270727,-46,-11,6,18,-1,-4,-20,13
1523209378270727,2,21,-17,-24,2,3,16,-20
1523209378284728,-5,-3,-12,7,-2,-1,6,14
1523209378284728,-11,-3,37,50,-3,-2,-28,-19
1523209378285730,26,0,-30,-74,-4,-1,-11,8
1523209378285730,-40,-11,-38,33,0,-2,20,18
1523209378307786,3,-12,81,-17,-2,-1,-9,-15
1523209378307786,46,12,-11,1,-1,1,3,17
1523209378308832,1,-4,1,22,5,1,13,-36
1523209378308832,-12,-7,2,18,-3,-3,-33,35
1523209378322059,25,4,1,-44,1,0,8,-19
1523209378322059,33,-3,28,57,-4,0,-6,6
1523209378329848,-37,-14,-7,-27,-2,1,7,14
1523209378329848,38,2,-27,2,-2,-4,11,7
1523209378344891,44,7,-1,1,-1,0,7,40
1523209378344891,1,-2,35,-30,-7,-7,-21,-24
1523209378345890,-9,-15,-40,13,5,1,3,18
1523209378345890,-23,-7,22,20,-2,-2,-16,-3
1523209378367949,18,0,-7,-9,-2,0,5,-1
1523209378367949,18,-12,-19,-8,-4,0,-13,4
1523209378367949,63,21,9,1,2,1,34,1
1523209378367949,0,-6,9,-25,-1,1,-31,-17
1523209378381984,0,10,-30,31,-3,-2,12,-25
1523209378381984,83,-4,-33,-33,-3,-3,-25,-3
1523209378390006,-30,2,-21,11,4,-2,5,-15
1523209378390006,-27,-16,30,-15,-10,-5,-18,24
1523209378405046,58,18,-17,6,-6,-2,7,-17
1523209378405046,8,-23,-1,4,8,4,-11,-27
1523209378406048,56,-13,-19,-30,-5,-2,-6,31
1523209378406048,-80,-17,-8,48,6,1,-10,-37
1523209378427103,-87,-7,-6,-16,-1,-1,8,-6
1523209378427103,16,10,12,-2,-5,-2,0,-15
1523209378428109,-2,2,33,-25,-11,-4,-17,-10
1523209378428109,8,1,-5,2,-2,-4,19,6
1523209378442144,19,-1,17,3,2,4,4,14
1523209378442144,-96,6,-39,5,4,-1,0,-9
1523209378450168,-14,11,-47,0,-2,4,-14,-17
1523209378450168,124,2,13,-21,1,-6,-16,11
1523209378465206,14,2,47,54,5,-1,10,-37
1523209378465206,38,13,-7,13,-1,-2,23,55
1523209378466210,12,4,35,-46,-3,1,3,-29
1523209378466210,-34,4,-20,30,1,-5,-17,-12
1523209378487265,-5,-26,-12,-63,-6,-1,-17,-7
1523209378487265,-72,3,41,13,3,0,-8,-12
1523209378488267,48,-1,26,10,-1,-1,-1,25
1523209378488267,4,18,-22,-9,1,1,29,-16
1523209378502306,-97,-27,-3,18,1,1,-4,12
1523209378502306,13,29,-4,-19,-2,0,-2,-8
1523209378510366,44,13,-3,1,3,1,7,8
1523209378510366,-53,-24,17,-9,-2,0,-17,-57
1523209378525603,107,13,-26,39,-2,-6,14,29
1523209378525603,36,-7,-27,-78,-4,0,-4,17
1523209378525603,-88,0,29,31,-2,-5,3,-22
1523209378525603,0,-6,-24,5,1,3,5,10
1523209378547425,22,-4,4,13,3,8,17,-29
1523209378547425,3,-12,15,-2,0,-1,-15,13
1523209378548427,78,22,31,28,2,4,38,24
1523209378548427,-26,-19,-11,-25,-6,-8,21,-22
1523209378561463,-4,7,5,19,0,3,-29,1
1523209378561463,-65,-10,-24,-6,-2,-5,11,-1
1523209378570661,-21,-4,0,-18,-1,1,-7,1
1523209378570661,-33,17,8,4,2,3,-10,23
1523209378584527,13,2,-26,-12,-2,-4,3,27
1523209378584527,5,-9,-16,-10,1,5,-5,-26
1523209378585528,-40,-11,-1,11,-7,-6,-8,9
1523209378585528,12,5,7,-21,3,7,19,6
1523209378607821,-43,-10,23,4,-2,-4,-32,-30
1523209378607821,43,3,-14,22,0,-3,13,22
1523209378608824,-38,-12,4,7,-1,-1,-9,-42
1523209378608824,49,6,0,13,1,3,-16,14
1523209378630646,-24,2,44,-17,-5,-6,-5,2
1523209378630646,-14,-2,-27,4,0,-1,-6,22
1523209378631647,34,-2,0,8,0,1,22,-31
1523209378631647,-45,-8,20,-2,-1,0,-19,0
1523209378644689,53,-7,-20,-3,2,4,3,-4
1523209378644689,-49,-4,19,11,3,2,23,7
1523209378645688,-77,-6,-17,-9,-2,-6,-24,7
1523209378645688,12,-9,-60,20,-5,-1,3,1
1523209378667746,-10,6,-2,-35,-3,-5,-14,-11
1523209378667746,35,13,32,-6,-8,0,12,-17
1523209378668748,9,-10,-34,2,5,6,17,-16
1523209378668748,-14,-12,-8,4,-1,3,9,-13
1523209378690806,35,11,-13,16,0,-8,-16,13
1523209378690806,-19,-11,23,9,3,-2,-19,-1
1523209378691812,22,16,20,9,-2,-2,4,13
1523209378691812,0,-10,-27,-14,2,-1,1,-46
1523209378704842,30,8,5,2,-3,1,-1,6
1523209378704842,52,3,1,-23,-2,-3,-17,13
1523209378705847,-74,-7,-15,35,0,-3,-8,21
1523209378705847,-23,5,28,-47,-3,-2,-1,-5
1523209378727913,-15,-7,-36,20,-2,-3,11,8
1523209378727913,-6,0,25,-17,-2,1,-3,-9
1523209378727913,-1,2,-27,0,4,4,5,-31
1523209378727913,-28,1,7,-15,-4,-4,-20,-23
1523209378750966,-16,2,80,-18,-2,1,20,-9
1523209378750966,-29,19,-20,36,3,-5,-5,48
1523209378751969,83,-29,59,14,-1,-1,-5,-8
1523209378751969,-31,-5,9,-33,-4,0,31,-7
1523209378765002,19,14,20,-14,1,2,-12,-1
1523209378765002,-51,-8,-15,6,2,2,-11,-2
1523209378766007,14,4,-42,30,-1,-3,-4,45
1523209378766007,121,13,60,-11,-1,1,-16,45
1523209378787062,-54,-5,-67,2,0,-4,3,-50
1523209378787062,57,2,29,-5,-5,-10,-22,3
1523209378788063,-19,-3,-24,40,2,1,8,14
1523209378788063,76,11,1,-22,-3,-7,-11,-7
1523209378811125,-16,-2,-22,-8,1,-2,-3,27
1523209378811125,-57,-7,-9,8,2,7,16,-26
1523209378811125,51,2,-11,-44,-4,-4,-28,10
1523209378811125,-46,-5,-46,19,3,3,53,26
1523209378825396,-54,0,21,-14,-5,2,8,3
1523209378825396,17,-10,-39,5,-1,0,-1,-26
1523209378826164,-25,5,24,-45,-9,-5,-1,-27
1523209378826164,7,3,3,25,4,1,-21,25
1523209378847220,-19,-7,-3,-3,-1,0,13,-16
1523209378847220,-24,-6,5,9,-7,-1,0,-41
1523209378848223,-38,-6,-35,10,2,-2,-6,-10
1523209378848223,8,9,28,13,-1,-6,7,45
1523209378871405,62,-18,-18,-8,-4,-3,-10,29
1523209378871405,-28,-16,-3,3,-2,-1,21,-17
1523209378871405,17,-2,6,-33,-4,0,-8,-27
1523209378871405,7,12,-34,33,7,4,0,-1
1523209378885323,-25,-21,-1,-17,-2,6,3,57
1523209378885323,3,0,13,-16,-3,-11,11,0
1523209378885323,67,4,17,1,-2,-6,-28,-52
1523209378885323,-2,-11,16,66,-1,1,8,-20
1523209378907380,-30,3,-18,-46,1,1,-6,26
1523209378907380,111,-11,9,1,0,4,10,26
1523209378908382,-27,16,-6,-4,5,4,33,13
1523209378908382,19,1,-12,-5,-5,-5,-28,-25
1523209378930446,35,2,12,25,4,2,15,-4
1523209378930446,16,17,23,-1,-1,-3,-25,-17
1523209378931444,-19,-19,-29,4,-1,-2,-3,14
1523209378931444,4,-2,11,-24,-5,-6,10,11
1523209378945482,32,10,0,-1,1,2,-6,-3
1523209378945482,-88,-9,-6,13,0,1,7,3
1523209378945482,-45,12,4,-16,-2,-2,-3,24
1523209378945482,-23,-2,13,-13,-2,-1,-4,4
1523209378967582,-6,-5,-7,12,-4,-3,-22,-53
1523209378967582,-15,-3,-37,-3,3,0,18,12
1523209378968543,-23,-1,-3,18,-2,-2,7,7
1523209378968543,65,5,-4,-4,2,5,-2,2
1523209378990839,-96,-5,36,-13,-2,-7,-9,-44
1523209378990839,38,-1,-39,36,3,3,-3,11
1523209378991604,32,12,13,-31,0,2,6,43
1523209378991604,-4,-13,-15,-48,-6,-6,17,-29
1523209379004640,79,8,9,17,5,-2,-5,32
1523209379004640,14,11,-8,59,-5,-2,-16,-15
1523209379005641,-64,4,18,-26,-3,-2,9,4
1523209379005641,21,-15,8,27,3,-1,-24,4
1523209379027709,36,2,44,-2,-4,-9,-12,8
1523209379027709,-39,14,101,-9,0,0,-3,16
1523209379028711,7,-17,-83,11,-1,0,-9,9
1523209379028711,-20,-4,-24,0,4,4,2,-7
1523209379050762,3,2,-15,27,-3,-5,-10,-43
1523209379050762,-19,-8,-5,-53,-3,-7,-19,15
1523209379051767,11,-1,3,-11,-1,2,16,-19
1523209379051767,21,14,19,12,-4,-6,24,64
1523209379064798,-39,-11,-24,-31,2,8,26,-17
1523209379064798,42,2,-1,16,1,2,-16,-31
1523209379065810,0,-7,10,-42,-7,-2,7,22
1523209379065810,-10,-19,-42,1,0,-4,-22,-8
1523209379087862,-54,8,27,16,-1,-2,-5,9
1523209379087862,19,6,-9,-18,5,6,31,-9
1523209379087862,26,10,13,54,3,2,-8,-23
1523209379087862,-32,-8,8,-40,-6,-4,-8,24
1523209379110931,25,-3,-34,-13,-4,1,5,23
1523209379110931,-37,-11,-18,-20,-1,-3,-12,-23
1523209379111924,74,2,1,-3,-1,0,18,-1
1523209379111924,-59,-7,34,22,-2,-3,-28,-61
1523209379125196,62,4,-8,19,2,-2,18,48
1523209379125196,-23,-1,-47,-36,-6,-5,0,-48
1523209379125960,22,-3,42,40,-2,-7,-38,12
1523209379125960,11,11,25,-20,-3,2,9,-14
1523209379147018,31,2,-69,0,1,3,-13,-1
1523209379147018,-64,-17,20,6,3,-5,6,7
1523209379148019,16,-3,-4,30,3,-3,-18,-2
1523209379148019,-17,8,13,-8,-4,-1,-4,1
1523209379171329,-12,4,15,10,8,8,-5,-37
1523209379171329,9,8,12,-5,-8,0,-8,45
1523209379171329,-5,-19,17,-10,1,-1,-11,-27
1523209379171329,-48,2,1,15,6,9,10,18
1523209379193139,33,21,-28,9,-2,-5,-6,-5
1523209379193139,41,1,42,-61,-11,-5,-5,19
1523209379194142,-4,0,16,-27,0,0,10,6
1523209379194142,10,-1,0,20,0,-3,-18,0
1523209379208178,83,-5,2,-5,-3,1,-1,-5
1523209379208178,-90,-6,-5,4,0,0,15,-9
1523209379208178,-6,13,-13,7,-2,0,1,26
1523209379208178,36,6,-42,-28,-2,-1,16,-24
1523209379230241,-6,1,22,28,-4,-1,2,-25
1523209379230241,39,-5,-12,-8,-1,-5,-9,40
1523209379231242,-32,-16,-4,-3,-4,-2,10,-21
1523209379231242,37,6,-25,7,-1,2,-4,17
1523209379244281,-71,10,49,-20,0,3,14,2
1523209379244281,65,-11,-55,-3,-7,0,4,-6
1523209379252296,72,8,44,3,-1,-1,-14,9
1523209379252296,-12,0,-27,-8,-6,-1,17,-21
1523209379267338,-117,-5,23,-7,-3,-5,-26,-1
1523209379267338,27,12,20,14,-2,-4,0,23
1523209379268341,-19,-6,-16,-12,4,6,2,-4
1523209379268341,57,-10,17,27,-3,-5,-5,-15
1523209379290633,4,11,-3,-29,1,1,14,20
1523209379290633,52,11,-22,0,4,4,-21,4
1523209379291402,-105,-24,7,-14,-5,-2,13,-59
1523209379291402,2,8,-15,4,2,-1,-4,17
1523209379304435,1,-2,-19,16,-7,-6,11,17
1523209379304435,22,-2,15,17,8,2,-22,-11
1523209379312458,107,7,35,17,-6,-6,19,-20
1523209379312458,-39,-12,-34,-54,-5,1,3,-13
1523209379327504,36,-9,1,11,3,-1,11,33
1523209379327504,-19,-18,3,27,-1,2,6,-9
1523209379328503,71,7,-21,-41,-2,-1,-9,21
1523209379328503,12,8,57,31,5,1,-7,28
1523209379350562,-73,-34,-68,-27,-8,-10,-23,-24
1523209379350562,-24,-1,18,-9,0,0,23,-30
1523209379351561,-70,6,-12,13,4,2,-7,4
1523209379351561,15,-6,-26,-15,-6,-6,-7,13
1523209379364597,22,-2,55,-2,-6,-10,-21,-51
1523209379364597,-59,-1,3,25,6,3,-3,-34
1523209379372853,-24,9,-43,-5,2,4,12,5
1523209379372853,-85,-5,11,15,0,-5,-21,-11
1523209379387657,30,5,14,18,4,6,30,-6
1523209379387657,24,-45,10,8,-2,-7,2,15
1523209379388659,-10,0,22,-7,0,1,-9,15
1523209379388659,-30,-6,-21,49,7,5,25,25
1523209379410720,-1,1,23,-27,-1,-4,-1,12
1523209379410720,36,12,-52,-32,-6,3,-4,-7
1523209379411725,5,-12,-6,14,0,-2,5,41
1523209379411725,23,3,41,-16,1,-2,-10,-1
1523209379424975,3,-5,-7,2,-6,-7,-7,-23
1523209379424975,1,22,-11,8,-1,1,11,55
1523209379432779,-47,-12,-10,-17,-6,-7,-14,-47
1523209379432779,-3,12,-10,-10,-2,0,19,-10
1523209379447818,43,-8,-6,11,2,5,6,-10
1523209379447818,3,18,8,-3,2,2,-8,1
1523209379447818,45,4,9,13,-2,-3,-9,44
1523209379447818,12,-8,52,-19,-2,-4,2,-11
1523209379471114,-36,-7,-102,-8,-1,0,-2,-9
1523209379471114,5,3,5,-21,1,2,-6,-14
1523209379471880,-25,3,-1,38,1,-1,6,-25
1523209379471880,45,1,19,-7,-4,-4,-6,11
1523209379483914,-41,-8,15,0,-1,3,8,35
1523209379483914,-9,16,6,3,0,0,-3,-16
1523209379492936,6,-7,39,10,-2,0,-4,-5
1523209379492936,-21,-19,-9,-53,-4,-1,-17,79
1523209379508104,-4,-13,-21,8,-2,-6,-2,-75
1523209379508104,-3,-4,0,-1,3,1,-24,14
1523209379508104,15,2,-37,5,-3,-2,5,-9
1523209379508104,-66,7,9,-2,-3,-5,-11,-61
1523209379531037,-22,2,21,-4,0,1,-18,21
1523209379531037,6,4,0,6,2,2,17,-18
1523209379531037,34,2,-32,-36,-1,-6,-4,3
1523209379531037,88,-3,17,15,-3,-2,-4,-10
1523209379553096,-7,3,-22,0,-2,1,0,17
1523209379553096,-13,0,46,-12,-1,0,17,-8
1523209379554098,-25,-15,-41,20,-2,-1,-22,-34
1523209379554098,11,10,-25,4,0,-2,16,27
1523209379568135,-24,3,42,-1,5,-5,-18,-61
1523209379568135,39,22,65,10,-6,-1,23,41
1523209379568135,-21,-2,-9,-25,-5,-5,-8,8
1523209379568135,21,3,13,-1,4,8,19,-22
1523209379590432,36,11,-16,32,3,2,-11,28
1523209379590432,-31,-15,25,-8,-5,-5,3,-21
1523209379591197,19,1,-57,-10,-1,-1,-1,1
1523209379591197,30,-7,10,7,5,3,-22,-34
1523209379613259,-72,-1,7,0,-7,2,37,28
1523209379613259,10,-12,-40,-17,-8,-10,-13,-5
1523209379614259,7,15,27,4,2,1,-10,26
1523209379614259,2,1,-8,-2,1,3,2,36
1523209379627301,60,4,-8,9,4,8,-1,-17
1523209379627301,-73,8,-14,6,-6,-11,-15,-17
1523209379628304,-1,-3,9,-28,-2,-3,-10,-34
1523209379628304,10,8,-1,58,2,-1,-6,0
1523209379650356,2,7,31,-40,-3,-1,4,-27
1523209379650356,82,-11,-72,2,3,-1,5,8
1523209379651357,-10,-26,77,17,0,-2,-16,-20
1523209379651357,-29,-6,-30,-10,-7,-4,2,-15
1523209379673652,29,-7,19,-10,-1,-3,-7,31
1523209379673652,34,-7,-34,-2,2,4,-10,-10
1523209379674418,-32,15,-13,3,1,-3,11,-2
1523209379674418,-37,-2,2,-13,-3,-1,3,38
1523209379687453,-5,-17,-15,0,-4,-1,2,-19
1523209379687453,-9,7,-3,-5,0,2,-15,-31
1523209379688458,-6,-25,17,13,-2,1,6,27
1523209379688458,-16,14,-14,-3,-1,-6,10,-9
1523209379710515,36,19,38,-9,7,2,-2,34
1523209379710515,-14,-18,-24,32,-7,-4,-12,-9
1523209379711521,-31,3,-3,-26,-4,3,6,-35
1523209379711521,5,11,-24,-13,-3,-1,-9,-25
1523209379733580,-7,-6,-25,-9,1,-2,-1,-17
1523209379733580,-50,-8,30,14,1,-5,-2,21
1523209379733580,17,23,-15,45,6,5,23,23
1523209379733580,-10,-34,-26,-86,-15,-8,-30,1
1523209379747613,11,-5,-20,-2,-2,3,42,68
1523209379747613,-62,6,38,9,-2,0,14,-34
1523209379748617,-94,-11,-30,-33,0,-3,-7,-19
1523209379748617,-9,9,22,29,2,6,0,-16
1523209379769906,26,1,-15,7,-6,-7,-13,21
1523209379769906,-55,-21,29,-42,-5,1,24,29
1523209379777714,20,14,10,-2,5,2,11,46
1523209379777714,41,-8,25,39,6,1,-10,-50
1523209379793740,-4,0,18,20,1,-5,-20,-16
1523209379793740,85,32,4,-65,-6,1,25,43
1523209379794741,33,21,5,46,-1,1,-13,6
1523209379794741,41,13,-10,4,2,4,13,40
1523209379808008,-71,-26,-8,-19,-6,-12,-22,-64
1523209379808008,26,11,-6,41,6,-1,-4,5
1523209379808774,15,0,34,10,-5,0,33,13
1523209379808774,-7,-12,38,-7,-1,2,0,-9
1523209379829837,28,21,14,12,8,13,24,45
1523209379829837,-28,-38,-2,-16,-5,-5,4,-35
1523209379830833,12,-3,-1,-17,1,1,-8,2
1523209379830833,34,-9,-20,27,-3,-5,10,1
1523209379852894,30,27,-6,-10,-6,-1,-2,16
1523209379852894,16,8,-8,14,5,-1,-21,5
1523209379853896,57,-20,1,-13,-7,4,-27,-6
1523209379853896,-51,22,-18,2,-2,-9,30,-7
1523209379868106,-19,-8,9,-9,-7,-7,-21,-73
1523209379868106,4,-24,-90,-9,-2,-2,-6,5
1523209379868106,60,20,8,6,1,-3,13,-5
1523209379868106,43,4,25,-11,-1,2,-5,-11
1523209379890226,-34,-19,-3,29,-1,-6,-11,23
1523209379890226,-82,-1,18,-18,-2,3,-18,-27
1523209379890995,-5,-22,-24,-4,4,3,24,7
1523209379890995,13,-4,13,5,-2,-4,-8,20
1523209379913054,-22,-10,1,18,3,4,8,-13
1523209379913054,58,10,3,-17,-1,-3,-46,-7
1523209379914055,-11,-6,-34,-52,-5,-1,29,-10
1523209379914055,-11,14,13,80,2,3,-4,6
1523209379927094,0,-26,-16,-95,-17,-14,-25,22
1523209379927094,21,14,5,19,6,3,10,-2
1523209379928094,-10,-10,5,-4,-1,-3,-13,-24
1523209379928094,-48,-16,22,4,-3,-5,-3,8
1523209379950193,127,17,-83,16,-1,-3,-9,-16
1523209379950193,-35,-19,27,10,-4,-2,2,5
1523209379951155,1,-8,-28,-21,-2,-5,-12,7
1523209379951155,-37,-14,3,-13,5,3,-13,-14
1523209379973450,55,8,25,19,3,6,2,38
1523209379973450,105,7,-10,36,-3,-3,13,16
1523209379974215,-58,1,7,-27,-4,-5,-15,-36
1523209379974215,-29,10,-41,-10,1,1,-14,6
1523209379987252,-27,-7,42,-2,-5,-2,12,10
1523209379987252,-2,6,-39,-8,2,2,16,50
1523209379988253,-21,-7,0,8,-6,-7,-14,-48
1523209379988253,11,13,1,-13,1,0,-13,-22
1523209380010324,-77,-8,-16,9,-5,-6,-11,3
1523209380010324,29,-1,17,12,1,1,18,29
1523209380011319,-19,-4,15,5,1,-2,0,20
1523209380011319,-9,-5,15,-9,-7,-6,-2,2
1523209380033373,-7,2,28,-14,5,8,26,-11
1523209380033373,6,-1,-6,34,-3,-1,11,-21
1523209380034376,-110,-17,-28,-73,-10,-5,-14,-19
1523209380034376,3,-7,-24,-9,-2,-3,18,-12
1523209380047410,18,-4,7,7,6,9,4,17
1523209380047410,-5,-18,-7,2,3,-6,-32,1
1523209380048411,47,2,16,41,4,8,21,14
1523209380048411,20,-4,3,-10,-5,-4,-11,-76
1523209380070630,-74,1,49,8,-2,-3,-7,24
1523209380070630,-35,-4,7,-24,3,1,3,-7
1523209380070630,-13,23,-5,42,2,-1,-26,-42
1523209380070630,-8,-12,1,-2,3,-2,-3,41
1523209380093544,-4,1,-9,20,-2,-2,7,-1
1523209380093544,25,1,10,-26,-5,2,5,-20
1523209380093544,-44,9,10,3,1,-6,-15,53
1523209380093544,46,10,-4,44,4,3,8,-2
1523209380107807,5,-7,-8,-44,-2,-3,2,-12
1523209380107807,1,8,-5,14,-1,2,-30,25
1523209380108768,-51,-1,-1,-2,-1,-6,80,-9
1523209380108768,7,-19,5,-18,1,1,-17,32
1523209380129627,-33,13,-32,-12,-4,-6,-1,-10
1523209380129627,-6,-11,7,-5,-1,-1,0,22
1523209380130630,66,-4,6,9,0,0,-24,-20
1523209380130630,-8,0,-21,5,0,-1,6,29
1523209380152689,25,9,3,-14,-1,-2,6,-5
1523209380152689,-7,20,-14,-1,-1,-3,-5,-31
1523209380153691,14,-2,14,9,-1,2,-3,41
1523209380153691,-38,-3,0,7,1,4,11,-42
1523209380166729,13,-2,-3,5,-4,-3,-20,25
1523209380166729,-11,-18,-14,11,2,0,8,-33
1523209380174982,-16,9,-2,25,-1,-3,-18,-2
1523209380174982,-42,-4,-2,-14,-4,-3,-5,14
1523209380190026,50,-10,-13,11,3,3,-11,-35
1523209380190026,-34,6,3,6,3,4,30,-47
1523209380190790,98,20,17,25,1,3,-15,5
1523209380190790,-93,-20,13,-1,3,0,0,0
1523209380212850,-11,-14,-2,4,1,-1,23,1
1523209380212850,-18,-4,3,-26,-5,-4,-20,5
1523209380213851,50,15,-2,-6,0,1,2,5
1523209380213851,-15,-27,-22,14,-5,-6,6,7
1523209380226896,-19,-30,36,2,3,6,-8,-4
1523209380226896,-1,20,-9,4,2,-5,-18,7
1523209380234907,-35,-17,4,-8,-8,2,23,-24
1523209380234907,57,18,-39,-28,-3,-3,2,15
1523209380249947,-40,4,-2,-11,-2,-6,-18,24
1523209380249947,24,-11,8,-7,-9,0,27,36
1523209380250950,13,6,0,2,-4,-5,-12,-16
1523209380250950,-31,-11,-33,28,3,-1,8,-9
1523209380273246,10,7,-13,-1,-2,6,-8,-3
1523209380273246,8,18,-6,-5,-1,-4,-19,30
1523209380274010,42,-14,-20,-9,3,4,42,16
1523209380274010,-37,-11,25,-9,0,0,6,-3
1523209380287048,7,-1,34,36,-2,0,-3,-6
1523209380287048,-82,-23,21,-43,-7,-7,-17,-13
1523209380295070,69,1,-44,27,4,-2,-18,-7
1523209380295070,44,21,-8,-45,-6,-5,-15,-3
1523209380310115,-4,-9,-13,-26,-9,-5,21,28
1523209380310115,26,-24,10,22,3,2,4,-6
1523209380311118,-51,0,24,-4,-1,0,-5,6
1523209380311118,33,19,29,-13,1,2,-5,-28
1523209380333170,-51,-1,-32,37,3,-5,-4,-9
1523209380333170,47,14,31,1,-8,-3,31,-7
1523209380334173,-51,1,3,-19,4,3,-11,10
1523209380334173,-6,4,-13,-3,-3,-1,-8,-9
1523209380347206,48,17,18,6,-1,-5,-33,7
1523209380347206,-57,-16,-24,22,0,4,26,-27
1523209380355227,19,-10,4,-14,-6,-9,-25,-23
1523209380355227,14,-1,8,15,-3,-3,-9,27
1523209380370505,29,3,-17,-25,-4,1,2,-8
1523209380370505,-34,10,-6,-9,1,-8,-22,-31
1523209380370505,38,-24,-24,-3,-3,4,22,48
1523209380370505,-6,8,28,-15,-1,2,4,-8
1523209380393332,48,8,-6,-1,0,2,5,-44
1523209380393332,63,1,-26,23,0,4,19,18
1523209380394340,-73,-8,54,-16,-2,-1,-11,-8
1523209380394340,27,-8,20,20,-2,-3,-4,14
1523209380406363,1,0,10,-30,2,2,14,21
1523209380406363,1,-10,4,-10,0,-1,-29,-8
1523209380415624,-26,7,-15,7,4,3,20,3
1523209380415624,49,0,13,-2,-2,-4,-13,8
1523209380430428,-10,-1,15,15,-6,-3,13,-7
1523209380430428,-62,5,-11,-36,-3,-7,-4,-22
1523209380430428,-10,15,7,9,3,2,-12,-9
1523209380430428,45,3,-53,-15,-3,-1,6,15
1523209380453490,-7,0,14,42,2,-4,-39,-26
1523209380453490,2,1,-6,-33,-6,-4,5,11
1523209380453490,19,6,1,4,-2,-1,13,-24
1523209380453490,10,-2,-7,-15,-4,-1,2,-11
1523209380475547,-52,-1,-12,1,3,-1,9,5
1523209380475547,14,-3,22,19,1,1,-5,16
1523209380476552,1,-1,3,1,-4,-4,-10,3
1523209380476552,49,13,-4,-10,-3,-2,-1,20
1523209380489822,-32,9,-18,-10,0,1,4,5
1523209380489822,-10,-34,29,11,6,3,-24,-15
1523209380490588,-20,2,-28,44,0,1,43,41
1523209380490588,-50,15,-18,-81,-12,-5,-5,-45
1523209380513648,26,4,51,8,-1,0,0,3
1523209380513648,-7,13,13,6,0,-1,6,-25
1523209380513648,-30,-12,-72,7,-3,-9,-32,21
1523209380513648,-91,-44,17,-1,-2,-5,-13,5
1523209380535708,13,10,-6,-5,-2,-2,32,4
1523209380535708,4,-3,32,0,-2,6,-11,-12
1523209380536710,47,26,40,0,0,-4,-16,0
1523209380536710,-22,9,-34,12,2,2,19,9
1523209380549747,69,12,-21,-11,0,0,-22,-8
1523209380549747,39,-6,3,18,-3,1,10,22
1523209380550747,41,-1,4,-12,1,5,1,0
1523209380550747,-69,-14,8,10,-5,-5,5,16
1523209380573848,35,7,19,6,3,5,-1,18
1523209380573848,-70,6,-54,-6,-1,-5,-7,-46
1523209380573848,64,2,7,-2,-2,-3,-34,-10
1523209380573848,28,9,23,-14,2,8,48,-26
1523209380595868,-26,-7,-19,32,1,2,17,14
1523209380595868,-17,-5,-6,-18,-2,2,-9,7
1523209380596869,-38,-12,-15,-12,-4,-7,-13,-8
1523209380596869,83,-1,-9,9,5,3,-8,-1
1523209380609909,-92,-13,-24,-1,-5,-7,-17,-17
1523209380609909,16,19,-22,-17,-2,-1,26,-3
1523209380610918,-19,9,32,9,1,3,-7,-6
1523209380610918,56,3,-6,-5,2,5,-9,29
1523209380633018,-22,-1,24,-6,1,0,-3,-21
1523209380633018,-16,14,23,21,1,-3,4,-23
1523209380633968,-19,-24,-37,-27,-6,-6,-5,43
1523209380633968,-33,9,2,41,4,-1,-2,-11
1523209380656026,43,4,-2,-25,-1,4,-12,4
1523209380656026,-76,-13,24,-4,-3,-12,1,17
1523209380656026,16,-22,-6,-9,-3,-3,20,11
1523209380656026,68,0,0,-25,-3,-3,-1,-8
1523209380670301,-69,-11,-10,14,1,0,-11,14
1523209380670301,44,6,-20,3,-2,-1,-9,-3
1523209380671067,-21,-6,-4,-22,-5,-3,-27,-34
1523209380671067,29,-6,11,-8,-3,-2,19,-19
1523209380693134,3,-7,-5,17,-3,-4,-5,-9
1523209380693134,83,20,-5,17,3,4,1,47
1523209380694133,-4,1,1,-9,1,-1,1,-25
1523209380694133,-64,2,7,48,4,6,-1,6
1523209380716187,13,3,-9,-12,-2,-1,-4,-71
1523209380716187,-24,-22,-41,6,0,0,9,20
1523209380716187,-47,19,22,-4,2,2,0,-9
1523209380716187,41,18,23,18,-2,-6,-19,8
1523209380729221,68,-3,-1,4,1,0,-15,23
1523209380729221,-33,-3,-18,-44,-3,1,44,37
1523209380739247,-11,3,4,24,2,3,1,-21
1523209380739247,-15,1,0,-28,-5,-9,-18,9
1523209380753285,14,-3,17,-9,0,-2,1,-13
1523209380753285,8,11,-2,4,0,1,-16,-9
1523209380754291,82,-18,13,17,-4,-5,31,43
1523209380754291,-6,-10,18,-53,-7,-1,-2,-1
1523209380775344,-63,1,-31,-4,-2,-5,0,-26
1523209380775344,57,15,5,18,-1,-3,-46,-4
1523209380776351,-53,-14,-10,9,2,8,74,14
1523209380776351,-26,-13,-17,30,-2,-1,-11,-16
1523209380790384,38,-6,-9,-5,-2,1,-1,24
1523209380790384,20,14,-6,-9,0,1,8,-3
1523209380790384,-11,-1,2,4,-3,-2,-20,-9
1523209380790384,-27,-7,-8,6,1,4,19,5
1523209380813445,-2,-14,-33,-3,-2,-1,2,-28
1523209380813445,-20,-7,10,9,-3,-3,-4,-5
1523209380814598,14,12,20,-27,-4,-6,-21,6
1523209380814598,44,7,-5,40,4,-1,2,-1
1523209380835506,38,37,6,-27,1,4,7,32
1523209380835506,-18,-20,-31,-9,-2,-4,-19,-50
1523209380836506,-57,6,-3,2,-4,-5,-19,15
1523209380836506,-36,5,2,-22,2,0,-11,1
1523209380849541,84,-4,-4,7,-3,-2,-2,5
1523209380849541,-57,-5,3,8,0,3,-1,-7
1523209380858569,71,8,8,-25,1,1,27,18
1523209380858569,9,-9,-18,39,-3,-6,-36,-5
1523209380873823,0,-7,3,-57,-7,0,15,19
1523209380873823,29,3,21,16,2,3,6,8
1523209380874608,-19,-13,-18,-14,0,-1,-31,-16
1523209380874608,3,24,1,14,-1,-6,-5,-5
1523209380895664,-35,-23,21,9,-1,1,-6,-8
1523209380895664,-6,-2,-12,-8,-2,-2,26,15
1523209380897670,-24,-5,17,-13,0,3,-14,-35
1523209380897670,-51,-10,-1,15,1,-2,11,33
1523209380909708,3,2,0,-19,-5,-4,5,18
1523209380909708,-18,10,26,-3,3,4,-1,16
1523209380918725,4,-16,4,22,4,5,4,-32
1523209380918725,-76,-13,-4,-20,-4,-4,-12,-3
1523209380932765,1,4,2,22,3,1,26,-6
1523209380932765,17,-1,-2,13,2,-6,-21,11
1523209380934769,2,7,-4,-13,-6,-3,-4,-42
1523209380934769,27,-2,4,-12,1,1,-6,-19
1523209380956061,3,-21,11,23,0,-2,-13,-14
1523209380956061,-37,0,-8,-12,2,3,-1,-16
1523209380957868,-5,-8,-19,-3,-2,-4,-3,14
1523209380957868,25,-4,-2,12,1,1,34,-16
1523209380969975,2,-3,10,-3,-3,0,-3,10
1523209380969975,-4,-6,-26,-9,-4,-5,-1,-30
1523209380977882,39,3,12,4,-1,1,-26,20
1523209380977882,73,0,46,10,3,5,10,11
1523209380992926,-8,9,5,-26,-2,0,19,10
1523209380992926,24,-5,-2,11,-2,-1,-7,0
1523209380994928,-10,-7,10,-8,-5,-2,6,21
1523209380994928,-17,12,-24,-18,-5,-5,-4,-40
1523209381015984,-73,-19,-5,40,3,1,-2,10
1523209381015984,48,16,9,-9,-1,3,-6,-1
1523209381016987,35,-16,-28,11,-3,-9,-12,-15
1523209381016987,-113,-10,-24,-38,1,4,-6,6
1523209381029018,37,12,30,-2,-6,-8,13,19
1523209381029018,9,-5,-3,19,1,3,8,23
1523209381038041,52,18,18,-13,-2,-3,-11,4
1523209381038041,-3,-13,2,12,-1,-4,8,-6
1523209381053085,-42,-14,-53,-5,-1,-4,-14,-53
1523209381053085,40,4,39,4,0,1,-9,-6
1523209381055088,-4,-3,3,-6,-3,4,19,31
1523209381055088,23,-1,-1,-10,-2,-5,-16,-3
1523209381076150,-82,0,18,-7,2,5,33,-1
1523209381076150,-12,-7,-3,0,-4,-7,-12,-3
1523209381077146,-11,-2,-5,3,-2,-3,-1,-5
1523209381077146,-63,-5,-9,-22,-1,6,-26,-5
1523209381089412,71,18,-6,12,1,-4,-12,23
1523209381089412,-37,-8,0,-12,-6,-3,52,-31
1523209381098201,30,19,-10,16,1,-6,-13,25
1523209381098201,-57,-17,0,0,1,3,5,-13
1523209381113241,73,12,4,-4,4,2,-17,39
1523209381113241,-38,-27,-1,25,-1,-6,-16,1
1523209381115248,-10,-9,-4,-66,-3,-6,-23,-7
1523209381115248,35,14,-12,-7,-1,8,62,-21
1523209381135303,-13,4,8,0,-2,-3,-4,17
1523209381135303,-28,-3,-15,1,5,3,-44,19
1523209381137305,3,11,3,17,-3,1,73,-47
1523209381137305,-34,-18,-26,2,-7,-8,-65,14
1523209381149339,-13,-4,4,-14,-2,0,17,-16
1523209381149339,-9,2,3,-4,-2,3,-11,-18
1523209381158362,35,22,-4,12,3,4,14,-31
1523209381158362,106,-40,48,-7,-2,-9,-6,29
1523209381173636,-38,6,-12,26,-3,0,13,-62
1523209381173636,36,5,-18,-36,-7,-9,-16,28
1523209381174404,5,-19,14,19,2,5,-12,41
1523209381174404,17,23,8,6,5,4,0,-32
1523209381195460,48,-16,-14,-42,-5,-1,15,25
1523209381195460,23,8,17,24,3,0,5,-8
1523209381197465,-56,-3,3,15,0,-3,-44,14
1523209381197465,64,9,-20,-31,-5,-1,61,0
1523209381209500,-48,3,10,3,2,-2,-33,-13
1523209381209500,-32,-4,2,4,1,-2,8,5
1523209381218521,-29,19,-8,29,4,5,21,-5
1523209381218521,10,-2,-16,4,-4,-6,-62,34
1523209381233562,13,0,-14,16,4,8,21,-2
1523209381233562,37,16,6,-21,-4,-10,6,-21
1523209381234564,54,-8,27,0,-6,-6,-4,-1
1523209381234564,-52,-3,-1,-3,-3,0,19,21
1523209381255620,24,9,3,8,0,0,-43,-47
1523209381255620,-50,-6,15,-7,2,5,14,25
1523209381257628,33,-10,-27,0,2,4,1,18
1523209381257628,-52,10,30,22,-8,-7,-11,-38
1523209381269894,-37,-9,-19,-65,0,-1,7,6
1523209381269894,56,5,0,18,-2,0,-18,26
1523209381278681,-6,9,-19,-11,3,3,-14,-45
1523209381278681,34,7,1,-3,2,5,22,-12
1523209381292724,-76,-13,-48,40,-6,-16,-29,21
1523209381292724,32,-9,-11,-54,-8,-1,7,-22
1523209381294724,-18,-1,-3,-12,-3,-3,3,14
1523209381294724,101,14,-8,14,7,7,36,19
1523209381315781,-22,-10,9,-6,-1,-1,-15,-7
1523209381315781,23,13,22,7,-1,0,7,31
1523209381317786,-10,-14,-9,-8,-6,-7,0,8
1523209381317786,-13,-12,12,-22,5,2,-11,-10
1523209381328815,82,6,15,95,5,5,0,40
1523209381328815,-28,-2,-16,-62,-8,-5,-11,24
1523209381338912,-2,-8,1,17,0,1,23,-4
1523209381338912,-64,9,0,3,2,0,4,-27
1523209381352878,16,-12,12,10,2,-2,-10,-11
1523209381352878,-29,2,-8,12,4,3,-6,-25
1523209381354884,-4,3,3,-6,0,-3,-12,-13
1523209381354884,12,13,-13,15,-4,-4,-26,11
1523209381375943,19,2,-7,-15,-5,-1,19,1
1523209381375943,-43,-3,-3,13,5,7,4,-46
1523209381376943,31,5,2,-11,-2,-7,-13,43
1523209381376943,-39,-15,5,5,0,-2,-5,-15
1523209381389975,54,-8,0,-2,-5,-5,-13,24
1523209381389975,-3,1,1,19,0,-1,19,-50
1523209381397998,-6,-9,-21,11,-3,1,-16,1
1523209381397998,-34,-5,-23,-21,-4,-5,2,-3
1523209381413040,-13,2,10,8,1,-1,8,-31
1523209381413040,81,-2,-1,22,-2,-5,-4,-23
1523209381415043,-9,6,30,-30,-1,3,0,-24
1523209381415043,12,-4,-42,-10,-3,3,14,25
1523209381436103,-40,9,-2,-18,0,4,9,-11
1523209381436103,41,6,14,23,-2,-4,3,15
1523209381437102,-16,8,11,-24,5,8,4,-29
1523209381437102,19,10,14,73,0,-4,-16,0
1523209381458160,-59,-31,31,-71,-1,3,-1,-23
1523209381458160,27,-5,-14,2,4,5,22,7
1523209381460163,0,6,-8,2,-4,-5,-22,12
1523209381460163,-71,-8,-1,-11,-2,-2,8,-2
1523209381473435,-13,6,-7,9,0,-3,-15,-8
1523209381473435,-41,-12,5,2,-2,0,-1,30
1523209381475203,18,-12,-4,4,-3,-8,10,-59
1523209381475203,18,-1,2,1,0,0,-3,7
1523209381495296,52,15,-7,2,-5,-2,6,-4
1523209381495296,9,-12,-11,-21,-4,-3,-18,10
1523209381497262,0,10,9,47,2,0,-3,17
1523209381497262,48,-21,16,-28,2,5,13,35
1523209381518556,-9,1,-1,6,1,-2,2,5
1523209381518556,8,8,15,-9,-5,-4,-29,17
1523209381520448,-22,-14,-26,-48,-4,1,20,-5
1523209381520448,5,16,8,9,0,-2,6,-61
1523209381533359,48,5,0,-2,-2,-5,-10,16
1523209381533359,-6,21,-14,19,0,3,9,18
1523209381534360,-102,-17,34,9,1,1,1,43
1523209381534360,10,12,-9,-18,-4,-3,-11,-48
1523209381555654,4,-1,-26,6,-1,-2,-18,-5
1523209381555654,-50,-16,-5,-21,-2,-1,21,15
1523209381557441,29,7,12,2,-1,-6,-2,16
1523209381557441,32,8,27,5,3,6,-4,34
1523209381578478,-38,8,-12,7,1,-2,6,20
1523209381578478,22,12,25,-2,1,-2,-14,-8
1523209381579481,-27,-39,-67,6,-2,3,-3,-12
1523209381579481,-2,6,4,-10,-4,-6,-2,11
1523209381592520,-71,-6,52,-3,-2,-4,28,-18
1523209381592520,-60,-23,-72,2,4,10,6,-41
1523209381599533,74,22,0,-9,-1,-5,-2,26
1523209381599533,49,15,-57,7,-1,-1,-1,35
1523209381615814,60,-6,32,-18,-8,-5,-28,-1
1523209381615814,9,2,-19,-1,-2,0,22,12
1523209381617582,-29,-6,-6,13,2,1,-31,-23
1523209381617582,9,6,-22,-7,-2,4,1,30
1523209381638797,-5,6,3,10,4,5,25,-6
1523209381638797,-14,-9,-2,-5,-2,-2,28,0
1523209381639640,32,21,6,16,-4,-4,-19,-7
1523209381639640,-58,-10,25,-3,-1,-5,-15,8
1523209381652675,-37,-1,0,-32,-5,-1,6,19
1523209381652675,37,0,12,16,4,-1,-28,-19
1523209381659700,-2,-2,5,9,4,3,20,-28
1523209381659700,30,-3,1,-11,-4,-2,-8,-8
1523209381675741,-62,-11,4,6,-4,1,24,9
1523209381675741,-17,-26,19,-14,-9,-14,-34,-36
1523209381676740,4,13,-7,-32,1,3,11,10
1523209381676740,3,-2,35,10,0,-2,1,-31
1523209381697799,47,5,-35,6,-1,0,-26,18
1523209381697799,21,6,9,-5,-2,-2,27,32
1523209381699801,-29,4,24,11,-2,-5,-1,-7
1523209381699801,-28,-10,18,-18,-2,-3,-7,-34
1523209381712877,-60,-3,-22,9,5,1,1,19
1523209381712877,24,2,15,9,-1,0,7,17
1523209381719947,-9,-1,-4,-31,-5,-4,-15,-14
1523209381719947,-29,-22,-44,31,2,-3,7,13
1523209381735896,64,-3,1,-3,3,-2,-11,5
1523209381735896,2,6,2,5,-3,-3,-12,-21
1523209381737900,34,-15,-2,-4,-6,-4,-6,-5
1523209381737900,-1,0,9,-9,0,3,-11,-28
1523209381757957,-89,-3,6,6,2,3,-6,0
1523209381757957,-93,-10,-13,5,-4,0,1,-22
1523209381759967,37,6,-26,-9,2,-1,-15,-17
1523209381759967,16,8,4,16,-2,-2,21,7
1523209381773147,20,1,6,0,-1,-1,4,3
1523209381773147,38,13,25,-1,2,4,10,17
1523209381779011,-88,-18,-13,2,-1,-6,-32,-6
1523209381779011,-20,-8,7,-8,-4,0,29,27
1523209381796056,16,3,-29,-2,0,1,-4,-14
1523209381796056,71,0,-24,1,1,-1,-31,-11
1523209381797058,-87,-11,15,8,-3,-4,20,30
1523209381797058,-6,-3,16,-10,-4,-7,-8,17
1523209381818353,16,0,-65,-3,-2,-2,-7,-7
1523209381818353,27,3,11,-15,1,2,-8,-7
1523209381820120,10,11,-1,7,-1,0,14,-20
1523209381820120,50,-9,3,-2,0,1,-6,0
1523209381832152,40,9,-4,2,-2,-3,7,10
1523209381832152,-4,-24,4,9,1,1,24,23
1523209381839407,-62,-10,-3,-22,-6,1,-9,-46
1523209381839407,52,16,1,3,1,-2,13,23
1523209381856216,-28,25,21,3,-5,-6,-29,-53
1523209381856216,-14,-8,-23,3,1,0,14,-9
1523209381857218,25,-32,31,9,2,4,19,10
1523209381857218,-23,-3,7,1,3,2,-12,7
1523209381878275,55,-2,32,-12,0,-2,-3,-16
1523209381878275,-40,-3,-53,12,-9,-7,-18,-33
1523209381879278,-12,1,-23,-33,-6,-5,-5,26
1523209381879278,51,7,-2,-1,-3,-3,-14,23
1523209381892314,0,-27,-9,-1,-7,-2,9,3
1523209381892314,5,13,30,-1,3,0,-5,13
1523209381899331,50,9,4,20,5,5,9,31
1523209381899331,-52,-6,-3,8,-5,-8,-12,-10
1523209381915374,-6,-9,-12,-40,-5,1,-1,26
1523209381915374,-20,-18,3,3,-1,-5,-9,0
1523209381917379,31,4,-8,5,0,2,28,21
1523209381917379,-37,5,6,-13,-1,0,-17,-18
1523209381938671,36,11,3,17,3,1,-26,1
1523209381938671,-16,-2,-9,-17,-2,-6,11,-10
1523209381939436,24,4,58,26,2,1,-8,10
1523209381939436,-68,-15,-47,-31,-8,-8,-30,-4
1523209381960494,1,-16,1,3,0,-1,9,-15
1523209381960494,35,16,1,16,2,7,21,33
1523209381962499,-44,27,10,-13,-1,-2,-20,-54
1523209381962499,21,-13,-3,6,-1,-3,-4,-4
1523209381975540,-6,-7,2,2,2,-1,-3,16
1523209381975540,-15,8,14,-9,-5,-4,12,-32
1523209381977537,-13,-4,-17,-3,2,5,-1,-14
1523209381977537,71,13,4,-2,0,8,-16,-7
1523209381998620,-105,-16,-8,1,0,-6,14,14
1523209381998620,69,4,18,-7,-2,-3,-26,15
1523209381999596,61,1,-23,15,-1,-2,-5,13
1523209381999596,13,6,-6,-5,1,-2,22,6
1523209382011629,22,-4,31,3,1,2,-2,-9
1523209382011629,-8,24,-2,4,1,0,-7,21
1523209382020691,45,-11,-24,-6,-4,-2,-22,-10
1523209382020691,-27,-6,9,6,3,1,19,37
1523209382035735,4,21,-13,4,1,1,2,-25
1523209382035735,29,-13,15,-3,-1,3,20,18
1523209382037930,27,17,-6,-12,0,4,-11,10
1523209382037930,7,14,-10,19,6,-1,20,-6
1523209382057753,45,-6,-6,-10,-6,-5,3,-9
1523209382057753,-41,-1,-10,4,4,2,-19,4
1523209382059763,16,-11,-9,2,-7,-6,13,40
1523209382059763,-5,-27,-5,-12,-8,1,-9,-26
1523209382072025,-75,5,13,7,6,6,10,-2
1523209382072025,48,2,1,0,0,2,20,-7
1523209382080821,-54,11,15,-4,-4,-2,-3,-12
1523209382080821,-34,10,-4,12,5,2,2,-3
1523209382095854,42,-1,-4,0,-2,-1,1,3
1523209382095854,11,-9,18,-5,-5,-5,-7,26
1523209382096856,-70,-3,-32,1,2,-5,3,-14
1523209382096856,81,7,8,-4,0,0,-40,-30
1523209382117911,-10,0,11,2,0,4,44,12
1523209382117911,-71,-6,-3,0,-1,-5,-15,-34
1523209382119916,111,3,-11,6,1,0,5,43
1523209382119916,-38,-1,17,1,-1,0,11,2
1523209382131950,48,4,-5,1,0,-4,-25,19
1523209382131950,36,1,-8,-4,-5,-8,-8,-34
1523209382140976,-8,-13,-13,-3,-4,-4,10,1
1523209382140976,-44,3,-8,-1,0,3,-7,-73
1523209382156012,38,-13,3,-1,-3,-4,-2,0
1523209382156012,43,15,9,0,1,3,2,23
1523209382157015,-32,-2,21,3,0,0,5,-41
1523209382157015,23,5,-12,-2,-1,-1,11,3
1523209382178071,0,8,10,-3,-5,-4,-10,1
1523209382178071,-8,-14,-29,-6,0,2,6,-6
1523209382180079,-32,23,27,6,2,0,-5,4
1523209382180079,-39,-3,0,2,-2,-4,2,11
1523209382192110,-8,-18,-12,-3,-2,0,4,-7
1523209382192110,-31,-4,31,4,2,2,-28,5
1523209382201132,9,-2,26,-4,-2,-5,-3,-51
1523209382201132,18,-12,3,-1,-3,1,20,23
1523209382215207,55,-1,-20,-1,-2,0,-16,32
1523209382215207,-12,7,8,-6,-3,-1,9,15
1523209382217175,48,-3,-9,-2,-1,-2,-12,-13
1523209382217175,71,3,-5,6,0,-3,-14,2
1523209382238466,-56,1,7,-6,-4,-1,12,0
1523209382238466,5,3,37,2,1,1,0,-24
1523209382240236,-56,-31,-32,-7,-2,-1,-6,3
1523209382240236,15,-18,8,2,1,-4,-3,3
1523209382252267,-22,8,0,5,3,0,6,-14
1523209382252267,-15,-18,-13,-11,-7,-3,-5,9
1523209382260290,-3,3,13,9,4,0,-2,46
1523209382260290,-51,1,-15,-5,0,-4,-8,-65
1523209382275333,25,-3,18,-3,-2,-4,-10,10
1523209382275333,-4,-4,-17,5,-2,-1,-7,25
1523209382277334,-6,8,1,-7,-3,-1,9,20
1523209382277334,-13,-29,-12,-3,0,2,-1,5
1523209382298391,-47,10,13,1,-5,-5,-15,-26
1523209382298391,59,-12,-30,-11,-5,-6,12,2
1523209382299432,89,2,9,10,0,-3,-1,-2
1523209382299432,-21,7,12,-6,-1,3,21,15
1523209382311425,-32,-6,-8,-1,3,3,-4,-17
1523209382311425,4,-9,17,5,2,3,11,-9
1523209382320650,3,-23,-16,0,-2,0,8,-37
1523209382320650,-4,8,-16,-3,-6,-7,-20,2
1523209382335491,20,0,-22,-2,2,4,11,-7
1523209382335491,-19,-3,-22,3,1,-1,-3,5
1523209382337494,-69,-1,8,1,2,1,2,1
1523209382337494,77,20,10,-2,-2,1,-10,-1
1523209382358572,34,-2,-1,4,0,-5,-33,32
1523209382358572,-110,-11,-13,-18,-11,-4,44,-18
1523209382359558,31,-14,24,6,6,6,2,-1
1523209382359558,11,-12,26,3,-1,-3,-17,-12
1523209382380613,-6,0,7,-1,-1,0,33,15
1523209382380613,-65,1,-10,4,2,-2,-21,-17
1523209382382615,64,13,10,-5,-5,-1,9,25
1523209382382615,26,-3,-26,-3,-1,5,13,-2
1523209382395689,-15,13,9,3,-1,-3,-1,-6
1523209382395689,20,-33,-5,-1,-3,-4,-13,40
1523209382397654,-48,8,-3,3,0,4,13,4
1523209382397654,-32,-10,2,-2,3,0,-3,22
1523209382418798,26,0,-3,0,-1,-2,-23,-6
1523209382418798,90,17,-21,5,1,0,15,-19
1523209382419718,-79,-18,5,-9,-6,-8,-11,2
1523209382419718,-5,7,5,3,-2,-1,4,19
1523209382440776,7,-18,-59,-10,-5,-4,-20,36
1523209382440776,70,9,16,2,6,5,22,-6
1523209382441779,28,8,0,1,-2,-2,-16,-23
1523209382441779,-30,4,-6,-4,-3,-2,14,-16
1523209382455810,6,1,7,9,5,0,-41,-50
1523209382455810,11,22,11,-6,-1,2,38,40
1523209382457815,35,-3,-22,2,1,4,7,-11
1523209382457815,-82,-4,10,-8,-6,-4,-10,6
1523209382477868,-22,3,2,-5,-5,-9,-4,-46
1523209382477868,-35,2,11,1,0,-3,-27,5
1523209382479873,73,-11,23,-2,-3,-1,19,16
1523209382479873,-19,-6,-7,-2,1,-1,-2,6
1523209382500930,3,-4,-4,-3,-1,4,31,-5
1523209382500930,-28,7,-10,1,0,-1,-7,-15
1523209382501931,-30,1,-7,-9,-3,-5,-3,-6
1523209382501931,83,12,-1,0,0,-2,-17,17
1523209382514998,18,-10,-5,-4,-1,1,24,5
1523209382514998,35,7,12,-2,3,1,5,0
1523209382522222,-82,3,-5,1,1,5,-10,-20
1523209382522222,34,-25,-31,-5,-2,-8,1,3
1523209382538265,-5,5,13,-3,-2,0,-5,3
1523209382538265,-57,-15,-7,-3,0,-3,-27,-34
1523209382540033,6,-3,11,-3,0,-1,-7,53
1523209382540033,-10,5,-16,1,0,3,23,-34
1523209382561089,21,-7,10,1,-2,1,8,15
1523209382561089,-6,2,6,3,-1,-5,-10,11
1523209382562096,-11,-3,-38,0,3,-2,-9,-15
1523209382562096,13,0,-11,-8,-6,-2,6,13
1523209382575126,12,-9,-10,0,0,-3,17,9
1523209382575126,27,4,7,1,-2,1,-27,9
1523209382582144,43,5,-17,0,0,-1,29,11
1523209382582144,-27,7,5,4,0,-2,-2,-5
1523209382598425,-20,7,-7,4,1,0,-16,7
1523209382598425,-26,6,-17,-3,-1,-1,-18,-33
1523209382600193,17,-8,42,6,4,8,27,29
1523209382600193,5,2,9,-2,0,-9,-18,-27
1523209382621295,-9,1,12,-3,-5,-4,-8,-5
1523209382621295,-26,-11,-10,-3,-4,-2,-3,13
1523209382622251,-40,-7,-5,-3,-3,-6,-15,-47
1523209382622251,-11,-3,2,0,2,4,4,23
1523209382635286,33,4,0,1,3,6,7,-13
1523209382635286,-29,2,0,6,0,-3,-10,20
1523209382642310,-10,-25,-6,-13,-4,-2,-37,-25
1523209382642310,6,3,-1,-1,-1,-1,-1,7
1523209382658588,32,10,3,0,-4,-4,19,-9
1523209382658588,28,-13,-42,-3,-2,2,-3,-19
1523209382659354,-38,2,-3,-4,-5,-6,-3,7
1523209382659354,-20,17,-6,2,1,2,-10,-15
1523209382680406,-40,-13,-9,3,3,2,5,12
1523209382680406,57,2,12,2,-4,-1,-1,-2
1523209382682412,-42,13,10,2,-1,-4,-3,4
1523209382682412,26,-3,5,-3,-3,0,11,25
1523209382695445,-40,-11,-5,-6,-6,-2,-1,14
1523209382695445,0,9,11,-3,3,-2,-6,-63
1523209382701462,-29,-7,-7,-1,-1,0,10,-9
1523209382701462,6,6,7,8,2,2,-2,-3
1523209382718744,-92,-23,-5,-6,-2,-3,-15,7
1523209382718744,13,5,-29,-4,-5,-6,-13,8
1523209382719510,32,7,-4,1,0,-2,-44,5
1523209382719510,45,-3,-4,0,1,0,40,6
1523209382740569,-4,1,2,0,-3,0,-12,-31
1523209382740569,28,-21,8,-6,-4,-3,-12,13
1523209382742571,-46,14,28,-2,-2,-4,-11,9
1523209382742571,-9,-11,-10,-12,-7,-4,-24,2
1523209382755646,44,8,-10,-4,2,3,18,26
1523209382755646,-55,7,37,-5,-2,-4,0,-23
1523209382761622,84,6,-10,0,-1,-3,-4,-6
1523209382761622,19,-3,24,-5,-1,1,-11,8
1523209382777664,-11,9,3,-4,0,-2,5,18
1523209382777664,14,-2,12,7,1,3,4,20
1523209382779669,-39,-19,-15,-2,0,2,-21,-11
1523209382779669,-24,-14,32,3,-3,-9,6,9
1523209382800725,-33,-1,-38,3,-3,-3,7,-12
1523209382800725,-23,-6,-11,-3,-3,2,-8,10
1523209382801728,71,1,4,0,-4,-3,14,7
1523209382801728,62,6,8,-3,-2,2,1,19
1523209382814795,127,8,6,-6,-5,-4,-5,-4
1523209382814795,-95,-13,0,3,2,1,-1,-16
1523209382822015,-30,-6,-2,1,-2,-1,9,5
1523209382822015,11,13,-7,0,1,-3,-3,-17
1523209382838842,23,3,8,12,3,-2,2,-10
1523209382838842,19,9,-2,-5,-2,-2,1,-4
1523209382839829,7,2,-12,-4,-1,0,12,-18
1523209382839829,-125,-9,3,-3,-2,-5,-12,-31
1523209382860885,-97,-16,-6,-4,-4,-2,-10,-20
1523209382860885,59,11,7,6,3,1,18,13
1523209382861888,-25,1,-6,-2,-2,-1,-8,-83
1523209382861888,-84,-13,-13,6,0,-4,3,65
1523209382873924,14,-1,9,3,0,-1,-6,-32
1523209382873924,-78,-13,-2,-12,-3,1,-1,-11
1523209382882944,13,5,-28,-1,1,2,3,23
1523209382882944,23,5,-2,-1,1,6,5,-20
1523209382898221,-86,-11,0,2,1,-2,-10,-35
1523209382898221,45,4,-8,4,-5,-7,7,11
1523209382899991,24,2,7,-11,-3,1,-5,11
1523209382899991,6,-6,1,3,2,2,4,-9
1523209382921294,64,-5,2,1,3,2,-6,38
1523209382921294,14,1,2,-2,-3,0,7,-28
1523209382922047,28,-22,32,1,-1,-1,9,16
1523209382922047,87,-1,-14,-5,-7,-7,-12,-45
1523209382934079,5,4,1,-1,0,-4,-16,46
1523209382934079,-63,3,-7,10,3,2,5,2
1523209382943105,22,20,-2,-5,-2,-1,7,-3
1523209382943105,6,0,31,1,4,5,14,12
1523209382958149,9,20,-58,-7,-7,-4,7,11
1523209382958149,26,-11,11,-4,-2,-4,-14,-17
1523209382960150,-23,-3,-8,1,1,-1,4,11
1523209382960150,-57,0,11,3,0,-1,-8,8
1523209382980202,2,3,11,-5,-2,1,18,-7
1523209382980202,-18,-10,1,4,3,2,-8,-14
1523209382982208,4,7,1,6,1,0,-5,18
1523209382982208,-53,-6,-17,-11,-5,0,6,-25
1523209382994241,24,3,24,5,-1,-2,-9,-49
1523209382994241,68,-2,-16,-4,-3,-2,4,64
1523209383003263,-19,-6,12,0,-2,-4,-21,-4
1523209383003263,-4,9,-20,0,-1,-2,2,-15
1523209383018305,1,-7,23,2,1,-2,-3,15
1523209383018305,11,-8,-2,-9,-3,2,6,11
1523209383019309,-47,4,-5,-1,-1,2,12,5
1523209383019309,62,2,0,3,1,6,-5,1
1523209383040367,5,-18,-9,-4,-1,0,5,1
1523209383040367,-1,5,41,-1,3,1,-4,8
1523209383042378,14,-23,1,5,0,-4,-10,11
1523209383042378,-15,-18,-20,-9,-4,-2,14,-11
1523209383054399,-8,3,9,5,0,-3,-5,-4
1523209383054399,26,-4,-13,-1,1,2,-9,-4
1523209383063423,24,17,-4,0,4,5,12,-11
1523209383063423,29,7,8,7,1,0,-3,22
1523209383078463,32,-8,10,-7,-4,-2,1,26
1523209383078463,-11,-1,-15,-8,-6,-5,6,-51
1523209383079466,2,17,11,1,1,5,20,3
1523209383079466,-5,-15,-6,-5,-3,-4,-12,-24
1523209383100756,22,7,6,4,3,3,-15,-6
1523209383100756,-75,-12,-22,0,-2,6,34,4
1523209383102527,33,2,-7,-5,-7,-17,-17,39
1523209383102527,-2,4,4,3,2,3,-5,-8
1523209383114597,-7,-3,-4,-8,-1,-3,-3,4
1523209383114597,7,13,6,5,1,0,3,14
1523209383123589,22,-27,-7,-2,-3,-1,-5,22
1523209383123589,-37,8,8,4,2,-2,-2,-27
1523209383138796,11,13,2,4,0,-3,-15,-14
1523209383138796,61,-7,-11,-8,-3,-7,-11,11
1523209383139625,-33,0,-6,-1,-2,-1,12,0
1523209383139625,41,-7,-8,-4,-4,-2,-3,-17
1523209383160682,-21,12,7,7,2,2,0,-8
1523209383160682,48,8,17,-2,-2,-4,0,19
1523209383162688,28,3,-16,-2,-2,0,12,-9
1523209383162688,8,1,-4,-1,0,-3,-15,8
1523209383174773,-21,-11,-8,-4,-3,-2,-3,-30
1523209383174773,38,7,-2,4,-3,-3,-11,38
1523209383183744,-55,-15,-15,-1,2,1,-5,-27
1523209383183744,-12,-4,-13,4,-3,-2,3,5
1523209383197782,14,-5,29,-8,-6,-3,-18,4
1523209383197782,-16,11,-8,3,-1,-3,21,6
1523209383199787,30,-6,6,3,1,2,29,0
1523209383199787,7,4,-28,-8,-2,-2,-18,6
1523209383221076,2,-8,-3,-2,1,5,23,30
1523209383221076,77,17,-4,5,0,3,-12,-22
1523209383222908,29,-13,-1,-8,-10,-13,-22,1
1523209383222908,13,4,25,3,3,4,28,15
1523209383242903,9,-31,-23,-13,-4,-3,-8,-3
1523209383242903,-27,0,-15,1,2,-1,-13,18
1523209383244906,36,0,2,3,0,-1,-8,-9
1523209383244906,-85,-7,-3,-8,-5,-3,-3,25
1523209383257942,-7,-2,-2,0,-4,-5,-3,-32
1523209383257942,-27,-4,11,6,2,0,4,3
1523209383259947,-8,15,-13,-4,-2,-4,-7,-11
1523209383259947,-36,-10,-3,-1,3,9,9,-32
1523209383281002,31,1,1,-1,-2,-2,-2,13
1523209383281002,-42,-3,8,-5,1,0,14,-16
1523209383282004,-82,13,7,12,6,-1,-27,-12
1523209383282004,-22,-3,-8,-6,-5,-3,-4,21
1523209383303294,17,6,1,-7,-6,-3,16,16
1523209383303294,72,2,-23,-1,1,2,-8,5
1523209383305065,-28,-15,1,-1,0,4,8,-22
1523209383305065,27,12,17,3,1,-2,6,-1
1523209383318101,-40,11,4,4,1,2,0,16
1523209383318101,25,-3,5,-7,-6,-5,-6,-22
1523209383320105,-14,-19,5,0,-1,4,16,60
1523209383320105,-5,4,0,2,-1,-6,-15,-19
1523209383341164,77,3,-6,-2,1,2,8,8
1523209383341164,-59,2,-12,-1,1,2,-25,-25
1523209383342173,18,9,-2,3,1,1,9,1
1523209383342173,-28,-9,0,-9,-2,-1,-3,-5
1523209383363220,33,-1,-12,3,1,2,-3,29
1523209383363220,-68,-1,0,-10,-5,1,-28,-52
1523209383365225,1,1,4,-3,-3,-3,5,-16
1523209383365225,48,8,-2,-2,-4,-3,9,42
1523209383378261,-49,-16,-47,0,3,4,3,-58
1523209383378261,19,-18,0,2,1,-1,7,63
1523209383384317,16,13,17,-1,-1,1,-5,-16
1523209383384317,-13,-3,13,2,-1,-3,-12,-3
1523209383401343,-30,-8,11,-3,-1,1,0,-9
1523209383401343,4,-1,5,-3,1,0,10,-4
1523209383402323,78,7,-23,-10,-4,-2,0,-26
1523209383402323,127,9,-2,2,2,0,4,7
1523209383423381,-89,9,9,2,-2,-2,-11,-9
1523209383423381,0,-11,15,1,-1,0,13,2
1523209383424387,1,0,-2,-1,-3,-2,-16,-5
1523209383424387,24,-4,1,3,-1,-2,-5,-24
1523209383438657,-56,-1,-15,1,0,-2,8,11
1523209383438657,-12,-1,0,-6,-8,-6,-7,12
1523209383439422,-85,18,45,3,2,0,-6,-40
1523209383439422,19,-23,-77,-6,0,0,8,12
1523209383460478,36,7,26,-8,-1,1,-6,-26
1523209383460478,-22,-5,-1,7,0,-3,-2,26
1523209383462484,16,1,7,0,-2,-1,3,-7
1523209383462484,-24,9,6,1,3,4,-12,12
1523209383483540,-60,-5,-4,1,0,-5,8,-3
1523209383483540,47,14,-12,-6,-3,-6,-18,-29
1523209383484543,22,-1,1,2,1,0,22,10
1523209383484543,-23,-1,-3,-2,-2,-2,-8,9
1523209383497578,117,7,6,11,7,6,-3,18
1523209383497578,-48,-4,-2,-7,-5,-2,38,-2
1523209383504596,-39,-17,-7,5,0,-5,-8,-23
1523209383504596,67,16,17,1,2,3,-11,-2
1523209383520876,27,4,-5,-6,-8,-8,-9,-3
1523209383520876,-10,-2,7,-5,-2,0,2,-13
1523209383522643,47,8,-20,3,0,-3,-10,10
1523209383522643,-63,-12,11,0,0,0,16,-2
1523209383542699,-19,-14,22,5,0,1,-7,39
1523209383542699,-18,16,-12,-6,-5,-6,-12,-35
1523209383544704,2,-6,-37,-3,-1,3,14,2
1523209383544704,-6,-6,9,-1,-6,-5,-14,-36
1523209383557745,-22,9,7,-4,-1,2,10,9
1523209383557745,39,6,0,2,4,0,-1,19
1523209383564755,-71,-4,10,2,4,3,-7,19
1523209383564755,76,-5,-5,1,-1,-3,7,25
1523209383580799,-24,2,-2,-2,-1,-5,2,-18
1523209383580799,-11,-10,1,3,2,3,6,-8
1523209383581839,91,5,-7,-1,-1,1,-38,-6
1523209383581839,-22,3,-1,-7,-3,1,40,17
1523209383602860,17,-10,-20,-3,1,-3,-7,-40
1523209383602860,-88,-7,2,3,3,-1,-5,-9
1523209383604863,47,-5,1,-6,-4,-2,5,61
1523209383604863,-79,2,4,-3,-4,-6,-26,-49
1523209383617897,66,-8,-10,1,0,-1,23,-4
1523209383617897,25,-1,6,3,1,1,-20,-5
1523209383623914,-40,0,-13,-4,-2,-1,37,-2
1523209383623914,-86,-9,12,-4,-2,-5,0,10
1523209383640963,14,10,-4,0,-1,-5,-14,-3
1523209383640963,-10,-19,-22,-1,0,0,-11,-17
1523209383641960,35,-9,11,-5,-1,-1,-10,13
1523209383641960,-20,0,-4,-8,-1,5,1,-31
1523209383663017,-27,10,14,13,1,2,11,19
1523209383663017,-1,-3,4,-8,-4,-4,2,39
1523209383665023,-42,-3,-8,-5,-3,-4,-16,-19
1523209383665023,65,4,-11,2,2,-3,-6,7
1523209383677054,-53,-26,17,-8,-7,-1,-8,-9
1523209383677054,-14,8,8,4,1,0,-10,-2
1523209383684075,26,4,-4,-6,-2,-5,11,-43
1523209383684075,20,3,-1,1,0,3,19,39
1523209383701269,56,17,-9,-3,2,5,-9,-38
1523209383701269,96,-1,5,0,-3,-5,-13,-1
1523209383702120,8,2,5,3,-3,-2,2,22
1523209383702120,-38,9,-3,6,5,6,20,-7
1523209383723179,34,-6,-13,-8,-2,-3,-3,3
1523209383723179,-99,-9,3,0,1,3,1,5
1523209383725184,-14,11,13,3,1,-5,-9,5
1523209383725184,52,0,-10,-2,-4,-2,-9,15
1523209383737451,-19,0,-2,3,1,-1,-12,20
1523209383737451,-41,-5,-9,-2,-2,-1,30,-18
1523209383744233,-14,-9,-14,-6,-3,-5,-6,-3
1523209383744233,-17,-18,21,-1,-6,-5,-20,-11
1523209383760276,-7,4,1,-6,1,3,11,5
1523209383760276,22,14,3,5,1,-3,-23,-7
1523209383762280,63,-4,4,-5,-3,-2,10,-2
1523209383762280,8,5,2,-2,-1,-2,-6,4
1523209383783337,-98,-2,-3,1,-2,-3,-3,-11
1523209383783337,50,1,-11,-2,0,0,-24,28
1523209383785344,-37,-1,1,3,3,2,36,-22
1523209383785344,16,1,-8,3,3,0,-3,11
1523209383797373,2,4,-3,-4,-6,-5,-10,-8
1523209383797373,-30,-9,-5,-2,-5,-6,-28,-17
1523209383804629,-16,-8,-3,4,-1,-5,-38,6
1523209383804629,20,2,-28,2,0,0,32,-5
1523209383820672,-51,-12,-2,-4,1,6,1,20
1523209383820672,10,6,21,-4,1,-3,-17,-18
1523209383822440,-25,-3,-35,-1,-2,2,-3,16
1523209383822440,33,1,-16,-1,2,3,-13,1
1523209383843497,20,-13,5,3,1,0,9,18
1523209383843497,10,-1,-7,-2,1,0,-9,-15
1523209383844499,-54,-21,-9,-9,-5,-4,-16,34
1523209383844499,30,-8,6,2,0,0,-1,-9
1523209383856539,-70,8,-5,-3,-2,-6,2,-14
1523209383856539,54,-13,-11,0,-1,6,12,-40
1523209383865555,49,11,13,0,5,5,18,-9
1523209383865555,16,-4,0,-7,-7,-9,-20,28
1523209383880596,27,7,10,4,4,6,8,38
1523209383880596,-56,-21,-9,-7,-5,-6,13,-51
1523209383882601,17,-1,-11,0,-2,-4,4,-9
1523209383882601,-101,-7,14,-3,0,0,-9,-31
1523209383903767,-27,-11,-14,-8,-3,-3,-1,-12
1523209383903767,8,20,88,7,4,-1,0,34
1523209383904659,-20,-24,-27,-1,-2,1,10,-43
1523209383904659,5,6,12,-2,-1,-3,-2,-11
1523209383916693,48,1,4,6,4,1,-2,22
1523209383916693,16,5,11,-4,0,-2,-8,-4
1523209383925717,-37,-3,13,-4,-4,5,39,7
1523209383925717,-3,-3,0,-2,-2,-4,-13,-1
1523209383940761,62,2,3,2,-4,-4,-4,-5
1523209383940761,1,-3,-36,-7,-2,-1,14,25
1523209383941787,-14,14,15,3,1,0,-29,10
1523209383941787,21,-4,-13,0,1,4,22,7
1523209383962812,43,12,2,-2,-2,-1,-7,-50
1523209383962812,-36,-3,-15,0,-5,-2,27,1
1523209383964820,5,2,8,0,0,-3,-21,-4
1523209383964820,-30,-8,-34,-1,2,-1,4,-6
1523209383976850,-36,-11,24,-2,-5,-4,10,1
1523209383976850,65,9,-12,3,0,2,10,7
1523209383985875,-45,-2,0,-4,-3,-1,-9,-11
1523209383985875,-5,14,25,5,1,-4,-18,-13
1523209384000917,-2,-10,-23,6,2,-1,-16,34
1523209384000917,-58,4,-40,-5,-1,6,35,11
1523209384001918,-33,-6,9,-6,-2,1,1,3
1523209384001918,-44,4,19,1,-2,1,13,18
1523209384022978,34,0,-5,-3,-4,-5,-5,-11
1523209384022978,-49,-4,7,-1,-4,-1,-1,18
1523209384024980,38,4,4,0,4,1,-21,-9
1523209384024980,10,-20,-1,1,-3,-3,14,4
1523209384037247,-5,7,-6,-6,-1,0,1,-14
1523209384037247,51,2,-5,5,2,6,2,31
1523209384046035,-82,3,4,-1,-2,-3,-20,-53
1523209384046035,112,11,-2,2,0,2,12,-1
1523209384061077,43,-1,9,-3,-2,-2,8,13
1523209384061077,33,-18,-16,-1,-4,-5,-3,4
1523209384062078,14,8,13,-3,-4,-3,-7,15
1523209384062078,-22,2,10,-1,0,-4,-32,0
1523209384083133,-23,3,-4,4,4,4,13,-61
1523209384083133,-72,-4,-3,-3,-5,-9,-3,14
1523209384085141,76,13,-12,6,2,1,18,51
1523209384085141,-105,-20,36,-9,-3,-1,-26,7
1523209384097416,-8,-22,-8,0,1,1,13,20
1523209384097416,19,-2,-19,-2,1,-1,-25,-16
1523209384106197,7,-3,-3,-5,0,-1,19,21
1523209384106197,-6,9,22,0,1,0,9,10
1523209384121295,74,-7,-15,-1,-2,-5,-22,-16
1523209384121295,-59,1,16,-6,-2,-2,-17,8
1523209384122238,58,-10,1,-5,-1,-1,24,9
1523209384122238,16,2,-22,-1,-4,-5,-13,-14
1523209384143293,-91,-11,4,-6,-3,0,-18,-21
1523209384143293,52,6,6,-3,-3,-1,26,-24
1523209384144295,23,4,-3,3,0,-2,-2,19
1523209384144295,-32,-3,-12,-5,-3,-3,-20,-26
1523209384157334,-55,7,-4,-1,-1,2,13,30
1523209384157334,39,1,12,-2,0,0,9,13
1523209384165354,11,3,-6,-4,-1,-2,-2,-31
1523209384165354,-21,0,7,4,2,6,2,-16
1523209384180395,-2,10,5,-2,-4,-9,6,-8
1523209384180395,52,7,-1,7,5,3,-16,6
1523209384182397,-34,-7,-19,-3,-4,-1,-9,-24
1523209384182397,38,2,-12,-5,-5,-4,-5,4
1523209384203453,-51,-3,-15,-3,-1,-5,-3,-9
1523209384203453,1,3,10,8,4,0,1,24
1523209384204455,43,-3,6,-5,-5,-3,-11,-43
1523209384204455,11,0,-13,4,5,6,17,3
1523209384217497,-50,-7,6,-2,-1,3,-19,-1
1523209384217497,-68,-14,-16,-3,-2,-4,49,29
1523209384225511,79,-5,10,-5,-1,2,6,10
1523209384225511,-30,-10,-3,0,-3,-1,14,-15
1523209384240553,33,1,-10,-8,-3,-1,-3,-12
1523209384240553,19,5,-2,2,0,1,-19,-20
1523209384242557,0,5,0,2,-3,-3,8,47
1523209384242557,-17,-13,-2,-5,-1,-2,2,-17
1523209384263614,29,6,7,-3,-1,-6,-16,29
1523209384263614,-21,-10,-9,-6,-7,-6,-23,-34
1523209384264615,-42,6,-6,-1,-3,-2,5,39
1523209384264615,-22,-5,-20,0,0,-3,-16,2
1523209384285906,19,7,-19,4,-1,5,12,-4
1523209384285906,-71,-6,-1,-8,-3,-3,-12,-8
1523209384287837,-59,2,0,5,2,-1,-4,-9
1523209384287837,53,2,3,-1,0,1,15,14
1523209384300948,-6,-2,25,-2,-1,0,4,-20
1523209384300948,27,0,-9,-3,-2,-1,-18,52
1523209384302884,-86,-2,9,6,6,1,2,-41
1523209384302884,32,8,3,-12,-5,0,14,16
1523209384322775,27,-2,2,-3,-1,-3,-5,4
1523209384322775,16,9,16,3,0,-1,-11,-20
1523209384324808,-61,1,0,1,4,7,-3,-4
1523209384324808,52,-6,-1,0,-2,-2,5,36
1523209384345832,-24,8,32,-3,-5,-8,-6,-23
1523209384345832,-35,-2,17,1,2,1,8,-22
1523209384346833,36,7,-14,-2,-4,-4,-22,-1
1523209384346833,-23,-10,6,-4,-4,-3,-4,17
1523209384360873,34,-8,0,2,4,2,3,17
1523209384360873,34,-1,2,4,2,-2,-23,-20
1523209384362105,68,4,5,-3,-1,1,60,12
1523209384362105,-32,-6,9,-7,0,-1,3,-5
1523209384382956,4,8,-8,1,-1,0,-11,-1
1523209384382956,95,5,-2,-1,-2,-2,-15,-6
1523209384384935,-13,-9,-3,3,-1,-3,-1,-3
1523209384384935,33,8,-3,2,-2,-4,0,-14
1523209384405990,28,1,-1,-1,0,4,7,7
1523209384405990,-58,-13,-10,1,2,3,12,7
1523209384406994,15,-3,5,-2,-2,-4,-35,-1
1523209384406994,-35,-18,-3,-2,-6,-8,-17,-39
1523209384420030,50,5,-7,2,-1,-1,3,21
1523209384420030,-7,3,-11,0,-3,1,1,10
1523209384427048,-12,-17,1,-7,1,5,11,-53
1523209384427048,-56,9,11,-2,-2,-4,-25,-40
1523209384443091,15,-16,-42,-4,-1,-1,33,4
1523209384443091,68,5,-2,-2,-1,-1,-5,-1
1523209384445095,19,12,2,3,-2,-1,-6,12
1523209384445095,44,24,28,-1,1,1,-15,3
1523209384465149,-32,-32,-30,-2,0,-1,-6,-7
1523209384465149,24,10,-3,-5,-2,-6,15,-12
1523209384467155,-13,-8,6,2,0,1,17,11
1523209384467155,19,6,-1,3,4,5,7,-3
1523209384480190,6,11,14,-1,-1,2,-11,0
1523209384480190,-30,2,-5,-1,-3,-3,4,-27
1523209384487207,22,4,-17,-4,-1,-4,-32,27
1523209384487207,21,-12,-32,-1,0,3,30,11
1523209384503487,-125,-24,15,0,-1,0,-1,-93
1523209384503487,24,-1,0,-3,-3,0,1,2
1523209384505255,-73,-19,1,1,-4,-6,-8,-11
1523209384505255,-29,2,4,4,1,0,-13,3
1523209384525310,11,8,-2,1,1,-1,-13,16
1523209384525310,49,-5,-2,0,-2,1,21,0
1523209384527314,-4,-3,-6,-4,-4,-4,-5,-6
1523209384527314,36,9,-5,0,0,3,1,-8
1523209384540399,-9,1,-3,3,-1,-8,-65,5
1523209384540399,-41,-18,24,-6,2,5,71,6
1523209384547466,63,3,-44,-7,2,5,-7,-26
1523209384547466,29,-1,4,-6,-8,-10,-11,33
1523209384563409,34,9,17,5,-2,2,2,33
1523209384563409,-8,6,14,0,-2,-1,-21,-41
1523209384564412,-52,-11,5,4,-1,-5,-4,-5
1523209384564412,-6,-2,-16,-6,2,3,12,0
1523209384585706,76,13,-4,0,-1,-3,13,14
1523209384585706,-44,-1,-4,4,3,0,-17,10
1523209384587472,12,2,39,0,-1,2,0,19
1523209384587472,-84,-10,-54,1,3,2,-1,-21
1523209384600614,5,6,19,-2,1,2,15,18
1523209384600614,-6,5,-9,-1,0,2,2,6
1523209384606526,-6,-19,8,-5,-7,-7,-26,-27
1523209384606526,1,6,7,3,-3,-5,-10,8
1523209384623575,-98,-8,-8,0,0,-1,14,-9
1523209384623575,29,5,4,-5,-3,-2,-30,32
1523209384624572,6,4,-11,-6,1,-2,6,2
1523209384624572,-74,-5,21,1,-3,-2,14,37
1523209384645628,9,1,-14,-3,1,0,19,-19
1523209384645628,-6,11,-23,6,2,0,-8,-16
1523209384647633,26,7,37,-2,-1,1,-6,4
1523209384647633,-50,-11,1,1,1,0,0,-11
1523209384659665,-23,3,15,4,0,-5,-27,-12
1523209384659665,-27,-2,-9,-5,-2,0,22,19
1523209384666683,32,9,-20,2,0,-1,-8,13
1523209384666683,-43,-11,-1,-3,-4,-3,-3,-31
1523209384682728,55,3,12,0,1,-3,0,14
1523209384682728,-18,-5,2,-1,-2,1,-2,-10
1523209384684731,-17,-13,1,-4,-2,-5,3,-9
1523209384684731,69,7,8,4,3,3,1,73
1523209384705792,-13,-2,-5,-6,-4,-4,-6,-51
1523209384705792,16,-8,13,-3,-3,-1,-6,4
1523209384707822,84,8,0,0,-4,-1,8,-11
1523209384707822,-19,-6,22,-2,-1,0,-8,10
1523209384720062,-61,-11,1,-4,-2,1,3,20
1523209384720062,-1,-14,-36,-8,-2,-3,-11,6
1523209384726843,34,13,-7,3,2,5,26,38
1523209384726843,48,11,-5,-2,0,-1,-12,-46
1523209384742889,33,3,6,-4,-6,-3,6,22
1523209384742889,-12,-10,-4,2,-1,-2,-16,-24
1523209384744891,-7,5,-9,2,0,-3,-14,13
1523209384744891,-20,3,-9,-3,0,-2,-15,-20
1523209384766061,42,3,32,-1,-3,2,51,-31
1523209384766061,-47,-29,-3,-1,1,3,-1,1
1523209384771962,34,8,-4,0,0,2,4,-25
1523209384771962,-1,11,2,6,1,-2,-19,-59
1523209384778985,67,6,-5,-2,-2,0,-3,25
1523209384778985,11,10,7,4,-1,-4,0,16
1523209384788130,-36,-8,0,-2,1,-1,21,-9
1523209384788130,26,-7,-3,-3,-5,-2,-4,0
1523209384803283,38,4,-13,1,6,4,3,38
1523209384803283,34,15,15,7,1,3,-6,-12
1523209384805051,-75,-14,-46,-14,-6,-10,-18,-21
1523209384805051,27,-8,7,2,-2,-2,9,32
1523209384826107,-77,-10,-6,-2,-4,-2,-6,-27
1523209384826107,43,6,-14,-8,-2,-2,-8,40
1523209384827109,-19,28,34,5,0,1,-14,19
1523209384827109,70,5,-15,3,1,0,2,-13
1523209384839147,-7,-5,-20,-3,-2,3,9,21
1523209384839147,-12,12,-2,-2,1,3,2,-31
1523209384848191,-26,-1,7,3,-3,-4,-6,-2
1523209384848191,22,2,3,-4,-2,-1,14,20
1523209384863206,-32,-7,-14,0,-2,-4,-22,1
1523209384863206,1,-1,2,8,3,-1,-14,-34
1523209384865214,-54,-12,-9,-8,-2,1,7,20
1523209384865214,4,11,47,1,-1,1,1,14
1523209384886281,-8,-2,-7,-2,-3,-4,-9,-20
1523209384886281,-12,0,-2,2,-3,-3,5,4
1523209384887270,27,-10,-4,-5,-3,-2,-11,-18
1523209384887270,6,-7,-21,2,1,4,-9,11
1523209384899536,-62,6,26,-3,-3,-3,-13,-12
1523209384899536,39,1,-26,-3,-4,-9,21,11
1523209384908328,80,-1,12,2,1,1,30,-20
1523209384908328,-30,-3,-19,0,0,-2,-17,-2
1523209384923372,43,7,10,0,1,1,4,34
1523209384923372,0,2,-2,-2,-1,-2,-17,9
1523209384924368,1,-4,19,-2,2,4,14,-3
1523209384924368,-49,0,-9,-2,-2,0,24,12
1523209384945425,0,1,-18,3,-1,-2,-3,-34
1523209384945425,-19,-8,15,-10,-3,-6,-14,-7
1523209384947429,-18,1,-10,5,0,1,-3,19
1523209384947429,32,-1,17,-2,0,0,-10,-19
1523209384959463,-39,-9,-6,-8,-4,0,17,63
1523209384959463,12,0,4,2,-2,-2,-7,32
1523209384968487,-18,1,-12,4,1,0,5,4
1523209384968487,-22,-2,-9,-3,2,1,14,-16
1523209384983526,50,8,-6,-2,0,0,-35,-22
1523209384983526,9,-12,10,1,-1,-3,39,-21
1523209384984567,-26,12,1,0,0,-1,-12,16
1523209384984567,14,1,6,2,-3,-4,-4,-6
1523209385005590,59,-1,9,7,2,2,5,-16
1523209385005590,-63,-10,-33,-7,-4,-2,-8,-4
1523209385007596,39,0,0,5,0,-6,-11,9
1523209385007596,3,-2,-8,-6,-3,4,13,-14
1523209385019858,40,10,18,2,2,1,5,39
1523209385019858,58,-3,-11,7,2,-2,-10,-13
1523209385028645,-11,-3,7,-6,-8,-6,-20,-31
1523209385028645,46,-3,-17,-11,-6,-5,-18,-34
1523209385042686,-10,-5,9,-4,0,3,10,13
1523209385042686,-3,21,-8,0,0,5,8,4
1523209385044688,-20,-12,-31,-3,-2,-1,-7,-24
1523209385044688,15,1,3,-1,-1,0,5,41
1523209385065744,-10,-8,-10,-1,0,-6,-14,-34
1523209385065744,-37,8,9,-6,-3,0,3,-6
1523209385067748,-27,0,-1,4,2,2,-9,22
1523209385067748,-21,-12,12,-1,-2,-3,-10,-3
1523209385079782,-13,-3,-12,0,-2,-1,13,17
1523209385079782,-5,-13,-5,-3,-1,-4,-41,-6
1523209385088810,27,3,18,4,2,7,33,36
1523209385088810,-30,-2,-11,0,-4,-4,-17,-61
1523209385103080,18,8,20,0,-1,-4,12,-51
1523209385103080,-70,-11,15,-5,-3,-2,-1,14
1523209385104849,22,10,-1,3,4,3,1,-2
1523209385104849,67,3,-4,1,1,-2,-4,19
1523209385125904,-23,-4,-24,-9,-4,0,-17,-4
1523209385125904,-11,4,15,5,3,-3,12,-17
1523209385126905,9,-10,2,-9,-8,-8,-2,-1
1523209385126905,-27,-5,-8,6,-1,-1,15,7
1523209385138948,-26,5,-11,5,-2,-5,-11,1
1523209385138948,79,0,4,-2,-3,0,-20,41
1523209385148139,-70,-4,-1,0,0,-1,4,-30
1523209385148139,39,1,-11,1,2,5,18,43
1523209385163003,119,-11,-15,-3,1,6,5,3
1523209385163003,-15,7,17,2,1,-3,-19,-87
1523209385165007,26,3,-15,0,-2,-1,0,20
1523209385165007,2,-10,-11,-7,-5,-4,-6,8
1523209385186239,-44,-27,-16,-5,-1,-1,-11,-22
1523209385186239,35,-13,-12,4,2,6,23,7
1523209385187066,-4,-11,5,-12,-7,-3,9,24
1523209385187066,-55,10,4,0,-2,-3,6,-33
1523209385208123,-34,3,15,3,-1,-2,-14,2
1523209385208123,36,0,4,2,1,2,24,12
1523209385210127,32,3,-19,0,2,-1,-19,18
1523209385210127,-84,-15,27,-7,-3,-7,-13,-16
1523209385223168,43,3,4,-1,-5,-3,13,-24
1523209385223168,-13,5,-7,-7,-2,0,22,41
1523209385225168,4,11,3,2,0,1,0,-8
1523209385225168,54,1,-13,-4,-2,4,-3,13
1523209385246288,-84,-1,8,4,2,1,-1,-1
1523209385246288,-19,2,8,0,-2,-3,-3,0
1523209385247226,9,-15,-46,-9,-4,-2,2,18
1523209385247226,34,14,19,-1,3,6,-2,-3
1523209385268284,45,2,-30,2,2,-2,-1,26
1523209385268284,33,-9,-6,-11,-7,-4,-12,6
1523209385270418,-24,-2,15,7,2,-3,-4,1
1523209385270418,10,0,-11,4,-1,-4,-7,-1
1523209385283322,49,0,-5,-4,-1,2,5,32
1523209385283322,-37,10,0,8,5,1,-19,-18
1523209385284327,54,3,6,-4,-2,0,14,-19
1523209385284327,30,1,-1,-3,-4,-4,-7,12
1523209385305388,-92,-4,-1,-3,-2,-1,-11,-66
1523209385305388,-12,-12,-5,0,-4,-5,0,2
1523209385307390,-27,-9,17,-3,-2,0,-27,-5
1523209385307390,-30,-4,15,6,6,7,56,14
1523209385328443,87,12,4,0,0,-2,-10,14
1523209385328443,-49,-15,3,-9,-6,0,9,7
1523209385329445,-62,-14,14,7,5,-3,-25,-17
1523209385329445,-26,5,-1,-1,-3,-3,-11,2
1523209385342480,-37,-5,0,6,4,3,18,5
1523209385342480,23,6,6,-4,-1,6,18,27
1523209385349735,52,11,-7,-9,-8,-5,2,12
1523209385349735,-50,-2,5,-1,1,-4,0,2
1523209385365542,22,34,-3,-4,-1,1,-2,46
1523209385365542,-29,-10,-8,0,-2,-5,-6,-72
1523209385367585,-26,-3,-1,2,3,5,0,1
1523209385367585,16,0,-11,3,3,-3,-36,1
1523209385387792,-36,-3,10,4,-1,-2,33,7
1523209385387792,24,2,-19,-5,-1,1,-13,24
1523209385389608,-38,-1,5,0,-5,-5,20,6
1523209385389608,-10,-1,-14,0,0,1,-14,-52
1523209385402876,-48,-9,14,0,2,0,-15,-5
1523209385402876,26,0,-23,3,0,-3,-4,13
1523209385409658,-20,3,3,6,2,0,19,6
1523209385409658,100,-8,-19,-8,-3,2,5,26
1523209385425700,-39,-10,10,-5,-4,-4,-8,16
1523209385425700,18,4,11,1,0,1,13,-9
1523209385427707,4,4,-13,-2,1,0,-15,23
1523209385427707,-40,-14,8,-4,-5,-6,-3,2
1523209385448801,26,-10,-2,-7,-6,-4,-20,-7
1523209385448801,-113,-10,15,-3,-2,0,18,-5
1523209385449764,56,3,2,7,1,-2,-6,16
1523209385449764,-59,-6,-1,-2,0,-1,3,3
1523209385462799,-15,-16,-17,-4,0,-3,-2,-9
1523209385462799,36,11,2,-6,-2,-2,-13,8
1523209385469912,-11,-10,4,1,0,-1,-11,-32
1523209385469912,-34,-6,-8,-3,0,1,44,1
1523209385486097,19,-5,-10,-4,-4,-4,0,-5
1523209385486097,44,5,7,3,0,0,-12,-6
1523209385486863,23,-1,-1,1,0,-1,-18,12
1523209385486863,-64,-7,-15,-5,0,3,3,-23
1523209385507920,73,18,20,4,0,0,37,24
1523209385507920,-3,-7,8,5,0,-2,-7,-53
1523209385509924,-33,3,3,-4,-2,6,4,-18
1523209385509924,52,12,19,-2,-6,-8,-20,22
1523209385522986,-24,-23,9,-1,1,5,19,3
1523209385522986,20,5,-6,0,2,-1,-19,-1
1523209385528978,-36,1,17,5,0,2,24,-10
1523209385528978,77,24,21,3,1,3,-28,11
1523209385546258,-96,-11,-8,-4,-2,-3,4,-6
1523209385546258,-41,-9,13,2,1,0,17,25
1523209385547022,2,9,-20,-8,-5,-6,-47,-48
1523209385547022,32,-8,-2,1,1,2,20,-28
1523209385568081,-80,-1,-6,-5,-5,0,-7,22
1523209385568081,-13,4,-13,0,-3,-4,-45,10
1523209385570084,-56,-4,12,0,-1,2,22,-2
1523209385570084,-10,-5,-17,-7,-2,-5,5,-2
1523209385582156,65,6,-8,5,0,0,-15,-4
1523209385582156,11,-1,-7,-9,-6,-3,0,-10
1523209385589142,-3,2,5,0,4,1,-4,-16
1523209385589142,23,-10,-43,-3,-4,-5,-19,-17
1523209385606185,1,-5,-24,-9,-5,-4,10,0
1523209385606185,65,8,17,1,-1,1,31,41
1523209385607183,86,-3,-19,-6,-4,-4,-18,-10
1523209385607183,-11,3,6,6,3,2,20,38
1523209385628239,26,7,-1,2,1,1,-22,-30
1523209385628239,-33,-13,-13,1,1,4,22,5
1523209385630245,31,6,50,-5,-3,0,21,-20
1523209385630245,-58,-13,-48,0,-2,-7,-21,-28
1523209385642275,-4,13,-12,-3,-2,0,-15,14
1523209385642275,12,-1,11,-4,-1,-5,-1,15
1523209385649528,-27,-20,-8,0,-3,-4,-7,23
1523209385649528,32,17,14,3,2,1,-6,-20
1523209385665355,-61,-6,13,-1,0,-2,-6,-25
1523209385665355,-3,-9,-19,-2,0,-4,1,0
1523209385667344,43,5,2,-2,0,-3,-8,-2
1523209385667344,-52,-10,0,1,-1,-6,-27,34
1523209385688403,84,-1,5,7,-1,-1,26,2
1523209385688403,-41,-5,3,-7,-7,-3,-12,-73
1523209385689405,3,-5,-7,-1,-1,-3,1,14
1523209385689405,5,-6,18,0,2,6,40,39
1523209385702475,27,-1,4,-4,-2,-1,-22,3
1523209385702475,-7,8,0,-4,-2,4,29,13
1523209385710457,-55,-10,-21,-5,0,-1,1,8
1523209385710457,-16,-6,3,-1,0,7,23,25
1523209385725498,30,2,5,1,1,1,-15,-40
1523209385725498,-43,-8,18,-1,-7,-5,-19,-3
1523209385727501,-37,-30,1,-2,2,0,3,11
1523209385727501,28,15,12,-1,2,-1,14,-5
1523209385748560,63,5,16,8,1,0,-6,2
1523209385748560,39,12,-14,0,2,-3,-33,26
1523209385749560,-9,-4,-2,2,-1,4,27,-15
1523209385749560,36,-1,0,-1,-5,-3,-3,26
1523209385761594,-58,1,-10,-1,2,0,-9,-18
1523209385761594,19,8,20,-2,2,3,8,-11
1523209385770654,18,7,-20,3,-3,-4,-11,8
1523209385770654,28,-1,6,-6,-2,0,-3,-35
1523209385785892,-80,-4,-1,-3,-1,-2,-6,0
1523209385785892,50,-4,-10,6,2,1,1,15
1523209385787662,14,14,18,-3,-3,0,2,17
1523209385787662,13,-1,0,2,-1,-5,-22,-42
1523209385807718,-5,-2,-5,0,3,2,5,3
1523209385807718,-30,-2,8,-9,-5,-2,5,0
1523209385809720,7,-2,-30,0,-3,-3,-1,1
1523209385809720,-32,1,-7,2,-2,-5,-17,-10
1523209385821754,65,1,8,1,-2,1,24,38
1523209385821754,-10,1,-6,0,-2,-2,-2,-38
1523209385830776,30,10,-7,-6,-4,-2,-11,-23
1523209385830776,-6,2,6,10,5,3,-15,4
1523209385845816,-29,-9,-2,-8,-4,0,32,7
1523209385845816,45,-24,-33,1,-1,-4,-17,4
1523209385847913,3,-3,-5,1,1,0,34,13
1523209385847913,11,6,10,-6,-4,0,-16,-13
1523209385868113,-31,-9,-9,-1,-2,-2,-10,-18
1523209385868113,9,10,6,5,4,9,1,1
1523209385869880,-97,-18,-14,-7,-2,-5,-7,-10
1523209385869880,111,17,-12,-5,1,0,6,32
1523209385881912,-79,-11,52,-1,-3,-2,-8,13
1523209385881912,38,-3,-50,-3,0,3,1,59
1523209385890938,-70,-11,-2,-4,-3,-4,-1,-75
1523209385890938,-3,6,-3,0,-2,-5,6,-7
1523209385906024,23,10,-11,2,0,0,-27,11
1523209385906024,-17,-6,17,9,5,1,20,14
1523209385906985,31,6,-2,2,3,3,-8,29
1523209385906985,-83,-15,-14,-4,-4,-4,7,-2
1523209385928074,-39,0,4,0,-3,-6,-11,-45
1523209385928074,-12,0,-12,-4,-4,-1,3,-21
1523209385930043,22,9,5,4,4,6,-3,3
1523209385930043,-42,-15,23,-3,-4,-6,-1,4
1523209385942073,76,3,-19,0,-1,-1,8,16
1523209385942073,25,21,8,-1,-3,-5,-1,22
1523209385951096,-35,-8,12,-15,-6,-2,-27,-40
1523209385951096,16,1,-5,0,-2,-1,-19,-32
1523209385965141,90,9,0,-1,-2,-1,30,60
1523209385965141,-45,-3,10,5,3,5,14,-67
1523209385967140,63,0,-2,2,0,1,-17,12
1523209385967140,-4,-9,15,2,-2,-3,9,13
1523209385988197,-58,2,-22,-10,-3,-4,-17,-24
1523209385988197,55,0,7,-1,0,-2,-13,-4
1523209385990201,-28,8,14,8,2,2,6,16
1523209385990201,-15,-14,-27,-3,0,4,9,-14
1523209386002438,-30,5,11,3,0,-2,-11,-21
1523209386002438,-58,0,-13,-5,-2,0,2,34
1523209386010255,-28,-9,1,-4,-1,-5,5,-27
1523209386010255,30,16,4,4,1,-1,0,13
1523209386025293,-16,-9,-6,1,-2,1,16,-34
1523209386025293,3,-1,6,0,1,-3,-8,4
1523209386027299,51,16,-6,-1,1,-2,-4,-2
1523209386027299,-11,-4,-25,-4,-4,-1,-1,9
1523209386048591,-9,-5,-9,-2,2,0,-17,-14
1523209386048591,31,-16,-9,-5,-4,-2,-6,17
1523209386050436,20,12,7,5,1,-2,30,21
1523209386050436,3,5,24,-4,-2,0,-11,-15
1523209386061390,-10,-9,-30,-1,-3,-4,-7,-3
1523209386061390,0,1,2,-15,-20,-22,-14,-6
1523209386070558,1,-2,-2,-3,-7,-4,-5,5
1523209386070558,-13,0,-28,2,5,5,11,-62
1523209386085691,-1,16,5,5,12,12,16,24
1523209386085691,-46,4,29,4,13,17,-2,5
1523209386087460,16,-8,-56,-4,-3,-4,-11,-12
1523209386087460,-11,-2,7,-2,-1,-1,4,13
1523209386108516,-2,-6,-2,-9,-7,-4,-11,-27
1523209386108516,-9,2,-10,5,0,-4,-10,-14
1523209386109518,-5,-4,17,1,0,1,21,13
1523209386109518,-58,-11,7,-4,0,1,3,-6
1523209386121560,77,0,-3,3,-3,-5,-4,27
1523209386121560,-51,-8,22,0,-2,-2,4,25
1523209386130573,-17,-3,4,2,1,3,-7,-37
1523209386130573,-47,3,3,3,-2,-3,13,30
1523209386145614,71,9,5,7,1,-3,-10,-26
1523209386145614,-17,-9,-5,-8,-5,-2,11,-61
1523209386147857,1,-10,-35,0,-3,-2,-12,28
1523209386147857,5,-9,4,0,-2,-5,-14,3
1523209386168762,37,9,6,0,0,2,10,43
1523209386168762,-44,-2,-1,4,1,-1,1,-13
1523209386169677,-10,6,23,2,3,4,-17,12
1523209386169677,96,11,14,2,-1,-2,18,29
1523209386190735,46,-16,-48,-6,-4,-1,15,14
1523209386190735,-10,8,8,6,3,-3,-11,-2
1523209386191736,-45,0,7,-10,-4,-1,5,-6
1523209386191736,-3,-12,2,-8,-6,-7,-11,-13
1523209386205780,-58,0,4,-3,-4,-5,-10,-4
1523209386205780,36,-6,-4,-1,-4,-4,6,15
1523209386206776,26,12,2,0,3,5,-5,11
1523209386206776,24,2,-4,-2,1,0,15,5
1523209386227832,16,5,8,0,0,-1,2,-23
1523209386227832,41,-8,-5,3,-4,-4,-6,-18
1523209386229838,23,6,-35,-2,-1,-4,-2,10
1523209386229838,-87,-8,2,-8,-5,2,-18,-63
1523209386251130,-23,-9,4,-3,-1,2,14,3
1523209386251130,6,9,1,6,2,2,15,6
1523209386252936,76,-8,15,2,-3,-6,-13,-15
1523209386252936,22,0,-5,2,-2,-4,-15,6
1523209386265934,-17,2,-3,-1,1,1,1,-3
1523209386265934,-31,-3,-3,-6,1,1,2,1
1523209386266936,34,3,5,4,0,1,0,-4
1523209386266936,13,-9,-1,-2,-1,2,-4,51
1523209386287995,-43,-1,11,-2,-2,3,18,-26
1523209386287995,12,-7,-13,-7,-2,-8,-31,-9
1523209386289998,12,-8,24,0,2,0,-6,-7
1523209386289998,-22,-3,11,2,1,0,-8,-24
1523209386311055,35,0,-32,-1,1,2,15,25
1523209386311055,-52,-2,-10,-1,-1,-2,-26,-22
1523209386312055,-7,20,7,-1,-2,2,29,21
1523209386312055,26,-4,24,-1,-2,-3,1,4
1523209386325090,-63,-16,-51,-7,-4,4,-13,10
1523209386325090,-42,-3,18,2,0,-4,36,-49
1523209386332112,33,7,4,1,-4,-3,-10,21
1523209386332112,14,-4,-15,-2,-1,0,-11,1
1523209386348389,-81,-13,-4,-4,-2,-8,-42,-5
1523209386348389,24,-6,1,2,1,7,11,43
1523209386350157,-86,-9,-17,3,-3,-2,13,-51
1523209386350157,20,14,28,3,0,0,21,29
1523209386371218,21,-2,15,0,-2,-1,-2,-18
1523209386371218,-11,6,-6,-2,1,1,-25,6
1523209386372220,84,-24,-5,2,-1,-4,7,-9
1523209386372220,-46,3,-9,-1,0,1,13,-11
1523209386385487,13,2,4,-5,-4,-1,-3,-10
1523209386385487,52,17,23,4,3,5,17,23
1523209386392271,-47,-8,-45,-5,-3,-5,-13,-22
1523209386392271,-8,-8,-13,-5,-3,-2,-30,-21
1523209386408311,-16,5,24,3,0,-5,-2,4
1523209386408311,-12,-9,-10,3,1,1,13,53
1523209386409314,-14,-4,-3,-10,-1,-4,-1,24
1523209386409314,-11,-3,-13,4,1,0,-21,-11
1523209386430370,-83,-5,8,-2,-1,-5,-27,4
1523209386430370,40,8,7,2,-2,0,25,-18
1523209386432375,-31,-4,34,5,-1,-1,16,15
1523209386432375,-17,-6,-12,-7,-4,-6,-15,7
1523209386445411,46,2,26,1,0,0,-1,17
1523209386445411,-31,-5,-27,-9,-5,-6,-14,-27
1523209386452452,14,3,4,2,3,3,-14,-3
1523209386452452,45,7,0,-2,-2,-1,-13,7
1523209386468708,26,5,31,1,-3,2,31,12
1523209386468708,-30,-15,-45,-3,-2,-6,-23,-35
1523209386469474,-5,-4,6,0,-1,-3,-11,9
1523209386469474,-30,3,13,1,1,5,11,38
1523209386490531,47,11,10,-4,1,3,4,2
1523209386490531,15,8,-2,-13,-9,-10,-7,1
1523209386492535,2,-18,11,3,-2,0,-9,-17
1523209386492535,-60,-3,-12,-2,0,-1,14,-2
1523209386505575,6,-3,-5,1,1,-2,-13,-1
1523209386505575,25,4,2,-2,1,5,22,26
1523209386511625,12,10,1,-2,-1,1,-3,-23
1523209386511625,42,5,-4,2,1,-1,1,-2
1523209386527629,4,-9,-10,-3,-6,-5,3,0
1523209386527629,-4,2,4,3,2,4,-17,-13
1523209386529633,-24,5,6,-2,-2,-1,0,13
1523209386529633,66,-2,-5,0,0,2,10,21
1523209386550927,-86,-10,-7,0,0,-1,-18,-66
1523209386550927,15,-1,12,-5,-3,2,14,-5
1523209386552828,15,0,-9,5,4,8,13,38
1523209386552828,4,2,18,-10,-7,-7,-2,-74
1523209386564728,5,0,-14,6,4,1,6,21
1523209386564728,-58,-24,5,-10,-7,-5,3,-1
1523209386571753,26,-11,13,1,0,0,3,-12
1523209386571753,60,10,1,7,3,0,-28,-41
1523209386587795,-34,3,-6,3,-2,-5,-5,0
1523209386587795,16,1,-9,-2,-2,6,7,-10
1523209386589794,4,6,6,-9,-6,-6,-15,1
1523209386589794,-47,-11,-38,0,1,-2,43,52
1523209386610851,-19,-10,-19,-4,0,4,-1,-67
1523209386610851,25,8,33,3,2,0,5,1
1523209386611852,44,8,-12,-1,0,1,-5,17
1523209386611852,-57,-8,-4,-9,-3,-4,-33,-15
1523209386624888,33,-5,-2,-1,-4,-5,7,-10
1523209386624888,-6,-1,-20,-1,-2,2,18,24
1523209386631946,-42,0,-17,-2,0,-2,-3,-21
1523209386631946,25,5,11,12,7,5,6,26
1523209386648185,16,-6,6,-10,-7,-5,2,-21
1523209386648185,23,-2,-1,8,1,-5,-35,10
1523209386649954,-56,3,2,0,-1,1,-6,-12
1523209386649954,-47,-9,-11,-5,-3,-2,2,18
1523209386671009,27,3,-8,-4,0,1,43,15
1523209386671009,51,12,-4,3,1,-1,-10,27
1523209386672030,59,5,-1,4,-1,0,8,-8
1523209386672030,-46,-17,-7,-12,-7,-4,-24,-14
1523209386684044,20,14,18,9,2,-1,-11,19
1523209386684044,-36,-12,10,-4,-3,-3,10,-44
1523209386693068,3,0,27,-2,-2,-2,-8,22
1523209386693068,7,2,-11,-6,-2,0,10,-3
1523209386708107,65,0,-2,0,0,0,-13,1
1523209386708107,0,0,-5,4,3,1,2,14
1523209386710113,1,1,10,-3,-2,-5,-6,-3
1523209386710113,-12,2,4,2,0,2,16,17
1523209386730169,-10,-14,-14,-1,-1,0,18,18
1523209386730169,-61,0,-5,-2,0,-1,-17,-12
1523209386732172,23,5,-11,-4,1,-4,6,32
1523209386732172,8,-7,-12,5,0,-1,1,-40
1523209386744204,74,17,14,-1,4,3,-7,60
1523209386744204,-52,-14,5,-2,-4,1,-6,-40
1523209386753226,-7,5,-6,0,-3,-1,-3,28
1523209386753226,4,10,-22,-7,2,5,5,-4
1523209386768506,-73,-5,22,-3,-2,-4,-5,7
1523209386768506,99,-12,-10,-1,1,0,-18,-2
1523209386770274,-45,1,23,1,1,-1,-12,-13
1523209386770274,8,4,14,1,-2,-1,26,11
1523209386790327,29,4,-7,1,0,1,-9,-7
1523209386790327,13,-2,8,-4,-3,-3,-3,-11
1523209386792332,-61,0,-6,-4,-5,0,-4,-3
1523209386792332,22,-9,-6,4,1,-3,-7,-11
1523209386804368,-9,-9,5,-4,-3,0,-5,-42
1523209386804368,15,9,-1,9,2,0,14,26
1523209386813388,15,-1,4,2,6,5,5,56
1523209386813388,6,19,7,6,-1,-6,-6,-60
1523209386828428,-46,-30,-1,-7,-2,-4,-14,-20
1523209386828428,-20,7,12,4,-1,-2,-7,22
1523209386829431,-36,-9,-6,-2,-2,-2,3,-22
1523209386829431,-34,3,17,3,1,5,11,34
1523209386851729,-13,7,-3,5,-3,-3,-17,10
1523209386851729,18,0,-10,-5,1,2,21,-6
1523209386852492,-96,-23,-8,-6,-2,0,9,-6
1523209386852492,25,-2,-2,-4,-6,-5,-2,9
1523209386864524,5,0,11,-5,-6,-3,-6,-11
1523209386864524,-25,-3,-4,5,0,-3,5,3
1523209386873548,17,4,0,0,-2,1,-13,-26
1523209386873548,10,-11,-13,-3,0,1,-2,40
1523209386888591,43,5,2,1,3,1,0,-13
1523209386888591,-24,2,0,-1,0,0,-11,3
1523209386889592,44,-2,-25,-7,-7,-8,-10,-41
1523209386889592,-3,9,1,5,2,-5,-24,3
1523209386910646,64,-9,-15,-2,-3,-1,16,2
1523209386910646,-12,0,-10,-6,-2,-2,0,-3
1523209386912651,72,7,4,-10,-5,-3,-4,8
1523209386912651,-35,-7,-8,-4,-2,3,8,4
1523209386932942,-46,5,-2,-2,2,3,9,-16
1523209386932942,57,9,-4,-2,-3,-5,-26,11
1523209386933827,-44,-17,21,8,0,5,24,-18
1523209386933827,56,6,-38,-3,2,-4,-33,32
1523209386947982,-77,14,10,3,0,-3,11,24
1523209386947982,-8,-17,3,-8,-2,-2,-2,-38
1523209386947982,6,3,-1,-1,0,-5,-3,26
1523209386947982,14,17,25,0,0,1,-1,8
1523209386969841,-20,8,2,-6,-1,-3,-22,-4
1523209386969841,69,-6,-12,-1,-1,-4,20,-7
1523209386970812,-18,0,-8,3,4,4,-12,1
1523209386970812,-20,-4,0,1,1,5,35,-11
1523209386992867,-14,-4,-19,-6,-4,-4,-3,12
1523209386992867,-36,-4,-15,2,-5,-2,2,41
1523209386992867,-18,-9,-13,-3,1,-1,-10,-35
1523209386992867,24,-9,5,-1,-4,-1,0,-8
1523209387006903,-3,-5,6,1,0,1,1,13
1523209387006903,18,7,-5,-2,1,2,-12,2
1523209387007904,27,9,-6,-1,-1,2,31,-19
1523209387007904,-38,-15,5,-1,-2,-4,-34,-58
1523209387029963,7,-11,-44,-7,-6,-6,-21,1
1523209387029963,-86,1,14,-1,-2,-2,13,17
1523209387030968,47,5,-6,3,1,-4,1,6
1523209387030968,-79,-1,13,6,0,-2,-6,7
1523209387053064,8,-6,10,0,1,2,8,-20
1523209387053064,42,5,-2,1,3,5,23,11
1523209387053064,-91,-7,-3,-4,-6,-6,-24,25
1523209387053064,13,-8,-3,0,-1,-1,-1,-39
1523209387067063,-12,4,5,0,0,-2,6,30
1523209387067063,-22,-10,2,0,1,2,-12,-18
1523209387068065,23,-13,4,-9,-3,-2,20,14
1523209387068065,-18,2,-1,1,2,3,9,38
1523209387090123,-12,-3,-4,0,-4,-1,-3,-89
1523209387090123,12,11,7,-7,-6,-8,-16,-5
1523209387091126,28,3,3,4,-1,-2,-4,18
1523209387091126,78,-1,39,0,-1,4,35,20
1523209387112220,-4,2,7,1,1,2,-18,35
1523209387112220,-4,0,-5,-4,-3,-2,-7,-32
1523209387113184,-17,-5,8,4,3,0,0,-26
1523209387113184,0,11,5,0,0,0,-11,10
1523209387127223,12,7,19,5,1,-4,-21,37
1523209387127223,63,0,-14,-1,-1,-1,11,-39
1523209387128224,36,1,-5,-3,-6,-6,-4,42
1523209387128224,-39,-4,-1,-4,3,0,5,-31
1523209387150520,31,5,-1,-2,-1,-2,0,-3
1523209387150520,-44,-16,10,2,0,-2,-15,0
1523209387151300,26,11,-6,2,1,1,-1,-11
1523209387151300,17,-1,-17,-5,0,2,9,9
1523209387172346,4,-7,-17,-1,-2,0,3,-36
1523209387172346,-12,3,11,4,3,-2,10,8
1523209387173345,-18,-4,1,1,-4,0,4,-12
1523209387173345,1,2,-17,-4,-2,-6,-27,11
1523209387187382,-30,6,23,1,2,8,41,56
1523209387187382,-14,10,-31,-6,-5,-3,-17,-35
1523209387188389,38,-7,-1,2,1,0,-11,4
1523209387188389,4,-7,-8,-1,-2,2,6,7
1523209387209481,-6,-7,2,0,1,5,21,9
1523209387209481,20,3,13,1,2,-5,-14,54
1523209387210443,71,10,-19,0,0,0,9,-36
1523209387210443,5,-4,0,-6,-6,-3,-7,-12
1523209387232501,-35,-6,-17,4,4,-1,-5,-13
1523209387232501,16,-3,4,0,-2,1,-43,3
1523209387233504,3,12,-5,-3,-1,-1,61,-23
1523209387233504,83,-4,23,-1,-1,-5,-12,1
1523209387247776,-6,-3,-8,-8,-5,-2,-17,-12
1523209387247776,-23,-10,-25,-8,-2,-2,4,5
1523209387248544,-2,-25,11,-1,-1,4,-12,17
1523209387248544,-88,0,-24,0,-1,-2,9,-3
1523209387269616,24,2,4,5,-1,-6,-7,4
1523209387269616,-23,7,22,-2,0,4,26,16
1523209387270605,-49,-20,-1,2,-1,7,-3,36
1523209387270605,-5,4,-7,5,1,-1,2,13
1523209387292661,43,1,2,-3,-4,0,-7,-12
1523209387292661,14,3,-3,2,1,3,-2,24
1523209387293666,-9,5,-1,-4,-2,-3,10,15
1523209387293666,4,3,-2,-3,-4,-4,-20,17
1523209387307702,-27,-3,-2,3,4,-2,28,-2
1523209387307702,-6,7,17,-2,-1,2,-29,-34
1523209387308705,13,-10,-13,-9,-3,-6,-15,-20
1523209387308705,-53,-6,6,-2,-1,-1,0,-1
1523209387329760,-13,0,-13,-2,-3,-5,-37,-30
1523209387329760,-8,-1,21,3,4,7,37,4
1523209387330763,-4,11,18,0,-1,-3,-21,34
1523209387330763,-44,-11,-31,-3,-2,-1,16,-58
1523209387352859,53,-6,5,-1,1,2,-10,20
1523209387352859,-31,0,1,3,-1,-2,-13,24
1523209387352859,-3,8,-4,0,-3,3,15,-36
1523209387352859,24,0,12,-5,-1,-2,-2,7
1523209387368058,8,7,-2,1,1,-2,2,38
1523209387368058,29,-12,-12,0,-3,-4,-4,-44
1523209387368058,-40,0,11,-1,-3,-4,-5,21
1523209387368058,-10,2,-39,3,-1,-2,-20,-48
1523209387389922,-26,-7,-6,-10,-2,-1,11,10
1523209387389922,43,9,7,3,0,1,20,13
1523209387390922,23,0,-4,1,-1,-4,-26,15
1523209387390922,26,-4,1,-1,-4,1,10,7
1523209387411978,-6,-2,1,3,1,0,-8,12
1523209387411978,8,-11,9,-5,-4,-5,1,-36
1523209387412981,3,6,-32,-3,1,3,1,-1
1523209387412981,-12,12,-2,5,4,1,-43,11
1523209387427021,15,6,6,-11,-5,3,84,-40
1523209387427021,9,-19,-4,-3,-4,-2,3,51
1523209387428022,23,6,-4,5,1,-2,20,7
1523209387428022,15,6,11,-5,-1,-1,-5,-5
1523209387450316,-28,-3,-5,-1,-5,-7,-33,-15
1523209387450316,-96,-2,7,-1,-3,-2,3,7
1523209387451082,-33,4,15,1,-1,-1,-4,-41
1523209387451082,19,-1,-25,2,3,-3,-3,5
1523209387472144,32,-9,2,-9,-4,3,27,63
1523209387472144,0,3,-25,1,-3,-1,-2,-72
1523209387473140,-8,5,5,-3,-1,0,-23,-4
1523209387473140,37,-5,22,-2,-3,-2,13,15
1523209387487185,-53,-2,-1,3,4,3,-24,-44
1523209387487185,23,10,-24,-1,1,-2,17,-24
1523209387488185,0,-13,-8,-3,-5,-4,-14,2
1523209387488185,-40,-7,0,-11,-7,-4,20,-1
1523209387510242,-14,2,3,3,-1,-5,-11,-29
1523209387510242,9,5,-2,-3,-3,0,-18,29
1523209387511244,17,7,3,-2,1,-5,8,8
1523209387511244,-17,-9,9,-6,-2,0,15,-4
1523209387532298,11,0,9,2,3,-3,-26,10
1523209387532298,-17,1,6,-8,-2,1,18,3
1523209387533301,11,0,9,4,3,2,-4,-13
1523209387533301,-31,-2,-4,1,0,-1,-7,-41
1523209387547575,-3,-1,-10,-2,-2,-3,-12,4
1523209387547575,79,1,11,10,6,5,-6,-15
1523209387548340,-21,-11,-30,-4,0,5,23,21
1523209387548340,-13,2,21,-2,-4,-2,0,-24
1523209387570401,18,8,-12,4,-4,-4,-20,-10
1523209387570401,-7,7,6,6,6,-1,-19,33
1523209387570401,72,17,22,-3,-5,-4,4,2
1523209387570401,80,-12,-37,0,-2,-3,2,39
1523209387592458,15,10,14,-2,0,-1,9,-27
1523209387592458,7,2,-12,2,4,2,-22,31
1523209387593460,-42,-6,7,1,3,6,8,-39
1523209387593460,-34,-2,11,-6,-7,-5,-18,-43
1523209387607499,3,4,19,4,4,3,12,26
1523209387607499,8,-11,-65,-9,-5,-5,-5,-9
1523209387608501,-37,-14,-3,5,3,1,-14,-10
1523209387608501,36,5,15,-3,1,8,25,8
1523209387629557,-23,5,-7,-3,0,0,-4,14
1523209387629557,-30,-3,14,1,-3,-3,-5,-85
1523209387630560,14,-6,-9,-7,-8,-4,9,24
1523209387630560,2,-2,-26,2,-3,-3,-10,26
1523209387652619,-53,-13,-5,-3,-2,-2,11,18
1523209387652619,79,0,7,-3,2,1,36,25
1523209387653624,-9,-3,-3,-3,0,-3,-23,-12
1523209387653624,36,-2,13,5,-3,-2,-11,2
1523209387667895,69,-1,-15,-2,0,2,0,-4
1523209387667895,-41,-9,26,-6,-4,-7,-25,12
1523209387668659,-29,3,5,2,-1,-5,17,19
1523209387668659,1,1,19,-4,0,2,11,-9
1523209387689716,33,-4,-10,1,-2,2,3,14
1523209387689716,-8,4,-11,3,1,-1,-3,-1
1523209387690719,-26,5,6,-3,-2,-2,-12,-37
1523209387690719,-1,2,12,1,-2,-4,-16,-15
1523209387712777,7,-3,11,0,-2,-3,-2,25
1523209387712777,-56,0,-7,1,-3,3,49,-29
1523209387713781,-28,-4,-10,-6,-5,-5,-23,3
1523209387713781,68,5,-14,0,0,0,4,1
1523209387726815,-19,0,4,4,2,0,-4,-21
1523209387726815,21,0,-2,-5,-3,-3,-21,12
1523209387742898,-5,-5,0,2,3,5,-5,-23
1523209387742898,-19,8,5,0,1,1,22,-7
1523209387750399,-7,-4,4,-2,-2,0,4,29
1523209387750399,19,-5,8,-3,-2,-1,-5,24
1523209387751314,14,-3,12,-1,-1,0,-11,3
1523209387751314,1,13,-3,4,4,0,6,-5
1523209387772224,-79,-16,8,1,-5,0,4,-60
1523209387772224,42,2,-18,-3,1,-2,1,33
1523209387773225,48,8,7,-8,-5,1,4,9
1523209387773225,-62,-13,-3,5,1,-2,-6,45
1523209387787267,20,3,-11,-8,-2,-1,0,-17
1523209387787267,-32,-7,1,-5,-4,1,28,6
1523209387795284,-16,-7,-15,5,5,1,-5,-7
1523209387795284,17,0,-4,-1,-3,-6,-13,25
1523209387810326,22,5,-15,1,1,1,14,-39
1523209387810326,22,7,18,-7,-4,-4,-27,4
1523209387810326,-37,-10,-3,-1,1,4,12,9
1523209387810326,-8,-7,-5,-6,-2,1,18,-19
1523209387832385,-4,4,7,0,1,-1,-14,49
1523209387832385,-47,11,27,1,-2,-4,-16,-30
1523209387833384,90,-14,-47,-2,-4,-2,-12,-20
1523209387833384,69,5,-14,3,-1,-6,15,29
1523209387847423,-42,-1,9,-4,-2,-2,-5,14
1523209387847423,20,-1,4,5,0,1,4,25
1523209387854444,-82,3,15,3,1,0,-1,13
1523209387854444,-29,6,10,-3,-2,-1,-9,-3
1523209387869484,0,-14,-17,-6,-7,-7,-5,-5
1523209387869484,27,-9,0,3,5,5,4,2
1523209387870490,-56,5,3,-1,-2,-3,10,-48
1523209387870490,-14,-6,-5,-2,-2,-1,2,9
1523209387892543,7,3,38,7,0,-1,-9,-7
1523209387892543,-25,10,-10,-1,-1,1,9,-6
1523209387893587,-17,-7,8,-7,-3,-7,-37,-7
1523209387893587,34,4,-1,-5,-2,1,12,-24
1523209387906580,94,3,4,-4,-3,-2,-13,30
1523209387906580,-53,-8,-12,-1,-5,-8,-12,-29
1523209387914808,8,4,19,10,2,1,-5,-9
1523209387914808,-4,-11,33,-6,-6,0,16,-7
1523209387929643,-59,-9,-55,0,1,-1,3,20
1523209387929643,-63,-13,19,3,0,-4,-10,33
1523209387930645,25,-11,-16,-3,-3,-4,-1,9
1523209387930645,-33,0,1,4,3,3,-11,-7
1523209387952718,-11,7,0,-7,-1,-4,1,-29
1523209387952718,7,-9,-2,-5,-2,-1,9,10
1523209387953709,3,8,10,-1,2,-1,9,-12
1523209387953709,-14,8,-10,5,4,4,-12,29
1523209387966779,-12,5,14,-4,-3,-8,-29,-20
1523209387966779,14,-12,-29,-5,-6,-3,-1,-10
1523209387974761,59,4,-7,-1,-2,-2,20,32
1523209387974761,53,16,20,-3,0,3,11,-28
1523209387989801,-4,-12,-33,3,3,5,-3,27
1523209387989801,-52,-2,0,2,-2,-4,-13,-45
1523209387990804,-15,-3,-5,-2,-2,1,3,14
1523209387990804,19,-1,-5,3,2,-4,-18,-60
1523209388012862,-5,2,18,2,-1,3,6,5
1523209388012862,20,3,-36,-1,1,3,18,-1
1523209388013865,1,2,-13,-5,-4,-3,0,11
1523209388013865,-75,-11,0,2,1,-2,-21,-13
1523209388035925,50,15,15,1,3,5,-19,1
1523209388035925,30,-4,5,-8,-1,0,-16,20
1523209388035925,9,7,7,6,3,1,34,1
1523209388035925,-18,-12,4,-3,-4,0,-21,11
1523209388050196,-27,-16,5,7,-2,-1,-1,-12
1523209388050196,-101,-5,7,1,1,8,12,20
1523209388050965,-10,-1,7,-3,-3,-6,-1,-25
1523209388050965,-23,0,-15,-2,0,0,7,10
1523209388072020,-1,-5,-7,3,2,3,0,27
1523209388072020,15,6,8,-6,-4,3,13,-15
1523209388073022,2,7,8,2,1,-4,-8,-10
1523209388073022,-12,-1,8,-2,-1,0,28,35
1523209388096245,11,-7,-5,-4,-2,-4,-2,-35
1523209388096245,30,5,10,6,2,-2,-8,-5
1523209388096245,-8,-9,-10,0,-1,4,-15,-5
1523209388096245,-27,1,12,-1,-1,-2,-5,8
1523209388110121,6,5,3,-8,-3,-6,9,-21
1523209388110121,79,-3,13,1,1,-2,12,-10
1523209388111123,-67,-1,-1,-1,-4,-3,-5,11
1523209388111123,-11,-4,-4,2,0,-5,-19,-20
1523209388132416,-19,-3,-32,2,0,7,43,9
1523209388132416,63,-1,-5,-7,-4,-4,-14,0
1523209388133182,27,8,-6,-6,2,5,-11,-18
1523209388133182,2,0,1,-1,0,0,-4,26
1523209388155244,36,4,5,-7,-3,-1,14,3
1523209388155244,-17,2,-3,6,-1,-1,-14,8
1523209388156243,-33,-12,0,-3,-2,1,-6,-15
1523209388156243,54,3,-3,1,-2,0,-6,-41
1523209388170289,-17,-20,-6,1,-2,-5,-1,33
1523209388170289,33,12,12,2,5,1,7,19
1523209388171287,82,2,3,-3,-5,-3,-11,4
1523209388171287,-95,-18,-20,-3,-1,-2,7,20
1523209388192380,-4,8,-1,0,2,-1,-2,-4
1523209388192380,-10,-6,-2,-10,-5,-6,-22,-27
1523209388193343,6,3,8,4,1,2,14,-2
1523209388193343,100,1,-20,-2,-4,-4,-22,-19
1523209388215440,12,3,14,4,-1,-5,7,20
1523209388215440,-35,-10,-3,-8,-2,-1,10,6
1523209388216403,-22,7,-10,5,1,-7,-7,-21
1523209388216403,-15,-8,3,0,-1,1,-7,26
1523209388229441,-28,2,-16,-5,-2,-2,-18,-31
1523209388229441,10,4,-46,-1,0,-4,-18,-44
1523209388230441,38,7,5,6,4,5,21,31
1523209388230441,-2,-15,-5,-8,-6,-2,6,14
1523209388252505,-81,0,14,3,3,1,-11,-39
1523209388252505,-21,-10,-11,4,-1,-1,24,3
1523209388253505,27,3,-3,-9,-1,-2,-24,-2
1523209388253505,-45,-6,-14,2,1,1,21,-2
1523209388275601,55,5,37,3,0,-1,-32,15
1523209388275601,-3,6,0,-4,-4,3,35,-27
1523209388276564,-31,-18,-10,-6,-4,-6,-4,-4
1523209388276564,-7,4,2,-3,-1,1,0,4
1523209388289599,43,0,-12,-6,-6,-10,-25,-2
1523209388289599,-18,10,5,3,3,2,19,15
1523209388290600,-7,-5,1,1,1,4,12,-3
1523209388290600,18,6,5,-2,0,-5,-18,-11
1523209388312659,30,-3,-2,-6,-4,-2,-1,11
1523209388312659,-21,-3,1,7,1,-2,17,20
1523209388313677,-5,6,14,-2,-3,-1,-3,-23
1523209388313677,-25,-2,24,0,0,-1,0,26
1523209388335759,-29,-8,-31,-2,0,3,12,-25
1523209388335759,-21,-12,6,4,0,-1,-17,34
1523209388336732,21,-4,5,-1,2,4,9,68
1523209388336732,-1,-12,-8,-5,-2,2,-14,-56
1523209388349992,-14,1,14,-1,-4,-3,15,-5
1523209388349992,-31,-3,2,-1,1,-1,-26,-20
1523209388350760,2,-2,-8,2,-3,-5,-1,32
1523209388350760,23,0,-6,3,-2,-5,-2,14
1523209388380840,-14,7,-22,-3,-2,4,-8,-23
1523209388380840,84,3,11,-8,-4,-2,4,32
1523209388381842,-60,-7,-4,2,-2,-5,-4,-25
1523209388381842,-16,-2,5,-1,-1,-4,-14,44
1523209388396115,-7,-7,-4,-5,-4,-2,7,0
1523209388396115,44,12,15,1,-1,0,2,61
1523209388396115,-63,-15,-37,-3,1,7,32,-36
1523209388396115,-16,-8,-27,-1,-4,3,16,22
1523209388409956,-48,-3,2,-3,3,-1,-18,10
1523209388409956,-32,-4,0,-6,-6,-2,-6,-29
1523209388410920,4,-1,3,2,0,0,-5,0
1523209388410920,18,3,14,2,2,-1,-8,-8
1523209388433040,111,7,1,-4,-2,4,19,-12
1523209388433040,-58,-8,-1,1,1,-1,-7,11
1523209388433040,9,5,3,3,0,-6,-10,-32
1523209388433040,-15,-1,6,-2,-1,1,4,-40
1523209388456039,41,7,32,9,2,-4,-12,26
1523209388456039,-19,-1,-33,-6,1,-1,-3,-23
1523209388456039,30,-27,9,-5,-4,-5,-18,-7
1523209388456039,41,10,8,2,1,1,-11,21
1523209388470285,-45,-3,6,6,3,3,21,-12
1523209388470285,29,1,19,-1,-3,-4,-21,-13
1523209388471084,-27,10,1,-2,-3,-4,-6,36
1523209388471084,10,-31,-47,-8,-6,-6,-5,4
1523209388492136,-5,-2,-5,-1,3,7,65,6
1523209388492136,9,15,10,3,1,-4,-20,-17
1523209388493139,26,5,-6,0,0,1,-26,-43
1523209388493139,89,14,12,0,0,3,21,4
1523209388515433,19,-13,-15,0,-5,-8,-29,21
1523209388515433,4,6,-7,-5,-1,3,6,1
1523209388516199,8,3,7,2,2,3,10,-22
1523209388516199,-1,1,16,1,-2,-6,-7,0
1523209388530278,-34,-6,-9,-7,-5,-5,-20,-26
1523209388530278,26,9,11,5,3,4,22,2
1523209388530278,-34,0,2,-8,-5,-3,-10,34
1523209388530278,-42,4,9,0,3,6,16,6
1523209388552296,-1,11,-55,-4,-7,-9,-25,-25
1523209388552296,-71,-17,-15,-1,-2,0,-12,-13
1523209388553301,4,2,14,1,-3,0,11,7
1523209388553301,-55,5,10,7,5,3,10,3
1523209388575357,47,5,8,0,-2,-2,-8,-1
1523209388575357,-40,-15,-2,-9,-4,-4,-16,-6
1523209388576359,-6,-10,3,2,0,-1,-6,-21
1523209388576359,-3,9,-1,-2,-2,-1,0,-6
1523209388589394,17,-5,-7,3,1,-5,-15,24
1523209388589394,12,8,19,2,-3,1,2,-2
1523209388590397,20,-3,-12,1,-2,-2,25,42
1523209388590397,2,2,3,2,-2,-4,-5,-24
1523209388612458,-80,-10,-7,-1,1,2,-7,-8
1523209388612458,23,0,-5,4,1,-4,-15,2
1523209388613459,-4,7,-2,-5,-1,-3,10,12
1523209388613459,22,5,-12,4,2,-3,-27,-67
1523209388635518,-14,-1,17,5,1,5,30,21
1523209388635518,-63,-16,-15,-9,-4,-1,11,6
1523209388636524,-74,-7,0,1,1,3,-2,33
1523209388636524,13,3,22,-6,-2,-1,8,-29
1523209388658579,-36,-12,4,-1,-2,-5,-5,8
1523209388658579,-5,-1,6,-2,0,0,3,-9
1523209388658579,56,2,-5,4,1,0,-20,7
1523209388658579,-23,-14,-2,-7,-3,0,31,2
1523209388672615,-3,0,8,-3,-2,-2,-7,-3
1523209388672615,74,9,-1,3,-1,-2,-12,16
1523209388673620,37,10,-11,-3,-3,-2,-4,-2
1523209388673620,-18,-4,1,0,-1,2,-2,18
1523209388695911,29,2,3,-2,-3,-3,-7,-76
1523209388695911,21,1,-11,-2,-1,-1,17,13
1523209388696679,20,12,-11,1,1,2,-3,16
1523209388696679,93,-1,0,-4,-6,-5,-21,-7
1523209388709716,-63,-1,12,-3,0,4,40,5
1523209388709716,6,-5,-4,2,0,-6,-11,28
1523209388717972,-1,13,-8,0,1,-1,-8,-38
1523209388717972,-58,-12,18,3,4,4,20,39
1523209388733011,12,12,6,-2,1,3,-2,16
1523209388733011,4,-4,-1,-2,-3,-3,3,-10
1523209388733778,-9,3,16,-6,-6,-1,-1,-22
1523209388733778,1,5,-18,0,0,-6,-26,41
1523209388755838,-46,-13,-9,-7,-7,0,10,-21
1523209388755838,-48,-8,15,1,3,2,12,-56
1523209388755838,53,-5,-3,-4,-4,-8,-19,-16
1523209388755838,-11,-3,-2,-3,-2,1,-4,-12
1523209388768872,20,2,4,2,2,0,-6,13
1523209388768872,48,-3,-18,1,0,2,1,38
