timestamp,emg1,emg2,emg3,emg4,emg5,emg6,emg7,emg8
1523210519011226,-2,-5,-1,6,18,8,1,-2
1523210519011226,4,3,-7,3,7,4,-1,2
1523210519011226,0,0,20,-16,-10,-6,0,-2
1523210519011226,-5,-6,-7,19,-9,-19,-5,-2
1523210519033284,-2,9,4,-22,-26,21,1,-3
1523210519033284,-3,-6,-21,6,26,-4,1,-3
1523210519034287,5,-7,5,-31,-4,13,-9,3
1523210519034287,0,-7,-22,7,-19,-18,2,-2
1523210519047320,2,1,10,2,-1,-9,1,3
1523210519047320,-9,-7,4,-4,-2,5,-3,-6
1523210519056365,19,5,19,7,-8,-6,-5,-2
1523210519056365,-3,-1,-33,-23,0,5,-4,-1
1523210519070381,0,-5,1,9,15,-5,-6,-2
1523210519070381,2,0,2,-9,-4,8,8,3
1523210519071386,-2,-3,-17,-2,-1,-8,4,-3
1523210519071386,2,-4,11,-5,6,11,-1,1
1523210519093443,-1,0,0,7,-4,-7,-6,-2
1523210519093443,0,0,2,1,-37,-19,-3,2
1523210519094445,-4,8,28,-2,37,13,3,1
1523210519094445,-3,-8,-32,-23,20,23,6,1
1523210519109486,-4,-3,14,14,-9,-1,0,-1
1523210519109486,4,4,-2,1,2,-6,-6,-2
1523210519115501,-9,1,9,8,-19,-17,-4,-4
1523210519115501,-4,-11,11,3,-12,1,-2,-3
1523210519130543,1,3,-28,-26,11,-2,1,0
1523210519130543,-3,-6,-19,14,-1,-8,-6,-5
1523210519131545,-2,0,-12,-23,-2,5,5,2
1523210519131545,4,5,24,1,2,-4,-6,-4
1523210519153603,1,6,59,7,-6,-2,3,5
1523210519153603,-9,-14,-68,-14,-6,-2,0,-4
1523210519154613,7,2,-16,-3,4,5,-9,0
1523210519154613,-28,1,7,22,-2,-7,4,-3
1523210519167640,1,-5,-30,-34,-30,-10,-5,0
1523210519167640,-1,2,-14,-4,27,-9,-6,1
1523210519175664,-7,-8,13,3,-2,5,3,-1
1523210519175664,9,7,4,7,-11,18,1,3
1523210519190715,-2,0,18,3,9,-8,-1,-3
1523210519190715,-2,-3,1,6,16,11,1,-1
1523210519191705,3,7,-8,15,-6,-2,2,2
1523210519191705,6,-2,18,14,-7,-11,-6,-2
1523210519213767,-13,-15,4,-43,-29,-17,-5,-9
1523210519213767,17,22,-4,10,16,22,8,13
1523210519213767,-10,-18,33,42,32,1,-2,-3
1523210519213767,-3,-7,-22,-19,-33,-9,-4,-6
1523210519236823,4,-2,7,29,13,-1,1,1
1523210519236823,4,17,85,10,-14,-3,2,2
1523210519236823,-5,-15,-64,-26,-8,1,0,-4
1523210519236823,5,14,13,-5,25,1,-1,6
1523210519250865,3,13,4,-5,-9,-3,2,-2
1523210519250865,-4,-13,-37,-36,-18,-7,-2,-5
1523210519251864,1,5,17,11,-4,-2,-1,2
1523210519251864,-3,-3,-6,-16,5,-6,-1,-3
1523210519272921,0,2,-16,26,0,5,1,2
1523210519272921,-2,-1,-11,-7,-1,-7,-4,-3
1523210519273923,-6,2,-4,-68,-18,-12,2,-2
1523210519273923,1,-4,33,44,18,11,0,0
1523210519287966,3,-1,-47,-22,33,18,7,3
1523210519287966,-9,-14,63,35,9,7,-1,-5
1523210519295983,1,-3,-4,4,-20,-9,-3,-3
1523210519295983,1,2,-6,-14,-20,-13,-5,-2
1523210519311025,-4,-5,-16,-14,-12,-16,-10,-5
1523210519311025,-1,-10,10,11,-18,-2,0,-2
1523210519312028,1,15,-11,8,35,10,6,4
1523210519312028,0,-12,-8,2,1,7,2,-1
1523210519333080,0,11,15,21,0,-2,0,-2
1523210519333080,0,2,-14,-30,-20,-12,-8,-4
1523210519334083,-1,2,28,-11,-24,-12,-4,-2
1523210519334083,-1,-6,26,25,24,4,2,1
1523210519356141,0,-9,5,-21,0,12,-1,0
1523210519356141,3,3,12,33,20,2,2,2
1523210519357142,-3,-2,-59,0,-15,-2,-5,-3
1523210519357142,-2,-7,-17,-53,-19,-15,-5,-4
1523210519371181,0,-3,-1,15,-7,-9,1,1
1523210519371181,-2,6,1,0,-5,11,-1,-1
1523210519371181,0,2,15,16,31,5,2,-1
1523210519371181,0,4,-15,-7,-14,3,0,1
1523210519393240,-8,-15,-19,-17,-16,-17,-5,-7
1523210519393240,2,0,8,11,-3,-4,-1,-1
1523210519394244,12,-1,2,-33,1,18,5,2
1523210519394244,-30,5,22,24,21,2,-1,-2
1523210519416548,-4,-10,-41,-21,-4,-5,-4,-2
1523210519416548,3,0,-2,1,-4,-6,-2,-4
1523210519417304,-2,-5,-1,4,-12,-5,-5,12
1523210519417304,14,19,23,15,-1,0,5,-2
1523210519431459,1,2,-17,9,9,3,2,1
1523210519431459,-11,-2,-80,-28,-10,-5,-4,-6
1523210519431459,-4,-18,45,41,-2,-6,-7,-3
1523210519431459,-3,-2,-13,-11,5,3,5,-5
1523210519453398,7,7,7,9,0,0,0,6
1523210519453398,0,8,26,1,0,-2,1,-1
1523210519454407,-5,-1,25,7,1,-3,-1,-3
1523210519454407,4,1,-12,-20,-6,-3,-7,-3
1523210519476470,-4,0,22,0,11,10,4,-6
1523210519476470,-2,-13,2,-23,-2,0,-2,0
1523210519477465,0,13,4,9,0,-3,0,-4
1523210519477465,1,-3,5,11,-14,-13,-5,2
1523210519490499,-3,4,18,46,-21,-7,0,-1
1523210519490499,2,-4,0,-12,30,12,4,2
1523210519491501,-13,-21,-61,-29,14,9,-1,-5
1523210519491501,11,5,-5,-5,-8,-3,-19,1
1523210519513560,3,-15,31,11,2,1,21,1
1523210519513560,-3,1,-41,-5,-11,-3,11,4
1523210519514562,6,2,-3,16,-11,-5,2,-8
1523210519514562,-2,-7,-3,23,2,-3,-4,1
1523210519536619,-3,-3,7,-62,-11,-4,-11,-9
1523210519536619,1,1,-3,9,29,10,-13,-3
1523210519537646,-3,-3,38,17,-11,-9,-3,3
1523210519537646,3,2,-34,-5,-6,-2,3,3
1523210519550660,0,0,-7,8,2,3,4,-2
1523210519550660,13,4,8,6,-3,-1,6,1
1523210519551660,-3,4,-3,-5,3,2,-8,5
1523210519551660,4,-2,31,-12,-9,-7,-3,1
1523210519573719,-4,5,-69,3,-5,-7,-16,-2
1523210519573719,4,-14,58,1,0,-4,7,-2
1523210519573719,-11,4,-20,-3,2,3,2,-9
1523210519573719,1,10,-11,-4,-4,2,1,8
1523210519596819,-2,-44,-24,5,17,10,21,6
1523210519596819,9,9,9,10,-8,-3,0,0
1523210519597783,-1,4,5,-13,-12,-11,-31,-10
1523210519597783,-8,-5,-25,-9,5,3,16,-1
1523210519610819,4,18,73,26,10,9,1,1
1523210519610819,-3,-3,-44,-2,-8,-4,-13,1
1523210519611820,2,-13,41,-9,-4,-3,20,6
1523210519611820,-8,-7,-12,3,7,6,3,-2
1523210519633980,27,16,16,31,-5,-8,-14,-1
1523210519633980,-18,-13,44,-44,-10,-4,2,3
1523210519633980,5,24,-20,4,4,1,-1,-4
1523210519633980,4,-20,43,-2,-8,-6,-7,-17
1523210519656939,17,15,0,14,13,0,3,10
1523210519656939,-8,3,-14,-16,1,4,-4,-2
1523210519656939,24,24,-8,0,1,4,18,7
1523210519656939,-27,8,-1,-15,5,1,-9,-5
1523210519670982,5,-11,-49,20,-5,0,-14,-2
1523210519670982,-42,-1,-22,-57,-11,-6,1,-23
1523210519671981,17,-11,28,2,-6,-4,-28,0
1523210519671981,-3,5,8,16,0,0,37,3
1523210519693037,17,8,-47,-33,-6,-4,-6,-11
1523210519693037,-20,-9,-52,-10,-3,0,-5,1
1523210519694038,14,11,62,24,0,-11,-1,-4
1523210519694038,-9,-21,21,2,-1,7,-11,-5
1523210519716338,-16,8,36,26,4,6,2,7
1523210519716338,23,-4,-6,-4,8,-3,-6,4
1523210519717100,-21,-13,-29,11,-29,-10,0,-2
1523210519717100,11,6,-26,-3,16,2,-12,8
1523210519731373,-6,-3,49,-13,15,11,15,7
1523210519731373,-2,-2,-58,80,1,5,-5,-14
1523210519732139,-19,-27,-75,-94,-13,-6,0,6
1523210519732139,24,8,3,46,-12,-14,-1,-1
1523210519753196,-50,-13,-36,-16,-13,-8,-30,-5
1523210519753196,1,16,70,37,16,8,36,4
1523210519754205,-4,-6,-48,-3,0,-1,-4,-7
1523210519754205,17,1,-20,-13,-9,-6,-6,5
1523210519776259,4,6,29,-25,8,2,7,19
1523210519776259,32,-6,-2,1,-9,-1,1,-3
1523210519777261,-64,-6,-5,23,15,8,-5,-14
1523210519777261,9,0,-36,-21,2,5,2,13
1523210519791297,-11,-15,-3,-14,-16,-8,8,-12
1523210519791297,-12,19,40,7,-5,-8,-6,16
1523210519791297,-3,-4,-6,106,-4,-7,1,-24
1523210519791297,29,0,-26,-107,-5,-2,-9,10
1523210519814399,5,-3,39,49,2,-3,-29,7
1523210519814399,-88,-17,-30,27,-5,-2,26,-40
1523210519814399,89,11,33,11,25,15,-11,8
1523210519814399,-44,-9,-5,9,0,-1,13,-14
1523210519836416,26,-10,-9,-22,-12,-7,-17,-11
1523210519836416,-31,-30,47,-21,-17,-12,-24,0
1523210519837421,-12,1,-81,-22,5,6,3,8
1523210519837421,14,11,44,35,-3,-1,4,-2
1523210519850498,5,6,-56,-44,0,-1,0,-5
1523210519850498,-25,13,20,21,7,5,15,19
1523210519858476,4,-33,14,-30,-4,-2,11,7
1523210519858476,-17,-11,4,-2,-8,-6,-22,-34
1523210519873515,-8,13,0,4,-2,-5,14,-8
1523210519873515,18,-8,-9,2,0,0,-8,19
1523210519874520,23,32,16,-10,4,1,9,0
1523210519874520,38,22,-9,-1,4,6,5,12
1523210519896578,-48,-17,6,25,-3,-4,-11,-30
1523210519896578,14,8,36,-37,-7,-1,-5,8
1523210519897579,55,-4,24,-36,-4,-2,0,9
1523210519897579,-19,-21,3,23,3,1,-27,-8
1523210519911659,35,8,-3,0,3,7,43,39
1523210519911659,-13,5,-6,20,-2,-3,-13,-4
1523210519918870,-66,-3,-13,-33,1,-1,-5,-2
1523210519918870,21,5,12,27,-1,-5,0,-12
1523210519933911,4,4,-16,-33,-6,-4,-5,-2
1523210519933911,26,21,6,24,5,0,-7,0
1523210519933911,15,-28,-33,60,-9,-5,8,7
1523210519933911,-99,-1,19,4,10,5,10,0
1523210519956737,44,2,-16,28,2,0,-14,7
1523210519956737,49,-14,-60,-104,-24,-14,20,15
1523210519957739,3,28,23,-16,12,7,-1,-1
1523210519957739,20,31,-99,-50,-10,5,35,9
1523210519970778,-22,-11,25,70,6,-2,-21,-3
1523210519970778,7,8,44,7,8,2,9,9
1523210519979031,-83,-13,18,1,-2,-1,15,-19
1523210519979031,9,-11,3,-33,-14,-15,-25,-7
1523210519992833,-16,14,36,-43,8,11,1,4
1523210519992833,7,10,7,98,10,4,-8,-21
1523210519993836,2,-8,7,-103,-10,-4,-10,10
1523210519993836,-9,-9,38,46,-2,-4,-5,-3
1523210520016897,-10,6,-1,30,3,4,-26,1
1523210520016897,9,-14,-5,8,2,3,29,18
1523210520016897,25,-6,41,16,17,9,-37,-22
1523210520016897,-19,3,-68,-53,-8,1,31,11
1523210520029932,7,-9,-21,65,-20,-19,-14,-14
1523210520029932,-19,-20,29,-18,6,0,-9,-3
1523210520037955,10,6,-38,13,-6,0,-7,12
1523210520037955,22,-13,-24,8,3,3,3,-10
1523210520054002,-82,1,4,-8,-5,-4,-5,5
1523210520054002,6,1,16,8,-9,-8,-22,-8
1523210520054999,9,10,39,52,3,-2,19,9
1523210520054999,1,2,25,-17,17,7,-19,4
1523210520076055,16,25,68,-48,4,9,33,-17
1523210520076055,22,-13,-47,7,-12,-7,-27,-14
1523210520077057,-25,-18,-18,-41,-10,-7,6,13
1523210520077057,36,14,23,38,3,2,3,25
1523210520090093,-14,-30,-17,-37,-2,1,13,-6
1523210520090093,16,15,11,-11,-4,-1,-5,-5
1523210520098114,-4,-4,-6,28,-10,-8,-14,-5
1523210520098114,5,-8,20,-9,20,1,22,16
1523210520114155,24,-7,-10,28,0,0,17,-15
1523210520114155,-8,19,-2,-109,-14,-10,-24,-10
1523210520115157,-27,-9,-55,21,-12,0,5,-7
1523210520115157,28,-15,46,68,10,4,-13,-4
1523210520136213,1,0,-68,-105,-4,3,-11,8
1523210520136213,-11,-23,41,121,7,0,17,31
1523210520137219,-3,29,17,11,-14,-12,-3,-45
1523210520137219,3,-33,4,15,-10,-11,1,7
1523210520150251,16,1,20,-10,15,5,2,-9
1523210520150251,-11,-13,-12,-64,5,11,-9,5
1523210520158272,-3,-8,-6,30,-2,-6,20,-8
1523210520158272,35,28,15,-36,-12,-4,-10,18
1523210520174315,-89,-12,15,17,-17,-11,-12,-20
1523210520174315,15,11,-35,-11,4,5,10,3
1523210520174315,-14,-13,-2,28,27,14,1,6
1523210520174315,56,37,-4,-84,-5,6,1,2
1523210520196373,-21,-57,-2,30,-16,-15,7,-7
1523210520196373,17,8,-1,32,-2,-23,-6,-12
1523210520197375,4,21,-9,-23,-25,-4,-7,17
1523210520197375,-30,-19,-5,-18,-13,4,-18,3
1523210520210411,40,24,7,13,66,25,5,-29
1523210520210411,-29,-11,-18,5,-2,1,-26,7
1523210520218432,19,-18,37,0,-4,-12,4,-15
1523210520218432,-111,-27,-17,-43,-28,-11,41,-7
1523210520233474,38,-9,10,10,-17,-5,-28,-27
1523210520233474,-45,-11,-18,35,7,4,-3,1
1523210520234475,-7,27,10,-43,4,-1,-3,26
1523210520234475,19,31,8,25,2,-1,-14,-18
1523210520256533,59,-14,-42,1,3,2,0,7
1523210520256533,-28,-8,0,-28,-1,-2,19,-43
1523210520257536,58,12,-2,1,1,9,-8,51
1523210520257536,-36,-11,2,27,6,-3,20,-43
1523210520270573,-8,0,2,-15,-14,-14,-16,16
1523210520270573,31,23,-28,-3,-3,2,4,0
1523210520278592,25,5,-37,-29,2,0,-15,-4
1523210520278592,17,-5,14,27,3,-5,3,5
1523210520293631,-4,11,11,20,-7,-3,3,11
1523210520293631,-9,15,-45,-105,-12,0,-4,1
1523210520293631,68,-13,18,6,8,5,4,-14
1523210520293631,-30,-5,-13,38,3,-4,-17,6
1523210520316692,66,33,-1,-79,-9,1,26,1
1523210520316692,-71,-18,12,85,6,-6,-38,-23
1523210520317695,-6,5,4,-38,-5,1,9,3
1523210520317695,16,1,-7,1,-4,-3,8,-17
1523210520338751,82,46,-35,4,-4,-1,7,26
1523210520338751,-9,9,27,1,3,3,4,15
1523210520339754,-27,-26,-37,2,3,2,-4,-34
1523210520339754,-17,-7,-12,-16,3,1,-27,-23
1523210520353791,-53,-19,10,93,-1,-5,-3,28
1523210520353791,45,26,43,-66,3,1,17,-8
1523210520353791,-54,-41,4,77,-1,0,-10,0
1523210520353791,-59,6,15,-77,-5,3,30,8
1523210520376854,78,10,0,-7,-1,-3,-14,6
1523210520376854,-36,-16,-14,55,-1,-1,0,-11
1523210520377857,-36,6,30,-5,-2,-7,-2,5
1523210520377857,-9,-26,-38,1,4,1,-34,-16
1523210520398949,-72,-3,27,-17,-6,-2,18,11
1523210520398949,58,-9,15,-3,-1,2,4,-8
1523210520400917,-25,18,3,-28,5,3,-13,-2
1523210520400917,29,-22,-17,7,-4,1,29,15
1523210520413004,-9,-2,21,-13,-4,-6,30,-15
1523210520413004,-63,-1,-34,-17,1,4,-45,-6
1523210520421973,21,-6,30,10,2,-1,63,-6
1523210520421973,37,6,-19,51,5,-2,-36,7
1523210520436062,-58,-35,26,-47,-17,-9,-13,2
1523210520436062,20,16,-16,28,19,11,9,24
1523210520438019,-14,16,49,4,-15,-13,-16,-6
1523210520438019,1,-19,-16,-22,2,4,-6,8
1523210520459074,-22,23,36,13,-4,-3,-19,-30
1523210520459074,37,6,-23,-2,-1,2,27,7
1523210520461078,1,-13,-16,-21,4,6,-15,19
1523210520461078,-29,7,7,9,3,-1,-8,-18
1523210520473109,-15,-6,-31,8,0,3,-7,-24
1523210520473109,38,0,-15,-66,-9,0,12,7
1523210520482133,11,12,18,57,3,-8,-8,7
1523210520482133,-23,-16,23,-3,-5,1,15,7
1523210520496169,42,-5,-34,-4,2,4,7,29
1523210520496169,-45,-2,8,-17,-6,-6,-10,-43
1523210520498177,2,-28,-44,-29,-11,-10,7,-10
1523210520498177,-4,33,29,21,9,0,-26,1
1523210520519231,-19,6,3,7,10,7,2,7
1523210520519231,32,-8,19,-23,-7,-2,10,24
1523210520520237,-55,6,-9,-27,2,1,-23,-16
1523210520520237,40,-17,1,30,2,0,8,0
1523210520533307,-8,-11,-7,-27,0,-3,11,9
1523210520533307,-11,-11,-17,78,2,-2,-1,-15
1523210520541291,-30,-6,5,-59,-3,1,-2,9
1523210520541291,33,27,20,-10,0,1,16,-1
1523210520556330,14,0,-5,-17,-3,2,-3,16
1523210520556330,-59,-38,12,12,-6,-11,-18,-1
1523210520558335,14,-4,-10,32,1,1,-7,-7
1523210520558335,32,4,-13,1,-3,-4,9,0
1523210520579391,0,-18,17,10,1,-1,-9,-5
1523210520579391,52,36,-27,-32,-15,-7,-7,1
1523210520580394,35,18,-4,5,5,3,-9,-3
1523210520580394,-43,-15,-4,8,3,0,-30,18
1523210520593428,-33,12,-11,14,3,5,27,-20
1523210520593428,29,0,-22,18,6,1,17,2
1523210520600447,-5,-7,8,11,-3,-1,-4,1
1523210520600447,36,13,10,8,-7,-5,6,16
1523210520616490,66,-5,-24,-23,-3,-3,-33,3
1523210520616490,-3,6,19,5,-4,-5,-16,4
1523210520618496,58,7,-9,15,10,9,64,5
1523210520618496,6,-3,3,-13,-7,-6,-16,-12
1523210520638549,-18,8,37,22,1,-1,0,2
1523210520638549,39,-3,-19,-27,-3,-2,-27,25
1523210520640553,2,-23,18,10,5,-1,5,-29
1523210520640553,-24,13,-31,-3,-6,-2,6,-15
1523210520653593,12,10,-1,12,0,-1,5,6
1523210520653593,-46,3,-8,10,8,8,26,-44
1523210520660607,86,20,27,3,-6,-2,-18,14
1523210520660607,-22,-6,1,-21,-2,-3,6,-1
1523210520676651,-1,7,-43,-38,-6,-4,-8,-7
1523210520676651,-71,-26,12,-1,-4,-5,5,-19
1523210520677653,9,19,-8,-7,1,0,-2,5
1523210520677653,-7,-6,8,39,1,0,-9,-8
1523210520698708,-31,-18,-24,-48,-13,-8,-4,5
1523210520698708,36,28,27,4,7,8,29,21
1523210520700713,-20,-4,-12,-3,-5,-2,-17,-19
1523210520700713,10,8,17,12,1,-1,2,4
1523210520713747,-53,-16,12,25,6,1,-12,-4
1523210520713747,-9,-21,4,21,0,2,9,13
1523210520720778,-30,-11,-8,-29,-4,-3,4,-17
1523210520720778,37,-8,5,-21,-5,-10,-18,13
1523210520736816,30,3,0,-14,4,6,30,-4
1523210520736816,-38,-19,19,67,-4,-8,-21,-4
1523210520737817,-13,12,-6,-14,-6,-4,-7,6
1523210520737817,30,-2,-8,28,-1,-2,-7,4
1523210520758867,-29,-2,8,14,6,6,-15,-25
1523210520758867,34,-5,-20,-11,-3,-2,5,36
1523210520760873,-6,-2,-5,-11,-2,3,9,3
1523210520760873,-35,-2,-18,2,3,5,27,4
1523210520772906,-8,26,2,-6,-6,-5,-27,-21
1523210520772906,75,11,0,-8,0,0,-9,-23
1523210520779927,-93,-20,-48,27,-8,-10,-19,1
1523210520779927,58,0,-14,-30,1,5,-7,-11
1523210520796971,-90,-2,15,47,0,0,25,4
1523210520796971,27,-9,3,-58,-2,0,3,12
1523210520797974,51,3,-11,14,2,-2,-8,-11
1523210520797974,-14,-8,-3,-31,-2,-1,-11,1
1523210520819028,-3,1,-4,-10,0,-3,-16,-15
1523210520819028,-14,25,-35,50,7,3,0,3
1523210520821034,-25,-2,2,-65,-6,-2,8,17
1523210520821034,-28,13,22,2,-1,-5,-15,-2
1523210520833066,56,-10,-3,31,3,4,22,8
1523210520833066,44,5,8,-5,-4,0,2,6
1523210520842089,-89,-13,-3,7,6,1,0,-22
1523210520842089,29,-2,6,-7,-3,3,-5,4
1523210520856126,-42,-10,7,22,-11,-8,-10,16
1523210520856126,27,-7,-12,-42,-7,-4,10,-14
1523210520858132,22,-6,4,3,0,0,-4,9
1523210520858132,1,1,-26,17,-3,-4,-6,-18
1523210520879215,25,-4,39,-60,0,-3,-14,32
1523210520879215,-20,-8,-8,-19,-2,1,-3,2
1523210520880191,46,-1,13,5,-1,1,18,5
1523210520880191,-59,-1,-4,7,7,7,16,1
1523210520893227,105,11,10,31,-4,-4,-7,10
1523210520893227,-17,-23,-65,-48,-10,-8,-9,-5
1523210520901248,-64,12,1,15,8,5,-10,6
1523210520901248,-50,-2,26,4,-6,-2,-22,15
1523210520916288,36,-23,4,-42,-3,2,21,-33
1523210520916288,-41,-4,40,17,0,-5,-32,-5
1523210520918293,66,-15,-10,37,2,3,28,8
1523210520918293,-35,-4,12,9,-3,-1,-10,-12
1523210520939348,-11,6,-24,14,6,4,12,36
1523210520939348,68,4,-9,-32,-5,-5,2,-10
1523210520940350,39,-2,31,23,-6,-8,-46,-5
1523210520940350,-38,-16,-9,-22,-7,-6,34,-8
1523210520952383,15,14,-25,0,14,10,23,-20
1523210520952383,-5,17,89,72,-2,-1,-2,12
1523210520961406,44,19,11,-46,-5,0,8,10
1523210520961406,-1,-15,-14,22,-3,-6,-6,-5
1523210520976457,-4,-8,-10,4,-3,-5,-13,-20
1523210520976457,-18,4,28,-6,3,2,-3,-7
1523210520978451,-17,3,17,4,1,-2,3,5
1523210520978451,-2,4,18,-7,4,5,-1,-1
1523210520999508,-16,13,-13,19,-2,-6,-5,-3
1523210520999508,35,6,-19,-50,-5,-2,-6,17
1523210521000511,-39,0,-24,-23,1,3,9,-7
1523210521000511,1,-1,7,-30,0,-1,-1,9
1523210521012542,-50,-5,-17,-5,-5,-5,2,1
1523210521012542,-13,4,-25,0,1,-1,0,-3
1523210521021565,5,15,7,20,-3,-3,5,19
1523210521021565,-73,-16,10,-5,-3,-1,35,-18
1523210521036607,1,9,-3,-26,-5,-6,-26,12
1523210521036607,28,1,16,25,7,8,17,-15
1523210521038612,-71,-14,-1,3,1,-3,7,-7
1523210521038612,63,16,42,13,-6,-4,-14,-1
1523210521058666,-8,-17,-16,-40,-6,-2,10,7
1523210521058666,-13,-3,17,26,7,3,3,9
1523210521060671,33,2,5,61,1,3,-11,12
1523210521060671,36,6,-18,-6,-1,-1,-2,-25
1523210521072704,80,-1,35,1,0,0,1,-4
1523210521072704,-36,-12,7,22,-7,-8,-31,-7
1523210521081725,4,-19,-51,-58,-8,-8,-2,-12
1523210521081725,9,-9,7,0,-7,-2,21,3
1523210521096766,46,19,-3,9,3,0,-4,-10
1523210521096766,-63,-4,-3,12,9,4,-3,-20
1523210521097769,-33,-8,26,37,-1,-2,-8,-2
1523210521097769,40,9,-12,-34,0,-1,1,3
1523210521118823,-16,-11,-9,44,1,1,1,8
1523210521118823,-6,10,2,-29,-10,-4,7,3
1523210521120833,20,14,-16,2,5,4,-6,-12
1523210521120833,-32,2,-46,-15,-1,3,-2,25
1523210521133097,-76,-21,15,9,2,2,-4,-17
1523210521133097,12,2,-11,-45,-6,-6,-1,15
1523210521141888,79,-2,1,-12,-2,-4,-17,-12
1523210521141888,-59,-6,17,29,1,-1,32,-14
1523210521156925,-25,7,-28,-24,4,-3,-11,7
1523210521156925,39,-7,31,19,-5,2,13,-9
1523210521157928,2,-6,-10,14,-5,-9,-14,12
1523210521157928,-17,3,-8,-76,-7,-3,-12,-2
1523210521178985,1,-24,4,-5,-2,0,-17,-22
1523210521178985,10,-3,-16,46,4,-2,1,6
1523210521180991,-66,3,12,-55,-1,3,11,9
1523210521180991,63,18,-9,19,5,2,6,6
1523210521193021,1,4,-4,-5,-8,-3,-5,-9
1523210521193021,38,-11,-19,-2,1,0,-1,3
1523210521202045,10,11,7,3,3,2,3,-9
1523210521202045,43,-5,-6,-26,-3,-4,-15,-4
1523210521216084,5,4,6,-6,6,4,-12,-12
1523210521216084,-72,-18,-8,-2,-4,0,20,7
1523210521218089,-3,11,26,-11,-11,-7,-2,-23
1523210521218089,23,-28,-9,28,-2,-8,1,3
1523210521239143,30,1,-32,11,6,4,4,16
1523210521239143,-4,-4,-10,4,5,0,-2,4
1523210521240146,-74,-30,-22,-27,-1,-1,-14,-36
1523210521240146,8,-6,15,54,2,1,-16,2
1523210521261248,54,13,-11,4,-1,3,35,17
1523210521261248,-44,11,29,7,-6,-10,-29,7
1523210521263208,53,0,-18,-44,-11,-4,4,-9
1523210521263208,-13,-12,20,14,3,4,-9,2
1523210521276244,-6,7,-15,-2,-1,-1,14,20
1523210521276244,8,15,-20,-7,9,9,17,-9
1523210521278248,34,12,34,3,-7,-8,-12,10
1523210521278248,-18,10,-12,0,4,4,8,3
1523210521299304,81,5,34,0,-15,-11,-20,0
1523210521299304,-117,-5,-14,-13,4,4,1,6
1523210521300315,7,9,6,40,11,8,-2,-9
1523210521300315,11,-2,-32,-12,-8,-5,-2,30
1523210521322367,-52,-18,-23,-3,-2,-2,2,-26
1523210521322367,71,44,-2,-24,3,2,1,1
1523210521328380,33,8,4,41,-5,-4,6,8
1523210521328380,-40,2,21,-1,-1,-4,-18,-25
1523210521336449,-21,18,-19,18,12,10,8,12
1523210521336449,34,-5,4,29,0,-2,3,4
1523210521338408,21,-7,-54,-17,-2,-6,4,11
1523210521338408,56,3,-29,-25,3,-3,-29,-11
1523210521359466,-53,-4,12,-68,-10,-4,25,-4
1523210521359466,7,-3,-15,8,0,2,-1,-8
1523210521360466,33,11,-3,1,11,9,6,24
1523210521360466,-23,-5,36,45,-9,-5,-11,33
1523210521381763,21,-14,3,-4,-5,-8,-3,-49
1523210521381763,12,-13,-24,-37,-9,-4,-3,6
1523210521383528,-22,-17,1,10,1,-2,0,-17
1523210521383528,-86,25,-13,38,11,5,12,5
1523210521395561,48,-23,10,37,-8,-3,-16,13
1523210521395561,-12,-9,13,-62,-8,-1,11,-19
1523210521404584,-21,11,10,-1,-3,-2,-5,3
1523210521404584,-2,-6,0,9,-1,-6,-13,-5
1523210521418620,-32,2,6,23,2,0,19,13
1523210521418620,3,-31,3,9,-7,-6,-29,-20
1523210521420627,-30,-14,15,-44,8,10,30,23
1523210521420627,2,14,-26,40,-5,-1,-7,-42
1523210521441683,-40,-6,17,-54,-5,-5,-16,22
1523210521441683,-51,-16,-15,-44,-6,-5,-3,-22
1523210521442686,-99,-5,6,20,-4,1,1,-4
1523210521442686,15,16,-18,-4,1,2,1,2
1523210521455724,-64,-24,-30,7,-1,-1,-7,2
1523210521455724,14,-4,-28,37,-3,-6,-8,15
1523210521462741,13,6,-11,-4,2,-2,-8,3
1523210521462741,31,-5,0,-73,-6,-3,-35,-12
1523210521479016,-37,-2,-3,40,1,0,61,23
1523210521479016,25,24,20,-23,-5,-5,-27,10
1523210521480786,-12,-21,12,-21,-6,-1,-4,-55
1523210521480786,28,-5,-18,40,5,-1,-13,2
1523210521501841,34,-4,-7,-23,-2,1,-26,-3
1523210521501841,53,0,22,5,0,0,21,18
1523210521502845,0,-5,14,10,-2,-2,-1,30
1523210521502845,8,14,10,-29,1,4,21,-7
1523210521515879,45,30,39,15,6,4,-16,-12
1523210521515879,-71,-18,18,26,-6,1,34,10
1523210521522898,20,-7,-3,-9,0,-1,-13,-8
1523210521522898,-58,-14,-20,-9,-2,-3,38,-5
1523210521538944,-5,5,-14,-32,-1,-2,-25,-4
1523210521538944,58,-5,-9,61,6,3,-8,8
1523210521540946,5,-7,-18,-86,-16,-8,6,-23
1523210521540946,-47,-11,19,12,2,4,-3,17
1523210521562001,-5,-5,-5,16,0,1,-4,-20
1523210521562001,-3,8,14,2,11,7,-6,-4
1523210521563006,-9,-26,-31,6,-7,0,12,9
1523210521563006,105,19,14,-19,-2,-1,4,2
1523210521576080,-86,6,11,0,-1,-4,-12,-14
1523210521576080,15,-7,-41,5,-5,-2,8,1
1523210521583299,-16,18,12,12,3,-1,-5,-20
1523210521583299,45,19,16,5,1,1,7,14
1523210521599102,-29,-10,-24,-11,0,6,2,-11
1523210521599102,-7,15,5,-14,-2,-16,-22,-49
1523210521601107,-45,11,-10,8,5,4,13,31
1523210521601107,25,-17,7,9,-12,-8,-7,-31
1523210521621159,100,15,23,29,7,2,-19,14
1523210521621159,-88,-13,1,-44,1,1,11,-18
1523210521623165,45,32,37,20,4,-1,-12,1
1523210521623165,-6,-8,-17,27,-2,1,-5,6
1523210521636207,45,-5,12,-14,1,0,-7,9
1523210521636207,-54,1,-2,-17,-2,4,25,-31
1523210521642216,9,9,14,13,0,2,1,9
1523210521642216,-22,-12,6,-6,7,2,10,13
1523210521659262,-32,-13,-2,-8,-10,-10,-9,-31
1523210521659262,10,0,-9,11,5,5,3,38
1523210521660304,-34,-8,11,32,-2,-6,-9,-12
1523210521660304,52,-3,-31,-51,-2,1,23,-1
1523210521681554,-63,-9,-20,3,-4,-3,6,0
1523210521681554,104,11,9,-5,-2,1,-21,15
1523210521683325,-13,-4,3,5,0,0,10,0
1523210521683325,-34,-9,1,-19,-5,-5,-11,-4
1523210521695357,-10,10,5,21,4,1,-8,6
1523210521695357,56,2,-9,-33,-4,-2,13,4
1523210521702383,-62,-15,-12,49,2,-2,-6,-21
1523210521702383,79,35,6,2,-2,0,-5,29
1523210521719425,-21,-7,-5,8,2,-1,-8,-4
1523210521719425,-82,-16,23,36,1,2,30,5
1523210521720424,90,7,-20,-2,-4,-5,-31,3
1523210521720424,-74,-9,-1,-10,4,0,9,-25
1523210521741479,32,8,2,3,0,0,2,-8
1523210521741479,-30,-16,-20,51,2,-2,-21,-24
1523210521743487,30,0,4,-65,-7,-4,12,10
1523210521743487,-14,-9,6,0,1,6,0,-30
1523210521755516,22,-3,-15,27,-4,-6,-23,13
1523210521755516,-33,-18,55,-10,-1,2,30,-12
1523210521764580,120,16,-20,37,6,5,-1,-2
1523210521764580,-104,-32,-18,-44,-7,-4,-23,-18
1523210521779651,52,29,-3,3,-4,-6,15,11
1523210521779651,68,14,-10,5,1,-2,-45,26
1523210521780582,-3,5,-1,6,-3,1,51,-5
1523210521780582,29,10,25,10,-2,-3,-9,7
1523210521801639,-66,-6,-1,-23,-1,0,1,-17
1523210521801639,32,7,3,20,-1,-6,-18,0
1523210521802647,51,8,13,-1,1,4,-8,24
1523210521802647,-43,-15,-4,-6,-4,-3,-18,5
1523210521814673,-9,-21,28,-6,-2,0,23,6
1523210521814673,42,-17,13,0,1,-3,-4,-20
1523210521823700,-42,-20,-8,-25,-5,-5,-13,0
1523210521823700,-33,1,-14,-15,0,-3,9,11
1523210521838741,-3,-8,26,48,7,7,-40,7
1523210521838741,-23,-23,-28,-9,-2,-3,32,2
1523210521844754,-60,-6,-19,-4,-8,-8,-2,-25
1523210521844754,-16,5,-12,-3,3,2,3,8
1523210521861799,50,-6,11,-24,-3,4,14,22
1523210521861799,8,20,-1,-13,-2,0,-69,10
1523210521862802,26,-1,-14,-2,3,5,62,-19
1523210521862802,23,-6,-27,76,2,-1,-7,-2
1523210521874834,-36,-2,24,-29,-12,-7,-13,-8
1523210521874834,-89,-7,4,-10,-3,-3,23,-3
1523210521884001,33,13,22,33,-8,-9,-41,-14
1523210521884001,-14,-16,6,-23,4,-1,-8,16
1523210521898900,-13,-1,-2,5,-2,-4,49,3
1523210521898900,33,11,-30,-24,6,7,-6,-4
1523210521901144,-42,6,28,-27,1,1,-15,10
1523210521901144,18,-19,23,35,-6,-3,5,-1
1523210521921959,-19,-7,-8,-4,0,-7,-27,-31
1523210521921959,-66,-2,-18,-64,-6,-1,0,-24
1523210521922962,41,21,-13,10,11,10,38,7
1523210521922962,14,24,13,-17,-7,-3,-34,-9
1523210521934994,1,-13,-33,14,0,2,22,34
1523210521934994,13,8,12,29,-6,-8,-26,-26
1523210521944021,-105,-6,17,21,10,5,1,-3
1523210521944021,18,-10,-48,-63,-14,-10,-4,-11
1523210521959057,26,13,0,-6,-1,2,-1,-13
1523210521959057,64,6,-12,15,4,1,10,-4
1523210521961062,-36,-31,-9,5,2,-1,-16,25
1523210521961062,3,-1,11,-17,0,1,24,-1
1523210521982171,-13,5,21,39,0,-4,-13,-11
1523210521982171,92,20,-39,12,-1,2,-4,30
1523210521983121,51,-32,11,-41,-7,-4,11,30
1523210521983121,35,-5,11,39,5,2,-12,-5
1523210521995154,-22,1,-49,-33,3,1,-13,-6
1523210521995154,38,7,-2,4,-4,-2,20,-5
1523210522004178,-14,6,1,-10,-5,-6,-35,-9
1523210522004178,-47,8,14,38,7,10,54,29
1523210522019217,43,3,-17,-41,-3,-2,5,-20
1523210522019217,-52,-5,27,4,-1,-1,-5,6
1523210522020224,-66,-6,-8,34,3,2,-9,-27
1523210522020224,-12,-3,-13,-17,1,-2,-10,-7
1523210522041276,28,-4,11,-5,1,5,-5,11
1523210522041276,-11,9,14,20,-5,-8,14,-15
1523210522043282,37,4,0,-24,-2,-3,-35,22
1523210522043282,8,-1,3,6,0,-6,9,-10
1523210522055312,-25,-9,-1,-24,-1,-3,-2,-13
1523210522055312,22,0,-5,22,-2,0,31,15
1523210522064337,-56,-3,-27,-33,-8,2,-10,0
1523210522064337,11,4,9,-5,2,1,10,-1
1523210522079612,-35,0,-3,13,-2,0,0,11
1523210522079612,-26,0,-10,-27,1,2,-12,-18
1523210522080380,32,8,-19,-25,-9,-7,16,3
1523210522080380,25,-9,0,-15,1,3,0,14
1523210522101438,-33,11,13,1,-7,-7,-14,-39
1523210522101438,39,-4,2,-1,9,7,11,30
1523210522103442,-57,-12,-14,19,-10,-12,-12,-44
1523210522103442,9,5,6,-8,3,3,-7,-5
1523210522115473,-2,-5,-12,-3,-4,-3,4,19
1523210522115473,-35,-18,-9,-10,-5,0,-24,-16
1523210522124497,41,-4,-2,9,4,2,0,-4
1523210522124497,-22,9,6,16,2,1,-3,-11
1523210522138534,16,-10,-16,-10,-1,3,39,44
1523210522138534,10,-13,7,57,-1,-6,-11,-6
1523210522140539,2,9,-4,-30,6,6,3,27
1523210522140539,82,-16,-21,15,-7,-3,-11,9
1523210522161594,-31,-13,21,52,6,2,15,9
1523210522161594,68,26,-5,-52,-2,2,13,19
1523210522162597,20,-1,13,51,4,1,0,-6
1523210522162597,-96,5,1,-1,-6,-10,-17,-1
1523210522183889,45,-6,12,-3,0,-4,-19,-4
1523210522183889,-31,2,0,-18,3,2,6,17
1523210522185661,28,-10,-7,35,-2,-3,-5,4
1523210522185661,2,3,-15,-84,-8,4,23,7
1523210522198694,-9,-4,13,14,-3,4,16,-22
1523210522198694,-31,-1,-7,-40,-8,-8,11,6
1523210522200699,6,13,16,5,7,4,-14,9
1523210522200699,41,-18,-23,34,0,-1,-6,19
1523210522221755,70,15,15,-9,3,0,36,-12
1523210522221755,-30,-14,-3,-8,-2,-1,-16,21
1523210522222757,-15,-4,-4,-41,-8,0,-2,-14
1523210522222757,26,10,0,0,3,-3,8,-11
1523210522243814,-2,-1,2,-12,-10,-7,-49,-19
1523210522243814,-54,11,0,-13,-2,1,5,3
1523210522245820,92,-6,-19,28,-4,-4,10,12
1523210522245820,28,5,12,0,1,-3,-12,-11
1523210522258855,-82,-22,13,6,1,2,-20,0
1523210522258855,75,4,9,32,0,-5,-9,-1
1523210522260859,-9,0,1,-32,4,4,3,-23
1523210522260859,24,10,24,54,2,0,-7,20
1523210522282124,80,16,-31,6,-2,2,11,9
1523210522282124,-26,-26,-18,-71,-10,-5,-2,-13
1523210522282921,8,9,16,32,2,-2,-12,13
1523210522282921,-36,-10,30,-10,-4,-3,10,-3
1523210522303973,-14,6,-18,12,6,5,-24,-16
1523210522303973,39,8,23,25,-6,-8,2,10
1523210522305979,17,-2,-10,-62,-3,-2,-13,-4
1523210522305979,-71,-17,7,51,-1,0,27,-19
1523210522319014,23,-1,-23,-42,-3,-3,-14,24
1523210522319014,-8,-6,4,-6,8,5,4,-23
1523210522321020,-75,2,-9,35,-7,-9,-39,-11
1523210522321020,49,6,2,-36,-1,1,-6,-35
1523210522341075,16,12,16,16,0,-1,7,3
1523210522341075,-2,6,-20,16,-4,2,11,18
1523210522343078,66,-14,11,45,1,-4,3,-11
1523210522343078,-27,7,-41,-16,-2,-3,-18,-22
1523210522364134,-15,-8,-7,20,-2,-4,16,4
1523210522364134,5,16,8,7,5,4,-16,4
1523210522365137,-73,-6,-8,-3,-1,-4,10,11
1523210522365137,18,1,19,-24,-1,1,10,1
1523210522378406,-34,-19,-23,-51,-4,-2,-12,-7
1523210522378406,-5,-12,16,71,2,-1,-22,-3
1523210522385195,79,-12,10,-24,0,3,46,24
1523210522385195,35,13,-27,-15,3,4,-7,46
1523210522401234,-28,-4,48,43,-5,-5,6,-48
1523210522401234,46,2,-23,-32,-3,-3,-6,-1
1523210522403239,-10,4,-3,-18,0,2,2,15
1523210522403239,43,17,-39,11,0,-1,-26,-2
1523210522424293,12,-2,-5,6,7,4,22,12
1523210522424293,31,-24,-33,19,-10,-6,-4,-6
1523210522425297,-11,10,16,-1,-1,-4,-9,-4
1523210522425297,-37,-20,-33,2,-1,1,4,11
1523210522438337,-10,16,11,-26,-4,-1,6,7
1523210522438337,38,3,2,40,7,2,-9,0
1523210522445352,9,-3,-11,-26,-5,-4,10,5
1523210522445352,77,25,27,6,-2,-5,-8,-1
1523210522461395,-39,-5,-20,-43,-2,0,-20,-1
1523210522461395,-5,-9,26,46,-5,-3,18,2
1523210522463398,-22,0,-26,-9,-1,-1,-5,0
1523210522463398,-12,-4,26,-39,-5,-3,21,-9
1523210522484452,34,8,-10,23,1,-1,-14,11
1523210522484452,-43,2,-2,8,1,-1,-22,-2
1523210522485456,-39,-9,-1,-23,1,2,38,-9
1523210522485456,-77,-14,1,4,-6,-6,-11,-46
1523210522498707,-16,-8,-11,24,1,0,-13,35
1523210522498707,-83,-2,3,-44,-4,-3,21,-25
1523210522505509,-35,-24,10,15,4,3,-14,-15
1523210522505509,43,0,3,5,2,1,3,19
1523210522521551,-22,5,-6,-7,-2,-2,-10,-28
1523210522521551,-22,-15,-12,0,4,8,10,4
1523210522523558,51,8,-4,-22,-6,-4,4,7
1523210522523558,-9,-1,22,20,1,4,10,-11
1523210522543610,60,7,-14,-40,-7,-5,-6,10
1523210522543610,18,-13,14,10,0,-2,1,-5
1523210522545616,-86,3,-1,19,4,0,14,-5
1523210522545616,7,-2,-8,6,1,-3,-34,-16
1523210522558651,84,-4,3,3,4,5,41,20
1523210522558651,-43,-5,15,4,-3,-7,-16,-3
1523210522565822,-15,9,-6,-7,-5,-1,-10,0
1523210522565822,-18,-22,-4,-11,-5,-5,-10,2
1523210522581946,-26,2,-3,17,2,0,1,-24
1523210522581946,52,12,7,-41,-4,-2,-9,10
1523210522583807,39,10,20,19,-5,-6,-8,9
1523210522583807,-52,4,-24,-41,-5,-1,-1,-14
1523210522603773,15,-3,13,16,4,-2,10,16
1523210522603773,2,14,8,-10,1,-4,-6,-32
1523210522605776,-17,-16,16,17,2,3,-10,2
1523210522605776,8,7,5,-27,3,1,2,12
1523210522618812,78,6,1,16,-9,-9,-16,4
1523210522618812,-65,-33,15,12,5,3,38,28
1523210522624826,-20,10,-16,26,-2,-2,-32,-47
1523210522624826,19,8,18,-3,-2,-3,-6,1
1523210522641873,-20,12,9,4,3,1,4,0
1523210522641873,8,1,3,-19,-4,-1,-1,-7
1523210522642874,36,2,-2,23,3,1,-1,17
1523210522642874,-58,-16,-4,15,-1,-1,-1,7
1523210522663931,-87,-10,-24,5,-5,-5,-30,-56
1523210522663931,2,10,-5,-28,0,6,5,1
1523210522665937,-8,-5,23,40,1,-1,1,16
1523210522665937,-1,10,-17,-7,7,5,6,23
1523210522678202,-46,-25,21,58,2,1,-7,5
1523210522678202,-9,11,-6,-27,-3,0,-10,-21
1523210522686991,12,6,-3,-1,0,4,4,-14
1523210522686991,51,2,1,19,0,-1,2,7
1523210522701035,80,6,20,-11,-7,-5,2,18
1523210522701035,21,7,-19,27,3,5,7,24
1523210522703037,-54,-13,-19,-59,-5,0,-3,12
1523210522703037,58,0,14,29,-2,-5,-8,-29
1523210522724091,10,-2,8,-46,2,6,23,25
1523210522724091,-15,-3,2,12,-5,-5,-25,-37
1523210522726097,32,13,-2,-37,-5,-8,6,-1
1523210522726097,-13,-17,-36,21,-3,-1,-14,11
1523210522737125,-20,-13,-9,-11,-1,-3,10,6
1523210522737125,23,7,1,5,3,0,10,15
1523210522746149,-12,-4,14,-7,-10,-6,-15,-5
1523210522746149,-87,-17,-2,17,1,0,2,-19
1523210522761188,21,20,-1,-20,-1,-3,-2,-2
1523210522761188,-20,4,16,34,7,5,-10,28
1523210522763196,12,-9,7,-24,2,-1,16,9
1523210522763196,64,7,13,13,-5,-2,29,13
1523210522784249,28,10,-34,-26,-5,-3,-13,11
1523210522784249,-19,2,17,40,2,0,15,8
1523210522790266,20,-11,-16,15,1,-1,-7,-3
1523210522790266,-47,-1,10,-41,1,0,-14,-9
1523210522798286,25,1,-7,-18,-1,-2,13,17
1523210522798286,-71,-10,-18,36,0,0,1,-14
1523210522806307,34,5,-10,3,0,1,-10,7
1523210522806307,10,19,4,1,-3,-3,38,-11
1523210522820347,-47,-25,-15,-25,-6,-2,42,-27
1523210522820347,111,21,-12,1,-2,-2,-33,0
1523210522829370,15,-6,11,12,0,1,10,-12
1523210522829370,-28,2,-14,-5,0,2,17,21
1523210522844449,-37,-5,-5,-1,4,-1,-26,4
1523210522844449,9,3,-1,-29,-10,-6,-5,-20
1523210522845413,38,2,-2,-7,5,1,14,24
1523210522845413,-27,-10,15,2,-3,-3,-18,-3
1523210522857444,-21,-17,-6,27,-1,-2,-11,-11
1523210522857444,-14,-11,-28,-21,-8,-5,-2,2
1523210522866521,8,22,-4,-20,5,6,9,-4
1523210522866521,-28,-3,12,11,1,-1,-20,24
1523210522881744,18,16,0,51,5,1,-20,-18
1523210522881744,-60,-22,-37,-39,-3,-2,31,-3
1523210522883519,46,1,6,-4,-11,-8,-38,3
1523210522883519,52,2,12,9,8,7,44,-3
1523210522903569,-48,19,-29,-28,-5,-2,0,-31
1523210522903569,24,-6,8,-6,-2,-3,-24,21
1523210522905572,11,7,3,36,8,4,7,-18
1523210522905572,27,-15,-10,-25,-3,-1,-10,4
1523210522917605,-42,-1,4,67,-1,-4,-3,-40
1523210522917605,91,6,-7,-50,-1,-4,-16,11
1523210522926627,-43,-13,-27,4,-1,-2,7,-18
1523210522926627,-23,2,7,15,-3,-2,-21,2
1523210522941669,-23,-5,-8,-17,2,4,5,5
1523210522941669,31,9,35,13,4,0,-19,4
1523210522942671,-62,5,17,-19,0,1,11,-39
1523210522942671,-18,-3,-4,-19,-15,-12,31,-28
1523210522963735,29,-18,17,8,12,9,-13,27
1523210522963735,-23,5,19,32,2,4,11,15
1523210522965731,-9,-1,-9,-80,-16,-5,-2,-28
1523210522965731,24,-7,12,18,5,0,-29,4
1523210522977999,-7,-15,-3,-6,-10,-6,-9,34
1523210522977999,-17,-15,-8,-24,-3,-3,35,-9
1523210522986788,12,4,-1,21,5,4,-13,41
1523210522986788,7,6,-13,8,-1,-3,22,9
1523210523001837,39,-4,-8,-55,-6,-6,-11,-3
1523210523001837,56,1,-12,25,-1,-1,-18,-9
1523210523002831,-116,-14,25,-13,0,-1,-7,-9
1523210523002831,57,-9,-40,56,-1,-3,-5,17
1523210523023925,-5,-14,3,-59,0,3,3,3
1523210523023925,5,3,-23,-14,-1,-2,11,-8
1523210523025894,23,3,5,7,2,0,-19,-21
1523210523025894,80,36,3,-3,1,-2,-7,-19
1523210523037923,10,6,-2,40,3,1,-19,7
1523210523037923,-82,-18,-1,-36,-4,1,11,4
1523210523046948,17,-20,10,44,-1,-2,3,-8
1523210523046948,-13,1,4,-25,1,1,-8,-11
1523210523060984,44,10,-4,-42,-7,-6,-5,-1
1523210523060984,-43,8,-1,-1,5,0,-1,-20
1523210523062992,12,0,7,33,3,0,11,33
1523210523062992,-72,-11,7,-50,-6,0,5,-12
1523210523084046,63,17,20,15,2,2,15,23
1523210523084046,-5,7,9,25,5,1,-14,-4
1523210523086057,-14,-26,-21,-27,-10,-6,3,10
1523210523086057,34,4,-10,-22,-6,-4,-12,-27
1523210523098086,6,6,3,67,8,0,-7,24
1523210523098086,9,-2,-4,-37,-7,-7,-89,1
1523210523107108,23,24,3,18,5,6,85,2
1523210523107108,-48,-3,22,-25,-4,0,-19,31
1523210523121144,-68,-9,9,29,-4,-5,-4,-74
1523210523121144,-3,-17,-12,-17,-2,1,19,9
1523210523123150,4,-1,-14,1,-2,-6,-56,6
1523210523123150,-63,-12,-13,0,1,4,8,-27
1523210523144207,2,12,-3,-13,1,0,26,-22
1523210523144207,-20,-8,10,-17,-3,-3,-1,8
1523210523146298,-12,21,-9,-12,-2,-2,4,-19
1523210523146298,21,-3,-13,18,-1,0,6,12
1523210523166500,-14,0,8,-12,0,1,-4,11
1523210523166500,-32,9,12,17,0,-3,4,-16
1523210523168273,0,-9,-32,2,-5,-2,6,-4
1523210523168273,-3,-21,13,35,6,6,-14,10
1523210523181540,-26,-19,4,-46,-10,-5,3,0
1523210523181540,66,11,9,53,1,0,34,-4
1523210523183309,-46,4,-18,-24,0,1,-16,-20
1523210523183309,33,-1,15,61,3,1,-12,-14
1523210523204367,24,-13,20,-1,2,3,4,19
1523210523204367,23,5,9,9,-2,-3,-31,-3
1523210523205368,55,2,-8,10,-1,1,27,-19
1523210523205368,-63,-21,-1,-9,-6,-3,-7,-4
1523210523226661,-7,10,1,31,2,-3,-16,43
1523210523226661,-32,-7,-19,-24,-5,-1,17,-33
1523210523228430,25,-5,12,13,6,5,-16,21
1523210523228430,-82,0,-25,23,-9,-10,12,-4
1523210523241464,-28,-3,11,-58,-4,0,-5,-6
1523210523241464,-10,1,-14,9,-2,3,50,13
1523210523243470,59,-5,-3,-31,-6,-4,-12,43
1523210523243470,-47,-10,6,11,1,-2,5,-21
1523210523263523,44,38,-9,-4,1,2,-19,-4
1523210523263523,-54,-17,-7,0,-4,-1,9,-15
1523210523265528,11,4,5,-21,-3,-5,-5,-9
1523210523265528,56,3,-6,-29,-2,1,20,30
1523210523286587,-37,-35,-8,12,-2,0,-8,3
1523210523286587,-67,11,26,-1,3,1,-14,-11
1523210523288589,6,14,19,18,5,3,-3,-24
1523210523288589,-34,5,-6,-2,-3,-5,-17,-2
1523210523300625,25,3,-7,-32,-6,-7,6,-10
1523210523300625,45,-13,8,49,0,1,8,38
1523210523307679,3,-11,-13,-29,-9,-1,36,15
1523210523307679,67,24,1,-21,3,1,-2,-5
1523210523323683,-53,-9,-9,23,-2,-5,-3,-9
1523210523323683,27,-6,22,-13,3,3,-2,-4
1523210523325689,-15,17,14,24,5,0,-8,-5
1523210523325689,47,-11,-18,4,0,-2,3,13
1523210523346745,78,3,4,-57,-7,-3,11,-7
1523210523346745,18,13,-2,-17,1,-4,-8,13
1523210523347747,-63,-23,7,-3,-7,-1,-24,-19
1523210523347747,35,-10,9,-17,2,0,-1,25
1523210523360782,31,-3,16,59,4,-1,-29,9
1523210523360782,75,6,-20,-22,-3,2,21,-36
1523210523367824,-22,-8,-18,-31,-6,-7,-16,-2
1523210523367824,-23,1,-21,-27,-4,1,-5,12
1523210523383844,8,1,-5,-19,-5,-3,9,-6
1523210523383844,-26,-5,-7,-15,4,1,-17,-26
1523210523385853,43,-16,7,70,0,-1,7,27
1523210523385853,21,-1,1,-40,-5,-1,-15,-26
1523210523406904,-54,-3,-6,25,0,1,9,-4
1523210523406904,-26,5,-2,6,4,-2,-14,8
1523210523407907,24,17,-3,-26,-4,-4,2,-4
1523210523407907,-4,1,12,15,-1,-3,0,10
1523210523420942,-8,-7,-14,-4,2,8,7,-6
1523210523420942,59,-1,-17,21,-4,-6,-8,-1
1523210523428196,-65,-12,-9,-9,-6,-5,-11,3
1523210523428196,1,6,-15,-9,5,5,6,0
1523210523444003,-58,-19,-5,16,-2,1,10,-28
1523210523444003,25,10,5,4,-1,-3,-24,9
1523210523446009,-22,-11,-10,11,-2,2,14,-5
1523210523446009,17,-3,15,-4,-3,-4,15,-12
1523210523467064,22,1,-16,3,2,0,-7,-6
1523210523467064,-5,-7,-9,-16,-4,-4,-5,26
1523210523468067,50,10,8,-17,-2,-4,-22,-8
1523210523468067,-72,4,17,12,5,4,13,-12
1523210523481337,67,11,-4,-5,4,1,3,25
1523210523481337,-17,-10,15,-7,-7,-3,-3,-12
1523210523488120,11,4,-2,6,6,2,-7,23
1523210523488120,-27,5,12,1,-1,-2,-13,-12
1523210523511180,22,-3,-5,62,2,-1,23,26
1523210523511180,41,2,0,-36,-4,-5,-8,-7
1523210523513187,-53,7,19,12,8,6,-11,6
1523210523513187,-44,-2,-14,-20,-5,5,11,-1
1523210523526456,4,6,33,0,0,-2,28,7
1523210523526456,-102,-24,-10,-7,-10,-4,-9,-13
1523210523528226,-6,0,-1,-15,-2,-4,-14,-24
1523210523528226,44,10,17,23,4,0,-10,18
1523210523541260,-34,7,-6,-27,-4,-1,10,-49
1523210523541260,20,-2,-14,43,6,3,8,-10
1523210523548331,31,6,12,-35,-6,-5,4,6
1523210523548331,-32,-16,-28,-12,1,0,1,3
1523210523564557,-7,2,-20,-9,-3,-5,-28,3
1523210523564557,-12,-11,-1,4,2,2,20,-5
1523210523566380,-40,0,-12,26,1,1,3,-12
1523210523566380,73,22,-6,23,1,-3,-41,14
1523210523586380,-50,-6,10,2,-6,-3,27,-14
1523210523586380,0,-3,-7,-15,1,0,-5,-20
1523210523588387,-10,-13,20,12,1,-4,-15,33
1523210523588387,-11,4,5,3,-1,1,4,-66
1523210523601431,76,7,-2,1,0,-3,-26,20
1523210523601431,-71,-17,10,18,-3,-1,27,13
1523210523607439,20,4,2,-20,1,4,12,2
1523210523607439,1,-2,0,-14,-7,-1,-3,4
1523210523624482,13,9,10,-6,1,-1,-31,-4
1523210523624482,77,9,0,5,-2,-1,4,9
1523210523625485,-67,-25,-28,22,1,2,22,14
1523210523625485,7,-3,-7,-24,-5,-4,2,7
1523210523653559,5,2,14,-6,0,-1,9,1
1523210523653559,5,3,5,-6,-2,-3,-17,3
1523210523655564,18,2,-6,19,3,1,-1,-5
1523210523655564,4,-6,5,8,1,-1,-6,14
1523210523660580,-52,-4,8,2,-4,-3,6,-6
1523210523660580,24,8,-10,-13,2,-1,-11,9
1523210523669602,9,-1,-13,12,-1,1,6,-26
1523210523669602,-8,6,-15,-14,-6,-7,21,-12
1523210523683641,29,-39,-2,-13,0,1,-8,13
1523210523683641,-22,-1,-9,-13,-6,-3,2,-14
1523210523685647,-69,8,-6,3,3,2,-16,-4
1523210523685647,31,6,15,-16,0,-2,4,-37
1523210523706701,44,18,-20,24,2,1,-9,6
1523210523706701,13,2,-12,-29,-1,2,3,0
1523210523707706,56,-10,6,-35,-6,-5,0,12
1523210523707706,-40,-15,-2,26,0,-1,-13,-5
1523210523719736,-23,9,-15,-19,0,-1,8,-11
1523210523719736,-30,-6,-23,7,-1,-2,7,4
1523210523728996,22,18,-11,12,0,-1,-1,-13
1523210523728996,37,-11,-6,-4,3,4,0,14
1523210523743838,-24,-1,-7,27,-12,-10,-9,18
1523210523743838,17,15,13,12,10,10,20,22
1523210523745805,-7,-9,-13,-2,0,-3,21,-23
1523210523745805,28,9,0,16,-5,-5,-19,-28
1523210523766860,24,39,4,6,9,9,-11,-6
1523210523766860,-88,-20,11,4,-5,-2,7,-4
1523210523767864,52,17,3,15,-3,-2,-4,19
1523210523767864,48,0,4,19,3,-2,-4,17
1523210523780131,-40,-9,-3,-43,-2,-2,6,-8
1523210523780131,2,14,19,12,2,-1,-3,5
1523210523788918,-17,-6,-4,66,4,2,-11,1
1523210523788918,-38,4,8,-53,-5,-5,-2,-17
1523210523803959,-20,-11,-1,-10,-6,2,7,1
1523210523803959,70,-7,0,7,0,-2,-14,14
1523210523805966,18,2,0,-10,2,1,-2,-16
1523210523805966,15,4,10,11,-2,-2,-14,23
1523210523826017,-22,-12,11,0,3,3,20,-5
1523210523826017,51,8,-8,-9,2,-1,-1,-24
1523210523828022,12,-12,-13,-49,-13,-4,-10,0
1523210523828022,-87,-9,-1,-12,0,3,12,43
1523210523840057,52,3,-5,-1,-4,-5,-13,5
1523210523840057,-36,25,-30,-17,-5,-3,-4,1
1523210523849080,10,-5,3,4,-1,-3,-5,-9
1523210523849080,80,-2,-14,-19,-2,-2,-7,23
1523210523864355,-55,-6,-2,25,4,1,30,26
1523210523864355,18,-9,-1,-15,-2,3,6,-7
1523210523866204,-34,-2,12,53,3,0,-4,-6
1523210523866204,32,18,3,-62,-4,-1,-5,-1
1523210523886178,22,-3,-8,-6,-5,-2,-9,5
1523210523886178,7,-6,12,14,2,-1,-19,-25
1523210523888183,-77,-11,17,16,-1,0,4,-10
1523210523888183,-17,-3,15,-18,-5,-4,12,9
1523210523900221,-56,-14,-22,7,1,-4,-17,-12
1523210523900221,-29,-12,0,-27,-3,0,36,-25
1523210523909240,20,-10,9,-12,-1,0,-13,4
1523210523909240,-33,-12,-7,36,1,1,-1,-11
1523210523924279,33,10,-2,-14,-6,-2,10,-4
1523210523924279,22,16,3,4,-2,-2,-18,14
1523210523925283,10,2,0,-19,-2,0,13,9
1523210523925283,40,-11,-1,14,2,5,1,-9
1523210523946339,-7,-2,-7,7,1,-5,-17,-11
1523210523946339,-27,-23,5,-16,-8,-7,-16,-13
1523210523948343,33,-1,2,20,4,1,4,20
1523210523948343,-4,-13,-12,24,1,0,-1,11
1523210523960377,-43,-15,4,-20,-9,-2,-13,-45
1523210523960377,-42,-2,14,14,3,-1,9,19
1523210523969399,54,7,3,-13,-4,-3,-11,7
1523210523969399,-23,2,-10,-1,-3,-4,8,-3
1523210523984449,113,3,17,0,0,2,-5,16
1523210523984449,-33,-36,-9,12,-4,-7,-5,-1
1523210523985441,5,6,-2,-29,-1,-6,-15,-23
1523210523985441,-63,-3,-3,42,6,3,-9,-2
1523210524006497,-4,9,-12,-58,-2,-1,25,-47
1523210524006497,79,11,12,-6,-2,-1,-10,31
1523210524012518,-2,4,-8,4,-4,-1,4,9
1523210524012518,-54,-5,-4,-3,-5,-5,-21,-14
1523210524020535,-31,-10,18,0,2,4,12,5
1523210524020535,-11,6,-3,20,4,7,17,13
1523210524029558,-48,-7,4,-13,-1,-2,6,-10
1523210524029558,22,18,13,-21,0,0,3,-6
1523210524043596,-13,1,-17,32,2,1,-9,10
1523210524043596,4,3,-2,-16,-2,-1,-3,8
1523210524045601,-42,-10,2,-7,1,-3,-11,-18
1523210524045601,17,3,10,12,2,1,14,12
1523210524066659,-26,-7,3,-51,-2,-5,-10,7
1523210524066659,5,3,-1,-7,-4,-2,0,-30
1523210524067662,25,-1,-14,-23,-7,-5,0,20
1523210524067662,-55,16,-5,-7,1,3,-2,-29
1523210524088717,48,-3,-3,5,-3,-3,-18,4
1523210524088717,61,29,5,27,9,7,13,10
1523210524090721,-9,-9,0,-35,-10,-4,-14,-8
1523210524090721,43,3,-23,9,-7,-8,27,7
1523210524103755,52,6,7,25,3,-1,-6,13
1523210524103755,-65,-2,7,17,1,-4,26,-12
1523210524105762,19,-9,-11,-42,0,8,-2,4
1523210524105762,8,-7,12,22,0,0,-8,-17
1523210524126821,31,16,10,5,1,-3,-8,-13
1523210524126821,-5,-11,-30,-9,-5,-5,-32,-36
1523210524127820,29,13,5,47,5,2,23,17
1523210524127820,-64,-27,6,-38,-5,0,20,18
1523210524148879,-47,-10,-2,13,-3,-4,-5,-4
1523210524148879,-1,2,12,2,-3,-6,-25,4
1523210524150886,-39,-14,6,10,1,-2,9,0
1523210524150886,91,14,-13,-19,-5,1,-42,-6
1523210524164156,-32,5,11,41,7,4,59,11
1523210524164156,34,-13,-8,-27,-3,0,1,20
1523210524165921,-5,-3,-6,7,-1,-4,-4,2
1523210524165921,16,-19,18,9,-1,-4,-25,17
1523210524185973,1,-5,2,-5,4,3,-7,-32
1523210524185973,-28,0,-3,23,-2,-1,8,-9
1523210524187987,15,6,-12,-27,-3,-1,1,-4
1523210524187987,-19,2,7,-17,-1,-1,-4,-20
1523210524209038,15,-13,-4,-4,-2,1,-4,18
1523210524209038,-55,-2,4,-9,5,1,-21,26
1523210524211040,67,11,-8,10,-5,-3,-8,-27
1523210524211040,30,-9,-16,58,-1,-8,8,12
1523210524223074,-25,3,-12,-78,-8,-3,-11,-13
1523210524223074,12,7,13,-2,2,3,-13,3
1523210524230327,-34,-9,-1,8,3,2,18,27
1523210524230327,-43,-11,-12,-15,-2,0,12,-2
1523210524247176,-21,-1,-7,28,2,1,-17,0
1523210524247176,10,-14,-8,8,0,-1,-13,-12
1523210524248142,-35,11,10,-50,-3,1,-11,35
1523210524248142,2,-11,7,23,3,0,16,-46
1523210524269196,-120,7,-35,-15,-11,-7,-8,-5
1523210524269196,76,2,-8,-23,-5,-5,-8,-2
1523210524270198,18,-15,11,19,6,3,-2,-1
1523210524270198,-26,8,8,0,3,3,12,10
1523210524283234,12,10,13,0,-5,-5,0,27
1523210524283234,-6,-11,-20,31,-3,-3,1,-2
1523210524290251,67,15,1,24,2,1,-3,-18
1523210524290251,49,11,-25,-14,-6,-1,-3,20
1523210524306333,49,-26,-14,4,1,0,-1,-14
1523210524306333,27,21,0,-3,-4,-5,8,-9
1523210524308301,-41,12,1,21,-3,0,7,-17
1523210524308301,20,-7,0,-25,-4,-1,-9,-1
1523210524329591,25,21,-16,23,10,9,-3,18
1523210524329591,10,-11,9,5,-8,-3,-8,-8
1523210524330399,18,-6,0,22,2,-2,-1,-1
1523210524330399,4,11,6,-26,-3,-5,3,0
1523210524343432,45,-4,4,-2,-5,-5,-6,-4
1523210524343432,-46,-5,-17,-1,9,9,-5,19
1523210524350420,-50,-3,-6,9,-4,-4,21,-44
1523210524350420,71,-2,-1,-16,-2,-4,-6,-3
1523210524366454,8,-23,25,0,-11,-12,-19,-12
1523210524366454,-3,19,-12,-18,2,1,14,23
1523210524368498,-59,-21,-16,-8,-2,-4,-8,16
1523210524368498,-20,-6,8,19,2,-1,-5,-3
1523210524388513,3,-5,12,-56,-8,-2,4,1
1523210524388513,60,-3,-15,8,-8,-5,3,-26
1523210524390519,22,9,2,-5,3,5,3,0
1523210524390519,-45,16,11,5,2,2,8,0
1523210524403552,24,0,7,6,2,2,-8,8
1523210524403552,-49,-5,16,21,2,-2,21,-3
1523210524410571,8,-21,-22,-39,-9,-5,-7,5
1523210524410571,-23,-11,-6,-10,1,-2,-12,7
1523210524426850,-74,-12,-14,-22,-1,-3,13,-44
1523210524426850,3,-2,1,31,6,3,-9,2
1523210524428772,-11,9,3,7,-3,-5,2,-22
1523210524428772,13,-4,-2,16,1,1,8,4
1523210524449677,-27,3,15,25,9,6,-3,8
1523210524449677,-39,9,-18,-8,-7,-4,-23,7
1523210524454688,-55,-20,28,-8,4,4,24,-19
1523210524454688,40,11,15,14,2,4,-6,-20
1523210524463752,-44,7,-7,-2,2,0,1,5
1523210524463752,37,16,11,7,-7,-5,-29,-16
1523210524469729,35,7,-4,-25,-8,-6,-3,26
1523210524469729,3,5,1,3,2,3,7,4
1523210524486773,-12,-15,-2,47,0,4,9,24
1523210524486773,56,-3,26,-20,2,0,-9,1
1523210524487776,-29,-4,-5,1,0,-1,-24,9
1523210524487776,-6,-7,6,3,-2,-2,17,2
1523210524508832,39,19,-10,-9,3,2,1,22
1523210524508832,-87,-23,-15,-3,-5,0,1,-6
1523210524510837,65,9,0,-14,-3,-4,-7,2
1523210524510837,-52,13,-6,-11,-2,-4,-8,-24
1523210524522868,29,-10,-21,70,2,3,5,7
1523210524522868,-69,-7,-6,-22,-1,1,8,-8
1523210524530124,13,11,2,14,4,-2,-18,0
1523210524530124,-24,-10,-6,-6,-5,-1,1,7
1523210524546933,-6,4,9,-21,-3,-3,5,-7
1523210524546933,-38,0,-2,-7,-4,-3,-27,0
1523210524547936,-11,0,-9,0,-3,1,9,-31
1523210524547936,13,-3,4,9,2,1,-2,2
1523210524568992,8,3,9,9,0,-5,-10,-14
1523210524568992,12,-17,-12,-46,-5,-4,5,27
1523210524571005,-12,-5,20,-23,-1,-3,-10,-9
1523210524571005,15,-23,-27,50,2,2,0,-13
1523210524583030,-30,2,-1,-93,-12,-5,-9,3
1523210524583030,6,5,8,10,6,2,19,3
1523210524592055,35,14,21,8,3,0,-3,10
1523210524592055,-45,-16,1,1,4,0,7,12
1523210524606091,7,-5,-14,14,-4,-6,-10,-17
1523210524606091,-62,11,-19,3,1,2,2,-20
1523210524608097,0,-7,-6,4,3,3,9,-6
1523210524608097,49,6,0,4,-5,0,-19,-2
1523210524629386,-35,3,12,-7,-1,-5,-3,8
1523210524629386,44,5,8,-12,-1,-2,52,7
1523210524631233,-6,-15,-16,13,-4,-6,-13,-4
1523210524631233,-9,22,10,-6,-3,-6,-11,-11
1523210524642186,22,-14,-4,-26,1,7,6,-3
1523210524642186,5,-19,1,28,-3,-3,-5,9
1523210524651211,-9,1,9,0,0,1,1,-3
1523210524651211,34,20,2,-14,-3,-4,-2,13
1523210524666253,-47,-6,-10,3,5,6,-10,-3
1523210524666253,23,-4,9,6,-3,2,22,-28
1523210524668255,40,6,-18,-6,-2,-2,0,17
1523210524668255,-24,-9,3,-8,-2,-1,-8,-6
1523210524689312,42,0,0,15,0,2,14,11
1523210524689312,33,7,-5,-54,-5,-4,-16,-9
1523210524690315,-81,-21,-2,22,-1,1,-3,-15
1523210524690315,42,3,7,28,0,-5,5,1
1523210524702387,-39,12,9,-8,-3,-9,-9,-2
1523210524702387,50,-13,9,17,1,1,11,21
1523210524711497,-6,14,-16,-14,-6,-2,3,17
1523210524711497,25,11,-13,28,9,7,2,29
1523210524726646,-41,-15,-4,-1,-5,-3,-4,-14
1523210524726646,26,13,3,-14,-1,-3,-16,4
1523210524728416,9,-3,-9,29,1,0,-4,-14
1523210524728416,-11,-20,-12,-23,-2,3,2,-1
1523210524749473,75,11,9,11,-1,3,-1,-1
1523210524749473,-40,-10,4,-1,1,-1,-3,-7
1523210524750480,-30,0,2,27,6,4,10,12
1523210524750480,60,1,-10,-56,-10,-6,-20,-25
1523210524762748,-38,-13,-2,-9,-7,-4,25,15
1523210524762748,48,23,11,38,5,3,-4,10
1523210524771530,-28,-14,1,-34,-4,-7,1,-17
1523210524771530,40,12,-24,4,-1,-5,-10,14
1523210524787573,11,-4,4,-5,-2,-2,4,-8
1523210524787573,-1,8,-9,15,3,-1,-8,-10
1523210524788575,-21,-14,18,-1,-2,0,6,13
1523210524788575,-49,-9,0,-8,-2,-4,6,-27
1523210524808630,51,0,-10,3,-1,-2,-2,6
1523210524808630,-66,-12,7,16,-1,-3,-6,-2
1523210524810634,85,8,-4,-47,-7,-1,-11,0
1523210524810634,-18,-17,8,4,0,2,18,18
1523210524822906,29,10,5,27,3,2,0,1
1523210524822906,-50,-21,7,25,0,-4,-10,-20
1523210524831689,75,22,7,23,-1,-3,-29,12
1523210524831689,15,-13,0,-14,-4,3,3,-20
1523210524846977,-14,27,-16,13,3,5,23,7
1523210524846977,-27,1,-5,-23,-1,3,7,0
1523210524847732,-3,-1,-3,0,0,-1,-5,-24
1523210524847732,-66,4,2,-1,-3,-1,0,9
1523210524868788,-15,-18,16,16,5,3,-6,0
1523210524868788,-2,-9,-19,-17,-8,-3,-16,-29
1523210524870794,1,-19,-3,1,0,-3,18,16
1523210524870794,-55,6,28,12,4,1,2,-12
1523210524882826,-3,-4,2,-8,-3,-2,-9,-23
1523210524882826,24,4,-10,-14,-3,-5,4,31
1523210524891850,-25,-5,-6,-11,-2,-4,-7,-20
1523210524891850,-7,-3,-10,27,-4,-3,0,7
1523210524906889,14,-4,4,22,-1,-1,-10,0
1523210524906889,59,14,7,-4,2,1,0,13
1523210524907892,18,2,2,10,1,-1,33,9
1523210524907892,10,5,11,-29,1,-1,-16,13
1523210524929184,-46,-15,-17,12,-2,-5,3,-8
1523210524929184,2,-3,5,-26,0,1,4,-3
1523210524930954,9,13,-3,26,2,4,7,15
1523210524930954,-31,-2,-9,-22,-5,-3,-12,3
1523210524942986,-49,-31,21,-16,-7,-9,-1,-5
1523210524942986,36,7,-3,-2,0,-2,-5,17
1523210524952010,-20,-3,-2,20,2,1,2,6
1523210524952010,-10,-3,23,-3,1,2,6,4
1523210524966047,18,7,-7,-18,-8,-7,-16,-23
1523210524966047,6,-4,-3,-1,-5,-3,-6,4
1523210524968052,0,-13,4,2,1,4,-7,12
1523210524968052,-50,-17,-30,2,-4,-5,1,-30
1523210524989109,84,25,4,-3,1,-1,1,22
1523210524989109,-5,-1,5,-11,0,-2,4,-10
1523210524991117,6,4,-6,6,0,-2,-16,-5
1523210524991117,-19,-10,-7,-18,-3,0,4,3
1523210525012199,90,19,-7,-37,0,-1,-2,14
1523210525012199,-74,-12,-4,-18,-3,1,0,-21
1523210525013174,37,12,13,0,-3,-4,-4,9
1523210525013174,30,-7,-7,3,1,3,6,29
1523210525026207,41,-4,0,-3,-4,0,-7,-2
1523210525026207,-13,-21,3,7,-1,-1,15,6
1523210525028212,-31,-1,-11,-20,-5,-2,-6,-26
1523210525028212,44,2,13,8,-2,-8,-36,-1
1523210525049269,20,-2,-17,-1,1,6,45,32
1523210525049269,-5,-5,20,23,5,3,-7,-8
1523210525050277,28,6,-6,-11,-4,2,11,0
1523210525050277,-11,-4,7,10,9,3,0,1
1523210525071327,-30,-2,0,-11,-9,-8,-23,-12
1523210525071327,-31,3,20,8,3,1,-4,-3
1523210525073334,-28,-15,-33,-18,5,9,35,1
1523210525073334,55,3,-15,43,-2,-2,-12,2
1523210525086367,4,-17,9,-26,-4,-3,28,25
1523210525086367,-24,-6,-9,-9,-3,3,-3,19
1523210525088373,-39,-8,6,11,-1,-7,-32,-34
1523210525088373,1,-9,-3,0,1,2,26,10
1523210525109429,-18,26,4,-2,1,1,-16,-15
1523210525109429,38,9,-26,3,-2,-2,2,-3
1523210525110432,103,5,2,-12,-4,-5,-3,23
1523210525110432,-67,-9,-12,-14,-2,-3,1,-17
1523210525131722,21,37,-19,10,5,2,-24,-2
1523210525131722,-10,12,0,58,-7,-11,7,-6
1523210525133494,-6,4,9,-21,1,4,-2,-1
1523210525133494,27,7,-5,10,3,2,-9,-17
1523210525146767,-40,-4,12,2,-1,-6,-8,16
1523210525146767,-2,-30,20,14,-1,-6,-1,-33
1523210525148532,-36,-1,-17,-11,-1,3,-4,4
1523210525148532,-16,0,4,-14,-8,-7,-8,-23
1523210525168585,-7,-11,-7,34,7,3,-8,-1
1523210525168585,28,15,-4,-44,-3,-1,2,-17
1523210525170591,-20,-11,-16,-2,-6,-6,5,6
1523210525170591,9,7,15,-46,-5,-3,10,12
1523210525191648,-37,-13,-3,5,2,2,-6,-30
1523210525191648,25,3,-6,41,-1,-4,-2,9
1523210525193654,26,17,18,-46,-2,0,2,-6
1523210525193654,20,2,-8,9,-3,-1,-31,16
1523210525205685,-37,18,-1,11,-4,0,34,-20
1523210525205685,25,0,2,-17,-3,-2,-14,-7
1523210525212937,-104,-17,9,22,0,-2,9,-3
1523210525212937,44,2,-2,-9,3,3,0,23
1523210525228980,-23,1,9,34,0,-3,-21,-15
1523210525228980,-18,-34,-11,-62,-3,-2,4,18
1523210525230750,9,11,0,15,4,3,-3,-8
1523210525230750,49,-17,8,-8,1,2,14,7
1523210525251805,-11,-6,12,10,1,1,-3,-1
1523210525251805,-16,15,3,-2,-1,-2,-5,1
1523210525252809,3,-26,-7,17,-1,-1,24,14
1523210525252809,-26,0,2,0,1,0,-6,-14
1523210525265845,-34,-12,0,-5,1,1,-2,-10
1523210525265845,46,0,3,13,0,2,9,4
1523210525272863,-77,7,8,-30,-3,-2,-19,-5
1523210525272863,42,2,-14,7,-6,-3,3,11
1523210525288905,8,-13,6,14,-1,-2,-18,-18
1523210525288905,49,12,-4,-26,2,9,29,36
1523210525290912,-87,-12,5,30,-5,-5,-11,-39
1523210525290912,-16,10,6,-17,-2,-1,4,-18
1523210525312124,9,-21,6,-12,-2,-3,-12,17
1523210525312124,21,10,-1,5,4,5,3,3
1523210525312968,53,4,-3,13,-3,-5,-20,25
1523210525312968,-14,-1,-2,-14,-5,-4,19,1
1523210525326003,-44,-20,5,-8,2,-2,-7,-24
1523210525326003,23,11,-19,7,-4,-4,4,-3
1523210525333028,97,18,7,0,9,5,-20,19
1523210525333028,-65,-18,-14,10,-4,0,59,9
1523210525349066,28,-6,-15,-16,-4,-1,-21,0
1523210525349066,-24,-5,8,10,0,0,2,-11
1523210525351069,23,5,-8,-20,-1,0,-1,-5
1523210525351069,8,8,-24,-14,-11,-9,-18,3
1523210525371124,6,3,-6,38,11,11,16,15
1523210525371124,-35,-4,-7,-20,-4,-1,8,2
1523210525373130,-4,9,19,19,5,-3,-7,-20
1523210525373130,-19,0,12,4,1,4,-7,-18
1523210525386167,8,-21,4,-27,-9,-8,6,-10
1523210525386167,0,-2,-3,29,5,0,-26,-1
1523210525392179,-64,-8,8,-16,-5,-1,19,-12
1523210525392179,25,8,5,33,9,2,-10,20
1523210525409226,-12,1,-10,-11,-5,-5,2,-13
1523210525409226,10,6,15,8,1,-2,-8,-15
1523210525410228,31,-3,3,17,-1,-5,-9,5
1523210525410228,-44,-16,-5,-14,-1,1,4,-8
1523210525432287,35,1,-7,1,1,1,8,30
1523210525432287,-82,-20,-32,-30,-9,-6,-18,-33
1523210525433294,46,24,-5,9,5,5,6,3
1523210525433294,-33,-6,7,5,-2,-4,-20,-14
1523210525454344,35,21,7,-12,0,2,4,13
1523210525454344,-19,-1,11,13,-1,-2,-9,0
1523210525455347,22,-11,-9,0,2,5,4,9
1523210525455347,7,-21,2,-10,-8,-8,22,-4
1523210525469384,28,16,8,18,5,2,-13,-9
1523210525469384,39,2,-14,-58,-14,-7,-8,9
1523210525470388,-11,-3,3,-6,-1,-1,2,-7
1523210525470388,-25,7,-18,-16,-1,0,-19,0
1523210525491444,1,-3,-11,10,-2,-1,7,2
1523210525491444,-31,1,-6,-1,-2,-5,-7,-4
1523210525493448,21,-2,-20,-12,-8,-8,-21,4
1523210525493448,66,-1,-6,12,4,6,9,3
1523210525505483,-19,-11,-3,-29,-5,-6,2,-8
1523210525505483,49,-9,-8,25,1,-3,-16,21
1523210525514507,-10,-4,-22,-18,-9,-8,8,0
1523210525514507,-11,-1,17,49,7,3,0,-5
1523210525529615,49,11,1,-21,1,2,-11,0
1523210525529615,-46,-6,2,20,0,-1,34,21
1523210525530547,-49,-3,6,-5,0,-2,-15,-18
1523210525530547,23,-5,7,9,0,-2,-9,-4
1523210525551603,-7,-4,-15,2,-2,-5,8,1
1523210525551603,-16,-3,2,-5,4,4,-11,-5
1523210525552606,47,-6,0,22,4,2,6,28
1523210525552606,38,13,-6,-15,-5,1,-6,9
1523210525564888,-67,-5,10,8,0,-1,4,-9
1523210525564888,27,9,11,-16,0,1,-2,5
1523210525573665,27,23,-1,17,-7,-7,0,5
1523210525573665,-69,0,-13,-41,-3,-1,-10,-11
1523210525588703,59,16,12,3,-2,-1,2,7
1523210525588703,47,12,8,7,2,5,-11,12
1523210525590707,-62,-19,-7,-5,-2,-3,16,-16
1523210525590707,-61,-13,2,6,-1,-5,-5,-54
1523210525612003,-13,-8,-11,-32,-8,-5,-5,10
1523210525612003,-44,7,-3,0,2,3,10,15
1523210525613782,87,19,11,10,3,-4,-31,17
1523210525613782,36,7,-1,-27,-4,-2,4,-29
1523210525624797,-63,-12,-25,-9,-3,-2,9,-2
1523210525624797,23,4,8,25,-1,-2,-10,2
1523210525633822,-20,-12,-10,-23,3,5,16,-1
1523210525633822,74,26,-1,15,2,2,0,7
1523210525648862,-9,-8,5,10,2,-1,-3,-28
1523210525648862,-13,-7,-5,2,-2,-2,-9,-17
1523210525650867,3,3,1,-11,-2,-1,15,4
1523210525650867,-95,-16,16,19,3,0,-5,17
1523210525670937,16,11,-3,-9,-4,2,-7,16
1523210525670937,52,6,-16,7,8,5,26,-8
1523210525678173,29,-22,2,2,-6,-9,-33,-39
1523210525678173,18,-3,-7,7,-1,-2,12,21
1523210525684957,-2,-6,3,-1,-1,1,-1,16
1523210525684957,-26,-10,-2,-1,-2,-6,-13,-18
1523210525693981,2,-8,20,-1,-4,-3,8,17
1523210525693981,-30,-14,2,0,2,1,-5,2
1523210525709062,20,4,4,16,4,0,3,5
1523210525709062,-31,-8,8,-3,-2,-2,-26,21
1523210525711241,43,12,-4,-13,5,13,31,-11
1523210525711241,-28,-5,3,7,1,-7,-14,-40
1523210525731315,53,3,-2,-11,-2,-5,-3,28
1523210525731315,7,-2,11,49,1,1,-9,-6
1523210525733087,-58,1,7,-25,-3,-3,-4,18
1523210525733087,67,12,-1,21,-1,3,5,6
1523210525745117,-27,7,8,-12,0,1,-4,-32
1523210525745117,70,19,16,-13,0,-3,-5,8
1523210525754140,-110,-12,-20,11,-1,-1,0,-34
1523210525754140,24,22,-3,3,-4,-4,1,12
1523210525769182,-8,-3,7,-1,4,4,-5,-5
1523210525769182,15,0,10,-11,0,1,18,-10
1523210525770183,24,-9,15,5,2,4,-11,15
1523210525770183,56,1,-4,-37,-5,-4,-12,18
1523210525791239,-31,11,2,21,-1,1,45,-22
1523210525791239,-58,-1,-14,-33,-5,-5,-15,0
1523210525793247,39,2,-19,5,1,0,18,9
1523210525793247,-73,-18,3,0,1,3,-2,-2
1523210525805277,74,1,1,15,-2,-1,-6,17
1523210525805277,1,-20,4,-17,-3,0,8,-20
1523210525814300,-12,-1,-4,15,0,-3,2,4
1523210525814300,65,3,-29,-15,-10,-3,3,10
1523210525829576,-42,-3,14,-1,-1,-2,-13,11
1523210525829576,-2,8,4,24,6,3,21,-15
1523210525830421,-52,-5,-13,-17,-8,-4,-27,-27
1523210525830421,-18,3,10,14,4,0,3,-30
1523210525851402,-34,-5,-26,-2,-2,-2,17,-11
1523210525851402,-12,-8,-1,-12,-7,-6,-1,1
1523210525853405,39,-4,3,11,6,5,-5,8
1523210525853405,-93,-21,-16,-15,-2,-2,-14,-3
1523210525865447,-16,-23,-18,14,-2,-2,4,-17
1523210525865447,23,27,-23,-20,-2,-1,4,8
1523210525874461,0,3,11,11,1,-3,7,-18
1523210525874461,50,19,5,13,0,-4,-14,16
1523210525889500,-31,1,-1,-32,2,3,-6,8
1523210525889500,-2,-3,-5,5,-5,-4,2,-7
1523210525890502,51,2,0,0,-5,-1,-10,6
1523210525890502,-57,-21,-7,-7,-2,0,9,-4
1523210525911795,80,26,17,24,0,-2,-11,-9
1523210525911795,17,-7,-16,-5,-3,-2,9,-1
1523210525913719,25,-13,9,-16,-8,-6,28,1
1523210525913719,33,-1,10,14,5,2,-8,16
1523210525925794,-52,-11,6,6,1,1,5,-3
1523210525925794,-71,-15,-19,-8,0,2,-15,-15
1523210525934621,22,6,4,-7,-4,-2,-14,6
1523210525934621,-84,1,4,2,-1,0,18,-16
1523210525948660,44,-3,1,0,3,2,-9,-9
1523210525948660,-26,5,-5,-1,0,0,1,8
1523210525950665,-36,1,13,-3,-1,1,-4,1
1523210525950665,65,8,-7,-9,-3,3,7,-6
1523210525971957,-48,-3,1,5,-2,-7,-25,12
1523210525971957,18,-1,1,-4,-5,-3,22,13
1523210525972722,6,-1,-3,28,5,5,16,11
1523210525972722,-36,-23,6,-15,-6,-4,-25,-28
1523210525993778,51,9,-6,-14,-2,-7,33,-7
1523210525993778,-50,-10,-4,34,1,-3,-28,-40
1523210525995785,46,-20,-3,-26,-2,-2,3,5
1523210525995785,45,-4,1,37,2,1,10,27
1523210526007816,54,11,11,-5,-2,0,-6,8
1523210526007816,-48,-18,-5,-5,-1,2,0,8
1523210526014832,27,19,12,-8,1,-2,-5,3
1523210526014832,-2,-23,6,8,1,4,-6,-1
1523210526031879,38,1,6,-1,1,5,13,19
1523210526031879,64,13,-3,-6,1,-6,-16,-1
1523210526032885,3,-10,-26,8,-7,-2,-7,13
1523210526032885,40,16,0,-30,1,1,19,29
1523210526053941,-98,-10,0,13,2,1,-23,2
1523210526053941,69,-2,12,-12,0,3,5,11
1523210526055945,-78,-1,-15,12,-3,-4,-11,-6
1523210526055945,48,10,2,-24,-4,-6,-4,0
1523210526068977,-43,-26,-23,-5,-3,-5,-21,10
1523210526068977,-5,-1,15,1,3,2,25,-8
1523210526070983,-7,6,8,-7,-1,1,-26,-6
1523210526070983,4,7,7,11,1,-1,10,0
1523210526091037,-5,-4,-10,-2,0,-4,-24,6
1523210526091037,16,-13,4,-6,-3,0,9,13
1523210526093043,-29,7,-7,6,0,3,6,-13
1523210526093043,-15,-18,11,-5,0,-2,-13,-2
1523210526114333,12,11,11,5,2,1,-24,0
1523210526114333,31,-7,-7,-2,-4,-5,15,-17
1523210526115102,35,8,-2,-5,3,2,-1,4
1523210526115102,-20,21,-23,7,1,2,3,-1
1523210526128142,0,-24,-5,-11,-4,-2,-2,-3
1523210526128142,-27,4,4,11,-2,-6,-13,19
1523210526135153,-37,6,-9,-21,-2,-3,8,-17
1523210526135153,20,22,13,8,0,-1,-7,-16
1523210526151236,-11,-14,-5,-4,-3,1,11,-5
1523210526151236,-51,-5,-2,-2,0,2,-7,-4
1523210526153201,-23,-8,-6,0,-4,-5,-7,-38
1523210526153201,-5,-2,5,10,4,1,-9,9
1523210526174493,-18,-6,-17,-2,-3,-2,15,-17
1523210526174493,104,34,-5,-10,-2,0,16,-2
1523210526175261,-27,-2,23,15,5,-1,-18,4
1523210526175261,-13,-11,-23,-3,-4,3,16,7
1523210526188295,-15,7,3,-8,-1,-3,-3,-4
1523210526188295,37,1,5,8,2,3,-9,12
1523210526195556,4,-12,-11,2,0,-2,5,12
1523210526195556,-4,9,9,-14,-2,-2,-16,-17
1523210526211591,23,-18,-7,13,-5,-4,14,2
1523210526211591,30,6,3,-11,1,2,-9,27
1523210526213361,-20,5,7,-4,-1,2,8,-22
1523210526213361,-23,-2,-3,2,-1,0,-12,-9
1523210526234416,60,12,1,2,-2,-2,3,-4
1523210526234416,-19,-9,2,-7,-4,-5,-13,-21
1523210526235420,53,10,-18,-10,-4,-4,-2,32
1523210526235420,31,-7,-12,-1,-1,-2,18,-17
1523210526248459,-40,19,7,-6,1,3,11,-15
1523210526248459,-17,13,0,9,6,1,-12,2
1523210526255474,52,4,-8,-1,-1,3,-4,19
1523210526255474,-102,-22,-16,2,-6,-8,1,-23
1523210526271517,19,24,3,-20,-9,-9,-25,-8
1523210526271517,13,-17,3,5,4,4,38,5
1523210526273564,-10,4,16,18,6,3,0,-6
1523210526273564,-13,9,3,-12,-6,-6,-14,-11
1523210526293613,31,9,7,2,4,8,7,3
1523210526293613,-49,-30,-72,-14,-11,-6,-12,-2
1523210526295579,6,-6,1,-12,-3,-5,-10,2
1523210526295579,27,-21,2,0,-1,0,4,1
1523210526308616,-11,-5,0,-5,-5,-3,16,5
1523210526308616,-30,-1,10,5,1,0,-34,-1
1523210526315634,-19,-16,9,1,-2,1,25,-13
1523210526315634,22,11,4,-3,-1,-4,-10,9
1523210526331675,-20,-15,-5,7,-4,-3,2,1
1523210526331675,-2,3,21,-12,2,1,-18,-17
1523210526332680,7,14,-7,-7,-6,-3,17,24
1523210526332680,24,3,14,-3,1,2,2,7
1523210526353734,-55,-18,-2,11,3,-2,-32,-17
1523210526353734,33,7,9,8,-1,1,40,0
1523210526355742,-42,-18,2,-17,-2,-5,-44,-13
1523210526355742,-20,-1,7,8,2,5,49,17
1523210526368773,56,-4,-24,6,-2,-1,-4,18
1523210526368773,-91,-8,-1,-4,-7,-6,-2,-20
1523210526375792,-6,14,-15,10,4,2,-13,-23
1523210526375792,15,-26,5,-6,0,3,-13,30
1523210526391836,22,18,16,-1,1,-3,15,5
1523210526391836,12,0,0,9,-1,0,-5,16
1523210526392837,-3,8,-2,-11,-2,0,13,0
1523210526392837,21,7,-2,9,1,1,-8,-3
1523210526414129,1,-9,0,-12,-1,0,-9,4
1523210526414129,9,-15,5,1,-3,-4,-9,-14
1523210526415903,5,11,-10,2,0,1,19,1
1523210526415903,-43,-7,-20,-2,0,-3,-11,-11
1523210526428973,34,-3,3,-2,0,1,4,8
1523210526428973,-28,7,1,12,4,2,6,14
1523210526434950,-20,-13,1,0,-3,-2,-21,-24
1523210526434950,42,17,7,2,3,2,17,22
1523210526450994,-44,-6,-8,-5,-2,2,18,-44
1523210526450994,-23,15,19,0,-1,-4,-20,16
1523210526452998,41,2,-15,-7,-6,-6,13,15
1523210526452998,-39,-11,-15,2,-3,-5,-14,-3
1523210526473287,-16,-22,20,-3,4,3,-8,5
1523210526473287,5,7,-3,23,-1,2,18,14
1523210526474055,21,3,9,-4,-2,-5,-13,-14
1523210526474055,13,6,-10,-21,-4,0,-9,0
1523210526497153,8,10,-7,18,2,1,27,26
1523210526497153,-57,-10,-7,-9,-1,-5,-9,-24
1523210526497153,-25,-13,23,52,5,4,3,7
1523210526497153,73,8,-6,-71,-8,-6,-32,-4
1523210526511399,2,-3,-1,-4,-6,-4,17,-13
1523210526511399,36,2,11,-30,-1,0,-14,-4
1523210526511399,3,-2,-11,29,-1,0,14,-6
1523210526511399,-41,-12,22,4,3,-2,-18,-12
1523210526533212,-40,2,-12,59,-3,-6,-11,4
1523210526533212,0,-8,-7,-44,-3,0,-15,22
1523210526534213,83,-1,-13,-17,-3,-2,-10,-11
1523210526534213,-111,-16,8,38,-3,-2,27,-13
1523210526556273,14,35,5,10,1,1,-7,8
1523210526556273,10,4,-3,-33,-2,-2,-3,2
1523210526557276,12,-7,-1,34,0,1,32,26
1523210526557276,9,17,-5,-71,-4,-3,-20,-5
1523210526570310,0,-2,2,68,4,0,-13,-14
1523210526570310,-36,-1,0,-85,-8,-5,-1,-20
1523210526571312,-39,-7,-8,-7,1,1,13,18
1523210526571312,59,11,-4,2,-3,-1,-9,13
1523210526593372,-34,-8,17,-8,2,5,16,-15
1523210526593372,67,14,2,6,-2,1,-1,7
1523210526594376,-28,-13,3,4,4,3,-48,11
1523210526594376,-100,-9,-15,2,-3,-5,65,3
1523210526623451,-12,-24,-25,-68,-9,-1,-34,-43
1523210526623451,-4,10,15,85,3,2,22,-2
1523210526624454,42,8,-24,-47,-5,-2,-14,6
1523210526624454,60,7,9,74,4,1,5,36
1523210526630673,28,-2,-2,-52,-5,-5,-6,18
1523210526630673,-26,-9,-20,-2,-1,-1,9,-15
1523210526631474,-32,-10,13,39,0,-2,-6,-8
1523210526631474,19,5,-2,-30,-2,1,0,-13
1523210526653535,-45,-13,-9,-8,4,0,-16,18
1523210526653535,50,0,-16,26,-3,-5,-28,-6
1523210526654534,-5,12,16,1,0,-2,39,-5
1523210526654534,-47,-17,-20,0,-4,-3,-34,-45
1523210526676594,3,32,-10,9,3,0,-1,0
1523210526676594,-14,-15,-8,-33,-4,2,26,8
1523210526677596,-6,-4,-1,-42,-1,-1,2,-7
1523210526677596,44,5,13,72,9,4,18,4
1523210526690630,-31,-6,-10,-73,-11,-6,-3,-6
1523210526690630,-1,1,16,34,1,0,1,-2
1523210526691633,24,5,12,28,-1,-2,-12,-8
1523210526691633,37,-1,-11,-34,-5,-3,-3,-5
1523210526713936,99,2,9,28,4,3,-8,17
1523210526713936,-22,-11,11,0,3,1,41,-18
1523210526713936,-50,-29,-1,-10,-5,-3,-11,13
1523210526713936,-67,-4,0,-35,-6,-2,-22,-33
1523210526736752,53,12,-7,11,-3,-5,0,4
1523210526736752,-29,-9,0,1,5,-2,-29,-7
1523210526736752,39,16,4,23,2,4,29,3
1523210526736752,13,7,9,-19,-4,0,-17,11
1523210526750829,-15,-16,0,4,-5,-5,6,19
1523210526750829,19,12,-8,17,-2,-2,11,-4
1523210526751831,-19,11,16,-14,0,-3,-12,4
1523210526751831,23,-2,-18,17,5,4,-1,18
1523210526773088,-73,-18,-4,-20,-6,-7,-6,-26
1523210526773088,43,7,6,-26,-6,-3,5,36
1523210526773851,23,5,-7,-18,-2,1,-12,12
1523210526773851,-24,-11,4,31,1,-3,3,0
1523210526796913,3,-1,16,-19,-3,3,12,-17
1523210526796913,-24,-15,-11,30,0,0,-16,-23
1523210526796913,38,-2,-21,-26,-6,-5,1,18
1523210526796913,-21,-19,16,-6,4,3,12,-9
1523210526810952,-18,-1,5,20,4,3,-15,-7
1523210526810952,-1,11,-3,-15,-2,-1,-5,2
1523210526811954,-38,-27,-2,6,0,4,-9,-16
1523210526811954,103,2,-9,11,-3,-2,25,2
1523210526833009,-18,9,6,-15,5,2,29,8
1523210526833009,4,-10,-22,72,-7,-8,-26,-20
1523210526834011,-17,1,3,-28,2,-6,-59,-6
1523210526834011,-55,10,-11,-22,-6,1,36,8
1523210526857110,10,-3,-20,-10,-4,0,-7,-9
1523210526857110,-7,-8,16,18,7,2,5,4
1523210526857110,5,-12,13,-10,-2,-2,-12,10
1523210526857110,-6,4,0,37,-1,-3,-19,2
1523210526871109,13,8,8,32,6,-2,-13,4
1523210526871109,-26,1,4,-52,-1,5,13,5
1523210526871109,23,17,-4,20,-5,-2,12,-6
1523210526871109,-47,-3,5,-36,-2,-3,-1,-38
1523210526893169,3,8,-4,21,2,1,2,-14
1523210526893169,49,2,1,-18,2,1,6,20
1523210526894170,-15,-1,-10,-24,0,4,13,14
1523210526894170,80,6,-7,57,1,-2,-26,28
1523210526916230,-3,-1,-9,-82,-13,-7,18,8
1523210526916230,-31,-11,3,-4,-4,-6,-26,-22
1523210526917231,27,8,2,-1,1,3,29,-4
1523210526917231,-5,27,-12,4,3,1,-43,9
1523210526931272,-12,-8,13,-7,3,2,0,-21
1523210526931272,55,12,11,56,3,1,0,14
1523210526931272,-123,-17,-5,-37,-8,-4,-32,-15
1523210526931272,0,-13,8,7,4,4,101,-43
1523210526953327,-22,-12,-10,37,-5,-3,-33,19
1523210526953327,12,14,-11,-41,1,-2,11,-9
1523210526954331,-41,-6,-5,55,-3,-2,-15,0
1523210526954331,-35,3,11,-20,0,2,-28,5
1523210526984413,-37,-31,-22,10,0,-1,-10,-1
1523210526984413,-15,0,10,16,-1,0,27,-17
1523210526984413,0,9,4,30,1,-5,-13,-16
1523210526984413,11,-13,-5,-77,-8,-6,-7,13
1523210526990463,-3,10,16,6,2,1,27,-5
1523210526990463,-13,-4,7,11,2,2,-17,-12
1523210526991428,88,16,-3,10,-3,-3,17,-4
1523210526991428,-63,-25,-11,22,2,4,-28,-20
1523210527013692,55,13,3,-7,2,-3,8,22
1523210527013692,-11,-5,-7,-16,-4,0,11,4
1523210527014493,-18,6,2,10,3,4,22,-12
1523210527014493,105,9,-8,45,-2,-3,-7,33
1523210527035545,7,11,-4,-60,-4,1,-23,5
1523210527035545,-24,-28,-1,24,-7,-6,14,-38
1523210527036549,-51,-11,1,-11,2,-2,-14,-6
1523210527036549,29,8,-4,27,-2,-3,7,16
1523210527050629,27,5,-15,-22,-3,-3,27,-18
1523210527050629,1,8,3,0,0,-1,51,31
1523210527051588,-63,-2,-3,-24,-2,-1,-30,-5
1523210527051588,8,-2,-4,-52,-1,-1,2,-4
1523210527073648,-15,-6,14,14,-3,0,20,4
1523210527073648,5,-9,-1,-4,4,3,-38,10
1523210527073648,-10,1,-3,-8,0,1,-2,-10
1523210527073648,-50,2,7,-11,1,3,37,-1
1523210527095942,-51,-9,-11,20,-6,-5,-37,-9
1523210527095942,40,3,-3,-40,-4,1,-47,38
1523210527096709,2,-11,2,-18,-1,0,24,-25
1523210527096709,15,6,2,5,-4,-5,-16,-3
1523210527110981,-1,-2,-10,30,-1,-2,-2,-16
1523210527110981,-25,8,2,-21,-1,-2,-15,-1
1523210527111748,42,7,-3,-40,-2,3,21,40
1523210527111748,-71,-22,1,23,0,-1,-24,-20
1523210527132810,51,5,9,-2,-1,-4,12,9
1523210527132810,-10,2,-3,-16,-3,-3,2,-1
1523210527133806,-44,-8,-4,43,0,0,-17,-4
1523210527133806,21,12,2,-70,-3,0,26,-7
1523210527155916,-5,-1,12,28,3,5,-11,5
1523210527155916,30,7,-6,18,0,-6,-51,0
1523210527156868,-5,-10,-12,-12,-1,4,47,-8
1523210527156868,19,7,2,1,0,-1,-10,-2
1523210527170907,-2,-7,-5,-6,-1,1,23,9
1523210527170907,-20,1,-2,13,3,2,-23,-5
1523210527171908,39,6,4,-19,-2,-5,-11,-2
1523210527171908,28,6,10,32,2,0,1,17
1523210527192963,-23,-10,-13,-55,-4,-1,-23,26
1523210527192963,20,9,0,46,1,4,29,-15
1523210527193967,-19,-11,-8,-60,-7,-9,-1,-6
1523210527193967,51,-4,2,5,-1,-2,-17,9
1523210527216028,-3,10,13,29,5,0,7,-11
1523210527216028,-26,-24,-9,7,3,1,-3,-1
1523210527217028,67,10,-4,-33,-3,0,-12,11
1523210527217028,-7,6,-4,2,-4,-3,17,18
1523210527231071,11,0,-5,10,2,2,-19,-7
1523210527231071,-9,-15,11,-16,-6,-3,31,4
1523210527232075,-52,-11,7,32,1,-2,-22,-6
1523210527232075,37,4,-1,-10,0,2,-12,22
1523210527253124,-31,4,7,7,-5,-10,-8,-12
1523210527253124,58,20,-2,-35,-5,-1,6,16
1523210527254127,-28,2,5,6,-2,-1,6,8
1523210527254127,25,-21,8,10,1,-1,-7,-2
1523210527276187,1,1,1,9,3,0,-15,-13
1523210527276187,-10,2,-12,-24,-1,0,-15,-5
1523210527276187,10,2,-7,1,-4,-4,23,-12
1523210527276187,-53,0,-4,-11,2,0,-12,-34
1523210527291257,16,-8,-7,15,0,-3,23,6
1523210527291257,47,17,10,-7,-2,3,16,12
1523210527291257,79,8,0,19,1,-1,5,-27
1523210527291257,-19,-3,-13,27,1,-2,-18,5
1523210527313441,20,-5,-1,-1,-1,-3,-5,3
1523210527313441,-35,-11,-9,3,-3,-2,14,-7
1523210527314292,22,5,2,28,-1,1,-2,23
1523210527314292,-2,0,-1,-32,-2,-1,8,9
1523210527335344,-6,-12,6,-3,0,0,-27,-7
1523210527335344,-5,7,8,5,1,-1,6,-19
1523210527336346,-35,-11,12,-33,-3,-4,-9,-19
1523210527336346,-19,-9,-8,41,-2,-3,-5,-1
1523210527350387,6,-6,-1,-32,-2,2,-54,-17
1523210527350387,-49,-16,8,8,0,5,35,12
1523210527351386,-35,-3,-7,24,0,-7,-19,-21
1523210527351386,-18,2,3,-8,-2,-2,-5,-1
1523210527373443,-24,3,5,-2,-3,-3,-9,12
1523210527373443,10,-14,9,6,1,-2,-5,-12
1523210527374446,8,9,-8,-1,2,3,-1,7
1523210527374446,-53,4,17,27,2,3,-13,-7
1523210527396708,52,6,-5,-28,-8,-5,39,25
1523210527396708,-12,-5,-6,-61,-11,-8,-15,-10
1523210527397512,31,-1,6,16,1,2,13,26
1523210527397512,-24,0,-6,-11,1,0,-3,-32
1523210527410777,26,2,7,23,4,7,35,-4
1523210527410777,-34,-2,-19,41,1,-4,0,5
1523210527411545,-28,4,17,-15,1,0,-9,23
1523210527411545,17,-22,-18,-11,-11,-11,-16,-21
1523210527433607,34,10,-6,9,4,-1,22,25
1523210527433607,10,-18,12,18,4,2,-7,-8
1523210527433607,-2,-5,-6,1,-1,2,6,0
1523210527433607,26,-11,18,-4,0,2,15,23
1523210527455898,-69,4,-3,9,0,3,-6,-10
1523210527455898,37,14,-4,-4,-2,-3,16,-6
1523210527456664,20,7,11,-3,0,-1,4,12
1523210527456664,10,1,-9,-20,-1,-5,-12,-4
1523210527470704,-7,-16,6,25,0,1,-28,0
1523210527470704,-25,-6,4,-27,2,5,82,-16
1523210527471707,33,-5,-21,45,2,-5,-40,-13
1523210527471707,45,13,-6,-41,-6,0,25,33
1523210527492761,5,7,-2,18,2,1,-2,0
1523210527492761,-4,4,-6,-10,-1,-4,-52,4
1523210527494765,25,-1,-24,24,-6,-3,12,1
1523210527494765,-43,0,0,-31,4,3,11,1
1523210527515828,14,8,7,3,1,0,19,-14
1523210527515828,15,7,6,-11,-4,-4,-42,14
1523210527516825,-27,-3,7,-4,1,-1,11,-34
1523210527516825,-8,8,6,19,0,1,-17,-9
1523210527529930,-76,-11,-7,-10,-4,-3,3,17
1523210527529930,-6,5,-3,33,1,-1,-9,-19
1523210527537883,13,-6,-12,-7,-3,-4,4,11
1523210527537883,12,6,-12,11,-3,-3,0,-13
1523210527552920,-37,-6,-1,-19,-1,-2,-1,-13
1523210527552920,22,-18,8,22,-1,0,8,20
1523210527553923,-77,0,-4,-31,-2,0,-6,-31
1523210527553923,76,10,5,10,0,-5,-13,8
1523210527575983,21,-2,-7,-21,-6,-4,-10,-29
1523210527575983,-14,3,-6,3,-5,-8,-87,5
1523210527577024,39,5,7,18,3,8,49,-1
1523210527577024,-37,-4,-10,-24,-5,-1,-45,5
1523210527590020,42,-4,-12,51,4,-1,47,-36
1523210527590020,-83,-25,-3,-23,-9,-4,-15,5
1523210527598049,20,-1,-9,-11,-3,-4,0,23
1523210527598049,53,11,5,15,0,0,-24,-4
1523210527613198,-22,0,1,2,1,1,10,17
1523210527613198,44,13,-14,-7,3,2,19,15
1523210527614088,-31,-7,-3,9,1,-2,-5,1
1523210527614088,-67,-24,-6,10,-3,-2,21,-7
1523210527635141,67,19,-2,4,-5,-2,-8,16
1523210527635141,-6,-5,-7,-12,0,3,7,-9
1523210527643167,5,4,-2,8,-1,-2,4,7
1523210527643167,2,4,9,27,4,-6,-44,8
1523210527650180,-22,-39,19,-11,-4,5,30,-1
1523210527650180,28,6,7,-1,-4,-4,2,-11
1523210527658436,-23,-1,-7,-16,-2,0,-8,14
1523210527658436,-18,6,-12,17,0,2,8,-10
1523210527673241,4,-12,-14,-15,-2,-5,-27,5
1523210527673241,-8,5,8,-15,-4,-3,2,-18
1523210527674245,38,-4,8,-15,1,2,-11,8
1523210527674245,31,11,2,4,2,5,52,4
1523210527696445,-101,1,-2,-9,0,1,-19,-4
1523210527696445,29,-1,-9,39,1,-3,4,22
1523210527696445,-21,8,-11,-8,-3,-3,-33,-15
1523210527696445,-43,-2,6,2,2,0,16,-5
1523210527710575,39,7,0,8,-4,-5,-78,4
1523210527710575,-45,-11,-3,15,2,4,50,10
1523210527718360,-6,-6,2,-5,-4,0,-2,-11
1523210527718360,9,-11,-10,-10,-5,-6,-5,-5
1523210527733402,-29,4,-26,-13,-2,-1,-9,-26
1523210527733402,7,-12,12,0,-2,1,2,-1
1523210527734402,-5,-10,2,-23,-3,-1,0,6
1523210527734402,0,-15,-13,20,-4,-4,4,-6
1523210527756480,-18,0,4,-4,-1,-5,10,7
1523210527756480,19,7,-2,-1,1,1,-7,12
1523210527756480,-13,21,17,-4,-1,-2,-4,-31
1523210527756480,37,-4,-4,13,4,3,-2,6
1523210527770498,25,11,-2,3,1,1,22,18
1523210527770498,-18,-8,0,-9,-4,-2,-6,-22
1523210527778756,-19,3,-18,7,-1,-3,2,17
1523210527778756,14,-2,-1,-18,-6,-2,-24,13
1523210527793795,18,5,4,-2,4,3,9,-7
1523210527793795,-9,5,-24,-26,-5,-5,-78,-8
1523210527794562,-11,-3,-2,20,3,3,45,10
1523210527794562,10,-2,0,-31,-4,0,1,-16
1523210527815660,53,-5,-3,-26,-2,-1,14,6
1523210527815660,-13,2,-7,38,-1,-1,-20,-3
1523210527816624,46,-12,12,-57,-4,-2,-4,-6
1523210527816624,14,6,7,-11,1,-2,11,12
1523210527829699,-23,-13,-10,-28,-7,-5,-25,-2
1523210527829699,12,29,-17,0,5,2,35,-28
1523210527838681,51,8,1,10,0,-1,-10,4
1523210527838681,-21,-3,14,-5,5,5,23,9
1523210527853888,-71,-7,4,3,-7,-7,33,-6
1523210527853888,30,4,11,-23,-1,2,8,0
1523210527853888,-15,-5,-6,7,-1,-1,-5,2
1523210527853888,-35,13,-4,-11,-3,-3,-7,4
1523210527875780,-47,-7,5,5,0,-1,-9,5
1523210527875780,-70,-16,-7,3,-6,-4,4,-16
1523210527876783,-16,-5,2,-16,4,3,4,-3
1523210527876783,-15,-3,2,15,0,-5,-7,-7
1523210527898844,34,-3,7,-1,-4,0,7,4
1523210527898844,44,-7,10,-15,3,-1,11,8
1523210527899843,14,3,-7,6,-5,-5,-16,0
1523210527899843,-28,-7,-9,6,-2,-2,-2,4
1523210527913883,-18,-7,4,13,5,5,6,-13
1523210527913883,14,-10,11,24,2,3,0,24
1523210527913883,-11,1,-1,-13,-1,-2,-35,12
1523210527913883,15,3,-3,34,1,2,23,-21
1523210527935939,29,15,0,-59,-7,-4,-9,1
1523210527935939,-7,-5,-8,-4,-2,-4,1,-1
1523210527936943,-18,-11,-6,36,-3,-5,-12,13
1523210527936943,-64,-12,-4,-29,0,1,-63,-9
1523210527959235,-26,0,-9,17,0,3,78,13
1523210527959235,-10,19,14,16,5,-2,-8,-11
1523210527960002,16,6,3,4,4,-1,-1,-7
1523210527960002,22,-1,-4,-15,-6,-2,9,1
1523210527973037,-1,4,10,4,3,-1,-20,-7
1523210527973037,33,-6,5,31,-1,0,11,-3
1523210527974044,24,-7,0,-22,-4,-2,-7,4
1523210527974044,-38,-14,1,-8,-1,-2,43,4
1523210527996216,23,5,4,24,0,1,-16,2
1523210527996216,24,-3,-19,17,-1,0,7,-2
1523210527997104,-43,-2,2,-10,-1,-2,13,-6
1523210527997104,61,11,7,0,3,1,6,11
1523210528019159,27,3,-2,16,1,0,-11,-28
1523210528019159,-55,4,-12,-27,-1,-3,-7,1
1523210528020162,-29,-2,4,6,3,5,32,7
1523210528020162,39,11,11,-14,1,2,-17,-3
1523210528033198,-21,-5,-8,13,0,-3,11,3
1523210528033198,24,0,-2,-22,-5,-7,-10,-12
1523210528034199,5,7,0,-5,-2,-1,-7,-14
1523210528034199,-1,-15,4,11,5,0,-6,-2
1523210528056383,20,3,-2,5,1,1,13,6
1523210528056383,30,-1,-7,-47,-11,-4,2,32
1523210528056383,-45,-8,7,22,-1,-4,-7,-32
1523210528056383,23,-14,-6,-32,-8,-2,0,-5
1523210528079477,-9,-7,-13,2,-7,-6,-36,6
1523210528079477,-28,5,10,-9,2,2,3,-22
1523210528080327,49,1,7,15,2,0,10,21
1523210528080327,-32,10,-6,9,-3,-5,-68,-19
1523210528093356,10,4,-6,-42,-5,0,57,3
1523210528093356,-1,0,-8,4,-1,1,15,12
1523210528094359,23,2,4,-14,-3,0,-15,7
1523210528094359,-23,0,-10,10,-1,-6,-17,-39
1523210528115460,-6,-4,8,-1,0,0,-12,-1
1523210528115460,10,1,-14,-37,-5,-3,8,4
1523210528116419,-9,-3,0,13,1,1,-20,-22
1523210528116419,-11,-24,17,14,-2,-2,57,26
1523210528138477,17,16,5,13,2,2,-28,5
1523210528138477,20,-1,9,16,6,6,4,12
1523210528139478,-37,-10,-12,-10,-2,-1,-16,5
1523210528139478,-38,0,-17,-20,-11,-9,16,-38
1523210528153518,-2,-1,3,23,4,2,1,25
1523210528153518,-26,-8,3,-3,-1,1,-2,-5
1523210528154615,50,3,3,-2,-2,-3,4,2
1523210528154615,-3,10,2,8,3,6,7,18
1523210528175576,28,-2,-19,-8,-2,-1,-12,-1
1523210528175576,-20,3,-9,21,0,-5,-27,-19
1523210528176579,20,1,-1,-18,-2,5,28,19
1523210528176579,-26,-6,-3,-2,-2,-4,9,-21
1523210528198637,-1,8,2,-6,3,0,-36,-14
1523210528198637,-6,-4,16,32,3,0,10,-3
1523210528199640,-11,2,-6,0,-1,-3,-66,16
1523210528199640,-21,3,2,16,4,5,34,-7
1523210528213682,-48,-16,-9,-13,-1,-6,-10,-4
1523210528213682,32,2,-3,13,-4,0,-4,8
1523210528213682,-56,5,10,6,2,-3,-23,-6
1523210528213682,20,-36,13,16,-1,2,18,-13
1523210528235736,11,-2,-3,-23,-4,0,-5,-3
1523210528235736,-7,8,6,8,-2,-4,0,9
1523210528236739,2,-11,2,-28,-3,0,15,-6
1523210528236739,11,11,-6,-1,2,1,-4,14
1523210528259031,4,4,-3,24,-2,-4,-7,-6
1523210528259031,-20,-6,2,-21,-4,3,2,-21
1523210528259797,77,5,-10,18,-4,-4,19,8
1523210528259797,-30,-1,-9,-32,-2,-5,-12,-4
1523210528272837,39,2,10,-1,-1,0,-23,22
1523210528272837,44,8,-18,2,4,3,38,-23
1523210528273836,-4,-8,-11,15,-3,-3,12,-45
1523210528273836,15,11,-1,-11,-3,-3,-20,3
1523210528295965,-24,-10,10,19,1,-3,-11,-4
1523210528295965,-55,-11,-5,-29,-2,-1,17,-6
1523210528296901,11,2,6,23,4,0,-6,-16
1523210528296901,10,11,0,-15,-3,-4,-71,19
1523210528318956,48,5,3,11,-2,4,45,7
1523210528318956,-38,-28,3,-15,1,-2,-23,11
1523210528319960,-1,8,-4,5,0,3,37,0
1523210528319960,-1,10,-5,-8,-3,-2,-25,-8
1523210528332994,-17,-29,13,-10,-3,-2,-6,3
1523210528332994,42,6,3,11,1,2,5,27
1523210528333996,-25,-3,-6,-20,-6,-5,-10,-6
1523210528333996,19,-2,0,18,-1,1,12,18
1523210528356290,21,-5,-4,-22,-6,-3,9,-11
1523210528356290,-47,-19,6,14,-1,-3,-37,-4
1523210528357060,12,13,3,-14,2,5,25,-50
1523210528357060,17,9,8,20,1,1,24,20
1523210528379234,-12,-1,-10,-10,-3,-1,-3,-13
1523210528379234,96,16,8,-6,0,-4,-24,6
1523210528380122,-18,-4,1,18,1,0,-1,25
1523210528380122,-23,-13,-21,5,-2,-2,2,-10
1523210528393154,-18,5,4,5,3,2,16,6
1523210528393154,5,1,-26,-4,-4,1,-2,1
1523210528394156,85,4,1,8,0,-1,5,17
1523210528394156,-6,-7,-3,-15,-2,-3,46,15
1523210528416215,-19,3,1,4,3,-4,-49,-14
1523210528416215,2,16,-6,-1,1,3,2,11
1523210528416215,-47,-13,-8,-5,1,-1,22,12
1523210528416215,-30,-7,-4,-1,-8,-6,-20,5
1523210528439276,66,7,-11,-19,-1,3,-7,-1
1523210528439276,-57,-13,3,-20,1,1,2,-6
1523210528439276,-38,-7,1,26,-1,-5,-11,-16
1523210528439276,35,20,3,-5,4,1,-21,2
1523210528452315,-14,12,1,17,3,0,19,-3
1523210528452315,-5,3,-13,-36,-5,-3,-2,-4
1523210528461430,21,-8,-12,14,0,-1,-12,-8
1523210528461430,-17,5,7,20,4,2,4,-9
1523210528476426,-17,-12,3,-28,-5,0,13,27
1523210528476426,3,10,9,17,2,-1,3,-9
1523210528476426,48,1,-1,-13,-2,-2,-25,13
1523210528476426,-14,-6,-7,-6,-2,-1,0,-3
1523210528506690,38,8,1,-6,0,2,30,-27
1523210528506690,-54,-17,6,17,-1,-5,-45,0
1523210528507457,-12,2,-8,-28,-3,-2,96,-12
1523210528507457,-33,4,11,4,0,1,0,-30
1523210528512497,6,0,-3,23,-3,-5,-19,9
1523210528512497,13,0,-3,-27,-4,-2,-4,-2
1523210528520492,25,1,0,38,0,-1,2,41
1523210528520492,-18,-2,-2,-57,-2,2,-1,-17
1523210528535532,-53,3,-1,20,0,-3,2,-29
1523210528535532,3,8,1,7,-4,-6,-24,3
1523210528536533,-46,-17,8,-2,2,4,-8,8
1523210528536533,65,11,1,4,-2,2,5,25
1523210528559634,-52,-10,-21,-16,-6,-6,-36,-24
1523210528559634,-81,-18,-8,12,1,6,60,5
1523210528559634,34,24,9,-25,-6,-3,-28,-10
1523210528559634,36,-2,5,0,0,-1,-12,17
1523210528572631,-8,-6,4,-1,3,-3,5,-16
1523210528572631,3,3,-15,34,-3,-3,3,-20
1523210528580656,-4,-13,-5,-13,-1,1,-13,25
1523210528580656,19,-12,9,-6,4,3,34,-6
1523210528595735,-34,1,-9,30,-6,-6,-43,-9
1523210528595735,25,4,-6,-7,2,1,116,-1
1523210528596699,20,-1,6,3,4,1,7,-21
1523210528596699,-7,6,-6,-13,0,0,-28,3
1523210528618753,-9,0,4,22,1,3,22,9
1523210528618753,18,-15,18,-22,-3,-2,-38,-10
1523210528619755,-36,6,-17,-17,-4,-5,-43,3
1523210528619755,-89,-6,1,30,1,2,20,-39
1523210528632790,44,-7,0,-12,2,2,23,18
1523210528632790,40,8,-3,12,-3,-4,-28,10
1523210528640853,3,-2,8,-10,-5,-1,-6,11
1523210528640853,5,18,-27,-4,-4,-5,-15,-3
1523210528656086,-63,-18,0,4,1,1,0,11
1523210528656086,72,16,13,-5,2,0,-32,-8
1523210528656854,-3,-10,-7,20,-1,-4,12,11
1523210528656854,-28,-3,4,25,-6,-7,1,8
1523210528678983,26,19,14,-31,2,1,10,22
1523210528678983,-32,-13,0,17,3,1,-1,4
1523210528679922,-17,7,-5,-13,-1,0,-10,-6
1523210528679922,35,-15,6,12,4,-1,-78,26
1523210528692950,22,0,4,-4,-1,6,52,-26
1523210528692950,7,-4,9,-17,-6,-4,-50,1
1523210528700970,19,11,6,30,3,1,15,10
1523210528700970,-42,-3,-1,-13,-5,-2,-14,-18
1523210528716011,-32,-5,-8,-8,-5,-3,-17,0
1523210528716011,33,10,0,-6,-1,-1,19,-1
1523210528717015,-15,0,9,-9,3,2,-6,-8
1523210528717015,62,5,-5,29,1,2,13,30
1523210528739073,24,5,-2,-24,-1,1,13,19
1523210528739073,-46,-18,1,-28,-7,-1,8,-26
1523210528740079,3,-16,-8,-8,-5,-5,-8,-1
1523210528740079,-42,-7,-8,-7,2,2,-6,0
1523210528753111,17,-7,-7,9,-3,-5,26,18
1523210528753111,-38,-2,-12,9,5,4,-18,-10
1523210528761367,40,5,0,-2,-3,-5,-3,2
1523210528761367,0,-8,7,-18,-4,-5,-2,-13
1523210528776406,32,4,3,7,2,6,62,8
1523210528776406,34,29,1,22,2,-3,-20,-22
1523210528776406,-117,-20,-4,-17,-3,-2,3,-37
1523210528776406,57,-2,-6,14,1,-1,20,0
1523210528799233,16,9,8,-32,-3,-2,-41,10
1523210528799233,-7,1,7,15,-1,-2,-7,-14
1523210528800234,-16,-5,-3,-3,-3,-1,8,8
1523210528800234,-4,-15,2,-27,-5,-1,5,-2
1523210528821291,12,-7,1,20,2,-1,-20,2
1523210528821291,-19,-13,-2,0,-1,0,-2,0
1523210528822294,16,2,-7,-18,-3,0,3,-41
1523210528822294,-31,-1,0,-1,0,-1,14,23
1523210528835329,30,6,0,-1,0,-1,-19,-1
1523210528835329,-39,-8,0,-12,-3,0,2,14
1523210528836331,-67,-3,-7,-3,-1,-2,-3,-25
1523210528836331,-1,4,12,3,2,6,13,10
1523210528859582,14,10,-9,-10,-6,-5,13,-39
1523210528859582,20,3,-1,0,-5,-7,-4,7
1523210528859582,-7,1,2,5,1,2,-9,19
1523210528859582,3,1,-3,-2,2,2,9,-18
1523210528881452,-9,6,-2,33,1,-1,-61,-5
1523210528881452,6,0,8,-9,-1,1,16,2
1523210528882455,80,-10,-2,0,1,3,-9,19
1523210528882455,12,9,-16,8,-3,-5,24,10
1523210528895515,-41,-9,6,-1,2,0,-33,-7
1523210528895515,75,6,-11,6,3,-1,-3,18
1523210528896492,-18,7,-3,-9,-1,2,11,14
1523210528896492,-20,-8,9,4,3,-1,-31,-40
1523210528918550,-56,-18,-10,-18,-7,-7,8,8
1523210528918550,75,5,-3,-10,-1,-1,-12,16
1523210528919553,34,-8,-12,1,-6,-7,29,-17
1523210528919553,21,11,3,11,2,1,2,0
1523210528941847,42,-5,-10,-25,-3,-3,-8,7
1523210528941847,-114,-9,10,5,-1,2,39,-33
1523210528942613,43,12,13,-2,5,4,-22,8
1523210528942613,-35,-10,-10,3,-6,-6,-5,-18
1523210528955883,-2,-6,-10,-27,-4,0,15,-24
1523210528955883,6,-10,-13,-21,-2,0,-13,21
1523210528956653,-21,6,9,13,2,0,-65,-17
1523210528956653,61,8,3,-2,1,-1,98,1
1523210528978751,-6,0,6,-4,-2,-3,-24,3
1523210528978751,-12,-15,-18,8,-3,-1,-17,-1
1523210528979712,-47,-21,-6,-3,-2,-2,-10,-9
1523210528979712,-31,-7,-1,-13,-3,-1,6,-2
1523210529001771,29,4,-2,19,4,0,3,6
1523210529001771,16,9,5,-17,-4,-2,15,5
1523210529001771,50,14,1,35,0,-3,-10,15
1523210529001771,-62,-13,0,-6,-1,-2,-14,14
1523210529015809,-11,-8,3,14,-3,0,-4,-5
1523210529015809,-69,-8,11,-16,-2,0,-11,-28
1523210529016811,8,-6,7,1,2,2,21,6
1523210529016811,-9,10,15,-10,-1,-5,-20,-33
1523210529038870,28,12,4,11,0,2,3,21
1523210529038870,64,-1,10,16,5,2,13,18
1523210529039873,23,8,-6,-12,-4,-3,7,11
1523210529039873,14,-20,4,-2,-4,-1,-35,1
1523210529062001,5,8,2,-1,0,0,88,0
1523210529062001,3,5,0,-30,-2,-1,-33,-23
1523210529062001,2,1,-12,26,-2,-5,32,7
1523210529062001,18,8,-15,-12,-6,-1,-6,8
1523210529075969,17,2,8,6,2,1,-30,6
1523210529075969,-44,-9,-17,23,-4,-5,6,-34
1523210529077206,-22,-4,5,-17,1,2,-1,-5
1523210529077206,67,7,-2,7,-2,1,-15,36
1523210529099029,-50,-6,-8,-5,-2,0,-11,-49
1523210529099029,24,6,11,7,1,-1,18,6
1523210529100032,-10,2,5,-10,-1,1,-16,1
1523210529100032,60,7,-3,3,-1,-1,-1,8
1523210529121087,-30,-7,-5,-5,2,-3,-5,30
1523210529121087,18,3,1,6,-1,1,5,-10
1523210529122090,-41,-11,-21,-17,-11,-8,-6,-8
1523210529122090,4,3,-2,-8,0,1,-10,3
1523210529136130,21,-5,3,-3,-1,-2,-17,-19
1523210529136130,-61,5,-1,21,2,-4,-18,10
1523210529136130,18,1,6,0,0,-3,12,18
1523210529136130,-35,-3,2,-9,-2,3,-9,-10
1523210529159423,74,6,4,-1,0,-2,-34,15
1523210529159423,-64,3,-2,4,1,2,11,-37
1523210529160190,20,2,-3,3,2,0,-17,1
1523210529160190,-41,-14,-3,-12,-4,-3,14,5
1523210529181251,-27,20,-19,-16,-3,-2,-20,-13
1523210529181251,38,9,10,-3,3,2,40,43
1523210529182252,-11,7,-13,-8,-2,0,-3,-22
1523210529182252,-18,-2,-6,-21,-2,-1,12,-20
1523210529204544,-7,-5,-8,20,4,2,14,-5
1523210529204544,-6,-8,-17,7,-3,-3,-14,17
1523210529204544,86,16,6,-23,2,3,12,29
1523210529204544,-79,-12,-9,1,-8,-6,-6,-47
1523210529219351,-12,-5,12,-2,1,0,-12,17
1523210529219351,102,14,-5,25,0,-4,-7,10
1523210529219351,-9,-21,-5,14,-3,-1,32,30
1523210529219351,-9,-6,5,3,3,-3,-45,-7
1523210529241407,-74,-15,-4,-9,-3,3,9,0
1523210529241407,17,-3,9,-1,-1,-4,2,12
1523210529242409,-16,3,10,-5,0,1,16,-1
1523210529242409,36,12,10,8,2,0,-10,4
1523210529256477,-8,4,6,-1,-1,0,10,-23
1523210529256477,22,-8,-8,25,-1,-1,-13,25
1523210529256477,-81,-20,1,-17,0,-1,-21,-25
1523210529256477,17,14,2,5,1,0,23,4
1523210529278534,30,-4,-1,-3,-1,-5,-14,7
1523210529278534,-104,-3,-7,-20,-2,1,0,-20
1523210529279509,50,13,-4,16,1,0,20,2
1523210529279509,22,-7,10,-19,4,2,5,27
1523210529301568,68,-4,-5,4,-7,-5,-34,-33
1523210529301568,36,-8,-4,-15,-3,0,36,-12
1523210529302570,-65,-7,-2,-10,-1,-3,-11,-12
1523210529302570,0,1,-8,23,2,-2,19,11
1523210529315605,-22,-6,1,-20,-2,0,-5,7
1523210529315605,50,-1,0,-8,-1,2,2,4
1523210529316607,-2,-14,3,-43,-4,1,-5,4
1523210529316607,23,-7,-12,21,-1,-3,-68,-14
1523210529339671,-25,0,-8,-5,-5,-2,62,9
1523210529339671,-5,6,-15,-6,1,2,-8,-7
1523210529340703,-30,6,-2,15,0,-2,3,24
1523210529340703,-2,10,5,-2,2,1,-19,14
1523210529361769,-4,2,-5,-9,-2,0,-8,1
1523210529361769,-51,-6,6,12,-4,-2,-11,-5
1523210529362732,-5,14,-12,-26,-5,-5,-21,-17
1523210529362732,-24,0,-11,0,-2,-2,55,-16
1523210529374801,19,3,7,19,1,-2,-8,17
1523210529374801,35,5,2,-1,0,0,20,26
1523210529383785,-15,8,2,11,-1,0,-6,-16
1523210529383785,46,0,1,-3,-2,2,28,-1
1523210529398827,16,3,3,12,3,-1,-8,4
1523210529398827,-47,-5,-8,-10,-6,-7,-23,-19
1523210529400830,-4,-1,3,10,-1,-1,-2,-28
1523210529400830,23,0,6,-6,-1,-1,-2,15
1523210529421887,-46,-12,-5,1,-2,0,-5,-8
1523210529421887,-10,3,2,-9,-2,0,-2,2
1523210529422890,16,-9,-9,0,-2,-5,-3,-9
1523210529422890,10,8,1,-2,-2,-4,-83,-18
1523210529434924,-16,-15,-12,-1,-4,3,94,-16
1523210529434924,12,-3,5,-25,1,1,-7,6
1523210529443983,-55,-1,4,47,1,-2,-25,7
1523210529443983,15,-2,-9,-85,-9,-4,17,-1
1523210529459221,12,0,-1,7,4,-1,-9,9
1523210529459221,25,0,-9,3,-3,-5,-14,7
1523210529460990,-26,-23,5,-3,-2,1,-4,-25
1523210529460990,-19,-15,9,26,1,0,20,24
1523210529481050,0,2,6,-1,-3,-2,-23,-4
1523210529481050,19,1,-7,-16,0,0,13,-13
1523210529483050,25,9,-14,-2,1,-2,-17,0
1523210529483050,-90,-9,-9,-2,-5,-5,15,-2
1523210529495080,60,-2,-4,-5,0,-3,-13,5
1523210529495080,0,-2,8,38,2,4,-23,0
1523210529504104,20,3,10,-15,-3,1,14,9
1523210529504104,22,-8,-13,15,-1,-3,-15,-10
1523210529519147,-61,-8,-10,-13,-2,-3,11,-24
1523210529519147,-58,-11,-20,10,-6,-3,-3,-13
1523210529520150,86,19,12,12,3,2,23,25
1523210529520150,-53,-6,-8,-3,1,1,83,-22
1523210529541204,10,8,1,6,-2,-1,-54,12
1523210529541204,28,6,12,0,3,0,-11,-1
1523210529543209,26,1,-3,1,-1,1,8,41
1523210529543209,-71,-7,0,-2,-5,-3,-25,-4
1523210529555477,1,2,7,2,-2,-1,1,-14
1523210529555477,-11,-16,9,-9,3,0,6,2
1523210529564265,33,1,4,-3,1,1,-10,7
1523210529564265,-55,6,8,18,6,5,-6,9
1523210529579308,-12,-6,-12,-3,-5,-4,-4,-16
1523210529579308,-29,-8,1,-13,-1,-2,-13,11
1523210529580312,-23,5,-14,2,-5,-4,3,-20
1523210529580312,18,-2,9,14,1,3,22,4
1523210529601364,6,-1,4,2,2,0,1,5
1523210529601364,-9,-2,16,-15,-3,-3,-2,-32
1523210529603369,-14,2,7,25,6,-1,-3,-7
1523210529603369,82,13,-3,-20,-4,0,-10,22
1523210529615401,-30,-21,-6,4,2,2,91,13
1523210529615401,15,11,7,11,1,-1,-6,-5
1523210529624427,-26,-21,-3,-8,-2,-4,-18,7
1523210529624427,104,0,3,11,0,1,-11,11
1523210529638463,-10,5,13,-3,0,-1,-1,39
1523210529638463,5,10,0,17,-4,1,3,-29
1523210529640467,-27,-1,3,-47,-7,-5,-17,-44
1523210529640467,2,2,-5,12,8,3,32,10
1523210529661550,33,-10,3,20,0,2,-22,19
1523210529661550,-35,4,-7,-31,-5,-5,3,3
1523210529663533,-6,4,5,8,3,3,-6,-17
1523210529663533,31,-2,-5,-4,-6,-7,-13,-5
1523210529675560,-65,-1,-1,-2,1,2,-34,-4
1523210529675560,-10,-4,-12,1,0,1,47,-10
1523210529684585,94,4,-3,-22,-3,0,5,22
1523210529684585,-95,-9,7,0,1,-3,10,-14
1523210529698623,29,-1,-10,-15,-5,-5,-8,-21
1523210529698623,12,13,-5,14,-2,-5,24,18
1523210529700627,-29,-11,-10,-15,2,3,-13,20
1523210529700627,-16,4,-2,0,-7,-3,-1,-17
1523210529721684,-1,1,-1,-6,1,2,-2,-12
1523210529721684,-10,-12,-16,-3,-3,-3,-30,18
1523210529722685,3,-7,1,7,-2,2,0,-45
1523210529722685,-22,-5,1,7,1,3,11,10
1523210529743978,-41,-10,-8,-6,-3,-5,-30,8
1523210529743978,15,-16,27,-5,6,1,-7,4
1523210529745748,-14,-14,-4,33,0,-1,-7,3
1523210529745748,36,5,-1,0,1,-1,-26,24
1523210529759017,21,24,-9,-3,0,-2,28,-35
1523210529759017,6,-12,4,23,2,1,0,-11
1523210529760787,-20,11,5,-49,-3,-3,6,8
1523210529760787,22,-5,-2,14,1,0,-9,-9
1523210529781843,21,15,6,9,0,-1,-21,-7
1523210529781843,54,12,-5,-9,-1,-4,-56,10
1523210529782846,-41,4,0,16,2,3,26,2
1523210529782846,-4,-10,-9,-9,-3,-6,-8,-14
1523210529804137,-40,-16,4,1,0,0,-2,-15
1523210529804137,98,9,-5,-13,-5,-5,-36,30
1523210529805906,-52,-4,-3,-1,-3,-1,30,-7
1523210529805906,8,-4,4,-2,3,1,-19,-9
1523210529818943,66,8,-10,-11,-7,-3,0,49
1523210529818943,-88,-9,-3,-3,-1,2,31,-51
1523210529820948,34,7,2,12,0,-2,-12,-18
1523210529820948,-19,1,0,-11,0,2,18,-1
1523210529842104,61,-14,0,63,3,-4,-11,-16
1523210529842104,-2,6,-4,-45,-6,-2,2,32
1523210529843005,12,4,4,7,-1,-1,15,2
1523210529843005,-42,-15,2,-8,-4,0,-24,-54
1523210529864064,-11,18,14,6,1,4,0,-11
1523210529864064,-18,-6,-11,3,-1,-3,9,4
1523210529866067,4,-9,0,9,-3,-3,-5,-9
1523210529866067,-12,11,6,2,-1,-2,-8,18
1523210529879128,-33,-1,-5,-30,-4,-2,12,7
1523210529879128,-7,-3,7,10,2,3,7,-7
1523210529880110,38,3,-6,-7,0,0,-73,26
1523210529880110,-5,-5,-4,4,-1,0,101,-57
1523210529901163,13,9,-3,-10,-2,-1,-13,4
1523210529901163,3,-2,-2,-2,-3,-3,-14,-18
1523210529903166,-22,-3,-4,-13,1,-1,4,28
1523210529903166,90,7,-10,5,0,2,-21,42
1523210529923509,-24,-1,10,-6,-3,-3,11,7
1523210529923509,-7,-2,-1,-5,1,1,11,-24
1523210529925515,26,-4,17,15,-3,-4,-8,-11
1523210529925515,-19,4,-8,-14,-1,-1,-17,3
1523210529938551,-23,-12,4,-5,-1,-1,-8,-12
1523210529938551,69,19,3,26,4,1,-19,29
1523210529945567,-21,1,7,4,0,0,37,-12
1523210529945567,11,15,17,-9,-4,-2,-15,12
1523210529961653,8,3,2,8,2,2,48,19
1523210529961653,-4,1,-7,-1,-3,2,-38,-6
1523210529962621,-12,-13,-12,-7,-1,-1,-8,-12
1523210529962621,1,-6,-6,0,-1,1,16,-5
1523210529983670,-25,-9,-3,-3,0,-3,-32,19
1523210529983670,60,-6,7,-1,3,4,28,12
1523210529985676,-88,-10,-22,16,-7,-7,4,-32
1523210529985676,-11,0,-6,-19,-5,-4,-37,28
1523210529998710,14,-10,12,-2,3,5,10,-19
1523210529998710,-41,1,3,12,2,-2,2,-10
1523210530005728,-50,-9,-16,-8,1,-2,-16,-4
1523210530005728,53,13,14,12,-1,0,-1,22
1523210530021771,5,-12,-11,-5,-2,-1,-18,-8
1523210530021771,10,-7,-7,-8,-9,-5,5,-6
1523210530022776,52,15,8,-11,0,0,22,37
1523210530022776,-41,-1,-5,13,-1,-1,0,-26
1523210530043829,46,8,-23,-13,-4,-3,-4,2
1523210530043829,-28,-13,-6,-9,-5,-2,-1,9
1523210530045834,10,7,0,6,1,1,-11,15
1523210530045834,9,5,-13,-5,-3,-2,10,9
1523210530058913,-27,5,3,4,0,0,-13,-24
1523210530058913,3,5,-9,-9,-3,-2,-5,-3
1523210530064893,-28,1,2,-8,-2,-6,59,-36
1523210530064893,7,-4,-8,13,-1,-2,-34,30
1523210530080929,3,0,1,-2,-1,-3,0,-28
1523210530080929,-42,-11,4,-2,-2,0,3,1
1523210530082933,18,6,-1,-12,0,0,-4,8
1523210530082933,4,-5,-5,-8,-2,-2,-11,-11
1523210530103989,-33,-2,6,3,-2,-1,18,1
1523210530103989,8,15,-3,8,5,2,11,10
1523210530106191,25,-15,4,5,-1,1,-13,4
1523210530106191,-44,-8,-9,-14,-4,-5,-28,-4
1523210530118027,-16,3,8,-5,-2,1,13,7
1523210530118027,8,1,-2,0,-2,-1,15,22
1523210530125084,-10,-13,-5,2,0,0,-19,6
1523210530125084,-33,-14,1,8,1,0,10,-18
1523210530142091,-31,3,-7,-16,-4,-6,-17,-19
1523210530142091,40,3,-1,3,1,0,6,5
1523210530143093,20,-1,-13,6,1,-3,-8,-3
1523210530143093,-11,-12,10,7,5,3,-2,-1
1523210530164150,1,1,4,-9,-4,1,4,0
1523210530164150,-33,1,7,21,0,-1,-2,-12
1523210530165153,27,5,-2,4,-3,-3,-13,11
1523210530165153,-17,5,14,-2,0,-8,-68,-19
1523210530178187,29,1,-3,8,3,3,74,9
1523210530178187,-25,11,-3,-14,-3,-1,-18,12
1523210530185208,-8,4,4,5,-4,-2,-5,-7
1523210530185208,24,8,-1,3,2,-1,-5,6
1523210530201247,-49,-16,-12,-4,-3,-2,-37,4
1523210530201247,44,2,-3,-5,2,2,20,30
1523210530203254,-72,-7,-5,12,-2,-3,-25,-28
1523210530203254,61,3,1,-13,0,3,51,17
1523210530224351,42,-3,-8,-1,-3,-4,-22,-6
1523210530224351,-18,-9,-6,-3,-2,-3,12,-2
1523210530225311,5,-5,-4,3,0,1,-2,10
1523210530225311,-9,0,5,-5,-2,2,11,-8
1523210530237344,30,6,4,14,6,4,3,27
1523210530237344,-39,-23,-5,-12,-9,-8,-26,-23
1523210530246371,31,18,-8,-25,-1,-2,7,10
1523210530246371,-22,-8,-13,-4,-4,-5,-75,-17
1523210530261408,83,15,8,-5,1,5,29,-24
1523210530261408,-68,-14,-3,-9,1,-3,-25,-13
1523210530263416,-18,1,8,11,-1,2,17,5
1523210530263416,54,-10,-14,-15,-4,-2,3,17
1523210530283466,-53,0,-13,-14,-5,-5,-32,-28
1523210530283466,93,4,4,-8,-2,1,8,7
1523210530285477,-53,-10,-8,38,1,-2,1,10
1523210530285477,-11,6,-13,-45,-9,-3,29,-20
1523210530297503,5,-5,10,27,3,4,-8,20
1523210530297503,-17,16,10,-3,2,2,8,-13
1523210530306527,75,3,2,-13,-1,0,-3,27
1523210530306527,-30,-6,-13,13,0,-1,2,-4
1523210530321569,-44,-9,8,1,1,-2,-26,-22
1523210530321569,-1,6,-4,-2,0,-2,-2,-11
1523210530322570,0,-6,8,-12,2,2,2,-6
1523210530322570,50,11,-13,16,-2,0,38,-6
1523210530343862,-80,-9,9,-12,-5,0,-23,15
1523210530343862,2,-2,1,-8,-1,-5,-15,-6
1523210530345631,-19,-7,-7,-10,-3,-5,7,-38
1523210530345631,73,4,10,12,3,-1,1,7
1523210530357898,-19,-6,0,3,2,-1,-13,18
1523210530357898,-21,-10,1,12,1,2,93,-38
1523210530366687,-5,-6,-17,-35,-8,-6,-26,-12
1523210530366687,12,8,8,-5,-2,-2,-18,-3
1523210530381727,15,2,-1,23,-3,-5,15,5
1523210530381727,-15,-1,0,-18,0,3,-28,8
1523210530382729,72,7,7,15,4,4,8,18
1523210530382729,-85,-9,0,4,-2,-4,21,-14
1523210530404022,76,19,7,-13,-3,-2,-34,6
1523210530404022,-23,-8,-10,8,-7,-8,-11,8
1523210530405790,45,8,7,-3,5,3,-9,-2
1523210530405790,35,-7,-12,10,1,2,39,33
1523210530417832,-23,5,2,-14,-3,-6,-14,2
1523210530417832,-39,-11,-9,6,1,-2,-17,10
1523210530426847,-4,-4,2,-7,0,4,13,1
1523210530426847,0,5,15,1,-2,-3,-22,1
1523210530442088,-21,-11,-22,-3,-3,-1,10,-15
1523210530442088,0,0,9,6,4,5,9,-11
1523210530442889,27,7,-1,4,-4,-4,-10,29
1523210530442889,-8,-1,0,5,2,1,-22,-4
1523210530463990,-28,-10,-3,0,-1,-2,51,9
1523210530463990,-4,-5,-24,-10,-6,-5,-25,10
1523210530465951,-47,-11,3,-3,-1,-3,10,-21
1523210530465951,-38,-6,1,21,0,0,-6,4
1523210530477984,8,1,3,-1,1,1,-1,4
1523210530477984,3,10,1,2,-2,-4,-28,18
1523210530487009,-68,-11,-25,-4,-5,-2,-20,-45
1523210530487009,14,-6,3,2,1,5,25,-10
1523210530501051,26,1,-8,-5,1,0,-12,28
1523210530501051,-9,2,11,3,0,0,3,2
1523210530503049,46,3,-1,-4,-2,-4,-28,-6
1523210530503049,-3,4,2,-1,-3,-3,-4,13
1523210530524107,22,8,-12,-11,-3,-6,-13,-23
1523210530524107,-9,-20,-13,5,2,3,-5,-6
1523210530525151,-3,4,12,8,0,2,17,12
1523210530525151,28,4,0,-20,-7,-3,0,6
1523210530537141,27,4,1,2,1,-3,-8,-11
1523210530537141,-90,-15,-3,-10,-7,-8,1,-22
1523210530546170,30,8,-3,3,-1,-1,30,9
1523210530546170,-63,-15,6,13,4,2,-13,-32
1523210530561205,69,5,2,-1,-4,-3,-19,8
1523210530561205,-4,11,16,-11,-4,0,21,17
1523210530563212,-31,-9,-5,2,0,0,-8,-8
1523210530563212,-2,5,-3,-27,-1,0,-6,16
1523210530584267,-25,-6,-8,-7,-3,0,9,-17
1523210530584267,15,-9,12,15,5,2,-13,-7
1523210530585270,8,8,-3,-6,-4,-4,-8,20
1523210530585270,-6,-10,-2,-7,0,1,2,-23
1523210530597302,-41,4,-4,22,3,-1,-68,-19
1523210530597302,12,-2,-6,-19,-3,2,89,1
1523210530606415,36,8,2,-3,-1,-3,-18,10
1523210530606415,1,-9,8,20,2,-3,-8,-6
1523210530621364,5,-13,4,7,9,7,11,5
1523210530621364,19,4,1,18,-4,-6,-39,-34
1523210530623370,-55,-13,-10,-33,-4,-3,-1,-7
1523210530623370,43,14,-3,6,0,-3,11,31
1523210530644427,33,-4,-1,-2,-2,1,43,21
1523210530644427,0,8,-6,3,3,0,-6,32
1523210530645434,-1,-8,19,12,3,-1,-14,-12
1523210530645434,38,7,1,-3,-4,-1,13,12
1523210530666484,-23,-2,-15,-8,-3,-1,-3,1
1523210530666484,10,12,9,4,3,2,-29,-3
1523210530668495,39,0,-2,5,-1,-3,-6,12
1523210530668495,-33,1,-6,31,-2,-2,41,-15
1523210530681525,-13,-14,-1,-48,-5,-3,-6,-4
1523210530681525,30,4,2,0,-4,0,-11,4
1523210530683528,2,13,0,15,0,1,12,-9
1523210530683528,-18,-13,-2,-12,1,-4,-24,3
1523210530704586,-32,3,9,16,0,-2,2,-4
1523210530704586,-8,0,-8,-4,-2,0,-14,-28
1523210530705589,-7,10,-3,-2,1,0,102,-39
1523210530705589,10,-2,-10,-5,-3,-1,-17,-7
1523210530726879,-5,2,2,-4,-2,-4,-14,8
1523210530726879,14,7,16,0,4,1,-14,5
1523210530727650,29,-11,-4,3,-2,-2,-14,28
1523210530727650,3,0,-2,14,1,0,-25,-18
1523210530741919,-16,-4,0,-38,-7,-2,53,-6
1523210530741919,26,-2,2,3,1,0,-9,-6
1523210530743689,-32,-8,-3,0,-5,-2,-17,-21
1523210530743689,12,-9,1,-4,0,-3,-25,10
1523210530763743,10,-3,-5,-3,-3,0,-6,-23
1523210530763743,-9,1,-4,2,-2,-4,7,-7
1523210530765747,-35,-6,5,9,-1,1,-3,10
1523210530765747,1,0,-1,-33,-5,0,-8,9
1523210530786804,15,1,-9,24,-2,-4,-20,15
1523210530786804,6,-18,-7,-20,-3,-1,28,-30
1523210530787806,-48,3,7,21,-1,-2,-19,-32
1523210530787806,-1,5,12,-28,-4,-2,6,25
1523210530802037,0,1,-1,21,5,1,-15,-12
1523210530802037,10,4,-8,-7,-2,-4,18,17
1523210530802846,46,-17,1,-13,-1,-1,-91,11
1523210530802846,23,3,-5,10,2,8,96,-5
1523210530824138,-37,3,-1,-8,-3,-6,-16,-10
1523210530824138,14,4,-3,9,0,-1,-15,13
1523210530825950,-25,-38,21,-7,-3,-4,-22,4
1523210530825950,49,4,-13,0,0,0,-4,-31
1523210530845965,-12,-15,-11,13,4,2,17,15
1523210530845965,-12,0,-10,-26,-8,-3,5,-37
1523210530847967,17,15,3,9,3,3,19,27
1523210530847967,-71,0,-14,-10,-7,-7,-19,-36
1523210530861002,31,12,1,6,3,-2,10,6
1523210530861002,-36,-17,-10,12,2,0,-28,-2
1523210530868020,-2,10,-2,-17,-4,3,40,5
1523210530868020,-21,2,10,9,6,4,-11,12
1523210530884063,-23,1,1,2,-2,0,4,-2
1523210530884063,8,0,-6,2,0,-1,-5,17
1523210530885066,-20,1,-4,-8,-3,-1,6,-5
1523210530885066,-20,-2,-14,7,1,-4,-8,8
1523210530906356,84,3,11,-9,-5,-5,-91,-6
1523210530906356,-8,1,4,-4,0,7,62,26
1523210530908126,-17,-5,-2,-5,1,0,-11,10
1523210530908126,4,3,1,28,1,-2,11,-23
1523210530921161,17,-3,-15,-48,-8,-6,2,13
1523210530921161,29,18,5,-2,2,-1,-9,-6
1523210530927176,18,4,-8,3,2,2,-15,-12
1523210530927176,5,-4,-3,-3,-2,-2,-33,3
1523210530944222,-7,9,17,17,2,6,40,11
1523210530944222,-30,-2,8,9,2,-2,4,-22
1523210530945228,26,9,-8,-9,0,1,23,16
1523210530945228,-9,-13,4,1,-2,-2,-15,-10
1523210530966282,-14,-4,3,7,2,1,18,-1
1523210530966282,7,-7,-12,-4,-5,-6,-17,6
1523210530968287,-18,-3,-12,8,1,-3,-23,6
1523210530968287,41,6,1,-9,3,6,35,32
1523210530980362,-93,-9,7,3,-1,-6,-26,-46
1523210530980362,2,3,7,2,0,1,13,17
1523210530987336,9,-3,-6,0,-4,-4,4,1
1523210530987336,-65,-24,-10,-7,-2,-2,-37,-26
1523210531004561,-20,8,-13,5,-1,1,-43,-28
1523210531004561,10,12,10,4,1,1,9,4
1523210531005385,-5,-6,-17,-2,-6,-6,8,5
1523210531005385,24,5,3,-29,-5,-3,-6,19
1523210531026678,-22,-10,5,8,-1,-2,7,-19
1523210531026678,28,3,-20,-1,-5,-2,-12,8
1523210531028450,42,5,-5,-2,1,0,-15,-18
1523210531028450,-20,16,12,12,4,0,-3,-3
1523210531040478,14,-10,8,-6,-2,-1,9,14
1523210531040478,-1,-3,-2,-8,-2,-1,12,8
1523210531047499,-18,1,-24,-3,-3,-2,31,-23
1523210531047499,-44,2,1,-3,-2,-2,-5,3
1523210531063539,23,7,-7,1,1,1,2,19
1523210531063539,-59,-8,1,1,-1,0,-15,-15
1523210531065544,28,9,6,3,0,-1,-15,21
1523210531065544,30,12,-7,-12,1,1,0,15
1523210531086601,16,-12,-17,-3,-4,1,18,7
1523210531086601,16,1,10,-1,0,0,-15,10
1523210531087603,-81,-15,3,-3,-5,-3,12,-29
1523210531087603,20,-4,-13,4,0,-2,12,32
1523210531100641,33,9,9,6,-1,-1,14,8
1523210531100641,21,4,-8,-2,-1,0,35,-8
1523210531107893,6,-7,8,-8,1,7,-10,13
1523210531107893,45,-12,-7,10,-3,-5,-7,-47
1523210531123743,-70,-11,4,-16,-8,-7,3,-14
1523210531123743,37,9,-11,15,0,-4,-36,-12
1523210531125705,9,4,-4,-2,0,1,8,11
1523210531125705,-19,-1,2,-5,-3,1,15,-1
1523210531146760,52,-5,12,-1,-2,-2,-3,-9
1523210531146760,20,2,20,-8,1,3,-18,9
1523210531147763,-33,-1,3,12,-2,-4,-3,15
1523210531147763,19,-2,6,-4,-1,2,-15,-1
1523210531160030,-43,-4,-15,1,3,0,5,-16
1523210531160030,-19,-11,2,-4,0,0,24,5
1523210531168819,43,3,5,12,0,-1,5,9
1523210531168819,-23,0,1,-9,-4,-7,-10,-31
1523210531183903,-3,-3,-2,-13,-1,0,-12,27
1523210531183903,-48,-2,-2,2,-2,-5,-16,-7
1523210531185866,14,2,6,6,3,3,-2,-2
1523210531185866,-17,4,-4,-8,-6,-5,-30,14
1523210531207062,-1,-18,16,18,8,9,3,-4
1523210531207062,-5,-11,-24,-10,-7,-7,4,9
1523210531207922,-12,5,-8,-6,-2,-2,0,-11
1523210531207922,-40,-3,-11,-15,-6,-4,-21,0
1523210531219955,8,4,-1,-2,-3,-1,30,-16
1523210531219955,-4,-6,3,15,6,3,-20,-6
1523210531228982,20,-3,-1,-3,-5,-3,-2,-5
1523210531228982,-27,1,5,4,0,0,16,-1
1523210531244020,27,-6,-19,-2,-2,-1,14,5
1523210531244020,32,10,4,9,0,-1,-5,-8
1523210531245022,-14,4,4,-24,-3,-3,10,-31
1523210531245022,32,9,7,11,0,2,-2,8
1523210531266116,12,10,-6,3,-1,-2,36,19
1523210531266116,-1,-2,3,0,2,2,-31,9
1523210531268083,59,3,11,2,1,-1,1,4
1523210531268083,-43,-6,-2,3,0,2,15,3
1523210531280115,-26,-10,-8,3,-4,-4,-29,-22
1523210531280115,27,-11,0,-8,-1,-3,1,18
1523210531289139,1,-5,17,12,-2,-2,9,-39
1523210531289139,15,-4,0,-24,0,-1,-60,8
1523210531304413,49,14,3,3,-1,4,30,16
1523210531304413,-64,-15,-3,-2,0,-1,-5,-27
1523210531306184,30,6,-12,-6,-1,0,1,11
1523210531306184,-11,-21,4,5,0,0,6,12
1523210531326472,49,10,-15,4,-5,-2,-35,26
1523210531326472,-14,-1,-2,-19,-6,-5,33,-16
1523210531328245,-37,-12,-12,-5,2,1,-22,-10
1523210531328245,-20,8,3,19,4,4,29,-13
1523210531340274,6,8,14,-16,1,2,-26,2
1523210531340274,12,-9,-15,2,-8,-1,32,16
1523210531349298,-14,-8,-5,-6,-3,-6,-3,9
1523210531349298,-4,-14,17,-2,-2,-3,34,0
1523210531364338,-57,1,0,2,2,-1,-13,-14
1523210531364338,34,4,2,23,5,5,-48,17
1523210531365342,7,8,1,-40,-4,-5,41,-17
1523210531365342,-3,-2,-18,2,-4,-3,7,-6
1523210531386397,-4,7,5,9,1,0,-4,-3
1523210531386397,44,-4,8,-6,-2,-4,-17,26
1523210531388403,8,-14,7,17,6,7,-10,8
1523210531388403,2,-3,-8,-6,-5,-10,-5,-9
1523210531400473,16,2,-10,-7,0,-1,16,-6
1523210531400473,-95,-20,-2,-8,-2,0,-15,-29
1523210531409458,-9,1,9,8,0,-1,-22,-3
1523210531409458,36,1,1,5,1,4,30,2
1523210531424542,2,-4,-9,-7,-3,-5,-39,-1
1523210531424542,40,3,-3,-1,1,1,52,-9
1523210531426504,3,1,-10,5,-4,-5,-8,-3
1523210531426504,-31,4,-1,-2,-1,2,10,2
1523210531446556,26,-11,-20,-3,-6,-6,7,4
1523210531446556,65,9,1,16,2,1,-6,6
1523210531447560,-65,2,-2,-63,-7,-1,11,16
1523210531447560,39,-2,-7,1,-1,-1,-11,-13
1523210531460598,-32,-8,8,22,0,-3,5,18
1523210531460598,33,14,1,-17,-2,-1,-8,-1
1523210531468616,-72,-19,-9,28,5,0,-25,-13
1523210531468616,28,8,12,-3,0,2,-26,-1
1523210531483655,28,-8,-1,-5,2,1,7,8
1523210531483655,14,12,-5,-4,-6,-2,19,-4
1523210531485661,15,17,-19,7,0,1,-28,21
1523210531485661,-21,3,4,11,0,-2,30,-25
1523210531506952,-39,-8,0,0,1,0,7,-16
1523210531506952,-13,5,-15,-4,-4,-7,-41,-2
1523210531508722,27,-6,16,1,-2,1,20,15
1523210531508722,-12,-2,-7,7,2,0,-6,4
1523210531519751,46,14,-9,-10,-3,0,-2,-6
1523210531519751,-41,-11,3,-7,-5,-5,5,-5
1523210531528781,-56,-11,15,3,1,-1,5,-4
1523210531528781,26,1,-6,0,-1,-1,25,2
1523210531543814,-17,1,9,5,5,3,-9,-9
1523210531543814,61,-17,-14,-11,-6,-4,13,19
1523210531545825,22,1,-3,6,-2,-4,-18,-23
1523210531545825,-14,-7,0,-4,0,1,3,5
1523210531566878,-11,1,8,16,-3,-3,-10,-11
1523210531566878,-51,-12,7,-6,-1,1,40,-3
1523210531567878,18,6,4,-5,1,2,-21,12
1523210531567878,-21,6,-11,-9,-5,-3,-6,8
1523210531579919,45,2,-4,1,-2,3,16,0
1523210531579919,1,6,19,2,2,1,-45,-12
1523210531588934,23,3,-17,-6,-7,-6,14,3
1523210531588934,20,-5,9,4,1,0,-7,-15
1523210531604209,-13,6,4,-2,1,-1,4,7
1523210531604209,-72,-12,-7,-3,-3,1,-10,-18
1523210531605980,24,-37,-1,2,-3,-1,12,6
1523210531605980,39,26,-5,-1,-3,-1,-13,21
1523210531626273,-8,0,0,0,2,0,-11,17
1523210531626273,29,3,0,5,1,-2,25,-24
1523210531628044,-20,11,-5,0,2,3,15,-25
1523210531628044,10,-7,-7,-5,-6,-6,-21,1
1523210531649097,4,-11,10,-8,-6,-7,-3,20
1523210531649097,-29,4,-6,6,1,-1,-15,-42
1523210531650100,-76,0,-11,-1,0,-1,-29,7
1523210531650100,26,-1,0,4,-2,-2,86,-3
1523210531663135,-17,-9,-9,-11,-5,1,3,-9
1523210531663135,10,0,-9,5,1,-1,-12,9
1523210531671154,19,6,4,-2,-2,3,6,2
1523210531671154,-52,0,3,9,-1,-2,-33,-8
1523210531686195,-37,-15,-10,-10,0,-4,7,-6
1523210531686195,58,23,6,-6,-4,-2,10,14
1523210531688199,11,6,4,17,3,-1,23,27
1523210531688199,-16,-11,10,-9,1,2,-32,-22
1523210531709489,9,-1,0,10,-3,1,21,3
1523210531709489,-1,17,3,-7,1,-2,-21,7
1523210531710259,36,4,14,13,8,4,28,23
1523210531710259,15,4,-4,-5,-2,3,-32,-1
1523210531731313,-42,-4,6,-1,-1,1,24,-29
1523210531731313,-10,-35,14,-6,-1,0,-7,2
1523210531733319,11,6,-4,12,-4,-7,0,-20
1523210531733319,18,-1,-13,-15,-2,0,17,17
1523210531746356,6,19,25,-5,3,1,-8,-3
1523210531746356,-58,-6,-11,23,-1,-5,-11,11
1523210531748358,9,-13,-5,-30,-5,-4,-7,-14
1523210531748358,-1,4,4,7,2,1,-14,-2
1523210531768415,14,3,-16,0,-2,-1,-29,29
1523210531768415,21,8,5,-10,-1,1,8,-3
1523210531770417,-1,-4,-1,26,-2,-2,-16,-6
1523210531770417,53,4,-5,-16,-3,-4,-6,-7
1523210531783453,6,3,-4,5,2,2,-6,-12
1523210531783453,-4,-12,12,10,4,4,-7,7
1523210531790708,26,-4,-3,-11,-3,0,17,4
1523210531790708,19,0,-5,5,-3,-5,-5,-7
1523210531806752,2,2,4,18,1,0,3,-18
1523210531806752,-3,-6,-11,-15,-2,-2,-11,16
1523210531808521,4,19,0,1,1,1,11,-7
1523210531808521,-32,-16,5,-1,1,1,-6,5
1523210531828619,-3,-11,4,-5,-5,-2,17,-28
1523210531828619,-1,10,-15,2,1,1,13,-5
1523210531830577,-22,-3,4,-12,0,-4,-28,-7
1523210531830577,-89,-18,-16,9,-1,-2,16,-18
1523210531843616,63,7,1,-8,-4,-2,-7,11
1523210531843616,18,-3,-5,0,-1,3,67,2
1523210531849632,-37,-3,-6,-8,-5,-1,-36,-24
1523210531849632,-36,-4,5,-1,3,1,-2,31
1523210531866674,26,4,0,-5,-2,-5,-9,2
1523210531866674,-10,-12,-3,-7,1,-3,-13,7
1523210531867674,50,7,3,14,-4,-3,-4,5
1523210531867674,-38,-22,5,-17,-8,-2,7,-7
1523210531887769,-14,10,-21,-10,2,4,-6,-1
1523210531887769,-10,0,6,0,-5,-3,-17,5
1523210531896753,32,15,2,3,5,2,8,-6
1523210531896753,14,5,1,5,0,0,13,1
1523210531903859,-14,-17,-16,-8,-5,0,5,14
1523210531903859,-5,1,-9,-6,-3,-2,-15,-6
1523210531909787,8,-7,3,14,6,4,8,-16
1523210531909787,-19,-2,-4,-8,-7,-7,5,-5
1523210531926834,6,6,8,2,4,0,-19,-23
1523210531926834,16,-2,-8,12,2,0,15,13
1523210531927838,-12,-1,-13,-16,-8,-6,-16,-5
1523210531927838,-22,-3,2,11,3,1,54,4
1523210531948934,-42,-3,-2,-4,2,-1,5,18
1523210531948934,19,5,5,11,-4,-2,-30,-20
1523210531950897,-8,-5,-14,-29,-4,-2,8,-13
1523210531950897,26,12,3,-2,2,1,-21,20
1523210531963224,-6,4,10,5,0,2,7,-18
1523210531963224,-17,-19,-3,-10,-5,-6,6,-15
1523210531970238,-82,-16,-3,-1,-3,-5,-54,23
1523210531970238,20,10,8,-10,-2,-1,27,-19
1523210531986281,-11,-12,9,3,1,1,-9,-15
1523210531986281,28,17,-2,0,1,-1,-16,14
1523210531988286,23,-2,-4,-5,-3,-1,13,7
1523210531988286,11,-5,-4,-2,-2,-3,-20,2
1523210532009576,45,17,8,6,5,-1,0,18
1523210532009576,-31,7,-2,28,-3,-1,-5,-29
1523210532010349,3,-7,0,-28,-1,0,20,14
1523210532010349,60,13,2,11,2,0,-25,0
1523210532023379,-27,-6,-3,-8,-7,-6,-7,11
1523210532023379,17,6,-7,-2,-1,0,10,-15
1523210532030401,46,6,0,12,1,4,14,15
1523210532030401,-26,1,-7,-9,-6,-6,-22,-9
1523210532046444,-4,-10,-20,-14,-7,-4,0,5
1523210532046444,0,-4,2,-10,-2,-1,-65,-7
1523210532048447,-20,3,3,15,3,2,6,2
1523210532048447,6,-5,3,-5,0,1,32,-21
1523210532068500,-11,-7,2,1,-2,-2,6,-10
1523210532068500,-40,-7,6,-10,3,1,-8,22
1523210532070505,8,2,-9,4,-2,0,4,1
1523210532070505,38,-6,6,16,1,1,-25,22
1523210532083539,-19,-4,13,-2,2,2,-4,5
1523210532083539,-7,3,5,1,-1,1,44,6
1523210532090669,-3,-6,2,6,-2,-4,-2,3
1523210532090669,36,10,-7,-2,1,1,-8,3
1523210532106840,-12,6,5,9,0,-4,4,6
1523210532106840,43,-4,-6,-23,-3,2,27,-14
1523210532108696,-23,-2,-7,0,-4,-6,-4,-9
1523210532108696,44,-8,-8,-8,-1,0,-8,1
1523210532128663,7,1,-1,18,3,1,-23,16
1523210532128663,14,-1,6,-27,-1,-2,8,-8
1523210532130664,-2,7,-15,8,2,2,6,-16
1523210532130664,10,2,-12,-2,-2,0,1,16
1523210532142795,8,-5,-4,-6,-8,-8,-12,-36
1523210532142795,25,1,12,5,1,2,1,24
1523210532151720,-5,-8,-4,8,-1,-4,-80,-11
1523210532151720,-3,10,6,5,3,3,22,-11
1523210532166762,12,-3,-24,-14,-4,2,31,-19
1523210532166762,-11,-4,-3,6,0,3,7,0
1523210532167763,-13,6,2,-1,2,1,1,1
1523210532167763,-52,-7,-7,-1,-4,-4,-30,10
1523210532188821,-32,8,6,-7,-2,-1,-10,-6
1523210532188821,-19,-2,-12,11,-2,-3,-6,-9
1523210532190826,11,-2,9,-7,-5,-1,31,20
1523210532190826,-46,2,-2,1,2,2,-16,8
1523210532203095,-30,-4,-15,-4,-1,1,30,-32
1523210532203095,24,-6,0,-1,-2,-2,-9,22
1523210532211882,-23,-12,0,3,-3,-5,5,7
1523210532211882,-20,0,8,0,2,0,-6,-12
1523210532227927,12,3,7,-3,-1,-2,-67,23
1523210532227927,-39,-4,-10,-2,-1,2,81,3
1523210532229932,64,12,11,-1,-1,0,26,4
1523210532229932,-37,-5,-2,1,1,-2,-8,-8
1523210532248980,-28,-8,5,4,3,4,-6,12
1523210532248980,63,-5,-4,0,-4,-6,-15,19
1523210532250984,-43,12,0,-5,-2,-2,6,-26
1523210532250984,3,-16,2,-8,-6,-4,3,-9
1523210532263022,-41,-11,-2,-3,0,-3,-34,-6
1523210532263022,-18,-19,-7,18,0,3,37,-13
1523210532272041,-35,2,-1,-2,0,-2,-2,4
1523210532272041,46,-1,1,2,-2,-3,-15,-20
1523210532286078,10,-3,2,7,-3,-3,-1,1
1523210532286078,-51,5,2,-14,0,0,-31,-25
1523210532288083,29,-9,7,6,4,6,1,8
1523210532288083,-5,2,6,-2,-3,0,11,19
1523210532309325,51,2,-7,4,-2,-3,25,16
1523210532309325,-47,-2,9,-4,-1,-1,-27,-8
1523210532310148,-37,-4,3,-2,0,-2,5,-32
1523210532310148,4,4,1,7,2,-1,-58,12
1523210532323218,34,-3,-5,-13,-4,2,119,0
1523210532323218,-67,-8,0,0,0,-4,-25,9
1523210532337213,44,0,15,6,2,4,-13,21
1523210532337213,-38,-6,-14,0,1,2,3,-9
1523210532346245,-2,1,1,-5,-4,-3,-4,-21
1523210532346245,19,19,-1,4,3,-1,-6,4
1523210532348243,-9,-21,-16,-5,-6,-5,13,-3
1523210532348243,-18,-3,-2,-1,1,0,6,-11
1523210532369299,-41,4,8,-10,-3,2,-9,21
1523210532369299,56,0,-7,-4,-2,-4,-15,-14
1523210532370302,-32,7,1,-3,-1,2,6,-4
1523210532370302,38,8,-7,1,-4,-3,10,14
1523210532382333,-12,-12,-6,-1,2,-1,-16,3
1523210532382333,52,7,5,-4,-3,-1,-26,-2
1523210532391356,-10,1,-3,-4,-2,-2,21,-12
1523210532391356,-3,-14,-15,-7,-4,-4,0,-5
1523210532406632,-46,10,2,7,2,0,-13,-33
1523210532406632,58,-12,-13,-7,-3,1,22,22
1523210532408402,29,-7,17,-4,-5,-8,-32,-8
1523210532408402,-22,-6,9,8,2,2,22,-4
1523210532428458,22,-7,2,-2,1,0,-7,8
1523210532428458,30,0,-14,-7,-6,-2,1,1
1523210532430461,54,5,-1,1,-2,-3,-10,8
1523210532430461,0,2,5,1,2,-2,-52,19
1523210532442551,21,0,-6,-4,-2,0,29,0
1523210532442551,-34,-24,24,12,6,5,-8,-3
1523210532451517,47,7,-15,-4,-1,4,17,-5
1523210532451517,-57,-7,-4,-6,-4,-5,-47,5
1523210532466557,14,4,5,13,7,5,32,-12
1523210532466557,-37,-6,-6,0,-1,-4,-10,-17
1523210532467598,-17,-3,-14,-6,-3,-3,-19,-26
1523210532467598,36,12,2,3,2,0,29,8
1523210532488619,-20,-6,-1,-1,-2,-3,-16,2
1523210532488619,-38,14,8,-3,-3,-1,7,-1
1523210532490620,69,5,-4,2,-1,-1,-3,27
1523210532490620,-17,-2,5,-2,-3,-6,-4,-35
1523210532502888,28,8,-3,-8,-1,-1,-4,-3
1523210532502888,-10,5,0,-3,0,3,-37,5
1523210532511683,12,8,11,0,2,6,113,28
1523210532511683,-48,-9,-7,-1,-4,-6,-15,-27
1523210532533736,-1,-7,-1,-5,-4,-5,-41,0
1523210532533736,24,5,6,3,1,0,-2,28
1523210532535741,-66,-4,-1,10,3,0,-14,-42
1523210532535741,-15,-1,7,-25,-5,-1,23,-13
1523210532550781,-13,-14,-14,0,-2,-2,-4,-12
1523210532550781,-31,-2,-4,5,-2,-3,-3,-3
1523210532551821,-20,0,-6,3,2,-1,-22,6
1523210532551821,33,7,1,5,3,5,26,14
1523210532572010,4,-5,-7,-6,-2,0,-21,10
1523210532572010,-29,5,9,-5,-4,-3,6,-38
1523210532572846,22,5,-2,-1,0,0,-2,13
1523210532572846,11,0,10,1,0,-3,0,6
1523210532586877,40,5,-5,-10,-4,-3,-1,4
1523210532586877,-44,-10,1,6,3,0,-4,-18
1523210532587878,-15,-6,-4,-7,-1,0,19,18
1523210532587878,7,7,10,-4,-2,-1,-24,7
1523210532608936,-39,-7,2,7,-1,-4,-5,-26
1523210532608936,33,7,3,-14,-2,-2,16,26
1523210532610948,57,16,10,-1,1,1,-49,27
1523210532610948,-38,-19,3,-1,1,6,42,0
1523210532630995,78,9,1,-7,-3,-2,-25,19
1523210532630995,-1,4,3,5,0,-2,94,-15
1523210532633000,-40,-7,4,1,-3,-3,-36,-7
1523210532633000,44,15,-9,-10,-6,-1,24,-14
1523210532646036,-21,-6,-5,3,-3,-2,-6,1
1523210532646036,21,4,-4,-2,-1,0,-24,-18
1523210532648039,-66,-12,-1,-1,-2,-3,31,-5
1523210532648039,-17,-2,-12,-2,-4,0,6,13
1523210532669095,-16,-5,6,7,7,0,-50,1
1523210532669095,19,0,-9,0,-1,-5,7,-34
1523210532671102,-5,-1,-10,-10,-6,-7,-5,-25
1523210532671102,18,-1,-1,8,2,0,-12,-3
1523210532691389,20,19,6,-4,0,1,11,38
1523210532691389,21,4,5,12,2,-1,-21,11
1523210532693163,2,-12,-1,-11,-2,-3,-5,8
1523210532693163,19,1,-9,-8,-6,-4,1,-15
1523210532706428,16,1,6,7,0,-3,6,10
1523210532706428,7,8,-13,9,-2,2,12,10
1523210532708198,28,-4,-8,-28,-3,-2,-22,-19
1523210532708198,78,9,11,5,2,3,-10,20
1523210532729299,-73,-17,-5,0,0,-1,-22,-14
1523210532729299,-15,-4,4,-7,-2,1,75,-7
1523210532730257,-10,-3,2,14,4,4,-31,24
1523210532730257,12,4,-9,2,-1,-3,27,-21
1523210532751548,22,10,8,1,2,1,-17,-6
1523210532751548,-72,-14,-7,-4,0,0,-7,14
1523210532753318,-36,-3,-5,5,-1,-5,1,-59
1523210532753318,14,-9,-6,2,0,1,9,8
1523210532765352,-12,-3,15,0,-2,1,22,20
1523210532765352,-27,-11,-19,-9,-6,-3,-27,-36
1523210532772378,35,1,4,7,2,1,7,22
1523210532772378,-16,5,-8,-1,-1,-2,-21,7
1523210532789570,-37,6,1,-2,0,0,24,-15
1523210532789570,70,-1,0,4,3,0,-33,20
1523210532790417,8,8,-1,-9,-4,0,-8,-12
1523210532790417,-49,-15,-6,-5,-2,-3,2,6
1523210532811484,35,2,1,3,1,1,15,6
1523210532811484,-16,-6,9,-3,-3,-2,-12,14
1523210532813479,-39,-23,10,15,4,1,-11,-14
1523210532813479,9,-2,-4,-5,0,1,-60,11
1523210532825567,-24,-27,-6,-7,-6,-1,58,-4
1523210532825567,46,16,4,-7,-2,-3,-23,3
1523210532832535,-12,-6,13,6,2,-3,-13,34
1523210532832535,-71,-11,-8,-3,-3,-4,-22,-30
1523210532848573,-15,0,-5,-3,-4,-2,-5,25
1523210532848573,20,14,1,5,3,0,0,-21
1523210532850577,41,-4,11,-3,-1,2,4,-4
1523210532850577,39,14,2,2,3,2,20,11
1523210532871870,-69,-9,-3,-3,-2,-2,21,-11
1523210532871870,-4,-3,-7,2,1,0,-4,1
1523210532872636,-9,10,-11,-2,-4,-3,1,12
1523210532872636,-13,-6,-1,-3,-2,1,45,-30
1523210532885672,26,-1,0,5,-2,-3,-40,-24
1523210532885672,-48,-8,2,-13,-4,0,-13,28
1523210532892691,-19,4,-10,-7,-4,0,30,-20
1523210532892691,12,5,-13,-5,-9,-7,-7,18
1523210532908831,50,8,-2,-1,3,3,-3,2
1523210532908831,-17,-21,5,2,1,0,-2,-9
1523210532910743,36,5,-15,-2,-5,-6,-10,2
1523210532910743,18,3,13,3,3,2,4,11
1523210532931793,54,7,-2,-1,1,2,0,-10
1523210532931793,11,1,3,2,0,-2,-3,21
1523210532932796,-21,-1,-5,-9,-4,-6,-3,-31
1523210532932796,-15,-7,-3,5,2,0,8,9
1523210532945831,35,11,0,-4,-4,-2,-8,-4
1523210532945831,1,8,-6,5,1,-2,-84,35
1523210532953088,-8,-6,-24,-1,-1,2,60,-14
1523210532953088,-38,-21,18,3,-2,0,-6,6
1523210532968895,-82,-8,2,0,1,-2,3,-14
1523210532968895,21,-6,-1,-8,-5,-2,-14,0
1523210532970898,-28,4,18,3,2,0,-14,3
1523210532970898,81,8,0,2,0,-1,2,25
1523210532992086,20,4,-3,-5,-3,-4,-15,-6
1523210532992086,-59,-1,-2,5,1,-1,17,-30
1523210532992961,11,2,13,-8,-4,-3,-23,2
1523210532992961,8,8,-4,1,1,2,19,12
1523210533006225,-7,-7,-4,3,1,-1,-1,-3
1523210533006225,-15,-3,-7,-2,-1,-2,6,-9
1523210533013009,-44,4,2,2,2,1,-10,-4
1523210533013009,-16,-6,-7,0,-2,2,-17,-21
1523210533029054,11,-4,-3,-4,-1,-4,29,7
1523210533029054,40,2,-6,-4,-2,2,1,2
1523210533030054,-24,-9,-2,-1,-3,1,3,31
1523210533030054,-9,-1,5,6,3,-3,-2,-7
1523210533051350,0,8,-7,-4,-4,-2,-5,-23
1523210533051350,26,3,-9,-8,-4,-4,10,13
1523210533053115,39,-10,15,11,6,2,3,2
1523210533053115,32,2,-19,-6,-6,-3,43,-5
1523210533065148,-29,-8,4,-3,-2,-1,-2,-10
1523210533065148,-12,-6,2,2,1,-4,2,6
1523210533074172,9,5,3,1,0,0,-1,-9
1523210533074172,31,4,4,-6,1,0,-23,-11
1523210533089213,-37,-12,-10,0,-3,-1,-4,-7
1523210533089213,20,-14,11,5,0,0,25,7
1523210533090213,-5,-2,-22,-10,-8,-6,-48,-17
1523210533090213,37,8,8,5,4,3,34,-44
1523210533111273,-58,-6,-4,-4,-3,-3,-17,-27
1523210533111273,29,9,2,-9,-4,0,-10,12
1523210533113276,26,-1,-6,-2,1,1,14,13
1523210533113276,-55,-14,2,-7,-5,-6,-17,14
1523210533125308,37,7,2,7,4,1,6,20
1523210533125308,-29,-5,9,0,3,3,7,12
1523210533134332,-20,-4,5,-1,-2,-2,-2,-13
1523210533134332,7,6,-10,3,0,-1,5,-5
1523210533149372,10,1,5,-2,-2,-2,4,27
1523210533149372,31,4,6,-4,-4,0,2,-5
1523210533150374,9,-10,-2,1,-1,1,21,29
1523210533150374,-14,-5,0,1,1,0,-26,0
1523210533171668,63,10,5,-2,-3,0,-6,1
1523210533171668,-43,5,-26,-6,-4,-4,-19,-20
1523210533173435,90,9,-6,3,1,1,69,21
1523210533173435,-65,6,2,-6,-1,-1,11,-73
1523210533185522,35,-10,4,-1,-1,-3,-12,5
1523210533185522,-3,6,4,0,-1,-2,5,-4
1523210533194494,-33,1,-5,3,4,0,-24,6
1523210533194494,23,-8,6,-3,-2,0,-9,41
1523210533208584,-16,-7,-9,0,-1,1,19,-25
1523210533208584,22,-1,3,2,1,0,-12,-10
1523210533210550,-8,1,5,-1,-3,-1,-10,-30
1523210533210550,25,-6,-10,0,2,3,-8,33
1523210533231589,-6,2,-15,-11,-5,-1,5,2
1523210533231589,0,-5,-5,-10,-3,-2,-7,-5
1523210533232595,13,4,-4,5,2,1,1,1
1523210533232595,-64,-7,2,2,-4,-8,-24,2
1523210533244635,66,-3,13,-4,-3,1,-21,21
1523210533244635,24,9,-6,-1,0,0,59,-44
1523210533253888,-10,17,-10,-8,-2,-3,-12,-13
1523210533253888,-17,-18,5,1,-1,0,-28,13
1523210533268689,44,10,-4,1,1,-1,72,-11
1523210533268689,-48,-7,3,6,3,1,2,1
1523210533270694,-36,-4,-11,-11,-4,-3,-20,-10
1523210533270694,13,1,8,1,-2,-4,-16,-12
1523210533291849,-26,-2,-2,-5,-3,0,10,18
1523210533291849,21,2,4,8,3,1,-6,-4
1523210533292754,3,-5,10,5,1,2,8,12
1523210533292754,-1,-8,4,-3,-2,-2,-8,-6
1523210533305020,-13,-3,0,7,1,2,-21,0
1523210533305020,-22,4,0,-2,-3,-3,2,-2
1523210533313811,-33,-3,3,6,1,1,-21,11
1523210533313811,48,2,-16,-8,-4,-5,-19,21
1523210533328849,-27,-3,-2,1,-1,-3,16,-32
1523210533328849,-7,-2,0,4,1,0,-11,6
1523210533330853,78,4,-3,-3,-2,-2,4,8
1523210533330853,-53,1,-1,-3,1,3,4,15
1523210533352048,-12,3,-1,-6,-2,-1,4,26
1523210533352048,16,-9,-8,-3,-4,-3,-21,30
1523210533352911,21,3,8,2,-1,2,16,-4
1523210533352911,-8,9,6,-4,0,0,14,-7
1523210533364946,1,5,4,2,0,-5,-91,7
1523210533364946,-9,-5,4,7,4,5,93,-6
1523210533373996,-43,5,-14,-5,-3,-2,-5,-6
1523210533373996,-67,0,4,5,2,1,4,-16
1523210533389243,72,7,-4,5,-1,-3,-24,18
1523210533389243,19,5,3,-6,-1,-2,-25,-14
1523210533391013,10,-4,-9,1,-7,-7,-23,29
1523210533391013,25,2,0,2,1,2,39,-19
1523210533411070,-31,-7,2,-8,-1,-1,-2,-9
1523210533411070,-40,-5,-2,-2,-4,-3,-9,-11
1523210533413072,-4,6,10,0,-2,-1,-11,2
1523210533413072,15,-9,-5,4,-1,-2,3,5
1523210533425104,9,-3,-8,-6,-1,3,21,29
1523210533425104,37,3,1,-3,-6,-6,-12,-3
1523210533434128,-23,-12,3,0,3,0,-8,-21
1523210533434128,-46,3,-1,-3,-5,-4,-15,1
1523210533449169,48,-1,7,3,3,1,27,-10
1523210533449169,-6,-8,-8,-4,-3,-3,0,11
1523210533450172,60,-1,-4,-3,-3,0,-17,6
1523210533450172,31,-1,-2,6,-1,-4,-15,8
1523210533471461,-70,-18,-11,1,-1,0,15,-32
1523210533471461,-60,-3,-3,-3,1,-1,-50,14
1523210533473233,16,6,7,2,-1,1,41,-38
1523210533473233,-14,-8,0,-2,-1,1,-7,-16
1523210533485264,26,8,-6,0,-3,-2,-3,14
1523210533485264,6,-3,-4,0,-1,-4,-2,15
1523210533494293,-63,-11,11,-10,-4,0,-15,-17
1523210533494293,55,0,-16,1,-2,-2,17,14
1523210533509338,-15,2,-4,-6,-4,-2,-9,-12
1523210533509338,8,7,-3,4,3,4,10,-1
1523210533510336,-65,5,-8,-4,-1,-5,7,16
1523210533510336,-33,2,6,1,0,0,-6,-12
1523210533531388,38,14,6,1,0,0,-14,-1
1523210533531388,33,-5,-5,0,-2,-4,-49,-2
1523210533533392,-30,-1,-10,-2,-4,-2,25,-5
1523210533533392,12,3,5,-5,-1,-1,-8,11
1523210533554570,-22,-3,13,8,3,2,40,5
1523210533554570,-4,-2,-8,-3,-1,2,-25,-33
