timestamp,emg1,emg2,emg3,emg4,emg5,emg6,emg7,emg8
50643442041,2,4,6,4,1,0,1,-5
50643442041,0,-2,-3,-3,1,2,9,-15
50643444126,-1,1,2,5,4,2,-9,9
50643444126,-4,-5,-3,0,-2,-1,6,4
50643445003,-2,-1,-1,-1,1,-1,-9,-6
50643445003,8,11,3,1,-1,-1,-33,-15
50643446267,-8,-7,-12,-7,-3,0,7,-1
50643446267,3,0,6,3,-1,-1,-15,-17
50643455842,-1,-1,-1,0,0,0,-4,18
50643455842,-11,-6,-4,10,0,-1,-22,7
50643461458,39,3,-2,1,18,4,15,3
50643461458,-58,-4,-6,-29,-43,-8,-4,6
50643471393,2,-3,-5,-8,2,-2,3,8
50643471393,0,-2,-1,2,4,-3,7,-1
50643485072,-7,0,5,5,-17,-3,-22,-12
50643485072,15,-3,11,10,12,5,16,7
50643492100,10,1,-34,-4,-2,2,24,7
50643492100,-7,-2,-5,5,19,2,11,-10
50643500128,18,-3,16,-23,-33,-8,7,-9
50643500128,7,0,4,19,11,1,-8,6
50643515788,-11,0,-4,3,-4,-1,-17,-19
50643515788,10,0,-1,-1,4,2,20,13
50643521500,34,4,-4,6,10,3,2,-11
50643521500,-1,-4,-1,-9,0,-4,-23,-12
50643568379,-53,0,-17,-6,7,3,-3,8
50643568379,71,0,-11,-5,-17,-9,20,-14
50643569035,0,2,12,-3,-2,1,-41,-9
50643569035,6,-1,8,-1,6,-1,-4,-2
50643570016,10,-4,-23,10,6,1,1,-18
50643570016,-30,-6,-6,-9,-29,-4,3,20
50643570636,1,-4,-8,-21,-27,-9,14,-26
50643570636,12,1,0,-4,2,1,-5,-1
50643581402,-6,-5,14,9,3,0,-1,5
50643581402,4,3,2,11,33,7,-31,8
50643588760,8,5,2,5,4,0,2,-20
50643588760,-18,-3,-3,1,-14,-5,31,-10
50643597758,8,0,1,-4,-1,0,15,22
50643597758,-6,-1,-2,-31,4,-3,-15,5
50643611916,-3,-1,-6,16,11,2,3,12
50643611916,10,7,12,53,25,8,22,11
50643618809,-16,-4,8,-28,-21,-1,10,4
50643618809,-13,-9,-48,-99,-61,-14,-73,0
50643626257,-2,-6,5,64,9,-4,8,55
50643626257,-7,2,-2,-2,9,3,55,-4
50643641363,24,4,13,29,14,0,-16,3
50643641363,-12,10,17,31,30,7,36,0
50643648918,-8,-14,-8,2,9,-6,-34,-14
50643648918,-1,4,1,31,-37,-7,-66,0
50643657746,36,-2,-10,-63,-6,5,16,-6
50643657746,-26,6,19,25,21,4,56,-2
50643672066,2,-2,-11,-40,17,4,7,-14
50643672066,1,-6,-12,59,-18,-14,-2,-3
50643678890,2,0,2,4,-3,-7,-2,-10
50643678890,8,0,-4,66,-17,1,-4,-1
50643686445,10,11,18,-105,-2,5,44,44
50643686445,-2,-13,-16,27,21,-7,-5,10
50643701253,1,2,-10,-17,-7,0,16,41
50643701253,-3,-4,17,28,20,1,11,-29
50643708904,-8,9,8,118,-3,4,-2,-8
50643708904,12,3,-4,-128,2,12,-8,-9
50643717732,-7,-5,0,69,-4,-6,-54,-29
50643717732,2,5,4,3,-2,0,-25,40
50643731279,18,1,5,45,20,3,11,-1
50643731279,-10,-5,-10,-24,-30,-12,20,-18
50643740246,-2,4,-2,-38,15,-1,-39,-6
50643740246,2,0,12,30,-26,6,36,-64
50643746326,-14,-6,-9,-33,16,0,-31,11
50643746326,-15,-2,7,6,18,9,-7,-3
50643761378,11,11,8,17,16,1,39,-31
50643761378,28,-5,-12,-1,-4,-7,8,58
50643768769,-25,-14,-6,22,-6,-11,24,0
50643768769,-1,-8,-10,-83,-24,-8,-15,-21
50643777776,-13,-10,-3,23,-6,0,-10,-6
50643777776,26,9,9,-48,6,6,-18,-10
50643792080,-15,-3,-15,-15,11,6,3,-22
50643792080,-9,5,15,14,5,-1,-31,26
50643798865,1,-2,-1,28,-17,-6,-5,-10
50643798865,-5,0,11,-31,21,0,57,25
50643806398,4,-1,-20,0,-6,-4,-14,-8
50643806398,34,7,4,33,-3,1,-23,-28
50643821346,-35,-10,-9,20,-3,-3,19,26
50643821346,-16,-6,-12,28,-8,3,-38,-10
50643828894,-15,7,13,-24,2,-5,-41,-28
50643828894,19,3,15,73,26,-3,20,30
50643837757,15,6,5,8,11,17,-8,-26
50643837757,-14,-9,0,-12,25,-1,-13,3
50643851931,7,1,-1,14,-93,-14,-18,-34
50643851931,-3,6,-3,-10,39,25,27,47
50643858910,-1,7,10,-5,16,9,7,-12
50643858910,-12,-17,-20,-32,2,-8,7,-7
50643866387,-8,10,-10,-20,3,-3,-14,5
50643866387,-13,-9,-14,6,-30,-23,-14,-9
50643881370,-10,-31,-35,-31,-15,-12,0,-6
50643881370,10,-5,13,45,13,1,-30,-14
50643888953,10,-3,-11,-36,-12,-6,1,30
50643888953,-8,5,11,-27,-20,-1,18,-40
50643897746,8,9,13,4,16,2,16,32
50643897746,-15,-1,-6,36,-21,-8,3,-6
50643911970,11,-1,5,25,7,13,15,-8
50643911970,-13,7,-11,-49,15,7,1,25
50643918914,15,1,-10,-30,-12,-3,-1,-4
50643918914,35,-9,28,13,2,-7,-9,-20
50643926406,-7,4,0,-5,10,-3,32,6
50643926406,14,0,13,66,7,-1,-7,-33
50643941261,8,5,-38,-81,-42,-17,-37,8
50643941261,-21,-13,1,42,-8,3,31,78
50643948827,10,2,13,-34,19,10,11,-1
50643948827,-20,-8,-11,49,-11,-12,9,9
50643957694,19,-2,9,-13,7,-4,8,-17
50643957694,-11,8,-4,-7,-1,10,-11,0
50643972120,-3,-5,13,-33,17,10,-1,-2
50643972120,-37,-5,-32,-29,-2,3,11,5
50643978922,10,1,17,46,-17,-12,-52,-2
50643978922,11,18,20,14,9,-2,-21,-3
50643986438,-36,-25,-23,-24,-19,-11,4,-17
50643986438,20,-1,4,-27,-3,-5,-2,1
50644001815,-23,-7,4,29,-1,0,-12,12
50644001815,-26,12,-3,-43,3,4,7,-24
50644008870,77,13,5,61,12,-2,-8,6
50644008870,1,-7,-8,-32,-36,-8,-9,-23
50644017722,17,14,4,-26,26,7,17,35
50644017722,-4,-2,35,85,14,5,-14,-5
50644033350,-5,2,-6,24,-18,-2,5,-20
50644033350,11,30,17,22,5,-3,2,31
50644038944,43,69,35,-16,20,9,29,-1
50644038944,-15,13,-19,-41,-28,-9,-16,-17
50644046402,-102,-98,-57,20,-5,-6,24,-1
50644046402,0,-25,19,3,3,-2,-54,8
50644061360,-80,-11,-15,5,-4,1,-15,-107
50644061360,33,37,28,-17,16,4,15,32
50644068938,20,57,27,53,5,6,-9,3
50644068938,3,9,-13,-99,-1,-4,-5,-15
50644077794,7,0,6,-18,-31,-8,3,25
50644077794,26,-8,-11,2,16,-4,-20,-16
50644092059,-25,4,-7,1,-8,-1,-33,4
50644092059,8,-20,-1,-39,14,4,10,8
50644098909,1,0,-9,8,-16,-3,-7,-6
50644098909,-29,-14,-20,42,-3,0,13,-36
50644106448,34,-5,3,-107,-8,-4,-41,38
50644106448,23,18,-22,89,2,5,-50,-21
50644121225,-71,-26,55,21,5,1,27,31
50644121225,18,-17,-30,-27,-6,-4,4,1
50644128707,22,21,21,46,11,-2,38,16
50644128707,-4,4,5,8,-7,-3,31,-29
50644137797,-2,-34,-55,-39,-5,-6,35,31
50644137797,-3,-6,4,32,-14,-3,-3,-16
50644152049,2,14,7,-28,6,6,-16,1
50644152049,3,-6,17,45,12,3,43,13
50644158851,22,2,4,57,2,3,29,6
50644158851,-22,6,-42,-121,8,3,26,-9
50644174533,5,-8,-10,16,-24,-6,-7,-11
50644174533,0,-5,-1,-71,-32,-10,-26,-70
50644181262,36,3,31,41,25,6,24,-36
50644181262,-26,-2,-61,13,6,-3,-4,3
50644188855,31,6,-10,19,11,2,1,-9
50644188855,-38,-2,2,33,12,7,6,29
50644197813,27,5,-9,-51,-12,-6,-56,9
50644197813,14,-9,35,74,0,-2,-12,-11
50644211937,55,16,-17,-10,9,3,70,26
50644211937,-11,5,11,-4,-3,1,-8,33
50644218698,-39,-3,-4,50,9,2,-2,15
50644218698,-5,-10,4,-57,-16,-3,-5,1
50644234392,-14,0,-4,33,-8,-7,-38,11
50644234392,13,-8,43,-36,-10,-6,-2,-5
50644241174,9,6,-37,-33,11,9,-10,-9
50644241174,20,-6,36,88,25,-6,-25,-3
50644248718,-102,-14,2,-7,-33,-5,43,-13
50644248718,-10,10,-31,-7,12,7,2,15
50644257688,4,-10,-1,27,1,1,6,-46
50644257688,1,2,-25,-99,-13,-3,33,2
50644271890,31,-1,11,8,4,-5,-28,33
50644271890,-44,10,-8,20,12,11,68,-2
50644278751,6,5,-4,-23,-12,-6,2,-7
50644278751,16,-18,-10,-6,-5,-3,-30,5
50644294383,-35,-10,33,-6,6,-1,9,-12
50644294383,6,-4,-11,18,-2,-2,-27,31
50644301202,4,-2,3,21,-9,-2,-29,13
50644301202,30,9,-21,-17,-7,0,6,25
50644308874,15,14,15,9,7,0,-14,-1
50644308874,14,-24,27,-1,4,1,-2,3
50644317695,-15,-14,-6,-9,-1,-2,4,-12
50644317695,-1,-3,2,32,1,4,14,19
50644332012,10,1,-21,-87,-14,-2,27,-14
50644332012,-35,-6,-28,1,1,-5,-29,1
50644338873,15,-2,-3,-1,-1,-2,5,4
50644338873,-32,-5,17,6,-4,3,-23,25
50644354456,8,14,12,12,18,7,9,-25
50644354456,5,-16,-55,-43,-30,-17,-3,-62
50644361414,-13,-5,1,-9,-6,-11,-19,-1
50644361414,-6,8,10,-10,2,3,-13,-9
50644368796,6,-3,17,6,1,0,26,23
50644368796,29,6,25,24,8,7,-29,54
50644377898,40,3,-9,14,0,4,14,51
50644377898,-81,2,-6,-12,-4,-5,-18,-32
50644392113,-10,-9,-12,0,-6,-10,-9,-30
50644392113,30,15,4,0,-4,-4,8,14
50644398919,-4,2,6,2,1,1,16,-11
50644398919,41,0,-9,-2,-2,1,12,29
50644414614,-14,4,4,10,5,4,-17,-12
50644414614,31,8,0,12,8,8,-10,36
50644421328,-55,-10,30,-2,-2,-1,26,-8
50644421328,-1,1,-6,-3,-8,-5,10,-21
50644428730,-15,-17,-5,5,4,-2,-45,-26
50644428730,20,-2,-3,-9,1,1,33,-28
50644437692,31,14,-8,-7,-1,-1,-9,13
50644437692,50,10,9,9,1,5,-1,0
50644452159,-12,-5,-4,-13,5,2,-12,20
50644452159,-25,-2,1,30,0,-3,-9,-13
50644458848,-11,-5,-4,-3,-15,-12,-13,-37
50644458848,16,-15,44,-6,0,-1,16,-8
50644474488,22,4,2,-1,1,-2,19,7
50644474488,-13,-6,-5,20,0,-1,-6,-31
50644481356,13,-3,4,-8,5,6,-27,24
50644481356,-38,7,-9,4,-1,-4,1,-20
50644488824,17,3,0,14,-11,-4,1,12
50644488824,-2,-3,2,5,3,-3,1,-9
50644503717,-3,3,4,19,2,0,-12,-25
50644503717,-54,-10,-18,-21,-5,-5,-9,25
50644511924,-4,-6,-10,7,4,-2,-35,-13
50644511924,41,19,23,-2,-2,2,1,5
50644518767,-93,-12,-39,-10,6,0,-4,-3
50644518767,-40,-6,1,13,-8,-2,2,6
50644534558,40,9,-11,0,-1,0,31,-16
50644534558,-22,-8,9,-18,3,-2,-16,-5
50644541374,17,2,19,7,-4,-7,10,-4
50644541374,20,-1,-16,-30,-15,-2,2,-8
50644556999,-9,-8,-8,17,0,0,20,6
50644556999,24,4,0,-7,4,6,19,6
50644563834,-26,-14,-14,-10,6,3,-12,8
50644563834,38,13,-3,-13,0,-1,66,-15
50644580098,-43,3,0,12,0,-1,-11,-3
50644580098,2,-1,2,1,8,-4,-16,-16
50644581690,11,-5,-3,-11,-14,-2,-2,6
50644581690,13,7,3,-4,-6,0,-11,-5
50644594505,-27,0,7,-10,8,-3,-11,7
50644594505,-22,-7,-13,-7,2,-2,7,35
50644601218,45,-1,52,30,-7,1,21,28
50644601218,-15,-17,-17,40,5,1,21,12
50644617062,30,-3,3,-25,3,5,18,14
50644617062,-20,-19,-2,-39,-8,-4,-57,-21
50644623829,21,10,-2,0,5,3,13,17
50644623829,-14,1,8,6,10,4,-8,-3
50644640170,14,-9,-1,-2,-9,-4,-17,-18
50644640170,12,14,-4,30,-1,-5,-9,-12
50644641672,-24,-19,-10,-18,-2,-1,10,9
50644641672,-51,5,13,22,0,-2,7,-16
50644654459,-40,-11,-34,-12,-2,0,-21,51
50644654459,6,13,32,29,-11,0,7,-9
50644661343,0,3,-11,-13,0,-4,-17,-9
50644661343,-13,-15,-10,-5,-3,-4,4,5
50644677012,13,6,35,-1,0,-2,5,-6
50644677012,33,8,-10,1,-1,4,44,16
50644683813,51,2,-17,-2,1,0,-9,5
50644683813,27,1,44,8,-3,-5,-6,-14
50644700182,-35,-8,-19,-27,-6,-5,-25,-23
50644700182,31,-4,-10,-17,-8,-2,10,18
50644701707,37,16,4,4,8,2,-1,0
50644701707,6,4,-26,-17,-3,-1,-20,-3
50644714576,-34,11,5,10,3,1,15,-12
50644714576,-2,-4,2,7,-2,-1,23,27
50644721377,-44,-15,-15,-28,-1,-2,4,-37
50644721377,5,8,5,1,-2,-2,-25,2
50644737064,27,-13,1,16,-7,-7,-15,-19
50644737064,-28,-3,-4,-10,4,1,23,7
50644751450,6,14,-3,21,0,3,-15,20
50644751450,71,7,1,-7,8,6,1,-3
50644760210,18,5,-1,1,-2,0,2,15
50644760210,-23,-10,-4,-7,-5,-6,7,-33
50644761694,24,14,-6,-29,6,1,6,13
50644761694,-23,-3,27,55,-4,-1,15,-23
50644774516,-7,-6,-6,-19,-5,-2,0,-8
50644774516,-1,-13,-12,1,3,0,-5,-11
50644781292,0,1,11,4,-4,-4,4,-3
50644781292,-60,-17,-9,-22,2,-4,-25,-19
50644797088,67,15,-6,5,2,4,-11,13
50644797088,-2,-12,15,14,-1,1,-19,-22
50644803767,-16,0,-1,-3,0,-1,-15,-35
50644803767,12,8,-13,-18,-1,1,-3,43
50644820246,-4,-12,4,11,-3,-2,35,-5
50644820246,-21,6,-11,-8,-1,-2,-24,-18
50644821724,0,-2,1,7,-1,1,12,24
50644821724,-24,-9,-6,-9,0,-3,3,-11
50644834551,-10,-7,-1,3,1,0,-8,-13
50644834551,2,3,0,-3,0,-2,-11,16
50644841349,1,14,-6,5,-2,3,7,0
50644841349,26,-4,-10,-8,0,-1,-10,3
50644857047,5,-1,2,-7,0,-3,-13,-1
50644857047,-20,1,-3,-2,-3,-4,-36,-10
50644863770,23,-3,-2,9,-2,-3,-7,-9
50644863770,91,8,-10,-9,-2,-2,-17,6
50644880224,-45,-3,-9,6,3,2,-16,14
50644880224,32,13,22,1,3,0,-8,-9
50644881676,-32,-20,-3,-8,-15,-9,-3,-16
50644881676,6,5,5,-8,2,2,-4,5
50644895838,18,-1,-19,-2,-5,-4,1,3
50644895838,9,-13,-13,4,4,2,46,7
50644901537,-18,-6,3,4,2,-1,29,11
50644901537,-46,-1,-9,-7,-4,-3,11,-10
50644917064,23,-8,20,8,5,3,-2,-2
50644917064,-54,-8,-13,-6,-3,2,-4,5
50644923865,-1,-1,-3,-4,-5,-7,-2,-30
50644923865,-24,-4,1,-2,-1,-4,3,-11
50644940226,10,14,10,1,2,-1,4,4
50644940226,17,-2,-9,2,0,1,-11,-7
50644941718,-29,-3,8,4,1,2,-9,12
50644941718,8,1,-8,-6,-5,-4,-6,-5
50644954475,20,-2,6,0,2,3,-12,-28
50644954475,11,-4,-3,-1,-3,-2,-5,-5
50644961347,40,10,-1,3,1,-1,-28,-14
50644961347,-67,-23,-1,0,1,3,40,15
50644976901,-51,3,-13,1,1,2,-11,-12
50644976901,58,-2,10,-6,-12,-8,69,30
50644983714,0,-5,4,7,2,0,-1,9
50644983714,24,2,-1,-7,-3,-4,-20,-36
50645000254,-8,1,-5,-1,0,0,10,12
50645000254,-38,3,-7,3,1,3,-21,8
50645001897,6,-2,13,-2,-2,-3,-20,-7
50645001897,10,-7,-3,0,1,-1,1,20
50645014541,8,4,0,-2,-2,-2,2,-6
50645014541,-54,-2,-7,2,2,1,-12,-5
50645021352,-3,12,-6,-7,-6,-1,15,17
50645021352,-22,-8,-2,5,0,-1,-29,-13
50645036913,12,1,1,-7,-4,-4,20,-3
50645036913,24,6,3,6,2,0,-7,-9
50645043901,2,-11,-1,-10,-1,-1,5,5
50645043901,-64,15,-6,0,-3,-4,-32,-20
50645060312,0,-5,-2,-1,-1,-2,4,22
50645060312,9,4,3,-2,0,1,5,29
50645061737,7,-11,-7,4,-1,0,-3,-16
50645061737,20,-2,-8,-7,-2,-2,28,-11
50645074584,17,-4,5,2,2,-3,-14,11
50645074584,-18,1,-5,-1,-1,1,-8,1
50645081391,99,8,0,-2,-1,1,-3,1
50645081391,15,3,6,-3,-1,0,-4,21
50645097687,-24,0,-6,0,-1,-1,-1,-12
50645097687,2,10,-6,-5,-5,-3,-10,-10
50645103849,-37,-16,-3,2,2,1,42,3
50645103849,-28,-6,3,3,2,2,6,27
50645120762,39,9,5,0,0,2,-17,-10
50645120762,-4,4,-9,-6,-3,-5,6,8
50645121635,-8,-2,-5,1,1,-3,-15,-2
50645121635,57,10,-7,-3,-1,0,26,5
50645135227,-74,-1,24,7,1,2,17,8
50645135227,-8,-14,-7,-14,-8,-4,-17,-22
50645141320,-24,-2,-6,0,-2,-1,-4,-3
50645141320,13,-2,3,3,2,1,1,2
50645157657,27,2,-4,-2,0,0,-6,11
50645157657,4,1,14,6,1,2,-21,-43
50645163902,-24,3,-2,-1,-1,-3,-25,0
50645163902,26,3,-5,-6,-5,-4,5,-24
50645179437,-5,-5,14,3,-1,-3,-4,2
50645179437,7,-11,4,0,3,0,-9,8
50645180319,8,23,-10,1,3,5,19,24
50645180319,-5,-4,11,1,-4,-2,-18,-9
50645203302,-1,-1,-1,-4,-5,-6,2,-19
50645203302,4,0,-11,1,2,1,9,8
50645204162,-14,-6,6,0,0,1,1,0
50645204162,10,2,0,1,2,0,-2,9
50645217672,-15,-11,-15,-4,-2,1,10,19
50645217672,15,-5,-2,-3,-3,-2,-7,-11
50645223912,-97,-9,-7,1,-2,-5,0,-1
50645223912,3,3,2,0,0,0,-10,-5
50645239401,7,-8,-3,-4,-4,0,-12,0
50645239401,-42,-2,-6,5,2,2,23,14
50645240283,19,-4,2,-5,-2,0,36,-19
50645240283,-1,-1,7,-4,-4,-3,-10,2
50645255168,-1,-6,-20,-4,-1,-2,4,-8
50645255168,-10,0,10,1,-1,-1,3,9
50645261187,15,6,0,2,1,-1,-10,-2
50645261187,-20,-6,1,2,2,3,-4,6
50645277735,46,14,-4,-6,-4,-3,-2,-13
50645277735,-14,2,-24,-5,-2,-3,-11,-11
50645283780,22,-4,29,-1,-2,-3,-9,2
50645283780,-12,-11,-15,-4,-4,-4,6,22
50645299351,10,0,-4,0,0,0,6,-3
50645299351,-1,-2,10,4,3,5,2,6
50645300347,10,-2,-9,0,-1,0,-4,6
50645300347,21,10,2,-4,-4,-4,0,-7
50645315196,1,-5,-2,-1,2,-1,-13,2
50645315196,21,4,4,1,-3,-1,0,18
50645321334,-17,1,-1,2,2,2,40,7
50645321334,27,1,-1,3,1,0,14,-4
50645337656,-5,6,8,-4,-5,-5,-18,-8
50645337656,-3,-2,-1,-1,2,-1,-15,5
50645343816,14,-9,0,-1,-1,-2,-17,-1
50645343816,3,6,-6,3,2,2,-9,-5
50645359513,11,-7,-4,-2,1,-1,17,-10
50645359513,31,-5,-3,-4,-2,-5,-2,1
50645360283,-7,5,-1,3,2,1,-7,9
50645360283,9,5,20,3,3,3,9,4
50645375188,-17,-2,-24,-6,-4,-3,-21,-7
50645375188,-20,-6,14,-1,-3,-1,2,2
50645381409,14,-6,-9,0,-1,-2,-12,7
50645381409,-23,-3,-4,-2,2,1,6,3
50645397701,9,10,19,6,2,5,10,13
50645397701,-9,2,-30,-10,-4,-5,-17,-22
50645403779,53,-8,-3,-2,-2,0,-3,-10
50645403779,-38,-2,10,5,0,-1,-19,-5
50645418763,1,4,-4,1,0,-2,19,3
50645418763,10,2,2,0,-1,1,-2,-1
50645426388,-3,-2,-5,-2,-1,-2,-8,-7
50645426388,-16,-7,-13,-5,-2,-1,1,3
50645435134,-77,-10,10,3,1,2,-17,-6
50645435134,42,-3,-5,-1,-1,-2,-3,-2
50645441370,-23,-5,11,1,-1,-2,-9,-5
50645441370,12,-6,-20,-4,-2,-2,2,-2
50645456165,13,3,2,-1,-2,-2,-1,-6
50645456165,-13,2,6,1,0,0,14,-1
50645463700,-63,-15,-24,-1,2,3,6,6
50645463700,26,-3,27,8,-2,2,-3,15
50645480112,7,-6,-3,-3,-4,-4,-1,-17
50645480112,-20,-3,-1,-2,-3,-5,1,-12
50645486218,3,5,0,1,1,-2,-13,8
50645486218,-3,0,-5,1,0,2,-6,-27
50645495154,53,0,-5,2,0,-1,20,32
50645495154,-36,-5,4,-1,4,3,-6,-14
50645501384,-2,5,-1,-3,-4,-2,0,-3
50645501384,-1,-6,-5,-8,-6,-6,-11,-6
50645516403,0,-11,2,-2,-4,-4,6,1
50645516403,20,2,-2,2,-1,-2,-4,-14
50645523869,-11,4,3,3,1,0,-3,-1
50645523869,18,-1,-8,-5,-1,-3,-6,11
50645538802,-8,-2,-1,0,1,0,-39,-9
50645538802,-17,3,4,3,1,4,21,11
50645546282,7,0,2,-5,-2,-2,-9,-6
50645546282,5,2,0,0,2,2,25,14
50645555198,-24,-4,-3,-2,-1,1,-4,0
50645555198,7,-4,1,-2,-2,-3,-7,-15
50645561256,12,5,1,1,-3,-4,-1,-7
50645561256,3,1,-24,-4,0,0,-3,7
50645576397,33,14,15,3,2,2,13,-2
50645576397,-49,7,18,-1,-2,0,5,12
50645583851,-10,-6,-5,3,-2,-3,1,-16
50645583851,-9,-6,-7,-8,-4,-5,-9,32
50645598896,-9,1,6,5,1,1,-1,-5
50645598896,58,-6,-32,-13,-2,-1,1,6
50645606390,-32,7,-1,-2,-2,0,-5,8
50645606390,-89,-10,-2,4,2,2,-20,-7
50645622073,10,-19,11,-3,-3,-1,8,9
50645622073,-10,-6,-2,0,-1,-1,0,12
50645622626,36,2,10,0,-1,0,-1,4
50645622626,6,-2,0,-1,-2,-4,-2,-17
50645636369,-23,6,-11,-2,-1,-3,-4,-21
50645636369,4,-8,-2,0,-1,-2,1,1
50645643889,9,2,-3,-2,-2,-3,4,-7
50645643889,-10,-2,6,2,0,2,13,1
50645658782,-13,3,-11,-2,-1,0,0,0
50645658782,17,6,5,1,-1,1,1,0
50645666178,-9,-5,-2,-1,0,-2,1,-11
50645666178,8,-2,5,-1,-2,-2,0,-11
50645681975,17,13,-2,0,1,1,1,-7
50645681975,-12,-5,-2,-2,-2,-1,2,17
50645682670,-84,-15,1,3,-3,-1,17,-2
50645682670,37,5,-3,-5,-4,-5,-3,-18
50645696370,-13,-8,-5,-2,1,-3,-4,0
50645696370,-14,-4,7,2,1,2,4,0
50645703882,60,-2,-5,-1,0,2,-7,22
50645703882,-76,4,2,3,6,3,-3,-8
50645718789,36,9,2,2,-4,-3,-1,-9
50645718789,6,4,-2,1,0,1,-10,-7
50645726390,13,-4,-11,-7,-5,-3,-9,5
50645726390,16,1,7,1,-1,-3,12,-10
50645741984,17,1,-10,-3,-1,-1,4,1
50645741984,-4,0,6,6,1,1,-2,4
50645742675,2,-1,-1,-6,-1,3,-5,-5
50645742675,15,6,-2,-1,-2,1,3,2
50645756382,-3,-8,-1,-2,-1,0,5,-12
50645756382,14,0,-1,1,-1,-1,-8,5
50645763910,2,11,4,-2,-3,-2,16,-11
50645763910,14,2,-5,-5,-4,-3,-22,0
50645778867,-4,-3,3,1,1,1,12,15
50645778867,2,6,-12,-3,-1,0,-3,9
50645786342,-2,-1,19,7,5,2,-13,-16
50645786342,7,-3,13,-2,-3,0,-8,6
50645801844,36,9,-4,-3,0,0,-14,9
50645801844,-36,-11,-11,-6,-1,-4,4,-19
50645802648,-9,-4,4,4,1,-1,-5,-6
50645802648,17,11,-5,2,-1,-4,8,-21
50645816392,-4,-8,4,-1,-1,0,-10,15
50645816392,11,0,1,-1,0,2,7,3
50645823864,-8,-10,-10,-5,-3,-3,-11,-11
50645823864,2,-5,1,2,-1,-2,-2,-7
50645838784,-24,10,-9,-7,-1,-1,12,1
50645838784,48,5,1,-2,-2,-1,-13,-7
50645846227,-67,1,-7,-4,-2,-2,-3,-16
50645846227,19,-4,4,6,-1,1,2,7
50645862000,-1,-1,-3,-2,0,-1,5,3
50645862000,-7,-4,4,-4,-4,-3,-8,-1
50645862625,31,11,-6,-2,-3,-2,-28,-4
50645862625,-5,-18,0,1,2,-1,1,9
50645876340,-18,0,1,-1,-2,-2,-7,-8
50645876340,-11,3,2,1,2,0,4,7
50645883833,61,8,-2,-1,2,1,6,11
50645883833,-20,-2,-5,-2,1,-1,-9,-8
50645898842,-9,-16,-4,-3,-3,-3,-9,-17
50645898842,14,8,4,2,-2,-2,3,3
50645906304,2,4,2,-1,0,-2,2,8
50645906304,4,-3,-4,-3,-1,-2,11,4
50645922001,30,9,1,-5,2,1,4,-17
50645922001,13,-6,1,0,3,0,-2,12
50645922614,-20,-7,-5,4,-6,-1,-3,10
50645922614,28,7,-4,2,0,0,22,-4
50645936315,-24,-8,-3,-19,-4,-1,-12,-5
50645936315,-18,-6,-5,-12,-4,-2,23,-8
50645943836,12,3,3,-2,0,1,0,5
50645943836,2,-1,-2,1,2,2,-11,-9
50645958763,65,3,-14,0,0,1,14,28
50645958763,-25,14,29,4,-4,-5,-31,-24
50645966349,-2,-8,-12,-5,2,0,-5,6
50645966349,-9,-3,1,1,-3,-2,-12,-9
50645982049,2,-6,-1,7,0,-1,6,6
50645982049,-8,-7,-5,0,-3,-2,-5,-1
50645982648,10,0,2,4,0,-2,8,-7
50645982648,2,3,-21,-2,1,2,-11,20
50645996385,-19,-1,57,7,-4,-2,-12,-2
50645996385,-7,-15,-46,-10,-2,-3,0,2
50646003838,-2,1,22,-4,-3,-2,4,13
50646003838,7,0,2,1,2,-1,-32,-12
50646018860,-25,-4,-25,1,1,3,40,29
50646018860,16,10,10,6,1,2,12,10
50646026421,-13,-3,-7,-2,-1,-1,18,-24
50646026421,10,-1,0,-7,-1,0,-8,1
50646042022,-15,3,11,5,-1,-3,-31,-16
50646042022,-2,-3,3,1,0,1,1,0
50646042678,0,-3,-11,-4,0,0,-2,4
50646042678,-5,0,6,-1,-4,-4,12,-1
50646056337,-18,-2,-9,1,2,0,3,5
50646056337,11,-2,-11,-1,1,1,0,4
50646063938,-70,-11,12,2,2,1,4,2
50646063938,-49,9,0,-3,-3,-2,12,5
50646078889,0,-18,0,0,-3,-2,-15,12
50646078889,10,-3,-4,-1,-3,-4,-4,-10
50646086350,14,15,4,2,2,0,-42,-5
50646086350,11,-6,-2,-2,2,1,25,-5
50646101831,-13,1,-8,1,-1,-1,-4,-5
50646101831,2,17,10,1,0,-1,4,0
50646102633,28,-10,-18,-8,-2,-2,-6,1
50646102633,11,8,6,2,0,-3,-6,16
50646116352,-1,8,-8,0,1,3,-6,-11
50646116352,-1,-11,3,3,-1,1,24,8
50646123702,4,3,-9,-2,-3,-1,3,-10
50646123702,12,4,-2,-4,-4,-3,-2,-14
50646140158,-22,-5,0,1,-2,-3,9,-16
50646140158,-28,-6,12,1,2,3,-12,8
50646146407,25,-13,-3,1,0,0,11,16
50646146407,1,-1,6,1,0,-1,6,-4
50646162010,-7,-3,-14,-4,0,-1,-7,-4
50646162010,5,-1,23,2,-1,-2,-2,-13
50646162612,9,2,-3,0,1,2,5,0
50646162612,5,-7,-2,-1,0,-1,-29,5
50646176440,-2,4,0,-1,0,-3,4,-10
50646176440,-4,-9,-33,-1,-1,0,27,-3
50646191907,5,21,58,3,-2,0,13,3
50646191907,-11,-4,-5,-3,-2,-2,-9,-9
50646198802,27,11,-17,-5,0,0,-1,0
50646198802,-79,-38,33,7,5,5,-5,-9
50646206340,23,8,1,1,-4,-4,-2,26
50646206340,2,-1,0,0,0,-1,20,-11
50646222032,1,-5,11,2,1,1,-22,3
50646222032,43,11,-13,-4,-2,-3,-10,10
50646222614,18,-6,-7,2,2,2,14,-16
50646222614,3,-7,17,-2,-1,1,28,18
50646236356,-13,-4,-7,-2,-3,-3,6,1
50646236356,27,8,-23,-5,-3,-1,-14,-3
50646243834,-21,-17,4,4,1,1,1,3
50646243834,4,7,-16,-5,-4,-2,-3,6
50646258844,6,-12,3,1,0,-1,-7,-18
50646258844,2,13,-3,-2,0,-3,-8,-3
50646266335,-20,-11,-26,-2,-2,-1,-3,-6
50646266335,16,12,12,-2,0,1,2,10
50646282017,-15,-7,-3,-4,-5,-4,-13,-12
50646282017,21,7,13,1,0,-2,-28,-5
50646282660,-6,-14,-8,0,0,0,11,28
50646282660,19,5,18,1,-5,-4,-24,-19
50646296344,-10,-1,-10,0,1,1,10,12
50646296344,-9,-5,-3,0,0,2,-6,-1
50646303835,37,-2,-18,-11,-3,-2,-5,2
50646303835,13,-9,3,2,0,-1,-1,3
50646318880,-64,14,10,-1,-1,-3,-4,-13
50646318880,-7,4,-8,0,0,-3,0,-4
50646326271,25,-7,4,0,1,1,0,-5
50646326271,-21,-6,-13,-9,-5,-4,-5,-10
50646341358,22,1,0,1,-2,-2,-6,-9
50646341358,10,14,-6,-3,-2,-1,5,17
50646349465,-48,1,-9,-3,0,0,-4,-19
50646349465,-16,-5,-8,1,0,1,3,5
50646356287,42,-5,0,0,-1,0,1,11
50646356287,-53,2,-12,-3,-2,-3,12,-2
50646363768,16,15,24,2,0,0,-41,-6
50646363768,-12,1,-7,-4,0,1,2,-1
50646378738,-8,-1,-9,-4,-4,-5,1,-6
50646378738,11,2,-16,-2,-3,-2,11,12
50646386255,-10,-2,-4,-2,-4,-4,1,-12
50646386255,13,-3,26,8,1,-1,0,-8
50646401268,5,-12,-44,-11,-2,1,-8,23
50646401268,46,15,-9,-1,-4,0,1,-8
50646409581,-78,-10,2,-1,-3,-4,4,-10
50646409581,-4,3,-6,0,2,3,-1,-1
50646416174,40,3,15,2,-4,-2,3,-27
50646416174,2,-4,10,-1,0,-2,4,-13
50646423910,35,10,-17,-5,-3,-3,19,-10
50646423910,-10,-17,1,-2,-1,-2,-20,7
50646438876,-46,-2,7,5,1,0,7,-8
50646438876,-1,-9,-4,-7,0,-2,-8,-15
50646446339,33,-1,9,3,2,0,6,9
50646446339,25,21,-4,-2,-5,-4,-12,10
50646461396,27,2,22,4,3,1,14,11
50646461396,2,-9,8,-3,-2,-1,2,5
50646469507,-27,4,-4,-1,1,-1,-15,-4
50646469507,-3,-21,-15,-3,-4,-2,7,-17
50646476293,10,20,2,1,-4,-2,-7,-5
50646476293,-14,-2,37,-1,-1,2,17,9
50646483705,-56,-3,-3,0,2,1,0,-15
50646483705,18,-1,-12,-1,4,3,-4,25
50646498903,-68,0,14,3,0,-1,59,-1
50646498903,33,-7,-29,-6,-3,-3,-19,1
50646506137,18,-13,3,2,-6,-2,-11,15
50646506137,-15,7,28,2,0,0,22,-12
50646521337,23,-14,-2,0,3,1,-20,8
50646521337,-38,-3,-1,0,-3,-3,12,1
50646529514,-5,-2,-14,2,2,0,-1,-10
50646529514,7,-4,-7,-4,-2,-2,0,17
50646544473,17,0,5,-2,-2,-3,1,10
50646544473,-15,-12,-5,2,0,-2,6,37
50646545063,45,23,-18,-5,-4,-4,0,-1
50646545063,-20,0,32,2,2,1,-34,-15
50646558824,14,7,12,-2,1,0,1,12
50646558824,15,-16,-37,0,0,2,2,-6
50646566305,-68,8,1,-2,-2,-3,-8,-42
50646566305,48,6,-9,-2,2,1,-3,11
50646581358,8,-8,-6,-3,-3,-2,-2,-17
50646581358,16,7,15,4,0,-3,11,21
50646589496,30,5,1,0,0,2,2,16
50646589496,-19,-9,-7,-4,-1,0,0,-26
50646604345,-2,-1,36,12,1,1,-13,-11
50646604345,-4,-7,0,-6,-5,-2,-23,-26
50646605237,11,5,13,4,-3,-3,2,-17
50646605237,-6,0,-36,-4,0,1,14,9
50646618716,6,-6,-6,-10,-6,-5,3,5
50646618716,-22,12,-3,3,3,-1,7,-12
50646626236,3,-3,-5,-1,-1,-1,8,5
50646626236,-23,-8,-2,-3,-1,-1,-6,22
50646641434,71,18,-2,-1,-1,2,-2,10
50646641434,-72,7,8,-4,-7,-3,-21,-26
50646649490,-5,4,5,-3,0,-2,4,23
50646649490,-10,-14,16,6,1,-1,-3,-9
50646664426,15,20,-21,-5,-2,-5,-17,-15
50646664426,61,1,-17,0,-1,1,-17,3
50646665144,-74,-21,14,3,0,3,16,-5
50646665144,-3,4,-18,2,-1,-3,-16,-8
50646678777,-29,-8,-7,-4,1,1,7,-7
50646678777,13,-5,19,6,4,0,14,21
50646694526,13,-7,-5,-5,-1,0,-18,-1
50646694526,-1,-14,3,3,2,2,9,-3
50646701150,-47,-21,38,-5,-2,-2,-9,-1
50646701150,4,3,-22,-3,0,0,-3,-15
50646709496,71,0,-1,2,2,3,26,14
50646709496,-47,3,8,-4,-5,-4,-20,-16
50646724429,5,-3,-27,0,-4,-2,25,16
50646724429,30,-8,14,-3,0,0,-1,2
50646725149,-74,-1,0,-2,-4,-4,-4,3
50646725149,37,4,-30,-9,-3,-3,-1,-3
50646746995,-11,-4,51,4,3,2,13,19
50646746995,-6,4,-10,-8,-7,-5,-1,-18
50646747675,12,-8,-49,-6,-2,-1,0,11
50646747675,20,-1,-5,-1,-4,0,24,6
50646761386,-26,-15,-20,0,1,0,-21,0
50646761386,-1,4,27,0,0,0,15,-2
50646769512,30,12,37,0,-1,-1,2,5
50646769512,-15,3,-13,-3,-4,-2,27,5
50646784376,42,9,-8,2,-1,0,-19,-5
50646784376,-43,7,-3,-3,3,0,-13,-12
50646785183,57,-3,-7,-1,-3,-1,-10,-7
50646785183,41,9,-20,0,0,0,19,1
50646798869,-97,-8,26,3,-3,-1,-10,-1
50646798869,15,-6,-5,-2,0,0,37,7
50646806370,43,2,-5,-5,-3,-4,-1,-2
50646806370,-33,-3,15,-4,-3,-2,-4,24
50646821131,17,4,-30,-2,-2,-2,-2,-8
50646821131,-15,-1,10,6,3,4,-6,4
50646829338,-20,-10,-9,-2,-2,-3,3,-2
50646829338,21,-4,14,4,1,-1,-6,-13
50646844440,-3,-2,-22,-8,-4,-4,-10,-10
50646844440,-6,0,12,5,-2,-2,-6,22
50646845114,-16,-10,-48,0,-1,0,-6,-5
50646845114,17,8,-9,-3,2,2,-8,-7
50646858834,36,3,1,3,0,3,-1,6
50646858834,-73,-8,11,3,-3,-5,-16,-15
50646866331,1,-6,29,7,2,2,3,9
50646866331,-2,11,-18,-4,-2,-4,-25,-4
50646881408,30,1,-6,-1,1,2,34,25
50646881408,26,-5,0,2,1,0,-14,2
50646889539,-32,-3,22,-10,-5,-8,-40,-29
50646889539,-15,14,6,-2,-2,-3,-4,-14
50646904535,11,-3,16,2,1,4,-9,-4
50646904535,4,-2,-22,-2,-2,-1,-5,5
50646905085,1,2,6,0,3,2,2,-17
50646905085,-4,-14,-6,-1,-3,-3,14,1
50646918872,-3,1,-15,-6,-3,-2,-7,-2
50646918872,19,-4,32,3,-2,-1,19,-25
50646926373,-12,0,-54,-13,-1,-2,-20,-2
50646926373,-11,-2,12,8,1,1,7,0
50646941203,-13,-6,11,-5,-1,-3,13,-2
50646941203,27,-2,-22,-6,-3,-2,-18,6
50646949479,-35,-9,30,7,-2,-3,-7,-3
50646949479,-7,3,-6,0,0,4,-2,1
50646964468,9,-22,-49,-5,0,-1,-9,0
50646964468,16,-5,10,-2,-5,-3,4,-23
50646965035,13,1,6,4,6,2,-1,7
50646965035,-7,6,3,2,-1,0,5,0
50646978827,-2,5,-17,5,-1,1,1,13
50646978827,-10,2,-13,-18,-5,-3,-11,3
50646986177,27,4,49,9,2,2,9,13
50646986177,-2,-14,-21,-2,-1,-1,3,-4
50647001391,-4,-4,1,4,4,-2,-6,-16
50647001391,-40,-2,-1,5,2,2,-15,5
50647009460,-1,-2,-3,-10,-8,-4,-4,20
50647009460,4,0,20,2,2,1,10,1
50647024464,7,2,36,-3,-2,-3,-16,-4
50647024464,0,-1,-25,-2,1,2,24,21
50647025044,1,-4,-7,-2,-2,-2,7,-10
50647025044,-16,-1,2,-4,-3,-6,-26,-12
50647038828,-12,3,4,-2,0,-2,1,-3
50647038828,-27,-6,14,4,3,1,3,-1
50647046313,11,14,-27,-1,1,2,5,7
50647046313,-5,-12,5,-2,-1,0,10,3
50647061331,30,-3,-5,-2,-4,-5,-4,0
50647061331,-64,4,-1,-1,-3,-3,-23,-15
50647069399,0,-5,-20,-2,-2,1,26,9
50647069399,-14,7,14,-1,-3,-4,4,-12
50647084479,31,10,21,-1,2,3,0,3
50647084479,3,-14,-10,-3,-2,-1,-1,9
50647085111,-4,6,2,-1,0,-1,-6,-6
50647085111,-2,-4,-13,-2,-1,-2,1,-1
50647098846,-20,1,-8,-1,-3,-2,5,-16
50647098846,60,6,0,0,-2,-1,11,-1
50647106303,-6,1,6,1,-1,3,7,13
50647106303,15,-2,-1,-1,0,0,3,-1
50647121507,-41,-1,-13,-2,-4,-4,-8,-1
50647121507,72,-1,-6,-2,-1,-1,-13,-4
50647129493,3,-3,2,1,-1,-1,-7,-3
50647129493,0,-6,13,3,2,0,-48,-16
50647144523,-17,-2,-9,-4,-3,0,14,17
50647144523,-5,2,4,-1,-2,-2,5,-7
50647145101,-1,-5,-5,0,-1,-1,-2,-5
50647145101,9,-10,5,-1,1,1,-4,-11
50647158885,-8,5,32,14,3,1,1,7
50647158885,1,3,10,-16,-4,-2,9,6
50647166378,2,-19,14,4,-1,-1,-9,-16
50647166378,-9,3,-4,-1,-2,-4,-4,-1
50647181388,20,-5,-22,-3,0,-1,-23,-21
50647181388,-58,-6,22,6,1,2,11,27
50647189334,-5,7,25,1,1,-1,11,-7
50647189334,0,-6,-1,-3,-3,-2,12,8
50647204576,5,-6,-36,-5,2,2,-15,-19
50647204576,30,25,1,0,-1,-2,12,-4
50647205088,8,-2,-6,-4,1,-3,-11,-4
50647205088,-16,-12,4,9,5,7,48,25
50647218803,-46,9,-6,-5,-2,1,6,13
50647218803,7,-4,-19,-10,-8,-7,-20,-15
50647226284,-7,-5,-9,0,-2,0,30,19
50647226284,36,16,0,1,1,2,4,14
50647241291,-7,16,-18,0,0,-1,2,-5
50647241291,-4,-4,26,5,2,1,-8,-11
50647249425,-2,4,-13,-6,-5,-3,-21,19
50647249425,9,5,-7,-5,-5,-7,-11,-31
50647264444,-48,6,11,1,3,0,-10,2
50647264444,21,-3,-15,3,-1,0,-8,9
50647265077,54,2,2,0,1,1,11,10
50647265077,-24,-6,-16,-5,-3,0,38,30
50647278846,12,-12,12,4,-2,-4,13,-8
50647278846,-14,-12,-8,-3,2,-3,-27,-5
50647286251,11,6,4,4,2,2,-34,-10
50647286251,-53,1,0,0,-1,3,-7,2
50647301350,8,-12,-7,-1,1,0,10,2
50647301350,7,-4,-11,-4,1,-1,13,3
50647309506,-13,4,2,-1,-2,-1,-7,-8
50647309506,5,-5,-8,-2,-12,-2,-13,-3
50647323706,27,8,11,-2,2,4,-13,-22
50647323706,-50,-14,7,7,5,4,-5,14
50647331932,48,-3,-7,-8,-4,-5,5,-14
50647331932,18,2,-33,-7,-7,-11,-64,-5
50647338858,4,-22,17,3,-5,-3,17,12
50647338858,3,6,-18,-3,-1,-2,6,-10
50647346288,3,11,5,1,0,0,17,-16
50647346288,-10,7,14,2,1,-2,-22,-17
50647361295,-9,-16,-45,-12,-6,-2,21,7
50647361295,42,5,27,6,2,0,-11,8
50647369465,-30,-4,-13,2,0,2,-9,0
50647369465,34,-2,9,2,0,-1,0,-16
50647383836,-7,-1,-2,-8,0,-4,-7,11
50647383836,-72,-2,3,3,-3,-2,-12,-25
50647392050,-12,0,-3,-2,0,0,8,11
50647392050,18,-4,10,1,3,1,6,4
50647398823,18,1,6,1,-4,-4,28,-1
50647398823,19,0,-5,3,1,4,4,2
50647406276,-17,-4,-2,0,3,-1,-4,-15
50647406276,-15,5,-7,-6,-8,-5,11,14
50647421307,31,14,9,-4,-1,-2,-25,-8
50647421307,-4,-8,-4,5,0,2,1,4
50647429558,-21,2,2,-1,2,0,12,19
50647429558,3,6,50,3,3,-1,12,15
50647443843,-45,-12,27,3,-5,0,7,-2
50647443843,36,0,-4,1,1,-3,-23,-27
50647451958,2,-2,0,0,-1,0,-9,-1
50647451958,-5,-3,-11,-3,2,1,6,10
50647466752,-7,6,31,5,1,2,-4,5
50647466752,-3,-10,-58,-8,0,-1,2,3
50647467588,-16,-4,8,-6,-8,-6,45,13
50647467588,18,2,-32,-2,0,1,-9,-48
50647481245,-46,-8,6,3,5,3,6,10
50647481245,57,2,13,2,-1,0,11,3
50647489353,-4,0,-8,-6,-7,-5,-12,-3
50647489353,9,-3,-7,6,4,2,-6,0
50647503736,2,7,-6,-8,-9,-4,-12,-7
50647503736,1,17,11,5,-2,-5,-13,-1
50647511929,-1,-7,-8,0,3,2,1,10
50647511929,-11,-8,11,0,-2,1,9,1
50647526860,30,4,-14,0,1,-1,-31,-16
50647526860,-16,-18,-8,-2,3,4,25,17
50647527756,33,1,16,-3,-5,-2,6,2
50647527756,-28,-6,-1,0,2,1,40,15
50647541107,19,4,-24,0,-2,-2,1,-10
50647541107,1,3,-7,-5,-5,-1,10,-1
50647549340,-9,-1,13,4,2,0,-17,-1
50647549340,4,-10,-8,-5,-1,0,11,3
50647563717,3,-1,-3,-1,-2,-3,-1,9
50647563717,-5,3,9,-1,-3,-2,-2,-6
50647571844,-20,-4,-20,0,1,0,-4,-28
50647571844,8,8,27,3,-1,-4,-18,12
50647586839,-23,-15,-6,-2,0,-2,-4,5
50647586839,0,11,13,-3,-3,-1,-4,-11
50647587649,-9,0,-13,-1,0,-2,-24,-7
50647587649,-4,-1,-10,-3,-2,-1,1,16
50647601069,9,-6,2,-2,1,-1,-13,-8
50647601069,33,1,1,5,-3,0,14,0
50647609408,-6,-6,5,-1,0,0,-15,-8
50647609408,3,-1,-1,0,0,0,1,-5
50647623665,-3,-5,-2,-6,-2,-1,-7,-1
50647623665,1,4,-17,-2,2,-1,-16,-1
50647631765,11,4,26,5,-4,-1,3,2
50647631765,-17,-16,-50,-6,-5,-7,-19,-16
50647646693,11,8,-15,-2,3,1,0,-3
50647646693,-4,4,-2,-5,-4,-1,6,4
50647647481,10,4,19,0,-3,0,1,-6
50647647481,-5,-2,-3,-4,0,-1,0,0
50647661044,-18,-4,21,2,-3,-9,0,-30
50647661044,29,-8,-2,-1,3,4,5,10
50647669252,-74,2,15,1,-1,-1,-12,7
50647669252,3,0,-7,-1,-4,-1,11,-2
50647683531,11,3,-6,1,-1,-3,-5,4
50647683531,-28,-13,8,-3,1,0,-3,0
50647691730,65,14,-11,1,1,0,1,-4
50647691730,-58,9,33,9,2,2,-8,3
50647706665,76,-4,8,-10,-8,-2,1,3
50647706665,-22,0,1,3,1,-2,4,-4
50647707483,1,-12,-20,-3,-1,-1,0,1
50647707483,-10,-3,8,-3,-1,-1,-4,-7
50647721014,-1,6,9,7,3,5,7,13
50647721014,-8,-3,-3,-3,-2,-2,3,-11
50647729238,-12,-8,-9,-2,-1,-4,-12,-14
50647729238,7,-8,-11,-7,-1,-1,-1,2
50647743510,-15,0,12,1,0,-1,5,-1
50647743510,4,1,14,2,-3,0,-13,-2
50647751773,-12,1,-19,-2,0,2,5,3
50647751773,2,-3,-2,1,2,1,1,16
50647766780,13,11,9,4,-1,2,7,5
50647766780,-12,-16,-19,-4,-2,-1,2,-5
50647767606,-4,-2,38,-1,-1,-2,0,-14
50647767606,10,-5,-26,-3,-5,-4,19,-18
50647781044,-24,-2,-4,3,1,1,11,15
50647781044,19,13,14,-1,-2,-3,-8,3
50647789307,13,1,-3,1,2,2,8,5
50647789307,26,-2,-23,-5,-5,-4,-13,-4
50647803628,-46,-11,-3,5,2,0,-7,0
50647803628,44,9,-4,-2,-2,-2,-4,-10
50647811759,-2,-7,-11,-5,-4,-5,7,23
50647811759,-9,7,25,5,1,-1,-5,-5
50647826759,16,-4,-39,-4,-2,-2,-1,-6
50647826759,-40,-6,7,2,1,2,7,12
50647827587,-3,-2,-6,-5,-5,-1,0,-7
50647827587,32,-1,10,2,-2,-3,-11,-7
50647841047,-14,-4,-7,-2,3,1,-6,16
50647841047,-3,6,9,-1,-3,-2,-6,19
50647849372,-11,-5,-16,-1,-2,-3,-1,-10
50647849372,11,-1,-9,-2,0,1,25,0
50647863728,46,4,19,1,-2,-5,-4,-6
50647863728,-37,0,-7,-3,-1,-2,-3,0
50647871826,9,0,0,-1,2,0,10,-2
50647871826,-9,6,9,7,2,2,-1,12
50647886816,-15,-11,-37,-9,-5,-3,-8,-6
50647886816,-2,-8,48,1,-4,-3,5,-5
50647887655,26,-8,-12,-2,0,-1,-7,11
50647887655,-2,8,12,3,3,2,-5,-1
50647901104,6,8,17,8,0,1,5,4
50647901104,-11,-4,-2,-4,-1,-3,2,-3
50647910094,-1,-6,-29,2,0,2,-5,-8
50647910094,4,-5,12,-1,-2,-1,-2,5
50647923764,-14,-6,2,-5,-2,-1,-3,0
50647923764,8,6,1,5,1,0,-2,-9
50647932605,-10,-1,0,-3,-2,-2,23,4
50647932605,6,1,4,0,0,0,0,-2
50647946227,-5,-2,-16,0,-2,-1,2,-5
50647946227,-80,-5,0,-2,1,-2,2,-11
50647955097,73,4,9,0,-1,-1,-12,-8
50647955097,-8,2,-12,-2,-2,1,7,17
50647961205,-14,-12,1,-3,-1,-1,1,-21
50647961205,10,-6,-23,-4,-1,-3,-3,-7
50647976212,-32,2,1,4,1,-1,-4,-5
50647976212,-1,-1,3,-5,-2,-4,-17,-19
50647983963,9,0,5,0,1,4,0,27
50647983963,10,10,-13,-1,-2,-1,-3,11
50647992598,0,0,-2,1,0,-4,-27,-12
50647992598,-6,-10,5,-3,-1,-3,15,-13
50648006124,-15,-1,-6,1,1,-1,-2,-7
50648006124,19,8,-4,0,1,0,-5,-14
50648015112,16,6,20,-5,-4,0,0,31
50648015112,-77,-1,-15,-4,-3,-2,-15,-5
50648021145,11,3,9,8,-1,-3,7,-2
50648021145,13,-7,-23,-10,-2,-1,-2,2
50648030079,3,-3,4,2,-1,-2,2,-4
50648030079,16,-5,4,-1,-1,-1,2,-7
50648043794,18,8,-10,1,0,2,-7,8
50648043794,-55,-10,42,6,0,1,15,4
50648052591,-5,-8,-66,-6,0,2,9,2
50648052591,12,-2,-5,-2,-1,-1,-13,13
50648066272,-12,-9,-7,-8,-3,-4,-15,-24
50648066272,20,0,11,7,0,-1,6,3
50648075038,-12,8,-4,4,1,0,6,-8
50648075038,-14,-5,28,-1,-1,-1,3,1
50648081316,39,10,7,-2,3,0,9,8
50648081316,10,-6,-26,-6,-3,-1,1,-3
50648090069,-37,-8,2,-1,-2,-2,-2,-23
50648090069,20,3,-13,1,-1,-2,1,14
50648103868,-7,4,11,-4,-2,-2,3,-1
50648103868,9,-1,-5,-2,0,0,-5,4
50648112630,-6,-1,7,-1,-1,0,-7,-1
50648112630,7,0,-3,6,1,0,-1,-4
50648126288,-12,-3,5,-11,-5,-1,-5,-4
50648126288,0,-1,-16,-3,-3,-4,13,-2
50648135082,-13,-1,3,5,0,0,-3,2
50648135082,11,2,-5,-10,-2,-4,-4,0
50648141264,-16,-2,-16,0,0,0,-4,-3
50648141264,12,0,19,4,0,-2,-4,-1
50648150050,-48,-10,-5,-4,1,2,6,17
50648150050,50,11,47,4,0,0,0,0
50648163660,-12,-8,-67,1,-4,-4,-5,-1
50648163660,6,-6,-17,-7,-2,1,-13,4
50648172734,3,-3,10,2,0,-2,0,-12
50648172734,20,19,-19,-1,-1,1,-4,-4
50648186061,-18,-10,13,-3,-2,2,34,20
50648186061,-3,-6,-8,3,4,1,-2,8
50648195088,3,4,17,-1,-5,-4,-8,-2
50648195088,-16,-1,-10,0,-2,2,3,-2
50648201271,12,11,29,1,3,1,4,-7
50648201271,-45,-13,-14,2,-2,-3,-16,-9
50648210048,-2,-11,2,-4,1,0,-1,-1
50648210048,-27,-5,-1,6,2,1,-7,4
50648223744,18,-6,11,-6,-5,-1,-9,-16
50648223744,-18,4,5,-2,-2,-1,9,0
50648232627,18,4,-10,-7,-1,-1,-3,-9
50648232627,-42,-10,18,7,-3,-5,-3,-8
50648246276,-9,0,-2,3,3,-1,-6,6
50648246276,24,5,-4,-1,1,-1,-2,-18
50648255061,11,2,-3,-7,-5,-3,3,4
50648255061,-11,-7,-8,0,-2,-1,-29,10
50648261208,16,4,-1,-1,-1,0,0,-11
50648261208,18,5,8,-1,-1,-2,-2,-6
50648270099,-33,-24,7,3,1,1,8,0
50648270099,18,-7,-9,-6,0,0,-7,-13
50648283796,-15,2,8,0,-4,-4,-9,4
50648283796,52,-5,-18,2,-2,1,-4,12
50648292657,8,7,17,0,0,-1,-11,-6
50648292657,8,3,-11,1,3,2,2,0
50648306254,-5,-10,-4,-6,-3,-3,-8,-17
50648306254,11,2,7,0,0,-1,4,-9
50648315059,12,8,-9,-2,0,-2,5,8
50648315059,-14,-5,3,-2,-3,-1,5,3
50648321281,64,3,-23,2,1,0,0,-5
50648321281,-40,-6,41,1,-5,-3,-11,0
50648330101,-7,1,-4,1,0,2,0,-11
50648330101,10,0,-14,-4,-3,-3,-10,-3
50648343787,2,4,0,1,1,3,22,15
50648343787,0,-4,-13,-5,-2,-1,-14,6
50648360039,9,15,2,-1,-1,-2,6,-4
50648360039,14,-3,-2,0,1,2,15,12
50648366861,-21,-1,8,0,0,-1,-22,-28
50648366861,-3,-4,9,-3,-3,-2,-7,-6
50648373729,-14,-8,1,0,-3,-2,-4,5
50648373729,5,5,-6,-2,1,1,-3,-5
50648381221,-6,6,7,2,0,-1,-2,0
50648381221,-6,-1,-8,0,0,-1,7,-2
50648390070,9,-2,-9,1,-1,0,-9,0
50648390070,-28,-9,-12,-8,-4,-5,-3,-1
50648403726,-9,2,28,0,1,0,11,1
50648403726,1,-2,-31,-2,1,0,0,11
50648412618,6,5,24,3,2,-1,3,5
50648412618,9,2,33,2,-5,-5,-11,-6
50648426911,-18,-4,-20,-4,-5,-5,11,2
50648426911,1,2,3,1,1,0,9,-2
50648433752,-5,-2,-5,1,2,0,-9,-10
50648433752,12,6,4,1,1,1,10,-22
50648450090,-12,-5,2,-4,-4,-1,-17,-1
50648450090,7,5,-1,-5,-3,-2,5,1
50648451532,1,-7,-19,-3,1,0,11,6
50648451532,1,-4,9,0,-2,-1,12,9
50648463806,8,0,-3,5,1,1,-4,-6
50648463806,-60,-11,-7,-1,-1,0,-2,-18
50648472621,-10,-1,-6,-2,-4,-2,-15,-11
50648472621,14,-5,-7,-3,0,-2,6,-8
50648486888,4,-3,-1,0,1,1,-2,5
50648486888,50,16,6,-2,0,0,-17,9
50648493772,5,-2,-3,-2,-2,-1,8,19
50648493772,-55,10,-6,3,-1,-2,12,11
50648510142,20,-4,-17,-11,0,-4,-11,-9
50648510142,17,3,20,4,-1,0,5,4
50648511616,-4,-5,1,-1,-1,-1,-2,2
50648511616,-8,-2,4,-3,-1,0,29,0
50648532529,5,-8,-43,8,1,-2,-5,8
50648532529,20,-2,-5,-16,-3,-2,3,-7
50648534025,-24,8,4,2,2,1,14,4
50648534025,-15,-12,-7,-1,-1,2,-7,-4
50648546921,-17,8,18,1,-3,-2,-2,-1
50648546921,-11,-5,5,2,-1,-3,1,-22
50648553817,16,2,-1,3,-2,-2,-7,-4
50648553817,30,5,-17,-7,2,0,-16,-2
50648570114,-37,-7,24,-1,-6,-1,-4,1
50648570114,0,-1,-4,5,0,-1,0,3
50648571681,-4,-2,-2,-1,2,-1,-8,-4
50648571681,-3,3,24,0,-3,-1,-7,-9
50648583730,4,-8,-73,-6,0,-1,-4,15
50648583730,1,-1,2,-4,-4,0,-1,4
50648592628,-13,-6,-12,-7,-5,-1,26,15
50648592628,-5,-14,-7,3,0,-1,38,-13
50648606977,65,20,25,3,5,4,-22,38
50648606977,-21,12,-25,2,-2,-5,-5,-10
50648613636,24,-4,-5,-1,0,0,-6,0
50648613636,-53,1,-5,3,-1,-2,-13,-2
50648629251,2,-4,3,-9,-3,-3,13,-9
50648629251,-8,-11,-6,-1,0,0,-3,10
50648637616,16,6,18,-1,-1,-1,-5,-10
50648637616,33,2,-20,0,1,-1,-17,-3
50648643773,-43,1,35,8,1,0,5,-5
50648643773,26,-6,7,-2,1,2,-5,2
50648652605,-18,0,5,-1,-1,-1,-6,-4
50648652605,25,-3,-12,-2,1,-4,-13,6
50648666953,-27,-4,12,-6,-4,-3,-5,-10
50648666953,-6,-4,6,1,0,1,24,-17
50648673701,-37,2,-6,0,-3,-1,-15,11
50648673701,12,-1,-7,-5,-3,-2,-7,6
50648689993,-15,-7,-3,2,2,0,11,-2
50648689993,-11,-4,10,3,0,0,5,0
50648691515,13,-1,-3,-1,2,0,-7,0
50648691515,29,2,5,3,-1,1,14,-13
50648703718,-98,-14,22,2,-3,-3,3,-3
50648703718,44,-12,-54,-7,2,-2,-15,-2
50648712491,-49,1,10,2,-2,-4,7,-6
50648712491,0,-9,15,-3,-6,-3,1,5
50648726823,42,9,5,-1,1,1,-2,-9
50648726823,-20,12,29,2,2,1,3,10
50648733656,68,0,-5,7,2,3,-2,1
50648733656,-35,-9,-14,-14,1,2,-10,-10
50648750075,14,-14,-2,-4,-5,-4,-5,-3
50648750075,9,4,20,3,0,-4,-3,-10
50648751819,6,-3,-15,-1,-3,-1,-3,-8
50648751819,2,4,-6,1,1,0,3,4
50648763750,20,2,2,1,1,2,4,-5
50648763750,-30,-7,-13,-5,-4,-1,-7,8
50648772615,20,2,24,-2,2,-1,-1,-8
50648772615,-20,-9,-49,-5,-3,-1,-4,-1
50648786922,-25,-5,9,4,3,-2,8,6
50648786922,40,9,-10,-3,-2,0,4,3
50648793577,-1,-3,-4,0,-2,1,-5,-4
50648793577,-68,3,20,-2,-2,-3,-26,-2
50648810602,-7,-2,-20,0,-2,-3,12,-3
50648810602,2,2,9,3,-1,-1,11,-12
50648812000,4,2,32,-7,-1,0,1,9
50648812000,24,-2,-65,-1,-1,-1,-11,0
50648823771,1,-6,23,0,-3,-1,-10,-2
50648823771,-30,0,-40,-15,1,0,-4,0
50648832520,-15,0,6,4,-2,0,4,0
50648832520,23,-1,23,3,2,1,9,15
50648846971,25,17,-10,1,-1,1,-9,5
50648846971,-7,-3,9,7,-2,-3,-4,-22
50648853749,-8,-3,-7,-2,-1,-2,-2,0
50648853749,42,6,9,0,1,2,3,4
50648870103,-5,4,31,3,2,1,2,-2
50648870103,10,-1,-22,-5,-1,0,-9,11
50648871631,15,-5,-18,-5,-1,-4,-1,2
50648871631,-25,-6,21,1,-4,-2,11,-3
50648883749,-67,-2,-18,-9,-3,-4,-5,-17
50648883749,3,0,8,3,-1,-1,-2,9
50648892604,-12,-8,-19,3,4,4,-13,-11
50648892604,22,5,11,-2,1,1,14,5
50648906914,20,2,3,-2,-2,0,-1,1
50648906914,-45,-9,4,-1,-1,-2,-7,-1
50648913789,36,6,-8,2,0,-2,-4,-5
50648913789,-1,-3,6,-3,-2,-3,0,-5
50648930003,2,-2,-15,-4,-3,-3,-10,-6
50648930003,-10,7,18,5,-3,-1,6,22
50648931552,39,-7,13,-5,-5,-2,6,-15
50648931552,30,7,1,0,1,0,-6,-7
50648943750,-3,-5,-30,-1,1,-2,-1,9
50648943750,-7,-3,8,0,1,1,10,-2
50648952538,-27,-4,-9,-5,1,-1,7,11
50648952538,9,1,11,1,-1,-1,-29,-4
50648966929,19,2,-3,2,1,2,15,5
50648966929,31,-3,-5,-2,-2,-2,8,4
50648973610,-109,3,-8,-2,-1,-2,-3,-13
50648973610,26,9,32,5,1,0,1,8
50648989966,39,10,3,-4,-2,1,-33,-5
50648989966,-13,-8,-11,-1,0,1,19,20
50648991480,8,-1,-4,-5,-2,-1,5,4
50648991480,-30,-3,-13,-7,-2,-4,-3,-7
50649003571,4,6,41,13,1,1,-5,5
50649003571,11,-3,11,1,-1,-2,-5,6
50649012627,65,9,6,1,0,-1,-5,-16
50649012627,-82,-22,-6,-3,1,1,0,0
50649026975,9,-5,-15,2,-1,-2,12,-21
50649026975,13,9,4,-4,1,1,-12,-6
50649033752,16,-4,1,-2,-3,1,5,-2
50649033752,19,0,-10,-1,1,-1,-12,-6
50649049918,-30,-7,-7,-5,-1,-2,4,0
50649049918,-27,-9,1,2,0,-1,-37,-11
50649051556,-21,-1,-12,0,-1,0,7,2
50649051556,78,-2,1,0,-6,-2,6,-3
50649063651,-23,8,-3,-3,1,-1,-7,21
50649063651,56,2,4,4,1,0,-2,1
50649072524,-19,-6,15,-7,-2,-1,0,2
50649072524,4,-6,-47,-4,-3,-1,1,6
50649086994,11,-1,-4,0,0,-1,4,-2
50649086994,-26,-7,-7,-3,-3,-3,5,-8
50649093642,29,7,4,5,1,1,-16,9
50649093642,-17,-3,11,3,-1,-2,19,0
50649110056,-35,-14,-22,-10,-3,-2,13,14
50649110056,28,11,17,5,-2,-3,-5,-25
50649111480,-1,-3,-5,3,0,-2,-1,6
50649111480,-20,-1,6,-1,0,1,-3,-2
50649123682,8,-5,-7,-2,0,1,-4,-4
50649123682,2,2,-2,-5,-3,0,29,2
50649132622,-11,-3,-1,1,-1,0,9,-1
50649132622,7,-6,-1,3,0,-1,-7,3
50649146831,61,9,19,2,1,2,-5,-4
50649146831,-2,5,4,2,-1,-1,0,5
50649153703,-26,-7,-6,-6,-3,-3,-7,-6
50649153703,-2,4,-13,1,1,0,19,-5
50649169379,18,-5,21,-6,-4,-3,-4,3
50649169379,-28,-5,-7,-4,-1,-1,-13,-5
50649176122,24,4,-4,1,-1,-1,11,7
50649176122,6,4,-10,2,1,1,-15,4
50649183808,-20,-3,8,-1,-4,-2,-14,-7
50649183808,-5,-2,-10,-4,-1,-2,-3,-5
50649192621,-37,1,13,2,1,0,3,12
50649192621,-1,5,-6,-3,-3,-2,-10,-8
50649206904,-4,-3,-7,3,0,2,14,15
50649206904,-13,0,10,1,0,0,10,14
50649213744,-19,-5,-15,1,-1,0,-22,-20
50649213744,-3,-6,15,-5,-4,-3,-5,4
50649229431,-33,-8,-17,-2,1,0,-3,-30
50649229431,15,1,-1,0,-1,-1,-10,6
50649236216,-9,-7,-3,-6,-2,-1,5,6
50649236216,-7,1,12,0,-1,-2,-3,0
50649243710,46,4,-6,3,2,0,-15,5
50649243710,-60,-13,-6,-4,-4,-3,10,-13
50649252535,21,-1,7,0,-2,-2,10,0
50649252535,-11,-2,-9,-5,-2,-2,-4,-11
50649266855,14,13,27,7,2,-1,-8,7
50649266855,24,6,-17,-1,-2,0,-8,-5
50649273557,-11,-5,-7,-6,-3,-1,-2,3
50649273557,-8,1,4,1,-1,-2,-1,-12
50649289469,-11,-7,-12,-3,-1,-2,20,8
50649289469,-22,-10,12,1,-1,-2,-9,8
50649296090,17,0,-5,0,-1,-2,11,0
50649296090,-25,-3,-6,-4,-3,0,0,-2
50649303554,26,6,6,2,3,0,3,0
50649303554,-57,3,-7,-1,-1,1,6,-13
50649312526,4,-5,-10,-4,-1,0,-20,-8
50649312526,4,-2,8,-3,-3,0,19,25
50649326917,7,-1,-9,-2,-1,-1,-1,-2
50649326917,13,-10,-13,-1,2,-1,-5,-15
50649333609,-8,2,0,2,-3,-4,-2,-7
50649333609,9,5,9,5,3,1,1,-1
50649349346,-26,-6,-21,-5,-1,-1,-23,2
50649349346,96,0,-6,-9,-6,-5,6,13
50649356109,-19,12,10,1,0,1,-3,-3
50649356109,-9,-2,22,-1,-4,-3,2,-3
50649372527,-3,-2,-34,-6,-3,-3,-7,-7
50649372527,4,4,9,4,2,3,-3,1
50649373988,23,7,14,4,0,-1,3,6
50649373988,-25,-10,11,-3,-2,-3,-12,1
50649386833,54,-4,4,-2,-2,-2,1,-22
50649386833,10,17,17,4,0,-1,8,11
50649393684,-23,-18,-7,-3,-1,-2,-3,7
50649393684,10,2,-19,2,1,2,2,13
50649409394,18,16,4,0,-2,-1,10,-10
50649409394,3,-5,-3,-3,-2,-3,-7,-12
50649416210,15,0,-18,0,1,1,-3,9
50649416210,10,2,12,3,1,1,-16,-17
50649432546,8,-9,-5,-2,-4,-2,31,24
50649432546,-55,-8,16,0,0,0,-2,7
50649434011,24,9,-11,-3,-2,-2,-3,-5
50649434011,-5,-2,2,-2,-1,-1,-1,-22
50649446903,-8,4,3,-1,-2,0,-5,-3
50649446903,-12,-7,5,1,-2,0,-5,2
50649453672,10,1,-5,-2,-3,-1,-3,-3
50649453672,27,10,21,7,3,2,3,15
50649469354,-10,-17,-10,-7,-3,-2,-9,-16
50649469354,-57,0,-5,-2,-1,-2,-1,-8
50649475995,21,-4,4,1,-3,-3,-1,7
50649475995,1,1,-4,-5,-2,-3,9,-4
50649492370,6,6,-5,0,1,1,3,3
50649492370,4,-5,13,-1,1,2,-11,-4
50649494023,17,-2,-2,-4,-3,-4,7,-2
50649494023,-23,-13,10,3,-1,-1,11,-7
50649506787,-17,3,2,-1,-2,-2,-3,0
50649506787,13,-7,-13,-1,-1,-1,-6,-7
50649513649,-14,4,11,2,0,0,-2,-3
50649513649,19,-3,-29,-5,1,1,5,26
50649529321,-8,3,13,0,-1,0,-7,-15
50649529321,2,-2,-27,-3,-4,-4,7,-7
50649536097,-22,-5,-1,-2,0,-1,-3,-14
50649536097,49,12,-3,0,-3,-1,-8,2
50649552451,-18,-14,5,-2,-1,-4,7,-10
50649552451,15,9,-4,1,2,3,-4,12
50649554015,10,-6,-2,-5,-4,-1,6,-7
50649554015,-54,-8,-1,-1,-4,-4,-11,-13
50649567519,-20,-2,4,1,1,0,1,0
50649567519,9,7,2,0,1,1,0,-5
50649573603,16,0,1,-6,-5,-4,-3,3
50649573603,0,1,-9,2,3,0,-13,-6
50649589401,-50,-3,10,-3,-1,1,-9,14
50649589401,11,0,-11,0,3,1,12,8
50649596152,-3,0,22,4,-1,2,-2,9
50649596152,-7,-7,-12,-7,-6,-6,-10,-36
50649612567,0,0,-31,-1,1,0,-5,-6
50649612567,19,0,6,-6,-4,-1,9,3
50649614000,-28,-6,-6,-1,0,1,-11,10
50649614000,5,4,-13,-1,-1,0,2,3
50649626914,-1,-2,2,2,0,-1,-2,-7
50649626914,4,-1,5,1,-3,-3,-12,0
50649633590,36,10,-15,-3,2,-1,22,16
50649633590,14,-8,11,0,-1,1,8,13
50649649468,-42,-3,-6,2,0,2,-6,-3
50649649468,12,2,5,0,-2,-1,15,10
50649656104,2,-8,-21,-5,-3,-3,-20,-18
50649656104,9,-5,4,-3,-2,-7,-3,-29
50649672640,16,3,2,-5,-4,-5,2,8
50649672640,-4,-5,-2,-5,-3,-2,-4,-2
50649674020,-22,-9,2,7,3,1,-33,-7
50649674020,2,6,-8,0,1,2,26,21
50649686914,-11,-8,-2,-4,-2,-1,-9,-2
50649686914,-10,5,0,3,3,0,-9,-14
50649693616,11,-1,33,3,1,2,-6,-3
50649693616,-30,-4,-9,-1,-2,1,-15,20
50649709335,-24,-3,-11,0,0,0,7,-5
50649709335,7,-9,0,-4,0,-1,-7,-16
50649716163,-30,-2,-2,-1,-3,-4,8,-16
50649716163,-1,-3,9,-1,-2,-4,-5,-2
50649732360,46,3,9,3,1,1,4,20
50649732360,-92,-5,-11,-1,0,-1,-4,-4
50649734014,12,2,-14,-3,-2,-2,4,-27
50649734014,1,2,-9,-4,0,0,0,4
50649746908,14,0,8,7,-1,1,-3,0
50649746908,-4,-1,-17,-9,-1,1,-2,1
50649753609,17,7,39,6,1,4,31,40
50649753609,25,0,3,-1,0,-2,-11,-2
50649769318,-13,-10,-8,-9,-5,-6,29,-7
50649769318,18,0,8,3,0,-2,-4,-2
50649776136,-28,-6,-15,-1,0,0,-4,-4
50649776136,2,3,-4,0,-1,1,-1,2
50649792631,87,22,8,-4,0,0,0,8
50649792631,-24,-12,5,4,-2,-2,-4,-19
50649793999,-2,-1,-15,-6,-1,-2,0,11
50649793999,2,0,6,7,2,2,6,12
50649806825,82,8,9,-1,-1,0,-4,-6
50649806825,7,5,3,1,-1,1,0,4
50649813677,24,6,8,-2,-3,-3,29,-5
50649813677,-23,-8,-6,-3,-2,-5,1,-7
50649829407,-34,-9,-6,-1,-2,-3,-4,-2
50649829407,42,-3,-6,-1,-2,-2,-2,2
50649836114,-15,-2,0,-2,1,2,-5,-2
50649836114,-6,3,12,3,-1,0,-15,-7
50649853033,-15,-5,-13,-5,0,0,0,0
50649853033,8,6,14,5,1,-1,-3,18
50649854453,-8,1,-10,0,0,1,-11,-3
50649854453,19,8,-6,-3,-4,-1,1,-6
50649866157,-25,-1,-2,5,2,1,-18,-8
50649866157,-24,-10,-5,-9,-7,-6,4,-10
50649874991,1,-1,-4,-2,-2,-1,-2,16
50649874991,-7,-6,-4,-1,-1,-1,23,21
50649889328,-9,2,12,2,1,2,-6,-13
50649889328,4,1,-3,2,1,-2,-2,-8
50649896240,39,-4,-8,-2,1,0,-3,5
50649896240,-23,-7,6,0,-2,0,3,-5
50649911605,-1,1,-2,-1,-2,-2,1,7
50649911605,18,3,-10,-2,3,4,23,15
50649920052,45,10,6,6,-1,-1,-14,-25
50649920052,28,2,-13,-9,-1,-1,-16,1
50649926220,-3,-1,22,6,-2,-2,-1,10
50649926220,-18,-7,0,-6,-4,-2,-5,-8
50649934991,47,-4,-2,-3,-3,-4,-1,6
50649934991,-4,3,-4,3,2,0,2,-20
50649949365,-28,-8,-5,-5,-5,-4,-18,-1
50649949365,29,4,0,1,0,-1,-3,18
50649956229,-70,-16,0,-2,-2,-3,-35,-5
50649956229,-1,5,-5,-2,1,4,20,11
50649972419,-15,-8,-9,-8,-4,-4,-13,-10
50649972419,4,0,-4,2,-2,-1,3,4
50649974000,-27,0,-10,-2,-2,-4,-5,-26
50649974000,-2,-8,-3,-6,-4,-6,-11,20
50649986000,-11,1,-1,5,2,2,14,-4
50649986000,36,2,-6,-6,-1,-1,4,0
50649995015,-9,1,-1,-2,0,-1,9,-1
50649995015,19,4,5,3,-1,0,-4,-10
50650009326,-80,-5,-7,2,0,1,17,4
50650009326,69,-2,-5,-6,-3,-1,-20,13
50650016054,-9,1,21,6,2,1,2,-5
50650016054,0,-1,-23,-1,1,-1,-4,-8
50650032610,21,3,-1,0,-2,-3,-14,-18
50650032610,-58,-13,-4,-4,-5,-4,-13,5
50650033973,12,1,0,-6,-6,-3,14,-3
50650033973,3,8,7,3,2,0,6,5
50650046167,3,-4,-3,-1,0,0,20,3
50650046167,-17,5,4,3,4,2,-11,-20
50650055008,-54,-11,-40,-5,0,1,6,7
50650055008,45,5,40,6,-3,-3,1,13
50650069249,-25,-6,-13,-4,-1,-2,-9,3
50650069249,-61,0,27,4,0,-2,3,-13
50650076252,-7,4,-6,5,0,-1,-5,6
50650076252,-21,-8,-13,-9,-4,-3,-3,-11
50650092459,13,0,0,0,0,-2,-3,9
50650092459,21,2,-2,-4,-2,0,-2,3
50650093946,-12,-2,0,0,1,1,-4,10
50650093946,-22,-3,20,4,2,2,-10,-15
50650105989,27,6,-9,-1,-3,0,-9,0
50650105989,0,-1,-10,2,-1,-1,21,8
50650115009,1,5,9,-3,-1,-3,-15,-6
50650115009,10,-7,-5,-2,-2,-2,-9,-11
50650129462,26,2,10,3,2,1,0,9
50650129462,35,17,0,5,5,4,-3,4
50650136126,5,-5,3,-5,-5,-3,-12,-17
50650136126,-13,-7,-1,-1,-4,-4,7,12
50650151867,7,6,4,0,-1,0,-1,0
50650151867,-8,-10,-10,-4,-3,-3,-12,-35
50650158589,25,7,1,5,2,2,10,13
50650158589,20,-4,-16,-8,2,1,7,9
50650166035,-86,2,15,2,-1,-2,-4,-26
50650166035,17,0,-5,0,1,0,-32,-5
50650175025,20,-2,-2,1,-2,-1,19,2
50650175025,-17,-1,0,-1,-3,-1,0,-2
50650197535,12,4,-6,-1,-1,0,-7,2
50650197535,-14,-4,-4,1,-1,0,0,-17
50650198944,-34,-8,-1,-4,-3,-4,-3,-5
50650198944,1,2,-6,2,0,1,-6,1
50650211865,30,1,-2,-5,-2,1,17,1
50650211865,-13,-3,-10,4,-1,-2,6,2
50650218573,3,-4,16,-1,-3,-2,9,0
50650218573,14,12,0,1,1,-1,2,5
50650226275,30,0,10,-3,-4,-1,-1,11
50650226275,3,-3,-26,0,0,-1,25,6
50650234964,-52,-11,6,-2,-2,-2,-16,-13
50650234964,-61,-12,-21,3,-1,2,21,11
50650249194,61,-3,-3,-10,-3,-2,-5,-10
50650249194,-3,1,17,1,0,-1,-5,16
50650256236,10,2,-17,-5,-4,-2,0,-4
50650256236,-9,-11,1,0,-1,-1,-9,-6
50650271748,-36,0,-6,-1,-3,-3,-5,-5
50650271748,6,-3,-4,-2,-1,-1,-1,1
50650278756,9,3,-6,0,2,2,2,11
50650278756,-3,5,12,-2,-4,-5,-10,-16
50650286138,-11,-6,9,1,1,-1,17,0
50650286138,5,1,14,0,-1,-1,0,2
50650294984,12,9,-6,-1,0,-1,-11,4
50650294984,-24,-11,-4,-2,-2,-4,-30,-21
50650309470,0,-1,-3,0,1,-1,5,19
50650309470,9,6,-2,-3,-1,0,4,4
50650316154,7,-1,0,-1,0,-5,6,-8
50650316154,14,6,-3,-1,-1,1,-2,3
50650331888,16,-3,-13,-1,0,0,-14,-6
50650331888,-70,-15,21,2,-2,-2,1,-8
50650338545,10,5,-9,-6,0,2,-5,-2
50650338545,11,4,3,0,2,0,-3,7
50650355067,-8,3,1,1,-1,-1,-3,5
50650355067,-8,-5,-6,-2,-2,-1,4,-6
50650356481,21,9,20,2,-1,-1,7,-29
50650356481,29,2,2,-1,-2,-1,20,4
50650369419,-55,-12,-19,-4,-2,-4,-9,-14
50650369419,14,2,18,0,-2,-3,-5,-2
50650376114,-17,-6,11,4,0,1,0,-5
50650376114,21,7,4,1,0,2,-2,-9
50650391915,-10,-6,-9,-1,-1,0,-15,-1
50650391915,17,6,2,-2,-2,0,0,-2
50650398679,-12,-4,-7,-1,1,2,2,10
50650398679,0,-3,-1,-1,-1,0,-5,-1
50650415010,2,2,11,1,0,-2,-1,-6
50650415010,12,5,-11,-1,-1,-3,-2,8
50650416459,0,-5,5,-2,-1,1,-1,-2
50650416459,10,4,-10,-4,-4,-3,-3,-5
50650429360,-9,-10,3,2,0,0,8,29
50650429360,-5,-1,0,5,2,-1,15,5
50650436217,36,7,-23,-7,-2,-2,0,5
50650436217,12,3,5,0,-1,-2,5,15
50650451824,-29,-3,-11,0,1,0,-2,0
50650451824,18,6,43,3,0,1,-6,4
50650458535,25,-11,-41,-4,-1,-3,-9,12
50650458535,-80,2,3,-4,-1,-3,-14,-17
50650474811,38,5,2,-1,-2,1,19,-6
50650474811,-13,-1,-11,-1,0,-1,-10,5
50650476517,-30,-10,11,2,-3,-5,-23,-21
50650476517,21,6,7,-3,-1,-1,1,5
50650489317,-8,0,-17,-1,0,-2,-8,-12
50650489317,6,0,-27,-7,0,-1,-6,-1
50650496097,-8,2,41,8,-3,-1,5,-5
50650496097,-5,-4,80,-3,-1,0,-1,-11
50650511824,19,-10,-65,-9,-3,-4,-8,3
50650511824,10,-4,-10,-3,-2,1,6,6
50650518570,-24,-13,-11,-3,-2,-2,-9,-6
50650518570,16,3,-11,1,0,0,4,3
50650534957,1,4,25,3,-2,-2,-1,-20
50650534957,11,0,12,0,0,-1,-7,-9
50650536425,3,1,-34,-2,-1,0,6,8
50650536425,40,-7,-12,3,1,3,29,13
50650549308,-40,2,14,1,0,0,-3,-6
50650549308,-14,1,-23,-3,-1,-1,14,-1
50650556176,12,-2,16,0,0,-1,4,10
50650556176,12,0,-12,1,-2,-4,-14,2
50650571426,31,-1,3,-2,1,-2,8,2
50650571426,-15,-6,-25,-2,-2,0,-11,-1
50650580016,-29,0,74,-7,-6,-4,19,21
50650580016,2,2,-23,0,-1,-1,-3,0
50650595044,32,7,14,3,1,0,2,1
50650595044,-5,-1,14,0,-2,-4,-8,-8
50650596485,-23,-10,-52,-3,1,0,-25,-12
50650596485,1,0,-16,-1,-1,0,6,13
50650609380,-3,1,22,0,-2,-1,-6,-21
50650609380,15,1,0,0,0,0,3,12
50650616032,21,10,-2,0,3,3,3,-3
50650616032,-34,-8,2,-4,-3,0,-2,-21
50650631832,-7,0,-5,6,1,0,-6,5
50650631832,-13,-5,-1,-9,-5,-5,1,0
50650638538,38,-1,-1,2,2,1,2,-5
50650638538,-13,2,-8,1,1,0,-11,-4
50650654849,13,-1,11,3,1,1,15,6
50650654849,1,-4,-6,-5,-5,-4,-1,-19
50650656463,-1,-4,-17,-1,1,0,2,14
50650656463,10,4,39,1,-3,-3,-5,-5
50650669382,43,5,-17,-5,-2,-2,-10,6
50650669382,-70,-15,29,-1,2,-1,4,-4
50650676315,-4,0,-16,-2,0,-2,-1,6
50650676315,-3,-10,-6,-2,-2,-1,-4,6
50650691839,-22,0,8,-4,-2,-3,-5,1
50650691839,25,3,-13,0,-3,-1,-5,-9
50650698665,-8,0,4,4,0,0,-6,10
50650698665,-23,-6,-3,-5,0,-1,1,-14
50650715006,-11,3,19,-1,-2,0,-3,5
50650715006,17,-3,-12,1,1,0,1,-3
50650716482,-7,0,-4,-2,0,-1,-13,0
50650716482,22,1,10,6,3,0,9,0
50650729981,-3,-8,-11,-4,-4,0,0,17
50650729981,4,2,-30,-4,-1,0,-8,6
50650736204,-11,-2,20,11,0,1,40,11
50650736204,31,7,-4,-6,-1,-1,-4,-10
50650752483,-55,-14,-20,-6,-2,-3,-2,-18
50650752483,23,4,15,0,-1,0,-4,1
50650758719,-11,2,-1,-5,-1,-2,-7,27
50650758719,-46,-9,-15,0,-1,1,25,-14
50650774304,112,22,-2,-1,-3,0,7,6
50650774304,15,6,8,-3,1,1,-5,-3
50650774963,-22,-9,-24,-4,-4,-4,-4,-26
50650774963,-25,-8,-6,0,0,-2,-11,7
50650790000,-19,-2,4,0,-2,-2,-5,-17
50650790000,-5,2,-2,4,1,1,5,8
50650796099,41,5,29,-3,-4,-2,-5,-18
50650796099,10,-2,-10,0,2,-2,-24,13
50650812485,12,-4,-3,0,1,1,21,9
50650812485,-29,-8,30,4,-4,-2,0,3
50650818546,20,10,5,3,1,0,7,-1
50650818546,-56,-22,-20,-7,-2,-1,-30,-5
50650834195,-20,-5,14,-2,-2,0,6,4
50650834195,37,15,-5,0,-2,-3,-3,-7
50650835008,-14,-3,-6,-1,1,1,-5,2
50650835008,-8,3,8,2,-3,-1,18,22
50650849974,-23,2,-6,3,3,3,-28,2
50650849974,-11,-7,0,-3,1,1,4,-14
50650856158,-4,-2,-4,1,0,-3,-5,8
50650856158,-8,1,0,0,-1,-4,-9,-3
50650872459,72,2,0,-1,-1,0,5,5
50650872459,-57,-3,14,6,1,-5,-6,-21
50650878763,32,7,11,-5,-2,-1,30,23
50650878763,22,4,-9,0,-1,0,2,12
50650894285,-2,-9,-1,1,-1,-2,2,-4
50650894285,-3,0,-13,-2,0,0,-13,-10
50650894973,-2,-4,9,4,0,2,-15,2
50650894973,-4,-3,-6,-7,-5,-3,2,-10
50650909967,-11,2,-8,1,0,-1,-3,12
50650909967,6,-8,-23,-6,0,1,20,12
50650916151,-25,-3,-5,-3,-2,-2,3,-21
50650916151,17,3,-3,-2,1,-1,6,-7
50650932455,-24,2,-12,-2,0,0,-11,-10
50650932455,16,-8,12,0,-3,-1,9,7
50650938676,-11,-5,-5,-1,0,2,-6,12
50650938676,-3,2,16,3,0,0,3,5
50650954287,28,-2,-13,-3,-3,-4,-2,-21
50650954287,-16,8,2,0,0,-2,-6,0
50650954943,-2,-9,-5,-1,0,-2,-21,-31
50650954943,-5,6,-12,-3,2,4,9,-13
50650969949,-8,1,36,7,0,1,0,10
50650969949,26,3,17,-5,-4,-4,2,4
50650975996,-17,-3,-33,-5,-2,-2,-11,-13
50650975996,16,2,-6,2,-2,-3,-4,-4
50650992462,-34,0,11,-1,2,1,5,-1
50650992462,19,9,-14,0,1,4,7,21
50650998578,-40,0,26,2,-3,-1,-9,-9
50650998578,14,2,15,0,-1,-3,-1,-5
50651014280,-20,-5,-16,-5,-2,-1,4,8
50651014280,22,3,0,1,0,-1,-13,-9
50651014922,-27,-9,-15,-4,-1,0,-8,9
50651014922,50,9,6,5,-1,0,5,2
50651029930,-12,-2,1,-2,2,-1,-34,-12
50651029930,20,-2,-11,-7,1,1,26,1
50651036133,23,9,30,7,-3,-1,0,9
50651036133,-13,-3,-6,-1,-1,-3,-6,-9
50651051167,-20,-7,-10,-5,-3,-4,-5,-6
50651051167,-24,0,-4,1,-1,-2,-8,-7
50651058652,20,3,-8,-2,1,1,6,-4
50651058652,-33,-13,-17,-2,0,0,3,9
50651073526,2,3,32,8,0,2,18,-6
50651073526,-8,-1,14,-2,-2,-1,-6,1
50651081145,41,10,1,-5,-1,-3,-1,-6
50651081145,-38,-19,-11,-3,-1,-1,-12,-10
50651089952,25,5,3,1,-1,-2,-5,6
50651089952,-79,-13,3,3,0,0,27,25
50651096087,10,2,-8,-6,-1,-2,7,-7
50651096087,30,-2,8,5,-3,-1,-6,-14
50651111118,-3,4,4,1,-2,-2,-1,4
50651111118,40,-1,4,1,1,0,-14,3
50651118579,-8,1,-2,-3,-1,0,6,2
50651118579,13,9,-39,-4,-3,-2,4,0
50651134957,-39,-16,-10,-2,0,-2,3,-12
50651134957,11,-2,-7,-4,-1,-1,-15,0
50651141118,-14,-1,-2,4,0,-1,4,-2
50651141118,-10,4,7,-2,1,0,10,7
50651150027,-35,-8,-10,-2,-3,-2,-1,-5
50651150027,18,2,-4,-2,-1,-2,1,-5
50651156038,-38,-9,-4,-2,0,0,4,-13
50651156038,0,-3,5,-3,-1,1,-10,23
50651171232,12,6,-9,-2,-1,0,2,0
50651171232,66,-10,5,1,-4,-1,-13,5
50651178468,-26,-2,-3,-6,-3,-3,25,0
50651178468,8,2,20,3,0,-2,2,-2
50651193447,15,5,-1,-5,0,-2,-3,-9
50651193447,-16,-1,-3,2,-3,-4,-20,-3
50651201170,44,-4,14,1,-1,0,-8,0
50651201170,6,6,-3,-1,1,1,-7,-14
50651209973,2,-6,-16,-5,-2,-1,9,2
50651209973,-16,1,-5,-2,-1,-1,6,10
50651216094,-11,-1,12,4,0,0,-25,-7
50651216094,-15,-6,-22,2,0,1,9,-4
50651231104,13,3,13,-2,0,1,-9,4
50651231104,-34,-2,-4,1,0,-1,-1,-5
50651238604,-4,1,-11,0,-1,1,-2,-1
50651238604,19,1,26,0,0,0,-13,9
50651253462,-21,-10,-57,-8,-4,-1,5,-7
50651253462,-14,-8,21,4,-4,-3,8,-11
50651261105,12,1,-9,-1,0,0,0,1
50651261105,-27,2,10,0,-3,0,-7,-8
50651276832,22,1,11,2,0,2,11,2
50651276832,5,11,-6,-3,0,5,-12,5
50651277425,12,-5,3,2,-4,-7,8,-24
50651277425,-9,-7,8,-14,-3,-3,18,12
50651291203,19,1,-7,2,-1,-1,-19,-25
50651291203,-14,-9,1,-1,1,-2,-5,-21
50651306839,63,11,-13,-4,-4,0,-4,17
50651306839,-15,-5,8,-2,-5,-5,-4,-6
50651313495,-3,7,2,2,0,-1,15,-11
50651313495,4,5,-2,-7,-2,0,-3,3
50651321173,20,7,7,4,4,2,5,4
50651321173,18,-8,-33,0,-4,-3,4,-19
50651336869,-12,2,13,3,-1,-1,-27,14
50651336869,15,5,-8,-3,0,-2,-7,-10
50651337432,-20,-10,-10,-5,-2,-4,0,8
50651337432,11,7,-1,1,2,0,-17,-7
50651351165,6,-4,7,-5,-2,-2,18,25
50651351165,-10,7,-10,3,0,1,0,12
50651358632,-4,1,9,0,1,3,0,-5
50651358632,5,-8,1,-4,-3,-4,-17,9
50651373652,-3,1,13,-1,-1,-2,3,13
50651373652,66,-10,-23,-4,0,-2,1,17
50651381138,8,16,3,1,1,0,-16,-4
50651381138,-4,-4,-2,-1,0,-1,-1,-1
50651396880,21,9,6,0,0,-2,-1,-3
50651396880,-67,-18,0,0,-2,-3,0,-9
50651397438,-12,-4,-10,0,0,0,-21,-9
50651397438,8,-1,-10,-7,-2,1,12,9
50651411141,17,0,1,-6,-2,-1,-4,-2
50651411141,-6,1,11,0,-1,-1,-16,-16
50651418527,-31,-9,-4,3,2,2,25,17
50651418527,2,3,-11,-4,0,-1,-4,-8
50651433642,-2,5,2,1,-2,-1,0,21
50651433642,-16,3,-5,1,0,0,8,-16
50651441178,5,-6,-11,-9,-1,0,7,2
50651441178,-21,-4,20,2,-1,-2,-12,-3
50651456844,37,-8,-33,-3,1,-1,2,1
50651456844,-55,1,6,1,-2,-4,-4,-5
50651457363,21,4,9,-1,0,-1,-4,1
50651457363,31,7,3,1,-1,0,14,10
50651471130,-6,-9,8,2,-3,-1,-12,-18
50651471130,-19,-3,-1,0,0,1,4,-7
50651478489,13,-2,-12,-3,-2,-1,2,3
50651478489,-42,2,12,6,1,-1,-8,-2
50651493557,-21,-2,9,2,-3,-1,-8,-13
50651493557,19,-2,-27,-8,-2,1,10,24
50651501135,-28,1,-8,-2,0,-1,-16,-25
50651501135,7,1,11,4,1,0,5,8
50651516800,-19,1,0,5,2,-1,-3,0
50651516800,24,4,14,2,1,0,0,-10
50651517401,32,-2,-9,-2,-3,-3,1,-2
50651517401,-72,-11,-17,-3,0,-1,-11,-2
50651531010,12,-7,13,1,0,2,16,-2
50651531010,13,4,12,-1,0,2,3,14
50651538616,-36,-8,0,3,-1,0,7,0
50651538616,67,14,-4,-6,-3,-2,9,35
50651553613,1,1,-1,-3,0,0,-7,-10
50651553613,1,-1,3,-1,-1,-2,-2,-7
50651561130,27,11,24,6,-1,0,-2,-4
50651561130,-19,-15,-11,2,0,1,6,-11
50651576809,9,4,-6,-4,-1,-1,1,8
50651576809,9,-6,20,-1,-4,-3,-3,10
50651577379,-14,2,4,-6,-4,-2,3,0
50651577379,-13,1,-4,-3,2,3,13,4
50651591097,-5,8,7,-1,-1,-1,3,4
50651591097,-22,-14,-43,-2,0,-3,-4,-13
50651598530,-7,-13,-2,-1,-2,-2,3,9
50651598530,-76,-12,2,3,-1,-2,-26,-21
50651613612,-29,-8,7,-2,0,1,11,2
50651613612,7,3,-1,-10,-3,-2,-9,5
50651621092,-17,-5,-10,-2,-4,0,1,-24
50651621092,16,2,-4,1,1,-1,-6,-10
50651636783,0,-8,-4,1,0,-1,-14,-11
50651636783,9,8,1,4,0,-1,11,8
50651637377,-11,-4,-17,-5,-1,-2,-8,4
50651637377,25,2,28,6,-3,-1,7,-4
50651651109,-8,2,16,1,-1,-1,12,15
50651651109,35,12,-32,-4,-1,-1,-13,4
50651658606,-15,-6,4,2,2,2,22,-4
50651658606,98,6,-5,-10,-3,1,11,12
50651673490,-39,-9,-10,-2,-3,-4,-4,-10
50651673490,-2,-4,10,2,-2,-3,-12,-4
50651681127,16,5,-3,1,4,0,-6,5
50651681127,-4,-2,-6,-1,1,1,6,26
50651696807,32,-2,2,1,-1,-1,-1,-11
50651696807,28,1,1,-4,-1,2,0,-3
50651697389,-17,0,-6,-1,0,0,-14,0
50651697389,-20,-2,23,4,-1,-1,-4,-6
50651711087,-15,6,-18,-1,-2,-3,-8,-8
50651711087,-15,-10,20,-3,-2,-2,12,-4
50651718613,-6,-5,8,3,-3,-3,-7,5
50651718613,-15,2,-12,-2,2,-1,-18,-20
50651733479,-6,-6,6,-5,-2,1,38,18
50651733479,-30,-8,-20,1,1,1,5,-1
50651741073,25,3,5,3,-1,-1,3,16
50651741073,-30,-12,-16,-7,-2,-1,-3,-4
50651756803,12,4,16,-2,-3,-1,-26,-4
50651756803,25,4,3,3,0,-2,5,-4
50651757439,-28,-9,-6,-6,-3,-3,-3,6
50651757439,-9,17,-10,0,0,0,5,-9
50651771120,31,-4,0,-3,0,-2,-5,-10
50651771120,0,-4,-1,5,2,2,-3,3
50651778681,2,6,12,1,-2,0,-8,-10
50651778681,16,5,-15,-6,-4,-2,-17,5
50651793521,-33,-7,-5,-3,-3,0,-2,-3
50651793521,-4,1,1,1,-2,-1,1,-9
50651801169,-55,-12,-6,2,0,-3,-3,-12
50651801169,26,5,3,2,-1,1,5,-2
50651816747,7,0,-10,-1,2,-1,-5,24
50651816747,8,2,2,1,2,1,22,4
50651817484,43,1,12,-2,-1,-1,2,7
50651817484,-45,-13,-33,-3,-4,-3,-1,-12
50651831104,-17,-5,-8,2,-2,0,-1,7
50651831104,-9,-1,16,-4,-2,-2,-7,-33
50651838698,21,6,-4,-2,-3,-2,0,3
50651838698,7,-6,6,2,0,-1,0,6
50651853627,20,12,-7,0,1,1,9,1
50651853627,-46,-24,-14,-3,-2,-4,-18,-2
50651861175,-34,6,14,-2,2,2,24,2
50651861175,55,-9,-32,-3,-2,-3,-5,-4
50651876851,29,7,5,1,1,0,-7,-2
50651876851,24,9,-14,-5,-3,-3,-14,12
50651877466,-4,-4,32,-2,-1,0,1,-10
50651877466,-21,-3,5,-1,0,-1,1,-11
50651891207,13,-1,-4,1,0,0,-15,12
50651891207,0,6,12,1,0,0,9,-20
50651898717,-7,-10,-15,3,2,-3,-8,11
50651898717,29,12,17,-3,-3,-3,1,-1
50651913551,-22,-11,-3,2,1,0,-4,-9
50651913551,58,11,14,-3,-2,-2,-6,9
50651921005,-14,-2,-7,-3,-1,1,2,12
50651921005,-1,-4,-4,2,2,0,4,-2
50651936837,22,6,9,-3,-3,-1,5,-6
50651936837,7,-3,-4,-2,-1,-2,-2,2
50651937439,9,-3,2,0,2,0,12,-2
50651937439,-1,2,2,-2,-3,-2,-26,8
50651951148,7,3,-6,-3,-1,1,29,15
50651951148,-1,4,1,-3,-1,1,1,4
50651958702,6,1,-3,-1,0,-2,-13,-20
50651958702,-46,-2,9,6,1,-2,-9,-9
50651973626,-7,-6,-1,-2,-2,1,-7,-15
50651973626,-19,-4,-2,4,1,1,11,6
50651981139,-10,1,-21,-7,-4,-3,-3,3
50651981139,11,1,12,4,1,1,13,9
50651996174,-15,-7,-5,1,0,1,-16,-9
50651996174,4,8,-3,-3,1,0,-5,12
50652004886,2,-1,1,2,1,1,-6,-19
50652004886,50,12,9,-1,-3,0,7,3
50652011014,-9,-2,-1,-2,-2,-4,-2,-4
50652011014,74,-9,-15,0,-2,-3,-10,2
50652018541,-52,8,-1,9,4,2,-3,-1
50652018541,17,-14,-31,-21,-6,-7,7,-1
50652033608,-27,-4,-8,-1,-1,-2,-5,-5
50652033608,-6,4,11,1,-1,0,1,-3
50652041175,20,1,-2,-2,-1,-1,-6,6
50652041175,-29,-6,-6,3,0,-1,-14,-9
50652056122,-2,0,6,-1,0,-3,-1,-8
50652056122,-23,5,-5,2,0,0,-13,3
50652064311,6,-5,4,-6,-4,0,13,11
50652064311,-39,9,16,5,1,3,2,-3
50652071000,24,-1,11,0,-2,-3,-5,5
50652071000,-1,0,5,-1,0,1,-1,-7
50652078658,-12,-7,-6,-1,-1,-2,-11,-10
50652078658,-25,-4,-26,-1,3,2,5,1
50652093624,24,-3,20,-5,-5,-4,6,-2
50652093624,-15,-3,-5,2,3,2,8,-3
50652101172,4,-6,-4,-7,-6,-4,-4,1
50652101172,54,-1,4,1,-2,-1,6,4
50652116135,-66,5,-6,-2,-1,0,-5,-9
50652116135,-48,-12,-6,-3,1,-2,-2,-12
50652124208,106,6,0,-1,-2,-4,27,16
50652124208,4,0,19,0,-2,-2,3,-2
50652131025,2,-1,-10,2,1,-2,-3,4
50652131025,-15,-3,7,-3,-5,-3,0,-3
50652138551,-3,-3,-13,0,0,0,-8,-2
50652138551,-1,5,11,1,-1,0,5,-2
50652153617,1,-2,-2,7,2,-1,2,-3
50652153617,-8,-3,6,-12,-4,-2,0,-6
50652161156,6,3,3,0,-1,-1,-5,-1
50652161156,-38,-15,-1,0,-1,-1,2,1
50652176111,-5,3,-6,3,2,2,-5,-9
50652176111,7,3,8,6,0,-1,-2,1
50652184334,-4,9,0,1,-1,1,-8,-5
50652184334,0,-6,-8,-6,-3,-2,2,-13
50652199272,-2,-2,1,-1,0,-1,5,14
50652199272,-12,-7,0,1,-2,-2,1,3
50652199866,-1,3,-2,0,1,0,5,0
50652199866,-14,5,8,0,-1,1,-10,0
50652213515,-5,-8,-12,-4,-2,-2,0,2
50652213515,54,2,-17,-2,1,-1,-24,-14
50652221146,-66,-10,6,-1,0,2,24,12
50652221146,41,3,-16,-1,-2,-1,3,10
50652244939,17,4,-9,-3,0,2,-5,-7
50652244939,24,2,1,-3,-2,0,17,6
50652245679,2,-4,-3,-3,-1,-2,-21,-15
50652245679,-8,-3,-3,-3,-3,-3,5,10
50652259268,-15,4,13,1,0,0,6,-11
50652259268,7,3,10,-2,-2,1,4,5
50652259926,-4,0,1,1,-2,-1,-15,-6
50652259926,12,-1,4,-1,1,1,16,8
50652273526,-24,-2,-1,2,0,-3,-22,-8
50652273526,-24,-3,1,3,-1,-1,-2,-8
50652281098,5,0,-9,0,1,-1,-5,9
50652281098,-56,-2,5,-2,-2,0,-7,-14
50652296015,24,-2,-3,0,-2,-1,-24,5
50652296015,-45,-15,-17,0,1,1,36,2
50652304308,-62,-13,-1,-4,-4,-3,-3,-10
50652304308,20,4,-1,1,2,1,-6,-4
50652319226,4,-5,-4,-5,-1,0,-7,2
50652319226,-21,-2,5,1,-3,-3,-4,11
50652319926,7,0,1,1,1,-1,1,6
50652319926,-17,-7,6,0,-1,2,4,0
50652333642,12,-3,-13,-5,-3,-3,2,7
50652333642,-8,10,-8,-1,1,-3,-2,-13
50652341075,32,-4,2,-2,-1,-1,0,7
50652341075,-1,2,-8,-1,0,0,-24,-18
50652356141,17,-6,-1,-4,-2,2,21,12
50652356141,-39,0,0,5,-1,1,-15,-12
50652364166,11,4,4,-5,-1,-1,-5,1
50652364166,4,2,-13,0,0,-2,-12,-1
50652379255,4,0,16,0,-1,-1,20,-1
50652379255,57,0,2,-1,1,1,0,5
50652379929,-29,2,-5,-3,-6,-4,-3,-16
50652379929,13,-1,-1,2,0,0,0,4
50652393489,-2,4,-2,1,1,1,-5,-6
50652393489,14,0,0,-3,-2,-1,-5,17
50652401131,10,-1,-9,2,-1,0,2,0
50652401131,5,13,8,1,4,-2,2,-2
50652416184,-23,-10,-16,-4,-4,-2,-2,4
50652416184,-15,2,24,1,-3,-4,-2,1
50652424282,48,-1,-4,-1,0,-2,-6,-8
50652424282,-72,-13,-5,-4,-5,-2,0,0
50652439238,19,-3,-2,1,2,1,3,-5
50652439238,38,10,15,-4,-3,-3,-1,10
50652439891,-88,-8,-5,1,2,1,-15,-7
50652439891,63,1,-15,-7,-4,-3,20,-5
50652453533,0,0,11,-1,-2,-2,5,6
50652453533,9,-5,-13,-2,0,1,1,-2
50652461141,-68,-2,-4,0,-2,-2,-5,-4
50652461141,37,4,16,2,0,0,4,-7
50652475945,-32,-3,-7,-3,-3,-2,-7,-6
50652475945,16,2,-11,-6,-2,-2,-8,0
50652484342,0,1,3,1,1,2,15,10
50652484342,-2,-1,-1,1,0,-2,-1,8
50652499234,-12,2,16,3,0,-2,3,-7
50652499234,-18,-8,-23,-4,-2,-1,-9,-1
50652499903,0,9,-18,-6,0,0,-16,-13
50652499903,36,-7,33,4,-1,-2,14,1
50652513623,26,6,1,-6,-2,-3,-10,-1
50652513623,-41,-8,-1,6,0,0,15,-7
50652521159,28,4,8,-4,-3,-2,-1,-8
50652521159,5,-1,-28,-3,-3,-2,-15,-9
50652536130,-37,-5,-19,-7,-1,-1,1,-3
50652536130,12,4,16,7,1,0,-1,-13
50652544226,49,0,-1,9,5,4,10,9
50652544226,-15,-12,6,-17,-14,-6,-1,1
50652559210,35,-6,7,-1,-3,-2,-8,3
50652559210,-23,13,-7,-2,0,2,7,9
50652559884,21,1,-5,1,-1,-1,-1,-3
50652559884,-1,4,13,4,2,-1,0,-3
50652573517,-42,-11,-4,2,2,1,-14,-16
50652573517,12,-3,-7,-3,-3,-3,-5,-4
50652581087,-1,-9,-3,-2,0,-1,4,11
50652581087,19,8,-6,2,4,4,-7,-1
50652596116,-9,-2,-3,-5,-1,-1,10,6
50652596116,-32,1,13,5,2,-3,-4,3
50652604241,42,3,-2,0,-2,-3,-7,-12
50652604241,-46,-10,13,-4,-6,-2,4,19
50652619006,16,6,2,5,-2,3,-15,-4
50652619006,8,-13,-16,2,3,1,10,12
50652626799,26,9,1,-12,1,-6,-3,4
50652626799,-2,7,-5,-4,-5,-1,-4,1
50652633551,19,1,3,1,0,-1,6,-14
50652633551,-47,-4,7,0,-3,0,-14,-1
50652640942,-16,-6,-6,1,-1,0,4,-3
50652640942,-24,-12,-4,5,5,0,-2,-1
50652656120,19,12,-7,0,-2,-2,2,3
50652656120,-3,-7,10,-1,-1,-1,-13,-19
50652664295,-9,-2,2,1,-2,1,14,-5
50652664295,-18,2,2,-1,-1,-3,-31,-26
50652679166,13,-3,-8,-1,1,-2,18,30
50652679166,-12,4,-4,-3,1,1,8,-1
50652679997,10,-4,7,0,-2,-2,-12,3
50652679997,12,3,-5,-4,0,0,-8,-11
50652693473,6,4,-1,2,1,-2,-1,-3
50652693473,27,3,1,-2,-2,-1,8,7
50652701138,19,2,0,-2,-2,0,-2,10
50652701138,-16,0,-4,4,1,-1,11,-10
50652716018,-19,1,10,-2,2,-1,6,-1
50652716018,20,-3,-13,-6,-4,-3,2,-9
50652724291,11,-2,-4,5,-1,-2,0,10
50652724291,-12,-3,16,-3,2,-1,-11,0
50652739308,40,3,-5,-4,-2,-3,7,3
50652739308,12,-4,4,-2,-2,-2,-9,0
50652739868,-15,1,-2,-1,-3,-1,3,-7
50652739868,9,0,3,0,2,-2,-19,-7
50652753546,-32,-14,-7,-1,0,2,-12,1
50652753546,-3,2,-4,0,1,0,-4,5
50652761140,-38,-5,16,1,-2,-4,-1,-2
50652761140,26,-1,-19,-4,-6,-2,0,6
50652776080,-7,0,13,-1,-1,-1,-4,-7
50652776080,-35,-13,-33,-4,-2,-1,-1,2
50652784234,35,5,17,-3,1,-2,-4,2
50652784234,6,3,5,9,0,-2,-8,-17
50652799188,-32,-16,-9,-4,-4,-1,7,-12
50652799188,8,4,3,2,2,0,0,-2
50652799824,6,-5,-9,-4,-2,0,3,15
50652799824,-11,-6,-10,-2,1,1,11,7
50652813533,15,11,6,5,-1,-2,-1,0
50652813533,11,-2,15,-11,-4,-1,-6,0
50652820981,-6,-4,-31,-4,-2,-1,-3,-10
50652820981,0,1,1,1,1,1,-11,23
50652836057,-11,-7,-4,3,1,0,9,9
50652836057,-6,3,-1,-6,-4,-5,0,-9
50652844213,-9,-5,4,4,-1,0,-1,-8
50652844213,-2,4,-18,-7,-1,-2,1,-1
50652859214,-77,-15,-7,-2,-2,-1,-1,8
50652859214,21,5,6,1,0,0,0,2
50652859809,13,-2,-9,-4,-1,-1,13,-2
50652859809,9,7,24,6,4,1,8,-14
50652873579,19,4,-2,-5,-2,0,-9,14
50652873579,10,-5,-10,0,0,0,-4,-5
50652881084,-36,-4,0,0,-1,1,-4,2
50652881084,5,-2,9,4,-2,-1,22,13
50652896109,17,4,1,5,-2,0,-5,-13
50652896109,-7,1,22,-1,-1,1,-3,10
50652904301,-12,-2,-10,-2,1,0,-1,-4
50652904301,8,0,-19,-6,-2,-1,1,-3
50652919251,21,2,10,2,-1,-1,-11,4
50652919251,13,10,6,5,0,0,15,6
50652919874,68,10,25,-1,-3,-1,-2,-3
50652919874,-18,-9,-13,-6,-1,0,-2,-3
50652933646,7,0,-3,4,3,1,1,-4
50652933646,21,-1,-6,-3,-4,-2,-14,-21
50652941093,32,1,0,1,-2,1,25,21
50652941093,-52,-3,-3,-1,-1,-2,0,-7
50652956155,14,3,0,-3,0,0,3,-3
50652956155,-13,-10,-13,-3,1,-2,-1,5
50652964270,-37,-2,7,1,-1,-1,-9,-17
50652964270,27,-1,-16,-1,-1,1,10,-6
50652978642,-3,-3,-8,-5,0,-1,-10,6
50652978642,2,0,14,7,-1,-2,8,0
50652986788,-35,-10,-6,-1,0,0,-7,-6
50652986788,-22,6,11,5,0,2,3,15
50652993588,33,4,0,-5,-5,-2,-9,-20
50652993588,-32,-9,-11,-9,-2,-1,-7,-5
50653001101,-4,-9,-23,-4,-2,-3,-7,-6
50653001101,6,-2,20,6,0,-2,-1,0
50653016019,-14,-3,-10,-1,1,0,-1,-7
50653016019,-4,-2,7,-5,-5,-1,-6,-3
50653024140,-16,-1,-26,-3,0,-1,12,9
50653024140,-6,-6,7,2,0,-2,3,1
50653038456,35,11,0,-1,-1,-1,3,-9
50653038456,32,11,11,6,3,3,4,-6
50653046728,0,-3,3,-3,-1,-2,-15,-2
50653046728,-7,-8,-6,-3,-2,0,4,-18
50653053569,20,-1,-7,-4,-1,1,2,15
50653053569,-39,-7,-1,4,1,3,-5,0
50653061051,-13,3,14,1,-2,-1,-9,-13
50653061051,49,11,-7,-3,0,0,-7,15
50653077404,-60,-15,5,-1,0,-2,4,-2
50653077404,-6,-3,-15,-1,-2,-1,-17,-8
50653084265,49,-2,1,-1,-2,1,9,18
50653084265,-9,-6,-22,-7,-2,-4,-2,1
50653098630,-11,2,28,7,0,-2,20,-6
50653098630,5,0,7,-6,-3,-5,14,4
50653106657,5,0,-12,-2,0,-1,-10,3
50653106657,-44,-16,-3,0,0,0,7,5
50653113575,61,-4,-7,-2,-3,-2,3,4
50653113575,-1,-2,-21,1,2,2,-25,9
50653129293,44,15,63,5,-1,1,3,0
50653129293,-13,5,-2,-1,0,0,13,8
50653136007,8,2,-10,-3,-1,-1,-4,2
50653136007,-57,-10,-13,-2,-3,-5,5,-21
50653144144,-10,-1,-9,-5,-1,-2,-3,-6
50653144144,6,2,0,0,1,0,10,-8
50653158563,11,-1,5,-2,-3,-2,-5,-5
50653158563,24,11,-1,2,1,1,5,1
50653166755,-11,-13,-26,-3,-3,-2,0,2
50653166755,3,4,28,-1,1,0,0,-1
50653181732,-28,-8,-13,-1,-1,-1,-15,-7
50653181732,14,2,2,-1,0,0,2,-1
50653182313,-33,-1,0,-1,0,-2,-9,-4
50653182313,65,6,-3,-2,0,3,-14,0
50653196056,-18,-4,-6,-1,2,0,4,6
50653196056,13,-3,8,1,-1,-1,2,1
50653204160,-29,-9,-2,-2,-1,-2,-2,4
50653204160,-27,-4,-10,-2,-3,-3,-7,3
50653218512,-14,2,3,-2,-1,0,3,15
50653218512,5,0,1,-1,1,-2,-8,-2
50653226694,-3,2,-4,-1,-1,-1,0,9
50653226694,1,-2,-2,0,-1,-2,2,6
50653241731,-35,-10,-3,-2,-1,1,14,10
50653241731,19,10,-6,-3,-3,-1,-1,8
50653242309,13,3,-1,-1,1,-1,-5,-31
50653242309,-19,-6,-1,2,3,1,7,-2
50653256063,29,20,10,0,-2,-3,-8,-2
50653256063,-15,-7,-13,-9,-1,0,-1,-3
50653264260,16,-10,1,0,1,0,16,16
50653264260,-45,1,-2,3,-1,-3,-7,-3
50653278579,5,-6,1,-4,-2,-1,-4,-15
50653278579,-19,-5,2,1,-1,0,6,9
50653286844,-16,8,4,1,-1,-2,-3,-15
50653286844,24,-7,-14,-6,-3,-2,10,25
50653301549,-30,-5,2,8,1,1,-1,-15
50653301549,14,-1,-14,-7,-5,-4,-10,-2
50653302389,-5,0,-7,-2,-1,-2,5,2
50653302389,13,0,8,1,-2,-2,-15,-13
50653315996,-9,-1,-24,-5,-2,0,32,-18
50653315996,10,1,8,0,-2,-1,-8,0
50653324270,-16,-4,2,1,1,0,5,-3
50653324270,-11,-5,-11,-2,2,0,-9,-7
50653338478,18,12,11,-4,-4,-4,-13,1
50653338478,-44,-13,-3,3,0,-1,2,0
50653346740,77,8,14,0,-1,-1,1,8
50653346740,-27,-12,-3,2,-2,-4,0,-12
50653361841,28,0,0,-3,0,-1,-13,-9
50653361841,13,-5,4,0,-2,0,14,9
50653362317,-51,-9,-18,1,1,0,1,11
50653362317,29,1,3,-4,-3,-2,-6,-30
50653375909,8,2,-5,0,1,-1,-24,-17
50653375909,1,-2,1,-1,-1,-2,23,23
50653384249,-19,-2,3,-1,0,-1,-8,-11
50653384249,16,2,-5,-4,-1,0,0,9
50653398467,-20,-1,-17,-6,-2,-2,4,16
50653398467,-21,-1,17,4,-2,-2,-6,-15
50653406764,-5,11,7,4,0,1,2,-3
50653406764,49,5,5,-9,-5,-3,-4,5
50653421755,-45,-17,-14,-2,-2,-3,-12,-4
50653421755,16,2,3,2,2,0,12,2
50653422339,-53,-10,-4,-3,-2,0,-4,-4
50653422339,5,5,3,4,0,0,-11,-11
50653436064,-16,2,15,0,-1,0,2,-1
50653436064,18,-2,11,2,-1,-1,-18,-23
50653444096,2,-1,-15,-6,1,1,6,14
50653444096,-5,5,-52,-4,1,3,3,24
50653458587,-18,-5,44,6,-1,-1,-7,-9
50653458587,52,-3,15,-5,-3,-1,-2,-10
50653466724,4,-1,9,-1,-2,-2,-4,6
50653466724,8,6,0,7,1,3,-21,1
50653481680,11,-1,-21,-9,0,0,21,7
50653481680,-22,-6,-14,1,-1,-2,-5,2
50653482462,36,18,11,4,2,0,-6,-6
50653482462,25,-6,5,-4,-3,-1,7,1
50653495952,-29,-9,-9,0,-2,-3,5,-8
50653495952,4,2,-2,-3,-1,-2,-6,-13
50653504186,12,-1,-11,-1,-3,-1,0,2
50653504186,-14,-2,27,1,-1,0,4,3
50653518505,17,10,18,3,-1,-1,-4,12
50653518505,9,-1,-55,-12,-1,-2,1,1
50653526712,-17,-6,10,2,-3,-2,7,-13
50653526712,-36,-12,-4,-3,-1,0,-7,2
50653541046,2,-2,5,-2,-1,-1,-5,-6
50653541046,-1,0,5,2,0,0,3,-1
50653549860,9,2,11,1,-7,-5,-17,-13
50653549860,-9,5,3,-6,-1,-3,4,1
50653556083,41,8,-8,2,-1,1,-5,9
50653556083,-21,-1,-17,1,3,1,0,6
50653564841,7,-7,-2,-2,-2,-1,0,4
50653564841,4,12,17,3,0,-2,2,-18
50653578444,6,-7,-41,-5,-2,-1,1,15
50653578444,16,5,8,0,0,0,8,-2
50653587342,-12,-4,-9,-3,2,0,-1,-8
50653587342,10,3,5,-1,-2,-1,9,5
50653601022,-8,0,4,3,0,0,-3,17
50653601022,-30,-3,10,0,-2,-2,-9,-14
50653609883,1,-3,2,0,-1,0,-5,-5
50653609883,-14,-6,-13,-7,0,-1,38,8
50653616059,15,4,1,-2,-1,-2,4,6
50653616059,-39,-2,2,5,0,-2,-6,-3
50653624845,58,3,-8,-4,0,-1,-9,-4
50653624845,-20,-4,12,6,0,-2,-6,-10
50653638533,-26,0,1,-1,-2,-2,-5,17
50653638533,41,3,5,0,-2,-2,5,-9
50653647329,-44,1,13,4,3,2,8,0
50653647329,10,-12,-66,-9,-4,-4,-8,0
50653661075,-8,-4,22,-3,-2,-3,-8,-19
50653661075,22,9,12,2,-1,-1,4,7
50653669912,-32,-5,-19,-3,-2,-1,-8,2
50653669912,-11,-11,22,4,2,-2,21,-9
50653684946,17,1,-56,-5,-2,-2,-6,-16
50653684946,-10,6,4,-1,0,-1,3,16
50653686399,16,1,-2,-2,-3,-2,0,-18
50653686399,-68,-7,13,-1,-2,0,-7,1
50653698440,23,3,5,0,1,0,-6,-8
50653698440,-61,-4,-7,-4,0,1,4,12
50653707326,-2,-3,4,4,0,0,7,-3
50653707326,34,2,-19,-7,-2,1,-16,1
50653721097,-15,1,22,2,-1,-2,1,-4
50653721097,-6,-11,-8,-8,-3,-3,-10,-3
50653729869,27,13,16,3,-1,-2,-3,7
50653729869,-46,-8,0,1,-1,-1,-6,-6
50653735915,20,8,20,2,1,1,4,16
50653735915,7,-7,11,6,-1,-1,-3,3
50653744873,-8,-13,-19,-8,-1,-5,-3,3
50653744873,64,13,6,0,2,-1,-8,3
50653758483,-81,-11,-5,0,-2,-1,-5,-31
50653758483,12,0,23,3,-4,-2,-8,-7
50653767396,-20,-5,15,-8,-6,-2,-7,2
50653767396,50,-2,-19,1,-2,1,3,12
50653781096,7,-2,3,1,1,0,-6,-7
50653781096,13,3,-5,0,-2,0,-2,-5
50653789847,14,2,4,1,1,1,1,0
50653789847,-10,-9,11,-3,-3,-3,4,-6
50653796018,6,0,2,3,1,1,3,9
50653796018,10,-4,-21,-7,-1,-2,0,-2
50653804861,6,-4,13,0,1,1,1,-5
50653804861,-6,5,4,-4,-3,-2,-7,-3
50653818444,-1,-5,-3,-1,0,3,14,20
50653818444,49,10,-3,2,-2,-2,0,-1
50653827378,-81,-9,-10,-3,-1,-4,-15,7
50653827378,12,0,3,0,-2,0,-9,-2
50653841079,-12,2,7,0,-1,-2,6,-6
50653841079,11,-3,1,0,4,1,-10,-3
50653849844,-8,1,-8,3,0,0,34,13
50653849844,-4,15,-6,-4,-3,-4,-17,-9
50653855954,5,-5,-23,-7,-3,-1,10,3
50653855954,-20,-4,13,-1,1,1,0,2
50653864837,-4,2,-8,2,0,-2,-10,-6
50653864837,-12,-1,6,6,3,1,-4,7
50653878536,34,-5,-2,0,-2,-2,10,2
50653878536,-5,14,6,1,-2,0,-5,-4
50653887337,29,-3,-8,-3,-2,0,-3,-6
50653887337,-2,-1,19,2,-2,0,3,1
50653901109,22,-4,-20,-3,-1,-4,-13,-6
50653901109,2,-6,-19,-3,1,0,6,13
50653909817,2,-4,6,-3,-2,-4,-10,-7
50653909817,22,13,10,0,1,3,20,-15
50653915970,-57,-10,4,-3,-3,-3,-12,3
50653915970,36,-2,0,0,0,1,3,9
50653924856,-22,1,-3,0,-1,3,3,0
50653924856,-5,-6,-7,2,-1,-4,-13,-11
50653938528,10,1,-1,-7,-3,0,-8,4
50653938528,35,13,-2,0,0,-2,10,3
50653947356,32,1,-10,-3,-3,-1,-3,-2
50653947356,-80,-15,-10,-2,0,-2,-11,-13
50653961068,61,4,28,6,-5,-3,3,-3
50653961068,-45,-12,-13,-1,1,-1,-8,7
50653969858,20,0,19,-7,-4,-1,-8,-4
50653969858,-8,3,5,2,0,1,-1,9
50653976131,17,0,-4,1,0,-2,-14,10
50653976131,-8,-8,25,2,2,2,10,-12
50653984818,2,1,-9,-8,-3,-1,-3,-2
50653984818,17,-3,5,1,-1,0,5,7
50653998571,-26,2,0,0,2,3,-10,-8
50653998571,-4,-6,-9,-3,-6,-3,4,-3
50654007357,4,-5,-8,0,-1,-2,11,7
50654007357,-56,5,-1,-6,-2,-3,-6,-12
50654021589,9,-1,1,2,0,2,-1,-2
50654021589,27,3,0,-4,-3,-4,2,-4
50654036672,-29,-3,-3,4,0,1,-12,-4
50654036672,60,1,10,-3,-4,-2,6,5
50654037336,-4,1,-20,-3,0,-1,7,-14
50654037336,-14,-8,4,1,1,-1,-6,6
50654044876,-11,-1,-18,1,0,-2,-5,-10
50654044876,14,5,29,2,2,0,-1,21
50654058322,-37,-7,0,1,0,-3,-1,-28
50654058322,3,1,-8,-5,-2,-3,7,2
50654074812,-1,-4,-8,3,3,0,4,1
50654074812,6,4,-11,0,-2,-1,-4,0
50654081738,18,-12,7,-2,-3,-1,7,9
50654081738,-27,0,-3,-2,-3,-2,-7,-9
50654088473,-3,-4,-8,0,1,2,3,0
50654088473,57,-3,-23,-6,-6,-2,-5,13
50654104664,-75,2,26,1,0,-2,18,-6
50654104664,3,-3,-25,-5,1,0,-4,2
50654106264,31,3,6,-4,-5,-4,1,-10
50654106264,4,-13,-13,-1,1,0,6,-4
50654118460,6,5,-13,-6,-2,-1,-6,3
50654118460,-22,-4,28,10,0,0,0,5
50654127403,-3,8,28,3,1,0,5,-1
50654127403,-24,-5,-32,0,-3,-3,-12,0
50654141746,7,5,-2,-1,0,-1,-4,-12
50654141746,-1,-1,-11,-3,0,1,-7,3
50654148457,4,4,29,8,-2,-3,-2,14
50654148457,20,2,-1,-4,-3,0,5,16
50654164748,-15,-5,-4,-5,-1,-2,22,6
50654164748,-2,-2,-3,1,-2,-1,5,-7
50654166371,31,-1,-27,-2,-1,-1,-2,1
50654166371,-17,-1,22,-4,1,-1,1,11
50654178484,50,15,-6,3,1,2,0,-3
50654178484,-2,1,-7,0,0,2,10,23
50654187369,-30,-8,-5,-3,-1,-1,-5,-4
50654187369,36,-6,-9,-2,-1,-1,5,-2
50654201522,9,1,18,-4,0,-2,-16,14
50654201522,-5,1,-5,-3,-3,-3,-4,-13
50654208349,-11,1,-3,2,-1,1,5,-1
50654208349,-57,-15,18,2,1,-1,2,-2
50654224830,-6,-9,-27,-4,-4,-2,-10,-2
50654224830,4,5,-9,-1,2,2,6,15
50654226255,-51,-3,5,2,0,-2,0,-2
50654226255,15,-4,4,4,1,-2,-33,-25
50654238352,18,2,4,-6,-2,-1,0,-3
50654238352,-27,-4,-7,-1,1,-2,-1,-11
50654247278,82,-2,-12,-4,-2,0,2,9
50654247278,-92,-6,-10,5,3,0,-4,-15
50654261542,-5,3,1,0,-4,-1,14,21
50654261542,27,3,-1,-4,-3,-1,7,-23
50654268305,33,8,-3,-1,0,-2,-5,-12
50654268305,71,2,2,-3,-1,-2,9,3
50654284714,-41,-14,-13,-3,-2,-1,-1,-4
50654284714,-22,-4,3,1,1,1,-8,2
50654286313,-6,-4,-1,0,-1,-2,4,-4
50654286313,55,5,-11,-8,-6,-2,-1,-12
50654298313,-3,-2,13,8,5,1,-5,-5
50654298313,29,10,1,-5,-4,-4,-24,11
50654307345,-12,-15,4,-2,1,2,1,-3
50654307345,-7,10,-29,-8,-1,-1,4,-19
50654321629,3,-5,-6,7,-3,-2,-11,5
50654321629,-6,3,-7,-1,-1,-2,0,-7
50654328504,-13,0,-3,-2,-1,-1,-4,10
50654328504,16,1,-6,-2,-2,-2,1,-5
50654344791,-71,-9,0,-2,0,1,16,-5
50654344791,21,6,-6,-1,-1,-1,4,-6
50654346314,-7,3,3,-4,-4,-1,-1,2
50654346314,-12,-5,15,-3,-2,0,11,13
50654358468,4,-3,-5,1,1,0,-6,-10
50654358468,-2,-13,12,1,-3,0,-3,0
50654367274,-21,3,6,0,1,-2,-10,-2
50654367274,10,5,-2,3,-1,1,2,-8
50654381654,22,-2,-1,-4,-1,-3,-19,10
50654381654,-10,-8,13,-3,-3,0,3,-13
50654388629,-7,4,-8,-4,-2,-3,-10,-13
50654388629,-29,-7,11,3,3,1,2,9
50654404885,98,14,-1,1,-1,0,-2,-11
50654404885,-80,-15,-13,-5,0,0,17,4
50654406374,15,-1,8,0,-5,-2,3,7
50654406374,13,2,-6,2,0,-1,1,3
50654418329,-11,2,21,-2,-2,-1,4,-6
50654418329,15,-3,-40,-3,-2,-3,-28,-34
50654427333,-3,5,-18,-2,-1,-3,7,4
50654427333,-40,-9,15,5,3,1,-2,-1
50654441785,54,11,6,-2,0,-1,-12,6
50654441785,4,0,-2,4,3,0,-2,-9
50654448315,-14,-2,5,-1,1,0,-1,4
50654448315,11,4,-33,-5,-3,-3,-10,-26
50654464739,-30,-5,-8,-1,-1,-2,-3,1
50654464739,-3,1,12,8,0,2,3,4
50654466322,57,1,-13,-6,-1,0,5,0
50654466322,-16,1,4,-1,0,-1,11,9
50654478372,10,-4,17,4,-2,0,-17,-8
50654478372,-36,-3,-12,-4,-1,-2,13,-3
50654487336,-6,4,-2,-2,0,-2,2,-1
50654487336,12,-2,11,-1,-1,-1,-7,-7
50654501483,-10,-2,-17,-2,0,-2,0,-6
50654501483,63,5,13,2,1,0,-10,22
50654508328,-32,-5,-9,1,-1,2,-3,-1
50654508328,-12,0,26,-2,-5,-5,-2,2
50654524661,-24,-2,-12,1,3,2,11,12
50654524661,10,5,8,-1,0,0,-5,4
50654526239,4,-9,14,-2,-2,-2,-12,-15
50654526239,-38,-6,-11,2,-1,-1,-11,1
50654538281,48,9,0,-3,0,-1,11,10
50654538281,20,-4,12,-1,0,-2,-8,1
50654547344,-24,-6,-1,-2,-2,0,0,5
50654547344,17,3,2,1,0,0,4,15
50654561781,24,2,-6,-3,-3,0,-2,-3
50654561781,-12,-8,-2,-2,-1,-2,2,-6
50654568476,-4,9,11,3,4,0,-12,-10
50654568476,32,-10,-31,-5,-2,-2,8,8
50654584909,-48,-1,-13,-5,0,1,6,7
50654584909,55,3,15,1,-2,-3,-11,-15
50654586302,-57,-12,-8,-2,-1,-2,-4,9
50654586302,4,7,16,4,1,-2,-4,16
50654598424,-11,-2,-7,-1,0,1,-2,-2
50654598424,35,6,7,1,-1,-2,9,-3
50654607350,-8,-5,-10,0,1,-1,4,13
50654607350,15,6,3,-4,-2,-1,0,2
50654621734,-18,-6,-1,-2,-4,-5,-8,-16
50654621734,-19,-3,-2,2,-2,-2,2,4
50654628394,35,5,-3,-2,-2,0,1,-8
50654628394,-14,9,0,2,0,0,4,4
50654644829,15,1,2,1,-1,-3,-5,-6
50654644829,31,0,0,-5,-3,1,1,4
50654646390,-75,-8,-13,-4,0,-2,-13,-14
50654646390,-8,-4,-2,-1,-1,1,6,-11
50654658518,49,6,0,1,-2,-1,2,13
50654658518,-53,-8,0,-9,-3,-3,-9,-21
50654667360,-19,-3,1,4,1,4,9,15
50654667360,59,4,8,-2,-1,-1,-28,-8
50654681564,-25,-6,-6,-4,-3,-3,18,-2
50654681564,-24,0,-5,1,-3,-2,-1,13
50654688490,61,5,7,-3,-3,-5,-8,-12
50654688490,-41,-5,-3,0,1,1,-5,2
50654704812,7,-6,7,-1,0,0,-3,14
50654704812,-10,2,-11,-1,-1,0,4,14
50654706298,23,-2,-3,-1,-2,-2,8,0
50654706298,21,8,-1,4,-1,-4,-6,0
50654718271,28,1,-5,-7,0,0,-12,3
50654718271,-27,-3,1,4,2,1,11,3
50654727287,32,2,1,-6,-4,-2,-12,-15
50654727287,3,-9,1,-1,-1,-2,4,-6
50654741477,-17,4,-1,4,2,0,-19,-23
50654741477,-1,-5,-2,-8,1,0,23,11
50654748326,50,16,13,7,-1,1,-3,9
50654748326,-77,-16,-17,-5,-2,-1,-2,-11
50654764667,-12,-2,5,4,-1,-2,-4,1
50654764667,12,1,-6,-8,-3,-2,-4,2
50654766339,-2,-3,-5,3,1,1,5,-15
50654766339,-12,0,-3,-2,-2,1,10,1
50654778300,28,10,-3,-3,0,-1,-13,-11
50654778300,-37,-8,4,2,-2,-2,6,13
50654787270,-13,-5,-3,-3,-1,0,-4,2
50654787270,2,0,-1,3,2,0,-9,-4
50654801697,-4,2,-3,-4,-3,0,5,10
50654801697,8,6,3,1,0,-2,-16,-18
50654808444,-19,-4,-4,1,1,-1,-8,-7
50654808444,20,1,6,-2,-4,-3,3,5
50654824892,12,-9,2,-1,-1,-1,8,10
50654824892,-77,0,-6,0,-3,-2,-15,-11
50654826339,55,5,-5,0,0,-1,13,6
50654826339,-12,0,0,-3,0,0,3,-4
50654838269,-7,3,15,1,0,-2,4,-8
50654838269,49,9,-3,3,1,0,-3,8
50654847293,-27,-7,-6,-5,-1,1,10,-15
50654847293,-28,-9,-13,-4,-2,-2,3,1
50654861639,-54,-14,4,4,0,1,1,-7
50654861639,61,26,16,-4,-2,-3,9,6
50654868480,-37,-8,2,1,-2,-2,3,6
50654868480,28,6,0,1,0,0,-3,-1
50654884124,-53,-8,-20,-4,0,0,-6,-12
50654884124,17,-5,5,2,-2,-1,8,32
50654890944,89,6,-12,-6,-2,-3,2,8
50654890944,-2,-1,10,1,-1,-2,5,-13
50654898495,67,11,-11,-4,1,1,-6,4
50654898495,2,-9,1,3,-2,-2,-1,-29
50654907380,-19,7,1,4,1,0,-2,-4
50654907380,16,-2,-7,-6,-2,0,-4,15
50654921475,-6,-11,1,-3,-2,-2,7,-3
50654921475,8,0,-2,-1,1,0,-3,-13
50654928447,-34,-7,3,-1,-3,-2,1,-5
50654928447,-2,3,-7,3,0,1,-8,-2
50654944138,-11,-8,1,-4,-5,-4,0,9
50654944138,-13,-3,-7,1,-1,-2,5,-23
50654950849,-27,-5,-2,-3,1,-1,-4,4
50654950849,2,-5,-5,-1,-1,-3,0,2
50654958490,4,16,19,4,-2,-1,9,-13
50654958490,69,11,-5,-3,-2,-2,-36,3
50654967340,-82,-1,-3,-3,0,-3,13,-2
50654967340,15,9,20,4,0,1,10,2
50654981599,-47,-13,8,1,0,-1,6,-14
50654981599,-33,-15,-39,-5,-1,-2,-18,-10
50654988392,22,-2,2,-2,-3,1,0,5
50654988392,9,-6,2,-3,-1,0,-6,-7
50655004009,-8,5,-1,6,2,-1,1,10
50655004009,-26,-8,7,-4,-1,0,3,6
50655010893,21,1,0,0,-1,-1,-2,8
50655010893,-14,-5,-8,0,0,-3,-14,-11
50655018321,22,-6,-12,-4,-4,-1,-3,0
50655018321,-20,4,3,-2,0,1,0,-4
50655027381,18,-4,1,1,2,-1,1,6
50655027381,1,10,9,1,1,1,5,0
50655041593,-19,-17,-3,0,1,-1,0,2
50655041593,-3,2,1,-2,-2,-1,5,0
50655048451,-7,0,-12,0,-1,-1,-8,-3
50655048451,30,1,17,-4,-2,0,2,11
50655064765,7,0,-2,-2,-2,-1,1,10
50655064765,-18,-4,2,4,1,0,6,6
50655070935,-4,-2,-10,-5,-2,0,-20,-7
50655070935,-19,2,4,2,-3,-2,-1,-1
50655087370,20,6,2,0,0,0,6,4
50655087370,-7,-11,4,0,-1,1,11,9
50655088803,6,6,-2,-1,-2,-3,-15,0
50655088803,-29,-12,5,2,-2,-4,-8,-28
50655101565,-39,-8,-6,0,-3,0,-5,8
50655101565,-6,9,11,-6,-2,-2,-5,6
50655108450,-12,-13,-9,-1,0,0,8,0
50655108450,-22,0,-4,0,0,-1,9,8
50655123990,17,-2,-11,-5,-4,-3,-1,-6
50655123990,13,-6,1,2,-1,1,-4,-9
50655130932,8,-9,10,-1,-3,1,7,12
50655130932,5,-2,-3,-2,-2,-3,-5,-1
50655147284,-18,3,2,-3,1,1,7,-3
50655147284,35,2,2,3,-2,-2,3,-4
50655148778,17,-5,1,-1,-1,-2,-9,12
50655148778,-54,-12,-2,3,2,1,20,9
50655161684,78,9,2,-3,1,0,1,5
50655161684,-13,-7,-2,0,-1,-2,-19,-2
50655168404,-14,2,-7,-1,0,-1,8,-6
50655168404,-6,-2,0,0,1,-1,-1,8
50655184098,34,0,-3,-2,-2,0,-16,-10
50655184098,-11,0,-3,0,-2,-1,6,-3
50655190850,-8,-2,-2,-5,-2,-2,10,-16
50655190850,29,11,-2,-3,-3,1,1,18
50655207340,-21,-6,0,-1,0,-1,-9,-11
50655207340,2,5,-8,0,-2,-2,-1,-2
50655208822,31,7,1,-3,-1,-2,4,1
50655208822,58,4,9,-2,-2,-2,-13,-5
50655221534,-51,2,-4,-3,-2,1,2,10
50655221534,14,-3,16,5,1,0,3,2
50655228507,-9,4,-22,-2,-1,-1,-2,-8
50655228507,-7,-2,-2,-3,-2,0,-16,2
50655244170,9,-3,-4,-2,-4,-3,12,9
50655244170,-24,-3,-11,-4,2,1,-10,-8
50655250851,22,7,20,8,0,-2,0,-5
50655250851,31,-1,-7,-1,1,2,-13,-12
50655267199,-43,-1,-1,1,-4,-5,-13,-14
50655267199,4,-2,-7,-4,1,-1,4,6
50655268748,-59,-6,11,1,-1,-2,1,-2
50655268748,44,-1,-7,-3,0,0,-4,-15
50655281939,12,1,0,-1,0,-1,15,10
50655281939,-73,-18,-7,-3,0,-2,-18,-9
50655288456,10,2,9,0,1,3,15,4
50655288456,43,0,-7,-1,-1,-1,8,7
50655303946,-51,0,0,2,-1,1,7,-7
50655303946,22,8,4,-1,-1,1,-5,-9
50655311031,18,-6,-11,-2,-4,-2,-6,8
50655311031,-70,-13,6,0,-1,-3,6,12
50655327321,-3,-1,6,0,1,-2,-11,-26
50655327321,39,8,-5,0,-1,0,9,8
50655328754,37,-1,3,1,1,-1,-1,5
50655328754,-23,3,-6,1,1,2,2,-8
50655342010,20,-2,-6,-5,-4,-2,-16,-14
50655342010,10,4,6,0,-1,-1,4,11
50655348520,14,-1,-9,-2,0,-2,-7,-13
50655348520,-87,-9,0,-8,-3,-5,-3,-5
50655364181,49,4,-1,6,3,1,3,-1
50655364181,0,4,-2,-1,0,1,16,-7
50655370867,8,-1,1,-2,-3,-2,2,5
50655370867,4,-3,-2,0,1,-1,-2,0
50655387179,0,-1,2,-1,-2,-3,-9,-4
50655387179,-16,-4,-5,0,-3,-2,2,9
50655388773,-14,2,9,2,3,1,-3,0
50655388773,17,5,4,-1,-4,-1,0,5
50655402093,72,-3,-7,-2,1,0,-2,15
50655402093,-40,-13,2,-2,-2,-1,-13,-17
50655408245,-1,4,-3,-1,-2,-2,15,14
50655408245,-1,-4,-14,-1,0,0,-2,-7
50655423932,22,6,2,-1,2,2,2,16
50655423932,8,2,-5,0,-1,-2,-1,1
50655430819,-22,3,-1,-2,-1,-1,-8,-8
50655430819,20,9,2,0,-1,-2,2,-5
50655447096,-38,-13,-7,-1,-1,-1,1,3
50655447096,-19,-6,0,2,1,0,4,-5
50655448748,18,10,10,6,0,0,0,-2
50655448748,6,0,-4,-8,0,-1,-6,-8
50655461536,-83,-11,-17,-6,-3,-4,-3,3
50655461536,36,-6,11,1,-1,-1,12,6
50655468320,-16,-4,-2,0,-1,2,-9,-17
50655468320,20,-1,5,6,0,-1,-16,-11
50655484137,22,9,0,2,1,1,7,4
50655484137,9,0,-11,-5,-2,-3,-4,-5
50655490857,-20,-2,4,0,0,-1,-7,3
50655490857,53,7,-3,-3,-2,-1,-7,2
50655507314,-24,-8,3,-2,-1,1,20,-6
50655507314,13,24,1,2,-1,-2,-9,14
50655508790,24,-9,-1,-4,-3,-2,-5,-1
50655508790,-12,1,-8,-1,-3,-2,10,1
50655520852,-21,-8,3,2,0,0,0,3
50655520852,6,-5,-7,-2,-3,-3,3,-4
50655529825,-34,-9,-4,-3,0,0,-1,3
50655529825,8,-2,0,4,-1,1,-8,1
50655544164,32,5,1,-5,-2,-1,8,2
50655544164,-33,-10,-9,-5,-1,0,-3,-7
50655550930,6,3,2,0,1,-3,-19,-1
50655550930,-13,5,2,2,1,0,15,1
50655567329,-1,-2,8,0,-1,-2,-7,4
50655567329,14,-7,-23,-2,2,1,-17,-20
50655568755,24,4,-3,-5,-5,-2,31,19
50655568755,-8,-2,3,0,1,0,0,5
50655580982,49,5,-1,1,1,1,-16,-4
50655580982,5,3,8,-2,-2,-2,-3,1
50655589814,18,2,-8,-5,-1,0,-6,8
50655589814,18,0,5,4,0,-2,8,-29
50655604169,5,7,-5,1,-1,-2,4,-2
50655604169,-19,-8,20,-6,-1,-3,4,1
50655610911,13,3,-2,1,-1,0,-10,-18
50655610911,0,-10,-7,-2,-1,0,9,14
50655627137,-50,-4,-9,-2,-3,1,-6,-8
50655627137,54,8,12,2,-2,-1,7,3
50655628799,-8,-16,-5,2,1,0,6,11
50655628799,-5,6,0,0,0,-2,-2,5
50655640780,1,3,3,-4,-3,-3,-4,-5
50655640780,76,4,-12,-1,0,-1,-30,8
50655649831,-94,2,14,-2,-4,-3,10,-11
50655649831,-9,-10,-11,-1,-1,2,7,12
50655664181,12,4,7,2,-2,-2,-9,-1
50655664181,-25,0,-2,-2,0,-1,6,17
50655670959,6,0,2,-2,0,-2,-13,-18
50655670959,-30,-10,-11,-4,-4,-2,-1,-15
50655687264,-6,2,8,0,2,2,9,-3
50655687264,3,-8,3,1,-4,-1,2,4
50655688764,15,-1,-9,-2,-2,-4,-12,-7
50655688764,-15,4,6,-3,-1,0,5,6
50655700819,1,-5,-2,-2,-1,-2,-1,-8
50655700819,-25,3,-9,2,1,-1,5,-1
50655709795,-41,-18,1,-3,-1,0,3,2
50655709795,13,6,-4,-3,-1,-1,-22,0
50655724132,-51,11,4,3,0,0,-5,-3
50655724132,-31,-8,-13,-7,-3,-2,3,10
50655730781,44,5,12,1,0,-2,11,-6
50655730781,-27,8,6,0,-1,0,3,3
50655747312,24,-10,-10,-7,-6,-3,-9,-1
50655747312,-7,4,1,4,4,1,-7,-9
50655748789,-7,-2,-2,-5,-4,-2,6,22
50655748789,5,-13,-7,0,1,-3,0,-15
50655760996,4,-4,-3,0,2,0,-2,6
50655760996,-10,2,6,0,-1,-1,3,-2
50655769769,-6,-5,-6,0,-2,-1,-15,-17
50655769769,-7,-7,-18,1,0,1,4,21
50655783951,-23,-18,-11,-5,-3,-3,-7,-12
50655783951,13,4,0,-2,0,1,10,10
50655790942,22,6,-17,-1,1,1,7,9
50655790942,-14,-1,23,1,-2,-2,1,3
50655806659,58,7,4,-5,-3,-2,-1,-15
50655806659,-19,-11,-23,1,0,0,-4,-14
50655813339,12,5,18,3,1,2,-6,-9
50655813339,7,-3,-5,-6,-4,-5,-4,-1
50655820964,15,7,3,0,-2,2,4,14
50655820964,-15,-1,6,0,0,0,15,-8
50655829790,58,7,3,0,0,-2,5,8
50655829790,-95,-10,-2,-3,-3,-4,-25,-42
50655852374,-18,-2,1,1,1,-4,4,6
50655852374,37,4,-4,-2,-2,0,-1,21
50655853804,-5,-2,-5,4,1,0,-6,7
50655853804,48,6,0,-3,-1,-3,2,-2
50655866729,-23,1,-1,0,1,0,-7,-12
50655866729,-43,-2,11,-1,-3,-5,1,-14
50655873537,7,-4,-12,0,1,2,-2,5
50655873537,62,1,19,2,-2,2,6,12
50655880746,-61,1,-2,2,0,-1,-6,-1
50655880746,10,-7,0,0,1,-4,-7,7
50655889812,-27,-1,-7,1,0,1,1,-8
50655889812,14,-1,-6,-3,0,-1,-17,2
50655904038,42,5,9,8,1,0,11,-7
50655904038,7,-3,5,-11,-3,-1,14,10
50655911001,-70,-15,-2,-3,-2,-3,-6,-11
50655911001,33,1,-8,-1,-2,1,-1,16
50655926518,19,-11,0,-2,0,0,-2,-13
50655926518,-19,4,6,1,-3,-3,-12,-10
50655933226,6,16,1,1,-2,0,6,2
50655933226,-10,3,-1,4,2,-1,-4,1
50655940965,-26,-10,-9,-8,-4,-2,12,10
50655940965,52,-1,-8,-2,-1,-1,-1,-19
50655949796,-12,-1,16,3,-1,0,-18,-3
50655949796,17,12,14,10,-1,0,45,8
50655964078,11,3,-23,-15,-4,-3,-13,-13
50655964078,-41,0,-1,2,3,4,-9,5
50655970927,-18,-11,-4,-2,-1,-2,0,-5
50655970927,0,-4,-12,-4,-1,-1,-5,-9
50655986673,25,5,10,6,0,1,-4,5
50655986673,-8,-1,-1,0,-1,0,-8,-16
50655993486,3,2,-6,0,-1,-1,-5,-6
50655993486,-30,-12,-3,-9,-2,0,7,0
50656009664,-8,-6,2,-2,-2,-4,1,3
50656009664,24,0,-27,-2,-2,-1,-14,-15
50656011324,22,3,1,-1,-1,-1,-5,2
50656011324,3,5,-1,0,2,0,-9,-12
50656024053,-45,-15,-1,-2,-2,-1,22,16
50656024053,-41,-2,3,2,-1,-1,8,-4
50656031018,28,6,9,-1,-2,-1,-4,-4
50656031018,-12,10,-5,-2,-3,-2,-1,9
50656046624,-19,0,-6,5,2,2,3,11
50656046624,10,-7,16,-2,-1,0,11,15
50656053422,-16,-10,-9,-2,1,-1,14,-1
50656053422,48,2,0,-4,-1,1,-11,5
50656069813,-63,1,-9,2,-1,-1,-15,-9
50656069813,32,-2,14,3,-2,-2,9,-14
50656071280,18,-2,-20,-3,0,0,2,4
50656071280,39,7,5,0,-1,-3,-13,-12
50656084013,1,1,2,2,-1,1,-5,-24
50656084013,-18,-5,-12,-6,-3,0,-4,2
50656090921,-15,-1,8,0,0,-2,-1,3
50656090921,3,-6,-8,0,0,0,1,-3
50656106520,11,6,-1,-2,1,0,-13,-6
50656106520,-9,-2,15,4,-2,-2,13,11
50656113419,4,13,14,-1,-2,0,-3,2
50656113419,0,-6,-47,-4,-1,-1,-1,-2
50656130324,42,4,34,-1,-3,-1,-1,4
50656130324,-95,-17,-14,-3,1,-1,-11,-7
50656131842,57,3,-7,-4,-3,-1,0,0
50656131842,-100,-17,10,-1,1,1,7,6
50656144133,34,6,-5,-1,-1,-3,-6,7
50656144133,24,8,6,3,1,-1,-8,-1
50656150747,-23,-13,-6,-1,-3,-3,-17,-9
50656150747,-36,-8,-5,-4,-2,0,21,7
50656166641,24,-2,1,-2,1,1,-6,-13
50656166641,61,4,4,1,1,3,10,18
50656173329,17,-2,-11,0,0,-2,-3,-3
50656173329,31,2,17,-1,-1,-1,-4,-2
50656189617,-27,-4,4,6,0,1,-2,0
50656189617,127,10,-3,-2,-3,-2,2,16
50656191180,-74,-7,1,-2,1,0,4,-19
50656191180,3,8,7,2,2,0,-1,-14
50656203983,15,4,-4,-1,-3,-4,6,14
50656203983,-25,4,-6,0,0,0,-16,-16
50656210744,20,4,13,0,-2,1,6,24
50656210744,-11,3,0,1,0,-2,-20,-8
50656226492,-15,-11,-15,-5,-3,-4,7,-3
50656226492,-16,3,4,-3,-1,0,3,10
50656233269,36,11,9,1,0,3,0,2
50656233269,-46,-17,-33,-4,-2,-4,-20,-3
50656249643,21,3,4,3,2,1,-8,-1
50656249643,-17,-1,-7,0,-2,-1,-4,-4
50656251211,15,2,-2,-1,-2,-1,6,-2
50656251211,-3,1,13,1,-2,0,1,-2
50656264162,82,6,0,0,1,2,-5,0
50656264162,-33,-7,-8,-4,-1,-3,14,2
50656270843,2,-8,-16,-4,1,2,-5,-7
50656270843,19,13,30,2,-1,-1,4,-6
50656286719,6,-9,-3,1,1,0,-1,2
50656286719,-15,2,5,0,0,0,-4,-13
50656293363,-25,-17,-11,-3,-3,-5,-5,-11
50656293363,13,-8,-11,-1,-1,0,4,0
50656309628,-27,3,8,-1,0,1,-3,-2
50656309628,-2,-3,0,-1,0,-1,-1,5
50656311178,-16,-3,-4,1,-3,-1,-8,3
50656311178,51,6,-4,-2,-2,-2,34,15
50656324147,-29,2,1,2,0,0,-6,-3
50656324147,22,-6,-6,-2,-1,-2,-9,-4
50656330849,7,-1,0,-2,1,0,-13,-3
50656330849,22,14,7,1,-1,0,-1,5
50656346568,11,4,-5,-4,-2,-1,-7,-5
50656346568,10,-5,-6,0,0,0,6,-7
50656353318,-27,4,8,-3,-3,-2,6,28
50656353318,0,-4,5,-1,0,1,0,4
50656369137,3,-1,-1,0,-1,-2,4,4
50656369137,-21,2,10,6,0,0,-18,-21
50656369820,16,-3,-1,-8,-2,-3,5,7
50656369820,-7,-7,-19,0,-1,-1,-10,-11
50656384821,-1,10,21,2,-3,-4,7,18
50656384821,62,3,-12,-5,-1,-1,3,-3
50656390925,8,0,3,5,1,0,0,-22
50656390925,32,4,-1,-3,-2,-2,-5,7
50656407749,-11,-9,-10,-3,-1,-2,-11,-6
50656407749,-6,-2,0,0,1,0,-13,-6
50656413342,-5,-4,-8,-3,-2,-3,15,24
50656413342,-17,-9,8,-3,-2,-2,-9,-15
50656429073,0,-6,-8,0,0,1,-6,6
50656429073,-26,-4,0,0,0,0,0,-13
50656429780,40,-1,-5,1,0,0,-1,-6
50656429780,1,4,5,1,-1,-1,-6,11
50656444773,-18,-6,-1,-2,-1,2,0,11
50656444773,-10,-1,3,-1,-1,-1,4,5
50656450968,23,-5,0,-1,-1,-4,-19,-34
50656450968,-18,-3,3,4,-1,-2,0,-2
50656465797,3,-7,-22,-5,-1,-1,-8,-13
50656465797,-43,-6,-4,0,-2,-1,-4,7
50656473260,12,10,9,-2,-3,1,40,26
50656473260,14,4,0,-4,-3,-1,6,-9
50656489042,-13,-13,-1,-1,1,0,1,3
50656489042,29,7,3,0,1,-2,-5,-1
50656489845,-32,-16,-18,-2,0,-1,2,-4
50656489845,-50,-9,5,-3,-4,-2,-6,1
50656504797,19,13,1,0,-1,-2,1,-4
50656504797,24,1,7,-1,0,4,16,15
50656510823,31,2,-16,-2,-1,-1,5,-3
50656510823,23,1,13,2,-1,-2,7,-11
50656525912,-1,-6,2,0,0,-2,-5,6
50656525912,-16,-4,-7,-2,-2,-3,-4,0
50656533229,24,10,-5,4,2,2,-4,8
50656533229,-36,-2,-17,-5,2,0,-12,-18
50656548990,14,1,18,-5,-3,-3,22,-3
50656548990,2,-2,-25,-3,-4,-5,-2,-7
50656549826,-40,1,11,2,1,0,-8,-11
50656549826,3,-9,-8,-2,-1,2,25,14
50656564726,-22,-1,-2,1,0,2,4,1
50656564726,-10,-1,0,-2,1,0,0,4
50656570894,-9,2,6,-2,-1,-3,-16,-19
50656570894,-21,-1,-2,2,1,1,-19,-2
50656585840,68,6,-6,1,-1,0,3,-15
50656585840,-48,1,12,-1,-4,-1,6,-7
50656593464,61,7,0,1,0,-2,-18,4
50656593464,-51,-5,-2,1,-1,0,15,9
50656609013,-11,2,-3,0,-1,1,1,0
50656609013,13,-8,3,-3,0,-1,-12,-3
50656609830,-16,5,4,1,1,2,3,-3
50656609830,14,17,1,2,0,-1,-4,9
50656624748,-11,-4,-17,-6,-2,-2,7,-3
50656624748,-13,-4,21,3,-3,-1,-1,11
50656630962,-26,-2,2,-1,1,3,2,11
50656630962,50,-9,-7,-2,-3,-4,1,-2
50656645763,-16,3,-6,-4,-3,-3,-11,-8
50656645763,19,13,2,0,0,2,-6,-6
50656653229,37,-1,-3,1,-3,-3,9,2
50656653229,-2,-2,2,-2,1,1,-31,0
50656669091,26,0,2,2,0,-1,-3,2
50656669091,6,2,-1,2,1,2,5,5
50656669702,-86,-20,-8,-6,-2,0,-2,1
50656669702,35,2,-4,-6,-3,-4,2,0
50656684721,-31,-6,3,0,-2,-1,-11,-4
50656684721,17,0,-4,1,0,1,8,8
50656690898,-22,-10,-6,0,0,-2,-3,-12
50656690898,-36,-4,-6,0,-1,2,13,0
50656705851,2,-3,16,-2,-1,-1,-1,-3
50656705851,5,-7,-6,-1,-2,-2,-10,1
50656713251,43,8,6,-3,-4,-2,30,-1
50656713251,-31,-5,9,3,0,-2,-2,1
50656728426,-79,-6,-3,2,-1,0,-1,-9
50656728426,48,8,-6,-1,-2,-2,19,11
50656735998,35,7,4,-4,-1,0,-13,8
50656735998,-2,-1,-12,-4,0,-2,4,9
50656744727,0,-2,8,0,-2,0,-6,-4
50656744727,-17,-3,-6,-1,1,-1,-20,-35
50656750945,31,2,1,1,-2,0,3,21
50656750945,12,2,9,-1,-3,-2,-2,-13
50656765953,22,-1,-8,1,1,1,1,6
50656765953,-30,-4,-17,-6,-2,-3,-12,-4
50656773374,25,-2,14,0,-1,0,-12,-14
50656773374,-6,0,5,1,1,1,17,4
50656788453,0,-2,-6,-3,-1,-1,12,3
50656788453,7,0,-2,1,1,-1,-7,-21
50656795933,-34,-2,2,2,-1,1,0,2
50656795933,20,6,-5,2,0,0,-9,-7
50656804732,7,2,8,-4,-1,1,-10,14
50656804732,-4,-3,-3,-5,-3,-2,0,-11
50656810809,-21,-4,-2,3,1,0,-8,-8
50656810809,-25,-6,-5,-1,1,0,-2,-6
50656825724,48,9,-1,-1,-1,-4,6,-17
50656825724,-30,-1,-2,-3,-1,-2,-2,14
50656833404,-17,-3,3,-2,-3,-2,-3,6
50656833404,-4,-5,-10,2,1,1,-1,-20
50656856417,17,-1,4,0,-1,1,6,8
50656856417,-11,4,-6,1,1,0,7,7
50656857319,-49,3,11,0,-1,-2,-5,-17
50656857319,15,-5,-5,-2,-1,0,5,14
50656864804,-11,-5,13,2,1,-2,-8,-5
50656864804,46,0,-19,-3,-2,1,18,13
50656870733,-39,-11,-10,-1,-1,-3,-11,-10
50656870733,17,-1,-1,-3,-1,-1,1,0
50656885927,-18,3,2,3,-1,0,-1,-7
50656885927,32,0,15,-1,-4,-1,3,20
50656893262,9,-4,-13,-3,-2,-2,-8,-36
50656893262,-9,0,11,0,0,-1,-21,-2
50656908440,-34,-3,-12,-1,1,-1,27,-1
50656908440,22,-2,-1,-7,-3,-2,3,-5
50656915810,26,-5,-9,-1,1,0,1,-3
50656915810,-11,7,5,-1,-2,-2,-7,1
50656931567,46,0,-8,-2,-2,-4,-2,-15
50656931567,-87,-12,-6,-2,0,0,-9,-3
50656932197,-26,-7,13,-1,-4,-2,23,0
50656932197,97,10,-6,-2,1,1,6,-3
50656945943,-34,-7,-10,1,-1,0,3,16
50656945943,31,-6,18,-2,0,0,5,9
50656953362,-22,2,-7,0,3,2,-13,5
50656953362,-8,3,6,2,-2,-2,-5,-13
50656968440,25,1,-4,-3,-4,-2,-13,7
50656968440,-13,-4,-2,-2,2,-1,-12,5
50656975772,18,9,0,1,-1,-2,-7,-10
50656975772,-58,-7,0,-3,0,2,4,14
50656991536,-1,-8,8,2,0,-1,-10,-12
50656991536,-17,0,0,5,1,0,-25,-11
50656992268,22,7,3,0,-1,0,19,21
50656992268,-47,-17,-23,-7,-3,-4,-2,-2
50657005798,-6,5,13,1,-2,-1,17,-3
50657005798,21,2,0,1,-1,-3,9,2
50657013433,-41,-10,-4,-2,0,-3,-4,-2
50657013433,17,-2,-3,0,0,-1,-2,-1
50657028426,-99,-5,-13,-3,0,-1,1,2
50657028426,29,10,13,4,-3,-2,11,-14
50657035939,21,-6,-9,-6,-2,1,-7,9
50657035939,-7,3,4,1,-1,0,10,7
50657051383,11,-5,-10,-2,0,1,13,0
50657051383,-28,1,18,0,-2,-1,3,2
50657052242,17,8,-1,-2,0,-2,-4,-11
50657052242,35,-9,-20,1,-3,-2,2,4
50657065776,-25,-4,-6,-7,-2,-2,-10,-15
50657065776,-3,-2,-16,0,1,0,-1,-4
50657073423,-40,-12,-1,-1,-3,-4,3,1
50657073423,34,13,12,3,3,2,-20,-18
50657088397,24,4,-5,0,-2,-1,7,13
50657088397,-12,-4,-2,3,1,-1,-7,-7
50657095821,4,-8,-15,-6,-2,0,-20,16
50657095821,-50,-11,3,-2,-1,-1,-8,-11
50657111385,-3,-3,-8,0,1,-1,-1,8
50657111385,5,4,-1,-1,-3,-1,6,-2
50657112156,8,6,8,2,-2,0,-7,2
50657112156,59,-2,0,2,0,-2,2,13
50657133852,44,6,7,-3,-1,0,-11,2
50657133852,-69,-23,-13,-5,-3,-2,-1,1
50657134657,10,5,-3,1,0,-1,3,-7
50657134657,-17,-1,2,-5,-4,-5,-2,-13
50657148199,5,-5,-5,0,-3,-1,-14,2
50657148199,50,10,5,-1,-2,1,-3,1
50657155703,23,-1,-17,0,0,3,12,9
50657155703,-53,-1,20,-2,-1,-3,-2,-8
50657171390,10,4,7,8,2,0,-38,0
50657171390,22,5,-3,-7,0,0,12,-3
50657172175,-81,1,7,3,0,-2,-5,-22
50657172175,18,-2,-12,-7,-4,-3,6,6
50657185680,-3,1,5,-1,0,-1,-11,3
50657185680,-31,-1,-2,3,0,2,-10,-9
50657193173,43,6,3,-1,0,-1,-3,-5
50657193173,-59,-4,3,-1,-1,2,4,-1
50657208204,-8,0,-10,-3,2,0,7,-7
50657208204,-9,-7,11,8,2,1,3,4
50657215710,12,-12,-9,-10,-5,-2,1,-1
50657215710,22,1,-2,1,-2,0,-6,-3
50657231392,15,0,-1,-1,-1,0,4,1
50657231392,11,2,-12,-3,-3,-4,-4,10
50657232169,-3,3,3,4,0,1,-4,3
50657232169,-32,0,5,1,1,3,8,9
50657245708,27,-5,-11,-3,-2,1,-2,-3
50657245708,30,4,6,-2,-1,-2,-5,7
50657253215,-55,-2,9,6,-1,-3,-7,-5
50657253215,-5,4,0,-5,-3,-5,-8,-15
50657268214,7,-5,-5,-1,-2,-1,6,6
50657268214,31,6,4,3,0,1,-5,-5
50657275708,-24,-4,5,-1,2,3,3,14
50657275708,37,-15,-29,-1,-2,0,8,-1
50657291384,9,7,10,0,0,-2,-23,-3
50657291384,10,4,-1,0,-1,-1,23,2
50657292163,53,5,-16,-5,2,0,-1,-9
50657292163,-20,-5,24,3,-2,-2,1,25
50657305694,-3,-10,-1,-4,-2,-3,1,-16
50657305694,-25,3,-2,-2,0,-1,-2,-6
50657313154,14,7,2,3,2,1,5,1
50657313154,31,1,-11,-6,-1,-2,-8,-4
50657328190,7,2,16,-1,-4,-2,1,1
50657328190,-55,-12,-5,0,-3,0,27,-14
50657343893,23,-4,-5,-1,-3,-5,-4,24
50657343893,-38,12,11,-3,-1,-1,12,-2
50657351332,-57,-4,-10,-3,0,0,2,-1
50657351332,-10,-4,3,7,-1,-2,-25,-12
50657352125,7,-2,3,-8,-5,-2,6,-4
50657352125,11,-1,-5,4,3,1,-6,-1
50657365683,47,12,-1,-1,-3,-1,5,1
50657365683,0,4,4,0,1,2,-15,-10
50657373193,-31,-12,-2,0,-1,1,-1,-2
50657373193,34,0,-1,-1,-2,-3,-5,6
50657388167,-24,4,-1,-1,-2,-3,3,-15
50657388167,24,-3,-4,-3,-1,-1,3,19
50657395685,14,-2,-2,-2,-2,-2,-23,-26
50657395685,-13,-1,-3,0,0,0,25,4
50657412850,-4,0,3,4,1,0,-7,-2
50657412850,-9,-9,-10,-6,-3,-2,3,4
50657413665,37,17,14,2,2,1,2,0
50657413665,31,1,-4,-1,1,1,2,15
50657425685,-66,-4,-3,-1,-1,-4,-1,-13
50657425685,9,-3,4,-1,0,-1,-6,3
50657433191,1,2,2,2,1,2,11,9
50657433191,-42,-9,11,-3,-1,1,-8,-19
50657448219,61,-4,-16,-1,-3,-3,-4,3
50657448219,-6,-2,0,-2,0,-1,-7,-5
50657455721,-16,-3,-2,-1,-1,-1,17,10
50657455721,0,-3,-6,4,1,-2,-7,1
50657471347,4,0,-1,-4,-3,-2,-3,-20
50657471347,-21,-3,0,-1,-1,-1,-15,-7
50657472173,-1,-5,-9,-4,0,-1,-19,8
50657472173,50,10,-4,2,1,2,15,17
50657485817,37,1,7,-3,-3,-1,3,10
50657485817,30,13,8,1,0,0,3,-1
50657493353,-9,-4,3,2,-1,-1,-1,-14
50657493353,65,2,-6,-1,-1,1,-22,-13
50657508175,-31,0,8,2,0,2,10,23
50657508175,8,-5,-4,-2,-3,-4,0,-6
50657515824,-2,-4,-4,0,0,-2,3,0
50657515824,-7,7,12,1,1,2,-4,-9
50657531492,14,-8,-7,-3,-2,0,10,1
50657531492,19,-1,-8,4,-2,-2,-2,-13
50657532260,-22,-5,-21,-15,-2,-3,11,0
50657532260,-22,2,16,3,2,-1,-33,-16
50657545871,-40,-11,-2,-2,2,2,11,8
50657545871,11,1,-5,-4,-4,-2,-10,-1
50657553327,-80,-13,0,2,-2,-2,-2,-6
50657553327,37,0,-2,0,1,1,12,-14
50657568442,-41,-5,-8,-2,-2,-2,-7,-2
50657568442,-10,-3,-2,-4,0,0,3,11
50657575864,44,9,-3,2,-2,0,-9,-4
50657575864,-35,-7,9,-2,-2,-2,2,9
50657591549,41,2,2,1,-1,-2,0,3
50657591549,-3,-9,-4,-1,1,0,7,4
50657592191,-9,10,1,-1,0,0,3,-9
50657592191,-41,-12,-12,-3,-5,-4,-2,-3
50657605905,10,4,1,2,0,0,-7,-30
50657605905,-29,-7,-8,-2,-2,-1,-7,10
50657613399,32,-3,9,-1,0,2,25,0
50657613399,-44,-5,-6,-3,-4,-1,-6,9
50657628392,53,8,-4,-2,2,1,-3,-5
50657628392,-31,-13,2,4,-3,-4,-2,-6
50657635811,0,-8,13,-4,-1,-3,-17,-3
50657635811,-22,5,11,-2,-1,-3,2,-1
50657651591,9,0,-11,-4,-2,1,1,2
50657651591,22,2,0,1,3,0,3,13
50657652188,0,3,-4,2,-1,-2,-7,-9
50657652188,20,-1,-4,2,0,-1,2,18
50657665926,-17,-10,16,-2,0,1,-2,8
50657665926,-8,12,-3,-2,0,1,15,1
50657673298,-4,-1,2,1,-2,0,30,-23
50657673298,7,-1,-17,-6,-2,-1,0,3
50657688460,-63,-15,-8,1,-1,-4,-2,-12
50657688460,3,-1,4,-1,-1,1,-6,-1
50657695929,-44,1,-6,-1,-2,1,3,9
50657695929,-10,4,-3,-4,-4,-3,-1,-12
50657710926,10,8,1,2,-1,1,9,11
50657710926,-26,-18,4,-2,-3,-1,-2,-1
50657719117,6,6,-4,1,0,-1,-13,7
50657719117,10,-5,-4,1,1,0,1,-10
50657725835,7,3,1,6,0,-2,-2,6
50657725835,13,3,-1,-8,-1,0,-3,9
50657733354,41,-4,4,3,1,1,1,8
50657733354,6,-3,-6,1,0,1,3,4
50657748409,28,0,10,-3,-3,-4,-23,-6
50657748409,42,-2,-23,-1,-1,1,6,-27
50657755897,19,-1,6,2,-1,-1,-13,-1
50657755897,-101,-11,5,-1,-1,-2,0,1
50657770783,-6,-1,-5,-3,1,1,-10,-3
50657770783,-19,2,5,-1,-2,-1,-2,-7
50657779137,43,-7,-7,-1,-1,-1,-1,5
50657779137,-27,16,-1,-2,-2,0,-12,-13
50657785872,-52,-9,1,6,1,0,15,14
50657785872,26,1,-6,-4,-2,-2,-2,0
50657793385,3,3,-5,-2,0,-4,-11,1
50657793385,25,-1,-1,0,-1,0,2,3
50657808402,-14,-4,-15,-5,-4,-1,3,-2
50657808402,-30,5,9,1,0,-1,21,2
50657815944,0,-1,4,5,-1,-3,-11,2
50657815944,-15,-18,-14,-12,-4,-4,-5,-11
50657830816,15,10,7,1,1,1,24,14
50657830816,9,-2,-3,0,-1,-1,-4,7
50657839063,-58,-13,-9,-4,-2,-1,6,3
50657839063,27,4,7,2,-2,-1,-7,-4
50657845910,94,-2,-3,-1,-1,-1,-2,5
50657845910,-3,3,7,1,1,-1,-7,-1
50657853427,-4,3,-14,-2,0,-1,-22,7
50657853427,40,1,-2,2,2,1,5,-2
50657868177,-34,3,0,-2,-2,1,-9,-11
50657868177,6,-1,2,1,-3,-1,-4,3
50657875680,41,-2,-1,-3,-1,-3,-4,-12
50657875680,-20,-1,2,3,1,-1,3,9
50657890670,-9,-1,-7,-2,-2,-2,-3,-7
50657890670,-25,-6,2,2,0,0,5,5
50657898856,-19,1,-1,-6,-3,-2,4,-8
50657898856,46,7,-9,-3,-1,-1,0,5
50657913814,21,-3,13,1,1,0,10,-10
50657913814,-14,1,-4,-2,0,0,-16,-1
50657914604,12,1,3,-1,-2,-1,-4,4
50657914604,22,-4,2,6,1,-1,9,-4
50657928151,-35,0,-6,-6,0,0,-30,5
50657928151,39,3,0,1,0,-1,8,4
50657935657,2,0,4,2,0,0,6,9
50657935657,12,-5,-2,0,-2,0,-14,-5
50657950658,-28,3,-5,0,-1,-1,0,-6
50657950658,-26,-12,14,3,-2,-2,11,10
50657958820,-20,-2,4,-2,-2,-2,16,-5
50657958820,25,10,9,-1,-1,-1,7,-13
50657973809,2,-11,-39,-3,-3,-4,2,1
50657973809,13,-1,-2,-2,-2,-3,-14,-4
50657974636,2,0,0,0,-1,1,27,1
50657974636,-56,-3,-3,0,1,0,-8,-17
50657988153,-3,2,5,-3,-2,-2,-4,20
50657988153,-14,-9,-7,-3,0,0,9,-8
50657995661,-4,7,0,3,1,-1,-10,0
50657995661,5,-8,-18,-7,-5,-1,0,-8
50658010730,33,0,16,5,-1,-1,5,4
50658010730,-16,5,-19,-3,0,0,-13,-8
50658018879,-5,4,34,3,0,-1,6,10
50658018879,52,-2,-14,-4,0,0,3,-8
50658033877,3,-2,5,3,-3,-3,-2,6
50658033877,16,-1,-1,-3,-4,-3,11,-5
50658034637,-68,-5,-14,-2,1,0,-10,-4
50658034637,33,-3,0,-1,-2,-3,-3,16
50658048166,71,3,8,1,0,0,1,-8
50658048166,-29,-1,-2,-2,-1,0,-8,5
50658055693,34,-3,9,-4,-3,0,42,-2
50658055693,-55,-14,-31,1,0,-1,4,9
50658070684,49,9,17,-1,-1,-2,-10,-5
50658070684,42,3,1,-2,1,-1,-7,-5
50658078894,21,-2,-12,-2,-1,-2,-16,-3
50658078894,4,4,7,0,-1,1,3,2
50658093820,19,-1,-2,-2,0,1,13,3
50658093820,25,7,3,-1,-2,-3,2,4
50658094608,-16,-10,-13,2,-1,-1,-15,-11
50658094608,9,5,22,-4,-4,-4,-2,5
50658108177,-28,-6,1,1,-1,-3,-20,11
50658108177,-20,-1,-14,-6,-1,3,17,13
50658115729,18,3,5,7,0,1,0,0
50658115729,-30,-1,3,2,-2,-1,-1,4
50658130868,0,0,-3,0,-1,-1,4,-12
50658130868,23,4,9,1,0,0,-19,-21
50658139063,-18,-10,-2,-4,-1,-2,-6,8
50658139063,22,10,0,-1,1,-1,4,0
50658153961,-44,-1,1,-3,-3,-2,10,-5
50658153961,10,-2,4,2,0,-2,-15,-3
50658154690,-36,10,-9,-4,-1,-2,-12,-14
50658154690,-44,-10,7,-1,-1,1,-2,6
50658168349,-23,-4,-4,-3,-2,-1,-2,-12
50658168349,12,2,-4,0,-1,-5,-5,-9
50658175699,-10,2,4,-1,-2,1,-7,4
50658175699,-7,-6,-5,0,0,-2,-6,10
50658190877,-23,-1,1,2,3,2,20,0
50658190877,-79,-16,-6,-3,-4,-2,10,7
50658198874,-2,-4,0,-2,-2,-1,-5,-8
50658198874,53,3,-10,-5,-3,-2,-5,-7
50658214075,-1,-8,-10,-2,-1,-1,-3,1
50658214075,-5,1,-2,0,0,1,3,7
50658214705,15,0,12,6,0,-1,-6,-7
50658214705,-14,-6,-8,-2,-3,-2,2,2
50658228382,71,6,-4,-1,1,0,-16,-6
50658228382,-67,-11,6,1,-3,-2,6,0
50658244103,-8,-6,-14,-3,1,-1,-4,-15
50658244103,-59,-2,6,3,1,2,4,5
50658250887,-3,6,15,-1,-1,-2,-19,-18
50658250887,13,2,-31,1,0,1,-2,11
50658259183,13,-5,-7,1,-1,0,1,2
50658259183,0,1,21,0,0,0,6,-7
50658274035,-17,0,-10,-4,-3,0,36,43
50658274035,21,4,6,-1,0,-2,-5,-12
50658274675,9,-2,-3,-2,-2,-2,-3,12
50658274675,11,-8,-11,-4,-1,-3,-2,-8
50658288361,-23,-2,-3,0,-1,-1,-19,-11
50658288361,5,1,9,-1,-2,0,10,-1
50658295691,44,-2,-3,-1,-1,-2,6,2
50658295691,-4,-1,5,-1,-2,-4,-19,-2
50658310752,-69,-10,-8,-4,-1,0,10,-4
50658310752,0,-2,11,2,-3,-2,-19,-2
50658318899,29,5,2,4,1,-2,3,12
50658318899,0,0,-5,-2,0,2,14,-8
50658333826,-5,4,-1,-1,-2,-1,-5,-9
50658333826,-14,-7,6,-2,-2,-3,-19,7
50658334641,15,8,1,-2,-1,0,8,-7
50658334641,49,8,4,3,1,0,1,4
50658348241,-18,-6,-16,-2,1,-1,4,3
50658348241,49,7,24,4,-1,-1,0,-7
50658355712,-12,-2,0,-2,-1,-1,-13,-2
50658355712,-6,0,0,0,-1,-1,1,10
50658370792,54,0,-3,1,-3,-4,-21,-16
50658370792,-53,-5,-4,-1,2,0,15,6
50658378881,38,-2,-1,-1,2,2,-23,-13
50658378881,12,-5,9,-3,-4,0,4,23
50658394003,9,3,3,1,-2,-2,9,-3
50658394003,1,-4,-4,0,-1,-2,-4,-24
50658394703,-3,-6,-2,1,-2,-2,0,22
50658394703,-14,3,-10,-8,-2,-2,-1,-4
50658408359,-15,0,3,0,3,1,-7,11
50658408359,54,8,-16,-5,-2,1,32,-6
50658415841,-40,-2,-4,2,-1,1,12,0
50658415841,3,-3,-5,-1,-1,-1,5,-17
50658430793,-2,-2,-2,-3,-1,1,26,27
50658430793,6,3,-11,-1,-1,-1,-2,-27
50658439071,-8,-1,17,0,-3,-2,-2,17
50658439071,-16,-3,-5,1,1,2,-2,-7
50658453983,0,-6,6,0,0,-1,-4,-7
50658453983,-9,-8,-2,-1,-1,-2,-10,-11
50658454732,-46,-6,-4,-2,-1,-1,5,3
50658454732,49,7,0,3,2,0,8,16
50658468367,-83,1,0,1,-1,-2,3,-15
50658468367,21,-6,2,-3,-2,-2,-2,19
50658475847,-16,-4,-8,-3,-2,-3,-7,-39
50658475847,4,-4,6,5,-1,1,-8,-11
50658490746,53,3,-4,-1,1,1,27,-6
50658490746,-31,-4,-10,1,0,1,1,24
50658498993,-7,-3,1,-6,-2,-3,-7,-20
50658498993,-13,-4,-6,2,1,-1,-11,-5
50658514020,30,5,10,-2,-2,-1,-1,1
50658514020,-47,-8,-3,3,2,1,-11,6
50658514651,16,-4,-1,-3,2,1,0,14
50658514651,-19,-6,-8,-3,-5,-4,-16,-23
50658528339,34,-9,-7,-1,-3,-1,-6,9
50658528339,-75,4,3,2,0,-1,-1,1
50658535862,52,2,-5,-3,-1,-1,1,3
50658535862,-8,-2,6,3,2,0,4,0
50658550899,-4,-9,-1,-1,-1,3,10,18
50658550899,63,14,20,2,-2,1,8,5
50658558977,-19,-11,-45,-7,-4,-1,6,-2
50658558977,-3,2,2,-2,-2,-2,-8,-3
50658574036,16,8,3,-1,-1,-2,-16,-34
50658574036,-2,0,0,-5,-1,-1,-6,1
50658574652,-5,3,6,5,-1,0,9,11
50658574652,-10,-2,5,-5,-1,-1,-3,-10
50658588421,5,-8,-11,-2,-2,-6,-25,3
50658588421,28,2,-2,-2,-3,0,9,6
50658595767,-3,1,8,3,1,0,-9,4
50658595767,-13,0,2,-4,-2,-3,-11,-5
50658610936,7,-1,2,0,0,-2,8,2
50658610936,-69,-1,2,0,-1,0,-6,-10
50658619042,-10,0,3,0,-3,-2,-7,5
50658619042,2,2,-5,4,1,4,5,21
50658633366,5,-2,19,-6,-2,-1,-16,-8
50658633366,52,11,5,5,0,-1,8,13
50658641489,-14,-4,-2,-4,-4,-3,6,1
50658641489,-13,-5,-8,-2,0,0,1,-2
50658648357,-46,-6,3,4,1,2,0,-15
50658648357,36,-1,-7,-1,-1,0,-7,-1
50658655891,8,8,12,-3,-1,-3,11,-9
50658655891,0,-5,1,6,-2,-2,13,1
50658670786,-17,-6,-4,0,-1,0,-30,-8
50658670786,8,6,-5,-4,0,-3,-3,-17
50658679052,24,1,5,2,2,1,6,0
50658679052,-37,0,-9,-5,-3,-2,6,-6
50658693401,-3,1,-7,0,0,0,6,-6
50658693401,-58,-9,5,-4,-1,0,-11,-1
50658701348,60,8,5,2,1,1,-5,-3
50658701348,-29,-6,-11,0,-1,-3,2,2
50658708395,-10,-1,-2,0,-1,-1,-16,1
50658708395,4,-4,-3,-1,0,1,6,-1
50658715891,11,5,-2,-2,0,0,-12,-13
50658715891,-23,-5,1,0,1,3,35,40
50658732193,-17,-3,-5,1,-2,-1,1,-6
50658732193,12,-4,-6,-3,-2,-6,-6,0
50658739053,-2,5,0,0,-2,1,-5,-2
50658739053,29,3,8,1,0,-1,-17,-15
50658753353,-17,-1,-19,-2,1,-1,9,18
50658753353,7,-1,16,-3,-2,-1,8,-11
50658761481,42,6,7,-1,-2,-1,-8,0
50658761481,12,-1,1,-1,0,-2,-18,-3
50658776534,0,1,6,7,-1,-2,18,1
50658776534,1,-7,-21,-12,-2,-1,5,-3
50658777163,26,-10,-4,-3,0,-4,-23,-14
50658777163,27,9,8,0,-2,-1,-5,-3
50658790859,2,-4,-15,-5,-1,-2,-3,1
50658790859,23,5,6,7,2,-1,-3,-10
50658799011,-38,-1,-3,-1,-1,-2,11,-7
50658799011,9,2,2,-2,-1,-1,-3,5
50658813399,-31,-4,-2,-1,0,1,0,18
50658813399,-2,-1,-5,-3,-2,-1,-4,-19
50658821637,-28,-7,-6,0,0,0,1,6
50658821637,20,-9,-15,1,2,0,1,1
50658836519,7,11,26,-2,-3,-4,-2,-9
50658836519,27,-1,-6,-4,-4,-4,-6,1
50658837178,-42,-12,1,2,0,-2,0,4
50658837178,-21,-4,-8,-7,-1,-3,-5,-6
50658850841,-39,-4,3,4,0,2,19,-4
50658850841,72,0,2,1,0,1,-8,29
50658859057,-12,-3,-4,3,-1,-2,-3,-5
50658859057,0,2,0,-7,-4,-4,3,3
50658873387,14,2,13,-2,-2,-1,-8,-7
50658873387,-40,2,-6,2,0,-1,4,1
50658881634,-16,-5,-3,0,-2,2,-20,10
50658881634,10,-3,1,1,2,2,16,-24
50658904567,6,-9,-2,-2,-4,-1,-5,-3
50658904567,-20,-2,0,2,-1,-1,1,-6
50658905423,18,-1,-1,-4,-1,-3,-5,8
50658905423,-44,-6,1,1,-5,-1,-26,-8
50658910809,9,0,-9,-3,3,1,5,3
50658910809,24,4,-10,4,2,1,3,4
50658919003,-61,1,35,0,-2,-2,3,-5
50658919003,8,-4,-19,-6,-2,-2,-3,4
50658933374,32,-3,-6,-3,-1,-2,6,6
50658933374,-8,-5,9,2,-1,-2,10,-1
50658941459,13,0,0,3,0,0,13,11
50658941459,17,8,11,5,1,0,2,-1
50658956439,7,-2,-5,-5,0,0,-12,-5
50658956439,-15,-5,-5,-4,-2,-2,-6,1
50658957190,-24,1,-7,-3,-2,1,6,-16
50658957190,58,7,4,0,-2,-4,-2,-3
50658970698,-36,-2,-10,1,-3,-3,-3,2
50658970698,-19,3,4,-2,-2,-2,-5,1
50658978972,-2,-1,-14,-6,0,-2,2,6
50658978972,12,-5,2,2,1,0,-14,14
50658993248,114,30,6,-2,-3,-1,34,6
50658993248,-31,-13,-5,1,0,0,-8,3
50659001563,14,2,-1,-1,0,-2,4,9
50659001563,-5,-4,-7,1,1,3,-2,-12
50659016472,-5,2,-7,-6,-2,-2,-18,-5
50659016472,-6,-5,-1,-2,-1,-2,11,-2
50659017241,11,-3,-4,-1,-1,-1,3,2
50659017241,-44,1,7,2,-1,2,1,-9
50659030891,-15,-5,-3,1,2,0,-6,-24
50659030891,14,10,-3,-1,2,1,-3,14
50659039012,8,-7,7,4,-2,-2,6,-14
50659039012,-5,6,-4,-6,0,-1,-6,3
50659053193,1,-4,-1,2,-2,-1,14,21
50659053193,-9,-8,6,0,-3,-1,3,5
50659061400,15,6,-11,-4,-1,-1,-10,13
50659061400,-1,-4,19,2,-1,-2,2,1
50659076511,-39,-2,-3,-3,-1,-2,-25,-7
50659076511,15,-2,-42,-4,-1,-1,-1,4
50659077090,-13,5,19,3,0,0,3,-7
50659077090,9,-5,-8,-3,-2,-3,6,-1
50659090825,-13,-5,2,1,-1,0,-9,2
50659090825,5,-1,6,-1,-2,-4,-5,-14
50659099004,-38,-4,-13,-2,-2,0,-9,-4
50659099004,1,0,3,-1,-1,-2,15,10
50659113387,-16,-1,0,1,1,1,13,7
50659113387,-17,-3,3,-3,-2,-3,-3,-13
50659121653,30,-1,-10,-2,1,1,8,5
50659121653,44,-3,4,-1,-1,1,0,3
50659136441,-28,-9,-6,-1,0,-1,5,4
50659136441,12,10,6,-2,-1,-1,-1,8
50659137152,-24,-8,9,8,0,0,-6,-5
50659137152,-40,0,-4,-5,-4,-4,1,-16
50659150883,-29,2,-6,-4,-1,1,-11,-7
50659150883,26,-14,1,-3,-5,-4,-7,1
50659159029,-1,7,5,1,1,0,-1,-6
50659159029,18,-2,-11,0,0,1,-17,-5
50659173188,17,2,-8,0,0,0,-5,-1
50659173188,10,4,23,2,1,1,-1,-3
50659182167,-47,-2,5,-5,-2,1,43,13
50659182167,29,-5,-22,1,-2,-2,0,10
50659195653,-22,1,0,-3,-4,-5,-7,-9
50659195653,60,3,-4,3,1,0,2,6
50659204651,-3,-4,-7,-3,-1,-1,-16,-6
50659204651,2,7,18,1,-1,0,8,-1
50659210714,2,-11,-3,0,-1,0,-3,11
50659210714,8,11,3,-2,-3,1,-6,-13
50659219691,-69,-8,-10,-5,-4,-2,-18,-12
50659219691,4,-1,-6,-1,2,0,5,9
50659233204,1,-9,-1,0,-3,-1,-5,-4
50659233204,-30,-2,4,4,2,3,4,-3
50659242182,8,-2,-18,-2,0,3,21,5
50659242182,4,-6,-10,-4,-1,-1,-17,-5
50659255630,-8,2,19,3,0,1,6,4
50659255630,-6,9,3,0,-1,0,4,-1
50659264604,36,7,3,-3,-3,-1,-3,0
50659264604,-16,1,3,1,-1,-1,-6,-19
50659270822,21,1,3,0,2,-1,-1,-1
50659270822,-21,3,2,6,2,1,-4,-7
50659279742,61,1,-12,-4,0,0,-1,13
50659279742,-62,-13,20,-2,-4,-4,6,-2
50659293336,44,1,-4,1,1,1,-16,12
50659293336,-109,-12,-4,-3,-1,-1,-1,-12
50659302187,54,-5,0,-4,-5,-3,-17,-14
50659302187,-24,10,-2,0,-2,0,6,-5
50659315869,16,-2,-8,0,-2,-1,-12,-9
50659315869,2,-5,7,-3,0,-1,18,16
50659324669,-1,-9,-24,-2,2,0,-4,4
50659324669,-15,-3,18,4,-4,-4,-4,4
50659330831,-2,-1,-3,-6,-1,-3,-7,-5
50659330831,-2,-9,-9,-3,-1,-3,-14,-17
50659339647,-4,6,-4,1,1,-1,7,10
50659339647,27,3,-2,0,1,2,5,-2
50659353393,14,4,0,0,-2,0,7,10
50659353393,13,-8,-6,1,-1,0,-22,-3
50659362155,63,9,17,-1,-1,-2,2,-2
50659362155,-81,0,-6,3,2,1,-4,8
50659375888,4,-1,7,-4,-3,0,4,-5
50659375888,3,-5,-8,-4,-2,-3,-3,7
50659384653,23,9,15,-1,-2,-4,-31,-13
50659384653,32,-1,-31,-2,0,1,23,9
50659390847,-3,-4,-5,-3,-1,-3,2,-7
50659390847,8,8,5,1,2,1,1,7
50659399638,-38,-12,-2,-1,-2,-2,-6,6
50659399638,67,12,-3,-2,-2,-3,-7,-18
50659413372,7,2,20,2,0,-1,3,-4
50659413372,-4,-6,-13,1,0,0,14,30
50659422160,-26,0,0,-5,0,-2,6,-21
50659422160,13,-3,12,-1,-2,0,0,1
50659435859,-48,-11,-14,-2,-2,-3,-4,-13
50659435859,-5,-2,5,0,-1,-1,-6,12
50659444623,-85,-3,-3,-1,-1,-2,4,-4
50659444623,12,-4,-4,-4,2,2,-2,4
50659450867,-10,3,-5,0,2,0,-10,-6
50659450867,47,-4,-3,-3,-4,-3,9,-8
50659459639,-32,-8,-10,-2,-1,0,1,5
50659459639,2,2,9,-3,-4,-2,-2,-6
50659473173,-9,0,-7,-1,0,0,-3,-10
50659473173,18,1,-1,-2,0,1,-5,12
50659482112,17,-4,-9,1,0,0,5,11
50659482112,-37,2,27,3,-1,0,-10,-39
50659495758,27,11,7,0,-3,-3,1,-10
50659495758,-24,-5,-9,-1,-1,-1,-15,-16
50659512871,-42,-18,3,-1,0,1,17,-9
50659512871,25,-5,-13,-5,-2,-2,4,41
50659513682,-87,-8,-10,-6,-3,-2,5,-5
50659513682,2,0,1,0,-2,-1,-16,-17
50659519698,86,10,3,2,-2,-2,45,11
50659519698,-15,1,-8,-2,-1,-3,-7,-16
50659533270,-7,1,3,4,1,2,6,4
50659533270,31,0,-3,-5,-4,-2,3,20
50659542124,-7,2,-10,-2,-1,-1,-21,-6
50659542124,3,-7,-5,-3,-2,-3,-7,-6
50659555766,26,5,-5,0,-1,0,9,8
50659555766,-38,-3,2,-1,0,1,2,-3
50659564627,25,-2,11,-1,0,0,-7,5
50659564627,-38,2,5,1,0,0,9,-2
50659570888,29,-1,3,3,0,0,-12,-7
50659570888,-7,-8,0,-12,-2,-2,4,-13
50659579655,8,2,2,0,-2,-1,-6,3
50659579655,25,-8,-9,-1,0,0,-3,16
50659593290,-59,5,8,0,-3,-2,-26,-7
50659593290,-19,-1,5,8,0,0,27,-6
50659602154,-27,-5,-11,-7,-1,-1,-3,-6
50659602154,6,0,-8,-4,-2,-1,-14,12
50659615804,23,0,7,3,-1,-1,-5,9
50659615804,6,0,-5,-1,0,-1,-3,-12
50659624643,36,11,-2,-1,-2,-1,-5,-4
50659624643,-8,1,-1,3,3,2,9,-1
50659630772,22,-7,-11,-4,-2,-2,-5,-11
50659630772,-11,4,16,0,-3,-3,-2,21
50659639641,68,7,-5,2,1,0,3,-11
50659639641,-26,-7,0,1,-1,0,7,-15
50659653318,-21,-7,-9,-2,1,-2,11,15
50659653318,88,3,0,-3,-5,-3,20,-19
50659662142,-98,0,0,2,-1,0,-9,-2
50659662142,13,-6,3,-1,-2,-2,-10,6
50659676523,-12,-2,-1,2,1,-1,10,2
50659676523,-14,-3,-9,-7,-2,-1,-12,-4
50659683277,13,-7,-4,-2,-4,-4,5,10
50659683277,11,1,2,-1,-1,1,-9,1
50659690841,23,4,-1,0,-1,-1,19,16
50659690841,5,3,-7,-1,2,-1,-10,-3
50659699634,-44,-8,18,6,-1,-1,-20,-8
50659699634,-9,3,-11,-2,0,-2,2,5
50659713353,39,0,6,-2,-2,-1,0,-2
50659713353,3,4,-3,-1,-1,1,0,6
50659722125,-55,-17,-5,0,-1,0,1,-6
50659722125,4,-9,-7,-4,-2,-1,-1,-2
50659736551,-29,-5,1,-1,-2,-1,-1,-16
50659736551,21,-1,1,3,1,-2,-9,4
50659743361,18,1,1,-3,-3,-1,-10,-16
50659743361,29,6,-5,0,-3,-2,7,5
50659759670,7,-5,-2,-5,-2,-3,-23,2
50659759670,-43,-3,-5,-1,-2,0,1,-16
50659761099,62,15,1,-4,-3,-1,-3,6
50659761099,-7,-3,-2,-1,0,1,6,-5
50659773356,2,-2,-7,1,1,-2,1,4
50659773356,-11,2,16,-1,-1,0,-4,-3
50659789652,-20,-8,-17,-3,0,0,3,12
50659789652,-2,-7,3,-1,-3,-2,3,5
50659796293,39,17,6,4,-1,2,-1,-12
50659796293,-70,-11,-13,-5,0,-1,-42,-12
50659804648,35,-3,4,6,4,3,28,16
50659804648,36,-1,33,-1,-4,-2,-7,-8
50659819698,-3,-5,-11,-1,-2,-3,15,11
50659819698,-1,3,4,1,2,0,2,-2
50659821095,-36,1,-2,-4,-2,-2,-1,12
50659821095,38,15,-10,-2,1,0,-2,3
50659833266,-42,-12,-5,-3,0,0,-1,-6
50659833266,16,-5,5,0,-3,-3,11,0
50659842124,-33,-6,-4,0,2,-1,3,0
50659842124,15,10,-5,0,2,1,3,-10
50659856367,15,1,11,-7,-2,-1,5,17
50659856367,1,-3,-33,-3,-1,0,7,3
50659863322,12,-2,17,8,-2,-1,-13,-36
50659863322,-16,-3,-10,-4,-2,-2,-22,6
50659879711,-58,-2,4,2,2,3,9,-9
50659879711,47,-5,-1,-3,-4,-3,-21,2
50659881110,-72,-2,-8,-6,-3,-2,6,3
50659881110,-3,-3,-3,0,2,1,1,-2
50659893215,21,-8,7,-1,-2,-2,0,2
50659893215,5,8,-4,2,1,2,9,7
50659902140,10,0,3,-4,-2,-5,-14,-12
50659902140,-28,-11,2,5,-2,-2,-6,-13
50659916530,23,-1,-4,-4,-3,0,16,22
50659916530,-1,7,6,2,1,-1,-20,10
50659923321,50,6,-1,-2,-3,-1,2,9
50659923321,-42,-5,-3,0,-1,-2,7,-6
50659939757,20,-2,-6,-6,0,3,15,-1
50659939757,0,-3,4,2,-3,-2,3,0
50659941196,-78,-5,0,2,1,1,-6,0
50659941196,37,1,-16,-8,-2,-1,9,20
50659953235,-56,5,20,0,-5,-3,-16,-17
50659953235,6,-5,-9,2,2,1,-4,-9
50659962108,2,1,0,-5,-2,-3,3,2
50659962108,30,13,-6,4,1,0,4,-5
50659976545,34,2,0,-1,-3,-1,-12,13
50659976545,-22,-6,-4,1,0,-2,23,-16
50659983282,24,-5,1,3,1,1,-9,14
50659983282,-30,-5,-7,-5,-4,-4,4,-11
50659999614,36,5,-16,-1,-1,-5,-19,-1
50659999614,9,9,16,2,-2,-1,1,-1
50660001835,27,5,-8,0,0,2,5,5
50660001835,25,-1,11,1,-1,1,1,-5
50660013802,-47,-4,-7,1,1,1,-5,8
50660013802,14,0,6,1,-2,-2,4,-1
50660022134,-1,-5,-3,-9,-2,2,-2,-11
50660022134,-42,11,5,-2,-3,-4,-5,-9
50660037142,8,-5,-4,1,1,-2,-14,-7
50660037142,-1,7,11,5,-1,-1,13,-19
50660043151,-1,5,5,0,-1,-3,-4,-11
50660043151,-9,-10,0,-1,-3,-1,-2,-4
50660059664,18,-4,-4,-3,-3,-1,0,-3
50660059664,-20,-3,-7,-7,-3,-2,3,13
50660061130,13,-2,-1,2,-1,-1,5,-8
50660061130,2,7,14,-2,-3,-3,-9,-13
50660073136,-47,-14,-7,-2,-2,-1,29,-4
50660073136,1,6,-5,2,0,0,-1,9
50660082122,28,3,11,-1,-1,-4,-1,-8
50660082122,-90,-11,0,4,2,2,-9,13
50660096516,26,1,-22,-4,-2,-1,-22,-6
50660096516,-22,-11,-5,-3,-1,-4,10,-9
50660103314,37,7,-3,-2,-2,-3,-13,-1
50660103314,8,-2,5,4,2,1,6,0
50660119603,-30,1,3,1,0,2,-2,-5
50660119603,-12,-3,-1,-2,0,0,-1,18
50660121400,-19,-5,-1,-3,-1,-4,9,4
50660121400,38,2,-3,-3,2,2,-9,-10
50660133317,20,2,11,1,-2,1,0,-6
50660133317,5,-6,-14,-4,-5,-4,-13,-22
50660142095,27,6,22,9,1,-2,15,13
50660142095,7,-1,-10,-3,-1,-1,0,10
50660156370,37,0,0,0,-1,-3,2,3
50660156370,-15,-14,-2,-3,0,1,0,-19
50660163168,23,2,1,-1,2,1,-12,6
50660163168,-4,6,-25,-2,-2,-3,3,6
50660179731,45,13,35,4,1,1,5,-2
50660179731,-72,-4,-3,-2,-2,-4,-4,14
50660181151,-12,-6,-14,-3,-1,-3,-14,-14
50660181151,21,-6,5,-1,0,0,12,10
50660193234,-9,-5,-7,1,0,0,12,8
50660193234,44,11,-4,1,1,3,2,13
50660202116,6,-2,1,-3,0,1,-13,-13
50660202116,-33,3,-10,-7,-4,-4,26,5
50660216416,-32,-8,25,10,0,0,-7,15
50660216416,20,8,1,-1,-4,-1,3,-17
50660223298,-37,-10,-19,-7,0,-2,4,1
50660223298,9,-1,16,5,1,0,-15,-7
50660239673,-25,-5,-16,-5,1,0,-1,-2
50660239673,24,4,5,0,0,3,13,36
50660241078,-15,5,-3,1,-3,-2,5,0
50660241078,14,-4,-3,-3,-3,-2,-10,-12
50660253342,-7,6,-5,-3,-3,-3,-4,-8
50660253342,21,-5,4,1,1,-2,-14,6
50660262095,-64,-3,-7,-2,-2,1,0,3
50660262095,-36,-9,6,0,0,0,-3,13
50660276471,38,10,-29,-1,-1,-1,10,5
50660276471,32,2,19,2,0,-1,-8,-11
50660283333,-56,-8,-5,-4,-3,-2,18,13
50660283333,8,-3,6,1,1,1,-2,2
50660299605,42,5,-3,1,1,-2,38,0
50660299605,-3,-8,-24,-9,-4,-3,-16,-23
50660301130,30,0,0,3,1,1,-7,4
50660301130,-5,-5,5,1,-2,-1,10,9
50660313290,43,-5,-10,-6,-2,-3,-14,-10
50660313290,-35,4,11,2,-2,-1,4,-18
50660322137,42,4,1,-2,-2,0,-1,-5
50660322137,23,-7,-6,-1,-2,-3,9,-2
50660337130,-80,0,2,-6,0,0,-11,-11
50660337130,-23,-4,-6,-5,0,1,-2,11
50660343200,-27,-5,-6,1,-2,-1,-16,-8
50660343200,52,14,8,-1,-1,0,0,1
50660359664,38,3,3,0,-1,-3,-18,-8
50660359664,-31,-3,-6,-3,-1,1,19,23
50660361081,-8,-11,1,-2,0,-1,-5,3
50660361081,53,13,3,-2,-1,-3,27,1
50660373238,-8,-2,-14,2,0,0,0,-5
50660373238,1,1,11,2,2,0,-10,-1
50660382115,47,4,-2,-4,-1,-2,0,7
50660382115,-63,-20,-7,-2,0,-3,-10,-10
50660396486,2,5,8,-2,1,-2,-7,8
50660396486,-8,2,-5,0,-2,0,19,11
50660403209,10,5,2,1,-1,0,-11,-15
50660403209,33,7,8,1,2,1,-3,5
50660419627,-51,-25,-28,3,-1,1,-5,8
50660419627,-7,2,-6,-7,1,-2,-20,-5
50660421233,3,4,5,3,3,2,-2,7
50660421233,14,-1,-3,-3,-2,-3,-10,-2
50660433184,28,-8,-6,-2,-3,-5,-13,3
50660433184,-23,9,26,0,-1,0,-1,-17
50660442098,7,-10,-16,-6,-5,-3,7,2
50660442098,-23,-3,9,1,0,-1,-8,-4
50660456465,-12,1,-7,-4,-1,-1,-4,-5
50660456465,18,-5,6,2,-3,-4,-11,-1
50660463213,-14,0,-1,0,3,1,2,-5
50660463213,5,3,-11,-3,-6,-2,-11,-14
50660479563,-11,-1,8,-1,-1,-2,2,2
50660479563,50,10,-11,0,1,0,-9,-4
50660481087,7,2,6,1,0,-1,-3,-9
50660481087,2,-7,-12,-3,0,-1,-6,2
50660493288,-37,-4,6,-4,0,1,12,-14
50660493288,49,-4,3,2,-3,-2,-3,9
50660502058,-8,-2,2,1,0,1,13,13
50660502058,6,1,-5,2,-1,0,-14,-16
50660516398,13,6,7,-1,0,1,11,-10
50660516398,-61,-16,-8,-3,-1,-2,-2,-2
50660523242,-14,5,-5,-1,-4,-4,-13,-3
50660523242,-31,-15,-11,2,1,2,2,-1
50660538786,34,12,18,1,-2,-2,4,15
50660538786,-32,-9,9,5,-1,-1,-1,-30
50660545826,16,-4,-39,-5,-4,-3,7,11
50660545826,-55,-1,13,1,0,-1,-4,9
50660553278,82,5,-3,-3,-1,-2,-3,-6
50660553278,-51,-3,-7,-3,2,1,6,-13
50660562086,36,3,-1,-5,1,-1,3,16
50660562086,8,1,13,8,0,1,1,4
50660576483,-77,-6,-4,-3,-4,-3,-3,-6
50660576483,32,6,1,1,1,1,-38,7
50660583262,13,-4,7,0,1,2,13,-24
50660583262,-24,2,-13,-5,-1,-1,-9,-7
50660598923,-60,-14,6,-2,-3,-3,-4,8
50660598923,30,-1,-6,0,-1,-3,2,2
50660605730,-15,8,4,0,-1,0,-10,0
50660605730,22,0,1,-5,-1,-3,-6,-1
50660613126,-3,0,0,3,-1,-2,-2,-8
50660613126,35,5,-9,-4,-1,-1,4,12
50660622045,12,10,11,0,-1,1,18,4
50660622045,55,-10,-11,-2,-2,-1,3,14
50660636468,-35,0,2,-8,-4,-3,-1,-1
50660636468,-9,1,-1,0,-1,0,10,5
50660643161,24,0,12,2,2,0,-5,-6
50660643161,-40,-9,-9,-4,-4,-3,-12,-8
50660658982,-37,-5,-1,0,0,2,39,0
50660658982,3,-8,-9,-6,-4,-3,8,12
50660673903,-24,-3,8,7,0,-1,-9,-10
50660673903,-10,9,-10,3,3,0,22,-8
50660674565,0,2,6,-1,0,0,-16,20
50660674565,-8,-6,-7,-3,-2,-3,-1,-25
50660682215,-6,-11,2,-1,-2,-4,1,0
50660682215,-16,13,2,1,1,2,-6,-14
50660696497,109,10,-5,-1,1,4,4,19
50660696497,-12,-2,3,0,0,-3,11,-14
50660703129,-10,-13,-8,-5,-3,-5,-13,6
50660703129,60,17,6,2,2,0,12,-6
50660719015,-19,-14,-1,-3,1,0,-21,-3
50660719015,1,3,-6,0,0,2,2,9
50660725627,-32,-9,4,-1,-1,-2,13,-7
50660725627,4,-6,1,-4,-6,-3,4,13
50660741993,27,5,-5,2,1,0,-28,-13
50660741993,6,4,-3,-3,-4,-1,0,6
50660743613,1,2,3,1,0,2,-7,1
50660743613,0,-4,-16,-3,1,-2,2,-23
50660756418,41,-12,-2,-8,-5,-2,-7,-15
50660756418,-28,-5,-5,2,0,-2,-6,-11
50660763210,21,1,-2,0,1,2,0,9
50660763210,14,-5,5,0,-2,-1,-6,16
50660778968,-55,-10,-9,1,0,0,6,-6
50660778968,49,7,2,2,1,1,9,5
50660785732,15,1,-1,-4,-2,-1,12,1
50660785732,-43,-10,0,-4,-2,-3,-6,-2
50660801992,0,-4,-3,-1,-2,-3,24,-2
50660801992,20,3,6,3,2,1,-19,0
50660803634,5,15,-5,-1,-1,-1,5,7
50660803634,-8,-6,13,-2,1,1,-26,12
50660816365,0,5,-1,3,-2,-1,14,0
50660816365,-22,-5,6,0,0,-2,-10,-1
50660823273,-20,-7,-27,-3,-1,0,-7,-9
50660823273,112,20,39,5,0,-1,-2,10
50660839009,-69,-6,-2,-5,0,-4,-16,-11
50660839009,33,-3,-1,-1,-2,-2,2,3
50660845728,39,-6,-1,-1,-2,-4,-10,-11
50660845728,5,6,-12,-8,-2,-2,17,15
50660861972,-8,3,16,8,0,-2,-13,-5
50660861972,-8,-1,-3,-1,-2,-2,23,0
50660863621,-16,-9,1,-1,-2,-1,-3,-1
50660863621,-53,1,-9,-5,-1,-1,0,-1
50660876294,48,4,2,0,0,1,-9,-2
50660876294,-21,-7,-6,-1,-2,1,28,-13
50660883300,-27,2,7,1,0,0,-3,-3
50660883300,-10,-1,-4,1,3,1,5,-2
50660898982,11,-4,3,1,1,0,6,14
50660898982,61,9,3,0,1,-1,-18,13
50660905831,-90,-11,-2,-2,-4,-5,11,-19
50660905831,-31,2,3,-4,-2,-2,2,-3
50660922148,32,10,-9,-2,2,1,-3,-17
50660922148,-31,-10,5,2,-1,-1,-6,11
50660923670,108,15,9,0,-3,-4,-11,-7
50660923670,-31,-14,-21,2,-1,-2,8,0
50660936492,-7,4,-11,1,-1,-1,9,-7
50660936492,-19,-3,3,-8,-4,-3,-10,9
50660943228,-2,-3,-7,-2,-1,0,10,10
50660943228,-22,1,0,1,-1,2,10,-4
