timestamp,emg1,emg2,emg3,emg4,emg5,emg6,emg7,emg8
1523054799649164,-7,-10,-49,-15,-9,-5,-6,6
1523054799649164,-6,1,108,10,-4,-4,0,0
1523054799649666,-2,-16,-25,6,5,2,-1,-3
1523054799649666,5,9,-33,-6,-1,-2,1,-2
1523054799650673,0,-3,-53,-2,2,1,-1,-7
1523054799650673,3,-1,27,6,3,4,-2,-7
1523054799651679,-5,12,40,1,-6,-3,-3,-2
1523054799651679,-5,-4,9,3,2,2,2,5
1523054799663703,14,0,14,-2,-3,-2,5,22
1523054799663703,-5,-13,-101,-6,3,2,3,-3
1523054799670721,-5,-4,45,-10,-12,-9,-7,-33
1523054799670721,-7,-3,26,11,3,2,-4,-7
1523054799678744,3,9,-12,8,10,8,16,14
1523054799678744,0,-6,-15,-5,-3,-12,-26,-23
1523054799692279,12,-7,-49,-9,-1,5,7,12
1523054799692279,-1,10,-8,-6,-7,-6,-7,-8
1523054799703810,4,6,42,4,-2,-5,-9,9
1523054799703810,3,7,-18,-7,-4,3,4,-9
1523054799715842,12,5,2,1,2,3,7,-2
1523054799715842,0,8,10,0,0,2,4,-20
1523054799723863,-10,-7,13,7,3,-1,-5,-28
1523054799723863,17,-8,-10,0,0,7,35,44
1523054799736898,-3,7,-12,1,-3,-9,-54,-72
1523054799736898,-9,-17,-2,-2,-3,-25,-44,-7
1523054799778008,4,-12,1,-10,3,13,59,80
1523054799778008,2,2,4,3,3,4,18,68
1523054799778509,23,13,4,3,-1,-14,-56,24
1523054799778509,-1,-19,-4,0,0,-9,24,46
1523054799779511,12,-3,-2,8,2,4,3,25
1523054799779511,14,-8,2,1,6,5,16,34
1523054799782520,-8,-3,0,0,-1,-5,2,52
1523054799782520,16,-11,-7,-5,-3,-4,-14,-15
1523054799789537,-32,9,6,5,3,-2,-3,-14
1523054799789537,0,-20,-11,-4,-4,1,5,-35
1523054799797559,-3,-5,-4,-2,-1,0,-5,-38
1523054799797559,-4,2,2,0,-4,1,-6,-15
1523054799804577,-1,1,-2,-4,-5,-5,-11,-10
1523054799804577,-7,9,3,2,0,-2,-14,-26
1523054799820119,-16,-14,-7,-6,-5,-1,8,-25
1523054799820119,-6,-11,-17,-6,-5,-4,-9,-12
1523054799826636,5,12,1,-6,-12,-9,-18,-37
1523054799826636,-3,1,0,6,4,2,-6,-6
1523054799850755,5,9,23,5,8,6,14,1
1523054799850755,0,-5,-40,-4,3,3,5,10
1523054799852207,-3,-2,25,-4,-6,-6,-16,-7
1523054799852207,-6,8,45,-3,-9,-5,-9,-10
1523054799865239,5,-18,-105,-6,2,5,16,12
1523054799865239,-12,31,98,1,-12,-6,-11,-17
1523054799871790,2,-2,-69,-11,-7,-7,-10,-23
1523054799871790,6,3,-26,11,15,5,0,-5
1523054799888301,1,-3,-75,3,6,4,7,-14
1523054799888301,-13,-5,74,-7,-2,-3,-5,6
1523054799889805,-1,-1,-25,2,-6,-5,-6,2
1523054799889805,-5,3,25,-2,-4,-5,-2,-15
1523054799910860,5,-1,15,0,0,2,4,-4
1523054799910860,2,1,-60,0,3,3,-1,-53
1523054799912366,3,-8,-2,2,6,3,1,23
1523054799912366,-2,-3,-22,-7,-5,-5,-7,-5
1523054799924398,-8,13,10,-2,-8,-3,1,-7
1523054799924398,-5,-3,23,-3,-3,-2,0,8
1523054799933421,-5,-3,-12,-5,3,1,2,-9
1523054799933421,9,-2,-86,-3,-1,0,-11,13
1523054799948460,-1,3,127,4,-19,-9,-10,-8
1523054799948460,-9,9,-65,5,9,3,-1,-10
1523054799949965,-2,-14,12,4,5,3,-4,-10
1523054799949965,2,6,-59,-9,-4,-3,1,10
1523054799970519,-5,-22,-6,-3,-3,-5,-1,17
1523054799970519,-2,31,-2,2,2,7,0,-14
1523054799972524,-3,11,16,-1,-4,-8,-6,-3
1523054799972524,-10,-7,-27,-7,-7,-2,-6,-20
1523054799985058,4,-3,27,1,7,6,16,58
1523054799985058,12,-12,2,2,0,-5,-2,-1
1523054799992078,-19,-21,-52,-6,-2,-2,-4,-28
1523054799992078,-7,-8,24,-1,-5,-3,1,-8
1523054800008175,-2,-8,7,-6,1,0,-1,8
1523054800008175,-5,0,6,4,7,4,-4,-28
1523054800010124,7,-3,-33,6,4,1,5,11
1523054800010124,-4,9,44,-5,-8,-7,-5,-10
1523054800030679,-8,-1,13,-7,-10,-9,-6,-14
1523054800030679,2,-7,-4,-4,0,-1,3,26
1523054800032183,5,8,91,2,-7,-2,-13,-27
1523054800032183,-2,-5,1,5,11,-5,-5,5
1523054800045218,0,3,8,-3,-2,3,-6,-20
1523054800045218,9,4,-46,-5,-5,-3,1,22
1523054800051735,5,2,15,-10,0,2,3,4
1523054800051735,-18,-1,101,4,-6,-4,-1,18
1523054800068279,-1,-3,-87,1,5,1,-6,-12
1523054800068279,-7,0,19,0,-7,-8,-1,19
1523054800069785,-6,0,-19,4,-1,0,-1,9
1523054800069785,7,-6,-30,-3,1,1,3,33
1523054800090840,8,-3,-12,-3,5,2,1,-27
1523054800090840,-11,-2,3,3,-4,4,4,9
1523054800092345,12,-6,-7,-1,0,-5,-3,-3
1523054800092345,-1,5,-6,1,-1,-5,0,-21
1523054800104876,-6,8,5,2,-1,2,9,25
1523054800104876,4,-7,-20,-1,0,3,-13,-68
1523054800111897,5,-8,14,1,-4,-2,-3,17
1523054800111897,2,12,-15,-4,-1,-2,-3,-13
1523054800128440,0,-3,-75,-8,0,-1,-5,2
1523054800128440,2,4,102,11,-1,-3,1,10
1523054800129945,-3,0,-33,-3,2,4,8,23
1523054800129945,9,2,-12,7,9,6,-3,0
1523054800150499,1,1,-9,-6,-3,-3,11,1
1523054800150499,-2,5,-12,-3,-11,-6,-2,6
1523054800152505,-5,6,25,1,1,-10,-11,-26
1523054800152505,3,-8,-32,-1,3,6,7,17
1523054800164591,0,9,84,7,-7,-2,-4,-11
1523054800164591,15,-2,-32,-1,8,-3,2,65
1523054800173569,16,-1,-5,-3,-2,8,5,10
1523054800173569,-1,-19,27,-3,-6,-3,2,-16
1523054800188098,18,0,-31,-2,-1,0,5,44
1523054800188098,-3,-6,-20,-4,-2,-1,-2,6
1523054800190103,-1,14,-13,0,0,-3,-7,10
1523054800190103,-4,-19,-5,-5,-4,-1,-3,-6
1523054800210258,1,2,14,5,1,1,0,-1
1523054800210258,2,-2,-9,-6,1,3,3,-24
1523054800210760,-8,0,-15,-1,0,-2,0,-24
1523054800210760,1,3,5,-2,-5,-9,-11,12
1523054800232818,-18,3,8,4,4,5,2,-2
1523054800232818,0,-10,-18,-3,0,6,7,-22
1523054800233321,-12,-3,-2,-7,-5,-1,-7,-28
1523054800233321,-18,4,7,0,-2,0,-16,-59
1523054800247357,-24,-1,4,1,3,5,32,26
1523054800247357,-10,-8,-23,-4,-2,-17,-39,-52
1523054800248360,-11,-11,21,-2,-6,-9,33,46
1523054800248360,7,-6,-2,1,4,18,18,-14
1523054800269918,22,5,-15,0,-2,-15,-37,13
1523054800269918,-47,-27,8,-1,4,-1,22,61
1523054800270921,-23,21,8,1,-3,0,-1,-3
1523054800270921,-8,-13,-9,-3,-4,-19,-16,-40
1523054800292532,-4,11,4,0,1,6,9,-75
1523054800292532,15,-1,-4,1,0,2,25,28
1523054800293535,14,-8,-2,-1,-1,-5,-54,-32
1523054800293535,24,-17,-11,-4,-1,7,18,38
1523054800307575,-3,-19,-1,-5,-5,-9,-9,6
1523054800307575,19,15,1,-2,-9,-2,2,24
1523054800308566,-8,-6,-3,6,9,7,0,-16
1523054800308566,18,-1,-7,0,2,5,-3,17
1523054800330079,-3,0,-5,-3,2,0,-11,-40
1523054800330079,-2,-9,-3,1,1,5,2,3
1523054800330578,14,-6,3,1,-2,1,4,17
1523054800330578,-12,14,-10,-4,-5,-12,-10,6
1523054800352637,2,-5,-49,-9,-9,-9,-2,2
1523054800352637,0,3,38,-1,-8,-2,-5,-4
1523054800353140,12,4,27,8,17,7,2,6
1523054800353140,-12,3,15,-1,0,1,3,-1
1523054800367678,-2,-8,-19,-1,-3,-1,3,7
1523054800367678,16,5,-60,-5,-1,0,-6,-13
1523054800368179,-2,-9,-43,2,-5,0,4,-12
1523054800368179,-9,-8,92,-1,1,-2,0,-4
1523054800390237,-12,14,-53,6,13,5,-2,-23
1523054800390237,8,14,-30,2,4,-2,-7,-1
1523054800390739,-12,-16,-15,3,-8,-6,2,-7
1523054800390739,7,0,-87,-9,1,2,9,70
1523054800412797,-9,26,52,8,-6,-4,-3,30
1523054800412797,2,-27,-84,-9,3,4,0,-7
1523054800413298,5,2,13,4,7,4,9,3
1523054800413298,17,8,40,2,-9,-4,-4,24
1523054800427337,6,-9,-23,-8,3,0,0,-8
1523054800427337,-7,-1,86,-3,-7,-4,-9,-26
1523054800428340,6,1,6,-8,-3,-3,1,18
1523054800428340,-12,9,-20,-2,-5,-3,-2,-14
1523054800449896,-5,-8,-8,4,6,3,-6,-1
1523054800449896,-3,7,25,4,-1,-1,-4,-7
1523054800450901,7,-2,21,0,-3,-1,-2,-14
1523054800450901,-2,14,-34,1,5,1,-2,-13
1523054800472456,-8,-17,-59,-9,-5,-5,-2,-38
1523054800472456,-1,-1,-13,-4,-7,6,1,8
1523054800479977,2,11,2,-5,2,0,0,0
1523054800479977,-10,-24,-14,12,4,-6,-6,-13
1523054800486996,3,-9,-21,-2,2,12,17,17
1523054800486996,-2,3,3,2,-2,-4,-2,0
1523054800494516,-5,-2,-117,-18,-6,-2,-1,-10
1523054800494516,-4,30,109,14,-4,-6,4,27
1523054800510056,-15,3,20,7,-3,-5,-9,-26
1523054800510056,-3,-11,-78,-12,3,-7,-5,5
1523054800511060,3,9,83,4,-10,4,10,52
1523054800511060,-9,8,-15,1,7,4,0,-54
1523054800532618,3,-3,-83,-9,2,2,4,-14
1523054800532618,-11,-4,102,6,-9,-9,-8,-18
1523054800533119,-21,1,-41,1,3,-32,-47,-23
1523054800533119,14,-15,-69,-2,-3,12,24,-18
1523054800547656,5,2,-57,-20,0,-2,-8,-12
1523054800547656,-5,15,26,26,0,3,7,30
1523054800548158,-2,-7,-68,-3,-2,-11,13,-3
1523054800548158,7,-2,-40,0,1,-4,-10,1
1523054800570237,15,-15,-123,-13,-1,-2,8,20
1523054800570237,-7,-1,63,7,-2,0,-5,3
1523054800570718,7,1,121,12,8,4,-8,-10
1523054800570718,15,9,-45,-6,-2,-16,-36,-76
1523054800592776,-5,-6,-19,-10,-1,22,22,25
1523054800592776,-9,-2,33,2,-13,-14,-7,-17
1523054800593280,-1,6,-13,6,-5,14,3,-5
1523054800593280,8,-5,-37,-5,10,5,2,-18
1523054800607317,6,16,100,8,-2,4,-3,40
1523054800607317,3,-6,-90,-11,3,8,6,-33
1523054800608318,-2,-3,-54,-14,-2,7,1,10
1523054800608318,-27,-4,51,12,-6,-4,26,18
1523054800629876,39,0,-21,-1,-1,-8,-17,-11
1523054800629876,14,-12,5,5,5,1,-13,20
1523054800630878,0,23,-61,-15,-3,-1,4,-10
1523054800630878,-26,-35,32,-11,-10,-4,-11,3
1523054800652434,-14,11,62,13,-3,-6,2,-7
1523054800652434,10,-4,-90,-12,9,5,6,3
1523054800653437,16,-16,-118,-17,6,3,2,14
1523054800653437,-28,27,75,24,-17,-6,-5,5
1523054800667475,-2,-10,-25,-3,-4,-15,-18,-2
1523054800667475,-20,-20,-126,-11,10,6,-5,-23
1523054800668478,-2,-9,-31,9,0,-2,11,-1
1523054800668478,9,10,9,-4,0,7,9,20
1523054800690034,-7,-14,74,-5,-9,-9,-19,-19
1523054800690034,4,15,-22,-1,-2,-1,8,27
1523054800691038,-4,9,41,1,-2,-1,3,5
1523054800691038,10,-14,-40,-9,8,4,-4,23
1523054800720616,-13,17,87,8,-6,-11,-12,-17
1523054800720616,15,4,58,17,1,4,3,-5
1523054800721618,3,-3,10,-5,-4,-18,-9,14
1523054800721618,12,-10,-124,-18,8,26,14,1
1523054800729138,-2,14,87,13,-6,-3,-2,-4
1523054800729138,-4,7,-24,-8,-2,-7,-1,-13
1523054800729640,20,1,-5,13,4,8,6,58
1523054800729640,0,-10,-22,-12,-4,-13,-14,1
1523054800749192,0,12,-30,-5,3,3,10,-19
1523054800749192,-26,-11,4,-4,-2,-1,-17,-3
1523054800757715,-8,0,17,5,-2,6,-2,-41
1523054800757715,0,-2,-30,-8,1,4,20,31
1523054800772755,20,0,8,4,0,1,23,64
1523054800772755,-14,3,29,-2,-2,-19,-7,3
1523054800773257,-32,2,-12,-2,3,15,-6,-88
1523054800773257,1,7,18,3,-2,-16,-52,30
1523054800794814,9,-18,-5,-2,-4,-16,-10,-83
1523054800794814,-14,7,-33,-12,-5,-4,-37,-42
1523054800795817,8,-5,18,1,-5,-6,5,54
1523054800795817,10,6,13,2,2,6,58,13
1523054800818434,-13,-18,-19,-6,4,-11,-80,-4
1523054800818434,15,8,-14,-1,2,14,42,30
1523054800818878,-10,-5,20,-2,-12,-7,-6,-29
1523054800818878,12,17,10,3,3,-5,-19,13
1523054800832416,-2,5,-18,3,7,12,30,-4
1523054800832416,-4,-6,1,-8,-5,0,2,-24
1523054800833418,-8,-9,19,5,2,-5,-8,34
1523054800833418,-6,0,-16,-1,-1,5,14,0
1523054800854975,-2,-1,-4,-3,-4,2,9,13
1523054800854975,12,-3,3,1,2,2,-1,1
1523054800856031,4,-16,-2,-4,-3,-3,12,-20
1523054800856031,-9,-6,-10,-4,-7,-9,-15,-14
1523054800869513,-8,-1,-17,0,0,4,2,11
1523054800869513,4,-4,-18,-8,-10,-8,0,4
1523054800877573,3,3,30,11,11,6,1,6
1523054800877573,3,-12,53,-5,-2,0,-10,-40
1523054800892575,-4,-9,25,2,0,6,8,-27
1523054800892575,15,3,-64,-4,-6,-4,11,71
1523054800893578,-1,7,64,10,-4,0,-2,9
1523054800893578,7,-5,-88,-11,4,6,5,-5
1523054800915134,1,8,51,8,-3,0,7,8
1523054800915134,-6,-14,-19,0,8,5,-2,-20
1523054800915636,0,-27,-107,-13,9,1,3,8
1523054800915636,-23,22,102,24,-20,-14,-12,-8
1523054800939699,1,-2,-128,-12,0,1,6,17
1523054800939699,2,1,-77,1,6,7,5,11
1523054800940703,-12,0,21,-3,6,3,-2,-14
1523054800940703,-3,-7,-57,-3,0,3,10,16
1523054800952734,-3,-3,-104,-9,-2,-3,2,7
1523054800952734,-16,10,127,20,-11,-1,7,-29
1523054800953236,28,-8,-90,-7,2,3,8,16
1523054800953236,-4,-6,-119,-14,3,0,1,-12
1523054800974794,-14,14,112,0,-14,-19,-37,-4
1523054800974794,8,-6,-52,-11,5,25,61,11
1523054800975797,-6,1,4,-1,-5,0,3,18
1523054800975797,1,-7,78,8,-1,-5,-8,-6
1523054800989331,14,2,-46,-1,1,-11,-17,39
1523054800989331,-26,10,80,6,10,31,46,61
1523054800997854,-5,4,62,-1,-10,-9,-8,-30
1523054800997854,1,2,-12,1,-2,-1,-3,-23
1523054801012396,5,-9,-72,-10,4,6,10,5
1523054801012396,4,2,76,9,0,-14,-30,-1
1523054801013397,-2,4,-104,3,1,3,1,-10
1523054801013397,-4,5,26,3,0,0,2,10
1523054801034955,-2,0,10,-2,-4,2,10,-18
1523054801034955,23,-8,-55,-12,2,-2,-24,13
1523054801035994,-14,3,45,-3,-15,-11,-8,-19
1523054801035994,1,1,-6,-4,3,-6,-9,-17
1523054801049541,-2,-2,6,10,12,8,6,-12
1523054801049541,-2,-2,-56,1,1,-4,-15,-23
1523054801057513,4,9,-6,-12,-3,-2,-2,-5
1523054801057513,-2,-4,-19,-6,-10,-4,-4,25
1523054801072553,10,-11,7,-2,-4,-2,-3,3
1523054801072553,11,9,51,-5,-5,-5,2,14
1523054801073556,5,0,-11,4,5,9,-1,-21
1523054801073556,4,1,-94,-2,3,-1,2,18
1523054801095114,-6,-16,-110,-8,-3,5,12,-10
1523054801095114,3,2,61,7,-5,-18,-29,-25
1523054801095616,-3,8,10,4,-7,-6,-11,-10
1523054801095616,11,-5,-58,-1,11,17,25,24
1523054801118176,2,-2,16,2,-1,-3,-6,6
1523054801118176,-6,-28,-99,-24,-4,-4,-9,-13
1523054801119178,6,10,90,19,1,-7,-6,-15
1523054801119178,-10,7,-22,0,9,4,6,-9
1523054801132714,-9,6,7,6,0,-1,6,28
1523054801132714,10,-1,-128,-10,4,-3,-6,-23
1523054801133215,-2,-10,-59,-14,-7,0,3,6
1523054801133215,-6,-7,8,4,-7,-13,-28,-23
1523054801155274,-15,1,-26,6,8,7,2,-21
1523054801155274,19,3,-45,-3,0,-2,-1,8
1523054801155775,0,7,-61,-11,6,6,23,13
1523054801155775,-24,1,56,0,-5,-28,-54,-52
1523054801178334,-4,-3,39,-6,-4,32,31,-2
1523054801178334,-10,-3,-58,10,10,1,2,14
1523054801178835,-10,9,81,2,-11,-7,-12,-11
1523054801178835,8,-9,78,1,-5,-4,-4,20
1523054801192371,-1,9,2,5,-1,-4,0,9
1523054801192371,-5,-8,-60,-4,-4,-9,-10,-12
1523054801193375,4,-10,-110,-10,2,5,6,17
1523054801193375,-14,32,87,15,-7,-3,5,6
1523054801214931,9,-14,-8,4,3,-5,-4,-2
1523054801214931,-20,7,-29,0,0,4,4,-16
1523054801215935,-1,1,32,0,1,-6,-11,2
1523054801215935,6,-10,-27,-1,2,3,3,-15
1523054801239497,-12,0,-18,-4,-2,-3,13,67
1523054801239497,13,-4,35,1,-6,-12,-25,-44
1523054801240500,11,-13,-30,-7,-1,2,-6,-30
1523054801240500,4,3,-20,-9,-4,-4,16,70
1523054801252585,-7,-8,27,6,0,-5,-4,-8
1523054801252585,-3,2,16,2,-1,-7,0,-5
1523054801253537,5,-6,10,2,3,32,59,41
1523054801253537,10,-2,-38,-1,2,4,-22,-13
1523054801275094,-27,0,13,3,-8,-23,-49,-64
1523054801275094,2,0,33,-4,-11,-20,-38,-16
1523054801276094,7,-4,-6,3,3,9,35,24
1523054801276094,-9,-3,-19,1,3,7,1,10
1523054801298154,2,-3,3,-4,-4,-2,-13,-29
1523054801298154,-11,-1,30,-2,-7,-13,-26,32
1523054801299156,-6,4,-5,3,-3,-13,-12,29
1523054801299156,6,-9,-35,-7,1,12,21,-28
1523054801312691,4,15,24,1,3,1,11,5
1523054801312691,4,-2,10,-1,1,8,21,8
1523054801313193,-12,-13,-13,-4,0,-8,-26,-65
1523054801313193,11,4,-12,-3,-2,0,11,-5
1523054801335754,-2,-15,-2,-12,-8,-5,0,24
1523054801335754,2,5,15,4,6,3,-6,-18
1523054801336256,-7,2,-7,2,3,1,-6,-2
1523054801336256,-4,-1,-6,-3,1,2,-5,-24
1523054801358313,3,-5,4,-2,-2,2,8,12
1523054801358313,1,7,-1,-3,-13,-8,-6,-18
1523054801358815,-9,-48,1,2,4,-10,-29,-4
1523054801358815,-2,-4,-13,-3,-4,-1,3,35
1523054801372852,4,-2,3,1,-2,-14,-1,28
1523054801372852,-6,29,20,7,6,25,33,11
1523054801373353,5,0,-26,-6,-5,-7,-10,-8
1523054801373353,-10,-4,-10,-5,-4,-2,-1,-23
1523054801394912,-2,0,-72,-5,2,-3,-2,-7
1523054801394912,-6,13,86,7,0,-3,2,-4
1523054801395915,10,11,-20,1,-2,-2,-6,17
1523054801395915,2,10,-25,-4,4,1,13,13
1523054801418475,12,-12,-50,9,4,6,6,-3
1523054801418475,1,26,67,-14,-10,-2,1,0
1523054801418976,-10,-14,-46,-6,-7,-4,3,-7
1523054801418976,6,13,-30,-7,-3,-7,-3,-3
1523054801432512,5,18,127,15,-5,0,0,-13
1523054801432512,-5,-20,-45,7,10,6,6,3
1523054801433514,-8,4,-13,-1,2,-5,-6,1
1523054801433514,0,3,18,-1,-9,-2,-2,-11
1523054801455124,0,-7,-8,1,10,8,2,-4
1523054801455124,-3,-14,10,6,1,-2,10,14
1523054801456073,2,23,-61,-15,-2,6,-3,0
1523054801456073,1,-16,8,4,0,-1,-3,-6
1523054801478133,1,17,12,-1,-7,2,4,-8
1523054801478133,3,-10,-59,-2,-5,-4,1,-3
1523054801479135,2,-33,43,9,1,-2,-2,-2
1523054801479135,-3,-6,-37,-15,1,2,-2,-6
1523054801492728,-14,8,94,1,-6,-5,-6,-4
1523054801492728,-12,-21,-11,-3,-2,-2,-5,-31
1523054801493172,2,11,-27,-2,2,1,5,29
1523054801493172,4,-11,-55,0,-2,1,-3,-24
1523054801515244,0,5,-7,1,4,4,10,12
1523054801515244,-1,6,-29,-11,-8,-5,-11,-63
1523054801515735,15,12,7,4,-6,-4,0,25
1523054801515735,0,-26,32,18,3,2,1,7
1523054801538293,5,-1,-91,-24,6,1,1,10
1523054801538293,3,0,40,8,-2,0,2,15
1523054801539296,3,11,-28,1,3,2,-3,-7
1523054801539296,3,5,16,1,0,-1,0,-3
1523054801551883,-1,-5,-15,-4,-11,-6,-4,-12
1523054801551883,6,4,-42,2,1,2,3,34
1523054801560351,-2,-4,-9,1,-3,-3,1,-12
1523054801560351,-1,-2,-65,-1,6,1,-1,-19
1523054801574927,-3,4,35,11,-3,-3,-1,-4
1523054801574927,2,-8,-107,-10,3,1,4,22
1523054801575929,-2,10,66,16,5,2,0,-10
1523054801575929,-4,10,21,-4,-1,-8,-5,-14
1523054801598452,-16,-9,-23,-9,-6,2,-2,-68
1523054801598452,0,-12,-26,-9,-8,-7,-5,-3
1523054801598953,-12,6,15,-3,-5,-9,-25,-4
1523054801598953,-13,-1,36,-2,2,4,27,-45
1523054801612491,4,-4,12,7,6,-2,-5,0
1523054801612491,-14,-19,-102,-17,4,3,0,5
1523054801613493,-17,27,105,9,-17,-11,-6,-33
1523054801613493,1,4,-6,-5,-9,-6,-11,21
1523054801635591,8,-1,-51,-3,-1,-1,-10,8
1523054801635591,2,1,-18,-2,3,-1,11,2
1523054801636555,5,-4,-47,-5,2,-1,0,16
1523054801636555,1,-13,-22,4,5,6,1,11
1523054801658111,-7,8,59,6,-3,-22,-45,5
1523054801658111,3,-1,10,3,2,36,77,31
1523054801659114,1,-10,-10,-8,1,3,5,-6
1523054801659114,0,7,6,2,-4,-7,-6,16
1523054801671648,5,-13,-81,-18,-15,-10,-1,1
1523054801671648,-1,-6,-1,5,19,-2,-26,-5
1523054801680171,-9,-7,72,2,10,4,2,-8
1523054801680171,1,-2,-33,-1,-4,6,13,11
1523054801695209,1,-3,-100,-9,-4,3,6,12
1523054801695209,-5,-7,127,4,-25,-15,-13,7
1523054801695712,-2,12,-99,-6,5,7,11,0
1523054801695712,-14,9,-9,-1,-1,-8,-19,1
1523054801718304,-7,0,114,1,-7,0,16,15
1523054801718304,3,-6,2,-3,0,-5,-9,0
1523054801719274,-2,-19,-10,3,-3,-8,-9,3
1523054801719274,-1,-2,47,3,-3,-7,-10,-50
1523054801731809,13,5,-22,5,7,-6,5,10
1523054801731809,-33,13,-14,3,3,-1,2,-57
1523054801740329,20,-7,18,-4,-4,-10,0,2
1523054801740329,9,15,-20,-4,0,-24,-52,-15
1523054801754869,1,-5,-5,-4,0,50,98,71
1523054801754869,8,8,23,4,2,-27,-43,-28
1523054801755875,-10,-24,-33,-17,-11,-9,-52,-48
1523054801755875,-3,5,13,1,0,-7,15,-17
1523054801778432,19,10,7,14,9,-13,-68,1
1523054801778432,1,-13,5,-4,-2,2,46,42
1523054801778933,14,26,-1,2,2,7,-9,-3
1523054801778933,1,-11,5,-1,-5,-15,-34,16
1523054801791967,21,-37,-2,-3,-2,-11,-22,-2
1523054801791967,1,18,-12,0,-2,9,35,15
1523054801800042,0,23,15,8,8,6,-5,27
1523054801800042,-4,-21,12,-3,-5,-2,-8,-34
1523054801815029,7,-1,-14,3,4,10,5,-11
1523054801815029,16,0,0,5,1,-5,0,32
1523054801816032,2,-28,-10,-9,-4,17,21,-11
1523054801816032,-10,6,4,0,-1,13,19,-7
1523054801838144,-19,6,-6,-8,-4,-5,-8,1
1523054801838144,6,-12,-2,-4,-1,8,-7,-8
1523054801839152,-5,7,8,-1,-7,-1,16,19
1523054801839152,2,-7,-15,-5,-3,6,-1,16
1523054801852127,-10,1,3,-1,8,-1,2,-29
1523054801852127,-3,-1,-6,0,2,0,-18,-1
1523054801860148,0,11,15,4,-1,-5,12,14
1523054801860148,3,1,-91,-12,3,9,10,25
1523054801875188,-14,3,73,9,-2,-7,5,-20
1523054801875188,-4,-10,67,1,-9,-11,-25,-8
1523054801875689,-5,-18,-27,-3,-2,-4,1,-6
1523054801875689,-2,8,-75,1,-1,2,22,18
1523054801898252,-3,-1,-24,-1,12,11,1,-6
1523054801898252,-5,3,47,19,-10,-2,-13,-8
1523054801899252,4,15,-77,-12,-1,-2,8,21
1523054801899252,0,-4,12,1,2,2,7,8
1523054801911787,-5,-2,20,-6,-4,-2,-5,-12
1523054801911787,-1,1,-64,-7,-4,1,-8,10
1523054801920309,-10,-7,76,6,6,-5,2,-18
1523054801920309,8,-4,-49,7,5,6,8,17
1523054801934847,-7,3,-30,-10,-6,-7,2,-4
1523054801934847,5,-2,48,-5,-2,4,-1,-3
1523054801935850,-23,-9,-48,-9,-5,1,-8,-4
1523054801935850,5,-3,33,-6,-7,-3,5,1
1523054801958461,3,-5,64,18,0,-1,-2,13
1523054801958461,-4,12,-115,-23,4,0,-11,-5
1523054801958912,24,-14,-29,10,7,7,30,22
1523054801958912,-18,1,13,4,4,3,-2,-22
1523054801971947,-2,0,-35,3,-7,-6,1,8
1523054801971947,1,-9,85,1,0,-2,-4,-12
1523054801979968,-7,9,41,2,-1,-1,-9,0
1523054801979968,14,-10,-27,-1,1,2,6,20
1523054801995009,0,10,12,-3,5,4,2,-11
1523054801995009,-3,-3,-24,3,-3,-7,-9,2
1523054801996011,-8,6,32,-3,-5,-9,-5,-14
1523054801996011,4,-13,3,-5,-5,2,1,24
1523054802018070,-4,-6,-128,-11,5,-2,-1,-13
1523054802018070,-8,0,86,10,-4,-5,4,37
1523054802019072,12,-3,4,1,-4,0,-1,-1
1523054802019072,1,-5,-31,-5,-1,1,6,7
1523054802040628,-7,1,55,-9,-10,-5,-9,9
1523054802040628,2,-4,-128,-9,2,7,12,29
1523054802041631,1,0,-27,4,4,9,14,-8
1523054802041631,-5,-2,-20,-11,-2,-5,-4,11
1523054802055201,1,4,28,14,-1,1,0,-8
1523054802055201,-10,-10,-11,-7,-4,-6,-11,-33
1523054802055669,3,0,-16,-2,-2,-7,7,21
1523054802055669,5,-10,-77,-18,6,5,1,-23
1523054802078230,-19,43,63,35,-14,-8,-8,-24
1523054802078230,-1,-6,-110,-4,1,-2,-3,-30
1523054802079233,-2,3,-77,-1,1,2,-4,13
1523054802079233,1,6,-14,-2,2,-3,-7,8
1523054802100823,9,-13,-27,-11,1,4,14,-9
1523054802100823,3,-4,-27,-5,-5,-1,-3,3
1523054802101791,-11,3,75,4,-10,-6,-10,-14
1523054802101791,-5,-2,44,6,1,-13,-20,41
1523054802114826,-7,0,0,-5,-2,8,6,16
1523054802114826,-3,4,-10,2,3,16,23,2
1523054802115829,8,-7,-44,-12,-3,-2,2,-1
1523054802115829,-12,2,53,11,-7,-4,-2,-3
1523054802138388,7,-4,-8,-2,7,5,-1,-23
1523054802138388,7,8,-1,5,9,-3,-4,-11
1523054802138894,-15,7,5,-2,-3,-6,-2,18
1523054802138894,1,4,22,0,-7,-1,4,-11
1523054802160949,2,-7,-94,-15,-8,-11,-4,-11
1523054802160949,7,12,96,18,3,4,6,29
1523054802161452,9,1,3,-2,7,0,-6,4
1523054802161452,6,-10,5,4,-2,0,1,-10
1523054802174987,-9,11,-33,-10,1,3,8,43
1523054802174987,-7,20,-54,-6,-7,-11,-25,-90
1523054802175990,3,-14,-31,-6,-2,-1,-8,8
1523054802175990,-4,12,104,13,-8,-4,3,1
1523054802198050,5,-10,-16,-1,2,0,4,10
1523054802198050,6,-3,-15,4,8,3,-1,14
1523054802199052,-15,-1,21,0,-2,-13,-13,-46
1523054802199052,-16,17,-28,0,3,29,30,-48
1523054802220607,1,-7,4,0,-1,-15,-10,-9
1523054802220607,0,-7,-4,0,2,9,7,31
1523054802221612,0,0,-20,-2,-1,-4,-13,-19
1523054802221612,11,-23,28,-3,-3,-14,-20,-32
1523054802235146,2,-8,-12,-2,1,12,9,-70
1523054802235146,-30,12,1,-6,-3,6,34,67
1523054802235648,-3,-3,18,8,-4,-12,-55,-14
1523054802235648,0,3,-8,0,-3,-8,-18,-47
1523054802258209,4,1,-13,-4,-2,0,-27,2
1523054802258209,6,-4,8,-4,-1,-1,-4,-6
1523054802259212,-13,-24,1,4,1,19,19,-64
1523054802259212,-17,1,-2,0,4,-2,-1,50
1523054802280768,-18,-15,-17,-9,-7,-19,-17,46
1523054802280768,13,-6,16,2,-5,-2,-5,-56
1523054802281771,-4,18,-5,2,1,-12,-18,6
1523054802281771,-2,2,-8,-1,5,21,85,17
1523054802294805,5,-2,13,-1,2,-4,-32,-13
1523054802294805,-5,-14,-7,-5,-5,-13,-22,-32
1523054802295808,2,1,-10,-7,-10,14,41,28
1523054802295808,5,8,2,-3,2,8,7,-14
1523054802318369,-10,-1,3,4,7,3,2,17
1523054802318369,0,-12,-4,-4,0,-7,-6,11
1523054802318869,3,-1,-8,-7,-7,-7,1,6
1523054802318869,2,-6,5,0,-5,-1,-10,42
1523054802340929,3,2,-4,5,4,8,19,-6
1523054802340929,-5,-2,-3,-5,-5,-15,-32,-32
1523054802341429,-6,-2,1,-2,-1,8,17,11
1523054802341429,-4,6,-6,-5,-7,-11,-18,-39
1523054802354967,1,7,-5,-6,-6,-7,1,9
1523054802354967,1,-24,4,4,4,2,2,21
1523054802356009,5,2,-1,-1,0,-3,8,28
1523054802356009,1,4,-1,-5,-5,-6,-17,-26
1523054802377580,5,-6,-28,-1,0,1,10,-7
1523054802377580,-22,29,47,6,-2,5,6,-3
1523054802378542,5,7,-54,-6,1,1,5,19
1523054802378542,-4,4,21,0,4,-6,-16,-16
1523054802400620,1,-1,70,8,-7,-3,3,7
1523054802400620,11,-3,-5,-8,0,1,3,6
1523054802401624,2,-1,-75,5,5,2,-3,-2
1523054802401624,-6,6,86,-10,-8,-6,-7,18
1523054802415126,1,-3,-52,9,0,4,7,-5
1523054802415126,4,11,15,-14,4,-1,3,23
1523054802415627,-6,-16,127,11,-7,-4,5,20
1523054802415627,10,-6,-67,-7,0,-2,-4,19
1523054802439191,4,-10,-28,-9,-4,1,6,7
1523054802439191,-1,3,14,8,-1,-5,-9,-5
1523054802439691,2,6,-75,-3,7,2,-1,-4
1523054802439691,0,-13,-55,4,3,0,-1,18
1523054802460747,1,-3,-32,-3,3,-1,2,0
1523054802460747,1,-3,-15,0,-4,6,5,5
1523054802461749,-3,0,52,-8,-9,-4,-6,-19
1523054802461749,-1,-11,-57,5,7,3,2,19
1523054802475286,2,0,-29,-12,-1,-1,-3,-9
1523054802475286,-9,11,-16,3,-7,-5,-5,-15
1523054802475788,-6,2,73,0,-9,-6,-10,-4
1523054802475788,3,5,75,-5,-7,-6,-5,-1
1523054802498347,-3,-11,16,5,0,0,-6,-46
1523054802498347,3,2,-34,-3,0,-2,-2,2
1523054802498848,2,-10,-94,-5,15,8,8,8
1523054802498848,15,-8,-25,-8,-3,0,4,71
1523054802520906,-5,14,67,16,-2,-4,-2,9
1523054802520906,12,1,-75,-8,0,-3,1,8
1523054802521408,-12,-6,108,4,-11,-4,-1,-13
1523054802521408,4,-10,-34,5,3,4,5,-19
1523054802534944,19,4,-58,-18,2,-1,-3,61
1523054802534944,16,-11,44,11,-4,-3,-3,-2
1523054802535947,-23,-12,-79,-10,0,7,6,8
1523054802535947,7,6,12,-1,-3,-10,-11,-2
1523054802558007,-2,-19,-17,6,-2,7,9,-6
1523054802558007,-7,15,70,-25,-4,-1,6,-1
1523054802559010,7,1,-42,6,4,-9,-15,-5
1523054802559010,-7,-1,40,1,-1,5,1,-9
1523054802581067,-8,3,-2,3,-1,-4,-2,-16
1523054802581067,0,-3,3,7,4,-2,-5,14
1523054802581568,1,-10,-9,-3,-8,-10,-8,-40
1523054802581568,-6,9,7,-2,3,1,0,-1
1523054802595140,2,41,45,16,6,1,1,-36
1523054802595140,7,-24,-70,-7,-1,4,-4,-23
1523054802596107,7,17,-5,-5,-4,-4,-2,-2
1523054802596107,0,-10,-67,-3,-3,2,8,-4
1523054802618222,-10,1,-15,-1,1,2,-2,-18
1523054802618222,-7,2,37,9,-1,-3,2,-15
1523054802619273,1,-1,64,3,0,1,-5,13
1523054802619273,2,-11,-107,-9,-2,-5,-14,-29
1523054802640833,-3,4,29,-6,-6,-4,3,-1
1523054802640833,0,-6,-14,0,-8,-4,1,-2
1523054802641335,7,-2,18,2,5,-4,-10,11
1523054802641335,-13,-5,43,6,1,-8,-25,-2
1523054802654371,4,-6,3,-12,-9,12,27,12
1523054802654371,5,6,-56,-1,0,-3,2,6
1523054802662392,6,-26,-32,2,4,5,6,-13
1523054802662392,-7,18,65,14,-3,-3,2,-14
1523054802678442,-11,-3,-46,-6,11,-2,-14,-22
1523054802678442,-6,15,-13,0,-1,-2,18,3
1523054802678935,7,-4,-127,-14,3,-5,-32,-24
1523054802678935,-7,17,15,-3,-13,-7,7,-8
1523054802700993,-8,-16,6,-2,-8,-3,-3,13
1523054802700993,-4,-11,-27,4,9,1,-1,-11
1523054802701495,-1,12,-7,-1,-2,2,5,5
1523054802701495,10,-14,-40,0,5,-1,5,15
1523054802714530,-8,5,20,-9,-8,-12,-19,-13
1523054802714530,5,-25,-54,-17,-3,-3,-10,-3
1523054802722550,-2,34,91,12,-5,-3,7,13
1523054802722550,4,2,10,4,0,31,40,8
1523054802738092,2,-4,-5,-3,-1,1,8,7
1523054802738092,-5,-11,-9,0,-1,1,-5,5
1523054802739096,1,-2,23,0,-1,1,-3,2
1523054802739096,1,6,1,-1,1,13,21,-3
1523054802760652,-12,-13,-23,-7,-4,-8,6,62
1523054802760652,7,0,6,2,-2,14,18,26
1523054802761655,-14,-13,-6,-4,-4,0,29,10
1523054802761655,9,9,3,6,1,-18,-66,19
1523054802774229,-16,-21,-16,-17,-7,-31,-49,-22
1523054802774229,-17,8,22,3,0,6,26,12
1523054802782711,17,-16,-6,-1,1,30,70,5
1523054802782711,-2,-5,-17,-3,-5,-19,-68,-43
1523054802798252,-17,-5,-9,0,0,6,22,-60
1523054802798252,-7,-10,9,0,-5,-10,-36,-14
1523054802799267,3,8,-13,1,8,9,17,-12
1523054802799267,-7,-8,-5,-4,-2,1,8,10
1523054802820812,10,-5,6,4,-4,-6,-19,27
1523054802820812,19,-9,3,-3,4,-3,19,14
1523054802821815,-12,0,-6,0,2,5,13,-20
1523054802821815,0,-13,-4,-8,-5,-9,-22,-10
1523054802843372,3,8,4,1,-3,-3,-2,-4
1523054802843372,17,9,14,7,6,3,10,39
1523054802843874,-5,4,-9,-2,-4,-10,-20,-15
1523054802843874,-10,-1,0,-5,-6,-5,-1,7
1523054802858412,12,-9,-11,-2,8,1,3,4
1523054802858412,-12,6,6,9,3,10,2,-18
1523054802858914,4,4,-5,-1,0,-8,-32,6
1523054802858914,-10,15,-71,-9,-2,3,19,-1
1523054802880974,10,15,85,13,-6,-9,-12,-9
1523054802880974,-7,2,25,-5,-8,2,-5,-10
1523054802881473,-2,-1,-39,-4,-4,-12,-21,-5
1523054802881473,4,-9,-1,-3,4,4,24,18
1523054802894625,-3,12,55,8,1,8,4,-1
1523054802894625,-4,1,-103,5,11,-3,-7,24
1523054802902646,1,5,108,-8,-20,-12,-16,8
1523054802902646,-3,-11,38,3,6,3,13,-2
1523054802918187,-7,-11,-91,-10,-2,4,5,-14
1523054802918187,-11,-17,-30,-4,-3,-3,-10,-20
1523054802919193,4,40,57,10,5,-1,2,4
1523054802919193,2,-10,-59,-2,-3,-1,2,-4
1523054802940747,9,7,-17,-3,3,5,8,17
1523054802940747,-1,-7,50,-3,-11,-11,-9,-18
1523054802941750,-14,-20,-92,-7,-6,-6,-9,26
1523054802941750,-1,3,32,12,7,0,-1,-10
1523054802954337,0,3,31,-1,3,3,4,-1
1523054802954337,-7,-5,-23,-22,-7,-4,-6,-13
1523054802962808,0,-15,-66,-3,-9,-11,-14,-4
1523054802962808,-1,6,110,19,10,9,27,3
1523054802978349,2,-3,-3,12,3,5,7,2
1523054802978349,6,-3,22,-2,-9,-6,-5,21
1523054802978850,1,0,-21,-10,1,4,-5,0
1523054802978850,4,-22,-41,-3,-8,-6,-5,3
1523054803000908,-9,16,-12,-2,-9,-6,0,1
1523054803000908,2,-3,-63,-7,6,4,4,-4
1523054803001409,1,1,101,23,14,4,4,-4
1523054803001409,0,2,-61,-15,-3,-1,-4,5
1523054803023468,2,-11,-32,-6,-2,-15,-21,-21
1523054803023468,-4,3,-44,-1,1,-5,-8,-12
1523054803024973,2,-11,-57,-11,-5,-4,1,-1
1523054803024973,-1,10,56,7,2,2,4,67
1523054803037005,-3,0,10,-2,-6,1,2,-6
1523054803037005,-2,6,-17,4,5,0,3,13
1523054803046029,8,-6,-1,4,-2,-5,-2,-1
1523054803046029,-8,-5,55,-5,-7,-4,-1,-2
1523054803060620,7,4,-99,-6,-2,1,4,13
1523054803060620,-3,5,62,12,8,3,-1,-9
1523054803062574,-16,-11,65,2,0,4,-1,-3
1523054803062574,-5,8,-20,0,-5,-9,-14,-37
1523054803083183,2,-16,-61,-15,0,8,8,3
1523054803083183,1,0,38,-10,-5,-1,-5,-13
1523054803084631,-9,-1,35,13,-6,-11,-16,-5
1523054803084631,2,1,-86,-6,-2,13,31,6
1523054803096664,-1,-9,-59,6,8,-1,-4,0
1523054803096664,0,-3,6,0,2,6,6,9
1523054803105687,4,7,7,0,1,-29,-38,-15
1523054803105687,3,-6,-11,0,-6,24,44,-8
1523054803120727,-2,-3,30,-2,0,1,-7,-13
1523054803120727,-2,2,-14,2,-1,1,0,-2
1523054803122231,3,-4,-30,-7,-6,-2,6,7
1523054803122231,-5,6,6,3,5,-9,-22,-21
1523054803143286,0,13,27,-3,0,8,12,23
1523054803143286,5,3,-58,-5,-4,-8,-7,-9
1523054803144792,-12,-10,-39,-5,-6,5,6,1
1523054803144792,-5,3,71,11,3,-8,-18,-3
1523054803156824,2,14,-3,-1,-1,5,2,-12
1523054803156824,5,-30,-17,-1,-4,-7,-8,4
1523054803165848,0,9,-128,-13,5,9,5,17
1523054803165848,-5,3,83,2,-13,-12,-12,-7
1523054803180888,-6,-5,17,7,0,-20,-44,-21
1523054803180888,0,6,-45,5,4,31,69,26
1523054803182391,3,-10,-83,-11,3,18,6,7
1523054803182391,-5,20,60,3,-2,-8,-11,-8
1523054803203447,-1,-10,-18,-2,-4,2,7,21
1523054803203447,-3,13,56,-1,-7,-18,-29,-7
1523054803205007,-2,-3,27,-2,7,4,3,-3
1523054803205007,0,-4,-31,-3,3,1,0,1
1523054803217485,-7,4,94,9,-1,2,4,-4
1523054803217485,-5,-4,-35,-9,-7,3,-10,-11
1523054803224502,12,-9,-106,-9,5,3,10,-4
1523054803224502,-16,6,20,3,-6,-7,-16,-13
1523054803240546,-1,-5,-36,-2,-3,-11,-3,-4
1523054803240546,10,-3,-24,9,4,-3,-7,-6
1523054803242550,-42,27,77,9,5,9,16,13
1523054803242550,0,-31,-62,-10,-3,-2,-11,-57
1523054803263105,-14,1,-1,1,1,0,8,-12
1523054803263105,-4,12,6,3,-3,-16,-4,-3
1523054803265112,8,-12,71,4,-5,-8,-19,-10
1523054803265112,1,-4,-57,-8,4,-13,-2,30
1523054803277644,0,-2,14,0,-1,5,17,-4
1523054803277644,2,-1,15,-1,-5,-16,-5,6
1523054803284216,15,8,-12,3,3,0,17,10
1523054803284216,9,3,-28,-3,2,5,16,16
1523054803300760,-6,-20,-2,-7,-10,-18,-30,-15
1523054803300760,9,15,14,2,4,-1,-14,1
1523054803302212,-2,-23,4,-3,-10,-20,-28,-55
1523054803302212,6,5,-13,1,4,11,32,-13
1523054803323267,-3,-4,-25,-8,-1,-4,-8,2
1523054803323267,-16,-3,23,1,-8,-10,-48,-72
1523054803324770,11,23,23,12,9,10,53,58
1523054803324770,11,-12,-34,0,0,-6,-63,-24
1523054803337804,-6,-1,-8,-1,-2,-2,23,-26
1523054803337804,4,-5,13,-9,-3,10,30,10
1523054803344321,5,5,-4,-2,-10,-10,-30,71
1523054803344321,4,1,-12,4,10,16,41,78
1523054803360919,10,9,4,5,6,17,7,28
1523054803360919,-12,-4,17,5,7,-3,-23,-7
1523054803362370,-3,-14,-11,-6,-6,12,45,-26
1523054803362370,3,-1,-19,-11,-9,-6,-7,-3
1523054803383438,2,-4,4,-6,-6,-3,-15,4
1523054803383438,-3,-2,10,4,1,2,1,16
1523054803384930,1,-1,-6,-2,5,1,-8,-23
1523054803384930,-12,1,-11,-6,-3,-5,-15,-1
1523054803397464,10,10,0,2,4,5,6,11
1523054803397464,4,-8,-47,-8,-2,9,34,13
1523054803404481,2,9,67,7,-7,-4,-21,-19
1523054803404481,-8,16,-23,-4,-2,-12,-9,-5
1523054803420559,2,-13,-9,1,3,10,17,10
1523054803420559,-2,1,-3,0,-5,-2,5,4
1523054803422530,-4,9,11,-2,-7,-4,-8,1
1523054803422530,6,-18,-81,-3,21,9,8,-1
1523054803443086,-5,2,106,16,-11,-5,-6,2
1523054803443086,-10,0,13,-10,-5,-5,-13,-6
1523054803445091,4,-11,-79,-12,-5,-1,-6,-12
1523054803445091,-3,-2,55,-3,-12,-10,-2,-8
1523054803457123,-3,-2,-97,-5,13,10,3,7
1523054803457123,-2,8,121,10,-5,0,-7,5
1523054803466147,-5,-13,-87,-7,4,-1,0,24
1523054803466147,4,-3,76,6,2,-2,-4,1
1523054803480685,3,-4,-10,-4,-7,-10,0,16
1523054803480685,0,-3,-61,-3,4,-4,1,41
1523054803482189,5,13,-32,6,4,4,-5,-30
1523054803482189,3,1,27,-4,-2,2,-4,10
1523054803503246,3,-12,-19,-6,-8,-1,1,17
1523054803503246,5,-21,-87,-1,7,4,5,8
1523054803504749,-7,18,104,7,-2,0,-3,-15
1523054803504749,-5,-7,-62,-1,-9,-12,-9,15
1523054803516780,5,16,-14,-8,-4,3,3,1
1523054803516780,-3,-8,-47,-7,-5,-2,0,-16
1523054803525804,-7,-12,6,-7,-1,-1,-4,1
1523054803525804,2,-3,-19,-6,-2,4,5,-15
1523054803540844,-7,8,111,23,6,-1,-3,2
1523054803540844,3,5,-94,-13,0,0,-4,-7
1523054803542348,0,-16,1,-2,-7,-11,-8,2
1523054803542348,2,5,-67,-2,0,14,22,13
1523054803563405,6,-4,-128,-19,3,-3,0,-9
1523054803563405,-32,29,127,35,-7,-5,-20,-48
1523054803564910,-2,-3,-55,-8,-5,19,32,-39
1523054803564910,7,-13,-65,-12,-7,-7,17,31
1523054803576995,-21,11,2,8,9,-8,-7,18
1523054803576995,6,-7,-14,-13,-2,7,9,45
1523054803585967,6,-12,-75,-14,4,-2,-2,12
1523054803585967,-24,18,34,18,-9,-6,-18,-29
1523054803601005,21,-7,-47,-3,-4,18,18,-8
1523054803601005,9,-9,3,1,-3,-7,1,50
1523054803602508,-10,0,-46,-9,8,4,2,2
1523054803602508,-1,-13,44,6,2,3,-2,-8
1523054803623063,2,5,55,-1,-3,-16,-25,-10
1523054803623063,5,-10,-97,-11,-6,4,-7,-26
1523054803625069,-5,3,13,16,8,8,15,-40
1523054803625069,-2,-6,-23,-14,2,-2,-15,-17
1523054803637100,-5,-2,-44,4,2,1,-4,-16
1523054803637100,-6,7,76,-4,-14,-7,-4,-15
1523054803645623,2,1,-48,-7,-3,-16,-14,9
1523054803645623,-4,1,13,6,1,13,36,4
1523054803660701,-20,-14,-42,-13,-3,6,-14,-5
1523054803660701,-8,-2,-38,-4,1,-8,5,-32
1523054803662168,1,2,111,11,-9,-10,-14,12
1523054803662168,-4,16,26,-5,-1,3,-11,-30
1523054803683224,15,-5,2,-6,-5,-4,4,9
1523054803683224,10,-7,-70,0,10,15,15,16
1523054803684728,-7,0,20,3,-8,-4,-7,-3
1523054803684728,-1,5,-51,12,-5,-9,-12,-10
1523054803696761,5,5,-84,-5,-1,0,6,21
1523054803696761,2,-15,3,1,-1,-1,-2,-29
1523054803705785,-1,12,-83,-5,3,1,-1,12
1523054803705785,-2,2,-37,-10,-4,-4,-8,17
1523054803720823,-1,-19,84,7,-9,-5,-13,-15
1523054803720823,4,0,11,-4,6,-7,-15,-10
1523054803722365,10,-9,0,0,-3,1,-7,-8
1523054803722365,15,-5,-15,-11,-5,-9,-10,-32
1523054803743383,-11,-9,104,11,-7,-7,-9,-13
1523054803743383,-4,2,28,-10,-9,-5,2,20
1523054803744888,-1,-11,0,-1,2,-3,8,-1
1523054803744888,-8,-2,-7,-2,3,19,-14,-27
1523054803767045,-6,-15,-87,-18,4,2,23,9
1523054803767045,-12,7,29,5,-1,-17,-5,-9
1523054803768549,9,-2,12,-2,-9,16,-8,-21
1523054803768549,21,-2,-21,-8,-1,3,17,-37
1523054803780581,-4,13,9,5,3,-10,-26,-19
1523054803780581,-30,1,8,3,0,1,38,-18
1523054803782586,11,2,-2,0,3,-4,-6,-41
1523054803782586,-20,-13,-8,-1,-6,-12,-30,47
1523054803803141,-1,9,7,-2,-4,-8,-25,-36
1523054803803141,4,0,2,2,2,7,6,-14
1523054803804644,17,18,-7,6,4,-3,12,109
1523054803804644,-5,-8,22,1,1,-2,19,-6
1523054803817178,3,8,-8,2,4,2,-7,33
1523054803817178,14,-3,-16,0,3,10,-9,32
1523054803825701,-38,-13,9,-2,-12,-34,-24,6
1523054803825701,12,-10,-4,1,1,9,19,-49
1523054803840740,4,5,-9,-1,-1,-6,17,-6
1523054803840740,7,8,0,6,5,22,37,17
1523054803842245,-6,-5,5,-2,5,0,-39,-21
1523054803842245,5,-8,0,0,-1,-5,-9,27
1523054803863300,11,8,-10,3,8,6,26,-7
1523054803863300,6,-13,8,-2,-7,0,-17,-26
1523054803864806,-1,-1,-1,-2,-4,-8,-10,-14
1523054803864806,0,-13,-10,4,8,-3,3,13
1523054803876890,-4,5,-3,-5,-5,7,19,10
1523054803876890,0,9,0,-3,-4,-7,-15,15
1523054803885895,-7,-4,-1,2,5,-5,-16,-56
1523054803885895,-5,-9,-3,-2,-2,-8,4,23
1523054803899899,-3,22,12,3,2,7,-6,-9
1523054803899899,-3,2,-1,-5,-8,-11,-23,-8
1523054803906918,2,4,-8,-3,-6,3,18,29
1523054803906918,-4,5,4,4,6,7,7,16
1523054803923460,0,-34,-33,-4,-3,-5,-8,-19
1523054803923460,-4,5,25,6,0,-6,-4,0
1523054803925021,1,3,-19,-1,6,10,24,19
1523054803925021,-1,21,17,-1,-1,-5,-3,2
1523054803945519,11,-5,-52,-2,-2,1,2,23
1523054803945519,-10,2,80,2,3,-1,0,-4
1523054803947525,-5,-1,-67,-4,-2,5,15,10
1523054803947525,-4,-1,18,0,-10,-7,-16,-17
1523054803960059,-4,-6,-25,-3,1,1,5,-7
1523054803960059,-1,-12,-20,1,7,-4,-3,-1
1523054803967077,-1,3,81,6,3,10,5,-3
1523054803967077,-1,-4,-64,-1,-8,-4,0,9
1523054803983121,1,8,-17,5,2,2,7,9
1523054803983121,-2,25,59,8,-6,-4,-5,5
1523054803985125,7,-21,-74,-24,1,1,3,30
1523054803985125,-1,-9,5,-5,-11,-11,-14,-37
1523054804005681,-7,-9,-33,2,8,6,-1,-4
1523054804005681,-3,6,-31,-6,0,2,-8,-15
1523054804007185,7,-23,-90,6,7,2,6,-2
1523054804007185,-9,43,126,1,-10,-5,-6,6
1523054804020754,-10,-11,-85,-2,-1,-1,-3,-4
1523054804020754,4,-10,-106,-22,-12,-8,-4,6
1523054804022224,-5,10,83,11,-3,-2,1,-4
1523054804022224,5,-17,-82,-4,5,3,7,9
1523054804043279,-6,-15,121,5,-4,-4,-9,-6
1523054804043279,-3,9,3,-6,0,-2,0,2
1523054804044785,2,-7,-54,-2,-3,2,0,-1
1523054804044785,-1,10,-95,-1,6,2,5,14
1523054804065839,0,-6,56,-3,-8,-2,-3,-12
1523054804065839,-5,-11,-20,-8,-3,-7,-10,6
1523054804067345,-2,8,57,7,-1,2,0,2
1523054804067345,6,-15,-102,-10,7,2,4,16
1523054804079878,-5,12,65,-3,-11,-9,-7,-5
1523054804079878,9,-6,-9,11,12,-1,7,20
1523054804086949,3,5,20,2,-2,0,3,-6
1523054804086949,2,-1,-42,-5,1,4,4,11
1523054804103440,-2,-16,20,-1,0,-1,2,6
1523054804103440,-2,0,-21,9,2,-4,-5,1
1523054804104945,-2,0,-19,-8,-5,-2,-1,-2
1523054804104945,1,-11,-36,-6,0,1,-1,0
1523054804125555,-3,7,22,-3,-1,-1,-1,3
1523054804125555,6,-4,38,7,0,4,-3,-19
1523054804127552,-5,2,-26,-5,0,-1,2,18
1523054804127552,-3,-7,-56,-5,3,3,-1,3
1523054804140037,6,9,75,7,-2,-4,-2,10
1523054804140037,-1,-2,-12,1,-2,2,-1,-14
1523054804147058,-18,10,49,13,5,8,7,-45
1523054804147058,17,8,32,2,-4,-7,-5,46
1523054804163100,9,-1,-128,-16,-4,-2,8,3
1523054804163100,0,14,13,-2,-1,8,9,7
1523054804165105,-2,-29,3,-1,4,-9,-14,7
1523054804165105,-25,13,48,5,2,3,-3,-58
1523054804185659,-4,-26,-48,-3,-4,-3,-1,-6
1523054804185659,0,-8,-105,-16,-16,-7,-2,-6
1523054804187162,-3,8,86,-2,-11,-13,-21,0
1523054804187162,14,-3,-32,14,11,11,17,6
1523054804200197,-8,-4,-39,-5,-3,-5,-1,-4
1523054804200197,-6,7,-95,-12,5,5,2,-27
1523054804206714,4,-7,24,1,-10,-4,0,-2
1523054804206714,-3,1,64,5,-5,-21,-22,5
1523054804223258,-17,21,19,0,0,14,13,1
1523054804223258,15,-21,-73,-13,7,5,7,24
1523054804224762,5,1,50,8,-8,-8,-6,-2
1523054804224762,-8,-1,61,-1,-10,-7,-4,5
1523054804245818,3,-3,-66,3,6,-1,2,-6
1523054804245818,-5,-7,-13,-5,-1,-1,-2,-8
1523054804247324,7,5,-26,-4,1,-8,-7,17
1523054804247324,-7,-12,-5,-2,-1,-14,-25,-49
1523054804259855,5,2,23,3,3,35,48,-9
1523054804259855,3,14,6,7,2,-2,-23,-5
1523054804266876,-16,-2,3,-8,-3,-3,-1,-70
1523054804266876,21,-6,4,5,6,9,4,16
1523054804283419,-14,23,12,-1,1,-15,-28,-16
1523054804283419,-5,-3,50,10,-3,-35,-74,-14
1523054804284924,-12,1,-43,-2,8,36,92,66
1523054804284924,-23,-12,2,-4,-3,23,31,-11
1523054804305980,6,6,-9,-6,-5,-27,-76,-4
1523054804305980,-12,27,58,17,4,2,24,-20
1523054804307484,-11,-34,-38,-21,-5,-16,-70,-16
1523054804307484,7,6,0,1,-3,5,10,37
1523054804320016,24,-18,-1,2,2,-11,-25,-54
1523054804320016,-11,-9,18,-13,-9,13,26,31
1523054804327034,-26,27,-36,8,-1,-19,-44,-79
1523054804327034,-10,-5,12,1,2,-16,-16,-5
1523054804343077,-11,-5,3,-6,-7,-25,-16,17
1523054804343077,-2,-7,9,7,6,1,-27,-12
1523054804345084,81,-16,-21,6,8,33,63,113
1523054804345084,-13,-1,6,-1,-4,-20,-59,-67
1523054804365637,-9,7,9,2,-9,-40,-79,13
1523054804365637,-2,3,1,-1,0,6,49,-13
1523054804367141,-34,-11,-21,-6,-1,1,17,-75
1523054804367141,-1,-11,9,1,3,-2,-23,-31
1523054804379173,-26,21,-7,-2,4,25,64,43
1523054804379173,8,-13,-7,-5,-8,0,-7,-16
1523054804388197,12,0,-10,-3,1,0,-6,6
1523054804388197,1,-3,27,7,12,12,27,29
1523054804403238,0,-4,-6,-3,-6,7,5,-21
1523054804403238,5,-13,-57,-17,-14,-7,-4,13
1523054804404742,3,35,93,32,9,6,5,9
1523054804404742,4,-4,-113,-17,12,4,6,7
1523054804425798,8,-13,12,-4,-1,8,15,20
1523054804425798,4,2,81,-9,-5,-3,7,9
1523054804427303,1,-11,53,22,-13,-11,-23,2
1523054804427303,0,8,-56,-12,-1,2,9,8
1523054804439387,6,-9,-69,-13,1,9,26,1
1523054804439387,5,6,40,10,3,0,3,14
1523054804448358,-7,6,10,-16,-12,-12,-9,-1
1523054804448358,-13,-6,127,-2,-14,0,3,0
1523054804463397,11,8,-37,13,10,10,26,13
1523054804463397,3,3,79,20,-9,-14,-15,-12
1523054804464902,5,-26,-35,-1,18,10,-12,32
1523054804464902,6,9,-86,-6,7,30,59,-2
1523054804485958,2,17,92,7,-5,-18,-36,-23
1523054804485958,0,-46,32,11,1,10,9,-3
1523054804487462,-7,0,-85,-15,1,5,3,-28
1523054804487462,-1,8,73,30,-9,-12,-3,36
1523054804499548,0,-44,-128,-21,-4,5,9,-12
1523054804499548,0,14,-94,1,14,1,-4,7
1523054804508519,0,-4,60,-12,-21,-19,-6,-7
1523054804508519,11,-11,-60,-2,-1,6,9,17
1523054804523057,5,11,66,4,11,4,14,6
1523054804523057,-13,2,14,11,-9,-6,-9,-9
1523054804525063,-1,6,-100,-19,6,5,3,3
1523054804525063,3,-9,7,3,-2,-6,-8,-6
1523054804545616,-11,7,66,1,1,3,-1,1
1523054804545616,9,1,-128,-17,6,2,7,8
1523054804547120,-15,-9,55,-3,-11,-8,-7,-25
1523054804547120,-4,-3,21,1,-12,-13,-14,-13
1523054804559654,10,6,-120,-14,3,6,9,7
1523054804559654,-18,-36,-23,-7,-8,-3,8,-10
1523054804568176,-1,0,-85,5,-3,-4,-2,12
1523054804568176,-1,25,13,-2,1,-2,-7,-6
1523054804583216,2,-16,-43,-6,7,-1,2,13
1523054804583216,15,17,8,-1,3,14,-2,18
1523054804584722,6,5,23,3,-4,0,17,11
1523054804584722,-1,-6,-63,-16,-16,-6,9,5
1523054804605776,1,1,26,4,4,-1,-23,-4
1523054804605776,1,19,67,16,18,18,37,18
1523054804607280,0,-2,-41,-10,-2,-1,1,7
1523054804607280,6,10,39,9,3,-1,-19,-29
1523054804619313,-23,-5,-11,-11,-22,-10,-4,-23
1523054804619313,-5,-5,-35,-3,-1,-4,-12,-1
1523054804628338,11,4,-105,-9,5,-1,1,3
1523054804628338,1,13,52,5,-1,-5,4,8
1523054804643376,-10,-15,70,10,-4,-3,-5,-14
1523054804643376,13,-2,-41,-3,1,-4,-5,-2
1523054804644881,-2,4,-81,-12,2,0,-6,-3
1523054804644881,-33,-10,-67,-4,2,-4,-21,-1
1523054804665936,4,-1,-43,-3,-2,1,5,-1
1523054804665936,7,2,-12,-3,2,-4,-5,22
1523054804667440,-1,8,11,9,-1,9,18,-32
1523054804667440,-9,-5,-12,-7,-6,1,-4,-3
1523054804679472,-13,-14,-33,-11,-15,-1,16,3
1523054804679472,-3,1,-56,-3,-5,3,-2,0
1523054804688498,2,10,66,20,43,18,13,56
1523054804688498,14,1,-24,-3,-1,0,6,-38
1523054804703036,10,14,19,1,0,1,7,2
1523054804703036,0,13,29,-14,-19,-18,-18,-21
1523054804705042,-13,-8,-20,-6,-16,-11,-12,12
1523054804705042,6,-2,31,-2,3,2,1,13
1523054804725595,2,-1,14,9,4,1,-3,3
1523054804725595,-4,-4,-5,-5,-4,-9,-2,-22
1523054804727600,3,-5,-36,4,-3,-2,-7,-5
1523054804727600,2,6,3,1,12,0,7,17
1523054804739634,7,8,17,9,-3,0,-2,2
1523054804739634,-12,-2,82,4,0,-3,-9,1
1523054804748155,23,-26,-40,-7,-5,-14,-16,0
1523054804748155,-1,17,25,7,-4,12,20,9
1523054804763197,4,9,-14,3,3,0,-17,21
1523054804763197,-11,-11,-9,-9,-4,-10,1,27
1523054804764700,-14,-11,39,2,-6,-5,-5,19
1523054804764700,6,-12,-35,-5,-1,-9,-21,37
1523054804785755,16,-2,13,3,4,-19,27,5
1523054804785755,10,12,-2,2,6,35,-24,1
1523054804787259,-21,8,23,-11,-15,-2,27,102
1523054804787259,-14,-14,-15,1,5,-17,-64,-9
1523054804799292,-19,-12,-20,-4,2,20,85,47
1523054804799292,3,7,0,2,0,-20,-51,-97
1523054804808315,-13,-17,17,8,0,22,-1,4
1523054804808315,-21,-18,-30,-25,-14,7,-9,35
1523054804823385,3,-66,-20,-10,-15,1,-71,33
1523054804823385,12,35,10,14,14,10,117,127
1523054804824861,-12,1,6,-18,-24,-50,-128,-128
1523054804824861,20,-16,-11,7,-1,-16,46,34
1523054804846921,9,30,7,0,1,59,38,1
1523054804846921,45,-8,-12,-5,0,19,1,4
1523054804848926,-48,14,27,17,6,-7,-2,-1
1523054804848926,-2,2,-9,6,2,2,11,29
1523054804868477,-13,-11,12,3,7,-13,20,4
1523054804868477,-18,-12,-16,-9,-5,-16,-42,-75
1523054804870033,3,32,19,9,9,11,26,15
1523054804870033,0,8,0,-5,-5,-4,-14,-44
1523054804883013,-1,13,6,8,5,-13,-26,-35
1523054804883013,-2,-20,-11,-8,-5,5,27,-6
1523054804889588,25,-7,-50,-5,-3,-8,-3,-24
1523054804889588,-8,8,76,6,-15,0,8,-22
1523054804905575,26,19,-9,-3,2,-4,-12,-16
1523054804905575,-7,-8,47,18,23,-5,-19,19
1523054804907579,-20,-37,-92,-15,13,25,27,10
1523054804907579,4,39,66,18,-14,-8,-1,-19
1523054804928190,-5,-8,94,-4,-14,-16,-19,-16
1523054804928190,-11,-17,-31,-9,-9,-5,-13,-1
1523054804929639,15,-27,-19,5,10,8,16,-4
1523054804929639,13,-22,-128,-15,9,9,6,0
1523054804942708,-7,24,1,5,-4,-4,-22,-15
1523054804942708,-21,-6,85,15,-3,-4,-2,-11
1523054804949244,13,7,-38,-8,-4,-6,5,-5
1523054804949244,1,-6,-17,-9,-1,12,-9,-1
1523054804965791,-6,20,49,14,7,0,5,13
1523054804965791,8,-8,-5,-21,-8,-8,-13,34
1523054804967239,18,14,-76,-13,-21,-18,-4,-4
1523054804967239,1,-5,-60,3,17,4,-6,-12
1523054804988295,-8,0,-3,-9,-12,-22,-31,-22
1523054804988295,9,-3,-17,17,14,15,41,42
1523054804989800,15,23,81,8,7,-5,9,-11
1523054804989800,-10,-21,-86,-17,-9,-11,0,-21
1523054805002833,-4,10,-28,-1,1,-1,-10,1
1523054805002833,-8,-17,-115,-11,-13,-10,-12,-16
1523054805009350,5,5,8,5,1,8,1,8
1523054805009350,-10,9,89,20,8,7,13,0
1523054805025896,6,-12,-112,-22,-4,-4,0,-31
1523054805025896,-10,8,-20,-17,-13,-9,-9,-3
1523054805027400,7,4,-24,1,5,9,7,6
1523054805027400,4,-16,-21,-20,-3,0,-3,-4
1523054805048466,-4,2,-7,17,4,-3,0,-6
1523054805048466,-18,12,10,6,0,2,-5,-21
1523054805049959,-2,-3,-42,-8,-3,0,-3,-3
1523054805049959,7,14,49,-3,-1,-3,-1,42
1523054805062493,-10,-6,-7,0,-2,2,4,-32
1523054805062493,-2,4,-11,-6,-3,-5,2,-17
1523054805069510,-24,-2,23,2,-6,-2,-35,-79
1523054805069510,-6,3,19,-3,-4,-8,7,25
1523054805085554,27,-6,-115,-17,1,0,1,19
1523054805085554,-6,4,34,17,7,5,-15,-14
1523054805087559,4,2,34,5,0,-7,-11,9
1523054805087559,-5,-17,-54,1,-1,9,-2,-2
1523054805108114,-7,-3,-13,-7,-5,-7,3,-3
1523054805108114,1,3,62,1,-6,-9,-9,11
1523054805109617,3,-15,36,-1,-2,-1,3,-19
1523054805109617,9,-11,-8,3,-1,2,-4,-24
1523054805122652,6,-5,-62,2,7,5,10,27
1523054805122652,-7,5,78,5,-5,-2,-2,-3
1523054805129169,11,7,-39,-5,-3,1,15,28
1523054805129169,1,7,64,7,2,0,1,-12
1523054805145715,-7,-19,-34,-7,-3,-3,-11,-6
1523054805145715,3,17,-73,-6,2,1,2,-12
1523054805147218,-3,7,-30,4,4,0,4,7
1523054805147218,-6,-4,44,-13,-12,-15,-17,-33
1523054805168273,-3,4,8,8,7,-4,-7,2
1523054805168273,-8,0,21,-7,-2,26,68,26
1523054805169778,-4,-1,-15,-1,-4,-1,12,57
1523054805169778,4,8,-128,-12,-4,-5,-12,4
1523054805182814,-23,0,127,26,3,-2,0,-31
1523054805182814,23,-7,-106,-5,-4,-11,-20,16
1523054805189330,0,12,-30,-3,1,4,1,-7
1523054805189330,-11,-12,-68,-6,-3,0,9,-12
1523054805205874,6,7,65,2,-4,8,-14,4
1523054805205874,0,6,54,2,5,2,15,8
1523054805207377,9,8,25,-2,-5,-2,-3,-28
1523054805207377,4,-11,-92,-11,3,0,-4,2
1523054805228434,-10,16,87,17,-2,0,1,-6
1523054805228434,-6,6,6,-4,2,-5,-25,-41
1523054805229937,-8,-61,-22,-2,-3,2,25,2
1523054805229937,0,7,28,6,1,1,2,8
1523054805242472,-6,1,-67,-13,3,-10,-8,-4
1523054805242472,4,-11,-45,-6,-11,0,21,16
1523054805249490,-20,12,94,-8,-8,-16,-33,4
1523054805249490,4,24,6,16,19,16,31,-1
1523054805265532,48,-14,-115,-30,-5,10,7,85
1523054805265532,-49,14,44,15,1,-3,-12,-8
1523054805267537,-5,15,1,9,3,-8,0,76
1523054805267537,20,-13,7,3,-3,2,51,33
1523054805288091,-12,32,-19,1,0,-8,-12,-3
1523054805288091,-3,-3,-18,-3,3,28,75,67
1523054805290097,5,-16,-16,3,7,0,-41,-124
1523054805290097,-43,-15,38,2,-9,-13,-37,-60
1523054805302631,-16,2,2,-5,-3,37,95,47
1523054805302631,19,-51,-46,-20,-8,-29,-19,-26
1523054805309149,1,40,57,18,7,-5,-60,-41
1523054805309149,-7,-27,-10,-13,-13,27,13,-37
1523054805325692,-44,-30,0,1,-10,-22,-27,-25
1523054805325692,-27,-50,-22,1,1,-7,9,-18
1523054805327196,34,2,-16,-3,6,20,91,38
1523054805327196,-45,12,44,21,5,-24,27,35
1523054805348253,73,20,-5,-1,8,15,4,23
1523054805348253,76,-6,-12,5,-1,1,-13,67
1523054805349758,-61,-38,-13,-15,-12,0,61,69
1523054805349758,-30,9,6,11,9,-4,-23,-54
1523054805361788,-19,8,34,2,-5,-8,-2,-52
1523054805361788,-53,18,-23,-6,-1,-3,-13,-46
1523054805370813,52,-22,-9,-17,-17,-14,-30,108
1523054805370813,26,19,11,0,5,4,-5,68
1523054805385909,-1,1,-12,4,13,0,10,0
1523054805385909,-20,-3,-9,-8,-9,-6,-48,-38
1523054805387356,-24,9,-2,6,-11,6,-15,-60
1523054805387356,8,5,2,-16,-9,-3,-13,-4
1523054805408414,19,-16,-28,1,-34,-1,-18,-11
1523054805408414,15,33,-10,2,54,6,-19,-5
1523054805409917,3,9,92,22,36,15,13,-15
1523054805409917,30,-5,-88,-13,-24,-12,3,5
1523054805421948,-27,3,63,5,-1,-7,-23,-13
1523054805421948,1,-14,-116,-10,-33,-14,-2,-16
1523054805430974,-33,6,69,1,-25,-19,-10,-20
1523054805430974,-6,-19,-23,-13,22,2,-18,-10
1523054805445512,-8,16,99,8,2,2,-1,-17
1523054805445512,8,9,-103,-4,-1,0,-10,-6
1523054805447516,5,-1,105,2,-1,-1,-7,-15
1523054805447516,30,4,-82,2,4,1,-5,16
1523054805468075,-18,-16,-121,-23,-5,-10,8,-16
1523054805468075,-3,13,127,19,-5,-4,-5,-15
1523054805470078,-8,-7,-128,-9,2,-2,-5,-4
1523054805470078,7,0,-53,-3,-5,20,25,36
1523054805482107,16,5,82,11,12,-2,-13,-35
1523054805482107,21,1,-75,-3,10,2,7,49
1523054805490631,-25,-36,-8,10,-8,-15,-2,78
1523054805490631,25,0,7,-1,15,3,-11,17
1523054805505674,-1,-9,-123,-15,-9,-2,-8,-29
1523054805505674,-9,1,103,0,-15,-10,-8,-4
1523054805507176,16,23,-89,-3,6,0,-7,-18
1523054805507176,-8,15,-65,3,5,-3,-1,-22
1523054805528231,-7,-32,63,13,3,-1,-9,23
1523054805528231,0,-36,10,-14,-16,-7,-16,-21
1523054805529736,18,45,86,7,1,5,5,-25
1523054805529736,-15,-6,-9,4,9,5,-10,-19
1523054805541768,-2,-10,-117,-17,-4,-2,2,-7
1523054805541768,-10,0,-16,-2,-17,-12,-4,-12
1523054805550793,40,-18,-128,-9,15,9,4,4
1523054805550793,8,37,127,13,-17,-13,0,12
1523054805565885,11,5,-51,14,12,4,5,-11
1523054805565885,-41,-8,-3,-2,-1,-3,-4,-57
1523054805567335,11,8,24,-4,-4,2,-4,-12
1523054805567335,-2,-12,-1,-10,-8,-9,-13,-9
1523054805588391,1,4,-35,2,4,0,8,24
1523054805588391,13,79,68,23,13,12,6,25
1523054805589949,2,-4,-79,-23,-1,3,-7,-68
1523054805589949,-27,11,75,3,-8,-5,-4,-32
1523054805601928,-4,3,-14,-6,5,6,15,26
1523054805601928,12,-2,3,-3,2,3,3,4
1523054805610952,-24,-29,-12,6,-1,-2,-14,-24
1523054805610952,-4,2,33,2,-3,-2,0,-8
1523054805625491,-10,6,40,-9,-7,-8,-19,-81
1523054805625491,21,-58,-46,7,4,5,10,53
1523054805627550,5,4,-29,-2,2,-1,14,3
1523054805627550,1,-1,30,-5,4,-2,-38,2
1523054805648084,-25,-13,7,6,0,7,16,8
1523054805648084,-5,-8,-8,-18,-7,-8,-30,-33
1523054805650055,-12,36,41,-5,-11,-12,2,26
1523054805650055,19,-15,-102,-7,11,20,31,-22
1523054805661587,-1,20,77,13,-10,-13,-8,13
1523054805661587,-6,4,-12,-3,-2,-2,-3,-7
1523054805671116,-2,-12,-7,-12,-7,17,20,1
1523054805671116,47,6,-71,-11,3,-1,10,7
1523054805685707,-11,1,91,21,-15,-16,-22,12
1523054805685707,-5,5,-102,-16,-3,4,7,-25
1523054805687154,-23,-12,-33,2,1,-3,-13,-31
1523054805687154,-23,0,-10,7,-4,-5,-1,-13
1523054805708209,20,-12,-84,-6,6,8,6,3
1523054805708209,-15,-2,59,-1,-8,-12,-11,-12
1523054805709714,9,0,1,23,19,4,1,-2
1523054805709714,-10,1,-9,-1,-6,1,6,21
1523054805721747,20,-17,-115,-36,2,3,2,33
1523054805721747,-22,28,105,27,-15,-8,-9,-13
1523054805730771,12,-22,-88,-14,0,-5,-9,6
1523054805730771,-22,-25,-23,-3,-4,-16,-21,-19
1523054805745810,12,19,-21,5,9,15,22,26
1523054805745810,7,-7,-128,-20,4,9,-2,-14
1523054805747314,0,15,114,1,-9,-4,-1,1
1523054805747314,-7,0,72,13,-4,-9,-14,5
1523054805768427,3,16,72,1,-4,-9,-17,-1
1523054805768427,-1,-23,-120,-7,13,0,2,75
1523054805769930,36,28,-16,0,-6,4,22,108
1523054805769930,23,-20,-9,-10,-5,-4,0,-23
1523054805781961,-12,6,12,2,2,-2,-8,22
1523054805781961,32,-1,4,6,10,18,16,15
1523054805790930,-63,-29,21,4,0,-3,28,-68
1523054805790930,53,44,15,-3,-10,21,-49,-65
1523054805805468,-20,9,-3,16,14,-2,-24,12
1523054805805468,-33,20,30,-2,-18,-54,17,-31
1523054805807528,-24,-19,-2,2,8,32,30,53
1523054805807528,-3,17,24,10,9,-56,-22,-25
1523054805828029,-19,-11,-5,-20,-22,-20,-57,-3
1523054805828029,42,14,4,-9,-5,30,-58,-87
1523054805830034,33,24,28,8,8,17,29,12
1523054805830034,27,70,5,9,4,32,110,119
1523054805850588,27,21,17,1,0,32,34,-84
1523054805850588,9,-22,-3,10,4,-69,-45,93
1523054805852594,-34,16,-8,15,17,30,-82,-23
1523054805852594,-88,-20,21,-18,9,10,43,60
1523054805865127,-32,-22,-23,20,27,55,-40,-84
1523054805865127,21,-4,18,6,-7,-38,-47,-24
1523054805872146,6,2,-3,-11,-13,-25,-30,-10
1523054805872146,-30,1,-2,9,1,-19,-68,-26
1523054805888190,48,34,10,11,7,-42,109,91
1523054805888190,-10,-24,-10,-13,6,15,-12,-41
1523054805889694,-8,-33,-18,-16,-19,-35,-13,-12
1523054805889694,6,-78,-17,0,-4,33,7,-26
1523054805910750,-2,-23,-26,-10,-12,-11,8,39
1523054805910750,36,31,-29,-6,4,54,65,37
1523054805912254,7,21,22,4,-1,-19,1,4
1523054805912254,-3,-24,11,-1,-7,-8,-22,-2
1523054805925331,-3,-38,26,9,13,-4,3,3
1523054805925331,-19,-1,-45,5,15,12,5,17
1523054805931884,-4,2,-92,-18,-12,-4,-15,-7
1523054805931884,3,8,-6,-15,-33,-28,-7,-18
1523054805948415,-8,-26,-54,-5,7,12,-7,10
1523054805948415,-16,21,49,27,-6,13,22,-11
1523054805949899,-8,-36,68,-35,7,-8,6,-19
1523054805949899,39,4,96,21,-12,15,10,45
1523054805970954,-9,2,-90,-17,-17,-16,-18,-23
1523054805970954,-4,-13,-50,-5,7,38,-3,6
1523054805972459,19,-1,-128,-11,3,-14,13,-49
1523054805972459,-21,7,98,41,2,-5,-38,25
1523054805984993,0,12,-67,2,-6,-36,-30,26
1523054805984993,-11,2,-59,-27,-17,-9,2,-21
1523054805992067,6,-5,70,13,9,16,20,53
1523054805992067,0,13,2,-10,-13,-27,-62,-36
1523054806008053,4,-25,-59,1,14,10,12,-13
1523054806008053,-13,5,5,5,-4,-7,19,5
1523054806010060,3,13,-128,-9,2,1,-7,-7
1523054806010060,-13,27,53,7,-7,-10,-7,-12
1523054806030614,-14,2,23,-7,-17,-9,1,-3
1523054806030614,9,16,-111,-8,-6,-14,9,7
1523054806032121,-7,-25,70,-5,-17,-18,-9,-13
1523054806032121,7,-28,-17,-1,46,41,30,4
1523054806044149,-6,-18,-100,-19,-9,14,5,-6
1523054806044149,-15,-2,116,8,6,4,2,-10
1523054806053174,7,-10,87,10,-26,-9,-10,1
1523054806053174,33,9,-128,-8,-2,-2,22,74
1523054806068213,6,26,-21,-9,1,5,13,14
1523054806068213,-10,-23,-18,-8,1,0,-8,0
1523054806069720,4,13,19,23,7,14,-3,3
1523054806069720,5,-12,-32,-14,-1,-9,-9,0
1523054806090773,0,8,38,-5,-4,15,17,-24
1523054806090773,-21,-5,16,-1,-8,-10,-3,-25
1523054806092278,5,7,-5,5,4,5,20,27
1523054806092278,-20,-12,-60,-20,1,9,11,-15
1523054806104366,-3,12,45,-9,-15,-10,-21,-13
1523054806104366,-3,-3,22,-3,-9,0,6,-14
1523054806113334,-7,4,-7,7,13,6,-5,-26
1523054806113334,-4,-5,-77,-12,2,-2,-9,-6
1523054806128375,-3,7,64,6,-6,-6,-4,-3
1523054806128375,10,12,6,-2,1,4,5,18
1523054806129879,3,-9,-26,-2,-10,-14,-7,1
1523054806129879,-9,2,3,3,5,5,14,-3
1523054806150933,-2,-36,35,-6,-2,1,10,28
1523054806150933,4,0,-15,2,10,16,-9,-32
1523054806152493,8,32,-16,-6,-8,-1,-28,13
1523054806152493,-31,-72,-77,-8,-7,-8,48,-45
1523054806165026,8,-13,1,9,8,-4,-12,5
1523054806165026,3,8,85,-5,-12,-7,-12,7
1523054806172043,-68,-6,-41,0,5,24,13,-5
1523054806172043,15,-4,-5,-7,-6,-5,-12,-16
1523054806188032,2,4,-16,2,2,-4,-32,6
1523054806188032,-9,-19,-70,2,7,4,22,20
1523054806190039,3,7,98,11,-9,-11,-14,-26
1523054806190039,0,5,-7,4,11,14,2,17
1523054806210592,-4,4,-43,-3,1,-3,5,-4
1523054806210592,2,31,16,2,6,4,-9,-19
1523054806212098,-4,1,41,3,-7,-20,-39,-13
1523054806212098,-7,10,-24,-8,-2,-3,30,25
1523054806225131,13,-4,21,-2,-11,-7,-9,-6
1523054806225131,1,-16,-104,-14,2,-4,-1,18
1523054806231648,13,3,49,6,17,2,3,5
1523054806231648,10,19,125,5,-3,-2,-10,6
1523054806248192,3,-8,-21,-3,0,17,-3,-13
1523054806248192,-16,-11,2,-5,-12,-12,4,40
1523054806249697,15,-17,-68,-11,-11,-2,4,13
1523054806249697,-13,3,-61,2,1,-3,-20,-36
1523054806270752,3,6,52,-10,-6,-12,-3,5
1523054806270752,21,-6,9,4,2,14,-6,3
1523054806272256,7,-11,-35,1,8,10,32,23
1523054806272256,13,0,-14,5,3,8,-35,66
1523054806285292,-4,66,-2,5,5,1,10,-19
1523054806285292,-39,-4,39,6,-2,-6,-4,-31
1523054806291808,79,23,-14,-1,1,-6,-24,10
1523054806291808,-30,-11,-21,0,-2,1,14,65
1523054806308352,16,-18,12,-2,-2,3,-28,-34
1523054806308352,-11,48,36,23,31,-7,-7,-109
1523054806309858,-115,-11,-28,-25,-23,12,60,-103
1523054806309858,58,35,4,15,4,-30,-69,-91
1523054806330912,-44,3,13,4,2,-13,-74,-53
1523054806330912,36,-20,10,5,7,13,67,-2
1523054806332417,0,51,-7,18,9,-3,-41,29
1523054806332417,10,-44,0,-31,-16,-27,-60,-48
1523054806344449,-21,-39,-6,-16,-7,13,83,-46
1523054806344449,11,8,17,10,-2,14,-44,-37
1523054806353473,35,-15,-19,-7,-1,4,27,12
1523054806353473,-21,-3,-2,-3,2,22,1,4
1523054806368012,8,12,10,10,3,-21,-41,36
1523054806368012,-49,-39,-24,-17,-13,-11,1,40
1523054806370045,43,9,12,3,8,5,6,15
1523054806370045,-10,13,5,2,-9,4,23,-74
1523054806390571,-1,-5,-4,5,3,-2,-12,29
1523054806390571,6,20,-69,1,6,11,-7,32
1523054806392582,20,-48,64,-3,-9,-8,-23,26
1523054806392582,-10,28,61,-4,-7,1,-2,51
1523054806404609,6,-28,-36,-12,-17,-33,22,13
1523054806404609,25,20,48,11,10,1,-8,9
1523054806413635,-11,-27,-47,0,15,11,-27,-5
1523054806413635,-11,-6,-40,-5,4,11,21,-11
1523054806428173,-1,-7,21,9,11,32,6,6
1523054806428173,-2,-6,-12,-17,-18,-1,1,27
1523054806429675,-20,-25,24,10,-7,-9,-1,-12
1523054806429675,-8,8,57,-5,-4,-9,25,-3
1523054806450745,4,10,-89,-17,-8,3,-1,15
1523054806450745,0,-17,104,-5,-17,-11,-12,-4
1523054806452236,3,12,-52,-3,6,-9,28,-12
1523054806452236,25,9,-32,5,0,0,7,3
1523054806464267,2,16,0,9,7,3,-9,4
1523054806464267,0,-19,-45,-6,1,-1,7,3
1523054806473292,14,14,-43,-13,-10,9,-8,25
1523054806473292,-11,-2,9,0,10,0,20,17
1523054806488332,3,0,30,5,-2,6,14,-5
1523054806488332,5,9,-2,-4,1,-5,9,11
1523054806489835,-8,25,-10,11,10,-6,-2,1
1523054806489835,-1,10,-75,-3,1,22,20,8
1523054806510892,0,17,65,6,-5,-7,-3,5
1523054806510892,3,-19,37,0,-8,-19,-7,-7
1523054806512396,5,7,-27,-12,-7,-7,-2,-5
1523054806512396,-6,-19,-107,2,6,-8,2,7
1523054806524428,-6,-5,39,-7,3,2,0,-6
1523054806524428,5,46,50,-1,1,9,0,8
1523054806533453,-7,-5,-15,0,3,3,2,-12
1523054806533453,1,3,20,-3,-8,-19,-33,-2
1523054806548025,8,-16,-3,4,-10,-2,33,16
1523054806548025,2,-11,-88,-6,-4,-11,-7,2
1523054806549999,-8,-3,-16,2,6,6,5,-8
1523054806549999,5,6,21,11,-1,2,-9,-26
1523054806570551,21,-24,1,-10,-8,-6,-78,58
1523054806570551,-11,-8,-11,10,8,-3,52,66
1523054806572557,-21,11,-15,-12,-6,-1,-5,67
1523054806572557,-9,-16,-54,-5,2,2,1,-24
1523054806584134,4,5,94,8,-2,-3,-6,-6
1523054806584134,-2,-20,-52,0,-3,-2,-9,-7
1523054806593157,2,3,8,5,-2,-5,-10,-7
1523054806593157,-2,13,-7,-7,-3,-8,7,29
1523054806608232,-13,-4,-55,0,7,4,18,-21
1523054806608232,2,-2,7,-2,-7,-10,-29,-26
1523054806609702,-5,3,-4,21,9,3,11,-28
1523054806609702,-10,5,58,-8,-8,-19,-63,-21
1523054806630758,2,-3,-86,0,7,-6,17,68
1523054806630758,12,-5,-16,5,0,-24,-3,-36
1523054806632261,3,16,-30,-20,-19,0,-2,-2
1523054806632261,9,-27,-52,7,17,5,14,13
1523054806644352,-14,8,101,7,-4,-7,-27,-10
1523054806644352,-6,14,-81,-8,10,7,-19,-34
1523054806653319,12,-14,8,-12,-15,-12,13,75
1523054806653319,0,6,-14,-4,-5,2,17,-10
1523054806668356,-6,-8,-128,-18,2,0,22,-53
1523054806668356,-12,-1,113,21,2,11,0,-10
1523054806669896,8,-41,-13,2,1,2,-1,-40
1523054806669896,-14,22,23,7,-3,10,11,-3
1523054806690918,-12,-15,-56,-14,-5,24,67,3
1523054806690918,-1,-14,-7,-9,-9,1,23,21
1523054806692421,-5,19,-45,-2,0,-6,-15,-4
1523054806692421,2,-14,103,-8,-16,-12,8,0
1523054806713477,-8,9,29,15,6,-3,-16,-23
1523054806713477,-2,-6,-35,-7,3,6,-2,17
1523054806715038,0,7,38,7,2,6,42,-34
1523054806715038,-33,-4,-39,-7,-5,3,0,65
1523054806728016,2,-9,-27,-7,-3,-19,-16,1
1523054806728016,10,8,37,-2,-6,-7,-13,-38
1523054806730021,12,-4,-103,-8,4,-6,-19,11
1523054806730021,6,-6,76,13,-3,-7,-17,-22
1523054806750577,-26,20,5,9,1,20,-21,1
1523054806750577,35,-10,-35,-8,-3,-23,31,-81
1523054806752080,-3,37,20,6,7,16,-31,65
1523054806752080,9,-1,-21,3,6,20,102,36
1523054806773138,-35,15,18,-1,-3,-86,-72,8
1523054806773138,1,-29,-40,-17,-5,1,-69,-5
1523054806774640,-25,-26,35,-4,-1,20,-55,-115
1523054806774640,-31,-52,-8,5,1,25,92,-29
1523054806788177,1,-18,-6,-8,-11,-20,-64,-59
1523054806788177,-64,75,35,15,6,-22,35,59
1523054806789681,22,-8,16,-1,2,-29,48,53
1523054806789681,-19,0,-16,-4,-6,14,-88,-58
1523054806810736,-29,-26,-28,-17,-11,4,-49,36
1523054806810736,26,-2,-9,4,-2,-22,-19,61
1523054806812240,16,14,35,3,-3,22,53,89
1523054806812240,7,-3,-31,-9,-2,-13,76,30
1523054806833296,15,-2,22,8,6,28,43,-8
1523054806833296,32,-61,-52,-8,0,22,4,62
1523054806834801,-12,16,35,4,1,-4,11,13
1523054806834801,37,3,-36,0,7,0,-17,54
1523054806847835,10,-44,-22,6,-4,1,8,-19
1523054806847835,-6,-20,-48,7,14,23,-1,6
1523054806854409,-12,-10,-29,-12,-9,-6,-1,-64
1523054806854409,-15,11,34,9,-2,-10,-54,-39
1523054806870898,23,17,16,5,2,19,6,4
1523054806870898,-10,9,21,5,-13,4,9,-14
1523054806872433,-13,-30,-128,1,28,6,-5,-6
1523054806872433,11,17,-29,-12,1,-12,-36,-8
1523054806892954,-6,3,-60,-14,-9,2,21,4
1523054806892954,11,7,70,1,-10,5,8,12
1523054806894962,-2,-35,9,-9,-25,-25,-28,-19
1523054806894962,13,12,40,14,16,-5,-8,7
1523054806907493,-9,-57,-45,9,12,-3,11,-46
1523054806907493,-5,0,-125,8,14,11,-1,-14
1523054806914570,0,12,119,-22,-8,1,-17,-8
1523054806914570,10,24,20,10,-13,-14,-8,-11
1523054806930556,-7,17,108,-8,-18,-28,-56,-40
1523054806930556,-6,4,-52,5,9,23,80,42
1523054806932562,11,6,-57,34,17,-4,-7,14
1523054806932562,-6,17,61,-23,-18,-24,-82,-14
1523054806953116,18,38,1,1,2,11,56,39
1523054806953116,24,5,-63,-7,5,-11,-43,-23
1523054806954618,-11,2,-87,-13,-6,0,3,-18
1523054806954618,-1,-8,27,-10,-6,-8,-3,4
1523054806967653,11,10,0,14,8,21,16,30
1523054806967653,-28,-11,-89,-23,8,8,-5,-25
1523054806974224,-3,-6,48,20,-3,-2,6,6
1523054806974224,-8,13,3,13,-16,-12,-27,-23
1523054806990772,19,-18,-95,-12,5,10,34,32
1523054806990772,9,-5,-66,-11,-5,3,0,-1
1523054806992219,7,-7,45,-2,-3,-13,-17,-22
1523054806992219,-1,-20,-128,-9,11,17,28,26
1523054807013276,-19,40,107,28,-16,-29,-37,2
1523054807013276,-23,-13,-75,-22,-13,19,61,23
1523054807014837,9,5,-57,-2,-4,2,-10,36
1523054807014837,11,-20,-112,-7,4,6,8,7
1523054807026810,6,-1,-46,-26,3,1,4,4
1523054807026810,1,10,120,19,-5,-2,-50,-19
1523054807035836,-11,-8,-55,-20,-5,2,21,19
1523054807035836,-22,-7,86,33,9,9,19,-46
1523054807050877,4,7,-70,-7,8,10,-7,-14
1523054807050877,-13,-19,33,-1,-3,-7,-19,-1
1523054807052379,4,-8,-39,-6,2,0,10,6
1523054807052379,16,33,-27,7,14,6,8,23
1523054807073436,1,-5,-20,22,1,-1,-22,-10
1523054807073436,-20,1,124,-12,-8,15,50,-15
1523054807074939,14,3,-35,-2,-4,-9,19,-10
1523054807074939,5,-18,-124,-17,-3,2,-5,-5
1523054807087473,-2,23,100,51,15,7,-21,-2
1523054807087473,4,18,37,-14,-6,-11,23,-17
1523054807094494,-5,-1,-13,5,0,1,-14,42
1523054807094494,-29,-17,13,-17,-17,-2,2,6
1523054807110533,10,-8,-128,-11,1,0,33,27
1523054807110533,4,1,-46,19,5,-9,-29,-8
1523054807112540,-15,13,127,-1,-10,2,-8,6
1523054807112540,37,8,-35,1,3,-13,-14,-42
1523054807133151,1,-21,-100,-15,11,14,24,9
1523054807133151,7,3,-22,-20,-13,-13,-28,15
1523054807135100,-8,-13,-20,2,9,6,-1,-22
1523054807135100,-3,12,89,16,2,-2,-10,20
1523054807147632,-9,-3,-46,-9,0,20,75,29
1523054807147632,4,-10,-31,-5,-3,-7,-18,-5
1523054807154203,0,23,-63,-9,-10,-3,-9,-12
1523054807154203,-14,-20,100,13,1,-4,-9,-9
1523054807170695,6,0,42,-6,-5,4,6,-12
1523054807170695,12,-12,-64,0,5,2,-5,19
1523054807172199,-3,3,-93,7,1,-2,-3,-38
1523054807172199,5,-3,49,0,-2,1,-5,5
1523054807192806,3,2,44,1,-13,2,-8,-11
1523054807192806,4,57,82,16,3,1,-13,38
1523054807199327,-9,-2,-20,4,10,-3,-19,-79
1523054807199327,19,19,-25,-11,4,6,15,47
1523054807206791,-3,-17,66,0,-15,-12,-15,-2
1523054807206791,-1,-1,36,12,0,-4,-16,-10
1523054807215815,-4,-6,75,0,1,-2,-17,5
1523054807215815,4,-14,-59,-18,-9,9,62,71
1523054807230853,0,21,53,2,4,0,20,-11
1523054807230853,-3,-10,-83,-5,1,-4,-26,12
1523054807232359,0,2,71,0,-10,-27,-39,-40
1523054807232359,3,-48,-57,-2,-2,-17,-14,-18
1523054807253415,-2,10,-60,-11,4,-4,15,-13
1523054807253415,20,-23,14,3,-4,-6,54,33
1523054807254919,32,-19,-44,-25,0,5,-10,98
1523054807254919,-46,-9,-45,-22,-17,-10,-42,-78
1523054807266949,-58,-13,8,-1,1,3,33,-38
1523054807266949,-15,-5,-6,4,4,-11,-18,74
1523054807276012,6,-18,-18,-5,-10,5,30,-29
1523054807276012,-6,13,-6,7,0,17,11,-22
1523054807290569,23,-13,-12,-2,0,4,-22,8
1523054807290569,15,1,4,0,1,-5,-1,38
1523054807292519,-31,-3,-1,1,0,15,32,83
1523054807292519,-25,55,20,2,-7,-27,-73,-26
1523054807313106,-5,-14,-23,0,3,26,-30,12
1523054807313106,-26,-22,-9,-9,-3,-2,44,53
1523054807315080,62,46,21,6,-3,15,-27,-95
1523054807315080,28,-33,-37,3,10,-34,22,23
1523054807327114,12,-1,-14,-9,-2,-13,-34,15
1523054807327114,-14,13,19,-3,-2,5,14,-15
1523054807335634,-33,7,13,7,0,-27,-18,71
1523054807335634,27,-18,-26,1,4,30,14,-14
1523054807350697,63,1,-30,-13,-2,-6,-15,4
1523054807350697,-36,-9,43,8,-6,-11,-32,-87
1523054807352177,1,-4,-107,1,6,11,29,-21
1523054807352177,-7,20,25,25,11,10,16,109
1523054807373232,-5,0,-72,-11,1,-11,2,16
1523054807373232,-4,4,56,-1,-3,12,-10,-57
1523054807374738,-4,29,120,18,-10,-5,-41,-52
1523054807374738,15,0,-15,10,16,13,8,-36
1523054807386768,1,-14,-92,-11,5,15,34,84
1523054807386768,20,-6,-38,-6,-6,-7,-28,-36
1523054807395794,-29,-19,-22,-16,-20,-15,5,-16
1523054807395794,1,1,5,0,0,1,4,-7
1523054807410834,6,28,40,2,1,-7,-3,-12
1523054807410834,-1,-4,-49,0,12,5,-18,-27
1523054807412338,1,3,27,17,-1,-6,5,38
1523054807412338,-10,-22,54,-17,-19,-13,2,-31
1523054807433402,-13,-8,2,-4,-4,4,-12,-18
1523054807433402,-14,13,-55,-7,-6,2,-2,-38
1523054807434936,7,17,89,17,15,9,15,-12
1523054807434936,-4,-30,-115,-8,-3,-5,-18,-22
1523054807446928,1,18,107,-3,-18,-12,-5,4
1523054807446928,15,-6,-90,7,8,3,0,-3
1523054807455952,-1,-18,-23,-26,-5,-6,5,12
1523054807455952,-5,12,-79,-16,14,7,5,21
1523054807470493,-11,-19,-61,7,-1,-5,-2,7
1523054807470493,-1,7,103,22,0,-1,-4,-19
1523054807472498,16,-13,-128,-24,-1,2,10,3
1523054807472498,-12,-6,127,15,-24,-7,-4,17
1523054807493554,-4,8,-98,11,0,-4,2,-18
1523054807493554,16,4,3,-6,-1,1,-2,18
1523054807495069,-3,7,-45,-4,7,1,0,14
1523054807495069,-17,26,49,5,-7,-1,-2,2
1523054807507088,5,6,8,0,10,0,-1,-18
1523054807507088,4,-18,-56,7,-5,-1,-7,8
1523054807516112,1,26,69,-8,0,3,-11,17
1523054807516112,-6,12,-54,9,4,2,10,4
1523054807530707,-28,-7,-10,-5,-2,-4,-2,-33
1523054807530707,3,-4,-65,-13,2,-1,-8,-9
1523054807532157,1,-5,23,10,-4,-5,-8,-20
1523054807532157,-3,-10,-86,1,11,-3,-18,52
1523054807552266,28,15,0,-1,-2,4,-6,-54
1523054807552266,-1,5,-31,-7,-12,-3,10,37
1523054807560732,-7,-31,-128,2,18,17,7,21
1523054807560732,-14,8,88,-10,-31,-18,-19,-22
1523054807566748,-3,15,-89,-1,-4,-8,-3,-1
1523054807566748,-15,-6,-85,-4,4,3,-1,-13
1523054807575773,-9,-9,-35,-5,-8,-2,0,-19
1523054807575773,18,-8,-128,-4,11,12,17,1
1523054807590869,-12,13,93,2,-8,-4,-8,-1
1523054807590869,-5,3,36,17,7,8,7,-26
1523054807592316,-11,-19,-3,0,1,-6,-47,13
1523054807592316,2,-15,-107,-17,2,-11,23,-15
1523054807613373,-8,-16,57,2,-5,-8,-5,-30
1523054807613373,-8,10,62,-5,-6,-3,-2,15
1523054807614876,-9,-7,48,9,-4,-11,-8,-24
1523054807614876,5,8,9,3,8,10,-12,40
1523054807626909,9,-4,-10,2,1,0,-22,-27
1523054807626909,8,-9,-94,-23,1,-8,-4,5
1523054807635932,2,2,96,10,-13,-10,13,27
1523054807635932,-12,3,-24,7,6,15,3,-27
1523054807650971,3,-15,-39,2,10,3,16,29
1523054807650971,-8,37,110,-27,-11,-6,-11,-2
1523054807652477,1,12,56,23,-2,-3,4,-17
1523054807652477,7,6,-50,-4,0,8,6,-7
1523054807673030,15,-26,-45,-6,-5,-14,-23,-8
1523054807673030,6,1,-78,-9,-7,3,20,10
1523054807675052,4,1,19,9,6,7,-9,-7
1523054807675052,17,5,57,-3,-2,7,0,11
1523054807695591,-18,0,-23,-6,0,-3,-40,25
1523054807695591,-8,-17,20,7,3,16,56,-1
1523054807697597,-25,-8,-43,-13,-6,-4,2,-5
1523054807697597,12,-8,-12,0,-1,1,-14,-21
1523054807718204,-1,-4,-35,-10,-2,-1,6,11
1523054807718204,20,-13,-2,1,4,-5,-18,-3
1523054807719655,-16,0,58,8,-7,0,2,0
1523054807719655,9,-5,-2,-5,-2,-7,5,15
1523054807733191,-40,10,23,3,4,8,20,12
1523054807733191,-46,-7,-27,2,-5,-20,-51,-59
1523054807734696,17,-1,-99,-11,1,-5,-5,-31
1523054807734696,-12,1,-4,-6,-2,13,7,59
1523054807755751,-7,10,38,-7,-12,-14,44,81
1523054807755751,-14,-8,-8,0,-5,-22,-74,65
1523054807757254,2,-6,-52,-11,-5,43,113,40
1523054807757254,41,-56,-17,-7,-10,-24,16,33
1523054807771292,22,16,-10,-12,-6,41,4,-91
1523054807771292,22,-53,-1,-1,-4,-39,-46,40
1523054807776808,1,11,-3,-10,-9,-47,-54,-13
1523054807776808,7,5,6,4,5,14,-24,21
1523054807793351,28,-20,-19,-3,-6,-14,1,3
1523054807793351,26,37,37,6,3,15,43,-17
1523054807794855,-1,-8,-20,-2,5,11,-11,-13
1523054807794855,-48,2,-2,7,6,21,-18,8
1523054807815912,10,-8,20,-2,3,-20,41,20
1523054807815912,-19,32,18,8,3,27,-6,-33
1523054807817414,-23,0,-19,-4,-6,-34,-83,-42
1523054807817414,-5,1,6,-4,-4,2,21,-52
1523054807837969,-19,-23,-5,-1,-1,21,54,60
1523054807837969,29,-3,0,4,1,1,-2,19
1523054807839974,-20,-18,-19,-5,0,2,-10,13
1523054807839974,17,-11,5,-7,-7,-17,-27,52
1523054807853010,7,8,12,11,10,-4,-12,-18
1523054807853010,6,-7,-9,8,14,42,74,75
1523054807855016,22,-3,-1,-1,4,1,-11,-22
1523054807855016,-7,16,-34,-10,-9,-9,-10,-41
1523054807875569,4,22,86,5,-10,-15,-26,4
1523054807875569,-14,-23,11,10,13,13,-5,-61
1523054807877575,-3,-3,18,-1,9,24,34,19
1523054807877575,8,0,2,7,7,5,57,4
1523054807890165,-11,-11,-61,-10,-6,-9,-60,-16
1523054807890165,13,-3,6,-1,-11,-19,-8,-8
1523054807896625,-1,4,1,-1,-2,-2,20,12
1523054807896625,-12,-1,-10,-5,-2,-14,-9,-44
1523054807913203,-2,-6,3,-1,1,6,24,-1
1523054807913203,-11,14,-3,-2,-3,8,-9,-13
1523054807914674,7,3,-5,8,5,-1,-6,0
1523054807914674,-3,24,2,-3,3,6,16,-3
1523054807935729,15,14,26,6,6,7,-13,-2
1523054807935729,5,-13,-4,-3,-6,-18,-8,0
1523054807937233,2,6,-13,-3,-7,-1,14,13
1523054807937233,-5,-4,-2,0,0,-3,-9,-11
1523054807950269,-10,-4,-79,-14,-2,-3,-13,-4
1523054807950269,-4,10,87,15,-1,-5,-4,-12
1523054807956839,9,-13,-40,-15,-10,3,11,12
1523054807956839,-6,12,-2,11,13,2,-8,-13
1523054807973329,-3,-3,-21,1,3,-5,-6,5
1523054807973329,12,23,-41,-4,4,4,13,72
1523054807974833,3,-31,18,8,5,4,1,-8
1523054807974833,4,6,-85,-13,-3,-3,-8,0
1523054807995902,-11,-19,95,17,-13,-15,4,-10
1523054807995902,5,8,-20,5,7,7,-1,-8
1523054807997394,-7,-13,-15,-4,-2,-1,3,43
1523054807997394,-5,-5,-30,0,-2,-8,-14,2
1523054808018449,3,-7,-12,0,6,8,5,2
1523054808018449,-19,-21,33,-18,-25,-16,-4,-27
1523054808019953,8,15,23,4,2,0,-4,-4
1523054808019953,-4,-4,13,2,7,5,5,-15
1523054808032990,0,8,-8,2,-3,-3,-5,3
1523054808032990,6,8,16,-2,-4,-7,-6,-11
1523054808035035,-2,24,-28,7,1,4,6,-13
1523054808035035,-5,-11,65,-19,7,-1,4,4
1523054808055549,0,8,-22,1,16,17,-5,-11
1523054808055549,-3,6,-38,4,1,-4,-1,-10
1523054808057052,14,18,1,7,-18,-1,6,14
1523054808057052,-16,-10,60,28,14,-10,-10,-20
1523054808069585,6,15,-66,-8,5,0,0,5
1523054808069585,26,1,-28,1,1,3,6,0
1523054808078609,-42,19,38,-6,-3,0,1,1
1523054808078609,3,-14,-102,-5,-12,2,-4,-5
1523054808093192,-23,28,80,-11,-25,-15,-14,-23
1523054808093192,-4,-34,-93,-4,-2,-6,3,-12
1523054808094652,29,67,-40,2,8,5,1,4
1523054808094652,22,-31,-14,0,2,5,15,60
1523054808115709,9,-2,26,5,3,-5,-14,-30
1523054808115709,-20,-60,-92,4,-6,-10,0,-12
1523054808117213,1,-14,-57,-43,-9,-8,-12,-11
1523054808117213,19,9,33,8,-5,-4,4,40
1523054808130246,42,3,-34,-7,-6,-2,2,27
1523054808130246,-24,-4,32,-5,-7,5,13,-6
1523054808136765,1,-16,2,4,9,0,-9,-7
1523054808136765,-4,5,-85,-25,-15,-4,-5,-19
1523054808153309,-12,-27,79,16,5,6,7,-4
1523054808153309,2,65,30,5,1,-1,-9,0
1523054808154813,-11,-28,-27,-5,-2,-5,6,15
1523054808154813,-5,10,-23,-6,-11,0,-2,-48
1523054808175868,-16,-20,-102,-8,-10,-12,-11,-2
1523054808175868,-9,-11,44,-15,-11,-6,-3,0
1523054808177410,11,1,30,11,15,5,5,-6
1523054808177410,-8,-7,-22,6,3,-2,-1,-11
1523054808189404,13,-1,-12,4,16,13,10,18
1523054808189404,-20,1,-12,-7,-8,-6,-12,-14
1523054808198429,7,-26,0,0,-9,-4,5,9
1523054808198429,-29,-12,27,-7,-10,-3,-4,27
1523054808212968,-7,34,-9,1,6,6,-15,-80
1523054808212968,30,12,7,2,8,1,3,19
1523054808215026,4,3,30,9,-3,-14,9,-58
1523054808215026,-77,35,56,21,15,13,16,54
1523054808235527,-1,-40,-77,-26,-20,-12,-15,-13
1523054808235527,6,-38,7,6,8,0,-8,19
1523054808237575,-20,-20,-24,3,5,3,-1,26
1523054808237575,10,9,30,-2,-8,-14,-26,-76
1523054808249564,-10,-2,25,9,6,-2,-75,21
1523054808249564,4,12,-15,-2,2,-26,7,51
1523054808258588,1,11,3,-2,1,37,76,3
1523054808258588,21,-7,9,-8,-11,-3,21,25
1523054808273127,-46,5,2,0,1,5,19,13
1523054808273127,-16,10,-13,-6,-1,11,-72,-29
1523054808274631,-29,-27,-7,-3,-5,-28,-34,-13
1523054808274631,37,26,-1,6,12,41,57,66
1523054808295729,92,-32,16,9,0,-14,39,-30
1523054808295729,-29,34,20,10,8,-1,-1,22
1523054808297193,-31,-62,-23,-10,-3,15,-8,-10
1523054808297193,-40,-13,-18,-6,-5,-8,0,-32
1523054808309223,-4,23,7,-5,-2,5,41,80
1523054808309223,-9,44,12,17,9,21,31,-67
1523054808318248,43,-34,-29,-13,-1,-23,-52,-17
1523054808318248,39,6,14,3,-7,-8,-24,-38
1523054808333288,-43,6,52,-4,-5,5,-1,21
1523054808333288,-17,-18,-1,-9,-9,-6,9,-17
1523054808334792,-1,35,-12,10,5,5,-19,-11
1523054808334792,37,0,-2,-6,-3,-3,15,24
1523054808355848,24,32,-38,-4,0,8,36,1
1523054808355848,21,-3,-10,-14,-11,-3,-23,-23
1523054808357353,-38,9,18,-1,-4,-7,-13,31
1523054808357353,7,-11,-56,-5,-4,-10,-29,-10
1523054808369383,-3,-7,24,13,8,0,-4,-9
1523054808369383,27,-43,-22,-9,-2,4,12,1
1523054808378407,-16,18,13,12,14,8,11,5
1523054808378407,5,-15,-52,-10,-9,-16,-8,-11
1523054808393449,-12,-4,26,-7,-6,-6,-17,-1
1523054808393449,4,-21,60,7,-1,3,-4,4
1523054808394951,20,22,-19,3,7,8,10,0
1523054808394951,-8,4,15,-6,-10,-9,-15,-18
1523054808415507,-9,-6,-45,4,12,13,-10,-12
1523054808415507,-4,5,19,-22,-13,-8,6,5
1523054808417512,12,-11,-80,-5,-4,2,2,3
1523054808417512,-13,8,126,26,12,1,-9,-16
1523054808429542,-8,4,-67,-3,-16,-1,-2,4
1523054808429542,7,9,18,-14,17,1,18,12
1523054808438567,3,14,94,-12,-17,3,-11,-2
1523054808438567,-6,-2,-34,-9,-10,-3,-8,7
1523054808453161,11,-17,-95,43,27,8,10,9
1523054808453161,-4,16,103,-28,-35,-10,-10,-17
1523054808454611,23,-7,-91,8,5,-7,-10,75
1523054808454611,-17,15,-55,1,9,14,43,8
1523054808475730,5,1,-28,-7,-10,-13,-30,-76
1523054808475730,-13,-21,-128,-3,2,-1,-7,13
1523054808477170,5,15,127,-2,-4,-7,-18,-10
1523054808477170,4,-17,-2,3,0,-9,28,65
1523054808489201,-7,1,13,-13,2,-2,3,21
1523054808489201,21,47,-99,20,20,18,23,1
1523054808498227,-28,-30,62,-25,-25,-27,-40,-44
1523054808498227,-2,-8,28,-3,1,-1,-27,-33
1523054808512800,13,-12,-26,-9,0,-1,5,-7
1523054808512800,7,-21,-88,-9,6,-4,1,21
1523054808519339,-11,10,44,6,-7,-2,18,-2
1523054808519339,-4,-26,-45,-5,-8,-5,-19,-13
1523054808535866,10,4,12,-6,-3,-2,2,-7
1523054808535866,-11,-16,-80,7,3,2,-1,-24
1523054808537368,17,22,-10,13,3,2,16,-14
1523054808537368,0,-13,-54,-21,-6,2,-18,-19
1523054808549398,-16,-1,21,-7,1,-3,-12,1
1523054808549398,4,-2,77,10,-2,-17,-43,-6
1523054808558387,7,-5,-64,4,7,34,95,-1
1523054808558387,5,-9,18,-2,-3,-8,-26,9
1523054808572424,-3,21,-73,-17,-7,-6,-9,-19
1523054808572424,-5,3,-32,1,-3,5,12,18
1523054808579498,-1,17,98,8,-1,-8,-42,-18
1523054808579498,-4,-14,-77,-1,6,-2,1,11
1523054808595486,-8,31,-29,-7,-3,2,37,53
1523054808595486,41,5,10,5,0,-4,-4,1
1523054808597490,2,4,-128,-1,-3,-13,2,-19
1523054808597490,-19,3,89,1,-10,3,-11,-27
1523054808618046,-3,-4,24,26,18,-1,-12,2
1523054808618046,-6,2,-62,-2,2,5,16,-7
1523054808620050,2,-3,-76,-4,3,2,6,19
1523054808620050,9,2,-45,-6,-5,-5,-5,-37
1523054808633142,-2,-12,15,-20,-13,-7,-5,12
1523054808633142,5,-8,29,11,3,8,-6,-18
1523054808634590,16,-1,-35,-4,9,6,31,36
1523054808634590,-17,1,38,4,0,2,-12,-19
1523054808655646,-4,-13,10,-11,-14,1,13,0
1523054808655646,-4,-6,27,8,6,-5,-5,3
1523054808657150,-3,-16,-4,-6,2,3,-18,14
1523054808657150,-9,2,38,14,13,3,-5,16
1523054808678259,-10,-5,7,1,-5,0,6,-16
1523054808678259,-13,-4,-14,-9,-10,3,-1,3
1523054808679711,11,-12,-111,-16,12,-3,-11,6
1523054808679711,3,88,96,25,-14,-4,3,-7
1523054808693246,-2,-21,-99,-8,-3,1,-7,3
1523054808693246,1,2,-39,2,11,-8,18,16
1523054808694750,-4,15,-40,-7,-13,-1,3,-25
1523054808694750,-5,3,-84,2,27,12,-29,7
1523054808715806,14,-7,93,3,-12,-12,-8,3
1523054808715806,4,1,-92,-25,-8,-2,3,3
1523054808717343,-23,-10,83,26,-17,-14,-7,-12
1523054808717343,19,5,-115,-10,1,5,22,21
1523054808738365,-10,-48,-21,9,4,-18,-45,-34
1523054808738365,-9,-3,-27,-1,16,13,-9,-38
1523054808739927,-34,-31,2,-10,-7,15,45,-37
1523054808739927,23,-24,14,-9,-12,-4,-11,43
1523054808753406,4,35,10,0,1,-9,-6,22
1523054808753406,-18,7,47,8,-3,-2,11,23
1523054808754911,11,6,10,1,4,5,10,-8
1523054808754911,-24,-11,25,-3,-8,-29,-79,-64
1523054808775965,28,-10,-28,-6,-1,24,72,75
1523054808775965,-18,-12,28,4,-10,-1,-7,-31
1523054808777469,26,16,13,-2,-2,9,-17,46
1523054808777469,8,-32,-50,-27,-8,-6,127,90
1523054808798023,-44,-10,14,8,6,0,-35,-25
1523054808798023,10,-6,18,3,-7,-6,55,-30
1523054808800029,17,-2,-15,2,10,-8,-75,-64
1523054808800029,-26,28,14,10,3,7,-51,-56
1523054808812562,5,15,0,5,-7,-23,-29,-14
1523054808812562,4,6,21,-4,-7,-9,-1,12
1523054808819580,-22,-33,-19,-3,8,3,27,67
1523054808819580,-3,11,9,-5,0,3,5,14
1523054808835625,-2,-11,11,4,2,-4,-12,-22
1523054808835625,-14,-3,5,8,5,0,-23,22
1523054808837127,17,2,-11,-8,-5,-23,-14,-15
1523054808837127,21,-15,-9,-5,-3,-1,-8,-24
1523054808858185,-7,2,3,0,2,11,19,-48
1523054808858185,-12,41,21,4,2,7,2,45
1523054808859688,-10,-14,-7,1,3,-3,-40,17
1523054808859688,5,-15,-5,0,-5,-34,-45,1
1523054808871720,-6,6,-3,-4,1,4,-12,-41
1523054808871720,-16,-17,-7,-8,-7,29,75,-22
1523054808881747,-1,20,2,1,1,-1,13,-5
1523054808881747,14,4,0,4,8,19,30,20
1523054808895282,11,5,0,-2,-5,-5,7,55
1523054808895282,-6,-12,5,4,1,-3,-29,-2
1523054808895784,1,4,-4,-4,-4,1,1,4
1523054808895784,10,14,-3,-8,-5,4,32,-2
1523054808917341,5,-15,-54,-6,4,4,-11,-7
1523054808917341,7,6,-32,4,8,3,-15,9
1523054808918344,-8,5,77,4,-7,-2,2,-14
1523054808918344,-5,-6,-13,-6,-4,-10,-17,-18
1523054808940904,-10,2,-47,3,-5,-8,11,22
1523054808940904,9,14,-119,-5,-2,0,-18,5
1523054808941406,-14,-3,81,-10,-20,-14,-8,5
1523054808941406,-20,-26,-13,-5,-3,4,6,-9
1523054808955443,10,7,-59,-5,0,4,1,31
1523054808955443,19,-8,-82,16,21,10,1,-4
1523054808962461,-27,21,36,-16,-3,-7,0,26
1523054808962461,-11,-7,31,22,-10,-5,-11,-75
1523054808977502,6,32,4,-5,-2,4,-40,-1
1523054808977502,-24,-7,43,-5,-17,-13,59,66
1523054808978505,0,5,-63,-3,7,8,5,-41
1523054808978505,2,0,-87,5,17,13,9,10
1523054809000562,-19,14,80,2,-7,-7,-5,-10
1523054809000562,-4,-3,-14,-3,-9,-20,-36,-12
1523054809001565,18,-11,-123,5,11,8,6,7
1523054809001565,5,10,-96,-4,2,11,15,19
1523054809015102,-12,-9,46,13,-5,2,5,-12
1523054809015102,1,-9,87,-1,-3,-11,-20,-7
1523054809015604,5,-7,-102,-4,5,6,6,5
1523054809015604,7,-21,23,-12,6,2,-5,2
1523054809037663,-12,21,38,0,-17,-10,7,13
1523054809037663,15,5,-51,-4,-5,1,-10,0
1523054809038164,-15,35,-59,-7,8,-4,-8,-21
1523054809038164,0,-48,-3,5,-2,4,13,29
1523054809060722,35,37,-51,-2,8,7,16,37
1523054809060722,0,-40,-37,-6,-8,-5,-47,-35
1523054809061725,13,-10,28,12,4,-7,24,-32
1523054809061725,-25,26,22,-1,2,11,11,10
1523054809075262,-12,-16,-48,-10,8,11,15,27
1523054809075262,1,8,32,4,-4,-11,-38,-21
1523054809075763,4,-5,-28,6,-1,7,-5,-10
1523054809075763,-11,-2,2,-6,-8,-7,0,-9
1523054809097320,3,-22,-34,-6,1,-11,-21,-31
1523054809097320,5,1,-103,-21,9,13,17,4
1523054809098381,-29,-9,113,10,-22,-11,-25,-13
1523054809098381,14,-2,-27,6,-1,-7,-5,-16
1523054809111858,1,-31,-99,-7,8,5,8,11
1523054809111858,20,7,-17,-6,0,-4,-4,80
1523054809119934,27,1,-23,-7,0,5,23,13
1523054809119934,-1,8,64,15,-9,-25,-21,17
1523054809134921,-14,-8,-16,-2,5,14,0,11
1523054809134921,11,13,33,10,4,17,26,-37
1523054809135959,5,7,-25,2,6,-5,-10,32
1523054809135959,-10,9,-87,-27,-8,-5,-6,-5
1523054809157481,0,1,107,7,-7,-2,-4,-1
1523054809157481,-20,15,104,-1,-9,-14,16,-21
1523054809158483,-32,-17,-71,-14,-6,-3,-14,-14
1523054809158483,2,-17,-84,-5,7,12,12,-22
1523054809172020,10,5,-74,-10,10,-4,3,5
1523054809172020,-30,-14,29,3,-35,-22,-31,-43
1523054809180041,8,12,-108,8,16,8,11,1
1523054809180041,5,-1,-24,1,5,2,3,11
1523054809195080,5,-4,-53,-4,2,-7,10,-8
1523054809195080,-7,-3,-86,-7,9,0,23,5
1523054809195582,8,3,89,-1,-12,-4,-10,11
1523054809195582,4,3,79,15,0,-4,-14,9
1523054809217641,0,2,35,0,-4,1,15,22
1523054809217641,-6,-18,9,2,6,13,17,3
1523054809218142,-1,-1,-21,6,-4,-8,-9,-31
1523054809218142,6,-7,9,-8,3,3,6,70
1523054809231679,8,20,-54,-5,-4,-5,-14,-7
1523054809231679,12,-69,39,-3,-1,-4,-12,9
1523054809240201,-48,36,74,16,-1,5,-5,-39
1523054809240201,6,25,-18,8,8,6,-10,28
1523054809255240,-7,-19,-36,2,4,2,-58,-40
1523054809255240,0,20,-21,-4,-4,8,63,-19
1523054809255742,11,-21,-38,-2,4,0,-19,27
1523054809255742,18,0,1,-2,0,-14,10,31
1523054809277801,-16,10,59,8,-2,12,-4,-70
1523054809277801,7,-3,-34,1,7,4,37,51
1523054809278302,-37,-10,7,-7,-6,-11,-81,-35
1523054809278302,18,12,-3,-16,-22,-10,19,-41
1523054809291839,-10,-21,-14,3,5,23,47,30
1523054809291839,28,-14,-1,-1,-2,-11,-16,80
1523054809299859,-2,-9,-20,2,3,-7,-18,-41
1523054809299859,-20,-17,4,-5,-5,-16,-49,-5
1523054809314911,-23,26,11,6,-3,-12,0,-19
1523054809314911,25,12,-4,1,2,15,56,-40
1523054809315956,3,25,5,-6,-4,-25,-24,51
1523054809315956,-26,-21,-10,4,6,12,-30,-61
1523054809337459,-55,-45,5,-9,-9,-15,37,7
1523054809337459,4,19,1,0,2,2,-38,4
1523054809338463,34,-9,-21,2,9,16,29,15
1523054809338463,-21,9,8,-1,-2,18,20,-54
1523054809351999,4,-2,2,8,8,6,-17,6
1523054809351999,-25,15,0,-7,-5,-8,-16,-23
1523054809360021,13,-12,-10,-3,-3,-2,2,15
1523054809360021,-5,-3,2,5,4,-1,-9,-7
1523054809375062,13,-8,-40,-19,-21,-24,-3,48
1523054809375062,13,6,14,12,22,8,-16,-24
1523054809376064,26,3,-6,-1,3,-10,2,56
1523054809376064,-15,-7,63,3,-1,12,49,17
1523054809398120,22,-6,-82,-22,4,-14,-44,-14
1523054809398120,-23,17,105,15,-21,-14,-14,-7
1523054809399123,-1,-2,-80,-10,6,19,19,-17
1523054809399123,6,17,127,10,-6,-4,-1,20
1523054809420680,9,-18,-64,-7,-3,3,5,-16
1523054809420680,-24,2,-77,-1,12,-3,-30,-37
1523054809421683,0,-13,-45,8,5,9,24,19
1523054809421683,1,4,8,-16,-16,-13,-5,-1
1523054809435220,20,4,-57,-5,3,16,3,6
1523054809435220,1,2,8,-14,-11,-11,-31,4
1523054809435721,-5,-10,-33,0,-13,-12,36,0
1523054809435721,9,-2,-128,-1,16,10,-1,-1
1523054809457279,-13,18,127,12,-17,-22,6,-23
1523054809457279,-3,-6,-128,-3,12,13,-6,7
1523054809458282,-7,-6,127,-5,-14,-10,-8,-8
1523054809458282,-6,-13,-128,4,2,5,4,11
1523054809480840,8,28,-37,5,10,-1,-2,1
1523054809480840,6,-10,-69,-2,6,-3,-12,6
1523054809481342,7,0,66,-12,-16,1,4,-1
1523054809481342,-7,4,69,-2,-1,-3,-1,-11
1523054809494878,5,-19,-28,-17,-21,-10,4,-48
1523054809494878,-33,-22,105,27,0,-5,-10,-34
1523054809495880,3,-1,-94,-13,5,-8,-28,-6
1523054809495880,4,6,-5,4,3,13,52,13
1523054809517440,-11,13,3,-12,-6,5,-40,-1
1523054809517440,24,-7,-30,-6,-9,-9,-5,30
1523054809518442,6,-5,4,-2,-2,-8,-4,2
1523054809518442,-12,0,11,0,-11,-8,-16,-15
1523054809539999,3,-25,52,21,23,13,0,-5
1523054809539999,3,26,21,-8,-5,-3,1,13
1523054809541002,-8,0,33,1,-2,4,16,-2
1523054809541002,11,-4,-60,-9,3,-2,-17,0
1523054809555039,0,1,-77,-3,0,-1,19,13
1523054809555039,-1,-8,117,-2,-9,-4,-15,-6
1523054809556042,-6,-2,-68,-1,4,1,15,-1
1523054809556042,7,-3,-2,0,-2,-6,-4,-2
1523054809577632,8,3,56,4,-4,-6,-5,27
1523054809577632,-12,-3,-24,-5,0,1,5,-11
1523054809578101,-7,-12,-123,-11,4,4,13,3
1523054809578101,4,1,114,15,-3,-4,-5,-8
1523054809600661,3,32,-28,6,8,6,-5,-44
1523054809600661,-1,-57,-53,-11,-7,-9,-2,-7
1523054809601662,36,27,21,12,7,15,26,14
1523054809601662,-3,-4,-67,-6,3,-7,-13,-1
1523054809615198,-7,1,46,-2,-3,-3,20,6
1523054809615198,-22,2,95,15,1,7,-7,-9
1523054809615700,0,7,-80,2,12,14,-9,-2
1523054809615700,-5,3,76,3,-9,0,9,-6
1523054809637258,22,-14,-12,-3,-4,-13,-2,60
1523054809637258,16,17,-69,-12,-3,-3,1,16
1523054809638261,-10,-11,49,2,-7,-5,3,-25
1523054809638261,7,14,-82,3,13,7,-4,0
1523054809660819,-16,-17,57,0,-9,-6,-1,12
1523054809660819,18,5,-62,-2,2,3,-3,10
1523054809661321,-12,-17,-71,0,-2,-4,15,-11
1523054809661321,-9,2,35,0,-5,-6,-8,-7
1523054809674857,7,-10,-75,3,9,17,0,-9
1523054809674857,3,-16,18,-4,3,-2,-4,10
1523054809675860,-7,44,44,6,2,-2,-19,14
1523054809675860,0,-29,-35,-6,-2,-8,-19,22
1523054809697417,-6,-4,5,-10,-10,7,41,17
1523054809697417,1,2,-75,-2,2,-6,1,-11
1523054809698420,4,7,67,13,7,3,-2,44
1523054809698420,0,-14,-14,-5,2,-3,2,-21
1523054809720980,1,-1,-4,7,-3,-4,-24,-23
1523054809720980,-3,5,34,-9,-15,-7,-5,18
1523054809721482,-2,-16,28,-12,-9,-6,2,-28
1523054809721482,-10,6,3,-2,-3,10,11,-11
1523054809735118,15,-9,-58,-4,4,-1,-5,-4
1523054809735118,0,-1,-45,-4,-2,2,1,-14
1523054809735620,-28,-7,84,13,0,-2,-7,-14
1523054809735620,-7,-6,48,-7,-11,-7,-6,-6
1523054809757678,-4,32,29,4,2,-3,14,6
1523054809757678,-3,-3,-15,-6,2,2,-33,27
1523054809758182,22,-9,-21,2,4,12,0,-52
1523054809758182,15,4,-57,1,4,1,6,48
1523054809780793,31,-9,35,2,0,1,-3,57
1523054809780793,5,24,20,2,-1,-30,0,-49
1523054809781762,-18,-43,-55,-11,-8,-7,-49,57
1523054809781762,5,12,23,9,4,9,36,29
1523054809795278,20,16,34,6,7,0,-20,22
1523054809795278,4,12,-1,4,9,25,-1,-34
1523054809795779,25,-3,6,-1,0,-2,18,-35
1523054809795779,-21,2,-3,-6,-2,-2,-14,36
1523054809817838,-45,-26,3,-3,-5,6,49,90
1523054809817838,-36,38,0,3,2,28,9,-2
1523054809818339,9,-6,0,-3,-6,-16,-39,-42
1523054809818339,30,28,-3,0,0,8,25,-29
1523054809840901,-25,11,-3,-5,-8,-16,-23,-37
1523054809840901,-3,-7,6,-4,-7,-5,-8,66
1523054809841402,4,10,-7,-7,-3,-12,15,30
1523054809841402,-3,-14,-16,-3,0,0,12,49
1523054809854938,13,-7,4,-2,-2,2,-1,-34
1523054809854938,6,-11,-7,-7,-4,-7,4,-7
1523054809855940,-12,6,6,1,-2,1,10,13
1523054809855940,-19,5,-8,-1,0,-4,-4,-32
1523054809877552,0,2,9,0,0,0,9,-21
1523054809877552,-3,-12,-5,2,1,1,-7,-25
1523054809878529,0,7,-16,-5,-7,-12,-6,8
1523054809878529,-9,-2,34,6,4,2,-20,-27
1523054809900559,-4,-3,-45,-12,0,-6,-21,-40
1523054809900559,-9,-19,102,8,-6,-5,7,2
1523054809901562,-2,-7,-21,2,9,15,20,9
1523054809901562,18,-1,-115,-14,-8,-8,-12,-7
1523054809915099,-18,2,92,7,-13,-14,-14,-23
1523054809915099,17,5,-105,-2,4,-3,16,2
1523054809916101,-6,-4,-36,-11,-11,3,8,10
1523054809916101,-3,-11,-49,6,18,1,-16,-38
1523054809937658,7,5,-95,-5,2,0,2,0
1523054809937658,-12,7,122,21,-5,0,2,-10
1523054809938159,1,7,-54,-2,-10,0,0,-1
1523054809938159,1,0,-18,-8,6,-6,-6,3
1523054809960217,-7,-20,-6,12,5,5,-3,-17
1523054809960217,5,28,-48,-3,4,-1,0,-12
1523054809960719,-4,-32,-18,-5,-3,-4,5,0
1523054809960719,-4,23,61,-2,-13,-8,-14,-43
1523054809975257,17,-8,-39,-10,2,9,29,-2
1523054809975257,1,-6,38,9,-2,-5,-10,7
1523054809975761,-3,9,46,6,5,9,1,2
1523054809975761,-2,-8,-8,1,-2,-1,-8,-32
1523054809997370,10,12,-14,3,7,-6,-12,7
1523054809997370,-2,6,-19,-7,3,4,3,-6
1523054810004892,-3,2,-25,1,2,3,3,-12
1523054810004892,1,-13,14,-3,-1,-1,-6,17
1523054810019877,-2,2,-27,-5,-4,1,4,6
1523054810019877,5,-23,28,-4,-4,-3,9,2
1523054810020878,-5,15,18,-1,-3,-7,-3,11
1523054810020878,5,-13,-50,-2,0,6,4,10
1523054810034917,-6,-4,50,5,-5,-6,-7,-5
1523054810034917,-1,-7,-49,-12,-4,-7,-3,-15
1523054810035919,-3,-7,-1,-2,1,0,2,-13
1523054810035919,-2,0,3,0,-6,-3,5,21
1523054810057476,-4,0,-66,-4,1,-1,-7,-9
1523054810057476,-8,-1,56,1,-3,2,3,-4
1523054810058479,9,-8,-4,3,2,-1,-7,-15
1523054810058479,-8,3,18,-3,-1,-6,-8,-3
1523054810080594,-2,-1,5,0,2,-11,1,0
1523054810080594,-7,-13,-128,-13,2,17,13,14
1523054810081541,5,0,26,1,-3,-5,-3,9
1523054810081541,-6,-23,0,-2,-5,-3,-2,0
1523054810095203,-9,0,58,5,-3,-3,-14,-16
1523054810095203,6,18,-54,-4,0,-8,-6,3
1523054810095654,-8,-26,5,1,-4,-8,-10,8
1523054810095654,6,7,-73,1,6,10,0,-3
1523054810117711,-2,1,79,-8,-9,-6,-3,-1
1523054810117711,1,-2,-56,-3,1,-1,-1,-1
1523054810118213,-4,8,55,4,1,-2,-1,6
1523054810118213,4,11,4,8,2,-1,2,-1
1523054810140773,0,-28,-28,-5,-6,-2,-10,-14
1523054810140773,-2,-2,-23,-8,-3,-11,-18,-2
1523054810141274,0,7,-8,-5,-2,4,10,-1
1523054810141274,-2,-5,-25,-2,0,0,2,2
1523054810155312,-1,4,38,1,3,0,0,-2
1523054810155312,3,2,7,1,-2,-2,-5,-15
1523054810155814,3,3,-108,-8,0,1,-1,-21
1523054810155814,3,-6,-11,-11,-10,-5,-7,-48
1523054810177371,-6,4,80,23,5,6,6,25
1523054810177371,-11,-10,-27,-8,-5,-7,-16,-19
1523054810178375,18,13,-34,2,3,5,-10,58
1523054810178375,8,1,-7,-7,-4,-17,8,-3
1523054810200947,-7,3,-75,-8,2,3,0,1
1523054810200947,-5,-1,52,5,-1,1,3,-7
1523054810201435,4,12,63,0,-6,-3,7,6
1523054810201435,-9,-13,-27,-4,-3,3,-22,11
1523054810214470,2,1,19,8,10,7,-9,-14
1523054810214470,6,-28,12,4,5,-4,-10,1
1523054810222546,-17,2,-39,-8,-1,11,29,-22
1523054810222546,-2,15,60,12,0,0,20,20
1523054810237587,12,-7,-44,-11,-7,-12,-20,5
1523054810237587,11,0,65,0,-8,7,9,-17
1523054810238534,-33,-28,-14,-5,-2,-12,-10,32
1523054810238534,-17,-26,15,-3,-5,3,21,5
1523054810260647,-44,35,17,9,5,13,6,-26
1523054810260647,3,-1,-39,-11,-4,5,24,101
1523054810261648,23,14,23,10,5,2,-12,20
1523054810261648,4,3,25,-4,-4,7,93,16
1523054810274128,0,-13,-34,-8,-3,-3,-51,-88
1523054810274128,3,19,6,5,4,7,7,64
1523054810282650,30,2,14,-1,-8,23,17,-87
1523054810282650,-40,10,8,3,8,-12,-22,6
1523054810297692,26,-8,-8,1,-4,-31,-68,-31
1523054810297692,-12,-2,-5,0,0,-1,29,25
1523054810298193,-11,-23,4,-3,2,-19,-67,1
1523054810298193,-15,10,7,2,-2,-5,-15,-88
1523054810320751,22,12,-9,-1,-2,-7,-6,-41
1523054810320751,-10,-21,-7,-2,1,-3,-20,-12
1523054810321255,14,14,3,2,5,-2,23,-2
1523054810321255,9,14,7,-3,-2,3,-18,17
1523054810334289,6,-8,-6,-4,-3,-1,25,127
1523054810334289,12,7,-9,2,0,12,5,-1
1523054810342810,7,6,5,0,-1,5,21,6
1523054810342810,7,-8,-2,0,-2,-5,-19,18
1523054810357350,4,4,-1,0,0,11,17,13
1523054810357350,-1,2,-4,-3,-3,-7,-8,-42
1523054810358352,-11,-9,-9,-2,-2,-7,-6,-8
1523054810358352,11,-3,-25,-9,-6,11,25,15
1523054810379963,-21,-6,73,9,-4,1,17,1
1523054810379963,-2,-16,-22,-5,-2,-14,-17,-57
1523054810380914,-8,15,-21,0,-3,-4,-7,4
1523054810380914,13,-5,-3,7,16,12,-16,7
1523054810394482,-6,18,-44,-8,-3,4,23,32
1523054810394482,0,17,92,10,-4,-1,7,-12
1523054810402503,-7,0,-58,-12,-6,-1,5,0
1523054810402503,10,2,-89,-18,-4,-8,-15,2
1523054810417563,-3,-25,-55,2,2,5,11,-3
1523054810417563,-11,6,55,7,-8,-5,-16,-7
1523054810418514,-4,-11,-19,-6,3,-7,1,6
1523054810418514,6,-1,19,3,-1,-7,-10,14
1523054810440069,-5,-18,-52,-5,10,14,12,-4
1523054810440069,7,1,-63,-2,7,-6,-1,17
1523054810441073,-18,-22,34,4,-3,2,-3,-21
1523054810441073,-2,-9,46,-2,-7,-5,-6,-5
1523054810454106,0,-1,-7,-4,-7,-2,6,-1
1523054810454106,1,-9,-73,-5,10,6,12,6
1523054810462683,-12,13,127,18,-8,-13,-21,-22
1523054810462683,-9,-18,-38,3,0,6,18,-18
1523054810477698,6,-24,-94,-23,-5,-5,-5,-8
1523054810477698,-3,17,111,19,0,5,-12,0
1523054810478172,-14,10,-4,7,7,-5,18,-8
1523054810478172,9,3,-7,2,-1,3,-7,2
1523054810500229,6,-3,12,2,-5,-1,2,-1
1523054810500229,-7,5,-47,-10,0,2,10,-12
1523054810500731,10,-2,-43,-2,6,3,-5,9
1523054810500731,-8,2,34,6,-3,-7,-16,-1
1523054810523292,5,21,47,7,6,17,12,7
1523054810523292,-4,9,-33,-8,-8,-8,-9,-4
1523054810523792,4,15,21,-1,0,2,5,6
1523054810523792,-5,-14,-3,-1,1,-1,-5,17
1523054810537371,-9,-1,3,1,1,-4,1,0
1523054810537371,0,-8,-2,1,-3,-2,-4,-41
1523054810538372,5,-8,-9,-9,-1,3,11,85
1523054810538372,-21,5,4,6,5,-1,-5,-23
1523054810560892,-9,11,-23,-5,-4,-6,-5,2
1523054810560892,10,-30,-18,-17,-3,-3,-3,0
1523054810561394,-4,-5,19,5,-6,-5,4,-7
1523054810561394,4,17,-14,3,1,-2,-12,-13
1523054810582950,5,-4,13,0,-3,-1,-2,-19
1523054810582950,-2,-10,-47,-3,5,3,7,11
1523054810583953,1,2,37,4,-6,-6,-11,-17
1523054810583953,4,-9,8,2,7,7,-1,-2
1523054810597488,-3,1,37,2,-7,-6,-4,-15
1523054810597488,-1,16,-46,-6,1,-3,0,2
1523054810598491,-5,-14,28,-5,-4,-4,-24,-16
1523054810598491,3,13,-16,0,-4,-6,4,6
1523054810620549,-1,-7,10,-3,-1,-11,-20,9
1523054810620549,4,6,3,6,0,-2,4,35
1523054810621552,5,-14,-45,-7,-4,-4,-1,-9
1523054810621552,-5,-20,0,-7,-3,1,1,10
1523054810643163,19,-11,-45,-8,0,-7,-7,2
1523054810643163,1,-1,18,5,-2,0,-5,-3
1523054810644167,-3,9,-35,-2,-1,2,9,3
1523054810644167,8,5,-26,-6,-3,-4,-10,0
1523054810657649,-2,-14,-31,-7,0,5,10,2
1523054810657649,-24,-7,116,17,-10,-6,-10,-24
1523054810658150,10,20,-25,-3,3,4,15,51
1523054810658150,1,-1,-40,-1,0,-2,-2,0
1523054810680710,8,0,-23,1,3,7,11,10
1523054810680710,-1,-10,-53,-8,-1,-1,1,-14
1523054810681712,-10,-5,11,0,0,-3,-8,-11
1523054810681712,0,-6,57,-2,-4,-7,-16,3
1523054810703269,-9,-10,4,9,5,2,0,8
1523054810703269,-4,-14,-3,-4,0,-6,-22,1
1523054810704277,-3,8,4,2,4,25,53,-12
1523054810704277,-12,-4,-7,-5,-2,3,16,-8
1523054810717308,-21,3,26,3,-1,-2,-5,-59
1523054810717308,-15,18,-37,-2,4,3,2,1
1523054810718310,8,-3,-3,-1,-3,-9,-17,-3
1523054810718310,-20,-29,-1,0,-5,-4,-2,-52
1523054810740871,-27,20,16,2,-1,6,22,8
1523054810740871,-22,18,12,4,1,6,4,-39
1523054810741372,7,1,-30,-1,4,4,-47,-21
1523054810741372,30,-1,13,2,-1,27,66,79
1523054810762928,-11,13,22,2,-1,-10,17,100
1523054810762928,-2,33,-22,-6,-3,-2,15,-83
1523054810763932,10,14,-4,3,-2,-6,-62,24
1523054810763932,6,-11,14,5,3,-8,6,47
1523054810777468,18,-3,10,5,1,-7,-56,37
1523054810777468,20,-21,-9,-3,1,20,80,108
1523054810778471,-71,-17,-16,-8,-8,-31,-45,-92
1523054810778471,2,7,-2,-6,-10,-9,-25,-34
1523054810800028,-18,-14,8,0,1,2,-9,-43
1523054810800028,9,-8,4,-3,-3,2,-12,65
1523054810801031,19,-8,-6,1,6,12,37,18
1523054810801031,-7,6,-5,-4,-1,-3,0,1
1523054810823089,-5,25,-1,-4,-3,0,-10,-72
1523054810823089,-17,24,-3,-3,0,0,-10,-21
1523054810824091,12,-10,31,3,-4,3,31,7
1523054810824091,26,3,-88,-12,2,-2,-19,20
1523054810837627,17,-12,69,-9,-10,-7,-4,-53
1523054810837627,9,-15,90,14,-8,-20,-28,-9
1523054810838129,8,11,-44,0,5,-1,2,4
1523054810838129,-2,-3,-3,6,9,-1,-8,-11
1523054810860188,7,-9,-51,-12,-3,4,13,12
1523054810860188,2,-13,-35,-1,5,-2,-6,-12
1523054810860690,6,-7,-2,1,-4,1,18,12
1523054810860690,-8,-6,-55,-6,-2,1,-7,-15
1523054810883250,-2,1,67,-4,-14,-7,7,9
1523054810883250,-14,-2,-6,-3,4,-4,-6,20
1523054810883751,15,10,32,17,10,8,11,37
1523054810883751,8,8,-77,-6,4,2,2,16
1523054810897287,8,14,-86,13,3,1,-3,-19
1523054810897287,1,-17,46,-8,-11,-13,-5,-6
1523054810898290,-6,16,99,2,-14,-5,-7,-26
1523054810898290,-15,-18,-46,-11,-8,-3,-12,-42
1523054810919847,0,-2,-82,3,11,5,9,13
1523054810919847,8,-2,-68,2,6,3,-4,-12
1523054810920850,10,-9,-1,0,6,3,18,52
1523054810920850,-1,12,73,-3,-11,-1,3,-18
1523054810943408,-2,-4,7,0,-6,-5,0,18
1523054810943408,12,-3,-33,0,2,3,-1,0
1523054810943911,-9,-11,-40,-11,4,0,0,-3
1523054810943911,-1,-3,52,14,-3,-7,-8,5
1523054810957446,7,14,52,-2,4,2,5,3
1523054810957446,0,2,-40,2,3,-6,-1,0
1523054810958449,8,-23,-126,-20,-7,-2,3,-10
1523054810958449,1,12,26,-1,2,6,0,2
1523054810980507,-2,-2,30,2,-4,4,7,5
1523054810980507,-2,-2,-14,-3,-4,-3,-15,-20
1523054810981510,-4,5,-13,-3,1,-2,4,19
1523054810981510,-3,-2,54,12,-3,-4,-8,-4
1523054811003069,-10,-3,-14,-13,2,2,3,25
1523054811003069,6,-8,-20,-1,-3,3,-5,-12
1523054811004071,-3,2,8,0,0,0,-2,-1
1523054811004071,-6,-19,-22,-1,1,-1,5,23
1523054811017606,10,-24,-58,-8,-10,-15,-2,18
1523054811017606,-6,-2,96,-3,-4,2,-7,17
1523054811018107,5,-6,-38,-3,-1,0,5,-1
1523054811018107,4,22,12,7,7,-2,-2,2
1523054811040668,-5,6,-30,-3,-9,-4,1,-4
1523054811040668,-6,-9,43,-1,4,2,1,-5
1523054811041671,-5,-5,14,-2,-6,-3,-4,-16
1523054811041671,2,4,-13,-9,0,-1,-3,11
1523054811063229,-3,-7,-24,1,5,5,2,-17
1523054811063229,14,-2,0,2,-2,-3,-3,11
1523054811064230,-20,13,-65,-11,-7,-1,0,-11
1523054811064230,2,12,91,8,-6,-9,-7,-11
1523054811077266,-6,8,8,18,8,8,-2,-12
1523054811077266,2,1,-22,-9,-4,-2,-2,-4
1523054811078269,0,-9,-42,-7,-2,-3,0,-7
1523054811078269,-5,-7,-21,-3,0,-2,-3,1
1523054811100881,1,-3,-35,1,-2,-1,1,4
1523054811100881,-3,17,15,13,2,-4,-1,8
1523054811101830,-6,-33,1,-9,-9,-8,-8,-52
1523054811101830,-1,3,-16,-2,0,4,5,3
1523054811123388,2,-7,-16,-9,2,1,3,6
1523054811123388,-2,-9,-15,15,2,2,-4,-10
1523054811123890,1,6,53,13,0,-6,-5,11
1523054811123890,-13,17,-41,3,6,7,15,6
1523054811136925,-10,-7,2,0,-2,-1,-8,18
1523054811136925,5,-2,-68,-14,0,1,4,-15
1523054811145003,-6,10,40,10,1,3,-1,-3
1523054811145003,-3,-10,20,-2,2,-2,-10,-3
1523054811160487,5,28,5,-2,2,1,1,2
1523054811160487,-19,-8,2,-1,0,-1,2,8
1523054811161491,8,-5,27,3,2,0,-4,2
1523054811161491,4,-4,-61,-8,-5,-4,-3,-10
1523054811183047,-4,4,33,7,2,-1,-1,-15
1523054811183047,8,13,37,14,3,-5,3,2
1523054811184106,-9,-20,39,11,-3,3,6,17
1523054811184106,8,0,-53,-3,5,1,8,93
1523054811197084,20,-13,-45,-9,-3,8,22,42
1523054811197084,-8,5,-35,-10,-4,3,8,25
1523054811205105,20,0,-49,-5,2,6,0,-4
1523054811205105,-6,-8,-5,-7,-7,-18,-23,-4
1523054811220200,-11,2,57,11,-2,17,55,-7
1523054811220200,1,0,-8,-16,-1,1,-11,-13
1523054811220647,19,-2,-21,-6,-1,-3,1,5
1523054811220647,-7,19,-1,-1,-1,-2,-13,-6
1523054811243260,9,-18,-48,-8,-7,-20,-41,-58
1523054811243260,3,7,42,2,-2,1,15,-9
1523054811244211,8,-13,-11,-6,-7,6,29,-9
1523054811244211,-40,21,-3,4,3,8,0,-19
1523054811256742,10,-15,36,2,3,-11,-27,34
1523054811256742,-1,-5,9,-3,-8,-27,-27,-50
1523054811265280,17,-9,-21,-11,-8,-11,-40,-52
1523054811265280,-34,77,41,8,2,1,28,-20
1523054811279805,-48,1,12,5,7,-21,-45,-11
1523054811279805,-8,-19,-37,-4,-2,-8,-1,-78
1523054811280808,-28,-29,-1,0,5,23,24,36
1523054811280808,-27,-7,17,-5,-11,-8,-27,60
1523054811303366,-52,37,16,0,3,-3,-4,-4
1523054811303366,23,16,-7,-1,-2,-4,-23,-33
1523054811303869,26,-92,-30,-2,-4,-10,-9,-18
1523054811303869,11,-99,-3,4,4,22,47,14
1523054811316903,-45,-15,-6,-15,-6,13,61,-5
1523054811316903,26,-34,-40,-5,-6,-4,-55,30
1523054811324924,-24,84,22,0,-1,-4,8,16
1523054811324924,29,-15,2,-4,-1,1,12,-44
1523054811339963,43,3,8,3,2,-3,-49,42
1523054811339963,-36,-3,-8,-2,0,20,30,103
1523054811340967,17,0,1,1,3,-11,-52,-46
1523054811340967,-1,16,14,1,3,12,37,-12
1523054811363026,7,5,1,2,0,8,21,-10
1523054811363026,-11,12,-11,-5,-2,-8,-21,12
1523054811364029,-3,23,5,2,1,-13,-5,31
1523054811364029,18,-4,0,0,-1,3,-26,-40
1523054811377062,18,-7,-6,-3,-3,5,19,21
1523054811377062,1,-11,-13,-5,-5,-3,7,-6
1523054811385083,-21,26,10,6,10,-3,9,-10
1523054811385083,20,-4,-2,-4,-2,0,-2,-21
1523054811400177,17,-8,8,4,1,-1,1,-18
1523054811400177,-13,22,-3,-1,-5,2,2,2
1523054811400626,-12,5,1,0,-3,5,6,8
1523054811400626,16,2,-20,-1,4,-5,-29,8
1523054811423185,11,-9,-65,-7,-2,2,-10,-1
1523054811423185,-4,15,97,10,-2,1,11,4
1523054811424189,-11,-23,6,-8,2,10,9,12
1523054811424189,6,10,-25,-7,-12,-18,-21,-6
1523054811436776,10,1,-115,1,8,7,2,-2
1523054811436776,-4,4,86,1,-13,-5,12,-13
1523054811445245,-5,-4,-72,-1,2,6,7,4
1523054811445245,-4,-1,-54,-7,0,-3,-6,2
1523054811460289,1,0,57,2,-2,-2,-8,-30
1523054811460289,-1,-6,50,10,7,6,-31,-72
1523054811460785,14,18,-1,2,3,-2,31,14
1523054811460785,-13,-18,-22,3,-4,-8,-8,-27
1523054811483345,6,4,15,5,4,1,-2,35
1523054811483345,2,-21,4,-4,3,-14,-25,-50
1523054811483850,3,3,15,-2,-5,3,8,17
1523054811483850,18,-10,-42,-1,0,0,5,-4
1523054811505923,-14,-1,-32,-3,-3,-5,0,10
1523054811505923,-14,-8,-77,-7,-3,-6,11,13
1523054811506407,12,2,-63,0,2,2,-6,12
1523054811506407,-4,1,121,8,-4,-8,-12,-2
1523054811519944,10,-19,-86,-9,3,7,-4,-13
1523054811519944,7,32,2,5,-4,0,16,35
1523054811520947,1,6,29,6,2,-1,-4,-5
1523054811520947,-2,-52,-21,-6,-5,-5,-4,-2
1523054811543007,-1,5,28,-11,2,-8,-7,-11
1523054811543007,4,-13,-89,-4,3,7,20,19
1523054811544009,-9,7,-12,-7,-1,-4,-7,-8
1523054811544009,-8,-6,49,-6,-11,-8,-10,1
1523054811565565,-4,-3,15,14,-7,-5,-5,-11
1523054811565565,-2,-6,-22,-4,2,6,17,-30
1523054811567569,-19,11,-4,-1,-1,0,-7,-9
1523054811567569,3,-10,-15,-4,-5,-1,-1,-10
1523054811580104,-11,23,-13,-2,4,3,1,-4
1523054811580104,2,1,-46,-5,0,5,2,29
1523054811580606,-4,7,79,5,-8,-16,-18,-21
1523054811580606,-4,-15,13,-3,4,6,9,-3
1523054811603164,-5,-7,-16,-12,-6,0,2,-18
1523054811603164,0,-10,-29,5,-2,-3,-5,12
1523054811604223,-4,22,-15,-3,3,3,-3,2
1523054811604223,2,1,4,0,-1,-2,-4,0
1523054811625758,3,-11,-22,-4,-4,-3,0,21
1523054811625758,11,-7,-22,-1,2,2,8,20
1523054811626225,3,-8,-17,-6,-7,-4,-1,-3
1523054811626225,-9,18,-36,-1,6,0,-2,9
1523054811640263,-2,-7,99,10,-3,-2,0,-4
1523054811640263,-9,13,-31,1,10,6,7,7
1523054811640765,6,-5,29,-3,-6,-6,-2,14
1523054811640765,6,10,58,12,2,1,-1,-7
1523054811663324,-10,25,-27,-4,-1,3,5,5
1523054811663324,3,-2,-22,-4,-3,-2,0,-5
1523054811663827,-9,-13,11,-1,1,1,2,-9
1523054811663827,-5,-9,2,-4,-2,-18,-42,23
1523054811685884,5,-8,29,1,0,29,52,-15
1523054811685884,3,-1,1,0,-2,2,1,7
1523054811686387,-4,-2,-38,1,1,2,2,3
1523054811686387,16,-17,38,-8,-12,-7,-11,4
1523054811699921,18,-10,9,2,-2,-13,-19,-32
1523054811699921,-24,10,-27,-3,2,4,6,27
1523054811700926,8,-12,-24,-2,-1,-3,0,-6
1523054811700926,8,10,-20,-1,4,8,9,-1
1523054811722983,-4,-1,9,-6,-7,-9,-11,-6
1523054811722983,2,-6,30,2,3,0,5,-7
1523054811725004,0,-9,-103,-14,4,2,-4,9
1523054811725004,-11,-7,54,6,-4,-3,6,-8
1523054811745602,16,-22,70,3,-9,-6,-10,0
1523054811745602,-28,-7,5,-1,3,2,-1,25
1523054811747558,11,31,5,3,2,-4,-15,-16
1523054811747558,-4,11,-128,-15,5,8,15,10
1523054811759582,23,-13,99,17,-5,-8,-9,7
1523054811759582,17,-11,5,2,-5,-4,-3,36
1523054811768103,-10,-24,1,-3,-3,-9,-2,7
1523054811768103,-9,-15,-41,-2,1,8,5,-41
1523054811783146,-16,20,-46,-8,-2,-8,-13,6
1523054811783146,12,-6,-1,-4,-3,12,33,-11
1523054811784648,12,-34,16,-3,-8,-17,-18,-52
1523054811784648,8,12,-2,1,0,4,30,23
1523054811805704,-14,-14,-27,-3,5,9,-16,5
1523054811805704,-22,17,20,0,-9,-28,-77,-56
1523054811807208,-48,-33,-10,-6,-7,-2,-6,0
1523054811807208,20,14,12,2,4,-14,-11,14
1523054811819240,43,-15,-31,-8,-1,21,15,-13
1523054811819240,5,40,7,7,7,-28,-28,42
1523054811828263,-7,2,19,11,3,9,27,68
1523054811828263,41,-46,-13,-12,-7,-22,-98,-35
1523054811843357,-7,14,-7,0,4,9,33,9
1523054811843357,16,-25,-14,-8,-2,-1,8,47
1523054811844807,-18,19,8,-2,-2,5,5,4
1523054811844807,-17,3,3,-2,-5,1,12,-42
1523054811865864,4,20,-20,-1,1,-10,-17,-24
1523054811865864,5,-16,-2,-4,-1,10,18,1
1523054811867367,36,-5,11,3,-5,-2,1,-24
1523054811867367,-16,14,6,3,5,12,27,28
1523054811879399,-19,-40,-22,0,3,-7,-16,-15
1523054811879399,-12,20,0,2,5,5,16,-19
1523054811888423,-5,2,-8,-3,2,4,-5,4
1523054811888423,-2,22,-51,5,-1,-5,-1,-6
1523054811903463,-25,-11,82,3,-7,-5,4,11
1523054811903463,20,-17,-75,-15,-4,6,0,-3
1523054811905008,-4,7,109,11,-7,-5,-5,7
1523054811905008,-12,-9,-94,-20,-3,1,13,21
1523054811925522,5,22,78,13,-5,-9,0,8
1523054811925522,-4,-29,8,-6,0,2,4,-11
1523054811927527,9,16,50,5,5,0,-5,-5
1523054811927527,-15,11,-74,-7,3,9,9,17
1523054811939559,-13,40,23,8,-1,-4,-6,6
1523054811939559,7,2,-26,-2,-1,6,-8,-18
1523054811948082,-13,-18,15,2,-4,2,0,-8
1523054811948082,12,2,-20,-1,7,-2,9,22
1523054811963122,-3,-14,17,-2,-7,-8,-2,7
1523054811963122,-7,9,-14,-6,-1,5,6,-28
1523054811964627,1,17,-58,-4,1,-1,2,7
1523054811964627,-6,-7,87,18,-6,3,11,2
1523054811985682,0,3,-119,-25,-1,-7,-5,-13
1523054811985682,-5,-1,75,26,11,0,4,14
1523054811987186,-4,0,100,-14,-14,-10,-22,-11
1523054811987186,-2,15,26,9,-3,-2,1,-2
1523054811999218,0,-6,-71,-4,0,-3,1,-6
1523054811999218,-4,2,-18,-8,-2,0,5,13
1523054812008243,-3,-9,-99,-2,4,1,-1,5
1523054812008243,-9,19,36,7,-2,-5,-1,-5
1523054812023282,0,-21,-81,-11,-1,7,-6,9
1523054812023282,-1,7,36,-19,-7,-6,-3,-8
1523054812024787,-4,-3,-16,6,2,1,6,1
1523054812024787,5,-5,15,-5,8,6,3,8
1523054812045842,-25,-21,-30,6,-1,-3,0,-3
1523054812045842,3,0,44,-2,-11,-7,-5,-8
1523054812047346,2,21,-2,1,2,4,6,-2
1523054812047346,13,-13,-40,-6,-2,1,-3,2
1523054812059378,-6,12,28,11,4,0,0,6
1523054812059378,-6,-13,56,-1,-8,-3,1,8
1523054812068402,-5,1,-37,-6,0,1,10,-5
1523054812068402,4,-1,-55,-1,4,5,-1,0
1523054812082941,-4,4,72,-8,-6,-7,-10,-6
1523054812082941,15,-1,72,20,-1,-8,-21,18
1523054812084946,0,1,-63,-7,-1,18,43,-4
1523054812084946,-11,11,-7,-1,1,1,-11,5
1523054812105502,14,-4,-37,-10,-3,-5,7,-5
1523054812105502,5,5,-77,-4,8,5,-5,-16
1523054812107506,6,-1,0,-1,1,-6,-14,-2
1523054812107506,-12,5,11,2,-3,-5,-5,12
1523054812119538,11,1,-38,-6,-4,1,-1,25
1523054812119538,0,10,-24,-1,-4,3,1,0
1523054812128565,1,2,-22,7,9,-3,-8,4
1523054812128565,-12,-4,84,3,-6,-2,5,-14
1523054812143101,3,10,-46,0,9,-2,-10,0
1523054812143101,0,4,-37,-7,-9,-4,9,-2
1523054812144605,0,-4,-46,-6,4,0,-8,-11
1523054812144605,-2,-27,50,-5,-12,-8,-10,-12
1523054812165661,-19,-6,69,6,-1,3,16,30
1523054812165661,1,-2,-33,-1,-1,-3,-19,-88
1523054812167165,-3,-8,16,-4,-8,-9,-5,26
1523054812167165,-4,7,74,12,1,1,1,7
1523054812179197,3,-5,-103,-9,2,1,-10,-5
1523054812179197,4,-21,-16,-6,-2,6,28,39
1523054812188221,-24,6,5,0,2,4,-5,-5
1523054812188221,11,25,26,0,1,-8,-10,4
1523054812203261,1,-9,72,3,-9,-3,-7,-15
1523054812203261,3,2,-34,-5,-3,-7,-8,13
1523054812204765,16,-3,58,8,5,2,-5,-16
1523054812204765,-1,-9,-69,-7,7,9,11,26
1523054812225884,-1,2,16,-4,-4,-6,-7,39
1523054812225884,-1,-5,-27,-2,0,-1,4,-12
1523054812227326,-4,-17,-81,-13,-12,-10,6,26
1523054812227326,-6,11,70,5,-2,2,1,-4
1523054812239359,7,-4,25,6,-8,-7,-7,-48
1523054812239359,-22,-20,18,8,10,20,3,7
1523054812248382,-3,24,-20,-4,-6,-11,-12,7
1523054812248382,-21,-2,-11,3,1,20,38,-79
1523054812262921,-5,-22,-16,-18,-9,-14,-1,-30
1523054812262921,-2,-3,11,6,7,-5,-16,40
1523054812264961,37,-4,13,3,4,27,61,43
1523054812264961,2,-5,-35,-3,-2,3,9,21
1523054812285480,-7,4,1,2,7,-1,-90,-29
1523054812285480,15,24,-19,6,-4,-19,11,-49
1523054812287486,36,-4,14,3,0,6,84,82
1523054812287486,-17,-18,-25,-12,-9,-9,-19,-28
1523054812299517,29,11,-16,0,3,3,-11,7
1523054812299517,-15,-15,3,-6,-4,2,-13,37
1523054812308543,-20,9,16,7,2,9,-5,-50
1523054812308543,41,-1,-17,-11,-7,-11,-24,39
1523054812322578,-71,-10,-1,2,-1,-10,-20,-49
1523054812322578,10,-6,-9,-4,-6,-8,-6,-11
1523054812329597,-19,-3,7,1,2,-5,26,40
1523054812329597,19,1,-19,3,9,7,23,56
1523054812345641,7,1,-1,3,4,4,5,-33
1523054812345641,-15,-2,2,-1,-4,-2,13,-25
1523054812347145,-3,-10,-4,-4,-4,-7,-26,-2
1523054812347145,-17,12,7,8,7,0,-4,-19
1523054812359177,-4,7,0,1,0,3,30,57
1523054812359177,11,3,-48,-3,4,6,9,13
1523054812368201,23,10,80,0,-10,-10,-39,-38
1523054812368201,10,-7,-40,-1,-2,-8,-18,18
1523054812382738,13,-3,-62,-12,1,4,36,47
1523054812382738,-29,1,93,14,-7,-4,0,-32
1523054812389257,1,-4,-59,-20,-3,-14,-37,-27
1523054812389257,-7,-7,8,2,-5,4,-7,-22
1523054812405800,31,14,3,7,10,7,14,4
1523054812405800,-7,18,63,4,5,3,-2,5
1523054812407304,-22,12,-43,-1,4,-1,-20,-39
1523054812407304,-7,-23,69,18,1,-5,-5,-19
1523054812428359,-8,-11,-16,-10,-12,-2,5,-4
1523054812428359,-2,10,-26,3,15,2,-6,-4
1523054812429897,-6,-22,41,6,-3,2,-10,-2
1523054812429897,5,7,-14,-1,-4,-4,2,-2
1523054812442430,9,-12,-21,-8,5,4,6,13
1523054812442430,-1,4,16,1,-11,-3,1,11
1523054812449417,-5,-2,23,-2,2,-2,-10,1
1523054812449417,1,-8,5,-11,-8,-10,-1,7
1523054812465960,3,2,-37,8,2,3,9,2
1523054812465960,0,-1,-76,-13,3,2,3,7
1523054812467465,-10,5,54,4,-5,-4,-11,-11
1523054812467465,-12,11,32,5,1,5,-2,-15
1523054812488018,-11,8,14,-8,-6,-4,10,45
1523054812488018,7,-38,-119,-16,-4,0,-2,-14
1523054812490025,-14,-5,82,22,5,4,-8,2
1523054812490025,5,1,0,-11,-6,-4,0,32
1523054812503113,5,0,13,4,-2,-1,4,8
1523054812503113,-6,-4,-29,0,3,1,-1,-9
1523054812505064,8,-29,-32,-4,-7,-6,-8,11
1523054812505064,-15,9,-22,-12,1,-2,-2,-31
1523054812525618,-14,7,-9,0,6,4,5,14
1523054812525618,11,-27,35,7,-8,-3,4,50
1523054812527123,-7,19,-16,-12,-4,0,0,-8
1523054812527123,5,3,-92,-10,0,1,1,9
1523054812548236,2,-10,53,7,-4,-4,-8,-33
1523054812548236,-4,-3,107,4,-3,-7,-8,-17
1523054812549684,15,3,-41,-3,-1,-1,-4,-5
1523054812549684,-2,-10,-55,-9,-1,-2,0,-7
1523054812562719,6,-3,59,5,3,2,4,3
1523054812562719,-3,25,31,7,-2,-1,-4,3
1523054812569236,-15,-5,-26,-3,-2,-2,-3,-44
1523054812569236,5,-10,-1,-3,-3,-3,-2,-6
1523054812585780,-2,-11,-56,-6,-2,-3,0,-17
1523054812585780,-25,-1,3,-2,-1,1,4,-4
1523054812587284,7,5,-66,-5,5,0,-5,-1
1523054812587284,2,8,27,9,0,-1,3,11
1523054812608340,13,10,14,3,1,3,9,0
1523054812608340,-6,-3,-21,-3,1,2,2,-2
1523054812609898,4,5,-58,-10,-12,-8,1,13
1523054812609898,-3,-3,12,4,0,0,-1,-11
1523054812622376,0,1,40,5,4,0,-6,-17
1523054812622376,9,1,-43,-15,-6,3,-15,3
1523054812629395,5,-18,-95,-6,0,1,3,0
1523054812629395,-4,12,94,13,0,-2,-5,-4
1523054812645939,-9,-6,8,-9,-8,-5,-3,19
1523054812645939,22,-17,-45,-5,1,-1,-1,-13
1523054812647497,-10,0,6,0,1,-1,-1,-4
1523054812647497,-21,-8,-30,-8,-1,-3,0,-2
1523054812667998,-3,14,-27,0,2,2,2,-17
1523054812667998,-5,-8,1,-3,-8,-5,-2,0
1523054812670003,12,-13,23,4,7,4,-4,-11
1523054812670003,5,1,-3,3,1,0,0,11
1523054812682590,1,-1,-35,-5,-3,-3,-2,-10
1523054812682590,-7,8,-19,1,2,0,-4,-9
1523054812689054,-9,15,53,3,-3,-2,-4,9
1523054812689054,14,-22,-40,-7,-4,-4,-4,-6
1523054812705597,-5,4,1,-3,-1,-2,-8,2
1523054812705597,12,7,10,4,6,1,-2,-22
1523054812707104,-3,-7,9,-1,-4,-6,8,29
1523054812707104,-13,-18,-19,-9,-4,4,18,-20
1523054812728158,31,9,8,5,2,-1,-4,42
1523054812728158,-18,25,25,1,0,-4,-33,-19
1523054812729662,2,16,6,7,6,-8,30,59
1523054812729662,45,-10,-11,-11,-9,-8,-27,28
1523054812742730,-5,8,13,1,-6,12,25,52
1523054812742730,-18,-7,-10,-8,-1,1,3,1
1523054812749269,-35,-14,6,-2,-3,-4,-42,-54
1523054812749269,8,10,0,1,1,-3,12,50
1523054812765759,1,0,3,5,6,-5,19,-24
1523054812765759,50,-8,-2,-2,-3,1,-1,3
1523054812767262,21,-12,-5,-3,-4,-1,-11,44
1523054812767262,13,10,6,2,4,-1,-8,-26
1523054812788319,-20,-16,-7,-1,3,-1,-15,-41
1523054812788319,-4,6,4,-6,-4,-1,28,24
1523054812789822,14,1,5,-1,-1,-3,-4,0
1523054812789822,-14,7,2,-1,0,0,1,-37
1523054812802391,-28,1,0,2,1,0,-7,-33
1523054812802391,-8,6,0,0,0,0,9,-10
1523054812809373,2,-16,-2,-2,-3,-1,-1,-39
1523054812809373,-22,18,3,1,0,3,0,9
1523054812825918,-2,-11,-5,-7,-7,0,7,-10
1523054812825918,-16,-12,4,0,-3,-2,-2,1
1523054812827478,14,-10,-4,-1,-3,-2,-5,1
1523054812827478,-17,-2,-3,4,6,8,10,9
1523054812848033,36,-1,-12,-2,-6,-4,-14,-5
1523054812848033,1,-4,9,-6,0,-5,-7,5
1523054812850028,-9,12,44,3,10,9,8,-10
1523054812850028,-3,-4,8,8,1,-1,-1,-8
1523054812862014,-3,10,0,-7,-5,-6,-12,-15
1523054812862014,10,-8,-94,-11,0,2,6,22
1523054812871049,-13,21,104,15,-11,-5,3,-11
1523054812871049,-10,-6,-60,-2,-1,0,-7,-7
1523054812885576,-4,-12,-38,-6,-4,-6,-8,1
1523054812885576,0,10,-52,-2,0,-3,4,-5
1523054812887081,-2,10,-84,-19,3,6,1,-3
1523054812887081,-2,-19,72,8,-5,-10,-3,-5
1523054812908143,-4,-21,-37,3,2,-2,7,2
1523054812908143,16,6,-7,-10,5,9,7,69
1523054812909641,-22,26,32,11,-2,-1,-2,-58
1523054812909641,4,-22,-8,-7,-6,-5,-1,5
1523054812921674,-9,-7,-11,0,10,3,5,-3
1523054812921674,8,-5,1,6,1,-3,2,28
1523054812930696,0,-6,30,5,4,3,-2,3
1523054812930696,-7,14,27,-13,-9,-6,1,-22
1523054812945738,16,23,-32,-6,-5,2,-3,8
1523054812945738,-7,2,41,13,0,-1,-6,-29
1523054812947242,9,-15,-128,-12,14,7,3,16
1523054812947242,-10,13,55,12,-7,-11,-5,-16
1523054812968296,-4,-13,123,-2,8,7,1,11
1523054812968296,6,-24,-48,-8,-8,-3,-4,-14
1523054812969801,5,18,12,-2,-1,-1,3,9
1523054812969801,-2,-1,-42,-12,-1,-1,-3,8
1523054812981834,-3,13,22,17,-3,-1,-5,-6
1523054812981834,-8,-9,9,-16,-3,-2,1,-10
1523054812990858,-8,-12,8,6,3,0,-1,4
1523054812990858,-12,-8,-62,-8,3,5,-2,-14
1523054813005896,16,0,11,3,-6,-3,0,42
1523054813005896,-34,-11,-24,2,2,-1,0,-41
1523054813007402,12,14,80,5,-8,-6,-1,12
1523054813007402,-4,6,22,12,5,4,2,5
1523054813028013,-1,11,-21,-4,-5,-3,1,11
1523054813028013,-21,-3,-40,5,8,2,3,8
1523054813030016,15,-12,-17,-9,-7,-5,-4,4
1523054813030016,-1,-2,-110,-15,-6,-7,-1,-4
1523054813041995,-8,-4,54,16,2,1,-1,-17
1523054813041995,4,12,58,3,0,3,5,9
1523054813051016,-4,-9,-26,-2,0,-2,2,-10
1523054813051016,9,3,-23,-5,2,7,3,11
1523054813065613,-5,-7,-80,-12,-4,-4,-5,-13
1523054813065613,-1,-5,-42,1,-6,-4,-2,19
1523054813067060,-35,-10,-12,7,2,1,-3,-24
1523054813067060,5,7,59,-13,-5,1,0,2
1523054813088117,0,-2,-93,5,8,0,0,-2
1523054813088117,-4,14,102,-2,-2,-1,-9,-23
1523054813089620,3,-7,-18,0,-6,0,2,54
1523054813089620,-1,-10,-58,2,2,0,-4,-61
1523054813101714,-5,6,-10,-10,-7,-2,-3,-3
1523054813101714,12,9,31,7,-1,-12,-3,6
1523054813110676,0,-6,-82,-7,7,9,-1,-5
1523054813110676,-5,0,-5,9,6,3,4,13
1523054813125769,-14,-10,100,7,-12,-10,-4,0
1523054813125769,3,8,-43,-1,-6,-2,-10,-39
1523054813127221,3,-1,-61,-19,-6,-5,0,3
1523054813127221,-4,-1,19,12,10,10,-1,13
1523054813148333,6,-10,24,-2,5,6,4,13
1523054813148333,9,8,8,11,4,3,3,26
1523054813149781,2,13,-38,-8,-4,-3,2,-7
1523054813149781,0,-9,-33,-21,-17,-9,-7,8
1523054813161811,-10,-3,73,8,1,-5,-11,-20
1523054813161811,13,-16,54,6,-6,-5,-5,-5
1523054813170836,-17,1,-6,-2,0,0,7,31
1523054813170836,8,-4,-57,3,3,0,4,18
1523054813185880,-5,-6,-38,-14,-3,0,-2,-16
1523054813185880,1,-9,17,0,-3,-1,0,4
1523054813187436,-3,3,48,8,-4,-8,-3,-14
1523054813187436,2,7,-9,4,8,7,0,-9
1523054813208436,-13,3,-5,-16,-12,-8,-6,23
1523054813208436,-10,-5,50,2,2,3,2,-14
1523054813209939,13,-9,-16,-4,-3,-2,-16,-20
1523054813209939,-28,-5,27,-3,-7,-5,0,23
1523054813221973,8,15,-34,3,6,0,5,-10
1523054813221973,-16,-12,-21,1,1,8,8,0
1523054813230997,3,-14,4,-9,-6,-11,-4,41
1523054813230997,25,-19,9,-5,-3,-12,-66,-78
1523054813245534,10,13,-15,4,2,10,11,6
1523054813245534,-1,1,-33,-13,-6,-2,40,40
1523054813247541,-17,-14,26,4,2,6,31,50
1523054813247541,15,2,7,4,-4,-5,-18,64
1523054813268095,-11,-9,-15,-6,-7,-13,-2,42
1523054813268095,-1,9,-5,-1,4,-7,-60,-54
1523054813269598,55,12,10,4,3,18,97,18
1523054813269598,-5,3,22,4,-3,-16,-39,24
1523054813281631,30,3,-20,-6,-4,-9,-20,-75
1523054813281631,19,-23,-30,-11,-7,4,37,42
1523054813290655,-9,0,7,-5,-6,-19,-87,-22
1523054813290655,9,-21,8,3,2,0,-1,-50
1523054813305194,-8,13,-2,-1,3,6,30,9
1523054813305194,7,7,-11,1,3,2,-2,13
1523054813311743,14,-2,17,7,5,15,35,-5
1523054813311743,-2,-18,3,-9,-7,3,29,7
1523054813328254,-6,-23,-18,-6,-4,-5,-19,6
1523054813328254,-3,7,-4,2,2,1,3,14
1523054813329760,-27,5,6,5,-5,0,-16,-12
1523054813329760,9,11,4,0,8,2,10,7
1523054813350814,-7,-11,-4,-4,-3,0,7,-2
1523054813350814,2,22,5,-7,-19,-7,-8,-18
1523054813352318,-3,-5,16,11,24,4,-24,-53
1523054813352318,-5,3,0,-5,-11,-4,9,13
1523054813364910,-1,0,1,3,5,10,8,1
1523054813364910,3,-6,-11,-4,-4,-5,-10,-11
1523054813371871,-12,2,-3,-3,-15,-7,-18,-1
1523054813371871,-10,10,-3,3,11,16,29,-4
1523054813388414,-6,-13,-64,-18,-7,-6,-2,23
1523054813388414,1,6,93,20,-3,-3,-13,-38
1523054813389921,2,-10,-76,-5,13,4,-1,-14
1523054813389921,-11,-3,-36,-4,1,2,7,-2
1523054813410473,-3,23,-26,13,-7,-6,-14,-23
1523054813410473,-4,0,-17,-8,7,1,2,11
1523054813412478,9,15,28,5,-5,-3,1,4
1523054813412478,-1,-5,-89,6,-2,1,5,22
1523054813425070,-8,-8,16,-15,-4,-7,-9,-7
1523054813425070,-3,26,-44,5,8,6,13,9
1523054813432030,-1,-13,-2,4,1,-3,-9,9
1523054813432030,-2,19,24,-7,1,-2,11,7
1523054813448127,2,-7,49,2,-2,2,-1,14
1523054813448127,-9,-11,-1,-1,-1,-6,-7,-3
1523054813450078,-1,5,-4,3,8,4,-1,-20
1523054813450078,-1,-6,-14,-7,-9,-13,-3,-5
1523054813470633,2,8,32,21,12,5,5,-4
1523054813470633,-4,3,66,-16,-11,-7,-12,-12
1523054813472138,-8,14,31,0,-5,0,0,16
1523054813472138,8,-12,-47,6,5,3,5,-9
1523054813485727,-12,-22,14,-18,-4,-2,-2,-5
1523054813485727,-5,-28,-76,6,1,-3,-4,-4
1523054813487178,9,-8,11,-2,-10,-7,-7,-10
1523054813487178,-16,22,-19,-10,2,-1,4,-10
1523054813508233,6,0,30,5,0,1,-3,24
1523054813508233,-19,-11,-2,3,6,0,-2,0
1523054813509738,-22,-9,-30,-13,-6,14,51,-28
1523054813509738,13,-15,9,2,2,2,-2,20
1523054813530794,3,8,-19,5,1,-1,-4,1
1523054813530794,-13,-10,-22,-7,0,1,5,-4
1523054813532297,6,0,2,1,-3,-6,-21,-26
1523054813532297,-7,8,13,2,0,-1,-3,-19
1523054813545332,1,-3,-71,-10,2,2,7,-8
1523054813545332,4,5,87,12,-2,-4,-10,12
1523054813551851,1,-6,-26,-7,-5,-4,-14,-56
1523054813551851,-4,4,35,1,4,-1,1,-4
1523054813568393,6,2,0,2,-4,-10,-12,-8
1523054813568393,10,0,-70,-3,0,0,8,3
1523054813569953,-12,26,29,3,7,1,-1,52
1523054813569953,12,-31,58,3,-10,-3,2,-8
1523054813590485,-9,-6,-99,-16,-5,-3,7,1
1523054813590485,-11,8,71,12,-7,-3,-6,-19
1523054813592460,-3,-8,87,8,-4,-5,-5,9
1523054813592460,-13,-23,-21,-5,4,3,-1,22
1523054813604992,18,6,3,-3,-5,-2,0,-5
1523054813604992,8,-7,-117,-15,2,1,3,5
1523054813612011,6,-9,-74,-9,-5,-7,-11,11
1523054813612011,-11,13,127,32,-7,-5,0,-7
1523054813628053,34,-21,-70,4,8,3,-3,-7
1523054813628053,1,15,-48,1,7,7,8,51
1523054813629556,-1,-20,-43,-2,-1,-2,-10,-29
1523054813629556,3,14,-1,-10,0,0,0,-8
1523054813650613,-16,1,73,5,-4,-3,-1,-6
1523054813650613,5,2,5,-5,1,0,-3,-11
1523054813652116,2,4,-5,-2,0,0,1,12
1523054813652116,-4,11,-11,-3,-3,0,0,22
1523054813665150,6,-4,34,6,-1,1,-6,-7
1523054813665150,-3,-7,-9,-9,-4,-2,-1,-2
1523054813671668,-8,0,0,-8,1,3,-10,-4
1523054813671668,-5,0,49,-2,-10,-11,-6,-18
1523054813688213,-6,0,-6,0,5,4,-3,25
1523054813688213,3,6,-19,-6,-1,2,0,-24
1523054813689717,0,4,8,-3,-7,-3,6,63
1523054813689717,39,-23,-63,-8,-1,-2,1,-17
1523054813710826,-24,-3,-91,-4,6,0,0,2
1523054813710826,-11,9,26,2,-8,-7,-14,-38
1523054813712278,-3,10,38,0,-3,-3,3,2
1523054813712278,3,-5,-28,-3,1,5,5,16
1523054813725311,-3,1,-19,-2,0,0,-6,-53
1523054813725311,-7,-15,-45,-6,-2,-1,12,-31
1523054813731828,-7,33,21,13,10,0,-16,-6
1523054813731828,-12,-23,-32,-13,-7,-9,-19,-35
1523054813755892,-19,29,46,13,5,10,-12,-49
1523054813755892,-13,-13,10,4,3,-7,24,36
1523054813757451,18,-33,-13,-18,-15,6,38,-48
1523054813757451,-10,6,-2,4,6,6,-22,-38
1523054813770934,-18,8,13,-1,-2,-15,-9,32
1523054813770934,5,-10,13,2,5,15,-1,-41
1523054813772437,-18,-19,-32,-6,-9,-8,4,54
1523054813772437,-7,22,-8,6,1,-1,11,48
1523054813784969,23,-1,14,-9,-9,-9,-25,-19
1523054813784969,9,6,5,2,8,5,-25,-2
1523054813791988,1,-2,-11,-7,-7,-15,-23,9
1523054813791988,-26,40,13,5,3,13,24,2
1523054813808031,7,-2,17,-1,-5,-5,2,3
1523054813808031,0,-2,-1,-2,-2,0,12,33
1523054813810038,-20,-6,-6,7,7,8,7,-15
1523054813810038,-3,-15,-1,-1,-1,-9,-2,-9
1523054813830645,-14,0,2,-5,-6,-2,8,-3
1523054813830645,4,-4,-14,-1,0,-1,-7,4
1523054813832096,17,-3,0,6,11,7,3,9
1523054813832096,-3,19,-3,0,-1,-3,-10,-1
1523054813844185,3,-26,10,0,2,5,20,18
1523054813844185,7,1,5,-7,-8,-8,-11,5
1523054813853152,-4,6,2,5,-1,-10,-15,-23
1523054813853152,12,-18,-33,-5,7,11,29,24
1523054813868246,-8,6,-49,-11,-16,-17,-24,-12
1523054813868246,4,19,93,34,13,3,5,-1
1523054813869695,-13,-10,16,-19,-11,-9,-16,-41
1523054813869695,0,-25,-47,-15,-5,-4,-3,-5
1523054813890804,8,-2,17,8,18,20,20,14
1523054813890804,-10,-21,-96,-11,-5,-5,-6,30
1523054813892255,8,8,70,-2,-4,0,-7,-25
1523054813892255,1,0,-52,-2,-5,-3,-9,-18
1523054813904287,3,-5,-46,-6,-11,-2,2,0
1523054813904287,3,-9,-8,5,8,-2,-2,2
1523054813913312,-2,-1,-73,-11,-6,3,1,4
1523054813913312,5,-1,73,-1,-9,-10,-14,-31
1523054813928381,-2,1,-14,1,5,4,-3,5
1523054813928381,-15,28,-37,-3,-5,-5,2,-12
1523054813929913,2,0,34,8,2,-1,7,2
1523054813929913,-2,11,38,7,4,5,-5,1
1523054813950911,-1,3,9,6,2,-3,3,9
1523054813950911,8,-3,-29,-13,-5,-5,0,-4
1523054813952415,1,-3,62,20,12,9,4,18
1523054813952415,4,9,7,-1,-1,-5,-1,10
1523054813964449,-6,-2,9,-6,-2,-2,4,-3
1523054813964449,16,-18,-37,-11,-10,-5,-2,9
1523054813973473,1,16,-75,-7,-4,-1,3,2
1523054813973473,5,0,24,9,8,1,-7,18
1523054813988012,1,-12,39,3,-1,3,3,-8
1523054813988012,-1,-3,25,-2,-2,1,-4,-9
1523054813990030,-30,-13,-53,-4,-2,-6,-12,-43
1523054813990030,-12,-5,41,0,-8,-4,-2,6
1523054814010570,6,0,-14,-7,-2,-3,0,7
1523054814010570,1,18,17,2,-1,0,-8,0
1523054814012576,2,-15,-4,-2,3,5,4,24
1523054814012576,-3,-10,-82,-10,0,-4,2,6
1523054814024159,-11,12,104,11,0,2,-3,-15
1523054814024159,1,-1,-11,0,3,1,0,4
1523054814033130,9,-10,-59,-1,0,-3,-1,8
1523054814033130,2,6,-61,-7,-4,-1,-4,-4
1523054814048170,-1,1,67,-1,-5,-4,-1,9
1523054814048170,-7,2,26,9,0,2,1,-2
1523054814049675,7,3,19,-5,-2,-1,-2,10
1523054814049675,-3,-4,-15,-7,-7,-3,1,-2
1523054814070730,-3,-14,-55,7,7,2,1,-2
1523054814070730,3,25,27,-2,2,1,-3,-1
1523054814072235,-20,-1,13,3,-3,-3,1,13
1523054814072235,8,7,-8,3,-1,0,0,3
1523054814084267,5,10,-32,-12,-5,-4,2,-1
1523054814084267,-7,-19,5,-3,-6,-4,-5,-17
1523054814093292,5,7,-17,9,8,1,1,20
1523054814093292,-24,0,31,-2,-7,-6,-12,-93
1523054814108329,8,12,-1,1,0,0,-1,16
1523054814108329,0,-34,-26,-6,-1,0,1,1
1523054814109835,2,6,-24,-7,-7,-4,-3,-1
1523054814109835,-4,-5,54,10,5,3,-3,13
