timestamp,emg1,emg2,emg3,emg4,emg5,emg6,emg7,emg8
1523178495110523,-32,-3,-1,-5,-2,-1,1,-2
1523178495110523,-8,0,-1,3,1,6,8,-2
1523178495111485,-4,3,2,0,0,5,9,0
1523178495111485,3,0,-2,-1,-3,-4,4,-9
1523178495112484,-32,-1,-1,-1,3,-1,-21,-20
1523178495112484,-20,-3,-4,-2,-2,0,7,4
1523178495116671,22,-3,-5,-2,-3,-10,9,7
1523178495116671,-25,3,1,0,1,5,-13,2
1523178495116671,-8,4,2,3,0,3,14,-8
1523178495116671,106,0,-2,-6,-2,-6,-1,33
1523178495121745,-46,-6,-6,-4,-2,-1,0,-13
1523178495121745,48,4,3,1,0,-1,0,19
1523178495130535,-8,-4,-4,-3,-2,-3,3,-34
1523178495130535,-15,4,0,3,0,3,-5,-11
1523178495138552,-4,-2,-1,1,0,-2,-11,3
1523178495138552,19,-6,-5,-5,-3,-5,0,1
1523178495152593,-69,2,3,6,0,1,-7,19
1523178495152593,-27,-8,-7,-13,-5,-8,-2,-5
1523178495168633,-4,-1,0,0,1,8,12,-8
1523178495168633,-22,-2,0,1,0,-3,-5,-13
1523178495170635,58,2,1,1,2,-5,6,34
1523178495170635,-20,-1,-2,-1,-3,-2,8,6
1523178495189693,-73,0,0,2,0,3,-11,-48
1523178495189693,6,-4,2,-2,1,-2,-10,-4
1523178495228794,2,-7,1,-3,0,2,7,15
1523178495228794,-5,0,1,0,-1,-3,-13,-21
1523178495229791,20,-4,-5,-1,-1,0,6,14
1523178495229791,-17,-1,-2,-3,-1,-2,4,0
1523178495229791,10,1,-3,1,1,0,-7,5
1523178495229791,1,1,-2,-3,-1,0,2,0
1523178495230795,-5,-8,0,-2,0,-2,-1,14
1523178495230795,-53,0,1,0,-2,-5,-17,-33
1523178495242082,34,4,-2,1,-4,-3,-7,11
1523178495242082,-38,1,4,-2,3,9,1,63
1523178495249856,19,5,0,-4,-1,0,-5,-36
1523178495249856,59,0,-3,3,-3,-3,-10,18
1523178495257971,-104,-7,-3,-4,-1,-4,-15,-24
1523178495257971,64,6,0,6,1,6,-4,23
1523178495272130,9,-2,1,-5,-3,0,23,8
1523178495272130,-1,0,0,-3,-1,-4,-1,-15
1523178495280930,16,0,3,-1,0,1,9,-4
1523178495280930,-3,-5,-4,-1,-3,-6,5,-7
1523178495293970,-39,0,-4,2,2,-2,-22,-10
1523178495293970,67,8,0,2,-2,4,22,15
1523178495302991,42,0,0,-1,-1,0,-6,-3
1523178495302991,-13,-5,-5,-4,-1,-1,16,-38
1523178495318239,35,-3,-2,-2,-4,-8,-18,-9
1523178495318239,-4,-3,-1,0,0,0,4,-2
1523178495320031,20,3,0,-1,-2,-1,-2,13
1523178495320031,-19,-8,1,2,1,-2,10,-13
1523178495341219,77,1,-3,2,1,1,-16,7
1523178495341219,21,-3,-2,-6,-1,-2,6,-9
1523178495342093,11,-5,-1,3,0,1,-4,12
1523178495342093,-6,-8,-1,0,-2,-5,-13,1
1523178495354346,9,7,1,1,-1,4,22,-19
1523178495354346,-31,-4,0,-2,-1,0,-21,-2
1523178495363171,-7,0,-1,-1,0,-2,4,5
1523178495363171,-3,0,-2,-3,-1,-1,8,-4
1523178495378190,-15,-6,2,0,-2,-3,-27,9
1523178495378190,-65,-3,-5,0,0,3,1,0
1523178495379188,40,-8,-3,-2,-5,-5,3,19
1523178495379188,-39,1,2,-1,-3,-3,-22,-54
1523178495400529,-18,-2,0,-1,1,-2,8,1
1523178495400529,27,-3,-3,1,1,1,-7,-3
1523178495402250,0,4,0,0,-1,1,12,21
1523178495402250,55,3,0,-3,-2,-6,-19,18
1523178495414288,-2,2,1,2,1,1,21,-1
1523178495414288,-16,-2,-4,0,1,1,-2,-3
1523178495423337,-11,2,2,0,2,0,-6,-9
1523178495423337,19,6,-3,-3,-1,1,16,4
1523178495438582,-49,-3,0,-5,0,4,-4,-1
1523178495438582,53,7,4,4,0,4,15,26
1523178495439354,-17,1,-4,-2,-3,-2,-3,-32
1523178495439354,3,1,0,2,-2,-8,-13,40
1523178495460432,-29,-13,-1,2,1,14,18,19
1523178495460432,-10,2,4,-1,-2,-5,-3,0
1523178495462410,11,-1,-9,-4,-2,-3,-4,-17
1523178495462410,-12,-3,2,0,-2,-5,13,-15
1523178495483468,4,4,1,-2,0,-2,-13,22
1523178495483468,32,-5,0,3,1,-1,-28,-43
1523178495484470,-13,-1,3,-3,-1,0,9,-5
1523178495484470,36,-1,-6,-7,-5,-1,-4,9
1523178495498507,8,-2,-1,4,2,-3,9,51
1523178495498507,-35,-4,-6,-9,-8,-14,-19,3
1523178495499509,33,3,2,5,2,10,23,-3
1523178495499509,-27,-7,-6,-6,2,4,-23,-17
1523178495520765,24,3,-2,-2,-2,-9,-7,-1
1523178495520765,-29,-3,0,1,1,8,25,6
1523178495522569,-10,-7,-2,1,-4,-6,9,-32
1523178495522569,-55,-2,-1,0,-2,1,-8,1
1523178495543631,-9,1,-1,-1,-1,0,0,-5
1523178495543631,15,3,3,0,-1,-6,11,3
1523178495545631,-29,-12,-2,-3,-4,-1,-18,14
1523178495545631,-7,1,3,0,2,4,14,-13
1523178495557674,78,2,-2,-4,-5,-2,-8,-11
1523178495557674,-7,-5,-5,-2,-1,-3,5,-4
1523178495559669,24,2,0,0,3,-5,-7,-12
1523178495559669,13,2,2,1,-3,-3,10,57
1523178495581020,-12,1,1,-4,-4,-1,-13,-3
1523178495581020,0,3,1,5,2,-3,-10,-1
1523178495581729,-16,0,-2,-1,-1,7,5,-5
1523178495581729,27,4,-1,0,-1,-1,-7,3
1523178495603017,-59,-10,-3,-7,-1,-1,0,-41
1523178495603017,19,-5,4,2,0,6,-15,13
1523178495604795,64,10,3,0,-2,-7,-14,14
1523178495604795,-16,3,2,3,1,4,-2,-27
1523178495617155,6,-6,-2,-4,-3,-7,-1,21
1523178495617155,-12,0,-3,-4,-1,-3,-1,-8
1523178495625848,-5,1,-2,-6,0,-2,3,5
1523178495625848,33,3,-2,2,1,-2,0,-22
1523178495641236,-92,-5,-2,1,-4,-4,-5,-13
1523178495641236,31,0,-1,-1,-1,1,1,8
1523178495641889,-46,4,4,1,1,0,5,-18
1523178495641889,2,-4,-2,-1,-3,-3,1,-1
1523178495663169,-8,0,-3,-2,2,2,2,-8
1523178495663169,-12,-3,-1,-5,-3,-1,7,9
1523178495664956,-5,5,3,1,1,-6,-27,7
1523178495664956,-45,-6,-1,-2,2,7,-9,-10
1523178495676986,43,5,-7,1,-2,-2,-9,-38
1523178495676986,6,-11,-1,-1,-4,-1,14,-10
1523178495692286,33,5,-1,-2,-1,-4,-10,26
1523178495692286,12,-1,1,-2,-1,-2,15,33
1523178495700042,13,5,-1,-2,-1,0,-9,7
1523178495700042,60,-1,-3,-1,0,-5,-9,25
1523178495702047,-20,-5,-2,0,-1,0,-6,-34
1523178495702047,86,0,-3,-3,-5,-5,-11,8
1523178495723110,27,-2,2,4,1,4,27,-2
1523178495723110,-2,-7,-4,-4,-2,-5,-6,1
1523178495725108,-7,-3,2,2,1,1,9,16
1523178495725108,14,-1,2,3,-4,-3,3,14
1523178495737410,-3,2,-3,-2,0,-3,3,-19
1523178495737410,-18,0,1,0,0,1,2,16
1523178495752183,-37,-7,-5,-1,-1,-1,-7,-4
1523178495752183,27,9,-1,-2,-1,0,-8,32
1523178495760203,37,2,0,-1,-3,-5,-3,-8
1523178495760203,-26,3,3,2,1,2,5,2
1523178495762214,-20,-8,-5,-5,-2,-2,-1,-11
1523178495762214,-11,-2,-3,3,2,-2,1,-15
1523178495783298,-24,1,2,1,-3,-7,-1,31
1523178495783298,28,-1,1,-1,3,14,-1,-14
1523178495784265,-41,-7,-1,-5,-5,-2,1,-19
1523178495784265,17,-5,-3,-3,-4,-4,5,0
1523178495797307,19,1,1,4,3,2,8,11
1523178495797307,-13,2,-3,-1,-4,-5,-3,-12
1523178495804457,25,3,-3,0,-1,1,-11,4
1523178495804457,-35,0,-1,1,4,3,33,-21
1523178495820604,4,-5,-1,-4,-5,-2,-32,3
1523178495820604,31,0,-1,-4,-5,-14,-16,17
1523178495822373,48,2,2,1,1,9,19,21
1523178495822373,-17,-2,-1,-3,-1,-6,-15,-22
1523178495843423,-4,2,-4,1,-1,2,16,6
1523178495843423,7,-4,-3,-4,-3,-4,-5,28
1523178495844424,-6,1,3,-1,-1,-4,-2,-10
1523178495844424,-23,-5,0,-3,-2,-6,-8,-8
1523178495857712,-22,3,2,1,-1,2,-8,-21
1523178495857712,49,3,-2,0,0,4,9,-9
1523178495864717,9,-3,-4,-3,-1,-2,1,12
1523178495864717,16,0,0,-2,-1,-2,4,-12
1523178495880761,-33,-4,-1,0,2,0,-2,-5
1523178495880761,36,-2,-9,-4,-5,-2,-20,-1
1523178495882530,-20,3,-1,-1,-2,-1,17,-27
1523178495882530,-28,0,-1,2,1,2,-3,6
1523178495903686,64,8,-8,-4,-3,-8,-8,-5
1523178495903686,-63,-12,10,2,0,-2,-5,-22
1523178495904588,-61,-4,-5,-5,-4,-2,-5,7
1523178495904588,1,-3,-2,-1,-2,0,-6,-19
1523178495916668,-29,1,5,0,2,3,1,-37
1523178495916668,-40,2,0,1,0,-2,-8,15
1523178495925640,104,-3,-4,-6,-3,-2,7,-28
1523178495925640,-73,-9,-1,1,2,3,16,-3
1523178495940684,16,-3,5,4,1,3,1,24
1523178495940684,-4,-4,-9,-12,-4,-9,13,5
1523178495941728,25,2,2,2,2,-1,-30,12
1523178495941728,42,-3,0,-2,-3,1,1,-2
1523178495970760,-17,-7,-9,-6,-3,0,8,13
1523178495970760,-14,6,2,0,1,2,7,-5
1523178495971762,-26,-5,-1,2,-1,-2,1,-4
1523178495971762,7,1,-1,1,0,2,-3,2
1523178495976784,-27,-6,-3,-6,-2,-4,-24,7
1523178495976784,11,-1,-4,-1,-2,-5,1,-14
1523178495985799,-7,-4,1,1,3,2,2,17
1523178495985799,-19,4,-2,-1,0,1,-3,-11
1523178496000839,44,-5,-2,-3,-4,-7,-1,-19
1523178496000839,-41,6,0,1,2,8,9,-18
1523178496001842,34,-1,0,-1,-2,-4,-16,19
1523178496001842,39,0,-4,-2,-1,5,2,6
1523178496022936,4,3,4,3,-1,3,9,6
1523178496022936,-23,-4,-2,5,2,-3,-20,-30
1523178496024944,-2,-5,0,-4,-6,-3,15,15
1523178496024944,6,1,1,0,2,3,0,20
1523178496036968,-16,2,0,0,0,-3,-2,-9
1523178496036968,21,-2,2,-3,-2,-4,-32,-2
1523178496045959,-37,0,0,3,1,0,28,-11
1523178496045959,0,-4,-2,-4,-1,-4,-6,-22
1523178496061002,-30,3,2,-3,0,-1,6,7
1523178496061002,-37,-1,2,3,2,3,6,30
1523178496062003,-4,-1,-7,-4,-4,-7,-9,-21
1523178496062003,-44,-10,0,0,-5,-5,-10,-4
1523178496083135,-3,-1,-1,2,1,-1,1,-5
1523178496083135,11,-3,-2,-4,-1,5,14,8
1523178496085064,-15,3,1,0,1,-4,-19,-3
1523178496085064,51,5,1,1,0,8,4,-10
1523178496097097,-44,-10,-5,-1,-2,-3,13,-20
1523178496097097,32,3,-4,-3,-3,-3,17,8
1523178496106122,25,-1,1,2,3,4,-12,30
1523178496106122,6,0,-1,-3,-3,-3,-3,-27
1523178496121161,9,0,2,-1,0,-4,-8,5
1523178496121161,21,3,1,-1,-4,2,19,22
1523178496122168,-19,2,0,1,1,2,6,-20
1523178496122168,6,0,1,-1,1,-2,2,27
1523178496143226,-13,-1,-2,3,0,0,-3,6
1523178496143226,-3,-7,-3,-7,-4,-4,-4,-12
1523178496144221,28,4,0,1,2,2,11,-13
1523178496144221,6,-2,-2,-3,-3,-4,-12,48
1523178496157397,37,-1,-2,0,-1,4,33,-27
1523178496157397,-10,7,1,2,1,1,-14,8
1523178496165571,-1,-2,3,0,-2,-1,5,8
1523178496165571,76,7,1,-6,-3,-4,-2,-20
1523178496180643,39,-3,-4,0,-1,0,-1,29
1523178496180643,21,2,-1,-2,0,1,6,-10
1523178496182325,9,-1,-1,-3,-3,-6,-19,-25
1523178496182325,-37,-3,-3,-1,-2,-1,6,-8
1523178496202624,0,-9,-3,-5,-2,-2,-6,12
1523178496202624,-12,-7,1,4,1,1,7,-14
1523178496209397,-15,2,2,-3,-1,-5,-2,3
1523178496209397,-22,-8,-6,-4,-2,0,-4,-24
1523178496225438,-20,1,0,-2,0,2,-8,-21
1523178496225438,38,5,0,0,0,-2,-13,68
1523178496227447,27,1,-4,2,1,1,10,-11
1523178496227447,-23,-1,1,1,-1,2,-5,17
1523178496248660,27,5,0,1,-1,10,7,10
1523178496248660,42,7,7,2,0,-4,8,2
1523178496249512,2,3,-2,-1,-1,2,-13,-1
1523178496249512,10,2,-1,3,3,6,3,-1
1523178496262792,32,3,-2,-3,-5,-11,-26,-26
1523178496262792,5,1,-3,-2,-2,2,35,-14
1523178496269840,18,-7,-1,0,-2,2,-2,9
1523178496269840,-29,-2,-6,-3,-1,-4,-3,-14
1523178496285603,12,-5,0,4,2,1,-6,18
1523178496285603,-21,-2,-5,-4,-3,-2,13,1
1523178496287603,-27,-6,-3,-5,-5,-1,-15,-73
1523178496287603,-1,6,2,0,-2,-2,0,21
1523178496308659,-3,0,-2,-4,-4,-11,-27,2
1523178496308659,-5,-2,-6,-1,-1,-1,12,-10
1523178496309663,-16,-3,-1,3,3,4,8,0
1523178496309663,34,-3,-3,-1,0,-2,-6,4
1523178496322696,5,2,-2,2,-1,-6,11,-3
1523178496322696,33,-1,2,1,-1,2,-21,-63
1523178496329715,-47,1,4,2,-1,-7,-20,5
1523178496329715,61,-2,-1,2,-1,6,36,16
1523178496345761,-32,-1,1,-1,1,2,8,-33
1523178496345761,8,-4,-2,-2,0,1,2,-3
1523178496346761,17,-9,1,-4,-5,1,-8,26
1523178496346761,-29,4,1,-2,-1,-4,-2,-10
1523178496367999,13,-1,0,-4,-4,-4,4,37
1523178496367999,-58,6,5,6,4,1,-17,-28
1523178496369825,30,5,-7,-3,-2,1,15,17
1523178496369825,-40,-4,-5,4,2,2,1,-7
1523178496382889,9,-6,7,0,-1,2,6,10
1523178496382889,-78,-9,-10,-9,-4,-6,-18,-31
1523178496388876,2,-1,-1,-1,-1,-7,13,16
1523178496388876,37,3,0,-1,1,2,-14,-47
1523178496406195,-10,-2,-1,2,1,5,-6,5
1523178496406195,22,0,-2,-3,-1,-1,-1,14
1523178496406924,14,0,1,-3,-1,-3,-3,7
1523178496406924,82,1,-2,-4,-2,-3,-4,24
1523178496427982,-54,-1,1,2,3,1,-36,-27
1523178496427982,45,1,0,-1,-5,1,24,12
1523178496429981,30,3,-4,-2,-2,-2,-14,-31
1523178496429981,-16,-10,0,2,0,-8,-8,3
1523178496442013,-7,-2,-4,-5,-3,-1,12,4
1523178496442013,-5,0,-2,-1,1,-2,-10,6
1523178496451036,-28,3,0,2,0,0,-11,8
1523178496451036,-13,-2,0,-7,-5,-4,3,-2
1523178496465123,10,-5,-4,-2,-1,2,12,-35
1523178496465123,13,-10,-5,-5,-3,-4,-17,2
1523178496467084,-27,-4,-4,0,0,3,23,-3
1523178496467084,-19,-1,1,3,-1,-6,-17,-13
1523178496488137,14,3,-2,-1,-2,-2,-3,19
1523178496488137,-8,-5,-2,-1,1,-2,-5,25
1523178496489138,80,3,-1,0,2,6,5,37
1523178496489138,4,2,-4,-4,-4,-1,-19,-25
1523178496501170,35,4,-4,-3,-2,2,0,1
1523178496501170,-20,-3,3,0,1,3,-2,20
1523178496510193,-5,4,0,-5,-4,-8,-6,-23
1523178496510193,-31,-6,0,3,2,0,-3,12
1523178496525235,31,0,-1,-1,-2,0,3,53
1523178496525235,4,3,0,7,3,1,-7,-20
1523178496527239,-22,-4,-2,-4,-3,1,5,40
1523178496527239,42,5,2,0,-1,-2,8,-12
1523178496547500,-81,-2,-1,-3,-3,-5,2,8
1523178496547500,8,-7,-3,0,-4,-4,-17,-14
1523178496555423,8,3,1,3,1,-2,1,12
1523178496555423,54,5,1,0,0,7,52,-8
1523178496561330,-76,-19,-7,-5,-3,-3,-17,-6
1523178496561330,28,-1,1,0,1,0,-5,-13
1523178496570352,-14,-10,-3,-1,-4,-6,-9,-20
1523178496570352,-19,-3,-3,-4,-1,3,9,39
1523178496586515,30,2,-3,3,2,0,0,-38
1523178496586515,-2,5,-1,-8,-5,-1,6,-1
1523178496587399,-37,-5,-1,0,-1,1,-3,-12
1523178496587399,-27,2,-2,-2,-3,-4,-15,-3
1523178496608453,22,5,5,2,0,0,-2,4
1523178496608453,-18,3,-5,-5,-4,-2,-3,-28
1523178496609456,17,4,-1,1,-1,2,4,-20
1523178496609456,-67,-3,-1,-3,-1,-8,-38,1
1523178496621664,-1,4,1,2,1,6,13,-1
1523178496621664,3,-1,0,2,2,1,13,12
1523178496630514,16,4,2,-3,-2,1,16,8
1523178496630514,-6,-1,2,3,1,-3,-17,-30
1523178496645556,81,3,-4,-3,0,-4,-9,12
1523178496645556,-77,-21,-2,0,1,2,6,31
1523178496647561,50,5,-2,2,3,4,3,12
1523178496647561,-12,-3,-2,-7,-7,-4,-16,-13
1523178496667613,60,3,3,3,1,-6,-10,-1
1523178496667613,6,2,-3,-3,-4,4,14,9
1523178496669618,-23,-10,-4,-4,0,-6,-9,36
1523178496669618,-19,-9,-1,0,0,-6,-1,16
1523178496681651,-16,2,-4,-5,-1,2,8,-14
1523178496681651,-35,-7,-1,-1,-2,-6,-16,7
1523178496690674,2,3,-6,-2,-1,0,5,-28
1523178496690674,45,-9,1,4,-1,2,20,14
1523178496705765,-12,-6,-2,-2,0,0,-1,7
1523178496705765,47,10,7,3,1,-4,-17,-39
1523178496706715,-11,-3,-2,-3,0,-2,-13,-4
1523178496706715,-4,1,0,-3,-1,-2,-12,-15
1523178496727816,6,7,2,4,1,-3,13,17
1523178496727816,-24,-16,-8,-5,-4,3,-44,-43
1523178496729779,9,-3,5,2,0,-4,-3,-15
1523178496729779,42,9,1,1,2,6,13,5
1523178496741809,-28,2,0,-2,-5,-1,10,9
1523178496741809,9,-4,0,0,0,-1,1,7
1523178496750833,-2,-6,-6,-8,-4,-8,-14,6
1523178496750833,-24,-5,-2,0,0,0,0,11
1523178496765872,24,-2,-4,-3,0,6,6,-20
1523178496765872,26,10,6,7,4,-2,20,-7
1523178496766876,-2,-5,1,-2,-2,2,-10,-3
1523178496766876,7,3,-4,-5,-4,-8,4,7
1523178496787983,-14,-3,-5,0,0,-1,-9,-14
1523178496787983,52,1,1,-1,-3,-4,7,7
1523178496789937,-82,-6,1,2,3,4,-2,-7
1523178496789937,2,-3,-4,-1,-2,-1,5,18
1523178496802187,42,-1,0,-4,-5,-3,5,5
1523178496802187,84,12,-2,-4,-3,-4,2,-9
1523178496810271,-16,-3,-3,1,0,-6,-15,-31
1523178496810271,-27,-21,-8,-2,-3,5,8,7
1523178496825304,-25,3,-1,-5,-4,-7,-11,-13
1523178496825304,4,4,0,-1,1,1,-4,32
1523178496827309,10,-3,0,1,0,-1,23,9
1523178496827309,24,6,-1,0,5,1,-3,-12
1523178496848550,-42,-11,0,-1,1,-3,-10,-17
1523178496848550,13,-2,-7,-6,-7,-6,-5,1
1523178496849365,8,2,1,3,2,8,0,12
1523178496849365,-13,0,-2,1,0,-8,-7,-1
1523178496861401,14,2,3,3,-1,1,4,-5
1523178496861401,-6,-5,-4,-2,-3,-2,0,-20
1523178496870458,27,3,3,0,-1,-3,-21,-15
1523178496870458,75,-1,-2,-3,-3,-4,-7,0
1523178496885670,-3,-2,-2,-1,-1,0,4,-1
1523178496885670,-13,5,1,-1,2,3,9,-9
1523178496887468,18,2,-1,-4,-6,-5,11,29
1523178496887468,-11,7,0,4,2,4,-5,-16
1523178496907736,42,1,5,-2,-3,-2,1,27
1523178496907736,-37,1,1,1,1,-3,-7,-2
1523178496909527,27,5,3,2,3,2,0,9
1523178496909527,10,4,4,-1,0,0,2,-15
1523178496930619,7,2,0,-1,-1,6,8,12
1523178496930619,-10,3,0,2,-1,0,-21,11
1523178496932660,-2,-3,-2,-1,-2,-2,8,-23
1523178496932660,34,3,0,-3,-2,1,3,-11
1523178496945622,45,-7,0,2,3,-4,-6,18
1523178496945622,-83,-9,-2,-1,1,0,5,19
1523178496947627,19,1,-1,1,2,4,6,10
1523178496947627,-1,-3,-2,0,-2,-1,7,-3
1523178496967891,-20,3,-2,0,-1,-5,-9,-12
1523178496967891,47,5,3,-1,-1,0,7,16
1523178496969687,17,-4,-7,-8,-7,-3,1,40
1523178496969687,-65,-8,7,1,-1,-2,4,-6
1523178496990970,-37,-4,-2,-2,1,2,5,-17
1523178496990970,4,-6,-2,-2,-1,-5,-8,5
1523178496991745,-34,3,2,2,2,-1,7,-37
1523178496991745,13,-13,-13,-14,-6,-6,-21,2
1523178497005812,-3,5,1,2,-1,9,13,18
1523178497005812,2,-6,0,-1,2,1,-1,-34
1523178497007717,1,0,-5,3,-2,-5,-15,5
1523178497007717,49,11,4,4,2,3,2,23
1523178497027654,-74,-6,0,-3,0,-8,-10,-23
1523178497027654,21,2,-3,1,0,2,7,5
1523178497029649,-70,-5,5,2,2,2,15,0
1523178497029649,26,-1,-5,-4,-3,-2,-2,8
1523178497050728,61,-3,0,-4,-5,-5,-9,2
1523178497050728,-8,-3,0,1,-3,-2,9,12
1523178497052733,5,-8,-2,-2,1,1,1,2
1523178497052733,-26,3,2,5,1,-3,-5,-18
1523178497064743,1,0,2,0,-1,5,22,12
1523178497064743,0,-1,-4,-2,1,0,-20,4
1523178497071970,16,1,3,1,1,5,22,-17
1523178497071970,-39,-5,-5,-1,-2,-4,-29,-15
1523178497088014,-22,-4,-5,0,-1,1,-3,11
1523178497088014,28,9,5,4,2,-1,-3,-22
1523178497089807,39,1,-3,-6,-6,-6,-7,16
1523178497089807,-10,1,1,-1,-2,-1,16,22
1523178497111093,-53,-8,-1,1,3,1,3,-11
1523178497111093,93,2,-5,-4,-3,-4,-2,5
1523178497111866,-33,-10,-10,-3,-2,-6,-18,-15
1523178497111866,8,2,0,2,1,0,18,6
1523178497124900,18,0,-4,0,-2,-8,-16,-19
1523178497124900,-14,-2,1,0,0,3,19,-3
1523178497139168,22,-1,-3,-2,-2,-6,-1,-3
1523178497139168,-18,13,-13,-7,-3,4,15,-10
1523178497148190,0,8,3,1,-2,-3,-4,-28
1523178497148190,-25,-1,0,0,0,2,2,14
1523178497149967,4,2,-1,-3,-4,-4,-6,-13
1523178497149967,-41,-4,5,3,1,-2,-10,-18
1523178497171069,78,5,1,2,1,2,2,-2
1523178497171069,-61,-5,-4,-5,-4,1,4,0
1523178497172026,11,11,6,2,3,5,-6,9
1523178497172026,3,-8,1,-5,-5,-4,-2,-13
1523178497185207,7,-10,1,1,1,-3,-6,9
1523178497185207,7,-1,2,1,1,-2,6,8
1523178497192082,109,-6,-2,-5,-5,0,-10,11
1523178497192082,-41,-4,0,-2,2,1,18,3
1523178497208122,24,5,-2,-1,-1,5,11,18
1523178497208122,-33,-13,-6,1,0,-7,-29,-25
1523178497210131,-10,-3,3,2,-2,-4,-2,-12
1523178497210131,13,4,-2,0,-2,-3,-4,-3
1523178497230273,-13,0,-3,-1,-1,1,1,40
1523178497230273,43,10,2,-2,0,4,17,-38
1523178497232188,-36,-2,-2,-3,-2,-4,-13,-3
1523178497232188,23,-5,1,2,1,-1,-7,3
1523178497245312,-21,2,1,-1,1,-2,1,-12
1523178497245312,-9,-3,-7,-2,-4,-4,6,0
1523178497251329,-45,-3,1,0,-1,0,-11,-6
1523178497251329,9,0,1,-1,1,0,-1,1
1523178497268283,16,-3,-9,1,-1,-5,-18,3
1523178497268283,-15,-24,9,2,1,4,11,7
1523178497269284,17,4,-4,-3,-3,6,30,-17
1523178497269284,4,-5,0,4,5,2,-31,16
1523178497290435,31,-4,-4,-6,-6,-8,-8,-21
1523178497290435,-104,-6,-7,-4,-2,-3,-16,8
1523178497292348,24,-1,0,0,0,-3,-2,-2
1523178497292348,89,-3,2,1,1,7,20,42
1523178497304472,-56,-2,-5,-8,-5,-3,-12,-54
1523178497304472,11,6,2,4,-1,-2,0,10
1523178497311489,30,10,-1,-2,1,0,-4,40
1523178497311489,-48,-2,-4,0,-2,0,19,2
1523178497328470,-8,-1,-1,2,1,1,-9,18
1523178497328470,11,4,-2,-4,-1,-3,-6,8
1523178497329447,-29,-4,-6,2,1,5,8,-31
1523178497329447,7,-9,4,-5,-6,-8,-14,-12
1523178497350596,11,1,-1,1,0,-1,1,31
1523178497350596,12,-3,1,2,2,1,-1,-19
1523178497352507,-6,-6,-2,-1,-1,-2,-5,-6
1523178497352507,-46,0,-1,-1,-1,-2,4,-19
1523178497364628,71,2,0,-1,-2,2,7,3
1523178497364628,76,9,-4,-4,-4,-4,-5,20
1523178497371649,21,-25,9,3,4,-2,-6,9
1523178497371649,60,6,-6,-4,-2,-6,-3,-20
1523178497387691,-21,-3,3,-1,1,10,0,45
1523178497387691,-4,1,-1,6,-1,-1,10,13
1523178497389605,-30,-4,-10,-11,-6,-4,-2,6
1523178497389605,-53,-1,-1,1,-1,1,-11,0
1523178497409662,15,1,-1,-3,-1,-6,3,-28
1523178497409662,3,-3,-3,-2,-2,-6,11,22
1523178497417771,-18,6,0,0,-2,0,-21,-1
1523178497417771,-52,-8,0,-2,-3,-9,5,-8
1523178497423790,52,5,4,0,0,6,-15,11
1523178497423790,-38,-4,-3,1,1,1,6,-20
1523178497433721,79,7,2,0,0,-9,-22,-2
1523178497433721,49,5,3,-1,-1,8,21,-3
1523178497447851,7,-5,-1,-3,-3,-9,-4,-15
1523178497447851,20,6,1,2,0,3,-19,25
1523178497449766,-5,3,-5,1,2,6,12,-6
1523178497449766,16,-2,-4,1,0,-4,-22,23
1523178497470910,-34,-7,-2,-4,-5,-6,7,-49
1523178497470910,4,0,-2,-4,1,6,19,-5
1523178497471823,35,9,-3,-3,-4,-2,-12,36
1523178497471823,-43,-12,-7,-2,-1,0,-1,4
1523178497483947,-9,-3,1,-1,-1,-3,1,6
1523178497483947,-12,3,0,-1,-2,-3,-9,-20
1523178497492879,-10,-6,0,0,-3,-1,12,10
1523178497492879,-6,9,0,1,1,2,-5,-7
1523178497507919,-12,-3,-3,-3,0,-2,-10,20
1523178497507919,94,-2,2,2,0,4,0,-26
1523178497509926,-60,3,3,0,-2,-1,11,-27
1523178497509926,-42,-5,-1,2,-2,-3,-8,10
1523178497530991,1,-7,3,0,0,1,8,14
1523178497530991,1,-5,-2,-4,-2,-5,-10,-19
1523178497531985,-34,-2,0,-2,1,-2,9,-11
1523178497531985,19,-2,-1,0,-4,-2,-2,3
1523178497544110,36,4,-4,-2,0,-2,2,-16
1523178497544110,-33,2,1,-1,-1,-2,-5,6
1523178497553041,-4,-7,-6,-4,0,3,21,5
1523178497553041,41,12,1,0,1,-4,-5,-5
1523178497568174,-28,-10,-10,-6,-5,-1,5,3
1523178497568174,6,4,3,1,-3,-3,1,12
1523178497570123,-1,-2,0,1,-1,-1,-12,-5
1523178497570123,3,-5,-6,0,3,-1,-6,-3
1523178497590235,-27,0,-5,0,-2,-1,10,-19
1523178497590235,-3,-1,-1,0,-2,-5,-8,-10
1523178497592146,-41,4,-2,-5,-4,-3,-1,10
1523178497592146,32,-7,5,0,1,6,23,-25
1523178497604272,-50,-2,3,0,-3,-4,-18,5
1523178497604272,20,-3,-7,-3,0,-4,-6,-8
1523178497613199,60,0,5,4,2,2,1,-3
1523178497613199,52,9,1,0,2,5,-10,25
1523178497628334,16,-2,-3,-8,-4,-4,-1,3
1523178497628334,-65,-5,0,-1,-1,0,-1,-27
1523178497629277,15,-4,-6,3,1,3,30,21
1523178497629277,-2,-2,-4,-6,-6,-11,-10,-17
1523178497650392,-6,6,4,6,4,7,-11,-8
1523178497650392,4,1,-7,-4,-4,-1,3,17
1523178497652305,-9,-2,-1,-3,1,-3,-9,-9
1523178497652305,-15,0,-1,-1,0,7,14,-23
1523178497664429,7,-2,1,3,0,1,11,28
1523178497664429,43,-3,-3,-5,-2,-6,-1,-3
1523178497673360,-43,-1,-1,-4,-1,0,8,-14
1523178497673360,31,-10,-7,0,-4,-10,-28,-3
1523178497695510,27,6,-1,-1,0,-1,-1,-8
1523178497695510,1,-5,2,3,2,15,37,14
1523178497697424,20,-2,-1,-6,-4,-2,-20,18
1523178497697424,-36,2,0,-2,-2,0,-1,0
1523178497710552,-5,3,0,0,2,-3,7,0
1523178497710552,-82,-2,0,-3,-6,-4,-4,16
1523178497712486,-13,0,3,6,0,-2,-5,-18
1523178497712486,-15,-4,-5,-3,-1,-2,-3,3
1523178497724494,-12,1,-4,-5,-2,-2,3,9
1523178497724494,8,-5,6,4,2,-1,-19,-1
1523178497733520,-37,-4,-5,-4,-2,-4,-2,-38
1523178497733520,7,8,4,3,1,0,-1,5
1523178497747642,2,3,-5,-1,-2,-2,11,-14
1523178497747642,-3,-3,-6,-4,0,-4,-12,12
1523178497749562,27,5,2,1,-3,-4,-7,6
1523178497749562,5,-4,5,0,-1,0,-7,-11
1523178497770661,-55,-8,-5,-3,-1,0,1,-3
1523178497770661,15,4,2,1,-1,-4,-18,3
1523178497771622,31,-10,-8,-2,-2,-3,-8,19
1523178497771622,-20,-1,0,0,0,0,-1,-12
1523178497784685,4,-5,-3,3,-3,-1,-1,-13
1523178497784685,8,-9,-6,-9,-5,-9,-13,-5
1523178497792680,-45,-4,-3,-3,0,3,-1,-26
1523178497792680,-16,1,3,4,1,1,8,-7
1523178497807717,76,-2,-7,-4,-3,-4,-9,33
1523178497807717,-1,-1,-4,-1,-2,-1,-1,0
1523178497809723,-8,-4,1,3,1,1,14,4
1523178497809723,-20,-9,-3,-5,-5,-4,6,37
1523178497830823,54,10,7,2,1,-4,-20,-105
1523178497830823,0,2,4,3,3,4,5,6
1523178497831780,52,5,-1,2,1,4,1,25
1523178497831780,53,4,-2,1,0,2,3,-12
1523178497852884,1,-6,4,-1,-2,-4,-4,28
1523178497852884,15,1,2,1,0,-2,3,-2
1523178497854846,5,0,-6,-2,-2,-5,5,-12
1523178497854846,11,-8,-4,2,1,1,-12,-9
1523178497867924,-17,13,-2,1,0,0,10,53
1523178497867924,-1,-1,-6,-1,-3,2,-26,-15
1523178497869885,2,3,1,-3,-1,-2,-6,2
1523178497869885,-20,0,-3,-4,-1,0,20,3
1523178497890938,27,4,0,-3,-1,1,-1,3
1523178497890938,-48,-22,-6,-2,-2,-2,2,0
1523178497891942,-9,10,2,1,1,1,26,-13
1523178497891942,-2,0,0,-5,-2,7,-6,15
1523178497913998,73,-3,3,1,-3,-2,50,-44
1523178497913998,24,11,1,2,1,4,-22,6
1523178497915005,9,-7,-1,-6,-5,-6,-14,-7
1523178497915005,2,-6,-3,2,-2,-5,7,-7
1523178497928082,-20,-13,-1,4,2,2,18,33
1523178497928082,0,3,0,-2,2,-1,7,1
1523178497930042,-7,6,3,1,-1,-2,-3,13
1523178497930042,28,2,-2,-3,-2,-2,-9,2
1523178497950098,-65,-11,1,-2,-2,-1,-22,-18
1523178497950098,16,-9,-8,-3,-2,-6,9,1
1523178497950098,9,-3,6,1,-1,-3,-17,-3
1523178497950098,-70,-1,1,0,1,2,24,12
1523178497973438,84,-4,-5,-4,-3,-6,-33,12
1523178497973438,-31,-7,3,-2,-4,4,18,16
1523178497974164,11,-5,2,0,2,3,7,-3
1523178497974164,3,-16,2,-1,-1,-3,-17,-14
1523178497987448,-28,-3,-4,0,2,1,-8,-20
1523178497987448,-24,10,1,1,0,-4,11,9
1523178497988203,36,-3,-2,0,0,3,6,18
1523178497988203,-42,6,-3,-4,-3,-3,8,3
1523178498010264,29,-3,-1,0,0,0,-10,-45
1523178498010264,23,1,0,0,-2,0,-3,-18
1523178498010264,-48,0,-7,-7,-5,-3,-1,-16
1523178498010264,20,5,4,4,0,2,0,-8
1523178498032556,-47,9,1,-2,1,1,-3,-5
1523178498032556,7,0,-1,0,0,-3,-7,-1
1523178498033320,6,2,2,4,4,3,11,-2
1523178498033320,42,2,-2,-7,-4,-4,4,-9
1523178498047536,-32,1,1,5,3,1,-16,40
1523178498047536,26,6,-5,-10,-5,-3,-3,-29
1523178498048359,-19,-5,-2,2,-3,-2,-16,4
1523178498048359,46,6,-1,1,0,-4,-1,-1
1523178498070523,-7,0,4,2,2,4,18,5
1523178498070523,-21,3,-3,0,-1,3,17,6
1523178498070523,26,-5,-2,-3,-1,-6,-14,-9
1523178498070523,33,1,1,3,2,1,-13,18
1523178498092501,-22,1,-3,-4,-1,-1,10,-8
1523178498092501,-5,-7,-1,-2,-1,-4,-5,-16
1523178498093487,-2,-3,-7,-5,-3,0,-13,7
1523178498093487,-14,1,2,2,0,1,1,-5
1523178498107517,3,-4,-2,-3,-3,0,-1,10
1523178498107517,-49,4,7,-1,-2,-3,-8,6
1523178498108517,4,0,0,5,2,2,4,-13
1523178498108517,-15,-1,-3,-5,-2,-6,-9,-9
1523178498129802,9,0,-3,-1,-2,1,-2,45
1523178498129802,-3,-2,0,0,-1,1,4,-25
1523178498130580,15,2,-4,-4,-3,-1,8,44
1523178498130580,-13,-1,-1,-2,-1,-1,-11,-34
1523178498152686,-36,-6,0,-4,-4,-2,-4,-47
1523178498152686,61,2,-4,0,-3,-10,-11,17
1523178498159656,-32,-1,8,1,1,5,21,14
1523178498159656,-15,-6,-2,1,1,-3,-7,-7
1523178498167933,25,4,-1,-3,-3,1,15,13
1523178498167933,49,1,-5,1,2,2,-17,-13
1523178498167933,-11,13,-7,-1,0,-3,-7,-24
1523178498167933,-26,-6,-3,-5,-4,-1,1,3
1523178498190020,11,3,0,1,-1,-4,8,-13
1523178498190020,-33,-8,-1,-3,1,14,34,21
1523178498190745,-13,-6,-5,-3,0,-2,-9,-4
1523178498190745,24,9,-1,-2,-1,-1,-11,3
1523178498221065,-22,-5,-2,-1,-2,-8,-7,12
1523178498221065,1,-10,-8,-2,-1,-3,10,2
1523178498221821,7,-5,0,0,-1,-1,-8,-8
1523178498221821,6,0,3,-2,-2,1,-8,22
1523178498226873,-28,-10,-6,-3,0,3,-14,12
1523178498226873,-12,11,0,3,-1,-9,-10,-15
1523178498235085,65,3,1,0,-2,2,20,-9
1523178498235085,9,-13,-2,-2,-2,-2,-10,-6
1523178498249895,-18,-1,0,4,1,-2,-2,4
1523178498249895,4,4,5,5,4,8,25,11
1523178498250902,-20,-4,-5,-3,-6,-13,-30,2
1523178498250902,-26,2,0,0,0,-3,-5,8
1523178498272954,18,2,1,-3,1,-2,-1,9
1523178498272954,35,-5,1,-1,-1,1,11,4
1523178498272954,-84,-12,5,-4,-1,-3,-8,-33
1523178498272954,-11,-2,-1,-1,-3,-4,7,-14
1523178498287238,-20,-4,-5,-6,-2,-1,-23,-3
1523178498287238,10,3,2,1,0,-7,-11,-6
1523178498295308,27,9,3,1,0,-2,2,35
1523178498295308,-39,-9,-6,-3,-2,-5,-8,-9
1523178498310055,10,-2,1,0,-1,2,16,4
1523178498310055,21,6,2,-1,-2,-6,-22,24
1523178498310055,11,12,-5,-1,-2,6,11,-4
1523178498310055,17,-4,-9,0,1,1,9,34
1523178498332115,7,-1,6,5,1,6,14,-25
1523178498332115,-38,-3,-6,-3,-2,-3,-7,-8
1523178498333118,37,-3,0,1,2,-1,10,23
1523178498333118,5,9,1,2,-1,1,-1,12
1523178498347350,43,4,0,0,4,5,10,21
1523178498347350,32,-3,0,-3,-3,-3,-10,-16
1523178498355425,-58,-14,2,4,2,-1,-5,-8
1523178498355425,56,11,3,-5,-4,-7,-4,-15
1523178498370443,-1,3,4,1,-1,1,-5,-2
1523178498370443,1,-3,1,1,1,2,4,-12
1523178498370443,109,1,-3,-1,-1,-1,4,7
1523178498370443,-9,-2,0,-3,-3,-5,1,-2
1523178498392276,11,-6,-5,-2,-3,-1,-7,-11
1523178498392276,-4,3,1,1,1,0,3,8
1523178498393273,-19,-7,-1,-7,-7,-1,-2,-30
1523178498393273,30,4,3,6,3,4,5,9
1523178498406550,-55,-1,-3,-1,-1,-5,3,-30
1523178498406550,59,-5,-6,-6,-5,-4,-11,23
1523178498415332,1,-9,6,1,0,0,20,13
1523178498415332,-5,-4,-2,-3,1,7,-14,-15
1523178498430521,-37,0,-1,0,-3,-7,-8,-12
1523178498430521,41,4,1,-2,-1,-3,6,14
1523178498430521,0,3,-3,2,1,-2,-16,-12
1523178498430521,108,7,5,0,0,-1,30,21
1523178498452434,-75,-11,-2,-5,-3,-5,-14,-53
1523178498452434,-12,-5,-1,0,4,10,11,0
1523178498453436,15,1,-4,3,2,2,1,6
1523178498453436,-28,-5,1,-3,-2,-10,-25,-33
1523178498466744,-23,-10,-2,-3,-2,1,1,28
1523178498466744,19,7,2,1,0,-2,0,9
1523178498474494,-35,-3,-1,1,1,1,-17,-14
1523178498474494,-28,-4,-5,-4,-5,-2,4,2
1523178498489817,3,4,-3,-3,-2,-3,-5,8
1523178498489817,-27,-3,-3,-4,-2,-1,6,-4
1523178498497758,6,15,-3,1,2,4,3,13
1523178498497758,-28,-8,-7,-1,0,1,6,4
1523178498512809,100,8,1,-2,1,-1,1,15
1523178498512809,-102,-14,-1,-1,0,1,3,-42
1523178498513596,6,-2,-5,4,0,-3,-26,-6
1523178498513596,1,-10,-4,1,1,5,23,-5
1523178498526672,16,9,1,-2,-3,-6,-12,15
1523178498526672,19,1,-3,2,1,13,0,54
1523178498534903,-28,-2,6,1,0,7,21,-41
1523178498534903,-58,-10,-9,-5,-4,-9,0,-25
1523178498549827,47,-6,-9,-4,-3,-1,-14,2
1523178498549827,70,4,-2,-1,-1,-8,8,-4
1523178498550697,-101,-14,0,-2,0,-4,-18,5
1523178498550697,35,11,5,5,4,5,5,19
1523178498573007,31,0,-2,-5,-7,-7,9,15
1523178498573007,-27,-3,-2,-4,-1,-3,-5,-29
1523178498573007,19,1,-1,2,2,1,8,0
1523178498573007,5,-5,0,-6,-3,-2,-9,24
1523178498587075,-46,-12,-1,2,2,0,9,2
1523178498587075,6,6,5,3,2,2,-19,1
1523178498595064,33,-8,-11,-6,-4,-4,-11,27
1523178498595064,-14,-10,-2,-7,-3,-1,1,-22
1523178498609848,-20,1,2,1,-1,-1,2,-6
1523178498609848,20,-2,-1,0,-1,-4,3,-14
1523178498610858,24,7,2,-3,-1,-2,7,1
1523178498610858,-40,4,-3,1,0,0,3,-14
1523178498631917,57,4,0,0,2,6,17,12
1523178498631917,10,-7,3,0,-1,-3,-11,1
1523178498632914,-40,-5,1,-2,-3,-3,-2,1
1523178498632914,31,-2,3,1,0,0,1,-7
1523178498647242,-15,5,3,0,2,-2,-25,-28
1523178498647242,-31,-4,-6,0,-1,-2,3,32
1523178498655231,20,2,3,-2,-1,-1,11,16
1523178498655231,29,-3,-3,-2,-1,3,-4,-10
1523178498670294,-11,4,2,5,1,-1,0,-5
1523178498670294,-19,-21,6,-2,0,-5,-12,-5
1523178498671013,-18,3,-2,-4,-2,0,2,16
1523178498671013,6,10,2,4,2,-6,-24,6
1523178498692085,30,0,0,-1,0,7,21,7
1523178498692085,-92,-6,-8,-7,-4,-9,-7,-46
1523178498693075,65,-5,-6,-8,-5,-1,1,13
1523178498693075,-2,4,5,6,5,3,-3,-13
1523178498707109,13,-7,-7,-6,-4,-9,-10,3
1523178498707109,21,13,4,5,2,3,1,24
1523178498715135,-16,-3,-1,0,1,-1,13,-16
1523178498715135,-47,-4,-2,-5,-1,0,-3,2
1523178498730454,12,-1,-2,4,2,9,2,39
1523178498730454,13,8,-4,-3,-3,-1,3,-20
1523178498730454,11,-3,1,3,1,-2,-8,-16
1523178498730454,12,5,2,2,0,-3,20,19
1523178498752481,-29,0,0,-8,-3,-1,-10,-8
1523178498752481,47,-3,-4,-4,-4,-5,1,-2
1523178498753236,34,6,-3,-3,-3,0,-8,-25
1523178498753236,-21,-6,-3,3,-1,1,-1,2
1523178498775288,5,1,-1,1,0,-2,-1,11
1523178498775288,-15,-6,-2,0,0,0,11,-13
1523178498775288,17,7,3,3,1,-4,-15,-7
1523178498775288,-9,-3,-5,-5,-4,-1,4,13
1523178498790331,11,3,1,-2,-2,-2,-7,-9
1523178498790331,-13,-2,-3,0,0,2,3,1
1523178498790331,7,-1,-1,0,-1,-4,-24,-8
1523178498790331,-20,-6,-5,-4,-3,1,6,-4
1523178498812589,39,18,8,1,-1,-5,-5,-27
1523178498812589,29,-6,1,0,-1,-5,-10,-17
1523178498813393,-21,-13,-9,-4,-2,12,12,-14
1523178498813393,121,13,1,2,1,-1,-9,-3
1523178498835687,-9,-5,-8,-8,-4,-8,-4,21
1523178498835687,1,5,-2,5,-4,-4,-7,-10
1523178498836454,-3,-14,5,-7,-1,-5,11,30
1523178498836454,15,-4,-6,-9,-6,2,-15,10
1523178498850556,-6,-5,-1,3,-1,-3,3,-12
1523178498850556,-12,-2,0,-1,-1,-1,-1,4
1523178498850556,-3,6,2,2,0,-3,4,30
1523178498850556,-14,0,1,0,1,-3,-10,4
1523178498872820,-34,-9,-3,-2,-1,1,4,-9
1523178498872820,42,16,5,0,-3,0,-7,10
1523178498873551,2,-3,-2,-3,-2,-2,-7,-20
1523178498873551,-16,8,-2,-2,-2,-4,9,3
1523178498895823,-28,-3,-2,7,2,7,-1,-50
1523178498895823,-86,-15,-10,-4,-2,2,22,5
1523178498896614,13,7,-3,-4,-2,-2,-1,-5
1523178498896614,3,-2,-1,-2,-2,-6,-20,-21
1523178498910650,33,1,1,-1,-1,-1,12,0
1523178498910650,15,2,-3,3,2,1,28,-2
1523178498910650,-7,4,-5,-6,-4,-1,-19,-23
1523178498910650,-86,-9,-3,4,3,3,18,7
1523178498932708,51,-1,-2,-3,-4,-3,-10,-51
1523178498932708,18,-2,3,-4,-1,-4,-17,-15
1523178498932708,-33,-7,-2,2,1,-1,3,15
1523178498932708,31,1,0,-1,-3,0,6,-43
1523178498956016,42,7,1,-4,0,3,6,16
1523178498956016,-3,1,1,-3,-1,2,-19,53
1523178498956773,61,8,6,3,1,-1,6,-12
1523178498956773,30,-9,-2,0,-1,-1,-5,12
1523178498970040,-17,0,-4,0,-2,-3,-3,10
1523178498970040,-3,-15,2,0,-2,0,-5,-15
1523178498970815,14,-1,2,-2,-2,-5,-4,1
1523178498970815,4,5,1,4,1,1,-1,-12
1523178498992867,-24,-6,-1,-1,0,1,-7,16
1523178498992867,54,6,-3,-3,-1,4,-4,-3
1523178498992867,-58,-7,-6,-2,-4,-9,-12,-9
1523178498992867,-13,-3,6,6,3,7,13,4
1523178499015943,-18,3,-3,-6,-4,1,5,0
1523178499015943,-11,-2,-2,-3,-1,-2,-10,-9
1523178499015943,22,5,-1,-3,-2,-8,-17,15
1523178499015943,-46,-10,-3,1,-1,0,1,-28
1523178499030216,37,-1,1,1,0,-1,-4,8
1523178499030216,7,0,-4,-3,-2,1,4,-2
1523178499030976,4,-11,-3,0,-2,-3,-8,-10
1523178499030976,-2,2,-6,-2,-2,-6,-7,-4
1523178499052272,-18,-4,-1,-1,0,0,5,32
1523178499052272,-79,2,-8,-6,-3,0,-3,-6
1523178499053027,8,-7,4,5,0,3,16,-32
1523178499053027,3,-1,-4,-4,-3,-1,-20,19
1523178499075086,-29,1,-2,-3,-1,-2,1,3
1523178499075086,72,3,5,5,2,0,7,0
1523178499083142,-97,0,-7,-3,-1,4,0,15
1523178499083142,79,-12,-4,-3,-1,-1,8,-8
1523178499090127,-9,-2,1,-5,-4,-4,-8,-25
1523178499090127,-8,4,-1,2,-2,-5,-8,-32
1523178499091134,21,5,5,2,1,0,-7,8
1523178499091134,13,-2,-1,-6,-4,0,-8,-4
1523178499112397,-18,-2,-4,4,0,-5,-3,23
1523178499112397,11,-3,-3,-6,-3,0,3,5
1523178499113192,36,-1,-2,-2,-2,-8,4,-1
1523178499113192,44,16,2,0,1,-2,-6,35
1523178499135494,119,-4,2,-6,-2,-1,23,-7
1523178499135494,-6,4,5,6,0,2,-12,2
1523178499136249,51,-2,-2,2,0,-2,3,7
1523178499136249,-15,-6,1,-3,-4,0,13,-10
1523178499150524,-15,-5,2,7,6,0,-12,-12
1523178499150524,-23,-7,-5,-3,-5,-4,2,2
1523178499150524,-15,6,-6,-1,1,6,10,5
1523178499150524,-16,-6,-2,0,-2,-12,-14,-22
1523178499172669,-33,2,1,-5,-2,7,7,-3
1523178499172669,-4,-11,-2,1,1,-3,-5,14
1523178499173348,-17,-7,4,4,0,6,-4,5
1523178499173348,-26,3,-6,-6,-2,-5,5,11
1523178499195700,10,2,-1,4,0,-3,-12,-20
1523178499195700,55,3,4,-1,-1,0,4,27
1523178499196419,-49,-10,-10,-7,-2,2,14,-16
1523178499196419,15,4,6,6,1,-4,1,15
1523178499210454,14,-6,-6,-2,-3,-4,-11,-1
1523178499210454,16,-2,-1,-3,-2,3,-13,-29
1523178499210454,5,6,0,-2,0,-6,-7,16
1523178499210454,-8,1,3,-1,-1,2,11,-27
1523178499232732,-49,-3,-3,2,-2,-3,-14,20
1523178499232732,3,-2,1,-3,-1,2,12,1
1523178499233515,-1,-1,1,-3,-3,-5,-1,-22
1523178499233515,-31,-3,-5,0,1,0,-8,-5
1523178499255876,17,2,-3,-2,0,0,9,-36
1523178499255876,-15,0,-1,3,0,-4,-4,6
1523178499256570,25,2,-4,-6,-3,1,4,5
1523178499256570,92,3,0,-1,0,3,6,39
1523178499269607,-2,-12,-3,0,0,-3,-5,1
1523178499269607,42,8,0,-2,0,1,19,-9
1523178499270610,18,2,0,0,-1,-1,11,-6
1523178499270610,72,6,2,1,2,5,-18,42
1523178499292669,-28,3,2,1,-4,-6,-1,11
1523178499292669,-14,-1,1,0,1,-4,-8,-24
1523178499292669,14,-9,-4,-3,-1,-1,-2,20
1523178499292669,-78,-5,2,3,0,-1,19,-36
1523178499315754,15,1,-3,0,2,6,-20,1
1523178499315754,-17,1,1,4,1,-1,7,17
1523178499316728,-2,3,7,3,1,-4,-13,-7
1523178499316728,-9,-9,-2,1,2,4,8,20
1523178499330918,-22,7,-7,-2,-1,2,7,-23
1523178499330918,-21,-20,0,-2,-2,-1,-6,-13
1523178499330918,11,-3,-2,-1,0,-2,0,-9
1523178499330918,-5,7,2,3,1,1,-9,8
1523178499352900,47,1,3,-3,-3,-2,11,3
1523178499352900,-14,8,-5,-4,-3,-5,-18,8
1523178499352900,-68,-7,0,1,-1,0,6,-30
1523178499352900,16,-9,1,0,-4,3,9,-10
1523178499375904,5,3,-3,3,1,-2,-10,11
1523178499375904,30,-3,-3,-6,-3,1,8,-1
1523178499375904,-7,0,-3,-3,-6,-2,-9,-36
1523178499375904,-12,4,-2,-4,-1,-2,-6,-3
1523178499389170,-37,-6,-2,-2,-5,-11,-2,15
1523178499389170,1,-3,2,3,1,10,2,7
1523178499396949,35,2,1,-2,-1,-4,9,20
1523178499396949,21,5,-3,-3,-1,2,-1,-9
1523178499412984,-3,-4,3,-2,0,2,6,-7
1523178499412984,3,4,1,1,2,-5,-3,9
1523178499412984,-43,-2,0,1,1,4,5,0
1523178499412984,55,1,-5,-4,-4,-8,-7,2
1523178499436190,-11,11,5,-7,-5,-4,-3,5
1523178499436190,-20,-8,-3,-1,-1,-2,4,-1
1523178499436190,28,4,-2,-2,-1,2,-3,36
1523178499436190,-15,-1,0,3,-1,-5,-8,-37
1523178499449233,-15,-4,0,2,2,2,3,4
1523178499449233,-2,2,-4,-1,0,-1,0,21
1523178499457106,10,1,-1,-2,-4,-5,0,-25
1523178499457106,-21,-1,2,-1,1,-5,-11,5
1523178499472396,2,-8,-3,1,0,-1,10,-11
1523178499472396,-53,-3,2,-4,-3,0,-12,-6
1523178499473148,61,12,2,2,0,-1,-3,22
1523178499473148,-53,-6,-3,-2,-3,-1,3,-39
1523178499495452,7,-2,-2,1,-1,-2,8,4
1523178499495452,98,11,1,5,5,-2,-16,-7
1523178499496207,3,-11,3,2,-1,4,16,14
1523178499496207,51,-16,-1,-5,-4,2,6,-11
1523178499509246,-17,6,2,-4,-2,-3,-10,11
1523178499509246,13,3,-2,2,1,-4,-8,-11
1523178499517520,-8,-3,11,-1,1,-1,4,5
1523178499517520,-20,-6,-2,2,2,1,2,48
1523178499532589,18,3,3,6,2,2,5,-12
1523178499532589,-19,0,-5,-4,-2,0,6,9
1523178499533306,10,-4,-11,-2,-4,-8,-34,27
1523178499533306,-61,-8,4,2,-2,-1,17,-3
1523178499555683,-17,-5,-3,-2,3,5,-4,4
1523178499555683,-15,1,-2,-6,-7,-8,-6,-12
1523178499556369,-18,0,3,1,2,2,14,-14
1523178499556369,88,15,0,-4,1,3,-5,24
1523178499569689,19,-9,-3,1,0,0,-3,1
1523178499569689,40,-3,-4,2,-3,-1,2,-8
1523178499577650,-7,-3,-4,-5,-3,-2,0,-5
1523178499577650,40,10,1,2,1,1,5,-5
1523178499592479,-27,-3,0,0,-2,-2,-13,-13
1523178499592479,-31,-7,-1,-9,-4,-1,8,37
1523178499593467,52,3,-1,3,2,-2,-8,-47
1523178499593467,-2,3,-4,0,-1,-2,-2,2
1523178499615807,5,-2,3,-3,0,9,6,14
1523178499615807,1,-1,1,3,4,2,21,-2
1523178499616530,-50,-1,-7,0,-4,-7,-16,-11
1523178499616530,10,-8,-8,-7,-3,-7,-9,-2
1523178499629843,13,-4,-1,0,-1,-3,-2,2
1523178499629843,17,1,-3,-4,-3,-3,-21,-12
1523178499637839,-35,-3,6,1,1,4,8,-36
1523178499637839,2,-4,-8,-5,-2,0,8,10
1523178499652875,5,-2,-3,-3,-4,-6,-6,3
1523178499652875,-15,-7,-5,-2,-4,0,-12,9
1523178499652875,20,4,-3,0,1,1,9,16
1523178499652875,-44,-1,1,-1,-1,-4,-10,-12
1523178499675684,14,0,2,3,-3,5,18,-4
1523178499675684,18,4,-1,-6,-5,-6,-6,-20
1523178499676688,-37,-4,-2,0,1,-3,-7,-5
1523178499676688,27,-5,0,-4,0,0,4,42
1523178499689721,-59,-1,0,-2,1,2,2,-4
1523178499689721,-19,-1,-2,-3,-4,-3,-9,-34
1523178499697963,15,0,4,4,0,4,12,18
1523178499697963,-37,0,-3,-2,-5,-5,-7,-10
1523178499713005,-7,-2,-2,-1,-1,-9,-7,-9
1523178499713005,17,0,2,0,1,11,8,16
1523178499713005,17,0,-3,-3,-1,0,-16,-20
1523178499713005,-72,1,-2,-3,-5,-4,-6,-31
1523178499736203,33,-2,-3,-1,-1,-2,-1,3
1523178499736203,-25,-7,-2,-3,0,0,18,-17
1523178499736203,33,10,-2,-6,-2,-6,-23,10
1523178499736203,20,3,6,4,4,8,-15,-14
1523178499757909,-11,-3,-1,0,-3,-8,-20,-1
1523178499757909,-52,0,2,-1,3,-2,8,11
1523178499758903,71,2,-1,-2,-5,-5,0,13
1523178499758903,-21,-7,-4,-5,-2,-5,14,-5
1523178499772195,-5,4,-1,-3,-4,-5,1,9
1523178499772195,39,5,-3,4,0,0,-6,-8
1523178499772943,4,-2,-2,-1,1,2,11,1
1523178499772943,-12,2,2,2,0,-4,-12,-3
1523178499796236,12,5,1,-2,2,4,23,-9
1523178499796236,3,1,-3,6,3,1,4,26
1523178499796236,30,4,4,2,0,-3,-18,12
1523178499796236,-40,-12,-10,-2,1,2,20,34
1523178499818305,57,9,-1,2,1,-2,-13,-12
1523178499818305,18,-5,4,0,1,-3,0,0
1523178499819066,-36,-8,-2,0,0,2,4,0
1523178499819066,21,18,-2,-5,-2,-2,-3,-7
1523178499832240,-28,-9,-8,-4,-2,0,1,-1
1523178499832240,-18,0,2,-2,0,-2,-7,11
1523178499833106,4,-2,0,-1,-2,1,4,-26
1523178499833106,-10,3,2,1,2,5,3,-7
1523178499855202,79,-9,-3,-5,-5,-2,-3,18
1523178499855202,45,6,-1,-3,-3,-5,10,1
1523178499856164,-10,-3,-3,-1,-2,0,-9,-7
1523178499856164,-3,-1,-1,-1,-2,-7,-15,7
1523178499878473,52,2,4,2,3,7,11,-35
1523178499878473,-91,-8,0,-1,-1,0,2,-12
1523178499879226,28,1,-2,-1,-1,-1,9,6
1523178499879226,21,-1,-2,-3,-4,-3,-9,5
1523178499892301,-12,-3,1,0,0,-5,-4,4
1523178499892301,11,-2,-5,-2,0,0,-5,1
1523178499893261,-39,-1,2,-1,1,1,-11,-30
1523178499893261,15,0,4,3,0,2,10,19
1523178499915483,-32,8,2,3,1,-6,-11,0
1523178499915483,-30,-2,4,-2,-1,6,19,-3
1523178499916327,39,-2,-4,-9,-3,-2,-5,35
1523178499916327,-19,-10,-1,1,-1,-2,-3,-14
1523178499938618,-24,0,1,1,-2,-4,20,10
1523178499938618,35,3,-3,4,0,-2,-38,1
1523178499938618,-30,0,1,0,2,0,11,16
1523178499938618,51,4,3,-1,0,-3,2,24
1523178499952666,-5,-6,-5,-5,-7,-7,-17,-25
1523178499952666,-47,-16,5,4,0,-6,1,-21
1523178499953422,14,4,2,0,2,5,11,14
1523178499953422,-1,-5,-5,0,0,-1,-10,11
1523178499975483,-10,2,0,0,0,4,-3,-2
1523178499975483,41,6,-6,-6,-5,-4,5,28
1523178499976487,65,9,3,-1,0,2,2,11
1523178499976487,-31,-7,3,5,1,1,-3,-15
1523178499998701,29,2,3,-3,-4,-9,-8,20
1523178499998701,9,2,-4,-4,-1,-2,-12,-5
1523178499998701,18,-2,-3,0,-2,3,42,-7
1523178499998701,-6,2,0,2,2,0,2,-19
1523178500012798,-4,-4,-4,-5,0,-4,-8,-1
1523178500012798,7,-1,2,1,0,-1,-8,-5
1523178500013582,4,-5,-6,-1,-4,-3,-5,6
1523178500013582,50,-3,-2,-6,-3,-4,-5,-56
1523178500035920,-17,-10,-6,-2,0,5,5,-10
1523178500035920,13,-4,-2,-1,2,-2,4,13
1523178500036643,-20,-1,-3,0,-4,-6,12,35
1523178500036643,-33,5,1,1,0,3,-14,-16
1523178500057740,-26,-1,9,2,2,3,-2,7
1523178500057740,18,3,-7,-7,-5,2,12,-8
1523178500058700,-31,-1,0,0,-1,-4,-13,-17
1523178500058700,-28,-6,-2,1,1,3,10,26
1523178500072740,-1,0,0,-1,-2,-4,-10,3
1523178500072740,-7,-6,4,-2,-4,0,-7,-17
1523178500072740,14,-19,4,2,2,1,-15,5
1523178500072740,1,5,3,0,0,5,11,10
1523178500096096,24,-2,-1,0,-2,-1,1,-16
1523178500096096,67,6,0,-1,-2,-3,-2,-7
1523178500096096,-66,-7,-5,-2,0,-4,-15,-1
1523178500096096,36,-2,-3,-6,-3,-3,-4,-30
1523178500118052,0,-10,6,0,-1,1,22,12
1523178500118052,30,4,-15,-1,0,0,3,23
1523178500118866,-13,-4,7,2,1,1,-8,-36
1523178500118866,12,2,1,3,0,-2,2,2
1523178500131896,-27,4,-8,1,1,3,-2,5
1523178500131896,-5,-18,10,1,1,-1,1,-1
1523178500132900,1,-4,-7,-1,1,-2,-8,11
1523178500132900,-13,-1,-6,-2,-3,-1,1,5
1523178500155960,14,-2,-3,-2,-2,-2,-1,15
1523178500155960,-58,-2,-3,3,-1,-3,-14,-45
1523178500155960,28,11,2,-2,-2,1,-3,0
1523178500155960,9,-13,-5,-3,-4,-5,-13,2
1523178500178231,-3,8,-3,3,0,-9,-28,-32
1523178500178231,41,2,0,3,1,6,11,-24
1523178500179022,1,-5,-3,-6,-5,0,12,0
1523178500179022,15,0,-1,1,-2,-8,-11,3
1523178500192096,4,1,1,3,1,6,-10,22
1523178500192096,5,5,-1,-2,-2,-3,-3,18
1523178500193070,2,-3,-7,-1,0,-3,-9,-21
1523178500193070,-49,-3,1,-1,-1,3,0,-19
1523178500216206,18,-9,-7,-3,-1,3,18,23
1523178500216206,9,6,6,0,3,-1,4,4
1523178500216206,-12,0,-2,0,0,2,1,7
1523178500216206,10,-3,-4,-4,-3,-7,-6,16
1523178500238426,-10,4,0,-4,-1,0,3,3
1523178500238426,-6,-17,-1,-2,-3,-2,3,-2
1523178500239183,-13,3,-3,-5,-3,-2,-2,9
1523178500239183,-3,3,2,2,0,-11,-28,-10
1523178500260485,94,8,0,-3,-2,10,14,-8
1523178500260485,28,-2,-3,2,1,-1,5,10
1523178500261244,-53,-10,-5,0,-1,1,-1,27
1523178500261244,6,-1,-1,-2,-4,-6,21,-6
1523178500275319,-10,-5,-3,0,0,2,-12,3
1523178500275319,-42,11,0,-4,-3,-4,-6,-13
1523178500276283,18,-2,-4,-1,-1,-1,4,-42
1523178500276283,-11,2,6,2,3,4,10,-1
1523178500298600,-44,-2,-3,-2,-3,-8,0,10
1523178500298600,11,5,-3,0,-2,2,4,-9
1523178500298600,-13,-2,2,-2,1,4,10,1
1523178500298600,13,-3,1,2,2,5,-1,-9
1523178500312600,-61,4,0,-3,-4,-12,-8,-34
1523178500312600,24,-9,3,-1,-2,5,13,18
1523178500313378,41,1,-6,-2,-5,-6,-26,20
1523178500313378,-12,2,1,-4,-3,4,13,-4
1523178500335691,-59,6,-9,0,-1,-1,1,6
1523178500335691,-48,-9,-4,-1,-1,-5,-20,-71
1523178500336444,-5,6,3,4,2,-3,10,9
1523178500336444,-21,-6,-4,-2,-3,-3,2,3
1523178500358516,-10,3,1,0,1,2,1,-19
1523178500358516,2,4,-5,-2,-2,-1,1,41
1523178500358516,1,3,1,-1,-1,0,4,-25
1523178500358516,9,0,4,2,0,0,-7,13
1523178500371893,33,-5,2,-1,-4,-7,5,-12
1523178500371893,-42,-4,0,3,0,2,-5,6
1523178500379554,50,-1,1,-4,-4,0,2,17
1523178500379554,-62,-3,-3,0,1,3,5,-5
1523178500395882,60,1,3,0,-2,0,-2,1
1523178500395882,-17,-1,2,-1,0,2,9,-27
1523178500396601,-13,5,1,0,-4,-7,-23,-1
1523178500396601,-3,-1,-3,-2,0,0,-2,-16
1523178500418671,3,0,2,0,-1,2,9,26
1523178500418671,-17,-5,-8,-9,-2,-7,-15,15
1523178500418671,-19,1,3,5,4,4,17,5
1523178500418671,43,6,-1,-5,-4,-6,-11,3
1523178500440718,20,-1,4,4,4,9,22,3
1523178500440718,53,9,2,0,-2,-3,-9,6
1523178500441730,-20,-5,-3,-1,-3,-5,-6,-13
1523178500441730,10,-3,-4,-5,-1,-1,-4,7
1523178500455760,0,1,-4,-3,-4,-7,-11,-7
1523178500455760,36,-4,0,-6,-3,0,6,44
1523178500455760,-74,-6,-1,2,0,2,1,-24
1523178500455760,3,5,0,0,-2,-3,2,-12
1523178500478035,11,6,-5,-2,0,3,-3,-13
1523178500478035,-20,0,0,4,1,-2,0,-24
1523178500478820,47,4,-3,-1,1,-2,-8,-14
1523178500478820,4,4,-4,-3,-3,2,1,21
1523178500492033,-49,-13,-6,-3,-2,7,26,-28
1523178500492033,39,2,1,4,2,-1,-3,5
1523178500500115,-10,-2,-1,-3,-2,-6,-9,10
1523178500500115,33,1,-5,1,-1,3,11,-10
1523178500516001,15,-5,7,4,1,-2,-18,24
1523178500516001,-20,-6,-5,0,-1,-2,4,6
1523178500516001,115,4,2,-4,-1,-2,-3,-10
1523178500516001,-42,-2,-1,-1,-3,-9,-11,-4
1523178500538229,16,-2,-3,-4,-3,-3,-7,9
1523178500538229,14,1,-2,-2,0,2,1,-8
1523178500538981,-8,3,-1,-2,-4,-3,2,-39
1523178500538981,25,0,0,1,1,1,1,0
1523178500552253,-16,-4,-5,-2,-1,-5,-9,-24
1523178500552253,-35,-2,3,3,-1,-8,22,-4
1523178500560281,-7,-6,-5,-3,0,3,-5,18
1523178500560281,12,-2,2,3,0,5,6,15
1523178500576110,-29,-7,4,-3,-4,-8,-15,-9
1523178500576110,38,-7,6,3,2,7,14,-6
1523178500576110,-76,-10,-5,-3,-3,5,17,-34
1523178500576110,-7,-3,-2,3,0,-1,-10,14
1523178500598405,7,2,6,-5,-3,-4,-2,7
1523178500598405,22,12,-5,-3,-5,-7,-20,4
1523178500599139,-11,-3,6,1,1,-1,2,38
1523178500599139,35,-4,1,-2,1,1,-3,1
1523178500612219,-61,-3,-6,-2,0,-5,-2,-40
1523178500612219,25,-7,-10,-8,-4,-3,-12,-12
1523178500620391,2,2,3,3,-1,-1,-2,16
1523178500620391,2,-2,-7,-5,-2,0,11,25
1523178500635516,36,1,1,0,2,-2,-8,-1
1523178500635516,-21,1,3,-1,-1,-3,-2,5
1523178500636236,25,-1,-4,0,-1,1,-1,-2
1523178500636236,17,2,-1,-1,-1,-4,0,-10
1523178500658321,1,-1,1,1,0,-1,-9,3
1523178500658321,-4,-2,-3,0,0,3,-11,13
1523178500658321,14,-3,0,-1,-4,-7,-3,7
1523178500658321,-7,10,2,-3,0,4,32,-17
1523178500680547,24,-1,-14,-9,-6,-7,-24,21
1523178500680547,48,3,2,3,0,-5,-7,-2
1523178500681360,-34,-1,1,0,0,-2,-3,-7
1523178500681360,23,3,-1,2,-1,-3,-1,1
1523178500695629,10,-4,-5,1,1,-1,4,25
1523178500695629,-47,1,1,-2,-1,1,3,-41
1523178500696405,50,1,-6,-2,0,-1,-9,4
1523178500696405,-11,-4,2,1,-1,0,-8,1
1523178500718632,-6,-1,2,4,-1,1,8,15
1523178500718632,-31,-9,-6,-4,-4,-4,-5,12
1523178500718632,-8,3,6,0,2,2,21,-2
1523178500718632,23,-11,-2,-1,-1,4,-10,-17
1523178500740511,24,5,2,3,1,2,2,11
1523178500740511,-30,-6,1,-1,0,0,2,11
1523178500741520,67,3,-10,-4,0,-4,1,-12
1523178500741520,-24,-4,6,-1,0,-5,-10,-2
1523178500754783,-1,-4,0,1,-1,-1,-13,-51
1523178500754783,34,5,1,0,1,9,0,10
1523178500755569,32,-4,3,4,5,6,3,27
1523178500755569,-37,-1,-2,-1,-4,-3,-4,-11
1523178500778728,-18,-6,-4,-2,-1,-1,8,-2
1523178500778728,-20,5,0,-3,-2,-3,-5,14
1523178500778728,-5,-2,1,-1,-2,-2,-6,-3
1523178500778728,27,0,-5,-2,-2,-1,1,5
1523178500800906,-26,-22,4,2,2,2,8,2
1523178500800906,-24,5,4,4,1,0,-1,-17
1523178500801678,2,13,-1,-6,-5,-7,-19,45
1523178500801678,26,2,-1,0,2,-2,-11,-17
1523178500814983,7,6,-4,-3,0,6,18,-23
1523178500814983,-64,-14,-3,-2,-2,-4,-1,10
1523178500815719,67,-2,-1,-4,-3,3,-3,-21
1523178500815719,-89,-11,-4,-3,-3,-10,-7,-48
1523178500838035,26,3,4,2,-1,-5,3,7
1523178500838035,41,-2,-1,1,2,6,8,9
1523178500838776,16,4,-1,-4,-1,-6,-2,0
1523178500838776,-22,1,-6,-2,-3,-1,-7,-11
1523178500861120,-7,1,2,-3,-1,0,-2,1
1523178500861120,-14,-6,-5,0,0,-4,-4,-8
1523178500861837,-40,-8,-3,-2,-3,-10,3,19
1523178500861837,1,-3,0,-7,-1,8,4,22
1523178500873866,13,2,-3,3,1,0,-3,8
1523178500873866,15,12,3,0,-2,-2,-1,3
1523178500883099,-36,-24,-10,-2,-3,-1,-9,-23
1523178500883099,40,1,2,1,-4,-8,2,23
1523178500898147,3,8,3,-1,0,4,0,33
1523178500898147,0,2,1,4,2,2,12,-3
1523178500899943,-16,-1,0,1,-1,-1,-19,-30
1523178500899943,7,-1,-5,-2,-1,-3,-4,25
1523178500921186,26,-2,-1,5,3,5,10,-2
1523178500921186,87,-6,-10,-4,-5,-8,-4,8
1523178500921998,0,8,2,0,2,1,-4,-12
1523178500921998,3,-18,2,3,1,2,5,8
1523178500934162,-5,3,2,-2,-2,-6,-6,-4
1523178500934162,-4,3,-5,-4,-1,1,-1,-4
1523178500943057,22,6,-4,-4,-5,-4,-1,-12
1523178500943057,13,4,0,3,2,2,14,-26
1523178500958093,-2,9,2,0,-4,-2,-1,13
1523178500958093,-30,-14,6,-3,-1,-1,-4,-47
1523178500959094,-37,-3,-3,-2,-1,-1,-1,2
1523178500959094,7,8,2,-1,0,-1,-1,-1
1523178500980150,27,-3,-4,-1,-2,-5,0,-8
1523178500980150,-8,6,-5,0,0,6,4,23
1523178500982155,-15,-1,3,2,0,2,10,-32
1523178500982155,15,13,0,2,2,4,-2,10
1523178500994383,87,5,-3,-3,0,-1,2,-13
1523178500994383,-29,-4,-3,-8,-6,-13,-12,20
1523178501003213,5,-3,1,2,3,4,-8,3
1523178501003213,58,7,0,-6,-7,-1,-1,8
1523178501018483,-6,-6,-4,0,-1,-4,-11,-7
1523178501018483,-18,-3,1,-1,-2,-2,-2,-2
1523178501024267,-24,0,1,0,2,3,16,13
1523178501024267,-22,-24,0,-2,0,-1,-4,-51
1523178501040311,-24,-3,-4,-5,-4,-3,-7,23
1523178501040311,18,2,0,2,-2,0,-3,-18
1523178501042315,-22,-6,-5,-6,-3,-3,5,3
1523178501042315,13,-1,0,2,0,0,-7,21
1523178501054620,-45,-5,-1,-1,-1,2,5,-10
1523178501054620,-15,-2,-1,-1,-4,-10,-13,-1
1523178501063372,35,6,-1,1,-2,-1,-2,4
1523178501063372,93,-2,-6,-1,-1,5,28,-6
1523178501078696,-26,-6,1,2,1,3,-23,20
1523178501078696,20,-5,-7,-8,-5,-6,-9,-52
1523178501079417,-12,-8,2,1,-1,2,-2,-7
1523178501079417,19,5,-1,-1,0,-7,-3,19
1523178501100744,-30,-3,1,-2,0,-2,11,-6
1523178501100744,-4,-2,-2,3,2,5,14,21
1523178501102478,-25,-5,2,-2,-3,-7,-7,-20
1523178501102478,-34,-2,-5,-1,1,6,-3,28
1523178501114677,50,6,-4,-4,-2,-3,-11,8
1523178501114677,-11,5,2,-2,-1,-3,-5,13
1523178501123530,-9,-4,-3,-1,-2,5,11,3
1523178501123530,-7,2,-1,-1,-1,-6,-17,25
1523178501137830,-47,1,1,2,0,2,5,-38
1523178501137830,48,4,0,2,4,1,0,0
1523178501139573,6,-2,-1,2,-2,5,12,9
1523178501139573,72,-14,-1,-5,-5,-8,-8,-12
1523178501160870,-72,-14,-6,-7,-4,3,-22,1
1523178501160870,22,0,-5,-2,0,-1,0,-8
1523178501161634,13,5,0,2,-1,-5,0,-4
1523178501161634,-13,9,1,1,0,1,-6,3
1523178501173666,10,-4,-3,0,1,-1,10,-12
1523178501173666,-28,-4,3,4,1,5,5,15
1523178501182961,48,4,-3,-6,-3,2,4,54
1523178501182961,-76,1,-3,-4,-5,-5,4,-46
1523178501198032,28,4,0,1,2,-7,-1,-8
1523178501198032,-29,-1,2,0,0,13,35,37
1523178501199737,-30,0,-1,-2,-1,0,-12,-17
1523178501199737,0,3,0,-2,-2,-6,-8,0
1523178501221076,10,0,1,4,1,-2,2,3
1523178501221076,20,4,-3,-6,-4,-18,-18,-6
1523178501221793,103,3,-3,2,5,18,13,-4
1523178501221793,-19,-5,-5,-4,-2,0,12,20
1523178501234827,28,-3,-4,-6,-2,0,-6,-12
1523178501234827,18,2,3,4,1,-2,-4,-2
1523178501242893,2,-4,-2,-4,-3,-9,-9,-2
1523178501242893,-36,-7,0,0,0,-2,-12,-35
1523178501257887,-7,2,3,-1,1,-1,13,65
1523178501257887,37,5,3,-1,0,3,-2,-13
1523178501259894,-86,-3,-1,-3,-4,-6,-13,-39
1523178501259894,8,1,7,4,0,4,3,27
1523178501281186,-22,-10,-5,-4,-3,-3,8,-2
1523178501281186,0,-5,-2,1,0,3,5,13
1523178501281955,-4,12,-3,2,3,-7,-7,-10
1523178501281955,-1,4,-2,4,3,3,2,8
1523178501303260,41,6,-2,2,-1,-2,-10,-23
1523178501303260,-51,-7,-3,0,3,1,17,54
1523178501305018,-13,-1,-2,-7,-4,7,-2,-7
1523178501305018,-8,-3,-6,-5,-7,-14,-7,-9
1523178501318424,-17,-6,0,0,-1,5,14,12
1523178501318424,-1,4,0,-4,-1,0,0,-7
1523178501320053,-8,-3,-2,0,-2,-9,-4,-10
1523178501320053,-20,-8,-2,0,0,0,-4,9
1523178501340106,4,3,-1,-2,-4,-2,-13,-6
1523178501340106,20,1,1,-5,-4,-2,-6,6
1523178501342115,-55,-12,-2,0,1,-8,-9,13
1523178501342115,27,11,-2,2,-1,5,1,-27
1523178501354403,8,4,-2,-5,-2,0,1,-7
1523178501354403,8,-3,-5,1,-2,1,-7,-14
1523178501363172,-7,-8,-4,2,0,-4,-12,1
1523178501363172,2,-1,-1,-2,2,1,4,23
1523178501378464,40,2,0,-1,-1,-6,7,24
1523178501378464,-56,-5,2,-2,-1,1,-19,-34
1523178501379212,123,16,-5,1,2,2,10,23
1523178501379212,-45,-10,0,-3,0,3,2,-49
1523178501400553,49,2,-2,-3,-1,3,-1,30
1523178501400553,-3,-2,-2,-3,-1,-6,-20,-55
1523178501402275,25,4,-2,1,1,-2,10,15
1523178501402275,8,2,6,5,-1,1,-3,19
1523178501414577,-53,-5,-2,-6,-3,-6,-6,-9
1523178501414577,35,2,-5,0,0,2,11,-15
1523178501423327,-24,-1,3,-2,-3,-7,-20,11
1523178501423327,1,-7,-5,-4,-4,0,9,27
1523178501438368,-17,-5,-2,6,0,1,-12,-25
1523178501438368,8,5,3,-1,0,-3,11,6
1523178501439369,-18,-10,-3,-4,-2,5,0,-7
1523178501439369,-33,0,5,2,3,1,2,8
1523178501460706,55,10,-5,-7,-4,-7,-18,-27
1523178501460706,65,-3,1,-1,-1,0,6,34
1523178501462434,-9,2,2,0,-2,-2,11,17
1523178501462434,8,-7,-6,-2,-2,-1,-1,0
1523178501474465,-57,-10,6,3,4,5,-10,-13
1523178501474465,19,1,-2,-2,-5,-8,12,10
1523178501483488,-4,10,-2,1,3,2,-11,-3
1523178501483488,-16,5,-2,-3,-2,-2,-4,-13
1523178501498728,34,-6,1,-2,-1,-4,3,15
1523178501498728,-33,-5,-2,1,1,-3,-19,2
1523178501499533,73,-5,-2,-2,-6,-3,4,9
1523178501499533,-10,8,2,1,4,8,1,-34
1523178501520823,-21,-11,-2,0,-3,-3,3,-1
1523178501520823,-15,8,-6,-1,-2,-4,-19,-11
1523178501521590,-34,-8,5,2,1,1,-3,-13
1523178501521590,36,1,-4,-3,-2,-3,0,7
1523178501534623,7,4,7,5,2,2,-12,-2
1523178501534623,0,-12,-16,-15,-4,1,-5,-47
1523178501543648,25,4,1,3,-1,0,13,-24
1523178501543648,23,-8,-2,-5,-5,-2,-3,19
1523178501558735,-25,-3,-2,1,0,5,19,15
1523178501558735,-21,-1,4,4,1,1,0,-45
1523178501559693,-13,1,-1,-7,-4,-1,-5,-9
1523178501559693,-41,6,-1,1,-4,-6,-24,-51
1523178501581018,56,6,0,3,-1,-11,31,1
1523178501581018,-9,-4,1,0,1,13,20,14
1523178501581750,-3,-8,1,-4,0,-3,2,18
1523178501581750,31,4,1,2,1,-1,-5,25
1523178501594787,-20,0,-3,-2,1,-1,1,-7
1523178501594787,3,-1,-2,-4,-4,-2,0,8
1523178501603053,-41,-2,1,2,2,-2,2,11
1523178501603053,28,-5,-4,-4,-2,-7,-6,0
1523178501618098,-14,-12,-1,-1,1,1,-7,-3
1523178501618098,1,2,0,-3,-1,-3,-7,10
1523178501619851,-12,-7,-2,1,-1,-1,3,-5
1523178501619851,111,-1,-3,-2,-1,1,7,19
1523178501641070,-41,-1,-3,-2,-4,0,-2,-9
1523178501641070,12,1,4,4,-1,-2,-1,1
1523178501641911,23,-2,-5,-4,-3,-4,23,11
1523178501641911,28,9,2,-2,1,4,-19,-19
1523178501663140,19,1,0,-2,-1,1,-10,-26
1523178501663140,28,-5,-3,-3,-2,-3,-3,24
1523178501664969,-20,1,1,2,2,1,17,1
1523178501664969,-15,-5,-5,-5,-4,2,10,2
1523178501678207,8,5,4,-3,0,0,-5,-5
1523178501678207,-23,-5,0,4,1,1,-1,17
1523178501680009,27,0,4,-1,-3,-3,-7,0
1523178501680009,-40,-8,-7,-4,-3,-4,7,-3
1523178501700064,-8,-2,-4,2,0,2,1,16
1523178501700064,-6,-8,1,2,-2,-2,-9,-1
1523178501702070,-1,2,-2,5,3,-3,-10,-7
1523178501702070,14,10,2,0,0,-2,2,12
1523178501723127,30,-7,-3,-5,0,10,16,-8
1523178501723127,3,5,0,1,-1,-8,-13,-1
1523178501724131,-5,-3,-2,-6,-4,4,1,28
1523178501724131,-41,-4,1,-2,-2,-4,-3,7
1523178501738166,-6,-5,-2,-1,-1,-5,-2,-9
1523178501738166,5,17,1,-1,0,2,12,13
1523178501739176,-24,-3,-4,-2,0,1,-13,-30
1523178501739176,-16,0,-2,0,-1,4,7,-8
1523178501760511,-1,1,-1,0,-1,0,-9,24
1523178501760511,-3,-2,-1,0,-1,-2,1,3
1523178501762229,-14,-1,-2,-4,-1,-8,-35,-25
1523178501762229,-6,-3,-2,2,2,4,14,0
1523178501783543,-32,10,4,-1,-3,-3,1,-10
1523178501783543,27,-8,-1,-5,-3,4,-3,-28
1523178501784289,80,3,0,1,0,-3,-5,5
1523178501784289,20,-3,1,0,-1,1,5,-1
1523178501797482,10,-4,-3,-3,-2,-3,-22,10
1523178501797482,34,-9,0,0,-4,-5,8,5
1523178501804342,10,3,0,-1,0,3,3,6
1523178501804342,-21,-1,1,0,2,-1,8,5
1523178501820641,26,2,-1,-2,-1,-2,4,-6
1523178501820641,-6,0,-5,-7,-3,-6,-10,-12
1523178501822398,-35,-5,-5,1,3,5,4,-15
1523178501822398,27,3,4,-1,-3,-7,-21,10
1523178501843679,-26,5,-9,-1,-1,-2,21,-3
1523178501843679,-10,0,-1,1,1,1,-8,-11
1523178501844450,0,3,2,0,-3,1,4,0
1523178501844450,-21,-2,-5,0,3,-4,-11,-14
1523178501857645,-10,0,-1,-1,0,1,5,0
1523178501857645,11,1,3,0,-2,0,2,-4
1523178501864777,-23,-1,0,-3,-3,-1,8,32
1523178501864777,-2,-6,-4,0,0,-2,2,2
1523178501880802,-4,3,-1,4,2,-3,-10,-12
1523178501880802,95,11,-5,0,2,2,-1,8
1523178501882552,-76,-10,1,-4,-4,1,2,27
1523178501882552,20,1,2,0,-2,-3,11,-41
1523178501903860,-1,-13,-7,-3,-4,-6,-23,11
1523178501903860,-1,2,-1,-1,1,4,4,28
1523178501905614,11,-4,-3,-1,-3,-2,0,-8
1523178501905614,-46,-7,-2,0,-2,-5,13,8
1523178501917915,52,-1,1,0,-2,0,-11,-10
1523178501917915,-48,8,4,0,1,3,10,-8
1523178501924679,26,-12,-4,-3,-1,-2,-3,4
1523178501924679,-10,-2,6,0,0,-2,-10,10
1523178501940920,-6,0,-2,-2,-3,0,6,-10
1523178501940920,-49,-25,3,-1,-2,-2,-5,10
1523178501941713,21,6,5,-2,0,-6,-8,-22
1523178501941713,12,-6,-9,-7,-2,-1,-12,8
1523178501962766,-21,1,8,3,0,4,19,-4
1523178501962766,-66,-6,-7,-1,-2,0,-5,-9
1523178501964766,10,-3,-6,-5,-6,-10,-16,-27
1523178501964766,-4,-7,4,-1,-2,-4,-1,8
1523178501978017,3,0,-3,-3,-3,4,-16,-10
1523178501978017,-5,-2,-4,-1,-2,-3,-4,-8
1523178501984074,28,1,-1,4,1,2,10,6
1523178501984074,-13,4,-1,-1,-2,-1,-8,-7
1523178502001092,-4,-7,-2,0,0,1,29,10
1523178502001092,-48,1,2,-2,-1,-1,-12,-8
1523178502001866,63,9,-3,1,0,5,3,2
1523178502001866,13,-4,1,-3,-3,0,0,9
1523178502022921,-39,-3,-1,0,0,-6,-11,-36
1523178502022921,26,-1,-2,-3,0,1,12,21
1523178502024931,3,0,0,0,-2,-4,-26,-19
1523178502024931,-10,-4,-9,-4,-4,0,1,-7
1523178502037185,-11,-18,6,3,2,2,9,29
1523178502037185,81,-2,2,1,-2,-5,-18,-12
1523178502044198,-6,5,-1,2,-1,-2,-8,-7
1523178502044198,-4,13,1,0,2,5,9,14
1523178502061069,16,2,-3,-5,-3,-2,-19,16
1523178502061069,-5,5,-6,0,-2,-4,6,-4
1523178502062027,-19,-7,0,-1,1,1,9,17
1523178502062027,-1,-3,-1,-1,-3,-1,-4,9
1523178502083356,54,7,-3,-3,-3,-6,-1,9
1523178502083356,-25,-5,-2,-2,-3,2,12,3
1523178502085092,-26,-9,-2,-6,-3,0,5,-6
1523178502085092,0,-1,1,0,-2,-3,-17,-7
1523178502097316,53,8,1,-2,-4,-12,-29,-16
1523178502097316,-95,-8,-2,1,2,2,4,-15
1523178502104140,39,-8,-3,2,-2,-1,-15,-27
1523178502104140,15,-4,-5,1,1,1,3,-6
1523178502120475,-25,-2,4,4,3,-1,2,-3
1523178502120475,91,9,4,5,5,1,-4,23
1523178502122184,-28,2,-2,-3,-3,-3,13,20
1523178502122184,-25,3,0,5,2,3,-4,-50
1523178502143441,29,2,-5,-3,-3,3,8,9
1523178502143441,5,-1,-1,-1,-2,-1,1,-1
1523178502144246,1,7,-5,-4,0,2,4,7
1523178502144246,-6,-3,-1,-5,0,-2,-4,31
1523178502157309,-28,-2,-4,-2,0,1,5,-18
1523178502157309,24,-2,0,-3,-4,-3,2,-6
1523178502165299,-27,-4,3,5,2,-2,-5,3
1523178502165299,-3,-4,-2,-2,-1,0,-1,2
1523178502180614,-28,-7,-4,-5,-2,0,11,6
1523178502180614,-15,-5,2,-1,-1,-4,-4,-20
1523178502182346,-40,0,-4,-3,-1,0,1,-12
1523178502182346,70,1,2,3,-1,-3,0,-14
1523178502203660,1,-4,-1,-1,-2,-1,-4,-9
1523178502203660,19,5,-8,0,-2,2,5,1
1523178502204405,-78,-8,0,-4,-1,4,2,20
1523178502204405,18,2,6,-2,0,-2,-7,10
1523178502216689,11,-6,0,1,1,2,2,11
1523178502216689,9,6,-2,-4,-3,-5,-8,-8
1523178502225459,38,2,-2,-1,-1,-4,-2,36
1523178502225459,-32,-4,-6,-2,-2,2,-2,-22
1523178502240506,-10,4,3,2,0,-2,4,-4
1523178502240506,-12,4,2,0,-1,-1,-15,14
1523178502242504,110,4,2,-1,-1,-4,1,-9
1523178502242504,-3,-2,-2,2,1,-1,3,23
1523178502263723,44,6,-1,0,0,7,22,1
1523178502263723,1,-8,0,0,1,0,-2,5
1523178502264565,-40,-4,2,2,-1,-8,-2,6
1523178502264565,33,2,-2,1,1,-1,4,26
1523178502276834,-63,-11,-4,-5,-3,-5,-3,-24
1523178502276834,-17,-5,1,2,1,0,-4,-8
1523178502285652,-2,-4,-4,0,-1,2,-3,-5
1523178502285652,10,6,1,-1,-1,-2,2,8
1523178502300935,-31,-1,-5,-6,-6,-5,-14,-23
1523178502300935,-10,-5,0,0,1,-1,4,7
1523178502301663,7,3,-2,0,-2,-3,0,-7
1523178502301663,-27,10,-2,-3,1,7,4,-9
1523178502322721,27,3,-2,0,2,-1,-3,23
1523178502322721,8,5,1,-2,-2,-5,-10,-24
1523178502324723,66,0,0,0,-1,2,21,12
1523178502324723,-78,-9,-2,1,0,-2,-17,-26
1523178502337044,25,-3,-2,-4,-3,-6,-9,-2
1523178502337044,18,4,5,3,0,1,5,7
1523178502345781,-42,-3,-2,-6,-3,-3,-3,-12
1523178502345781,22,1,2,3,1,-1,-7,-16
1523178502361109,-67,-6,-3,-4,0,8,3,-3
1523178502361109,-21,-8,-1,-1,-2,-6,-16,9
1523178502361823,5,1,2,0,0,-1,23,-18
1523178502361823,32,0,-3,-1,0,3,-5,30
1523178502383138,-5,-2,4,5,3,0,-6,34
1523178502383138,95,6,-5,-4,-6,-5,0,-10
1523178502384882,-23,-3,-2,0,-1,-1,-7,-2
1523178502384882,9,-3,-2,-2,0,2,14,-1
1523178502397182,12,1,0,1,0,-6,-6,11
1523178502397182,-35,-4,-7,-1,1,7,4,18
1523178502411956,100,-5,-2,1,1,0,2,16
1523178502411956,67,-1,5,-2,-2,-2,-23,-19
1523178502420219,45,3,-2,-2,-2,0,3,-11
1523178502420219,-68,-7,-13,-5,-3,-3,9,14
1523178502421994,40,4,-1,2,0,-2,-19,6
1523178502421994,-38,1,-10,-3,-2,-5,8,-9
1523178502443268,44,-6,9,4,-2,1,10,8
1523178502443268,21,3,-2,-4,-1,4,20,-5
1523178502445047,-42,3,0,0,2,5,-12,1
1523178502445047,-16,-2,-6,-9,-6,-15,-6,-9
1523178502457074,26,5,-4,-1,-1,3,-3,-2
1523178502457074,-4,-2,2,4,1,0,3,-14
1523178502466101,-34,-8,-1,-2,-4,3,11,-13
1523178502466101,55,-1,6,0,2,7,-6,41
1523178502481190,-96,-5,0,-2,-4,-6,-6,-33
1523178502481190,17,-4,2,-2,-2,-8,-27,-22
1523178502482144,0,2,2,-1,1,6,9,-28
1523178502482144,0,-5,-1,-2,-1,-4,2,7
1523178502503451,1,0,-4,0,-2,-5,-2,4
1523178502503451,30,0,0,-2,-2,-3,7,-9
1523178502504201,-34,-4,-6,-5,-1,-5,-26,8
1523178502504201,53,0,-2,0,-2,-2,10,9
1523178502517327,12,3,-3,1,0,0,-5,-5
1523178502517327,18,3,-1,3,2,5,5,15
1523178502525489,20,1,-3,-1,-2,-2,-13,-35
1523178502525489,-17,-4,2,0,-1,-4,5,-16
1523178502540480,-4,0,-1,-2,-1,-3,-8,-9
1523178502540480,-26,-3,-2,0,0,3,-8,28
1523178502542302,83,4,3,2,-1,-3,9,-3
1523178502542302,11,2,2,-1,-1,3,-19,-6
1523178502563578,-9,-9,-5,-5,-3,-1,-15,-4
1523178502563578,1,-2,3,-3,-3,-2,1,7
1523178502564363,-3,4,2,-2,1,4,-1,6
1523178502564363,-29,-7,-1,1,-4,-8,8,-13
1523178502585701,6,0,2,1,0,0,-4,-2
1523178502585701,1,3,-1,-1,0,-2,-6,7
1523178502587422,-41,-2,-1,1,-2,2,12,8
1523178502587422,32,3,1,0,0,3,8,0
1523178502600760,2,16,-7,-7,0,2,4,25
1523178502600760,28,-2,0,0,-1,-4,-4,-1
1523178502602461,-40,-3,-7,-6,-4,-1,9,-12
1523178502602461,-25,-2,-2,-2,-1,-3,1,-14
1523178502623517,5,-3,-2,0,-2,-2,-4,2
1523178502623517,27,4,-1,2,0,1,8,49
1523178502624525,-5,-4,1,2,-1,-5,8,-12
1523178502624525,-83,-2,-1,-3,-3,-2,9,28
1523178502645714,5,-1,-7,-2,-1,-1,3,-1
1523178502645714,-3,-13,3,-2,-2,-2,1,-32
1523178502647581,-6,1,2,-2,0,4,2,4
1523178502647581,-15,-7,-3,1,-4,-5,-4,-29
1523178502660901,19,16,6,0,0,2,11,5
1523178502660901,-35,3,1,-1,1,-1,-6,-22
1523178502662621,-1,0,-2,3,0,-1,3,20
1523178502662621,-68,3,1,-2,1,3,5,-23
1523178502690986,25,2,5,3,-1,-3,-3,22
1523178502690986,27,2,-5,-4,-1,1,0,-12
1523178502691698,-4,-6,-1,-3,-4,-4,-20,14
1523178502691698,26,7,-5,0,3,2,3,1
1523178502705747,15,-13,-1,-1,-4,-3,-1,-34
1523178502705747,-1,6,1,1,0,-6,-11,1
1523178502706739,-46,5,-2,0,-1,-2,12,38
1523178502706739,5,-9,-6,-5,-3,9,-4,-10
1523178502720016,21,-4,0,-1,3,-1,-5,1
1523178502720016,-21,-8,-3,-4,-3,-3,17,-4
1523178502727025,4,-8,-1,3,4,1,-3,-23
1523178502727025,30,6,7,1,-2,0,-4,30
1523178502743058,-24,4,-7,-11,-1,-3,-6,-30
1523178502743058,-70,-9,-4,3,2,3,8,-8
1523178502744840,93,9,-1,-4,-6,-10,-18,-51
1523178502744840,9,0,2,4,0,-3,-1,-1
1523178502766135,6,-5,-2,1,0,2,8,11
1523178502766135,13,7,-6,-1,-2,-5,-9,15
1523178502766900,-27,-12,0,-2,0,2,8,-28
1523178502766900,-39,0,0,1,1,-2,0,11
1523178502780187,120,5,1,1,-2,-1,-3,1
1523178502780187,-6,-4,1,-4,-3,-5,2,-1
1523178502786955,-9,-1,0,-3,-2,1,5,18
1523178502786955,24,3,-2,-2,-2,-5,-4,7
1523178502803238,-30,-4,6,6,2,8,11,-12
1523178502803238,-28,-15,0,0,-3,1,21,-8
1523178502804999,3,15,2,-1,1,1,3,27
1523178502804999,68,-12,-2,1,0,-7,-20,-5
1523178502826056,-48,5,-10,-4,-5,-5,-4,12
1523178502826056,19,4,-3,-2,-2,-3,-9,7
1523178502827060,0,3,-2,-2,-2,-3,-1,16
1523178502827060,-59,-15,-3,-3,-1,1,14,-16
1523178502840275,11,2,-1,-2,-1,-6,-11,4
1523178502840275,84,5,-1,-2,-2,2,5,-11
1523178502847339,11,-6,0,2,4,10,-5,-10
1523178502847339,40,8,-1,-1,-3,-4,1,14
1523178502863436,-27,-12,0,-4,-1,-5,-7,-9
1523178502863436,-5,2,1,1,2,0,-15,-13
1523178502864163,-14,-6,2,-2,-3,1,15,15
1523178502864163,11,0,-1,0,-1,-1,14,-8
1523178502886267,43,-7,0,5,-1,-1,-22,-8
1523178502886267,-46,1,-6,-4,-4,-5,-6,-57
1523178502887220,-2,0,-2,0,0,-2,-6,6
1523178502887220,-8,-1,-3,-3,0,-8,0,7
1523178502900486,-44,-8,5,2,1,12,27,18
1523178502900486,24,0,2,0,1,-1,-8,22
1523178502906268,2,1,-1,-2,-4,-3,5,12
1523178502906268,-4,1,-3,-5,-1,0,-9,-38
1523178502923518,4,-1,2,-1,-1,-2,1,1
1523178502923518,96,5,-1,0,4,3,3,6
1523178502924318,-9,-1,3,2,0,-3,-11,-18
1523178502924318,9,-10,0,-4,-4,-3,-11,-6
1523178502945374,-4,-1,1,1,2,-2,6,0
1523178502945374,-46,-4,-7,-6,-4,-2,-1,-2
1523178502947382,73,1,-6,0,0,-4,15,72
1523178502947382,-50,0,-1,-1,-2,-2,-59,-66
1523178502968665,8,1,2,1,0,5,35,1
1523178502968665,-31,15,-3,2,-1,-1,-10,4
1523178502969438,-18,-13,1,1,1,-3,-5,11
1523178502969438,14,5,-4,1,1,12,51,-14
1523178502983699,-9,5,4,-1,-3,-7,-12,-3
1523178502983699,-20,-4,-1,-1,-1,-1,-26,15
1523178502984479,-36,2,0,-2,0,2,9,-40
1523178502984479,112,3,-2,-2,2,0,-2,18
1523178503005535,6,-15,-1,2,-3,-4,-11,22
1523178503005535,23,-4,2,-7,-4,0,11,2
1523178503007542,14,-3,-7,2,-1,-5,-26,-14
1523178503007542,0,-10,1,-1,-4,-1,24,-19
1523178503019794,-13,3,-2,-4,-1,0,-1,-7
1523178503019794,-13,1,-1,-1,0,1,4,6
1523178503028596,27,-4,0,-5,-6,-6,-15,-31
1523178503028596,-56,1,-3,4,2,0,7,77
1523178503043710,-10,3,-1,1,0,-1,-40,11
1523178503043710,-21,-2,-3,-1,-1,2,31,25
1523178503044646,21,18,-4,-6,-2,7,3,23
1523178503044646,17,8,4,4,2,5,4,14
1523178503065919,-27,-4,-3,-6,-5,-11,3,-23
1523178503065919,-12,-15,3,1,1,-3,20,8
1523178503066698,61,3,-1,1,-1,-6,-19,-2
1523178503066698,-2,-3,-2,-4,-3,0,-21,-2
1523178503078739,4,0,-5,-1,-4,-7,-2,-20
1523178503078739,-9,5,6,5,2,4,7,-17
1523178503087754,-35,-14,-6,-8,0,9,45,7
1523178503087754,-3,-1,4,0,-2,-1,22,-19
1523178503103033,20,3,-2,0,1,-1,-6,24
1523178503103033,-15,-8,2,-1,-2,-4,-11,-29
1523178503104796,-50,-6,1,3,-1,-9,-24,-9
1523178503104796,68,3,-1,-4,1,0,3,41
1523178503126133,0,-2,0,-1,-2,5,12,-19
1523178503126133,22,-7,1,2,1,-1,-2,12
1523178503126857,-20,2,0,0,-1,1,3,-24
1523178503126857,2,9,-9,-2,-1,-8,10,10
1523178503138916,-13,1,2,0,2,8,-8,-6
1523178503138916,11,-4,-5,-2,-3,-2,-9,5
1523178503148053,21,-5,-3,-3,0,-2,-9,-2
1523178503148053,-13,1,1,-3,-5,-12,-26,-15
1523178503163223,93,2,2,1,0,-3,2,-2
1523178503163223,9,1,1,-3,-4,-3,-22,-14
1523178503164958,-6,2,-3,-1,0,3,8,3
1523178503164958,-24,-3,0,0,-1,-7,-18,-4
1523178503186231,1,-3,-2,-2,0,8,14,13
1523178503186231,-36,-4,-1,-5,-2,-6,-1,-10
1523178503187018,71,7,0,-2,-3,-1,-1,-11
1523178503187018,-15,-8,-2,1,-2,-1,-11,29
1523178503199301,-63,5,0,1,2,-4,-14,-11
1523178503199301,88,8,-6,-6,-5,-5,-12,3
1523178503208077,-38,-4,-1,-1,-2,-2,-11,-29
1523178503208077,4,-13,-1,1,1,8,18,-7
1523178503223371,-23,7,-2,0,-2,-1,15,-1
1523178503223371,-21,-9,-1,0,0,-3,-3,17
1523178503224120,-58,-6,-4,-6,-3,-6,-13,-2
1523178503224120,30,-7,4,3,0,0,-4,-5
1523178503246205,1,-8,-8,-4,-2,-6,-5,-8
1523178503246205,-5,-6,1,1,0,7,0,-6
1523178503247177,-2,-8,-4,0,-2,-5,3,-6
1523178503247177,-40,-5,0,-2,0,6,11,15
1523178503259460,22,7,7,0,-1,1,0,-3
1523178503259460,-2,3,-5,1,1,3,8,5
1523178503268237,23,14,6,3,1,0,2,18
1523178503268237,55,4,-2,-1,-2,-2,24,37
1523178503283593,-25,-3,-4,-3,-3,-7,-40,-45
1523178503283593,43,5,1,-1,-3,-3,4,26
1523178503284274,-18,-5,0,-2,0,6,7,-19
1523178503284274,-35,-5,5,2,1,0,-3,-17
1523178503305333,13,-6,3,0,-3,-7,-3,24
1523178503305333,-13,-27,2,-1,-2,4,9,-23
1523178503307334,82,-5,5,4,3,-2,-7,-9
1523178503307334,11,-7,-1,-6,-5,-6,-23,26
1523178503319610,20,-1,-10,-7,-2,-1,14,5
1523178503319610,-19,8,-7,0,2,-5,0,4
1523178503328393,8,2,2,2,0,2,2,8
1523178503328393,-23,-3,-10,0,-3,-2,-1,-36
1523178503343646,8,-3,4,-1,3,6,7,9
1523178503343646,18,9,-3,-2,-1,3,-3,5
1523178503344443,-100,-8,-4,-7,-6,-7,-2,-25
1523178503344443,52,13,3,2,2,-2,-7,-28
1523178503365625,-23,-5,-1,-1,-2,1,4,11
1523178503365625,-14,6,2,2,1,0,0,-14
1523178503367494,11,-3,-2,2,-2,1,13,20
1523178503367494,-77,-26,5,2,1,6,2,-47
1523178503379746,71,5,-6,-6,-5,-4,14,32
1523178503379746,-21,2,-5,-3,-1,0,-11,-39
1523178503388551,7,-2,0,0,0,-5,-17,7
1523178503388551,86,9,0,-2,-2,-1,-2,5
1523178503402779,35,-4,1,3,1,5,14,-3
1523178503402779,13,5,-8,-1,-2,-1,6,0
1523178503404597,-12,7,2,1,0,-1,-2,19
1523178503404597,-7,-1,-8,-5,-1,-1,-3,-15
1523178503425925,-25,-6,-10,-5,-4,-7,-7,4
1523178503425925,-23,1,-2,0,-3,-2,-3,-11
1523178503426654,-33,5,-2,0,-1,0,-7,-41
1523178503426654,16,7,-3,-1,-3,-4,-19,36
1523178503439734,-21,1,0,2,-1,0,27,-35
1523178503439734,-2,0,-2,-1,-1,-3,-5,13
1523178503447939,-27,-8,-1,-2,1,2,-6,6
1523178503447939,45,9,0,-1,-1,-4,-2,17
1523178503462959,-41,-4,3,1,1,5,-12,-26
1523178503462959,39,-1,3,2,1,6,4,-2
1523178503464754,-3,-4,-3,-4,-2,-4,-5,9
1523178503464754,68,-1,-4,-4,-2,-2,1,0
1523178503493052,35,0,-5,-1,-1,-1,-1,21
1523178503493052,34,-2,6,4,0,-2,5,-56
1523178503494833,32,-1,-2,-3,-1,-1,2,10
1523178503494833,-39,1,-2,0,-2,-3,8,-14
1523178503508005,-31,-8,1,2,1,-1,0,0
1523178503508005,-11,-10,5,-2,1,0,-5,23
1523178503509875,2,-2,1,1,-1,-1,5,7
1523178503509875,-36,15,-8,-5,-3,0,1,-7
1523178503524116,52,-1,-2,-4,-2,-3,13,33
1523178503524116,-29,-1,-2,0,2,-2,-31,14
1523178503524915,-35,-5,2,-2,-5,-4,-25,-30
1523178503524915,-44,-2,2,4,2,-2,14,-8
1523178503546203,-13,4,0,3,2,4,-11,3
1523178503546203,10,-4,-4,-6,-5,-4,1,15
1523178503546973,-4,-5,-4,0,-3,3,20,-46
1523178503546973,-33,-6,2,-1,-2,-5,-20,-5
1523178503568314,-38,-7,3,1,-2,-4,1,-1
1523178503568314,-6,-3,-3,-1,-3,1,15,-4
1523178503569032,36,10,4,2,2,5,0,3
1523178503569032,9,-12,-4,-6,-4,-2,5,15
1523178503583068,-49,6,1,1,2,-1,-11,-34
1523178503583068,65,7,1,-4,-2,-2,-8,-3
1523178503589087,-5,0,1,1,0,-3,3,11
1523178503589087,23,0,0,1,1,6,10,11
1523178503605129,63,5,-4,2,0,-1,-11,-3
1523178503605129,7,-3,-1,0,-3,-5,-11,7
1523178503607137,14,-2,-6,-4,-2,-3,-17,22
1523178503607137,-27,-7,5,1,1,0,-8,-9
1523178503628365,24,11,-10,-6,-6,-6,6,30
1523178503628365,62,6,9,3,1,7,11,-16
1523178503629191,-75,-13,-11,-8,-5,-9,0,-41
1523178503629191,26,1,3,-2,-1,5,-5,-6
1523178503643480,23,3,2,1,-5,-6,-20,-2
1523178503643480,-47,-4,2,-1,1,6,16,-15
1523178503644232,6,-4,1,4,2,0,1,25
1523178503644232,-22,5,-3,-1,-3,1,6,-33
1523178503665523,-18,-6,4,0,1,-1,-14,-31
1523178503665523,-11,0,-3,0,-2,-4,-6,20
1523178503667293,16,2,2,1,0,5,14,-16
1523178503667293,29,-32,10,2,-2,-12,-13,27
1523178503688347,-5,-1,1,1,1,10,13,4
1523178503688347,-23,8,-5,0,2,0,5,2
1523178503689354,-24,3,-8,-4,-4,-6,-6,8
1523178503689354,33,14,-9,-5,-2,-3,-7,-7
1523178503702530,-8,-10,-5,-1,-3,-5,-1,-14
1523178503702530,6,-6,-1,0,-3,-8,-10,-7
1523178503709689,10,1,-1,0,1,2,6,20
1523178503709689,82,8,-5,1,2,1,-13,14
1523178503725686,-56,-3,0,-6,-2,-1,18,-14
1523178503725686,1,-2,-8,-2,-1,3,-1,21
1523178503727455,59,-6,-1,-3,-5,-5,-23,-39
1523178503727455,-51,-16,2,-5,-2,-1,-2,-16
1523178503748511,49,6,-5,-1,2,1,-4,7
1523178503748511,-16,-8,1,1,-3,-6,-9,-1
1523178503749515,-10,-1,-1,4,2,1,10,16
1523178503749515,-43,3,-3,-9,-3,-3,-13,-4
1523178503762762,-15,-6,-3,-4,-3,0,-1,8
1523178503762762,28,-1,-3,-4,0,3,4,4
1523178503769565,14,4,0,2,3,0,-5,7
1523178503769565,-21,0,0,6,1,2,-3,19
1523178503785797,27,-6,-1,-1,-1,-3,-3,3
1523178503785797,-45,4,-10,-2,-6,-13,0,-14
1523178503786610,-18,-16,17,2,3,7,-5,51
1523178503786610,42,10,1,2,-3,6,14,-1
1523178503807869,-32,-3,-1,-4,-2,-1,-18,-8
1523178503807869,3,3,0,0,-2,-1,3,-3
1523178503809678,1,-24,-1,-1,-6,-14,-11,1
1523178503809678,-54,-3,-5,2,2,1,10,6
1523178503822926,31,5,-2,-2,-3,0,5,2
1523178503822926,8,-6,5,0,1,3,3,-4
1523178503828769,15,2,-7,-3,-3,-1,-5,17
1523178503828769,48,6,2,4,2,2,6,5
1523178503845920,17,-1,-1,-1,-3,-9,6,38
1523178503845920,12,-5,1,0,1,8,-9,16
1523178503846770,-14,8,-1,0,-2,1,4,-12
1523178503846770,-15,-9,-6,-5,-3,-3,5,-4
1523178503868074,-16,-5,2,2,2,1,-12,-25
1523178503868074,-10,-1,-4,-4,-4,-6,5,21
1523178503869848,121,3,4,3,1,2,5,-27
1523178503869848,18,-9,3,1,-5,-11,-8,17
1523178503883053,8,-10,3,1,1,1,2,7
1523178503883053,-5,-1,-3,-3,-3,-5,-11,-3
1523178503888880,-27,10,-14,-5,-1,2,18,-1
1523178503888880,-6,14,-8,-6,-1,-4,4,-19
1523178503906163,-59,-4,-3,0,-4,-5,-1,-52
1523178503906163,35,-2,2,2,0,2,10,21
1523178503906931,-19,-1,-6,-7,-4,0,-4,9
1523178503906931,-36,0,-1,2,8,11,8,-11
1523178503928182,93,14,2,2,1,-7,-21,45
1523178503928182,-36,2,-5,-3,0,2,43,-6
1523178503929992,12,3,-2,1,-2,-9,-16,7
1523178503929992,-31,-3,1,-2,-3,2,-2,-16
1523178503943025,17,-3,2,1,1,3,-10,12
1523178503943025,-15,-7,-4,-3,1,-4,-13,-6
1523178503949084,19,7,7,-1,2,4,4,24
1523178503949084,-3,-1,-7,-1,-1,-3,-3,-11
1523178503966201,-62,-5,-5,-1,-3,-6,-4,-10
1523178503966201,5,8,7,1,1,2,-16,-46
1523178503967089,10,2,0,3,-2,-3,-1,9
1523178503967089,-38,-4,-11,-7,-6,-8,8,-14
1523178503988147,61,1,-2,1,2,8,0,33
1523178503988147,-64,-7,1,3,2,4,14,18
1523178503989152,3,7,-1,-5,-2,-4,1,-11
1523178503989152,28,-1,0,-2,-5,-1,1,-4
1523178504002266,-32,2,3,1,1,1,13,-33
1523178504002266,61,-9,-6,-2,-5,-3,-12,20
1523178504010207,-60,-1,2,1,1,4,2,-8
1523178504010207,-31,0,1,-2,-2,-3,-2,1
1523178504025540,85,-21,6,-1,1,2,12,8
1523178504025540,-29,-2,-2,1,1,-2,3,-29
1523178504027250,29,-2,-2,-3,-2,0,-23,-12
1523178504027250,23,-2,9,1,1,2,-3,8
1523178504048548,-20,8,0,1,0,0,5,-7
1523178504048548,8,3,-1,-2,-2,-4,-2,-7
1523178504049308,5,-12,1,0,-1,-2,8,3
1523178504049308,1,12,0,2,1,1,-3,-5
1523178504062387,-38,-4,-4,-2,-4,4,4,-6
1523178504062387,1,0,-5,-6,-4,-11,-22,-5
1523178504070392,27,6,-3,0,0,4,21,3
1523178504070392,2,-8,11,4,2,3,-8,1
1523178504085584,-86,-4,0,0,-2,-5,15,-3
1523178504085584,54,3,3,4,3,9,6,45
1523178504087409,-21,-4,-8,-7,-6,-6,-9,-7
1523178504087409,-43,5,1,2,0,-4,-6,-38
1523178504108737,62,3,-6,0,-3,-4,-30,-10
1523178504108737,78,-27,1,-7,-3,2,27,21
1523178504109467,-57,-3,-7,-1,-2,-1,-2,5
1523178504109467,16,1,-4,0,-1,-2,-4,12
1523178504121497,28,4,0,-3,-4,4,15,1
1523178504121497,8,10,0,2,1,-3,-15,9
1523178504130524,21,-8,2,0,-1,1,6,-21
1523178504130524,6,-8,-6,-3,-1,-5,0,6
1523178504145819,-32,-1,-3,-1,-1,-2,-8,-11
1523178504145819,-26,2,-3,-2,0,-3,-8,-4
1523178504146570,13,-6,-1,-3,-1,-2,7,-1
1523178504146570,-15,-8,-5,-3,-1,8,8,13
1523178504168000,0,0,1,0,0,0,-6,3
1523178504168000,28,9,2,-1,-1,3,-5,3
1523178504169628,-17,-6,0,4,-2,-6,-4,-15
1523178504169628,-17,-7,-3,-3,-1,0,-9,-11
1523178504181658,17,0,-3,1,-2,-5,4,-7
1523178504181658,-23,-11,9,0,-1,0,3,-17
1523178504190685,20,26,-5,-2,0,-1,-7,29
1523178504190685,103,3,-1,2,1,-1,1,-5
1523178504205927,-19,-4,-5,-7,-1,1,7,-8
1523178504205927,0,5,0,4,-2,-10,-14,-13
1523178504206727,-15,-4,-2,2,1,5,16,-1
1523178504206727,57,10,1,2,0,-2,-11,7
1523178504228784,-1,-2,2,-2,-3,-4,2,11
1523178504228784,-37,-8,-9,-5,-5,-5,-11,-12
1523178504229788,18,-2,-2,1,1,-2,-5,-9
1523178504229788,-2,-4,-2,1,-1,-1,3,23
1523178504242039,-89,1,-1,1,-1,-4,3,-21
1523178504242039,-23,5,-3,-3,0,11,-45,-24
1523178504250850,54,-5,4,-4,1,4,12,-3
1523178504250850,-38,-4,-2,-2,-3,-5,2,-9
1523178504266125,4,1,-1,0,1,-5,-5,-2
1523178504266125,-4,2,-1,3,1,-3,13,-2
1523178504266892,-12,-1,-3,1,1,1,-2,-6
1523178504266892,-31,3,-4,-5,0,1,-6,18
1523178504287941,32,1,-1,-3,-3,-2,3,7
1523178504287941,97,-18,9,4,-1,0,-1,4
1523178504289949,-50,-6,-2,2,0,-1,-3,-6
1523178504289949,45,6,4,-1,-1,-5,9,-1
1523178504302022,16,-6,-2,-1,1,9,5,-15
1523178504302022,-20,9,-2,-1,-2,-3,13,8
1523178504311002,22,5,-1,-4,-2,0,-5,-3
1523178504311002,-23,-5,-1,1,-3,-2,-7,-13
1523178504326203,-36,-3,-6,-2,-1,-5,-8,15
1523178504326203,-39,1,-2,-1,-1,-4,-11,-47
1523178504327048,62,-3,-4,-2,0,3,-2,-17
1523178504327048,-16,12,-3,-3,-6,-6,-8,-6
1523178504355124,41,1,5,1,1,4,-5,5
1523178504355124,-33,5,-4,0,-1,-3,12,5
1523178504357129,-15,-16,-2,-5,-4,-4,5,-5
1523178504357129,-7,0,-3,-1,2,8,27,7
1523178504362395,5,-4,-2,3,-1,-4,-16,0
1523178504362395,-5,0,-2,-5,-1,-2,2,-5
1523178504371163,-3,15,-2,-1,0,-4,-3,-2
1523178504371163,-4,-6,7,2,2,1,2,-2
1523178504385276,-18,2,2,1,-1,-6,3,-2
1523178504385276,-7,-6,-5,-8,-2,1,7,17
1523178504387207,-14,8,0,1,-3,-4,-2,3
1523178504387207,56,-12,-5,-4,-2,-2,-7,18
1523178504408559,-80,-2,-2,-2,1,7,12,14
1523178504408559,26,-2,-2,-1,-1,-2,-5,-9
1523178504409266,-3,1,4,-2,-4,-5,4,-1
1523178504409266,-12,-6,-2,0,2,-4,-30,-6
1523178504430558,35,-5,-5,-1,-3,-10,14,2
1523178504430558,-9,1,-1,1,3,12,13,1
1523178504432329,-19,6,5,1,2,-4,-12,-3
1523178504432329,18,1,-8,-4,-4,-4,16,22
1523178504445620,19,0,4,-3,0,-1,-10,-2
1523178504445620,-29,-3,-3,1,-2,-5,0,23
1523178504447365,19,-5,4,1,0,0,-9,2
1523178504447365,-54,-10,-1,0,-2,0,7,-22
1523178504468592,45,1,-5,-3,0,-2,-15,-21
1523178504468592,-6,-18,12,1,-5,0,33,6
1523178504469425,16,-7,-3,-2,-1,-1,-19,11
1523178504469425,21,-1,0,3,3,0,2,7
1523178504490701,-33,1,0,-4,-2,-1,-2,-1
1523178504490701,19,7,-7,-5,-2,-7,-17,-12
1523178504492485,-1,-1,-1,0,1,2,11,-9
1523178504492485,-43,-6,-1,-2,-4,-7,-14,-18
1523178504505661,21,-1,-5,1,0,1,17,11
1523178504505661,4,10,-5,-4,-1,4,-15,-19
1523178504507524,9,0,4,4,2,1,12,-5
1523178504507524,59,10,-3,-2,2,0,4,-6
1523178504528679,4,1,1,-3,-3,1,-2,28
1523178504528679,36,9,-1,-2,-2,-4,-4,36
1523178504529586,-32,-8,-2,1,1,0,6,-6
1523178504529586,-23,-4,-2,-2,-2,2,3,-3
1523178504550925,-8,8,1,1,-1,-4,-12,-26
1523178504550925,1,-9,4,5,1,0,-10,8
1523178504551645,19,3,-2,-3,-3,-1,1,7
1523178504551645,-31,-5,-4,-4,-4,-3,-5,-2
1523178504565973,6,1,-2,2,2,6,2,-1
1523178504565973,-36,-2,-4,-1,-3,-4,-9,-23
1523178504566697,0,-8,0,0,0,0,-4,-2
1523178504566697,56,4,3,-1,0,0,-4,6
1523178504587739,62,1,2,2,-2,-3,-3,-36
1523178504587739,6,-1,-4,-3,-1,-1,5,-2
1523178504589743,-10,-4,-5,-4,-2,-5,-8,1
1523178504589743,-7,5,0,-2,-2,0,6,-6
1523178504611089,7,-1,0,-3,0,3,14,-1
1523178504611089,26,5,-6,-3,-1,2,2,5
1523178504611803,31,7,1,0,1,-3,-2,-1
1523178504611803,-21,-5,-3,0,0,0,2,29
1523178504633110,-31,-9,-6,-3,-2,2,3,-7
1523178504633110,-9,-1,-2,-2,-1,-4,0,59
1523178504634867,0,4,-2,2,-1,4,7,-4
1523178504634867,4,1,-1,0,-2,-3,-11,3
1523178504648149,-29,-17,3,0,0,-1,-1,16
1523178504648149,-10,-19,-1,-3,0,-1,1,-22
1523178504649906,-3,-10,4,-2,-3,-1,-4,16
1523178504649906,68,-5,-2,-2,-2,-2,5,40
1523178504669960,-64,-5,-5,0,-2,-4,-14,-29
1523178504669960,24,4,5,2,-2,-1,0,-20
1523178504671966,-13,-2,-2,-3,-1,2,2,17
1523178504671966,-8,7,2,3,1,4,-2,-30
1523178504685033,15,-10,-4,-2,-3,-2,-6,14
1523178504685033,-7,5,1,1,0,0,-1,-3
1523178504692237,-36,-6,-4,-2,-5,-1,-1,-15
1523178504692237,4,1,-2,1,-1,-7,-19,28
1523178504708282,66,6,3,-1,-2,3,12,-8
1523178504708282,9,2,-7,-1,-2,-4,0,-22
1523178504710063,1,-28,20,4,3,2,-2,4
1523178504710063,-25,2,-1,-1,-1,-1,-1,-17
1523178504731188,7,4,-1,0,0,-5,-13,7
1523178504731188,2,-6,0,2,0,5,0,1
1523178504732122,10,11,-7,-4,-4,0,-15,-34
1523178504732122,-19,-4,-1,-4,-4,0,1,8
1523178504745307,-19,-11,1,1,1,0,-4,-5
1523178504745307,-39,12,1,2,3,4,14,6
1523178504751416,30,8,-9,-4,0,-2,5,-5
1523178504751416,-18,-13,5,-2,-2,1,5,-26
1523178504768345,-5,6,-4,0,2,-2,-4,11
1523178504768345,-11,-6,-8,-3,-3,-4,-7,14
1523178504769221,-16,2,-3,-3,-5,-5,1,17
1523178504769221,-12,-4,1,2,1,0,-7,-18
1523178504790518,22,0,0,1,-2,2,13,9
1523178504790518,30,-4,-1,-3,0,0,-6,-11
1523178504792282,-21,2,0,1,-1,0,1,-3
1523178504792282,40,1,-3,-1,1,4,8,-9
1523178504805315,-27,-1,-8,-8,-7,-8,-12,-14
1523178504805315,16,-7,4,0,-1,-4,11,-28
1523178504811629,-8,-19,-1,-3,0,1,17,8
1523178504811629,4,8,4,2,3,4,-13,13
1523178504828596,-16,1,1,-2,0,2,-4,-15
1523178504828596,-4,-5,-3,-1,-4,-3,5,17
1523178504829382,38,1,-5,-1,-2,-4,-6,0
1523178504829382,-19,0,-2,0,-3,-5,-2,-22
1523178504850680,25,-3,6,-2,-1,-2,0,8
1523178504850680,-50,-4,-7,-1,-4,-6,-13,-61
1523178504852446,56,5,-1,2,1,2,-1,-5
1523178504852446,6,-1,-5,-2,0,2,5,-17
1523178504864478,35,4,-6,-6,-4,-5,-7,39
1523178504864478,-16,2,-1,-3,-4,-6,-7,4
1523178504871682,41,-1,-1,5,4,2,-4,-3
1523178504871682,-66,-10,-2,0,-2,-3,14,-21
1523178504888692,26,6,-7,-6,-1,3,-15,56
1523178504888692,28,9,5,3,2,0,-6,24
1523178504889542,-29,6,-3,-6,-2,-2,1,-21
1523178504889542,-2,3,-2,3,-1,-6,-11,2
1523178504910866,-19,-3,-11,0,0,0,-1,-4
1523178504910866,-8,-1,-4,-2,1,1,1,21
1523178504911600,-25,18,-4,-3,-2,-1,-8,-3
1523178504911600,3,3,-1,-1,1,-3,10,10
1523178504924741,-20,0,-4,0,-4,-1,2,-38
1523178504924741,11,-7,-4,-3,-2,-4,-16,-14
1523178504932921,-15,-4,0,3,2,3,9,18
1523178504932921,45,9,-2,-6,-4,-2,5,-11
1523178504947967,116,2,6,5,-1,-2,15,7
1523178504947967,-12,-2,0,-1,0,1,-5,-10
1523178504949702,-1,0,2,2,1,-6,-9,12
1523178504949702,64,-13,-7,-8,-5,0,16,13
1523178504970758,-9,1,5,3,2,3,-6,-12
1523178504970758,5,1,3,0,0,2,28,6
1523178504971846,-4,-7,-4,-4,-2,-3,-2,12
1523178504971846,-8,3,1,2,0,-1,-15,-13
1523178504984061,-1,-2,2,-6,-3,0,12,12
1523178504984061,28,7,2,3,1,0,3,-10
1523178504993056,-35,0,4,-1,-2,0,2,-16
1523178504993056,-41,-3,-3,5,1,-2,-4,-5
1523178505008108,25,9,-11,-10,-2,0,-4,11
1523178505008108,-22,0,-2,-2,-2,-2,-11,10
1523178505009863,100,8,-2,0,-4,-2,0,-19
1523178505009863,-62,-12,4,-3,-2,-5,-16,4
1523178505031168,-22,0,2,5,3,7,20,-10
1523178505031168,9,-8,-3,3,0,-1,-5,-7
1523178505031920,1,-3,-6,-6,-5,-5,-10,11
1523178505031920,18,4,0,2,0,3,-1,3
1523178505043952,-29,-6,3,1,-2,-5,-4,-4
1523178505043952,3,0,0,-1,0,1,2,12
1523178505052974,-15,-7,-1,-1,-2,-6,3,-3
1523178505052974,-9,-4,0,0,0,3,-3,-16
1523178505068080,-21,-7,3,0,-1,-5,-4,-1
1523178505068080,9,8,6,-2,-1,0,-2,6
1523178505070019,-29,-4,0,2,1,1,2,5
1523178505070019,32,3,-5,-5,-3,0,-4,3
1523178505091075,-31,4,-9,-1,-4,-11,-6,-31
1523178505091075,-2,-19,-2,-3,-2,3,-15,10
1523178505092119,29,7,1,-1,-2,-3,-3,6
1523178505092119,-80,-8,-3,1,1,8,20,20
1523178505104111,17,2,3,0,1,-1,-11,3
1523178505104111,38,5,-1,-2,-3,-6,4,25
1523178505113137,-39,-11,2,1,3,4,0,-19
1523178505113137,21,-2,1,0,-1,-4,-9,7
1523178505128479,-7,-5,2,1,-2,3,6,-7
1523178505128479,26,3,0,1,0,0,4,16
1523178505129177,10,7,-2,-2,-1,-1,-5,6
1523178505129177,9,3,-1,-6,-3,-5,5,4
1523178505150496,-25,-7,-6,-1,-1,-5,-18,-11
1523178505150496,10,7,1,2,0,0,9,-15
1523178505152243,-3,9,5,-1,0,4,-14,7
1523178505152243,1,-3,-2,3,0,-3,8,1
1523178505164537,-23,-11,-7,-7,-3,-9,-26,-3
1523178505164537,-5,1,-1,2,-3,-3,-18,-38
1523178505173295,-12,-9,-4,-1,0,1,6,2
1523178505173295,-2,11,-7,-2,-4,-4,-11,2
1523178505188675,-7,-7,6,3,5,6,10,-4
1523178505188675,58,12,-15,-5,-3,-5,-10,23
1523178505190342,-9,-8,-3,-5,-3,-3,7,-3
1523178505190342,46,12,0,4,1,-3,-16,-17
1523178505210589,10,4,-5,-1,-3,1,24,32
1523178505210589,-21,-10,1,-4,0,1,12,-13
1523178505212400,-6,0,-5,-5,-4,-3,-2,0
1523178505212400,-18,-8,1,0,0,0,-7,-1
1523178505224732,29,7,5,0,-1,-1,4,4
1523178505224732,-26,-7,1,3,0,-1,2,10
1523178505233458,2,-5,5,-2,-4,-3,-17,-27
1523178505233458,16,7,7,2,1,5,-9,3
1523178505248577,-36,-3,1,-1,-2,2,2,13
1523178505248577,25,2,1,-3,0,0,3,0
1523178505249498,-22,-7,-2,1,1,0,3,5
1523178505249498,10,-9,-3,-7,-3,-4,-5,-9
1523178505270554,85,-15,7,9,3,-1,-6,-11
1523178505270554,1,3,-5,-2,0,4,10,-1
1523178505271556,69,0,-4,-3,-2,-2,-11,-7
1523178505271556,-61,-10,4,0,1,-2,2,-14
1523178505284631,-15,3,-7,-3,-3,3,-2,-1
1523178505284631,-11,-3,3,6,1,-2,-3,33
1523178505292613,-72,-7,-5,-4,0,1,2,-64
1523178505292613,44,4,-3,-3,-5,-4,0,-33
1523178505308654,-11,5,5,3,5,4,4,-3
1523178505308654,-39,1,-3,-4,-1,-1,1,0
1523178505309658,10,-8,10,2,-1,-4,-2,20
1523178505309658,-5,-5,2,1,-1,2,-5,10
1523178505330966,-13,2,-4,-4,-2,-7,17,-27
1523178505330966,-14,0,2,0,-1,-1,-14,-27
1523178505331714,18,14,0,0,0,5,13,37
1523178505331714,38,-2,0,-1,1,-1,13,30
1523178505344756,-74,-5,0,0,-1,-2,-10,-7
1523178505344756,6,-17,4,-3,-3,-6,-8,-10
1523178505352774,-54,-3,-5,-2,-2,-4,-16,21
1523178505352774,12,4,1,3,3,6,13,6
1523178505367850,1,-1,-1,-7,-3,-3,-7,-2
1523178505367850,-14,2,-3,-1,-2,0,-2,-12
1523178505369819,7,-2,-7,-1,0,-1,1,11
1523178505369819,7,-3,1,1,-2,-5,-1,0
1523178505391105,12,3,-3,-1,0,3,4,15
1523178505391105,-31,-3,-2,-6,-5,-5,-1,-19
1523178505391876,37,0,5,1,1,4,1,13
1523178505391876,-25,1,-6,0,-2,-2,3,2
1523178505413078,32,-5,-3,1,1,-2,-8,-4
1523178505413078,0,4,-2,-4,-2,1,4,8
1523178505414938,-8,-5,-8,4,1,-3,-4,-14
1523178505414938,14,-4,-3,-5,-2,-3,17,20
1523178505427266,-37,13,5,1,0,-1,-10,-6
1523178505427266,43,-3,-3,3,1,2,9,2
1523178505435995,21,4,-6,-4,-4,-5,-7,-14
1523178505435995,-4,-10,-2,-2,-1,-2,-5,-18
1523178505451111,26,0,0,0,-2,-4,-1,13
1523178505451111,-55,-3,-4,-3,0,0,-1,-26
1523178505452036,-2,11,-5,-6,-3,1,12,-4
1523178505452036,3,5,3,0,2,3,4,2
1523178505473401,72,-1,-4,-5,-6,-5,-12,6
1523178505473401,-16,0,3,4,1,1,-3,5
1523178505475098,5,-9,-6,-2,0,-2,0,3
1523178505475098,-6,14,4,1,0,2,-5,4
1523178505488440,-1,-5,0,-6,-2,0,0,2
1523178505488440,-7,1,4,0,2,0,-1,-5
1523178505489138,0,0,4,-1,-1,0,0,-20
1523178505489138,-14,-9,-6,-5,-6,-9,-11,-11
1523178505510463,-21,6,2,2,2,3,1,-22
1523178505510463,36,1,-4,0,-2,-3,-8,4
1523178505512195,48,-4,5,3,1,0,0,15
1523178505512195,31,-1,-6,-3,-2,-2,-9,9
1523178505533556,49,5,-5,0,-3,-10,4,-4
1523178505533556,-71,-9,-1,0,-1,6,2,-5
1523178505534257,-35,-6,-4,-6,-4,-10,-4,-22
1523178505534257,6,1,-2,2,-4,-2,-10,14
1523178505547556,31,-13,-8,-2,0,-1,-1,22
1523178505547556,37,4,-2,-4,-1,-6,0,-2
1523178505554548,-23,-17,9,3,3,8,8,12
1523178505554548,-56,-12,-3,-5,-4,-3,-7,1
1523178505570352,24,4,1,1,0,2,7,39
1523178505570352,-4,2,-1,-1,-2,1,-3,-53
1523178505572358,10,-1,-5,-1,-3,-2,-1,2
1523178505572358,-25,-6,4,-2,0,-2,1,-11
1523178505593518,-15,-1,2,-1,0,1,-12,2
1523178505593518,9,-3,-5,0,-1,-2,4,18
1523178505594417,57,-3,3,4,2,-2,0,14
1523178505594417,-60,-5,-3,-4,-1,0,14,1
1523178505607674,17,1,-1,0,1,4,-5,-19
1523178505607674,3,-6,-3,-3,-4,-5,0,-14
1523178505614717,8,11,2,0,1,2,-24,-26
1523178505614717,39,-1,1,-1,-2,-3,0,35
1523178505630755,-5,-4,4,-2,-2,1,-1,-14
1523178505630755,-54,-4,0,3,2,2,-4,12
1523178505632514,60,5,-4,-4,-4,-3,14,-5
1523178505632514,-4,5,-3,-1,1,-1,-12,-17
1523178505652570,-25,1,1,-2,-2,-3,0,-8
1523178505652570,27,7,6,1,2,2,5,5
1523178505654578,-44,-8,-4,-7,-3,-6,0,19
1523178505654578,26,11,-5,0,-3,-4,-7,-36
1523178505667649,13,1,0,-2,0,3,15,-22
1523178505667649,49,-8,-8,-5,-1,0,-3,48
1523178505674734,9,8,3,4,3,1,17,7
1523178505674734,3,-5,-2,-4,-1,-3,-13,-10
1523178505690920,2,1,-2,-1,-5,-4,3,20
1523178505690920,4,-6,2,1,1,1,1,-5
1523178505691674,-15,4,0,1,-1,1,15,-8
1523178505691674,-8,-3,4,5,4,5,3,-17
1523178505714004,-33,-2,-4,-3,-3,-4,-11,-2
1523178505714004,-8,4,1,-1,-2,-3,1,5
1523178505714734,20,1,-2,-2,-3,2,-7,23
1523178505714734,24,5,-1,-1,-2,-1,11,-2
1523178505728041,8,-4,2,2,0,-1,-14,4
1523178505728041,-6,-2,-3,-1,-1,0,17,-49
1523178505741807,-37,3,3,0,0,-4,-15,-17
1523178505741807,7,-2,2,3,0,-2,-4,12
1523178505750869,-15,2,-1,1,4,7,9,16
1523178505750869,64,0,3,-1,-4,-10,-15,-14
1523178505751831,-73,4,-8,-1,-4,0,14,15
1523178505751831,49,-16,0,0,0,-2,-19,17
1523178505773133,-31,0,3,3,1,-1,0,-17
1523178505773133,29,-2,-6,-6,-2,1,8,17
1523178505774895,-6,-1,-1,0,-2,-3,-13,1
1523178505774895,-31,4,-4,1,-1,2,7,13
1523178505788011,50,-1,-3,-1,-4,-3,-11,4
1523178505788011,-19,2,3,2,0,-1,-9,-8
1523178505794239,16,-10,0,-1,-1,0,1,22
1523178505794239,6,1,-2,-3,-1,2,13,14
1523178505811173,-7,-9,-8,-3,-4,-4,-2,-16
1523178505811173,-8,3,-1,1,-2,-2,0,-2
1523178505811994,-24,-4,-1,-1,1,0,3,-6
1523178505811994,18,3,3,-1,0,-2,-11,-21
1523178505833321,-27,-1,-3,-5,0,2,14,4
1523178505833321,94,3,2,2,-4,-4,-17,16
1523178505835099,59,-6,-2,-3,1,-1,4,10
1523178505835099,-31,-5,-1,-2,-3,-5,-14,-9
1523178505847354,6,1,4,2,-1,-4,6,-6
1523178505847354,8,-16,2,-4,-2,1,-10,68
1523178505854356,15,6,-1,2,2,5,8,-21
1523178505854356,4,2,-2,-2,-3,-6,-9,-7
1523178505871218,2,-2,-1,1,0,-3,5,-26
1523178505871218,-68,0,-2,1,2,-2,-5,13
1523178505872153,1,6,-8,-5,-3,4,18,-35
1523178505872153,-22,0,-2,1,-2,-2,4,-2
1523178505893428,-24,-3,1,1,1,2,-1,5
1523178505893428,1,4,0,-2,0,1,6,-7
1523178505894210,1,-8,-1,-1,-3,-7,-25,-12
1523178505894210,50,4,-2,-2,-1,3,10,20
1523178505907245,-38,-6,-8,-7,-3,-1,-7,-16
1523178505907245,53,9,3,0,1,0,3,-2
1523178505915571,-49,-13,-2,-2,-2,-4,-2,5
1523178505915571,-13,-3,1,3,3,6,29,10
1523178505930560,28,1,2,3,0,-3,0,35
1523178505930560,-47,-2,0,-3,-3,-2,-4,-33
1523178505932312,-25,-24,6,3,0,-2,1,0
1523178505932312,18,-2,-1,0,1,2,2,-7
1523178505953366,3,0,8,2,1,-2,-7,7
1523178505953366,24,2,-8,3,2,3,5,-21
1523178505954421,-3,16,-1,-2,-2,-5,-22,20
1523178505954421,-7,-8,-1,-2,-3,2,4,0
1523178505966657,14,-4,-1,-3,-2,-3,-9,-15
1523178505966657,55,4,-1,-3,-1,-2,-3,-14
1523178505975427,66,7,0,0,0,-1,-14,-14
1523178505975427,-4,2,-4,-5,-2,-3,-14,11
1523178505990705,-32,4,-3,-2,-2,-5,11,7
1523178505990705,0,-4,-2,-3,-1,1,0,3
1523178505992471,-4,1,-3,0,0,4,14,-4
1523178505992471,4,1,1,0,-1,-1,-5,-14
1523178506013714,15,-8,-7,-2,-3,-4,3,-13
1523178506013714,-44,-2,-2,-2,1,0,3,11
1523178506014536,-20,-7,-1,6,1,2,1,-11
1523178506014536,33,5,-3,-4,-4,2,15,-9
1523178506026754,17,-3,-6,2,0,-3,-12,2
1523178506026754,-48,-18,-5,-5,-5,-11,-3,3
1523178506035584,-1,-12,8,4,3,11,8,18
1523178506035584,-4,-9,-5,-3,-4,-4,-3,2
1523178506050666,65,2,-3,-2,1,4,2,-5
1523178506050666,-46,6,3,0,-2,-1,-9,14
1523178506051632,35,3,-6,-1,1,-5,-17,-1
1523178506051632,-24,-8,4,2,1,4,16,2
1523178506072941,2,-5,5,-1,-1,1,-5,6
1523178506072941,-7,2,0,3,1,0,6,-5
1523178506074694,-24,1,-3,-4,-6,-8,-16,16
1523178506074694,-3,3,0,3,2,5,-5,-24
1523178506086725,-60,0,-3,-5,-3,-1,-6,-6
1523178506086725,5,0,-4,2,-1,-3,7,-9
1523178506096749,16,2,-2,-5,-2,-7,-8,-26
1523178506096749,10,-2,-1,-3,-4,-7,-3,5
1523178506110824,-12,0,2,3,1,6,5,12
1523178506110824,-18,0,-2,-1,-1,-1,-45,-22
1523178506111791,22,0,-3,-5,-1,7,35,6
1523178506111791,-25,-2,-1,-2,-1,-2,-9,3
1523178506133182,-8,-10,7,2,1,-2,0,-20
1523178506133182,-43,-2,-1,-2,-1,3,12,4
1523178506134850,13,2,-4,2,0,-2,-14,24
1523178506134850,-50,-4,2,5,3,-3,-16,-5
1523178506147204,-13,1,-5,-7,-4,-4,-4,-4
1523178506147204,39,3,-4,-5,-2,-1,10,3
1523178506155906,0,-1,5,2,-2,-4,-2,25
1523178506155906,-6,4,-2,1,1,-1,-1,-9
1523178506171247,25,0,-1,1,-1,-3,-8,8
1523178506171247,1,-2,-5,-4,-1,5,10,-19
1523178506171951,-9,7,2,-1,-2,-1,-3,-2
1523178506171951,8,-3,-5,-4,-2,-1,3,-27
1523178506193318,-15,5,2,2,0,-1,-6,-9
1523178506193318,30,2,3,3,1,2,7,22
1523178506195010,-31,2,-1,-3,-1,-1,0,-18
1523178506195010,-1,-7,-2,-1,-1,-5,-2,7
1523178506207348,8,12,-6,-1,-1,5,-2,-5
1523178506207348,69,-3,3,1,-2,-8,3,-12
1523178506215394,-57,-1,-4,1,3,9,8,-13
1523178506215394,56,2,1,2,2,-2,-3,33
1523178506231143,-16,-11,-11,-7,-5,-2,16,12
1523178506231143,35,-1,1,0,0,-1,-5,-26
1523178506232110,-1,2,-2,1,-2,-7,-11,-18
1523178506232110,33,3,-6,-5,-1,2,10,26
1523178506253440,8,4,-5,-2,-5,-6,-3,-5
1523178506253440,-21,-5,-1,-5,-3,-3,-7,4
1523178506254167,-22,-7,5,3,0,-3,4,22
1523178506254167,19,0,-5,-1,-2,5,-10,-22
1523178506267201,32,2,3,-1,-2,-5,-26,-20
1523178506267201,-49,0,2,1,2,2,-3,-2
1523178506275551,30,-1,-6,-8,-6,-3,5,1
1523178506275551,-11,1,4,2,1,0,3,-20
1523178506298611,-1,5,-2,0,1,3,24,12
1523178506298611,6,-7,-7,-1,-2,-5,-26,22
1523178506299289,48,-1,2,2,1,8,16,-2
1523178506299289,23,1,-3,-3,-2,0,-4,5
1523178506313642,-19,9,-3,-3,0,-4,0,-35
1523178506313642,-40,5,1,3,2,3,12,-4
1523178506314330,90,10,3,1,0,-1,-8,-8
1523178506314330,-22,-8,-3,-4,-5,-7,-9,-10
1523178506335381,6,1,0,-2,1,-3,14,16
1523178506335381,2,0,0,1,-1,4,5,48
1523178506337390,4,8,-5,-5,-8,-8,-6,-24
1523178506337390,11,-2,2,2,0,1,5,7
1523178506350422,-16,-8,0,1,4,7,13,22
1523178506350422,7,-3,-3,-3,-4,-9,-15,-6
1523178506352427,52,5,1,1,-1,4,10,-47
1523178506352427,26,-12,-5,-4,-3,-3,0,22
1523178506373767,45,-7,4,2,-1,-4,-13,-12
1523178506373767,0,4,0,0,-1,0,11,-17
1523178506374486,4,-5,-5,-1,2,-9,5,10
1523178506374486,-62,16,3,4,4,9,-26,26
1523178506395861,-24,-10,7,3,-3,-1,-14,-32
1523178506395861,46,9,0,-6,-3,1,4,18
1523178506397568,-40,-6,-3,-3,-1,-7,-18,5
1523178506397568,1,8,0,0,-1,-3,17,10
1523178506409896,2,-17,0,-1,-1,-2,4,29
1523178506409896,2,2,-1,-1,-1,4,-4,-19
1523178506416922,-45,-8,-5,-3,-1,5,8,6
1523178506416922,24,2,0,-1,-3,-10,-7,9
1523178506433682,11,-6,-8,-3,-2,0,-9,0
1523178506433682,-51,1,4,-1,-2,-5,-2,-10
1523178506434648,21,-12,4,4,0,3,29,15
1523178506434648,23,0,3,-3,1,4,-10,-9
1523178506456043,-19,0,-4,1,-2,-3,-1,6
1523178506456043,1,-4,-1,-1,-1,-4,1,1
1523178506456704,-18,14,1,3,0,2,-4,15
1523178506456704,7,-17,5,-1,0,1,8,-46
1523178506471073,-18,-9,-5,-4,-2,1,-12,20
1523178506471073,5,-4,-6,1,0,0,10,3
1523178506471751,1,6,5,0,0,-3,-14,3
1523178506471751,15,1,2,0,-2,-4,8,-22
1523178506493083,19,12,-2,0,-1,0,6,19
1523178506493083,1,-6,-1,-2,0,7,-1,-6
1523178506494807,18,-8,-6,-4,-3,-5,-13,6
1523178506494807,-15,8,-3,0,-1,-4,-12,2
1523178506516174,89,6,2,1,1,1,18,6
1523178506516174,-3,-3,-6,-3,-1,-1,-13,-25
1523178506516866,17,2,1,-2,-3,0,-9,-5
1523178506516866,-21,-14,3,0,0,2,2,-6
1523178506530220,35,10,0,0,-4,-2,-3,0
1523178506530220,5,-5,0,-3,-4,-3,0,-4
1523178506537270,-20,7,-3,-1,-2,-5,-3,9
1523178506537270,14,-11,-4,2,3,2,6,-1
1523178506552961,-44,6,2,-1,2,7,17,-32
1523178506552961,9,4,-6,6,1,1,0,2
1523178506554965,-12,-3,-2,-2,1,-2,-5,-5
1523178506554965,-9,8,2,4,0,0,8,-6
1523178506576219,42,-2,-2,3,0,-3,-19,-23
1523178506576219,-61,-5,1,-7,-3,-5,9,-4
1523178506577031,60,-12,-5,-3,-1,-2,-4,-27
1523178506577031,-15,4,-7,-8,-6,-2,-1,-30
1523178506590332,-1,0,2,1,1,2,8,8
1523178506590332,-3,-7,-5,-4,-5,-9,-34,-28
1523178506597362,-41,-16,-13,-4,2,0,-15,15
1523178506597362,71,8,-1,-4,-1,-3,-3,12
1523178506613122,-98,-10,-9,-5,0,3,11,-7
1523178506613122,41,0,-1,-1,0,-1,12,-1
1523178506614124,-8,-1,3,4,4,7,22,3
1523178506614124,22,-6,-10,-11,-7,-6,-8,-2
1523178506635178,33,3,8,0,0,-5,-6,26
1523178506635178,-12,-3,-2,3,1,0,-13,1
1523178506637188,-6,-15,9,-4,-4,-5,0,-7
1523178506637188,-18,1,0,3,0,2,6,2
1523178506650220,-17,-2,-4,-3,0,-3,-1,13
1523178506650220,18,3,-1,-1,-2,-1,-4,1
1523178506657237,-61,-2,-1,-4,-4,-2,8,19
1523178506657237,-4,3,-3,1,0,2,-4,2
1523178506673552,-17,-11,-3,0,-3,-2,-5,17
1523178506673552,-27,3,3,-2,-3,1,16,-32
1523178506674284,8,4,-2,-5,-1,0,-10,-1
1523178506674284,-3,-1,-2,-5,-2,-7,-9,0
1523178506695596,96,4,-2,1,-3,-1,-10,-4
1523178506695596,-14,-1,1,0,3,2,12,14
1523178506697346,73,10,2,3,0,-1,-1,20
1523178506697346,-31,-4,1,-1,-4,-1,-3,12
1523178506710564,28,14,0,-5,-2,-3,8,12
1523178506710564,42,-8,-5,-1,1,4,-30,16
1523178506716709,-27,4,-4,-3,-4,-3,4,3
1523178506716709,-5,-1,1,3,2,0,-1,-9
1523178506733457,15,2,0,-2,-3,-9,3,5
1523178506733457,0,3,-6,0,0,9,25,-10
1523178506734442,-19,-1,0,1,0,-1,-3,-5
1523178506734442,26,-7,3,0,-2,-1,-5,19
1523178506755802,-60,-4,-1,1,-1,-4,2,-23
1523178506755802,90,6,7,-1,2,-1,-4,-62
1523178506757504,-9,1,-8,-7,-3,-6,-13,-1
1523178506757504,25,6,2,1,2,3,12,19
1523178506770585,-12,-3,-1,-3,-2,0,-11,-13
1523178506770585,11,-17,-2,-4,-2,-4,-4,29
1523178506776828,10,2,1,4,2,1,11,-13
1523178506776828,9,2,-6,-2,-2,-6,-14,1
1523178506793716,-8,-2,-2,1,-1,3,2,39
1523178506793716,-29,2,2,-3,-1,-4,0,-10
1523178506794605,-5,3,-1,-1,-3,-3,-26,-12
1523178506794605,-53,-9,-3,0,-2,-6,6,2
1523178506822936,-50,-3,-1,3,3,6,1,-51
1523178506822936,26,0,3,2,-2,0,0,37
1523178506824682,10,4,1,0,0,-5,3,-15
1523178506824682,-2,-5,4,1,3,4,0,-20
1523178506829872,-14,-6,-4,-6,-4,-7,-5,-7
1523178506829872,51,6,0,2,2,-1,8,3
1523178506837964,78,3,-5,-4,-4,1,9,-4
1523178506837964,-8,4,-4,1,1,3,2,-1
1523178506853760,25,-5,-3,-6,-4,-4,-15,10
1523178506853760,-7,-1,2,0,-3,-5,1,-19
1523178506854764,-12,1,4,-1,0,-4,-13,8
1523178506854764,15,3,-11,-4,-1,3,19,-7
1523178506876112,-13,-3,1,0,-2,-3,-10,-5
1523178506876112,-14,8,-3,1,-1,-1,2,26
1523178506876823,-29,-10,-7,-3,0,3,-22,-8
1523178506876823,-8,-3,5,0,1,-3,7,0
1523178506889162,-31,-3,-2,0,-1,-4,-18,9
1523178506889162,21,0,0,2,2,7,24,5
1523178506898059,-77,-12,-2,0,-4,-4,0,-12
1523178506898059,88,2,-3,-5,-3,2,-2,3
1523178506913199,9,-6,-2,-7,-2,-2,-1,-10
1523178506913199,-11,-4,2,0,1,-4,-4,6
1523178506914924,59,1,-3,1,1,-1,-6,8
1523178506914924,22,1,-2,-1,-2,-4,-18,7
1523178506934974,-12,3,1,1,0,-2,14,-9
1523178506934974,-34,-9,3,1,-1,-1,-15,15
1523178506936148,-5,12,-3,-2,1,5,15,1
1523178506936148,-42,-4,-3,3,0,-3,-6,-11
1523178506957037,17,-1,-3,1,-2,-2,-16,-6
1523178506957037,-10,0,0,-2,-3,-7,-13,1
1523178506958038,8,-4,-1,1,1,-1,4,-3
1523178506958038,-21,-2,2,0,0,0,1,4
1523178506972329,-13,0,-3,0,-1,5,14,10
1523178506972329,-15,-1,-10,-7,-5,-6,-16,-24
1523178506973083,30,2,3,3,1,0,2,6
1523178506973083,-108,-19,-4,-9,-3,0,10,-33
1523178506995451,93,-5,6,2,2,9,22,-5
1523178506995451,-29,3,-4,-4,-1,1,4,8
1523178506995451,-84,-5,-1,1,1,-3,3,-20
1523178506995451,30,5,-3,2,-1,-2,-4,18
1523178507017195,-5,2,-1,-4,-3,-7,-16,6
1523178507017195,5,-4,-2,1,-3,1,5,10
1523178507018196,-13,-6,-5,-6,-2,3,11,23
1523178507018196,15,-1,1,2,-3,-4,-5,-9
1523178507032502,-17,1,1,-2,-1,-5,-16,-8
1523178507032502,16,1,-2,-2,-1,3,4,11
1523178507033238,-4,-8,2,1,2,0,-18,-23
1523178507033238,2,7,1,0,-3,-3,-3,44
1523178507055347,68,-5,-1,0,0,3,6,-19
1523178507055347,-93,-9,-2,-6,-6,-9,2,3
1523178507055347,65,-1,-3,3,1,6,3,-13
1523178507055347,3,-3,-3,-6,-2,-2,-8,-30
1523178507077356,-42,2,4,5,4,0,3,-2
1523178507077356,30,3,-6,-7,-6,-6,-22,20
1523178507078358,-1,1,-2,1,-4,-2,4,11
1523178507078358,-29,-7,5,0,1,1,2,-18
1523178507092649,-26,3,-2,-2,-3,-4,-7,-10
1523178507092649,30,1,3,2,2,2,6,-8
1523178507093399,-21,1,0,-1,-4,-5,-3,-3
1523178507093399,19,-3,3,-3,0,4,13,6
1523178507114763,19,3,0,-2,-2,-2,-19,13
1523178507114763,2,-6,3,5,3,-1,-4,-4
1523178507115456,-9,-4,-1,0,-3,-2,-6,-16
1523178507115456,23,11,2,2,1,-7,6,11
1523178507137779,-20,-5,-4,-5,-3,7,20,1
1523178507137779,6,4,-2,2,1,1,5,-17
1523178507137779,4,-4,0,-3,-1,-1,-4,-25
1523178507137779,-51,-8,-1,1,-1,-1,8,0
1523178507152556,27,-3,-3,0,1,-3,-7,28
1523178507152556,-21,-4,1,1,-2,-2,-4,5
1523178507153674,10,-1,-3,-4,1,0,18,15
1523178507153674,24,3,1,-3,0,2,-2,-2
1523178507174614,-3,0,1,1,-1,-4,2,-12
1523178507174614,13,1,1,-2,0,3,11,6
1523178507175614,-70,-2,0,-3,0,-5,10,2
1523178507175614,58,10,1,5,1,1,-13,-4
1523178507197878,-8,-6,0,-4,-3,-5,16,-11
1523178507197878,41,0,-2,-1,-3,5,-20,-6
1523178507197878,9,3,2,-1,-1,-1,-4,-7
1523178507197878,4,0,-7,-4,-3,-4,-10,-3
1523178507212915,-31,-2,6,1,1,2,4,-14
1523178507212915,50,3,-2,0,1,-3,11,4
1523178507212915,54,-1,1,0,-2,-2,-6,22
1523178507212915,9,-2,-4,-2,-2,0,-3,-1
1523178507234771,8,3,-7,0,-1,-2,-5,13
1523178507234771,0,-3,-1,2,1,0,12,-13
1523178507235778,-11,0,-4,-3,-3,1,5,13
1523178507235778,-4,15,-5,2,1,2,8,1
1523178507257099,6,-7,-1,1,0,-2,-4,-7
1523178507257099,-14,3,-4,-2,-2,-3,0,-5
1523178507257836,21,-3,2,3,-2,1,4,21
1523178507257836,16,5,-1,-3,-5,-4,-9,-26
1523178507272987,30,-1,-6,3,1,0,-2,5
1523178507272987,-24,0,-5,-5,0,1,12,4
1523178507272987,43,3,2,0,-1,-5,-32,-7
1523178507272987,-15,-13,-6,-4,-4,0,29,42
1523178507295212,22,2,5,1,0,-6,-13,-38
1523178507295212,-8,-4,3,0,2,9,6,-2
1523178507295935,0,7,-2,0,1,0,1,-14
1523178507295935,51,-6,2,-3,0,-3,-14,1
1523178507316994,-96,-6,-3,0,0,-3,-7,-8
1523178507316994,25,1,0,1,1,-4,-14,6
1523178507317993,-15,-20,4,-2,0,2,8,25
1523178507317993,14,-2,-5,-3,-4,-1,-2,-12
1523178507332305,-3,17,-5,-6,-3,-1,1,7
1523178507332305,-13,-8,4,1,1,-1,-12,16
1523178507333040,-14,7,5,-3,-1,0,7,-11
1523178507333040,-17,-4,4,1,0,0,-4,3
1523178507355414,7,3,-2,0,0,1,-1,-1
1523178507355414,-42,-5,-2,-3,2,10,26,11
1523178507355414,67,6,-2,0,-1,-7,-21,18
1523178507355414,13,3,0,-6,-4,-7,-12,36
1523178507377427,19,-4,-3,1,-2,2,-21,-12
1523178507377427,68,5,-1,-2,-3,-6,7,-19
1523178507378157,-41,-14,-3,0,0,1,14,2
1523178507378157,-6,2,2,5,3,3,-9,-23
1523178507392474,-4,-17,4,-2,-2,-3,0,13
1523178507392474,28,3,-2,1,0,-3,0,6
1523178507393195,6,2,-5,-4,-4,-3,0,4
1523178507393195,-35,-5,-3,3,-1,-2,-7,-5
1523178507415488,5,2,4,-2,0,1,5,-18
1523178507415488,-25,1,-6,2,0,-2,-10,-7
1523178507415488,-49,-1,-2,-6,-3,-1,4,-14
1523178507415488,-8,-8,6,4,2,-1,-13,-44
1523178507437563,8,-6,0,-5,-3,3,6,22
1523178507437563,-14,-3,4,-5,-3,-5,-6,-18
1523178507438315,13,6,-4,4,1,-1,-8,-17
1523178507438315,49,3,-6,-4,-3,-3,-4,-8
1523178507452507,-19,-1,-3,-2,-3,-5,2,-2
1523178507452507,69,5,1,-1,-1,1,0,-15
1523178507453529,29,-4,3,2,-3,-7,-11,-26
1523178507453529,7,-1,0,-1,-1,2,11,-3
1523178507475461,2,-2,1,0,1,4,17,-7
1523178507475461,-8,-1,-5,-4,-5,-4,-4,29
1523178507475461,1,0,-2,-2,0,0,4,-3
1523178507475461,-14,-2,-4,-4,-1,-1,-22,-9
1523178507497548,12,2,-3,-1,-2,0,13,-1
1523178507497548,-8,-5,-3,0,-1,-4,-10,1
1523178507498474,-9,1,1,1,0,3,10,4
1523178507498474,0,-7,0,-3,-3,0,2,9
1523178507512571,6,-3,-5,0,-1,-2,-6,-6
1523178507512571,-21,-28,18,4,1,1,-1,-6
1523178507513512,-29,-4,-4,-5,-4,-3,-5,-3
1523178507513512,-6,6,-4,-1,-1,-2,0,21
1523178507534567,-18,0,1,-1,0,0,-1,13
1523178507534567,-14,-6,-10,-4,-3,-2,1,26
1523178507535571,54,-1,1,-2,-2,3,3,24
1523178507535571,-8,-9,-4,-5,-1,-1,15,15
1523178507557062,32,5,1,-2,2,5,-3,20
1523178507557062,5,2,-1,-2,-4,-5,-8,-47
1523178507557769,65,4,-4,2,2,1,3,26
1523178507557769,12,6,1,-1,1,3,11,7
1523178507572902,-16,-13,-3,6,-2,-8,-23,-10
1523178507572902,18,-1,-8,-16,-5,-1,5,14
1523178507572902,-15,9,-10,3,-2,-3,-11,-21
1523178507572902,-34,-6,-3,4,-1,1,13,-16
1523178507595171,33,12,5,0,1,3,-2,9
1523178507595171,-12,2,-4,-5,-3,-4,-4,-7
1523178507595870,-21,-4,-3,-4,-2,-2,-4,-12
1523178507595870,-35,3,1,0,2,-1,-3,-6
1523178507617305,-8,-4,-2,1,-1,-2,4,0
1523178507617305,-9,5,4,3,0,0,2,-4
1523178507618310,-11,-8,0,-6,-2,-1,-5,5
1523178507618310,11,-2,2,5,1,-1,1,-14
1523178507632633,0,-2,-2,-5,-1,1,6,-4
1523178507632633,-27,-3,-7,-6,-3,-5,-4,14
1523178507633350,17,-6,3,1,2,-1,2,17
1523178507633350,-6,-5,4,-1,-1,-2,-1,-10
1523178507655488,-24,4,-1,-3,-3,-3,-4,12
1523178507655488,-16,-5,-6,1,-1,0,-1,6
1523178507655488,-10,3,4,5,2,3,11,13
1523178507655488,-2,9,-2,-7,-4,-6,-10,-26
1523178507677749,16,0,-3,-4,-5,-3,-1,22
1523178507677749,56,8,0,6,1,-1,-3,0
1523178507684487,-15,-21,8,-3,0,-1,8,-21
1523178507684487,55,3,4,-2,-2,0,-15,3
1523178507692800,47,5,-4,-1,0,-2,-4,-13
1523178507692800,-41,5,1,3,2,-2,-5,-10
1523178507692800,22,-6,-4,-2,-5,-1,3,-19
1523178507692800,-23,-14,1,-1,1,2,1,35
1523178507715570,-33,-8,-2,0,0,-3,7,-51
1523178507715570,1,3,3,-1,2,2,-7,-9
1523178507715570,2,4,-7,0,1,-2,2,3
1523178507715570,-13,-2,2,3,1,1,-10,0
1523178507737882,6,4,2,-1,-4,-4,-6,-14
1523178507737882,-2,-5,-7,2,0,2,7,4
1523178507737882,39,17,2,-1,-2,-7,-18,-20
1523178507737882,108,0,-2,1,-2,3,18,17
1523178507752912,45,2,-2,4,1,0,-1,-10
1523178507752912,56,-5,4,3,1,3,6,-14
1523178507752912,25,-19,4,-2,-4,-5,-12,-5
1523178507752912,2,7,-3,-1,0,-6,-5,13
1523178507774928,-15,-8,-7,-1,0,2,-1,7
1523178507774928,-31,-2,0,-5,-1,-3,5,10
1523178507775731,-20,4,-4,-3,0,1,-5,-1
1523178507775731,-27,-4,-2,-4,-1,2,7,-21
1523178507797987,-28,9,5,0,1,-3,-12,7
1523178507797987,-49,-1,0,-1,-2,2,-2,-20
1523178507797987,-21,4,-1,-1,-1,-1,-2,-24
1523178507797987,-18,-26,-8,-7,-6,-6,-3,-12
1523178507813002,-20,1,-1,-3,-2,-1,-7,4
1523178507813002,13,2,0,3,2,1,3,1
1523178507813002,2,11,-2,1,-2,1,12,5
1523178507813002,-50,-3,-7,-6,-4,-3,-9,3
1523178507834888,9,1,-2,3,1,1,1,10
1523178507834888,38,5,5,-1,-1,0,0,16
1523178507835889,4,-4,-9,-3,-1,2,5,-11
1523178507835889,14,8,5,5,1,-2,1,8
1523178507857948,9,-24,6,5,2,3,11,0
1523178507857948,-8,-10,-6,-8,-4,-2,-11,-9
1523178507857948,1,4,0,1,-2,-3,-9,35
1523178507857948,23,6,2,0,0,0,-1,3
1523178507872251,0,3,-2,-4,-3,0,3,-16
1523178507872251,-9,-12,7,4,0,-1,3,-1
1523178507880286,4,-1,-2,-6,-3,0,31,14
1523178507880286,-55,-3,3,1,0,3,-22,-29
1523178507895346,-27,6,-7,-6,-3,-2,10,-21
1523178507895346,35,1,-8,-1,-2,-4,-7,4
1523178507895346,19,2,17,-2,-1,-2,9,-7
1523178507895346,2,8,-1,0,0,-2,-8,14
1523178507917102,-6,9,-4,1,-1,-2,-1,-2
1523178507917102,11,-10,-6,-2,-2,-3,0,-1
1523178507918106,56,-1,-1,1,3,1,-8,-7
1523178507918106,-85,-1,0,1,1,2,4,13
1523178507932352,37,-17,7,-2,-5,-4,-3,1
1523178507932352,-10,1,2,1,2,0,0,-22
1523178507940449,26,-7,-5,-2,-4,-8,-41,13
1523178507940449,13,4,-7,-6,-4,-5,5,-10
1523178507955466,-7,-1,-4,-7,-1,0,-6,11
1523178507955466,-24,5,-1,3,0,1,2,-9
1523178507955466,-37,-19,-6,-1,-1,2,3,8
1523178507955466,-1,-1,3,1,0,-6,-7,-10
1523178507977604,8,3,-5,-2,-2,-1,-5,39
1523178507977604,40,-1,-9,-4,-3,-3,3,-26
1523178507978269,-31,11,-1,3,2,-1,-6,3
1523178507978269,45,-3,-7,0,-1,2,8,0
1523178507992379,8,1,2,1,1,-1,-1,5
1523178507992379,-20,5,-2,0,-2,-1,-4,8
1523178507999325,-20,-1,-9,-5,-3,-3,-1,-1
1523178507999325,4,-4,2,-2,0,1,5,5
1523178508015531,-37,-5,-1,-2,-2,-1,1,-10
1523178508015531,40,13,-3,-2,1,-2,-4,16
1523178508015531,-106,-14,0,1,0,-1,-2,-26
1523178508015531,41,1,0,-1,-1,0,2,-6
1523178508037690,4,-1,1,-3,-4,-6,-4,-16
1523178508037690,-16,-12,8,1,-1,-1,-23,0
1523178508038427,18,9,-2,1,0,-2,1,2
1523178508038427,-12,6,-3,-2,-1,6,13,-8
1523178508051461,-9,-10,-4,0,-1,-4,-4,1
1523178508051461,17,0,-2,-1,-1,-1,8,37
1523178508059761,-53,3,1,0,0,1,1,2
1523178508059761,22,-5,1,-2,-4,-7,-19,2
1523178508074714,20,12,-1,0,1,4,2,-10
1523178508074714,-28,-5,-6,-2,-4,-5,-3,-26
1523178508075524,45,2,1,0,1,7,9,24
1523178508075524,-10,1,0,2,1,1,8,2
1523178508097870,-15,1,-4,-3,-1,1,-1,10
1523178508097870,10,4,0,-4,-4,-4,-20,-61
1523178508097870,9,-1,4,0,-1,-3,17,8
1523178508097870,3,-7,-4,-1,-2,-1,-22,-7
1523178508111887,11,3,-3,0,2,3,-2,-12
1523178508111887,93,-8,2,5,3,4,15,55
1523178508119903,3,2,-3,-6,-3,-6,-17,-21
1523178508119903,21,5,3,0,0,5,9,1
1523178508134680,-2,-1,-4,0,-1,-2,1,-2
1523178508134680,-23,-6,-3,-4,-5,-7,-6,22
1523178508135686,50,-1,-8,0,-1,1,1,5
1523178508135686,-12,2,-3,-1,-3,-1,10,-1
1523178508157845,-1,4,-1,-1,1,3,-2,43
1523178508157845,-22,-1,0,4,0,2,2,-46
1523178508157845,46,1,0,-1,0,1,0,-10
1523178508157845,-19,-7,-2,-1,1,1,2,29
1523178508172030,1,3,2,1,-3,-4,-3,-28
1523178508172030,-35,-6,-3,-4,2,3,5,-2
1523178508180057,-35,-2,2,-2,-5,-11,-8,-49
1523178508180057,18,-3,0,0,-3,4,6,9
1523178508195111,19,-1,0,0,1,-3,-9,7
1523178508195111,-45,5,0,0,0,-1,2,-39
1523178508195846,99,-7,8,2,0,6,4,17
1523178508195846,-15,1,2,1,-2,-1,7,-22
1523178508216900,-31,-7,1,-2,-4,-3,2,-29
1523178508216900,-7,-5,4,-1,-2,-1,-1,3
1523178508217905,17,6,-4,-4,-2,1,-18,7
1523178508217905,-13,1,2,-2,0,-5,-2,-33
1523178508241202,-5,-4,0,-1,1,2,3,6
1523178508241202,-2,3,-2,-1,0,-2,3,-9
1523178508241202,-35,0,-2,-2,-2,-7,-3,-33
1523178508241202,3,-2,-1,1,4,8,11,11
1523178508255246,-67,-9,-2,-1,-2,-3,-9,-16
1523178508255246,37,13,-4,-6,-4,-6,-2,41
1523178508256007,-33,-3,0,4,1,4,-7,6
1523178508256007,-5,-6,-5,-6,-2,-6,-14,4
1523178508277262,39,4,1,-2,-3,-1,3,-19
1523178508277262,-4,-2,-1,0,-2,-3,-13,7
1523178508278063,-24,-5,-5,1,0,5,9,11
1523178508278063,11,-9,0,-2,-3,-3,-1,2
1523178508300122,79,3,3,4,1,2,-2,-2
1523178508300122,31,4,1,-2,0,3,41,2
1523178508301123,-1,5,5,3,3,1,-29,-8
1523178508301123,-12,-5,-10,1,-3,-4,-2,-2
1523178508315467,7,-1,-5,-7,-2,-6,-9,5
1523178508315467,-16,1,3,0,-1,2,7,15
1523178508315467,-23,0,-6,-4,-1,-1,8,11
1523178508315467,20,-4,-3,-2,-2,1,-1,-8
1523178508337482,30,7,3,3,0,2,4,16
1523178508337482,-1,0,-9,-2,0,-2,-10,27
1523178508338223,-24,-5,-1,-3,-2,-1,9,-10
1523178508338223,9,3,2,0,-3,-6,-23,0
1523178508360582,-4,-5,-5,-2,0,0,6,-7
1523178508360582,-44,-5,0,2,-2,-4,-10,-1
1523178508361283,90,8,1,4,2,5,21,40
1523178508361283,47,9,-2,-2,-2,-2,7,-2
1523178508375487,26,0,-2,-5,-3,-4,-1,37
1523178508375487,-60,-11,-1,-5,-3,-1,-3,9
1523178508375487,9,0,3,1,-1,-2,6,14
1523178508375487,-18,-11,2,0,1,-1,-4,2
1523178508397662,-10,-6,-3,1,-1,0,2,11
1523178508397662,31,4,0,0,-1,-2,-12,-3
1523178508398385,-47,-9,0,-4,-2,2,5,-6
1523178508398385,-18,-4,-5,0,3,0,1,-2
1523178508420702,-77,-7,-4,-1,-4,-4,-3,-14
1523178508420702,36,5,2,2,1,4,-7,-19
1523178508421445,-11,-13,1,0,-1,-4,-21,-6
1523178508421445,-6,7,-3,-8,-5,0,-4,9
1523178508435528,18,5,2,1,-4,-1,1,-27
1523178508435528,2,2,-2,1,1,-1,-3,-9
1523178508435528,-68,-5,-3,-2,0,-1,-1,-54
1523178508435528,94,0,-1,1,0,0,2,43
1523178508457748,-62,-14,2,-2,-1,-1,-5,-41
1523178508457748,38,3,3,-6,-5,-2,-2,9
1523178508458544,10,-1,-7,-3,-3,-8,-22,-13
1523178508458544,-12,-4,5,2,1,1,18,-9
1523178508480877,13,5,1,1,2,1,2,22
1523178508480877,-3,3,-2,3,0,1,2,-18
1523178508481610,-12,-4,0,-1,1,-1,1,-13
1523178508481610,-28,2,0,-2,-1,-3,-13,0
1523178508494934,29,2,-2,-1,-1,1,10,25
1523178508494934,-33,6,2,0,0,0,-4,-3
1523178508495645,-28,1,-3,4,-2,-5,-4,5
1523178508495645,1,7,-11,-9,-4,-9,-14,-36
1523178508517700,-17,-11,-2,-2,0,1,15,-29
1523178508517700,11,2,3,2,2,2,1,7
1523178508518703,6,6,-3,-2,0,7,19,-8
1523178508518703,2,6,3,3,1,-4,-2,35
1523178508540971,94,7,-5,-1,-3,-6,-11,-5
1523178508540971,-32,-16,-1,-3,-2,1,-12,21
1523178508540971,36,-1,-3,1,-1,0,3,-7
1523178508540971,25,-6,-3,-1,-3,-2,10,25
1523178508555065,14,-12,2,-7,0,-3,-9,8
1523178508555065,18,-2,0,-1,0,1,3,-12
1523178508555801,-6,-1,5,1,0,0,1,22
1523178508555801,-36,-7,2,1,-1,-2,-6,-7
1523178508577987,-24,1,-2,1,0,1,-4,1
1523178508577987,-8,5,-3,1,-4,-5,-4,-12
1523178508577987,56,-2,4,-1,1,5,19,-3
1523178508577987,-38,4,1,1,-1,-1,-2,-2
1523178508599918,2,13,-13,-12,-7,-2,-27,9
1523178508599918,22,-6,-2,-3,-1,-8,-4,20
1523178508601947,26,0,-4,-3,-3,-3,-3,-2
1523178508601947,8,0,7,6,3,3,3,-2
1523178508614232,-6,3,-2,3,0,3,13,8
1523178508614232,97,3,1,-4,-1,-2,-1,10
1523178508621977,-20,-7,-2,-3,-2,-2,-1,8
1523178508621977,1,-4,-6,-7,-4,-3,-4,-30
1523178508637278,-61,-7,1,2,0,-3,-17,-28
1523178508637278,29,-4,6,0,-1,3,17,-24
1523178508638020,-20,-5,1,-2,-1,-3,-5,8
1523178508638020,-13,1,-1,0,0,2,3,-5
1523178508660079,8,-10,2,-1,-1,-1,8,13
1523178508660079,-8,-1,0,0,-3,-3,1,-16
1523178508661080,-7,6,-5,2,-1,0,-5,3
1523178508661080,-27,0,3,1,0,2,5,12
1523178508675397,35,8,1,3,3,-1,9,9
1523178508675397,-14,-4,-4,-9,-7,-5,8,30
1523178508675397,-47,-4,-3,-8,-2,-2,-13,-53
1523178508675397,37,2,2,3,-1,0,-5,-7
1523178508697452,29,2,3,1,-1,0,7,4
1523178508697452,-48,-2,-5,-2,-1,0,3,-8
1523178508698183,31,6,3,1,1,-1,-3,16
1523178508698183,23,-2,3,0,-2,2,6,37
1523178508720554,-62,-17,10,2,-2,-1,-1,-45
1523178508720554,44,-2,-9,-3,-3,-5,-12,28
1523178508721241,-11,9,2,1,1,-4,-4,6
1523178508721241,-2,-9,-4,1,1,-1,-6,-10
1523178508735523,4,0,-3,-2,-1,3,12,37
1523178508735523,-19,4,0,7,3,2,2,-19
1523178508735523,12,-2,1,-4,-4,-5,-5,8
1523178508735523,-42,-3,-7,-3,0,-1,2,-9
1523178508757540,-21,2,-1,4,0,-3,-6,-49
1523178508757540,-21,2,2,0,-1,2,-10,-26
1523178508758341,-44,-13,-7,-1,-1,-2,11,28
1523178508758341,53,-3,4,-3,-1,-3,-2,-14
1523178508780669,17,-1,-2,-3,-4,-2,-7,-1
1523178508780669,12,2,0,0,1,0,-2,5
1523178508781405,23,2,-1,-1,-1,-1,0,-3
1523178508781405,-15,-2,-1,1,-2,-2,-6,-40
1523178508795758,2,-5,-1,-2,-2,0,-3,20
1523178508795758,-25,-5,-1,0,3,4,7,-19
1523178508795758,-11,4,0,-2,-5,-5,0,-5
1523178508795758,46,19,-3,-4,0,3,-9,42
1523178508817497,-21,0,0,-2,0,-2,0,-12
1523178508817497,-12,-5,-4,-3,-3,-4,-5,-4
1523178508818500,6,8,0,1,-1,-1,2,3
1523178508818500,-10,-8,-4,-3,-3,-3,13,23
1523178508840611,-15,-2,-2,-2,-1,-3,-11,-7
1523178508840611,26,-2,-7,2,0,6,13,12
1523178508841562,67,3,-5,-3,0,-2,-14,-4
1523178508841562,53,11,5,3,1,2,4,1
1523178508854595,-55,-4,-1,-1,-3,-1,-1,18
1523178508854595,27,-5,0,-2,-2,-3,3,3
1523178508862723,11,0,-2,-1,-2,-1,-6,-12
1523178508862723,3,-9,1,0,1,1,4,-9
1523178508877924,24,2,-1,0,0,-4,12,19
1523178508877924,-23,5,3,3,-1,3,-16,16
1523178508877924,-34,-16,-9,-2,-1,1,14,4
1523178508877924,-25,-2,-2,1,-1,-4,-9,-16
1523178508900719,7,-3,-6,-3,-3,-3,1,6
1523178508900719,-10,3,2,-1,0,-4,1,-16
1523178508901724,16,4,2,0,3,4,0,17
1523178508901724,-25,-6,-5,-2,-2,-3,-2,-22
1523178508914802,47,-12,9,7,3,2,0,-5
1523178508914802,-8,0,-5,-4,-1,-2,-1,-4
1523178508922009,-18,2,1,0,-1,-1,-3,-5
1523178508922009,43,-4,-1,-3,-2,-4,-10,19
1523178508937840,16,5,2,3,1,3,2,16
1523178508937840,28,0,0,2,2,1,-16,-13
1523178508937840,24,-5,-1,-1,-1,-2,6,17
1523178508937840,-55,-9,-4,-2,-1,0,1,-2
1523178508961150,46,8,-3,-1,-2,-4,-11,12
1523178508961150,-16,-4,2,-3,-3,-5,1,12
1523178508961150,-26,-11,-6,-5,-6,-8,-4,-7
1523178508961150,31,6,3,3,1,2,3,-7
1523178508974118,-37,-5,-6,-4,0,0,-6,-12
1523178508974118,-28,-6,2,1,-1,-7,-10,-12
1523178508981938,-1,-4,6,4,3,9,14,6
1523178508981938,-6,1,-3,-3,-3,-3,-4,-2
1523178508997278,-40,3,-4,-1,-2,-5,13,-9
1523178508997278,39,5,-1,0,0,0,-20,-4
1523178508997982,-2,3,-5,-4,-2,-3,-1,-4
1523178508997982,0,-1,2,-1,-1,0,4,-8
1523178509021086,-61,2,-2,-2,0,0,-5,6
1523178509021086,53,1,-1,-1,1,1,8,24
1523178509021086,-67,-9,0,-3,-4,-2,-6,-11
1523178509021086,-19,5,1,-1,0,0,-8,0
1523178509034072,21,-5,-10,-2,0,0,7,-9
1523178509034072,-21,-4,0,-2,-2,-2,-1,13
1523178509043098,34,4,4,-2,-2,-3,-6,16
1523178509043098,-21,-4,3,-3,-3,2,14,-25
1523178509057378,25,-13,2,-5,0,0,-6,27
1523178509057378,-18,4,0,0,-3,0,9,5
1523178509058139,23,-3,-3,2,1,-1,-3,-14
1523178509058139,-42,-5,0,1,-2,-1,6,-4
1523178509080453,47,6,1,0,-2,-1,-12,-4
1523178509080453,-24,-1,-1,-6,-1,2,12,-36
1523178509081198,-2,3,-2,-1,0,-2,-16,1
1523178509081198,32,3,-2,-2,-1,1,1,-5
1523178509094430,13,5,1,0,-1,0,5,23
1523178509094430,8,-3,-5,-1,0,-4,-9,-39
1523178509102487,11,7,2,3,0,-7,-13,1
1523178509102487,-36,-6,-2,-5,-2,3,6,53
1523178509117293,-1,0,-4,1,0,-2,5,-11
1523178509117293,3,-7,2,0,-1,-2,-4,-3
1523178509118299,34,0,-2,-1,-1,-2,-3,-13
1523178509118299,19,-3,1,2,2,-3,-13,8
1523178509140356,-41,-7,-5,-5,-3,0,-12,0
1523178509140356,8,0,-3,-1,-2,-2,3,11
1523178509141358,-30,-5,1,1,-2,2,7,6
1523178509141358,27,-1,-4,1,-2,-2,-7,8
1523178509154674,-3,4,5,-2,0,1,16,-13
1523178509154674,-33,-9,-4,-2,-3,0,-2,7
1523178509162671,7,4,-3,0,2,5,3,-4
1523178509162671,91,-1,-5,-7,-5,-7,0,-2
1523178509177741,14,-2,-1,1,-3,-2,-9,-20
1523178509177741,30,4,-1,0,2,0,-2,1
1523178509178457,6,-5,3,-1,-1,-2,7,21
1523178509178457,-11,4,-4,6,4,1,-1,-38
1523178509200513,-33,5,-1,-7,-8,-4,12,-5
1523178509200513,-1,7,6,4,1,1,-2,2
1523178509201520,-19,4,-4,-4,-3,-5,15,-10
1523178509201520,-49,-11,-5,-4,-1,-5,-26,-25
1523178509222575,30,-4,2,6,2,5,19,5
1523178509222575,-1,1,-4,-2,-1,-2,1,42
1523178509223574,-3,-1,5,7,0,2,4,-50
1523178509223574,-10,-2,4,-4,-3,-3,-5,4
1523178509237865,16,1,-3,0,0,3,-3,0
1523178509237865,1,0,-4,-4,-3,-1,4,-8
1523178509237865,14,-7,-6,-2,-1,-3,-16,9
1523178509237865,-26,1,2,0,0,-1,2,-16
1523178509260952,94,0,3,0,2,1,-8,-15
1523178509260952,-6,1,2,-2,-5,-1,0,-10
1523178509261680,12,-2,-2,-2,-1,1,-4,-3
1523178509261680,13,5,-2,-2,-1,-4,9,-23
1523178509282733,17,7,-1,1,3,-2,-14,27
1523178509282733,1,-2,-1,1,-4,-5,-7,-4
1523178509283738,9,-3,-3,1,-1,2,6,4
1523178509283738,-40,10,-6,-1,-2,0,2,6
1523178509297953,11,-4,-4,1,2,-1,-18,23
1523178509297953,2,3,0,2,1,2,12,-5
1523178509297953,-18,0,-2,-1,-2,-1,-4,17
1523178509297953,-5,3,-2,-4,-4,-4,0,2
1523178509321101,-23,-12,-6,-1,-2,-2,-10,-10
1523178509321101,-13,-6,-2,-2,-1,0,-4,-1
1523178509321101,-4,-3,-1,-3,-3,-1,-10,-10
1523178509321101,-3,-9,-5,-5,-1,-2,-2,3
1523178509350977,12,9,8,3,-2,-7,-9,4
1523178509350977,56,1,-2,-2,-1,5,12,-27
1523178509350977,-9,-4,3,0,-1,2,4,6
1523178509350977,-1,-8,-2,-4,0,-3,-6,-13
1523178509358018,33,-3,-3,-1,-1,-2,-3,0
1523178509358018,52,5,-6,-2,-1,-5,15,-29
1523178509358018,-6,1,1,1,1,3,-19,-5
1523178509358018,13,-1,0,1,-2,-4,-5,2
1523178509381201,-27,-1,-1,-2,-1,3,3,-32
1523178509381201,-11,1,-3,-2,-3,-6,0,21
1523178509381201,7,-14,-11,-4,-3,-2,3,-23
1523178509381201,-5,1,4,3,1,3,1,-7
1523178509403299,-39,2,-3,-2,-2,0,7,-7
1523178509403299,-1,3,0,0,2,3,-9,30
1523178509404057,-11,17,-4,-3,0,-4,-5,0
1523178509404057,12,1,0,-1,0,1,0,6
1523178509418095,-11,2,1,-3,-1,-3,5,2
1523178509418095,11,-3,-1,0,1,1,-2,-3
1523178509418095,-79,-3,-2,-2,0,-1,0,-11
1523178509418095,43,1,0,6,4,6,7,13
1523178509440464,48,1,2,-2,-1,0,-1,-3
1523178509440464,-24,-8,-3,-1,0,2,6,-14
1523178509441154,-32,0,2,-1,-1,0,0,32
1523178509441154,2,0,-2,-4,-2,-2,11,23
1523178509463493,-47,-14,-3,2,-3,-3,7,20
1523178509463493,-27,-1,1,-2,2,-3,-8,15
1523178509463493,36,-2,2,1,-1,-4,5,-11
1523178509463493,-5,-5,1,2,2,2,-12,-7
1523178509477303,-10,3,0,-1,-1,-1,3,-10
1523178509477303,18,5,-5,1,-2,0,-3,4
1523178509478254,74,0,2,2,-2,-2,-1,-38
1523178509478254,-89,-6,0,-1,-2,-2,-6,-3
1523178509500311,53,-1,-1,-7,-2,0,-1,-10
1523178509500311,-19,-10,-2,-4,-2,0,-5,-5
1523178509501317,32,1,-1,1,1,0,0,7
1523178509501317,29,-2,1,2,0,0,2,-5
1523178509523630,-19,0,-3,-3,1,-3,-3,-13
1523178509523630,-19,6,-1,0,-2,-3,-7,4
1523178509523630,18,2,-2,-4,-1,1,13,-8
1523178509523630,-15,-5,1,0,-2,0,12,-8
1523178509537653,-12,-5,-8,-10,-6,-3,-14,-6
1523178509537653,31,9,-1,2,1,-5,-2,42
1523178509538416,-19,-16,-1,-1,-2,2,0,1
1523178509538416,5,-1,-3,0,1,1,-2,1
1523178509560766,-2,6,4,6,-1,2,12,2
1523178509560766,-25,-2,-3,-3,-2,0,-7,10
1523178509561476,64,-6,-3,-3,-6,-6,-7,1
1523178509561476,-78,-2,1,0,2,2,1,-8
1523178509582528,-2,-9,-5,-1,1,-1,0,-13
1523178509582528,6,-2,-2,-2,-3,-1,-5,-2
1523178509583531,16,6,4,0,2,-2,4,26
1523178509583531,16,-4,-2,-3,-4,-4,-11,-12
1523178509597697,10,5,2,2,2,2,2,7
1523178509597697,-58,-6,3,-1,0,5,20,-6
1523178509597697,4,5,-4,-4,-2,-2,-8,-19
1523178509597697,-23,-3,-3,-1,-3,-4,-8,12
1523178509627925,8,6,3,-1,0,1,7,2
1523178509627925,21,-6,0,-3,-3,-4,-7,4
1523178509628653,-60,-3,-2,5,3,1,-11,29
1523178509628653,5,-3,-1,-4,-3,-2,1,-56
1523178509642955,-1,2,-4,-5,-3,-3,-4,5
1523178509642955,-11,-4,2,1,1,2,4,-11
1523178509643692,-42,-2,-5,1,-1,-3,-2,-8
1523178509643692,35,-5,-1,-3,-2,-2,-8,-6
1523178509658020,3,2,-2,-1,-1,-1,-4,14
1523178509658020,-25,-23,9,0,0,-5,-5,7
1523178509658020,11,3,-1,-1,-3,-2,0,-4
1523178509658020,20,7,1,-1,0,0,11,15
1523178509681009,-14,-3,-1,-2,-3,-4,-13,-23
1523178509681009,18,1,-4,-1,-1,2,2,-3
1523178509681009,1,5,3,1,0,-1,1,5
1523178509681009,2,-2,0,-2,-1,-1,3,1
1523178509703107,19,2,4,5,2,4,2,13
1523178509703107,40,-3,-8,-8,-6,-9,-11,12
1523178509703856,-21,-3,-2,-2,0,4,12,-28
1523178509703856,68,10,-9,-6,-2,-2,-6,18
1523178509718035,48,-2,0,-1,2,-2,3,-15
1523178509718035,18,5,1,1,0,-3,-13,-21
1523178509718035,3,-6,1,-1,-1,-1,-1,-14
1523178509718035,13,-4,-2,0,-2,-1,2,20
1523178509741166,-14,-7,-5,0,-4,-5,-14,-44
1523178509741166,-32,-1,-2,-2,-3,2,6,1
1523178509741166,16,4,0,1,1,-1,2,14
1523178509741166,-6,0,0,-2,-3,-2,-1,-9
1523178509763286,-15,-5,0,-4,-1,0,-3,14
1523178509763286,-20,-20,5,6,1,2,6,-6
1523178509764019,-6,-5,0,-2,-4,-5,-7,7
1523178509764019,8,-4,2,2,1,0,-1,14
1523178509777333,-11,6,-4,-4,0,4,5,7
1523178509777333,-22,-2,-9,-4,-4,-3,-5,-8
1523178509785352,48,4,-1,0,1,-1,4,4
1523178509785352,11,-3,2,3,0,2,-3,-7
1523178509801241,-20,-3,1,-1,-2,0,4,10
1523178509801241,1,1,-3,-2,2,0,-1,-15
1523178509801241,-24,-4,-5,-1,-3,0,-3,-2
1523178509801241,51,8,0,-2,-1,-1,-9,3
1523178509823384,-5,-2,-2,3,0,-3,-9,2
1523178509823384,39,4,-4,-3,1,3,9,57
1523178509824174,-4,-4,3,-2,-4,-7,-9,-7
1523178509824174,-23,-4,-3,-2,-2,-3,-4,0
1523178509837209,-16,-5,-4,1,2,3,5,3
1523178509837209,12,-5,7,-1,0,0,-3,-7
1523178509845542,6,-2,-8,-7,-2,-3,-8,9
1523178509845542,-27,6,-1,2,-1,2,5,-14
1523178509860523,-27,-11,-3,-1,-1,-2,-3,0
1523178509860523,9,11,-6,-1,-3,-2,-7,-15
1523178509862275,13,5,1,0,1,7,8,-3
1523178509862275,-36,-9,2,-1,0,-4,-5,6
1523178509883328,-3,6,-4,1,-1,1,-2,6
1523178509883328,20,-5,4,2,-2,0,1,-8
1523178509884361,3,4,1,-5,-2,0,1,-7
1523178509884361,15,5,0,2,1,0,6,7
1523178509905653,32,0,2,0,-1,0,-3,22
1523178509905653,38,5,0,0,1,1,0,-17
1523178509907395,51,-1,-2,0,-1,-2,-3,3
1523178509907395,13,-2,0,-4,-1,-2,1,-7
1523178509920694,18,-4,0,-4,-3,-6,-3,21
1523178509920694,2,-1,-1,0,-2,-2,0,-2
1523178509922435,-16,2,2,1,0,1,2,7
1523178509922435,-34,2,-1,-2,1,2,-1,-6
1523178509943717,-1,-4,-5,-4,-4,-2,0,-10
1523178509943717,-14,-5,-5,0,-2,0,-3,-3
1523178509944493,29,11,-1,-1,-1,-3,-6,-34
1523178509944493,16,0,-2,3,2,1,0,39
1523178509956525,-65,-3,0,0,-4,-2,9,-40
1523178509956525,-24,-5,-3,1,0,-2,-8,-13
1523178509965550,-20,-4,1,-4,-3,1,5,19
1523178509965550,25,-4,-6,-4,-2,-2,-5,-44
1523178509980695,12,8,-3,-3,-3,-6,-3,-3
1523178509980695,77,-1,1,0,-1,-2,-10,-1
1523178509981592,-44,-4,3,6,2,2,2,2
1523178509981592,40,3,0,-3,-3,0,-2,7
1523178510002893,18,9,1,-2,0,-2,-5,9
1523178510002893,-19,-4,-1,1,-1,-4,-10,3
1523178510004654,39,2,-1,-3,-1,3,9,-10
1523178510004654,-23,-2,0,1,0,2,16,9
1523178510016684,9,-3,1,4,-1,-2,-11,-14
1523178510016684,-57,-3,2,-5,-1,0,7,-8
1523178510025708,1,-4,1,-3,-1,-4,-4,24
1523178510025708,-19,5,2,-4,0,-1,1,9
1523178510041043,17,-7,2,3,2,4,8,11
1523178510041043,-29,-1,2,-2,-1,-4,-6,-19
1523178510041751,-19,-4,-5,-1,-1,-4,-9,-29
1523178510041751,-10,2,-1,0,-3,0,-3,-14
1523178510063073,10,-8,1,-1,0,2,3,21
1523178510063073,-31,10,0,1,-2,-2,-2,-28
1523178510064811,52,-8,-3,1,-2,-5,5,15
1523178510064811,-82,-10,-9,-11,-3,0,-16,2
1523178510077154,-54,-12,-2,-1,0,-4,-8,-25
1523178510077154,69,8,-2,-1,-2,-2,6,3
1523178510085869,6,3,2,1,-1,1,0,19
1523178510085869,13,-4,-4,0,-3,-3,11,-21
