timestamp,emg1,emg2,emg3,emg4,emg5,emg6,emg7,emg8
1523182533745948,-44,-57,-57,-32,-12,-4,-22,29
1523182533747973,-48,-5,-10,43,-4,-4,-14,5
1523182533747973,45,10,-7,-75,-15,-5,6,27
1523182533759986,15,37,23,76,22,5,-14,4
1523182533759986,-41,-31,-8,0,-21,-9,-4,-23
1523182533767008,11,-15,-24,-62,-14,-4,0,-8
1523182533767008,18,-1,8,45,8,2,-1,8
1523182533784055,9,-3,44,127,29,9,11,38
1523182533784055,2,11,-27,-109,-21,-2,-14,-16
1523182533785052,-13,6,-23,-24,-22,-15,-22,-12
1523182533785052,-17,-37,21,61,22,5,-6,-6
1523182533806109,-47,-24,-31,-89,-29,-5,20,17
1523182533806109,5,-1,7,65,16,6,11,9
1523182533807117,-18,20,-4,-25,-6,-3,-20,22
1523182533807117,-8,8,6,56,16,0,-13,-29
1523182533819147,-30,-23,-30,-70,-19,-7,-19,-25
1523182533819147,-15,23,-15,-34,-8,-1,28,-39
1523182533828168,33,-13,48,64,8,7,9,33
1523182533828168,8,-14,-5,-14,-3,1,-1,2
1523182533843207,-25,24,-4,8,3,-1,-22,-18
1523182533843207,18,16,55,68,13,0,1,0
1523182533845213,-1,-34,-47,-65,-16,-2,14,3
1523182533845213,-80,-13,-4,0,-10,-1,9,21
1523182533866282,2,21,3,-11,1,-1,-6,1
1523182533866282,-10,-7,38,127,28,4,-8,-3
1523182533867271,-10,8,-37,-37,-15,-4,6,-15
1523182533867271,-18,-8,-14,43,-12,-7,7,-20
1523182533879307,-11,-11,-3,24,0,1,20,-12
1523182533879307,-50,-21,-3,23,9,-2,-54,45
1523182533888328,-18,9,-4,-9,-2,-1,-18,-10
1523182533888328,13,-8,5,-8,2,-1,-1,-18
1523182533903370,27,29,9,-37,-11,-3,-13,2
1523182533903370,2,-29,-9,4,0,-3,11,-3
1523182533905373,-40,-1,34,58,2,1,22,-7
1523182533905373,49,21,-35,-56,-1,1,-21,5
1523182533933457,11,-11,24,31,11,2,-1,22
1523182533933457,-3,15,22,66,0,-1,7,-21
1523182533935453,1,21,-11,-33,-4,1,2,-3
1523182533935453,-12,-4,-3,110,-11,-7,16,-16
1523182533939462,-18,-21,3,64,12,0,-12,1
1523182533939462,10,28,-4,-15,-6,0,0,-1
1523182533948495,34,5,2,-16,4,-1,13,28
1523182533948495,2,24,8,4,7,4,7,0
1523182533963528,13,-60,-3,-22,-2,0,-21,16
1523182533963528,-71,-26,7,15,0,-4,-2,-1
1523182533965536,-24,1,-15,-62,-5,-2,20,-84
1523182533965536,36,6,-6,-92,-14,-3,-41,82
1523182533985586,-2,24,-23,0,-10,-8,-4,3
1523182533985586,3,-3,61,75,34,9,9,-23
1523182533987591,-9,-31,-59,-68,-34,-10,-1,-9
1523182533987591,-20,-10,-16,4,-6,1,14,-22
1523182533999628,19,30,10,10,6,4,13,36
1523182533999628,25,18,-23,-27,-9,-4,-16,6
1523182534008647,-5,-28,0,24,6,-2,-2,10
1523182534008647,24,6,30,16,18,3,1,-2
1523182534023710,12,5,-34,-52,-18,-8,17,-5
1523182534023710,-31,53,-79,-72,-18,-6,-20,-7
1523182534024691,-7,8,31,41,13,4,-5,2
1523182534024691,-49,-49,4,36,0,2,6,-3
1523182534045746,23,26,-31,-46,-13,-5,13,26
1523182534045746,-3,-4,-3,12,-4,-3,4,-7
1523182534047752,0,18,-2,4,4,2,-5,0
1523182534047752,-25,-18,-2,26,6,0,11,-53
1523182534059818,27,5,18,20,2,1,-13,3
1523182534059818,43,-24,1,-38,-14,-6,6,-6
1523182534068807,27,26,24,47,10,5,-7,7
1523182534068807,10,-9,18,-5,4,3,18,2
1523182534083849,-11,-17,-1,-12,-7,-2,-12,-5
1523182534083849,38,-20,-15,-16,-1,0,20,16
1523182534084849,3,14,11,43,3,1,-5,0
1523182534084849,-42,10,-34,-33,-5,-5,-11,-3
1523182534105906,58,-15,-3,3,-3,0,1,-42
1523182534105906,-18,4,12,-3,-1,-3,-11,28
1523182534107911,-25,-65,31,23,7,3,14,7
1523182534107911,4,8,-6,-17,-3,-1,16,14
1523182534119944,-28,-10,-1,31,1,-4,-45,-26
1523182534119944,-2,-7,-5,-47,-7,-1,12,-27
1523182534128967,22,9,2,-10,0,0,6,27
1523182534128967,17,24,16,37,5,-1,-8,9
1523182534143240,-59,-40,5,-41,4,-1,6,-22
1523182534143240,20,23,12,6,8,9,26,8
1523182534145009,-24,-19,-35,-69,-23,-13,-39,-27
1523182534145009,19,10,-19,-33,-3,-4,-20,-11
1523182534166068,-24,6,5,32,1,0,1,13
1523182534166068,-10,-13,12,92,16,4,-4,0
1523182534167070,38,22,-43,-80,-26,-6,19,33
1523182534167070,38,5,-5,25,-7,-10,-20,-32
1523182534180102,-24,3,2,13,-3,0,2,-19
1523182534180102,27,-50,15,0,-3,-1,-10,27
1523182534188162,12,11,23,61,17,4,5,-4
1523182534188162,-29,-11,-3,10,-2,-2,14,9
1523182534203178,-7,-1,-19,-35,-3,-2,5,0
1523182534203178,2,18,-21,-53,-19,-11,-16,-30
1523182534205170,6,2,25,101,24,9,4,11
1523182534205170,9,-28,-20,-102,-18,-4,-5,-12
1523182534226461,8,16,15,43,2,-1,-4,-7
1523182534226461,-52,-7,-25,6,5,7,25,9
1523182534227229,0,-6,4,53,5,-6,-30,-27
1523182534227229,12,5,29,58,9,3,-9,33
1523182534248291,17,3,34,118,7,1,-11,-3
1523182534248291,-1,9,-34,-110,-23,-10,-10,-25
1523182534250290,62,12,-8,25,-1,-1,4,83
1523182534250290,-2,13,17,51,16,5,4,11
1523182534263323,-24,-8,-34,-52,-6,-4,-5,1
1523182534263323,53,2,41,34,8,5,4,13
1523182534265331,-72,0,-2,-6,5,4,12,-1
1523182534265331,-44,-17,-34,-89,-26,-11,-8,-24
1523182534286386,23,6,-5,5,6,5,11,6
1523182534286386,-31,13,1,15,4,-2,-1,11
1523182534287389,-11,-33,-8,-27,-4,-5,-25,-71
1523182534287389,-19,-20,33,124,27,8,27,-33
1523182534308446,14,-8,-76,-96,-46,-15,-9,11
1523182534308446,1,22,10,59,4,2,-9,28
1523182534309448,42,11,-16,7,-2,1,25,25
1523182534309448,12,-40,3,7,2,0,2,32
1523182534323483,-42,-14,22,10,11,0,7,-2
1523182534323483,2,14,12,-3,0,0,-3,-5
1523182534329499,-6,9,14,-34,-7,-1,0,-7
1523182534329499,6,8,13,-29,-3,1,-4,20
1523182534345582,-3,10,30,52,19,3,-3,-11
1523182534345582,-38,-26,-49,-100,-28,-7,-4,41
1523182534347548,30,18,-16,12,0,-1,1,-12
1523182534347548,11,25,4,0,1,-4,-17,-40
1523182534368604,17,-9,5,14,2,0,-5,23
1523182534368604,-17,0,13,-8,3,2,16,-61
1523182534369607,2,13,-6,-10,-2,1,18,52
1523182534369607,9,3,-10,-15,-2,0,-22,39
1523182534382643,-28,-18,-2,-11,-2,0,-3,-19
1523182534382643,10,6,10,20,1,0,1,-10
1523182534389700,-12,-1,-3,-17,-3,2,28,3
1523182534389700,24,16,4,-3,0,-1,-11,17
1523182534405705,-48,-8,14,39,8,5,30,-63
1523182534405705,13,-10,-4,10,0,-2,-23,17
1523182534407708,62,-11,15,19,5,2,0,1
1523182534407708,16,-2,-10,12,3,-1,8,-5
1523182534429000,16,5,14,-78,-16,-3,-7,6
1523182534429000,-14,5,-4,20,3,0,6,-74
1523182534429767,69,-12,-16,-7,-5,-5,-38,50
1523182534429767,-19,8,-5,10,2,1,2,-15
1523182534442800,-30,0,-3,6,3,1,17,43
1523182534442800,25,12,10,-12,-3,-3,-22,-34
1523182534449827,-80,-11,-6,-7,-4,-4,-9,-52
1523182534449827,-1,-8,-2,0,-4,-3,2,10
1523182534465865,18,2,7,12,-1,-1,-6,-35
1523182534465865,-30,-20,-22,-13,0,-1,13,45
1523182534467868,27,12,17,18,4,3,14,34
1523182534467868,-2,6,-2,-6,-5,0,-9,12
1523182534488938,53,-22,-9,23,-4,-7,-26,-72
1523182534488938,-13,-17,18,-1,-2,-4,-31,11
1523182534490929,-48,-9,-18,-18,-1,-3,1,-25
1523182534490929,0,1,-12,-11,-3,3,19,2
1523182534502961,6,2,5,22,2,-2,-2,32
1523182534502961,25,16,12,46,7,1,-8,2
1523182534509981,-12,-19,-29,-87,-15,-6,-11,-38
1523182534509981,-12,-9,-3,4,-4,-1,2,-21
1523182534526257,38,16,-20,-8,-1,-3,-3,11
1523182534526257,-3,-4,12,12,2,0,14,7
1523182534527025,-30,12,19,17,2,2,11,-34
1523182534527025,13,17,-1,1,0,1,7,73
1523182534548087,-22,-17,0,-20,2,4,18,64
1523182534548087,-25,9,-15,22,2,-3,-23,-85
1523182534550086,22,-16,4,-33,-4,-4,-13,-1
1523182534550086,-38,16,1,-8,-7,-4,-13,-12
1523182534563124,64,-1,4,12,5,2,-14,29
1523182534563124,21,1,-5,5,-1,-1,11,30
1523182534569138,59,5,17,25,0,-1,-2,5
1523182534569138,22,0,-6,8,5,0,-14,1
1523182534586182,26,-8,-41,-65,-17,-6,12,16
1523182534586182,-77,6,-5,19,6,3,4,-40
1523182534587186,-13,20,16,3,1,0,2,30
1523182534587186,11,-46,-26,-24,-5,1,12,8
1523182534608242,-44,18,6,27,2,-3,-9,-40
1523182534608242,17,-9,-8,-10,-3,-1,13,93
1523182534610246,-29,-7,-15,8,-2,-5,10,-23
1523182534610246,-2,3,15,14,2,-1,-4,10
1523182534623380,-34,10,10,16,7,4,11,26
1523182534623380,-47,-21,3,-63,-11,-5,-3,-48
1523182534629437,17,3,12,55,10,4,4,-14
1523182534629437,17,6,-23,-71,-20,-7,40,21
1523182534646344,-92,-22,11,20,4,-1,-45,-21
1523182534646344,0,9,2,7,0,-5,0,-44
1523182534647345,-2,7,-9,-12,-1,1,-12,40
1523182534647345,-13,-2,-1,-2,-1,0,6,-32
1523182534668400,-19,10,13,46,-1,-2,12,-30
1523182534668400,14,-19,14,2,8,6,-16,25
1523182534670407,-34,-41,53,-28,-9,-3,4,-6
1523182534670407,-19,2,-1,33,5,1,-13,-36
1523182534682440,20,5,8,-58,-8,-4,5,3
1523182534682440,42,12,0,36,-2,-4,10,27
1523182534689457,26,16,-32,17,4,-1,-23,22
1523182534689457,-31,-11,0,-22,-4,-1,-22,19
1523182534705542,15,-5,2,-37,-7,-5,-3,-28
1523182534705542,-9,4,-42,-47,-7,-5,3,-53
1523182534707505,51,-48,10,28,2,1,-4,46
1523182534707505,32,7,7,16,5,5,21,28
1523182534728798,32,2,-5,12,3,3,5,24
1523182534728798,38,0,-12,-7,-10,-6,-4,-50
1523182534729564,20,-39,-24,17,5,0,12,31
1523182534729564,35,33,25,8,1,-2,-18,27
1523182534741596,-5,-8,-4,-3,2,2,15,-7
1523182534741596,27,17,19,37,11,8,0,-10
1523182534750619,-87,-5,-8,-15,-6,-3,4,-82
1523182534750619,20,-3,-25,-77,-13,-6,0,9
1523182534765666,24,25,2,17,5,7,27,38
1523182534765666,-26,23,-46,-9,-7,-7,-8,4
1523182534767665,-31,3,21,48,10,1,-5,-8
1523182534767665,6,-22,-26,-33,-9,-6,-7,-27
1523182534788721,-34,-7,5,19,1,1,20,-88
1523182534788721,10,12,-18,2,-2,0,-9,47
1523182534789723,-45,8,29,26,10,7,1,2
1523182534789723,7,-24,12,26,0,-7,-26,-63
1523182534801755,-6,7,9,7,-3,-3,-1,28
1523182534801755,-26,-3,18,-6,-1,0,-6,17
1523182534810779,17,35,-11,-4,-1,4,11,3
1523182534810779,-22,6,19,42,8,6,23,-10
1523182534825819,-24,6,-12,-16,2,-3,-23,19
1523182534825819,4,-7,-3,10,-5,2,10,41
1523182534827825,-5,11,-4,-15,-5,-6,-15,-26
1523182534827825,-39,-9,4,57,6,0,-3,-27
1523182534848885,1,-7,-41,-108,-22,-8,-11,-23
1523182534848885,-11,-21,16,27,4,3,1,53
1523182534849883,15,37,-27,-12,-5,0,6,34
1523182534849883,22,26,5,18,8,6,6,-46
1523182534861915,-27,3,-24,15,3,-4,-5,36
1523182534861915,15,-23,25,3,-3,1,-8,-16
1523182534870938,-16,-3,-35,-49,-17,-7,-2,-27
1523182534870938,1,-5,5,-7,-3,-2,-1,54
1523182534885979,-74,-1,23,44,8,1,-12,-45
1523182534885979,12,28,-22,-30,-5,-3,9,-22
1523182534887985,0,-17,6,15,-3,-4,-5,22
1523182534887985,1,15,-20,-6,-2,2,9,26
1523182534908038,42,-7,6,25,1,2,-5,-4
1523182534908038,20,-5,14,16,7,3,22,18
1523182534910042,-20,-19,-26,-54,-8,-1,4,-36
1523182534910042,-14,11,-9,-2,-1,-5,-20,-53
1523182534922076,54,5,4,24,2,3,-14,69
1523182534922076,57,14,-11,14,1,-1,11,14
1523182534931101,-29,27,32,23,0,-4,-11,-57
1523182534931101,-26,-3,21,-13,4,6,29,0
1523182534946138,23,-2,-22,-1,-9,-8,-21,14
1523182534946138,-6,-27,-7,-8,-5,-1,6,-25
1523182534948145,94,31,-4,49,6,1,4,85
1523182534948145,0,-11,-19,-71,-8,-6,-33,-32
1523182534968198,-12,0,-5,14,1,-2,1,-29
1523182534968198,35,-1,-6,19,7,0,17,15
1523182534970203,19,4,-21,-74,-14,-4,-4,81
1523182534970203,-32,-40,43,52,0,1,-11,-86
1523182534982235,14,8,-20,-24,-4,-2,-19,76
1523182534982235,31,10,5,16,-5,-10,-12,23
1523182534991259,-61,-9,10,-73,-10,-7,7,-128
1523182534991259,90,16,-1,14,2,-4,-14,83
1523182535006298,-75,-35,49,-1,7,4,20,-19
1523182535006298,-50,-9,2,-41,-8,-3,-38,3
1523182535007301,14,-2,12,39,7,2,2,25
1523182535007301,13,3,-9,-5,-5,3,33,30
1523182535028360,90,5,-15,9,-4,-8,-26,-84
1523182535028360,-42,3,15,13,2,1,-6,-39
1523182535030372,33,4,-6,19,2,2,9,37
1523182535030372,-7,-11,-18,-10,0,-1,16,-31
1523182535042395,-2,-2,43,-53,-3,1,-2,-16
1523182535042395,-12,0,4,-9,-2,1,12,-13
1523182535051419,-26,-29,4,14,3,-1,-10,19
1523182535051419,-58,18,16,43,7,2,-9,16
1523182535065455,9,9,23,12,3,5,19,28
1523182535065455,-31,-21,-12,-24,-5,-2,1,-43
1523182535067462,11,-14,14,-37,-6,-5,-30,-17
1523182535067462,-42,-5,-28,14,3,-3,-7,1
1523182535088517,-26,-4,-22,1,-4,-2,5,-7
1523182535088517,-9,15,-14,-24,-6,-2,-9,25
1523182535090522,-8,12,-29,46,4,4,13,-16
1523182535090522,62,3,-3,-6,-6,-5,-9,8
1523182535101552,17,-11,-10,2,1,0,-9,29
1523182535101552,23,14,58,39,16,16,51,-59
1523182535110637,-44,-32,-2,-3,-5,-6,-49,18
1523182535110637,-5,9,0,-7,-6,-8,-15,-32
1523182535126620,11,5,1,22,4,1,4,18
1523182535126620,-26,2,-2,-4,7,7,5,2
1523182535127623,56,-21,27,4,-3,-2,13,22
1523182535127623,-56,-39,32,1,-3,-2,-3,-37
1523182535148677,-17,0,0,23,4,-3,-20,0
1523182535148677,-12,-8,-18,-9,-8,-3,-12,14
1523182535149680,24,27,-4,3,4,3,16,-11
1523182535149680,2,-2,-16,12,-7,-5,-10,53
1523182535161766,31,3,-18,-52,-4,-2,6,-14
1523182535161766,-2,-21,7,-1,-4,-3,-7,20
1523182535170734,-3,18,1,3,1,1,22,-75
1523182535170734,-17,6,-6,-7,3,2,-27,47
1523182535185776,-78,-24,17,-1,-7,-2,33,-63
1523182535185776,-50,17,-3,12,0,-10,-22,21
1523182535187781,-42,3,-36,-42,-3,-3,-8,-53
1523182535187781,-84,2,-4,6,0,1,7,-89
1523182535208836,15,-10,-11,17,-1,-3,-27,35
1523182535208836,21,2,-11,-22,-3,-4,-3,10
1523182535209840,28,4,23,27,6,4,17,46
1523182535209840,17,41,-30,-12,-1,-2,1,-35
1523182535230923,-6,-25,1,4,-5,-1,2,-2
1523182535230923,5,-29,17,17,-1,-2,24,56
1523182535232902,-11,2,-19,-7,-4,-7,-29,-48
1523182535232902,32,19,-11,23,6,0,13,7
1523182535245937,-3,-6,-15,-34,-5,2,12,36
1523182535245937,-16,-22,-7,20,-2,-4,-3,2
1523182535247946,-46,-10,-3,21,-3,-6,-8,-57
1523182535247946,-53,-22,12,12,1,0,16,2
1523182535267994,-58,22,24,28,10,12,31,30
1523182535267994,23,21,20,-13,-5,-7,-34,-44
1523182535270001,-7,2,7,-1,0,1,-1,7
1523182535270001,-21,-12,-3,4,2,4,34,89
1523182535291056,16,33,-3,13,4,-2,-19,-36
1523182535291056,-31,-8,7,44,8,3,5,-34
1523182535293108,18,-10,-17,-63,-15,-4,20,23
1523182535293108,21,-18,3,12,3,3,-27,-2
1523182535306096,3,-11,-13,-51,-10,-4,-3,0
1523182535306096,-11,5,-5,28,11,1,-13,-18
1523182535307101,-6,-5,-5,14,0,1,29,18
1523182535307101,40,-9,13,-18,-8,-1,1,57
1523182535328154,37,20,-43,1,-5,-7,-15,-24
1523182535328154,46,-33,67,35,6,3,17,3
1523182535330160,-3,27,25,24,0,4,-10,21
1523182535330160,-22,-9,-16,-17,-5,-4,5,-5
1523182535351215,21,4,8,52,1,-5,0,-2
1523182535351215,16,14,-42,-109,-10,0,12,66
1523182535352218,3,-16,-16,27,-1,-3,9,-57
1523182535352218,16,2,26,-3,2,-4,-23,-33
1523182535365253,-6,-19,-2,2,4,0,1,2
1523182535365253,87,14,-19,-3,-4,1,16,35
1523182535372271,4,2,-4,-14,1,3,-10,43
1523182535372271,20,-1,44,0,-2,0,3,16
1523182535388323,-21,-2,9,3,-1,-5,-2,-56
1523182535388323,-11,-8,-41,-28,-2,0,13,-7
1523182535390321,-18,-4,-23,-4,0,-2,-22,8
1523182535390321,-20,0,-10,-1,-2,-1,1,-18
1523182535411375,80,23,-1,15,6,2,-7,13
1523182535411375,-24,-13,7,-9,-8,-5,-15,-20
1523182535412379,-6,-9,-23,-5,-13,-7,-1,-9
1523182535412379,18,20,-22,0,5,4,14,19
1523182535425648,12,6,7,-9,-3,-2,-14,17
1523182535425648,-7,16,-22,32,2,0,18,-32
1523182535432435,27,8,13,0,7,1,-38,39
1523182535432435,-12,-14,-11,-17,-9,-10,-12,-60
1523182535448478,-18,-1,2,6,1,0,20,63
1523182535448478,-17,-13,-13,-5,-4,-9,-25,-42
1523182535450480,-25,-7,16,13,3,6,41,24
1523182535450480,26,1,-4,-11,-4,2,-8,3
1523182535470534,-25,-1,4,-5,0,-1,-17,7
1523182535470534,-43,-19,37,9,6,-1,-17,-41
1523182535472538,50,8,16,-17,-4,-4,3,12
1523182535472538,-4,-6,-11,2,-2,0,9,-18
1523182535485574,12,-3,-14,-8,-2,-3,2,-27
1523182535485574,26,12,-16,-17,-3,7,-4,22
1523182535492705,-2,17,6,30,-1,-4,1,-36
1523182535492705,1,1,-6,5,1,-5,-1,25
1523182535508634,12,-14,16,3,-2,5,12,-56
1523182535508634,16,0,9,16,3,-3,-14,36
1523182535509635,-60,-19,-2,3,2,-4,-47,-23
1523182535509635,10,10,-5,-52,-9,-3,1,-20
1523182535530746,4,25,-57,-30,-8,-4,-5,69
1523182535530746,12,-9,2,3,-4,-5,-10,-81
1523182535532698,1,-8,22,20,7,6,19,16
1523182535532698,55,-10,23,16,5,3,-25,16
1523182535545733,15,-8,-17,-15,-5,-1,-3,-8
1523182535545733,-37,10,-32,2,1,-3,4,-5
1523182535551787,40,5,-24,11,1,0,2,55
1523182535551787,4,-4,15,-24,-1,5,35,-12
1523182535569028,-73,-17,8,2,0,-6,-23,-92
1523182535569028,17,8,-2,12,-7,-2,12,54
1523182535569796,-37,13,19,22,9,7,-3,3
1523182535569796,34,1,-44,-45,-13,-9,-16,-22
1523182535598880,-16,13,34,19,1,3,1,-21
1523182535598880,23,-6,-19,-54,-9,-5,1,38
1523182535599876,28,-5,7,8,-4,-4,4,28
1523182535599876,-22,-1,10,10,3,1,-5,30
1523182535604930,0,10,-8,-14,-3,-3,5,4
1523182535604930,18,27,-16,1,-2,-4,-12,18
1523182535611954,-18,-4,29,-8,2,6,34,10
1523182535611954,11,-17,64,50,8,-2,-9,-21
1523182535628186,-28,-11,-33,-100,-16,-7,-3,-44
1523182535628186,10,1,11,23,11,11,18,87
1523182535629958,-4,-15,-6,21,-1,2,17,-23
1523182535629958,-51,-11,-16,-5,-2,-9,-15,-61
1523182535651012,0,11,33,45,11,7,42,82
1523182535651012,-77,-5,0,-15,-4,-3,-25,-101
1523182535653017,31,15,-14,-16,2,-1,-13,40
1523182535653017,9,16,9,42,4,3,-16,62
1523182535665050,-41,-42,-7,-43,-4,1,21,34
1523182535665050,4,19,-44,-20,-12,-8,-6,-51
1523182535674074,-4,-5,-9,4,4,-3,-6,-38
1523182535674074,11,1,-32,-36,-8,-2,21,33
1523182535688111,30,-10,11,27,4,1,-15,19
1523182535688111,0,-21,15,4,-1,0,0,21
1523182535690116,1,4,-3,-17,1,1,-3,-50
1523182535690116,-27,1,-4,-4,-1,3,12,22
1523182535711412,31,17,10,13,-2,-2,-10,36
1523182535711412,-3,7,15,-3,-1,-1,-16,-3
1523182535712179,-34,5,-1,4,0,1,26,-115
1523182535712179,52,5,4,2,7,4,-4,42
1523182535725208,-18,-3,-4,21,-3,-7,-6,-22
1523182535725208,-46,-3,3,1,3,3,15,11
1523182535733231,16,-9,-12,4,-4,-8,-35,-58
1523182535733231,41,-2,-14,-49,-4,-3,8,13
1523182535748304,-30,-11,-12,-15,-4,3,-2,-21
1523182535748304,2,9,9,-1,-6,-4,5,-4
1523182535750277,24,10,-15,-18,-1,3,37,55
1523182535750277,-48,-9,36,30,3,-2,-26,-51
1523182535771337,5,10,5,10,0,-1,4,-2
1523182535771337,31,-7,11,2,0,-2,-9,-24
1523182535772335,-22,-6,-18,10,1,0,6,48
1523182535772335,0,16,-2,-31,-8,-5,-3,-10
1523182535784369,36,-7,8,39,3,2,12,19
1523182535784369,38,-9,-11,-9,2,1,-1,31
1523182535793434,-51,15,-26,-5,-4,-8,-28,-52
1523182535793434,0,-30,1,16,-5,-9,-32,-84
1523182535808431,-44,-1,0,13,0,0,-3,41
1523182535808431,56,16,1,-4,-5,0,13,19
1523182535810436,1,-13,1,18,-2,-4,1,27
1523182535810436,-21,-9,-21,-47,3,3,6,-30
1523182535830541,16,-28,-23,-19,-9,-5,-23,52
1523182535830541,8,18,8,15,3,0,-9,-12
1523182535832497,11,2,28,2,6,3,5,24
1523182535832497,-28,-15,-10,2,-6,-4,12,-2
1523182535844568,10,-2,8,33,4,2,-5,31
1523182535844568,-36,-17,-1,-27,-5,-6,-8,-49
1523182535853550,78,0,2,-5,-2,-1,0,44
1523182535853550,-39,-1,-25,23,-7,-2,14,-3
1523182535876610,19,9,8,0,4,4,3,-36
1523182535876610,-13,-25,27,7,-4,-4,-2,59
1523182535877617,-18,-1,5,-19,-4,0,-2,-27
1523182535877617,-16,15,-3,13,5,2,-1,39
1523182535890650,90,20,-6,-21,-1,0,3,-22
1523182535890650,-58,2,-3,25,4,4,1,10
1523182535892655,9,-20,18,-44,-6,-4,-19,-23
1523182535892655,21,1,1,12,5,2,6,13
1523182535904727,-10,7,12,57,-1,-3,-2,-33
1523182535904727,-8,4,-17,-62,-5,-2,20,36
1523182535913715,-17,1,-7,-1,-5,-6,-5,-18
1523182535913715,-18,-21,-5,16,5,4,-5,8
1523182535928750,-24,-5,12,5,7,5,20,-35
1523182535928750,8,2,-15,15,0,6,2,-10
1523182535929756,-22,1,4,-2,0,0,-7,3
1523182535929756,24,2,-6,-5,0,-1,15,27
1523182535950850,-3,12,-14,-16,0,2,-3,-35
1523182535950850,18,-18,0,4,1,1,10,93
1523182535952814,-47,-1,-12,-15,-9,-11,-36,-46
1523182535952814,8,6,-31,11,-7,-6,10,-14
1523182535964854,23,-7,-1,-12,1,2,-3,15
1523182535964854,-39,-20,-3,-16,-2,-7,-19,-46
1523182535973871,50,10,6,10,1,3,6,44
1523182535973871,-35,5,7,4,0,3,10,34
1523182535987909,-28,-17,-3,-17,-5,-8,-12,-35
1523182535987909,-7,0,-6,6,-2,0,-2,-51
1523182535989914,-45,-11,-2,4,1,0,-9,-34
1523182535989914,-35,-17,1,-5,-1,0,-1,-13
1523182536011202,18,-1,1,-11,-3,-3,-7,32
1523182536011202,12,4,14,20,2,1,-8,-60
1523182536012977,15,-7,-11,-8,-3,-1,15,18
1523182536012977,51,-6,-2,1,-2,0,-4,44
1523182536025181,-22,4,12,-4,-1,-3,-10,-2
1523182536025181,23,1,1,4,-1,-5,-3,-5
1523182536034031,-21,-3,6,-5,-6,-2,0,14
1523182536034031,29,-5,-1,-2,-1,-2,7,-49
1523182536048070,-20,-16,-2,1,5,1,1,2
1523182536048070,34,17,2,0,-2,0,-13,55
1523182536050072,-9,5,-12,-1,1,-1,-12,-27
1523182536050072,31,-7,17,4,1,-1,7,9
1523182536071157,22,35,-27,-11,-4,0,8,-22
1523182536071157,26,1,1,3,-2,-2,-20,-28
1523182536077666,22,-8,-1,14,4,2,10,21
1523182536077666,0,15,0,-6,0,2,10,8
1523182536084452,-4,4,21,2,1,1,10,127
1523182536084452,-58,-5,-26,-5,-7,-9,-6,-85
1523182536093473,-4,-4,1,4,-2,-4,-12,25
1523182536093473,14,-7,-8,-5,-3,-2,-13,-10
1523182536108514,-48,-7,-9,-3,2,5,12,-7
1523182536108514,15,6,-10,2,1,0,1,23
1523182536109517,27,-3,15,-6,-3,0,6,-1
1523182536109517,-33,39,-11,-3,-1,-1,-17,-28
1523182536130578,-28,-15,-2,-8,-8,-7,-7,-34
1523182536130578,-9,-7,-1,0,-1,-3,0,-11
1523182536132578,4,12,-8,-3,-1,-1,7,11
1523182536132578,0,16,-15,-5,-1,-1,-5,19
1523182536153636,53,-2,13,2,-3,0,-7,-12
1523182536153636,79,4,-10,-3,1,2,23,86
1523182536155641,-69,-11,-7,-1,-6,-5,-23,-81
1523182536155641,6,3,16,8,1,0,2,9
1523182536168911,0,8,0,2,6,4,25,-69
1523182536168911,-20,-19,11,-1,-6,-2,-20,110
1523182536169675,31,8,-53,-9,0,2,6,1
1523182536169675,-29,-16,8,4,-1,-8,-20,-48
1523182536190732,-3,4,-7,-3,-3,-3,0,-26
1523182536190732,-18,19,8,0,2,4,3,-44
1523182536192738,49,-6,8,-6,-7,-2,-3,27
1523182536192738,-3,-19,22,6,3,0,-2,16
1523182536213800,-26,-26,-5,-4,-5,-3,-11,12
1523182536213800,-42,-1,10,8,7,3,2,-45
1523182536214796,41,21,13,2,1,2,2,41
1523182536214796,-23,3,0,-1,2,2,8,-18
1523182536228066,4,1,7,-1,1,0,1,9
1523182536228066,69,-18,-22,0,3,5,8,-10
1523182536234853,-42,-26,-1,5,2,-3,0,-7
1523182536234853,60,-11,-27,-13,-12,-14,1,54
1523182536250891,-12,-1,-16,-6,-7,-2,-24,-21
1523182536250891,-42,6,-14,-2,1,-2,14,-56
1523182536252900,-3,-11,5,-7,-5,-2,13,87
1523182536252900,32,-25,-27,-5,-3,-2,-29,45
1523182536274046,3,-8,31,-3,-6,-9,-3,-35
1523182536274046,48,6,22,3,2,-4,-19,-2
1523182536274956,22,17,3,-1,4,6,17,-14
1523182536274956,18,9,12,-3,-3,0,-3,-5
1523182536287991,-13,-10,-11,0,0,2,-1,34
1523182536287991,-31,-5,3,-2,-2,0,6,-29
1523182536295013,-34,5,-9,1,-2,-2,6,5
1523182536295013,-24,-5,6,3,4,4,5,-6
1523182536311290,7,5,-6,1,0,0,-2,-11
1523182536311290,-40,5,0,3,-2,-4,-3,-26
1523182536313064,40,-26,-2,-5,-1,0,18,27
1523182536313064,-35,-10,-10,-3,-8,-6,-23,-53
1523182536333112,9,-22,19,3,0,-2,0,22
1523182536333112,-13,-12,-7,0,0,1,9,29
1523182536335116,66,22,1,-1,0,0,-4,-12
1523182536335116,-46,18,0,1,2,3,32,13
1523182536348192,2,13,-6,4,3,0,-23,-16
1523182536348192,-9,-9,6,0,-1,-1,-5,-10
1523182536354169,4,4,5,1,4,0,-15,-26
1523182536354169,-63,2,16,12,-1,2,14,-1
1523182536371212,-13,5,-23,-3,-2,2,20,17
1523182536371212,15,19,0,-5,-7,-4,-4,-2
1523182536372214,-15,34,1,-6,-2,0,5,-15
1523182536372214,5,-16,2,12,8,6,-3,41
1523182536393489,22,15,3,-1,-3,-4,-4,8
1523182536393489,-17,-24,-7,0,2,1,-3,-10
1523182536395281,-11,6,-16,9,-2,-2,1,-13
1523182536395281,57,-30,-11,-7,-6,-5,0,35
1523182536407308,-48,9,5,-1,-3,-4,-1,11
1523182536407308,-14,4,15,-4,-2,-2,-3,-23
1523182536414328,5,-17,-4,2,-1,-3,-14,3
1523182536414328,32,10,43,3,4,6,10,-15
1523182536431372,-9,-13,-7,-7,-3,1,11,-6
1523182536431372,62,17,-4,1,-4,-6,-46,43
1523182536433379,-13,2,-22,-9,-3,1,23,47
1523182536433379,-42,-7,-37,-10,-8,-10,-35,-104
1523182536453431,45,17,27,2,-1,-3,4,6
1523182536453431,35,17,2,-3,0,1,0,20
1523182536455436,-11,-14,-3,-5,-1,0,-4,13
1523182536455436,30,8,4,-1,1,2,1,5
1523182536467706,-22,8,-19,-1,-3,-3,7,16
1523182536467706,-15,-15,-15,-4,-1,-1,10,0
1523182536474721,-6,-13,16,0,1,0,-10,-5
1523182536474721,-39,21,7,1,0,-1,-1,-17
1523182536491573,85,-7,4,-6,-4,-4,-12,-43
1523182536491573,41,9,-10,-1,0,-1,32,30
1523182536492535,-17,-10,5,-2,1,-1,-13,14
1523182536492535,11,38,-26,-6,0,0,-24,14
1523182536513601,-11,-4,-7,-2,1,1,-1,-5
1523182536513601,-51,4,1,-5,-3,-4,14,-66
1523182536514593,-17,-31,11,4,-3,-4,-9,-43
1523182536514593,-9,8,-5,-2,0,2,14,5
1523182536527865,-10,-7,-27,-3,1,-1,-6,54
1523182536527865,-22,14,-5,0,2,6,10,-7
1523182536534649,39,-28,58,15,5,0,4,4
1523182536534649,-10,-30,7,-7,-5,-4,-12,-6
1523182536550689,-6,-14,-4,0,0,-1,5,26
1523182536550689,-1,2,19,0,-4,-1,-2,-2
1523182536552694,-33,9,-34,-4,-3,-3,-1,-9
1523182536552694,21,18,-1,4,-1,-2,-12,21
1523182536573988,-69,-22,25,5,6,3,-6,-34
1523182536573988,-15,-32,-5,2,2,-4,-14,3
1523182536574752,3,14,19,-1,1,6,20,-18
1523182536574752,-9,-10,-8,-3,-3,-5,-18,27
1523182536587787,-22,-5,-19,-4,-4,-4,-16,-74
1523182536587787,18,6,16,2,-3,-3,7,39
1523182536594810,17,18,5,-2,2,2,5,-9
1523182536594810,8,0,10,-2,1,4,24,-11
1523182536610849,-18,-4,-5,3,-6,-5,-8,-31
1523182536610849,-49,-17,-26,2,-2,2,0,0
1523182536612860,6,14,10,-8,-5,-6,-15,-3
1523182536612860,76,-14,-22,1,-1,1,10,11
1523182536633911,-20,1,-2,-4,-1,0,-5,1
1523182536633911,-13,0,-4,7,1,3,1,-8
1523182536634913,12,17,-12,-1,-4,-1,-1,20
1523182536634913,-71,-10,8,0,1,0,4,-31
1523182536646948,30,3,3,5,0,-2,0,-15
1523182536646948,12,-20,16,-3,1,4,13,23
1523182536655970,-40,-2,-10,-9,-3,-4,-26,-19
1523182536655970,24,-4,17,3,-1,1,6,5
1523182536671009,40,22,7,-1,-3,-2,2,30
1523182536671009,-76,0,-18,-7,-2,-2,-5,-19
1523182536673195,-42,-12,4,-3,2,0,-1,-9
1523182536673195,6,0,-7,-1,-3,-3,3,-13
1523182536693349,-8,-9,-18,-6,-1,-2,-4,12
1523182536693349,1,1,3,-2,-1,0,0,6
1523182536695361,-3,4,-11,3,-1,-1,5,0
1523182536695361,-31,-15,-6,-1,-1,-1,-2,-14
1523182536707390,7,-9,6,2,2,1,3,-4
1523182536707390,23,3,11,-4,-1,-5,-5,3
1523182536716413,-28,-2,-22,-2,-3,-3,-6,-14
1523182536716413,-41,33,10,2,1,0,-4,-17
1523182536730456,27,15,-1,-1,2,4,2,5
1523182536730456,69,4,-9,-3,-4,-2,-2,6
1523182536732455,-23,-19,-12,-4,-4,-4,-5,4
1523182536732455,14,9,-1,-1,2,0,17,-8
1523182536753510,28,40,-67,-14,-9,-10,-18,-7
1523182536753510,0,11,5,0,-1,-2,-4,-10
1523182536754513,36,13,1,-1,2,2,2,5
1523182536754513,20,2,-5,-1,0,1,6,5
1523182536767632,44,-7,6,0,-1,-1,-12,33
1523182536767632,43,-1,-2,-5,-3,-6,-5,-23
1523182536775807,-5,20,-2,0,0,0,-3,-4
1523182536775807,-9,-10,-3,0,1,2,-1,13
1523182536791611,-54,-13,-49,-5,4,7,23,-6
1523182536791611,14,10,4,-6,-8,-7,-14,-18
1523182536792615,68,-5,20,3,-2,-2,2,26
1523182536792615,18,-13,-9,-1,-1,-2,-3,1
1523182536813679,-4,-16,8,-1,3,2,15,-4
1523182536813679,-41,-15,12,5,-1,3,-6,21
1523182536814675,21,-3,-3,-1,-4,-6,9,9
1523182536814675,11,9,-28,-11,-3,-1,-13,-15
1523182536826942,-28,-10,19,-4,-5,-5,-1,-18
1523182536826942,9,6,2,2,0,-1,-3,0
1523182536835729,-16,-10,1,1,-3,0,-4,-11
1523182536835729,6,-11,14,29,3,3,5,11
1523182536850810,-27,-26,28,-32,-4,0,2,8
1523182536850810,-8,10,2,7,7,7,5,6
1523182536852775,60,-8,-9,-5,-6,-5,-10,-10
1523182536852775,-13,-1,20,15,3,-3,-4,-15
1523182536874055,-12,-5,8,22,-1,2,1,-2
1523182536874055,-56,-13,-24,-31,-4,-4,-4,-15
1523182536874834,-12,-13,-11,-3,2,4,9,42
1523182536874834,44,14,1,-15,-6,-4,-10,-32
1523182536886866,64,13,-8,21,2,-6,-8,2
1523182536886866,11,-7,16,25,8,2,-1,-1
1523182536895890,-12,43,-17,-48,-5,1,6,-5
1523182536895890,26,-23,-15,-17,-16,-10,0,6
1523182536910929,3,5,21,28,6,1,-1,11
1523182536910929,-26,3,-19,-52,-16,-6,-1,-24
1523182536912940,-23,-23,-4,29,6,-2,-12,8
1523182536912940,-8,-9,-3,-2,2,3,10,37
1523182536932988,6,1,11,13,-2,2,4,7
1523182536932988,-34,-10,-17,-25,-7,-1,1,-14
1523182536934993,-19,-49,24,13,6,9,9,30
1523182536934993,-56,-7,-12,-22,-7,-6,-13,-46
1523182536947028,-16,-9,10,0,-1,-4,-3,-39
1523182536947028,-6,1,-34,16,4,-1,5,47
1523182536956049,-65,0,9,7,-3,-4,2,-45
1523182536956049,66,17,-4,-18,3,7,22,79
1523182536971090,-28,-20,-2,-14,-4,-3,-9,-19
1523182536971090,6,6,4,14,0,-4,-9,-22
1523182536973098,15,6,-3,5,3,0,0,-3
1523182536973098,3,11,1,-8,-4,0,4,17
1523182536993384,-60,-2,-7,-34,-9,-8,-13,-64
1523182536993384,80,-1,13,7,0,1,-4,39
1523182536995154,-17,-4,3,7,-1,-3,-11,-9
1523182536995154,4,24,18,21,4,1,5,24
1523182537007186,6,4,-17,-15,-2,3,8,28
1523182537007186,-9,-21,13,38,3,-1,-9,-13
1523182537016211,7,-15,-8,-19,0,-1,-2,12
1523182537016211,-33,-18,-19,-14,-9,-3,-10,-16
1523182537031249,62,11,6,-3,-6,-5,1,24
1523182537031249,-18,1,4,15,3,-1,4,-13
1523182537032251,8,-7,18,41,7,4,1,10
1523182537032251,-19,-17,20,-84,-4,-1,-2,-23
1523182537053308,-35,-10,-8,19,-6,1,-5,31
1523182537053308,-42,7,31,-16,-4,-6,-5,-19
1523182537055314,-12,5,-7,2,-2,0,-8,-38
1523182537055314,-18,-9,-9,27,5,2,11,-10
1523182537076551,13,9,-16,2,-2,-5,-7,-24
1523182537076551,71,-1,14,-20,2,6,7,62
1523182537077371,2,3,-12,-15,-10,-3,-10,-25
1523182537077371,-6,3,-9,25,2,-5,-6,-7
1523182537091555,43,22,-5,-7,2,3,6,38
1523182537091555,0,32,-10,18,0,0,-1,-31
1523182537092412,0,-9,23,47,4,5,21,26
1523182537092412,-9,8,-18,-63,-16,-9,-16,-36
1523182537113471,81,-3,36,62,17,4,17,63
1523182537113471,-61,-12,-34,-44,-18,-4,-3,5
1523182537115473,-121,4,26,41,13,-3,-22,-99
1523182537115473,-9,21,21,83,11,4,15,90
1523182537135526,-30,-12,-5,-63,-17,-2,-15,-25
1523182537135526,82,0,-2,31,8,4,17,69
1523182537137531,-1,1,-22,-38,-11,-8,-22,4
1523182537137531,-38,4,30,38,7,3,2,-95
1523182537150569,-27,1,7,13,11,2,-9,27
1523182537150569,20,13,6,-12,-1,5,16,37
1523182537152571,32,10,-10,-21,-12,-6,13,32
1523182537152571,-45,-7,-18,50,1,-6,-37,-87
1523182537173871,1,3,37,43,12,9,34,52
1523182537173871,9,6,3,-1,-5,-1,-12,-22
1523182537175632,-5,-10,-22,-87,-11,-10,-19,-62
1523182537175632,-20,-4,15,22,2,-2,-5,-33
1523182537195731,-40,1,-26,3,4,1,-10,-47
1523182537195731,-2,-15,0,-10,-2,-2,4,28
1523182537197691,49,36,2,54,5,4,-5,44
1523182537197691,53,-29,-30,-4,-7,-4,-6,-15
1523182537210726,-29,30,-14,-18,-8,-3,-4,-15
1523182537210726,4,13,64,119,28,10,-2,-23
1523182537216980,26,5,-62,-34,-17,2,56,32
1523182537216980,47,14,5,42,-6,-9,-25,-10
1523182537233788,-2,6,-9,0,-2,3,33,-2
1523182537233788,14,2,6,35,4,-3,-35,-22
1523182537234790,-86,-59,-21,7,2,-5,-9,-45
1523182537234790,0,4,-9,-32,-2,-2,16,21
1523182537256082,-2,15,-34,26,7,5,13,18
1523182537256082,-51,11,-23,-77,-18,-8,-6,-43
1523182537257851,52,18,-11,-17,0,3,-1,33
1523182537257851,-12,-14,-7,-26,-7,-3,9,1
1523182537269924,-79,-18,58,29,3,-3,-18,-68
1523182537269924,29,-30,-9,0,2,-1,-5,-10
1523182537276902,-40,0,19,12,8,1,-8,-19
1523182537276902,-25,-7,10,21,-6,-1,-9,21
1523182537293182,45,-11,-2,-44,-5,-3,8,12
1523182537293182,-30,-21,18,-4,-7,-10,-6,-11
1523182537294951,12,11,-11,-8,-4,-4,11,9
1523182537294951,14,20,17,33,18,12,15,46
1523182537316007,40,-7,-12,-48,-12,-4,-28,28
1523182537316007,-73,-23,-17,-6,-9,-8,1,-80
1523182537318145,-9,-4,52,79,16,-2,-29,18
1523182537318145,-3,-42,-47,-81,-17,-3,11,62
1523182537330043,-27,-8,-4,17,-5,-9,-9,42
1523182537330043,-55,25,5,-1,6,6,28,2
1523182537337062,-7,8,-30,3,-4,-4,-30,-75
1523182537337062,16,-10,50,31,6,-1,-4,16
1523182537353105,15,-32,-6,-22,-12,-3,10,27
1523182537353105,54,30,-59,-25,-3,-8,-35,10
1523182537355110,81,15,1,2,-13,-10,4,-5
1523182537355110,-41,-11,0,-10,8,10,15,6
1523182537376165,-24,-1,28,38,15,7,9,2
1523182537376165,-27,4,11,-5,-6,-1,-14,-59
1523182537377168,-78,-18,-4,17,2,2,14,-31
1523182537377168,-24,-11,17,75,17,6,17,46
1523182537390439,56,-8,-71,-81,-33,-12,-15,95
1523182537390439,-17,-11,-3,30,1,-1,-2,-41
1523182537397266,38,9,18,-2,1,0,-3,14
1523182537397266,-15,3,-3,-10,5,0,2,-37
1523182537413269,15,-2,-6,7,-5,-4,7,26
1523182537413269,-11,-19,-6,-4,-5,-1,-12,-5
1523182537415270,-46,-24,11,-25,-4,-9,-28,-28
1523182537415270,27,9,-34,-21,-10,-8,0,-21
1523182537436330,3,-38,79,105,22,10,1,-7
1523182537436330,47,-11,-21,-67,-22,-4,15,60
1523182537437328,19,4,2,23,1,3,7,2
1523182537437328,37,13,9,11,0,-1,-3,14
1523182537450362,-8,13,-7,11,2,-4,-12,-5
1523182537450362,-15,-11,10,21,7,4,18,4
1523182537458384,-1,-10,4,1,2,2,0,-4
1523182537458384,2,8,-8,-55,-6,-1,-2,-22
1523182537473661,-18,32,-2,-12,1,-4,-5,-31
1523182537473661,54,-4,11,43,19,10,18,74
1523182537475429,-60,-10,-57,-105,-32,-11,47,-54
1523182537475429,-9,-13,14,10,2,-1,-71,27
1523182537495487,35,-13,-9,0,-2,-9,-20,-128
1523182537495487,-12,5,-14,32,5,2,8,46
1523182537497488,19,34,-17,-1,7,9,12,5
1523182537497488,39,29,-4,-4,1,3,7,-52
1523182537509520,-41,-27,-16,-14,-2,0,-2,28
1523182537509520,0,21,11,19,2,-2,-3,-5
1523182537518544,44,-5,4,-41,1,3,-11,36
1523182537518544,24,16,-7,-5,-5,2,28,56
1523182537541604,-20,-46,-19,1,-3,-7,-18,-72
1523182537541604,9,4,13,3,-7,-10,-23,13
1523182537542608,20,13,12,17,1,2,3,48
1523182537542608,-109,13,7,4,2,4,12,-34
1523182537555681,73,15,1,-10,-2,0,22,32
1523182537555681,-49,13,3,82,2,-1,-20,0
1523182537557648,-33,-8,17,49,6,-2,-6,-26
1523182537557648,19,-11,-5,-7,-7,-5,-2,30
1523182537569718,-5,9,12,83,12,11,-6,28
1523182537569718,26,-11,-14,-22,-9,-3,5,15
1523182537578709,-6,5,18,42,4,1,15,8
1523182537578709,1,-58,29,7,-1,1,-7,48
1523182537593743,-91,-13,29,14,4,-3,-13,-112
1523182537593743,20,1,-12,-17,10,2,1,-24
1523182537594751,2,-13,-18,10,-12,1,25,82
1523182537594751,-84,-3,-23,-72,-6,2,4,-1
1523182537615803,-2,35,6,42,0,-7,-13,-14
1523182537615803,-52,-34,-12,-116,-5,4,7,-22
1523182537617809,24,4,9,20,0,-4,-11,-46
1523182537617809,74,17,31,41,6,2,0,-22
1523182537629851,-2,-14,-18,-26,-12,0,-4,68
1523182537629851,-92,-4,29,54,6,-6,-14,-128
1523182537638864,-6,-11,-7,-2,-4,-5,-1,30
1523182537638864,31,4,-20,-19,-7,-6,2,43
1523182537652902,9,29,4,-14,4,5,27,28
1523182537652902,27,-12,2,9,3,1,-4,-7
1523182537654907,-7,-1,52,26,10,5,3,15
1523182537654907,-15,-8,-53,-64,-28,-11,-8,12
1523182537676199,22,38,11,7,2,5,17,-11
1523182537676199,-40,4,-8,-4,-6,-5,2,0
1523182537677968,48,11,-51,0,1,-1,-18,8
1523182537677968,-10,14,7,48,5,-7,0,-31
1523182537690000,-46,15,-23,-54,-8,-5,-5,-8
1523182537690000,37,0,14,3,-8,2,11,31
1523182537699023,-21,-9,9,50,-4,-2,8,41
1523182537699023,-20,4,6,48,4,-9,-46,-69
1523182537713064,-9,-5,-22,-43,-14,-7,-9,-20
1523182537713064,-1,-17,4,32,3,-3,8,3
1523182537715066,-4,8,15,-58,-1,4,19,25
1523182537715066,89,21,-22,-44,-7,3,49,55
1523182537743380,-27,-38,40,29,3,-6,-70,-62
1523182537743380,6,19,-13,-21,-4,-4,-3,34
1523182537745147,2,-9,5,14,1,0,-13,-25
1523182537745147,-20,-15,35,78,13,4,8,-29
1523182537749199,13,4,-19,-30,-12,1,22,25
1523182537749199,79,-1,7,25,2,0,16,22
1523182537758181,-56,0,-5,-39,-2,-2,-25,-60
1523182537758181,-23,-11,-15,13,4,-1,-10,-32
1523182537773460,12,4,2,5,7,3,13,0
1523182537773460,-43,-5,-6,-29,-5,1,-7,40
1523182537775227,63,4,-2,17,-6,-4,1,-4
1523182537775227,12,8,2,10,3,2,-2,6
1523182537796284,6,-7,-12,-6,-1,1,4,22
1523182537796284,-7,-14,5,4,0,-5,-4,-20
1523182537797286,-11,7,0,-5,5,-1,11,-16
1523182537797286,36,1,-3,-24,-7,-1,-29,54
1523182537818380,-61,-15,4,19,7,3,12,-35
1523182537818380,-3,8,0,42,1,4,0,-21
1523182537820347,27,-3,-21,16,-4,-4,-9,1
1523182537820347,4,-3,-2,20,-5,-8,-5,-44
1523182537833382,-26,-23,-14,-34,-4,-3,7,31
1523182537833382,13,14,-34,6,-1,-1,4,9
1523182537835427,-68,19,8,-24,2,4,-7,-21
1523182537835427,-4,21,-36,-16,-5,-4,2,22
1523182537855480,-21,8,22,34,7,-3,-3,-4
1523182537855480,-10,13,-30,-68,-11,-2,-2,-14
1523182537857444,-25,-13,-3,-36,-8,-3,-4,20
1523182537857444,-55,-12,27,20,9,6,12,-43
1523182537869478,44,12,-3,19,1,1,-22,6
1523182537869478,-11,-1,6,-1,-2,-2,9,1
1523182537878506,-13,-13,-2,12,1,-2,-26,-23
1523182537878506,28,3,-4,-6,12,2,11,-5
1523182537893540,30,27,-2,17,-4,-1,-5,-3
1523182537893540,2,-29,10,-39,-4,-3,-8,-4
1523182537894568,36,-18,-21,-43,-14,-7,-7,13
1523182537894568,-18,-7,-2,12,1,-3,3,-8
1523182537916601,29,-6,15,14,3,1,4,18
1523182537916601,18,22,-42,24,2,2,8,14
1523182537917604,23,16,19,11,4,3,7,21
1523182537917604,-81,-47,-9,12,-6,-2,0,-18
1523182537929639,-27,-5,11,40,4,1,-4,7
1523182537929639,-33,-9,-2,-7,-11,-5,-8,-23
1523182537938661,-45,-9,-7,-33,-7,-1,24,4
1523182537938661,44,-10,-11,-10,-14,-13,-41,74
1523182537953937,-24,-13,23,11,1,-5,-10,-71
1523182537953937,29,-21,28,36,8,4,-1,9
1523182537954703,3,2,6,24,5,0,5,-29
1523182537954703,90,33,0,-51,-7,2,18,44
1523182537975800,23,-22,-30,-24,-5,-3,-10,3
1523182537975800,6,-5,16,-10,1,0,0,13
1523182537977766,-6,-2,9,13,-1,-2,0,-5
1523182537977766,-16,13,25,24,13,5,3,-10
1523182537989796,-6,0,-28,-57,-20,-7,4,1
1523182537989796,87,34,8,0,-7,-4,15,67
1523182537998821,-17,-27,0,24,-1,-5,-20,-45
1523182537998821,-8,0,14,-4,1,1,-6,-21
1523182538012857,19,-1,7,13,1,2,29,-27
1523182538012857,-15,9,10,9,2,-1,-17,69
1523182538019916,-24,24,10,11,11,0,-6,3
1523182538019916,-58,-15,-12,-41,-21,-4,-16,14
1523182538035920,-35,22,-27,37,7,4,22,-23
1523182538035920,-25,-19,-21,-69,-16,-4,-4,-22
1523182538037926,12,3,18,34,8,-1,-7,2
1523182538037926,1,-15,8,18,5,3,9,-14
1523182538057978,7,5,-11,-28,-1,1,5,30
1523182538057978,-46,-22,-31,12,0,-3,-6,-72
1523182538059983,8,8,36,-4,5,6,16,-5
1523182538059983,54,12,-21,-15,-2,4,2,23
1523182538074060,5,-10,4,-11,-8,-5,-13,65
1523182538074060,-61,11,17,41,4,-6,-29,-112
1523182538075022,10,-26,18,-32,-4,3,41,-26
1523182538075022,-9,-5,4,35,4,-6,-48,70
1523182538096079,14,10,-4,-2,-1,3,-8,-19
1523182538096079,-16,2,15,0,8,6,9,4
1523182538097083,-7,3,-40,7,-3,0,1,18
1523182538097083,-2,-54,50,-9,1,2,53,29
1523182538118175,11,12,-1,-6,0,-4,-9,81
1523182538118175,7,-2,11,-3,-3,-8,-17,-11
1523182538120143,-7,-7,2,43,0,-2,-5,8
1523182538120143,20,22,-10,-28,4,2,20,9
1523182538133178,-44,-12,5,-11,-11,-6,-12,-114
1523182538133178,12,-5,2,23,1,6,33,28
1523182538139194,30,28,-6,0,-5,1,11,29
1523182538139194,49,32,-1,32,1,-5,-16,-95
1523182538156254,-36,-17,-21,-10,4,-2,-4,-10
1523182538156254,8,14,7,-3,5,2,-22,10
1523182538157242,9,-17,-13,-29,-4,-1,-9,-13
1523182538157242,-2,16,-4,14,-5,-2,3,-8
1523182538178300,7,14,-5,-14,-3,-1,15,10
1523182538178300,13,-13,11,41,9,4,30,16
1523182538180303,-8,-8,-29,-54,-11,-6,-30,29
1523182538180303,-20,-3,4,2,-3,-6,-8,-63
1523182538192571,-37,-17,5,18,0,-3,-9,-53
1523182538192571,7,9,6,10,4,4,11,-12
1523182538199355,2,23,-2,5,5,2,-11,36
1523182538199355,10,-6,-54,-27,-10,-8,-7,-31
1523182538223654,44,13,43,45,1,2,20,8
1523182538223654,-46,-8,-16,22,-8,-4,-7,-28
1523182538224420,-6,-12,-2,14,2,-2,-10,7
1523182538224420,-17,8,-12,-4,-2,2,-3,3
1523182538238462,-4,-6,-5,10,1,-4,-10,24
1523182538238462,74,18,-5,-29,-5,-3,12,-2
1523182538240462,-30,-2,10,22,4,-1,-17,22
1523182538240462,-51,-8,15,11,-3,-1,4,-19
1523182538252731,27,8,-10,19,1,0,-6,10
1523182538252731,30,30,1,-40,-3,6,28,40
1523182538259752,-9,-8,-11,15,-1,-5,-2,-13
1523182538259752,-12,-5,11,5,2,1,-3,-9
1523182538275557,20,17,-19,-14,1,3,18,9
1523182538275557,26,-21,23,-3,1,2,-8,39
1523182538277597,-42,-40,12,6,-3,-7,-11,-76
1523182538277597,-12,-2,13,45,7,4,10,15
1523182538298657,29,-1,-35,-105,-17,-4,-7,-41
1523182538298657,-3,-8,3,24,-4,-1,-2,8
1523182538299659,-4,8,-6,-37,1,1,12,23
1523182538299659,-13,-5,-3,3,-7,-8,8,60
1523182538312659,-15,-8,37,15,2,-2,-17,4
1523182538312659,-3,5,-23,-18,-5,-4,-10,-11
1523182538319713,8,5,7,-1,-2,-2,-6,-3
1523182538319713,48,15,-16,-20,-6,-3,17,-23
1523182538335715,35,-9,0,6,2,2,-3,24
1523182538335715,-32,-14,-11,-7,-3,-3,3,20
1523182538337722,18,18,8,17,-1,-2,-5,0
1523182538337722,14,-23,2,-6,4,2,1,-34
1523182538359016,27,-1,-5,1,-2,-2,-4,27
1523182538359016,-76,-19,7,8,12,12,8,-68
1523182538359779,-15,-2,-17,-6,-2,2,18,32
1523182538359779,-19,18,15,-11,-4,-9,-57,-98
1523182538372817,-33,-10,1,2,0,-5,-5,-25
1523182538372817,-54,-20,-12,-8,-5,-6,3,5
1523182538379834,68,42,8,-2,-4,-2,4,17
1523182538379834,-16,-5,-6,-8,-1,4,15,31
1523182538395925,-2,8,9,13,2,-1,-7,-10
1523182538395925,30,12,-1,-2,-2,-3,0,6
1523182538397883,-20,-20,17,1,1,4,10,-11
1523182538397883,-45,-4,-1,-7,-4,-2,-2,12
1523182538418171,-55,-2,1,4,2,1,7,-7
1523182538418171,22,-7,4,1,-4,-2,-2,43
1523182538419940,0,-11,-14,-9,-4,-5,2,-51
1523182538419940,11,-7,-9,2,3,1,0,-24
1523182538432976,23,29,9,-4,-5,0,16,63
1523182538432976,25,4,-19,-4,-1,-1,-27,-47
1523182538439993,-43,-6,-7,4,-2,-6,-26,-63
1523182538439993,-21,-27,4,3,3,3,25,12
1523182538456075,46,13,5,11,6,-4,-44,-2
1523182538456075,12,10,8,5,-4,-2,1,15
1523182538457041,52,-6,12,-75,-7,1,0,9
1523182538457041,-30,15,-11,-3,-5,-2,5,-17
1523182538478145,53,-16,-5,10,-1,-3,17,10
1523182538478145,-106,-9,14,9,1,0,0,-17
1523182538480100,5,5,-22,32,7,0,-12,4
1523182538480100,21,17,20,-16,-4,-2,10,72
1523182538493134,4,-7,11,-11,0,1,17,30
1523182538493134,27,6,-4,-4,-6,-6,-3,-22
1523182538499153,7,4,-16,14,0,0,4,23
1523182538499153,-10,-13,-11,0,-4,1,8,-10
1523182538516195,-28,-4,-9,11,-2,-1,-23,-8
1523182538516195,8,7,11,2,5,-3,-12,7
1523182538517198,25,5,5,-4,-4,3,35,29
1523182538517198,-11,-8,-13,-4,-2,-4,-34,-56
1523182538538294,-22,-5,-13,-11,-4,-3,-2,56
1523182538538294,50,-4,-6,2,-6,-6,2,49
1523182538540260,3,-4,-15,14,2,-3,2,2
1523182538540260,18,9,6,2,4,5,1,-32
1523182538552330,-4,12,-1,-1,-1,1,-15,24
1523182538552330,-7,-17,-7,2,1,1,5,-13
1523182538561322,48,12,25,7,1,1,-8,14
1523182538561322,45,-11,-9,-28,-5,0,5,13
1523182538576355,60,-1,1,1,-4,-1,2,-51
1523182538576355,-32,-6,-3,-9,-1,-4,-6,-20
1523182538577358,-38,-10,-3,10,-1,0,-15,-20
1523182538577358,-11,-11,0,12,4,5,12,7
1523182538598415,43,-7,21,-16,-6,-7,14,17
1523182538598415,46,6,-11,-2,-2,-2,-13,12
1523182538600431,-9,-8,-4,-4,-3,-3,-5,-38
1523182538600431,2,8,0,2,-6,-8,-29,51
1523182538612452,-61,0,-18,-1,0,4,22,-35
1523182538612452,35,4,-2,8,5,5,3,11
1523182538621498,-6,6,23,-17,1,0,-13,24
1523182538621498,-16,-10,-35,-1,-4,-3,4,-30
1523182538635514,-48,2,12,7,3,0,1,-27
1523182538635514,4,5,-4,-6,-1,0,-4,16
1523182538637520,6,11,-11,5,3,3,15,12
1523182538637520,-6,26,8,6,1,2,5,14
1523182538658811,13,-35,-16,-9,-7,-7,-11,-10
1523182538658811,30,7,27,-2,1,0,5,-4
1523182538659578,17,-8,-32,2,-2,-4,2,15
1523182538659578,39,-14,0,-4,-4,-7,0,-60
1523182538671650,15,-11,-2,3,1,-1,-22,11
1523182538671650,16,1,10,-7,1,-2,10,-30
1523182538680633,-2,-6,13,-2,-7,-4,-14,48
1523182538680633,-30,10,6,4,3,3,21,-7
1523182538695679,-10,12,5,5,6,8,7,-38
1523182538695679,-18,1,1,-5,-5,-5,-19,-19
1523182538697678,-20,-6,1,7,1,0,1,-15
1523182538697678,-38,-6,-1,-2,2,0,-3,3
1523182538718736,-21,-29,-6,-1,0,2,24,22
1523182538718736,-59,8,-42,-1,0,2,5,15
1523182538719745,-67,3,38,7,2,-3,-8,-22
1523182538719745,-21,19,-8,-28,-5,-3,7,30
1523182538731769,11,-7,4,11,1,-2,-8,17
1523182538731769,8,-10,-27,-10,-3,0,-2,-1
1523182538740928,-28,24,16,42,4,3,23,-102
1523182538740928,46,-1,-12,-49,-6,-7,-24,78
1523182538756071,-40,30,10,1,1,0,-2,-31
1523182538756071,15,-6,4,2,-1,0,12,11
1523182538757838,3,23,-10,9,4,4,6,-11
1523182538757838,1,1,13,24,1,0,-11,-55
1523182538778897,-2,22,-22,-11,-4,-1,4,-6
1523182538778897,-32,-6,18,-11,-5,-7,-18,-20
1523182538779897,53,0,-29,-13,-2,-1,-20,27
1523182538779897,-15,-35,-12,10,2,3,-3,-14
1523182538792165,-19,-4,5,-1,-1,-1,0,24
1523182538792165,-38,-1,12,8,2,0,25,-53
1523182538800954,49,-20,-11,-21,-12,-12,-28,11
1523182538800954,27,15,-2,11,0,0,-6,-3
1523182538816229,5,-3,8,9,4,3,6,14
1523182538816229,-31,-6,-6,-9,-3,-2,16,-17
1523182538818151,2,-6,-2,-3,-1,-4,-6,30
1523182538818151,-21,4,35,21,1,1,-3,-10
1523182538838052,12,-26,7,-18,-2,-2,3,-10
1523182538838052,65,-2,-28,14,2,-1,-1,-3
1523182538840057,16,-18,-20,-46,-8,-2,-1,18
1523182538840057,22,-1,19,12,3,0,5,14
1523182538852091,-9,15,-3,1,1,-2,-3,-32
1523182538852091,-13,-8,3,11,3,5,-9,-9
1523182538861115,25,-17,-14,-3,-4,3,34,37
1523182538861115,2,1,-3,9,1,-1,-13,44
1523182538876151,-24,4,-12,-4,-4,-6,-15,-58
1523182538876151,-16,-14,6,-8,0,-1,-6,8
1523182538877156,-7,7,5,9,0,0,9,-10
1523182538877156,-43,-18,-9,-6,0,2,8,-5
1523182538898212,65,46,-4,19,3,3,6,23
1523182538898212,13,3,-1,-10,-1,-1,-1,10
1523182538900216,-71,-8,14,6,3,-1,-18,-3
1523182538900216,13,7,-12,-14,-3,-3,-1,-5
1523182538912253,-27,-5,-4,9,3,-2,-6,-13
1523182538912253,-5,5,15,10,-3,0,-4,16
1523182538928293,-15,-20,5,-4,1,4,4,-8
1523182538928293,6,1,-3,9,-1,-3,2,18
1523182538936327,15,-13,-16,-14,-6,-6,-3,21
1523182538936327,-26,13,10,-7,0,-1,-3,-11
1523182538937315,-26,-16,-11,24,1,0,10,-3
1523182538937315,20,-3,-33,-20,-5,0,-14,-3
1523182538958607,49,-6,-7,-3,-4,-1,3,-3
1523182538958607,-41,-4,22,-4,-3,-3,-7,-9
1523182538960376,10,13,0,6,2,-1,17,-10
1523182538960376,15,-10,22,13,6,4,4,8
1523182538980441,-52,20,-16,-8,-3,-5,-6,14
1523182538980441,13,7,-2,-2,1,-2,-10,-5
1523182538982435,12,9,-21,-7,-1,3,15,-13
1523182538982435,-52,-38,-29,-14,-10,-9,-19,62
1523182538995473,-17,-13,17,-5,-3,-1,-2,1
1523182538995473,-9,-5,-8,7,1,-2,3,6
1523182538997475,22,24,7,-12,0,-2,-12,-25
1523182538997475,-9,-3,-11,-2,-6,-4,7,44
1523182539018532,-2,8,11,11,4,4,-3,-17
1523182539018532,0,0,-42,-5,-5,-3,-9,7
1523182539019573,-13,-12,3,3,0,0,-7,11
1523182539019573,-28,17,6,-1,5,4,4,-54
1523182539040826,29,-10,-21,-7,-4,-2,0,39
1523182539040826,31,9,23,-2,-1,0,-4,0
1523182539042595,-14,1,-14,-1,-1,-3,-12,-20
1523182539042595,8,9,20,11,-1,-3,3,-24
1523182539055630,15,2,18,7,2,3,4,-49
1523182539055630,-48,-32,-49,-26,-8,-2,9,29
1523182539057635,-49,4,7,2,4,0,-12,22
1523182539057635,-28,-1,-1,-1,2,1,-6,-39
1523182539078691,-19,-10,-9,-3,-4,-3,-4,-8
1523182539078691,5,-6,26,2,2,2,0,-10
1523182539079694,-35,-4,12,3,-7,-3,-3,2
1523182539079694,14,-7,-4,5,0,1,18,-19
1523182539100750,-21,-6,1,-4,-1,1,1,19
1523182539100750,-14,-6,3,1,-1,-3,-10,-24
1523182539102765,0,-1,-2,-3,-4,-5,-6,9
1523182539102765,23,15,38,39,7,2,4,-7
1523182539115925,-7,-9,-42,-79,-7,-1,1,-5
1523182539115925,17,-8,-7,-1,4,5,35,12
1523182539121844,86,30,19,7,-4,-4,-37,2
1523182539121844,12,12,-18,5,2,-1,-6,-26
1523182539138851,-19,-13,33,4,-4,-2,-4,-30
1523182539138851,22,19,29,17,4,3,-2,-10
1523182539139854,13,4,-22,-4,-5,1,17,-20
1523182539139854,25,-19,4,-3,0,1,27,50
1523182539160913,36,5,16,15,3,0,-29,-1
1523182539160913,8,3,-4,-12,-1,-5,-13,-30
1523182539162915,8,1,7,5,1,-2,1,26
1523182539162915,-14,10,1,-2,-1,1,12,-31
1523182539174984,16,-13,-19,-24,-4,-1,12,64
1523182539174984,-25,4,7,5,-2,-4,-22,-13
1523182539181966,28,-17,-3,-6,-1,-3,3,2
1523182539181966,9,-1,-2,-2,-2,-4,-8,0
1523182539206068,-17,-5,0,38,8,2,4,-11
1523182539206068,41,17,-6,-17,-8,1,7,53
1523182539207033,-45,-26,29,0,-3,-2,-2,-7
1523182539207033,-5,-42,29,8,2,2,-15,-40
1523182539221110,-1,33,7,19,8,-1,7,1
1523182539221110,16,-11,-15,5,-8,-2,-3,7
1523182539222071,21,0,-10,5,5,5,10,19
1523182539222071,1,-22,12,-9,-6,-5,-6,32
1523182539235107,-35,14,1,16,3,0,4,-12
1523182539235107,13,-63,12,-14,-1,-4,-3,1
1523182539242302,0,-23,32,-12,-2,5,13,48
1523182539242302,38,1,-7,6,-1,-5,-12,-17
1523182539258405,-31,-24,-8,7,-1,-4,-4,-56
1523182539258405,8,18,3,-34,-11,-8,-13,-14
1523182539260179,-9,-12,13,32,6,0,-1,18
1523182539260179,-4,8,-1,-7,12,12,13,43
1523182539281230,-49,-19,13,20,-2,-1,-3,18
1523182539281230,-7,40,-17,0,1,-1,-3,-28
1523182539282234,3,-3,-27,-24,-2,-3,-2,-14
1523182539282234,5,22,4,6,-4,-6,-5,7
1523182539294269,25,3,-7,-7,-3,1,4,5
1523182539294269,-7,32,-10,14,2,1,6,32
1523182539303350,-4,0,-14,-22,2,-3,-11,-41
1523182539303350,-77,-8,-48,-77,-16,-7,-3,-28
1523182539317364,-24,-23,31,86,14,2,-12,11
1523182539317364,-58,-8,-44,-86,-23,-5,2,4
1523182539318328,46,-1,33,48,7,-2,8,0
1523182539318328,-37,12,16,29,5,-2,-7,11
1523182539340623,-46,-8,-30,-19,-3,-2,9,-64
1523182539340623,34,20,23,22,5,6,0,78
1523182539341389,-24,-5,-19,5,0,0,-5,4
1523182539341389,16,-11,14,-20,-8,2,0,38
1523182539354661,-10,-2,-20,-43,-1,-7,-17,-63
1523182539354661,-7,-24,5,23,2,1,29,-1
1523182539362448,-2,28,-21,-36,-13,-2,-20,-16
1523182539362448,53,17,4,29,0,-1,-1,19
1523182539377502,-4,-33,2,-11,-8,-3,1,25
1523182539377502,-48,-26,-16,17,3,-7,-9,-47
1523182539378491,-20,-31,16,-26,-2,4,5,-7
1523182539378491,-14,29,-3,-4,-1,3,23,-10
1523182539408805,-3,13,7,-3,-4,-4,-47,32
1523182539408805,-2,-29,18,19,4,-2,-8,-20
1523182539409575,12,6,-46,21,6,-5,-1,-16
1523182539409575,-5,1,0,35,8,-1,-13,-18
1523182539414583,34,17,-33,-102,-28,1,24,53
1523182539414583,31,28,-27,33,4,-2,-3,21
1523182539422605,-24,11,24,65,7,-1,-22,-60
1523182539422605,19,-3,-5,12,-10,-5,5,-28
1523182539437646,75,0,15,22,0,-1,8,61
1523182539437646,34,29,31,76,15,7,7,4
1523182539438648,-44,11,-44,-85,-20,-13,-14,-33
1523182539438648,1,-45,-51,-8,-5,6,49,15
1523182539460706,39,39,26,88,10,-1,-34,27
1523182539460706,-32,-33,-5,-33,-8,-3,-15,-98
1523182539460706,24,17,59,127,27,5,8,40
1523182539460706,-7,6,-27,5,-7,-8,-13,-34
1523182539483767,-6,8,-29,-66,-28,2,38,12
1523182539483767,-3,-7,20,108,10,4,0,19
1523182539483767,-1,-7,24,58,12,4,5,-16
1523182539483767,-21,-9,0,-40,-14,-3,-20,3
1523182539497806,6,-2,7,11,14,3,15,-17
1523182539497806,43,1,4,-29,1,-4,-14,12
1523182539498808,-5,3,-52,-94,-23,-4,1,-1
1523182539498808,-4,22,61,44,12,-1,-14,-15
1523182539519866,-13,-18,-53,-25,-2,-3,-1,-18
1523182539519866,-2,-1,33,23,3,8,11,7
1523182539520866,79,3,-20,19,-5,-2,10,71
1523182539520866,58,-2,-16,-57,-11,-7,-26,-50
1523182539534906,-15,-21,38,55,5,-5,-7,-38
1523182539534906,25,-4,-43,-4,-6,-6,-3,20
1523182539542931,-34,-17,-46,-62,-20,-2,6,-6
1523182539542931,8,8,10,45,6,-1,-7,12
1523182539558201,-36,-20,12,-2,-2,3,4,-3
1523182539558201,-47,-10,83,29,9,2,0,-23
1523182539558967,-11,-17,34,76,13,2,-3,1
1523182539558967,-50,-23,-110,-79,-22,-8,-6,1
1523182539580024,-1,33,0,38,11,4,12,22
1523182539580024,31,4,15,-23,-2,4,9,26
1523182539581025,-45,0,9,-5,-7,-9,-19,-74
1523182539581025,7,25,18,86,21,4,-5,14
1523182539594069,-14,7,-14,-97,-34,-11,2,-18
1523182539594069,14,5,-30,-35,-8,-1,-5,16
1523182539602081,35,6,-44,-27,-2,2,3,50
1523182539602081,30,-4,10,51,10,3,1,14
1523182539618323,25,7,9,27,7,0,-1,-25
1523182539618323,16,-19,15,86,23,2,-3,4
1523182539618323,-26,-8,-79,-125,-48,-4,11,-39
1523182539618323,33,-4,23,59,0,0,-15,79
1523182539640420,-33,-1,7,71,12,3,0,-16
1523182539640420,-48,0,-10,-2,-8,-6,-17,-60
1523182539641186,-38,-5,17,29,15,-5,-13,-33
1523182539641186,-28,1,61,6,10,7,17,6
1523182539655222,12,-10,-58,-84,-29,-8,-3,4
1523182539655222,10,13,-4,-12,4,1,-2,22
1523182539670263,9,14,-6,8,7,4,14,35
1523182539670263,-56,3,0,-32,-5,-3,-4,-42
1523182539677284,-2,1,25,44,21,7,1,5
1523182539677284,-54,-27,-18,-50,-23,-6,-6,-29
1523182539678285,49,-26,31,80,9,5,9,34
1523182539678285,-68,7,-15,-29,-6,0,7,-4
1523182539700342,-10,-20,39,42,10,0,-13,-12
1523182539700342,-19,12,-30,-5,0,-5,6,-11
1523182539701347,-54,-11,-16,-58,-20,-4,-8,16
1523182539701347,56,-3,32,49,8,6,14,22
1523182539714383,4,-12,0,11,2,1,9,-16
1523182539714383,34,5,59,82,21,6,-25,5
1523182539723403,-13,1,-10,-18,-15,-10,-8,-13
1523182539723403,-6,-10,-45,-28,-4,-2,0,-16
1523182539745463,19,10,-10,42,4,4,9,33
1523182539745463,-25,-1,-3,34,5,-1,7,-15
1523182539746468,19,3,19,16,-1,-4,-11,-2
1523182539746468,-18,0,3,-8,-3,0,-4,4
1523182539760552,15,8,10,15,3,0,3,3
1523182539760552,24,6,-15,9,4,1,8,18
1523182539761507,7,5,14,-7,3,-2,-18,6
1523182539761507,10,9,-9,-32,-12,-8,-10,-17
1523182539774580,-24,-12,0,-21,2,-3,-8,-16
1523182539774580,-2,17,-22,-26,-9,2,5,30
1523182539782563,-24,23,36,82,26,10,17,-24
1523182539782563,7,-13,-38,-88,-22,-11,-15,-1
1523182539798651,-6,-2,22,106,-10,-3,-11,-7
1523182539798651,-15,2,-18,-41,-16,-4,11,12
1523182539799607,32,-40,5,0,0,-1,3,14
1523182539799607,96,27,31,-12,20,8,10,51
1523182539820663,-21,-2,0,-12,-14,-6,-14,-59
1523182539820663,5,-3,-7,-11,0,-1,0,-5
1523182539820663,21,12,17,100,13,11,37,-9
1523182539820663,18,0,-56,-38,-16,-9,-6,25
1523182539834710,8,19,-6,-19,-3,-10,-29,-43
1523182539834710,-7,-9,0,-15,-8,-6,-14,-44
1523182539842725,24,10,11,-23,-5,-7,-14,-13
1523182539842725,-15,3,3,52,9,8,30,31
1523182539857998,-28,-14,8,-58,7,10,19,31
1523182539857998,13,26,-24,21,-5,-3,-8,-41
1523182539858768,-39,-9,34,37,7,-1,2,-3
1523182539858768,-27,-3,2,23,-6,-4,-5,-8
1523182539879820,24,-2,-23,-56,-7,-1,10,55
1523182539879820,-10,-4,22,49,7,2,-1,-4
1523182539880822,18,-1,-30,-102,-7,1,6,50
1523182539880822,-16,-8,52,127,23,4,-14,-41
1523182539903100,-26,-25,-28,-64,-32,-10,-1,-31
1523182539903100,-73,-6,3,34,-3,1,16,-8
1523182539903884,-5,29,7,69,5,2,-18,15
1523182539903884,-76,10,29,9,13,5,3,3
1523182539917957,4,-6,-28,-16,7,-1,-9,-44
1523182539917957,-1,-34,-20,-67,-27,-8,1,4
1523182539918923,27,16,11,-19,0,3,11,23
1523182539918923,2,37,4,12,2,0,-14,-17
1523182539940014,-6,-13,20,55,9,2,8,11
1523182539940014,4,-30,-7,-40,-4,-3,-2,23
1523182539940983,-24,-41,-54,-47,-15,-4,-4,-6
1523182539940983,20,-15,22,-8,-11,-5,-3,-23
1523182539963042,25,20,17,66,14,1,-5,16
1523182539963042,14,1,16,29,9,1,-1,17
1523182539963042,50,15,-33,-23,3,4,0,17
1523182539963042,24,-2,-11,3,-1,-6,-6,-51
1523182539978082,8,3,21,2,-4,-2,3,29
1523182539978082,32,19,-34,-34,-10,-2,10,-24
1523182539978082,-63,-22,-4,-42,-8,-6,-24,-17
1523182539978082,-8,-9,-10,15,-6,-3,-3,-13
1523182540000140,-16,14,24,57,18,5,-5,29
1523182540000140,-49,20,-35,-25,-2,-3,-1,0
1523182540001143,47,38,24,9,1,0,16,11
1523182540001143,2,-2,0,-16,4,2,3,12
1523182540023440,-22,-13,-5,-4,0,-3,-2,-26
1523182540023440,20,0,5,8,-1,1,-5,17
1523182540024204,-24,-36,57,86,7,-2,-5,-19
1523182540024204,-20,-7,-27,-50,-13,-2,37,15
1523182540038271,-38,26,8,48,9,5,-3,16
1523182540038271,-4,2,-4,29,2,-2,-1,9
1523182540039245,0,-26,5,22,3,-1,-11,-24
1523182540039245,13,-6,-2,2,-2,-1,3,-1
1523182540060303,7,-6,-13,-2,-10,1,4,-6
1523182540060303,-10,13,-4,79,1,-2,-9,-3
1523182540061302,44,48,-27,39,5,3,4,-20
1523182540061302,-19,-30,-26,-37,-15,-8,-9,-19
1523182540083362,12,-13,-33,-13,-1,-3,-5,6
1523182540083362,25,-5,27,31,11,1,-6,16
1523182540084364,-24,-3,-35,-67,-18,-7,0,-4
1523182540084364,4,-33,13,40,9,5,4,-1
1523182540097403,9,-16,-16,10,-1,-1,-7,6
1523182540097403,73,16,-1,-24,-3,-1,2,6
1523182540098403,-43,-22,32,-4,1,1,6,-4
1523182540098403,-3,18,4,3,3,2,0,-27
1523182540120459,-5,-11,-10,-74,-11,-3,-10,4
1523182540120459,6,-15,7,-19,-1,1,1,0
1523182540121464,20,21,-1,9,4,1,0,44
1523182540121464,-47,-15,-6,6,-6,0,-3,-2
1523182540143548,-12,5,-9,29,7,3,4,-24
1523182540143548,-53,-5,20,11,5,-5,-10,-36
1523182540144525,14,2,-3,3,-2,1,-4,-5
1523182540144525,16,13,4,-4,-4,-5,-7,-21
1523182540157558,80,17,-1,-10,-4,1,14,50
1523182540157558,1,-6,-3,0,2,3,3,9
1523182540158561,-65,0,-2,26,-1,-3,-1,-55
1523182540158561,26,3,-14,-26,-1,0,-18,23
1523182540180620,19,21,21,10,-1,-2,5,-8
1523182540180620,-19,4,-25,-19,-4,2,4,15
1523182540180620,15,-2,15,26,2,-2,-4,-23
1523182540180620,0,-31,6,25,5,1,-4,6
1523182540203917,-5,-1,-1,-40,-9,-8,-5,-13
1523182540203917,1,32,-6,-3,-3,-2,4,8
1523182540203917,-9,-25,9,-26,-7,-4,-3,20
1523182540203917,70,26,-14,48,1,-2,0,15
1523182540217719,-36,-2,12,-8,-1,-3,-8,-49
1523182540217719,-8,-7,-8,-19,0,1,2,2
1523182540218721,-34,11,-10,23,-4,-3,-1,-9
1523182540218721,-13,-5,7,-13,3,4,13,17
1523182540239777,43,-26,57,39,5,3,-24,50
1523182540239777,-45,5,3,-4,-5,-3,-10,-19
1523182540240780,5,7,-1,-1,0,-4,-7,-28
1523182540240780,-21,-6,6,-7,-3,-5,3,2
1523182540263841,-25,6,-18,-1,2,4,10,27
1523182540263841,5,-63,3,-2,-3,-3,-4,30
1523182540263841,-4,22,-16,-2,-2,-6,-14,-10
1523182540263841,-44,-10,-2,-7,-3,-3,-13,-26
1523182540277886,2,-2,-2,-8,-4,-3,9,4
1523182540277886,14,-7,13,-16,1,6,6,5
1523182540278882,30,16,1,-4,-7,-5,10,47
1523182540278882,-30,-9,5,-10,0,4,8,-35
1523182540299943,-10,21,-10,15,-5,-4,-3,-16
1523182540299943,9,-29,-12,17,0,-5,-13,-8
1523182540300942,8,-11,27,2,5,6,14,14
1523182540300942,32,13,-1,-46,1,0,-2,26
1523182540322999,25,8,8,20,-1,0,5,-27
1523182540322999,11,34,9,-11,-4,-1,10,33
1523182540322999,-39,-35,-10,3,5,3,1,-27
1523182540322999,-2,-15,10,-4,4,1,-5,24
1523182540338040,10,-4,-20,-8,-1,-4,-1,-21
1523182540338040,-33,-26,1,14,-1,1,32,-42
1523182540338040,8,19,2,6,9,-2,-34,6
1523182540338040,19,8,16,86,-1,2,2,36
1523182540360100,-30,-8,-23,29,-2,2,31,8
1523182540360100,-2,8,23,31,2,-3,-36,-51
1523182540361100,6,31,10,-9,2,4,9,22
1523182540361100,16,-8,2,42,6,-3,-12,-27
1523182540383159,-23,11,-9,-55,-12,-4,8,-11
1523182540383159,-7,9,-27,-16,-2,1,-13,14
1523182540384161,22,-6,4,3,4,2,4,23
1523182540384161,56,47,-3,-18,-3,1,-8,-18
1523182540397200,2,-18,-4,7,2,-2,1,10
1523182540397200,111,9,-13,-15,-1,-1,11,46
1523182540398198,3,10,6,9,-1,0,1,-4
1523182540398198,-13,10,8,-83,-13,-3,12,-24
1523182540420258,-14,-13,-3,4,-1,-7,-12,-29
1523182540420258,42,2,30,70,10,1,-17,37
1523182540421260,-9,-22,-39,-91,-22,-5,-9,-12
1523182540421260,-28,-8,-25,6,0,-3,-12,-17
1523182540443322,28,8,22,39,9,6,4,25
1523182540443322,-15,2,-1,-19,-5,-2,4,-18
1523182540444321,2,-4,-14,9,-3,-4,9,-2
1523182540444321,-19,-17,-78,-22,0,2,1,47
1523182540457357,-19,-13,0,-3,-3,-5,-13,-31
1523182540457357,-55,5,-15,-12,-4,-7,-6,-70
1523182540458362,22,-10,-11,-3,-6,-4,-2,4
1523182540458362,-1,24,28,8,2,-2,-3,-8
1523182540480419,4,11,-78,3,4,3,13,18
1523182540480419,15,-63,3,-30,0,3,6,13
1523182540481420,-22,-14,9,37,4,-2,0,-15
1523182540481420,20,12,-3,1,1,3,39,20
1523182540503482,29,32,40,53,8,1,-32,-14
1523182540503482,14,9,-40,-104,-23,-11,1,32
1523182540504482,75,-6,-11,9,1,-2,-1,22
1523182540504482,-63,-10,-4,10,-5,-4,3,-59
1523182540517515,-25,-17,-1,-13,-2,-4,-26,33
1523182540517515,-37,1,0,19,3,-1,1,-15
1523182540525539,60,24,10,14,2,0,2,13
1523182540525539,54,-9,-1,-26,-9,-6,-12,37
1523182540540576,7,-8,-8,-6,-2,1,8,-15
1523182540540576,4,14,13,11,2,2,-6,0
1523182540540576,-74,7,-8,-9,-4,-2,-1,-6
1523182540540576,-4,-7,8,34,4,0,-12,-3
1523182540563638,-36,-9,2,-34,-5,-2,3,-27
1523182540563638,-45,9,17,48,10,9,15,25
1523182540564641,-35,7,6,-40,2,1,-6,-29
1523182540564641,-2,-4,13,1,-2,-1,-9,0
1523182540576675,-18,10,22,0,0,-1,-3,-21
1523182540576675,-29,9,5,2,2,0,2,7
1523182540585699,-22,-14,-17,20,-2,-2,-2,-18
1523182540585699,15,-11,-15,-6,3,4,2,28
1523182540599737,-10,8,9,-39,-5,-1,0,33
1523182540599737,0,-9,5,23,1,2,7,-27
1523182540600737,4,-22,-7,17,-2,-3,-12,46
1523182540600737,-21,7,-7,-12,-3,-4,-22,6
1523182540623797,6,3,27,77,13,7,9,-18
1523182540623797,-2,-13,-25,-18,-13,-7,-5,-40
1523182540623797,22,4,-1,5,-1,-2,-1,18
1523182540623797,-18,-2,19,6,-3,-4,-1,14
1523182540636832,9,-5,-4,9,4,0,2,6
1523182540636832,36,15,8,6,1,1,-5,19
1523182540644866,-37,6,19,-4,0,3,10,-2
1523182540644866,16,-33,37,15,1,-4,-6,-44
1523182540659895,-27,-15,-5,-28,-5,-1,1,11
1523182540659895,1,-12,8,2,-2,-3,3,12
1523182540660896,4,-10,-19,-11,-1,0,1,-15
1523182540660896,17,16,-1,9,3,1,1,7
1523182540682957,14,-1,-7,-6,-3,0,5,14
1523182540682957,-16,3,0,-9,-2,3,1,0
1523182540683961,-73,-12,15,17,2,0,-2,-50
1523182540683961,-43,3,-3,2,-3,-2,-8,-13
1523182540696993,2,-12,5,14,-2,-2,-7,8
1523182540696993,21,-4,3,-7,-8,-8,15,3
1523182540705014,-6,12,-12,0,0,-4,-17,-15
1523182540705014,19,-18,-4,-3,-1,0,8,13
1523182540720055,-24,-15,-3,-8,-5,-6,-4,-12
1523182540720055,44,42,32,22,-2,-5,5,18
1523182540721057,14,-4,-49,-28,-1,6,-4,-15
1523182540721057,-47,-12,1,2,-1,-2,-1,2
1523182540743655,15,22,-3,-4,-2,-3,-4,14
1523182540743655,-40,-14,-7,15,6,2,-2,-2
1523182540744658,-49,7,12,11,2,0,5,15
1523182540744658,-2,19,-24,-32,-2,-1,-7,-17
1523182540757193,6,-5,-3,-10,-3,-1,5,-7
1523182540757193,-14,-1,-21,3,1,0,-7,3
1523182540765211,11,10,24,2,1,4,21,17
1523182540765211,22,1,-20,-20,-10,-9,-28,-29
1523182540780252,73,6,6,-9,-4,-2,15,-5
1523182540780252,11,3,38,31,3,-1,-13,10
1523182540781255,62,-11,-45,-18,-10,-7,-11,9
1523182540781255,-10,-4,-1,-4,-2,1,4,19
1523182540803315,7,2,-4,-9,-1,-3,-4,7
1523182540803315,78,15,-8,-8,1,1,-4,-4
1523182540803813,-22,-33,-5,23,3,2,4,-1
1523182540803813,-32,10,2,8,3,3,3,-11
1523182540817402,15,10,9,-5,3,4,-1,-31
1523182540817402,-115,-26,-30,-3,1,-5,1,23
1523182540825374,18,-9,21,-19,-10,-5,-4,3
1523182540825374,-9,-6,-4,-40,-8,-5,-8,-29
1523182540840411,-31,-11,-18,5,2,1,-5,5
1523182540840411,-2,14,6,-8,0,0,7,-17
1523182540841414,6,1,25,16,6,2,0,-13
1523182540841414,10,7,1,26,0,1,15,18
1523182540870994,0,-17,-40,-2,-8,-2,3,-5
1523182540870994,-17,-28,26,-28,-5,-2,-6,4
1523182540871997,2,8,-44,-10,-8,-7,1,12
1523182540871997,6,14,10,27,9,3,2,-9
1523182540886034,-4,19,22,-11,-5,-2,-10,-72
1523182540886034,-20,-37,-15,-1,-9,-10,-30,33
1523182540887035,-5,-2,-40,-45,-1,-1,7,-5
1523182540887035,28,14,-7,-3,-2,-1,2,-42
1523182540900571,-12,-7,0,21,9,5,1,15
1523182540900571,16,-4,-8,-7,-3,1,-5,-8
1523182540901573,0,12,33,13,3,2,7,14
1523182540901573,10,-19,-14,21,6,3,6,20
1523182540923132,11,0,-6,-58,-12,-4,20,25
1523182540923132,5,8,-22,13,4,6,7,2
1523182540923632,15,-1,6,40,3,-6,-20,-25
1523182540923632,1,-4,-2,-61,-11,-2,-6,-1
1523182540946194,39,-4,13,17,1,-1,5,24
1523182540946194,-35,18,-29,-7,0,0,4,-36
1523182540947195,-11,8,-10,4,-2,-1,4,-11
1523182540947195,21,3,-10,16,2,-3,-1,9
1523182540960732,-45,1,14,7,3,5,-20,-42
1523182540960732,33,9,10,26,6,6,46,56
1523182540961735,26,22,34,-50,-15,-4,-7,-25
1523182540961735,30,-7,-29,30,-6,-6,-14,62
1523182540982792,60,-13,25,82,7,0,6,25
1523182540982792,25,-10,-22,-10,-11,-7,-15,-20
1523182540983793,-58,9,21,30,12,7,-16,21
1523182540983793,5,23,24,52,6,3,9,-19
1523182541006523,-24,-12,6,-8,-1,-3,2,14
1523182541006523,45,31,25,26,7,3,3,25
1523182541006853,47,-18,-2,88,10,3,14,10
1523182541006853,-39,22,60,-69,-7,-1,-1,-5
1523182541020391,-16,-15,-76,-18,-19,-8,-12,-14
1523182541020391,-9,13,-23,-77,-8,-4,11,-14
1523182541021432,-1,-28,-1,12,-3,-5,-25,-32
1523182541021432,-35,-1,-7,42,14,1,-13,-37
1523182541042951,-67,18,31,29,6,2,10,44
1523182541042951,-30,-28,-30,-86,-13,-4,-13,-35
1523182541043952,82,9,7,-2,-5,-2,11,41
1523182541043952,-7,-26,-21,8,-3,-1,15,-5
1523182541066046,-32,3,-2,-12,5,0,-11,-6
1523182541066046,-85,17,18,58,8,5,5,32
1523182541067015,35,3,16,49,7,-1,-20,12
1523182541067015,9,-4,-21,-57,-15,-4,1,23
1523182541080549,-65,-21,-10,7,-3,-3,17,-17
1523182541080549,23,-20,31,31,1,-2,-27,-40
1523182541081050,12,-18,-1,-31,-9,-6,10,-6
1523182541081050,17,-2,20,101,8,2,-3,-6
1523182541103109,47,-8,29,-31,-5,0,-1,9
1523182541103109,77,-8,-11,86,3,-2,3,-15
1523182541103614,-42,12,12,-62,-5,0,25,-11
1523182541103614,-27,-15,-21,51,6,-2,-33,3
1523182541126468,1,12,10,53,1,-5,-10,-9
1523182541126468,2,11,0,-56,-3,3,12,-8
1523182541126960,-25,-17,-1,8,-2,-1,20,70
1523182541126960,-29,-1,2,-6,3,-2,-15,-20
1523182541140494,43,13,-3,20,3,2,-7,12
1523182541140494,41,-2,-2,-12,-5,-5,-8,28
1523182541141501,49,-1,15,21,3,1,7,34
1523182541141501,-11,-1,9,-45,-6,-5,2,-41
1523182541163063,-16,-25,-38,-54,-12,-7,-8,-20
1523182541163063,52,0,7,20,-1,-3,-17,-25
1523182541163560,3,21,2,18,1,4,2,-2
1523182541163560,-52,-40,-16,-39,-8,-2,25,2
1523182541186117,25,1,54,-20,1,-3,-30,14
1523182541186117,-44,1,-10,18,2,1,-7,-27
1523182541187120,-30,-1,-44,-22,-9,-7,-21,-26
1523182541187120,6,3,7,26,5,0,11,-1
1523182541200835,14,13,-34,-31,-4,2,11,6
1523182541200835,-24,5,28,10,-1,-2,6,13
1523182541201156,-1,-4,3,9,2,1,-12,-48
1523182541201156,31,-7,-5,-9,0,4,32,34
1523182541222754,-59,-9,24,-6,-2,-5,-37,-27
1523182541222754,-10,-49,19,35,-4,-5,-18,-1
1523182541223718,-25,-4,9,-29,-3,-2,3,-27
1523182541223718,15,10,-14,-17,-3,0,2,3
1523182541246277,26,6,17,37,7,1,13,9
1523182541246277,5,10,-66,-52,-3,0,-3,0
1523182541246778,-19,-1,7,13,8,4,8,6
1523182541246778,31,-10,4,-50,-6,0,-6,36
1523182541260355,23,-12,-38,-33,-15,-6,-8,-29
1523182541260355,3,14,1,3,-3,-2,19,3
1523182541261319,21,3,30,19,9,4,-5,3
1523182541261319,9,10,-5,13,0,1,-9,14
1523182541282874,17,20,0,3,1,-4,3,-51
1523182541282874,14,-51,68,17,2,0,7,-6
1523182541283915,4,4,4,43,7,2,6,18
1523182541283915,60,9,29,81,-1,4,30,8
1523182541306518,-20,16,-17,38,2,0,-27,19
1523182541306518,-3,1,-10,-1,-2,0,-1,8
1523182541306937,-30,-11,11,1,4,-1,0,11
1523182541306937,-13,-15,-27,-21,3,3,0,-9
1523182541320474,-40,-5,-6,-1,2,1,17,-37
1523182541320474,-14,2,6,7,7,0,2,10
1523182541321475,16,10,-29,-39,-6,1,-23,8
1523182541321475,-55,-4,-2,-9,-8,-11,0,-11
1523182541343034,-13,-13,-15,-10,3,1,5,31
1523182541343034,-30,-33,70,34,7,1,-8,-23
1523182541343537,48,3,-27,-78,-13,-3,3,11
1523182541343537,-10,9,33,1,-4,-3,-1,-8
1523182541366594,-58,-24,-13,41,5,0,-12,-47
1523182541366594,5,21,-27,-21,4,7,10,29
1523182541367097,-27,-16,-63,-8,-7,-3,7,15
1523182541367097,-16,8,12,12,-2,-5,-34,-90
1523182541380132,35,-14,-4,1,-2,-1,23,43
1523182541380132,-15,17,-19,-10,-8,-3,-8,-18
1523182541381135,10,0,33,49,9,3,4,19
1523182541381135,15,-16,-4,-43,-7,-4,-6,39
1523182541402696,-2,32,-16,12,-1,-6,-12,-65
1523182541402696,-10,-9,-2,-5,-6,-4,-5,-6
1523182541403697,-45,4,3,-53,-8,-3,-3,-18
1523182541403697,27,6,23,29,6,6,29,41
1523182541426305,3,-16,3,-14,-8,-2,-28,-9
1523182541426305,13,13,1,17,4,0,-1,43
1523182541426803,-6,2,-9,-3,-6,-4,6,-59
1523182541426803,3,12,4,-8,2,2,-20,16
1523182541440054,49,54,9,-3,-1,4,19,44
1523182541440054,29,-5,23,-22,0,-1,-10,-27
1523182541447859,4,-23,-54,-3,-6,-4,-10,-26
1523182541447859,-43,-60,24,-20,-8,-4,0,8
1523182541462897,-4,38,-70,5,-3,-5,-7,21
1523182541462897,-2,27,-46,-8,-8,-7,-6,23
1523182541463940,-70,-4,34,33,7,1,7,1
1523182541463940,-20,7,-54,-51,-5,-4,-30,-3
1523182541485958,-7,-23,23,5,2,1,19,13
1523182541485958,-21,-10,-61,-30,-7,-3,-13,-53
1523182541486962,1,-15,8,31,4,-1,34,24
1523182541486962,-10,13,-28,-21,-12,-10,-37,-85
1523182541500160,27,6,42,9,2,3,19,66
1523182541500160,-27,8,-18,-11,-4,-7,-9,-51
1523182541508021,53,17,19,37,6,4,3,11
1523182541508021,-16,18,21,0,4,3,8,24
1523182541523059,22,-7,3,-20,-4,1,6,5
1523182541523059,-30,-1,26,37,5,0,16,-12
1523182541523559,23,-18,-10,-64,-8,-4,-22,-23
1523182541523559,68,14,-3,28,1,0,8,27
1523182541546118,53,5,13,29,8,5,5,35
1523182541546118,-19,27,-45,6,-4,-2,-8,9
1523182541547123,-32,-15,43,1,-7,-7,-30,-28
1523182541547123,5,22,0,23,4,4,14,-1
1523182541559657,29,-11,13,3,3,4,23,22
1523182541559657,26,7,35,21,8,5,-8,23
1523182541567675,14,-6,24,3,-1,1,-5,2
1523182541567675,-51,-24,-33,17,-1,1,36,-12
1523182541583220,-4,6,-26,-16,-4,-8,-49,-55
1523182541583220,-18,12,0,-10,-7,-1,3,18
1523182541583720,-7,10,-11,-1,1,1,11,23
1523182541583720,-17,-7,7,15,4,-2,-7,-66
1523182541606278,-4,-16,-18,-42,-10,-1,3,18
1523182541606278,-40,-4,-14,-34,-8,-3,-4,0
1523182541606780,8,19,0,9,0,1,0,18
1523182541606780,31,8,5,23,6,1,4,20
1523182541628838,-67,-24,4,18,-3,-3,-12,-13
1523182541628838,6,-10,15,13,2,1,-7,-29
1523182541629340,-8,29,-45,-4,1,0,11,8
1523182541629340,29,18,-20,-3,0,-1,-2,10
1523182541642936,-58,-6,12,4,-2,-5,-11,-19
1523182541642936,41,10,-6,-30,3,4,41,41
1523182541643883,-65,-5,31,60,4,-1,-27,-2
1523182541643883,-61,-17,-14,-2,-10,-4,-21,-51
1523182541665994,-1,-3,14,8,9,2,24,-37
1523182541665994,-16,-27,-20,-9,-3,-4,-17,80
1523182541666940,-18,-6,-10,-2,-8,-9,-11,-66
1523182541666940,10,20,-8,2,2,3,1,31
1523182541679977,4,-2,28,38,27,1,10,-4
1523182541679977,20,-6,18,-23,-38,-2,-2,-15
1523182541688212,28,-11,-6,-8,-1,-2,1,40
1523182541688212,-3,-4,-2,13,4,-2,-17,10
1523182541703271,1,-3,-42,-77,-23,-5,3,3
1523182541703271,11,13,-24,21,17,4,3,-24
1523182541703537,14,-14,-25,-14,-10,-6,-4,94
1523182541703537,-41,-16,30,-5,-11,-13,-28,-87
1523182541726099,30,-7,5,1,4,1,-4,10
1523182541726099,14,-23,40,13,7,3,-1,-9
1523182541727105,-4,0,-29,-28,-10,2,9,-26
1523182541727105,27,11,11,16,6,-1,7,44
1523182541739869,-62,-4,5,-13,-11,-4,-4,4
1523182541739869,18,10,14,37,7,3,48,-9
1523182541748172,-14,-16,-2,-27,-1,-9,-84,-27
1523182541748172,-8,-8,3,-19,-6,-1,4,27
1523182541763195,11,10,10,24,10,6,16,-12
1523182541763195,49,-3,1,-19,-6,-5,-21,11
1523182541763697,-3,25,-2,11,8,5,26,-9
1523182541763697,12,9,-15,-16,1,1,6,-6
1523182541786257,-7,1,-16,-1,-5,-6,-17,5
1523182541786257,-24,-23,-32,-4,4,-1,-4,-5
1523182541786760,13,6,16,-1,-7,0,22,12
1523182541786760,14,11,7,-22,-2,5,0,38
1523182541808853,3,14,19,41,0,-3,5,2
1523182541808853,-25,30,-15,14,2,-2,-14,-36
1523182541809320,-2,11,-14,-3,-1,-3,-9,-22
1523182541809320,7,7,0,11,3,3,26,-11
1523182541822855,47,-28,3,38,0,0,9,29
1523182541822855,1,6,-10,-79,-9,-3,-22,-8
1523182541823858,-1,-9,10,21,4,-2,12,-46
1523182541823858,8,-32,22,12,5,5,0,9
1523182541845918,-61,-2,-13,-10,-7,-3,-5,29
1523182541845918,6,-14,14,24,3,-2,-20,17
1523182541846918,-45,-12,4,-33,-7,0,33,-41
1523182541846918,11,-1,0,-4,5,-4,-26,-6
1523182541868475,17,5,-6,-33,-6,3,-11,-7
1523182541868475,-88,-18,3,37,5,0,9,-6
1523182541869479,-8,-8,-26,-20,0,-2,6,13
1523182541869479,-2,0,-11,14,-5,-3,3,10
1523182541883013,40,8,3,-21,-3,2,2,5
1523182541883013,27,-6,6,11,-4,-5,5,0
1523182541883516,4,17,-4,-9,-11,-3,-11,-8
1523182541883516,13,6,-6,0,-1,0,12,17
1523182541906075,-36,-6,8,6,1,-6,-22,-16
1523182541906075,20,18,28,29,12,6,23,3
1523182541907083,22,-13,-3,14,-8,-6,-56,-49
1523182541907083,-16,2,-11,-13,-4,-2,6,44
1523182541928635,-4,7,-14,-61,-6,0,18,15
1523182541928635,-16,-10,-7,22,4,0,-15,9
1523182541929136,-36,1,20,15,8,2,17,-15
1523182541929136,49,35,2,-15,-2,2,-4,-13
1523182541943174,12,12,7,23,7,3,8,30
1523182541943174,19,12,13,-11,-7,-3,9,1
1523182541943676,-26,-15,16,-15,4,0,3,-2
1523182541943676,3,-18,-10,-6,-3,0,0,-1
1523182541966234,-15,-10,-16,-11,1,1,2,-29
1523182541966234,-5,-5,4,3,0,-1,-4,-5
1523182541966736,22,-5,-38,3,-2,2,13,31
1523182541966736,6,-19,18,7,2,-5,-17,-30
1523182541988942,30,-2,-46,6,1,1,-2,-5
1523182541988942,-9,-5,2,-6,0,1,12,-11
1523182541989295,66,8,-1,5,-2,-2,-20,19
1523182541989295,-21,-16,-19,-9,-4,-1,3,15
1523182542003370,4,-10,14,10,0,1,-7,-54
1523182542003370,49,6,15,18,-3,0,25,63
1523182542003835,17,2,-58,17,7,5,7,53
1523182542003835,-53,-15,13,-21,-10,-11,-28,-42
1523182542026397,30,-6,39,-4,-9,-6,-18,-5
1523182542026397,8,10,-14,11,2,2,7,-32
1523182542027399,2,26,10,-1,3,2,20,32
1523182542027399,18,-21,-18,-4,-1,1,-7,-30
1523182542048481,-12,-4,-14,9,-5,-2,11,-4
1523182542048481,16,2,-4,-23,0,1,-6,2
1523182542049490,2,-8,33,18,5,1,-8,6
1523182542049490,-26,-6,-29,-40,-2,-1,-1,-28
1523182542063019,5,19,13,7,-13,-2,9,20
1523182542063019,-1,18,-13,-17,-2,-1,-18,-16
1523182542063520,-44,-17,46,-9,4,2,-1,-14
1523182542063520,-5,7,2,60,5,1,4,-31
1523182542086079,-23,-12,-28,-28,-4,-3,0,-28
1523182542086079,50,-3,-15,-24,-4,2,34,41
1523182542087083,7,27,-6,-7,-6,-4,-20,2
1523182542087083,-25,-15,63,50,9,4,6,10
1523182542108686,-2,6,6,-61,-11,-9,-13,-23
1523182542108686,-24,-13,-4,-14,-9,-4,8,-23
1523182542109145,-3,-29,13,21,4,-1,16,-6
1523182542109145,45,8,-17,2,2,1,-4,14
1523182542122677,-74,-2,-1,35,9,6,0,13
1523182542122677,-12,15,5,-2,-3,-6,-19,2
1523182542123683,-38,-31,-26,-30,-8,-7,28,-70
1523182542123683,-10,10,-5,-5,-7,-8,-58,20
1523182542146281,-14,1,16,12,6,5,38,8
1523182542146281,-8,1,-13,-7,7,0,-21,6
1523182542146741,-13,-12,26,-23,-11,1,3,-41
1523182542146741,21,20,-10,1,-1,1,24,14
1523182542168803,-1,-16,26,17,9,-3,-26,19
1523182542168803,-21,-3,-29,-77,-30,-7,-16,-19
1523182542169301,16,-22,5,75,14,7,6,25
1523182542169301,10,-2,38,16,0,0,23,41
1523182542182876,24,-23,-73,-9,-2,-5,-13,-27
1523182542182876,-7,-2,37,28,12,2,-5,-7
1523182542183841,5,9,12,-1,-3,-2,-5,3
1523182542183841,-50,-15,11,-16,-5,1,10,-8
1523182542206399,14,-9,-4,7,-4,-1,11,-11
1523182542206399,0,-18,-7,10,3,-1,-46,-2
1523182542207906,-54,3,1,-13,-5,-2,1,-20
1523182542207906,1,3,2,23,6,4,7,20
1523182542228460,27,-8,1,46,5,3,4,-14
1523182542228460,-20,2,-21,-6,-7,-4,1,-43
1523182542230466,42,24,3,26,7,3,-2,20
1523182542230466,0,9,-43,-63,-11,-4,0,6
1523182542242498,3,-13,30,8,1,-2,-8,52
1523182542242498,-4,-5,-7,20,4,3,8,-20
1523182542251019,-57,6,-15,-9,1,-2,-6,-14
1523182542251019,12,-4,8,6,-5,0,4,41
1523182542266343,21,12,11,10,3,1,-11,10
1523182542266343,10,27,3,7,0,-3,0,8
1523182542267847,1,3,-8,-9,0,2,-5,-17
1523182542267847,-24,-1,-18,6,-4,-6,-12,-57
1523182542288904,-5,14,9,4,0,1,8,-7
1523182542288904,31,-6,1,20,8,3,-7,46
1523182542290459,-16,-3,24,-15,-2,-5,1,4
1523182542290459,5,-9,-21,-66,-12,-1,13,-44
1523182542302644,-3,7,-2,-2,-2,-5,-32,2
1523182542302644,-17,-11,-3,-5,-1,1,9,0
1523182542311462,27,-4,42,8,-4,-4,8,44
1523182542311462,-38,-12,20,28,6,0,-2,0
1523182542326003,2,25,-19,-34,-5,-1,18,20
1523182542326003,-75,-2,28,3,-8,-1,-6,-8
1523182542327506,25,3,15,28,3,0,-16,-22
1523182542327506,-44,11,-24,-22,-7,-9,-9,-54
1523182542348563,68,-7,-6,-40,-3,6,14,36
1523182542348563,-9,-7,-13,15,3,-4,9,-24
1523182542350568,49,12,-13,-2,-6,-4,-11,19
1523182542350568,28,2,6,39,12,5,7,32
1523182542362385,-16,-4,-3,5,-7,-5,-9,-54
1523182542362385,11,-20,-15,-17,-1,-1,9,14
1523182542371447,-7,-18,-6,-1,-1,-1,-5,-14
1523182542371447,103,11,-15,-37,-1,1,18,63
1523182542385946,-45,-19,-2,-8,-5,-1,-21,-30
1523182542385946,-11,-5,0,13,0,0,24,-9
1523182542387951,-50,17,-3,12,0,-5,-39,-62
1523182542387951,18,5,14,27,0,-1,-10,2
1523182542408510,13,9,-7,-7,3,2,16,7
1523182542408510,1,4,-38,19,-3,-2,-2,38
1523182542410025,-11,-13,-14,-37,-7,0,13,10
1523182542410025,18,4,0,-3,-5,-6,-5,21
1523182542422542,2,6,7,8,0,-1,7,-25
1523182542422542,-10,-12,14,5,2,0,-5,-6
1523182542431066,20,6,-27,-40,-6,0,-1,24
1523182542431066,3,-5,3,15,0,-2,-10,-13
1523182542446107,-27,-6,-20,-7,-5,-8,-9,-18
1523182542446107,1,7,26,10,4,3,3,12
1523182542447609,-5,1,14,3,3,3,0,30
1523182542447609,-27,3,-57,19,2,0,4,-1
1523182542468665,-18,1,26,-8,2,2,-9,-28
1523182542468665,44,42,12,-12,-8,-3,9,88
1523182542470169,16,-57,-22,13,-4,-7,-1,-33
1523182542470169,-23,-7,12,3,-4,-3,-3,-41
1523182542482201,5,5,3,99,12,3,4,15
1523182542482201,13,6,-7,-4,-7,-5,35,-44
1523182542491231,-50,-8,-32,-56,-18,-7,-67,71
1523182542491231,-9,6,36,61,-1,-4,-5,-20
1523182542506264,-32,-2,-1,16,0,-6,-2,-22
1523182542506264,-90,-22,29,12,12,9,26,5
1523182542507771,-24,6,5,-2,2,2,20,-1
1523182542507771,-59,-16,3,37,8,3,-3,-19
1523182542536346,1,-6,2,-64,-16,-3,0,51
1523182542536346,56,1,0,10,8,7,-8,10
1523182542537848,-22,-21,8,3,-9,-9,-5,-83
1523182542537848,21,21,8,22,8,-1,-8,17
1523182542542363,9,-15,-20,-63,-5,1,13,0
1523182542542363,34,4,-14,1,-7,-6,-22,12
1523182542551385,30,17,3,27,11,5,20,17
1523182542551385,6,4,-3,-14,-4,-1,4,-15
1523182542565960,45,2,14,-26,-5,-3,-7,5
1523182542565960,-25,8,-16,-4,-4,-3,-3,-36
1523182542567928,41,17,14,5,-1,0,-1,14
1523182542567928,-79,-13,-6,-13,-2,0,-1,-8
1523182542589033,-33,-8,-2,11,-2,-3,-7,-9
1523182542589033,24,-5,2,4,0,-4,-3,-67
1523182542590493,36,16,-19,19,9,-2,10,8
1523182542590493,-5,-38,-7,-111,-17,0,16,33
1523182542602521,-18,11,22,48,5,-1,-24,3
1523182542602521,-4,-16,1,-8,-6,-2,-15,-27
1523182542611043,11,0,-23,11,4,2,14,19
1523182542611043,47,13,5,11,9,3,0,-11
1523182542626085,-13,-4,-1,-39,-12,-4,4,16
1523182542626085,-34,-36,40,22,5,1,-10,-5
1523182542627587,10,10,11,11,1,1,0,2
1523182542627587,40,9,-8,-19,-4,-1,1,21
1523182542648682,21,13,-5,24,-1,-3,-2,-29
1523182542648682,-39,-2,-14,4,-2,-1,5,-15
1523182542650147,-35,10,20,7,3,1,-9,17
1523182542650147,-19,1,6,34,-1,0,6,-15
1523182542662178,5,-8,-37,22,3,-1,-7,-24
1523182542662178,80,26,-8,-24,1,2,4,46
1523182542671204,16,-3,-19,-7,-5,0,14,11
1523182542671204,48,-26,-17,0,-1,-5,-21,-19
1523182542686242,-28,4,20,-20,1,2,2,-46
1523182542686242,-38,-8,-21,-12,-9,-9,-20,-38
1523182542687747,5,7,6,20,2,0,15,-1
1523182542687747,9,25,3,7,2,3,7,44
1523182542708803,-7,3,5,11,6,4,15,66
1523182542708803,17,6,25,-3,0,-4,-17,-26
1523182542710308,-15,-17,0,-13,-7,-2,0,-12
1523182542710308,-8,6,9,-5,-11,-2,2,-6
1523182542731365,34,28,-69,-32,-10,-7,0,0
1523182542731365,10,14,-1,-1,-3,-4,-2,81
1523182542732868,-33,5,0,7,-2,-3,-9,-63
1523182542732868,-3,-24,49,36,12,4,-2,-25
1523182542746405,-57,-27,-28,-56,-13,-8,12,-2
1523182542746405,-37,-13,-4,-12,0,3,-18,-16
1523182542747907,-29,-2,-30,-9,-4,-3,29,3
1523182542747907,79,13,-10,-12,1,1,-20,49
1523182542768462,19,-15,23,33,5,-1,2,6
1523182542768462,-24,-5,10,12,4,1,-1,-10
1523182542770467,10,-1,11,-14,-2,2,6,18
1523182542770467,-69,-2,-4,-45,-12,-3,22,-26
1523182542791526,0,-5,23,22,3,1,-17,6
1523182542791526,-2,-1,-13,-1,-3,-5,-8,-26
1523182542792526,57,17,8,23,5,4,-13,23
1523182542792526,-34,-21,-10,22,1,-2,-1,-33
1523182542813581,23,-10,6,-7,2,-2,3,39
1523182542813581,-32,-1,-13,-69,-11,-1,13,21
1523182542815087,-22,-17,4,4,3,-1,-9,-30
1523182542815087,15,14,-2,23,4,1,21,15
1523182542828623,-51,-11,2,-12,-3,1,-24,53
1523182542828623,34,2,-29,10,3,3,-3,-39
1523182542830126,36,7,-15,-14,-6,-1,3,17
1523182542830126,-30,5,-9,-9,-4,-2,-2,8
1523182542851418,-60,-12,31,36,11,9,15,-13
1523182542851418,22,-5,19,12,-2,-2,1,-16
1523182542852685,-40,-15,-9,-30,-3,-4,-20,-44
1523182542852685,-10,0,-9,6,-2,-1,-9,0
1523182542866222,66,9,20,24,4,3,13,10
1523182542866222,3,-2,-5,10,1,2,-6,-6
1523182542867728,-6,-6,-5,-47,-6,-3,3,-27
1523182542867728,-35,-7,13,-6,1,0,-5,13
1523182542888981,-38,-32,-16,-7,-2,-1,0,-9
1523182542888981,-25,-11,22,43,7,4,3,20
1523182542890289,-2,15,17,25,6,1,-13,-19
1523182542890289,36,8,-5,-18,-7,-5,-30,9
1523182542911341,16,-9,-5,-14,-1,-3,0,-19
1523182542911341,6,4,1,4,2,-2,13,-1
1523182542912845,63,-5,-11,45,-1,1,-13,61
1523182542912845,-59,9,-46,-55,-13,-6,-7,-52
1523182542925384,-11,11,-17,0,-1,-1,-4,-32
1523182542925384,8,11,10,-1,-1,-3,-4,18
1523182542932399,-74,8,-3,35,3,0,9,-4
1523182542932399,-66,-33,-4,-14,4,2,9,8
1523182542948441,5,9,-5,12,-1,1,8,-50
1523182542948441,66,33,25,6,-1,1,21,28
1523182542950445,19,-13,-1,28,-3,-6,-48,21
1523182542950445,25,-1,-12,-58,-2,-4,-3,-8
1523182542971000,-18,-13,-1,-19,-5,-5,2,-14
1523182542971000,-78,4,-27,-40,-11,-9,-3,-11
1523182542973005,-6,13,10,24,8,6,21,24
1523182542973005,43,-8,-9,-25,-21,-6,-2,0
1523182542985539,2,-4,3,70,8,-1,-30,-23
1523182542985539,-5,0,-12,21,-2,-1,2,10
1523182542992104,-11,-27,-10,-9,-5,0,12,-24
1523182542992104,-9,-51,22,26,8,4,6,33
1523182543008603,-4,7,32,-26,-2,-3,6,27
1523182543008603,-51,-13,-21,-28,-4,-2,-19,-36
1523182543010106,-40,8,21,10,7,3,17,3
1523182543010106,57,-17,5,57,-7,7,11,33
1523182543031162,36,32,-10,90,-6,-3,-4,-5
1523182543031162,32,-24,17,79,9,-2,-5,-26
1523182543032666,4,-13,-6,-39,-13,-7,-10,6
1523182543032666,25,37,17,16,11,0,9,37
1523182543045701,7,17,-3,-35,4,0,-6,-14
1523182543045701,-63,-14,-24,-74,-10,2,-4,-15
1523182543052451,87,16,16,24,11,5,21,45
1523182543052451,-28,-9,-7,-4,-4,-3,-2,9
1523182543068801,-19,34,19,-29,-4,-3,-6,-59
1523182543068801,18,-4,9,53,11,4,-3,26
1523182543070266,0,15,-32,-21,-11,-3,3,-17
1523182543070266,5,-3,43,28,3,-3,-9,0
1523182543091331,29,-21,-4,-13,2,5,8,27
1523182543091331,-48,-2,0,25,4,-4,-9,-58
1523182543092824,-16,4,-72,-65,-11,-4,0,18
1523182543092824,9,39,1,11,0,-1,-4,5
1523182543105595,-1,-21,-6,14,4,-1,-7,-30
1523182543105595,5,13,32,65,8,3,-8,-15
1523182543112375,12,-45,-61,-77,-19,-6,-4,-23
1523182543112375,-25,-15,-16,51,6,2,7,9
1523182543128418,45,7,-4,8,1,2,9,96
1523182543128418,1,-28,-14,-13,-2,-4,6,-5
1523182543130428,-18,22,42,-18,-3,-6,-16,-43
1523182543130428,11,2,-12,-10,-2,0,9,-4
1523182543151215,33,3,-6,4,-7,-5,-3,41
1523182543151215,11,-10,-3,-40,-2,2,5,6
1523182543153024,29,17,48,127,14,4,18,4
1523182543153024,-11,-5,-14,-28,-9,-8,-22,-31
1523182543165518,-6,28,10,35,3,2,24,20
1523182543165518,-25,8,2,12,0,-1,-19,13
1523182543172035,-46,-1,-13,-5,4,0,-26,-62
1523182543172035,-29,13,-13,-26,-6,-3,3,-22
1523182543188578,-10,0,-14,-35,-6,-2,-7,10
1523182543188578,3,0,24,49,6,4,27,23
1523182543190088,62,15,4,-63,-18,-10,-15,1
1523182543190088,-37,-20,-8,27,9,2,1,-22
1523182543211138,-56,-13,12,10,0,0,-11,-36
1523182543211138,95,29,-13,-48,-7,-1,12,108
1523182543212643,-75,-45,2,30,2,-1,-1,-35
1523182543212643,-51,13,2,-29,0,-2,-9,-37
1523182543224677,54,14,-7,-25,1,2,40,-19
1523182543224677,42,2,-16,-81,-14,-7,-56,25
1523182543233699,-9,3,17,16,2,2,12,19
1523182543233699,26,2,0,22,5,1,17,21
1523182543248737,-39,-11,-6,-25,-5,-4,-30,-59
1523182543248737,15,-4,-5,13,-2,2,20,13
1523182543250241,-17,-3,17,14,2,1,-2,26
1523182543250241,-59,-4,12,17,0,-2,-4,6
1523182543271298,-15,24,0,25,0,-2,-2,9
1523182543271298,-10,-5,-17,-60,-5,-2,0,-22
1523182543272807,4,-1,12,34,1,5,6,23
1523182543272807,-32,5,8,13,-1,0,-3,-37
1523182543284837,-29,-59,55,29,-4,-1,-11,6
1523182543284837,-18,-11,-5,4,0,-4,-8,-19
1523182543293858,14,10,1,14,6,2,18,42
1523182543293858,72,-28,-17,-65,-11,-4,9,5
1523182543308402,-57,-5,-17,11,-8,-7,-25,1
1523182543308402,-13,-18,13,14,2,-2,-31,-69
1523182543310402,21,22,8,0,5,4,9,38
1523182543310402,-7,-6,14,30,5,2,11,27
1523182543330958,3,-3,-8,-32,-1,-2,-2,-37
1523182543330958,-24,-2,-17,1,-4,-2,10,-8
1523182543332461,5,8,-13,-1,-1,-2,8,1
1523182543332461,54,13,3,18,-2,-3,-11,8
1523182543344994,87,9,-17,16,-2,-1,6,19
1523182543344994,11,1,-3,5,3,-2,0,-13
1523182543354075,31,28,-14,8,1,1,13,27
1523182543354075,17,6,-5,-22,-3,-1,-7,-28
1523182543368792,-1,-7,-8,7,-1,-3,-2,8
1523182543368792,-17,-6,5,20,-3,-3,8,10
1523182543370061,-32,-9,-43,-13,-9,-4,-4,3
1523182543370061,18,-13,49,34,4,3,-5,18
1523182543391162,-4,8,-6,10,7,4,7,22
1523182543391162,-1,21,-2,2,-4,-2,4,-54
1523182543392621,-30,-6,8,4,-4,-4,2,7
1523182543392621,-24,17,-9,17,7,3,-4,4
1523182543405193,-47,2,-15,-36,-7,1,14,-7
1523182543405193,-19,4,19,32,2,-3,-15,-29
1523182543413676,10,-25,11,-5,0,-1,-6,-6
1523182543413676,-9,1,-16,-18,-5,-5,-14,0
1523182543428758,40,-27,11,28,9,2,15,9
1523182543428758,-14,22,-5,2,2,3,-10,23
1523182543430220,44,-16,23,-33,-8,-3,-15,-16
1523182543430220,3,-5,-16,-4,2,-2,-2,-5
1523182543451507,-8,-8,-2,-40,-9,-2,7,4
1523182543451507,-12,-6,-3,-6,-8,0,-4,11
1523182543453016,26,16,5,7,4,0,-6,-11
1523182543453016,-3,8,-9,17,3,0,7,-17
1523182543464813,0,-24,-7,-9,0,-1,-6,9
1523182543464813,74,-4,-19,19,5,2,1,2
1523182543473841,-44,0,1,-54,-10,-3,23,-4
1523182543473841,61,3,-8,-13,-2,-3,-19,26
1523182543488875,-28,-1,-15,6,0,-5,-23,16
1523182543488875,20,-14,10,3,-1,-1,-3,-8
1523182543490382,-25,-6,8,25,8,3,5,18
1523182543490382,39,-33,-19,-26,-8,-4,0,13
1523182543510937,-22,5,-1,-9,2,1,1,8
1523182543510937,-6,-9,52,18,-1,0,9,14
1523182543512940,24,-19,2,-17,-5,-5,-13,-18
1523182543512940,-1,12,2,-28,-4,-2,17,-20
1523182543524984,24,18,-3,-5,-2,0,-15,2
1523182543524984,2,12,9,-3,-7,-6,4,-7
1523182543533495,-9,-8,29,26,7,4,-3,-10
1523182543533495,4,3,6,12,1,-4,-1,-21
1523182543549075,-38,16,14,-13,3,1,5,0
1523182543549075,-17,-10,-26,-47,-10,-1,3,-1
1523182543550632,39,17,8,20,8,6,1,15
1523182543550632,8,15,-17,18,-9,-10,-25,-21
1523182543571095,38,2,-4,-38,-13,-5,-4,-2
1523182543571095,-5,10,-23,10,4,1,0,-5
1523182543572605,39,-25,-8,20,6,4,14,-14
1523182543572605,-47,31,6,-9,0,3,-1,8
1523182543584634,-16,-8,0,26,6,1,-7,-7
1523182543584634,92,10,-11,-9,-4,-6,7,-6
1523182543593655,-11,7,-11,-8,-3,-2,-5,5
1523182543593655,5,-5,26,28,6,5,9,-4
1523182543608695,-7,5,-30,-64,-11,-2,6,2
1523182543608695,-52,-19,-20,-41,1,-3,-18,-52
1523182543610199,-7,20,-2,-22,-7,-4,-16,0
1523182543610199,-25,-10,4,9,1,0,4,18
1523182543631256,-14,-12,7,45,1,0,0,9
1523182543631256,27,0,-7,1,-5,-1,4,25
1523182543632759,14,-14,-14,-11,-7,-5,-1,-18
1523182543632759,-2,1,8,4,2,2,-8,-13
1523182543644793,16,-8,0,-14,-1,-2,0,-8
1523182543644793,-37,-14,-12,2,-3,-7,-2,1
1523182543653817,42,10,32,56,5,0,-2,-6
1523182543653817,-7,17,-36,-62,-14,-3,-6,-8
1523182543667852,10,8,34,42,1,-1,-9,-21
1523182543667852,-20,-26,-4,32,7,6,6,2
1523182543674874,-8,3,4,3,-9,-5,-6,13
1523182543674874,32,14,15,46,7,4,17,27
1523182543691416,0,-5,-13,4,1,0,-4,-27
1523182543691416,17,-12,4,18,2,-2,7,11
1523182543692919,-11,12,-13,-3,1,0,-4,13
1523182543692919,25,8,-2,-13,-5,-2,-5,2
1523182543713511,0,-1,-16,22,5,2,13,44
1523182543713511,0,12,-6,-37,-10,-4,-6,-49
1523182543714979,-27,-10,-11,9,2,-2,-6,-6
1523182543714979,-9,-8,-2,29,2,2,7,3
1523182543728515,-5,-4,-14,-65,-6,-5,-7,-7
1523182543728515,-14,3,28,27,3,2,1,10
1523182543730017,-46,-26,-54,-87,-15,-6,2,-41
1523182543730017,0,13,16,18,4,0,12,-5
1523182543751308,5,2,19,43,-2,-4,-13,-18
1523182543751308,13,-2,-22,-22,-1,0,-3,10
1523182543753159,-33,-14,8,-6,0,3,5,11
1523182543753159,16,-30,-2,22,2,-7,3,-32
1523182543773636,76,1,-12,-31,-7,-4,-30,54
1523182543773636,1,22,3,23,-2,1,0,1
1523182543775138,32,17,2,-25,1,-3,2,5
1523182543775138,-67,-8,-5,-3,1,3,-8,-26
1523182543788674,-32,-4,6,36,-1,-7,12,-6
1523182543788674,1,-2,-10,-2,5,1,5,12
1523182543790179,-15,-7,8,22,-4,-2,-47,1
1523182543790179,28,2,-2,-14,-4,-4,-12,43
1523182543811234,-17,-8,5,11,2,0,3,-22
1523182543811234,6,-4,-9,-34,0,2,11,32
1523182543812738,-64,3,7,-3,-1,-4,12,-45
1523182543812738,-20,-9,-22,-43,-8,-5,-10,-30
1523182543833793,4,-1,-2,1,0,0,-2,0
1523182543833793,7,-7,8,15,-5,1,1,51
1523182543835836,28,10,-4,-15,1,-1,-2,-36
1523182543835836,11,3,8,3,0,1,-6,7
1523182543847830,-1,7,-8,-10,3,3,17,17
1523182543847830,-33,-2,12,3,0,0,-4,12
1523182543854849,-16,3,-1,15,2,-1,-2,0
1523182543854849,-15,-5,-2,-11,-3,-1,-2,10
1523182543870930,-9,10,8,1,1,3,2,-66
1523182543870930,-70,-25,3,9,7,5,13,27
1523182543872899,8,24,11,35,3,-4,-6,22
1523182543872899,-84,-5,-12,-1,-8,-4,-1,-19
1523182543893454,22,10,-1,-6,0,4,9,17
1523182543893454,-55,-10,3,-2,0,0,-8,-14
1523182543894956,41,-18,-18,-10,-6,-8,3,-21
1523182543894956,-2,-13,19,29,8,1,-3,-16
1523182543908038,1,-4,-9,5,-9,-3,0,4
1523182543908038,19,6,1,-12,-6,-6,-3,-1
1523182543914507,-11,-19,0,5,2,5,15,39
1523182543914507,9,13,-2,-9,-2,-3,-7,-23
1523182543931053,-10,-7,14,27,2,-1,-3,-2
1523182543931053,28,-13,-14,-49,-6,-5,-5,-7
1523182543932557,-5,13,7,49,1,4,6,12
1523182543932557,19,1,-2,-27,-4,2,10,19
1523182543953611,-34,-26,-7,-1,2,-3,-7,-23
1523182543953611,-12,19,7,32,4,0,0,-21
1523182543955117,14,-1,7,-13,-3,1,-4,-4
1523182543955117,-35,-14,-24,48,10,1,7,-13
1523182543968151,10,-5,-39,-64,-15,-7,-9,13
1523182543968151,65,-5,2,24,-6,-2,1,-64
1523182543974671,-16,-34,-10,-16,-2,-2,1,53
1523182543974671,59,20,-12,6,3,1,-12,41
1523182543991223,-28,5,9,17,7,1,5,-12
1523182543991223,-13,-13,-6,-10,-1,-2,-11,-26
1523182543992717,-25,6,-2,10,0,3,2,-27
1523182543992717,31,0,-2,-58,0,0,8,17
1523182544013810,17,5,-10,13,-6,-3,-5,12
1523182544013810,-4,1,17,3,-4,-1,-1,30
1523182544015276,-54,11,1,-2,5,0,12,-40
1523182544015276,-8,-5,11,13,-1,-1,-15,-4
1523182544027809,10,12,10,-27,-2,0,-4,6
1523182544027809,-10,-9,-13,-13,-3,-2,-3,-4
1523182544034828,4,9,-9,4,-3,-7,-11,-18
1523182544034828,-9,-11,12,14,-3,-1,6,-10
1523182544051105,-21,7,6,2,2,0,-4,-15
1523182544051105,18,18,1,14,2,2,4,-20
1523182544052876,10,14,3,-17,0,-2,-10,23
1523182544052876,12,-20,3,6,0,4,19,11
1523182544073933,-8,36,5,10,0,-2,-12,5
1523182544073933,9,20,-4,-13,-2,-3,-1,13
1523182544074935,20,-11,8,6,2,2,14,17
1523182544074935,-25,-10,33,-13,-1,2,-5,-1
1523182544088204,7,-12,6,17,0,4,22,-51
1523182544088204,-28,11,-7,1,0,-7,-42,24
1523182544094492,1,-9,-2,-15,-4,-3,-2,-11
1523182544094492,5,20,5,40,2,0,2,13
1523182544111031,-14,-14,-17,-46,-9,-2,3,-6
1523182544111031,-15,9,-3,-15,-3,-1,6,9
1523182544112536,13,-8,-3,1,-2,1,-6,3
1523182544112536,0,-12,-7,-9,-3,-2,-4,-2
1523182544133591,-70,18,7,17,8,5,7,13
1523182544133591,115,14,8,38,8,1,8,28
1523182544135095,-30,-2,-11,-45,-10,-4,-9,-15
1523182544135095,0,-4,-29,-79,-13,-7,-2,-2
1523182544148356,26,-19,-3,-1,-3,-1,-3,-11
1523182544148356,-11,-11,0,16,3,1,1,-3
1523182544154881,11,-2,43,12,3,4,42,-1
1523182544154881,-1,17,4,-1,-3,-5,-27,-15
1523182544171229,15,-17,24,10,1,-3,5,49
1523182544171229,6,-5,-2,-8,-3,1,4,5
1523182544172696,-38,3,-5,21,6,1,-10,-10
1523182544172696,7,14,-12,-2,-8,-4,2,0
1523182544201505,26,-9,18,0,-2,-3,-4,7
1523182544201505,-24,-6,4,2,-5,-2,9,-16
1523182544203010,-4,-4,-3,7,0,0,-9,1
1523182544203010,-8,-4,-12,-10,3,1,4,-9
1523182544207292,54,11,-21,13,1,-1,-7,5
1523182544207292,30,2,-11,-24,0,0,4,6
1523182544216310,3,12,-2,-14,-12,-1,-10,0
1523182544216310,-18,-14,9,7,3,3,-5,-2
1523182544231172,0,-10,-9,-13,-4,-5,-2,-26
1523182544231172,-48,-13,7,-1,3,3,14,-2
1523182544232638,-3,19,-6,9,0,-3,-14,-12
1523182544232638,12,3,4,4,7,6,20,57
1523182544253693,-87,-17,-3,1,-5,-4,-16,-71
1523182544253693,-65,-36,-12,-1,-5,-8,-11,-33
1523182544255201,15,-5,-2,8,4,0,5,77
1523182544255201,-30,5,-2,6,-9,-7,-5,-26
1523182544267229,27,0,3,29,5,0,0,-13
1523182544267229,29,14,11,-20,-3,2,0,38
1523182544276254,-5,-25,-28,-63,-10,-5,2,-28
1523182544276254,-6,-8,1,12,1,-1,-10,-11
1523182544291293,34,19,8,8,-4,-3,1,21
1523182544291293,8,2,-14,4,-3,-4,-5,-11
1523182544292797,5,-18,-1,2,-2,1,-3,7
1523182544292797,9,-2,-26,-5,0,3,10,-1
1523182544313852,2,1,6,-9,2,5,2,15
1523182544313852,-22,8,0,2,-2,-6,-9,-1
1523182544315358,2,-7,-16,-11,-2,-2,15,-25
1523182544315358,2,-22,-4,16,-2,-6,-9,5
1523182544327389,-18,-19,9,-21,-2,1,2,31
1523182544327389,-22,36,4,-31,-2,2,-5,-21
1523182544336412,22,-14,-4,3,-5,-6,2,7
1523182544336412,19,-3,-3,-16,-6,-4,2,-8
1523182544351462,4,1,-2,12,1,-2,-2,11
1523182544351462,20,-3,1,9,2,2,6,5
1523182544353116,-34,6,-8,-5,2,3,0,-7
1523182544353116,27,12,13,-1,0,3,3,9
1523182544373514,17,4,-21,-22,-9,-6,-7,-11
1523182544373514,-4,-6,-1,22,2,1,1,2
1523182544375017,44,9,-1,12,-3,-1,-14,-12
1523182544375017,-11,-3,5,1,-2,-2,-4,2
1523182544387614,7,-3,-7,5,1,1,4,7
1523182544387614,-16,-7,53,60,8,4,2,-10
1523182544396073,-34,-7,-47,-75,-18,-8,-12,-12
1523182544396073,11,21,4,8,4,1,6,-21
1523182544411150,-16,-10,-29,-12,-3,-2,-4,25
1523182544411150,-22,-1,-6,-6,-3,-4,-9,-2
1523182544412617,6,6,13,19,5,3,-5,-7
1523182544412617,-16,-8,-2,-8,1,1,8,-6
1523182544433673,-20,-25,-4,8,0,-2,17,-15
1523182544433673,17,-4,0,-10,2,0,-26,8
1523182544435176,53,-6,-12,-28,-2,-2,2,9
1523182544435176,1,16,-10,19,-4,-3,4,0
1523182544447208,20,7,23,-1,8,3,-2,-2
1523182544447208,4,-9,-23,-39,-15,-6,7,9
1523182544456236,-27,-10,13,17,2,1,-1,-12
1523182544456236,-52,14,9,22,10,6,0,-4
1523182544470269,55,29,-7,13,-3,-3,1,59
1523182544470269,-77,-11,1,-8,-5,-4,-7,-59
1523182544478791,14,12,7,16,3,-2,-4,10
1523182544478791,8,3,-15,17,5,3,-1,-13
1523182544493833,-26,-3,0,-44,-7,-1,-1,-11
1523182544493833,18,-15,-29,-29,-13,-7,-9,41
1523182544495337,-16,3,19,36,5,-1,0,-6
1523182544495337,-10,-11,-2,-9,0,-1,3,-26
1523182544507370,-3,9,-10,6,-1,0,-17,-6
1523182544507370,36,-17,-7,-41,-3,-2,11,7
1523182544516393,-13,-3,-1,5,0,0,-3,-10
1523182544516393,36,2,10,11,-2,-3,1,50
1523182544530930,14,12,-3,11,2,2,5,-14
1523182544530930,11,10,4,12,2,1,10,-32
1523182544532936,-2,-5,1,29,5,0,-5,50
1523182544532936,-18,-14,-2,-29,-12,-9,-4,-36
1523182544554014,32,-8,2,6,-1,0,-13,-26
1523182544554014,32,30,0,7,1,0,5,47
1523182544554996,14,17,7,5,-1,-2,-7,-59
1523182544554996,19,0,-3,5,-1,0,3,57
1523182544567026,-12,-15,13,-5,-1,0,-1,-26
1523182544567026,49,-4,16,68,8,4,41,45
1523182544576050,2,-11,-30,-11,-5,-7,-40,50
1523182544576050,64,3,-27,-89,-13,-5,-12,-18
1523182544591091,-36,1,-5,9,-3,-1,2,-13
1523182544591091,-12,19,14,13,5,7,-2,11
1523182544592595,12,4,1,4,-3,-1,17,-20
1523182544592595,-12,7,0,13,-5,-6,-2,4
1523182544613653,-6,-4,7,8,5,3,-1,17
1523182544613653,-2,3,-26,-13,-1,2,1,5
1523182544615157,-26,-3,42,13,1,0,-2,-75
1523182544615157,-32,-2,9,-2,-3,-2,-7,10
1523182544636446,0,4,2,14,1,-1,5,9
1523182544636446,-19,-9,-10,-57,-7,-4,-10,-20
1523182544637715,-2,-2,-5,20,-3,-2,0,22
1523182544637715,-4,-8,-9,-11,4,2,2,-32
1523182544651488,-3,-45,-1,-1,-7,-7,-7,28
1523182544651488,40,-5,-10,-4,-1,-2,-10,-47
1523182544652754,-4,11,4,-2,2,2,7,9
1523182544652754,-8,-7,12,14,-2,0,-4,-9
1523182544673312,0,10,-9,-4,-2,0,42,29
1523182544673312,15,-2,12,12,-3,-4,-63,-20
1523182544679832,-13,-26,-15,-1,-2,-1,9,-3
1523182544679832,-23,-13,-2,22,-3,-4,2,-2
1523182544695869,-12,14,0,-19,-3,0,0,-18
1523182544695869,-67,-6,2,25,-1,0,15,-3
1523182544697913,38,8,16,10,2,1,1,18
1523182544697913,8,-19,-12,-57,-1,2,-3,2
1523182544710909,-38,-4,1,9,-1,-5,-13,-48
1523182544710909,-20,9,-9,-9,-1,-1,7,-5
1523182544712915,-3,-6,41,11,2,2,1,9
1523182544712915,46,28,10,27,3,0,2,26
1523182544733468,7,12,-4,-25,-2,-3,-10,-12
1523182544733468,1,-21,37,11,-1,2,5,9
1523182544734974,-6,-9,-21,-20,-1,-2,5,-3
1523182544734974,-4,3,8,12,2,0,0,-9
1523182544756533,-68,-7,0,-4,-3,-4,-14,-2
1523182544756533,-7,-7,-15,11,-2,-4,-11,4
1523182544758036,-36,-1,-4,2,2,1,-4,-34
1523182544758036,-2,-4,11,9,0,0,12,-25
1523182544770568,80,-7,-22,6,-4,-3,-35,64
1523182544770568,-46,-9,-7,-10,0,-3,4,-59
1523182544777084,-19,-4,2,2,-4,-4,-2,3
1523182544777084,-16,5,-8,-22,2,0,-3,5
1523182544793630,-19,6,5,9,1,2,18,-12
1523182544793630,66,11,-15,-8,-3,-1,12,59
1523182544795135,21,0,-1,17,-2,-5,-10,-13
1523182544795135,-18,-38,37,-3,-6,-7,-12,-42
1523182544816188,0,-2,0,-12,-3,-2,5,-1
1523182544816188,8,9,-5,-8,-1,2,-2,15
1523182544818195,-9,-8,-6,-2,2,2,7,4
1523182544818195,5,2,-5,19,0,0,1,43
1523182544830266,-1,1,1,-4,1,2,-2,-16
1523182544830266,-16,-2,10,21,4,-2,0,-11
1523182544837489,-9,17,-28,-59,-5,3,13,17
1523182544837489,-6,-1,8,56,4,1,-8,3
1523182544853989,-3,-12,-8,-21,1,-1,-4,-10
1523182544853989,65,-5,-5,12,-4,0,-3,18
1523182544855298,-14,-3,-8,-11,-1,0,12,-1
1523182544855298,-6,-12,-41,-9,-5,-5,-3,-16
1523182544875846,-48,3,12,25,4,0,-12,13
1523182544875846,29,-20,-9,-9,-2,-1,8,33
1523182544877853,-11,3,16,10,2,1,-6,-2
1523182544877853,46,4,-14,-24,-6,-1,3,-51
1523182544890433,-70,-6,0,31,3,-5,10,79
1523182544890433,-55,-8,-26,-95,-14,-4,-10,-50
1523182544897404,11,7,-11,8,-1,-3,-5,12
1523182544897404,-28,-1,6,9,5,4,2,2
1523182544913448,25,8,10,22,1,4,9,-26
1523182544913448,-21,10,-15,11,2,1,3,4
1523182544915452,-3,-17,9,-1,1,-1,-2,1
1523182544915452,-42,12,-4,-10,-6,-5,-4,5
1523182544936244,33,-7,-21,-20,-6,-1,1,-10
1523182544936244,-18,-5,13,24,8,4,2,13
1523182544938014,2,-32,-8,-12,-7,0,1,-6
1523182544938014,63,31,5,16,-3,-7,-10,-19
1523182544950546,12,8,-7,4,1,0,-1,-11
1523182544950546,-36,-7,-4,-15,-6,-3,-4,-18
1523182544957066,62,16,-6,-3,-1,0,0,9
1523182544957066,-45,-17,3,8,6,4,3,14
1523182544973655,54,-4,0,-26,-10,-8,-12,-10
1523182544973655,33,5,14,48,11,6,-4,-9
1523182544975111,19,7,-5,-74,-7,-4,-6,-14
1523182544975111,-2,1,-11,-1,-3,-1,0,21
1523182544996208,30,8,17,1,-2,2,4,-2
1523182544996208,-39,-7,32,39,8,0,0,-45
1523182544997671,-55,10,-12,-26,-9,-2,0,14
1523182544997671,18,-1,2,18,2,3,-1,19
1523182545010205,-7,3,29,-14,4,2,6,-11
1523182545010205,5,-9,2,-18,-6,-7,-5,-1
1523182545017224,-39,1,14,51,12,4,4,3
1523182545017224,-32,-20,-9,11,-7,-5,-3,-6
1523182545034268,-1,-6,-12,-13,-2,1,10,0
1523182545034268,-6,22,2,64,2,2,-1,7
1523182545035812,-8,-10,-13,6,-3,-6,-6,-7
1523182545035812,-13,-1,0,2,6,5,3,-1
1523182545056330,-57,-24,-24,-29,-4,-4,-2,-9
1523182545056330,-2,-19,48,60,14,4,-3,-9
1523182545057837,-31,31,-9,-8,-13,0,28,22
1523182545057837,-9,-27,9,-70,-4,-1,-34,-8
1523182545070404,-45,-17,-17,48,8,1,-4,-10
1523182545070404,-23,9,-19,-79,-22,-8,-9,-26
1523182545077382,52,17,-5,127,18,3,2,17
1523182545077382,9,-33,-42,-98,-26,-9,6,-4
1523182545093426,56,20,17,106,6,0,2,18
1523182545093426,-2,3,-43,-31,-3,-2,1,6
1523182545095432,5,-11,19,69,13,3,-7,-15
1523182545095432,2,11,20,-59,-4,-3,5,2
1523182545115986,36,17,3,-13,-3,0,-8,-11
1523182545115986,15,-15,-19,-8,0,-1,7,12
1523182545118059,9,-12,-3,-21,-2,-2,-11,-12
1523182545118059,5,19,11,49,5,1,2,-16
1523182545129523,9,-3,25,-29,-4,0,6,18
1523182545129523,4,6,10,-7,1,0,3,10
1523182545138550,-59,-10,15,-30,-7,-4,-7,-11
1523182545138550,31,3,-12,-6,1,3,11,28
1523182545153821,1,-23,-11,-8,-5,-3,6,-11
1523182545153821,20,1,4,18,-1,-3,-15,5
1523182545155093,-18,-2,-5,-30,-4,-3,-3,-34
1523182545155093,-5,5,-5,49,3,-1,2,7
1523182545176145,-45,-11,3,17,7,5,-2,3
1523182545176145,-9,12,-4,-19,-9,-3,13,-24
1523182545177650,30,6,-4,11,1,-1,-22,-10
1523182545177650,-11,-3,9,1,-3,-4,-1,-4
1523182545189684,-38,26,-3,0,2,2,8,-19
1523182545189684,30,-10,14,-24,-2,0,1,17
1523182545198705,9,-2,9,23,0,0,2,2
1523182545198705,-1,13,-19,-7,-1,-5,-3,-8
1523182545213745,0,6,-14,8,-6,-3,-9,-22
1523182545213745,-5,-5,-3,1,-2,0,3,8
1523182545215253,37,5,11,4,-2,-1,1,11
1523182545215253,-19,2,19,30,10,5,7,28
1523182545236464,34,16,-28,-61,-12,-6,-4,5
1523182545236464,-60,-22,-9,1,-3,-5,-5,-21
1523182545237815,-13,-12,6,-22,-3,0,3,17
1523182545237815,-30,-2,-7,26,5,1,-4,-24
1523182545250076,77,-2,5,5,-4,-4,-6,37
1523182545250076,-16,15,2,1,-3,-3,19,-6
1523182545258865,-18,-4,-12,-30,-1,-2,-13,-5
1523182545258865,9,9,-11,0,-5,-4,-1,-13
1523182545273446,-40,-7,10,12,-2,-2,0,-8
1523182545273446,22,12,-5,-20,4,5,2,25
1523182545274908,4,-5,-2,-4,-4,-4,-2,-13
1523182545274908,-3,-18,-8,-17,-9,-5,-41,5
1523182545295963,-83,-26,-6,-13,0,0,4,-26
1523182545295963,12,1,6,17,2,0,5,24
1523182545297970,27,12,-5,-3,3,1,-6,8
1523182545297970,-63,-9,16,5,1,0,10,-16
1523182545310001,-8,2,-5,-1,1,-2,-2,-22
1523182545310001,-14,-15,-13,-18,-7,-3,-13,-9
1523182545318525,8,23,0,1,-5,-3,5,-13
1523182545318525,27,7,-14,15,5,2,11,14
1523182545333566,48,-3,-11,-10,-4,-2,6,14
1523182545333566,7,-8,11,16,4,1,-7,-18
1523182545335070,-3,19,-11,-27,-10,-5,-8,-8
1523182545335070,36,3,6,17,3,-2,6,15
1523182545356126,-29,4,12,0,2,0,-7,-27
1523182545356126,52,14,6,20,5,2,12,31
1523182545357628,2,-34,-5,-18,-10,-4,-6,-43
1523182545357628,-15,-8,-18,-28,-3,-4,-4,-10
1523182545369698,51,5,17,15,2,0,1,20
1523182545369698,-2,4,-2,-2,1,1,8,-6
1523182545378684,-9,-10,11,22,7,5,-13,-6
1523182545378684,12,-3,-64,-48,-11,-6,-3,-1
1523182545393959,-14,-5,13,5,-1,-3,-2,-4
1523182545393959,0,9,-10,-17,-5,-2,-6,-1
1523182545395230,3,-14,4,9,3,2,4,29
1523182545395230,17,2,3,42,-1,-5,-2,-11
1523182545416283,-10,16,0,-2,0,1,-6,10
1523182545416283,0,26,-5,7,-1,0,3,24
1523182545417788,-6,-3,-35,22,0,-2,7,-14
1523182545417788,-11,8,38,-7,-2,4,0,8
1523182545429822,-55,-24,-21,-27,-7,-6,7,7
1523182545429822,-50,-19,0,7,-1,-5,-19,-16
1523182545438847,33,8,5,1,4,4,13,14
1523182545438847,-16,4,15,29,5,3,27,5
1523182545453598,21,1,17,3,4,0,-13,20
1523182545453598,-19,-26,-3,-18,-2,0,-10,-37
1523182545455388,-21,25,-1,7,-1,-2,11,32
1523182545455388,38,-2,14,6,-4,1,3,15
1523182545475941,1,9,-5,17,3,1,-9,-21
1523182545475941,21,-10,-19,-24,-7,-6,-2,-1
1523182545477446,-6,-7,18,14,1,-3,1,-40
1523182545477446,26,2,7,-42,2,2,0,23
1523182545489985,-33,-12,-23,0,-7,-6,-12,-47
1523182545489985,5,-4,5,-16,0,-1,-4,7
1523182545498502,5,-8,-5,9,0,-1,4,33
1523182545498502,4,-4,-13,-38,-5,0,1,17
1523182545513543,-17,8,21,14,5,4,7,-3
1523182545513543,-73,-14,12,79,8,-5,-21,-13
1523182545515047,79,-12,-27,-120,-21,-7,18,-1
1523182545515047,-30,12,-6,34,7,2,-20,-2
1523182545536102,51,19,8,3,2,2,-11,7
1523182545536102,4,-1,16,29,2,4,18,7
1523182545537609,-10,-3,-13,-1,-3,-6,-16,9
1523182545537609,-13,-26,-6,46,2,-3,-2,-13
1523182545550138,3,-2,-23,-46,-9,-2,10,1
1523182545550138,40,32,3,-6,2,4,7,17
1523182545558662,-31,1,1,0,0,0,-13,-24
1523182545558662,-7,-7,11,9,2,0,11,6
1523182545573748,49,-13,-12,1,-4,-8,-5,0
1523182545573748,-12,-11,-33,-42,-10,-3,0,-10
1523182545575208,-31,3,3,-23,-2,0,9,11
1523182545575208,5,31,28,41,7,2,2,-36
1523182545596262,63,5,-15,0,-2,0,-1,45
1523182545596262,-30,-19,-1,-3,0,-3,-14,15
1523182545597807,0,-7,37,12,2,4,2,-1
1523182545597807,-34,16,-22,12,-3,-2,-10,-17
1523182545618969,1,-7,-2,-12,4,3,10,11
1523182545618969,13,8,25,31,-3,-2,12,-34
1523182545620326,15,-13,-21,-27,0,1,-16,-13
1523182545620326,41,-12,16,-7,-1,-3,7,34
1523182545633386,-96,12,7,8,2,0,-1,-16
1523182545633386,10,22,-4,6,1,-2,-8,-3
1523182545635374,18,20,6,-9,-3,2,10,17
1523182545635374,-18,-28,-1,-2,-6,-6,-6,-21
1523182545655968,2,-11,-15,-5,-2,1,-1,17
1523182545655968,20,32,28,-1,1,0,1,-3
1523182545657925,25,3,-17,-3,-1,-8,-10,-7
1523182545657925,19,-29,8,0,0,1,-4,20
1523182545678482,-4,-5,11,16,-3,0,-1,-20
1523182545678482,-47,-9,4,-3,1,-1,-2,-10
1523182545679985,-48,5,-12,32,3,0,-3,11
1523182545679985,-15,2,-6,7,0,0,-4,-41
1523182545693757,0,-10,23,0,1,-2,1,-1
1523182545693757,-14,26,-35,-38,-6,2,-6,-11
1523182545695025,-37,-4,22,23,2,-1,5,-27
1523182545695025,-14,3,0,-2,-1,-1,-8,5
1523182545716083,-11,1,1,30,5,2,8,9
1523182545716083,33,-2,-23,-81,-6,-1,3,20
1523182545717586,-44,-22,-8,13,1,-1,11,-39
1523182545717586,60,12,5,-6,-2,-4,-19,-8
1523182545738643,6,4,3,-10,-3,-2,-7,3
1523182545738643,20,-7,-4,11,-1,0,1,3
1523182545740145,18,-7,4,25,0,-1,8,25
1523182545740145,24,-20,-10,-40,-3,-1,13,13
1523182545753337,-2,4,3,11,1,-1,0,-21
1523182545753337,-21,-31,7,5,0,-2,-5,-17
1523182545759765,-36,-14,-4,11,1,1,-9,8
1523182545759765,-3,18,25,-17,-3,-1,9,17
1523182545776305,19,-6,-29,-8,-4,-3,-4,9
1523182545776305,50,-15,-15,11,-6,-5,-3,-2
1523182545777810,-28,-15,3,-11,-3,-3,-8,11
1523182545777810,-11,8,-7,8,1,2,3,14
1523182545798875,39,2,14,23,2,4,8,-8
1523182545798875,-13,4,0,-4,-2,-7,-7,-6
1523182545800369,-48,-12,4,15,4,0,13,-26
1523182545800369,-9,-2,-5,-1,-2,2,8,14
1523182545812905,-48,7,5,2,1,0,-9,0
1523182545812905,35,-10,9,20,4,6,6,14
1523182545819939,114,34,-2,-9,-6,-7,-14,-16
1523182545819939,-52,-18,-11,21,1,-3,-2,-41
1523182545836465,-46,-7,-7,-35,-5,-8,-12,2
1523182545836465,-4,11,5,-1,2,9,11,-4
1523182545837970,18,-12,-14,-3,-8,-10,-22,23
1523182545837970,31,-3,-13,-8,0,2,3,15
1523182545858524,26,3,-13,-12,-6,-3,10,26
1523182545858524,-9,14,29,13,2,0,1,8
1523182545864541,6,14,21,-1,4,4,0,-36
1523182545864541,-91,-1,-3,21,0,-4,-2,0
1523182545873106,-11,-4,-5,-87,-5,-2,-1,-14
1523182545873106,-17,9,-4,2,2,2,5,29
1523182545879582,4,6,-3,5,4,5,8,35
1523182545879582,-21,-29,31,-5,-2,-6,-15,-73
1523182545896166,2,-15,19,59,11,4,3,40
1523182545896166,68,-15,-34,-87,-28,-13,-14,-4
1523182545897629,29,4,-1,-16,4,2,8,42
1523182545897629,-14,18,9,-8,0,0,-6,-43
1523182545918920,-25,-6,-6,10,-1,-1,-2,-27
1523182545918920,-31,-10,11,55,10,2,14,20
1523182545920191,40,2,-24,-36,-7,-2,-26,-17
1523182545920191,10,18,-21,24,-3,3,17,36
1523182545932724,-56,-16,13,10,4,-1,-8,-52
1523182545932724,-5,21,10,57,12,-3,-12,15
1523182545939744,-118,-1,-11,-16,-10,-3,11,-63
1523182545939744,24,-1,-5,9,2,1,-46,29
1523182545956287,44,1,-4,-6,-8,-3,2,13
1523182545956287,-16,-21,34,52,12,5,6,-7
1523182545957789,1,-12,-14,9,0,-1,-2,13
1523182545957789,41,8,-26,-79,-12,-5,13,22
1523182545978845,10,13,4,3,-1,1,5,-63
1523182545978845,-30,-18,-5,-13,-1,-2,-8,49
1523182545980349,-25,1,4,4,1,0,-8,34
1523182545980349,-9,-1,0,19,1,2,6,-11
1523182545992882,40,-4,-27,9,1,2,6,26
1523182545992882,-1,-7,15,-4,-2,-2,0,-65
1523182546000136,-15,-11,10,3,1,-2,-2,0
1523182546000136,-26,-10,-8,15,-5,-9,-8,-32
1523182546016179,0,-16,4,12,1,-3,3,38
1523182546016179,63,2,-23,-16,-12,-4,-6,-2
1523182546018142,15,0,2,25,3,4,5,28
1523182546018142,20,4,22,6,7,4,2,1
1523182546038508,-17,1,-24,-52,-13,-3,12,-7
1523182546038508,1,2,-6,-5,0,-1,-1,4
1523182546040008,-29,-3,21,8,2,2,-4,-15
1523182546040008,10,7,-28,4,-2,-1,-17,11
1523182546053042,23,4,22,8,0,-1,0,11
1523182546053042,-7,-1,-25,-14,-8,-8,-5,-11
1523182546059561,23,5,11,-13,3,2,2,-4
1523182546059561,3,-4,-2,3,-2,1,12,-24
1523182546076107,7,17,15,13,2,-1,-14,45
1523182546076107,-13,-7,0,-5,-2,-1,-10,-30
1523182546077609,-8,0,-5,-33,-7,-7,-4,-20
1523182546077609,-33,-3,-9,-16,6,3,10,7
1523182546098898,14,7,-1,-4,-9,-5,-6,-4
1523182546098898,-32,21,11,21,5,5,14,-9
1523182546100167,-13,2,-17,-58,-7,-5,0,7
1523182546100167,65,-13,6,3,2,-2,1,28
1523182546112238,-76,-13,-6,-13,-1,-2,-7,-19
1523182546112238,33,24,-14,29,-4,-4,-1,21
1523182546121223,2,-1,1,-28,-5,-1,3,-12
1523182546121223,-3,12,4,-4,-3,0,2,-1
1523182546135262,-21,1,8,12,2,-4,-1,-2
1523182546135262,0,-5,-8,-25,-7,-5,-8,-27
1523182546143783,5,-1,-27,51,4,-1,-2,18
1523182546143783,6,4,-4,-36,-12,-7,11,26
1523182546158322,34,4,24,21,0,0,-5,17
1523182546158322,-17,-4,-13,-2,1,0,-2,-12
1523182546160330,6,-17,51,7,0,-1,4,-28
1523182546160330,-11,-1,17,25,4,0,-8,7
1523182546172361,16,4,-8,-10,-1,-1,3,-3
1523182546172361,-53,-12,-4,-15,-6,-4,-4,-27
1523182546181384,-34,9,-8,24,4,3,7,21
1523182546181384,-21,-15,16,9,1,1,12,-24
1523182546195960,13,13,6,1,3,0,-20,-7
1523182546195960,63,-4,0,-20,0,1,10,36
1523182546198136,4,12,-3,26,1,0,-3,-7
1523182546198136,-11,-3,-6,-33,-4,-2,3,11
1523182546217719,26,1,-6,9,-4,-1,6,-28
1523182546217719,-3,-10,-9,-4,5,3,-11,7
1523182546226001,37,-4,2,5,-4,-4,-7,3
1523182546226001,19,-4,-4,2,-2,-2,-8,-13
1523182546232019,-24,-8,2,-1,0,-2,9,3
1523182546232019,-21,-1,4,-4,-1,1,-4,-27
1523182546241042,-35,-3,14,7,0,-2,-1,1
1523182546241042,-6,2,6,5,1,-3,-1,1
1523182546256083,-10,-7,-11,4,0,1,3,5
1523182546256083,24,6,7,2,-1,-1,2,-1
1523182546257586,32,4,-21,-1,-1,0,-2,-8
1523182546257586,38,24,-5,1,2,2,-3,14
1523182546278682,-53,-12,-11,13,-3,-3,-10,-43
1523182546278682,4,-5,1,-27,-1,0,1,35
1523182546280145,3,-5,-15,-31,-4,1,11,13
1523182546280145,-39,-8,18,3,2,-2,-11,-3
1523182546292217,29,28,-6,-3,1,0,5,11
1523182546292217,-9,-4,6,-9,-8,-2,-4,-2
1523182546301201,3,-9,15,24,1,0,-5,-3
1523182546301201,-10,-2,-16,-4,0,1,6,1
1523182546316241,-7,-25,4,-3,0,-1,-5,1
1523182546316241,18,-2,-5,1,0,-2,1,4
1523182546317746,10,7,3,18,3,0,0,15
1523182546317746,-10,-9,-24,-12,-7,-4,-9,-12
1523182546337802,18,10,0,14,-1,-1,0,-5
1523182546337802,30,-7,-44,-3,-1,0,6,12
1523182546346322,40,-6,-3,-6,-2,-1,-3,1
1523182546346322,19,4,2,8,4,3,9,4
1523182546352574,-18,-7,-12,-5,-5,-4,-7,-20
1523182546352574,-1,2,12,10,1,-1,-3,4
1523182546361402,-5,9,9,11,1,0,-2,1
1523182546361402,-35,-4,-2,-35,-2,-1,3,15
1523182546375899,28,-5,2,-7,-1,-1,-8,20
1523182546375899,-84,-18,15,3,-3,-1,9,12
1523182546377905,-28,-13,0,6,-1,-2,-5,-36
1523182546377905,45,11,-4,10,-3,-4,-16,-5
1523182546398986,-7,4,3,-3,1,1,6,-11
1523182546398986,-14,-13,12,-34,0,2,-1,-6
1523182546399964,-8,1,-14,1,-2,-4,-11,-13
1523182546399964,-15,-13,18,33,1,1,7,2
1523182546421310,-20,-14,-5,-22,-2,-2,2,7
1523182546421310,-11,0,-11,20,2,0,-5,-13
1523182546422815,-19,-18,22,-11,-4,3,12,-9
1523182546422815,-9,16,10,32,0,-1,12,-2
1523182546436348,21,3,3,-26,-3,-2,-54,8
1523182546436348,22,19,-7,12,5,2,9,0
1523182546437852,14,-27,-3,-4,1,0,-1,4
1523182546437852,-13,16,-24,-24,-6,-3,-1,-4
1523182546458408,10,-10,38,19,6,5,20,8
1523182546458408,29,9,-20,-8,-8,-3,-4,5
1523182546460415,-38,16,-31,-9,-1,-1,-2,-45
1523182546460415,-31,-51,35,16,1,1,-6,10
1523182546472477,9,14,10,-21,-2,-5,5,-19
1523182546472477,-78,11,-42,-20,-4,1,-6,-12
1523182546481469,23,16,3,8,-1,-4,0,10
1523182546481469,8,5,5,11,1,0,7,-13
1523182546495505,-42,-11,-30,-6,-2,2,16,37
1523182546495505,-42,-14,-19,30,-1,-7,-23,-36
1523182546502258,-7,8,0,-11,-5,-4,1,13
1523182546502258,-4,-72,92,11,12,5,-15,-20
1523182546518566,6,4,10,20,-2,-1,3,11
1523182546518566,33,7,6,-9,-4,-2,3,2
1523182546520075,21,26,-55,-26,-6,-1,-3,22
1523182546520075,-2,4,-22,13,1,0,-2,-1
1523182546541128,-20,13,21,13,2,0,3,-26
1523182546541128,12,18,0,-20,-8,-7,-1,15
1523182546542630,35,-45,-15,-6,-7,-3,-6,-8
1523182546542630,-15,15,3,-15,-4,0,5,8
1523182546556177,89,-3,19,-7,-4,-1,13,35
1523182546556177,0,15,7,14,-2,-8,-16,3
1523182546557670,-42,-40,52,-3,4,8,4,-4
1523182546557670,-16,20,-41,-7,-3,-3,-4,2
1523182546578726,22,-13,-20,5,-2,1,6,-13
1523182546578726,-11,-4,28,10,3,0,-12,-17
1523182546580231,7,15,-8,7,1,1,1,12
1523182546580231,24,-14,1,-4,-7,-2,15,-3
1523182546601286,-30,11,-13,-28,-2,-5,-11,-18
1523182546601286,1,-16,4,17,3,3,13,15
1523182546602791,-19,6,-5,-34,-5,-3,-9,-14
1523182546602791,21,27,-23,-12,-2,0,5,-2
1523182546623346,-1,9,-17,7,3,-1,-2,6
1523182546623346,29,0,1,-17,-6,-1,-1,-28
1523182546625390,-6,0,-35,-38,-2,1,0,8
1523182546625390,3,1,18,9,-3,-3,-9,16
1523182546638888,11,-5,-15,-1,-2,0,0,7
1523182546638888,-16,-1,2,6,-2,-2,-6,-22
1523182546640391,-12,20,18,21,3,2,4,-6
1523182546640391,-52,-14,-16,-11,-3,-1,0,-26
1523182546660947,9,10,12,25,3,0,-8,4
1523182546660947,-37,-26,27,-31,-3,5,20,17
1523182546662449,78,22,16,24,4,-4,-7,22
1523182546662449,2,-5,10,-4,3,4,3,3
1523182546675485,15,-26,-4,16,-3,-1,26,-32
1523182546675485,-24,-20,-4,-17,-5,-4,-35,11
1523182546682502,-49,-4,32,22,1,0,1,-14
1523182546682502,-2,2,-3,4,1,0,-4,14
1523182546698780,-19,4,-7,-3,-1,-1,0,-7
1523182546698780,8,-2,7,11,7,4,11,-3
1523182546700601,35,1,-17,17,-4,-1,6,24
1523182546700601,6,0,-3,-10,-6,-4,8,-7
1523182546721109,-37,-3,-1,-1,0,-3,-27,-4
1523182546721109,17,-12,-14,3,5,2,16,1
1523182546722610,-14,4,-4,-2,-6,-8,-15,9
1523182546722610,8,2,-1,15,-3,-2,0,1
1523182546735649,18,11,9,-10,-1,0,3,-13
1523182546735649,15,-2,27,10,3,2,8,6
1523182546742161,-71,-6,-8,-5,-2,2,2,-3
1523182546742161,11,1,-23,26,1,-4,1,9
1523182546758705,-26,-4,-51,-58,-9,-3,-13,2
1523182546758705,25,45,-3,24,0,-1,0,9
1523182546760211,-39,-46,16,-15,-1,-2,7,9
1523182546760211,-23,5,-38,-11,0,2,-4,-26
1523182546781265,2,-2,8,18,-1,-1,-3,3
1523182546781265,38,6,-12,-5,0,-2,5,20
1523182546782770,30,12,6,15,4,-1,-5,-9
1523182546782770,-32,-18,-14,-23,-5,0,-1,-16
1523182546795303,-18,-7,-2,-2,-2,2,8,29
1523182546795303,7,2,-6,1,0,0,1,1
1523182546802562,-50,-7,0,12,1,-2,-11,-31
1523182546802562,62,15,10,3,0,-1,-6,11
1523182546818972,-24,-6,-48,1,2,0,7,-12
1523182546818972,-37,-23,18,15,-4,-7,-8,-32
1523182546820371,16,16,23,19,6,3,6,10
1523182546820371,-9,-10,-81,-79,-12,-4,-2,6
1523182546840923,20,4,40,26,-2,-5,-3,2
1523182546840923,-3,-4,-2,12,2,0,-3,-18
1523182546842928,18,-5,-12,-41,-2,0,6,18
1523182546842928,6,19,9,-7,-4,-5,-12,3
1523182546855464,11,-14,17,-9,-10,-5,-3,-6
1523182546855464,-1,0,11,-8,1,0,0,0
1523182546862017,21,0,-62,-19,-3,-3,-5,-32
1523182546862017,41,-16,29,20,2,1,3,28
1523182546878524,16,4,8,-1,0,0,0,11
1523182546878524,-8,19,-67,-1,-2,0,-1,3
1523182546880029,16,-11,14,-44,-5,-2,-1,4
1523182546880029,-28,23,-1,14,1,-1,-2,-8
1523182546901821,5,6,-33,7,5,3,2,0
1523182546901821,-6,0,13,14,2,0,-1,-16
1523182546903094,19,0,9,53,8,2,5,14
1523182546903094,-23,-6,-47,-27,-9,-4,-7,-11
1523182546915623,-14,2,72,19,-3,-2,4,7
1523182546915623,16,6,-31,-21,-9,-7,-7,-26
1523182546922145,-46,-17,-23,9,0,-4,-9,-43
1523182546922145,-1,11,43,13,6,1,1,-3
1523182546938684,0,16,-14,21,3,0,-4,-8
1523182546938684,4,-32,37,2,-8,-3,16,30
1523182546940188,70,24,7,-14,-7,0,-2,23
1523182546940188,25,-4,17,8,2,-1,0,4
1523182546961243,4,14,13,-2,5,1,-2,4
1523182546961243,-35,-16,9,-21,-11,-7,-7,-32
1523182546962748,37,-16,-18,24,1,1,29,-5
1523182546962748,-9,-8,20,12,-4,-6,-38,-31
1523182546975280,4,23,2,-42,1,0,3,-5
1523182546975280,37,-4,-10,46,7,3,4,35
1523182546982302,-8,-16,1,-10,-6,-3,-4,21
1523182546982302,-27,-10,38,-16,1,-3,0,-43
1523182546998342,-35,-24,-16,-22,3,1,-6,-20
1523182546998342,1,16,-31,-51,-10,-3,-7,9
1523182547000347,-27,1,28,14,1,0,11,4
1523182547000347,33,9,-10,-1,-1,1,-9,19
1523182547020906,-1,-6,0,19,1,0,2,24
1523182547020906,-7,-9,21,0,1,0,1,-1
1523182547022909,4,14,7,7,3,4,9,10
1523182547022909,2,10,-45,7,-4,-2,-2,35
1523182547034939,-29,-55,47,11,3,0,0,-11
1523182547034939,-15,-5,-13,26,2,-2,-12,-33
1523182547043965,12,28,-5,-53,-7,-1,-5,4
1523182547043965,42,-9,5,37,8,5,8,23
1523182547058505,0,6,-22,-65,-12,-3,-2,-1
1523182547058505,26,4,29,-10,0,-2,0,11
1523182547060006,-46,12,-16,38,4,1,-14,-15
1523182547060006,49,-4,10,-16,0,2,16,-11
1523182547081153,-7,-2,6,6,-6,-2,0,2
1523182547081153,22,10,5,11,4,1,3,-3
1523182547082658,27,11,-10,-8,-2,-1,1,52
1523182547082658,-18,9,1,-1,2,1,1,-9
1523182547103712,-18,-13,-23,-5,-3,-6,-7,-22
1523182547103712,-23,4,29,17,-3,-1,-2,-10
1523182547105219,38,-27,-27,-34,-8,-4,-1,-20
1523182547105219,-18,4,6,-4,-3,-5,9,26
1523182547118752,12,-13,-12,2,0,0,-13,40
1523182547118752,-16,10,-66,11,2,1,0,-35
1523182547120256,-28,1,48,-1,-4,-2,-5,-2
1523182547120256,-27,-13,-2,5,-4,-2,11,-11
1523182547140812,14,6,-20,15,-3,-4,-4,-11
1523182547140812,37,38,-48,-33,-3,-1,15,27
1523182547142817,-37,-19,30,10,-2,-2,-24,-26
1523182547142817,-16,9,-15,-5,0,-4,-4,-18
1523182547154848,-2,-2,17,14,3,4,16,4
1523182547154848,6,-7,12,-15,-1,1,-7,31
1523182547163873,21,8,26,20,5,3,9,24
1523182547163873,-7,-4,-5,7,-3,0,1,-6
1523182547178412,-57,11,-1,5,-2,2,-6,-19
1523182547178412,-6,-17,23,22,5,-2,-11,-31
1523182547180415,-70,12,-82,-48,-6,-5,-4,-25
1523182547180415,40,-7,24,9,3,7,-8,71
1523182547201206,33,16,33,18,3,0,15,17
1523182547201206,2,-19,-41,5,1,0,-2,4
1523182547202980,34,-13,19,12,-5,-6,-8,-11
1523182547202980,-23,8,-2,-8,2,-1,-4,-7
1523182547214508,50,-2,-2,-7,-5,-4,2,-3
1523182547214508,-10,-2,4,-12,1,4,0,29
1523182547223531,29,5,-9,14,1,1,14,-9
1523182547223531,-5,-9,1,-13,-3,-1,6,-22
1523182547238572,-2,7,-2,-29,-7,-2,-15,-10
1523182547238572,-24,-20,-13,14,-4,-6,-14,-14
1523182547240079,-1,-1,-16,-7,-1,-2,21,24
1523182547240079,9,17,-5,9,0,-6,-28,-63
1523182547261129,-27,-7,-18,16,2,-1,-7,-6
1523182547261129,-8,3,71,-39,-6,-2,4,17
1523182547262635,25,-10,9,9,4,1,2,3
1523182547262635,-29,-9,2,3,-4,-1,4,7
1523182547274667,7,-13,-47,-5,1,-2,2,-8
1523182547274667,-23,-23,11,1,5,2,2,-13
1523182547283691,-5,-6,18,9,-4,-6,-11,-4
1523182547283691,25,7,3,-23,-10,-6,-1,20
1523182547298967,-13,7,16,19,0,-2,-10,-24
1523182547298967,7,5,2,-20,-3,0,6,6
1523182547300235,-35,-6,0,-19,2,1,-12,1
1523182547300235,-4,-16,23,8,3,3,15,-8
1523182547321298,-10,-18,11,9,-3,-4,-9,13
1523182547321298,-19,8,12,7,2,-1,3,17
1523182547322797,10,2,-16,7,0,0,8,2
1523182547322797,-15,-7,-6,-2,0,0,-7,-9
1523182547334827,58,16,-13,-13,2,0,5,-7
1523182547334827,-22,-7,20,12,11,4,2,8
1523182547343850,29,13,-6,0,-4,2,-4,8
1523182547343850,-15,9,7,0,-8,-8,-2,-16
1523182547358391,-27,-1,-2,-3,-2,4,1,-9
1523182547358391,12,3,12,9,0,2,2,13
1523182547359893,-26,36,32,-3,10,3,3,8
1523182547359893,2,4,33,-7,2,2,-4,-30
1523182547381452,14,5,-18,0,-3,-3,-1,4
1523182547381452,-26,2,6,1,0,-4,-4,-10
1523182547382955,1,1,52,-8,-4,1,4,-4
1523182547382955,-13,-4,-61,-6,-2,-2,4,32
1523182547394986,-25,-1,-37,22,0,-2,-15,-3
1523182547394986,-3,-4,-1,-19,-6,1,0,-12
1523182547404014,-35,-1,17,24,1,-1,-8,-8
1523182547404014,-29,-3,-8,9,-1,-4,-1,-8
1523182547418284,10,-12,-20,-5,-3,1,11,1
1523182547418284,25,22,-18,4,-2,-4,-3,15
1523182547424564,73,-7,32,2,-2,2,1,18
1523182547424564,-33,0,1,-4,2,2,2,-5
1523182547441345,-22,2,-41,10,0,-3,-1,-18
1523182547441345,15,-6,8,-26,0,2,-3,-8
1523182547442613,19,-14,-34,0,-9,-10,-9,0
1523182547442613,4,-12,9,-10,-3,1,2,18
1523182547463671,10,11,45,3,-2,-2,-2,-4
1523182547463671,-64,-9,-13,-5,0,-2,-1,2
1523182547465175,-35,-5,-53,-6,-5,-1,-9,-30
1523182547465175,-20,6,-7,2,2,0,-2,-8
1523182547478300,-29,-22,26,7,2,-2,-5,-15
1523182547478300,7,-9,38,-11,-7,-4,2,-5
1523182547484725,-6,1,-27,-14,-1,-1,2,13
1523182547484725,45,-4,31,10,-1,1,-9,-20
1523182547501449,27,9,11,-9,1,2,3,-3
1523182547501449,29,-17,-9,26,2,-3,-2,-6
1523182547502780,5,8,19,-2,-1,-1,-4,4
1523182547502780,22,-5,-21,19,4,1,0,3
1523182547522833,-42,-11,-33,-43,-9,-3,3,-1
1523182547522833,-10,29,33,18,-3,-2,-11,-17
1523182547531351,-18,-3,-24,4,0,-1,6,-29
1523182547531351,9,5,-2,5,2,0,-16,22
1523182547538873,24,-3,18,10,6,5,10,4
1523182547538873,-20,-6,-54,-12,-1,0,10,10
1523182547540374,-11,-9,-31,6,0,0,-19,-3
1523182547540374,-36,2,26,-30,0,2,7,-7
1523182547560927,42,22,5,1,0,-1,4,9
1523182547560927,-5,-17,-35,-6,-2,-1,-3,-10
1523182547562432,11,-28,1,9,6,3,7,17
1523182547562432,-17,-19,52,7,3,1,4,20
1523182547583489,-10,-17,5,15,-5,-7,-5,-43
1523182547583489,44,2,15,-6,3,3,3,12
1523182547584991,-19,-5,-16,-6,-8,-4,-6,19
1523182547584991,-32,1,-4,0,-3,0,9,0
1523182547598263,-51,-11,-3,2,-2,-1,-13,5
1523182547598263,61,16,32,27,-1,-1,-2,16
1523182547605044,6,4,13,15,-1,0,10,-16
1523182547605044,-6,-26,-36,-27,-10,-5,-10,0
1523182547621089,35,2,3,-8,2,0,10,-7
1523182547621089,-67,2,-34,-4,-9,-8,-19,-12
1523182547622592,-10,12,25,7,2,1,0,-15
1523182547622592,24,10,-7,6,3,4,7,-31
1523182547643694,-23,-19,-10,-10,-3,-6,-7,-2
1523182547643694,20,-4,-12,-1,0,-1,0,22
1523182547645151,-16,12,11,-2,1,2,18,-43
1523182547645151,10,-11,-17,0,-1,-5,-6,88
1523182547657686,-1,-3,33,2,-7,-4,-6,34
1523182547657686,5,-1,-18,-7,2,2,2,-35
1523182547664702,18,-14,-13,-12,-2,-5,-11,17
1523182547664702,-6,13,-7,17,8,7,19,-44
1523182547681251,36,30,6,3,2,1,-22,31
1523182547681251,-29,-36,10,-14,-6,-4,-7,-39
1523182547682753,0,12,-4,0,2,1,-3,15
1523182547682753,-45,-3,-27,-5,-5,-4,-3,-22
1523182547703890,-36,-15,-11,9,1,1,21,-15
1523182547703890,28,24,-34,0,-1,1,-10,14
1523182547705383,5,5,43,-23,0,1,-5,9
1523182547705383,78,-17,-7,13,-4,-7,0,16
1523182547718154,32,30,-15,-31,-6,-5,-4,-59
1523182547718154,14,-2,-59,-15,4,1,6,15
1523182547724935,6,5,21,23,3,1,1,-30
1523182547724935,10,3,-3,-3,-4,-3,1,25
1523182547741213,-23,-13,-8,-4,-3,1,-7,57
1523182547741213,12,0,34,-6,-1,-2,2,-9
1523182547742481,-22,16,5,1,-1,-1,-9,-5
1523182547742481,-10,4,-45,-7,-3,-2,-1,-36
1523182547763540,-12,10,-5,2,3,0,-8,-14
1523182547763540,-12,-13,25,4,-2,0,10,14
1523182547765042,-67,-2,-65,26,2,0,-1,7
1523182547765042,4,33,-4,-41,-1,1,0,21
1523182547777101,1,-33,24,-17,-8,-3,0,-11
1523182547777101,-14,9,27,23,0,0,-2,-10
1523182547786101,28,0,26,-9,-1,-1,10,27
1523182547786101,0,30,30,16,0,1,-17,-23
1523182547800135,-20,-9,-58,12,4,-3,-5,-22
1523182547800135,53,-17,17,-1,-2,-1,36,9
1523182547808658,-1,-5,39,-5,-13,-12,-47,-21
1523182547808658,-2,-3,32,11,1,-1,5,-13
1523182547823697,10,0,14,4,4,6,17,33
1523182547823697,7,-8,-9,49,5,0,-8,19
1523182547825203,61,1,-26,-21,-3,-3,12,21
1523182547825203,-27,-3,30,-31,-13,-6,-13,-34
1523182547837739,1,3,27,11,0,0,-1,16
1523182547837739,-24,15,-7,-13,2,1,-4,8
1523182547844754,7,-40,4,16,2,-3,-2,-9
1523182547844754,-9,-30,-31,7,0,-3,-5,-8
1523182547860825,-25,-6,4,-1,-5,-1,7,-15
1523182547860825,-24,45,-18,4,0,-2,0,12
1523182547862833,-13,-25,50,-19,-5,0,-24,-17
1523182547862833,-47,-34,-10,7,-1,-2,1,-43
1523182547883387,20,19,11,8,-1,0,9,61
1523182547883387,-41,-9,-4,-14,-3,-3,-21,-72
1523182547885392,8,15,3,17,5,0,20,20
1523182547885392,-60,7,-16,27,5,0,-11,27
1523182547898160,-8,-3,27,-23,-3,-3,-4,-29
1523182547898160,9,-8,24,-1,0,1,17,96
1523182547904944,12,11,-26,-20,-4,-3,20,-30
1523182547904944,37,4,18,5,-3,-4,-11,6
1523182547920986,7,21,-17,17,7,5,26,-41
1523182547920986,12,-5,33,9,-3,-2,-24,9
1523182547922490,-6,-5,-13,19,-3,1,8,29
1523182547922490,52,0,-15,8,2,1,-11,-24
1523182547943782,9,6,11,12,-1,-2,-17,74
1523182547943782,3,-12,49,5,1,1,5,-23
1523182547945051,43,2,52,-8,2,6,6,-12
1523182547945051,-10,-10,-11,1,5,7,15,-48
1523182547966106,3,-28,-16,8,3,-2,-15,-27
1523182547966106,20,-1,-24,-25,-5,-3,2,15
1523182547967610,-28,-6,-92,-19,4,-2,-14,-21
1523182547967610,52,15,13,20,-3,1,9,7
1523182547981146,15,-6,9,-30,-8,-3,0,25
1523182547981146,-32,-12,-57,-28,-11,-3,-10,-75
1523182547982653,-1,5,-42,-12,-4,-2,34,37
1523182547982653,-24,11,21,15,4,-3,-23,32
1523182548003709,-31,2,-4,-22,-4,-3,-7,-8
1523182548003709,11,2,12,3,-2,-5,-46,10
1523182548005212,-37,-2,5,13,-5,-3,16,64
1523182548005212,-11,7,-19,-15,-2,-3,-19,-5
1523182548017477,60,10,-51,3,7,4,-1,5
1523182548017477,15,-11,-27,-11,-7,-4,21,10
1523182548026267,-2,-11,-6,-7,-1,0,7,-56
1523182548026267,-13,8,29,0,0,-3,-8,23
1523182548040806,-29,14,37,47,8,1,1,-10
1523182548040806,21,-10,-28,-84,-14,-5,1,-22
1523182548042810,33,8,12,26,4,0,-11,8
1523182548042810,25,-17,-26,-18,-8,-2,10,-16
1523182548063364,-5,7,-1,9,-6,-6,1,-39
1523182548063364,32,3,9,25,5,0,-19,-2
1523182548065371,-5,20,-2,-13,-8,-7,-14,12
1523182548065371,-2,-12,-35,-9,5,-1,-2,55
1523182548085928,-13,6,-16,-26,-11,-2,15,39
1523182548085928,-24,-26,-11,9,5,1,7,-37
1523182548087932,-17,-10,-2,4,2,-3,-14,-73
1523182548087932,-9,-8,13,3,-1,-4,-9,12
1523182548100966,-6,-12,-50,-29,-7,-2,8,-1
1523182548100966,17,-3,21,35,10,7,11,24
1523182548102477,-2,-5,-14,-48,-5,0,10,-29
1523182548102477,40,-4,-7,4,-6,1,2,36
1523182548123564,10,5,41,20,1,5,0,20
1523182548123564,-16,5,0,14,1,-1,-4,-30
1523182548125028,1,16,12,12,1,0,10,-11
1523182548125028,34,17,21,1,-2,3,10,50
1523182548137064,-23,-12,-7,30,1,-4,-24,-75
1523182548137064,-24,-7,1,9,5,0,-10,5
1523182548146253,2,12,33,-1,1,3,9,30
1523182548146253,27,-5,-43,-6,0,-2,1,-9
1523182548160789,44,12,7,0,4,1,7,7
1523182548160789,-8,-2,-15,5,-4,-4,11,10
1523182548162799,-1,-30,-5,-27,-6,-4,-32,-33
1523182548162799,-25,-6,36,21,2,-2,7,7
