timestamp,emg1,emg2,emg3,emg4,emg5,emg6,emg7,emg8
1523183775840710,-8,-24,-79,-20,2,1,-3,-5
1523183775840710,-6,1,64,1,-29,-16,-5,-3
1523183775842717,-10,3,17,-23,-65,-28,-8,-3
1523183775842717,18,5,9,2,21,2,1,0
1523183775863773,-3,-9,41,40,63,32,14,2
1523183775863773,3,4,17,16,59,15,3,3
1523183775864776,-7,-9,-19,12,-33,1,1,-2
1523183775864776,-5,8,-30,13,32,10,4,4
1523183775877843,-2,0,65,5,-13,2,-5,-3
1523183775877843,5,-8,-56,-15,-31,-22,-13,-5
1523183775884830,0,-4,-6,-28,-23,-19,-5,-4
1523183775884830,-10,-2,-8,-51,-44,-11,-6,-4
1523183775900872,6,10,14,38,43,13,9,6
1523183775900872,-30,-2,-3,4,23,14,6,10
1523183775902877,46,12,-12,4,0,-4,-14,-1
1523183775902877,-3,-22,-23,-8,-28,-10,-1,-1
1523183775923944,7,-16,-9,-15,-11,-5,3,-13
1523183775923944,-1,92,28,5,-2,5,10,6
1523183775924936,-14,-1,-37,-2,16,5,0,2
1523183775924936,-33,3,35,8,-4,-4,-8,-10
1523183775937972,30,-7,1,-7,-12,-4,-10,31
1523183775937972,-3,-2,-8,2,1,2,12,-9
1523183775944999,-41,-12,-12,1,19,8,2,-8
1523183775944999,18,26,9,12,-1,-1,-8,17
1523183775961037,-15,-1,12,-4,-16,-8,5,-9
1523183775961037,17,-39,-23,-16,-1,-9,-34,-4
1523183775962034,-60,0,17,8,17,19,50,4
1523183775962034,25,-7,-6,7,-10,-4,-11,-6
1523183775983091,-6,4,-10,-9,-10,2,-1,-5
1523183775983091,-2,-16,0,-5,2,-8,-3,2
1523183775985095,20,-16,7,7,6,-5,-21,4
1523183775985095,-77,27,-1,6,-8,10,20,-33
1523183775997131,18,13,-8,-11,-4,-10,-8,36
1523183775997131,19,-9,2,4,7,20,23,-17
1523183776013170,30,-17,-11,-6,-4,-10,-29,31
1523183776013170,13,11,-7,-5,-9,-9,4,-61
1523183776021191,-34,-3,7,1,-2,-10,-23,1
1523183776021191,-31,61,-7,-2,-3,11,23,4
1523183776022193,46,20,-5,1,5,-11,-27,-20
1523183776022193,3,-21,-3,-1,-2,-6,-2,29
1523183776043257,-36,-29,-2,-5,-7,0,6,-25
1523183776043257,-22,7,0,3,5,0,3,19
1523183776045255,-24,-46,-2,3,4,5,-12,-66
1523183776045255,25,0,-18,-1,-3,-8,-17,16
1523183776057290,18,6,3,-2,-2,4,36,22
1523183776057290,-18,-61,-13,-3,-1,6,-3,-37
1523183776066311,29,57,7,-2,-2,-13,-25,16
1523183776066311,10,-72,-10,2,1,8,40,-10
1523183776080349,-22,104,0,0,3,13,-13,20
1523183776080349,124,-25,-5,-6,-6,-22,-4,29
1523183776082353,-44,-51,-9,1,-1,1,8,-6
1523183776082353,17,18,1,-4,-1,-2,-11,6
1523183776103412,45,-9,-3,-5,-4,0,14,16
1523183776103412,36,18,-5,-1,-1,-3,-15,-7
1523183776105417,2,-23,-8,-2,-3,4,7,-3
1523183776105417,-8,-12,11,5,0,3,18,37
1523183776117447,-3,-32,-8,-2,-2,-6,-9,-74
1523183776117447,-38,-18,-3,-2,-2,0,-10,-1
1523183776126474,-4,3,7,1,2,-2,7,16
1523183776126474,-20,7,8,4,-1,6,-6,-3
1523183776140508,23,23,3,2,1,-8,4,-17
1523183776140508,-49,-19,1,-9,-2,-1,13,28
1523183776142523,-18,20,6,2,5,15,6,1
1523183776142523,13,12,-1,-2,-3,-1,-2,18
1523183776163570,-38,-21,-10,-6,-10,-14,-39,-57
1523183776163570,19,69,8,4,4,11,28,-20
1523183776164572,-3,-2,-6,-6,1,0,14,35
1523183776164572,15,59,0,-3,-5,-1,2,12
1523183776176603,25,2,-4,1,0,-1,7,20
1523183776176603,0,-22,-3,0,1,3,10,-2
1523183776185629,2,23,28,0,1,10,4,-7
1523183776185629,-13,-27,10,-4,-5,-6,-11,-10
1523183776200690,-7,43,8,4,3,0,3,15
1523183776200690,-20,-6,-27,0,0,-5,-20,-8
1523183776202674,16,-14,9,0,-3,-4,10,-10
1523183776202674,19,-17,19,-7,-3,-5,-18,8
1523183776223729,94,-26,-6,-3,-2,3,19,18
1523183776223729,-79,-29,-9,2,-1,0,-15,-25
1523183776224733,4,15,-15,3,0,-5,1,9
1523183776224733,-32,-11,17,-2,-1,-6,-17,-15
1523183776236763,10,-8,8,-5,-6,2,-5,1
1523183776236763,-54,-5,14,3,-1,-3,-7,-4
1523183776245789,30,-6,-14,-6,-2,-9,-7,16
1523183776245789,-28,-60,-8,4,2,7,-3,-8
1523183776260828,-87,-5,-19,-1,0,2,12,-2
1523183776260828,20,-6,16,0,-2,-1,-3,0
1523183776262833,-2,-6,-33,-4,-1,2,-3,-3
1523183776262833,22,-4,22,-3,-2,-9,18,20
1523183776281883,-50,3,-18,4,2,-1,-45,3
1523183776281883,-53,-92,10,-8,-2,-5,4,-6
1523183776290907,41,51,26,2,0,-1,17,10
1523183776290907,-47,18,-5,3,0,1,20,5
1523183776296923,13,-25,-18,-6,-5,-14,-29,-10
1523183776296923,18,-1,9,5,3,3,8,0
1523183776305973,-59,-14,-9,-2,-2,9,15,0
1523183776305973,-10,-2,2,1,-2,-6,6,-1
1523183776321224,-23,13,-30,1,1,-1,0,-1
1523183776321224,-17,12,22,-1,-2,2,-16,13
1523183776321990,24,-9,-18,-1,1,3,24,-3
1523183776321990,23,8,-12,2,0,3,-18,0
1523183776343046,-10,-8,-13,-14,-3,-1,5,0
1523183776343046,6,16,-11,-3,-7,-10,-8,-11
1523183776345052,-29,-10,0,-1,-1,-7,-24,-15
1523183776345052,44,79,-8,6,3,-3,-4,-5
1523183776357133,63,-28,5,-6,-1,3,5,12
1523183776357133,19,3,-21,-3,0,-3,-13,18
1523183776366107,-2,-5,1,2,1,-2,-14,-8
1523183776366107,-67,-14,22,-1,-2,-9,-1,-10
1523183776381147,-12,29,25,4,-4,-6,5,-3
1523183776381147,65,-23,-9,-4,-2,6,16,-4
1523183776382150,27,2,-11,1,0,6,-23,-6
1523183776382150,38,-4,-12,2,2,-1,12,-4
1523183776403441,-73,-3,10,5,0,-2,1,-12
1523183776403441,-20,-9,-18,-7,-3,-6,-5,-37
1523183776405211,23,1,22,4,-2,-8,-27,-4
1523183776405211,42,-12,-1,-12,-3,6,2,12
1523183776417245,-52,-26,5,3,0,6,16,0
1523183776417245,32,13,2,-1,0,0,11,54
1523183776426271,-50,-55,-4,-2,-2,-4,-14,-55
1523183776426271,74,60,-7,-1,-2,-1,-4,44
1523183776441311,11,-11,-10,0,2,-1,3,-16
1523183776441311,0,12,4,2,0,-1,-11,15
1523183776442315,10,7,7,-2,-1,2,13,-1
1523183776442315,-8,-41,-16,-4,-1,-4,-12,-6
1523183776463366,41,-28,3,-2,-1,4,-2,4
1523183776463366,23,40,2,4,1,-3,-3,-7
1523183776464369,19,9,12,5,0,0,16,8
1523183776464369,-13,-3,-20,-4,1,2,-17,-25
1523183776477405,10,28,18,0,-3,-13,-17,10
1523183776477405,3,-32,-8,-8,-3,1,6,-14
1523183776486438,-12,-37,-9,-15,-6,-4,-10,4
1523183776486438,-4,4,-9,1,3,2,3,-5
1523183776501507,-39,-22,-10,-2,0,2,-1,-12
1523183776501507,11,-2,5,2,-4,-11,-1,2
1523183776502470,-28,27,-3,1,2,3,10,11
1523183776502470,-17,-23,-1,-3,-5,-2,-9,-16
1523183776523527,38,3,0,-2,1,-1,-10,-2
1523183776523527,-43,12,-3,-2,-2,-2,-3,9
1523183776525535,0,15,1,-2,-2,6,12,11
1523183776525535,-20,-15,-3,-2,0,6,2,-14
1523183776536561,51,8,3,1,0,-4,12,25
1523183776536561,9,-7,-3,2,0,-2,-25,-16
1523183776545586,-80,-11,2,-3,-4,-5,6,36
1523183776545586,-14,40,-16,0,-1,-6,-37,-22
1523183776568646,14,0,63,0,-2,-3,0,-4
1523183776568646,31,-72,-5,0,2,2,5,-2
1523183776569648,21,82,0,5,4,0,-5,29
1523183776569648,-8,-13,-5,2,0,-7,-9,1
1523183776583687,-34,8,-9,-2,-2,7,16,-57
1523183776583687,26,3,1,3,-1,-2,-10,12
1523183776584690,34,-30,-3,2,1,-1,5,-12
1523183776584690,-45,-13,-3,0,-1,-2,-9,16
1523183776596720,-7,5,6,-7,-2,-8,36,6
1523183776596720,29,14,2,-1,-1,-4,-7,5
1523183776605844,-5,-3,-10,1,0,-3,-5,-26
1523183776605844,34,9,4,-2,-4,6,17,8
1523183776620840,-97,-4,-12,3,1,3,7,7
1523183776620840,53,22,0,-3,-3,1,-3,32
1523183776626803,-8,-11,4,0,0,-9,-8,-5
1523183776626803,22,-25,1,1,0,-6,-7,12
1523183776642844,-6,-3,-9,-1,-2,8,-1,-2
1523183776642844,-63,17,2,-1,0,-2,-7,-36
1523183776644848,15,-8,-2,-6,-2,0,22,-1
1523183776644848,27,-40,-1,-4,-3,-3,24,-20
1523183776656920,9,-7,-11,3,4,-1,-13,32
1523183776656920,-30,11,2,-2,-3,-7,-22,6
1523183776665905,-28,16,1,-4,-2,4,9,6
1523183776665905,56,-27,-1,-2,-2,-6,-27,-30
1523183776679942,-79,-10,-10,-8,-5,-9,11,3
1523183776679942,59,13,2,4,3,7,10,-7
1523183776687002,20,-26,-1,0,-2,-3,-20,0
1523183776687002,-31,1,-6,1,-1,1,8,-10
1523183776703239,30,-5,-2,3,3,1,-23,7
1523183776703239,-46,15,-3,-7,-5,0,8,-25
1523183776705007,7,19,1,3,1,-3,-4,8
1523183776705007,-14,10,0,-2,0,-7,-2,-4
1523183776726070,-37,18,-2,1,-2,1,-7,-11
1523183776726070,24,-13,-4,-4,-3,-3,0,-5
1523183776727067,23,-14,1,-1,1,6,25,3
1523183776727067,-70,22,0,0,-2,-6,3,53
1523183776741107,54,-11,-4,2,-2,-2,-11,-56
1523183776741107,18,5,0,-4,1,9,15,23
1523183776742122,44,-8,-7,-5,-9,-12,-22,-27
1523183776742122,15,4,7,1,3,6,4,0
1523183776771421,1,-13,-6,-2,-5,-7,6,12
1523183776771421,29,-6,1,-1,1,1,12,22
1523183776772186,-25,21,-6,-3,1,-4,-12,7
1523183776772186,-8,-17,3,1,0,10,29,-21
1523183776786224,101,8,0,-3,0,-1,-8,34
1523183776786224,-38,31,6,5,1,0,-1,-12
1523183776787227,-12,-13,0,1,2,0,2,0
1523183776787227,-4,4,-1,-5,-6,-11,-31,-40
1523183776801489,5,-34,-5,4,3,14,41,-2
1523183776801489,-73,-15,-5,-1,0,0,-6,-16
1523183776802266,24,-5,1,0,1,4,3,2
1523183776802266,-2,13,-3,1,-3,1,17,31
1523183776823324,13,-4,-1,-3,0,-1,-18,-52
1523183776823324,-19,-7,-2,-1,-1,4,8,-9
1523183776825335,45,-10,-3,-1,-5,-4,-9,5
1523183776825335,-19,-39,-1,-1,-2,5,-15,-8
1523183776846384,21,58,5,1,-3,-7,-1,5
1523183776846384,22,3,0,-3,-1,2,10,23
1523183776847388,-32,3,0,-1,-1,-3,-21,-28
1523183776847388,13,32,1,1,-1,-3,1,-8
1523183776861424,1,1,5,-5,-2,5,-6,22
1523183776861424,-75,-5,-1,0,0,-8,-11,-15
1523183776867442,35,4,-6,-2,-4,-8,-10,13
1523183776867442,49,-17,1,3,3,-1,11,11
1523183776883482,57,53,-3,-5,-3,0,-10,35
1523183776883482,9,2,-1,2,-2,-2,-5,-17
1523183776884485,-73,-22,2,1,0,2,-6,-7
1523183776884485,25,-1,1,-4,1,-2,-3,-16
1523183776905541,-107,-3,4,2,1,-3,-15,-10
1523183776905541,89,-14,-3,-2,-2,10,2,-40
1523183776907547,25,2,-7,-2,0,-6,-10,12
1523183776907547,-21,17,0,0,-2,-1,6,3
1523183776920582,18,-18,-2,0,0,-4,2,-5
1523183776920582,-113,-6,-1,-1,0,0,10,2
1523183776926599,43,4,7,1,1,5,-17,-18
1523183776926599,-6,-16,-9,-2,1,-10,4,12
1523183776943646,39,20,7,-4,-2,0,-6,36
1523183776943646,44,-2,-1,-6,-5,-11,-7,47
1523183776944646,-8,-7,-1,3,3,4,13,-53
1523183776944646,-35,-12,6,-4,-2,2,-13,1
1523183776965701,-28,-17,-3,8,2,-6,-4,-17
1523183776965701,59,-1,-8,-2,-3,-16,-20,-9
1523183776967706,-8,73,1,-8,-5,4,38,68
1523183776967706,9,-6,-17,-2,0,-7,-1,-9
1523183776979739,-17,-20,12,-2,-1,2,-17,47
1523183776979739,58,0,-33,-1,-2,-2,8,-23
1523183776986757,-42,-32,-17,0,0,-1,0,35
1523183776986757,-29,8,3,1,-1,3,-4,-11
1523183777002801,19,-11,-34,-3,-4,-5,-2,19
1523183777002801,-63,-16,21,0,0,0,5,1
1523183777004805,4,-6,6,13,1,-2,-3,-24
1523183777004805,11,-59,47,-10,-3,-10,-25,-4
1523183777025863,-2,3,-40,-2,-2,-7,0,-25
1523183777025863,12,3,-19,5,2,3,9,-38
1523183777027868,7,-11,9,3,3,2,11,-14
1523183777027868,5,19,19,-6,-9,-4,-9,65
1523183777039900,38,-24,9,-1,-1,-2,-3,-20
1523183777039900,-31,1,-20,-4,-1,-3,-2,6
1523183777046917,26,17,-27,8,5,-3,12,64
1523183777046917,56,10,33,-1,-4,2,2,-3
1523183777062960,-95,-10,1,-1,0,5,8,-85
1523183777062960,38,-5,6,2,-2,5,-29,31
1523183777064965,-35,-11,-13,-3,-1,-3,24,8
1523183777064965,16,18,-36,2,3,5,33,43
1523183777086026,52,4,-21,2,-2,-6,-15,-4
1523183777086026,80,-51,47,-6,-1,-4,-24,-35
1523183777087023,-90,23,-1,0,-2,-1,-37,-21
1523183777087023,45,7,-33,17,0,10,41,-25
1523183777100061,-45,-14,1,-6,2,1,-12,13
1523183777100061,-12,-8,-27,7,3,-2,6,-53
1523183777107083,49,0,54,-13,-3,1,-7,-6
1523183777107083,-32,11,-8,3,4,2,-3,-19
1523183777124123,29,-1,-12,3,2,3,0,28
1523183777124123,-32,11,5,-6,-5,0,-2,20
1523183777125139,43,3,16,5,-1,0,16,-8
1523183777125139,-62,3,-18,-7,-3,0,-12,-29
1523183777146181,63,-5,29,-2,-4,-4,5,4
1523183777146181,-38,4,-8,-3,-1,0,-6,18
1523183777147184,-2,-13,-19,-3,-3,1,18,1
1523183777147184,-53,-13,-11,-5,-1,6,-5,17
1523183777160220,25,8,67,-1,0,-5,-12,45
1523183777160220,3,23,-6,4,-3,0,3,6
1523183777167237,-26,-17,12,-11,-6,-17,-24,-18
1523183777167237,43,11,-11,4,3,-6,-13,9
1523183777183320,41,2,8,2,1,3,9,15
1523183777183320,-25,7,-8,-7,-1,7,13,21
1523183777185286,-3,-8,29,4,1,7,2,28
1523183777185286,-20,5,5,-2,1,-1,11,-10
1523183777206438,57,-6,-25,-4,-7,-8,-10,-33
1523183777206438,-13,11,-15,6,2,-6,-16,-11
1523183777207348,89,-6,33,-5,-3,-5,-7,21
1523183777207348,-19,-18,-31,-11,-1,-2,-7,-36
1523183777219418,6,-1,-38,4,2,7,14,1
1523183777219418,-45,-12,3,-5,-3,-5,-6,14
1523183777228401,18,3,-22,2,2,7,15,15
1523183777228401,35,2,12,-4,0,-2,-17,11
1523183777243440,-21,0,17,-5,-5,-9,-5,-7
1523183777243440,-46,-7,-16,1,-1,6,23,-13
1523183777244442,-8,-3,16,-4,-2,-8,-28,-75
1523183777244442,-24,6,-4,2,-4,-7,10,2
1523183777265498,1,-1,-4,-4,-3,13,0,8
1523183777265498,-7,5,3,-5,-3,-9,13,3
1523183777267504,0,0,-24,13,3,1,35,-6
1523183777267504,17,7,26,-9,-5,-3,3,15
1523183777279536,-31,-5,1,6,1,-4,-12,48
1523183777279536,-21,-4,12,-1,0,-1,-5,26
1523183777288559,6,7,-18,-4,-1,3,-7,14
1523183777288559,-13,-1,-5,0,-1,-2,-3,-11
1523183777303837,-23,-3,0,-2,4,3,5,-9
1523183777303837,83,10,15,23,-1,1,-3,10
1523183777304602,-47,-79,-28,-37,-5,-9,-6,-23
1523183777304602,-20,0,4,9,0,-1,-17,-22
1523183777325667,-29,10,1,-3,1,-1,9,40
1523183777325667,28,-5,12,-1,-2,-7,-28,-28
1523183777327664,-10,-11,-11,4,-4,3,1,-13
1523183777327664,39,-6,-3,3,3,-3,-18,-10
1523183777339734,-33,-4,-7,-14,-3,0,15,8
1523183777339734,52,3,1,3,0,-2,-23,2
1523183777348720,-2,-61,2,2,-5,-7,-9,11
1523183777348720,32,14,-14,-9,0,0,13,22
1523183777363759,-1,21,-7,2,-4,-1,-8,1
1523183777363759,-53,-29,-16,-19,-2,8,16,-50
1523183777364762,3,14,30,30,5,6,-1,65
1523183777364762,-17,-2,11,-11,-4,-2,2,-68
1523183777385819,-10,-11,-2,-2,1,-4,-12,-20
1523183777385819,17,-8,-12,-10,-2,-7,33,26
1523183777387823,-94,30,-14,-6,4,9,-29,-27
1523183777387823,-10,-7,-1,14,-1,-5,-3,36
1523183777399855,26,-20,-4,6,-1,1,12,-44
1523183777399855,-32,46,33,-16,-8,-8,-8,3
1523183777408886,-3,22,-1,5,3,0,7,-15
1523183777408886,-36,0,6,8,-2,9,23,21
1523183777422916,-39,-24,-21,-25,-4,-2,-36,-38
1523183777422916,14,0,5,9,1,-2,-7,32
1523183777424922,29,-2,-6,-3,-2,1,4,-1
1523183777424922,-30,-5,2,-6,-2,0,3,52
1523183777445978,24,-1,-2,6,2,1,5,22
1523183777445978,-5,24,0,4,1,2,-1,-64
1523183777446981,41,17,-8,-6,-2,2,13,13
1523183777446981,10,3,-9,-4,-1,-4,-10,-12
1523183777459023,-42,13,28,1,-1,-4,10,-6
1523183777459023,61,75,-2,7,3,-12,-12,61
1523183777468037,49,4,-2,-4,-4,0,5,-5
1523183777468037,-35,-12,-3,-12,0,1,-8,-7
1523183777483116,-25,11,11,4,-4,-7,7,-16
1523183777483116,-25,-27,-18,1,-1,0,14,-5
1523183777485081,-3,24,34,-2,-2,-1,9,11
1523183777485081,36,9,-17,2,1,-1,-9,-7
1523183777506143,39,-2,-7,-2,-1,2,2,15
1523183777506143,52,-24,7,0,-3,6,7,26
1523183777507151,-42,-32,-38,-4,-2,-2,4,-17
1523183777507151,37,-4,12,3,-3,-6,-21,-47
1523183777519176,36,-25,8,-2,-2,5,7,19
1523183777519176,-22,23,0,7,8,6,11,-7
1523183777528198,44,1,-8,-4,-3,1,-26,-17
1523183777528198,-39,3,17,1,1,0,25,-4
1523183777543242,-45,2,-10,4,-3,-8,-5,9
1523183777543242,-4,-29,-13,6,-6,-1,2,-10
1523183777545246,-39,8,-10,-8,-4,2,26,46
1523183777545246,-35,-4,-1,1,1,9,-12,-61
1523183777565302,29,11,2,1,-2,-11,-31,-30
1523183777565302,-26,-21,-3,1,-1,2,31,33
1523183777567303,4,8,8,5,4,-4,4,35
1523183777567303,-32,-16,-19,-10,-7,-3,-7,-9
1523183777579333,-3,73,3,11,3,-1,7,10
1523183777579333,-4,-21,0,-13,0,2,0,7
1523183777588356,-6,40,4,0,1,-2,-19,-69
1523183777588356,-66,-2,-4,-3,-1,0,2,2
1523183777603396,10,-18,6,-2,-1,-1,-14,1
1523183777603396,-8,68,22,-3,-2,-5,-22,49
1523183777604400,-5,-7,3,1,-1,2,24,-10
1523183777604400,13,-8,1,3,3,1,5,9
1523183777625502,-34,-4,-5,-8,-4,-1,0,-100
1523183777625502,5,-25,-1,-3,-2,-6,-14,3
1523183777627461,-17,-23,-11,-2,-5,-3,-6,-17
1523183777627461,17,23,13,1,1,-8,-2,22
1523183777639493,27,-25,-6,0,1,8,37,66
1523183777639493,-37,-17,3,-4,2,-1,-9,-70
1523183777648516,16,4,-4,2,0,1,-14,3
1523183777648516,2,-13,6,-2,-2,2,14,64
1523183777663556,68,-1,3,2,1,3,-2,-18
1523183777663556,10,2,-1,-2,-3,-2,-9,-51
1523183777664560,50,6,1,0,0,-1,1,21
1523183777664560,41,-2,-6,1,-2,-2,-22,34
1523183777685615,-18,46,-22,-3,-2,1,12,-5
1523183777685615,19,-25,4,-3,-2,-4,-10,-2
1523183777687620,13,-8,-8,2,1,-3,-13,26
1523183777687620,37,32,-12,-3,-2,1,9,-7
1523183777708723,-5,-21,2,-2,-1,1,1,24
1523183777708723,3,-10,-13,-1,-1,0,-2,23
1523183777709681,2,6,3,-4,-4,-9,-10,34
1523183777709681,-28,-83,-13,2,1,1,-11,27
1523183777723718,-9,23,8,3,0,-2,-14,-57
1523183777723718,-39,21,8,-4,-5,2,29,63
1523183777724738,51,-12,-6,-4,-3,-4,-2,19
1523183777724738,-5,-9,7,3,1,-1,-4,-7
1523183777745774,-22,-12,3,-2,0,3,0,-15
1523183777745774,12,-75,-2,0,-3,-16,-19,-12
1523183777747821,-36,38,0,0,-1,6,5,-48
1523183777747821,16,-1,-1,-7,-3,-3,3,4
1523183777767833,-19,-22,3,2,0,-1,7,5
1523183777767833,-24,-13,-5,0,-2,2,3,0
1523183777769879,15,66,1,-1,-2,-1,-14,-2
1523183777769879,-49,4,14,0,0,4,18,0
1523183777782873,-2,-9,-4,1,-1,-3,-5,20
1523183777782873,4,52,3,-1,3,7,-7,-6
1523183777789896,-35,-26,5,3,0,-6,-7,-47
1523183777789896,37,47,0,-1,-1,1,0,7
1523183777805974,-8,-14,-4,-2,-1,-3,-1,-26
1523183777805974,7,-12,4,7,0,3,-3,-31
1523183777807945,21,-26,-11,-10,-4,-2,3,-5
1523183777807945,-18,-2,-7,-2,-1,2,10,16
1523183777827994,-28,-7,14,0,2,-4,3,4
1523183777827994,38,-3,-4,-1,-3,-3,-15,-4
1523183777829999,-10,-16,-1,-3,-2,0,-3,-24
1523183777829999,-63,-14,0,-2,-2,-10,-23,-31
1523183777843033,16,-1,-4,-1,-2,-9,-20,42
1523183777843033,28,23,-3,0,1,11,34,1
1523183777850288,-85,-24,-7,-2,-2,-5,10,3
1523183777850288,49,8,-9,-1,-4,1,-7,0
1523183777865127,-15,8,10,0,-1,-2,-6,-3
1523183777865127,16,-9,-4,-1,2,0,12,30
1523183777866093,-15,0,-1,2,-1,0,-8,-18
1523183777866093,17,-76,-4,-7,-5,-5,2,-17
1523183777887151,43,0,-4,3,1,5,14,61
1523183777887151,-15,-3,-8,-5,-6,-5,-7,-67
1523183777888155,8,-16,-5,-5,-2,2,0,22
1523183777888155,-14,13,4,3,4,3,4,-8
1523183777902427,18,-4,-8,1,-3,-5,-18,20
1523183777902427,-25,-21,-1,-7,-5,0,-2,2
1523183777910211,20,-2,0,-3,-1,1,6,9
1523183777910211,28,-7,-2,-3,-3,-5,5,-24
1523183777925321,-84,5,7,5,2,2,-1,-65
1523183777925321,-3,-6,-5,-2,-1,-2,2,46
1523183777926295,48,1,-11,-1,-4,-3,11,-71
1523183777926295,18,-13,-1,-2,-2,-6,-5,10
1523183777956338,71,44,-2,-1,3,12,16,29
1523183777956338,-13,-75,6,3,-1,-5,-11,17
1523183777956338,10,6,12,-3,-2,-3,-11,-65
1523183777956338,-37,-1,-1,2,-1,-1,2,13
1523183777962350,5,-21,-9,1,-2,-3,-3,-89
1523183777962350,-8,3,-4,-7,1,2,-3,-3
1523183777970609,-25,-1,4,3,3,0,-3,27
1523183777970609,34,28,0,2,-2,6,11,-20
1523183777985411,-53,-33,-3,-8,-5,-6,-2,20
1523183777985411,93,31,-1,2,2,-1,-5,7
1523183777985411,-65,-19,-6,-2,-1,-6,-3,5
1523183777985411,39,16,6,4,-1,0,-1,7
1523183778007524,2,4,-6,-4,-1,1,2,25
1523183778007524,-33,4,-1,1,3,5,1,31
1523183778008476,45,8,-3,2,2,3,-7,27
1523183778008476,-57,-6,7,-4,1,0,-7,-9
1523183778021742,-8,-1,-8,0,-2,-5,-1,7
1523183778021742,-11,66,5,2,1,-6,-16,50
1523183778030532,-44,-44,-1,-1,-1,1,-2,-20
1523183778030532,10,70,-12,-2,-3,2,6,4
1523183778045734,13,2,8,7,3,-2,-4,8
1523183778045734,-80,-9,-3,-11,-6,-4,-3,-5
1523183778045734,-18,-5,10,3,1,15,40,24
1523183778045734,68,-9,-3,2,-1,-3,-7,-4
1523183778067650,-15,-24,-3,-7,-3,-2,-5,-2
1523183778067650,30,8,0,3,-1,8,11,7
1523183778068633,5,-11,-1,-1,0,-3,13,-38
1523183778068633,45,-4,1,-4,-2,-6,-9,-20
1523183778081668,6,9,5,3,3,7,11,9
1523183778081668,-5,-16,-3,-7,-2,-6,-15,-34
1523183778090699,55,20,-1,1,0,-1,-12,33
1523183778090699,-16,-4,0,4,2,1,-1,4
1523183778104965,14,-10,-2,-3,-3,-1,4,5
1523183778104965,-21,87,4,-1,-4,-2,-1,-26
1523183778105772,18,-5,-2,-1,-1,-3,-15,7
1523183778105772,-34,0,2,2,1,4,15,30
1523183778127790,-7,71,-5,-6,-5,-7,-8,-40
1523183778127790,-7,-60,-9,-4,-1,-4,3,-8
1523183778128793,1,12,1,3,1,2,5,35
1523183778128793,-3,-3,0,-8,-5,3,1,-40
1523183778141832,-52,4,-2,1,0,-1,-7,-16
1523183778141832,37,-22,-8,-4,-1,-3,5,-39
1523183778150891,-41,6,2,0,0,-5,-16,25
1523183778150891,64,-9,4,4,4,1,1,10
1523183778164890,-50,-30,-3,-5,-3,3,8,23
1523183778164890,-61,-74,-1,-2,-3,-7,-33,-38
1523183778165891,18,23,2,2,-1,-4,-7,9
1523183778165891,25,-3,-2,0,-2,0,8,-2
1523183778188185,-5,-18,-1,-4,-2,0,-4,8
1523183778188185,18,33,-7,2,-2,-2,3,56
1523183778188185,0,8,6,-2,3,1,-7,24
1523183778188185,-29,74,1,0,-2,-2,-8,-18
1523183778202222,-40,-6,6,2,-3,-3,-2,-24
1523183778202222,-3,-8,-11,1,1,0,4,-24
1523183778210009,-50,-14,-2,-4,-4,-3,-7,-17
1523183778210009,44,-2,-1,-3,-1,-1,-3,23
1523183778233070,92,-22,-3,1,1,-2,-11,24
1523183778233070,2,19,5,5,2,1,5,11
1523183778234072,18,-9,-7,-2,-2,-6,0,-27
1523183778234072,5,-99,-5,-9,-4,1,7,71
1523183778248112,31,26,8,1,2,3,8,4
1523183778248112,-42,-11,3,1,2,4,-2,-22
1523183778248112,4,5,-4,-1,-3,-1,-4,1
1523183778248112,12,-12,-1,-2,-2,-2,-16,-16
1523183778262148,-93,-8,-8,-3,-4,-3,1,74
1523183778262148,14,19,1,-3,-5,-1,12,-33
1523183778270405,53,-11,1,0,2,12,18,41
1523183778270405,-63,29,3,6,3,-5,-10,-17
1523183778285210,62,-15,-11,-11,-6,0,10,25
1523183778285210,0,4,-3,-4,-2,-2,-4,25
1523183778286211,0,-13,-2,-4,-5,-5,-2,3
1523183778286211,-77,-9,-4,-1,-1,-1,-10,-27
1523183778307272,9,-1,2,9,4,2,12,9
1523183778307272,47,-56,-4,1,2,0,-9,2
1523183778308272,12,61,13,2,0,-5,-7,-22
1523183778308272,-39,0,-8,-3,-7,0,4,5
1523183778322313,-32,-14,-1,4,5,11,20,15
1523183778322313,40,11,-2,0,-1,-1,1,11
1523183778330327,-41,-4,-11,1,-2,-7,-11,-1
1523183778330327,13,-12,-3,-5,0,5,5,-17
1523183778345605,-63,3,1,0,-3,-7,-12,-13
1523183778345605,17,-37,-6,0,-1,0,7,16
1523183778346377,-13,42,-3,-4,-5,-5,-9,34
1523183778346377,-11,5,3,-1,1,-4,-5,-10
1523183778367427,26,-20,-6,-3,-2,-4,-21,-53
1523183778367427,1,4,0,0,0,8,18,8
1523183778368429,-20,-27,-1,1,-3,-11,-14,-26
1523183778368429,20,1,-7,5,0,-3,-7,-27
1523183778381464,-26,5,-3,0,2,2,9,-2
1523183778381464,-63,13,-2,-5,-6,-7,-17,-66
1523183778390497,15,-13,2,-2,2,5,2,5
1523183778390497,-4,2,-3,-1,-2,-4,7,57
1523183778405553,41,-37,3,-5,0,-3,-17,-73
1523183778405553,-47,42,3,-6,-2,2,10,0
1523183778405553,-26,-18,-5,-1,-1,-2,3,9
1523183778405553,-40,-7,0,-2,-1,-3,-9,-8
1523183778427587,-17,14,1,-2,-2,-2,-15,4
1523183778427587,68,-4,9,3,3,5,8,12
1523183778428589,8,-4,2,3,3,5,0,-24
1523183778428589,-10,-18,1,-2,0,-3,2,-12
1523183778441625,110,22,-4,-2,-5,-10,-24,27
1523183778441625,-34,9,-1,1,1,0,13,5
1523183778450650,6,-18,-4,4,-2,-3,-4,-34
1523183778450650,23,-16,-5,-4,0,7,10,-4
1523183778464687,15,-13,-5,-1,-1,-1,5,89
1523183778464687,26,0,1,3,1,-1,-25,-51
1523183778465688,-28,-6,-1,-2,-1,2,21,24
1523183778465688,-57,-62,-1,-3,-4,-6,-7,-23
1523183778487747,7,8,-8,-5,0,3,10,-4
1523183778487747,-25,2,-3,-2,-1,-4,-3,12
1523183778488749,-33,6,0,-2,0,4,2,-25
1523183778488749,68,-55,-21,-3,-1,-10,-19,-15
1523183778510807,-22,-5,2,0,-2,3,5,-28
1523183778510807,40,-20,0,1,-1,-5,-14,11
1523183778511812,25,-18,-6,-9,-7,-6,-10,15
1523183778511812,-13,12,4,0,0,0,-3,-43
1523183778524851,-18,2,2,0,-2,-2,6,-10
1523183778524851,4,9,0,-3,-2,-1,1,3
1523183778525847,21,-10,-2,0,-2,-1,-1,-46
1523183778525847,21,41,2,-1,2,6,6,-21
1523183778547947,-15,-1,1,0,0,-2,3,-2
1523183778547947,-16,13,0,-4,0,-4,0,20
1523183778547947,14,-12,-3,-4,-1,-1,-1,-27
1523183778547947,3,23,4,6,0,-2,-3,27
1523183778561944,-9,-4,-1,5,2,3,0,-22
1523183778561944,-72,-58,-1,-3,0,3,-11,31
1523183778570202,4,49,0,1,-1,-1,-1,8
1523183778570202,-51,15,-1,-3,-6,-4,5,12
1523183778585005,6,-7,1,2,1,-1,-6,-35
1523183778585005,14,-2,-6,-5,-7,-1,8,79
1523183778586008,-31,-7,5,1,2,-3,-7,4
1523183778586008,44,34,7,4,3,10,13,29
1523183778608079,13,9,-1,-6,-5,-6,-15,-40
1523183778608079,16,10,-2,-1,0,-3,-2,7
1523183778608079,2,-39,2,1,2,-1,7,9
1523183778608079,-9,33,3,1,-1,0,-3,33
1523183778631128,24,-2,0,-2,0,1,7,97
1523183778631128,0,2,-4,0,1,-4,-7,10
1523183778631128,53,2,0,1,-3,-3,-15,30
1523183778631128,42,-8,4,0,1,-1,8,-12
1523183778645400,-23,61,-3,-2,-3,-1,5,57
1523183778645400,-34,5,2,0,-1,3,9,-110
1523183778646167,-16,2,-2,0,0,-2,-8,58
1523183778646167,0,16,0,-4,0,-4,-2,-37
1523183778667230,38,-60,-9,-3,-5,-6,-2,-13
1523183778667230,-13,11,3,-2,4,8,12,6
1523183778668226,-18,-57,-4,-3,-1,5,8,-3
1523183778668226,-73,-15,-2,-3,-2,-3,-18,-19
1523183778691291,13,0,2,-3,0,-2,1,-31
1523183778691291,-30,9,-4,-4,-3,-8,-16,-69
1523183778691291,82,-8,-2,-1,-2,-2,10,23
1523183778691291,11,-7,-2,-1,-2,1,15,-44
1523183778705325,13,-3,-3,-1,-1,3,-8,-24
1523183778705325,-9,4,-4,-1,-3,-3,-4,8
1523183778706334,-1,13,2,-2,-2,0,-5,9
1523183778706334,-46,24,-2,4,-1,-7,-8,14
1523183778727384,-22,13,-3,-1,-1,-4,-5,-31
1523183778727384,30,-56,-6,-1,-3,3,11,41
1523183778728386,-27,3,2,2,-1,-3,0,-20
1523183778728386,15,-11,-5,-2,0,0,-8,11
1523183778750682,15,-24,2,7,6,6,12,-5
1523183778750682,22,24,-1,-3,-7,-11,-20,-24
1523183778751500,32,11,-3,-1,1,-1,-3,-7
1523183778751500,13,-9,0,-3,-3,5,23,92
1523183778765485,18,-21,1,0,-1,-4,2,-48
1523183778765485,29,-10,1,2,2,0,-5,12
1523183778765485,-12,44,3,3,0,-2,-6,2
1523183778765485,39,5,-3,0,-8,-5,0,-22
1523183778787544,-35,-2,7,6,3,2,-5,41
1523183778787544,22,2,6,0,2,2,9,15
1523183778788547,-59,-11,-6,-3,-2,-4,-7,12
1523183778788547,9,-5,-8,1,1,-1,-2,28
1523183778810604,-14,7,-2,-6,-1,2,4,-7
1523183778810604,28,13,2,1,1,-1,-3,-8
1523183778811607,-22,-4,-4,0,2,4,14,61
1523183778811607,69,0,3,-12,-10,-10,-13,-28
1523183778824642,-77,1,-7,-4,-7,-8,-3,5
1523183778824642,49,8,2,4,5,2,-7,22
1523183778825646,-9,2,-2,-3,-1,-3,8,-60
1523183778825646,-38,-38,-1,1,3,1,-5,20
1523183778847703,24,18,1,0,-3,0,2,-8
1523183778847703,-26,-4,-1,-2,-3,0,-1,-17
1523183778848706,-31,1,-6,-3,-4,-4,-13,10
1523183778848706,10,6,-10,-6,0,0,-5,32
1523183778871001,-2,-12,0,2,2,0,-6,26
1523183778871001,-36,7,2,0,-3,-5,7,-1
1523183778871767,69,-67,-4,-2,-1,-1,-2,-5
1523183778871767,-10,11,5,4,4,1,-1,17
1523183778884803,-6,-10,-7,-6,-1,-1,1,-5
1523183778884803,-3,6,-2,-3,0,4,3,5
1523183778885805,15,-14,-5,0,0,0,1,-9
1523183778885805,51,5,1,-1,-2,-3,-2,-24
1523183778907868,0,1,1,-2,-3,-3,0,-9
1523183778907868,-76,-32,-4,1,-1,-4,-11,-8
1523183778908865,-39,19,1,1,-2,-1,-20,-36
1523183778908865,42,3,-2,-6,-4,-7,0,12
1523183778929921,17,19,-2,-1,0,5,14,6
1523183778929921,62,9,0,5,2,3,-2,5
1523183778930925,-15,-22,-5,-6,-6,-8,5,10
1523183778930925,-7,62,3,0,0,2,5,-8
1523183778945199,-49,-14,-1,1,0,-2,-11,-21
1523183778945199,25,17,0,-2,-3,-2,0,3
1523183778945964,26,2,4,5,4,2,0,-2
1523183778945964,-63,-22,-6,-4,-1,-3,-9,-26
1523183778968023,43,0,2,-3,-2,1,8,-2
1523183778968023,-17,60,6,0,2,1,0,26
1523183778969066,5,59,2,-8,-5,3,4,-6
1523183778969066,-23,-17,2,4,3,0,0,8
1523183778990097,-9,18,-2,0,2,1,-6,22
1523183778990097,-30,-42,-8,1,-2,-4,4,-35
1523183778991106,-30,-5,-6,-8,-2,0,-3,-2
1523183778991106,10,-12,1,2,0,-2,-11,2
1523183779005122,-7,-22,-2,-2,-2,-1,16,8
1523183779005122,-3,-80,-2,-1,-2,-2,-2,-12
1523183779006125,14,-1,0,-4,-2,-8,10,12
1523183779006125,6,-9,1,3,0,1,3,-14
1523183779027182,-55,-9,-6,-7,-3,-7,-16,-15
1523183779027182,21,-2,-5,-3,-1,5,-2,-57
1523183779028183,-18,9,0,4,4,1,-2,-16
1523183779028183,-3,2,1,-4,-4,-2,3,10
1523183779051432,27,-13,3,2,-2,-3,-7,3
1523183779051432,-5,-29,-1,-6,-6,-3,10,39
1523183779051432,4,-25,-3,3,1,2,-7,-39
1523183779051432,30,16,6,-4,2,-1,-8,-55
1523183779065282,-9,-9,-4,-4,-4,-3,-7,-1
1523183779065282,55,32,-4,-3,-2,-2,13,23
1523183779066285,-29,2,1,1,1,-3,-25,8
1523183779066285,-6,-13,2,-1,1,-3,-1,-62
1523183779087343,12,0,4,2,-2,-6,-14,-31
1523183779087343,-19,19,2,2,5,5,18,46
1523183779088343,18,36,6,4,-1,-6,-12,4
1523183779088343,-56,11,1,2,0,5,18,38
1523183779110401,69,15,1,4,2,4,3,5
1523183779110401,-46,19,-4,-3,0,-1,-15,-37
1523183779111404,22,-3,0,2,-2,-1,3,40
1523183779111404,-27,-13,-4,0,-2,-4,-12,31
1523183779124439,-34,-1,1,0,-1,-1,-1,-76
1523183779124439,62,-4,2,0,3,1,-3,46
1523183779132461,-82,-2,-3,-4,-6,-3,10,-39
1523183779132461,13,-15,-7,-10,-6,-4,-7,16
1523183779147737,-59,-8,-3,-3,0,-2,-6,16
1523183779147737,-14,28,-1,2,0,-4,7,8
1523183779148502,-17,33,4,0,2,5,6,-59
1523183779148502,42,1,2,2,1,0,1,1
1523183779170797,-23,-2,-1,-2,-1,-4,-8,-8
1523183779170797,-24,1,-4,-3,-7,-6,4,31
1523183779171563,31,-15,-5,-4,-2,1,2,31
1523183779171563,-33,-11,-1,-1,0,-4,-1,9
1523183779185601,12,5,0,3,4,8,15,36
1523183779185601,-59,-25,-4,-3,-5,-11,-30,-41
1523183779185601,47,-1,6,3,2,2,9,29
1523183779185601,0,17,-5,5,-1,5,10,29
1523183779207663,-23,-2,-1,-3,0,-3,7,13
1523183779207663,32,9,-1,1,2,3,6,41
1523183779208667,-30,-70,1,-1,1,2,-1,-19
1523183779208667,-6,20,2,0,-6,-10,-21,-12
1523183779230724,35,-8,-4,1,0,-2,-1,0
1523183779230724,-13,8,4,0,1,7,20,8
1523183779231724,-30,-8,-1,-2,-3,-6,-17,8
1523183779231724,-4,-4,2,0,2,4,15,-3
1523183779244995,16,-4,-4,-1,-2,-1,-1,1
1523183779244995,20,-1,3,1,-1,-2,-13,-11
1523183779253015,-44,-40,-7,-2,0,0,-4,22
1523183779253015,21,-13,6,4,-1,-7,-15,-67
1523183779268057,-16,4,0,-2,-3,-5,5,-11
1523183779268057,-21,13,1,1,-1,1,1,-18
1523183779268823,33,8,-3,4,3,0,-7,11
1523183779268823,-11,4,-4,-6,-3,1,-1,1
1523183779290890,-1,-10,-3,-2,-2,-5,-4,8
1523183779290890,22,-22,0,-4,-1,-2,-13,-16
1523183779291884,17,-44,-1,-2,-4,-11,-23,-26
1523183779291884,1,48,5,1,4,12,27,25
1523183779304918,-12,10,1,-3,-4,-2,-6,-24
1523183779304918,0,-6,1,0,-2,-1,8,25
1523183779312942,-39,4,-7,-9,-3,0,-2,10
1523183779312942,19,-17,-4,-1,-2,-6,-10,29
1523183779327980,57,-3,3,2,0,1,-10,69
1523183779327980,-49,14,4,5,2,-2,2,-82
1523183779327980,54,27,-7,0,-2,3,18,1
1523183779327980,-17,-27,-3,-1,1,1,-8,-34
1523183779351276,24,11,0,-1,-2,0,7,21
1523183779351276,2,-6,-2,-1,0,-2,-14,24
1523183779352044,-2,20,-3,-4,-2,-8,-9,-29
1523183779352044,-78,-19,-4,-5,-2,-4,18,32
1523183779364074,36,4,1,-1,-2,0,-5,13
1523183779364074,-33,1,-3,-7,-5,-1,-12,-19
1523183779373103,-24,47,3,1,1,3,18,15
1523183779373103,14,-2,-2,6,2,3,-12,-13
1523183779387372,33,62,7,-1,0,2,7,11
1523183779387372,14,-9,-7,-3,-4,-3,-3,23
1523183779388138,10,-2,-3,-2,-4,-2,3,10
1523183779388138,12,-36,-8,-4,-3,-5,-6,-52
1523183779411201,14,59,1,-1,1,-1,9,4
1523183779411201,-4,-20,-1,0,0,-6,-10,-14
1523183779411201,18,17,4,4,4,12,11,17
1523183779411201,9,-27,-1,0,-2,0,5,4
1523183779424286,-19,-39,-5,-1,-1,-3,-8,3
1523183779424286,-26,2,2,2,1,-2,-1,-14
1523183779432261,-10,4,0,-5,-5,-6,-10,-41
1523183779432261,14,26,1,-4,-6,-5,-17,6
1523183779447297,-18,25,-3,0,4,2,4,33
1523183779447297,-57,-3,-5,0,-3,-1,2,19
1523183779448299,57,-22,2,6,-1,-1,-1,25
1523183779448299,-18,30,5,-7,-1,2,6,-36
1523183779470595,5,-23,-3,0,-1,-3,-11,-9
1523183779470595,14,9,0,1,-1,-1,6,15
1523183779471359,-28,-83,-11,-9,-5,-2,-9,28
1523183779471359,-3,3,-2,3,2,1,7,38
1523183779484632,-26,-33,0,-2,0,-1,1,-53
1523183779484632,61,16,-5,-4,-1,-4,-11,7
1523183779492416,20,-4,-5,-3,-2,1,23,8
1523183779492416,-2,4,4,0,-1,3,-8,-7
1523183779507458,-39,-19,-4,-2,-5,-2,-13,-23
1523183779507458,60,-9,0,3,2,0,-4,18
1523183779508460,-17,33,7,0,2,-5,1,1
1523183779508460,-4,1,1,3,2,2,5,8
1523183779530518,26,-11,-3,-5,1,0,4,45
1523183779530518,41,-69,-4,-5,-4,-3,-4,-8
1523183779531522,10,25,-1,2,1,0,-1,12
1523183779531522,-10,0,-2,6,2,-3,-8,-83
1523183779544555,24,-20,-3,-2,-5,-2,-2,-18
1523183779544555,-112,-3,-3,-1,0,7,12,-29
1523183779552813,-9,19,-1,-5,-1,-2,-7,18
1523183779552813,47,-25,-7,-2,-6,-5,-11,-14
1523183779567852,-39,-21,-3,-10,-3,2,-3,-19
1523183779567852,38,10,0,-1,-2,-2,-3,-6
1523183779568620,-2,-50,-4,0,2,1,5,0
1523183779568620,-20,25,1,1,1,1,8,47
1523183779589684,1,0,4,4,-3,-6,-4,-51
1523183779589684,-34,25,6,4,-2,-6,-11,51
1523183779590682,-2,4,-1,-4,-1,-4,0,11
1523183779590682,36,-17,-4,-1,1,0,-4,22
1523183779613740,-42,11,2,4,2,0,-3,57
1523183779613740,-16,8,7,2,3,3,14,-70
1523183779613740,11,13,-1,-4,-6,-4,-4,0
1523183779613740,36,5,-3,-3,-1,-2,-5,29
1523183779627778,-22,7,-2,1,-1,1,7,22
1523183779627778,36,4,-9,-6,-1,2,5,65
1523183779628780,23,15,0,0,0,-1,-7,-40
1523183779628780,-40,68,-3,-6,-1,2,7,10
1523183779651075,28,-14,-8,-9,-4,-1,-6,5
1523183779651075,11,2,0,-2,-3,-4,6,32
1523183779651841,3,-23,6,-2,2,-5,-23,-5
1523183779651841,-23,-12,4,-2,1,7,40,43
1523183779672900,-20,-3,3,8,-2,-3,5,-84
1523183779672900,-18,14,-2,-5,-2,-2,-12,-11
1523183779673900,10,23,2,-1,0,3,-1,-8
1523183779673900,-8,-19,-2,2,0,-2,-5,-11
1523183779687943,-105,-14,-4,-5,-1,0,-12,-63
1523183779687943,47,2,-5,1,-2,1,10,11
1523183779688939,-11,-58,-4,0,0,-1,-2,-21
1523183779688939,13,-17,3,-1,1,-1,-4,-15
1523183779710998,32,6,0,1,-1,-1,12,50
1523183779710998,-22,5,0,2,-3,-6,-9,16
1523183779712001,-10,-8,-2,3,1,1,-1,-11
1523183779712001,18,6,-4,-6,-3,-3,3,3
1523183779733293,-36,-8,-3,0,-2,-4,-11,-9
1523183779733293,-15,-18,-2,0,0,1,-2,-30
1523183779734058,-12,36,3,5,2,0,16,22
1523183779734058,23,-8,-2,1,-3,-3,-17,78
1523183779748097,56,12,-1,-6,-2,2,8,26
1523183779748097,17,4,2,2,0,4,7,11
1523183779748097,-43,12,-4,0,-5,-2,-9,-7
1523183779748097,-21,-13,-3,2,-1,0,-4,-5
1523183779771158,-33,-44,-7,-9,-2,-1,-4,7
1523183779771158,9,30,-4,-1,-1,-5,-12,11
1523183779772164,5,27,6,1,0,1,7,-2
1523183779772164,-46,-16,-1,-3,-6,-6,-4,12
1523183779793216,-15,-10,4,7,1,1,-2,-12
1523183779793216,-5,-13,-3,-7,-3,-5,5,-31
1523183779794219,-9,10,0,4,2,1,-4,4
1523183779794219,-3,2,4,-5,0,2,-10,-27
1523183779807257,13,13,-3,-1,-1,-1,5,-50
1523183779807257,-8,1,3,-5,-3,-3,-17,12
1523183779808259,11,4,-3,0,-2,-2,4,58
1523183779808259,50,-1,-1,-4,-3,1,-5,-75
1523183779831430,-10,17,5,5,5,3,16,59
1523183779831430,-6,5,-2,-2,-2,1,-2,-86
1523183779831430,53,-9,-6,-5,0,-2,6,11
1523183779831430,-25,-3,-3,-3,-2,-1,-5,47
1523183779853613,18,8,-3,-4,-5,-5,-11,10
1523183779853613,18,76,1,10,4,1,5,1
1523183779854381,13,-1,-9,-6,-3,4,10,10
1523183779854381,12,1,1,3,4,-4,-13,14
1523183779867414,14,-15,1,-1,-1,-1,-3,23
1523183779867414,-27,-1,5,-1,-2,-2,-6,8
1523183779868416,-3,0,-4,-2,-1,3,8,5
1523183779868416,-21,-6,-5,0,-1,-3,3,-20
1523183779898497,18,-8,-2,2,1,-4,-6,27
1523183779898497,9,-35,0,1,2,7,5,-8
1523183779899500,16,7,0,-7,-6,-4,0,2
1523183779899500,-25,-9,3,-2,-1,0,-8,-12
1523183779913535,86,19,2,4,1,-3,-2,0
1523183779913535,-48,-20,-7,-6,-5,2,-5,24
1523183779914540,5,5,-5,-3,-3,-3,6,-28
1523183779914540,2,6,3,5,2,0,4,32
1523183779927573,-39,0,-3,-8,-2,-2,-11,-24
1523183779927573,32,6,1,1,2,0,2,47
1523183779928576,-30,-6,2,0,-2,-2,-16,-9
1523183779928576,-18,-4,-4,0,-4,-3,8,3
1523183779950635,6,-4,0,0,-1,3,10,-54
1523183779950635,-39,-9,-5,-3,-4,-1,7,23
1523183779951637,-29,-2,2,0,-1,-4,-12,-44
1523183779951637,-23,-3,0,-2,-2,-4,-8,-13
1523183779973701,-79,-54,-2,-1,0,2,-2,20
1523183779973701,-34,-23,-1,-7,-4,-3,-2,-15
1523183779973701,5,0,2,5,0,-1,0,-14
1523183779973701,22,88,-6,2,-2,-2,-1,-3
1523183779987737,22,-10,-4,-1,-2,2,4,22
1523183779987737,15,-20,-8,-4,-6,-10,-15,-61
1523183779988743,-25,2,4,-1,-2,-2,1,6
1523183779988743,13,-40,-11,-4,-1,2,12,-13
1523183780010795,19,15,0,0,-1,-6,-13,14
1523183780010795,13,6,2,1,1,4,11,-3
1523183780011797,14,2,-3,2,0,-2,-3,64
1523183780011797,-47,-10,4,3,1,3,-4,-79
1523183780032852,24,14,-4,-7,-5,-10,-19,-17
1523183780032852,8,3,3,0,-1,2,15,10
1523183780033856,-8,-16,-1,0,2,4,-6,-25
1523183780033856,-56,1,2,2,-2,-2,3,14
1523183780047894,-5,10,6,4,1,-1,0,-1
1523183780047894,27,-10,-2,1,4,-2,-12,-7
1523183780048897,-3,-1,-9,-7,-6,0,0,60
1523183780048897,63,-5,1,3,0,-7,-1,31
1523183780070955,-5,6,0,3,2,5,10,-9
1523183780070955,-33,-10,1,-1,-1,-3,-6,36
1523183780071960,-13,2,0,0,-3,-3,-13,-70
1523183780071960,30,-18,-3,-4,-4,-4,-4,18
1523183780093013,-35,1,0,-1,2,4,13,35
1523183780093013,67,-4,-3,-2,-1,-1,-5,2
1523183780094016,-17,4,3,4,2,-1,-3,3
1523183780094016,-47,-21,-1,-4,-1,3,11,-13
1523183780108053,67,36,2,-4,-5,-4,-4,-20
1523183780108053,-51,19,2,-1,2,5,9,-29
1523183780108053,22,-1,0,-1,-3,-6,-1,-41
1523183780108053,50,-47,-4,1,1,-4,-25,4
1523183780131116,-15,-5,1,-1,-1,0,-1,27
1523183780131116,1,-12,-7,-3,-3,-6,-8,-42
1523183780131116,54,11,-6,-8,-4,1,9,31
1523183780131116,-13,-15,2,1,2,0,5,77
1523183780153408,1,4,-3,-6,-2,2,1,-67
1523183780153408,21,3,-3,2,-3,-3,-1,17
1523183780154178,63,-8,5,6,6,2,-6,5
1523183780154178,2,3,1,-8,-3,-4,-5,15
1523183780176236,-13,-8,-5,-3,-3,-3,-4,-46
1523183780176236,36,18,1,7,0,-2,4,17
1523183780176236,-5,-4,3,-9,-1,1,-5,35
1523183780176236,-32,10,-5,1,1,1,8,-29
1523183780191278,-3,0,-1,1,2,0,6,0
1523183780191278,-6,-22,0,1,-3,-4,-26,-37
1523183780191278,-56,13,-4,3,4,9,10,-44
1523183780191278,65,-7,-8,-5,-6,1,6,97
1523183780213373,-67,-2,2,0,-2,-1,1,-33
1523183780213373,-8,-15,-6,-6,-2,-2,-2,27
1523183780214339,-1,-42,-3,-2,0,-4,-11,-10
1523183780214339,-1,28,1,-2,-1,1,5,-17
1523183780227370,22,1,2,2,-1,-1,-5,21
1523183780227370,9,5,0,3,2,0,1,18
1523183780235626,-77,-3,2,-4,-2,-3,4,-35
1523183780235626,-89,-6,-5,-6,-3,-2,-13,-84
1523183780250472,59,-6,0,0,-3,-6,-6,54
1523183780250472,-3,-17,1,-1,1,0,2,7
1523183780251433,13,4,3,6,1,4,12,-46
1523183780251433,8,3,-7,-2,-2,-3,-13,9
1523183780273499,-2,0,-5,-3,-3,-6,-11,6
1523183780273499,-25,31,-10,-5,-4,-5,6,47
1523183780274497,-5,10,-3,0,-1,-2,-10,-13
1523183780274497,55,22,2,-1,0,2,-1,5
1523183780286764,17,13,-3,-1,-1,-2,11,4
1523183780286764,20,-10,-1,-3,-2,-1,0,29
1523183780295552,7,1,-2,-1,-4,-4,-7,4
1523183780295552,-18,-8,3,1,1,2,4,-37
1523183780310591,-57,-20,-2,-3,-6,-5,-11,18
1523183780310591,7,-5,-4,2,1,-1,-3,-81
1523183780311594,4,6,0,0,1,-3,-6,54
1523183780311594,7,-14,1,6,4,6,12,-19
1523183780333905,19,83,-1,-7,-3,-4,-5,-45
1523183780333905,-34,-7,2,1,0,-3,-3,34
1523183780333905,-10,7,-1,-13,-3,2,9,19
1523183780333905,23,-2,4,4,2,-2,6,1
1523183780346687,16,-33,-2,5,3,-1,-11,-3
1523183780346687,16,1,1,-1,-2,2,5,9
1523183780355718,19,-3,0,0,-2,-4,3,5
1523183780355718,-17,-5,-2,3,1,-1,-1,-11
1523183780370751,-7,-12,0,2,-1,4,8,35
1523183780370751,56,-9,-4,-6,-4,-4,0,41
1523183780371756,-46,-5,3,5,0,-5,-7,-23
1523183780371756,44,5,9,3,-1,0,5,36
1523183780392812,27,-7,0,2,1,0,-4,71
1523183780392812,-32,-3,1,1,-2,1,3,8
1523183780393812,-2,-14,-9,1,0,2,7,22
1523183780393812,5,10,-4,-1,-3,-3,-18,-14
1523183780415918,7,-6,-6,-9,-3,-1,9,20
1523183780415918,-30,-5,5,3,1,-4,-9,-18
1523183780416875,27,5,-1,-3,-7,0,9,3
1523183780416875,31,-1,3,-5,0,1,-9,-10
1523183780430911,-3,-11,-1,6,3,5,11,-17
1523183780430911,-42,2,-1,-5,0,-1,-4,-34
1523183780431915,28,3,-1,1,1,-3,-25,-73
1523183780431915,28,-3,0,-1,-3,-3,10,44
1523183780453972,-8,-3,2,-10,-6,-4,-6,-8
1523183780453972,86,-30,0,3,2,3,5,-10
1523183780454980,-12,61,2,4,3,-3,-19,31
1523183780454980,0,4,-5,-6,-2,9,16,2
1523183780467007,-15,-6,1,6,4,3,0,-31
1523183780467007,7,-26,-4,-3,-2,-3,-1,-8
1523183780475029,-6,-30,-4,0,0,4,8,-21
1523183780475029,-66,-11,-4,-2,-2,-5,-12,-21
1523183780490069,17,17,1,1,-2,-1,5,-23
1523183780490069,-1,4,-3,-1,-4,-2,-8,-9
1523183780491071,-18,-12,-1,-3,-3,2,11,-60
1523183780491071,-34,9,4,0,1,0,-7,-67
1523183780513170,31,-32,-3,-3,-5,-4,8,59
1523183780513170,10,18,4,3,0,-2,-3,-5
1523183780514134,-18,-2,0,0,0,0,0,14
1523183780514134,12,-8,-5,-5,-4,-4,-5,7
1523183780536409,-7,-5,1,-2,-2,-1,-10,-16
1523183780536409,-19,14,0,3,0,3,6,9
1523183780536409,28,11,-3,-4,-3,-2,3,30
1523183780536409,-16,-11,-5,-4,-5,-10,-9,48
1523183780550230,-25,1,-3,0,3,1,-7,-45
1523183780550230,-35,7,2,-4,-3,0,1,7
1523183780551233,23,4,-3,-1,-2,-2,-1,58
1523183780551233,11,1,-3,-3,-2,0,-1,70
1523183780573293,-53,-12,2,-8,-3,-11,-23,9
1523183780573293,-49,4,-7,-1,0,3,12,-63
1523183780574293,58,-15,-2,-7,-4,-2,2,34
1523183780574293,18,-56,0,4,0,0,7,20
1523183780595348,8,33,1,5,5,6,-1,36
1523183780595348,-31,9,3,-2,0,4,3,-7
1523183780596351,-2,-12,2,3,-1,-3,-1,2
1523183780596351,-25,12,0,-4,-1,3,-4,-14
1523183780610388,21,-11,0,5,3,4,17,10
1523183780610388,4,-3,-2,-1,-1,-3,1,35
1523183780611393,-23,-5,-7,-1,-3,-2,3,9
1523183780611393,-26,17,1,3,1,2,-5,-81
1523183780640475,76,5,0,3,0,-6,-2,5
1523183780640475,-33,-3,-8,-12,-9,-11,-27,-36
1523183780641470,-31,-2,2,-1,-1,2,6,-1
1523183780641470,54,8,-3,-4,-2,-6,-5,68
1523183780655513,-11,-18,-8,-3,-5,-4,3,-25
1523183780655513,3,-10,2,2,1,1,-3,32
1523183780656512,13,11,-1,0,0,2,7,14
1523183780656512,-18,8,3,4,2,-1,-5,-21
1523183780670553,0,-1,2,1,0,2,6,-38
1523183780670553,-34,0,-10,-8,-2,0,0,50
1523183780670553,17,-6,-1,0,-3,-4,-3,2
1523183780670553,14,8,-4,0,-2,-4,-4,4
1523183780693610,-43,0,-4,-3,-2,-5,-9,71
1523183780693610,-64,-4,0,-1,-2,-2,6,-46
1523183780693610,-18,1,3,1,0,-1,-8,-41
1523183780693610,5,-8,-2,-3,-4,-5,1,-24
1523183780715668,24,0,1,3,-1,7,15,21
1523183780715668,37,15,5,2,5,6,8,9
1523183780716670,-34,-6,-2,-3,-3,-6,-12,-14
1523183780716670,-27,-1,2,0,-2,-4,-8,34
1523183780729942,-16,-21,0,0,0,4,-14,-61
1523183780729942,28,58,4,0,-1,0,20,21
1523183780738736,-37,31,2,0,1,2,8,-18
1523183780738736,22,3,-2,3,0,2,5,24
1523183780753771,10,-10,-10,-9,-3,1,0,8
1523183780753771,-1,-21,2,1,1,-3,-9,4
1523183780753771,-15,-15,-2,1,-3,-6,-12,-6
1523183780753771,-19,15,-2,-5,-2,-5,-4,-29
1523183780775828,2,15,-1,-2,0,2,-12,-27
1523183780775828,51,-14,-2,6,-1,6,17,3
1523183780777835,0,-10,1,-5,-1,1,1,4
1523183780777835,-9,-3,5,1,0,2,2,-3
1523183780790084,-11,-2,-2,1,-2,-7,-4,34
1523183780790084,-3,-5,-5,-1,-3,1,6,93
1523183780798891,25,-12,-4,-2,-3,-2,-6,-4
1523183780798891,-9,-2,-2,1,1,3,7,-1
1523183780812967,34,4,0,-6,2,-3,-3,-17
1523183780812967,29,-8,-5,-6,-5,-5,-21,-22
1523183780814932,0,-4,0,1,2,0,6,15
1523183780814932,25,4,-2,-2,-1,0,5,51
1523183780836224,13,-4,-2,1,-3,2,12,48
1523183780836224,29,13,1,-3,1,0,-6,-93
1523183780837038,-15,8,0,-5,-3,-10,-7,35
1523183780837038,38,-5,0,2,1,2,12,-6
1523183780849023,-23,5,-2,1,0,0,-2,-41
1523183780849023,9,-9,-5,-3,3,1,5,42
1523183780858048,36,59,-3,-1,0,5,0,42
1523183780858048,11,7,0,3,-2,-5,-4,-35
1523183780873091,-26,-2,-3,-5,-3,-5,-8,9
1523183780873091,15,-5,1,0,-4,-5,8,3
1523183780875092,13,-17,3,4,0,1,-7,-19
1523183780875092,-41,-14,-3,-1,-1,-1,-1,32
1523183780896189,-20,1,0,1,-1,4,18,-22
1523183780896189,-40,-16,1,-1,1,-3,-13,15
1523183780897150,-20,-21,-5,-2,-4,1,5,-50
1523183780897150,38,1,-1,-1,-4,-2,-7,-19
1523183780909183,26,-15,1,0,3,-1,-2,-40
1523183780909183,-54,0,1,2,-1,-5,-4,-9
1523183780918283,-15,-13,2,6,5,3,4,-53
1523183780918283,-21,9,-1,-3,-1,0,-11,-1
1523183780933484,26,8,-4,-5,-6,-7,-9,84
1523183780933484,-48,-4,2,2,1,0,-9,-83
1523183780935252,9,-18,-4,-6,-3,-7,-4,34
1523183780935252,60,4,0,2,2,5,8,20
1523183780956311,-10,4,2,-3,-1,-5,-9,-3
1523183780956311,40,-5,7,-2,0,-2,-4,31
1523183780957312,-21,-11,-5,3,-5,-4,2,-59
1523183780957312,-24,-2,1,-1,-2,-3,-5,-60
1523183780969577,-20,0,-7,8,2,1,3,27
1523183780969577,-22,10,-1,-4,-1,2,2,8
1523183780978365,4,-11,-3,-7,-1,0,-11,-69
1523183780978365,-38,-2,0,-3,-1,-2,8,24
1523183780993406,13,7,2,0,-2,2,7,-8
1523183780993406,-18,-6,-6,-2,-1,-5,-5,-11
1523183780995466,-14,28,4,3,0,8,8,-7
1523183780995466,52,7,2,0,-2,-1,-9,29
1523183781015466,-50,-17,-2,-3,-4,-1,10,-21
1523183781015466,47,29,4,3,1,1,-4,-45
1523183781017470,18,-6,-6,-5,-3,-4,11,103
1523183781017470,-8,-13,-5,0,-3,-4,-11,-21
1523183781029561,44,2,4,-2,-1,2,9,-64
1523183781029561,-33,-19,-1,-4,-2,-2,0,27
1523183781038531,-20,-9,-3,5,4,2,-15,-66
1523183781038531,-26,-2,-2,-2,-1,2,11,-1
1523183781053609,45,0,-1,0,-1,-7,-15,33
1523183781053609,-76,-14,-5,2,-2,0,0,1
1523183781054569,8,-6,4,0,-1,0,11,71
1523183781054569,-9,1,-2,-4,0,1,3,-22
1523183781075625,-16,1,-4,-3,-3,-3,-16,-12
1523183781075625,49,1,-2,-1,-1,-1,4,-5
1523183781077631,38,6,2,1,-1,0,3,60
1523183781077631,-7,-18,-1,-3,0,0,-4,3
1523183781089663,-35,-3,0,0,1,3,3,7
1523183781089663,34,-3,-1,1,-1,-2,10,-15
1523183781098685,-18,7,-2,-3,-1,-3,6,97
1523183781098685,-12,-5,-11,-5,-7,-9,-15,-39
1523183781113726,19,3,2,-1,-2,-4,-16,1
1523183781113726,100,5,-4,0,0,3,8,57
1523183781114729,-75,-13,-5,-2,-4,-7,-14,32
1523183781114729,3,-2,2,-5,0,-1,-3,-14
1523183781136020,-8,3,-3,0,1,6,2,-21
1523183781136020,26,-8,-2,-2,-5,-8,-4,24
1523183781137791,18,-7,-2,0,0,-1,-4,-53
1523183781137791,-65,4,4,1,1,2,-8,-44
1523183781149865,7,-10,-5,-4,-3,-2,-6,-6
1523183781149865,4,2,-2,-1,0,-2,-1,31
1523183781158847,-39,46,-2,-3,0,-1,-1,-31
1523183781158847,26,3,-6,-3,0,4,2,13
1523183781172887,-24,0,0,-3,-1,4,6,-6
1523183781172887,-27,7,-2,1,-3,-3,-11,-66
1523183781174888,24,-17,3,-4,-4,-2,0,-9
1523183781174888,38,-5,1,3,1,3,8,6
1523183781195946,-42,-11,-4,1,-3,-7,5,-4
1523183781195946,63,6,2,3,1,1,-3,16
1523183781196947,15,-10,0,-3,1,4,0,-41
1523183781196947,28,-14,-2,2,4,3,9,34
1523183781209982,-60,-11,-9,-10,-5,-5,3,-10
1523183781209982,-23,3,-3,-1,-1,-2,-17,-10
1523183781218239,25,-1,1,1,1,-1,-1,-6
1523183781218239,-32,9,-1,0,-3,-4,-2,-5
1523183781233280,25,8,1,-1,0,3,8,70
1523183781233280,-3,-13,-2,-2,1,4,20,-6
1523183781235049,-3,-6,-4,-5,-2,0,-1,19
1523183781235049,-91,-11,0,0,-4,-7,-5,19
1523183781256105,24,8,0,1,0,-3,2,-20
1523183781256105,-48,-9,-4,-4,-6,-3,-8,-27
1523183781257109,6,-9,-2,-2,0,1,9,31
1523183781257109,14,8,-1,2,0,2,8,-12
1523183781269376,46,2,5,1,1,-3,-9,22
1523183781269376,-49,0,1,1,0,1,1,19
1523183781284416,5,4,-3,-1,-1,-2,-15,-32
1523183781284416,-1,-7,-6,-5,-4,-3,-3,12
1523183781293204,-22,-14,-5,0,-2,-4,-6,32
1523183781293204,23,1,-1,-2,2,-1,-3,-13
1523183781295209,-7,-1,-2,2,2,-1,-3,17
1523183781295209,25,9,3,2,-1,-5,-8,-45
1523183781315262,61,-52,-6,-5,-1,0,0,-79
1523183781315262,-5,16,-8,-3,-4,-4,-16,-12
1523183781317308,14,-7,-1,-1,-6,-5,3,14
1523183781317308,38,-1,2,4,2,-1,-4,9
1523183781329300,-45,14,8,2,6,12,29,6
1523183781329300,65,0,1,-2,0,-2,-5,28
1523183781338340,-12,5,1,-3,-1,-2,-8,-24
1523183781338340,8,-19,-1,-1,0,-1,-8,17
1523183781353411,-32,10,-1,3,-1,6,20,18
1523183781353411,-4,0,1,2,4,5,8,19
1523183781354368,-20,4,-1,2,0,-2,-5,0
1523183781354368,31,7,0,-1,-1,3,7,41
1523183781375421,-65,5,-5,1,-1,-8,-17,9
1523183781375421,-2,-3,0,0,0,2,9,6
1523183781377427,37,-7,1,2,-1,-3,1,43
1523183781377427,-33,5,-1,-5,-3,3,2,10
1523183781389461,16,0,0,3,-2,-5,-9,-44
1523183781389461,31,-15,-4,-8,-4,-2,-7,-17
1523183781398484,-39,-6,-1,0,-2,1,-1,-7
1523183781398484,-7,-10,-2,-8,-4,-3,-4,-10
1523183781413523,-3,6,1,0,0,-1,4,18
1523183781413523,-76,-9,-8,-2,-1,1,9,27
1523183781414526,32,-5,-2,-3,-2,-2,-9,-32
1523183781414526,17,3,-1,-3,-2,-1,-3,-6
1523183781435818,22,-3,-6,-3,-4,-4,-14,-6
1523183781435818,43,1,3,0,1,-1,-5,19
1523183781437587,19,3,4,-5,-1,-3,-2,-23
1523183781437587,-15,-72,-4,1,-2,-4,3,-49
1523183781449619,0,16,3,2,1,3,-3,21
1523183781449619,37,-1,2,1,-3,-3,3,-8
1523183781458642,-13,-8,-5,-3,-6,-1,6,2
1523183781458642,-36,8,5,0,0,-2,9,-9
1523183781473684,9,-1,1,-6,0,1,-8,-4
1523183781473684,-23,-2,2,3,0,0,10,-13
1523183781474685,0,-5,-2,0,0,-3,-10,-12
1523183781474685,-22,20,0,1,0,2,0,3
1523183781495743,49,-16,-5,-6,-3,-3,-10,-16
1523183781495743,10,6,2,3,2,-1,4,66
1523183781497748,-86,-4,-8,-4,3,-3,-4,-21
1523183781497748,9,2,-3,2,0,1,-1,22
1523183781518929,26,8,-3,-1,-2,-5,-5,46
1523183781518929,5,-14,-1,-4,-5,-4,-6,-3
1523183781519807,14,5,0,-6,-3,4,10,-29
1523183781519807,13,16,-1,2,-2,-2,0,9
1523183781533906,-37,-2,-4,-4,1,-3,-5,2
1523183781533906,35,-1,0,2,-2,-4,8,-8
1523183781534845,-25,-1,-1,5,0,0,-5,-47
1523183781534845,35,12,0,0,-1,-1,3,-16
1523183781562922,-53,1,-3,-3,-6,-8,2,12
1523183781562922,-33,-2,-2,-4,1,1,-5,2
1523183781564926,27,-3,0,-2,-2,-1,-4,21
1523183781564926,-1,7,-5,-6,-1,-3,-8,23
1523183781577961,23,8,5,6,5,7,33,29
1523183781577961,-76,-14,-3,-3,-2,-5,-15,-19
1523183781579965,-2,-41,-2,-2,-2,-3,-11,1
1523183781579965,-33,41,5,-2,-2,-4,-9,-40
1523183781592999,6,1,7,5,2,-2,5,22
1523183781592999,-9,-12,-3,-5,-3,1,2,-25
1523183781595005,6,9,4,2,3,3,-1,60
1523183781595005,1,-7,1,3,1,2,8,15
1523183781616061,18,-5,-3,-3,-4,-3,-9,-26
1523183781616061,13,11,4,3,-1,0,-10,-41
1523183781617073,-47,9,-3,3,0,-2,1,18
1523183781617073,67,-3,-3,-6,-4,-2,-1,15
1523183781638126,-56,10,-2,-1,-4,-3,-2,4
1523183781638126,-11,-2,0,1,4,3,-8,10
1523183781640125,13,0,-6,-5,-4,-3,1,7
1523183781640125,-4,-11,-2,0,0,-4,-7,-35
1523183781652157,15,-5,1,-3,0,-1,-8,14
1523183781652157,16,-17,-11,-3,-3,-1,11,11
1523183781659177,17,3,2,4,2,-2,-1,-54
1523183781659177,-28,-1,-2,-6,-2,0,0,76
1523183781676221,42,9,2,2,-2,0,-5,-17
1523183781676221,2,20,5,3,2,2,6,4
1523183781677228,-61,-9,-2,-3,1,1,10,-35
1523183781677228,61,63,0,3,0,-1,-11,-3
1523183781698281,57,-1,-1,0,1,4,11,53
1523183781698281,-17,-6,-3,-3,-7,-11,-16,30
1523183781700285,13,0,-2,3,0,-3,2,41
1523183781700285,-47,-11,-1,1,2,10,16,-83
1523183781712316,-22,-19,-4,-8,-6,-12,-28,1
1523183781712316,26,16,-3,0,1,-1,6,-27
1523183781719390,-21,-4,-2,-8,-3,-5,-8,-11
1523183781719390,18,-17,-8,-3,0,0,2,16
1523183781735613,-31,15,2,-5,1,1,1,-40
1523183781735613,-39,-18,-4,-2,-1,0,4,-22
1523183781737383,110,-1,4,5,3,4,12,65
1523183781737383,-23,-4,3,1,-1,-2,-3,-27
1523183781758441,14,-1,-1,4,1,1,10,-17
1523183781758441,21,10,0,-6,-2,-4,-16,22
1523183781759442,38,-6,-7,0,-1,7,29,89
1523183781759442,9,-28,6,-7,-7,-12,-28,-36
1523183781772481,-24,0,-8,-4,-2,-5,-4,-19
1523183781772481,7,4,2,-5,-2,1,13,-18
1523183781779730,-8,9,2,-1,-2,-1,-8,-20
1523183781779730,-3,-6,-1,3,1,-1,0,31
1523183781795539,-24,-13,3,6,-1,3,-4,-25
1523183781795539,4,8,0,-3,-1,-1,-2,35
1523183781797544,-5,65,2,-1,0,1,4,-22
1523183781797544,4,-6,1,-1,-1,-1,5,16
1523183781818836,83,-4,1,-3,0,0,-6,0
1523183781818836,-70,4,-2,1,1,5,18,11
1523183781819604,-54,-12,-4,-8,-5,-8,-15,-96
1523183781819604,-13,-12,-4,2,1,2,3,16
1523183781832873,-8,6,-1,-1,-3,-1,7,-41
1523183781832873,17,-13,3,-2,-2,0,7,-17
1523183781840658,-22,-12,-6,0,-2,0,-3,43
1523183781840658,-34,0,-4,1,0,0,1,18
1523183781855700,-48,-16,-5,-6,-2,5,1,-17
1523183781855700,26,-4,-1,0,-2,-6,-28,-15
1523183781857703,63,-1,7,7,5,9,25,-35
1523183781857703,-11,3,-8,-9,-8,1,6,-16
1523183781878904,-3,-4,-3,1,0,-2,-4,-5
1523183781878904,-8,4,2,-1,-3,-3,-9,-26
1523183781879762,-18,-24,-6,-5,-1,2,2,7
1523183781879762,17,-10,-1,-1,-3,-8,-12,63
1523183781892797,-8,3,-5,-5,-1,4,10,10
1523183781892797,8,-3,-3,0,-2,0,3,-12
1523183781900050,-13,-10,1,1,0,-5,-19,6
1523183781900050,-9,-1,3,5,5,5,15,-6
1523183781915858,-3,0,-1,3,-2,-3,-9,-2
1523183781915858,-5,-9,-6,-3,-3,-8,-27,-19
1523183781918026,39,79,8,1,0,-2,3,14
1523183781918026,10,0,-7,1,-3,1,-3,-7
1523183781937931,-34,5,6,3,2,1,5,-31
1523183781937931,50,-2,-4,-2,-1,-1,7,75
1523183781939924,-50,-22,3,1,-3,-1,-12,-84
1523183781939924,9,3,6,4,1,-6,-11,15
1523183781952964,-18,5,0,-6,2,3,15,-31
1523183781952964,38,-12,-4,0,0,-1,-8,-1
1523183781959975,-1,-13,-1,2,2,-4,-20,13
1523183781959975,-10,-9,-8,-3,-2,-4,4,-18
1523183781976058,-5,-5,-3,-1,-3,-5,-5,17
1523183781976058,-38,-1,-2,-3,-1,2,11,-8
1523183781977022,32,-24,-9,-8,-4,-5,-5,7
1523183781977022,20,-1,1,0,1,0,-6,-13
1523183781998078,-20,2,-2,-2,-4,-6,-8,12
1523183781998078,-64,-4,1,0,-1,-1,2,-17
1523183782000082,53,2,2,4,1,1,19,118
1523183782000082,-49,-12,-2,-5,-4,-4,-4,-12
1523183782012114,30,1,-6,-8,-2,3,-9,36
1523183782012114,-23,4,1,7,-1,-6,-10,-75
1523183782021143,-32,-24,1,-2,0,3,21,-16
1523183782021143,-16,9,-1,-6,-5,-5,-15,-5
1523183782035412,3,1,-1,4,4,4,21,-3
1523183782035412,34,2,-4,-2,-4,0,3,29
1523183782042194,2,-4,0,-3,0,-5,-21,-46
1523183782042194,8,77,6,2,3,13,29,8
1523183782058238,-31,-7,-3,-2,-4,-7,-28,-14
1523183782058238,-27,3,-1,2,0,-1,7,18
1523183782060252,20,6,-4,-5,-2,4,7,-26
1523183782060252,-38,-28,-10,-9,-7,-8,15,76
1523183782072275,41,3,6,8,1,-4,-6,32
1523183782072275,-29,5,-4,0,-1,1,3,21
1523183782081298,10,16,5,-2,-3,-7,-8,-76
1523183782081298,7,-4,1,6,2,3,-6,-18
1523183782095335,66,-8,2,-3,-1,0,18,-1
1523183782095335,22,-7,-1,-2,-3,-4,-15,-7
1523183782097341,-14,-14,-5,4,2,5,5,59
1523183782097341,3,-8,1,-2,-1,-2,-12,-28
1523183782118632,-10,8,-2,2,1,1,1,-31
1523183782118632,-27,-12,4,3,4,2,0,-33
1523183782119401,0,3,-2,-12,-4,-1,3,28
1523183782119401,-31,-17,-5,-3,-5,-9,-20,-5
1523183782132580,-20,-2,-1,1,0,4,3,-7
1523183782132580,28,-10,0,-8,0,-1,-2,-44
1523183782140455,14,2,2,2,-2,-5,2,69
1523183782140455,-33,-16,0,0,0,-1,5,15
1523183782155496,15,7,-1,-2,-4,-2,-12,-8
1523183782155496,19,6,0,0,-1,3,9,22
1523183782157500,-34,-4,-1,3,-1,-2,-1,-76
1523183782157500,34,-15,2,-5,-2,-5,-7,0
1523183782178562,21,-3,-7,-4,-6,-7,-11,14
1523183782178562,-33,4,2,-3,0,4,1,6
1523183782179779,-5,-19,-20,-3,-3,-6,-16,-67
1523183782179779,-43,-5,9,-6,0,6,15,50
1523183782191592,-16,-69,0,0,-2,-4,-3,-48
1523183782191592,15,12,-1,-1,-3,7,16,76
1523183782200829,49,0,3,2,3,3,-5,-12
1523183782200829,-39,-11,-11,-5,-3,-2,2,-39
1523183782215875,-9,-3,-3,-3,-2,-4,0,13
1523183782215875,11,-1,3,2,1,0,-2,84
1523183782217661,-21,-4,3,-3,-3,-2,3,-23
1523183782217661,44,8,-3,4,-2,-2,-3,-33
1523183782238717,-16,9,-7,-7,-3,0,-9,38
1523183782238717,-5,-4,-3,-3,3,0,-3,-33
1523183782239721,-28,11,1,3,0,-6,-6,27
1523183782239721,87,7,2,4,3,10,16,21
1523183782251987,-58,18,7,-4,-5,-4,-8,-43
1523183782251987,7,2,0,1,0,-2,0,-34
1523183782260775,-20,-1,-2,-3,-2,1,15,77
1523183782260775,51,2,1,2,3,2,-1,-70
1523183782275816,-11,9,1,6,0,5,11,52
1523183782275816,68,-27,-2,-6,-7,-12,-12,-14
1523183782277820,-19,1,2,0,-1,1,-5,4
1523183782277820,-44,-2,-5,-3,-3,-2,-1,28
1523183782297874,7,12,-3,-7,0,-1,2,10
1523183782297874,33,2,3,3,2,0,3,7
1523183782299881,14,-7,1,2,-1,0,-17,43
1523183782299881,11,0,-5,-1,-3,-8,-4,2
1523183782311911,11,-5,-2,2,1,1,3,-80
1523183782311911,-19,1,-2,2,0,0,-1,103
1523183782320940,-8,1,-4,-2,2,6,-1,-41
1523183782320940,14,21,-4,1,-2,-5,-16,15
1523183782335978,-11,16,-6,-5,-1,-3,-4,26
1523183782335978,-9,-5,-2,3,0,-1,3,-28
1523183782336980,2,4,4,-1,1,2,-1,20
1523183782336980,-7,1,-2,-4,-2,-3,-3,15
1523183782358033,-19,0,-7,2,-2,-4,-3,25
1523183782358033,-48,-6,-2,-3,-2,1,0,-49
1523183782360039,0,-8,-4,-1,-4,-7,-11,-21
1523183782360039,-53,-21,-5,-1,1,2,11,-1
1523183782372072,19,0,4,-4,-2,-1,11,-59
1523183782372072,7,-5,-3,-2,-2,-5,-12,25
1523183782381095,22,6,0,0,-1,5,19,40
1523183782381095,-11,3,3,3,0,4,-2,-1
1523183782396134,5,-16,-11,-6,1,0,10,27
1523183782396134,-14,9,-2,-2,-3,-4,-2,-27
1523183782398141,-35,-5,-4,-2,-3,-5,-13,-36
1523183782398141,33,8,6,0,0,0,3,28
1523183782418433,-41,9,2,4,3,5,-4,27
1523183782418433,-45,2,-7,-5,-5,-9,-6,-31
1523183782420200,6,-3,-2,2,0,-1,-15,-6
1523183782420200,-2,-7,-1,3,-1,-2,7,-20
1523183782441256,9,1,6,3,1,-2,-10,50
1523183782441256,24,0,0,0,2,6,20,5
1523183782442258,-8,4,2,-2,-3,-2,5,26
1523183782442258,25,-15,-4,-6,-2,-7,-22,-47
1523183782455292,39,1,3,-3,-2,0,1,45
1523183782455292,34,7,-1,-2,0,1,-10,-23
1523183782462312,-13,-41,0,-1,-3,-5,6,6
1523183782462312,9,51,4,-2,0,2,3,-7
1523183782478590,24,8,4,2,-1,-2,3,-2
1523183782478590,22,1,1,-1,-1,0,-13,-19
1523183782480358,-16,-13,-2,-1,-1,-5,-8,13
1523183782480358,-5,-9,1,3,2,-1,3,-2
1523183782500651,8,-4,-1,4,0,3,3,51
1523183782500651,-7,14,1,0,-3,-1,4,-43
1523183782502418,29,13,0,0,1,2,0,10
1523183782502418,-15,-26,-4,-7,-2,4,10,71
1523183782515452,-14,9,6,4,1,-7,-17,15
1523183782515452,36,-13,1,5,3,8,16,38
1523183782517458,29,7,-6,-6,-3,-5,-8,-15
1523183782517458,-15,-3,-2,-2,-3,0,5,-24
1523183782538516,14,-24,-7,-4,-4,-4,-16,-48
1523183782538516,4,3,-3,-4,0,-1,8,-2
1523183782539517,24,-2,-4,1,-4,-1,1,19
1523183782539517,28,5,-5,-5,-1,-4,-5,41
1523183782560573,-16,1,5,-3,-3,-2,4,53
1523183782560573,-24,-1,-3,-1,-2,-3,-11,-12
1523183782562578,-24,5,-3,-2,-2,3,2,-14
1523183782562578,-7,-9,-4,-1,0,-1,-4,-5
1523183782575612,42,-9,3,5,2,2,15,-9
1523183782575612,-60,9,-2,-1,-1,1,-2,-3
1523183782581862,10,-5,-4,-2,0,-3,0,-27
1523183782581862,-49,3,5,9,1,-4,-8,5
1523183782598674,51,-6,-5,-7,-1,1,6,-30
1523183782598674,1,-3,-1,0,-4,0,-2,-18
1523183782599676,30,28,-1,1,3,5,13,70
1523183782599676,-49,-9,-4,0,-4,-7,-21,-47
1523183782620737,-62,5,-5,1,0,0,-10,-44
1523183782620737,-15,-9,-2,-1,0,-2,5,19
1523183782622738,-88,0,-3,1,1,1,13,46
1523183782622738,33,47,0,-3,-4,-4,-4,42
1523183782635005,0,0,1,3,1,-4,-12,6
1523183782635005,1,-8,-3,-4,-2,0,-1,0
1523183782641787,5,9,6,7,0,-3,-11,-16
1523183782641787,-7,-17,0,-3,2,10,24,-6
1523183782657832,1,-7,-5,-7,-6,-3,-18,4
1523183782657832,27,15,5,4,3,3,6,40
1523183782659836,71,-12,1,-1,-2,-2,2,-24
1523183782659836,-11,-12,-2,-5,-2,-1,-3,-31
1523183782681128,-1,19,-1,3,0,1,9,-14
1523183782681128,-27,3,2,1,1,0,-4,-18
1523183782683005,0,-3,2,-8,-2,-2,-5,-18
1523183782683005,15,-8,3,-1,0,-2,-9,30
1523183782694930,-34,2,-1,-2,-4,-4,3,-23
1523183782694930,6,-8,-2,0,0,1,-2,-7
1523183782701958,-46,10,0,0,0,-1,-9,-29
1523183782701958,-10,-4,-1,2,0,-6,4,4
1523183782718225,-42,-12,0,-2,-2,4,-3,32
1523183782718225,37,2,0,0,-2,-4,5,-14
1523183782720000,18,-12,-7,-6,-8,-10,-15,-2
1523183782720000,8,-11,-5,0,1,2,15,-19
1523183782741052,31,2,-6,-2,-2,-3,3,-44
1523183782741052,-27,-2,0,-2,-2,-6,-16,21
1523183782742055,24,0,1,0,2,5,7,92
1523183782742055,17,1,-1,0,-5,-2,-9,18
1523183782755093,52,-2,-7,-3,1,0,10,-4
1523183782755093,75,1,-1,-4,-2,-3,-4,14
1523183782762109,-20,-69,-6,-1,-1,0,1,-37
1523183782762109,67,25,2,1,1,3,3,1
1523183782778385,-57,-2,-2,-2,-2,0,-6,1
1523183782778385,42,0,1,4,2,-2,-3,43
1523183782780156,-23,-5,0,-5,-3,-2,19,-3
1523183782780156,43,-6,1,4,-1,0,-1,-20
1523183782801426,-60,-6,-3,-4,-2,-4,-15,13
1523183782801426,-17,-4,0,-3,0,5,24,-52
1523183782802215,0,13,1,-2,-3,-7,-10,-17
1523183782802215,-33,-8,-4,-2,-3,-1,-10,-18
1523183782815248,11,17,7,1,1,2,10,32
1523183782815248,-34,-9,-5,-3,-5,-4,-26,-18
1523183782822268,11,27,3,5,4,0,10,0
1523183782822268,-2,-10,3,-2,0,0,-2,6
1523183782838311,12,-13,-11,-8,-3,-4,-3,2
1523183782838311,-22,1,1,-3,-4,-2,-1,-31
1523183782840314,-47,6,0,4,0,1,-6,-30
1523183782840314,5,-4,-3,-4,0,-2,-2,-6
1523183782860370,50,8,7,5,4,5,1,8
1523183782860370,-26,-16,-9,-15,-11,-12,3,-24
1523183782862374,23,9,-1,1,2,5,-6,-44
1523183782862374,-33,0,1,1,3,4,-3,-7
1523183782875415,14,-2,-1,0,-2,-6,-6,25
1523183782875415,-13,1,-1,2,1,2,1,-15
1523183782882576,7,-8,-1,-5,-2,0,3,43
1523183782882576,80,6,1,-2,-1,0,2,-10
1523183782898470,-18,-1,-2,-1,-3,-3,1,-5
1523183782898470,6,-18,-2,-1,-1,-3,0,37
1523183782900549,-21,13,5,5,4,4,-1,5
1523183782900549,11,0,1,-3,0,0,6,1
1523183782920534,21,-6,-2,-1,-2,-2,-2,-45
1523183782920534,10,5,0,4,1,-1,1,-8
1523183782922534,-38,-1,-2,-1,-2,-2,-9,-13
1523183782922534,-38,-4,-1,1,0,0,2,-26
1523183782934801,-9,-13,1,0,1,5,5,-13
1523183782934801,-7,6,-2,3,0,5,-1,15
1523183782950828,28,5,-7,-2,1,0,9,-23
1523183782950828,-39,4,4,3,0,-2,5,20
1523183782958633,-2,-7,1,-3,1,3,1,-1
1523183782958633,23,-9,-3,-5,-3,-5,-14,2
1523183782959635,-42,21,2,-1,-3,0,1,12
1523183782959635,-68,-12,-5,-3,-4,-1,4,-45
1523183782980923,17,0,-2,3,1,0,4,1
1523183782980923,26,28,2,3,6,3,6,56
1523183782982694,50,-9,2,-1,1,2,-6,-88
1523183782982694,42,9,0,-3,-3,-2,-27,27
1523183782994726,-22,0,-3,-5,-4,-8,11,-13
1523183782994726,-2,-26,-2,-5,-1,-2,0,15
1523183783003757,6,-6,0,1,0,0,7,11
1523183783003757,-7,-4,0,2,0,-1,-2,-10
1523183783018790,3,0,-6,1,-1,-1,-15,45
1523183783018790,3,5,2,2,-2,-2,-4,-23
1523183783019797,-69,-3,-3,-3,-3,-6,-3,35
1523183783019797,-13,-7,-5,-6,-4,-6,-5,34
1523183783040847,-21,8,1,3,2,0,-7,-3
1523183783040847,-20,-5,-1,-3,-1,0,13,23
1523183783042856,-11,3,2,-2,-2,0,-13,-16
1523183783042856,-48,-12,-7,-4,-3,-1,-7,-53
1523183783054888,-7,-4,6,4,-1,0,-10,-12
1523183783054888,-2,1,-1,0,-3,1,14,-2
1523183783062909,40,11,2,-1,-3,-5,-5,-8
1523183783062909,30,-5,3,5,2,1,3,14
1523183783078038,-8,4,-1,0,-5,-6,-2,10
1523183783078038,-26,-53,-6,-1,-1,0,-8,45
1523183783079952,1,19,-4,-3,-2,4,14,15
1523183783079952,5,-2,0,2,1,1,7,42
1523183783101243,6,1,-2,-2,-2,4,2,-73
1523183783101243,11,-10,-4,-5,-4,-7,-16,-12
1523183783102015,-54,-12,0,-3,-2,-6,-7,-12
1523183783102015,33,6,-1,4,2,2,-11,13
1523183783114043,22,0,1,-1,1,3,10,-44
1523183783114043,13,15,0,-1,-1,1,6,-16
1523183783123068,19,-12,-3,-3,-3,-4,-7,-41
1523183783123068,-24,7,-1,0,-2,-3,-9,-10
1523183783145125,-5,-8,-2,-3,1,-2,-4,42
1523183783145125,-11,16,4,4,2,3,5,-29
1523183783152148,59,-7,-2,2,-1,2,-2,19
1523183783152148,-34,-9,-6,-8,-9,-9,9,6
1523183783161168,11,-7,-2,-1,-3,-1,-5,34
1523183783161168,-35,10,1,4,0,-1,0,-7
1523183783162170,55,-4,0,-5,1,3,17,-3
1523183783162170,12,-11,-9,-6,-4,-5,-12,35
1523183783174205,-5,6,4,6,-1,-1,3,-18
1523183783174205,14,8,1,-3,1,0,-3,62
1523183783183268,-21,10,-2,1,2,2,7,3
1523183783183268,0,-13,-4,-1,-2,-6,-31,27
1523183783198310,22,7,5,5,2,2,18,-16
1523183783198310,-29,6,-1,-8,-3,5,-1,31
1523183783200272,18,-7,-1,2,1,-1,-12,-78
1523183783200272,-61,0,1,-2,0,0,16,-1
1523183783228583,-7,-6,-4,-7,-4,-13,-26,15
1523183783228583,8,2,-2,0,-1,6,9,17
1523183783230352,-12,-4,-3,-4,-4,-5,-4,-5
1523183783230352,-45,-1,-1,6,7,8,19,-34
1523183783234595,16,-4,-8,-7,-4,-1,1,34
1523183783234595,-20,8,3,0,3,-1,-2,-67
1523183783243388,12,-16,-9,-10,-10,-10,-13,69
1523183783243388,28,10,5,5,2,9,14,-30
1523183783258433,-8,8,1,1,0,-5,-17,-17
1523183783258433,17,-11,-4,-1,-3,-5,-1,-10
1523183783259469,33,4,1,-1,0,2,1,15
1523183783259469,25,11,8,2,0,0,0,9
1523183783280722,67,-4,-1,-7,-1,4,11,-47
1523183783280722,-7,-3,-5,-4,-5,-5,-9,-12
1523183783282490,-9,-1,-2,-2,1,-7,-19,15
1523183783282490,-61,3,-3,-1,-2,-3,7,-23
1523183783294523,36,2,0,1,0,4,15,54
1523183783294523,-24,0,-4,2,-1,-3,-19,-76
1523183783303552,21,-9,2,4,-1,-3,6,29
1523183783303552,-23,-6,-3,-3,0,-1,-12,14
1523183783318587,-24,0,-2,4,0,0,-3,-24
1523183783318587,-1,1,2,-5,-2,-5,-6,12
1523183783319597,-65,-13,-2,0,-1,-1,-9,-18
1523183783319597,2,1,-1,0,-1,-6,-6,59
1523183783340685,-86,-6,-2,-1,-1,2,12,55
1523183783340685,-15,2,-4,0,-3,0,8,-27
1523183783342650,40,25,4,1,3,1,-6,29
1523183783342650,40,-3,1,-2,1,-1,1,-16
1523183783363708,-32,-2,0,3,1,1,-1,0
1523183783363708,10,4,1,-3,-1,-2,2,17
1523183783364709,-85,-13,-3,-12,-5,0,-3,-49
1523183783364709,28,1,-2,1,-4,-6,-11,-11
1523183783377980,-5,9,3,2,4,11,15,20
1523183783377980,54,2,4,5,-2,-9,-18,27
1523183783379749,16,-3,1,-1,1,4,7,56
1523183783379749,2,1,3,-1,-1,-1,2,15
1523183783401041,22,-14,-4,-9,-3,-7,-34,-22
1523183783401041,-25,7,2,0,1,3,13,40
1523183783402815,12,-7,-6,4,-1,-4,-3,12
1523183783402815,48,4,0,0,1,4,7,-34
1523183783422863,54,-5,-4,-2,-2,-3,-2,53
1523183783422863,4,-2,-2,2,0,8,19,-11
1523183783424869,14,2,-2,-1,-1,-4,4,44
1523183783424869,-6,-22,2,1,-1,-3,-6,-48
1523183783437904,-12,44,-3,-1,-1,-6,-6,-29
1523183783437904,-9,0,4,3,1,0,-9,-3
1523183783439910,70,2,-4,-3,-1,7,29,29
1523183783439910,14,-18,-8,-10,-8,-5,-7,-49
1523183783460965,-21,-15,2,2,-2,-3,14,-29
1523183783460965,-8,-8,-1,-6,2,-1,-4,4
1523183783461968,-46,8,3,5,-1,5,-7,-53
1523183783461968,-6,-19,-6,-8,-7,-3,-6,9
1523183783483260,9,1,1,-1,-2,-4,5,-19
1523183783483260,-21,-4,0,0,-1,1,-2,-42
1523183783485031,3,3,6,6,2,6,3,20
1523183783485031,10,14,-2,-3,-2,-1,8,9
1523183783497061,29,-11,-4,-3,-2,2,-7,3
1523183783497061,-22,-2,-2,-2,-3,-10,-7,-51
1523183783506084,-54,-10,-1,-1,1,-3,-8,-10
1523183783506084,-2,18,-1,0,1,5,16,19
1523183783521124,14,1,-1,-2,-1,-2,14,0
1523183783521124,9,34,-4,-4,-4,-3,-5,23
1523183783522128,-5,-4,-5,-4,-2,-6,-10,-11
1523183783522128,18,-1,0,0,-1,3,10,-15
1523183783543194,-63,4,-1,-3,-4,-6,-18,20
1523183783543194,-31,-15,-7,-6,-5,0,-1,-15
1523183783545189,-10,-5,0,-3,-2,-2,-8,-3
1523183783545189,-14,16,-3,5,4,-2,3,4
1523183783566424,50,-25,-2,-3,-1,0,-7,62
1523183783566424,13,-8,-5,1,-4,-4,-7,24
1523183783567247,13,7,2,-3,-1,-2,5,-13
1523183783567247,-71,-12,0,2,2,-1,-4,38
1523183783581426,33,2,0,-2,0,1,-13,21
1523183783581426,30,-2,1,-1,-1,-6,4,-79
1523183783582287,-65,5,-1,-1,0,0,10,-26
1523183783582287,18,1,1,0,0,-2,-9,27
1523183783603350,-32,5,2,2,-2,1,13,-20
1523183783603350,20,-1,4,-1,2,9,1,34
1523183783605349,29,-12,-6,-5,-6,-8,0,-7
1523183783605349,26,-1,1,-1,-2,0,9,-15
1523183783617600,-38,-5,1,2,0,4,10,-35
1523183783617600,42,-5,2,-1,0,-6,-12,34
1523183783624406,32,8,-1,3,-1,-2,2,17
1523183783624406,-5,-6,0,-6,-3,-1,-12,-9
1523183783640442,-36,-2,-4,-2,-3,-3,-2,-42
1523183783640442,32,-67,-8,-1,1,-3,0,72
1523183783642447,-25,37,2,-3,0,6,18,57
1523183783642447,23,-1,-1,2,-1,-6,-20,-56
1523183783663504,-5,-9,1,2,-1,1,-8,16
1523183783663504,16,-1,-3,-5,-4,-1,5,-36
1523183783664506,-31,-11,-8,4,0,-4,-6,16
1523183783664506,44,4,-1,-6,-2,-2,-10,9
1523183783677778,-25,2,-2,-1,-2,-3,-3,-7
1523183783677778,33,17,0,2,-1,1,22,-4
1523183783684559,6,-12,-6,-3,-5,-4,-6,-17
1523183783684559,-71,21,3,-2,0,2,4,58
1523183783700601,-34,-7,-2,2,1,1,-2,-11
1523183783700601,-30,13,1,3,-2,-6,-6,26
1523183783702609,-5,-11,3,-3,-2,-1,9,18
1523183783702609,2,-5,0,1,0,0,-4,-36
1523183783723667,-26,-4,-6,-8,-4,1,-2,53
1523183783723667,-32,15,1,1,-1,4,-1,-70
1523183783724665,-1,-4,-6,3,-3,-8,-9,-1
1523183783724665,53,-2,-3,-2,-1,3,2,26
1523183783737704,-56,-10,0,0,-2,-5,-3,4
1523183783737704,20,25,2,-3,2,5,2,18
1523183783744720,52,-5,-3,-3,-4,0,-11,-28
1523183783744720,-34,-8,-2,0,-3,-5,3,-17
1523183783760762,71,-1,0,1,3,4,11,13
1523183783760762,-23,81,1,0,-4,-4,-7,24
1523183783762768,-8,-8,-2,-4,0,3,-10,-57
1523183783762768,15,3,-2,3,0,0,-3,33
1523183783783879,25,-1,-3,-1,1,4,27,32
1523183783783879,26,-25,-7,-5,-3,-7,-13,-86
1523183783784830,53,-1,6,-2,2,3,2,2
1523183783784830,-15,4,-2,1,0,-1,4,9
1523183783797862,22,-11,-6,-3,-2,-8,-7,-16
1523183783797862,20,-21,3,-6,0,1,-2,52
1523183783804880,25,4,-3,-1,0,-5,-7,-50
1523183783804880,3,-13,4,4,0,-10,-9,9
1523183783820922,-75,19,9,-3,-3,-1,-4,-7
1523183783820922,-11,-9,-3,2,0,-2,1,85
1523183783821925,3,-1,3,1,-2,-1,-10,-19
1523183783821925,-6,-5,-2,-4,-1,-1,24,-31
1523183783842980,-42,-2,-3,-7,-2,-6,-11,-55
1523183783842980,-13,-5,1,2,0,4,-2,21
1523183783844986,-80,-8,1,1,0,3,-13,-33
1523183783844986,16,-2,-3,-7,-5,-5,-15,-14
1523183783857017,47,-64,-5,-3,-1,-2,1,-16
1523183783857017,-56,-6,-1,2,-2,1,0,-19
1523183783866041,-59,8,6,4,5,4,8,45
1523183783866041,11,-4,-2,-1,-2,0,4,-69
1523183783881316,11,-5,1,1,-1,-3,-5,30
1523183783881316,-2,-8,-2,-8,-5,-4,-4,-70
1523183783882084,23,2,-1,1,0,-2,-5,22
1523183783882084,16,-1,-2,1,1,4,5,16
1523183783903192,67,15,-2,-6,-6,-2,-5,2
1523183783903192,17,-3,1,2,0,-2,-4,-10
1523183783905146,-44,-2,-7,-4,-3,-11,-2,0
1523183783905146,53,-3,0,3,5,13,27,-2
1523183783917412,-40,9,-7,-7,-4,-3,-8,17
1523183783917412,2,-9,-2,-1,-4,-3,1,2
1523183783926218,27,-14,-3,-3,-3,-2,-10,19
1523183783926218,-28,1,-4,-2,-2,2,-17,38
1523183783940239,3,17,4,8,4,1,8,-92
1523183783940239,-22,-5,-4,-2,-1,-2,-11,-50
1523183783942243,68,5,1,-1,-4,-6,5,59
1523183783942243,-55,-7,-1,-3,-3,-4,-10,21
1523183783963342,-67,2,2,0,-1,-2,-7,22
1523183783963342,-6,12,6,5,5,6,12,-10
1523183783965306,0,-35,-2,-4,1,3,6,11
1523183783965306,-27,-6,-4,-4,-5,-4,-2,-49
1523183783977526,62,-6,2,2,-1,-5,-13,41
1523183783977526,-23,11,4,-1,1,3,14,1
1523183783986367,-27,-3,-4,-7,0,3,12,15
1523183783986367,23,-11,-1,1,0,-3,-17,-18
1523183784000640,2,6,0,2,0,3,8,8
1523183784000640,13,-15,-2,-4,-4,-8,0,71
1523183784002407,12,10,1,3,0,1,-2,-23
1523183784002407,-4,-3,-6,-2,-3,-5,0,-2
1523183784023461,8,14,-1,1,-1,-4,-15,-26
1523183784023461,-3,-5,-3,2,-1,-1,-9,-4
1523183784024468,40,1,0,3,-1,3,16,23
1523183784024468,-30,11,-6,-3,-2,-4,0,10
1523183784036497,-25,-15,-6,1,-2,-5,-5,6
1523183784036497,16,-11,0,-2,1,0,-12,34
1523183784045518,-86,7,-1,0,-1,3,10,-107
1523183784045518,32,0,4,2,1,5,-1,12
1523183784060558,-2,-13,-5,-5,-3,1,10,2
1523183784060558,-14,-7,-3,1,-2,1,3,25
1523183784062564,32,6,-7,-2,-4,-8,-21,-59
1523183784062564,-96,5,5,2,0,-8,-19,-58
1523183784083855,74,2,-3,-11,-1,0,5,1
1523183784083855,7,0,-4,1,-1,-2,0,-2
1523183784084626,18,-11,-2,-5,-4,-4,-7,27
1523183784084626,1,58,2,-1,-3,-1,13,17
1523183784096654,20,1,0,3,5,5,1,-1
1523183784096654,-13,2,3,4,4,-1,-12,-86
1523183784105678,16,3,-7,-5,-4,-2,4,25
1523183784105678,33,-22,-7,-1,-2,-6,-4,40
1523183784120720,-6,5,7,1,-1,0,15,4
1523183784120720,-31,11,-2,-2,0,-3,-9,16
1523183784122726,-22,-14,-3,-2,1,2,1,-4
1523183784122726,4,-7,-1,1,-1,-1,-3,-11
1523183784142778,-14,-12,-5,-3,-3,0,1,60
1523183784142778,23,7,-2,0,-3,0,-1,-13
1523183784144783,-30,2,0,0,-1,-2,1,0
1523183784144783,49,-7,-4,1,0,0,1,21
1523183784156815,-72,7,3,1,0,-1,-8,-21
1523183784156815,24,-16,-7,-8,-3,-4,13,40
1523183784165847,-7,-3,2,-1,-2,-2,-12,-80
1523183784165847,79,7,1,-5,0,1,4,40
1523183784181115,-55,0,1,-3,-3,-1,1,-73
1523183784181115,-31,-6,-1,0,-1,-4,-9,37
1523183784182983,12,-11,2,-2,2,2,-6,11
1523183784182983,19,-2,6,-1,1,5,11,-12
1523183784202942,-28,-3,-2,1,-1,-4,-13,23
1523183784202942,15,3,1,-2,-1,-4,-11,-60
1523183784204945,37,7,-5,-1,-2,0,0,19
1523183784204945,-50,6,-3,-3,1,3,5,-2
1523183784217211,36,8,4,5,3,2,7,4
1523183784217211,-42,-2,-2,-2,-2,0,-4,-20
1523183784225998,85,3,-1,3,-1,-6,-14,25
1523183784225998,-20,-2,-3,-7,-6,0,8,43
1523183784241039,-49,4,-6,-3,-4,-4,-12,-85
1523183784241039,25,-3,-4,-3,-1,-7,-17,-30
1523183784242040,-21,-13,5,-1,-2,3,20,19
1523183784242040,32,-11,-4,-2,-3,-2,8,14
1523183784263097,22,3,0,-1,-1,-3,-5,-16
1523183784263097,-14,-3,3,2,-1,4,10,54
1523183784265101,-63,8,2,3,-4,-4,-7,58
1523183784265101,-1,2,0,-3,0,-3,1,-17
1523183784277133,70,20,-4,0,0,0,2,32
1523183784277133,20,-1,0,3,0,-3,-2,11
1523183784286166,-28,-1,1,3,-1,-2,1,67
1523183784286166,35,7,-4,-3,-1,3,-3,-83
1523183784301200,-48,-25,-6,-2,-3,-8,-15,33
1523183784301200,-20,5,1,-5,-1,-2,-2,-19
1523183784302204,71,7,-2,0,3,0,-5,-2
1523183784302204,-54,-10,1,0,-3,-4,-14,5
1523183784323258,10,0,1,-2,-2,2,14,-14
1523183784323258,0,-9,1,-8,-3,1,14,14
1523183784325300,-11,-43,3,-5,0,1,-4,-107
1523183784325300,-103,6,2,7,2,-1,-4,58
1523183784345314,117,20,-2,6,4,2,1,-31
1523183784345314,-6,-3,1,2,-1,1,7,41
1523183784347321,-9,2,-1,-1,-2,-2,0,9
1523183784347321,44,-6,3,-3,0,0,1,13
1523183784360356,-47,-6,-1,2,2,2,4,-1
1523183784360356,-11,-18,-9,-3,-4,-6,-10,3
1523183784362361,-5,21,-2,2,0,-3,2,-18
1523183784362361,33,-7,-3,-1,-2,-4,-10,-13
1523183784383658,-18,8,7,-2,-1,0,4,28
1523183784383658,-13,-6,3,7,3,5,6,-32
1523183784384422,-14,16,12,1,-1,7,14,22
1523183784384422,4,-19,-24,-10,-7,-4,-5,-17
1523183784405475,8,-2,12,2,2,-1,-1,57
1523183784405475,35,2,0,-5,0,-1,5,-7
1523183784407487,-13,5,14,4,-3,0,-4,-1
1523183784407487,-64,0,-23,2,2,0,0,-60
1523183784420516,75,-8,-2,0,-1,-4,-7,54
1523183784420516,26,11,-1,0,-1,5,13,-44
1523183784422521,-33,6,-2,-7,-3,-3,4,35
1523183784422521,39,-7,8,2,2,3,-1,-27
1523183784443579,-47,-10,-4,-3,-3,-5,-3,-23
1523183784443579,-38,2,-3,0,-2,-3,-23,-3
1523183784444579,-30,-2,-12,-6,-3,1,7,-15
1523183784444579,25,4,2,4,3,4,4,26
1523183784465872,6,-17,-14,-5,-4,-8,-17,6
1523183784465872,-4,-12,5,-2,-1,7,21,0
1523183784467644,-62,0,-9,-3,-4,-4,-8,7
1523183784467644,-1,-7,12,1,-1,-1,-19,3
1523183784480722,-9,6,-3,3,2,8,22,-12
1523183784480722,60,5,0,3,0,-9,-10,18
1523183784486696,36,-11,1,-5,-1,-6,-8,-2
1523183784486696,-28,-9,11,2,-1,-1,5,1
1523183784503737,-60,-9,-4,-3,-5,-1,-3,-88
1523183784503737,-15,4,6,6,2,1,1,19
1523183784504740,17,5,1,-4,0,-2,2,-6
1523183784504740,3,4,8,0,-3,-7,-3,8
1523183784525795,14,0,2,-1,0,1,6,61
1523183784525795,10,0,-1,-7,-1,-2,-5,-64
1523183784527800,26,10,-2,5,4,5,-8,-26
1523183784527800,33,-4,-4,-6,-3,-4,6,56
1523183784540835,-53,2,3,2,-1,2,-2,-23
1523183784540835,12,4,-6,-1,-1,4,12,4
1523183784547086,-54,-16,-9,-2,-4,-2,-5,33
1523183784547086,32,-1,-4,-2,-2,3,11,2
1523183784563129,84,15,-2,0,-1,-1,2,-12
1523183784563129,-9,-4,1,-3,0,3,-1,17
1523183784564900,-6,-5,-11,-2,-2,-6,-21,-7
1523183784564900,-11,-4,-4,2,-3,-3,0,90
1523183784585958,4,3,3,-3,-4,-3,0,20
1523183784585958,47,-4,-4,1,6,4,-1,-19
1523183784586958,85,2,-3,-4,-2,-1,11,38
1523183784586958,-37,-1,3,0,-2,-2,1,-15
1523183784600229,-48,-1,0,1,2,1,-11,-16
1523183784600229,7,14,-5,5,-3,-5,-7,15
1523183784615078,4,-1,2,2,2,1,4,-16
1523183784615078,-15,-4,3,-6,-6,-1,7,24
1523183784623056,-5,-11,-2,-2,-6,-8,-4,-29
1523183784623056,-5,12,-8,-2,-3,-8,-18,-6
1523183784625059,40,2,2,1,1,2,8,-10
1523183784625059,-41,-11,-3,2,-3,-3,-6,-7
1523183784646352,-69,5,3,-1,3,9,3,35
1523183784646352,-14,-5,-3,-3,-4,-3,-11,-56
1523183784647118,40,13,4,4,3,0,0,-8
1523183784647118,1,-9,-4,-4,1,4,4,-20
1523183784660152,48,-1,2,1,0,1,-1,12
1523183784660152,-49,0,-2,0,-2,-3,0,23
1523183784667170,-36,-1,1,0,-2,-2,-12,7
1523183784667170,12,9,1,0,4,-2,-2,-32
1523183784683449,51,0,-6,3,1,3,2,44
1523183784683449,-49,-73,-3,-6,-5,-7,2,-47
1523183784685221,-17,3,-7,0,-2,-4,-10,13
1523183784685221,7,2,-2,-2,-2,1,11,14
1523183784705273,-64,-4,0,4,2,1,-2,-35
1523183784705273,-4,9,3,0,0,3,10,32
1523183784707278,17,-14,-4,-3,-2,-2,-21,-57
1523183784707278,-77,4,-6,-5,-5,-7,-12,-66
1523183784720312,40,3,2,0,-1,3,9,-8
1523183784720312,66,3,3,-4,-1,0,-3,-4
1523183784727547,-38,11,-3,-5,0,2,4,14
1523183784727547,73,17,4,4,1,0,-9,15
1523183784743374,-68,-13,-5,-2,-4,-5,-9,-39
1523183784743374,-59,14,-2,2,2,1,1,31
1523183784744376,53,0,4,-2,-4,0,9,47
1523183784744376,-65,-26,-3,-2,-1,-2,-2,-41
1523183784765667,26,9,3,1,-1,-5,-2,7
1523183784765667,10,9,2,4,1,3,10,33
1523183784767438,-35,-6,-1,-1,1,-3,2,4
1523183784767438,4,4,-2,-3,-2,-1,-3,-7
1523183784780713,-4,-11,-4,-8,-2,-4,-12,-16
1523183784780713,-15,9,-1,2,0,1,-5,53
1523183784786492,1,-4,1,-2,-1,-4,7,25
1523183784786492,6,4,-4,-3,-3,2,-15,11
1523183784803535,67,3,-8,-1,-3,-5,9,-6
1523183784803535,-52,-13,3,-13,-2,-1,-4,13
1523183784804536,-10,18,2,4,0,1,8,-20
1523183784804536,83,2,-1,1,1,-3,-3,9
1523183784825593,18,-4,-1,-5,-4,-8,-5,29
1523183784825593,-20,0,-2,4,-3,-3,5,-8
1523183784827597,1,-14,-6,-5,-5,-4,-13,-35
1523183784827597,48,2,0,-3,-3,-5,-13,-57
1523183784839667,-30,48,2,3,2,5,17,20
1523183784839667,72,1,-4,-1,0,-2,2,32
1523183784848654,-43,-10,0,2,-1,-2,-3,-25
1523183784848654,-25,9,3,5,2,5,9,27
1523183784863873,15,-19,-1,-2,-2,-1,-8,49
1523183784863873,-31,6,1,-3,-2,-2,-1,-58
1523183784864696,54,7,-2,2,-1,4,14,25
1523183784864696,-61,-7,-2,-4,-1,-2,-12,5
1523183784892770,1,-8,-1,-5,-2,-4,-7,-2
1523183784892770,-22,4,4,1,2,7,6,-3
1523183784894775,-74,-16,-5,-1,-4,-6,-1,-27
1523183784894775,-16,1,4,4,2,1,13,69
1523183784900024,-73,-7,0,1,1,4,34,35
1523183784900024,100,9,-10,-4,-3,-2,-4,51
1523183784908814,-41,4,1,2,-1,1,5,22
1523183784908814,-1,-9,-8,-6,-2,-4,-11,-73
1523183784922850,26,2,3,5,0,4,-11,14
1523183784922850,-54,-8,-1,-3,-1,-4,4,11
1523183784924856,68,2,1,4,5,3,2,49
1523183784924856,-21,-1,-3,0,0,3,2,-43
1523183784946147,7,-1,-2,-1,-3,-8,-22,-6
1523183784946147,11,-1,0,-1,-2,-1,-8,-40
1523183784946914,24,-10,-4,-3,-1,-2,-11,-9
1523183784946914,67,14,0,0,-1,-2,10,9
1523183784958947,19,-9,0,-3,0,-1,-10,-55
1523183784958947,-30,-5,-5,2,-2,-3,-2,-46
1523183784968977,-62,3,-3,-8,0,3,8,8
1523183784968977,-16,-14,-7,-3,-4,-3,5,6
1523183784983247,28,-45,-1,-3,-2,-1,4,46
1523183784983247,17,46,2,1,1,-2,-4,47
1523183784985019,55,8,4,3,-1,0,-9,-68
1523183784985019,-16,-16,2,0,0,-4,10,5
1523183785006072,10,-13,-2,1,2,0,-6,6
1523183785006072,18,-13,2,3,0,2,4,-54
1523183785007074,68,-4,-3,-1,-3,0,-16,2
1523183785007074,-13,-7,2,0,2,3,2,74
1523183785019108,6,21,3,-2,-1,-2,4,-19
1523183785019108,-9,-12,-1,-2,-3,-2,-8,-5
1523183785028277,-25,-2,1,1,-1,-5,1,13
1523183785028277,14,-2,0,-4,-3,0,1,0
1523183785043170,-18,9,-1,3,3,6,3,-12
1523183785043170,11,-7,-5,-3,-4,-7,-14,26
1523183785045176,33,-9,-1,-4,-3,-4,-4,66
1523183785045176,-6,13,-3,-2,-1,-3,-2,-59
1523183785066371,-12,-2,-3,-8,-2,3,6,-19
1523183785066371,-20,-3,-1,-1,-5,-1,1,-3
1523183785067238,53,-1,-1,2,1,1,12,41
1523183785067238,5,4,2,5,2,-1,-17,-22
1523183785079503,-50,5,-2,-13,-7,2,14,-12
1523183785079503,1,-7,2,2,2,4,4,7
1523183785088290,-47,-3,1,0,1,0,6,-9
1523183785088290,-35,3,-2,-1,-1,2,-1,93
1523183785103331,-64,-7,-5,1,-1,-3,-7,-50
1523183785103331,0,-7,-1,0,1,-4,-3,21
1523183785104334,-114,-5,-1,-2,1,-5,-11,-46
1523183785104334,85,6,5,3,4,7,9,55
1523183785126429,6,7,3,-1,-1,-3,1,18
1523183785126429,16,9,-1,0,-1,-1,4,5
1523183785127395,7,-3,-1,1,0,-1,-3,-52
1523183785127395,-21,-3,1,-5,-4,-5,-7,-32
1523183785139426,4,0,-3,0,-4,-6,-8,-6
1523183785139426,-10,-10,3,3,0,1,5,2
1523183785148450,-19,-3,-2,-2,-5,-2,2,-37
1523183785148450,-95,-12,-3,-2,-5,-2,-4,-15
1523183785162487,33,-1,-1,-3,2,-1,-4,7
1523183785162487,22,-1,-4,-7,-3,-1,-5,21
1523183785170511,-22,2,1,5,3,-5,-19,9
1523183785170511,3,-1,-2,-1,-3,6,31,-14
1523183785185558,46,-22,-4,1,1,-5,-8,42
1523183785185558,8,-6,1,-3,-2,-4,-7,40
1523183785187554,65,-3,-1,0,0,3,3,-46
1523183785187554,-7,9,0,1,-4,-4,5,-9
1523183785199823,20,5,0,4,1,-2,3,39
1523183785199823,-25,3,-1,0,-3,-4,12,-65
1523183785208610,50,-17,-5,-4,-5,1,2,51
1523183785208610,-48,-5,3,0,-1,-2,-4,4
1523183785223650,40,6,-2,2,-1,-1,-6,-35
1523183785223650,-39,-3,0,-2,-1,1,6,61
1523183785224652,18,12,-3,-5,-3,-5,-2,22
1523183785224652,48,1,1,0,3,1,-8,-20
1523183785245708,-32,2,-1,-2,-3,-2,-8,-40
1523183785245708,5,7,0,1,4,6,-5,2
1523183785247715,15,14,7,4,0,-6,-14,-5
1523183785247715,-10,-3,4,-3,-3,-2,4,5
1523183785268772,2,-5,-4,-3,-4,0,-2,-2
1523183785268772,-31,-8,1,3,0,0,-6,-20
1523183785269773,-51,-6,1,-2,0,2,11,32
1523183785269773,86,0,-5,-1,4,-3,-16,-8
1523183785282806,-11,26,0,-4,-7,-3,13,32
1523183785282806,41,-7,0,-2,-1,1,5,-28
1523183785289826,-5,3,-1,-3,-3,4,8,-3
1523183785289826,-12,-3,-3,-3,0,2,-2,13
1523183785305869,13,-20,-3,0,-1,-1,-18,28
1523183785305869,-46,-7,-3,-2,1,-6,-3,15
1523183785307874,12,5,-2,-3,-3,5,20,32
1523183785307874,-21,0,1,0,0,2,4,4
1523183785328163,41,-6,-1,2,-3,-4,-3,-96
1523183785328163,-61,15,2,-4,-1,-1,-7,-51
1523183785329932,-86,-22,-5,-4,-2,-5,-5,83
1523183785329932,3,4,-1,-1,-4,-4,-15,-25
1523183785342967,4,-11,-3,1,3,5,15,-1
1523183785342967,70,-30,-4,0,-3,-2,-5,-25
1523183785344973,-1,-16,-4,1,5,4,4,3
1523183785344973,19,-8,-2,-3,-3,-1,1,-35
1523183785366147,-19,16,-6,-6,-5,-9,-26,3
1523183785366147,-2,-14,-3,-2,-4,-6,-7,12
1523183785372046,39,11,2,3,-1,0,-3,-44
1523183785372046,-53,3,-1,3,-1,-3,-17,-59
1523183785388088,-19,-13,2,2,6,8,33,45
1523183785388088,-31,5,-6,-7,-4,-2,-10,-77
1523183785390093,5,6,-4,-1,-3,-2,0,-8
1523183785390093,23,5,-6,0,0,-1,-3,66
1523183785402128,7,1,4,-2,-3,-2,-7,-9
1523183785402128,-26,14,3,1,3,4,12,61
1523183785409144,56,5,-7,-5,-6,-7,-6,-66
1523183785409144,20,-20,-8,-3,-2,-7,-14,12
1523183785426421,-51,32,2,7,5,7,3,-1
1523183785426421,54,2,-1,4,-3,-6,8,64
1523183785427191,-19,-8,-7,-2,1,-2,-12,5
1523183785427191,15,0,1,-3,-3,-1,9,-12
1523183785448248,20,50,4,1,-2,-3,-5,-4
1523183785448248,-7,-8,-2,-2,-1,0,-7,11
1523183785450257,8,19,10,-1,0,3,5,-95
1523183785450257,-17,9,-2,-5,-8,-6,3,62
1523183785462285,-61,-22,4,5,0,2,0,4
1523183785462285,27,8,3,2,2,2,3,-19
1523183785469303,1,-12,-7,-4,-7,-12,-23,-19
1523183785469303,43,-5,2,4,2,1,3,53
1523183785485349,-20,-11,0,-4,0,3,3,-70
1523183785485349,63,-3,2,-1,-2,-4,-5,12
1523183785487353,9,-25,1,-1,1,1,1,-5
1523183785487353,-45,3,-4,-2,-5,-8,-18,-6
1523183785508448,3,3,-9,-11,-2,-1,10,32
1523183785508448,15,1,-3,1,-1,-6,-23,-8
1523183785509410,-18,10,5,3,2,5,29,17
1523183785509410,7,-5,0,-1,-3,1,4,1
1523183785522448,24,-15,-5,-3,-3,-5,-20,-20
1523183785522448,-32,-5,-1,-5,-3,5,13,11
1523183785529697,-4,-47,-8,-5,-3,-1,0,-1
1523183785529697,-17,27,-2,2,2,1,-5,-41
1523183785545741,18,-11,2,3,-1,-6,-11,-5
1523183785545741,4,-4,-6,-4,0,0,8,47
1523183785547512,-33,-1,2,1,-2,-1,-12,1
1523183785547512,-9,-10,1,1,1,0,2,-18
1523183785568618,-25,-5,-1,-5,-4,-5,-5,25
1523183785568618,57,12,0,-3,-1,1,-2,6
1523183785569571,46,31,5,7,3,3,15,29
1523183785569571,-22,-13,-5,-7,-3,-3,-19,-40
1523183785582841,-20,-2,-2,0,-2,-1,-2,67
1523183785582841,-11,-6,0,3,3,5,20,-34
1523183785589660,-24,8,-2,1,-3,5,8,-51
1523183785589660,39,-1,2,-2,0,2,2,42
1523183785605666,-19,-5,1,-2,0,-6,5,16
1523183785605666,0,0,-4,-2,-3,-2,-5,69
1523183785607672,-23,6,1,-1,-1,-8,-16,48
1523183785607672,-43,-7,-3,-1,0,4,24,6
1523183785628871,42,2,-1,1,-1,-1,-15,-11
1523183785628871,-26,4,6,7,4,-2,-9,-19
1523183785629729,25,-12,-9,-7,-4,-5,4,23
1523183785629729,23,68,3,-2,1,0,-3,-3
1523183785642764,9,-6,-2,0,-1,-1,-8,-14
1523183785642764,-30,-2,-6,-6,-2,-3,2,-43
1523183785649787,-6,-14,-5,-1,1,2,-10,-29
1523183785649787,59,-10,0,-2,1,3,14,73
1523183785666059,68,12,3,-1,1,2,6,-28
1523183785666059,-15,5,-3,-6,-6,-8,-10,33
1523183785667832,-32,3,0,0,0,0,2,-27
1523183785667832,37,-24,0,0,-2,1,7,57
1523183785687884,-8,2,-3,1,-2,-6,-13,-4
1523183785687884,10,-15,-5,3,-3,-1,6,3
1523183785689889,-2,11,2,-1,5,-1,-2,-22
1523183785689889,-43,-6,1,1,0,-3,-19,-18
1523183785702925,-71,-17,-5,-3,-4,-4,5,15
1523183785702925,5,4,0,0,1,-1,-8,-83
1523183785708940,-3,-5,-5,-3,-2,-2,-5,27
1523183785708940,-36,-3,2,7,2,0,-10,-31
1523183785726220,-32,-77,-5,-4,-1,3,22,-58
1523183785726220,-18,3,6,1,-1,-2,-6,19
1523183785728028,-78,3,0,3,1,1,11,58
1523183785728028,61,-9,0,-5,-4,-6,-1,-12
1523183785748045,-40,-14,-6,1,0,3,-4,33
1523183785748045,-23,7,2,1,-1,1,5,-7
1523183785750052,48,-4,-1,-7,-4,1,-5,5
1523183785750052,-36,-2,-1,1,3,-2,2,-51
1523183785762080,63,16,-2,-1,-2,-1,-4,21
1523183785762080,1,-3,-2,-2,-3,-2,2,30
1523183785771105,-13,11,-4,1,-5,-3,-11,17
1523183785771105,-21,-6,-7,-3,-2,1,-1,-75
1523183785786149,6,12,-3,0,-2,0,4,-38
1523183785786149,17,-2,-2,2,5,8,12,43
1523183785787147,11,-14,-2,-4,-5,-11,-19,5
1523183785787147,15,-5,-1,-1,-2,4,0,-16
1523183785808204,31,14,5,6,2,-4,15,68
1523183785808204,-14,-13,-4,-10,-4,-6,-21,-64
1523183785810209,-11,0,2,4,0,-1,11,-3
1523183785810209,-24,-2,-3,-1,0,-1,12,5
1523183785822244,17,13,7,1,0,-4,-9,24
1523183785822244,1,3,-1,-5,-2,-2,-5,27
1523183785831266,-18,10,4,2,3,6,11,-87
1523183785831266,-2,-50,-5,-9,-6,-6,-13,36
1523183785846371,-12,9,-2,2,5,3,4,-18
1523183785846371,-37,8,-1,1,-3,-3,-1,-10
1523183785847307,50,8,-1,0,-1,2,-10,29
1523183785847307,-41,-24,-5,-3,-2,-6,-11,12
1523183785868364,-68,-8,-5,-8,-4,-3,-1,-19
1523183785868364,80,0,2,-2,-1,1,-3,-11
1523183785869368,-12,-6,5,9,5,3,6,60
1523183785869368,14,12,6,-5,-4,-1,-14,-74
1523183785882534,5,6,-5,-3,-2,-2,-14,15
1523183785882534,-70,0,2,0,-2,-2,5,-15
1523183785890425,34,-10,-1,-5,-4,-6,2,66
1523183785890425,-35,11,2,4,0,1,19,40
1523183785905463,27,7,-1,1,0,2,-1,-9
1523183785905463,3,-11,0,1,-3,-6,-7,3
1523183785907467,-41,0,-6,-4,-3,1,2,-28
1523183785907467,25,10,6,8,6,4,5,31
1523183785928758,-9,-6,0,-5,-5,-1,-6,-8
1523183785928758,-63,-2,-5,1,0,-3,-8,-1
1523183785929526,3,-1,6,-2,-3,-5,0,-80
1523183785929526,4,71,-1,2,0,-7,-11,38
1523183785941558,78,8,0,3,2,7,20,-37
1523183785941558,-17,-7,1,3,1,5,2,-3
1523183785950587,-7,17,-2,-2,0,-8,-17,15
1523183785950587,-26,-31,-11,-3,-5,2,1,-38
1523183785965859,36,-3,10,2,0,-1,-5,-26
1523183785965859,27,12,0,-3,2,4,11,-24
1523183785967629,-54,-11,-3,-1,-2,0,2,43
1523183785967629,27,-8,2,2,0,2,5,26
1523183785988689,-6,-3,0,3,1,-6,-21,66
1523183785988689,-14,-13,-8,-10,-3,1,24,-83
1523183785989686,17,-6,-3,-3,-1,-4,-8,-5
1523183785989686,6,-2,1,1,0,1,6,-25
1523183786001718,13,14,6,3,6,10,4,13
1523183786001718,57,-11,-8,-5,-5,-8,-10,49
1523183786010743,22,1,-4,-4,-6,-7,-13,-23
1523183786010743,32,26,-2,0,2,3,11,0
1523183786026019,-46,-13,-4,-3,-6,-5,-1,8
1523183786026019,22,-1,-2,-2,0,1,-2,61
1523183786027787,-14,2,2,0,4,6,6,-1
1523183786027787,-31,-37,-1,4,1,-6,-5,17
1523183786047841,-5,79,5,-6,-3,3,4,-15
1523183786047841,-2,1,-5,-1,-1,-1,2,81
1523183786049849,2,-5,1,5,-1,-2,-8,-22
1523183786049849,11,-7,-2,-5,-4,0,16,-12
1523183786061878,-4,-39,-5,-3,-1,-1,0,-13
1523183786061878,2,10,3,4,2,1,-7,1
1523183786070901,-3,8,-3,-5,-2,-6,-19,-53
1523183786070901,5,-7,-1,-2,-3,-3,12,3
1523183786085943,-17,-14,-5,-1,-4,-6,-1,17
1523183786085943,29,-4,-3,1,-1,9,16,-41
1523183786086945,-20,-14,-1,-1,1,2,2,12
1523183786086945,12,-3,2,-1,-1,-3,-12,-14
1523183786108040,39,-20,-3,3,-1,1,1,9
1523183786108040,6,9,5,1,1,-1,0,11
1523183786110006,-7,7,-1,3,1,5,2,35
1523183786110006,-22,-6,1,-3,-3,-2,12,39
1523183786122039,17,-14,-8,-6,-5,-6,-2,-4
1523183786122039,15,-6,-2,1,-1,-8,-17,-112
1523183786131060,-70,-6,-2,-2,-1,3,8,0
1523183786131060,42,28,7,4,4,8,6,8
1523183786146338,-40,7,-13,-12,-12,-14,-22,41
1523183786146338,-9,-10,0,3,-2,1,-3,13
1523183786147103,25,-3,-5,-10,2,3,10,10
1523183786147103,-19,4,-4,0,0,-1,-12,-13
1523183786168163,-23,-10,3,0,1,2,3,-28
1523183786168163,-59,-3,-3,-6,-7,-7,-15,-10
1523183786170166,52,15,4,-4,-3,-6,19,25
1523183786170166,10,-15,0,6,4,3,-3,7
1523183786182382,-16,0,5,1,1,-1,-11,-80
1523183786182382,9,16,-5,-2,-1,-10,-5,86
1523183786191222,25,-10,-2,-3,-6,-1,3,6
1523183786191222,-38,-7,-7,-5,-2,-5,-5,-10
1523183786205259,-36,-4,-1,-3,2,4,4,3
1523183786205259,41,-5,-2,1,-2,-3,-4,57
1523183786207266,-6,0,0,3,-1,-1,-3,-14
1523183786207266,56,2,-1,-5,-1,-1,-6,-17
1523183786228557,14,-12,2,-1,-1,3,0,34
1523183786228557,40,-13,-2,-3,-3,-7,-5,-19
1523183786230325,-28,1,3,5,1,-6,-24,-78
1523183786230325,4,-14,0,-1,-1,5,18,-5
1523183786250384,66,-66,-5,1,2,-2,1,15
1523183786250384,-56,8,8,3,4,5,-1,-10
1523183786252386,1,-6,-3,-3,-5,1,7,5
1523183786252386,4,10,-4,-2,-3,-5,-12,4
1523183786265649,39,9,-1,2,-1,0,-1,-80
1523183786265649,-26,-2,-4,3,0,-1,3,7
1523183786267430,15,-6,1,2,0,-2,-7,-12
1523183786267430,-31,-17,-6,-1,-3,-4,-2,22
1523183786288480,-4,37,-6,-5,-2,3,5,38
1523183786288480,-11,-5,-4,-3,-2,0,2,-20
1523183786289483,-2,15,5,7,2,5,1,2
1523183786289483,26,11,-3,-1,-3,-4,-2,15
1523183786310540,-116,2,2,2,1,-6,-6,-19
1523183786310540,-56,-1,-1,-3,-1,2,12,87
1523183786312544,3,-12,-5,-3,-3,1,6,17
1523183786312544,-19,3,3,-3,-3,-3,-20,-8
1523183786325719,2,6,-3,0,1,-4,-7,36
1523183786325719,-4,5,3,2,3,2,-2,-32
1523183786331829,47,-2,-3,-4,-1,1,6,53
1523183786331829,24,-8,-2,0,-2,-5,3,17
1523183786348641,-15,10,4,2,1,6,12,54
1523183786348641,9,-9,2,0,-1,-4,-1,84
1523183786349648,46,72,-4,-1,1,1,-3,27
1523183786349648,-24,-3,-2,-1,1,-2,-9,-34
1523183786370698,31,-1,-9,-7,-6,0,8,60
1523183786370698,16,0,3,2,0,-2,-12,-49
1523183786372704,-3,-33,-4,0,1,0,2,25
1523183786372704,12,1,0,0,-1,-4,-25,-2
1523183786384738,61,10,-2,-1,3,7,28,26
1523183786384738,12,-9,-5,-9,-5,-5,-6,-85
1523183786391757,-20,-10,-5,-2,-4,-8,-7,-6
1523183786391757,-18,-4,-4,0,-1,2,1,-4
1523183786407796,-17,-10,-2,-7,-3,-9,-18,18
1523183786407796,49,3,3,4,0,3,16,-42
1523183786409803,-21,-12,-1,-4,0,1,7,5
1523183786409803,22,-3,0,2,0,0,2,-52
1523183786431095,-41,0,0,2,-2,-2,0,9
1523183786431095,9,-11,-3,-1,-1,-1,4,12
1523183786432867,-24,7,-1,-2,-3,-4,-10,0
1523183786432867,-8,-1,2,4,6,5,13,-30
1523183786445133,12,7,-2,-2,0,0,-25,-72
1523183786445133,22,-2,1,-3,-5,-4,-9,-12
1523183786451918,-40,-14,-4,-4,-3,-3,-2,-45
1523183786451918,-16,-9,4,4,3,2,7,32
1523183786467960,7,68,11,4,3,0,-2,-90
1523183786467960,-28,0,-10,-12,-6,-2,4,18
1523183786469962,30,-6,5,5,0,-4,-29,2
1523183786469962,16,1,1,-3,-3,10,44,-67
1523183786491019,26,-32,-4,-4,-2,-11,-31,71
1523183786491019,19,6,0,4,-1,-2,-1,-12
1523183786492022,-19,9,4,3,4,3,2,-8
1523183786492022,37,-9,-6,-10,-7,-12,-22,41
1523183786505056,-12,-5,-2,4,0,7,18,23
1523183786505056,22,6,3,6,2,4,3,36
1523183786512075,35,-18,-10,-7,-2,0,12,13
1523183786512075,-26,7,-6,-3,-4,-4,-10,33
1523183786528352,-32,-10,-1,-1,-4,-4,-18,-87
1523183786528352,-42,-4,3,-1,-2,-6,0,-6
1523183786530123,1,1,1,-1,-1,0,9,26
1523183786530123,44,33,8,-6,2,2,-7,-18
1523183786550179,-48,-14,-8,-5,-7,-4,3,-36
1523183786550179,-19,-10,-5,-2,0,-1,-10,-42
1523183786558196,31,-4,4,1,2,3,12,11
1523183786558196,-104,-11,-6,1,-3,-7,-16,4
1523183786565400,10,-7,4,-2,-1,3,14,-59
1523183786565400,-1,-15,-4,1,1,6,1,5
1523183786572276,-11,2,-3,2,-2,-5,-6,15
1523183786572276,16,-4,-2,-5,-3,-1,-11,22
1523183786588277,-17,-12,-1,-1,-1,-5,-5,-5
1523183786588277,-32,-5,-5,0,1,1,12,10
1523183786590282,32,-61,-3,-8,-3,-5,-23,-20
1523183786590282,-29,18,-4,4,-1,-3,5,-4
1523183786610339,10,-7,4,3,3,6,9,54
1523183786610339,-8,10,2,-2,0,-2,-5,-5
1523183786612346,-14,-10,-3,2,-2,2,18,89
1523183786612346,17,-3,0,1,-4,-6,-8,23
1523183786625612,-29,6,2,1,3,6,10,23
1523183786625612,6,-1,2,4,3,4,14,44
1523183786632396,-34,13,2,-7,-1,0,-8,-95
1523183786632396,-26,-6,0,1,-1,-5,6,-12
1523183786648474,10,10,-7,0,-4,-3,-1,46
1523183786648474,17,-2,-6,-4,-2,0,-11,-12
1523183786650449,-18,8,1,1,-1,2,7,-12
1523183786650449,4,-5,3,-1,0,2,3,-4
1523183786670495,38,-13,-5,-7,1,-2,3,12
1523183786670495,-16,4,-4,-5,-4,-13,-17,-32
1523183786672503,56,10,-2,-4,-4,-5,-8,-2
1523183786672503,-12,4,1,2,0,2,4,-4
1523183786684536,-20,15,2,1,-3,2,9,-44
1523183786684536,-5,-2,4,4,1,3,-15,-8
1523183786691552,-30,14,1,1,0,-4,3,-9
1523183786691552,-13,-7,-1,-3,0,0,-9,41
1523183786708597,37,-11,-3,-4,-4,-5,-6,16
1523183786708597,12,25,3,4,2,1,-7,-8
1523183786709600,33,-3,-1,-4,-1,-2,-2,5
1523183786709600,23,44,2,2,-3,0,-2,-30
1523183786730890,-12,-8,-4,0,-1,1,10,8
1523183786730890,-16,-8,-1,-5,-3,-4,1,-5
1523183786732666,-37,9,-2,4,1,2,7,22
1523183786732666,-8,-15,-3,-1,1,5,9,32
1523183786744928,-40,-5,-1,3,-2,-5,-10,72
1523183786744928,0,1,-8,-11,-5,-1,10,-20
1523183786753719,-22,-4,1,3,4,2,-13,-23
1523183786753719,-26,-22,-5,-7,-4,-6,10,18
1523183786767759,-1,-10,5,2,0,-6,-17,-25
1523183786767759,4,4,-1,0,-1,3,17,76
1523183786769759,32,3,-1,0,-2,2,8,30
1523183786769759,-40,-8,-4,-3,0,-3,-6,-5
1523183786790815,40,13,0,2,-1,-3,-5,5
1523183786790815,-21,-10,0,-2,0,-6,-6,11
1523183786792822,6,6,-2,-3,-4,4,10,-9
1523183786792822,2,-6,2,4,2,3,-12,-13
1523183786804853,-20,-13,-5,-8,-1,-5,5,29
1523183786804853,16,8,5,2,0,1,-6,-17
1523183786814005,-26,2,-4,-2,2,-1,0,-10
1523183786814005,29,-7,1,0,-1,-1,-8,-35
1523183786835979,16,-2,-1,-2,-4,2,0,-27
1523183786835979,45,-3,0,3,2,3,12,40
1523183786837941,-101,-8,-3,-4,-5,-9,-17,-72
1523183786837941,2,-12,0,-4,-2,-7,-5,49
1523183786849981,17,77,8,7,7,9,13,14
1523183786849981,-4,-14,-5,-2,-7,-7,-2,6
1523183786850980,79,-1,-3,1,0,8,11,12
1523183786850980,3,-7,-1,-3,-4,-3,1,-9
1523183786873036,-49,-21,0,-6,-2,0,-5,-34
1523183786873036,-10,-9,3,4,3,2,2,-35
1523183786873036,3,14,0,-1,1,-2,2,-28
1523183786873036,10,5,-2,-1,-1,0,10,7
1523183786887070,15,-14,-4,-4,-3,-2,2,-5
1523183786887070,24,-1,-2,-1,3,2,-12,9
1523183786888075,17,-7,2,-1,-1,-3,3,8
1523183786888075,18,3,-6,-1,-4,0,-2,25
1523183786910132,-14,-10,1,4,0,-2,3,-27
1523183786910132,-4,-2,-3,-3,-3,1,-2,19
1523183786911135,-53,12,2,-4,-6,-10,-10,-2
1523183786911135,3,-7,-4,-6,-3,-1,6,50
1523183786932192,20,-2,-2,1,0,1,2,-48
1523183786932192,-34,-9,-3,-6,-2,-3,-8,45
1523183786933198,44,5,0,5,2,0,-4,16
1523183786933198,-25,14,1,-2,1,5,10,-54
1523183786947232,-44,-17,-2,2,-5,-8,-24,-25
1523183786947232,24,1,2,1,3,7,29,-26
1523183786948233,-28,-5,-1,-3,-5,-5,-9,0
1523183786948233,19,-31,1,2,-1,-1,-6,-40
1523183786970292,-26,46,-2,2,1,2,3,26
1523183786970292,63,6,0,-1,1,1,-5,-19
1523183786971294,-24,-8,2,0,0,-3,4,49
1523183786971294,21,-5,3,-1,-3,-2,-2,4
1523183786992351,-7,-21,-2,-6,-4,-2,5,42
1523183786992351,-42,2,5,2,-2,-2,-8,-47
1523183786993353,84,-5,-6,2,3,5,15,7
1523183786993353,-51,8,-1,-4,-3,-6,-21,-4
1523183787007391,-44,-11,-2,-2,0,4,7,22
1523183787007391,-25,18,-8,-6,-3,0,-6,-23
1523183787008393,20,-9,-4,-7,-2,-5,-22,15
1523183787008393,48,5,-4,1,-2,-3,13,17
1523183787030666,-27,-22,-5,-6,-2,-2,-4,-39
1523183787030666,-11,-9,-2,-1,-1,-2,0,3
1523183787030666,-18,1,-3,3,0,1,-3,-7
1523183787030666,14,-5,0,3,2,-1,-5,40
1523183787052511,48,15,1,0,-1,-2,-1,6
1523183787052511,-8,-10,1,3,-1,-5,-6,17
1523183787053513,-44,-1,-2,0,-2,-4,7,-37
1523183787053513,2,2,-3,0,1,5,6,-115
1523183787067553,9,-15,-1,-7,-2,-5,-16,6
1523183787067553,-24,-11,3,3,0,-2,4,-13
1523183787068555,43,-3,0,-6,-1,4,1,31
1523183787068555,37,-5,-1,5,2,3,-2,22
1523183787089613,18,4,-1,-2,-3,-2,1,39
1523183787089613,27,-2,0,0,-1,1,4,-22
1523183787090612,-29,-4,0,3,1,5,4,2
1523183787090612,8,6,-1,-4,-3,-2,0,6
1523183787112670,13,-9,1,4,2,0,4,-16
1523183787112670,7,1,0,-2,-3,-4,-6,-4
1523183787113712,-4,-6,-1,7,2,-3,-11,34
1523183787113712,28,7,1,-4,-2,-3,-8,-55
1523183787127945,-3,-3,-1,1,-2,-4,-1,8
1523183787127945,-20,-1,-4,-1,-4,-5,-3,-15
1523183787128714,-22,5,-1,-5,0,4,2,-10
1523183787128714,-8,-5,0,1,1,2,2,7
1523183787149781,28,1,7,4,1,3,5,-32
1523183787149781,29,-2,4,-1,0,-7,-15,48
1523183787150774,6,-7,-5,-8,-5,-6,-4,5
1523183787150774,-4,16,1,-2,1,5,0,-9
1523183787172872,-6,-10,-3,3,1,-1,2,40
1523183787172872,-13,12,1,1,0,3,9,21
1523183787173834,-18,-24,-3,3,2,3,2,81
1523183787173834,-17,47,3,-5,-3,-5,-16,-8
1523183787187873,60,5,2,3,1,-4,-12,44
1523183787187873,-36,-10,-7,-7,-5,-1,3,-4
1523183787187873,-3,-10,-3,0,-3,1,-1,2
1523183787187873,-4,-19,0,0,2,5,26,14
1523183787209929,-74,-28,-10,-3,-1,6,-17,-95
1523183787209929,26,17,-5,-6,-5,-11,-22,11
1523183787210932,-17,9,4,1,-1,0,12,-53
1523183787210932,-34,-9,-2,-2,-3,-2,8,29
1523183787232997,61,8,3,2,3,5,14,-12
1523183787232997,-13,-21,-9,-8,-3,0,4,-31
1523183787232997,3,9,2,1,-3,3,6,-40
1523183787232997,48,-10,-7,-1,-2,-1,1,70
1523183787248031,-66,-7,0,-6,-2,-11,-11,-71
1523183787248031,-10,3,3,5,1,2,-3,4
1523183787248031,35,5,-6,-5,-1,-4,-7,30
1523183787248031,-41,-7,-3,7,-1,3,-2,3
1523183787270090,66,12,-1,-1,0,3,4,-1
1523183787270090,-42,1,0,2,3,-6,-11,9
1523183787271093,8,3,1,-3,-4,-4,-7,-54
1523183787271093,46,-7,1,2,0,-3,-10,4
1523183787292149,-34,-2,-1,-3,-3,0,3,-3
1523183787292149,12,13,9,6,3,5,11,-13
1523183787293150,-60,39,-3,-6,-4,-3,-3,33
1523183787293150,-17,-9,0,0,2,0,-5,-8
1523183787307189,11,-18,0,-1,-1,2,2,10
1523183787307189,37,25,-3,-3,4,-1,20,99
1523183787308190,9,-11,-1,0,-3,3,0,0
1523183787308190,-31,1,3,0,-3,-9,-19,-52
1523183787330484,-103,6,-2,-11,-4,-1,1,-10
1523183787330484,92,-19,-3,-1,-2,3,-6,-13
1523183787331252,-22,-7,1,1,2,-3,-3,1
1523183787331252,-7,-5,4,3,0,-6,-5,25
1523183787352307,49,-6,-1,-2,-1,1,8,4
1523183787352307,16,-4,-1,-3,-5,0,-8,-63
1523183787353310,28,4,3,4,3,1,10,7
1523183787353310,-24,4,-3,-6,0,4,15,-46
1523183787367350,33,1,-2,3,1,1,8,112
1523183787367350,-65,-8,-9,-5,-6,-7,-18,16
1523183787368375,2,-3,2,-3,3,3,3,1
1523183787368375,45,-13,-8,-3,-8,-11,-15,-29
1523183787390409,7,5,4,3,0,-4,-2,40
1523183787390409,-15,-4,-1,1,-1,0,8,-23
1523183787391411,60,-13,-6,-7,-5,-3,-7,35
1523183787391411,-47,-1,2,-3,-2,0,2,12
1523183787412467,36,13,0,-1,0,-2,-4,-51
1523183787412467,-20,1,5,0,1,2,-3,-10
1523183787413470,50,-3,4,8,5,1,-3,42
1523183787413470,34,8,-1,-1,-3,0,0,59
1523183787427744,8,17,-9,-3,-4,-1,-7,-7
1523183787427744,-50,-4,-1,-3,1,1,2,14
1523183787428509,1,-3,-1,0,-2,-8,-9,-1
1523183787428509,-44,-7,-5,-3,0,1,15,8
1523183787450570,-2,-7,1,5,-3,-4,-1,12
1523183787450570,15,2,-2,-7,-2,2,3,5
1523183787450570,0,4,2,3,1,-3,-10,-14
1523183787450570,32,-1,0,-1,1,-1,-7,1
1523183787472862,32,-7,0,-1,0,-1,3,-82
1523183787472862,-20,-1,2,2,-2,0,2,-13
1523183787473631,-6,-4,2,0,-1,0,-2,-15
1523183787473631,-21,86,-1,5,2,2,6,5
1523183787487667,38,-2,-2,3,3,4,-3,14
1523183787487667,44,-9,-5,-3,-7,-13,-13,-17
1523183787488670,-34,1,-6,-4,-2,2,5,-30
1523183787488670,-4,-36,-4,-3,-4,2,-11,-64
1523183787509727,-21,-10,-1,-2,1,0,0,27
1523183787509727,-13,6,-1,-3,0,-3,-15,-35
1523183787510730,-9,-10,-4,0,-2,2,10,9
1523183787510730,-17,-22,1,2,4,2,-3,-5
1523183787532793,33,-2,-3,-6,-4,-2,4,19
1523183787532793,-20,-16,-3,-2,-1,0,-11,-3
1523183787533792,13,2,0,1,0,0,10,55
1523183787533792,-12,-17,-2,-2,-1,3,8,-5
1523183787547829,26,6,1,-2,-2,-4,-9,12
1523183787547829,-55,4,1,0,1,7,2,7
1523183787548837,-35,2,-1,-2,-2,-3,-11,6
1523183787548837,-1,1,0,-1,0,-2,-8,32
1523183787569927,-41,-8,0,-2,0,0,13,-9
1523183787569927,48,3,-1,1,-1,-2,2,9
1523183787570890,-6,-15,-6,0,-1,0,4,-29
1523183787570890,10,-8,-5,-3,1,-1,5,16
1523183787592949,-67,-3,-1,1,-2,-2,-3,-13
1523183787592949,-45,5,1,1,2,3,9,-1
1523183787592949,9,-65,-4,-6,-6,-8,-7,-8
1523183787592949,43,16,2,3,-1,-3,3,18
1523183787607988,-45,8,5,1,1,-2,-23,-7
1523183787607988,-7,-3,-1,-10,-5,-6,5,20
1523183787607988,7,2,4,3,4,8,10,13
1523183787607988,24,-9,-4,-1,-5,-8,-10,11
1523183787630283,15,-5,-1,-8,-3,-4,-7,28
1523183787630283,7,-5,-5,1,0,2,5,-9
1523183787631048,-8,13,1,-2,-2,-5,-14,-26
1523183787631048,-38,-3,3,0,3,10,10,-11
1523183787652104,12,1,-3,-1,-3,-1,0,41
1523183787652104,38,7,4,5,1,-3,-9,11
1523183787653107,19,14,-3,-7,-2,1,20,-57
1523183787653107,-52,0,1,2,0,-2,-6,-5
1523183787669150,-11,-8,-4,-1,0,-2,12,6
1523183787669150,83,-12,-2,-3,-2,2,-35,-8
1523183787670152,-59,6,2,-1,-1,-2,-1,8
1523183787670152,7,1,1,2,0,2,8,-35
1523183787690206,52,7,1,2,0,-3,-6,67
1523183787690206,7,-1,0,-1,-1,-3,9,-50
1523183787691208,26,-3,0,1,0,-10,-38,-3
1523183787691208,-1,-2,0,-5,2,6,22,-22
1523183787712264,-10,6,-2,-1,2,3,3,-3
1523183787712264,-23,-3,-5,-1,-2,-2,6,24
1523183787713267,-19,66,1,2,-2,0,1,-34
1523183787713267,24,-11,-11,-8,-4,-3,-14,50
1523183787727517,-1,6,-1,0,-1,2,20,-18
1523183787727517,16,7,1,0,0,0,2,10
1523183787735327,-7,-10,-1,1,2,3,-1,-27
1523183787735327,-3,-8,-6,-8,-6,-11,-14,36
1523183787750369,-101,0,-3,1,-2,2,-3,-7
1523183787750369,-42,1,-3,-2,-1,-1,-8,-4
1523183787751389,-21,-6,-1,-6,-5,-8,1,64
1523183787751389,38,4,3,5,0,-4,-7,8
1523183787772466,22,-16,-1,-1,1,0,-4,-26
1523183787772466,-17,3,2,4,2,0,9,-67
1523183787773426,4,3,0,4,6,8,5,74
1523183787773426,-10,1,-1,-5,-2,-1,-2,-46
1523183787786462,39,-6,1,-2,-3,-8,6,26
1523183787786462,-1,13,1,4,1,9,-4,-16
1523183787795720,7,2,-2,-1,-2,-2,13,-35
1523183787795720,-20,-14,-2,-4,-7,-6,-17,-10
1523183787810531,-18,3,-3,1,3,7,13,-26
1523183787810531,68,-66,0,2,-2,-8,-3,44
1523183787810531,3,16,-1,-3,-1,0,-16,-28
1523183787810531,-57,-1,3,-4,0,0,6,39
1523183787832589,39,1,-1,-1,-4,-1,-6,-43
1523183787832589,38,-4,0,0,0,-1,10,4
1523183787833589,12,-29,1,-3,-3,-3,11,22
1523183787833589,51,1,-5,-4,-2,1,6,-3
1523183787846858,-37,-1,-3,-2,1,5,-8,-9
1523183787846858,3,10,3,0,2,1,6,18
1523183787854647,26,-9,-6,-5,-4,-3,-12,34
1523183787854647,-15,3,-2,-3,-2,-4,-4,1
1523183787869685,51,-5,-3,-2,-2,-1,-5,8
1523183787869685,-128,8,-1,4,1,4,27,-30
1523183787870726,-19,0,-1,2,-1,-1,-22,-90
1523183787870726,51,-16,-3,-4,-5,-11,-12,1
1523183787892743,64,4,2,0,-3,-3,-4,14
1523183787892743,11,20,0,-3,0,-4,3,35
1523183787893967,44,-12,-6,1,2,2,-12,-16
1523183787893967,-10,1,1,4,4,2,12,-21
1523183787906781,-5,2,5,4,0,-8,-5,-9
1523183787906781,49,-65,-8,-10,-4,-2,-3,60
1523183787914806,-48,36,4,0,-3,-3,-9,-4
1523183787914806,65,1,-1,1,-2,0,-2,4
1523183787930077,-43,-8,-1,-1,0,0,-5,-2
1523183787930077,24,-5,-2,3,-2,-7,-1,48
1523183787930844,-28,-11,-4,-7,-4,-1,-6,26
1523183787930844,13,2,1,1,1,1,0,49
1523183787952904,-25,2,-1,2,-1,-3,-8,-42
1523183787952904,-12,19,-10,-3,0,-4,-17,-15
1523183787952904,39,-6,1,-1,0,5,35,35
1523183787952904,-21,1,1,1,1,-1,-14,-40
1523183787966943,-31,1,1,-3,-5,-4,-1,-6
1523183787966943,2,22,3,5,-1,-2,-4,29
1523183787975199,-9,-14,-5,-5,-1,-3,-2,-9
1523183787975199,3,-8,1,1,0,2,4,25
1523183787990002,-25,-9,-4,-6,-2,1,-5,-24
1523183787990002,-14,14,5,3,0,-1,6,41
1523183787991005,74,7,8,5,0,1,7,-4
1523183787991005,-24,2,-1,-2,1,-2,1,15
1523183788012063,41,8,0,0,1,4,6,-17
1523183788012063,-33,8,4,-4,-4,2,-10,-34
1523183788013064,35,-10,-7,-9,-6,-3,10,27
1523183788013064,0,3,-1,3,-2,-3,-5,-44
1523183788027340,-24,-2,-2,0,0,-1,0,58
1523183788027340,-16,-6,-2,3,0,0,1,-69
1523183788035124,-35,12,-2,1,0,-3,6,-21
1523183788035124,10,2,-4,-4,-3,2,9,68
1523183788050162,-5,-4,-5,-2,-3,-1,1,26
1523183788050162,-5,86,5,2,-1,1,0,-25
1523183788051166,23,-8,0,7,1,3,-4,21
1523183788051166,65,-7,-6,-3,-5,-8,-4,-29
1523183788072223,-18,-2,-2,-4,-4,-3,-8,-8
1523183788072223,-15,-26,-9,-7,-5,-4,-5,-26
1523183788073224,-27,3,4,3,3,7,7,-13
1523183788073224,-42,9,4,4,5,3,-2,-25
1523183788096346,40,-5,-1,-1,-5,-11,-11,9
1523183788096346,23,-1,-4,-2,0,4,6,-2
1523183788096346,-41,-11,1,-7,-2,-6,3,-6
1523183788096346,-4,-4,3,-1,1,4,4,10
1523183788110323,-7,2,-5,-3,-5,-5,-1,-57
1523183788110323,-58,-14,-5,-1,1,-5,-3,3
1523183788110323,-11,2,0,-3,-1,-7,-13,-2
1523183788110323,-1,4,2,2,2,5,-2,-99
1523183788132390,9,-10,-3,-6,-4,-1,-5,38
1523183788132390,61,-7,-5,-4,-5,1,11,40
1523183788133386,-17,-5,2,4,3,-2,-8,-110
1523183788133386,-54,-4,-4,-4,-5,1,-13,32
1523183788155443,25,0,0,3,0,2,-22,51
1523183788155443,-12,-18,3,-5,-2,1,11,-31
1523183788156444,36,6,3,-2,2,3,-2,2
1523183788156444,22,-20,-8,1,-1,-3,6,7
1523183788170482,-10,5,1,-2,-2,-4,-12,-46
1523183788170482,54,0,-9,1,0,2,2,-48
1523183788170482,-13,-68,-3,-4,0,3,17,42
1523183788170482,-52,14,0,0,0,-4,-3,-4
1523183788192540,-13,-8,-2,4,2,2,5,-5
1523183788192540,24,-3,0,2,-1,-4,-5,11
1523183788193551,-14,-14,-2,2,-2,0,1,-5
1523183788193551,-32,-7,-1,1,-2,1,7,-10
1523183788223624,12,1,3,-1,-2,-3,-10,-3
1523183788223624,-20,-5,5,1,2,-7,-10,69
1523183788223624,-43,13,-6,-3,-5,-5,-3,-49
1523183788223624,16,8,10,0,2,-1,4,49
1523183788230692,1,3,-1,-11,-1,2,22,10
1523183788230692,-12,-2,-1,-5,-3,-8,-27,-21
1523183788230692,-33,18,-3,1,0,-4,-8,30
1523183788230692,38,10,5,1,0,4,13,-24
1523183788252700,-56,-4,-5,1,3,4,5,-9
1523183788252700,1,-9,1,0,-1,0,-1,41
1523183788253703,-4,4,-4,-6,-5,-9,-26,-16
1523183788253703,-20,-6,-3,-7,-2,-1,-8,-11
1523183788275998,21,-15,-2,-1,2,-3,2,78
1523183788275998,37,5,-1,-4,-2,9,14,-1
1523183788276765,29,21,1,-1,-3,0,-6,3
1523183788276765,-31,-6,-2,3,3,1,12,13
1523183788289799,25,-2,3,-2,-3,-7,-4,-65
1523183788289799,-4,-9,-1,-9,-1,2,-35,-28
1523183788290803,11,3,1,0,-2,4,9,18
1523183788290803,0,-1,-1,3,-1,-8,-13,56
1523183788313097,62,5,1,0,0,4,13,61
1523183788313097,-11,-59,-6,0,-4,-8,5,-8
1523183788313097,-4,2,2,5,3,5,5,-25
1523183788313097,-5,-12,-4,-2,-1,0,-7,-3
1523183788335923,-22,18,-2,1,1,-1,1,-11
1523183788335923,-19,3,2,0,0,2,7,-15
1523183788336964,13,-2,-1,3,2,-3,3,41
1523183788336964,93,3,-2,-7,-4,-1,-2,-2
1523183788349962,-12,-13,-3,4,-3,2,12,-4
1523183788349962,-55,7,-2,-2,-3,-9,-11,-89
1523183788350965,-5,18,-5,-1,0,1,4,42
1523183788350965,-7,6,1,-4,-1,2,7,6
1523183788372058,0,1,3,5,2,4,6,-10
1523183788372058,-35,13,2,0,-1,3,7,15
1523183788373022,-6,1,-7,-3,-4,-3,-7,-17
1523183788373022,-7,-9,1,4,1,-1,0,25
1523183788396319,18,1,-4,-9,-3,-4,-3,-56
1523183788396319,7,1,-1,-1,0,0,10,19
1523183788396319,-8,-7,3,2,0,0,-7,-5
1523183788396319,0,0,-3,-1,-1,5,12,13
1523183788410121,-13,-5,0,4,2,-2,-5,-7
1523183788410121,70,10,0,0,1,2,-8,6
1523183788411122,-2,0,-1,-2,-3,-4,2,67
1523183788411122,-24,0,-1,-3,-2,-4,0,-13
1523183788432187,7,-20,-4,-2,0,4,0,-6
1523183788432187,-52,-17,-7,-12,-5,-7,-7,-1
1523183788433180,-1,-12,-2,0,0,5,-4,-77
1523183788433180,12,16,1,-1,-3,-7,-6,-22
1523183788455240,-6,-5,-1,-1,-4,-6,-30,34
1523183788455240,-51,-5,-2,1,-2,-1,10,45
1523183788456243,30,-6,4,-1,1,-1,-7,-67
1523183788456243,42,-19,-4,-4,-3,-2,-1,17
1523183788470516,-41,0,2,2,1,-4,-8,-22
1523183788470516,23,34,3,5,2,6,17,13
1523183788471304,-61,-4,-2,0,-4,-6,6,16
1523183788471304,12,5,-1,3,2,-3,-9,11
1523183788500405,37,7,-1,-3,-2,-2,3,27
1523183788500405,-8,5,-2,-4,-2,0,-7,-53
1523183788501362,82,6,2,3,3,3,3,39
1523183788501362,-77,-14,-6,-9,-8,-9,-10,-82
1523183788515410,-3,6,-1,0,3,5,23,9
1523183788515410,0,-4,3,3,0,-2,4,6
1523183788516405,29,0,-4,-3,-2,-5,-33,-17
1523183788516405,27,0,-3,-2,-1,-2,-7,7
1523183788530476,-23,3,2,-2,-3,-2,8,18
1523183788530476,47,-1,-1,-2,4,-1,-11,21
1523183788530476,-17,-4,-2,-3,-2,1,20,27
1523183788530476,-26,76,2,3,0,-1,-6,36
1523183788552496,26,-1,1,-3,-1,0,1,-17
1523183788552496,-3,-2,-2,1,2,5,-8,-15
1523183788553500,7,2,0,1,-4,-12,-14,53
1523183788553500,39,-26,-2,-2,2,6,7,20
1523183788575794,17,5,1,0,0,-6,-5,-10
1523183788575794,-6,4,-4,-2,-4,-2,-1,12
1523183788576562,-3,-10,2,-9,-5,-2,-5,-10
1523183788576562,6,1,-5,1,-4,-4,-4,-19
1523183788589597,-19,-15,-3,0,-1,1,4,-17
1523183788589597,-8,-12,3,0,0,1,9,24
1523183788590598,-11,8,-5,-2,-1,1,4,-18
1523183788590598,-32,-25,4,8,3,-1,-10,32
1523183788612699,43,17,1,-4,-2,2,15,-52
1523183788612699,12,-7,-1,-3,-1,0,-8,-1
1523183788613661,-42,-10,-3,1,-3,-6,1,-38
1523183788613661,-27,-1,-3,-4,-1,0,-3,47
1523183788635719,1,-9,-2,2,0,-2,-11,21
1523183788635719,-36,2,-2,-3,-1,3,24,-20
1523183788636722,63,4,2,3,3,0,-1,16
1523183788636722,-18,-13,-7,-4,-4,-4,-4,-11
1523183788649757,-29,-1,-3,-2,-6,-4,-10,16
1523183788649757,80,7,3,8,2,-2,-9,25
1523183788650758,-8,18,2,-4,-1,-1,-1,18
1523183788650758,25,1,-2,-4,-1,-3,21,-6
1523183788672819,-36,-1,0,-6,2,5,5,16
1523183788672819,-26,52,2,0,-5,-7,-14,-28
1523183788673822,-34,-8,-1,-1,-1,10,11,35
1523183788673822,-78,-8,-4,-4,-3,-1,-23,-105
1523183788696114,-5,4,0,-1,0,-5,-6,24
1523183788696114,3,-20,0,-2,1,2,21,-2
1523183788696883,-44,-18,-4,-5,-1,-5,-16,-27
1523183788696883,39,20,6,3,4,7,5,-3
1523183788708914,85,-7,-3,3,-2,2,1,5
1523183788708914,-42,-13,-1,0,-3,-7,-15,-15
1523183788717938,18,-1,5,8,2,3,15,4
1523183788717938,45,-8,2,-8,-2,0,-2,2
1523183788732979,-50,-1,-2,-1,-1,-6,-22,-26
1523183788732979,3,-2,-2,-1,0,-2,-3,-30
1523183788732979,15,11,-2,-2,-4,-6,-6,16
1523183788732979,-11,-9,-2,-4,-1,-1,-7,15
1523183788756038,-30,0,-1,-1,-1,5,17,-31
1523183788756038,-52,-16,-2,-3,-3,-5,-15,9
1523183788756038,-63,1,-3,-3,1,1,19,-6
1523183788756038,19,-5,1,3,-2,-3,-12,-75
1523183788769073,-34,0,0,-1,-2,0,-2,11
1523183788769073,41,-9,-1,0,-2,-3,-6,24
1523183788778190,-35,-1,-3,-1,0,2,19,15
1523183788778190,47,1,-1,2,3,2,3,0
1523183788793177,-45,4,0,-3,-4,-4,-17,6
1523183788793177,2,-12,-2,-2,-2,-6,6,0
1523183788793177,1,-8,1,-2,-3,-1,-2,-25
1523183788793177,-19,-30,-3,1,4,2,-3,1
1523183788816202,25,-2,4,1,-1,-2,2,18
1523183788816202,46,-3,-4,1,-1,4,-1,-71
1523183788816202,46,4,-1,-5,-1,1,1,7
1523183788816202,-32,-12,-1,0,-3,-10,-15,15
1523183788829470,-5,-2,-2,-1,0,3,11,-5
1523183788829470,-1,5,-2,1,-1,-1,5,63
1523183788837256,23,-20,-1,3,2,-1,-5,11
1523183788837256,-14,6,-1,-3,-5,-1,4,9
1523183788852295,-2,15,-6,3,-1,-2,-6,11
1523183788852295,-39,2,0,-4,3,1,-1,7
1523183788853297,32,1,-2,4,0,-2,4,-2
1523183788853297,-36,6,-2,2,1,0,6,9
1523183788876394,-4,-3,-5,-6,-3,-8,-13,12
1523183788876394,23,-14,-4,-2,-2,7,7,12
1523183788876394,-36,1,3,1,1,-2,-7,-28
1523183788876394,14,4,-4,3,-2,3,20,-3
1523183788889395,16,-15,-1,-2,-3,-3,1,-26
1523183788889395,55,7,0,-4,-1,-5,-7,-71
1523183788897417,-23,-2,-9,-8,-3,1,-11,8
1523183788897417,7,-2,4,4,3,2,-1,-5
1523183788912691,-6,11,-1,1,3,3,-8,15
1523183788912691,-18,2,-2,0,-1,0,11,18
1523183788913456,4,8,3,1,-1,1,-12,-45
1523183788913456,55,6,3,-3,-4,-2,-3,30
1523183788935515,-65,-2,-2,-2,1,-2,-17,-38
1523183788935515,-28,-6,5,3,-1,0,25,29
1523183788936519,10,2,-3,-1,-4,-2,-7,-15
1523183788936519,-8,-41,-8,-6,-3,-5,-8,8
1523183788949559,19,12,5,0,0,4,10,7
1523183788949559,-71,-5,-1,1,-2,-1,-7,-40
1523183788957811,32,5,-2,0,-1,-6,0,41
1523183788957811,14,4,0,-1,-4,-2,-1,-14
1523183788972615,-50,-13,5,-3,0,0,2,-4
1523183788972615,-14,4,-6,-2,-3,0,5,86
1523183788973617,19,-19,-7,-1,-2,-6,-9,-24
1523183788973617,-3,12,0,0,0,2,2,2
1523183788995912,19,-2,-3,2,1,-4,3,24
1523183788995912,27,28,0,5,3,4,-4,13
1523183788996678,-92,-3,-1,-8,-8,-6,-15,-21
1523183788996678,-4,5,-2,-5,-1,-1,6,27
1523183789009712,26,7,-3,1,-4,-4,1,7
1523183789009712,10,-11,-3,0,2,-1,-3,12
1523183789017734,24,8,2,4,4,6,27,25
1523183789017734,-16,7,0,-1,-1,-4,-10,-78
1523183789032777,0,-20,-7,-3,-2,-1,-9,-16
1523183789032777,26,-2,7,0,-1,-5,-17,16
1523183789033776,2,-14,-1,-2,-2,4,14,30
1523183789033776,-11,8,1,-1,-2,-2,-3,63
1523183789055872,15,-1,3,3,0,-2,0,-71
1523183789055872,6,-2,-2,0,0,2,-3,-26
1523183789056837,4,2,-3,2,0,-1,-4,44
1523183789056837,14,0,2,-6,-1,0,8,11
1523183789078130,-3,-76,-4,5,1,-3,11,3
1523183789078130,-58,6,2,-1,1,1,-7,16
1523183789078948,-26,-5,-10,-10,-9,-2,4,-29
1523183789078948,-23,17,-7,1,3,1,-8,-13
1523183789093159,20,0,-3,0,0,0,-4,61
1523183789093159,35,-7,1,1,1,1,0,-28
1523183789093159,23,3,5,2,-1,-2,5,32
1523183789093159,-60,-5,-6,-1,-5,-8,-23,-6
1523183789115998,-13,17,-1,-5,-3,5,23,-15
1523183789115998,14,-5,-1,-3,-2,-6,-6,9
1523183789116998,60,17,4,4,1,1,-5,4
1523183789116998,-31,-3,-1,0,0,1,12,-28
1523183789138054,27,8,-3,-3,-5,-4,-7,27
1523183789138054,-29,2,-3,-2,-2,-1,3,-12
1523183789139057,4,-26,-2,-2,0,-3,-8,-31
1523183789139057,20,4,-1,-2,0,-1,11,45
1523183789152091,-41,8,-9,-5,-5,-5,-9,-58
1523183789152091,39,-9,6,-1,-1,-1,-4,-14
1523183789153095,-18,-2,-2,-2,0,-5,-10,-21
1523183789153095,29,-5,5,6,2,6,4,33
1523183789176370,64,38,2,-4,-2,-4,5,-12
1523183789176370,27,-10,-4,0,-2,2,2,7
1523183789176370,-2,5,5,0,3,3,-7,-12
1523183789176370,-10,-5,-7,-2,-3,-1,2,72
1523183789198216,6,-1,4,0,0,-4,-12,12
1523183789198216,16,3,-2,0,-5,-6,2,1
1523183789199220,-21,1,-6,0,-2,2,12,5
1523183789199220,-2,1,0,-4,-2,-4,-10,-42
1523183789212252,-9,-8,4,-3,1,1,-4,-5
1523183789212252,-21,-26,-9,-4,-4,-4,-11,7
1523183789213253,26,4,4,-1,3,-2,-2,-8
1523183789213253,-1,-8,0,-5,-1,0,-5,-36
1523183789235313,11,25,0,2,0,3,5,51
1523183789235313,42,13,1,-3,-3,-4,2,0
1523183789236316,-3,-3,0,-5,-1,-1,-1,-9
1523183789236316,15,1,1,0,0,-1,3,-11
1523183789258373,32,-13,2,1,3,0,-6,-2
1523183789258373,-55,1,2,-2,-3,3,-10,-16
1523183789259376,48,3,-4,-1,-1,-1,7,6
1523183789259376,17,-4,5,1,0,-5,-8,-46
1523183789272648,-20,-8,-1,0,-2,-2,9,19
1523183789272648,-13,8,-5,-5,-3,-2,-4,-30
1523183789273414,-34,5,2,2,-3,-1,1,-23
1523183789273414,24,-7,2,3,-1,0,-2,17
1523183789295707,36,-2,0,-5,1,2,0,-15
1523183789295707,-28,-4,-5,-4,-1,-1,-2,12
1523183789296474,-29,-8,-1,1,-2,0,4,15
1523183789296474,13,4,1,7,2,0,1,6
1523183789318534,-36,0,2,-8,-2,-3,-7,-78
1523183789318534,4,0,-2,2,0,-2,-4,19
1523183789319591,33,1,-3,-2,0,0,-10,-13
1523183789319591,-48,21,-1,1,1,5,12,-48
1523183789332593,-6,8,0,6,1,1,0,102
1523183789332593,-23,-8,-1,-4,-4,-3,2,-16
1523183789333573,-14,-4,-1,0,-2,-5,-6,7
1523183789333573,26,-63,-2,-1,0,2,1,-65
1523183789355632,-58,-7,-7,-4,-3,-2,-8,1
1523183789355632,37,17,2,5,0,-6,-24,-11
1523183789356637,8,5,2,2,2,12,8,18
1523183789356637,-107,-17,-11,-9,-5,-2,9,95
1523183789378892,45,-1,0,2,1,-3,-6,77
1523183789378892,-8,-4,-1,1,0,0,-3,-51
1523183789378892,11,-6,-1,-8,-2,-2,-7,13
1523183789378892,46,13,4,4,1,-5,-8,-33
1523183789392968,-28,0,-1,3,1,6,7,2
1523183789392968,-20,7,-1,-2,2,1,13,14
1523183789393735,76,-4,-4,-5,-5,-6,-16,-32
1523183789393735,18,10,-5,-3,-2,-1,0,0
1523183789415794,0,0,-1,0,-1,0,2,-31
1523183789415794,45,-17,1,-1,0,-1,0,36
1523183789416796,-67,7,-5,0,0,-1,6,-1
1523183789416796,46,4,-6,-8,-6,-5,-14,-2
1523183789437889,-33,-7,-4,2,-3,-5,-6,-70
1523183789437889,31,0,-4,-3,1,4,9,30
1523183789438854,-7,-4,-1,1,-1,-3,5,24
1523183789438854,-9,12,1,3,0,1,3,54
1523183789452890,-53,-9,2,-4,-3,-3,-1,-61
1523183789452890,44,22,4,2,-1,1,0,0
1523183789452890,-14,1,-1,0,-1,-1,-2,12
1523183789452890,20,1,2,1,3,7,-3,-11
1523183789475993,11,1,-2,-2,-5,0,7,28
1523183789475993,-22,-9,1,-1,-3,-4,-7,1
1523183789476954,-57,-7,0,-1,3,7,22,26
1523183789476954,90,3,2,-2,2,-3,-13,-4
1523183789498017,65,5,-4,-5,-4,-5,-16,13
1523183789498017,-57,2,-4,-2,-3,5,17,-6
1523183789499013,-1,-66,-5,4,0,-4,-10,18
1523183789499013,-40,40,-1,1,0,-4,1,55
1523183789512049,-14,-9,-1,-2,-2,2,7,-36
1523183789512049,-2,-5,1,-6,-2,-9,-11,27
1523183789513051,-44,-5,-2,-6,-6,-2,-17,-113
1523183789513051,-14,-9,-5,-1,-1,1,13,31
1523183789536112,2,2,2,-1,1,-1,5,11
1523183789536112,40,0,-1,2,0,0,0,7
1523183789536112,17,36,1,0,1,1,3,10
1523183789536112,0,-13,-4,-10,-6,-4,-3,-48
1523183789558214,-75,6,-1,3,-2,-4,-16,2
1523183789558214,-23,-8,-5,-4,4,9,23,-25
1523183789559174,5,9,1,2,-1,-5,-13,17
1523183789559174,16,-4,-2,-1,-3,-5,-3,9
1523183789572208,20,-9,4,2,3,1,10,46
1523183789572208,28,0,-1,3,1,1,-5,-2
1523183789573210,-23,-11,2,-2,-1,-4,-5,-25
1523183789573210,-3,46,6,2,2,4,-1,-10
1523183789595506,-4,-14,-13,-4,-2,-5,1,1
1523183789595506,-28,-11,1,-2,-4,-2,4,-24
1523183789596313,-54,-11,-3,0,-1,4,8,4
1523183789596313,-7,-23,6,3,1,7,15,-38
1523183789618331,4,14,4,-1,0,3,1,-24
1523183789618331,-17,82,-2,1,-2,-5,-12,21
1523183789619335,44,17,-1,1,1,-2,-2,24
1523183789619335,-11,-16,-5,-1,-4,-6,-5,6
1523183789632371,5,9,1,3,5,11,8,-3
1523183789632371,-24,-40,-4,-5,-2,-3,-5,-14
1523183789640389,46,27,7,3,2,4,5,-5
1523183789640389,-47,1,-2,-1,-2,-6,1,24
1523183789655429,7,-84,-11,-8,-4,0,17,-12
1523183789655429,13,-7,2,1,-1,-2,2,28
1523183789656432,-12,3,-3,-8,-2,1,2,66
1523183789656432,-23,-18,-4,-4,-3,0,-9,-45
1523183789678725,32,9,6,9,3,-4,-19,7
1523183789678725,-86,-20,-3,-8,-6,-5,7,13
1523183789678725,-23,-5,-1,0,-1,1,7,27
1523183789678725,-16,-27,-3,-5,1,2,7,-82
1523183789691525,16,22,5,1,-1,-3,-4,12
1523183789691525,27,4,-1,5,2,0,-1,11
1523183789700549,12,7,-1,-1,-5,-6,-8,-3
1523183789700549,15,-2,-1,-3,-2,1,-2,3
1523183789715831,-5,8,-1,-1,-3,-9,-12,29
1523183789715831,-40,-10,-10,-4,-3,1,-2,-34
1523183789716592,19,-8,0,-2,-2,-6,4,-14
1523183789716592,-23,12,-3,-1,1,1,-8,14
1523183789738652,-18,7,0,-4,-4,0,-8,-12
1523183789738652,22,29,0,1,0,-1,-1,9
1523183789738652,3,4,-1,3,-1,-5,-12,-32
1523183789738652,60,-3,0,-3,-1,-1,12,25
1523183789751685,42,27,6,4,4,4,8,44
1523183789751685,-38,-33,-11,-2,-6,-9,-19,-58
1523183789760710,6,-11,-8,-1,-2,-5,-3,-3
1523183789760710,22,14,4,5,2,3,0,9
1523183789775986,-4,-13,-4,-1,-2,-2,2,27
1523183789775986,7,-15,1,2,3,7,23,4
1523183789777754,3,12,4,6,2,3,-7,-7
1523183789777754,34,-8,-4,-8,-10,-12,-5,60
1523183789798812,-29,-1,-3,-5,-4,0,8,14
1523183789798812,-13,-5,1,-2,-1,-4,-16,-6
1523183789799814,40,-2,-3,2,1,0,1,1
1523183789799814,-84,0,-7,3,-1,2,17,20
1523183789811845,-34,3,-3,-1,-1,-2,-13,-67
1523183789811845,40,3,3,-2,-1,-4,-3,22
1523183789820867,-10,-34,1,0,0,5,10,25
1523183789820867,9,53,4,4,4,1,-5,-24
1523183789835910,-6,1,-1,-2,-5,-8,-13,17
1523183789835910,-23,-4,0,2,0,5,-1,-105
1523183789836913,6,-7,0,0,-2,-3,0,34
1523183789836913,6,-20,1,3,2,-1,6,8
1523183789858204,-59,-10,3,-3,-2,-4,0,-20
1523183789858204,33,23,1,0,-1,3,3,98
1523183789859973,-17,-1,-5,-11,-4,-2,1,-40
1523183789859973,55,-6,-2,-3,-3,-4,-11,18
1523183789872005,9,0,-3,3,1,5,9,-9
1523183789872005,8,-11,0,-3,-1,-4,2,9
1523183789881033,31,16,3,4,1,0,-6,0
1523183789881033,-71,-12,-6,-14,-7,-7,-12,66
1523183789894065,42,-9,-7,0,-1,4,-2,-56
1523183789894065,-35,-13,4,-2,-2,1,-1,24
1523183789903087,18,6,-1,-5,-1,1,11,18
1523183789903087,-25,-1,-1,7,0,-5,-13,30
1523183789918129,8,0,-2,-9,-3,-2,-14,23
1523183789918129,54,2,-1,0,-2,-6,-10,-14
1523183789920133,-70,-2,0,1,0,1,4,-18
1523183789920133,73,-49,-5,-1,-3,-1,18,-38
1523183789932165,1,61,3,0,-1,-5,3,14
1523183789932165,3,0,1,3,3,4,-7,-55
1523183789941189,32,0,-5,-11,-9,-11,-23,30
1523183789941189,-17,-21,5,2,-1,-1,-10,-107
1523183789956388,11,-1,2,5,4,1,2,-7
1523183789956388,-35,-8,-3,-6,-1,3,11,77
1523183789957231,41,18,-2,0,-2,-3,-3,5
1523183789957231,-90,4,-2,-5,-1,2,-2,-73
1523183789978524,11,-14,-2,-6,-1,-3,-11,3
1523183789978524,-14,31,-2,5,0,-8,-11,-56
1523183789980293,9,-3,1,2,2,3,9,-3
1523183789980293,7,14,-3,3,-2,3,2,48
1523183790000346,6,-17,-3,0,0,2,-5,-9
1523183790000346,37,-14,-3,0,-2,-3,-3,8
1523183790002350,-22,-2,-4,-4,-4,-4,-9,-35
1523183790002350,26,7,-2,-3,-1,-1,-1,26
1523183790014392,-21,45,0,1,0,1,20,67
1523183790014392,95,-10,4,-2,0,-3,-15,-12
1523183790023406,-15,-16,-2,0,0,-6,-8,-36
1523183790023406,-19,19,3,-7,-1,4,0,-23
1523183790038449,-28,-27,-2,-2,-2,-5,-10,-4
1523183790038449,-19,5,-3,-3,-3,1,5,11
1523183790039450,-37,60,1,8,9,13,8,-14
1523183790039450,-13,-16,-2,-4,-6,-14,-15,-4
1523183790060742,-24,12,6,6,1,4,0,8
1523183790060742,-1,8,-2,-7,-3,-3,0,-15
1523183790062511,-54,-95,-6,-1,-6,-6,-18,-39
1523183790062511,27,14,3,1,0,3,-2,17
1523183790075584,38,-37,-11,-6,-4,-5,6,-9
1523183790075584,-59,1,1,2,0,-1,-5,-13
1523183790077550,-9,-3,6,-2,-1,-1,-3,20
1523183790077550,45,-1,0,3,0,-4,-3,-25
1523183790098630,11,-19,-6,-4,-3,-2,5,-31
1523183790098630,6,-15,-2,4,0,1,0,23
1523183790099610,8,15,1,-3,1,0,3,6
1523183790099610,-19,-2,0,-3,-2,-2,-6,23
1523183790120665,35,17,3,0,3,5,3,-64
1523183790120665,16,-1,-5,1,-2,-2,2,22
1523183790122672,43,16,3,-1,-2,-5,0,86
1523183790122672,-27,-22,0,0,-2,0,0,-49
1523183790134704,92,-12,-3,-1,-2,-6,-9,23
1523183790134704,-32,-12,-1,-5,-2,1,-7,-11
1523183790141723,18,6,0,3,-2,-1,-2,2
1523183790141723,10,51,-1,0,1,6,9,43
1523183790157964,-12,-6,-6,-10,-4,1,4,-4
1523183790157964,-21,10,1,2,-1,1,-8,-15
1523183790165786,-68,-4,-2,-2,2,3,9,-9
1523183790165786,0,-14,-3,-4,-8,-10,-19,-17
1523183790180830,-23,3,1,3,-1,3,9,1
1523183790180830,-24,-6,-6,-6,0,1,4,1
1523183790181830,-3,-14,-6,-1,-2,-6,-20,-3
1523183790181830,12,-11,-3,0,2,4,6,11
1523183790195102,13,13,8,3,0,-3,1,24
1523183790195102,28,-18,1,0,-1,1,8,73
1523183790201887,12,-12,-4,0,-2,0,-1,-28
1523183790201887,-9,74,9,5,4,2,5,-61
1523183790217924,5,11,6,-3,-2,4,-2,-39
1523183790217924,13,-3,-2,1,-3,-3,5,19
1523183790219930,-3,4,0,1,-1,1,8,-4
1523183790219930,-12,-17,-5,0,-2,-4,-12,16
1523183790240988,-57,-9,-1,3,-3,1,-9,19
1523183790240988,8,15,5,0,-1,-7,-3,-18
1523183790243032,20,2,-3,-2,-3,2,-1,-86
1523183790243032,-6,-20,2,1,-1,0,-9,-5
1523183790255259,-3,-14,-14,-8,-4,-3,-1,16
1523183790255259,18,-6,-6,-1,-4,-3,3,-4
1523183790262276,7,6,2,3,-2,-5,-8,18
1523183790262276,-23,-3,3,-3,2,4,14,2
1523183790278319,3,23,1,5,3,-2,-1,-21
1523183790278319,10,-49,-2,-5,-2,-4,-5,-27
1523183790280089,-78,-4,-1,-6,-5,-4,5,29
1523183790280089,-5,-67,-7,-9,-5,-1,-3,-51
1523183790301146,-7,42,1,-2,3,-2,14,-9
1523183790301146,-5,2,2,2,-1,-3,-9,20
1523183790302147,80,7,3,-2,0,2,-10,-25
1523183790302147,-23,-16,-3,0,-3,-2,10,59
1523183790315185,1,-36,-4,1,-2,-5,-1,7
1523183790315185,22,13,1,1,1,2,15,87
1523183790322202,-5,14,4,3,1,3,3,-20
1523183790322202,31,34,1,-2,-2,-1,7,90
1523183790338244,-19,-21,-2,0,-1,-2,-9,3
1523183790338244,-29,19,-4,2,3,3,4,-29
1523183790340250,-45,-11,-7,-6,-4,0,12,106
1523183790340250,46,-4,-4,2,1,-5,-20,-20
1523183790361344,-9,5,-1,-2,-2,4,14,-1
1523183790361344,15,-8,-5,-10,-6,-5,-8,-9
1523183790362308,-53,-3,-3,1,0,2,2,4
1523183790362308,-18,-9,-4,-3,-2,1,5,-22
1523183790375344,-17,-2,0,-5,-3,-4,-12,8
1523183790375344,-7,-3,3,4,0,4,1,-37
1523183790381360,-33,3,-1,-5,-4,-8,-12,-7
1523183790381360,10,6,0,5,2,3,2,40
1523183790398405,-10,-26,-1,-7,0,-1,-13,-92
1523183790398405,12,-1,2,-2,-1,-4,0,1
1523183790399407,24,5,-1,-1,-1,-4,2,22
1523183790399407,-28,-2,2,-1,0,-2,-1,-19
1523183790420462,-79,-10,-1,-3,-4,1,-3,52
1523183790420462,-13,7,-7,-1,0,1,-3,-37
1523183790422469,26,10,-2,-2,-3,-4,9,-22
1523183790422469,20,3,2,2,3,2,0,16
1523183790434501,9,-1,-1,1,-2,-2,4,12
1523183790434501,16,5,2,3,0,5,2,-8
1523183790443523,5,9,-2,-1,-1,-4,-7,34
1523183790443523,-8,20,-3,-9,-3,0,11,-1
1523183790458798,8,44,6,7,3,1,3,40
1523183790458798,-29,-13,2,0,-2,1,-2,-6
1523183790459566,65,-18,-7,-8,-4,-1,-4,-51
1523183790459566,-52,5,0,-2,-2,-5,-17,-61
1523183790480635,13,-5,-3,0,-3,-3,3,-1
1523183790480635,-52,3,-1,-4,-1,-3,2,4
1523183790482629,56,9,-3,5,0,2,-13,-23
1523183790482629,-23,-20,1,1,2,3,25,24
1523183790494894,-44,-19,-4,-5,-2,-6,-16,-25
1523183790494894,27,-9,1,-1,-2,-6,-15,-14
1523183790503684,54,-4,3,5,1,3,23,105
1523183790503684,-26,14,4,3,1,3,-5,21
1523183790518838,30,-7,-7,-4,0,-1,5,-20
1523183790518838,30,24,4,-4,-2,3,10,41
1523183790519726,-19,-21,-4,-6,-3,-7,-10,18
1523183790519726,19,4,-7,-5,-6,0,2,26
1523183790540788,11,0,3,5,3,-2,-10,-13
1523183790540788,11,-14,-5,-4,-4,0,13,40
1523183790542787,-6,4,2,2,5,2,-2,-91
1523183790542787,15,-77,-1,2,-2,-1,16,-24
1523183790554819,1,-3,-1,1,-3,-2,-9,18
1523183790554819,-82,-8,-1,2,1,1,-5,-47
1523183790563854,-21,2,1,0,-2,-1,-1,0
1523183790563854,35,-4,-7,1,-3,-8,-15,-11
1523183790578118,-6,-4,-5,-10,-3,-1,5,8
1523183790578118,19,1,-3,-1,-1,-1,0,-5
1523183790579888,-19,-5,3,3,2,2,1,-18
1523183790579888,-12,-2,-3,-6,2,0,-10,1
1523183790600943,69,26,6,5,4,3,9,56
1523183790600943,-25,14,-3,-1,-3,0,-20,-72
1523183790601973,-32,-16,-5,-4,-4,-4,11,25
1523183790601973,43,12,0,2,3,0,-17,-15
1523183790614039,-20,-10,-5,-6,-5,-7,14,11
1523183790614039,18,-4,1,2,-1,-3,-6,-56
