timestamp,emg1,emg2,emg3,emg4,emg5,emg6,emg7,emg8
1523178326795280,12,-7,-6,-1,2,1,57,36
1523178326795280,2,3,33,8,-1,-7,-44,-9
1523178326795886,-2,-9,-51,-33,-11,-16,-68,-4
1523178326795886,20,7,18,18,3,8,57,12
1523178326796960,-61,-4,-5,-4,-3,4,9,-11
1523178326796960,2,3,7,-4,2,6,13,11
1523178326796960,-10,1,1,-2,-2,-1,65,10
1523178326796960,52,-3,-11,-6,-2,-8,-54,22
1523178326808948,-6,-1,6,4,-3,-7,-24,-55
1523178326808948,11,-4,9,31,4,1,33,-3
1523178326815947,95,4,0,-18,-3,-4,-39,10
1523178326815947,-58,-10,-24,-20,-3,3,3,-4
1523178326822959,33,11,11,4,-2,5,27,3
1523178326822959,0,5,-39,-8,-4,-6,-1,-7
1523178326838251,10,-5,16,13,0,-1,-5,-15
1523178326838251,-41,-8,7,-1,-2,-12,-54,-25
1523178326847022,54,0,-21,-34,0,-2,-27,24
1523178326847022,-65,-3,10,18,0,4,3,-17
1523178326861070,-35,0,9,8,0,2,-21,-4
1523178326861070,1,1,-8,-1,0,2,49,0
1523178326868243,-26,-7,4,1,-1,-9,-56,10
1523178326868243,47,2,-9,-1,0,8,50,29
1523178326883124,-2,-6,6,1,1,4,-4,-9
1523178326883124,0,2,21,4,-5,-9,14,-11
1523178326923273,-13,-10,8,-19,-5,-10,0,-2
1523178326923273,-14,6,12,26,2,3,8,-11
1523178326924233,1,2,-2,0,4,15,25,27
1523178326924233,97,2,14,11,4,1,-5,23
1523178326925234,62,4,-12,6,-1,-2,0,36
1523178326925234,-32,2,0,-20,-4,1,39,-8
1523178326928485,37,4,-6,5,0,16,3,-7
1523178326928485,-2,-1,3,3,-1,3,8,-32
1523178326935509,-2,2,-10,-4,0,2,41,6
1523178326935509,12,-6,-4,-15,-6,-15,-33,-14
1523178326943543,21,-2,11,8,2,-3,13,26
1523178326943543,-73,-6,0,24,1,-5,-42,-9
1523178326950299,-10,-1,-12,-49,-2,1,11,-25
1523178326950299,-31,-3,2,29,0,-5,-27,-18
1523178326965341,-3,2,-6,-20,-2,-3,30,10
1523178326965341,-17,-6,4,-4,-6,-8,-20,21
1523178326972358,5,5,8,22,0,-9,-43,6
1523178326972358,2,-5,-14,-21,2,9,-29,-6
1523178326996669,-17,-6,0,9,-1,5,26,-3
1523178326996669,47,6,5,-19,-4,-9,-8,7
1523178326998428,-24,-6,-14,24,3,7,8,14
1523178326998428,-20,-4,2,-6,-1,3,26,23
1523178327010707,27,-1,-1,-18,-6,-11,-44,-19
1523178327010707,-22,-1,-4,3,-1,1,12,19
1523178327017476,2,-1,5,-7,-1,8,-12,9
1523178327017476,17,0,0,11,2,-1,-17,-2
1523178327034522,-78,-1,-17,-8,-3,-12,8,-29
1523178327034522,-17,-6,-9,-17,-4,-4,14,13
1523178327035525,-15,-5,7,7,-1,-8,-57,-23
1523178327035525,16,2,12,18,3,6,8,1
1523178327056871,6,1,-12,3,-2,-10,-3,19
1523178327056871,27,-10,-11,-30,-4,0,-25,-24
1523178327057583,-36,-1,3,-1,1,-7,32,-29
1523178327057583,5,3,-16,-42,-1,4,29,-1
1523178327070851,9,-6,4,22,-5,-11,-27,-2
1523178327070851,-22,-3,-19,-2,-2,-6,-17,-27
1523178327077896,16,4,2,-1,-1,4,16,-2
1523178327077896,2,2,7,3,-3,1,-5,7
1523178327093886,96,10,14,-3,5,16,77,38
1523178327093886,-42,-1,-6,8,2,3,5,-10
1523178327095687,-36,-8,-6,-16,-6,-3,-28,-43
1523178327095687,33,1,19,28,-2,-16,-31,6
1523178327116741,0,-3,-4,0,1,5,9,10
1523178327116741,29,4,-9,17,-1,4,12,16
1523178327117778,-30,-11,1,-25,0,4,61,-18
1523178327117778,34,0,-5,-4,-1,-5,-14,-2
1523178327131128,-15,0,9,5,-2,1,-20,-22
1523178327131128,13,5,-7,-12,3,0,9,11
1523178327137840,-4,0,6,17,-4,-5,-25,9
1523178327137840,12,-8,-19,-15,-4,-1,31,2
1523178327154228,-20,3,0,7,-1,-7,-25,-24
1523178327154228,31,3,-6,-5,0,16,39,20
1523178327154842,17,5,-1,7,0,4,-11,-19
1523178327154842,-15,-3,6,-10,-4,-2,-12,-10
1523178327177032,16,5,6,14,2,-9,-24,18
1523178327177032,-18,0,2,-9,-3,-6,-13,-21
1523178327177904,5,-1,-13,-7,-4,0,-36,10
1523178327177904,1,-1,5,47,6,8,53,17
1523178327191183,2,-9,-20,-76,-8,-8,-23,-23
1523178327191183,-33,-6,11,20,1,-10,-32,-31
1523178327197199,50,5,-4,6,2,9,9,36
1523178327197199,96,3,3,10,-1,-4,-1,8
1523178327214224,-46,-10,-10,-26,-6,-3,-54,-11
1523178327214224,46,2,3,-9,-2,0,44,4
1523178327215001,-4,-1,10,1,-2,2,-12,-30
1523178327215001,-14,1,-4,-8,0,0,6,11
1523178327236181,-29,12,-21,2,-1,-4,-17,-9
1523178327236181,4,-6,35,24,0,0,-50,-4
1523178327238063,-18,1,-14,1,1,-3,-22,87
1523178327238063,-34,3,2,-4,-2,-6,-10,-24
1523178327251447,9,6,-1,4,0,11,16,-2
1523178327251447,-38,-8,-14,-17,-4,-14,23,-11
1523178327258365,20,-1,4,14,1,8,31,-12
1523178327258365,-18,-3,9,-16,0,2,25,20
1523178327274552,39,-12,-21,14,-3,-7,5,-17
1523178327274552,-45,-1,5,-13,-5,-1,-29,3
1523178327276270,-8,-1,-2,18,2,4,80,-10
1523178327276270,5,2,-9,-23,-3,-3,-37,-5
1523178327296606,-10,-10,23,25,1,-4,-7,10
1523178327296606,11,4,3,9,3,1,-4,-6
1523178327298222,10,-2,-9,-9,0,7,-8,-7
1523178327298222,-88,-6,-9,-17,-2,3,9,-8
1523178327310647,36,-7,3,11,-1,-7,7,13
1523178327310647,8,17,16,9,2,12,9,-23
1523178327319279,9,-6,-33,-24,-4,-18,-74,-31
1523178327319279,20,5,9,13,0,7,56,16
1523178327334445,-26,-1,3,-4,-1,-1,-13,3
1523178327334445,-10,-1,-9,5,0,-5,7,-32
1523178327335348,-25,1,17,12,-1,-9,-15,-16
1523178327335348,-61,-5,-4,-3,-4,-2,-78,-21
1523178327356540,11,7,-5,-4,0,0,-3,-5
1523178327356540,7,-1,4,1,1,2,50,24
1523178327358419,-7,0,1,2,-1,-10,1,15
1523178327358419,22,-4,-10,-13,-2,-4,-47,-50
1523178327370449,-14,2,17,7,1,13,85,17
1523178327370449,-2,-2,-8,-4,0,-10,-34,-3
1523178327379439,35,-2,24,16,0,12,40,46
1523178327379439,-44,-9,-43,-15,0,-1,10,9
1523178327394479,56,-7,0,-42,-8,-5,-38,-34
1523178327394479,-72,-14,3,13,-3,-3,29,19
1523178327395487,-14,-3,-4,5,3,3,-42,15
1523178327395487,109,12,13,19,3,-1,33,-2
1523178327416541,-14,-2,11,-3,-2,-3,-42,2
1523178327416541,9,1,-16,-19,-4,-4,24,10
1523178327417545,-23,1,6,-3,-3,0,10,-29
1523178327417545,1,-2,1,1,-1,4,1,22
1523178327430608,-21,-2,5,6,0,-5,-27,-21
1523178327430608,27,4,-20,-3,-2,0,-13,-12
1523178327438596,18,-3,8,2,-6,-8,8,-10
1523178327438596,4,1,-15,-20,0,3,-27,-8
1523178327453881,7,2,5,22,3,7,69,39
1523178327453881,12,1,6,2,-1,-8,-24,5
1523178327455643,-45,-5,7,2,-3,-6,-32,-53
1523178327455643,-19,-2,-15,-13,0,-4,21,-12
1523178327477014,-30,-2,-12,-2,-2,-8,-17,-23
1523178327477014,3,-2,11,14,2,5,-15,7
1523178327477703,49,-3,-22,-16,-4,-7,-67,27
1523178327477703,26,4,21,11,-3,8,80,3
1523178327489951,-10,0,-6,1,-1,-8,-38,-29
1523178327489951,22,2,1,5,-4,-2,39,4
1523178327498756,-6,1,-5,-18,1,7,31,8
1523178327498756,-45,-1,7,8,-2,-4,-29,11
1523178327514120,17,-1,0,-1,1,5,-24,-17
1523178327514120,28,2,1,5,-3,-7,-28,-8
1523178327515800,-25,2,2,9,1,-7,-19,32
1523178327515800,18,-8,-2,-8,-3,-7,-40,27
1523178327536981,-33,0,3,1,2,16,9,-20
1523178327536981,-43,-5,10,8,0,7,29,-28
1523178327537863,-3,-8,-19,-32,-1,-1,28,34
1523178327537863,59,10,8,14,0,-10,-27,-9
1523178327559066,-10,1,4,14,2,-8,-72,-2
1523178327559066,-46,-1,0,-13,1,21,47,26
1523178327560920,20,6,15,-2,-1,2,48,-11
1523178327560920,-37,-10,-37,-8,-3,-9,-32,-2
1523178327572955,-5,-5,15,5,-2,-6,28,27
1523178327572955,2,-1,-12,-15,0,0,-31,-13
1523178327573958,2,6,10,13,-1,-2,23,-19
1523178327573958,-18,-6,10,3,-3,-3,-31,-3
1523178327596302,0,-1,-5,1,-4,-11,5,1
1523178327596302,14,-1,-18,-32,0,5,42,-18
1523178327596302,16,2,4,7,-3,-4,2,-14
1523178327596302,-4,2,17,38,3,-1,-23,7
1523178327618368,-30,-7,-28,-69,-6,0,21,-58
1523178327618368,93,2,0,-15,0,-5,-12,15
1523178327619078,-61,-5,19,29,-2,-1,-24,-12
1523178327619078,18,0,-2,0,1,8,38,-15
1523178327633111,-11,-2,-3,5,-1,1,8,21
1523178327633111,7,2,5,2,-1,-2,-16,-5
1523178327634120,21,0,-17,-20,-2,-2,-9,3
1523178327634120,-29,-6,3,-2,-3,-2,24,4
1523178327655203,37,1,7,17,1,5,47,16
1523178327655203,38,-5,-9,-15,-2,-8,-106,-20
1523178327656175,5,0,5,13,6,11,39,6
1523178327656175,-16,-7,-16,-17,-6,-10,-24,-13
1523178327678233,12,2,6,6,-1,-9,-21,27
1523178327678233,-38,-4,-2,29,1,1,24,12
1523178327679234,9,0,-5,-30,0,-3,-19,7
1523178327679234,-39,0,6,4,1,-10,-11,-65
1523178327693282,25,4,-11,-16,0,7,-1,-48
1523178327693282,-24,-4,22,24,1,6,44,32
1523178327694275,19,-1,-42,-9,-1,-4,-7,-11
1523178327694275,3,-3,2,-17,-4,-1,-11,30
1523178327715333,-8,-1,12,27,-3,-8,-6,-2
1523178327715333,1,6,-2,-7,-3,-9,-38,-16
1523178327716338,19,-3,-5,-4,1,7,40,10
1523178327716338,30,1,12,10,1,7,42,10
1523178327738391,1,-5,-14,0,-1,-9,-12,11
1523178327738391,61,0,11,6,-1,-5,-36,-13
1523178327738391,-80,-2,10,0,0,-3,-38,-21
1523178327738391,23,-3,-3,3,1,5,39,5
1523178327753432,-2,3,2,-22,1,3,31,27
1523178327753432,53,-5,-27,-13,-7,-15,23,7
1523178327753432,-29,-7,4,9,-1,-2,-35,-10
1523178327753432,-11,3,3,-2,1,5,23,5
1523178327775727,-11,5,4,8,2,19,55,-12
1523178327775727,-42,-6,-17,-21,0,2,48,34
1523178327776495,54,-22,26,23,-4,-11,-36,1
1523178327776495,7,6,-11,-13,2,10,28,64
1523178327797838,-24,-3,-9,0,-4,-15,-32,-27
1523178327797838,2,0,5,10,-1,3,-7,1
1523178327798839,-4,0,-16,-16,-1,4,20,-9
1523178327798839,22,2,25,8,-3,-7,-68,-21
1523178327813881,17,-20,-13,37,1,4,45,33
1523178327813881,-60,-2,-8,-49,1,10,-23,-11
1523178327813881,32,8,6,9,-5,-11,-14,-34
1523178327813881,2,-1,-1,-3,3,6,-12,-1
1523178327835939,-57,3,-2,-7,-2,-1,-35,-19
1523178327835939,77,-1,7,14,0,-4,-30,3
1523178327835939,-38,-5,-8,0,0,1,21,20
1523178327835939,35,-6,-13,-14,-1,4,11,5
1523178327858385,24,0,5,-4,-1,-3,-13,6
1523178327858385,-12,3,5,13,-1,-14,-18,-18
1523178327866018,30,9,-8,-8,5,15,24,23
1523178327866018,-24,5,5,2,0,-3,23,-24
1523178327873434,-25,-3,-5,-7,-7,-3,-42,-2
1523178327873434,-30,1,1,-4,-4,-4,10,-5
1523178327874039,30,11,-2,-15,0,0,-10,-7
1523178327874039,-17,-9,-16,-4,-2,-9,-25,28
1523178327895133,32,4,4,-3,2,4,31,-37
1523178327895133,54,12,11,15,-2,0,-59,41
1523178327903498,-20,-1,-5,-8,1,7,30,-2
1523178327903498,-50,-15,-4,-3,-6,-6,-21,10
1523178327918184,7,2,7,-1,-3,-4,-2,15
1523178327918184,-10,0,-12,-2,1,6,32,10
1523178327919189,-2,1,4,1,-3,-8,6,4
1523178327919189,-19,0,1,-10,-1,-1,-32,-47
1523178327940215,108,3,-5,-1,-1,0,-33,51
1523178327940215,-13,-7,4,-2,-2,-8,48,-23
1523178327941217,33,1,2,5,1,6,-67,-4
1523178327941217,4,0,-1,-3,0,0,10,0
1523178327955296,-39,-11,-7,-6,-4,-8,-25,45
1523178327955296,33,-1,2,-2,0,1,-2,-11
1523178327963328,-15,-6,-6,1,-2,-10,-19,-7
1523178327963328,23,4,-6,-2,-2,8,52,29
1523178327978368,-8,1,4,0,1,-5,-27,-9
1523178327978368,-85,-9,6,12,-2,-3,-15,-9
1523178327979320,-25,-4,-13,-26,-4,-4,4,-7
1523178327979320,13,-3,-17,-17,-2,-3,43,-7
1523178328000408,-10,8,26,21,1,-5,-6,-25
1523178328000408,-1,0,-16,-11,-3,-6,-20,-10
1523178328001378,8,5,16,21,1,2,10,-12
1523178328001378,86,8,0,-3,1,0,-34,2
1523178328014411,-55,-14,-22,-53,-9,-10,-8,-33
1523178328014411,24,-8,-9,14,-3,-2,28,23
1523178328023435,-5,3,0,5,-2,-10,-7,-4
1523178328023435,4,0,13,3,2,-3,9,-2
1523178328038474,-3,-1,-2,6,-2,5,12,-21
1523178328038474,12,6,30,25,4,21,25,23
1523178328038474,18,-1,-47,-67,-4,-3,10,12
1523178328038474,-58,-6,27,30,-5,-11,-13,1
1523178328060923,-47,2,6,29,2,7,45,-66
1523178328060923,-33,-7,-6,-19,2,4,-16,-7
1523178328061540,34,5,14,34,-3,-11,-27,-35
1523178328061540,-6,-9,-11,-14,-1,-6,-2,-5
1523178328075618,18,9,-2,-9,2,4,-27,37
1523178328075618,5,-1,4,-1,-3,-3,37,1
1523178328083597,-14,-10,-5,3,0,4,20,3
1523178328083597,0,1,-8,-4,-2,-2,-17,-12
1523178328098636,6,5,-1,-4,1,1,5,2
1523178328098636,-2,3,0,7,3,3,-8,-6
1523178328098636,20,7,7,-4,-3,-4,15,39
1523178328098636,84,0,-2,-3,-2,9,51,5
1523178328120786,32,-3,4,22,2,1,-14,-4
1523178328120786,18,1,-2,-11,2,5,2,-5
1523178328121697,-15,-6,-4,4,-5,-4,17,-6
1523178328121697,-7,7,0,10,-2,-3,-19,-13
1523178328135302,-11,-6,0,-14,-1,0,8,19
1523178328135302,-20,-6,-10,-11,-2,-2,-8,-31
1523178328143692,-32,-5,36,33,-3,-11,31,-46
1523178328143692,-46,-1,-44,-42,-4,-11,-53,-10
1523178328158714,-2,-4,4,4,0,6,32,26
1523178328158714,-10,-4,-15,-11,-2,-6,-33,-6
1523178328159331,7,-2,10,-1,2,0,-21,4
1523178328159331,-8,5,-7,-4,-6,-5,12,-3
1523178328180386,-8,1,-4,-1,-1,-6,-64,-18
1523178328180386,16,7,3,7,2,7,61,25
1523178328181390,8,3,4,31,3,4,17,18
1523178328181390,30,-5,-9,7,0,-1,-7,15
1523178328194424,-1,5,-9,-21,-3,0,3,-21
1523178328194424,-55,-7,-1,6,1,-1,-5,-11
1523178328203449,80,4,-5,-3,4,4,20,17
1523178328203449,-22,-12,2,9,1,12,-39,-27
1523178328218488,8,7,4,8,1,2,41,32
1523178328218488,2,-9,-8,-11,-6,-22,-62,-4
1523178328218488,23,-4,-15,-14,-7,-6,33,24
1523178328218488,-32,3,17,5,6,3,2,-13
1523178328240781,20,-3,0,13,0,-1,4,13
1523178328240781,-14,1,-7,-29,-2,1,11,-2
1523178328241550,-12,-4,2,-3,-3,-3,-40,-12
1523178328241550,8,-3,6,12,-2,-2,49,23
1523178328263607,3,-3,0,4,-3,-16,-58,26
1523178328263607,3,3,-1,2,-1,5,28,19
1523178328264612,-56,-2,-7,-15,0,-1,-33,-13
1523178328264612,-3,2,-14,4,-2,2,40,-10
1523178328278992,97,-1,-4,-4,3,9,-7,-3
1523178328278992,7,0,6,6,-1,8,-11,-24
1523178328278992,-96,-7,13,-4,-1,-4,-27,-1
1523178328278992,44,7,3,27,-2,-7,-18,-18
1523178328300714,1,-7,-11,-50,-2,-6,-26,14
1523178328300714,7,0,4,18,0,1,15,-11
1523178328301720,14,0,1,3,4,10,13,-3
1523178328301720,-14,-1,12,7,1,-5,12,30
1523178328324166,-17,-2,-4,13,-1,2,10,-13
1523178328324166,9,2,-11,-18,1,-1,-20,3
1523178328324771,18,-1,-2,11,-4,-12,-61,-10
1523178328324771,-31,-5,8,-20,-2,5,58,4
1523178328337807,-1,0,-7,5,1,-3,-21,-9
1523178328337807,-18,-5,0,-2,-3,-4,-16,0
1523178328338807,20,2,-4,1,-1,-1,-10,-6
1523178328338807,-25,-3,4,-12,0,-9,-39,-7
1523178328361289,56,1,13,7,-2,4,22,3
1523178328361289,-1,-7,1,7,-1,3,11,75
1523178328361289,-27,0,-11,-13,-1,2,10,-22
1523178328361289,105,8,22,35,-1,-1,-48,-19
1523178328384393,-16,-13,-37,-60,-1,-8,4,-28
1523178328384393,36,-5,-10,6,0,-3,35,12
1523178328384931,14,6,3,5,0,9,2,11
1523178328384931,14,-3,0,1,0,2,-20,6
1523178328397968,-38,2,10,22,2,-1,16,-11
1523178328397968,-3,-7,-11,-15,-7,-10,-14,-26
1523178328398973,-1,-4,-2,-8,-3,-6,-7,-17
1523178328398973,-33,11,-7,-1,-1,-2,32,-5
1523178328421284,-43,-10,24,18,2,6,-15,5
1523178328421284,3,1,-18,-20,0,2,22,12
1523178328422032,33,2,6,17,0,1,25,0
1523178328422032,-56,-8,-5,-9,-3,-10,25,26
1523178328444116,-9,2,-5,-6,-2,-1,29,18
1523178328444116,-58,4,17,9,2,0,-79,-84
1523178328444116,101,3,15,9,-2,7,41,23
1523178328444116,6,-9,-22,-25,1,15,27,11
1523178328458387,22,4,4,18,-2,-5,-7,4
1523178328458387,-14,-4,0,-16,0,3,14,-33
1523178328459133,31,7,-12,-6,-2,-8,-25,3
1523178328459133,-32,-7,-2,-17,-3,-2,3,10
1523178328480190,3,2,-1,19,-1,-1,-29,4
1523178328480190,31,1,1,20,0,-1,32,-14
1523178328481186,-39,-2,6,12,-3,-4,-6,2
1523178328481186,-14,-4,2,-57,1,6,-49,15
1523178328504535,34,-9,-26,-7,-2,6,-13,-52
1523178328504535,-41,4,18,21,-4,-9,17,22
1523178328504535,4,-10,-25,-37,-1,5,-18,24
1523178328504535,6,2,10,25,1,-15,-42,-15
1523178328518594,9,3,1,3,0,7,30,33
1523178328518594,23,3,-5,-23,-1,0,-38,3
1523178328519298,-36,-3,0,-14,1,-2,40,-30
1523178328519298,-6,-3,-7,17,-1,8,-13,10
1523178328541377,-20,-7,9,-21,-1,-3,-56,-24
1523178328541377,-30,-20,-2,3,-3,-10,31,16
1523178328541377,-8,-1,19,10,1,-4,-26,20
1523178328541377,29,-1,-11,1,-1,1,14,-27
1523178328563447,-20,7,16,26,1,-2,27,-14
1523178328563447,-3,11,-15,-2,-1,-11,-55,-8
1523178328564408,35,-17,-9,-37,-5,-8,-14,9
1523178328564408,14,5,14,17,0,0,-7,-2
1523178328578686,26,12,-12,4,1,0,12,24
1523178328578686,37,1,-5,6,-1,5,-30,9
1523178328579450,-34,0,-5,-17,-1,-2,12,-18
1523178328579450,11,-4,-3,6,-3,-11,-4,-9
1523178328600505,-17,-4,8,5,0,-1,9,8
1523178328600505,10,-2,-8,-17,-7,-13,-23,-41
1523178328601508,-5,1,4,16,3,12,55,30
1523178328601508,3,-4,0,-8,0,6,-14,3
1523178328623948,-5,-3,-1,-16,-4,-15,12,-5
1523178328623948,28,4,7,27,1,4,79,-12
1523178328624568,-97,0,-2,9,4,11,-46,-11
1523178328624568,43,6,-12,-12,-3,-4,-30,-19
1523178328638640,-2,-3,-5,2,-1,-3,26,16
1523178328638640,-13,-6,6,-12,2,4,-48,19
1523178328639642,-30,-2,-4,-1,-4,-14,-11,-37
1523178328639642,-21,-3,11,17,0,0,-11,6
1523178328661048,-56,-9,-6,-10,-2,-3,16,-47
1523178328661048,-8,-22,10,6,-3,-1,7,30
1523178328661666,18,-1,-5,8,1,1,22,-29
1523178328661666,-22,2,4,-6,-1,1,-11,11
1523178328684173,-1,-5,13,1,-1,3,26,-15
1523178328684173,15,13,-26,7,0,4,15,23
1523178328684730,15,-11,-1,-20,-5,-7,-17,0
1523178328684730,19,6,-14,8,-1,-2,48,14
1523178328697769,26,7,3,-6,0,5,16,24
1523178328697769,81,5,14,0,1,2,-10,24
1523178328698765,-19,-6,-22,4,-2,-1,-24,19
1523178328698765,-20,2,-3,-1,1,-5,-2,-16
1523178328721207,30,-5,-3,6,0,4,-18,5
1523178328721207,3,5,0,-3,0,-4,-9,2
1523178328721826,37,5,3,9,-3,-6,15,-1
1523178328721826,-12,-11,-9,-36,-6,-13,-50,-25
1523178328743278,-44,-1,-1,14,-3,-8,-3,-5
1523178328743278,-49,-9,13,6,0,15,49,-30
1523178328751090,34,4,4,-1,-4,-2,-30,-67
1523178328751090,-63,0,3,29,2,7,42,3
1523178328766986,27,-1,-24,-48,-2,1,-17,8
1523178328766986,-3,-4,-2,-7,-2,-4,15,-13
1523178328766986,-10,-15,30,23,1,-2,7,38
1523178328766986,9,-6,-4,-2,-3,-3,-25,-4
1523178328780983,12,7,0,4,0,-2,15,7
1523178328780983,3,3,-7,-12,1,-7,-43,-7
1523178328780983,87,6,-10,-13,-3,2,-12,4
1523178328780983,98,0,10,12,3,18,16,63
1523178328804045,41,6,8,15,-2,-1,-14,34
1523178328804045,-5,0,10,16,-3,-11,-61,-73
1523178328804045,-18,-3,-44,-43,-2,0,18,-5
1523178328804045,-4,2,6,5,-2,-8,-33,-16
1523178328818499,-23,2,-3,-3,-2,5,25,-15
1523178328818499,-1,-12,-7,-12,-4,-2,-4,17
1523178328819085,-5,9,9,28,3,0,7,11
1523178328819085,-13,-7,-3,-7,-1,3,35,-34
1523178328841529,-38,-3,-1,3,0,0,42,-6
1523178328841529,-6,1,-14,-11,1,0,17,37
1523178328841529,-24,5,6,9,0,-5,-21,-10
1523178328841529,-13,-9,-2,-25,1,3,-9,4
1523178328864203,-1,1,-8,13,-1,1,-50,-1
1523178328864203,5,10,20,-2,-1,1,49,23
1523178328864203,34,1,-7,2,1,7,8,8
1523178328864203,23,4,3,7,0,-1,24,-1
1523178328877540,2,7,-6,0,-3,-22,-67,5
1523178328877540,18,3,-5,-35,2,18,36,21
1523178328886301,11,5,13,25,-1,-7,-10,-2
1523178328886301,4,4,13,-2,0,-6,26,-9
1523178328900654,-12,-5,-26,-25,0,-6,-62,-24
1523178328900654,5,5,21,33,-5,11,59,21
1523178328901302,-52,-6,-18,-35,1,-1,9,-9
1523178328901302,38,2,-1,-9,-3,2,-10,5
1523178328924629,-9,-3,7,7,1,0,38,3
1523178328924629,6,-6,24,15,3,-4,-40,-6
1523178328924629,-16,-2,-17,-18,-2,-1,-2,-2
1523178328924629,-31,-4,-4,12,-4,-17,-56,-15
1523178328937636,33,-4,5,-4,1,10,62,8
1523178328937636,-28,-4,-5,19,3,3,-54,9
1523178328946427,26,12,26,-13,-2,0,-8,14
1523178328946427,5,0,-15,-8,-2,-8,19,7
1523178328960785,9,-24,5,-2,-1,4,-4,-19
1523178328960785,-10,0,-9,-21,-3,-11,-25,-27
1523178328961466,55,2,14,48,1,-16,-28,38
1523178328961466,-103,-1,-16,-29,0,15,35,-23
1523178328984526,21,3,-4,-3,-2,-12,-1,33
1523178328984526,1,-4,-2,9,-6,-5,-20,-19
1523178328984526,-15,-5,-2,-2,-2,-3,-17,-4
1523178328984526,16,1,1,1,0,-1,3,27
1523178328997562,-20,5,17,11,-1,-1,36,-12
1523178328997562,14,0,-14,11,-2,-2,-2,18
1523178329005895,-8,-4,-11,-15,-5,-2,-19,-4
1523178329005895,8,3,6,3,-3,3,36,-1
1523178329020856,-16,5,9,33,7,17,12,-9
1523178329020856,22,-26,-8,-53,-1,6,35,7
1523178329021626,-32,-3,-12,-1,-6,-4,-3,-19
1523178329021626,40,2,9,-1,1,-7,-15,16
1523178329043991,-13,10,7,20,-6,-8,-45,-21
1523178329043991,12,-2,5,20,5,2,-41,4
1523178329044688,-74,-12,1,11,3,14,108,20
1523178329044688,21,-5,-19,-35,-2,-11,-47,-7
1523178329058024,-40,-7,-3,10,-8,-6,3,-21
1523178329058024,-6,9,0,-5,-4,-10,-30,-33
1523178329065740,10,1,-12,28,4,10,4,15
1523178329065740,-6,-12,19,-31,-5,-3,0,-25
1523178329080781,-13,-6,-11,-10,3,1,-22,9
1523178329080781,18,10,3,7,-1,-5,8,0
1523178329081783,-17,-12,20,-7,-2,-7,-22,-1
1523178329081783,13,-1,-10,36,3,2,-80,-58
1523178329103843,14,-4,3,-26,0,10,27,8
1523178329103843,-31,-23,4,-5,-2,-6,29,12
1523178329104845,69,19,-8,1,0,0,11,-14
1523178329104845,-65,-1,6,22,-4,-2,-6,-4
1523178329118136,25,-9,-11,-27,0,-2,14,3
1523178329118136,3,14,0,14,1,2,-21,7
1523178329126211,-15,-4,-11,-21,-1,0,-35,-38
1523178329126211,-6,-6,0,-4,-3,-8,56,23
1523178329141187,1,4,4,7,2,4,-80,-12
1523178329141187,-5,2,-5,4,3,9,80,20
1523178329141946,-2,-4,0,-8,-6,-2,-1,27
1523178329141946,4,2,14,23,-2,2,37,1
1523178329164001,14,0,3,1,1,-1,9,14
1523178329164001,30,-1,-14,-13,-5,-3,-4,21
1523178329165003,4,-1,0,1,4,8,8,31
1523178329165003,10,-4,-14,-31,-7,-5,-16,3
1523178329177037,17,-3,-2,-6,-2,-5,5,-3
1523178329177037,102,-9,-9,-6,-2,-1,37,1
1523178329186359,69,12,-6,20,-1,-4,-27,10
1523178329186359,-5,2,9,17,5,12,17,9
1523178329201383,1,-2,-8,-13,-4,-3,-10,41
1523178329201383,-11,5,-5,-4,-4,-23,-22,-27
1523178329201383,12,15,16,7,4,23,28,12
1523178329201383,1,-11,-6,4,1,1,-5,6
1523178329224478,17,-4,-8,0,-2,-5,-36,17
1523178329224478,-10,14,-1,3,1,-7,17,-56
1523178329224478,-43,-10,-5,-49,-4,-9,9,-15
1523178329224478,-2,7,3,27,3,0,-21,5
1523178329254419,8,0,5,-3,-4,3,28,4
1523178329254419,-39,-3,5,0,1,-4,-48,-19
1523178329254419,33,-13,-27,-16,-3,-2,-7,-5
1523178329254419,16,1,-10,-4,0,4,15,4
1523178329261296,68,1,-3,8,-2,-5,8,16
1523178329261296,-8,1,-4,-21,-3,2,-24,-9
1523178329261296,6,-8,5,-1,-1,-1,29,-21
1523178329261296,3,2,-2,1,-3,-9,-46,1
1523178329284440,28,5,4,12,1,2,62,29
1523178329284440,-31,-9,-3,7,-1,1,-71,11
1523178329284440,-26,-5,24,-4,1,7,40,-7
1523178329284440,54,1,-17,-20,-4,-17,38,3
1523178329306673,-29,3,11,19,4,6,-9,-17
1523178329306673,-28,-3,5,5,-1,-6,-2,-18
1523178329307383,-43,-9,-5,-3,-5,-6,9,-6
1523178329307383,-30,-3,-10,6,4,2,-2,0
1523178329320416,20,9,-12,-18,-6,-7,-40,-26
1523178329320416,52,5,4,-3,-2,9,93,37
1523178329321418,-100,-7,5,22,-1,-10,-64,-18
1523178329321418,-1,-4,0,-8,0,6,-80,-32
1523178329343778,-8,-2,-2,-2,2,7,28,9
1523178329343778,-17,-8,-5,2,-1,-5,-24,4
1523178329343778,27,6,14,6,-1,-12,-65,-5
1523178329343778,55,10,-11,-12,2,19,75,13
1523178329366868,-64,-2,-1,-11,-3,-9,-4,-12
1523178329366868,16,-1,-5,17,-1,7,-2,-11
1523178329367545,33,0,5,-13,1,-5,-9,2
1523178329367545,-39,-5,-1,13,-2,-5,-40,-14
1523178329380578,-19,-1,4,0,-3,-1,47,-4
1523178329380578,16,-5,7,37,7,12,28,8
1523178329388922,-6,-3,-24,-56,-6,-6,-51,-18
1523178329388922,10,3,11,17,-3,2,48,-3
1523178329403639,28,-2,2,0,-2,-4,-21,-30
1523178329403639,-110,4,-8,-10,-4,-11,-10,-29
1523178329404642,74,11,3,20,5,17,99,28
1523178329404642,65,-4,-2,-15,-4,-7,-18,-6
1523178329427033,-7,-6,1,4,-1,-14,-43,-15
1523178329427033,40,7,-7,-16,-9,-9,-58,39
1523178329427033,-24,1,-7,7,1,4,34,-6
1523178329427033,-41,-2,2,-6,-3,-5,16,16
1523178329441027,-31,2,4,12,-3,-9,-31,-44
1523178329441027,-8,-4,-7,-36,-1,2,-23,-38
1523178329441741,18,-4,-3,10,-2,3,0,42
1523178329441741,-7,9,4,2,4,-5,-39,-24
1523178329463834,74,-4,-8,4,0,0,54,16
1523178329463834,-11,-4,-10,-27,-5,-3,-8,5
1523178329464802,13,-2,8,30,-1,0,-38,-8
1523178329464802,-28,-5,-7,-32,-2,-2,3,-1
1523178329486162,-13,-4,7,12,2,2,34,13
1523178329486162,-70,-3,-14,-4,5,21,31,7
1523178329486859,11,-10,22,18,1,-8,11,12
1523178329486859,-5,-3,-23,-9,-6,3,22,-1
1523178329501197,-14,-3,-2,-15,0,1,-28,-12
1523178329501197,59,8,-1,12,-5,-10,9,19
1523178329501197,-36,-5,-5,-9,-1,-5,-10,-46
1523178329501197,-17,2,14,12,0,-14,-50,5
1523178329523959,-1,-6,-3,-7,3,10,43,25
1523178329523959,62,3,-1,1,-1,0,19,-30
1523178329524961,-12,1,-5,-2,-1,-2,-7,-47
1523178329524961,6,0,2,-16,-3,-16,-34,6
1523178329546020,11,5,-12,24,-5,3,-18,-2
1523178329546020,-20,-1,0,4,2,-2,-27,35
1523178329547021,6,-2,-10,-7,-4,-12,-26,-16
1523178329547021,25,9,7,7,0,9,72,17
1523178329561361,-18,11,7,-14,2,4,-16,4
1523178329561361,-6,-4,8,41,1,5,7,-21
1523178329561361,-12,-3,-42,-54,-10,-7,-3,4
1523178329561361,5,-6,19,27,4,1,-55,5
1523178329583405,-18,-22,1,0,0,4,81,6
1523178329583405,18,5,9,4,3,17,53,28
1523178329584118,89,7,8,19,2,0,-2,15
1523178329584118,-39,-15,-7,-5,-2,9,22,-1
1523178329606489,12,8,12,-12,-1,1,9,10
1523178329606489,11,-12,-8,16,-3,-12,-14,-1
1523178329607182,-27,1,13,18,3,2,-25,7
1523178329607182,1,-6,3,-31,-1,2,53,9
1523178329620215,15,-4,-19,11,-5,-10,-49,-17
1523178329620215,33,4,13,-20,-1,-15,9,-9
1523178329621217,1,-1,-42,0,-3,8,42,35
1523178329621217,30,4,3,7,1,-2,-65,-10
1523178329643596,-86,-6,-6,-15,-3,-4,6,-19
1523178329643596,0,2,-6,-13,-4,-2,-5,-11
1523178329644281,5,9,6,20,2,-1,12,2
1523178329644281,26,-10,-1,-25,-3,0,-33,-5
1523178329666449,20,6,-6,-3,1,3,4,1
1523178329666449,-43,-10,-6,-11,-3,-7,-54,17
1523178329667339,-3,0,25,9,-3,-2,30,-2
1523178329667339,18,3,-7,18,-3,-4,20,-8
1523178329680375,-12,5,4,-4,3,-5,-61,17
1523178329680375,7,3,-15,-3,0,5,57,-2
1523178329681376,-22,-8,7,-30,-6,0,-54,-3
1523178329681376,27,5,-3,2,2,3,27,19
1523178329703437,1,0,18,7,2,-1,-26,7
1523178329703437,1,-1,-2,4,1,-2,25,27
1523178329703437,30,0,8,3,-2,-5,-5,48
1523178329703437,-47,-1,-19,-6,1,8,7,-68
1523178329726775,6,-14,-15,-12,-3,4,-15,0
1523178329726775,-3,7,19,38,-1,-6,-20,-18
1523178329727504,-32,-8,5,-31,-3,-6,-5,-5
1523178329727504,101,-13,20,9,-3,-18,-104,9
1523178329740839,18,4,-14,10,5,13,36,5
1523178329740839,-17,-16,-8,-32,-4,-2,-12,-17
1523178329741541,4,1,13,15,3,2,5,-17
1523178329741541,-24,4,-10,5,-7,-13,-9,-20
1523178329763594,11,-2,6,-2,-3,-4,15,-3
1523178329763594,27,-4,-8,-7,-5,-12,-42,-5
1523178329763594,-48,-1,2,3,4,3,-34,-10
1523178329763594,-39,-9,-2,-2,-3,3,21,4
1523178329786658,28,8,2,0,-1,-2,-61,34
1523178329786658,-41,-4,7,1,-6,-6,6,-62
1523178329786658,14,-1,-11,0,-1,-3,-12,-4
1523178329786658,-15,6,1,13,3,9,85,7
1523178329808979,49,3,-2,-12,-6,-12,-28,-73
1523178329808979,8,10,-20,-14,2,12,17,24
1523178329809721,-35,-25,9,-8,-3,-4,-1,-11
1523178329809721,22,6,9,25,-1,-2,27,1
1523178329823877,-64,-4,-8,-12,-1,-10,10,-22
1523178329823877,6,-1,5,0,-1,2,-12,12
1523178329823877,18,6,-4,4,2,1,10,3
1523178329823877,-17,5,-6,-11,-3,-2,20,43
1523178329846835,13,-3,-1,-4,-3,-2,-1,11
1523178329846835,30,-1,9,5,-1,-1,-50,6
1523178329846835,10,9,-12,0,-1,-5,31,8
1523178329846835,-4,-5,5,4,0,6,3,2
1523178329860106,6,-4,1,-3,-5,-3,-43,10
1523178329860106,-7,0,-5,-10,2,-3,28,10
1523178329868119,40,1,-3,22,3,2,18,-15
1523178329868119,-101,-12,-18,-33,-1,10,-2,3
1523178329883177,5,-2,-6,-3,-3,3,77,-67
1523178329883177,14,-21,11,0,2,10,-7,11
1523178329883916,1,2,9,4,2,-2,-6,14
1523178329883916,-18,1,-1,24,-2,-2,-30,-32
1523178329907068,-17,-2,0,-28,-5,-6,42,21
1523178329907068,-48,-3,-16,-7,-1,-8,-58,-18
1523178329907068,16,14,6,5,0,5,45,3
1523178329907068,54,-6,0,2,-1,-2,-39,56
1523178329920317,-22,-6,4,2,1,-4,-75,-10
1523178329920317,34,9,4,4,-1,-3,19,1
1523178329928291,-10,-7,-8,-1,-1,-2,-5,1
1523178329928291,119,15,4,-1,-2,-2,-3,12
1523178329943352,-39,-3,1,-2,-4,-3,-18,17
1523178329943352,87,7,-12,-4,0,2,52,7
1523178329944079,1,-3,4,1,-4,-3,8,-5
1523178329944079,-12,1,0,-3,0,-20,-74,-43
1523178329966409,5,-1,-4,3,1,20,37,0
1523178329966409,-65,-26,3,-1,3,16,51,27
1523178329967146,14,2,-5,-8,-3,-8,1,9
1523178329967146,-22,3,13,3,-1,-4,23,-16
1523178329980170,0,-3,-11,0,-1,0,24,19
1523178329980170,3,9,1,4,-3,0,-28,0
1523178329988490,-61,-2,2,-3,1,8,-26,11
1523178329988490,-20,-8,-9,-25,0,7,33,6
1523178330003556,22,0,19,39,2,-7,-30,8
1523178330003556,32,11,-2,-7,0,1,40,-33
1523178330004237,-42,1,-5,5,-1,-6,-36,-6
1523178330004237,87,15,-21,-8,1,6,26,4
1523178330026545,5,-4,1,-21,-5,-11,3,-13
1523178330026545,27,5,2,8,-2,-11,6,9
1523178330027301,25,2,-2,-6,-5,-8,-69,-64
1523178330027301,-37,-24,11,13,6,9,75,16
1523178330040635,6,2,-4,0,1,0,-27,13
1523178330040635,-45,-4,-5,-5,-4,-5,-6,-9
1523178330048353,27,-4,-8,-16,-3,-5,-17,10
1523178330048353,-36,4,16,5,-3,-9,22,-9
1523178330063393,66,1,-17,10,-1,5,25,21
1523178330063393,16,13,-7,0,1,-4,-22,12
1523178330063393,-24,1,-3,-2,4,4,24,8
1523178330063393,-9,-11,5,2,0,19,-10,3
1523178330086455,32,8,6,3,2,1,63,-29
1523178330086455,25,3,1,8,-2,13,-26,8
1523178330087457,-26,-3,-7,-7,-3,-2,10,-15
1523178330087457,3,13,0,-3,-2,-4,-20,-2
1523178330100703,-7,4,4,-2,-1,0,-19,5
1523178330100703,-7,-2,0,2,-2,-2,48,10
1523178330108805,9,13,-7,-7,-7,-7,-18,-13
1523178330108805,3,-3,-4,-1,0,3,12,0
1523178330124556,-13,2,-4,-18,2,5,-17,7
1523178330124556,-35,-6,20,18,-1,-13,-36,-31
1523178330125558,-33,-3,-1,4,1,7,26,-26
1523178330125558,-10,2,-10,-4,-3,-7,-31,3
1523178330146614,27,1,-7,-4,-1,0,24,8
1523178330146614,-17,-1,3,-9,0,3,1,16
1523178330146614,67,-4,3,10,-1,2,31,8
1523178330146614,-17,-10,-8,-11,-4,-1,-13,-5
1523178330168939,47,-6,10,13,-1,-8,-20,-28
1523178330168939,12,3,-18,-4,4,7,-19,1
1523178330169677,31,6,6,5,1,6,54,16
1523178330169677,1,-2,-7,-10,-3,-10,7,5
1523178330182950,-20,-6,0,1,1,4,-71,20
1523178330182950,68,1,0,-7,-2,0,-7,2
1523178330183716,-58,-14,-4,0,-1,0,0,-52
1523178330183716,0,14,-20,-1,-2,-2,-41,-18
1523178330207016,14,-4,22,19,0,-5,12,-3
1523178330207016,-53,-1,-4,-6,-5,-6,-22,-6
1523178330207016,6,0,-24,-8,-6,-1,-23,3
1523178330207016,-14,5,7,-5,1,-10,-71,11
1523178330228835,-38,-9,-10,-6,-2,11,53,-7
1523178330228835,29,3,15,6,3,-1,14,1
1523178330229836,97,7,5,-2,-2,0,5,31
1523178330229836,-51,-11,0,1,-5,-9,8,-23
1523178330243128,8,-19,12,-1,-2,-3,-22,18
1523178330243128,19,-8,4,3,-1,-8,-44,-18
1523178330243874,3,3,12,11,2,3,23,-16
1523178330243874,-27,-8,5,2,-3,-5,47,8
1523178330266956,1,7,-2,-4,0,8,13,3
1523178330266956,-22,0,-11,-16,-4,-9,13,11
1523178330266956,-53,-13,10,2,-1,-6,-52,3
1523178330266956,51,4,-6,4,0,10,-53,21
1523178330289269,-18,4,-7,-9,-4,-16,18,-15
1523178330289269,-15,-9,-6,-2,-2,-2,-13,-23
1523178330289997,24,9,-5,-4,1,7,-21,46
1523178330289997,1,-17,7,5,0,1,26,-9
1523178330303030,-13,4,-5,-7,-2,2,4,6
1523178330303030,35,6,5,10,0,-3,22,20
1523178330304033,-76,-7,-1,18,-6,-8,-30,-52
1523178330304033,37,4,-14,-41,-4,3,0,17
1523178330326337,-73,-8,-28,-43,2,-5,6,-14
1523178330326337,-3,-1,23,41,-4,5,69,5
1523178330327095,24,1,1,4,1,1,2,16
1523178330327095,0,5,1,17,-1,-8,-17,-20
1523178330349438,-16,3,-5,0,-1,-8,-1,7
1523178330349438,6,1,-11,-36,-3,2,-31,-2
1523178330349438,20,1,-2,-7,1,-2,3,30
1523178330349438,-9,-6,13,7,-1,-6,17,6
1523178330363190,6,8,-3,6,1,-1,-33,4
1523178330363190,7,-2,-8,-2,-3,-14,-55,-41
1523178330364193,7,-5,5,7,0,10,3,24
1523178330364193,29,-2,4,1,1,-4,28,-14
1523178330386555,79,12,-1,4,0,7,-22,-12
1523178330386555,26,-8,-1,14,2,1,-4,26
1523178330387257,-66,-7,-11,-32,-1,-12,-21,-22
1523178330387257,-40,5,2,12,-1,8,30,13
1523178330409528,75,3,9,13,-5,1,-32,40
1523178330409528,-16,-3,-34,-36,1,6,22,-23
1523178330409528,33,9,20,14,-3,-5,-13,-25
1523178330409528,12,-1,-17,-5,3,3,26,9
1523178330424592,-43,-10,-3,-21,-7,-7,0,-15
1523178330424592,-46,-2,18,16,-3,-9,-31,3
1523178330431370,7,-6,-6,-14,-4,1,55,35
1523178330431370,68,1,-3,19,3,-1,-14,11
1523178330446411,-55,-4,3,-2,2,0,-14,-11
1523178330446411,-4,-1,-20,-19,-1,-1,42,24
1523178330447414,114,7,7,18,1,7,32,-22
1523178330447414,-48,-1,-8,30,-3,-2,-5,10
1523178330468734,5,-23,-34,-80,-7,1,69,17
1523178330468734,4,0,6,12,1,2,0,16
1523178330470475,4,5,-1,6,-1,-10,-6,-33
1523178330470475,3,2,9,1,-1,6,-39,3
1523178330482773,-10,2,2,7,3,-5,10,4
1523178330482773,-25,-7,7,24,1,4,-11,-23
1523178330491534,3,-5,-8,-18,1,11,56,38
1523178330491534,-10,5,-4,-14,-6,-6,-19,-33
1523178330506847,-40,-12,7,18,4,-4,-21,-12
1523178330506847,10,5,-2,1,3,5,60,-12
1523178330507572,-10,4,19,21,2,-3,-26,28
1523178330507572,-93,-6,-17,-11,-3,-1,21,-37
1523178330528631,49,4,-2,-7,-7,-12,-101,-6
1523178330528631,-33,2,7,-6,-3,-9,-11,-20
1523178330530633,15,-6,-10,-14,-2,4,26,-8
1523178330530633,27,-2,20,15,4,11,93,28
1523178330542942,-19,2,-4,16,-2,6,66,-33
1523178330542942,-21,-9,-11,-16,-3,-6,-32,4
1523178330551691,-23,-2,0,13,-1,-5,-47,-1
1523178330551691,50,2,6,-20,0,1,21,14
1523178330567009,9,5,9,27,-1,-5,4,-19
1523178330567009,29,-4,1,-19,-3,1,-21,29
1523178330567734,-12,-8,23,29,6,2,14,1
1523178330567734,20,3,-8,-23,-1,-1,-33,-9
1523178330589036,-7,2,-3,10,-2,-5,-40,8
1523178330589036,16,7,1,11,1,1,7,6
1523178330590797,-14,-4,-12,-9,-3,-8,-37,-31
1523178330590797,-2,-2,6,8,1,-3,-42,-3
1523178330603039,10,-33,36,47,3,3,1,3
1523178330603039,5,2,-20,-25,-5,-3,-7,-15
1523178330611850,-6,-4,2,4,1,-11,-42,-10
1523178330611850,-7,-4,-8,-3,2,9,12,31
1523178330627046,74,17,-2,-1,0,9,37,1
1523178330627046,21,-3,-1,3,-1,3,10,20
1523178330627897,62,1,-11,-18,-2,3,7,-2
1523178330627897,-19,-3,-4,-10,-7,-13,-24,-3
1523178330649271,-16,2,-1,-10,1,1,19,7
1523178330649271,-24,1,11,10,-1,-3,-14,-58
1523178330650957,-17,4,-14,-15,-4,-3,-22,49
1523178330650957,25,1,6,-2,-2,-3,3,-24
1523178330661988,-33,7,-19,-1,0,-4,26,36
1523178330661988,14,6,8,7,1,4,6,-16
1523178330671304,-89,-9,-8,-6,-5,-10,-18,-20
1523178330671304,-33,-2,-5,0,-1,-2,17,-1
1523178330686049,-4,13,-3,-5,0,-10,-62,-11
1523178330686049,2,-3,-13,-9,-2,-3,-5,-16
1523178330688053,-6,-5,3,5,-3,-6,-4,-12
1523178330688053,14,8,9,8,2,0,-28,0
1523178330708382,25,-1,-6,-6,-1,7,53,5
1523178330708382,-81,6,14,-6,1,1,-17,15
1523178330716382,28,-8,-27,-5,-6,-11,-49,-24
1523178330716382,46,0,-1,-1,-4,-5,-14,-18
1523178330723163,7,1,7,5,2,6,27,-15
1523178330723163,2,-1,9,-4,-2,-2,-23,6
1523178330731168,30,3,-6,-13,-2,4,17,39
1523178330731168,-24,-6,10,8,0,-2,-4,-6
1523178330746205,38,2,-6,-9,-3,0,8,22
1523178330746205,-27,-3,0,2,0,0,24,-9
1523178330748214,-9,4,0,-8,1,-3,25,-23
1523178330748214,31,4,3,1,3,24,74,17
1523178330769544,13,-4,3,2,-2,-4,-11,-11
1523178330769544,27,-1,-8,-7,-1,-1,28,33
1523178330770273,-8,-3,2,6,2,7,62,-4
1523178330770273,4,1,-7,-8,-7,-10,-20,-6
1523178330784312,45,-5,-4,1,-1,-6,-49,-18
1523178330784312,18,0,2,2,-1,5,42,-4
1523178330791468,35,6,2,-3,-1,-4,-10,-5
1523178330791468,39,-7,-30,-40,-3,-5,6,22
1523178330806656,-49,-3,21,35,-2,-5,-43,4
1523178330806656,52,-3,-13,-8,-4,-12,-14,7
1523178330807373,33,8,7,0,2,8,62,12
1523178330807373,-30,-8,10,0,-2,-4,-80,-27
1523178330828430,-17,-9,-11,-17,-5,-1,7,13
1523178330828430,1,1,12,6,4,2,23,5
1523178330830430,0,-3,6,2,1,8,-16,6
1523178330830430,-18,-5,-2,4,-4,-3,16,-33
1523178330842728,-26,9,-4,-7,-1,12,32,6
1523178330842728,11,-2,9,3,-1,4,-40,14
1523178330851487,-24,-16,0,1,1,2,-7,-4
1523178330851487,69,5,-2,7,1,-6,-4,4
1523178330866802,-1,-2,-1,-14,-2,-3,-11,-1
1523178330866802,3,-1,-4,5,-1,-7,-14,-13
1523178330867531,31,0,-13,-5,-3,-3,7,26
1523178330867531,-3,2,6,8,0,-4,-15,0
1523178330888858,-9,-9,-3,-6,-2,-8,-19,-22
1523178330888858,44,1,-11,-8,0,2,-17,-12
1523178330890593,26,4,-1,-7,-3,7,10,44
1523178330890593,-43,-1,5,11,1,-5,8,-37
1523178330902624,13,6,-12,-38,-2,-1,-44,4
1523178330902624,-32,-22,-5,5,-6,-4,-28,-16
1523178330918668,-26,2,9,18,3,9,33,4
1523178330918668,33,8,-3,-10,-3,4,4,30
1523178330926971,-22,1,12,12,0,0,-13,-2
1523178330926971,1,0,-18,-14,-3,-4,-25,6
1523178330927690,15,6,-10,-15,-6,-9,3,-15
1523178330927690,68,-3,18,15,5,6,30,2
1523178330948748,-6,5,-7,-1,2,1,26,6
1523178330948748,1,-1,12,4,-3,-9,9,6
1523178330950750,-19,-4,-11,-4,-3,0,-25,-23
1523178330950750,-10,7,-10,-3,-2,-2,13,5
1523178330962781,59,10,7,10,2,5,-16,-4
1523178330962781,21,4,-2,-3,2,8,53,32
1523178330971809,-39,-2,3,-1,1,-7,-18,25
1523178330971809,-2,3,-5,-9,-4,-1,-14,-2
1523178330985845,-10,-6,-8,3,-2,-3,10,0
1523178330985845,-34,0,-3,6,0,-3,-53,-11
1523178330987851,16,2,0,-8,-1,-5,11,-15
1523178330987851,-19,-7,2,4,1,-2,-4,17
1523178331009164,-54,-10,-4,0,-3,1,5,-7
1523178331009164,11,-1,-4,-3,-2,-5,0,-32
1523178331010924,59,-1,-5,2,-1,-5,-6,-4
1523178331010924,-40,-13,4,-13,-4,-7,-9,-27
1523178331023101,-7,-4,6,23,0,9,-28,12
1523178331023101,37,-4,-4,-5,-3,-4,7,-23
1523178331030963,9,2,11,-3,0,2,-35,4
1523178331030963,-37,-13,-14,5,0,-2,9,-5
1523178331046002,14,-1,-6,-13,-1,-1,28,-34
1523178331046002,-3,2,2,2,1,-3,-30,-2
1523178331048009,-37,-5,8,5,4,17,78,16
1523178331048009,6,12,28,29,2,-1,-26,19
1523178331069067,-6,-14,-78,-84,-18,-13,-14,-26
1523178331069067,3,1,19,43,5,-3,22,11
1523178331071121,-5,4,-20,3,-1,-1,-43,-19
1523178331071121,-13,-1,9,5,-1,10,-5,20
1523178331093384,-21,5,9,19,4,3,89,7
1523178331093384,22,12,-11,-25,-3,7,20,-6
1523178331094132,-12,-2,4,-6,-2,-7,-16,-9
1523178331094132,47,-2,-12,2,0,0,21,0
1523178331106444,-15,1,20,11,3,-1,8,-1
1523178331106444,4,-2,-6,-12,-3,4,-49,8
1523178331108171,22,-1,8,8,-2,-3,13,-3
1523178331108171,7,-4,-14,-14,-3,-5,20,-23
1523178331129226,25,2,3,6,-1,-8,-17,8
1523178331129226,-5,-2,9,3,4,4,-38,-3
1523178331130230,-12,-8,-18,-9,-2,-2,-2,-29
1523178331130230,14,2,-4,-7,-4,-4,-15,-8
1523178331151283,29,2,9,7,-3,-8,-15,62
1523178331151283,-15,-1,2,4,-1,-6,37,-10
1523178331153289,-49,-13,9,32,2,3,-20,-7
1523178331153289,-10,-6,-38,-105,-4,-7,-34,5
1523178331166322,77,3,21,75,1,-2,18,-10
1523178331166322,27,9,-21,-18,0,18,99,27
1523178331168327,66,4,3,-20,-4,-6,-17,11
1523178331168327,-82,-6,-3,10,2,6,-32,5
1523178331188482,-7,3,7,-7,-1,-7,-5,-28
1523178331188482,-22,-6,2,-9,-1,-10,-59,-11
1523178331196404,-35,-1,-5,-2,1,6,26,-16
1523178331196404,58,8,12,22,3,2,16,8
1523178331211442,-28,-1,1,-21,-2,6,13,0
1523178331211442,-42,-11,6,37,0,-4,-2,-5
1523178331212444,26,1,-12,-57,-8,-12,-25,-41
1523178331212444,-11,0,5,23,-2,-6,38,-12
1523178331226747,-27,-7,4,9,-2,10,-17,12
1523178331226747,32,4,-3,-7,-1,-3,43,12
1523178331228526,-19,-2,-1,10,-3,-3,-5,0
1523178331228526,-13,-5,0,6,-2,-4,-1,-8
1523178331248717,27,3,-5,-9,3,1,27,23
1523178331248717,15,-4,0,-4,-3,-6,-22,-15
1523178331250546,57,6,4,1,0,-8,-42,13
1523178331250546,-41,-6,4,11,0,2,19,-12
1523178331271657,12,-4,-8,-6,5,10,37,28
1523178331271657,-13,0,11,6,-3,-5,-20,-11
1523178331272606,-13,-5,0,8,0,-3,22,-12
1523178331272606,52,5,-4,4,0,-9,-41,13
1523178331285877,-64,0,11,-3,2,13,15,-53
1523178331285877,34,-2,-10,-9,1,3,18,33
1523178331292912,-32,1,1,3,2,1,17,-16
1523178331292912,23,-16,22,15,-2,-2,-17,5
1523178331308990,-37,1,-14,-25,-4,-3,25,11
1523178331308990,11,-6,17,-3,0,-6,-20,-7
1523178331310714,-14,-1,-27,16,-1,5,-15,18
1523178331310714,-18,-1,-15,-17,-6,-5,8,-4
1523178331331925,45,-4,6,7,-2,-9,-65,5
1523178331331925,-23,-1,-8,-11,-2,0,31,11
1523178331332768,82,4,21,-3,1,0,10,5
1523178331332768,-48,-4,-31,-3,-2,-3,-37,5
1523178331345801,39,3,-7,-10,-4,5,24,-3
1523178331345801,2,3,-1,2,-1,0,-13,-5
1523178331352845,-12,2,1,-2,-6,-13,-9,17
1523178331352845,4,-16,8,-13,2,14,7,32
1523178331368868,30,4,6,13,-1,-14,-65,-20
1523178331368868,-19,-1,-9,-9,0,2,14,36
1523178331369869,-7,1,4,0,-1,6,44,-11
1523178331369869,22,5,4,11,-2,-1,23,-2
1523178331391972,-34,-1,9,-6,-1,-4,-15,-4
1523178331391972,-5,-5,-9,-6,-6,-8,57,-15
1523178331392928,-79,-5,1,4,-2,-2,-44,-6
1523178331392928,21,5,1,4,0,-7,-23,-7
1523178331406241,36,-4,-9,6,3,4,47,14
1523178331406241,-91,-9,2,-10,-1,-1,-24,8
1523178331412982,1,-2,-17,-7,-2,6,20,7
1523178331412982,32,3,20,11,2,4,-4,-14
1523178331429022,-27,3,4,-1,-1,-12,-39,0
1523178331429022,18,2,-23,-1,-1,-2,-21,-24
1523178331430031,-15,-5,-11,-4,-2,1,33,-16
1523178331430031,-16,2,-9,-17,-1,-5,-30,7
1523178331451369,-13,-9,-1,-15,-2,1,-10,-6
1523178331451369,-12,-6,2,7,3,12,14,-11
1523178331453090,23,-3,4,-7,-3,-8,-55,10
1523178331453090,5,8,0,12,0,2,12,15
1523178331466406,1,-5,-1,2,-5,-5,21,-8
1523178331466406,32,1,-1,-6,-3,-9,-48,1
1523178331473147,-6,13,1,-3,1,-6,-13,-4
1523178331473147,37,0,-7,-1,-1,5,21,-14
1523178331489466,-39,-8,-6,-6,-5,-7,-24,30
1523178331489466,17,1,-1,6,1,-7,60,-31
1523178331490187,87,4,5,-13,0,7,-64,12
1523178331490187,-48,-10,7,15,-4,-8,-18,-21
1523178331511252,22,2,3,6,-3,-3,-28,-19
1523178331511252,40,3,2,0,0,-7,-13,8
1523178331513246,-11,-4,-11,-2,1,4,100,9
1523178331513246,-2,8,-4,0,2,-4,0,-12
1523178331526329,17,-5,14,-4,-1,6,-5,6
1523178331526329,6,-4,-27,3,-1,4,-54,19
1523178331532535,1,8,-6,-4,-3,-6,-11,-10
1523178331532535,-30,-3,-1,-6,-2,1,36,9
1523178331549522,-8,-1,-13,-22,-3,-10,-65,-11
1523178331549522,-28,0,26,16,3,16,14,4
1523178331550348,30,2,-3,1,1,-2,4,-5
1523178331550348,-39,-7,0,-7,-5,-3,2,-21
1523178331571620,16,9,6,11,4,2,5,14
1523178331571620,9,1,-4,-28,-7,-16,-45,8
1523178331572412,-22,-12,16,38,3,6,-22,8
1523178331572412,5,-1,8,-3,-1,-5,16,6
1523178331585446,44,-11,-7,3,-1,3,-4,-22
1523178331585446,-98,-8,-2,-8,-1,-1,-1,-24
1523178331593711,7,-2,6,-10,-4,-10,-15,4
1523178331593711,3,6,-10,3,0,4,0,21
1523178331608781,23,8,-19,-4,-1,-5,32,-4
1523178331608781,30,-11,23,8,-2,0,12,-8
1523178331610510,-32,-6,-1,-1,1,0,2,-8
1523178331610510,-13,0,-10,2,-1,-17,-46,7
1523178331631823,-15,5,22,13,3,16,6,-20
1523178331631823,22,10,-39,-19,1,-5,13,2
1523178331632565,21,-7,10,20,-4,-2,-49,-6
1523178331632565,25,4,-2,-8,-4,-12,-15,0
1523178331644604,14,-18,25,7,2,3,61,-5
1523178331644604,18,7,14,23,-3,-1,38,4
1523178331653707,-24,-10,-43,-66,-7,-11,-10,-2
1523178331653707,2,0,-4,-7,-1,4,-26,-14
1523178331668949,-76,-4,16,17,1,-5,4,-26
1523178331668949,15,2,-14,28,1,3,-1,-3
1523178331670687,35,-3,1,-19,-1,-6,-4,3
1523178331670687,-77,-10,2,19,1,1,3,-19
1523178331691975,5,4,-17,-32,-6,-8,-9,9
1523178331691975,26,0,13,21,-4,-7,8,20
1523178331692724,-18,-4,5,-14,3,9,47,-79
1523178331692724,77,10,-17,-24,-2,16,67,55
1523178331704984,-9,2,-5,-1,3,3,-23,3
1523178331704984,-27,-2,9,-4,-6,-27,-31,-16
1523178331719927,67,3,20,37,2,5,10,30
1523178331719927,20,8,7,-23,3,4,-53,-13
1523178331728819,3,-2,-12,5,-2,-2,40,7
1523178331728819,-24,-1,-1,-4,-2,-4,-12,-21
1523178331730824,-10,-1,-1,-9,-2,-1,-13,12
1523178331730824,16,-7,11,33,-1,-1,-5,-14
1523178331751116,-2,1,-12,-3,-1,-7,-40,20
1523178331751116,2,7,-33,-62,-3,9,-3,-10
1523178331752886,-24,1,9,46,2,0,0,2
1523178331752886,-3,3,-4,4,-3,1,7,3
1523178331765171,-44,-2,4,-4,-3,-3,-5,-30
1523178331765171,65,-3,-7,-16,0,7,-37,20
1523178331773945,-2,2,-7,-11,-1,3,46,19
1523178331773945,-27,-4,18,26,0,-1,-51,-38
1523178331789259,12,4,-29,-19,-3,-1,73,28
1523178331789259,-11,-2,16,12,0,5,-16,-8
1523178331789992,28,-4,-13,-10,2,0,-31,29
1523178331789992,-18,-10,4,-13,-2,-7,-58,-29
1523178331811048,7,-2,33,37,1,-2,25,8
1523178331811048,-16,-7,-15,-28,1,6,8,-9
1523178331813048,-9,2,16,11,-2,-11,-4,-4
1523178331813048,-2,3,-10,13,4,13,1,5
1523178331825315,-18,-3,16,24,-3,-4,-39,-50
1523178331825315,-26,-7,-18,-14,-1,1,7,-6
1523178331834104,-38,-2,0,4,-2,-6,18,-12
1523178331834104,9,0,-6,-15,-1,-7,20,-7
1523178331849373,-12,-10,-10,-11,0,6,-19,19
1523178331849373,99,7,33,17,4,5,7,-9
1523178331850143,-77,-6,-6,-8,-3,0,30,6
1523178331850143,45,4,-4,-8,-1,-7,-25,21
1523178331871450,29,-4,-18,-12,-2,2,37,9
1523178331871450,-31,-1,4,15,-2,-8,-28,3
1523178331873208,64,3,-1,7,-1,13,18,8
1523178331873208,-52,-7,2,-32,-6,-7,23,23
1523178331885244,-21,-2,-1,30,0,-11,-6,-1
1523178331885244,-23,-3,-18,-14,-3,0,-8,1
1523178331894268,-13,1,3,-2,-2,1,4,54
1523178331894268,-12,-5,-6,3,-4,-4,-1,-35
1523178331909494,11,-13,3,-8,1,-4,1,-25
1523178331909494,-3,0,-7,4,-1,-4,-4,19
1523178331910310,8,-7,2,-3,0,-1,-35,-4
1523178331910310,19,2,-7,3,0,2,25,11
1523178331931622,-26,6,4,-7,-2,-2,8,12
1523178331931622,35,5,7,3,1,6,21,-9
1523178331933364,-20,-3,-5,-5,-3,-16,-14,-12
1523178331933364,3,-1,-1,4,2,19,13,24
1523178331945394,105,8,-6,16,-3,-2,-4,-3
1523178331945394,6,-4,7,-24,-1,-2,-4,5
1523178331954421,-80,-1,-8,4,0,-1,-10,-23
1523178331954421,29,5,-3,-3,3,4,22,-19
1523178331969467,81,3,-2,-2,-3,-1,-7,35
1523178331969467,-17,-3,5,6,-1,-1,5,15
1523178331970468,10,2,-4,4,0,1,-10,-23
1523178331970468,8,-4,13,9,3,5,40,2
1523178331991763,-48,-4,-15,-15,-2,6,-32,-2
1523178331991763,-28,1,-15,-4,0,3,-14,-11
1523178331997535,-15,-1,26,-5,2,3,31,3
1523178331997535,-1,-12,-34,-8,-4,-8,-13,8
1523178332004557,-11,-6,-33,-47,-4,-10,-49,-22
1523178332004557,2,-4,14,29,-1,7,29,9
1523178332013579,11,-2,-6,1,-3,8,31,-28
1523178332013579,-21,3,6,-4,-2,-1,11,5
1523178332028615,7,0,3,-6,-1,-2,-21,0
1523178332028615,-52,-1,-3,-6,-2,-9,-7,-62
1523178332030622,-24,-7,15,7,0,-9,-43,7
1523178332030622,40,3,-2,5,2,7,28,-8
1523178332051886,9,0,-5,-10,-3,0,10,-34
1523178332051886,-49,-6,8,20,-3,-2,13,13
1523178332052681,63,0,1,-5,0,-12,-85,20
1523178332052681,-20,2,1,-8,-5,-7,2,4
1523178332073994,-36,-9,11,8,2,4,-26,5
1523178332073994,35,3,-11,-2,2,3,38,25
1523178332075743,-22,2,-6,-24,-5,-8,-9,-22
1523178332075743,4,-10,9,11,-2,-6,-11,-21
1523178332088057,0,9,1,6,5,13,46,7
1523178332088057,-20,-16,9,-2,-4,-5,53,6
1523178332094792,4,9,-11,8,-3,5,38,-28
1523178332094792,-8,1,-4,-3,0,-10,-3,-8
1523178332111837,-12,0,1,5,-2,-5,5,-17
1523178332111837,28,-11,28,-1,3,4,-13,10
1523178332112839,-63,-12,-34,-9,-5,0,38,-10
1523178332112839,107,-1,-1,-8,-3,3,-5,4
1523178332134115,-37,-7,6,4,1,-8,-5,-17
1523178332134115,46,7,-3,21,0,6,8,21
1523178332135915,36,0,-6,-23,-2,-11,-17,6
1523178332135915,0,0,-2,3,2,0,4,7
1523178332149223,-6,1,23,27,0,3,10,20
1523178332149223,-19,5,-19,-18,-2,-11,-42,-15
1523178332149940,19,-1,6,15,3,6,-19,14
1523178332149940,-50,4,-10,-11,-1,-3,-22,-23
1523178332172004,-16,0,-2,-8,-1,-2,-31,9
1523178332172004,8,4,11,5,-4,-9,6,-1
1523178332173001,69,7,-9,-6,2,10,9,5
1523178332173001,-86,-18,-4,-4,-8,-20,-45,16
1523178332194067,44,6,4,1,0,-2,7,56
1523178332194067,10,0,-7,-1,1,-4,-36,-9
1523178332195058,18,-19,4,-3,-2,0,28,-10
1523178332195058,3,3,6,15,0,-3,-21,-16
1523178332208096,77,10,-2,-21,-1,6,88,34
1523178332208096,-95,-9,-17,-16,-2,-1,4,4
1523178332215404,37,9,23,27,-3,-4,-53,4
1523178332215404,29,2,4,5,2,5,-5,3
1523178332231477,-37,-5,-7,-5,-4,0,-6,-1
1523178332231477,24,3,10,5,2,1,36,-17
1523178332233166,-20,3,-2,-7,5,20,18,9
1523178332233166,-14,4,10,15,0,-2,6,-18
1523178332254462,-4,-5,-17,-18,-3,-8,-38,5
1523178332254462,71,0,7,2,-1,-3,-7,-18
1523178332255223,-54,2,-10,0,-3,-8,21,-2
1523178332255223,6,-2,-14,12,2,11,60,12
1523178332268262,19,-7,-12,-29,0,0,-42,-48
1523178332268262,5,1,2,11,-1,5,-25,-16
1523178332275562,-41,6,6,12,-2,-6,-45,1
1523178332275562,47,5,13,0,0,2,-19,-4
1523178332291575,3,1,-12,6,0,-2,11,-12
1523178332291575,87,4,-36,-26,-2,6,-48,-12
1523178332293323,-13,-3,13,1,-4,-5,-22,19
1523178332293323,15,-3,-5,-6,-3,-6,5,1
1523178332314544,1,6,16,17,-1,-2,14,-1
1523178332314544,-3,-3,6,0,1,2,-48,19
1523178332315380,36,4,-10,12,0,3,23,3
1523178332315380,25,-1,-4,-17,-1,-2,-24,13
1523178332328432,18,-2,-5,-17,-5,-4,37,5
1523178332328432,-9,-2,-4,5,-3,-11,-8,18
1523178332335440,-9,-3,-5,-9,-3,0,13,-19
1523178332335440,-15,-3,1,1,-1,-1,19,26
1523178332351482,-47,0,-1,17,0,-3,-30,-18
1523178332351482,35,6,-1,-5,2,6,3,21
1523178332352481,12,-3,-8,-17,-1,1,4,-10
1523178332352481,7,9,12,-1,-1,1,0,-20
1523178332373539,-7,-5,1,18,0,-1,-34,-14
1523178332373539,-11,4,9,-12,-1,1,20,25
1523178332375542,2,-2,-26,-20,-3,3,58,10
1523178332375542,4,-5,-6,-13,-3,1,-31,-4
1523178332388944,-25,-4,10,-3,-3,-1,-1,-11
1523178332388944,-38,-7,-10,13,-5,-5,24,-12
1523178332394589,109,5,-3,-1,1,-5,-37,17
1523178332394589,-61,-19,-9,-18,-5,-6,30,-9
1523178332411634,16,4,7,18,2,5,-11,-11
1523178332411634,31,7,5,1,1,-1,-16,-20
1523178332412636,22,-6,-5,-6,-4,-12,-26,-25
1523178332412636,13,2,-3,13,0,15,66,7
1523178332433825,-44,-10,-6,-44,-4,-8,36,18
1523178332433825,11,4,-8,12,-2,5,21,-28
1523178332435703,-51,-7,9,-4,0,3,20,-9
1523178332435703,16,0,1,5,1,1,-13,3
1523178332448805,-4,-1,-4,1,-3,-13,-36,-31
1523178332448805,-17,0,-2,-5,0,2,31,28
1523178332455033,-14,1,7,0,-1,-10,-10,-2
1523178332455033,38,7,-1,-1,2,-4,7,-26
1523178332472042,2,-2,-7,-2,-1,11,46,37
1523178332472042,-24,-2,18,25,0,-7,-12,4
1523178332472798,54,3,7,-5,1,0,-55,7
1523178332472798,-31,2,-26,-12,0,-4,37,32
1523178332493860,25,-4,3,14,1,0,-13,-1
1523178332493860,-103,-8,4,8,1,8,7,-2
1523178332495858,13,-1,2,10,-1,-9,-21,-2
1523178332495858,17,0,11,-3,2,9,-2,37
1523178332508150,2,-10,-8,-12,1,7,-4,-36
1523178332508150,0,0,-4,-3,-3,-4,48,25
1523178332515198,-31,-2,-4,2,-1,5,34,20
1523178332515198,-47,0,3,-21,-3,-6,6,-8
1523178332531224,-4,-1,-4,27,1,-2,-24,-18
1523178332531224,27,1,5,-13,1,5,-7,0
1523178332532961,-16,-4,-6,3,-2,0,28,3
1523178332532961,-1,-6,-2,-6,-1,-3,-5,-16
1523178332554269,8,1,1,-1,-4,-4,8,-15
1523178332554269,-52,-7,0,2,1,1,-7,6
1523178332555025,-12,-11,3,-28,2,3,27,6
1523178332555025,-8,2,3,7,-1,0,-21,-29
1523178332567290,4,-6,-14,6,-3,-1,-4,37
1523178332567290,33,-1,8,4,-3,-7,-25,-7
1523178332577075,-22,5,-3,3,0,-2,-15,-13
1523178332577075,12,-1,10,8,2,0,10,7
1523178332591359,60,-1,-19,-26,2,-1,-1,1
1523178332591359,-38,-12,6,13,-2,0,-56,-15
1523178332593121,29,2,3,7,-2,-4,-14,19
1523178332593121,-23,-10,9,9,0,-7,-6,-36
1523178332614450,41,7,-12,-33,-2,2,-18,28
1523178332614450,32,-7,2,5,-4,-6,-25,8
1523178332615179,10,7,-2,-4,4,7,-16,5
1523178332615179,4,9,1,4,-2,7,19,14
1523178332627215,19,19,5,4,-1,-2,19,-10
1523178332627215,0,-4,-1,-18,-1,-7,-24,-21
1523178332636388,-22,-1,15,9,-1,8,48,36
1523178332636388,-22,-2,-43,-13,-1,-2,-26,-6
1523178332651459,5,-3,19,1,-4,-5,8,-23
1523178332651459,49,7,-11,-7,-1,4,49,-7
1523178332653278,-10,1,5,5,-1,5,-8,-15
1523178332653278,2,-5,3,4,-1,-7,22,24
1523178332674488,-45,-6,-9,-3,-2,5,-1,-25
1523178332674488,-25,-2,3,-18,2,-1,-16,-14
1523178332675338,-45,-11,-5,5,-3,-12,-9,-20
1523178332675338,48,6,4,-2,0,15,29,7
1523178332687433,-13,-5,2,9,-1,-4,-21,11
1523178332687433,1,0,-4,-1,1,-5,-5,-16
1523178332696395,-25,2,-9,2,5,8,5,-33
1523178332696395,52,-20,18,-1,-4,-13,-67,18
1523178332711436,-52,-2,10,12,-2,1,-40,9
1523178332711436,-7,2,-17,-8,1,3,64,29
1523178332712438,37,5,0,-2,-4,-11,-32,-2
1523178332712438,-13,-1,5,14,0,0,21,-30
1523178332733702,3,2,-2,16,2,4,26,2
1523178332733702,-3,-3,-11,-26,-4,-5,-17,0
1523178332735499,24,-2,-7,-4,-1,-8,-3,25
1523178332735499,-63,-4,-4,-7,-3,-1,-12,-34
1523178332747744,2,-4,0,4,-2,-5,21,-3
1523178332747744,-28,11,3,0,2,13,13,-13
1523178332756555,29,3,-13,-6,-5,4,-52,26
1523178332756555,-4,-4,-7,-2,-4,-10,-1,-7
1523178332771800,-28,3,6,-5,3,0,23,0
1523178332771800,-5,2,2,9,-1,-2,-2,-21
1523178332772596,12,-2,5,-2,-3,-3,6,-12
1523178332772596,51,4,-6,-9,1,0,-57,4
1523178332793656,-6,2,-2,1,-3,-2,-56,-10
1523178332793656,24,1,0,-4,-1,0,29,-7
1523178332795655,10,3,9,5,1,9,62,-17
1523178332795655,9,-6,-21,0,-4,-11,-26,3
1523178332808001,16,-4,-1,1,-2,5,35,-5
1523178332808001,-13,0,5,4,-4,-10,-38,-20
1523178332816722,18,-5,16,4,0,2,-4,-13
1523178332816722,-9,4,-6,3,0,-2,18,16
1523178332831846,29,3,0,-10,2,0,-24,13
1523178332831846,-1,-8,-11,-5,-3,-8,-2,11
1523178332832758,-46,0,0,7,0,-7,-36,-14
1523178332832758,45,-1,7,-3,2,-7,-31,-36
1523178332853956,2,-2,0,0,1,19,-21,78
1523178332853956,-13,5,6,-2,-3,-2,29,-3
1523178332855819,7,-4,-15,-36,-3,-8,-16,-10
1523178332855819,-66,-9,6,14,-9,1,13,-52
1523178332868052,-19,-3,8,10,3,-11,-21,-6
1523178332868052,30,-9,0,9,1,4,-18,11
1523178332876875,-20,1,3,2,1,5,41,8
1523178332876875,-8,3,-3,-12,0,-3,-21,15
1523178332891984,-16,-4,-8,-8,-4,-3,12,-19
1523178332891984,9,0,7,3,-2,-10,4,3
1523178332892914,-23,1,-6,9,6,10,-62,-12
1523178332892914,65,14,11,43,6,24,107,83
1523178332914237,-7,9,-12,-62,-9,-14,1,-26
1523178332914237,54,-1,8,34,0,2,-21,8
1523178332914973,-42,-5,-7,3,-1,-2,-3,-22
1523178332914973,-10,-1,7,-4,0,-6,-29,10
1523178332927016,4,-2,7,21,2,7,17,17
1523178332927016,-13,3,-8,-20,-3,-10,2,-14
1523178332936286,12,-4,-3,-4,-3,-2,17,1
1523178332936286,-34,0,-1,-4,3,3,-22,-3
1523178332951350,28,-7,-10,-3,-3,-20,35,-17
1523178332951350,-86,-4,-7,-12,2,10,-24,-14
1523178332953077,14,-3,15,35,0,11,110,21
1523178332953077,22,1,-29,-57,-2,-5,-27,-26
1523178332974381,-19,-6,23,45,-3,-8,-65,-24
1523178332974381,13,-8,-10,2,-4,-3,37,23
1523178332975134,64,-2,-8,-4,-1,4,-6,1
1523178332975134,-17,8,9,-6,0,-2,-26,5
1523178332996186,6,0,-9,-7,0,-5,23,-5
1523178332996186,22,2,-1,-2,1,0,-37,-2
1523178332998194,3,-1,1,-7,-3,7,25,16
1523178332998194,0,-1,-1,-1,-3,-6,16,-1
1523178333011241,-31,-15,-2,2,-1,-9,-90,13
1523178333011241,103,2,2,0,1,8,6,57
1523178333013233,-43,0,-4,-3,0,-8,-74,32
1523178333013233,-13,2,-24,-17,-5,-7,-22,-40
1523178333033517,-7,-5,20,-3,-4,8,67,3
1523178333033517,21,8,7,18,-1,-4,-1,16
1523178333035291,-39,-6,-3,-10,-3,-9,-25,-44
1523178333035291,1,-7,8,18,1,-1,1,21
1523178333056586,-10,-1,-11,-14,-3,-10,-33,2
1523178333056586,-8,-7,-7,-18,-2,3,7,-5
1523178333058357,23,0,-11,6,-1,-5,1,-5
1523178333058357,-90,-7,4,3,0,7,43,11
1523178333070624,5,2,-8,-2,-1,3,24,10
1523178333070624,-10,5,4,-1,-1,-2,-5,-25
1523178333079411,-13,-4,-7,-1,0,8,-15,12
1523178333079411,58,-3,-2,-4,-8,-6,-47,-38
1523178333093456,-17,5,4,6,4,19,32,6
1523178333093456,-28,-4,0,-5,0,-10,-27,-18
1523178333095452,61,2,-13,1,-2,5,29,-8
1523178333095452,-54,-10,9,-10,-1,-3,-36,20
1523178333116740,34,1,-8,-18,0,5,44,4
1523178333116740,18,12,11,32,-1,-6,-14,-15
1523178333117513,-11,-3,-1,-9,-2,-11,8,-11
1523178333117513,34,2,2,7,-1,-7,-5,18
1523178333130828,47,6,-6,6,3,17,11,-5
1523178333130828,-98,-7,-20,-35,-6,0,27,-2
1523178333137800,-5,2,23,26,-3,-10,-39,9
1523178333137800,44,0,-27,-20,-2,-3,40,-11
1523178333153856,-38,-8,13,17,0,-12,5,-21
1523178333153856,47,-4,1,2,2,8,57,18
1523178333155617,45,4,-1,-6,-1,0,-2,55
1523178333155617,-18,-7,20,22,0,-5,-52,-6
1523178333176675,-26,6,-4,-4,-3,-19,8,-11
1523178333176675,32,3,-1,0,5,37,4,40
1523178333177670,1,-7,-6,-7,-3,-7,13,-63
1523178333177670,26,8,21,3,1,0,5,7
1523178333190894,-41,-5,-34,-18,0,-3,3,1
1523178333190894,45,6,3,7,-2,-2,-49,-19
1523178333197971,-79,-8,17,4,1,-6,-21,32
1523178333197971,0,-2,-24,-21,-5,7,67,-2
1523178333214039,14,-6,1,6,-3,7,-10,25
1523178333214039,30,0,7,-1,-1,-3,38,7
1523178333215776,12,-1,-6,-11,-1,-9,-7,-19
1523178333215776,54,3,15,18,2,0,-73,2
1523178333235828,-12,1,4,4,0,0,28,13
1523178333235828,-20,-5,-9,-11,-3,-14,-16,-17
1523178333237833,-1,-2,4,-5,2,16,36,-3
1523178333237833,-27,3,2,1,1,5,11,40
1523178333251032,29,-22,0,-9,-1,0,-21,-15
1523178333251032,-24,-8,-3,-3,-3,-9,-30,-11
1523178333258132,3,4,2,-2,-3,-5,-2,-6
1523178333258132,-2,1,4,12,1,2,76,-15
1523178333274176,43,-8,-23,4,2,13,-28,34
1523178333274176,-53,3,-7,-23,-1,-12,-9,-23
1523178333274936,-1,-7,23,25,-2,-2,-35,-4
1523178333274936,-57,-6,-10,-9,-1,-5,68,1
1523178333297038,82,9,13,10,-5,-12,-56,-9
1523178333297038,-54,-3,5,2,-3,-5,4,-31
1523178333297992,12,2,-36,-24,0,-5,-20,12
1523178333297992,-19,-3,8,0,-1,-2,-26,-24
1523178333311028,6,9,13,17,1,8,80,10
1523178333311028,17,-6,-3,-11,-1,1,1,22
1523178333317310,-20,2,-23,-11,-3,-17,-15,-49
1523178333317310,26,-12,6,4,-2,2,-31,-2
1523178333334094,-28,5,-3,-14,-3,-2,-14,-3
1523178333334094,23,0,7,20,2,4,27,16
1523178333335088,14,-11,6,-25,-2,-1,16,4
1523178333335088,-36,9,3,5,-1,-4,-34,-7
1523178333356433,114,8,-6,5,0,-1,-11,-33
1523178333356433,-81,-14,19,0,-1,4,43,-11
1523178333358155,24,6,0,21,0,2,13,5
1523178333358155,2,-1,-25,-15,-2,-11,-44,1
1523178333371350,-7,1,12,-8,-2,5,66,2
1523178333371350,43,5,-6,4,3,2,-47,25
1523178333385228,14,5,-2,-2,-1,3,13,30
1523178333385228,11,-3,2,-4,-3,6,49,6
1523178333394245,-26,0,3,9,-4,-11,-20,-14
1523178333394245,25,-3,-18,-12,-2,-6,17,6
1523178333395249,-23,-8,4,1,-2,-3,1,-12
1523178333395249,28,-8,5,18,3,12,-22,4
1523178333416529,-49,-2,-1,-20,1,-2,-15,10
1523178333416529,22,-2,-12,-8,-4,-18,-39,-8
1523178333418309,-62,-4,3,-4,-3,6,12,18
1523178333418309,31,4,6,8,3,3,21,-11
1523178333430629,-18,-3,2,27,-1,5,0,-1
1523178333430629,25,2,-3,-14,-3,-5,-48,-19
1523178333437604,16,-1,-7,-5,-3,-3,3,17
1523178333437604,99,3,-17,-16,-2,-2,-13,22
1523178333454517,-49,-4,4,0,-1,-3,-2,-5
1523178333454517,39,-3,-10,-2,-2,4,-38,2
1523178333455417,24,2,4,6,1,5,38,-5
1523178333455417,-20,-3,-2,-2,-2,-3,-19,5
1523178333476472,-2,-4,-7,-17,-5,-17,-59,2
1523178333476472,-19,-2,7,13,2,2,30,5
1523178333477466,-13,5,-16,-19,2,5,-2,-10
1523178333477466,-20,-11,7,2,-3,-8,-17,-19
1523178333490633,-9,5,-5,-5,1,4,8,15
1523178333490633,-30,-11,11,8,0,5,15,-14
1523178333498828,13,3,4,5,-2,-2,3,-9
1523178333498828,-7,6,4,2,0,-3,27,11
1523178333513801,-6,-4,-27,-37,-4,-3,-13,-12
1523178333513801,32,-1,10,21,-2,-2,-5,24
1523178333515570,-47,-2,7,-4,-1,9,-3,-20
1523178333515570,-2,-1,-21,-7,-3,-6,21,-7
1523178333536853,66,1,21,21,1,4,43,28
1523178333536853,-68,-1,-13,-12,2,4,-2,-22
1523178333537629,-2,-4,6,4,-1,-11,-14,-17
1523178333537629,49,1,7,3,1,2,13,-2
1523178333549896,-12,-5,-13,-13,-1,-1,-6,-4
1523178333549896,6,1,-5,6,-4,-12,-20,-25
1523178333558946,-1,-1,0,15,1,1,5,18
1523178333558946,-30,0,4,-12,-1,6,-9,-3
1523178333573981,60,8,-2,-5,2,-1,-34,-3
1523178333573981,-4,-2,4,4,0,11,54,3
1523178333575737,0,1,-17,-7,-2,-2,-49,-3
1523178333575737,75,5,5,0,1,1,26,29
1523178333597045,-21,-21,14,11,0,-1,-39,-13
1523178333597045,-1,8,-11,-5,3,5,-2,-8
1523178333597804,28,5,17,-5,-2,-5,19,17
1523178333597804,-32,-2,-32,6,-4,-3,-11,-27
1523178333609826,-28,2,2,4,0,5,76,-17
1523178333609826,20,0,4,-6,-2,-6,0,42
1523178333618891,-4,-6,-1,0,0,4,-15,-6
1523178333618891,-27,-3,-9,-19,-1,0,7,20
1523178333633931,-7,-3,5,2,-6,-2,-33,-64
1523178333633931,-69,-15,7,13,2,-3,10,1
1523178333634892,40,6,5,-5,-1,-15,-3,-3
1523178333634892,-75,-2,6,22,-1,14,21,-11
1523178333656961,-14,-3,-10,-28,-2,1,-19,-3
1523178333656961,19,2,-8,-13,-3,-7,1,1
1523178333657948,31,3,11,25,1,2,-17,22
1523178333657948,-55,-4,-3,-19,-2,-6,19,-39
1523178333670212,0,0,2,9,1,-1,-51,8
1523178333670212,7,1,3,0,-5,-12,-56,-26
1523178333679007,4,-2,-9,-5,1,8,45,28
1523178333679007,4,-14,-3,-11,-8,-9,-48,17
1523178333694041,29,4,13,18,1,11,21,6
1523178333694041,-1,-1,-3,-4,-1,-2,-20,7
1523178333695053,4,-4,-1,-1,-2,5,-24,-17
1523178333695053,43,7,3,-1,0,5,-8,21
1523178333716326,-51,-9,-13,-7,-5,-8,24,-69
1523178333716326,30,-1,2,8,-1,3,-14,5
1523178333718112,49,3,2,-16,-1,-6,-17,-18
1523178333718112,8,3,5,-2,2,4,45,4
1523178333730425,27,2,0,8,1,-2,-33,19
1523178333730425,-60,-4,-7,-1,0,3,23,27
1523178333739175,-24,-6,-6,-7,-4,-11,6,-71
1523178333739175,17,2,2,8,2,-2,11,2
1523178333754449,9,5,-2,-12,2,7,76,37
1523178333754449,45,7,-1,7,2,-1,-30,3
1523178333755208,-55,-3,-6,2,-3,-9,-7,-2
1523178333755208,-12,-3,13,5,-1,0,-25,0
1523178333776267,-6,-1,-9,-1,0,-4,6,15
1523178333776267,0,-1,-15,-21,-2,1,44,-24
1523178333778267,-12,-3,1,0,-4,-2,41,14
1523178333778267,44,2,1,20,2,-2,-8,-7
1523178333790536,40,24,-7,-11,-4,-6,-28,12
1523178333790536,-28,-22,10,-14,-5,-2,-3,-5
1523178333799335,-2,4,-6,-2,0,-3,-24,-11
1523178333799335,-3,-5,-7,-8,-3,5,10,25
1523178333814520,3,4,5,19,-1,-4,-27,6
1523178333814520,61,4,-1,0,-1,1,37,10
1523178333815368,-36,-9,-3,-3,-2,-9,-35,-49
1523178333815368,-5,-1,-13,-9,-1,8,49,-1
1523178333836667,10,-6,4,-1,-4,3,30,9
1523178333836667,10,1,-4,0,0,-4,-42,-6
1523178333837431,13,-6,3,3,-1,5,-7,34
1523178333837431,89,5,4,-1,-2,-15,-50,-13
1523178333850703,-14,-7,7,1,1,2,-8,-11
1523178333850703,49,-3,-13,-7,-4,-1,7,8
1523178333858716,-4,-3,-18,-3,-3,-1,17,28
1523178333858716,31,4,20,15,3,-4,-28,-39
1523178333873777,-60,0,-9,4,-2,-3,-3,22
1523178333873777,-22,-7,11,-9,-5,-3,-2,-8
1523178333875526,-11,3,0,5,2,3,-30,2
1523178333875526,-11,-3,-12,-10,-6,-16,-53,-11
1523178333896857,-2,-1,11,12,7,22,24,-4
1523178333896857,-17,5,-7,-3,-2,4,29,3
1523178333897587,-10,-7,3,-1,-3,0,-42,-11
1523178333897587,-31,-3,-2,6,0,-5,-11,0
1523178333920708,0,2,2,-5,-2,-10,-36,-8
1523178333920708,11,16,0,0,1,5,37,2
1523178333921658,18,-22,27,-4,1,7,18,27
1523178333921658,-13,-3,-28,-5,-5,-1,29,-14
1523178333933686,-13,0,-6,-2,1,1,29,8
1523178333933686,5,4,1,-1,0,5,2,-8
1523178333935683,6,8,11,11,2,-2,26,-7
1523178333935683,84,2,-4,-4,1,2,3,20
1523178333955737,49,-10,-1,-2,0,-8,-63,-2
1523178333955737,30,1,10,17,1,4,28,-3
1523178333957743,7,-3,-34,-28,0,-2,-9,5
1523178333957743,12,-4,12,-1,-5,2,34,41
1523178333979215,-10,2,-10,-6,0,6,37,-23
1523178333979215,-4,0,-1,4,-1,-9,-54,0
1523178333980806,5,-1,-4,9,-3,-1,20,-2
1523178333980806,-49,3,-1,-8,-1,-9,-33,-6
1523178333993837,1,-8,2,1,-4,-3,-13,-36
1523178333993837,-23,-4,1,3,1,-7,15,3
1523178333995845,48,3,6,-4,-1,10,8,-31
1523178333995845,-49,-4,-16,-5,0,1,-24,-4
1523178334015897,-32,-9,-3,-2,-8,-6,54,9
1523178334015897,19,1,-2,2,2,-2,-92,-23
1523178334017910,10,1,-9,-3,1,7,34,10
1523178334017910,-10,4,18,0,1,1,29,-2
1523178334039336,44,3,-3,-5,2,-1,-1,20
1523178334039336,18,3,-11,-2,-4,-10,-11,-2
1523178334041200,-81,-24,15,-3,-3,0,52,-34
1523178334041200,-21,-4,-4,-24,0,2,-37,20
1523178334053295,15,2,8,10,-1,-3,-4,-2
1523178334053295,1,4,-13,-6,0,0,34,1
1523178334060014,17,12,12,24,3,-7,-29,16
1523178334060014,6,-2,3,4,-2,-10,-42,-20
1523178334076090,12,-8,-9,-10,-2,7,15,-9
1523178334076090,4,0,10,-1,-1,-1,26,0
1523178334078062,-29,-1,-24,-12,-2,-1,-42,24
1523178334078062,50,3,1,-1,-6,-9,-10,0
1523178334099149,-50,3,6,24,-1,-9,-34,-9
1523178334099149,-12,-7,-1,-4,0,6,73,14
1523178334100120,34,3,-6,-1,-3,-10,-24,13
1523178334100120,-44,-5,0,0,1,11,29,-14
1523178334113212,-16,-3,1,-3,2,-2,35,8
1523178334113212,13,1,4,0,-2,-4,-16,-3
1523178334120247,10,-2,-21,-15,-1,4,14,5
1523178334120247,-24,-4,13,1,-2,-3,21,-5
1523178334136270,46,1,5,4,-4,-3,-5,-1
1523178334136270,-90,-13,-2,-6,-3,1,-11,9
1523178334138225,19,7,1,4,-1,-1,-31,-12
1523178334138225,-27,-3,-1,-4,0,9,15,-7
1523178334159292,-16,0,-10,-13,-4,-13,-38,-5
1523178334159292,33,-4,2,4,-1,6,10,0
1523178334160282,-8,12,6,8,0,-2,26,-20
1523178334160282,9,-26,-17,-34,-2,-6,2,38
1523178334173582,22,-1,16,26,-1,0,-49,12
1523178334173582,5,5,-22,-6,1,-3,-21,-17
1523178334180515,26,0,30,14,3,4,24,36
1523178334180515,-4,7,-1,8,1,1,48,-30
1523178334196625,-47,-1,-2,-14,-1,-2,-7,23
1523178334196625,23,-1,1,-7,-1,1,51,-35
1523178334198383,18,7,1,7,-1,0,-23,-13
1523178334198383,-5,0,0,1,-1,-8,-29,-4
1523178334220619,-18,-8,-22,-13,-1,-4,-11,-5
1523178334220619,-39,4,1,0,-4,-11,-36,-32
1523178334221452,44,-2,0,-6,-4,2,66,60
1523178334221452,64,6,1,15,-1,0,-13,-10
1523178334233689,13,8,4,-1,5,2,23,-13
1523178334233689,25,-5,-2,-4,0,1,-24,29
1523178334240603,23,2,0,-27,-2,-7,-8,-1
1523178334240603,-93,-4,-12,14,-4,-13,-28,-42
1523178334256812,4,1,9,17,2,14,10,25
1523178334256812,20,-2,-5,-10,-3,-3,8,3
1523178334257545,-49,-3,-1,-7,-3,-2,20,-26
1523178334257545,9,4,0,-8,1,-4,0,-12
1523178334278824,-32,-10,-6,-22,-8,-3,47,-5
1523178334278824,18,1,7,34,4,9,5,27
1523178334280602,-23,-4,-14,-12,1,-1,-22,-11
1523178334280602,-9,-1,4,-12,-7,-3,12,7
1523178334293636,17,0,-9,-1,-3,-7,-37,-22
1523178334293636,12,1,15,-13,-1,4,22,-26
1523178334299654,-8,1,-2,26,-3,-10,-11,-9
1523178334299654,8,5,-1,6,0,-2,2,5
1523178334316811,7,-11,7,-11,1,10,32,6
1523178334316811,-39,-4,-10,3,2,2,-12,-12
1523178334317700,60,0,-8,-9,-5,-5,-6,7
1523178334317700,-32,8,7,7,6,15,1,19
1523178334339003,4,5,-7,-11,-3,0,7,-14
1523178334339003,23,-1,-7,-3,-4,-4,-8,-5
1523178334340763,-30,-6,10,11,1,7,35,-25
1523178334340763,28,-1,3,1,1,-2,-7,26
1523178334353881,4,-3,-6,3,4,-2,-20,15
1523178334353881,-20,-2,-3,-9,-2,-10,-9,11
1523178334359816,37,2,-10,-10,-2,6,-18,0
1523178334359816,-2,0,17,19,0,2,-3,-18
1523178334375858,2,2,-12,-14,-3,-6,-7,5
1523178334375858,-9,-3,-1,2,-1,4,13,-32
1523178334377863,23,1,-3,-10,-1,-6,-10,-1
1523178334377863,5,1,-3,5,1,11,0,6
1523178334399132,5,-10,19,17,-1,-5,-9,-4
1523178334399132,45,-1,-1,-7,-2,-2,-3,2
1523178334399919,-101,-7,0,0,-3,-7,-53,-47
1523178334399919,26,3,1,-1,-1,2,4,-8
1523178334413020,-1,2,-9,-8,-4,-5,-3,8
1523178334413020,86,3,17,10,-1,-8,-17,7
1523178334421188,-55,-7,-21,-5,3,4,-18,12
1523178334421188,13,-6,-10,-11,-1,4,3,0
1523178334436016,1,-1,-5,10,-3,-14,-55,-10
1523178334436016,-55,-3,-5,-9,-5,-17,-62,-13
1523178334438021,43,5,7,10,2,4,76,68
1523178334438021,23,3,8,1,-1,-2,-23,-38
1523178334459081,-16,-7,-36,-38,-2,-5,0,10
1523178334459081,-27,2,8,16,0,0,26,3
1523178334460080,-21,-22,1,-1,-2,-4,-43,0
1523178334460080,10,3,-2,-19,0,2,32,10
1523178334473126,6,4,14,16,-1,-6,-20,-10
1523178334473126,-17,0,-6,-5,-2,5,17,11
1523178334481184,24,1,-7,-18,-2,-3,-21,2
1523178334481184,-32,-5,5,13,-2,1,3,-10
1523178334496425,-24,2,4,1,1,7,-17,-29
1523178334496425,10,1,-1,0,0,2,5,29
1523178334498179,8,6,0,0,0,0,-21,-13
1523178334498179,-16,-8,-4,-11,-4,-9,-10,5
1523178334526254,114,-2,5,9,-1,-1,42,-6
1523178334526254,-21,2,9,6,3,8,46,3
1523178334528302,11,0,-10,-4,-5,0,13,-17
1523178334528302,0,2,-2,-2,0,4,32,3
1523178334532517,16,7,-17,-12,0,-5,-46,-9
1523178334532517,-6,-3,6,-10,-4,2,38,26
1523178334541361,-7,-3,3,6,2,-5,1,-17
1523178334541361,9,-1,-1,5,0,-8,-11,7
1523178334556587,-1,1,-5,6,-1,-10,-46,31
1523178334556587,-15,-5,-7,-7,-2,2,-29,-12
1523178334558340,6,12,2,-2,0,-1,25,9
1523178334558340,-12,1,-19,-3,-1,3,8,8
1523178334579540,-15,-3,18,14,0,2,9,-1
1523178334579540,6,2,-10,-13,-2,-6,-1,-3
1523178334580399,-4,-5,-20,-5,-1,8,-41,-4
1523178334580399,-2,4,16,16,0,-6,-6,0
1523178334592435,-18,5,-5,-5,0,1,24,-7
1523178334592435,29,0,-6,-4,-4,-4,-12,3
1523178334601454,69,-4,6,4,0,-8,-2,8
1523178334601454,-87,-10,-5,-2,-2,2,-38,-21
1523178334616496,11,5,14,7,1,6,79,23
1523178334616496,-9,-4,-21,-17,-1,-3,-36,-12
1523178334617498,2,-5,6,1,-5,-13,-46,5
1523178334617498,12,2,-1,4,-1,1,-23,16
1523178334638805,28,-4,-1,-6,1,12,21,20
1523178334638805,-30,1,13,19,0,-9,-25,-10
1523178334640561,-21,2,-5,1,0,2,14,-9
1523178334640561,-16,-19,-14,-11,-1,-2,39,11
1523178334652867,-37,-1,14,8,-1,-7,-22,3
1523178334652867,25,6,-10,-17,2,14,9,-1
1523178334661617,26,7,9,3,-2,-6,-48,11
1523178334661617,11,0,3,10,-3,-8,1,2
1523178334676652,64,-2,-3,-7,-1,3,-46,0
1523178334676652,-25,0,3,2,0,-9,-8,7
1523178334677655,-13,-5,4,2,7,20,98,1
1523178334677655,14,-2,14,10,1,-2,-21,0
1523178334698993,-14,1,-34,-29,-6,-4,-2,-21
1523178334698993,-11,-8,20,14,-4,-6,-19,-11
1523178334700719,86,-4,4,12,3,4,0,-1
1523178334700719,18,0,-1,-10,1,-2,-11,10
1523178334713002,-10,1,-7,1,-1,6,34,2
1523178334713002,-1,-3,-4,-5,-2,-4,44,2
1523178334721778,-13,7,9,0,-2,4,5,-15
1523178334721778,24,4,-10,-10,0,5,-11,17
1523178334737078,-29,-1,7,7,-4,-2,-20,-17
1523178334737078,-25,1,5,11,-2,-7,27,-2
1523178334737817,-28,-3,1,-4,-4,-2,39,-15
1523178334737817,57,3,0,14,1,9,-6,21
1523178334758878,-46,2,-11,-33,1,6,42,-10
1523178334758878,0,-7,-3,8,-1,-3,-18,-1
1523178334760881,12,4,5,3,2,-4,-13,8
1523178334760881,-8,-4,-6,-4,-2,-3,7,-14
1523178334773103,3,0,10,27,0,-4,-3,-12
1523178334773103,17,-2,-13,-28,2,5,5,4
1523178334781935,-14,-6,-3,-3,-4,-10,-24,20
1523178334781935,-39,4,6,2,-1,-7,28,-41
1523178334796221,70,3,5,14,6,14,-15,56
1523178334796221,-59,-4,-8,-18,-1,6,-16,-18
1523178334803056,-14,3,3,5,-1,0,32,11
1523178334803056,18,-2,5,7,2,-4,9,-11
1523178334819291,-25,-4,11,5,2,-6,42,32
1523178334819291,51,1,-9,-3,-2,8,-9,7
1523178334820042,-12,-3,-1,-1,-2,-3,-59,-8
1523178334820042,-86,-2,-18,-20,1,-5,4,-8
1523178334832326,-30,1,12,25,-8,-13,-43,-58
1523178334832326,28,-5,-31,-25,-2,8,35,25
1523178334841367,-36,-9,1,1,-1,-2,19,-3
1523178334841367,17,-1,-4,-3,-3,-2,-30,-5
1523178334856390,-21,-5,3,-3,3,-1,-8,-17
1523178334856390,-3,-4,-6,-1,-4,-12,-53,-11
1523178334858136,42,-21,-5,7,2,14,16,47
1523178334858136,31,2,7,-4,0,16,42,3
1523178334879426,2,0,-14,-12,1,0,-9,1
1523178334879426,8,-6,10,1,-3,-12,-24,-50
1523178334880196,-33,2,-1,4,-3,-10,-4,-19
1523178334880196,28,-1,-4,-4,-7,-13,-22,12
1523178334901454,-13,-7,12,2,0,3,-3,-16
1523178334901454,92,6,-13,-15,-1,-4,17,-5
1523178334903257,-26,3,-2,1,-1,-4,-4,-19
1523178334903257,17,-8,2,-2,-2,0,11,-6
1523178334915537,-13,6,20,11,0,-1,3,-7
1523178334915537,1,-1,-21,-7,0,-2,-9,23
1523178334922585,-8,2,-6,-12,-5,-5,-5,-16
1523178334922585,-3,-2,7,5,0,-5,-16,5
1523178334938351,19,-10,-18,-13,-4,-2,9,5
1523178334938351,-23,2,20,13,2,2,-6,3
1523178334940356,-4,3,2,14,-3,-15,-64,-21
1523178334940356,-17,3,1,-27,-1,-8,47,18
1523178334961775,-11,-6,-22,2,-4,10,-47,14
1523178334961775,15,1,5,-7,0,-9,36,13
1523178334962413,-22,-1,-12,-7,-2,7,-16,-25
1523178334962413,-5,-2,10,14,-4,-7,-3,-27
1523178334976450,-21,-2,1,4,-2,-10,-14,-35
1523178334976450,-47,-8,-5,-22,-3,-3,2,-3
1523178334977790,43,5,2,-10,-1,7,57,40
1523178334977790,32,1,-19,4,0,2,-8,-14
1523178334998509,7,0,-3,-11,0,3,5,12
1523178334998509,-1,-2,3,33,-3,4,-9,7
1523178335000513,-9,0,4,-4,-2,-6,4,-16
1523178335000513,-6,-2,-6,-7,-13,-8,-10,11
1523178335021963,1,1,-3,-8,14,5,25,4
1523178335021963,-5,3,15,25,-11,-5,-16,3
1523178335023703,8,0,12,-19,11,-7,-10,-2
1523178335023703,1,-4,-50,13,-38,1,-10,8
1523178335035999,-10,5,57,-18,45,9,12,5
1523178335035999,12,7,-31,24,13,31,-3,-7
1523178335042626,-11,0,-3,-5,11,12,12,-2
1523178335042626,-8,-2,10,-7,-2,-13,-8,1
1523178335058668,-6,-7,-20,-19,-48,-42,-7,-10
1523178335058668,-11,-1,17,2,-4,-4,-10,-1
1523178335060674,-1,4,-18,7,-14,9,12,0
1523178335060674,1,-3,-1,6,40,12,-5,7
1523178335081730,11,4,-3,1,-23,13,8,4
1523178335081730,-6,-4,3,-7,23,-7,-6,1
1523178335084027,-2,7,-18,6,-3,-10,-4,-2
1523178335084027,-11,-10,27,-12,0,1,-12,-6
1523178335095120,-2,-7,-1,-4,-13,-8,7,1
1523178335095120,-4,3,18,3,-6,-6,1,-1
1523178335103853,-1,3,-23,7,-1,2,1,-1
1523178335103853,-2,3,3,-12,-9,-3,-3,0
1523178335119179,2,2,-39,2,19,3,4,2
1523178335119179,-6,-29,39,13,-15,-3,-4,0
1523178335120836,0,-4,-11,-13,7,-6,-2,-1
1523178335120836,0,16,21,7,8,-2,-6,-2
1523178335141246,-2,-9,-2,2,-63,-21,-3,-2
1523178335141246,-3,7,-19,7,43,-17,-3,-5
1523178335142892,-3,-6,22,-7,3,52,16,3
1523178335142892,1,-6,-31,-3,53,41,13,5
1523178335155246,0,3,14,1,25,-1,-1,-1
1523178335155246,-3,4,-6,-7,-60,-17,-5,-2
1523178335163949,-4,-5,18,4,-2,-30,-8,-6
1523178335163949,-2,-1,1,-1,-18,-1,-5,-2
1523178335179311,2,1,-17,-4,14,8,-1,0
1523178335179311,-13,4,14,-1,-7,-4,-3,2
1523178335179993,29,-7,-7,-8,-14,-17,-12,-4
1523178335179993,0,3,10,-2,-7,1,0,-1
1523178335203314,-3,-14,-47,-3,4,-3,1,-2
1523178335203314,2,7,10,-2,1,-1,0,1
1523178335205084,-15,0,-25,2,9,4,2,1
1523178335205084,10,-10,22,21,-13,1,0,1
1523178335215344,-8,7,17,-21,25,5,-6,-1
1523178335215344,6,2,3,7,-14,4,0,0
1523178335224111,-11,-3,-12,-16,-8,-4,1,0
1523178335224111,3,-5,-21,12,4,-16,-14,-3
1523178335239443,-6,-1,7,3,-24,10,-10,-2
1523178335239443,-2,6,4,-12,34,19,30,0
1523178335241158,-9,1,7,2,11,-11,-23,-6
1523178335241158,1,1,3,6,-26,-12,6,6
1523178335260204,-7,3,9,-11,5,6,-7,-5
1523178335260204,-2,-12,-3,11,9,3,6,3
1523178335269228,-5,-10,-5,-21,-10,-3,-1,-2
1523178335269228,8,11,25,-15,-7,-9,-6,-4
1523178335275244,-2,-10,-13,15,-8,-6,4,0
1523178335275244,6,3,9,2,-1,1,-9,0
1523178335284269,-6,-6,7,15,8,6,11,2
1523178335284269,-13,-4,-11,-17,-9,-3,-10,-1
1523178335299419,-5,4,-3,8,6,-5,16,0
1523178335299419,36,-2,-9,-6,2,4,0,-7
1523178335300315,-56,0,10,9,-6,2,-15,-4
1523178335300315,2,0,-8,9,4,6,42,12
1523178335321665,8,-1,6,-24,3,-2,13,3
1523178335321665,10,1,-14,6,-1,-1,-17,-4
1523178335322371,-5,-8,7,-5,-3,-7,6,1
1523178335322371,-4,2,-13,9,3,1,-23,-8
1523178335335714,-6,-5,-5,3,3,5,5,0
1523178335335714,-17,6,64,-15,-10,-4,3,1
1523178335342421,19,-3,-45,1,-23,-5,-6,-4
1523178335342421,-9,1,15,-18,17,-26,-8,-4
1523178335358465,8,-10,-2,5,-16,24,1,0
1523178335358465,-6,6,-2,-5,4,5,-13,0
1523178335360470,14,6,5,6,9,-7,2,1
1523178335360470,-16,5,-3,6,-1,7,5,11
1523178335381528,0,-19,-1,7,0,-5,-14,-2
1523178335381528,-9,1,-10,1,0,-6,0,-3
1523178335382719,-3,0,-8,-16,-27,3,13,0
1523178335382719,2,-7,-37,-3,18,2,-3,-7
1523178335395601,0,6,45,6,3,-8,-7,-1
1523178335395601,-14,-14,-50,-11,-14,-3,-7,-1
1523178335403890,5,2,15,6,-1,-11,-18,-2
1523178335403890,6,0,11,-8,0,17,28,1
1523178335418886,9,8,-3,31,9,1,-3,0
1523178335418886,-8,-13,22,-27,2,-1,-3,-2
1523178335420631,1,6,-11,-2,-3,-12,-11,-5
1523178335420631,-7,-1,20,8,-11,1,-2,-4
1523178335441686,6,2,-14,1,5,3,15,1
1523178335441686,2,1,-9,2,6,0,-31,-8
1523178335442692,3,-22,18,9,3,5,47,13
1523178335442692,-4,12,-10,-13,-16,-7,-16,-6
1523178335455018,53,6,-2,7,-1,-10,-18,15
1523178335455018,-15,5,-6,-1,1,6,38,1
1523178335463781,5,-3,-7,-10,17,10,-4,-4
1523178335463781,6,-3,-9,13,-7,-9,-4,8
1523178335479099,3,6,2,-8,-2,0,-31,1
1523178335479099,-1,0,-25,-11,-9,-3,-14,-2
1523178335480791,6,7,16,-4,-13,-2,-14,0
1523178335480791,-16,-7,11,3,24,8,4,3
1523178335501954,-21,4,-7,0,-9,-10,38,-4
1523178335501954,-9,-8,-10,-6,-8,-4,-30,-2
1523178335502852,-9,8,10,16,6,-6,-7,-6
1523178335502852,9,-12,5,-17,-28,-3,-16,-3
1523178335514882,-15,-20,3,3,24,9,15,-6
1523178335514882,-5,-6,-8,1,7,-1,13,-10
1523178335523905,15,11,16,9,1,0,10,11
1523178335523905,5,0,-44,-19,-20,-12,-23,-6
1523178335539238,-10,8,8,-1,3,13,41,28
1523178335539238,26,-5,4,-1,0,5,31,-28
1523178335539949,1,-10,18,12,-6,-3,-23,-7
1523178335539949,-11,4,12,-9,12,-4,-5,-10
1523178335561361,29,1,0,7,0,-14,-35,-10
1523178335561361,-4,8,-15,-2,-19,-4,3,13
1523178335563009,3,9,-10,-20,9,19,31,12
1523178335563009,-1,-4,-5,33,34,16,-36,-13
1523178335575046,-39,-9,-18,-40,-9,-9,16,-17
1523178335575046,29,14,2,43,-14,-6,-1,19
1523178335584064,9,-8,-18,-30,-19,-13,3,-23
1523178335584064,0,-3,10,2,-8,-7,6,23
1523178335599347,-21,3,2,8,-2,-10,-32,-19
1523178335599347,2,-1,0,1,1,-1,18,7
1523178335600112,-18,0,-9,-5,4,9,39,35
1523178335600112,46,8,22,24,9,4,2,-33
1523178335621483,15,2,-8,-8,-8,5,9,-3
1523178335621483,-1,-3,9,4,0,-1,-32,-4
1523178335623171,-30,2,-2,-5,6,1,12,-21
1523178335623171,7,-3,-31,-18,-9,-11,-11,16
1523178335635526,-12,-6,19,15,-10,0,-1,-4
1523178335635526,11,7,-38,-38,9,9,19,32
1523178335644226,-8,-2,12,31,3,-3,-2,-46
1523178335644226,-5,3,-8,-19,-11,-3,-4,4
1523178335658262,-13,10,9,12,-1,-7,-10,-27
1523178335658262,-5,5,-2,13,-1,8,33,13
1523178335660267,32,0,3,4,4,-5,-35,43
1523178335660267,-40,1,-7,-18,-4,-2,78,-24
1523178335681598,77,5,-23,-17,1,10,19,18
1523178335681598,-12,-18,34,5,4,-16,-37,-24
1523178335683332,-2,-1,-28,-4,-2,8,13,-5
1523178335683332,-16,-2,45,9,-3,-4,3,4
1523178335695634,-33,-9,-2,-16,-2,3,20,1
1523178335695634,92,-9,9,10,1,-6,-19,-3
1523178335703694,13,13,6,5,3,15,-25,25
1523178335703694,12,-6,-7,-49,-6,-4,-17,-4
1523178335718734,-42,-27,35,19,-3,-6,20,-15
1523178335718734,18,11,-41,16,-2,-4,6,8
1523178335720430,-7,9,-1,-3,0,-4,-9,-15
1523178335720430,-26,-11,7,2,4,14,31,0
1523178335741483,25,12,-14,-9,-1,-12,-8,22
1523178335741483,-117,-23,16,12,0,12,-29,-49
1523178335742487,-3,-4,-11,-22,1,6,25,31
1523178335742487,7,2,-35,-8,-3,-3,9,-5
1523178335763835,-4,-8,19,-1,-4,-19,-61,-20
1523178335763835,-26,4,12,16,2,18,10,1
1523178335765548,-29,-21,2,8,-4,-2,27,6
1523178335765548,-7,-14,-12,1,-1,2,-9,-16
1523178335778880,68,26,-27,-3,-4,-6,-24,5
1523178335778880,-18,-5,24,-8,1,0,-3,1
1523178335780587,34,12,6,10,5,3,17,-4
1523178335780587,1,3,23,26,3,9,-47,13
1523178335801942,25,4,-9,-11,4,0,11,-18
1523178335801942,43,2,-24,-2,-10,-15,-7,20
1523178335802647,6,3,-21,-17,-6,-3,-51,-45
1523178335802647,12,-3,20,6,-3,-3,28,14
1523178335824023,-23,5,1,13,1,6,-6,24
1523178335824023,17,-2,-24,-22,3,0,0,-17
1523178335825710,-26,-2,-2,-13,-4,-13,-16,-37
1523178335825710,17,4,6,34,0,-4,-10,-9
1523178335839049,-13,-4,-6,-32,-2,6,7,20
1523178335839049,-20,2,-5,-6,-10,-2,36,-4
1523178335840748,32,17,1,13,6,2,-33,-7
1523178335840748,-20,3,-13,-5,-3,-13,-9,-14
1523178335861897,-11,5,7,23,4,14,-6,21
1523178335861897,-1,-16,-9,-48,2,13,35,11
1523178335862807,-21,3,1,11,-5,-7,-2,13
1523178335862807,-18,7,-10,-5,-1,-3,-11,-32
1523178335884191,-53,2,20,7,-1,0,-12,-20
1523178335884191,1,-7,-8,13,-4,-21,-55,-10
1523178335885868,-19,-7,5,-22,-5,8,96,33
1523178335885868,41,-6,-19,-16,-6,-9,-52,-3
1523178335898903,-8,-12,19,13,6,4,49,23
1523178335898903,-57,5,-19,3,2,0,1,-39
1523178335901037,7,-3,-3,-3,-6,-16,-39,-6
1523178335901037,5,-11,13,8,-4,0,6,0
1523178335921967,-18,-27,-10,-8,-11,-17,-20,-24
1523178335921967,26,16,-4,-2,8,7,24,6
1523178335922969,11,-7,-7,20,-13,-10,11,8
1523178335922969,-25,-4,-24,-20,11,10,66,3
1523178335944024,-16,5,-17,-11,4,9,-27,-25
1523178335944024,13,10,3,2,-3,-10,-24,12
1523178335945027,-17,2,6,5,2,1,-11,-11
1523178335945027,22,3,-3,8,-9,-7,16,14
1523178335958060,9,1,-13,11,0,-8,-29,23
1523178335958060,14,1,17,-15,-10,-6,3,-1
1523178335965079,-50,-3,-6,5,14,-4,-62,-30
1523178335965079,14,4,7,-2,-4,1,14,25
1523178335981121,1,-42,-22,-13,-4,-5,-66,-5
1523178335981121,75,7,23,28,8,17,44,6
1523178335983127,0,-13,5,1,-12,-12,-12,17
1523178335983127,7,4,-8,-25,0,5,-72,-4
1523178336004477,-2,1,-5,0,4,3,6,-7
1523178336004477,-5,-8,4,5,-3,-13,-19,-32
1523178336005186,-2,-14,-5,12,2,5,15,5
1523178336005186,4,12,13,-1,-3,-3,8,-5
1523178336018545,6,-2,-18,1,-7,-5,34,19
1523178336018545,-41,-9,21,-4,-1,-3,-59,-1
1523178336025238,43,2,-32,0,5,0,23,-5
1523178336025238,-37,-7,22,-5,-2,-4,-38,-16
1523178336041280,29,4,-7,-19,-7,9,44,20
1523178336041280,-24,2,6,3,3,-5,45,11
1523178336043285,30,-4,7,-1,-7,3,-22,-8
1523178336043285,58,-1,1,14,10,3,-26,17
1523178336064525,-9,4,15,5,12,17,-14,30
1523178336064525,0,1,-52,-8,-4,-6,23,3
1523178336065348,-4,9,16,27,-4,2,9,-6
1523178336065348,9,-10,-25,-57,-2,2,-13,-1
1523178336078675,-1,7,-4,-2,-18,-15,23,-8
1523178336078675,-12,-8,11,-4,8,1,-45,11
1523178336085510,23,-2,12,-3,2,-3,-34,48
1523178336085510,60,1,18,27,-7,2,33,1
1523178336101677,-89,1,-39,1,5,10,34,-21
1523178336101677,20,-15,1,-12,-9,-11,-33,-2
1523178336102444,16,5,-8,-4,2,-8,4,-2
1523178336102444,-30,-7,47,51,5,5,8,3
1523178336123825,15,17,-14,-53,-4,-7,-7,-19
1523178336123825,-17,-7,-1,17,-5,-2,31,3
1523178336125504,3,-3,-1,-4,4,6,-30,-4
1523178336125504,-118,-7,-25,-6,-2,-8,30,2
1523178336139545,64,14,12,19,6,14,53,21
1523178336139545,-24,-2,-3,-2,0,1,-6,-25
1523178336146562,-3,-3,28,-14,-4,-4,22,-8
1523178336146562,-14,3,-45,-4,-10,-15,9,7
1523178336161636,27,-8,18,9,2,-3,-27,-21
1523178336161636,-14,2,7,-1,14,9,33,13
1523178336162606,-3,9,-10,-2,0,7,25,-15
1523178336162606,9,-4,-8,-30,-4,-8,-45,-15
1523178336191681,-27,-6,7,26,-12,-19,7,-10
1523178336191681,16,2,12,-10,-13,-14,-47,-6
1523178336192682,14,-17,-7,5,7,16,29,-1
1523178336192682,11,20,5,8,0,3,-8,-1
1523178336197697,-6,-10,-5,-34,11,9,14,6
1523178336197697,4,10,26,26,-9,2,-55,15
1523178336205011,-11,-9,-26,-13,1,-8,2,-12
1523178336205011,-5,3,-25,6,4,-2,-31,1
1523178336221915,33,5,21,4,-1,2,-15,36
1523178336221915,-30,-5,-16,-21,-3,-3,-7,4
1523178336222763,-23,3,20,8,-5,-6,2,3
1523178336222763,66,-3,-1,7,6,-2,-7,-20
1523178336244167,-25,-28,4,16,1,-4,-19,-25
1523178336244167,15,-5,7,-4,2,4,31,-12
1523178336245829,11,5,4,-15,-3,6,60,22
1523178336245829,-2,-7,4,18,0,3,26,3
1523178336257855,99,15,-2,10,-4,-3,-27,-1
1523178336257855,-7,-9,-7,-22,0,6,40,-1
1523178336264876,5,-3,-8,-13,-2,-12,-61,1
1523178336264876,-7,3,-2,8,1,7,26,17
1523178336280918,44,12,1,-4,-1,4,-4,6
1523178336280918,3,2,14,4,5,3,-3,12
1523178336282923,-11,4,-11,9,5,-7,-22,-5
1523178336282923,-21,-9,1,-17,-4,3,-42,6
1523178336304286,-30,3,3,6,-6,0,-4,10
1523178336304286,-3,-17,7,2,1,-2,6,-60
1523178336304984,-12,-20,11,-8,5,11,-7,-4
1523178336304984,47,3,-3,33,-2,-2,59,10
1523178336318100,-25,-7,-7,-63,-3,-3,-32,-32
1523178336318100,19,10,-5,20,-6,-7,-19,26
1523178336326037,15,-7,12,-7,2,1,28,23
1523178336326037,18,5,-14,3,11,2,-32,11
1523178336341077,-28,-9,16,39,-4,5,15,-11
1523178336341077,-12,-4,-37,-37,-3,1,-5,-13
1523178336343083,-21,1,-9,12,-3,-6,-24,-15
1523178336343083,13,5,3,-28,-7,-5,15,28
1523178336364206,-19,11,20,15,-1,-11,-72,-6
1523178336364206,12,-22,20,9,3,4,28,25
1523178336365140,-9,3,-2,5,-11,1,30,1
1523178336365140,-13,-1,10,-4,6,9,25,-37
1523178336377470,-23,-3,-16,-9,-8,-5,-22,-4
1523178336377470,-5,10,-12,4,6,-8,-54,-11
1523178336386364,97,-1,-5,-14,11,19,27,3
1523178336386364,-76,-10,35,8,-7,-5,-23,-22
1523178336401553,42,0,-27,-16,0,0,54,-5
1523178336401553,33,1,-11,-1,-6,-4,10,12
1523178336407257,7,4,2,3,-7,-6,-39,2
1523178336407257,-36,-15,0,-12,0,3,35,-34
1523178336423612,10,5,-17,19,-1,-4,0,-5
1523178336423612,6,15,7,3,-2,4,-3,20
1523178336425302,-21,-10,-8,-50,-10,-15,-36,-42
1523178336425302,6,-3,-8,3,3,6,-42,9
1523178336437643,-6,2,11,8,0,-5,6,2
1523178336437643,8,4,13,17,-2,-6,-27,-3
1523178336446358,-9,-1,-21,8,-4,2,-28,-16
1523178336446358,16,5,-11,-18,1,-2,45,48
1523178336460714,-33,-8,-4,-1,-4,-5,-12,3
1523178336460714,-6,15,-19,-8,-1,-9,20,-7
1523178336468755,-11,7,20,15,0,18,-24,23
1523178336468755,-20,13,-33,-13,-6,-10,-26,-27
1523178336484462,51,17,8,-6,-2,-2,19,20
1523178336484462,-57,-2,-5,41,-2,0,30,28
1523178336485462,-13,-24,-36,-83,-4,-4,-9,-2
1523178336485462,27,2,10,26,-6,-9,9,23
1523178336497781,-25,-9,4,-16,8,11,10,-26
1523178336497781,-5,-7,1,3,-2,0,-25,-15
1523178336506519,-25,13,-4,23,-2,-10,16,28
1523178336506519,35,-6,9,-10,-1,9,6,11
1523178336521853,5,-2,3,10,-4,-7,-32,7
1523178336521853,-6,-6,2,-9,10,10,41,23
1523178336522563,-9,0,20,15,2,-4,-14,-55
1523178336522563,21,-8,-9,-1,-4,-3,11,-16
1523178336543892,-21,12,-17,2,-3,-10,38,6
1523178336543892,7,1,12,3,3,16,15,-9
1523178336545626,10,3,2,-15,-3,-2,-17,28
1523178336545626,10,-1,3,15,-5,-7,-38,-5
1523178336565922,4,-13,3,-23,1,0,18,2
1523178336565922,-48,12,-18,-15,0,2,40,14
1523178336566678,16,-4,-8,19,-4,-3,22,10
1523178336566678,-32,12,19,1,5,-3,-5,-39
1523178336580715,-15,-2,3,6,-3,12,20,5
1523178336580715,43,4,-20,-10,5,4,-26,-6
1523178336581717,5,0,11,12,-4,-11,-40,19
1523178336581717,-12,-11,-2,-21,-3,0,13,10
1523178336603831,23,5,4,-4,-6,0,4,-3
1523178336603831,-44,-9,11,0,-2,-8,-21,-31
1523178336603831,46,5,1,10,3,-13,-1,-19
1523178336603831,12,1,-3,10,-5,21,86,10
1523178336626065,55,-3,-10,-20,1,-6,-4,-28
1523178336626065,-19,2,-2,-5,3,2,0,25
1523178336626065,2,-16,30,11,4,0,82,18
1523178336626065,26,13,-7,6,-2,-7,-69,-15
1523178336640874,-1,-2,2,-7,-5,1,14,5
1523178336640874,68,0,-29,-4,-3,-5,8,8
1523178336640874,-6,18,25,6,-3,-2,-10,-21
1523178336640874,-4,-3,-15,6,-6,-9,-36,-1
1523178336663225,-55,-1,9,18,14,7,21,-12
1523178336663225,20,0,-10,-28,-5,-1,21,-6
1523178336663937,-43,-8,-8,4,-2,-2,-40,-16
1523178336663937,-2,-8,10,-10,-2,1,32,8
1523178336686292,-8,-8,-11,2,-3,1,-34,27
1523178336686292,14,4,19,20,-3,-8,-1,-24
1523178336686292,-5,4,-19,-14,0,-3,3,-33
1523178336686292,-19,5,-4,13,0,4,16,15
1523178336701341,2,-21,1,-12,0,1,-2,24
1523178336701341,9,17,-3,1,1,-6,-8,12
1523178336701341,-2,3,5,11,-2,4,15,12
1523178336701341,3,-8,-21,-17,-1,-13,-53,-1
1523178336723397,-16,18,-26,2,-10,-12,-1,-48
1523178336723397,77,8,8,5,-3,-7,-58,20
1523178336724096,36,1,-11,-9,-8,0,-26,1
1523178336724096,-41,-5,0,4,6,7,-4,-29
1523178336746367,-10,2,-5,-13,2,-9,-38,-8
1523178336746367,-40,-33,-12,-4,-3,4,7,8
1523178336746367,-16,8,3,10,4,3,11,-4
1523178336746367,29,-2,-18,-10,0,-5,-36,-22
1523178336761195,-2,-23,12,16,-2,3,13,30
1523178336761195,-14,3,11,3,-4,-5,-28,-16
1523178336761195,-38,-24,12,-24,0,-1,34,12
1523178336761195,15,3,-6,5,2,7,1,0
1523178336783519,-1,3,8,3,2,1,-27,6
1523178336783519,-8,-2,-7,-7,-6,-7,-22,-2
1523178336784256,-17,7,-12,10,-8,-10,-45,4
1523178336784256,40,2,15,-5,3,12,-1,22
1523178336805609,-9,4,-9,-9,8,2,27,-14
1523178336805609,6,-15,16,15,-1,2,-25,-16
1523178336806316,0,7,-6,-24,-8,4,54,13
1523178336806316,-52,-1,6,5,-1,-6,16,-14
1523178336820636,20,12,-6,3,4,7,54,7
1523178336820636,27,-20,44,17,7,13,12,-13
1523178336821358,-36,-8,-7,-1,2,0,-10,-23
1523178336821358,29,-4,-9,-6,1,-6,8,17
1523178336843749,-1,3,-19,0,-8,-7,-57,-8
1523178336843749,-26,5,-10,-5,-8,-18,-27,-20
1523178336843749,18,-3,1,-11,3,5,23,8
1523178336843749,-19,-4,2,17,5,2,-15,-6
1523178336865769,-3,6,-10,-17,0,-1,33,-20
1523178336865769,6,-9,21,12,-8,-5,14,2
1523178336866474,-46,9,-16,10,5,3,-21,-62
1523178336866474,16,1,6,8,0,-2,15,-5
1523178336880845,9,-14,5,-16,-8,-10,-33,-5
1523178336880845,-32,-1,-8,-3,2,2,-16,-18
1523178336881514,23,2,-6,5,-9,-3,12,34
1523178336881514,-20,-7,16,2,1,0,24,-16
1523178336903763,-51,1,18,-3,-4,2,-26,0
1523178336903763,75,-4,-36,-14,4,-5,-10,2
1523178336903763,-20,13,6,14,4,4,26,10
1523178336903763,9,9,-13,-34,-11,-17,-15,5
1523178336925631,5,-2,3,25,-5,-11,-12,6
1523178336925631,4,12,0,-8,0,4,32,50
1523178336926636,-52,-2,1,-3,1,-4,-35,-46
1523178336926636,89,8,-8,-1,-7,-13,-52,18
1523178336940672,-5,8,6,5,9,20,82,15
1523178336940672,-28,-1,7,-4,-3,-8,9,2
1523178336941673,37,-6,-20,-16,2,7,-30,3
1523178336941673,-42,-7,12,-3,-2,0,-11,-28
1523178336963838,18,-10,2,8,-4,-13,-41,-20
1523178336963838,-8,8,6,-1,4,11,26,-13
1523178336963838,-34,-17,15,-5,4,0,16,11
1523178336963838,-33,-23,32,6,0,-3,7,-21
1523178336986174,-13,-16,-25,3,-6,3,-1,-10
1523178336986174,-3,-5,0,-7,-16,-8,-2,-5
1523178336986174,-42,19,-8,-4,13,13,11,14
1523178336986174,-11,-15,13,-6,7,6,18,11
1523178337001247,8,1,1,-14,-1,-1,-1,14
1523178337001247,-23,1,-7,-7,-1,-1,2,-7
1523178337001835,60,-5,4,18,-5,-8,-11,3
1523178337001835,12,0,-4,18,-2,-5,18,44
1523178337023891,12,11,2,-4,-2,-3,-20,-25
1523178337023891,5,5,-13,-19,7,20,87,-11
1523178337023891,27,2,-1,-2,1,0,13,17
1523178337023891,-1,-2,-9,24,-1,-3,-45,5
1523178337046244,10,4,17,-12,-3,-6,13,-1
1523178337046244,-3,-6,-29,-8,0,-6,-25,-1
1523178337046244,51,-1,-8,2,1,-3,-4,3
1523178337046244,-37,6,-4,-6,-7,1,43,1
1523178337061314,15,7,11,6,5,3,46,14
1523178337061314,18,-1,0,6,4,7,-5,-3
1523178337061314,-1,-3,11,1,-2,-8,-52,-45
1523178337061314,-6,6,-16,-2,-6,-4,1,-4
1523178337083382,-7,-10,8,3,-6,-12,-46,-12
1523178337083382,105,11,19,-3,2,8,19,1
1523178337084052,19,-19,6,9,-6,1,-1,-19
1523178337084052,37,23,-1,-14,18,27,99,54
1523178337106410,-28,-10,12,43,3,3,-37,-42
1523178337106410,-20,-2,-15,4,-5,-8,-14,35
1523178337106410,-2,1,-9,-18,-9,-8,27,10
1523178337106410,-6,9,-3,11,3,-5,-48,-17
1523178337120497,32,10,-7,-9,2,9,70,20
1523178337120497,-110,-19,5,28,-4,-13,-30,-9
1523178337128523,16,3,-3,-9,-6,1,-36,-1
1523178337128523,-26,-5,-14,-28,1,-4,-17,-22
1523178337143543,6,8,-1,15,1,-6,2,14
1523178337143543,-4,-11,-19,-37,-9,-15,-91,-22
1523178337144212,16,-2,-4,4,11,4,40,17
1523178337144212,-41,-2,6,3,-4,-1,-28,-5
1523178337166272,30,11,11,2,0,4,-23,-8
1523178337166272,21,10,-13,-10,-4,-1,8,0
1523178337166272,-31,5,-4,7,-4,-8,-5,4
1523178337166272,73,11,10,-30,0,-3,15,37
1523178337180308,23,-7,17,18,-3,0,-29,-20
1523178337180308,21,6,5,13,4,11,64,65
1523178337181311,2,-5,-23,-12,-1,-9,-37,-10
1523178337181311,-13,1,8,0,-12,9,47,8
1523178337203713,13,-5,-10,-10,8,-4,-30,10
1523178337203713,2,11,18,10,1,8,6,-2
1523178337203713,35,9,0,-5,3,1,39,7
1523178337203713,-32,-10,-12,7,-3,-9,-70,-36
1523178337225708,-21,-13,11,-38,-12,-8,-2,14
1523178337225708,-19,4,-30,31,12,3,9,-26
1523178337226432,-20,-4,-5,-34,-7,-7,-51,-12
1523178337226432,3,-5,-5,15,-4,-5,1,-6
1523178337240467,-30,10,26,20,-2,-1,21,7
1523178337240467,4,-14,-46,-38,-1,-14,-39,-24
1523178337241472,-7,3,23,22,-1,2,24,41
1523178337241472,75,7,-1,2,0,0,-4,45
1523178337263530,-25,-13,-16,-2,2,0,-21,-8
1523178337263530,9,4,6,-15,-5,-9,-15,-3
1523178337264590,83,-1,0,14,0,3,0,6
1523178337264590,-42,-3,-18,-17,-6,-11,-9,-17
1523178337285589,19,-19,-5,2,1,8,32,25
1523178337285589,-14,4,14,-12,-3,-4,-18,-15
1523178337286590,-54,-2,10,21,1,-1,-4,4
1523178337286590,3,-7,5,6,-2,0,39,-15
1523178337300629,44,8,-24,-20,-3,-6,-31,2
1523178337300629,-39,-10,21,5,1,11,59,-20
1523178337301631,11,-11,-11,-1,-2,3,14,11
1523178337301631,-7,-5,2,-6,3,-2,2,-17
1523178337323034,-27,4,-10,-1,-1,0,0,20
1523178337323034,30,1,11,10,2,6,25,14
1523178337323693,-12,12,-5,-3,-2,2,31,-7
1523178337323693,-34,-8,-14,-7,0,-1,-31,-50
1523178337346018,-5,-4,-8,-12,-10,-5,11,10
1523178337346018,7,-11,13,1,3,-13,-38,0
1523178337346752,-55,1,8,13,-1,-1,-6,-31
1523178337346752,7,-6,-20,-28,-2,-3,10,-5
1523178337360064,-21,-9,-4,15,-3,-2,-34,-17
1523178337360064,-37,3,25,-3,-5,-2,5,0
1523178337368860,11,0,-12,-5,-4,-14,-26,-10
1523178337368860,31,-20,16,13,3,9,24,9
1523178337383120,0,5,-3,0,3,5,-25,1
1523178337383120,-49,-9,-1,-4,-2,-4,-8,-12
1523178337383851,114,7,-11,-8,-7,-4,-3,17
1523178337383851,-49,2,18,21,1,2,5,11
1523178337406216,23,-3,-11,-41,0,2,2,-24
1523178337406216,18,-5,-2,19,-3,4,37,26
1523178337406216,-8,-4,1,-7,0,2,22,0
1523178337406216,9,3,-8,14,-9,-4,-5,1
1523178337420251,-2,2,1,4,7,-5,-6,-18
1523178337420251,-11,-2,5,4,-2,-2,-23,4
1523178337428208,-12,-5,-18,-1,2,11,6,-40
1523178337428208,-6,-7,28,-5,-4,-1,25,6
1523178337443314,-38,-8,-6,11,1,-2,19,4
1523178337443314,38,8,-23,-16,1,6,-36,1
1523178337444015,-24,-5,29,31,2,-2,-5,15
1523178337444015,12,0,-10,-16,-1,-7,-34,-6
1523178337466380,9,20,-12,-1,-2,-1,16,-3
1523178337466380,-8,-1,-4,23,-2,-11,-65,-14
1523178337466380,-19,-8,4,-38,4,18,39,35
1523178337466380,42,-5,-10,-1,-5,-4,-26,-30
1523178337480106,-63,-4,6,5,1,-4,15,4
1523178337480106,39,5,-2,6,-5,-5,-22,45
1523178337488428,-8,-6,9,0,-3,-11,-16,-17
1523178337488428,16,5,-19,-5,6,2,26,12
1523178337503509,55,-4,22,6,-4,3,-64,43
1523178337503509,-5,-8,4,-4,-2,-3,41,-8
1523178337504171,66,11,-1,-2,7,2,-29,0
1523178337504171,-83,-8,6,-1,-2,8,39,-7
1523178337526346,23,-2,-3,4,-3,-8,-30,-35
1523178337526346,9,3,4,-10,-1,-1,4,-12
1523178337526346,3,-2,-17,-9,-9,-1,-8,12
1523178337526346,7,1,-3,4,-1,-9,-9,4
1523178337540303,-9,6,9,2,3,5,31,2
1523178337540303,15,-1,-11,13,3,7,-18,-9
1523178337548485,-22,0,-3,-40,-4,-4,22,5
1523178337548485,30,5,0,8,2,6,-50,2
1523178337563591,-37,-3,-3,-2,-1,0,29,-2
1523178337563591,1,3,5,-3,-2,-2,3,-6
1523178337563591,2,-12,15,13,1,3,11,-19
1523178337563591,-20,7,4,-4,2,0,-3,-6
1523178337585687,30,8,-14,-3,-3,-3,8,-31
1523178337585687,21,-2,12,-3,2,2,31,-3
1523178337586387,4,2,4,-1,0,-9,-31,52
1523178337586387,-12,-5,-2,0,-3,-2,26,6
1523178337600670,19,8,-17,7,-3,-3,10,-9
1523178337600670,0,-4,18,-6,3,3,29,9
1523178337608447,-15,-8,-46,-1,-2,-11,19,-22
1523178337608447,29,4,16,22,0,12,52,34
1523178337623485,-28,-9,-16,-33,-2,0,-27,1
1523178337623485,-21,-3,-1,-2,0,0,-10,-1
1523178337623485,-31,-4,11,9,-3,-1,-17,-14
1523178337623485,22,7,-10,-3,3,-1,29,-3
1523178337645804,63,3,6,5,-3,-4,-10,0
1523178337645804,-92,-13,-15,-15,-4,6,7,-14
1523178337646551,20,2,14,-7,-2,-5,-24,6
1523178337646551,16,-3,1,-3,-4,1,-23,9
1523178337668869,-2,-12,4,14,4,4,17,-13
1523178337668869,17,4,-1,-7,-5,-7,6,-8
1523178337669609,-16,-3,0,8,1,-2,3,-6
1523178337669609,-21,5,-13,-15,-8,-11,-27,9
1523178337683839,40,-14,4,-2,-2,-4,-4,54
1523178337683839,-38,3,-3,2,2,0,-45,-41
1523178337683839,-3,-1,1,13,1,6,15,-13
1523178337683839,10,-3,-2,-8,-2,-5,-24,-8
1523178337705924,41,1,-5,0,0,-14,-11,16
1523178337705924,20,0,-7,1,0,6,7,-6
1523178337706708,-14,10,-3,-5,-1,3,-6,13
1523178337706708,-12,-6,1,2,2,-3,-22,-4
1523178337729024,-51,0,-1,0,-2,-6,-31,-31
1523178337729024,32,9,7,-3,4,11,72,-2
1523178337729774,5,-8,0,20,-6,-12,20,-25
1523178337729774,-1,-6,-11,-19,-6,12,11,13
1523178337743101,-48,-3,14,31,14,10,13,-6
1523178337743101,29,5,11,-9,-5,-8,-14,1
1523178337743806,-7,-12,-8,-4,-4,-1,0,-8
1523178337743806,-17,1,-14,-3,1,-11,-19,-27
1523178337766102,40,6,0,-19,-8,1,-15,-1
1523178337766102,5,0,-1,9,-1,6,5,32
1523178337766102,42,0,-3,-1,7,4,48,1
1523178337766102,46,-1,12,16,-3,-5,-35,-7
1523178337789202,-85,-2,3,2,2,10,41,-7
1523178337789202,35,0,-11,-7,-2,-9,5,27
1523178337789932,-16,18,0,-6,-4,9,1,-21
1523178337789932,46,-18,-1,-12,-3,-6,-18,7
1523178337803239,24,3,14,23,-4,-4,-19,6
1523178337803239,-25,-6,-18,-18,-2,-3,-14,-8
1523178337803965,-12,-1,11,6,-2,1,-11,43
1523178337803965,-7,2,-5,-4,0,0,16,-1
1523178337826327,-8,-3,-14,-8,-7,-3,-20,-17
1523178337826327,-20,-8,12,11,-2,4,9,-10
1523178337827029,-15,-2,-12,-7,2,-5,-8,-2
1523178337827029,-21,-10,0,-22,-6,6,11,-33
1523178337849376,12,5,6,-4,5,-10,-23,-8
1523178337849376,8,2,2,16,-6,13,60,13
1523178337849376,3,-5,-23,-22,7,-16,-39,-11
1523178337849376,-18,-2,1,2,-25,1,49,5
1523178337863124,-9,-4,-1,-1,8,13,4,-3
1523178337863124,31,1,17,4,21,-2,-24,-11
1523178337864128,-69,-3,-8,0,4,11,-5,3
1523178337864128,-40,-7,9,2,-2,-10,7,-16
1523178337886340,17,1,-18,-30,-16,-8,-37,19
1523178337886340,-3,-1,3,6,-12,-15,-32,6
1523178337886340,23,-1,-5,14,-2,1,-6,0
1523178337886340,2,3,-5,-23,8,1,-26,2
1523178337909534,-30,11,2,16,0,1,51,-15
1523178337909534,19,0,-10,-10,-2,-6,-28,-20
1523178337909534,16,4,0,-2,-7,-23,-42,-3
1523178337909534,-10,0,10,15,5,5,35,16
1523178337923283,108,5,0,3,3,6,-21,-6
1523178337923283,9,-3,-16,-16,-7,-5,-25,-29
1523178337924284,44,-5,5,4,-5,-3,24,13
1523178337924284,12,19,-5,4,4,-4,-20,20
1523178337945617,3,-9,17,1,1,3,25,0
1523178337945617,0,-1,8,2,1,-4,-29,38
1523178337946347,-35,2,-11,0,2,13,30,-37
1523178337946347,12,-7,-11,-3,-3,-19,-49,-13
1523178337968669,-23,-4,-8,-11,1,9,43,14
1523178337968669,14,1,4,15,-4,-8,-36,-18
1523178337969408,20,6,5,-16,-1,0,18,24
1523178337969408,42,5,-3,-2,0,2,-5,16
1523178337983722,-25,-7,-12,-3,-5,-20,-8,-30
1523178337983722,-24,-2,3,9,2,5,11,-1
1523178337983722,15,0,17,2,-2,-1,-11,3
1523178337983722,-5,-4,-6,6,-3,0,10,26
1523178338005664,20,11,18,-6,4,5,-2,32
1523178338005664,-31,-26,-1,3,-2,-1,35,-42
1523178338006507,-4,-4,-2,9,-3,-3,4,5
1523178338006507,-29,-3,1,-13,-1,4,21,-12
1523178338028831,-8,-12,-16,-3,-9,-4,43,22
1523178338028831,-4,3,-17,-11,3,5,25,7
1523178338029566,2,-1,19,13,-1,0,7,-22
1523178338029566,15,-5,1,10,5,4,-36,-18
1523178338043822,-1,1,-32,-13,-3,-1,6,-5
1523178338043822,-40,1,-4,9,-7,-9,-23,-6
1523178338043822,40,-5,-21,-29,-5,10,29,11
1523178338043822,-73,-1,11,12,12,9,2,12
1523178338065920,31,4,14,1,-3,0,-10,-23
1523178338065920,16,-4,-22,-18,-7,-11,-26,8
1523178338066666,-20,-5,10,14,2,4,-25,-8
1523178338066666,-6,12,7,0,-1,-4,-31,7
1523178338088989,-29,-9,-3,0,2,2,2,-5
1523178338088989,-10,-3,-1,-6,1,-5,65,-3
1523178338089726,0,4,17,16,1,13,-30,8
1523178338089726,-14,-9,-31,-25,-6,-9,-14,-3
1523178338104055,11,0,-2,17,-1,-11,-53,0
1523178338104055,-5,7,-4,-2,1,4,43,-36
1523178338104766,-36,-8,3,-8,-6,-22,-47,9
1523178338104766,9,12,25,25,3,14,23,-20
1523178338126116,-38,-2,-36,-33,-2,-6,-30,0
1523178338126116,25,2,9,-4,1,4,-3,24
1523178338126116,-22,-3,-2,4,-3,-8,-21,-16
1523178338126116,-12,-4,8,11,1,-4,7,-36
1523178338148882,36,6,8,4,-1,3,38,-3
1523178338148882,-60,-4,-5,-10,-5,-6,-15,-6
1523178338149885,10,1,13,3,-2,4,-16,0
1523178338149885,27,1,-3,-2,-5,2,-5,-10
1523178338162921,-13,-7,1,0,8,2,-38,5
1523178338162921,34,-2,-1,-4,-2,-4,-30,55
1523178338163923,-25,-4,-3,7,-2,-2,-4,-25
1523178338163923,27,-8,2,-15,-2,-5,20,-17
1523178338186238,4,-3,9,1,-9,-14,-27,-33
1523178338186238,-77,-5,-10,-18,2,10,-23,-3
1523178338186238,31,-1,-3,0,0,1,52,-2
1523178338186238,35,2,-9,2,-1,-2,-20,-3
1523178338209363,21,0,-1,5,4,7,56,30
1523178338209363,53,6,13,2,-3,-4,-9,-11
1523178338209363,74,15,-19,-9,-4,-3,-7,35
1523178338209363,-62,-9,-16,-1,-9,-5,32,-5
1523178338223117,-1,-2,36,6,3,4,29,22
1523178338223117,15,0,-29,-3,0,9,16,3
1523178338224081,2,2,3,-5,3,-4,-13,-5
1523178338224081,20,0,3,10,-1,-2,-8,24
1523178338246195,12,-11,5,-6,-3,-8,-4,-24
1523178338246195,22,6,9,5,-5,-2,-26,18
1523178338246195,-14,-2,-1,18,10,11,56,-9
1523178338246195,10,0,-9,-43,1,-2,-9,-2
1523178338269519,-24,11,40,28,-3,3,20,-15
1523178338269519,31,-8,-20,1,-2,1,-43,-31
1523178338269519,12,-7,-7,-4,-5,1,29,5
1523178338269519,-5,2,5,5,3,1,-3,8
1523178338283525,-4,-3,-18,-7,-1,3,-7,-1
1523178338283525,6,-2,5,-6,-1,-6,-6,-2
1523178338284244,-4,0,1,3,-5,-5,-24,-3
1523178338284244,42,-5,1,11,6,2,10,32
1523178338305376,13,-1,-9,-15,0,1,-14,4
1523178338305376,-61,0,5,4,-2,10,32,11
1523178338306301,8,-11,-3,1,0,-3,-20,-10
1523178338306301,5,6,10,-10,-1,-3,9,5
1523178338328627,-13,-5,-15,2,-2,-3,-27,-18
1523178338328627,25,0,1,0,1,-3,15,-4
1523178338329361,-2,11,2,-4,-5,-8,-18,-19
1523178338329361,-9,-1,3,11,-3,-1,4,7
1523178338342698,-2,-19,1,12,-1,-2,1,7
1523178338342698,1,-12,5,-14,6,3,4,-4
1523178338350719,-12,-3,-4,-8,-1,-1,4,-1
1523178338350719,12,0,3,10,0,-1,-8,-8
1523178338365724,-4,2,-1,15,0,4,23,-5
1523178338365724,-1,-8,-11,-12,-3,-15,-47,8
1523178338366465,-31,0,18,9,3,2,7,-4
1523178338366465,26,2,-13,-10,-2,7,75,7
1523178338388651,-43,-7,10,6,5,-2,-6,0
1523178338388651,-12,10,17,8,0,8,0,34
1523178338389521,10,-5,-12,-9,-5,-9,-33,2
1523178338389521,-59,-7,6,22,0,3,-5,-6
1523178338402836,-27,-10,-8,-28,-4,3,36,-29
1523178338402836,38,-3,4,18,-2,-2,40,-9
1523178338410879,-27,-3,-1,-31,1,1,7,2
1523178338410879,-18,1,6,5,-6,-5,-21,-9
1523178338425616,74,7,-29,1,4,-4,-37,24
1523178338425616,-25,-1,-3,-2,-4,-2,9,-29
1523178338426624,6,-3,2,11,7,6,-13,-6
1523178338426624,20,0,-9,-9,-3,-6,13,-1
1523178338448943,-17,15,-12,-13,-3,-3,-5,7
1523178338448943,-2,3,11,6,-2,-3,4,-4
1523178338449682,13,-5,-4,-1,-13,-4,1,1
1523178338449682,11,-4,-18,-7,12,-1,-16,-12
1523178338462718,-18,4,1,3,-5,4,41,-16
1523178338462718,14,7,5,11,1,-4,-19,-13
1523178338470742,0,-1,-7,-7,-3,1,47,28
1523178338470742,-6,-1,0,16,-1,-3,-18,-3
1523178338486119,1,-2,9,-8,-3,-3,-20,4
1523178338486119,3,1,-2,0,4,1,-22,-11
1523178338486783,82,13,-1,13,2,-8,4,0
1523178338486783,-7,-11,-7,-9,-1,16,-10,1
1523178338509153,-16,-2,-5,-12,0,-4,2,27
1523178338509153,-8,5,24,-2,-5,-5,56,-56
1523178338509845,72,14,4,13,-3,-10,-18,29
1523178338509845,30,-4,-7,-14,-5,1,1,-25
1523178338522914,15,-9,-4,14,0,0,-38,9
1523178338522914,-26,-2,-19,-8,-1,-2,11,22
1523178338531168,-46,-8,2,-2,-1,-2,-15,-13
1523178338531168,-9,6,5,-6,3,-9,-18,-3
1523178338546203,-24,-14,8,10,-3,-5,-13,18
1523178338546203,22,0,-14,-22,-4,6,52,17
1523178338546203,-26,8,2,7,2,1,-9,-9
1523178338546203,-7,-11,-9,2,2,4,-9,20
1523178338569275,-55,-12,-1,-5,-2,-8,-15,-29
1523178338569275,-37,-3,-2,6,-4,-5,-29,-6
1523178338570002,44,-4,-13,-13,-6,-10,1,-23
1523178338570002,-18,2,12,9,0,4,-37,-26
1523178338583087,20,3,-32,-30,2,1,54,4
1523178338583087,17,-5,0,4,-3,6,-23,29
1523178338591068,-53,-7,3,-9,-1,-8,0,-19
1523178338591068,33,-2,3,8,-2,-3,8,16
1523178338606134,9,0,8,9,2,7,2,-9
1523178338606134,8,0,-5,-2,0,-5,-13,12
1523178338606134,-11,-3,-5,-6,0,0,-23,-26
1523178338606134,-1,3,3,3,4,1,18,17
1523178338629161,28,11,4,-4,-6,2,1,-2
1523178338629161,-69,-24,-4,-3,3,-1,-6,-16
1523178338629161,-1,-20,15,8,-3,0,3,-6
1523178338629161,21,8,-2,0,-5,-3,45,-8
1523178338651488,-7,-1,-2,-4,-4,-3,4,-6
1523178338651488,24,7,-3,3,0,-4,-27,0
1523178338652224,-15,-2,-11,-7,2,5,15,-6
1523178338652224,-4,-7,5,-3,-4,0,-43,-5
1523178338666268,-5,8,12,3,-7,-15,-22,18
1523178338666268,57,7,-11,-3,8,6,25,-19
1523178338666268,4,-5,-4,13,-6,4,-39,41
1523178338666268,-5,-1,9,-22,8,2,14,-25
1523178338690320,0,1,3,9,-2,-7,-26,-8
1523178338690320,-7,0,3,-10,-7,-5,-13,-11
1523178338691324,-2,-18,-6,1,-2,-2,-30,-8
1523178338691324,-7,6,9,6,-4,-10,-17,13
1523178338711642,-4,-4,-9,-10,2,3,29,-1
1523178338711642,9,-1,7,11,-3,-9,-23,7
1523178338712382,7,1,-12,-4,8,8,40,-1
1523178338712382,17,-4,-6,-1,-6,-3,-7,21
1523178338725716,91,11,12,3,1,-1,0,-26
1523178338725716,34,3,-10,-7,-4,1,29,9
1523178338726429,-26,9,-1,-6,0,4,9,7
1523178338726429,17,-1,-4,7,0,0,43,7
1523178338748756,1,-4,-8,-10,-2,-4,-46,17
1523178338748756,9,1,3,8,0,2,32,8
1523178338749481,2,13,6,4,2,-3,-10,13
1523178338749481,-2,-2,-16,-6,-3,-9,-29,-4
1523178338771669,-29,-4,-11,0,0,14,40,3
1523178338771669,11,-5,3,-2,1,-1,-21,33
1523178338771669,-42,3,3,-8,-3,-7,-24,-37
1523178338771669,-18,4,-44,0,-1,-5,2,7
1523178338785876,2,-1,14,1,-1,3,8,6
1523178338785876,1,-3,5,2,1,4,-6,-7
1523178338786581,-12,-5,-2,-2,-2,2,27,10
1523178338786581,14,-9,3,-1,-3,-2,-1,1
1523178338808951,-73,2,-2,4,-1,-4,-16,-9
1523178338808951,4,-19,-1,2,3,7,29,38
1523178338809643,2,2,-4,-6,-4,-9,12,-12
1523178338809643,-13,6,20,-1,-3,4,-25,12
1523178338831977,36,-5,-5,-1,-1,0,13,-27
1523178338831977,-18,6,-28,-8,-4,-7,-75,-24
1523178338831977,-7,-13,-6,-2,2,9,48,40
1523178338831977,76,1,-4,-1,-1,4,-3,-9
1523178338845736,-54,-4,7,-3,-4,-4,-7,-2
1523178338845736,53,-5,-11,-1,-3,-8,2,-5
1523178338846738,5,7,9,0,-1,-2,-18,-46
1523178338846738,-2,0,8,0,-2,-4,6,11
1523178338869093,1,-2,-4,2,-1,2,6,1
1523178338869093,-16,0,-5,-2,-2,-8,-24,-15
1523178338869802,-31,0,8,2,5,8,-13,29
1523178338869802,-12,-12,-10,-3,-2,-6,-4,-18
1523178338892016,7,-2,-5,0,-1,-5,-61,6
1523178338892016,-42,5,3,-7,1,4,36,-25
1523178338892016,14,2,17,3,-1,4,5,-1
1523178338892016,-33,1,-4,7,1,-3,-6,-22
1523178338906934,20,0,21,3,-1,-2,8,1
1523178338906934,4,-2,-9,-5,-2,-4,-2,10
1523178338907899,17,-1,17,-6,0,6,-15,-4
1523178338907899,-24,-15,-27,-10,-1,4,31,0
1523178338929247,-12,9,-17,5,-8,-7,9,-1
1523178338929247,-29,5,46,15,4,4,-3,-31
1523178338929962,17,2,-15,-3,2,1,38,42
1523178338929962,-36,4,17,-3,-3,-3,-15,-43
1523178338951294,20,1,-10,-2,1,-4,-16,7
1523178338951294,-12,-9,-3,-1,-3,15,21,12
1523178338952019,-30,-7,-17,-4,-4,-11,-33,-42
1523178338952019,-8,2,11,2,-1,0,-13,8
1523178338966329,18,-5,-2,-4,2,4,37,11
1523178338966329,69,11,-7,0,-4,-11,-31,-14
1523178338967062,64,-2,-6,0,-3,-1,-7,17
1523178338967062,67,3,6,1,2,4,18,16
1523178338989152,-25,-4,1,0,-1,-7,-6,-8
1523178338989152,27,3,-5,-2,0,0,22,13
1523178338989152,-18,1,-1,0,-2,-6,30,0
1523178338989152,1,0,1,4,0,-1,-8,35
1523178339011416,24,-2,3,1,4,9,21,-10
1523178339011416,-26,-3,-7,-5,-4,-7,2,-10
1523178339012180,-52,-2,-1,3,0,-5,38,-12
1523178339012180,64,12,14,0,-1,13,1,15
1523178339026217,-13,-17,1,-5,-3,-4,-4,-3
1523178339026217,-15,-5,-3,-3,-3,1,-9,6
1523178339026217,-19,-8,0,-4,-3,-2,3,-12
1523178339026217,-3,-4,-2,5,-1,-10,-26,-5
1523178339049567,-79,0,0,4,1,3,7,7
1523178339049567,-1,-6,17,-5,-2,-1,4,2
1523178339049567,26,-3,-4,-3,-1,0,-27,4
1523178339049567,41,2,-7,-5,-2,-3,21,-33
1523178339071406,-20,5,11,2,3,5,-34,11
1523178339071406,-6,-1,-22,-1,0,0,18,0
1523178339072338,9,0,-1,-1,-1,1,-15,-1
1523178339072338,-23,-3,4,1,0,-1,-2,2
1523178339086388,17,6,-17,-3,-2,-5,16,-26
1523178339086388,-8,0,5,5,2,-1,-14,5
1523178339086388,-8,3,0,0,-1,0,-13,-10
1523178339086388,-32,-4,-4,0,-3,-8,30,-10
1523178339109437,48,2,2,-3,-3,11,1,83
1523178339109437,-1,-6,-4,0,2,-1,2,-18
1523178339109437,-16,-2,-4,-4,-6,-12,-40,-30
1523178339109437,-47,-4,-10,-2,1,0,-3,-11
1523178339131790,14,-1,19,-1,-2,-4,-7,-24
1523178339131790,11,1,-14,2,-2,-5,-9,1
1523178339131790,5,0,0,1,-1,1,19,11
1523178339131790,-57,-4,3,-2,-1,-7,-31,-6
1523178339145534,10,-1,-4,-1,-1,0,20,-23
1523178339145534,3,6,-1,-2,-3,-2,-25,16
1523178339146536,2,-4,0,1,1,2,7,-8
1523178339146536,-11,-2,-1,-1,-4,-9,-13,22
1523178339168894,58,3,-9,-2,-1,0,27,21
1523178339168894,-27,-16,10,3,0,-3,-3,-5
1523178339169596,-10,-2,-9,0,2,-1,-59,-29
1523178339169596,4,7,-1,-5,-2,-2,57,17
1523178339191655,33,0,0,0,-1,-3,-34,-7
1523178339191655,25,-2,-5,-2,-1,1,41,28
1523178339192713,4,1,2,-1,-2,2,6,-34
1523178339192713,-28,-6,0,1,-2,-4,5,-26
1523178339205727,-1,-5,-8,-1,-2,-8,-61,-9
1523178339205727,-97,-7,-22,-5,-2,2,3,-2
1523178339206693,12,2,17,4,1,-4,9,19
1523178339206693,37,6,8,-3,1,11,-4,-3
1523178339228754,-12,-4,-36,-6,1,1,26,-1
1523178339228754,38,7,19,14,-1,-3,-10,-6
1523178339229757,1,-1,-8,-4,-1,-3,7,24
1523178339229757,9,-5,0,-3,1,4,-24,0
1523178339251904,46,0,2,-3,-3,-5,5,-6
1523178339251904,-24,0,6,-1,-1,-3,-19,1
1523178339251904,17,-4,-5,-1,0,4,28,21
1523178339251904,-1,3,2,4,1,2,-20,-2
1523178339265102,12,-2,2,-1,1,6,7,-2
1523178339265102,19,10,9,0,-2,-5,-22,-8
1523178339272871,12,1,-12,-8,-2,3,9,4
1523178339272871,2,-7,-10,1,-2,-4,-50,-10
1523178339288954,-48,-1,4,-1,-3,-3,-15,7
1523178339288954,9,2,6,1,0,-2,-8,-33
1523178339289914,19,-4,-1,2,1,4,-14,7
1523178339289914,81,16,2,-8,-1,-2,16,32
1523178339312245,-55,4,-3,5,-1,-10,6,-59
1523178339312245,25,3,-10,-2,0,7,33,23
1523178339312245,-7,-4,9,-5,-5,-4,0,12
1523178339312245,5,2,-7,-1,0,-4,7,-3
1523178339325289,-4,-3,7,1,2,2,-1,-5
1523178339325289,54,6,6,8,1,13,-7,0
1523178339333203,-18,2,-4,-6,-1,0,15,8
1523178339333203,-17,-8,-5,-1,-1,-3,-16,-9
1523178339349293,8,-17,23,-1,-1,-3,-17,27
1523178339349293,-34,-5,-6,-6,-2,-9,-16,-23
1523178339349293,26,-3,-5,2,0,8,37,27
1523178339349293,-28,0,11,4,-3,0,2,-4
1523178339371182,14,-1,-13,-5,-1,-3,-27,4
1523178339371182,21,-6,-2,-7,0,-3,2,2
1523178339372134,-32,-4,5,13,1,-6,-5,2
1523178339372134,-48,-11,-18,-8,-6,-10,-37,-46
1523178339385444,77,21,2,-1,1,9,62,14
1523178339385444,-43,-6,1,-3,2,4,18,4
1523178339393511,-12,0,-3,-5,-1,1,-26,-10
1523178339393511,56,6,1,3,-1,-10,-1,-6
1523178339409503,-8,0,0,4,0,-2,-24,-1
1523178339409503,-2,4,-3,-2,-1,-3,6,-9
1523178339409503,17,-1,-3,-3,-3,-11,5,7
1523178339409503,-22,8,-7,-3,-1,9,24,7
1523178339432500,-38,0,5,0,-2,3,50,-4
1523178339432500,14,-4,-8,-2,0,-3,-17,-4
1523178339432500,-25,2,5,0,-2,1,9,5
1523178339432500,12,0,-4,-3,-3,-1,14,3
1523178339445328,-12,-2,-3,-3,-2,1,-9,10
1523178339445328,-41,-8,-8,-3,-4,-8,-14,-39
1523178339460675,30,3,7,-2,-1,6,-6,11
1523178339460675,1,-9,-9,0,0,-3,5,3
1523178339468435,9,0,7,2,2,5,-14,-20
1523178339468435,-25,-5,-2,-4,-6,-12,-5,-11
1523178339470395,10,-4,0,0,-1,2,-38,-23
1523178339470395,-11,-4,9,2,0,5,50,3
1523178339491453,-23,-6,-9,-8,-5,-2,-34,-20
1523178339491453,30,-18,5,7,-4,-6,-15,6
1523178339492503,93,2,-7,-2,-2,-7,4,-10
1523178339492503,-12,-2,3,0,1,-1,-12,-2
1523178339504484,22,-1,-6,-2,-1,1,24,0
1523178339504484,9,1,0,-5,0,3,-13,30
1523178339513877,-20,0,-8,-2,-2,-2,-8,-8
1523178339513877,27,-6,8,5,1,-4,0,11
1523178339528550,22,3,-11,-6,-6,-11,2,2
1523178339528550,14,5,0,0,2,2,25,12
1523178339530554,-28,-7,4,4,3,16,-7,-5
1523178339530554,-21,7,-6,-6,-4,-6,-23,-19
1523178339551984,-19,-1,4,3,-1,-5,-12,-1
1523178339551984,46,-2,-6,-1,0,-3,-3,12
1523178339553627,-44,9,-4,-3,-2,-9,20,-30
1523178339553627,-8,-11,3,-1,1,5,19,10
1523178339573919,5,-3,-11,1,0,1,-47,-6
1523178339573919,-8,7,2,-5,-3,1,3,3
1523178339575674,11,-5,6,-1,-1,-2,-7,15
1523178339575674,32,5,6,1,0,1,-5,6
1523178339588756,10,-6,0,1,1,-5,-1,-11
1523178339588756,22,4,-1,0,0,-1,-33,-4
1523178339590714,-31,-9,-30,-2,0,4,43,-13
1523178339590714,-38,-1,8,1,-2,-9,-32,15
1523178339611076,-7,4,-10,0,3,21,51,60
1523178339611076,-29,1,-14,-5,-5,-3,-41,-20
1523178339612772,70,4,8,0,-1,-2,24,-1
1523178339612772,-4,0,-1,2,3,2,-9,-5
1523178339634149,-42,-7,2,-1,0,-12,2,7
1523178339634149,45,3,0,-3,-1,4,0,40
1523178339634835,-26,-4,-2,1,-1,1,-14,-13
1523178339634835,6,0,5,-2,-3,3,31,13
1523178339648183,-42,-11,-5,-3,-1,1,-2,-7
1523178339648183,6,3,3,-1,-1,2,17,-10
1523178339654885,0,-2,1,0,-2,-9,-16,6
1523178339654885,22,4,-8,-3,-2,4,29,14
1523178339670978,0,-2,5,2,-2,-6,-51,-19
1523178339670978,-15,-4,-13,0,0,4,29,-5
1523178339672932,-38,3,15,-2,-1,0,-23,-18
1523178339672932,11,-2,-19,-2,-3,-4,25,-4
1523178339694278,13,2,19,1,-3,-7,32,-33
1523178339694278,59,6,-12,-3,-1,1,-68,3
1523178339694992,-65,-5,-10,-3,-3,-7,-24,3
1523178339694992,-6,-6,1,1,3,1,2,-13
1523178339708029,33,8,-8,-4,-1,2,49,21
1523178339708029,-24,-5,7,0,-4,-15,-9,6
1523178339715045,26,5,3,2,2,10,10,-4
1523178339715045,-4,-6,-12,-4,-4,-3,-35,-8
1523178339731472,-2,1,8,1,2,6,-4,7
1523178339731472,-96,-12,-7,-3,-3,-2,32,-9
1523178339733091,-10,-6,-4,-4,-3,-7,-10,-28
1523178339733091,-27,-16,-8,-3,-4,-7,-24,-3
1523178339754304,35,5,12,2,0,2,31,-14
1523178339754304,-5,-5,3,-1,-3,1,0,7
1523178339755150,15,-7,9,0,1,-3,-4,5
1523178339755150,-9,3,1,-2,0,6,22,6
1523178339768601,-13,-6,-12,-5,-3,-7,-32,11
1523178339768601,32,4,14,4,3,3,24,-20
1523178339775574,-2,0,-13,-4,-4,-8,31,-13
1523178339775574,14,3,9,1,2,3,-24,10
1523178339791617,-1,-4,-5,-1,0,-1,-7,-4
1523178339791617,6,4,-6,-4,-2,0,8,2
1523178339793255,121,2,0,0,-1,-4,21,32
1523178339793255,-12,-2,4,1,1,8,-33,-46
1523178339814449,37,-1,-12,-1,-4,-3,-3,12
1523178339814449,-4,2,7,-4,-4,-1,13,10
1523178339815313,-28,-3,-7,1,-1,-9,-19,-23
1523178339815313,20,5,-2,-2,-2,2,-8,28
1523178339828687,-15,6,13,1,-1,0,-9,-6
1523178339828687,20,-4,3,1,0,-5,-14,-7
1523178339835769,16,1,-1,-2,-2,1,2,26
1523178339835769,3,15,-7,-1,-1,-3,5,-33
1523178339851769,-56,-9,-2,3,4,7,31,13
1523178339851769,13,5,-9,0,-2,-2,-9,6
1523178339853605,-10,11,16,-2,1,-2,12,43
1523178339853605,5,2,-18,-3,-1,1,20,-29
1523178339874470,35,3,0,-1,-2,-6,-24,-7
1523178339874470,-16,-5,2,-5,1,-1,14,-13
1523178339875472,-22,2,-21,-4,-3,-4,-7,33
1523178339875472,8,-5,5,-1,-2,2,-8,26
1523178339887507,-7,-6,-4,2,-2,0,29,-4
1523178339887507,-17,-2,-6,2,2,-3,-5,-19
1523178339894522,33,-6,2,1,3,12,-29,9
1523178339894522,-8,-7,8,-4,-5,-8,11,23
1523178339911568,-20,-6,-5,-1,0,1,-18,-16
1523178339911568,113,19,-2,0,-1,-1,18,2
1523178339912718,-43,-10,-7,-2,0,-6,-31,-4
1523178339912718,-42,-2,-11,2,1,6,33,-30
1523178339933940,3,2,14,-1,-2,-1,-13,-2
1523178339933940,-14,-2,1,0,-2,-3,-19,-4
1523178339935633,-10,-5,0,1,-1,1,6,-6
1523178339935633,12,-1,1,0,-1,-4,-6,13
1523178339947975,-14,3,-4,-3,-2,-4,-15,-6
1523178339947975,-26,-5,3,0,-1,0,2,0
1523178339954682,-16,-7,-2,1,-4,-1,-46,-2
1523178339954682,4,-7,2,0,-1,1,-9,24
1523178339971744,15,1,6,-1,-1,-3,-3,-7
1523178339971744,-34,-3,-4,-3,-1,3,-35,25
1523178339972731,10,3,-14,-6,-2,-9,-34,-45
1523178339972731,-2,-8,12,3,3,0,16,1
1523178339994080,6,1,-19,-8,-5,-10,-33,-10
1523178339994080,-70,-4,4,3,2,12,35,15
1523178339995791,21,10,1,1,0,-1,26,-14
1523178339995791,2,-3,8,2,1,-2,-29,5
1523178340008128,103,10,4,-1,0,-2,-7,-12
1523178340008128,-2,-7,4,-2,-2,-4,31,9
1523178340015144,7,-2,2,-1,0,4,1,-6
1523178340015144,12,-3,-2,-1,-3,-4,0,-4
1523178340032024,-11,-5,-15,-2,-1,-2,6,3
1523178340032024,6,-2,17,3,-1,-9,-23,-6
1523178340032893,-20,-3,-1,-2,-1,1,17,2
1523178340032893,14,7,-4,-1,1,-6,-9,8
1523178340053991,-36,-4,-2,-5,-4,-3,-5,-12
1523178340053991,14,-5,-8,-2,-1,-2,-10,-8
1523178340054948,-27,-2,6,1,1,-2,4,2
1523178340054948,-8,-9,-13,-5,1,3,-5,18
1523178340068175,10,2,1,0,-4,-4,10,-37
1523178340068175,-18,-3,-4,0,-1,4,25,-3
1523178340076361,19,3,5,1,3,12,12,1
1523178340076361,-17,-1,1,-3,-4,-11,-7,-10
1523178340091377,50,3,-10,0,0,7,53,31
1523178340091377,-17,-4,-17,-4,-3,4,-13,5
1523178340093051,7,23,11,1,0,-6,-9,-11
1523178340093051,-6,-9,3,0,-2,-4,-14,-1
1523178340114416,38,-7,-1,0,-1,-2,-8,-4
1523178340114416,23,4,2,0,-1,-4,6,-10
1523178340115109,34,-3,2,-1,-3,-4,3,8
1523178340115109,-3,4,-9,-2,-3,2,15,7
1523178340128193,-35,1,2,0,1,-2,-6,-3
1523178340128193,-13,-12,-13,0,1,-1,17,-11
1523178340136452,-8,-7,13,-3,-2,0,19,11
1523178340136452,44,9,13,2,1,1,-58,20
1523178340151514,-61,-6,-1,2,4,4,25,19
1523178340151514,26,-1,-5,-5,-7,-19,-20,8
1523178340153212,-11,-4,-9,0,0,9,0,2
1523178340153212,-13,11,-4,-3,-2,-8,-24,-38
1523178340174353,-13,-4,2,0,0,3,8,10
1523178340174353,-23,11,-6,-1,2,-8,55,-39
1523178340175269,50,-4,25,4,-1,10,-11,46
1523178340175269,-29,1,-10,-2,-2,0,-25,-35
1523178340187304,-31,1,2,2,0,-6,-2,10
1523178340187304,30,10,1,-3,0,6,14,2
1523178340196391,-9,-10,-10,-1,-3,-9,8,-6
1523178340196391,24,0,0,0,1,6,48,6
1523178340211654,-12,0,1,-1,-2,-2,-7,7
1523178340211654,-19,-4,6,0,0,2,-31,2
1523178340213384,76,-1,-19,-4,-2,-4,-18,-40
1523178340213384,35,-9,3,-3,-4,-6,-3,17
1523178340234427,21,1,-3,-2,-1,-4,47,9
1523178340234427,7,-4,1,0,2,6,-12,-12
1523178340235431,-17,6,-4,0,-1,0,1,-1
1523178340235431,-4,-7,-11,-2,-3,-3,2,-19
1523178340247768,-9,2,15,-4,-5,-9,-13,-21
1523178340247768,4,-2,8,0,-1,6,30,16
1523178340256483,-27,3,-6,-1,-1,-8,-4,-4
1523178340256483,-58,-6,-5,0,-2,-8,-2,-7
1523178340271567,22,-12,11,3,1,7,-51,-5
1523178340271567,4,5,2,-2,0,3,23,18
1523178340272528,-26,-3,-10,-4,-4,-4,-15,-3
1523178340272528,16,6,9,1,0,2,15,-1
1523178340293851,4,0,-13,-5,-4,-10,-47,18
1523178340293851,-24,-7,-9,-2,-2,4,-31,-18
1523178340295588,-15,0,10,5,3,-2,2,6
1523178340295588,4,1,3,-4,-1,3,12,6
1523178340307931,-10,-4,-2,0,-1,-5,-24,-8
1523178340307931,36,-3,-6,1,1,6,51,23
1523178340316647,20,1,7,-2,-4,-6,20,8
1523178340316647,14,4,-4,-2,-1,2,-14,-1
1523178340331987,-5,-4,-7,-1,-1,-5,6,-14
1523178340331987,-17,-1,4,4,2,0,-35,11
1523178340332687,-7,-8,-3,-2,-3,-4,-22,-28
1523178340332687,43,7,6,1,0,1,10,5
1523178340353759,-25,-4,-19,-6,-6,-2,-29,-2
1523178340353759,7,9,14,2,2,7,83,14
1523178340355747,0,-1,-3,-4,0,1,-3,-11
1523178340355747,-24,-6,-4,0,-3,-4,-1,14
1523178340368084,-7,-11,-11,-2,-1,3,-8,-11
1523178340368084,-2,-1,-4,-1,-4,-17,-66,-6
1523178340376838,15,1,-7,-3,-2,0,11,13
1523178340376838,-26,-13,-3,-4,-2,-7,12,-34
1523178340391882,28,2,6,0,-3,5,17,5
1523178340391882,-23,-9,-2,-6,-3,-2,-30,-15
1523178340392846,-3,-6,-3,-1,-2,-4,-3,10
1523178340392846,-2,2,-14,0,0,-6,-1,-27
1523178340414206,-8,2,21,2,3,8,-8,-11
1523178340414206,13,-1,1,0,-3,-7,-6,-9
1523178340414906,1,2,3,2,0,2,-13,5
1523178340414906,-47,-7,2,-1,-3,-2,-2,-4
1523178340427287,3,7,-3,2,1,-7,-45,-1
1523178340427287,41,-14,-3,1,0,-9,35,10
1523178340436272,-25,-13,3,-1,2,19,30,6
1523178340436272,11,-2,-29,-4,-4,0,11,7
1523178340451284,12,-3,0,0,0,-4,16,18
1523178340451284,-3,5,-4,-3,-3,-6,-38,-24
1523178340453008,7,8,1,-1,1,0,3,-8
1523178340453008,9,2,9,-1,0,-1,-7,0
1523178340474374,-3,12,-12,-4,-1,2,47,37
1523178340474374,-29,-2,-1,0,0,1,-3,-1
1523178340475065,2,3,-8,0,0,2,42,-26
1523178340475065,27,1,11,-1,0,5,-7,9
1523178340487102,-8,5,-17,-3,-2,-6,-10,-12
1523178340487102,4,2,4,0,-2,-1,-10,3
1523178340496390,-20,1,-2,0,-2,-5,-22,-4
1523178340496390,16,-1,1,0,1,3,22,16
1523178340511162,-17,-2,1,0,-2,-3,-54,-11
1523178340511162,31,1,-2,-1,1,0,18,-5
1523178340513166,42,-2,-3,1,-1,-3,-52,-14
1523178340513166,0,0,-1,1,2,9,44,17
1523178340534551,-6,-14,8,-2,-1,-4,16,-38
1523178340534551,-21,9,6,0,-1,6,-2,-10
1523178340535225,25,-4,-4,-2,-1,-6,10,4
1523178340535225,16,-1,4,0,-2,-1,-13,-11
1523178340556511,-6,-3,-1,1,1,9,5,-14
1523178340556511,-3,-12,-3,-4,-5,-8,4,24
1523178340558287,-6,-4,-4,-1,-2,2,-49,-23
1523178340558287,-9,1,8,0,-1,2,23,28
1523178340571319,28,-23,4,4,3,6,22,28
1523178340571319,-27,-6,-10,-4,-2,0,3,-22
1523178340577608,-26,2,9,0,0,-7,-11,-3
1523178340577608,-8,-10,0,0,-3,-8,-15,-2
1523178340594560,24,10,-11,-4,-3,4,-28,-25
1523178340594560,18,7,1,0,1,1,42,7
1523178340595385,-28,-6,-2,0,-1,3,8,7
1523178340595385,5,-2,-5,-3,-3,-6,-46,-1
1523178340616701,-30,-1,7,1,2,7,72,22
1523178340616701,-6,-7,-3,-3,-2,-2,-31,19
1523178340617447,-42,3,-2,1,-1,-5,-37,-38
1523178340617447,58,6,1,2,1,1,2,4
1523178340631789,3,-3,-6,-4,-2,-6,-15,-3
1523178340631789,33,-4,-1,-2,-3,4,-30,9
1523178340632485,-44,-14,6,-1,-2,-6,-6,-10
1523178340632485,-17,-3,-1,0,1,0,-24,-31
1523178340653582,-19,-15,6,1,0,-3,-3,1
1523178340653582,13,7,3,0,2,2,14,4
1523178340655546,10,0,-8,-3,-2,-6,-8,22
1523178340655546,-10,3,-1,0,-3,-7,-53,-5
1523178340676891,1,6,2,-1,-3,4,33,-2
1523178340676891,-19,-12,-7,-2,-3,-9,11,8
1523178340677603,-34,8,-12,-2,-1,0,32,17
1523178340677603,-29,-14,11,0,1,6,-12,-30
1523178340690938,19,16,5,2,0,-2,8,13
1523178340690938,-30,-4,-3,-2,-4,-1,-21,-2
1523178340697963,32,12,2,3,2,4,37,-35
1523178340697963,6,4,-5,-2,0,0,17,12
1523178340713986,-74,-6,-5,-3,-1,-12,-49,-10
1523178340713986,15,3,3,1,3,8,-20,-18
1523178340715706,67,1,0,-2,-3,-10,-21,37
1523178340715706,-82,-10,0,-3,0,0,24,12
1523178340736764,36,-10,3,-1,-1,1,-9,27
1523178340736764,-18,10,11,2,-1,-5,-15,-20
1523178340737762,36,-3,-4,-3,0,-4,-11,21
1523178340737762,36,2,-3,0,3,17,96,38
1523178340751092,-3,13,4,1,-1,0,-32,-28
1523178340751092,-10,-6,-10,-1,0,1,-6,3
1523178340758111,17,-8,4,-4,-2,3,13,-14
1523178340758111,-2,9,-5,0,-2,-10,-34,5
1523178340774169,19,3,-7,-3,-2,-6,16,23
1523178340774169,-2,3,-2,0,2,10,13,10
1523178340774864,-4,-1,6,0,-3,1,2,1
1523178340774864,7,-2,-3,-2,-1,1,-4,-11
1523178340796959,4,5,0,-2,-2,-3,6,3
1523178340796959,12,-5,-9,-4,-3,-7,-27,-10
1523178340797925,-31,-8,-10,0,-1,-7,-32,26
1523178340797925,46,-4,15,0,-2,7,43,0
1523178340810959,8,-1,-1,1,2,17,70,-1
1523178340810959,3,2,3,-2,-3,-5,-18,-11
1523178340818165,-13,-6,-5,-2,0,-1,26,18
1523178340818165,-4,-4,-6,-4,-3,-2,-16,-19
1523178340834334,38,6,-6,-4,-4,-8,-28,-32
1523178340834334,26,-4,5,2,1,7,33,-3
1523178340836060,22,8,-4,-1,-3,0,13,-12
1523178340836060,-26,-2,5,4,-1,2,0,-2
1523178340856278,9,-4,-7,-2,0,-1,-21,8
1523178340856278,9,7,-3,-2,-2,-2,-10,27
1523178340858083,-44,0,3,0,0,1,0,-4
1523178340858083,19,7,-15,-2,-1,-8,-30,8
1523178340870121,-4,2,-6,-2,-1,0,0,-5
1523178340870121,1,2,12,0,0,3,23,-4
1523178340877135,-22,-4,0,1,2,1,-14,-9
1523178340877135,-19,-4,-1,-2,-1,-8,22,-7
1523178340894180,-28,5,3,5,4,-7,-18,-16
1523178340894180,37,-6,-11,0,-3,-4,-48,-24
1523178340895236,16,2,1,0,2,9,-15,37
1523178340895236,1,-10,-2,-4,-3,-1,9,21
1523178340916558,49,-2,0,-3,-3,4,5,-14
1523178340916558,-10,-16,5,-1,0,-5,-2,21
1523178340918245,25,1,-5,-1,-2,-1,-8,-15
1523178340918245,15,2,-2,0,0,-2,-22,-13
1523178340931316,-23,-4,4,1,0,-3,47,19
1523178340931316,12,5,-14,-2,2,1,-10,9
1523178340937293,-18,-6,-2,-3,-1,1,38,0
1523178340937293,13,4,3,-2,0,-5,-19,26
1523178340953342,-37,1,-5,-3,-3,4,31,-13
1523178340953342,16,8,9,5,0,-8,-5,-9
1523178340955341,7,3,-1,0,0,14,48,-8
1523178340955341,23,-6,-5,-3,-2,-8,-31,15
1523178340976702,-7,-3,0,2,-1,-7,-24,-12
1523178340976702,-24,-4,-5,-5,-3,3,21,-14
1523178340977401,41,-7,17,1,0,1,41,35
1523178340977401,-16,2,3,2,1,-1,36,25
1523178340990725,-3,-5,-4,-2,0,7,-13,5
1523178340990725,31,7,-3,-2,0,-2,-35,-15
1523178340997674,18,1,-5,-1,-3,-10,-3,-22
1523178340997674,-40,-10,-11,-3,0,9,38,-32
1523178341013587,6,7,4,-3,-4,0,15,13
1523178341013587,-6,-6,4,1,-4,-4,10,-3
1523178341015503,9,7,-8,-3,-2,-6,-48,-32
1523178341015503,-68,-4,-3,-3,-2,2,-19,-31
1523178341036557,36,-5,-9,-5,-2,-5,8,0
1523178341036557,-5,-3,-19,-4,-2,-3,-12,-6
1523178341037559,-15,-4,21,-3,-4,-5,-47,-20
1523178341037559,10,7,-3,1,-1,-1,29,5
1523178341050692,-16,-5,2,1,2,-3,-30,-1
1523178341050692,-4,2,1,-2,-3,-8,26,15
1523178341058905,-33,-7,-3,2,0,-3,-6,-5
1523178341058905,15,6,4,1,1,0,-30,-12
1523178341073930,7,-2,1,0,-2,2,39,19
1523178341073930,-15,0,-12,-1,0,-2,-15,-7
1523178341075665,-31,0,-7,-1,0,2,-1,12
1523178341075665,99,8,8,-2,-5,-11,-23,-6
1523178341097014,-69,-12,4,0,1,15,-34,-53
1523178341097014,1,-5,-1,0,1,4,7,16
1523178341097721,8,6,-6,-3,-3,-4,-1,-2
1523178341097721,-16,-10,5,0,0,-1,-3,-18
1523178341110032,56,2,-4,-3,-2,-7,-14,22
1523178341110032,-8,-7,0,-2,-1,1,-16,-17
1523178341118812,-19,-2,-7,-2,-3,4,22,8
1523178341118812,48,4,-1,0,1,4,-33,15
1523178341134108,-84,-10,-4,-2,-3,-3,-10,5
1523178341134108,21,-6,14,1,-2,-2,16,-3
1523178341134822,17,-3,-16,-2,0,-1,21,-8
1523178341134822,-7,-2,-2,-1,-1,2,-5,-1
1523178341157049,16,0,-1,3,3,-2,0,11
1523178341157049,15,11,3,-1,-3,-9,-12,-2
1523178341157886,-16,-3,1,-2,0,4,22,29
1523178341157886,-13,-2,-3,-2,-1,-4,-44,-19
1523178341169915,63,6,-6,-1,-1,-3,30,16
1523178341169915,-56,-5,4,-1,-3,1,20,5
1523178341178935,20,7,-10,-1,0,-7,-37,-8
1523178341178935,14,-5,0,-1,-1,-8,50,40
1523178341193977,9,13,7,2,1,8,7,-13
1523178341193977,-6,-1,-2,0,-1,-4,-9,-3
1523178341196020,-20,-1,0,-3,-3,-6,-29,-13
1523178341196020,-30,2,3,3,1,4,38,9
1523178341216315,78,1,-7,-3,-5,-10,-76,-14
1523178341216315,-56,0,-2,-4,-4,-5,22,-10
1523178341218041,13,-5,1,2,1,2,26,15
1523178341218041,5,1,5,0,-2,3,-21,2
1523178341230372,-8,-7,1,0,-1,-4,15,-5
1523178341230372,19,1,-3,0,1,6,-27,-14
1523178341239095,9,-6,1,-2,-1,-3,-16,-4
1523178341239095,-82,-2,-8,-5,-2,-7,22,-22
1523178341254137,17,4,5,1,1,11,50,17
1523178341254137,-2,-1,-9,-1,-1,1,-1,-13
1523178341255140,-7,-8,1,-2,-2,1,-36,-8
1523178341255140,49,5,0,-1,-2,-3,-28,12
1523178341276472,-80,-24,1,1,-2,-7,-12,-13
1523178341276472,10,5,11,3,4,-1,1,25
1523178341278199,1,-17,9,3,0,0,41,4
1523178341278199,50,9,-15,-5,-3,1,-37,1
1523178341290533,20,10,-3,-3,-1,0,62,39
1523178341290533,1,-1,7,2,-1,7,11,4
1523178341299258,-10,2,-2,-3,-3,-10,-12,-10
1523178341299258,-27,-8,-4,-1,0,-1,37,-10
1523178341314599,11,2,3,1,0,-4,-28,-16
1523178341314599,17,3,-1,0,0,-4,0,-5
1523178341315301,59,5,-4,-2,-1,1,-4,-6
1523178341315301,-72,-13,-2,0,-1,4,25,-2
1523178341336355,35,1,-4,-3,-3,-2,-54,-16
1523178341336355,20,-1,-2,-3,0,-2,-25,-12
1523178341338359,57,1,-2,-1,0,0,13,22
1523178341338359,-38,-2,9,1,-1,-1,-6,-21
1523178341350717,-6,3,-10,-2,-1,-3,-12,-3
1523178341350717,-13,-5,-5,-2,-1,3,-3,4
1523178341358755,-9,2,-1,-1,0,-2,-10,2
1523178341358755,-1,9,-6,-2,1,1,0,-18
