timestamp,emg1,emg2,emg3,emg4,emg5,emg6,emg7,emg8
1523182244158677,-58,-28,55,-10,2,-2,-24,-3
1523182244158677,-5,13,55,51,10,1,20,-8
1523182244160182,-17,-3,-5,-37,-8,-1,-39,-24
1523182244160182,-36,-10,23,18,-3,1,23,-16
1523182244181740,-32,10,-56,4,-3,-3,-17,68
1523182244181740,64,-27,110,6,-2,-6,-3,8
1523182244183243,-32,-5,-51,-4,3,-1,3,-33
1523182244183243,9,9,-12,96,16,6,-12,-15
1523182244194773,1,-10,-44,-57,-27,-13,-2,-14
1523182244194773,-21,14,-2,72,4,0,19,-11
1523182244203799,-56,-10,52,8,-6,-7,-7,25
1523182244203799,-46,-4,0,-9,-1,-4,-15,-17
1523182244225858,-2,9,-4,-21,7,4,2,-10
1523182244225858,-53,2,-17,7,7,5,13,4
1523182244227359,14,-11,-11,-25,-11,-2,-18,-7
1523182244227359,-13,15,64,-27,-2,-2,6,63
1523182244240896,43,-12,-76,17,3,-1,3,-13
1523182244240896,-65,3,-33,-8,1,0,-18,-33
1523182244242400,33,19,79,-10,5,11,16,1
1523182244242400,0,-5,-10,77,15,-7,23,-18
1523182244263457,4,-11,6,-11,-5,-5,-55,27
1523182244263457,3,15,25,-2,-3,-3,8,7
1523182244264961,30,-8,-66,-18,-5,-4,-15,0
1523182244264961,-21,-7,35,-31,-10,1,-1,-29
1523182244278495,-10,17,-32,0,1,0,13,-15
1523182244278495,-5,-9,38,8,-7,0,-6,-3
1523182244279999,-57,6,-10,20,6,1,15,15
1523182244279999,54,26,-26,-23,1,2,-27,-10
1523182244301054,-13,-12,-37,-10,-3,-5,3,31
1523182244301054,3,-1,6,12,-1,0,-12,0
1523182244302561,7,15,-16,37,-8,-1,25,-21
1523182244302561,6,-9,-8,17,7,-4,-2,8
1523182244323616,-20,14,16,-14,-1,13,67,-24
1523182244323616,88,16,81,41,3,-2,-50,43
1523182244325119,60,22,-65,-89,-12,-4,1,2
1523182244325119,-17,-10,-8,32,-7,-9,0,-26
1523182244338660,40,3,38,53,17,1,-44,-46
1523182244338660,13,8,-89,-47,-12,-5,19,-33
1523182244340162,-3,2,-14,-18,-2,-5,-40,26
1523182244340162,10,7,-3,-33,-7,3,0,24
1523182244361214,17,31,53,0,0,1,20,13
1523182244361214,-32,-13,-112,-5,-1,-4,-9,-5
1523182244362720,-12,-2,-19,1,3,2,-5,-17
1523182244362720,-12,-7,-14,-30,0,1,17,-6
1523182244384275,32,5,8,22,-3,-2,-13,19
1523182244384275,-38,-8,41,-16,-3,-1,7,37
1523182244385784,18,-11,-13,18,-8,-3,16,-32
1523182244385784,-35,-19,-47,36,-5,-8,-1,-10
1523182244397812,35,-6,61,30,3,1,-6,-19
1523182244397812,-4,-14,7,-24,-6,0,-19,-21
1523182244405332,14,24,127,9,9,2,14,-20
1523182244405332,-53,-37,-24,-62,-22,-10,-38,2
1523182244420378,15,-16,-47,50,-3,-5,9,-10
1523182244420378,-46,-9,-50,2,2,-2,20,-59
1523182244421378,-31,3,21,-4,8,4,-14,12
1523182244421378,89,21,14,-21,2,2,2,13
1523182244442937,-5,7,-25,-45,-3,3,25,-6
1523182244442937,46,8,-18,-8,1,0,-16,-3
1523182244443435,14,-29,-72,46,-2,-6,6,-19
1523182244443435,6,2,-4,-24,0,5,-16,9
1523182244456971,-22,-10,-21,-33,-5,-2,0,1
1523182244456971,16,-5,97,51,9,4,26,43
1523182244465502,18,0,-20,-61,-10,-7,-23,-17
1523182244465502,-45,3,-21,-2,-4,-3,29,15
1523182244480532,0,-40,-53,1,-6,-6,-32,-26
1523182244480532,-61,48,-9,0,3,-1,24,6
1523182244481034,11,12,59,-7,-2,8,6,9
1523182244481034,-3,-23,33,-57,2,-7,-11,-40
1523182244503599,-49,0,45,60,6,-5,-10,39
1523182244503599,9,-12,-61,-33,-8,-1,5,25
1523182244504102,-28,-17,-20,7,0,-3,-5,1
1523182244504102,-3,24,-4,30,11,10,21,-28
1523182244517366,89,29,24,-54,-6,2,17,43
1523182244517366,-2,-5,-16,42,4,-6,-42,-16
1523182244525149,-50,-21,-28,-47,-14,-10,-4,-6
1523182244525149,26,-1,-21,-33,-14,6,35,-15
1523182244540194,-61,16,52,14,2,1,-34,39
1523182244540194,12,-17,-45,32,1,0,1,-13
1523182244541194,2,-8,-74,-44,-4,-3,14,-34
1523182244541194,-3,-12,35,25,9,4,-3,-17
1523182244562758,39,2,-68,-27,-7,-3,-6,0
1523182244562758,15,28,-39,-1,15,10,2,30
1523182244563755,-1,3,10,37,5,-2,-5,17
1523182244563755,-49,-27,-31,20,-8,-7,-3,-11
1523182244577289,9,-14,-11,-4,6,3,25,9
1523182244577289,26,8,103,6,1,-3,-25,11
1523182244585316,3,-8,17,15,-3,0,12,-2
1523182244585316,23,31,20,1,-10,0,-8,35
1523182244600351,-35,12,0,32,9,-5,10,-92
1523182244600351,30,-13,-15,-44,-16,-3,17,4
1523182244600853,-62,-23,32,37,9,-1,-3,-29
1523182244600853,4,24,6,-66,-4,1,-18,3
1523182244622947,-69,-19,28,68,-9,-9,1,-9
1523182244622947,-65,-51,22,-8,4,2,-11,-33
1523182244623413,-10,0,0,20,7,4,-15,53
1523182244623413,-1,-2,8,26,0,-3,-4,3
1523182244636958,-6,-8,52,-54,0,4,10,-29
1523182244636958,-65,-38,-64,-36,-13,-7,-13,-4
1523182244645509,52,13,-48,39,3,-5,-5,3
1523182244645509,-21,-19,1,39,-3,-5,-5,2
1523182244660511,-49,16,-2,-24,3,5,-8,1
1523182244660511,19,20,16,36,-9,-6,23,6
1523182244661014,-58,-6,43,-28,-7,-1,13,-41
1523182244661014,39,0,-43,8,9,1,-39,12
1523182244682570,59,-5,22,16,-2,-5,-2,-17
1523182244682570,-2,-11,0,15,2,8,21,35
1523182244683573,-14,-9,29,53,10,-3,-3,32
1523182244683573,56,26,-9,-8,-1,-1,5,-4
1523182244697108,-84,-36,36,3,1,1,-19,15
1523182244697108,-9,16,30,-32,2,0,17,-8
1523182244705129,70,-8,-24,-4,0,3,-13,-44
1523182244705129,-19,9,28,-20,-5,-4,5,40
1523182244720170,-14,-5,-66,-17,1,3,10,28
1523182244720170,6,22,80,-5,1,-1,-14,-2
1523182244721172,35,-17,78,36,5,-1,7,-5
1523182244721172,31,-13,-65,-38,-7,-1,-2,-16
1523182244742764,122,23,49,-2,-3,0,2,5
1523182244742764,45,35,20,7,3,1,-12,-6
1523182244743750,-4,15,-24,77,8,-1,4,21
1523182244743750,-3,1,37,-74,-4,7,-25,-25
1523182244757268,-15,-3,-77,80,-3,-2,-7,-11
1523182244757268,-23,-27,-59,26,1,-6,8,-25
1523182244765289,28,-4,93,-16,-5,-4,-19,20
1523182244765289,20,-10,1,43,2,-5,3,2
1523182244780330,26,3,-20,-35,-2,3,-20,60
1523182244780330,41,-7,4,-30,-6,-5,-18,2
1523182244780831,35,1,63,-26,-8,1,24,-16
1523182244780831,-9,0,54,43,15,0,15,-4
1523182244802665,-12,-3,31,-50,-14,-4,1,-11
1523182244802665,10,-12,-2,16,5,-1,15,55
1523182244803671,-2,10,-27,-64,-11,2,-14,35
1523182244803671,60,-21,35,4,-12,-9,4,13
1523182244817438,-45,-7,-6,6,18,8,14,-29
1523182244817438,77,-39,-47,-69,-20,-11,-15,-17
1523182244825224,-90,5,42,56,-5,-7,-3,-56
1523182244825224,-48,-6,10,9,3,-3,-27,23
1523182244840264,-40,-13,-17,-8,0,-3,6,-33
1523182244840264,4,13,59,2,0,-1,9,-14
1523182244841266,2,-15,-34,43,10,8,10,66
1523182244841266,-73,-23,0,38,0,-6,2,-48
1523182244862824,42,10,14,-16,5,0,-5,-24
1523182244862824,-1,32,67,36,1,4,-25,25
1523182244863825,-3,-7,-93,-88,-28,-2,0,-27
1523182244863825,-37,-1,-42,102,10,5,55,-25
1523182244876861,51,-14,-24,10,-7,-7,-50,-2
1523182244876861,10,27,7,26,5,1,3,28
1523182244885383,-8,17,15,-29,4,-2,-10,-6
1523182244885383,20,7,32,-17,0,6,21,20
1523182244900659,-3,-3,-88,-11,3,1,28,8
1523182244900659,46,14,-39,-4,6,3,-29,-32
1523182244900924,19,-9,103,43,11,6,-2,-6
1523182244900924,43,-3,-50,-45,-1,1,14,7
1523182244922982,-1,4,15,-9,-12,-12,-39,46
1523182244922982,-64,34,0,-18,0,0,11,-5
1523182244923486,0,16,-64,-3,7,0,47,-11
1523182244923486,-2,13,38,-23,-6,-9,-43,28
1523182244937024,-74,-21,10,-42,-20,-11,-5,1
1523182244937024,15,-22,-4,13,7,3,15,-3
1523182244945542,5,47,7,41,2,2,-41,-18
1523182244945542,-8,-16,-36,71,4,-8,-3,-24
1523182244960081,11,8,29,-25,-24,-3,30,-9
1523182244960081,-28,-8,-21,-13,-4,0,16,49
1523182244961085,-25,14,49,22,8,4,-4,-19
1523182244961085,-37,-8,-21,-18,11,6,7,-3
1523182244982642,-31,15,37,34,10,5,-5,17
1523182244982642,22,9,-41,-34,-7,-1,9,-38
1523182244983646,-57,-52,-41,-97,-3,-5,-4,-18
1523182244983646,-4,13,-7,-10,-2,-3,-35,9
1523182244997181,-19,0,-7,-42,-2,0,6,-22
1523182244997181,-54,-22,-7,7,-8,-2,-10,5
1523182245005201,34,20,-32,-5,-1,-3,-5,10
1523182245005201,6,3,6,-52,-5,2,8,8
1523182245020241,70,-18,-52,-23,-6,-2,5,-43
1523182245020241,65,25,92,56,15,1,-13,-2
1523182245021245,19,-22,-18,-4,-5,-2,21,12
1523182245021245,28,-20,11,-11,-8,-4,-22,4
1523182245042801,15,29,59,4,0,-2,-5,65
1523182245042801,-48,-24,-11,9,-7,-6,-1,24
1523182245043804,-64,-23,-52,22,-1,-4,6,-15
1523182245043804,13,19,25,-4,8,1,-9,-30
1523182245058844,-22,-46,52,13,-4,-3,-35,-22
1523182245058844,-29,-2,-120,-55,-21,-5,7,10
1523182245065403,-24,-23,40,50,8,-7,16,20
1523182245065403,-3,-4,-11,-73,-15,0,5,27
1523182245080403,-9,7,-41,48,9,2,17,-5
1523182245080403,17,-14,-1,12,3,1,7,-27
1523182245080903,5,29,2,-30,-11,-3,-14,-12
1523182245080903,-33,-19,-19,9,5,1,29,10
1523182245102961,-8,-3,-59,2,-1,-2,-39,-17
1523182245102961,44,17,62,-24,-3,1,9,-3
1523182245103466,70,-8,-62,45,6,2,9,-15
1523182245103466,-53,34,39,41,6,3,8,48
1523182245117498,65,15,-59,-27,3,-2,10,-10
1523182245117498,-87,-32,33,9,4,6,13,-24
1523182245125520,26,18,-41,-30,-16,-2,-18,-20
1523182245125520,6,3,12,-3,4,-1,-6,-68
1523182245140060,-2,-8,11,-2,-8,-7,20,72
1523182245140060,22,3,-55,-70,-5,4,7,-21
1523182245141064,19,13,17,24,2,2,38,33
1523182245141064,-20,-39,-94,34,0,-4,-66,7
1523182245162619,6,11,51,22,11,6,-9,-10
1523182245162619,-22,8,-28,6,-2,-2,12,-17
1523182245163623,-34,19,84,-10,-5,2,19,25
1523182245163623,-24,7,-84,-21,-13,-12,-11,-31
1523182245186185,-105,-25,8,-12,6,1,34,-17
1523182245186185,18,-22,2,16,-5,-11,-41,6
1523182245186683,-31,-16,9,-38,0,3,15,-3
1523182245186683,49,29,47,44,7,3,13,-12
1523182245200220,2,-3,21,4,2,0,-2,16
1523182245200220,-8,-8,-30,26,4,8,21,-16
1523182245201227,-82,-22,-41,-65,-16,-5,-18,-31
1523182245201227,-37,-7,-8,-27,9,12,39,-22
1523182245222780,30,16,6,51,3,8,-19,-27
1523182245222780,-10,15,-17,29,5,-2,-7,7
1523182245223782,-67,3,2,33,13,4,-27,-23
1523182245223782,-9,-13,65,-38,-20,-1,-6,14
1523182245245841,-1,15,-26,40,7,-2,26,-11
1523182245245841,-22,10,7,7,-4,-3,-12,-10
1523182245246844,80,17,11,43,0,-5,-18,-13
1523182245246844,57,-8,36,-53,-14,-5,4,26
1523182245260881,-30,18,9,58,8,5,42,-56
1523182245260881,-92,-47,-6,-11,-11,-7,-59,4
1523182245261382,58,23,-5,32,12,4,32,12
1523182245261382,4,18,82,44,5,-2,14,-19
1523182245282938,32,-4,-39,-100,-14,0,-2,1
1523182245282938,-11,-17,-34,41,8,-2,6,-21
1523182245283441,2,9,-20,-30,-5,2,-13,21
1523182245283441,-35,-12,2,20,6,7,-5,5
1523182245306039,96,11,-72,-20,-1,-3,-4,5
1523182245306039,54,-11,-18,18,5,3,7,-10
1523182245306502,32,-24,33,-53,-6,-5,-20,26
1523182245306502,22,9,-28,-11,-2,-6,-7,25
1523182245320539,-60,-14,23,-9,-3,-5,-3,-15
1523182245320539,114,36,61,33,7,8,26,26
1523182245321041,-6,-2,-19,-87,-13,-7,-27,-27
1523182245321041,-24,-13,41,8,-4,-1,-9,-4
1523182245342598,24,32,76,47,1,-8,-6,1
1523182245342598,-42,-1,-22,-24,-1,1,9,13
1523182245343602,-42,10,3,32,4,2,5,24
1523182245343602,0,10,-38,-77,-8,-2,14,-2
1523182245366164,14,21,-19,53,-9,-6,-33,5
1523182245366164,72,-5,-1,-39,-4,-8,-5,69
1523182245366662,-27,-8,-7,-14,1,2,9,-1
1523182245366662,17,-10,26,72,1,0,-10,-17
1523182245380199,14,-21,-15,-43,-1,2,39,54
1523182245380199,-25,-21,27,-67,-15,-6,-19,-53
1523182245381201,29,-16,-28,74,15,1,23,32
1523182245381201,10,14,-25,-62,-9,-4,-4,-10
1523182245402761,-49,-13,80,6,-3,-3,-13,-29
1523182245402761,8,0,-24,-14,-6,-5,3,10
1523182245403760,76,-5,42,-38,-8,-5,-9,-3
1523182245403760,9,-14,-2,41,0,-2,33,-33
1523182245425858,26,-11,5,-32,-3,-2,-41,47
1523182245425858,-15,24,-14,16,11,-2,-8,-56
1523182245426863,-60,30,45,13,-24,-12,8,-1
1523182245426863,84,-20,-35,22,-1,-4,-24,20
1523182245448380,-33,-6,41,53,7,5,6,-6
1523182245448380,6,7,-38,-78,-14,-6,2,4
1523182245449383,8,1,-13,36,9,8,35,-3
1523182245449383,-68,-20,-41,6,3,0,-51,-3
1523182245462919,-29,20,62,-38,-5,1,22,-23
1523182245462919,-86,-5,67,-5,3,6,-26,-46
1523182245463421,-21,-45,-42,66,0,-11,-30,-34
1523182245463421,0,17,-20,-42,-3,3,8,3
1523182245485984,-39,-8,-19,3,5,0,3,16
1523182245485984,36,-7,-23,19,9,3,32,-1
1523182245486984,-2,-48,-6,-57,-11,-2,-35,9
1523182245486984,-33,-14,76,69,2,-6,13,5
1523182245500521,-12,-4,-46,-43,-12,-5,-27,-37
1523182245500521,2,-16,-16,52,-2,-1,15,4
1523182245501020,-17,30,38,-30,1,6,-7,17
1523182245501020,50,37,-49,-34,1,0,6,8
1523182245522630,27,-16,-17,27,10,1,12,-2
1523182245522630,-34,12,21,-25,2,1,-7,4
1523182245523580,3,8,-4,124,-3,2,27,11
1523182245523580,-32,15,44,-33,11,7,-10,-43
1523182245546141,23,-28,12,-62,-15,-3,-8,47
1523182245546141,47,9,-7,18,1,-7,-10,48
1523182245546641,-16,15,-29,-54,-6,-5,2,-12
1523182245546641,18,-15,53,24,-6,-3,3,15
1523182245560176,-2,30,-6,5,3,7,53,18
1523182245560176,-1,-13,12,-4,2,1,-30,-20
1523182245561182,-4,6,51,26,2,2,-2,5
1523182245561182,-47,-26,17,-11,3,2,15,13
1523182245582737,-10,-3,57,27,8,-1,-1,15
1523182245582737,-47,-1,26,-57,-10,2,38,-8
1523182245583739,59,-8,-19,-15,-3,-5,-40,-15
1523182245583739,7,25,5,51,12,-1,-2,33
1523182245605297,-10,-33,-104,-14,-14,-5,-12,-29
1523182245605297,5,11,-28,50,11,0,11,-10
1523182245612818,16,-5,8,-73,-5,4,-5,-6
1523182245612818,54,-8,-19,8,2,-3,-6,82
1523182245620336,-90,-35,-26,-10,-4,-6,-19,-23
1523182245620336,-18,23,46,15,1,1,-10,6
1523182245620840,0,-3,-40,-13,4,-4,8,0
1523182245620840,-4,8,14,-83,-6,3,-4,-24
1523182245642933,9,6,-20,91,10,2,3,-6
1523182245642933,-8,-5,7,-10,1,-2,-3,27
1523182245643398,10,-33,-16,10,9,3,6,-10
1523182245643398,55,31,-61,-3,-9,-8,-25,6
1523182245665958,4,-1,30,-24,-6,-2,10,-58
1523182245665958,46,4,-109,-6,-5,-7,-29,53
1523182245666963,-10,8,44,-2,-8,-1,4,20
1523182245666963,-22,4,20,-19,-2,-2,9,-22
1523182245680498,17,-9,-37,13,7,0,-8,-25
1523182245680498,-20,-29,2,65,0,0,1,-35
1523182245680998,5,0,11,-58,11,2,2,0
1523182245680998,-28,23,-54,-15,-34,-9,5,5
1523182245703059,40,31,31,57,20,2,0,0
1523182245703059,-3,-3,45,7,-10,-2,-14,5
1523182245703566,8,13,-39,28,5,1,-4,-13
1523182245703566,-21,-12,54,-3,4,2,30,-43
1523182245726118,-6,14,-38,-10,1,2,-14,2
1523182245726118,-79,14,67,14,-9,-9,-21,-55
1523182245726621,0,2,-15,-100,-3,1,-10,20
1523182245726621,-23,-7,-21,6,2,-5,-16,-46
1523182245740155,-23,26,47,-5,1,2,27,51
1523182245740155,65,-2,-35,-59,-7,7,31,40
1523182245741158,-22,-41,6,103,15,0,-15,-33
1523182245741158,-70,-35,-2,23,5,0,13,-66
1523182245762716,12,-29,-83,-44,-10,-9,-35,100
1523182245762716,-10,16,76,-10,4,3,11,-35
1523182245763718,-14,6,-36,-26,-7,-2,-1,1
1523182245763718,41,1,53,29,8,3,5,-16
1523182245786282,3,-9,-1,-20,-17,-7,-17,23
1523182245786282,19,11,12,-37,-3,-6,-17,33
1523182245786780,24,20,15,55,-6,0,-4,11
1523182245786780,-3,-18,-52,-50,24,-3,2,-11
1523182245799813,-23,30,0,-62,8,12,31,-19
1523182245799813,-10,13,33,19,-7,0,3,21
1523182245807838,8,-5,41,59,-3,-5,-4,-4
1523182245807838,17,23,-7,-40,-6,5,-9,-25
1523182245822911,9,19,95,4,-3,-7,-8,17
1523182245822911,-12,9,27,-3,3,-1,-5,2
1523182245823377,41,14,-1,-6,8,12,24,-34
1523182245823377,35,12,56,11,-20,-6,-9,45
1523182245845939,46,-3,6,-37,-6,-3,-7,-26
1523182245845939,-19,-13,-31,61,-2,-8,-10,-40
1523182245846439,49,-18,-49,-22,-9,-7,7,52
1523182245846439,-31,0,8,35,1,0,-20,4
1523182245859510,20,-16,-18,4,2,4,17,-6
1523182245859510,8,-36,-80,10,-11,-11,-41,-38
1523182245867996,-100,3,-67,-12,3,-2,3,9
1523182245867996,24,5,-92,3,-3,1,6,-1
1523182245882533,-19,-3,-17,10,-10,-7,2,26
1523182245882533,-7,-15,-8,19,11,5,-2,-8
1523182245890554,-23,-11,-80,-35,-2,-3,-3,-9
1523182245890554,37,-1,99,-17,-7,-4,2,31
1523182245906096,-26,1,21,-21,8,3,-9,-46
1523182245906096,-18,-1,-11,50,9,0,23,59
1523182245906598,-29,45,9,-78,-19,-11,-16,-50
1523182245906598,-43,-69,-57,14,-1,1,18,53
1523182245919634,-44,4,-47,0,-2,-4,-47,-61
1523182245919634,9,-12,-59,-39,1,4,16,-27
1523182245928221,16,26,51,43,6,3,30,-26
1523182245928221,-75,50,37,0,14,11,-4,47
1523182245942694,-2,-12,39,63,5,0,16,18
1523182245942694,20,14,-27,35,0,1,-23,-13
1523182245943698,-7,-6,40,58,6,-6,-9,-7
1523182245943698,-3,10,15,-10,-8,-1,14,12
1523182245966257,-31,-16,-9,-13,-7,-6,-1,-1
1523182245966257,32,8,28,-37,14,6,33,-14
1523182245966757,-61,10,-68,-38,-20,-4,-42,33
1523182245966757,115,-44,25,-2,-10,-13,-6,17
1523182245980022,-17,-18,-30,-29,-9,-5,-17,-7
1523182245980022,-26,-15,-1,-40,-3,2,11,-8
1523182245987815,-1,3,-9,1,-11,-11,-1,22
1523182245987815,-17,-11,-74,17,13,6,-3,-37
1523182246002859,-4,8,0,10,-2,-3,-4,-7
1523182246002859,-1,1,26,-3,-6,-2,9,41
1523182246003858,32,-37,36,14,9,8,13,-1
1523182246003858,-25,34,20,-29,-11,-2,-8,-37
1523182246025951,71,-20,-63,39,8,3,9,24
1523182246025951,-49,13,17,-30,-9,-5,-24,-1
1523182246027123,-41,2,55,12,2,0,0,-15
1523182246027123,17,5,-39,65,7,2,-9,-22
1523182246039451,-26,-7,-4,-89,-5,2,19,-13
1523182246039451,5,17,-29,48,-4,0,43,47
1523182246047975,29,-5,15,-39,2,-3,-50,-7
1523182246047975,36,14,-3,6,-14,-11,-4,18
1523182246062572,0,-18,27,24,11,6,2,-5
1523182246062572,-32,5,65,5,-11,-6,-1,-3
1523182246063575,7,5,53,14,11,6,36,16
1523182246063575,7,-5,77,9,-2,-2,-28,7
1523182246086185,20,8,-50,-68,-8,-2,-8,-64
1523182246086185,53,-23,12,-34,-4,-1,-48,24
1523182246086635,50,-31,-93,53,5,-5,2,-25
1523182246086635,-1,-17,-2,-41,-10,1,13,-2
1523182246108694,26,55,95,27,0,-1,-1,-12
1523182246108694,67,0,-41,-7,0,3,23,6
1523182246109197,19,1,1,-70,-17,-4,3,9
1523182246109197,-50,-36,-20,62,15,0,-9,-21
1523182246122734,34,14,57,18,9,2,27,-1
1523182246122734,-25,-46,-119,-15,-4,2,15,-51
1523182246123733,2,1,59,58,8,6,8,27
1523182246123733,-35,-10,-83,-107,-11,-2,-8,-39
1523182246145794,-40,-19,12,-14,4,3,4,69
1523182246145794,-33,-20,58,49,12,-2,-16,-28
1523182246146798,-10,7,-53,-40,-6,0,-3,-6
1523182246146798,5,26,82,-4,-4,1,12,-19
1523182246168920,-11,-17,-16,55,-1,-8,-2,26
1523182246168920,3,-2,29,-47,-9,-6,-4,26
1523182246169865,-21,-6,12,40,9,-2,-9,2
1523182246169865,100,6,-6,15,0,-1,15,33
1523182246183131,-43,16,-29,-32,-9,-2,-14,-3
1523182246183131,-4,18,12,79,11,3,-19,-10
1523182246183391,-2,-10,-24,14,-6,-3,29,-16
1523182246183391,8,-11,-51,-6,-9,-8,-21,16
1523182246205953,97,26,51,9,-7,-6,-17,-29
1523182246205953,-11,-4,45,40,10,2,10,-14
1523182246206956,-48,16,10,-128,-1,7,6,-16
1523182246206956,38,4,53,79,9,-2,1,69
1523182246228748,-18,-11,49,93,5,-2,-2,-7
1523182246228748,5,4,-6,-76,-8,-3,10,-25
1523182246229013,53,23,93,-16,-9,-3,24,10
1523182246229013,-36,-18,-25,-33,-3,-1,-11,-41
1523182246242580,17,-6,-26,6,-3,-8,-44,27
1523182246242580,-10,33,-14,-81,-8,3,28,-69
1523182246243553,-28,-27,67,13,1,-1,-38,81
1523182246243553,-77,15,-61,-54,-8,-5,-5,-48
1523182246266111,-33,-35,18,19,1,0,17,-18
1523182246266111,-5,28,4,11,0,1,4,-22
1523182246266613,-11,-79,-64,-6,-9,-6,-16,5
1523182246266613,3,-11,-29,28,9,5,23,27
1523182246288672,-12,-9,0,-94,-13,2,-12,-44
1523182246288672,3,-11,-42,-10,-9,-14,-21,73
1523182246289173,39,29,-75,-3,2,3,6,-12
1523182246289173,-23,-30,27,-23,-2,-2,9,2
1523182246302713,-46,8,31,14,5,6,45,-92
1523182246302713,19,5,-70,10,10,2,-63,36
1523182246303713,-4,15,0,-37,-14,-3,-4,-15
1523182246303713,-15,20,-56,16,-5,-4,0,-43
1523182246325771,51,4,-43,-2,-1,1,4,77
1523182246325771,-60,-35,-32,23,6,1,20,-15
1523182246326773,5,5,10,15,1,-3,-28,-13
1523182246326773,-11,19,1,-34,0,8,3,-18
1523182246348367,6,-13,-67,-95,-3,4,19,9
1523182246348367,47,-13,60,120,5,-13,4,5
1523182246349374,2,33,19,-24,5,0,2,-22
1523182246349374,67,-5,-53,11,-4,-3,-9,27
1523182246362870,-24,3,6,6,-2,0,-17,11
1523182246362870,-1,26,27,-31,-2,7,1,35
1523182246363372,-94,4,-23,11,8,2,23,-29
1523182246363372,45,5,53,-59,-13,-8,-33,21
1523182246385933,-44,-27,-23,24,-4,-5,-6,-13
1523182246385933,-12,-12,72,-8,-2,1,2,-41
1523182246386937,-15,-23,-11,32,-3,-2,4,19
1523182246386937,3,4,66,37,12,6,24,1
1523182246408491,17,0,-1,-16,-15,-8,-34,4
1523182246408491,10,-22,-29,-82,-9,-3,9,-4
1523182246408992,-42,22,4,23,6,0,9,-28
1523182246408992,-14,3,92,86,5,0,14,5
1523182246422529,-8,-8,-57,29,-3,-3,-32,-44
1523182246422529,-34,9,42,13,-1,-4,3,5
1523182246423532,32,3,22,-24,-9,-4,-11,16
1523182246423532,-48,-12,-8,52,13,0,2,-7
1523182246446127,-38,24,1,-9,7,12,28,-15
1523182246446127,34,-4,-50,43,5,2,6,-5
1523182246446592,-47,-25,-52,-80,-12,-5,-23,27
1523182246446592,-66,2,-15,-20,2,2,8,-37
1523182246468672,13,-29,0,25,12,4,2,3
1523182246468672,-99,-29,-32,28,0,-4,-5,7
1523182246469653,38,-2,-10,53,3,-1,-12,3
1523182246469653,-2,-25,-25,-20,-5,1,6,-13
1523182246482923,-30,7,-57,-28,-1,0,5,9
1523182246482923,44,-9,-9,-17,-5,-2,-5,-8
1523182246483692,53,-4,-30,37,0,-3,18,-9
1523182246483692,-12,10,-68,-56,-8,-1,3,18
1523182246505749,23,8,60,44,-5,-8,-3,21
1523182246505749,-50,12,15,45,18,6,-4,-62
1523182246506752,21,10,26,29,1,-2,3,-20
1523182246506752,-39,19,95,28,20,4,-8,-13
1523182246528871,1,-16,-42,-37,-25,-7,17,8
1523182246528871,48,16,-10,-38,-15,-4,1,11
1523182246529313,2,-9,33,15,4,3,-20,-26
1523182246529313,11,-1,56,11,3,-5,10,64
1523182246542885,1,-23,-48,-22,1,3,-18,-17
1523182246542885,-9,11,16,-30,-6,-2,5,9
1523182246543350,13,10,0,20,6,0,5,2
1523182246543350,-17,-6,19,9,-1,6,14,13
1523182246566409,-24,48,43,-11,0,-5,-24,34
1523182246566409,8,4,-35,10,-1,0,1,1
1523182246566917,-16,-10,2,-1,-5,-4,12,-15
1523182246566917,-16,3,-83,-3,-2,-2,-15,-51
1523182246588470,78,16,16,14,6,1,33,45
1523182246588470,82,40,99,-51,5,3,-23,-11
1523182246589472,-66,-1,9,84,-2,-1,-3,-43
1523182246589472,3,-10,-53,-62,-14,-9,-18,2
1523182246602560,30,24,10,23,-2,-4,10,-22
1523182246602560,9,-6,43,-15,2,6,-5,37
1523182246603511,37,1,3,-28,-3,2,23,43
1523182246603511,-11,3,5,97,16,-1,5,-4
1523182246626309,-2,-15,-21,-9,7,0,23,23
1523182246626309,-22,-13,-39,-3,-1,-2,-14,2
1523182246626569,-33,-10,58,-28,-3,1,-2,-15
1523182246626569,-9,-1,1,-49,-22,-11,-61,23
1523182246648630,-7,-18,-50,-7,-3,3,30,-44
1523182246648630,-43,-1,-36,31,4,-1,-11,-31
1523182246649131,8,-5,-38,15,7,3,22,-13
1523182246649131,17,12,75,28,-7,0,-6,-16
1523182246662667,-49,-22,92,-5,-11,-9,-13,-51
1523182246662667,0,-22,-17,-20,-14,-6,9,32
1523182246663669,10,9,-23,-25,-2,-4,-3,22
1523182246663669,21,-3,21,41,16,7,27,3
1523182246686230,2,-37,-89,-97,-11,-1,21,-25
1523182246686230,42,2,-27,32,-1,-2,-9,-27
1523182246686731,16,2,12,2,5,-3,-25,37
1523182246686731,5,3,-23,-86,-13,5,50,28
1523182246708288,-13,-24,-52,46,8,-6,-90,5
1523182246708288,36,9,-17,-14,-4,-3,22,25
1523182246709292,6,4,-19,16,-4,-2,19,-13
1523182246709292,18,6,-19,-9,0,-2,-1,-44
1523182246722326,21,32,29,26,10,-3,-17,52
1523182246722326,-43,0,11,33,0,1,6,-19
1523182246730346,-14,-12,16,-30,-16,-2,-27,-26
1523182246730346,-37,2,-25,22,1,2,20,-17
1523182246745888,-11,9,38,6,1,-2,-15,-7
1523182246745888,1,-8,-48,18,4,2,29,-35
1523182246746892,10,-30,14,-15,0,-2,-17,43
1523182246746892,36,3,-1,-31,-4,2,36,-21
1523182246768450,45,32,-9,-11,-2,-3,-39,4
1523182246768450,-21,-7,-36,-11,-3,-2,-19,43
1523182246769451,23,-8,-44,-2,1,-1,7,2
1523182246769451,66,-3,-3,15,-2,-6,9,-11
1523182246782523,-76,-22,14,-4,0,0,-14,15
1523182246782523,2,-12,-10,-10,-3,5,15,-8
1523182246790507,-4,0,-2,-20,-11,-9,-6,-15
1523182246790507,-12,8,44,56,7,-3,-32,28
1523182246806049,70,-9,-25,-27,-7,7,61,31
1523182246806049,-8,19,58,12,11,1,-6,15
1523182246806549,-17,6,-24,20,-1,-4,-17,3
1523182246806549,-1,-2,-18,-61,-9,-2,-17,-40
1523182246828765,3,-9,35,11,4,0,11,10
1523182246828765,-50,-36,6,34,8,4,53,-56
1523182246829031,-36,-22,-53,-16,3,0,-53,15
1523182246829031,-19,4,6,-25,-9,-5,-22,-15
1523182246842066,-4,23,36,-31,4,4,5,-1
1523182246842066,-24,-8,-19,46,3,-11,1,-43
1523182246850595,-40,0,39,20,5,5,11,16
1523182246850595,-45,-8,34,-8,-9,-9,-31,14
1523182246866346,-76,-2,30,17,-3,0,-1,-31
1523182246866346,12,-7,11,-61,-4,3,-6,-6
1523182246866633,13,6,31,48,4,-3,14,23
1523182246866633,56,11,34,-1,1,4,-8,26
1523182246888689,40,5,-93,16,-5,-6,-12,-15
1523182246888689,16,23,25,22,4,3,-2,3
1523182246889193,-42,4,-19,-76,-17,-3,30,-5
1523182246889193,73,-6,25,80,15,6,11,35
1523182246902226,2,23,48,1,-4,-4,7,19
1523182246902226,14,-1,-52,-86,-2,2,-26,-4
1523182246910283,14,4,-33,-88,-11,4,37,-70
1523182246910283,-6,3,49,84,16,-16,-58,54
1523182246926420,74,29,65,-24,5,0,15,35
1523182246926420,49,-9,-80,-56,-13,-4,-3,14
1523182246926791,35,15,20,-48,-2,4,-11,-12
1523182246926791,-20,-18,-36,6,-6,0,24,-21
1523182246948384,-21,-2,8,20,13,3,19,-13
1523182246948384,15,20,127,18,-6,-2,-44,29
1523182246949351,9,-4,97,39,7,-1,2,-13
1523182246949351,-25,-9,-56,-33,-10,3,4,-3
1523182246962386,-9,-28,-38,59,-2,-12,-1,-43
1523182246962386,9,10,-37,25,-1,5,51,-20
1523182246970407,5,23,-76,5,-6,-12,-37,70
1523182246970407,-17,38,-77,-29,-5,-5,2,-40
1523182246985448,-32,-3,36,-32,-7,1,-38,-28
1523182246985448,-20,-9,-36,10,2,0,21,-25
1523182246985949,7,1,22,58,12,4,-10,-40
1523182246985949,-65,-10,3,-55,-10,-2,-3,14
1523182247008509,74,-26,-27,-2,-11,-7,-6,-16
1523182247008509,0,11,36,26,-5,-8,-18,17
1523182247009511,22,6,15,-49,-10,-4,12,-4
1523182247009511,-22,-19,-6,28,11,7,24,-19
1523182247022044,-4,4,26,-11,-1,3,-7,16
1523182247022044,-24,0,14,-11,-6,-7,-3,24
1523182247030302,18,-9,53,8,12,4,-6,-34
1523182247030302,76,-17,-52,-72,-12,-5,6,33
1523182247045107,-92,-18,-2,27,-4,-4,29,23
1523182247045107,34,45,7,24,3,2,-23,50
1523182247046110,-30,-23,42,21,-1,-1,-5,-17
1523182247046110,9,-5,-19,-11,-1,-8,-12,2
1523182247068669,-2,12,6,-25,0,-1,12,-26
1523182247068669,-25,-20,-18,61,8,-7,-6,56
1523182247069169,-34,-58,32,32,9,3,10,6
1523182247069169,-41,3,-21,-14,-9,3,2,-29
1523182247091228,13,3,-64,-120,-12,6,-8,3
1523182247091228,-19,-20,13,71,5,-5,5,-53
1523182247091730,44,14,-26,2,3,0,5,39
1523182247091730,30,3,-3,6,-2,-3,-16,0
1523182247105265,3,8,5,27,2,2,3,-1
1523182247105265,10,5,76,-46,-19,-8,-5,-22
1523182247106269,4,3,-40,45,9,1,6,23
1523182247106269,-20,4,26,10,4,0,-8,-8
1523182247128842,-14,13,-29,7,0,5,-3,22
1523182247128842,-24,-6,-35,32,0,-2,7,-13
1523182247129330,12,5,-11,-19,-7,4,20,-25
1523182247129330,2,5,23,23,6,7,27,47
1523182247150889,72,-5,27,36,-3,-8,-24,23
1523182247150889,9,28,74,28,11,5,-5,8
1523182247151894,17,-2,-41,-83,-12,-3,-6,-24
1523182247151894,-21,-6,-10,22,2,6,34,-59
1523182247165426,59,11,-16,23,13,-1,-25,8
1523182247165426,67,-29,31,-32,-10,0,-7,5
1523182247165926,-28,9,-74,-58,-16,-11,-13,5
1523182247165926,-15,-6,44,75,12,0,-6,-28
1523182247188487,-17,-17,4,-22,-3,3,2,1
1523182247188487,3,18,-32,-57,-5,-1,3,25
1523182247189490,2,5,84,-5,7,4,-10,-7
1523182247189490,6,-23,-78,28,-11,-10,-10,11
1523182247211046,-35,4,13,36,10,1,8,-64
1523182247211046,-81,-12,-54,-34,-2,-1,-30,7
1523182247212554,43,36,93,29,-2,4,7,36
1523182247212554,-60,-2,17,-30,6,5,21,-12
1523182247225586,-13,-21,-12,36,7,0,-11,-20
1523182247225586,-6,1,4,-62,-12,1,22,-31
1523182247226087,24,31,-8,98,9,-4,-12,15
1523182247226087,-2,-30,-1,-16,5,-1,-7,-19
1523182247248430,-8,9,-115,0,-18,-3,9,4
1523182247248430,-9,-11,-28,-33,-3,-4,-1,8
1523182247249433,-45,8,-44,-3,-1,1,20,-8
1523182247249433,79,9,-27,-46,-6,-6,-34,34
1523182247270989,15,-1,17,-11,-6,-8,-4,44
1523182247270989,23,1,88,-15,-2,-1,-2,8
1523182247271995,-44,-21,-49,15,-4,-6,-6,-14
1523182247271995,19,25,17,-27,-3,-1,10,9
1523182247285532,-29,-8,5,6,14,10,29,9
1523182247285532,28,-18,-10,-28,-24,-12,-25,-5
1523182247286031,41,-23,26,89,13,-3,-19,-35
1523182247286031,5,0,9,-53,-13,-2,-3,11
1523182247308590,23,12,29,-17,-3,1,19,-10
1523182247308590,-23,-9,-39,64,8,-1,13,-5
1523182247310092,5,7,22,-15,-2,9,31,-5
1523182247310092,1,19,22,3,-8,-5,-21,19
1523182247331359,-23,9,16,-13,10,0,-21,23
1523182247331359,81,-30,-84,-11,-6,-5,-5,0
1523182247332653,33,8,23,-44,-2,-5,-11,11
1523182247332653,-29,8,57,50,6,1,10,-37
1523182247345187,-5,-3,38,-26,-3,5,-4,17
1523182247345187,-42,-15,-95,-43,-5,4,6,-22
1523182247353709,29,-18,-13,21,3,-7,-3,35
1523182247353709,3,-2,-65,-27,1,3,-14,10
1523182247368771,12,7,33,125,6,3,17,-23
1523182247368771,21,10,-29,-42,-10,-6,-3,25
1523182247370254,9,-40,-13,7,0,4,-9,-14
1523182247370254,16,-3,12,-33,-12,-1,-1,8
1523182247391310,22,7,-18,-51,13,0,9,-24
1523182247391310,2,16,-49,4,1,-5,-13,14
1523182247392814,-23,21,-36,52,0,-7,-3,-1
1523182247392814,8,-6,-5,-13,0,-1,0,21
1523182247404343,-7,-7,-34,-111,-25,0,21,-5
1523182247404343,-28,1,62,93,26,7,-14,-30
1523182247413368,55,-4,53,2,1,-4,1,9
1523182247413368,-2,-4,19,12,2,2,-21,1
1523182247428643,4,-4,15,1,-5,-5,1,3
1523182247428643,-17,-2,-11,-78,-10,0,-8,-4
1523182247429910,-10,-10,-12,24,-7,-9,1,-9
1523182247429910,-11,-24,9,-53,-2,-3,3,-38
1523182247450972,-17,-5,26,58,-1,0,28,47
1523182247450972,68,-5,34,38,7,-6,-25,21
1523182247452471,-36,-27,-37,-27,3,6,-9,-35
1523182247452471,71,7,24,-8,-3,2,14,35
1523182247464738,18,19,-10,-28,-11,-7,-21,1
1523182247464738,-9,-25,-30,64,-5,0,12,7
1523182247473528,-47,8,-77,-10,-7,-8,-2,-19
1523182247473528,0,19,15,9,-3,-4,-20,85
1523182247488577,-28,18,6,-3,6,0,-8,-7
1523182247488577,-8,30,52,30,14,11,14,-16
1523182247490071,22,21,72,-53,-9,3,12,-19
1523182247490071,-62,-46,-81,34,11,3,18,22
1523182247511128,11,-25,-9,68,-7,-12,-52,-24
1523182247511128,-8,8,56,-77,-13,-3,8,8
1523182247512632,-21,4,-33,35,-4,-3,11,3
1523182247512632,-9,-10,33,-6,3,4,11,-33
1523182247524664,31,-2,2,-19,0,-4,-5,1
1523182247524664,37,34,16,-21,6,4,17,0
1523182247533687,-85,1,38,16,2,1,-5,-12
1523182247533687,-4,-8,-6,36,-6,-6,-8,32
1523182247555749,-1,-1,-13,-16,15,11,0,3
1523182247555749,-39,8,53,-8,-4,1,20,0
1523182247557752,-1,-19,-15,-6,1,-3,-22,46
1523182247557752,-12,9,-42,54,2,-8,-5,-28
1523182247570840,-25,3,10,3,1,2,35,12
1523182247570840,-36,-1,2,-21,3,-1,-44,-36
1523182247572344,37,-15,-48,-54,-13,5,11,24
1523182247572344,-14,2,-19,-49,-11,-6,1,-41
1523182247584876,-56,-31,49,57,13,-13,-22,-14
1523182247584876,-10,-23,-32,-66,-14,-4,3,5
1523182247593400,86,14,-26,-22,12,9,12,15
1523182247593400,-3,25,5,-99,-21,-3,-10,-5
1523182247608475,5,1,49,75,21,6,2,-39
1523182247608475,-25,-7,-16,11,0,1,15,4
1523182247609943,-20,-2,37,-25,-15,-9,-47,2
1523182247609943,-49,16,-5,-4,6,-1,5,-32
1523182247630999,14,6,42,25,-6,-1,6,5
1523182247630999,38,-27,12,-7,6,-3,7,22
1523182247632504,-12,12,7,1,-6,-1,-5,44
1523182247632504,45,3,9,-43,-6,-3,6,-34
1523182247644536,3,2,4,9,2,-5,-27,21
1523182247644536,-46,-39,-1,24,-1,-1,13,25
1523182247653559,32,20,-19,-2,2,-5,-16,-3
1523182247653559,-36,-5,5,-16,-7,1,1,4
1523182247668599,69,-6,-50,-11,1,0,-16,-22
1523182247668599,-13,15,-25,2,0,0,15,-8
1523182247670103,0,7,2,-49,-6,-1,7,-30
1523182247670103,5,-17,69,124,16,2,-5,9
1523182247691160,70,10,-40,-57,-14,0,12,-5
1523182247691160,24,1,12,36,2,0,-12,12
1523182247692668,-35,-2,-1,6,2,-2,1,-16
1523182247692668,-42,-19,27,59,1,-3,1,-41
1523182247704695,-48,8,-74,-63,-12,-4,2,-43
1523182247704695,66,23,-47,-7,-4,-1,-3,4
1523182247713719,-54,-32,64,-35,3,10,10,-23
1523182247713719,95,17,-20,-19,0,-3,-4,11
1523182247728862,-95,5,82,102,5,-2,-6,-4
1523182247728862,-10,8,-12,-40,-3,-1,-1,-24
1523182247730511,18,-15,33,28,2,-3,14,64
1523182247730511,100,19,-17,-73,-15,-4,-25,13
1523182247750819,14,19,10,17,10,0,-3,-1
1523182247750819,-14,-13,3,34,12,2,3,0
1523182247752322,0,28,-35,2,-2,1,10,22
1523182247752322,-39,-34,11,11,12,7,5,-17
1523182247765010,55,0,-38,-123,-25,-4,-4,15
1523182247765010,-65,-6,12,49,5,-1,1,18
1523182247773879,-24,1,20,-51,-3,6,44,-4
1523182247773879,-32,-21,-35,63,9,-12,-15,-10
1523182247795943,-20,-15,27,-32,-7,-1,-10,1
1523182247795943,8,9,4,5,-1,1,2,-33
1523182247797443,55,-10,-51,-28,-6,-5,11,-79
1523182247797443,13,-13,47,-24,-7,-3,2,64
1523182247810978,-82,-1,63,27,-7,-7,6,-25
1523182247810978,-38,11,3,-24,-2,-2,-5,-31
1523182247812482,-66,-16,-15,-19,2,0,-10,-43
1523182247812482,23,7,27,15,-1,6,-16,31
1523182247824549,72,-10,-58,65,18,3,6,12
1523182247824549,-9,17,44,-6,2,0,7,17
1523182247833540,19,6,54,19,2,3,5,4
1523182247833540,-33,2,38,19,5,6,13,-7
1523182247848578,-51,3,3,-71,-6,4,8,22
1523182247848578,32,6,-25,-33,0,1,-16,-7
1523182247850081,-5,9,-5,58,-7,-8,-40,-28
1523182247850081,-38,1,-22,42,9,1,10,-28
1523182247871140,3,-7,-59,-13,-7,2,49,103
1523182247871140,16,15,14,-70,-8,2,-26,-48
1523182247872641,45,-47,-15,49,-3,-9,-26,18
1523182247872641,9,-20,-34,-43,-16,-6,10,-11
1523182247884677,10,16,41,4,1,0,-12,-44
1523182247884677,5,-27,-70,0,-3,-3,21,25
1523182247893698,8,4,5,-12,3,6,17,25
1523182247893698,-19,2,-23,-4,-8,-10,-21,-36
1523182247908274,71,-1,-8,-18,-3,-2,-5,10
1523182247908274,-15,-12,24,11,-5,-1,7,19
1523182247910242,37,14,-4,-23,-5,2,9,-28
1523182247910242,-2,-3,11,-20,8,-5,-15,-5
1523182247931032,5,-10,25,59,5,4,15,-49
1523182247931032,42,21,42,84,15,0,-43,100
1523182247932807,-79,-12,-16,-1,-14,-10,-3,-42
1523182247932807,61,-4,-74,-9,-3,2,5,7
1523182247944333,1,0,-20,-65,-3,3,-19,-22
1523182247944333,-8,9,68,-49,3,2,22,-33
1523182247953856,28,-20,-47,41,7,-5,-11,21
1523182247953856,-15,15,17,-6,1,-2,-28,4
1523182247967895,34,-5,41,-52,-15,-4,3,-7
1523182247967895,65,-6,-17,36,-1,-3,4,-2
1523182247974451,19,31,-8,-16,-4,-4,-12,21
1523182247974451,-48,-4,-14,19,-3,-1,31,-9
1523182247990955,-23,-23,-35,-9,-1,-5,-16,9
1523182247990955,-29,11,40,-17,-10,-3,-1,-15
1523182247992460,87,-5,41,53,6,-1,5,-14
1523182247992460,15,16,11,1,7,2,3,10
1523182248013515,-49,-12,3,29,-3,-4,-27,14
1523182248013515,-44,-1,-27,-37,-13,5,34,6
1523182248015019,17,16,-56,34,2,-9,-44,-3
1523182248015019,52,23,24,-18,6,0,7,33
1523182248028555,-10,12,-14,-61,-7,-1,6,-4
1523182248028555,0,-8,17,-10,4,-3,9,-33
1523182248030059,-18,-18,-19,-16,3,8,-31,22
1523182248030059,-8,3,-11,-44,-13,1,28,-26
1523182248051120,23,14,-6,52,7,-7,-19,38
1523182248051120,-6,3,20,5,0,4,-4,-10
1523182248052621,-17,1,19,-22,7,6,24,-5
1523182248052621,-23,-12,-59,-46,-12,-2,-11,-24
1523182248073677,-39,-10,3,23,-3,0,2,-35
1523182248073677,-42,-39,-36,20,-1,0,31,-9
1523182248075180,-82,7,96,-20,0,-8,-82,44
1523182248075180,40,33,-9,52,16,2,1,0
1523182248088214,-18,2,-41,-48,-12,0,11,-13
1523182248088214,9,-18,-18,25,-2,-6,-12,-6
1523182248090221,-24,9,2,12,3,7,47,-7
1523182248090221,-34,-22,30,-8,-6,-1,-2,-7
1523182248111276,42,10,21,32,17,10,20,-33
1523182248111276,-23,5,-27,-15,-4,-2,-50,5
1523182248112780,2,-14,-102,23,5,-1,16,-12
1523182248112780,-9,-6,9,-37,-4,0,-9,2
1523182248133337,-3,20,11,-4,-1,0,18,-16
1523182248133337,18,-28,-42,27,-5,-3,10,89
1523182248135341,27,26,17,35,5,-3,-17,-24
1523182248135341,-40,-32,-61,-53,-7,7,4,-19
1523182248148586,-53,-2,-37,27,5,-9,-3,1
1523182248148586,11,13,18,-22,0,1,-6,-8
1523182248149879,-34,-3,1,0,4,0,12,-6
1523182248149879,-27,-18,54,6,-5,4,32,2
1523182248170934,-44,-17,31,-25,0,-3,-30,9
1523182248170934,26,30,-83,-1,-8,-10,-42,1
1523182248172438,16,8,-29,-32,-5,1,40,-26
1523182248172438,-10,-2,-12,52,14,1,-9,-40
1523182248193498,-66,-30,-31,-12,-6,-1,-9,40
1523182248193498,-57,2,-3,32,6,-4,-10,-9
1523182248194999,44,-21,12,-70,-15,-3,41,2
1523182248194999,16,-1,18,44,-2,-2,-16,29
1523182248208032,4,-7,-35,-37,6,-2,-3,-13
1523182248208032,34,0,39,-46,-9,6,13,1
1523182248214786,-43,10,75,31,10,-3,-3,-3
1523182248214786,-70,-5,-60,11,1,-2,-4,-3
1523182248231094,61,5,23,8,-7,0,6,22
1523182248231094,50,3,61,9,-2,1,18,-30
1523182248232605,32,15,29,7,-4,-3,-2,10
1523182248232605,-12,18,54,-21,-1,-2,-10,6
1523182248253655,-23,4,-14,-44,3,12,24,9
1523182248253655,-33,5,-3,86,3,-12,-15,7
1523182248255159,-31,-18,-94,42,-14,-4,6,-13
1523182248255159,50,8,-46,-89,-2,3,-36,30
1523182248267692,8,-2,-24,92,3,3,42,8
1523182248267692,7,-6,-11,-8,-2,1,-6,-29
1523182248274709,67,3,-2,18,6,3,1,-2
1523182248274709,15,5,0,-61,-15,-3,6,-12
1523182248290752,10,12,23,8,1,0,18,-18
1523182248290752,-22,-27,-12,30,2,-9,-22,10
1523182248297270,-8,10,-25,-4,-4,-3,-25,10
1523182248297270,2,17,4,-14,-2,2,14,-31
1523182248314051,7,2,15,-9,-3,-1,4,4
1523182248314051,-28,-24,-40,18,11,7,20,17
1523182248315319,20,14,61,-7,-4,1,-40,28
1523182248315319,-3,-5,-32,52,9,-4,9,-2
1523182248328086,-19,-1,10,35,-9,-9,-14,7
1523182248328086,39,11,-14,-32,0,4,-4,-19
1523182248334871,-64,-15,-55,-51,-16,-9,4,8
1523182248334871,-39,-19,-16,47,7,-3,0,6
1523182248350914,18,9,-19,-29,-2,-1,-39,1
1523182248350914,16,-9,-65,13,0,0,12,-20
1523182248352418,-18,-1,10,-19,0,3,3,-22
1523182248352418,22,23,53,8,-5,-1,4,-1
1523182248373511,-1,-21,-12,-30,-5,-6,3,15
1523182248373511,-24,3,13,-1,-7,-6,-34,-3
1523182248374977,11,3,-6,-8,3,1,6,-2
1523182248374977,-26,-22,11,24,-2,-3,3,12
1523182248388011,43,6,-16,42,0,0,-7,-23
1523182248388011,49,8,14,-118,-5,9,27,4
1523182248394530,-96,9,37,99,13,1,14,25
1523182248394530,97,19,-9,36,10,1,-27,-27
1523182248410901,-53,-2,22,4,-4,-2,6,26
1523182248410901,-12,11,44,8,0,-4,-19,-1
1523182248412404,4,-6,10,-45,-2,-1,4,-13
1523182248412404,-22,-7,11,-27,-5,3,25,-16
1523182248433462,32,-3,24,-23,-7,-4,-2,36
1523182248433462,23,-5,2,99,-5,-9,-1,6
1523182248434964,-60,-15,-18,-123,-6,3,-3,-42
1523182248434964,-56,-27,-21,49,1,-3,1,-24
1523182248447999,27,1,24,8,3,1,-6,-19
1523182248447999,-15,-6,30,7,2,1,14,-14
1523182248454516,-1,-2,-52,3,-7,2,-3,37
1523182248454516,-37,29,47,37,10,8,17,15
1523182248471065,-26,-7,18,-18,5,4,-29,-13
1523182248471065,-46,28,28,14,12,3,5,-30
1523182248472563,19,-15,5,-18,-4,-2,24,8
1523182248472563,-30,2,-15,-43,-7,-3,-27,-14
1523182248493620,-40,-18,-3,25,0,-2,4,-13
1523182248493620,6,3,1,-65,-3,0,5,-5
1523182248495122,61,16,-5,-8,-4,-3,-29,27
1523182248495122,-5,-2,8,15,-4,-6,-6,8
1523182248507194,14,0,-36,84,8,-2,5,-14
1523182248507194,33,-2,-3,-95,-20,-2,7,-78
1523182248516178,15,-26,48,57,13,10,19,44
1523182248516178,105,-6,12,23,4,2,6,25
1523182248531349,-56,-22,60,-11,-1,-4,-17,24
1523182248531349,-75,-6,17,30,4,1,-9,-18
1523182248532724,50,20,2,-17,-7,-4,0,-10
1523182248532724,-14,-9,29,-7,-2,-1,2,9
1523182248553278,12,6,-7,-4,1,-1,-11,3
1523182248553278,-24,-30,-26,-63,-13,-2,8,33
1523182248555291,38,-4,10,6,1,-4,-27,21
1523182248555291,25,23,10,16,-3,-4,-8,5
1523182248567314,29,6,-5,27,-3,-2,36,-18
1523182248567314,34,6,-61,-80,-4,2,-17,36
1523182248576340,-48,-5,-20,93,2,-9,2,-51
1523182248576340,-10,7,38,-27,1,6,35,13
1523182248590879,2,-14,4,10,-1,0,-19,-25
1523182248590879,81,-3,12,63,-8,-8,1,29
1523182248592381,-8,6,-9,-51,1,0,-3,-29
1523182248592381,10,-9,-32,-5,-5,-4,-9,-42
1523182248613676,-35,1,-9,-20,-1,1,11,-3
1523182248613676,29,-16,9,52,9,3,-5,-7
1523182248614944,-11,-7,-11,-18,-4,-1,-2,28
1523182248614944,15,-2,14,17,-1,-5,-16,10
1523182248627214,22,29,9,-62,-7,-2,-11,-7
1523182248627214,-64,-5,20,111,7,-1,4,-14
1523182248635997,-29,-7,-32,-79,-13,-6,-7,-18
1523182248635997,-3,-6,37,-7,-5,-5,-12,67
1523182248651038,-19,-1,21,-8,-5,-2,1,-17
1523182248651038,-58,42,15,-28,4,5,38,10
1523182248652541,0,19,38,-2,6,1,-42,22
1523182248652541,-75,-8,43,74,-3,-8,-4,-23
1523182248673599,18,-6,-60,-24,-4,-4,-7,-17
1523182248673599,2,13,23,3,5,9,25,11
1523182248675102,85,5,-26,-11,0,-6,-15,-36
1523182248675102,65,13,6,-92,-10,-4,0,0
1523182248686911,69,2,-37,39,-2,-3,-3,1
1523182248686911,-15,-11,-4,19,7,-1,-3,-14
1523182248695934,-13,-13,16,-35,-3,4,21,3
1523182248695934,-23,3,-34,-14,-6,-4,-8,-4
1523182248710975,30,-8,12,21,7,2,-2,2
1523182248710975,1,-3,-85,-25,-5,-5,-8,9
1523182248712478,-15,-23,34,22,3,4,21,1
1523182248712478,-8,-3,-118,-9,-4,3,4,-43
1523182248733536,27,4,82,-3,1,-2,3,38
1523182248733536,80,-9,2,-13,-4,-7,-5,10
1523182248735039,-78,18,24,21,-5,-3,-8,-53
1523182248735039,10,-10,12,-37,3,8,8,-16
1523182248747108,-14,6,-67,-44,-7,-8,-2,-8
1523182248747108,-18,-12,55,61,3,-3,-7,12
1523182248756097,1,12,14,-1,0,3,23,-17
1523182248756097,-32,-23,-26,15,-9,-8,-10,18
1523182248771134,-27,-1,3,-59,1,3,-23,-13
1523182248771134,-10,-5,-34,-11,-9,-5,-3,-13
1523182248772645,-28,-22,-7,73,9,-4,3,8
1523182248772645,-4,15,84,-17,6,5,7,11
1523182248793194,-44,-16,-44,16,-3,3,6,-9
1523182248793194,8,9,-2,18,6,1,-10,-5
1523182248795238,13,8,-5,-27,-6,4,9,-8
1523182248795238,42,5,71,37,0,-10,-18,29
1523182248807230,-13,-17,-30,9,-6,-5,-23,40
1523182248807230,-81,-13,23,17,1,1,-9,-16
1523182248816261,-38,-5,-46,7,-6,1,4,-15
1523182248816261,-86,-28,7,15,2,-4,-1,15
1523182248831342,14,14,63,-16,-7,-3,9,9
1523182248831342,65,-4,-6,22,1,-4,-9,2
1523182248832798,-18,-23,3,-6,2,-1,4,90
1523182248832798,-14,-1,-47,0,3,7,14,-17
1523182248853353,-7,12,35,11,2,1,9,5
1523182248853353,-21,-16,1,-28,-1,6,-6,-3
1523182248854857,26,4,31,14,0,-4,11,-43
1523182248854857,-5,-7,-79,-11,-1,3,17,-8
1523182248867393,58,5,4,28,7,-2,-23,-6
1523182248867393,20,-3,2,-21,-2,-4,-4,6
1523182248875913,26,18,10,-38,-7,-1,1,-9
1523182248875913,-5,-10,22,24,0,2,-9,-5
1523182248890952,-6,4,-26,56,6,-1,1,-17
1523182248890952,-10,11,33,-36,-6,-7,-2,-8
1523182248892458,16,11,1,58,7,9,-2,20
1523182248892458,53,4,-32,-81,-14,-9,-7,2
1523182248913750,-62,-29,1,57,7,8,28,-38
1523182248913750,22,-2,19,62,4,-4,-11,-5
1523182248915018,45,3,14,-29,-5,-7,-7,9
1523182248915018,-8,5,30,54,-3,-6,-4,0
1523182248927049,3,4,23,-75,-2,0,6,-10
1523182248927049,-27,3,-23,-19,-5,9,-4,24
1523182248943594,-36,-16,0,39,6,4,4,9
1523182248943594,23,16,-19,-59,-8,-5,-9,12
1523182248951112,20,-11,-27,-87,-15,-12,-12,-10
1523182248951112,6,2,-39,10,-10,-5,-2,9
1523182248952617,29,24,58,-4,5,-2,-1,5
1523182248952617,-70,1,4,99,20,-4,2,8
1523182248974206,-29,4,-13,14,-4,-2,-3,1
1523182248974206,19,-6,12,-60,8,6,19,9
1523182248975677,65,9,-21,-44,-10,-6,0,-19
1523182248975677,48,9,3,9,5,9,2,8
1523182248995730,-7,-19,18,22,5,2,7,2
1523182248995730,-41,20,37,3,-8,-5,-6,-22
1523182248997736,-78,-11,-46,27,7,8,8,-46
1523182248997736,25,34,22,32,5,-2,-14,-14
1523182249011274,16,10,-13,-3,5,2,-1,11
1523182249011274,2,-5,3,40,-1,2,2,-5
1523182249012775,15,-6,35,-72,-6,-3,-10,-9
1523182249012775,37,-13,-74,71,6,-6,27,-50
1523182249033837,-27,-21,87,-11,-17,-11,-52,25
1523182249033837,24,20,-12,-7,11,0,5,-1
1523182249035336,3,-9,-27,-64,-17,-6,-2,9
1523182249035336,-27,-3,-13,-61,-6,3,-5,-12
1523182249055891,0,-7,-50,-28,-11,-5,18,-10
1523182249055891,-2,0,-13,19,3,-2,-3,-7
1523182249057395,13,-8,-25,22,-2,-3,-8,47
1523182249057395,-4,-30,24,-1,-1,-1,7,4
1523182249070933,-25,-18,-102,2,-2,2,-1,-15
1523182249070933,2,-2,0,-46,-6,-2,-4,-11
1523182249072435,-11,-2,-1,18,2,4,13,6
1523182249072435,15,8,4,-13,-7,-3,-12,-1
1523182249093492,13,13,-22,0,-3,-3,4,-3
1523182249093492,19,-7,-20,-3,-1,3,8,-28
1523182249094995,44,-37,-86,21,-2,-8,-8,24
1523182249094995,30,-4,6,-16,-8,-3,-10,67
1523182249116061,11,19,24,14,9,5,-25,-5
1523182249116061,-24,-19,-52,15,-2,-6,5,18
1523182249117555,30,36,31,-62,-10,-6,-11,-47
1523182249117555,4,-6,-12,18,2,2,10,0
1523182249130088,-44,13,-23,7,2,1,16,11
1523182249130088,-35,-9,1,5,0,1,-1,20
1523182249144629,61,-36,-47,70,0,-9,-10,1
1523182249144629,-29,-13,-3,-63,-18,-16,-16,-41
1523182249153650,13,-21,53,13,8,3,28,3
1523182249153650,41,5,111,7,14,23,9,-1
1523182249155155,-116,-7,-7,25,-5,-11,-42,-17
1523182249155155,-2,-1,-30,20,1,5,2,-20
1523182249175948,40,25,60,27,-5,-7,2,29
1523182249175948,12,5,9,-2,-3,-3,7,13
1523182249177942,-67,-23,-41,-47,-1,3,12,-22
1523182249177942,59,-1,42,50,-11,-12,-20,45
1523182249190250,-5,13,-46,2,9,4,-2,-46
1523182249190250,0,33,79,11,-7,-8,-4,34
1523182249197266,-29,-24,11,-29,-6,3,7,-12
1523182249197266,-33,-9,2,-14,11,8,15,-45
1523182249220831,43,18,30,33,1,-2,-5,7
1523182249220831,-52,-4,2,-33,-6,-3,-8,-3
1523182249222333,1,32,23,32,1,-4,3,12
1523182249222333,11,-18,1,-8,-3,2,-1,4
1523182249235868,-10,3,-32,-50,1,1,17,-8
1523182249235868,-68,12,-22,7,-4,-6,12,-24
1523182249237373,43,13,79,65,17,5,-18,6
1523182249237373,-23,-7,-6,70,9,7,13,-5
1523182249250407,-29,-14,28,-30,-4,4,4,0
1523182249250407,2,-3,-38,-25,-9,-10,-1,1
1523182249257164,-39,16,34,-56,-3,3,28,2
1523182249257164,12,-2,23,0,5,1,-17,-4
1523182249273471,10,9,-4,4,-2,0,1,8
1523182249273471,11,-8,-95,3,-4,-9,-15,-12
1523182249274974,31,-12,-24,-19,-8,1,-2,15
1523182249274974,7,13,-36,-20,-1,0,11,5
1523182249296030,37,-51,-86,-24,-11,-8,-21,-55
1523182249296030,75,-33,-23,-25,-21,-19,-33,85
1523182249297533,-49,20,3,44,2,-7,10,-24
1523182249297533,-24,14,-6,-33,-6,-5,-7,-10
1523182249310067,10,1,-16,54,9,9,4,0
1523182249310067,8,-6,-3,12,5,8,12,-21
1523182249317085,7,-3,-15,55,-2,-6,0,3
1523182249317085,57,4,23,-15,-3,-2,1,29
1523182249333630,-24,32,-52,-2,5,1,12,5
1523182249333630,8,12,63,31,10,3,-8,-17
1523182249335134,14,-29,-63,-73,-12,-3,2,19
1523182249335134,-15,0,11,10,-3,-1,1,-22
1523182249356188,55,7,81,37,-2,2,-6,10
1523182249356188,28,22,-24,4,3,0,8,28
1523182249357737,49,19,-39,-9,6,2,-17,-6
1523182249357737,7,-14,-52,-24,-5,-3,1,-5
1523182249370227,-8,33,93,18,4,-2,-4,1
1523182249370227,-101,5,-3,-5,10,17,36,-47
1523182249377246,88,-31,44,-70,1,-1,7,43
1523182249377246,-29,-7,28,59,-6,-14,-41,-14
1523182249393288,-73,17,-43,57,12,7,12,6
1523182249393288,4,-29,-36,-37,-11,-1,6,-31
1523182249395293,-73,-8,-24,79,8,9,52,-4
1523182249395293,7,32,48,-35,-2,-2,-30,-9
1523182249415849,19,-12,27,-24,-5,-6,-7,1
1523182249415849,25,15,10,-27,2,2,-7,11
1523182249417352,-20,17,-4,-81,-11,-1,-6,-15
1523182249417352,-18,-22,2,80,5,2,22,7
1523182249430423,-9,3,-19,-38,-1,0,-1,7
1523182249430423,10,-1,24,71,15,2,-11,-10
1523182249436904,3,-1,-41,-67,-12,-6,-23,-3
1523182249436904,-14,17,68,37,11,6,22,-12
1523182249460968,-34,-34,-85,-48,-13,-4,23,3
1523182249460968,18,6,55,73,10,-4,1,-13
1523182249462473,14,9,17,-35,1,1,-33,-12
1523182249462473,30,1,-14,-31,-4,4,5,2
1523182249476063,-28,-16,68,72,2,-6,4,-6
1523182249476063,-42,-19,5,-43,6,2,-14,-5
1523182249477514,14,-70,-36,46,-6,-5,46,24
1523182249477514,-44,-6,-5,-33,9,0,-44,-26
1523182249498569,37,19,40,-94,-22,-8,-9,1
1523182249498569,10,10,-65,-11,-10,-2,1,20
1523182249500071,17,39,40,-23,-5,9,-1,-4
1523182249500071,-13,-29,-63,73,12,-8,9,4
1523182249513635,-6,-20,-4,20,12,4,12,16
1523182249513635,44,8,13,-22,-1,-3,-23,-3
1523182249515113,-6,35,33,-57,-18,0,-4,1
1523182249515113,-2,-5,-23,52,10,10,8,5
1523182249536168,-40,9,-36,49,5,-3,18,-32
1523182249536168,10,25,-19,0,4,3,-17,15
1523182249537672,-8,-11,47,31,7,0,-10,6
1523182249537672,18,-8,43,-117,-19,4,5,26
1523182249549746,24,-23,-96,46,4,-5,0,-13
1523182249549746,-16,18,-19,-7,-10,-4,-8,-18
1523182249558728,-60,-68,-41,65,16,7,-1,26
1523182249558728,17,21,87,-42,-6,3,7,4
1523182249573834,-3,16,47,-18,-1,4,-12,-12
1523182249573834,-2,-7,-22,-36,-10,-6,3,4
1523182249575413,-22,31,13,33,7,-4,-13,-7
1523182249575413,-30,-8,46,68,5,-6,29,-24
1523182249595827,53,-13,4,-40,-1,1,-28,25
1523182249595827,-20,-28,87,33,4,-4,0,-14
1523182249597330,-6,27,-8,-33,-9,3,0,-9
1523182249597330,35,-12,-16,5,9,3,8,10
1523182249609364,-1,11,10,24,-10,-5,-3,-44
1523182249609364,7,-10,-66,46,-8,-5,-10,44
1523182249618386,-39,-15,-1,-14,2,-6,31,-55
1523182249618386,47,11,-9,-27,-11,-5,-44,19
1523182249633426,-9,-10,-13,-28,-2,-3,-7,-5
1523182249633426,-14,-10,15,-83,-5,2,12,6
1523182249634930,15,19,-31,-16,-6,4,-11,-11
1523182249634930,-28,-7,-65,46,34,-2,7,8
1523182249655989,-12,-21,-31,-55,-7,-2,-4,0
1523182249655989,-20,-24,0,-14,-5,-2,-2,-22
1523182249657491,18,21,-46,6,-7,-6,8,57
1523182249657491,-43,-16,57,-109,-11,8,-4,-17
1523182249669523,25,7,-12,70,14,-2,-17,11
1523182249669523,-20,-9,-33,-26,-13,-8,7,-28
1523182249678549,-5,2,99,99,22,5,17,-48
1523182249678549,-4,7,-51,-50,-22,-8,-5,71
1523182249701105,26,10,70,20,5,1,-6,-25
1523182249701105,-25,41,72,4,0,-5,0,9
1523182249702610,12,-13,-44,-58,-3,0,-18,-10
1523182249702610,-22,-44,-116,5,-15,-8,33,-61
1523182249716146,4,21,15,-5,4,2,-27,41
1523182249716146,16,-22,-45,-40,-9,-2,4,-6
1523182249717651,-32,-4,5,36,14,5,-18,9
1523182249717651,-26,17,-52,-68,-23,-10,4,-18
1523182249738243,-47,-32,-14,59,4,-8,10,-8
1523182249738243,12,20,-29,-9,6,8,18,-2
1523182249740209,59,-10,49,-14,0,1,-3,90
1523182249740209,-63,14,-39,-60,-1,12,9,-59
1523182249753245,-36,-3,-31,25,-10,-13,-30,18
1523182249753245,0,6,4,-27,11,5,8,-18
1523182249755286,43,-3,-27,-27,-9,-6,29,2
1523182249755286,54,11,22,-47,-12,0,-22,-26
1523182249776806,-21,14,11,-7,-4,5,10,30
1523182249776806,4,-38,29,37,1,-3,-25,9
1523182249777809,68,10,16,37,-6,-10,18,-4
1523182249777809,29,15,-2,-50,-12,-8,-33,18
1523182249789340,0,10,-2,-9,6,6,23,-66
1523182249789340,26,-9,-20,44,-2,-1,10,62
1523182249798365,-66,20,-9,-51,2,3,-25,-44
1523182249798365,-26,-22,50,124,17,1,18,3
1523182249813619,17,3,53,-67,-19,-8,-26,17
1523182249813619,4,14,28,-6,0,6,27,-6
1523182249814910,29,-40,71,43,4,-3,-30,-13
1523182249814910,-44,-24,-73,-50,-18,-6,1,4
1523182249835964,-126,-17,18,-57,1,6,8,-26
1523182249835964,16,9,25,65,10,-6,-9,-1
1523182249837470,-52,31,-5,24,-4,-5,6,2
1523182249837470,36,7,56,-17,6,9,35,10
1523182249849501,25,-28,29,-62,-4,-2,-28,13
1523182249849501,-47,-27,60,91,7,3,-2,-15
1523182249858525,46,19,19,-31,-10,-8,-12,22
1523182249858525,35,8,-8,9,1,-1,10,-29
1523182249873797,27,-11,-18,-7,4,5,8,29
1523182249873797,-1,25,-44,-5,-7,-8,-21,-46
1523182249875068,-92,8,-39,29,12,3,-2,-33
1523182249875068,-28,15,67,20,5,4,7,47
1523182249896135,62,16,1,-7,1,-2,14,4
1523182249896135,-8,-30,44,-62,-27,-6,-7,-37
1523182249897631,15,21,-7,6,-14,-9,14,42
1523182249897631,18,2,-113,-17,3,-2,-32,7
1523182249918684,-14,4,-44,-2,3,2,6,-18
1523182249918684,6,3,-39,-21,2,-5,18,-47
1523182249920188,20,8,-55,28,4,2,-31,21
1523182249920188,-54,-41,127,18,8,3,22,-17
1523182249933223,127,34,-29,-8,-3,-1,10,16
1523182249933223,7,-32,-115,-32,5,5,-26,-31
1523182249935229,-47,27,55,15,1,-1,-9,-25
1523182249935229,3,45,16,-2,0,-3,-7,7
1523182249955785,-25,-50,7,6,-1,4,25,0
1523182249955785,-34,5,-37,-31,-15,-3,9,-7
1523182249957788,-24,-27,2,53,16,0,-6,40
1523182249957788,-20,28,18,-7,0,1,-11,-35
1523182249978581,-43,6,4,-48,-16,-9,-9,9
1523182249978581,-77,34,-62,-60,-4,2,-10,26
1523182249980396,-3,-59,1,-7,6,8,-5,8
1523182249980396,-20,26,51,34,0,4,3,-17
1523182249993620,-66,-2,67,101,7,2,-9,10
1523182249993620,47,21,9,-47,-8,-9,5,23
1523182249994888,43,-3,-8,-14,-2,-4,0,-26
1523182249994888,8,12,-38,-12,-4,-5,-3,55
1523182250015946,-3,-14,-15,8,1,2,-9,-10
1523182250015946,7,-38,-4,-33,-4,1,13,-1
1523182250017447,-23,-8,-46,64,6,-3,-8,-19
1523182250017447,21,2,10,-3,1,4,-7,14
1523182250038541,-28,-1,-42,59,-9,-5,7,-7
1523182250038541,8,-43,24,-2,7,3,20,22
1523182250040009,-44,2,7,-40,-14,-6,-28,22
1523182250040009,-90,-14,-17,40,14,5,-10,-6
1523182250053043,18,-1,55,-97,-16,-2,-10,2
1523182250053043,-9,-16,36,127,17,-1,-16,-20
1523182250059559,-29,9,60,-47,-6,-1,11,-3
1523182250059559,-32,-33,-6,18,-2,-7,-4,8
1523182250076102,17,1,-21,-3,1,-2,19,37
1523182250076102,-29,7,-13,-36,-3,1,-3,-42
1523182250077658,30,8,10,6,0,4,10,-21
1523182250077658,35,14,-15,11,3,-3,-33,-41
1523182250098216,-21,0,35,-16,4,0,-8,5
1523182250098216,-14,-18,-55,-59,-8,-1,7,35
1523182250100254,30,-2,2,39,0,1,23,48
1523182250100254,24,24,18,81,11,-3,-2,-38
1523182250112975,-21,-23,-28,-59,-13,-3,-3,23
1523182250112975,81,-6,-14,-26,0,5,-5,25
1523182250119770,1,-29,-11,-31,-6,-6,-14,-39
1523182250119770,5,16,-8,42,0,-6,16,20
1523182250135816,-55,-55,11,38,10,4,0,39
1523182250135816,-53,8,39,-24,-1,0,-12,5
1523182250137316,-13,-4,23,10,6,5,22,-29
1523182250137316,17,-23,18,13,1,3,-16,77
1523182250158372,14,0,-103,-32,-14,-7,-2,-27
1523182250158372,9,10,22,50,-6,-2,9,25
1523182250159877,7,5,-11,32,4,0,-8,-30
1523182250159877,-20,9,53,-24,3,6,24,1
1523182250172911,3,28,18,-45,-3,2,-48,-27
1523182250172911,40,22,1,106,9,-10,0,35
1523182250179968,-58,-12,-16,2,-11,-7,-8,-37
1523182250179968,60,-39,39,-21,-4,-1,-2,15
1523182250196011,19,-13,-100,-26,-1,10,45,-68
1523182250196011,4,-7,118,-30,-6,-15,-38,21
1523182250197478,-6,-7,6,22,-3,-4,10,13
1523182250197478,4,32,-32,-9,0,0,-11,-19
1523182250218532,73,4,-8,-19,2,1,-9,-53
1523182250218532,-41,-28,-16,-43,-1,5,11,-11
1523182250220035,-48,26,32,42,-16,-8,6,-3
1523182250220035,-27,-6,41,14,5,2,-2,4
1523182250232569,26,35,35,58,3,-1,59,-21
1523182250232569,8,43,-6,61,18,5,-49,53
1523182250239587,86,7,-42,-128,-17,-1,6,3
1523182250239587,-35,4,-53,-43,-21,-4,2,-43
1523182250256132,22,18,81,75,11,-1,11,42
1523182250256132,-12,3,-14,11,-6,-2,18,-41
1523182250257646,-16,-73,90,-2,4,2,2,13
1523182250257646,-4,-33,-62,-23,-1,-2,25,-37
1523182250278848,21,23,-28,-68,-15,-9,-44,15
1523182250278848,-40,16,8,64,9,-4,-23,-27
1523182250280196,-41,-7,15,16,5,-1,-8,-12
1523182250280196,-23,-28,-34,-20,-3,1,18,-1
1523182250292965,-64,0,-6,7,3,1,-35,-33
1523182250292965,36,28,51,-6,2,3,-32,-9
1523182250299783,42,16,-87,-55,1,-5,-9,-1
1523182250299783,43,-26,22,6,-16,-4,-6,1
1523182250315827,-26,9,-4,19,7,7,25,-34
1523182250315827,45,-31,-70,17,-6,-6,-18,45
1523182250317331,-17,0,-24,-53,-15,2,8,-7
1523182250317331,31,22,-20,35,10,-6,-23,-17
1523182250338386,28,13,12,27,3,-2,7,28
1523182250338386,44,15,-8,-32,-13,-7,11,-2
1523182250339891,17,-30,122,63,13,6,12,2
1523182250339891,7,21,-43,-116,-15,-2,-40,85
1523182250352925,-27,-10,-51,80,0,-4,10,-8
1523182250352925,35,18,68,-35,6,3,16,-19
1523182250359442,46,8,-61,-13,-2,0,-10,0
1523182250359442,45,30,26,-18,-6,-4,31,28
1523182250375987,-43,-7,-64,-42,0,4,-19,25
1523182250375987,8,-42,-42,-54,-18,-3,9,0
1523182250378030,59,11,-11,39,16,-2,-1,45
1523182250378030,-11,6,-14,69,-3,-5,29,-16
1523182250398547,6,-24,21,3,10,2,-2,-34
1523182250398547,-107,-16,-71,-22,-9,-5,-9,2
1523182250400051,-77,-9,-26,81,-2,2,-12,-49
1523182250400051,10,-33,-40,72,12,1,17,42
1523182250412082,-27,-11,68,37,6,2,16,12
1523182250412082,5,11,36,22,6,5,21,-69
1523182250421109,-44,34,53,-24,0,3,20,-43
1523182250421109,35,8,100,-6,1,3,-51,36
1523182250436146,-62,4,9,-27,-15,-10,13,28
1523182250436146,34,3,-20,20,7,2,6,-25
1523182250437652,79,31,57,-5,-2,1,36,53
1523182250437652,-66,-21,-52,-56,-10,-10,-45,-84
1523182250458206,37,3,42,-9,7,3,-5,12
1523182250458206,-45,15,-38,-58,-9,6,44,30
1523182250460211,-42,12,-21,56,6,0,-24,-61
1523182250460211,33,23,58,16,3,5,24,28
1523182250472243,-28,-19,-35,-67,-14,-4,-17,-6
1523182250472243,-33,9,-6,87,3,-5,21,-44
1523182250481269,-15,-22,-63,-40,-7,-8,-27,58
1523182250481269,54,2,-8,-28,-3,0,-1,-4
1523182250495806,12,14,-12,-11,5,0,-3,18
1523182250495806,69,11,34,13,-9,-8,-10,-7
1523182250497314,-55,-41,-87,-49,-4,-8,-29,3
1523182250497314,-7,-38,45,81,7,-3,7,9
1523182250518364,36,-1,-13,34,-4,-4,-6,-6
1523182250518364,-21,-11,-28,-8,-2,3,18,8
1523182250519871,38,10,-20,38,7,-1,-35,3
1523182250519871,-96,-19,-73,-71,-7,-4,19,40
1523182250531903,-11,0,21,24,-2,-3,-25,-31
1523182250531903,-23,-19,26,-13,-3,1,2,20
1523182250540926,-4,5,-53,-6,-2,-3,-1,-5
1523182250540926,-49,-5,8,-38,-8,1,7,-54
1523182250555966,2,-38,16,51,-1,-3,25,45
1523182250555966,45,14,34,2,3,1,-5,17
1523182250557470,-38,-23,-10,5,8,7,24,-20
1523182250557470,6,0,6,-9,1,0,-26,-40
1523182250578762,9,-28,-39,-43,-26,-14,-10,-10
1523182250578762,-23,-11,2,16,5,0,-25,30
1523182250580030,34,30,16,29,0,-1,2,16
1523182250580030,-16,-40,54,53,10,12,25,17
1523182250592062,1,19,-42,-58,-8,-1,35,6
1523182250592062,-39,10,10,16,0,-10,-43,27
1523182250601088,-37,22,26,-5,-7,0,-17,-5
1523182250601088,75,41,-24,-9,-6,-7,-13,34
1523182250616126,79,10,43,74,14,-1,-10,-27
1523182250616126,51,-25,-39,-118,-22,2,11,-43
1523182250617629,1,8,51,35,3,-1,-7,35
1523182250617629,3,-33,-107,0,2,1,7,-28
1523182250638685,-32,19,6,-48,-8,0,22,4
1523182250638685,10,7,-18,58,8,2,-16,-43
1523182250640190,-10,-3,57,-37,-5,1,4,2
1523182250640190,-79,-8,-13,14,8,4,6,-57
1523182250652221,37,25,-41,8,0,-2,15,-25
1523182250652221,-74,-38,5,-20,-4,-2,-33,60
1523182250661246,-48,11,51,18,-4,-4,-3,-25
1523182250661246,-39,-73,49,31,7,0,-3,-6
1523182250676020,24,-28,3,39,2,-3,-2,-28
1523182250676020,25,26,10,-28,-10,-3,39,-33
1523182250677967,3,-14,-54,14,-2,-4,-35,16
1523182250677967,-49,26,10,-17,-4,-1,-12,-9
1523182250698385,-13,0,39,12,11,13,28,-52
1523182250698385,-24,-13,38,48,-3,-6,-40,77
1523182250699847,35,18,36,-64,-5,-2,26,-31
1523182250699847,1,25,-63,-32,-7,-2,10,-55
1523182250712117,0,17,-6,-43,-7,-2,-35,111
1523182250712117,-9,13,26,104,25,3,12,-40
1523182250720904,-61,25,12,-81,-9,1,27,2
1523182250720904,55,-12,4,-59,-8,-6,-25,10
1523182250735981,-30,-11,38,-28,-1,3,17,28
1523182250735981,-20,25,-22,-13,12,5,-8,-12
1523182250737448,7,-15,-59,-37,-17,0,0,5
1523182250737448,78,30,72,122,8,-4,29,-17
1523182250758504,-21,1,-13,-23,-5,-7,-61,77
1523182250758504,-42,-28,18,-19,-2,5,11,-21
1523182250760010,-9,8,-60,27,13,6,11,-57
1523182250760010,-56,-17,80,-60,-12,-6,-10,31
1523182250772043,-10,-30,13,60,17,0,-20,-17
1523182250772043,8,22,93,29,12,7,-1,-26
1523182250781064,23,-26,43,-31,-10,-11,-9,7
1523182250781064,78,-40,9,23,-12,-6,37,16
1523182250795102,-58,16,-6,40,4,-4,-11,-95
1523182250795102,14,6,-37,-47,-4,3,-19,93
1523182250809642,18,-2,36,53,19,15,27,-14
1523182250809642,15,49,-6,-36,-11,-5,-54,39
1523182250818163,41,7,21,15,3,5,-8,-45
1523182250818163,20,-44,-59,-27,-11,-6,10,34
1523182250820168,-22,20,-5,27,3,12,42,-21
1523182250820168,35,11,-65,-9,5,-2,-14,-1
1523182250832204,-25,9,50,63,3,1,5,40
1523182250832204,50,7,-14,-58,-13,-4,10,-82
1523182250841224,34,3,15,61,6,-8,-22,59
1523182250841224,-17,-6,-56,-29,1,7,26,74
1523182250855797,14,-14,-11,-72,-5,-3,-37,-10
1523182250855797,-47,23,17,21,-4,-11,21,-25
1523182250857769,-10,-19,3,7,-3,-4,9,-13
1523182250857769,20,45,-2,42,2,0,4,14
1523182250885841,-33,18,-8,-4,5,5,21,-17
1523182250885841,-80,15,1,-2,3,-2,-11,-19
1523182250887348,5,-1,38,23,-1,1,7,1
1523182250887348,-18,0,-54,-83,-24,-5,12,-52
1523182250900883,-36,-19,-19,88,10,5,-32,-17
1523182250900883,65,12,6,6,2,-2,7,-20
1523182250902386,46,-11,-123,-12,-10,-8,-18,22
1523182250902386,-6,1,12,24,9,2,-3,-37
1523182250915922,-74,-24,23,-60,-11,-1,24,-2
1523182250915922,-54,-51,-77,-22,0,2,17,-54
1523182250917425,83,8,4,63,6,-6,-57,51
1523182250917425,-36,8,-15,-48,0,-5,-3,-2
1523182250938483,11,20,-60,-34,-7,-2,20,-27
1523182250938483,17,13,16,36,-10,-4,15,57
1523182250939990,-72,-14,68,-36,6,10,-15,-44
1523182250939990,13,-31,-38,23,-3,-5,-22,-4
1523182250961043,26,18,-34,-40,-5,-5,-15,38
1523182250961043,80,7,-11,1,0,0,17,-15
1523182250962546,-36,-60,-27,35,3,-4,-9,-10
1523182250962546,-40,-23,4,-19,1,9,14,-25
1523182250976328,-10,17,-28,-72,-8,-12,-22,-14
1523182250976328,14,-17,-49,2,-12,-1,14,-16
1523182250977822,-3,13,-20,-52,-7,-5,3,7
1523182250977822,35,-10,45,76,8,0,-3,29
1523182250998143,-40,-6,-26,4,-2,1,-2,-13
1523182250998143,-25,-13,64,-17,3,2,23,45
1523182251000146,61,17,-33,-18,-3,-4,1,40
1523182251000146,51,18,89,-10,5,1,5,2
1523182251020700,31,5,44,11,-16,-9,-8,-10
1523182251020700,57,35,32,-3,-5,-5,-22,6
1523182251022705,-19,-9,-45,-24,-11,-2,14,8
1523182251022705,-9,1,86,29,9,-7,-4,-1
1523182251035238,-2,-32,-35,-8,9,0,11,43
1523182251035238,25,-30,-39,4,-4,-1,-22,-9
1523182251042333,93,7,-47,-100,-24,-6,-6,17
1523182251042333,21,-24,-109,26,4,4,8,0
1523182251058381,56,20,85,39,-7,-9,-11,-2
1523182251058381,-6,19,63,-14,-7,-4,8,32
1523182251059885,-63,-25,1,-1,12,9,36,-23
1523182251059885,21,37,-71,-54,-8,-5,-29,14
1523182251080583,-3,-21,53,65,5,2,19,-8
1523182251080583,-53,0,-40,-24,-2,2,10,-18
1523182251082575,-34,33,39,3,3,4,-7,-3
1523182251082575,-25,21,-54,-14,-6,0,14,10
1523182251094607,73,-15,15,13,4,4,25,22
1523182251094607,-15,4,29,1,0,-4,-16,36
1523182251101626,10,18,-8,80,9,3,-11,17
1523182251101626,-22,12,27,4,6,1,-18,-2
1523182251118830,64,2,-77,-59,-13,-3,-7,-32
1523182251118830,-81,-20,-75,-30,7,10,6,-32
1523182251119674,-20,17,40,56,10,-7,-7,26
1523182251119674,-5,-13,38,27,-2,6,16,-16
1523182251140730,41,18,-7,3,-1,0,4,-7
1523182251140730,-18,-39,72,-1,0,-3,-24,31
1523182251146749,-41,10,21,43,6,-1,5,-62
1523182251146749,-39,25,-38,-66,-20,-2,-2,32
1523182251163799,14,-13,-33,21,7,-5,18,-18
1523182251163799,70,-9,-5,36,11,9,14,56
1523182251165301,-4,-8,4,-49,-16,-5,-5,-33
1523182251165301,-21,-8,44,68,10,-4,7,-7
1523182251178881,-39,-6,88,-27,-5,6,-27,-3
1523182251178881,4,28,-113,1,2,-2,-7,-40
1523182251179847,73,-49,-4,-20,-3,-5,-7,39
1523182251179847,-9,-22,-49,26,1,0,3,-21
1523182251200901,-37,27,40,0,-1,-2,-20,12
1523182251200901,-100,6,85,37,7,6,36,18
1523182251201903,34,17,4,-39,-12,1,25,-41
1523182251201903,-42,-26,11,42,1,-1,-16,-24
1523182251214941,2,5,-16,37,5,-8,-22,49
1523182251214941,-81,1,-22,-5,-4,-3,-33,-47
1523182251221957,11,-5,-38,16,5,3,32,37
1523182251221957,106,18,11,-98,-9,-1,-1,40
1523182251238035,-29,16,19,33,6,0,-6,-31
1523182251238035,56,20,-8,17,-4,-6,-2,-31
1523182251240004,-22,-9,-20,-69,-10,-8,-4,15
1523182251240004,-5,16,-3,23,5,1,-1,-37
1523182251261067,-29,5,42,-74,-5,5,0,12
1523182251261067,-24,-18,-9,49,6,2,42,-26
1523182251262579,-47,16,-44,10,5,0,-14,7
1523182251262579,-22,16,7,14,0,-4,-28,26
1523182251275017,11,-23,-26,-29,-4,3,18,-26
1523182251275017,-15,-3,-17,-15,-4,0,20,30
1523182251289821,-3,-33,9,17,-7,-11,-9,-10
1523182251289821,47,-9,-2,-11,2,1,-27,-14
1523182251297844,-50,28,0,77,13,7,53,15
1523182251297844,32,4,15,-17,-12,-13,-45,26
1523182251299847,-38,-20,8,-47,3,0,-25,-28
1523182251299847,-34,-38,-51,-34,-7,11,61,53
1523182251320901,57,12,-36,59,6,-12,-35,-50
1523182251320901,-20,-14,4,-37,-11,-7,8,-43
1523182251321905,-6,10,24,2,-13,-6,-13,5
1523182251321905,-37,17,61,31,4,2,31,-67
1523182251333943,-56,-16,12,-46,0,5,-39,73
1523182251333943,26,10,-48,-18,2,4,-12,7
1523182251343180,-22,4,-49,49,11,5,19,-38
1523182251343180,46,14,56,42,-1,-6,8,-52
1523182251359009,-23,-32,-46,-64,-6,-10,-47,57
1523182251359009,63,13,-38,-3,-6,-8,-14,0
1523182251360511,109,0,64,20,11,13,15,-55
1523182251360511,-30,51,-63,-31,-6,-6,-8,22
1523182251380682,-38,-14,27,10,-7,-1,18,-28
1523182251380682,3,-34,-13,56,14,2,28,-13
1523182251382675,53,20,41,-16,-7,-7,-16,0
1523182251382675,-16,-18,-8,7,1,-8,-37,-5
1523182251394708,7,7,-10,-75,-17,0,22,-41
1523182251394708,52,-2,71,-36,-4,3,-25,28
1523182251403732,79,6,8,51,3,-2,22,7
1523182251403732,7,-9,0,-58,-4,-2,-11,-11
1523182251417769,-20,-23,-61,-14,6,-3,2,-17
1523182251417769,-60,-5,-69,-4,3,14,52,-58
1523182251419774,-85,8,54,59,-2,-15,-55,24
1523182251419774,-7,3,-79,-83,-13,0,-3,3
1523182251440840,67,-3,16,34,0,-6,-8,79
1523182251440840,-9,8,72,38,-1,0,21,-30
1523182251442835,-32,-23,-65,-34,0,8,-24,36
1523182251442835,-58,5,61,88,10,-6,0,32
1523182251454374,62,64,34,-48,-8,5,3,-17
1523182251454374,13,-11,-88,31,-4,-6,21,32
1523182251463399,-30,3,-38,-15,-3,-5,-27,-8
1523182251463399,78,-48,6,66,17,8,17,-48
1523182251478855,-24,4,-24,-12,1,5,-9,35
1523182251478855,24,18,8,-19,-2,-4,-16,-1
1523182251479632,33,3,23,-6,-2,1,5,19
1523182251479632,-57,-14,41,-16,0,2,3,-25
1523182251500688,-25,17,-59,108,7,-3,28,-11
1523182251500688,93,-40,-11,9,-5,-13,-68,1
1523182251502694,-30,0,0,-69,-11,-3,24,-9
1523182251502694,-11,-1,24,-27,-4,0,-15,22
1523182251514724,7,-16,-65,14,-5,-3,17,1
1523182251514724,-15,14,72,10,7,2,-30,-3
1523182251523749,24,7,77,-16,1,3,-17,11
1523182251523749,65,13,43,49,4,0,8,-11
1523182251537788,2,-26,111,1,-13,-12,-4,59
1523182251537788,13,14,35,-8,-6,3,10,-1
1523182251539792,68,29,-22,-19,1,3,3,-17
1523182251539792,-9,-18,-56,19,-5,-2,3,-24
1523182251560856,-7,-21,32,32,5,-5,-47,-17
1523182251560856,-29,-4,12,-11,1,-1,-9,12
1523182251562358,-9,23,-53,-6,-12,-2,19,0
1523182251562358,-99,-26,11,-3,-1,-2,3,-13
1523182251574775,12,1,-19,-20,1,7,22,-17
1523182251574775,-13,-16,51,-1,-1,0,-3,16
1523182251583563,-38,-14,-26,-15,-2,-6,-1,-20
1523182251583563,16,0,7,-31,-4,-5,-1,45
1523182251598608,-42,-16,86,-56,-8,6,-3,-104
1523182251598608,49,51,28,11,2,2,54,20
1523182251599606,-55,-34,83,82,13,-6,-52,-25
1523182251599606,25,9,-61,37,4,6,18,23
1523182251620662,-11,-6,-74,7,4,0,-13,-24
1523182251620662,-50,-1,-52,-38,-8,4,2,-30
1523182251622669,-26,0,14,4,1,4,23,-18
1523182251622669,2,27,5,-3,-5,-4,3,10
1523182251634700,75,2,-31,-9,-1,1,-2,14
1523182251634700,38,-10,20,83,9,-1,-42,34
1523182251643726,-38,11,-86,-91,-11,-1,2,8
1523182251643726,42,-33,-35,57,-5,-5,-27,-1
1523182251658269,-50,-7,-75,-52,-9,-1,38,-13
1523182251658269,-17,13,10,46,9,-3,-18,1
1523182251660276,-14,1,-15,52,7,1,10,-26
1523182251660276,59,3,33,-1,8,7,75,-4
1523182251680460,37,25,20,-1,4,10,-19,10
1523182251680460,90,-2,-34,-54,-12,-6,1,15
1523182251682462,-58,-18,-103,-38,-5,-6,-34,-19
1523182251682462,-45,5,26,-18,-7,-6,-9,-36
1523182251694531,-9,3,-52,63,5,-3,3,4
1523182251694531,-46,-5,2,-55,-4,-3,-4,14
1523182251703530,25,-39,19,-32,-11,1,1,-41
1523182251703530,-12,20,38,51,1,-4,-30,99
1523182251718798,50,14,39,-11,-5,-4,-11,26
1523182251718798,-27,-3,-2,-18,-1,0,-9,-36
1523182251720565,46,3,23,45,6,3,32,5
1523182251720565,-32,-32,15,-9,1,5,42,71
1523182251740617,-1,-31,12,-34,0,1,-60,-2
1523182251740617,38,23,-40,21,-8,-12,25,-15
1523182251742622,-15,8,-9,-46,4,8,10,7
1523182251742622,-5,-13,4,12,9,-1,-9,-98
1523182251754660,-32,-2,5,42,1,0,27,45
1523182251754660,-20,-44,-49,-39,1,4,-14,-13
1523182251763683,1,14,66,92,9,3,4,20
1523182251763683,14,8,-78,-34,-17,-12,-22,-22
1523182251777619,-21,-40,-76,5,-6,0,36,-12
1523182251777619,-35,21,6,21,2,-5,-28,-29
1523182251785406,38,-18,56,19,-4,1,28,10
1523182251785406,-40,2,-26,-78,-7,0,-30,37
1523182251800445,41,33,74,12,4,-6,-28,29
1523182251800445,8,19,-55,-39,-7,0,8,2
1523182251802450,4,14,14,12,3,-1,6,11
1523182251802450,-4,-22,-16,-37,9,2,-24,-24
1523182251823742,-39,-22,-8,18,-6,-5,-6,-31
1523182251823742,-7,-42,36,0,0,0,12,89
1523182251824510,-1,21,-6,-31,-10,-4,12,29
1523182251824510,12,-27,-9,1,0,2,-1,-57
1523182251838548,39,38,72,71,10,-1,-4,20
1523182251838548,-26,-16,-44,-33,-10,-1,-20,-1
1523182251839551,-49,14,-2,76,13,6,-5,-12
1523182251839551,97,64,-17,-19,-13,-10,-2,-7
1523182251861140,-61,-20,6,-31,-2,-7,-21,38
1523182251861140,46,13,-6,32,6,4,25,-36
1523182251862618,65,-1,-12,43,6,2,-1,-7
1523182251862618,-22,-13,-41,-38,-2,-2,-25,5
1523182251883473,-20,36,11,2,3,6,55,-35
1523182251883473,-60,10,11,-19,-2,-1,-9,-21
1523182251884473,12,-55,91,-30,-2,-3,2,44
1523182251884473,-44,8,-29,58,2,-3,2,-42
1523182251898510,30,20,-17,-64,-15,-2,19,-15
1523182251898510,-6,0,56,61,10,0,-4,-1
1523182251899514,-31,-4,-35,-50,0,-5,-56,-26
1523182251899514,-45,11,-4,49,1,0,24,-39
1523182251920569,-22,2,-51,-17,-12,-10,14,55
1523182251920569,-42,29,19,2,0,-2,-38,-29
1523182251922574,17,20,-21,-20,0,5,28,-30
1523182251922574,20,-31,39,-8,-11,-16,-9,5
1523182251943851,11,-30,-69,21,-1,-5,-39,-34
1523182251943851,-3,-3,34,8,5,6,33,6
1523182251944633,27,3,-27,-10,-5,-2,11,20
1523182251944633,-7,14,23,6,3,6,-24,-5
1523182251957672,24,-4,19,7,1,1,3,-31
1523182251957672,-40,-20,-30,-25,-2,-2,30,-37
1523182251964693,58,4,-8,15,-2,-3,-25,64
1523182251964693,74,2,59,-24,0,4,-4,9
1523182251980740,-36,-30,-7,9,6,0,15,13
1523182251980740,10,26,18,-44,-6,1,12,-31
1523182251982744,-7,-25,-4,15,7,-1,-10,7
1523182251982744,20,-10,-62,-3,-3,-4,24,5
1523182252002797,13,14,27,3,3,4,-33,-15
1523182252002797,11,-15,24,-15,-4,-1,8,-16
1523182252004802,-44,30,-41,-20,-11,-7,-3,-3
1523182252004802,-90,-33,52,-9,17,15,-5,-47
1523182252018072,21,10,38,103,7,0,9,11
1523182252018072,25,14,-38,-69,-6,-2,1,44
1523182252024976,-7,4,-12,4,-7,-6,-4,-24
1523182252024976,-72,8,9,7,8,12,5,5
1523182252040900,45,-11,-55,-36,-8,-6,3,-25
1523182252040900,1,4,6,71,-1,0,10,17
1523182252041911,-9,-7,-3,8,1,-2,26,-37
1523182252041911,-13,-7,-32,-23,-9,-5,-26,25
1523182252063467,32,1,8,15,8,10,2,-11
1523182252063467,2,-8,-26,-38,-12,-10,-18,7
1523182252064968,-15,-13,5,-69,-7,5,13,-10
1523182252064968,2,12,42,127,8,-6,-13,5
1523182252078151,-39,0,-8,-90,-4,5,47,25
1523182252078151,26,-42,39,-7,13,8,-25,-19
1523182252084031,-28,6,76,98,10,-9,-19,57
1523182252084031,38,4,68,-40,-11,-5,-1,9
1523182252101070,-18,7,12,-46,-7,-3,8,-23
1523182252101070,-9,8,-37,-11,-3,-1,-9,8
1523182252102075,8,-4,21,1,1,6,-4,38
1523182252102075,-24,18,-34,3,-3,-5,7,16
1523182252123365,-30,9,-1,-21,-7,-4,-24,-26
1523182252123365,-35,-31,-39,117,0,-8,11,-18
1523182252125135,3,18,-18,-36,-4,3,-21,8
1523182252125135,-15,17,-19,7,-1,4,6,-1
1523182252137166,-21,15,-20,-40,3,2,-1,6
1523182252137166,-43,7,29,-48,-7,-7,-10,4
1523182252144185,88,-26,-51,13,3,-1,12,-15
1523182252144185,-37,-13,-11,-25,-5,-5,-16,19
1523182252161290,-24,2,5,-1,-5,-4,-2,24
1523182252161290,-49,3,28,21,7,7,2,-21
1523182252162745,-2,-51,35,-50,-4,-9,-24,-3
1523182252162745,13,14,62,-44,-6,3,7,4
1523182252182851,14,-17,-55,26,10,5,11,-43
1523182252182851,64,-37,-6,90,5,-4,-4,-10
1523182252184857,-41,22,21,0,-3,0,13,-46
1523182252184857,46,4,-6,-38,-7,-7,-26,16
1523182252197893,19,-28,34,42,4,-4,-2,24
1523182252197893,18,-39,-17,-33,-5,7,52,90
1523182252203911,-47,46,39,10,-3,-10,-52,8
1523182252203911,110,14,-53,-30,-9,-6,9,-8
1523182252220955,-1,3,20,33,10,2,5,-11
1523182252220955,-24,-24,-17,-89,-13,-8,-24,61
1523182252221957,-6,-3,-4,16,-3,2,22,-5
1523182252221957,-22,5,3,-7,-4,3,0,17
1523182252243249,-15,-18,-28,79,14,-10,-11,-6
1523182252243249,-2,30,-20,-55,-18,-11,-26,-34
1523182252245018,-32,-37,11,-9,-3,6,39,-23
1523182252245018,-22,15,9,20,7,3,-21,57
1523182252257572,19,22,-48,-69,-18,-5,0,8
1523182252257572,22,11,-12,3,2,3,-3,-13
1523182252271865,-84,-4,47,96,24,4,22,-25
1523182252271865,-22,11,-13,4,-16,-8,36,-49
1523182252280892,7,4,92,24,5,2,-69,70
1523182252280892,15,37,-42,-16,3,-1,-42,-38
1523182252281892,25,-9,-29,6,-2,1,14,6
1523182252281892,51,7,-25,-77,2,4,23,-9
1523182252302950,14,-40,60,-36,3,-2,3,2
1523182252302950,22,30,1,78,3,-5,8,-9
1523182252304954,-7,6,-58,-32,-7,-2,-14,11
1523182252304954,34,-30,17,12,0,0,-1,-3
1523182252316986,36,7,-62,-39,-28,-9,13,16
1523182252316986,22,1,-20,1,19,7,-1,-26
1523182252326009,-61,-21,-24,-53,-14,-10,10,-12
1523182252326009,11,1,79,66,1,0,-3,49
1523182252341286,-27,20,-39,6,3,11,33,-39
1523182252341286,-95,-9,-32,6,6,9,1,-20
1523182252342052,32,19,-23,-4,-16,-11,-15,-5
1523182252342052,-64,-33,-29,30,4,-5,1,-31
1523182252363618,-33,-11,-39,-105,-18,-2,8,-19
1523182252363618,-10,-12,61,101,9,-4,22,-12
1523182252365119,-10,-15,-40,-3,1,0,-19,3
1523182252365119,-95,4,-6,-23,-2,0,-17,-21
1523182252377393,42,4,28,37,7,1,13,-19
1523182252377393,65,-16,115,-8,-4,-2,-63,18
1523182252386180,53,38,44,-59,-5,2,70,5
1523182252386180,7,-35,-8,54,18,5,-43,-3
1523182252400217,-50,-4,28,-21,-6,-8,3,4
1523182252400217,54,3,19,-41,-7,2,36,-25
1523182252402223,78,29,43,63,10,1,-30,28
1523182252402223,-18,14,70,61,-3,-3,1,-15
1523182252423516,-24,-22,6,35,3,3,4,-28
1523182252423516,-11,7,-27,-36,-8,-4,16,36
1523182252425419,9,36,-40,-36,2,2,0,3
1523182252425419,22,-21,-54,-22,-3,-2,-3,6
1523182252437318,40,8,-28,-5,-8,-6,-3,-5
1523182252437318,-45,-10,61,61,-3,-9,-10,41
1523182252445339,46,-5,-42,-23,-6,-4,3,-5
1523182252445339,-21,8,33,-3,3,0,-13,-24
1523182252460883,29,-23,21,22,7,4,27,-22
1523182252460883,4,-10,-63,-33,-7,0,2,45
1523182252462394,-27,-12,40,62,6,0,-18,-14
1523182252462394,-14,-21,-20,-31,-10,-10,10,3
1523182252482979,-22,-36,26,30,10,8,23,2
1523182252482979,80,52,-33,-4,-2,-3,-5,-6
1523182252484982,33,-23,75,9,2,0,-18,11
1523182252484982,15,-11,-52,31,3,0,17,4
1523182252497024,-60,-9,-6,-13,-5,-6,-19,-33
1523182252497024,-38,-25,-14,-13,0,1,22,-60
1523182252506038,-23,6,-15,-7,3,7,8,6
1523182252506038,-4,44,75,10,9,3,-23,34
1523182252521117,24,20,6,91,5,-5,-32,-3
1523182252521117,-50,9,-37,-4,-11,-7,1,-7
1523182252522082,44,9,-27,-7,-9,-1,8,-9
1523182252522082,66,-21,3,19,7,5,18,10
1523182252551162,-51,34,34,1,7,9,20,-1
1523182252551162,-2,-10,27,-3,-9,-10,-29,30
1523182252552666,-11,5,17,-68,-7,3,-10,-7
1523182252552666,1,8,3,78,12,0,1,9
1523182252557178,-12,-4,-8,40,0,-5,-7,7
1523182252557178,-5,-10,-20,-84,-14,4,3,-1
1523182252566202,-73,-30,-1,64,12,-1,30,35
1523182252566202,12,5,-39,-116,-9,-1,-10,-20
1523182252580556,25,17,3,65,-2,-4,-22,-24
1523182252580556,-52,-25,12,10,10,9,30,6
1523182252582563,30,13,-52,-37,-5,-3,-21,-73
1523182252582563,11,7,23,-8,-20,-12,-9,36
1523182252603621,-22,6,-28,-23,0,-5,9,16
1523182252603621,24,30,24,19,11,4,-15,-20
1523182252604621,-32,-25,-10,-47,-8,-10,-6,-15
1523182252604621,57,-33,-90,16,5,-1,16,1
1523182252616888,52,21,-10,-44,-10,-3,-6,21
1523182252616888,7,16,36,39,14,6,3,-11
1523182252625715,-29,10,-19,-73,-13,1,-7,13
1523182252625715,-59,-9,47,72,-5,-5,16,-26
1523182252640719,2,17,35,-26,-1,2,-6,60
1523182252640719,84,-6,29,-15,-5,-3,2,-17
1523182252642722,79,35,23,-20,-9,-8,-7,44
1523182252642722,-83,9,5,-12,6,1,21,-10
1523182252663286,9,7,21,2,0,4,-25,15
1523182252663286,47,2,22,35,6,-1,-1,0
1523182252664786,-97,-49,-42,2,-8,-4,9,-31
1523182252664786,77,43,38,37,3,-1,-9,-11
1523182252677058,-30,-54,-31,-71,-13,-6,40,-57
1523182252677058,-49,14,-19,-30,-4,0,-34,22
1523182252685845,-16,-2,-26,65,7,1,9,8
1523182252685845,-23,-8,13,2,1,3,-3,6
1523182252700886,-61,-15,44,-23,-2,0,-1,-29
1523182252700886,-9,-11,-40,-13,-9,0,11,-10
1523182252701888,25,-12,4,42,-11,-5,-23,76
1523182252701888,-62,-18,6,-3,8,2,9,-30
1523182252723183,40,-11,18,-20,0,-1,-15,44
1523182252723183,42,-6,68,72,17,6,15,-1
1523182252724949,14,8,32,-73,-10,-3,13,-10
1523182252724949,35,-20,-65,-45,-6,3,-12,-6
1523182252746007,-22,-9,40,68,8,5,-12,-24
1523182252746007,18,-26,-45,-85,-16,-14,-34,-2
1523182252747010,12,11,-13,46,14,2,-5,-12
1523182252747010,-27,-9,5,-7,-2,3,35,20
1523182252761049,19,19,-25,-22,-7,-6,-28,-47
1523182252761049,-3,14,-8,-93,-6,1,14,-25
1523182252762553,-20,6,-35,119,6,-2,-39,-19
1523182252762553,-13,3,4,-41,-8,-1,1,-28
1523182252782790,-46,5,-41,-12,7,6,2,35
1523182252782790,2,0,54,60,4,-1,5,16
1523182252790809,-36,-6,-1,-35,1,1,15,-36
1523182252790809,-6,1,36,-2,-5,-8,-25,28
1523182252805854,-1,-6,38,17,-1,2,15,4
1523182252805854,-55,43,54,56,2,-5,-21,-20
1523182252806852,64,-23,8,7,6,3,20,-21
1523182252806852,-70,45,-2,-42,-4,-4,-9,5
1523182252828131,0,-2,-71,-54,-15,-6,-2,16
1523182252828131,-88,-2,-35,99,1,-4,-1,-52
1523182252829914,-52,0,-26,-60,1,3,29,12
1523182252829914,29,5,4,51,2,-3,-13,-21
1523182252843185,26,11,108,7,1,4,9,-8
1523182252843185,44,-8,-33,-50,-14,-7,-10,7
1523182252844956,-5,18,4,8,6,3,15,34
1523182252844956,12,-40,-5,-32,-3,8,-17,4
1523182252866014,-29,3,-6,-6,1,-10,6,-36
1523182252866014,-12,-9,78,32,5,5,-4,59
1523182252867054,11,-3,43,21,8,4,2,-27
1523182252867054,-31,12,9,-94,-12,1,8,23
1523182252880088,-21,-24,-73,110,10,-8,-14,-15
1523182252880088,20,-7,5,-41,1,3,12,52
1523182252887108,-38,-22,55,2,-8,-7,-2,2
1523182252887108,25,-9,0,13,8,1,0,-29
1523182252903150,2,5,-13,-18,-3,4,-10,46
1523182252903150,47,24,-90,11,4,-1,-1,38
1523182252905155,30,-6,47,-73,-19,-6,-17,6
1523182252905155,0,9,-35,30,10,4,28,-23
1523182252926325,-16,-28,25,-46,-21,-10,7,-1
1523182252926325,-32,-12,-100,6,4,-2,-17,-22
1523182252927213,-2,-19,-20,19,7,3,-36,-34
1523182252927213,67,2,8,-29,-10,-2,20,8
1523182252940247,48,12,7,73,14,-3,-25,10
1523182252940247,-15,9,-39,-26,-1,2,21,-9
1523182252947267,-5,-9,-37,-64,-8,-3,23,-21
1523182252947267,64,24,4,78,-4,-9,-36,-8
1523182252963356,6,5,-1,-33,7,2,-17,-11
1523182252963356,2,-1,-13,-17,-16,-2,15,-58
1523182252964821,-80,5,5,45,1,-1,-19,-1
1523182252964821,-47,6,27,-48,-7,0,2,47
1523182252985198,58,14,-19,22,-5,0,24,-6
1523182252985198,-4,-38,19,-14,-4,-7,-25,12
1523182252987201,49,22,12,17,5,0,16,-3
1523182252987201,-29,-18,66,-21,-6,-7,-14,-33
1523182253000237,48,-10,-96,-50,-5,2,22,48
1523182253000237,-27,19,28,5,6,-1,7,-30
1523182253007260,16,12,-35,49,2,-1,-1,-6
1523182253007260,-3,-50,-6,30,9,1,0,-9
1523182253023530,-2,27,5,-2,4,4,43,-15
1523182253023530,14,-5,40,-38,-8,2,-18,-25
1523182253024299,-13,8,9,-12,-9,-6,-23,41
1523182253024299,0,10,-53,-2,9,2,-19,-39
1523182253045362,59,-15,76,22,-11,-3,2,60
1523182253045362,-3,9,4,-7,2,0,-25,19
1523182253047361,-19,8,-28,-75,-12,-4,8,-2
1523182253047361,0,-19,-24,1,-8,-5,-12,14
1523182253060400,-36,-3,6,42,9,2,-4,-20
1523182253060400,-21,-9,43,43,5,-3,-11,-20
1523182253067157,22,-1,31,1,3,2,-7,16
1523182253067157,-22,-3,36,24,1,1,25,10
1523182253083337,-44,-2,-8,-59,-3,4,-20,25
1523182253083337,-45,-14,36,6,-2,3,27,-34
1523182253085306,-34,-16,-27,50,11,-1,-23,4
1523182253085306,-33,3,-32,-16,-10,-1,15,-18
1523182253106397,-5,5,-20,-69,-6,-3,-15,-28
1523182253106397,17,10,7,6,-5,1,13,23
1523182253107362,53,-40,-29,4,4,-4,41,18
1523182253107362,-2,2,-22,8,11,6,7,-29
1523182253120397,21,3,-66,24,11,7,-24,26
1523182253120397,9,14,18,-90,-15,-4,-12,-1
1523182253127478,-37,-12,-23,4,9,1,13,-20
1523182253127478,15,13,-43,-22,2,0,8,27
1523182253143694,-66,-9,57,30,2,-5,-27,-48
1523182253143694,17,-8,-42,-17,7,5,28,26
1523182253144462,-5,-31,54,13,-2,6,-16,-21
1523182253144462,-27,-12,-55,11,-2,-7,2,17
1523182253166024,-6,0,4,-22,-3,-2,-7,-20
1523182253166024,6,9,14,17,-6,-5,-14,56
1523182253167026,20,14,8,16,4,2,1,2
1523182253167026,52,22,39,-61,-15,4,-16,-21
1523182253180106,-27,-10,59,97,3,-2,13,6
1523182253180106,4,-20,-49,9,4,-12,36,-1
1523182253187160,19,7,13,-7,-9,-5,-11,17
1523182253187160,8,-15,14,-10,-1,2,14,35
1523182253203204,12,9,-8,-12,-4,-3,-45,26
1523182253203204,-21,-15,-61,-86,-12,0,14,-11
1523182253205172,6,1,-21,105,9,-11,-25,-10
1523182253205172,53,31,28,-29,0,11,20,15
1523182253226324,52,-5,35,-24,-9,-6,31,23
1523182253226324,-28,12,21,26,4,4,-1,-3
1523182253227230,11,16,-28,-5,-5,-4,-8,-24
1523182253227230,2,-19,25,70,-2,-6,-11,11
1523182253239264,-67,-35,18,15,1,2,8,-35
1523182253239264,66,-1,-11,15,-6,-3,-7,28
1523182253248289,40,12,66,-4,6,7,-1,22
1523182253248289,-21,-26,16,29,2,-6,-30,-27
1523182253263335,-29,-8,-27,-61,-5,0,14,-35
1523182253263335,-9,7,-23,76,6,2,-7,7
1523182253264838,-64,18,88,-37,7,6,18,-63
1523182253264838,81,-8,-42,-24,-16,-11,-76,63
1523182253285717,13,9,-21,1,2,-8,-7,-30
1523182253285717,-84,3,-3,-22,-9,-1,-9,-19
1523182253287722,23,-9,-90,3,7,1,14,6
1523182253287722,-44,21,64,15,8,2,12,-21
1523182253307775,36,1,-7,-9,-3,2,12,24
1523182253307775,18,-7,22,-30,2,5,5,-5
1523182253309779,-9,-12,-64,-34,-14,-4,14,1
1523182253309779,-105,13,18,14,8,3,15,-31
1523182253322850,-33,19,14,53,-6,-13,-30,-22
1523182253322850,31,23,11,-7,3,1,-9,-44
1523182253324819,30,-1,-3,-44,-13,-2,-10,40
1523182253324819,-12,4,34,-57,-5,3,18,-44
1523182253345921,-26,6,-38,0,-6,4,33,3
1523182253345921,24,11,-44,94,21,-4,4,7
1523182253346879,33,50,31,10,-4,-7,-46,-7
1523182253346879,-31,0,-34,16,10,5,13,-1
1523182253367559,18,-14,-39,-53,-4,2,4,-39
1523182253367559,-55,-11,63,22,6,7,63,23
1523182253368599,75,38,51,65,9,4,-39,64
1523182253368599,5,-1,-83,-7,-6,-5,11,-10
1523182253383639,-14,-6,-12,-76,-5,3,-9,-2
1523182253383639,-21,-44,18,-47,-5,-4,-11,-3
1523182253384643,-46,-17,23,11,3,1,29,-19
1523182253384643,39,11,-23,-24,-13,-7,-10,34
1523182253404698,12,-5,5,2,1,-1,-6,6
1523182253404698,38,8,-9,42,-1,-5,-15,-6
1523182253405700,-63,-14,-29,51,-1,0,19,-64
1523182253405700,93,-8,-18,8,-17,-14,-1,103
1523182253427755,9,-22,2,12,1,-5,-26,-59
1523182253427755,5,-11,-5,-15,5,4,-13,1
1523182253428759,-22,-7,-35,-66,-17,-4,29,-97
1523182253428759,-80,-25,-20,24,3,-3,-45,-47
1523182253443034,79,18,-7,21,0,3,-9,21
1523182253443034,34,8,5,37,9,-1,-26,-13
1523182253443034,-31,-18,38,-109,-29,-12,-4,2
1523182253443034,-64,13,16,19,7,4,44,6
1523182253465363,-22,-19,-18,10,-1,-3,3,26
1523182253465363,-15,-6,92,-23,-5,4,-26,-25
1523182253465863,0,-8,-41,-9,-6,-5,0,4
1523182253465863,-5,-5,33,67,17,2,-2,-36
1523182253487245,32,-14,-26,-56,-9,-2,-2,96
1523182253487245,72,25,-28,-23,0,1,-4,3
1523182253488248,73,-16,3,78,-4,-11,-13,22
1523182253488248,-37,-7,0,-55,-4,-1,0,-31
1523182253502287,-11,13,-57,14,7,6,13,-24
1523182253502287,37,17,2,-65,-13,10,67,3
1523182253503296,-17,-28,-37,31,16,-13,-102,11
1523182253503296,64,4,44,33,0,1,17,7
1523182253525582,-8,25,19,1,-1,1,15,1
1523182253525582,-58,-39,-39,22,-1,1,-5,-6
1523182253525582,-23,25,12,7,9,10,20,-16
1523182253525582,48,-23,-5,2,-11,-11,-19,98
1523182253547409,-5,20,22,-26,-7,-5,-6,-10
1523182253547409,8,14,-23,-13,-10,-4,3,9
1523182253548407,-4,-8,57,11,14,11,1,14
1523182253548407,-14,0,-81,36,-3,-3,-6,-43
1523182253562958,-58,-20,31,-30,-6,4,27,-13
1523182253562958,-92,23,-18,2,-2,-6,-37,-3
1523182253563460,58,-26,-39,-73,-13,-2,23,10
1523182253563460,-6,15,68,14,2,1,10,-9
1523182253585186,1,8,85,30,9,2,-13,-6
1523182253585186,-6,-33,16,75,16,-3,15,-18
1523182253586188,-62,-49,-105,-83,-9,6,13,-29
1523182253586188,6,16,36,-35,1,9,-25,58
1523182253607246,-3,-1,76,75,8,-2,7,-20
1523182253607246,-14,-11,-62,-58,-20,-3,-4,-13
1523182253608247,-18,9,-23,73,13,-5,-6,9
1523182253608247,-49,-20,12,8,-8,5,11,-105
1523182253622284,-43,-48,-31,-11,2,-3,-32,99
1523182253622284,100,37,-42,-44,-5,2,-16,27
1523182253623287,-83,8,-17,-102,-11,5,7,-40
1523182253623287,-7,2,-29,87,24,-10,-2,-23
1523182253645350,-11,8,-33,-31,-1,1,4,-50
1523182253645350,12,-42,-37,-29,-10,-8,7,10
1523182253645350,19,9,66,-17,-8,-4,-7,49
1523182253645350,18,12,-17,-111,-12,4,6,-17
1523182253667910,-2,-2,-53,26,-9,-10,-5,-14
1523182253667910,-28,2,69,116,18,-6,6,-7
1523182253667910,35,29,-8,16,3,9,29,40
1523182253667910,-25,-27,64,-33,-4,-1,8,12
1523182253682033,34,-28,21,40,-1,-7,-6,-22
1523182253682033,-21,-1,-57,-107,-16,-3,-7,3
1523182253683034,38,17,20,59,7,0,-35,33
1523182253683034,85,29,-10,-26,-5,-5,6,1
1523182253705093,109,46,16,22,-3,-3,-2,8
1523182253705093,-4,-63,-71,-40,-17,-12,0,-27
1523182253706095,5,23,29,-22,10,2,15,-3
1523182253706095,-7,-33,-75,31,-10,-6,-5,-4
1523182253727391,13,27,15,-7,-1,0,-19,-17
1523182253727391,-27,-27,30,11,0,-1,-7,11
1523182253728156,-27,6,40,15,-12,-4,9,-16
1523182253728156,-26,9,-40,-44,1,3,7,-2
1523182253742426,14,27,-37,27,-4,-2,6,12
1523182253742426,-29,7,53,59,15,2,-11,-5
1523182253743215,-6,-16,21,-2,3,7,13,3
1523182253743215,50,4,-15,53,20,7,-5,-27
1523182253765257,-53,11,-70,-57,-26,-3,4,-2
1523182253765257,34,20,-4,96,11,-6,-10,-6
1523182253766328,-27,-6,17,16,6,4,25,-43
1523182253766328,71,32,27,-18,0,0,-26,68
1523182253787139,-53,0,42,-38,6,1,-2,-28
1523182253787139,-14,17,-3,-40,-17,-8,-12,-13
1523182253788141,-38,17,-21,-37,0,1,-11,-16
1523182253788141,-2,-58,-17,82,10,-1,56,-13
1523182253802177,50,7,-8,-24,-7,-9,-39,31
1523182253802177,2,9,51,-10,2,4,-9,10
1523182253803181,17,-6,38,-16,-9,-3,3,6
1523182253803181,-27,-9,71,4,0,1,3,4
1523182253825474,-26,-20,43,-51,-20,-3,9,0
1523182253825474,71,33,82,97,25,6,35,-60
1523182253826242,48,7,-19,-3,-4,-12,-37,86
1523182253826242,-21,11,34,-34,-7,4,-5,-6
1523182253847298,-21,14,110,64,21,7,1,-35
1523182253847298,-31,-9,-17,-31,-2,-1,-1,-3
1523182253848301,24,-12,-71,20,-16,-7,6,-20
1523182253848301,-16,-10,-11,69,12,-6,-9,10
1523182253862845,90,43,-75,-54,-1,9,5,24
1523182253862845,22,24,0,-22,-11,0,-3,36
1523182253863346,-15,-62,62,20,10,0,3,-3
1523182253863346,-33,44,-91,-74,-25,-7,-15,-23
1523182253885021,-23,-13,-26,29,7,-2,26,-30
1523182253885021,-17,-20,71,-8,-2,2,-6,40
1523182253886024,42,55,-96,-56,-3,-3,17,-30
1523182253886024,-16,-20,77,-12,-6,-5,-28,-12
1523182253907080,7,-9,37,68,-14,-6,23,5
1523182253907080,-30,-22,75,92,23,8,-7,16
1523182253908082,-40,-18,-66,-35,-12,-4,-6,-3
1523182253908082,2,-9,-25,-13,2,-2,4,-33
1523182253922357,-42,-27,-26,-22,6,0,-12,68
1523182253922357,11,23,-34,9,-9,-3,-1,-4
1523182253923156,-48,5,50,55,23,7,-4,-26
1523182253923156,-25,9,-57,-19,-5,-1,-16,11
1523182253945182,21,-21,-4,10,0,-4,-9,-26
1523182253945182,-3,16,-64,-57,-13,-6,2,-6
1523182253946182,-5,-23,21,-29,-1,2,2,-26
1523182253946182,-14,-25,-2,18,-13,-18,-20,-8
1523182253967745,19,21,34,6,5,4,15,36
1523182253967745,-29,-29,-68,-46,0,-1,-7,-17
1523182253968246,16,28,17,53,-13,2,33,2
1523182253968246,17,1,-82,-55,-4,-7,-31,-4
1523182253982433,-14,-15,5,6,3,3,38,-19
1523182253982433,-38,9,-18,4,-2,-1,-17,11
1523182253990648,16,4,-34,-18,3,1,-9,18
1523182253990648,27,45,15,-51,-11,14,47,-60
1523182254005491,-56,-20,-58,0,0,-4,-48,1
1523182254005491,55,-24,81,-5,3,2,18,16
1523182254005491,-22,14,-57,21,-2,-4,-18,-1
1523182254005491,-16,-8,-3,1,15,5,5,7
1523182254027551,15,-12,-37,-13,-4,-3,14,-61
1523182254027551,-84,12,24,-19,-15,-6,-16,24
1523182254028552,-74,-72,-37,15,-1,-9,-12,-1
1523182254028552,5,0,84,18,10,10,-24,4
1523182254042591,-66,3,-18,-2,4,-13,-15,-27
1523182254042591,11,-6,47,51,13,4,9,15
1523182254043623,41,-9,68,-29,-17,-10,-10,-11
1523182254043623,-3,23,15,-11,7,11,45,27
1523182254065159,10,-11,-5,-8,-5,-6,-51,80
1523182254065159,31,14,13,20,-8,-12,-19,-28
1523182254066161,19,-26,-94,-80,3,11,40,-15
1523182254066161,28,13,118,-37,5,7,30,-25
1523182254087721,51,19,34,64,15,8,-16,-4
1523182254087721,14,-14,-39,18,1,-5,-5,25
1523182254088723,36,-23,-58,9,-16,-10,1,-8
1523182254088723,56,-60,-86,-66,-9,-2,-37,31
1523182254102994,-2,20,-21,42,9,-1,11,-21
1523182254102994,-6,-10,4,-82,-14,2,0,-34
1523182254103762,-5,-9,26,5,19,11,15,29
1523182254103762,-28,35,59,45,-5,-8,-10,8
1523182254124856,-8,4,77,47,-11,-5,5,-20
1523182254124856,35,-4,-9,38,12,6,2,-7
1523182254125821,-57,49,-40,8,-11,-8,-10,7
1523182254125821,-75,-17,48,52,-1,-7,-5,-10
1523182254147914,19,36,78,-84,10,19,10,11
1523182254147914,2,-30,-35,75,1,-12,8,-11
1523182254147914,11,18,116,55,4,-1,1,21
1523182254147914,-6,-3,-89,-22,4,3,12,43
1523182254162943,-25,-17,-64,-43,-2,2,-6,-5
1523182254162943,2,12,-21,-84,-11,6,-7,-7
1523182254163438,-12,2,-21,36,-2,-4,-19,-72
1523182254163438,-27,-36,-4,32,-2,-7,26,7
1523182254185209,72,-3,-69,-27,-7,-2,-5,32
1523182254185209,20,7,-11,-51,-3,-2,-3,-10
1523182254186213,13,8,-2,-38,-7,5,-9,5
1523182254186213,-8,-15,-8,50,0,-13,19,-18
1523182254215290,-48,-36,59,1,8,2,4,15
1523182254215290,23,15,-51,-3,1,1,-1,14
1523182254216293,82,16,6,-9,3,2,-2,10
1523182254216293,13,26,-44,-55,-12,0,0,5
1523182254222543,73,-23,74,24,2,-4,-4,17
1523182254222543,-13,-17,-25,2,-7,-2,39,73
1523182254223309,43,-10,4,5,-1,-3,-30,8
1523182254223309,9,15,6,14,5,0,-27,-15
1523182254245408,-21,-29,9,-25,-3,8,47,-47
1523182254245408,-42,-3,11,-2,-20,-11,-10,27
1523182254245408,-13,14,120,20,6,-2,-2,13
1523182254245408,-4,-14,-10,40,10,1,-20,7
1523182254267931,-61,18,-68,-107,-19,-4,-1,-59
1523182254267931,-22,-7,-18,-28,-3,2,0,-22
1523182254267931,-32,9,56,55,18,-5,5,6
1523182254267931,-16,22,62,-37,-5,2,-8,-32
1523182254282057,26,9,24,54,-1,-3,-1,86
1523182254282057,-15,45,-6,-27,-7,-2,-29,-73
1523182254290075,23,9,10,-98,15,-6,2,29
1523182254290075,6,-10,5,65,-36,12,30,-54
1523182254305114,18,-35,-66,-35,-42,-27,-74,63
1523182254305114,4,-6,-7,19,3,-5,-15,11
1523182254306118,-13,-11,28,28,0,1,-4,-15
1523182254306118,-7,-11,-5,-44,3,-6,3,-7
1523182254327178,-25,2,-88,0,0,-4,31,-40
1523182254327178,-2,19,-1,-1,7,10,-4,-16
1523182254328176,-56,-35,53,-50,6,7,0,29
1523182254328176,-100,2,30,75,8,-4,-9,-34
1523182254342451,17,18,-15,-13,1,6,10,-2
1523182254342451,2,-19,-80,80,1,-17,-13,-18
1523182254350237,45,47,4,-5,-10,3,28,2
1523182254350237,51,-14,-50,-23,-2,-1,31,2
1523182254365283,-37,-18,28,-84,5,6,-70,21
1523182254365283,-55,11,28,32,9,6,25,-87
1523182254365783,-13,-7,-44,-17,-18,-12,-30,-20
1523182254365783,115,21,-49,-65,-17,-12,-21,36
1523182254387934,-16,-10,29,8,17,6,28,-19
1523182254387934,59,-12,6,20,10,5,7,15
1523182254387934,-44,-37,13,60,-4,-5,-8,-20
1523182254387934,-11,19,18,-11,8,-3,-19,36
1523182254401970,-24,12,-74,-51,-2,-1,20,-47
1523182254401970,11,-10,32,5,-7,5,-7,22
1523182254418172,21,20,12,-70,-7,1,26,-34
1523182254418172,-65,18,-3,54,17,4,7,42
1523182254425270,47,14,92,37,19,10,9,-11
1523182254425270,-32,-1,56,2,-11,-4,-12,-49
1523182254426035,-16,-11,-12,0,-1,-7,-4,24
1523182254426035,-4,-7,-59,-67,-11,0,-5,-7
1523182254447092,2,7,2,26,-3,2,48,-26
1523182254447092,36,27,8,-51,9,3,-31,-28
1523182254448093,-22,-41,6,53,12,5,-19,8
1523182254448093,-39,1,64,-48,-15,-13,-12,1
1523182254462141,-27,-59,-110,83,-4,-7,-2,-32
1523182254462141,-6,-37,-5,-44,-1,3,49,4
1523182254469981,85,16,-46,7,-14,-4,-42,30
1523182254469981,76,39,1,3,-7,2,-1,-3
1523182254493278,-18,-6,13,75,0,-14,-10,7
1523182254493278,-7,-9,72,-48,0,2,20,4
1523182254494048,2,19,-76,42,8,5,14,12
1523182254494048,26,19,-1,-60,3,8,4,53
1523182254507079,21,21,4,28,-1,-9,-34,-37
1523182254507079,5,-3,-27,18,3,-6,-15,54
1523182254508082,-9,-17,76,81,-11,-9,14,-42
1523182254508082,33,1,38,20,8,3,5,4
1523182254522355,-59,39,13,-1,3,9,11,6
1523182254522355,14,46,-2,30,-3,2,14,66
1523182254530140,19,-35,-52,-4,0,-4,-17,-71
1523182254530140,-41,23,11,-37,-2,1,18,24
1523182254545220,87,-27,-30,-14,-1,1,-22,14
1523182254545220,33,-1,81,15,7,-3,-13,-64
1523182254546186,-3,-2,-47,-12,-5,5,16,-18
1523182254546186,-27,-34,-112,6,-2,-7,-25,-34
1523182254567528,6,27,-28,-18,4,-1,23,-23
1523182254567528,5,17,-15,26,9,5,-6,45
1523182254568530,12,3,-4,-104,-21,7,4,13
1523182254568530,-49,-72,-55,68,11,-3,-14,-37
1523182254581573,-7,5,-21,-57,3,1,9,-4
1523182254581573,-28,-19,-38,16,-5,-5,8,5
1523182254589593,-39,-2,-30,27,12,5,19,-25
1523182254589593,54,16,61,-9,-7,3,-18,66
1523182254605634,-17,-10,33,7,3,6,5,12
1523182254605634,-21,-6,-84,-38,-14,-4,2,-28
1523182254605634,-38,10,-52,-17,10,-1,8,-22
1523182254605634,46,-7,48,19,11,9,46,17
1523182254627978,15,62,32,44,8,-2,-60,59
1523182254627978,18,17,43,-30,-8,0,-22,-4
1523182254627978,11,19,-46,-60,-9,-2,0,27
1523182254627978,-34,-28,12,69,14,3,4,-51
1523182254651037,-29,-3,13,34,-5,-6,38,-36
1523182254651037,27,11,82,6,4,-2,-29,13
1523182254651037,-14,-8,-16,-26,7,5,-9,47
1523182254651037,-40,-14,-3,6,-2,-7,-19,-64
1523182254665618,-11,-19,109,-46,-20,3,15,1
1523182254665618,-16,-22,-98,12,-5,-7,-10,-17
1523182254666084,1,1,-7,85,10,-3,19,-12
1523182254666084,20,29,5,-51,-7,-4,-1,28
1523182254686988,74,-12,17,40,-3,-2,-15,-18
1523182254686988,-20,-31,-32,-98,-6,4,9,34
1523182254687995,-10,12,96,-9,-2,-3,-2,-17
1523182254687995,-81,-18,-54,57,0,-11,6,12
1523182254711060,-20,-3,-1,-65,-5,-3,-14,40
1523182254711060,30,11,-13,23,-3,-3,23,1
1523182254711060,24,11,31,-14,6,0,-23,-14
1523182254711060,-53,-15,-26,25,-9,1,24,12
1523182254725324,-46,-21,-3,47,11,-4,-23,-18
1523182254725324,10,5,49,7,-1,0,11,15
1523182254726091,-35,29,41,4,-3,-5,-19,2
1523182254726091,13,6,33,10,3,5,-12,-19
1523182254747147,-24,-12,-42,-30,-12,-3,14,-15
1523182254747147,-79,-12,-94,-24,-1,-3,0,-21
1523182254748155,41,-22,37,51,-4,-9,2,16
1523182254748155,108,34,99,-18,4,5,4,-45
1523182254771218,-20,4,-68,-74,-19,6,-7,-12
1523182254771218,34,8,45,81,13,2,-32,22
1523182254772220,23,-31,-41,79,14,1,11,20
1523182254772220,39,0,-55,-42,-5,-1,-18,-3
1523182254785256,-25,-6,-52,-15,16,9,6,-7
1523182254785256,32,15,-35,-50,-12,-7,0,6
1523182254785256,-61,-22,-11,-25,-13,-2,-3,-21
1523182254785256,-38,13,-39,-8,3,-5,-10,-30
1523182254807315,0,23,69,-57,-11,4,25,52
1523182254807315,-4,0,-28,58,20,1,-3,-4
1523182254808317,-32,-2,21,37,7,-2,-1,5
1523182254808317,86,27,74,5,-5,-3,2,9
1523182254830376,13,-33,-28,-44,-18,-4,8,5
1523182254830376,-4,21,63,-48,-6,-4,1,-34
1523182254831378,82,40,12,-6,2,7,38,35
1523182254831378,-32,-20,-11,-4,-9,-12,-87,-11
1523182254845416,13,47,-43,0,5,-7,-29,-13
1523182254845416,-1,-33,-32,22,-9,-2,26,-8
1523182254845416,-99,-53,-11,-12,11,5,-13,-23
1523182254845416,-50,12,-24,-1,-1,3,17,27
1523182254867715,-90,-29,35,85,15,6,12,-2
1523182254867715,-40,-17,-1,-42,-6,-7,-21,-17
1523182254868751,-31,18,-44,-85,-30,-10,-5,7
1523182254868751,15,2,-48,27,13,4,15,9
1523182254891047,43,-5,4,35,2,-2,21,18
1523182254891047,-4,3,53,7,5,9,17,4
1523182254891850,-16,59,40,-15,-3,1,-16,-7
1523182254891850,1,-31,-29,-71,-3,-2,-1,-24
1523182254905083,-35,10,37,45,8,-4,-15,-34
1523182254905083,17,5,-1,-4,-6,2,7,19
1523182254905850,21,-8,47,-10,-3,7,27,-18
1523182254905850,11,-11,90,-42,0,6,-25,43
1523182254928098,-51,-28,-83,116,-11,-20,-13,-34
1523182254928098,37,9,-26,-7,-5,-2,-4,12
1523182254928098,-2,9,48,-33,-1,2,-14,6
1523182254928098,-58,-15,-2,-15,4,4,14,-13
1523182254950971,105,-1,27,15,5,7,54,39
1523182254950971,3,21,92,46,1,-5,-67,-56
1523182254952059,60,6,-7,30,11,4,45,-1
1523182254952059,62,5,-71,-10,-15,-4,-43,15
1523182254965098,-21,28,-21,-39,-4,0,6,-7
1523182254965098,-13,-6,12,-107,-11,7,9,-62
1523182254972125,-15,-59,-44,124,-9,-25,-29,-31
1523182254972125,-11,-6,-65,-9,4,6,35,4
1523182254987162,-22,-14,45,-25,3,0,-14,-15
1523182254987162,13,-32,13,-39,11,4,1,6
1523182254988165,-41,10,14,-1,-32,-11,-14,-8
1523182254988165,-72,9,4,-6,-8,-12,-12,8
1523182255010224,48,18,55,20,13,4,19,3
1523182255010224,-19,3,-27,55,17,9,13,26
1523182255011228,-29,-8,-16,-125,-27,8,-1,39
1523182255011228,-14,-47,117,127,18,-17,-17,-51
1523182255025501,-35,-10,18,-21,-1,2,5,13
1523182255025501,-12,4,38,-34,-8,0,-1,22
1523182255025501,-2,4,37,5,24,10,4,8
1523182255025501,-26,19,-6,-83,-10,8,19,-2
1523182255048362,-30,-3,12,53,5,-4,-22,-73
1523182255048362,-7,0,-4,63,4,-11,35,90
1523182255048362,-3,-20,2,5,8,2,-50,42
1523182255048362,69,12,20,-102,-9,5,18,17
1523182255070393,18,-26,-56,54,-13,-17,-12,-37
1523182255070393,5,-6,-39,-14,-2,-4,3,-11
1523182255071397,18,-8,-60,-35,7,-3,4,39
1523182255071397,69,6,-62,-21,-8,5,8,-4
1523182255085435,59,33,46,-19,2,2,-17,42
1523182255085435,-20,-23,-53,-34,-6,0,15,7
1523182255085435,14,-9,82,7,-14,-9,8,-55
1523182255085435,50,34,11,50,17,-7,-29,62
1523182255107492,6,-1,-46,-54,-2,5,-11,8
1523182255107492,-24,-23,-49,83,20,5,-1,-26
1523182255108496,-3,-18,-56,-86,-15,0,14,-29
1523182255108496,-74,-17,-41,-11,-13,-3,17,-23
1523182255130554,32,20,20,48,9,3,1,22
1523182255130554,-14,53,57,-50,-14,-4,-22,35
1523182255131556,58,-15,-86,31,4,-6,11,-10
1523182255131556,-23,-44,-5,92,-8,-11,-8,23
1523182255144594,23,26,34,-80,-1,4,8,14
1523182255144594,17,8,-9,-27,-9,-1,5,30
1523182255145593,50,44,-12,-20,14,11,22,-62
1523182255145593,-64,2,30,-77,-22,1,-9,47
1523182255167440,-28,-21,-61,82,18,-18,-35,-53
1523182255167440,16,-11,-21,-72,-12,0,19,0
1523182255168444,-5,9,82,-10,8,4,13,37
1523182255168444,18,6,23,6,8,11,6,-25
1523182255190908,-14,-13,-65,-57,-13,0,14,40
1523182255190908,-93,-6,74,30,6,3,4,-107
1523182255191678,-17,8,-54,-15,7,1,-16,14
1523182255191678,31,-4,84,63,12,0,40,1
1523182255204945,47,8,14,-54,-13,-1,-21,29
1523182255204945,-62,25,-61,17,-3,-11,-6,-34
1523182255205713,46,-6,-33,50,4,-5,-31,-8
1523182255205713,-13,-21,-14,-35,-21,1,5,18
1523182255227815,-82,-43,32,30,-2,-11,-5,-13
1523182255227815,20,-3,-1,12,-5,2,-5,10
1523182255227815,52,14,69,8,-2,-2,-16,51
1523182255227815,-21,-11,-30,20,9,-1,16,-66
1523182255251074,-24,7,15,-71,-6,8,4,7
1523182255251074,-46,-37,15,54,-7,-19,-19,9
1523182255251835,0,-1,-8,37,7,0,-2,48
1523182255251835,30,-2,82,15,7,-1,4,4
1523182255264374,-106,-9,-54,-128,-21,9,20,-29
1523182255264374,46,-29,53,111,15,-3,-8,-27
1523182255272940,-33,4,64,49,2,-2,10,3
1523182255272940,-21,3,8,-50,-3,1,-12,-20
1523182255286976,79,-10,0,-13,-2,2,20,36
1523182255286976,80,-6,-22,-19,-8,1,-1,11
1523182255287979,-14,-11,-19,38,1,-1,-1,-47
1523182255287979,-27,6,-72,-24,-3,-5,-3,-5
1523182255311283,-17,-7,59,-2,-3,-5,-27,35
1523182255311283,27,15,-14,14,5,-4,-29,-20
1523182255311283,-44,-7,-52,-36,-15,-9,-12,14
1523182255311283,-26,12,2,23,8,5,12,-39
1523182255325078,42,-17,1,24,8,1,13,-27
1523182255325078,50,16,19,-95,-20,-5,-56,50
1523182255332096,-23,0,-8,32,-1,-8,-3,-20
1523182255332096,29,12,-13,25,-6,1,-18,14
1523182255347179,4,36,29,-13,10,6,20,5
1523182255347179,-52,-42,-84,0,-3,-8,13,-42
1523182255348140,-49,-23,10,-49,-13,0,12,-7
1523182255348140,49,30,-13,-2,12,3,4,-4
1523182255370459,-39,28,70,46,11,11,-6,-17
1523182255370459,1,16,-21,-106,-6,15,39,-21
1523182255371421,-89,8,13,90,10,-15,-31,-22
1523182255371421,18,1,-14,-76,-7,-6,-26,77
1523182255384456,38,9,34,-23,-2,1,9,15
1523182255384456,-21,-8,27,-103,-2,3,9,-50
1523182255392660,4,-5,-4,56,0,-6,-8,-9
1523182255392660,10,6,49,21,1,0,6,10
1523182255407517,21,-5,-104,-28,-7,-3,21,9
1523182255407517,22,-5,-23,7,0,5,-4,-3
1523182255408520,41,17,-12,19,0,7,18,0
1523182255408520,16,-12,29,17,-6,-14,-10,31
1523182255430580,7,-3,-13,92,13,0,-4,-18
1523182255430580,-18,10,5,-2,3,-2,3,62
1523182255431582,14,30,-49,-112,-19,-4,-27,22
1523182255431582,-17,-2,-51,29,2,1,37,-38
1523182255444615,5,8,59,27,-2,-2,-46,51
1523182255444615,17,10,5,19,3,-3,12,65
1523182255452875,-10,-4,28,-15,18,8,30,-14
1523182255452875,-42,-5,-53,-53,-14,-10,-66,-45
1523182255467918,-12,-3,-54,-10,-4,-5,-1,-60
1523182255467918,21,34,31,-5,0,1,31,5
1523182255468422,45,-4,57,8,12,10,-1,-51
1523182255468422,-49,-16,-29,-12,-8,-7,0,82
1523182255491007,-9,-7,-18,46,-3,1,19,-103
1523182255491007,21,12,70,26,5,6,-8,22
1523182255492013,-30,-37,-85,36,8,5,17,-5
1523182255492013,23,-9,5,-18,-11,-1,5,-45
1523182255503807,-7,-2,18,-7,-10,-9,-2,43
1523182255503807,-16,-5,18,11,-8,-2,5,-26
1523182255512831,-6,-10,-7,-107,-13,-9,-12,-6
1523182255512831,-19,-5,0,87,9,-2,-18,39
1523182255527871,21,6,18,-26,-3,-3,-26,44
1523182255527871,9,13,103,6,-5,3,26,-35
1523182255527871,-29,-10,-17,-81,6,14,33,24
1523182255527871,18,25,-46,65,4,-5,-6,-51
1523182255550932,-2,-1,-3,15,-2,-6,-7,17
1523182255550932,14,-6,-13,14,3,0,-13,25
1523182255550932,-4,12,79,-2,-15,2,6,33
1523182255550932,-2,-45,-43,-39,-3,-6,25,-8
1523182255573780,-23,-36,79,65,11,4,22,1
1523182255573780,-32,-18,-82,2,-11,-10,-52,33
1523182255573780,-14,20,-36,10,4,1,-8,17
1523182255573780,11,2,34,20,1,7,8,-22
1523182255587804,-25,2,-45,-123,-24,-1,32,-51
1523182255587804,-93,-55,-14,116,19,-10,-32,-48
1523182255588806,17,9,83,-21,-14,-1,-9,-39
1523182255588806,30,-18,-63,36,7,-8,-1,8
1523182255610865,47,17,64,-43,-11,3,34,77
1523182255610865,89,-19,-74,-27,-5,-3,-46,0
1523182255611867,47,34,-3,15,1,-8,-21,8
1523182255611867,-34,3,-18,34,5,8,22,-75
1523182255632960,31,14,-15,-1,1,-1,-31,-10
1523182255632960,-12,8,-26,14,-2,5,42,32
1523182255633925,0,-15,10,-13,2,-5,-17,14
1523182255633925,16,35,92,-21,-3,0,20,-18
1523182255646962,-35,-2,-62,63,9,1,-16,-16
1523182255646962,22,12,29,-16,1,5,7,-8
1523182255647962,-63,-2,-10,24,-8,-7,-12,-34
1523182255647962,0,1,-9,-94,1,2,9,4
1523182255670315,-21,-11,7,7,-9,-9,-38,22
1523182255670315,-7,2,11,20,0,-6,-11,24
1523182255671317,38,-4,62,38,7,5,18,-16
1523182255671317,86,7,-24,-104,-32,-6,-41,41
1523182255693384,26,-20,-5,63,18,-10,-19,-18
1523182255693384,-2,0,71,-97,-22,-13,12,-20
1523182255694390,24,-3,-48,48,1,1,6,30
1523182255694390,-30,-23,4,-20,-5,2,1,-25
1523182255707654,-12,-14,-30,-34,-9,2,18,0
1523182255707654,-35,16,-66,40,12,14,61,-37
1523182255708414,26,-12,-4,16,5,-6,-62,-72
1523182255708414,-59,4,39,-17,-7,6,-16,53
1523182255730474,-10,24,27,34,4,-6,-21,-33
1523182255730474,-46,-35,35,1,-8,-2,23,-73
1523182255731478,-8,-2,14,-39,2,2,2,77
1523182255731478,-62,-13,-21,9,-2,0,-13,-39
1523182255753538,24,10,-51,-72,-2,-3,23,54
1523182255753538,23,2,49,127,22,-3,-65,-40
1523182255754046,-23,-4,-73,-20,-2,-7,34,19
1523182255754046,10,0,119,-1,1,-2,11,-26
1523182255768118,-23,-37,-103,-48,-2,2,-2,-7
1523182255768118,27,3,35,-45,-12,2,20,90
1523182255768585,9,-18,-24,-26,-13,-10,3,12
1523182255768585,-9,-2,-73,20,6,4,45,-46
1523182255790882,28,6,13,5,5,9,-11,-88
1523182255790882,-41,-22,28,-19,7,9,34,17
1523182255791649,18,29,-3,-11,-2,3,-44,-24
1523182255791649,-3,-11,-1,71,-2,-20,-53,127
1523182255812705,1,10,75,-16,-9,-5,-10,-89
1523182255812705,-26,3,32,32,0,8,84,-24
1523182255813707,-57,-14,-53,-100,-28,-15,0,49
1523182255813707,36,13,30,65,12,5,-19,-77
1523182255827748,2,14,93,-9,12,1,15,55
1523182255827748,1,24,-50,-79,-15,-9,-18,2
1523182255827748,-40,-9,47,64,9,5,46,-29
1523182255827748,35,8,24,32,2,4,8,4
1523182255850806,-22,-14,-37,70,7,4,-19,-10
1523182255850806,31,-9,-65,-59,5,2,-1,-23
1523182255851809,18,-13,-58,42,-8,-7,-7,29
1523182255851809,-9,0,48,-27,5,4,-11,29
1523182255880208,-4,13,0,41,7,9,38,-32
1523182255880208,-1,3,3,-12,-11,-4,-15,-31
1523182255881211,-9,-28,-91,41,-1,-12,-84,10
1523182255881211,-10,1,1,-8,3,2,-42,12
1523182255887227,16,5,12,-18,-5,1,32,21
1523182255887227,42,-19,-11,-15,1,2,-27,9
1523182255888229,-2,20,9,59,16,10,47,-63
1523182255888229,4,-3,-20,-10,0,-3,36,-60
1523182255910291,-12,-18,-24,-58,-13,-9,-44,36
1523182255910291,-5,13,-5,11,0,-3,-36,-2
1523182255911295,1,16,15,-4,3,4,27,43
1523182255911295,20,14,-20,-48,0,2,10,-11
1523182255933349,-23,-38,-60,39,-4,-14,-13,-1
1523182255933349,-18,8,-24,7,-8,-8,-27,-6
1523182255934352,61,13,23,-27,-2,8,29,44
1523182255934352,-23,9,-44,6,1,-3,-18,43
1523182255947386,21,10,5,-32,-5,0,-1,12
1523182255947386,-34,2,53,52,3,-2,12,-27
1523182255948389,81,-26,51,-70,-5,0,-15,-40
1523182255948389,-55,-37,-11,-8,-13,-10,-14,8
1523182255970377,-10,10,57,38,-4,-1,6,4
1523182255970377,-5,1,-30,-17,0,-12,-16,12
1523182255971379,-6,2,19,-21,-1,7,69,-50
1523182255971379,10,7,-6,8,6,0,-40,46
1523182255993439,-6,25,85,-12,-6,-1,2,38
1523182255993439,4,-4,-12,12,1,1,-20,9
1523182255994440,-31,-5,24,5,1,-1,-17,-48
1523182255994440,16,1,4,-1,9,9,49,-15
1523182256007711,-53,6,-21,-8,-2,-1,-23,56
1523182256007711,62,18,33,22,4,3,18,18
1523182256008477,-36,7,4,-55,-10,2,-22,19
1523182256008477,-17,-6,-2,-1,0,-6,14,-73
1523182256030537,2,-12,-97,11,0,1,-5,-38
1523182256030537,1,-15,59,99,9,0,12,4
1523182256031539,2,5,-37,-23,1,2,13,-7
1523182256031539,15,7,24,-9,-5,0,-36,51
1523182256053600,-25,-7,7,-15,5,7,58,-92
1523182256053600,9,1,-49,-83,-29,-6,-41,40
1523182256054107,-13,8,23,15,7,0,-14,-52
1523182256054107,15,7,16,19,5,5,35,17
1523182256067878,33,-4,14,24,6,-2,6,-44
1523182256067878,-18,1,-114,-19,-4,-3,-35,-20
1523182256068646,-2,-5,99,-68,-7,1,-10,8
1523182256068646,-1,-6,-25,87,-1,-9,10,-11
1523182256090942,-48,-20,-27,-5,-1,-1,3,-39
1523182256090942,83,14,80,-14,4,6,28,42
1523182256091711,-52,-8,-41,16,-4,-9,-15,-44
1523182256091711,3,-1,-42,-102,-3,2,-15,-9
1523182256112766,-1,12,40,71,-4,-6,-8,-7
1523182256112766,-27,-19,-29,41,5,1,55,-77
1523182256113769,-6,-2,-75,18,0,-4,-59,127
1523182256113769,7,12,-14,-4,0,1,9,-9
1523182256127806,24,5,37,-60,-12,2,-10,9
1523182256127806,-14,4,18,76,9,-1,6,-1
1523182256127806,4,-3,16,35,9,10,61,-57
1523182256127806,-96,15,9,-23,0,-5,-44,65
1523182256158662,-24,1,-39,-50,-5,-2,-24,37
1523182256158662,-33,-6,10,-27,-4,0,-10,-6
1523182256159131,4,6,26,-16,-6,-1,9,-24
1523182256159131,-15,-7,-3,55,-3,0,19,-79
1523182256173257,29,0,42,-28,-12,3,7,84
1523182256173257,7,43,7,-20,7,-2,-19,31
1523182256174221,4,-16,29,-30,-2,3,13,-50
1523182256174221,37,-16,28,59,14,5,35,-51
1523182256195276,5,-12,-10,57,3,-26,-52,81
1523182256195276,29,-4,-30,-42,1,1,-8,-26
1523182256196280,15,27,21,-12,-7,0,-11,14
1523182256196280,31,10,-49,-89,-18,16,69,42
1523182256210317,-54,1,1,37,1,-6,-43,19
1523182256210317,63,-10,-42,39,8,-10,-26,50
1523182256211320,7,40,33,-39,-9,2,-21,8
1523182256211320,-14,-41,-20,39,-14,-12,-4,-36
1523182256233379,7,19,-12,35,-1,6,84,12
1523182256233379,-28,18,-22,-27,4,8,-8,36
1523182256234385,-24,-8,126,81,20,3,-5,32
1523182256234385,-15,7,-92,-63,4,1,-14,-32
1523182256247415,7,-7,0,32,-9,-9,6,-50
1523182256247415,-56,8,-24,-35,-9,1,33,-16
1523182256256176,11,-17,-95,-8,-2,-4,-1,53
1523182256256176,-10,-6,84,60,13,-2,-27,-3
1523182256270722,2,-12,-27,-83,-19,-1,-14,-47
1523182256270722,-27,-11,5,-56,-9,-1,6,-17
1523182256272731,-4,5,-14,122,17,3,15,-2
1523182256272731,84,18,-12,-35,-4,-3,-8,81
1523182256292784,12,-41,-110,-53,1,-6,-61,12
1523182256292784,-59,-29,115,56,26,15,5,-11
1523182256294785,-22,-21,-91,-35,-26,-22,-1,-16
1523182256294785,9,14,55,10,20,2,2,-1
1523182256307052,13,7,57,-23,-13,15,43,-10
1523182256307052,2,-2,-38,-33,-22,-3,-14,27
1523182256315841,-10,-22,-81,3,1,-14,-22,-21
1523182256315841,-31,2,79,84,9,-3,-1,2
1523182256330881,37,4,-7,-76,17,13,26,-3
1523182256330881,-35,-17,11,26,-15,-3,4,-27
1523182256331883,10,0,-16,-37,-9,-2,-14,3
1523182256331883,-16,1,-24,-58,-10,-9,-14,-30
1523182256353176,0,26,32,19,8,10,68,-31
1523182256353176,55,11,-9,-21,-14,-17,-99,-15
1523182256354949,34,-23,60,-39,-2,13,38,-29
1523182256354949,-90,6,-16,-81,-13,-2,-8,-28
1523182256366981,-7,-5,-21,110,8,-12,-12,-44
1523182256366981,-22,-9,-23,-46,8,-1,12,31
1523182256376019,15,21,-52,-13,-5,3,-2,25
1523182256376019,18,-30,-85,-6,10,8,7,7
1523182256391295,-5,2,-24,-69,4,1,-7,8
1523182256391295,-12,7,5,84,-40,-4,27,-62
1523182256392056,-14,-6,13,42,20,-2,-11,102
1523182256392056,29,-2,52,20,-7,-13,-28,-18
1523182256413109,-16,12,38,-33,13,15,0,-19
1523182256413109,-40,-51,-96,-4,-16,-9,9,-3
1523182256415114,-60,10,-41,-50,-21,-9,-14,-45
1523182256415114,-6,-3,33,35,-3,3,-2,-18
1523182256427148,-55,-34,1,-22,-6,-10,-19,-35
1523182256427148,-36,12,48,-18,20,2,29,90
1523182256436170,-26,38,124,33,-20,-7,13,-3
1523182256436170,19,5,6,-66,0,-8,-27,6
1523182256450207,12,0,8,79,9,-1,-19,-7
1523182256450207,-20,14,58,-36,-6,8,70,-6
1523182256452213,38,-13,-51,-3,-5,-3,-40,20
1523182256452213,-17,6,-41,-71,-1,-16,-2,-13
1523182256473111,-8,13,42,98,-26,-7,-2,6
1523182256473111,31,23,48,-35,10,9,30,-25
1523182256474884,25,-3,-1,7,18,5,-40,59
1523182256474884,32,-3,-31,-98,-21,0,0,-7
1523182256486913,4,3,60,78,19,-4,-11,-14
1523182256486913,-2,-6,-34,-41,-3,-11,-11,1
1523182256495936,34,-1,18,-11,-13,-10,-40,21
1523182256495936,-16,-6,23,44,7,7,15,33
1523182256510978,-3,4,34,-74,-8,2,-11,6
1523182256510978,-2,-5,2,-6,3,5,7,-20
1523182256511981,-13,0,35,107,22,-10,26,-28
1523182256511981,26,-6,-38,14,-13,0,2,4
1523182256533035,62,31,-6,-5,11,6,28,30
1523182256533035,-21,4,-8,3,0,-4,-38,23
1523182256535044,-18,5,37,-68,-18,6,42,-40
1523182256535044,-23,7,-2,25,2,-4,-17,1
1523182256555837,-31,-7,-43,-35,-10,-6,8,-28
1523182256555837,-5,-12,-5,12,11,1,-14,-14
1523182256557893,-8,-22,-18,43,7,-1,18,-7
1523182256557893,-2,-9,45,0,-4,0,-9,-20
1523182256570977,8,12,-12,-3,-21,4,24,25
1523182256570977,17,-3,-85,-23,13,-9,-17,-10
1523182256571942,13,-4,26,8,14,7,3,-9
1523182256571942,-16,4,8,-38,2,4,18,-51
1523182256592998,23,-9,31,-22,2,2,-12,-15
1523182256592998,6,15,-16,30,-7,-2,-11,-44
1523182256595003,19,-11,-8,-2,2,12,18,57
1523182256595003,-43,-6,-7,32,4,-5,-22,-25
1523182256623080,31,-3,-16,-59,-28,-12,-37,-38
1523182256623080,79,-3,28,35,3,-8,-23,-22
1523182256625086,-6,19,3,-34,11,11,6,-24
1523182256625086,-13,-8,-73,127,19,0,28,13
1523182256631099,19,3,-26,-51,-6,3,-12,67
1523182256631099,9,-16,55,92,1,4,12,-6
1523182256632102,21,6,-11,-74,-15,2,34,-22
1523182256632102,38,5,25,53,4,0,-26,51
1523182256653390,24,-3,-27,20,24,-2,7,-17
1523182256653390,-9,-17,-18,-79,-31,1,43,-2
1523182256655168,-10,-8,0,13,10,-2,-52,-28
1523182256655168,11,3,50,-24,-7,4,33,53
1523182256675236,-75,-13,3,9,5,-2,3,-23
1523182256675236,4,40,-33,-29,3,1,-8,-5
1523182256677242,9,12,84,-30,-11,-6,13,-34
1523182256677242,23,-9,-3,-30,-22,-7,-15,8
1523182256689274,-75,-31,-5,70,8,-9,-29,-1
1523182256689274,19,13,97,41,15,6,7,26
1523182256698298,-35,12,-43,-77,-28,-2,-12,-47
1523182256698298,-95,-11,18,87,16,2,22,-29
1523182256713339,22,23,60,-21,9,-1,-27,29
1523182256713339,29,-8,10,3,17,1,-17,19
1523182256715344,-22,5,45,-1,-7,12,25,-75
1523182256715344,12,-41,-2,-128,-45,-13,-2,35
1523182256735399,16,-14,-19,16,-2,-5,20,0
1523182256735399,-62,-12,-5,34,12,2,-9,-26
1523182256737402,-8,11,11,76,3,-1,1,35
1523182256737402,37,6,12,-39,0,7,20,-22
1523182256750435,-21,-44,-53,27,36,-12,-15,8
1523182256750435,16,4,-28,-115,-28,1,31,-30
1523182256757425,76,-22,-18,-9,-10,-8,-32,-26
1523182256757425,72,-12,-45,-84,-24,-6,-64,87
1523182256773516,8,32,19,-18,-13,6,18,-11
1523182256773516,22,5,-3,61,10,-2,29,-43
1523182256775290,-44,-27,-87,-8,1,-4,-31,50
1523182256775290,1,19,61,-22,8,15,53,-5
1523182256795341,9,-31,-108,17,1,3,-8,-36
1523182256795341,-9,-18,6,18,2,-6,-32,15
1523182256797346,22,8,-21,4,6,2,18,17
1523182256797346,-50,-3,12,4,4,-6,-2,-41
1523182256810382,-3,24,5,-63,-18,7,32,26
1523182256810382,-3,1,52,23,-4,-9,-92,-12
1523182256816400,-3,5,34,58,8,-4,28,59
1523182256816400,50,0,14,12,7,1,0,-62
1523182256833440,-9,8,1,-92,-18,-5,-13,16
1523182256833440,-25,-3,-11,45,8,-6,-2,9
1523182256834444,4,0,55,0,8,-1,-6,-32
1523182256834444,-53,11,-38,61,3,4,27,65
1523182256855971,-36,-24,6,-28,-15,-9,-20,-44
1523182256855971,-42,8,15,-30,0,-4,-23,28
1523182256857904,-46,-9,-91,-47,5,-2,30,-38
1523182256857904,-3,3,21,-8,-5,4,-24,-9
1523182256870277,-2,15,30,13,3,0,-6,1
1523182256870277,31,2,-117,-71,-4,0,6,23
1523182256876454,-15,-4,-71,76,4,-3,-16,4
1523182256876454,-62,6,23,28,-10,0,12,-61
1523182256893460,31,-4,54,20,9,7,6,59
1523182256893460,-34,-4,31,-43,-12,-4,-4,-11
1523182256894462,3,7,-3,-15,13,4,18,33
1523182256894462,-8,-2,-15,14,0,-5,-14,15
1523182256916524,-9,-31,21,49,7,6,-11,20
1523182256916524,-52,15,-15,-76,-13,-2,16,60
1523182256917524,-6,-8,36,-16,-14,-3,-15,-19
1523182256917524,-9,-8,14,125,28,-1,1,-23
1523182256929556,3,9,31,-13,-3,-1,60,-31
1523182256929556,41,-42,-13,3,-2,-6,-18,15
1523182256936575,6,1,64,-22,-18,-2,12,7
1523182256936575,25,-19,-58,32,12,-2,-31,14
1523182256953753,-12,12,39,2,-6,-1,13,-40
1523182256953753,40,-10,6,29,5,5,25,-15
1523182256955363,12,19,-32,4,1,-2,-13,-19
1523182256955363,44,12,-88,-28,7,7,43,51
1523182256975571,62,-2,-11,-56,-3,-6,-24,-40
1523182256975571,-16,34,52,40,5,-1,-31,62
1523182256977572,-10,-17,8,-14,-19,-10,10,-38
1523182256977572,78,0,33,1,-11,-8,-76,-19
1523182256989839,-19,-1,-31,-14,7,-3,-28,-35
1523182256989839,32,4,-15,18,13,3,19,10
1523182256998665,4,-1,21,-22,-15,-5,7,66
1523182256998665,-26,-18,27,-34,-4,0,22,-30
1523182257012666,-8,10,5,13,-1,1,-2,6
1523182257012666,-14,4,2,39,3,3,-1,-53
1523182257014672,-25,-27,47,25,20,5,-7,13
1523182257014672,-26,10,-54,-63,-6,5,30,-36
1523182257035727,12,8,-41,28,-4,1,-23,-8
1523182257035727,-79,-5,2,-17,-24,-8,12,-1
1523182257037732,28,-5,-47,16,5,-5,-12,24
1523182257037732,51,25,38,7,15,1,-8,40
1523182257049765,-66,-60,-14,-32,-20,0,51,-41
1523182257049765,-2,-12,-33,-1,-7,-7,-33,6
1523182257058530,25,-38,-4,-25,0,0,-37,73
1523182257058530,29,26,-48,-54,-6,-2,10,-24
1523182257073396,-18,3,-14,49,13,-5,-13,59
1523182257073396,30,-10,8,1,4,2,22,-33
1523182257074402,-13,28,12,58,4,4,22,-35
1523182257074402,16,-26,-25,-111,-20,-7,-2,1
1523182257095458,24,11,-42,33,6,0,-28,25
1523182257095458,9,2,21,-34,-14,-4,18,-34
1523182257102474,1,11,0,17,2,1,3,-9
1523182257102474,-39,7,34,124,7,-5,-3,-29
1523182257109536,21,11,-30,-71,-17,-6,6,84
1523182257109536,-10,13,-51,26,9,-1,-8,-18
1523182257118517,10,-25,-8,-15,2,-1,16,29
1523182257118517,-13,34,113,12,-1,12,68,-34
1523182257133558,16,31,-12,-9,-6,-12,-55,28
1523182257133558,-80,-7,-3,26,11,8,19,-18
1523182257134559,0,12,58,34,6,1,-4,-14
1523182257134559,-16,-14,40,-47,-12,-5,11,-13
1523182257156277,-50,-11,23,69,13,7,61,3
1523182257156277,73,22,52,-34,-15,-1,-61,-3
1523182257157859,-2,1,-22,12,0,0,-14,-56
1523182257157859,-21,-2,-19,-8,0,-3,-22,54
1523182257169658,-18,14,6,-25,-4,8,20,-64
1523182257169658,-26,-18,33,20,5,-5,12,87
1523182257178604,-55,-38,-77,-34,-13,-13,-70,-15
1523182257178604,7,6,72,32,10,4,-11,-11
1523182257193644,56,11,69,-91,-13,2,4,10
1523182257193644,-54,-31,-30,6,8,-3,49,7
1523182257194648,-17,20,8,52,4,1,-34,-35
1523182257194648,5,9,-8,13,2,-3,-13,26
1523182257215706,19,-1,-19,3,1,0,21,-41
1523182257215706,2,-19,-44,-39,4,6,-22,20
1523182257216707,39,22,22,10,-7,-3,40,17
1523182257216707,-9,-1,-35,23,-4,-3,-19,5
1523182257229741,-24,-23,9,28,-5,-1,5,23
1523182257229741,32,29,34,30,-1,-2,3,-42
1523182257238765,-8,-4,0,-56,-4,-5,4,44
1523182257238765,-19,-14,-25,-10,2,2,-29,2
1523182257252883,43,20,14,15,6,3,0,-45
1523182257252883,31,-7,-22,-5,-6,-2,-10,-47
1523182257255315,52,4,-6,-5,-5,-6,-3,-16
1523182257255315,-28,-15,-41,-18,-4,1,15,-59
1523182257275483,-5,-22,7,14,2,-4,-20,19
1523182257275483,-5,-20,35,17,2,3,28,-50
1523182257277482,-22,27,40,6,8,4,-21,-6
1523182257277482,-4,-17,-20,-42,-10,1,4,6
1523182257289750,-22,-7,-59,-56,2,-2,-7,-30
1523182257289750,30,-5,-13,40,-7,-7,-5,73
1523182257298539,-32,12,-2,10,1,-1,-2,-4
1523182257298539,2,-3,6,-17,-6,-1,7,1
1523182257313579,-12,-20,21,73,6,-3,-12,8
1523182257313579,-27,-1,-4,-113,-7,4,7,-17
1523182257314582,-32,20,35,-19,-13,0,18,-10
1523182257314582,-14,-7,0,119,17,-2,-22,-23
1523182257335638,89,27,-22,2,-5,0,18,50
1523182257335638,18,4,17,16,1,-3,-11,-12
1523182257337643,-5,-16,-11,26,5,0,1,-7
1523182257337643,-10,6,1,4,-3,-3,14,11
1523182257349715,-19,-5,47,10,-3,-3,-15,-19
1523182257349715,43,30,-56,-40,-9,-1,1,17
1523182257358440,27,-14,-65,-11,3,5,24,23
1523182257358440,-90,-16,14,-35,-18,-9,19,-10
1523182257373546,-21,15,-33,-79,-11,-2,-27,15
1523182257373546,13,6,24,107,19,2,1,7
1523182257374550,-16,-26,-64,-56,-2,4,15,-41
1523182257374550,1,10,58,13,4,1,28,16
1523182257395606,-10,53,-10,-9,-5,-4,-3,-30
1523182257395606,-18,-14,11,-31,-10,-8,-20,5
1523182257397611,-2,1,15,10,3,3,3,-2
1523182257397611,27,0,-26,6,6,-1,-9,10
1523182257409684,-34,-25,-44,-12,-2,1,-2,-14
1523182257409684,18,12,26,39,4,5,33,33
1523182257418667,51,4,-29,-44,-5,-8,-4,13
1523182257418667,-10,21,82,-15,-15,-5,-28,-39
1523182257432739,-67,-10,79,61,14,3,10,40
1523182257432739,3,-20,-14,-15,-1,6,17,-5
1523182257434709,-35,-29,-4,-15,6,-2,-8,33
1523182257434709,19,8,15,-63,-13,-3,-25,-10
1523182257456003,37,-6,33,82,15,2,23,2
1523182257456003,-19,17,-72,1,-8,-3,-16,-8
1523182257457506,51,38,11,-10,4,5,11,4
1523182257457506,-62,-18,-63,-22,-8,-8,-25,17
1523182257477881,26,-10,44,48,20,1,-18,-2
1523182257477881,-46,-7,-39,-65,-23,-6,4,-33
1523182257479886,13,0,-28,2,-2,3,13,6
1523182257479886,66,2,21,55,11,0,-5,7
1523182257492924,-12,2,-47,-89,-23,-2,-1,-17
1523182257492924,-2,2,47,111,17,-6,-11,7
1523182257494926,34,-21,-60,4,4,4,11,-16
1523182257494926,42,-18,-85,2,8,4,8,50
1523182257515983,-16,-17,-16,-26,-9,0,-7,-48
1523182257515983,18,-11,23,-43,7,5,13,7
1523182257516985,-11,-9,-26,2,-8,-4,-28,-1
1523182257516985,16,0,-43,12,3,2,11,-30
1523182257537039,-4,-14,-31,-6,-6,-5,-13,-2
1523182257537039,12,16,41,-60,-15,-6,-14,19
1523182257546063,-9,-5,127,113,7,-3,-5,-27
1523182257546063,-3,1,1,-60,2,11,46,-6
1523182257553313,-46,-10,-9,-26,-10,-5,-16,-23
1523182257553313,-3,-6,53,-10,5,5,-49,-3
1523182257555086,-63,-3,-43,90,15,-16,-14,-12
1523182257555086,22,-5,-36,-85,-14,-5,-2,-3
1523182257576149,43,1,-4,8,7,4,21,31
1523182257576149,-32,16,-15,-2,2,12,31,-37
1523182257577152,-72,-32,-12,-29,-11,-4,-28,-6
1523182257577152,15,19,-29,19,6,1,3,15
1523182257598210,-1,16,46,20,3,1,6,15
1523182257598210,17,-18,2,-8,-1,-6,-10,-21
1523182257600214,7,6,3,-62,-5,4,45,-18
1523182257600214,4,23,54,60,-9,-10,-44,30
1523182257612245,-13,-32,-91,-53,-13,-9,-8,5
1523182257612245,14,-2,-10,23,17,3,4,-2
1523182257619270,10,31,100,-27,4,6,19,8
1523182257619270,-15,-12,51,-25,3,7,23,58
1523182257635307,34,8,10,34,-12,-8,-22,-13
1523182257635307,-20,-15,-39,28,-5,-6,-18,-6
1523182257637311,23,8,-8,-20,5,4,14,5
1523182257637311,8,6,29,23,15,14,28,-18
1523182257658609,-106,-6,24,50,4,-4,-39,49
1523182257658609,19,-30,-21,-30,-14,-13,-3,-15
1523182257660112,18,-7,-30,-18,-8,-1,2,2
1523182257660112,-1,7,73,-16,0,2,-12,5
1523182257672790,31,-17,-45,89,7,-2,19,-7
1523182257672790,7,-3,-16,27,8,2,5,-9
1523182257678804,12,17,8,-30,-4,0,-1,16
1523182257678804,-18,5,42,53,9,-4,-7,-15
1523182257695852,1,0,-91,-77,-25,-1,13,-10
1523182257695852,10,15,38,22,-12,2,0,8
1523182257696851,-31,0,-18,35,2,-5,21,-17
1523182257696851,5,-5,1,32,9,-4,-19,-41
1523182257717907,-16,-5,113,64,25,10,6,16
1523182257717907,-16,-18,-78,-65,-20,0,18,13
1523182257719913,-21,-50,-17,57,-10,-12,0,-20
1523182257719913,-68,-33,23,-21,-8,-9,-27,-4
1523182257732951,20,7,97,-20,0,-2,-1,9
1523182257732951,19,-31,-53,-42,-1,2,17,-21
1523182257739965,-5,3,38,-20,4,9,-20,-11
1523182257739965,12,-7,-74,-81,-19,-10,-4,-19
1523182257755949,25,14,15,53,5,-1,8,36
1523182257755949,12,25,38,-14,-3,-4,-10,52
1523182257757738,-7,-5,-28,25,4,1,-2,-7
1523182257757738,-9,16,-25,20,0,1,3,23
1523182257778293,49,-31,-4,-72,-6,-2,-4,-44
1523182257778293,-1,30,76,22,2,1,6,-1
1523182257779297,-33,-13,-35,34,-17,-18,-41,32
1523182257779297,15,47,-45,-101,-9,12,33,4
1523182257792339,-61,2,-59,110,19,-9,-27,-37
1523182257792339,-22,-2,61,2,10,3,6,2
1523182257799350,13,-2,-6,-89,-15,7,10,-29
1523182257799350,35,-56,-9,45,-2,-6,-13,-7
1523182257823648,33,8,56,-41,-14,0,-6,46
1523182257823648,-12,-11,-52,18,6,-1,-10,-9
1523182257824415,-20,42,12,-127,-5,11,-1,-31
1523182257824415,13,-11,-92,122,1,-7,29,-75
1523182257838453,28,-14,27,-44,16,-1,-38,26
1523182257838453,83,37,3,-52,-10,-10,-22,10
1523182257839580,14,-2,-44,-49,-2,6,12,11
1523182257839580,-7,-3,-15,8,-14,-8,-14,-6
1523182257852725,-7,9,-32,52,10,7,52,-74
1523182257852725,61,22,28,31,9,-3,-22,74
1523182257859748,-5,-26,-7,20,-4,-3,-17,-6
1523182257859748,-6,-7,61,-41,0,0,-13,3
1523182257875986,7,12,-64,-124,-14,2,21,-9
1523182257875986,-26,-12,-10,19,10,4,7,-87
1523182257876988,3,10,63,19,0,-4,9,106
1523182257876988,66,21,-33,-32,10,1,-19,5
1523182257898080,-15,1,32,-75,-8,2,2,-1
1523182257898080,-23,-18,-49,25,-15,-10,-9,-35
1523182257900049,-27,-8,-12,-5,-1,-2,18,6
1523182257900049,20,16,34,-2,10,6,5,22
1523182257912081,-1,-6,-110,-6,-7,-3,-26,15
1523182257912081,-32,-1,48,-47,-4,1,12,1
1523182257919100,33,15,47,4,0,-1,9,-25
1523182257919100,10,-27,-7,-14,-3,-3,-1,10
1523182257935144,8,1,39,91,7,-7,24,-34
1523182257935144,21,-4,32,17,-3,0,-13,27
1523182257937148,17,-24,1,-59,2,4,19,-68
1523182257937148,12,13,69,-35,-5,2,-22,94
1523182257958442,-3,15,43,-123,-17,8,11,-11
1523182257958442,-46,-21,-15,113,26,-5,23,-35
1523182257959945,22,14,15,16,1,-9,-48,69
1523182257959945,-44,13,33,-18,-6,1,-3,-23
1523182257971513,14,6,-72,18,3,3,6,17
1523182257971513,-14,-39,40,-115,-14,7,9,20
1523182257980537,61,9,-7,19,11,-6,-7,-26
1523182257980537,-17,-8,-9,91,0,-2,10,-8
1523182257995580,4,14,25,-4,-2,-3,-7,34
1523182257995580,-32,8,97,-5,0,11,41,-7
1523182257997584,-7,7,48,17,8,-2,-29,-24
1523182257997584,-9,-21,-118,-21,-8,-10,-2,-5
1523182258018638,-9,4,60,37,2,-4,-3,-15
1523182258018638,37,28,-2,7,8,12,47,-3
1523182258019642,1,-31,17,-11,-18,-13,-58,-1
1523182258019642,-22,-18,-28,-10,-3,-3,10,-27
1523182258031710,6,23,36,-42,-19,-1,10,-11
1523182258031710,-11,-15,-37,55,6,-13,-37,13
1523182258040696,-12,14,15,-2,4,6,16,-7
1523182258040696,18,-1,21,19,-2,-7,8,12
1523182258055969,-3,-16,-53,41,14,3,-6,7
1523182258055969,-34,-46,-66,-125,-40,-15,-26,-30
1523182258057477,2,13,-21,49,6,4,17,-9
1523182258057477,-2,6,8,10,6,8,33,9
1523182258078571,37,4,-12,0,-1,-4,-27,13
1523182258078571,71,23,37,-21,-3,-4,-20,8
1523182258079575,-26,-7,18,19,-8,2,-3,-23
1523182258079575,-5,-7,1,-7,-2,-3,13,0
1523182258091608,-12,12,-14,-28,2,-6,-5,12
1523182258091608,-6,31,-26,21,8,8,17,11
1523182258100653,-35,-16,-15,-1,8,2,-15,-22
1523182258100653,20,-2,49,-37,1,7,-13,-8
1523182258115671,4,-12,-67,4,-14,-16,-1,-8
1523182258115671,-17,-4,-111,2,4,-3,-20,-5
1523182258117677,31,43,61,19,10,5,28,81
1523182258117677,-37,-49,-34,-62,-3,10,5,-8
1523182258138756,-9,-4,35,82,17,-5,-1,-50
1523182258138756,32,-24,-4,-34,-14,-12,-28,53
1523182258139734,20,-6,-11,4,4,12,13,24
1523182258139734,11,40,-1,-41,10,7,-5,-9
1523182258152001,-16,-10,33,71,-12,-2,-1,-35
1523182258152001,-65,-15,36,-33,3,-6,13,-13
1523182258161029,45,14,36,-40,-15,-4,-10,1
1523182258161029,-1,39,62,-29,-1,-1,-15,-4
1523182258175652,-16,-4,-29,-99,-3,11,13,6
1523182258175652,65,23,41,127,10,-14,-15,-32
1523182258177613,-25,2,-1,-69,-6,-3,-6,7
1523182258177613,65,-18,74,8,-7,-7,0,-18
1523182258197705,81,-31,48,-40,-13,-4,-5,25
1523182258197705,9,14,8,23,10,9,-3,9
1523182258199672,9,-1,11,-9,-7,-6,6,-5
1523182258199672,-43,-15,-82,-19,-17,-8,0,-42
