timestamp,emg1,emg2,emg3,emg4,emg5,emg6,emg7,emg8
1523054620078927,-8,9,1,2,6,1,0,-3
1523054620078927,1,-16,-4,1,-2,0,-1,2
1523054620079929,3,3,1,0,-4,-1,-5,-5
1523054620079929,4,-5,-1,-3,-3,-1,-6,-5
1523054620080430,-4,-3,-1,0,-1,-1,-3,4
1523054620080430,2,7,-5,-8,-1,-1,3,3
1523054620083942,-1,-3,-3,1,2,-1,-4,2
1523054620083942,4,2,-2,3,1,2,5,-1
1523054620090456,5,-8,-3,-4,-3,-1,5,-2
1523054620090456,-7,-4,1,3,0,-1,-20,-2
1523054620098982,0,-5,-10,-2,2,-1,5,2
1523054620098982,-5,2,8,-3,2,2,3,0
1523054620107001,-1,0,4,1,0,-1,-3,0
1523054620107001,-1,-2,-4,-3,-5,-3,8,1
1523054620121038,1,2,-2,-1,-6,-2,0,-1
1523054620121038,-11,-2,-3,3,7,0,-8,-6
1523054620130062,3,-3,-1,2,0,1,-8,-4
1523054620130062,1,3,9,1,-2,-2,2,-3
1523054620151619,-3,-3,-12,-7,-2,1,2,0
1523054620151619,1,0,10,0,-8,-4,2,1
1523054620153624,9,-27,-13,-5,-2,-4,-3,0
1523054620153624,0,6,0,-1,0,1,-3,-2
1523054620165157,0,16,3,4,-1,-6,-4,-1
1523054620165157,-9,-15,-7,-4,-2,0,1,1
1523054620207769,0,-3,-2,2,1,0,-6,-5
1523054620207769,1,-2,-1,-1,-1,1,3,-2
1523054620211278,-6,-3,0,-4,-2,-1,-3,-2
1523054620211278,7,-15,-4,0,1,0,-1,0
1523054620212280,-11,0,2,2,0,-1,-2,-5
1523054620212280,-4,-4,-3,-5,0,-1,-2,-2
1523054620213283,0,11,2,0,1,5,3,2
1523054620213283,4,-3,-4,-4,-4,-5,11,0
1523054620217795,4,-10,-5,-3,-3,-3,-21,-4
1523054620217795,-2,2,0,2,0,-8,1,1
1523054620226819,1,7,0,-1,1,-4,-7,0
1523054620226819,5,-5,-4,-5,-1,-10,-22,-9
1523054620232835,7,-28,-5,-3,-3,4,22,4
1523054620232835,0,0,-2,0,-2,-8,-15,-1
1523054620247876,7,-14,0,-3,-2,0,11,-5
1523054620247876,-33,37,6,0,-1,-4,-15,-7
1523054620255395,6,6,-1,-1,-1,-11,-13,8
1523054620255395,-5,0,1,0,0,9,24,-3
1523054620278457,6,-10,-1,3,4,-9,-36,-3
1523054620278457,8,-9,-2,-1,-2,10,53,4
1523054620278958,-1,0,-4,-5,-3,18,36,-4
1523054620278958,-7,7,9,0,-2,-5,-14,-3
1523054620293497,-4,5,0,0,0,9,2,5
1523054620293497,6,-5,-2,-4,-1,-5,-12,-1
1523054620293998,-6,6,1,1,1,-10,-30,-5
1523054620293998,5,-11,-6,0,3,-8,4,16
1523054620316057,1,-10,-7,-4,-6,4,12,-5
1523054620316057,-2,-2,-1,-1,-4,-2,-10,4
1523054620316558,-3,8,5,-1,0,0,1,-1
1523054620316558,1,-4,-3,-2,-2,5,-9,-1
1523054620338115,-11,17,2,1,-2,-7,0,0
1523054620338115,0,-15,-4,-2,-3,2,0,0
1523054620339118,0,5,4,3,6,-4,-3,1
1523054620339118,3,2,4,7,-1,0,0,-5
1523054620352654,2,-4,-1,-9,-2,1,8,1
1523054620352654,2,-9,-9,-1,-3,-3,-4,-3
1523054620360675,-22,-2,-7,-1,-1,1,-4,-7
1523054620360675,2,2,0,-1,0,0,3,-4
1523054620375715,-1,4,5,-2,-5,-3,-2,-3
1523054620375715,-2,0,-2,-1,3,5,0,3
1523054620376718,4,-3,4,-7,-4,-5,-1,1
1523054620376718,-2,1,-3,5,3,3,3,-3
1523054620398275,-2,-10,-16,-10,-7,-9,0,1
1523054620398275,0,5,9,0,-6,-1,0,-2
1523054620399279,0,6,2,2,5,-2,-3,-6
1523054620399279,-2,-3,6,-5,0,2,-1,-7
1523054620412814,3,0,-12,-2,0,2,-1,-6
1523054620412814,-2,0,8,4,2,1,-1,1
1523054620420836,6,2,-4,-1,-4,1,4,2
1523054620420836,-11,-6,-3,-7,-7,-3,-3,1
1523054620435876,0,-1,2,7,4,-1,-1,-1
1523054620435876,-7,4,-2,0,4,1,0,2
1523054620436880,1,4,9,-2,-2,-4,-2,1
1523054620436880,2,1,-7,0,0,-3,-2,-6
1523054620458436,0,-3,2,-1,-5,-1,-1,0
1523054620458436,-15,-5,-5,-4,-4,-1,8,-4
1523054620458938,3,3,-6,-2,-1,-3,-4,2
1523054620458938,2,0,-2,-4,-2,3,-6,1
1523054620472974,-10,11,2,9,4,0,-2,0
1523054620472974,7,2,3,3,0,-2,-3,0
1523054620481049,-3,-8,-4,-11,-5,-3,-3,-3
1523054620481049,-4,0,-3,0,-2,-2,0,-3
1523054620496037,2,-5,2,1,3,2,1,0
1523054620496037,-2,7,7,3,-2,-2,-5,0
1523054620496539,-5,-2,-17,-2,-3,-1,4,-2
1523054620496539,3,-2,-5,-4,-3,-2,-2,1
1523054620518595,-3,-4,4,-4,-4,-2,2,-1
1523054620518595,-3,-2,-1,4,6,3,1,0
1523054620519097,9,-3,-6,-3,0,1,4,1
1523054620519097,-1,4,6,-5,-4,-3,-7,-2
1523054620532633,-2,-6,-3,-2,-4,-3,-2,10
1523054620532633,-7,-3,1,-3,-5,-4,-1,-4
1523054620540655,4,3,3,2,2,2,6,0
1523054620540655,1,-7,-3,1,4,3,2,4
1523054620555695,-1,11,3,-1,-3,-3,-4,-6
1523054620555695,0,-17,3,-3,-4,-1,-4,-1
1523054620556697,-6,-2,-12,-4,-2,0,1,5
1523054620556697,1,-5,8,4,-5,-4,-5,-5
1523054620578311,-3,-5,2,-1,6,2,-2,-3
1523054620578311,7,6,-6,-2,3,1,-2,4
1523054620579257,-8,3,6,2,-5,-2,-3,-3
1523054620579257,0,-12,-10,-4,0,-1,3,-1
1523054620592847,-1,8,3,2,2,3,9,10
1523054620592847,-2,-3,-5,2,1,-4,-14,-6
1523054620600814,0,-4,1,3,-3,-1,4,1
1523054620600814,-1,7,4,-2,2,2,3,2
1523054620615889,3,-5,-3,-4,0,-2,-10,-2
1523054620615889,2,-2,-10,-2,0,1,4,15
1523054620616858,-15,-1,1,2,0,-1,6,-3
1523054620616858,2,2,7,2,-3,-2,-8,-3
1523054620638415,1,-4,-4,1,-1,-4,1,-3
1523054620638415,-19,23,20,5,5,4,9,-5
1523054620638916,3,-4,-7,1,0,-3,-12,-6
1523054620638916,2,-3,-3,-4,-1,-2,-2,8
1523054620652451,-6,-6,-7,3,0,5,2,-6
1523054620652451,6,2,1,-6,-2,-5,-6,-8
1523054620660974,1,0,4,-2,-2,0,5,1
1523054620660974,-18,7,0,0,1,0,2,-10
1523054620676047,3,-7,1,-1,-5,-2,-6,-4
1523054620676047,4,0,-8,-1,-2,1,1,15
1523054620676517,0,4,10,1,7,0,-2,-13
1523054620676517,3,12,-4,-4,-6,-3,-6,5
1523054620698575,-12,-6,-6,0,-3,-3,2,-6
1523054620698575,-1,-4,6,-7,-6,-4,-1,-2
1523054620699076,2,-1,-3,4,1,2,-2,2
1523054620699076,-15,4,-1,0,0,1,1,-2
1523054620712612,5,7,1,2,0,5,0,-5
1523054620712612,2,1,-7,-3,-2,-1,6,-6
1523054620721135,12,-6,1,-3,-3,3,5,25
1523054620721135,-6,-1,1,0,-1,-6,-3,-12
1523054620735674,-11,7,6,3,1,-6,-11,1
1523054620735674,6,-5,-3,1,-1,15,23,-6
1523054620736678,2,-10,-5,-3,0,-3,-9,-3
1523054620736678,-3,-5,-3,-1,-1,0,15,0
1523054620758287,2,-3,3,-4,-1,1,-8,-2
1523054620758287,-5,4,-3,-1,0,-5,-25,-2
1523054620759289,-12,-1,0,-1,-5,-2,28,-8
1523054620759289,16,-8,-2,0,2,-3,-5,-1
1523054620781295,16,-4,-7,-6,-5,3,9,32
1523054620781295,-1,-33,-3,0,-1,-5,-2,-3
1523054620782298,-14,39,34,7,2,-11,-34,25
1523054620782298,-1,-8,-69,-6,2,19,29,0
1523054620795834,15,-10,-6,-1,-3,-11,19,13
1523054620795834,9,-6,6,-1,-2,-10,-18,-10
1523054620796857,3,-8,44,-3,-1,10,27,-1
1523054620796857,8,-4,-25,-5,-5,-20,-25,9
1523054620818393,-6,3,16,0,-1,13,6,-31
1523054620818393,-31,-11,-18,-2,1,-2,-5,-10
1523054620819396,1,-3,5,0,0,2,-1,-12
1523054620819396,-3,1,13,-1,-2,3,2,-2
1523054620841454,-2,2,-5,-1,0,-2,2,-14
1523054620841454,-4,5,12,2,0,-5,-10,4
1523054620842457,4,-4,-21,-1,2,4,-2,5
1523054620842457,0,-4,10,-3,-8,-4,-10,-4
1523054620855993,-6,3,-9,4,6,-3,-10,5
1523054620855993,5,4,1,-1,0,3,8,16
1523054620856494,5,0,-18,-4,-5,-6,-10,-8
1523054620856494,-5,-2,6,3,2,2,2,-1
1523054620878554,1,-5,11,-3,-2,1,7,2
1523054620878554,-13,8,-2,0,-2,0,2,-9
1523054620879056,-1,-11,-19,-4,-3,-5,-23,-20
1523054620879056,-1,7,9,-11,-5,-6,-3,3
1523054620901616,-2,-1,1,6,-1,0,0,3
1523054620901616,1,5,9,-4,5,5,15,0
1523054620902118,6,-34,-18,8,-8,-10,-21,-4
1523054620902118,1,-11,18,-6,-2,4,-1,-1
1523054620915692,-3,2,-10,-7,-4,-6,-7,-4
1523054620915692,8,8,7,6,2,-1,-2,2
1523054620916656,-6,-6,-10,-7,-1,3,7,-10
1523054620916656,1,3,8,6,2,3,0,1
1523054620938212,-5,-12,-15,-10,-5,-5,-2,-3
1523054620938212,6,-2,10,1,-6,-7,-2,-2
1523054620939215,-4,11,-1,-1,3,3,16,7
1523054620939215,1,-6,-9,3,4,-2,-5,-8
1523054620961273,3,9,11,-4,2,-2,-2,1
1523054620961273,2,5,-8,-1,2,2,-11,-3
1523054620962276,-10,-3,-6,0,-3,-3,0,-2
1523054620962276,2,2,2,3,0,2,6,1
1523054620975812,-21,-8,-4,-4,-1,1,5,-13
1523054620975812,15,0,-5,-2,-3,2,0,-8
1523054620976815,1,0,-4,-2,-1,-5,-15,1
1523054620976815,8,-1,4,1,-2,-9,-6,1
1523054620998372,-8,-2,-1,0,-3,3,0,-1
1523054620998372,-8,0,-6,-1,0,-2,3,3
1523054620998874,1,7,-3,-7,-1,3,5,10
1523054620998874,0,2,10,6,0,0,-4,-1
1523054621021433,2,0,4,3,0,-4,-5,-1
1523054621021433,0,-4,-10,-4,-4,-1,1,0
1523054621022436,-1,0,2,1,2,-1,2,11
1523054621022436,-7,-2,-3,-3,-3,3,3,-6
1523054621035972,2,-3,2,1,1,-1,-1,2
1523054621035972,-8,5,0,3,0,0,-1,1
1523054621036475,-1,4,3,1,2,1,0,-8
1523054621036475,1,-13,-3,-4,-3,-1,-2,3
1523054621058532,-8,6,1,-1,-5,-3,-1,0
1523054621058532,2,-7,-6,-2,-4,-5,-10,-5
1523054621059034,0,1,2,-2,5,3,5,-3
1523054621059034,-1,0,-2,2,4,2,0,0
1523054621081593,3,2,-2,-4,-6,-4,-5,-2
1523054621081593,-1,0,-1,-3,-3,-2,-2,4
1523054621082095,1,0,-7,-1,-3,-2,2,-1
1523054621082095,-3,0,20,5,-1,-1,-1,2
1523054621095632,3,1,-8,-10,-2,0,3,-2
1523054621095632,-3,-2,-4,3,5,2,4,0
1523054621096635,-1,-2,1,0,-5,-3,-3,-6
1523054621096635,0,-1,-3,-2,1,-2,-2,-2
1523054621118192,2,2,8,11,6,1,-3,-2
1523054621118192,1,-10,-16,-8,-5,-4,-3,-5
1523054621119194,3,6,6,1,0,2,4,1
1523054621119194,-3,5,-3,-2,3,-1,0,0
1523054621141755,0,-5,0,5,-1,-4,-3,2
1523054621141755,3,-4,1,-4,0,-1,1,15
1523054621142256,-1,-2,-9,-1,-2,-1,8,-5
1523054621142256,-6,2,6,-6,-6,-5,-20,-2
1523054621155792,2,-2,-2,2,-2,-1,-2,1
1523054621155792,2,4,4,5,4,3,1,-2
1523054621156794,2,-1,-3,-11,-3,-2,-1,11
1523054621156794,-3,8,-3,0,0,2,6,-2
1523054621177849,-3,-6,-8,-5,-3,-2,-2,1
1523054621177849,4,-4,0,1,-2,-2,-1,-8
1523054621186875,-3,4,2,1,-1,0,-7,-11
1523054621186875,-4,-4,-9,-7,-3,-2,3,-2
1523054621201413,5,0,0,-1,-3,0,-4,1
1523054621201413,-7,-3,-6,-1,3,0,8,-2
1523054621202918,0,-5,9,6,-2,-2,-5,-1
1523054621202918,-3,-2,-10,-3,-2,-1,0,-8
1523054621223972,-1,1,13,7,1,2,5,23
1523054621223972,-4,-1,-9,-11,-3,-2,-3,-4
1523054621225477,1,-2,2,3,0,0,-3,-3
1523054621225477,10,3,-7,-8,-3,-4,-1,2
1523054621237509,-7,4,3,4,2,3,-1,2
1523054621237509,-6,7,1,-1,-4,-3,-2,-6
1523054621246533,4,-8,-2,-2,-3,-1,-1,0
1523054621246533,-12,-2,0,1,-1,2,4,6
1523054621261572,13,-2,-3,-1,2,0,-9,-18
1523054621261572,-31,-5,6,-2,-1,-3,-13,27
1523054621263077,-26,-6,-5,-4,-5,-6,8,6
1523054621263077,-7,0,7,7,4,0,-2,-22
1523054621284194,-20,-9,-10,-7,-4,-11,-4,5
1523054621284194,38,-2,1,4,-2,4,4,-9
1523054621285637,-4,6,2,-1,0,3,-6,13
1523054621285637,-13,-8,-2,-2,-3,-4,-3,-7
1523054621306694,4,0,-7,-1,2,3,9,3
1523054621306694,-17,-4,-4,-5,-6,-8,-17,-12
1523054621308196,-13,-1,9,2,3,2,6,10
1523054621308196,31,7,3,2,0,1,8,-13
1523054621321734,-2,-5,-6,-6,-5,-2,-10,-20
1523054621321734,-3,20,3,3,2,3,14,24
1523054621323238,-6,0,-1,-3,-1,-2,-10,-20
1523054621323238,-4,-7,-6,0,-1,-1,-4,10
1523054621343793,7,1,0,-2,2,1,4,13
1523054621343793,-8,-7,-1,2,1,1,1,-26
1523054621345797,3,-1,21,1,-4,-4,-2,0
1523054621345797,-2,0,-77,-5,-1,-1,3,5
1523054621366390,-9,-6,15,1,2,-2,-2,-14
1523054621366390,-1,-4,0,1,-2,1,-3,-12
1523054621368356,7,-1,-5,-5,0,-2,-7,-6
1523054621368356,-2,-6,13,2,-2,0,2,-10
1523054621381391,-18,1,-1,4,3,3,-3,-6
1523054621381391,3,-5,-1,2,2,-2,-1,2
1523054621382895,9,-4,-12,-5,-5,-2,-1,-4
1523054621382895,-4,4,12,1,2,0,-3,5
1523054621403953,-3,-1,-8,-2,-1,0,-1,-2
1523054621403953,3,2,17,2,-1,3,7,8
1523054621405456,5,-7,-15,1,1,-2,-1,-5
1523054621405456,-1,3,6,-8,-7,-6,-8,4
1523054621426514,3,2,-4,-6,-11,-5,2,-2
1523054621426514,5,-11,3,11,5,-1,7,-2
1523054621428016,8,3,-21,-9,3,1,2,-2
1523054621428016,-7,-1,27,13,2,2,4,8
1523054621441050,7,4,6,-1,-5,-4,-1,-5
1523054621441050,1,-8,-18,-12,-6,-1,-4,-3
1523054621447568,-1,-13,-12,8,-3,-6,-4,-2
1523054621447568,4,3,11,0,5,2,-2,3
1523054621464113,0,-5,-2,-1,-2,-2,2,0
1523054621464113,0,1,-5,4,0,-1,0,3
1523054621465616,4,-2,14,0,0,0,-1,7
1523054621465616,-3,-4,-16,-16,-11,-5,-6,-3
1523054621486672,1,-4,-3,1,-3,-2,11,4
1523054621486672,-6,2,-8,-12,4,0,-13,-5
1523054621488179,7,3,-4,5,6,2,-13,10
1523054621488179,3,1,8,1,-3,-3,6,2
1523054621500710,7,0,-6,-6,-2,0,2,0
1523054621500710,-14,1,2,-2,-2,-1,4,-1
1523054621507727,0,5,7,5,0,0,12,2
1523054621507727,-1,-7,-5,-5,-2,-3,-5,-5
1523054621523771,-9,-2,-7,2,1,0,1,12
1523054621523771,1,18,9,-2,2,1,0,4
1523054621525777,-10,2,4,1,-5,-1,-4,-7
1523054621525777,1,1,0,2,5,3,3,1
1523054621546331,1,0,-10,-2,2,-2,-3,0
1523054621546331,2,-3,10,2,-3,-3,-6,-7
1523054621548335,0,4,1,-6,-2,-2,0,-2
1523054621548335,-1,-2,1,-3,-3,-4,0,1
1523054621560870,2,2,-5,8,10,4,-4,-8
1523054621560870,4,-2,1,-2,-4,-1,-1,-2
1523054621567889,0,1,-5,-4,-2,-2,3,-5
1523054621567889,-2,-9,-7,-4,-5,-3,-8,2
1523054621583930,-1,2,15,1,-3,-2,0,-9
1523054621583930,7,-6,-10,3,2,-2,-5,2
1523054621585436,-5,-1,-4,-6,-6,0,2,-5
1523054621585436,3,3,13,6,1,-1,-7,0
1523054621606490,-4,-9,-29,-18,-5,-2,-1,-1
1523054621606490,6,6,6,0,0,1,4,2
1523054621607994,1,3,8,5,-3,-1,11,3
1523054621607994,-7,4,6,3,7,-1,-17,-1
1523054621621030,5,-5,-1,-5,-1,1,-9,-2
1523054621621030,2,-5,-2,3,-5,-3,2,0
1523054621627547,-3,-1,-16,-4,-2,-1,-5,-6
1523054621627547,-3,2,4,-5,-3,1,4,-1
1523054621644090,-3,3,13,9,2,-4,-2,-1
1523054621644090,13,-11,-19,-13,-3,-1,-5,-7
1523054621645596,-1,9,11,8,9,6,2,0
1523054621645596,-4,-3,-7,4,-3,-3,2,-1
1523054621666652,-1,-3,-2,-7,-4,-2,1,0
1523054621666652,1,-7,2,4,-6,-7,-6,-1
1523054621668156,3,-4,-6,-4,2,0,-2,5
1523054621668156,-2,-2,-3,-5,0,0,8,2
1523054621680689,-5,8,0,-2,-2,-2,-3,-4
1523054621680689,-7,-5,-1,1,-2,0,0,2
1523054621687707,0,-3,-5,-10,-2,-3,-4,-2
1523054621687707,3,-1,-3,9,1,0,1,3
1523054621704250,1,-3,26,8,1,-2,1,-7
1523054621704250,-11,-3,-24,-20,-6,-2,-5,-4
1523054621705756,4,-2,-3,-2,-1,-3,1,0
1523054621705756,-1,-7,-3,-4,-1,-1,0,-1
1523054621726310,-8,10,2,0,-2,1,-4,-20
1523054621726310,11,4,6,3,2,1,3,11
1523054621728316,-1,-2,1,0,0,0,-4,-4
1523054621728316,-22,-3,-2,-5,-2,-1,-2,-32
1523054621740849,26,-22,-8,-1,1,1,-2,54
1523054621740849,13,7,2,-2,-3,-2,0,16
1523054621747868,5,3,-1,1,-3,-2,2,0
1523054621747868,8,-4,1,2,1,0,-3,8
1523054621763910,-2,-9,-7,-3,-2,-2,-2,-9
1523054621763910,-1,4,0,0,1,0,3,31
1523054621765415,-1,-4,2,3,1,-1,-5,-14
1523054621765415,2,1,-1,-1,-1,3,6,17
1523054621787472,-2,-4,-4,-2,-1,-1,0,-22
1523054621787472,10,-1,2,2,0,-2,-2,-4
1523054621788976,-18,-4,2,2,-2,0,1,13
1523054621788976,0,15,1,1,2,1,0,-11
1523054621800006,-9,7,0,1,0,0,-11,-22
1523054621800006,9,7,2,3,1,0,2,-13
1523054621809029,-7,-15,-5,-5,-3,-1,1,0
1523054621809029,-5,-7,-3,-3,-3,-2,-1,-8
1523054621824069,1,1,-4,-4,-2,-1,0,14
1523054621824069,-19,-2,2,1,2,-5,-18,-25
1523054621825631,5,-4,-3,-2,-2,-3,8,0
1523054621825631,7,-3,-2,1,3,1,-2,12
1523054621846630,-3,14,5,1,0,-1,-3,-22
1523054621846630,-13,-10,-1,-6,-9,-2,1,-1
1523054621848134,16,7,2,5,1,-3,-7,11
1523054621848134,-10,2,2,3,6,1,2,-12
1523054621860166,-2,1,-1,1,5,-2,2,9
1523054621860166,-4,-4,-3,-1,-3,0,3,-8
1523054621869190,-2,-5,-2,-5,-2,-2,-2,3
1523054621869190,5,18,-3,-3,-8,-6,0,11
1523054621884230,-6,-19,-3,-2,-5,-1,-3,4
1523054621884230,-3,5,1,2,3,1,5,1
1523054621885734,-3,-11,-5,4,8,4,-2,-9
1523054621885734,-3,-4,-3,-4,-2,-3,-3,2
1523054621906789,3,4,2,4,-5,-4,1,0
1523054621906789,-16,-14,-14,-4,0,0,3,-4
1523054621908293,2,8,-1,-12,-5,-3,-3,-9
1523054621908293,1,6,8,10,2,-2,-2,0
1523054621920325,-1,-1,-9,-7,-3,2,5,7
1523054621920325,6,4,15,1,-4,-3,-5,-7
1523054621929349,-12,-14,-4,3,2,4,4,-8
1523054621929349,1,-6,-10,-20,-9,-4,-16,1
1523054621943888,0,-3,-7,5,-3,-4,2,-2
1523054621943888,0,3,-10,0,4,1,2,5
1523054621945894,-4,1,15,0,-6,-1,-1,-1
1523054621945894,-1,-6,7,3,3,-1,1,-2
1523054621966505,6,8,-3,1,-3,-2,-1,0
1523054621966505,-5,-5,-3,-3,2,2,4,-2
1523054621967953,-4,1,-3,-1,-5,-3,-5,-2
1523054621967953,16,-3,4,8,4,2,3,27
1523054621980041,2,-3,-7,-12,-2,-2,1,14
1523054621980041,-1,3,3,2,2,1,4,-1
1523054621989008,-3,1,-2,-3,-4,-4,-5,-6
1523054621989008,0,-2,-1,1,-3,0,3,1
1523054622004049,-3,-2,-6,-8,-1,-2,-4,-3
1523054622004049,-2,-2,11,11,-2,-2,-2,-3
1523054622005554,4,1,-10,-17,-3,-3,-3,7
1523054622005554,-11,-4,-11,4,0,1,3,-10
1523054622026608,-3,0,12,3,1,0,0,-3
1523054622026608,-1,3,3,-4,-3,-1,-1,-5
1523054622028112,-1,2,1,3,4,1,0,-1
1523054622028112,-3,-7,-2,0,-5,-3,0,-6
1523054622040201,-4,1,1,-2,6,1,-1,-4
1523054622040201,-4,-7,-18,-11,-2,-1,2,4
1523054622049170,-1,3,7,0,-7,-5,-1,-4
1523054622049170,-2,-1,0,2,-1,-3,-9,-7
1523054622064210,3,-4,-7,-2,2,1,4,2
1523054622064210,-5,-2,-1,7,4,-1,-1,-3
1523054622065714,-3,2,-5,-2,-2,-1,8,1
1523054622065714,-2,-4,4,-1,0,-2,-4,-9
1523054622086769,-5,0,-3,-1,-6,-3,0,-4
1523054622086769,0,-2,3,-3,-3,-3,2,0
1523054622088274,3,8,1,4,-1,-1,-6,-2
1523054622088274,-6,-3,-21,-19,-6,0,3,-2
1523054622100362,0,0,5,2,3,-1,-2,-2
1523054622100362,1,-3,-9,-6,-1,-1,0,-1
1523054622109389,4,-3,-6,10,2,-1,-8,-2
1523054622109389,-2,-1,4,0,1,0,3,-1
1523054622123867,-3,-1,-1,3,4,3,0,-1
1523054622123867,4,1,7,7,-7,-5,-3,0
1523054622125872,-12,13,-4,-13,3,0,-2,-5
1523054622125872,0,-6,-14,-4,-1,-3,-2,-4
1523054622146429,-4,-3,-4,-1,-7,-2,-6,-2
1523054622146429,1,2,14,7,2,2,-1,-4
1523054622147931,7,-3,-3,0,-1,0,0,9
1523054622147931,-2,-4,5,-8,-12,-4,-2,-1
1523054622159964,-6,5,13,3,-1,-2,1,-2
1523054622159964,2,-2,-13,1,10,4,-2,-15
1523054622168987,0,-3,-3,-2,-1,1,0,24
1523054622168987,-1,6,4,1,1,1,2,-1
1523054622184028,2,-5,4,6,-8,-2,-4,2
1523054622184028,2,1,-4,-15,-4,0,2,9
1523054622185533,-5,-19,-3,-1,0,-3,-13,-23
1523054622185533,3,6,9,4,-1,0,2,2
1523054622206588,-11,2,3,-2,2,-1,0,-5
1523054622206588,16,-11,-9,-7,-1,-1,-9,14
1523054622208093,-28,9,6,6,3,3,0,-52
1523054622208093,4,-23,0,2,2,5,20,44
1523054622229149,-5,3,-3,-4,-1,-5,-8,-5
1523054622229149,-17,-7,-1,2,-1,-1,11,-18
1523054622230651,2,5,-2,-2,-4,14,11,10
1523054622230651,0,0,4,2,3,2,-3,-33
1523054622244188,-2,-5,-8,-4,2,3,-10,-2
1523054622244188,6,-1,-2,-3,-8,-7,2,10
1523054622245693,0,-8,3,3,3,-4,-14,-18
1523054622245693,-15,22,2,-2,0,-1,-14,14
1523054622266747,10,-7,-3,-3,-1,-4,-4,2
1523054622266747,-6,3,1,-7,-7,10,20,-7
1523054622268251,-3,0,0,4,1,-3,-8,-17
1523054622268251,1,-7,-5,-1,1,-4,-13,-18
1523054622288807,7,-6,-5,-2,-4,-1,-1,5
1523054622288807,-4,10,7,3,6,0,-10,-2
1523054622290813,-1,-12,-1,-6,-6,-5,17,32
1523054622290813,16,6,1,-1,-4,-4,3,-5
1523054622303847,-11,-11,2,1,-2,0,2,2
1523054622303847,-1,7,16,-6,-7,-4,-2,-11
1523054622305853,6,-1,2,5,5,0,3,19
1523054622305853,0,-20,-2,0,0,-3,-8,-5
1523054622326406,-6,31,-1,-5,-5,-6,6,-17
1523054622326406,-1,-2,7,-2,-4,-5,-15,5
1523054622327911,1,0,0,1,1,-4,0,-3
1523054622327911,2,3,-6,-2,-2,1,7,7
1523054622348967,3,-2,7,1,3,3,2,6
1523054622348967,-9,-7,-9,0,-4,-2,-1,2
1523054622350472,6,7,0,0,-4,-2,-1,4
1523054622350472,-4,2,-6,-8,5,3,2,-7
1523054622363506,-3,-10,-2,9,-2,-2,0,2
1523054622363506,0,3,-6,3,6,-2,-8,-3
1523054622370022,0,-4,-4,-5,-9,-3,0,-1
1523054622370022,0,-2,4,-8,-7,-5,-7,2
1523054622386619,0,2,-15,-6,12,2,5,-7
1523054622386619,-3,-17,-7,18,-1,-1,-7,3
1523054622388072,-3,2,10,-12,-2,-1,0,3
1523054622388072,-4,1,1,0,-13,-3,11,0
1523054622409187,0,-2,-1,1,3,0,-6,1
1523054622409187,4,7,-3,-1,3,0,0,-3
1523054622410630,-1,-3,-5,-3,-4,-3,-8,4
1523054622410630,-2,-1,-1,6,1,-1,-2,-5
1523054622423163,4,-2,-6,-1,0,2,6,1
1523054622423163,-11,-2,11,-4,-3,-3,2,5
1523054622430184,5,1,-2,3,0,-2,-3,-4
1523054622430184,-3,-1,4,4,4,2,-2,0
1523054622446727,2,-6,-3,-5,-6,-3,-1,-1
1523054622446727,-3,10,-1,-3,-9,-1,3,0
1523054622448231,0,-6,-4,-5,0,-3,-2,1
1523054622448231,-6,0,-2,5,3,1,-1,-2
1523054622469286,1,10,6,-1,-3,0,-1,-1
1523054622469286,0,-14,-6,-5,0,-1,-5,-3
1523054622470792,0,1,-6,1,-4,-5,3,1
1523054622470792,0,-5,5,6,2,2,-3,-2
1523054622483324,-5,11,-5,-22,-6,1,-2,0
1523054622483324,7,3,2,1,-3,-3,1,1
1523054622490380,-1,4,7,5,4,0,-1,-1
1523054622490380,0,-2,5,-15,-13,-6,-3,-1
1523054622506384,-5,-10,-19,5,12,1,0,-2
1523054622506384,3,3,-3,-8,3,5,1,2
1523054622508390,0,-3,-3,4,-1,0,0,-1
1523054622508390,-1,3,-12,-7,-3,-2,-2,-1
1523054622528946,-2,-3,25,10,-14,-6,-1,-3
1523054622528946,-2,-1,-10,-9,2,-1,-2,-2
1523054622530450,-1,-9,-3,2,13,5,5,0
1523054622530450,-3,-1,-7,-3,-5,-3,-11,-2
1523054622543484,0,-4,-5,-4,-4,-1,1,1
1523054622543484,-1,-7,3,-1,0,-2,-1,-2
1523054622550002,0,7,1,-3,-5,-2,2,1
1523054622550002,3,-22,-10,2,4,-1,-6,-3
1523054622567047,1,1,9,9,2,0,-2,1
1523054622567047,-1,-2,-10,-7,-2,-4,-1,0
1523054622572562,3,0,-8,4,3,4,-1,1
1523054622572562,1,2,14,0,0,1,1,-3
1523054622589105,-1,-1,2,-7,-7,-1,-1,0
1523054622589105,-3,-2,-3,-1,-7,-1,0,-1
1523054622590609,3,3,-2,3,-1,-3,5,-1
1523054622590609,-1,-19,-1,-2,-1,0,-6,-1
1523054622603142,1,0,-14,-3,4,1,3,0
1523054622603142,-2,3,9,-1,-7,-3,-3,-12
1523054622610160,-4,-10,-16,-11,-1,-2,-7,-21
1523054622610160,3,10,10,11,4,3,8,4
1523054622626706,0,-2,6,6,-2,-4,-6,2
1523054622626706,-5,-8,-28,-22,0,-1,3,-9
1523054622628209,6,0,1,-3,-6,-4,-9,14
1523054622628209,1,9,-11,-1,2,0,3,0
1523054622649266,-1,-6,13,11,-6,0,1,-2
1523054622649266,2,3,5,10,8,1,-1,6
1523054622650771,-3,-6,-1,-4,0,0,-2,8
1523054622650771,-1,3,-1,0,1,3,5,-7
1523054622663315,-2,2,-5,-3,0,0,0,2
1523054622663315,-8,0,12,6,-3,-4,-2,1
1523054622670335,1,-1,-3,-8,-8,-2,-2,0
1523054622670335,-6,3,-1,-5,0,-1,1,-1
1523054622686376,9,-3,-3,-2,-2,-1,-2,-3
1523054622686376,1,-4,-1,3,-1,-2,2,3
1523054622688381,-6,-5,4,6,0,0,-5,-10
1523054622688381,2,1,-12,-18,-5,-2,1,1
1523054622708937,-3,-1,4,17,4,-1,-2,-12
1523054622708937,-6,3,-2,-3,2,-1,-5,6
1523054622710440,0,0,0,1,-4,-3,-3,7
1523054622710440,9,3,0,2,5,1,4,8
1523054622722471,-1,-4,-2,-9,-3,6,6,7
1523054622722471,4,-4,-2,3,-2,-4,-6,-4
1523054622731496,-6,12,2,0,-1,-3,1,-10
1523054622731496,-5,-22,-3,0,-4,-3,-6,-7
1523054622746536,5,14,-1,-5,2,1,-1,21
1523054622746536,-1,-2,0,3,0,-6,-19,-19
1523054622748040,-14,-1,-1,-4,-1,-7,2,-15
1523054622748040,1,-4,-2,1,1,-2,-14,-10
1523054622769097,-14,-9,-4,-6,-6,-5,-2,-5
1523054622769097,3,-3,-3,0,0,1,-2,20
1523054622770602,1,-3,2,-1,-4,-4,7,8
1523054622770602,-2,5,0,3,0,4,7,5
1523054622782687,-11,-4,0,-3,-1,-9,-23,-24
1523054622782687,14,8,17,3,2,-2,-8,13
1523054622791657,-25,-7,-41,-3,3,34,67,-10
1523054622791657,11,11,27,6,0,-7,0,13
1523054622806754,14,-6,-5,-7,-5,0,-2,6
1523054622806754,12,-3,-9,-1,-2,-2,5,-1
1523054622808258,3,-2,10,-1,-1,-5,-22,-6
1523054622808258,6,11,-7,1,-1,3,11,1
1523054622828755,-3,-8,-9,1,6,0,13,15
1523054622828755,-7,8,11,0,0,1,4,-4
1523054622830818,-5,-4,2,-5,-5,-8,-19,-26
1523054622830818,-2,1,-9,-7,-7,-6,-8,1
1523054622842794,-2,0,6,-1,2,-4,-11,-3
1523054622842794,-4,-5,-14,0,4,6,6,-7
1523054622851870,14,8,10,-1,-5,-7,-8,20
1523054622851870,-6,-6,-4,3,2,1,-1,-1
1523054622866355,0,6,-1,-4,-2,4,7,-8
1523054622866355,-10,-13,-8,-5,-2,-1,2,-7
1523054622868362,8,2,7,5,4,1,-4,5
1523054622868362,-18,0,1,-2,1,-1,-6,-5
1523054622888916,1,6,1,-2,-1,-2,3,-3
1523054622888916,-2,-7,-4,-3,-5,-5,-13,-4
1523054622890420,-1,-6,7,-4,-9,-7,-12,0
1523054622890420,2,4,4,20,11,5,2,-9
1523054622902451,-2,-15,-2,-4,9,4,8,7
1523054622902451,-1,7,0,-27,-10,0,9,0
1523054622911476,3,4,5,24,6,0,2,2
1523054622911476,-6,-5,2,-4,-9,-5,-13,-6
1523054622926572,-2,-1,0,-1,-1,-1,3,-4
1523054622926572,0,1,2,5,5,2,0,-2
1523054622928020,-1,-6,-4,-15,-7,-4,2,4
1523054622928020,2,2,-3,-3,-7,-7,1,1
1523054622949075,-3,-1,-15,0,2,0,-7,-6
1523054622949075,-2,1,16,10,-6,-1,1,-3
1523054622950580,6,4,-6,-2,8,2,-3,4
1523054622950580,-3,-3,-4,0,4,-1,1,-1
1523054622962612,-7,-4,-5,-10,-9,-2,1,-4
1523054622962612,-8,-6,-2,9,0,-1,-1,-3
1523054622971635,6,-6,4,0,-5,-1,-4,-3
1523054622971635,-1,7,0,-4,0,1,-1,12
1523054622986675,0,2,-1,3,1,0,3,-2
1523054622986675,-5,8,-3,0,-2,0,-1,-4
1523054622988180,-1,-5,-5,-2,1,-1,-4,2
1523054622988180,0,-7,-4,-10,0,0,0,-3
1523054623009234,-1,-2,-4,4,-5,-2,-3,0
1523054623009234,-2,1,1,2,0,-2,-3,2
1523054623010739,-4,-1,-7,-6,-1,-1,-3,-3
1523054623010739,-4,-5,7,4,-2,-1,0,-4
1523054623022828,-1,-3,-2,-6,-1,-3,-5,-1
1523054623022828,5,15,7,9,5,2,0,-3
1523054623031796,-5,-14,-9,-10,-2,0,1,-2
1523054623031796,0,-3,-2,-4,-2,1,0,-2
1523054623046334,-1,3,3,-1,-3,-3,-4,-3
1523054623046334,1,1,-1,-2,-1,0,1,0
1523054623048339,0,4,5,4,9,2,-3,3
1523054623048339,3,-8,-7,-1,-1,-3,-2,-1
1523054623068895,1,0,0,-4,-3,-1,-2,-1
1523054623068895,1,-7,-10,-5,-5,-2,0,-1
1523054623070399,-3,1,-11,0,0,-3,-1,1
1523054623070399,3,0,21,1,1,0,7,5
1523054623082429,-2,2,-1,3,0,0,2,-8
1523054623082429,-8,-9,-4,-2,0,-6,-29,-10
1523054623091454,5,-1,2,-3,-5,-2,1,1
1523054623091454,0,1,-10,-6,-7,-4,4,-1
1523054623106495,-9,2,2,3,3,3,7,5
1523054623106495,9,-3,-1,0,2,0,-9,-3
1523054623107999,-4,-1,0,-3,-3,-1,-2,-3
1523054623107999,1,-2,-6,1,2,0,-2,0
1523054623129054,0,4,4,-4,-13,-5,-1,1
1523054623129054,-9,-10,-8,1,5,5,12,-13
1523054623130558,3,7,8,3,4,0,-8,4
1523054623130558,-3,-2,-6,-2,0,0,0,-5
1523054623151615,-3,-1,-2,-1,0,-2,-8,-4
1523054623151615,-7,5,-1,-6,-8,-3,3,-2
1523054623153119,4,-5,-7,-2,-8,-4,-3,-2
1523054623153119,-6,0,8,1,3,-1,0,1
1523054623166653,1,1,-4,0,4,0,-3,-2
1523054623166653,6,4,0,0,0,2,4,7
1523054623168159,-3,-3,2,-2,0,0,1,-1
1523054623168159,-10,1,-8,-6,-6,-3,-5,-7
1523054623189214,3,-3,0,2,1,-1,-2,-2
1523054623189214,2,-6,0,-2,1,-1,5,5
1523054623190718,-1,2,-2,-2,-1,-2,-3,-2
1523054623190718,-4,-2,-4,-1,-1,0,-3,-2
1523054623211774,2,-2,5,0,-2,-2,-1,-1
1523054623211774,3,0,-2,-6,-3,0,3,2
1523054623213278,-4,1,1,3,-2,-1,-2,-2
1523054623213278,-2,4,-2,-1,1,-1,0,-4
1523054623226313,2,-13,-3,-1,-1,0,-1,4
1523054623226313,-3,-3,-4,-4,-2,-3,-3,0
1523054623228318,3,2,2,0,-1,-2,-3,-12
1523054623228318,7,-7,-5,-2,-2,-7,-7,19
1523054623248874,7,7,3,1,-2,12,6,3
1523054623248874,4,-2,-1,5,1,-4,7,-3
1523054623250377,2,-6,-1,-1,1,-2,2,-14
1523054623250377,-24,-3,-1,2,-3,2,0,-15
1523054623271432,-2,13,1,-3,-2,-8,-15,-8
1523054623271432,21,-2,-7,-3,-2,3,13,-6
1523054623272937,15,2,0,-2,0,-5,-15,15
1523054623272937,18,-1,-3,1,0,-7,14,12
1523054623286473,-16,-1,4,2,0,1,-4,-4
1523054623286473,-1,-5,-1,1,-2,-4,1,-4
1523054623287978,-6,11,2,-1,-3,-6,-22,8
1523054623287978,-7,-11,-8,-2,-1,5,7,-8
1523054623309032,-2,20,21,-1,0,-4,-4,-3
1523054623309032,-3,-9,-45,-7,-2,0,-6,5
1523054623310537,-1,-5,3,1,-1,7,9,18
1523054623310537,-1,1,0,-1,-3,-1,-8,-7
1523054623331592,-2,-10,-13,-4,-4,-3,9,3
1523054623331592,-9,1,13,2,0,-2,-12,-2
1523054623333097,-8,-3,-1,-2,-2,5,21,-11
1523054623333097,-5,3,-5,-3,-4,2,-5,-5
1523054623345630,3,-9,-1,1,4,-3,-12,-10
1523054623345630,-2,1,7,2,3,5,7,4
1523054623352649,-1,-4,-7,-4,-8,-4,-4,-4
1523054623352649,-2,-2,5,1,1,-1,-2,-1
1523054623369193,7,-1,-6,-3,-1,0,5,8
1523054623369193,-3,3,7,3,2,-2,-4,2
1523054623370697,-7,1,-5,-4,-3,-2,5,-3
1523054623370697,-2,2,-1,0,5,3,-2,-1
1523054623391753,-6,-7,-13,-7,-8,-4,2,-5
1523054623391753,-3,7,18,13,6,3,2,0
1523054623393257,3,3,7,2,0,-3,-2,-6
1523054623393257,1,-14,-3,-4,-4,-1,-6,0
1523054623405790,-7,-3,-17,-4,-2,1,1,-5
1523054623405790,-2,-6,-4,-7,-1,-3,4,2
1523054623412843,-3,-2,-1,7,3,0,-1,1
1523054623412843,7,12,9,-6,-6,-2,1,2
1523054623427906,-3,-9,1,7,7,1,0,2
1523054623427906,-6,8,-5,-11,-5,3,0,-3
1523054623436875,-3,-3,6,6,1,-1,1,-2
1523054623436875,-1,0,-10,-2,-2,1,-4,-5
1523054623451412,2,-7,2,0,-8,-6,-4,-3
1523054623451412,0,-3,1,3,9,2,-1,1
1523054623452916,-2,-2,-1,2,3,5,0,0
1523054623452916,2,3,-3,-13,-1,-5,-2,0
1523054623466007,3,0,-3,4,-5,-4,-2,4
1523054623466007,-1,-3,-10,-7,-11,-6,-4,-3
1523054623472467,-2,-1,7,6,7,1,0,-2
1523054623472467,-3,2,9,1,-2,0,0,-3
1523054623489066,-1,2,-5,-5,0,2,2,4
1523054623489066,-3,-8,-2,-1,-1,-3,-3,-1
1523054623490516,-3,0,-1,-1,-6,-2,1,-1
1523054623490516,1,-3,-4,4,1,1,-1,0
1523054623511572,-1,-3,-2,-7,-1,1,-1,-2
1523054623511572,1,-1,9,1,-4,-1,-2,0
1523054623513077,-3,-3,-9,-6,3,1,2,-2
1523054623513077,2,2,2,8,1,-1,-1,-1
1523054623526110,-7,-1,-2,-8,-2,1,1,-3
1523054623526110,0,-2,-1,3,-6,-3,-1,-1
1523054623532627,1,-3,-4,-5,-5,-6,-3,-1
1523054623532627,-1,-5,1,1,-1,0,2,0
1523054623549173,0,1,2,-1,0,-2,-8,-5
1523054623549173,-4,-2,-1,-1,-4,-2,-1,0
1523054623550677,0,-1,-4,-2,2,3,2,0
1523054623550677,0,1,1,0,-2,-1,0,0
1523054623571733,-2,0,-2,-2,-8,-4,1,-2
1523054623571733,0,-5,0,6,10,0,-2,-2
1523054623573236,2,1,-3,1,0,0,1,3
1523054623573236,-2,5,-5,-8,-2,-2,1,1
1523054623585770,4,1,4,8,3,1,4,0
1523054623585770,-1,-1,6,0,-3,1,0,0
1523054623592789,-12,-2,0,-7,-5,-2,2,-6
1523054623592789,0,0,-4,3,-8,-6,-12,-2
1523054623608830,0,-8,-15,-9,15,2,2,-3
1523054623608830,1,6,18,1,-4,-2,-2,0
1523054623610837,2,2,-5,-8,-3,-2,-5,-4
1523054623610837,-4,-4,-1,0,-4,-2,0,-1
1523054623631392,1,3,-3,-4,-7,-3,-3,2
1523054623631392,-3,-2,-8,-3,-2,-1,1,2
1523054623633397,5,-2,-10,-10,3,0,-1,-1
1523054623633397,-1,5,8,0,0,-1,1,-4
1523054623645430,1,-3,0,3,0,-3,-2,1
1523054623645430,2,-5,-11,-5,-1,0,-1,0
1523054623653952,3,2,10,1,-2,0,-3,1
1523054623653952,-6,-6,-5,3,1,1,1,-2
1523054623668990,3,7,-3,-9,3,3,8,6
1523054623668990,-5,-4,-5,0,-8,-6,-16,-6
1523054623670495,0,1,1,3,-2,-2,-1,-2
1523054623670495,3,-23,-10,0,3,2,-4,0
1523054623691552,-3,18,11,3,-2,0,5,6
1523054623691552,7,-3,-4,0,0,0,4,1
1523054623693056,-3,0,-2,-4,1,-1,-6,-1
1523054623693056,1,-10,-2,-1,0,-3,-1,-3
1523054623705144,-17,-2,4,0,-3,-2,-3,-12
1523054623705144,-2,8,1,-2,0,0,2,6
1523054623714112,-8,-5,0,0,-3,1,8,12
1523054623714112,-3,8,1,-3,1,-1,-4,-20
1523054623729152,-15,-12,3,7,1,2,-5,-22
1523054623729152,-16,48,11,-4,0,-6,-5,1
1523054623730655,9,-6,-5,-2,-2,-3,5,-10
1523054623730655,-11,1,-1,0,-1,5,11,1
1523054623751726,-5,-1,2,2,-1,-4,-8,-3
1523054623751726,-5,-18,-1,-2,-1,0,-3,-5
1523054623753216,4,3,0,3,2,-2,-22,2
1523054623753216,17,13,1,-2,1,-2,4,11
1523054623765304,5,-10,-3,-1,-4,-12,-10,4
1523054623765304,3,-14,-6,-5,-3,5,6,-15
1523054623774327,1,14,5,1,-2,-7,-6,10
1523054623774327,12,0,-1,1,4,4,-10,21
1523054623788866,-14,-6,-2,-6,-5,4,14,-44
1523054623788866,8,-5,-3,-1,-2,-3,-29,8
1523054623790851,1,17,1,2,1,-10,22,21
1523054623790851,12,-13,-3,-3,-5,-2,-9,-2
1523054623811370,0,14,11,2,-2,2,-3,-6
1523054623811370,-24,-24,-9,-12,-9,-6,3,23
1523054623812873,-5,-23,6,0,0,-5,-7,-7
1523054623812873,-5,15,6,1,2,11,16,-13
1523054623825407,15,-1,-5,2,2,-9,-2,50
1523054623825407,6,-8,0,-2,0,8,8,-20
1523054623833930,0,-10,-7,-2,-5,6,24,-3
1523054623833930,-5,9,-2,-5,-2,-8,-5,4
1523054623848969,10,-1,10,-1,-1,4,-6,-5
1523054623848969,-6,4,1,6,4,2,3,-1
1523054623850474,0,9,-4,-3,-5,1,-8,-6
1523054623850474,1,-8,-1,2,4,-2,-2,5
1523054623871564,9,-3,-8,-3,-1,9,18,10
1523054623871564,10,-4,-5,-5,-6,-6,2,-2
1523054623873036,-7,1,-5,1,1,-1,-8,-8
1523054623873036,-4,-20,1,0,1,-4,3,10
1523054623885066,-3,0,1,0,3,1,-16,2
1523054623885066,4,1,-4,-3,-2,-7,5,-1
1523054623894090,-1,-9,2,3,-1,4,-5,-10
1523054623894090,-10,10,0,-7,-8,-2,-4,-5
1523054623909131,0,-23,-10,0,3,2,8,5
1523054623909131,0,5,1,4,6,7,12,-9
1523054623910636,-1,0,18,-2,-5,-1,-15,-4
1523054623910636,-5,0,-8,-4,-11,-7,-5,-6
1523054623931689,-1,-11,-24,-10,10,-1,-1,0
1523054623931689,5,10,2,-4,-5,-2,8,7
1523054623933194,-5,-8,-16,-1,4,1,-14,-7
1523054623933194,0,7,19,1,-11,-6,-2,-3
1523054623945228,0,5,11,-10,-8,-3,-3,-3
1523054623945228,-4,-13,-9,6,9,3,-2,-2
1523054623954249,-1,0,-10,-5,3,4,7,0
1523054623954249,-3,-2,-3,1,-2,-1,-4,-8
1523054623969289,3,15,5,5,0,-2,-3,1
1523054623969289,2,1,-1,-2,-1,-1,1,-1
1523054623970851,2,-5,0,-1,-6,0,7,3
1523054623970851,-8,-7,-9,0,5,1,-7,-4
1523054623991349,-2,-1,5,5,-5,-6,-2,-5
1523054623991349,-2,2,0,-4,-5,-4,-18,-4
1523054623992853,2,-1,1,-3,-4,-2,3,0
1523054623992853,-2,-1,-5,2,6,3,4,1
1523054624005387,4,3,-3,-12,-8,-2,1,3
1523054624005387,4,-6,0,3,4,1,-3,-1
1523054624013909,-14,-1,2,0,-1,-1,2,-11
1523054624013909,5,5,-11,-7,-2,-3,-2,0
1523054624029506,-2,-3,4,7,9,2,-4,-1
1523054624029506,3,-5,-7,6,-2,-3,2,12
1523054624034965,3,4,6,-8,0,1,2,2
1523054624034965,-4,-4,-1,0,-4,-4,-12,-5
1523054624051508,-2,-4,-3,8,0,-1,-3,-2
1523054624051508,0,10,1,-17,-2,-2,1,1
1523054624053013,-2,-7,-6,9,4,3,0,-3
1523054624053013,-4,0,0,-2,-1,0,2,-1
1523054624074070,1,-5,-7,3,-8,-3,-4,-3
1523054624074070,-1,-1,14,4,2,0,0,-3
1523054624075574,-2,2,-12,-1,0,-1,-2,-1
1523054624075574,4,-1,6,-4,-1,1,4,10
1523054624089108,-4,-2,-1,2,-2,0,-4,-3
1523054624089108,-1,-10,-5,-4,-4,-5,-17,-6
1523054624090612,-1,28,6,-8,-7,-6,3,-1
1523054624090612,-6,-7,-5,2,5,1,4,-1
1523054624111669,-4,-1,0,0,-1,1,1,2
1523054624111669,-1,-5,-5,2,1,1,14,4
1523054624113173,2,-11,-6,-4,0,-1,1,-4
1523054624113173,-1,-1,-1,1,-1,-4,-26,-11
1523054624134228,-1,-1,3,0,1,-1,8,1
1523054624134228,-1,-1,0,11,6,3,-1,-4
1523054624135770,0,-6,-2,-21,-12,-5,6,5
1523054624135770,-5,3,-7,-2,1,2,7,-16
1523054624148767,4,-10,-7,-7,-6,-5,-8,15
1523054624148767,-3,0,5,4,-1,-4,2,-3
1523054624150774,-3,-7,-6,5,-2,2,-3,3
1523054624150774,3,-1,3,2,10,1,-1,1
1523054624171327,-15,-6,1,-3,-3,-2,0,-17
1523054624171327,0,0,-4,-5,-7,-1,1,1
1523054624173332,2,6,7,-1,3,1,-3,-1
1523054624173332,4,2,2,3,-1,-1,1,2
1523054624193888,3,10,4,0,2,1,4,4
1523054624193888,-10,-5,-11,-6,-1,1,-5,-10
1523054624195393,3,-6,4,1,-3,-4,-6,-7
1523054624195393,-4,-4,3,7,6,2,7,2
1523054624208981,-2,18,-13,3,0,-2,-3,-1
1523054624208981,10,-13,4,-9,-1,-1,1,-4
1523054624210933,9,-1,-12,0,0,0,2,-9
1523054624210933,0,8,13,-1,-6,-5,8,26
1523054624231542,4,-1,-3,4,1,3,-1,0
1523054624231542,-8,-8,2,3,0,0,-1,-4
1523054624232993,-13,-2,4,6,5,8,-6,11
1523054624232993,10,-6,-6,-1,-4,-17,-12,-14
1523054624254049,-25,-13,-7,-11,-5,8,27,3
1523054624254049,-17,16,8,2,-2,3,-3,-16
1523054624255553,2,-34,-7,-1,3,-3,-16,-2
1523054624255553,-5,7,0,-1,-3,-7,-11,-47
1523054624269089,-9,-13,-2,-7,-4,-11,-25,24
1523054624269089,-26,-10,-1,-1,0,12,48,2
1523054624275160,-10,32,5,0,-4,3,1,-13
1523054624275160,-4,19,2,-2,1,0,-13,-2
1523054624291705,-18,0,4,4,4,-12,-28,-3
1523054624291705,32,13,1,0,0,18,29,52
1523054624293152,0,-19,-9,-5,-5,-19,-5,3
1523054624293152,-22,12,0,2,4,42,50,9
1523054624314209,25,4,2,-2,-6,-10,-24,-2
1523054624314209,-7,4,0,-2,-3,-18,-24,-36
1523054624315714,-11,-1,2,1,-1,-2,-14,-42
1523054624315714,33,-5,-17,-6,-5,-7,-21,24
1523054624328246,-7,-28,12,4,3,8,43,-4
1523054624328246,1,-18,-7,-2,1,-22,-21,-31
1523054624335297,-3,1,0,2,2,8,3,-1
1523054624335297,-12,-2,-3,-4,-6,-11,-4,10
1523054624351340,36,-2,-6,-2,-2,-13,-21,-55
1523054624351340,6,-2,-2,-1,0,0,-9,28
1523054624353314,9,7,5,1,-1,2,5,11
1523054624353314,-16,-8,-1,-5,-2,-2,4,-3
1523054624373921,-1,-1,-2,-3,-1,5,12,17
1523054624373921,5,3,0,3,0,1,-2,5
1523054624375871,5,8,2,6,10,8,33,16
1523054624375871,-3,-15,-5,-5,-7,-10,-43,-26
1523054624387903,-7,7,3,2,3,-2,-19,-8
1523054624387903,-4,1,-3,-9,-3,-4,-1,-4
1523054624396426,5,-2,2,0,0,-3,3,14
1523054624396426,8,-11,-7,1,-1,2,25,12
1523054624411468,-3,12,-6,-1,-13,-3,2,-1
1523054624411468,-2,8,10,-17,-3,1,-7,-1
1523054624412972,3,8,6,7,0,-4,-2,10
1523054624412972,-2,-24,-4,14,12,3,9,8
1523054624434027,-4,10,9,-10,-17,1,5,-3
1523054624434027,-2,-3,-23,-1,19,2,-17,-6
1523054624435531,-1,3,16,8,-3,0,2,-3
1523054624435531,5,4,-2,-25,-10,1,28,22
1523054624447596,3,1,-7,2,-6,-5,27,-4
1523054624447596,-5,-1,4,5,-3,-11,-94,-27
1523054624456586,-1,0,-1,6,-2,-5,4,-1
1523054624456586,-10,-10,-11,-5,3,1,-1,-3
1523054624471627,3,9,9,9,10,9,25,20
1523054624471627,4,2,-7,-9,-11,2,20,6
1523054624473132,-5,-5,8,1,5,-1,-15,-7
1523054624473132,1,2,-3,-2,-6,-4,-2,0
1523054624494186,-2,-3,-1,-3,2,3,0,-2
1523054624494186,-2,-3,-5,2,-1,-4,11,-2
1523054624495691,-3,-9,-11,-11,-4,-3,-9,-3
1523054624495691,-1,6,7,2,-1,-2,3,0
1523054624507778,-2,-3,0,0,3,-1,-17,-5
1523054624507778,-1,2,0,8,-2,-2,9,5
1523054624516748,2,-8,-4,-9,-5,-3,5,4
1523054624516748,0,5,2,-3,0,0,-12,-12
1523054624531286,0,-3,-7,5,8,1,-12,-4
1523054624531286,0,0,3,4,-7,-1,15,5
1523054624533346,-3,-2,-2,-7,5,5,3,-1
1523054624533346,-2,2,2,3,5,3,-7,-7
1523054624553845,-4,-13,-6,-4,-8,-4,-6,1
1523054624553845,5,8,6,0,4,2,16,5
1523054624555852,-1,-2,-4,-2,-6,-7,-9,-3
1523054624555852,0,0,0,1,1,-2,-6,-2
1523054624568383,2,2,-3,7,7,3,2,0
1523054624568383,-2,-7,13,1,-8,-3,3,0
1523054624575402,-3,-1,-10,-1,-2,-4,-6,-2
1523054624575402,1,2,12,0,0,1,3,3
1523054624591445,-1,1,-7,-10,3,-1,-7,-3
1523054624591445,-2,-3,4,6,2,0,-2,-3
1523054624592951,-1,-2,-19,-16,-5,-1,2,4
1523054624592951,0,2,0,3,-3,-4,1,0
1523054624614005,0,13,4,0,1,1,3,4
1523054624614005,-4,-6,1,3,-4,-3,10,-4
1523054624615510,4,-3,2,7,2,1,-1,-5
1523054624615510,-4,-18,-10,-1,-1,-3,-18,-8
1523054624627542,-8,15,3,-6,-1,-2,-4,-5
1523054624627542,2,-3,-5,2,-2,-1,4,8
1523054624636565,0,6,1,1,-4,2,8,-1
1523054624636565,5,-10,-10,-6,-3,-2,-4,-4
1523054624651605,-2,-7,9,5,1,1,-2,-1
1523054624651605,-3,-2,-14,-12,0,1,-3,-6
1523054624653109,-2,-1,-3,0,-3,-5,-4,-2
1523054624653109,3,7,3,4,-3,-5,-1,2
1523054624674165,2,-11,0,-6,0,0,-1,0
1523054624674165,5,8,2,3,0,1,2,12
1523054624675669,-1,0,0,5,3,3,-6,-13
1523054624675669,-2,3,0,-5,-4,-5,1,0
1523054624687701,-1,-3,-17,-1,-3,-2,1,-2
1523054624687701,0,0,23,14,4,-3,-4,-3
1523054624696725,-1,1,-5,-20,-5,-2,1,-9
1523054624696725,0,4,-1,4,3,1,3,4
1523054624711266,2,-10,-6,-4,-2,0,-2,0
1523054624711266,-5,-4,1,-4,-4,-3,-12,-1
1523054624713269,-15,5,-5,3,1,-1,0,-4
1523054624713269,-2,17,7,3,-3,-1,3,-1
1523054624733825,-8,1,-2,-3,-1,-2,-5,-7
1523054624733825,14,-7,-9,-5,-1,-2,0,-5
1523054624735877,-3,-1,2,1,-1,-2,-9,7
1523054624735877,-16,20,5,4,2,1,-1,13
1523054624747861,-31,-13,-4,-6,-6,3,10,-5
1523054624747861,-5,0,-8,-4,-3,-8,5,5
1523054624756885,-2,21,8,6,1,1,-4,-10
1523054624756885,-13,-12,0,1,3,-1,-20,-13
1523054624771425,25,7,2,1,-1,0,5,-20
1523054624771425,-8,11,-1,-5,-4,-14,-32,-7
1523054624772928,18,-11,-1,-3,-3,8,29,53
1523054624772928,-16,2,2,-1,1,-11,-33,-17
1523054624793985,6,11,8,5,4,14,30,6
1523054624793985,-7,-7,-8,-8,-2,1,-8,-56
1523054624795489,16,16,9,10,6,-13,-4,36
1523054624795489,45,1,3,-5,-6,21,38,-45
1523054624807521,-21,-34,-5,-4,-4,-18,-32,1
1523054624807521,-17,37,1,-7,-8,-3,50,-6
1523054624816546,-2,-36,1,3,-2,9,-67,-89
1523054624816546,19,-5,-40,-13,-6,-11,-27,82
1523054624831618,-1,28,21,3,3,11,36,-14
1523054624831618,16,-20,-5,-4,-2,-7,-21,10
1523054624833089,-6,-19,-18,-3,-3,-1,7,27
1523054624833089,-37,-27,-5,-7,-6,-6,-7,-26
1523054624854182,-4,7,1,-2,-2,1,-14,-12
1523054624854182,0,-4,-6,3,4,5,-13,22
1523054624855686,4,0,7,0,1,1,22,12
1523054624855686,3,-5,7,3,0,2,18,7
1523054624867737,16,-1,-7,-2,-3,-9,-1,16
1523054624867737,-4,-10,1,1,1,7,18,1
1523054624876743,-5,-8,-5,0,-1,-6,-1,-12
1523054624876743,-10,-2,1,-2,-3,-1,6,-11
1523054624891743,4,-3,-2,-1,-4,-5,-23,1
1523054624891743,2,-2,-5,0,0,0,-11,2
1523054624893249,-7,8,-1,-3,-7,-1,12,-7
1523054624893249,1,3,5,9,4,-3,5,4
1523054624913839,4,2,-12,-1,3,1,-10,14
1523054624913839,-1,-4,21,4,-3,2,11,8
1523054624915818,0,5,-1,-3,6,3,5,-1
1523054624915818,2,-1,8,-1,-5,-2,7,-6
1523054624927877,0,-5,-7,-14,0,-6,2,3
1523054624927877,-1,-2,-7,21,12,6,8,0
1523054624936866,-2,-4,-11,-3,-4,-5,-15,-3
1523054624936866,-1,2,19,11,-1,-8,-26,-15
1523054624951457,-2,-3,-3,-19,-4,5,1,6
1523054624951457,1,3,-3,-1,-3,5,-7,4
1523054624953408,-6,-16,-2,-8,5,-1,17,5
1523054624953408,4,3,-3,-4,-2,-1,-25,2
1523054624974020,0,-4,-6,5,-5,-6,-2,-1
1523054624974020,-1,-5,5,2,2,0,6,1
1523054624975468,-2,-3,-8,-5,-6,0,-3,-2
1523054624975468,1,15,3,-1,4,5,19,4
1523054624987499,-2,-3,-1,13,5,-2,-6,-3
1523054624987499,0,1,-8,-12,-14,-9,-7,-1
1523054624996525,-5,3,7,11,5,4,-7,-6
1523054624996525,-4,-7,-1,-1,3,-2,-5,-1
1523054625011062,6,2,-3,-8,-2,2,12,12
1523054625011062,-1,-4,-5,1,-1,-1,12,-8
1523054625017633,-3,2,0,-4,-12,-8,-15,-10
1523054625017633,0,-1,-4,-4,-2,-4,2,0
1523054625034122,-1,-6,0,11,5,2,1,2
1523054625034122,-2,-1,-3,-9,-3,9,2,2
1523054625035627,2,1,-1,-1,1,0,-2,2
1523054625035627,2,0,-3,-1,0,1,7,-2
1523054625056683,-4,-3,4,5,-2,-4,-6,-4
1523054625056683,-1,-5,-11,-10,-2,-5,-8,3
1523054625058189,-4,4,21,4,-3,0,5,1
1523054625058189,0,-2,-16,-1,3,1,4,0
1523054625071724,-1,1,2,1,0,-1,2,-2
1523054625071724,-5,-5,-1,-6,-1,-2,-21,-6
1523054625073229,1,-1,-7,4,-3,-3,1,0
1523054625073229,-1,-4,2,-11,-10,-3,2,-2
1523054625094285,-1,-2,6,8,3,2,-7,-3
1523054625094285,1,1,-1,-3,1,-1,3,0
1523054625095789,-1,-1,5,3,0,-2,1,-2
1523054625095789,0,2,-3,-1,3,1,1,0
1523054625116399,-3,-5,-1,-2,-1,0,-4,-7
1523054625116399,1,3,4,2,-1,0,1,2
1523054625118364,-1,-2,-11,-10,-5,-3,7,4
1523054625118364,4,-1,9,7,-3,-2,0,-1
1523054625130915,-11,-3,-3,-3,-1,-5,-15,-10
1523054625130915,-1,-6,0,2,0,-1,2,-1
1523054625137899,-6,21,-1,-5,-1,2,-2,2
1523054625137899,-3,-4,-9,-2,-1,-1,5,1
1523054625153941,1,1,7,-1,-5,-3,-3,2
1523054625153941,0,-4,-9,1,5,1,3,-2
1523054625155446,2,-10,-3,1,0,0,0,1
1523054625155446,-6,4,6,-1,-3,-1,-1,-2
1523054625176502,-1,0,-14,-6,-1,-1,-4,1
1523054625176502,4,9,14,3,-5,-2,2,3
1523054625178007,3,-7,-10,-5,2,0,-1,-1
1523054625178007,2,-4,-7,0,4,3,6,0
1523054625190092,7,-1,7,1,-3,-6,-14,2
1523054625190092,-23,-6,12,7,1,0,0,-10
1523054625199062,3,-1,-17,-17,-6,-6,-1,-1
1523054625199062,0,-9,-4,3,-3,0,-3,0
1523054625214102,-6,18,6,-1,-1,1,4,-3
1523054625214102,7,1,-1,5,8,4,2,1
1523054625215608,-10,-9,3,7,-1,-2,-6,9
1523054625215608,9,0,0,-7,-1,0,8,1
1523054625236662,-11,19,3,5,2,1,-2,-2
1523054625236662,4,-1,-3,-8,-4,-3,-8,-17
1523054625238167,6,-1,-4,4,-1,-2,-3,-16
1523054625238167,4,-15,-9,-5,-3,-2,3,9
1523054625250756,5,-12,1,-3,-3,-2,2,5
1523054625250756,-7,9,0,0,0,1,5,1
1523054625257772,-2,4,-20,-3,1,1,-6,-6
1523054625257772,6,-2,17,0,-3,-4,-4,12
1523054625274263,-37,16,27,4,-1,4,7,-34
1523054625274263,17,-12,-12,-1,-1,0,0,16
1523054625275767,12,-9,7,1,-1,-1,2,-4
1523054625275767,7,2,-10,-4,-2,0,0,10
1523054625296321,-49,2,-10,-3,-2,-1,-29,-68
1523054625296321,-1,12,6,-3,-1,7,20,-10
1523054625298328,-13,-5,9,6,2,-5,0,17
1523054625298328,-11,0,0,3,5,1,-28,-22
1523054625310896,26,-22,-11,-3,-5,-4,4,10
1523054625310896,21,-49,-19,-8,-8,7,1,-4
1523054625317879,18,24,20,3,2,4,-1,20
1523054625317879,2,0,3,5,6,14,12,37
1523054625333974,8,-17,-19,-15,-11,-24,-6,13
1523054625333974,48,-9,4,-2,-1,-11,-21,-15
1523054625335426,-4,-7,-6,-6,-3,36,21,53
1523054625335426,2,39,6,3,-2,-43,-25,58
1523054625356482,-26,-11,-1,0,1,21,30,-32
1523054625356482,34,-9,-17,-8,-11,-25,-19,55
1523054625357986,-35,-1,2,0,2,0,-10,-38
1523054625357986,19,45,15,7,4,-10,-20,10
1523054625370070,10,-51,-18,-3,0,-12,-7,-20
1523054625370070,-37,25,29,-2,-3,5,23,-18
1523054625379042,-1,-9,-17,5,3,-4,-11,-16
1523054625379042,0,-13,-4,-2,-4,26,31,0
1523054625394081,5,0,-2,-2,-1,-9,4,34
1523054625394081,-17,5,12,5,3,10,-9,-15
1523054625395586,6,7,7,-2,-4,-16,-17,-7
1523054625395586,-20,-10,-7,-4,-4,5,21,-25
1523054625416642,11,6,3,3,0,4,-4,22
1523054625416642,-10,5,-11,-1,3,0,0,4
1523054625418146,-2,-8,4,-3,-1,2,17,8
1523054625418146,-8,-28,-17,-10,-12,-13,-3,-32
1523054625430178,7,8,4,3,4,5,-9,-6
1523054625430178,-18,0,-7,-1,0,-5,-16,-4
1523054625439201,8,1,1,-4,-1,-9,6,-10
1523054625439201,-4,-5,6,-3,-3,7,6,-16
1523054625453238,16,3,-7,0,-2,1,7,26
1523054625453238,-13,9,14,12,2,3,14,3
1523054625460258,-4,-9,-12,-22,-6,-6,6,-11
1523054625460258,-3,-10,-1,4,-10,-3,-9,-17
1523054625476301,0,-1,-6,-6,14,8,6,15
1523054625476301,-4,0,-21,-6,8,1,4,-3
1523054625477803,-1,-6,-8,-7,-7,-5,-15,-13
1523054625477803,-8,-10,9,-12,-15,-8,-31,-14
1523054625490338,11,8,8,15,1,-2,12,12
1523054625490338,-6,6,6,11,7,5,16,4
1523054625499363,-4,0,8,0,-6,-8,-25,-4
1523054625499363,-3,-5,-14,-4,5,0,10,-13
1523054625515404,2,0,4,-2,-1,-2,-25,-2
1523054625515404,-2,-5,-12,-1,4,4,10,5
1523054625516909,1,3,11,2,-2,3,19,9
1523054625516909,-4,-2,1,4,-2,-5,-1,-7
1523054625536459,3,1,-1,-3,-6,-3,-15,-9
1523054625536459,-4,-1,2,-10,-7,-3,-4,7
1523054625537963,0,-5,-8,0,-3,-6,-4,-12
1523054625537963,-2,-1,1,3,12,6,20,7
1523054625549997,2,9,2,2,-1,1,20,-2
1523054625549997,-10,-6,-11,-11,-10,-9,-24,20
1523054625559022,-2,3,3,6,0,-1,0,-2
1523054625559022,-2,0,-2,-2,3,2,5,0
1523054625574059,0,2,-4,-2,-3,0,-1,2
1523054625574059,-2,-4,1,-1,-4,-1,-2,-10
1523054625575564,4,1,16,17,-13,-3,4,-1
1523054625575564,-5,-7,-8,9,24,2,-7,-6
1523054625596674,-5,-7,-16,-8,11,1,-2,7
1523054625596674,1,5,0,-2,-8,-4,-2,-8
1523054625598124,5,-5,-9,-14,4,0,0,-3
1523054625598124,-9,-3,5,-2,-22,-11,-6,-5
1523054625610157,4,7,10,21,-4,5,2,6
1523054625610157,6,4,7,6,11,1,2,-6
1523054625619179,-4,0,-8,-8,-5,-3,-1,-11
1523054625619179,5,3,1,6,1,2,13,8
1523054625634221,-13,-5,-5,-34,-23,-8,-14,-5
1523054625634221,-4,1,-5,2,2,-1,-13,-9
1523054625635781,10,-3,-3,12,5,1,3,-21
1523054625635781,3,35,-7,-15,1,2,3,0
1523054625656313,8,0,-5,-2,1,0,12,33
1523054625656313,-12,-6,16,6,-3,-3,-12,-24
1523054625658319,-6,-3,-4,-3,3,-3,-13,14
1523054625658319,5,-2,-4,0,4,7,8,-1
1523054625670317,2,-10,-4,-1,-5,0,7,3
1523054625670317,-8,6,-7,3,1,1,4,8
1523054625679340,8,4,9,1,4,-2,6,3
1523054625679340,-4,-14,-5,-9,-6,-1,-6,-5
1523054625693879,2,5,2,8,0,-3,-3,0
1523054625693879,0,-13,1,-10,-8,-3,-1,-1
1523054625695383,-3,16,-3,-2,5,4,1,-2
1523054625695383,5,-6,7,7,6,2,-9,-1
1523054625716494,-5,-2,-11,-2,-1,-2,2,-7
1523054625716494,-7,1,-5,-7,-5,0,-11,-18
1523054625717944,3,1,-8,1,-5,-4,-1,2
1523054625717944,-2,-2,18,8,-1,0,-12,-3
1523054625730031,-8,0,-2,-6,1,-4,13,-4
1523054625730031,-4,-3,2,0,3,2,-5,-5
1523054625745015,-4,-18,-2,0,-2,1,1,2
1523054625745015,3,0,-8,-3,-5,-4,-13,-7
1523054625754038,-5,11,12,4,-2,-2,-3,-10
1523054625754038,-7,2,-7,-4,0,0,11,4
1523054625755543,-3,-5,0,-7,-1,0,1,9
1523054625755543,-1,-4,-2,-1,6,-5,-33,-4
1523054625776598,-6,23,9,3,2,3,-1,-3
1523054625776598,0,-25,-8,-5,-4,-6,0,2
1523054625778103,1,12,10,4,1,5,10,9
1523054625778103,-6,-10,-6,-4,-2,0,12,-1
1523054625790168,4,-8,-20,-13,-2,-2,-7,1
1523054625790168,5,7,15,8,-1,-5,2,2
1523054625799160,-6,-1,-5,-3,8,1,-3,-40
1523054625799160,3,7,10,6,-2,-2,1,20
1523054625814200,24,-3,-2,0,3,2,0,31
1523054625814200,-8,7,4,-1,-3,0,2,-32
1523054625815705,-6,-10,-4,0,-6,-4,-7,-5
1523054625815705,3,-12,-16,-8,2,0,3,-8
1523054625836758,-11,3,8,4,-2,-4,-16,-26
1523054625836758,8,-10,-3,-3,-4,-6,22,40
1523054625838320,-9,-2,9,4,1,5,-3,-30
1523054625838320,-1,-13,-16,-4,-5,-14,-29,-23
1523054625850294,1,-12,2,-2,-1,16,-6,26
1523054625850294,4,36,-4,-4,-6,-14,3,3
1523054625859319,19,-35,-10,-4,0,4,2,67
1523054625859319,-11,7,-3,-5,-2,20,-59,-49
1523054625873857,25,10,7,4,-2,-26,40,9
1523054625873857,-10,-11,-4,0,4,-5,-51,-89
1523054625875863,12,32,5,-1,0,6,1,61
1523054625875863,0,-35,-9,-7,-7,-32,20,70
1523054625896417,28,-27,1,3,0,8,1,32
1523054625896417,-6,3,-12,-10,-4,-26,13,28
1523054625897922,-22,27,31,7,-6,-13,11,-28
1523054625897922,-23,20,-59,1,9,35,15,-61
1523054625920483,-3,-26,9,-1,-4,-19,-14,69
1523054625920483,-2,90,17,8,7,7,13,52
1523054625921987,-28,-57,3,5,7,19,-9,-51
1523054625921987,-28,66,53,7,1,-7,12,7
1523054625933536,3,-24,-74,-7,-2,11,3,-47
1523054625933536,8,-9,-13,-4,-2,17,-11,-6
1523054625940034,-5,14,-1,-3,-2,-15,-2,10
1523054625940034,2,-15,7,3,0,7,39,25
1523054625956635,-7,12,11,2,5,1,26,4
1523054625956635,-9,-23,7,-5,-5,0,-18,-19
1523054625958083,3,4,-13,2,-3,-16,-30,-39
1523054625958083,9,-28,6,7,6,-5,6,7
1523054625970219,-10,15,8,-9,-8,3,-11,-23
1523054625970219,18,-25,-14,2,0,2,50,27
1523054625979188,0,-20,-14,-5,2,6,2,0
1523054625979188,11,15,7,-7,-12,-7,-10,3
1523054625993226,-13,7,29,5,5,2,-3,-13
1523054625993226,1,-10,-7,-17,-9,8,-3,0
1523054626000297,5,3,-8,-10,-8,-10,4,12
1523054626000297,0,-8,1,4,9,6,9,2
1523054626017290,-13,-1,-8,3,-12,-7,-13,-20
1523054626017290,5,-17,3,-11,-3,-3,-10,-3
1523054626018793,4,17,-3,4,-5,-2,-1,4
1523054626018793,3,-31,4,12,-6,-3,3,4
1523054626038847,-3,9,3,-22,9,3,6,-15
1523054626038847,-6,-7,-8,8,0,-1,-36,-7
1523054626040351,2,7,7,1,2,8,15,23
1523054626040351,10,3,1,0,5,5,35,8
1523054626053386,-19,-2,4,7,-5,-3,-44,-48
1523054626053386,5,-11,3,1,-2,-8,-1,4
1523054626060405,-6,0,-15,-6,-7,1,1,-1
1523054626060405,17,-2,14,-3,-7,-9,17,-2
1523054626076481,15,10,-2,11,16,-3,-3,23
1523054626076481,-11,-3,5,-4,0,1,-3,-11
1523054626077952,-3,-9,-3,-1,-6,4,7,-1
1523054626077952,-12,-6,-12,-11,-8,-8,-8,-43
1523054626099061,2,7,7,0,-4,2,5,-4
1523054626099061,6,-16,-2,-4,-1,4,2,12
1523054626100511,-10,-11,-7,2,0,-3,-4,-10
1523054626100511,6,9,1,-4,-2,2,-10,16
1523054626113544,-18,-6,4,2,-1,-2,-1,3
1523054626113544,2,-2,-3,8,3,0,4,7
1523054626120095,5,2,-2,-4,0,-2,-1,-2
1523054626120095,2,2,-2,-6,-2,-2,-11,5
1523054626136607,-7,-14,-4,1,-4,1,1,-12
1523054626136607,-1,3,-3,0,2,3,2,-3
1523054626138112,4,3,4,-5,2,-3,2,-10
1523054626138112,2,-20,-18,0,1,-3,-11,-9
1523054626159167,12,8,6,-4,-4,-2,17,30
1523054626159167,-2,-5,0,9,0,-1,1,-6
1523054626160670,-1,-3,-6,-5,0,-4,-30,-3
1523054626160670,-4,-5,-4,3,2,2,4,5
1523054626173204,-4,0,-1,-2,-4,-1,-2,-7
1523054626173204,3,-12,0,-3,-4,2,12,9
1523054626180256,4,19,7,11,8,3,7,4
1523054626180256,-6,0,-2,-8,-8,-6,-5,3
1523054626196266,-7,-8,-5,-3,-1,-1,-16,-9
1523054626196266,-1,5,0,3,2,1,0,-4
1523054626198272,0,-1,6,1,3,-1,-1,4
1523054626198272,-1,1,-9,-1,1,4,2,6
1523054626218826,-2,0,16,-1,-7,-3,1,-2
1523054626218826,-1,-2,-9,-7,-8,-7,-6,-5
1523054626220832,-2,-3,-1,4,-2,0,-1,1
1523054626220832,1,5,10,0,4,2,-1,3
1523054626233363,1,17,-7,-4,1,0,5,-2
1523054626233363,-6,-14,0,-3,-2,-2,-15,-10
1523054626240382,3,-1,-3,-6,-7,-5,11,-12
1523054626240382,-8,-1,1,0,-3,-4,-9,1
1523054626256427,2,-1,2,7,0,2,0,-2
1523054626256427,6,6,-3,-6,0,-1,3,0
1523054626257930,-29,-5,1,-1,-2,-2,4,11
1523054626257930,-2,-4,-2,2,0,0,-8,-4
1523054626278517,-3,2,2,2,3,1,2,-17
1523054626278517,-1,5,-10,-7,1,3,26,14
1523054626278987,9,-11,8,0,-3,-8,-51,-17
1523054626278987,-2,2,-4,-4,-2,-4,7,4
1523054626292524,-5,-5,0,6,-4,-1,-8,-1
1523054626292524,5,4,4,5,6,3,3,-1
1523054626301083,4,4,-2,-10,-2,0,10,26
1523054626301083,-21,-1,4,2,2,0,-9,-14
1523054626315636,12,-14,-8,-4,-3,-7,-12,-17
1523054626315636,13,2,-3,1,-3,-4,-10,0
1523054626316644,-2,4,-1,-3,-3,0,6,-5
1523054626316644,8,15,7,0,-1,0,-3,2
1523054626338142,-5,3,-14,-8,-4,-10,-27,-6
1523054626338142,-13,-5,-2,-4,-5,17,56,16
1523054626339146,4,-2,2,11,6,0,-17,-19
1523054626339146,27,2,-3,-1,-1,4,34,64
1523054626352681,24,11,-3,0,-1,-7,-11,7
1523054626352681,3,-1,12,7,3,-6,-48,-29
1523054626360736,-72,4,-8,-17,-12,29,48,12
1523054626360736,1,-13,-5,-3,-6,-20,-7,25
1523054626375742,-24,-24,-10,-15,-10,-2,-3,62
1523054626375742,-22,30,6,7,5,-4,33,19
1523054626376748,54,4,16,9,6,-7,-41,-45
1523054626376748,-4,-1,-11,-7,3,35,86,67
1523054626398304,23,18,3,-5,-8,-23,38,36
1523054626398304,-3,13,24,13,5,41,24,-17
1523054626399307,16,-40,-29,-3,-2,-13,-15,-31
1523054626399307,-16,7,27,-1,1,7,-13,-20
1523054626421418,2,2,-21,5,7,6,-10,-20
1523054626421418,-12,-11,3,-3,-3,-10,-2,19
1523054626422422,17,18,13,1,4,8,-2,9
1523054626422422,5,7,6,-1,-3,-12,-20,-31
1523054626435957,-25,-20,-15,-3,3,11,10,-29
1523054626435957,11,-4,-8,-5,-3,-14,-53,-23
1523054626436405,-21,3,9,-3,-5,-4,22,38
1523054626436405,-7,-11,-18,5,-1,-13,-24,-28
1523054626458464,-11,10,11,3,10,7,12,5
1523054626458464,2,-25,5,-7,-7,-2,-10,6
1523054626458965,-1,-6,-8,7,-1,-16,-11,-4
1523054626458965,-5,-9,-16,-22,-7,-5,-17,-9
1523054626481866,7,7,29,13,-7,8,1,-11
1523054626481866,4,-4,-15,-22,10,-6,5,7
1523054626482126,5,-2,-12,8,-12,-2,12,16
1523054626482126,-1,5,4,-6,-4,-4,-20,-23
1523054626496258,-14,-6,7,26,3,-1,-7,-11
1523054626496258,-1,-9,-20,-27,-11,-9,-10,-3
1523054626496659,-2,5,2,-5,2,-6,4,11
1523054626496659,-3,-2,6,1,-1,7,-11,-6
1523054626518716,1,-13,1,0,-2,-4,-6,-13
1523054626518716,0,15,0,12,-2,-5,-2,-10
1523054626525736,2,-6,-5,-12,3,0,-4,-2
1523054626525736,4,7,10,11,-3,-9,-7,-8
1523054626541782,0,-9,-13,-13,5,4,-5,-4
1523054626541782,2,-4,-5,6,1,-6,-10,-7
1523054626542282,-7,1,6,0,-2,0,3,-3
1523054626542282,-2,-4,-9,-5,-2,-3,4,-4
1523054626556214,5,10,12,0,-7,-2,-8,-6
1523054626556214,1,-5,-2,8,12,1,-4,2
1523054626556819,-1,-4,-7,3,0,-5,-1,-2
1523054626556819,8,-2,1,0,-1,3,7,7
1523054626578411,-10,-5,-13,-25,-3,-1,-2,1
1523054626578411,-1,0,2,12,-8,-4,-1,1
1523054626579378,2,11,7,5,10,1,3,5
1523054626579378,-2,-7,-8,5,-1,-2,-5,-17
1523054626601470,0,-4,4,5,2,0,-2,1
1523054626601470,-1,2,-8,-10,-7,-4,-1,12
1523054626602476,-1,3,-4,-8,0,-2,0,-12
1523054626602476,-1,2,5,9,-1,-1,-9,-4
1523054626616011,-2,-2,6,-7,5,3,10,0
1523054626616011,-4,0,-2,3,-1,0,-17,4
1523054626616477,0,1,-1,-1,2,1,-7,5
1523054626616477,1,-10,-8,-7,-6,-1,-4,-2
1523054626638535,-4,15,1,4,-5,-1,4,-3
1523054626638535,-4,-13,3,6,2,-1,-3,-8
1523054626639038,-1,-22,-4,-4,-2,3,1,4
1523054626639038,-4,-12,0,3,0,0,-5,3
1523054626652572,-6,9,-5,1,0,0,2,4
1523054626652572,1,3,-3,1,0,-1,-6,-6
1523054626660635,-1,-23,-6,-9,-6,-5,0,4
1523054626660635,-11,28,2,2,7,4,6,-15
1523054626675634,-15,-13,9,1,-2,-3,-10,8
1523054626675634,-3,3,-11,-10,-5,-6,-5,-5
1523054626676638,-1,3,0,4,-1,-1,-11,-2
1523054626676638,2,-4,-1,3,1,-3,-11,-11
1523054626698193,8,-1,-4,-8,-1,0,5,2
1523054626698193,-5,13,4,2,-3,-1,7,-2
1523054626699198,-7,3,3,3,3,1,2,1
1523054626699198,2,16,-5,-11,-2,0,5,14
1523054626712734,1,-2,-6,4,1,-1,-1,-12
1523054626712734,1,-8,3,-5,-5,-2,4,3
1523054626720755,4,7,0,3,1,2,1,-3
1523054626720755,3,-4,1,-1,0,1,-1,6
1523054626735851,-1,-7,-3,-1,-1,0,2,-4
1523054626735851,1,4,1,-2,-2,0,0,-2
1523054626736834,3,3,-3,-2,-2,-4,-2,11
1523054626736834,-15,-10,-2,0,-1,-2,-1,12
1523054626758354,8,-3,-1,0,1,1,2,10
1523054626758354,-10,-2,3,4,3,-10,-32,-29
1523054626758856,10,-2,-8,-8,-8,2,24,19
1523054626758856,6,-33,-14,-14,-9,-14,42,44
1523054626772393,12,5,0,0,-5,-4,-30,-79
1523054626772393,-34,29,6,8,9,6,-19,6
1523054626780950,-29,-11,4,-2,-2,-9,-44,-55
1523054626780950,13,21,7,5,0,21,71,22
1523054626795953,1,-3,-4,-4,-6,-11,-4,29
1523054626795953,6,-30,-11,0,0,16,-40,-10
1523054626796457,-4,35,6,1,3,16,35,-18
1523054626796457,22,-21,6,9,5,-14,-27,-45
1523054626818513,-15,-6,-7,0,2,-4,26,80
1523054626818513,15,12,17,1,-4,-11,-20,30
1523054626819016,-2,7,-8,-4,-2,15,24,62
1523054626819016,13,10,12,-1,1,11,-44,8
1523054626832605,5,13,1,3,2,-4,3,25
1523054626832605,-11,-26,-3,-1,-1,-7,15,-15
1523054626840626,1,-13,-4,-1,0,-2,-7,-65
1523054626840626,-16,14,3,4,3,4,-1,13
1523054626855674,-5,-19,-1,-3,-1,3,-8,-9
1523054626855674,-4,5,-5,-6,-2,12,35,2
1523054626856617,6,-3,3,2,-2,-7,-19,-5
1523054626856617,-13,2,-3,-1,-3,-4,-4,-12
1523054626878227,-2,9,-4,-2,1,2,-6,-25
1523054626878227,19,-6,-5,-2,-1,-7,11,-4
1523054626879176,1,-15,-4,1,-1,-8,-2,35
1523054626879176,4,19,1,-6,-5,-13,-14,-16
1523054626900734,1,9,-8,-4,-2,4,9,2
1523054626900734,-3,-7,5,1,0,4,30,21
1523054626901737,3,-13,-3,1,0,-1,9,13
1523054626901737,-18,-3,1,4,5,-1,-44,-27
1523054626915809,2,-6,0,-7,-8,-9,-23,-19
1523054626915809,5,3,3,0,-1,2,12,-5
1523054626916814,3,5,-18,-10,2,-6,0,7
1523054626916814,5,-9,14,11,-3,-2,20,4
1523054626938333,-2,5,0,1,7,7,4,-7
1523054626938333,10,-2,-6,1,-9,-12,-5,-3
1523054626939335,-8,5,8,-13,-2,-3,3,1
1523054626939335,-6,-2,-13,-14,-4,-2,-2,0
1523054626960892,0,-8,1,1,2,0,1,1
1523054626960892,-3,-2,-2,-2,3,8,11,1
1523054626961394,3,8,6,5,-6,-8,-9,-8
1523054626961394,-8,-5,-9,-2,-1,-1,-12,-8
1523054626975934,-4,-2,2,-5,-4,0,7,3
1523054626975934,2,-3,-3,-1,1,-6,0,-6
1523054626976436,-1,-2,-2,4,-2,-1,-10,7
1523054626976436,4,-4,0,-1,1,3,3,1
1523054626998586,-1,-2,-7,0,2,3,3,9
1523054626998586,-9,-1,-3,-4,-3,1,2,8
1523054626998995,15,2,3,-1,-3,-3,-10,-7
1523054626998995,-5,-3,-4,0,-4,-2,4,-1
1523054627021054,-3,2,3,6,4,2,-4,-35
1523054627021054,-2,-1,-9,-9,-2,-3,-2,-4
1523054627022285,-1,-3,5,5,-2,-3,0,2
1523054627022285,0,3,-4,-7,4,3,-2,-1
1523054627035824,4,0,-4,-5,-2,-1,2,-3
1523054627035824,1,-3,13,-3,2,-5,-6,-4
1523054627036827,-1,-14,-10,5,-1,-2,2,-1
1523054627036827,-1,11,5,1,-2,-2,-3,-2
1523054627058385,-3,-1,4,-1,-4,-2,-4,3
1523054627058385,-3,-11,-15,-5,-4,2,-1,-5
1523054627059508,2,4,8,1,5,1,-4,1
1523054627059508,-9,-7,-1,2,2,-2,-1,-2
1523054627080945,-9,-3,-8,1,-1,-1,-1,0
1523054627080945,6,4,0,-8,-4,-3,-2,-1
1523054627081445,-2,3,-2,-2,-1,-2,-2,-3
1523054627081445,-2,-10,-7,-4,-2,-1,-5,1
1523054627096210,1,-2,-3,3,1,2,0,-4
1523054627096210,-2,1,16,5,-1,-2,-2,1
1523054627096986,-3,0,-6,0,-3,-3,-2,0
1523054627096986,0,-6,3,4,0,0,2,-1
1523054627118544,4,-4,11,-7,-2,3,3,-2
1523054627118544,-2,-1,3,20,2,-1,0,-4
1523054627119047,1,1,-21,-38,-2,2,2,-1
1523054627119047,-3,-8,10,19,-5,-5,-6,-2
1523054627141662,-6,-17,-19,-7,-2,-1,4,1
1523054627141662,-7,8,-6,-16,-3,-1,-1,-8
1523054627142108,6,-5,-1,12,-3,-2,-8,-2
1523054627142108,-6,2,-10,-7,-2,-1,4,-10
1523054627155698,1,0,11,7,2,-6,-19,1
1523054627155698,0,3,-2,2,-1,-2,0,1
1523054627156699,-5,-3,-5,-1,-2,-3,-6,11
1523054627156699,3,2,-5,-6,-1,2,5,3
1523054627178202,5,0,3,3,-4,-1,0,-3
1523054627178202,1,-4,-14,6,5,1,0,0
1523054627179205,0,5,23,6,-1,-1,-3,-2
1523054627179205,5,11,-3,-7,0,-1,-6,-2
1523054627201265,-3,-7,5,-1,-2,-2,9,11
1523054627201265,-1,-8,-13,-7,-2,-2,-14,-7
1523054627202268,1,12,1,4,1,-2,5,-7
1523054627202268,4,4,-1,-1,0,-1,-2,0
1523054627215836,-8,0,-13,-14,-7,-2,2,-1
1523054627215836,1,-13,-2,9,1,0,14,4
1523054627216806,-12,29,-1,-2,0,-2,-17,-9
1523054627216806,-4,6,4,0,-1,-2,-1,7
1523054627238362,1,4,-4,0,-2,-2,-3,1
1523054627238362,-17,2,12,5,2,1,1,-22
1523054627238864,4,-16,-6,0,1,5,19,21
1523054627238864,-11,-14,-12,-7,-3,-10,-4,-45
1523054627261425,0,0,5,1,0,25,71,-29
1523054627261425,19,0,-2,-6,-3,-6,-29,50
1523054627262426,-11,12,3,4,4,-8,-39,-36
1523054627262426,-19,2,1,2,6,-1,-27,78
1523054627275963,-12,0,-5,-1,-4,20,64,-16
1523054627275963,-9,2,-3,-10,-9,-14,-30,-30
1523054627276464,-1,-14,-2,2,-2,-5,13,24
1523054627276464,11,2,0,-2,0,3,-29,2
1523054627298536,7,0,2,3,2,-2,-26,25
1523054627298536,-15,2,-8,-3,-2,0,18,11
1523054627299025,-7,27,7,4,1,4,-6,-7
1523054627299025,-29,-20,-2,-6,-3,5,22,4
1523054627321082,14,-4,-4,-3,-2,-7,-13,11
1523054627321082,-15,3,1,1,2,3,2,-34
1523054627321585,37,1,1,2,0,0,15,31
1523054627321585,-17,-11,-2,-4,0,12,25,16
1523054627335655,-18,16,5,4,1,-18,18,-28
1523054627335655,13,6,8,-3,-2,-2,-6,39
1523054627336625,-9,-5,-2,-2,-2,3,11,-15
1523054627336625,17,6,-2,1,-2,-11,-19,-23
1523054627358181,7,-13,-1,0,4,1,-28,7
1523054627358181,2,6,1,1,2,1,21,-13
1523054627359184,-3,-7,4,4,0,0,-9,3
1523054627359184,7,-7,-6,-9,-5,-5,-7,-21
1523054627380742,0,2,-4,2,1,-7,-22,-10
1523054627380742,10,-6,-2,6,-2,2,5,-2
1523054627381745,2,-11,-13,-17,-7,0,13,1
1523054627381745,-3,3,13,4,-2,1,-5,-7
1523054627395781,1,3,3,-5,-6,-7,-19,-8
1523054627395781,2,-3,-6,-4,-9,-6,-3,4
1523054627396784,-2,-11,11,23,7,6,17,3
1523054627396784,7,0,-18,-1,12,4,17,-7
1523054627418733,-3,-2,-14,-13,-8,-9,-42,6
1523054627418733,5,2,23,10,4,0,7,-7
1523054627419346,-4,-13,-27,-20,-5,2,-11,-11
1523054627419346,11,5,8,11,-1,-2,29,5
1523054627440902,-2,-2,-4,-1,0,1,-36,5
1523054627440902,6,6,-4,-8,-2,-3,-15,-9
1523054627441404,-5,-10,0,1,-5,-7,5,-4
1523054627441404,7,3,1,-2,-5,-4,-7,-1
1523054627455942,-6,1,-5,5,4,1,8,1
1523054627455942,-5,-19,5,-2,5,4,0,0
1523054627457218,-2,-2,5,6,1,-1,-2,8
1523054627457218,0,-5,-23,-23,-5,-5,1,-13
1523054627478503,5,3,6,4,-6,-5,-13,-5
1523054627478503,-6,-8,-10,3,-2,-1,3,0
1523054627479004,-7,0,5,-2,0,-1,-2,6
1523054627479004,4,-6,-1,1,-4,-4,-7,-5
1523054627501101,4,9,5,3,1,0,8,18
1523054627501101,3,-1,-9,-7,3,4,4,-11
1523054627501563,-4,-1,-6,-3,0,-6,-11,-10
1523054627501563,0,-3,7,0,-5,-2,-2,-2
1523054627515628,1,-1,-1,4,-2,-4,2,0
1523054627515628,0,-4,-7,1,4,4,1,2
1523054627516603,2,10,6,-1,-2,-2,-4,-5
1523054627516603,-2,1,5,6,2,1,-2,-1
1523054627538509,-2,-8,-6,-6,-1,-1,7,0
1523054627538509,4,15,-7,-2,-11,-7,-11,1
1523054627539720,-6,-9,-1,-2,5,-1,-4,-7
1523054627539720,-4,-21,-1,4,5,1,-3,1
1523054627562157,-1,1,5,-3,-5,-1,6,0
1523054627562157,-3,-2,0,2,1,-1,-1,-2
1523054627562157,2,-1,-8,-11,-3,-2,-4,-5
1523054627562157,4,12,10,9,1,0,-2,-4
1523054627575195,-1,-3,-4,-5,1,-1,0,3
1523054627575195,0,-6,-1,-4,-1,1,3,6
1523054627583527,-2,-4,-3,-4,-3,-4,-4,-4
1523054627583527,-3,-11,-22,3,-4,-1,1,2
1523054627598036,7,13,25,3,1,-1,5,-1
1523054627598036,-3,-3,-2,-7,-5,-2,-17,1
1523054627599039,-1,-1,4,5,4,3,-5,-5
1523054627599039,3,7,-2,-5,0,-1,1,-1
1523054627621655,-2,-4,-4,5,-1,-1,0,0
1523054627621655,0,-2,-5,-9,-9,-4,5,-3
1523054627622601,0,-1,3,3,0,0,4,1
1523054627622601,-1,-1,5,2,2,1,-6,-8
1523054627635134,2,-2,-3,-2,2,0,-2,8
1523054627635134,3,4,4,-3,-7,-2,2,1
1523054627643155,-6,-7,-5,-1,-1,-3,2,-4
1523054627643155,3,7,2,-6,-3,-3,1,-1
1523054627658198,-4,-4,-17,1,6,0,-2,-5
1523054627658198,1,6,21,-2,-5,-9,1,-3
1523054627659254,-1,-5,-5,0,0,4,-1,5
1523054627659254,-7,5,0,-5,-5,-4,-5,-15
1523054627681258,1,-8,-2,-3,0,-3,-15,1
1523054627681258,-1,-1,-11,2,4,3,2,-1
1523054627682261,0,3,-3,-8,-2,-3,3,-4
1523054627682261,0,-1,2,-2,-2,0,0,6
1523054627695295,4,-4,-11,-3,-1,3,1,-4
1523054627695295,-9,4,11,5,1,0,0,-3
1523054627703316,3,-2,4,2,0,-1,-7,-12
1523054627703316,11,15,-3,-5,-1,-1,5,17
1523054627718391,-1,-2,3,2,-2,0,3,5
1523054627718391,-2,-6,-7,6,7,2,1,-1
1523054627718859,0,12,0,-3,-1,-2,-2,-3
1523054627718859,-16,-28,6,-4,-3,-4,-4,14
1523054627741417,-5,8,-2,4,3,-11,-6,-14
1523054627741417,-5,10,4,-1,3,19,8,-35
1523054627742422,-16,7,-7,3,-2,-15,21,13
1523054627742422,-3,5,40,5,2,16,7,-8
1523054627754989,12,6,-34,-7,0,-20,-50,9
1523054627754989,2,-9,-9,-4,-3,-9,42,41
1523054627763476,-6,7,2,2,-3,3,-6,7
1523054627763476,20,-5,27,10,5,6,-26,-4
1523054627778516,-36,-17,-55,-10,-6,9,22,-18
1523054627778516,21,18,3,-2,-2,-3,-38,-39
1523054627779018,-3,-27,-8,-5,-3,6,40,14
1523054627779018,6,-2,4,-4,-4,-15,-11,57
1523054627801577,19,5,13,-2,2,20,3,-5
1523054627801577,-21,2,-13,2,1,-17,39,15
1523054627802079,-5,6,22,-1,-3,6,-35,2
1523054627802079,-12,-12,-30,-6,-4,2,26,-22
1523054627815150,17,-2,16,-2,-8,-13,-1,-5
1523054627815150,-5,-3,-10,-2,2,10,-8,1
1523054627823137,11,5,7,2,-1,-4,-17,-8
1523054627823137,-9,0,-13,1,3,1,4,12
1523054627838216,1,7,17,4,-1,6,5,9
1523054627838216,-1,-5,6,0,2,-3,-15,-3
1523054627839214,11,-1,-10,-2,0,4,11,-10
1523054627839214,-19,-3,-14,-4,-4,-8,-18,-13
1523054627861737,-4,-12,7,-1,-6,-5,3,-1
1523054627861737,5,-1,7,2,0,3,-16,9
1523054627862273,7,5,-9,-7,0,-6,-2,-8
1523054627862273,1,-19,-12,1,-1,-2,17,-13
1523054627875274,-13,2,19,3,2,3,11,6
1523054627875274,7,1,4,-4,-14,-3,-3,5
1523054627883296,-1,7,-11,8,8,2,19,5
1523054627883296,-1,-4,3,-6,2,-1,4,-14
1523054627897835,-6,8,4,22,-13,-8,-15,-5
1523054627897835,2,-10,-17,-33,12,-6,-14,1
1523054627905857,-6,-3,10,-7,-22,-6,1,1
1523054627905857,5,10,-14,17,4,0,-3,-5
1523054627920896,-2,-27,-8,-6,3,1,12,4
1523054627920896,4,18,5,28,2,3,-1,4
1523054627921398,-1,-6,21,-17,-2,-1,-4,0
1523054627921398,0,0,-13,-10,-1,-1,-10,-8
1523054627943956,0,5,10,-3,-9,-8,-3,-2
1523054627943956,-2,-7,-3,8,-1,3,9,2
1523054627944961,-1,3,-8,-3,7,-2,-15,-5
1523054627944961,-5,-9,2,5,-6,-1,-1,-1
1523054627958496,2,-11,-4,-6,4,1,1,2
1523054627958496,-1,-9,-4,-10,-5,-2,-6,-1
1523054627958997,-8,-5,-5,7,4,0,-6,-10
1523054627958997,3,6,-6,-6,-6,-4,-7,13
1523054627980555,-1,20,8,0,4,1,9,1
1523054627980555,1,-9,-6,-8,-4,-2,-11,-1
1523054627981592,1,-7,-8,4,-5,-4,-3,-6
1523054627981592,3,9,8,2,0,1,5,-4
1523054628004118,-3,1,0,-9,3,3,-2,-3
1523054628004118,-1,17,7,6,3,2,3,4
1523054628004636,1,-7,-11,-2,-2,-1,-3,5
1523054628004636,-2,5,11,9,-1,-1,-5,-8
1523054628018155,0,-3,-7,-17,11,3,2,2
1523054628018155,-3,-13,-4,-1,-7,-3,2,-2
1523054628019158,2,0,1,4,-1,0,-7,-1
1523054628019158,0,4,-2,-4,1,-4,-3,-4
1523054628040716,-3,-5,3,9,4,1,-3,-4
1523054628040716,-4,3,-6,-10,-6,-2,2,-1
1523054628041720,4,-1,1,4,1,1,3,2
1523054628041720,1,-2,-3,1,3,0,8,-2
1523054628063776,-3,2,-2,-5,-7,-5,-22,-2
1523054628063776,-5,-2,7,1,3,-2,1,-2
1523054628064834,1,0,-9,-6,-7,-3,-11,-1
1523054628064834,1,6,3,-3,-2,-2,-1,0
1523054628078368,-2,-4,4,-6,-2,1,3,-1
1523054628078368,-1,-11,-5,3,-2,-2,-1,-2
1523054628079329,1,-5,-6,-2,-4,0,-1,-1
1523054628079329,-3,6,16,3,6,2,-5,-3
1523054628101376,-8,-4,-2,5,0,-1,2,-1
1523054628101376,4,1,-4,-7,-4,-2,5,-5
1523054628102379,-1,-9,5,8,4,-1,0,3
1523054628102379,2,3,-14,-18,-9,-5,-1,-6
1523054628123936,1,3,3,3,-3,-2,2,1
1523054628123936,-6,-11,1,3,8,4,1,-2
1523054628124939,-3,8,1,1,-2,-1,-6,-2
1523054628124939,0,-6,-7,3,2,0,0,0
1523054628138528,-5,-4,3,0,-1,1,0,-15
1523054628138528,0,2,-7,-8,-6,-2,-3,-2
1523054628139038,3,-7,1,-2,-4,-3,2,4
1523054628139038,2,-1,-1,-2,-3,-1,-4,2
1523054628161535,2,7,-2,0,1,3,8,-1
1523054628161535,8,-18,-7,-3,0,-1,-12,-2
1523054628162537,3,1,0,-2,-2,-2,1,0
1523054628162537,-4,1,-3,-3,-5,-2,-2,-5
1523054628184097,7,-10,2,-2,-2,-2,-1,5
1523054628184097,-35,17,5,8,3,4,4,4
1523054628184598,9,6,1,-2,0,0,-4,-10
1523054628184598,-15,1,-2,-3,-2,0,-2,-2
1523054628198132,-2,-15,-6,1,-1,-1,-7,7
1523054628198132,14,-3,4,2,-2,-5,-9,15
1523054628199172,0,6,-1,-3,1,9,6,-2
1523054628199172,14,-3,-6,-5,-6,-6,3,-7
1523054628221695,-43,11,13,2,1,-8,-10,-32
1523054628221695,8,-7,1,-2,-5,-6,-9,-53
1523054628222197,-3,5,-6,-4,-1,12,-17,49
1523054628222197,3,-11,-9,-3,0,-27,-6,18
1523054628244255,17,15,6,4,3,5,27,27
1523054628244255,22,-13,-6,-4,-5,1,-1,20
1523054628244757,-13,-10,-4,-3,-6,0,26,22
1523054628244757,-2,-1,3,-1,-3,-3,-18,-8
1523054628258294,4,28,-2,-4,-6,-31,-13,-14
1523054628258294,-31,-3,1,-1,1,12,49,11
1523054628258795,-6,-9,8,1,1,-9,-50,-21
1523054628258795,-22,54,14,6,5,16,19,22
1523054628281355,48,-25,-15,-4,-3,6,33,-9
1523054628281355,-13,-9,-12,-7,-6,-17,-59,-23
1523054628282358,-10,4,5,-4,-4,-12,3,-40
1523054628282358,-2,5,0,0,1,11,18,7
1523054628303915,-10,-8,-6,-4,-1,1,-18,9
1523054628303915,7,-12,5,6,5,3,1,12
1523054628304917,-1,7,-5,-4,-4,1,17,-6
1523054628304917,7,-16,0,4,3,-4,-11,-10
1523054628318453,0,-3,-3,-1,2,9,-7,3
1523054628318453,-8,0,-2,-3,-2,-4,7,-39
1523054628318956,4,-6,-4,3,0,-1,22,10
1523054628318956,-3,-16,-8,-8,-7,-3,-38,-30
1523054628341516,-9,5,3,4,2,-4,-14,-3
1523054628341516,0,14,8,2,0,0,0,11
1523054628342518,3,-1,9,0,4,-2,-4,3
1523054628342518,1,-5,-32,-20,-15,-1,26,7
1523054628364075,-6,1,28,3,2,4,1,-1
1523054628364075,2,-4,-2,9,2,-5,-15,4
1523054628364577,1,-8,-12,-5,4,2,3,-5
1523054628364577,5,-1,11,10,9,7,8,3
1523054628378113,-2,-3,-11,-18,-18,-4,1,7
1523054628378113,2,-1,-3,14,2,1,5,7
1523054628379116,-3,-1,0,-29,3,1,7,-10
1523054628379116,-1,2,-7,-1,-5,-5,-13,-6
1523054628400706,-3,-8,-1,0,0,1,1,5
1523054628400706,3,7,6,-1,-4,-3,-2,1
1523054628401709,-2,-4,-9,11,3,2,1,-1
1523054628401709,2,5,16,11,7,2,2,-1
1523054628423767,-3,-5,-9,-9,-7,1,-1,4
1523054628423767,3,5,6,0,-1,2,5,1
1523054628424769,-1,-1,-6,0,-4,-4,-11,-8
1523054628424769,-5,-4,-2,-2,-1,-2,4,2
1523054628438305,0,-1,-4,7,6,4,1,7
1523054628438305,4,-4,-3,-14,-5,-2,1,0
1523054628438808,-3,11,1,3,1,-4,-8,-4
1523054628438808,1,-9,-2,0,1,2,1,0
1523054628460865,-4,-17,-14,0,-1,-1,-4,-6
1523054628460865,5,14,3,-4,1,-2,1,4
1523054628461867,5,-5,8,3,-6,-4,-5,18
1523054628461867,-3,-7,-3,0,-2,-5,0,-3
1523054628483926,1,2,-10,-3,2,3,-1,-1
1523054628483926,-1,1,-3,-2,-1,0,1,3
1523054628484929,-1,2,-1,10,-3,1,-12,-5
1523054628484929,-5,-5,8,-3,6,-1,-1,-2
1523054628497518,2,2,-1,-2,0,-1,-3,-2
1523054628497518,-3,-8,1,4,-2,-2,2,1
1523054628506044,0,10,2,-5,-3,0,2,-4
1523054628506044,-1,-7,-5,6,2,0,0,-1
1523054628521025,0,6,5,2,0,0,-8,-15
1523054628521025,-7,-4,5,-2,-1,-3,3,4
1523054628521526,-3,0,-9,-7,-4,-4,-5,-3
1523054628521526,2,-14,-9,-4,-6,-3,4,2
1523054628544089,1,9,7,1,-3,1,1,-6
1523054628544089,-3,-4,-10,2,4,1,1,12
1523054628544590,3,-6,2,2,-1,-2,2,2
1523054628544590,1,0,7,4,-4,0,4,1
1523054628557623,-4,6,-4,-6,-1,-1,-5,-5
1523054628557623,6,-12,-11,-1,2,-2,-2,-4
1523054628565645,-1,-8,-11,4,-1,0,6,-2
1523054628565645,4,9,21,-14,0,-1,-6,-1
1523054628581735,-7,-21,1,4,-5,-4,4,31
1523054628581735,-3,7,2,-1,3,2,-6,-5
1523054628582189,-1,-9,-10,-2,2,1,3,-4
1523054628582189,-2,1,-5,-3,-5,-1,-6,-3
1523054628603782,-1,20,-2,-5,-4,-4,-3,-7
1523054628603782,-2,3,-3,2,0,0,0,0
1523054628604788,-4,-17,1,6,2,0,-1,-1
1523054628604788,0,-9,-10,-2,-4,2,-3,-3
1523054628617784,0,-5,2,-2,-2,-2,0,-3
1523054628617784,-4,3,0,1,-2,-2,-3,-4
1523054628625804,6,9,4,-4,-1,3,-3,3
1523054628625804,-3,-1,-6,-2,4,3,0,-5
1523054628641379,-5,3,1,4,-1,-2,-8,4
1523054628641379,-1,1,-4,-4,-5,-3,4,-2
1523054628642382,-5,21,4,0,2,2,1,-3
1523054628642382,1,-3,-8,2,-3,-3,0,2
1523054628663941,1,0,-8,-2,-5,-1,3,-1
1523054628663941,0,-11,3,-7,-4,-4,-4,-6
1523054628664951,-1,-9,1,3,5,-1,1,-1
1523054628664951,2,6,7,1,-2,-1,7,3
1523054628677475,-6,15,-6,-1,2,1,-4,-9
1523054628677475,-26,13,0,-1,-2,2,1,-6
1523054628685965,3,4,3,-1,-4,-4,-2,-2
1523054628685965,-3,-3,0,0,-1,0,-2,-3
1523054628701539,3,-7,-2,4,7,2,2,-4
1523054628701539,5,2,-2,-4,1,2,0,-2
1523054628702542,7,-20,-3,-9,-10,-9,-11,6
1523054628702542,-12,11,-6,-1,-2,-3,-6,-2
1523054628724067,-1,-13,2,1,0,1,-11,-19
1523054628724067,14,-8,-10,-1,0,-5,0,-15
1523054628724567,-22,19,7,7,6,2,-1,-10
1523054628724567,0,-29,-4,-2,-2,-7,-4,-5
1523054628737602,6,10,10,-1,0,6,9,8
1523054628737602,6,-5,22,3,1,7,-20,-41
1523054628753144,11,11,-70,-7,-4,-8,18,26
1523054628753144,8,-24,-11,-7,-2,4,-31,-41
1523054628761687,-19,14,9,2,4,2,59,47
1523054628761687,-17,-5,-7,-3,-2,18,0,-2
1523054628762168,-3,-6,15,3,-2,-2,-16,5
1523054628762168,-3,-9,-9,-1,0,-4,-37,1
1523054628784231,3,-5,5,0,-3,-13,1,-20
1523054628784231,15,14,-2,-4,-5,-8,6,1
1523054628784786,3,-23,4,-2,-3,2,-1,15
1523054628784786,0,23,5,-2,-2,4,-7,-59
1523054628797762,8,-53,-4,-2,0,-2,-19,-14
1523054628797762,6,-5,-5,-4,-1,-1,10,27
1523054628805841,9,-5,2,-3,-2,-4,-17,-9
1523054628805841,-2,5,4,2,3,-8,12,16
1523054628820322,-7,38,3,2,-1,4,-16,-13
1523054628820322,13,13,1,-4,-1,3,9,10
1523054628829347,-6,-8,1,0,-2,-2,2,-19
1523054628829347,4,-2,-1,0,1,8,17,25
1523054628843884,-1,0,-1,6,11,6,7,1
1523054628843884,-12,-13,-8,-7,-5,-7,-2,14
1523054628845390,0,18,14,-2,-6,-7,-3,-9
1523054628845390,0,3,5,7,-2,1,14,18
1523054628866444,4,1,0,-13,-5,-6,-13,1
1523054628866444,-8,-7,-21,7,5,-3,2,0
1523054628867482,-4,-8,8,3,-16,3,11,0
1523054628867482,-2,10,-4,4,8,-5,-2,5
1523054628880984,-1,-17,-10,12,-3,3,-8,-8
1523054628880984,4,9,7,4,5,5,-6,4
1523054628881485,-4,-8,2,-14,-4,5,8,-2
1523054628881485,3,8,-10,3,0,3,5,4
1523054628904081,-9,-59,7,17,-2,-5,-15,0
1523054628904081,-3,13,-1,-23,-2,-6,1,1
1523054628904546,0,7,-1,12,-3,-5,2,-3
1523054628904546,4,-2,11,-4,1,-1,15,9
1523054628926660,1,9,-11,-16,-13,-5,-2,-5
1523054628926660,-1,4,5,9,1,-2,-9,-9
1523054628927107,-3,-9,7,2,13,6,6,3
1523054628927107,-3,5,-11,-2,0,2,-1,4
1523054628940643,-1,5,19,-6,-4,-5,-4,4
1523054628940643,-8,-3,-2,-1,-9,-1,-6,-6
1523054628941699,8,8,2,2,3,1,-1,3
1523054628941699,-4,-5,-3,-2,0,-1,-5,2
1523054628964233,2,13,-21,0,1,-3,-2,3
1523054628964233,-10,-11,11,8,-4,-6,-1,-8
1523054628964707,1,34,12,0,2,-2,-3,9
1523054628964707,-18,6,9,-4,2,2,3,37
1523054628986264,-1,-1,4,4,-4,-1,5,-4
1523054628986264,3,-3,-9,-7,1,-2,0,3
1523054628987267,-5,-15,-8,-7,-2,-2,-4,-10
1523054628987267,-7,-7,3,2,-5,-2,9,6
1523054629000835,2,17,6,-8,0,0,0,0
1523054629000835,0,-1,-6,8,5,-3,-6,3
1523054629001829,-2,-6,-8,-12,7,2,-3,-1
1523054629001829,8,-14,5,-8,-8,-4,1,-9
1523054629023863,-3,6,3,3,0,-1,0,-1
1523054629023863,5,5,2,1,-7,-1,-3,-4
1523054629024866,-1,-12,2,7,8,-2,2,-3
1523054629024866,1,-2,-13,-14,-9,-2,-2,-14
1523054629046464,2,10,-5,1,1,-6,-6,9
1523054629046464,-5,-21,7,0,2,0,1,9
1523054629047928,-4,-5,-7,-1,-1,2,0,-5
1523054629047928,0,6,-3,-4,-4,-1,-3,-2
1523054629059960,3,2,-7,-4,1,0,0,0
1523054629059960,-5,-6,-7,-4,-3,-6,1,0
1523054629068984,-1,-9,0,6,3,4,-3,15
1523054629068984,-1,1,1,1,-1,-2,-3,-6
1523054629084063,-2,22,-4,-7,-5,3,3,-2
1523054629084063,-2,5,-10,-7,-1,-1,-2,-10
1523054629085529,1,-2,19,5,-4,-3,-3,-8
1523054629085529,-10,0,1,-6,-4,-1,0,1
1523054629106583,-1,-5,-8,1,6,-1,3,3
1523054629106583,2,-2,-1,6,0,1,-1,-1
1523054629108088,-1,1,-2,-3,-9,-4,-1,-11
1523054629108088,-1,-1,-1,2,8,7,3,2
1523054629120119,3,-6,9,-2,-3,-3,-7,-5
1523054629120119,-11,13,2,1,-2,-2,12,13
1523054629129144,0,12,-11,-6,-5,-5,-21,-10
1523054629129144,5,-18,11,4,-2,-6,0,1
1523054629144183,-4,-4,-25,0,7,5,6,-1
1523054629144183,1,22,27,3,2,1,0,4
1523054629145723,-2,-13,-4,3,-1,2,3,-1
1523054629145723,-2,10,0,-3,-3,-3,-3,11
1523054629166743,-2,-8,1,4,-2,2,-4,-3
1523054629166743,-3,-13,-8,-10,-3,-6,-3,-4
1523054629168302,2,-3,-7,-5,-2,-3,-1,-2
1523054629168302,-12,-19,-2,6,3,0,-2,1
1523054629180335,1,-8,5,-5,-4,-1,0,-4
1523054629180335,8,-14,-8,0,1,-1,-2,-3
1523054629189303,-6,-5,-1,3,-2,0,6,22
1523054629189303,10,3,-5,-2,1,0,1,-3
1523054629203879,2,2,2,-4,-3,0,0,4
1523054629203879,-7,-12,-11,-6,-5,-5,-21,-50
1523054629205347,-6,-4,-3,-4,-1,-5,-8,-9
1523054629205347,8,-1,-8,1,1,1,8,10
1523054629226456,-6,-1,3,-1,0,3,-15,-90
1523054629226456,16,-18,-3,2,1,4,-30,24
1523054629227906,-10,24,13,5,2,-21,19,15
1523054629227906,-11,-4,-6,1,4,1,-23,-46
1523054629239939,-5,7,9,4,3,5,18,7
1523054629239939,-1,-34,-5,-3,0,10,-4,33
1523054629248964,-9,15,-1,-1,-2,3,-4,-42
1523054629248964,20,21,6,7,6,5,-2,32
1523054629264039,-7,-22,-8,-5,-6,-19,28,6
1523054629264039,-19,33,10,0,-1,22,24,-16
1523054629265542,12,-7,-2,2,11,38,-74,-31
1523054629265542,41,14,5,-1,-6,-46,39,51
1523054629286562,-3,-28,-5,-5,-2,8,-4,-19
1523054629286562,28,32,3,0,-3,-9,3,95
1523054629288066,-4,-5,-3,-5,-1,2,0,0
1523054629288066,-16,-2,-3,0,1,8,-29,-55
1523054629300152,18,-2,-2,-1,0,-1,-14,45
1523054629300152,-6,0,0,0,-1,-10,1,-26
1523054629309123,-3,-1,-5,-4,-5,-6,21,-7
1523054629309123,-19,4,-3,-1,-2,7,-22,-61
1523054629324162,13,7,-1,0,-2,-9,-8,6
1523054629324162,-5,4,2,1,-1,3,0,-28
1523054629325703,5,-2,-1,-2,-4,-4,5,22
1523054629325703,-8,-14,-6,-7,-9,-2,13,3
1523054629346723,-4,7,-3,2,2,-1,-9,0
1523054629346723,-1,-25,-6,5,8,-4,9,4
1523054629348228,-1,-18,0,-9,-1,-3,10,-1
1523054629348228,2,7,5,8,-3,3,-1,13
1523054629360258,-6,-8,-10,-3,-13,-6,0,9
1523054629360258,-4,4,8,-7,2,-2,-3,-8
1523054629369282,-2,-12,-12,-1,0,-5,20,16
1523054629369282,-9,-11,-14,-16,-7,3,-21,0
1523054629383858,1,17,13,26,-1,2,1,12
1523054629383858,-7,-11,-23,-27,10,-2,11,-12
1523054629385826,3,9,7,-3,-9,2,0,1
1523054629385826,1,-5,-13,-2,3,0,22,17
1523054629406381,-3,2,20,4,-3,-6,-25,-8
1523054629406381,-1,-3,-6,1,-7,-5,2,-3
1523054629407885,-3,0,-2,-7,-2,-7,2,0
1523054629407885,-6,-13,-5,-4,-3,2,4,7
1523054629420419,-5,-2,-8,-7,1,1,7,11
1523054629420419,0,5,4,5,-7,-3,-3,-7
1523054629428942,-1,-10,-11,-1,1,-2,-3,4
1523054629428942,-1,0,7,6,-4,0,-3,8
1523054629444017,-2,-8,-7,-18,1,0,2,-17
1523054629444017,6,-12,-2,10,-4,-2,-2,2
1523054629445485,-1,7,0,-5,-6,-5,-2,-4
1523054629445485,-3,1,5,2,0,-4,-3,2
1523054629466578,-4,0,3,1,5,1,1,4
1523054629466578,0,-8,-7,-7,-11,-8,-1,11
1523054629468045,-9,22,10,5,1,-1,5,1
1523054629468045,-1,-1,-4,2,3,5,2,-3
1523054629480078,-2,0,-5,-11,-7,-2,0,7
1523054629480078,-9,6,9,7,1,-1,1,-17
1523054629489101,2,-9,-4,3,-1,-2,-5,17
1523054629489101,-4,1,2,-8,-2,-2,-2,4
1523054629504142,-4,-3,-5,-1,-1,-2,4,-2
1523054629504142,-1,0,-1,-2,-11,-4,-4,-10
1523054629505647,1,-3,0,7,8,0,1,-5
1523054629505647,2,3,0,2,9,7,3,1
1523054629526755,-9,4,-3,0,0,1,0,5
1523054629526755,2,18,-6,-8,-3,0,0,3
1523054629528206,-3,-17,12,7,-7,-6,-2,-4
1523054629528206,7,11,3,-4,-5,-10,1,1
1523054629540239,-3,10,-7,-13,4,5,2,1
1523054629540239,0,12,3,-1,1,0,-2,3
1523054629549263,-5,-27,-8,-2,-3,0,2,-5
1523054629549263,-1,-1,-3,6,-1,-1,-1,-5
1523054629563801,5,-3,0,-4,1,0,-1,1
1523054629563801,-4,-5,-5,1,-2,-1,-4,13
1523054629565807,3,7,2,-6,0,2,2,-1
1523054629565807,-7,-5,3,1,-5,-2,-1,3
1523054629586361,-5,-16,-5,-16,-8,-1,-4,-4
1523054629586361,-2,4,-5,22,11,2,4,-3
1523054629587865,1,6,11,3,2,1,-2,-2
1523054629587865,-3,0,-1,-13,-6,-3,6,1
1523054629600397,1,-5,-6,5,3,-3,-6,-1
1523054629600397,2,-11,1,-2,0,0,1,-5
1523054629609437,-1,1,-9,-9,-6,-2,-1,-4
1523054629609437,0,12,2,7,-2,2,2,4
1523054629623962,1,0,6,-1,-2,0,0,2
1523054629623962,-3,-6,-1,-6,-1,1,-5,-5
1523054629625465,-6,-9,-6,3,1,-1,0,-2
1523054629625465,-2,10,-2,-4,1,0,-5,-2
1523054629646561,-1,1,-3,5,-3,0,-2,3
1523054629646561,1,0,5,-2,-4,-4,-2,2
1523054629648058,-1,7,1,1,-1,-4,4,15
1523054629648058,-1,-12,1,0,0,1,-2,-8
1523054629660057,-2,-2,0,0,-1,0,-1,3
1523054629660057,3,6,-6,-2,-4,-7,-4,-1
1523054629669082,2,3,-3,-6,-1,-1,-1,-5
1523054629669082,1,-8,-3,2,-1,-1,-3,-2
1523054629684119,-5,3,-2,-1,-1,-3,6,2
1523054629684119,1,-2,1,-6,-9,3,0,-6
1523054629685624,2,6,-3,4,5,1,-2,-3
1523054629685624,4,-12,2,-3,3,0,-3,-5
1523054629706681,4,16,3,2,-3,-2,-2,-4
1523054629706681,8,-1,-7,-3,-3,-3,1,12
1523054629708187,-2,22,4,1,-4,1,-6,-18
1523054629708187,-4,-15,-4,-1,-1,-1,-3,0
1523054629720252,-1,-4,-2,0,4,1,1,0
1523054629720252,-9,-8,4,5,2,1,-1,-18
1523054629729240,3,1,-3,-3,-2,2,6,37
1523054629729240,4,7,-1,-1,2,-1,-7,6
1523054629743778,-2,-11,-2,1,1,-1,7,-16
1523054629743778,-10,-10,-6,-3,-3,-3,-6,-9
1523054629745819,-3,-21,-7,-2,-2,-10,-26,-23
1523054629745819,-30,32,6,-1,-4,-2,14,-6
1523054629766375,-3,10,-3,-2,-1,-2,13,-3
1523054629766375,17,-23,-1,-2,-6,-3,-11,26
1523054629768370,-13,-19,-7,-4,-3,-7,-20,-25
1523054629768370,18,-6,-1,1,0,4,11,30
1523054629788899,-4,-11,-13,-7,-8,30,52,42
1523054629788899,-4,7,2,-1,0,-9,-15,-70
1523054629790404,-9,-4,-4,-6,-6,-8,3,46
1523054629790404,-5,-8,-2,2,1,9,1,-7
1523054629803437,11,-1,0,0,0,1,-24,-1
1523054629803437,-25,-9,-2,-3,1,3,-7,-29
1523054629809954,5,7,3,-2,-1,2,8,10
1523054629809954,0,-5,-7,-3,-2,-7,-19,-41
1523054629826553,0,-12,-1,-1,-3,-11,-11,-21
1523054629826553,-24,37,15,3,3,2,9,20
1523054629828004,-1,-6,0,3,2,0,-2,-21
1523054629828004,12,-20,-8,0,0,-3,5,23
1523054629849059,14,19,7,6,5,-4,-14,-16
1523054629849059,-8,6,5,-4,-4,2,13,12
1523054629850563,1,1,-2,-3,-10,-7,-22,-22
1523054629850563,2,5,3,6,9,6,3,4
1523054629863597,9,-2,-4,5,5,0,12,23
1523054629863597,6,-15,-8,-3,-5,-6,-6,-1
1523054629870114,3,11,-4,-2,-6,-1,-2,-3
1523054629870114,-9,-2,15,3,-1,-1,-3,-6
1523054629886660,-12,-1,-16,-9,4,-8,-19,-9
1523054629886660,10,-6,-12,0,0,1,16,19
1523054629888165,1,6,15,-7,-10,0,8,3
1523054629888165,-1,-3,8,0,-7,-5,-11,-3
1523054629909218,-4,-3,15,3,-8,-5,-2,-3
1523054629909218,7,-10,-9,29,28,9,0,7
1523054629910723,8,12,-4,-21,0,2,17,6
1523054629910723,-11,-36,-15,5,-5,-6,-7,-9
1523054629923259,1,11,5,-9,-6,-7,-9,-1
1523054629923259,1,-14,-4,-4,-6,-5,-1,0
1523054629930331,-2,6,-13,7,9,3,2,-2
1523054629930331,0,12,21,-5,-4,0,8,2
1523054629946317,-6,-9,-9,0,-4,-5,-12,-4
1523054629946317,3,-15,-4,-11,-8,-1,-5,6
1523054629948347,0,-9,2,23,9,5,13,-1
1523054629948347,3,21,-10,-10,-2,-4,-5,1
1523054629968914,-3,-17,-1,0,-3,-3,-4,-3
1523054629968914,4,7,3,-2,0,1,1,12
1523054629970883,4,-23,-3,-1,-3,1,2,5
1523054629970883,-5,41,-5,-5,-1,-1,-3,-1
1523054629983417,-1,-9,-4,-3,0,-3,-9,-6
1523054629983417,1,6,1,-8,-7,-2,-3,-2
1523054629989934,-3,-6,7,8,4,0,3,-1
1523054629989934,5,-17,-6,-3,1,0,-2,2
1523054630006480,-6,-3,1,11,0,-2,7,4
1523054630006480,1,3,1,-18,-6,-2,-2,-1
1523054630007982,2,4,-5,-5,-8,-1,-2,-4
1523054630007982,-1,2,-5,3,4,2,2,-2
1523054630029037,-5,-4,7,-3,1,-1,-2,-2
1523054630029037,-1,-6,-1,1,-11,-9,-3,-2
1523054630030543,1,5,9,-6,5,5,0,-3
1523054630030543,1,-9,-10,2,1,1,2,-1
1523054630043576,-4,-3,-3,4,0,1,0,1
1523054630043576,3,20,3,2,-4,-1,-6,-2
1523054630050095,-4,-4,0,-9,-7,-4,0,-2
1523054630050095,0,1,-3,-9,-7,-5,-5,-2
1523054630066639,2,1,10,11,3,4,0,1
1523054630066639,-4,9,-9,1,7,2,3,0
1523054630068143,0,-7,-3,-4,-6,-5,-2,-2
1523054630068143,-4,-2,2,0,-1,-3,-2,-4
1523054630088195,0,-8,-2,-1,-3,-3,-6,-3
1523054630088195,4,-1,16,15,5,1,2,2
1523054630096772,4,17,-5,-9,2,1,0,1
1523054630096772,-9,-27,-4,-9,-5,-2,-1,-4
1523054630103235,3,6,-4,-4,3,0,2,0
1523054630103235,-3,3,-2,2,-5,-2,-2,-3
1523054630110308,-5,0,2,-2,-1,-3,-1,-1
1523054630110308,-1,6,-2,-4,-4,-3,0,1
1523054630126350,4,-3,-5,-1,7,1,3,0
1523054630126350,-2,-27,-5,-3,-1,0,-1,-2
1523054630128350,-2,0,-12,-3,-2,-2,-2,-2
1523054630128350,-3,1,16,9,-4,-3,-1,-3
1523054630148912,-1,-2,-8,-17,-13,-2,-1,-1
1523054630148912,-1,2,-9,0,10,2,0,-5
1523054630150877,1,-10,-2,4,5,2,0,22
1523054630150877,3,-3,-5,2,0,1,0,3
1523054630163432,-4,3,9,-2,-8,-5,-4,-1
1523054630163432,-3,-4,-14,-12,-4,-3,-2,-2
1523054630170414,-3,-3,10,7,2,0,-1,-8
1523054630170414,-1,-3,-3,0,2,0,1,-2
1523054630186511,-1,13,3,-3,0,0,-3,1
1523054630186511,3,-5,-2,-8,-8,-4,-1,3
1523054630187962,-3,-2,1,9,5,1,0,-5
1523054630187962,1,-2,-6,-1,4,0,-3,-1
1523054630209018,-4,-11,-12,3,0,0,1,-5
1523054630209018,-4,2,5,0,2,2,-1,-7
1523054630210522,2,-1,-3,-2,-6,-4,-2,0
1523054630210522,-1,3,-2,-3,-5,-3,-2,2
1523054630223557,-1,0,-7,6,5,3,1,-4
1523054630223557,-3,1,-14,-4,1,2,-2,21
1523054630230129,-17,9,38,4,1,1,-2,-16
1523054630230129,-9,-14,-11,-3,-4,1,2,32
1523054630246616,0,10,6,5,1,-3,-6,-35
1523054630246616,6,-3,-12,-11,-2,-3,-2,-6
1523054630248121,3,6,-4,4,0,-1,0,-4
1523054630248121,11,-16,4,-1,1,-5,-6,-11
1523054630269216,-18,7,3,0,1,2,5,25
1523054630269216,-2,-3,7,3,0,1,-5,1
1523054630270740,8,-1,-12,-1,0,6,10,4
1523054630270740,15,5,6,-1,0,-18,-44,4
1523054630282714,4,-5,-5,-4,-1,13,21,-17
1523054630282714,9,-6,8,3,0,-4,19,19
1523054630291739,-9,-10,-8,-3,-3,-5,-35,-19
1523054630291739,-5,0,-5,-1,-2,-12,9,21
1523054630306277,12,-7,-7,-4,-2,13,-19,3
1523054630306277,-14,21,14,4,0,10,51,42
1523054630308281,-30,-10,-12,-4,-4,-15,-40,-37
1523054630308281,-14,6,5,5,0,1,19,8
1523054630328837,11,21,12,-3,-5,-8,-17,22
1523054630328837,19,0,1,-6,-5,-11,-32,-100
1523054630330841,3,14,11,6,4,9,18,35
1523054630330841,-1,3,1,-1,3,4,-31,-21
1523054630342872,4,5,-6,1,1,12,30,10
1523054630342872,1,11,4,3,2,2,-10,11
1523054630351397,14,-24,-2,-1,-3,-20,-33,-21
1523054630351397,-13,17,-15,-8,-4,5,25,20
1523054630366938,-2,-17,6,-2,-3,-3,1,-17
1523054630366938,3,8,4,3,0,3,-4,0
1523054630372452,1,-4,-10,-2,-2,1,10,-13
1523054630372452,0,-4,-3,-3,-3,2,5,7
1523054630388996,-11,-6,-8,-1,0,-10,-1,3
1523054630388996,-9,-19,3,6,4,3,11,-5
1523054630390501,4,8,-3,1,4,5,-3,16
1523054630390501,-1,-11,2,4,9,0,4,-22
1523054630402567,-2,4,-1,-7,-6,-5,-10,2
1523054630402567,1,-4,-12,-4,-6,-7,-9,6
1523054630419077,1,0,11,1,-6,2,15,1
1523054630419077,7,16,0,-7,-7,0,-10,-12
1523054630426597,1,-1,4,8,2,-2,-1,1
1523054630426597,-3,-3,5,-5,-9,0,11,24
1523054630428100,-3,1,3,3,3,0,-8,-5
1523054630428100,-6,0,-15,-17,6,4,-19,-18
1523054630449155,5,0,-7,-4,4,-3,5,10
1523054630449155,-5,-7,5,6,4,4,-3,-3
1523054630450659,1,11,-7,-8,-10,-3,19,9
1523054630450659,1,-8,-4,10,-1,2,8,-2
1523054630462748,-4,-5,11,2,0,-3,-3,-5
1523054630462748,5,7,-1,-6,-5,-4,-9,0
1523054630471770,-3,-5,-5,-1,6,1,9,5
1523054630471770,1,-3,-6,1,-4,1,4,-2
1523054630486254,-4,-7,-5,0,-1,-6,-7,-4
1523054630486254,-3,3,10,10,7,-3,-4,-1
1523054630488259,4,-3,-6,4,2,2,5,6
1523054630488259,4,5,20,-7,-8,-5,-2,-12
1523054630508870,3,-6,-15,-3,-5,-4,0,13
1523054630508870,-3,-5,0,-9,-4,-4,-9,-4
1523054630510820,-3,2,-4,-2,-2,2,7,-17
1523054630510820,-6,-4,1,2,1,2,4,-4
1523054630522852,-1,-3,4,0,-3,-4,-3,7
1523054630522852,-8,-8,-13,-2,0,0,-2,-2
1523054630531890,-6,-7,-4,-4,-1,1,-2,-14
1523054630531890,2,3,1,0,-3,5,9,9
1523054630546476,2,-1,1,-6,-4,-7,-10,-7
1523054630546476,-4,1,-9,0,-1,-2,-2,-4
1523054630547919,3,2,19,5,2,3,5,13
1523054630547919,-3,-5,2,-6,1,-1,-1,-1
1523054630568975,-3,5,0,0,0,0,-3,-3
1523054630568975,-6,-11,-5,-3,-2,3,-2,-6
1523054630570480,2,-6,-7,-5,-5,-3,0,5
1523054630570480,-1,-3,-1,2,-4,-3,1,-3
1523054630582511,-4,8,5,-1,-6,-3,-1,-5
1523054630582511,2,2,-9,-2,-1,-2,-1,-1
1523054630591534,9,-7,-4,-1,5,3,4,6
1523054630591534,2,9,7,6,4,2,1,-11
1523054630606609,-4,-18,-14,-3,-1,-1,3,-1
1523054630606609,-1,3,4,-4,-2,-3,-4,0
1523054630608079,-2,5,-13,-4,-7,-4,-5,-2
1523054630608079,0,-12,8,4,1,-3,-1,1
1523054630629169,-4,15,3,-4,-4,0,0,-3
1523054630629169,4,-1,11,6,-4,0,1,-3
1523054630630673,-4,-5,-15,-8,9,3,2,1
1523054630630673,0,-8,-8,-1,-3,-2,0,0
1523054630642704,3,-1,-1,1,2,1,-4,-8
1523054630642704,-2,-2,2,-4,-2,-4,-5,1
1523054630651736,-4,-2,-1,-2,-5,-2,0,3
1523054630651736,-6,0,-15,11,5,5,0,0
1523054630666734,2,0,18,2,5,1,0,1
1523054630666734,4,8,2,2,3,2,3,4
1523054630668240,1,-6,-4,-5,-4,-3,-3,-2
1523054630668240,-6,0,-13,-8,-4,-6,-6,-6
1523054630688793,0,-2,-4,5,-3,-2,-2,-1
1523054630688793,0,-3,-2,-7,-2,5,-1,-6
1523054630690799,-2,-1,0,1,4,-2,9,18
1523054630690799,-4,-5,-4,-6,-3,-4,-20,-5
1523054630702885,-4,-4,-2,1,1,-1,1,-1
1523054630702885,-3,1,5,1,-2,-2,4,-3
1523054630711856,6,-7,-1,-3,-4,-2,-12,-2
1523054630711856,7,-5,5,2,-3,-1,7,3
1523054630726448,5,-10,-28,-6,2,-1,-6,7
1523054630726448,-4,6,-5,5,6,3,3,-2
1523054630728400,-5,-4,13,-7,-11,-5,-7,-5
1523054630728400,2,0,-19,0,1,-2,0,2
1523054630748953,-1,-3,34,5,1,2,4,-3
1523054630748953,-2,-16,-8,-1,1,-2,4,5
1523054630750459,-3,0,-7,-1,0,2,0,-5
1523054630750459,-2,1,-28,-5,-4,-5,-3,-1
1523054630771514,-3,2,7,-3,-7,-3,-3,-4
1523054630771514,-6,-5,-18,-4,-2,-4,-4,0
1523054630773017,-1,14,27,5,2,3,4,0
1523054630773017,-3,-7,6,-1,-3,0,2,-4
1523054630786610,2,4,-7,-2,2,1,6,4
1523054630786610,15,-1,23,2,-1,-3,-12,-13
1523054630788057,-18,1,-22,-1,-1,-3,-11,-22
1523054630788057,6,7,16,-3,-2,3,3,14
1523054630809115,9,-12,28,-1,1,-1,2,68
1523054630809115,-3,-11,-61,-14,-12,-7,5,-40
1523054630810619,7,0,-15,8,10,-1,-29,-39
1523054630810619,-10,-4,2,-5,-6,-3,5,39
1523054630831673,5,4,-3,0,3,-1,-25,14
1523054630831673,5,-7,8,-5,-6,20,5,-26
1523054630833178,-79,14,15,0,-7,-15,24,-32
1523054630833178,7,-2,-3,-4,-4,7,26,40
1523054630846736,-13,1,18,3,-3,-7,-25,-53
1523054630846736,7,3,21,9,9,10,16,19
1523054630848272,21,11,3,2,1,8,-13,22
1523054630848272,-4,-22,-22,-8,-2,-3,-12,-31
1523054630868772,-22,3,15,3,-1,6,-3,-54
1523054630868772,0,14,11,2,1,-11,5,17
1523054630870825,15,-23,-9,-1,-1,1,15,14
1523054630870825,-4,19,21,3,3,-1,6,-4
1523054630891333,21,6,-20,-4,-1,-3,-8,8
1523054630891333,-15,-37,-14,-5,-4,-7,-13,5
1523054630893367,18,13,-3,-1,-5,-2,-16,14
1523054630893367,-3,3,14,10,7,-1,-1,-19
1523054630905908,-9,-10,-33,-2,2,1,-22,-12
1523054630905908,2,15,19,8,8,3,24,15
1523054630912389,4,-4,-1,-6,-7,-1,1,13
1523054630912389,-2,-2,7,-20,-16,-9,-16,-14
1523054630928933,1,8,-2,29,-3,-1,18,4
1523054630928933,-4,-9,-29,-32,2,-3,-12,4
1523054630930437,12,-20,21,-8,-1,3,8,13
1523054630930437,0,1,0,10,-1,-4,-9,-13
1523054630951492,0,5,-16,-15,-11,-1,14,0
1523054630951492,-3,7,4,14,7,-6,-12,1
1523054630953051,2,-3,-5,11,2,6,5,-2
1523054630953051,-1,-2,0,-8,-1,0,-2,-5
1523054630965083,-9,-9,-4,-4,-1,1,13,6
1523054630965083,-5,26,22,9,1,-5,-6,0
1523054630974052,1,-5,-14,-10,1,0,-2,0
1523054630974052,-1,5,20,12,8,4,3,-2
1523054630989146,4,-2,-6,-5,-9,-5,2,1
1523054630989146,-3,4,-4,-2,1,0,-10,-2
1523054630990597,-6,-4,2,1,-2,-2,4,-1
1523054630990597,1,-3,-15,-1,1,3,2,-10
1523054631011653,8,7,2,-5,4,2,6,4
1523054631011653,-2,-1,9,1,-5,-1,-8,-2
1523054631013210,-10,4,-9,-3,-4,-1,4,1
1523054631013210,1,-8,-3,8,6,1,-6,-5
1523054631025188,-3,-3,-2,-5,-2,-4,2,1
1523054631025188,2,4,-1,-2,-5,-4,1,7
1523054631034212,5,0,-1,1,-1,-1,-1,1
1523054631034212,-1,5,-10,-6,-1,-1,-2,-5
1523054631049252,-4,-4,-3,-2,-2,-1,3,-1
1523054631049252,2,-2,32,7,-2,-1,-4,-1
1523054631050811,3,-1,-6,-10,3,2,2,-1
1523054631050811,-8,-2,-6,-4,-10,-5,-1,3
1523054631071311,-1,-4,-7,-2,2,-2,0,-1
1523054631071311,-2,-9,-6,0,0,1,-3,-4
1523054631073317,3,4,-6,3,-9,-2,0,2
1523054631073317,3,0,13,8,16,2,3,-1
1523054631085905,4,1,-6,-4,1,2,2,1
1523054631085905,-3,-2,-9,-3,-8,-4,-6,-7
1523054631092870,1,-1,7,-3,-7,-5,2,0
1523054631092870,1,-3,-15,0,-4,1,1,3
1523054631108912,2,-14,-2,1,7,0,0,-2
1523054631108912,-3,21,5,-5,-2,1,2,1
1523054631110416,0,-3,1,5,1,-1,2,-2
1523054631110416,2,-3,-4,-6,-8,-4,-1,3
1523054631131471,-3,-5,5,4,3,-1,1,-3
1523054631131471,4,0,-18,-2,3,1,0,-1
1523054631132975,-6,-14,17,8,3,-1,-2,-2
1523054631132975,-5,6,3,-3,-2,-2,2,0
1523054631146066,-7,4,-1,-8,-5,-3,-9,-5
1523054631146066,-3,-6,-15,1,-2,-4,0,1
1523054631152529,0,-8,-1,-12,-2,-3,-3,1
1523054631152529,3,0,2,3,9,6,3,0
1523054631169071,-5,-4,-4,-3,-4,-3,1,-1
1523054631169071,-1,-4,4,7,-2,-2,-4,1
1523054631170575,2,-18,-24,-13,-8,-4,-2,0
1523054631170575,0,3,5,3,3,-1,-2,-2
1523054631191632,-18,36,3,3,1,4,2,-4
1523054631191632,-2,-5,8,0,-2,0,0,0
1523054631193137,-2,6,-8,3,4,2,0,-1
1523054631193137,0,-8,1,2,-8,-3,-4,-2
1523054631205669,-6,9,2,-1,2,0,0,-6
1523054631205669,2,7,1,-3,-4,-2,0,10
1523054631212688,-1,9,0,-3,-3,-1,-2,-1
1523054631212688,1,-13,-17,-1,1,0,0,0
1523054631228731,14,-12,12,-7,-3,-3,1,4
1523054631228731,-15,-4,9,1,-2,-2,-8,-27
1523054631230737,8,-5,1,-1,-4,-2,-1,18
1523054631230737,-14,-8,-12,-3,-4,-5,0,-30
1523054631251291,-11,2,3,2,-1,1,-18,-1
1523054631251291,-2,-10,-28,1,3,-1,10,-12
1523054631253296,5,7,13,4,-1,6,-17,-18
1523054631253296,14,9,9,-3,-4,-15,-3,24
1523054631265327,-2,2,-8,-1,1,8,22,25
1523054631265327,22,-28,-14,-9,-7,-6,-15,11
1523054631274374,-41,45,26,7,11,25,20,-25
1523054631274374,5,9,21,-2,-6,-23,35,75
1523054631288891,42,-12,-8,2,2,-4,-51,11
1523054631288891,27,-32,-10,-8,-11,-12,64,84
1523054631290394,25,2,1,-7,-3,-1,34,18
1523054631290394,-11,6,7,-6,-2,18,-25,-33
1523054631311532,-1,-5,-9,-2,-4,-19,-19,-40
1523054631311532,-32,4,15,3,7,10,-10,-31
1523054631313036,13,6,-8,1,2,-4,-24,7
1523054631313036,-17,-28,-13,-4,-4,-3,0,-44
1523054631325069,-1,-13,-5,-2,-1,-2,12,-7
1523054631325069,-11,30,7,2,2,8,-33,-32
1523054631334092,-13,-5,-5,2,-3,-8,8,-22
1523054631334092,-5,1,-6,-4,2,5,-11,4
1523054631349132,-10,20,14,5,0,7,21,2
1523054631349132,-4,12,-6,-8,-3,3,0,7
1523054631350636,1,1,0,0,-4,-11,-14,13
1523054631350636,12,2,5,7,6,-1,12,5
1523054631371692,-9,-21,2,-5,-6,0,-26,-2
1523054631371692,3,-1,-12,-11,-3,-6,6,-10
1523054631373196,3,-8,11,4,5,-3,4,5
1523054631373196,0,-17,-20,-4,-5,7,-9,-13
1523054631385228,-5,17,2,3,-1,1,21,-6
1523054631385228,2,-7,-3,11,2,-1,-6,3
1523054631394251,-6,-22,-3,-7,-5,-7,-12,-12
1523054631394251,-2,18,6,6,-6,0,-5,2
1523054631408823,-1,0,4,-7,-6,1,16,5
1523054631408823,0,-4,-8,7,20,-2,-18,-1
1523054631410796,4,-3,-5,-3,-3,0,0,6
1523054631410796,-3,-4,-7,-10,-8,-1,12,-5
1523054631431386,0,-5,2,11,2,-3,-18,1
1523054631431386,-2,4,1,-7,-11,-2,1,-6
1523054631433355,-6,-9,-23,6,9,-1,7,-1
1523054631433355,6,15,34,8,-1,-4,-15,-1
1523054631445389,-7,-3,-13,-12,-4,-4,-1,-4
1523054631445389,-6,-12,-6,-12,-9,-6,-3,-4
1523054631453910,-1,-10,-9,-5,0,-3,-3,10
1523054631453910,1,4,6,1,5,1,8,-20
1523054631468950,-2,-8,-5,11,2,3,7,1
1523054631468950,0,2,4,-4,-1,1,-1,-1
1523054631470454,5,-4,8,1,-11,-4,-1,-1
1523054631470454,-12,11,-7,2,4,3,-5,-9
1523054631491544,9,-9,-2,-10,1,0,7,14
1523054631491544,-15,19,6,4,-4,-1,-2,-4
1523054631493014,0,4,1,2,-1,0,-4,-6
1523054631493014,1,-3,-10,-5,1,1,-3,4
1523054631505046,-1,-6,-12,-5,3,-1,3,1
1523054631505046,1,-12,12,4,-5,-1,0,-2
1523054631514072,0,3,-2,3,3,2,0,0
1523054631514072,-2,-2,-3,-12,-15,-4,-2,7
1523054631529147,0,-12,-19,10,7,-2,5,0
1523054631529147,-1,2,6,-4,9,6,2,-1
1523054631530654,-3,3,-4,-2,-3,-1,-1,-7
1523054631530654,2,-4,-13,-7,-3,-1,-2,1
1523054631551670,-2,-1,2,9,-2,-1,0,-5
1523054631551670,5,7,9,-4,-7,-3,-3,-2
1523054631553174,1,-16,-12,3,0,-4,-4,0
1523054631553174,1,-3,-1,4,5,4,2,4
1523054631565242,-4,3,28,-5,-5,-3,-2,-4
1523054631565242,5,4,-11,2,2,1,0,1
1523054631574231,-36,-14,13,-3,2,2,3,6
1523054631574231,-8,1,15,15,2,1,-6,-5
1523054631589270,0,3,-14,-19,-4,1,5,-1
1523054631589270,1,-7,3,0,0,-1,-5,-3
1523054631590829,7,8,-6,4,1,-1,-2,-5
1523054631590829,-3,2,12,0,2,-1,-9,-3
1523054631611383,-8,-8,-17,-6,-4,-1,-1,-3
1523054631611383,0,-3,16,12,-6,-3,1,-4
1523054631613364,8,4,-12,-10,1,0,4,-9
1523054631613364,-2,-1,11,6,7,1,-3,-2
1523054631624865,8,-6,-16,-1,-2,-1,1,7
1523054631624865,3,-11,-12,2,1,1,-1,-2
1523054631634424,6,-2,-1,-15,-8,-4,-6,1
1523054631634424,-9,0,-8,-5,-4,-2,-1,-11
1523054631648983,11,-9,-1,1,1,1,0,15
1523054631648983,-20,-36,-21,-7,-1,-3,-2,-33
1523054631650488,7,-3,17,5,-9,-3,-7,8
1523054631650488,-15,-8,-6,-5,1,-2,2,4
1523054631671489,25,11,9,2,3,3,5,38
1523054631671489,-33,42,3,3,0,-1,7,22
1523054631672993,9,2,-5,-7,-3,-3,-5,-4
1523054631672993,5,-3,-3,-2,-2,-1,2,-12
1523054631694103,7,0,7,0,0,-4,-7,-21
1523054631694103,13,-15,-8,-9,-3,-1,-1,24
1523054631695608,0,31,25,16,4,2,1,-8
1523054631695608,0,3,-13,-7,-1,2,1,15
1523054631709090,-11,-21,1,-2,-5,-5,-6,-34
1523054631709090,26,-8,-19,-5,-3,-1,-7,-23
1523054631710593,-6,5,-1,2,2,-2,-10,5
1523054631710593,2,-7,8,-2,-1,4,5,19
1523054631731704,-15,28,2,5,4,16,3,15
1523054631731704,11,-22,8,-5,-5,-11,25,-15
1523054631733208,0,15,15,2,1,6,4,-3
1523054631733208,4,1,-9,-3,-3,-6,-30,-20
1523054631753206,-10,2,4,-5,-3,0,29,23
1523054631753206,3,0,-2,4,4,-5,-31,14
1523054631761784,5,-12,-17,-9,-2,2,2,-25
1523054631761784,15,-9,-6,-3,-5,-14,12,26
1523054631768803,-27,11,1,-1,-2,-9,-30,-34
1523054631768803,-7,-3,13,2,0,4,-4,-11
1523054631770755,3,10,-2,1,-1,2,-9,-17
1523054631770755,-25,13,-3,0,1,1,-10,-59
1523054631791362,19,-10,-3,-1,-1,0,9,-9
1523054631791362,-4,4,-4,-3,-4,-3,-7,0
1523054631793313,2,3,-6,-3,-1,-2,0,8
1523054631793313,12,-6,-8,-2,0,1,22,21
1523054631813922,9,-11,3,1,-1,-1,-18,17
1523054631813922,-11,28,6,0,0,0,-9,-28
1523054631815426,-7,-17,-8,-1,0,-4,6,16
1523054631815426,10,2,-1,-2,0,3,12,1
1523054631828461,-3,-16,3,8,1,-2,21,-7
1523054631828461,-3,0,-7,-9,0,-3,-47,-6
1523054631834977,-12,-8,-6,-1,-15,-5,8,4
1523054631834977,2,6,-20,-7,22,6,7,13
1523054631851469,-2,-9,-3,-1,0,-1,-16,9
1523054631851469,-7,3,1,4,-6,2,32,29
1523054631852973,-3,-4,1,-11,-6,-4,3,3
1523054631852973,2,-1,1,21,-4,3,-16,-15
1523054631874082,-4,8,13,-1,4,-4,2,2
1523054631874082,4,-6,-11,21,7,4,7,-1
1523054631875587,3,0,2,-7,11,-2,-12,-7
1523054631875587,0,-7,1,-2,-9,-5,4,11
1523054631887564,-4,10,-4,-16,5,0,-6,-14
1523054631887564,3,1,49,35,6,8,0,8
1523054631896701,-2,-4,-37,-32,-8,-1,4,5
1523054631896701,3,-1,23,5,-3,-1,-2,4
1523054631910685,-8,-3,-1,12,0,-5,-4,-10
1523054631910685,1,8,1,-12,1,-2,3,-2
1523054631919262,4,1,8,16,-1,-3,4,2
1523054631919262,-5,-21,-3,-7,1,2,-6,-6
1523054631934246,-9,2,-5,-2,-9,-2,-1,-19
1523054631934246,18,2,-5,-5,0,-3,8,14
1523054631935809,-2,-8,-5,6,3,0,-2,-1
1523054631935809,-5,-20,-2,-5,-6,-2,-3,2
1523054631947841,0,-5,2,3,-1,-1,2,-4
1523054631947841,-6,16,-18,-9,1,3,4,7
1523054631956809,-2,-3,1,-1,2,-1,-1,-8
1523054631956809,6,8,9,1,-6,-5,-4,-3
1523054631971345,-1,-4,-9,-8,-3,2,2,3
1523054631971345,-5,-1,-9,-9,-7,-4,1,-3
1523054631973369,3,1,15,8,3,3,-1,0
1523054631973369,-6,-9,-18,-10,-1,-1,1,1
1523054631993907,2,16,9,7,-1,-1,-2,-1
1523054631993907,0,-15,-20,-23,-4,-1,-1,-1
1523054631995411,-3,-2,17,10,1,1,0,3
1523054631995411,0,0,-7,-7,-7,-5,-2,-2
1523054632008445,-2,14,2,-10,-6,-2,-5,-8
1523054632008445,3,2,6,6,3,2,2,-3
1523054632014963,-7,-9,-15,-3,-5,-3,1,1
1523054632014963,0,7,7,-4,4,2,-1,1
1523054632031560,-4,-2,-2,5,-4,-3,-2,-2
1523054632031560,-3,-5,-1,2,0,0,1,1
1523054632033033,-4,-6,-12,-9,-8,-1,-2,-1
1523054632033033,-5,21,19,11,9,3,6,1
1523054632054065,-6,-15,-13,-13,-4,-1,-9,-5
1523054632054065,0,-10,7,10,2,-1,5,-3
1523054632055570,-1,-7,-9,-11,-2,0,10,4
1523054632055570,1,16,4,-11,-12,-5,-18,-1
1523054632068604,5,-7,-7,14,18,2,4,6
1523054632068604,-8,-13,-3,-5,-4,-2,-1,-6
1523054632075121,6,8,10,6,0,-2,-4,32
1523054632075121,-3,-6,-16,-7,-7,-4,6,-8
1523054632091721,-1,1,4,-4,-8,-6,-2,-2
1523054632091721,-1,0,2,-1,0,0,-5,1
1523054632093172,3,4,1,8,7,3,1,-7
1523054632093172,5,-4,-3,-1,3,4,-2,6
1523054632114225,-1,-8,-3,-6,-5,-2,-2,4
1523054632114225,2,-8,4,0,-4,-5,1,-6
1523054632115785,-10,-6,9,8,0,-2,-2,-8
1523054632115785,3,-9,-19,-10,-4,-3,-2,-2
1523054632128264,0,10,6,-1,2,0,-4,-11
1523054632128264,-5,-1,2,0,2,1,3,13
1523054632135283,5,-4,-13,-6,-4,-3,-5,-5
1523054632135283,-3,-10,6,6,-1,-3,-2,-2
1523054632151379,-1,-1,-3,3,-7,-2,3,3
1523054632151379,2,4,1,-12,-2,0,4,1
1523054632152829,2,-3,1,1,3,-2,-3,-4
1523054632152829,-2,0,6,9,1,-3,-7,-2
1523054632173939,-1,-7,7,-23,-15,-3,2,3
1523054632173939,2,5,-17,9,11,0,-4,-1
1523054632175388,-4,-8,-6,-5,0,-1,3,-4
1523054632175388,-4,-1,-2,3,-3,0,3,14
1523054632187422,6,-1,-4,5,1,0,-4,-1
1523054632187422,-1,-2,2,-7,-8,-3,-3,5
1523054632196445,-1,2,-1,1,1,-2,-5,-4
1523054632196445,5,13,3,2,4,3,4,11
1523054632211486,-4,-3,-4,-1,0,2,0,-15
1523054632211486,4,13,-2,-5,-5,-3,-3,5
1523054632212990,-7,-3,-4,2,2,-2,-2,-5
1523054632212990,-13,-1,2,0,-1,-2,-2,-45
1523054632234099,-3,0,2,3,4,3,4,9
1523054632234099,15,9,1,-4,-4,-7,-6,7
1523054632235602,2,1,-3,1,1,11,12,20
1523054632235602,11,3,-5,-10,-7,-7,-10,30
1523054632247580,-2,-6,-2,-3,0,-3,-1,-3
1523054632247580,-2,-9,0,1,-4,-4,7,0
1523054632256606,-11,2,2,3,1,-2,-32,-76
1523054632256606,-32,-19,-7,-4,-3,0,46,61
1523054632271644,20,2,-1,4,3,-2,-20,-11
1523054632271644,6,-17,-3,-3,-3,3,-22,0
1523054632273149,-16,8,-3,-1,-2,-24,-62,-49
1523054632273149,10,-19,-4,3,5,14,49,50
1523054632294204,-11,11,4,-1,-2,1,-5,-7
1523054632294204,-4,6,-1,0,2,-5,-11,-35
1523054632295745,-4,-8,5,-4,-3,16,32,-24
1523054632295745,-16,5,1,1,1,-1,-24,-71
1523054632307795,19,-11,-7,-1,-1,-1,2,23
1523054632307795,-9,-7,-3,-2,-2,10,12,-2
1523054632316766,3,9,-2,-1,-2,-4,8,34
1523054632316766,13,0,4,1,-5,-5,-25,-6
1523054632331302,-4,-13,-9,-2,1,2,12,1
1523054632331302,-17,-9,-1,-4,-7,-6,0,-9
1523054632333308,5,-11,-5,1,-13,-11,8,19
1523054632333308,6,2,1,4,17,4,-15,-18
1523054632354365,-3,3,-3,-19,4,1,6,12
1523054632354365,2,10,-5,45,9,4,28,14
1523054632359933,1,-33,-8,-15,0,-4,-20,7
1523054632359933,5,6,2,3,-18,-12,-45,-19
1523054632367900,-10,0,22,32,-9,-2,1,-3
1523054632367900,2,25,-8,-58,1,-2,7,11
1523054632382439,7,-8,0,12,2,7,25,19
1523054632382439,1,1,2,1,-1,-1,1,-3
1523054632391517,-4,1,-9,-5,-3,-1,-8,-6
1523054632391517,-1,-4,4,9,-8,-4,-5,-2
1523054632392968,8,6,6,0,9,3,-2,12
1523054632392968,-6,-12,-4,-18,-1,-1,4,-3
1523054632414078,5,8,3,0,-7,-7,4,6
1523054632414078,-2,-12,-5,0,0,-2,-3,-4
1523054632415581,-4,4,-1,14,-7,0,0,6
1523054632415581,1,-6,-3,-7,9,4,7,-2
1523054632427613,-2,9,6,8,7,3,10,-6
1523054632427613,-5,-12,-3,-8,-8,-5,-21,8
1523054632436583,10,10,7,-1,-4,-2,2,20
1523054632436583,2,9,4,6,-5,0,4,-4
1523054632450620,-4,-5,-2,2,4,0,-7,-2
1523054632450620,-5,-3,-3,-11,4,2,-3,-11
1523054632457639,2,6,-3,-3,-2,-2,2,1
1523054632457639,1,-6,-8,1,-4,-4,-1,-13
1523054632474183,-3,-4,-10,-12,-2,-3,-1,2
1523054632474183,-1,3,2,7,-2,-2,2,-7
1523054632475687,-4,0,-1,-7,-2,-1,2,-2
1523054632475687,1,1,-4,0,0,0,-1,0
1523054632487758,0,-2,-5,0,-2,0,-2,-2
1523054632487758,0,-2,4,0,-5,-3,-2,0
1523054632496745,-4,2,1,-3,0,-2,-1,2
1523054632496745,-3,-2,-11,7,8,2,0,2
1523054632511340,0,-3,-3,1,-6,-6,0,1
1523054632511340,-5,8,3,-2,-2,-1,-1,1
1523054632513287,-5,-5,-12,-11,0,0,2,-1
1523054632513287,0,7,12,9,-7,-8,-3,-1
1523054632533895,-1,2,0,0,5,4,1,-1
1523054632533895,6,7,3,1,3,1,1,0
1523054632535875,-3,-9,-8,1,0,2,0,-2
1523054632535875,-2,3,2,1,-6,-2,-1,2
1523054632547879,-2,-4,-2,2,-6,-2,-3,1
1523054632547879,3,3,0,-7,4,0,1,1
1523054632556402,-1,0,3,-4,-1,-1,1,0
1523054632556402,1,4,2,-7,1,2,1,1
1523054632571500,1,8,-8,-6,-5,-3,-4,-1
1523054632571500,-4,-17,-18,-4,-3,-1,-2,-2
1523054632572946,1,9,28,4,-3,-4,-1,-2
1523054632572946,-2,-5,-12,-2,1,0,0,-1
1523054632594004,-10,-7,0,-1,3,1,3,-3
1523054632594004,1,1,8,5,0,-1,-10,1
1523054632595507,-3,-6,-17,-7,-7,-3,-1,-2
1523054632595507,-3,0,0,-1,0,0,1,0
1523054632616562,2,2,2,-16,-1,2,0,-4
1523054632616562,3,-5,0,1,-2,0,-2,2
1523054632618101,-2,2,-1,-2,0,0,-1,-6
1523054632618101,0,-8,-18,-4,-16,-7,-2,3
1523054632630636,3,7,15,5,16,4,0,-4
1523054632630636,-3,-8,6,23,8,2,5,0
1523054632637620,2,11,-8,-8,-4,-2,-9,-5
1523054632637620,-3,-2,3,0,1,1,3,0
1523054632654163,-5,-5,-13,-8,-10,-6,-4,1
1523054632654163,2,4,3,-8,-7,-3,0,-1
1523054632655667,-2,0,1,10,5,0,0,3
1523054632655667,0,-2,1,-7,-1,-2,-2,-3
1523054632676722,0,-1,-4,0,-5,-4,-2,4
1523054632676722,0,1,1,4,2,2,0,-2
1523054632678226,0,-1,-5,1,-1,-1,2,-1
1523054632678226,1,3,7,-8,0,-2,0,-1
1523054632691762,2,-1,0,3,0,1,-2,-2
1523054632691762,-6,-3,-8,-5,-4,-1,5,0
1523054632693322,4,-5,3,-3,-3,-1,-2,7
1523054632693322,15,1,2,1,2,1,2,18
1523054632713822,-21,-9,-4,1,-2,-5,-11,-48
1523054632713822,-3,-6,-4,-5,-4,-2,-2,-7
1523054632715827,-4,1,3,0,2,1,-11,-19
1523054632715827,-2,4,-1,5,4,5,13,23
1523054632736381,23,-2,-3,-2,-2,-6,1,19
1523054632736381,-12,2,4,-3,-5,-3,-2,-1
1523054632737886,-4,-8,-9,-5,-5,-3,-10,-22
1523054632737886,9,-3,0,3,4,-13,-30,32
1523054632749917,-29,8,-2,-2,-4,10,3,-50
1523054632749917,2,-14,-3,-3,2,-5,23,8
1523054632758943,9,12,8,4,1,7,2,-27
1523054632758943,-6,-14,-12,-12,-9,-8,-16,5
1523054632774039,7,9,-2,-1,-1,-6,9,26
1523054632774039,12,10,7,4,2,-1,-30,-1
1523054632775486,-54,-27,-14,-9,-5,1,25,-61
1523054632775486,-18,7,-1,-4,-4,0,-22,-36
1523054632796596,7,-28,-5,2,1,-1,-7,16
1523054632796596,-9,3,-1,0,-2,8,20,-5
1523054632798104,8,4,0,1,4,-6,-34,-19
1523054632798104,-10,5,9,0,-1,-4,12,-4
1523054632811079,7,-1,0,0,-1,0,3,16
1523054632811079,2,2,-6,-7,-5,-5,-14,-5
1523054632817652,7,-7,-3,0,-2,-4,13,48
1523054632817652,-3,-1,-1,4,6,7,11,-14
1523054632834199,0,2,0,-3,-7,-3,5,1
1523054632834199,1,-1,1,-1,-1,-5,-4,-3
1523054632835701,6,13,3,3,5,0,-4,20
1523054632835701,0,0,0,-2,-2,4,10,-9
1523054632856702,-2,-6,-2,-4,2,-1,-9,1
1523054632856702,-3,-1,-2,1,-2,1,5,3
1523054632858207,9,-2,6,-1,-7,-6,-5,20
1523054632858207,1,0,-6,2,-1,-1,3,-7
1523054632870740,-3,8,8,22,-11,-2,5,11
1523054632870740,-4,-32,-48,-22,23,6,6,-1
1523054632877759,8,8,21,3,-11,-2,3,10
1523054632877759,-1,13,3,7,16,6,4,-4
1523054632893801,-5,-20,-1,-18,-16,-4,-9,-1
1523054632893801,2,-2,12,14,3,-1,2,-1
1523054632895805,2,-6,-21,-13,0,1,6,10
1523054632895805,-1,2,4,-6,-10,-4,3,0
1523054632916360,1,-3,-14,5,6,0,5,3
1523054632916360,5,9,14,3,-4,1,-11,0
1523054632917864,-1,-5,1,-5,4,1,2,8
1523054632917864,2,-5,7,2,-9,-2,2,-2
1523054632930899,-1,-2,-7,3,4,3,-1,-1
1523054632930899,-3,3,-2,-15,-10,-7,-4,4
1523054632937416,1,18,8,9,-2,-1,1,1
1523054632937416,0,-9,-9,-1,2,1,-1,-4
1523054632953960,0,7,11,-4,3,-2,-6,1
1523054632953960,-4,-2,-6,-3,-6,-2,-1,-1
1523054632955464,0,-14,-3,-1,1,0,3,6
1523054632955464,-2,0,1,2,-4,-4,-6,-4
1523054632976578,-4,0,-7,-7,4,0,-4,4
1523054632976578,2,1,8,6,-3,-1,1,0
1523054632978079,-4,-3,-5,3,-2,0,0,0
1523054632978079,2,-4,-5,-7,-5,-1,-1,-5
1523054632991060,1,7,-1,-3,4,1,3,3
1523054632991060,-1,0,3,7,-1,0,-2,-2
1523054632997577,-3,-2,0,-7,-3,-3,-1,2
1523054632997577,-3,-6,-5,15,-5,1,-6,2
1523054633014157,1,1,-4,-13,1,-3,0,-3
1523054633014157,4,3,6,-1,-1,2,1,-1
1523054633015662,-3,6,-7,3,-3,-3,-1,-2
1523054633015662,-6,-20,3,-5,2,-1,-3,-3
1523054633036680,2,4,11,9,-1,0,1,-3
1523054633036680,2,9,-9,-12,-4,0,0,-2
1523054633038187,-1,-6,-13,-4,4,1,1,4
1523054633038187,-1,-1,-3,-8,-5,0,-2,-3
1523054633050271,1,2,2,-1,-5,-2,-4,-1
1523054633050271,-1,-4,11,5,-7,-5,-3,0
1523054633059255,1,5,-3,2,3,2,1,-2
1523054633059255,2,9,18,-2,-3,-3,2,-2
1523054633073779,0,-6,-6,0,3,0,-1,-1
1523054633073779,-4,-4,-11,-5,0,-1,-3,-2
1523054633075839,0,-3,-5,-1,-6,-3,-2,0
1523054633075839,1,-1,-6,2,-1,-1,-1,-2
1523054633096394,0,4,9,4,9,2,0,0
1523054633096394,-2,-2,-5,2,-6,-2,-3,0
1523054633098376,-1,-3,5,3,2,1,5,0
1523054633098376,-1,-1,4,7,5,0,1,1
1523054633110376,0,1,-8,-18,-11,-12,-7,-4
1523054633110376,-3,-4,-6,3,-2,8,26,-1
1523054633118899,0,-3,2,-2,3,-1,-9,-2
1523054633118899,-1,1,3,2,1,-1,0,0
1523054633133940,0,1,-4,3,4,-1,0,-1
1523054633133940,0,-1,7,-1,4,2,-7,-1
1523054633135480,-2,0,0,3,-3,-1,2,1
1523054633135480,0,3,2,0,0,0,3,-1
1523054633156534,-3,-4,-9,-7,-6,1,-6,0
1523054633156534,2,0,-9,-6,-2,-2,-9,0
1523054633158003,1,1,3,0,3,0,0,2
1523054633158003,-1,-3,-4,-2,2,-2,-6,-1
1523054633170036,-2,-1,4,2,1,3,1,-1
1523054633170036,1,2,4,8,-4,-3,-3,0
1523054633179061,2,4,2,0,-1,-3,-1,0
1523054633179061,-4,-10,-14,-12,-3,-4,-2,-3
1523054633194135,-2,0,2,7,1,-1,3,0
1523054633194135,-6,0,18,-7,1,0,-3,-3
1523054633195642,1,1,-4,2,-2,-1,-4,-2
1523054633195642,-1,-10,-9,-5,-1,2,3,-4
1523054633216659,-3,-16,-5,2,-7,-3,-4,-3
1523054633216659,-1,4,1,3,6,6,7,0
1523054633218217,-3,-5,0,-2,1,0,-9,3
1523054633218217,11,6,-2,0,-1,-6,0,-13
1523054633230250,-16,-6,-4,-2,-1,2,-1,-30
1523054633230250,-1,-7,-4,0,-2,-5,20,8
1523054633239220,3,0,3,-2,0,1,-8,-1
1523054633239220,-7,3,-2,2,3,3,-7,5
1523054633253759,9,3,8,1,-1,-1,3,55
1523054633253759,-8,2,-1,-2,-4,-7,-1,3
1523054633255819,-18,-5,-1,1,1,-9,-31,-62
1523054633255819,7,4,-3,-7,-3,-6,25,-3
1523054633276319,4,-3,-3,-7,-5,15,33,24
1523054633276319,-3,-6,9,3,0,-3,-24,-22
1523054633278325,-5,11,-2,-4,1,6,-11,-51
1523054633278325,15,-20,20,7,5,19,13,54
1523054633290392,-11,-14,-4,-5,-4,-14,-12,-28
1523054633290392,-1,14,-5,0,0,12,15,8
1523054633298878,-2,33,15,4,0,-6,15,-5
1523054633298878,-10,10,-6,-5,-1,-15,-33,-13
1523054633313971,13,4,2,2,3,13,29,1
1523054633313971,26,-2,13,3,-3,-4,-22,14
1523054633315480,-9,-2,-11,-2,-2,-3,10,10
1523054633315480,-8,-8,-9,-3,-2,8,-17,8
1523054633336480,-18,9,3,0,0,-22,-24,-11
1523054633336480,-1,-7,-18,-8,-4,11,0,2
1523054633337984,-2,-22,-2,-4,-5,-1,-2,23
1523054633337984,3,7,0,6,2,0,7,5
1523054633350015,5,-1,-5,-1,6,12,-6,-12
1523054633350015,-10,-7,0,4,-2,-6,-3,-11
1523054633359039,6,-13,-3,-7,2,-3,6,23
1523054633359039,-4,23,8,-4,-8,-1,1,-22
1523054633374132,-3,-11,-12,0,-1,-5,-1,-1
1523054633374132,-3,-2,-3,-7,-1,-10,-6,-6
1523054633375640,5,-7,3,17,-8,1,4,12
1523054633375640,4,-10,-21,-25,26,4,4,-3
1523054633396689,3,3,9,-2,-11,-3,-3,11
1523054633396689,2,12,-9,-10,-3,-6,4,6
1523054633398196,1,2,11,17,-5,7,4,8
1523054633398196,-6,-6,-16,0,7,-2,0,-9
1523054633410174,0,-8,12,9,-8,-7,-8,2
1523054633410174,-5,-13,-5,3,2,-2,0,-26
1523054633419198,6,-3,9,-13,3,3,13,19
1523054633419198,-2,5,0,14,-11,-7,-8,-23
1523054633434239,1,-8,-4,-5,4,-1,-3,-11
1523054633434239,4,6,3,-5,-6,-1,-6,-5
1523054633435743,7,-1,-8,-12,-4,-5,3,14
1523054633435743,-22,-14,-3,2,-5,-7,2,-4
1523054633456351,1,9,-2,-2,1,5,3,-10
1523054633456351,3,10,0,9,5,-3,1,0
1523054633457801,-4,-12,-16,-5,-2,-15,-22,2
1523054633457801,0,9,20,3,-8,3,2,1
1523054633470334,1,20,0,-8,-6,-2,-6,7
1523054633470334,-9,-5,-6,-7,0,-3,0,-3
1523054633478858,0,7,-4,-19,1,-3,-2,-1
1523054633478858,1,-12,-5,21,6,1,-2,-1
1523054633493397,4,13,-1,-4,-2,-7,-3,0
1523054633493397,1,-10,2,-4,-6,3,8,9
1523054633499912,1,-1,-4,3,-11,-2,1,-8
1523054633499912,-2,-5,-4,-8,6,2,-3,0
1523054633516515,2,-6,-7,3,5,3,-1,3
1523054633516515,-4,-7,2,2,1,-4,-7,0
1523054633518019,-3,7,2,9,2,3,2,2
1523054633518019,4,4,-3,-8,-6,-3,3,1
1523054633529992,-6,0,-6,-7,-4,-3,-5,-7
1523054633529992,-2,-6,11,5,6,1,-4,0
1523054633539017,-1,5,-8,3,0,4,6,-11
1523054633539017,1,-14,-3,-6,-5,-1,4,19
1523054633554126,-5,-12,-12,-5,1,1,-3,-1
1523054633554126,-1,4,7,5,-3,-3,-9,-5
1523054633555632,0,-10,1,-1,6,5,13,22
1523054633555632,1,10,5,-6,-5,-2,-3,-6
1523054633576686,-2,-10,-3,4,0,-1,-1,-4
1523054633576686,-1,2,5,0,-3,-1,-1,5
1523054633578192,-3,-16,-13,-7,0,-4,-6,-8
1523054633578192,-2,-7,-3,-4,-6,-4,-2,-4
1523054633599246,1,4,3,-2,-1,-1,0,3
1523054633599246,2,-1,-13,1,1,2,1,-2
1523054633600805,-2,-5,12,-2,2,-1,-2,-4
1523054633600805,-3,-3,-1,4,-2,-1,-2,-3
1523054633613786,0,-1,0,-10,-7,-2,-3,-3
1523054633613786,0,10,-6,3,9,-1,-3,2
1523054633615792,-4,-15,-2,21,3,2,-1,-2
1523054633615792,3,8,-1,-3,-2,-2,0,3
1523054633636345,-3,1,2,2,0,-1,-1,-3
1523054633636345,1,-3,0,-16,-6,-3,-1,-2
1523054633638350,2,17,-7,4,0,1,-1,0
1523054633638350,-2,-4,-2,-6,-4,2,0,-4
1523054633658905,5,-5,4,3,5,0,-2,-2
1523054633658905,-12,-4,-4,-1,-3,-2,-1,-2
1523054633660411,3,6,5,-3,-3,-1,-2,-5
1523054633660411,2,7,0,0,1,-1,-3,-1
1523054633673981,-5,-4,7,0,-1,2,1,-8
1523054633673981,5,-5,-4,-1,-3,-3,2,-4
1523054633675450,-2,-4,-3,-9,-3,0,-1,-3
1523054633675450,-2,2,-2,-4,-7,-3,-2,0
1523054633696539,-1,-3,1,5,4,3,-1,-2
1523054633696539,1,-2,0,3,5,0,-1,1
1523054633698047,-2,0,1,-8,-7,-2,-2,0
1523054633698047,4,-2,0,-3,-1,-2,0,-6
1523054633719065,-1,2,-1,3,-1,-3,-2,2
1523054633719065,-2,-1,-2,-2,-8,-1,-1,0
1523054633720571,0,-6,-11,-6,4,-1,-3,-1
1523054633720571,-6,-3,8,-4,-6,-2,-3,0
1523054633733604,-2,2,0,3,1,0,0,2
1523054633733604,0,-1,-9,-1,-2,-1,-1,4
1523054633740121,-1,2,4,-5,-2,-1,0,-16
1523054633740121,-1,-6,-5,0,-2,-9,-8,19
1523054633756665,2,-8,-5,0,-2,3,14,11
1523054633756665,6,-6,3,-2,-1,6,8,-6
1523054633758203,3,3,-5,-1,1,-1,-6,20
1523054633758203,-2,1,4,2,3,-6,14,3
1523054633779225,6,7,4,1,7,14,-18,-16
1523054633779225,0,-2,9,5,-1,-12,2,5
1523054633780768,12,1,-4,-6,-4,1,1,-9
1523054633780768,1,-10,-11,-1,-1,-3,-12,3
1523054633793299,-7,-7,4,1,2,-10,-46,-8
1523054633793299,-7,-16,-6,-3,-1,19,35,5
1523054633800283,-30,32,9,-1,-2,-13,-11,-48
1523054633800283,-2,5,1,1,0,-14,-2,3
1523054633816324,-3,12,-3,-6,-5,6,18,-11
1523054633816324,14,-28,-9,0,2,-5,-31,11
1523054633817828,0,-13,-9,-6,-5,-12,-10,16
1523054633817828,-1,-4,-3,2,-2,8,3,-8
1523054633838938,-12,-4,1,-2,-3,-4,3,-12
1523054633838938,13,-6,-12,-2,0,-4,2,13
1523054633840890,2,-4,-3,1,1,2,0,7
1523054633840890,-6,3,3,1,-2,2,-2,-16
1523054633853424,10,-3,-8,-4,-6,-5,0,17
1523054633853424,-1,12,6,0,-1,-5,-3,-12
1523054633859994,-3,-8,6,5,1,7,13,7
1523054633859994,6,-9,-9,5,9,6,-4,5
1523054633876542,-6,1,-14,-21,-4,-1,6,-2
1523054633876542,-12,10,8,10,7,-7,-24,-8
1523054633878042,-4,-3,2,-4,-6,0,12,-3
1523054633878042,-7,-24,1,-3,-18,-3,-6,-1
1523054633899099,4,-4,-14,6,28,3,7,7
1523054633899099,-11,9,-6,-8,-13,-3,1,-9
1523054633900603,9,1,19,9,3,5,2,12
1523054633900603,-1,10,-1,-7,3,4,7,-5
1523054633912634,-3,-7,-2,4,-11,-8,-6,0
1523054633912634,-2,-6,-11,0,7,7,3,-1
1523054633921605,0,5,-4,-18,-8,-2,2,1
1523054633921605,-1,3,23,18,7,1,2,-1
1523054633936645,-2,0,-5,-1,-2,-2,3,-1
1523054633936645,-1,8,8,-9,-5,-4,-3,-2
1523054633938149,-1,-9,-6,8,-5,-3,-7,0
1523054633938149,-1,5,-8,-9,-1,-1,0,-6
1523054633958736,4,-2,8,4,-7,-4,0,4
1523054633958736,-4,11,-1,-3,3,2,-2,-3
1523054633960742,-2,-8,-10,-12,0,2,2,1
1523054633960742,1,3,-6,-3,-3,-3,-4,-3
1523054633972772,-1,-2,5,2,-3,-3,3,1
1523054633972772,-2,-1,2,9,-2,-5,-2,0
1523054633981796,-2,4,-9,2,4,0,-2,-3
1523054633981796,-1,-19,-1,0,6,5,1,0
1523054633996336,-8,6,5,3,-3,-1,-2,-1
1523054633996336,-3,-3,-5,-8,-5,-3,0,-3
1523054633998342,0,6,-3,1,1,1,-2,1
1523054633998342,0,9,-7,-5,-5,-1,0,-3
1523054634018896,1,-6,13,1,-3,-3,-1,-1
1523054634018896,-1,0,-4,4,0,-1,-2,0
1523054634020400,-2,-4,-5,0,3,0,0,0
1523054634020400,0,13,12,-5,-13,-5,0,0
1523054634033433,-2,-2,-9,5,11,4,0,-2
1523054634033433,1,3,1,1,1,3,-1,-3
1523054634039952,1,-3,4,-5,-8,-5,-2,-1
1523054634039952,-3,2,2,3,3,3,1,-3
1523054634056496,3,14,2,-8,-11,-8,-2,2
1523054634056496,-5,-23,3,6,2,0,-1,-2
1523054634058000,-2,-5,-2,-7,-2,-1,-2,-2
1523054634058000,1,-3,-10,11,-1,-1,0,1
1523054634079056,0,-2,-2,-11,3,2,4,0
1523054634079056,-2,10,-4,-7,-4,0,0,-2
1523054634080560,-1,-6,-6,-2,-5,-2,-3,-2
1523054634080560,0,11,1,-4,-8,-4,-2,-1
1523054634092590,0,-12,-10,4,6,1,0,-2
1523054634092590,-2,-13,6,-2,-3,0,-1,1
1523054634101616,-1,-6,-1,-3,-4,-1,-1,0
1523054634101616,-1,-1,-4,-4,-3,-3,-3,-3
1523054634116655,-1,-5,2,14,5,2,0,0
1523054634116655,-1,10,-7,-12,-1,0,0,-1
1523054634118160,-1,-4,0,5,3,2,-1,-2
1523054634118160,-1,-8,-7,-4,0,-1,-1,-1
1523054634139215,0,2,-2,-1,-7,-3,-1,-2
1523054634139215,2,14,11,1,-2,-3,-2,-2
1523054634140721,-6,-28,-8,-1,2,0,-1,-2
1523054634140721,1,14,-4,-7,-4,-1,-1,-2
1523054634152751,-2,2,4,-3,-7,-1,-2,0
1523054634152751,-2,-1,-1,2,1,-1,-2,0
1523054634161776,3,5,0,4,4,1,1,1
1523054634161776,-2,-10,-5,-4,3,0,-1,-4
1523054634176315,-2,2,5,-1,-4,-5,-1,-4
1523054634176315,2,1,-4,4,0,-1,-2,-2
1523054634178321,1,5,1,0,-1,-1,-1,0
1523054634178321,-1,-2,0,-2,2,0,1,0
1523054634198874,-2,-4,-14,-1,0,-1,-1,0
1523054634198874,1,7,5,-3,0,-2,-2,0
1523054634200379,1,7,2,0,2,2,0,1
1523054634200379,-1,-3,1,0,1,0,-1,-2
1523054634212411,-1,-6,-6,-3,-2,-4,-3,-1
1523054634212411,-4,-3,-1,1,-2,-2,1,-1
1523054634221434,-1,4,-6,-2,-3,-3,-3,0
1523054634221434,-2,-14,6,1,1,0,0,0
1523054634236474,-1,-1,1,1,1,2,1,-1
1523054634236474,1,11,3,-2,-2,0,-1,-1
1523054634237978,-3,-1,-1,0,-1,-3,1,-17
1523054634237978,2,3,3,0,0,1,0,5
1523054634259034,7,0,1,-2,-1,-1,-1,-8
1523054634259034,-14,-11,-7,-4,-3,-1,-4,-11
1523054634260538,0,9,9,5,3,2,2,4
1523054634260538,4,0,-11,-7,-3,1,3,11
1523054634272624,-4,-1,3,-2,-6,-3,-13,10
1523054634272624,11,5,-1,-3,-1,-4,12,22
1523054634281648,-7,-4,-5,-1,-1,-1,-33,-28
1523054634281648,9,-1,4,0,-3,0,11,21
1523054634296634,3,1,-5,-2,-3,-25,18,42
1523054634296634,5,-13,-5,1,0,10,11,-12
1523054634298138,18,-3,-4,-5,-2,-12,-54,13
1523054634298138,-17,-9,-2,3,1,4,48,-34
1523054634319194,1,11,7,-6,-6,-2,-17,4
1523054634319194,0,-12,-4,1,0,12,-5,-35
1523054634320699,17,6,3,5,1,-18,5,10
1523054634320699,-7,16,0,1,5,0,-19,9
1523054634332730,-10,-15,-5,-4,-3,-1,12,-10
1523054634332730,2,2,2,-1,1,0,-9,64
1523054634341754,-12,-15,-6,-4,-4,8,20,-25
1523054634341754,2,21,8,1,0,-1,-7,2
1523054634356292,-6,-3,-6,0,0,0,1,-18
1523054634356292,0,2,2,-3,-3,-5,-3,9
1523054634358299,-11,0,-5,-2,-1,2,16,5
1523054634358299,2,12,1,4,1,-5,-6,-1
1523054634378906,5,-7,1,3,1,6,0,-2
1523054634378906,-1,-3,-5,-2,0,0,-11,-15
1523054634380858,-11,0,1,6,0,2,15,7
1523054634380858,1,-11,-4,-9,-3,-6,-10,-16
1523054634392448,2,-1,11,-9,-12,5,-2,-8
1523054634392448,-1,0,-18,17,12,-3,2,-2
1523054634401414,1,6,19,-1,-11,-1,14,6
1523054634401414,0,7,-2,-4,-7,0,-2,9
1523054634416452,-5,-10,-12,-12,4,3,-10,-11
1523054634416452,-4,-12,-1,-5,-14,-9,-2,-6
1523054634417958,0,0,9,5,5,3,-2,5
1523054634417958,-3,0,-3,-3,6,6,-3,-1
1523054634439014,4,4,2,-15,-5,1,12,7
1523054634439014,-7,-1,-9,6,-2,-3,-18,-17
1523054634440518,-5,-12,-11,-2,-2,0,6,1
1523054634440518,-4,-22,-7,-2,2,-1,-6,-4
1523054634452550,-2,3,2,5,0,-3,-5,-5
1523054634452550,1,2,-1,1,5,3,9,5
1523054634461575,-2,3,7,-11,-2,-1,-2,0
1523054634461575,2,-2,0,2,-2,-2,0,3
1523054634475610,-2,3,-2,9,5,3,11,-4
1523054634475610,-2,5,5,-6,-7,-7,-35,-15
1523054634482683,-1,-2,-9,-4,-1,-1,4,5
1523054634482683,-5,-9,4,-1,-2,0,-8,-14
1523054634499174,2,5,-2,4,4,2,-2,0
1523054634499174,-2,-11,1,-11,-9,-5,10,0
1523054634500678,-5,3,0,4,-2,0,-4,-1
1523054634500678,-2,-6,-3,-2,-1,-2,-6,-2
1523054634521739,-7,2,-2,0,1,0,-2,-3
1523054634521739,4,-6,3,1,6,1,9,2
1523054634523237,1,3,-2,-6,-9,-2,-6,1
1523054634523237,-1,2,0,4,2,-2,-1,2
1523054634535772,-1,-17,1,9,-3,0,-3,0
1523054634535772,-2,8,-1,-7,-1,-3,4,-1
1523054634542789,1,1,-1,-9,1,1,4,2
1523054634542789,0,-6,-8,0,-2,-2,-2,-1
1523054634558887,1,7,2,1,3,1,-12,-6
1523054634558887,-2,-2,-3,-18,-8,-4,5,2
1523054634560836,-2,-17,-4,21,-1,-2,-1,1
1523054634560836,5,20,6,10,12,3,1,4
1523054634581391,-1,2,-3,-8,0,-2,-3,-1
1523054634581391,-2,4,3,1,-1,-2,3,2
1523054634582896,-1,-12,-21,-10,-2,0,0,-1
1523054634582896,0,3,19,-1,-9,-6,-6,-1
1523054634596433,-1,0,-4,7,2,0,1,-1
1523054634596433,-2,2,0,-6,2,2,2,-3
1523054634597937,3,9,-2,6,2,0,1,0
1523054634597937,-3,-18,-19,2,-6,-3,-3,-3
1523054634618991,4,12,11,-16,-4,-3,-3,0
1523054634618991,-1,5,1,3,0,0,3,0
1523054634620496,-1,-4,2,0,2,0,-4,-2
1523054634620496,0,11,0,-6,-6,-2,-2,-3
1523054634641605,-2,-4,-6,7,-5,-1,3,2
1523054634641605,0,-3,-4,0,8,0,1,2
1523054634643056,1,10,9,-4,-4,-1,2,-1
1523054634643056,-9,-9,-2,-2,3,0,-2,-2
1523054634656091,-5,2,2,3,2,1,2,-5
1523054634656091,-2,-13,3,-1,-6,-2,-4,-18
1523054634662609,3,11,-4,-5,-3,-3,0,0
1523054634662609,-7,-3,5,1,1,0,-1,1
1523054634679151,-3,-5,-8,-2,-1,0,-4,-3
1523054634679151,0,9,7,0,-2,0,0,1
1523054634680656,-5,-4,-3,-4,-2,0,1,0
1523054634680656,-4,-10,-5,-4,-5,-3,0,5
1523054634701210,5,-2,-1,2,0,-1,-2,0
1523054634701210,3,17,3,1,0,0,-2,2
1523054634703216,-4,-9,0,-3,-1,-1,-5,-1
1523054634703216,2,-4,-3,-2,-2,-1,-2,-10
1523054634715750,1,-1,-5,-1,-4,-2,1,7
1523054634715750,5,-6,-4,1,-3,0,1,19
1523054634722801,-7,11,5,2,3,-2,-3,-13
1523054634722801,2,3,-4,-4,-2,0,-1,13
1523054634738844,9,13,8,-2,0,0,-2,-5
1523054634738844,-13,-27,-4,2,-2,3,-9,38
1523054634740838,31,-10,4,1,1,-1,17,30
1523054634740838,-37,-11,-6,-3,-3,-6,-2,0
1523054634761406,0,-9,-9,-5,-7,-3,9,7
1523054634761406,4,11,-3,-2,-4,-11,-32,-68
1523054634762876,-1,-4,0,2,4,10,-2,1
1523054634762876,-2,29,11,0,-1,-1,10,-18
1523054634774908,-5,-36,-10,-2,-4,-6,-10,-12
1523054634774908,3,4,-2,-4,-1,-6,3,20
1523054634783429,-25,-14,-8,-3,-5,-6,-8,-54
1523054634783429,22,1,-3,-3,-2,-12,-10,-18
1523054634798469,-25,20,6,0,3,7,2,-2
1523054634798469,-19,1,0,-2,-2,6,13,-15
1523054634798971,-13,-4,-7,0,1,-14,-17,-15
1523054634798971,30,-22,-2,-3,-2,3,3,46
1523054634820562,7,24,5,2,2,-4,3,0
1523054634820562,-5,-7,-8,-3,-4,-6,4,-2
1523054634821565,-13,-7,5,-3,-1,-1,-7,-8
1523054634821565,-6,-14,-9,0,-2,1,0,-3
1523054634844127,-4,4,0,1,0,2,-5,-15
1523054634844127,9,7,1,3,-1,6,7,1
1523054634844593,9,5,-3,0,0,-1,-3,11
1523054634844593,-9,-11,3,0,1,5,0,-18
1523054634858164,8,-1,-2,-3,-7,-8,-7,14
1523054634858164,-2,6,2,1,4,-1,0,0
1523054634859169,7,-13,-1,3,6,8,7,14
1523054634859169,-2,5,-3,-6,-3,-3,2,3
1523054634880687,-4,-9,-4,-1,-2,2,-10,-5
1523054634880687,2,-4,3,2,-8,-10,0,-3
1523054634881690,4,9,0,-1,1,1,0,1
1523054634881690,4,8,0,-5,-2,5,4,-2
1523054634903751,-5,-13,0,-1,0,-2,3,4
1523054634903751,0,8,-6,-1,2,3,3,2
1523054634904753,6,5,7,-6,-11,-2,-7,6
1523054634904753,-2,9,-2,15,11,0,-2,-1
1523054634918289,-1,-5,-2,-16,-3,1,4,2
1523054634918289,1,-10,-13,0,5,1,8,4
1523054634918790,-3,7,11,-11,-6,5,2,-4
1523054634918790,-1,-5,7,3,-3,-4,-11,0
1523054634940848,2,4,-4,-1,1,-2,3,-5
1523054634940848,2,0,9,0,-2,2,8,1
1523054634941349,-7,11,-19,-4,4,-3,-12,4
1523054634941349,-6,-12,0,1,-3,-4,-16,-11
1523054634963910,1,-1,-4,4,0,-1,-2,-1
1523054634963910,2,-4,11,1,-2,-2,0,5
1523054634964913,-1,-2,2,0,-7,-4,4,1
1523054634964913,2,1,-6,-6,0,3,3,-1
1523054634978448,4,-11,-3,9,5,-2,-6,0
1523054634978448,-10,-5,-4,2,2,2,-1,-3
1523054634978949,10,6,5,-4,0,-1,1,-4
1523054634978949,2,4,3,-1,-3,0,0,3
1523054635001008,-4,-13,-5,-1,0,-1,1,-1
1523054635001008,6,-3,-2,-1,-4,-3,-3,-1
1523054635001511,6,0,2,10,3,0,2,15
1523054635001511,-4,-5,-9,-3,-2,-1,1,-9
1523054635015086,-2,9,15,-2,-9,-5,-1,-8
1523054635015086,-4,1,-2,1,2,-1,-1,-3
1523054635023568,0,2,-12,-2,4,4,7,8
1523054635023568,-1,-7,13,-1,-3,-2,-2,-7
1523054635038608,0,3,-8,-8,-3,-1,-2,3
1523054635038608,-3,-2,-3,6,-7,-4,-5,-2
1523054635039109,-6,-9,-8,-20,0,-1,5,-12
1523054635039109,2,6,-3,7,-3,-2,3,9
1523054635060667,0,11,-6,-3,5,3,-2,-4
1523054635060667,0,-14,13,9,-4,-3,-4,2
1523054635061670,-7,-21,-12,-3,-5,-3,-4,-2
1523054635061670,5,18,5,-2,0,0,-1,1
1523054635075205,-1,-5,0,6,-6,-3,2,7
1523054635075205,2,7,-9,-26,-3,-3,-5,-4
1523054635083226,-1,0,7,18,3,0,-3,9
1523054635083226,2,-2,0,-5,4,4,8,24
1523054635098301,-5,-5,-3,5,0,1,-2,-13
1523054635098301,-1,4,-3,1,-3,-1,0,0
1523054635099304,-12,21,4,-2,-2,-4,-3,-3
1523054635099304,0,-12,1,1,-1,2,8,-7
1523054635120862,0,29,20,0,2,1,-4,4
1523054635120862,-1,-2,-13,-8,-3,-3,-6,-2
1523054635121330,2,-3,0,-2,-4,-4,2,-5
1523054635121330,-7,-1,-13,6,2,-1,-2,4
1523054635135365,-19,-9,16,3,2,0,6,-25
1523054635135365,1,9,5,-7,0,0,-7,-5
1523054635142887,-1,-27,-4,1,-3,0,-2,-2
1523054635142887,-5,-5,-12,-7,-13,-5,-1,-11
1523054635158427,6,-5,1,6,11,1,-3,6
1523054635158427,-1,-7,-5,0,-2,2,4,9
1523054635158928,-2,17,-10,-4,3,0,1,-5
1523054635158928,0,-8,16,-2,0,-3,-6,-2
1523054635181000,1,-6,-14,-1,-2,0,-1,6
1523054635181000,1,-7,4,2,-2,-2,0,-2
1523054635181526,12,-7,-2,0,-3,-2,-3,3
1523054635181526,-13,13,8,-2,1,1,-2,-5
1523054635195024,3,1,-13,-7,-7,-4,-4,8
1523054635195024,-6,-3,2,1,3,1,3,-6
1523054635203547,2,-14,-3,0,-3,-1,0,-3
1523054635203547,6,18,-2,-3,2,-2,-5,-5
1523054635218588,0,-7,-2,-2,-3,-2,-1,-1
1523054635218588,1,-13,-5,0,1,2,-2,-8
1523054635219090,-3,8,6,2,-1,1,3,0
1523054635219090,-9,-6,-8,-3,-2,-3,-5,-4
