timestamp,emg1,emg2,emg3,emg4,emg5,emg6,emg7,emg8
1523179563649837,1,-3,-3,-9,-11,10,20,5
1523179563649837,7,2,3,-7,-2,7,-22,8
1523179563649837,0,0,2,-3,-74,-41,-7,-8
1523179563649837,-8,0,0,14,89,33,12,-11
1523179563663870,7,0,0,8,31,11,6,21
1523179563663870,-5,-3,-6,-19,-41,-27,-9,-5
1523179563664874,7,4,2,-6,-69,-23,-4,-1
1523179563664874,-1,-3,2,25,45,11,-13,7
1523179563686929,-3,1,-1,-29,-14,1,23,-14
1523179563686929,1,-4,-5,-8,-21,-20,5,15
1523179563687932,-3,0,2,5,60,28,1,-6
1523179563687932,-2,-6,-8,-17,-51,-23,-5,-8
1523179563708987,9,2,1,3,32,15,3,30
1523179563708987,-11,-5,-10,-17,-17,-16,-7,-36
1523179563709990,-8,1,0,-3,34,9,13,-6
1523179563709990,-7,-1,2,16,-51,-36,-31,-15
1523179563724027,5,0,2,-24,11,11,3,14
1523179563724027,2,-2,-1,24,-46,-15,-10,3
1523179563725030,-1,-5,-5,0,9,3,-5,-3
1523179563725030,6,4,-2,-21,-2,0,2,4
1523179563747092,-2,-2,2,2,18,6,0,-2
1523179563747092,-2,-7,-6,8,88,14,7,0
1523179563748096,-6,-4,-2,-3,-20,8,-28,-12
1523179563748096,0,5,-4,-9,25,-13,-2,5
1523179563769149,-1,-3,1,3,-33,-9,0,1
1523179563769149,0,4,8,52,47,22,4,4
1523179563770150,3,0,1,6,-13,12,1,11
1523179563770150,-1,-3,0,6,69,-2,-1,-4
1523179563784188,-2,0,-4,-19,9,19,5,0
1523179563784188,-9,0,1,-12,-34,-15,-16,-16
1523179563785191,14,0,-1,-4,0,-6,1,34
1523179563785191,-11,1,6,6,-46,-21,5,-29
1523179563806247,7,3,7,60,89,49,-28,17
1523179563806247,2,0,-7,-28,-13,3,46,-3
1523179563807249,-6,-1,-4,-15,7,-10,-5,3
1523179563807249,5,-2,-1,-1,-9,32,6,3
1523179563829309,-10,-8,-7,-16,0,-11,6,-21
1523179563829309,7,4,5,1,-50,-13,-27,11
1523179563830316,-2,0,-1,29,8,-3,0,-4
1523179563830316,-3,0,-1,-6,-43,1,8,-9
1523179563844583,6,-3,-5,-18,-13,-26,4,16
1523179563844583,-14,1,4,16,64,9,-11,-22
1523179563845349,2,-3,-4,-38,-45,-7,7,-2
1523179563845349,1,0,-1,13,12,12,-5,8
1523179563866414,3,5,5,-8,5,-1,5,5
1523179563866414,0,-11,-13,-33,-24,-7,-1,16
1523179563867409,-6,6,14,51,39,15,14,-33
1523179563867409,2,-1,1,18,20,26,13,8
1523179563889468,-6,-6,-10,-17,6,-11,-12,-10
1523179563889468,1,2,-5,-25,-19,1,0,-7
1523179563890470,-4,-8,-1,-2,-5,-5,1,6
1523179563890470,2,-1,-1,8,35,-12,-1,9
1523179563904508,6,-2,-5,-37,-86,-8,2,11
1523179563904508,-8,1,6,28,41,9,23,-9
1523179563905509,-1,-1,-5,-24,0,-8,-10,-6
1523179563905509,-4,2,1,-3,-36,-37,-8,-13
1523179563926566,-7,-3,-1,14,41,17,2,-12
1523179563926566,11,-3,-3,-8,29,-6,-15,21
1523179563927568,-7,1,-1,0,-17,8,-8,-17
1523179563927568,5,-3,-1,0,-11,-7,17,19
1523179563949670,2,5,2,33,20,-1,1,6
1523179563949670,-14,-8,-1,-48,-19,0,-4,-19
1523179563949670,13,1,7,47,39,15,1,13
1523179563949670,-10,-3,-6,-15,-34,2,-15,-11
1523179563964672,-5,-2,-3,-3,-15,-16,-3,-9
1523179563964672,2,3,-1,4,-18,-10,-6,11
1523179563964672,6,2,0,-16,2,-5,-11,15
1523179563964672,-6,1,-2,-9,33,-3,-5,-17
1523179563986727,-4,-1,1,0,-19,-12,1,-9
1523179563986727,-1,0,1,16,33,19,0,-13
1523179563987730,-2,0,-3,-18,-1,8,2,10
1523179563987730,6,-2,-2,-3,-33,17,15,15
1523179564008785,-10,0,-2,2,40,4,-8,-14
1523179564008785,3,0,-3,-3,-46,-26,-2,16
1523179564009786,3,0,0,21,12,7,10,-18
1523179564009786,11,4,1,-1,35,6,5,22
1523179564024865,-9,-12,-5,1,-22,-10,-15,-22
1523179564024865,-2,3,1,-25,-2,1,6,-30
1523179564024865,-8,-3,-1,10,1,-14,-9,-2
1523179564024865,4,0,1,-3,-24,-9,-2,2
1523179564046889,4,4,3,6,41,25,8,2
1523179564046889,0,-3,-7,-3,-29,-1,21,15
1523179564047893,-8,-3,-3,-27,13,-7,0,-2
1523179564047893,19,-3,1,3,0,5,-10,25
1523179564069180,-31,-5,-5,-11,-51,-30,-16,-49
1523179564069180,10,6,7,33,15,32,4,11
1523179564069950,4,2,-6,-24,-25,-13,1,2
1523179564069950,1,-1,8,72,23,-10,-7,8
1523179564083983,8,2,-3,-8,-30,10,16,25
1523179564083983,-5,-9,-6,-12,-30,-19,-16,-12
1523179564092047,-8,0,-3,-27,-13,-21,-4,-10
1523179564092047,-7,0,2,-10,35,7,-6,-11
1523179564107088,4,-1,0,-9,27,31,5,5
1523179564107088,0,1,1,12,-33,-8,-10,-3
1523179564108147,5,-6,-3,7,40,-1,3,8
1523179564108147,-6,-5,-5,-19,-68,-11,3,0
1523179564137126,-7,-1,-4,-2,80,24,-7,-14
1523179564137126,0,0,-1,-12,-10,-15,-13,8
1523179564138128,0,6,10,22,10,12,4,-8
1523179564138128,-2,-2,-5,-19,-32,-3,0,0
1523179564143141,15,1,-5,-29,-11,-25,4,34
1523179564143141,-10,-8,-4,9,-18,-6,-21,-9
1523179564152165,-8,4,6,5,32,8,3,-12
1523179564152165,-11,-4,-5,-14,-27,-16,-8,-23
1523179564166205,6,1,2,-4,-11,-5,1,8
1523179564166205,4,2,2,-8,9,-10,-10,8
1523179564167205,0,-2,-4,-5,17,17,8,-1
1523179564167205,1,-4,-3,11,-53,-7,-3,4
1523179564189264,-4,-1,-4,-23,-6,0,4,-13
1523179564189264,1,-1,2,28,-4,17,8,-3
1523179564190267,2,1,-8,-19,-37,-27,-11,9
1523179564190267,-1,-6,-2,-4,25,2,-2,-1
1523179564203304,5,0,3,42,-1,-7,-4,9
1523179564203304,-5,-3,3,15,6,-10,-2,-17
1523179564211558,-8,1,6,8,23,27,3,-15
1523179564211558,-2,4,-1,-27,44,20,-4,-3
1523179564226405,3,-3,-3,2,-13,-6,5,4
1523179564226405,7,0,-7,-7,-5,-2,-6,20
1523179564227366,-1,-7,-8,-24,-44,-29,-7,4
1523179564227366,-9,-2,7,19,59,39,14,-22
1523179564249427,5,1,5,5,-22,-16,-21,7
1523179564249427,-3,-3,3,23,59,-2,11,-10
1523179564250427,-1,-4,-12,-29,-48,6,1,3
1523179564250427,16,4,-3,-21,-54,-11,1,32
1523179564263470,-18,-1,6,54,11,-6,1,-34
1523179564263470,-9,-1,-9,-55,4,-3,6,-4
1523179564271537,-2,-1,6,15,13,16,-11,-12
1523179564271537,-5,-6,-2,23,20,6,6,-6
1523179564286524,2,-3,-14,-51,-35,-22,2,6
1523179564286524,3,2,3,12,-6,3,-2,14
1523179564287526,11,7,9,12,67,42,28,11
1523179564287526,-17,-5,-4,26,-35,-11,9,-23
1523179564309819,3,2,9,9,-65,-13,-1,2
1523179564309819,2,0,-7,-13,79,20,-1,0
1523179564309819,12,-3,-2,-3,-14,-25,12,21
1523179564309819,-11,6,0,-26,-40,-20,-32,-29
1523179564323622,-4,-1,6,26,51,16,22,2
1523179564323622,4,1,-1,-6,-30,-11,-2,6
1523179564331647,4,-4,-6,-4,-38,-3,-10,8
1523179564331647,-5,-1,2,12,39,0,-5,-18
1523179564346685,1,-1,-9,-60,-27,-15,-7,2
1523179564346685,1,8,19,91,6,8,-14,0
1523179564347690,1,-1,0,-27,21,24,1,13
1523179564347690,-6,-1,-7,-11,-13,-15,-4,-10
1523179564368741,-3,-6,-7,-28,-10,-12,-10,-2
1523179564368741,3,2,3,-24,47,3,4,-1
1523179564369744,-3,-2,1,12,-55,-9,12,-3
1523179564369744,21,0,0,-11,-6,-6,-3,36
1523179564383781,-12,2,3,11,60,24,-1,-14
1523179564383781,-21,-5,-8,-43,-73,-9,30,-50
1523179564391802,-1,0,3,61,5,-46,-41,-2
1523179564391802,6,-5,-1,-13,51,29,11,14
1523179564414867,12,-1,-3,-8,-15,-8,-9,19
1523179564414867,4,-2,-8,-31,-29,-5,-5,11
1523179564415874,-11,-3,-3,-6,-67,-8,2,-14
1523179564415874,4,3,-2,-9,61,3,7,7
1523179564429138,-4,-2,7,40,-17,3,-17,-13
1523179564429138,1,-4,-11,-17,2,-5,5,11
1523179564429906,-11,-7,-7,-43,-62,-14,-12,-15
1523179564429906,-5,-1,4,55,50,-4,-15,-8
1523179564451963,26,5,3,-10,-1,12,17,37
1523179564451963,-26,2,3,6,-72,-16,-6,-48
1523179564452964,2,0,-5,-30,38,-2,13,-4
1523179564452964,-3,-4,-1,14,-18,-11,-4,-6
1523179564467006,-2,0,2,-4,22,22,-10,2
1523179564467006,11,-2,-4,-3,7,-12,4,19
1523179564467006,-2,-2,-2,-8,29,34,3,-2
1523179564467006,-16,-3,-6,-26,30,-2,-12,-34
1523179564489061,16,11,16,54,-8,17,24,25
1523179564489061,10,-3,-2,-18,9,8,-11,11
1523179564490064,-13,-4,-6,24,-11,-10,-9,-20
1523179564490064,5,1,1,-19,9,-15,-5,14
1523179564512357,-24,-9,-13,-11,-5,-20,-12,-37
1523179564512357,12,8,11,8,-22,23,13,15
1523179564513130,4,1,-3,-7,-2,-19,-7,7
1523179564513130,6,-3,-4,-6,-27,22,5,26
1523179564527163,-15,-4,0,41,9,-25,-2,-34
1523179564527163,-1,-4,-9,-44,13,-1,3,0
1523179564527163,2,0,8,75,-1,17,10,7
1523179564527163,2,3,0,-15,-31,8,4,10
1523179564550224,0,-1,-6,-39,-33,-3,-3,4
1523179564550224,-10,-3,-2,30,33,-16,-8,-7
1523179564550224,-2,-5,-10,-45,42,-7,-8,12
1523179564550224,0,-1,-2,16,-25,-9,0,-7
1523179564572282,-11,-2,4,-5,96,15,2,-25
1523179564572282,6,3,8,67,-3,5,-7,4
1523179564573285,11,4,-1,-3,-5,-14,-1,14
1523179564573285,-3,-5,-9,-17,-70,-29,-4,-4
1523179564586320,4,0,-2,23,18,-15,-5,9
1523179564586320,3,0,0,-16,48,2,2,7
1523179564587323,-8,-2,-2,3,-21,0,-3,-7
1523179564587323,-2,-4,-7,-34,10,-8,11,-23
1523179564609382,-7,3,2,0,-63,5,11,-4
1523179564609382,2,-2,-2,10,53,7,-7,3
1523179564610384,19,4,6,9,-3,1,-1,32
1523179564610384,-27,-4,-3,-15,-4,-1,0,-47
1523179564632443,14,2,2,8,-2,2,-7,30
1523179564632443,-9,-9,-5,-5,2,-10,2,-20
1523179564633444,-13,-4,-3,8,-21,-15,2,-15
1523179564633444,7,3,1,12,-6,12,1,17
1523179564646486,2,1,2,-19,34,7,7,5
1523179564646486,-1,-2,-6,-16,-11,-30,-12,8
1523179564647484,4,-2,-2,-11,-39,24,11,-10
1523179564647484,1,7,18,20,32,13,-6,-4
1523179564669540,-2,-2,-11,-8,14,0,3,0
1523179564669540,-4,-5,-6,-8,-5,6,2,-5
1523179564669540,-3,-3,-5,-19,-17,-15,-18,-7
1523179564669540,9,4,1,21,8,-5,-3,10
1523179564692602,-12,-13,-11,-32,19,-18,-8,-7
1523179564692602,2,4,5,12,-84,6,14,5
1523179564693605,-5,-2,-2,-5,45,12,-2,-15
1523179564693605,0,-2,-3,-7,-8,0,0,-5
1523179564706640,11,-4,-4,-6,8,-18,-7,31
1523179564706640,-18,0,0,7,-28,-10,-12,-44
1523179564707642,-3,-1,2,15,-26,-5,-4,-3
1523179564707642,2,-2,-5,-17,2,2,-3,9
1523179564729707,3,1,-1,2,-19,5,-1,-2
1523179564729707,4,-3,1,7,7,-2,5,17
1523179564729707,-2,-1,-4,-11,-9,-12,-1,0
1523179564729707,-2,-1,0,11,25,-2,15,-2
1523179564752762,2,-3,-1,-10,-9,0,-12,-3
1523179564752762,-10,2,0,-14,-45,11,-1,-8
1523179564752762,2,-2,2,18,4,-19,-3,-4
1523179564752762,0,-2,-3,-28,-1,13,0,13
1523179564766802,2,1,3,27,-20,-10,16,-6
1523179564766802,6,1,-4,-7,17,36,9,5
1523179564767803,-12,0,-4,-21,53,12,-18,-12
1523179564767803,4,4,7,19,-25,-20,5,4
1523179564788858,4,-10,-4,14,-23,-6,-19,7
1523179564788858,0,-2,-1,-15,18,7,13,3
1523179564789861,2,-3,-5,-20,-14,-12,5,8
1523179564789861,1,2,0,-1,16,-3,-5,3
1523179564811918,-3,6,0,-15,-5,14,2,-6
1523179564811918,-5,-4,0,-17,-5,-36,-17,-12
1523179564812922,11,3,8,36,55,55,7,22
1523179564812922,-5,-3,-6,-27,5,9,9,-16
1523179564826959,2,3,5,22,0,16,-8,-1
1523179564826959,-7,-11,-11,-28,70,6,-4,-7
1523179564827967,1,3,7,12,-14,-6,19,3
1523179564827967,1,3,5,17,-41,-8,-13,-1
1523179564849020,-6,-2,-5,-4,39,25,15,-4
1523179564849020,10,6,-3,-12,-29,-16,-15,12
1523179564850020,-9,-2,1,12,-2,-4,-2,-12
1523179564850020,8,-5,-9,-5,17,-10,0,20
1523179564872084,-15,1,-7,-28,-27,18,9,-30
1523179564872084,0,-5,5,4,20,-5,-4,5
1523179564873081,4,-2,-1,41,-13,0,4,4
1523179564873081,-4,-2,0,-12,19,17,0,2
1523179564887118,6,2,1,-8,-21,-1,-1,13
1523179564887118,-7,3,0,7,-11,5,-5,-19
1523179564887118,5,0,-4,-43,-20,-9,-2,8
1523179564887118,-11,-7,-2,32,39,-16,-15,-25
1523179564909178,-7,3,6,-14,-40,-21,-4,2
1523179564909178,8,0,0,4,55,33,3,10
1523179564910182,-2,-3,-5,16,9,-9,-16,11
1523179564910182,-8,-2,-4,-14,-45,-20,1,-19
1523179564932241,2,1,6,-6,-22,-15,-8,-2
1523179564932241,2,-2,-3,-13,-11,-3,3,16
1523179564933243,-5,0,-4,-7,35,4,-2,-2
1523179564933243,5,4,4,-5,-20,-18,6,4
1523179564946276,-7,-4,-4,1,31,6,7,-12
1523179564946276,5,1,2,11,-41,-19,-6,8
1523179564947281,-6,-1,4,-6,8,11,7,-8
1523179564947281,-3,-8,-7,10,-5,1,-5,-3
1523179564969338,3,2,-4,-25,14,-8,-2,-4
1523179564969338,3,2,1,4,-41,28,3,9
1523179564970341,4,-3,-3,-2,-3,10,27,4
1523179564970341,-10,0,6,16,9,14,3,-3
1523179564992399,5,3,2,15,16,-2,-52,5
1523179564992399,-6,-8,-11,-24,-41,-28,-9,-2
1523179564993401,1,8,7,-2,-23,-2,11,-7
1523179564993401,-2,-4,-2,-4,12,3,10,0
1523179565006673,3,0,-4,-8,-6,20,5,9
1523179565006673,-4,-2,-2,12,-1,-28,-18,0
1523179565007440,-8,-2,-3,1,5,-1,-12,-18
1523179565007440,6,-2,0,-12,24,11,-2,8
1523179565029500,-4,-6,-3,29,-18,-10,7,3
1523179565029500,8,2,1,-3,1,6,2,-2
1523179565030504,-10,1,1,-12,11,-11,3,-25
1523179565030504,2,0,0,-4,-18,6,-26,10
1523179565052560,2,5,6,29,16,1,29,1
1523179565052560,-5,-4,-2,4,29,21,-17,7
1523179565053563,-4,-11,-13,6,-21,-32,-16,-3
1523179565053563,0,3,5,-5,-34,0,12,-2
1523179565065597,5,3,0,-19,37,14,16,4
1523179565065597,3,2,-2,6,32,20,0,4
1523179565074619,0,-1,-4,-21,-14,-5,-13,-2
1523179565074619,-8,-7,-5,15,4,12,5,-13
1523179565089657,-2,-2,3,19,-40,-23,-2,-6
1523179565089657,5,-1,-4,-18,-17,-4,0,1
1523179565089657,-1,0,-2,-7,35,9,-1,-1
1523179565089657,10,3,0,-6,-25,-18,-9,22
1523179565112721,-10,-1,1,6,-5,4,-11,-20
1523179565112721,0,2,4,14,99,14,16,10
1523179565113726,8,1,-1,3,-45,-2,-10,13
1523179565113726,-13,-9,-9,-25,4,-35,-25,-21
1523179565126754,4,-1,-1,9,-6,28,7,12
1523179565126754,-1,3,6,11,-51,-19,3,-15
1523179565133773,12,9,14,10,39,18,8,12
1523179565133773,-2,-7,-8,4,8,0,4,0
1523179565148814,-5,-3,-4,-45,16,-18,-6,-4
1523179565148814,-6,-3,1,27,-16,6,4,-14
1523179565149819,-3,-5,-6,-39,13,7,3,-2
1523179565149819,7,11,8,11,-5,20,-16,4
1523179565172878,-8,-6,-10,-47,-45,-18,3,-5
1523179565172878,2,2,5,36,5,-5,10,3
1523179565172878,-6,-6,-10,-18,17,-16,-23,-32
1523179565172878,-6,-1,-6,-33,-39,-7,14,1
1523179565185915,6,-3,-7,0,7,-13,-14,11
1523179565185915,-5,-2,3,-7,26,26,12,-3
1523179565193934,-3,-7,-11,-10,-67,-17,2,1
1523179565193934,6,4,5,17,-42,-22,-9,13
1523179565208974,-5,2,5,-2,22,49,13,-22
1523179565208974,-2,-4,2,4,-23,-18,1,3
1523179565209977,5,-2,0,17,35,-3,-3,6
1523179565209977,-14,0,-3,-13,0,-1,-7,-13
1523179565232035,-1,-7,-9,-15,-26,-2,-6,6
1523179565232035,0,0,-1,1,-47,-14,-12,8
1523179565233038,-10,-3,0,10,57,19,-6,-23
1523179565233038,8,5,1,3,28,6,0,8
1523179565247076,-5,2,-1,21,-13,-6,-9,-6
1523179565247076,0,-3,-4,-24,-3,14,1,4
1523179565254094,-1,-2,-1,-15,-116,-56,-16,2
1523179565254094,4,-3,4,15,32,28,1,0
1523179565269137,-7,-2,2,20,4,-27,-32,-33
1523179565269137,8,6,6,43,13,35,63,16
1523179565270137,0,-2,-2,-20,-26,-17,14,9
1523179565270137,-4,-3,-5,-38,8,0,-6,-6
1523179565292197,7,3,9,39,5,1,11,6
1523179565292197,-5,-5,-11,-36,-30,-28,-20,-7
1523179565293198,4,8,7,19,-17,9,15,7
1523179565293198,-6,-6,-4,-10,-16,3,17,3
1523179565306235,-8,-5,-3,1,20,-19,-16,-20
1523179565306235,7,3,1,6,52,34,22,7
1523179565314259,-12,-4,-7,-21,-2,5,2,-7
1523179565314259,10,3,9,3,-6,5,-2,22
1523179565329306,-13,-7,-13,-32,31,-19,42,-16
1523179565329306,3,5,1,-26,-26,-2,-13,3
1523179565330302,-3,-1,4,35,28,-11,-18,-1
1523179565330302,2,5,2,1,7,11,6,-5
1523179565352356,-1,-10,-9,-49,-80,-29,1,16
1523179565352356,-7,4,15,47,81,38,-25,-17
1523179565353360,6,2,-3,1,64,20,3,11
1523179565353360,-1,-4,-5,-7,44,-18,3,-4
1523179565374416,8,4,7,5,-7,14,6,15
1523179565374416,3,-5,-7,-4,-90,-53,-28,10
1523179565375417,-13,-8,-7,-14,44,39,36,-23
1523179565375417,1,3,1,29,10,-4,-9,-11
1523179565389455,3,-2,2,-10,39,22,-4,14
1523179565389455,-5,-5,-5,-6,-72,-16,5,-1
1523179565390470,1,1,1,-7,6,-4,-2,5
1523179565390470,-6,-6,-6,19,-23,-12,11,-13
1523179565412518,-1,-2,-8,14,8,4,-13,19
1523179565412518,-6,-5,-11,-42,7,-26,-8,-26
1523179565413522,3,-1,9,72,-27,13,-18,10
1523179565413522,4,6,5,-26,-51,18,0,0
1523179565434578,0,3,0,-10,-26,-12,1,2
1523179565434578,-8,-10,-2,23,25,-17,-12,0
1523179565435576,1,1,-2,-14,-6,-17,9,1
1523179565435576,-5,-6,-5,25,36,10,6,-19
1523179565449613,2,8,9,-6,-36,4,-16,0
1523179565449613,5,1,8,28,68,-5,2,-3
1523179565449613,2,-1,-2,-23,-10,8,-6,11
1523179565449613,1,-6,-5,2,-44,3,10,7
1523179565472675,-11,1,-2,2,-6,-11,30,-23
1523179565472675,0,1,5,2,-59,10,-6,-4
1523179565473677,3,1,2,5,87,-1,-29,-3
1523179565473677,4,3,4,15,-42,4,36,11
1523179565494969,-1,-9,-14,-53,24,8,-2,0
1523179565494969,16,8,5,27,-26,-9,3,31
1523179565495741,-28,-6,-8,-10,8,-1,-17,-60
1523179565495741,3,4,8,21,-76,-16,-8,16
1523179565508772,-2,-1,0,15,41,16,-10,-7
1523179565508772,-2,-8,-10,-10,5,9,-1,4
1523179565509773,12,1,2,-6,-94,-7,9,12
1523179565509773,-5,-5,-8,-11,85,-14,-9,-11
1523179565532873,3,-2,-2,17,-97,3,-8,4
1523179565532873,-7,-3,-3,8,49,5,-1,-12
1523179565532873,0,0,2,11,-37,-23,1,4
1523179565532873,-5,-5,-8,-31,-15,-8,-16,-5
1523179565555128,4,0,8,55,30,-1,9,6
1523179565555128,1,-6,-17,-48,-39,-1,8,12
1523179565555896,-3,3,-1,-44,-13,7,-15,-17
1523179565555896,-1,-3,7,54,0,2,-2,-11
1523179565568933,-6,-3,-9,-25,-8,-13,-4,-3
1523179565568933,1,5,2,-18,6,-16,-8,-2
1523179565569935,7,-4,-5,-32,-45,-7,2,19
1523179565569935,-4,-4,-7,-6,20,18,-1,5
1523179565593034,13,1,1,5,27,1,-5,31
1523179565593034,-29,-7,-5,7,-15,-11,6,-53
1523179565593034,3,0,4,-23,-22,5,9,14
1523179565593034,1,4,1,-18,20,47,17,-6
1523179565615094,5,-2,9,37,9,0,-22,5
1523179565615094,13,3,-6,-26,3,-12,11,18
1523179565616055,-17,-8,-10,-1,-28,-28,-23,-17
1523179565616055,-2,-3,-3,-22,35,-6,34,-9
1523179565629099,3,6,16,67,14,-1,8,-3
1523179565629099,2,-1,-5,-40,-21,0,0,-2
1523179565630098,7,6,5,29,33,13,14,15
1523179565630098,-3,0,-4,-13,10,-8,-21,-2
1523179565652152,0,3,4,2,-20,-6,2,1
1523179565652152,-9,-5,-1,3,43,11,-6,-18
1523179565653154,1,1,-2,21,-2,18,10,7
1523179565653154,0,6,3,8,41,-9,-6,-8
1523179565675449,-14,-8,-15,-74,-24,-13,1,-20
1523179565675449,8,0,13,73,-26,-7,-11,18
1523179565675449,-11,-2,-7,-2,5,-4,4,-13
1523179565675449,10,-5,-4,-8,-14,1,-25,19
1523179565689254,-9,-2,-6,-27,2,9,18,-13
1523179565689254,-17,-9,-9,18,-40,-40,-17,-13
1523179565690253,11,5,7,-8,1,15,8,7
1523179565690253,-2,-3,-8,-24,-38,-12,-4,5
1523179565712318,2,0,1,0,19,-4,5,3
1523179565712318,2,0,4,-22,-22,9,4,18
1523179565713315,-7,-3,6,79,61,3,2,-12
1523179565713315,-4,-10,-2,-13,-23,-14,-14,2
1523179565734371,-4,1,-3,3,27,23,16,-13
1523179565734371,-4,-2,-8,-52,-4,-25,-15,-5
1523179565735373,6,3,5,57,48,9,-9,6
1523179565735373,13,7,11,31,98,20,-12,11
1523179565749412,-16,1,0,-14,-104,-16,15,-11
1523179565749412,-3,-2,-3,2,43,6,-18,-10
1523179565750416,7,0,-5,-20,-7,-7,4,9
1523179565750416,-5,-5,-6,-18,-44,-31,2,-6
1523179565772473,5,-5,-7,6,5,-7,-16,26
1523179565772473,-11,3,8,31,38,14,3,-31
1523179565773488,1,-11,-8,-24,-31,-4,16,6
1523179565773488,1,3,6,18,2,23,-1,6
1523179565802552,6,1,-9,-41,-17,0,12,11
1523179565802552,-6,-11,-13,-21,-69,-23,-22,1
1523179565803555,-6,-1,-1,-17,27,-23,-27,-21
1523179565803555,0,5,7,12,5,17,14,13
1523179565809571,-2,-3,5,25,10,6,-23,-4
1523179565809571,1,7,0,-18,20,12,10,6
1523179565809571,1,-1,-2,-7,0,22,22,3
1523179565809571,-2,-2,-4,17,-46,-16,-27,-6
1523179565832632,5,2,4,3,95,24,13,2
1523179565832632,2,-1,-1,-3,2,11,-16,-5
1523179565833634,-1,-2,-6,-40,-11,-11,-17,13
1523179565833634,-15,-2,-8,-26,-67,-43,-10,-28
1523179565854695,9,8,11,36,51,12,6,10
1523179565854695,7,6,10,15,-19,21,12,3
1523179565855693,-5,-5,-7,-22,-44,14,6,-2
1523179565855693,3,0,7,21,13,-24,1,6
1523179565869732,0,-2,-9,-39,23,-1,-47,-4
1523179565869732,6,1,7,29,46,22,64,15
1523179565869732,-9,-1,3,27,-54,-18,18,-24
1523179565869732,3,4,8,19,28,23,4,4
1523179565892792,-2,-1,-2,-16,4,-26,-7,-7
1523179565892792,4,-3,-1,-12,5,9,-35,0
1523179565892792,7,-2,-8,0,-30,-2,-11,18
1523179565892792,-9,-5,-4,-12,0,-3,14,-8
1523179565914851,2,0,-3,8,21,7,4,1
1523179565914851,-4,-1,3,11,34,12,1,-21
1523179565915854,7,2,3,-1,6,-10,-9,25
1523179565915854,3,3,-6,-40,-33,-4,4,-10
1523179565928895,-16,-8,4,32,-56,-20,-14,-39
1523179565928895,16,1,-7,-18,3,-10,28,19
1523179565929896,-11,-2,7,33,37,8,19,-16
1523179565929896,2,1,-5,-39,11,9,-34,-6
1523179565951950,5,1,-1,22,-5,7,6,12
1523179565951950,2,-2,-5,-17,-51,-15,-4,4
1523179565952953,1,1,1,-5,2,-5,6,-4
1523179565952953,0,-7,-10,-21,-8,-15,-20,5
1523179565975011,0,1,3,32,1,14,21,0
1523179565975011,-9,-5,3,8,31,-1,-22,5
1523179565976013,0,0,-2,-19,-32,5,0,-15
1523179565976013,-3,-2,1,28,-10,-2,19,9
1523179565988046,5,-1,-5,-21,33,-10,-12,6
1523179565988046,-15,-4,-1,-6,9,14,5,-21
1523179565997072,1,-4,1,5,29,11,-7,-1
1523179565997072,2,1,0,4,31,4,20,3
1523179566012111,3,2,8,-10,-11,24,7,12
1523179566012111,4,-2,-7,3,-24,-26,-9,16
1523179566014117,2,-1,-2,11,45,-2,-1,1
1523179566014117,-6,-2,7,85,-2,-4,0,-7
1523179566035172,1,-2,-11,-34,2,-11,6,19
1523179566035172,-4,-2,-1,-15,-18,24,25,-21
1523179566036173,-5,3,-8,-29,-44,-35,-32,-3
1523179566036173,-11,-11,-11,-17,51,32,2,-17
1523179566057231,-1,0,5,17,-58,3,7,-5
1523179566057231,7,6,6,44,73,-23,-2,15
1523179566059240,2,-4,-8,-41,-10,-1,13,-5
1523179566059240,-3,1,5,13,20,6,-6,-3
1523179566080295,-1,4,-1,-29,-49,-5,-6,-5
1523179566080295,-3,-7,-4,23,49,25,9,-3
1523179566081294,6,10,14,40,30,0,-20,1
1523179566081294,-3,-7,-7,-11,-20,-15,-66,2
1523179566095330,-10,-7,-17,-35,-27,-14,5,-4
1523179566095330,-2,5,8,4,-6,-8,-4,-8
1523179566096336,6,2,3,-6,-64,14,19,22
1523179566096336,8,5,7,60,14,11,-6,5
1523179566108367,-7,-4,-7,-10,9,-17,-16,0
1523179566108367,-14,-4,-12,-44,-5,-32,-37,-23
1523179566117388,-2,-3,4,25,-36,-15,-6,-11
1523179566117388,0,-3,-2,-33,-4,3,24,11
1523179566132428,8,-5,-3,11,13,-1,-12,13
1523179566132428,7,1,0,10,2,-25,-51,11
1523179566134438,-22,-9,-12,-49,63,22,25,-23
1523179566134438,3,2,-3,6,44,-1,34,4
1523179566154487,5,4,7,24,2,1,-7,2
1523179566154487,-3,1,2,-37,-52,-4,6,1
1523179566156507,1,-5,-4,9,26,-19,-12,3
1523179566156507,4,5,-7,-57,-45,9,19,9
1523179566168526,-12,-3,4,16,26,17,-1,-24
1523179566168526,18,5,11,39,-47,13,31,21
1523179566177549,-20,-3,0,7,5,1,-55,-9
1523179566177549,-12,2,-3,-37,-28,-15,21,-38
1523179566192591,0,-6,-9,-23,8,-4,-15,-9
1523179566192591,4,4,5,24,-16,11,17,11
1523179566193592,19,-3,-2,-21,69,28,-3,29
1523179566193592,-13,-1,9,48,-1,-13,-1,-40
1523179566214653,1,3,7,0,40,19,-5,11
1523179566214653,-6,-5,-15,-26,2,-18,-52,-14
1523179566216656,9,5,5,-10,6,15,24,6
1523179566216656,0,10,18,47,-38,-17,7,1
1523179566228685,2,-1,-2,-38,-12,16,25,1
1523179566228685,-4,1,-5,-24,-26,-16,11,7
1523179566237711,2,-12,-17,-4,-4,17,-8,12
1523179566237711,-10,-1,5,39,27,-9,-11,-8
1523179566252749,-7,3,12,34,16,39,12,-18
1523179566252749,-2,-4,-8,-30,56,13,11,4
1523179566253751,0,4,7,31,-34,-25,18,-12
1523179566253751,15,-11,-7,-33,-45,-17,-22,31
1523179566274808,-5,-10,-11,10,49,-8,6,-10
1523179566274808,-10,-4,-7,-24,-38,5,6,-15
1523179566276813,5,0,3,19,6,-34,-14,-9
1523179566276813,8,5,-2,-21,-6,0,-18,29
1523179566288845,6,4,8,23,4,-3,-4,5
1523179566288845,-3,-1,-5,-29,46,25,-27,-8
1523179566297873,-11,-9,-15,-27,-29,2,39,-11
1523179566297873,18,-10,-9,-14,-12,-5,3,46
1523179566312917,-49,-3,-2,29,27,14,-3,-85
1523179566312917,12,-3,10,-6,-13,1,-5,24
1523179566313914,-2,2,7,32,14,4,-3,2
1523179566313914,3,2,-2,-12,-15,2,15,2
1523179566334977,14,1,-1,-4,-21,19,38,27
1523179566334977,-4,-4,-1,16,-63,-20,5,-11
1523179566335971,-8,-4,-8,-24,-37,-19,-11,-18
1523179566335971,-5,-5,-4,-8,28,2,10,-13
1523179566358028,4,1,-7,-20,-63,-54,-21,21
1523179566358028,-7,-5,-3,-2,-18,2,14,-21
1523179566360036,-3,11,14,45,83,40,-16,8
1523179566360036,-3,-4,-1,-4,-21,18,22,-7
1523179566372067,-2,2,-5,-18,-4,-39,4,-4
1523179566372067,4,-1,-2,-9,-11,-9,-6,7
1523179566374071,8,3,0,2,-33,-32,2,0
1523179566374071,-30,-8,-7,-12,36,5,-30,-28
1523179566395136,4,4,11,16,52,26,21,10
1523179566395136,3,0,-1,13,20,12,20,2
1523179566396132,9,3,0,17,28,9,-7,15
1523179566396132,-6,-6,-14,-32,-69,-33,-26,-13
1523179566417187,3,-4,-8,-38,-44,-20,-16,12
1523179566417187,4,-3,-2,22,0,-8,-4,14
1523179566419191,-8,4,6,-1,63,10,16,-26
1523179566419191,-6,0,7,35,-10,34,34,-9
1523179566432231,12,3,-2,-6,-8,3,-16,9
1523179566432231,-12,4,3,-1,-17,-12,7,-1
1523179566434232,2,-13,-17,-54,-37,-2,-40,11
1523179566434232,6,0,9,55,53,13,10,-1
1523179566455295,-1,-5,-2,17,-33,2,-20,-10
1523179566455295,-6,1,-1,4,82,-11,-1,-16
1523179566456290,-4,-2,-2,-20,-15,21,2,2
1523179566456290,3,-2,-7,-22,22,-12,-32,12
1523179566477355,-1,-3,1,-35,-33,-5,-14,9
1523179566477355,13,0,7,57,40,7,-19,8
1523179566479356,-19,4,3,-9,-20,39,24,-19
1523179566479356,-2,-3,-6,-29,18,-15,25,-4
1523179566491385,-1,-4,-7,-18,-63,-12,2,0
1523179566491385,3,-1,-6,26,17,10,13,7
1523179566498405,2,3,23,33,-25,-20,14,11
1523179566498405,5,3,-6,-55,-11,3,7,1
1523179566514446,-3,-8,-12,-5,-6,-16,-11,-1
1523179566514446,-3,-1,-2,-8,-31,3,-34,-4
1523179566516452,3,0,-4,3,-49,-36,-17,4
1523179566516452,0,5,15,45,25,14,-4,0
1523179566537510,-7,-3,-1,4,27,-23,3,-3
1523179566537510,-2,-4,-11,-27,8,30,-9,-9
1523179566539518,7,4,0,-25,-34,11,33,7
1523179566539518,-4,-4,-2,2,-26,-4,1,2
1523179566551542,2,-2,1,-11,21,-1,-7,-1
1523179566551542,-1,1,2,-3,-30,-6,17,1
1523179566558562,3,-8,-3,5,52,-8,-16,9
1523179566558562,-10,0,-7,-37,-52,-9,11,-24
1523179566574606,-7,2,1,8,-11,-24,-31,-5
1523179566574606,-7,-2,0,30,3,-14,29,-16
1523179566576610,3,1,-2,-23,-21,18,-6,-2
1523179566576610,15,4,-3,-14,-40,-11,-1,22
1523179566597669,2,1,3,4,-1,-6,-2,-6
1523179566597669,-3,-2,10,19,57,44,-4,2
1523179566598671,-5,-8,-16,-56,-65,-39,-33,-8
1523179566598671,1,1,13,75,4,-3,7,5
1523179566611705,0,-2,-18,-66,-17,2,2,-8
1523179566611705,4,-4,5,11,-59,-1,12,28
1523179566618738,-13,0,-4,6,55,-33,-9,-29
1523179566618738,14,9,6,-14,43,27,-7,15
1523179566635768,0,-5,1,26,34,-9,5,8
1523179566635768,-9,3,-5,-30,-6,-5,-5,-33
1523179566636769,-5,-8,2,55,-51,-8,22,1
1523179566636769,1,-2,-6,-24,-22,-8,-40,1
1523179566657827,1,-3,-3,-15,28,20,1,5
1523179566657827,6,4,0,-9,-3,-10,7,4
1523179566658829,-7,-4,6,52,-34,-3,5,-9
1523179566658829,7,3,0,-12,56,14,9,5
1523179566671864,-10,-2,0,11,12,2,17,-27
1523179566671864,-6,-6,-10,-27,-34,-23,37,6
1523179566678881,4,0,-9,-62,11,27,-3,13
1523179566678881,-9,-4,0,31,-6,-4,8,-26
1523179566694927,-4,-4,-7,-29,-28,0,-19,4
1523179566694927,0,-4,4,4,9,-16,-9,-8
1523179566696930,2,-3,-11,-13,-22,-9,-2,5
1523179566696930,14,2,1,22,50,26,0,30
1523179566716984,-18,-1,9,49,-2,13,26,-32
1523179566716984,0,0,-5,-26,-1,-4,-30,-2
1523179566718990,6,-5,-10,-28,42,-4,-3,33
1523179566718990,-20,-8,-2,-10,-33,-14,-36,-51
1523179566732041,9,-2,-2,24,-9,-11,38,17
1523179566732041,-3,6,3,-42,46,-1,1,5
1523179566739041,5,11,10,60,-28,16,2,7
1523179566739041,-7,-11,-11,-4,54,18,10,1
1523179566755092,15,2,2,14,-16,23,7,38
1523179566755092,-18,-19,-18,-19,-16,-13,-19,-50
1523179566757092,3,11,19,42,6,1,-1,5
1523179566757092,-5,-7,-9,-11,2,-20,9,2
1523179566777152,12,9,15,26,55,7,38,21
1523179566777152,7,2,2,0,60,29,-42,17
1523179566779149,-19,-9,-13,-36,23,-11,-4,-31
1523179566779149,-4,-4,-5,5,17,-28,-24,1
1523179566792182,2,6,2,-7,-125,18,-15,1
1523179566792182,4,-14,-7,-18,-35,10,37,22
1523179566799205,-13,0,3,10,51,29,6,-27
1523179566799205,-6,9,17,36,12,10,4,-19
1523179566815248,2,-9,-18,-9,12,-3,0,3
1523179566815248,2,15,10,-2,-3,4,-17,2
1523179566816247,-11,-18,-18,-20,-73,-41,-18,-16
1523179566816247,1,-2,-3,-10,-44,-1,16,8
1523179566838306,7,7,9,15,64,3,-22,2
1523179566838306,-2,6,5,26,-10,9,-16,2
1523179566843538,7,-3,-5,-37,27,18,-18,16
1523179566843538,-19,-12,-19,-65,-21,-34,-15,-18
1523179566851340,3,-3,11,84,-60,-16,-22,0
1523179566851340,-2,6,2,0,21,27,45,-5
1523179566867384,0,0,-3,-13,-39,0,-8,1
1523179566867384,9,0,-1,-13,-49,8,5,23
1523179566874402,-14,-8,-8,-26,69,-2,-23,-31
1523179566874402,-2,-4,-7,3,-54,-32,16,0
1523179566876406,-2,11,16,39,52,-1,-16,1
1523179566876406,3,-8,-4,-9,-22,18,-2,17
1523179566897463,0,-3,-7,-25,7,-18,-8,-1
1523179566897463,-4,2,3,22,-4,20,24,-6
1523179566899469,3,0,-9,-36,-4,9,18,-2
1523179566899469,-4,1,-4,-24,-20,6,7,-3
1523179566911503,-3,0,5,16,21,-20,-9,-2
1523179566911503,-1,-7,-9,-42,10,9,-1,5
1523179566920524,12,1,0,21,-46,-12,-15,10
1523179566920524,-23,2,1,-17,57,51,-7,-49
1523179566934563,-1,-5,-5,-7,-102,-26,4,-1
1523179566934563,-1,1,2,28,19,-25,-28,2
1523179566936567,9,-2,5,4,-22,42,37,3
1523179566936567,10,-2,-3,0,11,8,-3,14
1523179566957860,-9,1,-3,-37,42,16,-14,-13
1523179566957860,-7,-12,-4,30,-83,-44,-24,-1
1523179566959680,0,1,-7,-7,5,1,16,2
1523179566959680,0,9,17,14,-19,-40,-10,-10
1523179566970657,0,-1,-2,-26,7,0,17,5
1523179566970657,10,7,4,-14,-10,10,7,20
1523179566979692,-11,-13,-11,-18,12,-27,-10,-21
1523179566979692,18,14,13,17,48,6,3,17
1523179566995727,1,-5,-3,6,22,-33,0,12
1523179566995727,-12,3,1,-25,-10,29,-19,-19
1523179566996727,5,3,3,22,19,-15,-4,2
1523179566996727,2,-7,-7,31,-24,-30,6,7
1523179567017785,-8,-3,-2,-23,-22,22,-46,-16
1523179567017785,7,-4,2,34,3,-14,21,11
1523179567018785,-2,0,-6,-37,23,-5,12,4
1523179567018785,-6,-5,0,-2,28,10,10,-5
1523179567030853,10,2,-2,10,-40,-13,-17,15
1523179567030853,-1,2,-6,-18,-45,17,4,-7
1523179567039841,-10,-5,5,20,36,-18,-9,18
1523179567039841,-16,-8,-11,-27,-38,21,-14,-37
1523179567055120,3,0,2,28,7,11,22,4
1523179567055120,0,3,6,15,118,34,-3,-4
1523179567056885,11,-2,-5,-14,-22,-17,-13,22
1523179567056885,1,5,-4,-29,-21,-19,5,22
1523179567077942,-18,-2,5,30,-2,0,37,-57
1523179567077942,18,1,0,-29,-8,-25,-57,31
1523179567078946,-20,7,15,37,57,29,20,-31
1523179567078946,2,-4,-7,-28,2,2,9,1
1523179567090977,11,6,4,1,42,30,17,20
1523179567090977,2,-8,-7,1,7,-15,-18,3
1523179567100003,-5,-3,-4,-12,-6,-16,-39,-12
1523179567100003,7,5,5,3,1,4,24,13
1523179567115049,2,-5,-6,-6,-17,-16,14,14
1523179567115049,-13,-1,-3,7,-21,-10,7,-27
1523179567116046,5,-1,-3,-20,-36,-9,6,8
1523179567116046,-2,-3,-6,14,-28,-31,-12,-7
1523179567137150,1,-3,-8,-14,43,5,-1,5
1523179567137150,-11,-2,8,32,-18,7,20,-19
1523179567139105,5,0,-4,-19,70,-13,-3,9
1523179567139105,2,0,3,13,-24,18,-1,-2
1523179567151138,4,-4,-11,-41,0,4,6,14
1523179567151138,0,-2,-5,-22,-36,-2,7,-6
1523179567160160,11,11,13,82,47,15,6,3
1523179567160160,-16,-9,-6,-30,-13,-14,-6,-6
1523179567175202,-4,-1,-3,-7,81,-6,-20,0
1523179567175202,-1,1,12,57,1,42,20,-4
1523179567176204,6,4,5,-16,-12,13,0,-1
1523179567176204,2,1,3,18,17,-9,-2,1
1523179567197260,-6,-1,2,4,-84,-10,-6,-17
1523179567197260,-1,-3,-10,-20,47,-27,4,1
1523179567199266,13,4,1,9,39,31,1,29
1523179567199266,-10,-1,3,24,-4,-10,-32,-26
1523179567211302,-12,3,9,9,-33,-5,38,-9
1523179567211302,1,-4,-6,-19,-10,-27,-19,9
1523179567220321,-6,-6,-5,-10,-55,-27,-13,-6
1523179567220321,9,-1,-9,-33,4,24,-7,14
1523179567235360,-5,6,4,37,58,7,-18,3
1523179567235360,4,0,-1,-9,-32,13,5,11
1523179567236365,-12,-8,-8,-10,-35,-4,31,-19
1523179567236365,4,4,5,30,-1,-29,-2,1
1523179567257654,9,-8,-15,-25,-55,-18,-10,25
1523179567257654,-20,-2,-6,3,38,15,0,-41
1523179567259424,11,2,5,-19,-16,20,-14,4
1523179567259424,-7,-2,5,59,-25,7,30,-8
1523179567279483,0,0,3,2,27,38,-6,3
1523179567279483,9,1,1,-7,-30,-31,-4,16
1523179567281485,-8,-5,-13,-32,-48,-15,3,8
1523179567281485,1,-4,-5,-14,12,-14,-22,-12
1523179567294522,18,2,5,21,-20,34,29,25
1523179567294522,-42,-6,-3,-13,-48,-19,31,-48
1523179567300561,6,1,2,16,19,-9,3,9
1523179567300561,8,3,3,0,63,28,-2,23
1523179567317581,-5,-7,-7,-16,56,4,-25,-11
1523179567317581,11,0,-4,-7,2,4,-7,13
1523179567318582,-11,-6,-6,-4,-106,-44,1,-25
1523179567318582,-2,-2,2,1,13,38,2,8
1523179567339637,-6,3,-1,-22,-22,-27,-1,-26
1523179567339637,11,1,8,27,46,14,-7,16
1523179567341643,6,1,-4,-39,9,-2,-8,13
1523179567341643,-17,-5,-4,1,-50,-26,-25,-40
1523179567354728,-1,-1,3,-6,-25,-2,-29,-4
1523179567354728,10,4,1,-32,42,29,12,26
1523179567356682,-7,-6,4,9,24,-6,-10,-7
1523179567356682,14,6,4,-17,20,17,-1,16
1523179567377748,1,-9,-15,-18,-33,-18,-14,12
1523179567377748,-18,-6,-7,-3,-15,-23,-11,-40
1523179567378742,-7,-8,-4,-3,-19,44,22,-21
1523179567378742,6,3,2,-4,71,-10,-8,9
1523179567399820,-6,-3,2,16,14,-21,10,-14
1523179567399820,8,-2,-3,-8,-2,1,-5,23
1523179567401806,1,2,-5,-14,18,7,16,1
1523179567401806,-3,-2,1,31,-44,0,-24,-10
1523179567414843,0,-6,-4,-12,26,-7,7,-16
1523179567414843,5,8,9,20,-2,4,20,4
1523179567420906,-4,0,2,-6,33,-40,-33,1
1523179567420906,-3,-8,-12,-23,-26,-7,4,6
1523179567437899,-2,6,4,-1,-35,-6,-2,-3
1523179567437899,0,-4,-3,1,-22,-14,-2,-8
1523179567438901,2,-1,-9,-8,27,-21,-7,1
1523179567438901,-2,1,1,-7,-68,10,32,-13
1523179567466976,-12,4,7,22,16,4,-10,-17
1523179567466976,2,0,6,-16,-15,-15,-14,-3
1523179567468981,5,0,-4,-9,10,-6,-6,13
1523179567468981,12,-7,-13,-28,124,52,46,21
1523179567473996,-14,-3,9,16,-17,0,-41,-15
1523179567473996,9,3,-1,-21,-54,8,6,13
1523179567481014,-1,3,11,54,43,33,-5,-15
1523179567481014,4,0,-2,-4,-13,-38,-20,11
1523179567497057,15,-1,-8,-25,-43,8,16,33
1523179567497057,-25,-4,-6,6,115,-23,-46,-58
1523179567499061,5,-3,3,2,-53,10,54,13
1523179567499061,-7,-1,-7,-10,-32,-34,-11,0
1523179567520155,6,-7,1,11,43,10,9,1
1523179567520155,-6,-8,-6,7,-46,-52,-27,12
1523179567521121,-9,0,-7,-44,-58,3,-7,-19
1523179567521121,-1,8,11,52,3,7,-5,0
1523179567534156,-2,-2,-8,11,-28,-41,28,7
1523179567534156,11,-1,0,-28,-26,15,-1,38
1523179567541173,-14,-1,-1,1,27,-20,-44,-42
1523179567541173,9,6,5,-30,-96,15,9,29
1523179567557453,-4,-2,1,23,91,40,-7,-2
1523179567557453,-12,0,-7,-19,-60,-12,1,-35
1523179567559221,1,-6,-6,-11,-21,4,1,13
1523179567559221,5,3,7,46,19,-27,-14,15
1523179567580291,-3,0,2,-1,-13,6,1,-12
1523179567580291,1,1,-1,9,9,16,6,-1
1523179567581292,5,-6,-15,-23,15,-2,-12,17
1523179567581292,-14,-8,-2,25,42,-9,10,-33
1523179567594361,5,6,4,-17,62,39,-3,9
1523179567594361,2,-2,6,34,67,-2,22,9
1523179567601334,-2,3,1,0,-113,-17,-7,-4
1523179567601334,-4,-11,-3,-12,42,-1,-9,3
1523179567617377,1,9,9,15,18,-16,10,1
1523179567617377,6,-5,-14,-36,10,-12,-10,6
1523179567619383,-4,-1,5,47,-76,-6,12,5
1523179567619383,-5,-4,-9,-43,16,24,0,2
1523179567639443,4,-3,1,-1,-33,-38,-7,14
1523179567639443,-10,6,10,21,38,33,-15,-34
1523179567641440,-1,-2,-5,-9,29,0,6,7
1523179567641440,-3,4,2,22,-69,1,-10,0
1523179567654473,-4,-4,2,17,16,-1,-9,-7
1523179567654473,5,4,7,28,-33,7,20,29
1523179567661497,1,-1,1,-3,18,0,-10,-9
1523179567661497,2,0,-7,-27,-11,-30,-11,-7
1523179567677544,-5,-5,-7,-35,-48,15,28,-1
1523179567677544,6,-2,-6,-2,-21,-32,-19,6
1523179567678555,-8,2,15,76,62,23,-13,-20
1523179567678555,2,-8,-5,-28,-9,6,27,6
1523179567699611,-2,0,-2,19,-11,5,-15,-5
1523179567699611,1,-10,-5,2,-3,0,20,-6
1523179567701601,0,-1,-6,-44,32,-2,-6,5
1523179567701601,-1,3,6,-6,-7,-10,1,-2
1523179567714641,-4,-2,-4,5,44,14,-5,-12
1523179567714641,6,-5,-10,-25,-48,-3,4,26
1523179567720650,-4,-4,-4,-9,30,2,12,-11
1523179567720650,17,3,7,15,-21,1,-6,12
1523179567744714,-35,-2,-2,-32,-26,-19,-5,-67
1523179567744714,4,-1,-3,15,74,16,27,0
1523179567746720,2,0,0,0,-55,-47,-6,9
1523179567746720,-4,-5,-9,1,9,-20,-8,3
1523179567759843,9,6,5,-6,-51,0,21,24
1523179567759843,2,4,3,-8,28,5,-5,4
1523179567761761,-8,-4,-1,-8,17,12,0,-14
1523179567761761,-2,-4,-9,-13,-52,0,12,-7
1523179567773792,7,-10,-9,21,57,1,-14,23
1523179567773792,-17,-6,-3,-9,-74,-28,28,-31
1523179567782816,5,0,-5,-20,-12,4,3,9
1523179567782816,-2,-2,10,60,29,-16,-18,-2
1523179567797859,4,2,-3,-6,8,18,5,-9
1523179567797859,7,2,2,10,-11,4,-6,18
1523179567798859,-3,0,-1,-6,5,16,-5,-4
1523179567798859,8,-3,-6,-40,-70,-10,7,13
1523179567819914,-30,-3,2,8,-6,-8,19,-41
1523179567819914,12,4,8,56,36,38,-5,19
1523179567821921,2,3,3,-1,18,9,4,5
1523179567821921,0,-7,-8,-20,116,3,-16,15
1523179567833952,-7,-6,-13,-66,-71,-1,-8,-19
1523179567833952,8,8,25,53,-7,8,-23,5
1523179567843038,-9,-5,-13,-13,7,2,1,-9
1523179567843038,2,1,-2,2,-3,0,6,4
1523179567858030,7,-8,-10,-15,-23,-17,-17,29
1523179567858030,-21,-6,-12,-47,36,-18,-4,-47
1523179567859017,13,7,13,21,-46,7,5,28
1523179567859017,-7,2,7,8,22,-2,-9,-21
1523179567880077,6,1,1,46,-3,-14,-17,1
1523179567880077,5,6,2,13,24,4,-7,10
1523179567881080,-11,-8,-9,-1,52,-10,6,-13
1523179567881080,-10,-1,-3,-4,-42,-12,-12,-4
1523179567893116,7,1,3,1,16,-36,-1,15
1523179567893116,-8,-11,-10,-12,-82,0,-1,-30
1523179567902133,12,3,4,5,8,-15,-31,13
1523179567902133,-18,4,5,-8,25,11,42,-27
1523179567917174,10,0,-4,2,31,20,-5,25
1523179567917174,-3,-8,-13,-25,-29,0,8,6
1523179567919179,-5,1,12,17,2,-1,-10,-4
1523179567919179,-1,-2,-14,-97,0,-5,-16,5
1523179567940234,6,3,15,95,14,13,-1,-5
1523179567940234,0,0,-7,-7,1,-19,-4,0
1523179567941236,5,7,7,34,-18,-9,-8,10
1523179567941236,-16,-6,-4,-11,-30,25,4,-26
1523179567953320,6,6,0,-31,26,22,0,10
1523179567953320,-1,-2,-2,17,2,0,-4,0
1523179567962294,9,-7,-2,-8,11,6,-13,3
1523179567962294,-11,-4,-8,1,-13,-34,-14,-17
1523179567977338,-1,4,3,-39,-40,-4,15,3
1523179567977338,-1,-1,3,14,1,7,-10,5
1523179567979339,1,-3,-4,9,-9,2,13,4
1523179567979339,2,0,0,31,42,5,12,-8
1523179568000396,2,-4,-8,-21,-11,21,-13,-2
1523179568000396,5,9,8,-27,23,1,-2,8
1523179568002399,3,-4,-9,-10,-13,7,4,36
1523179568002399,-28,-5,-1,0,-15,-11,1,-73
1523179568022460,11,3,-1,0,-41,-13,-18,25
1523179568022460,4,4,-3,-40,30,22,28,6
1523179568024458,-5,1,0,36,12,-13,-1,-4
1523179568024458,18,4,8,29,-15,7,-2,33
1523179568037530,-7,-2,-8,-33,5,-17,3,-9
1523179568037530,-7,-7,-2,10,-27,-17,-10,3
1523179568038496,-8,3,3,-20,-22,26,12,-26
1523179568038496,10,0,1,5,17,-1,-12,20
1523179568059609,-1,3,-3,-36,0,-31,-15,-7
1523179568059609,4,5,16,66,13,34,-4,18
1523179568061573,-2,-2,-3,-25,-53,-22,12,-19
1523179568061573,-13,-3,5,19,85,24,-3,-18
1523179568073592,0,0,-3,-3,-67,-6,5,6
1523179568073592,15,-8,-13,-15,-3,-13,-12,17
1523179568082614,-26,0,5,15,59,-1,41,-20
1523179568082614,17,12,13,34,21,29,23,20
1523179568097657,-5,-2,0,-5,13,9,-16,-13
1523179568097657,26,-3,-12,-35,-31,-23,-25,46
1523179568098659,-33,0,0,-14,4,16,-13,-50
1523179568098659,3,-2,0,22,-55,-35,-18,-3
1523179568119710,4,6,6,31,62,38,26,-3
1523179568119710,-8,-3,-3,-23,-10,-9,-14,8
1523179568121716,6,-12,-17,-29,-11,-33,1,-3
1523179568121716,4,7,6,-8,-28,-24,6,10
1523179568133750,-2,-6,-3,4,24,9,-6,4
1523179568133750,-6,-5,-11,-48,-2,-12,2,-17
1523179568142772,-15,-7,-7,49,-28,-8,-13,-26
1523179568142772,8,1,-3,-43,-26,-11,-17,17
1523179568158036,2,-5,1,10,41,17,4,2
1523179568158036,-13,-2,-2,5,31,-20,-6,-25
1523179568158813,17,0,2,-2,-25,-8,-30,26
1523179568158813,-9,-2,-8,-2,4,7,-3,-13
1523179568179871,2,3,3,7,-77,-32,-10,1
1523179568179871,-6,-4,1,0,53,4,17,-14
1523179568181879,13,-2,-2,-19,15,31,-5,28
1523179568181879,-2,-2,2,25,6,1,24,-12
1523179568201930,5,0,-6,-26,13,0,-14,11
1523179568201930,-14,1,0,-16,-23,21,7,-12
1523179568203935,-5,-3,-2,2,-6,-19,9,-31
1523179568203935,6,-5,-11,-37,-39,-25,-14,22
1523179568216969,-3,-2,-2,0,-4,-8,4,-6
1523179568216969,-8,-7,-5,7,-7,-4,3,-12
1523179568218974,9,7,10,1,52,41,13,8
1523179568218974,2,0,-6,-3,22,4,-37,5
1523179568240031,1,-1,-5,1,21,2,10,7
1523179568240031,-8,1,10,27,-6,-11,2,-26
1523179568241034,1,-1,-3,5,-1,-14,-8,8
1523179568241034,4,0,6,23,8,-2,2,12
1523179568262090,-3,-5,-3,-10,-14,13,25,-6
1523179568262090,7,0,-11,-52,-32,-9,-15,14
1523179568264102,-11,0,7,76,68,25,14,-19
1523179568264102,1,-11,-10,-26,-46,-22,-10,5
1523179568277132,-10,-4,6,42,-18,5,-21,-5
1523179568277132,4,8,8,13,12,-1,10,-4
1523179568279139,6,0,-8,-51,12,-7,-11,18
1523179568279139,-2,0,2,6,0,9,15,-4
1523179568300191,-6,-5,1,9,3,-17,-17,-4
1523179568300191,-11,-5,-5,8,-32,-1,12,-15
1523179568302196,16,3,-5,-39,-10,-17,1,27
1523179568302196,-5,6,16,49,12,38,19,-6
1523179568322251,14,1,-6,-9,3,-12,-25,-1
1523179568322251,-24,-3,-3,3,-39,-7,37,-16
1523179568324256,13,0,1,-8,0,1,-10,24
1523179568324256,-10,-4,-15,-52,-47,-19,5,-23
1523179568337290,-1,6,14,58,46,16,12,-15
1523179568337290,6,-3,0,29,-1,15,1,15
1523179568339294,-5,-5,-4,-17,-40,-23,-2,-2
1523179568339294,-4,6,8,40,-4,38,-2,-2
1523179568360360,-4,-7,-11,-51,-13,-20,9,-1
1523179568360360,5,1,8,16,34,-5,-8,15
1523179568361355,-4,-1,-8,-36,-22,6,4,-11
1523179568361355,3,4,2,2,12,6,6,-8
1523179568382415,-24,-9,-8,-19,-25,11,-15,-7
1523179568382415,8,2,6,1,27,14,-8,-8
1523179568384415,5,4,4,4,43,-10,-1,12
1523179568384415,3,-3,-4,-13,-12,1,-6,11
1523179568396447,-2,-12,-10,-20,-28,-24,2,-3
1523179568396447,-1,8,9,15,6,11,51,-5
1523179568403703,5,3,-1,7,-15,30,6,-2
1523179568403703,-1,-5,-9,-28,5,-18,-7,-6
1523179568419507,2,0,-1,-9,-11,-16,-2,-14
1523179568419507,3,0,0,-15,46,6,-20,11
1523179568421514,3,-2,-1,0,-13,-5,-3,5
1523179568421514,-27,-8,-15,-54,-71,-58,-10,-35
1523179568442624,8,2,1,21,7,-23,0,18
1523179568442624,1,-3,-11,-32,-5,13,-18,-7
1523179568443579,0,0,9,50,-25,-1,10,8
1523179568443579,10,1,2,-13,-7,-18,-10,12
1523179568456841,-10,-7,-3,-27,-1,8,-9,-9
1523179568456841,0,-1,-1,14,-14,2,-7,-2
1523179568463629,-5,-3,-4,-43,6,-17,21,-20
1523179568463629,-2,2,1,27,-44,53,-13,9
1523179568479668,-3,5,5,-1,45,7,8,-10
1523179568479668,11,-2,-4,15,-10,-5,-6,34
1523179568481676,-3,-3,-1,-8,-25,-9,-13,-21
1523179568481676,-9,-2,0,-6,51,41,24,-16
1523179568502946,4,-4,-6,-1,5,10,-10,12
1523179568502946,-2,-4,-2,-25,-25,-11,-78,-7
1523179568503735,2,5,6,1,-7,-22,3,0
1523179568503735,10,-2,2,4,7,15,16,8
1523179568516766,-18,-2,0,19,-16,6,10,-27
1523179568516766,-6,1,-4,-15,4,-9,-10,-8
1523179568523785,-2,-5,-3,-13,-39,-10,-13,0
1523179568523785,12,2,2,20,3,6,12,25
1523179568539828,0,1,4,-8,5,20,19,-4
1523179568539828,7,-5,-6,7,-32,1,17,7
1523179568541833,-18,-2,-4,-29,-62,-3,-6,-27
1523179568541833,3,-5,-9,8,48,1,-12,15
1523179568561885,6,6,4,2,-3,-1,-1,9
1523179568561885,-3,-1,5,23,-4,-22,7,-13
1523179568563898,-1,-1,-1,-20,62,13,28,18
1523179568563898,-8,-8,-5,5,-23,-21,-18,-27
1523179568576934,3,3,5,18,-17,-14,-5,2
1523179568576934,0,6,0,-28,3,22,0,0
1523179568583947,2,-12,-8,24,-1,5,2,5
1523179568583947,-9,0,6,8,18,-25,-9,-7
1523179568599988,-1,-1,-5,-12,24,54,20,0
1523179568599988,-5,-8,-7,-16,-27,0,18,2
1523179568601993,5,4,6,25,39,14,-15,19
1523179568601993,8,0,0,-8,-4,1,-1,1
1523179568622046,-15,-3,-5,-11,-28,-30,-13,-9
1523179568622046,-4,-4,-8,-9,6,-14,-8,-10
1523179568624051,8,2,6,21,-14,22,28,8
1523179568624051,3,0,3,28,124,10,-26,10
1523179568637086,1,1,0,-16,-25,1,13,0
1523179568637086,2,-8,-2,32,28,14,4,15
1523179568643108,-25,-3,-14,-47,-22,-32,-17,-37
1523179568643108,5,7,10,-12,-68,-8,7,-5
1523179568660151,0,-3,-2,-7,67,21,4,5
1523179568660151,5,6,2,-11,-9,-7,11,15
1523179568661151,-10,-8,-3,18,-32,-11,-43,-18
1523179568661151,-10,0,1,40,15,2,9,-16
1523179568682211,11,0,0,4,-33,-13,-11,16
1523179568682211,9,-9,-8,-17,15,-5,-16,16
1523179568684212,-32,-9,-8,-30,-9,-5,8,-55
1523179568684212,13,12,9,-8,-5,16,1,24
1523179568697255,9,-4,-6,1,48,-6,3,23
1523179568697255,-15,-3,-6,-9,-38,-21,-13,-16
1523179568703302,9,9,15,43,6,2,4,-5
1523179568703302,-4,-10,-12,-26,11,15,4,5
1523179568720308,-2,-1,-6,-7,-55,-19,-4,1
1523179568720308,-9,-1,-2,-11,-43,-15,-1,-21
1523179568721312,6,-1,3,61,83,27,-9,14
1523179568721312,-11,-3,-3,-14,-31,-31,2,-10
1523179568742406,14,3,0,16,5,-24,-8,22
1523179568742406,-17,4,2,-26,34,32,18,-49
1523179568744373,7,4,4,2,0,0,-20,20
1523179568744373,12,-4,0,8,45,6,12,21
1523179568756636,8,-1,-2,-14,-97,3,-1,-7
1523179568756636,-31,-3,1,25,17,-23,2,-29
1523179568765427,11,-5,-13,-14,13,11,-13,19
1523179568765427,8,6,2,-1,10,11,8,20
1523179568780469,-16,-4,4,5,-6,-20,-14,-33
1523179568780469,22,3,2,16,77,32,4,31
1523179568781472,-8,-7,-3,4,1,6,11,-4
1523179568781472,-6,-6,-10,-32,-35,-18,-14,7
1523179568802763,-3,2,6,14,31,21,15,-10
1523179568802763,11,3,6,-9,21,-20,-9,11
1523179568804585,-3,1,-3,28,-50,-4,2,6
1523179568804585,8,-1,0,21,-13,-17,-2,30
1523179568815566,-13,2,5,-4,21,-20,-23,-32
1523179568815566,-8,-4,-2,5,-40,11,6,-5
1523179568832622,-4,-6,-12,-39,-10,-25,-8,-40
1523179568832622,4,5,9,26,1,18,11,-7
1523179568839623,-2,-5,-1,-22,25,-2,-10,11
1523179568839623,14,3,7,37,36,20,-13,31
1523179568841629,-6,-4,-5,-43,-99,-37,-7,-10
1523179568841629,-9,-6,-5,21,-8,22,45,-20
1523179568861684,-2,1,1,5,-13,30,20,-1
1523179568861684,5,-3,-6,-25,-9,-14,3,0
1523179568869703,12,9,9,20,43,24,1,22
1523179568869703,7,-4,-11,-34,-8,-18,2,13
1523179568875721,-29,0,1,12,-1,-5,-24,-52
1523179568875721,3,-4,-4,-18,17,1,8,1
1523179568884743,7,11,3,0,-43,-16,1,5
1523179568884743,-11,-7,-1,-37,3,0,-13,-15
1523179568899785,7,-2,-3,57,9,-10,5,21
1523179568899785,1,-1,6,-8,-41,-1,9,2
1523179568901789,-3,-3,-3,-28,-18,-13,-27,4
1523179568901789,3,1,-1,-4,13,0,-15,-9
1523179568922851,1,-7,-10,-31,-15,25,22,12
1523179568922851,-3,2,5,33,-50,-19,-9,-13
1523179568923849,10,-2,-3,-5,80,9,10,49
1523179568923849,-25,-9,-11,-20,-43,-22,-18,-58
1523179568935880,18,7,8,45,4,1,-13,19
1523179568935880,-15,0,5,41,27,1,19,-18
1523179568944911,8,5,5,-17,27,13,15,13
1523179568944911,15,-1,-5,11,-7,7,-22,32
1523179568959947,-28,-7,-10,-38,-24,-33,-10,-53
1523179568959947,0,-1,-2,-3,-19,4,6,1
1523179568961950,0,0,-1,11,-4,-18,11,-3
1523179568961950,4,6,5,1,66,30,3,1
1523179568982009,8,5,0,-9,8,-12,0,15
1523179568982009,4,-4,-11,-44,-15,0,-5,-2
1523179568984008,-16,-3,10,96,6,4,5,1
1523179568984008,-16,-5,-4,-1,-10,-33,3,-34
1523179568996042,9,1,1,5,35,12,6,22
1523179568996042,-8,-1,-1,5,15,21,-2,-6
1523179569005064,11,-10,-19,-53,-18,-4,-7,11
1523179569005064,1,9,23,62,-19,6,-8,9
1523179569020103,-11,0,-4,-42,-19,6,21,-16
1523179569020103,7,1,-3,26,43,-2,-9,18
1523179569021109,10,-2,-2,-31,-59,-12,-13,14
1523179569021109,-26,-8,-7,1,-11,-2,-9,-38
1523179569042177,1,-4,-4,-28,-29,2,-5,-8
1523179569042177,7,4,1,6,-46,-21,0,9
1523179569044169,-1,3,13,74,41,14,9,7
1523179569044169,-4,-3,-2,-4,29,-1,4,-13
1523179569056434,9,-3,1,10,19,11,0,14
1523179569056434,-5,-2,-10,-22,-2,25,19,-9
1523179569065223,-12,1,-3,-28,-19,-1,-2,-25
1523179569065223,11,0,-1,-20,12,-2,18,30
1523179569080267,1,-1,-6,0,21,1,4,11
1523179569080267,-13,-1,7,21,-40,-24,-16,-17
1523179569081272,8,-1,0,2,0,-20,-9,-7
1523179569081272,-5,-1,-10,-55,-19,-6,-8,-7
1523179569109347,-6,-4,5,56,33,15,4,0
1523179569109347,7,-4,-7,-15,-28,-10,6,23
1523179569111348,6,4,-2,-11,50,9,4,3
1523179569111348,-15,0,2,1,-38,14,13,-9
1523179569116359,-1,-8,-3,-23,-36,-43,-29,-10
1523179569116359,4,-1,-3,-15,6,6,-27,7
1523179569132406,-10,0,3,25,47,17,-11,-19
1523179569132406,10,-3,-6,-11,-54,-32,-6,20
1523179569139421,-5,0,-2,6,78,61,11,1
1523179569139421,-2,-1,-1,5,-14,-11,-5,-2
1523179569141427,-1,-1,1,-23,10,20,10,-14
1523179569141427,3,3,-7,-20,0,-16,-7,-3
1523179569162483,18,5,14,60,5,23,14,31
1523179569162483,-16,1,-1,-30,45,9,-22,-31
1523179569164490,-8,-6,-1,0,-34,-14,-8,-17
1523179569164490,6,-3,-3,6,25,2,-4,9
1523179569184541,8,1,0,10,-44,-24,-5,10
1523179569184541,5,3,2,-28,-25,-8,1,5
1523179569186547,-3,-3,-6,-21,-12,-18,15,-1
1523179569186547,9,3,9,24,-28,44,30,11
1523179569199581,14,-5,-13,-33,-26,-20,-1,24
1523179569199581,-27,-4,7,39,3,-14,-5,-28
1523179569201586,-20,-1,-3,-23,12,10,-4,-27
1523179569201586,5,1,1,6,-4,-2,4,2
1523179569222644,2,0,-6,9,12,-8,-2,12
1523179569222644,7,1,-2,-16,-73,-12,-27,1
1523179569223645,10,4,8,28,47,29,8,18
1523179569223645,-13,-7,-3,4,26,-7,2,-13
1523179569244702,-5,5,1,-31,-58,-27,-11,-10
1523179569244702,3,-5,-3,6,29,16,19,13
1523179569246714,2,1,-1,-1,18,4,1,11
1523179569246714,-6,-3,-6,-7,4,-12,-25,-27
1523179569259747,-7,-1,0,-26,-15,6,12,-5
1523179569259747,2,1,5,29,49,6,19,-9
1523179569261747,5,3,9,36,-20,8,2,15
1523179569261747,0,-3,-5,-19,50,4,5,1
1523179569282801,-12,-7,-11,-15,-47,-20,-8,-15
1523179569282801,4,4,5,-13,39,9,8,8
1523179569283805,6,-5,-5,26,9,-8,-11,11
1523179569283805,3,4,4,22,-34,5,10,4
1523179569305096,-11,2,5,-1,43,32,-9,-19
1523179569305096,10,-6,-7,-9,-47,-17,-18,19
1523179569306866,-9,0,-1,-5,25,-2,3,-27
1523179569306866,0,0,3,11,-26,-24,-16,2
1523179569318900,-1,-2,-2,-22,25,14,-7,2
1523179569318900,2,2,5,45,37,7,10,3
1523179569325923,6,-2,-14,-63,-7,-10,-11,5
1523179569325923,1,2,4,-5,-50,24,20,6
1523179569342967,-19,-2,5,27,5,-9,-2,-28
1523179569342967,0,-5,-14,-38,55,-14,-19,-5
1523179569343968,0,1,-1,-28,-45,12,16,-3
1523179569343968,4,-2,5,80,26,-3,-6,14
1523179569365028,3,-2,-2,15,35,-17,10,17
1523179569365028,4,-3,-3,-16,-34,10,1,14
1523179569366022,-25,-5,0,13,-23,-30,-3,-41
1523179569366022,9,-3,-8,-36,28,-5,-12,19
1523179569379062,-8,-1,1,-5,-19,-11,-10,-15
1523179569379062,-1,-5,-4,13,-13,-28,1,2
1523179569386076,-2,-7,-5,-28,-33,15,-2,12
1523179569386076,0,-5,-9,-41,-33,-16,-19,3
1523179569410143,-5,2,6,61,10,2,2,-21
1523179569410143,2,2,-1,-17,-21,-3,-2,-1
1523179569411144,1,-3,-7,-8,-35,-26,-9,2
1523179569411144,0,0,-1,-12,7,18,14,6
1523179569425182,5,-1,-1,-21,4,1,-12,2
1523179569425182,0,1,3,23,11,-2,5,8
1523179569426183,-8,-6,-4,2,-6,8,-5,-31
1523179569426183,-4,3,0,-25,49,8,-7,1
1523179569439218,9,-2,-1,-2,-14,-15,5,22
1523179569439218,4,3,7,45,9,26,34,-8
1523179569446293,-23,0,-2,-19,-10,-5,-28,-6
1523179569446293,-6,-11,-13,-25,-28,-17,-8,-21
1523179569462281,6,5,9,13,41,27,-1,5
1523179569462281,10,-3,-6,-18,-14,-28,-6,22
1523179569464287,2,3,3,2,-23,9,10,-12
1523179569464287,-4,-4,-2,28,-22,-18,-27,-2
1523179569484338,-1,2,-5,-37,34,16,-9,-13
1523179569484338,-9,-8,-11,-11,-44,-19,-6,-10
1523179569491592,15,0,5,-5,21,19,10,17
1523179569491592,-16,-2,6,61,34,-9,-23,-18
1523179569499378,2,-5,-6,-16,-27,-14,2,8
1523179569499378,-4,4,1,-34,-7,6,1,-9
1523179569506618,12,1,-3,-12,8,-7,0,29
1523179569506618,-11,-2,-5,8,8,3,3,-36
1523179569522439,6,0,-5,-8,-35,-9,18,16
1523179569522439,-14,-6,3,14,15,-1,-14,-23
1523179569524445,6,0,-3,-8,-11,-13,4,15
1523179569524445,10,2,6,-3,10,1,8,15
1523179569544524,10,-1,-3,7,19,-23,4,30
1523179569544524,-21,0,1,6,21,24,-8,-30
1523179569546506,-3,-2,1,13,-37,7,-35,7
1523179569546506,6,4,4,-3,-8,2,15,9
1523179569559539,1,-4,-8,-20,33,-8,-2,2
1523179569559539,-3,-8,-12,-10,11,-28,-18,-5
1523179569565562,-13,3,5,28,28,8,14,-27
1523179569565562,2,-1,-2,-18,12,16,17,9
1523179569582601,-9,-5,-11,-58,-48,8,-1,-15
1523179569582601,8,4,3,28,-9,-14,0,12
1523179569583603,2,-1,-1,13,32,-3,12,-1
1523179569583603,-3,-5,-8,-42,14,-1,-9,-2
1523179569604894,9,-1,3,25,-23,-30,-10,18
1523179569604894,-23,-11,-9,-11,-3,7,9,-48
1523179569606664,-1,-6,-9,-14,-16,-20,-2,1
1523179569606664,7,10,11,11,-7,9,8,12
1523179569618696,-10,-9,-6,4,-17,-16,-8,-9
1523179569618696,3,2,-1,-13,-17,27,-7,11
1523179569625718,3,-2,-4,0,-14,-9,11,7
1523179569625718,12,8,16,59,63,12,15,10
1523179569642772,-5,3,2,-6,-17,29,16,-13
1523179569642772,14,2,-2,-5,23,9,-7,26
1523179569643764,-23,-3,0,-2,24,28,6,-50
1523179569643764,10,1,-2,13,-7,-3,-1,16
1523179569664826,5,6,10,25,23,33,4,2
1523179569664826,14,6,9,12,10,-23,-5,13
1523179569666825,-8,-6,-1,25,-49,-7,-15,-19
1523179569666825,-6,-5,-10,-37,-5,-3,-5,-8
1523179569686879,-6,-1,3,19,31,1,-16,-13
1523179569686879,5,4,1,-9,-48,-6,6,4
1523179569688882,11,0,1,-4,38,32,13,28
1523179569688882,-10,-9,-11,3,13,-18,-23,-10
1523179569702944,-13,-6,-7,-26,-60,-24,-5,-10
1523179569702944,3,-2,-2,-1,39,8,10,10
1523179569703921,8,8,9,-10,80,23,22,-6
1523179569703921,-14,-3,-2,9,-65,-15,9,-7
1523179569724978,4,-5,-10,-21,5,-9,-4,3
1523179569724978,-7,2,5,21,16,22,3,-14
1523179569725981,2,-3,-4,-29,-36,-21,-8,12
1523179569725981,2,1,1,-35,-29,-24,-13,0
1523179569738013,1,4,-2,6,2,-8,-3,-2
1523179569738013,-3,-3,-4,-5,-15,-11,6,4
1523179569748041,1,-8,-8,-2,-28,-4,-22,6
1523179569748041,-2,-6,-3,-21,7,4,-10,-8
1523179569762076,0,0,0,-4,-48,-10,6,-2
1523179569762076,-12,1,-3,-3,18,22,-6,-34
1523179569764087,12,4,6,-9,7,8,5,16
1523179569764087,-5,1,3,3,12,11,-6,7
1523179569785138,-2,-2,-6,-7,9,-12,-12,-3
1523179569785138,4,-2,4,21,-30,7,7,10
1523179569786140,7,0,-5,2,-23,-23,-11,22
1523179569786140,-10,-5,-13,-23,-24,3,-8,-26
1523179569798179,-3,-2,9,17,45,-30,-14,-10
1523179569798179,-10,-1,-1,-35,-30,-15,-7,-13
1523179569807313,-1,2,-3,30,2,-5,15,7
1523179569807313,6,-5,-2,7,34,2,6,11
1523179569822236,-5,-1,-7,-12,-62,-7,-2,-8
1523179569822236,2,4,2,5,30,7,21,8
1523179569824242,-4,-2,1,-9,-13,-16,-8,-3
1523179569824242,7,3,1,47,7,-3,2,2
1523179569845304,-7,-5,-9,-23,-8,5,1,-6
1523179569845304,-3,-1,9,35,-40,11,-8,-1
1523179569846305,-4,-5,-11,-47,1,11,7,-8
1523179569846305,2,6,9,0,12,13,-15,0
1523179569858331,-3,-3,2,0,6,17,1,-3
1523179569858331,5,1,-5,-16,27,-10,2,12
1523179569867356,2,1,5,25,17,-7,6,10
1523179569867356,-9,-4,-9,-18,29,4,7,-23
1523179569882395,-1,2,10,42,-1,2,-6,-6
1523179569882395,14,4,-1,-22,0,-11,-6,17
1523179569884401,2,0,0,2,-1,-13,8,5
1523179569884401,-26,-8,-4,-16,-26,-4,-2,-21
1523179569905499,6,-3,-11,-29,25,4,0,10
1523179569905499,-9,2,10,31,-20,-25,-11,-15
1523179569906460,10,5,3,38,-10,26,2,13
1523179569906460,3,-3,-2,-13,-18,-4,24,4
1523179569918491,-4,-3,-8,-22,-6,8,-16,-10
1523179569918491,5,-6,-14,-32,18,-12,-3,14
1523179569927537,-20,-4,0,15,18,1,-18,-44
1523179569927537,15,7,3,-17,-67,-16,34,22
1523179569942558,-5,2,8,58,19,14,14,-11
1523179569942558,3,2,1,-8,3,16,-3,13
1523179569943560,-2,-9,-10,-24,-70,-42,-16,0
1523179569943560,3,-1,-6,0,39,14,-10,-4
1523179569965617,16,-1,2,7,-20,-17,4,25
1523179569965617,-11,1,0,0,31,14,0,-8
1523179569966619,-6,3,-3,3,-4,10,8,-15
1523179569966619,-5,1,7,23,-8,-12,-30,1
1523179569978653,-2,-1,-1,-5,10,0,1,-4
1523179569978653,0,-8,-9,-14,-5,-7,-3,3
1523179569987676,-1,1,7,6,53,36,-4,5
1523179569987676,11,0,-1,2,15,4,1,12
1523179570002715,-8,0,1,3,-13,5,18,-17
1523179570002715,0,-5,-9,-13,5,-30,1,-4
1523179570003718,-10,-5,-6,-38,-31,-5,-19,0
1523179570003718,1,-2,-2,17,-34,-17,6,-4
1523179570024775,2,2,2,-26,24,-5,-10,8
1523179570024775,-8,-3,4,34,26,14,2,-19
1523179570026779,6,2,6,-3,67,-1,1,9
1523179570026779,-6,-6,-9,1,1,-3,-4,-13
1523179570038812,5,5,6,3,8,16,7,5
1523179570038812,9,3,-1,0,-32,-3,4,12
1523179570047836,-10,-2,-2,43,-24,-42,9,-18
1523179570047836,4,5,3,-53,32,30,-10,21
1523179570062880,-6,-8,-5,22,10,-8,-15,-24
1523179570062880,-5,-4,-6,-23,-45,-6,2,-8
1523179570063882,13,-2,6,18,-10,-3,29,31
1523179570063882,-23,-6,-3,-10,-32,-17,-26,-35
1523179570084935,2,-1,0,27,13,1,11,10
1523179570084935,-1,2,-1,-23,0,2,-12,-8
1523179570086940,8,-3,-2,-6,1,21,-1,11
1523179570086940,-2,1,3,24,21,22,41,-18
1523179570107994,-2,-2,-1,-44,14,12,-45,9
1523179570107994,2,-2,-9,-43,-11,3,-2,1
1523179570109002,-3,2,7,45,42,18,-16,-16
1523179570109002,11,0,1,25,7,-1,9,20
1523179570122034,-3,3,4,-7,-29,-22,8,-11
1523179570122034,3,2,3,13,3,12,2,15
1523179570129059,-7,-5,-7,-13,15,14,-21,-12
1523179570129059,5,-1,-8,-50,-19,-13,-8,0
1523179570145095,-9,-5,11,62,-8,9,6,-9
1523179570145095,9,2,3,-6,-14,-5,0,16
1523179570147103,0,10,10,0,72,26,38,-10
1523179570147103,4,-1,-3,-11,-54,12,-15,21
1523179570167153,7,-4,-9,-16,-88,-23,3,20
1523179570167153,-25,-4,-2,16,61,14,-15,-43
1523179570169158,-1,-1,-4,-17,-10,-3,8,-11
1523179570169158,6,4,6,14,13,0,2,5
1523179570182192,2,-3,-8,-27,-9,2,-14,13
1523179570182192,5,-7,-5,-6,-10,-5,12,10
1523179570184200,-16,-4,0,6,11,-25,-19,-30
1523179570184200,1,2,4,2,-34,15,19,8
1523179570205490,1,4,6,-3,49,40,3,0
1523179570205490,3,-4,-5,-20,11,-16,9,2
1523179570206257,-2,0,-6,5,15,-18,-30,19
1523179570206257,-18,-13,-7,-9,-79,-31,-9,-44
1523179570227317,0,5,8,23,78,11,16,1
1523179570227317,9,3,3,9,0,23,28,7
1523179570229320,-1,-8,-9,-35,-7,-33,-23,10
1523179570229320,-4,-2,-4,-4,11,-14,-18,-6
1523179570242355,5,2,2,5,-49,-25,4,6
1523179570242355,-8,-1,-1,10,11,1,-10,-2
1523179570244361,3,-1,-3,-13,-48,6,6,-9
1523179570244361,1,4,10,41,30,-19,2,4
1523179570264411,-1,-11,-14,-25,34,8,-17,1
1523179570264411,-1,3,4,3,-60,-33,-2,-14
1523179570266417,1,0,0,8,-30,17,8,-2
1523179570266417,23,1,3,10,39,13,9,49
1523179570287472,-28,-4,-8,-4,-71,-29,-4,-53
1523179570287472,3,3,18,20,85,-11,-79,7
1523179570288475,0,0,-9,-48,-48,-30,-3,3
1523179570288475,9,2,3,22,1,15,7,9
1523179570301515,4,2,-5,-32,31,2,15,10
1523179570301515,-11,-7,-2,43,-13,9,5,-15
1523179570308534,3,1,4,30,31,7,5,7
1523179570308534,0,2,-3,-16,27,0,-17,17
1523179570324573,2,-4,-7,-22,-22,-13,6,-22
1523179570324573,-25,-3,-1,-2,-42,-12,4,-25
1523179570326576,7,-2,0,-3,86,41,5,1
1523179570326576,0,7,0,-9,-31,5,6,-7
1523179570347682,14,-6,-3,12,-13,-11,-5,27
1523179570347682,-20,-11,-14,-31,-34,-14,-20,-18
1523179570348635,-1,4,2,7,-17,-5,11,2
1523179570348635,-15,-12,-8,-13,-22,-1,-11,-15
1523179570361671,7,3,-1,-13,5,-5,-7,17
1523179570361671,18,7,6,30,2,17,33,4
1523179570368687,-10,-5,-5,-3,-11,-7,-31,5
1523179570368687,-7,-7,-9,-7,17,-8,-6,-16
1523179570384736,-2,-4,-9,-12,-29,-6,-19,-9
1523179570384736,1,-5,-7,-17,-5,10,10,4
1523179570386737,-1,4,6,16,-57,-14,8,-8
1523179570386737,6,0,7,39,41,11,3,11
1523179570407791,-11,-1,-6,-29,-29,9,4,0
1523179570407791,-1,-3,-1,33,39,4,-10,-2
1523179570408804,4,0,-8,-42,-55,-18,-19,1
1523179570408804,-1,-7,-5,-16,-8,-7,-8,11
1523179570421830,5,5,7,20,11,-11,13,-3
1523179570421830,-17,-6,-3,-8,-19,4,-5,-26
1523179570428854,7,-1,1,8,9,17,6,19
1523179570428854,-4,-2,-4,-2,-6,-24,1,-8
1523179570444891,-8,-2,2,10,14,1,-6,-10
1523179570444891,14,3,0,-23,2,-2,9,20
1523179570446897,-4,2,3,31,12,-3,9,-14
1523179570446897,-4,2,0,-32,-8,-11,9,-7
1523179570466952,1,1,2,16,-66,-12,-38,6
1523179570466952,6,0,-3,-6,50,34,8,14
1523179570468956,-4,-11,-15,-36,-70,-16,-11,-7
1523179570468956,1,1,0,-7,76,-4,21,-15
1523179570481991,-2,5,10,36,16,25,22,-3
1523179570481991,-3,-4,-8,-29,-31,-32,-1,0
1523179570488007,4,5,9,37,27,29,1,16
1523179570488007,5,-6,-6,-1,-36,-2,-16,8
1523179570505288,-12,-3,-1,-12,-5,6,11,-26
1523179570505288,0,-2,-1,20,17,10,4,-3
1523179570507108,2,1,-1,-44,50,-3,12,0
1523179570507108,-3,1,6,46,-68,-3,-14,4
1523179570527111,1,-4,-3,-6,23,7,14,9
1523179570527111,5,1,-1,-10,-4,29,3,0
1523179570529117,-7,-4,-11,-52,3,-34,-9,-13
1523179570529117,4,6,16,87,46,15,-1,3
1523179570542152,0,2,4,1,-4,1,7,5
1523179570542152,3,3,5,2,11,-28,18,2
1523179570548165,4,1,-2,8,-35,-17,8,15
1523179570548165,-14,-6,-11,-35,74,3,-24,-29
1523179570565212,-3,-1,-5,-40,-16,7,-9,-3
1523179570565212,2,6,7,47,63,-8,-10,1
1523179570566216,-2,0,8,53,52,38,5,-13
1523179570566216,-16,-10,-11,-61,-18,-22,-9,-12
1523179570587269,13,2,-4,-12,32,-4,2,30
1523179570587269,-5,-1,-1,-5,-10,2,-1,1
1523179570589275,2,-3,-4,-20,-9,45,2,-6
1523179570589275,0,7,11,36,17,15,11,-6
1523179570601361,4,-2,-4,3,22,-2,-24,2
1523179570601361,-5,-4,-4,-13,-71,-12,-2,5
1523179570610334,-1,-4,-7,-29,5,-25,-24,-5
1523179570610334,-3,4,4,23,-55,33,19,-4
1523179570625371,-1,-1,4,14,43,-5,16,7
1523179570625371,6,1,-1,-3,-8,16,2,6
1523179570626372,-1,3,0,-5,-4,-15,2,3
1523179570626372,4,-8,-13,-44,29,-14,-35,8
1523179570647438,-9,-2,5,46,-44,-7,10,-21
1523179570647438,2,0,2,-14,23,4,6,1
1523179570649434,-1,2,2,-1,-38,-17,-1,-2
1523179570649434,2,-3,-7,-18,54,13,9,6
1523179570661466,-4,-2,1,23,20,23,9,4
1523179570661466,-2,-4,-6,-2,-46,-17,-13,-6
1523179570669489,-2,-1,6,11,-10,-8,6,-2
1523179570669489,13,5,-1,13,-4,-5,7,18
1523179570684534,-19,-4,0,-12,1,15,-7,-34
1523179570684534,5,6,6,16,-8,0,11,7
1523179570686533,8,-1,-4,7,23,15,7,12
1523179570686533,-2,2,3,-3,10,10,9,5
1523179570707588,-2,-8,-7,-35,-20,-2,-10,3
1523179570707588,-4,-3,4,65,9,-12,-5,-5
1523179570708594,-1,2,1,-1,-4,6,-28,-5
1523179570708594,-4,0,-5,-21,-31,-35,-11,-5
1523179570720624,5,0,-1,-4,3,-16,-6,-5
1523179570720624,-4,-6,-11,-28,21,-20,-17,-3
1523179570729648,0,-8,-5,-42,20,15,11,-3
1523179570729648,0,3,12,80,-11,15,7,1
1523179570744689,8,4,-1,-13,-2,-2,-9,20
1523179570744689,-6,-7,-11,-66,20,-6,-5,-12
1523179570746694,0,-7,0,81,14,-11,6,-7
1523179570746694,-1,1,-1,-49,-25,12,-1,-3
1523179570767748,10,5,14,55,77,7,12,25
1523179570767748,-4,1,-1,-18,-16,-2,-7,-17
1523179570768752,-5,0,0,-6,-8,-1,6,1
1523179570768752,-5,-6,-4,-24,64,20,0,-16
1523179570780789,-5,0,-3,-6,-39,-15,13,-1
1523179570780789,13,5,6,7,2,37,4,28
1523179570797829,-18,6,14,53,42,7,-15,-29
1523179570797829,1,-1,-3,-12,-24,-22,0,-4
1523179570805069,0,-8,-7,-26,-20,-13,-6,-1
1523179570805069,-4,-1,2,34,33,7,10,-13
1523179570806853,11,1,-1,-43,-55,13,20,29
1523179570806853,-2,-7,-5,-5,-7,-2,8,2
1523179570826909,2,0,-8,-30,42,10,10,-9
1523179570826909,-10,2,11,54,-43,-8,21,-1
1523179570828919,-9,-8,-4,27,36,5,7,-5
1523179570828919,-2,-3,-12,-34,-46,-30,-8,-4
1523179570840943,2,2,4,32,39,11,-2,-3
1523179570840943,-7,-10,-11,-11,-17,19,0,-7
1523179570849967,12,1,0,-19,-32,-21,8,30
1523179570849967,-21,2,2,11,57,11,-17,-42
1523179570865006,3,-2,-1,6,-37,-6,-3,6
1523179570865006,7,1,-3,-10,5,-6,-10,15
1523179570866010,-9,-5,-1,6,-2,-16,-7,-4
1523179570866010,2,-6,-12,-34,-105,-7,-14,-4
1523179570887068,11,9,25,104,88,13,3,23
1523179570887068,-15,2,-4,-46,5,2,3,-21
1523179570889072,4,-3,-11,-46,-8,-1,1,-1
1523179570889072,-1,0,6,36,1,-10,13,6
1523179570901343,-1,3,-3,-32,-23,13,6,3
1523179570901343,-2,-6,-6,-54,-34,-2,-29,-8
1523179570910132,1,-2,1,66,8,-53,-10,-2
1523179570910132,7,6,13,14,12,18,15,30
1523179570925171,-15,-7,-9,-24,-45,-14,-8,-26
1523179570925171,4,-1,-5,-26,0,-10,-4,6
1523179570926169,-6,-3,-10,-4,1,-7,-7,-16
1523179570926169,3,2,9,23,-61,-6,-2,9
1523179570947228,4,2,-2,-35,9,-9,6,7
1523179570947228,13,-7,-10,18,-11,7,8,32
1523179570949231,-20,3,10,-11,20,23,0,-43
1523179570949231,6,-5,-5,2,19,-10,-23,7
1523179570961263,-5,8,5,28,-64,0,6,-25
1523179570961263,4,-1,4,6,-7,25,14,8
1523179570970287,7,-2,-4,-2,25,27,9,18
1523179570970287,-9,-2,-2,-21,-21,-10,-11,-13
1523179570984370,-4,-5,-7,-10,-18,-23,-15,3
1523179570984370,6,4,7,20,-1,-18,-1,0
1523179570986330,10,-1,-11,-38,-38,-13,-6,-2
1523179570986330,-26,-3,0,5,58,26,7,-33
1523179571007385,-1,-6,-5,-18,24,1,-7,0
1523179571007385,1,3,5,40,-66,-19,1,9
1523179571009392,4,0,-7,-35,-13,-19,-6,0
1523179571009392,5,-5,-9,6,0,-19,-9,-8
1523179571029447,-2,-1,-2,-5,-34,2,43,-1
1523179571029447,-4,-8,0,9,72,-15,-27,0
1523179571031449,-7,2,7,33,4,5,13,1
1523179571031449,3,-1,-5,-11,10,17,1,7
1523179571044488,-8,-5,-4,-4,-41,-17,-8,-16
1523179571044488,11,-1,-9,-22,-9,6,-3,24
1523179571046493,-15,4,5,-4,4,-1,-1,-34
1523179571046493,1,-4,4,8,43,-6,5,-5
1523179571074570,6,-1,-3,-16,-53,4,-10,21
1523179571074570,3,-4,-9,-60,49,-7,-1,-3
1523179571076588,-14,-3,6,60,-11,6,-3,-8
1523179571076588,10,5,2,-12,-18,-7,13,2
1523179571089605,-16,-7,-7,-5,46,24,-37,-18
1523179571089605,3,0,-6,-57,1,0,15,5
1523179571091612,1,-5,0,6,-20,15,-10,1
1523179571091612,4,-3,-11,-32,-19,-19,-4,10
1523179571104881,-5,-6,2,37,55,-4,-4,3
1523179571104881,10,-1,1,-12,32,-9,-9,18
1523179571106649,-8,0,-1,-14,-23,30,16,-18
1523179571106649,-2,4,13,41,-28,-11,4,4
1523179571127747,2,-3,-13,-60,23,-11,-11,5
1523179571127747,-7,7,9,63,47,24,8,-16
1523179571128714,5,-7,-10,-46,-34,-4,2,21
1523179571128714,0,3,8,6,15,20,4,-1
1523179571149766,0,2,0,-10,-30,12,9,-7
1523179571149766,6,-4,-2,11,-2,-20,-8,3
1523179571151771,-14,0,-4,-16,40,-1,-5,-14
1523179571151771,-7,-2,-4,-17,-34,4,-19,-16
1523179571163802,5,-1,4,31,54,2,1,1
1523179571163802,-9,3,-2,-18,-87,-38,-8,-24
1523179571170821,11,2,3,8,22,8,1,21
1523179571170821,-5,-8,-6,-31,-28,-12,4,2
1523179571186865,0,1,1,13,-5,-4,13,-3
1523179571186865,-2,0,-3,2,-33,2,-20,1
1523179571188868,-9,-4,-5,-13,-4,-12,-3,-12
1523179571188868,6,-1,-7,-16,-16,-27,13,11
1523179571209928,-6,-3,-3,8,-1,-24,-14,-19
1523179571209928,-2,6,4,-4,-32,13,16,5
1523179571211934,6,-2,0,13,39,13,6,18
1523179571211934,-3,-2,-5,4,10,-1,3,-10
1523179571223968,16,-6,-8,-25,-46,-26,-32,29
1523179571223968,-29,2,10,17,53,21,10,-48
1523179571230979,11,3,0,18,-14,-26,-10,11
1523179571230979,6,0,3,-14,45,35,7,14
1523179571247028,-3,4,7,20,13,20,4,0
1523179571247028,-5,-10,-10,-8,-6,-22,-7,-8
1523179571249029,4,-8,-10,-15,-68,-19,-3,6
1523179571249029,0,-3,-1,2,46,11,-3,12
1523179571270087,-4,-1,-9,-17,-41,5,10,-16
1523179571270087,1,1,9,17,29,-5,7,23
1523179571271086,2,-1,0,8,15,-4,-12,-19
1523179571271086,-13,2,4,-6,-44,-11,-28,-31
1523179571284122,-2,-4,-5,-26,37,11,3,7
1523179571284122,5,3,13,99,28,16,5,5
1523179571291146,-2,-9,-18,-73,-49,-12,-1,10
1523179571291146,7,4,9,77,-10,-6,-11,11
1523179571307181,-9,2,-3,-36,52,5,2,-16
1523179571307181,12,-3,-3,-16,-59,25,2,9
1523179571309188,-11,0,5,5,2,-3,-1,-10
1523179571309188,7,-2,-4,-3,-3,-7,-3,15
1523179571330244,-6,-2,-1,-5,-23,-10,14,-12
1523179571330244,-2,3,3,10,10,6,11,-1
1523179571331246,2,3,8,22,9,-2,1,-10
1523179571331246,0,-1,-8,-41,16,5,3,1
1523179571352520,1,-3,2,25,-2,0,-6,0
1523179571352520,-8,-8,-8,-11,5,-26,-9,-10
1523179571354309,5,5,5,44,4,21,7,12
1523179571354309,11,0,1,-23,21,2,3,14
1523179571367342,-19,-1,5,13,18,5,2,-15
1523179571367342,-7,-5,-9,-28,-42,-6,-25,-14
1523179571369348,2,1,0,-15,2,-15,-19,4
1523179571369348,1,-2,-5,6,35,20,25,3
1523179571389639,13,1,5,42,-34,-30,-1,22
1523179571389639,-14,-1,-6,-21,-43,-2,5,-13
1523179571391407,5,8,4,-9,15,31,-2,1
1523179571391407,-1,-3,-6,-5,37,14,4,11
1523179571403676,4,6,4,-8,-2,4,-7,0
1523179571403676,-11,-8,-3,-9,-47,2,1,-22
1523179571412462,9,4,6,15,73,18,6,13
1523179571412462,-4,-3,-8,-18,-47,-22,-12,-9
1523179571434521,-11,-3,-2,-10,-16,-12,4,-11
1523179571434521,9,1,-1,33,25,-15,-6,12
1523179571436526,1,0,4,-46,26,24,7,17
1523179571436526,0,-1,2,34,-14,-6,-14,-13
1523179571449562,-6,-4,-5,-23,-13,-6,13,-16
1523179571449562,-1,0,0,-23,34,8,0,-2
1523179571451566,-2,-2,-2,22,-44,-27,-5,-13
1523179571451566,-4,-2,-2,15,47,8,4,15
1523179571463603,13,9,17,54,77,46,5,13
1523179571463603,4,-5,-8,-51,-70,-15,7,12
1523179571472623,-23,-6,-1,14,9,4,4,-33
1523179571472623,5,2,-1,-31,-23,4,20,-7
1523179571487663,17,1,2,48,-10,-9,-40,30
1523179571487663,-31,0,-1,-21,46,10,-2,-42
1523179571488665,7,-2,-4,3,26,-16,-7,15
1523179571488665,-8,-6,-10,-51,-72,-46,-7,-11
1523179571509729,2,-2,3,15,-5,-2,-10,6
1523179571509729,6,4,4,21,14,15,5,-4
1523179571511730,-1,-1,-5,-1,-24,-23,-5,2
1523179571511730,-12,0,-3,-1,34,15,-1,-18
1523179571523763,4,-3,-11,-56,-46,-23,9,6
1523179571523763,3,-2,4,64,68,0,-19,0
1523179571530776,1,-6,-6,-18,-17,15,5,11
1523179571530776,-10,-1,4,37,38,6,20,-12
1523179571547823,3,5,6,-20,-42,0,6,3
1523179571547823,5,3,-4,-18,-6,-6,5,5
1523179571548826,2,-10,-3,15,-13,-9,-3,3
1523179571548826,1,1,0,-12,-7,11,9,5
1523179571569883,-18,-5,-9,-12,13,-9,-41,-27
1523179571569883,-2,2,12,20,40,33,10,-14
1523179571571888,10,1,-4,-15,32,-5,0,17
1523179571571888,0,0,0,2,-74,3,-16,5
1523179571583955,-5,-3,2,43,11,2,22,-1
1523179571583955,8,-6,-13,-43,10,-20,-4,8
1523179571592944,-9,-1,0,-14,-6,10,-3,-30
1523179571592944,4,2,5,7,39,12,28,-1
1523179571606979,0,-2,-13,-7,-15,-16,5,6
1523179571606979,11,1,5,-29,-50,-2,-2,21
1523179571608985,1,-2,3,4,15,17,9,2
1523179571608985,-5,-4,-7,-20,-46,-16,-18,-2
1523179571630044,-8,-3,-1,-1,30,7,-2,-16
1523179571630044,-2,1,-1,0,1,-24,-3,-10
1523179571632046,4,4,5,5,35,6,0,10
1523179571632046,3,-2,-2,-1,-63,-18,-12,10
1523179571643077,3,-1,-4,-17,31,25,8,3
1523179571643077,13,-3,-4,-5,6,-4,-1,42
1523179571652334,-25,1,2,27,-36,-13,14,-58
1523179571652334,-1,-4,-2,17,119,11,-14,-4
1523179571667140,2,2,0,-27,-43,8,-3,4
1523179571667140,2,6,6,17,-50,-23,-6,7
1523179571669145,11,-2,-6,-12,-37,-13,7,24
1523179571669145,-7,-3,0,20,-49,-23,-10,-10
1523179571690257,7,-3,0,0,21,-1,1,9
1523179571690257,-13,-7,-7,8,-6,0,0,-19
1523179571691209,7,-2,-4,11,18,5,-1,13
1523179571691209,-5,3,-1,-32,-57,-41,-17,-27
1523179571703471,8,-7,-7,-22,-19,3,0,27
1523179571703471,-7,3,3,23,43,10,0,-15
1523179571712260,-1,-11,-6,-36,-12,11,3,14
1523179571712260,-2,-2,0,10,-12,14,0,7
1523179571727319,2,1,-4,3,49,5,9,-9
1523179571727319,-17,-8,-8,-2,1,-14,9,-25
1523179571729307,5,6,2,-43,10,4,-17,9
1523179571729307,11,-1,4,38,51,9,4,24
1523179571750360,-11,1,2,-12,-21,4,-3,-24
1523179571750360,7,2,-1,3,-46,-7,-2,5
1523179571751378,7,0,-3,2,-34,-13,-5,22
1523179571751378,-15,-2,-3,-17,29,5,-5,-43
1523179571772461,0,-3,-7,-4,-15,-23,-17,5
1523179571772461,3,2,11,33,-4,21,-2,8
1523179571774429,1,-2,-9,-5,-4,-28,-14,8
1523179571774429,-10,0,5,2,-13,-8,9,0
1523179571787460,2,5,9,37,17,11,11,0
1523179571787460,-5,0,0,-30,-13,27,-5,-10
1523179571788463,5,-3,0,-1,15,-8,-15,8
1523179571788463,2,-2,-3,14,-32,3,-10,2
1523179571809518,-5,-4,-5,-28,-38,-16,-3,-4
1523179571809518,1,-1,-2,-20,-5,-7,-6,-2
1523179571811527,-8,-2,8,53,53,16,6,-20
1523179571811527,-4,3,1,0,-29,0,14,-4
1523179571823565,1,-5,-4,-2,5,21,-12,-12
1523179571823565,3,1,-2,-17,26,7,-3,26
1523179571832579,-9,-6,-12,-18,-53,-27,0,-24
1523179571832579,-7,1,-1,3,1,-1,15,-6
1523179571847622,-1,-2,1,10,1,-9,-4,0
1523179571847622,10,-1,-7,7,39,-14,11,13
1523179571848622,4,2,5,-14,-44,-1,5,14
1523179571848622,-8,-1,-3,-14,-6,8,-12,-15
1523179571869678,2,0,-2,-5,4,-5,4,-4
1523179571869678,-12,-7,-4,9,-22,-21,-13,-19
1523179571871682,7,3,0,-11,5,33,10,17
1523179571871682,15,4,3,-2,3,-12,-1,27
1523179571883716,-12,-3,4,30,16,2,-7,-18
1523179571883716,-8,-7,-7,-13,23,9,-2,-7
1523179571892740,-7,-4,-6,-14,-75,-12,-11,-11
1523179571892740,9,-4,-3,5,32,23,18,10
1523179571907781,6,-2,-2,-8,-32,-13,-1,26
1523179571907781,-2,6,14,55,11,12,5,-15
1523179571909786,-5,-1,0,-8,21,-30,-12,-16
1523179571909786,15,-1,-5,-5,-21,24,1,38
1523179571929840,-32,-6,-7,-33,-27,1,2,-62
1523179571929840,4,-4,-7,-10,-13,13,-5,1
1523179571931843,-1,-1,-4,-9,5,-14,3,1
1523179571931843,-6,-4,-1,-1,-56,-3,-36,-22
1523179571943876,16,5,0,6,62,2,29,39
1523179571943876,-3,-2,0,-8,-5,8,-11,0
1523179571952899,-17,-3,-2,23,5,-2,-1,-26
1523179571952899,10,-3,-11,-46,20,-4,-3,31
1523179571966977,-3,6,7,11,-15,9,3,-19
1523179571966977,-5,-6,-8,-38,-7,-22,-1,-5
1523179571968941,7,0,4,43,21,9,21,24
1523179571968941,-9,-2,4,17,67,15,-4,-16
1523179571989999,-3,-2,-5,7,-57,-24,-9,-10
1523179571989999,19,2,4,-49,-8,-16,2,32
1523179571991001,-6,4,6,-5,-24,-1,-7,-6
1523179571991001,-14,2,-2,13,40,34,16,-43
1523179572012062,3,-1,1,1,26,10,6,5
1523179572012062,-1,-6,-15,-56,-85,-53,-9,2
1523179572014062,-1,-5,2,66,100,22,3,0
1523179572014062,10,6,8,-27,-99,-21,5,16
1523179572027141,-2,-3,-2,-1,3,6,28,5
1523179572027141,0,-2,-6,-1,5,6,-19,-4
1523179572029103,4,0,0,-20,5,-5,-9,13
1523179572029103,-20,-7,-6,9,10,-25,10,-28
1523179572050158,13,1,5,42,28,18,-9,30
1523179572050158,-8,6,-2,-21,-9,1,2,-10
1523179572051286,-13,-7,1,16,-2,9,6,-25
1523179572051286,9,2,4,26,18,18,-4,20
1523179572072216,2,-6,-7,-44,-28,-39,-17,12
1523179572072216,-3,6,1,6,59,39,21,-7
1523179572074222,4,3,4,15,17,2,-1,-4
1523179572074222,4,-5,-7,-37,-80,-33,-4,3
1523179572086254,-9,4,3,24,41,9,-13,-12
1523179572086254,-11,-6,-7,-6,-78,-3,7,-15
1523179572087256,1,2,1,-7,-2,-19,-5,-7
1523179572087256,-1,0,1,-5,32,3,-8,5
1523179572109315,-5,-3,-8,-30,-18,-14,3,-2
1523179572109315,6,1,13,95,55,21,0,14
1523179572110318,7,6,4,-3,10,23,16,19
1523179572110318,-4,-4,-5,-3,-8,-27,-15,-13
1523179572131372,3,1,1,-18,-2,-4,-14,-1
1523179572131372,4,-4,-1,13,-16,-14,-36,7
1523179572132376,-13,-7,-10,-25,-17,-13,-5,-23
1523179572132376,17,4,7,19,9,1,12,22
1523179572146641,-10,-7,-8,-6,-8,11,-13,-17
1523179572146641,-4,-1,6,4,33,1,2,-11
1523179572147416,11,5,-4,-2,-42,-13,-10,17
1523179572147416,0,2,-1,-35,69,30,-1,-3
1523179572169476,1,1,7,44,-18,-1,7,5
1523179572169476,5,-4,-7,-21,-1,-6,5,20
1523179572169476,-8,-1,-4,-8,15,-6,-16,-5
1523179572169476,-15,-6,-8,-9,-17,-46,4,-28
1523179572192536,4,-5,-3,-8,-41,20,2,0
1523179572192536,0,1,-3,-21,-1,-5,17,4
1523179572192536,-5,0,0,-4,2,6,-8,-8
1523179572192536,1,5,7,18,26,7,26,-9
1523179572206574,7,0,-4,-19,-2,12,1,11
1523179572206574,-25,-6,3,11,21,-4,-16,-30
1523179572207578,-2,-2,-6,-18,-32,-9,-2,-3
1523179572207578,-2,1,4,16,10,6,-5,8
1523179572228636,-3,-8,-8,-2,-11,-38,-24,-7
1523179572228636,7,5,4,-17,-24,10,9,5
1523179572229634,0,-4,7,36,-20,-3,32,-5
1523179572229634,11,3,0,-8,31,34,-8,32
1523179572251930,-23,-4,-4,-21,-2,-7,24,-39
1523179572251930,9,-1,-7,-30,15,4,-6,17
1523179572252695,-7,-2,-2,22,10,-1,-17,-21
1523179572252695,-5,-4,-8,-10,-28,16,18,-8
1523179572265771,8,7,14,43,21,6,7,15
1523179572265771,9,-5,-5,-1,9,-2,4,1
1523179572273758,-8,-2,0,-36,-1,20,-4,-1
1523179572273758,6,9,12,41,-11,-10,-14,-6
1523179572288791,-3,-9,-9,4,42,-6,-11,11
1523179572288791,0,2,5,17,-8,10,34,-13
1523179572289797,9,0,-1,-25,-12,-1,-7,12
1523179572289797,-5,-8,-9,-4,16,-13,-10,-6
1523179572311855,13,4,-2,-41,-46,-11,12,24
1523179572311855,-9,3,8,31,-5,37,-5,-41
1523179572312857,2,-3,-11,-30,-11,-17,7,12
1523179572312857,-11,-3,5,26,-4,-6,-4,-14
1523179572325947,6,-2,-6,7,-12,-11,0,0
1523179572325947,-12,-6,-12,-18,9,-18,-35,-5
1523179572333919,3,6,11,5,5,11,-6,9
1523179572333919,13,-5,-11,-15,27,-6,-13,15
1523179572348991,-18,-1,6,19,-7,23,20,-30
1523179572348991,3,-1,-8,-26,-45,-29,-3,13
1523179572349954,-1,2,4,14,22,5,2,-18
1523179572349954,2,-2,3,9,-43,-11,-4,13
1523179572372013,8,0,-2,1,35,5,0,17
1523179572372013,-7,1,9,-7,33,11,-4,-24
1523179572372013,-3,1,0,-6,-47,-8,-2,4
1523179572372013,5,-2,-5,-11,15,14,5,4
1523179572386050,-9,4,2,-8,-33,-2,-16,-6
1523179572386050,-2,-9,-3,31,-1,-3,23,8
1523179572394076,9,1,-1,-28,-14,-18,8,2
1523179572394076,-13,-3,1,22,79,11,-14,-13
1523179572409115,6,2,3,-1,-10,-13,4,-13
1523179572409115,4,1,-6,-17,48,4,11,23
1523179572410117,-2,-3,2,44,-9,3,5,-8
1523179572410117,3,1,0,-6,-33,-8,5,11
1523179572431169,0,2,5,3,35,-15,-20,-3
1523179572431169,2,1,-1,-33,-43,-11,12,4
1523179572432172,1,-5,1,58,41,13,16,9
1523179572432172,-19,-8,-11,-52,-11,-4,-4,-29
1523179572446218,0,6,12,46,38,3,0,-6
1523179572446218,5,2,1,-1,33,-9,-17,7
1523179572462261,3,-3,-10,-20,-26,-4,-11,7
1523179572462261,-1,-2,-5,6,5,-32,-19,10
1523179572469272,-5,4,2,-25,-20,16,24,-20
1523179572469272,0,0,4,16,-23,3,5,0
1523179572470274,8,-2,-4,-17,57,27,-3,16
1523179572470274,-11,-10,-7,-21,-25,-6,-20,-14
1523179572491331,-5,-3,-3,-21,-25,-4,-21,4
1523179572491331,-6,-2,-3,32,-16,-1,1,-11
1523179572492334,11,3,-1,-14,-7,-24,-13,11
1523179572492334,-18,-5,-12,-44,24,-7,-2,-14
1523179572506370,6,2,8,20,-21,33,42,5
1523179572506370,-1,2,3,6,27,10,-12,10
1523179572514391,4,-5,-9,-27,-68,-29,-27,1
1523179572514391,-3,3,4,3,25,11,6,-9
1523179572529430,-7,-9,-18,-23,4,3,-7,-19
1523179572529430,7,5,6,8,-20,-13,9,13
1523179572530433,-9,0,10,47,63,29,6,-3
1523179572530433,5,4,7,4,-41,-35,-1,-6
1523179572551724,1,-7,-12,-30,-57,-17,-16,10
1523179572551724,5,-5,0,21,36,33,12,-3
1523179572552493,-15,-4,-8,-29,5,-3,3,-13
1523179572552493,10,4,8,27,-1,4,9,16
1523179572565526,18,-5,-5,-3,9,-15,-16,38
1523179572565526,-33,-5,-7,-27,-25,-39,-3,-56
1523179572574596,1,3,5,5,9,16,3,-1
1523179572574596,1,-3,-4,14,-28,-8,12,9
1523179572589591,-2,-2,-8,-40,6,-1,-14,-7
1523179572589591,8,4,14,82,-6,0,-6,5
1523179572589591,-5,-2,-3,-1,-5,-8,-7,-1
1523179572589591,3,4,8,7,6,9,14,0
1523179572611650,-2,1,0,-12,22,4,-2,-2
1523179572611650,6,-1,-9,-23,30,3,2,20
1523179572612653,-8,0,3,-13,-44,-17,5,-16
1523179572612653,3,4,1,19,19,41,-5,5
1523179572625693,-8,-1,1,-8,67,33,6,-10
1523179572625693,1,-4,-4,-6,-23,6,-6,11
1523179572634712,6,1,-2,-12,12,-1,-7,20
1523179572634712,-4,-4,-2,-13,-26,-6,-7,-9
1523179572648750,-2,0,-2,-8,-60,-28,4,-24
1523179572648750,-1,-2,-1,17,54,16,7,0
1523179572649753,0,1,-3,-12,34,11,-17,11
1523179572649753,-2,-1,1,21,-8,26,-3,-11
1523179572671810,0,1,3,13,-46,7,5,0
1523179572671810,7,-6,-7,-24,-16,-13,-3,4
1523179572672814,-6,-1,0,-11,-58,-3,6,-24
1523179572672814,3,-1,-1,-3,73,-4,2,7
1523179572685847,10,-6,-5,5,-8,-4,-15,28
1523179572685847,-15,-3,0,2,-19,12,-1,-26
1523179572693924,2,2,-2,-9,0,0,3,3
1523179572693924,-3,-2,-8,-44,-46,-4,-18,-5
1523179572708913,13,5,9,54,72,6,21,34
1523179572708913,-28,-7,-3,-6,-25,-20,4,-49
1523179572709912,-10,-9,-12,-34,-29,-12,-11,-21
1523179572709912,9,3,-8,-12,-18,-22,-1,11
1523179572739994,6,1,13,42,29,-3,-17,2
1523179572739994,-7,-2,-7,-40,-20,3,19,-3
1523179572740999,5,0,2,-6,-59,-9,1,16
1523179572740999,-7,-1,2,-4,19,20,-3,-8
1523179572746009,2,0,1,8,18,7,-1,-2
1523179572746009,5,0,-5,-8,-5,5,0,5
1523179572754263,0,-3,-2,9,3,-16,1,-7
1523179572754263,3,-4,-2,-2,2,-17,-4,10
1523179572769068,-8,-1,-4,-42,-88,-27,-4,-1
1523179572769068,11,5,9,36,62,11,-9,7
1523179572770070,-6,2,-2,-27,45,2,0,-13
1523179572770070,14,1,3,35,-27,10,27,30
1523179572792132,-31,-5,-8,-19,25,-27,-9,-54
1523179572792132,14,3,-1,-4,-27,-1,-6,13
1523179572792132,-4,-4,-1,-8,-5,6,3,-5
1523179572792132,0,4,10,32,10,-8,1,-2
1523179572806169,1,-1,-7,12,-42,-11,-3,5
1523179572806169,3,-1,-7,-9,-57,-14,-2,18
1523179572814188,1,1,4,6,75,19,7,10
1523179572814188,-11,-11,-12,-33,-20,-32,-28,-19
1523179572829228,-6,1,1,21,2,14,19,-13
1523179572829228,7,1,-1,-19,23,15,-3,11
1523179572830231,-7,-1,1,25,-49,-1,4,-6
1523179572830231,-5,-4,-7,-23,17,-13,-6,-8
1523179572851326,3,0,5,25,24,0,-5,1
1523179572851326,-2,-4,-10,-20,50,-19,20,0
1523179572852288,9,6,14,49,-7,-15,-35,31
1523179572852288,-13,-6,-4,-10,-19,1,2,-35
1523179572866326,-5,-8,-9,-24,13,19,-6,-5
1523179572866326,9,0,7,28,54,6,9,19
1523179572874350,2,3,0,-10,-9,-5,-3,-13
1523179572874350,2,-2,-1,25,16,6,7,7
1523179572889387,0,2,-4,-22,9,-16,-6,12
1523179572889387,-5,-3,0,15,-12,22,-14,-4
1523179572890395,-2,-5,-10,-13,-36,-6,25,1
1523179572890395,3,8,5,-8,2,11,5,2
1523179572911448,-7,-1,1,-10,18,-10,-13,-20
1523179572911448,5,-1,1,8,-36,-8,-12,18
1523179572912449,-7,0,5,12,111,14,4,-14
1523179572912449,7,-1,-10,-32,-35,-19,-2,21
1523179572934510,-6,3,5,17,-24,3,-1,-14
1523179572934510,0,-3,-3,-8,-24,8,-21,7
1523179572935511,-6,-4,-9,-10,32,8,5,-17
1523179572935511,3,5,8,-18,-33,-24,-12,18
1523179572949574,0,-3,1,11,25,-3,-13,1
1523179572949574,3,4,7,-2,15,6,17,1
1523179572949574,1,-1,-9,-9,-43,-9,10,1
1523179572949574,10,1,-1,6,14,3,-21,23
1523179572971843,-19,-6,-5,-19,4,3,-6,-39
1523179572971843,-2,2,1,-2,-18,9,3,-10
1523179572978624,-6,-8,-7,-5,-24,-4,1,-11
1523179572978624,-2,-4,-5,-5,14,16,6,15
1523179572994903,14,1,2,8,46,12,5,28
1523179572994903,-9,1,3,0,23,-27,0,-25
1523179572995671,-1,-2,3,2,-63,2,-5,-5
1523179572995671,-6,-2,-3,-6,95,21,25,-20
1523179573017730,6,-1,-1,11,-40,29,10,17
1523179573017730,-4,-4,-6,3,-23,-15,-5,-3
1523179573017730,2,-4,-6,-30,-26,-26,-11,12
1523179573017730,-2,1,3,14,-38,2,18,-13
1523179573031766,3,0,3,36,24,-4,-3,8
1523179573031766,5,-3,-2,8,12,9,12,12
1523179573032768,-7,-2,-1,-19,-22,-11,-5,-21
1523179573032768,-2,0,0,-15,-1,-15,3,-15
1523179573055062,-5,-2,2,0,-19,1,-18,-4
1523179573055062,16,-1,-3,0,14,-4,-7,36
1523179573055835,-17,1,-4,-1,-10,-25,-18,-29
1523179573055835,-6,-4,-3,-10,-23,12,-2,-3
1523179573069866,6,1,-2,6,52,4,8,8
1523179573069866,-2,1,5,15,-12,4,-12,-5
1523179573069866,12,6,3,-5,1,8,5,15
1523179573069866,5,2,-2,-11,7,3,10,7
1523179573091927,-6,0,-5,-61,-17,-13,-28,-5
1523179573091927,-10,-9,6,69,-43,-22,-4,-9
1523179573092929,0,-3,-3,11,105,35,-11,5
1523179573092929,-6,0,3,25,-17,-5,4,-15
1523179573114989,9,1,-4,-24,-17,7,16,32
1523179573114989,-17,1,-6,-58,-27,-12,-5,-43
1523179573115991,10,-2,2,47,-6,1,5,18
1523179573115991,-3,-1,2,9,3,2,-16,-8
1523179573129024,0,-2,-5,-24,23,-12,-3,1
1523179573129024,0,-4,-13,-41,-20,-6,-21,-8
1523179573130027,2,8,25,88,66,21,15,5
1523179573130027,7,4,-7,-19,-4,6,0,13
1523179573152254,-6,-4,1,-17,-30,-14,11,-9
1523179573152254,-6,-6,-3,3,-21,-2,-12,-2
1523179573152254,4,1,-3,-3,-39,15,7,5
1523179573152254,-5,-3,3,25,19,-12,-7,-9
1523179573175154,-9,0,-1,3,-38,-1,6,-24
1523179573175154,5,4,0,-19,36,0,-18,11
1523179573175154,3,-2,-4,-18,-17,-1,5,6
1523179573175154,4,0,3,7,-27,-13,10,10
1523179573189187,-5,-3,-10,-30,9,-6,-32,-8
1523179573189187,6,-2,0,-16,-15,-9,-1,21
1523179573190190,-6,1,5,38,72,-13,-6,-17
1523179573190190,-2,-2,-6,-25,-25,-14,-13,-17
1523179573211243,2,-3,5,52,10,35,34,10
1523179573211243,7,6,5,8,23,11,3,8
1523179573212247,-15,-6,-14,-60,-48,-25,-15,-22
1523179573212247,1,-2,2,17,-3,-6,-8,6
1523179573234305,1,2,0,-25,30,14,10,-17
1523179573234305,1,-2,7,47,-14,-23,11,0
1523179573235307,-3,0,-8,-38,-8,19,7,3
1523179573235307,3,-1,5,15,8,13,-10,1
1523179573249347,8,3,-3,-2,-28,-20,6,19
1523179573249347,-15,-5,-7,-14,17,10,-2,-20
1523179573250347,5,-2,-5,-34,-39,-31,-3,-3
1523179573250347,-2,0,2,57,22,7,4,-5
1523179573271638,3,-3,-9,-20,-14,-7,2,18
1523179573271638,4,6,5,5,-80,-19,-10,2
1523179573272408,-4,-4,-1,-30,14,-13,-10,5
1523179573272408,5,-1,-1,-10,38,32,3,23
1523179573295705,-10,-7,-1,28,-10,-2,19,-18
1523179573295705,-3,-1,-4,-37,3,11,-7,7
1523179573296470,-9,4,7,22,8,-2,6,-14
1523179573296470,12,3,14,42,42,42,23,21
1523179573309505,-2,1,-2,-14,-36,-17,-9,-3
1523179573309505,6,-4,-7,-13,19,-3,16,24
1523179573309505,-8,-3,-8,-6,45,22,-17,-20
1523179573309505,-11,-2,-6,-11,-19,-26,4,-23
1523179573331566,7,6,13,40,19,18,2,3
1523179573331566,-4,2,3,-10,-6,9,3,-5
1523179573332565,0,-6,-10,-7,1,-15,3,9
1523179573332565,-1,-1,0,3,-31,-19,-10,8
1523179573354862,-3,-3,-8,-19,-9,-21,-8,2
1523179573354862,-10,-6,-8,-33,-26,-18,-32,-33
1523179573355626,-2,3,20,58,33,4,1,2
1523179573355626,-2,-3,-13,-42,-28,6,4,2
1523179573369749,3,-1,0,7,5,-16,-22,-1
1523179573369749,-13,-5,-10,-29,-15,-17,5,-10
1523179573369749,10,7,5,13,-20,-7,-5,4
1523179573369749,-8,-9,-7,-19,18,17,-12,0
1523179573391723,8,5,7,16,52,10,8,12
1523179573391723,3,-2,-8,0,5,-5,4,-15
1523179573392726,4,2,-3,5,-13,22,14,1
1523179573392726,-3,0,0,5,-30,-12,-11,-4
1523179573414784,-1,-6,-11,-66,-61,11,6,3
1523179573414784,-6,-2,7,70,17,-4,-21,0
1523179573415787,7,3,0,-8,-17,7,13,4
1523179573415787,-8,-7,-7,-30,-61,-9,-1,-19
1523179573428825,-3,-6,-8,-1,-19,-20,21,8
1523179573428825,8,5,7,5,18,28,13,9
1523179573429824,-21,-6,-12,-33,-78,-34,-11,-30
1523179573429824,12,3,3,9,48,22,15,10
1523179573452117,-10,3,8,30,-4,6,-20,-31
1523179573452117,13,-2,-5,-10,56,19,8,34
1523179573452886,2,-9,-9,-8,-8,-9,2,19
1523179573452886,-17,-5,-5,-22,-43,-25,-6,-43
1523179573474951,0,5,5,16,35,21,-6,-15
1523179573474951,12,6,2,-3,16,-3,10,27
1523179573475949,-10,0,5,14,34,14,-9,-29
1523179573475949,6,2,2,5,-7,-2,8,14
1523179573488984,-3,-9,-13,-24,-60,10,-25,3
1523179573488984,-2,2,2,4,54,9,19,-11
1523179573489986,12,-4,-11,-58,-43,2,14,29
1523179573489986,-11,0,7,101,37,1,-24,-15
1523179573512044,-1,6,2,-13,53,-10,14,-5
1523179573512044,-2,-6,6,14,41,10,-2,-2
1523179573512044,3,0,-3,-1,-47,-19,1,8
1523179573512044,-4,-4,-16,-100,-37,-22,-3,-15
1523179573535105,7,2,9,46,89,-11,-24,22
1523179573535105,-16,1,-6,-7,-94,10,12,-40
1523179573536106,7,-1,6,11,72,25,-8,11
1523179573536106,2,-2,-1,-11,-2,-12,-2,16
1523179573548138,-13,-8,-6,-9,0,-15,-3,-25
1523179573548138,9,1,1,-3,-20,-17,-5,15
1523179573557170,-1,3,4,34,37,31,0,-6
1523179573557170,-2,-2,-7,-9,-54,-14,1,3
1523179573572210,0,-6,-6,-18,-42,-23,-5,2
1523179573572210,10,0,-4,-14,9,-5,10,16
1523179573573209,-13,1,7,45,-13,9,-4,-14
1523179573573209,0,-3,-3,-13,30,-1,5,-8
1523179573595452,-1,1,-2,-29,-19,-13,-17,-1
1523179573595452,1,3,-1,-27,-93,-21,-13,3
1523179573595452,2,-2,0,30,64,11,-4,12
1523179573595452,2,6,13,25,69,16,26,-7
1523179573608299,2,1,-4,-16,-22,-5,3,5
1523179573608299,-9,-3,5,44,31,-13,2,-7
1523179573616320,3,-3,-5,-21,-1,-1,-6,2
1523179573616320,-1,-2,0,10,-49,-17,-13,-2
1523179573631403,0,-1,0,-9,13,7,13,-8
1523179573631403,-2,-6,-6,-28,-13,-8,-10,-8
1523179573632363,-1,5,6,30,-20,21,26,3
1523179573632363,8,4,0,-21,-2,7,-3,14
1523179573655427,0,-1,3,23,18,24,15,-3
1523179573655427,-2,-4,-5,2,51,3,19,-5
1523179573656432,-4,-9,-7,-1,-5,-41,-31,0
1523179573656432,3,10,7,18,-11,4,-3,-11
1523179573668460,6,-9,3,16,28,8,0,9
1523179573668460,-4,0,-1,5,-28,-2,2,-9
1523179573676480,0,0,-6,-40,-69,-33,-4,-5
1523179573676480,-3,-8,-5,-3,33,-5,-4,12
1523179573691522,3,5,6,23,-12,47,9,1
1523179573691522,-8,-3,1,8,-54,-20,-17,-14
1523179573692523,1,2,4,3,94,3,6,-3
1523179573692523,3,-8,-6,-31,-57,-12,-4,4
1523179573714624,-23,5,2,7,-67,-16,-8,-13
1523179573714624,-7,-7,-5,-33,107,-5,-4,-16
1523179573715584,10,4,4,12,3,13,-17,23
1523179573715584,-2,3,0,-16,-16,12,2,-19
1523179573728619,7,-3,1,54,-32,-56,6,20
1523179573728619,-4,12,10,8,48,47,7,-15
1523179573736875,-5,-5,-7,-30,4,-36,-6,-2
1523179573736875,2,-5,-6,7,-42,15,3,7
1523179573751722,0,-6,-14,-30,-28,2,-7,9
1523179573751722,6,4,5,8,-2,-20,-3,16
1523179573752684,-11,-9,-3,32,-1,-16,-18,-23
1523179573752684,-3,-4,2,31,13,-14,0,-4
1523179573774747,12,8,4,-16,15,11,13,19
1523179573774747,-12,-14,-17,-6,-68,-2,-7,-18
1523179573775744,5,0,-3,-3,5,14,10,7
1523179573775744,-4,1,5,-27,77,32,-1,5
1523179573788784,5,0,-2,-23,-11,-14,-10,2
1523179573788784,-11,-3,-6,0,7,2,1,-13
1523179573796800,1,4,-3,-23,-82,-14,-3,-14
1523179573796800,-12,-11,-14,-31,-25,1,-19,-10
1523179573811849,15,12,26,91,89,43,14,9
1523179573811849,5,1,-1,-26,0,8,12,17
1523179573812843,-3,-9,-3,-8,-1,-2,16,1
1523179573812843,-1,1,1,32,10,8,0,-7
1523179573834901,-2,-6,-15,-75,28,-17,-17,0
1523179573834901,-12,-4,-3,22,65,13,-3,-27
1523179573835904,2,0,5,2,7,-2,8,19
1523179573835904,0,1,1,-10,-8,-3,0,-6
1523179573848938,-6,-7,-2,21,-13,-26,-13,-8
1523179573848938,11,7,3,-2,-29,2,-5,15
1523179573856979,-1,-9,-16,-48,45,15,-2,0
1523179573856979,0,3,10,71,7,12,2,10
1523179573872008,-2,3,-3,-31,-11,14,7,-16
1523179573872008,0,0,3,-5,-24,-24,-8,13
1523179573872008,-1,-4,7,-2,30,28,-1,-3
1523179573872008,5,-1,0,28,-73,-28,4,15
1523179573895295,4,-2,-6,-23,50,33,11,10
1523179573895295,-12,-2,-3,-13,-47,-1,-1,-25
1523179573896063,-1,1,-2,-1,24,-2,5,-4
1523179573896063,-1,0,1,5,27,2,4,-15
1523179573917120,-3,0,5,14,-3,-9,-5,-3
1523179573917120,7,-8,-8,-35,-22,-8,-3,15
1523179573918122,4,6,9,60,44,15,2,8
1523179573918122,-6,0,-3,-39,-7,-17,-2,-3
1523179573931160,4,-3,3,64,-20,-7,0,6
1523179573931160,-1,13,6,6,-35,-11,-11,-17
1523179573932160,-2,-2,-1,-5,-10,14,17,8
1523179573932160,-5,-7,-9,-35,39,0,11,-19
1523179573955222,-4,0,-2,-36,-31,-25,-14,-3
1523179573955222,-2,1,2,30,11,9,9,13
1523179573955222,-2,1,-6,-25,-53,-3,-9,-5
1523179573955222,10,3,3,14,67,20,14,19
1523179573977280,-14,-6,-14,-68,-71,-7,-12,-22
1523179573977280,9,0,5,48,107,13,8,4
1523179573978284,-6,4,1,-20,-35,22,10,-3
1523179573978284,1,-1,2,4,23,-2,-5,16
1523179573991318,-9,-6,-6,10,33,18,-8,-19
1523179573991318,10,-4,-3,-31,-58,-15,5,16
1523179573992319,-11,-2,0,-18,20,3,-14,-21
1523179573992319,0,1,-1,12,-30,-4,-11,-6
1523179574014377,0,-1,3,10,8,-7,-4,4
1523179574014377,2,1,-2,-22,31,5,16,6
1523179574015381,2,-4,-4,9,-34,-12,-14,-2
1523179574015381,-8,-5,-7,-34,16,26,16,1
1523179574037440,-2,0,3,39,46,-12,-4,-8
1523179574037440,-3,-5,2,3,-106,-9,-7,0
1523179574038447,11,10,9,-15,63,15,2,9
1523179574038447,4,0,-6,16,20,-11,5,8
1523179574051711,-6,-11,-11,-30,-11,8,3,10
1523179574051711,1,3,5,14,-36,-15,-13,3
1523179574052479,-8,-7,-6,-1,-79,-48,9,-31
1523179574052479,0,1,6,-2,21,17,-8,11
1523179574074538,-8,-6,-8,-11,33,-20,5,-17
1523179574074538,-12,-3,-5,10,-15,3,-14,-19
1523179574075541,8,-2,-7,-35,2,-8,11,20
1523179574075541,11,2,-4,2,-77,-50,-15,26
1523179574097641,-17,2,9,15,13,69,25,-48
1523179574097641,5,-3,-6,-33,-7,-1,4,15
1523179574098602,-1,-3,-8,-2,-25,-17,-22,2
1523179574098602,-3,2,12,41,-10,-15,-10,-14
1523179574111635,4,4,4,-52,20,-27,-17,16
1523179574111635,2,1,-4,-7,-8,31,13,3
1523179574112639,-3,-3,2,33,56,49,14,8
1523179574112639,-1,-1,-3,-11,-4,-10,-12,-9
1523179574134697,7,-2,-4,-24,-106,-32,10,-1
1523179574134697,-9,-3,-1,49,127,19,-13,-12
1523179574135701,9,13,20,26,-57,-6,0,11
1523179574135701,-9,-9,-19,-33,12,8,-6,-8
1523179574157758,9,3,8,25,-21,14,13,16
1523179574157758,-6,-7,-5,-8,-27,-29,-17,-16
1523179574157758,-4,-6,-14,-35,-1,-8,-2,-8
1523179574157758,3,6,14,15,28,12,6,2
1523179574171798,-3,-3,-9,-5,5,-6,-3,5
1523179574171798,3,-3,-14,-97,-15,-23,-10,11
1523179574172807,-4,1,24,100,-12,-12,22,-3
1523179574172807,-8,-1,-5,-44,-16,15,-7,-28
1523179574195095,1,-4,-6,7,32,-29,0,7
1523179574195095,1,2,7,10,-42,20,9,5
1523179574195860,2,-1,-4,-9,-17,0,-6,3
1523179574195860,1,2,-3,3,17,-4,-1,2
1523179574216918,-2,1,5,28,-8,-14,1,-1
1523179574216918,-3,-3,-3,3,-20,-13,-7,-3
1523179574217919,-5,-2,-2,-10,-20,-10,-9,2
1523179574217919,-2,-7,-5,2,41,51,-1,-10
1523179574231956,1,2,2,17,76,-6,-9,-4
1523179574231956,2,2,6,35,19,60,30,11
1523179574232962,-3,-9,-20,-55,-94,-62,-24,0
1523179574232962,-2,-1,2,9,-21,-33,19,-2
1523179574255020,4,-2,-6,-24,24,26,-16,17
1523179574255020,-10,1,7,26,7,-9,-3,-23
1523179574256023,8,1,-4,18,44,14,3,0
1523179574256023,-6,-9,-7,-15,46,-1,-10,2
1523179574277078,7,3,1,-4,-119,10,-4,24
1523179574277078,-5,-1,-1,-2,40,-7,5,-20
1523179574278080,0,-1,-1,18,1,4,-11,-6
1523179574278080,4,7,8,3,-17,-36,-15,11
1523179574292116,1,2,-5,-24,-36,0,-10,-13
1523179574292116,0,-8,-3,-8,2,2,6,10
1523179574292116,-2,-2,-11,-34,7,-7,-29,-8
1523179574292116,1,-5,-8,-22,-35,-7,-19,8
1523179574315178,-3,-2,8,57,34,10,12,-9
1523179574315178,5,5,-6,-38,-33,1,3,10
1523179574315178,-4,-3,-2,1,3,1,4,5
1523179574315178,-10,-8,-11,-49,0,-29,-15,-32
1523179574337237,-4,8,8,-2,-49,-31,7,-5
1523179574337237,3,-3,9,63,9,-6,-12,-3
1523179574338242,3,0,-4,-32,26,18,18,19
1523179574338242,5,6,9,10,10,11,4,8
1523179574352314,-4,2,-4,9,37,8,6,-17
1523179574352314,0,-8,-11,-38,-72,-30,-23,2
1523179574352314,-2,-3,1,5,49,-17,-4,-5
1523179574352314,1,4,6,34,-77,-9,19,1
1523179574374379,-8,-6,-9,-22,87,9,-11,-14
1523179574374379,5,4,7,-4,-51,-5,17,4
1523179574375337,-3,-4,-12,-40,-31,-7,-20,-7
1523179574375337,-1,3,0,-50,-7,-24,1,-6
1523179574404453,2,-1,4,57,12,27,17,24
1523179574404453,-3,-1,-5,-9,-10,-18,-7,-9
1523179574405417,1,3,11,11,33,5,5,10
1523179574405417,0,-14,-11,2,0,51,22,3
1523179574411434,-8,-9,-14,-25,-65,-4,-11,-13
1523179574411434,1,4,12,22,81,17,-4,4
1523179574412437,5,3,-2,-21,-56,-1,-1,-5
1523179574412437,-11,2,-2,23,6,-6,-17,-9
1523179574434496,0,-7,-5,-5,-49,8,14,2
1523179574434496,-8,-7,-11,-13,-48,-4,-9,-10
1523179574435497,4,4,4,14,21,3,12,5
1523179574435497,5,2,4,32,7,20,14,1
1523179574457561,-4,-1,-6,-36,13,-17,-4,-2
1523179574457561,7,-2,-15,-38,-10,-12,-4,16
1523179574458558,-12,1,11,17,-13,2,23,-20
1523179574458558,2,1,-4,-8,-34,-2,-28,9
1523179574470590,-10,-7,-6,-12,-7,0,18,-28
1523179574470590,14,10,10,28,32,37,12,35
1523179574478611,-11,1,-3,-22,-15,-7,-16,-16
1523179574478611,1,-5,12,59,31,-6,-11,2
1523179574502675,4,5,4,9,11,-6,10,2
1523179574502675,-5,-4,-5,27,19,4,14,-7
1523179574502675,-1,-4,-8,-17,-26,5,-8,-7
1523179574502675,0,2,5,-4,1,9,13,2
1523179574517757,6,-6,-4,-23,-58,-45,-46,18
1523179574517757,8,-7,-3,-6,16,8,12,13
1523179574517757,-17,10,14,30,103,66,29,-34
1523179574517757,6,1,7,11,-69,-38,1,0
1523179574530789,5,-3,-5,-29,9,16,4,0
1523179574530789,-3,0,-1,-6,-22,-17,-22,-1
1523179574538773,2,-7,-13,4,-16,-22,-5,11
1523179574538773,-9,-8,-11,-20,-16,1,-9,-13
1523179574554816,-1,1,3,-33,50,-10,10,-5
1523179574554816,3,8,16,46,24,-10,4,4
1523179574555820,17,-1,2,39,-4,15,-7,32
1523179574555820,-10,6,-7,-31,-38,-11,-11,-21
1523179574576873,-7,-11,-7,4,11,9,4,2
1523179574576873,2,-3,-1,15,99,16,-21,5
1523179574577888,-21,-7,-2,-26,-18,-9,2,-8
1523179574577888,11,1,-1,-14,13,-5,10,5
1523179574590910,2,10,14,63,6,39,9,2
1523179574590910,-3,-5,-9,-40,15,-10,-5,1
1523179574598935,5,-5,-8,-1,-17,-12,-16,2
1523179574598935,-2,3,6,-3,32,6,3,1
1523179574614976,-4,1,3,-13,-47,0,-7,-1
1523179574614976,-9,-11,-11,-3,8,-21,-4,-4
1523179574615979,-5,-1,3,0,-21,23,-7,-13
1523179574615979,-1,5,-9,22,-20,-25,-7,2
1523179574637033,-5,-2,2,0,38,26,0,7
1523179574637033,-1,5,9,-17,-39,-3,5,-8
1523179574638037,3,0,7,-15,-10,-7,11,-8
1523179574638037,13,-3,-2,6,19,10,11,23
1523179574651305,-11,-2,0,-6,-29,-28,-38,-21
1523179574651305,-11,1,-2,21,-22,4,0,-17
1523179574659090,5,1,-3,-13,-4,-3,12,21
1523179574659090,2,-6,5,20,-13,-8,4,-4
1523179574682187,8,3,1,1,62,16,-24,9
1523179574682187,-10,-8,-18,-60,-31,15,19,-32
1523179574683156,11,-5,4,15,-19,-23,5,12
1523179574683156,-12,0,-2,-28,42,6,-23,-19
1523179574697193,7,3,4,19,14,4,15,8
1523179574697193,1,-1,-2,-32,-45,-11,-2,3
1523179574698196,10,12,23,63,21,-14,-38,16
1523179574698196,-12,-6,-8,-7,11,26,10,-17
1523179574711269,-1,-7,-8,-29,14,-16,13,11
1523179574711269,2,7,16,49,-9,31,-9,-10
1523179574719486,-1,-1,-16,-38,5,-10,1,-1
1523179574719486,4,-6,1,-21,1,-55,4,27
1523179574735294,-10,-4,-7,1,-35,12,-2,-32
1523179574735294,10,5,6,55,36,4,25,20
1523179574735294,3,-9,-9,-23,-42,-9,-26,-8
1523179574735294,-23,-2,-2,-8,-20,-9,13,-31
1523179574757352,8,1,-3,4,38,12,6,11
1523179574757352,-4,0,12,30,-1,-14,-8,-8
1523179574758355,19,7,-2,-17,-10,-7,21,42
1523179574758355,-11,-4,-8,-9,62,51,-24,-22
1523179574771394,0,1,1,15,-48,-20,6,-6
1523179574771394,-2,2,8,8,-19,-18,-12,2
1523179574779646,-20,-21,-28,-26,-31,-29,-1,-24
1523179574779646,15,5,0,-3,-77,-17,-13,29
1523179574794453,-1,6,-3,1,-22,7,30,-5
1523179574794453,-4,-8,-13,-39,61,-24,-42,2
1523179574795454,-7,2,12,59,45,20,4,-17
1523179574795454,-1,-3,-6,1,20,-6,7,-5
1523179574817512,14,4,8,12,-11,-13,-4,24
1523179574817512,-5,2,-2,-9,0,-1,17,-9
1523179574818761,-3,-8,-7,-24,-32,-30,-39,0
1523179574818761,-8,-3,-3,15,-6,15,6,-12
1523179574839580,4,4,6,-12,4,-16,-20,5
1523179574839580,-2,-4,2,-10,5,-6,6,-15
1523179574840573,4,1,-15,-26,-78,8,10,3
1523179574840573,9,5,18,52,19,21,14,12
1523179574854611,-3,-6,-11,-23,3,-11,-13,5
1523179574854611,-11,-9,-23,-42,-32,-32,-6,-10
1523179574855620,-10,-4,4,-6,37,-11,4,-21
1523179574855620,9,2,-1,13,-3,0,-12,25
1523179574877674,-12,-5,-1,-31,-74,-5,-4,-11
1523179574877674,9,5,4,20,30,8,18,4
1523179574877674,-6,1,-3,-6,8,5,-20,-2
1523179574877674,-7,-12,-17,-36,58,3,-7,5
1523179574899772,-11,-10,-3,-11,-57,-24,-35,-32
1523179574899772,8,8,11,67,14,34,35,11
1523179574900733,-1,1,-2,-16,38,7,18,-2
1523179574900733,2,4,7,5,26,-9,-3,-4
1523179574914773,15,2,-5,-1,-54,-13,20,21
1523179574914773,-13,1,9,5,20,21,-25,-9
1523179574915774,-6,-6,-7,-19,-17,-3,16,-13
1523179574915774,3,-9,-4,-5,-37,-22,-3,1
1523179574937066,12,6,5,27,85,15,13,31
1523179574937066,-10,0,-7,-55,-23,3,-4,-19
1523179574937832,7,8,15,35,71,27,16,7
1523179574937832,2,4,-5,-1,-69,-20,24,15
1523179574959891,0,-6,1,7,6,12,1,-1
1523179574959891,4,-7,-2,5,-25,-3,-7,14
1523179574960903,-11,-2,-7,-27,0,1,-6,-32
1523179574960903,12,3,2,-24,-47,-34,-13,19
1523179574973955,-20,5,10,73,84,24,12,-40
1523179574973955,3,-4,-16,-63,-54,20,46,4
1523179574982952,8,-6,-6,1,-24,-14,1,14
1523179574982952,-7,-1,6,11,23,14,-2,-13
1523179574997227,-1,2,-5,-33,11,-2,-6,-9
1523179574997227,5,-2,9,36,26,1,-9,20
1523179574998996,-11,0,-8,-25,-4,12,-17,-10
1523179574998996,0,-6,-8,-15,47,37,-1,-6
1523179575020287,1,5,17,51,5,11,-1,1
1523179575020287,4,4,-3,-19,-84,-10,-3,1
1523179575022059,2,-1,5,-3,-16,7,5,17
1523179575022059,-6,0,-3,-1,42,13,2,-14
1523179575042111,-7,-5,-5,-6,15,0,-2,1
1523179575042111,6,-2,-8,7,-23,-42,-40,5
1523179575044116,-12,-7,0,-10,-16,9,7,-30
1523179575044116,-5,-3,-3,3,14,-17,-21,-10
1523179575057151,-2,0,1,-29,-48,-30,-9,-11
1523179575057151,5,-1,2,22,39,2,-11,13
1523179575059155,10,4,0,3,32,31,17,21
1523179575059155,0,1,0,-10,-14,26,0,-3
1523179575080447,3,-1,0,-16,21,6,16,4
1523179575080447,-13,0,3,24,17,-12,-46,-21
1523179575081213,5,-2,-2,-54,-56,-27,-3,2
1523179575081213,0,6,10,58,45,29,14,-1
1523179575093248,3,-7,-16,-44,-19,-13,8,6
1523179575093248,0,-1,-2,-30,-46,-3,16,6
1523179575102308,0,0,-11,3,-26,-41,-16,10
1523179575102308,-10,-8,-3,-30,-5,-8,-47,-15
1523179575117547,1,5,7,29,45,9,24,2
1523179575117547,6,1,-5,-24,13,24,17,13
1523179575119315,-19,-7,-1,28,-14,-15,-8,-48
1523179575119315,11,8,7,11,-31,-1,26,25
1523179575139371,-1,1,-3,-5,8,10,-17,-3
1523179575139371,3,-5,-4,-19,20,-16,-4,10
1523179575141373,-3,6,14,55,44,16,6,-8
1523179575141373,-8,-7,-9,-15,-14,-13,-2,0
1523179575153643,6,-8,-12,-58,-34,-14,-5,-15
1523179575153643,2,5,4,18,33,-4,0,-11
1523179575162431,-3,3,2,-15,8,20,30,15
1523179575162431,-10,-6,-4,5,16,-30,-25,-13
1523179575177511,2,-1,-3,14,5,-8,-12,18
1523179575177511,3,0,-9,-35,-27,-13,6,14
1523179575179559,-4,-3,0,32,29,12,-4,-20
1523179575179559,5,9,6,-6,-44,12,16,-6
1523179575199530,-2,-7,-2,5,8,8,1,10
1523179575199530,-6,-4,-6,-22,4,-32,-8,-25
1523179575201534,1,-6,-5,9,-67,-27,-32,10
1523179575201534,7,-1,0,6,17,16,-1,16
1523179575213569,-9,-3,-1,3,-29,-8,-3,-16
1523179575213569,-11,-5,0,-9,-15,7,-12,-19
1523179575222594,11,3,-7,-48,18,5,-3,25
1523179575222594,9,3,0,3,-16,-5,4,-3
1523179575237630,-13,-7,-3,26,-36,-5,-6,-1
1523179575237630,-3,1,3,-2,-7,2,4,-7
1523179575239634,2,0,0,16,37,2,-10,-1
1523179575239634,-17,-11,-15,-35,-87,-25,-18,-33
1523179575259687,15,10,16,31,67,62,45,32
1523179575259687,0,1,2,23,31,22,10,-11
1523179575261695,7,1,5,1,3,-10,-10,24
1523179575261695,-8,-2,-5,-29,-42,7,36,-28
1523179575273726,-4,3,7,21,59,-10,-9,-4
1523179575273726,15,-1,-4,4,-6,0,-2,18
1523179575282750,-16,-1,4,15,45,-7,-16,-17
1523179575282750,6,3,6,18,14,26,15,9
1523179575297789,-9,-4,-6,-28,-57,-14,-8,-11
1523179575297789,4,-1,8,42,64,28,12,5
1523179575298793,5,-6,-2,-8,-6,-1,9,3
1523179575298793,2,1,-1,5,15,-26,6,19
1523179575320084,-1,-3,-9,-18,-37,-12,-26,-7
1523179575320084,-21,-5,-9,-8,-35,-32,-12,-29
1523179575321854,10,14,19,35,29,43,19,11
1523179575321854,1,-7,-12,-46,34,15,27,17
1523179575334100,-3,3,16,76,-45,-34,-18,1
1523179575334100,1,-5,-10,-50,-3,-12,-5,6
1523179575342910,-3,-1,-9,-10,39,-7,0,-15
1523179575342910,7,-1,-1,-26,-64,-7,-12,13
1523179575356991,13,5,6,37,69,-1,6,10
1523179575356991,-31,-1,1,2,4,23,17,-53
1523179575358951,4,2,2,-10,-49,-35,-65,-8
1523179575358951,3,-5,-6,11,78,37,28,7
1523179575380245,6,0,-9,-36,-11,8,13,24
1523179575380245,-1,-1,4,16,-30,-14,-20,-10
1523179575382087,0,-3,3,7,24,13,7,4
1523179575382087,-5,0,0,2,-27,-22,3,-9
1523179575393051,-5,-6,-11,-18,-29,-5,3,-5
1523179575393051,-1,2,6,23,-10,-2,0,12
1523179575402302,0,0,4,-5,4,7,27,5
1523179575402302,0,3,9,38,19,-5,-18,2
1523179575417107,-3,-1,-7,-36,17,9,0,-3
1523179575417107,4,-4,-8,-16,-25,-6,-8,6
1523179575419112,-1,1,3,33,15,34,20,1
1523179575419112,-8,0,4,15,5,-15,-18,-18
1523179575440168,-8,-9,-8,-8,-8,13,-1,-8
1523179575440168,4,-2,-2,16,-18,-7,4,10
1523179575441170,7,3,-4,-14,27,26,26,14
1523179575441170,-3,-4,5,5,23,16,0,3
1523179575453442,0,4,4,3,-3,-3,10,-3
1523179575453442,5,-2,-6,-9,-13,-2,-30,13
1523179575462227,-19,-8,-11,-27,-14,-10,15,-22
1523179575462227,-10,-1,-3,26,-21,-12,0,-28
1523179575477306,2,-1,-12,-31,-2,8,-8,-5
1523179575477306,12,-5,5,-11,3,5,51,36
1523179575479272,-3,9,20,19,7,-16,-8,-13
1523179575479272,2,-6,-12,-37,-18,-17,-38,3
1523179575500327,-10,-3,2,14,-23,20,-6,-16
1523179575500327,8,6,-5,-9,117,14,10,15
1523179575501331,14,-6,-6,35,6,-26,-10,25
1523179575501331,-2,-4,-5,-57,-25,18,30,4
1523179575514364,-31,-3,6,53,-48,-53,-12,-35
1523179575514364,3,1,-2,1,-14,9,-8,0
1523179575522386,-1,-9,-5,-18,-42,-14,0,-6
1523179575522386,6,0,-6,-19,15,-15,-12,23
1523179575537425,16,9,6,3,36,12,-2,8
1523179575537425,-9,-3,-3,0,-22,-9,-1,-1
1523179575538434,-8,-6,-8,-6,-7,4,-3,-17
1523179575538434,7,10,13,48,2,15,11,9
1523179575559487,-5,-3,-2,-7,22,-22,-4,-11
1523179575559487,0,2,2,1,-51,2,-18,-1
1523179575561490,-1,-6,-11,-44,8,4,9,1
1523179575561490,3,2,8,7,17,-1,-36,4
1523179575573522,4,0,2,45,-44,-5,2,5
1523179575573522,-5,-3,-1,-23,69,16,-5,-9
1523179575582546,12,0,-9,-36,-44,-10,12,30
1523179575582546,-16,3,2,35,-13,-14,-5,-46
1523179575597590,2,-2,-3,-35,32,9,-13,14
1523179575597590,-5,-3,0,12,-36,-40,-10,-8
1523179575598589,6,5,3,18,12,42,-3,17
1523179575598589,-8,-14,-12,-11,22,-25,-11,-9
1523179575619880,18,-3,-11,-36,-39,-2,20,29
1523179575619880,-18,1,10,20,4,55,18,-34
1523179575621652,-17,-2,-11,-53,-29,-45,-15,-22
1523179575621652,11,5,10,64,9,62,22,20
1523179575633683,-10,-5,-8,-66,-12,-17,5,-8
1523179575633683,5,-10,-10,-3,-58,-22,-42,23
1523179575642708,-9,-2,4,10,51,7,7,-22
1523179575642708,-2,8,4,26,14,-15,-8,5
1523179575657746,-9,-14,-17,-71,22,1,0,-26
1523179575657746,15,15,25,83,27,32,28,22
1523179575658748,-4,-3,-2,8,-25,-4,-29,-8
1523179575658748,4,1,-6,-30,46,-11,0,1
1523179575680040,-7,-7,-2,10,-31,8,-5,-5
1523179575680040,-8,-11,-15,-17,-26,-24,8,-10
1523179575681810,1,1,1,6,70,5,-32,3
1523179575681810,4,4,9,6,-54,-5,18,5
1523179575693843,7,1,-2,12,-36,-21,-8,17
1523179575693843,-6,-4,-3,-45,14,28,8,-18
1523179575702866,2,2,3,68,-25,-19,5,9
1523179575702866,-4,-10,-16,-83,-36,3,-34,3
1523179575717141,-6,4,15,46,55,12,1,-20
1523179575717141,0,1,-6,-16,-31,-31,-14,9
1523179575718908,-4,-3,-1,2,-15,-17,8,-20
1523179575718908,-7,-3,-3,-9,-2,-13,19,-3
1523179575739969,5,4,2,-7,-12,19,-14,14
1523179575739969,-7,-12,-13,-2,54,5,4,-12
1523179575740967,2,7,3,-19,-35,-10,2,-4
1523179575740967,0,-6,8,21,17,20,8,6
1523179575762023,-6,-4,-2,13,1,13,-2,-11
1523179575762023,8,4,-3,2,51,12,3,8
1523179575764028,-7,-10,-9,-36,-80,-21,-10,0
1523179575764028,2,2,-2,15,14,-4,7,-2
1523179575777104,9,1,-7,-21,-18,-22,-6,33
1523179575777104,-13,4,11,35,5,-17,-10,-46
1523179575779069,2,1,4,6,4,29,7,-1
1523179575779069,3,-7,-5,-8,-3,-22,-13,1
1523179575800125,-13,0,-4,-19,0,4,6,-14
1523179575800125,5,0,-4,-18,-32,-22,-13,5
1523179575801128,0,-1,-1,-10,-18,13,7,7
1523179575801128,8,3,8,41,-8,7,4,9
1523179575822195,-1,3,0,-4,64,42,23,-14
1523179575822195,-1,-1,-3,-14,-83,-33,-7,9
1523179575824188,-3,-4,-1,-1,13,11,-27,6
1523179575824188,-15,4,0,7,7,6,1,-23
1523179575837227,13,0,-2,7,-60,-7,-6,11
1523179575837227,-1,6,10,-5,50,-7,3,-11
1523179575839229,1,-6,-6,-22,-24,10,30,11
1523179575839229,3,4,0,-2,-31,-10,18,8
1523179575859282,-7,-4,-8,-29,-58,-32,-21,-20
1523179575859282,7,1,6,44,88,13,0,17
1523179575861286,13,7,10,13,-13,23,13,5
1523179575861286,-8,-7,-7,-17,2,13,-4,-14
1523179575882578,-12,5,4,8,-1,-31,-3,-23
1523179575882578,-2,-5,-4,-8,-54,1,0,2
1523179575884535,6,0,-1,4,14,-17,-17,14
1523179575884535,-16,-8,-7,-14,33,16,-9,-13
1523179575897388,9,0,3,27,16,-7,-4,11
1523179575897388,-1,-3,-10,-21,-8,13,2,-2
1523179575899390,-2,0,4,38,51,3,11,-1
1523179575899390,5,1,6,-9,-19,9,2,-15
1523179575919679,-5,-6,-10,-9,-13,2,13,0
1523179575919679,-3,-1,0,-10,-8,-7,-25,6
1523179575921452,-3,-3,2,12,-22,-18,-9,4
1523179575921452,4,3,-4,-34,5,-18,-14,-15
1523179575942505,-7,-5,-3,21,70,14,7,-12
1523179575942505,3,-5,0,6,-8,4,-10,4
1523179575944547,0,1,-6,-7,5,-16,-8,10
1523179575944547,-1,2,1,-1,15,-5,-11,3
1523179575956540,-12,-2,3,6,22,-8,1,-3
1523179575956540,3,-1,-1,-20,-14,-11,13,-6
1523179575963558,3,-1,1,31,-4,5,-21,12
1523179575963558,-1,1,-5,-62,22,17,10,6
1523179575979838,1,0,7,80,1,30,13,-7
1523179575979838,-7,-4,-1,12,-12,-4,3,16
1523179575981606,-4,-2,-8,0,24,3,12,-6
1523179575981606,-12,-1,-1,7,-25,-6,-18,-37
1523179576002897,3,-2,-6,-43,-13,-23,12,15
1523179576002897,-7,-6,-5,7,-25,-10,12,-8
1523179576003669,7,4,7,2,65,36,20,14
1523179576003669,1,-5,-2,22,7,-3,1,16
1523179576016936,3,0,-6,-27,0,-16,-23,-10
1523179576016936,5,-4,-4,2,53,24,3,2
1523179576023720,-23,1,2,-22,-50,-23,1,-31
1523179576023720,1,-9,-10,-4,-36,-26,-2,2
1523179576039764,10,4,9,19,0,18,3,11
1523179576039764,7,3,3,9,-6,-9,10,14
1523179576041766,-2,-1,0,17,2,-4,-12,-7
1523179576041766,8,-7,-5,-22,64,15,-4,39
1523179576069841,-12,-7,-16,-34,-109,-40,-21,-30
1523179576069841,-13,3,3,32,60,14,24,-45
1523179576071849,-2,-2,-4,-24,-22,17,22,-7
1523179576071849,10,10,13,23,21,10,-29,25
1523179576076860,1,-5,-10,-34,-57,-21,-14,8
1523179576076860,3,0,-1,-38,38,6,-5,12
1523179576084123,-12,-3,-1,38,63,3,-4,-30
1523179576084123,7,-3,-12,-8,-45,-23,3,20
1523179576099923,-9,-6,-3,-28,16,14,2,-5
1523179576099923,7,13,8,33,29,-12,-21,1
1523179576101972,2,-1,3,12,-76,-30,-16,5
1523179576101972,3,-2,5,-19,7,5,17,-7
1523179576121980,0,1,6,45,30,7,0,9
1523179576121980,-2,-6,-5,0,-15,1,-2,8
1523179576123985,3,-4,-3,-18,37,4,0,-12
1523179576123985,-9,4,3,14,-30,32,40,-20
1523179576137024,2,5,8,-14,5,15,-11,5
1523179576137024,5,-7,-8,-31,-15,-12,-1,6
1523179576144037,-3,-5,-7,-8,-41,-9,4,-6
1523179576144037,-7,-6,-5,14,-1,-14,8,-18
1523179576160082,-11,4,9,49,57,15,2,-4
1523179576160082,-3,-4,-6,-13,-32,-2,-6,0
1523179576161093,8,0,3,-7,-58,-15,-4,10
1523179576161093,0,-8,-5,0,40,-2,-10,7
1523179576182377,-2,-4,-2,4,-44,-11,10,-2
1523179576182377,-7,-4,-6,-21,-73,-13,-18,-12
1523179576184145,-1,2,-8,-21,28,-6,21,1
1523179576184145,2,5,5,-10,12,22,2,8
1523179576196178,4,-1,5,27,27,11,1,6
1523179576196178,-3,1,2,2,-7,1,-2,2
1523179576203235,7,-5,-7,-25,-73,-14,-2,18
1523179576203235,-5,4,5,35,-1,-10,-18,-17
1523179576220241,-9,-8,-6,-26,27,-13,25,-17
1523179576220241,8,14,11,9,57,38,-12,12
1523179576221244,-1,-10,-4,22,25,-11,-3,-3
1523179576221244,4,-2,-2,-1,-30,-23,-8,12
1523179576242301,-10,-6,-6,-3,-25,-20,-13,-15
1523179576242301,-4,-1,2,22,51,19,1,-4
1523179576244305,3,0,1,-28,31,8,-2,5
1523179576244305,3,9,7,20,-9,14,-2,7
1523179576256337,2,-10,-10,-26,-13,-42,-18,15
1523179576256337,-4,-7,-2,-3,-50,5,0,-14
1523179576265362,4,0,0,-26,15,21,15,12
1523179576265362,-16,-4,0,43,24,-6,-1,-25
1523179576280444,11,10,1,-34,-1,19,10,17
1523179576280444,-8,-4,0,20,26,12,7,-16
1523179576281402,0,0,-3,24,45,-1,-18,1
1523179576281402,0,3,4,-38,-31,-10,-2,10
1523179576302697,3,-3,4,49,83,25,2,9
1523179576302697,5,-4,-14,-61,-119,-25,10,10
1523179576303510,-9,5,13,48,19,12,10,-24
1523179576303510,0,0,-12,-61,-59,-20,-15,1
1523179576315495,4,6,8,20,107,45,-3,4
1523179576315495,10,-1,1,5,-45,-35,-3,16
1523179576324518,-12,3,8,37,18,33,9,-20
1523179576324518,-4,-8,-7,17,-14,-17,4,-4
1523179576347581,14,6,9,4,-2,0,-8,1
1523179576347581,-12,-9,-13,-27,25,4,-5,-12
1523179576348582,-1,-1,-7,-19,-16,-15,-9,0
1523179576348582,-2,-4,-4,26,12,-6,-25,-13
1523179576362620,2,-4,-4,-12,-20,8,1,5
1523179576362620,9,8,10,34,50,3,15,14
1523179576363622,1,-1,5,10,-27,-24,-17,2
1523179576363622,5,-3,-9,-40,-43,-13,1,-3
1523179576375654,-16,-2,3,31,5,-8,0,-28
1523179576375654,-5,-1,1,25,0,-11,-21,-9
1523179576384804,3,0,-4,-20,1,12,3,12
1523179576384804,3,-3,1,4,-28,-5,10,12
1523179576399719,-5,-8,-12,-43,-5,-13,-20,-20
1523179576399719,1,8,11,12,-11,14,22,-7
1523179576401723,-2,3,-1,-9,47,-4,-4,3
1523179576401723,9,-2,3,22,30,11,9,21
1523179576422780,-14,-10,-13,-26,-66,-16,8,-23
1523179576422780,6,2,5,-9,-25,1,12,12
1523179576423782,-10,-4,-11,-31,49,18,-20,-27
1523179576423782,-7,8,8,21,7,-21,-25,-17
1523179576436046,7,3,1,-1,-6,22,6,21
1523179576436046,-1,1,1,-15,22,-7,-12,-5
1523179576444838,3,-7,-4,3,-70,-22,13,4
1523179576444838,-6,-3,-1,-14,23,15,20,-6
1523179576459878,4,-3,0,17,-12,2,-6,10
1523179576459878,-8,1,-9,-40,5,-9,-3,-19
1523179576461882,19,-1,0,21,-28,-3,57,46
1523179576461882,-21,-1,0,-11,13,6,1,-32
1523179576482979,8,6,5,5,-1,0,-1,16
1523179576482979,7,-5,-4,-7,52,25,11,28
1523179576483940,-15,2,1,-29,8,-3,-25,-33
1523179576483940,0,-11,-6,4,16,-9,3,-4
1523179576495975,7,2,-8,-20,-37,-25,6,10
1523179576495975,-6,4,15,40,-30,10,-13,-14
1523179576504999,4,-5,-9,-63,19,-3,-8,3
1523179576504999,4,-2,3,72,58,5,15,10
1523179576520045,-4,-2,-1,-23,-64,16,-14,-11
1523179576520045,-7,-4,-12,-26,-6,1,21,-3
1523179576521043,8,7,14,46,33,5,-12,-1
1523179576521043,-2,0,-2,-11,-18,6,5,-2
1523179576542105,9,0,0,4,10,-1,3,8
1523179576542105,2,-4,-4,24,47,-36,-18,9
1523179576544103,-17,-14,-16,-67,-90,-5,-3,-16
1523179576544103,7,7,21,71,71,29,17,10
1523179576556136,3,6,2,-14,38,-4,0,0
1523179576556136,-5,-1,2,-1,-9,-1,-11,-11
1523179576565158,-6,-5,-10,-20,-90,-44,-24,-16
1523179576565158,2,1,-9,-32,-35,-33,-10,10
1523179576580433,-4,-4,3,35,66,26,2,8
1523179576580433,-6,-5,-9,-19,0,9,7,-8
1523179576581200,-10,-2,-2,11,-30,-6,-19,-14
1523179576581200,5,6,0,-18,-47,2,0,5
1523179576602491,4,6,9,1,53,20,7,7
1523179576602491,-6,-7,-12,-20,-8,-28,-1,-22
1523179576604264,0,1,4,38,3,21,-18,6
1523179576604264,-3,-3,-6,-34,-1,4,-3,3
1523179576624318,9,-5,-6,-5,-11,-27,7,14
1523179576624318,-21,1,7,52,7,7,-9,-37
1523179576626321,2,-2,-4,-18,10,-7,13,0
1523179576626321,1,0,3,-20,28,10,-23,-3
1523179576639361,-2,7,5,27,14,15,21,8
1523179576639361,5,-11,-10,-27,-21,7,5,13
1523179576641360,-6,4,10,44,58,-6,-15,-10
1523179576641360,-1,-6,-9,-29,-52,-28,-17,-5
1523179576662417,5,0,-3,-44,-7,10,3,9
1523179576662417,-3,0,7,38,-16,-10,-11,-22
1523179576664424,6,6,4,14,28,-21,8,16
1523179576664424,4,-3,-5,-8,-25,18,-3,3
1523179576685497,-7,1,-5,-23,-10,-15,24,-6
1523179576685497,-7,1,-1,-7,-99,-18,0,-11
1523179576686483,17,0,-2,9,60,24,18,32
1523179576686483,-8,2,3,7,44,10,6,-24
1523179576707538,0,0,3,31,18,7,29,-6
1523179576707538,10,3,-2,-44,-17,6,-23,27
1523179576708538,-8,-8,-8,-1,-24,1,11,-5
1523179576708538,3,0,-3,-6,15,12,-5,12
1523179576722577,-11,-15,-17,-30,7,-11,-52,1
1523179576722577,-11,0,1,17,-32,-40,-13,-35
1523179576723578,12,15,15,11,13,43,8,18
1523179576723578,-2,-9,-10,-20,-2,-5,-2,-1
1523179576744634,-17,2,2,7,-46,-23,-24,-37
1523179576744634,5,-5,-2,-3,27,14,15,32
1523179576746641,1,-3,-4,-14,-2,-19,-13,5
1523179576746641,-8,-2,-3,-3,-24,-12,-18,-8
1523179576759675,-4,5,13,23,-15,-13,4,-21
1523179576759675,9,2,-2,-13,36,24,25,8
1523179576761679,1,0,-1,14,-24,2,16,0
1523179576761679,1,-4,-10,-34,27,20,-5,14
1523179576782973,2,-1,2,8,-24,-16,-12,-5
1523179576782973,1,5,4,19,-3,-2,7,3
1523179576783740,30,-4,-6,-37,-2,1,-18,56
1523179576783740,-40,4,10,63,11,38,12,-79
1523179576804797,19,5,9,40,42,2,0,40
1523179576804797,-22,-13,-9,-31,4,-7,2,-31
1523179576806799,3,-4,-5,-13,-12,-7,-18,-1
1523179576806799,11,4,1,1,30,1,4,16
1523179576819842,-9,1,0,5,-60,0,8,-5
1523179576819842,18,7,6,-4,23,26,11,30
1523179576821845,-22,-5,-8,-26,76,20,2,-37
1523179576821845,17,5,19,70,81,-34,-29,35
1523179576841896,-14,-3,-6,-25,-60,-1,2,-25
1523179576841896,6,-6,-12,-8,-7,2,-6,16
1523179576843898,-13,-6,-7,-26,-83,-5,24,-26
1523179576843898,8,1,-3,-10,-6,8,21,17
1523179576864955,0,-2,-4,-9,43,7,-9,-2
1523179576864955,-11,-4,1,9,-21,-16,-17,-11
1523179576866959,0,3,2,14,56,-24,-2,-5
1523179576866959,-2,-9,-15,-34,-27,-6,2,-4
1523179576879227,2,-8,-2,1,1,-9,-19,21
1523179576879227,-8,0,-2,-23,-15,-4,3,-25
1523179576886010,-9,-1,5,38,-35,-18,-12,-14
1523179576886010,4,5,3,0,-49,-8,9,2
1523179576903056,2,-3,-10,-42,21,-3,-1,6
1523179576903056,3,-5,-5,-3,31,9,-11,7
1523179576905065,-4,-3,-5,-6,-6,-1,22,-15
1523179576905065,1,0,0,-21,-64,-19,3,5
1523179576925120,-3,-2,-2,-2,38,11,12,-6
1523179576925120,2,-1,0,-1,-18,0,-23,27
1523179576926118,-10,-5,-4,32,-1,7,18,-20
1523179576926118,2,1,4,-2,-6,18,16,6
1523179576939158,1,-7,-6,-9,-45,-12,3,-1
1523179576939158,8,3,0,2,-2,35,28,18
1523179576946171,-6,0,-1,10,-1,1,-15,-7
1523179576946171,-6,-9,-9,-29,-39,-19,-13,-7
1523179576962215,-4,-3,-8,1,14,-9,-12,1
1523179576962215,6,13,16,70,8,23,24,2
1523179576964219,-5,1,-2,-1,-11,-5,-12,3
1523179576964219,-1,-6,-5,-7,3,6,-10,-19
1523179576985458,-11,-1,-4,4,-3,-5,7,-17
1523179576985458,-7,3,-4,-33,9,-18,19,-6
1523179576986281,-11,2,7,0,-5,36,-7,-26
1523179576986281,-3,-8,-11,-17,-33,-39,2,7
1523179576999360,1,1,-5,-13,41,5,-48,-5
1523179576999360,12,9,19,46,-4,38,48,12
1523179577006331,4,1,-4,-45,31,-8,1,22
1523179577006331,-2,3,7,-6,-51,1,3,-1
1523179577022374,1,-3,6,44,66,5,-7,-8
1523179577022374,-5,-9,-15,-20,-42,-31,19,-3
1523179577024378,9,3,3,9,-11,-14,-14,12
1523179577024378,-13,1,-1,-27,-58,-8,6,-19
1523179577044431,2,1,-1,-19,0,16,10,3
1523179577044431,7,4,1,44,41,-31,-33,-3
1523179577046438,-4,-7,-6,-41,-27,41,24,9
1523179577046438,22,-1,6,96,92,-13,-4,52
1523179577059472,-30,-5,2,11,-88,6,-23,-60
1523179577059472,4,1,-1,-22,-24,-43,-25,8
1523179577067493,7,2,0,-1,42,15,-11,14
1523179577067493,-3,-2,-5,-35,-14,-3,-8,-5
1523179577082770,6,-1,0,25,-3,-6,7,15
1523179577082770,-7,-3,-10,-25,-4,-5,-16,-26
1523179577084598,-8,-2,0,11,-2,-10,-14,-7
1523179577084598,-3,3,4,-19,3,14,17,-5
1523179577104594,20,5,7,5,-9,2,13,24
1523179577104594,-5,-8,-6,-10,-15,2,-11,-2
1523179577106596,7,-2,-2,14,-19,-33,-8,4
1523179577106596,-31,-7,-10,-47,66,35,-28,-67
1523179577119637,7,-2,2,61,-33,-24,12,6
1523179577119637,16,7,5,6,15,11,-3,42
1523179577125649,-1,0,3,24,34,19,-11,-5
1523179577125649,4,-3,-5,6,-5,-12,20,13
1523179577142694,4,-7,-10,-47,-35,-30,-17,12
1523179577142694,-14,-11,-6,-4,35,0,-23,-28
1523179577143695,-13,4,3,24,-111,-33,21,-20
1523179577143695,1,-1,-3,-24,28,42,-4,-2
1523179577164752,4,5,5,-7,-12,23,10,33
1523179577164752,-5,-10,-13,-16,36,-6,17,-19
1523179577166756,9,3,5,12,18,33,-17,9
1523179577166756,-17,2,4,20,-19,-26,-13,-15
1523179577180027,1,1,-3,-38,14,13,23,0
1523179577180027,0,3,6,-6,15,11,-7,-1
1523179577185806,-1,-6,-2,18,-19,-13,-2,-9
1523179577185806,23,12,10,-18,50,33,18,41
1523179577202856,-9,-9,-6,19,-13,-9,-2,-18
1523179577202856,-8,-6,-11,-73,-27,-13,-22,-4
1523179577203858,-3,-9,-5,6,1,-33,5,-1
1523179577203858,1,0,1,14,-15,4,-15,-8
1523179577224913,7,16,14,-18,13,-4,12,6
1523179577224913,-1,-4,-3,12,6,57,22,16
1523179577226918,2,-4,-3,-13,6,-30,0,-4
1523179577226918,-25,-14,-15,-40,-29,-40,-68,-30
1523179577238951,4,1,1,0,46,-1,16,8
1523179577238951,-5,-2,-1,11,-40,-9,-22,-7
1523179577246970,12,7,8,3,55,27,30,22
1523179577246970,1,1,-2,1,-27,-12,8,-11
1523179577262010,-13,-4,-6,-15,-59,-4,-27,-12
1523179577262010,-2,3,3,11,50,-12,-12,-8
1523179577264030,-3,-9,-12,-26,-25,11,-7,-1
1523179577264030,9,0,-4,15,-13,-51,0,21
1523179577285308,1,4,11,10,-21,17,6,2
1523179577285308,7,3,-2,-18,-9,9,28,-4
1523179577286079,-1,0,7,27,26,-12,-34,1
1523179577286079,-1,2,1,11,-19,-4,31,-14
1523179577298110,12,-5,-10,-10,41,17,-17,27
1523179577298110,-23,-4,0,-3,-28,-37,-14,-48
1523179577307130,-7,0,0,17,-12,4,9,-6
1523179577307130,10,-8,-11,13,-25,5,12,26
1523179577322171,5,4,12,22,-39,14,-5,-3
1523179577322171,9,0,5,20,123,14,-42,20
1523179577324176,-5,-4,-9,-43,-64,-14,24,1
1523179577324176,2,-4,-3,26,-41,-3,-12,4
1523179577345230,-9,-3,-10,-21,9,-19,8,-25
1523179577345230,27,3,5,-2,14,12,-1,27
1523179577346235,-37,4,6,67,40,-14,-13,-52
1523179577346235,6,5,10,-1,76,40,19,5
1523179577358287,-9,-4,-9,-8,-23,-61,-19,-14
1523179577358287,10,-1,1,6,11,22,27,19
1523179577367330,8,5,6,-7,32,0,8,17
1523179577367330,0,1,2,-15,-77,-13,-1,-4
1523179577382565,1,-2,4,17,47,3,-4,4
1523179577382565,-14,-10,-11,-5,0,-6,-4,-24
1523179577384545,9,3,-4,-30,17,23,-18,20
1523179577384545,-8,-1,-8,-31,-7,-27,6,-19
1523179577404391,0,2,16,46,58,5,-29,11
1523179577404391,-1,3,-5,-33,-95,-29,-7,0
1523179577406393,-3,-2,-7,-15,40,2,10,-12
1523179577406393,5,1,5,-18,-28,-6,-8,13
1523179577418571,-4,-5,-7,16,-17,-18,3,-11
1523179577418571,-12,-7,-6,2,9,27,30,7
1523179577427450,2,-2,-3,-11,-45,-9,-24,5
1523179577427450,4,2,4,39,117,19,7,9
1523179577442495,-4,-3,-5,-31,-107,11,7,6
1523179577442495,-4,0,4,30,15,-16,-5,-10
1523179577443494,3,-5,-13,-74,-58,1,7,2
1523179577443494,5,2,9,112,3,-4,6,22
1523179577464549,-11,-12,-18,-78,55,24,13,-12
1523179577464549,-10,3,2,6,-22,-17,-17,-32
1523179577466554,1,2,5,-19,-2,-6,30,-7
1523179577466554,-1,-4,-5,-12,14,33,10,10
1523179577478823,-8,-1,-4,16,-19,-26,-5,-19
1523179577478823,7,-1,0,2,17,-7,-8,19
1523179577487615,3,-6,-11,-16,-11,-34,-20,-8
1523179577487615,-11,-2,0,18,91,63,19,-4
1523179577502654,-3,-4,-4,-29,-71,-37,-14,1
1523179577502654,8,8,11,32,25,40,15,10
1523179577503655,4,4,6,28,23,28,8,13
1523179577503655,-5,1,-5,-26,-35,-32,-28,-20
1523179577524707,-3,-8,-8,-25,5,4,13,-2
1523179577524707,3,-4,-7,-15,-47,-43,-23,14
1523179577526713,-18,-9,-2,22,13,31,38,-22
1523179577526713,2,-3,-8,-42,-12,-30,-10,2
1523179577538747,7,13,16,49,78,90,28,12
1523179577538747,-1,-1,-5,-2,-70,-46,-19,-6
1523179577547771,8,-2,3,31,99,13,-6,17
1523179577547771,-7,-9,-6,-21,-48,-22,-7,-15
1523179577561807,3,8,-3,-27,-5,-11,6,7
1523179577561807,-6,-1,3,17,3,0,-14,-16
1523179577563813,1,-4,1,-5,-38,-12,-20,-3
1523179577563813,9,14,0,-11,17,10,5,2
1523179577585106,-17,-17,-10,-14,16,-16,-16,-6
1523179577585106,-17,8,11,52,-41,0,22,-37
1523179577586879,0,-9,-6,-22,-31,1,-18,5
1523179577586879,2,5,4,11,30,-8,11,8
1523179577598905,9,6,4,6,-31,-6,-21,-12
1523179577598905,7,-2,-8,-21,-30,-6,15,19
1523179577607929,-6,-5,-4,-2,-10,-17,-9,1
1523179577607929,-2,-6,-3,-14,43,33,17,-3
1523179577621968,2,-1,0,18,24,23,9,6
1523179577621968,-3,-4,-1,-42,22,6,-17,1
1523179577623971,9,8,8,61,30,8,-20,12
1523179577623971,-10,-5,-3,-26,-72,-22,16,-19
1523179577645028,-3,-6,-7,-19,18,-21,-11,-12
1523179577645028,3,1,4,11,-1,16,19,10
1523179577646030,8,1,-8,-68,-23,6,0,12
1523179577646030,-2,-6,5,91,-13,-23,-5,5
1523179577667322,-22,-5,-11,-67,-45,-17,-12,-36
1523179577667322,-7,4,8,8,34,32,14,-10
1523179577669093,9,1,-1,-1,-8,-27,-19,3
1523179577669093,-1,2,8,-17,-20,8,36,11
1523179577682363,4,0,0,36,11,-9,5,0
1523179577682363,2,-7,-9,-36,18,14,-21,12
1523179577684132,-10,-5,-8,-32,-15,4,47,3
1523179577684132,3,6,9,13,39,5,-19,-19
1523179577705188,20,6,6,-3,28,36,5,28
1523179577705188,-14,-3,-11,-26,-10,-21,12,-23
1523179577706190,-17,-14,-9,1,-15,-13,-31,-36
1523179577706190,8,-1,-5,-30,-57,-14,-11,22
1523179577735267,-5,2,9,31,72,38,17,-11
1523179577735267,8,-3,-5,-10,-27,-23,1,25
1523179577736270,-12,4,5,32,14,5,-6,-21
1523179577736270,-7,-7,-6,-3,21,11,15,1
1523179577742287,5,4,2,15,-27,-2,-7,-5
1523179577742287,9,1,4,5,55,2,-4,12
1523179577744293,0,1,0,-7,-12,-6,-9,3
1523179577744293,-6,-8,-12,-20,-30,-8,-8,-23
1523179577764346,-2,-3,-2,14,-3,-15,-3,3
1523179577764346,6,13,8,-7,26,11,1,6
1523179577766351,10,0,4,15,-3,0,15,17
1523179577766351,3,-3,-10,-20,3,1,-24,10
1523179577787409,-15,-3,4,8,6,-13,5,-26
1523179577787409,2,-5,-9,-6,-38,-19,9,7
1523179577788410,-1,6,3,-17,35,36,-32,-1
1523179577788410,3,-3,1,31,-25,5,28,11
1523179577801589,14,10,-1,-43,-12,-20,12,13
1523179577801589,-4,-9,-9,18,95,16,-1,18
1523179577808504,-10,-2,4,0,-53,3,3,-29
1523179577808504,-12,-3,1,-17,1,-6,-35,-10
1523179577824507,2,3,2,17,-17,-6,8,0
1523179577824507,3,7,3,-24,-10,-8,1,5
1523179577826511,0,-7,-5,11,-29,-15,1,2
1523179577826511,-10,-2,-2,-8,7,4,-21,-16
1523179577847567,2,-3,-4,14,-36,-2,6,6
1523179577847567,2,0,-3,-47,-43,-6,-3,3
1523179577848569,0,1,11,83,72,1,7,7
1523179577848569,4,2,-2,-45,7,-1,11,-3
1523179577861605,4,0,-1,15,-7,-3,-4,7
1523179577861605,-5,-10,-1,9,-22,-19,-10,-21
1523179577868622,-6,-6,-14,-37,-9,11,12,-4
1523179577868622,2,7,10,32,-23,-10,-5,-1
1523179577884855,0,1,9,-9,-29,3,-28,9
1523179577884855,-3,-6,-6,26,-7,4,28,0
1523179577886672,16,3,-7,-64,30,6,10,23
1523179577886672,-9,-1,6,77,-26,3,-27,-12
1523179577907726,-15,-7,-13,-20,-13,-23,-9,-35
1523179577907726,-3,4,8,16,-57,-16,-2,-12
1523179577908729,8,3,1,-19,-25,13,18,21
1523179577908729,2,-3,-5,-25,67,6,18,10
1523179577921775,-4,-12,-10,10,32,3,-5,-1
1523179577921775,-5,-12,-7,28,9,-2,-3,-11
1523179577929019,-14,-6,-11,-34,-59,-20,-23,-12
1523179577929019,0,4,5,0,43,11,37,-12
1523179577944825,-5,-10,-8,-8,-5,-45,-17,-9
1523179577944825,10,8,12,42,43,57,24,26
1523179577946830,2,-1,-4,-2,8,-2,7,9
1523179577946830,-5,-5,-9,-11,-69,-50,-34,-17
1523179577967981,11,3,2,-12,-50,-6,1,34
1523179577967981,-22,-3,-4,-23,1,-19,2,-40
1523179577968898,0,1,4,8,28,-13,-3,-16
1523179577968898,8,-1,1,-5,-15,7,-1,16
1523179577982158,-6,-7,-4,9,26,13,17,-5
1523179577982158,11,4,-1,-19,-33,2,-13,5
1523179577988945,2,4,6,11,6,-17,-9,15
1523179577988945,-15,-6,-9,-27,21,-7,-11,-28
1523179578012003,-2,-1,-1,-17,-14,33,22,-4
1523179578012003,2,1,5,11,-11,28,-2,8
1523179578014009,2,-3,-3,15,-20,-26,-12,1
1523179578014009,5,0,-2,-43,12,45,24,23
1523179578028044,-4,-1,-8,-4,-2,-8,6,7
1523179578028044,-1,-4,-6,-11,-16,-9,-27,4
1523179578029049,-14,2,5,14,-31,8,3,-29
1523179578029049,7,5,9,21,34,-8,-7,-1
1523179578042083,-8,-6,-5,-3,-35,-20,-6,-3
1523179578042083,13,2,0,-43,-33,-15,5,29
1523179578048137,-10,-4,0,38,10,-11,-20,-24
1523179578048137,1,-1,6,13,35,0,-6,3
1523179578065144,9,-6,-12,-38,-60,13,1,20
1523179578065144,-13,0,4,26,72,26,4,-20
1523179578066275,-1,1,4,6,-9,-15,-3,-9
1523179578066275,-2,-11,-12,-3,-41,-26,-20,-3
1523179578095241,0,8,5,-8,12,-11,2,2
1523179578095241,12,-2,-2,5,39,8,-35,19
1523179578096227,-13,4,1,-10,-22,20,22,-28
1523179578096227,-2,-6,-11,-34,-29,-13,-6,20
1523179578101313,2,3,4,24,73,18,-10,-12
1523179578101313,-9,0,-6,-36,-56,-19,13,-9
