timestamp,emg1,emg2,emg3,emg4,emg5,emg6,emg7,emg8
1523209517424409,1,7,7,3,16,6,3,-2
1523209517424409,0,-1,-7,1,-12,-7,-4,-1
1523209517432432,-2,-4,14,3,8,0,2,1
1523209517432432,0,-5,14,-8,-2,3,4,0
1523209517433456,-1,1,-1,10,5,0,-1,0
1523209517433456,-3,7,-8,-11,-6,0,-3,0
1523209517454490,-2,-2,3,-10,-13,-3,-1,-2
1523209517454490,1,3,-6,4,4,-4,-2,0
1523209517456494,0,0,6,-2,1,1,0,-2
1523209517456494,1,1,19,15,2,2,-1,0
1523209517468526,-2,-1,-13,-23,-6,-9,-3,-3
1523209517468526,-1,-3,-22,-6,3,4,-1,1
1523209517477552,-2,-3,39,16,-1,-3,-1,-2
1523209517477552,0,-2,-17,-13,-5,-4,-4,-2
1523209517491588,0,2,15,10,0,-1,0,-1
1523209517491588,-4,-7,-14,-2,-7,1,0,0
1523209517493594,5,6,-8,-8,9,-4,0,1
1523209517493594,-7,-6,-25,-2,0,2,1,-1
1523209517514653,-8,-7,19,12,9,6,1,-1
1523209517514653,8,0,-14,-7,-9,-6,-5,-3
1523209517515663,-1,-1,30,-15,-11,-3,-2,-2
1523209517515663,5,10,7,7,8,4,2,0
1523209517536708,-1,-6,5,-7,-7,-3,-3,-3
1523209517536708,-5,-7,-54,4,-5,-16,-3,-2
1523209517538714,1,4,22,4,5,2,0,1
1523209517538714,3,2,-3,1,5,2,0,1
1523209517551750,2,14,52,4,-1,2,2,0
1523209517551750,1,4,15,2,3,2,1,1
1523209517553754,-3,-10,-31,-8,-12,-4,-3,-3
1523209517553754,0,3,-28,-9,-6,-4,-2,-1
1523209517574810,-5,-8,27,-15,-8,-4,-4,-3
1523209517574810,0,1,-1,5,4,0,1,0
1523209517575813,-2,-2,16,-8,-6,-5,-3,-1
1523209517575813,-2,-1,46,23,4,7,3,-2
1523209517596869,3,1,-7,21,10,4,3,2
1523209517596869,-2,-2,-46,-21,1,-2,-2,-2
1523209517598883,-3,-3,-16,6,-4,0,-1,-1
1523209517598883,-3,-4,2,-27,-13,-10,-7,-3
1523209517610914,-1,-8,-61,-7,-6,-5,-4,-4
1523209517610914,-5,-2,72,10,6,6,2,-3
1523209517619928,8,16,-63,-15,7,7,4,5
1523209517619928,-15,-29,2,-22,-15,-11,-8,-10
1523209517634969,1,2,32,13,0,3,1,2
1523209517634969,-2,-7,-22,-17,-9,-12,-5,-2
1523209517635971,-4,-7,-6,8,-16,-6,-3,-4
1523209517635971,6,12,29,5,24,9,5,9
1523209517657027,1,3,16,-1,2,2,1,2
1523209517657027,-6,-4,5,-6,-3,2,-4,-4
1523209517659032,4,8,14,3,-5,-1,1,2
1523209517659032,-11,-18,-38,-6,-4,-4,-4,-10
1523209517671066,4,1,-2,-5,8,3,-1,-1
1523209517671066,2,2,11,19,1,3,-4,1
1523209517680093,-6,-2,39,7,1,-4,6,-4
1523209517680093,2,2,-57,-25,-16,-6,-3,0
1523209517694126,-8,-23,-45,0,1,-6,-3,-4
1523209517694126,3,10,33,15,-2,-1,-7,0
1523209517696131,1,1,-14,6,4,-1,2,0
1523209517696131,-7,-17,-59,-9,-8,-4,-3,-5
1523209517717189,-1,8,1,-5,1,1,3,2
1523209517717189,7,19,66,23,10,4,2,3
1523209517718190,-6,-13,-27,0,5,3,-2,-1
1523209517718190,3,2,4,3,-7,-5,0,0
1523209517731229,3,10,-9,2,-2,-4,-2,-1
1523209517731229,-8,-18,0,-15,-5,-2,3,-4
1523209517739246,3,7,17,10,4,2,1,1
1523209517739246,5,10,38,-3,4,0,-1,-1
1523209517754287,-6,-16,-51,-13,-10,-5,-3,-3
1523209517754287,1,-6,-11,12,10,5,4,1
1523209517756292,-1,-6,14,-23,-4,-2,-5,-3
1523209517756292,-5,-8,-27,7,-12,-7,-7,0
1523209517777352,4,8,36,2,3,4,4,0
1523209517777352,4,12,-23,-2,8,3,1,2
1523209517778349,-10,-22,-2,0,-7,-4,-3,-3
1523209517778349,6,9,24,9,9,1,3,2
1523209517790383,-7,-8,54,-1,-8,-5,-4,-3
1523209517790383,-6,-13,-21,-11,-8,-3,-2,-3
1523209517799409,2,9,25,6,4,0,0,-4
1523209517799409,2,8,31,6,-5,-4,1,-1
1523209517814447,3,-2,-54,5,8,3,-1,2
1523209517814447,3,20,14,0,-1,-1,0,1
1523209517816460,-6,-10,-4,0,-2,-1,-6,-3
1523209517816460,-1,-2,-49,-10,-3,2,6,0
1523209517837508,2,12,37,19,-2,-2,0,1
1523209517837508,-3,-3,14,-10,-11,-6,-6,-3
1523209517838510,0,-2,-39,2,7,0,1,1
1523209517838510,1,5,-8,2,6,5,0,0
1523209517851546,1,-2,4,-3,-1,2,-1,0
1523209517851546,-1,-2,-23,-5,-7,-3,3,0
1523209517858582,-4,-4,4,-10,-6,-7,-7,-3
1523209517858582,5,9,81,5,0,-1,-2,2
1523209517874613,-9,-25,31,3,-2,-1,1,-2
1523209517874613,0,-4,-36,-9,-7,-1,1,1
1523209517875613,3,6,18,10,15,6,2,1
1523209517875613,-1,4,-11,-5,-6,-1,-2,0
1523209517896668,-1,4,3,-10,-7,-4,-2,0
1523209517896668,-5,-7,18,-3,-4,-1,-2,-3
1523209517898671,1,5,9,-2,1,1,12,1
1523209517898671,-3,-16,-53,4,-1,-1,-3,-3
1523209517911713,0,7,23,1,-1,-2,-2,-1
1523209517911713,-2,-4,-4,-1,3,2,0,0
1523209517917721,1,5,-13,0,-2,-3,-3,-1
1523209517917721,-2,-7,3,-1,0,1,-1,-2
1523209517934764,-5,-4,-26,-12,-12,-8,-3,-4
1523209517934764,2,4,4,5,3,-1,-8,-1
1523209517935769,-4,-6,-19,11,-3,3,7,1
1523209517935769,-1,-3,-8,-31,1,-1,2,-1
1523209517956824,-1,-2,4,0,-1,0,0,-2
1523209517956824,1,-2,-9,-4,-1,-1,-2,-1
1523209517958831,-1,-1,9,-17,-7,-6,-5,-3
1523209517958831,-1,0,-25,29,4,2,-1,-1
1523209517971987,1,-1,-18,-12,3,3,0,0
1523209517971987,-1,-7,-3,-2,-2,0,6,-2
1523209517978115,1,2,15,6,-2,0,-3,2
1523209517978115,-2,1,20,-3,0,-2,-4,-2
1523209517995180,3,10,2,-1,1,-1,4,1
1523209517995180,-7,-9,5,4,-1,-3,2,-3
1523209517995931,-2,-4,-7,-5,-4,-2,-5,-1
1523209517995931,0,3,42,5,-4,-3,-3,1
1523209518016983,1,6,-31,-13,-4,-5,-8,0
1523209518016983,-1,-1,22,2,1,2,3,0
1523209518018990,-2,-16,38,5,5,3,3,2
1523209518018990,-3,-13,-57,-3,5,2,-1,-3
1523209518031027,-1,9,13,5,8,6,3,2
1523209518031027,-2,-3,-4,-21,-9,-3,2,-2
1523209518040045,-2,2,8,0,-8,-9,-9,-3
1523209518040045,3,7,26,-3,-6,-4,-1,-1
1523209518054082,-4,-17,6,5,-2,-3,-1,-3
1523209518054082,-2,-7,-96,-17,0,-1,-4,-2
1523209518056088,2,5,2,2,2,2,-1,1
1523209518056088,-1,5,45,2,-2,-3,-5,5
1523209518077376,2,11,20,-1,3,1,7,2
1523209518077376,-9,-25,-20,5,-4,-8,-16,-4
1523209518079155,-5,5,-33,0,-2,2,14,0
1523209518079155,3,6,17,5,1,1,2,-1
1523209518090178,-1,-4,-56,-2,-7,-5,-6,-3
1523209518090178,5,9,11,5,3,-1,-3,2
1523209518099206,-3,-9,1,-4,1,1,-1,0
1523209518099206,-4,-3,-18,-4,-3,-2,-1,-5
1523209518114285,0,4,-1,-3,-4,-4,-13,-2
1523209518114285,2,7,50,8,4,5,17,1
1523209518116247,-3,-8,-44,-1,1,1,3,-4
1523209518116247,3,11,-32,-3,0,1,-1,-4
1523209518137303,0,-10,10,-4,-7,-4,-19,-3
1523209518137303,2,-2,26,1,-2,0,12,-7
1523209518138306,-2,8,12,-4,-4,-5,-14,0
1523209518138306,-24,-13,-26,2,0,-1,13,1
1523209518150344,20,4,18,0,4,3,-1,-1
1523209518150344,-9,-14,-20,3,-2,-1,-3,0
1523209518159540,-3,13,19,-3,0,-2,-5,-8
1523209518159540,24,10,-11,1,2,2,12,-6
1523209518174440,-17,-43,20,5,-1,-2,4,6
1523209518174440,3,9,40,-1,0,-1,-1,7
1523209518176408,22,-8,-62,-4,-5,0,-3,29
1523209518176408,-29,-2,-40,-4,-3,-1,-12,-19
1523209518197465,-25,9,26,-6,-2,-2,-1,-31
1523209518197465,20,5,-7,0,0,0,-3,1
1523209518198466,6,0,-11,0,-2,-4,0,-2
1523209518198466,75,17,44,3,-1,-3,-10,16
1523209518210497,-88,-11,-34,-13,-3,2,10,-23
1523209518210497,-11,-46,-14,3,-1,-3,-4,10
1523209518219523,2,-2,-18,-7,-4,-2,-6,-10
1523209518219523,-2,1,67,3,0,0,0,9
1523209518234561,3,9,-84,2,3,5,-1,3
1523209518234561,17,32,50,0,-1,0,5,9
1523209518236606,8,12,46,-6,-3,-3,-3,-21
1523209518236606,-14,-41,15,-3,-3,-3,0,2
1523209518256621,14,1,-24,-1,-4,-4,1,14
1523209518256621,27,7,5,10,7,5,-1,-8
1523209518258633,-28,-8,49,-1,-3,-2,-7,32
1523209518258633,-26,-11,-42,-10,-3,-4,-1,-22
1523209518270893,14,5,29,2,-3,-1,-3,1
1523209518270893,3,1,-24,-3,-4,-4,-7,-3
1523209518279686,0,2,-8,-1,-1,0,-1,-3
1523209518279686,-2,2,4,2,-1,-3,-3,9
1523209518294721,9,-3,12,-2,0,-1,17,-4
1523209518294721,12,0,-11,-3,2,-1,-6,-9
1523209518295727,-29,1,-17,0,0,-1,2,4
1523209518295727,-26,-7,30,-6,-2,-2,-6,-6
1523209518316780,19,11,2,4,0,-1,-3,0
1523209518316780,-10,-4,24,-7,-2,-2,1,-1
1523209518318786,1,0,-8,-1,1,1,-8,-14
1523209518318786,13,4,-36,-1,0,-3,24,16
1523209518330819,0,9,79,18,3,1,-8,2
1523209518330819,-16,-2,-38,-15,-1,-1,-1,5
1523209518345857,99,-10,-24,15,1,0,7,3
1523209518345857,-22,-19,-41,-11,0,-2,-15,10
1523209518354887,31,-2,-20,-17,-4,-3,-12,-1
1523209518354887,-31,-16,23,19,3,0,-19,-2
1523209518355886,3,26,5,3,0,1,60,-15
1523209518355886,29,15,51,4,2,4,-13,9
1523209518378124,4,-33,-3,-6,-4,-1,-23,1
1523209518378124,-58,8,-24,6,-3,-11,-9,-3
1523209518382957,-6,-21,-26,-5,-1,-4,-2,-2
1523209518382957,-11,8,1,6,3,11,-35,-19
1523209518390979,-5,18,-20,-7,-2,-6,59,10
1523209518390979,0,3,-2,-2,-5,-12,-105,8
1523209518400001,-20,-19,8,-1,1,13,76,1
1523209518400001,-19,8,-12,-1,-1,-5,-40,6
1523209518414043,28,11,17,-2,-3,1,-2,-9
1523209518414043,9,9,-85,3,-1,-3,-5,1
1523209518416044,33,1,65,-5,-4,-7,-93,3
1523209518416044,-22,7,-7,-1,-1,4,97,27
1523209518437100,0,20,-29,-6,-1,-3,-12,9
1523209518437100,3,-5,25,2,-3,0,-3,-8
1523209518439106,-3,14,-5,-3,-1,5,44,-4
1523209518439106,-30,-9,25,0,-3,-6,-2,-35
1523209518459159,-11,-14,-66,7,4,0,-24,22
1523209518459159,50,10,25,-4,1,7,37,28
1523209518461164,-19,13,-56,-18,-2,-10,-72,-5
1523209518461164,28,-3,23,8,-2,4,66,-16
1523209518474199,-7,15,54,24,6,3,-74,24
1523209518474199,14,10,-25,-27,1,7,73,-9
1523209518476204,-34,-7,-2,24,0,1,-61,-28
1523209518476204,11,-16,14,-14,-6,-1,22,17
1523209518497261,12,8,29,-2,-2,-8,-16,13
1523209518497261,-20,-32,-2,7,0,0,11,-17
1523209518498263,6,10,-7,-5,-2,-11,-102,16
1523209518498263,-53,3,-28,-9,-1,4,19,-36
1523209518518316,-15,-10,21,0,0,1,27,1
1523209518518316,9,19,9,3,-5,0,-15,-33
1523209518536364,-45,-50,-22,-22,-4,-3,25,-1
1523209518536364,4,-17,-23,9,3,-7,-33,-3
1523209518537366,18,4,27,-7,1,5,18,6
1523209518537366,-36,-9,-82,-2,3,-1,-16,-6
1523209518540408,22,11,85,9,3,4,39,0
1523209518540408,-19,-4,-5,-3,-3,2,-18,37
1523209518557421,-28,-5,37,-5,-5,-6,39,-42
1523209518557421,-12,-4,1,-1,-4,-3,1,-1
1523209518558422,8,8,0,4,-2,1,34,3
1523209518558422,20,10,3,7,0,-4,-24,19
1523209518579479,41,-4,-39,-11,-1,1,0,-9
1523209518579479,11,-1,19,0,-2,-3,-30,8
1523209518581486,-79,-3,-30,3,1,1,26,-7
1523209518581486,44,-3,-7,-4,-2,-5,-43,-32
1523209518593517,-77,-38,-12,4,2,5,2,-7
1523209518593517,-5,-5,23,-6,-5,-8,-66,-11
1523209518600534,18,0,-6,-3,0,2,123,-4
1523209518600534,-8,-21,-10,-3,0,1,-56,-19
1523209518616577,39,30,18,-2,-1,-1,-41,30
1523209518616577,30,3,-73,16,7,19,91,4
1523209518618582,3,-1,-48,-13,-9,-6,-6,18
1523209518618582,-29,11,48,10,-8,-15,37,-31
1523209518639638,-3,-7,-1,1,3,-1,-65,-10
1523209518639638,19,-3,89,-6,-1,9,32,-25
1523209518640643,-16,29,26,14,4,-11,-95,-19
1523209518640643,42,-17,-19,6,1,9,43,35
1523209518653677,21,6,-77,-6,-4,-7,-7,-13
1523209518653677,-44,-10,25,-3,-3,-1,-32,13
1523209518661696,-11,4,-6,-10,2,1,-29,-10
1523209518661696,83,16,-23,-5,-5,-7,-44,10
1523209518676969,-55,-23,22,3,-1,-1,37,-21
1523209518676969,6,1,-4,-8,-2,-2,-18,4
1523209518678746,14,-9,14,5,4,5,-15,-7
1523209518678746,-11,-14,10,-22,-7,-1,43,26
1523209518699799,15,27,61,10,-2,0,46,-11
1523209518699799,13,-4,-28,-14,-3,-1,-22,-5
1523209518700801,58,0,25,12,-1,-2,81,12
1523209518700801,-100,-21,-31,-7,3,-5,-20,-1
1523209518713841,25,8,25,0,0,-1,-11,12
1523209518713841,1,9,-24,-13,-8,-6,19,-1
1523209518721086,-15,-11,53,-5,-2,-16,-94,54
1523209518721086,48,-3,-23,27,13,20,-9,-29
1523209518736936,39,14,-26,-38,1,0,-16,17
1523209518736936,-81,-72,-27,19,-18,-11,26,-37
1523209518738904,0,-5,-39,2,3,3,-21,8
1523209518738904,-14,9,26,6,2,-1,21,-22
1523209518760186,7,-7,8,-1,-4,-7,-73,21
1523209518760186,70,40,1,-6,7,4,42,-10
1523209518760960,22,5,-8,-8,-8,-2,16,20
1523209518760960,-1,3,-10,1,-2,-1,-15,-24
1523209518774230,-11,-7,18,-2,3,0,81,-34
1523209518774230,-1,34,54,-5,4,-1,-29,12
1523209518781016,53,-14,-27,-10,-3,-2,10,-5
1523209518781016,-51,9,33,17,-4,-7,-19,27
1523209518797059,90,3,9,8,-2,-4,2,4
1523209518797059,-9,30,41,15,5,-6,-33,0
1523209518799062,1,-3,-8,-1,3,10,28,-11
1523209518799062,4,0,4,-22,-2,1,-31,7
1523209518820156,-12,-18,-65,10,-4,1,-14,-2
1523209518820156,3,-1,32,6,1,-3,8,-11
1523209518821120,-51,-5,56,-5,-1,-2,20,-19
1523209518821120,24,1,-90,-25,-8,-2,-48,9
1523209518834155,33,-7,-12,4,-1,4,7,1
1523209518834155,56,10,0,-4,2,4,53,33
1523209518841174,-27,3,-29,-4,-7,-5,-54,-15
1523209518841174,27,-7,50,12,1,-3,25,-12
1523209518857216,-112,3,-17,-20,-1,-1,-6,-17
1523209518857216,54,4,-17,13,0,-5,6,5
1523209518858219,-12,-1,-47,-7,3,10,17,-3
1523209518858219,37,14,-24,30,4,0,7,-11
1523209518879283,-68,-17,81,-11,-10,-4,12,5
1523209518879283,23,-29,-64,1,5,0,-29,-13
1523209518881281,-51,-15,46,-3,-3,-9,-47,-23
1523209518881281,-9,19,18,-8,5,4,106,19
1523209518894439,32,6,-80,21,-1,6,-40,-6
1523209518894439,-67,21,48,1,-1,-1,-21,4
1523209518900331,59,-4,-24,-3,0,-4,-42,48
1523209518900331,-36,4,6,6,1,0,57,-31
1523209518917378,52,5,11,11,2,-2,-35,-2
1523209518917378,-128,-22,3,-26,-7,0,25,-18
1523209518918380,54,24,-43,5,3,12,-9,4
1523209518918380,-67,-6,44,-19,-8,-16,-104,41
1523209518939436,11,-16,27,0,-5,1,35,-12
1523209518939436,-25,-13,-48,-8,-3,-5,38,39
1523209518941442,55,7,-30,1,1,0,16,-1
1523209518941442,18,6,52,-8,-6,-6,-23,5
1523209518953472,-7,-4,-25,-20,-6,-1,-4,22
1523209518953472,30,7,60,19,6,4,-18,5
1523209518962499,-27,7,44,-19,-4,0,10,-9
1523209518962499,-21,34,-80,-9,-4,0,5,-18
1523209518976573,5,-20,-10,12,4,-6,-33,12
1523209518976573,17,-2,22,6,1,-5,-31,-18
1523209518978545,-11,3,-3,2,-2,1,42,7
1523209518978545,-40,-6,-4,-1,-2,-2,-47,-18
1523209518999596,-49,-13,-21,-9,2,5,74,-6
1523209518999596,57,5,-3,-1,-4,-8,-60,-12
1523209519000598,-31,-15,-2,-2,0,2,78,-15
1523209519000598,69,-7,-42,-5,3,5,-10,11
1523209519013639,-47,-3,46,-6,-8,-11,6,24
1523209519013639,87,-4,-7,8,-3,3,-7,5
1523209519022657,-29,-5,17,-2,-1,-3,-52,1
1523209519022657,58,5,41,26,-1,-1,52,25
1523209519036692,-16,-7,-74,-30,-1,6,-12,-36
1523209519036692,-27,0,63,2,-1,0,38,13
1523209519038698,-5,5,54,-2,-3,-3,-2,-39
1523209519038698,-2,-26,18,4,1,-4,-43,24
1523209519059986,-3,-6,-60,17,3,0,-3,-5
1523209519059986,-9,-4,6,-8,0,2,-11,-2
1523209519060757,23,12,3,5,-1,-7,-62,0
1523209519060757,-30,-24,46,-2,-5,2,77,-11
1523209519072793,19,4,10,-5,2,-1,-85,20
1523209519072793,-23,9,-41,-13,3,6,87,-16
1523209519081812,-13,-20,1,11,-1,-6,-47,4
1523209519081812,32,33,-73,5,4,4,-14,-26
1523209519096853,-1,-14,44,-29,-11,-3,15,-1
1523209519096853,28,-20,-35,-1,-10,-9,-2,-30
1523209519098858,37,10,-7,5,2,0,-17,23
1523209519098858,-8,-9,16,-9,-1,-2,-11,-3
1523209519120135,-8,4,-6,18,2,-7,42,32
1523209519120135,-11,-4,2,-8,4,7,-113,-16
1523209519120916,-3,-2,4,-5,-8,-6,6,-4
1523209519120916,-30,-10,-9,-1,4,0,-53,1
1523209519132949,46,8,17,4,-1,7,36,12
1523209519132949,0,-36,4,-12,-10,-12,-38,10
1523209519141973,4,-4,6,19,4,3,-7,1
1523209519141973,-67,-23,-16,-3,-1,1,-46,-2
1523209519157013,16,34,-6,-4,-2,-6,13,4
1523209519157013,0,9,-2,-1,0,4,13,15
1523209519159223,-18,5,10,-6,-4,0,4,-17
1523209519159223,34,-24,1,-9,2,-4,14,37
1523209519180079,-55,7,25,11,2,2,-12,-66
1523209519180079,-90,8,72,0,-1,1,32,-3
1523209519181078,12,-12,-63,-12,-2,-1,17,0
1523209519181078,-40,17,45,5,2,1,-24,19
1523209519193111,21,-10,-31,-4,2,-1,-13,2
1523209519193111,-10,-7,20,-9,-1,0,-7,15
1523209519202132,-28,13,5,12,4,3,18,-27
1523209519202132,61,-7,8,-17,-3,2,31,2
1523209519217175,-12,-8,-12,31,6,2,-24,14
1523209519217175,53,-18,-64,-35,-16,-10,-1,-31
1523209519219177,17,6,31,10,5,-1,-81,52
1523209519219177,4,8,-57,-4,-3,-3,107,-45
1523209519239233,-12,5,37,-1,-2,-8,31,-48
1523209519239233,49,31,40,10,7,8,-23,22
1523209519241237,-76,-13,-11,-3,-7,-7,3,-17
1523209519241237,9,8,49,-10,-3,-3,-61,-1
1523209519253269,20,-7,-53,-8,-5,-4,-4,-28
1523209519253269,-3,21,-12,0,0,-5,-14,40
1523209519262295,56,-15,3,-7,0,5,23,-35
1523209519262295,21,11,17,4,-2,-1,-19,-12
1523209519277457,37,13,25,11,3,-1,7,38
1523209519277457,-47,-9,-11,3,3,4,9,-10
1523209519278339,26,9,-28,-6,-1,3,42,30
1523209519278339,59,-7,-49,-7,-2,-1,-21,13
1523209519299392,3,20,42,-5,-4,-3,-36,31
1523209519299392,-5,-22,2,11,1,3,26,-5
1523209519301398,18,12,1,-7,1,2,29,-35
1523209519301398,-43,6,40,29,-3,-9,61,-6
1523209519313436,2,-5,10,-9,2,13,6,34
1523209519313436,-27,-5,-38,13,1,-5,-44,-52
1523209519322452,15,-1,-65,-17,-4,-5,43,3
1523209519322452,1,-1,-11,-8,-1,-1,-61,-10
1523209519337492,-73,3,10,2,0,2,60,-26
1523209519337492,31,4,-31,0,-2,-2,-1,8
1523209519338496,-6,-13,25,-5,-4,-5,-32,21
1523209519338496,25,-33,-70,-16,0,2,-3,-9
1523209519359786,-74,-5,35,27,-3,-7,-47,-35
1523209519359786,-55,4,-24,-13,0,-2,3,23
1523209519361562,-74,2,42,2,-5,-2,42,8
1523209519361562,-3,16,6,-9,-3,-6,-20,-10
1523209519381609,9,3,11,-7,1,5,-5,4
1523209519381609,3,10,61,12,3,1,-8,2
1523209519383614,28,9,-24,4,4,1,49,16
1523209519383614,47,5,-2,-1,1,4,49,20
1523209519396651,-10,2,-44,0,1,-3,3,-37
1523209519396651,21,20,-12,-8,-8,-11,-66,9
1523209519398655,10,-12,21,-1,-1,5,58,-50
1523209519398655,13,9,47,-5,-2,0,-47,5
1523209519419946,45,2,-49,-9,-2,-4,34,33
1523209519419946,-56,-25,-10,18,-1,0,-9,11
1523209519421715,-19,-9,59,-4,2,0,-74,8
1523209519421715,-34,-27,14,7,-5,0,28,2
1523209519441813,31,-9,28,6,1,0,-17,4
1523209519441813,-94,-4,26,-6,1,1,-7,-6
1523209519443774,79,16,-4,6,0,0,78,16
1523209519443774,-64,-16,8,-9,-3,3,5,-7
1523209519456813,25,2,-19,-4,0,-12,-81,22
1523209519456813,51,0,34,9,4,8,78,-19
1523209519458815,-36,-31,-6,-9,-5,-4,-31,17
1523209519458815,31,18,-21,-5,-1,-1,-30,-30
1523209519479875,21,-3,-31,-2,-4,3,15,-9
1523209519479875,65,-7,10,7,1,1,34,4
1523209519480874,-78,-4,-67,-6,-4,-8,-17,-8
1523209519480874,-37,-10,3,-6,1,2,0,-46
1523209519501972,-28,-17,-12,-14,-3,-1,-12,2
1523209519501972,41,7,-48,5,-1,-5,-9,9
1523209519503935,-24,9,43,5,6,6,-94,8
1523209519503935,-10,-29,-16,-8,-2,-2,75,-5
1523209519515969,19,5,10,15,-3,0,51,-29
1523209519515969,45,-9,-54,-11,-1,-5,-40,10
1523209519523225,-23,14,73,13,-1,1,-44,27
1523209519523225,4,-11,-23,-5,-3,-5,17,-11
1523209519540116,11,-4,28,-31,1,1,-21,-24
1523209519540116,-51,14,-22,27,-1,-2,26,25
1523209519541034,69,-2,-5,14,1,1,11,-1
1523209519541034,-8,-4,17,16,2,0,-60,4
1523209519562097,20,-2,-10,-5,1,3,63,29
1523209519562097,0,0,-58,-22,-2,5,2,-18
1523209519564094,19,-2,14,0,-2,-3,-29,-15
1523209519564094,-9,28,27,6,3,3,-3,37
1523209519576361,22,2,-34,2,-6,-7,-95,12
1523209519576361,-3,9,32,-15,-3,6,31,-31
1523209519583185,-24,-11,18,2,-2,0,118,27
1523209519583185,36,13,-12,2,-3,0,-18,2
1523209519599187,-7,-6,31,9,-1,-5,-41,15
1523209519599187,33,18,30,1,3,2,0,13
1523209519601194,-46,-39,-84,-28,-7,-9,-22,-48
1523209519601194,25,-1,-14,19,-6,-3,-12,-13
1523209519622249,-25,-15,20,-1,2,0,16,-20
1523209519622249,-3,-9,33,-3,-4,-3,-45,1
1523209519624310,8,13,-11,-9,2,5,38,-40
1523209519624310,14,-1,-35,-3,2,-2,-33,40
1523209519644309,-93,-16,-34,10,-4,-1,21,-66
1523209519644309,7,0,16,-8,-3,-8,1,29
1523209519646315,36,17,-25,-3,3,2,-62,-16
1523209519646315,-29,3,25,-13,-6,-7,121,25
1523209519659580,-4,-1,53,4,-3,-2,-9,2
1523209519659580,-19,-3,8,10,-2,-3,-7,-5
1523209519661355,-18,-3,-12,-3,3,7,33,13
1523209519661355,-6,12,19,9,3,-4,-75,8
1523209519682412,37,1,-9,-15,3,1,-10,4
1523209519682412,14,-1,13,-8,-4,-1,43,21
1523209519683411,6,0,31,3,-4,-9,-55,1
1523209519683411,21,0,-60,5,-2,1,-72,-23
1523209519696450,-12,-15,-25,-6,-1,8,79,57
1523209519696450,-33,-33,-13,-5,0,-8,3,-34
1523209519703465,74,16,11,5,-2,-2,-4,8
1523209519703465,-88,7,-23,-7,3,7,-43,-19
1523209519719746,34,12,-23,-19,-4,-6,2,-26
1523209519719746,-3,1,15,17,-1,-2,-9,13
1523209519721513,-32,-24,-68,9,-3,-1,-6,-10
1523209519721513,-6,3,21,-5,1,-3,-12,19
1523209519742664,10,0,-5,6,3,9,21,-15
1523209519742664,-17,0,18,-21,-6,-1,9,-14
1523209519743570,-42,8,10,0,0,-3,-46,1
1523209519743570,19,-7,2,0,-5,-1,94,3
1523209519756608,-22,4,10,13,2,-1,28,1
1523209519756608,6,-21,-79,-13,0,3,-3,-14
1523209519762625,-22,15,75,11,-2,2,35,1
1523209519762625,-4,-21,-74,-21,-7,-7,-34,19
1523209519779670,-13,0,23,2,-3,-6,-11,2
1523209519779670,-53,4,48,7,0,1,-7,-59
1523209519780677,13,-26,-2,-9,1,-2,-2,25
1523209519780677,-2,-1,-40,-7,-4,-2,-12,-42
1523209519801727,3,-3,-8,17,-1,-2,-4,1
1523209519801727,20,-3,-4,-10,-2,-5,-43,18
1523209519803731,-6,-25,-23,-15,-3,0,7,-4
1523209519803731,-2,4,77,10,6,6,15,-8
1523209519816769,-5,8,-14,2,-4,-6,-55,8
1523209519816769,20,6,-54,-3,-3,-4,15,10
1523209519823824,-45,2,-10,-1,-2,0,34,-17
1523209519823824,56,5,10,-7,1,-2,42,12
1523209519839828,-76,-4,6,7,-2,-4,-35,-4
1523209519839828,37,16,20,5,3,2,-7,-24
1523209519840830,22,6,-1,-17,-4,-3,-14,16
1523209519840830,16,18,40,16,2,0,-2,-9
1523209519862892,-27,15,8,-2,3,-2,-65,1
1523209519862892,2,-2,5,7,-6,-4,53,13
1523209519863891,10,-11,-5,3,4,5,5,-5
1523209519863891,26,-12,14,-20,-5,0,6,6
1523209519876155,11,6,67,-9,-1,0,-28,-8
1523209519876155,29,5,-55,20,6,1,7,14
1523209519884948,31,9,16,-10,-4,-6,-66,-19
1523209519884948,-2,-9,7,-3,-3,-1,15,-29
1523209519899988,40,2,0,5,0,-2,23,-5
1523209519899988,-19,6,-19,9,3,8,11,29
1523209519900990,-33,-10,20,0,-4,-9,-28,-84
1523209519900990,15,20,-2,-8,6,4,-21,10
1523209519922279,-11,-33,-46,-15,-5,-2,54,7
1523209519922279,46,20,30,-3,-1,-3,-16,20
1523209519924051,-21,15,39,9,2,0,-2,32
1523209519924051,-24,-19,3,3,0,-3,-17,0
1523209519936085,-2,-8,56,-6,-4,-1,9,0
1523209519936085,-22,-20,17,-1,6,7,85,11
1523209519945112,-66,5,5,-1,-6,-11,-15,-30
1523209519945112,-10,3,18,0,0,1,41,7
1523209519960194,76,23,-69,-3,-1,0,-12,10
1523209519960194,-125,-36,35,17,-4,-5,-14,-45
1523209519961153,28,7,-56,-2,1,-1,18,-5
1523209519961153,-10,3,32,4,3,4,-4,28
1523209519982206,44,1,-43,-10,-4,-4,-23,2
1523209519982206,24,16,43,5,1,-6,-34,4
1523209519983207,-14,-20,-31,-17,-8,-1,-3,-9
1523209519983207,-43,-1,3,10,-1,-4,-4,17
1523209519995250,21,12,-13,5,2,1,22,10
1523209519995250,-43,-7,-4,-13,0,-1,-39,4
1523209520004264,62,10,-15,6,-1,-2,-49,58
1523209520004264,9,2,-33,-14,-4,3,91,-54
1523209520019539,-31,-6,21,-20,-3,-1,-18,-1
1523209520019539,83,-2,-18,8,-8,-5,-54,21
1523209520021309,-53,1,2,7,-1,-2,3,-44
1523209520021309,15,13,65,0,0,-4,-23,-1
1523209520042404,-23,-12,67,16,0,3,19,23
1523209520042404,-35,4,-11,-19,-6,-12,-27,-14
1523209520043493,19,4,-12,-8,-1,6,54,20
1523209520043493,-14,2,-3,9,-3,-1,-44,14
1523209520055400,-16,-15,20,-6,1,8,124,-12
1523209520055400,44,4,-20,-17,-9,-6,-35,5
1523209520064424,13,-17,-4,20,-1,-3,-4,7
1523209520064424,-33,1,-53,-13,-4,-5,3,9
1523209520079468,31,0,-39,6,1,3,-31,6
1523209520079468,20,-13,-66,-22,-2,-5,-16,-11
1523209520081469,36,-3,19,14,2,4,14,45
1523209520081469,55,-3,6,2,-3,-2,4,-12
1523209520101524,-55,-5,-52,-1,0,-7,-27,3
1523209520101524,-7,-6,47,-4,-5,2,-13,-36
1523209520103527,-13,-12,-75,-20,2,-5,21,7
1523209520103527,-28,-8,32,4,-3,0,-43,-1
1523209520115561,-48,-2,-55,12,2,-3,-13,-29
1523209520115561,-28,24,6,-5,1,3,34,-4
1523209520124583,50,10,31,-1,-4,-2,-10,15
1523209520124583,-25,-9,-13,-9,-3,-3,-25,17
1523209520139859,10,-5,25,10,0,0,57,-33
1523209520139859,57,15,13,-11,1,3,5,41
1523209520140666,-50,11,28,13,4,3,11,-17
1523209520140666,-18,-16,-52,12,-6,-8,22,11
1523209520161682,23,15,13,-11,-5,-2,-64,-4
1523209520161682,13,-8,54,2,2,3,48,-40
1523209520163697,16,8,-23,-10,-4,-1,7,15
1523209520163697,10,-5,-14,-7,-1,-4,-23,-32
1523209520175955,24,9,17,4,0,-1,-42,19
1523209520175955,-23,-9,-10,8,-1,4,56,-5
1523209520184744,-36,-27,18,2,0,-4,-17,-14
1523209520184744,-5,4,12,9,1,2,-12,-18
1523209520199785,-38,8,37,-10,-3,0,-15,9
1523209520199785,47,13,-22,-4,3,1,-20,-1
1523209520200788,-87,-2,21,2,-2,3,51,-8
1523209520200788,48,-14,-26,6,-3,-3,-21,64
1523209520222077,9,4,28,0,0,1,5,4
1523209520222077,3,7,7,6,3,1,72,39
1523209520223848,-49,5,-41,-5,0,0,-38,-71
1523209520223848,-4,-31,-62,-26,2,1,8,-15
1523209520235918,1,2,47,30,2,2,-8,21
1523209520235918,24,-9,-9,-10,-7,-6,-42,-20
1523209520244907,-32,-3,-25,-2,-2,-1,16,47
1523209520244907,-17,24,12,-3,1,7,0,-20
1523209520259986,5,-9,-28,-23,-8,-10,-13,21
1523209520259986,30,-4,-7,12,0,0,-21,14
1523209520260949,11,-3,75,1,5,2,-5,-16
1523209520260949,-7,-22,-32,-14,-8,-6,-45,-22
1523209520282041,1,-16,4,0,-4,-5,22,-8
1523209520282041,-10,-4,-6,0,2,-2,-9,16
1523209520284007,58,19,9,-2,-3,-2,-10,18
1523209520284007,-24,14,37,4,3,1,5,4
1523209520296088,42,-8,24,-5,-2,2,-19,-10
1523209520296088,-17,-3,-69,-7,-5,-7,-76,-5
1523209520305063,22,1,32,5,-1,6,80,19
1523209520305063,-15,-10,-23,-1,-3,-12,-6,-22
1523209520320144,14,14,5,-4,3,5,8,1
1523209520320144,-26,2,38,21,-4,-3,-35,7
1523209520321105,10,-2,-29,-4,-2,-8,-14,11
1523209520321105,43,11,35,3,1,7,-6,26
1523209520342200,-57,-3,-5,-17,-3,-1,33,-72
1523209520342200,-16,-11,10,-7,-4,-3,18,6
1523209520344170,11,24,42,1,-3,-2,-29,-38
1523209520344170,56,5,-11,6,3,4,16,19
1523209520364220,-6,8,-4,-5,0,-3,-6,-14
1523209520364220,-13,-4,-45,-5,0,0,15,-33
1523209520366225,-44,-17,62,-6,-2,-4,-54,-15
1523209520366225,21,16,25,4,-3,-4,-38,24
1523209520379266,49,12,-44,13,3,8,58,24
1523209520379266,-44,-8,14,-12,-3,-4,-15,2
1523209520381265,29,4,-9,12,0,-1,-20,12
1523209520381265,-21,-8,29,-16,-4,2,-6,-37
1523209520402322,-14,-8,-64,-22,-5,-2,-16,4
1523209520402322,-27,20,58,26,2,-4,27,20
1523209520403325,26,-2,-14,8,2,3,-14,48
1523209520403325,1,-4,-19,-4,-1,-2,-10,-23
1523209520424615,59,3,50,17,5,4,19,25
1523209520424615,-2,5,-23,-28,1,6,-7,-1
1523209520426385,-15,1,-14,2,-2,-1,19,7
1523209520426385,-30,-7,92,12,6,5,28,10
1523209520439420,70,11,31,-16,-1,-2,-51,-4
1523209520439420,-53,-12,-13,-13,-6,-4,12,5
1523209520441465,-1,10,18,31,2,0,-48,-16
1523209520441465,-15,-2,-21,7,2,2,-40,-18
1523209520462484,-16,-1,0,-6,-9,-3,37,8
1523209520462484,14,3,-3,-1,5,1,0,-14
1523209520463485,18,-38,-95,-20,-6,-4,-17,-32
1523209520463485,9,13,-26,4,-2,-3,-24,10
1523209520484541,-36,-11,-28,2,1,-1,3,-27
1523209520484541,-62,-20,-9,2,-4,-3,-11,-1
1523209520486546,51,-4,-13,-13,-2,-5,11,-10
1523209520486546,-18,-11,-64,9,-2,-5,27,9
1523209520498578,-19,-5,-6,7,3,-2,-6,22
1523209520498578,79,12,4,1,-5,-4,3,16
1523209520505596,5,16,-23,-2,-1,4,-33,8
1523209520505596,-14,-4,16,-9,1,-4,97,-17
1523209520522686,14,-3,17,9,-4,-8,-31,4
1523209520522686,13,-9,3,4,2,7,-16,8
1523209520523644,70,10,12,-9,-1,-2,30,-4
1523209520523644,-62,8,-2,-5,-4,2,22,-50
1523209520544705,-2,-1,-34,3,-2,-4,-58,3
1523209520544705,-4,15,26,24,7,1,68,-42
1523209520545706,-39,0,-30,-25,-3,1,4,-5
1523209520545706,13,4,47,19,-5,-7,-41,27
1523209520558972,-13,-12,-10,-5,4,1,8,2
1523209520558972,-8,-18,0,-13,-4,-5,-83,2
1523209520565759,-17,-7,17,13,4,12,43,-6
1523209520565759,71,-4,-28,-15,-5,-5,-33,-6
1523209520581798,-13,6,-4,-6,-4,-1,4,0
1523209520581798,87,18,6,2,-3,-7,-51,18
1523209520583805,-80,-20,-20,-15,-3,-1,61,5
1523209520583805,19,9,39,0,1,3,4,-7
1523209520604862,-48,0,11,1,-1,0,-24,26
1523209520604862,61,-3,-1,-8,-1,-3,-15,-23
1523209520605864,19,19,28,1,-1,-1,-7,3
1523209520605864,36,13,1,-13,-2,-1,22,19
1523209520619132,6,-20,-54,8,-9,-4,8,3
1523209520619132,-21,-6,65,2,1,-2,-7,7
1523209520626156,0,8,16,8,-1,0,-8,-12
1523209520626156,-4,15,22,-8,2,5,14,14
1523209520641958,-41,-1,72,4,-1,-2,-2,14
1523209520641958,-94,-24,-31,6,1,1,-33,-82
1523209520643964,54,0,-9,-18,-3,-3,78,33
1523209520643964,36,7,-11,13,-3,-7,-38,10
1523209520664016,-35,16,-13,-5,5,8,34,-4
1523209520664016,-90,-10,6,6,-2,1,8,-12
1523209520666023,1,15,-9,-12,-1,-4,-38,-11
1523209520666023,-9,-12,5,-3,1,-1,1,24
1523209520679059,21,-4,41,8,-3,-6,12,13
1523209520679059,25,-2,-31,2,1,1,5,5
1523209520686077,-7,11,57,11,3,1,-4,-27
1523209520686077,-21,-7,-11,-5,1,1,-34,2
1523209520702119,2,-25,-27,-1,2,3,40,66
1523209520702119,-24,3,20,-12,-7,-7,-34,-11
1523209520704124,58,-38,-28,6,0,0,88,16
1523209520704124,-44,-3,16,3,-3,-6,-60,-4
1523209520725218,68,10,11,-2,0,3,-12,2
1523209520725218,26,12,-4,2,-1,2,43,17
1523209520726181,-5,-13,-57,0,-6,-6,-54,-11
1523209520726181,-42,5,45,-5,-2,0,24,-6
1523209520739217,-4,2,-68,-14,-7,-10,-68,-41
1523209520739217,13,-11,4,-8,1,7,125,-5
1523209520753256,24,6,-4,2,0,-2,-78,27
1523209520753256,-52,-11,13,8,3,0,21,-38
1523209520762285,9,15,13,-1,-2,-8,-68,-46
1523209520762285,-3,-5,22,4,0,-3,3,-5
1523209520763281,-73,-11,8,-11,-1,3,7,0
1523209520763281,-22,-8,22,20,4,1,29,11
1523209520784337,47,4,-27,-12,-4,-8,-3,-5
1523209520784337,-10,6,-54,0,-3,-4,-13,14
1523209520786343,-4,-3,68,5,-1,-3,-16,20
1523209520786343,-10,5,-33,-1,1,5,-18,-28
1523209520798374,-18,-7,-6,-11,-2,5,12,-31
1523209520798374,47,4,-21,-5,-1,-4,-33,37
1523209520805392,-90,2,-55,1,1,1,11,12
1523209520805392,25,-14,-79,-1,-5,-4,-1,-12
1523209520822655,41,2,34,-12,-1,3,19,23
1523209520822655,-55,-26,30,1,-1,-1,18,-7
1523209520823441,11,-3,20,8,-1,-5,1,10
1523209520823441,-4,5,-8,-6,-2,-3,-4,1
1523209520844503,-9,-15,-23,4,1,2,-21,-27
1523209520844503,13,9,12,-1,-1,-1,8,28
1523209520846503,-3,4,22,8,2,0,-12,-10
1523209520846503,30,-15,-8,-10,-3,0,11,5
1523209520858768,-25,1,28,6,-1,4,5,22
1523209520858768,0,8,11,1,-2,-2,1,-7
1523209520867592,45,-1,-12,-14,-4,-3,2,-14
1523209520867592,53,7,-13,0,2,0,-28,53
1523209520881596,-106,-1,76,-7,-1,-1,15,-29
1523209520881596,7,-10,-73,-1,1,4,-29,12
1523209520883601,17,10,7,14,3,5,37,-38
1523209520883601,33,1,13,-8,0,-2,-57,25
1523209520904656,54,-17,-5,-13,-2,0,127,0
1523209520904656,13,16,30,27,4,7,1,11
1523209520905659,9,-3,-26,-11,-3,-7,-52,3
1523209520905659,-20,-12,-57,-5,-4,-4,17,7
1523209520918830,-4,3,14,6,2,4,-45,9
1523209520918830,6,-7,-9,-6,0,-4,-1,-26
1523209520926717,-33,2,-6,-7,-5,5,17,-39
1523209520926717,27,9,57,5,-3,-6,-11,-16
1523209520941756,-5,5,-29,-1,1,-7,35,16
1523209520941756,-58,-21,40,-5,-6,-3,-25,10
1523209520943763,3,-14,-86,5,0,-1,16,9
1523209520943763,-77,-14,53,5,0,1,13,-22
1523209520964817,37,4,-6,2,0,4,46,-16
1523209520964817,24,14,-1,-3,0,-2,-43,16
1523209520965820,-28,7,39,10,0,-1,11,-27
1523209520965820,4,11,-32,-17,-4,-1,1,8
1523209520977903,-9,-25,21,31,2,-3,-18,-4
1523209520977903,-25,-6,-36,-10,-2,-1,-4,-17
1523209520986876,79,0,7,-8,-4,-3,11,61
1523209520986876,-51,7,12,-3,-3,-1,-13,-5
1523209521001917,-54,-12,-28,-4,-3,-1,-54,3
1523209521001917,0,-4,-48,-23,-4,0,86,-10
1523209521003921,6,0,28,12,-1,-2,-55,11
1523209521003921,24,7,6,2,-1,2,52,17
1523209521025181,32,2,32,-5,-3,-1,-29,-6
1523209521025181,66,12,85,-1,-4,-10,-56,16
1523209521025980,-15,-3,-30,-11,-1,2,4,-18
1523209521025980,3,-7,-57,-7,-4,-3,-3,5
1523209521038013,20,5,-4,3,0,3,-7,12
1523209521038013,13,0,4,3,2,2,-21,7
1523209521047035,-18,-8,26,-3,-3,-11,-26,-55
1523209521047035,109,15,35,1,4,6,-10,36
1523209521062076,-65,-6,-55,-3,-6,-5,-34,-48
1523209521062076,-1,-4,-11,13,-2,4,35,1
1523209521064080,-12,-1,24,-8,0,0,31,-16
1523209521064080,-15,-5,-15,-6,-3,0,2,2
1523209521084172,32,5,-4,-5,1,-8,-19,6
1523209521084172,-18,1,5,3,-1,5,-10,7
1523209521086138,1,-9,-24,-8,-5,2,102,31
1523209521086138,31,-6,-6,-4,2,-2,-16,-7
1523209521098170,-42,4,11,9,1,1,-48,-33
1523209521098170,40,7,39,-3,4,4,42,15
1523209521107195,-38,-1,-5,5,2,-4,-36,1
1523209521107195,-90,-12,1,-11,-6,-1,10,-58
1523209521122470,7,15,-34,0,-2,-4,2,-6
1523209521122470,-1,2,17,-10,2,1,-15,10
1523209521124308,38,14,19,16,-1,0,-25,3
1523209521124308,4,32,-65,4,2,0,-1,-11
1523209521144303,-35,16,-2,-7,-1,-2,-22,24
1523209521144303,-11,-9,-41,-4,-3,-6,81,-31
1523209521146299,25,7,59,-11,-3,2,-12,21
1523209521146299,-12,-4,-20,5,-3,-14,-19,-2
1523209521158566,50,-6,20,-1,-4,1,20,12
1523209521158566,18,10,-32,-3,-1,1,-13,26
1523209521167356,-17,-4,-17,-9,-4,-4,-39,7
1523209521167356,2,-12,78,12,2,6,34,20
1523209521182395,25,-20,-14,4,-2,-4,-20,13
1523209521182395,10,-9,26,-1,-4,-6,20,-38
1523209521183397,18,8,-44,-8,-2,-5,-58,15
1523209521183397,13,-4,29,-7,-3,-2,11,32
1523209521204455,38,3,0,-3,3,-4,-57,-9
1523209521204455,-23,4,-31,6,-2,6,16,-3
1523209521206460,-38,-44,18,-6,-2,-10,-24,-32
1523209521206460,-2,-4,-44,1,2,1,-6,-27
1523209521218492,-28,-8,38,0,-1,-2,3,-3
1523209521218492,-5,15,-26,-2,-1,0,-19,-39
1523209521227523,-3,29,-2,5,3,4,6,49
1523209521227523,-67,-10,-14,-7,-2,-2,-3,-33
1523209521242567,-7,2,5,-25,-1,2,12,3
1523209521242567,-43,5,-28,14,-6,-9,12,-10
1523209521243561,24,-2,20,4,0,2,-45,31
1523209521243561,-36,-5,11,21,0,4,32,-23
1523209521264613,12,15,4,-7,-2,-4,11,20
1523209521264613,-17,-17,21,-12,2,-3,-86,-16
1523209521266619,-7,15,16,4,0,5,23,0
1523209521266619,7,-9,21,15,-2,-2,-4,-10
1523209521286672,29,-13,-8,-13,-4,0,2,11
1523209521286672,74,-2,2,1,3,5,-38,-12
1523209521288677,-52,-11,17,-7,-2,-3,36,-11
1523209521288677,24,-14,-54,-7,1,-1,-48,4
1523209521301751,-11,4,-5,9,3,7,36,32
1523209521301751,44,-33,-5,-14,-7,-5,29,23
1523209521308798,11,5,4,4,3,1,-50,-15
1523209521308798,15,9,11,-5,-2,1,74,-13
1523209521325008,-84,4,-36,15,3,0,-16,-9
1523209521325008,54,4,-1,1,-2,0,9,32
1523209521325774,-25,7,-29,-16,-5,-5,-40,-27
1523209521325774,29,-30,51,-7,1,4,-19,-21
1523209521346831,13,1,-65,6,-1,-2,10,-76
1523209521346831,-102,6,75,-14,-1,-4,-7,-31
1523209521348837,34,-2,-63,12,1,3,-18,30
1523209521348837,16,15,46,0,-2,-7,-2,-24
1523209521361872,-8,-22,-69,-11,-2,0,-17,3
1523209521361872,-14,1,-48,2,3,-1,10,2
1523209521363877,-9,6,26,4,2,3,82,-13
1523209521363877,17,-3,-47,-16,-9,-8,-18,0
1523209521384931,50,9,55,9,0,-1,-16,34
1523209521384931,-104,-2,-82,-6,-3,0,-10,-20
1523209521385935,-21,-26,25,14,1,3,26,22
1523209521385935,-25,8,13,1,0,-3,-50,34
1523209521406991,-15,5,25,1,-3,0,112,-9
1523209521406991,-22,-2,9,-8,-2,-2,-67,-11
1523209521408997,10,12,39,2,-1,1,13,5
1523209521408997,-16,-5,-44,-3,-2,-6,-4,5
1523209521422030,19,6,44,-7,-1,-7,-28,-9
1523209521422030,20,9,9,0,-4,-1,13,27
1523209521428047,-2,-3,-33,9,4,-3,-1,-32
1523209521428047,-18,-25,-9,-15,-5,2,14,11
1523209521444099,8,23,2,-8,0,-2,-15,-79
1523209521444099,-23,-25,26,8,-5,-1,43,4
1523209521446096,25,-11,-34,0,-1,-3,-43,21
1523209521446096,62,17,35,4,3,-3,-78,45
1523209521467152,-31,1,-7,6,0,7,93,9
1523209521467152,17,-3,40,-4,-1,-2,-15,-1
1523209521469220,2,-6,28,-21,-3,-5,-26,-31
1523209521469220,6,14,-39,14,-2,4,33,16
1523209521481189,10,-6,44,-1,-4,-4,-17,-1
1523209521481189,-12,5,32,6,6,2,-15,19
1523209521488208,36,11,-6,-14,-7,-5,25,-29
1523209521488208,16,20,9,1,5,6,-1,-24
1523209521504249,-42,-3,6,-1,-2,-2,-27,23
1523209521504249,-17,8,-78,7,2,3,29,-11
1523209521506255,20,-8,-19,2,-2,-7,-16,47
1523209521506255,51,1,13,3,4,1,18,-40
1523209521527316,3,-10,-23,-3,-2,-2,-11,35
1523209521527316,28,5,20,0,1,0,-41,-11
1523209521528318,-22,-12,-20,-6,1,0,14,-4
1523209521528318,-24,-28,-31,-17,-4,0,88,7
1523209521541348,-16,-18,-16,11,2,-4,-59,0
1523209521541348,109,0,-34,-9,-1,-2,41,52
1523209521548366,-26,-3,21,-2,-1,6,5,-27
1523209521548366,-81,1,15,-1,1,-4,-5,2
1523209521564411,26,4,19,-11,-1,2,-9,0
1523209521564411,19,0,49,15,-1,-3,-29,0
1523209521566416,-58,2,-5,6,-1,-3,14,-10
1523209521566416,56,-28,-20,-9,-3,2,-13,-6
1523209521587509,-96,-18,-44,-5,-1,-3,-15,5
1523209521587509,-1,6,28,3,-2,2,25,-30
1523209521588473,15,6,5,-1,0,-4,-20,-24
1523209521588473,-4,18,10,11,-1,-2,-10,6
1523209521600506,54,2,-6,7,-2,-3,15,1
1523209521600506,-45,-5,-20,-4,2,0,-8,-8
1523209521609529,11,-14,-8,-8,-6,-9,-94,24
1523209521609529,6,5,-71,-3,0,9,70,17
1523209521624802,-7,-17,0,-8,0,-4,-33,-38
1523209521624802,-3,12,43,7,-3,-2,-11,-21
1523209521626574,39,-9,4,0,1,2,-21,4
1523209521626574,-45,-8,-19,-5,-1,-7,-41,52
1523209521646629,22,12,5,14,3,7,69,-24
1523209521646629,0,0,20,-2,-3,-3,-25,-23
1523209521648633,0,-3,-43,-6,-5,-4,24,-15
1523209521648633,15,43,5,6,-1,-3,-51,-6
1523209521661674,-19,-14,-19,-5,1,7,118,11
1523209521661674,-8,-6,-28,-6,-2,-6,-39,-2
1523209521668804,29,12,33,7,1,0,19,12
1523209521668804,-87,-29,-39,-17,-4,0,-14,-44
1523209521684730,-10,3,26,20,-4,-10,-68,-6
1523209521684730,24,-3,-4,-6,2,2,19,-6
1523209521685735,6,12,16,-1,3,4,29,22
1523209521685735,17,8,42,1,-2,-3,7,-55
1523209521707021,-77,-9,38,-19,-6,-4,-30,38
1523209521707021,-34,-14,-17,-2,-7,-4,14,14
1523209521708793,10,6,-16,1,0,0,0,2
1523209521708793,11,-12,7,-9,2,3,-7,6
1523209521721964,61,9,15,13,0,-1,-50,20
1523209521721964,-53,-1,41,6,-1,-4,42,-33
1523209521727846,0,-1,-17,-8,-4,-2,110,-9
1523209521727846,10,6,25,-5,-4,1,-30,38
1523209521744891,-13,10,-10,-1,3,-2,19,-39
1523209521744891,32,-25,-38,-9,-1,2,-28,21
1523209521745892,-5,5,-32,6,0,0,-20,-2
1523209521745892,18,-21,64,6,3,5,31,-19
1523209521766949,25,-6,-18,-11,-3,0,-16,10
1523209521766949,76,-8,-22,3,3,0,1,25
1523209521768953,-23,-25,31,0,1,5,31,-11
1523209521768953,20,9,23,10,1,-3,-63,26
1523209521780986,3,12,-31,-24,-4,-4,90,-1
1523209521780986,-13,6,51,8,-6,-5,-31,-4
1523209521790009,24,4,6,-4,-2,4,-45,8
1523209521790009,-3,0,-23,6,-2,-4,33,17
1523209521804049,31,9,48,1,-1,-1,-12,2
1523209521804049,-35,21,-25,-9,1,-1,-8,29
1523209521806052,-23,-7,-44,-10,-3,-1,4,-20
1523209521806052,57,16,11,5,-2,-6,-5,-24
1523209521827111,-55,-3,12,9,0,0,-33,-17
1523209521827111,49,-9,-1,-11,-1,3,43,19
1523209521829115,-32,7,39,5,-1,-3,-43,12
1523209521829115,5,-7,-33,-6,-4,-5,4,1
1523209521841145,93,-11,1,-1,-2,1,-33,13
1523209521841145,-30,6,2,2,-1,-4,-15,-34
1523209521850168,33,19,19,6,1,-3,-14,-55
1523209521850168,-56,-23,8,-4,-2,5,-12,3
1523209521864207,25,6,50,-3,-2,2,16,1
1523209521864207,-11,0,-14,4,-4,-8,-35,33
1523209521866211,-24,-29,-14,4,0,-4,-14,-42
1523209521866211,-89,8,-31,-1,0,5,-16,-5
1523209521887268,23,-6,-21,3,2,-3,-17,38
1523209521887268,20,-4,30,-11,1,6,20,-18
1523209521888437,-15,-11,-23,-4,0,4,-18,11
1523209521888437,-67,10,37,9,-2,-5,-20,-71
1523209521909326,-36,-7,-40,-3,-4,-3,-23,-9
1523209521909326,-3,-7,-10,0,-1,-2,9,18
1523209521911335,10,8,-23,-2,-1,0,9,29
1523209521911335,68,4,12,-4,2,-2,0,6
1523209521924604,19,7,6,1,3,-4,-23,-6
1523209521924604,-64,13,54,10,0,-1,9,-21
1523209521926371,23,-1,-72,-13,-2,5,7,15
1523209521926371,-13,5,-2,2,-1,-13,-20,55
1523209521947427,-30,0,-18,9,0,0,10,-19
1523209521947427,77,-10,-23,-2,0,6,27,37
1523209521948430,-34,-16,33,-2,-1,-5,-1,-8
1523209521948430,23,8,-18,-11,-1,0,20,37
1523209521960468,30,-5,-25,10,4,6,-17,50
1523209521960468,-40,-7,-11,-9,-2,-7,-20,-15
1523209521969524,30,0,4,-16,-6,-3,19,10
1523209521969524,28,-4,-6,14,-1,-3,-29,-12
1523209521984526,-7,10,14,-11,-1,0,8,4
1523209521984526,-5,-2,-33,2,4,11,14,-10
1523209521986531,-67,2,31,-3,0,-12,-45,-17
1523209521986531,-3,-3,9,-8,-1,-2,-17,-1
1523209522007629,39,-5,-7,2,0,1,38,-5
1523209522007629,-32,-6,0,1,-4,-4,50,-55
1523209522008590,-11,16,51,7,-4,-3,-16,20
1523209522008590,-4,-10,-67,-14,-5,-5,-36,-26
1523209522020857,-16,0,46,4,-3,0,106,-6
1523209522020857,39,-17,24,11,-1,-4,-68,21
1523209522029650,4,13,-30,-21,2,3,25,20
1523209522029650,25,1,32,12,-3,-1,21,-22
1523209522044685,-13,-27,-84,-41,-13,-6,-30,-7
1523209522044685,3,18,-5,28,0,-3,-14,38
1523209522045690,15,-2,16,27,2,1,1,-9
1523209522045690,-65,-9,-13,-22,-2,2,19,-1
1523209522066746,-12,4,14,1,3,2,-23,-6
1523209522066746,35,21,64,-13,-3,-6,12,27
1523209522068749,-94,-15,-19,1,-1,-3,-68,-74
1523209522068749,76,17,50,7,-1,1,39,12
1523209522080782,16,10,-27,10,-3,-1,-3,4
1523209522080782,-52,-5,53,-22,-3,-2,-11,-17
1523209522089805,87,16,16,19,1,0,-16,4
1523209522089805,-42,-15,-9,-20,0,0,-15,-39
1523209522104885,41,15,67,-6,-3,-7,-19,-2
1523209522104885,49,3,-84,7,1,-1,-43,-10
1523209522105848,-13,-20,-31,-9,-4,2,67,-3
1523209522105848,28,8,-1,6,0,3,5,7
1523209522126912,0,6,6,10,5,0,-23,22
1523209522126912,17,3,-27,-22,-3,-1,-72,1
1523209522128911,1,6,22,-3,-6,-1,86,-64
1523209522128911,-16,-10,-1,11,0,-3,51,24
1523209522140941,21,11,-12,2,1,6,-9,-6
1523209522140941,-22,-15,-35,-3,2,1,-1,4
1523209522149965,-6,-4,115,-6,-5,-3,-22,12
1523209522149965,11,15,-15,-1,0,-7,-10,36
1523209522164004,56,-2,-7,11,-1,-3,-8,-25
1523209522164004,-48,-1,-9,1,0,4,65,-5
1523209522166009,37,7,17,-5,2,0,-20,33
1523209522166009,15,12,-24,1,-1,5,17,10
1523209522187064,-102,3,-19,-4,-2,-6,-20,-54
1523209522187064,22,2,28,13,3,6,33,-11
1523209522189069,34,13,-60,-25,-2,-2,-30,44
1523209522189069,-48,-18,-24,2,1,4,65,-31
1523209522209132,-23,-1,76,-9,0,2,-4,40
1523209522209132,-1,11,67,9,-5,-5,-5,-79
1523209522211130,-23,-5,-63,-2,-3,-8,-19,12
1523209522211130,-7,1,33,4,-1,1,-4,-18
1523209522224395,-54,0,0,-6,1,-3,-37,5
1523209522224395,56,1,-7,-3,-5,-2,32,-35
1523209522226169,-94,-35,-12,0,-1,1,-13,31
1523209522226169,43,-10,-31,-7,-2,-4,-27,-20
1523209522247224,24,3,25,6,1,2,19,8
1523209522247224,17,-4,-76,-19,-3,-2,-24,50
1523209522248227,13,5,-21,5,-3,-10,-91,-16
1523209522248227,22,-2,-13,-3,1,13,95,2
1523209522269333,-33,-12,-78,-8,-6,-4,-43,-15
1523209522269333,-25,-12,-16,-4,-2,-2,-12,4
1523209522269333,14,-6,-14,2,2,-3,13,41
1523209522269333,-31,-24,12,-8,-3,-6,-42,21
1523209522284325,9,-11,59,12,2,0,-4,-2
1523209522284325,-43,-12,-27,-2,-3,-5,15,2
1523209522284325,16,7,17,3,3,4,43,-4
1523209522284325,-13,8,18,0,-3,0,-44,-11
1523209522306615,-37,-16,-38,0,-3,-3,6,28
1523209522306615,-30,3,10,-1,-1,-2,-19,-62
1523209522307615,-30,-6,33,-8,-5,-11,-69,22
1523209522307615,-2,-2,34,12,2,9,21,-9
1523209522328483,52,7,-55,2,-1,2,-39,-5
1523209522328483,-11,14,68,9,0,-5,-10,21
1523209522329443,67,-17,-43,1,3,7,22,-16
1523209522329443,9,3,-6,-2,0,-4,-17,-6
1523209522343486,-3,-1,15,-5,-4,-1,-24,19
1523209522343486,-29,2,-58,-5,-2,-2,30,-9
1523209522344483,-4,3,-10,2,0,2,64,3
1523209522344483,52,12,42,-2,1,-1,-31,7
1523209522366541,91,29,12,-2,0,-3,22,20
1523209522366541,-29,-15,-23,-7,-2,-2,-21,44
1523209522366541,-4,11,8,2,-2,0,79,2
1523209522366541,1,-3,-8,-7,0,2,3,0
1523209522388832,13,8,19,7,1,-2,-21,4
1523209522388832,-4,7,36,-7,-1,2,6,3
1523209522389602,4,-6,32,3,0,-6,-50,-24
1523209522389602,0,2,-25,1,-1,2,22,24
1523209522402639,-125,-15,10,5,0,-10,24,1
1523209522402639,52,7,-10,3,3,2,-29,-9
1523209522411661,-66,-6,3,2,1,6,11,-15
1523209522411661,-1,-25,-17,-5,-3,-5,-18,13
1523209522426709,-63,-5,-18,-4,0,0,-33,-54
1523209522426709,43,13,-17,3,1,4,3,7
1523209522426709,25,1,-60,-6,-2,6,99,14
1523209522426709,-31,10,18,9,3,-1,-50,-24
1523209522448759,25,-2,-18,-10,-2,2,18,-18
1523209522448759,7,-18,6,0,-1,-1,-19,-15
1523209522449763,12,-2,36,-3,-2,-5,-42,-14
1523209522449763,15,1,8,-3,-6,-7,-1,38
1523209522463800,4,1,2,5,0,0,-8,-73
1523209522463800,2,7,15,7,4,6,23,9
1523209522464802,8,3,18,9,0,-1,-11,-9
1523209522464802,-3,-6,-35,-14,-4,-5,6,32
1523209522485858,-10,-9,5,-13,-4,-2,1,-12
1523209522485858,26,-9,-27,-2,-4,-6,-54,-12
1523209522486861,23,0,9,5,2,7,-58,39
1523209522486861,-3,10,29,12,-1,-3,5,7
1523209522508926,0,-9,-46,-12,-3,-3,37,-35
1523209522508926,15,-9,53,4,1,-3,-41,18
1523209522509925,69,-5,13,11,3,4,17,-3
1523209522509925,0,-9,22,1,-2,-4,-19,-8
1523209522524194,57,10,-45,-3,0,4,0,36
1523209522524194,-63,-4,-10,-12,-3,-8,19,14
1523209522524963,-51,-25,41,13,-4,-4,-11,-37
1523209522524963,18,3,-21,-14,-2,-5,-57,-8
1523209522546017,40,10,28,0,-1,9,31,8
1523209522546017,14,6,8,13,1,2,10,65
1523209522547020,29,14,-65,-21,-7,-7,-14,-10
1523209522547020,-21,-3,44,5,2,3,14,-24
1523209522569311,-8,-9,-29,-3,-3,-4,-14,11
1523209522569311,-6,-5,-31,-1,-4,-3,-37,3
1523209522570081,-23,7,29,0,1,8,61,3
1523209522570081,51,4,34,5,-2,-6,-2,-4
1523209522584119,14,-7,8,-8,-5,-6,-14,39
1523209522584119,-61,-16,-34,2,2,9,58,-20
1523209522585121,-25,-1,-25,-13,-5,-10,-27,16
1523209522585121,-5,-1,-32,-2,1,5,16,1
1523209522606178,-24,0,73,7,-1,-5,-64,-4
1523209522606178,0,-6,-43,-11,-1,6,76,-45
1523209522607180,10,1,-2,12,1,3,-18,14
1523209522607180,-48,5,-14,-24,-6,-10,4,-10
1523209522629238,-15,-21,4,4,7,6,-39,-24
1523209522629238,-3,23,29,11,4,-3,22,1
1523209522629238,-11,-8,8,-13,0,-1,-40,1
1523209522629238,17,14,-42,2,1,6,48,0
1523209522644279,25,17,10,4,2,-6,-1,-35
1523209522644279,-59,-13,-21,-16,-6,-1,29,-1
1523209522644279,5,2,32,8,1,-4,-10,-10
1523209522644279,-19,-8,-35,7,-2,-2,-15,24
1523209522666376,22,7,25,3,1,-1,30,33
1523209522666376,45,3,7,-4,-6,-10,-35,-37
1523209522667340,86,22,5,0,2,7,-1,-5
1523209522667340,-34,-21,-34,0,-1,-2,-6,32
1523209522689437,-11,-5,-57,-8,-5,-9,8,26
1523209522689437,4,-3,13,7,-1,-3,-94,-21
1523209522689437,1,7,9,5,1,8,44,17
1523209522689437,38,6,12,0,-2,-2,23,-25
1523209522703436,-13,-8,-22,-1,0,0,-1,17
1523209522703436,-13,0,7,0,-2,-5,1,20
1523209522711458,38,-18,-1,-2,0,-5,-23,-9
1523209522711458,-57,-1,49,6,0,-1,-28,-30
1523209522726500,26,5,-29,-25,-3,4,-36,-22
1523209522726500,28,-2,22,8,2,4,97,4
1523209522727509,-107,24,50,-14,-3,-8,-20,33
1523209522727509,15,-17,-49,-1,-2,2,10,35
1523209522748556,-38,13,102,10,3,1,17,-47
1523209522748556,13,-3,-15,-11,-1,4,-25,4
1523209522749560,45,-9,11,3,-1,-4,-17,-13
1523209522749560,-3,17,11,-4,1,-6,-87,-3
1523209522763776,-43,-17,-43,5,-2,4,63,10
1523209522763776,2,0,37,13,0,-1,-20,23
1523209522771850,66,-5,-14,-17,-6,-6,-38,-16
1523209522771850,66,1,41,4,3,6,3,-34
1523209522786659,4,-24,-23,-3,-8,-6,0,73
1523209522786659,-9,8,39,7,1,0,-5,-22
1523209522786659,-25,-2,-38,-15,-1,3,10,2
1523209522786659,-15,-13,38,9,4,2,8,-23
1523209522808715,78,9,-42,-4,-7,-9,-9,-15
1523209522808715,-50,-12,34,-7,-1,4,12,18
1523209522809719,-32,5,-110,5,-5,-4,22,-20
1523209522809719,-30,1,8,-20,2,6,25,-11
1523209522823793,14,11,67,23,3,2,-11,-10
1523209522823793,7,-5,-40,10,2,-4,-11,-2
1523209522831780,-7,22,-26,-4,4,0,-12,-2
1523209522831780,-16,6,14,1,0,-1,3,0
1523209522845815,-36,-9,-34,-5,-1,1,32,17
1523209522845815,37,-1,-85,-8,-1,7,-48,-6
1523209522846816,-22,-9,44,21,5,0,-4,12
1523209522846816,24,6,18,5,-4,-6,-38,-9
1523209522869110,-68,-5,-42,-22,-4,-5,-22,22
1523209522869110,-5,3,32,8,4,9,86,9
1523209522869878,25,-24,46,-1,-4,-4,3,-14
1523209522869878,-17,-9,-39,-5,-5,-6,-55,-57
1523209522882914,23,0,42,13,-1,4,20,-21
1523209522882914,-9,-2,-25,-7,1,-5,-2,11
1523209522891941,-20,-13,9,-16,-3,1,8,-5
1523209522891941,28,7,24,10,-2,0,2,36
1523209522905975,20,-2,37,-6,2,3,5,5
1523209522905975,-61,3,-29,0,-3,-9,-70,-18
1523209522906977,-5,-2,-8,7,-3,3,69,-4
1523209522906977,0,-9,-24,-11,-5,-5,14,6
1523209522929035,24,3,2,3,6,0,13,4
1523209522929035,-34,-3,42,-17,-7,-6,-71,-34
1523209522930041,10,-21,-9,6,-2,-2,-26,-5
1523209522930041,-11,-2,-22,8,-1,-1,60,27
1523209522952097,-36,4,46,-1,3,8,6,-6
1523209522952097,28,-7,-68,-17,-7,-9,-6,-21
1523209522953100,-76,-3,7,-10,-3,0,12,10
1523209522953100,-12,1,22,10,1,1,7,-31
1523209522974411,29,-7,-68,-3,-2,-3,-27,-2
1523209522974411,30,10,28,10,2,1,27,36
1523209522975159,17,-12,-13,2,1,0,-23,-14
1523209522975159,4,1,4,-10,-3,-3,-30,-9
1523209522989422,12,-2,8,3,-4,-3,42,-8
1523209522989422,-54,-12,-40,-21,-4,-2,-72,9
1523209522989422,8,2,5,14,-2,-3,95,-8
1523209522989422,-55,-11,16,-3,1,2,35,35
1523209523003233,19,10,-17,-1,-4,-6,18,8
1523209523003233,41,-5,-35,-6,0,-2,-14,-40
1523209523011254,-8,4,56,-3,-1,-1,-39,20
1523209523011254,24,8,-109,-12,-5,-3,14,0
1523209523026300,-85,-13,-7,-4,-5,0,-18,6
1523209523026300,38,-8,-23,1,-4,-2,49,15
1523209523027301,-26,28,0,2,-1,-4,-31,2
1523209523027301,2,-5,33,2,1,-1,-6,-7
1523209523048353,16,-19,37,18,5,2,-45,8
1523209523048353,22,12,-39,-14,-3,-3,17,-18
1523209523049354,28,-5,-49,-14,1,4,81,1
1523209523049354,-41,11,30,1,0,1,-15,0
1523209523063630,-54,-1,3,0,3,4,-27,-14
1523209523063630,-2,1,55,12,0,2,-5,12
1523209523071648,-20,1,4,6,1,2,-18,1
1523209523071648,18,7,-23,-6,0,1,-6,-4
1523209523086456,9,-4,63,3,0,-4,21,16
1523209523086456,-1,-1,-8,-3,1,2,28,-8
1523209523087457,54,6,-13,-4,-1,-2,-20,-11
1523209523087457,57,7,1,-2,-3,0,-5,31
1523209523108516,15,15,21,-5,-3,-4,-22,1
1523209523108516,10,-6,39,15,3,2,11,20
1523209523109518,-33,-1,-11,-14,-7,-4,-67,-4
1523209523109518,-27,-8,-44,6,3,1,66,-12
1523209523123750,2,-7,-4,-17,-3,1,-34,-35
1523209523123750,6,-7,43,3,-1,-2,27,12
1523209523131575,4,-2,0,15,3,0,-28,-18
1523209523131575,12,12,-4,-20,-2,-9,-24,0
1523209523146613,-18,-8,-91,3,1,4,5,-4
1523209523146613,-8,12,8,6,-1,-5,-10,-8
1523209523146613,-20,0,35,6,3,-3,-11,-28
1523209523146613,-41,-5,46,6,1,4,-15,-14
1523209523168904,52,-2,-8,-13,-4,-3,22,8
1523209523168904,-11,7,-18,-6,-4,-4,-50,-3
1523209523169674,30,-4,-58,2,-2,1,66,3
1523209523169674,-32,-5,61,-4,-3,-5,-37,17
1523209523191734,-5,8,-43,1,-2,3,112,-18
1523209523191734,25,1,35,8,0,-6,-40,15
1523209523192738,47,10,7,-3,1,1,-1,1
1523209523192738,-6,-11,-29,-9,-7,-1,-8,21
1523209523206773,-9,31,45,12,2,-4,-46,-55
1523209523206773,39,3,24,-1,3,8,20,10
1523209523206773,-66,-2,-25,-9,-5,-8,-3,-8
1523209523206773,59,-5,-44,-14,-1,4,2,-2
1523209523228832,-39,-10,-1,5,-5,-9,-29,-2
1523209523228832,30,-8,5,-4,1,2,15,4
1523209523229836,-29,9,52,25,11,8,11,14
1523209523229836,-6,-3,-28,5,-3,0,1,-12
1523209523251894,-11,-2,-39,-10,-6,-8,-97,-5
1523209523251894,25,9,16,2,1,5,41,12
1523209523252896,-46,-33,-3,1,-4,0,-28,-2
1523209523252896,31,-1,4,16,5,0,9,5
1523209523266170,28,-4,8,-17,-4,-1,-22,10
1523209523266170,-42,-8,10,4,2,1,-1,14
1523209523266934,49,4,39,-2,-3,-5,-25,-70
1523209523266934,-43,0,0,2,1,-2,-17,19
1523209523289224,68,-3,-11,2,2,7,23,47
1523209523289224,-10,-2,9,1,0,-1,-6,-50
1523209523289994,-35,0,-13,0,-4,-1,14,38
1523209523289994,23,-3,-25,-18,1,1,5,-10
1523209523312053,-19,-5,17,14,1,-3,-8,20
1523209523312053,0,-11,-104,-26,-4,-1,-1,-3
1523209523313057,4,9,-3,15,1,-1,60,11
1523209523313057,-22,1,42,7,2,-1,-87,-12
1523209523326136,17,-11,-22,-16,-8,-1,36,-11
1523209523326136,-23,-10,-14,3,3,8,-6,32
1523209523327094,-19,14,-18,-18,-8,-6,-4,-24
1523209523327094,-63,-7,19,12,-2,-8,-2,2
1523209523349154,35,2,2,0,3,-1,17,10
1523209523349154,58,4,32,1,-1,-2,0,-5
1523209523349154,-79,-9,-22,-11,-3,-6,-45,43
1523209523349154,32,-12,7,5,-4,-2,25,-55
1523209523372399,-26,2,29,10,3,3,45,-18
1523209523372399,3,5,-7,-15,-10,-12,-14,11
1523209523372399,25,-7,-5,4,4,3,-19,15
1523209523372399,19,15,-36,-11,-7,-2,41,3
1523209523386251,20,-3,10,2,1,1,-23,5
1523209523386251,-19,-4,-53,3,3,-1,4,7
1523209523387253,79,12,25,-15,-5,-3,-87,-4
1523209523387253,-14,-25,14,15,3,7,50,6
1523209523417332,-7,-1,-40,1,3,1,18,-9
1523209523417332,21,11,-9,-2,-6,-6,-8,0
1523209523418412,6,3,9,1,0,1,-47,61
1523209523418412,9,-3,-4,-1,0,-1,2,-59
1523209523432372,-38,-4,-17,-3,-2,-11,-42,3
1523209523432372,-24,-13,44,3,0,11,54,-24
1523209523432372,-3,-11,-19,-3,1,-2,13,40
1523209523432372,77,15,14,1,-3,-4,-18,13
1523209523446410,-53,6,57,4,3,10,36,2
1523209523446410,35,8,33,10,-2,-8,-44,4
1523209523447416,8,-10,12,-20,-3,-6,-49,-19
1523209523447416,17,1,38,19,2,4,18,19
1523209523469495,5,-4,20,-1,-1,-1,-36,-35
1523209523469495,38,9,12,-1,-3,-7,24,17
1523209523469495,-18,4,9,10,5,1,-7,3
1523209523469495,-20,5,-57,-12,0,-2,-12,-23
1523209523492534,2,-1,23,0,-4,0,20,28
1523209523492534,48,25,21,5,3,4,-14,6
1523209523492534,-9,-1,-57,-10,-4,4,19,-9
1523209523492534,-22,-6,28,9,3,3,1,-18
1523209523506805,36,6,23,4,1,1,22,-1
1523209523506805,-10,-6,-13,-6,-1,-4,-12,10
1523209523507576,-74,-10,29,6,-2,0,-4,-34
1523209523507576,2,1,-36,-5,0,-1,-58,26
1523209523528630,41,-10,17,-4,-1,4,-21,27
1523209523528630,-128,-13,10,7,3,-7,-60,-46
1523209523529631,66,-5,-27,-1,4,6,82,38
1523209523529631,-9,-29,0,2,-4,-1,14,-8
1523209523551693,-17,-12,-69,-33,-14,-16,-7,-52
1523209523551693,-11,-6,11,9,2,0,-16,-11
1523209523552693,-27,13,22,-5,-4,-3,-26,-29
1523209523552693,-44,-3,-13,-2,0,-8,24,42
1523209523566733,9,2,12,16,0,-3,-27,19
1523209523566733,-19,3,18,-17,-3,2,14,-4
1523209523566733,43,-3,-7,20,3,2,97,-21
1523209523566733,23,9,31,6,1,-2,0,6
1523209523589024,18,-2,-36,-12,-6,-6,-21,-20
1523209523589024,-26,0,22,11,-5,0,9,-11
1523209523589790,27,2,12,-10,-2,0,-23,-6
1523209523589790,-12,-9,-49,-18,-7,-13,-42,-72
1523209523611851,-1,14,27,17,9,11,80,21
1523209523611851,-46,-14,-18,-13,-5,-7,-46,12
1523209523612856,9,14,11,10,4,3,33,-20
1523209523612856,90,14,-24,-7,-2,1,9,49
1523209523625893,-128,-19,43,5,-5,-4,-45,-22
1523209523625893,49,3,-88,-35,-3,2,100,14
1523209523626891,15,-1,-33,5,-4,-4,-2,27
1523209523626891,-53,3,21,2,-3,-2,-40,-10
1523209523648948,5,2,20,22,12,11,38,-5
1523209523648948,57,21,7,-16,-3,0,-2,68
1523209523649952,-27,-7,0,-4,-3,-3,-46,-65
1523209523649952,-12,-24,33,-3,-1,3,23,-51
1523209523672242,22,12,-21,-4,-3,-4,-38,-3
1523209523672242,-46,-15,45,19,2,-3,15,-38
1523209523673012,-22,1,-83,-10,1,0,-19,6
1523209523673012,67,-4,6,-9,-4,0,-25,27
1523209523686047,-6,10,62,8,1,-2,57,-18
1523209523686047,-5,-28,-82,-4,-2,1,15,-6
1523209523694070,30,5,5,-9,-4,-5,-67,4
1523209523694070,-37,4,-61,-1,4,8,80,29
1523209523709117,-9,-15,-11,-12,-3,-4,-16,8
1523209523709117,98,17,26,12,-4,-5,-58,70
1523209523709117,-90,-6,21,5,5,4,65,-17
1523209523709117,57,3,20,16,0,-1,-28,14
1523209523732171,60,6,-32,-23,2,2,-14,4
1523209523732171,-70,-18,-7,6,-4,0,9,-13
1523209523733173,70,-3,42,16,1,2,4,39
1523209523733173,11,11,-2,-10,-3,0,7,-13
1523209523745205,7,7,-23,7,2,1,8,25
1523209523745205,2,15,25,4,2,0,-13,3
1523209523754229,-18,-19,15,-12,-6,-6,-5,-35
1523209523754229,0,7,1,9,2,-4,8,-13
1523209523769428,-12,1,-4,-14,-6,-4,-23,-8
1523209523769428,-21,-28,-54,5,3,1,7,-10
1523209523769428,-59,21,-20,-11,-4,-3,-19,-6
1523209523769428,-48,2,37,14,5,-2,4,11
1523209523792330,-22,-3,-4,-2,-3,-6,49,-1
1523209523792330,26,15,38,-14,-1,4,-25,-16
1523209523792330,-8,-13,-9,7,0,-5,2,-9
1523209523792330,-28,-7,-20,-9,-3,-5,-23,-56
1523209523805599,-1,-4,5,-6,-3,-3,-22,12
1523209523805599,22,2,15,20,3,2,2,-28
1523209523813388,-11,-30,3,-17,-4,0,-16,21
1523209523813388,-12,16,-16,-2,-1,-1,17,18
1523209523828424,2,2,28,9,4,0,-6,-2
1523209523828424,10,1,58,-13,-2,-2,-16,-27
1523209523829427,24,6,7,4,2,3,0,-7
1523209523829427,2,-1,35,-16,-7,-5,6,9
1523209523851487,10,-4,-29,9,2,-3,4,-5
1523209523851487,-38,13,39,11,1,1,0,4
1523209523852489,27,10,-44,-11,-2,-6,-56,8
1523209523852489,-89,4,7,4,1,0,53,7
1523209523865760,22,0,6,-6,-4,-2,-93,0
1523209523865760,-75,-7,-47,-7,-1,2,55,-10
1523209523873669,45,11,64,14,0,-1,-9,23
1523209523873669,64,0,-56,-4,-1,-1,-16,24
1523209523888818,-89,-7,-13,-1,-3,1,-40,-2
1523209523888818,-5,8,73,5,3,-1,9,47
1523209523889588,-13,0,-42,-22,-1,5,44,3
1523209523889588,35,13,20,11,-4,-8,-24,1
1523209523911648,10,-9,66,-7,-3,-1,35,-8
1523209523911648,56,10,-10,9,1,-4,-39,-32
1523209523912649,-27,-20,25,5,1,9,73,20
1523209523912649,-78,-8,19,-7,0,-4,-84,24
1523209523925732,70,-3,-16,2,2,5,59,-25
1523209523925732,-22,-13,-16,-1,-1,-5,-95,-13
1523209523933706,-5,9,4,1,-1,-2,9,26
1523209523933706,-16,-16,1,-11,-3,4,21,-2
1523209523948784,17,4,4,8,-2,-3,-6,-1
1523209523948784,-37,-14,-75,-21,-6,0,-2,-13
1523209523949756,29,7,-13,5,3,-2,-2,-21
1523209523949756,30,0,-21,4,-1,0,2,13
1523209523971806,-100,-13,-8,5,2,3,0,3
1523209523971806,20,9,-15,2,-2,-9,25,1
1523209523972808,-11,-16,-17,-8,-4,-2,-21,-30
1523209523972808,-23,4,11,7,0,3,8,-38
1523209523985843,7,-25,-36,-30,-8,-11,-4,16
1523209523985843,9,6,14,11,0,2,5,-33
1523209523993875,-20,-2,63,2,-3,-6,-7,-14
1523209523993875,66,-7,1,5,0,-9,-100,22
1523209524008914,63,52,-23,-4,-3,5,26,-6
1523209524008914,-20,-21,-20,-7,-3,2,32,19
1523209524009907,9,-5,28,4,-4,-5,-7,15
1523209524009907,7,-5,-25,-10,0,1,-4,0
1523209524031966,19,1,-3,1,-1,-5,-19,15
1523209524031966,0,-14,-26,-12,-1,0,-5,16
1523209524032971,72,9,0,-1,-10,-6,-8,25
1523209524032971,32,-1,11,-11,-4,-3,51,27
1523209524046044,-34,-9,9,5,2,3,-9,17
1523209524046044,-4,5,-2,12,1,-4,0,-31
1523209524054025,15,-4,-39,-11,-2,2,-45,24
1523209524054025,-49,-5,17,-4,1,8,35,-43
1523209524069064,-44,-5,-13,5,2,-6,-27,-44
1523209524069064,48,-4,25,-7,-3,-1,-33,15
1523209524069064,3,7,39,3,2,3,44,-9
1523209524069064,11,4,-6,2,-1,-5,-19,9
1523209524092128,24,1,-13,0,0,4,5,-16
1523209524092128,-52,12,-11,-2,1,4,15,-1
1523209524093130,4,8,6,5,1,-6,-20,-8
1523209524093130,-11,-19,38,-1,-3,1,21,-20
1523209524114236,38,6,12,8,-1,-3,-1,0
1523209524114236,38,15,-36,-1,-2,-4,30,16
1523209524115186,-40,12,3,2,0,-2,-24,3
1523209524115186,-86,4,34,2,3,7,-45,15
1523209524129224,-26,-9,-36,-2,-2,-2,-25,-47
1523209524129224,66,5,42,2,0,3,22,12
1523209524129224,-38,-1,8,11,4,0,-8,12
1523209524129224,-25,-6,-33,-6,-4,0,13,-33
1523209524152286,4,2,19,-3,3,1,-1,31
1523209524152286,-30,-19,-39,-5,-2,-2,-16,20
1523209524152286,-1,-5,9,10,2,4,13,-56
1523209524152286,103,6,-84,-6,-1,1,11,22
1523209524174350,-42,-12,25,-4,-3,1,15,20
1523209524174350,0,0,-33,-11,-8,-10,-28,-79
1523209524175356,18,-3,-4,-1,-1,-6,-74,20
1523209524175356,4,11,18,1,2,12,84,12
1523209524189452,-27,-13,9,3,-5,-5,-78,4
1523209524189452,-21,3,27,1,-2,-4,51,-11
1523209524189452,-69,-5,10,5,0,2,-13,-15
1523209524189452,-21,-4,11,2,-1,-1,-14,-19
1523209524212599,-3,-42,-10,-18,-5,-7,16,24
1523209524212599,-3,-1,-6,0,2,1,-13,17
1523209524212599,13,3,0,-7,-5,-2,19,-29
1523209524212599,72,-6,-32,1,-1,-7,-13,-2
1523209524234506,-49,8,-14,11,-2,-4,2,24
1523209524234506,18,-5,20,-7,2,2,-14,9
1523209524235507,110,6,38,3,-2,-4,-43,5
1523209524235507,-40,-3,-4,-5,3,7,32,12
1523209524248542,6,-2,7,-3,-6,-10,-28,20
1523209524248542,-41,-12,-20,-8,-1,0,8,-50
1523209524249545,-23,4,1,-1,-1,3,12,9
1523209524249545,-6,-11,13,-3,-6,-14,-72,-27
1523209524272643,92,8,-4,-7,-1,5,62,39
1523209524272643,-46,1,29,2,-1,-3,-21,-7
1523209524272643,-12,-10,-40,-11,-6,-1,27,3
1523209524272643,-24,1,19,-7,0,-1,-31,-1
1523209524294665,-2,6,20,9,-3,1,28,-37
1523209524294665,7,7,22,2,-4,-8,-21,20
1523209524295668,-13,0,-22,-11,-2,-3,-47,43
1523209524295668,71,4,-15,4,0,3,79,17
1523209524308707,-48,-1,7,-1,3,2,-4,-55
1523209524308707,-6,-2,70,-2,-2,1,-1,13
1523209524309709,-9,-1,-52,-3,-4,-7,21,9
1523209524309709,-69,-10,13,9,1,1,2,-9
1523209524331765,10,9,-8,5,4,0,-17,3
1523209524331765,9,-10,-17,-6,-4,-1,16,17
1523209524332769,24,-13,-16,5,5,10,51,-20
1523209524332769,-8,8,25,-5,-5,-7,-28,24
1523209524355059,-5,1,-40,-3,-2,-2,18,-40
1523209524355059,-16,-27,-15,6,4,5,-18,2
1523209524355059,34,-2,-20,-6,-1,0,11,12
1523209524355059,54,2,3,-2,0,-2,-1,-9
1523209524368863,-39,3,-38,1,-2,-3,-48,-10
1523209524368863,22,17,19,4,2,1,-2,20
1523209524369866,58,8,21,-1,-1,1,-29,-27
1523209524369866,-59,-7,7,-10,-2,1,-1,-33
1523209524391927,13,-11,-35,0,0,0,-30,14
1523209524391927,5,4,7,5,0,1,6,18
1523209524392926,-33,-2,-69,-3,-4,-3,21,-53
1523209524392926,-23,-18,-68,-27,-6,-4,-9,6
1523209524415096,-9,10,82,13,3,2,-8,21
1523209524415096,-15,1,2,-6,-3,-5,7,-6
1523209524415096,-118,-15,-10,9,-1,0,6,7
1523209524415096,93,22,24,12,0,-6,2,-22
1523209524429022,-26,-9,-21,-4,1,0,28,2
1523209524429022,106,23,1,2,0,-1,-6,-11
1523209524430027,-31,-15,7,-2,-2,-3,21,-2
1523209524430027,-3,19,60,7,5,5,-13,-15
1523209524452316,27,9,58,-14,-6,-1,-22,21
1523209524452316,-58,-4,0,12,2,2,111,-21
1523209524453084,53,-1,5,-4,-4,-9,-32,27
1523209524453084,-42,-14,4,-7,-5,-4,-5,7
1523209524474147,-78,-9,5,2,-1,-4,-1,-52
1523209524474147,28,-6,-23,-8,1,3,-25,25
1523209524475147,-6,-2,32,-3,0,0,5,-20
1523209524475147,2,7,14,22,4,-2,1,34
1523209524489416,57,-2,-17,-20,-5,-7,-29,-6
1523209524489416,-2,19,-13,3,1,6,28,46
1523209524489416,-26,-3,-12,-3,0,-3,-7,-15
1523209524489416,-7,-7,-56,-3,-1,-1,-20,-5
1523209524512475,88,16,0,4,4,4,26,44
1523209524512475,-39,1,7,-12,-6,-11,-33,-3
1523209524512475,39,6,-8,3,2,5,9,12
1523209524512475,-23,11,-9,-1,0,1,-3,-22
1523209524534301,-28,-12,-40,-4,0,0,17,4
1523209524534301,-62,-3,-13,0,-1,-1,-41,13
1523209524535303,54,13,83,0,1,7,81,-25
1523209524535303,15,11,-64,-5,-2,-2,-20,15
1523209524549446,-24,-6,24,6,1,1,-1,-10
1523209524549446,2,-8,2,1,2,5,18,-10
1523209524549446,11,11,-9,-1,-4,-16,-51,22
1523209524549446,-26,-9,-4,-3,-1,0,28,-1
1523209524572597,9,-8,41,-3,-3,2,-1,-21
1523209524572597,-29,-15,-8,1,-2,0,3,18
1523209524572597,-89,-8,-16,-6,0,-8,-25,-42
1523209524572597,54,-5,49,6,-1,-3,4,11
1523209524594500,-46,-14,41,-4,0,-2,-19,-17
1523209524594500,24,9,-8,-1,2,0,-27,-35
1523209524595464,-21,-21,-52,2,-1,4,22,7
1523209524595464,-46,2,9,-2,1,0,-23,17
1523209524608500,-28,12,17,7,-1,0,31,-22
1523209524608500,76,-1,-10,-7,-5,-5,-27,2
1523209524609503,-9,-3,-30,-5,0,4,19,-3
1523209524609503,-10,-18,-21,-11,-5,-4,-15,-8
1523209524631598,101,14,-4,10,1,2,81,1
1523209524631598,-93,-12,-37,-4,2,2,12,-20
1523209524632562,6,10,37,2,-3,-6,-15,-12
1523209524632562,-24,-13,37,-1,-3,3,3,15
1523209524654621,-17,-9,-50,-6,0,-5,-32,-19
1523209524654621,38,3,-3,1,-3,-3,-26,-19
1523209524655624,-4,2,19,2,2,5,34,31
1523209524655624,-23,-5,-6,2,1,-6,-31,-15
1523209524668890,-10,3,14,-2,-5,-1,48,36
1523209524668890,6,-16,16,12,1,-4,-3,-22
1523209524669659,-40,-8,-8,-12,0,1,-25,14
1523209524669659,39,5,10,-10,-5,-1,22,1
1523209524691720,16,-12,-7,8,-1,-3,-41,5
1523209524691720,75,13,17,4,1,-2,-8,14
1523209524692722,-20,5,7,5,-3,-5,21,-26
1523209524692722,35,8,27,-3,2,3,12,21
1523209524714819,-76,-5,-3,-5,-5,-5,35,-37
1523209524714819,48,2,-25,1,-2,-5,-2,29
1523209524714819,34,13,50,3,-1,-3,-43,-18
1523209524714819,-46,-25,-56,-4,-2,2,14,6
1523209524727817,93,17,9,6,3,-3,-17,41
1523209524727817,-113,-20,-9,3,-2,1,-7,-13
1523209524736990,70,-8,1,-17,-3,5,6,31
1523209524736990,-39,0,24,8,0,-3,2,-4
1523209524751878,54,10,-46,0,1,1,-36,28
1523209524751878,-11,0,28,5,-4,1,-6,-8
1523209524752882,-6,-5,-22,1,0,0,1,-3
1523209524752882,4,3,34,1,0,2,-39,-16
1523209524774943,11,11,5,-6,0,4,18,0
1523209524774943,-23,10,-2,-12,-8,-9,39,34
1523209524774943,14,5,25,13,2,2,-18,9
1523209524774943,22,4,-53,-29,-6,-7,-63,-11
1523209524788211,-52,10,17,0,-1,3,14,0
1523209524788211,5,-18,27,-6,1,1,-34,9
1523209524795995,-11,-4,-23,6,2,0,39,5
1523209524795995,-30,14,28,6,-2,-5,2,6
1523209524812039,39,6,20,-5,3,4,-28,-4
1523209524812039,-46,5,17,2,-2,-2,-23,-25
1523209524813042,24,-7,-29,-3,1,-1,-37,4
1523209524813042,52,10,6,8,2,1,50,3
1523209524834097,-90,-18,-13,-6,2,7,-2,8
1523209524834097,29,-2,-4,-2,1,0,-10,-24
1523209524835100,-2,6,95,-2,-3,1,15,21
1523209524835100,-20,-5,-69,1,-4,-5,-12,-3
1523209524848137,-38,10,28,8,-1,-2,41,-45
1523209524848137,-33,-31,-67,-22,-8,0,-34,20
1523209524856194,-2,2,2,-2,1,-7,-23,24
1523209524856194,4,-8,9,-1,-4,1,36,5
1523209524872433,37,-1,-12,3,-3,-7,-17,22
1523209524872433,-37,-2,31,6,1,1,5,-14
1523209524873204,11,-12,-39,-7,-2,1,10,-5
1523209524873204,32,-17,15,12,1,-4,-27,-13
1523209524894257,5,-1,-43,-1,0,-6,-14,30
1523209524894257,63,1,-3,-2,0,4,-3,25
1523209524895260,-41,13,-20,-1,1,-3,21,15
1523209524895260,-43,-6,20,8,3,-4,11,-23
1523209524908298,31,-9,-22,-9,-10,-9,-100,-8
1523209524908298,-31,16,19,4,2,7,86,-32
1523209524916316,-12,-5,-30,5,-2,-2,-23,29
1523209524916316,-40,-12,49,5,2,1,-8,11
1523209524932360,9,-9,-33,-26,-7,3,6,-13
1523209524932360,-20,-12,-43,-2,-3,-16,-46,9
1523209524932360,82,12,41,4,-1,-1,-19,-28
1523209524932360,-41,9,-31,-16,-2,1,-5,11
1523209524954652,-5,-11,0,0,-2,0,-3,-1
1523209524954652,30,22,38,2,3,4,20,-28
1523209524955419,1,-4,6,-3,-1,0,18,-28
1523209524955419,68,4,3,6,-1,2,26,41
1523209524968456,-84,0,2,5,-1,-1,18,14
1523209524968456,42,9,0,-5,0,2,-20,19
1523209524976477,57,-1,-26,1,-3,-7,-31,-8
1523209524976477,14,-4,-4,4,0,3,12,-12
1523209524992518,28,2,44,-9,-2,-4,-20,-2
1523209524992518,-9,-4,-40,-8,-3,2,32,-9
1523209524992518,-75,-3,9,-1,0,-2,-26,-13
1523209524992518,-15,-12,-10,-1,0,1,5,-23
1523209525014578,36,-4,-19,3,-1,-3,11,17
1523209525014578,-70,-12,46,9,4,3,-56,-23
1523209525015580,-19,-6,-27,-9,0,7,33,52
1523209525015580,21,7,-9,-14,-2,-4,-36,7
1523209525027611,72,3,-7,11,6,4,16,-3
1523209525027611,-41,5,21,3,0,0,-27,-29
1523209525036871,53,-1,-42,-4,1,4,29,-16
1523209525036871,-19,2,-16,1,-6,-5,-26,-2
1523209525051908,3,-9,-22,-5,0,-7,-13,-13
1523209525051908,9,-15,5,-3,-2,9,32,14
1523209525052677,-60,-6,-9,3,0,-2,-3,-14
1523209525052677,52,13,32,0,1,4,0,-18
1523209525074739,-81,1,9,-5,-2,-5,-27,-16
1523209525074739,60,1,2,8,2,4,34,40
1523209525075739,-35,-6,-26,-5,-4,-8,-69,-29
1523209525075739,48,29,-47,4,-1,4,55,-46
1523209525096797,7,3,-13,-2,-5,-7,-62,-10
1523209525096797,46,12,-12,-8,-2,-3,64,10
1523209525097797,-42,-6,15,-8,-9,-8,-28,18
1523209525097797,1,9,32,4,1,-4,-8,-25
1523209525111836,1,-3,-17,1,2,3,7,-23
1523209525111836,-15,3,-17,1,-5,-9,-28,2
1523209525112838,23,-1,20,2,0,5,15,-29
1523209525112838,-64,-29,-10,-4,-4,-6,2,7
1523209525134897,2,3,45,-3,1,3,7,8
1523209525134897,8,-1,-42,-5,2,-2,20,51
1523209525134897,-15,-8,26,11,0,3,80,-9
1523209525134897,54,9,24,5,-2,-4,-39,47
1523209525156964,-25,-18,-58,-20,-6,-4,-6,-18
1523209525156964,6,-5,92,3,-2,-1,1,-16
1523209525157961,-30,-30,-46,-2,0,-2,-26,0
1523209525157961,-1,1,2,3,2,0,16,16
1523209525171996,16,-16,0,6,3,7,28,33
1523209525171996,92,1,-3,2,-6,-14,-71,-57
1523209525172999,-78,2,49,-9,0,3,24,6
1523209525172999,-2,-5,-4,-7,-5,-4,-29,-16
1523209525194054,38,7,-8,14,1,3,7,19
1523209525194054,-55,-6,13,1,-5,-5,-34,4
1523209525196060,38,5,-16,-3,-3,-2,17,-26
1523209525196060,-40,10,17,5,4,3,6,-53
1523209525217118,5,3,-31,3,-1,-2,-24,-10
1523209525217118,-64,-6,-7,-1,1,0,34,-22
1523209525218119,3,8,-16,5,-2,-5,-5,25
1523209525218119,9,-16,-42,-18,-3,-1,-2,1
1523209525231153,-9,0,43,6,0,3,12,-2
1523209525231153,58,-1,-92,-2,1,-4,67,-17
1523209525240182,18,1,-17,-8,-2,2,-35,14
1523209525240182,-64,-1,23,-1,-2,0,-18,-16
1523209525254446,58,3,-5,-8,-1,-2,-13,4
1523209525254446,13,0,-11,-4,1,2,-16,9
1523209525256221,-6,32,26,3,2,5,9,15
1523209525256221,77,-20,-83,4,0,-5,-8,-37
1523209525277277,-43,11,-2,-11,-6,-7,6,-21
1523209525277277,-34,3,12,1,1,3,41,10
1523209525278278,-3,-1,23,1,-2,-2,-37,-33
1523209525278278,-69,13,35,16,2,4,37,-31
1523209525290312,-2,3,-23,-1,1,1,9,5
1523209525290312,52,-3,-1,-2,-6,-7,-72,-3
1523209525299451,-3,6,34,5,1,9,115,5
1523209525299451,-41,-11,-20,-7,-9,-14,-32,15
1523209525314415,-16,-3,72,11,2,0,-21,20
1523209525314415,-1,2,-63,-18,-8,-5,-5,-22
1523209525316380,103,5,-12,3,2,0,-46,7
1523209525316380,8,1,22,-4,3,-1,26,26
1523209525337600,-3,1,18,16,-4,-6,6,13
1523209525337600,32,-14,1,-8,-2,2,-1,-28
1523209525338437,18,17,20,-3,-1,-5,33,10
1523209525338437,-25,-30,-45,-8,2,3,-15,-17
1523209525350702,37,19,12,-4,-1,-6,-28,-4
1523209525350702,13,-4,30,3,-2,-2,-9,-5
1523209525359494,-6,-8,-38,-2,0,-3,-47,4
1523209525359494,14,0,6,-14,-4,2,118,3
1523209525374538,-18,7,72,2,0,1,12,-40
1523209525374538,1,-9,-4,12,5,0,-34,7
1523209525376539,51,-3,-36,-13,-5,-3,7,0
1523209525376539,3,3,37,4,-1,-6,-53,28
1523209525396591,33,-10,-2,-3,-1,1,-15,-1
1523209525396591,-5,-4,18,6,4,-2,51,-38
1523209525398597,-8,-8,-22,-1,-1,-5,-29,22
1523209525398597,27,4,24,2,-2,1,-38,19
1523209525410629,-27,-13,-33,-11,-2,1,53,12
1523209525410629,-29,1,-13,-5,0,1,-14,-10
1523209525419652,11,-3,-7,9,2,-1,-14,3
1523209525419652,-43,-15,11,3,-5,-3,8,7
1523209525434693,-32,-3,-29,-6,-2,2,-35,18
1523209525434693,-5,-1,5,0,0,-2,-32,-3
1523209525435898,28,5,53,4,1,-1,10,-29
1523209525435898,-72,-26,-48,-4,-1,-1,-21,-46
1523209525456756,84,11,27,1,0,1,12,7
1523209525456756,-19,0,-45,-4,-4,-1,52,27
1523209525458759,-110,-12,14,0,-1,0,-37,-5
1523209525458759,59,17,62,0,3,5,-20,15
1523209525471023,6,4,-38,7,2,0,15,-32
1523209525471023,-26,-20,74,-14,-5,-4,-43,7
1523209525479815,-29,0,-16,0,-2,-4,2,-15
1523209525479815,-1,30,2,10,3,-1,-14,13
1523209525494859,-40,9,10,2,2,3,-73,30
1523209525494859,41,2,-41,1,-2,5,69,-23
1523209525495856,-3,-4,-10,-8,-4,-3,-49,-13
1523209525495856,-54,-6,27,0,1,0,-37,2
1523209525516913,-13,2,5,-9,-6,-7,-2,3
1523209525516913,29,14,5,10,-4,-4,-37,15
1523209525518919,-78,-26,-21,-9,3,2,53,2
1523209525518919,11,5,-5,-4,-2,3,10,46
1523209525530956,-23,2,9,4,1,-5,19,7
1523209525530956,-52,-2,53,-2,0,1,21,27
1523209525539978,39,4,86,7,-1,-3,-1,-24
1523209525539978,22,-3,-27,-10,-2,0,-2,15
1523209525555119,-44,-10,-27,2,-2,-3,-68,-27
1523209525555119,-65,6,4,-5,3,3,74,-12
1523209525556017,66,-2,-15,4,-2,-2,-22,71
1523209525556017,14,12,1,-2,-1,-2,-32,0
1523209525577072,8,-14,-48,-12,-5,9,36,-16
1523209525577072,8,1,-44,-1,-4,-11,-59,-25
1523209525579079,43,-4,-22,-3,-3,-5,-15,35
1523209525579079,-19,1,8,2,0,3,81,-7
1523209525591113,34,9,-37,3,0,1,4,21
1523209525591113,-18,12,23,-10,-2,2,-34,10
1523209525600175,-21,-13,-17,-5,-4,0,24,-25
1523209525600175,39,-2,24,6,1,-6,-28,0
1523209525614175,-38,-25,-79,-2,2,2,17,-19
1523209525614175,44,14,27,-2,2,0,-19,0
1523209525616176,13,12,56,12,8,-1,-37,10
1523209525616176,21,-4,-18,-3,-9,-6,34,-74
1523209525637464,2,0,54,-7,-6,-2,12,13
1523209525637464,12,-11,-7,5,0,0,-3,10
1523209525638235,29,5,-24,-5,-2,-2,-26,-18
1523209525638235,-54,-8,3,1,4,7,-22,35
1523209525651307,104,6,-1,-5,1,-7,23,7
1523209525651307,-39,9,11,8,1,0,-11,-6
1523209525659290,-18,1,17,-6,-3,3,-7,-2
1523209525659290,11,-18,-8,-1,-2,0,-27,9
1523209525674339,-14,2,-12,-2,0,1,-29,-31
1523209525674339,-75,-38,49,12,7,7,88,37
1523209525676336,-56,-20,-74,-10,-6,-8,-7,-14
1523209525676336,52,17,41,1,0,-2,-18,4
1523209525697621,-24,-18,-22,-4,0,5,29,49
1523209525697621,29,8,-13,1,-5,-5,-25,9
1523209525698394,-12,5,19,0,1,3,20,-10
1523209525698394,3,-3,-20,6,-3,-3,-7,-19
1523209525710428,-51,39,-3,5,4,-2,7,6
1523209525710428,47,-1,-11,-11,-7,-6,-45,1
1523209525719488,-11,-4,2,6,-2,3,72,-20
1523209525719488,29,1,-62,-3,0,0,-15,4
1523209525734490,-5,1,58,10,2,1,-12,-1
1523209525734490,-41,10,-22,-1,1,0,6,-27
1523209525736496,-11,6,-8,-6,-2,-6,-6,5
1523209525736496,-16,2,-2,-2,4,0,-52,26
1523209525757646,52,-18,1,-2,-2,8,58,-2
1523209525757646,31,-5,-3,-5,-7,-7,-59,1
1523209525758554,-7,5,24,-2,-1,-2,16,-20
1523209525758554,-53,2,12,-5,-3,-1,17,-13
1523209525770821,-18,-18,18,-1,-3,-4,-10,-9
1523209525770821,21,17,53,13,2,-5,-85,9
1523209525779610,12,-20,-94,-18,-2,7,37,-20
1523209525779610,46,2,28,-3,-5,-10,18,17
1523209525794651,-10,7,15,-3,-1,-4,-68,6
1523209525794651,-96,-12,-8,1,0,3,26,-52
1523209525796754,5,-1,-13,2,-3,-5,-24,13
1523209525796754,21,5,-37,4,3,1,34,-7
1523209525816709,-11,-10,-24,-4,-4,-8,-7,-1
1523209525816709,-7,2,18,-1,2,1,-35,-14
1523209525818714,-4,18,6,4,-1,-1,13,-15
1523209525818714,13,-2,8,-6,-4,0,-29,-3
1523209525830747,6,14,-58,0,-1,-1,-11,-34
1523209525830747,-1,-2,-8,-10,2,2,69,28
1523209525839774,60,7,-9,11,-8,-6,-41,-3
1523209525839774,-3,14,46,-1,-3,-10,3,8
1523209525855045,28,-7,-4,1,4,-2,-47,1
1523209525855045,-52,-10,-23,-4,1,13,49,-2
1523209525855817,-45,7,12,-10,-2,-4,-29,-9
1523209525855817,32,-3,-13,-12,-8,-7,-26,17
1523209525876868,30,1,17,4,-3,0,-12,-6
1523209525876868,-26,-1,-41,-3,-1,3,9,50
1523209525878875,-14,-5,47,2,3,3,-10,-47
1523209525878875,-32,-12,-20,5,2,4,-14,-14
1523209525890909,-24,1,55,-5,-1,-3,15,-31
1523209525890909,55,6,-56,6,-1,-9,-10,33
1523209525899931,-26,-13,2,-1,3,3,-2,28
1523209525899931,35,-7,7,-2,1,-2,49,-20
1523209525915094,6,-6,-59,-5,-5,-7,-57,-7
1523209525915094,-20,-6,14,2,-3,3,21,3
1523209525915972,-9,9,36,5,-1,3,-16,13
1523209525915972,34,-4,-6,-5,-2,0,-12,40
1523209525937263,-23,-23,34,12,0,2,8,25
1523209525937263,46,-10,-19,-11,-4,-7,4,-44
1523209525939036,19,8,-19,3,1,-6,-23,3
1523209525939036,-118,10,35,6,1,9,29,-36
1523209525951293,1,1,-21,-20,-4,1,36,4
1523209525951293,53,2,2,11,0,-4,-16,1
1523209525959091,11,-18,20,-5,0,-3,20,-6
1523209525959091,-2,0,-7,13,2,3,-3,17
1523209525974133,26,5,20,4,-2,-5,52,29
1523209525974133,27,-11,4,-4,-2,3,-32,-18
1523209525976131,87,18,49,0,1,-1,-3,24
1523209525976131,-92,-12,-49,4,-5,-11,-89,-17
1523209525997277,10,-3,21,-16,1,11,118,-3
1523209525997277,-9,21,-44,0,-5,-8,-57,-51
1523209526003204,14,-20,-34,-5,-3,-2,-5,4
1523209526003204,49,0,-9,-1,1,1,-5,15
1523209526019482,-32,-2,-14,2,-1,0,-33,-19
1523209526019482,-68,6,56,3,3,1,40,31
1523209526021252,-22,-22,-95,-16,-3,-1,10,0
1523209526021252,-28,-5,-3,0,2,2,51,-20
1523209526034286,23,-21,12,0,-3,-3,-50,-3
1523209526034286,-20,10,6,2,2,-4,2,19
1523209526036292,-38,-7,-9,6,-2,-3,-42,33
1523209526036292,40,-1,2,-3,0,7,35,11
1523209526057350,-99,-9,10,-2,-7,-11,-33,3
1523209526057350,66,3,33,1,1,2,-13,-4
1523209526058351,-25,-8,13,-1,-5,-4,-8,-12
1523209526058351,28,4,-5,1,2,1,-52,55
1523209526079408,-19,-13,-7,-3,0,-9,60,-41
1523209526079408,-4,9,-3,-7,-2,4,48,15
1523209526081413,-32,12,32,1,0,4,-1,-52
1523209526081413,25,-2,43,-2,0,4,5,-2
1523209526094447,-46,3,-35,14,2,-2,-22,-11
1523209526094447,-58,-24,-23,-18,-1,1,-27,-17
1523209526096454,97,10,46,21,-1,-3,38,22
1523209526096454,-7,0,6,-8,-2,6,48,-19
1523209526116506,26,5,-6,-4,-1,-9,-59,22
1523209526116506,27,2,5,4,0,1,46,-3
1523209526118510,-21,2,3,-4,4,6,-34,5
1523209526118510,19,5,-23,-7,-4,-8,14,-6
1523209526139566,19,9,18,-5,-4,-3,3,8
1523209526139566,5,-1,-2,-5,-2,3,-8,15
1523209526141576,-51,-6,-8,-2,-1,1,17,-28
1523209526141576,24,-7,-9,-7,-6,-7,-8,2
1523209526153604,42,10,-8,-7,4,-2,-51,9
1523209526153604,41,10,15,-5,-4,6,52,-52
1523209526160622,-44,2,-4,13,2,2,4,4
1523209526160622,-11,-8,8,-7,-4,-6,12,-7
1523209526176666,54,41,13,-7,-3,2,-5,-1
1523209526176666,-45,8,-13,23,-2,-1,-26,41
1523209526178672,-81,-6,-7,-5,0,-7,1,-1
1523209526178672,14,-10,-42,-3,0,-7,-46,14
1523209526199726,-10,9,49,-2,0,12,35,-43
1523209526199726,16,-7,9,-8,-3,-5,-24,26
1523209526200728,28,-3,-11,-2,-4,-8,-45,12
1523209526200728,-65,-11,-7,-7,-1,2,14,-36
1523209526213998,-11,-3,22,13,-1,3,18,8
1523209526213998,-26,-6,-32,-2,-1,-3,-5,46
1523209526221014,27,2,9,-1,-2,-7,-49,2
1523209526221014,-28,-4,-12,-11,1,1,20,-5
1523209526236825,36,-3,33,10,-1,0,7,-22
1523209526236825,-3,-19,-33,-2,-3,-5,-36,-15
1523209526238831,55,30,19,-10,-1,2,36,45
1523209526238831,35,-6,24,7,-2,-2,-13,-9
1523209526259887,-38,-15,-16,-11,-1,4,27,-14
1523209526259887,23,-1,-41,-1,0,-2,-39,-15
1523209526260889,-10,8,34,5,-2,3,53,8
1523209526260889,-1,13,-33,-6,-4,-4,9,-1
1523209526273930,-9,-28,-5,-1,-5,-8,-109,25
1523209526273930,61,30,-10,-12,-3,5,94,-32
1523209526280943,-26,-3,-16,4,2,2,3,-21
1523209526280943,18,8,-5,0,1,5,-4,14
1523209526305005,31,0,-7,3,-5,-6,-4,19
1523209526305005,-2,4,54,-2,1,-12,-63,22
1523209526307015,26,-12,-48,0,-1,6,46,-36
1523209526307015,-86,1,35,20,7,3,-10,-30
1523209526320143,41,-12,-21,-9,-2,-3,8,68
1523209526320143,1,-8,15,-3,1,-4,-9,-12
1523209526321048,-23,0,0,-2,0,4,17,9
1523209526321048,10,-1,27,5,1,1,-2,-12
1523209526334085,-35,-3,-31,-10,1,9,19,-2
1523209526334085,-20,-12,-25,14,-3,-10,-9,24
1523209526341105,0,-12,43,-3,-1,3,-2,-12
1523209526341105,4,-1,-22,3,-1,-5,-4,-34
1523209526357154,19,11,73,1,2,-2,28,-4
1523209526357154,-25,0,-35,-9,-1,-1,-36,8
1523209526358147,-68,-29,-28,-5,-5,-5,-77,0
1523209526358147,-61,3,32,0,1,2,2,45
1523209526379205,-37,-3,-21,-1,-1,-2,15,-37
1523209526379205,7,-32,17,11,0,-1,-14,-16
1523209526381210,23,14,-20,-3,-2,-5,-49,-13
1523209526381210,-6,-2,10,-7,-4,-2,14,5
1523209526394244,-63,3,-22,-5,-1,0,-8,-17
1523209526394244,-6,-14,-31,1,-2,3,-44,-9
1523209526401300,-65,-2,-7,0,-3,-2,51,42
1523209526401300,42,15,1,5,1,-2,0,-2
1523209526417305,-13,2,-22,4,0,0,13,-14
1523209526417305,16,12,34,-8,-6,-3,-1,4
1523209526418307,70,-7,-33,-3,4,4,23,-2
1523209526418307,-25,9,37,2,1,-5,51,2
1523209526439365,-37,-9,-7,10,1,5,-3,45
1523209526439365,20,14,23,-7,-2,-7,-88,-35
1523209526441369,-12,4,-5,-10,-3,4,83,-9
1523209526441369,77,-3,6,10,-2,-7,-39,4
1523209526454446,-18,-1,-19,-2,-1,-5,11,0
1523209526454446,42,1,36,1,-1,1,-16,9
1523209526460418,10,7,9,2,1,0,16,-22
1523209526460418,17,-9,-29,-6,-3,1,-23,13
1523209526476462,35,-10,35,3,0,-3,-7,-13
1523209526476462,-17,17,-25,-6,-1,2,38,-10
1523209526478470,18,3,-1,-6,-3,-4,-49,-8
1523209526478470,1,-8,-9,5,-1,3,31,1
1523209526499756,-58,2,7,-2,-1,-3,-24,-43
1523209526499756,-23,-9,-14,1,2,-8,16,31
1523209526501721,37,3,40,-2,-1,10,-40,-19
1523209526501721,29,26,39,-1,0,-1,-46,55
1523209526513599,-5,13,-13,-4,-1,2,34,-67
1523209526513599,-5,11,-5,0,0,0,-3,-7
1523209526522586,-30,6,6,2,-6,-10,-19,13
1523209526522586,64,-13,-30,-7,0,5,8,-7
1523209526537623,-14,5,-33,6,1,-4,-6,29
1523209526537623,7,-19,1,-10,-2,1,-14,-5
1523209526538629,4,17,87,15,3,1,27,-2
1523209526538629,-15,-4,-52,-23,-8,-2,2,-26
1523209526559684,54,-3,-1,8,1,-6,-3,15
1523209526559684,-66,-20,5,-4,-2,2,-5,-17
1523209526560685,29,-4,-19,-2,-3,-3,-38,-9
1523209526560685,-16,-4,0,8,2,-1,76,-3
1523209526572718,39,-1,4,-3,-7,-5,15,40
1523209526572718,16,-2,-27,1,2,7,-7,-6
1523209526581761,-53,-6,23,-5,1,-7,-22,7
1523209526581761,27,-4,-53,1,-3,1,-34,25
1523209526596782,15,-9,-18,-13,-4,-2,36,-4
1523209526596782,4,11,38,4,0,1,-1,3
1523209526598787,25,-4,-12,-7,-3,-4,27,16
1523209526598787,-55,-13,6,-5,-2,0,-44,-18
1523209526620067,79,16,39,12,-3,-1,-1,21
1523209526620067,-106,-23,-9,3,1,-4,-77,-18
1523209526620845,3,4,-21,-11,-2,4,43,-1
1523209526620845,4,11,17,5,-1,-6,15,-2
1523209526632881,-26,-3,8,-7,1,6,-18,-16
1523209526632881,17,13,18,0,-4,-5,-8,-17
1523209526641901,41,4,14,4,3,4,9,-28
1523209526641901,-14,-4,2,0,-4,-5,30,-10
1523209526656946,-8,-1,-36,-8,-5,0,-17,-8
1523209526656946,50,7,-7,4,1,1,37,29
1523209526658946,-57,-4,42,-4,-1,0,-9,14
1523209526658946,-57,-59,-79,1,0,-7,-28,-14
1523209526679000,-33,-1,-2,4,5,7,-7,-22
1523209526679000,14,6,-40,-12,-6,-1,27,-8
1523209526681006,19,-12,-31,-1,-2,-9,-121,13
1523209526681006,5,6,34,-4,-1,9,59,-60
1523209526693037,-4,-5,-14,1,-4,-8,-43,5
1523209526693037,-6,-1,-20,-1,0,2,40,12
1523209526702092,-10,-6,7,-3,-6,-10,-49,-50
1523209526702092,-6,6,0,-5,-1,-2,-44,20
1523209526717101,-27,3,14,4,6,6,52,-36
1523209526717101,73,15,10,-7,-5,-4,-15,3
1523209526719267,19,-4,-76,-1,-9,-8,37,35
1523209526719267,61,8,60,-1,4,4,-25,14
1523209526739160,-21,-14,-1,0,-2,-3,-5,2
1523209526739160,-13,-1,6,0,2,2,11,-1
1523209526741165,60,6,68,6,6,6,14,17
1523209526741165,-10,26,-1,3,-1,-3,-3,-9
1523209526753432,-12,-11,-23,-1,0,3,-34,18
1523209526753432,-28,2,-14,2,2,2,50,19
1523209526762221,-12,-6,-1,-2,-1,-7,-35,-49
1523209526762221,-8,5,15,-2,0,13,57,17
1523209526777262,-18,-2,3,-1,0,-4,-8,-18
1523209526777262,17,4,15,0,-5,-6,1,18
1523209526778263,-36,-5,-28,14,3,8,-7,-1
1523209526778263,-13,-1,-12,3,0,-10,-69,10
1523209526799557,-68,14,0,-6,-10,-9,32,12
1523209526799557,-43,-10,17,-1,2,7,-59,-41
1523209526801324,-8,-12,-7,-7,2,-1,85,15
1523209526801324,25,-18,-20,-12,-3,-4,-7,-6
1523209526813397,27,4,-21,1,-2,1,-7,34
1523209526813397,60,1,31,3,0,-5,-5,-6
1523209526822396,21,2,-10,9,-1,1,20,39
1523209526822396,-4,2,3,1,-4,-3,-12,-38
1523209526837590,44,-2,-21,-4,-3,-3,-19,1
1523209526837590,-7,-26,-71,-9,1,1,29,-3
1523209526838428,20,6,5,-8,-1,8,18,27
1523209526838428,4,-6,-10,-2,1,-8,-28,32
1523209526859480,-17,-4,-17,0,-2,-2,4,-25
1523209526859480,14,19,48,10,-5,-7,-56,-26
1523209526861484,-59,-28,-28,-19,-5,3,106,-21
1523209526861484,-22,9,19,24,2,1,-20,1
1523209526873518,35,-9,-14,-36,0,3,-3,7
1523209526873518,21,-3,8,-1,-1,-5,-37,10
1523209526882541,15,18,37,6,1,-1,0,27
1523209526882541,-39,-18,9,-6,-3,-1,-14,-93
1523209526897618,-19,6,6,4,1,0,25,-26
1523209526897618,26,-1,-4,-9,-5,-1,47,24
1523209526898582,-22,5,-22,-1,-2,-4,-63,-4
1523209526898582,-11,3,1,2,1,5,28,28
1523209526919875,3,-1,62,14,2,-3,-13,23
1523209526919875,-125,-21,-59,-16,-5,-2,-21,-51
1523209526920642,-5,-1,25,6,-1,-4,17,-2
1523209526920642,34,12,-2,-3,-1,1,18,45
1523209526941699,-2,-2,30,-3,-8,-12,-20,-44
1523209526941699,32,-1,13,8,7,8,18,13
1523209526943703,-8,-4,-15,-4,1,0,-28,-22
1523209526943703,49,10,-33,-6,-2,-6,-21,22
1523209526956783,52,-5,52,11,3,15,106,23
1523209526956783,-30,1,-23,10,0,-4,-32,15
1523209526958743,-24,8,-31,-17,-2,-4,-48,-8
1523209526958743,8,-6,3,-10,1,-3,-9,-11
1523209526979800,-78,-16,5,21,0,-6,-36,18
1523209526979800,46,19,14,4,2,5,30,-30
1523209526980802,-15,5,-14,0,0,5,50,15
1523209526980802,50,-11,5,-7,-1,-4,-15,5
1523209527002093,-22,9,-27,-5,1,-2,-53,13
1523209527002093,7,-7,19,6,2,5,25,18
1523209527003863,-5,-2,-80,3,-1,-2,-34,-15
1523209527003863,-6,-5,27,-13,-8,-9,25,-32
1523209527016898,21,1,-34,-4,-2,-2,-11,-6
1523209527016898,37,2,31,5,0,-6,-25,35
1523209527018906,23,0,-5,-4,-1,-2,-42,39
1523209527018906,-82,-19,-47,6,-1,6,39,-22
1523209527039966,-22,-17,20,-6,-1,4,-8,1
1523209527039966,34,-2,-1,3,-4,-6,5,-8
1523209527040961,44,-4,-14,-5,-6,-11,-35,5
1523209527040961,-42,5,18,7,0,-1,-18,4
1523209527062016,7,-8,-20,3,1,0,11,-22
1523209527062016,-3,-1,0,-8,-1,1,10,4
1523209527064024,-29,-20,7,-1,-1,-3,13,-18
1523209527064024,-24,3,2,2,3,3,-9,20
1523209527077058,27,8,36,-2,-1,-1,-9,-16
1523209527077058,-66,-20,-59,1,-1,0,25,18
1523209527078061,86,4,-26,5,-1,0,8,22
1523209527078061,16,2,3,-6,-3,-5,-81,-24
1523209527100157,-12,-4,-7,-1,2,6,90,13
1523209527100157,-11,11,25,0,-1,0,-13,-10
1523209527101122,-52,5,-6,9,3,6,-18,1
1523209527101122,7,6,12,-8,-5,-3,-27,28
1523209527122180,93,-12,-20,2,-5,-3,-55,9
1523209527122180,-25,-4,-12,-5,-1,1,35,-40
1523209527123184,-12,1,46,-7,-1,2,-1,-22
1523209527123184,-34,2,35,7,2,-1,35,17
1523209527136449,-32,6,-45,-4,-1,-3,-46,-13
1523209527136449,-11,8,65,-3,1,0,18,10
1523209527143235,13,0,3,-4,-3,-6,11,21
1523209527143235,90,0,-10,11,0,4,11,-22
1523209527159275,-12,-1,-46,-7,0,-8,-19,42
1523209527159275,-10,-4,11,-1,-3,1,-33,-23
1523209527161281,0,2,13,-5,0,-2,-20,-1
1523209527161281,16,-11,-5,-9,-2,-5,17,36
1523209527182338,-44,5,11,4,3,9,3,-18
1523209527182338,69,11,3,0,0,-3,-19,20
1523209527183340,-50,8,-8,-1,0,3,24,-12
1523209527183340,0,-3,-23,-3,-2,-2,-30,-16
1523209527196609,-1,10,29,1,-2,-1,17,-10
1523209527196609,-34,-32,-2,-5,-4,-1,-2,-7
1523209527203626,12,-12,34,-4,-5,-9,-8,-1
1523209527203626,-32,2,-16,0,-2,0,0,-8
1523209527219436,29,11,12,-6,-2,-1,-19,58
1523209527219436,-25,4,-4,6,0,-1,127,-92
1523209527221448,9,-8,-20,1,-1,-8,-45,12
1523209527221448,-56,5,22,-1,-4,-4,-6,-67
1523209527241495,-4,-3,12,1,-1,-1,10,-16
1523209527241495,46,12,7,-2,1,1,10,36
1523209527243501,-23,-2,1,5,-4,-4,-25,-1
1523209527243501,47,9,42,0,3,5,36,4
1523209527256537,-78,6,16,-6,-3,-4,-1,-15
1523209527256537,-11,-2,-16,-1,-2,-2,-51,-3
1523209527263554,22,-5,-5,5,6,7,56,13
1523209527263554,-41,3,12,3,1,-4,3,0
1523209527279598,42,5,-32,-5,-7,-5,-20,0
1523209527279598,12,14,-11,-4,-1,-4,10,43
1523209527280600,0,8,-18,-11,-7,-6,-37,-52
1523209527280600,-4,-19,7,0,3,7,25,27
1523209527302661,-5,1,-17,-1,-2,-3,18,-34
1523209527302661,2,9,8,2,-1,-3,-40,-8
1523209527303659,26,-4,-33,-2,-3,-5,-7,29
1523209527303659,-86,-8,-20,-13,-7,-2,-26,-3
1523209527316695,45,9,52,0,1,-3,12,-34
1523209527316695,10,-13,-99,-8,-5,-4,-10,25
1523209527322715,20,-4,-40,4,3,5,3,-10
1523209527322715,21,-2,12,9,0,-1,-3,22
1523209527339759,-29,-8,-4,3,0,-5,-32,26
1523209527339759,-5,4,31,-9,-4,1,-23,-7
1523209527340758,-5,6,17,0,2,5,115,-4
1523209527340758,15,-13,-47,-2,1,-1,-22,42
1523209527361817,0,0,24,2,-1,-6,-39,-57
1523209527361817,24,-4,4,-1,-3,-3,7,5
1523209527363821,-17,5,16,0,0,3,-17,-11
1523209527363821,75,27,36,-5,-3,-1,-25,-1
1523209527375852,-27,3,-9,0,5,3,73,31
1523209527375852,1,-5,-16,2,3,3,-45,0
1523209527382870,32,16,44,2,-3,-1,-7,-8
1523209527382870,29,4,7,-4,-1,3,4,0
1523209527400116,-12,3,42,2,0,3,-5,1
1523209527400116,-38,-2,-43,-8,-3,-5,2,-17
1523209527400920,34,-1,15,-3,0,-3,-23,-6
1523209527400920,3,5,-18,7,-2,1,-59,-3
1523209527422016,11,-11,-21,-8,-2,0,77,9
1523209527422016,-37,-4,79,1,0,1,13,3
1523209527423979,22,-9,-9,-1,-4,-4,-42,-76
1523209527423979,-18,-3,-19,5,0,-5,-29,-14
1523209527436250,-27,-8,1,-3,-2,4,1,-5
1523209527436250,21,-3,-5,-5,-4,-11,-35,19
1523209527445036,-49,-3,-22,5,3,1,9,15
1523209527445036,21,7,0,-14,-7,-9,59,3
1523209527459074,6,-9,-41,0,2,4,-53,4
1523209527459074,97,3,8,4,2,4,8,5
1523209527461079,-24,-18,27,-1,-4,-4,10,-16
1523209527461079,-8,-3,-46,3,2,-2,1,27
1523209527482133,-31,2,25,-4,-3,-7,-15,-36
1523209527482133,-15,-1,-5,-8,-7,-6,-21,-5
1523209527483137,-3,-4,2,-7,1,1,-5,45
1523209527483137,-79,0,27,24,6,4,-43,-8
1523209527496263,-10,-26,-21,-46,-9,3,81,25
1523209527496263,22,-1,-15,-3,2,-2,-31,-11
1523209527504192,-8,10,-18,14,0,1,11,-11
1523209527504192,-4,-16,11,-30,-5,1,16,-8
1523209527519468,39,8,-74,4,-1,-3,-29,2
1523209527519468,-30,3,30,20,2,1,10,12
1523209527521245,-27,-5,30,-2,-2,-2,9,13
1523209527521245,104,10,-16,24,2,-1,-16,45
1523209527542294,-10,-18,-57,-23,-6,-2,30,-29
1523209527542294,-36,0,19,-6,-1,3,22,-33
1523209527543297,-5,-8,-7,-13,-3,-3,-41,-4
1523209527543297,32,5,-22,5,-2,2,63,1
1523209527555333,36,-5,36,15,5,-2,-39,-5
1523209527555333,-36,-3,-19,9,-1,0,-8,24
1523209527564351,-58,-4,-3,-4,-1,0,72,-64
1523209527564351,-8,-1,13,2,-1,1,-17,-36
1523209527579395,24,5,-47,-1,1,-5,-38,8
1523209527579395,20,3,43,1,1,-4,36,-22
1523209527581398,26,-13,-24,2,0,-2,-45,-2
1523209527581398,-42,0,-8,-15,-2,-1,27,-8
1523209527602614,-64,-11,12,21,5,3,-7,6
1523209527602614,14,-11,-18,5,-3,-1,-24,7
1523209527603455,0,14,8,-7,-1,-4,-55,4
1523209527603455,68,2,12,-2,4,3,88,-24
1523209527615492,-103,-2,-32,2,1,-2,-53,-4
1523209527615492,55,4,-19,-10,0,5,1,27
1523209527624513,-29,15,14,6,2,6,10,21
1523209527624513,-17,-16,-8,-15,-9,-10,1,-19
1523209527639558,53,14,10,18,2,-1,-25,22
1523209527639558,-61,-22,6,-14,-5,1,35,34
1523209527641557,-5,-6,49,3,0,-2,-17,-15
1523209527641557,-79,-11,-61,8,3,1,57,4
1523209527661611,68,3,23,-3,-5,1,54,-1
1523209527661611,-7,6,14,-13,-4,-5,-20,17
1523209527663616,-7,-5,-61,12,-4,-2,-17,1
1523209527663616,53,8,22,4,0,0,-22,21
1523209527675649,-83,-7,-3,-23,-4,-6,-39,-5
1523209527675649,-7,13,3,3,0,-4,-1,-19
1523209527684671,75,-9,-8,-6,0,6,25,-10
1523209527684671,2,-25,12,-13,-4,-6,-39,3
1523209527699947,35,4,7,13,-2,2,-10,-19
1523209527699947,-2,6,19,3,0,-2,3,-10
1523209527701756,-23,-6,10,-7,-1,1,17,-23
1523209527701756,38,20,5,6,-2,-4,-30,1
1523209527721777,33,4,34,2,-1,-3,-97,28
1523209527721777,-92,-19,-14,-3,-2,7,78,-26
1523209527723776,20,11,-29,-4,-3,2,-29,65
1523209527723776,-49,-9,-66,-11,-3,-1,-7,-23
1523209527736043,42,0,80,6,1,-2,27,-14
1523209527736043,-18,5,20,3,0,-4,-40,6
1523209527744834,-19,-10,-32,-11,-7,-4,14,14
1523209527744834,-12,0,3,6,2,-4,-41,11
1523209527759874,18,10,-29,3,1,-2,59,-6
1523209527759874,-42,-9,14,7,2,4,-29,0
1523209527760874,5,-20,7,-2,-2,-9,-5,-45
1523209527760874,-20,-9,12,5,2,7,6,-7
1523209527781931,4,-8,2,3,-2,-4,2,-12
1523209527781931,19,12,-4,-4,-2,-2,11,-15
1523209527783937,-36,13,32,8,2,-6,-41,51
1523209527783937,40,-13,1,-13,0,1,8,-47
1523209527796202,39,4,-25,6,4,5,24,8
1523209527796202,41,-8,26,-1,0,-2,-22,-17
1523209527804998,-79,-5,-78,-10,0,-5,-64,5
1523209527804998,-44,-4,20,12,0,6,70,-3
1523209527820089,-4,-9,23,0,0,2,-5,14
1523209527820089,14,0,-10,2,0,-6,-43,19
1523209527821039,43,11,50,-1,2,6,38,-16
1523209527821039,60,4,-22,-4,-2,-9,-10,14
1523209527842091,-21,14,9,-4,-3,-3,-21,-43
1523209527842091,0,-13,-55,0,-2,-2,11,-12
1523209527843095,32,-4,19,-1,-2,-5,-61,26
1523209527843095,-115,-25,52,3,0,4,89,-15
1523209527855128,95,3,3,-5,-5,-3,-5,24
1523209527855128,-31,-7,25,-2,-1,-4,-32,19
1523209527864148,-41,0,-4,-1,0,1,22,6
1523209527864148,-39,-15,-11,-12,-7,-8,-41,-13
1523209527879189,1,-2,-7,-3,2,-1,-5,20
1523209527879189,-14,7,6,5,-1,1,8,-19
1523209527881195,23,1,9,5,5,7,39,-2
1523209527881195,15,29,-55,-6,0,5,13,28
1523209527901247,-42,6,39,1,-3,3,33,-25
1523209527901247,38,-8,-26,-11,-2,4,2,-9
1523209527909268,-14,-4,20,6,-3,-14,-15,-48
1523209527909268,87,28,15,1,0,-1,-38,38
1523209527924309,-119,-20,8,-2,-2,-1,-17,48
1523209527924309,16,-1,-31,-4,-5,-4,78,-51
1523209527926313,24,5,8,-1,2,3,-14,-18
1523209527926313,-3,1,19,3,-2,-3,-26,-2
1523209527939353,3,1,-22,1,1,-2,-1,1
1523209527939353,-19,-9,25,5,2,-1,-35,4
1523209527941353,-13,-14,-13,-7,-4,-2,56,26
1523209527941353,17,1,8,1,-2,-6,-10,4
1523209527962411,-14,3,-28,2,2,2,-10,-9
1523209527962411,23,-2,-37,-2,-2,-3,12,16
1523209527963412,16,-6,-10,-2,-1,2,-6,-29
1523209527963412,36,2,19,8,0,-3,-45,20
1523209527984703,-76,-8,-29,-11,-7,-7,63,-44
1523209527984703,-4,-26,62,11,4,1,-12,36
1523209527986474,-51,4,-76,-3,-2,2,17,-60
1523209527986474,-42,-7,8,-7,-5,-5,-20,-25
1523209527999741,35,6,12,-1,-3,-5,-40,21
1523209527999741,12,17,-20,-3,-1,1,34,2
1523209528001514,-21,-13,7,-10,-4,1,2,15
1523209528001514,6,8,3,-10,-1,2,2,16
1523209528021575,-15,20,-4,17,-1,2,-18,2
1523209528021575,-10,3,-8,19,4,4,-12,-8
1523209528023573,6,2,2,4,1,-4,43,53
1523209528023573,-49,-22,-30,-10,-2,-5,32,-28
1523209528045669,90,5,16,-14,-1,1,23,46
1523209528045669,-35,7,-42,-6,-1,0,-27,37
1523209528047637,-5,-10,33,8,5,6,-28,-25
1523209528047637,29,-11,-60,-17,-2,-2,8,41
1523209528058666,-5,-6,30,32,3,8,10,-23
1523209528058666,20,10,-7,55,-1,-6,-26,4
1523209528066690,58,9,-40,-22,-5,1,3,39
1523209528066690,-19,5,35,19,2,-4,-50,-13
1523209528081726,84,4,-30,-27,-2,-3,-4,1
1523209528081726,1,-15,30,6,4,2,-39,-23
1523209528083734,-23,-7,40,23,0,2,114,13
1523209528083734,34,14,6,-22,-3,-2,-4,18
1523209528104788,-12,13,12,18,3,2,-43,-34
1523209528104788,-23,-7,-5,-31,-11,-8,-1,-63
1523209528105792,44,2,-4,-6,-4,-8,-19,25
1523209528105792,-51,-8,12,11,4,4,-71,-3
1523209528119060,19,-3,4,-14,-4,-1,66,-10
1523209528119060,12,-7,-85,-18,-3,-2,6,-2
1523209528125844,29,-6,12,-17,-6,-6,-50,-10
1523209528125844,-65,-14,56,15,0,3,25,-12
1523209528141888,59,-6,-71,-5,-1,-6,-22,-4
1523209528141888,-79,-28,-41,-19,0,3,-15,-7
1523209528143893,4,9,64,16,-4,-9,-85,-4
1523209528143893,-9,14,17,-1,0,6,54,-19
1523209528163947,-40,-13,-7,-5,-2,-3,-6,21
1523209528163947,24,13,9,1,0,0,1,6
1523209528165952,34,7,-39,-1,5,4,-18,20
1523209528165952,4,-17,1,0,-3,-1,31,-6
1523209528178988,-33,-7,6,-10,-3,-5,-64,-29
1523209528178988,27,16,9,-4,2,4,32,-15
1523209528186237,-25,-3,18,16,-1,7,35,-2
1523209528186237,74,16,-5,-33,-4,-5,-12,8
1523209528202279,-34,-6,18,3,0,4,28,-2
1523209528202279,45,-1,42,-5,-2,-3,-10,34
1523209528204081,-117,-9,-49,-9,-1,-5,-1,-42
1523209528204081,-1,0,-22,0,1,-2,25,-15
1523209528224106,16,-23,17,3,-3,-1,-22,27
1523209528224106,-45,10,39,-6,-1,0,-8,-6
1523209528226110,72,8,0,6,3,1,51,46
1523209528226110,-5,2,-1,11,1,1,-54,-13
1523209528239148,-60,4,-11,-3,1,-2,-17,26
1523209528239148,21,-8,-19,4,1,3,31,-5
1523209528246262,2,1,-2,-16,-7,-5,-31,-42
1523209528246262,-90,-12,-11,9,-1,1,31,6
1523209528262207,28,2,2,-1,0,-3,-20,24
1523209528262207,67,1,-17,-6,-1,5,-24,-35
1523209528263210,-16,5,-2,0,-5,-10,-10,3
1523209528263210,16,4,45,0,-1,4,-24,-2
1523209528284498,14,-4,13,8,2,0,17,-27
1523209528284498,17,19,17,-10,-3,-7,9,19
1523209528286270,-6,-18,9,1,2,3,12,4
1523209528286270,7,-3,-4,4,-4,-3,3,-71
1523209528299416,62,2,-1,-1,0,-5,-46,-9
1523209528299416,-95,-2,37,1,1,-4,1,1
1523209528305328,89,12,28,-6,-3,4,29,-2
1523209528305328,-17,0,-26,0,-1,-6,-38,-11
1523209528322371,58,8,-40,0,-2,-4,-4,8
1523209528322371,-44,-19,-6,-8,-7,-5,32,12
1523209528323369,38,-4,4,5,1,-1,-37,2
1523209528323369,15,0,19,2,0,-2,14,-4
1523209528344426,-7,-5,0,-5,-1,5,31,9
1523209528344426,-18,-12,28,1,1,-4,-6,-11
1523209528346431,4,5,-20,2,0,0,-5,19
1523209528346431,13,9,-3,0,-2,-3,6,28
1523209528358462,-45,-29,47,5,-2,3,27,10
1523209528358462,3,8,-34,-3,0,-3,-45,3
1523209528365481,-30,0,35,-5,-2,-1,-50,5
1523209528365481,25,0,-18,4,0,4,-3,12
1523209528381524,-103,-1,-41,-9,-4,-3,-30,12
1523209528381524,23,-6,8,-1,-2,-1,24,-1
1523209528383529,-24,0,29,-2,4,-4,-70,1
1523209528383529,10,13,1,-3,-3,4,61,-7
1523209528404587,-19,-1,-8,0,1,-1,9,2
1523209528404587,2,11,10,5,0,4,-6,-9
1523209528405589,5,3,-33,1,-1,0,3,-2
1523209528405589,-17,-8,-5,3,1,2,5,27
1523209528418712,-6,12,27,-3,1,-2,31,-10
1523209528418712,30,-9,-66,-3,-1,1,-5,17
1523209528426645,-5,6,30,0,-1,1,47,-1
1523209528426645,82,18,-31,-5,0,-2,48,-6
1523209528441684,-56,-23,12,-6,-4,-2,-67,17
1523209528441684,-30,6,-70,-3,3,6,15,-43
1523209528443689,-58,-8,14,12,-1,0,33,18
1523209528443689,10,-10,-6,-9,-3,-6,-44,-12
1523209528464746,-17,1,-10,0,1,0,5,-5
1523209528464746,6,-17,11,6,-3,-6,-21,4
1523209528465749,62,16,-26,-1,4,2,23,-18
1523209528465749,-41,-3,18,0,0,0,-25,-2
1523209528477784,24,9,-9,3,-2,-1,-19,-19
1523209528477784,13,4,20,-6,-2,-5,24,40
1523209528486803,-12,-5,-7,4,1,1,3,-75
1523209528486803,37,-4,2,-6,-2,-2,-8,38
1523209528502078,-55,-2,0,-5,0,-1,-4,-35
1523209528502078,23,17,38,3,-5,-9,-76,17
1523209528503852,-43,-17,-17,-9,-3,0,93,28
1523209528503852,10,7,66,0,-3,-1,4,-4
1523209528523902,-74,-10,-51,9,-2,-4,-19,-52
1523209528523902,93,-5,15,-11,-9,-3,11,-12
1523209528525907,-19,-1,-2,0,-3,-5,-62,16
1523209528525907,-39,14,2,7,0,0,-13,-13
1523209528537944,76,-39,-2,1,1,3,31,34
1523209528537944,6,15,-7,12,4,2,9,38
1523209528546961,1,3,7,-16,-6,-1,1,-6
1523209528546961,-4,-26,-31,4,4,1,-15,3
1523209528562003,28,11,5,-15,-6,-4,29,3
1523209528562003,-61,-13,-17,7,1,-1,3,14
1523209528564009,42,-6,11,-9,-7,-1,-8,16
1523209528564009,-111,-5,-47,-2,-2,-5,-36,-37
1523209528585103,14,10,1,13,3,-3,17,5
1523209528585103,4,-4,19,-13,-5,-1,4,-28
1523209528586066,-16,11,27,1,1,-1,0,34
1523209528586066,58,-7,13,22,-3,-4,-19,27
1523209528598335,-1,-8,-70,0,3,-1,73,10
1523209528598335,-29,14,13,1,0,6,-19,-68
1523209528607123,-22,-22,-22,1,0,-3,-53,-28
1523209528607123,83,-14,-9,-7,2,6,27,32
1523209528622166,-47,1,59,4,-5,-8,-60,-12
1523209528622166,-3,5,-11,2,1,0,32,11
1523209528623168,-7,-11,-45,19,2,3,16,-9
1523209528623168,30,6,-5,-26,-5,-4,-20,21
1523209528644221,35,16,38,1,0,1,8,3
1523209528644221,-7,-12,-2,-13,-2,-6,-21,-4
1523209528646227,-3,5,-21,22,1,0,-17,-13
1523209528646227,-34,-8,-52,-25,-4,-3,0,-4
1523209528658259,-6,14,17,0,-3,1,12,-40
1523209528658259,11,0,-13,-14,-5,-5,-3,26
1523209528667283,35,11,3,10,4,2,-10,-2
1523209528667283,-42,9,73,-2,4,0,-69,-9
1523209528682322,22,-18,-1,14,2,3,-41,-7
1523209528682322,72,19,18,0,2,5,28,9
1523209528683326,-4,4,7,-13,-6,-6,-2,4
1523209528683326,-15,7,17,5,1,0,2,-10
1523209528704391,39,1,4,-13,-5,-6,-39,-23
1523209528704391,-24,6,21,19,3,2,25,-15
1523209528706391,-27,0,5,-20,-3,-3,-14,20
1523209528706391,22,-9,-25,13,-4,0,-9,8
1523209528718659,-30,12,47,-11,0,7,42,1
1523209528718659,2,-18,-58,-10,-3,-7,-3,27
1523209528727444,18,20,-1,-11,-3,-2,14,-39
1523209528727444,-56,-13,-15,12,-5,-4,-6,-15
1523209528741481,-2,15,16,-20,-3,-5,24,6
1523209528741481,-16,-2,5,4,3,4,-10,-17
1523209528743485,9,0,52,-6,-3,0,-48,-18
1523209528743485,80,9,1,-4,-7,-7,62,14
1523209528764541,-55,-7,-23,4,-4,-6,18,15
1523209528764541,1,-17,26,-2,1,-2,-16,0
1523209528766549,-19,-3,-14,7,-1,-2,-38,7
1523209528766549,10,-2,-20,-10,-4,4,-1,-19
1523209528778579,55,28,-12,-8,-4,-6,-13,18
1523209528778579,-35,16,4,5,3,3,4,4
1523209528792620,-21,-27,26,-4,-5,-3,6,5
1523209528792620,-14,2,9,-5,-1,-6,-45,-18
1523209528801872,81,11,41,-6,0,11,59,-19
1523209528801872,-27,-2,-17,1,-7,-11,-27,29
1523209528803648,-9,5,35,-5,0,3,18,-65
1523209528803648,-3,-2,-54,3,3,1,-14,-14
1523209528824703,-42,-33,-9,-1,0,-1,-7,44
1523209528824703,14,2,-20,3,0,4,12,9
1523209528825704,16,1,30,-10,-3,-4,2,-8
1523209528825704,-3,-10,20,-5,2,0,-50,-7
1523209528846995,-23,8,-26,31,3,3,-21,12
1523209528846995,28,10,5,-30,-6,-3,-12,14
1523209528848765,57,-26,-33,-7,0,-1,35,18
1523209528848765,-9,6,16,9,1,0,-22,-2
1523209528861801,2,3,3,0,1,-1,-21,-11
1523209528861801,21,-5,-23,2,-2,-5,-4,-17
1523209528863806,-86,-4,-18,2,-2,-2,-7,-15
1523209528863806,-6,-1,18,-2,-2,1,63,-15
1523209528885087,29,-10,-47,-4,-1,0,-14,19
1523209528885087,-103,-5,28,-7,0,-3,5,-23
1523209528885863,46,15,-37,1,4,3,21,20
1523209528885863,-42,-8,59,4,0,4,39,-44
1523209528906964,-5,-14,-88,-25,-6,-11,-39,4
1523209528906964,-37,-9,8,38,4,7,4,-29
1523209528908925,33,9,-6,-2,3,-4,-11,45
1523209528908925,-16,3,-2,-6,3,1,-21,20
1523209528928981,55,-7,4,-3,-1,-1,118,6
1523209528928981,3,5,14,2,1,1,-53,-2
1523209528930984,63,-6,-27,6,-1,-2,-25,-4
1523209528930984,74,7,0,1,-2,-10,25,22
1523209528944021,-4,23,4,-3,-1,0,-49,23
1523209528944021,13,-45,6,-4,-1,-1,4,20
1523209528946023,-68,0,46,-1,-3,-2,35,-31
1523209528946023,-6,3,8,0,-3,-5,-24,11
1523209528967082,-34,2,-11,-5,-2,-2,-69,-20
1523209528967082,44,5,-4,-6,-3,3,48,12
1523209528969220,25,2,12,1,0,-2,6,1
1523209528969220,-34,-15,-25,11,-3,2,34,0
1523209528981117,1,9,5,-6,-1,-4,-39,-20
1523209528981117,-3,-8,-45,-4,-3,2,-16,-4
1523209528988141,-19,8,-23,-6,-4,0,75,2
1523209528988141,13,3,-25,4,4,0,-28,11
1523209529004179,44,-9,34,5,0,2,7,-12
1523209529004179,38,6,38,-6,-2,-3,-9,-5
1523209529006184,65,-1,-31,-2,1,2,-8,68
1523209529006184,-36,6,-3,-5,-2,-1,11,-61
1523209529027278,32,-2,34,6,1,5,5,-3
1523209529027278,21,10,-6,14,-2,-8,-13,-19
1523209529028241,-21,4,-12,-15,-3,-1,1,24
1523209529028241,-21,-3,36,-4,-1,1,-14,16
1523209529041277,-1,14,17,9,1,0,10,26
1523209529041277,23,1,-12,-5,-2,-1,-22,-6
1523209529048527,-30,-21,3,10,5,3,-17,2
1523209529048527,9,11,10,0,-1,5,45,5
1523209529064338,-35,-5,-67,-4,-2,-12,-14,-5
1523209529064338,62,5,2,-4,0,-6,-79,7
1523209529066343,-49,0,-11,0,0,1,16,-24
1523209529066343,-63,-9,16,2,-1,0,-37,2
1523209529087400,47,1,-13,-3,-3,-7,-18,10
1523209529087400,6,2,-6,-8,-2,2,42,40
1523209529088404,-19,-5,23,1,-2,6,-20,-24
1523209529088404,24,25,-52,8,2,-4,1,-22
1523209529101671,-11,0,30,0,-2,-2,-27,1
1523209529101671,-94,-21,27,-1,1,0,1,6
1523209529108456,15,-3,-44,-10,-4,2,12,-9
1523209529108456,0,-18,-3,-1,1,5,32,35
1523209529124498,-32,-18,22,1,0,2,-18,-52
1523209529124498,-2,18,3,-5,1,-5,66,-18
1523209529126505,53,-1,-54,4,-1,-2,-40,25
1523209529126505,-11,-6,-3,-8,-6,-8,3,-21
1523209529147597,-6,0,5,0,2,4,7,0
1523209529147597,34,6,-14,-1,0,0,-41,-11
1523209529148561,-90,-23,-33,-3,-4,3,90,12
1523209529148561,17,-16,-8,-5,-7,-8,-17,-14
1523209529161598,-9,1,-14,1,-1,-2,-15,-41
1523209529161598,1,-20,-12,-6,-1,0,9,-8
1523209529168713,-37,10,71,-3,-5,-16,-37,-17
1523209529168713,70,14,-16,-3,-3,-4,-25,12
1523209529184892,-80,-22,11,1,0,5,79,26
1523209529184892,-10,15,31,7,0,-2,-28,-43
1523209529185660,38,2,20,3,0,-2,-61,-7
1523209529185660,-33,-16,-11,-1,2,10,54,-8
1523209529206717,86,7,2,-5,-1,-6,-52,3
1523209529206717,-47,3,-17,11,-1,2,57,1
1523209529208721,-11,-17,7,-16,-4,-6,-101,38
1523209529208721,-34,1,2,-12,4,5,89,-10
1523209529221757,3,-9,-40,31,1,1,17,62
1523209529221757,5,-13,2,16,-7,-10,-34,-30
1523209529227773,-4,-38,23,-15,3,2,19,-18
1523209529227773,18,24,-12,-6,-3,-5,-34,22
1523209529244879,-5,-16,18,-18,-6,-2,0,6
1523209529244879,70,7,-25,-7,0,0,-5,22
1523209529245820,14,18,-9,17,6,8,37,-26
1523209529245820,-16,-2,21,-3,-5,-10,-33,35
1523209529266875,-39,-1,24,-4,2,4,-26,-42
1523209529266875,87,13,17,3,-1,4,-13,51
1523209529268882,-19,8,34,-7,-4,-1,46,-28
1523209529268882,-3,-5,2,10,4,6,29,-1
1523209529280914,-2,8,-24,-4,-4,-5,-83,-8
1523209529280914,-25,-17,25,1,3,6,82,21
1523209529287935,-69,-7,-13,-20,0,1,-17,21
1523209529287935,56,-15,66,1,-3,-4,-48,-2
1523209529304980,-9,18,-27,13,-1,-3,28,-13
1523209529304980,25,11,2,-22,-2,1,-15,-17
1523209529305981,-5,0,6,31,4,-7,-19,-6
1523209529305981,-33,-8,-41,-9,-1,3,-21,-19
1523209529327036,37,-3,53,-11,-5,-9,38,8
1523209529327036,19,8,-22,-7,2,2,-26,31
1523209529328078,-58,-9,-8,5,-5,1,19,2
1523209529328078,15,6,-14,2,1,-2,-34,19
1523209529340071,4,22,-24,-5,-2,3,55,-1
1523209529340071,-84,-18,11,6,2,1,39,7
1523209529350096,19,10,8,4,0,2,-37,23
1523209529350096,-50,-1,-25,-9,-9,-6,-18,-41
1523209529364136,38,-13,7,-23,-3,0,96,14
1523209529364136,-16,20,47,23,0,-6,-24,-2
1523209529366147,14,-14,-108,-32,-4,-7,-10,9
1523209529366147,5,7,35,2,1,0,-15,11
1523209529387203,68,-1,0,1,0,0,-46,-11
1523209529387203,-7,24,-8,-11,0,-2,6,-5
1523209529388199,6,-3,-2,12,0,1,-8,-68
1523209529388199,-13,-10,-26,-1,-2,-1,43,6
1523209529400470,-83,-9,2,-2,0,1,-15,-2
1523209529400470,-11,-6,-28,1,1,-1,-10,-2
1523209529409254,46,21,33,3,-4,-3,42,2
1523209529409254,15,-8,30,3,3,6,-18,37
1523209529424294,-31,1,1,1,-2,-1,-5,-30
1523209529424294,0,-10,-37,-11,-5,0,-2,-10
1523209529426303,10,-18,5,11,2,-1,-17,6
1523209529426303,19,6,-10,1,-1,-3,-8,-8
1523209529447585,-19,-12,27,2,5,0,-74,7
1523209529447585,8,5,19,-2,0,7,40,-5
1523209529448357,51,0,42,-7,-5,-1,-29,-20
1523209529448357,-40,6,-10,3,1,-5,20,1
1523209529460392,-24,-25,-1,2,0,2,-27,6
1523209529460392,0,-1,51,-2,-2,-5,-25,5
1523209529469414,-63,19,6,-1,-2,-2,-4,-79
1523209529469414,-50,-16,11,-1,0,0,34,16
1523209529484689,5,25,23,-4,-4,-9,-65,4
1523209529484689,17,-22,-57,-2,-1,3,67,-22
1523209529486465,99,17,0,3,2,2,2,60
1523209529486465,-24,-10,2,-2,-2,4,-23,-33
1523209529506513,-28,6,-16,4,-3,-10,-54,-3
1523209529506513,-11,1,-15,-1,2,6,72,-10
1523209529508519,43,4,-10,-5,-6,-1,-30,22
1523209529508519,-1,-7,33,0,-1,-1,-5,-13
1523209529520560,-1,15,34,2,5,10,31,11
1523209529520560,29,-9,42,4,3,-3,-53,-7
1523209529529574,17,4,34,-5,-1,-4,36,1
1523209529529574,-22,-3,-43,-3,-3,1,-5,-20
1523209529544849,-11,-11,-2,2,-2,-2,40,7
1523209529544849,-60,4,10,-9,-3,-4,-61,-67
1523209529546658,33,-5,-36,1,2,-1,13,-25
1523209529546658,86,8,-13,-8,1,-1,-20,13
1523209529567674,-35,-4,-11,21,-1,3,31,-7
1523209529567674,9,6,-50,-11,-6,-3,-18,16
1523209529568678,-1,22,10,7,2,7,55,16
1523209529568678,-62,-11,-6,-5,-3,-11,-44,-27
1523209529580711,17,-2,-24,-6,-2,-1,55,23
1523209529580711,19,-1,16,3,-5,-10,-97,5
1523209529589737,-128,-17,-2,17,-2,1,38,15
1523209529589737,46,18,-11,4,2,-1,-15,-9
1523209529604781,69,-7,-58,-2,-3,-1,-8,5
1523209529604781,-58,-9,47,-2,-2,-8,-4,1
1523209529605778,-42,-18,-53,10,-6,0,-22,-55
1523209529605778,51,16,38,-10,3,0,19,12
1523209529635081,12,-17,-16,-7,-4,-5,-33,3
1523209529635081,19,9,-50,-4,0,0,-17,18
1523209529635857,-26,-19,15,4,-1,-3,40,-9
1523209529635857,11,10,27,12,-3,-1,7,13
1523209529640876,-6,-17,22,-15,1,4,6,-49
1523209529640876,-46,2,19,0,0,1,2,-12
1523209529649893,22,-4,34,-8,0,0,-12,39
1523209529649893,39,3,15,-2,-4,-2,-28,21
1523209529663931,-71,-5,24,-11,-2,-5,-62,-58
1523209529663931,16,13,-22,9,0,11,93,18
1523209529665937,52,-5,29,-3,0,-9,-69,0
1523209529665937,52,5,12,-6,0,0,48,20
1523209529687000,36,18,46,10,3,2,-6,-17
1523209529687000,-7,-9,-35,3,-1,-5,-20,24
1523209529688998,22,16,-2,-13,-3,0,-6,2
1523209529688998,-44,-13,6,8,4,-2,43,45
1523209529701237,22,11,11,4,0,7,41,-20
1523209529701237,-91,-40,62,-8,-9,-10,-23,-13
1523209529710095,12,14,17,-5,2,3,3,65
1523209529710095,19,-24,-51,-2,-2,-1,-37,14
1523209529724090,-47,11,-26,3,2,-1,14,24
1523209529724090,42,44,-5,-12,-5,-7,-78,-6
1523209529726096,-10,0,-3,1,0,9,41,11
1523209529726096,28,1,64,3,-3,-1,-22,-29
1523209529747387,32,10,-43,-2,-2,-5,38,9
1523209529747387,-74,-17,25,3,2,2,-18,-12
1523209529749209,15,2,-45,-5,0,-2,-51,-5
1523209529749209,28,-1,-28,-4,-2,0,49,-8
1523209529769210,37,2,8,-3,-2,3,10,42
1523209529769210,4,4,19,1,2,4,7,-2
1523209529771216,-58,-19,-35,-4,-3,-8,-44,-6
1523209529771216,-51,3,-33,1,4,5,29,-68
1523209529784483,-24,-6,12,-8,-7,-7,-15,3
1523209529784483,-3,20,12,-1,-2,-4,15,-38
1523209529786263,35,-7,10,2,3,4,-5,5
1523209529786263,-27,-6,-46,-5,-5,-1,-32,0
1523209529807314,-30,-4,-30,-1,2,0,-9,-7
1523209529807314,79,18,4,1,-2,-3,22,14
1523209529808317,-27,-19,-15,-9,-7,-9,85,-2
1523209529808317,18,1,-12,-4,-2,1,-5,-23
1523209529829371,-8,-11,55,1,1,-1,-25,13
1523209529829371,21,-24,-96,-3,-3,-4,19,10
1523209529831376,11,20,8,3,2,-1,-29,-7
1523209529831376,35,11,-23,3,-1,1,3,40
1523209529844643,-46,-5,9,-6,-5,-6,19,-30
1523209529844643,43,-4,5,-1,0,-2,-30,49
1523209529846416,-45,-4,4,3,0,3,-10,-67
1523209529846416,21,6,4,0,0,-4,13,-13
1523209529866470,24,2,12,0,-1,1,-18,10
1523209529866470,-5,-14,12,-1,-1,-4,-1,-26
1523209529868475,82,13,-43,-4,-1,-2,-9,-20
1523209529868475,-33,0,15,-3,0,-6,-98,40
1523209529889531,-16,-14,11,6,3,7,46,-7
1523209529889531,29,-10,3,1,0,2,0,-31
1523209529891537,35,8,69,0,-2,-2,16,27
1523209529891537,-28,-7,-22,-7,-4,0,-19,-18
1523209529903577,19,4,-17,-7,-5,-5,-11,42
1523209529903577,-8,11,-13,-2,2,6,11,2
1523209529910587,6,13,20,1,-2,-6,-78,-1
1523209529910587,-72,-3,-17,2,4,3,30,-36
1523209529926629,8,3,-14,-5,-3,2,18,36
1523209529926629,38,-7,-2,9,2,4,16,-4
1523209529928635,-76,-20,-17,-7,-6,-10,-29,-17
1523209529928635,15,2,19,-2,-4,-7,11,3
1523209529949926,18,-5,-3,2,0,1,-37,4
1523209529949926,-51,-25,1,-9,-3,-1,89,6
1523209529951723,42,-10,-19,8,3,5,8,-12
1523209529951723,-20,0,20,2,0,0,-32,29
1523209529963727,25,10,7,7,3,4,56,3
1523209529963727,28,-16,-70,-11,-7,-9,-42,-42
1523209529970750,-77,5,26,-11,-3,6,6,12
1523209529970750,51,-23,-77,0,0,4,17,-8
1523209529986790,37,6,30,2,3,-5,-34,2
1523209529986790,-20,1,6,-1,-2,1,-14,-31
1523209529988795,39,12,-18,2,1,2,33,-19
1523209529988795,-97,-22,46,-8,-4,-4,-26,-11
1523209530009850,-55,1,-17,-5,-2,-4,5,-11
1523209530009850,-22,7,39,-7,-4,-3,-16,8
1523209530010853,13,-19,26,-3,-4,-3,-17,26
1523209530010853,31,11,0,7,2,0,99,-2
1523209530023889,2,0,-2,-1,-4,0,16,-20
1523209530023889,-45,15,-16,3,0,0,2,20
1523209530030907,57,-16,8,0,-1,-2,6,-13
1523209530030907,77,18,46,6,-2,6,27,-19
1523209530047182,-16,-1,-44,-12,-7,-10,-47,-6
1523209530047182,3,-4,15,0,0,6,10,13
1523209530049176,32,29,-66,-5,-3,-7,-23,11
1523209530049176,-30,-4,-23,0,-2,-2,-11,8
1523209530069009,-27,-3,12,-2,0,1,-6,-11
1523209530069009,20,8,52,4,1,1,-1,25
1523209530071016,-45,-24,-16,10,1,2,6,-4
1523209530071016,-14,-15,-41,-15,-7,-3,-84,1
1523209530084283,-23,10,-19,3,1,5,96,-32
1523209530084283,3,-4,4,1,0,-6,-49,49
1523209530090065,19,6,12,2,1,5,62,-17
1523209530090065,-11,-5,4,0,-2,-5,-29,0
1523209530107109,-2,-29,5,2,2,3,-51,-7
1523209530107109,20,4,-17,4,4,4,11,-10
1523209530108151,-107,-3,13,-6,-4,-17,-30,5
1523209530108151,92,11,46,0,-4,-5,37,9
1523209530129169,0,4,14,1,0,-3,5,-35
1523209530129169,16,-6,-1,1,-1,-3,-20,5
1523209530131175,-54,-3,17,1,4,7,14,28
1523209530131175,3,12,12,-7,-4,-5,13,1
1523209530144407,27,5,15,0,-4,-7,-31,28
1523209530144407,17,1,-5,2,1,-2,-56,-19
1523209530151246,-46,2,41,-2,-1,3,-24,0
1523209530151246,-69,-11,-10,-5,-2,-1,19,-11
1523209530167268,3,-10,-3,-6,-5,-3,-14,0
1523209530167268,-96,-8,-21,-1,-2,-3,9,-9
1523209530168362,59,15,18,5,3,4,-16,-7
1523209530168362,32,-1,-23,0,1,5,-8,34
1523209530189326,36,-8,-17,-8,-5,0,8,-42
1523209530189326,27,-6,9,0,1,-1,15,11
1523209530191333,19,10,-44,-4,-1,-5,-29,9
1523209530191333,2,-8,68,3,3,4,6,-16
1523209530204371,14,-13,-46,3,1,1,26,22
1523209530204371,-41,-10,-29,-3,-4,-3,8,11
1523209530210385,9,13,50,6,3,2,18,-29
1523209530210385,14,0,-36,1,-1,-8,-49,33
1523209530227428,23,-10,35,0,2,0,61,1
1523209530227428,-52,-4,-13,-3,-2,1,-33,-46
1523209530228433,99,7,11,0,-3,-1,-40,38
1523209530228433,-44,-18,-48,2,0,3,14,-32
1523209530249719,-23,7,-36,-2,-3,-3,-34,68
1523209530249719,9,7,33,-3,-3,-2,2,0
1523209530251692,-7,-8,12,-1,-1,0,9,-20
1523209530251692,15,17,56,5,-1,-6,-8,2
1523209530263525,36,14,-50,-9,-5,-2,3,1
1523209530263525,9,-15,-44,-4,-3,-3,-1,-5
1523209530272549,4,5,-7,-1,-3,1,-25,6
1523209530272549,6,-18,18,0,2,1,22,-27
1523209530286588,-25,3,2,12,1,-6,-36,-26
1523209530286588,8,-18,-35,-14,-4,-3,32,-2
1523209530288591,-19,-9,-13,10,-4,-4,-10,1
1523209530288591,21,22,-31,3,3,5,-26,1
1523209530309649,13,-8,-18,-7,-2,9,105,35
1523209530309649,33,-2,-9,2,2,2,-22,-5
1523209530310650,-6,-27,-29,-14,-4,-3,41,9
1523209530310650,-59,1,13,9,-2,-7,-78,5
1523209530322681,6,8,16,-5,-1,7,3,20
1523209530322681,-3,11,23,-2,-2,-4,28,31
1523209530331912,-30,-6,39,-2,0,2,14,-9
1523209530331912,64,11,-32,-5,-2,-2,4,5
1523209530346980,-100,-9,6,4,1,-1,-44,-19
1523209530346980,38,16,13,0,1,4,4,15
1523209530348750,39,9,-41,-8,-3,-4,5,-3
1523209530348750,-57,-19,4,-6,-6,-3,0,-13
1523209530369808,14,-12,30,2,2,-1,-40,14
1523209530369808,5,28,4,-3,-3,0,20,-23
1523209530370815,21,-2,-23,5,-3,-8,-66,3
1523209530370815,-38,13,-6,-2,5,10,31,3
1523209530382843,46,-2,12,0,1,-1,-17,-23
1523209530382843,-13,7,52,0,-4,-9,-8,14
1523209530391866,26,10,-15,-9,-3,-1,-17,-39
1523209530391866,-30,-13,1,3,0,-4,-3,11
1523209530406911,79,10,6,5,2,3,-11,-9
1523209530406911,-58,-15,35,0,2,3,-15,-23
1523209530408911,-7,12,26,-6,-4,-1,10,1
1523209530408911,9,-2,17,-8,-2,2,-20,7
1523209530428966,-8,3,21,-1,-1,-3,24,-2
1523209530428966,39,-8,-13,11,2,-1,0,-1
1523209530430969,-24,-17,18,-5,1,2,23,9
1523209530430969,3,7,-6,-2,-3,1,16,-4
1523209530443208,-5,-1,-10,-9,-4,-11,-76,19
1523209530443208,0,-19,-71,-1,-2,-8,36,-56
1523209530452026,-9,-3,5,3,2,-1,15,-38
1523209530452026,36,-5,-17,-7,-4,-1,-31,21
1523209530467064,-25,-9,-9,0,-2,2,-18,-36
1523209530467064,7,14,31,2,-4,-1,7,14
1523209530469075,-2,2,23,7,5,3,-17,12
1523209530469075,-24,9,-28,-4,-2,-5,10,-2
1523209530489124,21,16,3,-4,-2,0,9,-3
1523209530489124,-4,-8,1,0,0,-3,-54,24
1523209530491129,-21,-2,12,-8,-4,1,40,3
1523209530491129,31,5,20,6,1,2,53,11
1523209530503167,-35,31,50,2,0,-3,-15,-18
1523209530503167,3,-6,-30,-5,-4,2,3,16
1523209530518240,-71,-20,-53,-4,-3,-7,-33,-44
1523209530518240,39,-3,28,4,-4,-6,0,-13
1523209530527226,57,-8,-10,5,3,3,19,69
1523209530527226,-56,-14,2,-2,-2,4,55,-14
1523209530528227,49,12,13,-1,-2,-7,-27,19
1523209530528227,-52,-6,-10,-7,0,5,-15,-4
1523209530549518,-38,-10,-49,7,-3,-1,-6,-19
1523209530549518,33,-8,-10,-7,-2,5,-15,10
1523209530551289,30,-8,-24,-3,-5,-6,-21,40
1523209530551289,-11,-3,-21,2,1,0,2,-22
1523209530563322,-9,4,-20,-4,-3,-6,-26,-2
1523209530563322,7,3,-3,0,1,3,6,-26
1523209530572345,-15,13,-41,0,-4,0,12,-10
1523209530572345,5,-41,18,-7,-2,-1,2,7
1523209530587392,-38,-12,17,2,1,3,1,-15
1523209530587392,-81,1,9,-6,-4,-6,7,-31
1523209530588390,1,-1,10,6,3,2,23,31
1523209530588390,61,31,15,4,4,5,-7,6
1523209530609443,-4,3,-53,-2,0,-10,-10,3
1523209530609443,17,-16,7,-5,0,10,21,58
1523209530611449,-7,-1,-3,-1,2,3,7,-28
1523209530611449,-26,0,36,8,2,-1,-3,-3
1523209530623481,-25,-3,-3,-4,0,-2,-31,-18
1523209530623481,26,2,20,4,2,-2,-22,15
1523209530632505,1,-2,-39,-7,-1,2,53,-18
1523209530632505,-9,-11,-9,-7,-4,-1,-31,9
1523209530647582,-35,0,4,-8,-5,-8,50,33
1523209530647582,84,20,26,-1,0,4,3,28
1523209530648547,49,-6,43,0,0,3,-18,-37
1523209530648547,20,-1,-28,7,-1,-7,-25,-20
1523209530669607,73,27,51,-2,0,3,101,2
1523209530669607,-23,-6,-102,-4,-6,-9,-48,-16
1523209530671609,-69,-3,64,2,-2,-2,-45,38
1523209530671609,4,5,7,-4,-3,2,41,-66
1523209530683708,38,6,43,4,2,4,-28,-5
1523209530683708,-38,-3,20,-2,0,-9,-11,16
1523209530691663,5,-2,5,4,2,5,8,11
1523209530691663,-14,-3,-30,-7,-6,-10,-29,15
1523209530706704,-17,-8,0,-3,-2,4,34,-5
1523209530706704,-64,-23,37,-1,1,-3,-17,-18
1523209530708707,-28,-14,-27,3,1,-2,2,6
1523209530708707,-7,-6,26,-1,0,1,18,30
1523209530729766,-35,-13,-45,-5,-6,-3,-40,-57
1523209530729766,11,-2,-8,2,-1,0,-2,3
1523209530730765,-40,8,31,-2,-3,-6,1,4
1523209530730765,55,1,-49,3,2,-3,-58,9
1523209530751824,-12,10,-11,-2,0,9,85,-18
1523209530751824,-4,-7,50,-4,-4,-4,-22,-10
1523209530753828,56,-12,-20,-5,-1,-4,-64,9
1523209530753828,-8,6,12,3,1,4,56,50
1523209530774885,-21,3,6,-6,-1,-7,-26,-22
1523209530774885,61,4,-34,7,6,8,11,-23
1523209530775886,-43,12,-8,-5,-3,-3,10,36
1523209530775886,-13,-5,-21,-3,-2,2,38,-15
1523209530789926,-27,-19,18,-1,-1,-4,-33,15
1523209530789926,51,17,16,-2,-2,-5,-5,12
1523209530790927,46,-1,-32,-1,-1,-1,-1,-14
1523209530790927,-100,3,17,-1,0,3,-17,-53
1523209530811982,30,-15,-13,4,-1,-3,-8,47
1523209530811982,27,21,57,0,2,3,-37,-16
1523209530813987,-46,-13,-59,-5,-3,1,116,-5
1523209530813987,-25,6,17,-1,-1,-1,12,-1
1523209530827021,30,-28,-4,-1,0,0,-41,11
1523209530827021,7,11,24,6,3,3,-3,29
1523209530828025,-63,-5,-8,-3,-3,-5,-9,-73
1523209530828025,28,3,10,-4,0,-3,-19,12
1523209530850121,-6,14,0,-3,-4,1,36,-25
1523209530850121,8,-6,-40,0,-1,-2,0,1
1523209530851085,8,9,39,1,1,-1,-31,5
1523209530851085,-20,-10,-7,2,-2,-1,5,-15
1523209530872141,-10,-1,-46,-1,-2,0,-17,13
1523209530872141,-3,25,-22,-4,-1,-3,16,-23
1523209530873145,-36,0,20,2,-2,5,-31,-11
1523209530873145,4,-5,-22,-5,-2,-9,-13,51
1523209530886181,-44,-1,18,6,3,1,-40,3
1523209530886181,-1,4,2,-4,-3,4,30,5
1523209530893431,85,-1,-36,-2,-3,-4,-11,8
1523209530893431,-1,0,-2,0,-1,-3,-13,-7
1523209530909279,-75,-9,-2,-3,-2,-2,28,-24
1523209530909279,-24,-15,-19,0,-2,-1,-10,-9
1523209530911247,27,9,24,3,1,4,-13,22
1523209530911247,32,9,16,4,-1,5,19,3
1523209530932536,35,0,-6,-3,-1,-3,-45,-13
1523209530932536,-12,-1,7,-6,-4,0,42,20
1523209530933303,18,-12,-27,0,1,-1,13,13
1523209530933303,79,8,10,2,0,-2,-36,9
1523209530946573,-37,-5,64,-2,-3,-3,108,-68
1523209530946573,-20,-34,-47,4,0,-3,-7,2
1523209530953364,0,8,3,-6,-4,-1,-15,18
1523209530953364,78,13,6,-6,-3,2,8,-49
1523209530969411,-69,-7,9,3,-2,-5,-67,45
1523209530969411,-2,-6,22,0,0,-2,10,-32
1523209530971405,7,1,-3,4,1,2,25,-6
1523209530971405,-41,7,10,8,5,2,-19,-2
1523209530991459,13,-2,-28,-7,-1,6,-16,15
1523209530991459,14,5,-2,-2,-2,0,36,-19
1523209530993463,27,-5,-1,1,-1,-3,-20,12
1523209530993463,-32,-6,12,-9,-7,-2,6,21
1523209531006498,43,15,-42,7,6,6,-27,7
1523209531006498,15,-11,5,-8,-2,-12,-103,32
1523209531013517,2,10,5,0,1,3,20,3
1523209531013517,-32,-23,57,-2,-2,3,76,-9
1523209531029560,127,0,-38,-4,-2,-3,-27,18
1523209531029560,-107,-3,-6,4,-1,-5,12,-21
1523209531030562,-2,-14,-1,-10,-5,-2,-15,10
1523209531030562,-11,-4,-23,-3,0,-2,-25,-15
1523209531051619,-9,5,-6,3,2,3,24,-8
1523209531051619,13,18,74,3,2,-2,-37,-6
1523209531053628,62,-18,-17,-4,-3,-3,-4,47
1523209531053628,-3,-10,-21,-4,-3,-6,32,-25
1523209531066658,-15,2,29,0,0,-1,-13,-3
1523209531066658,-11,-29,-38,-3,-3,-1,-71,-5
1523209531072675,-37,4,19,5,5,9,108,-67
1523209531072675,25,0,31,-1,-5,-3,-20,15
1523209531089721,-43,-11,-59,-6,-5,-5,-25,-18
1523209531089721,-37,22,41,-5,-7,0,10,-13
1523209531090722,-39,-5,0,-2,-1,-7,-40,-33
1523209531090722,39,-4,-58,2,2,1,28,18
1523209531111778,2,5,16,-4,-3,-5,-18,29
1523209531111778,20,-11,7,0,-1,6,79,-27
1523209531113786,-42,4,9,-5,-4,-5,-55,-29
1523209531113786,-39,-8,-22,-2,-3,-5,-4,-11
1523209531125816,42,1,7,-7,-6,-5,-13,6
1523209531125816,30,12,-13,4,3,1,-33,27
1523209531133069,-23,-12,-33,-1,0,5,100,-13
1523209531133069,-23,-11,24,5,-2,-5,-42,-14
1523209531150081,-7,16,11,-3,-3,-3,-12,48
1523209531150081,-36,-10,-15,-3,-3,-6,33,-37
1523209531150882,-36,5,-6,1,-1,-4,-24,14
1523209531150882,68,11,8,4,3,9,6,38
1523209531171942,49,-4,-6,2,-1,-4,-7,9
1523209531171942,5,2,-60,1,1,2,40,6
1523209531173943,23,15,31,-7,-2,0,-34,10
1523209531173943,-1,-5,5,0,1,0,19,42
1523209531185982,14,13,-19,0,1,4,-4,3
1523209531185982,85,-28,-6,-2,1,2,-4,-4
1523209531192994,5,-1,3,7,3,2,11,-1
1523209531192994,-3,6,-25,-13,-9,-17,-116,4
1523209531209038,-27,-25,-10,-5,-1,7,57,-23
1523209531209038,-7,13,24,3,-1,-3,-6,11
1523209531211042,24,6,11,-2,-2,2,-33,-4
1523209531211042,-8,-1,-17,3,1,2,-22,-18
1523209531232331,-9,16,29,7,4,2,11,32
1523209531232331,-15,-6,6,-8,-3,2,24,43
1523209531233337,33,-16,-8,4,1,-7,-37,63
1523209531233337,-68,-1,-78,-5,0,-4,-25,-101
1523209531246231,-8,-7,48,-2,2,3,25,-12
1523209531246231,5,12,1,1,1,8,21,5
1523209531254158,20,12,32,-1,-2,2,-3,-3
1523209531254158,-41,-8,4,1,-2,0,4,20
1523209531269204,-13,4,-2,-3,-1,2,14,-30
1523209531269204,-6,0,-4,-3,-5,-9,-98,-19
1523209531271210,-2,1,-16,-3,1,-4,83,-18
1523209531271210,39,13,10,4,-2,-3,-21,9
1523209531292259,-96,-6,-3,-1,-5,1,-10,-16
1523209531292259,-39,-10,60,0,1,3,27,29
1523209531293261,28,3,-51,6,0,0,-9,47
1523209531293261,-10,-10,-2,-8,-4,1,13,-12
1523209531314375,29,7,54,3,0,-5,-6,5
1523209531314375,27,14,48,5,0,-2,13,24
1523209531314375,-26,-11,-7,-4,-4,-3,-36,-19
1523209531314375,-35,-1,24,3,2,4,57,-7
1523209531328354,-2,-7,-55,-4,-3,-10,6,-20
1523209531328354,23,10,13,-6,-4,1,22,37
1523209531329356,22,-17,6,-5,-3,-6,-32,-35
1523209531329356,-29,20,23,2,-1,-3,-79,18
1523209531351417,-69,-22,-20,2,3,12,48,4
1523209531351417,33,6,-41,0,0,-2,-12,11
1523209531352426,-87,-9,-3,-4,1,-2,-42,-5
1523209531352426,25,21,2,-1,-2,0,22,1
1523209531373474,75,-12,2,5,-1,-2,-24,32
1523209531373474,-43,5,-27,-9,-7,-4,8,-44
1523209531374476,-4,4,36,-3,-3,0,-29,-22
1523209531374476,37,-10,27,-7,0,0,29,14
1523209531388513,-1,6,-71,-1,-1,-7,-50,-3
1523209531388513,12,-10,0,7,5,6,44,-22
1523209531389516,5,12,-31,-3,-2,1,70,9
1523209531389516,14,4,-1,-6,0,1,20,15
1523209531411615,-34,2,45,0,-3,-12,-28,-24
1523209531411615,-53,-11,-36,-6,-5,-7,-77,-22
1523209531411615,81,-15,-18,1,1,7,102,-21
1523209531411615,-32,-18,18,-1,1,1,12,41
1523209531433869,18,15,-23,-2,-1,-1,-9,1
1523209531433869,-37,-22,-37,0,0,-3,-20,-11
1523209531434640,-65,-2,-6,-2,-2,-5,-56,-9
1523209531434640,57,7,11,7,4,5,4,-30
1523209531448905,47,-6,6,-5,-3,-3,-1,1
1523209531448905,-2,14,32,9,3,1,0,-6
1523209531449675,44,6,-58,-7,-2,-1,-27,10
1523209531449675,3,-13,-3,-3,-1,1,57,20
1523209531470740,-73,3,8,1,2,5,-18,-25
1523209531470740,12,-4,-6,3,3,-3,-8,6
1523209531471736,0,14,10,5,1,0,-50,0
1523209531471736,-60,-3,38,-6,-3,-3,11,5
1523209531494028,86,-11,-23,-2,-3,-5,-1,23
1523209531494028,72,6,-50,-6,-4,3,16,-1
1523209531494796,-97,-7,65,-1,-3,-8,67,-27
1523209531494796,-62,-14,-28,4,-1,-6,-22,-25
1523209531508833,18,5,-21,1,1,3,-18,-2
1523209531508833,-23,7,6,-1,0,-1,20,20
1523209531515853,51,-12,-10,-2,-4,-4,-40,13
1523209531515853,-22,1,-44,2,-3,0,-33,-37
1523209531531920,37,5,59,-1,-1,2,58,-7
1523209531531920,-19,-8,14,3,-1,-7,-69,-2
1523209531531920,25,-4,23,0,3,6,45,-43
1523209531531920,34,13,48,-1,-4,-4,-6,23
1523209531553954,4,-14,-47,1,1,-4,-39,28
1523209531553954,34,-15,-11,-5,-5,2,10,-55
1523209531554956,-41,5,9,-2,-1,-4,-28,-4
1523209531554956,-17,-4,6,-1,0,-5,-82,-42
1523209531569000,-3,0,-28,0,0,6,11,-19
1523209531569000,8,-5,60,-3,-4,-4,14,44
1523209531569997,52,11,-2,6,3,-1,3,30
1523209531569997,-11,3,-35,-5,-3,-1,-39,-5
1523209531591052,36,7,16,5,0,-1,14,-12
1523209531591052,-42,0,-34,-6,-2,1,-13,-24
1523209531592056,55,1,15,-1,-4,-3,-15,21
1523209531592056,7,-11,-28,-4,-3,-4,6,26
1523209531614349,-28,-2,-8,-4,-2,0,17,-30
1523209531614349,10,1,-9,3,1,1,27,31
1523209531614349,11,9,6,6,3,0,-26,6
1523209531614349,-5,-13,-20,-3,-1,-1,7,19
1523209531629153,-84,-10,54,3,-1,0,-6,-67
1523209531629153,22,-17,0,-6,-5,-4,-9,8
1523209531629153,-41,11,-68,-2,1,1,-84,13
1523209531629153,55,31,22,4,4,6,114,9
1523209531651216,43,10,-22,0,0,0,-1,47
1523209531651216,-70,1,-1,-8,-6,-6,-18,-35
1523209531652218,11,0,43,-3,-1,-4,3,8
1523209531652218,-11,-15,13,7,3,3,4,-12
1523209531674273,54,-3,16,3,1,-3,-2,12
1523209531674273,-6,6,-19,0,2,3,12,10
1523209531674273,-15,-15,26,1,-1,-2,10,7
1523209531674273,11,6,44,-5,-2,0,-23,4
1523209531688313,-19,-7,5,-8,-3,-3,7,-58
1523209531688313,42,4,16,1,2,1,-4,-1
1523209531689312,-117,3,5,-1,-3,1,-25,1
1523209531689312,70,-7,20,7,-1,-1,19,33
1523209531711371,9,3,57,-2,-2,-3,-32,9
1523209531711371,61,-6,-28,-7,-3,-5,-29,6
1523209531712374,-8,-10,-18,-1,-5,-1,54,37
1523209531712374,-14,-2,8,1,0,-3,-23,-34
1523209531733662,34,-23,9,-6,-4,-5,58,-10
1523209531733662,-75,11,-27,0,2,4,-2,-4
1523209531734432,65,0,21,-1,-2,-1,-30,10
1523209531734432,-21,-9,-36,0,-1,4,8,-19
1523209531748704,3,6,-19,1,0,-3,-37,10
1523209531748704,9,5,-2,5,-1,-2,-3,8
1523209531749472,18,-16,18,-2,1,0,70,11
1523209531749472,-115,5,-89,-2,-2,-1,-23,-22
1523209531771531,-11,29,-18,-3,-2,-1,-25,-20
1523209531771531,14,1,-1,0,1,-1,19,-10
1523209531772535,10,1,15,5,1,2,23,12
1523209531772535,24,8,2,1,0,-1,6,24
1523209531793822,-74,-15,21,1,-2,1,-17,37
1523209531793822,-32,-6,-11,-1,1,-9,-60,10
1523209531794591,1,10,20,-7,-3,1,3,-31
1523209531794591,8,-3,-24,-7,-1,-3,-3,-4
1523209531808630,-8,-4,-7,5,2,2,-11,6
1523209531808630,3,1,16,-1,-1,1,16,-14
1523209531809634,-27,-8,-9,-4,-2,-6,-80,6
1523209531809634,-12,-8,-5,1,-1,4,75,-6
1523209531831881,2,2,1,-10,-5,-2,-5,14
1523209531831881,-51,7,-40,0,-3,1,11,-2
1523209531831881,80,12,4,-3,-1,0,9,18
1523209531831881,18,-11,90,5,0,1,6,-8
1523209531853757,-24,-4,-17,-3,-2,-6,-28,-10
1523209531853757,-84,-7,-19,1,1,3,19,-1
1523209531854752,-18,-8,-55,-10,-6,-5,-10,-16
