timestamp,emg1,emg2,emg3,emg4,emg5,emg6,emg7,emg8
51375460280,-4,-4,5,-9,-1,-1,-41,-12
51375460280,-4,2,-4,-21,1,0,-4,-6
51375465801,-13,-14,8,77,12,4,-6,32
51375465801,4,4,-27,-65,-15,2,31,-10
51375467376,-2,-2,31,-18,-7,-4,3,10
51375467376,4,-1,-74,0,0,-1,-1,-38
51375468220,-3,-1,13,4,-5,-1,34,11
51375468220,1,-10,35,52,10,2,-16,34
51375479502,-3,1,-2,-25,1,0,28,9
51375479502,-6,-12,-38,-46,-11,-7,-45,101
51375487679,2,12,-1,2,5,2,70,-29
51375487679,2,7,-3,27,9,1,-36,64
51375493981,-4,-3,-6,26,-12,-3,8,23
51375493981,4,3,10,70,9,2,-22,-65
51375508883,4,24,-2,-127,-29,-6,-16,60
51375508883,-3,1,11,90,8,-6,-31,-46
51375517618,6,2,-4,16,8,2,-15,-14
51375517618,-4,1,7,5,3,-1,57,16
51375525452,1,-11,-10,-45,-6,-2,-41,-21
51375525452,-18,-5,-21,-52,-8,-1,3,-2
51375539763,14,4,-67,8,1,-2,2,-57
51375539763,3,8,27,25,2,1,14,-72
51375547634,-1,-21,49,2,6,2,-6,-19
51375547634,15,-4,-36,0,-14,-8,27,57
51375577633,-3,-2,8,-70,3,3,12,-13
51375577633,-1,4,24,27,-1,-2,5,-60
51375586423,0,3,-6,-15,-2,0,6,11
51375586423,29,10,-14,5,-1,4,-22,1
51375587246,-3,0,6,6,0,-7,-2,48
51375587246,-4,-3,-3,-5,-3,-3,-44,-12
51375588074,-5,14,0,24,-1,-2,37,-55
51375588074,1,3,10,12,5,6,12,23
51375599285,2,-13,0,-20,-1,1,8,34
51375599285,3,15,11,-22,-4,-1,-27,-7
51375606100,-3,-6,13,-23,-18,-1,25,52
51375606100,2,1,-15,16,4,-5,-11,-9
51375613605,21,13,13,77,12,0,-13,-22
51375613605,-21,-29,-6,-70,-7,-4,7,29
51375628769,-3,-12,-12,-6,0,-1,8,-78
51375628769,-9,-1,11,-29,-3,1,-9,-2
51375636248,-7,-5,-9,-1,-6,-3,7,12
51375636248,13,7,-5,4,7,1,-32,-71
51375645172,8,9,-2,27,-5,1,16,-18
51375645172,-12,-20,1,-58,-4,-6,-14,28
51375659957,-2,11,29,26,0,-2,8,-32
51375659957,41,-4,-9,16,3,4,6,59
51375666281,-54,-24,5,-4,7,0,-5,10
51375666281,2,0,3,10,-4,-5,-6,-33
51375673810,-8,-7,-29,-18,-6,0,-36,59
51375673810,2,10,-2,0,-5,-3,76,-64
51375688778,26,6,4,53,11,-7,-60,25
51375688778,-7,0,25,1,-1,3,22,11
51375696299,-14,-14,-32,-29,-6,0,-5,-12
51375696299,-5,12,10,21,0,2,35,26
51375705102,2,10,-6,-21,2,-1,33,-51
51375705102,10,-1,-4,44,-3,-2,-6,-12
51375719519,6,15,-10,-13,-3,-1,30,-15
51375719519,-16,-11,-11,-31,-3,-4,-19,45
51375726265,3,-4,-33,4,5,1,-15,109
51375726265,-6,-10,-6,-8,0,2,28,-2
51375733738,-2,-14,22,70,6,3,0,8
51375733738,0,-1,-19,-58,-11,-2,28,-97
51375748646,-8,-11,-13,-33,-7,-5,-39,19
51375748646,-3,1,15,15,-2,-4,11,25
51375765158,6,2,-18,-9,-1,-5,-38,-19
51375765158,-17,-2,28,36,2,-2,17,69
51375766626,3,2,10,-1,-2,0,-1,-20
51375766626,-2,12,-26,-27,-2,-2,-5,-41
51375779520,-8,-4,3,-20,4,3,-4,24
51375779520,12,0,9,34,0,-2,-25,127
51375786247,-28,-4,-23,-47,-12,-5,5,-24
51375786247,7,14,9,52,6,2,-19,-7
51375793779,7,11,-32,-91,-13,-4,14,25
51375793779,-8,-22,1,38,16,6,-31,6
51375808708,-1,-1,22,-44,-11,2,7,32
51375808708,27,-3,16,82,5,-9,-18,-2
51375816283,-13,7,6,6,5,1,-11,16
51375816283,20,1,-26,-2,-10,0,6,-18
51375831419,-8,-2,5,30,2,-1,21,-93
51375831419,-11,-6,-20,-28,-3,0,-8,-31
51375839470,5,-2,16,7,-3,-4,-12,-17
51375839470,-13,-6,8,-1,-1,-2,11,61
51375846145,25,12,5,78,15,8,62,-89
51375846145,-53,-9,-2,-117,-23,-4,-2,26
51375853671,29,0,-19,89,-4,-9,-19,14
51375853671,-26,5,-9,28,-2,-2,-19,-63
51375868793,9,-12,-10,-6,-2,-4,-30,-6
51375868793,1,-16,50,23,13,3,31,11
51375876176,-11,3,-1,-18,-2,3,11,-19
51375876176,2,5,-30,-21,-3,-3,-30,3
51375891131,11,15,77,5,6,5,-40,64
51375891131,-17,-18,-108,-43,-7,-3,17,-31
51375899299,6,-4,44,-26,3,-1,-11,21
51375899299,29,9,23,98,5,4,8,-2
51375906237,-59,-9,-12,-79,-11,-5,-18,19
51375906237,4,-18,49,7,-2,3,5,80
51375913805,-3,5,-13,25,0,-1,14,-35
51375913805,-4,-4,-11,-37,1,-3,-34,-33
51375928654,4,-7,-16,12,1,-2,1,63
51375928654,25,37,18,4,2,2,-6,39
51375936249,-18,-10,16,4,1,0,20,-25
51375936249,-5,-2,0,0,2,-1,-4,95
51375951210,25,5,-2,-52,-4,0,-18,-4
51375951210,-3,7,-30,-13,-5,-6,6,34
51375959414,-3,-13,8,10,0,4,20,-31
51375959414,-10,0,5,-28,1,3,14,-1
51375966232,3,2,5,16,-4,-4,14,-42
51375966232,4,1,-4,-9,8,2,1,33
51375973813,-10,-4,-16,15,-13,-5,-12,-13
51375973813,-13,-9,-1,26,7,-3,-4,-10
51375988681,8,0,15,22,7,1,-18,7
51375988681,-8,2,29,13,-2,4,25,-103
51375996249,22,5,20,-31,0,-1,-47,33
51375996249,-38,-3,1,-13,-8,-3,14,-77
51376011225,7,-17,6,-32,-5,-7,-39,13
51376011225,-29,0,6,6,-3,-4,40,-117
51376019348,-25,-1,4,-7,0,-2,-22,81
51376019348,23,11,-21,20,2,-3,2,-9
51376026253,-4,-3,2,42,4,1,-31,22
51376026253,-1,3,-57,-25,-13,-5,-16,118
51376033690,9,-15,6,18,2,1,67,-128
51376033690,4,14,-5,-2,0,3,1,-37
51376048780,-19,-18,16,-24,-13,-6,14,22
51376048780,22,-5,-60,-23,-4,-4,-41,10
51376056256,-5,1,-12,10,-1,0,5,42
51376056256,6,-1,18,19,3,-1,-27,100
51376071140,14,13,9,30,4,4,47,-112
51376071140,-6,-8,12,-50,-6,0,-18,38
51376079336,3,6,5,18,7,0,-16,9
51376079336,-6,-10,-37,-59,-5,2,39,31
51376086267,-20,-6,6,-4,-7,-2,-14,-14
51376086267,26,-12,-41,32,4,-2,-26,2
51376093789,-1,6,-1,-20,-3,1,6,-26
51376093789,14,21,15,-6,0,-4,-1,-55
51376109402,2,-8,-39,12,1,-2,37,28
51376109402,-4,2,28,29,3,0,-3,-25
51376116263,5,0,-6,-28,-1,-1,-21,67
51376116263,-49,-17,5,5,-10,-5,-6,43
51376131089,5,8,0,24,7,2,29,-73
51376131089,1,13,39,-6,7,5,-3,5
51376139258,9,-3,-47,41,-19,-5,-27,91
51376139258,13,1,15,3,2,-3,13,-51
51376146253,28,-16,-46,8,-3,-4,-33,69
51376146253,-8,7,19,36,8,2,43,-7
51376161926,4,3,18,18,10,6,1,-4
51376161926,9,-3,-13,-32,-8,-1,10,-21
51376168644,18,4,24,-39,0,0,-17,44
51376168644,-1,0,6,67,3,-2,-45,-66
51376176239,19,1,-7,-24,9,-6,10,65
51376176239,-12,-2,51,-12,-8,-3,22,13
51376191222,5,-5,-54,-13,3,-1,-35,104
51376191222,-12,-8,-12,-18,-6,2,15,-33
51376199247,-32,-6,11,-10,-11,-6,-12,-31
51376199247,54,-4,-7,1,6,3,-19,-6
51376206075,-74,5,13,3,-1,-3,-17,4
51376206075,5,9,21,-6,-4,-2,7,-40
51376221738,-5,2,-55,22,0,0,-53,-17
51376221738,3,1,1,47,9,8,64,-10
51376228637,10,8,-9,-58,-13,-9,1,75
51376228637,8,-1,-14,108,4,-1,15,-81
51376236101,-8,1,41,0,3,-1,17,0
51376236101,14,6,9,37,9,2,-62,46
51376251041,-57,5,13,10,-5,2,25,-38
51376251041,26,0,2,-41,3,0,-42,36
51376259276,11,-5,1,-4,-5,-3,25,-49
51376259276,-1,-1,-41,-22,-7,-5,-37,79
51376266049,13,4,54,23,4,2,42,-104
51376266049,-7,-9,11,-29,-5,-5,-67,12
51376281764,-15,-14,18,-14,3,1,67,-3
51376281764,3,-2,-29,2,-7,-5,-1,-62
51376288548,19,-6,-18,-66,-17,-8,-23,25
51376288548,-18,-19,-17,7,3,-2,17,-33
51376296057,6,15,65,22,0,-4,13,-57
51376296057,-22,-11,-47,-44,-3,-4,7,9
51376311203,4,6,55,34,6,2,-9,-12
51376311203,22,-16,13,-85,-1,4,10,57
51376319460,-3,-9,-46,81,-2,-5,-13,22
51376319460,-31,-11,18,16,1,1,2,-18
51376326161,31,-2,-54,-12,3,3,-10,-69
51376326161,0,-3,-6,-20,-4,-2,8,69
51376341972,-12,6,20,-17,3,2,-44,-14
51376341972,2,3,55,28,-3,-3,52,35
51376348681,0,-6,-85,22,4,-1,-15,70
51376348681,-27,7,43,22,4,1,29,-76
51376356205,16,-6,-49,-61,-6,-3,9,-14
51376356205,22,1,1,-7,-5,-2,-2,-45
51376371233,2,18,59,32,6,1,-20,57
51376371233,5,-28,-21,7,0,-1,18,31
51376379433,-11,-1,-5,-6,-8,-1,-34,-36
51376379433,20,-5,15,-17,3,3,14,66
51376386160,-10,-10,7,35,10,-3,7,50
51376386160,-10,14,-17,50,10,0,-10,-21
51376401818,11,9,77,-26,-14,-2,20,18
51376401818,-14,-5,-13,-9,-4,-1,-18,-41
51376408762,9,-2,-20,-51,-13,-3,-18,2
51376408762,1,-1,-8,7,1,-2,-24,127
51376416336,-8,4,-21,5,9,8,28,40
51376416336,3,0,2,-21,-5,-3,6,13
51376431073,18,7,-10,12,-8,-8,0,-43
51376431073,-18,10,24,18,1,-1,-5,16
51376439253,17,-1,1,-36,-2,-1,-9,14
51376439253,21,15,22,-41,-6,-2,-28,-10
51376446103,-43,-18,-30,24,6,1,4,-7
51376446103,-14,0,-7,-25,-14,-6,-24,-42
51376461956,7,4,-13,33,2,-2,44,2
51376461956,-30,1,-37,12,7,-1,-12,-13
51376468707,44,2,41,9,1,1,6,-28
51376468707,21,8,8,-18,-7,-1,2,27
51376476193,-24,-12,-45,-20,-1,-1,20,-101
51376476193,-15,2,47,-8,3,0,8,-41
51376492667,-19,-16,-49,6,-1,2,14,14
51376492667,0,-4,3,-19,2,1,45,-21
51376499267,10,13,-3,6,0,-1,-26,45
51376499267,-18,-9,42,7,-3,-1,-19,11
51376506215,13,-9,-37,-6,5,3,31,-3
51376506215,-7,8,9,52,-2,1,11,52
51376521909,-20,-2,-12,-103,-7,-3,-20,12
51376521909,66,9,0,16,-2,-2,23,5
51376528685,-41,-6,24,10,4,3,-42,66
51376528685,0,-3,4,8,5,3,2,-12
51376536249,9,0,-10,41,5,1,-12,4
51376536249,-2,-6,2,-5,-4,-1,-12,-60
51376551194,26,12,7,-20,-3,-2,4,5
51376551194,-12,6,17,-12,-2,-4,11,-4
51376559382,-11,-4,7,26,0,2,5,-24
51376559382,-8,-9,18,38,9,0,-2,14
51376573666,3,-6,-32,-53,-18,-6,-9,21
51376573666,4,4,-2,-11,-1,-2,-8,-40
51376581889,-6,-18,-55,-12,-3,-4,13,7
51376581889,-9,2,-78,-13,-5,-4,-63,0
51376596877,-17,-20,53,43,7,4,47,-7
51376596877,14,10,18,-17,-4,-1,0,43
51376597556,8,3,23,27,2,0,28,12
51376597556,-24,-4,-13,-8,0,0,-22,-2
51376611217,22,18,3,2,-4,-3,-16,-46
51376611217,46,-2,-37,-88,-11,-2,28,0
51376619345,-22,0,86,74,6,-3,-35,-3
51376619345,-24,-4,-16,-66,-8,-1,-23,-42
51376633690,10,8,-5,10,0,1,31,37
51376633690,22,-7,3,32,2,-4,-33,-70
51376641874,47,-3,-82,-4,2,2,24,65
51376641874,-71,11,55,13,-1,-2,-34,125
51376656831,34,7,-20,-28,0,1,-15,-20
51376656831,-25,-23,-70,0,-3,-2,-19,27
51376657582,-6,3,22,-21,-3,-1,44,26
51376657582,3,-10,6,6,3,2,17,-25
51376671215,4,-2,-4,4,-1,-3,0,-63
51376671215,38,13,3,16,-6,-6,-52,-22
51376679303,-51,-24,-14,-33,-2,-2,3,-11
51376679303,52,6,13,18,2,1,57,-5
51376693916,-9,13,36,18,2,1,-17,44
51376693916,-9,-25,-33,-43,-1,2,2,-22
51376701795,6,7,6,24,1,-2,-49,-33
51376701795,5,9,37,17,8,1,9,13
51376716844,-1,-3,-13,29,0,0,-24,24
51376716844,-45,-11,29,-4,-1,-1,-3,-26
51376717584,25,0,34,-25,-7,2,-23,54
51376717584,-8,-4,-17,21,7,0,8,-21
51376731207,-15,2,14,15,5,0,29,2
51376731207,-4,-2,-16,0,-3,-1,19,52
51376740099,4,12,6,12,1,-2,-20,-17
51376740099,78,-4,-28,-55,-9,-3,10,1
51376753661,-73,-2,36,35,1,-4,1,-41
51376753661,6,10,13,3,1,2,15,-17
51376762627,-83,-11,-39,-16,-2,-2,-37,26
51376762627,65,6,8,85,6,1,7,-12
51376776247,-19,1,13,-86,-10,-2,-29,-55
51376776247,-23,-8,-51,27,-3,-6,-5,23
51376785070,7,-9,35,17,1,4,-1,40
51376785070,-29,6,-29,13,1,3,-19,-52
51376791291,19,1,10,16,2,0,20,18
51376791291,4,15,88,1,0,-3,58,13
51376800257,34,15,10,22,2,-2,-12,-45
51376800257,-33,-12,-35,-46,-6,-4,-8,21
51376813776,25,-5,-9,-57,-16,-7,-3,60
51376813776,-4,8,26,24,6,6,8,-23
51376822624,0,0,-59,-12,-2,-5,-68,41
51376822624,-14,-7,-1,31,2,-2,19,8
51376836234,-6,-4,-15,0,3,-1,-2,-1
51376836234,15,-10,15,-14,-8,-3,-15,47
51376845070,52,7,22,12,-1,-2,17,-14
51376845070,-19,-13,-30,-14,-3,2,4,-51
51376851213,-59,-32,41,15,2,0,12,25
51376851213,-9,-3,-50,15,1,2,-9,29
51376860096,10,8,21,-12,-1,-1,15,-26
51376860096,-27,-18,-46,-18,-13,-7,36,25
51376874177,39,22,-11,41,6,2,-17,4
51376874177,-11,-2,45,15,5,2,32,-44
51376882611,-18,-5,7,-3,-2,1,3,30
51376882611,8,5,48,26,5,0,-6,-4
51376896306,-5,14,-1,-42,-8,-2,-2,9
51376896306,-13,-14,-40,1,-10,-9,-32,-70
51376905055,35,-4,-2,40,8,-1,35,-32
51376905055,0,3,-2,-23,-1,-2,-48,59
51376911253,40,-16,13,30,0,0,65,-113
51376911253,-57,1,-19,4,0,2,3,31
51376920077,-25,-9,-26,-57,-7,-1,-25,-12
51376920077,5,7,81,46,3,-3,-12,-21
51376933823,21,-4,-52,-4,4,2,-1,23
51376933823,16,10,-17,-2,-1,-3,-21,14
51376942617,68,-25,41,14,-3,-1,-1,40
51376942617,-8,-7,0,-63,-11,-2,1,-3
51376956201,17,14,-1,4,-1,0,-7,25
51376956201,36,7,4,-13,-2,0,12,40
51376965032,-31,-1,-19,-15,0,-1,42,-20
51376965032,37,21,2,9,-1,-2,13,-24
51376971253,0,-18,-48,-29,-4,0,-10,-10
51376971253,3,-23,23,-7,1,-2,-33,6
51376980053,-25,4,-5,-6,-1,-3,20,-29
51376980053,-6,11,4,7,0,0,4,2
51376993735,-40,-5,-61,51,5,-1,-15,21
51376993735,-4,24,93,-27,2,4,53,-32
51377002956,14,-5,76,-80,-21,-12,-48,-50
51377002956,-39,-11,19,24,3,2,16,17
51377016042,28,10,34,43,8,2,-15,18
51377016042,28,-8,-46,-13,1,-2,-50,18
51377025879,-12,-6,21,24,3,0,34,-13
51377025879,10,-3,-47,-1,5,4,8,60
51377031201,25,-5,29,-37,-9,-5,1,-84
51377031201,-77,0,12,39,4,-1,-37,0
51377040051,14,3,-23,-15,-4,-1,18,-19
51377040051,8,1,-29,-21,-4,-3,-32,6
51377053554,-2,2,22,25,9,7,41,47
51377053554,-6,9,-22,-43,-4,-1,-4,29
51377062555,-1,3,-18,13,1,-1,-22,-24
51377062555,-20,2,80,16,2,0,-22,107
51377076115,14,1,-96,-11,-8,-7,-20,-57
51377076115,23,-7,23,-6,-1,1,38,23
51377085042,7,12,-1,5,4,2,-37,16
51377085042,0,-13,-31,16,-3,-2,28,-63
51377091207,-5,2,46,-31,-1,1,-20,25
51377091207,6,9,1,-12,-8,-7,-18,7
51377100049,-59,8,-39,20,4,3,25,-68
51377100049,9,-4,6,5,-4,-2,-21,-25
51377113549,8,0,20,25,3,-2,2,40
51377113549,7,-9,10,47,8,7,24,-50
51377122645,-15,-8,92,-45,-18,-5,-11,29
51377122645,56,-10,2,-19,1,-1,-1,39
51377136233,-49,-8,15,3,-4,-3,13,-81
51377136233,2,-1,-15,3,3,3,33,20
51377153170,0,-1,22,47,6,2,5,-5
51377153170,-6,-6,-7,-10,-4,-2,-7,36
51377154051,13,5,14,4,0,2,-15,20
51377154051,38,6,-31,-48,-5,-2,-12,-11
51377160038,5,-1,-40,32,3,0,-8,16
51377160038,-6,0,-5,-11,-2,-2,44,-97
51377173775,15,0,34,-8,3,0,-15,89
51377173775,-7,-1,-21,17,-2,-2,-14,23
51377182560,-6,-21,-38,-21,-3,-1,-2,18
51377182560,30,0,-7,14,2,3,-8,3
51377196760,-14,5,2,-1,-1,-2,7,-44
51377196760,37,-8,10,40,4,3,21,-13
51377203647,-12,-12,21,-44,-4,1,-25,7
51377203647,-19,-5,-16,-20,-3,-5,-41,95
51377211043,3,14,68,0,0,2,47,-86
51377211043,10,-4,-7,18,0,0,-17,26
51377220074,-22,4,-19,21,9,4,25,7
51377220074,-23,2,23,-14,-6,-2,-18,-37
51377233611,-13,-7,-7,2,-6,-4,-5,64
51377233611,-28,-6,2,-14,-4,-4,-9,-25
51377242593,32,13,2,-10,-1,-2,9,-13
51377242593,-6,6,13,5,0,0,11,-69
51377256687,2,-7,-87,0,-1,-1,-27,13
51377256687,-14,-13,18,-30,-3,-4,4,-8
51377263506,-12,-2,-39,13,1,1,31,-36
51377263506,-1,0,4,-18,-2,-1,-16,20
51377271059,-4,-1,-22,9,0,-2,6,12
51377271059,7,17,8,0,2,0,6,-43
51377280049,0,-15,3,16,4,0,13,-56
51377280049,-14,2,-19,-4,-2,-3,0,6
51377293551,63,-6,-36,5,1,2,-14,25
51377293551,-67,-12,-20,8,-2,-6,4,-43
51377302516,9,9,5,-22,-5,-6,-7,50
51377302516,6,10,5,29,1,2,6,35
51377316941,-4,-10,-75,-57,-5,-2,2,4
51377316941,24,-4,23,23,-2,-2,-9,31
51377323650,-46,13,-16,13,2,-1,-7,2
51377323650,-4,-3,13,-1,4,2,10,-8
51377339924,-11,-15,58,0,-2,-2,4,17
51377339924,-5,-3,-46,13,1,4,31,-4
51377341646,7,15,0,-40,0,4,-14,-10
51377341646,-37,-8,35,16,2,0,24,-58
51377353786,87,15,-27,-30,-3,0,7,43
51377353786,-48,-7,10,-2,-3,-2,64,-100
51377362600,55,0,8,32,-1,-2,-13,-25
51377362600,-27,-23,-17,20,2,-3,9,13
51377376779,-9,8,11,78,18,5,-13,-15
51377376779,41,13,5,-87,-16,-5,-42,24
51377383584,-62,3,-8,-9,1,1,7,104
51377383584,-4,0,13,45,5,2,10,-69
51377400006,20,1,35,16,-1,-3,-11,-31
51377400006,-4,-18,11,16,1,-2,-15,29
51377401496,3,-2,-3,-1,1,1,-9,-3
51377401496,9,0,-46,-18,-2,0,-15,38
51377413700,-47,-8,45,-32,-7,-1,-17,40
51377413700,-4,1,-55,15,3,-1,-17,-16
51377430099,37,15,29,22,-1,0,-11,-39
51377430099,2,3,3,-40,-5,0,11,3
51377436803,-20,-4,-33,-25,-10,-4,-33,13
51377436803,5,12,22,-3,4,5,-8,81
51377443526,-9,-10,-24,21,1,-3,3,21
51377443526,6,5,-3,-2,-1,-2,-12,-10
51377460048,-24,-9,-1,-9,-5,-4,33,-1
51377460048,-10,-5,-22,4,4,1,-28,61
51377461650,29,-24,-25,14,6,3,9,68
51377461650,-70,5,17,13,-4,-1,5,-24
51377473583,-1,-10,-33,-80,-12,-3,27,-12
51377473583,16,5,29,34,5,0,-12,15
51377482576,17,0,-14,-2,-1,0,29,-27
51377482576,-17,-13,-19,-7,-2,-2,-46,23
51377496712,-29,1,-16,29,6,3,17,20
51377496712,5,8,40,4,4,-1,5,-54
51377503512,-12,-15,39,-3,-11,-3,-27,-4
51377503512,52,8,-3,-19,-3,-2,16,-75
51377519891,-7,9,14,49,7,3,-20,-21
51377519891,10,-7,10,-14,-2,0,6,6
51377521495,8,9,-7,-11,0,-3,-33,64
51377521495,-52,-3,28,10,1,3,59,-30
51377533558,16,7,40,-5,-4,-4,-3,4
51377533558,-12,-24,-88,18,1,0,2,9
51377542523,-61,8,47,0,1,-2,-39,-10
51377542523,16,-13,-28,-27,-3,-1,-1,57
51377556766,6,1,-37,-15,3,0,-21,-33
51377556766,6,-1,17,-5,-8,0,11,0
51377563777,1,1,-3,37,4,0,18,-24
51377563777,30,-3,-52,-95,-9,-7,-31,14
51377580032,-6,-15,49,40,1,0,-27,-12
51377580032,2,3,8,22,4,3,-12,-28
51377581515,9,-31,-37,-47,-8,-3,38,-69
51377581515,45,5,-16,5,2,-2,1,27
51377593705,-57,-1,18,13,0,-1,4,41
51377593705,22,15,16,-14,-3,-2,-22,9
51377602618,4,6,-8,49,-1,-5,-58,36
51377602618,40,2,-1,-16,-4,-1,65,-59
51377616871,22,4,31,-5,2,-2,-20,24
51377616871,-40,-3,94,8,-5,-3,-1,2
51377623532,-1,-3,3,-44,-1,-3,13,-18
51377623532,3,4,-9,24,0,-5,-68,31
51377639930,22,29,0,10,-4,-1,9,58
51377639930,-37,-36,3,-22,4,8,40,-53
51377641553,50,-5,-20,-10,-8,-6,-15,85
51377641553,-26,-5,30,14,0,1,9,-65
51377653700,1,11,32,35,6,3,22,-23
51377653700,14,-5,-75,-52,-5,-1,-35,35
51377662530,-16,-1,12,2,0,2,66,-38
51377662530,-4,1,12,73,7,-2,-20,25
51377676743,-6,-13,-20,-98,-23,-7,13,-10
51377676743,86,17,7,-14,-10,-4,-41,51
51377683536,30,8,-5,-6,5,3,-7,2
51377683536,-46,-5,7,42,1,-2,-7,5
51377699897,32,-4,17,45,11,6,9,-53
51377699897,-11,-4,-39,-46,-10,-5,-11,15
51377701478,15,12,-16,19,2,-1,27,-1
51377701478,21,7,28,0,3,5,-24,19
51377713523,11,-5,-16,33,4,-3,-47,-14
51377713523,-3,14,54,-27,-2,3,49,-33
51377722594,-55,-20,16,5,-1,1,-37,9
51377722594,54,11,-28,-23,0,-1,28,23
51377736764,-107,-17,1,-9,-5,-6,-7,-36
51377736764,17,20,37,34,0,-3,-20,13
51377743539,-54,-3,20,42,3,3,31,-52
51377743539,-29,-16,-14,-106,-15,-4,9,71
51377759863,17,0,-58,-22,1,1,-46,3
51377759863,-15,4,39,-7,-10,-9,-36,35
51377761520,-3,-2,0,-5,-4,-2,2,33
51377761520,-57,12,-10,39,6,3,57,-50
51377773538,32,-7,13,4,-2,-1,28,19
51377773538,-5,-2,-23,24,2,-1,2,-24
51377782537,33,0,-1,-32,-5,-1,-25,74
51377782537,1,9,22,-2,-1,-2,-22,-65
51377796841,-5,0,10,4,-1,-2,-40,-50
51377796841,-13,-2,-13,39,6,-3,31,10
51377803562,-8,-4,-62,-26,-4,0,-20,8
51377803562,-10,-7,11,-24,-5,1,19,1
51377819977,-21,-13,11,29,-7,-7,-5,-20
51377819977,9,-28,-90,23,7,-2,-12,-2
51377821523,21,14,26,-19,-3,-3,19,-27
51377821523,27,-4,-4,5,2,-2,-25,77
51377833590,-27,-11,-34,-24,-4,2,48,-71
51377833590,-15,4,40,33,1,-1,-18,-9
51377842649,2,1,1,-14,-1,-2,12,11
51377842649,1,-1,-25,27,5,4,-26,-19
51377856819,35,18,42,8,-3,-2,-21,38
51377856819,16,1,-16,-25,0,2,51,25
51377863544,16,-24,32,16,4,1,-50,-36
51377863544,-61,-11,-5,5,-1,-2,17,8
51377879987,-3,-9,3,-6,-9,-4,-3,-6
51377879987,32,8,-10,-30,-5,-4,10,4
51377881506,43,1,-16,-4,0,2,27,11
51377881506,21,3,24,31,0,-3,-15,26
51377893606,3,-3,-5,-6,8,8,11,9
51377893606,14,-9,-13,-53,-14,-5,-18,-7
51377902586,16,7,44,-33,-6,-2,47,-67
51377902586,-6,-1,-33,1,-3,-6,-14,13
51377916907,18,5,16,-33,-3,-2,23,118
51377916907,-1,8,33,40,8,4,-4,4
51377923680,12,12,-15,15,-1,0,4,-3
51377923680,-14,-6,17,-8,-7,-4,42,56
51377940010,23,9,-39,0,6,4,-11,-34
51377940010,-75,-6,22,26,4,2,-10,-12
51377941510,-2,-10,-25,-42,-5,-3,-6,3
51377941510,-22,11,10,-3,-2,-1,-38,-9
51377953620,-12,-8,-18,8,6,-1,0,-12
51377953620,2,-9,-44,10,0,3,0,14
51377962478,-24,5,-5,-8,-2,3,12,2
51377962478,27,-24,0,-9,-6,-3,25,36
51377976870,-4,4,15,26,8,3,5,-65
51377976870,17,15,30,-10,-1,-3,-4,-58
51377983733,-50,-11,-22,-7,-14,-7,-20,48
51377983733,22,7,-16,-8,6,4,4,-96
51377999897,0,-1,27,39,4,5,51,28
51377999897,28,-4,-34,-4,-9,-4,-3,17
51378001662,-7,1,5,-2,2,-2,-15,-2
51378001662,58,-3,28,-2,1,2,1,-10
51378013537,-31,-26,1,-2,-1,-3,-29,54
51378013537,18,-1,-63,-24,-4,-1,-17,-70
51378022503,0,3,24,10,-3,-7,-45,7
51378022503,14,0,-24,3,-1,-3,-5,34
51378036912,12,3,-33,-12,2,-1,-20,24
51378036912,-10,-1,9,26,2,-2,-20,11
51378043697,9,-13,26,-7,2,3,19,-31
51378043697,22,0,-12,-47,-15,-6,-5,80
51378059398,6,9,28,80,0,-1,-35,-71
51378059398,-47,3,15,-97,-4,0,41,17
51378066176,-21,-5,-33,52,6,1,-7,7
51378066176,34,25,6,3,-1,-4,-29,46
51378073588,-16,-13,-12,-30,-4,0,17,-46
51378073588,-3,4,10,44,9,6,-11,4
51378082519,3,-20,29,38,8,4,51,56
51378082519,-24,-1,4,1,5,4,-36,9
51378096739,-6,-8,-40,-89,-32,-13,32,-53
51378096739,1,6,18,-30,-3,-3,23,-12
51378103718,-13,12,30,1,1,-1,-31,-8
51378103718,-9,-25,-70,-34,-9,-5,-3,5
51378119193,-9,11,45,33,10,4,25,-58
51378119193,20,-4,30,30,-3,-3,19,24
51378126032,17,12,-19,-4,-3,-4,-10,-26
51378126032,69,1,35,-11,-1,2,-7,-42
51378133709,-63,-7,9,20,1,0,-11,37
51378133709,-12,5,-54,6,-5,-4,4,-1
51378142555,-13,-25,29,7,2,2,5,-3
51378142555,4,-8,3,33,6,4,20,-5
51378156841,-20,0,-4,-8,-1,2,-57,55
51378156841,-7,-12,-3,-3,3,-2,-8,42
51378163694,-5,1,-18,-22,-11,-6,16,29
51378163694,-15,-5,52,30,3,-4,6,-10
51378179312,53,-3,-33,-52,-1,0,-19,21
51378179312,-21,7,53,38,6,4,9,-37
51378186194,64,15,26,17,5,2,1,6
51378186194,-83,-14,-80,-40,-7,-5,-6,-12
51378193707,18,22,30,-19,-2,-7,25,-19
51378193707,7,-4,6,28,10,6,2,-1
51378202507,2,15,0,14,0,3,1,-35
51378202507,18,0,-4,-36,-5,-1,11,-61
51378216990,2,-5,0,16,-4,-6,-13,81
51378216990,6,-3,3,-3,-4,-2,29,-57
51378223798,-33,0,-22,-3,-1,-1,3,-3
51378223798,-24,7,29,63,11,3,-17,-3
51378239433,19,3,26,8,-3,2,9,19
51378239433,12,-6,39,-15,-3,-2,-59,70
51378246231,14,6,-51,-4,5,4,56,-47
51378246231,12,1,9,46,8,5,-20,-11
51378253688,-66,-6,22,-63,-7,-3,3,32
51378253688,13,-4,-41,10,0,-3,-22,4
51378262497,15,2,-12,-1,1,-1,-51,35
51378262497,-19,3,63,22,2,2,52,1
51378276884,38,8,-52,12,1,0,-4,55
51378276884,9,1,25,1,-4,-3,15,-29
51378283741,-25,-9,-25,-26,-6,-5,-33,25
51378283741,-24,0,-5,-56,-9,-5,7,12
51378299339,45,3,-10,17,5,4,12,-7
51378299339,-56,-16,-1,13,-2,-4,-7,-4
51378306145,34,5,-7,-30,-6,-6,-35,46
51378306145,5,-4,-23,-5,-4,2,26,-61
51378322330,15,2,-1,-18,1,-1,9,-26
51378322330,-19,11,-53,7,1,-1,11,-23
51378328595,35,4,50,15,-1,-2,13,49
51378328595,7,1,-13,-14,-2,-2,-34,-3
51378336899,3,4,8,-6,-1,-2,36,-2
51378336899,-13,2,7,34,0,0,-3,-13
51378343731,-3,21,38,9,-3,-1,1,-8
51378343731,-1,3,-4,-11,4,2,6,8
51378359403,1,6,-18,-25,-8,-4,-8,-27
51378359403,51,6,7,-15,1,-2,-23,9
51378366194,-64,-15,8,12,-1,0,17,-34
51378366194,-10,-3,-12,26,0,0,11,19
51378382514,1,1,61,19,1,-2,-56,61
51378382514,-53,-5,-14,-17,-2,2,83,-10
51378383998,16,-6,-40,2,3,-1,14,-32
51378383998,-13,6,60,15,-2,-4,-34,4
51378396683,-6,-7,44,-11,-9,-2,7,66
51378396683,65,3,-29,6,0,-3,-35,-7
51378403470,-10,-5,-25,-24,-5,-2,-25,-30
51378403470,-15,-6,13,10,1,-2,-6,15
51378419203,48,-6,-49,22,0,2,44,-52
51378419203,-8,-8,2,16,-1,-4,-28,-2
51378425946,-27,-13,-2,-27,-1,-2,31,-85
51378425946,16,-15,-22,-27,-1,-1,-29,-2
51378442310,40,9,-22,29,2,-1,-8,15
51378442310,-37,-6,15,24,5,2,-3,13
51378443930,2,3,85,-31,-12,-2,2,-43
51378443930,-19,-7,-66,-3,-3,-2,-2,-10
51378456734,9,-20,-11,7,2,-3,3,-52
51378456734,-54,1,10,-22,-1,-4,-14,16
51378463638,-3,2,-16,47,11,1,-16,22
51378463638,36,9,-6,-61,-7,-3,1,6
51378479247,-101,-11,-12,-17,-1,-3,-7,-7
51378479247,20,-5,7,10,1,1,3,26
51378486103,1,1,-14,0,0,0,12,18
51378486103,-41,2,-36,3,-3,-3,2,13
51378502453,6,-9,-12,40,7,4,-3,29
51378502453,6,1,56,-84,-15,-5,7,-83
51378504156,58,-4,-5,29,5,3,-3,33
51378504156,-6,-1,-22,5,-3,-3,6,-8
51378516781,-7,7,32,0,-1,0,1,-2
51378516781,5,-3,10,24,4,0,-39,52
51378523647,-5,6,-46,-4,0,0,52,-53
51378523647,21,-11,45,14,4,-1,27,-32
51378539221,18,5,-59,1,-6,-5,-42,-6
51378539221,-68,-13,-18,-65,-9,-1,24,-50
51378546118,0,6,-2,0,3,-2,-25,93
51378546118,12,-6,27,39,4,3,18,-45
51378562330,-19,-2,26,61,12,3,-13,-18
51378562330,35,1,-25,-53,-10,-3,12,8
51378563945,20,-11,-27,40,-6,-7,-26,39
51378563945,-56,-12,26,-2,-1,2,23,74
51378576756,19,13,61,9,0,0,61,-35
51378576756,17,-2,-80,29,2,-1,-15,46
51378583670,-22,-3,-8,-51,-7,-3,-1,-42
51378583670,52,-2,11,42,3,-1,13,37
51378599317,16,3,-19,-34,1,2,-11,-49
51378599317,25,2,18,19,0,0,19,85
51378606166,-92,-5,10,-20,-1,-1,-24,-39
51378606166,20,9,-2,15,0,-3,-22,41
51378622505,-13,5,6,-5,-1,4,24,36
51378622505,13,5,91,5,3,-2,-22,16
51378623966,6,-13,-11,-45,-9,-4,-18,14
51378623966,10,9,22,5,-1,-2,-3,-50
51378636755,-42,-3,-9,3,4,-1,-37,0
51378636755,2,12,62,42,2,-1,-1,-66
51378643620,18,-9,-52,12,1,3,29,-15
51378643620,-13,7,-7,-48,-4,-4,-10,4
51378659354,17,-15,-14,-26,-3,-2,3,11
51378659354,15,2,-12,44,3,4,-16,55
51378665988,28,3,13,-43,-5,-5,10,-38
51378665988,8,-4,-48,9,-2,-3,-3,63
51378682394,-12,-12,-30,-23,0,-2,-3,-71
51378682394,-5,-3,43,-10,-10,-5,-6,20
51378683983,14,16,-4,18,2,-2,3,3
51378683983,11,5,-7,6,0,0,18,-18
51378696707,19,-1,31,-19,-3,-3,-39,22
51378696707,-73,-12,-66,-4,4,0,46,-69
51378703496,9,2,-19,-37,-6,-3,-2,9
51378703496,0,12,18,6,2,-3,-30,45
51378719208,-17,-9,-44,45,0,0,22,35
51378719208,23,-3,-46,-28,-4,-3,-5,-10
51378726172,-5,-2,19,-22,-6,-4,-10,15
51378726172,-13,-5,-9,12,-1,0,8,-12
51378742561,2,4,19,-10,-2,-1,1,19
51378742561,32,6,1,-2,1,1,13,17
51378744002,-14,-22,22,42,6,1,-29,-7
51378744002,-44,-9,11,-11,-1,2,-15,-50
51378756159,22,4,16,16,1,1,37,-46
51378756159,-26,-2,6,17,-2,-1,-50,-48
51378765020,-73,6,10,0,-1,-2,17,17
51378765020,23,-8,-26,-38,-2,0,-8,-47
51378779451,-14,-3,6,-8,-2,-4,12,20
51378779451,-17,-13,10,15,6,1,-11,1
51378786072,36,4,9,16,0,-1,-3,53
51378786072,4,5,-22,9,0,2,3,-6
51378802439,-28,-2,-11,-17,-6,-2,-37,44
51378802439,84,35,15,-1,-1,0,63,-29
51378803997,10,4,5,-24,-1,1,0,31
51378803997,1,-3,18,10,0,-2,-12,51
51378816649,38,8,-41,34,-1,1,19,-57
51378816649,-69,-9,-47,-22,0,-3,-6,41
51378824927,-1,-1,9,-25,-10,-2,3,0
51378824927,13,5,1,-11,-4,-4,-20,-25
51378839260,-68,-1,26,11,-1,-1,23,-18
51378839260,30,1,-16,1,-1,-2,-3,14
51378846078,4,-5,-6,33,6,1,32,-18
51378846078,-5,-2,9,-6,-1,0,-31,47
51378862484,9,-4,-8,-8,0,1,-11,20
51378862484,-19,-7,-13,14,0,-4,5,-15
51378864047,-13,3,63,-5,2,1,-24,30
51378864047,33,3,-76,34,-7,-1,41,-74
51378876170,-8,-5,4,-27,-3,-8,-22,-47
51378876170,16,-14,30,13,5,3,42,8
51378884971,14,-7,-7,61,4,0,-10,-2
51378884971,6,4,-21,-88,-12,-6,1,-4
51378899300,-56,-5,26,26,-3,-3,-25,-19
51378899300,4,4,7,-2,-5,-4,-24,9
51378906163,13,4,-2,23,3,-3,-25,-72
51378906163,-34,0,19,14,4,3,15,24
51378922328,76,0,-64,-39,-4,0,14,36
51378922328,-18,0,24,-7,-4,-1,-5,10
51378923944,-18,-4,-10,-60,-8,-2,-23,34
51378923944,10,14,-5,-10,-4,-1,-1,-8
51378936171,-1,-6,12,-11,-2,-4,29,-21
51378936171,26,3,9,25,3,-3,-14,1
51378944972,14,1,-26,14,6,3,-14,-36
51378944972,-11,-8,22,-1,-1,1,24,37
51378959237,-36,-8,2,3,5,5,0,23
51378959237,33,7,3,-3,-5,-2,-24,35
51378966226,-79,-15,-44,-9,-1,-4,-11,-28
51378966226,11,-5,44,49,3,0,-26,84
51378982356,14,8,62,-27,3,3,-20,-10
51378982356,-9,-9,-57,-40,-10,-2,-19,-6
51378983972,3,0,-15,-30,-8,-8,34,20
51378983972,-4,-17,13,42,10,4,-13,21
51378996163,3,7,-19,2,-1,-3,-11,49
51378996163,10,4,19,22,2,1,-6,-24
51379005142,19,13,21,17,0,-2,-22,-17
51379005142,-9,-2,23,-18,-3,0,75,-3
51379019286,11,6,26,3,0,0,0,18
51379019286,23,-7,20,-13,1,4,0,31
51379026102,-24,4,-19,59,9,2,-19,50
51379026102,-89,9,6,-42,1,1,0,-8
51379041880,29,-3,9,-35,-14,-5,3,43
51379041880,4,-3,-26,-45,-1,-3,8,12
51379048657,20,-7,13,14,-1,-3,-4,-17
51379048657,54,-2,9,0,1,-2,-16,-24
51379056087,-33,0,-18,17,4,2,-9,-28
51379056087,-25,2,36,-2,-6,-4,3,-50
51379064977,-14,6,-20,6,0,0,1,-15
51379064977,18,-16,-18,-6,3,0,30,-16
51379079330,-39,1,4,-10,-8,-7,-15,-27
51379079330,14,6,-25,21,5,-1,-12,31
51379086126,26,6,31,23,-8,2,35,-18
51379086126,31,-6,-43,-57,-14,-9,-9,-1
51379101642,-1,2,-25,-2,-1,-4,-3,20
51379101642,0,-4,29,26,4,1,10,8
51379108428,9,8,31,11,5,2,-10,3
51379108428,16,10,7,9,-2,0,-30,-20
51379115929,4,-9,-1,11,1,0,-5,5
51379115929,-6,-5,-16,-17,-3,-1,-18,25
51379124948,6,-7,-1,-17,-2,-1,0,12
51379124948,38,1,30,58,3,-2,-21,-41
51379139177,3,2,20,5,5,3,-11,10
51379139177,-13,-15,-35,-75,-17,-6,12,-11
51379145951,-3,-6,5,27,2,0,9,-6
51379145951,-18,2,6,18,2,1,-40,-10
51379161660,41,-2,-16,44,4,1,31,-59
51379161660,-22,9,-13,10,2,0,-24,13
51379168558,27,-17,7,-40,-7,-3,63,-51
51379168558,12,7,-6,19,4,2,-14,37
51379176040,78,-9,32,3,-5,1,6,34
51379176040,4,-8,-58,-15,-4,-5,3,3
51379184996,-7,3,-14,-9,2,2,10,4
51379184996,-7,-9,23,20,3,0,15,34
51379199292,-46,16,40,-15,-5,-4,-20,-37
51379199292,6,-7,-67,4,0,1,-3,34
51379206135,1,-1,16,6,0,-1,33,-64
51379206135,-7,1,-8,-7,-1,0,64,18
51379221790,32,8,-14,0,-5,-2,-6,27
51379221790,-82,-7,25,18,1,0,-5,-90
51379228493,9,2,-11,-6,1,-2,-4,47
51379228493,-10,1,9,1,-4,-3,-43,-50
51379244875,-58,-9,-7,19,2,-1,31,19
51379244875,16,-1,12,-47,-5,0,-3,13
51379246450,-3,-2,15,9,0,0,-33,-59
51379246450,-60,1,-40,-4,0,0,43,0
51379259252,11,0,-11,30,3,0,-8,43
51379259252,18,0,33,-43,-7,-1,-24,-2
51379266200,0,-6,-29,9,-2,-1,-22,21
51379266200,38,8,37,-13,-1,-3,-45,18
51379281735,-21,-1,5,31,2,-1,10,-8
51379281735,4,1,-19,40,8,0,1,11
51379288635,-2,2,-32,-39,-11,0,40,-22
51379288635,16,1,19,26,3,-1,-26,18
51379304862,-33,-2,1,-30,-1,3,-3,33
51379304862,13,3,12,56,3,-2,-5,6
51379306480,-23,-9,-6,-29,3,1,-11,22
51379306480,-13,-6,7,-2,-6,-5,-5,-5
51379319369,4,-1,-5,3,0,1,-26,-80
51379319369,29,2,-14,-50,-7,-3,17,25
51379326250,-75,-6,-10,19,4,2,-19,35
51379326250,-2,-8,17,-9,-2,-1,16,-83
51379341892,-5,14,-23,-2,0,-1,-38,-40
51379341892,12,7,-6,38,4,3,54,33
51379348529,19,-10,10,-56,-13,-3,-21,-82
51379348529,41,-3,-6,-11,2,3,-18,32
51379364957,-50,-3,-9,-5,-3,-7,-16,-3
51379364957,19,10,27,23,7,-1,3,-12
51379366437,60,10,8,29,4,3,4,31
51379366437,-47,-3,-47,-58,-10,-3,-11,-20
51379379306,25,-6,-1,0,-1,4,77,6
51379379306,3,0,0,-16,-2,-2,-50,35
51379386202,-35,-1,50,30,3,0,25,-41
51379386202,4,0,15,8,0,-2,13,9
51379401750,-18,-22,-15,-2,2,2,7,22
51379401750,-8,-3,-12,-22,-4,0,-1,-10
51379408658,16,3,-24,-43,-6,-1,-8,45
51379408658,-1,-6,27,29,-2,-5,15,62
51379424859,-5,-5,-27,-14,-3,-4,9,14
51379424859,30,0,36,34,6,1,15,-97
51379426438,-10,2,-14,6,3,0,-21,46
51379426438,-12,-17,-6,-5,-2,-2,18,-55
51379439354,-1,6,13,-8,-2,0,-10,-5
51379439354,-5,-4,-49,5,-4,-2,16,5
51379446099,-61,0,-1,5,2,2,28,38
51379446099,-18,4,-8,-1,-1,1,22,-49
51379461728,73,10,8,-14,-4,-6,8,-80
51379461728,-31,-14,11,-2,3,3,-11,13
51379468484,-34,-7,-7,5,0,-4,-14,19
51379468484,20,9,-6,1,0,0,6,22
51379484972,-12,-4,-2,-10,-2,0,8,18
51379484972,-6,8,11,3,0,-2,-12,4
51379486403,50,-2,-18,4,0,-2,-1,12
51379486403,-5,-4,-2,15,0,1,-5,-51
51379499291,3,-1,5,4,0,-2,1,-12
51379499291,43,-1,-5,-70,-7,-3,9,-25
51379506151,-43,-16,19,23,-2,-4,-26,24
51379506151,1,-15,7,-61,-7,-4,1,27
51379521760,1,-8,11,9,3,4,-11,30
51379521760,3,6,21,41,4,3,5,-17
51379528489,-2,15,-14,-13,-3,-2,-6,-46
51379528489,12,6,-37,3,-1,2,2,34
51379545046,4,2,18,-5,-3,-5,-20,40
51379545046,-65,-9,5,3,0,1,18,4
51379546446,40,6,-35,10,2,0,4,45
51379546446,-34,-1,-26,-15,-3,-2,-41,30
51379559970,-16,7,-5,-11,-1,4,20,-18
51379559970,4,-4,6,47,2,-1,-7,10
51379566047,37,0,21,-5,-2,-3,-7,11
51379566047,36,11,-7,9,1,0,1,59
51379581064,-92,-15,-7,-36,-3,2,-6,-19
51379581064,-2,-1,24,-3,1,-2,8,8
51379588494,29,7,45,67,5,2,6,-6
51379588494,-18,-17,-76,-76,-12,-3,-3,-76
51379604321,44,12,-23,4,-2,-5,-34,25
51379604321,-69,-16,5,21,-4,-2,31,-17
51379605001,-5,-8,-21,-33,1,-3,14,2
51379605001,11,3,54,69,5,1,-54,11
51379620002,13,3,-13,-5,-5,-1,2,11
51379620002,1,-1,-24,-28,-5,-3,-1,-21
51379625946,22,-1,16,4,0,1,-12,20
51379625946,26,18,48,-13,-5,-4,13,-14
51379641143,9,-8,18,21,6,0,41,-4
51379641143,41,-5,-32,-9,1,0,-25,6
51379648641,-74,0,7,0,-2,0,-10,-9
51379648641,13,6,9,5,4,2,4,88
51379664203,7,-2,1,2,-3,-1,12,-28
51379664203,11,0,1,9,3,2,0,-44
51379664909,-21,3,30,17,-2,-3,24,0
51379664909,-3,-8,-43,-37,-8,-5,-24,-8
51379679937,9,-6,-6,-12,1,-3,-12,47
51379679937,4,6,0,8,-3,-6,-7,31
51379686106,-46,-9,-56,-9,2,0,22,-24
51379686106,-25,6,21,35,2,0,-1,-8
51379700926,27,-15,4,11,2,-1,-21,7
51379700926,4,4,14,-3,4,4,8,-4
51379708594,8,5,42,8,4,4,20,14
51379708594,4,-5,-22,-9,-1,2,10,-21
51379724290,-38,-12,3,-23,-16,-7,45,99
51379724290,-6,-7,-64,4,2,1,-31,50
51379724943,60,1,4,-1,0,0,31,63
51379724943,-46,-7,-6,10,3,1,22,-31
51379740006,22,14,25,27,8,1,-43,25
51379740006,-7,-6,11,-42,-9,-4,21,-77
51379745976,23,2,-27,-7,-7,-4,0,-16
51379745976,-15,3,26,20,0,-3,-8,-11
51379761137,5,-7,-2,-44,-6,0,0,-32
51379761137,6,1,-40,0,-3,1,7,50
51379768431,-52,-9,14,-10,-4,-4,-19,-22
51379768431,-13,14,-34,1,1,-2,-25,-43
51379784249,-7,4,26,36,4,-1,15,-7
51379784249,-15,7,28,31,1,-1,-12,19
51379785041,7,-3,-3,-28,-5,0,-21,-86
51379785041,25,-4,2,44,6,-4,-29,100
51379799978,-75,-1,-10,-15,1,1,-7,-65
51379799978,2,-16,-17,-39,-6,0,10,-33
51379806106,19,-3,-1,4,-6,-5,-25,36
51379806106,3,3,25,-6,-2,-2,34,31
51379821088,34,8,-64,25,3,0,-4,-27
51379821088,-16,-4,14,-5,-1,-1,-76,10
51379828477,-34,-1,-17,-50,-1,3,47,8
51379828477,-26,-11,33,30,1,-1,9,-63
51379844130,30,2,-17,-10,-3,-3,-33,83
51379844130,-28,13,24,3,0,-4,-3,-38
51379844892,10,-16,-4,-7,1,0,-15,-31
51379844892,106,8,2,16,-2,2,0,-5
51379859974,-50,-2,11,10,0,-1,31,-7
51379859974,25,-20,31,-19,-3,-4,5,106
51379866197,-9,3,26,25,0,-2,-16,14
51379866197,-10,-6,-25,-2,3,-1,34,8
51379880987,31,-1,28,1,-3,-2,-21,-7
51379880987,14,2,25,17,2,1,20,31
51379888631,48,21,-50,6,2,-2,-8,-5
51379888631,-43,-15,32,-40,-7,0,6,-5
51379904246,14,4,11,14,2,1,-1,56
51379904246,16,12,11,1,0,-2,-10,-64
51379904893,-17,-12,-4,2,1,-1,-12,3
51379904893,-56,-1,-21,4,2,1,30,-42
51379920012,15,-1,29,5,-1,0,-36,-26
51379920012,10,2,-10,10,-2,-1,17,7
51379926137,24,-7,-8,3,2,-1,-38,26
51379926137,-20,-8,11,9,1,-2,17,-50
51379941097,1,6,-65,-15,-7,0,-6,-31
51379941097,34,-2,28,-16,-3,-1,4,28
51379948453,6,-7,-21,-12,-6,-3,-8,-68
51379948453,-3,-1,35,9,-2,-1,-36,21
51379963664,14,-5,-91,-3,2,2,24,-12
51379963664,20,14,17,10,2,1,9,-18
51379971172,-11,5,10,18,-1,-3,-18,78
51379971172,-4,4,-50,-37,-1,-1,-29,-84
51379979957,10,-8,-1,-40,-9,-5,9,0
51379979957,-1,2,25,25,2,-2,4,12
51379986081,-42,-23,43,3,-1,0,11,4
51379986081,-32,-1,-39,25,6,5,9,44
51380001386,-42,-3,3,-46,-5,-5,9,-55
51380001386,-37,-15,0,26,2,1,22,-104
51380008554,34,17,10,-6,2,3,-19,27
51380008554,24,0,29,-10,-2,-2,22,-15
51380023441,17,-4,9,10,3,-2,-68,59
51380023441,-23,-2,-30,-1,0,4,22,59
51380030928,-5,6,12,14,1,-1,4,-34
51380030928,46,-5,-44,-10,-6,-2,1,33
51380039927,40,-13,18,22,3,1,1,-5
51380039927,-5,8,-26,-17,-1,-1,12,16
51380045937,22,-2,-6,-9,-7,-5,0,-5
51380045937,-1,-4,18,4,-2,-3,17,98
51380060941,27,10,36,-14,-3,-2,-5,-68
51380060941,-29,-21,-34,-20,-2,-4,-15,38
51380068435,-22,-11,-18,7,2,1,22,5
51380068435,32,2,0,-5,2,2,-13,-38
51380083377,-29,2,12,23,1,-2,43,-13
51380083377,20,5,40,-48,-9,-4,-46,38
51380090872,18,-11,-28,-12,0,0,-3,-3
51380090872,-69,4,62,30,2,0,3,-13
51380099911,56,6,-20,5,4,3,7,4
51380099911,2,-2,-27,-29,-6,-3,-17,4
51380105916,-4,9,8,-5,-4,-4,-4,47
51380105916,-27,6,6,10,2,4,60,-55
51380120916,-24,-9,28,14,3,0,26,-18
51380120916,-1,5,2,25,-1,-5,-5,-21
51380128438,-1,3,5,-12,-1,1,-2,-49
51380128438,70,-1,1,-11,-4,-3,-21,19
51380143461,1,11,8,10,3,4,-53,25
51380143461,-12,-3,-25,2,-1,0,83,-38
51380150906,11,-13,14,-5,-1,-1,5,-4
51380150906,49,7,-19,-22,-4,-3,-36,9
51380166628,-60,-6,-2,6,-5,-3,5,53
51380166628,0,4,29,17,6,5,-14,1
51380167396,2,6,-37,-3,-4,-2,2,4
51380167396,4,6,18,-22,-3,-2,-18,-10
51380180947,2,-7,-39,-10,-1,-1,-17,31
51380180947,19,6,16,27,1,0,-4,-90
51380188433,-7,-1,12,-8,-1,0,1,10
51380188433,18,-11,-5,67,1,-1,4,-45
51380203385,-35,7,-11,-95,-10,-4,4,-98
51380203385,2,0,31,20,3,1,3,36
51380210880,13,-3,2,4,0,-5,-92,11
51380210880,-42,-1,-18,-2,-2,1,7,20
51380226609,13,-1,3,21,5,0,6,7
51380226609,24,12,50,4,1,0,-3,-13
51380227389,-21,-15,-40,3,-6,-4,6,2
51380227389,19,-1,23,-11,-1,2,-36,88
51380240910,42,1,1,-8,-1,0,19,-81
51380240910,-15,-15,-21,-10,-6,-2,-28,42
51380248420,21,14,9,20,4,2,16,9
51380248420,-15,-3,-25,-4,-3,-3,-17,2
51380263432,4,5,48,20,-1,1,7,19
51380263432,-7,-3,-19,-29,-4,-3,-9,-9
51380270920,-13,11,24,-5,-6,-2,9,22
51380270920,13,-10,-50,-26,0,-3,-27,-79
51380286595,-9,2,46,49,5,3,25,60
51380286595,-27,-23,-49,-26,-2,0,-4,-14
51380287405,33,21,46,26,-1,-1,-1,10
51380287405,-14,1,4,-30,-3,-4,4,-42
51380300881,-44,-11,-28,4,-1,-1,5,16
51380300881,-28,-5,-8,10,1,0,-9,14
51380308444,48,-3,5,-9,-2,-1,-18,-66
51380308444,-19,1,37,13,1,0,7,30
51380323381,4,-5,-101,-5,-2,-3,9,-55
51380323381,15,-6,59,10,4,0,-33,33
51380330871,-42,-11,-54,-11,-7,0,28,1
51380330871,16,1,3,-40,-7,-2,9,17
51380346612,-9,-4,16,-4,-5,-4,13,11
51380346612,-11,11,-12,30,1,-1,-6,52
51380347402,-16,1,8,20,3,-1,11,-8
51380347402,30,-6,-18,1,2,2,-15,11
51380360947,3,-13,-34,-14,-5,-3,-38,9
51380360947,-5,9,-9,3,0,0,22,3
51380368423,17,-12,12,7,5,4,13,1
51380368423,-44,-4,-6,-7,-6,-5,-10,-14
51380383430,-29,2,12,7,2,-1,-10,6
51380383430,5,6,-41,-42,-9,-3,-7,62
51380390970,4,4,6,-16,1,1,-47,0
51380390970,-2,5,-17,0,2,2,34,-29
51380406712,-4,-4,20,20,-1,0,-9,19
51380406712,37,2,-25,4,-1,-4,-12,-52
51380407567,5,1,6,25,0,0,49,-40
51380407567,-39,-21,45,-55,0,-2,-9,1
51380420973,16,22,19,33,-4,-2,-18,14
51380420973,18,-3,-4,19,1,-2,-18,-42
51380428588,-62,3,-7,10,4,-2,16,5
51380428588,13,3,21,-48,-3,3,7,-1
51380443703,-17,-11,14,-18,-8,-2,12,-29
51380443703,-12,0,16,27,4,1,4,18
51380451013,30,-1,18,-2,0,-2,-32,-6
51380451013,-38,3,-42,35,2,0,-26,40
51380466796,-2,5,26,5,5,3,46,-36
51380466796,11,11,1,1,-6,-3,14,-7
51380467482,29,-6,3,-28,-6,-4,-5,-51
51380467482,-8,1,-1,27,-4,-2,3,4
51380481150,9,-11,0,-21,-2,-4,-28,20
51380481150,-6,-10,-37,34,5,4,-8,-28
51380488680,-7,-4,42,-16,-4,1,40,70
51380488680,14,0,-59,-17,-15,-7,-13,3
51380503507,53,13,3,-7,3,-2,-12,12
51380503507,-21,-2,9,-13,9,-4,2,20
51380511170,10,3,4,-2,-4,-2,-18,3
51380511170,8,5,-2,12,9,0,5,24
51380526778,-64,-7,55,27,-1,2,-17,58
51380526778,90,3,-53,-5,-1,1,-1,32
51380527351,-44,1,-23,5,-4,2,13,3
51380527351,8,-1,14,17,-1,-2,9,-51
51380541109,13,4,-13,-9,4,-1,20,-6
51380541109,-15,1,13,-17,-4,2,-9,71
51380548479,-10,-5,2,11,5,1,20,-41
51380548479,42,0,-40,5,0,-1,-25,14
51380563655,-5,-3,12,-35,-5,1,25,-44
51380563655,-11,-3,-28,-15,-5,-4,-28,-13
51380571098,11,-11,-8,-29,-1,0,7,20
51380571098,0,1,-11,-15,-1,-2,4,-6
51380586818,51,9,5,-1,1,0,-5,6
51380586818,-25,-4,24,1,-5,-1,-2,-29
51380587462,-6,5,1,-1,1,-1,-2,66
51380587462,30,6,21,36,6,2,10,-70
51380601104,-12,-14,-20,-29,-6,-4,12,26
51380601104,-16,-2,-10,-20,-10,-6,4,-59
51380608527,19,-6,-5,-22,-4,-4,-42,7
51380608527,6,-3,-24,0,2,-1,13,64
51380623642,3,-5,-33,44,-1,-1,-14,-69
51380623642,0,5,35,-12,2,1,-2,-45
51380631210,-71,-3,64,23,0,-1,9,-18
51380631210,-11,-14,45,-49,-10,-5,-15,18
51380646755,8,-4,-52,-4,3,3,22,30
51380646755,22,-4,42,31,-2,-5,-4,2
51380647363,-7,4,-8,-28,-1,2,30,-10
51380647363,-39,4,2,34,5,2,5,-15
51380661115,21,0,-3,35,4,0,-6,-17
51380661115,-10,-7,20,-41,-4,3,3,-25
51380668602,-1,4,-30,-30,0,-2,-11,39
51380668602,7,4,6,23,-5,0,13,-63
51380683606,-25,-1,-3,-4,-4,-5,-6,-31
51380683606,-1,4,-15,15,5,0,25,14
51380691081,17,-5,-3,-1,-3,-5,-42,-18
51380691081,-25,0,-25,-12,1,1,-9,-3
51380706838,-2,-6,33,48,4,2,23,54
51380706838,-13,-3,-12,-56,-3,-1,19,-13
51380707383,10,-7,-42,-5,-8,-3,-11,-7
51380707383,48,7,22,27,2,-2,-23,34
51380721143,-41,-9,-6,-12,-1,-2,3,29
51380721143,-68,-1,-7,57,7,2,-7,-17
51380728456,29,2,24,-39,-7,-2,17,-2
51380728456,20,1,-15,-5,1,-1,-13,14
51380743592,-12,12,64,-10,1,4,-4,-48
51380743592,18,-13,-35,-9,-4,-2,15,24
51380751079,12,16,38,58,5,-3,-25,-16
51380751079,-40,-9,-12,14,5,6,1,-11
51380766782,41,1,-19,-89,-10,-4,10,-12
51380766782,-1,1,14,71,-3,-5,28,-14
51380767351,10,14,36,45,5,2,0,-5
51380767351,-16,-9,-9,-59,-9,-4,5,22
51380781071,63,2,-9,17,1,-4,-10,12
51380781071,54,11,12,-45,-3,3,-14,-4
51380788442,-26,-16,-60,7,-3,-3,9,-8
51380788442,-3,3,30,25,-1,0,-7,74
51380803606,-14,-1,-47,-4,1,2,13,-22
51380803606,14,-3,18,-14,-2,-1,4,-5
51380810994,3,-10,10,9,4,3,-18,19
51380810994,-2,2,42,-1,-3,-2,-4,18
51380826819,-13,-14,0,2,3,3,-11,-2
51380826819,-20,-3,-19,-6,-1,1,6,-12
51380827428,2,-2,-19,-26,-7,-2,5,18
51380827428,4,-23,37,15,-3,-3,-2,-42
51380841142,-8,11,-33,-6,0,-1,2,-51
51380841142,-16,-2,-11,-39,-2,-3,-16,16
51380856847,11,0,-5,33,4,0,-1,-3
51380856847,7,7,-24,-25,-2,-2,1,14
51380863702,-2,-6,19,24,-3,-5,-20,63
51380863702,-3,0,6,13,3,2,-11,-20
51380871085,-62,3,-25,-12,0,2,23,-4
51380871085,13,5,28,27,1,-1,27,-26
51380886875,43,3,-15,-26,-1,1,-24,4
51380886875,-67,-2,-26,-3,-3,-4,-9,4
51380887385,28,-13,-3,-7,-3,-4,-3,-17
51380887385,-21,-1,1,2,-1,-2,-1,-9
51380900940,4,1,15,5,0,1,-28,33
51380900940,29,-13,57,38,3,4,59,26
51380908454,-37,-14,75,-38,-8,-3,-10,-7
51380908454,-6,-17,-17,22,8,2,15,-23
51380923534,-9,10,27,-30,-12,-4,-20,50
51380923534,-30,-13,-50,46,4,-3,8,-81
51380931005,-7,1,-30,-35,-9,-5,-6,37
51380931005,16,-1,-3,39,-2,0,-8,20
51380954908,-15,-10,-9,-16,0,-3,-13,14
51380954908,-32,17,47,21,5,5,2,-2
51380955752,40,2,-24,3,3,0,2,-8
51380955752,-56,0,-3,-10,-1,1,17,-45
51380961010,39,-9,-30,-1,0,-2,-28,51
51380961010,29,-3,-11,-22,-2,0,-20,-39
51380968571,-40,2,-8,18,2,3,30,64
51380968571,-8,2,-47,-24,3,0,-13,-10
51380983556,-4,-7,47,6,-10,-3,11,-5
51380983556,22,10,11,1,-2,-1,-16,32
51380999249,12,-1,0,26,5,0,-11,-88
51380999249,-17,4,-26,-15,-3,-3,-10,19
51381006067,-33,-33,43,7,4,3,40,-9
51381006067,0,-5,-33,5,-3,-5,-2,29
51381022515,25,14,-31,-35,-7,-2,-5,-37
51381022515,11,-3,7,4,-2,1,14,-52
51381023866,-4,13,-25,10,5,3,-15,-39
51381023866,36,-7,14,-2,-6,0,54,59
51381036718,16,-5,29,35,6,1,-5,3
51381036718,60,12,-19,-74,-11,-7,-18,62
51381043596,-18,-10,-2,23,3,-2,35,-6
51381043596,46,5,5,-31,-6,-3,-49,-22
51381051125,-54,-2,4,26,6,3,36,-45
51381051125,9,0,11,27,4,0,13,34
51381066030,4,10,-13,-31,-9,-3,-7,-28
51381066030,-8,-6,-20,-17,6,2,-24,16
51381074304,27,1,29,12,-6,-6,-23,77
51381074304,-17,7,16,35,3,3,-11,-19
51381081114,6,10,4,6,3,-2,-8,69
51381081114,-36,-16,36,-7,-1,1,-28,-27
51381088454,3,7,-2,-21,-2,1,35,23
51381088454,47,6,-64,-2,-1,-3,-20,8
51381103656,-11,3,-25,24,-1,-2,16,-31
51381103656,-1,6,20,-7,-2,1,28,12
51381111156,31,-1,12,11,3,2,-29,-5
51381111156,-11,-4,2,-4,-6,-4,14,11
51381126086,2,-2,-34,-39,-4,-5,-29,-19
51381126086,-7,5,-13,41,6,-2,28,-21
51381134262,9,-21,-15,-97,-12,0,4,28
51381134262,-55,18,26,-1,7,4,8,-48
51381149153,-12,2,7,33,6,0,-10,4
51381149153,2,0,21,8,-5,-5,-32,15
51381149926,-11,-4,-33,44,7,0,-14,68
51381149926,-3,-19,8,-21,-7,-2,9,16
51381163481,-3,13,6,19,3,1,-1,-76
51381163481,-51,2,-20,-18,-4,-1,2,31
51381171146,23,0,8,2,0,0,13,-29
51381171146,-47,-8,19,-2,2,1,-29,7
51381185972,12,0,-11,-16,-3,-3,12,-8
51381185972,6,0,7,3,-1,-2,-15,2
51381194289,30,5,-21,-11,-1,1,8,-39
51381194289,21,6,13,-2,-4,-4,-16,-8
51381209319,-38,-12,32,28,3,0,-20,40
51381209319,-15,0,-21,-28,-2,4,-14,13
51381209874,51,-7,25,-3,-6,-6,-8,-59
51381209874,27,4,6,12,8,4,-2,25
51381223612,-31,-6,-9,-23,-2,1,11,8
51381223612,17,7,5,13,-3,-5,-12,22
51381231013,-28,6,-3,40,3,-1,-14,6
51381231013,9,-8,-15,1,-12,-3,51,-53
51381246094,9,-10,21,-25,2,-1,-24,-6
51381246094,15,6,5,-46,-7,-2,52,-5
51381254308,-23,-5,-34,7,1,1,-2,27
51381254308,18,1,13,13,-1,-5,0,33
51381269151,-42,2,-22,-7,-2,-1,-22,40
51381269151,15,-20,-12,13,3,4,29,-60
51381269878,22,10,20,-6,-2,-2,1,-16
51381269878,-17,2,-33,-6,0,2,-7,83
51381283609,23,-17,-23,7,-7,-4,14,-37
51381283609,-2,0,-4,-16,0,-1,18,-27
51381291095,-26,4,-29,-16,-2,2,-27,60
51381291095,2,-3,22,-23,-4,-1,-1,-19
51381306071,21,18,-26,16,4,-4,-12,-8
51381306071,-13,-2,15,22,-2,-3,-10,-1
51381314363,-12,-13,15,8,7,3,51,2
51381314363,1,9,30,-14,-1,-1,-1,-4
51381329211,-35,0,27,-2,-5,-2,-12,-18
51381329211,51,3,-7,-18,-3,-3,-11,39
51381329892,-8,4,5,-1,0,-3,-6,-9
51381329892,10,-6,-14,16,6,-4,6,-11
51381343623,14,8,31,-7,-3,0,-3,19
51381343623,-14,-9,10,34,6,0,-36,36
51381351118,-13,-2,-30,-11,-5,-3,16,-96
51381351118,12,-4,-13,-13,-3,-2,-43,30
51381366112,-38,-1,23,-9,-4,-1,33,49
51381366112,3,-1,8,13,5,0,-14,21
51381374258,-1,2,-43,-20,-5,-3,3,-71
51381374258,6,-6,10,14,-1,-4,7,-10
51381389281,16,2,-24,-6,1,4,-9,-42
51381389281,-60,-6,26,45,5,1,8,41
51381389844,60,2,-8,-62,-10,-1,-8,16
51381389844,-2,-14,25,55,6,0,10,-6
51381403527,-13,-1,5,-29,-4,-4,12,-7
51381403527,30,3,-8,-7,-2,1,-33,-2
51381419481,25,7,47,49,5,-1,-24,1
51381419481,-64,-1,-60,-18,-2,0,34,-15
51381425982,47,-12,-22,1,-7,-2,0,29
51381425982,-9,-2,-6,-62,-5,-2,-14,18
51381434147,-60,7,18,-5,-2,-5,-25,4
51381434147,42,8,10,-20,-2,-2,-59,72
51381449299,-3,-4,-15,30,1,1,40,-82
51381449299,-7,11,-19,10,0,-3,-11,63
51381449899,19,-8,41,13,0,1,21,-10
51381449899,-45,-2,14,-14,0,-2,-7,-13
51381463536,44,0,-16,1,2,1,-22,10
51381463536,-28,13,-2,5,-2,-2,-12,-35
51381470982,36,-9,17,-26,-2,-1,0,25
51381470982,-53,-9,-8,30,2,-1,11,-56
51381486029,0,6,6,-17,-1,1,8,-63
51381486029,25,8,-15,-22,-9,-7,33,-53
51381494246,-38,-6,-30,25,-2,-3,-21,19
51381494246,23,3,17,5,-2,-1,-20,10
51381509224,9,0,27,-5,3,3,35,74
51381509224,-32,-6,-34,-3,1,1,-53,-7
51381509843,-22,0,-33,22,4,1,58,-86
51381509843,26,-13,-1,-21,-3,-2,0,3
51381523567,-36,1,74,14,-4,-3,3,27
51381523567,73,-6,-20,-9,-4,-1,4,-23
51381531091,-9,-4,-3,6,1,-3,-52,30
51381531091,4,-3,-9,-6,-2,-1,-13,21
51381546178,-4,6,-13,4,1,-1,3,-11
51381546178,-14,2,42,5,-1,-4,17,0
51381554126,-16,-9,10,-2,-1,-4,12,40
51381554126,13,-9,-22,-18,0,5,29,1
51381569088,-13,1,9,-11,1,-2,-36,16
51381569088,7,-7,56,26,2,2,40,32
51381570006,-83,-7,-98,-14,-5,-4,17,56
51381570006,20,2,39,-10,0,1,-39,-48
51381583629,1,-5,2,2,-3,-2,4,28
51381583629,12,-3,-81,-9,3,0,-24,-19
51381591116,17,7,40,6,0,0,-42,28
51381591116,-7,-1,-11,-5,-3,1,60,-79
51381606063,-7,-6,-70,9,1,0,15,3
51381606063,54,11,49,-1,0,0,-7,13
51381614247,-79,-10,0,14,-5,-3,7,-18
51381614247,9,-1,-26,-14,-3,-4,-9,3
51381629128,44,3,-11,-11,-3,-4,-15,27
51381629128,-52,-11,-40,7,5,4,46,-83
51381630044,52,20,32,15,3,1,3,-17
51381630044,-10,6,-4,5,-6,-7,-13,19
51381643455,-43,-33,6,21,6,1,31,-9
51381643455,-38,-4,16,-20,-7,-3,-22,-2
51381659262,12,12,57,-8,2,5,3,37
51381659262,-5,7,20,-4,-4,-6,-14,-18
51381666101,25,11,8,-3,1,0,15,13
51381666101,64,-9,-35,-4,-1,-2,-14,-10
51381674173,10,3,19,-7,-2,-3,3,63
51381674173,-6,-1,-12,2,2,3,17,10
51381689219,-1,-5,-5,-1,0,-1,-19,-2
51381689219,-4,-4,54,13,1,2,-8,9
51381689897,1,-4,-4,-8,-4,-2,-10,2
51381689897,39,1,-19,12,4,3,39,91
51381703557,-9,8,5,-8,-1,0,-17,-69
51381703557,-6,-5,34,7,0,3,4,28
51381711098,-33,-25,-41,-12,0,-1,-31,-7
51381711098,13,0,-31,-21,2,-1,28,-15
51381725963,4,10,77,15,4,1,-8,4
51381725963,-21,13,-40,20,-2,-5,8,-3
51381734205,55,14,43,13,-5,-2,-1,20
51381734205,-38,-23,-9,-56,-15,-8,-5,1
51381749222,9,20,-31,20,1,-1,-25,-7
51381749222,-34,-8,17,10,0,-1,-5,10
51381749816,38,0,-2,-19,-1,-3,-3,63
51381749816,-17,1,-7,14,3,0,34,-92
51381764901,1,2,-1,-21,-4,-1,8,67
51381764901,-10,-29,32,42,5,1,8,7
51381771066,15,4,15,20,13,3,-42,-18
51381771066,-6,-10,-15,-41,-5,0,-6,-1
51381786131,26,-5,-4,-18,-6,-4,-3,-4
51381786131,0,14,35,-8,2,2,22,-17
51381794191,-5,-14,-79,1,-5,-1,16,-64
51381794191,15,6,46,63,5,-2,-32,34
51381809111,-15,-10,15,-28,-1,2,-10,-81
51381809111,0,-2,-38,-37,-10,-7,-31,27
51381809902,-14,-2,-6,15,3,2,9,-20
51381809902,16,21,32,-16,-5,-2,-61,51
51381824897,-21,-5,-23,6,-3,-3,25,9
51381824897,68,5,-3,-12,2,4,1,2
51381830986,-45,-11,-10,-6,-4,-5,-2,-77
51381830986,-13,-12,41,46,7,2,6,24
51381846095,-8,-3,32,14,-3,-2,-30,29
51381846095,13,15,-43,-40,-7,-4,-1,-96
51381861841,12,5,13,6,-4,-3,12,61
51381861841,9,2,4,18,1,0,-10,-33
51381868416,-9,3,-6,-22,-4,-3,25,1
51381868416,-26,-13,-32,57,7,-4,16,14
51381876674,23,10,17,-61,-16,-2,32,16
51381876674,37,-8,-5,18,2,-5,5,10
51381883607,52,3,-70,-10,-5,1,9,9
51381883607,-25,-3,13,-13,3,1,7,36
51381891071,0,-2,-4,4,8,5,0,-25
51381891071,44,2,-20,33,7,0,4,18
51381906098,-12,-4,11,-18,-9,-7,-87,50
51381906098,-11,17,11,-56,-8,1,66,-51
51381914131,2,-2,-76,5,1,-1,1,5
51381914131,-10,-2,29,-1,-5,-2,-36,7
51381928552,-20,11,-21,25,6,4,10,-10
51381928552,-9,-9,22,-5,-8,-6,-8,36
51381936772,12,3,27,11,3,0,19,-9
51381936772,-40,-1,-45,-39,-5,1,12,-8
51381943593,2,-1,-7,34,10,1,-12,16
51381943593,3,-1,-4,-34,-7,-5,13,-76
51381951071,18,4,3,15,-1,-2,-14,80
51381951071,20,-11,12,-5,3,2,23,-35
51381966029,-58,-23,-8,-3,4,2,15,-28
51381966029,-24,7,50,12,-6,-4,-27,83
51381974227,32,-10,-31,10,3,0,-45,-38
51381974227,-18,13,5,-7,2,4,44,6
51381988474,8,0,42,-27,-9,-5,-18,-9
51381988474,7,-8,-87,29,5,2,-4,29
51381996605,-14,-2,25,-95,-13,-3,20,-56
51381996605,-55,10,-20,38,3,0,-21,23
51382003391,61,-22,5,-25,-5,-4,15,-14
51382003391,6,9,18,18,6,4,-40,48
51382011043,0,-3,36,17,1,1,-6,-15
51382011043,-20,-9,-37,-7,-4,-2,8,-42
51382026073,42,7,5,20,1,-1,5,17
51382026073,-10,-7,19,-22,-3,-3,-8,58
51382034224,-12,-2,-5,-7,5,-1,-18,24
51382034224,28,-4,22,-3,-2,-1,40,9
51382048605,3,6,-7,15,3,4,18,-18
51382048605,-67,-11,-26,6,-2,1,-25,4
51382056694,-6,-9,48,21,3,2,39,-70
51382056694,46,1,16,13,-1,-3,-56,31
51382071750,-38,-4,26,-69,-17,-4,37,-46
51382071750,27,3,-22,-31,-4,-4,20,-32
51382072288,-22,-3,4,8,-4,-4,-4,26
51382072288,-19,-5,-7,-3,3,-1,3,3
51382086085,5,10,15,28,5,-2,7,-7
51382086085,47,3,25,28,6,4,-2,-3
51382094259,-48,-15,-27,43,2,-2,-17,31
51382094259,-3,1,18,-49,-6,1,37,-82
51382108569,24,6,-45,16,-1,-1,-4,-38
51382108569,2,1,5,26,3,0,4,-11
51382116723,2,7,-15,20,4,-1,-21,6
51382116723,-7,0,-11,4,1,-1,4,2
51382131795,-8,0,11,2,3,-1,-16,14
51382131795,-72,-18,-40,-18,-1,1,-5,-7
51382132381,5,-3,31,2,-6,-5,-3,-16
51382132381,42,7,14,-5,-2,-1,1,15
51382145994,8,11,3,-3,-2,-1,8,-23
51382145994,8,5,-10,5,0,-1,0,34
51382154270,5,7,25,-11,-3,-2,-17,17
51382154270,18,5,-6,-24,-2,-3,-6,53
51382168642,-10,1,8,11,2,-3,-25,-71
51382168642,16,4,2,21,5,3,5,-27
51382176731,22,-3,-4,-6,-1,2,6,37
51382176731,2,-1,14,-5,-5,-2,-16,-4
51382191717,-14,-16,2,21,3,0,-3,29
51382191717,13,-5,10,-4,-4,-8,-31,-12
51382192341,5,3,3,-11,-3,2,-16,42
51382192341,-30,-15,-36,-45,-6,-2,-4,-15
51382206107,4,-1,-29,22,-2,0,-7,44
51382206107,53,7,37,10,-3,-2,12,-27
51382214274,-65,3,8,8,3,0,6,1
51382214274,1,8,-13,30,0,-1,-18,-18
51382228598,-38,-10,-16,-20,2,0,-1,-33
51382228598,58,-2,-39,-26,-5,-4,1,11
51382236696,-5,6,8,-26,-6,-5,27,-28
51382236696,-22,-4,-21,-16,3,2,-32,10
51382251555,10,40,60,21,4,1,-14,20
51382251555,-11,-30,-41,7,-3,0,47,-77
51382252312,20,3,15,57,4,1,12,25
51382252312,4,1,14,-34,-7,-3,-38,30
51382266058,-40,-5,-52,-29,0,1,25,22
51382266058,7,5,55,16,2,-2,0,-4
51382274102,-15,-9,-34,-13,-1,3,10,-26
51382274102,-67,-14,-17,39,-3,-1,8,-1
51382288617,0,-5,0,16,0,-2,27,-43
51382288617,-20,8,9,15,-3,-2,-10,13
51382296685,-3,-7,-39,-45,-1,-1,6,-28
51382296685,74,5,38,18,0,-1,-22,101
51382312326,-31,-8,-13,-2,0,4,4,-30
51382312326,-15,4,28,13,3,1,-9,88
51382313041,32,0,-56,-1,2,-1,-11,-10
51382313041,-10,-1,-17,9,0,1,60,-100
51382326022,-7,-13,56,-52,-9,-5,-2,50
51382326022,24,8,-9,0,-1,-1,-10,21
51382334160,13,-5,38,-3,1,-2,1,-15
51382334160,30,9,-14,-5,1,-1,-29,-15
51382348569,-53,-23,-35,21,-1,-4,7,-3
51382348569,0,-7,-15,-58,-11,-2,25,-10
51382356750,47,9,-1,9,0,-3,-16,6
51382356750,-20,8,13,19,2,0,10,29
51382370991,85,-1,-13,-14,-3,-4,-13,-57
51382370991,-20,4,0,-10,1,0,-32,37
51382379893,14,1,13,31,-1,0,8,-55
51382379893,-2,4,34,-20,-4,-3,23,-79
51382386002,13,-7,-39,-16,-2,-2,-47,35
51382386002,-8,0,13,-36,-9,-4,16,-8
51382394843,-30,0,3,16,2,0,19,-7
51382394843,-19,-9,-9,9,1,1,2,20
51382408361,-22,0,12,6,-4,-2,-8,38
51382408361,-1,5,11,18,3,0,22,-91
51382417387,-6,1,-30,-14,-3,-1,-12,43
51382417387,-51,-7,-19,6,3,-1,-40,-17
51382431069,38,6,51,0,-2,-1,19,13
51382431069,-75,1,-38,16,1,-1,-29,18
51382439877,48,5,42,-15,-2,1,-15,57
51382439877,-43,-1,-18,13,1,0,23,-12
51382446054,-48,5,6,12,1,0,-22,35
51382446054,9,0,-19,-48,-9,-5,24,-15
51382454879,-8,0,-8,-3,0,0,-3,29
51382454879,-7,-10,1,-6,-1,0,-1,13
51382468360,41,9,-20,27,5,2,3,36
51382468360,10,1,20,31,8,5,-32,26
51382477357,-36,-17,-45,-54,-8,-2,57,-15
51382477357,5,17,44,38,2,-1,14,9
51382490994,-12,2,-13,-14,2,0,-6,-37
51382490994,0,-4,11,29,2,-1,-8,42
51382499847,3,-5,-24,-46,-2,-2,-22,-30
51382499847,12,-10,-12,-37,-8,-4,-2,68
51382506025,47,-4,-2,18,3,2,12,-10
51382506025,-75,-6,64,8,-3,-4,14,-73
51382514848,-22,7,41,36,0,1,3,33
51382514848,46,2,-42,-3,0,2,1,31
51382528599,-10,3,-31,-7,0,0,-22,23
51382528599,-8,-6,-3,-1,1,-1,-41,37
51382537356,-3,16,15,0,-9,-6,-5,-54
51382537356,6,-19,-15,-6,-4,-4,-5,-53
51382551026,-2,-4,14,12,-1,-1,7,27
51382551026,24,-1,-25,-8,0,-2,-2,-17
51382559842,-16,-1,8,15,3,1,-18,11
51382559842,39,10,4,-8,-2,-3,15,4
51382566034,-36,-2,22,24,3,6,5,30
51382566034,10,-12,-32,-10,-1,-1,-1,-28
51382574840,83,0,-7,-10,-4,-1,70,-9
51382574840,-43,0,15,59,10,2,11,-84
51382597440,27,-3,-24,-74,-8,-5,-4,43
51382597440,11,-13,-20,-4,-2,-1,4,-55
51382598851,14,5,25,28,3,-2,3,38
51382598851,15,6,43,-29,-5,-2,-44,24
51382610904,-6,-18,-59,-9,-5,-1,14,18
51382610904,-20,-6,61,12,5,4,-14,13
51382619867,-20,-33,-41,1,-2,-2,6,-105
51382619867,11,-1,6,-1,-1,1,-41,68
51382626058,10,-3,22,45,5,0,10,-28
51382626058,20,8,7,-31,-5,0,-2,32
51382634874,-45,6,11,42,3,0,-6,-4
51382634874,13,-14,-26,-93,-13,-2,11,26
51382648414,11,6,22,2,-2,-3,18,-37
51382648414,43,4,-52,16,3,0,1,81
51382657360,-54,3,31,34,7,2,0,54
51382657360,35,5,-14,-17,-2,-2,-6,17
51382671029,-109,-16,0,-8,-7,-4,1,-41
51382671029,21,9,10,17,4,0,25,-10
51382679836,32,-1,-2,-31,-6,-4,6,-16
51382679836,-11,-4,14,42,4,-3,3,-18
51382685929,-17,-3,-37,-23,-4,-2,-14,50
51382685929,4,5,34,8,3,5,4,26
51382694852,-9,-7,-72,-31,-4,0,-45,-6
51382694852,-11,-15,10,49,1,-1,28,-10
51382708572,22,-9,36,-25,-2,-2,-10,-9
51382708572,-5,20,-8,24,-2,-4,-28,59
51382717361,5,6,18,-30,0,2,30,-52
51382717361,-56,-2,-21,17,-1,-1,-11,17
51382731108,27,6,8,15,2,0,-5,-4
51382731108,5,2,-1,22,1,2,18,1
51382739837,-18,-6,10,-14,-7,-3,-8,11
51382739837,41,-2,-13,-60,-6,-2,6,-33
51382745962,-56,3,33,16,-1,-3,-6,-6
51382745962,-15,-7,-54,-19,-2,-2,4,-76
51382754849,43,-2,-51,9,0,-4,0,71
51382754849,3,-6,14,8,-1,1,4,-28
51382768474,26,6,2,1,-1,-1,-11,-27
51382768474,-12,-10,-7,3,-2,-2,-10,9
51382777339,18,7,37,-12,1,1,-31,80
51382777339,-63,6,27,-28,-6,0,-2,-48
51382791005,8,-12,-51,-7,-4,-4,-7,1
51382791005,43,8,9,-6,-1,0,-5,3
51382799842,-86,-20,21,-3,-2,-1,-28,-2
51382799842,-2,0,17,59,7,1,64,-46
51382805996,13,4,1,-26,0,2,-25,15
51382805996,-14,-11,-5,-60,-12,-6,18,3
51382814834,13,-8,-51,40,4,1,2,-2
51382814834,41,7,12,-27,2,-1,-34,27
51382828585,-28,1,-19,21,6,2,7,35
51382828585,-14,-11,-17,-10,-7,-5,5,25
51382837378,6,4,-7,-13,-4,0,-5,-39
51382837378,-33,-6,14,42,6,3,23,-51
51382851714,59,10,29,-20,-2,-2,-11,17
51382851714,-16,4,-18,-40,-3,1,16,6
51382858502,0,-5,18,7,-2,-2,-7,-14
51382858502,4,-2,-47,8,0,0,-15,127
51382866098,20,-10,3,24,4,4,-3,-27
51382866098,-31,3,14,-10,1,1,7,-29
51382874847,-23,17,12,17,2,-1,-7,-15
51382874847,31,-8,15,-4,-1,-1,5,13
51382888596,15,-4,-4,-52,-11,-6,8,8
51382888596,8,3,18,54,5,-2,-32,-8
51382897323,13,1,6,-5,1,2,26,41
51382897323,-10,0,33,31,3,-2,-7,-10
51382911690,25,0,-5,0,2,-4,5,-62
51382911690,-1,-9,-7,-73,-19,-4,-13,41
51382918612,-4,-3,22,13,-1,-1,22,-22
51382918612,-13,0,6,-12,-4,-1,-2,-67
51382926064,11,-5,-24,17,0,-1,-1,5
51382926064,-34,2,12,17,5,-1,-39,-19
51382934853,-33,-13,-9,21,5,0,4,-1
51382934853,25,3,15,-17,-3,0,9,41
51382948488,-63,11,27,14,4,2,-3,7
51382948488,17,3,8,70,10,3,22,8
51382957321,9,2,-23,-103,-22,-7,-49,-18
51382957321,-9,10,-44,3,0,1,-21,54
51382971771,23,-2,15,12,-6,-4,31,11
51382971771,2,-5,-15,17,3,0,0,-59
51382978460,28,14,59,22,4,-1,14,54
51382978460,-75,-19,-89,-29,-7,-5,-19,-19
51382994858,36,-2,8,-38,-3,1,1,23
51382994858,-76,10,13,12,6,-1,-8,1
51382996368,29,-9,-15,8,-4,-2,-31,-11
51382996368,13,7,-7,-20,-4,-1,10,-79
51383008455,-7,-20,2,10,-2,-2,2,-8
51383008455,68,2,10,-1,-1,-1,1,6
51383017299,-40,-2,-32,-24,-2,-1,12,-29
51383017299,-2,9,58,7,0,0,-4,65
51383031746,-24,1,-40,17,-1,0,14,-32
51383031746,60,-11,-8,-23,-6,-7,-26,25
51383038318,2,5,48,24,4,0,-9,-59
51383038318,-10,-9,-5,5,-1,0,27,-64
51383054997,-3,18,0,4,1,-2,14,71
51383054997,19,2,-8,49,10,5,27,-45
51383056299,-76,-3,46,-19,-3,-4,-47,45
51383056299,2,-11,-36,-22,-9,-4,-25,-20
51383068391,-17,-13,-26,-36,-4,-1,-10,9
51383068391,-24,3,55,7,-5,-3,1,-14
51383077371,37,6,-10,14,2,-2,31,8
51383077371,6,9,20,8,6,2,-23,18
51383091648,-16,1,4,13,-1,2,-12,-5
51383091648,36,-5,-4,-7,1,3,32,12
51383098310,11,1,15,16,2,1,-3,-25
51383098310,30,5,-10,-11,-5,-5,-11,115
51383114855,-49,-7,76,17,3,0,25,-92
51383114855,-19,-6,-22,-15,-3,2,18,34
51383116299,17,7,-46,0,1,0,-6,-69
51383116299,-6,-9,-14,-11,-1,0,-5,18
51383128427,-2,8,41,17,-1,-3,-59,91
51383128427,2,2,9,0,2,6,50,1
51383137317,2,-2,-7,-7,-4,1,9,35
51383137317,68,-3,47,20,5,3,46,-42
51383151686,-21,-8,-21,-5,-1,-4,-36,-6
51383151686,1,4,22,-21,-3,-1,-5,6
51383158533,39,0,-57,13,2,-3,-15,16
51383158533,-48,5,49,13,-2,1,15,-69
51383174858,24,15,-21,-7,-6,-3,3,2
51383174858,-4,-13,0,13,1,-5,7,56
51383176320,-69,7,56,26,0,-5,48,-91
51383176320,-3,-14,-41,18,3,2,-28,53
51383188471,7,-8,-20,-58,-6,-4,-16,-4
51383188471,-4,8,0,45,1,0,0,6
51383197340,-26,-14,-51,-31,-10,-1,-2,61
51383197340,-12,1,6,-2,-5,-8,-25,-50
51383211584,14,-2,-16,15,0,1,10,-28
51383211584,-1,0,-17,0,-2,-1,-16,22
51383218385,-2,2,30,15,7,1,-35,24
51383218385,-57,5,23,4,1,3,0,39
51383234876,-6,-6,-23,-3,-3,2,45,3
51383234876,-2,-6,-9,-11,-7,-4,-4,-43
51383236286,29,3,20,-1,2,4,-8,34
51383236286,-48,-4,-67,-23,-5,-5,-21,58
51383248584,48,1,-13,29,7,3,46,-44
51383248584,-25,5,-17,-35,-5,-1,-18,15
51383257295,31,3,-27,-36,-10,0,18,18
51383257295,30,0,18,59,4,1,52,-43
51383271706,-2,9,11,-57,-4,-3,-25,24
51383271706,16,-3,8,10,0,-1,-39,-58
51383278534,-7,-11,-34,-13,1,0,34,-3
51383278534,91,16,41,21,0,0,-21,24
51383295001,-24,-7,-29,43,3,1,-9,-1
51383295001,9,22,-14,-90,-11,-5,7,-8
51383296322,8,-6,5,1,-4,-2,2,9
51383296322,-75,-22,-23,-18,0,-1,-41,-29
51383308383,19,17,61,64,3,0,15,-42
51383308383,-9,-12,-36,-73,-6,-7,-15,52
51383317345,47,0,-5,49,11,3,20,-105
51383317345,-20,1,1,0,-3,0,16,34
51383331728,17,-6,-33,-76,-9,-6,-36,20
51383331728,-89,-18,-41,29,-4,-5,-19,-31
51383338434,6,1,-14,-14,2,2,-2,84
51383338434,26,-3,52,14,1,-2,13,-65
51383354860,-10,0,6,5,0,0,1,4
51383354860,-14,-14,12,12,1,2,3,-17
51383356301,24,2,5,-15,-3,-4,-31,29
51383356301,10,2,-3,-16,-2,1,-24,4
51383368344,20,4,23,12,-4,-1,16,51
51383368344,-13,1,2,8,3,-1,-12,-91
51383377330,-2,-9,6,-4,-2,0,13,14
51383377330,64,32,-22,-3,-3,-1,26,-49
51383391670,-17,-15,-24,-28,-1,1,9,-5
51383391670,-10,0,11,27,2,1,-14,15
51383398558,-25,-4,10,9,1,0,-5,-24
51383398558,33,6,-17,-23,-5,-4,-19,-8
51383414853,-3,0,9,27,5,2,7,63
51383414853,14,3,29,42,4,1,21,-36
51383416286,-2,16,-11,-16,-1,2,-13,11
51383416286,-10,-18,-54,-47,-2,-4,19,30
51383428394,-27,-4,-2,8,1,-1,-14,-7
51383428394,9,-3,35,44,6,5,14,83
51383437330,32,4,2,-2,-1,-2,-12,-63
51383437330,-26,-7,40,22,-5,-6,3,7
51383451712,-12,-2,-17,-12,0,1,-14,-43
51383451712,14,5,-12,-9,-3,1,32,17
51383458470,77,6,1,14,-5,-4,6,-39
51383458470,52,13,28,-8,-1,-1,1,4
51383474862,-39,-2,-21,-1,-2,-2,-14,69
51383474862,6,-4,-10,0,0,0,1,-11
51383476306,-35,3,-15,1,-4,-5,-39,-9
51383476306,15,-24,4,-29,-4,2,9,16
51383488451,-28,9,17,21,-2,-3,7,26
51383488451,28,8,31,-26,-4,-2,7,-27
51383497319,-25,-7,-63,-2,4,-1,3,12
51383497319,-11,5,10,-17,-5,-2,14,80
51383511663,-22,6,17,10,1,-3,-4,-47
51383511663,6,-3,-3,-27,-5,-2,-15,-73
51383518493,-24,-11,56,1,-8,-6,-13,30
51383518493,-18,-12,-12,15,4,3,-21,66
51383534686,26,15,1,-12,0,3,62,-115
51383534686,-30,-15,-34,24,1,-4,-11,12
51383536287,-10,-5,42,8,-2,-1,8,12
51383536287,42,2,-51,-35,-3,0,-12,-13
51383548397,36,-6,12,23,0,-3,-53,-51
51383548397,16,1,-26,-12,-2,0,56,38
51383557360,23,-19,43,22,1,-2,5,13
51383557360,-25,-5,-38,-13,0,-2,-9,-23
51383571691,24,-1,30,-10,0,1,-3,-12
51383571691,-21,3,4,14,-2,-1,34,-18
51383578517,-12,-20,-8,-41,-4,-4,9,22
51383578517,-14,2,-6,17,5,1,-3,-14
51383593913,29,-3,32,26,1,-2,20,-25
51383593913,5,-4,-8,9,1,-1,-13,15
51383602329,9,2,-21,-44,-4,-2,11,-7
51383602329,-16,-1,-55,-6,1,-1,-15,-31
51383608579,-11,0,19,5,1,2,-5,50
51383608579,17,5,-1,23,0,1,-28,22
51383617338,13,8,-8,1,3,3,-1,50
51383617338,-79,-21,-14,-9,-6,-3,-6,-96
51383631673,1,-8,-30,-14,0,1,-40,31
51383631673,24,10,30,24,3,-1,-15,20
51383638509,-26,-1,-32,-6,-3,-2,-2,-17
51383638509,30,-2,-32,-13,-9,-7,9,24
51383654834,-15,-4,27,6,0,-1,3,11
51383654834,5,5,8,-10,-3,1,-4,-29
51383656298,2,0,-5,12,4,2,-3,5
51383656298,-11,2,41,22,-1,-1,-5,60
51383668454,61,5,4,-20,-9,-5,-4,20
51383668454,19,3,-31,-1,3,-2,-18,56
51383677313,-14,-1,-10,-13,0,0,-12,-71
51383677313,3,5,28,4,-1,-1,-29,11
51383691624,-18,2,-22,8,0,3,82,59
51383691624,-20,-7,-4,-32,-2,-1,-74,-46
51383698309,9,10,16,28,2,-3,-15,42
51383698309,-22,-11,10,10,-1,-3,-6,-31
51383714844,13,-2,-14,-31,-6,-3,-5,9
51383714844,3,-5,-2,-17,-4,2,-1,6
51383716275,2,12,4,17,-3,1,12,-5
51383716275,3,2,67,56,10,2,31,-62
51383728502,-13,-8,-77,-35,1,-1,-12,-14
51383728502,57,2,-7,27,8,-1,12,17
51383737353,-43,-2,69,2,-5,-1,5,20
51383737353,5,3,-7,-68,-16,-7,-27,-24
51383751701,1,-6,-7,19,5,-2,-3,44
51383751701,-4,-8,-4,-16,0,3,24,56
51383758437,11,-10,18,24,-2,-3,0,-82
51383758437,-5,7,-34,18,7,5,37,10
51383774229,-4,-2,5,-8,-2,2,1,29
51383774229,25,-20,5,2,-6,-4,-7,22
51383780977,-68,4,11,9,2,1,9,29
51383780977,65,13,-5,-41,1,4,53,-35
51383788447,0,-22,-36,-6,-9,-10,-20,-3
51383788447,-13,3,31,-3,0,-1,15,-7
51383797319,24,-3,-27,-13,1,2,-24,1
51383797319,-29,-3,49,30,1,-1,-4,43
51383811704,13,3,-68,-8,0,-3,-4,-74
51383811704,3,8,16,-6,-4,-1,-11,-31
51383818542,9,-1,-43,-34,-4,-5,-34,78
51383818542,-13,5,38,19,-1,3,5,-19
51383834221,9,10,25,18,0,-2,-15,72
51383834221,-58,-13,-40,11,2,4,25,-74
51383840816,7,8,-1,-41,-4,-5,-20,-17
51383840816,-1,-12,-58,8,2,0,21,-10
51383848541,-5,4,31,0,-2,0,-2,-19
51383848541,-72,4,20,-16,-1,-2,-21,2
51383857315,7,-4,1,34,2,-3,17,3
51383857315,-8,-3,-5,-3,-4,-3,-29,3
51383871705,-22,4,38,-22,-1,0,17,-38
51383871705,6,10,-25,-5,-4,-3,23,72
51383878466,-35,-1,33,7,3,3,31,-40
51383878466,42,-7,-60,13,3,0,-12,52
51383894127,-9,4,6,-6,-6,-3,-10,-1
51383894127,22,1,45,44,2,-2,-31,25
51383900995,35,7,-64,-14,5,0,11,-55
51383900995,-34,-10,53,-29,-4,-1,26,45
51383908495,23,-4,13,18,5,5,26,-51
51383908495,1,-4,-36,-19,-4,-3,-34,-11
51383917287,53,-11,1,4,-5,-3,47,28
51383917287,-74,4,6,17,2,-3,-62,-24
51383931726,3,-1,13,7,-1,-2,-10,-10
51383931726,-4,1,11,-21,-2,-2,-6,45
51383938375,20,3,-4,31,-1,-1,11,-57
51383938375,-45,-18,-37,-22,-1,-2,-23,44
51383953967,-47,-5,28,22,3,-1,19,-88
51383953967,60,4,-12,9,0,-2,19,24
51383960955,-11,-7,-50,-16,-4,-2,11,25
51383960955,50,5,38,-3,-1,0,11,-16
51383976353,-9,2,5,17,0,2,-24,-1
51383976353,2,-7,5,-10,-3,-2,7,-23
51383984778,-46,-3,28,-14,-2,-1,-17,-40
51383984778,-12,12,2,11,2,1,50,31
51383991673,77,-2,-38,5,3,2,-2,38
51383991673,-13,18,31,-28,-11,-4,17,-38
51383998454,19,-14,21,2,2,1,-32,53
51383998454,-77,3,-22,-2,-5,-4,7,-45
51384014112,-28,4,28,-4,2,4,-14,3
51384014112,37,5,-5,-9,-2,-3,13,16
51384021022,-81,-7,0,16,-1,-3,-3,22
51384021022,53,-4,5,-15,-2,-2,-24,11
51384037297,20,-5,-32,-9,-3,-2,44,43
51384037297,-12,1,26,3,3,0,-9,-42
51384038747,-4,0,10,9,-2,1,-13,13
51384038747,50,8,15,1,2,-2,-22,29
51384051686,-38,-4,25,-12,-4,-2,-7,-45
51384051686,3,-4,-15,-14,-2,0,6,31
51384058446,13,3,-1,-8,-3,-1,-11,35
51384058446,-42,-5,19,18,-2,-3,0,-62
51384074098,-9,9,-41,7,4,-2,-9,21
51384074098,-13,-25,20,2,1,1,1,-24
51384080876,19,-4,-30,-30,-2,0,-13,24
51384080876,6,12,-2,-8,-4,-3,13,-70
51384097322,-2,6,-8,-29,-6,-2,-33,28
51384097322,-10,2,10,37,4,2,17,-47
51384098776,76,11,36,14,1,-2,-15,54
51384098776,-34,-4,-53,-44,1,3,34,-11
51384111705,30,-7,14,7,-2,-2,27,-10
51384111705,-32,-12,-43,-16,-1,1,-19,45
51384118685,-26,3,29,-5,-1,-1,0,-29
51384118685,27,4,37,39,0,-1,-22,55
51384134164,-1,1,13,-49,-2,2,4,-32
51384134164,-26,-6,-4,23,0,-6,-7,20
51384140991,-10,-4,-29,1,-1,-2,16,-26
51384140991,32,-1,16,6,0,0,1,12
51384157309,-6,-15,-10,5,-5,-4,-27,52
51384157309,29,9,-2,-15,1,2,14,-73
51384158749,-8,10,8,10,0,-2,-54,78
51384158749,-29,-9,-35,-12,1,2,44,-52
51384171620,21,14,44,23,-2,-3,-24,10
51384171620,34,-4,-84,-3,-3,-2,-17,-43
51384178345,-30,0,1,9,1,2,37,-65
51384178345,-9,-12,7,-12,-4,-5,-39,23
51384194160,-87,3,-26,-1,-10,-7,5,-55
51384194160,-8,2,21,12,9,4,-5,2
51384200862,6,-2,-30,-7,-3,-1,22,-21
51384200862,51,5,28,19,5,2,-21,1
51384217311,-21,-3,21,4,1,-2,9,9
51384217311,8,-10,-30,-11,-7,-1,-7,7
51384218763,-61,-15,4,-11,-3,0,33,-43
51384218763,8,7,17,-18,0,0,2,24
51384231591,14,2,-12,12,0,-1,-9,47
51384231591,-1,1,13,-9,1,2,29,-39
51384238430,42,0,3,4,2,3,13,50
51384238430,17,5,-13,5,-4,1,-7,2
51384254008,-1,-3,-1,-9,1,0,-14,-75
51384254008,-93,-15,25,18,1,3,-17,18
51384260953,8,-6,-10,-15,-5,-3,-38,-19
51384260953,-1,2,11,17,4,0,38,-39
51384277305,16,-2,16,-12,-8,-3,-7,-28
51384277305,11,20,-3,-8,-2,-2,-22,52
51384278753,-10,1,45,17,0,-2,17,-105
51384278753,-17,-9,-7,7,-1,2,-26,-14
51384291665,-12,-2,-3,24,7,4,-3,45
51384291665,13,2,14,-6,-3,-3,2,27
51384298533,-44,0,-86,-16,-3,0,65,-43
51384298533,12,1,-26,-6,2,-1,-30,42
51384314238,17,-5,6,5,-2,-2,6,31
51384314238,5,11,19,-21,-8,-3,-3,-74
51384320967,6,-9,-43,46,3,-1,-43,68
51384320967,15,-10,-26,-83,-7,-2,36,1
51384337197,-46,-5,-18,12,6,1,-8,10
51384337197,4,12,38,-9,-4,-4,-13,-65
51384338782,32,0,-7,2,1,0,-25,18
51384338782,-13,-2,-22,-1,-2,-3,-11,49
51384351746,-20,-14,-13,22,7,2,11,14
51384351746,12,-9,4,-4,-3,-2,-23,31
51384358312,2,7,22,-36,-6,0,41,-34
51384358312,5,4,15,64,6,1,-34,21
51384374266,-18,17,-14,1,-2,1,1,11
51384374266,71,-35,-2,-37,2,-1,18,50
51384380930,-14,0,5,2,0,-3,2,8
51384380930,-3,2,0,-15,-3,-1,2,0
51384397301,15,6,-7,-8,-1,-1,10,-27
51384397301,-10,8,20,64,5,-4,-4,13
51384398752,14,-4,-44,-4,-2,-1,-8,-26
51384398752,-4,-18,-61,-33,-2,0,-7,28
51384411632,15,2,4,-9,-6,0,23,34
51384411632,-22,19,6,17,1,2,12,7
51384418333,35,-32,15,4,4,-2,-83,51
51384418333,-34,12,16,-5,-2,0,-30,9
51384434147,5,-13,-31,42,3,0,1,-17
51384434147,-11,4,-6,-50,-9,0,-11,47
51384440811,-8,4,27,48,4,-3,31,-15
51384440811,40,11,15,28,4,3,4,-3
51384457338,28,-15,36,-83,-20,-7,-13,8
51384457338,-75,0,-18,37,10,1,-20,-16
51384458774,-4,14,21,26,-1,2,45,22
51384458774,4,-5,63,-59,-8,-5,25,-18
51384470796,18,-5,-46,36,0,-5,-29,-52
51384470796,8,0,30,-42,-6,-3,20,35
51384479800,19,10,-43,-19,-3,-5,-19,38
51384479800,-83,-21,21,30,-2,0,2,-60
51384494167,55,14,52,-5,2,-1,-20,-12
51384494167,-18,-16,-21,-35,-11,-1,49,-53
51384500807,25,6,36,15,1,1,-22,72
51384500807,18,-3,-39,-1,-5,-4,-1,47
51384517272,-21,-13,18,14,5,0,36,-57
51384517272,53,11,-29,43,7,2,-7,-2
51384518750,-31,8,56,14,-1,-1,15,-22
51384518750,-1,-10,-61,-18,-4,-5,-8,-30
51384539738,25,-1,7,-20,-2,-3,-26,26
51384539738,11,7,-12,22,2,2,39,16
51384541277,-23,5,26,-13,-6,-1,-8,-7
51384541277,14,4,8,7,0,-5,39,-46
51384554113,-6,-21,31,44,7,6,-1,7
51384554113,-6,-1,40,-100,-12,-4,-17,7
51384560972,2,2,14,0,2,4,-3,-25
51384560972,2,10,44,13,-3,-3,-7,38
51384577323,-25,14,-28,7,-3,-3,27,5
51384577323,-24,-10,-12,38,0,-3,13,-61
51384578759,38,-4,24,-43,-1,1,-13,13
51384578759,42,11,16,33,1,-3,-48,21
51384590988,-22,-2,-27,-10,8,8,0,1
51384590988,-5,-18,-5,-11,-6,-3,-45,1
51384599773,-4,0,-41,-29,-6,-4,40,29
51384599773,22,-6,1,35,4,-1,-1,-4
51384614100,-33,-4,-12,-21,1,-5,-16,4
51384614100,22,6,35,37,0,-3,-12,10
51384621001,30,11,-49,-71,-7,1,-7,-23
51384621001,2,-18,-84,5,2,1,15,25
51384637357,-29,10,15,0,-6,-1,-11,11
51384637357,13,-6,-20,-8,3,1,5,27
51384638729,-29,-3,11,70,4,-4,-21,-22
51384638729,24,7,43,8,3,3,-31,39
51384650873,-9,-2,-14,-26,-7,-4,0,32
51384650873,-9,0,-13,19,2,0,3,6
51384659795,7,-9,3,-14,-5,-4,-56,-31
51384659795,4,-8,1,30,5,5,42,52
51384674240,-69,-11,-7,-43,-3,-1,61,-37
51384674240,-14,-14,15,5,0,-4,-15,37
51384680915,0,-3,42,-8,1,2,24,-76
51384680915,-39,4,7,-15,-2,1,0,-18
51384696693,-43,0,30,30,-1,-4,1,44
51384696693,17,1,-11,8,1,2,-3,-6
51384703413,-16,13,-46,17,1,-3,-10,16
51384703413,-56,2,10,-12,2,-2,-10,-47
51384710817,55,-12,7,-60,-12,-5,9,-59
51384710817,0,5,-13,13,0,-3,-84,95
51384719802,-25,-8,-12,-17,0,2,45,-22
51384719802,27,2,8,10,-2,0,11,-21
51384734233,28,6,-20,9,0,-5,-10,18
51384734233,-5,-2,5,-9,-2,-1,26,-9
51384740913,-1,-10,-31,24,2,0,-10,27
51384740913,-1,9,-37,-62,-9,-1,-36,-74
51384756687,15,-8,-5,7,-4,-2,11,47
51384756687,-39,-11,-55,-3,0,-1,24,18
51384763446,-2,-5,50,24,0,2,13,-35
51384763446,29,5,6,0,-2,-2,4,24
51384770950,-57,-2,28,-31,-5,-1,-47,-24
51384770950,14,-1,5,-44,-1,0,11,-57
51384779793,22,2,20,-4,-2,-3,-3,116
51384779793,21,17,-13,29,1,1,-22,26
51384794180,21,7,23,23,6,5,24,-27
51384794180,18,-11,9,-33,-15,-8,-20,7
51384800978,-80,-15,-27,-1,3,1,-15,13
51384800978,20,2,40,-3,-4,-1,35,54
51384817115,24,13,-18,26,10,4,-12,-73
51384817115,-9,13,-4,14,1,2,54,-6
51384823449,26,-2,-16,-14,-3,-3,-29,0
51384823449,2,4,63,-5,2,-2,0,-22
51384830942,-24,-9,-14,12,-4,-5,-16,49
51384830942,-57,-7,-11,24,4,1,-1,-21
51384839790,5,-2,13,-55,-12,-3,46,-64
51384839790,-6,4,-20,21,2,-5,-1,30
51384854163,33,5,50,-9,3,5,-34,76
51384854163,28,5,-3,-9,-3,-4,-78,83
51384860952,-23,14,28,10,-2,3,62,-10
51384860952,-3,-18,-60,-7,1,-1,-24,6
51384876622,26,1,8,-29,-8,-5,16,-56
51384876622,12,11,-33,21,5,1,-36,0
51384883484,19,0,41,36,7,3,-4,-33
51384883484,-11,-12,-51,-95,-22,-9,6,-25
51384899828,16,-1,-37,27,4,0,-6,25
51384899828,23,10,39,14,0,-1,38,-64
51384901238,-29,14,-27,0,5,0,-27,3
51384901238,-25,8,22,48,10,4,20,-59
51384914107,20,2,41,-17,-2,-1,-2,21
51384914107,-71,-8,-56,-23,-10,-7,20,-22
51384920963,7,-9,2,3,4,1,-11,76
51384920963,26,-8,29,20,2,-1,-3,-33
51384936621,29,10,-5,4,1,3,24,-19
51384936621,-1,-10,49,16,3,-1,3,-57
51384943320,22,-3,-39,-24,-6,-3,0,16
51384943320,-10,-21,13,-22,-1,1,4,-18
51384959844,23,14,13,23,-3,-4,-10,7
51384959844,15,0,-17,24,3,1,2,-2
51384961363,-10,-11,13,-38,-9,-3,10,-45
51384961363,21,22,0,34,4,1,-35,19
51384974122,-26,-15,0,7,1,-5,-7,-32
51384974122,16,4,16,-7,0,2,11,-25
51384980909,12,12,-31,14,-1,-3,-32,17
51384980909,-33,-1,80,18,5,5,16,23
51384996684,-4,-9,-82,-42,-4,-3,-20,-12
51384996684,-25,1,4,8,-3,-3,-24,57
51385003349,39,13,8,-11,-5,-5,8,-90
51385003349,-33,-2,-1,3,2,5,5,-13
51385019674,9,-9,-43,5,-2,1,-12,36
51385019674,42,1,25,21,0,-4,-2,-27
51385021216,-3,6,-8,-19,-3,-4,5,74
51385021216,-17,-12,-22,4,1,0,-11,-17
51385034108,-23,5,28,-14,-6,-1,25,3
51385034108,-17,-6,-45,-16,-5,-3,-4,27
51385040887,13,-4,21,20,2,2,-5,-9
51385040887,-5,-3,-22,-6,-1,-3,-14,17
51385056628,11,-12,35,27,6,4,19,-4
51385056628,10,-3,-33,-35,-5,1,17,-1
51385063355,-22,-7,33,14,-1,-2,4,36
51385063355,-59,-14,44,8,-2,1,34,-58
51385079766,5,8,-92,2,-5,-4,14,-26
51385079766,-6,-10,19,-26,0,-4,-2,-13
51385081249,-26,-12,10,-6,0,1,15,-29
51385081249,27,1,-74,-24,-14,-7,-23,13
51385094130,-7,2,43,24,3,1,-15,16
51385094130,42,6,-3,20,7,5,5,9
51385100974,-53,-16,-48,-4,-3,-3,-13,18
51385100974,50,10,27,-5,1,1,6,25
51385116641,-71,-3,-2,6,-1,-1,-33,33
51385116641,11,31,38,-4,1,1,-19,-12
51385123425,17,1,7,-6,5,6,12,-29
51385123425,9,-6,-6,-3,-5,-4,23,-11
51385139809,-11,-23,41,3,1,-2,-24,0
51385139809,26,12,13,-3,-3,0,10,-7
51385141226,-54,-16,-5,-2,-1,-2,-22,13
51385141226,-55,8,61,3,2,2,-5,-41
51385154073,108,2,-36,27,4,-2,24,-34
51385154073,-52,-14,-29,-58,-4,-1,2,35
51385160976,40,5,53,38,-4,0,-9,-2
51385160976,-54,-7,-54,-57,-2,-4,-17,31
51385175867,-23,-3,30,4,-2,-2,15,-59
51385175867,13,-8,36,36,3,1,18,-24
51385183457,43,2,5,4,2,1,6,44
51385183457,6,-7,-31,-36,-6,-2,-50,18
51385199080,-5,11,-4,-1,-1,1,34,29
51385199080,-6,-3,19,2,-2,-2,1,-64
51385199787,-6,-3,-17,7,-2,-4,12,4
51385199787,31,3,-8,37,1,-3,-7,13
51385214746,-44,8,-16,-24,-4,0,8,17
51385214746,-4,-12,0,18,4,2,3,-60
51385220931,0,-5,-19,-16,-5,-4,-28,2
51385220931,37,-8,-30,-3,0,-5,16,-40
51385235942,-19,-2,8,-35,-5,-3,-20,-15
51385235942,-3,-5,-34,-9,-3,-3,14,46
51385243433,0,8,-8,3,-4,-4,-74,-3
51385243433,20,5,-1,19,5,7,29,-19
51385259713,21,5,3,24,5,3,-8,25
51385259713,3,3,22,-19,2,1,0,3
51385260398,-7,-8,-30,0,-4,-4,-9,0
51385260398,14,-7,20,-32,-7,-5,16,43
51385274745,7,12,-2,8,5,1,-3,36
51385274745,20,4,-29,15,-2,-2,-54,113
51385280792,9,6,44,17,7,5,50,-40
51385280792,22,3,-10,4,-5,-6,15,24
51385295878,-17,-6,-17,-30,-8,-1,1,-21
51385295878,7,2,70,0,-1,-3,-35,-2
51385303394,24,5,-53,-14,-1,-1,-17,92
51385303394,-63,-9,-19,18,2,4,58,-17
51385319032,69,2,1,24,-3,-4,-46,38
51385319032,1,2,22,-15,1,2,35,-73
51385319896,-5,4,-36,-4,1,-1,-2,-7
51385319896,18,3,-27,10,1,1,-32,-9
51385334763,-28,-17,14,-9,2,-2,4,58
51385334763,-18,-11,-9,-8,-6,-2,-4,-25
51385340948,-5,-1,8,-9,-5,-2,34,-19
51385340948,19,4,20,-7,4,4,-12,-30
51385355825,-11,-1,-1,-5,-4,-4,-8,35
51385355825,-28,-3,-4,26,3,2,20,-74
51385363396,-61,-13,-11,-10,-2,-2,2,4
51385363396,-28,-1,46,9,-3,-2,18,101
51385379073,3,-2,10,17,4,3,5,-44
51385379073,-28,18,17,-17,-10,-7,-16,14
51385379897,68,0,-56,-18,-1,-1,9,-48
51385379897,-12,-19,21,27,1,0,-15,78
51385394744,-8,-2,2,-32,-7,-4,2,-23
51385394744,22,2,17,17,3,3,22,35
51385400940,36,2,3,-14,-4,-4,-8,-13
51385400940,1,1,3,-7,-5,-5,-20,-24
51385415867,4,10,14,-14,-1,-1,2,-62
51385415867,-13,-13,-30,16,-2,-1,7,14
51385423443,-2,-10,-5,-7,-3,-6,1,-15
51385423443,8,14,10,2,7,4,-12,-16
51385438975,79,0,3,29,4,1,15,111
51385438975,6,-5,-28,-12,3,5,4,36
51385439693,-5,3,22,9,1,1,23,-33
51385439693,2,-1,4,1,1,-2,11,-15
51385454712,-44,-15,-29,-13,-10,-8,-37,-82
51385454712,9,-2,-66,-13,0,-1,14,0
51385460792,-16,3,24,25,3,6,-1,21
51385460792,10,-2,-7,-27,-3,-4,-23,-15
51385477209,-27,2,23,-3,2,2,16,-14
51385477209,-21,7,-3,-9,-2,-2,25,-8
51385483493,-32,-28,35,-6,-7,-4,-16,6
51385483493,0,6,-8,34,-4,-5,-55,72
51385498887,-9,-2,-42,-12,4,2,20,-84
51385498887,24,-2,3,6,-1,0,17,38
51385499644,-7,11,5,9,0,-1,-11,12
51385499644,-17,-5,40,8,2,-1,-2,5
51385514666,-43,-2,-31,-68,-9,-2,-19,17
51385514666,26,-1,4,5,2,0,18,63
51385520715,-62,-6,-7,16,8,0,-23,-31
51385520715,27,7,65,-14,-8,-5,13,-93
51385535655,8,-3,-17,36,3,0,26,27
51385535655,-15,-7,-89,-13,-3,-4,-46,-26
51385543201,18,7,31,-33,2,1,9,53
51385543201,5,1,-33,3,-2,-2,10,-12
51385558817,67,3,47,13,-2,-1,-3,14
51385558817,16,-2,41,31,0,-2,-21,23
51385559642,20,5,3,-30,-3,-2,-28,9
51385559642,32,-1,-23,10,2,0,1,-23
51385574676,-20,2,-43,-13,0,-1,26,-4
51385574676,-13,-11,37,22,2,1,-13,47
51385580653,17,5,0,32,4,2,3,-55
51385580653,9,-9,1,-49,-7,2,21,-60
51385595681,-94,-5,20,35,-1,-7,-41,0
51385595681,43,9,7,-15,0,-1,11,4
51385603190,4,0,12,0,-2,2,15,-1
51385603190,-11,4,-19,21,2,4,-1,14
51385618830,15,-1,-17,-8,-1,-2,24,-8
51385618830,6,10,55,15,5,0,-8,-126
51385619651,4,2,7,-65,-9,-4,5,12
51385619651,19,-2,-35,27,4,-5,-42,28
51385634712,-4,-2,14,-3,-1,2,0,24
51385634712,-39,-4,29,52,7,4,21,3
51385640714,19,3,-5,-56,-16,-5,1,25
51385640714,-23,2,-3,16,-2,1,8,-24
51385655735,14,-2,25,8,1,0,-24,88
51385655735,-1,3,23,-2,-1,1,-13,21
51385663231,17,-6,-48,71,5,-3,0,54
51385663231,-35,4,-1,-13,3,1,17,32
51385678203,79,-23,2,-11,-2,0,8,-12
51385678203,-82,-3,-4,-17,-6,-3,-8,34
51385685712,44,7,25,-2,3,2,-26,-12
51385685712,1,-1,-65,-15,-7,-5,34,20
51385694696,11,1,6,23,1,-3,16,-65
51385694696,-9,-10,-17,-38,-8,-5,40,-23
51385700769,11,6,-8,14,3,1,-3,-2
51385700769,9,17,28,-27,-7,-5,-27,-15
51385715694,-16,-3,-18,-26,-2,2,16,59
51385715694,1,0,-7,0,-3,-2,-33,76
51385723256,-10,-3,3,12,4,1,30,-100
51385723256,14,-7,1,10,3,3,44,-11
51385738217,10,5,11,0,0,-3,-36,-4
51385738217,24,2,26,43,1,-1,-26,50
51385754660,4,-8,-20,-33,-1,-3,20,-36
51385754660,-36,-11,10,-1,3,2,-21,31
51385756230,-70,8,42,23,2,0,-35,-18
51385756230,10,-7,-114,-32,-2,-2,35,-28
51385760918,-33,-11,21,19,1,1,-22,19
51385760918,34,5,65,-4,-4,-4,5,27
51385775864,0,-4,-92,8,1,2,15,-47
51385775864,22,3,12,-34,-5,-3,-26,-4
51385783381,-61,-5,-7,29,5,1,28,-28
51385783381,-8,-5,-5,-13,-1,-2,-18,64
51385798256,4,-5,-1,6,-4,-1,-9,-77
51385798256,7,3,10,2,0,-2,2,-13
51385805873,12,-3,0,3,-2,0,-9,91
51385805873,24,0,53,25,2,0,-17,-37
51385814720,102,5,0,-3,6,3,20,55
51385814720,-30,-7,1,8,-2,-2,4,-50
51385820810,22,-5,-27,7,2,-4,-6,12
51385820810,11,6,-9,-6,-2,-1,20,-19
51385835902,-10,-7,-10,-67,-11,-6,-6,27
51385835902,-5,1,9,14,2,0,-13,-14
51385843389,4,10,65,12,-3,0,-55,52
51385843389,0,-1,-12,20,-1,-3,5,-7
51385858310,-29,7,0,18,4,2,25,-49
51385858310,-4,-9,12,-37,-3,-1,-3,23
51385865817,-29,-1,29,11,-1,-1,-27,15
51385865817,30,9,-14,-9,-2,-1,3,-90
51385881544,-10,11,2,-8,-3,-3,-9,39
51385881544,-3,-15,33,4,-3,0,-17,-25
51385882223,7,-1,-14,4,1,1,44,21
51385882223,-36,-3,-14,-22,-4,-4,-34,8
51385895907,94,10,-1,9,1,-1,-26,14
51385895907,-19,-3,7,9,0,0,6,-24
51385903340,4,1,7,-5,-1,-1,19,-15
51385903340,0,0,-2,-6,-2,-1,3,4
51385918458,-12,1,-28,-16,-1,1,5,75
51385918458,-29,1,1,59,3,0,15,39
51385925748,18,-2,-64,-56,-6,-2,-18,58
51385925748,-5,4,6,24,0,-7,-2,46
51385941486,-31,4,12,19,0,-1,5,-79
51385941486,12,6,6,-19,-4,0,14,-16
51385942365,-40,2,-24,24,1,1,-3,-10
51385942365,-3,-4,-15,-9,-1,5,7,3
51385955928,-42,-4,-3,-13,-3,-1,-33,8
51385955928,48,0,11,12,6,3,14,0
51385963315,-21,-1,22,2,-4,-3,-2,-75
51385963315,-45,-12,6,25,3,1,1,-2
51385978417,-32,-10,-1,-32,-8,-4,-20,36
51385978417,48,8,-7,-37,-4,-2,16,-72
51385985930,15,-17,-20,10,2,-1,-6,14
51385985930,-5,0,-3,-8,0,2,12,23
51386001349,-12,2,16,36,7,2,-11,26
51386001349,32,11,23,7,2,5,71,44
51386002134,-5,-8,-82,-33,-7,-4,-63,12
51386002134,11,-9,26,21,3,0,-3,-74
51386015709,12,-2,10,22,1,0,48,-11
51386015709,-10,-1,-13,-36,-7,-5,-13,3
51386023317,11,5,30,-15,-6,-3,6,-33
51386023317,-27,-14,6,20,7,1,-34,75
51386038263,14,-4,-17,-20,-3,1,19,-45
51386038263,-24,-2,6,12,-2,-3,-45,3
51386045717,-11,-2,53,6,3,3,4,79
51386045717,37,-5,-94,-51,-9,-1,28,-6
51386061432,7,9,24,18,3,-3,-17,33
51386061432,-18,-14,19,8,3,1,-18,23
51386062353,37,7,22,5,-1,0,-19,-22
51386062353,0,10,18,3,-3,-1,95,-18
51386075809,32,-7,7,-18,-4,-1,-43,14
51386075809,-37,0,-33,-2,-2,-3,12,16
51386083372,6,-11,9,37,6,2,21,1
51386083372,-13,-16,-16,-50,-8,-5,-33,8
51386098269,9,-3,-22,8,-1,0,31,15
51386098269,4,10,23,-6,-4,-4,-30,-44
51386105898,-16,2,9,5,-2,-5,10,-3
51386105898,57,9,-9,56,5,0,-38,80
51386121449,-39,-8,29,-77,-8,1,-13,-76
51386121449,9,-8,-4,18,-1,-4,-51,59
51386122302,24,7,-11,-2,-1,-1,47,-70
51386122302,26,1,55,4,-1,-3,9,7
51386135782,-14,3,27,21,0,-2,-5,38
51386135782,12,-3,-22,-10,-2,2,27,-25
51386143359,-7,-1,-16,-2,-3,-4,13,14
51386143359,-43,6,27,1,4,1,-35,18
51386158299,-21,-1,-3,10,-3,-2,26,-74
51386158299,-26,2,-10,13,2,1,14,-33
51386165883,36,6,35,6,-1,2,-31,32
51386165883,-88,-11,-41,-27,0,4,37,-115
51386181555,-6,-8,37,23,4,1,-2,48
51386181555,23,9,-120,-25,0,-3,-28,37
51386182248,-9,1,25,-16,-8,-2,2,-2
51386182248,-13,-7,-17,-8,-2,-4,-43,11
51386195810,5,5,-2,-4,-2,0,-11,-2
51386195810,15,0,17,34,3,0,17,-34
51386203426,-1,4,-16,-36,-1,-3,-8,-5
51386203426,35,3,-7,17,0,-1,-4,0
51386218308,-43,-14,-54,2,-1,0,-32,53
51386218308,-2,10,14,-6,-3,0,21,30
51386225813,5,4,-5,-8,0,2,-4,-44
51386225813,16,-1,-7,-5,-5,-4,-9,37
51386241468,12,5,3,19,0,-5,42,-9
51386241468,-11,-7,-8,2,2,-2,-34,79
51386242235,-17,2,67,16,2,-1,-4,-38
51386242235,16,4,16,0,-2,1,38,19
51386255864,-2,1,24,14,1,-2,9,-12
51386255864,4,-3,-24,-7,0,1,-18,-18
51386263415,19,5,4,15,-1,0,50,43
51386263415,-32,-10,22,-9,1,-2,-23,11
51386278285,57,0,-22,-18,-7,-3,-6,-70
51386278285,-11,-2,20,-21,-2,2,5,41
51386285918,-74,-5,-61,-34,-1,-3,-40,19
51386285918,-34,-5,0,24,2,-2,9,-30
51386309817,13,-3,-16,-2,-2,-1,21,8
51386309817,15,12,29,-3,0,0,-13,55
51386310354,-14,4,-36,27,5,2,3,-35
51386310354,20,-5,-3,-26,-5,-2,-14,-23
51386315905,-33,1,16,11,1,0,-34,33
51386315905,37,-2,5,-4,-3,-5,17,-18
51386323364,-47,-10,9,19,0,-2,11,-42
51386323364,11,4,-63,-42,-5,-2,13,-24
51386338412,11,0,-3,46,5,-4,-12,-54
51386338412,14,-2,53,4,-3,-1,-23,-19
51386345929,12,-10,-35,-5,-1,-1,-3,43
51386345929,11,-3,15,-1,1,1,-7,-46
51386361498,0,-5,4,-11,-2,-2,16,-9
51386361498,-85,-13,-26,6,-2,-3,26,-35
51386362205,79,7,12,3,-1,0,-37,18
51386362205,21,12,-10,3,-3,0,28,8
51386377227,-15,-8,13,13,3,0,-16,53
51386377227,-17,0,24,-15,-2,-1,1,-41
51386383422,0,-11,-29,8,0,-1,16,4
51386383422,-24,-1,-3,3,-3,-1,-19,15
51386398476,19,10,17,13,1,-2,2,-22
51386398476,13,-24,-68,-51,-5,-2,-43,-16
51386405949,37,17,52,31,2,3,30,-6
51386405949,36,0,49,-44,-2,-1,11,41
51386420926,-74,-11,-27,-19,-1,2,22,-47
51386420926,20,6,27,31,2,-3,-25,-9
51386428921,32,10,-15,10,0,1,-38,-17
51386428921,9,-4,-5,-6,-9,-4,54,-36
51386435765,-27,-5,-23,0,1,2,14,-71
51386435765,64,6,27,-9,-3,-2,15,21
51386443242,-23,-5,-5,16,-1,-2,-20,-36
51386443242,19,-4,-19,15,3,1,-11,26
51386458327,9,11,-9,-32,-9,-2,16,57
51386458327,-13,-9,-14,5,-4,-2,23,-35
51386465738,-14,-1,15,-12,-4,-4,-16,-20
51386465738,26,13,-17,24,6,4,-17,-20
51386481486,-35,-16,1,6,0,2,-7,34
51386481486,-14,-7,-7,-40,-3,-4,-7,5
51386482311,-30,-1,29,-3,-2,-1,25,33
51386482311,30,-2,2,-15,-6,-1,-22,26
51386495819,39,-10,-50,11,3,-2,-2,84
51386495819,-17,11,28,17,2,4,26,-30
51386503324,-71,-14,-45,-8,2,0,-39,-3
51386503324,-20,8,14,2,-3,0,39,34
51386518328,21,0,51,-6,-1,-1,1,26
51386518328,7,-3,-8,36,2,-2,-5,6
51386525803,35,4,-1,-22,-3,-4,-3,63
51386525803,-14,5,9,19,6,3,-1,-18
51386541568,7,-2,-12,-24,-5,-2,-19,-2
51386541568,5,9,20,6,-1,-1,3,-1
51386542171,-18,-5,5,-21,-6,-1,19,-12
51386542171,-9,-5,14,-23,-1,-9,-44,-42
51386555890,65,25,18,20,3,2,3,-9
51386555890,-20,4,29,15,4,4,10,17
51386563367,16,-9,-2,12,-2,-5,6,14
51386563367,-4,-4,-13,7,0,0,-26,38
51386586553,-14,-13,5,-7,-1,-4,12,-89
51386586553,1,-3,1,-16,-2,-3,-7,-15
51386587183,44,21,63,-17,-5,2,21,32
51386587183,24,-20,-79,24,0,-1,59,45
51386600744,3,3,16,-10,2,-2,-82,-8
51386600744,-20,-7,-30,-3,2,1,4,-10
51386609117,21,-4,45,36,3,-1,10,-28
51386609117,-3,15,36,-41,-3,5,10,9
51386615994,9,1,-62,-13,-2,-3,16,6
51386615994,-38,-8,-51,-3,0,2,-24,14
51386623371,67,4,6,15,2,0,34,-50
51386623371,-66,-21,-2,27,8,2,-35,-33
51386638479,9,0,-2,-3,-10,-5,4,99
51386638479,-13,-5,8,-16,0,2,50,-77
51386645908,-36,-7,-8,12,1,0,-2,30
51386645908,7,53,21,5,0,-3,-33,48
51386660799,-29,-10,-7,-17,0,2,12,-22
51386660799,34,-9,-25,-5,-3,-3,-3,21
51386668903,-17,-3,7,0,-6,-2,-21,7
51386668903,-9,4,43,50,8,-1,8,46
51386675879,-19,-2,33,-26,1,4,-44,-11
51386675879,-6,0,5,17,-1,-1,14,8
51386683302,-18,-4,-81,-33,-4,-1,-16,64
51386683302,-14,-15,28,7,-4,-5,-27,-5
51386698365,-7,5,-17,-2,-2,2,16,86
51386698365,18,-11,7,6,2,0,9,10
51386705889,40,16,-5,-6,-2,-3,-2,-14
51386705889,4,4,24,-3,-6,-3,-2,-7
51386720788,39,1,19,4,-2,-2,-9,-1
51386720788,-12,0,-7,-7,-3,-4,23,25
51386728959,-2,-5,-13,-32,-2,-5,-16,-6
51386728959,-6,-2,-29,1,0,0,10,13
51386735911,26,0,-3,-28,-5,1,-1,-68
51386735911,-41,10,1,25,2,0,5,-70
51386743418,-26,-11,9,5,-3,0,16,-15
51386743418,1,-14,5,-12,-4,-5,-5,12
51386759723,-35,-5,-33,-15,-3,-2,1,109
51386759723,20,-6,29,20,1,2,-32,17
51386765785,-32,-2,22,13,-1,-1,12,9
51386765785,-21,-9,-25,-33,-1,2,30,-83
51386780765,31,6,3,43,3,0,-5,-14
51386780765,6,-2,-20,-53,-8,-7,-23,18
51386788937,-56,-13,-19,-12,1,2,4,-18
51386788937,4,-1,19,37,1,-1,-40,-7
51386804079,-8,-5,7,-39,-3,-3,13,-21
51386804079,15,5,5,1,-11,-3,-8,-18
51386804663,11,-6,-58,-2,-1,-2,-31,53
51386804663,-11,3,-10,0,0,-1,5,3
51386818436,-16,-15,-38,3,0,-3,-9,-34
51386818436,-62,7,45,11,-5,-1,5,59
51386825866,51,-1,-24,-28,-4,-1,10,-63
51386825866,16,-4,-13,23,-1,-2,15,18
51386840993,-16,1,-14,-11,-2,-6,7,50
51386840993,5,-3,25,-9,1,-1,-19,69
51386849092,-20,0,38,18,2,1,23,-48
51386849092,-18,-4,-8,-15,-4,0,-5,-35
51386864288,11,5,22,14,0,4,-8,-15
51386864288,21,8,-27,1,2,-2,-16,-3
51386864829,-71,-11,7,7,-2,-1,5,9
51386864829,36,-12,3,16,3,1,-10,-2
51386878454,-25,1,25,-28,-3,0,2,60
51386878454,45,17,18,8,0,-1,-13,-91
51386885874,-39,-6,-22,2,-1,4,19,-78
51386885874,29,6,-10,5,3,2,18,7
51386900745,-82,-8,-15,32,3,-2,-36,0
51386900745,22,-1,19,-50,0,2,41,9
51386908972,45,2,10,0,-6,-6,-13,16
51386908972,-68,-5,-4,-22,1,-1,1,26
51386924009,38,5,6,43,2,0,35,-61
51386924009,-3,-12,-76,-7,-2,-5,-16,14
51386924670,1,14,49,4,0,-2,-13,33
51386924670,-9,0,-18,-6,-5,-2,13,12
51386938371,61,7,12,-16,3,3,19,-14
51386938371,-18,-13,-4,10,-1,-3,-16,9
51386945776,-27,-7,-26,-10,5,-2,-28,10
51386945776,13,8,-29,-32,-8,-1,28,-97
51386960883,-12,5,24,19,4,3,26,-74
51386960883,22,-11,5,-1,-4,-4,-46,-7
51386969099,22,-1,-15,3,2,5,14,17
51386969099,-66,1,32,-7,-1,-3,-49,5
51386984036,11,-9,-12,12,-2,-3,13,16
51386984036,-38,-13,-33,-2,2,1,-17,-11
51386984629,15,6,14,17,0,-4,-10,-2
51386984629,39,-5,-22,-38,-4,-2,13,6
51386998416,-70,-6,35,30,-4,-3,3,-12
51386998416,17,7,18,16,3,3,-18,33
51387005910,23,-6,-19,4,0,0,-9,111
51387005910,19,-8,18,-21,0,3,30,-73
51387020850,5,-1,-16,12,3,1,-31,20
51387020850,18,1,-13,-13,-6,-1,-8,74
51387036659,-8,13,29,-12,2,5,22,-39
51387036659,65,-1,-21,9,-1,-1,-7,61
51387044046,-80,6,4,16,-1,-4,-9,-50
51387044046,19,-26,-47,-22,1,4,46,17
51387044698,16,-8,24,-1,2,2,-11,1
51387044698,1,-5,-54,12,-3,-5,-9,-6
51387058427,-8,9,42,-13,1,2,13,-11
51387058427,2,7,-73,14,-2,-2,21,-29
51387065898,-18,-2,19,9,-2,-2,32,-55
51387065898,10,16,28,-16,1,1,-44,2
51387080912,-2,-11,14,-10,-1,4,-24,111
51387080912,-25,8,33,7,-2,-3,-18,-58
51387089039,18,0,-9,-2,-1,1,56,58
51387089039,-9,5,14,17,3,1,-16,22
51387103911,27,-4,-10,-9,0,-3,-22,9
51387103911,-3,4,28,9,1,1,28,-49
51387104799,26,3,-46,2,-5,-4,-8,-37
51387104799,-31,1,26,-12,3,2,15,5
51387118200,16,2,27,-3,-8,-4,37,3
51387118200,4,5,-2,4,0,-1,14,-6
51387125948,-15,-10,-21,-11,1,-1,-28,-20
51387125948,14,0,17,20,-2,-3,4,-54
51387142202,15,4,-6,-21,-10,-5,3,-5
51387142202,0,6,11,-1,1,0,-21,3
51387149019,21,7,47,4,-1,-2,-6,-15
51387149019,-54,-15,5,-4,-3,-6,9,36
51387164015,24,4,-25,-4,1,-2,-24,-16
51387164015,37,1,3,2,0,-3,15,32
51387164675,-88,-4,29,-6,1,0,4,49
51387164675,-7,-16,-9,5,1,3,8,-97
51387178410,79,-5,-42,-36,-14,-9,-32,-14
51387178410,-94,-9,9,5,-4,-5,6,-7
51387185841,4,-3,-3,1,0,0,4,-14
51387185841,30,-4,36,16,0,1,8,3
51387200946,-30,-7,-52,6,3,-1,-5,-33
51387200946,53,4,-3,-13,0,2,-3,-32
51387208901,21,3,-5,13,-1,-3,-43,51
51387208901,-30,-14,-27,16,1,1,31,-58
51387224052,13,0,3,-29,-3,0,29,48
51387224052,10,19,47,10,0,-3,-9,10
51387224672,6,3,-12,16,2,-2,-21,-11
51387224672,29,15,16,-24,-8,-1,-28,48
51387238436,-14,-4,-28,35,5,2,-14,29
51387238436,-23,-15,-70,-14,-2,0,17,11
51387245742,-70,-5,-19,-9,-7,-5,-2,-9
51387245742,18,9,16,20,4,1,4,57
51387260844,18,-5,-1,-8,-1,0,1,-84
51387260844,-74,5,37,12,1,1,-19,-80
51387269068,27,-4,-7,-38,-2,-1,29,70
51387269068,-6,-2,-16,-15,-4,-3,-36,27
51387283892,9,-20,-30,-5,3,3,49,11
51387283892,35,-4,-25,-12,-5,-3,-42,13
51387284772,10,6,22,23,0,2,17,25
51387284772,-40,-4,-2,-27,-4,-6,-23,27
51387298181,-16,9,28,24,2,2,28,-44
51387298181,11,-8,3,-7,4,1,-12,-4
51387305709,33,-2,-31,-3,0,3,36,-47
51387305709,-37,3,44,-34,-16,-8,-10,24
51387320766,24,19,-64,15,-1,-2,2,-65
51387320766,-7,-16,23,-4,5,3,1,54
51387328921,-49,1,10,-3,-4,0,-30,-34
51387328921,23,-1,-9,5,5,-1,-12,-21
51387343828,-2,11,49,1,-2,0,43,27
51387343828,0,10,9,17,-4,-2,22,28
51387344604,38,-10,-29,-32,4,2,-4,3
51387344604,-11,-8,-62,8,1,-1,-23,12
51387358145,24,5,55,18,-1,-2,-49,-30
51387358145,-9,-10,-41,-10,-2,-1,26,6
51387365675,50,29,50,12,2,-2,-6,71
51387365675,-18,7,-9,2,4,5,83,-88
51387380644,41,0,9,-14,3,-1,-48,23
51387380644,-8,-2,1,-11,-5,-1,-14,7
51387388895,15,-2,1,22,6,-1,7,-28
51387388895,50,4,-27,-8,-4,0,6,28
51387403915,-26,1,41,7,0,-2,-23,91
51387403915,51,2,15,-7,-2,0,45,-8
51387404731,-102,-20,18,-6,-2,-2,-26,-14
51387404731,15,10,2,16,0,-4,-15,16
51387419663,-25,-8,18,13,0,1,9,6
51387419663,22,-1,-31,-31,-6,-6,-28,6
51387425760,14,0,-24,-11,-4,-3,12,-2
51387425760,-19,-6,67,20,-1,-2,22,49
51387440791,-21,-4,-76,-3,1,1,13,-59
51387440791,-17,0,27,13,1,-4,0,15
51387448941,19,-6,-33,-16,-6,-4,-63,-67
51387448941,0,6,10,3,-3,2,-7,-87
51387463915,-10,-5,3,-40,0,1,-19,36
51387463915,-11,-12,17,13,1,0,16,33
51387464727,4,-9,-8,-3,-3,-2,4,25
51387464727,62,9,35,26,3,1,-16,1
51387478315,-70,-11,-10,-10,2,2,-6,-22
51387478315,47,4,10,3,-2,-2,-2,9
51387485851,7,1,53,14,0,-2,19,16
51387485851,-44,-24,-67,-44,-6,-3,-8,33
51387500727,65,1,-30,30,2,-4,15,27
51387500727,-15,-11,4,17,2,0,-20,28
51387509056,-17,-2,36,-4,-7,-3,4,-59
51387509056,15,-10,20,11,7,5,-32,51
51387523987,-10,-1,-9,-12,-4,-2,20,-43
51387523987,11,5,1,1,-1,-1,-54,9
51387524660,-14,-2,-39,13,0,-2,41,11
51387524660,15,-2,-2,-1,2,0,3,2
51387538303,-10,1,18,-39,-12,-8,-20,38
51387538303,-3,13,11,30,2,3,4,-118
51387545858,10,-3,-44,-15,4,0,-1,5
51387545858,31,6,-18,-3,-2,-3,4,42
51387560870,-49,-15,49,20,1,-1,-11,40
51387560870,2,0,-33,-13,-2,4,34,-60
51387568946,19,10,-9,-3,-2,-1,-45,45
51387568946,-8,-12,-56,-11,-7,-3,20,13
51387583380,39,3,47,2,5,-1,-24,-65
51387583380,-61,-4,-55,-20,-4,-1,14,8
51387591418,8,4,-48,-30,-2,0,-12,17
51387591418,5,-1,21,11,-1,-1,9,57
51387598372,-40,5,0,-9,-3,-1,-32,12
51387598372,12,-1,2,4,0,-1,10,-52
51387605853,39,13,18,6,0,-1,8,-12
51387605853,-38,-14,-30,-7,-1,1,-10,-32
51387620821,9,-3,-17,-15,-4,0,36,31
51387620821,15,-3,22,4,-2,-3,-19,24
51387629081,-13,-1,49,11,-3,-3,4,31
51387629081,6,2,-3,-2,2,5,24,41
51387643450,4,2,8,2,0,-2,14,-43
51387643450,14,5,24,13,1,-3,-3,28
51387651459,-64,-26,-47,-20,-5,-4,-29,-14
51387651459,2,1,12,24,5,-1,50,16
51387658440,-4,-5,-25,-21,-1,-3,20,-49
51387658440,-15,1,14,-26,-5,-2,6,-21
51387665773,45,2,50,32,2,2,7,-1
51387665773,-37,-1,2,-18,-4,-6,-42,-9
51387680843,12,-2,-23,4,2,1,8,7
51387680843,6,9,5,4,0,3,35,-32
51387689680,19,16,24,3,-3,-3,5,-11
51387689680,-3,-6,-22,-10,0,0,-20,-61
51387703374,35,3,42,11,-1,-1,-2,70
51387703374,26,-1,2,-8,-2,-3,-4,81
51387711567,-3,-1,-18,1,0,1,19,-25
51387711567,-5,4,60,4,-1,-5,-33,65
51387726546,-4,-2,-53,0,-4,-2,-48,-22
51387726546,6,-3,21,5,0,1,12,71
51387727196,-8,-11,-52,-20,-2,-3,1,-124
51387727196,96,11,-6,15,2,-1,-2,-61
51387740842,-93,-22,24,-1,1,-1,-40,34
51387740842,-24,1,18,-17,-7,2,40,-22
51387749058,57,-1,-51,-24,-4,-3,-26,41
51387749058,-37,-8,-8,-38,-2,3,26,52
51387763398,28,14,-4,26,1,1,7,-63
51387763398,23,2,15,27,4,-2,-75,-29
51387771395,-45,-8,-1,-2,-2,1,40,66
51387771395,-2,0,-5,-13,-2,0,33,21
51387787183,45,32,18,-6,0,-1,26,48
51387787183,-24,-13,-36,-6,1,-1,-32,4
51387787829,44,4,43,54,4,0,-5,-67
51387787829,-31,-8,27,-24,-10,-7,-25,-26
51387800854,6,-1,-44,-11,-4,-1,29,35
51387800854,-5,0,34,16,2,-2,-21,13
51387809044,7,3,-23,-31,-1,-1,2,18
51387809044,-10,11,3,35,2,1,-29,2
51387823355,2,-6,-3,-18,-1,-1,-6,-38
51387823355,4,1,-6,-1,0,-1,6,56
51387831573,-11,-17,11,3,0,-2,-31,-93
51387831573,10,1,0,8,-1,-2,19,2
51387847221,-49,-8,35,-3,-4,-2,-17,66
51387847221,-8,3,-39,11,3,-1,11,-10
51387847828,24,-6,39,-14,-2,-1,-6,28
51387847828,-43,-15,-32,-7,0,-1,-16,-1
51387860833,22,15,16,30,2,1,2,-17
51387860833,-3,-14,-16,-21,-4,1,7,-28
51387869020,2,-4,7,8,-6,-3,1,20
51387869020,20,9,-62,-2,0,-3,11,2
51387883324,-23,7,33,-10,-2,-2,-5,-26
51387883324,19,-17,-7,-12,1,1,-27,12
51387891398,-19,4,4,8,2,2,-22,-20
51387891398,-7,-12,-49,-19,-6,-3,29,31
51387907107,1,6,40,28,1,-1,32,4
51387907107,8,-10,-41,-36,-2,-3,-13,-52
51387907824,-4,11,48,1,1,2,2,-13
51387907824,33,-18,-78,-11,-4,-4,-53,11
51387920889,-29,-13,47,25,6,3,37,-46
51387920889,5,-4,-18,-10,-5,-4,17,39
51387929032,-39,-3,12,11,1,-3,2,22
51387929032,9,5,30,3,3,2,-18,-52
51387943206,25,-5,-4,0,0,3,47,28
51387943206,7,12,-9,5,1,2,18,7
51387951517,4,4,1,8,0,1,-8,2
51387951517,-28,7,23,-17,-7,-3,20,-14
51387974618,-7,-7,-56,-11,-4,-4,-46,-36
51387974618,-20,9,37,14,0,-4,25,67
51387975369,-4,-2,-3,-9,-2,-1,32,-46
51387975369,0,7,28,16,4,3,-4,-38
51387980706,10,-17,16,-1,3,1,-21,67
51387980706,-39,1,-1,15,0,0,-2,-23
51387989654,-1,-1,10,-33,-6,-4,0,25
51387989654,7,5,25,12,-1,-1,1,32
51388003136,3,-5,-5,-5,-4,-4,-4,-45
51388003136,41,5,4,7,-1,-3,-23,15
51388012176,-22,-7,23,11,3,3,43,32
51388012176,22,14,14,11,1,0,8,-18
51388025761,18,-15,9,-12,-3,0,5,28
51388025761,1,-3,15,24,-2,-3,24,-63
51388034683,32,-3,-70,-80,-9,-4,-33,0
51388034683,11,11,22,37,7,2,-1,6
51388040768,-37,10,1,11,0,1,-8,-3
51388040768,68,-1,-7,-28,1,0,-12,64
51388049674,-26,-16,-48,27,3,1,27,-94
51388049674,5,1,18,-1,-2,-1,-17,-19
51388063373,-1,-5,-49,-15,-2,-1,7,-50
51388063373,-19,2,-11,-13,-4,0,-20,8
51388072175,10,6,7,3,-2,-3,-29,62
51388072175,17,-11,38,3,4,-1,-8,1
51388085836,-6,-3,-12,-4,-4,-4,6,-31
51388085836,-9,3,11,-1,-1,-2,-1,10
51388094619,-33,-2,-28,16,3,4,-15,-34
51388094619,-36,2,1,-26,-2,-2,-40,-44
51388100713,14,13,-18,-25,-3,0,33,48
51388100713,-20,-2,-18,28,5,1,-8,-10
51388109671,54,13,6,-13,-5,-2,-6,70
51388109671,-24,4,-6,1,-1,0,13,-79
51388123355,12,-5,-16,20,3,-3,-44,-1
51388123355,-17,-1,7,7,-2,0,20,3
51388132119,-3,-1,17,21,0,0,27,-70
51388132119,5,2,-13,-23,-3,0,6,61
51388145758,18,-1,-14,-16,-3,1,14,-35
51388145758,-22,-6,7,12,2,-2,41,-27
51388154621,0,8,35,4,0,1,-68,57
51388154621,9,-25,-70,-8,-8,-5,8,-19
51388160801,-7,2,-1,-10,-5,-4,-6,44
51388160801,-23,1,22,32,2,1,-13,-15
51388169656,-9,-6,22,-63,0,-2,33,1
51388169656,-21,2,13,40,3,0,-18,3
51388183317,0,-4,-7,-13,-3,2,31,58
51388183317,22,-5,-22,-16,-3,-4,-1,-6
51388192118,12,-6,-1,10,-2,-2,-21,41
51388192118,-84,-3,69,17,0,-1,29,-102
51388205781,-5,-2,15,14,0,-1,-8,3
51388205781,44,7,-37,-12,-4,-3,-44,-26
51388214669,-57,-7,-14,5,-3,-1,14,36
51388214669,23,12,-13,-14,-4,-2,3,-11
51388220879,71,-1,-26,-6,-3,-3,-23,-11
51388220879,-47,4,31,-23,-3,-1,27,-10
51388229620,31,-2,22,14,1,-4,-55,66
51388229620,9,-8,-37,31,5,5,14,29
51388243356,-20,1,-41,-50,-6,-6,8,-66
51388243356,-73,-13,-16,-9,-8,-3,31,2
51388252164,6,5,5,13,5,4,12,1
51388252164,-1,15,45,-7,-4,-3,5,13
51388265842,-3,2,12,24,3,-1,-19,25
51388265842,60,-2,-37,-11,3,5,12,-41
51388274671,-46,-10,-13,-4,-5,-3,18,3
51388274671,34,-9,1,5,1,-3,20,-77
51388280708,-6,21,35,8,3,-1,-39,-26
51388280708,47,2,27,4,-2,-3,-17,31
51388289627,-32,-2,2,8,1,2,29,41
51388289627,82,0,-1,-26,-1,4,-26,25
51388303336,-2,-2,-9,-1,-3,1,27,60
51388303336,-29,0,-1,-6,2,0,14,42
51388312159,36,-1,-52,-1,1,1,17,-65
51388312159,-42,-25,-9,-12,1,-1,-18,63
51388325830,20,-10,4,29,-2,-5,-1,-16
51388325830,-60,7,28,24,6,0,-33,26
51388334680,-74,-5,-33,-23,-8,-6,-11,42
51388334680,-8,3,6,-12,-5,-2,6,-59
51388340761,-15,1,-33,-13,-1,-1,3,11
51388340761,42,0,31,12,1,-1,28,-72
51388349668,-33,-5,6,18,1,-1,-11,-9
51388349668,11,5,24,2,-1,-1,-1,-9
51388363391,-38,-3,9,3,0,3,-5,4
51388363391,8,0,-10,-42,-9,-4,-4,9
51388372150,32,-10,70,50,4,-1,14,-30
51388372150,19,-5,-80,-3,-4,-7,13,-28
51388386533,-53,-2,-28,-12,3,4,5,18
51388386533,16,7,66,15,1,-3,-21,-7
51388393348,34,-8,-34,-1,-7,-3,8,-5
51388393348,-1,0,-40,-17,-7,-5,21,103
51388400671,-10,9,25,39,3,-2,3,-34
51388400671,-58,-10,-3,-55,-5,1,-26,18
51388409653,6,6,-12,-2,3,4,0,-28
51388409653,37,3,23,31,4,0,-22,94
51388423289,-17,-5,6,-34,-6,-4,18,-53
51388423289,61,12,18,17,-1,-1,18,-19
51388432133,-18,4,-49,-16,0,1,14,28
51388432133,-13,-20,32,2,0,1,46,-42
51388446566,25,-1,47,9,-2,0,-9,-36
51388446566,2,-6,2,20,1,-4,-10,-10
51388453382,8,2,-32,-2,-1,-4,-25,-34
51388453382,-3,14,14,-34,-6,-3,-14,5
51388460846,14,-4,22,20,0,-2,3,-47
51388460846,-2,-11,-44,15,5,2,7,-5
51388469652,-36,-3,24,-15,-8,-5,-8,-25
51388469652,16,9,20,4,2,1,-32,45
51388483294,11,-6,-28,-19,-4,-2,1,41
51388483294,-34,1,-19,-15,-3,-1,-12,-38
51388492104,-2,1,27,19,4,1,-12,-61
51388492104,-23,-1,6,2,1,3,6,-5
51388506478,44,2,-19,11,0,-1,-25,52
51388506478,-24,-6,57,-5,-3,-1,39,-82
51388513215,105,9,-78,-28,-7,-2,1,43
51388513215,-118,-11,17,11,0,-6,-27,-25
51388520815,44,-6,-61,5,3,-2,-17,42
51388520815,6,-1,-10,-15,0,4,-5,-17
51388529623,21,-19,-48,-2,-10,-11,-6,5
51388529623,4,-17,10,-1,4,2,5,2
51388543264,-7,5,75,2,-3,-1,22,7
51388543264,-19,-2,-14,-19,-2,-2,-50,56
51388552123,25,10,63,9,1,1,8,4
51388552123,-66,1,-12,6,-2,0,-8,-12
51388566481,20,2,-26,-5,-2,-3,8,33
51388566481,14,-8,9,3,-2,4,43,10
51388573193,-54,-5,-32,-18,1,0,4,3
51388573193,21,5,19,6,0,-4,-32,0
51388580886,1,-6,11,24,1,-2,2,13
51388580886,-39,-7,-31,-39,-3,-3,-21,46
51388589629,9,6,44,17,3,2,25,-6
51388589629,35,-1,-68,-13,1,2,2,-23
51388603191,-46,-12,6,-18,-10,-3,24,-88
51388603191,57,-3,42,22,6,1,-10,31
51388612122,-22,-10,-2,-2,-3,-3,18,62
51388612122,-6,-8,16,4,3,1,1,13
51388626462,-36,6,9,-3,0,-2,-10,-22
51388626462,6,-9,28,9,-3,-4,-15,15
51388633303,1,6,30,3,6,4,-13,27
51388633303,21,12,3,1,-3,-1,20,-17
51388640810,29,-14,-12,-21,-1,-2,-3,5
51388640810,-45,9,0,25,2,-2,-1,-11
51388649629,-43,-4,26,16,1,-1,-53,-37
51388649629,68,-1,-33,-11,-4,-3,9,76
51388663386,17,8,71,8,1,1,-18,-8
51388663386,-86,-14,-82,-20,-4,-1,8,7
51388672097,56,7,-35,-5,-2,-2,8,-15
51388672097,-25,2,39,20,1,-2,-4,44
51388686461,-15,5,-9,-20,-1,2,-10,-70
51388686461,56,0,-46,1,-5,-4,8,41
51388693308,-24,9,15,-3,0,0,3,5
51388693308,3,6,-15,-20,-5,-4,9,-10
51388709637,-34,-4,-35,10,2,-1,-41,-25
51388709637,15,6,-6,-8,-6,-1,-7,-6
51388711121,11,3,32,12,3,4,17,2
51388711121,-38,-3,-2,-9,0,0,1,-13
51388723257,20,2,-29,-14,-4,-1,-23,67
51388723257,21,5,17,39,0,0,7,-29
51388732146,-1,4,-4,-61,-4,-2,32,24
51388732146,-34,-8,31,21,4,2,3,-23
51388746528,-15,-8,-29,-24,-2,-3,-12,45
51388746528,-63,-8,22,8,0,-1,-14,-24
51388753283,-27,-19,-4,3,3,6,41,-54
51388753283,19,0,-47,20,-2,-3,-24,-7
51388769534,24,3,34,3,-3,-1,37,20
51388769534,35,1,10,-14,-1,-4,-9,-38
51388771102,-8,-2,22,11,1,-5,-38,-14
51388771102,0,4,25,-6,0,2,-9,-5
51388783352,66,-2,-27,-5,-1,1,-7,-24
51388783352,-58,10,29,55,6,1,-5,49
51388792111,15,-5,-28,-18,0,3,-9,-2
51388792111,-4,4,-14,-2,-8,-6,9,3
51388806541,5,-3,9,34,-2,-1,15,6
51388806541,22,-2,-30,-35,-4,-4,-28,35
51388813360,42,5,13,26,1,-1,-7,14
51388813360,-83,3,23,2,0,2,2,-10
51388829615,-47,-14,-62,-43,-6,-2,-4,12
51388829615,-44,-22,-66,-18,-1,-1,9,-23
51388831130,-38,-9,23,20,-4,-4,-3,27
51388831130,50,-4,16,0,1,-1,-1,2
51388843194,-17,3,17,-8,-5,-2,-35,1
51388843194,13,10,22,-10,-2,5,85,-30
51388852122,40,3,27,-18,-3,-2,-16,-11
51388852122,-46,-6,-71,7,-4,-6,-26,-10
51388866261,5,2,12,29,7,2,25,-40
51388866261,36,-1,2,-21,-3,-2,-11,-65
51388874616,9,21,16,4,-1,-2,19,89
51388874616,27,0,8,-3,2,2,28,-51
51388889678,-13,-14,15,20,6,1,-6,21
51388889678,11,9,-8,-22,-4,-2,-32,4
51388891134,15,-19,21,-11,-2,4,31,-2
51388891134,-47,-6,5,-15,-2,-2,-7,2
51388903368,84,13,-10,-33,-5,-2,-5,16
51388903368,-18,-11,4,27,4,-1,18,63
51388912122,36,2,-7,2,-1,-1,0,-100
51388912122,15,7,23,-5,-1,0,-4,22
51388926572,20,-1,37,20,4,4,3,41
51388926572,3,-1,-25,5,-7,-7,-4,-56
51388933391,-12,0,-9,-3,-3,-4,-22,42
51388933391,34,-1,5,-21,-1,0,32,-58
51388949482,-54,-2,-45,11,-3,-2,-22,-55
51388949482,3,2,-8,-1,-4,-7,-19,36
51388951087,-28,-5,-19,13,3,-2,-7,-16
51388951087,45,-2,3,-8,-3,-1,-5,-7
51388963127,-24,-1,-32,-18,-1,-3,-1,21
51388963127,49,-4,43,10,1,1,-3,25
51388972144,-31,0,-38,-7,-5,-4,-41,-10
51388972144,-15,2,3,-4,2,4,23,-56
51388986499,30,-12,27,9,3,-1,-5,1
51388986499,-8,-7,2,15,-1,1,14,26
51388993288,28,18,16,17,-1,-1,-35,37
51388993288,3,-19,-28,-85,-9,-7,-6,6
51389009664,-14,13,27,15,3,0,-7,13
51389009664,24,8,23,0,1,0,26,21
51389011142,-14,-8,-26,13,4,2,26,-47
51389011142,36,6,32,26,3,3,-14,57
51389023179,-11,-15,-71,-29,-5,-2,16,26
51389023179,-1,4,42,-6,-4,-1,17,-67
51389032154,-18,-1,-6,9,-5,-4,-35,21
51389032154,-8,-16,1,18,4,0,23,14
51389046292,33,0,23,-1,1,-1,10,3
51389046292,-17,2,-6,-2,2,0,-18,-44
51389053234,5,-8,-39,-18,-3,-2,-12,51
51389053234,-10,3,-3,28,4,2,-22,18
51389069497,30,5,9,5,-8,-3,-9,-37
51389069497,-16,-7,-14,-12,7,0,-38,53
51389071072,4,-9,40,-2,3,5,67,-50
51389071072,-1,8,-11,12,-3,-3,3,30
51389083164,-57,9,8,-1,0,4,15,24
51389083164,43,-10,10,-4,-2,-3,20,41
51389092147,-2,-7,-16,-13,-3,-3,23,32
51389092147,33,15,69,31,0,-2,-37,-13
51389106366,5,-4,-88,-17,-4,-4,27,-38
51389106366,-9,-6,23,4,-3,-1,-13,-74
51389113271,4,5,29,8,2,-2,16,59
51389113271,-9,-22,11,-3,-7,-4,-28,11
51389129636,-23,4,2,-2,-3,-2,-4,-33
51389129636,0,-4,-43,7,-2,1,15,43
51389131104,-10,0,-20,-11,-4,-3,-2,-65
51389131104,-25,-3,14,8,-1,1,-28,78
51389143266,-83,2,55,3,-2,-3,26,-84
51389143266,2,-3,-38,-4,0,-1,-25,23
51389152101,4,0,30,40,4,3,-48,45
51389152101,-5,2,-33,-38,-2,-1,24,-45
51389166460,22,-20,28,24,4,0,-23,43
51389166460,-8,25,61,-16,-2,3,-21,-19
51389173177,-67,-7,-42,-19,-8,-5,-7,-10
51389173177,-15,-3,-9,3,4,3,10,-2
51389189655,23,7,6,-21,-3,-1,-14,31
51389189655,2,1,-22,8,-1,-3,20,-16
51389191129,13,8,47,2,0,-2,-19,-37
51389191129,21,3,-42,-11,1,-2,-9,30
51389203164,-39,-4,9,12,4,5,-5,40
51389203164,-5,-7,-42,19,-1,-1,50,54
51389212140,-71,-14,1,-24,-3,2,23,16
51389212140,25,4,-18,-4,1,2,28,-2
51389226516,31,10,39,5,-2,-4,3,76
51389226516,-10,0,34,14,2,3,-38,-35
51389233185,30,0,-61,-21,-2,0,-35,26
51389233185,15,26,-4,6,0,-1,63,-61
51389249674,-7,-12,12,-7,-3,-5,-45,5
51389249674,9,1,-5,15,4,2,9,18
51389251139,4,-7,75,-12,-6,-2,29,-79
51389251139,-5,-4,-34,17,-1,-2,-34,86
51389263282,1,-1,-44,-68,-1,-2,-10,-36
51389263282,6,-1,22,3,1,0,-3,-65
51389272746,10,3,-11,16,3,-1,-8,0
51389272746,17,4,42,13,-5,-4,9,13
51389286496,-8,-4,-13,14,-2,4,43,-12
51389286496,-3,-6,-29,-16,-7,-8,-21,35
51389293244,4,9,8,2,1,-1,11,-22
51389293244,-94,-22,5,0,1,4,3,-72
51389309636,63,6,15,18,7,4,-17,0
51389309636,-28,-8,-36,-16,0,1,6,-13
51389311068,21,3,-23,3,-1,-3,-9,61
51389311068,25,-6,47,1,-2,-2,-12,-8
51389323316,-22,-6,4,0,-5,-5,-33,-42
51389323316,-51,10,18,-10,-3,1,12,33
51389332068,23,-18,9,3,-1,2,1,3
51389332068,3,-11,-59,-8,-1,-1,3,-72
51389346447,-10,-11,7,9,1,-4,10,6
51389346447,10,2,20,-10,-3,0,-15,43
51389360722,-20,-6,12,-1,2,1,13,-34
51389360722,17,4,26,-24,-7,-2,-13,20
51389369697,-54,0,50,31,-2,0,11,-1
51389369697,31,1,-58,-18,-2,0,-4,15
51389371105,-56,-2,19,13,4,2,52,-34
51389371105,20,-3,-7,-8,1,-3,-51,9
51389383209,-48,-4,0,14,-5,-5,16,44
51389383209,70,6,12,-1,0,-2,-30,-58
51389392097,11,3,-1,-11,-3,-1,-14,66
51389392097,29,0,-23,-3,-1,0,14,-48
51389406510,-33,5,-2,22,3,3,3,-7
51389406510,0,-3,24,-17,-2,-3,2,-5
51389413146,20,-2,-21,0,-4,-3,-15,29
51389413146,-10,-3,-6,3,-2,-2,36,17
51389428807,60,15,4,2,0,2,6,22
51389428807,-27,-7,4,-39,-5,-1,-6,5
51389435638,36,6,-77,-20,-4,-4,-4,29
51389435638,-70,1,21,-5,-2,-1,-50,-20
51389443198,25,-8,-20,5,1,2,47,-9
51389443198,14,8,18,50,7,0,-34,37
51389452089,-26,-1,-5,-15,-4,1,34,-33
51389452089,5,-8,-25,8,-1,-3,-30,-2
51389466482,12,9,-3,-54,-6,-2,1,-6
51389466482,-17,-1,26,23,1,2,-31,41
51389473094,64,9,-1,18,3,2,-2,-45
51389473094,-43,-3,5,-2,-2,-1,26,-66
51389488932,3,-13,-45,-13,-3,-4,2,13
51389488932,18,-3,27,-1,4,3,22,21
51389495870,-5,2,23,3,1,0,-3,-3
51389495870,20,2,22,16,-4,-4,-29,53
51389503316,5,-7,-3,-2,2,0,-4,25
51389503316,-4,5,-28,-14,-5,-2,30,-6
51389512083,-49,1,52,26,0,-2,-32,10
51389512083,7,-6,-45,-49,-3,-2,36,10
51389526422,-7,5,43,34,0,-4,1,11
51389526422,21,3,-31,5,0,1,17,-24
51389533272,-46,5,-4,-3,-1,-2,5,-82
51389533272,11,2,47,7,-5,1,-13,36
51389548946,15,7,15,0,3,2,-14,-20
51389548946,-51,-12,-29,10,-2,-1,0,-13
51389555814,40,13,-19,-18,-2,-2,-22,54
51389555814,-15,3,32,12,2,1,18,34
51389563363,0,1,-5,-8,0,-1,-6,-31
51389563363,-11,-5,-66,-15,-2,-4,1,-30
51389572058,-29,-14,30,29,-1,-4,-18,37
51389572058,49,1,-29,-14,0,-1,-5,-1
51389586356,1,5,4,4,2,1,-22,-10
51389586356,18,-2,38,-14,-4,-1,23,28
51389593296,37,-3,-18,-25,-2,-1,1,-8
51389593296,-51,-9,15,42,5,-3,1,-1
51389608851,0,-1,15,-10,0,2,-21,-69
51389608851,53,7,-3,-4,-7,-1,-20,8
51389615842,-16,-3,15,10,-2,-3,11,-1
51389615842,1,-4,-19,2,1,-1,18,-78
51389633425,-5,-3,-14,-1,-2,1,1,67
51389633425,5,1,19,7,-1,-3,-7,73
51389634876,35,-3,-1,4,0,0,-6,-13
51389634876,-43,-6,-5,-1,2,1,-4,4
51389646437,-2,1,26,18,-2,0,57,18
51389646437,-17,-8,-19,-2,-4,-4,11,-33
51389653224,25,-9,-4,-16,-1,1,-4,1
51389653224,31,14,-3,-12,-2,-1,-21,18
51389668909,-21,4,21,25,0,-2,-22,-2
51389668909,-3,-10,24,-5,-2,-2,1,32
51389675741,32,-3,-89,-5,0,1,-18,7
51389675741,66,6,13,-16,-2,0,15,-15
51389692140,-81,-8,-4,-8,-4,-2,-5,-8
51389692140,-18,2,5,4,1,-4,-10,-38
51389693614,-33,-2,18,3,-1,-2,-22,57
51389693614,51,1,0,-6,-1,0,23,40
51389706303,-44,-2,-57,-18,-2,0,-12,-34
51389706303,0,0,34,11,1,0,16,-25
51389713279,-18,-10,-9,-37,-7,-2,10,-2
51389713279,21,23,34,9,3,2,-9,26
51389728853,34,-4,-11,-13,-5,-5,23,-28
51389728853,7,-4,32,23,-4,-5,0,18
51389735794,-24,-10,6,-4,3,0,-62,55
51389735794,5,-18,-8,-8,-2,0,70,-70
51389752174,54,13,20,21,-1,-1,-46,0
51389752174,-23,-10,-2,-7,-1,0,-1,37
51389753624,23,4,-57,15,-2,2,29,-38
51389753624,-68,-11,-49,28,2,-6,-34,2
51389766476,37,4,28,-22,2,1,5,9
51389766476,-15,3,-46,-13,-2,-1,-8,-14
51389773228,28,2,76,9,1,1,-21,0
51389773228,-16,0,-7,-2,-1,3,15,26
51389788984,-15,-11,-21,0,-4,-3,-24,38
51389788984,14,8,18,12,5,3,-8,-94
51389795830,-5,6,15,-11,-3,-2,61,28
51389795830,-12,-5,0,4,-4,-3,-25,0
51389812132,17,1,8,-2,-4,-3,22,-60
51389812132,13,-5,-7,-6,-1,-3,-28,3
51389813668,-53,-5,1,6,4,1,4,-48
51389813668,20,-22,-3,-11,-4,-5,-4,-5
51389826407,15,3,-24,0,2,2,-16,87
51389826407,6,13,-36,-2,-2,0,10,-70
51389833246,-14,-14,3,-6,-1,-3,30,-63
51389833246,-30,-2,43,8,0,1,-27,29
51389848765,33,-6,5,10,1,-1,2,15
51389848765,4,-6,-17,9,2,1,0,17
51389855832,22,1,5,-26,-3,1,-17,78
51389855832,4,11,-10,-14,-3,-4,-41,17
51389872123,-6,-3,-6,-15,-3,-1,42,40
51389872123,-6,-2,23,15,3,3,-13,6
51389873526,-3,8,48,13,-1,-4,22,-91
51389873526,-13,-1,3,-7,-1,0,5,17
51389886330,8,-3,7,-4,0,-1,-17,-20
51389886330,16,-4,-14,-1,0,1,25,71
51389893300,-18,4,19,17,-4,-2,-30,10
51389893300,17,-5,-63,-43,-6,-3,7,-32
51389917196,8,0,0,19,3,1,17,-14
51389917196,-47,-8,-42,-21,-6,-5,13,2
51389918540,-31,-1,29,30,3,2,1,-10
51389918540,14,6,-6,17,-3,0,-28,39
51389931991,-6,-27,8,-29,-1,3,38,-19
51389931991,14,-9,9,-10,-7,-11,-73,47
51389933533,32,9,-18,-1,1,4,51,18
51389933533,-35,-12,-23,5,-3,-3,0,11
51389946238,-12,1,23,3,5,1,-32,20
51389946238,15,7,18,-2,-1,2,14,-23
51389953102,26,6,-39,-5,3,0,14,26
51389953102,-34,-1,48,5,-1,1,13,-20
51389968829,4,8,-20,-9,-7,-7,-33,-34
51389968829,17,1,5,2,-1,-1,60,-78
51389983247,-70,-12,12,6,-2,-4,-16,15
51389983247,7,10,-35,-4,2,3,14,9
51389992175,-7,8,-20,-6,-2,2,-22,-26
51389992175,-24,-7,70,6,4,4,2,22
51389993778,30,-9,-89,-18,-4,-4,-21,-63
51389993778,44,8,12,4,1,-3,1,66
51390006247,-38,-7,18,33,3,-2,16,-53
51390006247,15,0,-45,-31,1,3,-3,14
51390013045,20,-5,61,-10,-7,-4,4,-6
51390013045,29,9,21,5,2,2,-3,22
51390028808,-72,0,-29,-16,-1,-2,-36,-43
51390028808,37,6,-5,9,1,0,65,-99
51390035754,-3,-23,-22,3,-1,0,13,54
51390035754,-37,10,15,24,0,-4,-17,-49
51390051893,96,11,22,-25,-4,-4,4,36
51390051893,-1,10,-10,15,1,0,-19,-6
51390053515,-29,-10,-16,-38,-3,-1,-54,8
51390053515,4,8,9,3,-2,1,26,76
51390066263,7,1,25,14,0,0,24,-33
51390066263,-32,-8,-35,-9,-1,0,-21,28
51390073250,39,16,-2,10,-2,-2,-7,13
51390073250,5,-6,28,-1,2,0,-11,-9
51390088974,-17,1,-5,-9,-1,-1,19,21
51390088974,-2,-1,37,-8,-2,-2,-53,40
51390095652,-13,-1,-57,13,4,1,28,0
51390095652,26,11,-40,-22,-1,-1,6,-47
51390119395,-30,-32,-7,10,-7,-2,9,42
51390119395,3,0,-13,4,-1,-5,-1,-102
51390121099,5,1,15,-21,-1,2,11,20
51390121099,34,7,4,35,-2,-6,-12,-13
51390125724,-36,-24,-31,-18,-3,-1,10,-35
51390125724,-43,-20,46,-5,-4,-3,-14,66
51390134588,-60,13,30,38,3,-1,-22,-59
51390134588,16,-4,-32,-49,-2,2,27,-26
51390148620,4,12,35,6,-1,-2,-23,24
51390148620,-2,0,-22,11,-2,2,32,15
51390157028,21,0,37,10,-1,-1,10,-6
51390157028,-2,-5,5,2,1,-1,-20,6
51390172060,4,4,18,6,-2,-7,-5,9
51390172060,-1,9,25,-15,1,2,-4,74
51390173699,37,-6,-58,-19,-7,-4,-15,77
51390173699,-12,-10,-12,20,2,1,0,-50
51390194597,17,5,-19,-3,1,-1,-68,24
51390194597,41,15,18,4,-3,0,58,-49
51390196075,-24,-10,11,9,1,2,5,-30
51390196075,18,2,-14,-39,-8,-2,27,23
51390209075,-14,-17,-9,-35,-5,-1,9,27
51390209075,-6,8,1,25,3,2,-25,36
51390215555,0,13,-16,-18,-4,-3,-18,-10
51390215555,-3,-15,-55,0,-1,0,6,-49
51390232059,-44,13,22,17,-2,-1,2,47
51390232059,-3,-12,-78,-47,-9,-7,-2,-33
51390233556,11,16,20,13,1,-3,17,11
51390233556,-14,15,68,4,2,4,-35,13
51390245625,16,4,-2,11,1,-1,-7,-56
51390245625,-21,-7,19,15,0,-3,39,-26
51390262056,-21,0,-39,-2,1,-3,-26,-29
51390262056,25,3,19,7,2,-1,22,9
51390268701,39,1,-26,1,3,6,25,23
51390268701,-5,0,-2,-4,-2,-3,-50,82
51390275585,25,-4,3,-8,-5,-2,48,-112
51390275585,-36,-11,24,-6,-2,-1,32,9
51390291949,81,-3,-41,3,4,1,4,11
51390291949,-34,1,43,16,3,6,-26,-7
51390293592,-32,-9,-14,-3,-4,-3,-6,70
51390293592,5,-10,-4,-27,-6,-6,-26,13
51390305559,-38,13,-19,13,2,-2,8,9
51390305559,-5,-9,29,-6,0,2,-5,7
51390314591,-15,-6,-17,-3,-1,2,-2,29
51390314591,7,7,12,8,0,-2,-23,46
51390328753,-29,2,9,1,1,2,16,-27
51390328753,24,0,-15,-14,-2,3,-15,-1
51390335748,14,13,15,1,0,-2,21,6
51390335748,-29,-10,-16,27,3,0,0,-1
51390352122,23,3,48,26,3,1,-17,21
51390352122,18,-2,-54,-44,-10,-3,15,-62
51390353533,17,2,23,-5,0,-1,-27,-14
51390353533,-14,1,52,18,-2,-5,-28,-32
51390366222,10,25,-11,-5,-1,0,31,-6
51390366222,-25,3,-1,32,1,-3,-4,-9
51390374628,23,-11,31,-15,3,1,-23,-6
51390374628,-6,0,-1,3,2,1,-2,34
51390388725,-24,-11,0,-5,-3,-5,-17,-20
51390388725,23,4,-21,-1,5,0,37,56
51390395629,9,3,0,-8,-2,-1,20,5
51390395629,13,4,20,6,-2,-2,-43,20
51390411229,-23,-7,14,-9,0,1,15,-31
51390411229,15,-10,-16,-13,-4,-4,-10,-34
51390418061,-13,-4,23,38,2,0,15,-19
51390418061,8,-1,-48,-13,-2,2,-6,21
51390425621,-5,-1,-23,-26,-7,-3,-1,-15
51390425621,32,4,-5,-15,2,-4,-28,9
51390434747,-30,2,15,10,0,1,8,7
51390434747,59,8,-24,24,6,0,14,1
51390448821,-48,-24,-4,6,-2,-1,-7,33
51390448821,2,8,24,2,-5,-2,-15,29
51390455533,13,-22,-29,-7,-3,-2,-3,-33
51390455533,11,-6,19,-1,0,-1,38,-30
51390471698,13,6,-2,-3,3,2,-22,29
51390471698,-5,-17,-55,-29,-6,-6,-32,-4
51390478303,-68,-6,10,22,8,1,-36,16
51390478303,6,3,14,-19,-10,0,29,-90
51390485586,-26,2,0,-35,-1,-2,16,-42
51390485586,8,-11,6,14,3,1,13,-2
51390494545,40,14,5,3,-7,-5,-48,24
51390494545,-72,-7,-18,-17,-4,-2,37,-71
51390508739,23,13,-28,-2,-2,1,-3,19
51390508739,-20,-5,52,21,2,4,19,3
51390515546,22,3,24,18,1,-3,-9,-32
51390515546,-1,-3,-6,-14,1,0,-4,47
51390531289,-12,6,9,6,0,-3,4,-66
51390531289,-55,0,4,14,3,1,10,-55
51390538083,33,-1,-45,-10,-3,-2,-9,20
51390538083,-4,0,28,30,3,-2,-28,0
51390554390,-20,-29,-10,-12,-3,0,-1,7
51390554390,15,2,6,3,6,4,5,10
51390556030,4,2,-11,13,-1,1,76,18
51390556030,-4,-1,-7,-21,-2,-1,-37,26
51390568799,34,1,29,26,5,5,15,-49
51390568799,-11,15,3,3,-6,-2,-4,35
51390575635,-9,-5,-7,-32,-5,-1,25,-1
51390575635,-49,-2,11,23,2,0,0,52
51390591356,-19,2,-39,7,-2,-6,-7,31
51390591356,43,6,-8,-10,-2,-3,15,-33
51390598209,22,3,33,2,6,3,-14,-1
51390598209,-3,-9,-21,-31,-9,-2,13,33
51390614510,-30,14,-4,-5,-3,-4,-11,13
51390614510,-17,-3,33,10,-3,-2,-7,-26
51390616023,50,15,-14,-5,0,-3,-21,10
51390616023,1,3,0,6,4,3,44,-23
51390628902,23,-8,23,23,4,3,3,19
51390628902,-9,3,20,-27,-1,2,-50,34
51390643209,14,2,16,3,-1,0,16,3
51390643209,-7,-19,-61,-54,-10,-3,-13,-8
51390651383,9,4,7,8,-3,-4,-1,58
51390651383,4,5,20,17,2,-1,-15,3
51390658118,-6,-10,1,18,1,4,-5,5
51390658118,-4,1,0,12,3,-4,-26,80
51390674562,34,25,-26,-29,-7,0,37,-2
51390674562,-12,-12,-30,4,-2,-2,-10,22
51390676074,-10,0,-8,-6,1,0,36,-2
51390676074,-3,-6,23,17,1,-2,-22,3
51390688847,11,-1,11,-15,-3,-1,-24,15
51390688847,-7,1,-12,3,1,-2,-11,-47
51390695593,-51,-7,11,-14,-4,-2,16,-16
51390695593,21,5,22,18,2,0,-5,-25
51390711406,19,-14,2,-20,-5,-2,-14,8
51390711406,45,17,52,14,-3,-1,31,-16
51390718030,-16,-24,-31,-15,-4,-2,-40,10
51390718030,4,-9,-17,-30,0,1,1,-33
51390734365,15,1,9,22,0,-3,5,50
51390734365,15,-11,12,8,0,-1,31,-14
51390735953,-7,5,4,5,1,1,9,-56
51390735953,36,7,19,3,-5,-2,1,-2
51390748697,34,-1,-17,24,1,-4,-41,89
51390748697,-64,-19,-11,-33,-3,-1,7,-32
51390755576,-42,6,6,-10,-4,-1,-2,35
51390755576,-4,-1,-9,15,3,-1,2,-30
51390771269,-3,-3,7,11,1,-1,-29,-29
51390771269,-15,-6,-27,12,-4,-5,5,44
51390778049,20,-1,-35,-34,-7,-6,-20,-43
51390778049,-49,-19,34,-3,3,8,-2,-18
51390794532,-14,-6,7,20,-2,-5,12,-24
51390794532,-32,5,-21,-5,0,2,1,25
51390796105,79,7,-38,-16,-10,-5,-7,8
51390796105,11,10,15,7,3,1,15,1
51390809588,-47,-5,-47,-16,0,0,-4,-80
51390809588,-12,-11,30,17,0,0,-6,-11
51390815641,6,9,10,-2,1,1,6,-49
51390815641,-2,6,43,40,2,-3,14,16
51390830633,8,3,-29,-15,1,2,-5,52
51390830633,44,13,-21,-5,2,0,14,-2
51390838060,-27,-9,-7,4,1,-2,-16,14
51390838060,18,6,-23,-10,-6,-7,-3,6
51390853757,-4,-21,24,32,5,4,19,10
51390853757,9,2,7,-38,0,-1,20,-8
51390854639,9,10,-14,8,3,-1,-14,-11
51390854639,-13,-3,-31,14,-2,-2,15,2
51390869650,-28,-6,3,-18,-5,0,11,6
51390869650,23,-6,-16,-9,-2,-1,-29,28
51390875628,21,4,84,20,1,-1,-34,-4
51390875628,-47,-25,-76,-19,-3,-2,-7,-60
51390890610,0,23,26,4,-2,0,37,-79
51390890610,-5,-10,-22,6,2,0,-15,52
51390898211,-14,-5,26,-7,-1,2,22,43
51390898211,-11,1,-21,-18,-3,-3,-12,35
51390913656,37,0,7,-14,-1,0,-28,-15
51390913656,-32,-2,-10,-6,-6,-3,30,-6
51390920786,12,1,-7,-10,3,1,5,-6
51390920786,19,7,5,10,2,3,-16,83
51390929521,-26,-12,-21,-23,-12,-11,26,-84
51390929521,5,-9,-24,32,2,-5,-33,-21
51390935726,21,-3,-57,-10,1,0,0,-19
51390935726,-27,-5,2,6,0,0,16,-13
51390950736,0,5,7,-23,-2,-2,-19,12
51390950736,34,4,-44,-5,2,-3,-18,-26
51390958059,-94,-8,43,1,-3,-3,22,1
51390958059,23,0,-17,-13,-3,-2,-21,-22
51390973912,16,-11,9,6,-4,-1,4,-1
51390973912,-90,2,34,35,-2,0,8,51
51390974491,-5,8,-27,-17,6,1,-29,48
51390974491,-1,7,68,6,4,2,-1,-86
51390989593,30,-10,-56,-22,-6,-1,-6,123
51390989593,38,1,36,12,-1,3,17,7
51390995693,12,-1,-24,-10,-1,-3,-11,46
51390995693,-41,-3,45,24,0,-1,24,15
51391010572,20,1,-7,-6,1,2,15,-23
51391010572,-8,-6,-9,-35,-2,0,-6,-21
51391018046,0,-4,-10,1,-6,1,-7,-15
51391018046,23,5,7,-10,-5,-1,14,16
51391033879,41,-3,20,40,12,0,-10,-10
51391033879,-16,2,26,0,-2,-2,16,25
51391034638,-21,-5,16,2,-2,-1,9,27
51391034638,65,18,-24,-15,-1,2,-18,-42
51391049644,-58,1,9,-26,-8,-6,-13,-11
51391049644,10,4,-20,6,-1,-1,-14,-40
51391055737,-31,1,33,11,4,2,29,-56
51391055737,27,-1,0,-8,-2,-1,7,31
51391070760,-54,10,-14,-2,1,0,6,-25
51391070760,22,-4,-47,4,1,-1,-26,36
51391078123,15,-4,1,-4,-6,-1,11,79
51391078123,5,-1,-2,-7,-7,-5,12,-58
51391093795,-8,-8,25,13,6,3,-6,-25
51391093795,12,8,51,-11,-7,-3,-16,83
51391094578,18,-2,-13,17,2,0,9,-33
51391094578,-24,-7,-23,-5,2,-4,-33,11
51391109616,75,13,-1,-3,-1,-1,-6,84
51391109616,-21,-7,57,1,-1,-2,5,-74
51391115774,13,6,-21,5,2,1,-10,-2
51391115774,-14,-3,11,6,-1,-2,8,49
51391130543,15,-1,31,3,-2,1,31,-31
51391130543,35,-1,-28,10,0,0,-6,-11
51391138084,-72,-8,6,-7,-3,0,2,8
51391138084,3,-13,-30,-17,-8,-8,-8,8
51391153853,9,4,26,7,-2,0,-32,73
51391153853,-40,-21,13,-2,-1,-1,27,-2
51391154515,28,12,6,46,4,0,24,53
51391154515,-21,0,28,-15,-2,0,-3,17
51391169535,-68,-22,-57,-25,-4,-3,-1,11
51391169535,10,13,-10,-6,-1,1,28,-12
51391175761,20,1,13,-16,-3,-4,-31,0
51391175761,-9,1,41,18,0,-3,-8,3
51391190666,-31,-3,-1,-7,1,3,-32,-48
51391190666,-10,-4,-2,-1,0,1,18,114
51391198094,34,-6,10,-3,-2,0,29,-115
51391198094,14,12,-6,-1,-1,3,20,4
51391213763,8,-6,1,23,4,-3,-31,-43
51391213763,3,4,-23,3,4,2,-33,0
51391214650,37,2,28,-12,-2,-1,-26,57
51391214650,-49,-2,27,18,-1,2,50,18
51391229570,21,-1,24,-16,-9,-5,4,17
51391229570,-12,-1,2,-3,0,-4,29,-102
51391235722,6,-6,-47,19,0,-2,-19,-14
51391235722,31,6,-3,-13,4,3,-38,6
51391250714,-64,-4,-4,-15,-1,0,41,-2
51391250714,38,5,-11,-8,-6,-5,1,53
51391258195,-2,-11,24,-10,-4,-1,7,-7
51391258195,8,-6,-42,7,1,-1,-18,-23
51391273890,-1,4,36,21,2,3,48,-42
51391273890,9,-4,-8,-20,-7,-3,-21,12
51391274488,7,5,-8,-17,-2,-1,-2,24
51391274488,22,-1,-11,11,1,2,20,-14
51391289522,-17,1,28,-18,1,1,-8,120
51391289522,3,5,-46,20,5,2,-21,-58
51391303716,-56,-15,-3,11,0,-2,-21,11
51391303716,40,7,26,-10,0,-1,-40,63
51391310684,19,-13,-45,-5,-5,-2,-1,-61
51391310684,-18,-16,18,-13,-2,1,16,0
51391318127,9,7,2,2,0,-1,5,19
51391318127,-85,-6,16,-5,-1,-1,-28,-20
51391333180,70,0,5,10,2,3,6,10
51391333180,-86,-11,-18,0,4,2,-12,-49
51391340663,15,-2,-3,4,-6,-5,-20,-15
51391340663,-42,-7,-4,-20,-5,-5,-7,11
51391349615,6,2,-15,-2,1,-2,22,-82
51391349615,52,18,19,0,0,1,1,64
51391355700,-24,4,-7,-4,1,1,-12,1
51391355700,18,-28,-25,-1,1,2,26,-13
51391370669,9,0,-13,14,-1,-3,-35,4
51391370669,-25,-6,-1,3,-3,-2,-4,16
51391378094,63,5,-6,-12,-2,-1,10,-20
51391378094,15,-9,6,16,6,-4,-22,22
51391393224,-34,3,-5,-36,-9,-2,47,-49
51391393224,34,-2,8,11,3,0,-18,-8
51391400570,4,3,7,-17,-4,-3,-3,5
51391400570,-97,2,-6,2,-5,-1,17,10
51391409501,48,6,16,22,3,2,11,-27
51391409501,-2,11,1,-15,-5,-2,-2,-6
51391415448,-23,-3,12,4,2,-1,-17,5
51391415448,81,17,1,11,2,0,-33,-45
51391430498,-16,-27,-27,-4,-1,-4,-13,50
51391430498,-3,5,-10,12,3,4,8,-36
51391438011,-4,-6,-30,0,-1,0,-7,23
51391438011,18,-9,41,-13,-9,-6,-29,24
51391453003,-30,4,-43,-5,4,2,35,23
51391453003,7,4,-8,21,2,-5,-44,-1
51391460501,-79,-4,26,0,-7,-4,8,14
51391460501,16,0,25,-8,2,4,17,48
51391469585,3,2,13,20,-2,-6,-19,-37
51391469585,35,-1,50,-5,-5,0,-22,29
51391475487,-80,-8,-26,-20,1,-4,-19,65
51391475487,1,4,-23,-16,4,4,58,-111
51391490516,-3,0,7,1,-2,-3,-28,42
51391490516,27,4,0,-4,-3,-2,31,8
51391498019,10,0,18,13,0,0,-25,-39
51391498019,-4,-7,-49,-10,-3,-4,34,44
51391513055,-5,6,20,8,2,1,4,-51
51391513055,16,-8,-7,-16,-5,-2,23,-92
51391520636,71,-5,-46,-7,-4,-3,15,-24
51391520636,-79,7,40,2,-1,-1,-5,-5
51391536239,14,-3,-66,1,1,0,-18,17
51391536239,35,3,41,-2,1,1,5,-18
51391537062,-35,-1,10,6,1,0,21,-54
51391537062,-29,-5,-15,20,3,2,40,-9
51391550490,16,-1,68,-10,-8,-6,-51,62
51391550490,-30,-2,-22,-15,-4,-2,8,-68
51391558049,16,-21,17,6,2,1,17,56
51391558049,20,10,-15,7,-2,0,19,-3
51391573030,-46,-3,-6,-15,-1,0,-2,10
51391573030,-6,4,-6,-2,2,4,10,127
51391580665,-3,-4,19,-20,-9,-4,-2,-42
51391580665,48,-1,-4,19,-2,-2,-33,24
51391596328,11,-2,27,39,5,-3,18,9
51391596328,6,-9,-19,-35,-6,-6,-26,26
51391597034,70,11,-6,-6,4,3,-9,72
51391597034,-55,2,23,-15,-2,-3,12,-71
51391610637,6,-9,-52,15,-4,-1,-23,-33
51391610637,-32,1,3,7,4,0,-8,1
51391618118,-4,4,-15,11,2,-1,55,10
51391618118,42,-3,-12,-22,-6,-3,-11,-11
51391633128,-51,11,11,4,5,3,12,25
51391633128,-9,-12,-31,-3,1,-1,6,-71
51391640629,-3,6,0,4,-1,0,-2,-46
51391640629,37,-5,-31,-9,-1,-3,-45,15
51391656317,-6,5,60,-6,-1,2,23,-3
51391656317,5,-7,-53,-23,-8,-5,-14,13
51391656958,-36,-8,37,25,3,-2,-13,-24
51391656958,-11,-7,-24,-6,-2,-2,-27,-9
51391670467,35,9,66,-3,1,4,4,6
51391670467,0,-9,-63,-2,-2,-5,-36,27
51391678152,-32,1,17,-4,-3,0,22,-21
51391678152,-10,-6,0,20,4,-2,-7,-20
51391693110,-3,-1,-25,-24,-4,-4,-16,-67
51391693110,39,4,34,39,8,-1,-31,35
51391700543,10,-2,1,-11,2,1,11,-28
51391700543,13,3,21,-7,-2,-1,-13,22
51391716222,11,3,-21,3,-2,-4,-29,-44
51391716222,-18,2,30,4,0,2,27,43
51391717009,92,9,-29,-11,-4,-3,-16,19
51391717009,-89,-3,40,13,-2,0,49,-3
51391730595,27,-26,-48,-21,-2,-5,-10,34
51391730595,3,3,18,1,-4,-2,-24,11
51391738220,-7,0,-7,-3,-4,-5,-13,-15
51391738220,35,-1,8,2,0,1,14,55
51391753101,-6,-2,-9,9,4,3,10,-4
51391753101,-22,5,36,1,3,3,48,9
51391760651,-8,-9,-87,-22,-4,2,-14,25
51391760651,52,14,-6,15,1,-1,-70,-14
51391776356,25,-2,-15,-9,-3,-2,32,95
51391776356,-30,6,16,5,-4,-4,0,-72
51391776947,1,7,100,53,8,5,-2,33
51391776947,23,-5,-50,-79,-11,-3,21,-8
51391790687,20,7,39,17,3,-2,-29,34
51391790687,-14,-13,-32,-1,0,0,-12,-6
51391798200,17,20,39,2,-4,-3,17,30
51391798200,-51,-2,-30,18,2,2,-27,-30
51391813161,-28,-7,41,26,2,2,32,-11
51391813161,-26,4,4,-3,-2,-5,2,-3
51391820498,14,2,-80,-12,-1,0,-27,-6
51391820498,-16,-36,62,6,1,2,54,32
51391836366,26,18,3,-11,-7,-4,-19,5
51391836366,14,-5,-7,4,-2,-2,5,28
51391837010,-3,-6,1,0,0,-2,-1,-100
51391837010,13,9,-51,-20,-5,-3,-2,34
51391850592,-46,1,-44,10,0,1,32,-21
51391850592,9,-9,5,8,1,-2,-30,25
51391858060,0,-8,7,-46,-7,-5,7,-8
51391858060,7,7,15,-12,2,-1,-9,21
51391873132,-4,-6,-8,-5,-1,-2,20,-70
51391873132,12,4,-31,-2,0,4,20,-12
51391880643,-102,-11,5,12,-5,-1,11,77
51391880643,54,3,-13,-5,1,0,-18,-37
51391897652,-22,-30,24,-7,0,1,-19,33
51391897652,41,21,40,19,4,2,-6,-41
51391898476,27,2,-52,-18,-1,-3,13,0
51391898476,40,0,-18,11,0,1,27,54
51391910662,8,14,21,2,0,0,-16,-19
51391910662,-41,-14,-20,-13,-4,-2,23,7
51391918174,4,-12,11,2,1,0,-18,12
51391918174,0,11,13,15,0,-4,-38,-2
51391933164,12,14,-10,-7,2,0,-33,-25
51391933164,-10,5,37,-12,-4,-1,20,-30
51391940635,29,-8,-63,10,-1,-4,-45,36
51391940635,-37,2,-9,-11,1,0,18,23
51391956150,2,-2,29,5,-1,-1,6,-11
51391956150,21,0,-17,-9,1,0,-5,32
51391956965,63,7,36,7,4,2,-4,-71
51391956965,-11,-6,7,9,-4,-8,0,-2
51391970665,-5,2,-36,-8,-2,1,-15,52
51391970665,59,6,18,-6,0,1,-1,-12
51391978075,-33,-7,-39,-6,0,-1,16,101
51391978075,10,1,-59,-5,-1,3,-26,-34
51392001204,2,-2,-25,-13,1,1,10,82
51392001204,9,-3,-21,-1,-3,-2,11,-59
51392001995,18,-8,43,4,-1,0,-5,-59
51392001995,-15,3,17,8,0,-2,-9,-7
51392016282,2,-7,-1,-12,-2,-3,32,-3
51392016282,-13,16,-6,-3,-4,-5,-38,14
51392017028,-31,-3,16,-8,-5,-2,32,-45
51392017028,-8,5,2,11,3,5,-10,-33
51392031990,35,1,35,13,-1,-2,6,-107
51392031990,-17,-5,-27,-6,0,-4,-4,44
51392038031,-3,3,3,12,3,-1,34,-58
51392038031,49,9,25,1,-2,-2,3,64
51392053041,-32,-13,-47,-9,-2,-1,-18,-44
51392053041,4,-5,44,31,1,1,9,54
51392060678,-13,2,8,-50,-3,-2,-29,-24
51392060678,3,-4,76,29,1,-1,22,-34
51392076360,-1,-2,-35,-8,-2,-3,1,12
51392076360,-22,-5,5,-4,2,2,-14,24
51392076962,14,5,9,6,-4,0,0,5
51392076962,2,0,19,-2,-2,-2,30,20
51392090569,-22,-2,-18,-24,-4,-2,-42,-5
51392090569,21,8,-20,20,-2,-4,9,-1
51392098094,-30,-7,7,11,3,-1,-32,13
51392098094,10,1,-33,-12,1,2,0,-13
51392113102,-42,1,37,-3,-2,-4,-3,34
51392113102,12,-7,-30,-15,-1,4,9,97
51392120595,42,26,65,20,-5,-4,12,-19
51392120595,-64,-14,-76,-7,-3,-3,-27,-26
51392136245,15,-2,8,-3,-1,0,8,-1
51392136245,-39,-12,3,5,5,3,14,-43
51392137032,20,0,-4,-1,-2,-3,-37,7
51392137032,-33,-4,1,5,-3,0,27,1
51392150703,11,3,11,-5,1,2,-35,25
51392150703,35,-7,29,-7,-6,-5,22,5
51392158195,-78,-9,-66,3,0,0,-6,-18
51392158195,36,0,4,1,0,-2,4,57
51392173174,15,-1,4,10,2,1,22,-7
51392173174,-34,-8,21,1,-2,4,0,11
51392180730,-21,-2,-7,-19,-3,-5,-19,-29
51392180730,4,9,12,8,-3,-1,23,26
51392196233,32,4,-10,8,3,4,-4,5
51392196233,-95,-14,-21,-3,-4,-3,-3,-19
51392196989,5,21,20,-17,-4,0,21,42
51392196989,2,-14,-38,-4,-2,-1,-7,-45
51392210430,40,12,39,17,-1,-4,11,14
51392210430,-15,1,14,-8,0,0,-2,-31
51392217940,-2,-5,-46,7,-2,-4,-16,16
51392217940,-5,-2,-47,-1,2,0,22,-22
