timestamp,emg1,emg2,emg3,emg4,emg5,emg6,emg7,emg8
50249429049,7,-1,-22,-2,-2,3,2,-3
50249429049,9,3,-8,-5,38,7,8,-2
50249429810,-3,-1,12,-3,-41,-3,-8,-5
50249429810,0,9,12,2,18,0,-85,-15
50249430653,7,-4,-6,-33,-30,-1,46,67
50249430653,1,2,5,-4,-2,2,-6,-10
50249434226,-5,-3,-5,10,15,-1,-8,12
50249434226,5,-5,-4,-22,-4,-1,5,-44
50249441343,-13,0,4,9,13,2,-17,-23
50249441343,-16,4,6,46,15,5,-2,10
50249453002,-9,-10,-20,-80,-12,-7,10,9
50249453002,6,5,-7,7,-30,-4,25,-29
50249456548,25,6,47,17,16,-3,-10,-8
50249456548,-51,-11,-14,-3,-13,4,0,-2
50249472879,6,1,8,38,30,4,-13,-19
50249472879,-8,-1,-6,-24,3,1,16,36
50249480174,21,6,-4,74,12,1,-18,-15
50249480174,48,-1,16,-89,-40,-9,26,-9
50249502524,-7,-14,-58,-5,-4,-2,-18,8
50249502524,-95,-17,-7,-16,-1,-2,-1,-3
50249505431,24,12,17,52,6,4,4,11
50249505431,-33,-8,0,4,-7,-2,7,-11
50249510565,21,3,10,-14,11,-2,-3,27
50249510565,15,3,-13,-17,-35,-4,37,-67
50249557107,27,0,-3,-4,1,0,21,-73
50249557107,-53,-1,-4,-7,10,0,12,10
50249558091,9,2,1,25,12,2,14,10
50249558091,-2,-5,-9,-64,-12,-5,-19,-4
50249558850,-1,5,8,19,-18,0,-5,13
50249558850,-1,1,0,-69,-7,1,-32,-19
50249561315,-6,-15,-43,13,3,-10,11,5
50249561315,1,10,18,1,3,-7,2,-11
50249569541,10,-1,1,13,2,2,12,4
50249569541,-13,1,-9,27,8,3,-24,-4
50249576333,7,-1,16,-2,3,5,-14,-4
50249576333,7,-6,-19,-12,3,-2,8,5
50249583830,-3,4,-2,-16,-18,-4,16,20
50249583830,6,-19,2,-2,-1,-2,16,14
50249598825,-55,-1,3,-13,-9,-7,-16,-12
50249598825,-18,4,-14,12,-11,-6,-19,-37
50249606875,-7,-13,-28,-33,5,4,12,11
50249606875,-15,10,30,60,11,3,4,4
50249613828,32,-18,-1,-5,19,1,-2,-7
50249613828,33,-4,15,-52,-56,-10,-2,78
50249629410,-68,17,-3,-2,11,-3,-24,-55
50249629410,31,-16,-29,-7,0,2,-28,-21
50249636219,39,21,29,19,7,5,69,64
50249636219,-39,-14,-29,76,20,6,-46,-3
50249643658,70,-6,-12,-44,17,0,-13,33
50249643658,-68,5,4,-18,-31,-10,28,-6
50249658679,45,1,4,-3,-5,-1,12,-31
50249658679,-20,0,18,14,12,1,-14,-14
50249667019,-19,-2,-23,-4,-8,-2,-2,21
50249667019,55,14,11,18,21,3,-39,-11
50249673814,-47,-10,-34,-46,-20,2,27,65
50249673814,35,12,7,34,7,5,22,4
50249689405,-6,0,24,28,8,5,1,-8
50249689405,11,-6,-13,-45,12,-4,-5,20
50249696277,-9,6,9,30,-24,-8,-47,-65
50249696277,-39,-8,5,-31,-23,1,43,-7
50249703863,85,15,8,20,-8,-2,12,34
50249703863,18,0,-4,-11,-9,-3,15,-5
50249718837,-47,-2,4,17,16,3,-28,-32
50249718837,1,-7,-10,4,17,0,9,-18
50249726981,-26,-9,17,-8,-6,-1,-17,1
50249726981,-4,-10,2,20,-3,1,12,18
50249733851,54,10,20,8,3,0,11,36
50249733851,-54,-14,-2,-46,-3,0,0,62
50249749436,-34,-1,20,-22,0,-3,-47,-13
50249749436,46,0,-16,-9,-10,-2,23,45
50249756375,4,-2,13,9,-8,-2,52,6
50249756375,-23,2,-4,11,0,-4,-20,-15
50249763824,-20,2,31,47,12,0,-29,-17
50249763824,-14,-19,-58,17,-5,-2,6,-36
50249778700,-5,-4,-37,-42,-3,0,-47,-14
50249778700,17,27,63,10,33,9,7,-26
50249786962,32,-12,-45,-88,-49,-12,9,-4
50249786962,-33,3,18,34,2,-7,1,-2
50249793776,11,18,7,-12,-22,-6,1,-9
50249793776,44,-15,-11,22,20,2,-88,-2
50249809416,-55,2,21,40,23,7,41,-6
50249809416,8,8,38,2,11,1,-2,48
50249816321,29,0,-37,-20,-2,6,16,-16
50249816321,-27,-2,12,12,7,2,15,14
50249823673,-46,-1,-12,24,-4,-5,-46,42
50249823673,15,6,21,23,-13,-3,-32,32
50249838660,11,-4,2,46,15,-3,-26,-61
50249838660,25,5,-9,-15,-12,-1,47,20
50249847701,4,-11,-1,-12,9,-2,6,-1
50249847701,2,24,-5,45,0,3,2,0
50249861147,3,-11,3,-93,-14,-3,-34,-7
50249861147,4,-6,-20,31,-3,-2,2,-18
50249870195,9,3,-24,15,3,-1,7,-3
50249870195,-7,-9,24,-12,1,-1,-3,-38
50249883891,15,1,7,-17,3,2,-9,67
50249883891,-10,-4,-14,-8,-4,-1,48,-96
50249892669,-23,-13,50,60,16,7,25,48
50249892669,8,2,-71,-47,-5,-1,14,-24
50249898762,14,-14,-16,-35,-23,-9,-47,36
50249898762,-54,1,19,27,14,-3,8,20
50249907725,45,3,-5,7,-2,-2,2,21
50249907725,-39,5,28,0,1,3,23,-57
50249921314,-24,1,7,35,9,2,-1,3
50249921314,29,2,-16,-19,-11,-2,-11,-59
50249930183,-40,-7,-4,-19,0,-1,10,19
50249930183,1,-13,-25,-28,-8,-8,-48,-48
50249936167,-23,-8,31,37,2,-3,73,-15
50249936167,51,2,-41,-21,-5,0,-19,2
50249952672,33,4,4,-12,-3,-2,0,-21
50249952672,4,-4,-9,-7,2,3,14,6
50249958794,-8,0,9,14,5,1,-33,-24
50249958794,15,-1,-31,5,-1,-3,-6,15
50249967681,-25,-20,-13,-16,-4,1,50,-7
50249967681,45,10,-17,-8,-9,-6,-27,-12
50249981327,-25,-2,31,18,11,1,-12,40
50249981327,9,6,-12,11,4,6,23,-65
50249990157,-7,1,-29,-40,-16,-6,-18,32
50249990157,5,-14,5,-8,-8,-4,6,41
50249996322,-49,13,8,-18,1,1,6,-32
50249996322,-10,-17,-24,-1,-3,2,14,33
50250012722,15,2,11,23,5,-3,-11,-48
50250012722,9,1,40,14,4,1,1,15
50250018674,-4,-2,-11,9,1,2,4,5
50250018674,4,7,10,2,1,3,10,8
50250027626,50,14,17,-10,-2,2,-17,19
50250027626,-6,-9,-22,-10,1,2,10,-68
50250041215,12,21,-33,15,3,-1,-27,20
50250041215,-27,-9,105,-15,-4,0,-4,33
50250058347,7,-24,-56,-27,-14,-3,15,-60
50250058347,-9,-7,86,10,-2,-6,12,28
50250059214,5,0,-4,-11,-2,-2,-63,-61
50250059214,5,7,9,12,4,2,28,83
50250072767,-14,13,12,5,3,2,-4,15
50250072767,14,6,22,2,1,3,14,9
50250078642,-10,-19,-27,-9,-9,-7,-27,-26
50250078642,17,9,26,-2,-4,-4,-22,45
50250087641,-72,-1,37,17,3,-1,5,-30
50250087641,-6,-16,-85,-17,-11,-4,-26,-3
50250101120,-12,15,-31,-8,1,-3,23,15
50250101120,25,-8,35,33,-5,-2,-23,-25
50250110166,-20,0,-27,2,3,1,15,2
50250110166,14,4,-46,-2,3,-1,-6,77
50250116103,6,6,48,22,-2,-1,25,-2
50250116103,11,2,-57,11,-3,-6,-17,-14
50250132647,12,4,11,-39,-1,0,-20,38
50250132647,27,6,20,-2,-2,2,22,-37
50250138738,-40,-14,22,30,-6,-4,6,33
50250138738,-8,-3,-17,-2,4,-3,25,-53
50250147658,6,3,19,18,2,0,-35,15
50250147658,-5,3,-5,3,4,1,41,1
50250161182,31,-8,-5,-27,-7,-1,3,-2
50250161182,10,1,13,-4,-1,-2,-17,-12
50250170127,16,8,3,9,0,2,6,-10
50250170127,-6,-4,41,32,3,0,-40,-1
50250176154,-50,-13,-26,-23,-4,0,7,-8
50250176154,-4,2,18,-3,-2,-2,1,57
50250192665,37,4,-10,5,3,0,9,-60
50250192665,-36,10,-30,15,1,-2,5,-5
50250198749,-59,-20,33,8,5,3,-3,22
50250198749,-12,-15,-32,-15,-2,0,-30,5
50250207691,-2,4,13,0,-7,-5,-10,28
50250207691,-12,1,14,-2,2,3,11,-59
50250221243,38,3,-24,-12,-1,-2,12,7
50250221243,-17,-18,46,2,8,5,21,-14
50250230132,-32,-11,-77,-5,-5,-2,-16,-13
50250230132,4,-14,-55,-37,-11,-6,8,41
50250236282,39,22,32,5,4,-2,19,-16
50250236282,-1,-4,-81,1,-8,-3,-18,8
50250252632,2,3,25,9,8,5,16,45
50250252632,-9,-8,23,-4,-7,-1,-15,17
50250267541,54,18,6,6,0,1,13,-27
50250267541,-99,-28,-8,-16,-4,-1,-23,-7
50250269128,17,-11,-44,-5,0,-1,-10,-11
50250269128,9,11,-13,-15,2,1,53,15
50250281128,1,-2,4,15,2,0,-12,0
50250281128,43,17,17,0,-4,-4,14,0
50250290145,-2,1,0,-1,-1,0,-3,-4
50250290145,-9,11,44,14,6,1,-61,51
50250296146,-7,-4,-26,4,-1,2,70,-70
50250296146,28,-5,-6,-28,-6,-3,-5,16
50250311150,45,8,9,3,-2,-7,12,-11
50250311150,22,8,25,3,2,1,-30,-14
50250318652,-23,-4,-26,15,0,-3,-18,23
50250318652,34,12,-12,-22,2,-1,-31,-16
50250335188,-22,-17,7,5,-3,-1,10,-26
50250335188,-29,-5,15,-9,-4,-4,8,8
50250341150,19,-8,16,-8,-3,0,-1,14
50250341150,3,12,16,5,-1,-2,30,-17
50250350284,6,-10,-33,5,2,0,-35,-4
50250350284,-15,-5,-8,-17,-1,1,56,-30
50250356291,-8,-11,11,1,-5,-3,-24,58
50250356291,-1,19,17,2,0,-1,20,-56
50250371221,11,-17,-24,-8,-4,-2,-11,-20
50250371221,-9,-3,8,9,0,-1,22,23
50250378627,-3,-8,-35,-13,1,-1,-2,-16
50250378627,-11,9,35,1,0,1,-7,51
50250387605,33,-5,15,6,-5,1,-6,-75
50250387605,-79,-13,-44,-9,-6,-8,-7,-29
50250401176,33,5,-23,-9,1,0,12,29
50250401176,-9,-1,27,-2,0,-1,-13,21
50250410119,-5,7,19,8,2,-1,-10,19
50250410119,36,2,4,3,-2,3,-38,20
50250416209,-27,6,19,3,3,3,21,9
50250416209,43,3,-6,-6,-1,0,19,-12
50250431123,-15,3,28,-10,-5,-5,-8,18
50250431123,8,-7,4,-4,-5,-3,-15,-21
50250438671,-4,4,-11,1,3,-1,-11,-9
50250438671,7,-2,22,7,0,0,-1,4
50250447621,-9,-2,-48,-17,1,2,31,-7
50250447621,15,11,27,1,-2,-2,16,9
50250461394,-2,-1,40,18,3,1,-46,22
50250461394,39,7,-61,-12,-5,-7,2,-70
50250470244,-91,-26,-20,-7,-1,-1,5,-14
50250470244,6,2,-2,8,1,0,-26,43
50250476129,34,-4,16,-1,-4,-1,50,1
50250476129,-10,0,-13,2,-2,0,4,16
50250491128,11,8,7,-19,-2,-1,-18,22
50250491128,-32,-4,-5,1,-1,-3,-39,1
50250498864,-10,-13,13,-9,-6,-5,-40,-19
50250498864,-17,2,8,10,1,0,13,-61
50250507688,14,7,8,3,1,2,26,18
50250507688,37,-1,8,15,4,3,-9,14
50250521278,-58,1,0,-26,-6,-3,-7,-16
50250521278,-15,0,-19,12,-3,0,19,48
50250530144,7,5,35,4,0,2,1,-71
50250530144,20,3,-5,-2,3,0,-5,-51
50250544826,23,12,34,16,10,6,6,30
50250544826,-8,-24,-75,-24,-8,-1,1,-39
50250551183,4,0,36,-12,2,-2,8,35
50250551183,-86,-10,32,14,-3,-4,28,28
50250567529,17,13,-23,-31,-3,1,-3,-33
50250567529,-17,0,34,25,2,1,-11,13
50250569083,22,11,42,7,3,0,-29,44
50250569083,7,-35,-87,-11,-5,1,50,-77
50250581332,-12,4,19,38,4,0,-12,15
50250581332,11,-1,13,-18,-4,-1,-1,25
50250590147,7,1,4,-8,-8,-6,-35,55
50250590147,16,5,-7,-1,8,6,41,-16
50250604464,-9,-4,-1,6,-4,-3,19,-1
50250604464,4,-2,-41,-12,4,6,-19,-18
50250611262,-11,-4,-33,13,-2,-4,37,31
50250611262,10,8,31,-64,-9,-4,-16,-19
50250627610,8,-12,-27,31,0,-1,-7,-10
50250627610,-16,3,14,-77,-8,-2,-27,-27
50250629096,49,24,67,58,12,3,4,38
50250629096,-63,-35,-80,3,-3,-1,-50,14
50250641225,13,-20,-65,-10,-7,3,-2,-13
50250641225,-2,-30,60,8,-11,-7,8,11
50250650146,28,-1,-18,10,6,1,-15,-23
50250650146,-50,15,125,41,3,0,-1,-15
50250664471,2,0,-81,-19,-1,-6,-21,40
50250664471,-21,0,-21,12,3,2,26,-46
50250671267,-29,-21,-20,1,-5,0,23,-68
50250671267,41,7,-10,5,0,-3,-28,24
50250687625,36,5,24,-15,-3,-2,-13,-20
50250687625,-5,0,-5,8,0,-3,10,18
50250689087,0,6,-8,-3,0,0,-29,-10
50250689087,-32,1,10,-8,-1,-3,35,-18
50250701220,-39,-10,-8,-25,-4,-2,-5,-17
50250701220,17,3,-22,31,3,-3,5,39
50250710121,-1,-17,11,-10,0,2,-28,-12
50250710121,33,-2,-35,-19,-5,3,8,53
50250724491,9,17,4,-6,0,-3,10,15
50250724491,-14,-15,8,42,5,-1,-22,22
50250731319,-21,-8,-49,-30,-9,-6,47,-39
50250731319,34,20,19,25,3,3,-41,16
50250747706,-7,-13,42,-44,0,2,0,-21
50250747706,-9,4,-58,25,10,1,-5,41
50250749133,19,8,-9,6,-3,-2,3,-10
50250749133,53,-15,29,34,7,0,30,47
50250761268,-66,14,-25,-1,1,1,-1,12
50250761268,7,-20,-36,-37,-11,-4,-17,33
50250770117,-2,3,36,-6,-2,1,32,5
50250770117,-15,-1,-2,-1,1,0,34,-27
50250784378,28,12,-15,9,3,-1,14,23
50250784378,-10,-1,28,26,3,-1,5,-6
50250791371,-6,12,-12,-20,-10,-4,-42,5
50250791371,-2,-24,-64,2,5,1,-21,-8
50250807671,25,5,22,-7,-1,3,20,16
50250807671,-49,-5,31,6,-2,-5,-6,-25
50250809098,9,13,43,2,-2,-3,-30,69
50250809098,-5,-5,-82,-27,-8,-5,-6,-75
50250821241,3,-3,43,20,-1,-2,-16,-7
50250821241,20,6,13,1,1,0,-25,-4
50250830091,-10,0,4,9,1,0,6,16
50250830091,-20,7,-39,-24,-5,-5,1,14
50250844310,-31,-5,62,21,-7,-1,13,-24
50250844310,50,15,-19,-4,-2,-3,41,-9
50250851322,-24,12,-28,-36,-4,-3,-38,22
50250851322,17,22,36,14,-4,-1,-39,-59
50250867527,36,-8,-23,13,6,-4,7,5
50250867527,-1,-18,-21,-5,-3,0,6,-1
50250869198,2,12,22,9,2,-1,19,11
50250869198,11,13,22,-15,-3,-1,-26,8
50250881288,3,-8,-15,45,4,-2,-4,0
50250881288,-4,9,20,-81,-6,0,3,-7
50250890145,16,-9,-31,-14,-1,0,13,-26
50250890145,-6,-1,33,19,1,-2,-6,42
50250904510,-11,-11,12,7,-3,-1,6,-38
50250904510,3,15,36,31,9,4,-4,22
50250911286,-13,6,36,-18,-6,-2,-7,-46
50250911286,-7,-3,48,-15,-4,-3,-8,32
50250927679,45,9,-13,18,4,2,22,48
50250927679,5,3,38,-5,-6,-3,-12,-6
50250929089,7,17,-27,8,-1,-4,26,2
50250929089,-7,-1,-26,-14,-2,-1,5,-29
50250941226,-5,-10,23,-21,-4,-1,-11,24
50250941226,11,2,-46,11,-1,-3,9,23
50250950134,-50,-17,-17,10,-4,-3,18,-35
50250950134,27,-5,13,11,5,1,1,-1
50250964487,-3,-7,-60,-25,-3,-3,-18,-8
50250964487,-6,8,101,12,-1,0,0,-19
50250971272,-11,-19,-40,9,5,3,8,31
50250971272,31,4,-42,-8,1,3,40,19
50250987838,-13,3,-1,-26,-7,-5,-12,-20
50250987838,1,-10,26,10,2,1,-29,-8
50250989068,7,-6,3,26,7,2,19,-56
50250989068,-19,5,4,-23,-2,2,-55,-19
50251001160,8,19,49,8,-2,0,18,28
50251001160,-43,-6,-97,-13,1,-1,34,-35
50251010104,9,2,18,4,-1,0,-4,26
50251010104,15,-8,19,13,-1,-5,34,25
50251024322,-1,1,-6,-11,-2,-4,-3,-59
50251024322,-27,0,28,3,-2,-1,-21,12
50251031098,3,-7,-31,2,1,1,7,4
50251031098,-30,-4,-14,10,3,-1,8,-18
50251047461,3,-2,26,-21,-4,-4,-29,28
50251047461,32,2,-13,-11,-2,4,87,8
50251049085,-56,2,-23,18,-1,-4,-50,-5
50251049085,16,4,-10,-1,-2,-5,-43,-11
50251061077,-4,7,44,24,4,6,6,22
50251061077,-11,4,-19,-15,-3,-1,-45,67
50251070083,12,-2,45,-30,-4,-1,51,-75
50251070083,3,3,-4,8,1,1,-41,19
50251084298,-15,-8,-33,-1,-1,-3,3,-3
50251084298,2,-1,-7,6,1,-2,-52,-27
50251091067,45,12,15,2,-1,3,42,43
50251091067,7,5,88,32,2,-3,22,-18
50251107442,-6,-13,-38,-15,-3,0,7,-97
50251107442,20,-1,-8,-38,-8,-2,-22,-11
50251109040,26,-23,-5,17,3,-2,-18,30
50251109040,-2,0,6,-14,-1,0,24,1
50251121115,-2,1,-4,-11,-3,-4,-69,-8
50251121115,47,14,29,12,5,2,23,-5
50251130061,-5,-4,-8,-16,-5,-2,-4,-12
50251130061,-1,6,23,24,-3,0,10,6
50251144311,-35,15,-11,-29,0,-1,-9,-18
50251144311,-17,2,-25,5,0,-8,-11,-10
50251151106,-3,0,-10,-1,4,2,-42,15
50251151106,2,-6,-6,-6,-2,-2,54,39
50251166814,13,-5,-5,5,0,2,3,7
50251166814,-11,-4,9,5,-2,-1,30,62
50251173624,-6,4,10,11,-1,-2,-18,-19
50251173624,15,6,-20,-16,-1,0,-5,-21
50251181084,-57,-19,33,16,-3,-2,10,2
50251181084,1,-10,-37,0,2,-1,6,28
50251190125,6,2,34,7,-1,-1,-17,23
50251190125,-15,-7,-51,-24,-4,-6,-20,-88
50251204318,46,-7,13,6,-1,-2,-17,16
50251204318,12,7,33,17,-2,0,-16,-20
50251211082,-29,-6,-56,-21,-6,-4,2,15
50251211082,30,-14,7,-3,2,1,13,40
50251226787,-84,4,51,20,-1,0,-15,-21
50251226787,23,-1,-26,2,0,0,-5,-2
50251233619,27,-5,-2,-8,0,-1,13,14
50251233619,-3,15,-3,17,-3,-5,-40,37
50251241077,2,-10,26,28,9,1,34,-19
50251241077,25,0,-55,-81,-9,1,1,12
50251250109,-81,-15,32,30,5,-1,-22,-6
50251250109,15,-1,-24,2,-3,0,18,25
50251272424,11,-7,-29,8,3,2,6,42
50251272424,-12,8,49,28,1,0,32,-101
50251274046,19,-7,-4,-40,-10,-3,2,18
50251274046,-23,2,23,10,-1,-2,-11,-36
50251286748,35,1,-19,13,-3,-1,13,17
50251286748,1,-9,9,-5,1,-2,6,-1
50251293591,29,7,-9,3,-1,1,30,13
50251293591,-105,1,76,-3,3,2,-24,41
50251309918,44,-7,-90,-13,-6,-1,-1,-74
50251309918,51,7,-29,-5,-4,-2,31,21
50251311582,-56,-4,15,3,-1,0,-7,7
50251311582,15,2,-6,0,-2,1,-23,-14
50251324301,-11,8,7,0,4,3,1,29
50251324301,-27,11,-13,5,-2,0,-11,19
50251331070,28,-16,15,19,3,1,3,24
50251331070,10,1,-8,-25,-6,-1,22,-77
50251346789,-16,1,-23,0,-6,-2,-14,11
50251346789,-13,3,8,-5,0,-2,-27,-18
50251353605,5,4,-46,-9,4,1,-25,-3
50251353605,1,-7,-2,13,2,1,6,-10
50251377538,24,3,9,-10,0,-2,17,15
50251377538,-31,-9,16,15,1,3,3,1
50251379090,17,0,-5,-9,-2,-1,-13,-23
50251379090,2,0,24,15,1,-1,-8,67
50251384470,84,0,-85,-45,-7,-2,5,-24
50251384470,-53,-28,-18,8,0,0,-12,0
50251391200,6,-1,-15,14,3,-3,1,-15
50251391200,9,-3,9,-1,-2,-2,13,32
50251406893,-2,6,36,-4,-3,-1,-17,3
50251406893,-17,-9,12,16,-5,-3,-24,23
50251413790,11,-1,-58,-15,-1,1,37,-73
50251413790,23,-6,-3,-3,0,1,-27,10
50251429988,-25,2,47,-3,-1,-5,7,32
50251429988,8,-13,10,5,0,-2,-2,-26
50251431608,-8,-1,18,12,-2,2,27,51
50251431608,4,11,14,-11,-7,-4,17,-90
50251444337,-24,2,8,0,3,0,13,19
50251444337,5,5,1,11,2,-3,-30,3
50251451105,5,4,67,5,-4,-2,42,-8
50251451105,29,-3,-107,-29,0,1,-30,-15
50251466808,-33,-8,-16,6,0,0,8,19
50251466808,1,-2,13,3,4,2,-3,-7
50251473642,19,11,-5,0,-5,-2,-27,-5
50251473642,11,-4,29,10,1,0,14,33
50251490015,-8,-6,8,-4,0,0,28,42
50251490015,-25,5,1,7,2,0,14,-21
50251491654,93,20,-11,-10,0,0,-46,18
50251491654,-33,2,10,-3,0,3,14,-45
50251504381,-4,-22,-19,2,-4,-3,-28,-2
50251504381,13,6,8,-6,-1,1,19,39
50251511135,-27,-20,-56,-8,-3,-3,-24,-8
50251511135,-10,-5,17,4,-1,-3,-16,5
50251526788,38,40,6,15,3,1,11,-15
50251526788,3,-15,9,-26,-12,-7,-6,-9
50251533770,-31,-9,35,-1,2,1,-15,-10
50251533770,-17,-2,-22,6,4,3,23,35
50251550065,25,8,41,-17,0,-1,2,-19
50251550065,-50,7,-33,14,1,0,-14,59
50251551655,-21,-15,40,8,1,-1,16,-67
50251551655,12,-10,33,12,1,0,-6,12
50251564395,-15,3,-39,-2,1,2,-3,6
50251564395,32,13,60,2,-1,0,-2,-1
50251571254,-12,-2,22,-5,-9,-5,22,13
50251571254,-2,3,-41,-2,2,-4,-1,-30
50251586913,-8,-8,-15,0,-5,-2,37,-21
50251586913,43,4,17,0,0,-4,-36,46
50251593769,-41,10,19,0,-1,1,28,-23
50251593769,12,-7,-20,-7,-3,-3,-30,-8
50251610091,-34,-10,9,-1,-1,-2,-24,-31
50251610091,45,7,-9,-6,-1,2,27,-9
50251611630,14,2,-20,9,1,-1,-33,50
50251611630,16,-4,-5,-47,-3,2,4,-27
50251624374,-97,-11,-19,14,3,-1,-19,-1
50251624374,3,-18,45,12,-3,-3,-11,26
50251631210,3,-7,-7,4,5,2,15,-33
50251631210,4,0,-2,0,-4,-1,42,40
50251646832,-8,-2,-17,-15,-3,-3,-10,-5
50251646832,40,14,-4,5,1,1,3,-6
50251653806,7,4,5,-27,-4,0,2,16
50251653806,-28,-6,-12,4,-5,-2,8,9
50251670105,-10,-21,3,-9,-6,-3,-16,23
50251670105,-29,-13,-13,3,2,1,-16,-29
50251671685,27,0,23,-6,-2,-1,6,-32
50251671685,-17,9,31,1,2,2,-19,32
50251684424,41,2,-11,-9,-5,-3,-2,-59
50251684424,-26,16,43,25,8,-2,-21,-45
50251691185,-4,6,-9,-41,-6,-2,-10,24
50251691185,50,-6,-2,13,-1,-3,6,22
50251707090,-58,6,72,15,-1,-1,7,7
50251707090,2,-3,-64,-15,-3,-1,-12,-11
50251713823,-19,6,8,9,6,1,33,18
50251713823,-10,8,26,13,-4,-4,25,5
50251729987,19,-6,-17,-11,-3,-2,-27,17
50251729987,-28,6,7,19,4,2,23,7
50251731629,48,2,-26,-9,-1,-3,-58,4
50251731629,-9,1,-30,-8,-1,1,14,-32
50251744496,26,4,27,21,6,2,9,8
50251744496,-13,0,-28,3,-5,-3,20,-13
50251751282,1,4,-31,-5,2,2,22,3
50251751282,-38,-11,-13,-13,-5,-4,-24,31
50251767004,35,-1,31,6,0,3,23,0
50251767004,-3,2,-13,-13,-1,-1,-22,-9
50251773773,-18,-9,-2,-15,-7,-3,-12,-4
50251773773,39,-2,16,10,2,-2,2,11
50251790123,-60,6,-21,8,-1,1,25,-52
50251790123,-5,2,21,-27,-1,0,-32,4
50251791627,-32,-26,-36,18,1,2,-2,55
50251791627,12,3,-2,-7,0,-2,-3,-60
50251803737,29,3,16,2,2,1,-14,23
50251803737,-13,-1,80,1,2,5,52,44
50251812627,8,5,-80,3,-3,-4,-22,-41
50251812627,-48,0,-17,-8,-3,1,-37,16
50251826833,38,-6,12,-1,-2,-5,-16,-4
50251826833,37,5,-33,-2,-4,-2,5,-18
50251833768,-51,-5,37,-2,0,-1,-8,11
50251833768,-1,10,-67,-3,-2,-1,26,-52
50251850074,20,-8,-23,-10,0,-1,-26,60
50251850074,-28,-21,-28,-12,-3,2,3,-50
50251851622,-44,3,25,13,2,-1,21,-4
50251851622,23,-1,-5,1,-4,-4,-7,18
50251863795,-8,1,36,-3,3,2,-69,0
50251863795,28,-8,-111,-42,-7,-4,33,-41
50251872617,17,13,77,20,0,-2,12,19
50251872617,5,4,-10,3,1,-1,-36,3
50251886887,45,8,-23,-2,0,-3,36,14
50251886887,-26,-16,3,18,-3,-3,-7,13
50251893757,1,3,-8,-8,-3,-3,-21,-26
50251893757,2,0,24,5,3,1,13,19
50251910011,-32,-1,-10,1,-3,-2,12,-29
50251910011,19,-11,3,3,-1,-3,1,-4
50251911611,3,4,-45,-5,1,1,-15,7
50251911611,25,-1,38,6,0,0,17,51
50251923845,-33,-9,-29,-10,0,3,25,37
50251923845,-28,-5,10,-3,1,-1,-13,-13
50251932639,27,5,11,4,0,1,-20,-11
50251932639,-13,-8,16,-2,-1,-2,-24,-28
50251946959,1,0,-29,8,-1,-2,14,3
50251946959,45,14,28,-8,-4,-2,1,12
50251953836,-4,-1,17,-13,3,1,13,29
50251953836,-19,-11,-30,4,0,-5,-32,-53
50251969982,35,2,-5,-3,-3,1,44,36
50251969982,-19,-17,31,26,3,0,-37,6
50251971615,10,2,-2,-33,-11,-2,41,-80
50251971615,-16,0,-1,-1,-2,-2,13,1
50251983839,25,9,54,8,2,0,-22,-36
50251983839,-49,0,-103,-26,0,-1,11,15
50251992620,-2,-3,33,36,4,-1,-24,19
50251992620,-8,-2,-10,-29,-2,1,10,41
50252006993,9,7,19,22,3,1,12,-32
50252006993,3,8,21,1,-3,-2,17,-46
50252013808,-44,-4,-12,5,0,0,9,-3
50252013808,52,-2,17,14,3,2,3,26
50252029975,1,3,3,-10,-4,-3,-19,-2
50252029975,6,-3,2,6,-4,-4,-7,-1
50252031630,9,-3,11,-15,-4,-3,33,47
50252031630,7,5,11,-3,-2,-2,-6,-26
50252043840,-49,-9,-14,3,0,-2,-10,-46
50252043840,7,-2,-13,-4,-3,-4,30,51
50252052609,17,19,16,9,-2,-2,-25,-49
50252052609,21,-13,-15,-3,1,1,-26,4
50252066899,-35,2,28,5,1,-2,18,5
50252066899,6,-5,-60,-9,0,0,-39,77
50252073806,35,6,-13,1,-3,-3,32,-60
50252073806,-32,-10,-18,1,1,-1,-4,0
50252089312,9,-6,27,-15,-8,-6,-8,-10
50252089312,4,2,-6,15,6,-1,35,7
50252096343,-22,-31,-43,-1,-1,-4,-11,59
50252096343,26,15,-4,11,0,0,10,-20
50252103832,-69,-7,-4,-14,0,0,-6,-9
50252103832,-26,-4,-19,-24,-5,0,-7,0
50252112618,18,-4,31,18,-3,-2,-9,-65
50252112618,-21,5,7,-13,-2,-2,21,-3
50252126939,21,-3,-25,2,-5,-4,-49,-6
50252126939,-10,2,32,5,4,1,2,-3
50252133711,-12,11,-11,-1,2,2,-40,46
50252133711,-4,-9,12,1,-3,-2,-27,-5
50252149498,44,5,14,-1,0,1,14,76
50252149498,-41,-3,-14,-15,-2,-2,-30,-55
50252156243,6,-11,61,15,-1,-2,-6,-8
50252156243,9,4,-52,-5,-1,-3,9,27
50252163632,4,-13,-25,-20,-4,-2,-34,3
50252163632,11,8,40,15,2,0,16,-3
50252172598,-49,0,-2,-9,0,1,-6,23
50252172598,-14,-7,6,-1,0,0,-16,-13
50252186953,35,0,-25,4,1,-1,15,-31
50252186953,28,4,91,11,-1,0,6,3
50252193814,11,1,-15,-10,-1,-1,18,1
50252193814,-5,0,11,2,0,1,-13,1
50252209476,-2,-7,-82,-15,-4,-3,20,-38
50252209476,95,9,62,14,2,0,15,-18
50252216136,-86,-16,-73,-5,0,-2,-26,54
50252216136,3,11,-10,-18,-5,-5,34,-79
50252223769,3,-22,-4,18,3,2,30,38
50252223769,-39,-2,-28,-5,-5,-4,-12,-28
50252232635,60,9,8,9,3,0,-16,-32
50252232635,-18,2,32,-2,-2,0,-4,17
50252246789,-12,14,-10,-7,-1,2,12,-6
50252246789,-38,-20,-37,-9,0,1,-6,-19
50252253793,44,6,31,4,0,-2,-2,17
50252253793,-9,-6,6,-2,-4,-4,3,13
50252269167,11,8,5,-1,0,-1,4,-11
50252269167,-23,-7,37,18,3,2,-18,48
50252277596,0,7,-16,-4,1,-1,-26,-90
50252277596,14,-17,-46,-9,-1,2,34,28
50252292571,29,3,20,5,5,0,-9,64
50252292571,-75,5,-28,2,-4,-2,15,-45
50252294103,10,-15,-9,-10,-2,0,15,6
50252294103,-10,8,15,12,-2,-3,24,-30
50252306968,10,-21,-19,-14,-2,0,-32,19
50252306968,24,5,4,-6,-2,-2,1,-6
50252313656,-6,8,-13,-1,2,2,13,32
50252313656,7,0,14,3,-1,1,8,2
50252329518,3,9,22,12,0,-3,-45,-10
50252329518,-27,5,-7,-4,-1,-3,-13,-4
50252336180,-7,-5,-26,-11,-6,-3,4,-6
50252336180,20,-4,-8,-3,-2,-1,-13,24
50252352612,-12,5,47,-4,-2,0,4,17
50252352612,26,-13,-80,-8,2,-1,-8,-37
50252354024,5,19,10,10,2,0,17,41
50252354024,-23,-7,23,5,0,-1,0,-20
50252367024,6,-16,-35,-7,-6,-4,24,17
50252367024,19,13,18,-10,-2,0,-9,-4
50252373789,-20,-10,-5,-3,1,0,17,1
50252373789,15,6,3,7,0,-2,-17,-12
50252389316,-19,1,-6,-8,0,-1,14,-63
50252389316,36,10,43,9,-1,-1,-35,30
50252396338,38,-2,-34,-9,-5,1,7,-11
50252396338,-20,-6,-2,-3,0,-3,-13,13
50252412637,-25,-3,-4,17,5,-3,6,-48
50252412637,13,7,1,-6,-2,-2,7,15
50252414057,27,-13,19,0,-3,-3,-9,52
50252414057,19,7,-28,0,-1,-1,4,19
50252426926,-16,9,79,13,0,1,-1,-7
50252426926,18,-4,-59,-32,-6,0,39,-18
50252433795,-1,-3,5,6,0,0,11,43
50252433795,13,5,30,7,-2,-1,-4,2
50252449467,-11,-9,-59,-16,0,-1,-5,3
50252449467,4,-5,27,11,2,1,1,-1
50252456198,-49,-2,18,-12,-7,-3,-55,-6
50252456198,1,-1,-8,1,3,1,15,3
50252472585,14,13,24,-2,-2,0,10,39
50252472585,-54,-10,57,7,-6,-5,-36,-3
50252474026,10,3,-7,-2,1,-1,0,-20
50252474026,73,13,19,6,5,4,9,3
50252486984,-58,-21,-24,-4,-5,-1,-15,39
50252486984,16,7,-17,-6,2,-1,34,-21
50252493844,26,-2,44,9,0,0,2,-62
50252493844,-19,-6,-2,-13,-3,-2,-23,-19
50252509528,28,10,-6,-11,-1,0,5,86
50252509528,-12,-10,-23,9,0,0,-1,-15
50252516345,-5,14,17,11,-1,-1,-12,-21
50252516345,-37,-24,-15,-10,2,1,4,-14
50252532585,25,6,-6,-5,-5,-1,-7,-17
50252532585,6,3,1,3,0,-2,14,64
50252534050,-29,-23,-18,0,0,-1,2,-52
50252534050,6,-3,39,5,-2,-2,-26,7
50252546768,6,3,-22,0,0,1,-4,-24
50252546768,-18,-8,57,23,5,1,-2,14
50252555069,14,-6,-64,-19,-3,-1,6,32
50252555069,-23,-4,-3,-6,-5,-2,10,-17
50252569484,24,-1,1,1,0,-2,-4,-32
50252569484,-7,4,2,8,-2,-2,25,0
50252576160,-15,15,-23,-8,0,2,8,8
50252576160,3,-8,10,-1,-6,-4,14,5
50252592617,42,7,1,-4,-2,-2,-14,-27
50252592617,12,3,-2,-13,-1,2,-3,64
50252594061,-12,-10,48,5,0,-1,20,-67
50252594061,4,2,3,13,3,-1,-37,-29
50252606974,-27,7,0,3,3,3,32,28
50252606974,37,15,3,-4,-2,-1,-23,-16
50252613711,-16,-17,-17,-10,1,-2,-11,24
50252613711,24,-10,-21,5,-3,-4,-14,17
50252629457,-62,-1,4,-6,-2,-4,-19,16
50252629457,-5,-2,-12,-1,1,2,22,-35
50252636257,25,10,24,2,-2,0,-17,51
50252636257,28,-2,-47,-6,-1,0,11,12
50252651909,-14,-4,12,14,-2,-2,-21,-7
50252651909,25,-9,-5,-3,-2,-4,-6,55
50252652753,5,-3,-10,-1,-2,-1,23,-27
50252652753,-17,-10,2,1,0,0,1,28
50252667619,-8,1,-2,-5,-3,-3,2,-25
50252667619,4,-5,-8,-10,-1,0,-27,-10
50252673823,27,11,39,14,0,-2,39,4
50252673823,-48,0,-15,-15,-4,-1,0,-23
50252690974,25,-2,12,3,1,2,41,14
50252690974,6,10,-24,1,1,-1,-3,-14
50252696070,-37,-4,2,-11,-2,0,-1,26
50252696070,-64,0,14,17,1,-2,-5,-18
50252711881,12,0,13,2,-1,0,-14,-29
50252711881,-9,-2,2,-6,2,2,-7,-73
50252712674,39,-4,-17,0,-3,-3,14,40
50252712674,-77,5,15,-11,-5,-3,-23,6
50252727642,3,-20,-33,-4,0,-1,11,-19
50252727642,-6,17,-25,-1,-3,-3,-17,30
50252733766,16,-8,-2,-1,2,0,0,-97
50252733766,25,10,16,19,1,0,1,24
50252750113,5,-2,14,-19,-6,-2,-18,-4
50252750113,34,1,-5,0,-7,-6,3,-9
50252756172,-54,-16,-12,-9,-1,0,2,28
50252756172,51,5,-43,6,3,0,44,36
50252771837,-19,1,-7,0,1,1,0,23
50252771837,38,0,12,4,-3,-2,5,-42
50252772708,43,6,31,2,1,2,-17,30
50252772708,19,12,67,3,4,1,-11,-20
50252787632,-5,-6,-46,-13,-3,-3,-23,-3
50252787632,-22,-13,3,-8,0,1,-7,56
50252793806,3,14,5,20,4,-2,-16,-60
50252793806,5,-9,6,-8,-4,-2,9,12
50252808655,13,19,59,1,0,-1,1,-8
50252808655,-18,-4,9,-1,1,1,1,6
50252816238,21,9,-18,0,-2,-4,-12,48
50252816238,-16,0,11,-6,0,0,39,-85
50252832040,4,-9,-4,4,-2,1,-13,-2
50252832040,-17,-6,-24,-6,-1,-1,29,-61
50252832528,-12,-13,22,7,1,1,20,65
50252832528,-36,7,-49,-10,1,2,-34,-8
50252847626,33,-7,23,7,-1,-2,-2,-11
50252847626,-12,-3,-24,3,1,0,10,-9
50252853772,-11,0,-10,-3,1,0,-33,-36
50252853772,4,-1,35,6,0,1,9,32
50252868803,11,1,-45,-27,-2,-1,12,-47
50252868803,1,-2,25,14,1,-1,-17,21
50252876293,19,3,27,4,1,2,-28,-25
50252876293,0,-19,-3,-3,-4,-3,33,23
50252891746,30,24,55,8,-1,-3,-20,40
50252891746,2,-5,-12,-2,1,0,11,-17
50252892631,-27,2,-31,-13,-3,-2,6,21
50252892631,28,13,6,0,-3,-3,-23,26
50252907508,-11,-6,0,8,1,1,17,-14
50252907508,-12,-4,5,-10,-2,0,-26,-5
50252913734,-23,11,3,12,3,-1,-4,-3
50252913734,11,-26,5,-10,0,3,5,18
50252928693,-1,1,-40,10,-1,-4,-2,23
50252928693,53,-2,6,-1,-2,-1,-15,-76
50252936234,-18,0,-3,-8,-3,0,-6,1
50252936234,36,13,-4,-8,-3,-3,-20,-5
50252951905,-61,-17,-7,16,3,-3,-8,-31
50252951905,-53,-21,-10,-8,-3,0,-5,68
50252952541,4,0,25,-5,-2,0,21,-31
50252952541,9,1,-22,-7,0,0,9,-69
50252967629,-1,-3,-4,4,-2,-2,-2,5
50252967629,-4,6,0,3,-1,-1,20,56
50252973673,-11,-5,-7,-5,-2,-2,-16,20
50252973673,-32,12,2,-5,-3,-2,-15,25
50252988805,20,-1,-17,-4,1,0,13,-8
50252988805,-10,4,26,10,2,-2,-3,-3
50252996206,20,4,-37,-10,-3,-2,-18,7
50252996206,0,-7,1,-17,-1,0,27,-10
50253011103,11,-17,0,14,-3,-2,-51,38
50253011103,14,1,9,-4,-1,4,43,-79
50253018580,19,-9,-13,13,1,0,4,18
50253018580,4,-5,-6,0,1,0,-17,23
50253027611,-24,3,26,-8,-1,1,8,-7
50253027611,59,9,-19,-17,-4,-3,-12,36
50253033722,1,-5,-18,-12,-4,-3,0,-12
50253033722,-1,19,-24,3,-2,-2,2,-29
50253048803,-6,-4,32,6,1,0,-18,-33
50253048803,-9,4,2,4,-1,1,0,3
50253056265,-2,-8,-19,-5,-1,-2,8,1
50253056265,-11,-18,1,15,3,-2,-25,31
50253071200,40,0,28,-1,0,2,31,22
50253071200,-68,-23,-20,-8,-3,-5,3,14
50253078710,-3,-2,14,-7,0,-1,8,-27
50253078710,-2,6,69,26,-1,0,-16,3
50253087620,-10,-4,-85,-22,-8,-3,-3,-3
50253087620,20,2,6,-4,4,1,-44,36
50253093705,-3,2,-9,0,-1,4,65,56
50253093705,7,-3,0,-3,-4,-3,8,18
50253108805,-7,5,27,2,2,1,14,-93
50253108805,-4,12,-14,-3,-4,-6,-14,21
50253116260,-52,2,0,7,2,-1,-44,-30
50253116260,25,-13,7,4,1,2,-16,4
50253131274,-5,1,-77,-15,-1,-1,-5,53
50253131274,23,5,3,-3,2,1,20,17
50253138849,-5,-6,42,6,-1,-2,-2,-27
50253138849,9,17,-38,-3,0,-1,10,-6
50253147619,0,-11,51,6,5,3,5,1
50253147619,42,-2,29,4,-3,-1,-8,-26
50253153584,-32,-7,-11,-6,-3,-5,-33,44
50253153584,-7,6,-8,-2,-2,0,13,-33
50253168727,-1,9,12,1,-3,-2,11,2
50253168727,-14,1,-3,7,5,2,-8,9
50253176246,25,0,-7,-4,-2,2,-1,49
50253176246,-6,-9,0,-17,-4,-2,1,-60
50253191219,-29,5,-2,22,4,-3,-7,0
50253191219,-10,-8,25,8,-2,0,45,31
50253198726,13,6,-65,-16,-5,-4,-34,-26
50253198726,-9,-1,3,0,0,1,-1,29
50253214360,54,6,40,-11,-3,3,-6,-51
50253214360,-87,-11,-21,5,0,-2,17,-60
50253215086,29,-5,11,-1,-1,-3,18,13
50253215086,1,-6,-44,3,0,-2,10,14
50253228680,2,2,-16,-5,1,-2,3,16
50253228680,-8,7,3,-1,-1,-1,-40,-61
50253236271,-13,13,13,4,0,2,56,20
50253236271,1,0,-23,-4,-1,-3,-14,5
50253251020,-10,-24,-11,-4,-5,-5,-21,47
50253251020,0,0,-23,-3,-1,1,-11,-33
50253258733,-4,4,0,-8,-2,-1,-12,-12
50253258733,9,9,21,17,1,-3,-2,-21
50253274348,-10,7,-16,-2,2,1,-5,3
50253274348,18,0,-6,-4,-6,-4,-12,40
50253275136,-37,-8,23,-1,-1,0,-24,-25
50253275136,-8,-5,-5,-6,0,2,7,45
50253288599,1,5,17,1,2,-1,8,8
50253288599,-6,-5,-49,-10,-4,-3,-1,-33
50253296244,20,2,40,-7,0,-3,8,3
50253296244,-14,3,-14,1,-1,1,-3,-12
50253319395,-6,-8,27,16,1,-1,1,19
50253319395,-7,8,-43,-9,-1,1,10,22
50253320069,50,-6,-10,4,-4,-6,9,38
50253320069,-3,-1,4,-7,-3,1,-1,-26
50253334343,17,6,-26,-19,-5,-1,-13,-12
50253334343,-24,-17,29,10,2,1,37,0
50253335024,-4,1,-15,-2,2,1,-25,-16
50253335024,9,4,44,12,0,-1,7,-50
50253348675,-3,3,-53,-19,-6,-3,4,-10
50253348675,8,-20,1,10,1,1,-17,-15
50253356217,-21,2,36,8,-1,1,24,16
50253356217,29,5,8,-6,1,0,-8,23
50253371224,-28,4,-23,2,0,0,5,-8
50253371224,18,6,18,1,0,-3,-30,-4
50253378675,11,-6,-51,-13,-1,0,8,-27
50253378675,38,-6,10,-7,-4,-1,-21,44
50253394361,-81,-2,-2,8,0,-1,31,-82
50253394361,74,-8,18,-2,-2,-1,3,22
50253395015,-16,2,50,10,2,1,-2,-20
50253395015,-9,0,-11,-9,-3,-4,-9,-8
50253408707,17,-3,-5,-14,-2,-1,-12,15
50253408707,-9,5,15,2,1,1,-2,40
50253416205,-19,11,-6,8,-4,-5,-15,-26
50253416205,-38,-21,-27,-5,-4,-2,34,-33
50253431187,37,7,4,-8,0,0,8,-17
50253431187,-14,9,10,10,-1,-4,12,17
50253438633,-4,-1,-23,-9,1,1,-11,2
50253438633,-14,-2,-16,-6,-2,-2,-44,6
50253454337,-2,-1,31,4,1,3,58,37
50253454337,15,-1,-7,-7,1,1,4,-15
50253455001,13,1,3,-2,-1,1,-7,-37
50253455001,9,-14,-30,-1,2,1,12,19
50253468579,-60,0,8,-2,-2,-1,-6,7
50253468579,19,-6,16,-1,-3,-3,-22,-1
50253476190,-2,7,-25,-7,-3,-1,-1,15
50253476190,-8,-12,-8,-1,2,-1,-1,-11
50253491225,29,-1,-19,9,0,-2,-19,43
50253491225,-35,-4,16,-3,0,1,11,-34
50253498563,15,-14,-39,-12,-5,-2,-19,-23
50253498563,22,11,31,4,0,0,10,-4
50253514327,-22,0,-12,-8,-1,0,-27,10
50253514327,8,6,13,9,2,0,-11,10
50253515050,3,-7,10,2,-2,0,14,-6
50253515050,-7,17,-3,10,2,0,16,-20
50253528656,20,-20,15,5,-4,-1,-9,-52
50253528656,17,3,-15,-6,-2,0,-9,32
50253536279,-75,8,33,5,-1,-3,-9,-11
50253536279,-2,-12,-1,-10,-2,-2,-11,36
50253551233,20,7,-5,4,-2,-1,-8,7
50253551233,-12,6,-6,-10,-2,0,16,19
50253558792,101,7,-12,0,2,1,3,10
50253558792,-18,-5,8,2,-5,-3,-1,36
50253574348,21,-15,-8,6,3,0,31,38
50253574348,-14,10,32,-3,-1,0,12,-93
50253575025,3,-4,1,2,1,0,2,29
50253575025,-17,-6,-6,-1,2,4,15,22
50253588522,-4,0,-7,-1,-1,-3,-43,-14
50253588522,-7,-4,-16,-9,-3,-3,10,-57
50253596254,12,-2,-5,5,0,-2,2,-11
50253596254,-34,5,-42,-12,-3,-1,5,-9
50253611242,-19,2,42,-1,-3,-2,-6,-37
50253611242,-18,-3,8,-1,0,0,18,-13
50253618733,-2,13,5,8,0,-2,-35,-14
50253618733,15,1,18,5,0,1,-10,-18
50253634308,-21,-6,-10,-8,-4,-2,-11,27
50253634308,8,-4,-4,4,0,0,-9,81
50253635098,10,-6,-25,-1,-1,-3,5,-5
50253635098,-25,-10,47,4,0,1,-23,-36
50253648790,18,9,15,-1,1,-1,17,-4
50253648790,4,-1,-2,-2,0,1,-21,28
50253656209,-26,-4,14,7,0,-1,-1,30
50253656209,6,-2,4,0,-3,-2,31,26
50253671229,24,4,1,-5,1,2,9,14
50253671229,-2,-8,-21,2,0,1,2,-2
50253678784,-3,-3,20,4,2,1,2,-2
50253678784,-3,7,21,-3,-1,-1,12,-16
50253694269,26,5,-21,-8,-1,0,4,-9
50253694269,-23,-23,1,-9,-5,-5,0,34
50253695116,17,8,43,12,2,-1,13,-15
50253695116,-24,-2,-27,-1,1,-1,4,1
50253708665,-22,-4,-3,1,2,2,-6,-9
50253708665,-20,0,18,1,-6,-4,-19,-10
50253716287,5,-10,-30,-21,-5,-3,-6,69
50253716287,3,3,-6,10,3,2,-7,-38
50253731119,23,8,44,-4,0,-1,7,11
50253731119,-4,-2,-79,-7,-1,2,13,-16
50253738750,-3,-8,13,-2,0,1,-6,46
50253738750,6,12,-7,-2,-2,-2,25,-22
50253754423,-7,5,13,16,2,-1,-12,-1
50253754423,5,5,8,0,-3,-1,-4,-11
50253755008,-41,-9,-51,-23,-2,1,22,-7
50253755008,22,-3,5,-2,-3,-5,-11,11
50253768748,-8,-4,-8,-2,-3,-2,-14,21
50253768748,21,5,16,0,1,2,1,-20
50253776230,18,4,-7,-1,1,-1,25,-29
50253776230,-14,-6,17,-4,-3,-4,-31,28
50253791266,-27,-12,-27,-1,-4,-2,3,21
50253791266,25,4,-14,-8,-2,0,26,-59
50253798580,-40,-7,37,22,2,0,-31,48
50253798580,23,-2,-52,-11,1,1,-3,19
50253814305,19,6,95,28,0,2,12,-22
50253814305,-9,-14,-51,-31,-4,-6,6,48
50253815093,3,1,-12,-2,-1,-1,11,-18
50253815093,-8,1,15,4,1,2,11,16
50253828676,-6,3,12,-6,-2,-2,-12,-13
50253828676,-8,0,5,11,1,1,-1,26
50253836200,45,0,2,2,-3,-1,-2,-54
50253836200,-14,-3,-10,-2,0,0,-1,9
50253851240,-3,-7,-53,-6,0,-2,-60,-22
50253851240,-24,12,41,1,1,0,6,8
50253858748,33,-10,-18,-3,-1,-2,-3,-13
50253858748,-5,-2,-10,-2,-1,0,-14,18
50253874443,9,1,11,-7,0,0,6,-48
50253874443,44,5,-2,17,0,-2,4,-3
50253875002,-71,-2,6,-2,-2,-1,-18,-21
50253875002,36,2,28,8,-2,-1,-9,100
50253888738,-9,-8,-51,-20,-2,-1,13,-16
50253888738,-5,0,5,2,-2,-1,8,31
50253896088,-1,-12,1,4,-2,-2,15,8
50253896088,10,9,-17,1,2,-4,-45,-61
50253911070,-34,-11,9,-3,0,-3,10,28
50253911070,-29,-10,7,7,0,-1,-3,-16
50253918655,-33,10,-12,-2,-2,-2,-4,7
50253918655,-10,-9,5,-7,-4,-3,-10,-30
50253942604,25,10,-22,-9,-4,-1,38,3
50253942604,4,4,-20,0,-4,-6,-34,-49
50253943162,21,15,33,7,0,2,-4,48
50253943162,-15,-6,5,-13,0,0,13,-71
50253948739,-16,-7,-7,11,2,0,0,-49
50253948739,36,2,-2,-1,-2,1,15,29
50253956197,8,10,4,-3,0,-2,-5,2
50253956197,-5,2,-9,-3,-6,-2,11,-16
50253971233,6,-8,22,4,0,-2,-9,35
50253971233,33,-1,1,-4,0,-2,11,-13
50253978714,-9,-5,1,7,3,1,9,-7
50253978714,20,2,-8,-5,-2,1,-3,15
50253993701,-55,-13,0,-4,-1,-2,14,12
50253993701,-48,0,8,5,0,-1,-26,11
50254001716,22,-14,-10,-1,2,1,18,-19
50254001716,-6,3,4,-3,-1,-1,-3,-6
50254008744,30,8,0,-2,0,-1,-25,51
50254008744,6,10,4,-3,-1,0,-18,40
50254016168,-49,-12,-18,-8,1,-1,10,-85
50254016168,11,7,21,19,0,-2,11,29
50254031254,5,-21,-95,-24,-6,-5,-2,11
50254031254,48,-6,69,5,3,1,-3,13
50254046911,-27,1,13,0,-4,-5,-33,11
50254046911,-17,-5,18,8,1,1,-3,10
50254053597,9,16,-32,-5,-2,-1,26,-79
50254053597,-49,-10,-4,-1,-2,0,5,0
50254061885,80,8,-18,-2,-4,0,7,2
50254061885,-71,-11,0,7,4,0,8,8
50254068830,12,8,8,-14,-5,-3,-25,29
50254068830,2,6,0,9,4,1,1,-19
50254076212,-17,-6,23,-5,0,0,7,16
50254076212,7,-5,-19,-2,-5,-4,-5,-16
50254091242,18,6,10,2,0,2,-6,49
50254091242,-20,2,32,14,4,2,24,-29
50254098668,-6,-18,-89,-24,-5,-2,-27,33
50254098668,47,8,5,-8,1,2,32,-2
50254113691,-19,-1,25,10,2,3,-21,2
50254113691,-7,-18,13,1,-2,1,26,41
50254121931,15,6,5,9,-2,-1,0,1
50254121931,-33,3,-6,-9,-5,-3,-12,-23
50254128724,7,-2,11,2,1,-2,5,9
50254128724,-1,3,-12,8,6,0,-27,52
50254136176,8,0,6,-13,-4,0,23,-58
50254136176,-37,15,41,12,-2,-5,-30,4
50254151181,16,-7,37,8,0,0,6,-5
50254151181,-33,-6,-25,-12,-2,-3,-12,-35
50254158673,-9,-5,10,-3,-2,-2,7,28
50254158673,24,3,-18,-6,3,-1,-23,9
50254173527,-6,1,3,4,-6,-5,-18,10
50254173527,-22,3,-50,-20,-2,-2,19,-15
50254181784,11,0,13,9,4,-1,-36,62
50254181784,34,-4,16,-14,-3,-3,13,-40
50254196695,-8,3,5,4,1,1,3,-20
50254196695,-19,-1,-2,2,-2,0,14,1
50254197642,90,2,16,19,6,2,-13,-5
50254197642,-52,-16,-15,3,0,1,-11,7
50254219283,13,-3,-10,-14,-4,-4,17,-22
50254219283,15,9,-8,-7,0,2,8,-18
50254219958,-16,-5,40,16,-2,-1,17,38
50254219958,13,-6,-18,-2,0,1,-3,-31
50254233556,-3,8,15,4,2,2,16,26
50254233556,-5,-15,-16,-10,-1,0,5,-56
50254241837,8,-21,-16,-6,-3,-2,-10,1
50254241837,-51,-13,-36,-9,-1,-1,47,-9
50254256831,-5,2,-6,12,2,-3,-9,-22
50254256831,23,8,1,-5,-3,-3,-55,81
50254257450,-38,-11,5,2,5,3,-3,-70
50254257450,42,8,-7,-16,-6,-2,17,22
50254271188,16,-6,-6,0,-3,-3,-17,-30
50254271188,-100,-10,-5,0,-4,-6,-17,-2
50254278658,-3,3,-5,-5,-2,-1,17,-30
50254278658,10,5,26,7,2,1,-17,64
50254293684,8,3,-48,-3,2,0,-2,7
50254293684,30,-3,14,-7,-1,-2,17,-57
50254301719,-56,8,38,5,-1,-2,11,-14
50254301719,26,-2,-38,-4,-1,0,-28,-1
50254316805,31,-8,-13,-11,-1,3,19,56
50254316805,7,-3,-16,13,3,2,-3,12
50254317516,7,6,33,3,-6,-4,-30,23
50254317516,7,4,16,7,2,-1,45,-64
50254331201,-10,2,8,-4,0,2,7,-28
50254331201,19,-5,-51,-17,-5,-2,4,9
50254338691,-39,-5,-1,-1,-2,-2,-14,7
50254338691,-1,1,-10,-8,-4,1,-3,34
50254353666,9,0,33,13,4,-1,-1,-18
50254353666,43,11,10,4,1,1,-1,-7
50254361819,7,29,27,-7,-1,-2,25,9
50254361819,-25,-20,25,-4,0,-3,-22,-2
50254376879,-26,1,19,13,-1,-1,-15,-3
50254376879,34,-3,35,4,-2,0,16,12
50254377528,34,-3,-25,-6,-1,-2,13,-66
50254377528,10,4,-8,0,0,1,47,47
50254391165,27,0,24,-3,-4,-3,-11,29
50254391165,16,-7,-43,-5,-6,-5,-23,-17
50254398663,-43,1,9,-4,1,0,-7,-9
50254398663,-42,-10,-7,7,3,1,-11,1
50254413765,-19,0,-12,-4,-2,-1,8,-18
50254413765,27,-1,5,5,-5,-3,-11,-34
50254421897,38,5,-13,-14,-7,-2,4,15
50254421897,17,-9,-16,1,0,1,-1,-5
50254436755,-29,2,19,4,-2,-1,25,18
50254436755,-14,-4,18,1,2,-1,-7,-8
50254437468,21,2,-29,1,1,-1,5,21
50254437468,7,7,26,0,-2,-1,-16,-26
50254451162,-32,2,13,-1,-3,-5,2,4
50254451162,5,-4,-15,-2,1,2,-14,48
50254458634,1,0,26,-1,1,2,20,-30
50254458634,-7,-2,13,5,-2,-4,-19,-28
50254473678,3,0,-69,-19,1,3,25,29
50254473678,-18,9,3,-13,-5,-2,-15,-3
50254481887,-13,-11,-5,0,-1,-2,7,10
50254481887,34,5,-12,16,4,-1,-19,2
50254496679,11,-3,-39,-14,-1,2,0,-17
50254496679,-28,2,28,7,2,-2,-2,-12
50254497604,13,1,-10,-11,-3,1,2,33
50254497604,18,1,31,-4,-1,-1,-19,58
50254511207,-6,-9,-3,11,0,0,43,-18
50254511207,17,3,7,-2,-3,-2,38,-37
50254518564,-25,-15,13,6,-1,-2,-37,-13
50254518564,-5,3,9,1,-1,0,9,20
50254533754,14,-1,29,7,1,1,-18,-10
50254533754,15,-7,-59,-13,-4,-2,-9,8
50254541868,-47,-5,27,12,0,-2,-3,50
50254541868,-13,-3,5,-1,1,1,10,-66
50254556808,13,-8,-46,-12,-3,-4,-1,6
50254556808,-6,8,11,4,-1,-1,-9,-4
50254557504,17,7,1,-2,0,1,-1,7
50254557504,42,-5,-19,0,-4,0,5,6
50254571215,-87,1,0,-1,-1,-3,-24,-36
50254571215,32,-9,30,6,-1,-1,37,86
50254578721,2,11,-17,-2,3,0,1,-26
50254578721,-6,-1,13,-6,-1,-2,-28,34
50254593718,28,-7,-50,-9,-4,-1,-19,-25
50254593718,-30,6,28,13,2,1,0,-2
50254601665,28,-9,-44,-14,0,0,9,-11
50254601665,-33,7,-13,-6,-6,-6,0,-4
50254616849,-29,-4,33,8,4,2,-25,13
50254616849,17,5,-44,-9,0,-1,-29,35
50254617527,-13,-7,-22,-5,-3,0,18,-37
50254617527,25,9,5,-2,4,2,-6,-26
50254631175,39,6,17,-3,-4,-1,20,7
50254631175,-79,-15,12,2,1,3,0,10
50254638644,22,3,-13,0,-1,-2,22,4
50254638644,-3,-2,-31,-10,-5,-5,-4,51
50254653663,7,-1,59,11,-2,-1,24,-93
50254653663,-25,2,31,3,0,-2,-18,-39
50254661910,65,-5,-16,1,-3,-2,-14,15
50254661910,-75,-11,-17,-10,0,1,-20,-21
50254676883,18,-1,2,5,0,-1,13,36
50254676883,59,12,47,15,1,-1,-8,-25
50254677467,-96,-14,-48,-17,-4,-4,-26,-30
50254677467,31,-2,8,2,-1,-1,-4,45
50254691127,3,1,-6,0,1,0,-13,-18
50254691127,11,-5,-19,-10,-2,0,16,-65
50254698670,-28,7,37,4,0,-2,17,45
50254698670,9,-12,-22,2,-1,-5,13,-5
50254713667,11,4,-7,-18,0,0,-20,38
50254713667,18,2,-8,3,-3,-2,30,15
50254721883,6,4,-5,14,6,2,-2,-16
50254721883,-39,2,14,0,-3,-3,-12,-29
50254736848,59,1,-2,-4,-1,-1,-21,20
50254736848,-17,-2,4,-5,-2,0,7,18
50254737417,27,-1,-4,-8,-2,0,-36,-16
50254737417,-14,1,38,14,0,0,42,3
50254751173,-29,-5,-34,-2,-5,-2,-20,-1
50254751173,45,-3,1,-10,-1,-2,-32,-5
50254758747,-2,-3,-2,2,-3,1,-31,-2
50254758747,23,2,20,-2,1,1,19,-9
50254773506,-11,-5,-11,-3,-4,-4,-10,-6
50254773506,-40,-6,-27,3,1,-2,2,-68
50254781856,4,15,44,8,3,-1,35,-27
50254781856,14,-3,-45,-14,-2,0,6,-42
50254796867,35,2,63,16,0,0,2,23
50254796867,-50,-8,9,9,1,-1,-7,14
50254797413,11,12,-31,-20,-1,1,-10,45
50254797413,0,-18,-17,-8,-4,-2,21,2
50254811222,-52,-2,1,6,0,-2,-10,18
50254811222,14,5,2,-3,1,1,5,13
50254818667,-8,-5,4,1,-3,-2,-3,7
50254818667,39,-1,-1,-1,1,0,-18,-14
50254833683,7,-1,-1,-1,-2,0,22,16
50254833683,-7,-2,-2,-1,0,0,-16,10
50254841871,-1,2,29,3,1,-2,-9,-2
50254841871,3,-2,-24,-7,-6,-3,-23,26
50254856764,-9,-12,-34,-8,0,-1,29,-121
50254856764,4,17,44,6,1,1,4,22
50254857524,10,-18,-33,-5,-3,-2,20,10
50254857524,3,8,11,0,2,3,32,-9
50254871231,-4,-2,5,7,1,0,-45,37
50254871231,11,-4,-9,-16,-4,-2,23,-44
50254878714,-59,-5,-17,-2,-1,-1,-9,-43
50254878714,20,-1,24,5,1,-4,-1,33
50254893679,19,7,-6,10,1,-1,8,-46
50254893679,-8,-6,8,-6,-4,-2,7,19
50254901655,-7,-4,-6,6,-3,-1,-3,6
50254901655,13,6,-2,-1,-1,2,-8,-37
50254916091,-39,-6,-1,-4,0,-4,-10,41
50254916091,41,7,-2,0,-2,-3,-12,14
50254924332,2,0,28,2,0,-1,-13,-43
50254924332,-5,0,4,14,3,4,54,91
50254931210,27,3,-19,-11,-4,-1,3,-8
50254931210,-104,-16,-14,5,0,2,-30,-8
50254938690,55,-9,-44,-14,-1,-1,4,-9
50254938690,-7,4,33,5,-5,-6,-22,16
50254953544,-2,2,40,5,2,1,3,5
50254953544,1,-2,-35,-7,0,0,7,35
50254961777,37,-5,-18,3,-3,-3,-8,-23
50254961777,-25,-3,37,-4,-3,-1,-26,-24
50254976206,3,4,-15,-5,-1,2,48,16
50254976206,21,3,-5,7,3,-2,-15,-3
50254984336,1,0,-11,-2,0,0,19,15
50254984336,-8,4,-28,-3,1,0,-6,-21
50254991147,19,-4,-12,-8,-2,-4,-4,11
50254991147,22,-1,5,0,0,0,16,-2
50254998649,-85,-8,8,0,-2,-1,-18,3
50254998649,0,6,55,11,3,2,-31,-107
50255013616,19,-12,-50,-18,-5,-1,-24,41
50255013616,44,-5,1,3,-2,-1,12,31
50255021906,15,9,-8,-10,-3,-3,4,13
50255021906,-24,0,-6,0,-1,0,-1,-37
50255036178,0,0,59,16,2,-1,-19,-11
50255036178,7,1,-6,8,1,0,-2,4
50255044227,37,1,-10,-16,-1,0,9,34
50255044227,-14,2,-41,6,1,-4,-11,10
50255051158,-5,-5,-12,-11,-2,3,-4,-35
50255051158,9,6,37,4,-3,-2,6,18
50255058602,-40,-8,-29,-1,-1,1,11,-20
50255058602,41,7,43,10,0,3,9,21
50255073658,-14,1,-38,-11,-5,-5,-26,56
50255073658,-7,0,2,-5,-1,-3,-6,-44
50255081879,-17,-1,32,0,-3,-1,4,73
50255081879,27,-8,-49,-3,1,0,1,-37
50255096196,9,13,46,24,2,1,9,22
50255096196,-18,-16,-48,-22,-5,-2,-6,3
50255104412,8,6,14,10,1,-2,-23,-9
50255104412,8,-7,-24,-14,-2,0,38,22
50255119223,12,1,11,-4,-1,0,4,-23
50255119223,-10,3,-3,-1,-2,-2,-29,0
50255119929,-29,-16,25,8,0,-1,-5,-20
50255119929,7,-3,12,-7,-4,0,-15,-2
50255133756,21,2,-35,-9,3,3,14,12
50255133756,-22,-3,54,11,-1,1,16,-9
50255141825,31,11,26,2,0,-2,-17,24
50255141825,-22,-4,-8,-4,-1,0,41,-34
50255156173,-2,0,27,0,-1,-1,-5,-5
50255156173,-3,-2,-25,-3,-2,-2,-10,24
50255164306,10,6,10,8,0,0,11,13
50255164306,-10,-5,-16,-4,0,-1,-7,9
50255179114,-25,0,11,3,-2,-3,18,-15
50255179114,43,2,-1,-4,-2,-3,5,-16
50255179971,-3,-9,-30,0,0,2,8,-32
50255179971,-18,-7,-2,-10,-5,-3,-17,28
50255193639,-3,-2,-9,-1,-1,-2,21,-21
50255193639,-29,11,12,9,2,-1,-10,21
50255201702,98,3,-16,-8,-1,-1,11,-15
50255201702,-61,-10,-20,2,0,0,7,17
50255216165,-21,3,14,-5,1,5,19,4
50255216165,23,-2,-23,-13,-7,-4,4,-11
50255224241,-19,0,-3,-1,0,0,3,-18
50255224241,15,2,-2,9,1,-4,-16,-10
50255239337,-13,2,35,15,3,0,-2,-17
50255239337,-20,-10,-33,-16,0,0,-1,55
50255239969,51,6,7,-4,-5,-2,-9,-4
50255239969,-29,-9,-6,-9,-5,-4,0,1
50255253494,-1,-6,8,5,-2,-1,-11,-7
50255253494,1,5,19,0,3,1,31,-7
50255261862,-20,-12,9,2,0,-1,40,25
50255261862,-8,14,-18,7,0,-2,-48,-4
50255276142,20,0,24,0,0,-2,15,-1
50255276142,-21,0,-1,2,-1,-2,-2,-7
50255284220,-17,1,2,-2,-3,-2,-3,-14
50255284220,19,-1,-27,-8,-1,2,-9,-24
50255299343,-50,-15,-29,-7,-3,-4,-15,1
50255299343,44,4,13,4,2,4,14,17
50255299936,-82,-2,-11,4,0,-2,-19,18
50255299936,21,7,43,-1,-2,-1,-9,-11
50255313633,49,2,1,0,-1,-2,-22,14
50255313633,-15,-14,-24,-4,-1,0,-6,-18
50255329169,12,4,5,-2,-1,-1,-13,-41
50255329169,7,3,-21,-2,0,0,15,11
50255336185,24,6,77,10,0,-1,14,8
50255336185,-19,-15,-86,-15,-3,-1,-19,-14
50255344324,-2,5,35,6,1,3,23,-8
50255344324,23,7,-5,-6,-4,-2,-37,-15
50255359186,-4,-6,-29,-6,0,2,28,26
50255359186,-6,-1,38,0,0,-1,1,-13
50255359949,2,-5,16,12,-5,-3,-1,8
50255359949,20,0,4,8,5,1,-2,-7
50255373581,-24,-8,-32,-11,-5,-1,-34,-11
50255373581,-18,4,4,0,0,0,-2,-11
50255381791,2,4,-26,-11,-2,0,3,58
50255381791,-1,2,40,7,-2,-1,-5,5
50255396051,-31,-7,-57,-4,-1,-4,-28,10
50255396051,-9,3,-3,5,-1,-2,-2,-92
50255404339,17,-3,-52,-23,-3,-3,2,10
50255404339,3,-1,-9,-2,1,-1,11,24
50255419163,28,8,-1,4,0,0,18,0
50255419163,-23,-6,12,-1,0,1,-16,33
50255420126,33,1,19,6,-4,-5,-20,-68
50255420126,-2,-12,-9,0,-2,-1,37,75
50255433656,11,0,-17,-10,-5,-3,-25,-28
50255433656,13,-1,18,7,-1,0,-1,18
50255441834,-21,-6,1,-2,0,2,-9,42
50255441834,-5,2,3,-4,-1,-1,16,-53
50255456159,45,4,19,6,-1,-1,-2,-1
50255456159,-56,-9,48,0,-4,-4,17,-11
50255464975,-24,-7,-45,0,1,1,-6,-18
50255464975,13,-3,-16,-12,-2,-3,-18,-12
50255478677,-22,-8,-22,3,-2,0,-15,-4
50255478677,40,10,51,5,-1,0,36,20
50255487476,-36,-4,27,-2,-1,-1,2,-27
50255487476,-17,-8,4,0,-1,-1,-3,28
50255493655,-12,7,8,1,-1,-1,-2,3
50255493655,18,1,-33,-1,1,1,-29,-78
50255502437,15,15,29,5,-1,0,30,25
50255502437,6,-6,7,-2,-3,-1,16,-15
50255516171,-19,-3,-16,-5,0,-1,15,9
50255516171,10,0,-2,9,-1,-1,-18,9
50255525002,-7,-8,-22,-1,1,0,-1,41
50255525002,22,2,2,-7,-4,-1,-2,-17
50255539108,-10,-4,34,8,0,-3,11,2
50255539108,1,-3,-62,-7,-4,-1,6,32
50255547512,-9,-5,14,-10,-1,0,-8,-12
50255547512,33,10,-17,-1,1,0,-48,34
50255553671,-43,-10,15,-6,-2,0,18,-28
50255553671,23,-4,-2,0,0,1,-11,37
50255562513,2,4,0,11,3,-1,-6,-13
50255562513,8,9,34,5,-1,0,0,-20
50255576038,-40,-14,-70,-18,-4,-4,-6,6
50255576038,-9,-2,5,-5,1,3,-15,-13
50255584972,34,6,23,1,-1,-1,-21,9
50255584972,-8,2,-15,-1,-3,-1,8,-46
50255607485,-31,8,2,8,5,3,48,35
50255607485,13,-6,41,-4,-4,-2,1,3
50255608929,-8,-8,-58,-5,1,0,-22,9
50255608929,-20,-3,8,1,-1,-1,36,65
50255613681,17,4,-1,2,0,0,-3,-26
50255613681,-44,-11,-12,-9,-4,-4,-5,-4
50255622453,-6,3,27,7,0,2,16,-6
50255622453,-46,-2,-21,-5,0,0,-18,9
50255636228,45,1,-15,-4,-2,-2,-13,-1
50255636228,15,9,-22,-4,0,0,15,8
50255644943,0,-2,8,3,-3,-3,-38,-9
50255644943,-22,-8,6,6,2,1,12,-6
50255658697,5,3,-13,-3,-1,-1,-21,-8
50255658697,-4,7,6,-1,-1,-2,17,13
50255667422,31,-3,17,5,-3,-2,-5,-33
50255667422,7,-1,10,3,2,2,36,48
50255673677,8,8,3,-2,-3,-5,-34,-13
50255673677,19,2,23,2,-1,0,-34,-13
50255682473,21,2,-6,1,3,4,34,18
50255682473,-15,-3,10,2,-1,0,9,-87
50255696079,19,-3,16,0,-2,1,14,-59
50255696079,14,8,0,8,3,1,-5,20
50255704940,-32,0,37,7,1,0,16,11
50255704940,35,-4,-71,-16,-6,-5,-23,-12
50255718571,-42,-13,8,-3,0,-1,6,23
50255718571,5,4,-14,2,-2,-2,36,-19
50255727425,34,-5,29,3,0,-1,-4,1
50255727425,-60,7,16,-1,-1,-3,-14,22
50255733663,57,1,9,-1,0,1,-18,1
50255733663,-11,-6,-22,-4,-1,0,1,4
50255742432,27,4,-46,-20,-4,-1,-9,-7
50255742432,-30,-10,14,4,-1,1,45,26
50255756138,11,-3,-14,1,0,0,10,-11
50255756138,-11,-2,15,-1,1,-1,6,6
50255764927,-10,1,-12,-1,-1,-2,19,-25
50255764927,29,0,19,0,-1,-3,-14,-103
50255778644,-22,0,-9,-2,1,-1,-12,22
50255778644,16,-3,-12,1,1,-1,-14,20
50255787473,-27,2,30,4,0,0,-23,3
50255787473,21,-9,-16,1,0,1,3,21
50255793662,-8,7,27,6,-1,0,2,-16
50255793662,8,-4,-5,-1,-1,1,-13,-21
50255802411,-26,-2,-18,-6,1,-1,-7,16
50255802411,-10,3,6,1,-2,-2,-11,29
50255816134,-31,-8,-8,-4,-4,-4,-9,7
50255816134,-5,4,35,4,-2,1,-6,11
50255824972,2,-4,-67,-6,-4,-1,4,-8
50255824972,8,-1,-8,-3,-1,-1,-5,8
50255838651,-5,-1,-1,-1,0,-2,4,9
50255838651,-6,-1,-2,1,-1,-1,3,-19
50255847481,-32,-3,61,3,-5,-2,43,-59
50255847481,-5,-8,-31,-9,-1,0,-22,19
50255853679,25,1,-20,-1,3,3,-12,5
50255853679,-10,-6,45,14,-1,-2,-13,14
50255862484,-4,-4,-68,1,-1,-2,3,4
50255862484,-23,0,2,-8,-1,0,-16,-13
50255876163,90,4,-5,-7,-2,-1,-21,30
50255876163,-41,1,-8,-2,0,1,20,-53
50255885032,-34,-14,-8,-4,0,-2,-34,17
50255885032,9,10,45,20,-1,1,16,9
50255898641,-16,-11,-23,-16,-6,-4,-5,-4
50255898641,31,8,13,-4,1,-1,-5,15
50255907452,-34,-12,17,1,-1,-3,-12,-7
50255907452,19,3,-13,-2,2,-2,1,-42
50255913612,-15,-3,28,9,1,2,-17,-11
50255913612,0,-2,-15,-4,-3,0,6,9
50255922453,8,11,40,5,0,-2,1,55
50255922453,15,-4,-42,-12,-2,2,-10,-27
50255936114,-1,-7,-12,-10,-7,-3,35,1
50255936114,18,-1,-13,-4,1,0,-11,15
50255944950,19,-5,-19,-2,-2,-3,-5,9
50255944950,-19,-4,18,1,-1,-1,-8,42
50255959157,-4,5,-6,-3,1,0,18,-16
50255959157,9,-1,4,7,4,-1,-5,3
50255966143,32,3,-43,25,-4,1,6,-20
50255966143,4,-2,23,15,-2,-1,10,15
50255973599,-8,0,35,2,1,1,5,-13
50255973599,-21,-5,-43,-15,-6,-4,-18,43
50255988615,-4,5,33,-1,4,1,12,-36
50255988615,20,1,-32,6,1,-4,-5,-31
50255996261,-15,2,21,24,1,-1,-17,11
50255996261,-24,-6,-7,2,-2,0,9,1
50256004979,10,7,4,2,4,1,-51,2
50256004979,4,-8,8,-17,-5,-1,19,30
50256019343,34,2,-45,-10,-3,-2,17,-84
50256019343,-88,0,21,3,-2,-2,-19,11
50256026097,20,-10,-21,-15,-2,1,24,6
50256026097,-12,-2,18,-10,2,2,-19,-15
50256042376,-2,3,-2,3,2,1,11,52
50256042376,18,13,13,5,-4,-1,-6,21
50256043939,-17,-12,14,-4,0,-2,20,-19
50256043939,4,7,10,9,2,0,-34,17
50256056205,14,6,-13,-4,1,2,1,-16
50256056205,24,-1,-11,5,3,1,16,3
50256064913,14,12,17,-15,-1,-1,-17,-17
50256064913,-2,-8,27,11,-3,-2,-14,49
50256079265,-7,-1,25,-5,-3,-1,19,-28
50256079265,-43,-16,-62,-15,-6,-5,6,-26
50256086086,-46,-1,-7,2,-3,0,-9,52
50256086086,33,3,-13,-7,-4,-6,24,-73
50256102461,-12,3,49,12,2,0,-5,51
50256102461,27,-5,-29,-15,-2,0,4,-20
50256103901,10,-3,23,-3,-3,-4,19,24
50256103901,-28,2,8,6,0,-1,-6,11
50256116122,-23,-7,1,-7,-1,-3,-5,18
50256116122,46,0,21,0,-1,0,14,-14
50256124988,-40,-6,-10,-8,-2,0,-10,-19
50256124988,4,-5,-41,-2,-1,0,-13,12
50256139300,-4,-1,-26,-5,-2,-3,-9,-18
50256139300,-3,-5,4,5,-3,-3,43,22
50256146222,26,3,12,-1,1,-1,1,-3
50256146222,-7,-14,0,-7,-2,-1,15,-10
50256162960,-56,4,15,10,3,0,-13,46
50256162960,23,0,-48,-21,-2,1,-7,-44
50256164381,6,7,14,8,-3,-4,9,42
50256164381,0,-6,-13,-13,-1,-1,18,-2
50256175903,16,2,10,-3,-3,-1,-8,8
50256175903,-2,3,29,8,1,-3,-26,25
50256184950,7,1,-4,-2,0,-1,13,-78
50256184950,-19,-13,-24,12,5,1,-24,8
50256199289,19,-6,4,-5,-5,-2,-11,-27
50256199289,-8,8,19,4,1,-2,-48,7
50256206038,51,6,-14,-9,-2,0,21,-2
50256206038,-29,0,49,2,-1,-2,-6,-5
50256222459,2,8,-36,-5,-5,-3,0,-9
50256222459,44,-5,20,8,1,1,-13,-21
50256223910,6,4,-17,0,0,-3,5,8
50256223910,-5,8,-1,0,1,4,-2,16
50256236180,-1,7,69,15,6,5,6,-42
50256236180,-13,-14,-88,-20,-5,-5,-33,-10
50256244917,-31,-9,16,3,-4,-3,-24,-29
50256244917,18,0,-32,-10,-3,0,14,120
50256259184,-1,-4,1,-2,-2,-3,27,-42
50256259184,-11,-1,31,7,-1,0,1,4
50256266139,-18,-4,-3,-1,-3,-3,-4,-28
50256266139,7,-5,-29,-14,-4,-3,-18,-26
50256282447,-12,-5,-18,4,0,0,16,48
50256282447,20,7,17,17,3,-1,6,-3
50256283922,31,3,10,3,-3,-3,-21,4
50256283922,-3,2,-18,-10,-2,-1,6,-23
50256296100,-1,-5,-21,-11,-2,-1,-16,1
50256296100,3,2,15,-2,0,2,29,-2
50256304958,-23,4,6,6,2,1,12,8
50256304958,23,-2,2,-5,-3,-1,2,-32
50256319304,19,-6,-31,-4,-4,-4,-9,12
50256319304,-8,-1,-10,8,0,-1,8,9
50256326117,-40,-8,23,-13,-1,-1,-8,7
50256326117,14,8,-3,3,1,1,9,-27
50256342455,-43,2,52,5,-1,-1,-3,0
50256342455,-8,-11,-24,-5,-3,-1,-25,-14
50256343903,15,-1,-22,3,-2,3,-4,-19
50256343903,-13,-7,6,-4,0,0,37,62
50256356095,20,-11,4,-2,-2,0,-37,-63
50256356095,46,12,-5,-5,-3,-4,7,30
50256364907,1,2,9,1,2,0,-4,-45
50256364907,-13,-1,-3,8,0,-4,-13,3
50256379366,6,4,-34,8,1,0,7,23
50256379366,-10,-14,-33,-27,-6,-4,-10,-44
50256386080,5,-1,-2,5,-3,-1,-4,61
50256386080,-2,1,47,2,0,-1,21,-32
50256402305,-20,-1,-16,-6,1,0,18,1
50256402305,44,2,36,10,1,2,6,39
50256403919,-13,-5,-23,-10,-1,2,18,17
50256403919,-10,-2,12,6,-3,-5,-17,-24
50256416064,1,-1,13,-1,0,-1,3,21
50256416064,-17,4,37,9,1,1,36,48
50256424964,22,6,-14,-4,-1,-2,-14,-30
50256424964,0,0,31,10,1,1,20,34
50256439282,7,-3,-22,-12,1,-1,-14,13
50256439282,-53,-5,5,-4,-1,0,-23,-39
50256446087,-2,-7,-19,0,-1,-1,30,-63
50256446087,20,5,1,3,-2,-2,-27,5
50256462429,-4,3,-1,-11,-4,-4,11,-44
50256462429,-53,-4,22,1,2,1,45,-17
50256463903,18,-4,7,9,0,0,-22,52
50256463903,21,1,19,-9,-1,-1,-19,-16
50256476140,12,6,-8,12,0,-1,0,-66
50256476140,-20,-5,-13,-7,-4,-2,-9,5
50256484900,54,1,-7,2,3,1,-17,6
50256484900,-20,10,-19,-6,-2,-2,-1,4
50256499118,16,1,28,0,-4,0,2,64
50256499118,8,0,0,12,2,-1,-3,-28
50256506139,-37,5,-8,-15,-3,-5,-16,-2
50256506139,26,-2,-43,-7,3,5,10,29
50256522453,-9,0,17,6,-1,-1,-21,-2
50256522453,1,12,81,6,3,3,1,-4
50256523879,-33,-9,-17,-9,-5,-2,-26,18
50256523879,-3,4,20,0,1,1,5,-68
50256536126,37,-13,-57,-8,1,0,-34,10
50256536126,-65,-1,37,2,-3,-2,-10,23
50256544939,47,8,32,17,-1,-5,-6,-6
50256544939,-41,-6,-29,-14,-2,-2,3,0
50256559264,-13,2,12,7,3,2,-18,1
50256559264,30,-1,-24,-20,-4,-2,17,32
50256566074,25,-3,-9,-3,-1,-1,10,-15
50256566074,-6,-5,14,7,-1,-1,-9,7
50256582471,-8,-3,-29,-15,-5,-5,27,18
50256582471,9,-1,-3,2,-1,-2,-35,9
50256583904,20,-1,-11,8,-1,0,4,23
50256583904,-54,-7,-34,-16,-2,-2,-21,-9
50256596168,8,1,0,15,2,1,4,-19
50256596168,52,9,5,5,-2,2,27,13
50256604894,-22,-16,13,-50,-4,-1,2,3
50256604894,4,7,12,9,-4,-3,-11,-9
50256619170,21,-6,-13,2,2,2,-17,2
50256619170,36,10,6,11,-2,-2,5,-3
50256626143,-60,-7,2,3,0,-1,12,10
50256626143,-3,-2,7,-3,-2,-2,2,55
50256642438,5,-3,7,0,-1,0,-29,-7
50256642438,7,1,13,6,3,-2,14,-14
50256643849,-33,-1,-12,2,-1,0,-17,0
50256643849,12,-9,-31,-12,-1,-2,-5,2
50256664968,25,0,17,5,-4,-3,9,7
50256664968,-16,-11,-35,-5,0,-1,-24,-41
50256666385,-34,5,13,10,1,0,-3,21
50256666385,11,0,-2,2,-1,2,-5,-37
50256679296,28,6,3,-6,-2,-3,-3,24
50256679296,-29,-14,-49,-17,-2,-2,44,21
50256686123,25,10,20,10,3,0,-12,-10
50256686123,-10,-6,-2,-2,-1,-1,-3,-25
50256702316,-27,-7,40,-3,2,1,17,-9
50256702316,12,-7,-56,-6,-2,0,3,7
50256703874,18,7,51,24,-4,-2,25,15
50256703874,56,-6,-88,-26,0,-2,-16,32
50256716680,-62,-6,30,-3,-3,-1,6,-65
50256716680,20,8,14,2,-2,-6,-29,-18
50256724954,-15,-4,-1,5,1,-2,-1,-34
50256724954,32,7,24,9,0,1,34,-55
50256739226,-25,0,-10,-4,-1,0,18,-6
50256739226,-35,-8,3,-3,-4,-2,-35,-23
50256746108,61,9,-29,-6,-1,-1,6,24
50256746108,-32,-7,47,9,-4,-6,2,4
50256762522,-23,-1,-18,1,2,1,26,13
50256762522,8,6,27,5,2,1,-9,4
50256763928,11,-5,-24,-2,0,2,-11,-11
50256763928,-10,2,24,10,0,-2,-12,-9
50256776078,10,2,-21,-9,-2,0,2,35
50256776078,-2,-13,-22,-4,0,-2,-18,9
50256784917,-19,-2,-10,-9,0,0,33,19
50256784917,-22,3,66,20,0,-4,-49,0
50256799345,28,-6,-98,-16,-2,-1,33,57
50256799345,-1,-1,4,4,1,2,2,-6
50256805942,-17,-9,-3,-12,-3,-4,-6,7
50256805942,10,6,1,0,0,-1,-17,-13
50256821776,17,8,13,0,-6,-4,-2,-33
50256821776,-28,-3,-2,-2,-2,-1,-13,-4
50256828413,39,-12,1,-4,-1,0,22,-37
50256828413,-3,0,-37,1,1,0,0,-16
50256836065,-1,3,25,10,1,-4,-6,38
50256836065,7,5,5,-2,-3,-1,-13,-18
50256844887,-20,-1,-4,-5,-1,1,-16,-3
50256844887,14,-1,-32,-11,0,0,25,15
50256859143,6,-4,8,1,-1,-1,-20,-21
50256859143,-55,-10,-9,-5,-3,-1,55,17
50256866103,-4,17,24,6,-2,-5,-17,56
50256866103,-45,-5,-19,3,1,3,29,-67
50256881831,4,1,11,-6,-3,-1,-3,26
50256881831,32,4,4,4,1,-2,-55,-42
50256888557,-31,1,12,4,0,1,46,51
50256888557,3,-14,-39,-21,-5,-3,16,51
50256895966,-20,1,40,13,2,0,-15,-8
50256895966,70,8,-50,-22,-2,-2,15,15
50256904897,4,-13,5,11,-2,-2,-34,-31
50256904897,1,8,53,8,0,-3,-13,78
50256919155,-23,-12,-61,-15,-2,1,6,-28
50256919155,15,6,35,10,1,0,-1,13
50256926179,47,12,-13,0,1,0,-4,-13
50256926179,-32,-12,9,-2,0,0,0,1
50256941643,18,4,25,1,-4,-5,-12,49
50256941643,-9,-6,-5,1,-1,-1,28,-88
50256948611,-5,-5,-4,-10,-3,-3,-16,-1
50256948611,40,8,1,6,1,3,-6,-28
50256955969,-23,-8,-15,-11,-3,-1,-1,13
50256955969,-1,9,-15,12,-1,-2,-14,23
50256964894,-14,-8,3,1,0,-2,-3,-13
50256964894,78,5,-2,-12,-3,-2,12,-12
50256979303,10,-2,69,16,0,-1,-14,-27
50256979303,-13,5,-1,-2,1,0,27,16
50256985998,-23,-2,-21,-5,-2,1,3,9
50256985998,-18,0,22,9,0,-3,1,21
50257001774,59,8,-11,-9,-1,-3,-1,-10
50257001774,-38,-10,52,-3,-1,0,-10,-8
50257008443,-3,-3,-39,3,-1,2,30,27
50257008443,-2,0,13,5,2,-1,-4,-3
50257024978,-19,-1,27,8,1,-2,9,-1
50257024978,-2,-1,-16,0,2,2,-10,4
50257026369,21,-1,-4,1,-2,-3,-28,43
50257026369,-29,6,8,1,1,2,25,-86
50257039286,-7,-10,-28,-2,3,3,14,19
50257039286,14,0,13,0,-4,-2,-24,15
50257045947,-72,-9,9,-3,-2,-2,-30,-21
50257045947,12,-14,-38,-5,-1,2,22,44
50257061824,14,4,14,3,-2,-1,-13,-23
50257061824,-9,-2,9,-1,-2,0,5,-1
50257068538,20,-3,-9,-7,-1,-4,14,-22
50257068538,5,1,-12,4,-1,1,-5,1
50257084925,-15,2,-6,-13,-4,-3,0,-19
50257084925,-41,-9,6,9,1,-2,-14,40
50257086375,42,2,-26,-10,1,4,35,-76
50257086375,-10,1,18,2,-1,-3,-36,13
50257099697,19,11,41,4,-2,0,11,16
50257099697,-3,-19,-86,-11,-1,-2,-10,-13
50257106143,-5,4,46,12,0,0,-11,37
50257106143,-7,2,16,0,-2,-2,45,-4
50257121771,6,-2,-54,-10,3,3,-28,-27
50257121771,2,6,51,1,-4,-1,6,79
50257128523,21,-4,-6,-7,0,0,-12,-36
50257128523,32,-1,36,6,-6,-6,-25,0
50257144855,-25,0,-17,4,4,2,-9,35
50257144855,6,-1,-12,-4,1,1,20,-40
50257146390,9,-3,-21,-2,1,-1,-9,30
50257146390,48,22,54,11,-3,-1,-18,-7
50257159229,-99,-16,-41,-13,-3,-3,49,15
50257159229,25,5,25,3,2,0,-20,-20
50257166122,-26,-7,-8,2,0,1,16,15
50257166122,-10,1,-29,-5,1,-2,-2,-9
50257181846,11,-4,7,1,-2,-4,-1,-2
50257181846,5,-5,-1,-5,0,0,-5,-22
50257188556,-1,11,27,5,-1,1,55,-20
50257188556,-16,-11,-30,-7,-1,-3,-18,22
50257204848,5,-13,-80,-20,-6,-1,-13,-14
50257204848,-18,4,12,11,2,0,13,9
50257206415,18,-6,6,-12,-6,-4,-61,-24
50257206415,-15,-4,-17,-1,1,0,5,72
50257219196,-7,-1,52,12,3,4,33,-70
50257219196,22,7,-24,-7,-2,-3,-12,4
50257225927,-15,-1,-21,-5,-3,-2,3,33
50257225927,10,-1,-9,-6,-1,0,8,-52
50257241615,3,3,-11,2,0,0,-3,38
50257241615,18,-3,-12,-9,-3,-1,-9,-4
50257248505,-10,-4,24,12,0,-2,-9,13
50257248505,-19,3,-18,-7,-1,0,12,-17
50257264881,19,-10,42,10,0,-1,-3,11
50257264881,8,-1,14,-6,-2,-2,-10,-50
50257266374,2,7,15,-2,2,3,34,70
50257266374,-38,-3,-36,17,2,1,-14,-13
50257279316,33,-5,18,-2,-7,-7,-26,-21
50257279316,25,6,55,1,-3,-1,3,21
50257285908,-67,-10,-54,-13,-4,-4,6,-34
50257285908,76,7,20,-8,-2,-4,-7,14
50257301610,-94,-13,17,9,2,-1,-2,73
50257301610,48,-1,-7,1,2,2,13,-37
50257308486,34,3,4,-5,-2,0,-8,-6
50257308486,10,-5,-1,-5,0,-1,-4,44
50257324949,0,4,-31,-8,-2,1,-8,8
50257324949,-12,5,-5,3,-2,-4,20,16
50257326294,-29,-4,18,5,1,-1,-30,-18
50257326294,-24,-3,-16,-5,-1,2,-3,-65
50257338586,9,1,36,6,-5,-3,-33,10
50257338586,-25,12,-23,-6,-1,-1,-10,-56
50257347385,10,-3,8,6,-2,-1,46,21
50257347385,-13,-5,4,-8,-2,-2,-7,13
50257361727,22,9,-4,-4,-3,-1,-15,-18
50257361727,1,-4,-37,-2,-2,1,23,12
50257368570,-9,5,-8,-6,0,-1,-37,-17
50257368570,-81,-16,18,1,-2,-1,-17,0
50257384854,25,1,-10,-1,5,2,17,2
50257384854,-34,-7,-6,2,-2,-1,-1,48
50257386354,16,3,33,6,0,0,-4,-34
50257386354,18,1,-27,-12,-5,-4,20,5
50257399313,-10,-6,-46,-4,-2,0,10,-99
50257399313,15,-4,36,4,-3,-4,-9,19
50257406019,3,-6,-18,0,0,1,-23,-10
50257406019,4,8,42,4,-2,-2,-33,-12
50257422354,10,-3,-5,-1,0,1,35,34
50257422354,-32,5,-6,-7,2,1,32,-47
50257428487,-7,-1,34,7,1,-2,-36,-19
50257428487,32,-15,-33,-12,-2,1,11,43
50257444747,50,24,33,6,3,1,-14,-1
50257444747,-84,-10,-2,5,-4,-4,-4,32
50257446275,6,-1,-32,-8,-1,-1,5,-1
50257446275,3,1,5,7,4,2,16,-16
50257458528,17,-1,3,-4,0,3,-2,33
50257458528,58,-7,6,-3,-3,-3,31,-50
50257467400,4,8,29,11,-5,-3,-4,-28
50257467400,1,-1,3,2,0,-1,-6,10
50257481620,-3,0,-53,-2,-1,-1,11,-28
50257481620,-12,1,2,-3,-1,-3,-48,17
50257488555,3,-13,5,-6,0,-1,13,19
50257488555,15,-6,2,-5,-3,-1,3,-36
50257504847,-13,2,6,-4,-2,-2,-2,30
50257504847,35,-3,-19,9,1,-1,-2,22
50257506374,2,6,18,-2,-1,-1,-4,-46
50257506374,-33,5,16,2,3,4,12,48
50257518534,17,-7,0,-4,-4,-3,-10,-5
50257518534,29,4,3,-2,-1,1,-7,-7
50257527332,-3,6,-34,-2,1,-1,11,23
50257527332,7,6,18,4,1,0,-15,-8
50257549900,-34,-16,-25,-8,-5,-4,-12,26
50257549900,-38,-5,16,-1,-1,-3,-7,-82
50257551313,21,1,-5,5,-1,1,4,46
50257551313,34,1,11,-15,-4,-2,1,-23
50257564875,-16,2,58,14,1,-2,3,-13
50257564875,-14,-6,11,0,1,-1,-36,46
50257566353,-14,-2,-5,-1,-2,0,24,-2
50257566353,42,9,-55,-10,-2,-2,13,11
50257578439,-3,-1,71,15,-1,-5,-26,-21
50257578439,-46,-10,-44,-16,-5,-2,31,38
50257587352,-9,6,23,5,2,-1,3,-6
50257587352,19,0,4,4,0,1,-4,11
50257601554,10,-2,-65,-21,-1,-2,-13,-15
50257601554,-2,7,26,4,0,-1,-15,12
50257608602,-2,-8,-23,-6,-2,0,23,-36
50257608602,-50,0,-31,0,0,-1,1,8
50257624939,3,-10,3,0,-1,-2,-3,-9
50257624939,1,-5,-39,-7,0,0,-9,2
50257626381,46,14,54,6,-2,-1,-9,22
50257626381,-57,-19,-77,-4,2,-1,-19,27
50257638391,3,0,-14,1,-1,-2,30,-6
50257638391,10,-9,-5,0,1,0,2,14
50257647403,-76,0,11,1,-3,-4,-22,-3
50257647403,5,0,32,5,-4,-1,15,-17
50257661770,-4,9,12,6,1,3,0,39
50257661770,25,-1,-14,1,-2,-1,-14,-3
50257668599,9,-5,-5,-15,-2,0,-4,-19
50257668599,-31,-5,14,4,0,-1,-30,-55
50257684985,-16,6,1,2,-1,-1,5,87
50257684985,77,5,12,1,-1,-1,-17,-46
50257686351,-53,-3,30,3,-4,-3,24,71
50257686351,-19,2,12,-4,-1,1,12,-37
50257698977,18,-2,-40,-12,-7,-5,-12,-5
50257698977,-3,-1,0,-2,3,2,14,10
50257707365,63,3,8,7,2,0,-14,44
50257707365,-53,-17,2,0,-1,-2,3,0
50257721683,-13,0,0,-1,1,2,0,8
50257721683,19,-4,10,-9,-6,-4,41,-56
50257728581,-76,-6,-49,-8,-1,-1,-20,-43
50257728581,62,3,63,7,-5,-1,9,5
50257744261,-7,1,12,1,2,4,12,-8
50257744261,18,-2,3,0,-1,-3,-52,57
50257750962,9,1,-11,8,1,0,34,-7
50257750962,15,-9,-40,-18,-7,-5,-1,1
50257758649,-43,5,32,11,2,0,-26,-21
50257758649,19,5,-6,-2,0,0,48,-33
50257767339,-18,-5,-6,-1,-1,-3,-8,-15
50257767339,8,6,10,5,1,-2,21,35
50257781742,-39,-6,-27,-14,-3,-1,6,-3
50257781742,-33,-11,6,5,1,1,6,13
50257788576,52,6,-5,-9,-3,-1,-20,-5
50257788576,-5,-1,37,4,0,-1,10,-7
50257804289,25,2,-44,0,2,-2,-22,-32
50257804289,-16,8,46,13,-2,-2,11,-41
50257810952,-13,-13,-22,-8,-3,-2,-3,-7
50257810952,30,3,-2,1,0,-3,-26,3
50257818675,20,0,14,7,0,1,-16,-18
50257818675,-9,3,-32,-7,-1,0,-67,9
50257827342,3,-5,-5,-6,1,6,54,-28
50257827342,19,3,-1,2,1,-1,-7,-20
50257841742,14,-9,30,0,1,0,48,-16
50257841742,64,-6,-35,-3,-3,0,5,21
50257848576,-69,4,19,0,-2,-5,-40,32
50257848576,0,-10,-19,-4,-1,-2,23,-22
50257864160,5,2,9,-4,-3,-2,-4,-18
50257864160,-9,5,25,9,-1,0,2,19
50257871055,49,-19,-34,-12,1,1,21,11
50257871055,-11,7,14,3,-1,-2,-22,7
50257878514,7,0,21,2,-2,-4,26,10
50257878514,-79,-2,-4,-2,0,-1,2,56
50257887420,19,3,9,2,0,-2,37,8
50257887420,-15,3,-8,2,0,-2,-20,0
50257901658,-5,-16,-24,-3,-1,-1,-4,2
50257901658,-23,4,-33,-7,-1,1,9,-45
50257908506,13,2,4,3,-4,-2,-13,3
50257908506,13,6,23,3,0,0,-17,10
50257924374,39,8,-42,-8,-4,-4,-30,-10
50257924374,-12,5,41,-3,2,1,33,46
50257930997,-3,-11,-67,8,1,-2,-28,-30
50257930997,7,0,-2,1,2,0,-1,-4
50257947261,-12,2,-3,-5,-4,-2,36,-70
50257947261,-14,-1,9,-1,2,2,3,2
50257948831,12,7,16,0,-1,0,-14,-8
50257948831,-7,-11,-36,-13,-4,-1,2,18
50257961814,-1,-1,6,5,2,1,34,23
50257961814,34,1,2,-4,-2,-7,-12,-30
50257968552,-9,8,54,14,1,-1,1,20
50257968552,2,0,2,-6,0,1,8,2
50257984243,-15,-11,-23,-5,-3,0,-39,2
50257984243,59,7,-11,-1,-1,-2,-1,17
50257991163,0,4,7,-1,0,0,4,-4
50257991163,-29,2,47,11,3,2,-12,0
50258007384,9,5,-60,-5,-3,-2,11,-59
50258007384,17,-33,-8,-16,-6,-4,-5,9
50258008804,-59,3,-1,1,0,-2,-39,-12
50258008804,8,-7,-41,-13,-2,-1,19,-3
50258021761,0,-4,46,8,0,-1,-21,24
50258021761,-48,2,-5,4,0,-1,14,1
50258028403,57,11,1,-3,-3,-2,-1,-23
50258028403,-22,-3,45,3,-3,-2,-4,-18
50258044296,26,-7,-75,-8,-2,-5,-1,24
50258044296,-67,-9,-2,-2,-1,-2,-35,-2
50258051014,48,8,2,-2,-2,1,-16,-2
50258051014,-68,-4,0,5,1,-1,-18,-24
50258067263,34,11,56,4,3,2,42,88
50258067263,6,-2,-37,-7,-3,-4,1,-13
50258068868,-34,-15,7,1,0,-2,1,-11
50258068868,2,0,2,5,0,0,27,18
50258081732,18,10,19,1,2,2,-22,-38
50258081732,-26,-2,21,10,-1,0,-8,11
50258088447,-5,-5,-10,-8,0,-2,31,18
50258088447,17,3,-22,-5,0,-1,-7,-15
50258104247,4,-7,71,5,2,0,-14,15
50258104247,-50,9,-74,1,2,0,15,-30
50258110998,61,6,19,-4,-4,-2,-26,-25
50258110998,-10,-4,-3,0,1,-2,-6,32
50258127385,-62,-12,13,3,0,0,-3,-5
50258127385,-10,1,4,4,4,3,-5,-5
50258128803,55,2,-23,-14,-4,-3,-2,10
50258128803,12,3,-37,-12,-3,-2,0,-20
50258141854,1,5,23,1,1,2,-8,4
50258141854,33,-3,-8,6,-1,0,-11,3
50258148537,-34,2,-4,2,-3,-2,6,-13
50258148537,29,-10,29,7,1,0,-11,64
50258164043,2,-5,-71,-15,-5,-3,14,-35
50258164043,6,0,27,3,0,0,11,2
50258170800,22,-3,-17,-5,-3,-5,-31,19
50258170800,-34,-11,-31,-5,-2,0,29,32
50258187192,-3,3,31,7,-1,-1,-10,9
50258187192,-35,-1,18,2,-1,-3,-10,-23
50258188788,16,-1,-18,-4,-2,-1,4,12
50258188788,9,2,9,-5,-1,-2,-13,-37
50258209650,13,-2,3,4,2,-1,1,13
50258209650,22,7,-1,-2,-3,-2,-29,37
50258211242,-39,-9,28,7,1,1,15,-87
50258211242,39,16,34,3,0,0,1,-18
50258223963,-23,-16,11,-2,-1,-2,-1,-1
50258223963,12,2,13,-13,-9,-7,-25,-13
50258230804,-25,-3,16,1,3,2,18,32
50258230804,31,1,-39,-6,-1,-2,-12,-2
50258247181,-16,-3,8,4,-3,-2,-7,-84
50258247181,32,5,-4,-5,1,1,6,-18
50258248812,-4,-4,-4,8,-1,0,4,35
50258248812,-70,-8,3,-7,-5,-5,8,-34
50258262331,15,5,-2,-5,-4,-3,-18,45
50258262331,44,0,9,7,2,2,17,-4
50258268278,-61,-4,-15,-14,-2,0,13,-4
50258268278,53,-5,41,7,-4,-2,-8,-3
50258283319,-6,3,-21,-7,-2,-2,-4,9
50258283319,-1,2,35,1,-3,-1,8,-2
50258290851,3,2,-8,3,1,3,-10,-3
50258290851,-12,-2,-3,3,0,-2,-39,9
50258306535,-22,6,49,3,0,1,25,26
50258306535,33,-11,12,-3,-6,-8,-5,-18
50258307290,-3,-2,-11,-2,3,3,0,-5
50258307290,31,7,13,7,1,1,-1,-9
50258322339,33,8,-9,-1,0,2,-16,28
50258322339,-29,-2,-10,-8,1,5,20,20
50258328353,10,3,30,8,-2,-4,-9,21
50258328353,-12,-19,2,1,0,1,16,-15
50258343357,54,-1,-17,-5,-3,-3,-17,6
50258343357,-35,2,7,0,0,1,15,0
50258350863,-2,8,7,0,0,-2,-17,-19
50258350863,46,8,-47,-5,-4,-2,-7,21
50258366466,-11,3,-13,-4,3,1,-10,-32
50258366466,-32,-14,21,2,-2,-2,24,36
50258367234,12,1,3,3,-3,-5,4,-9
50258367234,-11,1,-13,-14,-2,-2,10,7
50258382296,-22,1,-2,-1,-2,-2,3,1
50258382296,7,5,-13,2,3,3,-8,-22
50258388356,-4,-5,-31,-10,0,0,-3,2
50258388356,4,14,53,14,0,-1,-3,26
50258403507,-21,-7,-59,-9,-5,-2,-17,-49
50258403507,32,-2,-15,-5,-3,-3,-3,70
50258410945,1,-4,21,-1,0,0,8,34
50258410945,-2,-3,-50,-5,-1,-1,8,-67
50258426651,-31,1,43,5,-1,2,15,17
50258426651,38,4,10,8,1,1,6,0
50258427413,-70,-5,-33,-8,-1,-2,0,-71
50258427413,12,6,10,-5,-1,1,2,22
50258442375,-9,-4,-2,3,0,-1,-4,2
50258442375,-5,-4,-36,-4,-1,0,-2,-32
50258448308,14,-1,34,4,-5,-3,28,19
50258448308,-36,-1,-5,-4,-2,-3,-26,56
50258463510,-17,-7,-19,-5,1,-1,11,-48
50258463510,12,8,16,5,0,0,3,23
50258470976,-1,-5,-30,-7,-2,-1,-19,-18
50258470976,48,8,53,14,-2,1,11,-1
50258486664,-81,-15,-2,-1,-2,-4,1,40
50258486664,-4,-10,-55,-16,0,-2,-17,-29
50258487339,31,6,55,18,-1,-2,-44,46
50258487339,-15,-21,-37,-9,0,2,54,6
50258502344,14,6,19,4,1,-1,-17,47
50258502344,-23,4,13,3,2,2,-1,-36
50258508508,11,1,-10,-5,0,1,20,-2
50258508508,-13,-3,7,-3,0,0,-7,-9
50258523535,31,10,4,-1,-1,0,-14,17
50258523535,-23,-3,-27,-7,1,-1,2,-44
50258530976,23,-7,2,3,-6,-2,1,6
50258530976,-27,0,-63,-13,0,-3,-26,-4
50258546719,2,-7,17,-4,-5,-2,23,-14
50258546719,10,-2,-25,-6,-1,1,-5,-4
50258547310,2,-1,-20,0,4,2,6,3
50258547310,5,-3,24,-2,-5,-4,3,-25
50258562346,2,5,7,4,3,1,-16,-18
50258562346,71,12,-15,-2,-3,-2,1,20
50258568539,-74,-17,1,1,-2,-4,-21,-26
50258568539,-13,0,-10,-2,0,-1,9,52
50258583530,22,-1,-2,-4,-4,-1,-5,21
50258583530,1,7,41,5,-4,-2,19,-54
50258591031,15,0,-24,-8,-2,-1,-1,-1
50258591031,4,-1,-2,6,2,1,-9,-16
50258606692,-6,1,4,-1,-1,1,9,-7
50258606692,7,2,16,6,0,0,-7,24
50258607378,-15,-5,-23,-4,0,1,7,24
50258607378,12,4,15,4,-3,-1,-13,-73
50258622316,43,-1,-14,-5,0,2,12,-57
50258622316,-31,-8,-7,-1,-1,-1,-12,24
50258628618,19,2,-8,-6,2,1,13,-25
50258628618,-11,13,81,21,2,1,27,47
50258643553,11,-12,-44,-13,-3,-3,-7,-3
50258643553,43,7,7,-2,-3,0,-6,-17
50258651101,-85,-11,-5,3,-1,-4,-12,14
50258651101,32,-4,43,-5,-1,-3,11,-65
50258665827,-5,7,5,7,-1,-2,-2,-5
50258665827,-14,-5,14,-3,-2,-1,1,13
50258673541,22,-14,-2,-2,-4,-2,-3,6
50258673541,-46,-1,-31,-4,2,1,-12,10
50258682333,4,-2,-19,-7,1,-1,-1,4
50258682333,-16,3,36,11,-1,-5,-15,-7
50258688523,65,6,17,-5,-1,0,34,11
50258688523,-32,-13,-83,-13,-1,-3,-15,0
50258703500,8,-8,3,1,-1,-3,37,47
50258703500,-33,3,-1,4,4,2,17,-19
50258711034,-19,-2,13,-2,-2,-1,-10,-6
50258711034,13,2,11,5,-3,-1,-6,5
50258725895,-60,-10,-23,-11,-3,-2,-10,21
50258725895,10,-6,61,3,-3,-3,0,20
50258733450,9,9,-48,-5,0,0,-29,-35
50258733450,5,10,9,-3,-1,0,21,12
50258742309,-10,-1,1,6,-2,-2,-37,29
50258742309,-36,-3,-6,-4,2,2,17,26
50258748581,39,-2,36,13,-1,-2,-17,-24
50258748581,15,-8,-34,-14,-5,-4,-52,16
50258763533,8,5,23,8,1,0,12,-33
50258763533,34,-4,-26,-6,0,-1,23,42
50258771055,-36,8,-4,-8,3,0,3,23
50258771055,13,-4,9,8,0,-1,0,30
50258785998,-33,-10,-37,-19,-3,-2,13,-78
50258785998,-8,-3,-16,-4,-1,2,-34,-30
50258793426,11,3,-21,1,-3,-1,-4,20
50258793426,6,-10,12,-3,-1,-3,23,-6
50258802357,1,-1,6,3,-4,-2,-28,-6
50258802357,-45,-2,-2,2,-1,-5,-29,-27
50258808452,61,3,-34,-10,0,3,52,28
50258808452,-24,-11,61,9,1,0,-13,34
50258823386,10,-2,-21,-1,1,1,33,-10
50258823386,3,-4,5,-7,-2,0,-4,-17
50258831039,-6,1,2,9,-1,-1,-11,14
50258831039,13,0,-37,-12,-4,-3,0,-17
50258846035,-35,6,45,7,6,3,-4,19
50258846035,62,7,-20,12,0,0,-11,7
50258853405,-82,-19,1,-17,-2,-2,-10,-6
50258853405,-9,3,-27,-1,-1,1,-7,-32
50258870514,20,6,15,8,-2,-3,-6,6
50258870514,-2,0,-40,-5,-1,-2,6,-1
50258871439,-18,-7,68,6,-1,-4,5,-59
50258871439,14,0,-90,-6,-1,-1,-27,-14
50258883390,3,-2,13,1,-2,-2,-21,28
50258883390,-16,-4,-1,-3,0,1,87,-30
50258890899,12,5,9,1,-2,-1,-19,18
50258890899,-10,-2,13,0,0,-1,26,3
50258906054,31,6,-4,-1,1,1,3,-16
50258906054,-51,0,24,-2,-5,-5,-27,14
50258913539,7,-6,-29,-2,-2,1,6,13
50258913539,49,8,3,-1,0,1,5,-17
50258929214,-69,-14,13,-2,-2,-2,-10,17
50258929214,27,-2,13,4,-1,-1,-15,1
50258929741,0,-1,7,-11,-3,-2,3,-27
50258929741,-7,-1,-5,-2,-1,-2,6,17
50258943405,32,5,12,2,1,-1,12,-4
50258943405,-9,1,17,4,4,2,-7,8
50258950992,39,4,24,4,-6,-8,-39,-17
50258950992,-56,-6,-26,-15,1,3,-8,82
50258965968,74,12,7,-1,-2,0,14,-45
50258965968,-67,-3,-3,-3,1,-2,-38,11
50258973483,0,-5,-66,-2,1,2,28,5
50258973483,-4,16,92,19,0,-1,-15,-3
50258989210,-11,-5,3,-5,-3,-3,-13,-4
50258989210,46,-6,-16,-5,0,0,-12,14
50258989781,-16,15,36,7,1,0,-7,-6
50258989781,-6,-4,-38,-3,-3,-1,17,-33
50259003360,-21,-4,-43,-13,0,-1,-11,7
50259003360,34,-2,11,-1,-4,0,12,-15
50259011065,22,1,-9,8,-1,0,-20,5
50259011065,1,-2,18,-1,-3,-2,19,-26
50259026059,-1,-2,3,5,-2,-3,-9,-6
50259026059,-2,12,-10,-11,-1,0,-11,31
50259033536,-11,4,19,7,5,0,-38,71
50259033536,21,1,44,-5,-4,0,28,-95
50259049257,6,-6,-55,3,-1,-1,-13,27
50259049257,-17,-7,-3,-6,-1,0,17,20
50259049755,-17,-1,-41,-7,1,-1,18,22
50259049755,-21,-5,-1,0,-2,-2,-40,-1
50259063577,66,10,20,-3,-3,-2,3,-3
50259063577,-57,-21,3,7,0,1,-4,-30
50259071020,-72,-17,-12,-5,-4,-5,-7,-29
50259071020,9,-7,-30,-4,0,-2,-5,6
50259086003,9,12,14,-6,2,2,15,-8
50259086003,19,-7,-30,-1,-4,-4,-18,2
50259093525,28,1,8,-8,-1,-1,8,-23
50259093525,-36,-1,43,11,2,2,-2,13
50259109175,-8,6,43,16,3,2,-15,24
50259109175,-8,-1,19,-4,-7,-5,11,-10
50259109826,-21,-8,-95,-17,-3,-1,-5,47
50259109826,73,5,37,5,-1,-2,13,-81
50259123549,-8,-8,-34,-1,1,0,-7,7
50259123549,-2,1,23,5,1,2,3,-3
50259131038,29,6,39,9,0,-1,-8,-16
50259131038,-13,-6,-33,-5,-2,-2,-25,27
50259146022,1,9,11,-2,1,2,-12,-32
50259146022,-47,-13,-24,-3,-2,-1,36,48
50259153442,22,4,30,-2,-2,-1,0,-7
50259153442,-3,1,-12,1,-4,-2,-4,2
50259169184,1,-15,-36,-20,-3,-3,-6,-1
50259169184,7,8,44,18,3,1,7,-8
50259169733,-15,6,-21,-14,-3,-2,0,4
50259169733,59,-8,-35,2,-3,-4,14,8
50259183444,-8,2,50,-2,-1,-2,5,-3
50259183444,22,0,-73,-12,-4,-2,-8,3
50259191004,-15,-6,25,8,0,1,19,5
50259191004,-18,5,4,0,2,2,32,-3
50259206011,-19,5,-1,1,-1,-1,4,17
50259206011,32,3,-5,-3,-1,-2,2,-13
50259213543,62,1,31,11,3,0,5,-16
50259213543,-106,-1,-61,-23,-2,-1,-6,12
50259229027,-2,2,27,16,0,-1,-6,-11
50259229027,5,-4,22,-4,-2,-1,-27,30
50259229959,30,8,28,15,1,1,34,-57
50259229959,2,-6,-43,-16,-1,1,7,4
50259243609,-12,-8,-18,0,0,-2,3,25
50259243609,1,6,21,-8,2,-1,-20,-20
50259251044,30,0,13,3,0,-2,12,8
50259251044,-10,1,33,0,-1,-1,-5,11
50259266052,-19,-12,-49,6,-1,0,11,-12
50259266052,-5,-6,-26,-6,0,1,-50,20
50259273565,-22,-2,14,-1,-2,-1,34,-31
50259273565,36,8,28,5,2,2,11,12
50259289206,20,-3,10,6,0,-1,-3,34
50259289206,-83,4,5,1,-4,-3,-10,-45
50259289762,-2,-3,-18,-5,0,2,28,61
50259289762,20,0,7,8,1,-1,-29,-2
50259303532,-8,2,28,1,-3,0,23,0
50259303532,32,2,-6,5,0,0,2,-11
50259311013,-33,-2,-20,-9,0,-1,15,-5
50259311013,25,2,56,2,-4,-4,-13,25
50259326015,14,-1,-17,1,-2,-2,4,-41
50259326015,-4,-4,-16,-9,1,-1,30,11
50259333555,33,12,26,6,-3,-4,-36,-20
50259333555,-28,-15,-6,5,2,-1,-1,16
50259349197,-15,0,-4,-6,0,0,-8,30
50259349197,61,12,8,2,-1,-2,29,-69
50259349791,-34,-13,12,-3,-1,0,-18,10
50259349791,-19,5,15,2,0,2,-10,1
50259363493,21,12,43,3,0,-1,13,29
50259363493,-22,-11,-52,-13,-4,-1,8,18
50259371011,0,3,14,2,3,0,-42,-19
50259371011,3,1,9,7,-2,0,38,42
50259385998,-22,-5,-33,-21,-2,-2,-1,-24
50259385998,38,-5,-17,2,-3,0,-18,-5
50259393522,25,-1,-1,0,-2,0,-7,14
50259393522,-13,5,-5,2,-2,-1,-20,-2
50259409150,12,-9,-19,0,0,1,7,10
50259409150,-4,0,19,4,0,-1,-13,-4
50259409740,2,-3,-36,-6,2,1,-15,14
50259409740,51,5,2,4,3,0,0,-27
50259424794,-75,-12,14,-5,-7,-5,-3,-76
50259424794,6,-5,7,-2,0,1,-14,28
50259431011,47,1,-47,-19,-2,-1,17,15
50259431011,-51,-3,18,4,-1,1,6,-13
50259445857,11,5,28,11,1,1,-18,6
50259445857,-2,-4,0,-6,-1,-1,14,-6
50259453483,1,2,23,5,-4,-4,-1,1
50259453483,-23,-9,-36,-7,1,0,-12,-23
50259469052,59,9,7,-1,-1,-2,-36,-3
50259469052,-43,-21,-7,3,2,0,47,36
50259469824,-14,-2,29,1,-2,-1,-12,39
50259469824,7,-2,-9,-4,-2,-1,0,-58
50259483412,4,5,8,2,-1,1,-1,10
50259483412,-10,0,9,-16,-7,-3,13,-20
50259490975,-34,-3,36,21,2,-2,-3,12
50259490975,1,-13,-54,-14,-1,-2,5,7
50259506041,28,-4,-3,0,0,-2,-6,43
50259506041,-57,18,55,4,0,-3,-62,-91
50259513509,-8,-7,-20,-4,-4,2,67,29
50259513509,5,-1,29,8,-3,1,-20,22
50259528948,-19,-4,-39,1,2,1,9,-11
50259528948,44,3,53,-1,-1,-1,-20,40
50259529800,-38,-11,-18,-11,-4,-5,-21,-47
50259529800,-12,4,3,7,-1,-1,8,19
50259543490,7,0,11,-8,-1,2,2,-1
50259543490,14,-4,-82,-13,-4,-2,4,70
50259550968,-28,-1,4,1,2,-1,-9,-102
50259550968,56,-4,-4,-1,0,0,31,47
50259566026,-63,-2,13,4,0,-1,3,4
50259566026,23,4,-4,6,-2,-2,-1,13
50259573492,-3,8,-21,-5,0,1,-12,-8
50259573492,25,6,4,-3,-1,-3,-24,-8
50259597265,32,-4,5,1,1,-1,41,21
50259597265,-23,1,2,6,2,-1,21,35
50259598097,20,-6,-27,-7,-1,3,-9,-10
50259598097,-18,1,16,6,1,-1,-27,-15
50259603458,3,1,9,-5,-3,-2,-3,11
50259603458,59,0,32,7,-2,0,-2,-4
50259611029,-2,-3,-7,3,-3,1,4,-28
50259611029,-28,-11,-53,-20,-3,0,-23,87
50259626053,23,-4,-14,-12,-3,-2,22,-79
50259626053,-15,-1,26,9,1,1,15,-6
50259633512,-47,-11,6,3,-1,-4,-13,31
50259633512,6,4,17,5,3,0,-18,1
50259648555,-14,-4,-19,-5,-3,-1,-12,8
50259648555,33,-1,-6,2,-2,-1,-2,-6
50259656672,1,9,0,-4,0,-1,-1,-54
50259656672,-23,-8,-20,-8,-3,-4,-9,-48
50259663430,-35,-2,4,-4,0,-1,1,12
50259663430,36,2,-14,2,1,0,-2,-37
50259671006,-60,3,21,0,-5,-2,2,40
50259671006,49,9,56,15,2,-1,-6,-18
50259685991,-16,4,-3,6,0,1,-6,-4
50259685991,-41,-17,-84,-9,1,1,0,-33
50259693437,29,-17,-9,-4,-3,-1,-1,69
50259693437,24,8,2,-3,-4,-1,2,-18
50259708492,-46,-9,24,5,-2,-1,-12,25
50259708492,-1,8,-10,-4,0,-1,3,-3
50259716792,-9,1,5,2,-1,-2,-16,9
50259716792,19,-1,1,0,1,1,0,-9
50259723505,26,-1,-4,-1,-2,-1,15,-54
50259723505,-17,6,13,-4,-3,-1,2,-2
50259730954,-2,-9,-42,-12,-4,-3,-2,-18
50259730954,4,-7,-6,-3,-1,-1,28,20
50259745945,52,8,24,3,-1,-1,-37,-22
50259745945,-33,-3,11,3,-2,-3,-19,21
50259753488,70,5,-6,-4,2,0,22,-25
50259753488,-29,0,-1,0,-2,-2,1,-14
50259768549,-22,-6,15,2,-2,-1,15,-9
50259768549,8,5,38,6,-2,0,-8,6
50259776712,20,-1,-65,0,1,0,-30,-10
50259776712,-39,-4,-29,-16,-3,-3,-12,66
50259783499,4,6,41,6,-4,-1,18,-8
50259783499,34,-12,-3,4,1,-1,-7,-2
50259791030,-4,11,13,-2,-2,-2,16,11
50259791030,-75,-8,-18,1,0,1,13,-59
50259805998,6,5,-60,-8,3,2,-3,29
50259805998,33,-1,66,7,-5,-4,1,-3
50259813347,22,1,-9,-1,-1,0,-22,11
50259813347,39,6,6,3,-3,-1,-4,-14
50259828494,-66,-15,-2,1,0,-2,5,49
50259828494,-3,6,4,-2,2,2,40,-40
50259836703,21,2,15,-1,-3,-3,-10,21
50259836703,-64,-1,20,3,1,0,5,-35
50259851574,-1,-12,-30,-11,-5,-4,4,-10
50259851574,0,-1,-2,-9,0,1,-15,79
50259852308,6,-2,39,10,0,0,17,-25
50259852308,15,0,-7,-1,0,0,-11,-34
50259865979,-31,-3,-3,-5,1,-1,-28,0
50259865979,-41,2,-12,13,1,-1,9,5
50259873459,20,-4,-5,-9,-3,-4,-5,-18
50259873459,29,8,25,6,0,1,-5,14
50259888368,-11,0,-36,-5,0,-1,-31,-8
50259888368,4,3,4,1,-1,0,-10,4
50259896629,-16,-1,-23,-8,-1,-1,10,-18
50259896629,-4,-8,-4,-4,-4,1,29,51
50259911636,48,3,5,-5,-2,-2,-19,-14
50259911636,8,3,9,-1,-2,-4,-3,4
50259912240,4,-1,14,7,4,0,-4,0
50259912240,22,10,-7,-5,-1,-1,-11,1
50259926083,-29,-1,11,3,0,0,-3,76
50259926083,25,-11,-15,-6,-2,0,7,-23
50259933487,15,-1,13,4,1,-1,-6,19
50259933487,-17,0,-3,4,-1,-1,15,-5
50259948515,81,25,100,22,3,2,1,7
50259948515,-6,-24,-109,-36,-4,-1,24,-11
50259956710,-26,0,39,6,2,1,-19,12
50259956710,-16,-11,-11,-6,-2,-1,-3,11
50259971595,14,5,14,4,0,0,24,-15
50259971595,-24,2,-9,0,2,1,-2,-11
50259972235,36,11,-7,0,1,0,3,-17
50259972235,-19,1,11,-9,-3,-3,7,7
50259985942,-2,-7,-21,4,-3,-2,2,-28
50259985942,-12,-5,-15,-5,-5,-6,-9,-15
50259993530,-11,8,-4,-2,1,1,-4,14
50259993530,55,6,7,4,2,-1,-7,47
50260008443,-72,-8,0,-2,0,1,10,-35
50260008443,-8,-2,-21,-11,-5,0,-4,-14
50260016772,46,1,18,-8,-2,-1,16,23
50260016772,-4,0,40,7,1,-3,-46,-39
50260031658,6,-9,-53,-17,-2,-4,6,2
50260031658,29,14,50,15,-1,0,6,22
50260032298,-43,-14,-47,-4,-3,-1,6,-89
50260032298,2,-2,18,0,0,1,5,-12
50260045976,21,0,-7,1,-3,-2,0,28
50260045976,8,4,26,6,4,-2,-21,-34
50260053524,-12,-5,-35,-12,-2,1,9,32
50260053524,38,-4,13,4,1,-2,10,3
50260068451,-12,7,-4,-3,1,-1,-9,-22
50260068451,4,2,32,0,0,-1,5,36
50260076591,-90,-11,-3,-2,-2,-3,-34,-56
50260076591,40,-7,-52,-10,-3,0,45,20
50260091610,34,-1,4,0,-5,-5,-27,17
50260091610,-15,-3,-71,-6,-2,0,-9,-38
50260092276,5,0,44,3,-3,-4,4,35
50260092276,-22,-1,-21,1,2,1,-11,-38
50260105964,9,1,11,-12,-1,-1,5,-4
50260105964,24,-1,23,16,1,2,-5,15
50260113424,-3,-2,10,-4,-2,-2,0,-3
50260113424,-13,-5,-26,-12,-4,-3,-37,17
50260128568,14,3,12,1,2,3,20,-15
50260128568,-3,1,39,8,-3,-4,29,-27
50260136684,17,3,-27,-2,3,3,17,24
50260136684,-17,2,50,12,-2,0,-9,6
50260151644,26,-4,-27,-2,2,0,-8,-7
50260151644,-1,5,5,-1,-1,1,-12,37
50260152271,-8,4,-29,-4,-3,0,5,-6
50260152271,-11,3,11,2,1,-1,15,-3
50260165959,-17,-5,-24,-5,-3,-4,-7,4
50260165959,41,7,61,13,0,-1,-5,18
50260173359,15,-1,18,-7,-3,-2,-1,17
50260173359,-34,-10,-28,-6,-2,-1,-10,-29
50260188270,-8,1,-2,-1,-1,0,0,12
50260188270,-23,2,-6,-3,1,1,-3,-15
50260196448,-27,-4,33,-1,-3,-1,24,0
50260196448,38,-8,-12,2,-2,-2,11,-15
50260211591,-61,-1,-11,-1,0,-1,-3,-5
50260211591,-10,-5,-27,-9,-1,0,-9,5
50260212279,-19,-12,12,12,0,-2,-16,-29
50260212279,-23,-2,-15,-5,2,2,35,-64
50260225895,9,-1,29,-1,-4,0,-6,19
50260225895,-1,-8,-15,-9,-4,-3,-6,-1
50260233404,6,3,-6,7,-1,1,-13,11
50260233404,-13,2,27,10,-1,-1,-2,32
50260257339,52,-5,0,-10,-2,-3,2,-32
50260257339,-37,-1,-77,0,0,2,17,-18
50260257983,35,0,0,-5,-2,-1,-6,10
50260257983,-7,6,10,3,-1,-3,3,10
50260271613,3,0,1,6,-1,-1,-2,-2
50260271613,-13,-4,-4,-10,0,0,-14,3
50260272256,36,13,30,10,2,0,16,23
50260272256,-5,-4,-14,-7,-4,-5,-17,-20
50260285968,32,-2,1,-1,-2,-3,1,14
50260285968,6,-3,3,-5,-1,-4,-10,1
50260293376,-8,-3,4,0,-1,-1,4,-52
50260293376,26,5,41,10,4,4,22,32
50260308468,-16,7,-68,-14,-3,2,-2,19
50260308468,49,-10,21,1,-4,-3,19,-7
50260316702,10,9,40,6,3,1,4,47
50260316702,-5,-8,-42,-6,-5,-4,-15,14
50260331645,-27,-5,16,2,1,1,11,-30
50260331645,13,20,6,0,-3,-3,-2,23
50260332273,-18,-3,-11,-4,-2,-3,-18,-7
50260332273,67,5,-45,-11,0,0,-12,-3
50260345962,-75,-28,42,6,2,0,0,1
50260345962,-54,-3,15,1,-3,-3,-19,-17
50260353373,8,-4,7,-8,-3,-3,9,-4
50260353373,-8,-3,-2,-4,-1,-1,-13,-1
50260368458,30,0,30,13,0,0,-4,7
50260368458,5,4,-27,-4,1,1,-6,44
50260376584,9,-12,-18,-2,-3,-2,-9,-71
50260376584,-62,-2,18,-2,4,0,2,38
50260391645,-2,2,15,8,-3,-3,-4,-8
50260391645,-11,-7,-12,1,-2,-1,-31,2
50260392291,18,2,-7,-7,-5,-1,22,-27
50260392291,1,1,-11,-1,0,0,-15,-19
50260405839,4,-15,2,-10,-5,-2,0,-1
50260405839,-11,-2,37,6,1,0,-5,-28
50260413404,-50,-6,-77,-9,0,-1,-18,11
50260413404,-49,-14,5,-11,-3,-3,24,11
50260428290,-10,16,2,10,2,1,-3,-16
50260428290,31,-4,-19,-9,0,1,31,19
50260436705,1,2,25,6,-4,-4,1,5
50260436705,13,-3,23,6,-2,0,-12,-12
50260451600,-23,-5,-72,-19,-4,-3,-10,-2
50260451600,67,0,6,1,1,2,5,4
50260452230,-17,3,32,6,2,2,32,-25
50260452230,9,-5,-66,0,-2,-1,0,-8
50260465937,16,3,45,-1,-4,-2,7,13
50260465937,2,-4,-7,3,-2,0,9,-14
50260473432,5,3,-3,-6,0,-3,-69,28
50260473432,26,3,-42,1,-2,-2,31,-71
50260488473,-19,-7,-6,-8,0,-4,-1,-7
50260488473,-10,2,29,3,0,-2,5,9
50260496746,23,1,10,7,-1,0,-8,14
50260496746,-36,-8,14,-3,0,2,-14,9
50260511574,21,2,-25,4,2,1,16,36
50260511574,-5,3,5,-4,-3,-2,-19,-85
50260512266,32,2,-3,1,-4,-3,51,26
50260512266,3,-5,32,-2,-3,-3,-32,67
50260525945,-5,-9,-40,-4,-2,-2,7,-38
50260525945,-19,-5,4,-8,-1,1,33,50
50260533354,19,-10,29,6,2,-1,-48,-18
50260533354,22,-4,-27,-11,-4,-1,69,68
50260548464,6,11,20,6,-3,0,-35,-16
50260548464,3,-3,-21,-3,0,-1,12,11
50260556641,-44,6,3,0,1,1,-10,58
50260556641,-9,3,26,9,0,-1,-3,-57
50260571015,6,1,24,-6,1,0,-6,4
50260571015,-4,-6,-29,6,2,0,-20,-17
50260579232,21,18,-28,-9,-3,-1,28,30
50260579232,-45,-6,-18,0,2,3,-6,-34
50260585851,-3,0,45,-4,-5,-4,-12,49
50260585851,40,3,-1,-6,-3,-1,23,-18
50260593462,-3,-7,1,0,2,1,2,-7
50260593462,4,10,10,2,-2,-2,-4,-6
50260608461,-20,-4,-30,-2,-1,-1,-14,-9
50260608461,-38,-3,0,-2,0,1,-14,12
50260616625,-10,-8,0,1,-3,-2,-5,12
50260616625,34,-2,6,-3,-1,0,51,39
50260630926,-43,4,-26,1,-1,-3,-6,-3
50260630926,-6,-11,47,3,-3,-4,-8,-16
50260639222,-21,-11,-38,-13,-1,1,0,47
50260639222,23,7,2,-1,-1,-2,-30,-62
50260645963,22,2,-10,4,0,0,-1,10
50260645963,-31,5,6,6,2,2,44,1
50260653366,-29,6,53,-1,1,0,-13,30
50260653366,87,-6,-65,-9,-6,-6,-37,-10
50260668500,28,1,-23,-3,-5,-4,1,14
50260668500,-32,-1,-12,0,-1,-2,-35,-27
50260676654,15,-3,11,7,-1,-2,-7,-13
50260676654,-11,10,5,-4,1,1,2,17
50260690977,7,3,54,14,2,1,16,-14
50260690977,-9,-9,-60,-20,-3,-3,-17,15
50260698959,-17,-7,1,-1,-2,-1,11,-42
50260698959,20,-6,-27,-2,0,-2,-9,3
50260705984,1,-1,-10,-4,0,0,11,2
50260705984,-49,0,25,6,0,0,29,-2
50260713483,12,6,-4,-1,0,-2,-5,13
50260713483,-48,-7,5,-3,-4,-2,-5,-27
50260728448,26,-9,-1,-5,2,1,8,-2
50260728448,0,-1,3,-5,-4,-3,-9,-1
50260736657,-1,0,-22,-3,-1,0,6,-23
50260736657,7,10,66,11,-3,-6,-2,-2
50260750933,30,1,-20,-7,2,2,-4,1
50260750933,13,12,66,16,1,1,-23,8
50260758989,8,-12,18,5,-5,-6,17,-56
50260758989,-4,5,-10,-6,4,1,5,-44
50260774101,23,-1,-9,3,0,-1,10,7
50260774101,-41,6,2,-5,0,-3,-43,-16
50260774796,-15,-10,9,7,0,3,5,18
50260774796,2,6,12,-4,-5,-2,-9,17
50260788405,-9,1,42,3,1,2,-3,-18
50260788405,52,-1,-77,-12,-5,-2,57,41
50260796599,0,-2,13,8,4,0,-15,-8
50260796599,-18,-4,22,-2,-6,-3,-21,9
50260810960,-46,-3,-31,-2,2,1,22,-32
50260810960,12,6,8,1,-1,-1,-17,-5
50260819306,-28,-9,-23,-10,-1,0,-30,-17
50260819306,37,5,46,11,-3,-2,47,37
50260834137,34,0,-44,-3,0,1,-10,-25
50260834137,-25,-1,15,1,2,0,-6,1
50260834730,33,7,-25,-6,-2,-2,8,-50
50260834730,-42,-7,-2,-2,2,1,-20,7
50260848488,31,11,39,11,3,0,-2,19
50260848488,-20,-13,-13,-8,-1,-4,-5,17
50260856634,10,6,-24,7,0,-1,17,-56
50260856634,-16,-9,-12,-14,2,4,7,6
50260879833,10,-1,25,3,-7,-4,-2,8
50260879833,-15,-5,-7,2,-1,0,-10,22
50260880421,4,4,-3,-3,-1,1,-19,-25
50260880421,-84,-6,16,5,0,0,-14,-30
50260893985,-1,3,-44,-6,1,0,-26,-4
50260893985,60,-13,15,-2,-4,-2,-19,16
50260894857,-71,-9,3,5,-1,-1,42,25
50260894857,48,7,-20,-10,-3,-2,-20,-16
50260908317,-4,-5,-16,-6,-1,1,-16,49
50260908317,-17,5,26,5,-2,0,9,-57
50260916671,23,8,-6,2,0,-1,-2,19
50260916671,-2,-10,33,4,2,2,6,15
50260930878,-39,-3,12,-4,-6,-3,14,4
50260930878,23,5,-25,-6,1,3,7,-5
50260939159,27,-5,31,-2,-5,-5,-12,13
50260939159,-3,5,-9,1,0,-1,-16,51
50260954088,16,-3,3,-1,-1,-3,17,-95
50260954088,9,2,-6,5,0,-2,-5,-4
50260954659,-57,-7,16,2,1,3,23,9
50260954659,12,2,0,8,1,-3,-13,20
50260968435,9,-4,-6,-13,-3,-2,-11,20
50260968435,-24,2,0,0,-1,-1,7,-50
50260976422,53,-1,-22,-10,-3,-2,-20,-13
50260976422,37,3,-11,1,-4,-3,-22,-17
50260990938,-42,-10,2,1,3,0,47,3
50260990938,1,1,11,1,-3,-4,-8,5
50260999097,10,5,-16,-2,-3,0,-5,33
50260999097,-24,-8,-23,-6,-1,-1,-6,-29
50261013860,-17,1,-5,-2,0,0,-17,2
50261013860,21,5,0,-6,1,0,3,13
50261014671,3,-8,-28,-3,-1,-1,-17,13
50261014671,-6,-1,-13,5,-4,-4,29,-58
50261028353,-12,2,26,7,0,-2,2,6
50261028353,3,-7,31,0,2,0,7,10
50261036648,-14,-15,-105,-26,-5,-2,-5,5
50261036648,5,5,15,3,1,2,2,13
50261050728,6,-5,1,-2,-2,-2,-9,10
50261050728,-6,6,-10,4,-1,0,-7,-24
50261058973,41,11,36,4,2,1,1,13
50261058973,-69,-14,-5,-2,3,0,8,10
50261073418,24,14,23,6,0,1,-5,21
50261073418,-39,-11,-9,1,0,-3,-38,-7
50261082305,-12,-1,6,-4,-3,1,10,35
50261082305,94,2,4,6,-2,-3,-1,28
50261088371,-8,11,55,13,-1,0,9,-66
50261088371,-2,-5,29,2,-2,-1,9,14
50261097247,0,0,-21,-3,1,-1,-10,15
50261097247,-3,1,15,1,-1,1,-3,9
50261110766,2,-3,-25,0,0,-1,-39,-15
50261110766,12,0,35,0,-1,3,35,55
50261119725,-5,-2,12,3,-3,-4,18,-29
50261119725,-53,-5,-9,-8,-2,-1,16,17
50261133420,34,-1,2,-1,-2,-4,11,-7
50261133420,-20,-5,-68,-7,0,-3,-11,-3
50261142261,15,7,47,10,2,-1,-2,-6
50261142261,10,8,10,2,0,0,-2,-10
50261157073,-18,-21,6,-8,-1,1,9,33
50261157073,19,0,-32,-7,-4,-2,7,-7
50261158717,51,3,7,-5,-1,-3,-7,-19
50261158717,-69,3,-19,3,1,1,18,-4
50261170897,11,1,2,-2,1,1,12,47
50261170897,26,4,-27,-4,-1,-2,25,-63
50261179690,-17,-1,46,5,0,-3,-20,46
50261179690,16,-3,-39,-12,-2,-1,-3,-52
50261193289,57,16,-4,-4,-4,-4,40,27
50261193289,-74,-14,31,6,0,-1,-9,12
50261202221,-18,-5,-46,-10,-3,-2,-7,14
50261202221,19,7,5,-1,0,-1,-3,4
50261208305,-35,-3,-16,1,0,0,-20,19
50261208305,59,4,-21,-9,-1,1,-1,-41
50261217192,17,10,26,3,-1,0,2,-15
50261217192,7,-10,13,1,-5,-1,-4,24
50261230902,-22,4,-35,-11,-1,-3,-23,-57
50261230902,-85,4,28,2,-1,-2,-9,36
50261239710,2,-3,-5,5,2,1,28,2
50261239710,-4,-3,13,-4,-2,-2,-4,-7
50261253216,5,0,44,2,1,1,-1,-7
50261253216,9,-10,-52,3,-5,-5,-23,0
50261262233,27,5,-49,-15,-4,-1,11,-5
50261262233,-59,-4,41,7,-2,-2,-3,7
50261268229,3,-9,-55,-18,-5,-3,-11,18
50261268229,45,4,34,12,5,0,-26,-11
50261277214,-1,-7,-8,-6,-2,-1,15,44
50261277214,-12,2,-42,-2,5,3,18,-67
50261290713,-1,-3,67,10,-3,-3,-9,22
50261290713,39,10,1,-6,-2,-2,4,10
50261299707,-70,-7,14,6,3,0,-6,-30
50261299707,48,8,2,-4,0,-1,-15,30
50261313336,-16,-3,7,1,-1,-1,-11,38
50261313336,4,0,19,-1,0,2,11,-74
50261322286,31,-5,-29,4,-3,-2,31,42
50261322286,-89,-14,-16,-3,2,0,-24,-16
50261328407,1,-19,-35,-1,0,-2,3,-18
50261328407,31,3,26,-1,-3,-4,8,92
50261337183,-32,3,5,0,0,-1,-15,-41
50261337183,50,4,2,5,0,1,13,56
50261350825,-1,2,-42,-9,2,3,9,-40
50261350825,12,-2,13,0,-2,-2,4,-6
50261359824,-72,2,18,6,0,0,-27,-56
50261359824,27,1,-34,-9,-3,-3,21,48
50261373216,-11,0,30,4,3,4,-1,-20
50261373216,15,-2,11,-5,-6,-4,0,3
50261382245,33,0,12,-3,-3,-3,-14,-10
50261382245,10,-3,-18,-3,0,-3,5,-19
50261388259,27,11,11,9,2,1,-9,14
50261388259,-94,-18,-48,-11,-1,-1,-8,9
50261397243,-16,-4,21,7,-1,1,-5,-5
50261397243,10,5,41,3,0,-1,-14,-2
50261410905,41,14,4,-7,-7,-6,-3,-12
50261410905,2,-7,-14,-1,-2,-1,19,24
50261419707,9,4,14,3,1,-1,-37,-24
50261419707,7,-4,6,-2,0,0,37,67
50261433369,1,-7,2,0,-2,-1,6,-35
50261433369,13,13,-2,5,4,2,-1,-22
50261442234,28,-1,17,1,-4,-2,0,10
50261442234,-6,-8,-43,-5,-4,-1,-25,7
50261448185,-17,-5,19,-3,-2,-2,-3,14
50261448185,46,14,18,7,2,-1,15,0
50261457453,-17,-11,-33,-11,1,-3,-7,-1
50261457453,37,10,1,-3,-3,-2,-17,-28
50261470734,-43,-11,-20,-3,0,1,2,1
50261470734,15,4,6,0,0,-1,-28,41
50261479721,1,9,27,5,2,2,4,-15
50261479721,-5,-8,-5,-6,-7,-3,-16,-23
50261493187,-17,7,29,10,3,1,26,23
50261493187,-3,-6,-24,-10,-2,-2,-12,9
50261502213,13,-2,-3,-2,-1,-1,7,8
50261502213,-25,3,8,6,3,4,19,-7
50261508218,40,-4,-5,0,-2,-2,-31,12
50261508218,-92,-9,-12,-6,-2,-2,-30,-56
50261517216,-4,2,5,1,2,2,24,46
50261517216,35,-1,-1,-2,-5,-5,-8,-22
50261539545,-21,-7,-41,-4,2,0,-1,-9
50261539545,-13,-1,12,8,3,4,3,-6
50261541162,-21,0,-20,-13,-6,-5,-22,-22
50261541162,-4,-8,-10,1,-1,-2,6,7
50261554058,-26,-7,-10,-5,-2,-2,-34,-16
50261554058,48,0,3,2,2,1,62,38
50261560750,6,-3,11,-1,-4,-4,-8,5
50261560750,4,1,30,6,1,1,23,-62
50261568247,-13,-3,-31,-6,-2,0,6,-9
50261568247,23,6,14,3,-1,0,-9,-12
50261577234,-46,-7,-5,-3,-5,-4,-1,11
50261577234,8,3,8,0,3,1,-16,11
50261590794,22,9,7,2,0,1,13,-7
50261590794,-4,6,31,7,0,-1,-4,-16
50261599741,-52,-14,6,-6,-5,-2,0,-13
50261599741,15,6,15,5,0,0,-36,-4
50261614125,-59,-11,1,-1,-3,-2,2,2
50261614125,23,4,32,1,1,1,12,31
50261620970,-31,-1,-19,3,0,2,-10,-59
50261620970,67,1,-7,-2,-1,-2,-4,7
50261628243,6,4,-6,-4,-5,-5,-18,66
50261628243,-5,-13,-21,-8,-1,3,12,-29
50261637166,15,3,12,5,1,0,4,26
50261637166,18,6,-34,-6,-1,0,18,21
50261650874,22,14,31,7,1,-1,6,-8
50261650874,1,-5,-40,-14,-1,-3,-23,-4
50261659769,73,7,27,4,-1,-2,27,6
50261659769,-35,-7,13,6,3,1,-6,10
50261674163,-33,-8,-9,2,-1,1,4,-18
50261674163,-58,-2,21,3,-2,-3,-52,-6
50261680706,68,8,-35,-5,5,3,23,2
50261680706,-16,-3,4,-4,-2,-2,5,1
50261688373,-10,3,4,0,0,-2,-2,28
50261688373,7,-3,21,3,-2,-4,25,-19
50261697274,11,-2,-8,3,0,1,-35,-17
50261697274,-3,-10,-10,-9,-3,-1,3,16
50261710688,15,-1,1,1,-3,-2,7,12
50261710688,7,0,-37,-6,-1,1,20,-44
50261719713,28,2,-4,2,0,-2,-7,18
50261719713,-103,-8,-2,-3,0,1,3,-23
50261733860,16,-7,-1,3,0,-2,-4,-17
50261733860,45,11,16,1,-2,-2,-14,12
50261740696,-64,-14,18,1,0,0,-2,-19
50261740696,13,1,6,1,-1,-2,-22,-23
50261757089,1,1,-14,-14,-5,-2,-4,40
50261757089,-1,-2,-12,-2,-5,0,34,7
50261758688,-6,-2,-5,4,1,-1,-3,-19
50261758688,69,18,26,1,-2,-2,-15,79
50261770785,-14,-10,-10,-10,-5,-3,1,-55
50261770785,-7,2,31,4,0,1,1,41
50261779826,20,-5,-65,-7,0,-2,-7,-29
50261779826,-17,-2,-20,1,0,0,9,13
50261794043,44,6,29,7,2,2,5,-18
50261794043,-85,-16,-100,-30,-6,-6,-17,-8
50261800841,-12,9,44,2,-2,0,5,11
50261800841,39,-1,-4,0,2,0,25,-24
50261817229,-11,-2,-8,11,0,0,8,2
50261817229,-25,-8,25,1,0,-4,-18,13
50261818678,9,10,22,3,0,0,-29,-56
50261818678,-32,-4,13,-2,0,2,69,38
50261830712,14,-1,-3,-1,-1,-3,-18,-25
50261830712,31,1,6,-1,0,0,9,70
50261839808,-8,7,-8,4,0,-3,-22,-16
50261839808,29,3,20,10,1,1,-14,-45
50261854079,-12,-7,0,-8,-6,-6,-3,-11
50261854079,0,0,-56,-4,1,0,2,-13
50261860816,6,6,-5,-10,-3,-4,-4,24
50261860816,14,-10,13,0,-5,-3,-17,-4
50261877122,-41,7,-32,1,4,2,17,3
50261877122,20,-5,6,2,0,1,-14,-33
50261878675,-3,-3,2,1,0,1,21,28
50261878675,-8,1,3,-7,-3,-3,-6,15
50261890938,17,-1,16,3,2,2,-8,23
50261890938,8,0,7,-4,-4,-4,11,-59
50261899727,-13,-3,1,2,-4,-2,-15,7
50261899727,9,-3,-18,-5,-2,-2,4,-14
50261914005,13,3,10,3,2,2,0,5
50261914005,-4,-3,-35,-4,-2,-1,-3,-16
50261920886,-3,-4,41,8,0,0,-14,-6
50261920886,-58,-8,-61,-21,-1,0,23,-2
50261937320,14,5,32,8,2,-2,-23,-22
50261937320,11,-9,-26,-6,-4,-4,34,4
50261938672,15,1,23,4,0,-1,23,-8
50261938672,-18,-6,-15,4,1,0,-25,19
50261950726,-56,-4,6,-3,-2,0,8,-10
50261950726,6,16,76,13,2,3,-17,5
50261959750,23,-15,-89,-12,-7,-1,-12,22
50261959750,-5,-2,-6,0,-3,-5,-17,7
50261974110,9,-8,12,3,3,2,14,-17
50261974110,9,5,33,10,0,-1,-9,9
50261980738,-9,-3,14,-3,0,-1,21,7
50261980738,11,3,17,-2,-5,-4,-32,7
50261997085,7,0,-28,-5,-2,-2,39,-22
50261997085,-20,-11,-33,-7,1,2,2,-4
50261998742,19,8,22,-1,2,0,-4,22
50261998742,-6,-3,-9,0,0,-3,-62,-63
50262010839,-18,-3,1,-7,0,-2,20,32
50262010839,-27,-7,11,4,2,3,7,-19
50262019695,3,-4,-1,4,1,0,3,10
50262019695,-26,2,-1,-13,-3,-2,-2,-19
50262033998,51,2,-20,0,-4,-1,-8,-2
50262033998,12,9,18,9,-1,-1,-13,18
50262040849,-30,-2,26,-10,-3,-2,-3,2
50262040849,-24,-3,66,7,0,-1,19,-21
50262057246,18,-13,-81,-12,-1,1,-12,37
50262057246,13,-6,-3,2,-1,-4,12,-47
50262058672,8,5,47,9,2,0,7,28
50262058672,5,6,-53,-3,-1,1,15,-64
50262070879,38,3,11,0,-3,-2,0,17
50262070879,-20,-1,42,4,0,-1,-21,12
50262079690,22,1,-47,-8,-2,-1,16,-9
50262079690,-22,-9,14,8,0,-1,-7,16
50262094115,-41,-2,-14,-7,-2,-2,-33,-11
50262094115,56,-2,-26,-5,0,1,6,-2
50262100834,48,7,17,7,1,2,11,83
50262100834,-37,4,-13,-3,2,4,6,-19
50262117145,-20,-4,53,7,-3,-3,-4,-19
50262117145,-52,1,-1,0,0,-1,-7,10
50262118786,6,-5,-1,-2,1,-1,2,20
50262118786,49,9,48,-5,-1,1,-4,8
50262130850,-36,-7,-42,13,-3,-2,-26,-16
50262130850,62,15,-3,-3,0,-1,48,4
50262139767,-88,-29,-19,-11,-5,-4,-17,-64
50262139767,29,1,17,6,0,-3,-15,0
50262154076,14,10,26,-5,2,4,31,11
50262154076,6,3,-14,-1,1,-1,-32,6
50262160850,8,-4,40,7,-4,-6,-1,-13
50262160850,6,-6,-51,-13,-1,0,10,0
50262177219,3,-2,-16,-14,-1,0,-6,1
50262177219,0,-7,5,6,-2,1,10,21
50262178665,15,12,5,-2,-4,-3,8,-17
50262178665,11,-2,-20,1,0,-1,-11,0
50262190689,-74,-17,56,6,1,-3,-1,26
50262190689,-23,-2,-19,-3,0,-1,-5,-11
50262199667,-21,-3,-11,-2,0,1,1,-1
50262199667,6,-5,16,0,0,1,5,9
50262213905,18,12,4,4,0,-2,-2,-10
50262213905,-17,-6,22,-7,-3,-3,6,-49
50262220884,-5,3,-1,5,1,1,-8,-7
50262220884,-15,-19,-28,-8,-1,-2,-8,18
50262237319,13,-4,-39,-18,-1,1,7,-7
50262237319,5,13,18,-2,-4,-5,-15,21
50262238759,-9,-9,-37,-10,-2,-1,-8,-43
50262238759,-10,4,5,8,-3,-2,35,28
50262250871,-2,4,1,4,0,-1,-19,-15
50262250871,28,-6,-15,-5,1,1,23,29
50262267199,2,5,-17,-3,-3,-2,2,4
50262267199,-7,1,62,12,-1,0,-6,-8
50262274120,-30,-11,-59,-17,-5,-2,-22,-10
50262274120,15,-3,-5,0,1,1,8,30
50262280801,-61,7,0,4,0,0,4,-68
50262280801,37,10,36,10,2,-1,-4,35
50262297196,-8,-9,-38,-13,-3,-3,-19,-3
50262297196,-29,-4,-7,-4,0,1,16,-53
50262298651,46,-6,-65,-13,-4,-2,-20,25
50262298651,-11,-4,6,-6,-2,-3,2,-50
50262310874,10,9,5,4,-2,-2,19,-18
50262310874,-6,-19,16,7,-1,0,-22,43
50262319655,-27,2,10,-2,-1,-1,4,4
50262319655,16,9,10,4,0,1,9,4
50262333849,-1,-7,-49,-13,1,1,1,14
50262333849,-32,-2,-1,-4,-3,-2,-40,-29
50262340883,7,5,19,5,2,0,19,26
50262340883,12,1,-31,-6,-1,1,-14,6
50262357180,30,-4,35,7,3,0,12,5
50262357180,-80,10,34,11,0,0,-24,92
50262358671,8,-11,-30,-24,-7,-2,14,-46
50262358671,22,2,-19,-1,-2,-2,3,18
50262370863,11,5,24,3,0,0,11,2
50262370863,31,5,-11,1,0,0,-3,-14
50262379689,0,-5,14,3,0,-3,-11,47
50262379689,-4,-5,6,-2,2,0,13,-14
50262393878,3,9,41,7,-5,-6,-24,-77
50262393878,11,-1,-1,-1,0,2,42,49
50262400721,6,1,46,-1,-1,-3,2,-14
50262400721,22,1,-53,0,-1,1,0,-29
50262417059,-31,-11,-24,-6,2,-1,18,15
50262417059,4,1,-19,-6,-3,-4,-39,-30
50262418640,6,-15,25,7,2,2,21,-7
50262418640,6,9,16,-4,-1,-2,-21,72
50262430715,35,3,18,9,-3,-2,15,-9
50262430715,-78,2,-3,2,0,-2,-14,-40
50262439683,-7,-6,-21,-7,-3,0,-15,26
50262439683,33,-5,-8,3,0,-1,-8,21
50262454042,4,5,3,-1,1,1,-13,-2
50262454042,36,0,-17,-1,0,2,9,37
50262460874,-55,2,16,9,5,4,-6,-23
50262460874,-1,-3,27,-1,-3,-2,9,29
50262476415,-45,-17,-59,-20,-5,-4,0,-17
50262476415,36,2,50,9,-1,-5,3,23
50262483256,14,4,2,2,2,-2,-5,1
50262483256,-23,-2,4,2,0,0,23,-10
50262490839,13,4,27,1,2,1,-21,22
50262490839,1,-1,-16,-5,-3,-3,6,-41
50262499720,54,12,-16,-3,-5,0,-1,23
50262499720,-48,-4,-34,-9,-1,-2,-10,-39
50262513923,-3,1,24,7,0,2,6,42
50262513923,25,-11,-26,-6,-3,-1,-2,-21
50262520942,37,16,27,3,1,-3,-18,-13
50262520942,-4,-14,-17,1,-1,0,-4,27
50262544686,-7,6,43,4,1,0,10,-34
50262544686,32,-1,-44,-3,-1,-1,-1,-13
50262546235,-28,-4,-10,-6,-1,0,-4,23
50262546235,0,2,-3,-3,-1,-2,-8,1
50262550765,12,3,21,3,2,3,23,22
50262550765,-35,-6,4,-5,-2,-3,-11,-20
50262559655,8,5,-3,0,1,-1,-45,-30
50262559655,-33,-2,-2,-4,-1,1,42,15
50262574066,40,6,15,5,0,1,6,12
50262574066,6,3,24,3,1,0,7,3
50262580682,-32,-6,-16,-9,-4,-2,9,-41
50262580682,33,-6,37,10,1,-1,-19,-17
50262596493,-50,-2,-74,-18,-5,-2,1,-2
50262596493,-13,1,61,1,-2,-2,6,10
50262603311,1,-12,-30,0,0,-2,5,14
50262603311,-47,-5,-29,0,-2,-4,-9,38
50262610655,7,18,42,17,1,-1,39,-103
50262610655,-16,-10,-54,-10,-1,-1,0,19
50262619657,29,7,27,5,1,2,-9,17
50262619657,-1,-2,-25,-15,-5,-3,-3,-24
50262634099,12,2,-16,-4,-1,0,-29,25
50262634099,7,3,13,0,-1,0,20,-1
50262640727,-6,4,-27,0,3,4,8,-2
50262640727,-11,-3,16,2,-5,-3,-15,-15
50262656470,-9,-4,29,4,2,-2,-17,31
50262656470,27,-9,-79,-12,-2,-1,0,-32
50262663238,-16,-1,27,9,0,-2,-8,20
50262663238,-21,8,4,-3,2,1,-21,-27
50262679548,63,-10,33,-7,-7,-3,18,25
50262679548,18,2,11,4,-3,-2,2,49
50262681099,3,2,-29,-15,-4,-3,16,-21
50262681099,-12,-6,-2,1,1,-1,-9,-12
50262693861,-14,4,1,9,3,0,-5,20
50262693861,9,12,33,-1,5,2,-21,1
50262700722,-23,-14,12,-3,-10,-6,13,6
50262700722,-19,4,60,12,-1,-1,14,-22
50262716566,65,7,-78,-15,-1,-1,4,26
50262716566,-76,-14,57,8,-1,-4,-17,-20
50262723303,-6,0,7,4,2,-2,-4,-10
50262723303,48,0,-12,-4,-1,2,39,-36
50262739644,14,6,19,13,0,-3,-17,1
50262739644,-68,-14,-66,-20,-5,0,-8,3
50262741184,40,-5,1,-2,-1,-1,-5,-9
50262741184,11,-3,-10,1,1,-2,-16,-10
50262754525,-7,-2,-2,-3,1,0,8,34
50262754525,19,10,13,5,2,2,-1,-44
50262760876,-11,-3,-27,-3,-1,-1,-15,17
50262760876,14,8,43,0,-3,-1,31,10
50262776392,-35,-11,4,0,-2,-2,-26,50
50262776392,45,-4,-4,0,-2,-2,11,-21
50262783179,2,2,7,2,3,0,-3,8
50262783179,3,7,-21,-11,-1,1,-6,9
50262799494,-9,-2,-5,5,0,-2,12,-16
50262799494,0,-1,11,-6,-3,-2,0,14
50262801132,7,5,20,5,-1,-2,11,12
50262801132,22,3,-18,-4,-1,-1,2,-36
50262813878,-92,-2,-2,-1,-3,-3,-17,-15
50262813878,52,0,-11,-5,-1,-1,7,-5
50262820848,6,8,40,12,1,2,10,2
50262820848,-1,-1,-6,-6,1,-2,-13,14
50262836535,25,-3,23,6,-2,0,-24,-4
50262836535,-56,-14,42,4,3,2,18,-54
50262843332,2,1,-59,-4,-5,-2,-9,12
50262843332,-4,-5,10,4,0,2,19,20
50262859702,33,5,-10,-8,-2,-3,-2,-1
50262859702,-4,1,-18,0,1,-2,9,51
50262861192,-12,-2,36,7,1,0,35,-78
50262861192,-20,-9,-30,-6,-3,-4,-26,0
50262874133,10,-2,-27,-11,-1,1,6,-34
50262874133,41,3,4,-1,-2,0,-9,21
50262880812,-67,-6,-11,-8,-3,-1,-5,7
50262880812,35,7,19,5,-2,-3,-15,-18
50262896554,-17,-6,-31,4,1,-1,-2,-18
50262896554,26,6,24,-7,-1,-2,16,6
50262903201,13,-1,3,5,0,-1,-9,23
50262903201,-55,-17,2,1,-1,-2,-5,-6
50262919670,38,0,-17,-6,-1,-1,-10,24
50262919670,-7,3,4,1,-4,0,7,-29
50262921187,28,3,30,2,0,0,-4,20
50262921187,14,-5,-48,-9,0,-1,12,16
50262933994,-78,-9,18,3,-5,-5,-17,-22
50262933994,6,2,-12,0,-2,-3,-14,4
50262940739,-3,-6,-16,-15,-2,-1,-7,-8
50262940739,47,11,1,3,1,1,21,37
50262956419,-48,-5,14,9,3,3,-10,17
50262956419,3,-9,-76,-15,-5,-2,-28,-44
50262963327,24,11,-7,-1,0,0,13,15
50262963327,-20,-7,-3,-1,1,-1,-12,-7
50262979758,17,3,4,-1,-2,0,18,-5
50262979758,53,0,4,2,0,-2,16,13
50262981143,-40,-2,-24,1,1,2,-5,9
50262981143,8,3,13,1,-1,-3,-24,25
50262994034,11,0,9,-5,0,0,17,-9
50262994034,-4,13,30,11,3,2,-6,-14
50263000655,-14,-19,-33,-8,-6,-6,3,13
50263000655,-8,-4,-47,-4,-3,-3,-33,-2
50263016576,-2,-4,11,-7,0,0,26,-10
50263016576,-14,2,9,8,2,1,-28,8
50263023377,-5,-5,-4,6,-1,0,-5,15
50263023377,24,6,22,-8,-2,1,12,-6
50263039726,51,2,-32,-1,-3,-5,-31,-19
50263039726,-25,-15,7,-2,-1,-2,31,36
50263041151,-10,8,30,5,0,-1,-9,-63
50263041151,-35,-7,-15,0,1,1,-8,7
50263054055,53,12,10,-1,0,0,0,-13
50263054055,1,-1,7,1,-2,-3,-9,29
50263060748,2,-7,-13,-7,0,-2,-15,40
50263060748,-31,-2,34,7,2,-1,28,-66
50263076382,-9,-10,-7,-6,-2,0,-10,14
50263076382,-33,-4,-29,-1,1,0,-4,-11
50263083211,2,-4,13,-3,-2,-2,1,2
50263083211,49,3,-11,-3,-3,-1,-1,-5
50263099507,-44,-4,23,9,4,1,3,8
50263099507,85,9,-25,-2,-2,-2,-8,-15
50263101126,-64,-28,-52,-21,-3,-1,-5,10
50263101126,20,13,69,7,0,1,5,-53
50263113880,-29,-8,-12,5,1,4,24,-42
50263113880,46,14,23,4,1,1,-8,40
50263120638,23,2,0,-1,1,1,12,-71
50263120638,-41,-5,-6,-5,-1,-5,-10,11
50263136403,2,7,24,1,-4,-4,-43,-13
50263136403,-37,-11,-9,6,3,2,15,-10
50263143147,29,12,11,4,-1,1,13,39
50263143147,-35,-12,-44,-13,-4,-2,-11,6
50263159654,38,-2,29,2,-2,-2,-12,28
50263159654,-78,2,-11,-18,-2,-3,3,-24
50263161317,0,2,24,5,-1,-3,8,21
50263161317,10,-2,-24,6,-2,-2,-9,10
50263173189,2,-2,-22,-9,0,0,8,26
50263173189,-9,-8,43,3,-3,-2,-17,4
50263182109,22,2,-9,-3,0,0,-13,5
50263182109,-15,0,43,0,0,2,18,10
50263196329,-7,-6,-58,-4,-2,-3,15,-9
50263196329,22,-1,-40,0,-1,-1,-9,6
50263203282,-5,-1,43,-2,-6,-7,-39,-48
50263203282,-12,-6,4,9,3,4,13,95
50263219670,-9,-4,5,-14,0,-1,7,-13
50263219670,-21,-6,-58,-13,0,1,10,0
50263221142,73,13,19,14,-1,1,-2,39
50263221142,-17,-1,13,6,0,-1,1,-1
50263233289,42,1,9,0,2,0,10,-8
50263233289,-84,-1,12,5,-1,-2,6,-1
50263242223,3,4,-15,-7,2,2,7,-6
50263242223,44,5,7,-4,-3,-1,-11,-17
50263256534,-15,0,-18,-1,-3,-1,-25,-10
50263256534,23,1,59,7,2,2,38,-18
50263263122,-30,-5,-18,-1,-1,-1,19,11
50263263122,9,8,14,2,1,0,-15,-4
50263279504,-73,-15,33,-5,-3,-4,-9,-11
50263279504,11,5,-26,-1,-6,-4,-18,3
50263281107,-12,-12,-21,-2,1,-3,6,-14
50263281107,-6,-1,12,2,-3,-4,-11,-21
50263293273,57,9,23,6,0,1,-2,33
50263293273,-66,-7,29,5,0,0,-17,17
50263308317,21,2,-9,-13,-4,-2,12,-23
50263308317,2,0,0,3,-4,-2,24,12
50263316546,21,-5,-8,-1,-1,-1,-13,-10
50263316546,20,1,-4,-2,-2,-1,-20,12
50263323217,-2,4,-13,5,1,-2,11,-53
50263323217,-18,-6,-10,-4,-1,0,-10,3
50263339594,1,5,-15,-3,1,0,10,-1
50263339594,76,4,1,0,-2,-1,2,-8
50263341118,-63,-11,-3,-1,2,2,-7,21
50263341118,42,2,-7,-6,0,-3,5,-10
50263353333,-29,-1,24,8,0,-1,5,-6
50263353333,86,8,8,-2,-1,-1,-13,-6
50263362166,-108,-13,19,4,-4,-3,6,-7
50263362166,31,-13,-51,-5,-2,-3,-3,45
50263376473,21,2,7,0,0,2,22,7
50263376473,-20,-3,7,0,0,-3,-8,12
50263383149,23,4,9,7,1,1,9,9
50263383149,27,9,18,-4,-1,0,-2,4
50263399631,-19,-2,-6,1,-2,-1,-2,27
50263399631,-49,-12,-44,-19,-3,-2,9,-18
50263401127,30,0,-9,4,-2,-3,-12,26
50263401127,14,6,11,2,-2,-2,-7,-29
50263413154,-7,7,19,-7,-2,0,5,6
50263413154,26,-3,20,5,1,2,2,-11
50263422178,52,3,6,3,0,1,-1,12
50263422178,-92,-12,33,-5,-2,-2,-5,-20
50263436337,-1,-8,-25,-1,0,-4,5,-19
50263436337,3,1,16,3,2,0,-1,-5
50263443289,-10,7,0,0,-3,-4,-13,-13
50263443289,-33,-9,-4,2,-2,-2,12,0
50263458943,6,2,14,1,-1,-2,16,36
50263458943,24,6,19,6,1,-2,-37,-47
50263465796,13,-21,-82,-22,-1,2,16,3
50263465796,-48,4,11,-1,-3,-3,-16,-66
50263473349,-2,-4,-13,-3,-1,-1,13,-7
50263473349,-11,0,19,0,-5,-3,-16,13
50263482180,24,18,47,9,1,-2,-2,9
50263482180,8,-11,-35,-3,4,3,4,16
50263496472,-10,-9,7,1,-4,-5,-36,-22
50263496472,-1,0,-30,-2,1,-2,10,-17
50263503304,22,6,34,2,-1,0,-13,5
50263503304,-32,0,-18,-2,0,1,15,-2
50263518811,28,3,-19,-4,-1,-1,-10,8
50263518811,-7,-1,11,9,-1,1,1,7
50263525629,1,2,41,6,0,1,15,1
50263525629,20,-1,-80,-8,-2,0,-36,16
50263533337,17,-1,32,-1,0,-1,15,-24
50263533337,-33,-13,-58,-9,-4,-2,17,1
50263542144,17,-6,-33,-9,0,-4,-61,-24
50263542144,15,12,12,6,0,1,42,-28
50263556433,-7,0,30,1,-3,1,-6,-4
50263556433,44,0,-7,-3,-2,-2,1,20
50263563307,-28,-8,-20,-3,-4,-5,-14,27
50263563307,5,-2,10,-5,-1,-1,5,8
50263578920,11,-5,-48,-5,-1,0,2,-10
50263578920,-22,3,36,11,-1,-1,-1,17
50263585819,77,8,-4,-8,-3,-1,17,7
50263585819,-40,-15,-5,-5,-2,-2,-5,-8
50263602002,-65,-1,7,2,-1,-1,-4,2
50263602002,-5,2,-1,-8,0,0,11,1
50263603646,-2,1,9,6,2,1,11,3
50263603646,38,8,2,-1,2,0,-25,-8
50263616484,3,-8,19,7,2,0,4,-8
50263616484,-20,-13,-84,-15,-3,0,-40,70
50263623367,-16,7,48,12,0,-1,25,-56
50263623367,44,1,-18,-8,-1,0,3,9
50263639044,-9,6,-9,-3,-3,-3,-27,-23
50263639044,-32,-2,24,2,2,0,37,38
50263645748,10,-4,-2,-4,-1,0,9,10
50263645748,-20,-8,-43,-8,1,0,-10,-32
50263662180,36,4,-13,-4,-1,0,53,8
50263662180,49,2,22,9,1,2,-6,-25
50263663637,-95,-11,-17,-10,-1,1,-13,-6
50263663637,98,3,-7,6,-3,-4,17,12
50263676533,-24,4,3,-1,-2,-3,-27,13
50263676533,-10,3,9,-3,1,0,4,-31
50263683346,-7,2,0,4,1,0,9,25
50263683346,8,5,17,3,0,-1,-15,23
50263699015,7,1,-12,2,0,2,23,31
50263699015,6,-1,17,-1,-1,-2,-1,-79
50263705827,-5,-3,-17,0,-1,-2,10,6
50263705827,-27,-1,18,-1,-1,-1,-52,-22
50263721987,1,7,-42,-4,-4,-2,27,28
50263721987,14,0,18,6,1,-1,3,5
50263723598,41,-13,-50,-22,-6,-3,-11,79
50263723598,-84,1,52,7,-4,-4,7,-81
50263736504,-1,-11,-37,-4,-1,-1,-3,-10
50263736504,2,-8,28,-1,1,-1,-1,-1
50263743376,41,8,-4,2,-3,-2,-18,0
50263743376,-37,-6,5,1,1,3,20,38
50263759033,36,7,25,-1,-1,-4,-25,-3
50263759033,-19,3,0,-4,-3,0,13,-18
50263765905,16,3,26,9,3,-1,-1,-10
50263765905,-9,-5,1,-10,-2,0,-12,49
50263782125,51,9,16,1,0,2,-17,-58
50263782125,-38,-6,2,2,0,0,-2,32
50263783674,-17,3,55,5,0,1,-2,-23
50263783674,31,-3,-61,4,-4,-3,-2,23
50263796505,2,-6,13,-2,0,-1,-25,-18
50263796505,-5,4,9,0,0,0,1,18
50263803232,-22,-5,-48,-7,-2,-1,17,-49
50263803232,58,4,20,5,0,1,6,3
50263819056,-58,-11,-6,-8,1,-3,-8,-9
50263819056,30,-5,-33,0,-2,-2,-15,-20
50263825626,-29,0,26,8,0,3,19,-4
50263825626,19,-5,-51,-19,-1,-2,-30,-23
50263842123,-16,-1,-19,0,-3,-3,26,88
50263842123,31,6,26,-6,0,-2,19,-43
50263843797,-57,-4,-27,-4,2,0,-14,12
50263843797,11,-10,38,9,-3,-2,3,3
50263856468,-22,6,-16,-11,1,1,-9,10
50263856468,8,5,-12,-8,-2,-1,-14,13
50263863362,-9,-12,-24,3,-1,0,6,3
50263863362,34,7,16,4,0,-2,17,-14
50263878117,-47,-9,9,2,-1,1,-8,-18
50263878117,18,7,22,7,-2,0,29,19
50263885648,-41,-2,16,-8,-3,-5,-28,36
50263885648,-29,0,-17,0,0,1,5,-27
50263901300,19,-1,44,13,1,1,7,-4
50263901300,-17,0,-44,-8,-2,-3,-19,-18
50263902059,26,1,17,1,-2,-3,-6,21
50263902059,-47,7,6,0,0,-1,12,11
50263917116,9,-1,29,3,-5,-4,-19,27
50263917116,-9,-8,-19,-3,0,-1,13,-89
50263923310,5,0,18,-2,-1,0,0,-6
50263923310,-7,-4,-12,3,1,1,-13,10
50263938349,44,5,-16,-2,1,0,29,3
50263938349,-61,-2,-1,1,3,1,-24,23
50263945836,68,-4,5,1,-5,-4,2,11
50263945836,-14,2,20,-3,0,-3,13,-16
50263961482,6,0,-16,-2,1,0,-24,-37
50263961482,19,1,-14,1,-2,0,33,72
50263962097,3,6,31,2,4,2,-33,-26
50263962097,12,-2,5,-7,-3,0,-5,11
50263977138,-19,-6,-33,-10,-4,-4,19,8
50263977138,13,-2,0,2,-2,-2,-12,-80
50263983386,-60,-2,-5,0,-1,0,-16,-25
50263983386,-6,-5,5,-3,-3,-3,-1,55
50263998128,35,2,19,3,-1,0,6,-53
50263998128,-10,-4,-11,-7,-1,-3,-10,36
50264005653,38,8,1,0,1,0,20,3
50264005653,13,-3,-19,-4,-2,-2,10,8
50264021289,-34,-1,13,4,2,0,-3,-5
50264021289,25,6,12,2,-4,0,-12,16
50264022054,23,-8,-35,-13,-2,-2,6,-6
50264022054,6,11,37,15,1,-1,-23,1
50264037117,-5,-1,13,9,2,1,-23,-21
50264037117,23,17,-11,-18,-1,3,42,81
50264043111,39,-2,6,6,2,0,4,-22
50264043111,-18,4,13,0,-1,-2,10,-4
50264058150,0,4,17,2,-1,0,-3,41
50264058150,-37,-12,-48,-2,-2,-1,-14,-95
50264065614,8,-6,-54,-2,-2,-3,-1,-4
50264065614,-10,1,16,1,-1,-1,12,-30
50264081230,11,0,5,-2,-1,0,0,-10
50264081230,-3,-10,31,6,-1,-3,-8,38
50264082031,-26,2,-31,-4,1,0,1,-42
50264082031,-10,-10,-30,-6,0,-2,0,-4
50264097074,9,0,2,1,0,0,45,20
50264097074,-7,-7,10,2,-1,-1,-1,-3
50264103138,-4,1,9,0,-1,-2,-16,18
50264103138,-10,1,-4,1,0,-1,13,26
50264118126,38,0,-15,-2,-1,2,-14,-37
50264118126,-23,4,-8,-1,-1,-1,-38,-24
50264125653,-3,-7,34,0,-6,-4,27,37
50264125653,-31,19,9,2,-2,0,-20,-3
50264141242,-1,-19,-22,-9,0,-3,-5,25
50264141242,7,6,13,9,4,1,-12,-19
50264142046,9,4,-11,-12,-2,2,-6,28
50264142046,-2,-7,17,9,0,-1,4,-35
50264157095,-13,-5,-30,-18,-4,-2,-17,41
50264157095,-2,1,15,9,0,-2,13,-3
50264163124,-2,4,-6,1,-1,-1,1,-1
50264163124,40,-4,8,-1,-1,1,12,31
50264178075,7,-4,-39,-10,-3,-2,-3,-7
50264178075,3,-4,-14,-6,0,0,5,25
50264185608,17,5,15,3,2,1,11,6
50264185608,-90,-12,1,-6,-2,-2,-3,-15
50264201320,39,2,-18,9,3,0,8,-17
50264201320,-29,-4,6,-7,-4,-1,-36,-10
50264202076,2,1,-10,-7,-2,0,39,33
50264202076,29,-1,-6,1,4,1,-8,6
50264217095,-8,10,10,0,-4,-6,-1,-13
50264217095,-35,-8,26,0,0,-1,-4,4
50264223074,29,-4,-35,4,-3,-2,-21,1
50264223074,7,-6,-18,-10,1,0,26,-6
50264238074,-22,7,10,-2,-1,1,2,24
50264238074,19,4,46,7,0,-4,5,-12
50264245631,-38,-9,-39,-1,1,-2,-24,0
50264245631,103,14,20,0,-2,-1,-3,6
50264261269,-110,-20,-13,3,1,0,-2,-59
50264261269,27,1,6,0,-1,0,3,10
50264262083,10,2,22,6,3,2,8,13
50264262083,17,2,12,-7,-4,1,-6,3
50264277118,-14,-1,10,0,-3,-4,-25,-29
50264277118,14,5,5,2,0,0,25,30
50264283090,-33,-9,-26,-4,4,1,-35,-29
50264283090,-4,-8,0,10,-1,-1,-17,-5
50264298111,22,18,24,-3,-2,0,1,29
50264298111,-22,-19,-38,-11,-3,-1,16,-48
50264305607,29,12,8,-3,-5,-3,-6,-28
50264305607,-6,-1,20,4,1,0,10,6
50264321294,34,3,11,5,1,-1,-7,27
50264321294,-9,7,12,6,2,-1,6,-66
50264322061,-1,-12,-60,-13,-2,-2,3,-20
50264322061,-1,1,37,7,-2,-3,-1,2
50264337135,0,-4,0,3,-2,-2,2,-11
50264337135,-7,12,-27,-12,-3,2,7,53
50264343104,70,-2,66,9,-2,-2,-7,0
50264343104,-5,1,-65,-8,-2,-2,10,-11
50264358118,14,-4,-9,-2,0,-4,-51,-28
50264358118,-17,-6,-15,4,1,1,33,74
50264365626,-21,6,12,1,1,-2,5,0
50264365626,-2,-6,-16,-14,-3,0,-1,25
50264381266,19,5,16,2,-1,0,2,-26
50264381266,37,5,12,6,-3,-3,-3,-35
50264388210,4,-5,16,-5,-2,0,18,5
50264388210,-23,-1,-9,12,1,0,-19,18
50264397140,-2,-7,-33,-11,-1,-2,13,23
50264397140,33,-6,15,-8,-4,-2,-13,34
50264403182,-24,9,30,3,2,2,-3,-11
50264403182,-29,-6,-1,1,-1,-1,-9,-23
50264418199,10,-1,8,-3,-2,0,23,-4
50264418199,-14,-3,-6,3,-2,-2,-19,8
50264425766,-1,4,3,-2,2,1,-19,0
50264425766,11,-5,8,-11,-3,-2,0,4
50264440797,-50,-4,2,2,0,1,5,18
50264440797,70,10,8,3,0,-1,-7,-6
50264448240,-96,-5,23,3,0,1,-6,78
50264448240,-23,-9,-52,-11,-2,0,29,-40
50264457141,54,5,27,9,1,1,-1,7
50264457141,-45,-8,-29,-8,-1,0,-12,-12
50264463228,-8,5,20,6,-3,-1,23,13
50264463228,27,11,24,8,3,2,-11,-3
50264478296,25,-4,0,-2,-4,-2,8,11
50264478296,23,12,0,2,-1,0,-11,44
50264485841,-7,-4,-27,-13,-2,-1,25,-99
50264485841,-32,-7,40,5,0,0,-2,27
50264500725,32,-2,-14,-6,-2,0,-3,-6
50264500725,-94,-12,14,3,-1,-4,-11,-6
50264508380,59,3,-3,0,-2,-2,-4,6
50264508380,-62,-15,-27,-8,-3,-2,9,-6
50264517115,-33,1,38,8,-2,1,-5,10
50264517115,16,-5,-29,-8,-1,-2,5,-8
50264523160,13,5,-1,2,2,-1,-30,-8
50264523160,16,6,0,0,-2,-4,-3,-23
50264538195,-7,-2,18,6,2,0,-16,98
50264538195,-26,-10,-13,-4,1,2,-20,-62
50264545823,25,9,9,3,-2,0,12,46
50264545823,-1,1,1,-1,-1,0,-15,-14
50264560828,6,-9,-17,-12,0,-3,14,-10
50264560828,13,-6,24,7,0,-2,-26,-16
50264568333,50,-12,-19,-7,-4,-4,16,-35
50264568333,-66,4,-10,-2,-3,-2,-23,6
50264583696,-86,-14,-1,-1,-2,-5,-3,-26
50264583696,10,2,-8,-5,1,5,34,11
50264591457,4,-3,-15,12,1,1,-23,-16
50264591457,-38,-17,-38,-13,-2,-2,-2,21
50264598280,27,9,-22,2,-1,-1,16,-40
50264598280,-12,0,-28,2,-4,-3,-16,31
50264605828,-17,-1,35,-1,-4,-3,-12,13
50264605828,63,7,13,5,1,0,-7,37
50264620868,-8,-2,-24,-9,3,2,55,-7
50264620868,-56,3,10,0,-2,-3,8,-14
50264628256,-60,-6,16,-4,-3,0,19,15
50264628256,71,3,-10,-5,-1,-2,-17,-44
50264643820,-51,-10,-29,-1,-3,-1,27,42
50264643820,36,-8,-4,-5,1,2,12,12
50264644832,12,16,8,-1,-1,-2,-14,-10
50264644832,-31,-2,-32,-3,2,-1,6,54
50264658315,7,3,62,7,-2,-3,-20,-52
50264658315,35,-2,-61,-4,-1,0,6,3
50264665848,-22,-24,-35,-13,-1,1,6,4
50264665848,19,0,16,6,-1,0,-32,-20
50264680728,35,11,25,1,2,3,38,16
50264680728,-19,-11,-23,-5,-5,-5,5,-7
50264696512,8,3,11,-1,0,-2,-18,-17
50264696512,13,1,2,-2,-1,1,14,28
50264703977,7,0,-46,-3,1,2,-34,-34
50264703977,-12,3,83,6,1,1,10,34
50264704672,21,-7,-41,-6,-2,-3,3,-15
50264704672,36,10,24,3,-2,-1,9,-1
50264718310,1,-7,13,2,-1,-1,-24,8
50264718310,-68,4,40,9,0,-3,-4,-18
50264725868,2,1,-26,0,0,-3,-11,18
50264725868,14,6,23,9,3,0,19,-34
50264740862,23,3,-9,-4,-1,1,-17,8
50264740862,22,3,46,1,-1,-3,1,-53
50264748304,-33,-9,-16,2,1,5,-5,-10
50264748304,-2,-6,19,-7,-6,-4,12,-2
50264763787,-20,-6,-10,-5,-1,-4,-10,-49
50264763787,9,1,-3,0,1,1,-1,19
50264764578,5,5,4,2,0,-2,-6,1
50264764578,26,-5,13,0,1,1,14,-6
50264778251,-33,-25,-35,-4,-4,-1,7,-11
50264778251,44,11,26,5,-1,-1,-20,-4
50264785873,-5,-1,-25,-4,-1,-1,-5,-14
50264785873,4,-6,-8,0,1,2,8,15
50264800655,-56,0,0,-11,-1,-3,0,9
50264800655,13,-1,-18,1,0,0,9,9
50264808297,10,0,12,2,-3,-3,2,-18
50264808297,-30,-5,-32,-6,0,0,17,8
50264823970,-2,6,40,5,-2,-2,-8,5
50264823970,7,-3,-33,-14,-4,-3,-11,10
50264824679,-15,3,48,4,0,0,31,-52
50264824679,2,-12,-78,-9,-3,-3,-32,18
50264838333,11,1,-2,7,3,1,-4,-4
50264838333,-7,6,5,-3,-2,0,12,15
50264845842,13,-11,18,3,0,0,4,24
50264845842,-88,-2,50,10,-2,1,-33,-25
50264860840,87,-6,-34,-10,0,0,-8,25
50264860840,1,3,9,6,0,0,-3,-28
50264868345,-4,-1,-31,-15,0,0,-15,32
50264868345,1,7,17,2,-2,-1,16,-19
50264883833,13,8,17,7,1,0,22,32
50264883833,6,-4,-17,-11,-1,0,10,19
50264884572,-34,-8,-4,-2,-1,0,-1,2
50264884572,35,9,15,4,0,0,-15,-1
50264898160,4,4,31,7,2,-1,-4,-11
50264898160,21,-5,-48,-8,-4,-5,-4,9
50264905872,-29,5,61,5,0,0,25,-43
50264905872,-8,-6,-54,-7,-4,-4,-3,0
50264920743,-7,3,16,-6,-1,0,-10,-6
50264920743,-7,-7,-14,6,-5,-1,7,-21
50264928264,58,13,5,4,0,-2,0,55
50264928264,-59,-7,38,7,2,-3,-40,-51
50264943964,88,4,-30,-3,-3,-3,6,73
50264943964,-18,3,-10,-5,1,1,24,18
50264944681,-12,-3,-16,-1,-1,0,10,-14
50264944681,0,8,-20,-8,-1,-1,8,-4
50264958325,-11,-4,-9,1,-5,-4,-4,-7
50264958325,30,-6,33,3,4,1,-26,-4
50264974007,8,-3,0,4,-3,-3,-6,21
50264974007,16,3,9,-4,0,1,27,-13
50264980725,-28,1,-3,-5,-3,-3,-14,-9
50264980725,0,4,14,6,0,1,9,16
50264988314,-21,-3,75,3,1,2,9,-55
50264988314,4,-9,-68,-15,-1,-1,-8,82
50265003799,35,3,60,5,-2,-2,-9,-94
50265003799,23,5,22,3,-1,-2,-7,10
50265004645,-9,-2,-9,4,2,-1,-10,26
50265004645,32,7,-12,-4,1,-1,10,6
50265018255,-38,-9,45,8,-3,-3,-18,-18
50265018255,-21,-8,-28,-3,0,0,4,-48
50265025673,18,-2,-42,-4,-3,-1,-15,-15
50265025673,14,12,45,3,0,1,21,38
50265042120,-33,-4,-46,-4,2,0,3,-28
50265042120,6,9,11,-3,-1,-1,-25,-4
50265048306,-14,-14,-29,-7,-5,-2,14,31
50265048306,9,-2,14,-3,-2,0,-5,-27
50265063943,53,15,15,8,4,2,7,21
50265063943,-35,-10,-62,-18,-6,-4,-4,7
50265064680,1,-2,14,4,-2,-2,-11,30
50265064680,1,-7,11,7,0,-2,8,-65
50265078262,35,-4,-12,-1,2,2,2,28
50265078262,-40,-2,-16,-11,-3,-1,-5,1
50265085755,-13,4,27,0,-1,-2,-2,3
50265085755,5,-5,17,4,-3,-2,-14,-11
50265100766,-30,-2,10,0,1,0,23,14
50265100766,36,4,16,8,2,1,9,-15
50265108295,-46,-11,-30,-4,-4,-2,-17,13
50265108295,11,-1,16,-3,-1,0,-10,-8
50265123959,6,10,3,-2,-2,-1,-28,5
50265123959,-32,-13,-4,-2,-3,-5,-7,118
50265124580,48,12,-17,-5,2,4,31,-84
50265124580,-44,-7,-2,11,-5,-6,-5,11
50265146473,-14,-7,-25,-14,0,1,-9,-2
50265146473,17,3,-7,-1,-1,-1,1,17
50265147065,11,5,49,14,4,-2,-9,16
50265147065,-6,5,-35,-18,-2,-2,-14,9
50265160708,-8,-6,-12,-1,-4,-2,-12,12
50265160708,-67,3,19,8,2,1,47,-22
50265168265,-2,-14,-2,-4,0,1,-18,-4
50265168265,-2,-1,-6,0,2,3,19,13
50265183989,63,-3,9,-2,-1,0,-3,32
50265183989,-55,-8,-19,-3,-3,-2,-11,-42
50265184556,-24,-1,-19,-3,-2,-2,3,8
50265184556,-19,-13,4,-2,-1,1,16,16
50265198349,-46,3,29,10,-1,1,-7,-20
50265198349,73,2,-32,-7,0,1,-6,-87
50265205807,-12,0,39,-1,-5,-4,-6,9
50265205807,4,1,-19,-6,-2,-2,12,2
50265220734,-47,-4,-21,-16,0,-2,8,-42
50265220734,37,-7,36,16,0,-1,-17,4
50265228315,-21,1,-29,-2,0,-2,-1,27
50265228315,7,0,15,1,1,0,6,-13
50265243937,-8,1,-11,5,0,-3,9,20
50265243937,14,-1,-12,-7,-1,0,-1,8
50265244513,31,3,-42,-11,-1,2,8,0
50265244513,14,-4,15,7,-2,-4,-3,9
50265258257,-14,3,-4,1,-1,0,17,14
50265258257,-17,-23,8,-3,-1,-5,-43,-30
50265265806,-10,5,-15,-2,3,4,55,64
50265265806,54,13,52,11,-1,-2,-41,1
50265280835,-38,-14,-95,-18,-3,-5,2,-4
50265280835,28,11,53,11,2,-1,10,-13
50265288164,-9,-4,2,-3,-3,-5,-32,-20
50265288164,-16,-2,15,3,0,2,19,-8
50265303310,7,-6,12,2,-1,0,13,-31
50265303310,10,6,-6,1,1,0,-6,30
50265311492,31,2,-30,-7,-1,-1,-4,-5
50265311492,-5,-3,28,3,1,-2,-49,-20
50265318141,-14,-1,-21,3,0,-1,3,7
50265318141,-8,-1,-4,-8,-2,0,11,25
50265325844,41,0,15,-1,-4,-3,-13,6
50265325844,16,-6,-27,-14,-2,0,12,-26
50265340640,-9,4,48,12,1,-2,-7,21
50265340640,-41,-12,-47,-11,-3,1,-10,-6
50265348234,32,1,49,6,-4,-3,33,47
50265348234,8,1,-58,-6,-1,0,21,4
50265363270,7,3,13,-4,-1,1,-7,-24
50265363270,-29,2,37,6,-1,-1,14,10
50265371347,-8,-12,10,5,3,-2,-27,-32
50265371347,-1,-3,-9,-10,0,-1,-6,28
50265378287,41,5,28,11,2,2,5,7
50265378287,-69,-7,8,-2,-1,0,-4,7
50265385834,10,10,-26,-10,-3,-1,-6,-25
50265385834,4,-5,1,3,-1,-2,-1,5
50265400916,-4,-2,-16,-4,-1,1,-7,25
50265400916,38,10,43,6,-1,-2,12,18
50265408314,-88,-10,-28,-6,-2,0,-23,-20
50265408314,31,-8,-65,-6,-2,-1,12,26
50265423255,27,5,46,0,-4,-2,-11,-6
50265423255,-25,-7,-64,-22,-4,-4,13,-6
50265431465,-33,-3,11,6,-2,-2,-2,-10
50265431465,-5,2,-1,2,0,-1,-15,-15
50265438327,-11,-2,11,0,-2,0,41,-21
50265438327,30,-1,30,3,-1,-2,-33,19
50265445730,26,0,-29,-6,2,4,7,11
50265445730,-29,-1,20,1,-2,-3,-9,-16
50265460724,-67,-11,-35,-11,-5,-4,-1,-5
50265460724,24,4,-39,7,2,1,17,26
50265468245,-14,-2,-6,-4,1,0,-15,-27
50265468245,19,2,40,5,-3,-1,3,37
50265483261,-16,-5,-19,-4,-2,-1,-26,-18
50265483261,3,-11,-15,-9,-1,-1,12,-14
50265491475,-40,8,59,15,-2,-1,-1,16
50265491475,32,-8,-60,-13,-4,-3,20,5
50265506299,-34,-7,5,-1,-2,-5,-5,6
50265506299,3,0,6,3,0,0,13,-27
50265507078,11,2,-6,1,-1,0,6,8
50265507078,-34,8,68,10,-7,-4,0,-34
50265520683,52,2,-21,-8,-1,0,-8,20
50265520683,6,-4,1,5,-1,-1,9,-81
50265528315,15,-2,-3,-1,-2,-4,-18,-5
50265528315,-33,1,5,1,0,1,-13,-30
50265543142,38,0,0,2,1,2,26,29
50265543142,14,9,19,-1,1,-1,-16,-28
50265551332,17,-10,-96,-15,-5,-2,-4,32
50265551332,-19,-5,23,-1,0,1,-6,-30
50265566431,-5,-1,15,3,-1,0,22,-3
50265566431,22,2,25,2,0,0,-10,37
50265567074,3,13,-19,-2,-1,-3,-33,-21
50265567074,-5,-5,-4,-3,3,3,37,-2
50265580836,-17,2,20,5,-6,-5,-21,30
50265580836,-29,-4,23,-1,-4,-3,0,-2
50265588307,59,-3,-32,-3,4,0,-13,-17
50265588307,-91,5,27,9,-1,-1,10,10
50265603299,25,2,22,-4,-4,-2,-20,25
50265603299,13,-12,-8,2,1,-2,-10,-56
50265611441,-17,1,70,0,-1,0,18,-1
50265611441,73,5,-20,12,0,-2,-9,14
50265626453,-56,-4,-15,-21,-2,-1,4,-12
50265626453,13,4,58,8,-5,-2,-34,78
50265627111,-2,-10,-70,-12,1,0,27,-73
50265627111,21,3,31,1,-1,-1,12,21
50265640832,27,-2,-24,1,2,0,-44,-53
50265640832,15,5,-21,-6,0,2,38,62
50265648191,-75,-7,34,5,-3,-4,8,3
50265648191,11,-3,-7,-1,3,1,-18,-12
50265663248,-59,0,-9,1,2,-1,1,-9
50265663248,7,6,3,2,0,0,3,-13
50265671293,20,-5,29,7,-2,-3,-12,20
50265671293,-21,-4,-56,-16,-1,0,17,-30
50265686467,33,-9,17,-1,0,-2,5,22
50265686467,11,2,5,11,0,0,-4,-13
50265687098,8,2,-12,-8,0,0,13,6
50265687098,6,-2,-5,-2,-3,-4,-44,2
50265702094,-5,4,20,5,-2,-1,11,27
50265702094,14,-2,-82,-18,-3,-1,29,-97
50265708318,-71,-7,33,9,1,0,-17,0
50265708318,3,-2,-2,-5,0,1,-5,9
50265723201,6,4,-17,2,-1,-2,-7,-3
50265723201,8,0,27,3,1,-1,-4,31
50265731436,-56,8,-19,-2,-1,2,12,-5
50265731436,-5,-13,-68,-8,1,3,6,6
50265746442,-71,-3,5,1,0,-2,-5,-33
50265746442,-22,-8,1,-7,-1,0,-25,20
50265747099,79,8,2,2,1,0,15,8
50265747099,22,7,47,12,0,-1,8,-3
50265760773,43,5,-52,-17,0,2,-14,8
50265760773,-40,-12,26,8,-5,-4,-4,0
50265768289,18,4,-2,-1,0,0,-5,-12
50265768289,-36,9,31,7,-3,-1,25,21
50265783244,86,-13,-7,-2,1,2,5,-9
50265783244,-49,6,6,-5,1,-2,-4,0
50265791454,34,-10,0,3,-3,-1,-12,-3
50265791454,-44,0,27,6,1,-1,8,-5
50265806449,-2,4,5,0,-2,0,23,5
50265806449,5,10,-11,0,0,1,0,22
50265807031,38,6,30,11,1,0,-9,57
50265807031,16,-6,-14,-17,-2,-3,-14,-44
50265820725,-6,3,19,2,1,1,17,-18
50265820725,9,-14,-44,-5,-2,-2,7,-4
50265828192,-21,0,-11,-3,-4,-4,-6,22
50265828192,28,4,72,17,2,2,-32,0
50265843234,-37,8,-48,-13,-4,-1,-4,-15
50265843234,-5,-11,7,-7,-4,-2,30,10
50265851469,27,1,-23,-9,1,-1,-2,-22
50265851469,-1,-5,-17,-9,-3,-4,4,17
50265866355,-2,-1,23,12,0,-2,-7,-13
50265866355,-16,10,-2,5,2,2,1,-30
50265867028,71,2,26,-2,-2,0,5,0
50265867028,-74,-30,-10,-8,-2,-3,-11,7
50265880614,3,-7,-67,-1,-7,-4,9,-19
50265880614,2,6,47,5,1,0,-25,3
50265888306,-6,-13,-28,7,0,-2,1,44
50265888306,19,6,-42,-13,-3,-4,6,-30
50265903258,30,6,23,0,-2,-5,35,51
50265903258,3,-1,-4,2,4,2,-11,-13
50265911493,-28,3,44,4,0,-1,-24,-21
50265911493,-12,-9,-37,-6,4,6,39,55
50265926265,-27,0,51,10,-5,-4,-19,-33
50265926265,10,10,-24,-6,-3,-3,-4,41
50265927178,37,12,55,15,2,0,4,-19
50265927178,-32,-6,-82,-22,-4,-3,-6,11
50265940655,13,3,32,3,2,1,0,-5
50265940655,35,3,34,5,2,3,-20,20
50265948167,-10,1,-88,-18,-5,-2,31,-56
50265948167,-38,5,59,11,2,1,-11,-23
50265963203,-7,-3,-28,0,2,0,-5,21
50265963203,16,-6,-32,-10,-5,-4,3,-48
50265971378,-5,3,12,1,2,0,15,20
50265971378,42,2,2,0,-4,-1,-43,-7
50265986307,-8,2,38,-2,0,-2,27,41
50265986307,-12,-2,-18,-3,-4,-4,-26,2
50265987154,-22,-7,49,2,0,0,11,-4
50265987154,112,9,-9,4,1,0,2,-9
50266000845,-20,-5,-20,-8,2,2,-10,8
50266000845,-6,-2,54,9,-2,-2,-2,7
50266008261,-41,-5,-30,-15,-2,-3,1,5
50266008261,49,8,40,7,-2,-4,-26,-3
50266023287,0,-2,-26,-2,0,-2,-2,17
50266023287,20,1,-4,-1,1,-1,11,6
50266031430,-34,-16,-37,-13,-1,-2,-6,-10
50266031430,-22,2,32,11,-4,-3,-4,48
50266046446,17,0,1,5,1,4,-7,-41
50266046446,37,-3,-34,-19,-4,0,49,-56
50266047070,-13,-4,3,2,-1,-5,-23,4
50266047070,-17,-4,-21,-7,-3,-2,2,4
50266060773,-48,0,12,0,1,1,-12,-6
50266060773,118,6,-17,5,1,1,-5,18
50266068330,-85,-9,0,5,1,1,-6,-4
50266068330,-6,-2,-12,-5,0,-2,4,-2
50266083172,2,4,9,1,-4,-3,-2,-61
50266083172,-30,-4,-8,1,3,2,-14,-5
50266091443,19,8,46,-1,-2,1,10,-5
50266091443,-12,-8,-65,2,-1,-2,19,20
50266106351,35,-6,-9,-2,-2,-1,-6,12
50266106351,-67,5,19,1,-1,-2,-20,33
50266107100,-23,-12,-34,-9,-2,-1,-2,-8
50266107100,-33,11,31,14,3,2,-5,-38
50266120602,13,-17,3,-10,-5,-4,-33,-15
50266120602,0,0,-14,0,1,-1,8,11
50266128290,22,1,13,-1,-4,-3,-24,-1
50266128290,31,9,34,7,1,0,16,-21
50266143256,-7,-13,-17,-7,0,0,-11,31
50266143256,-35,-4,-40,-14,-4,-3,-24,35
50266151402,-2,-3,3,7,0,1,16,-23
50266151402,-1,2,27,0,0,2,14,8
50266166239,35,14,-8,-2,-2,-3,9,14
50266166239,18,1,5,-6,1,-1,-9,3
50266167146,15,11,25,8,0,0,6,-7
50266167146,42,0,9,-4,0,-2,6,8
50266180577,-91,-5,6,-13,2,2,5,-5
50266180577,-5,-7,18,-1,-1,-3,-9,-21
50266188137,65,11,12,5,-1,0,-11,28
50266188137,-34,-8,-29,-13,-2,-2,19,-10
50266203065,40,10,6,7,2,-1,-7,-21
50266203065,-45,-6,6,6,-2,0,21,22
50266211381,18,3,-13,-1,-1,-3,4,22
50266211381,1,-2,7,-2,-1,0,-27,18
50266226348,10,-2,4,0,2,2,19,3
50266226348,2,5,-16,0,-1,0,-1,-5
50266227012,-4,0,15,4,1,0,-19,16
50266227012,-47,-18,-22,-11,-3,0,4,-10
50266240730,-1,-5,-52,-4,-5,-6,-5,-20
50266240730,11,4,70,11,1,-1,-20,-16
50266248095,-77,0,16,-4,-3,-2,-3,-11
50266248095,10,-1,-21,2,0,-1,-6,-3
50266263152,67,5,29,4,-2,0,-1,37
50266263152,-59,-13,-36,-9,-2,-3,20,-5
50266271341,39,-4,22,2,1,-1,4,-8
50266271341,-11,0,-14,-10,-3,-3,-41,32
50266285608,5,6,24,12,2,1,13,-45
50266285608,18,0,-18,-2,-2,-4,-9,15
50266293796,16,1,-19,-4,1,0,8,-1
50266293796,-2,-16,8,2,0,-1,-20,0
50266300760,-53,0,22,4,3,2,-3,13
50266300760,32,5,-9,1,-5,-2,11,-21
50266308263,-19,-20,-54,-12,-3,0,3,-10
50266308263,16,9,-8,-1,1,-2,14,-21
50266323219,7,-9,-10,-2,0,-1,0,12
50266323219,-41,-7,35,5,-3,-3,-5,-6
50266331308,-23,-6,23,8,1,2,40,2
50266331308,-45,2,-31,-8,-2,-2,-10,-21
50266345612,62,2,9,-3,-4,-1,-2,22
50266345612,12,0,-8,-3,-1,0,-5,-13
50266353875,45,5,3,-5,-3,-3,-16,-4
50266353875,0,-5,6,3,1,1,41,49
50266360788,-38,-2,20,7,1,-1,-3,-15
50266360788,-27,-1,-31,-13,-2,-1,1,32
50266368268,-9,-10,1,-3,-2,-1,-33,-20
50266368268,-1,18,29,10,0,0,7,-33
50266383194,4,-7,-14,-1,-3,0,-10,-52
50266383194,18,3,-20,-7,0,2,22,46
50266391463,10,-1,-4,0,-2,1,12,4
50266391463,27,24,39,6,0,-1,2,-7
50266405767,-31,-12,-34,-9,-4,-4,-8,39
50266405767,-28,-1,16,8,1,1,-8,-71
50266413908,62,10,-28,-1,1,0,7,5
50266413908,3,-18,9,0,-2,-2,-24,-18
50266429470,-18,9,12,-1,0,1,12,8
50266429470,1,-6,3,4,1,-1,-12,14
50266429968,16,7,34,-5,0,-1,9,18
50266429968,18,-6,-7,2,-1,-3,-18,-2
50266443126,-27,-5,14,2,1,1,7,-27
50266443126,1,6,-8,5,2,0,22,-14
50266451273,-1,-5,-11,-2,-1,-1,-29,15
50266451273,-7,-2,39,-1,-4,0,11,4
50266465679,57,-4,-13,0,-1,-3,2,-3
