timestamp,emg1,emg2,emg3,emg4,emg5,emg6,emg7,emg8
1523143514655590,18,-6,-18,9,1,7,75,-20
1523143514655590,21,5,5,-7,-1,8,22,15
1523143514656592,-1,7,-16,-2,1,3,-3,-21
1523143514656592,-1,-10,-7,-1,3,-2,-28,-18
1523143514658101,-2,10,5,-7,-2,-6,-50,-1
1523143514658101,-12,-17,7,-3,-3,-2,33,0
1523143514659100,9,7,-19,-1,0,-1,-2,6
1523143514659100,-5,-4,-3,9,-9,-1,-5,-2
1523143514665620,-2,-7,-38,-11,-6,-5,-4,-3
1523143514665620,-9,8,29,25,17,-3,-19,-4
1523143514672140,26,1,5,-5,-2,0,11,8
1523143514672140,7,7,-2,-22,-3,1,19,7
1523143514687175,-19,-7,-26,10,-6,0,4,6
1523143514687175,-19,10,7,-20,-10,-16,-32,-14
1523143514696202,-21,-9,15,21,0,-5,-20,3
1523143514696202,26,6,-16,-13,-5,-1,-5,-6
1523143514702216,31,8,15,5,4,9,19,18
1523143514702216,28,12,-3,-12,-1,8,38,13
1523143514727291,-87,-35,2,17,0,-3,6,-15
1523143514727291,28,-6,-20,-20,-6,-18,-91,18
1523143514728787,-11,5,12,1,3,11,71,1
1523143514728787,-49,-18,8,4,-3,-4,-12,-1
1523143514766394,-51,8,-12,-1,-2,-1,-69,-49
1523143514766394,35,43,6,-1,-1,8,30,9
1523143514766888,10,-13,8,-2,-7,-30,-62,4
1523143514766888,-21,-11,8,2,1,2,39,-11
1523143514769895,13,11,-15,-3,0,18,91,4
1523143514769895,3,-5,-4,-3,0,10,12,4
1523143514770899,-21,12,-1,1,2,1,-11,6
1523143514770899,5,-12,-16,-7,-10,-12,-55,6
1523143514777422,-8,8,5,10,5,-10,25,12
1523143514777422,-35,-23,-33,-3,1,10,-1,-6
1523143514784433,7,-27,4,-17,-12,-3,44,3
1523143514784433,-4,10,66,-3,-4,-14,-58,-12
1523143514791954,-10,-9,-22,0,7,2,7,3
1523143514791954,31,17,36,6,2,-2,-13,20
1523143514806992,-55,-3,-34,-6,2,1,-24,-30
1523143514806992,48,13,13,2,-3,-8,-8,-14
1523143514814513,23,-24,-10,4,-3,-3,-15,6
1523143514814513,15,9,17,-9,1,4,10,4
1523143514838332,7,7,14,12,-1,-9,-11,-15
1523143514838332,19,-9,11,15,10,26,57,-2
1523143514839079,15,14,11,2,-5,-5,0,14
1523143514839079,-22,-1,-25,-2,-6,-11,-20,-16
1523143514852565,23,12,0,-3,-4,3,11,15
1523143514852565,-33,-5,-64,-13,1,6,-8,11
1523143514853566,18,-29,22,5,-4,-4,-57,10
1523143514853566,-11,-14,2,4,4,-1,16,1
1523143514875037,1,10,-3,-8,-2,6,14,-4
1523143514875037,4,14,0,-2,-3,-7,7,6
1523143514875871,-2,-4,9,9,3,4,-12,-6
1523143514875871,-6,-11,4,-10,-11,-10,-4,-17
1523143514898328,5,-6,2,-11,7,5,6,11
1523143514898328,-13,3,-56,-14,-2,-3,-7,10
1523143514899559,-5,-1,66,19,-1,-5,3,-23
1523143514899559,-6,-15,-11,-10,0,-1,22,1
1523143514912861,-3,9,3,-15,-1,4,-36,-30
1523143514912861,-1,1,12,3,3,6,78,16
1523143514913473,12,5,-18,-26,-6,-4,-1,15
1523143514913473,-8,-11,-16,6,0,-3,-60,-13
1523143514935028,2,-6,0,22,-10,9,61,-4
1523143514935028,-1,-39,-12,-22,4,-1,-21,-7
1523143514936124,-12,5,-22,-40,-10,-4,-24,-6
1523143514936124,-7,13,20,18,4,-3,27,-6
1523143514958380,18,10,-27,-24,-3,-4,-38,21
1523143514958380,-11,3,26,42,-2,-1,-17,-29
1523143514959095,-11,14,-26,23,1,-2,29,21
1523143514959095,-4,-8,24,-30,-5,-1,-29,-21
1523143514972239,-9,-3,17,42,5,2,11,3
1523143514972239,-5,2,-6,-25,-1,-1,2,13
1523143514980495,5,-6,-6,-1,-3,-6,-15,-6
1523143514980495,20,7,-34,-34,-3,5,48,-7
1523143514995189,-1,2,17,41,3,6,-10,-17
1523143514995189,-45,-11,12,21,0,-5,-6,-1
1523143514995689,5,7,11,12,-1,7,9,4
1523143514995689,2,-15,-47,-45,-5,-16,-61,8
1523143515018250,-18,1,43,24,3,-3,45,-14
1523143515018250,-46,19,5,0,-5,-8,-70,-4
1523143515019574,9,2,-11,-9,2,13,87,8
1523143515019574,0,2,9,19,-2,0,45,-3
1523143515032159,-10,-5,-6,-5,1,-10,-96,12
1523143515032159,43,9,11,-17,-9,19,89,-5
1523143515040536,2,-13,-39,-22,12,-3,-60,-3
1523143515040536,-33,-3,34,74,5,3,-13,-19
1523143515055561,19,-5,-44,-25,1,-2,-17,12
1523143515055561,8,4,12,32,-3,-9,47,9
1523143515055852,6,3,2,-38,-6,6,-13,-7
1523143515055852,-1,-4,15,-8,-5,-5,11,3
1523143515078717,20,-8,-37,-22,3,3,72,12
1523143515078717,-7,5,-5,18,2,-6,-72,-17
1523143515078913,-11,-9,6,2,-7,-3,-19,-5
1523143515078913,-7,6,9,11,5,3,22,20
1523143515092034,-6,-1,4,-1,-3,5,58,5
1523143515092034,13,-4,3,-25,-2,-10,-40,6
1523143515099822,-26,0,4,7,-1,9,89,1
1523143515099822,13,7,-52,-14,-9,-4,-32,9
1523143515115101,-4,-9,17,-2,0,-10,-26,-21
1523143515115101,4,-5,-2,5,11,7,-15,-26
1523143515116289,-4,1,20,16,1,-9,-35,-1
1523143515116289,-5,-10,-34,-35,-4,-4,-30,11
1523143515138766,-22,5,-6,15,-1,7,55,-6
1523143515138766,20,-9,-3,23,1,-11,-19,6
1523143515139164,-1,-10,40,14,4,-1,-27,-5
1523143515139164,6,-3,-32,-14,-2,5,8,-10
1523143515152384,40,19,1,2,3,2,-17,12
1523143515152384,-73,-18,22,8,-2,6,-26,-2
1523143515160631,55,3,-49,-42,-12,-13,-11,16
1523143515160631,-5,-3,74,54,5,-3,37,2
1523143515175537,22,-5,-7,5,-1,5,-14,52
1523143515175537,8,17,-23,-25,3,3,32,-4
1523143515175760,31,-5,-9,-9,-11,-15,-12,-4
1523143515175760,-98,-2,41,23,-8,-8,-52,-21
1523143515198715,3,-8,-17,-36,-3,-9,31,7
1523143515198715,27,2,-5,13,5,6,19,4
1523143515198822,-20,-7,22,17,2,-6,-33,-12
1523143515198822,34,3,-8,-2,2,-5,-14,53
1523143515211856,-22,-11,20,10,3,5,-3,-51
1523143515211856,-5,3,-34,-33,-12,-19,-63,4
1523143515220263,-10,5,2,6,9,40,28,14
1523143515220263,22,-18,-7,5,-5,-13,-20,17
1523143515234917,-11,5,-4,-8,-5,-22,-63,-50
1523143515234917,5,0,-10,-13,-9,-5,1,15
1523143515235956,3,10,14,18,2,-4,27,90
1523143515235956,25,-25,-20,-7,-1,3,-23,-49
1523143515258376,-74,-34,-11,-19,-2,-3,12,-56
1523143515258376,93,-9,21,9,1,-12,-46,43
1523143515258982,-15,14,3,3,2,2,10,26
1523143515258982,19,20,-18,-7,1,6,19,23
1523143515271910,-14,-21,15,5,1,0,-23,5
1523143515271910,-5,0,-38,-10,-5,19,44,-65
1523143515279933,-8,9,-3,0,-1,1,-9,-3
1523143515279933,22,12,-2,-8,1,-1,4,19
1523143515295497,14,10,14,4,-4,2,-5,9
1523143515295497,-21,-4,15,1,2,5,19,17
1523143515295977,2,1,-30,-4,-2,-5,-3,-11
1523143515295977,-23,-2,19,-1,-3,-5,-16,-35
1523143515318034,21,27,16,12,3,1,48,17
1523143515318034,-15,-5,-24,-36,-9,-4,19,17
1523143515319036,-11,-5,0,3,-8,-12,-7,-42
1523143515319036,16,17,-2,1,6,3,-3,-10
1523143515332827,-7,-14,-18,-7,4,12,-5,14
1523143515332827,19,15,13,7,1,3,6,35
1523143515340092,4,-10,17,8,4,-4,-16,-35
1523143515340092,-7,-14,-7,2,1,3,6,8
1523143515355132,18,23,-2,-18,-10,-10,-18,17
1523143515355132,-48,-6,13,10,5,23,44,-5
1523143515355634,32,-15,0,-3,-5,-5,5,-16
1523143515355634,-46,14,7,7,2,2,8,30
1523143515385764,-9,-1,32,21,-3,0,8,11
1523143515385764,7,17,-39,-16,-1,-19,-12,-16
1523143515386215,-16,32,22,10,-2,-5,-3,-1
1523143515386215,5,-71,18,-4,-5,1,-9,-21
1523143515400754,7,3,-14,-2,-4,-1,-26,27
1523143515400754,1,13,7,-1,12,2,41,3
1523143515401256,-10,-8,8,17,-1,-8,-26,21
1523143515401256,0,24,-9,-16,-4,9,18,-35
1523143515414290,-16,-4,-13,-11,-1,0,11,-2
1523143515414290,26,-3,25,34,-4,-5,-50,6
1523143515423313,-25,-36,-32,-17,-5,2,11,-13
1523143515423313,-2,13,49,19,-1,-4,27,8
1523143515438353,16,-11,-89,-55,2,3,-13,9
1523143515438353,-5,2,23,-10,2,5,-2,-7
1523143515439857,6,11,-5,31,-1,-6,-12,-19
1523143515439857,1,4,9,2,-11,-10,-7,6
1523143515460411,21,9,22,17,4,11,6,10
1523143515460411,-29,-3,-21,-22,3,3,-3,-9
1523143515462416,3,10,-6,-21,-1,1,4,-3
1523143515462416,9,2,8,15,2,0,3,1
1523143515474450,5,11,-29,1,-5,-1,-16,22
1523143515474450,24,-7,23,-3,-12,-11,6,36
1523143515483475,8,9,6,5,-3,-7,2,-42
1523143515483475,5,-9,-21,-14,8,8,-25,11
1523143515498066,-6,4,32,11,-2,-24,-46,1
1523143515498066,-12,-12,-21,-1,-6,12,2,-13
1523143515500017,-8,-20,-12,-25,-2,-13,-56,11
1523143515500017,18,31,-6,9,5,-3,19,-30
1523143515520572,0,-5,74,26,-5,-3,-40,-22
1523143515520572,-5,-8,-79,-47,-13,-2,9,5
1523143515522077,-4,14,31,1,14,1,-27,24
1523143515522077,-15,-14,27,44,-5,-4,1,16
1523143515535110,5,9,50,18,11,9,10,8
1523143515535110,-10,-5,-18,-5,-6,-13,-12,-11
1523143515543133,-3,-9,-13,-61,-18,6,-2,-3
1523143515543133,7,5,-9,-2,2,0,40,4
1523143515558172,-5,0,-1,3,-3,9,18,-13
1523143515558172,7,6,44,27,15,-8,-6,10
1523143515559676,11,20,1,6,1,-12,14,0
1523143515559676,0,-12,-41,-30,-4,8,-52,2
1523143515580731,-41,-31,-8,1,-2,6,29,-13
1523143515580731,22,-26,17,20,1,-8,7,-17
1523143515582236,-1,-14,-12,-13,0,2,34,17
1523143515582236,5,28,34,30,3,-1,-22,-6
1523143515594267,-2,12,-52,-55,-2,-8,-12,1
1523143515594267,-3,-10,41,24,-5,-1,-35,-10
1523143515603292,-2,-6,32,47,9,5,14,-14
1523143515603292,5,7,-25,-10,-2,-4,8,21
1523143515618332,-2,-13,-22,-22,-5,-3,20,6
1523143515618332,-5,11,18,18,3,15,20,-21
1523143515619836,-9,-19,20,-26,-6,1,3,-10
1523143515619836,-1,5,-11,-6,-2,-5,-5,-8
1523143515640391,3,-14,-2,14,3,-1,-2,8
1523143515640391,8,16,-13,-12,-2,-8,-17,13
1523143515642396,-7,3,4,18,0,7,11,12
1523143515642396,-42,-25,-10,-23,5,-6,-16,-21
1523143515654427,1,6,-9,2,-3,0,9,-1
1523143515654427,-3,-5,-1,4,0,-7,-1,-4
1523143515663452,5,-6,-19,-13,-6,0,-14,2
1523143515663452,21,11,-1,-12,-3,0,9,14
1523143515677990,-1,7,-1,7,2,2,-4,-7
1523143515677990,-19,-30,-7,-3,-3,-7,3,-19
1523143515679494,0,5,-11,4,0,-3,-9,-11
1523143515679494,5,-8,-10,-14,0,16,33,-8
1523143515700554,3,9,12,7,-1,-4,6,5
1523143515700554,32,-5,-1,-3,0,6,-6,0
1523143515702559,-18,0,-17,-3,-2,0,21,4
1523143515702559,7,-10,5,-3,-4,-6,0,2
1523143515714089,1,11,-12,-3,-3,-3,-11,-4
1523143515714089,-12,12,1,-5,-1,0,10,-1
1523143515723113,-18,-14,-9,1,-1,-5,-14,-1
1523143515723113,4,-4,3,1,-3,-7,0,-2
1523143515736649,-1,-8,-15,-9,-1,16,25,-11
1523143515736649,-7,-5,-4,-5,-1,3,1,5
1523143515745672,35,7,-2,5,0,0,-8,-7
1523143515745672,2,7,3,-1,-2,1,-9,-4
1523143515760711,-10,-16,17,6,2,-5,-10,-18
1523143515760711,28,8,49,8,-3,3,27,-2
1523143515762215,1,-7,-39,-22,1,6,3,-19
1523143515762215,10,-4,-3,5,-2,-7,-20,2
1523143515783271,-4,-10,30,14,-1,1,16,4
1523143515783271,-30,-4,-35,-28,-4,-8,-34,-2
1523143515784776,5,-11,14,18,-1,-1,0,14
1523143515784776,9,4,8,-1,2,4,6,-1
1523143515796807,-12,15,3,-2,-3,-8,-22,-9
1523143515796807,-1,4,7,6,0,-2,-7,5
1523143515805830,1,2,-4,2,-2,-2,0,-15
1523143515805830,-17,-3,12,-10,-6,-8,-2,11
1523143515820369,22,1,1,6,-2,-14,-24,4
1523143515820369,-13,1,-17,-8,-1,4,21,2
1523143515822375,2,6,4,4,1,1,14,4
1523143515822375,-3,11,-5,0,-1,-5,-6,-10
1523143515842934,5,-8,-6,-1,-2,-3,1,-14
1523143515842934,4,22,-4,-4,-2,0,-3,38
1523143515844963,-14,-23,3,3,2,-9,-9,2
1523143515844963,4,-5,-17,-10,-2,4,8,4
1523143515865491,-3,1,-2,6,0,4,6,3
1523143515865491,6,4,-12,-3,0,-1,-1,-2
1523143515867496,-8,17,4,-2,-4,-4,8,-2
1523143515867496,-11,-10,-13,-10,-1,3,0,-15
1523143515880029,21,-1,-6,-1,2,3,10,20
1523143515880029,-14,-5,4,8,-1,9,60,45
1523143515887046,14,0,-7,-7,-2,-3,-16,-72
1523143515887046,8,-3,8,3,0,-3,2,14
1523143515903089,-5,0,-12,-5,-7,-6,-25,7
1523143515903089,10,12,0,4,11,-2,-10,2
1523143515904593,7,8,7,-2,0,7,14,58
1523143515904593,-4,0,8,8,-2,-2,11,60
1523143515925650,-14,-7,-33,-26,-6,-12,-27,-106
1523143515925650,-15,-11,12,-8,-4,-10,-42,60
1523143515927154,1,-6,3,28,3,3,53,85
1523143515927154,-6,1,-52,-78,-4,1,-18,-94
1523143515941191,-5,0,105,110,1,-11,-92,34
1523143515941191,4,-6,-54,-40,1,14,87,3
1523143515946706,-5,1,-7,-52,-6,-1,-14,7
1523143515946706,-9,0,27,63,-2,-8,-26,-53
1523143515963251,0,-6,-42,-41,8,30,86,72
1523143515963251,-6,-2,-14,-40,-7,-24,-111,-128
1523143515964755,8,7,-5,4,-1,18,3,55
1523143515964755,-17,-5,-17,-59,-6,8,50,-17
1523143515985864,-10,5,-12,-32,-4,-6,-40,-31
1523143515985864,10,6,51,127,17,7,13,79
1523143515987315,0,-4,-22,-43,-6,0,76,-14
1523143515987315,-1,6,24,20,5,12,-11,-10
1523143516000851,-1,-28,-53,-53,2,6,-44,-6
1523143516000851,-10,-4,5,-36,-11,-14,-15,-8
1523143516002354,8,7,12,51,4,-4,-57,-32
1523143516002354,21,1,-26,-15,-5,-6,-9,50
1523143516022909,0,3,19,26,-7,-5,10,-10
1523143516022909,2,-7,-22,-37,-3,3,-1,-20
1523143516024914,8,-17,9,2,-4,-8,-32,-15
1523143516024914,-11,-8,-1,6,1,-5,-65,27
1523143516045469,24,13,-5,-18,-3,8,99,24
1523143516045469,-4,-6,1,9,-5,-4,-21,-10
1523143516047474,-14,-7,11,27,3,-6,19,-11
1523143516047474,0,-2,21,23,4,2,9,-25
1523143516060008,6,1,-12,-18,-1,-12,-21,-6
1523143516060008,-4,5,13,-4,-2,-1,-61,-16
1523143516066525,-7,6,-28,7,2,14,76,41
1523143516066525,21,-7,4,-24,-3,-4,31,32
1523143516083075,-40,-3,6,5,3,17,25,-60
1523143516083075,19,2,16,24,0,3,26,-4
1523143516084573,-16,-5,4,-31,-2,-13,-89,-27
1523143516084573,4,-17,-3,20,0,-17,-44,-51
1523143516105630,13,15,-5,4,-3,1,87,41
1523143516105630,-9,-4,-32,-27,-5,8,12,10
1523143516107186,-3,-3,30,-29,-3,-10,-55,-49
1523143516107186,-23,-6,4,37,3,-4,53,-4
1523143516120221,-4,-13,-3,13,4,-13,-32,39
1523143516120221,-10,-2,-20,-37,-4,8,14,-21
1523143516126685,1,6,27,21,-5,-13,-6,-12
1523143516126685,0,14,-15,-18,2,9,-2,63
1523143516143228,10,-1,7,-2,-5,-2,-7,-11
1523143516143228,3,-14,-11,-5,-2,-1,27,4
1523143516144732,-16,14,-6,-16,-2,7,15,-30
1523143516144732,33,11,5,16,3,1,-22,17
1523143516167294,-33,-8,-3,18,9,4,3,6
1523143516167294,4,-15,4,0,1,-3,-29,-22
1523143516168798,-6,4,-19,-14,-6,-7,-7,83
1523143516168798,-12,13,-14,-5,-4,2,10,-81
1523143516179827,-17,11,7,2,1,-2,-17,27
1523143516179827,20,13,0,2,-2,-16,-18,18
1523143516186845,-15,-11,-12,7,0,13,12,8
1523143516186845,17,2,9,-4,-3,-4,17,23
1523143516202886,0,-1,-7,-5,-3,1,-13,-7
1523143516202886,-22,-4,9,7,0,1,18,-20
1523143516204892,5,2,-10,4,3,-5,-6,21
1523143516204892,-8,-2,6,0,1,5,5,16
1523143516225448,15,-16,-6,-10,-2,-1,-6,-29
1523143516225448,26,6,2,4,-2,-1,-9,22
1523143516227454,-59,0,5,6,3,14,19,-39
1523143516227454,-21,-35,-5,-7,3,7,6,10
1523143516240041,51,7,-6,-4,-5,-2,-17,29
1523143516240041,-20,-3,3,3,-2,0,31,-11
1523143516246761,13,-12,-9,1,-1,-14,-45,-29
1523143516246761,-32,9,18,-4,-3,-2,-8,-1
1523143516263305,29,-5,-8,-4,0,-7,-1,0
1523143516263305,-12,-3,-1,7,5,11,8,6
1523143516264554,13,-3,-5,-2,-1,-3,5,-7
1523143516264554,-15,-2,-11,-2,-3,-6,-10,-2
1523143516285661,-26,-4,6,-3,-5,-4,-17,13
1523143516285661,6,7,3,-1,-1,-5,2,-19
1523143516287112,1,0,-2,0,-1,-3,-11,10
1523143516287112,14,-2,-4,-1,0,-2,-20,4
1523143516299144,-32,-24,7,0,-4,-4,49,-9
1523143516299144,-14,-11,4,2,-2,-10,-8,5
1523143516308171,12,6,-10,-3,0,14,13,-24
1523143516308171,3,5,-10,-1,-7,-19,-52,24
1523143516323209,17,9,-8,-8,0,8,21,-16
1523143516323209,3,4,4,-7,-4,-1,28,53
1523143516324712,15,0,11,16,-1,-4,-17,-88
1523143516324712,9,3,-8,-15,-2,-4,3,33
1523143516346012,-8,-3,-10,-2,-3,-5,-26,5
1523143516346012,21,4,16,6,1,0,-24,-3
1523143516347785,-5,-2,-34,-38,-5,0,66,55
1523143516347785,-10,-4,57,87,-2,-5,-32,-27
1523143516359304,6,0,-21,-32,1,-4,-8,-12
1523143516359304,-5,-5,-38,-54,-2,7,-1,-2
1523143516368328,0,-3,53,38,1,-6,-31,3
1523143516368328,7,8,-17,-5,3,1,32,19
1523143516383369,-8,-15,25,9,-5,-12,-21,-55
1523143516383369,10,2,-3,52,4,2,-32,5
1523143516384871,-22,-2,-20,-56,0,-4,4,-70
1523143516384871,-57,-13,-24,-44,-5,-4,18,102
1523143516406031,-41,2,35,39,0,12,55,-81
1523143516406031,11,-10,-23,-31,-4,-3,-42,29
1523143516407763,2,8,20,35,2,-2,-7,55
1523143516407763,9,2,-22,-19,2,13,23,-1
1523143516419466,39,25,17,-21,-7,-11,-8,94
1523143516419466,-31,-5,19,86,4,1,14,-47
1523143516428490,3,-16,-19,-19,-7,-1,-32,-29
1523143516428490,16,-7,-59,-55,-3,-8,-55,-45
1523143516443424,34,9,65,22,-1,-11,0,29
1523143516443424,5,12,12,53,2,18,67,38
1523143516445033,5,6,-12,-24,4,-2,-98,30
1523143516445033,24,-10,-11,-5,-4,14,82,-17
1523143516466090,-9,2,-37,-45,-4,-5,-41,55
1523143516466090,-36,-5,38,20,-1,-15,-25,-107
1523143516468130,30,6,9,-5,-1,-2,32,41
1523143516468130,-28,2,-18,-10,8,4,-21,-39
1523143516479839,5,-3,-7,12,0,5,-17,9
1523143516479839,2,1,2,-30,-2,-4,13,9
1523143516494665,9,-8,-22,1,-2,-8,-38,-4
1523143516494665,19,4,20,-11,-2,4,5,7
1523143516503578,19,6,1,25,1,-5,13,-14
1523143516503578,-55,-3,-23,-38,-6,-1,-47,-4
1523143516504692,-14,-7,-7,-2,-3,3,45,-36
1523143516504692,7,6,20,9,-2,-4,-6,-7
1523143516525748,-11,-9,-33,5,3,-5,-14,-3
1523143516525748,13,5,-7,-21,1,5,-32,-11
1523143516527823,-22,-5,43,33,-5,-13,58,31
1523143516527823,2,-6,7,22,-2,5,8,47
1523143516539439,0,17,-25,-16,6,21,21,-48
1523143516539439,2,-16,-1,-29,-5,-7,-1,-4
1523143516548307,15,-2,-34,-13,1,5,-20,75
1523143516548307,-13,-4,81,65,6,6,23,-115
1523143516563738,-20,-7,-34,-8,-5,-1,1,39
1523143516563738,22,1,-43,-58,-4,-7,9,67
1523143516564851,-11,0,38,39,-3,6,-10,-87
1523143516564851,23,4,-7,-26,-1,-12,-28,24
1523143516585907,-8,-6,-17,-21,-5,5,30,2
1523143516585907,0,6,46,31,4,-5,-12,8
1523143516587415,0,-3,-21,5,-2,-23,-28,-9
1523143516587415,-6,4,-17,-7,1,9,24,-5
1523143516599443,6,5,-12,-12,1,-14,-65,-5
1523143516599443,7,-7,10,-31,-10,-9,-75,16
1523143516608469,-2,6,7,19,4,10,95,-61
1523143516608469,12,0,-6,-16,-1,11,-12,23
1523143516623379,12,-15,5,23,0,-6,3,47
1523143516623379,2,9,-5,14,0,2,4,-48
1523143516625011,0,4,-21,-11,6,18,-2,3
1523143516625011,-10,-5,11,5,-3,-14,-71,-2
1523143516645616,8,4,-21,-34,-1,17,80,22
1523143516645616,10,0,18,26,3,0,67,23
1523143516647125,-22,-9,40,21,-2,-11,-41,-26
1523143516647125,9,1,-49,-29,-3,-2,15,-5
1523143516659152,-4,4,25,15,2,-4,-31,-5
1523143516659152,-2,-5,-14,4,-4,-7,-14,0
1523143516668126,1,3,-4,-26,0,9,21,41
1523143516668126,9,1,-7,-7,-5,-16,-13,-31
1523143516683166,-3,-9,21,34,0,-6,-19,7
1523143516683166,-10,3,6,3,2,12,53,-33
1523143516684670,0,1,-24,-21,-2,2,48,21
1523143516684670,-3,1,9,16,4,3,27,17
1523143516705725,-15,-12,1,-15,-8,1,-8,-39
1523143516705725,17,6,-13,-8,1,10,-1,0
1523143516707230,16,3,3,8,-2,-13,-56,16
1523143516707230,3,-3,-2,9,0,7,-37,40
1523143516719653,-8,7,7,1,-2,2,70,-51
1523143516719653,4,-5,0,0,-1,-4,-2,-2
1523143516728287,1,9,-3,0,1,-9,-55,-46
1523143516728287,-4,6,13,1,-2,-2,-2,29
1523143516743326,-3,6,-2,-1,3,3,-19,67
1523143516743326,-9,-7,-6,-3,-1,1,-10,-38
1523143516744831,26,0,-9,-5,-3,-7,2,15
1523143516744831,-4,-3,-5,-1,-1,-3,27,-4
1523143516765832,-6,4,0,7,-1,-5,-25,-7
1523143516765832,-2,-14,-3,-2,-1,0,9,28
1523143516767336,-19,1,-4,-6,-2,3,15,16
1523143516767336,0,-7,0,4,-3,-4,-23,-53
1523143516788143,-25,0,-9,-1,0,-3,25,1
1523143516788143,-10,-1,5,-3,-3,-4,-11,-9
1523143516789894,3,-12,5,-3,-1,1,0,13
1523143516789894,-1,1,1,6,0,2,-4,-25
1523143516802674,-7,1,1,-1,-1,-7,-31,-31
1523143516802674,2,3,-5,-3,0,-7,3,15
1523143516809447,-6,0,1,-1,-1,7,10,4
1523143516809447,8,1,1,-2,-7,-6,13,0
1523143516826158,4,-4,1,0,5,5,-14,-15
1523143516826158,-10,-9,-3,-1,-2,-6,2,-8
1523143516827740,10,-1,-1,-3,-2,0,-1,28
1523143516827740,-7,-3,-4,-5,-1,-2,-2,3
1523143516848049,-5,-3,2,-3,-5,-8,-13,-16
1523143516848049,-2,2,-11,-13,-3,-2,-7,-2
1523143516849554,-9,-8,15,23,2,4,4,-16
1523143516849554,16,-1,12,19,-2,-3,-9,53
1523143516862588,9,-4,-20,-37,-3,-7,-39,-30
1523143516862588,28,7,15,44,3,4,22,4
1523143516869695,-9,5,-15,-20,-4,-3,-6,-4
1523143516869695,-13,-2,19,17,0,-2,6,-22
1523143516886229,-3,3,9,-5,-3,-2,-37,24
1523143516886229,10,3,-18,-44,-1,8,4,-40
1523143516887155,-1,-2,-26,-14,1,2,9,8
1523143516887155,-8,0,29,34,4,-1,-19,3
1523143516908604,15,2,-14,19,-3,-4,29,-19
1523143516908604,-13,2,-5,-14,1,-2,-19,6
1523143516909715,0,-1,5,-5,-3,6,39,4
1523143516909715,-5,0,-58,-74,-5,2,0,-9
1523143516922880,-13,-10,61,46,-3,-4,-26,-24
1523143516922880,4,-1,-16,12,5,-7,3,38
1523143516929829,12,-11,-13,-11,-4,-3,-17,27
1523143516929829,0,-5,-14,-52,-6,7,42,-27
1523143516946196,4,4,26,69,5,6,7,45
1523143516946196,-12,-3,15,39,-4,-9,-19,-104
1523143516947319,-16,-1,-1,-18,-3,-7,-70,14
1523143516947319,2,-1,-31,-25,-1,3,30,29
1523143516968100,-6,-13,4,-48,-1,-6,-10,30
1523143516968100,21,3,-27,-10,0,10,23,28
1523143516969876,14,-14,20,21,0,2,16,30
1523143516969876,-24,-3,0,38,1,1,21,-9
1523143516982408,7,-2,-20,-13,2,-5,-2,26
1523143516982408,15,3,7,-5,1,1,0,58
1523143516989427,-9,8,-10,-28,-4,-4,-45,-108
1523143516989427,-16,-5,-19,-10,-2,-2,20,26
1523143517005972,3,0,7,-8,2,13,74,54
1523143517005972,-7,-2,3,10,-2,-6,-8,-34
1523143517007473,9,7,-10,-4,-2,5,-44,-8
1523143517007473,9,-1,10,10,0,-7,8,12
1523143517028397,3,10,-6,3,3,-1,-30,-52
1523143517028397,-33,-2,10,7,-4,12,44,48
1523143517030429,0,-3,-7,-19,-3,-7,-4,4
1523143517030429,-1,1,16,10,2,-3,-11,-27
1523143517042790,4,1,-31,-5,-3,-1,28,-7
1523143517042790,-7,-8,7,-23,-5,-10,-34,6
1523143517049483,-2,-5,16,30,0,-10,3,-8
1523143517049483,-5,-14,-19,-27,0,28,29,38
1523143517065526,3,-6,-6,-11,-4,-5,-52,-42
1523143517065526,-4,-2,18,-3,-2,-11,18,-1
1523143517067643,14,15,-19,38,4,5,35,-11
1523143517067643,4,4,12,-11,-4,-11,-51,23
1523143517088471,4,-3,0,-6,-5,-1,12,-42
1523143517088471,-47,-1,-7,8,3,-3,-41,13
1523143517089590,3,-4,2,-5,-3,5,88,28
1523143517089590,33,1,-12,-5,2,7,-10,12
1523143517102653,11,0,1,-5,-2,-3,-17,54
1523143517102653,-2,-5,-19,-29,-5,2,19,-90
1523143517109672,-10,0,9,15,3,1,-10,10
1523143517109672,-6,-1,23,40,6,-11,-44,-107
1523143517126036,6,4,-20,-43,-5,6,34,28
1523143517126036,20,1,20,38,5,-1,-29,31
1523143517127221,-15,-13,-11,-26,-3,-5,-63,27
1523143517127221,6,1,13,12,-3,6,24,-21
1523143517148278,1,5,5,26,1,-4,30,-11
1523143517148278,7,-6,9,-20,-2,2,18,35
1523143517149781,-18,6,-10,4,-2,-3,-22,-59
1523143517149781,-4,7,-10,-4,-4,-3,30,23
1523143517162693,-7,-13,-2,0,-1,-6,-12,-11
1523143517162693,9,6,0,13,2,4,-2,37
1523143517169721,31,0,0,-16,-7,-23,12,11
1523143517169721,-27,-4,-11,0,-2,2,-6,17
1523143517186252,-12,3,22,17,8,6,3,-37
1523143517186252,4,-2,-20,-18,-1,1,-3,-11
1523143517187379,3,1,14,15,-1,-9,-26,10
1523143517187379,0,-1,0,1,-4,-22,-63,2
1523143517208332,-14,-18,-2,1,-2,6,30,10
1523143517208332,6,9,-6,-8,-2,-6,-35,-4
1523143517209941,-17,4,4,0,0,7,26,-10
1523143517209941,-7,2,9,1,-2,-11,-19,-16
1523143517222636,23,12,-6,-1,3,11,14,8
1523143517222636,-51,0,1,-4,-3,-12,-30,-39
1523143517229493,0,0,-4,-4,0,26,52,29
1523143517229493,16,9,0,1,-2,-4,10,-42
1523143517246168,12,-5,-8,-4,-4,-3,-30,2
1523143517246168,17,-3,-6,-5,-6,-2,10,3
1523143517247840,-4,6,4,0,-1,-6,20,-6
1523143517247840,7,1,-10,-5,-1,-5,2,31
1523143517268325,-41,-10,-5,-5,-5,1,-10,-22
1523143517268325,14,-11,4,1,0,-3,-5,15
1523143517270272,3,-1,0,-2,2,3,10,12
1523143517270272,-2,-1,6,0,0,-5,-12,-11
1523143517281907,48,5,-2,-4,0,-3,12,43
1523143517281907,-6,3,-2,1,1,8,25,-10
1523143517290902,-6,-7,1,-3,-2,-4,-13,-21
1523143517290902,3,-4,1,2,0,-1,-4,15
1523143517305898,-30,-5,13,3,2,-1,-17,-21
1523143517305898,-2,-7,-4,-2,-2,2,15,22
1523143517307695,40,0,2,1,2,-4,-18,-17
1523143517307695,-5,6,4,0,4,15,29,23
1523143517329220,-15,-5,-5,-3,-6,-7,-4,-19
1523143517329220,6,3,2,-2,-3,4,17,10
1523143517330814,-16,2,2,-1,1,3,-9,1
1523143517330814,2,1,2,4,-2,-10,-46,57
1523143517341992,-4,-1,-1,-2,-7,0,-6,-79
1523143517341992,-7,-3,-3,-14,2,0,-18,4
1523143517350515,-12,0,15,27,1,-2,2,20
1523143517350515,3,-15,-23,-19,1,-1,-8,9
1523143517365556,43,2,16,7,-3,3,-10,27
1523143517365556,6,-1,5,12,-4,-1,3,1
1523143517367062,-4,-5,-5,-11,-6,-5,-16,-65
1523143517367062,-14,2,-8,-21,9,12,10,-16
1523143517388116,-19,-7,5,50,2,-1,-7,3
1523143517388116,29,0,-21,-53,-3,-6,-22,-21
1523143517390298,-1,2,23,39,-3,-1,-6,34
1523143517390298,11,-7,-3,-12,-9,-8,52,-22
1523143517401754,-8,0,-28,-48,-1,-2,-13,48
1523143517401754,-5,13,17,9,4,7,51,5
1523143517411185,-12,-2,3,12,3,-5,-62,11
1523143517411185,-16,-7,17,12,-2,6,84,-59
1523143517425928,-12,3,-34,-28,-1,-8,-46,1
1523143517425928,1,-5,-2,19,1,4,60,44
1523143517427720,17,-3,3,-3,4,12,20,35
1523143517427720,-17,-5,-12,-10,-4,-3,-17,-16
1523143517448341,-25,-6,18,-26,0,-2,-13,-5
1523143517448341,19,-1,-21,-12,0,1,3,-6
1523143517449845,-7,-2,-1,18,3,-4,-7,0
1523143517449845,10,0,-10,4,-7,-8,-31,39
1523143517461877,-11,2,-12,-27,1,4,11,-33
1523143517461877,-38,-14,25,5,-5,-2,1,-83
1523143517470902,10,-9,-19,-30,-1,-2,-4,10
1523143517470902,-2,1,16,38,-5,-13,-17,-2
1523143517486144,40,8,-19,-22,-1,12,60,50
1523143517486144,-42,4,26,42,5,-4,-35,-25
1523143517487626,8,-23,-17,-41,-6,0,11,38
1523143517487626,4,6,-2,-21,0,8,21,-8
1523143517508500,-3,3,33,38,0,-10,-47,-57
1523143517508500,6,-5,-31,4,-1,5,-11,-6
1523143517509504,-10,7,13,25,4,2,13,11
1523143517509504,12,-17,-17,-18,-4,-15,-63,-14
1523143517522247,-40,-10,4,3,-1,5,55,22
1523143517522247,9,1,-30,-11,-2,7,5,20
1523143517530559,-13,5,26,-2,-3,-5,-1,-9
1523143517530559,5,2,-8,4,-4,-8,-14,42
1523143517546100,10,1,1,-9,3,-6,-11,-74
1523143517546100,9,1,1,21,0,-5,9,3
1523143517547665,0,-6,-25,-41,-5,0,-14,-13
1523143517547665,-28,4,27,38,1,-2,-10,-5
1523143517568160,3,-11,-9,-28,1,0,-1,38
1523143517568160,-1,4,-11,-8,2,-5,-37,-6
1523143517570203,15,3,6,10,0,2,40,13
1523143517570203,-5,-1,3,-6,-1,3,-10,-46
1523143517581695,-11,3,3,31,-4,-12,-29,-3
1523143517581695,24,1,21,13,-2,-5,-8,22
1523143517591220,-14,4,-19,-11,-5,0,52,23
1523143517591220,9,-4,-16,-12,5,10,41,-39
1523143517606357,-7,2,30,18,-1,-9,-14,53
1523143517606357,-13,-5,5,-3,-1,-3,-16,13
1523143517608219,29,2,14,45,-3,-3,-30,-32
1523143517608219,-22,1,-40,-33,-3,4,39,7
1523143517628437,14,6,9,31,6,-1,-11,25
1523143517628437,3,-5,-18,-60,-6,-6,-21,-53
1523143517630262,0,1,12,6,0,-8,-116,-6
1523143517630262,-2,-3,4,37,5,15,81,12
1523143517641967,3,-6,-13,-15,-1,9,-68,-12
1523143517641967,5,0,30,-8,-9,-9,-82,7
1523143517650632,-17,-2,-34,-6,-4,-2,25,-7
1523143517650632,-1,-8,25,-10,-2,-14,-77,-21
1523143517665674,-1,2,-6,27,1,13,74,3
1523143517665674,8,16,-8,1,0,-7,11,10
1523143517667177,-19,-27,-1,-24,1,-4,6,-38
1523143517667177,9,9,16,15,-1,-6,-36,11
1523143517688231,11,3,-19,-11,-4,4,18,17
1523143517688231,1,-3,-3,3,-2,-2,-31,10
1523143517689737,-7,11,-3,-1,2,-5,54,-36
1523143517689737,-2,-3,4,9,2,13,38,19
1523143517701768,-17,16,-14,-17,-6,-4,12,-15
1523143517701768,28,-6,6,6,2,4,-5,32
1523143517710791,19,1,-7,-1,-2,-3,-13,-3
1523143517710791,-50,1,4,-13,1,-3,-31,2
1523143517725833,1,-6,-6,-4,-3,-9,-31,6
1523143517725833,-14,-9,0,9,-3,4,53,-49
1523143517727336,34,5,-5,-2,3,-1,-9,51
1523143517727336,9,6,1,-2,-1,2,5,-13
1523143517748394,1,-4,10,3,2,8,3,1
1523143517748394,-21,-6,-8,3,-1,-4,21,15
1523143517749896,-6,-8,-6,-11,-2,2,-8,-13
1523143517749896,13,0,0,-2,-3,-5,-27,51
1523143517770828,15,-2,1,3,-3,-7,-1,-100
1523143517770828,-4,-10,2,-3,2,2,-3,26
1523143517772766,-1,8,2,-6,-2,-1,-3,-18
1523143517772766,4,-7,8,5,3,0,4,26
1523143517784991,2,-1,-2,0,-2,-1,16,28
1523143517784991,17,4,-8,-2,-2,8,-22,-29
1523143517792355,-13,1,0,1,1,5,5,-3
1523143517792355,-1,-6,-3,0,1,-2,-8,-11
1523143517808453,-9,3,-5,-3,-2,-5,-13,10
1523143517808453,-15,-13,0,1,-2,-6,5,-16
1523143517810329,11,6,0,-2,-2,1,14,17
1523143517810329,8,-11,5,-3,0,-3,-28,-22
1523143517831022,-23,-1,-1,-4,-1,4,-5,-3
1523143517831022,-11,2,-2,-1,-2,-3,20,14
1523143517832528,6,-2,0,0,1,6,3,-1
1523143517832528,8,3,-4,-7,-7,-6,5,12
1523143517845458,15,0,7,12,2,-3,-15,30
1523143517845458,-23,-9,-9,-19,-2,0,-3,-42
1523143517852343,-10,1,3,15,-1,-6,-11,-12
1523143517852343,7,7,-16,-10,5,4,-4,5
1523143517868648,-1,-3,7,13,1,-7,-4,15
1523143517868648,4,-2,-5,-3,-1,3,23,11
1523143517869627,-4,0,-27,-45,-5,-2,-28,28
1523143517869627,2,2,60,51,-6,-10,-3,-84
1523143517891185,0,-7,-35,-21,-1,4,63,18
1523143517891185,1,1,8,-10,1,-9,-60,26
1523143517892688,-13,1,11,13,2,24,101,-31
1523143517892688,9,4,-6,6,-2,-3,-13,82
1523143517904972,-13,-6,-9,-11,-5,-9,-29,-117
1523143517904972,-20,-1,26,31,5,-4,4,13
1523143517911738,-2,1,-20,-23,-3,-2,-16,-15
1523143517911738,3,2,-12,-20,-2,3,6,18
1523143517928283,6,12,17,23,1,-3,-51,1
1523143517928283,23,7,-30,-15,0,11,102,24
1523143517929787,-16,-8,14,-1,-1,-4,-39,32
1523143517929787,-29,-2,-27,-31,-4,3,24,-55
1523143517951229,14,2,29,25,-5,-10,-22,-3
1523143517951229,20,0,-8,6,-1,-15,-97,9
1523143517952379,-24,0,-3,-4,3,8,39,18
1523143517952379,-6,-7,-37,-27,-5,-2,0,21
1523143517964880,-22,-9,27,-27,-7,-5,-6,-18
1523143517964880,20,4,11,25,4,-2,-2,10
1523143517972043,17,5,8,12,-4,-7,-5,-13
1523143517972043,-7,-7,-38,-43,-2,-9,12,42
1523143517988523,-20,-21,25,12,-2,-5,-23,-64
1523143517988523,-9,2,-3,17,6,11,85,43
1523143517990406,-4,-3,-19,-26,-7,-5,-23,-36
1523143517990406,9,5,38,23,3,-9,-58,24
1523143518010929,9,3,-22,-11,3,12,50,-5
1523143518010929,-21,-4,9,15,-5,2,21,-13
1523143518012439,9,3,-43,-36,-2,-10,-23,28
1523143518012439,-13,-8,73,49,6,6,39,-37
1523143518025369,1,-3,-35,-16,-3,4,3,30
1523143518025369,-5,5,15,-32,-7,-4,-19,-14
1523143518031989,-6,-6,2,29,2,-5,-3,-1
1523143518031989,-8,-3,-7,3,-2,-2,-8,1
1523143518048532,3,-13,6,-1,3,-3,2,36
1523143518048532,-7,-5,-26,-29,-4,10,4,17
1523143518050036,-5,-1,11,-4,-6,0,0,18
1523143518050036,48,4,17,44,4,-6,-39,-24
1523143518070807,-10,2,-14,-9,2,19,62,38
1523143518070807,3,3,-5,3,-5,-7,-40,-2
1523143518072097,7,-11,20,14,0,-5,2,16
1523143518072097,-2,3,-32,-13,-1,18,12,-48
1523143518085631,6,1,-1,-14,-3,-6,-14,23
1523143518085631,-7,-5,13,27,-2,-14,-25,-38
1523143518092314,3,-1,11,12,-1,0,44,14
1523143518092314,-10,2,-40,-49,2,5,27,23
1523143518108722,0,0,23,40,0,-15,-96,-49
1523143518108722,-8,-3,10,-2,2,12,56,28
1523143518109697,12,6,-11,-22,-3,-7,-55,-45
1523143518109697,-9,4,-3,12,-6,-6,-2,12
1523143518130269,17,-10,-8,8,5,5,-5,32
1523143518130269,1,-7,-14,-10,-2,-11,-41,-15
1523143518138271,-1,7,-14,13,1,9,23,31
1523143518138271,-6,-21,32,-28,-8,3,4,-26
1523143518145543,-1,15,8,1,-1,-3,-31,24
1523143518145543,-3,3,-2,9,3,10,92,-9
1523143518159729,-56,-3,11,-11,-3,-20,-34,-6
1523143518159729,20,5,1,13,2,-16,-68,-22
1523143518168695,38,11,-8,15,-1,10,106,33
1523143518168695,-46,-7,-1,-18,-2,-2,-48,23
1523143518169882,-12,-4,0,-9,0,-3,-23,-82
1523143518169882,20,2,-11,-1,-4,-1,-4,31
1523143518191299,-7,9,3,-10,2,-7,-26,20
1523143518191299,13,-7,8,52,4,4,22,-18
1523143518192738,-4,-2,-2,2,1,-5,4,-79
1523143518192738,-2,-8,-9,-8,-3,-13,-25,32
1523143518205107,-5,-18,-18,-28,-3,14,46,3
1523143518205107,6,-15,4,-8,-3,-13,-25,-6
1523143518211967,10,-3,11,14,-1,1,-71,15
1523143518211967,1,3,-11,0,-3,-7,34,-14
1523143518228869,-20,3,0,-5,-3,-11,-26,-4
1523143518228869,19,2,1,-11,-4,-1,5,-2
1523143518230450,-5,-3,5,11,7,12,-5,60
1523143518230450,-10,-3,-13,-14,-5,-4,-15,-38
1523143518250907,-9,12,-13,3,2,-9,-28,-20
1523143518250907,-2,-5,-19,-12,-3,-4,-38,44
1523143518252044,12,-2,-8,-3,-5,2,31,-30
1523143518252044,-63,-6,3,11,1,9,-3,52
1523143518264043,13,4,-4,0,3,0,40,-18
1523143518264043,12,20,-2,-13,-4,-2,-22,11
1523143518273067,33,-23,25,5,-1,2,28,-37
1523143518273067,3,4,-19,5,0,-10,-26,1
1523143518288497,-20,-2,5,-3,1,24,18,-8
1523143518288497,42,6,-11,-11,-5,3,-20,25
1523143518290112,-3,1,11,2,2,0,10,5
1523143518290112,5,6,12,3,1,14,-11,-17
1523143518311065,16,0,-12,-9,-5,-14,-29,-13
1523143518311065,-6,6,11,1,1,1,-1,-28
1523143518312840,-9,6,-10,2,-3,9,28,40
1523143518312840,17,-6,-5,-1,0,2,4,-38
1523143518324203,-16,-2,-5,-2,-1,-5,-15,-16
1523143518324203,-7,4,17,1,1,5,-5,-22
1523143518333227,-21,3,-11,-1,-2,13,16,6
1523143518333227,7,-1,-4,-1,0,-3,20,13
1523143518348266,2,0,7,-2,-2,-6,-5,9
1523143518348266,17,-8,-25,-4,-4,-19,-82,-34
1523143518349770,1,-1,14,-3,1,3,61,30
1523143518349770,24,6,4,2,-1,1,16,-14
1523143518370826,0,-1,8,-6,-3,0,-8,1
1523143518370826,-6,-3,-7,11,0,2,14,-7
1523143518372330,-24,2,-9,-8,2,2,-6,41
1523143518372330,-9,-3,13,4,-3,2,12,-42
1523143518392884,3,0,2,-5,-4,-15,-10,-39
1523143518392884,-18,-3,22,57,3,-2,30,-2
1523143518394891,15,-2,-25,-20,-4,-8,-38,-12
1523143518394891,-4,3,5,-19,-3,-4,9,10
1523143518415447,32,4,-33,-18,-3,7,10,48
1523143518415447,-21,-3,8,-19,4,-13,-47,-59
1523143518417450,-10,-1,58,80,5,34,56,2
1523143518417450,30,-5,-12,-3,-1,-1,-54,63
1523143518438244,-24,-11,-38,-23,-9,-11,-44,-10
1523143518438244,-40,9,-7,-42,-4,3,54,-34
1523143518439510,1,2,-6,-7,-3,-20,-56,22
1523143518439510,-16,-12,-12,-8,0,3,58,-43
1523143518444702,35,-7,20,49,1,-3,15,75
1523143518444702,-64,2,-1,-30,-5,5,-22,34
1523143518453615,9,10,-17,-17,-2,-16,-66,-110
1523143518453615,10,2,10,5,5,6,39,49
1523143518468587,-22,-8,-6,-16,-2,3,31,5
1523143518468587,14,-1,14,3,-2,-3,0,-1
1523143518469591,36,-1,1,29,1,-12,16,47
1523143518469591,4,2,-3,-5,-2,4,-15,43
1523143518491147,-20,-21,18,-7,3,-5,-24,-88
1523143518491147,-1,12,0,15,1,2,-2,-15
1523143518492716,-4,-9,-12,-32,-6,-6,6,18
1523143518492716,40,4,8,27,1,-3,-9,37
1523143518504182,-41,-1,-3,-10,-3,12,21,-54
1523143518504182,15,-3,-16,3,2,1,0,-4
1523143518513207,-11,-1,51,-16,-3,-8,-24,-8
1523143518513207,-29,1,1,-5,-4,-4,39,-32
1523143518528747,2,13,34,18,0,-5,-69,13
1523143518528747,23,-9,-1,19,1,9,68,8
1523143518530308,11,7,-19,-18,-1,3,22,25
1523143518530308,-32,-8,-6,-19,-4,-2,-23,-73
1523143518551235,-4,-3,5,-4,2,-3,-22,34
1523143518551235,25,-5,24,25,-4,-14,27,-2
1523143518552241,60,2,-63,-26,-2,8,46,38
1523143518552241,-2,4,2,-13,2,3,-40,-74
1523143518564273,14,0,0,1,-1,-1,0,-21
1523143518564273,61,4,-13,0,3,3,-31,56
1523143518573298,-25,7,8,10,1,-2,-3,-11
1523143518573298,-6,-34,-35,-9,-4,-2,-1,62
1523143518587836,-25,0,6,-14,0,-2,66,-93
1523143518587836,0,-18,-12,-8,-3,1,-4,9
1523143518594741,-30,-4,32,10,6,-12,-67,2
1523143518594741,6,16,-3,17,7,14,37,37
1523143518610818,11,0,-30,-23,-5,-11,-1,14
1523143518610818,-53,-6,-3,-21,-3,4,-20,22
1523143518612435,3,-6,-20,-8,-5,-5,7,-13
1523143518612435,13,2,-15,-19,-7,-21,-77,-28
1523143518624850,28,5,42,44,4,15,53,11
1523143518624850,17,8,-21,-13,0,3,12,6
1523143518633492,-26,-18,32,44,2,-2,-5,2
1523143518633492,33,8,-3,-4,-4,-1,-39,-32
1523143518647242,-25,-1,-12,-11,3,0,-9,38
1523143518647242,0,-9,28,9,-4,-8,-43,-71
1523143518654258,2,11,44,-10,1,-1,10,24
1523143518654258,9,1,1,7,-3,-3,6,25
1523143518670873,1,-4,-29,-22,-5,-3,-65,1
1523143518670873,-7,-5,17,6,2,7,64,-14
1523143518672308,10,1,-7,14,0,-7,-26,39
1523143518672308,-42,-4,6,3,2,12,55,34
1523143518693555,-53,3,-1,-13,-1,7,-11,-33
1523143518693555,7,-10,-14,-12,-2,-20,-84,27
1523143518694867,14,5,-21,-3,-3,8,38,-16
1523143518694867,-15,4,-2,2,1,-5,21,0
1523143518709134,1,-11,-8,11,-2,-2,18,31
1523143518709134,74,2,-12,-3,1,3,-15,8
1523143518715923,-85,-19,-13,-11,0,4,13,-63
1523143518715923,-2,-4,13,4,1,-9,-41,0
1523143518730459,15,7,-7,6,1,1,16,8
1523143518730459,7,-3,-14,-8,-4,2,18,-39
1523143518732467,36,10,-2,-4,-1,-2,-7,75
1523143518732467,14,14,17,8,0,5,32,-2
1523143518753406,-19,-7,-3,-2,-5,-8,-4,13
1523143518753406,5,-2,-14,-4,1,4,-7,11
1523143518755025,18,4,-11,-2,-1,-1,0,17
1523143518755025,-9,7,12,5,-1,-2,-6,-40
1523143518768639,64,-1,0,3,0,2,-13,31
1523143518768639,10,11,16,-6,-2,2,41,-28
1523143518769565,13,15,-7,-7,-1,-4,-13,-9
1523143518769565,-11,-26,-4,0,-2,-6,-35,-9
1523143518791019,7,-1,12,1,0,-5,-21,-39
1523143518791019,-22,0,-26,0,0,-3,4,29
1523143518792625,-15,-6,-11,-3,-4,5,7,-42
1523143518792625,19,-6,-2,-2,0,-1,-1,5
1523143518813432,5,4,-1,6,-2,-6,-2,9
1523143518813432,-8,0,1,-2,-1,7,-12,-8
1523143518814624,-14,-19,-9,-6,-1,-1,-18,-21
1523143518814624,-14,5,-1,1,-2,-6,-4,4
1523143518828549,2,-9,2,4,2,9,-3,1
1523143518828549,-38,2,-4,2,-2,1,56,26
1523143518829663,21,-2,-8,-7,-3,-6,-13,-26
1523143518829663,-10,-2,13,1,-1,1,3,6
1523143518851112,20,3,-1,3,-4,-11,0,13
1523143518851112,-3,2,-10,-9,0,-5,-11,-37
1523143518852224,9,0,-5,-4,1,7,15,16
1523143518852224,-10,-1,-2,5,2,2,11,19
1523143518873781,-1,-4,-12,-10,-4,-4,-1,-11
1523143518873781,-54,-8,62,27,-2,-5,-60,3
1523143518875342,37,11,-43,-36,-3,-4,59,48
1523143518875342,14,6,22,1,2,-1,-25,-58
1523143518887877,-4,4,-16,20,0,-1,0,21
1523143518887877,1,-13,-13,-21,-1,-1,-7,-16
1523143518894837,-34,2,19,27,1,-3,-24,15
1523143518894837,23,-7,-58,-6,-3,-2,-13,0
1523143518910776,-2,8,12,-5,0,-4,-63,-14
1523143518910776,-8,2,-18,-13,0,3,-4,-18
1523143518912384,18,0,3,3,1,2,17,-37
1523143518912384,-21,-3,1,5,1,0,44,17
1523143518933736,-13,-10,6,4,0,-9,-57,46
1523143518933736,-3,0,-9,3,0,7,9,19
1523143518934943,-2,-8,-1,-6,-4,-2,-9,35
1523143518934943,-3,3,10,-3,0,0,-3,-35
1523143518947478,18,2,-5,3,1,-1,9,49
1523143518947478,7,10,7,0,2,-1,31,10
1523143518954495,-13,-1,-9,12,-1,0,-4,-18
1523143518954495,17,8,12,-1,-4,-7,-27,-16
1523143518970860,-74,-12,-7,-12,-2,0,12,-14
1523143518970860,17,-1,-16,-7,-1,-3,11,18
1523143518972887,-5,-11,0,3,-2,1,-28,-7
1523143518972887,-15,3,3,9,-3,-2,-2,1
1523143518993502,30,2,2,-6,2,2,14,7
1523143518993502,-9,2,4,7,0,1,-2,1
1523143518995341,-3,8,-4,-3,-1,-4,-9,-65
1523143518995341,-26,-16,-2,-27,1,-4,-8,-11
1523143519007637,14,-18,-13,-11,-2,7,64,0
1523143519007637,10,2,14,-5,0,-2,-8,33
1523143519014191,4,-1,-15,-4,-3,-2,0,16
1523143519014191,5,-3,11,13,2,9,19,-31
1523143519030697,-20,-2,-2,4,-1,-4,5,-35
1523143519030697,36,1,-18,-14,-3,-5,-8,4
1523143519032202,-1,-1,16,-2,-2,-7,-49,-43
1523143519032202,13,9,-11,-7,-2,7,81,44
1523143519053257,-15,-10,-4,-12,-1,0,-4,-2
1523143519053257,-13,-1,13,38,1,3,23,1
1523143519054763,-5,14,-13,-27,1,-3,-22,-17
1523143519054763,-12,-27,8,50,0,-4,-3,-13
1523143519067294,16,14,-12,-33,-4,2,3,-25
1523143519067294,4,-1,0,20,0,-1,10,66
1523143519074313,0,-3,24,29,2,-2,1,-19
1523143519074313,4,-2,-13,-15,2,3,-29,-52
1523143519090857,-9,-10,3,-4,-1,2,38,32
1523143519090857,-32,-5,27,51,0,-10,-59,-21
1523143519092362,23,-3,-16,-19,-2,5,48,40
1523143519092362,-13,6,-4,-22,-3,-9,-1,19
1523143519112930,2,4,-14,-12,-5,-9,-35,-20
1523143519112930,4,-2,6,-11,0,-2,-54,-41
1523143519114922,3,-7,18,24,-1,-6,34,-38
1523143519114922,2,6,-11,-11,-2,1,14,52
1523143519127455,-1,-5,-4,-4,0,4,31,-4
1523143519127455,-22,-3,-14,-33,-5,-1,13,-31
1523143519134484,-3,-3,5,17,-1,-1,-38,-30
1523143519134484,6,10,0,-5,-1,-6,-30,4
1523143519151022,11,0,-1,1,-3,1,26,47
1523143519151022,-2,-6,9,11,-2,-7,-20,5
1523143519152524,-6,-12,-26,-35,-3,12,63,-3
1523143519152524,1,8,8,2,-3,-5,-4,15
1523143519173155,-7,6,-6,0,0,-2,-13,-13
1523143519173155,46,-11,-2,-4,-3,1,15,41
1523143519175091,-43,-5,29,17,0,-15,-86,-67
1523143519175091,-7,3,-4,13,-1,6,27,-14
1523143519187123,35,11,6,-3,-1,2,17,23
1523143519187123,-29,1,-27,-37,-1,4,5,-8
1523143519196147,8,0,-3,-13,-4,-7,-19,48
1523143519196147,1,-4,16,14,1,1,-31,-43
1523143519210755,-3,-16,7,17,1,3,3,14
1523143519210755,-15,-3,19,-15,1,5,26,-33
1523143519212187,5,-9,-5,10,0,-9,-32,55
1523143519212187,-6,2,-6,-9,-1,-9,52,59
1523143519233247,-26,-10,17,9,2,15,-22,-108
1523143519233247,5,0,-13,-8,-1,-5,36,40
1523143519234743,-14,4,-21,-8,-2,4,-2,-3
1523143519234743,13,20,-6,-5,-4,-14,-54,27
1523143519246775,20,17,3,12,1,-7,77,32
1523143519246775,-66,-5,0,-6,-2,5,-12,-44
1523143519255808,-3,8,0,-1,6,3,11,-4
1523143519255808,-5,-9,-3,-5,-4,-12,-12,11
1523143519271370,-13,-13,10,9,3,7,-60,22
1523143519271370,5,15,-7,-5,-3,1,0,9
1523143519272845,28,1,-13,-1,-6,-9,89,33
1523143519272845,-18,-18,2,-11,-4,2,-3,-77
1523143519300917,25,-5,15,7,3,5,-21,31
1523143519300917,10,10,4,-1,2,-5,12,-14
1523143519302421,-15,-4,10,-4,1,3,-37,27
1523143519302421,14,-1,-3,0,0,4,9,12
1523143519306935,-19,-3,-5,-4,-7,-6,14,-23
1523143519306935,30,1,-8,1,-1,9,-10,21
1523143519315958,14,2,3,-2,-4,1,18,-5
1523143519315958,-14,-4,1,0,0,2,-23,-16
1523143519330498,-7,9,-4,4,-2,-10,-15,10
1523143519330498,10,-3,-6,-1,-1,-4,0,-1
1523143519332501,-17,-1,5,-1,0,1,-21,-11
1523143519332501,15,-8,-13,-4,0,1,-7,20
1523143519353683,-24,-2,2,3,-2,-8,-7,-6
1523143519353683,10,-3,-7,-2,-5,-12,-39,16
1523143519354562,-6,-6,-9,-12,0,9,29,-18
1523143519354562,-8,10,16,9,-2,-5,-18,-16
1523143519367094,10,2,-40,-47,-4,-1,-3,15
1523143519367094,-9,-2,42,63,6,-4,-11,-16
1523143519375617,18,6,-17,-3,1,-1,-2,50
1523143519375617,-9,-2,-23,-51,-2,6,14,-22
1523143519391013,4,3,32,55,1,-9,-30,-3
1523143519391013,10,1,-30,-49,-4,2,25,-4
1523143519392526,10,-6,16,0,-5,-3,-13,9
1523143519392526,-1,5,3,18,3,3,5,20
1523143519413107,27,7,16,56,0,-7,25,15
1523143519413107,10,-9,-17,12,6,12,37,-35
1523143519414610,21,4,-23,-33,-2,1,8,60
1523143519414610,19,5,1,-17,-2,4,42,-3
1523143519427305,-22,-4,-11,-22,-4,3,0,-28
1523143519427305,10,2,-1,12,-1,-10,-54,3
1523143519435667,-22,-13,7,18,0,3,-2,-54
1523143519435667,9,-4,-5,4,-3,0,-10,48
1523143519450710,16,15,16,5,2,-1,-6,8
1523143519450710,4,-9,1,3,-3,-2,10,-9
1523143519452211,-11,3,-32,-34,-3,0,-17,-8
1523143519452211,6,0,34,30,2,-6,-5,44
1523143519473516,-15,-2,-10,40,2,4,-45,1
1523143519473516,0,3,3,-39,-4,3,67,-5
1523143519474773,18,-3,0,5,1,-11,-68,35
1523143519474773,-22,-2,-2,-3,1,23,87,-102
1523143519487027,7,-1,-11,-21,0,-5,-30,52
1523143519487027,-38,-14,-18,-9,-1,1,8,15
1523143519495829,7,1,20,-14,-4,-4,-5,-46
1523143519495829,9,0,10,80,3,-10,-58,9
1523143519511038,-17,-11,-9,-42,-2,6,28,-29
1523143519511038,34,-2,-19,-39,-1,1,-1,27
1523143519512373,-52,4,-3,16,1,1,23,-3
1523143519512373,3,1,-15,-16,-4,-11,-47,-5
1523143519532924,-6,-3,40,-10,0,5,-14,5
1523143519532924,20,11,-22,23,-1,-1,12,20
1523143519534929,-2,-5,29,28,-2,-9,-10,-41
1523143519534929,4,-2,-12,-9,2,11,9,10
1523143519547463,7,-1,-45,-50,-6,-2,25,22
1523143519547463,-47,-2,37,48,2,-15,-89,-57
1523143519555987,28,2,-9,-3,0,13,102,27
1523143519555987,-9,-14,-12,-25,-1,4,-45,14
1523143519570027,-3,4,32,57,5,1,4,-15
1523143519570027,8,-1,-24,-46,-8,-3,-41,67
1523143519577044,-14,2,29,40,3,-4,29,-61
1523143519577044,6,-4,-52,-61,-3,1,5,34
1523143519593330,-2,-3,56,67,1,-12,2,-24
1523143519593330,2,11,4,-5,0,2,2,12
1523143519594592,-2,7,-3,-11,-5,-1,-20,9
1523143519594592,11,-4,-6,0,-3,-2,-5,10
1523143519607209,2,1,-27,-44,-2,-5,-1,-19
1523143519607209,4,-2,4,26,-3,-9,12,-1
1523143519615645,6,-1,7,8,1,18,20,-22
1523143519615645,19,6,18,8,-2,-10,-6,44
1523143519630183,-9,6,-14,-16,-5,-9,-34,1
1523143519630183,0,0,-8,-10,-5,-5,5,-7
1523143519636703,0,8,-33,-35,-2,3,-16,24
1523143519636703,-1,0,38,15,-2,-2,1,4
1523143519653246,8,-3,-26,-9,-2,-2,-23,33
1523143519653246,-2,2,-14,-15,2,12,90,-15
1523143519654751,4,0,13,21,2,-9,-38,-8
1523143519654751,-9,0,15,5,-4,-5,10,-5
1523143519676054,1,-10,-12,-20,-4,6,1,-5
1523143519676054,-4,-4,11,0,-1,-2,-21,-59
1523143519677310,0,6,-8,-12,-3,0,10,37
1523143519677310,-6,-4,-2,4,3,4,-20,7
1523143519690457,12,-5,-22,-10,-1,3,67,-30
1523143519690457,6,0,2,-1,-6,-6,17,55
1523143519696981,8,-13,18,5,3,-6,-30,-55
1523143519696981,-19,11,-12,-4,-3,3,-24,7
1523143519720541,0,-11,-1,-3,-1,-2,21,-18
1523143519720541,-7,-3,13,-1,1,2,-14,17
1523143519722046,31,5,-11,2,-2,-1,40,52
1523143519722046,-13,-1,-10,-8,-3,-8,-8,-71
1523143519735581,-6,-6,5,-1,1,4,-34,27
1523143519735581,-1,-5,3,2,2,4,42,-41
1523143519737085,-13,-11,-8,-3,-3,-7,-43,-6
1523143519737085,-71,-9,0,-5,-4,-5,16,31
1523143519750122,12,4,0,4,1,-2,-5,-51
1523143519750122,10,8,-4,5,2,0,-35,35
1523143519756637,-5,13,-6,-6,0,-1,-31,-14
1523143519756637,9,-8,1,7,2,6,33,-16
1523143519773682,4,9,-4,-3,-1,-1,8,15
1523143519773682,-17,6,-1,-1,0,3,-15,-17
1523143519780200,-5,-6,0,-2,-3,-3,-12,-17
1523143519780200,26,0,-1,0,-1,-3,2,7
1523143519803261,-5,-7,1,-4,0,0,-3,3
1523143519803261,-3,-1,1,-1,-2,-1,-15,-46
1523143519804324,-8,-10,1,0,-1,-1,5,16
1523143519804324,9,4,-3,-5,2,-2,-4,0
1523143519809277,8,9,-10,-14,-1,1,-4,5
1523143519809277,-8,-24,33,46,0,-10,-18,-11
1523143519817940,-13,-6,-25,-14,-1,18,16,4
1523143519817940,30,0,-1,-12,-7,-3,-10,-31
1523143519832924,-19,4,26,21,2,-6,-28,-47
1523143519832924,-6,-1,-16,-26,-1,0,16,37
1523143519833344,21,4,-14,-14,-3,-8,-14,50
1523143519833344,2,-12,14,18,2,1,-10,-41
1523143519855459,-18,3,-39,-18,-3,-1,9,39
1523143519855459,40,7,4,-1,0,0,-15,-1
1523143519855903,15,-1,8,4,2,0,12,-9
1523143519855903,-1,8,-15,-21,-2,-3,-29,18
1523143519869439,-5,-2,7,6,-1,-1,11,-1
1523143519869439,-10,-10,0,28,0,6,-19,36
1523143519877788,-4,0,-9,-10,2,2,29,0
1523143519877788,-3,0,-2,5,-3,-15,-93,28
1523143519892691,4,-8,-3,-5,3,15,42,-54
1523143519892691,-2,3,12,-8,-4,-6,-37,-18
1523143519893706,-18,-1,5,16,1,-4,-20,-35
1523143519893706,-8,1,-9,-14,1,5,23,48
1523143519915064,14,-1,1,-2,-2,-8,-32,31
1523143519915064,-16,-4,-13,-26,-1,8,31,-57
1523143519916062,-5,-2,-3,-1,-1,-6,-13,37
1523143519916062,-12,-3,0,1,-2,0,24,-17
1523143519929097,23,4,-24,-6,-2,-8,-21,22
1523143519929097,19,-1,37,24,3,7,41,43
1523143519937622,-15,-3,10,18,-1,-13,-46,-61
1523143519937622,4,0,-22,-14,-1,8,80,16
1523143519952883,2,2,13,8,0,0,23,-3
1523143519952883,-15,-10,-18,-6,-1,-10,-84,-3
1523143519953164,8,-4,-27,-40,-4,6,35,-28
1523143519953164,27,-5,85,92,6,0,-41,1
1523143519975219,-8,-8,-23,-38,-3,-1,-8,38
1523143519975219,1,-11,-5,-14,0,1,10,-28
1523143519975726,-10,-7,8,-12,-1,0,-23,30
1523143519975726,-8,-1,-42,-32,-2,-7,-20,7
1523143519989760,-8,1,26,11,-2,-6,-4,-80
1523143519989760,11,7,22,21,2,7,19,63
1523143519997779,26,1,-3,12,-3,-2,6,-24
1523143519997779,7,0,-18,-35,-2,4,52,32
1523143520012621,-18,-6,1,10,-4,-11,-81,-10
1523143520012621,-8,0,-19,-40,-3,5,77,11
1523143520013123,4,1,13,28,0,1,-8,23
1523143520013123,2,6,-6,0,-1,5,-23,-43
1523143520035367,9,5,1,-17,-4,-2,-23,34
1523143520035367,-5,-7,-10,-18,-4,-9,-18,21
1523143520035682,-28,-2,5,10,0,-3,-17,-89
1523143520035682,-5,-3,5,4,-2,-1,4,-1
1523143520049263,6,16,-12,-19,-1,4,10,34
1523143520049263,-2,9,3,20,-3,-10,-57,-87
1523143520057741,38,-7,40,41,-2,-8,40,59
1523143520057741,1,-4,-26,-22,0,10,31,22
1523143520080828,8,3,3,-5,-2,-2,8,-41
1523143520080828,-4,3,-16,-4,-2,-5,-17,16
1523143520081326,0,-3,-3,-19,1,0,-9,-2
1523143520081326,-32,-11,2,6,0,-4,-22,-24
1523143520095115,24,-1,5,22,2,3,9,38
1523143520095115,16,-1,-21,-41,-4,-6,-22,-1
1523143520095865,-26,-5,-6,0,-2,1,-26,7
1523143520095865,-22,2,22,9,1,-4,9,-22
1523143520109402,-1,-19,-17,15,0,-1,-18,3
1523143520109402,-1,6,59,41,5,-4,-6,28
1523143520117679,4,2,-33,-3,-2,5,-17,-10
1523143520117679,-15,12,-9,-7,-3,0,-8,13
1523143520132465,-3,-6,3,-30,-1,1,33,4
1523143520132465,2,-1,-50,-24,-2,1,-3,-30
1523143520133466,-12,3,33,36,6,-6,-66,46
1523143520133466,26,-5,-8,-7,1,13,82,35
1523143520155223,10,10,-10,-11,-6,-1,-60,-23
1523143520155223,-48,-4,4,-1,4,-4,-18,-88
1523143520156026,8,3,20,9,0,7,60,23
1523143520156026,10,-2,-13,-10,-2,-5,-20,-33
1523143520169562,13,-4,-2,3,-1,-6,-6,43
1523143520169562,-7,-2,-2,-4,-1,4,13,26
1523143520177809,-16,-5,-5,-9,-8,-11,-3,-93
1523143520177809,-11,-1,11,10,5,1,-14,4
1523143520192622,-5,-7,-3,5,-1,4,39,-5
1523143520192622,26,8,2,-15,-4,-7,-17,10
1523143520193124,-1,1,-11,-10,2,5,19,22
1523143520193124,-2,-7,8,13,-7,-9,-36,20
1523143520215182,-1,2,5,5,2,-1,-11,-4
1523143520215182,3,-11,-1,-1,0,3,23,-77
1523143520216301,-30,5,-15,-24,-5,-3,-20,75
1523143520216301,14,-8,15,4,-1,-7,-76,-43
1523143520229221,7,1,5,13,0,12,87,-19
1523143520229221,8,-13,3,9,-1,-12,-3,53
1523143520237525,0,7,-3,-11,2,3,-21,14
1523143520237525,9,6,-4,3,-3,2,26,16
1523143520252282,29,-2,7,2,0,5,16,1
1523143520252282,-36,0,-4,5,-4,-2,-10,7
1523143520253284,-8,-14,-13,-6,-3,-3,20,-70
1523143520253284,28,8,1,-1,1,8,25,73
1523143520275212,24,-5,-9,-6,-7,-24,-49,-55
1523143520275212,-6,14,2,5,2,10,23,29
1523143520275845,7,4,0,-8,-3,-4,7,-1
1523143520275845,-9,0,-4,-3,1,-5,-3,-37
1523143520289768,-24,-3,8,9,2,4,10,24
1523143520289768,-4,1,-7,3,-1,-3,-17,-29
1523143520297402,-52,-11,-1,-4,0,-2,13,18
1523143520297402,9,-7,-3,-5,-2,-5,8,-12
1523143520312943,-31,2,5,3,1,-2,-9,-3
1523143520312943,18,-7,-7,1,-3,3,17,19
1523143520313444,16,5,-8,-3,0,8,8,4
1523143520313444,-21,0,0,2,-2,-7,-8,5
1523143520335001,-34,-5,7,4,1,-3,0,1
1523143520335001,29,6,-2,-2,-3,10,-21,-8
1523143520336084,34,1,0,0,-3,-8,-17,-17
1523143520336084,-14,4,-6,0,1,10,98,-4
1523143520350959,0,11,-5,-12,2,-1,-19,9
1523143520350959,-2,1,5,30,3,-3,-5,11
1523143520357858,-1,5,-14,-27,-1,-1,-14,-14
1523143520357858,-1,-4,6,12,-5,-10,-30,-2
1523143520380535,-5,-1,-4,-1,0,-1,9,25
1523143520380535,13,5,-10,-24,-2,-2,24,35
1523143520381893,-21,-12,-13,-7,1,3,20,-22
1523143520381893,5,4,32,43,-3,-7,-15,-14
1523143520395074,-29,-8,-13,-25,2,-3,-15,17
1523143520395074,36,-2,-12,-17,-1,12,11,-23
1523143520395575,7,3,22,38,5,-4,-16,21
1523143520395575,-7,-8,-51,-67,-7,3,11,-23
1523143520419837,13,-3,48,5,-4,-8,-45,11
1523143520419837,-29,-3,8,86,4,-6,16,-33
1523143520420951,43,-1,-20,-64,-7,-2,-7,64
1523143520420951,-18,-6,21,16,-1,1,42,-103
1523143520432485,-10,-1,-8,-4,-2,-3,6,-6
1523143520432485,-1,-4,-8,-36,-2,1,-11,12
1523143520433778,-2,-7,1,-10,2,0,-10,14
1523143520433778,-3,2,11,62,6,-10,-12,11
1523143520455370,8,-1,-26,-22,-6,0,18,-17
1523143520455370,-3,0,6,-6,1,-3,3,31
1523143520455548,-11,0,-10,-17,-1,11,-6,6
1523143520455548,19,-1,0,-16,-3,-4,62,22
1523143520469647,-27,4,17,29,4,7,-25,-64
1523143520469647,16,0,-23,-13,1,-5,7,20
1523143520477544,0,-13,15,-3,-9,-9,-14,25
1523143520477544,-2,2,23,23,1,-7,-107,-5
1523143520492585,27,-3,-12,11,1,6,-13,9
1523143520492585,3,-5,-16,-45,-8,-3,26,53
1523143520493588,19,0,5,21,-1,2,30,-84
1523143520493588,-18,0,21,27,3,-6,-52,14
1523143520515147,15,0,-35,-25,-4,0,15,15
1523143520515147,-15,3,44,8,-3,-8,3,-15
1523143520516127,6,1,-1,35,7,11,25,36
1523143520516127,5,2,-12,-36,-2,-1,-20,22
1523143520538500,-20,-4,-15,6,1,1,30,-52
1523143520538500,-4,-2,-22,-20,-6,2,9,6
1523143520539004,-11,0,28,13,-4,-9,9,22
1523143520539004,23,1,-14,-7,15,15,37,-22
1523143520553310,-22,-9,-8,-21,-5,-2,-28,18
1523143520553310,-12,-10,23,15,0,-4,-1,-23
1523143520553643,8,4,-10,0,-6,-5,-15,-37
1523143520553643,-13,-3,-34,-26,-6,-8,-50,23
1523143520575336,7,2,23,10,3,7,105,46
1523143520575336,2,7,-4,7,2,13,-30,-43
1523143520575701,6,-1,-15,1,0,1,16,33
1523143520575701,-28,-2,11,-24,-4,0,17,-13
1523143520598310,-6,-1,-1,8,0,-11,-27,-8
1523143520598310,1,-5,-3,8,-1,1,-6,25
1523143520599322,-9,0,-34,-17,1,-3,1,-29
1523143520599322,4,2,35,3,-3,-4,-15,-12
1523143520612298,12,-15,18,41,0,4,7,52
1523143520612298,-22,-3,-7,-12,1,-5,-9,-81
1523143520613302,1,4,-6,1,0,-6,-28,-8
1523143520613302,10,3,-24,-26,-7,-3,0,1
1523143520635358,-32,-2,20,12,1,2,-20,39
1523143520635358,-7,-12,10,-3,-2,-2,13,-11
1523143520635861,-5,2,15,3,5,4,-5,-56
1523143520635861,9,-4,-4,18,-2,2,-16,30
1523143520658922,6,10,-3,-19,-1,0,5,-20
1523143520658922,11,1,-12,1,-2,-7,-98,7
1523143520659423,-12,1,8,-8,-4,5,77,12
1523143520659423,2,-3,-42,3,3,7,10,15
1523143520672629,-7,1,23,3,-2,-9,-41,-27
1523143520672629,6,4,-3,13,-5,-9,13,1
1523143520673575,0,-4,-1,-4,-3,3,-4,30
1523143520673575,4,1,-10,-24,-7,-5,9,6
1523143520695017,-2,-5,-12,-4,5,-5,-29,-48
1523143520695017,-3,3,12,7,6,6,19,18
1523143520695519,-14,-1,14,15,-4,-16,-58,0
1523143520695519,31,-1,-2,1,0,16,51,5
1523143520719613,1,1,-10,-14,-8,-1,-17,13
1523143520719613,4,4,-9,3,2,2,6,28
1523143520720586,-9,-20,8,-2,0,-3,-16,12
1523143520720586,-3,-14,6,-9,-5,-10,-31,-23
1523143520732695,-1,0,6,7,1,2,18,6
1523143520732695,24,4,-12,-1,-1,7,-1,-1
1523143520733767,-8,5,5,-1,0,1,-41,-9
1523143520733767,15,23,-2,-4,1,-3,26,-5
1523143520755557,18,5,-20,-7,-6,-4,-9,24
1523143520755557,-1,-6,15,-6,1,4,16,-34
1523143520755683,9,16,-5,7,-2,-3,11,10
1523143520755683,-28,-9,9,1,0,-5,-48,-34
1523143520778457,5,10,-1,0,-1,5,84,13
1523143520778457,0,-3,-8,-2,-6,-14,-29,28
1523143520779181,27,-7,-11,-4,-4,6,-20,-8
1523143520779181,2,5,4,0,2,0,17,-15
1523143520793104,-8,-8,-4,-4,-1,-6,-12,-25
1523143520793104,9,-1,-18,-1,0,2,-1,66
1523143520793217,-19,12,11,2,2,11,30,-53
1523143520793217,-7,-14,-3,-3,-5,-12,-23,54
1523143520815276,5,-3,-4,3,4,6,-25,-7
1523143520815276,26,13,-9,-4,-2,4,31,-32
1523143520816307,-13,-9,-3,-2,-3,-8,-8,60
1523143520816307,5,-23,-4,-3,-5,-2,0,0
1523143520838338,7,16,0,0,0,0,-2,-16
1523143520838338,-27,-16,15,-1,3,4,19,14
1523143520838839,12,1,-6,-2,-5,-9,-5,-18
1523143520838839,-3,0,-1,1,-3,-1,-11,-16
1523143520852517,-5,-6,3,-4,6,6,15,4
1523143520852517,-5,4,3,2,-2,-3,12,-11
1523143520853627,-10,-12,-7,-3,-3,-4,13,23
1523143520853627,9,9,2,-2,-5,7,17,-8
1523143520875461,-8,-5,-4,-19,3,1,-11,20
1523143520875461,-12,-4,18,32,1,-6,-19,-28
1523143520875941,2,1,-6,-4,3,-4,1,-14
1523143520875941,-21,-6,25,10,-5,-9,1,40
1523143520898127,-8,0,-17,-9,-2,-1,-18,-37
1523143520898127,-12,-6,6,-17,-4,-3,44,-2
1523143520899248,-3,-23,3,25,4,1,-1,5
1523143520899248,2,9,-24,-28,-1,-8,-21,-6
1523143520912537,8,-7,21,15,-7,-5,-4,-21
1523143520912537,-1,6,-20,-22,-2,-4,-10,15
1523143520913037,10,6,0,-12,0,-6,-28,-6
1523143520913037,-28,-3,-1,15,6,11,52,-13
1523143520935487,4,2,-15,5,-6,3,-1,7
1523143520935487,6,3,18,41,11,-6,-21,-15
1523143520935598,-55,0,2,-11,-5,-1,7,15
1523143520935598,17,2,-18,-29,-1,2,-34,4
1523143520958551,-2,2,-2,19,-6,-7,22,22
1523143520958551,-15,-2,18,0,-8,4,18,45
1523143520959160,12,0,-32,-12,6,-1,-10,-94
1523143520959160,-4,1,19,7,5,-4,-28,46
1523143520972630,-1,-5,-17,-6,-5,1,51,0
1523143520972630,5,2,-6,-16,-6,-7,-37,19
1523143520973255,8,5,20,3,2,-1,3,27
1523143520973255,-7,0,-32,-11,-6,2,21,-34
1523143520994811,14,12,18,-7,10,-6,-63,-2
1523143520994811,-2,6,-9,40,2,5,47,-1
1523143520995815,15,2,-9,-37,-6,4,9,18
1523143520995815,-12,-8,-11,-15,-5,-6,-25,-31
1523143521018768,2,0,44,69,1,-6,-22,-24
1523143521018768,8,-4,-24,-31,-5,-4,-29,11
1523143521018876,-22,-7,2,-2,3,2,11,-69
1523143521018876,30,7,-4,3,-1,-1,-24,35
1523143521032981,-17,-7,0,-13,-2,-1,15,27
1523143521032981,-7,-5,19,-6,0,-6,-36,-16
1523143521032981,22,-1,-7,13,-5,-2,13,30
1523143521032981,-10,-4,-2,5,-5,-1,49,-28
1523143521055517,-12,-3,-14,-32,3,6,-15,-30
1523143521055517,2,-3,27,36,5,-1,-8,-30
1523143521056018,1,3,-11,-18,-9,2,5,39
1523143521056018,-3,0,-9,1,9,-2,-13,-1
1523143521078076,1,-4,2,-13,-5,3,6,38
1523143521078076,0,14,-32,-24,0,1,1,-24
1523143521079079,-16,0,55,45,-5,-1,8,-33
1523143521079079,-1,4,-7,4,4,-2,-21,25
1523143521092615,8,1,7,-2,1,-7,-55,-4
1523143521092615,-1,-3,-13,-2,0,3,61,33
1523143521093768,5,-1,-13,-6,0,0,-25,36
1523143521093768,0,-2,5,-2,-6,-4,-30,-51
1523143521115676,5,-2,5,-6,-3,-4,71,32
1523143521115676,-9,-3,-1,-12,-3,4,-24,-45
1523143521115676,2,-2,-8,0,1,-1,-4,-17
1523143521115676,2,1,7,-9,-2,-1,11,12
1523143521137781,-8,-2,-14,-1,0,-1,-5,-21
1523143521137781,-6,-8,-12,-27,-4,0,26,5
1523143521145072,11,1,21,38,1,-3,6,-1
1523143521145072,-18,-8,12,5,-1,-6,-11,28
1523143521152970,-3,-2,-10,-14,-2,7,5,-8
1523143521152970,-11,0,2,4,-8,-4,-11,-38
1523143521153091,19,4,-33,-37,6,1,-22,47
1523143521153091,1,1,19,44,3,6,26,18
1523143521175995,-8,-25,6,15,1,-6,-19,-44
1523143521175995,0,-3,-11,-13,2,3,-3,19
1523143521176153,-3,4,-3,-7,-3,-5,-42,-15
1523143521176153,8,-2,0,-6,-1,7,53,42
1523143521198710,-38,-5,2,2,-2,1,-3,14
1523143521198710,-18,-1,-4,2,0,-6,-35,-96
1523143521198710,9,-3,-1,5,-1,-7,-13,28
1523143521198710,-39,-3,0,0,5,18,18,-12
1523143521211699,15,4,-14,-11,-2,-1,-23,-14
1523143521211699,2,1,5,-7,-4,-5,-1,22
1523143521220351,-20,-4,-3,8,-2,-10,-32,-1
1523143521220351,17,-23,10,2,3,7,58,12
1523143521236575,37,-1,-3,-5,-6,6,45,-9
1523143521236575,-16,-14,3,2,2,-4,-20,70
1523143521237694,52,9,-13,-7,-6,-7,7,-56
1523143521237694,-16,17,-6,-3,-3,-1,-35,-22
1523143521258185,-24,-1,5,5,4,5,21,8
1523143521258185,41,-15,12,-1,2,8,15,9
1523143521259440,-57,-5,-6,-2,-1,1,41,41
1523143521259440,10,2,-5,-6,-6,-14,-32,-36
1523143521272418,11,-3,-2,2,-2,-19,-39,-17
1523143521272418,3,7,2,-2,-2,-1,-9,20
1523143521280194,-8,3,5,-4,1,24,41,3
1523143521280194,39,-8,-3,2,0,-6,-30,-12
1523143521295235,-12,11,-1,-1,-2,-2,-2,5
1523143521295235,1,11,-16,-4,-3,-7,-14,5
1523143521295738,7,-11,8,7,-1,4,6,-17
1523143521295738,-10,-2,2,-1,-1,-6,3,-4
1523143521318295,18,1,-11,-3,0,3,19,5
1523143521318295,-3,3,-13,-6,2,2,-1,-17
1523143521319398,9,9,-5,-2,-7,-11,-12,16
1523143521319398,-19,8,-7,-3,1,10,6,2
1523143521332208,9,-5,4,-1,4,5,3,17
1523143521332208,-5,-7,5,-1,-3,3,6,-4
1523143521340093,-22,-10,3,-1,0,-10,-19,-19
1523143521340093,31,0,-2,-3,-6,-10,-9,60
1523143521355132,-5,3,0,0,-4,-5,-20,-20
1523143521355132,27,1,-5,-1,1,-1,7,16
1523143521356422,-14,-7,6,-7,-3,2,12,-3
1523143521356422,-7,2,-2,-3,0,-7,-10,-14
1523143521378196,-4,6,2,3,-1,-1,-1,18
1523143521378196,0,-2,6,38,0,-7,-33,10
1523143521379198,-4,-4,-10,-22,-5,-2,45,-41
1523143521379198,5,5,14,-3,1,1,-2,0
1523143521391755,-18,-7,-61,-71,-1,2,-3,6
1523143521391755,-18,0,63,51,3,-3,-18,1
1523143521400534,33,7,11,67,1,-2,5,64
1523143521400534,-27,0,-13,9,3,-1,-9,-107
1523143521416300,29,5,-17,-20,-8,-3,8,64
1523143521416300,-35,-10,-20,-79,4,2,-50,-41
1523143521417299,-6,-2,9,14,2,2,8,33
1523143521417299,-2,3,9,12,-1,-1,-10,39
1523143521438505,11,5,-12,-4,-4,-4,-2,-57
1523143521438505,21,8,-7,-4,-6,-6,-36,25
1523143521439007,10,4,2,13,-7,3,4,5
1523143521439007,-16,-3,13,-12,4,-5,-31,-44
1523143521451539,5,-8,6,11,-1,-10,-15,31
1523143521451539,-53,-8,-31,-32,-5,8,69,4
1523143521460463,0,-1,27,5,-4,-3,29,-97
1523143521460463,14,11,-3,52,2,1,22,23
1523143521475101,-30,-3,6,9,2,-4,-31,25
1523143521475101,26,-4,47,8,-6,-6,5,-34
1523143521476211,-1,1,-33,-44,2,4,34,26
1523143521476211,10,-4,-22,-61,-9,4,24,11
1523143521498711,1,-2,31,67,2,1,13,-18
1523143521498711,9,3,-22,-30,-3,-6,-10,-3
1523143521499166,-1,-1,-10,-18,-1,6,-36,-9
1523143521499166,-23,-8,51,21,-3,-11,-21,-17
1523143521511702,26,8,-30,-5,3,5,53,66
1523143521511702,4,5,-29,-29,-8,1,-3,-23
1523143521520063,-20,-2,14,-29,5,1,-67,-40
1523143521520063,4,-3,-14,20,0,11,75,34
1523143521535301,-1,-20,9,-40,-8,-7,-74,-20
1523143521535301,-7,-4,-2,45,9,10,28,40
1523143521535764,17,2,8,-21,3,-5,-9,6
1523143521535764,-2,-2,-11,24,1,-2,-71,-2
1523143521558672,-11,3,8,-3,-2,3,-33,-14
1523143521558672,2,6,0,12,4,8,65,-7
1523143521558826,-1,-10,-25,-22,-5,-4,-7,8
1523143521558826,-1,2,-1,-14,-1,-9,-76,6
1523143521580764,-11,0,-5,16,-3,7,53,-14
1523143521580764,7,1,10,-23,-3,1,-5,-2
1523143521581386,-9,2,-18,33,9,-2,-7,24
1523143521581386,3,2,13,21,-1,8,30,-35
1523143521594921,-13,5,-14,-10,3,5,10,-13
1523143521594921,42,1,5,-12,-4,-19,-23,14
1523143521595925,-11,0,1,10,1,14,18,-70
1523143521595925,9,-15,-24,-55,-5,-2,11,16
1523143521618483,-6,3,23,23,4,-3,18,1
1523143521618483,-8,0,-23,24,0,-4,-21,-23
1523143521618986,23,0,28,36,-3,-16,-26,32
1523143521618986,4,8,-12,-13,0,5,26,-19
1523143521641192,-2,-4,-5,-56,-12,-2,-5,-8
1523143521641192,-13,3,17,81,18,1,-60,12
1523143521641554,-3,2,-19,-14,0,-7,8,10
1523143521641554,-17,-6,-20,-40,-6,15,44,5
1523143521655080,37,8,61,67,1,-9,-47,-11
1523143521655080,-11,-4,-21,-7,-7,-9,15,31
1523143521656238,-2,0,-3,-19,2,28,12,35
1523143521656238,10,-2,-14,5,4,-9,-12,-69
1523143521678143,-3,6,-3,-32,-1,9,7,23
1523143521678143,10,-4,-5,-10,-8,2,-5,-15
1523143521679144,-4,3,12,23,-2,-8,-1,32
1523143521679144,16,-1,-30,-22,-3,1,11,27
1523143521701094,-20,-18,48,32,-4,-6,-2,-15
1523143521701094,-15,-4,-1,3,5,5,38,-29
1523143521701204,2,5,-17,-23,-6,-15,-77,6
1523143521701204,0,-17,22,4,-4,-6,29,11
1523143521715628,-2,3,-23,-5,1,0,25,6
1523143521715628,-4,-2,5,-4,-2,0,-12,8
1523143521715743,6,0,8,-2,-3,-1,6,-3
1523143521715743,14,3,5,9,1,-2,-14,7
1523143521738338,-63,-15,-3,8,5,2,-5,-15
1523143521738338,5,2,-9,-21,-10,-17,27,12
1523143521738804,9,-1,-8,-3,3,10,50,-14
1523143521738804,15,13,16,11,0,4,-24,43
1523143521760864,4,5,-16,-2,2,11,21,-29
1523143521760864,26,-1,-4,-12,-7,-5,-17,-1
1523143521761364,-48,10,-5,-2,-4,-14,8,11
1523143521761364,-15,9,-9,12,2,-3,-38,-24
1523143521775689,4,1,-12,-5,-1,0,0,-1
1523143521775689,-13,-1,-4,-7,-4,3,9,-3
1523143521775902,20,-5,5,7,2,1,14,10
1523143521775902,-6,-3,0,-2,1,-1,1,41
1523143521798360,2,-1,-13,-3,-3,-8,-10,0
1523143521798360,-10,-2,6,-2,3,4,4,-22
1523143521798965,4,-4,1,-3,0,-1,14,16
1523143521798965,-18,-3,-1,-3,-1,0,-5,8
1523143521821126,5,-2,-3,1,-1,4,10,-23
1523143521821126,-2,-6,2,-3,-1,-3,-26,28
1523143521821525,19,-4,5,0,-1,6,3,-22
1523143521821525,-14,-4,1,-1,-9,-9,11,-1
1523143521835226,30,0,0,-1,7,-2,-16,3
1523143521835226,-19,3,2,-3,0,5,-16,-12
1523143521836062,2,-8,-4,-1,-3,-3,18,-2
1523143521836062,-10,-9,0,2,-2,-7,-15,8
1523143521858513,-36,0,-2,-4,-3,-3,7,9
1523143521858513,11,8,-6,-7,-1,1,-4,-11
1523143521859123,-1,-5,9,2,-1,-3,-15,-1
1523143521859123,0,4,-1,9,-1,-4,-6,-11
1523143521880701,-7,-3,4,10,-1,-2,-6,-24
1523143521880701,-1,3,-16,-26,-1,0,18,4
1523143521881942,-11,-5,23,17,-6,2,-4,-10
1523143521881942,14,3,-11,-24,4,1,1,1
1523143521894740,6,2,14,20,7,0,0,-7
1523143521894740,-1,-11,-2,11,-13,-5,0,-7
1523143521895741,4,1,-13,-25,3,-5,-8,-1
1523143521895741,3,-3,0,-1,-1,1,1,-16
1523143521918300,-2,3,-6,-11,-1,4,-1,24
1523143521918300,10,0,2,2,7,4,12,62
1523143521919490,-20,-6,-4,1,-2,-4,-22,-89
1523143521919490,0,1,8,7,-5,-10,-21,26
1523143521940791,-6,-2,-14,-9,-13,-4,48,-10
1523143521940791,37,2,4,8,3,3,2,23
1523143521941295,-10,0,-6,3,12,5,-1,27
1523143521941295,2,-2,2,3,-8,4,11,-1
1523143521955477,2,-2,-6,-6,-3,-11,-15,-39
1523143521955477,-29,-2,1,0,-4,1,-7,-50
1523143521955832,26,8,-2,0,-4,-2,2,31
1523143521955832,-3,-4,-3,0,4,-1,-6,3
1523143521977890,6,-4,0,-4,-5,0,-4,46
1523143521977890,-18,0,2,4,4,0,17,-37
1523143521978894,20,5,-4,0,0,-2,-11,17
1523143521978894,-9,-14,6,1,0,-6,12,-11
1523143522001096,24,4,-7,-8,0,3,-3,18
1523143522001096,5,0,3,13,1,2,-2,-7
1523143522001455,-13,-5,12,-17,-9,-5,7,14
1523143522001455,23,2,-26,0,4,0,0,12
1523143522015563,-30,0,20,47,12,-3,-16,-46
1523143522015563,-4,-9,-18,-27,-6,-1,-2,18
1523143522015563,-3,-1,-10,-23,2,-4,-5,-28
1523143522015563,-1,-1,-8,-35,-7,2,2,-2
1523143522038552,-3,17,50,78,-3,5,8,39
1523143522038552,-7,-7,-17,3,19,0,-5,-7
1523143522039054,-21,-20,-28,-39,-5,4,-3,2
1523143522039054,-6,0,15,-8,-9,-5,-10,-10
1523143522060703,6,0,-7,-13,-3,0,-3,2
1523143522060703,4,2,5,-24,-4,-2,18,17
1523143522061613,3,6,10,65,3,-2,0,17
1523143522061613,-15,4,-2,-4,3,-3,-16,-45
1523143522075551,7,-7,-15,-16,-17,-8,-9,21
1523143522075551,3,9,-4,-18,6,3,5,1
1523143522075650,-3,-3,-5,9,2,0,1,36
1523143522075650,4,4,10,8,-3,2,10,8
1523143522097959,0,-7,-26,-7,4,-2,-9,-16
1523143522097959,-8,-5,0,-32,-11,-7,11,-29
1523143522098212,-15,-2,2,6,-5,3,-19,-33
1523143522098212,25,-2,6,8,11,19,21,42
1523143522121119,-28,-4,-17,18,4,-1,1,13
1523143522121119,13,-1,5,4,10,-2,-13,30
1523143522121273,23,7,31,38,-2,0,18,16
1523143522121273,10,2,-32,-31,-10,-3,5,-3
1523143522134807,11,-2,-9,-38,1,-4,-45,-3
1523143522134807,-18,-5,9,18,-7,4,38,-6
1523143522142652,-8,2,-31,-34,1,-3,-11,-20
1523143522142652,-7,2,26,50,3,-7,-17,13
1523143522158701,14,1,-11,-28,1,-4,5,-9
1523143522158701,5,5,13,21,-11,-5,-45,22
1523143522158872,-5,-1,-19,-23,-1,9,-19,-65
1523143522158872,-12,-17,19,-7,11,11,47,10
1523143522181090,0,5,-1,-13,-2,0,7,-3
1523143522181090,-2,3,-11,5,-6,0,-70,22
1523143522181434,13,3,30,21,-7,-4,61,17
1523143522181434,-14,3,-6,0,-4,-5,-32,19
1523143522194467,-6,-5,6,0,6,6,56,-49
1523143522194467,-4,-4,-9,-10,-4,-12,-52,-50
1523143522202869,0,13,0,0,2,1,45,-12
1523143522202869,-24,7,1,12,-3,-2,-16,-21
1523143522218530,20,-1,-15,-20,-4,-2,32,31
1523143522218530,-12,-14,4,3,-2,10,-10,-22
1523143522219032,0,2,4,1,1,-7,-11,0
1523143522219032,-1,13,-6,3,-2,-11,-34,-10
1523143522248470,-10,-6,0,-13,-1,7,12,-11
1523143522248470,51,1,-1,17,-4,-21,-49,57
1523143522249113,-27,-4,-1,1,3,13,-37,-54
1523143522249113,-4,-12,-2,-10,-3,6,8,28
1523143522254801,-11,3,-3,-7,-4,1,-16,45
1523143522254801,18,2,8,6,-4,-9,16,-25
1523143522262647,-2,-33,-5,-6,-2,4,14,73
1523143522262647,-14,8,2,-3,-2,-4,-1,-1
1523143522278190,10,2,8,0,-2,-8,-23,-28
1523143522278190,-26,-4,-3,-1,1,13,46,7
1523143522279191,-3,1,-9,-11,-4,-5,-27,-18
1523143522279191,-1,-1,0,4,-2,-8,22,-11
1523143522300751,5,0,-3,1,-1,-5,-28,18
1523143522300751,-36,-12,-6,-2,4,19,48,-24
1523143522301253,-5,-1,1,0,-2,-9,-16,5
1523143522301253,6,-3,0,3,-4,-4,-7,-36
1523143522323308,-15,-3,0,-5,3,0,-1,7
1523143522323308,-2,3,3,-1,-5,-3,15,6
1523143522324815,-2,-1,0,1,5,-3,-9,-7
1523143522324815,0,-5,-4,-2,-4,2,3,5
1523143522337751,4,-26,4,-3,-3,-3,-12,-4
1523143522337751,-9,9,0,-3,-4,2,13,-17
1523143522338350,6,-12,-9,0,-1,8,2,90
1523143522338350,16,-2,-10,-7,-2,2,2,-67
1523143522360912,-8,2,0,-4,-2,-5,-30,-27
1523143522360912,6,-5,5,0,-5,-3,11,23
1523143522361411,-4,-10,8,-3,0,-11,-22,9
1523143522361411,-6,4,-24,-25,0,4,42,11
1523143522374854,20,4,27,48,-4,-2,-40,14
1523143522374854,0,0,-18,-13,8,4,27,-9
1523143522382809,22,8,42,26,-2,-6,-1,3
1523143522382809,-10,-5,-45,-35,-3,-8,-30,-9
1523143522398008,-7,3,28,18,12,17,18,-12
1523143522398008,-4,2,-20,-16,-5,-6,-20,14
1523143522398008,1,1,-19,-39,-12,-12,-54,-3
1523143522398008,8,1,55,90,-1,10,37,44
1523143522421095,-12,-2,-27,-32,11,0,3,-1
1523143522421095,10,-1,-36,-45,-1,-2,-47,-48
1523143522421574,-25,0,40,11,-8,-2,40,-35
1523143522421574,-3,-1,24,60,0,-4,-5,0
1523143522434608,14,6,-7,-12,-6,0,23,57
1523143522434608,-1,6,10,26,3,-1,-17,17
1523143522443128,11,1,-34,-56,-2,-1,7,4
1523143522443128,-4,-8,-34,-42,-4,-16,-33,-46
1523143522457305,62,0,21,32,-1,29,56,38
1523143522457305,-41,4,32,38,4,-7,-32,-6
1523143522465692,4,5,-8,7,-1,5,53,-15
1523143522465692,3,4,5,1,-1,-4,-14,7
1523143522481122,10,-4,-47,-40,-5,-12,-93,-2
1523143522481122,-8,-4,-1,-9,-7,-3,57,-13
1523143522482234,7,1,-31,-11,-7,6,-7,53
1523143522482234,5,-2,68,35,11,-6,-48,26
1523143522503693,-35,5,9,50,-1,-9,50,-61
1523143522503693,8,-4,-4,-13,-9,-4,0,-15
1523143522504793,-2,2,-2,-2,7,3,-14,-1
1523143522504793,8,-1,-75,-82,-2,2,14,9
1523143522516825,-8,-1,37,10,-1,-8,-25,7
1523143522516825,7,-2,27,46,1,-11,-16,6
1523143522525847,10,1,-14,0,3,21,8,-15
1523143522525847,-9,-5,4,-14,-1,4,11,-42
1523143522540889,-7,8,-24,-25,3,6,67,3
1523143522540889,4,2,29,35,-3,-10,-22,5
1523143522542399,-6,2,-3,-9,-2,-10,15,-26
1523143522542399,10,4,12,17,2,15,72,21
1523143522563524,1,0,-26,-29,-6,-10,-86,-30
1523143522563524,13,-3,-12,-21,-2,0,71,9
1523143522564952,-13,-2,-5,-12,2,-8,-29,42
1523143522564952,2,-4,9,18,-5,-3,-26,-62
1523143522576984,-13,-4,3,-15,-5,-5,25,19
1523143522576984,4,-2,-24,-19,2,6,-17,11
1523143522586009,-9,-13,39,59,5,-3,-20,-12
1523143522586009,4,-5,-51,-47,-5,4,-1,22
1523143522601303,-26,-10,51,18,-11,-26,-16,-12
1523143522601303,20,5,-12,-10,1,13,-42,-16
1523143522602553,-38,-1,-10,-7,-1,3,74,-39
1523143522602553,9,2,-25,-58,2,2,-14,49
1523143522623353,-7,-3,53,16,-5,-12,-20,-17
1523143522623353,8,1,10,63,5,-7,7,8
1523143522624614,20,5,-8,23,-2,9,-8,16
1523143522624614,-25,-6,3,-21,-7,-11,36,17
1523143522637645,9,8,-49,-33,1,7,68,20
1523143522637645,-11,2,12,-11,4,6,-11,27
1523143522644166,-3,-5,5,1,-1,-11,-45,-68
1523143522644166,-14,-1,-20,-9,1,0,-32,-4
1523143522660709,32,1,28,23,-1,-5,-61,2
1523143522660709,-7,-3,4,27,6,16,118,25
1523143522662212,6,-5,-32,-14,-7,-10,-1,18
1523143522662212,-3,1,58,25,-3,-5,-45,-6
1523143522683513,-10,-6,-51,-23,2,9,12,-25
1523143522683513,-5,-7,29,-5,-7,-11,-21,12
1523143522684771,11,8,-3,3,3,19,-4,-42
1523143522684771,-7,-31,16,2,1,4,2,15
1523143522698810,22,6,-21,-6,-1,-1,-32,55
1523143522698810,2,-10,-25,-26,-10,-8,-21,-63
1523143522704825,-12,-5,25,4,2,-12,-4,8
1523143522704825,1,9,12,29,1,9,36,-1
1523143522720867,-21,-7,-17,-10,-2,8,-17,40
1523143522720867,7,-5,-6,-15,-2,-2,-28,3
1523143522722374,2,4,6,-3,-1,0,9,29
1523143522722374,-20,-4,-17,8,-5,-12,-33,-1
1523143522743928,57,-7,-5,0,-4,-14,-5,-22
1523143522743928,-15,7,-5,-13,0,14,46,53
1523143522745433,6,-1,-12,-3,-4,-1,-45,-46
1523143522745433,-1,-9,14,4,2,-7,-3,0
1523143522757967,-5,3,-5,-3,-1,-1,5,-15
1523143522757967,-2,-1,-3,-6,0,-6,-28,7
1523143522764483,10,6,-1,-2,-1,-4,3,-27
1523143522764483,6,0,-11,8,-3,0,8,26
1523143522781196,1,4,3,-4,1,3,23,-39
1523143522781196,-1,-6,-4,-6,-2,-11,-4,14
1523143522782032,2,0,1,0,-1,-4,-18,19
1523143522782032,3,5,-3,0,-1,-4,-3,-3
1523143522803588,-28,-7,-4,-2,-1,3,18,-13
1523143522803588,-6,3,-5,-7,-1,3,-23,-39
1523143522805323,-3,-5,-3,-1,3,-3,-11,26
1523143522805323,7,12,2,6,-6,12,33,7
1523143522817623,-9,3,2,1,17,13,12,-16
1523143522817623,0,2,-3,-8,-1,0,-4,-10
1523143522824643,-8,-4,0,-6,-12,-7,8,6
1523143522824643,15,5,1,1,0,-3,-19,-16
1523143522840686,-5,-7,-6,-3,5,-1,-28,38
1523143522840686,-6,0,-3,-2,-3,5,64,26
1523143522842761,-8,1,3,-6,0,-5,-29,-49
1523143522842761,0,4,13,20,-1,-10,-11,30
1523143522863282,6,0,-40,-47,-11,-1,22,-26
1523143522863282,-1,1,13,-4,9,5,3,29
1523143522864750,-4,-4,30,38,-5,-7,-9,18
1523143522864750,-2,-2,-39,-29,-1,3,21,-29
1523143522876783,-7,-6,15,-11,-5,-1,-7,-17
1523143522876783,-1,-2,-8,-11,-1,-1,-16,-13
1523143522885807,5,6,-22,-42,6,8,1,-8
1523143522885807,2,5,32,21,1,-3,-19,-4
1523143522901181,-9,7,-2,47,-6,-4,0,-42
1523143522901181,-6,-2,1,17,-7,-4,-11,-16
1523143522902567,-6,0,-2,-10,4,5,37,17
1523143522902567,16,-16,-24,-16,6,14,21,58
1523143522923719,-16,-1,-3,-30,-2,-2,11,19
1523143522923719,23,6,21,39,-11,-23,-127,-110
1523143522925280,-17,2,9,33,1,23,69,55
1523143522925280,25,7,2,-12,19,5,-12,-10
1523143522937972,-9,-6,9,16,-10,-8,-2,17
1523143522937972,15,-1,-14,-2,0,9,5,42
1523143522944462,21,-8,-22,-25,-4,1,23,-23
1523143522944462,-29,2,0,-22,-13,-15,-41,-4
1523143522960509,16,-7,9,15,5,6,-13,-2
1523143522960509,-22,-3,-6,-11,0,3,31,-72
1523143522962787,29,2,-48,-52,-6,-6,-10,52
1523143522962787,-27,1,95,108,6,-4,-1,-13
1523143522983292,1,1,-23,-16,-4,-13,-10,18
1523143522983292,-11,-2,-5,-30,-1,5,-1,4
1523143522984570,-6,-15,-18,-12,-1,-2,-3,17
1523143522984570,5,3,-42,-37,-3,1,-12,-45
1523143522997485,-15,-14,63,49,-9,-4,1,31
1523143522997485,7,-3,-31,-11,16,2,-25,8
1523143523006303,-21,2,32,15,6,2,30,-8
1523143523006303,2,-1,-23,-22,-8,-7,1,9
1523143523021170,-14,2,-23,-23,1,16,4,-15
1523143523021170,2,1,4,-9,-9,-3,53,19
1523143523022858,-1,3,17,7,-4,-8,-32,-22
1523143523022858,32,1,-17,-10,2,1,-9,-6
1523143523043227,-8,1,13,30,-1,-1,-5,8
1523143523043227,6,-2,-12,-13,-3,-6,-10,-7
1523143523044729,-3,2,-5,-3,-3,-1,-22,-8
1523143523044729,-12,-3,17,11,0,-2,40,-24
1523143523057150,4,1,-8,-13,-5,-5,-24,-2
1523143523057150,4,7,6,8,8,4,16,43
1523143523065786,-13,-4,11,10,-1,-2,-4,-73
1523143523065786,6,5,-25,-23,-2,-4,-26,65
1523143523081192,-8,-5,-40,-48,-3,1,1,-76
1523143523081192,-8,-5,28,7,-7,-8,45,-2
1523143523082330,4,3,12,45,3,-3,-22,15
1523143523082330,-10,-8,-41,-40,-4,5,-6,8
1523143523103386,2,4,33,15,6,8,2,-1
1523143523103386,2,-2,-53,-57,-8,0,-5,37
1523143523104890,2,-11,38,54,-6,-16,-58,-16
1523143523104890,12,0,0,10,3,3,17,-29
1523143523116922,0,1,-17,-11,1,1,10,1
1523143523116922,-1,1,2,9,-1,-2,-26,-1
1523143523131971,12,6,11,12,-1,-4,21,17
1523143523131971,-2,1,-6,-8,-7,3,-4,45
1523143523141208,-6,-5,3,1,9,-4,37,-42
1523143523141208,14,-1,-21,-33,-1,-8,-50,13
1523143523142722,-3,-8,23,42,0,7,51,22
1523143523142722,-4,3,6,0,-4,2,17,8
1523143523163043,-9,3,-29,-28,-1,-4,-1,40
1523143523163043,-11,-3,24,13,-3,-2,-35,-26
1523143523165051,11,4,13,8,-1,-3,52,-8
1523143523165051,0,0,-24,-5,5,0,-4,3
1523143523176579,-42,-9,19,29,-3,5,-2,-6
1523143523176579,1,-1,-6,-8,-3,-3,8,-6
1523143523185604,6,9,-20,-28,1,1,-56,21
1523143523185604,-15,-9,14,10,-4,-1,80,-21
1523143523201029,14,7,-2,-4,-1,-3,-25,-3
1523143523201029,-6,3,8,17,-2,2,16,5
1523143523202651,-16,12,-13,-27,0,3,-17,-17
1523143523202651,-9,-7,5,5,-3,-5,-23,-3
1523143523223705,11,3,0,-6,-1,-6,-39,10
1523143523223705,-9,-1,14,22,3,7,68,41
1523143523224709,0,6,-23,-19,-4,-11,-30,-77
1523143523224709,15,-6,7,0,-2,5,-5,25
1523143523237081,4,-4,10,9,-1,-7,6,55
1523143523237081,-10,2,5,5,0,-13,-59,-45
1523143523245860,-3,-1,1,-15,0,10,20,44
1523143523245860,-7,-4,3,1,-1,-1,50,-28
1523143523260844,9,-8,-6,-4,-5,-8,-26,-2
1523143523260844,-1,-5,2,6,-1,-4,3,24
1523143523262349,-22,-16,-13,-12,-3,-5,-1,-3
1523143523262349,24,6,11,8,-3,-6,-46,-29
1523143523283510,0,6,-2,1,-1,-3,19,12
1523143523283510,24,-2,0,4,2,9,5,-42
1523143523284909,3,-11,-2,-7,-2,-4,-22,6
1523143523284909,-6,2,0,1,-4,-2,-21,-9
1523143523296996,1,2,-8,-4,-1,2,9,-24
1523143523296996,-58,-5,5,1,-5,-3,-6,-2
1523143523305524,20,-1,-10,-6,0,-5,-15,1
1523143523305524,8,0,5,3,-5,2,23,-16
1523143523321153,6,-1,5,5,10,4,10,-1
1523143523321153,4,1,0,3,-2,0,-6,-10
1523143523322595,6,-6,-8,-4,-3,-1,8,31
1523143523322595,-16,4,-2,-5,-5,0,-22,-5
1523143523343121,9,5,1,6,-2,2,0,12
1523143523343121,-10,-2,-10,-10,1,-1,1,-25
1523143523344627,9,1,8,17,5,1,-5,24
1523143523344627,2,-2,-30,-39,-3,-4,-17,37
1523143523357048,-14,-4,41,31,-4,-6,-4,-60
1523143523357048,11,-3,18,30,0,3,1,39
1523143523365683,-5,3,-55,-57,-1,1,4,-23
1523143523365683,-13,-5,52,45,-3,-6,9,5
1523143523380564,-4,-5,-21,-22,-2,-2,-7,30
1523143523380564,22,1,7,16,5,-1,38,-53
1523143523387273,-18,-4,18,10,-7,-4,-3,31
1523143523387273,2,-4,-45,-65,4,5,-12,-31
1523143523403247,-6,-4,20,8,-6,-9,-39,-14
1523143523403247,28,2,25,57,-5,-3,31,45
1523143523404753,11,-11,-22,-47,-1,7,31,1
1523143523404753,-24,-2,20,68,4,-5,-29,-50
1523143523425809,10,2,7,18,-3,-3,3,13
1523143523425809,-6,-9,-12,-24,-6,-7,-50,-4
1523143523427311,30,0,15,3,0,2,-12,38
1523143523427311,-25,-1,-26,-28,5,3,-8,-26
1523143523441228,-12,-5,20,27,0,1,8,-32
1523143523441228,7,6,-16,-16,-4,1,4,14
1523143523442352,-8,4,8,12,-4,-3,-11,-25
1523143523442352,5,-3,-4,-24,0,-7,-22,7
1523143523463910,-16,3,18,45,5,8,73,32
1523143523463910,-21,-3,15,10,-3,3,1,-6
1523143523464911,-7,-12,-26,-44,1,-2,-25,-8
1523143523464911,-2,5,37,69,3,1,-7,8
1523143523486211,-13,8,-35,-44,-1,2,-24,12
1523143523486211,-24,-1,-5,-22,2,3,26,9
1523143523487775,13,-3,-8,17,-2,1,-5,-43
1523143523487775,-4,-3,-2,-50,-9,-5,-24,-9
1523143523500507,8,-4,14,47,4,-2,13,9
1523143523500507,10,0,-5,-25,-4,-3,2,-1
1523143523502766,-4,5,-29,-21,-1,-9,-26,36
1523143523502766,4,0,-9,3,0,4,28,-4
1523143523523455,5,-4,-21,-58,-2,1,-3,-29
1523143523523455,0,-3,-4,3,-2,7,74,23
1523143523525341,-8,-4,7,14,-1,-2,-10,3
1523143523525341,8,1,11,5,-2,-4,8,-7
1523143523545627,7,7,-6,12,-4,-7,-38,9
1523143523545627,3,-6,-18,-21,-3,-3,3,-13
1523143523547131,-9,6,8,2,5,11,34,-12
1523143523547131,30,3,4,18,5,2,2,23
1523143523560667,0,-1,-29,-30,-4,4,-28,18
1523143523560667,-6,3,35,47,1,-11,-13,-48
1523143523562171,5,5,-5,-6,-6,-3,11,27
1523143523562171,13,-4,11,-9,5,5,36,24
1523143523583726,-40,-7,-9,-1,-1,-2,-7,-15
1523143523583726,8,-3,-21,-22,-1,-4,-19,11
1523143523584730,-8,1,29,31,-3,-4,-10,-16
1523143523584730,-3,1,-4,2,-4,-3,-13,56
1523143523605785,11,1,-11,-24,-2,-4,-21,-55
1523143523605785,-12,-1,-32,-14,-3,9,15,-4
1523143523607291,-8,1,34,22,8,-9,-66,15
1523143523607291,-6,-1,-30,-1,-4,1,18,-8
1523143523620527,8,-1,28,-15,6,8,74,22
1523143523620527,3,2,-2,21,2,5,-23,2
1523143523626844,9,-10,-17,-12,-3,8,6,4
1523143523626844,-8,-2,7,3,-2,-1,-27,-58
1523143523642884,30,-10,-8,-10,-3,-9,-12,0
1523143523642884,-2,13,-2,-15,5,-2,-38,-2
1523143523644891,-19,14,14,20,-5,-6,39,-47
1523143523644891,17,0,-10,-1,-4,0,33,21
1523143523665947,-56,-3,1,-7,-5,1,-39,-9
1523143523665947,1,-6,16,5,0,-3,24,18
1523143523667636,22,0,-27,-13,-3,1,-7,-48
1523143523667636,-9,2,5,-17,7,3,-11,16
1523143523680383,7,8,28,64,0,-14,-5,2
1523143523680383,13,0,-12,5,1,2,-57,33
1523143523686895,-5,-4,-5,-12,-6,0,23,53
1523143523686895,-16,-4,-13,-18,-3,8,30,-60
1523143523703453,44,5,-18,-24,-3,2,0,47
1523143523703453,-27,-11,6,2,3,-7,-47,-42
1523143523705307,-2,4,2,8,1,2,4,-8
1523143523705307,17,7,16,9,-1,-5,1,12
1523143523726106,0,-1,-8,-4,2,17,35,-7
1523143523726106,27,3,-5,-9,-5,-10,1,8
1523143523727109,-56,-8,4,-4,0,-5,-12,11
1523143523727109,-3,5,5,4,-5,-16,-23,4
1523143523739540,-5,-7,-2,-4,-2,1,-3,-14
1523143523739540,13,1,-14,-15,-2,3,13,10
1523143523748167,1,-4,4,5,3,2,20,18
1523143523748167,-4,-1,1,8,-4,-3,11,4
1523143523763206,-18,-6,-14,-11,-2,-2,31,19
1523143523763206,-8,-15,8,-5,4,1,-18,-3
1523143523764711,0,2,-2,0,-5,-7,-2,-58
1523143523764711,-11,-11,5,5,1,-2,-16,40
1523143523785765,20,3,-10,-9,-4,-6,-19,-26
1523143523785765,-5,1,1,-4,-3,-1,23,19
1523143523787270,5,2,2,8,1,-6,-11,19
1523143523787270,6,2,-6,-2,-2,8,-4,-12
1523143523799803,-11,-2,-2,-5,6,-1,-3,-13
1523143523799803,-8,6,2,-4,-3,-2,-10,-13
1523143523807351,15,-9,6,-1,-6,-10,-11,7
1523143523807351,-6,4,-4,0,-7,-1,-10,-11
1523143523823231,-1,-5,-3,3,15,8,9,8
1523143523823231,-2,4,0,-2,-4,-1,6,-2
1523143523824870,9,-1,-4,-4,-8,0,-23,19
1523143523824870,-9,-5,-3,-2,-4,-6,-7,-20
1523143523846167,6,-4,0,-1,0,2,13,59
1523143523846167,-10,-4,-2,-4,2,2,-1,-9
1523143523847430,8,0,-3,0,-7,-2,3,-2
1523143523847430,-9,-7,-4,-7,0,-5,-9,-4
1523143523859964,10,1,7,12,-7,-5,-12,-6
1523143523859964,-12,-1,-11,-8,5,2,-1,-8
1523143523866981,-9,-4,11,13,4,1,-2,6
1523143523866981,9,1,-6,10,0,3,32,-22
1523143523883024,-2,-2,-8,-21,-1,-6,-11,-3
1523143523883024,-3,-2,-2,-12,-9,-1,4,18
1523143523885029,-13,1,5,3,6,2,6,-25
1523143523885029,2,-4,0,4,0,1,-3,28
1523143523906157,3,0,3,-3,-5,-7,-65,1
1523143523906157,-13,-7,-7,-7,-6,1,63,-6
1523143523907769,-10,-3,-7,-14,-2,-6,-56,-66
1523143523907769,8,-3,-8,-7,1,-1,19,25
1523143523919856,0,7,2,3,-5,2,-20,-21
1523143523919856,5,-8,-5,0,3,-2,-15,12
1523143523928858,3,2,12,8,5,3,3,8
1523143523928858,0,-1,6,17,5,-2,-12,14
1523143523943185,14,-7,-15,-18,-6,0,29,-4
1523143523943185,3,9,8,-10,-2,-1,-22,-38
1523143523944688,-14,-11,-4,24,-4,-10,-11,1
1523143523944688,4,-5,14,4,-4,0,-58,-59
1523143523965745,-15,-4,-18,-9,8,10,43,50
1523143523965745,-9,-8,-7,-20,1,6,9,52
1523143523967248,1,8,14,7,2,1,-7,-56
1523143523967248,11,5,-29,13,-3,-3,-3,-12
1523143523988487,6,2,19,7,-6,-8,-53,14
1523143523988487,-11,7,-1,8,0,2,25,-35
1523143523990130,13,3,-12,-17,2,6,39,42
1523143523990130,-8,-11,-6,-20,-5,-4,-20,32
1523143524003445,-26,-6,33,37,9,0,20,-62
1523143524003445,6,0,-33,-20,-2,-1,-11,30
1523143524004899,6,-7,1,-10,-6,-3,13,69
1523143524004899,-13,-2,37,11,-4,2,3,-26
1523143524025954,-14,-6,-32,-10,-2,-12,-93,-31
1523143524025954,15,6,24,14,1,7,30,1
1523143524027457,-3,-10,-4,2,-2,2,43,11
1523143524027457,-2,-1,-15,-34,-2,0,-19,6
1523143524039488,-2,3,-6,-7,0,-3,4,-11
1523143524039488,6,-1,19,20,3,-5,-46,-12
1523143524048513,16,-24,15,7,-3,-2,22,-8
1523143524048513,-4,4,-1,10,1,-1,5,-6
1523143524063454,11,-1,-25,-28,-4,4,43,53
1523143524063454,-12,-3,7,0,-6,-7,-34,-34
1523143524064590,15,8,11,6,7,10,49,-1
1523143524064590,30,2,5,-1,-2,-10,-45,40
1523143524085935,-11,-7,-18,1,-7,8,89,-33
1523143524085935,11,-3,-26,-42,-6,-7,-40,16
1523143524087799,-16,-2,34,16,-3,-11,-105,-12
1523143524087799,-7,3,-5,36,1,4,107,-3
1523143524099513,10,6,-14,-24,6,0,-2,6
1523143524099513,21,-3,-8,-2,-6,-5,4,11
1523143524108820,-5,5,-10,-20,-2,-1,-18,-34
1523143524108820,-22,-2,6,-1,-5,-9,-27,-15
1523143524123715,7,0,14,-2,-10,-5,-7,14
1523143524123715,-10,-1,-39,6,13,5,12,-8
1523143524125333,-5,3,50,34,-2,-8,-4,27
1523143524125333,4,-3,-17,-9,5,7,3,21
1523143524145772,1,2,-4,-5,-3,-3,9,0
1523143524145772,2,-2,10,6,-6,3,18,42
1523143524147277,4,6,-35,-26,-3,2,3,45
1523143524147277,-17,-6,6,-13,0,-2,-13,-105
1523143524159311,14,3,-14,0,-6,-2,-4,22
1523143524159311,-5,3,59,70,4,-10,-25,-6
1523143524168333,1,-5,-11,-15,-2,7,-17,-3
1523143524168333,3,4,4,-4,2,11,62,28
1523143524183424,-2,-4,-16,-25,3,-7,-30,-23
1523143524183424,-21,3,1,-2,-5,-1,-11,-23
1523143524184877,34,7,-18,-3,1,5,15,-3
1523143524184877,5,1,0,2,2,-3,-32,9
1523143524206658,-2,-7,10,2,-5,-6,-32,-16
1523143524206658,-11,-5,-3,1,-1,6,47,-12
1523143524208241,-9,6,-11,-1,1,1,-8,24
1523143524208241,-12,-19,5,-9,3,5,13,12
1523143524219469,-10,-3,11,18,-5,-1,14,28
1523143524219469,-15,3,4,-6,3,-4,-23,-33
1523143524228492,12,-4,-23,-7,1,-5,-10,27
1523143524228492,6,11,-5,-4,-1,5,2,14
1523143524245038,-28,1,12,6,-4,-8,-23,-53
1523143524245038,28,-7,-5,3,2,11,84,41
1523143524246541,-9,-2,-11,-9,-1,-5,7,-32
1523143524246541,-18,0,-1,-5,1,-9,-38,-24
1523143524266093,30,12,11,9,2,2,-6,33
1523143524266093,-3,-6,-11,-12,-4,-8,-28,-11
1523143524267598,-3,-10,-4,1,1,3,10,0
1523143524267598,11,5,-1,-2,-3,-1,1,7
1523143524279808,4,9,-2,10,1,6,8,-3
1523143524279808,18,-4,5,-4,3,-2,-22,0
1523143524288151,-61,-6,-7,-5,-2,0,21,0
1523143524288151,2,-3,-2,0,-1,2,-10,4
1523143524303694,7,-16,1,-2,-1,-3,7,8
1523143524303694,2,3,0,-3,-2,-5,-15,-8
1523143524304695,-13,2,-5,-1,-3,0,12,-17
1523143524304695,34,2,-7,-5,-6,-7,-16,-2
1523143524325750,-14,-4,3,1,0,2,20,-8
1523143524325750,-5,-4,-1,-2,-1,-1,0,-5
1523143524327256,9,7,-6,0,11,4,2,-5
1523143524327256,-12,-5,-3,2,-3,-3,-3,3
1523143524339682,21,-1,4,-3,-3,-4,-1,-20
1523143524339682,15,4,-26,-28,-12,-5,-8,18
1523143524348312,-21,-5,19,29,-5,-1,-10,-64
1523143524348312,-1,0,16,25,7,0,11,30
1523143524363029,0,2,-27,-25,-2,-3,-20,-9
1523143524363029,-12,1,-8,-27,-3,2,6,29
1523143524369770,-6,-10,44,42,-7,-6,12,-48
1523143524369770,0,6,-18,29,7,-3,-7,15
1523143524386154,-8,3,25,6,4,2,9,-11
1523143524386154,-1,3,-15,-1,-5,2,24,16
1523143524387766,37,-5,-33,-54,3,-4,-46,-22
1523143524387766,-52,-4,7,-13,-1,5,49,-22
1523143524408368,-4,-2,24,51,-1,-7,15,28
1523143524408368,-17,-7,-33,-40,-7,2,51,20
1523143524409975,-8,5,20,-1,-1,-7,-21,-33
1523143524409975,12,-4,-4,-5,0,7,-35,35
1523143524423045,-3,4,-5,-13,1,-4,-17,48
1523143524423045,0,-4,19,26,2,-6,-14,-114
1523143524429528,3,9,-24,-3,-6,-6,-89,58
1523143524429528,0,1,-6,-18,3,11,85,12
1523143524445893,-2,-2,-3,-19,-2,2,-17,11
1523143524445893,7,-3,16,8,-3,-8,-45,26
1523143524447074,4,1,-24,0,2,6,22,-22
1523143524447074,2,-1,18,-11,-5,0,-10,2
1523143524468949,7,-2,-10,-2,-4,-6,-40,-60
1523143524468949,-9,10,4,4,4,0,61,-45
1523143524474543,-3,-1,-32,-25,0,12,56,29
1523143524474543,28,6,18,18,-2,-13,-40,-7
1523143524482670,-61,-16,-13,-6,-5,4,22,44
1523143524482670,-5,-10,-3,-21,9,-5,-48,-65
1523143524489577,0,-2,52,61,3,-4,25,58
1523143524489577,-2,-2,-24,13,-2,-9,14,-48
1523143524506360,9,5,-6,-19,-4,0,-12,-21
1523143524506360,2,-4,0,1,1,5,-13,78
1523143524507867,1,-2,-8,-27,-9,-3,16,-54
1523143524507867,-5,-5,-7,-14,-2,-10,-50,23
1523143524528626,7,-5,15,26,5,0,-75,-15
1523143524528626,-1,-2,5,-2,0,8,44,19
1523143524529533,14,3,-32,-33,-1,-2,-12,26
1523143524529533,-6,5,13,-19,0,2,2,-9
1523143524543070,-1,2,-11,45,2,-8,-12,-21
1523143524543070,5,-6,13,19,-1,-8,-28,10
1523143524549690,-2,3,-3,-20,-6,0,5,0
1523143524549690,-1,-4,-43,-54,-3,5,-1,-30
1523143524565660,4,5,26,32,4,-8,-16,6
1523143524565660,26,6,-5,26,-1,5,-13,29
1523143524567743,-9,-4,22,12,-1,-2,8,38
1523143524567743,-11,-10,-11,-17,-9,-1,-10,17
1523143524588612,6,1,-9,-11,1,-1,6,-32
1523143524588612,-3,3,1,3,-5,-5,-24,-44
1523143524590307,14,1,-6,-10,1,-1,2,30
1523143524590307,-53,-3,24,54,-1,1,-31,8
1523143524603042,6,0,-8,-24,4,3,-13,16
1523143524603042,-26,-7,27,20,2,8,62,11
1523143524609278,27,0,-31,-24,1,18,60,-6
1523143524609278,9,0,4,-9,-2,-11,-32,-29
1523143524625820,-5,-6,-4,-22,-8,5,39,0
1523143524625820,-1,4,-26,-1,2,-7,-43,-10
1523143524627325,-19,-1,25,31,-3,-13,-43,2
1523143524627325,16,7,7,-1,0,1,26,17
1523143524648131,0,-1,10,32,4,3,57,28
1523143524648131,1,-1,-57,-51,-1,-5,-31,-22
1523143524650129,-23,-4,30,40,-3,-1,5,13
1523143524650129,14,5,-23,-16,2,1,-3,53
1523143524662948,-18,-10,-8,-26,8,3,-47,-84
1523143524662948,0,0,24,13,-3,-1,23,36
1523143524669436,23,-2,-27,-19,-4,-8,-14,-4
1523143524669436,-14,3,14,1,-7,-3,47,15
1523143524685721,32,6,7,-2,-3,-6,-20,18
1523143524685721,-14,-11,14,20,2,-1,-26,-12
1523143524687652,-5,-1,-11,-14,2,3,2,-10
1523143524687652,7,-4,-9,-6,-1,-9,1,-5
1523143524708571,14,6,0,-7,-3,7,33,17
1523143524708571,-7,-3,3,-4,2,0,-13,-4
1523143524709544,8,5,-3,-7,0,-2,-1,-29
1523143524709544,21,-12,8,12,0,-1,-8,9
1523143524722578,-11,-8,-2,-6,-4,8,59,15
1523143524722578,23,-3,-3,1,-3,0,-14,49
1523143524729856,-11,-1,-3,1,2,1,7,23
1523143524729856,1,3,-3,5,-1,1,-4,-45
1523143524745783,7,-2,-6,-7,-6,-5,-26,-9
1523143524745783,8,7,9,8,1,0,45,31
1523143524747776,-5,3,-3,-1,0,0,36,-55
1523143524747776,0,-4,-4,-8,-4,-3,-29,19
1523143524768627,20,6,-4,-2,-1,1,23,12
1523143524768627,-6,-7,7,-1,-2,-7,-35,-27
1523143524769733,2,7,-3,-2,1,1,-15,-11
1523143524769733,-16,0,-5,2,-2,-10,-12,-19
1523143524782950,-18,-2,-5,-7,-4,4,1,-9
1523143524782950,13,-1,2,-1,-3,-1,-14,-32
1523143524789632,5,-2,2,1,6,3,5,28
1523143524789632,-3,-9,2,-2,-1,-3,-25,-7
1523143524806330,-1,0,5,1,-3,-4,-9,0
1523143524806330,-12,4,0,-3,-1,2,21,0
1523143524807701,-14,-4,-1,-2,-4,-1,-16,-4
1523143524807701,3,6,-1,2,3,5,10,0
1523143524828293,-8,-4,-2,-2,-3,-7,8,1
1523143524828293,-9,2,2,-2,-4,1,-4,-9
1523143524829892,4,-2,-4,-2,-3,-4,-1,11
1523143524829892,11,-4,1,0,-3,-2,8,-4
1523143524842927,-6,-6,-4,-2,8,1,2,-3
1523143524842927,-17,-4,-4,-4,-1,0,-3,-18
1523143524850950,23,2,2,-3,-1,-7,-14,-5
1523143524850950,-17,-15,4,14,-8,3,0,13
1523143524865564,-14,-2,-7,-15,-2,-1,43,-33
1523143524865564,-3,3,-16,-26,2,0,-18,13
1523143524866994,-1,1,36,59,2,-6,4,25
1523143524866994,3,1,-2,-14,-4,-4,-18,-75
1523143524888692,-3,-1,-17,-21,-6,-1,-4,46
1523143524888692,-4,-3,-9,-6,-3,1,9,21
1523143524890283,-15,-7,25,14,2,-2,-26,-39
1523143524890283,-4,0,16,34,3,4,34,18
1523143524902084,2,-4,-13,-12,-13,-5,-13,-17
1523143524902084,-8,0,-42,-43,16,2,-3,-1
1523143524911109,-2,4,5,-17,-4,-1,-54,30
1523143524911109,0,0,12,36,0,0,5,4
1523143524925649,-3,4,2,25,1,-4,40,-48
1523143524925649,13,1,-7,-11,-5,-5,-23,13
1523143524927745,-68,-8,-17,-56,-1,5,2,-36
1523143524927745,8,1,21,50,4,-11,-26,-16
1523143524948207,0,-2,-20,-49,-14,-3,0,28
1523143524948207,2,-4,53,49,3,-4,-16,56
1523143524949711,22,2,-48,-34,6,0,22,-64
1523143524949711,-18,2,-19,-23,-8,-5,-20,45
1523143524961766,-8,-5,28,22,0,0,-24,-39
1523143524961766,9,-8,-24,-8,-1,-9,-71,5
1523143524971399,15,-3,12,-37,-6,11,120,46
1523143524971399,-7,1,6,33,-3,5,3,8
1523143524985807,9,4,-4,-8,12,-4,-38,12
1523143524985807,23,6,18,26,-4,1,-29,6
1523143524987314,-3,-7,-25,-14,-2,0,45,-56
1523143524987314,3,2,-16,-18,0,-3,-19,-26
1523143525007865,-20,1,16,23,0,2,35,13
1523143525007865,-5,4,4,-12,-4,-6,19,-24
1523143525009871,2,0,3,51,-2,-7,-33,31
1523143525009871,16,-2,-7,-71,-2,6,21,3
1523143525021902,-30,-1,19,50,4,-2,-27,-73
1523143525021902,-6,-4,-15,-14,-4,-1,22,2
1523143525030928,8,1,-9,-9,0,1,2,11
1523143525030928,-4,-3,-7,-15,4,-6,-13,26
1523143525046971,14,-2,10,13,2,-3,-31,36
1523143525046971,-8,2,22,36,-8,-12,-82,-30
1523143525048474,2,-4,-16,-30,-3,11,46,24
1523143525048474,16,2,-17,-5,-2,-8,-21,2
1523143525068025,16,-1,6,-1,4,5,12,30
1523143525068025,-9,-4,8,8,-1,-1,26,-53
1523143525069530,-2,0,-3,0,2,-1,-40,40
1523143525069530,-5,-2,-35,-23,-5,1,9,2
1523143525081567,-1,3,42,34,0,-2,-13,-52
1523143525081567,-1,-3,-20,-32,1,5,12,17
1523143525090586,2,0,-1,10,-7,-11,26,3
1523143525090586,-21,-1,12,-10,3,4,8,-60
1523143525105680,4,3,-17,-13,-2,2,32,52
1523143525105680,-7,1,-13,-24,-2,8,73,2
1523143525107183,3,-3,38,59,-5,-7,-45,-29
1523143525107183,2,-1,-12,-14,3,5,1,7
1523143525128237,-6,-4,-23,-36,-3,-3,-6,27
1523143525128237,1,-2,4,8,0,-3,6,-28
1523143525129691,3,3,-28,-18,-5,1,7,35
1523143525129691,6,-4,17,-13,2,6,62,-2
1523143525141722,4,-1,1,31,1,-4,-24,-1
1523143525141722,-6,4,5,34,-6,-5,3,-5
1523143525150746,25,9,-11,-12,10,3,-50,3
1523143525150746,-16,2,3,4,-1,-4,-23,-20
1523143525165785,2,0,-35,-46,-6,0,14,13
1523143525165785,26,7,6,5,-1,-8,-35,28
1523143525167292,0,-19,11,10,-1,-2,30,-39
1523143525167292,-12,1,-1,6,-6,-8,-41,5
1523143525188419,2,0,-11,-16,4,6,1,-12
1523143525188419,-5,2,10,-4,-3,-2,22,-34
1523143525189850,-6,4,16,23,1,-5,-29,21
1523143525189850,34,3,-20,-12,-2,-10,-7,24
1523143525201885,-29,7,3,12,2,3,29,-7
1523143525201885,-2,4,-3,-10,-4,2,-34,-1
1523143525210912,-4,2,-8,-11,-1,1,22,-29
1523143525210912,-9,-4,21,13,2,8,2,-5
1523143525225446,26,2,-5,-1,-3,-6,-3,24
1523143525225446,-16,-4,5,-1,5,5,19,13
1523143525227451,5,6,-7,-3,0,0,-16,18
1523143525227451,-8,0,-1,8,-1,1,-6,-31
1523143525249510,18,-5,2,-8,-5,-7,-11,-25
1523143525249510,6,4,-6,0,3,1,2,51
1523143525251017,-1,2,1,-1,-1,8,11,37
1523143525251017,3,-5,-2,2,3,2,1,21
1523143525261541,-11,-2,-5,-7,-4,-9,-25,-93
1523143525261541,6,-11,1,1,0,-11,-53,-28
1523143525271067,-33,2,0,2,0,-1,7,-1
1523143525271067,-2,4,-2,-3,0,6,13,39
1523143525285141,-18,5,3,-5,-3,7,7,-2
1523143525285141,13,-4,2,2,-3,-2,-13,-15
1523143525291658,-6,-10,5,-1,-1,-11,-19,10
1523143525291658,5,1,1,-1,-3,0,12,-9
1523143525308202,-10,-8,1,4,4,5,-1,36
1523143525308202,-13,-8,0,1,-2,0,29,-11
1523143525309706,9,-2,-4,-5,-1,2,-25,-9
1523143525309706,-8,-1,-3,-3,-5,-7,7,3
1523143525331092,8,-9,-4,1,-3,-5,-19,9
1523143525331092,-2,0,-3,-1,1,5,19,-22
1523143525332098,8,11,-12,-3,-9,-7,1,2
1523143525332098,-1,4,-2,4,7,-4,-16,-14
1523143525346208,6,-2,-2,-4,2,4,3,-9
1523143525346208,-10,-7,3,-2,3,12,22,9
1523143525347142,8,2,-3,-9,-3,-9,-43,-11
1523143525347142,-4,-6,-12,-12,-7,-5,18,-21
1523143525368583,-2,-2,28,34,-26,5,-7,-6
1523143525368583,-4,6,-15,-6,39,-4,19,21
1523143525369699,-4,-15,-6,-27,-1,9,-16,-20
1523143525369699,-9,-4,-33,-23,-1,5,-6,38
1523143525390754,-10,-6,67,54,-7,-21,-4,7
1523143525390754,11,-1,-4,3,-24,-4,-6,6
1523143525392259,2,4,-21,-11,6,-3,9,18
1523143525392259,2,-3,28,21,8,-4,-6,16
1523143525405185,7,-1,-35,-52,-8,0,-34,-37
1523143525405185,-87,-16,1,-1,-3,2,33,-14
1523143525411999,3,0,-3,26,5,-3,31,-3
1523143525411999,24,2,1,-50,-9,1,-5,19
1523143525428354,-1,2,-1,53,15,4,3,33
1523143525428354,16,3,-11,-41,-8,-2,0,-9
1523143525429860,0,2,27,29,3,-2,-10,3
1523143525429860,-30,-21,-1,16,-8,-3,29,-62
1523143525451103,16,0,1,-15,3,-5,-5,17
1523143525451103,2,4,-25,-28,1,-7,-69,-16
1523143525452721,-7,-1,20,36,-6,14,97,19
1523143525452721,20,3,12,19,2,-2,-23,-17
1523143525464952,-17,-6,-20,-28,4,-1,9,-22
1523143525464952,13,-3,-1,-1,-9,1,-15,26
1523143525471973,-20,-5,11,-5,1,3,-51,-33
1523143525471973,31,6,3,4,1,0,2,4
1523143525488685,-6,-1,-25,-18,1,-1,30,-8
1523143525488685,8,7,40,49,-10,-3,-8,17
1523143525490268,10,1,-24,-26,0,-6,-11,4
1523143525490268,-8,1,36,64,7,-3,3,-3
1523143525510573,-3,-9,-34,-36,-4,0,-2,26
1523143525510573,8,0,-6,-3,-5,-3,16,-5
1523143525512077,-1,-1,-6,-12,3,-8,-11,-14
1523143525512077,-7,5,-42,-47,-6,9,9,-5
1523143525525114,0,2,50,22,-3,-13,-45,16
1523143525525114,10,-5,7,45,10,8,-6,20
1523143525531630,1,2,-18,-43,-8,-2,7,-2
1523143525531630,-9,3,-6,-17,-4,-3,-55,-11
1523143525548175,-5,-2,-4,-3,-1,-2,12,-34
1523143525548175,0,-2,-7,-7,-3,-3,0,-32
1523143525549677,9,-1,13,14,-4,-2,-7,27
1523143525549677,1,-1,-10,-10,0,-5,-19,20
1523143525571015,3,-6,-18,-14,7,-1,-38,37
1523143525571015,-80,-13,35,22,-1,3,75,-40
1523143525572765,8,-4,-13,-4,0,-8,-14,2
1523143525572765,-5,-1,8,3,-1,6,35,-1
1523143525585126,15,-8,-8,-7,0,-3,-1,23
1523143525585126,16,2,-4,-8,-2,1,-2,7
1523143525591790,-16,-5,-2,6,-1,-5,-5,-23
1523143525591790,2,1,14,1,-1,-1,-8,3
1523143525608333,5,6,-18,-9,8,7,30,11
1523143525608333,10,0,-21,-27,-4,-2,13,-2
1523143525609838,-17,-3,25,34,-4,-1,3,-19
1523143525609838,6,-12,-6,10,-4,-4,-14,-14
1523143525631399,-9,2,8,8,0,6,11,1
1523143525631399,11,0,-2,-2,-1,-6,-18,8
1523143525632900,-3,-1,-26,-20,-2,-2,-12,-12
1523143525632900,1,1,34,23,-1,-10,-10,10
1523143525645049,-8,15,-13,-9,1,12,10,-28
1523143525645049,21,-1,-7,-2,-2,-2,13,82
1523143525653798,7,0,-2,-16,-6,0,-44,-65
1523143525653798,-9,1,-4,-14,-5,1,77,5
1523143525668085,-5,-6,-1,14,7,1,-28,-22
1523143525668085,17,1,-4,-6,-1,-2,-14,-2
1523143525669496,2,-2,-1,-2,-2,-1,-8,47
1523143525669496,-13,-1,-3,-7,-6,-6,-26,-26
1523143525691056,-14,-5,10,15,-1,3,8,-2
1523143525691056,-2,0,-4,-8,1,1,-2,-5
1523143525692058,-5,3,-4,0,1,-3,-12,8
1523143525692058,-7,-2,-11,3,0,-3,-20,-22
1523143525705091,4,10,2,-2,-4,1,27,61
1523143525705091,8,4,-5,1,0,-5,-30,-108
1523143525712150,6,0,6,4,0,2,26,12
1523143525712150,9,5,-4,4,3,-2,-9,56
1523143525728656,3,2,-1,-8,-3,-5,0,-47
1523143525728656,-2,4,-4,0,-3,3,11,36
1523143525729656,13,5,-6,-1,0,0,7,-50
1523143525729656,7,-2,1,2,5,7,9,-7
1523143525751056,17,1,-7,-8,-6,-11,-20,40
1523143525751056,-31,-13,8,3,-1,6,23,-9
1523143525752560,13,3,1,2,-3,-8,-12,44
1523143525752560,-15,-1,-6,1,3,4,-8,35
1523143525765475,14,-5,-6,-6,-4,-3,5,-46
1523143525765475,24,-4,2,5,0,3,1,16
1523143525772230,-4,-4,1,-1,3,-3,-9,11
1523143525772230,6,4,-5,-3,-3,-2,3,-15
1523143525788656,-11,-18,13,-2,-4,-4,-7,29
1523143525788656,-13,2,-3,-4,-3,-6,8,-53
1523143525790204,1,-4,-3,2,1,3,2,29
1523143525790204,-18,2,-4,-1,-1,-4,-1,-41
1523143525811127,7,-11,-4,-4,-4,-6,-10,-7
1523143525811127,46,0,5,3,-1,-9,-25,31
1523143525812134,-19,2,5,1,1,1,-2,-17
1523143525812134,11,-4,-7,-3,-3,0,3,43
1523143525824279,2,7,-3,-2,0,-1,14,11
1523143525824279,11,-5,-1,-3,2,2,-6,0
1523143525833189,-3,-3,0,3,-2,1,3,24
1523143525833189,-19,-2,-2,-2,-3,-9,-36,-60
1523143525850078,-8,-1,-1,1,-1,0,13,-19
1523143525850078,6,1,-3,1,1,17,102,33
1523143525851753,-12,-7,1,0,-3,-5,-6,-17
1523143525851753,16,-2,0,-1,6,3,-5,10
1523143525870790,-16,-1,-2,-5,-2,0,-11,-25
1523143525870790,19,10,-19,-14,-6,-16,-46,14
1523143525872618,-5,4,27,27,-4,8,33,19
1523143525872618,1,2,-31,-21,-8,1,39,-10
1523143525884324,-3,1,18,11,7,2,-9,38
1523143525884324,-19,1,-6,7,0,-4,-27,-5
1523143525893348,8,-2,-12,-23,-6,4,18,3
1523143525893348,14,-2,-7,-11,0,-3,-11,-6
1523143525907887,3,7,3,-4,-2,6,0,41
1523143525907887,-28,-2,9,8,-1,-3,-16,-42
1523143525909893,4,-7,-21,-9,-1,-5,-16,8
1523143525909893,4,-6,7,-3,-6,-7,-22,-5
1523143525930448,-13,-1,-16,-5,1,9,31,-9
1523143525930448,-2,-4,25,3,3,1,-6,19
1523143525932815,0,0,17,37,1,-13,-35,35
1523143525932815,6,0,-12,-20,2,17,65,-25
1523143525944776,-46,-6,-3,-5,-5,-9,-29,-55
1523143525944776,13,1,-24,-17,3,11,2,-14
1523143525953509,-5,-3,-8,-24,0,0,22,40
1523143525953509,7,0,34,40,1,-6,-50,14
1523143525968615,17,3,-38,-22,-8,-2,43,20
1523143525968615,-10,-10,16,-9,4,3,7,8
1523143525970397,8,2,5,10,-1,-9,-58,-32
1523143525970397,-21,0,-6,10,2,14,47,40
1523143525990936,4,3,-4,-4,0,-2,4,-8
1523143525990936,-13,-2,6,35,4,-5,-35,-9
1523143525992444,-26,-1,-4,-13,-3,-3,11,17
1523143525992444,24,-6,-17,-26,-5,-1,-8,-109
1523143526004475,2,3,4,-6,2,-4,-50,59
1523143526004475,-4,-9,15,12,-3,4,37,10
1523143526013499,-2,10,11,10,-2,-3,-15,-51
1523143526013499,-13,0,-13,-15,-5,-10,-21,57
1523143526028539,19,-6,17,-17,-2,3,22,-8
1523143526028539,-7,-1,1,37,6,-1,-1,-2
1523143526030044,-19,-8,0,10,3,5,25,-23
1523143526030044,4,3,-8,-5,0,-6,-43,14
1523143526051007,0,-6,-10,-6,0,-6,-15,-30
1523143526051007,-13,-2,9,-5,-5,-6,1,-16
1523143526052790,17,-4,-14,-3,-9,10,17,7
1523143526052790,12,3,6,-16,14,6,56,-6
1523143526064929,-51,-2,17,28,8,-6,-12,60
1523143526064929,30,2,-14,-8,-4,3,6,-69
1523143526074070,4,-2,-6,-10,0,-4,-32,-10
1523143526074070,-11,-4,9,-12,-2,6,58,34
1523143526088109,22,-1,-13,9,-4,4,44,9
1523143526088109,0,2,4,-1,1,-6,-18,1
1523143526089613,-4,-17,10,-6,6,2,17,-11
1523143526089613,-1,1,-34,-8,-10,-11,-69,8
1523143526111069,1,5,34,41,7,3,59,-30
1523143526111069,-5,2,-10,-17,-7,-6,-17,15
1523143526112174,4,-6,-5,-25,-3,4,1,-8
1523143526112174,2,0,18,26,5,0,-8,15
1523143526124204,-2,-7,-18,-29,-7,-7,-52,-70
1523143526124204,-10,2,15,6,-7,-8,4,21
1523143526133230,6,2,5,8,-2,-2,-9,20
1523143526133230,-7,-9,-5,-6,3,-2,11,22
1523143526148269,18,0,0,-5,-2,-1,-21,5
1523143526148269,-5,-5,-3,-10,0,6,15,6
1523143526149772,-2,1,3,5,-2,-5,-16,-6
1523143526149772,-10,-8,6,10,-3,-2,31,-38
1523143526171148,11,3,-6,-10,-3,-1,-52,40
1523143526171148,5,8,-14,-3,-2,3,56,10
1523143526172333,-3,-3,-1,-2,1,2,17,2
1523143526172333,20,5,-1,2,-4,-5,-34,13
1523143526184364,-3,3,7,11,1,-1,-1,-29
1523143526184364,-15,2,-8,-10,-1,-3,-34,19
1523143526193389,26,4,-8,-5,4,0,-6,0
1523143526193389,-3,-1,9,4,-3,-3,-3,-5
1523143526207928,1,-7,6,3,-2,3,83,-9
1523143526207928,3,2,-11,-10,-4,-7,-43,-12
1523143526209431,-12,0,-5,-6,-2,0,16,14
1523143526209431,-19,-6,3,13,5,9,5,4
1523143526231991,4,2,-4,-2,-4,1,-11,3
1523143526231991,-8,-5,-4,-11,-1,-4,-8,-3
1523143526234274,2,-5,-1,2,3,-1,15,-4
1523143526234274,-11,7,1,3,-5,-9,-7,-3
1523143526253270,-7,-3,-5,-2,2,1,-23,-2
1523143526253270,26,-2,-1,-4,2,3,14,-8
1523143526254724,-16,2,-2,1,1,-5,-18,-25
1523143526254724,5,-1,2,5,-4,-1,-7,14
1523143526268309,7,11,-6,-1,5,3,5,7
1523143526268309,-38,-29,10,2,1,-1,4,6
1523143526269799,5,11,3,-1,0,5,-15,-16
1523143526269799,-11,-4,-3,-5,-5,-2,14,14
1523143526290666,12,-6,-2,0,-4,2,10,-20
1523143526290666,31,15,-7,-5,-2,-4,-10,-3
1523143526292173,-57,-3,-4,-2,-1,1,11,9
1523143526292173,-1,-4,6,0,1,1,-2,-21
1523143526313511,-2,-4,-2,0,-4,-3,-6,-3
1523143526313511,0,-8,-2,-4,0,3,9,-8
1523143526314652,20,-1,-2,0,-3,-8,-11,21
1523143526314652,-13,-1,0,4,2,15,50,-3
1523143526328012,-10,-6,0,-2,0,-4,-17,-78
1523143526328012,-2,3,-2,-4,-4,-6,-18,18
1523143526334706,-13,1,-4,-1,-2,-4,-6,-62
1523143526334706,9,-2,2,-1,4,-3,-21,21
1523143526350748,19,-3,-2,-4,0,-3,-6,26
1523143526350748,-17,-13,0,-1,-5,1,17,-5
1523143526352254,17,-2,3,2,4,3,-13,11
1523143526352254,-5,0,0,2,6,1,-13,-26
1523143526373308,-1,3,-2,-2,-5,-3,-6,-8
1523143526373308,1,4,-5,-2,-4,-5,-6,-1
1523143526374812,3,1,-4,-6,-7,-2,4,5
1523143526374812,-1,-4,8,8,-4,-3,-14,-10
1523143526387847,-11,-1,-1,-4,0,-5,-1,20
1523143526387847,-9,4,-16,-21,9,3,-1,0
1523143526394866,6,0,30,46,-10,-2,13,-3
1523143526394866,-8,-2,-13,-14,10,1,-7,-8
1523143526410908,7,2,11,5,4,0,-8,83
1523143526410908,8,1,-18,-14,-9,0,8,-37
1523143526412412,-7,-4,-2,-23,-5,-5,-35,-49
1523143526412412,2,-1,-4,-3,4,-3,23,52
1523143526433828,-1,1,10,14,-2,5,-5,7
1523143526433828,16,1,4,-2,2,0,-3,36
1523143526434971,7,-1,4,-12,-10,-6,18,10
1523143526434971,-11,-3,-26,4,-9,-13,-50,-40
1523143526447505,13,-3,7,-13,2,18,37,16
1523143526447505,-9,2,10,28,-1,-2,-5,12
1523143526454807,-8,-3,-2,-17,5,-3,-13,-48
1523143526454807,5,3,-9,-11,-5,-1,-9,-2
1523143526470973,3,-6,20,10,-1,-2,16,67
1523143526470973,-16,4,-10,-7,2,-2,-62,-98
1523143526472798,-7,-4,2,-1,2,2,46,37
1523143526472798,-2,-20,3,-12,-5,-2,26,57
1523143526493363,-10,2,-11,-21,-6,-8,-21,-28
1523143526493363,0,2,18,42,4,5,9,44
1523143526494514,10,7,-14,-22,6,5,-7,27
1523143526494514,4,-4,20,15,-7,-2,31,-30
1523143526507548,-15,-12,-7,3,-6,-14,-55,-48
1523143526507548,8,-2,1,-1,2,-1,20,-10
1523143526514567,-3,5,-25,-16,0,-4,-7,0
1523143526514567,31,2,5,-16,-6,8,-6,2
1523143526531166,-8,-2,14,27,-1,-3,-20,-9
1523143526531166,-2,4,-20,-17,4,5,9,38
1523143526532116,0,-9,7,37,6,1,7,25
1523143526532116,-18,4,10,3,-2,-5,-11,-54
1523143526553169,-2,7,-9,-7,-2,-1,-14,0
1523143526553169,-1,-5,-14,-38,-9,-2,17,2
1523143526554675,2,-8,-12,8,0,1,-41,46
1523143526554675,40,9,15,19,10,6,9,-34
1523143526567110,-3,5,-19,-21,0,3,4,8
1523143526567110,-8,-1,35,40,-4,-1,42,-13
1523143526575730,3,8,-17,-13,-6,-8,-43,9
1523143526575730,-1,2,-1,-12,-3,3,64,15
1523143526590771,-2,2,-18,1,0,-1,-2,-70
1523143526590771,-4,-8,13,-7,-4,-5,-11,36
1523143526592275,9,-1,-1,0,3,0,-2,-22
1523143526592275,-48,-8,1,1,-2,-3,-23,28
1523143526613329,-8,-1,-2,-1,-2,2,21,-53
1523143526613329,5,1,0,-3,0,-2,-13,11
1523143526614833,0,-5,-8,-5,-1,4,38,-17
1523143526614833,-13,4,14,-6,4,-6,-36,-11
1523143526628142,-5,-7,-18,11,-3,-1,11,32
1523143526628142,-3,-6,-9,0,2,-5,-50,-23
1523143526634888,1,8,8,22,-1,3,76,13
1523143526634888,7,-5,-15,-26,-3,-1,-11,23
1523143526651187,2,4,27,31,-2,-9,-2,2
1523143526651187,3,0,-15,-43,-4,-5,-34,11
1523143526652760,-12,1,-4,7,13,2,-1,15
1523143526652760,-5,-2,-11,4,-2,4,32,-12
1523143526673618,35,-6,0,-11,-3,1,16,24
1523143526673618,-14,15,-8,-3,1,-3,-7,-24
1523143526674492,3,-13,12,-4,-11,-6,-47,-4
1523143526674492,15,9,2,8,-3,-9,-43,24
1523143526687917,-43,-8,-12,-17,0,1,-7,-33
1523143526687917,-4,3,1,7,-5,4,21,9
1523143526694445,5,-3,0,-8,-3,-2,-3,14
1523143526694445,28,0,-3,10,-2,-2,7,17
1523143526710988,28,4,-3,-8,0,0,6,58
1523143526710988,4,-7,2,8,1,-8,-35,-82
1523143526712820,-22,-3,6,-1,1,4,7,12
1523143526712820,2,0,-5,-3,-1,-5,-28,17
1523143526733652,-8,-4,-2,-3,-1,-1,0,17
1523143526733652,-4,-1,4,2,1,7,14,29
1523143526735220,20,1,-7,-9,-2,-2,10,-10
1523143526735220,-20,-6,2,0,-1,0,-6,-41
1523143526747185,9,1,2,-3,0,-1,-3,14
1523143526747185,-7,1,-2,4,0,-6,-11,19
1523143526755709,3,2,0,-3,-4,-3,29,-32
1523143526755709,-12,2,-9,1,-4,1,-36,10
1523143526771235,-4,2,4,0,1,1,25,20
1523143526771235,-21,-9,-3,-4,-1,1,16,14
1523143526772803,21,-2,-5,-4,-3,-5,-2,-7
1523143526772803,-20,-1,10,3,2,3,-11,-23
1523143526793297,12,2,-4,-8,-4,-2,-12,-11
1523143526793297,-1,-6,0,0,-4,3,15,4
1523143526794803,16,5,-1,0,4,-2,-12,4
1523143526794803,-16,3,-5,0,-3,-2,12,3
1523143526815725,14,8,-3,-3,-3,-4,-5,-11
1523143526815725,10,-20,5,4,0,4,25,42
1523143526817363,-6,-2,4,0,-2,4,-11,-40
1523143526817363,0,0,-2,1,9,3,9,6
1523143526830283,-8,-4,1,0,-2,-4,1,-5
1523143526830283,6,2,-1,-2,-1,-2,-10,-2
1523143526837315,-20,-5,-3,-4,-7,-8,-23,21
1523143526837315,14,-5,0,1,0,9,63,20
1523143526853669,-19,-2,0,-4,-1,-1,-18,-74
1523143526853669,0,3,-2,1,0,-2,6,18
1523143526855261,-9,-1,-1,-6,-2,1,-4,-8
1523143526855261,-9,2,0,-10,-11,-11,-17,-15
1523143526867494,-12,-11,-21,-16,9,0,4,37
1523143526867494,19,3,57,65,-1,-5,-1,-4
1523143526875517,-23,-2,-15,5,-6,-2,19,4
1523143526875517,6,-4,-16,-40,2,3,-30,-8
1523143526890558,-9,-8,8,10,6,6,34,17
1523143526890558,11,4,-9,-7,-10,-3,-11,-13
1523143526892561,2,2,39,31,7,0,-3,16
1523143526892561,2,3,6,32,-1,-9,-30,-31
1523143526913510,-12,-13,-49,-85,-4,3,25,0
1523143526913510,-9,6,21,53,0,2,0,9
1523143526914623,10,2,-1,9,7,2,-33,9
1523143526914623,-2,5,-19,-20,1,7,73,-2
1523143526927021,13,1,17,7,-15,-23,-51,4
1523143526927021,-1,-1,-31,-24,8,4,-17,21
1523143526935677,-14,-4,-6,-43,-11,-2,5,-34
1523143526935677,12,3,30,63,6,-6,-15,33
1523143526950717,0,-12,-17,-15,0,3,2,-15
1523143526950717,-12,1,20,-1,-7,-11,-13,-9
1523143526952222,-6,-1,4,0,5,3,19,-7
1523143526952222,12,9,-30,-32,-6,-2,-7,41
1523143526973275,-24,5,18,9,-2,-2,-39,-38
1523143526973275,-3,-11,-17,-19,3,9,96,18
1523143526974782,10,-1,-26,-37,-2,6,-5,-7
1523143526974782,-2,0,29,27,0,-6,0,-6
1523143526987260,14,6,10,23,-5,0,-9,42
1523143526987260,5,-5,-43,-34,-1,-5,-29,-26
1523143526996055,-2,0,31,24,0,-11,-9,-28
1523143526996055,-11,-8,11,21,-3,2,-24,6
1523143527011123,5,5,-4,4,8,10,27,9
1523143527011123,-19,1,1,-15,-2,-9,-22,-53
1523143527012098,10,-2,-18,-20,0,1,-8,19
1523143527012098,-19,-8,16,-4,-8,-7,-21,-5
1523143527040673,10,2,6,31,3,1,10,-30
1523143527040673,3,5,-16,-27,13,13,12,54
1523143527042177,-7,-2,-14,-8,-6,-6,-26,-51
1523143527042177,6,-16,5,-14,0,4,3,-1
1523143527047086,-13,-1,-1,13,-5,-2,34,15
1523143527047086,10,1,1,-7,-7,-1,-4,-2
1523143527055713,26,4,-11,-3,3,-1,-4,39
1523143527055713,-30,-2,1,-4,0,-4,-16,0
1523143527070522,-3,-4,-14,-6,-7,-3,29,-50
1523143527070522,0,2,14,13,1,-8,-70,-17
1523143527077285,5,4,-2,-1,-2,1,65,-4
1523143527077285,4,1,-13,-19,-3,-3,26,9
1523143527093184,-10,1,8,16,6,4,-26,-3
1523143527093184,-4,-9,20,4,5,1,-10,-21
1523143527094689,-10,-1,-2,8,-3,-2,-8,27
1523143527094689,0,-6,-17,-13,-5,-6,-25,-17
1523143527106720,-6,3,8,-3,-3,2,17,13
1523143527106720,4,2,-19,-4,0,-1,-3,2
1523143527115746,-3,-6,1,-7,-2,3,-1,18
1523143527115746,11,-1,1,8,0,0,5,-12
1523143527130785,5,0,-6,-19,-1,-3,-42,51
1523143527130785,-13,-14,15,12,-1,3,51,-46
1523143527132289,19,5,-3,3,1,0,-15,27
1523143527132289,-37,3,-7,-6,1,5,17,-17
1523143527153344,-3,3,-6,0,-3,-6,-1,4
1523143527153344,55,7,-1,-5,-4,0,5,43
1523143527154852,-49,-9,-3,8,2,0,-3,-26
1523143527154852,-14,-4,6,4,1,-4,-7,-46
1523143527166880,10,1,-3,0,2,-4,-24,36
1523143527166880,-13,0,12,0,-2,-2,-19,-26
1523143527175908,0,-1,4,4,-1,-1,9,37
1523143527175908,27,8,-7,-6,-3,-7,-12,-24
1523143527190444,-13,1,7,5,2,5,-28,-17
1523143527190444,0,-10,-4,0,-1,10,50,26
1523143527192779,-25,-6,0,0,-1,-9,-15,-55
1523143527192779,5,-3,-8,-4,1,8,2,13
1523143527213004,-24,4,7,0,-1,-5,-11,38
1523143527213004,-2,16,-8,-5,-2,-4,10,7
1523143527215264,13,-10,-10,-1,-1,5,-2,-52
1523143527215264,5,8,-1,2,0,0,-23,20
1523143527236136,8,-4,1,0,-2,4,78,-5
1523143527236136,-18,-9,-14,-7,-2,-1,-3,12
1523143527237775,-2,4,2,0,-2,-3,0,31
1523143527237775,5,-6,0,-2,-1,-4,-22,-26
1523143527250650,10,0,-2,-2,-2,-5,-14,-3
1523143527250650,-14,-3,-4,-3,-2,-6,-12,-7
1523143527252107,11,1,5,5,-1,-3,4,-7
1523143527252107,2,-1,3,2,6,3,21,36
1523143527273169,2,0,0,-2,-2,2,-7,-11
1523143527273169,-4,-2,-4,-2,-3,1,6,-20
1523143527274669,-7,4,0,0,1,-1,-9,22
1523143527274669,0,-10,-4,1,-2,-2,9,5
1523143527295725,-10,-15,6,5,3,2,-30,9
1523143527295725,15,9,-4,-3,2,-5,-3,-76
1523143527297230,-27,-10,4,-1,-8,2,-10,-8
1523143527297230,0,3,-2,-1,5,-3,0,11
1523143527309980,10,-2,-1,-12,5,-2,-11,-29
1523143527309980,-12,1,23,56,-3,-1,3,50
1523143527317245,43,5,-4,-27,-3,-1,6,24
1523143527317245,-46,-5,-12,-3,-3,-3,-27,-70
1523143527333518,1,6,13,47,2,4,34,2
1523143527333518,4,-2,-25,-55,-5,3,-1,15
1523143527335214,9,1,22,39,5,0,11,27
1523143527335214,13,6,-37,-59,-12,-4,-2,10
1523143527356189,-3,-6,63,13,-3,-11,-11,-81
1523143527356189,-23,-2,-8,48,1,-2,-16,-18
1523143527357192,-22,-18,-13,-34,6,3,4,-14
1523143527357192,26,-6,16,5,-5,-3,41,66
1523143527370170,-6,6,-26,-39,-5,-2,12,4
1523143527370170,-5,-4,-4,-16,-3,8,22,-4
1523143527377289,1,-3,27,42,10,-3,-34,-17
1523143527377289,-1,0,-10,-19,0,-1,28,-27
1523143527393833,10,1,-17,7,-1,-4,-12,40
1523143527393833,14,11,-8,3,-4,-6,-14,40
1523143527394837,-3,1,-12,-5,-3,-2,-19,-8
1523143527394837,4,3,7,13,-1,3,0,27
1523143527416201,9,1,-18,-15,-3,1,1,-8
1523143527416201,2,-1,6,-9,4,-1,26,-3
1523143527417399,0,8,-9,2,-7,-3,-5,-6
1523143527417399,1,-1,10,15,-1,-3,-15,-3
1523143527429970,-25,-7,-23,-17,4,0,-56,-13
1523143527429970,-3,-4,19,1,-1,-2,63,42
1523143527437449,1,-2,17,9,0,-5,0,-14
1523143527437449,-2,-3,-32,-21,-8,3,-18,-16
1523143527453620,-16,-2,16,9,2,-6,-26,-6
1523143527453620,-1,8,-10,-7,-3,-2,16,11
1523143527454494,20,6,-16,-32,-7,-1,9,-23
1523143527454494,-38,-6,15,32,11,9,2,26
1523143527475550,12,-3,-14,-45,-4,1,-1,-9
1523143527475550,-9,-3,11,21,1,-7,-44,-19
1523143527477054,2,0,8,18,-2,1,28,13
1523143527477054,9,-1,-8,-1,-2,-5,-7,14
1523143527490090,2,0,-13,-9,0,0,27,-10
1523143527490090,8,0,-1,-11,4,5,-38,23
1523143527497006,-8,-1,-6,1,-2,-3,2,-29
1523143527497006,-8,-2,6,-7,-3,0,3,39
1523143527513150,-9,2,8,11,-9,-4,-4,-34
1523143527513150,8,-5,-20,-21,-2,3,-4,4
1523143527514654,-13,-12,25,24,12,5,-15,35
1523143527514654,18,7,-2,3,-1,0,6,-10
1523143527535709,16,2,2,-3,-3,-2,8,19
1523143527535709,-8,-9,-9,-3,-11,-5,-23,21
1523143527537215,0,2,-8,-24,4,0,5,-39
1523143527537215,17,0,12,0,0,-6,3,-7
1523143527550511,-4,0,2,26,-3,4,2,11
1523143527550511,5,4,8,0,2,-4,-19,-26
1523143527556530,2,-1,-16,-4,-7,-2,15,11
1523143527556530,2,1,8,9,9,-3,-12,-22
1523143527573073,8,-7,-20,-18,-2,0,0,16
1523143527573073,-15,-3,1,15,-5,-5,-6,-6
1523143527574579,7,3,-3,-14,-3,3,-2,54
1523143527574579,-11,0,-13,3,-3,-10,-10,-61
1523143527595635,0,-1,2,-3,-3,7,40,15
1523143527595635,-13,-5,22,18,10,4,14,1
1523143527597638,8,2,-23,-14,-2,-1,-25,19
1523143527597638,-11,3,4,-9,-4,-2,3,11
1523143527610478,3,1,-4,22,2,-6,-7,5
1523143527610478,0,-4,6,13,-5,-9,-31,-31
1523143527617192,-5,1,10,-7,11,9,59,-10
1523143527617192,8,1,-22,-3,1,0,-7,23
1523143527633631,-4,3,7,-17,-3,0,-8,-40
1523143527633631,8,2,-28,-14,-7,-4,-13,9
1523143527635295,16,-2,11,3,-7,-4,-7,7
1523143527635295,-37,-7,12,21,-8,-5,-6,-37
1523143527656174,-5,-4,-5,-12,10,5,-14,10
1523143527656174,7,3,5,13,3,2,26,5
1523143527657299,-21,-2,-17,-5,-4,0,-12,-13
1523143527657299,21,2,-3,-11,-1,-5,-6,-2
1523143527670590,1,-3,5,13,-9,-7,-3,28
1523143527670590,0,-18,-8,-21,1,1,-5,-21
1523143527677198,10,5,-23,-14,2,5,19,15
1523143527677198,0,-4,31,35,0,0,-16,24
1523143527693654,-8,4,-9,-2,-4,-3,-7,-11
1523143527693654,23,7,0,-25,0,1,24,-18
1523143527695344,12,5,5,23,-8,-6,-9,14
1523143527695344,4,-6,-4,-16,4,-5,-26,-23
1523143527715872,-4,7,-5,6,-1,7,81,38
1523143527715872,-20,-13,-9,-16,-7,-7,-10,-29
1523143527717218,-32,-14,-1,0,-1,-7,-39,-1
1523143527717218,-14,12,-8,-1,-1,0,53,29
1523143527729751,43,-2,3,-3,3,-6,-68,-53
1523143527729751,39,18,2,-1,-3,-2,8,1
1523143527738275,-53,-6,3,-4,-1,5,14,-28
1523143527738275,-8,-12,-3,-7,-2,-5,-22,11
1523143527753313,-24,-5,3,6,-1,-3,3,18
1523143527753313,22,3,-3,-2,2,11,18,-14
1523143527754820,9,0,2,5,-1,-2,-16,-6
1523143527754820,17,5,4,-4,-1,4,-33,-47
1523143527775604,-9,1,1,3,2,4,22,10
1523143527775604,-30,-11,3,-4,0,-7,-25,21
1523143527777380,2,1,-3,-4,-6,-5,14,-24
1523143527777380,5,-2,-2,-2,-4,-1,-3,0
1523143527789409,-1,8,0,3,1,2,10,-8
1523143527789409,4,-6,-7,-4,0,1,-6,21
1523143527798780,1,-1,5,-2,-3,-6,-16,3
1523143527798780,11,3,1,-1,1,3,21,2
1523143527813361,-39,-5,-1,-2,1,-5,-19,-8
1523143527813361,-7,0,-2,-2,-3,-2,5,34
1523143527814476,5,-2,-2,2,-1,-2,4,-31
1523143527814476,12,-4,-1,-1,3,10,14,30
1523143527836034,3,-5,2,2,11,5,8,16
1523143527836034,-14,0,-2,-4,-4,-6,-16,-44
1523143527837726,10,3,-12,-4,-5,0,9,13
1523143527837726,2,1,8,-11,-7,-3,3,-5
1523143527849464,5,-3,-14,-1,7,-2,-16,-7
1523143527849464,-11,-2,28,41,6,1,-5,-6
1523143527858595,7,0,-23,-14,-8,-13,-18,-7
1523143527858595,9,-2,-9,-8,6,8,-1,42
1523143527873133,9,2,-5,-18,-3,2,17,-29
1523143527873133,0,-4,4,-4,-4,-4,-5,6
1523143527874638,-7,-1,13,29,-1,-4,1,24
1523143527874638,-23,-1,-13,-15,-2,-5,-12,-36
1523143527895694,-4,-6,-24,-44,-8,-1,-3,-7
1523143527895694,-5,-1,26,37,0,-4,-5,-2
1523143527897197,7,9,45,21,12,5,3,19
1523143527897197,8,0,-18,27,-1,-1,9,-6
1523143527909577,7,-2,-6,-17,-10,-2,-3,13
1523143527909577,-3,-2,-34,-58,4,3,2,31
1523143527918254,-5,-7,-14,-35,-5,3,-4,-60
1523143527918254,-2,1,13,6,2,-2,5,28
1523143527933678,-28,-13,18,35,-7,-4,-13,1
1523143527933678,8,2,-7,-23,-4,-4,10,25
1523143527935151,13,3,-25,2,8,5,22,11
1523143527935151,19,-4,27,42,-5,-1,11,63
1523143527955852,-14,1,-22,-25,-5,-6,-33,-20
1523143527955852,5,3,8,2,4,3,17,0
1523143527957356,2,-2,-8,-5,-1,-6,-28,4
1523143527957356,-3,-3,10,17,-4,0,75,-19
1523143527969786,10,-3,8,7,-2,-7,-15,-17
1523143527969786,-2,-7,-2,6,3,1,-27,-6
1523143527978415,4,2,-18,-29,-4,4,46,46
1523143527978415,-17,-2,-7,-4,4,1,-33,-1
1523143527993454,15,0,2,7,-2,-2,3,-29
1523143527993454,-12,1,9,-13,-5,-3,7,-28
1523143527994505,2,0,9,5,-3,0,-18,9
1523143527994505,8,-4,-16,-19,-2,-4,3,17
1523143528016095,14,7,26,55,1,0,10,6
1523143528016095,4,3,-37,-30,-1,0,0,18
1523143528017758,-18,-1,-6,-14,-2,-7,-35,-25
1523143528017758,26,4,8,-8,-3,5,32,-35
1523143528029822,1,1,-11,-17,0,3,9,38
1523143528029822,-7,-7,6,27,3,-4,-16,13
1523143528038095,6,1,4,19,-1,-1,58,9
1523143528038095,-12,-2,-13,-38,-7,0,-27,-84
1523143528053495,14,8,28,36,3,-1,3,50
1523143528053495,-11,-3,-50,-23,-8,-1,-10,-28
1523143528055328,-5,-3,60,-1,-4,-4,-7,-18
1523143528055328,-7,-3,-1,34,13,1,-9,9
1523143528075671,-2,-5,-24,-23,-6,-3,-6,-17
1523143528075671,24,-1,19,15,-5,-1,-12,15
1523143528077175,-3,-6,-1,-14,2,3,-5,-37
1523143528077175,-21,1,-24,-19,-6,1,1,-13
1523143528089467,-18,-10,24,19,-1,-5,-17,22
1523143528089467,5,7,-9,10,1,-3,17,3
1523143528098492,30,-1,-19,-7,-2,-1,-28,-34
1523143528098492,-14,2,24,4,-1,-10,8,13
1523143528113419,3,-10,-19,-2,7,7,2,-15
1523143528113419,-16,2,26,0,-2,-5,6,-1
1523143528114534,-2,7,-23,-9,-5,0,-15,-7
1523143528114534,-2,-3,-18,-20,-1,-3,-43,-27
1523143528136116,1,1,4,-8,-9,-9,-4,15
1523143528136116,-6,-2,23,15,6,4,18,-61
1523143528137720,-12,1,-8,-6,2,0,-28,68
1523143528137720,9,-5,-6,-2,-2,-7,-16,4
1523143528158532,-18,-7,1,-8,-2,8,14,9
1523143528158532,-1,7,0,7,-2,-3,5,1
1523143528159655,-11,-4,-3,7,0,-1,-21,-5
1523143528159655,11,-7,4,-5,1,11,58,23
1523143528173189,21,-2,-17,-20,-3,-8,12,20
1523143528173189,-15,-24,-3,-10,2,2,-10,-26
1523143528174694,35,8,14,27,1,-6,-29,9
1523143528174694,0,13,-4,-1,-5,1,0,-35
1523143528195612,-2,-10,9,3,3,-10,55,24
1523143528195612,55,1,-18,-16,-1,16,2,-68
1523143528195751,-3,8,-5,8,-2,-9,2,34
1523143528195751,-24,-21,29,4,0,9,2,12
1523143528217929,9,8,-4,-1,1,-19,-53,-18
1523143528217929,-14,1,8,5,-1,3,5,41
1523143528218312,6,0,0,3,2,16,47,7
1523143528218312,-12,0,0,-2,-2,-5,-16,18
1523143528232542,-3,5,-4,-4,2,3,-34,-66
1523143528232542,-24,-4,2,1,-3,-20,-34,7
1523143528233755,-6,-9,7,4,7,11,29,-7
1523143528233755,-1,2,10,-3,-3,-4,-13,27
1523143528255471,-61,-19,8,1,-3,-2,-19,-17
1523143528255471,9,8,-13,-6,-4,-12,-17,3
1523143528255603,-48,-14,4,3,1,2,0,5
1523143528255603,15,4,-8,-2,-2,-2,-17,8
1523143528277984,2,2,0,5,1,10,28,3
1523143528277984,-14,6,4,-2,-3,8,7,16
1523143528278167,23,-11,-5,-6,-4,-8,1,-17
1523143528278167,-26,-12,-3,-1,1,-1,0,-6
1523143528292201,18,13,-6,2,-1,-1,-2,13
1523143528292201,3,0,-5,-4,-5,-3,-5,-2
1523143528300621,-1,2,-6,4,-1,4,6,-12
1523143528300621,-9,3,-4,-4,1,-6,-12,-23
1523143528315061,14,7,1,-1,2,3,7,-3
1523143528315061,-2,-1,-1,0,-5,4,0,7
1523143528316207,-12,-6,2,-3,-4,-10,-6,-3
1523143528316207,29,4,-6,0,1,2,0,8
1523143528338087,-23,-9,3,-4,-4,3,0,-20
1523143528338087,5,0,3,9,1,-10,-10,21
1523143528338224,-6,1,-6,-8,0,9,25,10
1523143528338224,-4,0,-8,-9,-3,0,-2,-26
1523143528351760,7,3,-2,-13,-2,-1,-2,13
1523143528351760,1,-3,-1,19,-3,-3,0,14
1523143528360282,-6,0,-3,-37,-8,-11,-31,-47
1523143528360282,11,9,20,72,8,6,2,23
1523143528374822,4,4,-44,-72,2,6,23,4
1523143528374822,-15,-18,5,-3,-4,-3,4,-7
1523143528376197,5,2,17,50,5,-5,-6,35
1523143528376197,-6,-3,-6,-12,-9,-16,-27,8
1523143528397716,4,10,21,49,4,9,10,-22
1523143528397716,1,-5,-45,-90,2,6,2,16
1523143528398384,4,-1,23,40,-8,-10,4,67
1523143528398384,-24,-4,-15,-10,2,-6,-34,-123
1523143528411920,51,6,9,-14,-3,-4,14,-26
1523143528411920,-34,3,-5,41,7,0,3,15
1523143528420255,-11,-6,-12,-44,-5,7,78,-38
1523143528420255,3,-7,-20,-32,-4,-3,-38,46
1523143528435383,0,-6,31,21,-4,-5,16,21
1523143528435383,5,3,3,13,-4,3,1,8
1523143528435484,4,5,-28,-36,3,-3,-18,-37
1523143528435484,-23,1,3,39,0,-2,-3,0
1523143528457542,-3,7,2,7,1,-6,-37,-29
1523143528457542,4,7,0,-4,-3,2,58,-10
1523143528458693,5,9,-37,-9,-2,-2,-99,22
1523143528458693,16,-7,32,-36,-3,6,115,15
1523143528472581,-1,4,-14,26,-2,-7,-102,20
1523143528472581,-1,4,32,31,7,7,63,11
1523143528473083,15,3,-26,-24,-2,5,23,2
1523143528473083,8,-6,13,-20,-1,-4,3,10
1523143528495542,-8,-6,8,31,9,11,10,19
1523143528495542,4,-4,-15,-14,-8,-17,-96,-74
1523143528495643,-42,-8,23,18,-1,-5,39,49
1523143528495643,25,1,-30,-18,-10,0,51,13
1523143528517553,-18,-4,42,16,1,-4,-7,-70
1523143528517553,13,5,-57,-54,1,-2,-34,22
1523143528518203,19,-4,82,74,4,4,6,-19
1523143528518203,0,4,-17,-11,-8,-3,-46,1
1523143528532446,8,3,-30,-5,5,-6,-20,36
1523143528532446,-1,0,-3,-18,0,12,86,-16
1523143528533243,-2,-4,8,-2,0,-6,-36,-6
1523143528533243,4,11,-5,27,5,-2,-49,10
1523143528555197,-4,-13,-36,-56,-11,13,65,-32
1523143528555197,-3,5,46,38,-5,-10,-83,47
1523143528555806,-13,-2,-17,-13,7,3,29,-94
1523143528555806,11,-1,9,-4,-5,-5,-30,60
1523143528577888,0,-4,-20,-11,-5,-1,31,9
1523143528577888,2,0,9,18,10,0,-57,0
1523143528578365,5,-2,-24,-23,-6,8,43,25
1523143528578365,-2,-5,-1,-24,2,2,-12,-12
1523143528592927,5,-1,23,28,-2,-12,-22,-14
1523143528592927,-5,-3,-11,-24,-5,8,11,59
1523143528593408,11,-4,-2,-6,2,-1,23,11
1523143528593408,-5,-3,-16,-4,-2,0,-8,-44
1523143528615461,1,-2,2,-13,-6,0,7,58
1523143528615461,-4,-5,9,13,-2,-4,12,-13
1523143528615461,-13,-5,-18,-17,-3,-9,-66,-78
1523143528615461,-56,7,28,48,2,-1,36,53
1523143528637520,11,-3,-17,-30,2,0,7,-4
1523143528637520,-28,-4,27,27,-2,-2,26,-63
1523143528638523,12,6,-16,33,3,-4,-22,-21
1523143528638523,8,8,2,-17,-6,-5,-22,19
1523143528652060,-10,-5,-5,-1,6,8,-12,-37
1523143528652060,-5,2,-22,-26,-1,0,26,12
1523143528660082,4,3,13,-2,-4,-11,-87,33
1523143528660082,-3,-8,3,15,0,-1,58,-24
1523143528675296,-22,11,5,3,-1,4,-14,40
1523143528675296,21,-4,1,-8,-4,0,-11,-3
1523143528676320,-23,-38,20,9,0,-4,15,-71
1523143528676320,7,-3,-7,-6,1,-5,-29,9
1523143528698650,-1,1,-4,-7,-1,8,16,9
1523143528698650,10,-11,3,8,-1,-5,-8,-22
1523143528698650,-9,16,-8,0,-1,3,13,26
1523143528698650,-6,-11,-2,-11,-1,-1,2,-19
1523143528711663,0,-8,16,8,-1,-5,-11,16
1523143528711663,-11,5,1,6,1,2,-34,2
1523143528720562,1,-6,-12,-13,-3,-3,19,6
1523143528720562,5,6,3,-8,4,4,4,-22
1523143528735505,-3,4,-5,9,-4,-2,-6,-6
1523143528735505,1,4,-3,0,0,2,-9,-7
1523143528735605,6,-9,-4,-9,0,2,6,35
1523143528735605,-2,0,1,2,0,1,-3,-7
1523143528757680,-40,-5,1,5,-2,-4,6,-13
1523143528757680,8,6,-5,-2,3,-2,18,1
1523143528758725,3,9,1,-3,0,4,-11,19
1523143528758725,-5,-1,-2,3,1,5,6,-16
1523143528771701,-4,-2,-3,-4,-5,-1,-6,9
1523143528771701,4,2,1,-4,-6,-5,2,-12
1523143528780045,-17,-4,-3,2,0,-6,-17,10
1523143528780045,11,-3,-2,-2,4,-4,-22,-10
1523143528795634,15,-1,-3,-2,3,7,17,7
1523143528795634,-6,2,0,1,3,-1,-5,-5
1523143528795765,15,6,-6,-6,-8,-1,-15,49
1523143528795765,-12,-4,-17,-18,-7,-6,51,-39
1523143528817720,-3,-5,30,42,4,-3,1,-83
1523143528817720,10,-3,-8,-8,-1,1,-7,62
1523143528818327,1,1,-7,-11,-1,0,-7,21
1523143528818327,22,-6,-19,-36,-7,0,36,-17
1523143528840885,2,5,-1,-1,0,-5,-18,30
1523143528840885,-1,-16,16,40,3,-4,-8,-33
1523143528841387,0,6,-5,-2,-2,6,8,14
1523143528841387,6,5,-10,-18,2,4,-21,25
1523143528854924,5,0,-12,-35,-3,-1,4,-3
1523143528854924,-7,-5,-12,7,-3,-2,5,-6
1523143528855927,-1,1,15,15,2,-5,-2,9
1523143528855927,2,0,24,32,4,1,-56,11
1523143528877878,9,-3,-19,-20,-8,1,65,62
1523143528877878,-1,4,-11,-33,0,-2,-62,-65
1523143528877984,2,0,5,9,5,8,28,-3
1523143528877984,-4,6,39,69,2,-4,-55,-35
1523143528892224,4,-3,-32,-18,-4,-4,27,70
1523143528892224,2,1,-13,-25,4,6,21,47
1523143528900546,-12,-6,-8,-18,-8,-2,2,-100
1523143528900546,-9,-4,-7,-22,1,2,16,19
1523143528915083,-1,-2,16,7,-2,-5,-40,-42
1523143528915083,-8,-5,-32,-27,-4,1,20,15
1523143528915585,5,2,47,59,0,-5,-5,10
1523143528915585,12,0,-8,-18,-4,4,-31,36
1523143528938145,-12,1,6,25,1,5,39,-58
1523143528938145,-4,-11,1,-13,-8,-6,-18,2
1523143528938145,11,-9,-18,-32,-2,-2,24,35
1523143528938145,-2,2,-36,-11,-2,-1,-27,-13
1523143528951822,-3,-13,48,13,11,-8,-43,-10
1523143528951822,4,8,-17,10,0,2,17,-11
1523143528960496,-10,3,1,-15,-9,-10,-26,48
1523143528960496,13,6,-18,-18,-4,13,47,-25
1523143528975073,6,6,33,23,-3,-9,-16,-12
1523143528975073,-4,-1,-8,14,3,-1,16,48
1523143528975745,-11,-9,-11,-28,-1,1,-15,-11
1523143528975745,-1,-6,-5,-43,-4,-1,13,-34
1523143528997819,1,2,9,40,0,-4,-23,14
1523143528997819,5,3,33,11,-3,0,-5,15
1523143528998305,2,3,-33,-5,1,2,5,19
1523143528998305,-15,-9,0,-28,3,-7,21,-83
1523143529011842,-4,-8,-18,12,-10,-7,-55,14
1523143529011842,7,2,36,31,1,-10,-16,36
1523143529020516,2,3,-20,-19,-3,14,74,-44
1523143529020516,20,-7,-6,-7,-1,-11,-52,43
1523143529035450,-48,2,-26,-50,0,10,31,1
1523143529035450,-15,-5,37,24,-3,-7,-47,8
1523143529035560,9,-8,-2,24,7,4,42,-16
1523143529035560,0,4,14,34,-5,0,9,27
1523143529057976,23,0,-62,-50,-1,2,-3,6
1523143529057976,1,-4,20,-2,7,5,24,6
1523143529058120,-3,-3,4,21,-3,-10,-25,-15
1523143529058120,-14,0,18,9,-8,-1,0,34
1523143529080679,20,3,-24,-15,-1,1,22,19
1523143529080679,5,-2,-25,-29,-5,-4,8,-82
1523143529081184,14,1,26,19,5,10,3,-4
1523143529081184,-5,2,-36,-35,-3,5,12,10
1523143529095720,-24,3,30,33,-2,-4,-38,-3
1523143529095720,-3,6,3,-27,-7,-16,-10,-8
1523143529095720,5,5,6,49,4,6,-31,27
1523143529095720,10,-3,-25,-19,-5,-6,39,50
1523143529117778,3,-5,-2,-22,4,3,-11,-44
1523143529117778,-8,0,2,4,-1,1,-9,-48
1523143529118280,-6,4,-15,-25,-7,-7,-34,20
1523143529118280,-10,2,17,22,6,1,2,-5
1523143529140996,4,8,-1,14,2,1,23,12
1523143529140996,2,1,-34,-27,-4,6,5,-11
1523143529141341,-4,-2,42,-8,-6,-8,6,-4
1523143529141341,-19,-13,42,82,8,-1,-3,-29
1523143529154899,31,7,-14,-32,-7,-16,-44,23
1523143529154899,1,-5,-6,-2,5,19,92,14
