timestamp,emg1,emg2,emg3,emg4,emg5,emg6,emg7,emg8
1523148486239605,7,0,6,-17,-11,1,2,9
1523148486239605,11,-15,-17,13,5,0,2,-4
1523148486241108,-5,12,16,23,18,-2,-3,-9
1523148486241108,-5,0,0,-28,-14,1,1,2
1523148486262162,16,-2,-10,6,-2,-2,-2,-7
1523148486262162,23,-11,-2,-4,15,0,0,6
1523148486263667,-30,-3,-4,-74,-40,3,1,-4
1523148486263667,8,-7,9,40,8,-7,-8,0
1523148486284721,-1,12,0,48,25,-1,1,4
1523148486284721,-3,-29,-3,-21,-7,2,-1,6
1523148486286227,18,2,-1,-19,-37,6,2,6
1523148486286227,-12,-5,-5,16,29,-7,-4,-5
1523148486299766,18,10,1,-49,-23,4,2,5
1523148486299766,13,10,8,67,43,-2,-3,4
1523148486301268,6,4,-4,-43,-20,1,2,-6
1523148486301268,-21,-10,-6,-12,-4,-3,-3,-2
1523148486322329,-4,-17,8,30,-23,-1,0,1
1523148486322329,45,3,-11,9,22,-6,-8,4
1523148486323831,17,17,-6,-50,-24,-1,5,7
1523148486323831,3,8,7,16,-6,-1,-4,8
1523148486335861,-25,-22,-2,-26,1,1,1,-5
1523148486335861,-5,18,6,4,-7,-1,1,-4
1523148486344884,-12,-8,-13,16,14,-1,-3,-3
1523148486344884,12,0,5,-97,-33,4,6,2
1523148486359923,11,-10,-1,44,53,-6,-3,-3
1523148486359923,27,-2,3,12,-42,-7,-9,-17
1523148486361429,22,-8,1,11,-7,2,-1,19
1523148486361429,-9,3,0,-52,-4,7,6,-1
1523148486381983,-10,-11,-18,27,8,-8,-8,-7
1523148486381983,-2,0,7,-14,7,2,5,-6
1523148486383989,-22,-25,-11,6,-12,-8,-5,16
1523148486383989,6,-8,-2,1,-3,0,-1,-12
1523148486404542,-17,14,6,-3,-2,1,2,1
1523148486404542,-5,-7,-2,11,9,3,1,5
1523148486406550,26,21,2,5,2,-3,0,-9
1523148486406550,-38,-30,5,32,-2,4,2,-2
1523148486419606,-11,3,-2,-16,17,-6,-4,0
1523148486419606,-27,-4,-9,-33,-8,4,2,0
1523148486421087,8,1,13,-38,-16,3,4,-11
1523148486421087,-8,0,-4,72,-2,-9,-5,-5
1523148486442144,-18,7,-4,-35,-18,4,1,2
1523148486442144,-7,-8,2,2,-24,-5,-3,1
1523148486443647,-12,-19,-1,21,32,3,2,-8
1523148486443647,18,56,-6,-26,-7,-2,-6,6
1523148486464705,-12,-6,8,-12,-13,-1,-2,-7
1523148486464705,-17,-48,-9,0,2,-2,1,-5
1523148486466208,-25,-9,-16,-18,-13,-6,-15,0
1523148486466208,57,-7,12,43,15,-4,0,19
1523148486478741,-3,2,3,4,12,4,4,-3
1523148486478741,-8,50,6,-5,6,-2,-3,0
1523148486479743,58,21,13,12,1,-2,12,12
1523148486479743,-48,-35,-18,-9,7,6,-5,-2
1523148486501301,15,18,3,-13,-15,-3,-5,-4
1523148486501301,26,5,12,8,6,0,3,3
1523148486502304,8,14,5,8,3,-2,-2,-9
1523148486502304,25,21,-6,-20,-2,-2,3,3
1523148486523862,-25,-45,15,11,5,6,6,-1
1523148486523862,10,19,20,2,-6,-11,-17,-48
1523148486524863,50,11,8,17,4,1,6,15
1523148486524863,28,23,-3,-28,-3,0,10,20
1523148486539405,-48,-30,-6,4,-2,-4,-21,-13
1523148486539405,-36,-7,6,-5,-3,-4,-3,-6
1523148486539908,7,2,-12,5,3,-1,-1,1
1523148486539908,13,7,14,10,5,3,6,-3
1523148486561962,-17,-11,-4,6,0,2,8,12
1523148486561962,-14,26,-12,5,4,1,-4,5
1523148486562964,12,-3,20,15,4,0,-3,-15
1523148486562964,-40,-38,0,-8,1,0,1,-4
1523148486584019,-8,12,-3,-1,-5,0,5,9
1523148486584019,36,-11,-4,-1,5,4,7,29
1523148486591542,-58,-16,-10,-1,-3,-5,-6,-24
1523148486591542,24,25,1,-4,-3,-2,-7,-4
1523148486599062,24,9,3,-20,-11,1,-1,-1
1523148486599062,-7,-22,-9,25,13,-1,4,8
1523148486599564,-17,-6,-4,-3,-13,3,3,5
1523148486599564,39,12,-1,-27,-19,2,-4,-8
1523148486621620,13,6,1,72,42,-6,-1,-4
1523148486621620,5,-4,-2,-81,-45,5,6,10
1523148486622122,-32,-8,4,14,33,-1,-4,-9
1523148486622122,-23,-25,-16,-19,-30,-7,-8,-11
1523148486644178,26,11,-7,36,23,-3,1,0
1523148486644178,4,-7,-6,-35,-10,4,0,7
1523148486644682,10,11,-1,-82,-40,8,2,0
1523148486644682,-31,-16,-6,45,52,-16,-10,-10
1523148486659220,17,5,-5,-53,-31,-3,1,4
1523148486659220,5,-7,-9,-77,-17,6,4,8
1523148486659722,-15,4,2,71,7,2,1,-5
1523148486659722,0,2,8,-5,-14,-2,-5,1
1523148486681780,-32,-1,-3,-16,-19,1,2,-1
1523148486681780,-5,-7,-1,37,30,-3,-4,-6
1523148486682282,3,4,-2,-27,-25,-1,1,2
1523148486682282,3,-3,-8,-82,-42,10,6,-1
1523148486703839,17,8,-3,101,104,-20,-19,-9
1523148486703839,-32,-4,-8,-58,-51,0,-1,-3
1523148486704843,-5,-4,-3,-51,9,-2,-1,-4
1523148486704843,-25,8,-7,106,46,-2,-4,-6
1523148486718880,22,4,-3,-93,-62,7,5,3
1523148486718880,58,-31,2,31,12,0,2,3
1523148486719883,-16,-16,-6,-7,-2,-4,-1,17
1523148486719883,-3,-44,-2,-93,-53,3,5,-10
1523148486741438,-37,57,6,35,49,-4,-5,-19
1523148486741438,19,-33,7,-16,11,-7,-2,29
1523148486742444,-17,8,-7,-32,-18,-4,-7,1
1523148486742444,10,-4,12,-47,-9,7,7,5
1523148486764000,1,-20,0,-17,-28,4,3,0
1523148486764000,-27,12,5,31,9,-4,-3,-18
1523148486764502,16,-2,-2,77,35,2,0,-1
1523148486764502,-12,7,-4,17,-1,-8,-5,3
1523148486779041,-1,-16,-2,-19,-15,0,0,0
1523148486779041,-16,28,-2,24,14,-2,1,-8
1523148486779543,30,-24,-24,-61,-34,6,4,7
1523148486779543,-6,2,3,42,19,-5,-6,-10
1523148486801600,18,-4,0,-33,7,-1,-1,3
1523148486801600,4,8,6,29,-14,1,-1,-8
1523148486802102,2,-20,-4,30,36,-6,-3,-9
1523148486802102,4,24,-9,-37,-13,2,0,13
1523148486824161,14,-20,-2,0,0,5,6,12
1523148486824161,16,-1,-8,-10,-22,-6,-4,-7
1523148486824660,-4,34,7,-15,-8,-5,-6,-1
1523148486824660,-46,-23,1,26,25,1,3,-9
1523148486840704,21,31,8,-35,-28,4,-4,2
1523148486840704,-11,8,0,31,47,-1,-3,0
1523148486841204,9,-21,3,13,6,-5,1,-8
1523148486841204,20,8,3,-85,-26,8,1,11
1523148486869780,-49,-19,4,44,-4,-2,2,6
1523148486869780,-25,-18,-6,2,8,-8,-6,-10
1523148486870282,-4,-4,-12,-47,-13,-3,-2,-5
1523148486870282,-3,-4,7,8,-22,0,2,1
1523148486883852,7,-6,-2,30,16,0,0,-4
1523148486883852,9,16,2,-80,-16,3,0,3
1523148486884821,-28,-7,6,79,53,-7,-6,-3
1523148486884821,-6,-9,0,28,3,-5,0,-7
1523148486898358,14,11,6,-42,-28,-1,-5,-4
1523148486898358,-28,24,-8,-14,-1,-2,-2,-5
1523148486906380,10,2,-1,13,-15,2,-1,-3
1523148486906380,6,0,-7,-64,-14,-2,-1,-2
1523148486921417,-3,-15,-4,93,62,-9,-8,-9
1523148486921417,-6,-4,-6,-21,-8,4,3,9
1523148486922421,-11,24,2,-60,-34,2,-1,0
1523148486922421,0,-8,-3,33,-4,-5,-6,-6
1523148486943980,29,1,0,-3,-3,-1,-1,2
1523148486943980,-6,-5,1,-10,2,-4,-1,-1
1523148486944481,-3,-19,6,31,-4,0,-2,5
1523148486944481,-6,16,1,14,29,-1,0,-3
1523148486958518,-1,-15,-16,-49,-52,-5,-1,-11
1523148486958518,-3,-5,5,19,12,0,1,9
1523148486966539,9,3,-8,-22,1,-4,-2,-2
1523148486966539,3,1,1,-21,-5,0,-2,-1
1523148486981578,1,-23,-10,6,10,2,7,-1
1523148486981578,-20,7,25,39,18,-1,-8,-1
1523148486982079,4,9,5,-46,-19,2,2,1
1523148486982079,-17,3,-4,-82,-63,-1,-1,1
1523148487004139,-13,-8,-23,73,88,-13,-10,-8
1523148487004139,29,17,8,0,-12,7,11,6
1523148487005143,15,7,-1,-11,2,-6,-6,-16
1523148487005143,-63,-10,-2,9,15,2,-1,-11
1523148487018216,34,31,-5,-51,-47,1,-2,14
1523148487018216,-21,-44,-16,47,10,-3,-1,11
1523148487026700,1,19,4,-4,-18,2,0,-7
1523148487026700,44,-33,18,30,62,-1,4,2
1523148487041739,5,-17,3,-46,-28,7,3,-8
1523148487041739,9,-16,-4,27,4,-2,5,9
1523148487042239,18,22,-5,-7,-9,1,-7,12
1523148487042239,-6,17,-1,-1,-8,-9,-5,31
1523148487063831,-68,6,8,-21,-15,-1,-1,-44
1523148487063831,29,-8,-8,1,-1,5,-7,38
1523148487064806,79,8,9,16,18,2,9,7
1523148487064806,-56,-6,-15,10,1,-3,2,-24
1523148487078338,-13,7,-1,-25,-18,-4,0,1
1523148487078338,-14,13,-3,-3,-5,0,7,-5
1523148487086360,-36,-1,7,0,-2,-9,-18,23
1523148487086360,-30,-29,-3,30,18,0,0,-36
1523148487101442,-9,33,-16,-29,-22,3,2,7
1523148487101442,36,-25,8,-5,-10,-8,2,-42
1523148487102400,10,30,9,11,13,-2,-10,-6
1523148487102400,32,1,1,9,-2,0,4,-10
1523148487123957,-22,-17,-1,-20,-9,2,-2,19
1523148487123957,12,40,2,-5,2,2,3,-14
1523148487124961,-39,-23,-2,6,6,2,5,-16
1523148487124961,25,23,6,8,0,-2,-7,10
1523148487147054,10,-10,0,-9,-11,0,1,-16
1523148487147054,-4,-12,-5,-3,-1,-4,-9,6
1523148487148022,-16,-20,3,10,-1,0,7,-11
1523148487148022,28,19,3,5,2,0,-4,14
1523148487161559,33,9,8,-8,-6,4,4,16
1523148487161559,-47,-19,1,11,4,-9,-11,-20
1523148487162061,-10,3,-33,-25,-3,0,-1,9
1523148487162061,27,17,2,-8,0,3,1,-1
1523148487184123,-30,-16,2,41,22,-2,-2,-2
1523148487184123,-2,8,-3,-47,-45,4,-1,-4
1523148487184623,-16,-18,0,-2,11,-1,3,-7
1523148487184623,47,17,0,47,23,-3,-5,10
1523148487198197,27,0,3,-73,-15,2,0,8
1523148487198197,-4,-3,-12,52,5,-1,-3,-1
1523148487206690,-22,-4,9,93,8,-5,-2,-4
1523148487206690,-16,-20,-19,-64,15,-6,-4,-7
1523148487221716,13,10,6,-22,-38,4,5,11
1523148487221716,15,6,5,51,-2,-4,-7,-14
1523148487222218,24,-5,0,-109,-20,8,8,7
1523148487222218,14,-9,5,127,31,-11,-10,-19
1523148487243780,-48,7,4,3,-9,-4,-3,8
1523148487243780,-5,-22,-9,-89,-28,-1,-3,-6
1523148487244778,4,-2,-1,42,-4,2,-1,-19
1523148487244778,-26,2,1,-60,-19,-4,0,-6
1523148487267337,-14,-14,-15,63,38,-10,-7,4
1523148487267337,15,2,-2,-57,-21,2,3,6
1523148487267840,-15,-10,12,-67,13,12,7,-2
1523148487267840,16,0,-1,66,34,-12,-8,-1
1523148487281411,28,-10,-9,-51,-22,-2,-2,-6
1523148487281411,11,-9,2,14,25,2,0,4
1523148487282422,-1,19,-3,-23,-14,-4,-3,1
1523148487282422,3,7,0,-51,-30,8,5,9
1523148487303934,15,3,10,8,9,3,3,3
1523148487303934,-2,14,-2,27,23,-5,-3,5
1523148487304939,-28,-13,0,-6,-11,-2,-2,-2
1523148487304939,-1,-4,-4,-54,-35,6,2,5
1523148487318473,7,-6,-10,48,15,-8,-10,-10
1523148487318473,-5,8,-9,0,8,0,-1,-6
1523148487326494,-3,-2,-5,-54,-37,-1,3,1
1523148487326494,-8,-15,7,104,47,-6,-7,1
1523148487341534,34,-15,3,-62,-24,1,2,5
1523148487341534,-4,10,4,20,7,0,0,2
1523148487342035,-7,-10,-14,-3,17,-2,-4,-7
1523148487342035,1,-4,-2,5,-31,1,1,-1
1523148487364093,-5,2,7,-3,-15,2,1,-2
1523148487364093,-7,1,2,35,33,-2,4,0
1523148487364595,15,-1,-4,26,2,-8,-16,2
1523148487364595,0,2,-9,-33,1,6,4,0
1523148487386655,-2,8,2,2,-7,-2,0,-1
1523148487386655,-12,2,-3,-35,-32,-2,-2,-6
1523148487387658,2,-4,2,12,28,-4,-2,-2
1523148487387658,-6,4,-12,-40,-28,6,4,1
1523148487401695,6,4,1,32,25,-6,-5,-6
1523148487401695,-8,-1,1,-16,-22,-2,-3,0
1523148487402198,-31,-7,-1,-23,-8,3,4,-3
1523148487402198,18,7,5,-34,-7,-4,-3,0
1523148487424256,6,3,2,-18,-12,-1,-5,-2
1523148487424256,-24,3,2,4,35,8,6,2
1523148487425259,6,-26,-3,7,-24,-2,-1,1
1523148487425259,-13,-6,-2,50,15,-3,-3,5
1523148487447373,-9,2,-1,-11,1,3,2,-1
1523148487447373,-5,0,1,-1,3,-4,-3,0
1523148487447820,8,24,0,25,17,-4,-1,-9
1523148487447820,-23,-40,-5,-21,-14,2,1,2
1523148487461360,9,-7,-4,-21,-14,1,3,-2
1523148487461360,6,-1,-6,-53,-20,0,-2,-1
1523148487462357,6,6,-3,103,46,-3,-1,-1
1523148487462357,-10,5,14,-14,-22,-2,1,2
1523148487484148,-4,5,10,-5,6,1,1,0
1523148487484148,27,0,-11,-50,-36,-1,-1,0
1523148487484926,-12,-4,1,29,25,-4,-4,-1
1523148487484926,8,3,-4,5,-9,1,0,-2
1523148487507160,-22,-9,-5,16,15,-2,-4,-4
1523148487507160,32,11,2,15,-9,-2,0,-2
1523148487507981,31,1,-3,-32,-25,-3,0,9
1523148487507981,-5,1,-7,-32,6,1,-2,-5
1523148487521516,4,4,3,12,-6,5,2,-1
1523148487521516,-29,-23,-14,68,34,-10,-11,-15
1523148487522017,-3,3,2,-3,-8,-2,0,20
1523148487522017,0,3,1,-20,-3,-1,2,-8
1523148487544081,-1,-5,-4,-22,-19,-1,-3,13
1523148487544081,-9,5,4,5,24,0,0,-7
1523148487544576,0,0,-9,12,-10,-1,3,-21
1523148487544576,-1,8,2,2,6,0,-6,12
1523148487567640,-7,0,-9,11,0,-4,-1,-4
1523148487567640,21,8,10,8,5,-3,-5,-14
1523148487568144,-12,-48,2,-20,-13,2,4,14
1523148487568144,77,25,-13,1,-2,3,3,-5
1523148487581679,19,-3,15,5,5,0,7,1
1523148487581679,-14,-10,1,11,-3,4,2,-29
1523148487582182,25,47,2,-5,-2,-3,-3,4
1523148487582182,65,-23,-5,5,2,2,-5,26
1523148487603737,38,11,-18,-11,2,-5,-6,21
1523148487603737,-45,33,-7,-9,-12,-9,-8,-63
1523148487604743,49,0,13,-4,-6,-1,-11,39
1523148487604743,-28,21,3,8,10,-4,4,20
1523148487627505,72,37,5,-11,3,3,3,14
1523148487627505,-38,-42,3,-7,-8,-1,-3,0
1523148487627805,-64,-3,-13,-14,-14,-4,-4,-17
1523148487627805,-48,-38,-5,0,4,-5,-7,-14
1523148487641344,-18,-14,-5,3,-2,2,3,4
1523148487641344,36,13,6,-4,-2,3,10,35
1523148487642336,2,-2,5,9,10,4,4,-12
1523148487642336,8,2,-8,-6,-10,1,0,-9
1523148487672423,-37,-12,-1,-1,-11,-5,0,-16
1523148487672423,16,-11,0,1,8,1,-4,14
1523148487672919,5,2,-2,5,-4,1,0,-7
1523148487672919,-29,13,7,-23,8,-1,-1,-5
1523148487687457,-7,-9,-3,22,10,-3,-5,-11
1523148487687457,11,3,-8,-34,-18,-3,-3,24
1523148487687958,0,-8,0,23,13,2,3,-3
1523148487687958,-6,7,4,14,-3,1,0,-11
1523148487701499,1,-6,-2,7,4,2,-1,-7
1523148487701499,10,-2,6,-53,-8,-1,0,11
1523148487701996,0,14,1,93,43,2,1,-4
1523148487701996,20,-7,-11,-94,-54,-3,-1,-2
1523148487724060,-8,8,4,27,-1,-2,-1,-6
1523148487724060,-9,-11,-5,72,34,-2,-5,6
1523148487724556,1,-6,5,13,1,2,2,-2
1523148487724556,-45,-5,-3,-2,-3,0,1,-7
1523148487747150,-8,-2,7,-16,-21,4,1,3
1523148487747150,11,2,-2,-26,-15,7,4,6
1523148487748120,-14,1,-13,-12,-6,-14,-10,-12
1523148487748120,2,-43,7,18,6,3,-1,-14
1523148487761812,-69,-16,-13,-72,-16,-3,-2,-10
1523148487761812,10,2,4,98,11,-2,-1,10
1523148487762160,-3,-12,-1,-30,11,-6,0,-5
1523148487762160,-8,29,1,-5,-7,-2,-5,-8
1523148487784221,5,7,0,-11,-6,-2,-4,-1
1523148487784221,-11,-12,-2,15,3,-4,-3,-1
1523148487784716,8,-2,-9,-89,-30,3,3,-2
1523148487784716,-38,10,-4,23,12,-4,-4,-4
1523148487807283,8,3,9,5,25,2,3,-2
1523148487807283,-7,6,-12,-22,-32,3,5,1
1523148487807776,-5,6,19,45,17,0,-3,-6
1523148487807776,-5,2,-5,-46,-7,0,2,1
1523148487821311,12,1,2,68,17,-1,-3,2
1523148487821311,-10,3,8,-63,18,4,2,0
1523148487822314,-3,-6,-1,89,-9,-6,-4,0
1523148487822314,-4,-30,-13,1,-2,2,2,9
1523148487843871,-34,44,1,34,11,-1,-2,-18
1523148487843871,14,3,6,-14,-24,-1,0,5
1523148487844874,-2,-3,-4,-37,-12,0,0,-1
1523148487844874,-4,-4,3,8,20,-4,0,8
1523148487866931,0,1,-3,-15,-11,0,1,-5
1523148487866931,6,7,-2,15,11,-5,-3,-2
1523148487867986,5,-3,-4,-27,-7,4,1,6
1523148487867986,3,16,3,0,-18,-2,1,-5
1523148487881480,3,-21,-9,-20,1,-2,4,-12
1523148487881480,-36,-20,-8,23,6,-2,-7,25
1523148487881971,-12,17,-4,-56,-13,1,0,-6
1523148487881971,11,6,6,84,34,-9,-6,-3
1523148487904030,9,-15,1,-14,-13,-2,0,2
1523148487904030,11,-4,4,3,21,3,3,-7
1523148487904533,9,7,9,-64,-37,-1,-2,-1
1523148487904533,15,9,0,67,23,2,1,1
1523148487927140,4,0,13,-1,-9,-3,-4,6
1523148487927140,12,6,-6,-18,-15,-3,-3,-12
1523148487928104,11,-19,-5,-20,-11,2,1,2
1523148487928104,-32,13,6,0,19,1,2,-6
1523148487941130,6,-10,-3,18,-9,-4,-6,0
1523148487941130,15,6,5,-35,-25,6,6,3
1523148487949157,-10,-11,-20,85,33,-14,-10,-7
1523148487949157,11,-7,-4,-40,-33,-2,0,-6
1523148487964289,21,33,0,-6,13,0,-2,4
1523148487964289,18,-61,-12,-26,-16,2,1,0
1523148487964797,0,-3,-1,12,13,3,1,-5
1523148487964797,19,-2,2,2,7,0,4,-14
1523148487987850,2,-6,-5,-4,-2,-2,-9,10
1523148487987850,9,19,1,-35,-7,-2,-1,0
1523148487988356,-48,4,3,59,12,0,1,-3
1523148487988356,11,-8,-1,31,23,-1,-3,0
1523148488000888,-7,-7,-2,-86,-45,3,5,-5
1523148488000888,-13,2,1,63,40,-3,-2,-3
1523148488008979,16,0,-4,-38,-11,4,1,0
1523148488008979,-4,11,-3,-11,-14,-1,0,6
1523148488023953,-14,-28,-12,15,1,-1,-1,-2
1523148488023953,-22,12,-8,-6,-1,-3,-2,-11
1523148488024954,-1,2,12,-28,-22,1,1,4
1523148488024954,-4,7,1,32,40,-7,-5,-4
1523148488047077,14,-1,2,-10,-9,-3,-1,14
1523148488047077,-1,5,5,32,22,-1,-2,-5
1523148488048013,29,-14,-10,-18,-14,-1,1,-2
1523148488048013,23,52,8,-20,-7,5,5,7
1523148488061045,6,-16,-2,3,2,-3,-10,-4
1523148488061045,-56,19,5,-9,-9,-2,2,4
1523148488069112,12,14,-6,-31,1,-1,1,0
1523148488069112,13,13,16,-17,-18,-5,-17,36
1523148488084110,-82,15,-2,16,11,-5,-4,-35
1523148488084110,-19,13,-9,-13,-5,1,14,3
1523148488084616,81,-23,-5,10,5,1,-12,9
1523148488084616,-34,37,-2,-22,-14,-2,9,-11
1523148488107241,-29,-36,-9,21,7,-5,-4,-15
1523148488107241,3,-23,-1,1,-6,-5,-20,-7
1523148488108172,-6,4,0,1,5,3,10,-1
1523148488108172,-2,11,-14,-12,-7,1,-2,-6
1523148488120709,-8,-10,2,6,7,-2,1,-7
1523148488120709,71,21,-6,-3,-5,-3,1,-1
1523148488129225,-32,16,17,1,0,-1,-1,1
1523148488129225,18,-10,2,-6,-8,1,0,0
1523148488144267,35,12,-2,0,5,1,7,22
1523148488144267,0,-12,1,-3,-4,-1,-8,-22
1523148488144770,-25,0,0,-5,1,0,-2,-4
1523148488144770,19,-35,-8,-10,-15,-3,-3,3
1523148488167325,0,6,4,7,2,0,0,-6
1523148488167325,-13,15,2,-20,1,2,1,-12
1523148488167827,-16,-23,-12,8,-8,-13,-11,19
1523148488167827,0,-15,-7,-15,-15,0,0,-6
1523148488180861,25,4,7,30,28,-2,0,8
1523148488180861,10,-1,1,-31,-15,4,1,-6
1523148488188883,-9,-2,2,6,4,2,6,-5
1523148488188883,-4,-28,-12,-60,-13,-8,-6,-11
1523148488203925,10,13,4,26,-9,1,-1,6
1523148488203925,-16,-9,0,76,50,-2,-2,9
1523148488204929,3,1,-10,-8,-26,-9,-2,-8
1523148488204929,-15,-8,2,-67,-30,4,2,7
1523148488226988,-16,-12,-17,70,8,-11,-10,-20
1523148488226988,1,-6,3,6,3,-1,1,9
1523148488227988,-39,12,12,62,14,9,3,-1
1523148488227988,32,-14,-6,31,20,-7,-4,-4
1523148488241028,19,3,-1,-128,-33,7,8,8
1523148488241028,5,3,9,84,-18,9,7,7
1523148488249082,4,26,-1,82,50,-14,-9,-5
1523148488249082,30,-88,-7,-73,-33,4,-6,7
1523148488264088,62,3,-1,82,39,3,3,-7
1523148488264088,-5,-10,-12,-79,-10,-14,-5,28
1523148488264585,7,-1,-4,-110,-36,7,-1,2
1523148488264585,-23,21,11,-25,-21,5,7,11
1523148488287147,-21,-16,-11,38,64,-11,-11,-3
1523148488287147,12,0,13,-58,-24,0,0,-12
1523148488288148,-4,-1,-6,-74,-10,1,2,-9
1523148488288148,-2,12,6,65,15,-5,-2,1
1523148488309711,-35,-25,-3,-37,-35,11,11,13
1523148488309711,-1,14,1,2,-1,-5,-2,-7
1523148488310709,-22,-7,-10,-5,5,-5,-4,-7
1523148488310709,0,14,6,31,10,7,7,0
1523148488324246,9,-2,2,-49,-27,-2,-2,12
1523148488324246,-3,-14,-14,73,42,-9,-7,-8
1523148488324746,15,-6,4,-25,-13,4,1,-6
1523148488324746,-12,29,7,8,5,2,3,-8
1523148488347311,-33,-28,-12,-27,-5,-7,-3,-15
1523148488347311,19,1,9,-14,-16,1,-1,17
1523148488347812,3,-7,2,2,-13,2,2,-6
1523148488347812,-15,16,-5,55,47,-4,-5,-11
1523148488369866,9,19,10,-23,-33,6,5,8
1523148488369866,1,-6,-6,-26,-11,3,0,-8
1523148488370367,3,0,0,13,6,-3,3,9
1523148488370367,-13,-29,-4,7,6,-2,-4,-5
1523148488383942,72,17,-2,-54,-14,3,1,7
1523148488383942,3,-6,-9,0,4,-1,-1,-8
1523148488384906,-12,-6,-4,44,10,-5,-3,-8
1523148488384906,-2,-6,-6,-32,-40,-7,-5,2
1523148488407466,-13,9,9,2,1,-3,-1,-3
1523148488407466,-8,8,-5,-34,-2,3,2,-2
1523148488407967,8,-4,20,-3,-17,-1,0,2
1523148488407967,-1,-3,12,87,37,-1,-1,0
1523148488429628,-19,5,0,-12,-14,-2,-2,-6
1523148488429628,1,3,5,-45,-17,2,0,-2
1523148488430639,-9,-1,-5,31,22,2,-2,8
1523148488430639,-9,-2,-4,2,-1,1,0,-5
1523148488444181,-6,7,5,29,16,1,-2,0
1523148488444181,4,-7,-9,-17,-12,-3,-1,0
1523148488444674,13,0,-4,3,2,-3,-5,-1
1523148488444674,-54,-7,-7,-1,25,-1,-2,-7
1523148488467242,7,-6,4,-38,-38,-1,0,5
1523148488467242,-1,3,1,20,-8,1,-1,-3
1523148488467736,13,-8,-5,-20,5,-2,1,-5
1523148488467736,-21,7,3,2,-11,-5,-1,-3
1523148488489796,-2,13,3,-3,5,1,-5,-13
1523148488489796,-16,-19,-1,21,2,-5,-1,11
1523148488490296,1,-1,-3,-58,-40,3,2,-6
1523148488490296,20,6,3,30,35,1,1,2
1523148488503909,-11,0,0,36,26,-5,-4,-6
1523148488503909,17,7,8,4,20,-3,-3,-2
1523148488504835,-9,1,-3,-29,-11,1,-1,-10
1523148488504835,23,2,0,-63,-31,1,1,9
1523148488526962,1,1,-4,-3,14,-1,1,4
1523148488526962,-12,-3,-6,23,-25,-4,-4,-6
1523148488527896,26,-6,11,-13,2,8,8,9
1523148488527896,-14,14,5,-10,0,-5,-9,-11
1523148488549522,-8,-6,-5,36,14,-4,-1,2
1523148488549522,26,-3,4,-24,-8,1,2,2
1523148488550455,3,9,2,1,6,0,0,5
1523148488550455,-30,-4,-1,-7,-10,-1,1,-4
1523148488564060,-10,-39,2,-13,-7,-2,0,6
1523148488564060,18,31,6,-4,0,-2,-2,-7
1523148488564495,9,3,0,11,7,-2,-2,6
1523148488564495,32,1,3,10,2,2,4,11
1523148488587054,56,39,-8,-16,-12,-6,-10,-16
1523148488587054,4,-7,3,12,7,5,7,15
1523148488588055,7,4,9,7,3,-6,-5,9
1523148488588055,8,-27,-13,-18,-10,1,2,-39
1523148488609682,-40,-12,-6,0,2,-2,-2,-5
1523148488609682,43,-4,-13,11,10,8,10,13
1523148488610615,49,-4,-12,-3,-1,-3,-17,-2
1523148488610615,-65,-34,-19,-6,-12,-9,-14,-51
1523148488624153,14,12,-4,5,4,1,2,22
1523148488624153,-10,3,17,1,-3,-7,-4,-18
1523148488624653,-16,0,8,5,5,1,6,13
1523148488624653,27,12,-6,0,-4,3,9,15
1523148488647521,-6,-6,-2,0,-3,-3,-5,-10
1523148488647521,-19,-6,-12,-12,-3,-2,-2,2
1523148488647835,-18,1,-6,3,0,-1,4,-13
1523148488647835,17,6,6,2,-3,-1,-1,20
1523148488669393,-22,-4,0,-4,-5,1,1,3
1523148488669393,-2,-13,-2,-9,-1,-1,0,7
1523148488670397,-23,-2,-4,0,-4,-2,-2,-20
1523148488670397,-1,6,2,-4,4,0,-2,4
1523148488683975,8,10,8,-17,-8,5,7,6
1523148488683975,-27,-7,-4,25,15,-10,-10,-13
1523148488684934,-17,-9,-5,32,10,-4,-4,-7
1523148488684934,15,4,4,-28,1,2,3,16
1523148488707045,-11,5,-10,38,-13,2,3,5
1523148488707045,-15,-1,-2,-16,-12,0,-4,-10
1523148488708001,1,-2,10,73,20,-7,-3,1
1523148488708001,22,2,-1,-61,-24,-2,-1,11
1523148488729606,-1,-1,-1,-24,5,-2,0,-12
1523148488729606,-21,-4,-6,-20,-41,1,-1,-5
1523148488730557,-16,-5,-1,76,86,-6,-6,-2
1523148488730557,-18,-6,-8,-25,-12,-4,-1,2
1523148488744094,-6,-2,1,-28,-12,-1,0,-6
1523148488744094,-8,1,-8,-15,-17,0,1,3
1523148488744621,-14,-5,-2,-26,-18,7,3,-3
1523148488744621,-3,1,2,44,6,-4,-3,2
1523148488767210,39,11,5,-12,17,2,-1,0
1523148488767210,16,-72,-12,-29,-17,-2,-1,1
1523148488768157,-6,-5,-3,45,10,-8,-5,-18
1523148488768157,-3,7,-2,-54,-22,3,2,9
1523148488790266,13,-7,5,91,32,-1,-3,1
1523148488790266,2,34,6,-12,11,2,0,-1
1523148488791220,5,0,2,-111,-52,5,4,2
1523148488791220,16,-18,-6,63,14,-6,-3,-4
1523148488803751,-7,1,1,-10,-1,0,0,7
1523148488803751,-11,24,7,6,17,-4,-2,4
1523148488804755,6,7,-2,-61,-39,5,1,4
1523148488804755,-5,3,1,39,13,1,2,-7
1523148488826992,25,1,-6,-22,-1,-4,-6,-12
1523148488826992,-45,3,4,41,12,-1,-2,20
1523148488827944,-3,-15,-7,-54,-22,3,6,7
1523148488827944,-5,58,0,-39,-7,-6,-11,-15
1523148488849558,-12,-10,2,64,23,-3,-2,-3
1523148488849558,18,2,1,-28,3,3,1,-5
1523148488850510,-5,-2,-4,41,17,-5,-5,1
1523148488850510,1,-9,-5,-9,-23,2,0,5
1523148488864174,-18,-7,-2,-59,-32,-4,-2,0
1523148488864174,-2,12,1,23,20,0,-3,-6
1523148488864677,1,7,-2,-53,-22,4,4,2
1523148488864677,5,-12,-2,-11,5,-2,1,-2
1523148488887322,-36,-11,0,52,14,-4,0,-13
1523148488887322,7,-14,-3,-17,-14,1,0,15
1523148488887819,1,0,-4,-27,-24,0,1,-2
1523148488887819,9,-7,3,-10,6,1,0,2
1523148488909906,-14,-2,3,24,8,-2,-3,-3
1523148488909906,-3,8,-3,15,8,0,-2,-10
1523148488910378,-5,-6,1,64,13,-6,-4,-1
1523148488910378,-36,-13,0,-8,6,4,0,4
1523148488923465,9,10,-1,-70,-23,5,4,6
1523148488923465,-5,-9,-6,26,-24,-7,-3,-10
1523148488931486,2,7,12,30,25,-6,-4,-3
1523148488931486,7,-10,-5,-5,1,4,3,0
1523148488947032,-3,-5,2,7,-14,-1,0,3
1523148488947032,24,0,-4,-15,19,-1,-6,-6
1523148488947979,-21,-2,-7,-23,-6,1,-1,-5
1523148488947979,-9,-11,8,11,39,0,-1,-1
1523148488969538,17,6,2,-6,-64,-5,-2,-4
1523148488969538,11,-24,-11,6,18,-3,-4,-11
1523148488970538,-4,-1,-2,-8,4,-3,-2,0
1523148488970538,18,3,-4,6,-14,-3,-2,1
1523148488983128,-7,-2,-1,-20,17,6,3,5
1523148488983128,-7,4,10,31,1,3,3,-4
1523148488991641,28,11,-9,-38,-8,-4,-6,-7
1523148488991641,2,0,8,-13,1,1,-1,18
1523148489007188,1,2,-1,35,-11,-8,-6,-2
1523148489007188,-7,-1,-10,-19,-11,0,2,-15
1523148489007637,-22,-31,-2,-9,-1,3,3,23
1523148489007637,30,20,5,-34,-43,0,1,-7
1523148489029735,-51,-13,-6,24,46,-2,-6,-6
1523148489029735,-12,4,3,51,42,1,-2,-24
1523148489030200,18,-2,0,-22,-27,-3,-3,10
1523148489030200,27,11,2,16,5,-2,1,17
1523148489043271,-1,-7,-3,-19,1,1,1,-20
1523148489043271,1,26,8,-32,-31,-1,3,-6
1523148489059315,-23,15,7,16,11,-1,-3,15
1523148489059315,35,-45,-4,28,5,-2,11,12
1523148489067336,27,11,3,-33,-6,3,-8,-44
1523148489067336,-2,0,-4,-6,-7,-4,-14,15
1523148489067797,17,13,-4,2,-10,1,9,-19
1523148489067797,26,9,-13,6,-1,-2,-9,13
1523148489089859,-69,-11,-26,-14,-3,-7,2,28
1523148489089859,39,1,4,-28,-8,-6,-13,-7
1523148489090357,-42,-17,4,20,10,1,3,-11
1523148489090357,-21,66,-6,3,-1,-4,-12,-23
1523148489111953,88,-4,9,-5,3,4,10,47
1523148489111953,-100,0,-7,-3,-1,-2,-8,-34
1523148489112916,-7,-3,1,0,2,4,6,36
1523148489112916,-67,-40,-19,10,-1,-5,-9,-42
1523148489127006,42,1,5,-4,0,0,-5,9
1523148489127006,-11,1,-1,-7,-2,3,9,12
1523148489127958,0,1,-2,2,-1,-1,-2,-10
1523148489127958,-19,-26,2,6,8,1,6,9
1523148489149515,9,11,2,-1,-6,-1,-5,6
1523148489149515,6,-20,0,-10,-9,-4,4,8
1523148489150517,4,-3,-8,-9,-3,-3,-4,-6
1523148489150517,36,23,16,28,-1,-6,-3,6
1523148489163589,-47,-6,-6,-11,-1,-5,-4,-13
1523148489163589,3,9,0,-7,-2,-3,0,5
1523148489171660,33,5,0,-4,-4,3,5,1
1523148489171660,-12,-6,0,-8,13,18,6,-3
1523148489187113,-7,-2,-4,20,-3,-4,-4,-7
1523148489187113,8,-5,4,-16,-13,0,4,11
1523148489188116,-8,-4,-15,47,33,-10,-11,-11
1523148489188116,-13,-15,7,-62,-17,5,6,-3
1523148489209762,-6,2,7,92,9,-2,2,-3
1523148489209762,7,-7,-14,-42,-11,-11,-7,5
1523148489210677,0,7,-8,-50,-7,5,2,-6
1523148489210677,9,9,3,35,-1,0,-2,-1
1523148489223296,-2,-6,-4,-23,31,-3,-3,-1
1523148489223296,16,9,3,-49,-24,6,4,2
1523148489231761,3,-13,-2,49,24,-1,-3,-5
1523148489231761,-37,0,-6,-91,-24,-1,0,0
1523148489247385,12,2,3,-16,-28,-1,2,2
1523148489247385,-6,-9,-1,61,23,3,2,1
1523148489247775,8,3,2,-13,7,1,-7,-6
1523148489247775,-46,-13,0,-57,-5,-1,4,3
1523148489269332,-21,-15,-9,69,26,-13,-7,-16
1523148489269332,8,4,-2,-26,1,1,0,-3
1523148489270337,31,2,7,-28,-30,4,0,14
1523148489270337,3,-11,-7,-5,-5,-9,-7,-11
1523148489292421,55,22,-1,-28,-9,-2,-6,10
1523148489292421,6,1,-3,-69,-37,7,8,4
1523148489292897,-6,-5,-2,104,47,-13,-10,-10
1523148489292897,21,-4,4,48,7,-3,-2,-4
1523148489307019,-20,-9,-1,-45,-11,8,5,11
1523148489307019,15,5,2,5,4,2,0,1
1523148489307936,-7,0,-3,-29,-27,-4,-3,-3
1523148489307936,10,5,2,53,33,-7,-4,0
1523148489328490,2,-4,-1,-1,0,7,5,-3
1523148489328490,-13,1,-1,-8,3,-4,-4,-1
1523148489336597,1,4,8,12,21,1,3,1
1523148489336597,4,-1,-2,12,-3,0,0,0
1523148489352053,3,2,0,-95,-46,3,2,-2
1523148489352053,-4,-9,-3,95,58,-6,-7,-7
1523148489353057,-4,-1,-4,-45,-23,0,-1,-1
1523148489353057,10,4,-5,17,1,-2,-1,1
1523148489367184,-4,4,0,-68,-41,5,3,2
1523148489367184,2,1,-10,46,38,-5,-4,0
1523148489368097,-35,12,2,-12,-36,-5,-3,-13
1523148489368097,73,-9,-6,28,7,-4,-4,3
1523148489389739,-4,-7,-6,-19,8,-6,0,9
1523148489389739,-3,1,0,-22,-30,-1,-1,-6
1523148489391160,-1,-5,-4,34,6,-1,-2,2
1523148489391160,-27,5,-5,-25,-15,-2,-2,0
1523148489412301,-10,3,1,-20,-5,1,-1,-7
1523148489412301,1,-9,-1,48,29,-2,-4,1
1523148489413717,4,-3,1,-33,-16,-1,-2,2
1523148489413717,-17,-1,4,-5,-15,2,1,-3
1523148489425747,28,3,0,30,36,2,2,0
1523148489425747,-2,4,5,-4,-16,-8,-2,-2
1523148489434773,-3,-3,1,-18,-7,6,3,-5
1523148489434773,-10,0,-1,-8,-14,1,1,0
1523148489449851,24,3,-8,-22,7,-6,-7,-8
1523148489449851,21,-4,-7,8,-2,-2,-2,4
1523148489451318,6,1,-1,5,19,2,3,-4
1523148489451318,4,-9,8,-29,-15,-4,-2,6
1523148489472403,-46,1,0,15,32,0,-3,-8
1523148489472403,-48,-10,6,2,-40,-4,7,-5
1523148489473877,25,9,-8,-27,-12,0,-7,8
1523148489473877,-4,5,1,5,12,0,0,-4
1523148489485909,-4,-3,1,-2,-11,1,-1,-4
1523148489485909,-8,-14,-4,22,12,3,1,-1
1523148489494934,-14,-21,-6,18,3,-10,-6,-30
1523148489494934,71,12,5,28,4,4,1,27
1523148489509558,-14,-4,-6,-31,-15,-5,0,0
1523148489509558,9,-3,-3,29,11,-2,-5,5
1523148489511505,8,-10,5,-3,-12,4,3,-2
1523148489511505,-12,-1,-8,-7,-25,0,-3,-9
1523148489532123,-2,-8,8,18,32,-6,-5,-3
1523148489532123,-9,4,0,-35,-10,5,1,2
1523148489533535,2,6,0,0,10,0,2,-2
1523148489533535,1,13,-9,-8,-6,-4,-5,-11
1523148489545654,-13,-14,1,16,-2,4,14,7
1523148489545654,16,7,0,-31,-3,0,-9,10
1523148489554591,10,-18,-5,0,4,-1,0,7
1523148489554591,8,18,-4,0,5,0,0,5
1523148489569718,58,14,2,10,-14,-4,-7,-29
1523148489569718,-4,-8,-19,-3,5,-4,5,31
1523148489571136,15,10,0,-25,-12,-4,-13,-1
1523148489571136,-70,11,4,12,9,-1,0,-24
1523148489592277,60,9,-9,20,2,3,2,10
1523148489592277,-41,-7,2,-25,-11,-3,-2,-43
1523148489593697,29,-8,-1,-18,-9,3,5,40
1523148489593697,19,-3,8,8,9,-5,-5,7
1523148489614752,3,28,12,19,-2,6,14,9
1523148489614752,22,-4,4,-21,-6,-1,-15,-25
1523148489616257,-118,-8,-13,-3,-4,-7,-16,-59
1523148489616257,25,-17,-4,13,12,-4,-4,-1
1523148489629874,19,-13,-11,-7,-8,1,4,32
1523148489629874,13,25,8,-4,0,5,13,12
1523148489631297,14,13,4,6,4,2,-1,11
1523148489631297,-34,-20,-7,2,0,-3,-6,-13
1523148489651850,-23,-1,-3,1,-3,-2,-3,-5
1523148489651850,11,5,3,-1,-1,1,8,11
1523148489653855,1,6,3,1,1,2,-3,4
1523148489653855,-10,-8,1,-7,-2,0,1,-6
1523148489665983,9,-11,-6,11,1,-2,-5,2
1523148489665983,-9,11,-8,-7,-6,-5,-6,7
1523148489674913,13,-25,-3,-7,-2,-2,3,4
1523148489674913,6,4,6,-30,-6,4,4,11
1523148489689536,-26,-8,0,37,5,-6,-11,-11
1523148489689536,14,3,2,-14,-3,4,2,-3
1523148489691457,3,8,-4,48,38,1,5,2
1523148489691457,-23,-7,-7,-12,-1,-10,-4,1
1523148489712011,-27,-4,5,-104,-44,12,4,-7
1523148489712011,-3,-11,-16,53,12,-14,-9,-11
1523148489718027,4,12,17,14,-6,11,12,12
1523148489718027,17,-2,-4,-46,-15,5,3,-3
1523148489725633,-13,-6,-2,62,54,-11,-12,-9
1523148489725633,-7,2,2,-91,-53,7,4,8
1523148489734572,19,5,0,0,12,-5,-2,0
1523148489734572,-4,1,-1,49,5,1,1,-11
1523148489749709,-21,-5,0,-1,-24,6,2,-7
1523148489749709,6,7,2,-10,3,-2,-2,1
1523148489751114,0,1,1,-21,-17,-3,-1,-4
1523148489751114,-7,-6,0,37,19,-4,-5,-3
1523148489772170,5,-7,-2,-33,-7,1,2,-12
1523148489772170,5,-6,10,45,24,1,-7,6
1523148489773674,-11,1,6,-30,-15,2,1,-3
1523148489773674,8,15,0,26,12,-3,-3,5
1523148489785708,-13,-14,-1,-4,-9,-2,0,-1
1523148489785708,10,-4,7,-12,-4,3,4,-1
1523148489794734,-12,2,-2,-10,9,-4,0,1
1523148489794734,-19,-3,0,-8,1,5,1,9
1523148489810024,1,8,3,38,23,-5,-3,2
1523148489810024,1,-6,-3,-25,-32,2,0,-1
1523148489811496,-17,0,2,-26,-15,0,-1,2
1523148489811496,-6,4,-12,42,14,-2,-2,-9
1523148489832482,-9,4,-3,-29,-21,-1,-3,3
1523148489832482,8,-5,14,5,16,4,4,5
1523148489834068,6,-4,-6,-24,-19,-1,0,-4
1523148489834068,-20,-21,-1,51,32,-9,-7,-4
1523148489846092,17,14,-2,-7,-13,-4,-1,-1
1523148489846092,-1,1,-5,1,38,2,3,9
1523148489854890,4,7,2,-23,-27,-3,-3,-7
1523148489854890,-5,-9,-1,14,10,2,-2,1
1523148489870026,-17,-7,-1,5,-7,-1,-2,7
1523148489870026,2,-8,-5,-42,-11,-3,0,-8
1523148489871435,5,-4,-4,50,19,-1,-4,1
1523148489871435,14,2,1,-37,-9,2,1,7
1523148489892123,-15,-7,-3,13,10,-2,-3,-5
1523148489892123,3,6,1,-31,-31,4,2,-1
1523148489894042,-11,-8,-10,14,23,-6,-1,-1
1523148489894042,10,8,2,-16,-18,-2,-7,-4
1523148489906053,-8,3,3,-11,1,-1,-3,-14
1523148489906053,-3,1,5,25,21,-1,0,3
1523148489922572,-1,-5,-3,-16,-20,-1,2,1
1523148489922572,-2,-2,-1,23,-6,-2,2,-1
1523148489929634,-6,-2,-9,-68,-10,0,1,-1
1523148489929634,3,2,-2,-11,8,-3,-5,-5
1523148489931101,22,9,2,51,12,-3,-3,-7
1523148489931101,1,4,2,-94,-52,6,8,13
1523148489952154,-4,-6,1,87,49,-6,-6,1
1523148489952154,-11,-5,-4,5,-30,-4,-3,-7
1523148489953655,7,0,-1,1,14,0,0,5
1523148489953655,-9,-4,-3,-50,-2,1,2,-4
1523148489965722,1,1,-2,-13,-24,2,1,4
1523148489965722,-2,-11,2,52,26,-5,-3,-1
1523148489974711,10,4,-7,-38,-16,1,1,0
1523148489974711,-25,3,-1,6,4,2,0,-8
1523148489989754,11,-5,1,18,-2,-7,-4,5
1523148489989754,-12,-3,0,24,6,-4,-2,-9
1523148489991255,-17,-6,-1,1,6,3,-1,-3
1523148489991255,4,-6,-2,-15,-2,-2,1,-1
1523148490012309,2,2,-4,-9,-9,2,-1,0
1523148490012309,-10,0,-6,-9,-12,-3,-3,-1
1523148490013814,-5,-4,0,8,1,-1,-2,-3
1523148490013814,3,-6,4,9,1,-2,0,-1
1523148490025916,0,0,4,3,2,2,0,-3
1523148490025916,-9,1,-3,14,2,-1,-3,-2
1523148490034870,-1,-7,-4,-16,-8,-3,-1,-2
1523148490034870,1,0,-11,14,6,-1,-2,-5
1523148490049486,8,2,-5,2,-1,-2,-2,7
1523148490049486,3,-2,4,-8,2,0,1,4
1523148490051414,41,21,0,0,-4,2,9,-3
1523148490051414,-28,-42,-7,-2,-6,-5,-7,14
1523148490072038,6,-6,0,0,0,-1,1,3
1523148490072038,-37,-2,-2,-2,-5,0,-8,-21
1523148490073974,4,-47,0,4,3,4,15,-1
1523148490073974,49,37,6,2,-2,-2,3,-4
1523148490085542,-55,-44,-19,-19,-8,-9,-26,-21
1523148490085542,42,-2,3,3,0,-4,-5,-10
1523148490094529,-18,3,0,1,-2,-1,-2,-10
1523148490094529,-6,-27,-5,-1,2,1,6,-8
1523148490109569,-32,43,-8,-3,-4,0,12,19
1523148490109569,13,39,0,-1,1,0,1,-3
1523148490111072,-10,3,2,-1,-1,-1,-4,4
1523148490111072,27,5,2,2,0,0,2,9
1523148490132204,8,7,2,1,0,0,-1,-6
1523148490132204,0,-11,1,10,1,1,-2,4
1523148490133636,-2,12,3,-3,-1,-2,-4,8
1523148490133636,-3,4,0,1,1,-4,-6,1
1523148490145700,15,-5,3,1,-2,-1,1,-4
1523148490145700,-10,-8,-6,-5,0,0,1,2
1523148490154689,4,-8,-2,0,-4,-4,-6,4
1523148490154689,-8,5,-1,-27,-8,1,-2,-11
1523148490169728,3,-3,9,19,2,1,2,-2
1523148490169728,49,-13,-5,47,-1,1,3,10
1523148490171233,-29,4,-11,-12,-1,-7,-8,-4
1523148490171233,-1,6,-5,-27,-13,-2,-3,-1
1523148490192291,14,7,7,-6,23,2,5,5
1523148490192291,3,-4,3,-1,-12,-1,-2,4
1523148490193794,2,-2,-16,-57,-26,-3,-4,-3
1523148490193794,-6,1,3,27,22,-4,-2,-2
1523148490214883,-20,-6,5,-10,-23,10,6,5
1523148490214883,1,3,-2,29,41,-10,-6,-7
1523148490216353,-3,-2,3,47,10,-2,-4,0
1523148490216353,-5,-5,-4,-34,-18,1,2,2
1523148490229888,2,0,-1,9,0,-2,0,-3
1523148490229888,-6,-2,2,-42,-18,3,3,2
1523148490231394,2,1,5,29,11,-2,-3,-1
1523148490231394,4,-4,-2,0,-5,-1,0,-2
1523148490251949,20,-5,-2,23,10,-4,-4,0
1523148490251949,-20,-2,-4,0,0,0,0,-1
1523148490253952,4,1,2,-30,-12,2,1,0
1523148490253952,5,0,-3,-43,-43,-1,1,-2
1523148490274508,-26,-4,-1,55,59,-8,-5,-6
1523148490274508,-24,-1,-1,-12,6,3,0,0
1523148490276538,-17,5,6,-39,-26,3,1,2
1523148490276538,-2,19,-3,41,38,-4,-6,-4
1523148490289617,9,-7,-2,-42,-26,0,3,1
1523148490289617,-3,-1,-4,-6,-6,-1,-1,-1
1523148490291052,-7,1,3,6,3,-1,-1,-5
1523148490291052,1,3,3,8,1,1,-3,-4
1523148490312188,7,1,-6,21,-13,0,2,0
1523148490312188,-14,-10,-1,-16,15,2,2,0
1523148490313611,7,-24,-3,-16,-20,-2,-2,-3
1523148490313611,7,-1,-2,-59,-16,0,1,2
1523148490334668,10,3,4,62,25,-7,-6,-4
1523148490334668,-2,-14,0,-2,-8,-1,1,3
1523148490336171,1,6,-4,-22,-12,-1,-3,-1
1523148490336171,22,-6,2,33,38,0,0,1
1523148490349240,-12,-4,-3,-60,-40,2,4,1
1523148490349240,7,8,-8,-27,-11,-6,-6,-7
1523148490355801,6,5,0,-12,9,1,1,1
1523148490355801,8,0,5,70,1,0,0,-2
1523148490372333,1,5,-3,-37,-12,-3,-3,-4
1523148490372333,3,-1,-2,13,1,-4,-3,-2
1523148490373771,10,3,-2,-22,2,2,1,2
1523148490373771,0,-9,-3,-6,7,-2,-1,-1
1523148490395010,-21,-9,-4,13,8,-1,-2,-4
1523148490395010,-1,3,-6,-20,2,-3,-1,-3
1523148490396562,15,5,3,-15,0,1,1,-1
1523148490396562,-27,-4,-9,2,-2,-6,-4,-8
1523148490409096,8,0,-1,-8,-8,-2,-1,8
1523148490409096,7,-1,1,-68,-32,6,5,8
1523148490416114,-16,-5,-6,108,52,-5,-4,-6
1523148490416114,28,2,0,3,-5,-1,-3,1
1523148490432463,15,25,0,-49,-30,2,2,1
1523148490432463,-3,-20,-11,12,25,-6,-4,-4
1523148490433931,-1,3,2,20,-4,-2,-1,1
1523148490433931,-10,-5,-5,-46,-39,3,1,2
1523148490454488,-22,-3,3,-5,37,-2,-4,-4
1523148490454488,37,7,5,55,4,-4,-4,-2
1523148490455991,8,-1,-3,4,8,-4,-2,1
1523148490455991,-13,-1,1,12,-5,-3,-3,-3
1523148490469025,-5,-3,-2,-54,-34,5,4,2
1523148490469025,-19,-3,0,8,-5,-1,-1,-2
1523148490476070,-7,-6,-1,25,15,-3,-5,-2
1523148490476070,4,0,4,0,9,1,0,0
1523148490492155,14,5,-4,-23,-20,-1,-1,-3
1523148490492155,-6,-3,-5,24,9,-1,-3,-2
1523148490493589,-4,0,-3,4,-5,-5,-3,-4
1523148490493589,4,1,-1,-38,-14,2,2,4
1523148490514719,-15,-7,0,7,17,1,0,-2
1523148490514719,-14,1,4,-5,-6,2,1,-8
1523148490516153,2,8,0,-53,-36,3,2,7
1523148490516153,-13,-21,-1,69,45,-4,-3,-5
1523148490529209,16,-2,-5,17,2,-3,-4,-3
1523148490529209,-1,3,-9,-3,-11,-1,0,4
1523148490535703,-11,-4,5,-21,-11,-1,-3,-10
1523148490535703,-10,5,6,-3,1,1,0,1
1523148490552249,-1,-4,5,-4,-2,1,1,-4
1523148490552249,51,17,0,-3,1,1,3,-1
1523148490553750,27,-28,-3,6,3,0,0,3
1523148490553750,-2,7,1,0,4,3,7,9
1523148490574857,50,29,-10,-1,-6,-2,-5,-5
1523148490574857,-35,-49,-11,-9,-3,2,-3,-31
1523148490576312,-49,0,4,9,11,-7,-9,1
1523148490576312,9,15,8,-3,-11,0,1,16
1523148490588910,-12,-26,0,4,4,-1,1,-30
1523148490588910,11,-33,-9,1,0,-1,-1,24
1523148490595931,4,8,5,-7,0,4,6,-8
1523148490595931,33,2,1,2,3,1,6,32
1523148490611975,-53,-20,-14,2,-4,-7,-17,-74
1523148490611975,-1,-9,9,-4,-4,-1,0,12
1523148490613912,11,-2,-8,-1,-5,-1,-1,0
1523148490613912,-18,0,1,1,-1,-1,3,6
1523148490634467,-26,-1,1,7,1,-2,5,32
1523148490634467,-10,13,6,-3,-5,-1,-3,-8
1523148490636470,-23,9,-2,0,2,0,0,-5
1523148490636470,-11,-6,-3,-1,0,-1,-2,-20
1523148490649076,16,-10,-1,-1,-2,0,-3,26
1523148490649076,-5,14,3,-3,-3,-5,-3,-4
1523148490656050,-7,2,-3,-1,3,5,5,8
1523148490656050,16,1,-5,-4,-5,-5,-10,-22
1523148490672134,19,-5,-2,-3,1,1,0,14
1523148490672134,-25,22,9,11,1,0,1,2
1523148490673569,16,3,1,-4,-8,-2,-1,-1
1523148490673569,-17,-6,-8,-1,-1,3,1,-8
1523148490694694,33,11,2,18,10,0,2,10
1523148490694694,8,7,6,-7,0,2,4,7
1523148490696130,0,-2,-3,54,16,-6,-5,-4
1523148490696130,-12,1,6,-81,-20,7,1,-4
1523148490708162,0,-2,-1,95,38,-3,1,8
1523148490708162,0,6,1,-39,-2,-2,-1,-1
1523148490717186,2,1,3,-84,-38,3,1,0
1523148490717186,-7,-2,-4,-12,20,-3,-5,-5
1523148490732299,-2,-2,-4,-53,-38,-2,-1,2
1523148490732299,-12,-1,-1,12,6,0,-1,-3
1523148490733730,4,1,-2,32,9,-4,-4,-1
1523148490733730,-4,-4,-1,-5,-12,-4,-2,-4
1523148490755313,-6,-3,2,-14,-2,1,0,2
1523148490755313,11,6,-7,14,-5,-4,-5,-6
1523148490756791,-1,-4,-1,-20,1,2,2,0
1523148490756791,4,2,-3,17,2,-2,-4,-3
1523148490768323,-53,-5,2,-11,-10,0,-2,-1
1523148490768323,-26,24,1,43,19,-4,-6,-5
1523148490777345,6,-1,0,-17,-8,1,2,1
1523148490777345,-22,-2,-1,51,13,-3,-2,-3
1523148490792002,-6,-6,3,-52,-9,4,0,1
1523148490792002,7,-3,-8,-10,-8,0,0,3
1523148490793506,6,10,13,-14,-6,0,0,-2
1523148490793506,-23,-11,-16,25,-13,-5,-2,-3
1523148490814635,30,11,0,-24,10,-3,-1,4
1523148490814635,-4,16,1,30,-14,3,2,-2
1523148490816065,-18,-7,-6,9,11,-4,-3,-2
1523148490816065,-18,-8,11,-24,-17,2,1,0
1523148490828167,7,2,4,18,7,0,1,1
1523148490828167,13,-9,-3,-21,-3,-2,0,0
1523148490837123,3,-3,-5,65,16,-4,-5,-1
1523148490837123,30,5,-2,-89,-39,1,2,2
1523148490852164,-7,-6,-11,61,-6,-3,-1,-5
1523148490852164,-11,-9,6,11,40,-5,-3,-1
1523148490853666,3,1,-4,-33,-29,3,1,2
1523148490853666,29,-7,5,63,45,-6,-8,-3
1523148490874791,5,10,0,-19,-14,1,1,9
1523148490874791,9,-6,-1,-36,-19,1,4,-1
1523148490876226,3,0,-3,16,11,-2,-2,0
1523148490876226,-9,-7,-6,-30,-17,-2,-2,-3
1523148490888326,30,1,3,11,-11,0,0,1
1523148490888326,-33,8,3,25,14,-1,-3,2
1523148490897282,-9,-4,-4,-22,-1,0,-1,-4
1523148490897282,-6,10,5,75,40,1,-1,-3
1523148490912322,0,-5,-5,-16,-3,1,0,-2
1523148490912322,4,-7,-5,-49,-34,1,3,2
1523148490913826,2,-2,-2,-8,-4,-4,-3,-5
1523148490913826,-8,2,-4,-8,11,1,0,0
1523148490934556,-1,-6,-1,33,19,0,-3,-2
1523148490934556,10,-6,3,34,19,-1,1,-1
1523148490936058,10,-2,-4,13,-1,3,1,2
1523148490936058,-12,-6,-4,-26,-28,0,1,-3
1523148490948163,-16,-1,3,-46,4,1,-1,-4
1523148490948163,22,2,-2,-11,-30,-1,-1,2
1523148490957114,8,-1,-1,19,32,-1,-2,1
1523148490957114,6,-1,1,14,2,-1,0,-1
1523148490972224,5,15,-2,-51,-8,-2,0,-4
1523148490972224,12,-10,-4,-75,-79,4,3,-1
1523148490973659,-11,-10,-7,106,71,-13,-11,-8
1523148490973659,3,9,-6,-44,2,-7,-5,-2
1523148490994774,-13,-40,-4,-23,-8,-1,-2,2
1523148490994774,-1,0,-2,-21,0,-2,-2,-1
1523148491000731,-3,1,3,-2,-7,2,0,-2
1523148491000731,2,4,1,9,0,1,1,2
1523148491008263,-29,-4,2,15,-2,-2,0,-13
1523148491008263,15,-1,-1,20,21,-1,-2,8
1523148491017274,-10,-15,-5,-33,-26,1,1,-2
1523148491017274,-9,-6,0,7,0,-3,-4,-4
1523148491032488,6,8,5,7,-5,0,1,-1
1523148491032488,-4,-3,-1,-2,6,0,-2,-3
1523148491033819,-26,8,4,2,-2,2,3,2
1523148491033819,14,1,-3,-1,-1,1,-2,2
1523148491054963,18,5,-3,9,2,-4,-3,1
1523148491054963,11,-9,3,18,15,0,-2,7
1523148491056379,14,-2,-14,-35,-16,0,2,12
1523148491056379,7,24,18,9,-2,0,-4,-16
1523148491068330,17,0,-6,11,4,-2,-2,16
1523148491068330,57,52,-1,0,9,0,2,12
1523148491077161,-48,-41,-8,-22,-15,1,3,-27
1523148491077161,-45,0,-1,7,-3,-3,4,-20
1523148491092393,21,-3,-8,-1,-2,-3,-12,48
1523148491092393,4,-3,-4,5,3,-2,4,-32
1523148491093704,12,20,-3,-10,-3,0,-4,34
1523148491093704,-81,-20,-8,-4,-2,-4,-6,-57
1523148491114959,12,-32,0,7,1,0,-8,2
1523148491114959,-14,6,1,2,1,-2,-1,0
1523148491116263,36,5,1,-13,-9,-2,-5,10
1523148491116263,-1,-16,-7,1,-1,1,6,-8
1523148491128490,-23,3,-3,-2,-2,-2,-1,-10
1523148491128490,-6,-1,-5,3,1,-3,-2,11
1523148491137320,9,2,8,-14,-5,-1,1,-25
1523148491137320,17,2,2,0,-1,-3,-1,19
1523148491152111,5,22,8,8,4,2,4,-7
1523148491152111,-21,-16,-2,-2,1,1,0,-3
1523148491153614,21,8,0,-5,-6,0,1,3
1523148491153614,-36,1,-4,2,-2,-1,-6,13
1523148491174863,-10,-4,-1,0,-3,-6,-2,-17
1523148491174863,-20,-13,-1,0,4,1,1,-1
1523148491176175,24,2,2,-6,-2,2,-1,-1
1523148491176175,13,10,-1,-14,-11,3,-2,14
1523148491197428,13,-2,-4,-38,-8,-3,3,-13
1523148491197428,-18,-7,0,93,36,-8,-9,-8
1523148491198734,8,12,5,-34,-29,6,3,3
1523148491198734,23,-12,-9,13,37,-6,-6,6
1523148491212446,-16,6,5,19,13,-3,0,-5
1523148491212446,12,1,-5,-112,-63,5,1,0
1523148491213774,-21,-8,-6,61,6,-8,-6,-6
1523148491213774,10,-3,-4,-2,10,-1,0,8
1523148491234967,-25,-3,1,26,10,-6,-2,-8
1523148491234967,-8,-3,3,-6,-5,4,-1,6
1523148491236334,-6,0,-3,-57,-15,-4,0,-8
1523148491236334,37,-1,2,-6,-3,5,2,9
1523148491257305,-4,2,0,-21,-2,0,-2,-5
1523148491257305,6,-3,3,21,1,2,0,-2
1523148491259116,7,-6,-12,52,24,-9,-7,-6
1523148491259116,-3,18,-1,10,-7,-1,1,14
1523148491271148,21,0,1,-20,-4,3,1,-8
1523148491271148,-16,-4,-4,-5,1,-1,0,-3
1523148491279671,-6,-5,1,10,9,3,3,-2
1523148491279671,4,-4,1,-6,-9,-1,-3,6
1523148491294910,-22,-1,-3,-46,-24,0,2,-2
1523148491294910,-5,-5,-5,26,23,-9,-7,-2
1523148491296216,-3,5,2,-29,-5,-4,-1,-5
1523148491296216,11,0,9,2,9,4,3,-2
1523148491317272,-12,-2,-15,11,-26,1,2,1
1523148491317272,12,25,6,31,20,-3,-1,-5
1523148491318776,6,0,1,-1,13,0,-2,4
1523148491318776,-2,-5,-3,-10,-14,1,1,9
1523148491331465,17,-3,5,-8,-2,4,3,3
1523148491331465,-15,2,-2,-50,-1,-6,-3,-6
1523148491338327,-3,2,7,55,2,3,0,0
1523148491338327,0,-14,-7,3,10,-1,1,-1
1523148491354876,13,16,2,12,8,0,-1,1
1523148491354876,-11,-56,-10,-15,-23,-4,-4,-1
1523148491356376,-9,2,8,-37,5,-1,-1,1
1523148491356376,7,-10,-2,51,-11,-3,-3,-3
1523148491377431,13,-2,-9,3,22,-6,0,-6
1523148491377431,19,2,0,-49,-39,5,0,7
1523148491378936,-15,-13,3,80,30,-3,-3,-1
1523148491378936,-20,-5,9,3,-7,-7,-5,-7
1523148491391468,-6,20,-2,-14,-13,-1,2,-6
1523148491391468,20,14,0,-10,2,2,5,-1
1523148491398551,-13,-35,-1,6,16,-1,-6,-1
1523148491398551,11,14,-5,-3,-10,4,0,1
1523148491414691,17,-9,1,-40,-11,-1,1,7
1523148491414691,-6,6,-2,20,8,-4,-4,-3
1523148491416034,-11,57,2,21,1,-3,0,-2
1523148491416034,3,-16,-7,-110,-35,-1,1,-9
1523148491437090,-17,-12,4,107,48,-4,-3,6
1523148491437090,-73,-12,-3,9,-2,4,2,-2
1523148491438596,20,-2,7,-17,-20,3,2,3
1523148491438596,6,6,2,-10,2,-4,-3,0
1523148491451629,-7,7,1,-13,-15,1,0,-4
1523148491451629,5,-4,-7,24,44,-5,-2,-3
1523148491458302,-9,-8,-1,-11,-32,0,3,8
1523148491458302,1,0,0,-5,-4,0,-3,5
1523148491474847,-12,14,0,-6,12,4,1,-2
1523148491474847,42,1,0,16,-10,-4,1,3
1523148491476195,18,-8,-7,-30,8,-4,-2,-1
1523148491476195,26,-14,16,56,16,-2,0,-7
1523148491497477,-10,5,-2,8,1,2,-2,6
1523148491497477,-16,2,0,-23,-12,-2,-2,4
1523148491498989,9,0,0,-33,-15,2,2,0
1523148491498989,-7,7,-9,-7,4,-1,0,-2
1523148491511805,10,-29,2,26,-7,2,-2,-8
1523148491511805,-16,29,14,18,16,2,1,-2
1523148491518307,37,1,-8,-4,-9,-2,-1,7
1523148491518307,-32,-34,-5,16,8,1,2,-2
1523148491534870,-8,-6,-16,-29,-14,-3,-5,3
1523148491534870,-21,-15,-7,3,0,1,-1,-15
1523148491536355,49,28,-5,-12,-3,-3,-2,6
1523148491536355,-10,18,-3,-4,-2,1,4,51
1523148491557641,-23,-5,3,-5,-7,-6,-6,-41
1523148491557641,22,-10,-4,-4,-7,-4,-5,-8
1523148491559532,-49,-41,-15,-6,-3,-6,-10,22
1523148491559532,14,20,4,-4,-5,3,15,-15
1523148491571890,-22,14,12,-5,0,-4,-5,16
1523148491571890,6,6,1,6,1,-2,-5,12
1523148491585930,4,-44,9,-18,-11,1,3,-14
1523148491585930,-20,12,-19,-3,0,-6,-9,-23
1523148491594662,1,-13,-1,5,3,0,1,10
1523148491594662,22,-9,-5,-4,-3,1,8,-22
1523148491596615,-11,15,6,-7,-2,3,1,32
1523148491596615,4,16,3,4,3,1,-1,4
1523148491617014,12,25,1,4,1,0,-2,1
1523148491617014,13,-31,-5,-8,-7,-2,-1,6
1523148491618518,-45,4,-4,-3,-1,-1,2,-19
1523148491618518,-24,-8,4,3,1,-2,-10,-10
1523148491631552,-12,1,7,-2,2,5,20,-1
1523148491631552,41,-4,-15,-25,-24,-6,-22,20
1523148491638265,-9,0,1,35,26,-6,-8,-25
1523148491638265,20,5,-2,-40,-15,1,0,-10
1523148491654772,-10,-6,2,45,17,-6,-3,5
1523148491654772,-30,-1,3,-19,-5,5,8,-21
1523148491656118,4,-4,0,-33,-30,3,3,12
1523148491656118,-39,14,-8,27,17,-9,-7,-12
1523148491677334,17,-5,-5,7,1,-12,-9,0
1523148491677334,-7,12,8,-8,-1,13,9,8
1523148491678680,-2,24,2,-36,-18,9,7,-10
1523148491678680,29,-53,-3,57,6,8,-1,3
1523148491690710,-10,-8,-5,5,16,-11,-6,8
1523148491690710,-9,13,4,21,4,-8,0,-2
1523148491699733,9,21,5,-101,-23,11,4,1
1523148491699733,-18,-6,-11,69,16,-9,-6,-8
1523148491714893,9,3,2,27,-4,12,7,-15
1523148491714893,2,-10,-8,-5,5,-14,-12,8
1523148491716278,-35,-28,4,-9,-20,-3,-2,-11
1523148491716278,16,4,1,-5,-8,-1,0,3
1523148491737363,4,-9,-7,-9,13,-2,-5,-8
1523148491737363,-82,14,0,-44,-15,3,3,-5
1523148491738838,-38,-25,-3,123,55,-5,-1,-15
1523148491738838,2,-3,5,-53,-43,1,-8,3
1523148491750870,-11,11,0,-21,-21,2,1,5
1523148491750870,-1,13,-8,-14,16,-1,-1,-10
1523148491759921,1,15,-1,-48,-29,-3,-4,-8
1523148491759921,-1,-14,-1,15,3,-5,1,-2
1523148491774959,20,-12,-2,-29,11,-1,-3,1
1523148491774959,-1,2,2,20,-4,3,-1,-10
1523148491776535,13,9,7,7,-5,3,2,-4
1523148491776535,5,7,-18,-1,32,-12,-7,-2
1523148491797495,1,5,-4,-82,-40,4,2,7
1523148491797495,6,-8,1,72,23,0,-2,-6
1523148491799030,-43,18,-10,23,3,-7,-4,-7
1523148491799030,9,-1,11,-41,-17,6,4,20
1523148491810653,5,-5,-2,-9,-17,-1,-2,-3
1523148491810653,26,17,1,7,-4,-5,-4,-7
1523148491819553,26,1,-6,7,17,-8,-7,2
1523148491819553,-3,-1,9,43,-1,-2,0,3
1523148491834716,-2,2,-5,4,0,-1,3,8
1523148491834716,12,10,2,-112,-49,8,7,16
1523148491836099,-4,-25,-16,70,55,-8,-4,-6
1523148491836099,5,19,7,-31,5,0,-3,-11
1523148491857276,5,-25,-1,-10,-28,7,4,-2
1523148491857276,-1,-9,-6,31,40,-7,-3,-4
1523148491858656,10,2,1,24,-3,2,1,6
1523148491858656,-46,-17,-5,-13,-3,1,3,-11
1523148491870689,20,54,8,-2,-13,0,2,2
1523148491870689,-2,-20,-8,-7,-4,0,-3,4
1523148491879712,-7,-3,7,-43,-14,-1,-3,-1
1523148491879712,27,29,4,17,7,-4,4,3
1523148491894885,-2,-10,2,16,17,2,-2,7
1523148491894885,14,18,1,-53,-17,-2,-2,4
1523148491896257,14,1,-3,17,27,1,-1,3
1523148491896257,11,0,5,20,-25,0,1,2
1523148491917410,-3,-5,-4,-53,-16,0,2,-6
1523148491917410,0,-14,-6,81,25,-11,-10,-10
1523148491918818,3,-11,-6,-23,-9,-1,-1,2
1523148491918818,14,-8,-4,-35,4,-3,-3,0
1523148491930884,-44,6,7,32,6,5,2,-8
1523148491930884,-11,-25,-3,25,2,2,3,-5
1523148491939873,-23,17,5,-37,-25,3,1,7
1523148491939873,-5,-10,-8,-26,-6,-6,-2,-11
1523148491954437,4,-12,1,86,23,-3,-6,-3
1523148491954437,1,-5,1,16,-15,2,3,-15
1523148491956418,-13,6,4,1,5,1,1,13
1523148491956418,10,7,0,-24,-18,3,1,4
1523148491977023,10,-19,-2,-13,7,-3,-2,4
1523148491977023,-19,-8,12,-11,-14,5,5,-1
1523148491978984,37,-59,-13,-11,4,-11,-7,-5
1523148491978984,6,6,-20,-2,-3,6,0,0
1523148491991015,24,2,0,39,27,-8,-6,-3
1523148491991015,2,-3,2,-7,-2,2,1,11
1523148491999532,4,17,-15,-56,-38,3,4,-6
1523148491999532,-5,-5,12,61,38,-2,-4,-1
1523148492014600,-25,-22,-12,-12,2,-2,1,-6
1523148492014600,-12,8,3,-10,-8,0,-2,3
1523148492016103,65,20,1,9,0,1,0,-1
1523148492016103,-2,3,1,-15,6,2,-1,-3
1523148492037228,-11,0,-8,-20,-20,-2,0,0
1523148492037228,-28,1,6,24,20,1,-1,2
1523148492038666,-7,9,3,-7,-13,0,2,-1
1523148492038666,0,-7,6,-2,4,3,3,7
1523148492050697,-13,-5,3,-3,0,-3,-4,-7
1523148492050697,46,7,2,-19,-9,-2,-2,8
1523148492059718,-18,-1,4,22,8,-1,-3,-6
1523148492059718,-16,-1,-12,-12,-9,-2,-1,-7
1523148492074828,21,23,2,-6,1,-3,-2,8
1523148492074828,-8,-51,-15,19,8,6,4,7
1523148492076266,-49,19,2,9,-4,-3,-2,-5
1523148492076266,52,-1,12,5,2,-1,1,12
1523148492097361,67,33,-23,-28,-16,-5,0,1
1523148492097361,-10,19,6,-2,4,-2,-7,0
1523148492098824,-47,-20,6,2,-2,-4,-7,-14
1523148492098824,49,13,-25,-30,-15,-7,-7,10
1523148492119908,-36,2,7,0,1,-1,1,-16
1523148492119908,-46,-22,-15,14,2,-1,-7,-24
1523148492121383,75,-12,8,2,3,3,5,27
1523148492121383,-15,38,4,-45,-19,-11,-12,-16
1523148492133934,-67,-42,-12,12,0,-1,-4,-5
1523148492133934,3,3,5,-11,2,-2,2,5
1523148492142441,1,-20,-9,14,3,6,5,-4
1523148492142441,-1,0,1,5,2,0,2,-4
1523148492156986,22,-6,17,7,2,-3,-1,12
1523148492156986,-12,-11,2,-1,0,3,7,10
1523148492158482,-23,14,-7,4,5,1,0,-4
1523148492158482,4,-1,-4,4,0,4,4,3
1523148492179774,-3,-11,-6,-2,1,2,-1,-3
1523148492179774,14,23,-7,-11,-5,-5,-4,1
1523148492181609,-15,5,3,7,0,-1,-3,-11
1523148492181609,-55,-21,-2,10,1,6,6,5
1523148492194791,-18,-9,10,0,1,4,1,-3
1523148492194791,22,17,2,-5,-5,-7,-5,-2
1523148492196621,43,11,-4,-10,-3,-2,0,0
1523148492196621,3,-12,4,0,-3,0,-4,-7
1523148492217137,2,5,-7,-27,-9,4,1,0
1523148492217137,-11,8,12,28,13,-3,-2,-2
1523148492218641,-4,-7,-7,47,8,-9,-7,-5
1523148492218641,-8,-12,9,-28,-13,6,3,0
1523148492239929,13,4,-4,36,-3,0,1,0
1523148492239929,16,-1,-2,54,32,-8,-8,-2
1523148492241202,-8,0,7,-40,-14,4,4,3
1523148492241202,-13,-9,-2,-32,-14,1,2,0
1523148492253995,1,0,-3,20,18,-3,-1,2
1523148492253995,19,11,2,-43,-48,6,3,0
1523148492260489,-4,-5,-9,87,34,-17,-12,-9
1523148492260489,-45,3,-1,32,9,-2,-2,-5
1523148492277257,6,-21,9,-10,28,5,2,4
1523148492277257,18,3,0,-15,-13,-1,2,2
1523148492279050,0,5,5,-66,-22,8,9,9
1523148492279050,9,-31,-11,11,-12,-6,-5,-7
1523148492299594,-4,5,-1,-21,-24,-4,-4,-5
1523148492299594,-18,-9,1,24,39,-4,-1,-2
1523148492301098,-15,-6,-1,-5,-11,5,0,-4
1523148492301098,3,-22,-13,-28,4,-3,-4,10
1523148492314221,-37,13,2,43,-3,2,-2,-2
1523148492314221,9,-4,-16,-61,-22,-8,-5,-3
1523148492321150,9,1,0,-31,-1,1,2,2
1523148492321150,-73,-6,-4,7,4,-3,-3,-18
1523148492337415,10,-2,-5,-25,4,-3,-3,-4
1523148492337415,6,-4,2,4,-8,1,2,6
1523148492338700,-37,3,3,51,23,-3,-2,-5
1523148492338700,22,10,8,-12,1,5,3,1
1523148492359965,10,-3,-9,-46,-35,-6,-5,-2
1523148492359965,-15,0,3,30,10,-2,-3,-4
1523148492361258,3,1,-8,-26,-9,-1,-2,1
1523148492361258,56,11,-3,-8,-13,-4,-3,-3
1523148492374010,-2,-7,3,0,11,-4,-3,-4
1523148492374010,25,16,-5,-28,-14,3,3,10
1523148492380809,-18,-32,1,36,3,-2,-3,-2
1523148492380809,9,8,-1,-15,2,-2,-3,5
1523148492397402,3,4,2,26,2,-1,6,-3
1523148492397402,-14,-5,-3,20,3,-1,-10,-9
1523148492398858,5,10,3,-36,-8,2,3,7
1523148492398858,-4,4,6,-17,-11,3,-1,-6
1523148492420439,0,15,7,28,10,-4,-1,-3
1523148492420439,-18,5,1,-12,-6,4,4,1
1523148492421918,-1,14,-5,-69,-16,4,1,-6
1523148492421918,-10,-16,5,34,20,-7,-5,8
1523148492433951,20,6,3,-9,-5,2,-1,6
1523148492433951,5,0,2,-12,-12,2,6,0
1523148492440682,-10,3,-7,0,2,-7,-7,4
1523148492440682,3,3,3,7,10,0,2,-3
1523148492457234,8,2,0,-21,-14,3,-2,0
1523148492457234,17,-6,-1,31,16,-3,1,1
1523148492459044,37,-6,-4,-2,-9,0,0,-2
1523148492459044,14,4,1,8,-8,-4,-2,-1
1523148492479615,-9,-6,-8,-19,-6,-5,-4,-3
1523148492479615,-28,-19,-4,5,-22,4,4,-1
1523148492481119,-6,-3,13,20,65,-5,-6,-5
1523148492481119,2,0,-3,61,-5,-1,-1,-1
1523148492494349,1,9,-1,-7,-4,2,0,3
1523148492494349,22,-6,5,-46,-42,0,1,3
1523148492500671,15,4,1,30,27,1,0,-5
1523148492500671,-19,0,7,3,7,0,-1,-2
1523148492517457,-20,-3,-3,28,4,1,-1,-4
1523148492517457,-3,-2,-9,10,18,-5,-5,-5
1523148492518720,-2,-2,-4,12,-10,-1,-1,-2
1523148492518720,23,-1,-4,-60,-18,1,0,1
1523148492539775,4,-1,0,10,-1,-3,-1,0
1523148492539775,-14,-2,0,17,20,-1,-1,-8
1523148492541279,7,-5,-3,1,-15,1,1,0
1523148492541279,-1,8,-3,-3,6,-1,2,-2
1523148492553552,3,-4,2,-26,-5,-1,-6,10
1523148492553552,-36,-8,-5,26,1,-4,-3,-8
1523148492562335,-10,-2,0,-41,-10,-1,0,-4
1523148492562335,16,-7,-8,45,-5,-3,-4,1
1523148492577521,-24,-15,-22,-13,-14,-3,-1,-8
1523148492577521,-4,5,8,10,21,0,0,-1
1523148492578879,21,3,4,5,-18,1,-2,1
1523148492578879,22,-4,-3,-10,6,-3,-1,-1
1523148492599434,-2,5,-3,-19,-4,-2,-2,-4
1523148492599434,6,-8,6,0,3,1,-1,2
1523148492601440,8,13,-7,-20,-28,-5,-2,-3
1523148492601440,-21,0,-7,30,20,0,-1,3
1523148492613660,7,2,10,-6,2,0,0,0
1523148492613660,-3,-1,-4,-23,-15,0,2,3
1523148492622496,-7,-18,-1,19,6,-6,0,-7
1523148492622496,-53,20,5,-13,-5,3,-1,8
1523148492637034,18,-5,-2,9,8,0,5,9
1523148492637034,11,72,6,-2,6,0,-5,6
1523148492638539,-6,-36,-7,-9,-12,-3,-7,-8
1523148492638539,7,8,-5,-2,-1,-5,-2,-4
1523148492659709,-26,-22,8,-4,3,2,-2,-28
1523148492659709,6,34,-7,-12,2,-3,3,28
1523148492665608,5,18,2,-5,-14,-6,-11,-11
1523148492665608,-58,6,6,-3,4,3,15,-59
1523148492673285,7,1,-12,9,7,0,-10,38
1523148492673285,15,-24,-1,-6,-3,-4,-11,-25
1523148492682156,20,8,-4,0,-1,2,3,17
1523148492682156,4,-22,4,2,2,0,-1,-7
1523148492697866,92,20,-11,-4,1,-1,6,7
1523148492697866,-35,-14,0,-1,4,3,5,-6
1523148492699234,-1,-20,-3,5,-2,0,-1,1
1523148492699234,14,-2,-1,-1,-4,-1,-3,10
1523148492719862,-12,-1,-5,1,-1,-2,2,-4
1523148492719862,20,-12,-1,-4,0,0,-3,4
1523148492721258,-31,7,6,7,4,2,4,-7
1523148492721258,34,0,-4,-37,-17,1,0,9
1523148492733290,-22,-13,-1,38,20,-9,-10,-16
1523148492733290,-2,-17,-2,-13,-16,-4,-2,-11
1523148492742313,-6,13,10,16,3,4,3,1
1523148492742313,1,-13,-6,42,33,-2,-4,9
1523148492757411,30,6,5,-61,-23,6,2,-2
1523148492757411,-11,-14,0,64,20,-2,1,-6
1523148492758858,-12,9,-3,-83,-17,-3,-1,2
1523148492758858,3,-3,3,-46,-36,9,4,10
1523148492779541,-17,-15,-2,115,75,-16,-14,-18
1523148492779541,1,-2,-3,-81,-37,7,4,7
1523148492781419,18,-9,-16,71,16,-6,-5,2
1523148492781419,-7,21,9,42,-5,0,0,-5
1523148492793536,6,1,-2,-84,-27,0,-1,7
1523148492793536,4,-3,2,-23,2,1,-2,0
1523148492802476,-14,12,6,-39,-18,4,5,2
1523148492802476,20,3,1,-5,11,-5,-4,4
1523148492817013,-18,20,2,43,-3,2,0,-6
1523148492817013,9,3,4,-59,-24,5,5,7
1523148492818516,-1,-11,-3,84,34,-5,-7,-5
1523148492818516,3,-13,-5,-12,-24,-3,1,3
1523148492839696,-12,3,2,-95,-32,4,5,5
1523148492839696,0,-11,-4,102,53,-5,-5,-15
1523148492841077,-7,-3,3,-14,-2,0,-1,3
1523148492841077,2,0,3,-1,-7,-1,-2,0
1523148492853232,-11,-7,-9,-55,-24,-5,-2,-5
1523148492853232,-24,-28,-3,13,10,-5,-2,-3
1523148492862134,21,53,-2,-17,-11,2,-1,0
1523148492862134,-2,-3,-3,4,5,-1,-2,3
1523148492877296,-3,-7,0,-44,-12,1,0,-4
1523148492877296,-21,4,-7,-13,-22,-4,-2,2
1523148492878677,-7,-12,-1,18,18,-1,-1,-1
1523148492878677,17,-7,-3,-70,-30,2,-2,6
1523148492899736,-53,-20,0,65,35,-4,-3,-13
1523148492899736,52,0,-12,42,16,-7,-5,-2
1523148492901239,0,-7,4,-38,-31,1,2,3
1523148492901239,-2,-9,15,9,25,-3,0,-2
1523148492913392,7,-11,5,7,-2,-1,1,1
1523148492913392,-4,4,3,4,7,2,-1,1
1523148492922294,-5,-11,-9,-73,-47,2,7,-1
1523148492922294,0,-4,-12,58,39,-7,-10,-4
1523148492937383,12,16,-2,29,9,0,1,-3
1523148492937383,-4,2,1,-23,-15,0,1,3
1523148492938837,0,6,0,-19,-13,-1,0,1
1523148492938837,-19,-7,-6,-12,30,-4,-3,-5
1523148492959561,4,3,3,48,-22,-1,0,2
1523148492959561,-33,10,4,-14,-14,2,-1,0
1523148492961063,-2,-14,-3,25,17,-2,-1,-2
1523148492961063,0,-1,-3,0,-12,1,1,-1
1523148492973720,-6,-1,6,35,46,-1,-1,2
1523148492973720,13,0,-2,-42,-15,2,2,0
1523148492982120,-5,-9,-3,26,19,-3,-3,-2
1523148492982120,-28,3,-2,-128,-63,4,3,3
1523148492997289,25,9,6,90,55,-3,-3,-1
1523148492997289,12,-12,-10,-88,-21,-5,-1,2
1523148492998666,-12,3,5,-32,-7,0,-3,-2
1523148492998666,-15,0,0,-13,-2,-8,-4,-4
1523148493019843,-6,-6,-3,-46,-23,1,1,0
1523148493019843,3,4,4,72,28,-1,0,-5
1523148493021223,21,-15,-13,-10,-10,-3,0,6
1523148493021223,-14,9,-3,-4,-9,3,2,2
1523148493042371,22,-5,4,-104,-44,2,1,-3
1523148493042371,-11,-3,1,106,48,-11,-8,0
1523148493043784,0,-1,2,11,6,-2,0,3
1523148493043784,15,3,-3,13,12,0,-4,-11
1523148493057371,0,0,-4,-14,-13,2,1,1
1523148493057371,0,6,1,-50,-17,5,5,0
1523148493058824,-4,-3,-6,13,9,-1,1,-4
1523148493058824,14,10,-10,34,11,-8,-7,-6
1523148493079901,-15,1,7,-8,-10,1,1,6
1523148493079901,6,-2,1,-19,-19,2,1,-4
1523148493081383,-12,-7,0,14,20,-2,-1,-4
1523148493081383,-1,-5,16,33,7,1,2,4
1523148493102062,12,7,0,-25,-12,-1,1,1
1523148493102062,-8,19,-10,9,1,1,1,10
1523148493103943,8,-10,4,-1,5,-2,-5,-10
1523148493103943,-7,7,2,15,5,1,3,5
1523148493117102,56,0,-16,-2,-7,0,0,5
1523148493117102,-6,-9,-6,11,8,-1,4,-13
1523148493118982,31,17,-5,-3,-6,-2,-4,27
1523148493118982,-46,12,-6,-4,-5,-2,-4,-22
1523148493139665,7,-4,-22,8,-2,-5,0,-13
1523148493139665,38,-1,15,-18,-5,-1,-5,5
1523148493141542,-21,7,11,3,-6,1,0,-7
1523148493141542,-20,-12,-7,5,1,-4,1,21
1523148493162223,-10,-13,-1,5,1,-2,-9,-5
1523148493162223,-76,23,-7,-11,-1,1,-4,-22
1523148493163603,11,4,6,2,-2,3,5,8
1523148493163603,35,7,-1,4,4,-1,2,7
1523148493177262,-30,-3,3,4,1,-2,0,-2
1523148493177262,21,-3,-7,-13,-5,-1,-1,10
1523148493178643,-6,-5,-1,6,2,3,0,-3
1523148493178643,7,-10,-5,-5,2,1,2,1
1523148493199699,-4,6,1,0,-1,1,1,8
1523148493199699,25,-19,-1,-3,-5,-4,-4,2
1523148493201203,4,3,-4,-3,0,-2,1,-6
1523148493201203,14,-7,5,1,-1,-2,-3,5
1523148493222348,-32,17,3,2,-3,-2,-3,-3
1523148493222348,13,-3,4,-57,-31,-1,0,0
1523148493223762,-7,-11,-1,83,45,-5,-6,-5
1523148493223762,-11,26,7,-33,-17,2,3,-7
1523148493236419,-12,4,1,-27,-4,4,1,1
1523148493236419,-18,3,-1,38,20,-5,-3,-3
1523148493243439,-51,-10,-2,-6,-11,-2,0,-6
1523148493243439,2,0,0,-7,-12,1,-3,-2
1523148493259900,-3,-7,-4,25,33,-4,-1,-2
1523148493259900,0,-6,-3,-37,-13,1,1,3
1523148493261363,7,8,-8,-113,-44,2,0,-7
1523148493261363,8,-14,-4,85,64,-7,-6,-5
1523148493281918,-10,-13,1,-57,-18,-1,0,7
1523148493281918,25,1,-3,-47,-10,3,1,-2
1523148493283928,23,-4,5,-12,1,0,1,2
1523148493283928,39,-11,-19,-41,-35,-1,4,4
1523148493297085,17,10,2,22,1,-2,-7,-6
1523148493297085,-13,-4,-2,5,-4,-4,-2,-2
1523148493304476,14,3,4,-33,-18,9,7,7
1523148493304476,-7,-18,-1,55,33,-10,-8,0
1523148493327037,12,-2,3,-12,3,0,5,-18
1523148493327037,2,2,3,-28,-21,-2,-4,8
1523148493329041,-3,3,2,12,9,-2,-3,-4
1523148493329041,0,-6,-2,-3,-10,2,-1,1
1523148493342076,7,-4,-4,34,1,-2,-1,-3
1523148493342076,-6,1,10,-66,-11,5,4,0
1523148493344129,-16,-72,-12,48,5,-7,-5,-3
1523148493344129,-3,4,-1,-43,-14,4,2,-6
1523148493356614,0,-7,-10,-14,13,-1,-2,6
1523148493356614,-6,-8,8,104,39,-1,-2,-4
1523148493363366,10,30,1,-47,-8,-6,-7,5
1523148493363366,-10,-5,0,-27,-15,3,-2,-4
1523148493379676,-7,-5,2,-9,-43,3,4,4
1523148493379676,0,-8,-6,34,14,-1,1,2
1523148493381181,-26,3,-8,8,-12,-4,-3,-13
1523148493381181,6,5,-10,1,19,-2,-2,-6
1523148493402237,8,15,4,-18,-1,5,1,12
1523148493402237,0,1,3,-49,-31,-6,-1,-4
1523148493403741,7,1,1,114,59,-3,-2,0
1523148493403741,-2,-6,-6,-60,-21,-1,-1,-2
1523148493416507,2,5,0,-4,-25,1,1,1
1523148493416507,2,-4,-8,3,-7,-5,-3,-5
1523148493423500,10,-1,-7,-26,-8,5,4,4
1523148493423500,-21,1,-1,-30,6,-3,-2,-2
1523148493440342,-15,-7,0,31,11,-5,-4,-4
1523148493440342,9,12,-7,-19,-4,0,-2,0
1523148493446096,7,11,2,-23,-21,-1,-2,-3
1523148493446096,3,-1,0,-23,-13,-2,-1,-6
1523148493462419,3,-7,2,59,8,-3,-2,-1
1523148493462419,-12,4,-4,-46,-16,1,2,-2
1523148493464029,-33,-6,-2,48,34,-2,-2,6
1523148493464029,3,-4,-2,-6,-6,-1,-1,-1
1523148493476548,7,11,-2,-34,-13,0,1,2
1523148493476548,-15,-42,-4,38,16,-4,-5,-8
1523148493483566,6,8,2,-29,-13,0,2,-2
1523148493483566,4,-1,4,-18,-43,0,2,4
1523148493499464,-12,-10,0,44,58,-5,-6,-6
1523148493499464,-15,1,-2,10,10,1,1,2
1523148493500965,-31,-1,-4,-70,-42,2,1,-1
1523148493500965,2,-4,0,39,17,-5,-3,-4
1523148493521217,-6,-3,-1,-8,13,-1,-2,-7
1523148493521217,0,3,2,9,2,0,-1,7
1523148493529740,7,5,1,-44,-18,1,1,0
1523148493529740,10,6,6,-28,9,2,1,2
1523148493535755,-22,-10,-3,70,9,0,-1,-4
1523148493535755,-7,-4,-4,16,22,-1,-1,-1
1523148493544779,10,-16,4,-8,-6,0,-4,-5
1523148493544779,-4,1,5,25,15,1,1,2
1523148493559967,0,-3,6,-49,-18,0,2,-1
1523148493559967,24,0,-8,7,-4,3,2,0
1523148493561565,-3,-1,-4,27,13,-5,-3,1
1523148493561565,-20,-40,-9,10,0,1,-3,7
1523148493582031,-40,12,2,-19,-13,-2,1,-9
1523148493582031,18,16,7,9,1,3,-1,8
1523148493583533,8,4,-4,1,2,-2,-2,-5
1523148493583533,3,-1,1,24,7,-1,1,4
1523148493595729,36,18,-15,-30,-19,-4,-4,-9
1523148493595729,-29,-7,-3,-5,-1,-3,-3,-21
1523148493605090,28,-9,-3,1,4,-1,-3,-2
1523148493605090,-10,15,0,8,1,0,3,8
1523148493619788,-5,12,0,-17,-3,4,5,4
1523148493619788,-7,-7,-2,-1,-5,-8,-5,7
1523148493621133,69,11,6,17,5,2,0,-2
1523148493621133,18,6,6,6,1,-1,0,4
1523148493642345,7,-13,3,-16,-6,-1,2,11
1523148493642345,39,-35,-22,24,7,0,2,5
1523148493643694,-35,15,-4,-4,-4,-3,-2,-3
1523148493643694,17,-41,-3,-4,-5,-5,-4,-11
1523148493655883,7,2,4,-9,-5,-1,1,13
1523148493655883,-30,11,3,-4,1,-1,0,-12
1523148493664751,-25,-2,-7,-6,0,2,2,-2
1523148493664751,31,13,-5,8,-2,-2,-5,-5
1523148493679931,3,-5,-3,-8,-5,0,-1,-5
1523148493679931,5,9,3,-16,-6,0,-3,0
1523148493681438,-2,-12,6,12,19,3,3,-17
1523148493681438,-36,32,2,14,10,-3,-1,37
1523148493702149,-7,-8,3,46,-5,-4,-3,-7
1523148493702149,20,12,13,-38,-21,4,1,0
1523148493703496,-9,-4,-11,40,26,-10,-4,5
1523148493703496,2,1,-16,-36,-39,2,1,-14
1523148493716077,5,-7,0,11,24,1,0,4
1523148493716077,-46,-2,-3,-59,-67,-2,0,0
1523148493724552,-1,7,10,2,6,-5,-4,-6
1523148493724552,-11,-15,-16,96,62,-16,-13,-16
1523148493739748,-7,-2,-4,-73,-46,2,1,2
1523148493739748,15,5,7,-70,8,11,8,-1
1523148493741097,-11,-11,-5,63,34,-20,-13,-3
1523148493741097,-5,7,7,-76,-42,4,4,-4
1523148493762313,18,-6,-1,-22,11,-5,-5,1
1523148493762313,-15,-9,-4,3,21,-4,-2,-5
1523148493763658,-3,8,0,-36,-29,6,4,2
1523148493763658,-1,0,9,0,9,2,1,4
1523148493776190,-14,-6,-4,38,8,-3,-2,-3
1523148493776190,26,14,-4,17,7,-1,1,-6
1523148493784714,6,-28,-2,13,-4,-1,-4,3
1523148493784714,8,8,5,-62,-37,6,2,-3
1523148493799754,-4,-11,8,62,22,0,0,-1
1523148493799754,-9,6,6,45,19,-2,3,9
1523148493801258,5,12,-2,-10,-21,1,-4,-7
1523148493801258,5,5,1,10,22,1,0,-2
1523148493822380,-2,3,-8,-49,-21,2,1,1
1523148493822380,-21,-27,0,59,11,-6,-7,0
1523148493823843,-3,41,-4,-72,-36,4,5,8
1523148493823843,11,-14,0,42,16,-3,-3,-4
1523148493836005,-6,13,-1,9,9,-1,0,-5
1523148493836005,-4,-5,1,-47,-24,2,1,1
1523148493844873,6,8,15,70,31,1,0,8
1523148493844873,0,-2,-5,-3,10,-2,-4,-8
1523148493859912,-4,-4,0,-19,-21,-4,-1,2
1523148493859912,14,13,-2,-70,-29,3,0,-2
1523148493861417,-4,-12,-9,-32,13,-1,0,-8
1523148493861417,7,2,3,52,17,-3,0,3
1523148493881971,0,-10,2,-15,-5,-2,-3,-5
1523148493881971,13,7,-7,31,14,-5,-4,5
1523148493883475,-1,0,1,-52,-21,2,2,0
1523148493883475,-3,-3,-3,29,-8,-3,-1,-4
1523148493896061,-4,2,-1,-21,3,4,-1,-1
1523148493896061,4,2,-3,-3,-6,0,1,-2
1523148493904531,-5,-21,-3,18,12,-7,-5,-4
1523148493904531,-8,8,-9,-44,-21,1,1,1
1523148493919727,-2,-9,1,-52,-25,2,3,-1
1523148493919727,-10,-10,-4,30,31,-5,-5,-4
1523148493921076,-4,-3,2,48,16,-2,-4,4
1523148493921076,-8,4,2,-55,-52,-1,1,0
1523148493942288,1,-1,-7,55,36,-4,-6,-8
1523148493942288,10,6,7,27,-5,4,-1,4
1523148493943635,20,6,-12,-55,-13,-4,-4,-4
1523148493943635,-10,-35,-3,22,16,-3,-3,-4
1523148493955823,1,7,3,-42,-44,2,5,6
1523148493955823,-16,1,0,25,22,-1,-1,1
1523148493964692,-9,-3,2,56,22,0,-3,-1
1523148493964692,-27,-8,-1,-56,-26,1,-2,-4
1523148493979879,10,1,0,-10,20,-3,-2,-3
1523148493979879,-3,-6,-2,-22,-37,1,1,-1
1523148493981236,-6,-3,0,60,38,-6,-3,4
1523148493981236,7,6,4,17,13,3,3,-4
1523148494002404,-10,-1,3,-8,1,4,-1,6
1523148494002404,17,2,-3,-20,-27,-3,-3,-6
1523148494003797,-4,-1,1,1,-13,1,1,0
1523148494003797,-2,1,-1,12,13,-2,-4,-3
1523148494024879,-8,-3,-12,12,-1,-1,-2,-2
1523148494024879,-7,-6,12,19,11,-4,-3,-4
1523148494026511,4,8,13,-40,-34,5,6,6
1523148494026511,2,3,1,22,14,0,0,2
1523148494039933,25,11,2,-1,2,-5,-4,-5
1523148494039933,10,-16,-19,-2,10,-1,0,2
1523148494041396,-12,14,0,-29,-14,1,2,-4
1523148494041396,10,28,7,4,1,-3,-7,-2
1523148494062451,-36,-17,0,6,-6,-4,-8,-7
1523148494062451,25,-17,4,15,20,2,6,9
1523148494063956,-29,9,-12,-22,-17,-2,-5,1
1523148494063956,-24,-37,12,10,3,8,9,5
1523148494084666,22,31,-2,10,2,-3,-1,-3
1523148494084666,-61,-6,-3,9,6,-5,-9,-13
1523148494086016,8,5,-1,-27,-11,0,2,-4
1523148494086016,-12,0,2,-8,-4,-2,1,0
1523148494099050,18,-7,-3,9,4,1,4,3
1523148494099050,-18,-3,-3,2,1,-8,-11,-24
1523148494106068,10,-4,-1,-14,-9,0,-2,2
1523148494106068,11,15,-14,-10,-1,-2,-2,1
1523148494122267,1,-8,5,8,3,0,4,10
1523148494122267,18,19,-5,-2,0,-4,-2,4
1523148494123614,-13,-14,-4,-10,-5,0,-4,-12
1523148494123614,25,-8,-4,2,4,1,2,-2
1523148494144673,11,-7,-2,-2,0,-1,-1,3
1523148494144673,8,3,-1,3,0,0,0,11
1523148494146175,-9,-16,-2,-7,-5,2,3,-9
1523148494146175,12,8,0,-33,-16,-1,0,6
1523148494159286,-55,-15,-1,33,18,-1,1,-4
1523148494159286,4,36,8,44,5,1,-4,-10
1523148494165888,8,-9,1,2,-14,0,7,19
1523148494165888,-1,8,-7,-75,-19,-4,-6,-5
1523148494182513,-15,-9,3,79,29,-3,-6,-9
1523148494182513,6,-3,-10,-4,-2,-6,-3,1
1523148494183938,9,1,2,37,11,1,0,0
1523148494183938,-5,-1,-2,-89,-58,-2,1,-2
1523148494204992,8,3,-8,-25,29,0,-4,0
1523148494204992,7,-5,6,-23,-27,-2,2,2
1523148494206536,5,0,-8,50,30,-1,-3,-1
1523148494206536,-9,-4,0,-26,18,0,-2,-2
1523148494219265,8,4,4,-54,-32,3,1,-1
1523148494219265,0,-5,-6,-11,-14,-2,0,0
1523148494226161,18,-8,-4,-7,-10,-6,-5,-6
1523148494226161,-6,8,4,44,-11,0,-2,-3
1523148494242170,6,0,6,11,1,1,0,-1
1523148494242170,-3,-3,-5,25,40,-4,-1,1
1523148494243674,28,1,3,-44,-25,3,3,5
1523148494243674,-10,-4,-6,36,16,-5,-3,-2
1523148494264731,-7,0,-3,-35,-22,1,-2,-6
1523148494264731,-9,-42,1,5,1,3,0,-1
1523148494266235,-19,-28,-5,-9,13,-3,-2,-5
1523148494266235,25,3,4,33,0,0,-1,-1
1523148494279012,-19,-19,-10,26,10,-4,-2,-3
1523148494279012,39,23,4,4,-1,5,2,8
1523148494285786,-10,16,3,-34,-10,-2,0,-1
1523148494285786,-10,-12,2,27,9,2,-1,-4
1523148494302065,7,11,0,-36,-13,1,1,2
1523148494302065,0,-1,-5,34,24,-2,-3,-4
1523148494303833,-3,7,2,-41,-17,-1,0,1
1523148494303833,-44,1,-2,51,10,-4,-3,-5
1523148494324388,9,1,-3,-29,-23,0,-1,-1
1523148494324388,-10,7,0,20,6,0,0,0
1523148494330906,-11,-5,-2,-76,-6,-1,-2,-2
1523148494330906,2,-1,1,26,18,-1,0,1
1523148494338927,57,-1,-6,11,7,-5,-1,0
1523148494338927,-8,3,2,-56,-29,1,-1,8
1523148494346155,3,1,-3,5,-11,1,0,-1
1523148494346155,-13,-9,-1,42,35,-6,-7,-8
1523148494362778,-11,-3,-3,-7,-21,-1,-1,0
1523148494362778,0,2,1,-50,-9,0,1,-1
1523148494364045,0,-2,-2,54,7,-3,-5,-2
1523148494364045,8,1,2,-43,-12,1,1,3
1523148494384795,-2,27,3,11,3,1,2,2
1523148494384795,-52,-7,-6,10,-4,-2,-2,-11
1523148494386103,-3,0,1,-15,4,2,-2,2
1523148494386103,-1,-8,-3,20,9,-3,-1,-1
1523148494398856,19,4,3,-23,-5,0,-2,-1
1523148494398856,24,43,-4,46,6,-2,0,1
1523148494406124,-22,-42,-4,-3,-21,1,3,-5
1523148494406124,10,8,3,2,11,2,-5,-6
1523148494422385,-8,-10,-4,24,6,-6,-4,0
1523148494422385,-11,-1,4,-32,-25,6,4,3
1523148494423674,1,10,0,40,51,-5,-3,-3
1523148494423674,2,-5,-10,41,-24,-2,-2,1
1523148494444924,7,-8,0,-22,2,2,2,3
1523148494444924,-1,-9,4,-11,-9,0,0,-2
1523148494446234,0,14,1,8,-8,-1,-2,1
1523148494446234,-21,-12,-2,-5,14,-3,-2,-5
1523148494458961,-4,3,2,14,-5,-3,-3,1
1523148494458961,-17,-7,-2,-3,4,-3,-4,-6
1523148494465787,6,4,2,-40,-18,3,4,-3
1523148494465787,21,6,-1,-15,4,3,3,10
1523148494482397,-31,-5,0,8,-25,0,-1,-8
1523148494482397,-25,14,7,-1,33,-2,-4,9
1523148494483835,23,-29,-4,32,11,-4,-5,-4
1523148494483835,-3,-4,-3,-10,-18,-1,0,-3
1523148494504924,-45,-13,7,-26,3,0,3,-1
1523148494504924,15,-6,-9,30,-5,-1,1,-9
1523148494506563,-12,8,3,-16,0,-2,-4,-1
1523148494506563,18,31,1,-26,-9,0,0,3
1523148494518545,35,8,13,3,7,3,3,7
1523148494518545,-17,-7,-1,-16,-2,-1,-1,-11
1523148494527449,-40,5,0,4,-5,-1,-1,-5
1523148494527449,2,-9,-7,-16,-2,-1,-1,-15
1523148494541987,14,4,-14,2,7,-1,-2,-1
1523148494541987,4,-12,1,-9,-5,-8,-14,-21
1523148494544022,5,-1,-8,3,-2,2,-1,5
1523148494544022,-17,9,5,-4,-2,1,11,-26
1523148494564549,7,-7,-22,-3,-1,-3,-10,50
1523148494564549,-24,-11,0,-1,1,-3,-3,-20
1523148494566053,-7,1,4,-5,-1,0,-3,-26
1523148494566053,36,-8,10,-7,-1,1,17,50
1523148494578611,-22,-10,-9,-1,0,-6,-16,-35
1523148494578611,12,-11,2,-2,0,0,2,2
1523148494587110,6,3,-3,-2,-3,-1,13,-41
1523148494587110,12,7,4,1,4,1,-15,10
1523148494602305,-26,-1,5,-1,4,1,0,-10
1523148494602305,22,3,-11,-10,-4,0,7,17
1523148494603653,-4,-6,-11,8,3,3,-1,-14
1523148494603653,47,0,1,40,17,-3,-6,-2
1523148494624865,-18,-4,2,-16,-17,3,7,9
1523148494624865,-45,-2,3,1,7,4,1,-17
1523148494626213,17,4,-5,-6,5,-1,3,30
1523148494626213,-22,-2,5,-19,-10,-6,-6,-3
1523148494638978,6,-4,-12,27,10,-4,-8,-11
1523148494638978,12,-4,-3,-31,-9,0,3,7
1523148494647271,-26,10,7,-55,-43,1,0,21
1523148494647271,-16,-16,-10,-47,-10,-4,-5,-22
1523148494662902,0,12,10,62,24,-3,-1,12
1523148494662902,14,-28,-8,-30,1,-4,-4,2
1523148494664314,8,2,-4,9,8,-3,-2,10
1523148494664314,-11,-2,-8,-27,-28,-1,-8,-14
1523148494684896,13,-1,-7,14,-46,3,7,-2
1523148494684896,7,-2,-5,95,79,-12,-9,2
1523148494686373,11,6,13,18,-3,1,-5,4
1523148494686373,-13,-6,-9,-12,-1,3,7,-2
1523148494698405,12,1,6,-13,-3,1,3,11
1523148494698405,-11,4,-5,-75,-55,2,-1,3
1523148494707430,-9,-3,-5,81,21,-3,-4,-19
1523148494707430,33,10,6,96,35,-5,-5,33
1523148494721967,-3,1,-11,-34,-6,1,0,-7
1523148494721967,3,4,7,29,-3,4,2,1
1523148494724114,-11,1,-1,-29,-2,0,-1,2
1523148494724114,-22,1,-1,-30,-26,-1,-4,-8
1523148494744772,-2,-7,0,1,14,-4,-3,-10
1523148494744772,1,3,6,21,19,0,2,4
1523148494746650,8,14,3,13,-6,4,14,14
1523148494746650,23,-1,-1,1,18,-2,-13,-22
1523148494758626,-3,0,3,-61,-32,3,3,0
1523148494758626,7,-6,0,40,28,-5,-5,-5
1523148494767087,10,8,0,3,-2,-2,-2,10
1523148494767087,-18,-1,-6,-55,-9,-3,2,-4
1523148494782358,10,-2,7,7,-4,-1,0,0
1523148494782358,12,12,-3,-42,-34,3,2,4
1523148494783632,16,-11,0,10,9,0,-2,1
1523148494783632,-10,22,-4,-6,-1,-3,-2,4
1523148494804919,17,-12,-5,46,30,-5,-2,-9
1523148494804919,3,0,-1,17,4,-3,0,6
1523148494806192,43,-1,1,-8,-7,-1,-2,1
1523148494806192,-17,-1,0,-26,-9,4,4,-3
1523148494818235,-6,1,2,-10,-19,-3,-2,-4
1523148494818235,9,2,0,8,-6,0,-2,0
1523148494827523,-22,-3,2,-27,6,0,0,-8
1523148494827523,-3,-10,1,28,-2,2,0,18
1523148494842063,-8,-2,-2,-26,13,-2,-4,-3
1523148494842063,5,-3,1,-1,-7,0,2,6
1523148494844115,-12,-2,-1,-26,2,1,-2,-1
1523148494844115,-10,-9,1,45,22,2,4,-3
1523148494864622,-18,-4,-2,-24,1,-2,-1,-7
1523148494864622,18,7,-3,32,4,-1,-3,-3
1523148494866126,-5,-7,-9,-41,-17,-2,-5,19
1523148494866126,6,-4,-1,-3,-3,-1,-2,-4
1523148494878659,5,1,2,-26,-23,4,3,1
1523148494878659,1,-2,-6,-34,12,-2,-1,-3
1523148494887182,-8,-5,-1,61,20,-6,-5,-6
1523148494887182,-2,-7,-2,-7,-8,0,1,-2
1523148494902221,20,-2,4,5,1,-3,-2,-1
1523148494902221,18,0,-8,-55,-24,-2,-2,0
1523148494903726,1,2,2,25,17,1,1,0
1523148494903726,-39,-5,-3,34,5,-3,-4,-6
1523148494924954,37,1,-9,-61,-28,-3,-2,-3
1523148494924954,-1,2,-2,-20,-8,-1,-1,-4
1523148494926559,-3,-4,0,2,-5,-5,-4,-2
1523148494926559,24,1,-4,17,35,-6,-3,-2
1523148494946893,-12,30,6,37,17,2,-1,-3
1523148494946893,-24,-39,-7,-28,-23,1,0,-2
1523148494948898,1,4,-4,-57,-22,-1,-1,5
1523148494948898,-10,-5,-1,15,-4,-1,-2,-13
1523148494962472,-13,-6,2,17,5,-1,3,8
1523148494962472,-1,2,0,71,34,-4,-2,2
1523148494963938,-1,-1,-2,-95,-16,3,2,-3
1523148494963938,44,0,3,61,15,-2,1,11
1523148494984735,-57,0,-2,7,14,1,0,-3
1523148494984735,14,14,3,-28,-21,4,4,-1
1523148494986498,-3,-9,-3,9,1,1,2,-1
1523148494986498,11,4,0,-38,-14,4,6,6
1523148495007052,-15,-8,-1,8,-1,-8,-8,-11
1523148495007052,-6,3,2,-10,-6,0,-1,3
1523148495009125,-9,-3,2,40,4,-3,-5,-7
1523148495009125,-4,3,-2,-81,-39,2,4,8
1523148495022092,24,-4,3,67,35,0,-1,-3
1523148495022092,-16,2,1,-16,15,-4,-3,-2
1523148495023597,22,-1,-3,-50,-30,0,0,-11
1523148495023597,-17,8,-6,-19,8,-2,-6,9
1523148495044974,-2,-3,3,-34,-29,4,1,1
1523148495044974,8,-1,4,90,48,-8,-3,2
1523148495046354,-6,3,-5,-57,-2,-3,-1,-14
1523148495046354,-32,-11,-7,9,-19,5,3,-6
1523148495067140,3,15,2,-11,-5,-5,-7,-19
1523148495067140,-48,-4,-4,45,24,-6,-7,1
1523148495068913,-4,5,5,17,-5,0,5,9
1523148495068913,-11,1,0,-36,-11,0,-5,-11
1523148495081447,31,-18,-3,6,-4,-1,1,2
1523148495081447,4,17,-3,-42,-24,-2,1,20
1523148495088609,2,-2,10,40,10,-3,-7,9
1523148495088609,57,0,3,6,1,-3,-2,40
1523148495104664,-4,8,2,-10,4,5,4,-7
1523148495104664,27,12,4,-24,-21,-2,10,49
1523148495106607,-38,-26,-15,17,-1,-6,-31,-13
1523148495106607,-44,-4,-1,11,3,-2,-1,-22
1523148495127268,46,-25,-4,1,7,-4,-3,9
1523148495127268,35,0,8,-13,-9,6,5,0
1523148495129095,-1,10,1,27,6,-3,9,-11
1523148495129095,-33,-32,-7,-10,2,-4,-2,-38
1523148495141774,12,8,-19,-5,3,-2,-7,9
1523148495141774,-4,-8,0,-4,-11,2,3,-10
1523148495148315,2,9,-2,5,1,2,7,19
1523148495148315,21,8,5,1,4,1,0,1
1523148495164668,-26,3,7,5,5,5,8,-12
1523148495164668,28,-8,-9,-8,-8,-4,-10,-10
1523148495166174,11,1,-2,4,2,0,4,19
1523148495166174,-15,0,-2,-2,-2,-2,1,15
1523148495194916,-16,-17,-10,4,1,3,5,-2
1523148495194916,-13,6,3,-4,0,2,-8,8
1523148495196253,10,-18,0,22,-7,2,0,-15
1523148495196253,-19,-5,-3,-23,-8,-6,0,-8
1523148495201419,-14,0,-5,25,25,-11,-8,-1
1523148495201419,27,5,7,-47,-22,4,2,-31
1523148495208516,-2,2,-3,25,-15,0,5,8
1523148495208516,-12,-12,-3,64,42,-9,-4,0
1523148495224986,-32,-1,11,9,-5,3,0,6
1523148495224986,-37,-4,-9,-105,-31,0,-3,-17
1523148495226333,-3,-11,-7,55,12,2,5,-3
1523148495226333,21,28,9,39,-17,3,4,-4
1523148495246888,6,8,-2,13,12,-5,0,-1
1523148495246888,-17,-42,-7,-2,-20,-4,0,2
1523148495248892,2,14,2,-12,16,6,-1,-10
1523148495248892,0,-6,-4,52,9,-4,-5,-3
1523148495261624,0,-1,1,-58,-33,2,1,9
1523148495261624,-6,8,-5,45,3,-2,-2,-11
1523148495268444,3,-8,-2,41,21,-10,-6,-9
1523148495268444,20,5,8,-36,4,4,4,15
1523148495284678,11,-7,0,-17,6,-7,-10,-1
1523148495284678,1,10,4,-67,-45,7,4,-7
1523148495286569,-13,-3,-1,70,28,-4,-3,-7
1523148495286569,26,1,-9,32,-29,-10,-11,-24
1523148495307241,-15,2,0,-43,-14,3,9,11
1523148495307241,-4,2,5,13,19,1,-5,-13
1523148495308551,2,3,-5,-78,-30,2,-1,6
1523148495308551,-3,0,-6,-42,2,1,-2,-5
1523148495321769,19,37,1,42,5,-4,-3,4
1523148495321769,1,-15,0,57,23,-1,0,-6
1523148495328146,-5,-2,5,-24,-3,-3,-1,-3
1523148495328146,11,1,-5,-70,-32,5,0,7
1523148495344847,-8,2,-1,22,36,-3,-2,-10
1523148495344847,-9,3,7,17,10,1,0,-1
1523148495346152,8,9,1,-48,-32,-5,0,-2
1523148495346152,-18,8,7,-46,-8,5,1,20
1523148495367401,-13,-42,-9,7,21,-5,-7,-9
1523148495367401,19,-1,-8,-1,-11,-3,-3,-12
1523148495368712,4,-1,2,-34,-13,1,1,10
1523148495368712,9,-1,4,15,-2,2,2,-4
1523148495380745,-10,-5,-9,-63,-19,4,1,-1
1523148495380745,-6,-1,-4,56,24,-4,-3,4
1523148495389766,-33,0,-6,-28,-23,-3,-7,-25
1523148495389766,21,5,-2,-7,9,-2,-1,16
1523148495404921,-1,5,3,-29,-18,1,-1,-5
1523148495404921,-22,-5,-4,90,41,-6,-1,-14
1523148495406511,5,12,-2,-38,-17,3,-1,17
1523148495406511,-9,-6,-1,-20,-11,-3,-2,-11
1523148495427283,-2,0,7,10,-8,2,2,0
1523148495427283,-3,-1,-3,9,14,-5,-4,4
1523148495429101,-5,-7,-5,7,4,0,2,-1
1523148495429101,16,0,6,8,1,2,3,3
1523148495440627,2,-5,-2,53,42,-2,-3,0
1523148495440627,-1,3,-3,-71,-41,-3,1,1
1523148495449645,-18,-4,-2,32,14,-3,-7,-6
1523148495449645,-18,-9,1,-92,-32,4,5,50
1523148495463683,-4,-5,10,42,11,-2,1,-5
1523148495463683,-10,-4,-1,58,9,-2,-1,-4
1523148495472705,7,-3,-1,0,19,-5,-5,2
1523148495472705,6,13,-2,-92,-42,1,2,-17
1523148495486761,-9,-17,-2,61,41,2,1,-2
1523148495486761,-6,-2,-9,-32,-8,1,1,8
1523148495487245,19,8,6,24,1,-3,-2,-7
1523148495487245,-13,-10,-8,28,9,-2,-6,-11
1523148495509982,1,5,-5,-36,-23,-6,-4,-1
1523148495509982,7,7,7,49,5,2,1,-3
1523148495510305,-13,-7,-1,-36,6,4,6,0
1523148495510305,-22,10,2,24,9,1,0,-8
1523148495524090,-8,0,-12,10,-7,-5,-5,-1
1523148495524090,33,-1,4,-57,-14,4,3,10
1523148495524844,3,4,0,8,-8,1,6,-3
1523148495524844,7,-6,-1,17,12,-2,-3,-1
1523148495546401,1,6,9,-23,-19,3,1,-4
1523148495546401,-5,-3,-2,67,22,-3,-5,0
1523148495547405,4,-3,-1,23,16,-3,-3,0
1523148495547405,7,-1,-1,-21,-15,1,2,-17
1523148495568961,-1,-2,-9,-41,-1,-1,2,-17
1523148495568961,-3,22,2,-22,-19,1,-3,-12
1523148495569462,8,6,-1,-12,-1,-5,-3,21
1523148495569462,-4,-18,16,70,24,-2,-1,7
1523148495584195,7,-28,-5,-20,-24,-2,-2,9
1523148495584195,-13,9,-1,-36,3,-3,0,0
1523148495585003,-14,-4,1,17,3,2,1,-7
1523148495585003,10,0,-11,12,15,-6,-7,-14
1523148495606483,-11,9,-3,-2,-16,-3,-2,-9
1523148495606483,2,-7,4,-39,-7,-3,6,-9
1523148495607291,26,-3,-3,4,5,1,-12,1
1523148495607291,-34,-4,1,10,3,-2,3,17
1523148495629054,24,7,5,-4,-4,0,2,3
1523148495629054,-7,-6,-9,-6,-5,-3,-6,3
1523148495629851,7,6,-9,-12,2,-2,1,-19
1523148495629851,-16,-3,-1,7,4,-4,-1,-19
1523148495644044,4,8,-8,-2,-10,-3,-1,9
1523148495644044,33,2,0,-10,1,1,3,10
1523148495645032,-7,-12,0,-3,1,1,6,22
1523148495645032,-25,-13,-11,4,1,-5,-9,0
1523148495666601,-4,5,-8,5,-2,2,3,5
1523148495666601,50,-13,-7,-12,-4,-3,-7,6
1523148495667507,-9,4,3,-2,-4,-3,-4,-8
1523148495667507,8,4,-10,10,3,-4,3,-9
1523148495688964,-19,-20,4,-3,-6,-1,-1,-1
1523148495688964,-15,10,1,-3,4,4,9,1
1523148495689989,-8,-8,1,5,-2,-1,-11,-15
1523148495689989,13,-4,4,7,4,1,-2,-12
1523148495704207,2,7,4,-7,-4,0,2,5
1523148495704207,-34,-4,0,-1,-1,-4,-2,-12
1523148495704595,5,-2,0,-38,-21,0,1,3
1523148495704595,-4,0,-4,70,38,-6,-3,-9
1523148495726714,-11,6,3,-7,-4,1,-1,-3
1523148495726714,-2,-2,1,-20,-7,1,-5,0
1523148495727155,13,0,-8,-25,-13,-5,0,-6
1523148495727155,3,5,1,72,4,2,-1,5
1523148495749374,-6,4,-1,-65,8,-4,-3,-5
1523148495749374,-8,-8,-9,-18,-1,-3,-4,3
1523148495750233,2,-2,-1,52,17,-2,1,4
1523148495750233,11,-4,-4,-40,-22,2,2,-2
1523148495763770,10,3,1,-19,-27,3,2,5
1523148495763770,-9,-1,1,67,36,3,1,0
1523148495764772,-7,-1,4,16,9,-1,-2,-3
1523148495764772,0,2,-2,-42,-12,2,2,1
1523148495786682,3,8,7,11,-5,5,2,-2
1523148495786682,-12,-7,-11,-20,-6,-9,-7,-1
1523148495787035,19,-2,3,25,-12,2,5,-2
1523148495787035,-11,-15,-3,-36,-7,-2,-3,20
1523148495809188,2,0,0,-40,-26,1,0,-6
1523148495809188,-23,2,0,40,24,-4,-2,-5
1523148495809594,9,-46,-7,-18,0,-3,-5,-3
1523148495809594,2,4,1,5,6,2,2,-5
1523148495823633,23,3,0,-2,0,-1,0,2
1523148495823633,-15,-8,0,-44,-26,6,4,5
1523148495824635,-17,6,-2,13,38,-5,-3,-8
1523148495824635,19,7,0,-32,-8,-3,-3,3
1523148495846191,-23,-8,11,7,-12,1,0,4
1523148495846191,7,4,0,16,19,-2,-2,-10
1523148495847195,0,14,2,-55,-42,2,2,10
1523148495847195,-3,0,-2,-6,-1,0,1,-4
1523148495868909,-2,3,-7,-25,-16,-1,0,1
1523148495868909,9,-8,2,52,34,-1,-4,-2
1523148495869755,22,3,-3,-13,-5,-1,1,2
1523148495869755,-2,0,-4,-73,-26,-3,-1,-2
1523148495883948,5,7,-4,55,38,-7,-7,-8
1523148495883948,1,10,5,-10,-12,1,2,0
1523148495884795,16,47,9,0,-5,3,1,21
1523148495884795,15,-29,-11,65,10,-4,-3,-7
1523148495906511,9,-2,0,6,1,2,2,10
1523148495906511,1,0,1,-26,-18,3,2,-6
1523148495907355,-33,4,-6,-20,-2,-2,-1,-5
1523148495907355,25,4,0,47,40,1,-1,1
1523148495928997,20,-5,-2,-16,-4,-2,-3,-17
1523148495928997,40,-2,4,0,6,-1,0,21
1523148495929916,-3,-10,-10,-16,-28,-5,-4,-7
1523148495929916,-12,15,-7,-51,-12,2,0,-6
1523148495944076,-32,-18,-1,36,15,0,-1,1
1523148495944076,-13,-7,0,29,2,-6,-4,-4
1523148495945025,-2,3,2,-115,-51,4,5,9
1523148495945025,-23,17,6,104,71,-9,-6,-1
1523148495966637,-13,-48,-11,-18,-17,-2,-1,-2
1523148495966637,6,9,7,-22,-10,2,1,-1
1523148495967516,-23,-11,10,17,2,2,1,3
1523148495967516,7,4,12,-18,-22,4,7,17
1523148495988695,1,26,-7,31,23,-5,-5,-10
1523148495988695,-13,2,-2,-2,-16,3,4,15
1523148495996592,14,-13,1,-13,4,-4,-9,-17
1523148495996592,3,11,-1,24,-10,0,-1,-4
1523148496004200,-27,-1,-10,41,30,-8,-10,-7
1523148496004200,21,1,-10,-35,-25,-1,-1,-10
1523148496004613,-15,14,-5,18,-1,-2,8,5
1523148496004613,-14,-11,2,-54,-16,-1,-9,-13
1523148496027174,-11,-30,-5,10,-1,-1,1,11
1523148496027174,-18,9,-2,21,12,-3,-8,4
1523148496027675,-34,-33,-5,-36,17,2,2,-19
1523148496027675,1,-35,6,-19,-36,-1,2,5
1523148496048855,35,-4,6,3,-1,-2,-4,-14
1523148496048855,-3,-12,-1,-13,-7,-3,-1,2
1523148496049735,-18,10,0,32,17,-2,-2,-10
1523148496049735,-19,-2,-11,-18,-3,-2,-4,-15
1523148496063774,37,11,-6,18,3,-5,5,29
1523148496063774,-46,34,-2,-39,-18,4,-1,5
1523148496064774,34,-9,11,49,19,-1,-2,18
1523148496064774,-73,-9,-2,14,4,-8,-11,-68
1523148496086332,-18,29,7,-37,-25,1,-6,-2
1523148496086332,61,3,-2,-9,1,1,3,0
1523148496087336,-6,-13,-4,28,14,1,8,-2
1523148496087336,24,15,-3,-14,-3,-1,-1,23
1523148496109015,-3,17,-2,-13,-3,-2,-2,8
1523148496109015,-23,-53,-5,-2,-4,-3,-4,-27
1523148496109894,42,16,0,27,10,-5,-10,23
1523148496109894,44,-15,-9,-22,-12,0,7,12
1523148496124055,3,9,6,2,0,1,7,-8
1523148496124055,-29,-12,1,9,6,-2,-12,-24
1523148496124995,32,33,-2,-3,-6,-2,-3,23
1523148496124995,23,-3,5,-3,3,1,1,9
1523148496146159,-27,-2,-3,-2,-2,-2,-2,-1
1523148496146159,0,-10,-2,-8,-3,-1,5,0
1523148496147163,-29,-12,-2,2,-1,-1,7,-13
1523148496147163,0,5,-5,-3,0,2,-3,29
1523148496169289,16,-13,-3,3,0,1,-6,8
1523148496169289,1,2,9,-7,-3,0,7,9
1523148496169721,-12,-4,-11,1,0,-1,-1,-10
1523148496169721,-21,-7,-9,1,-4,-6,0,-25
1523148496184311,-9,-12,3,-7,-5,-1,4,-46
1523148496184311,7,36,0,-5,-2,-3,-11,14
1523148496184762,42,17,-5,4,1,-3,-6,0
1523148496184762,-10,-13,-1,-2,1,0,6,-10
1523148496206533,15,16,4,-2,2,2,-7,-8
1523148496206533,-41,7,-5,-12,-7,-2,1,-17
1523148496207566,-33,0,1,4,4,-1,-1,-21
1523148496207566,13,-39,8,9,4,4,0,7
1523148496228937,-11,17,12,-2,-4,0,2,21
1523148496228937,12,-3,4,2,2,0,1,5
1523148496229884,1,4,-8,12,-23,3,-4,-9
1523148496229884,-53,-13,-4,75,53,-7,-8,14
1523148496244159,4,-14,-11,-29,-16,1,1,22
1523148496244159,-9,-3,-2,35,7,-4,-6,-2
1523148496244922,-14,-20,-9,-79,-21,-2,2,-10
1523148496244922,17,27,4,-13,-34,5,5,6
1523148496274783,5,4,7,58,64,0,-2,-39
1523148496274783,-2,6,0,-10,-7,4,-1,17
1523148496275286,8,-3,12,-5,-12,3,1,-5
1523148496275286,-36,27,-2,55,29,-5,-3,0
1523148496289045,31,41,2,-65,-23,-1,-1,1
1523148496289045,14,-21,1,-27,7,10,15,4
1523148496289835,-24,-47,-12,76,8,-15,-18,-5
1523148496289835,32,14,4,-81,-29,1,-1,5
1523148496305151,0,0,7,35,15,5,5,7
1523148496305151,32,25,-5,-9,8,-9,-7,-2
1523148496306154,13,-20,6,-41,-12,6,11,-1
1523148496306154,0,4,-3,16,-2,-4,1,2
1523148496326803,-4,-19,-4,-2,1,-1,-11,19
1523148496326803,33,21,2,-20,-31,1,1,-20
1523148496327209,-10,5,2,-1,26,-2,-3,-7
1523148496327209,-3,-4,-4,-54,-22,1,4,-8
1523148496349301,-1,-5,-4,17,27,-3,1,6
1523148496349301,-9,-11,3,-74,-73,4,1,-6
1523148496349770,0,20,-4,111,95,-12,-10,-6
1523148496349770,-9,1,-5,-59,-10,-1,1,5
1523148496363808,-22,-9,-3,-27,-11,0,-8,-1
1523148496363808,-8,-36,-12,-59,-15,-2,-1,4
1523148496364810,-2,7,6,18,-23,0,2,-1
1523148496364810,6,-8,-5,17,11,-1,0,5
1523148496386579,-11,-14,-1,-26,-69,0,-1,-8
1523148496386579,-12,-9,-11,47,50,-14,-8,0
1523148496387342,13,1,3,4,33,0,4,-1
1523148496387342,19,-10,-1,19,23,1,-5,-16
1523148496409139,-17,29,-2,-13,-30,-1,9,17
1523148496409139,8,18,9,-72,-38,2,-4,-8
1523148496410055,1,-8,-7,53,20,0,1,9
1523148496410055,-8,11,3,13,13,-6,-7,-12
1523148496424267,2,-12,-2,-34,-16,1,4,-7
1523148496424267,1,-4,-1,-9,-7,3,2,-5
1523148496424597,-13,0,0,30,24,-4,-6,-7
1523148496424597,3,-1,3,-2,-24,3,2,5
1523148496446155,0,-4,0,46,32,-1,1,8
1523148496446155,-25,-22,15,10,38,1,-2,-5
1523148496447158,-10,0,-5,-90,-66,2,2,-2
1523148496447158,42,8,3,13,-17,1,0,6
1523148496469268,1,2,-6,-25,9,-5,-2,-10
1523148496469268,6,-57,-13,110,34,-7,-3,-8
1523148496469717,27,4,-2,-68,-37,2,1,20
1523148496469717,-32,1,2,-15,-26,-5,-4,-5
1523148496483286,-8,-12,-8,1,21,-4,-2,-11
1523148496483286,-21,15,-1,-22,-9,3,2,4
1523148496491655,-8,-4,-7,0,-2,2,1,0
1523148496491655,-5,-12,-1,47,9,-5,-1,9
1523148496506778,0,5,2,-27,-19,0,-4,-3
1523148496506778,6,13,-2,39,24,-4,-1,4
1523148496507199,-5,2,2,-2,-4,1,0,0
1523148496507199,-2,9,-3,-47,-16,2,0,-8
1523148496528755,4,-8,3,16,-7,0,-2,-4
1523148496528755,4,7,-5,-2,16,-1,2,7
1523148496529759,-14,-5,2,2,14,-4,-4,-6
1523148496529759,39,-1,-2,1,-33,2,0,0
1523148496543497,-56,-11,-5,64,35,-7,-7,-5
1523148496543497,3,7,-2,-2,-1,-3,0,-3
1523148496551510,33,1,4,-10,-12,3,7,12
1523148496551510,-38,-3,0,-25,1,3,-1,-3
1523148496566550,76,57,-6,-34,-13,-8,-6,-10
1523148496566550,49,-10,-15,7,-4,-2,0,37
1523148496567556,-2,0,-3,-52,-21,-1,-5,11
1523148496567556,-7,0,-3,24,34,-5,-8,-5
1523148496588916,-22,-6,2,3,-6,1,3,3
1523148496588916,-10,13,1,-1,-2,-1,1,-28
1523148496589920,11,8,-1,-25,-17,-1,-5,-7
1523148496589920,-12,9,8,-9,7,-3,0,5
1523148496603615,-1,-14,-3,10,2,-1,-5,-8
1523148496603615,-8,-7,-6,-7,-8,0,0,0
1523148496611771,-12,-21,-8,11,3,-1,1,-8
1523148496611771,-14,1,0,-1,5,1,3,-11
1523148496626759,19,-10,-3,1,0,0,-1,2
1523148496626759,-27,10,-7,-1,-7,1,-5,-9
1523148496627261,-19,-7,4,3,2,1,1,8
1523148496627261,-2,5,-9,-5,8,2,7,-28
1523148496649010,4,-72,-11,-17,-17,-7,-9,18
1523148496649010,2,30,10,9,3,1,-7,-6
1523148496650062,21,-3,2,6,1,-4,3,8
1523148496650062,-60,-15,-7,-15,-4,0,-2,-55
1523148496672317,-56,12,3,5,0,1,0,-4
1523148496672317,17,-13,9,14,1,2,11,9
1523148496673252,5,-15,-16,-12,-4,-6,-10,-23
1523148496673252,29,26,8,-3,1,2,-3,4
1523148496686730,-7,7,3,-1,-2,0,0,7
1523148496686730,-16,-11,3,5,2,-2,-3,3
1523148496687163,8,21,7,-4,-3,1,3,-6
1523148496687163,3,-14,-5,-8,-1,0,3,-10
1523148496708917,12,5,-1,7,8,5,3,8
1523148496708917,21,4,10,-2,-8,-1,6,-37
1523148496709756,-22,-1,-4,1,-5,-2,-9,10
1523148496709756,-28,-2,-6,1,-3,-6,-7,3
1523148496723456,6,-2,2,0,0,3,8,24
1523148496723456,-9,7,2,-4,-5,-3,-11,-20
1523148496731797,-5,-6,-9,11,7,5,4,2
1523148496731797,25,-14,5,-1,1,-3,-6,19
1523148496746322,-7,-20,-4,-5,-6,-2,0,-9
1523148496746322,-5,8,-1,-2,-1,-1,2,21
1523148496747520,2,3,2,-11,-8,0,-2,-7
1523148496747520,10,41,0,-14,-7,-2,-2,10
1523148496768881,0,-14,2,36,19,-2,3,-7
1523148496768881,-3,-2,-3,-37,-29,1,-7,1
1523148496769922,-16,-8,-13,2,21,-4,-2,-4
1523148496769922,-5,4,5,53,3,-1,-1,6
1523148496783568,2,3,0,46,28,-8,-6,-21
1523148496783568,-5,-4,2,-37,-13,1,1,13
1523148496791680,11,4,-1,6,-8,-5,1,3
1523148496791680,9,-3,-4,-75,-43,4,3,13
1523148496806716,-3,-9,-4,54,39,-3,-6,-5
1523148496806716,23,-4,-2,11,3,1,2,17
1523148496807026,-38,1,8,16,-2,-1,1,-7
1523148496807026,25,-1,-3,-50,9,-6,-5,17
1523148496829083,2,4,12,2,-39,4,5,-33
1523148496829083,-9,-4,-9,15,-3,3,12,33
1523148496829585,44,2,-1,-51,-7,-1,-4,-10
1523148496829585,-84,34,-5,82,46,-6,-8,-5
1523148496851141,26,-11,9,-95,-46,2,4,3
1523148496851141,6,-8,-2,29,19,-6,-6,-13
1523148496859178,-11,-7,-7,-70,-19,4,6,0
1523148496859178,44,-33,4,65,15,-2,2,16
1523148496866731,-7,30,-6,-16,1,-1,-5,1
1523148496866731,-12,-4,-2,-45,-11,2,3,-6
1523148496867184,-11,8,2,-16,-29,-6,-7,-2
1523148496867184,13,-38,-2,16,19,1,0,-3
1523148496889242,-7,3,-6,-13,-2,-1,7,15
1523148496889242,17,-3,-12,-22,6,-1,-9,-6
1523148496889745,-14,20,12,47,-7,-1,0,3
1523148496889745,10,1,2,-16,10,1,1,-4
1523148496911985,-14,-8,4,61,6,0,1,-4
1523148496911985,-7,3,-7,-49,-30,-1,-1,15
1523148496912990,20,8,6,40,43,2,1,-4
1523148496912990,2,-8,-14,-33,-17,-3,-4,-2
1523148496926524,-7,6,-7,-33,-10,2,3,-16
1523148496926524,28,33,6,28,31,-5,0,2
1523148496927528,-27,-48,-4,-49,-26,3,-4,-2
1523148496927528,43,-2,5,44,1,-6,0,5
1523148496949185,0,4,-1,-10,-7,-2,-5,-6
1523148496949185,-9,3,3,25,1,2,-2,-6
1523148496949586,3,8,2,-25,2,0,2,2
1523148496949586,-5,-45,-2,-29,-26,0,-2,-6
1523148496972302,-10,10,-5,33,48,-3,-8,5
1523148496972302,-22,-12,1,12,-11,0,3,-5
1523148496973210,44,3,-2,21,1,3,1,7
1523148496973210,-18,-2,-5,-83,-13,-2,0,-2
1523148496986731,3,1,-2,-14,-15,-7,-6,3
1523148496986731,-12,-9,1,5,6,0,-1,-4
1523148496987186,-6,7,5,11,-5,0,2,-8
1523148496987186,17,19,3,-36,-6,7,6,4
1523148497009244,1,-4,-2,12,-2,-1,0,1
1523148497009244,-3,-1,-2,15,19,-4,-6,0
1523148497009746,-9,-6,-2,31,10,-2,-3,1
1523148497009746,-16,1,0,-45,-18,6,4,6
1523148497032384,-21,-6,-1,-15,-25,-3,-3,5
1523148497032384,6,-15,0,12,-4,1,2,-6
1523148497032807,-12,-3,-3,-18,-7,0,-2,7
1523148497032807,-2,3,-5,71,29,-6,-7,3
1523148497046499,5,2,-4,-78,-13,2,2,-3
1523148497046499,-4,1,1,85,46,-4,-3,-13
1523148497047346,-82,-19,3,-44,-47,4,7,-21
1523148497047346,35,11,1,-17,-15,-1,-9,-9
1523148497069060,28,-4,-2,36,16,-1,0,14
1523148497069060,-8,-8,-13,-37,-21,-12,-7,-4
1523148497070058,13,11,-2,28,39,1,-1,-4
1523148497070058,-14,2,5,1,-29,1,7,3
1523148497092281,1,-2,-1,-1,2,-2,-2,-3
1523148497092281,7,3,0,-53,-41,1,1,-1
1523148497092622,10,1,-2,83,45,-6,-5,1
1523148497092622,1,2,1,20,6,-2,0,1
1523148497106676,8,5,3,-16,-14,4,5,0
1523148497106676,-14,0,0,-1,-14,1,0,4
1523148497107160,7,0,-3,-12,13,-7,-5,1
1523148497107160,-6,-6,6,0,5,-1,-2,-1
1523148497128718,-20,-1,-3,1,-1,-1,-3,-2
1523148497128718,-19,-11,-4,2,-1,-3,1,-8
1523148497136237,32,-9,6,-8,-9,2,9,22
1523148497136237,-7,20,-2,15,7,-2,-1,-14
1523148497152279,4,4,6,0,-1,-3,-21,-25
1523148497152279,18,30,1,2,6,0,2,26
1523148497152783,23,-2,-11,-7,-5,1,0,4
1523148497152783,33,26,0,0,0,-2,0,-4
1523148497166471,40,-18,-7,-4,-4,0,5,7
1523148497166471,14,-6,6,20,12,0,9,19
1523148497167320,-2,50,3,-11,-8,-3,-8,-4
1523148497167320,20,-5,7,9,1,2,20,-33
1523148497189035,31,53,-2,3,-5,-5,-30,26
1523148497189035,-44,-12,0,-19,4,0,-5,-27
1523148497190059,3,-22,0,8,-2,1,24,-8
1523148497190059,-7,-14,-24,11,7,3,-21,-23
1523148497212122,-13,-11,8,-3,3,3,11,-8
1523148497212122,13,-13,5,4,1,-3,2,-26
1523148497213235,-22,14,2,0,-5,-4,-16,-5
1523148497213235,-7,-18,-9,-5,-1,-3,0,8
1523148497226321,-6,-9,-1,6,-1,1,7,3
1523148497226321,-13,-3,-6,5,2,0,-2,-11
1523148497227161,22,13,-2,2,1,1,2,5
1523148497227161,-13,-9,-3,-8,-3,-2,1,22
1523148497248875,-21,2,4,2,1,1,1,13
1523148497248875,-57,-10,-2,-4,-1,1,5,7
1523148497249721,17,6,2,-3,-3,-4,-12,-18
1523148497249721,-11,-8,3,-7,-9,-2,-3,5
1523148497272424,-13,-2,-11,-3,8,0,6,-11
1523148497272424,17,11,13,18,18,-5,-4,1
1523148497272928,2,-17,-6,-10,-13,-2,-5,-1
1523148497272928,-9,-3,-1,-13,1,-2,-1,-2
1523148497286620,-11,-10,-3,12,-10,-3,-3,-15
1523148497286620,15,0,7,-59,4,8,1,12
1523148497287534,-22,-38,-16,33,0,1,-5,-7
1523148497287534,6,0,0,94,40,-10,-6,7
1523148497309227,-13,-2,3,-91,-19,-1,6,3
1523148497309227,27,3,4,69,32,-2,-10,1
1523148497309526,-3,0,-18,-125,-98,-4,4,4
1523148497309526,-5,4,3,89,35,-2,-3,1
1523148497332316,19,-2,0,41,-13,3,4,3
1523148497332316,-8,1,-16,34,10,-7,-8,-11
1523148497333310,-3,6,5,12,15,3,0,5
1523148497333310,13,-1,1,-54,-44,-2,-1,4
1523148497346624,-31,1,1,-49,7,5,5,1
1523148497346624,22,1,-10,-15,-29,-3,-5,-16
1523148497347126,-6,15,11,91,45,-3,3,11
1523148497347126,-39,-66,-8,-49,-19,1,-5,-31
1523148497369186,-3,-1,11,-6,8,0,0,34
1523148497369186,10,1,-2,-2,-14,3,3,0
1523148497369686,19,-9,2,-6,41,-6,3,-25
1523148497369686,0,35,4,-36,-31,5,-8,7
1523148497392428,-58,0,-15,85,34,-7,-5,1
1523148497392428,-11,-3,-2,-79,-38,5,3,5
1523148497392747,-5,-7,-10,88,42,-6,-9,0
1523148497392747,-3,20,3,-12,-1,3,7,-4
1523148497405935,-1,-26,-23,-108,-46,-4,0,-8
1523148497405935,11,7,6,68,33,-6,-6,10
1523148497413956,-10,0,9,-22,-21,3,1,5
1523148497413956,3,10,5,-67,-26,4,4,6
1523148497428844,-4,-11,-9,119,63,-10,-7,-8
1523148497428844,-10,-24,13,-77,-37,-3,0,-9
1523148497429848,3,7,10,-104,-16,5,0,5
1523148497429848,2,-13,3,84,18,-4,2,10
1523148497452405,-10,-6,-4,16,13,1,-10,-18
1523148497452405,22,2,-9,11,5,-1,4,4
1523148497452908,-5,0,1,-43,-17,1,5,11
1523148497452908,-2,2,-6,34,0,-2,-7,-2
1523148497465600,-13,8,3,-33,-28,1,4,-6
1523148497465600,6,24,-3,34,26,-2,-4,-7
1523148497474119,4,-7,-2,-23,6,-6,-5,3
1523148497474119,35,11,6,-105,-36,7,9,10
1523148497489190,19,-5,-9,33,27,-12,-7,-10
1523148497489190,-5,33,0,-7,-12,0,-5,-7
1523148497489550,13,24,5,14,-7,3,1,0
1523148497489550,-8,-7,8,-35,-14,2,2,8
1523148497512162,14,7,8,-41,-35,7,7,-2
1523148497512162,-3,-5,4,70,57,-4,-3,2
1523148497512662,16,-2,-8,22,23,-3,-4,-13
1523148497512662,3,4,0,5,-4,-4,-3,7
1523148497525853,18,6,-10,-52,-24,4,2,1
1523148497525853,-15,-20,-8,-6,-18,-3,1,-2
1523148497534219,-9,-4,3,26,-10,1,-3,-2
1523148497534219,-6,0,-1,-9,37,0,4,-1
1523148497548912,16,-4,2,32,-10,-7,-3,-5
1523148497548912,-19,-4,1,-14,1,5,2,6
1523148497549760,-31,-12,-2,23,13,0,-2,9
1523148497549760,0,21,-18,-30,-5,-3,-9,2
1523148497572360,7,-1,14,14,-14,0,1,-3
1523148497572360,16,-5,-7,-75,-43,-2,1,-3
1523148497572821,-6,-5,13,44,22,-6,-6,-2
1523148497572821,-25,-11,-5,32,39,4,11,-14
1523148497586012,65,15,8,-5,-5,-3,-5,69
1523148497586012,-2,-29,-4,-9,-20,-1,-6,-33
1523148497594032,58,-22,-23,-42,-18,1,8,55
1523148497594032,-15,-7,-4,27,22,1,5,-11
1523148497609184,20,7,-2,-5,-4,-5,-6,-6
1523148497609184,-19,-23,9,-8,-3,0,0,-16
1523148497609601,-18,5,0,5,-5,-8,-14,-2
1523148497609601,-12,-16,-8,19,-3,-1,21,22
1523148497632160,-23,9,-7,-9,1,4,-14,-6
1523148497632160,35,20,-4,-1,-5,-3,-1,25
1523148497632662,-81,-9,-6,-5,-7,-5,-15,-66
1523148497632662,38,35,5,1,-20,-20,-21,-13
1523148497645699,-29,-28,2,-6,9,9,15,-2
1523148497645699,6,-21,-7,13,16,6,12,29
1523148497654234,2,7,-5,2,-8,6,6,-4
1523148497654234,43,-39,1,-7,-3,0,-2,-13
1523148497668963,-27,15,-1,8,7,-5,-2,-8
1523148497668963,-50,-1,-15,1,-7,-3,-5,0
1523148497669809,-24,-16,9,0,-2,1,5,4
1523148497669809,3,-22,-13,-8,-13,-7,-12,-8
1523148497692905,1,13,7,1,2,-1,0,-5
1523148497692905,-5,-8,-16,-33,-10,-3,-2,3
1523148497693370,-3,10,2,17,1,2,-2,-28
1523148497693370,10,-1,-1,21,10,0,-3,-15
1523148497706046,36,-37,-5,-9,-1,-7,-10,-10
1523148497706046,50,28,-6,-12,-23,-9,-10,-12
1523148497714086,37,2,-2,-1,20,9,10,15
1523148497714086,-14,2,9,26,-2,0,-7,-10
1523148497728979,-33,-9,-29,-19,-14,-6,2,-1
1523148497728979,17,7,22,54,7,7,0,0
1523148497729467,14,4,-2,-20,-7,-3,-4,-2
1523148497729467,-32,6,12,-9,0,12,11,19
1523148497752139,0,1,-1,-2,-25,-2,2,-8
1523148497752139,-8,0,3,40,9,-7,-5,6
1523148497753225,-13,2,-1,-46,-6,-7,-5,0
1523148497753225,-24,1,-5,50,16,-3,-5,-1
1523148497774859,-1,-2,9,22,-1,-3,0,-4
1523148497774859,22,-2,-8,-87,-48,5,4,-4
1523148497775201,-26,-2,2,40,6,-9,-4,-4
1523148497775201,29,6,0,-25,-31,4,3,11
1523148497788892,38,7,8,112,61,2,3,-2
1523148497788892,-47,7,-4,-20,4,2,-1,-6
1523148497789741,16,24,2,-6,-10,-2,-2,5
1523148497789741,-12,11,0,-43,-5,2,0,8
1523148497811974,-3,-18,8,-53,-32,7,2,-6
1523148497811974,-32,-13,1,66,28,-5,-2,-3
1523148497812977,46,10,0,17,13,1,-1,-2
1523148497812977,-9,-6,-7,-46,-12,-4,-2,-4
1523148497834533,-14,-1,6,-33,-11,-2,-2,-9
1523148497834533,28,-4,4,-23,-17,-9,-1,8
1523148497835537,-3,0,-10,51,17,-1,-1,-7
1523148497835537,5,0,-1,2,14,1,-1,-6
1523148497849227,-6,3,5,-24,1,4,-4,-3
1523148497849227,-21,-2,-10,-24,-20,-8,-6,-3
1523148497849573,-2,-2,9,-55,-19,6,4,0
1523148497849573,-19,-13,6,75,26,-3,-3,3
1523148497872295,22,45,-6,-20,-17,-1,1,-3
1523148497872295,-12,8,7,72,26,-3,-6,-8
1523148497872634,18,9,-1,-19,-20,2,5,15
1523148497872634,-34,-9,-22,19,25,-9,-12,-9
1523148497894694,-77,-73,-7,-82,-35,-1,-2,-15
1523148497894694,1,-5,0,35,48,2,3,11
1523148497895195,13,10,5,-52,-20,2,0,-1
1523148497895195,12,-4,0,33,-12,4,2,4
1523148497908886,-11,33,0,44,11,-4,9,-15
1523148497908886,43,-14,1,-66,-13,1,-8,4
1523148497909733,-27,-25,-15,18,2,-5,-3,-3
1523148497909733,-28,6,11,-37,-15,3,4,2
1523148497939926,5,0,-9,-10,6,-4,-6,-10
1523148497939926,-23,-32,3,64,43,0,-2,-4
1523148497940314,4,31,-3,-41,-31,0,1,0
1523148497940314,-33,-21,-11,27,22,0,0,4
1523148497954513,6,17,15,-12,-4,-3,-3,21
1523148497954513,7,8,4,24,3,2,1,-22
1523148497956358,-8,-31,3,-65,-11,-4,-5,17
1523148497956358,-2,12,-15,-29,-24,-5,2,-1
1523148497969046,-5,-33,3,60,54,2,-2,1
1523148497969046,0,14,-6,-24,-25,0,1,-7
1523148497970000,16,-22,-10,2,-9,2,2,-3
1523148497970000,29,-8,-3,-48,-9,-7,-5,-5
1523148497992109,9,11,0,8,14,1,3,3
1523148497992109,-4,8,5,-1,-15,-2,0,9
1523148497992955,-24,-20,-1,78,36,0,0,-12
1523148497992955,-34,54,-3,-30,-36,-7,-4,19
1523148498014674,0,8,-4,9,2,0,-2,-4
1523148498014674,-14,-4,-4,-22,0,1,-1,0
1523148498015516,-14,-8,-2,53,7,-2,-3,-9
1523148498015516,6,-2,-10,-73,-20,-3,-3,1
1523148498029052,-30,-2,6,23,-18,0,4,-2
1523148498029052,17,4,4,-4,-5,1,0,4
1523148498029553,12,13,3,16,12,0,-1,2
1523148498029553,-37,-12,7,-23,-2,3,-3,-12
1523148498052268,45,6,-9,39,11,-1,-2,-16
1523148498052268,3,3,6,-13,0,-2,-2,28
1523148498053116,-8,-18,-4,-19,-7,-3,-5,-7
1523148498053116,108,13,5,12,15,1,5,13
1523148498075336,6,-19,-7,-20,-5,4,5,14
1523148498075336,9,8,3,4,2,2,-5,-37
1523148498076177,12,-10,5,-2,-7,-1,3,36
1523148498076177,-32,-26,-13,14,3,-5,-16,-47
1523148498089238,-8,13,3,-8,-2,-1,0,-1
1523148498089238,3,-5,-10,-19,-12,-5,-6,21
1523148498089713,9,20,16,-13,-1,0,3,1
1523148498089713,5,-27,2,16,5,-1,4,47
1523148498112426,-74,-21,2,-3,-2,-6,-18,-42
1523148498112426,-27,14,0,-14,-4,0,0,-32
1523148498112774,1,-58,-12,-1,0,-5,-5,3
1523148498112774,26,26,2,11,6,3,5,15
1523148498134331,9,1,9,-12,-3,4,7,27
1523148498134331,7,-24,-11,-5,0,2,11,33
1523148498135335,73,56,6,14,7,3,-1,-31
1523148498135335,-23,-18,7,16,4,3,4,-12
1523148498149031,21,-11,-13,-14,-3,-1,1,9
1523148498149031,2,5,-2,-7,-3,-2,2,-6
1523148498150028,-33,21,5,8,7,2,2,6
1523148498150028,11,-36,9,-23,-11,1,1,-3
1523148498172087,2,1,-6,-44,-20,-3,-7,1
1523148498172087,-18,13,1,104,39,-7,-6,-8
1523148498172935,-28,9,-7,-92,-45,-2,-3,-4
1523148498172935,26,14,19,120,68,0,-4,0
1523148498194492,26,3,-5,-109,-30,4,2,-4
1523148498194492,4,-3,-2,20,-1,0,-1,-3
1523148498195495,-24,-40,0,76,12,-3,-3,6
1523148498195495,2,16,-9,-59,-38,-1,-1,-12
1523148498209172,19,7,2,105,44,-5,-3,3
1523148498209172,6,10,8,-116,-15,6,4,4
1523148498209532,-18,-2,-15,46,9,-10,-9,-13
1523148498209532,-5,-1,-2,-17,1,0,3,-5
1523148498232119,-7,1,0,-44,-21,3,8,7
1523148498232119,21,-5,3,61,-14,1,-5,1
1523148498232593,-7,6,3,68,42,-7,-6,-16
1523148498232593,7,-12,-5,-78,-2,1,0,-3
1523148498254880,11,-2,-6,-18,-25,-5,-10,18
1523148498254880,-2,0,-3,-16,-10,4,5,-21
1523148498255152,12,7,6,-9,20,8,9,13
1523148498255152,-27,4,-7,-38,-35,-10,-11,-16
1523148498268918,38,10,2,59,29,-4,-1,-1
1523148498268918,-36,-19,0,-72,-39,1,0,-6
1523148498269691,-5,5,0,-42,5,5,5,6
1523148498269691,22,1,-8,107,37,-9,-6,-10
1523148498291949,2,10,6,-43,-15,3,-2,-3
1523148498291949,-21,2,-14,-10,-5,-12,-6,-1
1523148498292753,-7,-8,-1,-16,-18,-3,-3,-2
1523148498292753,-17,4,-1,-30,-12,4,3,7
1523148498314897,-7,-1,-5,-24,-11,0,1,-5
1523148498314897,4,-2,-9,24,6,0,-2,-2
1523148498315313,-30,15,-3,-9,-22,-3,-5,1
1523148498315313,-2,-2,3,-55,-25,2,0,1
1523148498328849,-6,-9,-7,103,61,-2,3,-14
1523148498328849,-19,-9,2,-47,0,1,-3,12
1523148498329851,8,-5,-10,-28,14,-3,0,-16
1523148498329851,-4,0,8,9,-7,3,1,8
1523148498351910,8,13,-1,-72,-30,-1,5,3
1523148498351910,21,4,3,53,42,0,2,-6
1523148498352913,4,-6,1,18,-9,0,2,-1
1523148498352913,2,13,5,-50,-20,4,2,-4
1523148498374632,-17,-10,-2,26,37,-6,-4,6
1523148498374632,13,-3,-6,-14,-19,-2,6,1
1523148498375474,-28,-5,2,-20,-1,1,-10,2
1523148498375474,-3,-4,2,-24,-44,0,-1,5
1523148498388568,21,4,-3,45,16,2,-2,-5
1523148498388568,20,21,3,-24,-18,2,22,21
1523148498396529,32,-39,-5,14,10,-7,-26,-25
1523148498396529,-28,-16,6,38,9,2,2,0
1523148498412071,-4,1,-13,-67,-24,-5,-5,3
1523148498412071,0,-20,2,-7,-2,2,-2,-18
1523148498413575,9,29,4,-17,11,0,8,0
1523148498413575,-24,-19,-2,1,-17,-2,-2,-15
1523148498434786,-12,4,-6,40,33,-5,3,-9
1523148498434786,51,7,-1,-25,-34,1,-10,-1
1523148498436134,-44,-5,2,15,-7,-3,3,-2
1523148498436134,1,-2,1,45,29,0,-5,-2
1523148498448323,-8,24,12,6,-9,2,4,1
1523148498448323,-5,-2,-5,-60,-28,3,-3,2
1523148498457191,14,-3,-5,-40,-22,1,2,9
1523148498457191,4,15,2,114,63,-5,0,1
1523148498472397,-6,-20,-3,-20,-73,1,13,17
1523148498472397,-37,-11,-6,58,77,-17,-32,8
1523148498473735,4,6,4,-25,-10,3,12,-2
1523148498473735,10,1,-3,-19,11,-1,-9,-4
1523148498494792,-3,4,3,-28,5,3,1,-17
1523148498494792,-6,-1,3,-4,-22,-1,3,44
1523148498496294,-30,-19,-2,9,0,-1,-3,-10
1523148498496294,24,8,-13,-39,-11,-4,-7,-3
1523148498508488,-13,-21,-4,28,14,-1,-3,9
1523148498508488,-16,-15,-2,-6,1,-1,-2,-37
1523148498523524,10,24,-3,-4,2,-3,-5,3
1523148498523524,12,-4,13,16,-5,1,8,14
1523148498532418,-17,-3,-8,-11,-4,-4,-6,-6
1523148498532418,-29,-24,-5,1,6,-3,2,-34
1523148498533894,17,19,5,-13,-11,3,5,30
1523148498533894,2,7,-6,3,1,-8,-14,3
1523148498554606,-15,-16,-3,16,8,-1,0,-10
1523148498554606,13,24,-5,-25,-8,4,7,-11
1523148498556455,-14,9,-1,4,-4,-4,-14,-13
1523148498556455,16,-5,4,0,3,2,14,7
1523148498568568,12,2,2,-23,-10,0,-21,-6
1523148498568568,-60,7,0,13,3,-4,-7,-25
1523148498577009,42,-26,-7,0,-3,1,6,5
1523148498577009,34,15,-6,-7,0,1,13,26
1523148498592211,-12,-5,1,-9,-3,3,0,-31
1523148498592211,42,1,4,10,5,1,6,48
1523148498593553,-41,-67,-18,6,0,-3,-4,-34
1523148498593553,11,-24,-7,-9,-4,4,6,43
1523148498614731,-14,11,7,12,3,-1,-1,-6
1523148498614731,-12,-2,9,9,8,0,2,-13
1523148498616113,9,7,0,-5,-9,0,6,16
1523148498616113,0,0,-1,-4,-2,-1,-3,-10
1523148498628147,-15,-22,-2,2,3,1,3,9
1523148498628147,23,3,1,-1,-2,-2,-7,0
1523148498637171,-5,4,1,-1,0,-1,2,3
1523148498637171,-38,26,1,-11,-1,4,4,-35
1523148498652336,14,-30,-3,16,5,-6,-9,9
1523148498652336,7,3,-5,-10,-4,-1,1,-1
1523148498653714,31,18,12,19,-1,6,3,-1
1523148498653714,-39,-19,-13,-5,-12,-3,-5,-13
1523148498674879,0,18,2,-53,6,-1,-1,1
1523148498674879,8,-4,-7,9,14,-1,1,6
1523148498676275,24,-9,-1,38,45,-5,-6,-1
1523148498676275,-1,11,-3,-66,-53,2,0,-3
1523148498688306,1,5,-2,96,40,-4,-1,5
1523148498688306,12,5,2,-75,-58,5,4,-10
1523148498697330,-8,13,2,24,8,-6,-5,2
1523148498697330,-2,1,5,-46,-6,3,0,-10
1523148498710866,3,-3,-15,57,16,-12,-8,-7
1523148498710866,-5,-5,4,2,-5,2,5,-9
1523148498719672,11,8,-4,-84,-70,7,0,5
1523148498719672,11,1,-4,111,99,-8,-8,-16
1523148498734750,-15,-28,-6,-72,-30,-4,-2,27
1523148498734750,2,-2,6,-40,-1,6,4,-6
1523148498736225,-31,10,-9,-37,-41,-4,-6,4
1523148498736225,-7,-25,-2,57,63,-9,-9,-15
1523148498757280,12,71,7,-41,-28,4,4,-5
1523148498757280,-31,-28,-7,-34,0,-1,1,15
1523148498758784,8,-18,-4,54,9,2,2,-7
1523148498758784,3,-10,4,15,-29,-2,-3,8
1523148498772875,8,26,4,20,12,0,4,-1
1523148498772875,4,-1,-6,-23,-6,1,3,16
1523148498773883,-5,-9,1,-67,-32,3,3,-2
1523148498773883,7,9,-5,1,-8,-2,0,-10
1523148498802097,13,-13,3,-20,7,4,2,17
1523148498802097,-37,-1,-9,35,3,-9,-4,-24
1523148498803997,-36,15,3,15,17,-3,-3,-13
1523148498803997,-7,-2,-5,41,19,-4,-5,34
1523148498816996,15,-6,0,-128,-63,16,10,-12
1523148498816996,17,5,-6,127,29,-14,-11,-9
1523148498819001,-2,0,0,77,61,-5,-6,13
1523148498819001,12,-37,-1,-73,-35,-1,-2,4
1523148498832194,-6,6,-6,-31,-23,2,-1,-2
1523148498832194,13,0,-4,-18,16,0,-4,1
1523148498834056,-2,1,1,1,-19,-5,0,-4
1523148498834056,6,5,4,-72,-14,5,3,-11
1523148498854751,-2,-22,0,113,37,-6,-5,7
1523148498854751,15,-3,0,-10,2,0,-3,4
1523148498856114,-1,-2,1,-57,-40,4,7,-1
1523148498856114,-25,9,-11,11,22,-4,4,-13
1523148498877373,-10,-9,-1,0,-30,-5,-14,-3
1523148498877373,-11,3,7,9,25,0,-3,-10
1523148498878876,21,12,5,-8,-12,3,9,4
1523148498878876,13,23,0,-17,-17,4,3,3
1523148498891409,-13,-34,-9,21,16,-7,-3,-7
1523148498891409,-17,16,0,5,-1,1,10,6
1523148498898520,57,-37,-9,-92,-4,4,-5,-7
1523148498898520,-43,5,7,43,1,-6,-9,-15
1523148498914611,6,-2,1,-5,-10,2,4,0
1523148498914611,14,7,-7,-4,11,1,1,-1
1523148498915974,-7,1,5,-16,-12,2,2,-1
1523148498915974,-17,0,-13,54,7,-7,-5,2
1523148498937172,10,26,6,-94,-46,5,6,-11
1523148498937172,-1,-9,-3,10,27,-9,-13,-2
1523148498939035,-16,10,2,57,-7,0,1,-3
1523148498939035,5,-9,-3,-72,-7,-5,-8,5
1523148498951569,-13,9,-2,-35,-43,1,7,6
1523148498951569,-21,0,5,-20,-37,2,-2,-2
1523148498958231,-6,-1,1,127,102,-5,-7,5
1523148498958231,1,4,10,-7,-7,5,3,-12
1523148498974772,31,24,2,-40,-8,0,0,-2
1523148498974772,-4,4,-5,22,-15,-1,-5,27
1523148498976136,-16,-9,2,15,14,1,7,-9
1523148498976136,0,-3,-6,-49,-36,-1,-5,-20
1523148498997332,4,-14,-1,21,38,-5,-8,26
1523148498997332,10,-7,-1,-8,-1,3,-1,-7
1523148498998695,-8,20,1,38,-1,0,5,3
1523148498998695,7,-5,-2,-38,-15,1,1,1
1523148499011330,-12,6,8,98,49,-4,-4,-13
1523148499011330,21,-16,0,7,-3,0,5,6
1523148499018487,13,17,-10,-80,-36,-5,-6,12
1523148499018487,19,6,6,8,-2,5,2,8
1523148499034891,-6,-8,-1,63,11,0,-2,-9
1523148499034891,5,-15,-10,-69,-28,3,6,2
1523148499036473,-8,-9,-1,-23,35,-4,-5,16
1523148499036473,-11,3,1,22,-3,-1,-3,-6
1523148499057092,-12,-3,1,-11,-1,0,3,-10
1523148499057092,-5,11,-4,13,2,-2,-3,10
1523148499059022,7,5,1,-21,-22,-1,0,2
1523148499059022,-14,34,-3,-4,1,-5,-8,-9
1523148499071631,2,-11,9,20,16,3,6,16
1523148499071631,30,11,12,1,-7,-1,-14,21
1523148499078509,60,5,-8,-24,-11,-5,-9,-30
1523148499078509,-73,-19,6,23,12,0,2,-11
1523148499094552,-10,-8,-14,22,3,3,5,-55
1523148499094552,-16,-8,-1,1,1,0,-7,66
1523148499096056,12,-4,8,4,0,3,4,5
1523148499096056,33,3,-11,5,-4,-5,-8,-6
1523148499117254,-23,5,-16,-19,-6,0,-5,-33
1523148499117254,-34,-3,13,6,7,4,16,-7
1523148499118616,-13,-8,-15,0,-4,-8,-19,36
1523148499118616,31,-6,0,0,-3,3,7,20
1523148499131725,14,-8,-6,-14,-2,-4,-2,18
1523148499131725,-31,-4,-6,0,1,-5,0,-29
1523148499138308,-35,4,1,-2,-3,1,-5,-38
1523148499138308,19,1,3,-2,-4,-4,4,3
1523148499154712,44,-4,6,-2,1,-2,-2,55
1523148499154712,57,13,-6,1,-2,-2,-3,-41
1523148499156215,-18,26,2,-3,-4,-1,1,-15
1523148499156215,8,-3,-5,-11,-1,1,1,0
1523148499177272,0,-41,5,21,5,0,-1,-11
1523148499177272,10,2,-3,-9,0,1,-2,2
1523148499178776,-28,-19,1,12,2,-1,4,-8
1523148499178776,33,15,5,-14,-9,-1,1,10
1523148499190807,4,18,2,61,27,-2,-6,-1
1523148499190807,16,15,7,-89,-15,6,5,-12
1523148499199832,14,-6,-14,-17,-30,-3,-4,-2
1523148499199832,-32,-16,1,76,58,0,-1,16
1523148499214609,-1,6,6,-16,-35,3,0,1
1523148499214609,0,-3,-12,-23,-9,-4,-5,-8
1523148499216375,4,2,1,1,-8,5,5,4
1523148499216375,11,-5,-7,-47,-2,-8,-3,-5
1523148499237165,-9,4,6,40,21,-2,-3,-7
1523148499237165,-17,-8,-2,17,-2,-1,-2,13
1523148499239087,-35,2,-6,0,14,2,9,-14
1523148499239087,14,-4,6,1,-37,2,-8,0
1523148499250697,-17,4,2,-121,-52,2,-1,-4
1523148499250697,-30,-20,-7,127,84,-16,-11,-21
1523148499259992,28,-14,2,-53,-27,-2,3,5
1523148499259992,-7,20,-1,-88,-38,5,4,-8
1523148499274765,-10,-14,-5,99,41,-10,-6,-1
1523148499274765,10,11,-3,-75,-35,4,1,0
1523148499276034,14,-1,19,-63,-31,7,6,9
1523148499276034,-20,-20,-6,104,38,-8,-6,4
1523148499297286,-7,-24,-18,-52,26,-16,-10,-1
1523148499297286,-14,6,14,-12,-14,3,3,-3
1523148499298595,2,5,3,14,29,4,7,14
1523148499298595,14,-14,5,-8,-18,8,3,-6
1523148499310626,-3,-2,-8,6,3,-3,-3,-17
1523148499310626,0,-9,0,14,2,-3,-1,16
1523148499319650,27,8,-3,-73,-31,-1,-4,-3
1523148499319650,-2,-10,2,61,24,-3,-1,-2
1523148499334887,-10,18,2,5,3,1,8,21
1523148499334887,19,9,5,-16,-16,0,-1,-15
1523148499336194,-8,0,-5,-12,-1,-3,-7,6
1523148499336194,-3,3,-3,-3,5,0,0,7
1523148499357933,-16,-19,1,11,-7,-4,-4,8
1523148499357933,-3,-9,-12,6,-7,1,-1,-21
1523148499359283,31,0,-1,36,11,-6,-1,4
1523148499359283,-4,12,3,-65,-42,1,1,-8
1523148499370894,-9,1,2,-14,0,-3,-6,3
1523148499370894,-3,-11,-4,60,15,-6,1,2
1523148499379840,-29,28,-20,25,-2,-8,-13,-18
1523148499379840,15,-8,5,-44,16,2,3,2
1523148499394382,22,24,3,-104,-38,12,11,-31
1523148499394382,-3,0,-5,-74,-24,-5,4,98
1523148499396388,-37,-9,-4,50,45,-6,-15,-29
1523148499396388,1,-9,4,-20,-10,2,8,-20
1523148499417136,14,26,-1,-43,-31,5,-6,27
1523148499417136,33,-10,6,102,30,-3,0,-41
1523148499419075,-38,-19,0,-14,-24,4,15,23
1523148499419075,0,-6,-1,-36,22,-5,-10,-14
1523148499430504,-9,2,-2,86,25,-1,0,-6
1523148499430504,-2,4,-3,-44,-8,3,-4,-8
1523148499439500,18,-21,10,-19,5,0,1,15
1523148499439500,-15,-9,-12,45,11,-5,-4,-12
1523148499454773,26,-9,-11,-33,-31,-4,2,5
1523148499454773,-18,5,-1,-97,-35,6,4,-10
1523148499456046,19,-3,11,112,61,-6,-6,-10
1523148499456046,-7,0,-3,7,-4,-3,-1,6
1523148499477102,-10,-2,2,-30,1,0,1,-21
1523148499477102,-34,-14,2,35,-13,-1,-10,19
1523148499478605,-7,-19,-14,-28,-8,-1,2,-7
1523148499478605,1,12,3,2,-25,-1,-2,4
1523148499490637,-10,-10,-3,27,26,-5,-7,15
1523148499490637,3,31,0,1,6,-1,-2,-15
1523148499499664,1,-7,-2,25,-8,-2,0,-16
1523148499499664,18,10,2,-38,10,5,4,5
1523148499514937,-1,-10,-1,0,-16,-3,-2,-3
1523148499514937,5,-5,5,-13,7,3,4,-14
1523148499516206,-22,3,-6,5,-16,-4,-9,16
1523148499516206,-4,-7,9,34,2,1,3,5
1523148499537383,-15,31,7,8,-7,-1,-2,-6
1523148499537383,15,-19,-3,-20,-6,1,4,2
1523148499538766,11,24,12,24,15,4,0,-13
1523148499538766,-4,-2,-8,-22,-29,1,-3,11
1523148499550798,5,1,-8,34,45,-2,4,-6
1523148499550798,57,10,4,16,5,3,-2,-15
1523148499559823,10,24,-1,-48,-31,0,-4,83
1523148499559823,13,8,-4,30,15,-2,0,-4
1523148499574361,36,32,11,16,-1,3,10,20
1523148499574361,-10,-53,-7,-11,-12,-4,-15,1
1523148499576366,11,21,-12,4,14,-2,0,7
1523148499576366,-71,11,-14,-6,4,-9,-15,-31
1523148499597421,-7,-40,13,-11,-17,0,4,5
1523148499597421,-1,41,-13,25,14,0,9,-15
1523148499598424,68,-17,12,8,9,5,10,1
1523148499598424,-58,-20,-7,-9,-18,-7,-11,-23
1523148499619674,-26,-4,-16,-18,-11,2,-5,-16
1523148499619674,12,11,-2,25,17,1,9,17
1523148499621581,-55,-19,-5,-2,-3,-5,0,-27
1523148499621581,48,12,1,-6,-15,5,0,11
1523148499634968,24,21,4,-8,1,-3,0,-24
1523148499634968,-3,-5,-6,4,-8,-2,-10,39
1523148499636457,16,24,-8,-4,14,0,6,-8
1523148499636457,5,4,0,-9,-22,-6,-4,20
1523148499657407,-16,-12,14,-14,8,2,8,-29
1523148499657407,-46,-20,-3,12,8,-6,-18,8
1523148499658984,14,22,-17,1,-6,-3,-2,0
1523148499658984,9,-12,8,2,10,4,9,2
1523148499679377,-27,-12,-5,3,-19,1,-6,-8
1523148499679377,34,-1,-9,-24,14,0,4,-6
1523148499681382,-25,-13,-5,13,29,-4,-5,-42
1523148499681382,11,5,2,-24,-12,1,-6,39
1523148499694416,19,15,17,12,5,-5,-2,24
1523148499694416,-9,-2,20,-22,-14,2,3,-20
1523148499696422,-12,-8,-4,-16,-9,-1,-4,-8
1523148499696422,3,40,10,-16,-26,4,9,-4
1523148499716976,19,-40,-7,64,31,-8,-10,2
1523148499716976,-16,11,-2,-45,-11,5,3,-5
1523148499719108,-3,-14,13,3,53,-6,-1,-8
1523148499719108,12,0,-9,-66,-16,3,5,8
1523148499739773,-13,4,-15,-16,-20,-4,-6,4
1523148499739773,-13,32,13,86,11,-6,-6,-38
1523148499741631,13,-10,-7,-116,-41,5,1,23
1523148499741631,1,-19,-9,55,36,-2,-2,-25
1523148499754803,-6,-5,3,-29,-3,6,5,9
1523148499754803,-10,-5,-15,38,29,-8,-3,-7
1523148499756638,-14,-1,11,-43,-36,2,2,-11
1523148499756638,-14,-13,3,-9,12,-12,-17,15
1523148499777137,8,0,11,45,2,8,3,-10
1523148499777137,2,-10,-2,-47,-28,-1,5,19
1523148499778642,-11,-86,-9,53,5,-4,-9,-9
1523148499778642,10,1,31,3,38,18,14,5
1523148499799697,-7,-11,-26,13,-4,-19,-10,-2
1523148499799697,-9,3,5,-47,-19,-3,-1,-4
1523148499801203,3,24,-11,-44,-34,-3,-2,-4
1523148499801203,15,-18,15,-5,2,-2,4,-2
1523148499813941,-5,-18,5,13,37,3,-4,4
1523148499813941,-9,-5,-11,0,-23,-4,-2,-9
1523148499820909,-11,29,-1,77,-12,2,-1,-5
1523148499820909,-4,-22,-28,-29,-9,0,4,-6
1523148499837297,10,100,-4,-17,20,-4,-5,5
1523148499837297,5,-19,-14,8,7,-2,-1,3
1523148499838801,21,-17,6,-93,-34,12,9,6
1523148499838801,-21,13,-12,95,10,-10,-4,-8
1523148499859355,-9,-9,8,72,44,-6,-6,3
1523148499859355,0,7,-3,-44,-26,4,5,-1
1523148499861361,-25,0,1,-15,17,-2,-2,-1
1523148499861361,16,34,3,-4,-7,4,7,-2
1523148499882119,1,-25,-22,-48,-31,-2,-1,-2
1523148499882119,-2,2,11,25,8,1,-2,-14
1523148499883623,-9,-11,-1,-10,24,-6,-2,9
1523148499883623,-3,-4,-11,30,1,-8,-7,-3
1523148499897184,-6,-12,-6,-31,-27,3,5,4
1523148499897184,-1,11,4,-25,3,7,4,-51
1523148499898663,3,10,-10,-1,-32,-8,-9,72
1523148499898663,0,-7,1,37,26,-1,-6,-14
1523148499919765,3,-1,3,-51,-17,2,1,0
1523148499919765,-1,-14,8,57,24,-1,-3,-14
1523148499921272,6,52,-5,37,10,-3,1,-17
1523148499921272,1,-23,-10,-83,-49,-1,2,-3
1523148499934041,-14,-39,-15,74,48,0,-10,6
1523148499934041,0,3,5,-22,-26,-1,1,9
1523148499940823,0,0,11,63,13,6,1,-17
1523148499940823,-4,-6,-19,-63,-2,-4,-4,2
1523148499957476,7,-9,24,-64,-60,7,13,-8
1523148499957476,5,32,1,-20,27,1,-6,12
1523148499958872,6,11,-1,10,-3,-12,-9,-5
1523148499958872,-4,5,5,106,37,-3,-6,-22
1523148499979988,23,-7,-9,-97,-29,2,2,-4
1523148499979988,-1,-2,3,41,28,-1,0,11
1523148499981432,-5,-10,5,23,3,0,0,-4
1523148499981432,-1,-9,3,-16,1,3,4,-3
1523148499993967,-1,29,2,18,28,5,4,5
1523148499993967,-8,-16,-5,19,-87,-14,-1,-24
1523148500000723,36,2,3,-4,-1,1,-2,-8
1523148500000723,0,-30,1,-14,-6,-2,-7,-6
1523148500017229,-2,-6,7,-70,-30,-1,1,10
1523148500017229,-2,4,-9,-36,15,1,1,-1
1523148500019113,-34,-24,-4,82,77,-7,-4,-16
1523148500019113,-14,51,0,-48,-36,3,8,17
1523148500039586,13,14,-10,-39,-19,1,-5,-18
1523148500039586,10,-22,1,-22,-7,6,2,22
1523148500041092,-20,-3,-2,-59,-14,-9,-6,-14
1523148500041092,3,1,-1,29,27,-1,6,2
1523148500054319,-23,-6,-10,31,-3,-2,0,12
1523148500054319,42,18,11,34,20,-4,-4,0
1523148500060717,12,10,-23,-10,-11,8,5,-3
1523148500060717,-17,-3,-30,-7,-12,-3,-1,-50
1523148500077260,12,-5,6,19,-3,-1,7,21
1523148500077260,30,-8,8,-5,-2,-1,-8,6
1523148500078764,-5,20,10,-25,-11,-1,1,-18
1523148500078764,-16,6,-5,-3,1,-5,-4,23
1523148500099550,-27,8,1,16,7,2,-3,-11
1523148500099550,70,-10,8,-12,12,-8,-7,23
1523148500101324,-76,-45,17,-22,-27,-11,-17,-69
1523148500101324,85,-18,28,19,9,9,14,56
1523148500113344,-53,27,-18,2,-12,-13,-11,-47
1523148500113344,-55,11,-9,-12,12,3,-16,-11
1523148500121932,-43,8,4,5,-8,8,28,8
1523148500121932,42,34,11,0,-4,-10,-16,20
1523148500137212,51,-18,1,-4,12,8,7,2
1523148500137212,-1,15,-27,-22,-11,-10,-4,-10
1523148500139146,64,0,-1,6,-2,-1,-7,4
1523148500139146,-41,-9,-9,-1,6,0,-2,3
1523148500160033,21,0,18,13,-6,-1,2,11
1523148500160033,-40,-18,-15,0,-8,-1,4,-9
1523148500161538,27,-6,0,-28,-29,1,-3,13
1523148500161538,-7,-21,29,28,29,2,5,7
1523148500173598,-23,11,-23,35,-10,-13,-17,-18
1523148500173598,12,-21,16,-3,6,4,7,10
1523148500188610,0,13,-6,-6,3,2,0,21
1523148500188610,-22,-13,-15,-117,-64,-3,-3,-22
1523148500197371,-11,9,-3,51,54,-9,-11,-8
1523148500197371,-10,-2,3,106,34,0,5,5
1523148500198636,9,-12,-15,-62,-16,4,3,10
1523148500198636,-18,13,6,-29,-8,1,-1,-17
1523148500219692,22,-14,-1,38,9,-3,2,9
1523148500219692,-10,-13,-4,-68,-29,2,1,12
1523148500221198,3,-20,7,-7,28,-4,-6,-3
1523148500221198,-11,-11,-11,38,7,2,1,-3
1523148500233228,-14,-48,13,-64,-50,4,5,8
1523148500233228,14,20,-4,71,38,-1,3,8
1523148500242251,-6,-9,-2,-31,-18,-1,1,4
1523148500242251,51,-9,-6,-42,-16,-2,-13,0
1523148500257293,5,-8,-11,63,41,-4,0,4
1523148500257293,-24,-11,6,22,-7,0,3,3
1523148500258796,-1,8,1,-31,-13,3,0,-3
1523148500258796,12,27,6,36,45,3,2,7
1523148500279971,-8,0,10,-48,-57,-6,-5,-4
1523148500279971,2,2,-2,-126,-22,8,1,2
1523148500281356,18,3,0,125,19,-8,-4,17
1523148500281356,-30,-14,-12,2,14,2,6,-29
1523148500293388,12,-2,5,-40,-12,14,7,50
1523148500293388,26,23,-8,88,26,-14,-7,-32
1523148500302413,-9,-13,1,-22,-10,-1,-1,20
1523148500302413,5,-2,-11,-8,-13,1,9,20
1523148500317193,-20,11,5,-57,-21,6,-5,-25
1523148500317193,-2,-3,-14,-80,-13,-3,0,2
1523148500319032,-6,48,5,84,42,-2,-2,4
1523148500319032,20,-17,2,-23,-19,-8,-6,-23
1523148500340011,7,2,8,-54,-10,-2,5,18
1523148500340011,-11,-14,17,36,10,9,6,8
1523148500341599,-14,-7,-2,0,-3,-10,-9,-20
1523148500341599,-3,-8,16,22,13,0,-3,8
1523148500353619,20,24,10,-53,4,2,-3,-9
1523148500353619,-17,-16,-9,20,-11,-5,-6,-12
1523148500362573,20,-6,-1,0,9,6,9,-1
1523148500362573,-32,20,-1,15,-23,-1,-7,-5
1523148500377354,-4,-8,-7,-39,1,-1,2,-5
1523148500377354,-15,-5,-2,-16,-22,0,3,-53
1523148500378615,16,-43,-8,13,27,-1,-3,48
1523148500378615,-60,-5,-7,-39,-36,-8,-12,-21
1523148500399902,-6,-3,-16,74,18,-9,-7,-5
1523148500399902,-9,-10,-7,8,41,-6,-3,-4
1523148500401175,-1,-10,0,-11,-27,-5,-1,-20
1523148500401175,-4,-43,-2,-11,0,2,15,15
1523148500413439,11,5,3,-7,-10,4,-4,2
1523148500413439,-4,8,10,-85,-51,8,5,19
1523148500422230,-11,4,-2,68,71,-2,-8,-17
1523148500422230,11,1,0,-45,-6,-1,-1,15
1523148500437466,-12,-8,-9,-19,-5,-1,2,-18
1523148500437466,-9,-2,8,-38,2,0,-2,16
1523148500438775,-2,9,-1,-128,-75,9,5,-4
1523148500438775,-16,25,-6,127,61,-3,-5,-17
1523148500467081,14,-19,-14,17,18,-6,-5,-1
1523148500467081,9,5,6,47,5,2,-1,-9
1523148500468855,23,-1,-2,-61,-14,3,2,-15
1523148500468855,8,11,1,12,-29,-4,-1,30
1523148500473550,11,0,-5,63,34,-3,-4,-1
1523148500473550,6,-21,-3,19,14,-2,-1,-12
1523148500482391,-34,14,-1,63,4,-1,3,-3
1523148500482391,16,11,1,-54,-18,-1,0,-14
1523148500497163,-2,-13,-7,-116,-89,9,8,1
1523148500497163,-11,-26,-4,94,94,-21,-17,-13
1523148500498936,19,21,4,-14,-20,0,4,18
1523148500498936,8,-14,-1,-46,-16,5,1,8
1523148500519708,-20,-7,1,-11,-8,0,-5,3
1523148500519708,4,26,-8,-34,-25,3,-3,8
1523148500521534,-11,6,1,-33,-37,-2,1,-6
1523148500521534,18,2,-11,63,54,-5,-1,6
1523148500533551,-17,-3,11,2,3,5,9,-64
1523148500533551,7,-13,-14,4,-10,-2,-3,88
1523148500542074,53,-20,-14,-6,7,-4,-13,-5
1523148500542074,62,1,-4,-31,-16,-4,-3,-13
1523148500557371,7,6,4,6,14,2,1,-1
1523148500557371,-2,0,-2,-33,-40,-4,1,-21
1523148500558672,-35,-42,-13,41,14,0,4,4
1523148500558672,-9,-16,4,29,6,1,-5,5
1523148500579925,5,14,-8,9,8,-6,-8,3
1523148500579925,0,10,8,-26,-13,5,5,9
1523148500581261,12,-9,0,-40,-11,0,-3,-15
1523148500581261,-10,7,3,-2,-13,-4,0,-18
1523148500602404,-1,2,10,46,28,0,4,28
1523148500602404,11,5,-7,-24,-22,6,6,-16
1523148500603794,-20,-17,12,25,12,0,-2,9
1523148500603794,-65,18,2,10,9,-1,-8,-20
1523148500617403,-49,13,-20,-6,-15,-13,-12,-36
1523148500617403,90,15,-7,-10,2,3,-1,70
1523148500618833,-23,-2,5,-7,-5,-2,-1,-26
1523148500618833,-32,-1,-6,-13,-6,-5,-8,-7
1523148500639548,-1,-54,-13,0,6,-1,3,12
1523148500639548,-19,-12,6,1,-11,-1,0,-18
1523148500641393,-66,11,-3,2,6,-4,-14,-44
1523148500641393,10,-13,5,-4,-6,4,4,10
1523148500661976,61,20,-2,14,2,-7,-3,12
1523148500661976,14,11,-1,2,5,1,6,13
1523148500663953,16,10,-5,-14,-3,4,5,19
1523148500663953,-2,-19,-17,6,-4,0,-3,-15
1523148500676487,-5,-5,18,15,6,0,3,16
1523148500676487,8,7,4,-5,-3,-2,-2,-13
1523148500683339,62,17,-11,5,3,3,1,17
1523148500683339,-43,-4,0,-1,1,2,1,-3
1523148500699882,-3,7,0,-41,-14,3,4,15
1523148500699882,-48,-23,-2,73,23,-11,-13,-27
1523148500701231,-10,-1,-5,-37,-15,-4,0,-6
1523148500701231,31,7,9,31,3,7,5,12
1523148500722143,-7,-9,-3,63,38,-8,-6,-1
1523148500722143,-30,-2,0,-41,-23,0,-1,-17
1523148500724044,-21,13,8,-73,-44,13,9,9
1523148500724044,1,-8,-4,75,75,-20,-15,-6
1523148500736175,-13,15,11,-113,-71,8,4,2
1523148500736175,-18,3,3,-71,-42,5,5,-8
1523148500744542,4,-17,-17,85,93,-25,-15,-4
1523148500744542,31,11,2,-106,-49,11,6,6
1523148500759765,4,0,5,43,23,-2,-5,-7
1523148500759765,-4,-3,0,-109,-58,8,4,-4
1523148500761266,14,2,7,-6,-36,1,4,7
1523148500761266,-5,-2,5,90,56,-2,-2,-4
1523148500782323,-17,-5,-5,-56,-19,4,2,13
1523148500782323,24,49,2,86,3,-5,-2,1
1523148500783828,-45,-13,4,52,26,-3,-4,-13
1523148500783828,-4,-35,-1,-49,-53,0,3,1
1523148500796015,5,8,6,46,56,2,4,22
1523148500796015,-12,-10,6,1,5,1,-1,-15
1523148500804884,12,26,-2,-92,-52,8,6,10
1523148500804884,59,-23,6,106,84,-2,-6,10
1523148500819658,6,0,0,-44,-29,2,7,-6
1523148500819658,2,-19,-11,9,16,-5,-4,-9
1523148500821426,7,2,-4,13,7,-10,-7,3
1523148500821426,15,22,1,-118,-76,10,8,-7
1523148500841982,2,1,1,6,10,0,-1,-4
1523148500841982,-11,-11,5,119,64,0,-2,-2
1523148500843989,-1,-3,5,-67,-14,2,-3,-5
1523148500843989,-25,19,-8,-46,-15,-1,2,4
1523148500856113,9,-8,10,24,-19,-1,-5,-12
1523148500856113,-11,0,-2,37,26,-2,1,10
1523148500864543,-39,16,4,-9,14,2,0,1
1523148500864543,-3,6,0,-32,-8,-3,2,-6
1523148500879825,1,0,-3,18,5,-1,-3,-2
1523148500879825,8,-5,9,4,-1,5,7,-11
1523148500881086,-38,-5,0,64,9,-3,0,12
1523148500881086,6,5,-4,11,0,-5,-5,3
1523148500902142,-12,4,2,-62,-30,1,0,-2
1523148500902142,-33,-32,-9,20,8,-2,-1,-9
1523148500903646,13,28,-2,19,1,2,0,-8
1523148500903646,2,11,-6,-33,-8,-9,-5,0
1523148500916752,8,-7,-4,-31,-17,-1,-2,2
1523148500916752,-3,4,-4,-35,3,-2,-3,-6
1523148500923426,13,-19,-5,21,5,-7,-5,-6
1523148500923426,17,-10,4,-9,10,-2,1,-2
1523148500940023,9,-3,-11,96,29,-8,-3,11
