timestamp,emg1,emg2,emg3,emg4,emg5,emg6,emg7,emg8
1523149290125769,16,6,24,56,44,66,-24,-4
1523149290125769,-18,-4,-13,-28,9,-22,-41,-2
1523149290138302,9,-1,-4,17,5,6,-2,-3
1523149290138302,-39,-42,-5,-36,-7,-16,13,-9
1523149290145337,18,8,17,35,-29,-11,50,4
1523149290145337,7,17,-18,-23,-1,-15,20,-15
1523149290161364,33,19,15,-9,21,6,26,23
1523149290161364,-78,-3,-32,-14,-4,-16,19,-12
1523149290163370,1,-10,-33,35,-24,21,14,-7
1523149290163370,9,-57,63,-26,3,-21,-21,-10
1523149290183923,-49,-17,-88,0,26,-1,9,9
1523149290183923,37,18,50,-9,-19,-4,-15,-7
1523149290185427,-39,5,0,19,-9,14,6,-10
1523149290185427,66,41,-30,-2,22,-3,5,18
1523149290198463,-20,-10,35,-4,8,2,-28,-26
1523149290198463,61,-8,-123,-9,-16,7,-7,15
1523149290204979,-14,2,-7,14,-8,6,-30,-3
1523149290204979,33,-10,32,-31,5,-21,4,1
1523149290221523,-20,-9,32,25,8,13,6,6
1523149290221523,-26,14,-49,38,-7,5,-18,-28
1523149290223028,-16,-25,120,-44,-14,-12,-17,5
1523149290223028,4,-7,-9,-27,-1,-8,9,7
1523149290244083,-56,-11,-45,-36,-1,4,-4,-6
1523149290244083,17,25,94,86,19,7,-16,-4
1523149290245589,34,0,44,-26,-3,7,17,17
1523149290245589,-12,-11,-128,8,-10,-10,11,-7
1523149290258121,-8,-9,58,6,-2,-5,-12,-4
1523149290258121,12,0,18,-31,-12,-16,-12,-3
1523149290265140,-10,10,30,23,6,6,1,-3
1523149290265140,-14,9,-38,33,17,7,-5,7
1523149290281683,38,6,-65,5,10,9,13,2
1523149290281683,-4,-2,102,-2,2,7,6,7
1523149290283188,-13,-15,-125,2,-25,-7,-10,-7
1523149290283188,4,19,112,-34,1,-9,3,4
1523149290304264,34,8,37,99,12,0,0,-6
1523149290304264,-89,-33,-62,-117,-7,3,13,-5
1523149290305750,29,6,2,26,2,2,-2,5
1523149290305750,-18,-4,-62,2,-3,-9,-9,-9
1523149290317782,11,5,-5,-22,-9,-6,-7,-5
1523149290317782,23,8,7,21,2,-2,2,7
1523149290326805,-1,-6,0,6,-10,0,3,3
1523149290326805,-21,3,52,-9,19,18,6,1
1523149290341844,1,0,-51,11,-2,3,-1,-1
1523149290341844,44,4,15,35,-6,-6,-4,6
1523149290343350,-41,-3,-72,-20,-5,-6,-6,-7
1523149290343350,-17,-5,44,-12,-8,-7,-10,-7
1523149290364409,10,7,31,-25,-4,1,5,-2
1523149290364409,43,0,-24,-13,-2,-3,-15,4
1523149290365912,-18,-1,34,48,4,2,33,9
1523149290365912,63,10,-17,3,-3,-3,-7,2
1523149290377941,-29,18,10,-25,1,-1,8,-11
1523149290377941,4,-8,-1,-3,-3,-1,-6,-1
1523149290386966,14,20,52,3,3,4,-8,1
1523149290386966,-4,0,-13,8,7,5,10,10
1523149290401506,-9,-17,46,-20,-4,-1,-1,-20
1523149290401506,35,23,39,4,0,-2,-3,12
1523149290403009,8,0,-15,-10,-2,-3,0,-21
1523149290403009,-21,2,-18,8,4,0,1,-2
1523149290424072,-12,-4,-4,13,9,6,7,24
1523149290424072,-20,-7,-29,-20,-5,0,-17,5
1523149290425581,56,20,-16,0,4,-5,-19,-30
1523149290425581,-36,-10,46,15,-8,-5,51,8
1523149290437626,50,2,17,-30,-5,-7,-12,6
1523149290437626,2,8,5,6,-3,0,-3,0
1523149290446624,-9,-34,24,12,2,2,2,19
1523149290446624,-3,-9,-67,-31,-5,0,-16,-15
1523149290461665,-1,-4,-1,-5,-2,2,-10,16
1523149290461665,13,-8,-39,-56,-13,-5,1,9
1523149290463168,-69,17,-10,-108,-7,-1,2,-21
1523149290463168,-13,-4,60,116,1,-15,24,-11
1523149290484326,39,5,-2,12,8,3,0,7
1523149290484326,-34,1,-51,3,2,7,-13,15
1523149290485832,11,5,8,-73,7,10,6,8
1523149290485832,-5,-8,13,50,7,0,-32,-4
1523149290497863,2,9,-39,-9,-16,-6,2,-2
1523149290497863,7,-7,61,-69,-15,-2,20,-14
1523149290506893,-13,-26,-58,81,28,0,19,8
1523149290506893,-17,11,33,-56,2,4,-16,-8
1523149290521451,54,19,-81,-54,-7,-4,-15,9
1523149290521451,-3,-6,29,-49,-11,-2,-12,-7
1523149290523432,-8,-13,16,18,-7,-8,-14,38
1523149290523432,-27,-8,44,69,0,-4,26,-32
1523149290543990,40,11,-30,38,3,2,-34,19
1523149290543990,-68,6,-63,-34,1,-3,-31,73
1523149290545492,51,5,67,58,-1,2,44,-23
1523149290545492,-3,0,-27,-13,1,3,-53,-40
1523149290557547,-106,-12,-38,-53,-9,-5,82,-17
1523149290557547,16,-34,-8,56,10,3,12,-19
1523149290566552,-14,6,30,38,-5,-6,-37,39
1523149290566552,-26,-30,-28,-21,-8,1,-1,10
1523149290581625,4,-1,44,3,3,-3,-38,-22
1523149290581625,13,15,19,31,4,-6,-29,-10
1523149290583092,-6,5,-3,6,-3,2,31,-4
1523149290583092,23,1,-17,-63,-6,-2,4,-5
1523149290604171,-12,-3,25,14,3,-3,-21,4
1523149290604171,0,-3,14,28,7,0,20,-20
1523149290605652,17,2,-12,-14,-9,1,-14,-17
1523149290605652,10,16,-23,-18,-4,-1,-3,36
1523149290617709,3,-15,14,18,1,0,4,9
1523149290617709,-6,5,79,20,0,-1,12,-36
1523149290626711,1,-5,-99,-15,-4,-2,-16,-13
1523149290626711,8,0,-13,-12,-5,-4,2,2
1523149290641772,-26,-11,18,5,-2,-3,4,-5
1523149290641772,12,-1,-3,-4,1,-3,10,-13
1523149290643253,-6,4,23,-6,-1,-2,-18,1
1523149290643253,13,9,89,-13,-7,-2,-5,15
1523149290664307,4,-7,19,4,0,-1,3,-8
1523149290664307,26,7,-9,15,5,6,3,2
1523149290665812,-64,-7,-43,-8,-5,-4,-10,-13
1523149290665812,2,-8,1,-24,5,3,-9,5
1523149290677843,18,11,-29,-26,-7,0,7,-4
1523149290677843,-20,-18,-16,11,-18,-10,33,2
1523149290686872,13,10,18,11,3,1,-3,3
1523149290686872,-1,-11,-37,-16,-5,-2,4,-12
1523149290701907,-12,-2,7,19,3,-1,-11,-9
1523149290701907,4,1,-14,-2,4,2,-13,1
1523149290703411,13,13,14,1,-2,1,43,2
1523149290703411,0,-16,2,20,1,-1,12,4
1523149290723974,-4,-3,43,-8,-4,-2,-6,-1
1523149290723974,22,20,-13,8,2,1,3,-2
1523149290725471,-2,-27,17,4,-4,-2,-18,-3
1523149290725471,7,11,-15,8,1,-1,4,0
1523149290738004,2,-2,15,-12,3,3,-4,13
1523149290738004,-10,0,-15,18,5,3,19,0
1523149290746526,14,3,74,42,-5,-5,-15,0
1523149290746526,-2,0,-41,-70,-11,-5,-9,12
1523149290761566,-5,-3,-2,14,6,0,-4,-1
1523149290761566,-7,-1,-14,-3,4,1,-6,-20
1523149290763070,21,6,5,9,4,3,3,14
1523149290763070,-1,0,-20,-36,-9,0,-28,17
1523149290784652,22,0,-1,40,2,2,27,-25
1523149290784652,-2,1,-1,5,-1,-5,-32,12
1523149290786132,13,10,35,82,4,-3,20,-2
1523149290786132,5,-13,-7,-21,-2,-3,19,12
1523149290797666,-26,-16,-32,-48,-2,1,-8,-25
1523149290797666,-53,-3,-6,-33,-2,1,-15,-50
1523149290806689,41,8,-39,-128,-13,2,-30,4
1523149290806689,-12,-5,2,123,11,-14,-19,-35
1523149290820725,10,5,24,74,3,2,51,40
1523149290820725,1,-12,-4,-37,-3,2,9,0
1523149290827742,-16,-2,-20,-50,-8,-2,-12,12
1523149290827742,23,15,-28,-128,-9,5,-41,66
1523149290844286,-25,-6,53,107,16,-11,7,-88
1523149290844286,11,-9,4,-44,-6,-5,0,32
1523149290845790,0,0,-25,-25,-2,-1,-24,-30
1523149290845790,-8,-1,11,8,-1,2,0,3
1523149290857830,29,10,-12,-15,10,4,-1,43
1523149290857830,-36,-1,6,13,1,1,-5,-21
1523149290866845,16,-8,3,20,2,-1,0,2
1523149290866845,-64,5,47,33,0,2,5,-37
1523149290880909,-4,-5,-114,-98,-13,3,-34,15
1523149290880909,33,0,46,73,14,-2,0,22
1523149290887905,-12,-14,20,50,0,-8,-2,-2
1523149290887905,-2,6,1,1,-6,-4,-5,-12
1523149290903951,2,0,14,-61,-9,2,2,8
1523149290903951,3,6,-63,-8,-15,1,9,8
1523149290905950,-17,-5,3,36,8,1,15,-5
1523149290905950,18,-1,-14,-14,4,1,12,15
1523149290926507,-13,-2,-1,-42,-13,-6,-15,-25
1523149290926507,0,-7,-11,1,-4,-11,-93,24
1523149290928010,2,13,36,29,6,4,92,-91
1523149290928010,23,-2,-50,5,0,0,-17,14
1523149290941057,-9,-4,4,-13,-4,0,-9,31
1523149290941057,-3,0,7,-16,0,2,10,-3
1523149290948066,12,-5,-26,3,-4,-5,-52,34
1523149290948066,-5,10,7,-15,3,4,35,-35
1523149290964109,4,3,-1,15,-1,-2,17,-1
1523149290964109,9,1,-15,15,1,-1,6,-8
1523149290965609,-16,-15,15,-19,0,5,-3,22
1523149290965609,15,7,6,18,0,-2,6,-8
1523149290986672,-37,-9,30,11,0,0,4,1
1523149290986672,21,9,-6,4,1,1,22,-2
1523149290988168,-7,-14,-47,-32,-5,-2,-24,13
1523149290988168,-6,1,-2,8,1,-2,0,0
1523149291001210,-1,6,29,19,1,-1,-24,8
1523149291001210,52,-11,43,-10,-1,2,10,-19
1523149291007728,-22,8,14,-14,-3,1,-2,-17
1523149291007728,10,-2,-11,11,-1,-3,-6,12
1523149291023771,0,1,-27,4,-2,-1,-12,15
1523149291023771,-16,-8,1,-2,-3,0,8,-43
1523149291030280,0,2,-9,-12,-2,-2,13,12
1523149291030280,-3,-7,10,8,-1,-2,1,-25
1523149291046824,16,16,51,1,0,-1,-18,-15
1523149291046824,-13,0,-38,-11,-4,-1,26,32
1523149291048329,3,-2,15,3,5,0,-20,-2
1523149291048329,-20,-12,-16,-3,-4,-1,-12,13
1523149291060862,-7,-5,-9,4,1,0,6,-22
1523149291060862,9,8,21,3,0,-3,-8,6
1523149291069390,24,-6,-10,-5,0,-1,0,14
1523149291069390,-37,6,0,4,0,2,13,-5
1523149291083931,17,1,-8,2,-1,0,-15,13
1523149291083931,-21,-14,-9,0,-1,1,5,3
1523149291085929,-2,0,-20,-12,-6,-3,-16,-7
1523149291085929,49,7,23,3,-1,-2,-9,-1
1523149291106488,-44,-17,-13,0,-3,-3,16,-37
1523149291106488,-11,2,0,-1,0,2,1,1
1523149291107988,-2,1,-4,-3,-1,0,1,11
1523149291107988,18,4,25,6,1,-1,-4,-8
1523149291120525,0,-3,-18,-5,-1,-2,-11,8
1523149291120525,22,2,-2,1,-2,1,17,23
1523149291129545,-12,-9,-4,-22,0,-1,-12,-19
1523149291129545,-25,-8,13,60,4,-4,-2,-5
1523149291144084,14,7,-16,-20,-2,-1,-8,3
1523149291144084,-11,0,8,32,3,1,-4,10
1523149291145587,24,7,7,-23,-3,2,13,-14
1523149291145587,-23,-3,-20,15,0,1,8,-7
1523149291166642,8,-2,-12,-39,-5,-10,-39,24
1523149291166642,2,0,-2,29,3,0,-1,0
1523149291168147,10,13,-1,-29,-4,3,43,7
1523149291168147,-3,-10,-8,-15,2,-2,-22,24
1523149291180178,11,-14,-3,50,3,2,3,16
1523149291180178,-26,14,4,-45,-5,-2,-5,-32
1523149291189202,-7,-8,-23,-31,-10,-8,-9,17
1523149291189202,11,-25,3,54,2,2,-3,0
1523149291204241,16,15,9,-15,5,3,13,25
1523149291204241,8,-6,3,-13,2,-2,13,-15
1523149291205747,4,9,-19,-1,-3,-1,-9,16
1523149291205747,-3,11,-4,-28,-8,-9,-50,38
1523149291226300,-3,-20,-8,27,-3,-9,-109,-39
1523149291226300,11,16,-12,-28,1,19,96,38
1523149291228309,-3,12,10,6,1,-2,-87,8
1523149291228309,-16,-13,4,9,1,0,0,27
1523149291240337,-4,10,11,29,5,-2,-46,38
1523149291240337,35,2,-7,-27,-1,-5,13,-52
1523149291249362,-14,-13,-10,31,-3,-3,9,8
1523149291249362,-15,5,6,-33,-3,2,-15,-26
1523149291263900,4,3,15,47,-3,-4,36,38
1523149291263900,-33,-22,8,12,5,-4,-17,-90
1523149291265404,-3,1,-4,-21,-1,2,42,11
1523149291265404,28,3,-10,-17,-2,-1,10,-2
1523149291286461,-3,4,-23,-45,-7,-1,27,-24
1523149291286461,-28,-8,-1,-7,-8,-7,-48,13
1523149291287965,2,-2,15,65,12,0,-5,13
1523149291287965,26,5,12,6,-1,-2,28,-29
1523149291309029,-27,-8,-3,-32,-6,3,11,-7
1523149291309029,-9,-6,-19,-53,-10,-6,-32,-1
1523149291310525,-25,-4,11,16,5,-1,-9,-5
1523149291310525,19,7,-9,7,-6,-1,8,-8
1523149291324069,12,-3,-12,0,-3,-1,34,-8
1523149291324069,-10,-5,-19,24,5,-4,-81,84
1523149291325565,-16,-5,44,35,3,5,82,-71
1523149291325565,-10,0,-6,-7,-6,0,14,19
1523149291346626,21,6,-4,-26,-2,1,-13,-1
1523149291346626,-5,3,-11,-18,-1,4,-1,25
1523149291348128,14,-6,-10,18,-4,-5,-30,4
1523149291348128,-15,-2,11,31,3,2,-7,-21
1523149291360158,-5,-10,1,2,2,-4,-9,-3
1523149291360158,49,18,60,19,-1,-1,34,19
1523149291369187,-25,-8,-54,-20,-4,-4,-55,-32
1523149291369187,1,1,-1,-65,1,5,77,-12
1523149291384229,7,-3,-12,18,0,-5,-29,-27
1523149291384229,-7,-2,12,17,-2,-1,1,-30
1523149291385726,4,1,3,-26,-4,-3,-8,14
1523149291385726,-9,-8,7,0,-3,-4,-28,0
1523149291406815,-12,4,-2,-1,0,1,4,-18
1523149291406815,-2,-1,-11,7,-2,-4,4,11
1523149291408286,9,10,4,-18,-2,0,-20,-14
1523149291408286,-1,0,-9,-13,-3,-6,-12,-3
1523149291420856,-3,2,2,4,0,3,12,20
1523149291420856,-2,1,-4,11,0,1,8,-16
1523149291427843,4,-9,19,-8,-2,-1,-17,22
1523149291427843,-22,-3,-70,0,0,-1,5,4
1523149291444384,-2,6,-2,-2,-3,1,13,13
1523149291444384,24,-2,2,-2,-1,-2,-12,-26
1523149291445886,-22,0,-30,5,1,-1,43,7
1523149291445886,32,-9,24,-3,1,1,1,-1
1523149291466444,-4,-7,8,-7,-1,0,14,-14
1523149291466444,-12,-2,-7,5,2,-1,11,7
1523149291468447,9,0,31,-3,-2,-3,-23,-1
1523149291468447,-9,5,6,-4,-3,-1,-15,-9
1523149291480988,15,6,15,-4,-1,-2,-1,19
1523149291480988,10,-6,-10,11,3,4,15,-14
1523149291488003,-6,-2,-2,-5,-3,-3,-24,1
1523149291488003,-1,4,-12,-13,-3,0,5,13
1523149291504042,-23,-20,6,2,-2,-7,-20,-31
1523149291504042,-17,-4,2,0,-2,-5,-8,5
1523149291505547,-5,2,14,-2,0,-1,-9,-3
1523149291505547,17,-7,-40,0,0,0,-4,9
1523149291526601,3,8,-16,0,0,3,11,10
1523149291526601,7,-1,34,3,-2,-1,-21,24
1523149291528106,6,0,-15,0,2,4,14,10
1523149291528106,-8,-1,17,1,-1,-1,-7,0
1523149291541139,-1,3,10,0,-2,-1,21,-11
1523149291541139,-16,-3,19,-1,-2,-4,-15,3
1523149291547713,2,-5,-20,-2,-2,-2,5,3
1523149291547713,6,3,19,1,3,2,-8,-11
1523149291564205,-77,-7,-10,-5,-2,3,34,2
1523149291564205,8,2,3,2,-1,-2,-6,-8
1523149291565705,6,4,8,0,0,-1,8,6
1523149291565705,-8,-2,29,1,-1,-4,-9,-15
1523149291586763,19,1,-11,-7,-1,-1,-5,-2
1523149291586763,-3,-2,-20,-8,-1,-1,-5,5
1523149291588265,-7,-3,15,5,-3,0,17,33
1523149291588265,-16,-2,-6,10,0,-2,-7,-23
1523149291600301,13,2,11,5,1,1,0,0
1523149291600301,12,2,-14,-33,-2,1,-4,8
1523149291609320,-5,-3,-1,23,3,-4,-26,-13
1523149291609320,-10,2,26,33,0,-3,36,-6
1523149291623913,16,1,-22,-40,-3,-1,-7,3
1523149291623913,5,1,7,29,-2,0,-12,10
1523149291625868,-19,-8,-11,-9,-2,0,-8,-15
1523149291625868,-1,3,-21,-94,-5,0,-8,-3
1523149291646921,1,-6,7,43,0,-2,7,-6
1523149291646921,-1,-2,6,55,1,-6,-2,-11
1523149291648425,-3,4,1,13,3,2,14,-9
1523149291648425,44,5,-6,-20,1,3,-4,0
1523149291659954,-31,2,4,-28,-4,1,-18,2
1523149291659954,-10,-23,-27,-53,-3,1,14,18
1523149291668982,-31,0,-9,-21,-7,-4,-22,-53
1523149291668982,1,-4,-6,73,1,-4,-57,-30
1523149291684056,21,2,0,-21,1,6,48,46
1523149291684056,-8,-9,-15,43,-5,-11,-52,16
1523149291686025,18,-1,-11,-35,-6,-3,-29,3
1523149291686025,-60,3,-18,47,-1,5,38,3
1523149291706579,39,-14,16,-55,3,-3,-11,-15
1523149291706579,-13,6,20,68,9,3,13,-28
1523149291708084,25,10,-5,-49,-8,-3,-30,69
1523149291708084,9,10,-5,14,3,-4,-18,19
1523149291720114,11,0,9,48,3,0,-11,-4
1523149291720114,-33,5,-19,-117,-6,3,13,13
1523149291729139,15,-26,10,82,7,-2,-10,18
1523149291729139,-17,-13,7,-25,-7,0,41,-46
1523149291744179,13,4,-6,-5,0,-2,16,-6
1523149291744179,-36,8,2,-30,0,-3,-58,-38
1523149291745683,21,17,6,3,2,8,53,23
1523149291745683,-13,-16,-17,19,3,-2,7,39
1523149291766853,-10,-2,9,23,-5,-6,-37,-16
1523149291766853,5,-7,-18,-21,-7,0,3,-37
1523149291768244,0,-12,20,27,7,0,17,2
1523149291768244,16,2,-24,6,-1,-3,-12,34
1523149291780275,-1,-2,6,-17,-5,-3,-25,1
1523149291780275,35,25,3,33,2,-1,13,-2
1523149291789299,-18,-31,-17,-48,-4,0,34,-13
1523149291789299,3,2,14,-41,-3,-2,-21,-3
1523149291804470,5,-3,-6,46,0,-3,-21,11
1523149291804470,4,1,-13,-6,-4,5,38,-29
1523149291806085,1,6,10,17,5,-3,-2,-26
1523149291806085,2,15,18,-20,-4,-3,-4,8
1523149291826169,-11,-3,-60,-33,-7,-1,15,-12
1523149291826169,3,-2,65,10,1,-4,-7,22
1523149291833189,-46,0,-48,-1,0,2,3,-22
1523149291833189,6,-1,-2,-10,-3,-2,-8,1
1523149291848395,0,1,13,34,1,-2,-13,7
1523149291848395,11,0,-11,-7,-2,0,23,-2
1523149291849231,0,9,27,-8,-7,-3,-12,-4
1523149291849231,1,-9,19,12,2,-1,3,9
1523149291863401,-6,2,4,6,1,-2,-11,-16
1523149291863401,-1,-10,-16,10,2,-1,-16,3
1523149291864272,2,1,-5,-19,-4,-2,-35,-10
1523149291864272,2,0,-17,-17,-4,0,19,67
1523149291885881,5,3,6,18,4,7,47,-17
1523149291885881,-17,-14,31,35,3,1,0,13
1523149291886832,8,10,-45,-28,-3,-2,-13,-13
1523149291886832,10,-2,8,-24,2,-2,-21,3
1523149291908424,-11,-3,12,-4,0,2,1,3
1523149291908424,31,1,-4,-4,-4,-2,18,42
1523149291909393,-26,-3,6,7,1,0,-2,-41
1523149291909393,0,0,-9,12,-4,-3,-7,-10
1523149291923434,-5,-15,-43,-12,-1,-1,-6,3
1523149291923434,-38,4,-33,-2,-3,1,-2,-21
1523149291924433,58,9,30,4,-2,2,52,40
1523149291924433,-20,1,-36,-10,2,0,-2,-27
1523149291946000,-5,8,22,4,-1,-3,-17,-26
1523149291946000,2,-1,2,-11,-4,-5,5,27
1523149291946491,13,-6,19,6,2,0,0,4
1523149291946491,-17,6,-4,5,1,2,3,-6
1523149291968556,45,8,6,-4,-2,1,6,10
1523149291968556,0,-20,-18,-6,-1,-2,-19,-34
1523149291969052,-17,15,22,2,-2,-4,-8,1
1523149291969052,13,-7,35,3,-1,0,16,-2
1523149291983596,-9,1,6,-9,-5,-6,-6,1
1523149291983596,-6,-12,-10,-5,0,3,-3,-12
1523149291984091,-5,-6,-1,4,0,0,-1,16
1523149291984091,-13,1,26,0,-8,-11,-27,-44
1523149292006150,11,8,14,-2,7,6,-13,16
1523149292006150,-19,-11,-19,-1,1,1,31,-11
1523149292006657,3,2,0,4,-3,-5,-2,12
1523149292006657,5,4,-15,-4,-3,-6,-27,-7
1523149292028711,17,5,17,2,1,4,26,15
1523149292028711,-14,2,18,0,0,0,-11,6
1523149292029211,2,-3,-46,-4,0,0,-17,-5
1523149292029211,2,-10,-6,-7,-4,1,11,-15
1523149292043249,1,-2,-16,-8,-3,-4,5,-15
1523149292043249,-49,7,3,-5,-1,-2,3,-2
1523149292044251,-1,-10,-19,5,-2,-2,-5,-4
1523149292044251,6,-2,9,8,4,7,10,17
1523149292065812,-9,10,-25,-30,-5,2,-6,-6
1523149292065812,25,5,34,14,-2,-3,-8,7
1523149292066812,-4,-14,-2,3,0,-5,-6,22
1523149292066812,-40,3,-3,16,2,-2,18,-80
1523149292088403,-10,-10,2,21,2,-1,7,9
1523149292088403,10,4,-2,-3,-7,-4,-22,-17
1523149292089379,12,8,-22,-71,-5,4,28,-5
1523149292089379,28,1,1,59,9,6,8,51
1523149292103575,-22,-7,-6,-31,-5,-5,-3,-44
1523149292103575,12,2,-15,-25,-4,2,2,28
1523149292104034,-11,3,18,33,1,-3,-16,-23
1523149292104034,17,-1,-16,-70,-5,-1,1,12
1523149292126087,-2,3,21,82,2,-6,-24,49
1523149292126087,6,-1,-7,-18,-2,-1,4,-25
1523149292126589,-20,-42,-46,-3,2,-2,-27,11
1523149292126589,-5,0,22,11,3,2,36,-43
1523149292148648,27,4,-6,1,2,1,-7,-4
1523149292148648,17,8,-7,1,-1,-5,-57,60
1523149292149149,0,18,36,-20,-5,7,46,14
1523149292149149,1,-8,17,-18,-3,-1,-37,9
1523149292170712,-30,-10,-29,-55,-5,-6,-62,3
1523149292170712,15,8,5,73,6,6,86,11
1523149292178727,-3,3,21,-15,-1,-2,-16,-16
1523149292178727,4,-4,-12,5,2,0,33,-25
1523149292185749,-10,-2,0,-65,-7,-5,-62,30
1523149292185749,-5,-6,14,68,5,-3,29,-39
1523149292186748,-3,0,-1,56,1,-2,19,-38
1523149292186748,8,-4,-21,-58,-4,1,-23,49
1523149292208461,-14,0,-2,-27,-4,-9,-64,0
1523149292208461,12,4,-9,-35,-7,2,88,-72
1523149292209307,2,-8,-22,-61,-5,0,3,8
1523149292209307,-14,3,12,48,2,-8,-49,8
1523149292223488,3,-3,13,-4,-2,1,35,-52
1523149292223488,-29,-4,-17,-15,-1,-5,-22,12
1523149292224346,38,7,16,-12,-2,-2,-31,16
1523149292224346,21,6,6,-14,-1,4,41,10
1523149292245967,-24,-23,29,-12,-7,-3,-2,16
1523149292245967,-4,-14,-64,15,-4,-5,-42,45
1523149292246924,-10,7,0,-68,0,4,30,-24
1523149292246924,1,3,55,46,0,-7,-20,3
1523149292268248,26,3,-27,37,5,3,13,10
1523149292268248,-21,-17,11,-38,0,2,-32,-20
1523149292269135,9,2,1,33,-8,-5,-26,4
1523149292269135,-16,0,-11,-83,-1,3,-6,-3
1523149292283673,0,12,13,48,12,1,10,5
1523149292283673,28,-5,8,-18,-3,-1,9,-43
1523149292284174,-62,0,0,23,0,-7,-42,-39
1523149292284174,0,-2,-23,-30,-3,2,40,8
1523149292305788,-9,-6,5,33,-2,1,16,-1
1523149292305788,18,2,-5,-29,1,-1,-29,38
1523149292306735,51,6,16,12,1,2,12,16
1523149292306735,-53,-11,-13,48,0,-7,-82,-30
1523149292328351,33,9,-16,-48,0,8,107,-35
1523149292328351,-18,1,25,36,2,0,-17,29
1523149292329295,13,2,3,-14,-5,-2,-4,8
1523149292329295,8,-3,-22,14,-6,-1,-9,-1
1523149292343456,-1,1,24,-58,-1,-4,0,-6
1523149292343456,-9,0,-31,9,1,-4,-24,29
1523149292343958,-10,-3,-16,-6,1,1,36,-32
1523149292343958,13,7,-15,-11,-4,-2,15,9
1523149292366026,8,-1,10,36,-3,-5,-5,5
1523149292366026,-4,-3,-1,-4,2,1,4,-6
1523149292366520,-9,1,19,-12,-1,-2,-25,34
1523149292366520,0,-10,-19,13,-4,-5,-5,6
1523149292388577,-28,-5,-36,1,-2,1,2,0
1523149292388577,20,6,44,-1,0,1,-10,-21
1523149292389080,-9,1,-7,40,5,0,15,1
1523149292389080,4,-3,10,-13,-2,1,11,-10
1523149292403615,-9,-1,-2,12,-3,-1,-10,5
1523149292403615,4,2,10,-18,-3,-3,-11,-2
1523149292404119,-3,1,-6,9,-1,-1,-6,-6
1523149292404119,3,-13,-12,-5,0,-1,3,23
1523149292425760,0,-5,1,10,-3,-1,-9,1
1523149292425760,-14,2,10,-1,-2,0,7,-34
1523149292426763,4,0,4,7,2,-3,4,5
1523149292426763,6,10,13,5,0,-1,-2,-1
1523149292448869,-1,-17,1,12,0,2,-8,-11
1523149292448869,-2,-1,2,-15,0,1,6,29
1523149292449825,-43,-4,21,11,2,1,12,21
1523149292449825,-6,6,57,3,-4,-4,-9,-63
1523149292463362,-5,-16,-37,-5,-3,-6,1,8
1523149292463362,-36,0,7,-9,-3,-2,-4,-5
1523149292464363,27,-2,-20,11,4,0,-28,27
1523149292464363,5,-3,13,10,1,4,56,17
1523149292485980,-33,-8,7,-4,-2,-5,3,-46
1523149292485980,14,1,-20,-4,0,-1,-4,-5
1523149292486425,5,0,-3,8,-2,0,-9,4
1523149292486425,3,-3,-41,-4,1,0,-12,12
1523149292508542,10,6,10,2,-2,0,-2,8
1523149292508542,6,2,-11,-3,0,-1,6,-16
1523149292508986,-2,1,-4,-1,-2,-2,0,-12
1523149292508986,1,-2,1,-1,-2,-4,-16,5
1523149292522520,1,5,-9,2,-3,0,22,3
1523149292522520,-8,2,17,0,-1,1,-2,13
1523149292531087,-2,-10,2,-1,-2,0,-14,3
1523149292531087,13,5,-8,2,0,0,0,8
1523149292546080,1,13,36,5,0,0,-2,-3
1523149292546080,-1,-10,-6,-5,-1,-2,1,-10
1523149292546583,4,-3,-6,-2,-1,-3,-5,-2
1523149292546583,-3,-3,-24,-14,-4,-1,-5,15
1523149292568640,4,11,7,-14,-4,0,0,-18
1523149292568640,-6,-3,-12,-2,-1,-2,-5,4
1523149292569144,10,-3,2,25,1,-3,23,-6
1523149292569144,7,1,14,-1,-1,2,-4,0
1523149292583681,-15,-5,-12,-46,-2,0,-20,28
1523149292583681,22,0,1,20,1,3,28,-9
1523149292584184,1,-2,-9,-13,0,-2,-5,12
1523149292584184,2,-5,-13,-24,-1,0,5,7
1523149292605792,-6,-2,-16,-27,-3,-2,-13,-11
1523149292605792,2,-3,-2,40,-2,-6,-10,1
1523149292606742,-2,9,8,-15,-2,2,15,-5
1523149292606742,24,6,-39,-59,-9,-3,-23,22
1523149292628347,-29,-23,4,54,1,-1,51,-45
1523149292628347,50,19,22,8,7,4,16,70
1523149292629302,-37,-3,-40,-69,-7,0,-10,-97
1523149292629302,-8,-16,26,89,4,-8,-74,-6
1523149292642848,21,18,-6,-28,-1,6,44,24
1523149292642848,-22,-13,-16,-34,-5,-4,22,-33
1523149292650862,30,10,11,-27,-6,-3,-9,61
1523149292650862,32,21,-10,-16,-6,6,16,-1
1523149292665899,-36,-25,53,63,7,-13,-116,31
1523149292665899,-6,-4,-51,13,8,12,91,33
1523149292666404,7,2,2,-38,-3,0,-2,25
1523149292666404,-15,-7,-1,-3,-1,1,22,-13
1523149292688460,29,7,14,18,3,0,-22,32
1523149292688460,12,9,9,-36,-9,-4,-68,-11
1523149292695979,-30,-10,-2,44,1,-4,-67,26
1523149292695979,-13,2,6,-41,-2,9,107,-46
1523149292702998,-16,-4,-6,59,4,-7,17,-28
1523149292702998,-1,1,0,-19,-1,-2,-22,-5
1523149292711020,-9,1,8,24,3,1,23,-6
1523149292711020,5,-7,15,10,-5,-14,-97,24
1523149292726060,-1,13,-23,-66,-5,6,69,-30
1523149292726060,-4,7,-2,-3,-3,5,37,33
1523149292726561,9,-5,18,10,2,-2,-14,-5
1523149292726561,-8,2,-18,-33,1,-1,-3,31
1523149292748617,-29,-8,18,65,4,-4,-35,-33
1523149292748617,14,5,-3,23,-2,-5,-34,-38
1523149292749123,23,10,8,-21,-2,2,28,-3
1523149292749123,-21,-27,9,12,1,-4,-17,-23
1523149292762765,12,2,-9,-82,-4,1,5,24
1523149292762765,-2,-6,-6,36,-2,-3,-17,-26
1523149292771227,-1,2,-9,-86,-12,-1,-14,19
1523149292771227,-1,-6,11,89,8,0,47,-14
1523149292785875,-13,3,-31,-10,-5,3,-47,50
1523149292785875,21,-2,12,-8,0,-1,50,-12
1523149292786773,-1,-14,8,37,0,-7,-63,62
1523149292786773,7,11,3,12,6,8,44,36
1523149292808440,-14,4,-6,-10,-3,0,-19,-17
1523149292808440,-19,-19,-7,-72,-2,3,22,29
1523149292809332,4,-5,-35,53,2,-6,-2,-21
1523149292809332,-3,3,33,12,0,-4,-38,-14
1523149292822868,21,-1,-51,-30,-4,-1,-20,-8
1523149292822868,28,2,-4,-83,-4,2,15,12
1523149292830993,-83,-5,35,91,7,-3,22,-72
1523149292830993,-4,-2,-5,-24,-5,-1,4,7
1523149292845930,18,-1,20,11,-1,-3,10,-16
1523149292845930,-14,3,4,-10,-5,-4,-40,-10
1523149292846430,12,-11,9,36,5,-4,-22,18
1523149292846430,-19,0,-30,-30,-2,0,29,-17
1523149292868597,11,5,15,-4,-1,-4,-9,33
1523149292868597,-13,-1,-35,7,-6,-2,-4,-68
1523149292868992,25,-2,20,-30,0,2,44,14
1523149292868992,-25,-4,-47,15,1,-4,-32,-18
1523149292883029,22,-6,24,-5,-2,3,28,9
1523149292883029,-3,0,20,22,1,-5,-47,29
1523149292891181,4,4,-22,-40,-2,6,43,-43
1523149292891181,4,-2,34,69,5,-6,-8,1
1523149292905832,3,-3,-12,-20,-5,0,17,-2
1523149292905832,-11,1,-1,3,0,1,-21,-3
1523149292906727,14,-8,42,-14,-4,3,-4,3
1523149292906727,-10,0,3,-34,-2,1,2,-5
1523149292928450,5,15,6,15,-1,-1,-3,-8
1523149292928450,-16,-17,8,18,0,-6,-29,1
1523149292929345,45,1,-9,-16,0,1,-4,50
1523149292929345,-34,-10,24,7,-1,2,8,-6
1523149292951509,2,5,17,11,3,2,1,-3
1523149292951509,2,4,-64,-8,-2,-1,1,-4
1523149292952405,7,3,3,6,-1,1,3,2
1523149292952405,14,3,18,-9,0,2,-9,14
1523149292974076,12,2,-7,-3,-2,-2,4,-12
1523149292974076,-42,-14,19,6,-1,-6,-16,-21
1523149292974968,1,9,1,9,-1,-1,0,-3
1523149292974968,3,5,3,-7,-1,1,-2,-3
1523149292988618,12,-29,-17,-11,-3,-3,13,14
1523149292988618,3,1,17,16,3,-2,-7,-2
1523149292989004,-19,1,-16,-5,-2,-4,0,-32
1523149292989004,11,1,-16,-18,-1,-1,-2,14
1523149293011565,-3,9,36,0,-1,-1,3,2
1523149293011565,4,3,25,7,1,0,3,4
1523149293012568,-12,-5,-2,-15,-4,-2,-1,-19
1523149293012568,10,4,-72,3,-3,0,-7,12
1523149293025600,-9,2,-1,4,1,1,1,-6
1523149293025600,1,1,6,-11,-5,-1,-3,-7
1523149293026604,-4,0,-22,17,0,0,4,6
1523149293026604,10,7,8,-12,-2,-3,-10,-7
1523149293048270,-17,-8,-43,-3,-1,-1,-4,-8
1523149293048270,-42,-5,84,6,-2,2,30,0
1523149293049163,52,6,-16,-12,-3,-2,14,-19
1523149293049163,-10,-8,3,-13,-2,-4,-11,-9
1523149293071816,-10,3,9,19,4,1,9,-3
1523149293071816,27,1,-27,4,2,0,-13,34
1523149293072225,-21,1,0,11,-1,3,-5,-19
1523149293072225,5,-2,21,-21,1,-2,10,9
1523149293085866,-5,1,26,12,-2,-5,-17,-40
1523149293085866,6,-1,-13,-12,1,0,15,-20
1523149293086764,-11,0,22,5,-1,0,-11,26
1523149293086764,20,7,30,-3,-1,3,4,-34
1523149293108367,-14,-13,-76,-56,-3,1,-12,18
1523149293108367,-15,-10,-29,73,-4,-9,-4,-14
1523149293109323,5,-2,-21,-6,-2,-2,5,-3
1523149293109323,-48,-2,12,22,-1,-7,-35,38
1523149293131382,-21,-1,5,-3,2,4,28,-23
1523149293131382,-12,0,-10,-34,-3,0,-11,-5
1523149293132386,7,-5,-30,-50,-3,1,-8,14
1523149293132386,34,3,-9,29,-4,-9,-89,15
1523149293145948,-9,14,48,66,3,0,18,12
1523149293145948,17,4,-45,17,6,12,52,52
1523149293146926,-7,-8,-10,-71,-4,-2,16,-21
1523149293146926,-7,-4,-4,-21,-7,-2,20,21
1523149293168594,15,2,-19,-61,-13,-11,-95,-3
1523149293168594,17,12,37,34,6,1,57,-54
1523149293168984,8,-7,-11,12,3,1,0,17
1523149293168984,-29,-21,-16,-22,-8,-1,33,26
1523149293191543,35,8,-7,-1,3,-1,9,22
1523149293191543,-95,-14,-19,75,3,-6,-45,-77
1523149293192544,19,-8,0,-13,-5,-2,-6,31
1523149293192544,28,-6,-17,-46,-1,1,28,-73
1523149293206088,12,-1,0,1,-1,-1,-16,28
1523149293206088,10,10,-10,-41,-7,-1,3,19
1523149293206582,-36,0,34,108,12,-2,-33,-24
1523149293206582,-11,-2,-16,2,0,4,10,44
1523149293228639,18,4,20,6,0,6,37,3
1523149293228639,32,3,7,-45,-6,-5,-54,34
1523149293229142,-25,5,-2,-25,-6,0,24,13
1523149293229142,4,-1,8,16,2,-5,-92,-29
1523149293251702,6,-7,3,41,3,5,116,-59
1523149293251702,21,0,-12,-115,-11,-3,-38,-12
1523149293252204,11,10,14,61,1,-6,-16,33
1523149293252204,4,-1,27,44,7,-1,-21,-5
1523149293265994,-13,3,-14,-35,-1,0,-21,21
1523149293265994,-9,-7,6,-28,-1,0,-3,19
1523149293266890,42,11,5,-8,0,6,38,-19
1523149293266890,-14,1,-6,-24,-3,0,-1,-26
1523149293288552,0,-10,17,46,2,-5,-18,0
1523149293288552,11,1,-9,-17,-1,-1,-12,-10
1523149293289452,-9,0,-1,9,-5,-2,8,-57
1523149293289452,15,5,-20,-47,-1,1,53,-10
1523149293311618,-16,-28,-4,19,-2,-4,-40,55
1523149293311618,-19,21,23,-9,-2,0,32,-12
1523149293312512,-16,-5,-22,13,1,-5,-31,-5
1523149293312512,17,5,-3,-24,-1,1,-7,-14
1523149293326049,0,4,12,21,-1,2,53,13
1523149293326049,-4,-8,0,27,5,-6,-47,-20
1523149293326550,12,9,-43,-86,-5,2,11,24
1523149293326550,-69,-21,1,-1,-11,-9,16,-37
1523149293348213,-10,5,-2,49,8,-1,-27,-12
1523149293348213,16,1,21,21,-1,-1,-20,22
1523149293349110,17,-3,-33,-23,-4,2,37,-34
1523149293349110,-19,-2,18,2,-1,0,-29,33
1523149293371782,-3,-11,-7,3,-2,-4,25,-83
1523149293371782,13,1,4,27,0,4,42,36
1523149293372171,25,2,3,51,1,-3,-21,13
1523149293372171,-21,0,-8,-72,-7,5,14,17
1523149293385824,-8,-11,9,56,6,-4,-23,-31
1523149293385824,15,7,-2,27,6,0,2,15
1523149293386712,-15,-10,31,13,0,-3,-9,-2
1523149293386712,51,-2,-58,2,-2,-2,3,-6
1523149293409771,-3,7,-15,-55,-6,0,-36,45
1523149293409771,-1,-11,-22,-10,-6,-2,3,-21
1523149293410775,1,-9,24,-6,2,3,16,10
1523149293410775,3,15,50,32,2,-3,14,15
1523149293431829,-2,-1,-98,-52,-4,0,-6,2
1523149293431829,34,-4,25,3,1,0,-15,17
1523149293432331,-53,-4,15,1,-3,-5,-18,-33
1523149293432331,13,2,20,13,4,-1,-10,14
1523149293446107,18,4,40,-18,-1,3,35,-35
1523149293446107,-10,-2,-63,3,-3,-4,1,4
1523149293446502,6,5,21,-9,-1,1,-7,7
1523149293446502,4,-2,-17,18,3,3,1,7
1523149293468587,14,3,27,-14,-3,-1,-3,3
1523149293468587,1,-3,9,-9,0,4,4,8
1523149293469061,-9,-4,6,-13,-3,-3,-5,22
1523149293469061,-22,-6,16,3,-3,-6,1,-63
1523149293491621,10,4,3,8,1,1,-9,19
1523149293491621,32,0,-8,-9,-2,1,9,34
1523149293492122,-26,-10,-1,-6,-6,-5,-15,-38
1523149293492122,19,7,27,21,3,2,5,26
1523149293506161,-7,-2,-1,-27,-4,-2,-13,-3
1523149293506161,7,-6,-49,-10,0,-2,11,11
1523149293506661,-23,-9,-24,17,1,0,-13,-29
1523149293506661,-4,-7,-7,-3,-3,-3,7,-27
1523149293528325,-1,2,12,-12,-2,-1,-6,5
1523149293528325,-11,-1,11,-1,-3,-2,-4,6
1523149293529223,15,2,11,-3,-2,0,0,20
1523149293529223,14,5,-24,8,1,1,13,1
1523149293551536,-16,-3,-11,-7,-2,-1,-4,6
1523149293551536,-2,2,31,11,3,1,-5,-2
1523149293552434,-7,-1,-1,-13,-4,-3,1,1
1523149293552434,13,4,0,17,2,1,1,5
1523149293565470,-4,-5,-12,-12,-3,-3,3,13
1523149293565470,-15,-3,13,-2,-2,0,11,-32
1523149293573608,13,7,-8,-4,0,0,-5,-5
1523149293573608,-50,-13,-18,1,0,-1,-1,9
1523149293588618,2,2,-1,-3,-1,0,1,8
1523149293588618,-7,-6,10,-7,-2,-4,-9,-9
1523149293589031,3,4,-18,-15,-1,2,3,8
1523149293589031,30,-1,49,31,2,-3,-6,1
1523149293611591,3,0,-54,-4,2,0,10,-5
1523149293611591,-34,-9,13,-6,-1,-3,-11,-5
1523149293612596,-3,0,-12,0,-2,0,-1,5
1523149293612596,5,1,-18,-74,-4,4,21,3
1523149293625126,-5,-6,22,90,2,-9,-31,16
1523149293625126,14,8,6,-18,0,4,42,-36
1523149293633649,-7,-3,-28,-14,1,-1,-9,5
1523149293633649,2,4,27,-9,-2,-1,-2,20
1523149293648446,1,2,-59,-72,-9,2,-2,-33
1523149293648446,-9,-2,-10,8,3,-2,-15,7
1523149293649343,-5,-9,34,90,8,-3,-5,-2
1523149293649343,-6,3,-10,18,-1,-3,1,2
1523149293671643,-9,-3,17,-14,-2,2,17,-11
1523149293671643,40,19,3,-45,-6,-1,-10,23
1523149293672403,9,-4,-6,-46,-2,-1,-47,-19
1523149293672403,-84,-8,-33,0,5,4,74,6
1523149293685590,12,1,3,-17,-5,-6,-24,59
1523149293685590,-28,-9,74,95,10,-2,3,-65
1523149293693756,48,0,-30,-36,1,0,-7,31
1523149293693756,-41,4,-18,-6,-2,1,30,-34
1523149293708550,30,12,43,-13,-2,-2,-34,11
1523149293708550,-11,-10,-38,4,-1,0,23,-31
1523149293709052,-15,3,-16,-49,-9,-2,15,8
1523149293709052,63,-10,24,78,6,-8,-80,28
1523149293731906,-28,-4,2,-9,-1,3,-17,-70
1523149293731906,26,7,-2,-62,-3,3,69,107
1523149293732359,5,-9,28,33,-3,1,20,-56
1523149293732359,-28,18,-13,-41,-11,-4,-10,-17
1523149293745528,-15,-7,7,11,6,2,7,-7
1523149293745528,10,-6,-6,-3,-1,-3,-43,-5
1523149293753611,-10,1,-6,3,1,-4,-18,51
1523149293753611,29,-3,-8,-23,-4,2,44,-30
1523149293768651,-1,7,13,37,4,1,8,-10
1523149293768651,-12,1,-15,-86,-11,-1,-42,22
1523149293768957,-14,-4,54,76,7,-5,11,7
1523149293768957,14,-6,-28,63,1,-3,-25,16
1523149293791760,-2,-2,-36,-47,1,3,35,7
1523149293791760,-14,-5,6,6,-3,-2,-13,-9
1523149293792262,-8,-5,-31,-19,-2,2,-6,-16
1523149293792262,-12,-6,38,37,1,-4,-16,-6
1523149293805500,8,-3,-8,-24,-5,-3,5,3
1523149293805500,1,2,-17,-29,-4,1,-4,9
1523149293813338,7,1,21,60,4,2,10,-10
1523149293813338,67,7,17,-8,1,1,-7,26
1523149293828359,-73,-11,36,-40,-5,-1,10,10
1523149293828359,17,-2,-2,34,0,-7,-21,-24
1523149293829368,-3,3,-4,13,1,-5,-26,17
1523149293829368,17,-6,-31,-74,-5,3,9,2
1523149293851922,9,9,56,40,7,2,-5,10
1523149293851922,-18,-11,-93,35,2,-2,-7,-5
1523149293852424,-16,1,12,-34,-7,0,-4,-1
1523149293852424,-14,-4,-10,-13,3,2,-22,-3
1523149293865070,14,0,-8,1,-1,-3,48,-32
1523149293865070,-8,-7,28,19,0,-3,-13,32
1523149293873616,-4,10,-2,-32,-2,2,17,6
1523149293873616,32,0,-4,43,4,1,7,6
1523149293888192,-44,5,-7,-18,-5,-4,-21,0
1523149293888192,14,-4,7,27,4,1,-9,-11
1523149293889131,-11,-2,-51,-1,-2,-1,30,-27
1523149293889131,0,9,40,-11,-3,-1,-14,-30
1523149293911692,35,-15,-2,6,2,-1,-13,26
1523149293911692,-41,6,0,-18,-3,-1,-4,-5
1523149293912192,4,-2,5,-1,-2,-1,2,29
1523149293912192,-11,6,-13,-14,-2,-2,-16,-17
1523149293934252,28,-4,-34,21,1,-2,15,-8
1523149293934252,2,-13,41,6,-3,0,7,-5
1523149293934752,4,-3,-1,-28,-2,-3,-4,-14
1523149293934752,-16,-10,-24,-9,-4,-2,-1,-1
1523149293948347,1,-5,12,2,-2,-1,1,6
1523149293948347,13,4,-5,-7,1,1,-2,-11
1523149293949294,-12,3,-3,-5,-4,-3,-18,-1
1523149293949294,-2,-18,20,6,1,1,86,41
1523149293971851,-42,0,-13,-9,-4,-2,2,2
1523149293971851,5,-7,7,3,1,-1,-5,29
1523149293972352,40,6,9,-4,2,5,0,-28
1523149293972352,-59,3,22,-11,-4,-1,-17,-18
1523149293993969,3,10,-18,-4,-7,-9,-20,-63
1523149293993969,-5,-4,23,3,-1,-4,17,-13
1523149293994913,-35,-32,-63,-4,-2,-3,-12,20
1523149293994913,39,21,16,-4,2,3,-18,51
1523149294008451,16,2,15,3,-1,2,8,-1
1523149294008451,-9,8,-23,-17,-6,-8,-28,-21
1523149294008951,-7,7,28,15,2,-1,7,2
1523149294008951,9,-6,-45,-6,-1,-3,-18,-7
1523149294031569,-28,-9,-2,2,2,4,-1,35
1523149294031569,6,1,0,-4,-5,-4,7,-15
1523149294032515,3,-3,11,-7,-2,0,6,-1
1523149294032515,5,-3,12,1,-1,-1,6,-5
1523149294054130,3,-4,-19,5,3,-1,-11,1
1523149294054130,3,-3,16,4,2,3,10,4
1523149294055074,-2,5,4,-8,-3,-3,3,-4
1523149294055074,-10,-3,-2,-2,-3,-5,-23,-15
1523149294068610,67,3,3,-15,-3,-4,6,-12
1523149294068610,-81,-12,4,26,0,-1,5,-19
1523149294069110,19,5,22,-10,-3,-4,2,21
1523149294069110,-16,-4,-13,-3,2,1,-9,-20
1523149294091672,-27,0,2,0,3,5,12,3
1523149294091672,62,3,-9,-3,-1,1,4,15
1523149294092171,-7,1,28,-4,-4,-3,-2,-15
1523149294092171,-13,-10,8,0,-5,-6,-19,10
1523149294114731,2,3,0,-1,-3,-1,16,-23
1523149294114731,7,5,3,5,1,3,10,10
1523149294115233,-16,0,-5,-10,-1,-1,-14,23
1523149294115233,10,2,6,-23,3,4,10,-1
1523149294128268,11,-2,18,48,0,-6,-38,12
1523149294128268,4,3,-37,-18,-3,-1,7,-5
1523149294129273,9,0,-8,12,-2,-5,-12,7
1523149294129273,9,-1,-15,-16,-1,2,5,-9
1523149294151830,-6,-1,5,0,1,1,-9,1
1523149294151830,2,-5,-1,-25,-3,2,-6,14
1523149294152331,-10,1,-7,-27,-1,2,-33,21
1523149294152331,32,-2,-13,77,1,-5,-18,-58
1523149294173964,-43,2,-5,-5,1,2,48,26
1523149294173964,1,-3,29,-3,-5,-3,-13,-21
1523149294174892,3,4,-17,-58,3,6,15,-3
1523149294174892,2,-16,18,50,-4,-8,-30,19
1523149294188487,11,2,9,8,-1,-3,-17,0
1523149294188487,3,12,5,6,7,3,13,30
1523149294188929,17,14,-2,-8,-5,-3,-11,-53
1523149294188929,-21,-12,-17,-52,-7,0,17,38
1523149294211489,5,-7,-7,46,1,1,5,3
1523149294211489,-1,-4,-15,-22,1,2,52,30
1523149294212497,1,15,21,20,1,5,-1,-7
1523149294212497,-10,1,-60,-23,-4,-1,29,17
1523149294234108,-16,-6,-2,-10,-7,-1,12,-41
1523149294234108,6,6,21,3,1,-2,-42,1
1523149294235054,17,-10,-9,18,2,-1,10,21
1523149294235054,-38,4,17,-11,-3,3,5,-18
1523149294248586,0,-4,-22,-42,-3,-2,-28,5
1523149294248586,-8,-9,12,81,1,-5,-5,-5
1523149294249089,15,-1,12,28,1,-9,-40,-2
1523149294249089,-7,3,-10,-66,2,10,46,28
1523149294271680,25,5,9,-3,-3,-5,-15,13
1523149294271680,-9,-6,8,38,0,-5,-40,-69
1523149294272162,8,-3,-2,2,-2,-1,54,34
1523149294272162,15,10,-1,-8,2,0,-34,1
1523149294294241,-17,-3,-16,-53,-7,-6,-96,-1
1523149294294241,3,0,-32,-55,2,14,91,9
1523149294294710,-31,-23,44,98,2,-9,-15,-2
1523149294294710,11,-3,-3,-31,1,0,9,-42
1523149294308248,15,0,14,9,3,-2,-10,62
1523149294308248,2,4,-7,-21,-6,-2,-34,7
1523149294309249,-26,-4,-36,-36,-1,2,4,-16
1523149294309249,3,10,25,26,-1,-1,21,-10
1523149294331424,26,-2,-9,4,1,-1,-18,14
1523149294331424,-31,-11,-15,-2,0,-3,-11,-49
1523149294332428,-4,-5,33,-25,-1,4,36,-23
1523149294332428,8,-1,3,-9,-8,-4,-36,30
1523149294353991,-1,-4,-8,29,-1,-3,26,-4
1523149294353991,11,7,-1,8,0,-7,-26,6
1523149294354486,-39,-14,-16,-21,0,5,28,-11
1523149294354486,-52,-1,0,-1,-2,-6,-6,-6
1523149294368542,8,3,8,3,2,2,14,3
1523149294368542,3,-1,3,-1,-3,-1,0,-3
1523149294369026,-18,-4,-9,17,-1,-6,-50,8
1523149294369026,25,8,-15,-51,-5,5,8,-4
1523149294391585,-9,6,-3,-35,6,5,16,-9
1523149294391585,42,-5,-3,1,-7,-8,-60,60
1523149294392085,17,-1,27,75,12,5,57,-25
1523149294392085,-19,-12,-14,-5,1,-4,-14,4
1523149294414203,12,8,-3,-12,-3,-2,-3,-43
1523149294414203,-3,20,35,-43,-4,-1,-18,6
1523149294414645,2,-19,-26,-35,-8,-3,-17,-15
1523149294414645,17,4,-2,33,-1,-3,9,9
1523149294428240,8,2,6,4,-1,0,3,-24
1523149294428240,-34,-16,17,-11,-2,-1,4,-11
1523149294429188,51,15,-16,-14,-4,-1,3,20
1523149294429188,-51,-21,22,32,6,-1,-6,7
1523149294450800,49,1,-21,-10,-3,-4,-4,17
1523149294450800,-41,-3,40,12,1,-3,-3,5
1523149294451812,25,20,-1,-8,-1,2,13,-41
1523149294451812,3,0,-10,-12,-2,-2,-35,-4
1523149294473870,-41,-9,18,18,-3,-1,26,10
1523149294473870,43,6,0,3,-1,7,69,75
1523149294474884,30,11,-15,-20,-3,1,-15,6
1523149294474884,-56,-17,102,2,-7,-13,-32,-117
1523149294488470,-15,-19,-88,-7,0,-3,4,9
1523149294488470,17,24,21,13,4,3,-2,5
1523149294489411,-20,-5,-4,-19,-2,0,-17,52
1523149294489411,-24,-12,-2,2,-6,-1,50,-24
1523149294510969,10,-3,8,14,0,-5,-15,-29
1523149294510969,-10,-19,-12,-9,-3,-4,-13,-28
1523149294511470,0,14,-4,-3,2,2,5,17
1523149294511470,39,7,-38,1,1,1,-13,32
1523149294534090,-8,2,12,-6,-3,2,16,11
1523149294534090,-5,5,-28,-11,-1,-2,-2,-16
1523149294535033,-17,-8,39,15,-1,-2,-5,-21
1523149294535033,27,4,-47,4,-2,-1,-6,4
1523149294547566,-3,13,-2,-17,-2,0,4,16
1523149294547566,3,0,1,3,-2,0,-3,-14
1523149294556117,-19,-7,4,-9,-1,1,7,-17
1523149294556117,14,8,-8,2,0,-2,-14,-7
1523149294571693,7,-4,15,-8,0,2,4,22
1523149294571693,-27,-11,-23,-8,-2,-3,-12,-53
1523149294572132,-5,-5,-1,30,0,-5,-7,0
1523149294572132,12,10,-7,-32,2,4,18,24
1523149294594242,5,6,20,-10,-1,0,-5,-19
1523149294594242,-19,-9,-27,-19,-4,-1,8,3
1523149294594691,-21,-8,-3,28,0,-5,-17,14
1523149294594691,92,3,18,34,0,-3,-6,5
1523149294607724,10,3,-10,-103,-9,7,42,12
1523149294607724,17,-2,17,83,0,-4,-2,40
1523149294615806,15,-2,-34,25,3,0,1,-16
1523149294615806,2,11,15,6,7,2,-11,31
1523149294631790,-8,-7,-13,-52,-4,-3,-21,-17
1523149294631790,7,-5,25,67,5,-1,0,2
1523149294632293,2,6,-16,-125,-8,-1,0,-8
1523149294632293,-7,-8,8,101,6,0,6,-34
1523149294654852,-3,6,10,29,0,-1,-38,-14
1523149294654852,-10,0,-15,-2,2,7,41,-1
1523149294655352,-5,-3,6,-33,-8,2,27,44
1523149294655352,-11,-3,-37,-128,-11,-5,-66,-7
1523149294667559,-39,-32,76,106,18,-8,36,-99
1523149294667559,-4,14,-7,-50,-2,2,60,-3
1523149294676025,101,12,6,-18,-2,0,9,32
1523149294676025,-50,-2,-12,-32,-7,2,16,34
1523149294691564,-26,7,-29,-33,-4,-5,-61,13
1523149294691564,14,-10,19,54,1,-4,15,-26
1523149294692567,-4,3,-18,13,-2,-1,10,-17
1523149294692567,12,16,-11,0,-2,0,-1,11
1523149294714125,-42,-25,21,61,0,-4,-8,21
1523149294714125,-6,0,-17,-51,-1,-3,-9,-5
1523149294714628,-33,8,-16,-50,-6,-6,-34,-13
1523149294714628,4,-15,19,73,2,-2,26,7
1523149294727719,-17,8,11,5,-4,2,23,4
1523149294727719,15,6,-27,-43,-2,1,-31,-6
1523149294735741,-12,-10,27,52,1,-2,5,-14
1523149294735741,-14,-3,7,-38,0,-3,-2,15
1523149294751723,28,7,-6,16,-1,1,-35,27
1523149294751723,-2,1,-3,-16,-1,5,76,3
1523149294753231,-2,4,26,-29,-4,-3,-44,-11
1523149294753231,-15,-9,-26,44,0,-4,31,-32
1523149294774284,-20,5,-27,-37,-5,-1,-8,10
1523149294774284,16,3,11,18,-2,-4,-35,10
1523149294775790,-45,0,44,65,9,0,-8,1
1523149294775790,20,1,-2,-56,-4,2,6,-17
1523149294787881,15,3,0,5,-4,-1,9,0
1523149294787881,-11,-13,-62,-48,-11,-4,-23,-9
1523149294796844,-15,-1,-2,51,5,0,23,-9
1523149294796844,-3,-2,12,31,5,0,-13,13
1523149294810884,18,1,0,8,1,1,10,0
1523149294810884,-1,7,0,-49,-5,0,-12,13
1523149294817904,-11,-22,-20,-21,-6,-3,-28,-3
1523149294817904,-7,3,4,-12,-1,0,16,-36
1523149294834002,8,-5,0,45,2,-1,23,3
1523149294834002,7,6,3,-9,1,-1,-47,22
1523149294835949,1,-4,-43,-14,-4,0,38,-11
1523149294835949,-5,-3,11,14,-3,-1,-23,6
1523149294856674,-4,5,6,-57,-2,1,10,-14
1523149294856674,-7,-8,8,23,-1,-5,-10,-4
1523149294858134,13,3,-2,10,2,1,-8,7
1523149294858134,3,0,2,9,-1,0,0,15
1523149294871711,10,0,-12,-18,0,3,20,10
1523149294871711,-4,-1,21,21,1,-4,-11,-4
1523149294873153,-2,1,-22,-21,-2,0,4,-10
1523149294873153,33,-3,-4,-25,0,3,16,26
1523149294894242,-13,-1,-4,10,0,-2,-12,-4
1523149294894242,12,5,15,26,1,0,-2,-11
1523149294895710,-21,-4,-44,-9,-4,-3,-5,-8
1523149294895710,6,11,-25,8,-1,0,25,-2
1523149294917769,14,-12,1,-20,-5,-4,-27,6
1523149294917769,-10,-3,10,-2,0,4,10,-9
1523149294919775,7,2,6,-28,-4,1,7,9
1523149294919775,-18,-16,-13,6,-1,-4,-6,-10
1523149294930864,-2,2,0,3,0,1,-6,25
1523149294930864,-13,12,-6,-6,-2,-3,4,-35
1523149294945342,-7,-12,-23,-10,0,1,-9,-3
1523149294945342,35,6,5,16,-3,-5,-5,8
1523149294953925,-42,-14,4,3,1,1,12,-7
1523149294953925,21,6,0,2,2,2,-4,4
1523149294955870,-1,-5,9,-4,-2,-1,10,6
1523149294955870,-11,8,11,-5,-5,-5,-13,-15
1523149294976427,36,-11,-47,-9,-3,2,13,13
1523149294976427,-24,6,-4,-7,-4,-4,-7,-13
1523149294977928,-2,-5,8,2,-2,-2,-5,19
1523149294977928,-17,2,-21,3,0,0,7,-5
1523149294990965,6,1,24,3,-2,-4,-6,-15
1523149294990965,-3,-6,30,-11,-1,-4,-24,8
1523149294997484,1,4,-25,8,-3,-3,16,11
1523149294997484,-32,-5,11,-14,0,0,-25,-36
1523149295014026,4,5,6,15,1,2,7,0
1523149295014026,13,-6,6,3,2,1,-7,17
1523149295015531,-7,-1,-2,-6,0,2,0,4
1523149295015531,28,5,47,4,-1,0,-1,8
1523149295036653,-10,-4,-6,-7,-1,-3,-10,-7
1523149295036653,-8,-9,-15,-2,-2,0,9,2
1523149295038090,2,1,25,3,-3,-2,-5,-15
1523149295038090,-2,-3,-46,-9,1,0,-1,11
1523149295051123,-3,4,14,4,-2,-1,-11,-8
1523149295051123,-1,-5,-8,-5,-2,1,0,12
1523149295057643,35,17,2,-2,-3,-1,37,9
1523149295057643,-2,-6,-7,3,0,-5,2,-5
1523149295074186,-15,-1,6,-14,-1,-4,-4,-24
1523149295074186,-4,-3,-6,22,5,1,-3,6
1523149295075690,1,-1,12,-5,-1,-2,-12,-6
1523149295075690,-1,-2,-1,-5,-1,2,7,21
1523149295096746,11,7,17,-10,-2,-2,2,11
1523149295096746,0,-5,-10,10,-3,-3,10,-38
1523149295098252,2,0,15,-25,1,-2,-19,-9
1523149295098252,-7,-3,2,30,2,-1,6,9
1523149295110940,8,2,14,42,3,0,-1,2
1523149295110940,-8,-6,7,-39,-7,-5,-25,-9
1523149295117517,-17,-7,1,26,-1,-3,-17,-11
1523149295117517,-4,4,13,4,2,1,-2,10
1523149295134061,-6,-4,-23,-26,0,4,13,3
1523149295134061,13,-1,-12,-25,-5,-2,2,15
1523149295135506,-1,-7,-10,-15,-9,-6,-27,45
1523149295135506,-32,-4,3,31,1,0,-19,-59
1523149295157063,37,13,-2,12,-1,0,33,-10
1523149295157063,-48,-7,-6,13,5,4,22,-6
1523149295158566,3,-7,-4,-32,-4,-4,-40,18
1523149295158566,-6,-3,1,-92,-8,4,27,36
1523149295171322,40,2,11,45,-2,-5,-40,3
1523149295171322,-19,-1,-11,1,5,-1,-41,-66
1523149295177843,-16,-2,14,96,8,-4,-5,10
1523149295177843,30,-1,-2,7,-5,6,95,-49
1523149295194420,-35,4,-39,-127,-14,3,61,64
1523149295194420,4,-11,13,64,-1,-8,-35,34
1523149295195984,-46,-3,6,-35,3,1,-3,-107
1523149295195984,14,1,15,120,4,-11,-128,69
1523149295215944,-4,-3,-18,-77,-2,5,84,-43
1523149295215944,28,3,-25,-99,-8,-4,-23,36
1523149295223965,4,8,39,56,1,0,20,-3
1523149295223965,-7,5,-25,-23,-1,3,-21,7
1523149295230985,6,-6,-2,-15,0,4,48,11
1523149295230985,-8,-5,12,50,-2,-7,-26,28
1523149295237645,-22,-8,-12,-15,1,-2,10,-37
1523149295237645,-3,-14,20,-30,-7,7,-19,-14
1523149295254415,-1,7,14,65,2,-9,-118,41
1523149295254415,-3,-14,-27,-61,-4,3,87,-26
1523149295255693,13,10,13,-20,-3,7,24,-40
1523149295255693,-3,-2,-57,2,0,2,44,-18
1523149295276749,-9,-8,14,14,5,-9,-46,5
1523149295276749,1,7,32,26,0,3,19,23
1523149295278253,7,2,-55,10,-5,-1,-13,-25
1523149295278253,-1,0,8,-26,0,-5,-18,10
1523149295290787,-8,-5,0,34,0,0,56,-34
1523149295290787,2,4,0,-12,-1,-1,-35,-15
1523149295297841,11,1,10,7,3,5,-14,37
1523149295297841,-8,0,10,-42,-4,5,23,19
1523149295313901,-11,-3,-15,2,0,-2,-45,7
1523149295313901,7,7,16,-16,-2,2,45,-9
1523149295315856,8,-6,-25,34,2,-6,-43,42
1523149295315856,5,-15,24,-10,2,-3,23,29
1523149295336453,-5,7,-14,20,-2,-5,-32,-44
1523149295336453,-36,7,-16,-28,1,7,39,12
1523149295338417,15,3,26,-14,-1,0,-8,-2
1523149295338417,3,9,-9,-25,2,-3,9,8
1523149295350000,7,-11,45,108,8,0,-13,30
1523149295350000,8,9,-2,-12,-4,1,-7,-72
1523149295358973,1,-6,-30,-42,-3,-2,31,26
1523149295358973,-42,-7,-23,-16,-1,-1,12,-9
1523149295374146,-2,-1,-14,-3,-2,-1,-10,-11
1523149295374146,11,0,19,28,-1,-2,-17,18
1523149295375647,-6,-6,20,-19,-4,0,15,-45
1523149295375647,4,3,9,55,-2,-2,8,-39
1523149295396759,12,-2,-29,-35,-1,-2,-4,3
1523149295396759,-6,-5,-15,3,0,-5,-30,9
1523149295398207,1,0,-5,14,3,4,22,24
1523149295398207,2,4,0,-14,-4,-1,-10,1
1523149295419266,-17,-3,12,-15,-2,1,13,-16
1523149295419266,16,-5,-9,27,0,-2,-7,5
1523149295420772,9,-4,1,-27,-3,0,1,-11
1523149295420772,-36,-18,17,13,4,1,1,-5
1523149295433802,10,7,14,-5,-2,2,26,20
1523149295433802,15,-1,2,0,-1,0,16,22
1523149295435807,-25,-22,5,-13,-2,-1,-2,-26
1523149295435807,9,-5,-1,29,3,-4,-24,15
1523149295456361,4,9,28,-13,-1,-1,13,-52
1523149295456361,5,3,-13,3,0,2,-14,21
1523149295458369,-2,6,-3,12,2,1,1,13
1523149295458369,36,2,50,-8,-3,-4,-1,15
1523149295470567,-6,-8,-43,-27,-7,0,-20,-17
1523149295470567,0,-7,14,22,-2,-9,-7,-12
1523149295479422,-5,15,6,-5,1,-1,1,5
1523149295479422,12,6,-22,-7,4,2,-28,-5
1523149295501719,-7,4,-16,-2,-4,1,39,24
1523149295501719,-10,-5,17,-1,-3,-4,-2,-21
1523149295502985,2,0,-14,1,-3,-5,-19,-10
1523149295502985,2,12,3,1,-2,-2,2,8
1523149295516521,4,0,-1,7,2,5,2,42
1523149295516521,4,-4,-63,-7,1,4,20,-18
1523149295518538,-27,-10,31,-2,-3,-8,-17,-5
1523149295518538,32,9,23,-5,0,-3,-3,-15
1523149295530296,-13,-6,-77,-1,-1,-1,-18,3
1523149295530296,19,8,36,2,-1,-2,-19,3
1523149295539082,7,5,10,-4,-2,-1,9,29
1523149295539082,-18,-2,-5,-16,-1,-1,2,-36
1523149295554360,15,3,24,26,1,-2,-18,26
1523149295554360,-17,-7,-6,-3,-1,3,33,-30
1523149295555625,5,-3,-37,-8,-3,0,1,-8
1523149295555625,-20,1,-2,-6,-3,-3,-2,2
1523149295576685,16,-12,20,8,0,-2,-16,1
1523149295576685,-60,3,3,-52,-5,-1,-17,-3
1523149295578187,35,8,17,70,4,-1,8,20
1523149295578187,17,1,-16,16,1,3,26,7
1523149295590220,-25,-5,6,-37,-2,-2,-9,-28
1523149295590220,13,2,13,-2,3,0,-19,28
1523149295599241,6,3,-10,13,-4,2,16,-8
1523149295599241,-15,-4,-17,-34,-4,0,-16,6
1523149295614447,-5,-2,18,-10,-2,-3,24,-20
1523149295614447,14,-1,-2,40,3,-1,-9,47
1523149295615786,-9,1,-18,-75,-2,0,-28,-33
1523149295615786,4,-2,17,62,0,-1,13,-14
1523149295636843,-4,1,-43,-46,-9,-1,9,-9
1523149295636843,1,-9,25,-26,-4,-7,-10,-31
1523149295638575,-8,-7,-18,58,8,-4,51,18
1523149295638575,1,4,-13,-14,-2,8,-17,2
1523149295650377,-16,7,3,-10,-1,3,23,-21
1523149295650377,15,-4,-10,30,0,0,-4,12
1523149295659405,11,8,19,-47,-4,4,18,72
1523149295659405,-3,-12,-5,17,-2,-8,-44,-87
1523149295673940,-10,-4,26,-10,1,-3,58,29
1523149295673940,-3,-6,-30,13,-4,-2,-1,11
1523149295675950,-33,-2,37,64,4,3,39,-57
1523149295675950,26,1,-46,-8,-2,-2,4,54
1523149295696741,20,4,26,-22,0,-6,-47,-9
1523149295696741,-6,3,2,47,-3,-9,-91,40
1523149295698503,9,-1,-25,-53,0,9,68,-7
1523149295698503,-16,-7,-5,7,2,0,-1,24
1523149295710075,-7,2,6,-27,-2,1,-33,-34
1523149295710075,10,2,8,55,0,-1,-8,6
1523149295719060,-29,0,-21,-48,-9,-9,-47,-5
1523149295719060,-16,4,26,40,10,2,-13,-3
1523149295734234,-4,4,-9,10,4,7,14,12
1523149295734234,31,2,-8,-10,1,-1,18,7
1523149295735739,28,0,22,-22,-7,-6,-33,3
1523149295735739,-67,-8,13,-27,-4,2,16,-17
1523149295756794,-8,5,-18,-16,-2,-4,-59,30
1523149295756794,30,-5,26,36,6,2,111,-27
1523149295758316,-46,-17,-16,69,4,-3,-51,37
1523149295758316,17,5,6,-47,-6,-2,20,10
1523149295770331,-2,-8,10,13,-2,-6,-21,6
1523149295770331,-18,4,-9,-27,0,7,13,-5
1523149295779356,30,4,13,-24,-2,-3,-36,12
1523149295779356,23,-4,28,19,-4,-4,14,34
1523149295793893,-17,4,-19,18,2,-2,-1,-62
1523149295793893,-16,-3,-13,-62,-3,2,-11,-23
1523149295795398,23,-3,8,38,5,-3,-5,9
1523149295795398,-8,0,5,21,3,-4,-2,14
1523149295816698,28,-2,0,32,-2,0,6,-3
1523149295816698,-8,2,4,-53,-4,-1,-24,1
1523149295818553,2,-5,-51,21,1,-2,-19,-3
1523149295818553,-22,3,-13,-34,-4,2,10,-24
1523149295839514,-16,-11,6,12,-4,-3,-2,-17
1523149295839514,-7,-10,-15,-32,1,0,22,-8
1523149295840519,-10,4,22,23,-4,-6,-18,-11
1523149295840519,24,6,-8,-2,-3,-2,46,46
1523149295854053,-5,-7,-13,4,0,-4,-3,-35
1523149295854053,-4,8,10,-8,0,1,-15,8
1523149295856080,15,0,-7,-36,-1,7,24,-3
1523149295856080,-33,1,-6,-1,0,-2,-31,-23
1523149295876616,33,0,-10,-5,-1,-3,-4,20
1523149295876616,-31,-1,-11,3,-2,0,20,-10
1523149295878119,-1,0,-5,-14,-3,-3,-8,12
1523149295878119,9,-1,-4,14,0,-6,-42,22
1523149295899417,-4,5,-7,-6,1,6,-9,32
1523149295899417,7,2,6,56,3,2,9,6
1523149295900923,-9,-4,1,-53,-2,-2,0,-11
1523149295900923,1,-10,-35,30,4,-5,-25,-7
1523149295914215,4,3,18,0,-3,0,14,24
1523149295914215,-14,-7,-5,-7,-4,-4,-21,-8
1523149295915718,3,4,-6,-6,-2,2,6,1
1523149295915718,20,0,-13,-20,-5,0,1,-18
1523149295936951,-5,-1,14,5,1,0,-4,5
1523149295936951,0,-2,-3,18,2,-3,-8,-7
1523149295938279,-8,3,4,-8,-3,-1,-20,-41
1523149295938279,10,6,-6,-20,-1,1,7,-1
1523149295959337,9,0,-6,15,-3,-3,-2,6
1523149295959337,-6,-8,4,-18,-3,2,10,-1
1523149295960840,-3,0,1,0,-2,-5,-21,-10
1523149295960840,1,-6,-8,-1,-1,1,-1,-14
1523149295973371,-3,-1,10,-1,-2,1,42,16
1523149295973371,13,0,-1,-7,0,-1,-20,-5
1523149295980389,-20,-7,1,0,-2,-1,25,-16
1523149295980389,17,-1,-2,-2,3,-1,0,-20
1523149295996674,-1,-13,26,4,-1,-2,-11,-3
1523149295996674,-2,4,-22,-11,-4,-3,-10,9
1523149295997936,3,-1,-49,1,-3,-6,7,-29
1523149295997936,-2,0,14,-13,-4,1,19,5
1523149296019237,-34,-10,-6,3,2,-2,-19,-12
1523149296019237,22,12,-28,-5,-3,1,1,11
1523149296021053,2,8,-7,-1,-1,3,-1,30
1523149296021053,13,2,10,-10,-5,-8,-15,-16
1523149296035045,1,4,-24,1,1,-1,-2,-4
1523149296035045,-13,-9,9,3,1,-3,0,-14
1523149296040566,12,6,38,4,2,1,3,26
1523149296040566,-10,-19,-15,-5,2,5,10,1
1523149296057094,-5,-3,10,3,1,-1,13,-27
1523149296057094,0,3,-14,-6,-3,-3,1,1
1523149296058603,3,-3,71,2,0,-1,-14,3
1523149296058603,-1,4,-11,2,-1,1,14,42
1523149296079154,-11,-15,1,-6,-2,-2,-14,-17
1523149296079154,5,-4,13,5,-1,-2,-11,-12
1523149296080657,-21,-7,-20,6,2,0,5,2
1523149296080657,36,7,5,-7,0,-3,-9,2
1523149296093694,11,7,37,1,-3,0,-5,32
1523149296093694,18,1,-38,-12,-3,-1,16,3
1523149296100209,-12,-9,10,3,1,0,0,-9
1523149296100209,-10,-8,4,3,0,1,1,3
1523149296116753,16,4,-5,-4,1,2,-7,3
1523149296116753,-7,7,20,-1,-1,-2,-23,-15
1523149296118257,3,-1,-7,-19,-7,-1,21,12
1523149296118257,-4,-1,-10,14,-1,-1,-6,4
1523149296138811,-2,0,-16,8,-3,-8,-14,1
1523149296138811,-35,-6,2,-48,-2,2,-2,-20
1523149296140819,11,5,-26,21,-1,1,3,8
1523149296140819,-7,5,10,-2,3,-1,15,9
1523149296153351,3,5,9,20,0,-2,-2,-5
1523149296153351,-8,-4,-12,-19,-3,-1,5,-15
1523149296160375,7,-1,3,6,3,-3,-48,31
1523149296160375,-5,10,16,-27,-3,3,77,-79
1523149296176416,2,-6,-46,-57,-2,1,1,21
1523149296176416,53,-3,31,86,8,-1,-8,19
1523149296178418,-100,-15,-2,-16,-1,2,17,-14
1523149296178418,10,0,-3,-33,-3,-3,-38,7
1523149296198971,9,5,8,32,-3,-3,-29,12
1523149296198971,5,21,-14,-77,-5,4,60,10
1523149296200476,-18,-49,5,75,3,-2,11,-44
1523149296200476,-6,-1,7,9,-1,-7,-49,33
1523149296213510,-3,0,-6,-49,-6,2,34,-46
1523149296213510,-1,-14,-22,-17,-2,-8,-56,50
1523149296220027,17,21,-3,-7,1,4,25,-25
1523149296220027,-3,-3,6,42,0,-2,-10,7
1523149296236574,4,-1,-11,-8,3,2,2,9
1523149296236574,1,1,11,0,-5,-2,-9,6
1523149296238075,17,4,-20,-14,-4,-5,0,20
1523149296238075,-10,-4,11,-15,-3,-2,-2,-33
1523149296259138,-25,5,-8,14,0,-2,-6,3
1523149296259138,38,10,30,0,-2,-5,-79,22
1523149296260635,-9,-16,-56,-20,-5,4,100,-60
1523149296260635,-3,-2,17,5,-2,-3,-14,0
1523149296272667,-4,-2,8,23,3,-3,-7,-1
1523149296272667,4,4,8,42,7,6,12,-6
1523149296281692,21,-3,4,-50,-3,-1,-39,49
1523149296281692,-25,2,-16,-1,-4,-3,-8,-28
1523149296296732,-3,-2,-1,-25,-4,2,-3,-2
1523149296296732,7,-1,8,50,0,-2,-1,-13
1523149296298236,21,2,11,-26,-3,-4,-27,20
1523149296298236,-12,-1,-11,5,1,2,26,-13
1523149296319294,13,5,0,-24,-1,-2,-5,7
1523149296319294,-27,-13,8,49,3,-1,21,-6
1523149296320798,5,8,19,38,3,-1,-5,-9
1523149296320798,0,-4,-9,-10,-3,-3,-27,-2
1523149296333328,-8,3,-12,-41,-2,0,7,6
1523149296333328,7,20,2,-17,-3,-2,15,-7
1523149296341853,0,5,-12,20,-3,0,-17,-5
1523149296341853,12,0,4,-7,2,0,-12,8
1523149296356391,-8,-26,8,26,-2,-6,-21,17
1523149296356391,-17,-13,-19,-21,-1,3,38,-6
1523149296358399,14,5,-1,-23,-3,-3,-15,8
1523149296358399,11,15,7,4,1,-1,-23,53
1523149296378953,-7,3,-14,23,3,4,45,-20
1523149296378953,-17,-9,-5,-39,-6,-3,-9,1
1523149296380454,9,9,14,-6,0,-1,-1,5
1523149296380454,-5,-16,0,3,-5,-1,1,12
1523149296393991,14,8,25,-3,-3,-1,-12,-4
1523149296393991,-32,-19,-17,12,-2,-4,-7,-13
1523149296402011,6,8,8,-2,1,3,11,2
1523149296402011,-4,-3,-31,-14,-1,1,14,-9
1523149296416550,7,-1,19,8,-2,-1,0,8
1523149296416550,12,2,1,2,-1,-3,-13,5
1523149296418055,-26,-11,-2,-4,-1,-1,7,-21
1523149296418055,-8,0,-3,-3,-2,-3,-3,-10
1523149296439112,2,-20,0,18,1,-1,3,3
1523149296439112,5,4,-11,-2,0,1,9,13
1523149296440614,-32,-6,8,-10,-2,-4,-18,5
1523149296440614,5,-7,-3,3,0,0,6,-12
1523149296452646,4,9,-10,11,1,-3,-10,-2
1523149296452646,-18,4,8,-9,-1,2,10,-6
1523149296461674,29,5,-8,-1,-3,-2,-9,2
1523149296461674,-9,-12,-28,3,-3,-2,7,15
1523149296476725,13,9,5,3,1,1,4,-3
1523149296476725,-21,-21,-4,-8,-3,-6,-6,-49
1523149296478216,16,9,12,7,1,0,14,-4
1523149296478216,-14,-3,16,1,0,-1,-11,-17
1523149296499270,-1,8,-2,-2,-2,-3,-20,1
1523149296499270,5,-3,1,2,1,2,18,12
1523149296500775,-10,-7,-8,1,-3,-2,0,5
1523149296500775,19,1,13,-7,-3,-4,5,-10
1523149296512806,-17,-5,-7,1,-2,-2,-9,-5
1523149296512806,0,9,2,-2,2,1,2,-9
1523149296521831,4,-9,9,1,-3,0,-15,5
1523149296521831,26,7,3,0,1,4,24,9
1523149296536371,-32,-11,-11,3,-2,-4,-15,8
1523149296536371,9,-2,4,-1,-2,2,4,5
1523149296538375,9,-4,-7,-3,-1,1,0,3
1523149296538375,-1,6,-10,-2,-4,-3,-12,-6
1523149296560942,10,-2,-3,3,-1,-1,4,3
1523149296560942,-3,-3,4,-1,-1,0,0,-6
1523149296561938,-3,5,-1,-2,0,-3,-8,-1
1523149296561938,-7,-5,-1,1,0,-1,-2,-5
1523149296572465,1,0,4,3,2,3,15,20
1523149296572465,-11,-5,-14,-19,-3,0,-3,-34
1523149296581490,-12,0,6,20,-2,-2,-3,-6
1523149296581490,-3,0,0,-4,-1,-2,-1,5
1523149296596531,23,-5,-10,-9,-2,-2,4,0
1523149296596531,9,13,11,2,0,-5,-28,19
1523149296598034,0,0,-14,-13,0,0,11,10
1523149296598034,-4,-2,8,7,1,2,15,3
1523149296619090,-11,-3,-3,-30,-4,1,1,-7
1523149296619090,18,9,6,26,2,0,0,7
1523149296620594,-2,-8,-3,-10,2,-1,-15,23
1523149296620594,-26,-9,13,21,-4,-7,-13,-34
1523149296632627,17,7,6,38,5,7,20,5
1523149296632627,-28,-7,-31,-86,-3,1,2,-26
1523149296641655,8,1,7,47,-3,-8,-8,-4
1523149296641655,6,6,2,7,2,-2,-7,4
1523149296656689,2,-4,1,-12,0,-1,7,4
1523149296656689,-9,9,-3,-17,1,2,18,-44
1523149296658193,2,11,-3,8,3,3,-23,23
1523149296658193,19,-7,4,26,-2,-7,-9,20
1523149296678748,1,41,-1,-41,0,0,1,-25
1523149296678748,-41,-90,-6,-9,-7,-2,6,-32
1523149296680753,3,1,-10,-17,-2,-6,-16,-8
1523149296680753,15,3,7,45,1,0,-24,12
1523149296692796,-30,7,6,-13,-3,2,63,-33
1523149296692796,16,27,-9,-12,-3,-5,-56,29
1523149296701811,46,0,15,37,1,-3,29,-58
1523149296701811,-65,-33,-11,-28,-1,4,3,27
1523149296716350,-1,11,-17,8,-2,0,40,-38
1523149296716350,8,-10,27,-9,2,2,15,7
1523149296718354,3,-10,13,49,2,0,-12,13
1523149296718354,17,25,-9,32,3,-2,-21,18
1523149296738908,-2,0,-23,-86,-4,0,-29,-13
1523149296738908,-1,13,31,46,-3,-8,-26,23
1523149296740915,-6,9,-3,44,3,1,26,6
1523149296740915,3,2,-18,-89,-8,2,16,-10
1523149296761472,-4,-17,25,104,8,-3,-31,23
1523149296761472,24,15,-11,11,1,1,10,6
1523149296762973,-18,-5,-2,-35,-2,-1,-16,10
1523149296762973,5,17,11,-17,0,4,41,-73
1523149296776514,46,-18,-25,-23,-5,-5,-19,33
1523149296776514,-39,-2,4,16,-3,-7,-34,-24
1523149296778018,-4,-1,-3,-6,4,4,46,4
1523149296778018,-2,-4,-15,-44,-6,-1,-6,1
1523149296799068,4,-3,23,30,2,-2,-9,-5
1523149296799068,36,3,-1,33,0,-2,-12,7
1523149296800572,-50,-8,-20,-59,-8,-4,-28,34
1523149296800572,8,2,0,-2,3,6,34,-25
1523149296821643,-11,-7,-15,-3,1,-2,-25,12
1523149296821643,-1,1,11,2,0,3,24,13
1523149296823133,28,8,-8,-22,-5,-4,-13,-2
1523149296823133,-18,-7,9,10,-1,-2,1,30
1523149296836668,-17,-5,10,17,-3,-6,-25,-37
1523149296836668,2,5,-14,-16,1,4,40,3
1523149296838172,6,-3,14,-20,-3,0,7,-15
1523149296838172,-10,-7,0,28,0,-5,-29,32
1523149296859228,-4,-2,-10,-12,-3,2,18,-5
1523149296859228,10,1,7,14,-1,-4,-1,22
1523149296860744,-4,-1,11,15,0,3,-3,-14
1523149296860744,5,-3,-32,-32,1,-2,-7,2
1523149296881788,-4,-1,13,14,2,1,1,3
1523149296881788,6,0,9,-2,-3,2,22,8
1523149296883294,-1,5,-8,-11,-3,-2,-12,-11
1523149296883294,1,3,20,-1,0,0,5,-3
1523149296895827,13,-2,-7,19,-2,-4,-6,8
1523149296895827,-12,-3,12,-16,-2,-2,-9,-7
1523149296902845,-15,0,-26,4,2,1,-14,16
1523149296902845,67,4,-8,1,-4,0,12,8
1523149296918887,-28,-11,6,-5,-1,1,8,-8
1523149296918887,4,2,-14,2,1,-1,-2,8
1523149296920392,6,-3,-3,-13,-3,-4,-10,-1
1523149296920392,-4,-4,-1,5,-2,-1,-8,-6
1523149296941455,-7,-6,-14,-2,-3,-2,-3,5
1523149296941455,1,-2,-5,1,-1,-1,0,6
1523149296942951,1,-2,-30,-18,0,2,10,-11
1523149296942951,-24,0,7,24,2,0,2,-12
1523149296955987,-2,-2,10,-7,-2,-1,-7,1
1523149296955987,-8,0,-1,3,-1,1,-3,-3
1523149296962503,6,-1,9,-8,-1,-2,-1,-10
1523149296962503,-7,1,-6,-4,-2,-2,-4,-5
1523149296979047,1,1,15,-2,-6,-3,-9,4
1523149296979047,-7,-1,-9,7,2,-1,1,-3
1523149296980551,0,-3,2,-12,-1,0,1,-11
1523149296980551,-13,-5,-6,10,0,0,-1,10
1523149297001607,2,-3,-13,-1,-1,-1,-1,18
1523149297001607,0,1,36,-2,-3,0,-1,-34
1523149297003111,1,0,17,-4,1,1,4,0
1523149297003111,-14,-5,8,4,1,-3,-4,-16
1523149297015145,1,3,-5,-3,1,-3,-1,-1
1523149297015145,3,0,0,4,-1,-2,-3,8
1523149297024168,-2,-2,3,-9,-4,-2,0,-5
1523149297024168,5,1,0,-1,-3,-2,-2,12
1523149297039207,-6,-2,3,3,-2,-2,-2,-2
1523149297039207,-1,-3,-13,-4,-2,-5,-4,-3
1523149297040715,-4,2,0,5,2,2,3,5
1523149297040715,-8,-6,14,-7,-1,-1,-2,-24
1523149297061768,2,3,7,2,-2,-2,-2,-2
1523149297061768,-1,0,19,-1,-2,0,1,6
1523149297063272,-3,-4,-35,-2,-2,-3,3,1
1523149297063272,-2,-4,-6,-2,-1,-1,-2,2
1523149297075806,-3,1,-4,-5,1,0,-5,-2
1523149297075806,2,2,0,5,1,0,0,4
1523149297082824,-1,-5,7,2,-1,-3,-11,-6
1523149297082824,33,7,-2,-15,-2,-3,-7,4
1523149297099368,-79,-11,-2,14,-1,-2,0,-16
1523149297099368,16,2,-22,-1,1,-1,-8,25
1523149297100871,2,2,2,-4,-1,1,12,3
1523149297100871,-4,2,6,-10,-4,0,-6,-3
1523149297121427,21,1,-6,-25,-4,-3,-2,0
1523149297121427,-2,0,19,61,4,-1,-8,-2
1523149297122930,-8,-1,9,-9,1,4,6,11
1523149297122930,-1,4,-8,-15,5,3,-9,6
1523149297135965,14,-5,24,38,-4,-5,12,30
1523149297135965,-35,-19,-9,-16,-6,0,4,-44
1523149297142483,11,3,-41,-45,-3,-2,-8,-11
1523149297142483,-5,5,8,14,4,-3,6,6
1523149297166548,15,-14,-17,-38,-5,-1,-14,-9
1523149297166548,12,0,-2,2,2,-2,-27,21
1523149297168054,-4,1,16,28,-3,0,34,-24
1523149297168054,-29,-8,-18,2,-1,1,-6,-19
1523149297181587,20,14,-4,-39,1,1,-17,10
1523149297181587,-12,-21,-1,17,-2,-2,17,7
1523149297183090,25,18,1,-32,-5,-4,-38,22
1523149297183090,-1,-5,9,57,2,-1,23,2
1523149297195623,15,-5,-13,-7,1,2,2,-8
1523149297195623,43,14,-3,-35,-5,-1,3,17
1523149297202642,-65,-22,-4,14,0,-3,-3,-39
1523149297202642,27,10,-7,15,-4,-1,13,22
1523149297219185,10,3,2,-12,3,4,-2,15
1523149297219185,20,1,-7,16,-2,-5,-36,12
1523149297220695,-31,-5,0,-6,1,2,50,-15
1523149297220695,3,3,30,-24,-4,-3,-15,-10
1523149297241745,-9,-8,-49,16,-1,-3,5,-2
1523149297241745,-9,7,-9,-23,-3,-1,-4,3
1523149297243250,14,2,1,-36,-3,1,-4,12
1523149297243250,-25,-18,21,81,2,-6,-9,-11
1523149297255283,-2,10,1,13,0,0,6,4
1523149297255283,-11,4,6,-6,0,1,-5,15
1523149297264308,40,-1,-11,-28,-1,0,11,-30
1523149297264308,-54,2,-9,-55,-2,-1,4,18
1523149297278846,-4,-3,0,21,-1,0,-2,-25
1523149297278846,-3,0,-7,10,0,-1,6,-7
1523149297280850,10,0,13,11,-3,-3,-29,23
1523149297280850,6,-3,-17,-32,-4,1,14,-29
1523149297301404,-2,0,22,46,6,-1,2,-9
1523149297301404,-17,-2,-20,-35,-1,-2,22,-12
1523149297303409,8,5,14,37,1,-1,-15,15
1523149297303409,19,-3,-15,-34,-4,3,-20,19
1523149297314942,-56,-14,17,5,-2,-3,-5,-12
1523149297314942,4,-2,-10,6,-1,-2,6,-6
1523149297324469,8,0,34,7,0,2,-8,10
1523149297324469,9,-4,-47,-8,0,-3,-5,-4
1523149297339005,12,3,23,-27,-5,0,-1,32
1523149297339005,-11,-5,-26,4,0,2,23,0
1523149297340511,-23,-8,5,27,0,-4,-13,-5
1523149297340511,-2,1,5,-19,-2,-2,7,-9
1523149297361568,20,5,-1,-2,-2,-2,-4,2
1523149297361568,-6,-1,5,-7,-1,-2,-2,-32
1523149297363073,2,-1,-19,7,1,1,1,6
1523149297363073,9,-1,21,10,0,0,-6,6
1523149297375102,0,2,-14,-7,-2,-2,0,-16
1523149297375102,0,-1,12,-3,-3,-5,-20,4
1523149297384125,-2,-4,3,12,1,-1,5,-1
1523149297384125,-2,-1,-6,3,-2,-2,-3,-6
1523149297399164,21,4,-4,-5,-1,0,-3,2
1523149297399164,-17,-3,20,-4,0,1,8,16
1523149297400669,-3,-5,-67,0,-2,-1,-7,-28
1523149297400669,0,1,19,2,-1,0,17,4
1523149297421725,4,-2,-27,-4,-1,-1,-5,-12
1523149297421725,6,2,-12,2,0,3,16,8
1523149297423231,4,1,16,1,-3,-1,0,6
1523149297423231,2,4,13,4,-1,1,3,16
1523149297435264,-6,-5,-16,-25,-4,-3,2,-24
1523149297435264,-6,-2,3,22,-1,-4,-5,-21
1523149297444287,-8,2,6,-1,-2,-4,-12,-2
1523149297444287,0,0,-8,-6,0,-1,-15,-7
1523149297458825,6,-2,20,2,1,1,10,24
1523149297458825,1,-1,1,-12,-1,0,1,4
1523149297460829,2,1,37,5,0,0,17,3
1523149297460829,-4,-4,-53,-1,0,-1,-7,0
1523149297481383,-11,-2,4,0,-2,-1,8,-5
1523149297481383,-1,-1,-14,-4,-1,-1,-5,-8
1523149297483389,0,-2,14,2,0,-4,-5,-2
1523149297483389,0,-1,7,-3,-1,1,2,8
1523149297495420,-7,0,-2,5,0,-1,-3,-27
1523149297495420,10,0,-9,-6,0,0,-1,-2
1523149297503943,0,5,0,-1,-1,1,0,11
1523149297503943,0,-2,2,1,-2,0,2,-5
1523149297518986,30,12,-1,4,0,0,-20,-13
1523149297518986,-37,12,20,0,0,2,19,13
1523149297520990,4,-9,-16,-3,-3,-2,-4,1
1523149297520990,-20,-14,5,0,-1,-3,-11,-11
1523149297541545,3,5,-1,-6,-1,-2,23,-26
1523149297541545,7,-4,12,-5,-3,-3,-13,0
1523149297543048,10,-2,4,-1,-2,0,3,9
1523149297543048,7,8,6,6,0,-3,0,9
1523149297555081,-5,-6,2,-14,-3,-2,-6,17
1523149297555081,1,-9,-10,28,1,-2,-9,-11
1523149297564108,-29,-4,-8,2,-1,0,-2,-14
1523149297564108,20,1,13,2,2,0,-5,1
1523149297579144,-7,-3,6,8,-4,-2,-5,34
1523149297579144,-14,1,-14,5,-2,0,4,-69
1523149297580649,10,4,-12,-61,2,1,-42,35
1523149297580649,7,1,8,-15,-4,3,31,6
1523149297601706,5,-5,9,87,6,-1,4,25
1523149297601706,-20,-10,4,1,-2,-5,20,-32
1523149297603207,-9,1,5,12,1,-1,-10,-21
1523149297603207,10,2,-28,-76,-7,-6,-87,-5
1523149297615241,5,-5,21,58,3,2,74,38
1523149297615241,-1,-3,-12,-5,-3,-5,-46,17
1523149297624274,7,3,15,4,1,5,35,3
1523149297624274,11,-2,1,-56,-6,-4,-45,-19
1523149297638803,-81,-12,-1,11,-3,-7,-44,23
1523149297638803,24,7,4,10,3,8,105,46
1523149297640810,20,-4,-14,2,-6,-5,-19,30
1523149297640810,-41,-10,4,66,0,-7,-6,-43
1523149297661362,22,4,5,-27,0,-5,-113,50
1523149297661362,13,10,5,-23,1,8,60,-45
1523149297663367,-5,0,-21,-61,-4,0,4,30
1523149297663367,16,4,4,60,2,0,70,56
1523149297683422,-6,-9,-11,-57,-3,-1,1,-44
1523149297683422,-4,-5,12,10,-2,-4,-52,21
1523149297691945,0,1,1,11,-1,0,13,-39
1523149297691945,-3,1,-5,13,1,-2,-30,3
1523149297698963,5,3,-20,-17,-2,6,59,-31
1523149297698963,11,0,19,-19,3,-4,-65,15
1523149297700969,-16,-9,3,33,2,2,83,-14
1523149297700969,1,1,-10,-39,-9,-2,-10,2
1523149297722026,9,2,-15,39,1,0,-10,-10
1523149297722026,15,2,2,-20,-7,-7,-30,22
1523149297723528,1,2,13,11,1,0,-11,-10
1523149297723528,-1,-1,2,16,5,3,-5,27
1523149297744083,8,-5,-34,-69,-6,5,38,-17
1523149297744083,-18,2,5,8,-1,-2,4,5
1523149297745588,-10,-5,27,22,-2,-8,-30,-29
1523149297745588,-2,-2,-34,1,-1,0,15,2
1523149297759123,21,4,16,-30,1,0,-7,-8
1523149297759123,-51,-4,1,14,-2,-2,-17,5
1523149297760627,2,-2,9,23,1,-2,2,0
1523149297760627,0,-1,-2,-41,-2,2,22,-14
1523149297781682,-8,0,22,38,2,-4,-25,-9
1523149297781682,21,-1,-21,-14,1,2,-11,16
1523149297783187,4,1,-15,-17,-2,1,23,-7
1523149297783187,-8,1,1,-2,-3,-2,-21,-8
1523149297804252,-2,0,8,-24,-3,-3,27,-45
1523149297804252,13,2,-5,-4,0,0,-5,19
1523149297805748,-10,-3,-4,-47,-4,1,-18,-3
1523149297805748,2,-11,18,94,6,-4,3,1
1523149297818280,-4,4,8,-10,0,0,3,26
1523149297818280,-3,-4,-26,-21,-3,-1,4,-27
1523149297825299,4,-1,-11,-8,-4,-3,-27,-3
1523149297825299,-2,-1,34,0,1,2,20,-9
1523149297841344,-1,-4,-41,-1,-2,-4,-19,-4
1523149297841344,6,-2,-2,12,-3,-1,23,-2
1523149297843347,36,7,-13,15,-1,-3,-20,11
1523149297843347,-14,-4,-4,-20,-2,-1,10,-4
1523149297863903,-11,-6,22,7,-1,1,0,3
1523149297863903,6,4,1,-4,-1,-2,-27,8
1523149297865405,9,0,-2,13,2,2,21,-8
1523149297865405,23,2,33,-10,-2,-1,-13,17
1523149297878442,-58,-3,-18,-4,-3,-2,12,-17
1523149297878442,7,-1,-4,2,-1,-4,-12,30
1523149297884958,-1,-2,28,4,0,0,7,4
1523149297884958,-27,-4,-52,-12,-2,-1,-4,-25
1523149297900500,13,0,7,18,1,0,-2,-3
1523149297900500,-1,-3,7,-9,-1,-1,11,5
1523149297909022,-8,-2,-9,5,-2,-3,-9,39
1523149297909022,4,6,16,-5,-2,0,9,-36
1523149297924061,15,1,11,-10,-2,-1,-30,6
1523149297924061,-6,-2,-22,-2,0,1,31,-17
1523149297925567,-3,-6,4,12,0,1,-8,-6
1523149297925567,4,12,-24,-8,-2,-4,-6,-10
1523149297938600,24,-1,8,-7,0,-1,2,28
1523149297938600,-15,1,9,7,0,0,-9,-3
1523149297945120,-16,-7,-13,-3,-2,-2,2,2
1523149297945120,-50,-5,-4,-1,-1,-5,-6,-81
1523149297961162,14,0,10,3,-2,1,2,28
1523149297961162,11,2,-49,-9,-2,-1,-2,-20
1523149297967677,3,6,5,4,0,-1,-3,15
1523149297967677,8,-3,6,-1,-1,1,-3,26
1523149297983731,-5,-1,-4,-7,-1,-1,17,-18
1523149297983731,4,-6,4,-10,2,-1,-2,-2
1523149297985738,-9,-1,15,22,-2,-3,-10,-11
1523149297985738,10,-1,-5,-10,1,1,8,17
1523149297998775,-8,-3,2,-3,-2,-2,-16,-12
1523149297998775,5,0,20,-4,-2,-1,4,0
1523149298005290,-8,-1,-17,0,-2,-3,0,7
1523149298005290,9,-7,6,8,2,2,16,19
1523149298021333,4,5,-8,-8,-3,-3,-5,12
1523149298021333,7,2,-16,-42,-2,3,-5,-26
1523149298023338,-32,-10,0,-8,-2,-5,-9,-27
1523149298023338,-4,-7,6,52,1,-2,4,14
1523149298043893,-1,4,-22,-30,-4,-4,-22,6
1523149298043893,16,2,19,9,-7,-3,-5,27
1523149298045898,18,5,-9,-73,4,6,25,-2
1523149298045898,-60,-6,8,56,2,-4,-1,-32
1523149298058433,7,-1,10,-18,-1,1,7,28
1523149298058433,-10,-5,-21,-44,-5,-1,-14,-58
1523149298065450,2,-3,0,44,-4,-5,-24,15
1523149298065450,45,3,4,0,0,0,-12,-12
1523149298081492,-61,0,-4,18,7,4,17,-42
1523149298081492,-3,-3,5,11,3,1,10,32
1523149298082999,5,-2,-10,-25,-5,-4,-16,11
1523149298082999,16,-1,5,-24,-2,0,32,-54
1523149298104052,9,-3,9,23,-4,-4,-18,16
1523149298104052,-5,-3,5,14,5,2,26,-13
1523149298105560,-2,2,-1,8,-3,0,-8,-20
1523149298105560,9,-1,-8,-15,-3,0,-2,80
1523149298118590,-3,-4,-11,-44,-4,-5,-8,-22
1523149298118590,-15,-9,3,44,2,-7,-44,-49
1523149298125111,12,3,1,8,2,5,73,-11
1523149298125111,7,6,9,-30,-2,1,-21,40
1523149298141660,15,-6,-9,17,-1,0,35,-45
1523149298141660,-7,-3,3,15,-2,-5,-17,7
1523149298143158,1,1,34,23,2,-5,-36,27
1523149298143158,-11,-2,-25,-33,2,4,11,-13
1523149298164213,11,5,1,-9,-1,2,17,7
1523149298164213,4,-2,15,-2,-1,-2,-9,20
1523149298165721,5,-5,-11,16,0,-3,-5,-16
1523149298165721,1,2,9,-3,0,0,-1,12
1523149298178255,3,-4,-3,9,-1,-2,-20,22
1523149298178255,-3,8,35,-16,-4,-3,13,-39
1523149298185272,0,-1,-14,19,0,-2,-2,-4
1523149298185272,-1,-2,-13,-39,-2,-1,-5,-2
1523149298201310,-9,-4,10,88,6,0,-2,-12
1523149298201310,6,-2,-16,-44,-3,-1,-4,21
1523149298203319,-10,-4,3,19,-1,-3,15,20
1523149298203319,5,3,10,-6,-1,-1,-10,-2
1523149298223871,-11,-3,7,-21,-2,0,3,0
1523149298223871,-41,-4,-5,1,-1,1,39,-11
1523149298225876,3,1,-10,10,0,-2,-26,2
1523149298225876,0,-3,18,6,-4,-1,15,-23
1523149298237408,4,0,1,-6,-5,-2,13,22
1523149298237408,14,-3,-13,0,-1,1,-15,-11
1523149298246932,-2,-1,9,26,4,0,-4,-6
1523149298246932,4,1,-18,-18,-1,1,0,0
1523149298261972,0,-4,4,1,0,-3,-16,-8
1523149298261972,45,9,-6,2,-2,-1,-4,12
1523149298263575,-30,-10,-3,-19,-1,2,11,-9
1523149298263575,12,3,-7,-9,-1,-1,-25,16
1523149298284190,4,0,-11,-3,1,2,22,-25
1523149298284190,0,-6,5,7,-3,-6,-22,8
1523149298285536,7,0,-6,-1,-1,2,28,5
1523149298285536,3,9,-8,-9,4,2,8,-32
1523149298297694,-21,-4,-4,-39,-5,-2,-15,-18
1523149298297694,-11,-4,9,32,3,0,3,13
1523149298306594,6,4,-14,-21,-4,-2,-25,-13
1523149298306594,-6,-8,-2,1,-4,-2,10,24
1523149298321635,9,3,-4,-9,-2,-1,-1,-17
1523149298321635,1,3,29,11,0,0,-3,8
1523149298323137,39,-2,-41,-56,0,2,-17,8
1523149298323137,-33,-4,21,54,0,-7,-18,-5
1523149298344203,7,1,-9,-12,-2,-2,-29,13
1523149298344203,-1,-1,4,9,0,3,24,22
1523149298345698,4,1,4,-21,1,5,22,-1
1523149298345698,-2,-6,-17,-7,-2,-2,-2,9
1523149298357728,-6,1,-14,6,0,-3,-17,-12
1523149298357728,2,-4,3,3,-2,-2,-12,8
1523149298366753,-27,-1,10,10,-1,-3,-7,-34
1523149298366753,11,-4,2,-3,-4,-1,7,13
1523149298381792,-11,-2,-1,4,-1,-3,-11,-23
1523149298381792,5,-3,11,-9,0,3,9,1
1523149298383297,-7,-1,-36,0,-4,-2,-15,0
1523149298383297,-7,-3,5,12,0,-1,0,-12
1523149298404353,22,3,2,-10,-3,0,19,24
1523149298404353,2,-1,-4,1,1,-1,-7,18
1523149298405856,-36,-4,22,5,-3,-3,-11,-32
1523149298405856,10,-5,-31,-9,-3,1,19,3
1523149298417912,0,-1,-3,5,-2,-3,-15,28
1523149298417912,-3,1,-10,-1,1,2,30,-11
1523149298426914,9,1,15,5,0,-1,-9,26
1523149298426914,-2,-2,-8,-3,1,1,0,-20
1523149298441456,-3,0,12,3,0,0,-2,18
1523149298441456,-4,-1,-10,3,-2,-4,-7,1
1523149298442956,0,0,11,-6,-2,-3,-4,-28
1523149298442956,-1,-3,-39,-4,0,-1,5,19
1523149298464017,1,-2,4,3,0,0,9,-8
1523149298464017,-5,-3,-11,-4,-1,-2,-24,13
1523149298465516,-1,-2,16,-3,-2,-1,25,-26
1523149298465516,13,2,12,1,-1,-4,-9,8
1523149298477602,-14,-2,-4,4,-1,1,-2,-14
1523149298477602,-20,-6,-22,-5,0,3,7,-12
1523149298486577,1,1,2,0,1,-1,-10,16
1523149298486577,-1,-1,14,3,0,-1,-1,-3
1523149298501111,10,0,-5,-5,-2,-1,7,3
1523149298501111,10,3,5,-1,-2,-4,-8,-9
1523149298508135,-11,-5,-3,1,0,1,0,10
1523149298508135,-1,1,8,-1,-1,0,-22,12
1523149298524247,0,-3,-6,-4,0,2,34,-30
1523149298524247,-8,-3,-7,-5,-2,-1,-11,-6
1523149298525749,-7,-3,1,12,-1,-1,1,-12
1523149298525749,-1,-3,-6,-15,-2,-1,1,-2
1523149298537780,-2,-5,-2,-7,-2,-3,-15,4
1523149298537780,3,0,-6,8,-4,-1,2,-3
1523149298546803,17,8,4,-25,-1,0,-4,27
1523149298546803,-18,-6,20,72,5,-2,-2,-49
1523149298561419,6,3,-8,-58,-3,3,12,8
1523149298561419,4,-3,-2,33,0,-5,-16,17
1523149298562927,11,-2,-6,-29,-3,0,-2,23
1523149298562927,-15,-1,-2,-25,-3,1,-10,-12
1523149298583978,-1,-1,-6,8,0,-2,-25,19
1523149298583978,-4,-3,11,44,-6,-4,44,2
1523149298585983,16,2,-27,-68,-4,2,3,7
1523149298585983,12,-3,-23,-14,-1,2,-12,29
1523149298598088,-13,-8,29,84,4,-5,5,5
1523149298598088,12,4,-8,-42,0,-2,-19,-3
1523149298606548,-50,-11,-1,3,-4,-2,14,-35
1523149298606548,27,4,-6,-11,1,2,38,19
1523149298621580,-25,-2,-3,-18,-2,-3,-25,-34
1523149298621580,-1,-2,-14,3,3,3,4,10
1523149298623088,29,8,4,21,1,-1,-2,11
1523149298623088,-21,-9,9,-16,-2,-4,-29,-6
1523149298644141,-12,-5,-8,-20,-2,1,30,-10
1523149298644141,-19,-4,12,35,2,-1,-6,-39
1523149298645644,2,3,8,0,3,-2,-11,7
1523149298645644,3,7,-2,-15,-8,-5,-11,55
1523149298666910,14,-3,-34,43,1,-1,1,5
1523149298666910,0,1,-3,-49,-2,-2,-45,-50
1523149298668205,-14,-5,1,42,3,0,80,13
1523149298668205,3,-1,18,15,-2,-4,-24,-14
1523149298681238,8,2,2,0,1,4,28,20
1523149298681238,-26,-1,-27,-46,-2,0,-6,9
1523149298683243,15,-2,8,31,0,-2,-18,-10
1523149298683243,-10,-4,-10,-29,-8,-3,2,-28
1523149298704301,-11,0,22,-39,1,1,-12,-2
1523149298704301,19,3,2,68,6,-3,-1,37
1523149298705804,1,0,22,-5,-2,-1,-21,-16
1523149298705804,-12,-2,6,-7,2,2,29,-8
1523149298726393,13,1,-6,-27,-2,-2,14,-14
1523149298726393,1,-3,11,6,-1,0,14,-15
1523149298728364,2,-3,-12,7,-1,-1,-16,19
1523149298728364,0,2,-1,-2,2,2,-3,3
1523149298741398,19,5,15,7,0,-2,-20,10
1523149298741398,-3,-5,-16,-13,-3,0,30,6
1523149298742902,-16,-1,-4,-30,-3,-1,-13,-41
1523149298742902,11,-3,14,43,1,0,1,-10
1523149298764201,-7,-2,-9,3,-3,-3,-22,-5
1523149298764201,19,2,3,-19,-2,-1,2,42
1523149298765463,-6,-3,-7,9,-1,-4,-20,-29
1523149298765463,22,10,-8,-23,-2,1,19,-29
1523149298786518,-27,-15,-13,13,0,-1,-10,-3
1523149298786518,-8,-4,25,22,-1,-2,-11,-9
1523149298788024,-1,0,-10,-14,0,-1,5,6
1523149298788024,-8,-3,5,10,-4,-2,-11,-3
1523149298801286,3,-2,-8,-23,-4,-2,-20,16
1523149298801286,30,1,9,-19,-2,1,26,-11
1523149298807577,-14,-1,3,21,-2,-5,-35,5
1523149298807577,-9,-6,-12,-5,0,4,33,14
1523149298824119,-19,5,3,-2,-1,-3,-6,-3
1523149298824119,14,-1,-4,1,0,0,-10,-6
1523149298825623,12,-1,-4,-7,-2,-1,-14,10
1523149298825623,-5,-2,2,14,1,-5,-9,3
1523149298846680,10,0,-1,-17,-2,1,12,15
1523149298846680,-37,-1,-1,17,1,1,-4,-27
1523149298848183,-5,-10,7,1,-3,-1,-19,46
1523149298848183,-1,-4,-53,-16,0,2,39,-33
1523149298860769,-16,-3,20,20,-3,-2,6,-7
1523149298860769,3,0,-4,-21,-2,-4,-9,14
1523149298868112,0,3,-7,-4,-1,-2,-8,6
1523149298868112,13,9,11,-2,-2,-1,0,25
1523149298884265,17,3,1,14,0,-2,0,-6
1523149298884265,-2,-6,-20,-10,-2,-2,-15,15
1523149298886026,4,2,13,8,1,2,29,5
1523149298886026,-2,-1,7,-5,2,-1,-22,-44
1523149298906586,2,0,-4,0,1,0,16,9
1523149298906586,-20,-3,1,-10,-2,0,-10,-28
1523149298908085,12,1,-2,1,0,1,7,9
1523149298908085,-5,-3,10,3,-2,-4,-11,7
1523149298920618,4,1,-6,-1,-2,-1,-5,4
1523149298920618,1,-2,10,-1,-1,-1,3,9
1523149298927637,-3,-1,6,-1,-2,0,10,-4
1523149298927637,-13,-4,15,1,1,-1,-5,6
1523149298944183,2,-8,-33,3,-3,-2,-10,-30
1523149298944183,5,3,11,-8,-2,0,-6,20
1523149298945688,-4,1,-9,1,-2,0,13,-38
1523149298945688,-6,-2,9,2,-2,0,-6,8
1523149298966740,-2,-5,3,-1,-4,-3,-4,-2
1523149298966740,1,-1,-6,-5,-1,-1,1,-3
1523149298968245,-3,-1,-13,-1,0,0,-3,18
1523149298968245,-1,-2,-6,4,-1,-3,-10,9
1523149298981021,1,4,20,0,0,2,4,6
1523149298981021,12,-1,-14,-9,-5,-7,-3,-21
1523149298987798,-3,-1,-1,2,0,3,4,-4
1523149298987798,-1,0,1,-2,-1,-2,-9,2
1523149299003839,16,5,4,0,-1,-2,2,1
1523149299003839,-29,-3,5,-1,-1,-2,-3,17
1523149299005847,4,-1,9,2,0,1,-12,-3
1523149299005847,55,6,-52,-10,-3,0,32,-29
1523149299026401,0,-1,2,6,2,-2,-16,-3
1523149299026401,3,-2,1,6,0,1,-6,11
1523149299028553,-6,-1,-10,-16,-1,0,16,-18
1523149299028553,0,-1,12,-8,-2,-2,-13,38
1523149299040716,3,2,-10,-36,0,4,4,-26
1523149299040716,1,-2,16,86,4,0,8,8
1523149299047977,-15,-2,6,19,-1,-5,-7,-29
1523149299047977,-10,-4,18,-26,-8,-7,-36,-2
1523149299064430,0,3,-18,3,3,2,31,21
1523149299064430,-9,0,13,-55,-2,-1,0,-4
1523149299065783,16,5,-2,-24,3,-1,-12,12
1523149299065783,-15,-14,14,114,3,0,9,-3
1523149299086909,-34,-5,-19,-114,-8,-1,-2,-25
1523149299086909,18,-3,16,90,1,-6,-8,-1
1523149299088345,7,-2,41,73,8,-4,20,-8
1523149299088345,-39,2,-22,-93,-8,-5,-25,60
1523149299100875,-2,-4,16,30,2,-4,-10,-47
1523149299100875,-7,1,-33,-71,-5,2,24,-45
1523149299107894,0,0,5,-18,-7,-1,-20,15
1523149299107894,-1,-1,38,7,0,2,11,-1
1523149299123938,13,-1,-38,19,-4,-4,-26,85
1523149299123938,-37,-5,-8,-22,-2,3,35,-42
1523149299125440,-37,-11,-10,20,-3,-6,-8,-12
1523149299125440,7,6,7,-19,5,3,5,21
1523149299146498,-3,-2,21,-5,1,2,41,-32
1523149299146498,23,-4,-17,23,-5,-5,5,33
1523149299148004,-6,-3,-23,-44,-4,-4,-28,-13
1523149299148004,-11,-7,1,53,5,-6,-77,13
1523149299160068,3,3,5,8,-1,7,74,12
1523149299160068,11,4,4,-25,1,0,-14,-6
1523149299169564,5,-4,-18,-10,-4,-1,25,6
1523149299169564,-2,-1,-2,-15,-3,-3,-19,-6
1523149299184097,7,-4,45,24,0,-6,-51,-28
1523149299184097,3,-1,-14,-3,1,3,13,16
1523149299185602,1,1,-5,-29,-1,1,-6,18
1523149299185602,1,-1,-2,-8,1,1,20,-43
1523149299206721,5,-2,-7,19,-2,-4,-36,12
1523149299206721,5,7,4,-52,-2,1,16,4
1523149299208164,-7,-8,12,38,1,-2,-8,-4
1523149299208164,3,-2,-26,-9,-2,-1,-2,-7
1523149299220192,-7,1,-9,-9,0,-1,9,-2
1523149299220192,-2,-3,5,27,-2,-3,-23,6
1523149299229217,-14,2,-9,-10,-1,-2,-5,-4
1523149299229217,4,3,18,16,4,3,40,-15
1523149299244256,-10,-5,-37,4,-6,-5,-27,-26
1523149299244256,-8,1,-9,-70,-4,2,-4,-4
1523149299245763,19,1,8,5,-1,-2,5,14
1523149299245763,-16,-1,-7,0,-3,-3,1,-23
1523149299266316,0,3,-4,-6,2,-2,-11,12
1523149299266316,3,0,21,10,2,0,-5,5
1523149299268323,0,3,7,3,-2,1,9,-7
1523149299268323,10,5,-2,-35,-5,0,-6,11
1523149299280354,-3,-3,7,18,1,1,-1,6
1523149299280354,-5,5,7,40,1,-6,-5,-15
1523149299289382,44,4,-14,-39,-2,2,7,23
1523149299289382,-38,-8,10,32,0,-1,3,-17
1523149299303915,0,-2,8,-8,0,3,0,4
1523149299303915,8,1,-2,-2,-2,1,-7,3
1523149299305923,-4,-1,-8,-4,-3,-3,-14,-13
1523149299305923,3,-1,-15,-8,-2,0,12,-8
1523149299326476,6,0,11,8,0,-4,-5,7
1523149299326476,-6,-3,-13,-10,-1,-4,-29,20
1523149299327981,-5,-2,-2,8,1,2,39,-44
1523149299327981,3,-7,10,-13,-2,-5,-10,-1
1523149299350540,3,7,-6,2,-1,-1,-4,11
1523149299350540,-5,-4,-13,6,0,-1,6,1
1523149299352044,-8,-1,-8,-8,-4,-2,-4,7
1523149299352044,6,3,17,2,-1,0,-1,-5
1523149299364272,3,-1,23,1,-1,0,4,-4
1523149299364272,12,-1,-21,-3,0,0,-7,-2
1523149299365581,-4,-4,14,1,-2,-3,-23,11
1523149299365581,-1,2,-5,-9,-2,3,18,-5
1523149299387138,4,-3,3,3,1,-3,-11,12
1523149299387138,-10,-3,-2,-5,-1,-3,0,-4
1523149299388643,-6,1,10,-1,1,0,-7,5
1523149299388643,17,-3,-9,1,-2,-2,-2,-2
1523149299410700,-5,-4,24,0,-1,0,13,-5
1523149299410700,4,6,-45,-4,-4,-3,-12,3
1523149299412204,-1,-1,-6,-3,-1,1,3,-1
1523149299412204,-5,-1,-2,-3,-1,-1,-1,14
1523149299424237,-2,-6,-20,1,-1,0,-3,-23
1523149299424237,-23,-5,19,-2,0,0,2,3
1523149299425739,25,0,-9,2,-1,-2,-7,9
1523149299425739,-10,3,-14,-5,-2,-3,7,-43
1523149299446295,-8,-9,-7,-2,-4,-4,-14,3
1523149299446295,7,1,29,5,1,1,0,3
1523149299448300,-12,-6,-14,-6,-2,-4,6,-7
1523149299448300,0,-3,2,-1,-1,-1,-17,6
1523149299460366,53,14,33,6,2,0,6,15
1523149299460366,-24,-9,-38,-6,-1,-1,3,-10
1523149299469356,-2,-1,2,0,0,0,-6,-10
1523149299469356,1,-2,0,-3,-3,1,0,8
1523149299484398,11,2,-8,0,-3,-3,-2,22
1523149299484398,0,-1,10,-1,-1,-4,2,-34
1523149299486051,-10,-2,16,-1,0,-1,-9,4
1523149299486051,14,6,-12,3,5,3,3,4
1523149299506613,-18,-4,-17,-8,-2,-1,3,-12
1523149299506613,3,3,17,0,0,0,2,16
1523149299508117,0,-2,-5,18,-1,-3,-12,11
1523149299508117,-7,-6,-4,-21,-7,-3,-10,-2
1523149299520149,-14,-5,-17,-15,1,6,46,6
1523149299520149,-4,3,1,3,0,0,-6,8
1523149299529173,26,-2,-8,-14,4,0,-25,39
1523149299529173,-5,-6,20,88,5,-2,26,12
1523149299544242,-4,3,-10,-38,-5,-3,-37,4
1523149299544242,6,-2,-15,-26,-5,1,24,9
1523149299545718,-15,0,-16,-48,-1,2,11,4
1523149299545718,-7,-3,-15,5,-2,-3,-9,-10
1523149299566773,-3,2,-1,-38,-1,1,-6,-6
1523149299566773,34,3,10,53,3,0,-18,25
1523149299568277,-19,-11,24,53,2,1,46,-52
1523149299568277,-51,7,-6,9,2,-1,-11,-39
1523149299588832,-8,-14,-14,-52,-1,-2,-5,-6
1523149299588832,-7,-5,14,-20,-2,-2,-20,-12
1523149299590837,23,1,-1,-6,-4,1,2,58
1523149299590837,17,-1,4,-6,-3,-5,-9,2
1523149299603872,-47,-3,-2,48,1,4,58,-33
1523149299603872,-3,4,3,-40,-3,-1,19,-21
1523149299605376,-22,3,-9,32,-3,-5,-10,-9
1523149299605376,40,1,4,-23,-3,0,-2,2
1523149299625701,13,3,-2,25,6,4,-12,33
1523149299625701,-4,-5,-5,-51,-4,-2,-5,-14
1523149299634224,-21,-7,9,90,4,-5,2,-5
1523149299634224,7,2,2,-21,1,0,-17,6
1523149299649365,10,2,13,2,-1,-2,-11,-3
1523149299649365,11,-7,-60,11,-2,-1,-3,20
1523149299650769,-9,2,-4,-56,-3,1,15,1
1523149299650769,17,6,8,1,1,-1,-21,29
1523149299664097,-16,-5,7,28,0,-1,-4,-13
1523149299664097,-24,-9,16,20,4,-3,-10,-14
1523149299665861,41,4,-7,-11,-4,-3,-26,10
1523149299665861,-23,-3,-3,-45,-1,3,21,0
1523149299686416,15,9,11,-31,-6,-2,2,-7
1523149299686416,-4,0,-5,36,3,1,11,-5
1523149299687922,10,1,-14,-24,-2,-1,-30,-16
1523149299687922,-5,-6,5,10,1,1,17,-8
1523149299709477,3,2,-11,4,-2,-5,-32,7
1523149299709477,-3,0,35,4,2,2,22,4
1523149299710481,-3,2,7,1,-1,1,9,-11
1523149299710481,-3,-3,-20,-24,-4,-3,7,-2
1523149299723515,-1,0,2,2,-1,-3,-11,19
1523149299723515,-1,3,3,14,-4,-3,-1,-21
1523149299730270,-8,-4,-10,-24,-1,2,9,-14
1523149299730270,4,0,13,-25,-3,1,5,6
1523149299746813,-5,-9,-40,77,3,-6,-20,-3
1523149299746813,3,0,25,-5,-2,-1,11,1
1523149299748081,1,4,-6,-13,-2,-2,-15,26
1523149299748081,27,1,-15,-33,-3,2,7,27
1523149299769192,-23,-2,8,3,-5,-3,-1,-45
1523149299769192,-22,-10,-4,-9,-2,-3,-15,5
1523149299770641,13,1,15,26,3,1,27,6
1523149299770641,5,3,-14,12,1,-1,-8,7
1523149299783674,14,1,-10,-27,-3,3,19,2
1523149299783674,-6,2,10,16,3,-2,-7,-5
1523149299790192,-1,-3,-1,-26,-6,-3,-4,-10
1523149299790192,6,-1,-5,-5,0,-2,-12,6
1523149299807740,-15,-6,16,30,2,-2,7,-15
1523149299807740,12,13,-8,-5,-3,0,-20,-14
1523149299809745,-8,-2,3,-38,-4,-2,-2,-3
1523149299809745,-9,0,19,36,3,0,10,-12
1523149299829406,0,2,-2,-23,-1,2,7,-17
1523149299829406,1,-7,-4,18,-3,-3,-13,15
1523149299831028,-10,0,3,6,2,0,3,-14
1523149299831028,-3,-1,-6,14,0,-3,-5,5
1523149299843369,13,-2,10,-11,-1,-1,-4,28
1523149299843369,10,2,2,-19,-2,1,0,-4
1523149299850581,-36,-12,-3,8,-5,-5,-14,-15
1523149299850581,-7,-5,-19,8,2,2,23,-5
1523149299866637,13,1,-2,-3,-2,1,-6,22
1523149299866637,1,0,-8,17,1,0,15,-8
1523149299868582,79,12,1,-46,-4,-4,-21,-2
1523149299868582,-64,-15,-5,6,-4,-3,2,1
1523149299889191,-6,-1,26,7,1,-4,-32,16
1523149299889191,-2,0,-9,-21,0,4,26,-5
1523149299890960,1,-5,-69,7,-1,1,1,2
1523149299890960,6,-1,27,3,1,-1,-7,-8
1523149299903494,2,-1,6,24,-2,-5,-6,-5
1523149299903494,-4,6,1,-31,-2,-2,-14,3
1523149299910224,-15,-1,5,4,3,3,10,4
1523149299910224,6,2,-3,21,0,-2,-7,1
1523149299926791,-14,-3,-23,-30,-3,-1,3,-3
1523149299926791,7,-4,-11,6,-1,-3,-3,3
1523149299928059,-23,1,21,33,0,1,7,-6
1523149299928059,13,1,-14,-35,-5,-1,-8,-2
1523149299949344,12,4,1,4,1,1,7,-8
1523149299949344,-4,-7,4,12,2,-1,0,22
1523149299950619,-1,6,31,-8,-1,-1,13,-16
1523149299950619,0,-4,-34,-2,-4,-3,-11,-11
1523149299963752,-1,2,-1,1,-2,0,4,-5
1523149299963752,0,-3,-1,1,-1,-1,-8,5
1523149299970171,-15,2,18,-2,-1,-2,-8,1
1523149299970171,14,2,12,3,-3,0,2,-26
1523149299986716,-12,-1,4,-11,-1,-3,4,-11
1523149299986716,4,1,-2,-2,2,1,0,13
1523149299988220,-3,-4,-3,7,-1,0,-4,7
1523149299988220,-4,2,11,-19,-2,-2,-6,-41
1523149300009370,-6,-8,-23,17,2,0,0,17
1523149300009370,0,1,-20,-5,-4,-2,-2,-8
1523149300011016,1,-1,6,4,-2,-1,0,15
1523149300011016,-3,-2,-49,-7,-2,-2,-6,32
1523149300023549,-9,-6,-6,-9,-3,-3,-5,-20
1523149300023549,-4,-2,11,2,-1,-3,-4,-7
1523149300030331,-6,-1,-18,0,0,-1,3,-1
1523149300030331,-1,3,17,6,1,0,3,12
1523149300046603,7,2,-1,-3,0,2,5,-1
1523149300046603,-5,-4,-8,-3,-4,-3,-3,-5
1523149300048554,-5,-4,-6,-4,-2,-3,-8,-13
1523149300048554,-2,0,11,6,0,-3,1,-7
1523149300070438,6,2,2,-1,0,1,0,8
1523149300070438,2,1,12,-4,0,1,-1,4
1523149300071942,-5,-2,-9,0,-1,1,1,-1
1523149300071942,3,-2,14,2,-2,0,2,4
1523149300082470,0,2,2,-6,-3,-2,0,1
1523149300082470,-1,-5,-7,-3,-2,-3,-4,-1
1523149300091494,-2,0,17,4,2,1,2,-7
1523149300091494,-5,0,-27,0,-1,0,1,-2
1523149300106681,21,8,-2,-6,2,1,-1,4
1523149300106681,-29,-17,2,2,-3,-1,0,-3
1523149300108185,6,-3,-2,-2,-1,-1,-3,-1
1523149300108185,4,-1,9,-17,-2,0,-6,12
1523149300129254,-4,13,15,29,0,-3,8,-20
1523149300129254,13,-2,3,-16,-3,2,1,4
1523149300131052,-4,-3,-10,-4,2,1,-1,13
1523149300131052,8,-6,-9,-8,1,0,-11,1
1523149300142794,14,-4,9,28,1,1,6,8
1523149300142794,-19,9,1,-79,-1,0,1,-32
1523149300151578,-10,-11,5,99,-8,-13,-10,-13
1523149300151578,10,12,0,-42,-4,-1,10,-21
1523149300166618,20,-3,-1,23,2,0,-16,8
1523149300166618,-27,-8,-8,-40,0,-2,-3,22
1523149300168123,-21,2,3,13,7,5,18,-43
1523149300168123,8,6,12,-68,-2,2,-16,6
1523149300189415,17,-9,0,51,-5,-6,26,-29
1523149300189415,-44,0,-1,37,2,-2,-17,-9
1523149300190682,21,2,-13,-20,-1,-2,-8,20
1523149300190682,4,-1,30,13,0,-1,9,8
1523149300202714,-21,-7,2,-2,-1,-3,-52,-23
1523149300202714,18,3,3,13,1,3,67,15
1523149300219259,4,-1,-12,-50,-3,-2,-9,21
1523149300219259,-5,-3,-4,32,0,-3,7,-33
1523149300226513,-8,-1,-12,-51,-4,2,1,26
1523149300226513,8,1,16,42,-1,-6,-35,-7
1523149300228282,-21,-1,6,21,2,2,21,12
1523149300228282,10,-11,-24,-9,-4,-1,-1,6
1523149300249338,-3,-5,-25,-29,-5,-3,1,20
1523149300249338,25,10,27,14,-4,-1,14,-32
1523149300251076,-2,1,-7,-34,-1,0,-1,-13
1523149300251076,-15,-5,15,55,-1,-4,-14,19
1523149300262995,-3,3,-7,-78,0,3,2,5
1523149300262995,-3,-3,-15,34,3,-3,-19,-5
1523149300271397,8,4,11,-33,-4,-1,-5,12
1523149300271397,-12,-7,-6,42,1,0,18,-3
1523149300286438,-5,0,7,-10,-1,-2,-8,3
1523149300286438,16,0,-7,-10,-2,1,-3,17
1523149300287941,0,1,17,-2,-1,-1,-15,7
1523149300287941,-8,-2,-33,16,3,-2,9,-27
1523149300308997,-10,-1,11,3,3,0,10,-24
1523149300308997,-3,-5,-7,-9,-2,-1,-6,-3
1523149300311023,3,1,4,-8,-1,-2,-16,1
1523149300311023,3,0,-23,9,-1,0,15,14
1523149300323049,-8,-1,6,-17,-7,-2,3,7
1523149300323049,5,-1,14,54,1,-2,-1,-4
1523149300331789,2,0,-9,-35,-1,0,-7,-4
1523149300331789,-2,-4,5,33,4,-2,-1,-13
1523149300346828,-11,-4,-4,7,-1,2,6,-5
1523149300346828,8,3,-4,-23,-4,0,-5,23
1523149300348551,-3,0,-22,-40,-5,-1,5,-20
1523149300348551,5,-3,24,34,-1,-4,-14,3
1523149300368887,-18,-7,10,5,-1,-3,-11,4
1523149300368887,13,-3,-53,-15,0,1,8,8
1523149300370392,2,-2,-8,15,0,2,4,2
1523149300370392,-5,6,25,-35,-2,4,0,-9
1523149300383057,6,-7,-9,3,-3,-5,-4,24
1523149300383057,10,8,32,7,-1,-3,-20,-2
1523149300391448,-1,-5,-32,9,-2,-2,23,-7
1523149300391448,-12,-1,-2,-31,-2,0,-12,18
1523149300406730,39,5,3,35,3,0,-8,-31
1523149300406730,-37,-9,9,-14,-1,2,13,8
1523149300407990,5,-1,13,12,0,-1,2,14
1523149300407990,1,6,7,-11,-3,-5,7,-26
1523149300428996,-10,-26,-29,-5,-1,-4,-9,5
1523149300428996,-4,-3,10,-6,-3,-5,-19,-14
1523149300430758,17,7,10,15,3,2,4,-8
1523149300430758,-11,-5,-10,-8,-1,0,4,33
1523149300443082,-10,4,0,-8,-2,0,11,3
1523149300443082,1,0,-10,-12,-2,0,-2,0
1523149300451937,-6,-6,-1,25,1,-3,-5,11
1523149300451937,6,5,18,-6,-1,-2,-11,-5
1523149300467972,33,9,6,-14,0,1,6,5
1523149300467972,-57,-11,-37,13,-1,-1,18,-9
1523149300469477,14,4,35,3,-4,0,-3,-11
1523149300469477,-83,-14,-74,-13,-3,0,-1,-3
1523149300496548,39,5,3,-1,-1,0,-14,-13
1523149300496548,19,-2,7,-6,0,-2,11,50
1523149300498053,-27,-6,-3,-16,-4,-3,-10,-23
1523149300498053,-8,2,12,29,3,1,-5,8
1523149300502563,-1,-4,-1,-22,-2,0,28,9
1523149300502563,-27,-10,-13,17,0,-1,-20,-59
1523149300511588,5,9,-5,0,0,-1,-7,10
1523149300511588,18,-15,8,-30,-4,-3,-18,-5
1523149300526628,-18,-1,0,26,1,-1,0,12
1523149300526628,39,11,-20,-51,-2,2,6,6
1523149300528133,-17,-12,13,82,4,-5,0,-11
1523149300528133,13,2,16,9,0,-1,-1,0
1523149300549408,-12,9,-2,-58,-2,6,0,1
1523149300549408,-2,-8,-12,-51,-12,-6,-5,-14
1523149300550692,-10,-19,-17,0,-11,-11,-29,9
1523149300550692,20,8,16,93,7,6,28,0
1523149300571902,-16,1,0,-82,-4,-2,-8,4
1523149300571902,21,4,58,91,2,-5,-2,18
1523149300573253,6,-1,-61,24,3,3,4,28
1523149300573253,-21,-7,5,-54,-6,-3,-13,-45
1523149300586788,0,3,1,28,1,2,4,-1
1523149300586788,-9,3,-7,-57,-3,1,-4,-25
1523149300588295,35,2,11,-39,-5,-5,-54,-5
1523149300588295,-69,-21,1,15,3,3,47,24
1523149300609416,0,-4,-13,19,-1,0,-5,10
1523149300609416,18,4,-3,-3,0,1,45,39
1523149300611061,-14,1,16,4,1,-1,-9,-87
1523149300611061,51,9,-11,-22,-4,-2,-13,1
1523149300631718,-14,-1,12,20,-1,-6,-28,6
1523149300631718,12,-7,5,19,1,0,-45,19
1523149300633468,-30,3,12,-17,-2,4,90,6
1523149300633468,19,1,-35,-41,-5,-1,-13,27
1523149300646860,-16,-1,11,42,2,-2,-7,-38
1523149300646860,27,1,-2,13,5,2,2,9
1523149300648500,-17,1,-6,-18,-1,1,-1,1
1523149300648500,24,5,5,-60,-4,-1,-17,0
1523149300669320,0,-4,-8,33,1,0,12,20
1523149300669320,-14,-2,-14,60,-1,-4,-19,11
1523149300670825,8,1,-8,-50,-2,2,18,4
1523149300670825,5,4,9,-16,-2,-1,4,4
1523149300691671,-5,-2,0,10,1,-2,1,-13
1523149300691671,7,1,-2,-9,3,-1,0,-9
1523149300693178,8,1,9,12,1,1,-2,11
1523149300693178,-13,-3,32,30,-2,-3,-1,10
1523149300706212,-8,-2,-73,-44,-5,-1,2,-7
1523149300706212,0,4,8,5,-1,3,1,-17
1523149300713084,-3,-5,2,-1,-1,-3,-17,22
1523149300713084,2,1,-6,7,1,0,25,-31
1523149300729432,-1,6,40,9,0,0,-1,-4
1523149300729432,-9,-8,-33,-2,-1,-2,1,-9
1523149300730824,4,1,-8,3,0,0,-2,5
1523149300730824,17,5,4,-9,-1,-1,-17,16
1523149300751620,-46,-3,7,2,-3,-1,6,-35
1523149300751620,17,-1,6,4,2,-2,2,-2
1523149300753385,-1,9,18,-5,-1,0,-6,1
1523149300753385,1,-3,-14,8,-1,-3,4,-37
1523149300765658,11,-1,23,-1,-1,-1,-3,21
1523149300765658,1,-3,6,-17,-3,0,9,-3
1523149300773938,-6,-4,-10,17,0,-2,-3,-9
1523149300773938,-1,-2,0,-6,-3,-2,-7,8
1523149300789175,26,3,13,18,1,-2,-15,19
1523149300789175,-22,0,13,-21,-2,1,25,-74
1523149300790989,10,5,8,-9,-3,-3,-1,16
1523149300790989,8,-1,-10,18,2,-1,-9,9
1523149300818809,-3,-3,-2,-12,1,-2,-8,8
1523149300818809,-3,0,-28,-17,-10,-1,-4,-6
1523149300820819,-1,-4,-3,0,5,0,1,2
1523149300820819,-2,2,15,56,6,1,-4,-12
1523149300825831,-2,-8,-65,-27,1,-2,-5,15
1523149300825831,6,5,27,13,-4,-5,-16,39
1523149300832684,3,1,6,-29,-7,-1,20,-36
1523149300832684,-18,-11,-10,-5,-3,0,-24,19
1523149300848899,11,5,4,13,3,4,21,-6
1523149300848899,24,0,6,26,6,-1,-1,8
1523149300850907,-90,-13,-11,4,1,0,-6,-10
1523149300850907,34,5,5,15,8,2,-1,4
1523149300871301,16,-6,-10,-66,-26,-6,-11,10
1523149300871301,-14,-2,-4,14,6,2,2,-11
1523149300873307,9,-2,-3,-42,-18,-7,-11,38
1523149300873307,-8,-3,-2,10,-3,-1,-5,-27
1523149300885367,-29,1,13,24,7,1,-12,16
1523149300885367,30,9,0,-9,0,4,38,10
1523149300893557,-5,-16,22,45,7,0,-20,-11
1523149300893557,-7,-1,-45,-22,-3,-1,-4,21
1523149300908095,-6,2,16,27,-1,0,6,-5
1523149300908095,25,7,4,-32,-7,-2,-21,-2
1523149300909099,3,-2,2,-6,4,2,-1,17
1523149300909099,30,5,-6,-33,-11,-4,12,-6
1523149300930904,-27,-10,11,37,6,-2,5,-19
1523149300930904,12,1,-10,-18,0,-3,-1,3
1523149300931944,18,1,-16,15,0,-2,-9,-35
1523149300931944,-10,-2,16,-11,-2,-1,11,-3
1523149300945467,12,7,-17,-29,-3,0,-5,-8
1523149300945467,-13,-12,24,47,-1,-5,-7,32
1523149300953463,8,12,-15,0,6,1,-12,-26
1523149300953463,-14,-5,18,1,-2,-1,-6,-22
1523149300968624,12,-8,21,40,-3,-4,33,16
1523149300968624,-18,4,-12,-42,-3,-2,-16,-2
1523149300969004,12,-7,-8,-5,-1,4,10,7
1523149300969004,-34,2,12,3,0,0,-11,-7
1523149300991171,18,3,-11,-47,-3,1,-1,-28
1523149300991171,27,9,7,12,1,0,1,-4
1523149300991676,-17,-6,-2,40,-1,-4,3,21
1523149300991676,5,-7,23,18,3,-1,3,-8
1523149301014084,-40,-5,-3,-33,-7,-9,-20,-10
1523149301014084,23,7,24,30,3,-1,3,4
1523149301014929,13,-2,-5,-19,-2,1,15,15
1523149301014929,15,-2,-14,-26,0,2,0,-11
1523149301028604,7,0,6,11,3,0,-4,1
1523149301028604,-26,-9,-5,6,-3,-1,4,-11
1523149301028966,-4,5,-8,-28,-3,-4,-18,34
1523149301028966,-14,-2,-14,-10,-3,-1,18,-15
1523149301051529,4,-6,14,35,4,2,-11,13
1523149301051529,-15,-2,-28,-12,-3,-1,-6,-12
1523149301052028,9,1,15,-22,-1,2,14,7
1523149301052028,-5,-1,5,25,-1,-4,-12,18
1523149301074110,5,0,-12,-2,-1,2,13,-21
1523149301074110,-24,-4,6,-22,1,-1,-12,3
1523149301074588,10,-2,-8,-5,-1,-3,5,-14
1523149301074588,1,-1,25,24,-1,2,2,8
1523149301088468,1,1,-40,20,-2,-1,-3,6
1523149301088468,-4,-10,14,-32,0,-5,8,-10
1523149301089450,-32,-8,-10,14,-4,-3,9,-1
1523149301089450,19,-2,16,63,2,-8,-41,49
1523149301111031,21,8,-4,-15,1,4,31,6
1523149301111031,-22,-13,-16,-72,-6,5,-6,5
1523149301111979,-51,-2,-6,108,3,-1,-5,-24
1523149301111979,3,5,-17,-128,0,4,8,15
1523149301134093,7,-1,15,61,0,-3,-5,24
1523149301134093,14,0,-5,36,-2,-1,1,0
1523149301134934,5,2,5,-22,-2,-1,2,-13
1523149301134934,-7,-1,-12,-16,1,2,-7,-16
1523149301148605,-6,-1,7,-22,-4,-4,-18,1
1523149301148605,-6,2,-11,1,0,1,31,-13
1523149301148972,15,2,-8,-21,-1,-3,-16,7
1523149301148972,5,3,7,46,2,-3,-19,30
1523149301171029,6,-5,38,-39,-3,-2,33,-44
1523149301171029,-29,-3,-42,27,-2,-4,-18,0
1523149301171533,15,2,9,-28,-2,-1,-3,-9
1523149301171533,3,-6,-44,-54,-6,-1,6,4
1523149301185121,-5,0,1,50,2,-2,-8,3
1523149301185121,-4,0,7,-12,-2,0,-13,0
1523149301193676,22,10,7,-34,1,4,21,-29
1523149301193676,-10,-15,-18,37,-2,-7,-6,-18
1523149301208285,-2,0,6,34,5,1,3,30
1523149301208285,-19,-2,-6,-7,2,1,-3,-26
1523149301209131,19,4,-11,-67,-2,0,-8,5
1523149301209131,-7,-2,13,28,-1,-3,2,-8
1523149301231189,-3,0,-9,-15,0,2,-3,-9
1523149301231189,15,2,8,15,-1,-3,-5,19
1523149301231691,4,-2,-11,-23,-5,-3,-9,2
1523149301231691,-7,-2,6,31,-1,5,19,-10
1523149301245388,-2,-8,-10,10,-1,-3,-20,16
1523149301245388,-4,1,51,3,3,-4,27,-72
1523149301253248,-1,-3,-33,17,-3,-2,-15,-3
1523149301253248,12,10,2,-26,-3,0,23,-4
1523149301268392,-13,-7,-1,-36,-2,-1,-27,2
1523149301268392,57,-1,-48,7,-1,0,1,30
1523149301269293,-57,-17,32,16,0,-2,8,0
1523149301269293,3,4,11,-10,-1,3,10,-9
1523149301291007,1,2,-2,-6,-1,-4,-15,-11
1523149301291007,7,-3,13,-4,-2,0,-1,2
1523149301291954,9,-1,-16,24,1,-2,-17,-6
1523149301291954,-8,-4,-25,-23,-4,-3,11,5
1523149301305127,-2,-1,8,11,0,-1,-6,4
1523149301305127,-19,1,2,-9,-3,-1,-1,10
1523149301313307,16,2,0,7,0,0,3,4
1523149301313307,-20,0,17,22,0,-1,-11,-4
1523149301328844,3,-3,-48,-42,-3,-3,-1,-5
1523149301328844,3,2,7,20,3,-3,-1,-25
1523149301329691,-16,-8,14,33,3,-1,6,12
1523149301329691,12,1,-9,-1,1,0,-8,-2
1523149301350904,-5,2,10,-14,-2,4,29,-1
1523149301350904,-9,-3,-16,-10,-1,-1,-9,20
1523149301351749,8,1,10,-1,-2,-2,-2,1
1523149301351749,0,3,19,-2,-1,1,15,-12
1523149301365440,-7,-2,-11,-17,-4,-3,-16,1
1523149301365440,-17,-5,8,14,3,1,4,-5
1523149301373464,16,2,0,3,-3,0,28,-9
1523149301373464,-6,-2,-2,-14,-1,-5,-20,-34
1523149301388419,0,3,10,11,4,2,2,10
1523149301388419,8,-2,-19,-3,-1,0,-8,16
1523149301389453,-1,2,32,-7,-3,-2,-16,6
1523149301389453,0,-4,-43,2,-2,-2,18,9
1523149301411068,20,1,21,1,-2,-1,7,-14
1523149301411068,-4,0,1,-7,-3,-2,-7,2
1523149301411947,-7,-5,5,5,2,0,1,-3
1523149301411947,0,9,-11,-19,-3,-2,-10,5
1523149301425473,-8,2,6,8,2,0,5,-10
1523149301425473,-4,-3,-5,0,-2,-2,-5,-14
1523149301433624,11,3,6,-6,-1,-2,-6,8
1523149301433624,-3,-4,-16,1,-1,0,-9,-1
1523149301448624,-1,1,-13,0,0,0,6,-9
1523149301448624,-17,-8,16,0,-1,-2,-4,16
1523149301449009,-2,-3,-20,-9,-2,-5,-1,-5
1523149301449009,3,2,42,5,1,0,-2,1
1523149301471124,12,4,-29,1,1,1,-1,1
1523149301471124,-19,-7,2,-8,-4,-5,-14,16
1523149301471568,8,2,1,3,0,2,14,-3
1523149301471568,5,-4,5,0,2,0,-8,5
1523149301495791,-10,-4,32,-5,-1,-3,18,1
1523149301495791,14,3,-52,-15,0,1,2,3
1523149301496635,-3,-4,-1,23,-1,-3,-11,7
1523149301496635,-5,2,1,-5,0,-1,-5,2
1523149301508667,1,-1,3,-2,0,0,-8,-10
1523149301508667,3,4,6,0,-2,2,4,9
1523149301509169,2,1,0,-5,1,0,0,2
1523149301509169,-5,-7,-13,-10,-1,0,-8,3
1523149301530883,-11,-1,1,17,0,-2,16,-33
1523149301530883,-5,0,17,-18,-3,-3,-9,-2
1523149301531728,1,-1,-16,14,0,-1,-9,-3
1523149301531728,2,-4,8,-10,0,1,11,12
1523149301553788,-1,-3,-18,-7,-2,-1,-13,6
1523149301553788,-3,4,5,-2,-2,-2,-2,-7
1523149301554792,8,2,14,-23,0,0,-5,-9
1523149301554792,-1,-3,19,43,1,-3,-1,17
1523149301576347,-16,-1,4,9,3,2,8,1
1523149301576347,34,7,1,9,1,1,11,2
1523149301577350,-18,-9,-2,-11,-1,1,-13,13
1523149301577350,-2,1,-14,-31,-5,-2,1,-11
1523149301590886,-10,-3,-10,-16,-4,-1,-9,-10
1523149301590886,-1,5,2,-9,0,-1,-22,12
1523149301591912,74,7,1,42,0,0,8,31
1523149301591912,-89,-10,1,5,2,-3,3,-50
1523149301614191,4,-7,-1,-14,-4,1,17,-4
1523149301614191,-3,-1,-6,4,0,-2,-13,7
1523149301615129,4,3,-14,-51,-5,-1,12,-27
1523149301615129,19,3,11,81,3,-2,-7,11
1523149301628647,-7,-1,-6,-80,-1,-1,-16,0
1523149301628647,-14,-6,11,34,-2,-3,3,-14
1523149301629073,-10,-2,-13,-7,-1,-1,16,11
1523149301629073,27,11,4,-16,-4,-1,-10,3
1523149301650630,-25,-3,-8,16,-1,2,25,-30
1523149301650630,2,2,3,-20,-2,-1,-18,34
1523149301651632,18,2,-1,11,2,0,15,5
1523149301651632,-11,-10,-11,-16,-1,1,-4,-1
1523149301674193,20,2,1,-3,-1,0,-15,27
1523149301674193,-17,-4,1,25,1,0,12,-5
1523149301674695,28,8,-3,-26,-1,0,-25,7
1523149301674695,4,-13,4,22,-3,-2,12,21
1523149301688389,-7,2,-7,11,-3,-5,-17,-13
1523149301688389,-2,-5,-10,-42,-1,3,19,-31
1523149301689390,-31,-7,14,54,1,-6,-12,-24
1523149301689390,27,5,-6,-53,-1,1,-9,23
1523149301710948,19,8,1,33,2,-3,-6,-10
1523149301710948,11,3,0,-19,-3,4,31,11
1523149301711955,-12,-1,0,35,3,-1,-2,18
1523149301711955,-15,1,-7,-26,-2,0,-3,-42
1523149301734014,12,1,4,33,-1,-2,-20,-9
1523149301734014,-5,-1,14,31,2,-1,1,5
1523149301734853,-15,1,-17,-44,-4,1,-8,19
1523149301734853,1,-8,1,17,-1,0,23,-27
1523149301748550,4,-4,5,1,-1,-4,-20,29
1523149301748550,0,0,-11,-11,-1,1,36,-12
1523149301749436,-14,-4,6,-9,-2,-3,-22,-24
1523149301749436,8,1,-8,18,1,1,25,17
1523149301770992,4,0,8,-15,-4,-1,-3,25
1523149301770992,19,-3,-4,0,-3,-4,-16,-17
1523149301771953,-18,0,-4,15,3,3,0,0
1523149301771953,5,5,25,-17,-2,-8,-31,27
1523149301794347,-12,-8,1,19,0,-2,29,0
1523149301794347,17,-6,-14,-12,-3,-2,-17,45
1523149301794725,-12,3,2,-22,-3,1,4,-55
1523149301794725,8,6,-8,16,3,4,5,2
1523149301808260,-3,-6,-24,-18,-2,-5,1,17
1523149301808260,-12,1,13,-53,-6,-1,-18,-3
1523149301809263,2,-6,0,36,-2,-5,-6,12
1523149301809263,-8,-1,6,-12,-2,-3,-20,-13
1523149301832324,-6,4,-4,-20,-2,2,17,-8
1523149301832324,2,-1,17,35,3,-2,-6,-12
1523149301832824,3,-3,-12,-17,1,0,2,-1
1523149301832824,-41,-11,-3,2,-2,-6,-11,13
1523149301854542,4,1,12,10,2,0,8,-31
1523149301854542,-8,0,-9,-5,-1,-2,-6,-45
1523149301855386,-16,-8,-7,5,-1,-1,12,-2
1523149301855386,22,2,-13,-50,-9,-1,-19,30
1523149301868420,3,-1,12,58,6,2,12,25
1523149301868420,-35,-7,-5,-1,-1,-4,6,-11
1523149301868921,23,0,-2,-9,-4,-3,0,-15
1523149301868921,18,0,-6,-6,-3,0,6,-8
1523149301891137,-5,0,-6,-35,-2,0,-14,7
1523149301891137,6,1,7,39,2,1,-10,0
1523149301891481,10,7,3,-8,-3,1,12,13
1523149301891481,-7,-5,-19,-5,1,-2,-12,-15
1523149301914301,-3,-1,41,14,-1,-1,17,5
1523149301914301,13,-1,-29,6,1,2,10,-20
1523149301914761,-35,-6,-9,-12,-5,-3,-13,-1
1523149301914761,4,0,0,17,-2,-3,6,-3
1523149301928456,-14,-2,-9,-25,-3,-2,-14,-14
1523149301928456,-4,0,10,7,1,-1,-12,15
1523149301929450,-7,-2,12,-3,-2,-3,13,-29
1523149301929450,8,4,-10,-5,-1,1,-2,-28
1523149301951016,9,-4,-2,6,0,0,-3,25
1523149301951016,-21,4,26,9,1,-1,-8,3
1523149301951859,11,-5,-8,3,-1,-3,-13,-19
1523149301951859,9,1,1,-26,-3,1,8,11
1523149301974075,-2,0,-15,1,0,-2,-7,-16
1523149301974075,13,0,-9,-4,-2,-3,-13,16
1523149301974922,-50,1,4,-18,0,1,11,22
1523149301974922,-12,-2,-5,23,2,-2,4,-12
1523149301988458,-1,-2,25,3,1,-3,-20,-7
1523149301988458,27,10,-38,-16,-1,2,-4,23
1523149301989476,-5,-12,1,3,0,1,9,15
1523149301989476,9,2,12,8,1,-2,-1,-1
1523149302011193,-17,-4,-10,-13,-3,-4,-11,-8
1523149302011193,8,-2,7,8,-1,-1,7,-46
1523149302011697,10,5,9,-10,0,1,-6,0
1523149302011697,-9,-4,-5,5,1,0,3,5
1523149302034302,16,1,3,1,-2,0,-5,3
1523149302034302,2,3,-2,-8,-3,-3,-16,5
1523149302034758,3,-1,3,-3,-2,-1,9,-6
1523149302034758,-5,2,7,19,1,2,13,-4
1523149302048455,4,-4,-20,-3,-3,-2,-8,13
1523149302048455,-8,-5,0,-9,-3,-3,2,-1
1523149302049298,2,8,0,1,-1,-2,-6,-2
1523149302049298,9,-4,18,8,1,1,-2,25
1523149302071017,-3,5,-50,-20,-4,-5,1,-28
1523149302071017,-15,-6,11,8,-1,-1,-1,15
1523149302071880,14,1,-11,-4,0,0,-2,9
1523149302071880,-7,-1,-7,-10,-2,-2,0,-13
1523149302093916,2,0,10,7,2,-2,-15,19
1523149302093916,-14,-7,6,-5,-3,-2,30,-27
1523149302095075,4,-2,-10,4,-1,-1,-10,5
1523149302095075,5,3,-6,-4,2,0,1,2
1523149302107999,-6,-2,27,1,-1,0,1,0
1523149302107999,-1,1,-2,3,0,-1,-7,14
1523149302116131,5,-4,5,2,-3,-2,0,4
1523149302116131,-5,-5,-5,-1,-2,-1,-1,-10
1523149302131194,3,-4,-4,-2,0,2,4,-4
1523149302131194,-7,1,4,0,0,1,-1,-1
1523149302131699,5,0,-3,1,-3,-2,0,0
1523149302131699,0,4,15,-4,-3,-2,-6,-1
1523149302163309,-5,-10,-56,-5,-2,-2,3,-8
1523149302163309,-35,-4,6,-1,1,-2,-2,1
1523149302163785,-2,-3,2,2,0,-1,-13,12
1523149302163785,25,8,-4,-11,-1,1,17,-4
1523149302167796,-66,-16,13,0,-2,-2,-1,-18
1523149302167796,5,-3,-1,7,1,-2,-8,0
1523149302175816,12,5,-18,-45,-6,1,4,4
1523149302175816,-2,1,6,15,2,-2,-4,-2
1523149302190856,26,12,27,65,5,-1,1,-6
1523149302190856,-13,-3,-23,-66,-1,0,-6,12
1523149302192017,-12,-6,47,86,-5,-12,-26,5
1523149302192017,10,3,-27,-74,-3,5,16,10
1523149302213655,0,-10,17,40,-1,-3,-11,-40
1523149302213655,7,-4,-2,-11,-4,0,14,-3
1523149302214418,4,-2,2,18,5,-1,-6,-4
1523149302214418,-10,3,5,1,-1,-4,-4,1
1523149302227690,28,6,-11,-21,-1,-1,-18,17
1523149302227690,7,-4,-4,19,0,0,9,-15
1523149302236213,-5,9,5,-20,-1,-1,6,0
1523149302236213,27,-7,-5,8,-1,-3,-24,12
1523149302251015,-36,6,1,-36,1,4,24,-25
1523149302251015,4,-3,7,11,-4,-3,18,-49
1523149302251518,0,-3,-20,-8,-1,-1,-18,-3
1523149302251518,-9,-1,1,-25,-2,3,40,-2
1523149302273684,13,0,7,30,1,-5,-19,10
1523149302273684,39,9,-5,3,1,0,-11,41
1523149302274079,-47,-12,4,-5,2,3,10,-15
1523149302274079,-7,-3,12,1,-6,-4,9,-4
1523149302287613,-21,-2,18,-41,-6,-3,-28,-69
1523149302287613,-16,-5,-1,36,1,0,37,15
1523149302296221,22,4,-2,-7,4,1,1,5
1523149302296221,-13,-6,9,49,3,-5,-20,-1
1523149302310912,18,5,4,-62,-3,3,9,34
1523149302310912,19,1,10,40,2,-5,-19,0
1523149302311678,-5,-3,-7,-24,-2,3,1,-16
1523149302311678,-7,-2,-12,33,1,0,-25,-1
1523149302333469,11,4,-7,-65,-2,2,30,-1
1523149302333469,-5,0,-2,23,1,-1,-15,-3
1523149302334237,0,-7,2,-7,-2,-1,12,19
1523149302334237,-21,-5,-6,-3,0,-4,-13,-11
1523149302347773,33,4,-15,30,-5,-3,8,16
1523149302347773,-8,-6,-5,-63,-4,-2,-16,15
1523149302356034,1,3,-11,19,2,3,16,-9
1523149302356034,-37,-9,11,-3,0,1,-6,-12
1523149302371072,6,5,-13,-9,0,-1,1,19
1523149302371072,-13,2,11,36,-1,-1,-8,-11
1523149302371944,15,-3,-18,-37,-4,0,-3,11
1523149302371944,11,-4,9,11,-3,-5,-10,-9
1523149302393395,-26,-3,-5,28,3,1,11,-3
1523149302393395,1,-1,-13,-48,-5,-1,-1,5
1523149302393896,11,5,1,32,3,-1,-10,-5
1523149302393896,5,3,-29,-9,0,2,18,14
1523149302416694,-6,-3,26,-3,-1,0,-9,13
1523149302416694,4,0,3,16,-2,0,-2,-9
1523149302417459,2,0,-6,-28,-4,-4,-4,-4
1523149302417459,2,-1,-3,-4,-2,-2,-2,2
1523149302430995,7,-3,-8,15,0,1,-19,31
1523149302430995,-38,4,2,-15,-2,4,46,-6
1523149302431497,-9,-12,-4,-8,-3,-3,0,9
1523149302431497,0,-2,-8,-2,-4,0,-6,-3
1523149302453324,-5,-6,-3,18,2,0,-8,10
1523149302453324,-5,11,-2,2,-1,-4,-6,-33
1523149302454475,18,0,8,-11,-3,-1,-3,5
1523149302454475,-15,0,-1,18,1,-1,2,-1
1523149302476773,14,-4,16,-12,-2,0,2,12
1523149302476773,17,-4,-7,-5,-1,-2,-20,3
1523149302477279,-44,-10,-1,16,-2,-3,22,-27
1523149302477279,18,7,2,-18,-1,-3,-9,0
1523149302492537,7,-1,-10,0,-1,-2,2,4
1523149302492537,-3,-6,0,3,0,-1,-9,11
1523149302493458,9,4,0,-1,-1,2,-15,-4
1523149302493458,3,-3,0,-5,0,0,16,-5
1523149302513373,-22,-6,-5,-2,-5,-3,7,-8
1523149302513373,-3,-4,-8,0,-1,0,-14,23
1523149302514377,6,3,-4,1,2,1,10,3
1523149302514377,-2,3,14,-1,0,-1,-10,-2
1523149302536964,-2,-4,-52,7,-1,-2,4,-9
1523149302536964,4,-2,14,-8,-4,-2,-12,-2
1523149302537438,9,1,-28,0,-2,-1,1,2
1523149302537438,-3,-1,10,-1,1,0,0,-2
1523149302550753,4,3,8,-2,-1,-2,-1,6
1523149302550753,-2,-4,-6,-2,-1,-2,1,-4
1523149302551756,-4,1,19,5,0,-1,-4,1
1523149302551756,3,1,-1,-3,-3,0,1,-1
1523149302574817,1,0,-3,-3,-2,-4,-13,6
1523149302574817,-1,3,5,2,2,3,0,0
1523149302575819,-7,-1,-5,2,-1,2,25,-27
1523149302575819,0,-5,-4,-3,-1,-1,-3,-1
1523149302596935,3,0,6,-3,-1,-2,-4,1
1523149302596935,-5,-3,-2,-2,-2,-3,-3,3
1523149302597376,21,11,4,1,-1,-2,-8,6
1523149302597376,-24,-22,-19,-6,-2,-1,3,7
1523149302611120,-42,-2,4,1,0,-1,5,-18
1523149302611120,11,-1,13,0,0,-1,-2,-3
1523149302611914,7,4,-48,-8,-2,-4,-12,-1
1523149302611914,1,3,6,0,-1,0,5,0
1523149302633479,6,0,12,1,-2,-1,-10,-9
1523149302633479,4,-3,-9,-3,0,1,26,16
1523149302634257,-3,-5,27,2,-1,-2,-8,17
1523149302634257,8,1,-16,-2,-1,-2,-8,-8
1523149302656540,1,0,-7,-1,1,1,-3,7
1523149302656540,15,7,0,-1,0,-2,-4,-38
1523149302657353,-3,-14,3,-4,-3,-1,-5,25
1523149302657353,9,8,2,-1,-1,0,14,4
1523149302671070,19,1,5,-1,-1,-3,-11,-5
1523149302671070,-32,-6,5,-3,0,3,4,0
1523149302671857,-2,-4,-4,-14,-7,-1,-8,2
1523149302671857,32,6,-3,-22,4,4,-9,2
1523149302693734,-18,-10,8,80,5,-7,1,-19
1523149302693734,17,10,21,6,-4,-4,-10,10
1523149302694191,-5,5,-7,4,0,4,10,-10
1523149302694191,3,-3,0,-72,0,-1,-9,6
1523149302717283,-13,-1,13,63,-2,-3,12,-16
1523149302717283,11,-4,-10,4,1,-2,-10,-2
1523149302717754,4,-1,11,-11,2,-2,-18,37
1523149302717754,-15,2,-20,-57,-5,4,9,-14
1523149302731031,-34,-11,35,79,6,-1,9,-13
1523149302731031,3,-3,-8,-6,0,-2,5,4
1523149302732036,2,-1,6,-30,-3,-4,-8,-6
1523149302732036,-21,-10,2,11,-1,0,-9,17
1523149302753347,1,2,-22,-81,-7,1,-12,38
1523149302753347,0,1,-1,21,-1,-1,-4,22
1523149302754418,-24,0,7,8,1,1,19,-15
1523149302754418,13,11,-1,32,-4,-2,-4,-3
1523149302776513,13,1,-9,-67,-3,0,-8,3
1523149302776513,-16,-6,-2,17,-1,-2,-7,-1
1523149302777412,13,0,-10,-5,-2,-1,14,-5
1523149302777412,-25,-2,16,32,-2,-6,-31,-19
1523149302790947,11,3,-10,-7,0,2,-1,42
1523149302790947,32,0,-17,-82,-2,5,39,-13
1523149302791972,-26,-4,21,43,2,-4,-13,-22
1523149302791972,10,-4,-10,47,4,-4,10,-6
1523149302813507,6,2,0,-3,-3,-1,-12,0
1523149302813507,13,1,-4,-14,-3,-1,5,19
1523149302814010,-32,-9,-5,-34,-2,0,-6,-37
1523149302814010,0,-4,-15,45,2,1,4,3
1523149302836935,4,-4,8,-10,1,-3,-22,-24
1523149302836935,0,3,0,7,-1,0,23,10
1523149302837328,38,7,-1,11,-2,-2,-1,11
1523149302837328,-5,-2,3,-11,-1,0,0,5
1523149302850864,13,10,-12,-19,-2,1,19,-35
1523149302850864,-14,-5,5,30,-1,-2,-17,-10
1523149302851365,13,4,-3,-16,0,1,5,16
1523149302851365,-1,-1,5,-15,-2,-2,-20,21
1523149302873424,5,-3,-18,-9,-1,2,44,6
1523149302873424,-18,-5,5,2,-3,-3,-18,-9
1523149302874428,-14,0,-8,7,-2,0,-4,-55
1523149302874428,2,-1,10,-2,-1,-2,-10,5
1523149302896689,2,-1,-3,-4,1,-2,-35,-3
1523149302896689,-2,-2,-6,-12,-3,2,51,17
1523149302897486,-8,-6,-5,33,0,-3,-15,7
1523149302897486,-5,-2,-6,-14,-2,-1,7,-13
1523149302910258,5,0,4,-7,-3,1,3,-1
1523149302910258,-12,-3,1,-4,-1,-1,-24,-14
1523149302918543,1,-1,-5,-7,0,-1,-4,8
1523149302918543,1,-3,6,-3,-3,-1,15,-4
1523149302933732,15,6,0,-7,-3,-1,5,1
1523149302933732,-16,-9,-8,0,-1,-4,-35,6
1523149302934085,-1,0,7,2,-1,3,27,-4
1523149302934085,1,2,-3,1,-1,-1,-5,-19
1523149302956379,3,2,8,-7,2,2,12,12
1523149302956379,-4,-3,-1,15,1,-2,-15,-9
1523149302957183,0,-2,-4,-12,-4,-2,-4,1
1523149302957183,5,3,8,3,-1,-3,3,8
1523149302971230,-5,0,-3,-10,0,-1,3,-3
1523149302971230,-4,-3,-13,-2,1,0,-1,-11
1523149302971685,-5,-4,2,7,1,0,-9,11
1523149302971685,5,-3,-9,-6,0,2,6,0
1523149302993284,-11,-5,2,0,-1,0,1,-1
1523149302993284,1,4,11,-2,-2,-2,-6,-8
1523149302994288,5,2,6,0,0,-1,0,14
1523149302994288,-5,-5,-4,-1,-2,-4,0,-11
1523149303016594,-2,-1,1,-5,-1,-1,-2,-13
1523149303016594,-4,-5,-7,-2,-3,-2,-5,-7
1523149303017350,2,0,-5,-19,-3,-2,1,3
1523149303017350,-3,-1,10,24,1,0,1,2
1523149303029893,-8,-5,-7,-6,-4,0,6,2
1523149303029893,7,3,2,-4,-2,-1,-7,-6
1523149303038405,-3,4,-6,-2,1,-2,-11,3
1523149303038405,30,4,-3,-19,0,1,14,13
1523149303053446,-19,-6,4,21,0,-3,-11,-3
1523149303053446,7,0,-2,-5,-1,-2,-10,11
1523149303054448,-2,-4,-1,-2,-2,3,15,6
1523149303054448,-8,3,0,-5,-2,-4,-19,-10
1523149303076748,9,-3,-8,-8,0,1,12,2
1523149303076748,8,2,7,1,2,0,-3,6
1523149303077716,-1,-4,-7,6,1,1,-1,0
1523149303077716,-14,-5,-3,-6,-3,-4,-9,-8
1523149303090279,8,9,12,-14,-3,-2,2,7
1523149303090279,-20,-7,1,22,-3,-3,-5,-14
1523149303098729,13,0,-1,-3,-1,-4,-27,11
1523149303098729,-35,-8,-5,-1,1,3,38,4
1523149303113345,-1,0,-12,-31,-3,-1,-19,16
1523149303113345,-3,-3,5,29,0,2,15,-8
1523149303114107,-3,-4,-6,-12,0,-1,-9,-6
1523149303114107,8,0,-4,1,-4,-4,-16,3
1523149303136882,40,4,34,41,-1,-1,7,-21
1523149303136882,-19,-1,-82,-66,1,4,-5,6
1523149303137169,9,-4,43,73,1,-5,22,-2
1523149303137169,3,8,-13,-31,-6,0,-8,-19
1523149303150257,0,-2,-15,-31,1,1,-1,14
1523149303150257,6,4,16,16,6,-1,-12,-44
1523149303158223,8,5,-23,-62,-7,-1,-18,-31
1523149303158223,-4,-2,-6,31,1,-1,44,21
1523149303173502,-16,3,17,-1,-1,2,3,-7
1523149303173502,5,-3,-1,-28,-4,-5,-38,43
1523149303174267,-63,-23,-4,39,5,3,45,8
1523149303174267,2,3,13,-41,-1,1,4,-21
1523149303196562,3,-10,-25,30,-4,-6,-19,9
1523149303196562,-16,3,1,-8,-1,0,25,-22
1523149303197329,41,8,8,-12,-4,-2,-14,17
1523149303197329,-33,-9,22,-7,-1,-4,-50,-11
1523149303210580,-20,-6,9,34,4,5,83,13
1523149303210580,25,6,-9,3,-2,0,-8,-2
1523149303218384,7,2,-16,-38,-4,-3,-9,7
1523149303218384,13,-7,0,-4,-3,-5,-12,-4
1523149303233517,-9,-2,-10,-16,-5,-5,-46,-12
1523149303233517,-3,-11,9,-10,-4,-2,20,-23
1523149303233926,1,5,15,20,3,3,13,2
1523149303233926,-32,-3,-3,34,3,-2,-24,-8
1523149303256722,25,5,-7,7,1,-1,13,-55
1523149303256722,-2,-6,-5,-46,-5,-1,-5,4
1523149303257702,-6,8,-4,4,-1,2,-16,-2
1523149303257702,68,3,0,-5,1,0,11,28
1523149303270758,-12,-4,12,30,0,-5,-55,-8
1523149303270758,-2,-6,14,21,0,2,63,9
1523149303278756,-48,7,-14,-18,-3,-5,-8,-8
1523149303278756,7,5,8,5,1,0,-3,1
1523149303293710,-4,-9,-5,-27,-1,3,-1,1
1523149303293710,12,-1,-14,-20,-3,0,-9,17
1523149303294085,4,-5,26,42,3,-2,-7,-2
1523149303294085,-9,7,-10,-1,-3,-1,35,-32
1523149303324165,-11,0,3,42,-9,-9,-22,14
1523149303324165,-13,2,21,-30,6,3,-7,-1
1523149303325211,13,-9,-18,-6,-2,-6,3,10
1523149303325211,-6,5,2,20,2,2,-4,-6
1523149303330182,-1,-5,-18,-73,0,1,8,9
1523149303330182,-10,1,21,42,-3,-3,-15,-2
1523149303338445,38,3,-10,-30,-1,2,-12,-17
1523149303338445,-18,-12,-4,31,0,0,20,35
1523149303353743,-1,2,3,-9,-6,1,19,-3
1523149303353743,-18,3,1,23,-3,-8,-74,0
1523149303354247,42,4,-12,-48,0,6,72,20
1523149303354247,-30,-11,12,-19,-5,-7,4,-35
1523149303376541,3,2,-9,15,0,3,4,-1
1523149303376541,11,0,-15,-14,-4,6,-8,9
1523149303377307,-6,-2,42,34,-3,-7,-21,-11
1523149303377307,7,1,-18,3,5,-3,-16,12
1523149303399125,13,17,2,-2,-4,2,-9,7
1523149303399125,3,-5,-5,-5,-2,-5,24,-44
1523149303399917,-26,-7,9,8,-1,-4,-14,-1
1523149303399917,7,1,-15,-12,-6,6,3,7
1523149303413451,-14,-2,-2,-11,1,0,-5,1
1523149303413451,1,-2,-6,15,1,-6,-6,6
1523149303413954,-13,0,-8,9,1,3,36,8
1523149303413954,14,0,4,-2,-4,0,-26,6
1523149303436714,-14,-12,-11,-16,3,-4,13,3
1523149303436714,1,3,6,20,3,-1,8,8
1523149303437662,-2,-3,-17,-4,-3,1,-15,-13
1523149303437662,5,1,4,-11,1,1,-7,9
1523149303459269,-2,-2,19,4,1,-5,4,4
1523149303459269,31,0,-17,0,-3,2,3,9
1523149303459574,-15,-1,14,-2,-1,0,-11,9
1523149303459574,-8,-6,-6,-4,-4,-6,4,-25
1523149303475142,-3,-2,-4,1,1,0,-1,-10
1523149303475142,7,4,20,12,1,5,7,3
1523149303475618,13,1,-33,-9,-1,-4,-22,8
1523149303475618,-36,-6,-1,-1,0,-1,13,-10
1523149303496862,10,-3,-16,-4,-2,0,4,1
1523149303496862,-12,-2,9,-3,-2,-3,-8,0
1523149303497174,-7,5,-1,3,1,0,-1,4
1523149303497174,12,-2,0,-2,-3,2,-1,9
1523149303518733,1,-1,-11,-5,0,0,-6,-1
1523149303518733,-17,-2,29,5,0,-2,5,2
1523149303519735,-5,-6,-39,-2,-1,-2,-4,-13
1523149303519735,15,5,-2,-1,0,1,-6,-7
1523149303533271,-1,2,14,-3,2,1,1,-1
1523149303533271,0,0,4,4,-3,-3,-1,2
1523149303534275,-5,-5,10,0,-2,-2,0,-14
1523149303534275,18,0,-2,-2,3,-1,-17,5
1523149303556832,11,8,-8,-1,0,2,12,16
1523149303556832,-3,0,-2,-2,-1,0,-6,-12
1523149303557335,7,-9,-2,-2,-3,-1,7,17
1523149303557335,-6,-6,-4,-2,-3,-2,-5,8
1523149303579147,-14,0,6,-3,-2,-4,-13,-38
1523149303579147,0,-2,-6,4,0,-2,2,-1
1523149303579895,8,3,9,-10,-2,-2,-11,-9
1523149303579895,34,5,4,34,1,-2,1,18
1523149303593627,-7,-8,-10,-20,-2,2,6,10
1523149303593627,-19,5,-13,-2,3,0,17,-38
1523149303593932,-11,-10,16,21,1,-2,-8,1
1523149303593932,0,7,-12,-48,-2,4,11,-5
1523149303616493,-7,-7,2,24,-3,-6,-25,32
1523149303616493,3,1,3,37,3,1,17,-23
1523149303617495,9,9,1,-28,2,7,19,6
1523149303617495,-12,-8,2,9,-4,-4,0,-10
1523149303639248,-4,-4,-3,17,2,-2,-2,1
1523149303639248,14,-8,-2,-20,-3,-2,-13,42
1523149303639554,6,22,9,-6,1,0,-6,-25
1523149303639554,-16,-17,-9,45,-1,-4,-22,22
1523149303653590,6,-11,-20,-70,-2,2,7,-7
1523149303653590,15,-6,-6,-17,-7,-5,-37,-62
1523149303654092,-20,1,19,5,4,5,61,19
1523149303654092,10,3,-53,-27,-3,-4,1,-6
1523149303676885,6,12,17,50,4,0,1,-20
1523149303676885,-37,-15,-7,12,1,-3,-14,28
1523149303677154,10,0,-21,-53,-7,-5,-37,9
1523149303677154,-1,-1,22,14,2,-1,-37,-17
1523149303699412,-1,-4,7,22,1,2,69,-19
1523149303699412,2,4,-15,22,0,2,2,39
1523149303699713,-1,-15,-8,-68,-6,-1,7,-49
1523149303699713,7,8,-3,-15,-6,-2,-13,-5
1523149303713499,18,-2,2,5,1,-3,-19,36
1523149303713499,10,9,12,24,1,1,11,2
1523149303714253,-13,0,-12,5,-2,-4,-5,-18
1523149303714253,-6,-6,8,-11,2,1,2,2
1523149303736911,12,2,-2,-5,-3,-4,7,4
1523149303736911,-33,-5,1,-6,-2,-1,13,-34
1523149303737313,5,-2,2,29,2,1,-30,15
1523149303737313,-1,3,3,-17,-3,0,18,-16
1523149303758440,3,6,-2,-14,-15,-6,-30,9
1523149303758440,-9,-6,10,5,3,-3,33,16
1523149303766132,-1,-1,-15,14,-16,-6,-4,-1
1523149303766132,-4,1,57,37,24,8,23,13
1523149303773653,-1,1,-10,-12,7,5,-1,-27
1523149303773653,13,2,1,-17,-4,2,-9,12
1523149303774475,-4,-5,-5,1,0,-3,-6,-4
1523149303774475,-9,-1,3,-1,-10,-6,5,-5
1523149303797214,-7,-2,-5,-10,-8,-1,-11,2
1523149303797214,5,1,-6,-31,2,4,12,-2
1523149303797474,29,4,12,46,8,-2,-7,1
1523149303797474,4,-6,7,35,-1,-8,-21,-5
1523149303826788,-21,-12,-12,20,1,0,18,5
1523149303826788,9,1,-17,-61,-9,-3,-16,10
1523149303828055,4,9,3,-28,2,2,-2,5
1523149303828055,7,6,-8,40,1,-1,14,5
1523149303833068,6,-4,27,-16,-4,-5,-15,-2
1523149303833068,18,-2,-40,1,-4,0,-21,43
1523149303841591,-11,0,-10,-56,-2,4,16,-26
1523149303841591,-34,-9,10,83,3,-1,27,2
1523149303856656,35,12,4,-59,-5,-2,-2,13
1523149303856656,-6,-1,15,30,5,0,-20,22
1523149303858136,-49,-12,0,15,-1,-3,1,-18
1523149303858136,11,4,-18,-57,-2,4,4,6
1523149303879190,2,0,-26,-2,-5,2,-3,-12
1523149303879190,-10,2,33,3,0,1,17,-5
1523149303880695,11,-9,-2,38,4,-4,-35,21
1523149303880695,-2,-1,3,-29,-10,-2,19,-30
1523149303892727,-11,2,-8,8,3,-3,-15,5
1523149303892727,4,0,-9,-8,0,0,-2,-11
1523149303901752,-5,-2,12,23,-1,-1,1,4
1523149303901752,-4,-2,-8,-35,-4,0,-9,18
1523149303916291,-8,-3,3,10,2,-3,-1,5
1523149303916291,0,10,0,3,-2,-3,-12,-12
1523149303918296,3,-1,11,12,-1,0,22,-29
1523149303918296,-7,-16,-55,-16,0,-1,-10,3
1523149303939046,-2,-8,4,8,1,2,0,1
1523149303939046,-8,-2,5,6,-2,-4,5,-16
1523149303941016,-10,-6,-16,7,-2,-3,-13,12
1523149303941016,11,9,9,-20,-3,3,11,12
1523149303952888,-12,-3,-11,8,2,-1,-1,-7
1523149303952888,-1,-9,-5,-3,-1,0,0,4
1523149303961410,-6,4,1,2,-3,-1,-3,3
1523149303961410,42,4,7,-10,-11,2,16,-23
1523149303976686,-76,-9,-4,3,12,-1,0,-34
1523149303976686,11,0,-1,3,-1,-4,-12,-11
1523149303978504,-10,-5,-3,2,-1,0,29,12
1523149303978504,0,2,0,-10,-5,-2,-11,2
1523149303999211,23,1,14,5,-5,-2,-9,12
1523149303999211,-5,-2,0,-2,1,1,3,-7
1523149304000514,-2,-3,2,6,-2,-2,-15,-8
1523149304000514,-11,0,-7,-10,2,0,-6,3
1523149304013005,4,0,0,2,0,2,23,1
1523149304013005,-20,-1,2,1,2,0,4,-1
1523149304021821,37,0,4,-15,-4,-1,-5,12
1523149304021821,-15,-2,0,19,0,-2,1,1
1523149304036015,2,-2,-12,-5,0,-4,-16,-8
1523149304036015,3,-2,4,-1,-5,-2,4,-6
1523149304042992,-7,1,-4,-1,0,-1,1,5
1523149304042992,-12,-1,-5,-10,1,-1,-8,-5
1523149304059078,3,-1,11,1,-3,0,-20,14
1523149304059078,14,2,-5,0,-3,0,33,2
1523149304060992,14,-3,-5,1,0,-1,0,11
1523149304060992,-27,-2,2,-4,0,0,-9,-2
1523149304073071,62,3,-1,0,-14,1,1,18
1523149304073071,-50,-4,-3,-6,11,-1,-8,-18
1523149304081477,4,-3,-4,7,-4,-3,-6,4
1523149304081477,20,4,1,-41,0,-1,2,1
1523149304104236,-18,-4,-1,25,-2,0,3,2
1523149304104236,2,-5,3,15,-5,-3,-6,2
1523149304105542,2,0,-5,-23,-2,-2,6,-3
1523149304105542,-21,-4,-11,-6,-4,-2,-11,-49
1523149304118787,24,8,-6,-48,1,1,-8,4
1523149304118787,-32,-2,2,55,3,-3,-12,-18
1523149304120792,-45,-11,10,20,3,-4,-14,17
1523149304120792,4,7,25,36,0,4,31,-8
1523149304132852,21,5,-39,-72,-2,2,-2,4
1523149304132852,45,0,23,2,-4,-4,-1,21
1523149304141847,-4,-10,-3,8,-13,-3,-11,-37
1523149304141847,-32,2,0,-9,13,-3,19,-46
1523149304156384,16,-6,12,56,0,-5,-27,-13
1523149304156384,-2,0,-18,-66,5,11,54,31
1523149304157889,9,7,-5,35,4,4,-6,19
1523149304157889,-7,-6,2,-25,-8,-6,-31,13
1523149304179188,14,2,-3,-13,-3,-3,23,31
1523149304179188,-48,-3,-4,27,-5,-5,-11,-89
1523149304181056,17,2,-11,-33,-9,0,26,3
1523149304181056,19,-3,12,54,5,0,-17,18
1523149304192719,-21,-2,8,12,9,-4,-37,-16
1523149304192719,22,2,-9,-7,-10,0,29,30
1523149304201506,21,21,7,-3,3,5,6,11
1523149304201506,17,-19,-11,-28,-1,-1,-11,-31
1523149304216545,-92,5,1,-23,-8,-3,5,-24
1523149304216545,47,-8,-8,24,-1,-7,-19,15
1523149304218050,-1,4,6,23,-15,-9,-1,-29
1523149304218050,28,9,-9,-24,1,3,-18,61
1523149304239104,-21,-6,9,21,-3,5,34,-21
1523149304239104,14,4,-4,-25,-5,5,-11,1
1523149304240610,-35,-24,-13,-9,13,-4,-10,6
1523149304240610,49,13,1,-9,-10,1,-18,46
1523149304252890,-60,-15,-4,-12,0,-7,6,-85
1523149304252890,-22,-6,11,31,-5,-4,-9,8
1523149304261667,30,-4,-13,-45,-12,-3,-4,9
1523149304261667,-72,-16,8,-11,1,-2,5,11
1523149304276705,31,-10,0,8,-2,-2,-2,-16
1523149304276705,32,7,-14,-54,-4,-3,-10,10
1523149304278209,-22,-7,8,69,-7,-3,-11,5
1523149304278209,-12,-3,0,53,15,3,31,-23
1523149304299338,11,10,-9,-89,-4,0,0,39
1523149304299338,-14,-7,18,74,8,-4,-46,-25
1523149304300771,8,5,-9,-34,3,6,43,25
1523149304300771,-3,-3,-8,-4,-12,-2,17,-16
1523149304321877,30,6,5,24,3,3,-12,11
1523149304321877,9,3,-7,-19,13,6,0,36
1523149304322828,-9,2,1,-16,-1,0,-8,-27
1523149304322828,28,-6,-4,-7,-5,-6,-18,11
1523149304336927,58,9,12,65,8,-1,14,2
1523149304336927,-3,-9,-20,-56,-9,-1,0,25
1523149304338497,-2,0,19,1,8,0,-11,-8
1523149304338497,-4,1,3,20,0,-3,1,-3
1523149304358924,-39,-1,-3,12,1,-2,-23,21
1523149304358924,-19,2,-10,-19,-15,-3,29,-43
1523149304361025,53,4,1,-5,25,5,9,-3
1523149304361025,2,1,-2,10,2,-4,-24,-2
1523149304381484,-24,-14,-4,-16,-3,-1,22,24
1523149304381484,-17,0,7,29,3,0,21,-18
1523149304382989,-21,0,-5,-17,-8,-5,-19,-44
1523149304382989,-6,-7,-3,-11,-3,0,-8,21
1523149304396524,-21,6,0,21,3,1,17,-1
1523149304396524,51,4,-1,-21,-1,-1,-14,7
1523149304398028,3,-9,-2,6,-3,-1,-4,22
1523149304398028,2,3,0,-1,-6,-5,11,-3
1523149304419085,-26,-2,-3,1,-4,-1,-28,-13
1523149304419085,8,-2,-5,-2,1,0,9,3
1523149304420588,-21,-1,0,6,-1,-2,-11,3
1523149304420588,-12,1,0,-6,0,1,-3,-34
1523149304443342,47,-2,1,1,-1,0,-3,15
1523149304443342,-53,-2,-1,-2,-11,-2,-12,4
1523149304444652,6,1,-2,7,4,-1,-11,-7
1523149304444652,3,-9,-6,-13,-6,-3,6,6
1523149304455963,21,3,3,5,0,-3,4,3
1523149304455963,-3,-9,1,1,-3,-1,2,-2
1523149304462479,-9,11,2,-13,-3,1,-7,-10
1523149304462479,-2,-2,0,15,3,-2,-7,11
1523149304479027,-66,-15,-6,-2,-7,-4,9,-37
1523149304479027,2,1,2,-1,6,-2,-8,1
1523149304481016,-40,0,-5,-5,0,1,-2,12
1523149304481016,7,1,7,5,2,2,1,3
1523149304501934,1,-6,-4,1,0,-1,2,-15
1523149304501934,-10,-4,-4,-4,-2,-5,-18,1
1523149304503557,6,-6,-3,-2,-2,0,15,11
1523149304503557,3,7,-4,-22,-2,0,18,-3
1523149304515904,-44,-2,0,29,0,4,-2,14
1523149304515904,84,3,3,-10,4,3,2,-2
1523149304523057,18,2,-3,-14,-3,-4,-9,-2
1523149304523057,-17,-1,-1,18,-3,-3,3,0
1523149304538965,-5,2,-2,-16,-11,-1,-13,10
1523149304538965,9,-8,-3,2,24,5,33,-49
1523149304540971,-17,-8,-1,7,-4,-3,-4,-2
1523149304540971,20,9,-6,-13,-2,-4,-12,1
1523149304561841,4,-17,-1,-1,3,2,5,13
1523149304561841,-12,12,0,7,-8,-2,-10,6
1523149304563461,4,-2,-2,2,-4,0,1,3
1523149304563461,-5,-4,-6,-25,-3,-2,-3,-13
1523149304576013,37,6,3,22,1,-2,2,2
1523149304576013,-34,-7,-6,-14,-3,-1,-1,14
1523149304582529,3,-4,-4,-5,2,-1,-15,21
1523149304582529,27,1,7,9,-4,0,7,16
1523149304599072,11,3,-3,-9,-1,1,12,-56
1523149304599072,-14,-1,-16,-54,-2,-1,-19,-13
1523149304600577,-8,-3,0,44,4,-7,-25,5
1523149304600577,9,-8,19,60,-11,-3,49,-3
1523149304621824,-29,-4,-3,-25,20,6,-14,18
1523149304621824,-2,6,8,5,1,3,15,17
1523149304623451,-10,-3,-11,-71,-5,3,3,-18
1523149304623451,-32,7,-8,18,1,-6,-67,-6
1523149304636020,16,-15,4,17,-8,-5,47,12
1523149304636020,4,3,1,-16,-7,-3,-2,41
1523149304642413,3,-1,9,40,3,5,18,10
1523149304642413,-1,4,2,-2,-2,-1,-2,-7
1523149304659622,-41,3,8,16,1,-4,-34,1
1523149304659622,-9,-3,-21,-49,-6,-2,-3,-23
1523149304661126,37,7,9,44,-2,-3,19,3
1523149304661126,1,-12,-10,-38,-1,-2,-51,-5
1523149304681841,37,10,-4,0,1,4,61,51
1523149304681841,27,-5,-14,-40,-7,1,-4,36
1523149304683185,-21,-9,8,26,-4,-1,-15,-35
1523149304683185,9,15,-12,-5,-3,-2,-7,-22
1523149304695876,-40,-20,28,68,3,-2,-19,-3
1523149304695876,50,10,-13,-35,-7,-4,5,8
1523149304702737,-17,-13,7,6,-8,-3,15,-8
1523149304702737,-13,-10,-9,-6,1,-2,-21,8
1523149304718780,-11,13,-19,-90,-7,0,16,5
1523149304718780,-30,-5,15,90,-2,-4,-4,-12
1523149304720786,54,11,3,6,3,-2,-21,21
1523149304720786,-69,-9,-9,-55,-1,4,42,-34
1523149304741792,41,1,-10,-13,-9,-8,-30,-12
1523149304741792,-31,-7,13,55,4,0,-13,18
1523149304743578,35,-6,-5,-60,0,-1,10,10
1523149304743578,-49,17,3,30,8,2,23,-33
1523149304755847,36,-1,-14,-8,-2,0,-6,9
1523149304755847,9,1,9,-4,-3,-3,-2,-19
